46	46	26
52	53	20
121	122	14
7	7	23
38	38	11
93	93	14
99	99	14
97	97	16
20	20	26
2	17	2
114	115	7
50	50	19
91	93	2
85	85	18
106	107	7
51	51	34
71	73	7
54	58	3
78	78	10
126	127	11
49	49	35
63	63	22
102	104	3
61	61	17
97	98	3
69	70	18
58	58	19
48	48	45
56	56	23
120	121	10
29	30	14
111	111	17
42	42	25
57	57	24
118	131	1
52	52	28
15	76	6
108	109	6
64	64	17
26	61	2
41	42	6
5	5	29
104	105	32
129	129	13
74	74	14
19	21	5
99	125	4
41	41	15
82	83	2
114	119	9
116	117	10
73	73	7
12	12	26
80	80	20
79	79	17
122	122	13
77	81	1
10	10	28
106	106	16
53	53	29
76	76	23
102	102	19
117	117	27
132	133	8
108	108	17
80	81	11
27	29	1
110	110	20
41	46	2
44	46	6
95	96	5
32	33	1
77	78	10
19	20	5
6	6	20
69	69	26
62	62	20
32	32	23
39	39	13
70	70	9
4	4	14
131	131	6
120	120	17
8	9	9
94	94	14
128	129	5
73	74	3
90	91	1
11	11	19
98	98	9
40	42	4
25	25	18
48	49	16
65	65	18
100	100	12
125	127	2
95	95	18
59	115	2
119	119	9
53	54	12
44	67	2
17	21	3
29	29	19
17	32	2
30	75	2
3	3	22
39	66	3
34	34	2
84	84	21
55	55	25
62	63	16
68	69	6
17	33	4
79	80	8
96	96	29
91	92	3
18	20	2
1	1	29
2	2	14
30	30	20
59	59	10
4	27	8
111	113	6
41	107	4
118	130	1
130	130	27
26	26	28
101	104	6
114	114	30
125	126	11
57	110	3
125	130	5
33	33	15
130	131	11
14	14	13
112	112	16
9	9	14
44	45	14
14	15	8
68	68	6
26	27	3
75	75	14
92	92	18
8	8	6
118	118	2
108	115	4
46	47	13
115	115	20
118	119	6
23	24	2
28	29	11
89	90	3
59	62	7
109	109	22
0	0	12
21	27	1
132	132	11
4	5	4
56	64	2
68	108	4
86	87	9
76	78	2
89	89	17
47	47	36
21	21	7
32	58	4
123	123	18
65	70	3
31	32	7
44	44	21
96	106	1
18	18	3
59	61	8
103	103	18
89	98	5
95	103	5
71	74	1
10	12	7
64	70	4
71	71	19
16	19	2
15	15	2
83	83	2
13	13	16
20	31	1
38	39	4
96	101	1
133	133	16
54	54	13
19	19	15
23	23	10
54	55	2
113	113	18
27	27	13
31	112	2
91	91	6
24	24	17
86	86	4
78	79	2
100	101	8
124	124	23
16	17	1
41	66	3
6	71	3
77	77	25
67	68	10
49	55	2
75	76	7
124	128	3
72	72	16
5	23	2
76	77	3
90	90	15
68	70	2
44	104	4
123	124	3
128	131	3
15	32	7
43	62	1
21	22	4
43	43	19
67	67	2
0	1	4
56	120	5
13	28	3
11	18	4
101	101	13
121	121	17
116	116	8
90	92	2
122	123	12
127	128	3
11	12	6
104	108	3
102	126	8
105	105	20
107	107	9
87	91	1
110	111	7
10	90	4
12	13	1
88	88	8
83	84	6
5	19	1
104	104	12
106	125	1
45	46	4
15	17	4
17	17	10
32	75	1
37	38	2
125	125	18
64	65	19
20	21	8
129	130	6
19	22	2
119	120	5
126	126	17
94	95	5
3	4	3
16	16	10
99	124	1
14	18	2
66	66	4
47	48	4
25	26	11
44	62	3
15	40	2
1	2	1
57	62	6
112	115	3
26	62	5
111	117	2
27	28	9
127	127	7
71	72	10
99	101	2
12	73	7
60	60	7
55	56	2
81	84	5
65	90	2
115	120	1
69	104	1
28	28	19
40	77	1
100	104	1
113	114	7
32	76	1
73	75	5
82	103	7
55	78	2
109	110	3
7	8	4
82	118	3
118	120	2
96	102	4
96	97	4
87	87	8
52	54	6
124	125	7
40	94	3
105	106	3
40	78	2
40	41	2
81	81	2
17	18	6
88	89	1
9	10	3
65	71	2
31	31	6
70	80	4
72	74	3
1	31	1
69	71	1
21	118	1
101	102	2
72	73	8
100	124	3
118	132	3
87	88	4
64	69	1
74	75	6
56	57	7
7	93	3
34	58	1
42	64	5
66	75	2
113	115	2
58	59	3
53	56	1
15	16	2
107	121	3
109	117	2
99	100	11
60	105	2
29	111	2
13	56	7
46	105	3
19	55	8
18	19	7
85	86	2
10	92	4
16	18	2
70	71	1
2	3	7
46	48	2
56	63	2
86	94	4
48	50	1
125	132	4
107	108	3
115	117	1
128	128	4
44	105	3
1	3	2
127	130	3
86	96	1
96	100	1
117	130	2
58	63	2
102	117	4
45	45	10
65	72	2
13	14	2
24	25	2
39	40	1
25	50	1
50	51	6
49	50	2
82	82	2
69	76	5
85	97	2
125	131	2
96	116	2
15	29	1
58	64	1
7	87	2
39	42	1
84	117	1
66	67	1
5	13	3
103	127	3
40	40	5
49	69	2
81	82	4
101	105	2
42	43	2
10	11	1
108	114	1
11	25	4
33	74	1
98	99	1
59	60	3
120	132	2
77	84	2
30	31	2
33	75	2
76	116	1
81	83	3
22	22	2
14	78	2
100	120	3
111	112	1
58	61	2
117	118	2
59	76	2
13	71	2
60	61	8
55	57	2
55	114	2
105	107	1
103	126	1
43	44	2
40	60	1
83	97	1
1	20	1
103	107	2
34	94	2
38	40	2
2	25	3
131	132	2
102	115	1
89	92	1
22	23	1
110	117	2
56	113	3
55	113	2
92	93	1
4	31	1
70	111	1
54	56	1
128	130	2
53	55	1
40	43	1
71	111	2
68	97	1
57	58	1
56	114	1
60	62	1
47	116	2
48	84	3
125	128	1
48	81	1
126	129	1
21	24	1
7	94	2
109	118	1
46	70	1
102	129	1
3	14	1
76	115	1
15	78	2
104	125	3
7	58	2
11	93	1
67	98	1
31	80	1
43	64	3
117	131	3
33	76	1
6	7	3
100	125	2
52	55	1
108	118	1
73	91	2
67	108	3
42	60	1
99	106	1
11	26	3
129	131	2
72	76	1
101	127	2
102	103	1
65	66	2
10	25	1
41	43	1
30	76	2
61	62	1
40	64	1
65	73	1
117	119	1
99	116	1
99	126	1
73	76	1
64	111	1
110	124	1
5	30	2
119	131	1
48	56	1
38	107	1
95	105	1
67	104	2
68	107	1
107	120	1
41	133	1
103	115	1
44	49	1
27	102	1
13	55	1
7	86	1
78	80	1
38	94	1
