59	64	3
93	101	2
92	92	61
59	59	112
67	67	61
79	79	43
49	50	32
55	55	32
63	63	61
31	32	7
86	86	50
35	35	31
44	44	86
73	73	47
25	25	28
80	80	56
38	39	12
47	47	51
46	46	66
77	77	48
57	99	1
43	43	63
33	34	13
49	59	6
89	89	47
56	56	52
46	47	23
60	60	61
71	71	57
72	74	11
33	33	41
62	63	20
76	76	55
65	99	4
62	75	2
82	82	30
88	97	5
45	59	4
86	88	14
85	85	73
42	42	68
98	98	43
71	72	13
64	64	56
73	77	7
54	54	46
73	79	1
66	69	4
58	59	17
26	26	25
38	38	32
27	27	46
90	90	48
70	70	91
61	61	54
45	45	35
31	31	32
41	41	64
34	34	32
68	68	103
26	84	5
100	100	51
91	91	49
20	22	11
95	98	2
91	92	16
95	95	59
63	64	31
61	99	2
48	48	70
66	67	14
83	84	8
83	83	41
52	84	11
79	83	5
81	82	20
93	93	43
98	100	12
49	56	3
96	96	44
48	58	3
48	62	7
79	89	3
41	42	11
67	68	19
84	84	33
85	86	9
81	93	3
32	32	20
58	58	61
89	91	13
88	89	15
37	37	25
94	94	40
89	90	6
78	95	1
51	51	45
97	97	63
50	50	50
97	101	5
53	54	29
88	88	40
74	74	66
60	61	8
24	24	19
53	63	5
78	78	42
29	35	2
55	58	2
88	102	3
56	58	6
34	39	4
41	74	2
47	48	35
69	70	18
43	44	10
22	66	1
67	69	4
22	23	13
25	82	3
61	72	3
41	47	2
61	86	5
75	75	54
70	74	3
101	101	31
24	25	7
69	73	2
43	53	5
30	31	1
66	79	6
66	77	3
65	67	6
28	28	11
79	80	24
49	49	42
69	69	61
99	101	9
65	66	9
80	82	11
46	95	2
90	91	16
38	43	2
96	97	13
46	61	4
45	96	1
36	37	8
52	52	66
53	55	4
86	87	24
45	50	4
65	65	41
28	36	1
56	80	1
23	62	4
36	36	34
48	55	7
77	79	2
98	101	1
54	55	24
29	30	16
87	89	8
48	51	3
69	71	6
64	65	16
66	68	6
62	62	76
46	48	8
40	40	55
39	39	59
29	29	25
61	82	2
24	26	13
60	62	4
97	98	26
35	38	5
92	93	10
66	74	1
38	96	1
94	96	16
95	97	5
46	54	3
59	101	4
56	60	4
34	35	7
25	32	1
62	99	7
41	44	3
68	69	25
57	57	60
87	87	37
99	99	70
64	74	4
58	63	1
56	57	21
79	81	8
36	38	3
64	85	3
94	98	5
81	81	44
37	99	3
72	73	20
45	46	3
47	52	3
55	60	8
23	23	14
42	43	22
51	52	10
62	81	4
92	100	5
69	79	2
55	56	12
39	40	24
47	51	3
50	84	4
40	41	7
55	96	4
52	57	2
51	56	1
66	66	41
47	101	6
63	80	3
24	80	2
80	94	2
30	30	13
93	94	13
57	58	11
72	72	54
67	71	5
32	33	6
81	87	4
70	78	1
22	37	1
22	25	5
40	87	2
96	100	6
56	68	2
76	77	11
56	88	1
63	85	2
55	81	1
81	88	4
23	54	5
50	67	1
52	53	7
20	24	4
59	85	1
72	78	6
70	71	12
82	100	1
60	73	6
47	49	5
94	95	13
71	73	6
34	43	2
45	49	9
95	96	8
22	80	2
27	29	3
77	78	11
35	39	2
68	90	3
65	69	3
75	77	3
59	66	4
90	94	2
73	74	23
45	67	1
46	49	5
52	56	2
62	82	2
26	36	7
35	36	15
97	100	4
44	93	3
28	40	1
84	86	9
91	99	3
50	52	3
52	91	3
83	101	1
54	72	2
33	66	1
25	100	2
68	70	8
84	89	3
61	62	18
83	90	6
25	30	3
37	39	6
53	53	33
57	93	5
29	84	1
80	99	1
82	92	4
57	65	2
29	31	4
29	41	1
79	82	4
59	63	4
26	54	4
29	73	1
60	81	3
78	80	3
81	83	2
86	89	9
74	75	21
33	89	7
75	95	2
26	27	9
43	67	2
21	82	6
57	59	2
66	84	2
87	88	28
84	88	6
55	65	1
94	97	4
40	50	3
84	87	8
42	90	1
87	97	1
76	78	10
27	28	6
20	97	1
35	37	15
24	49	3
82	97	1
68	72	9
74	79	3
96	98	9
59	60	4
26	28	3
63	90	4
44	57	3
50	70	6
51	58	1
42	73	4
37	47	5
80	89	3
26	29	4
102	102	12
43	102	3
31	35	2
64	68	1
20	20	16
75	78	1
51	53	6
83	87	5
57	86	1
66	73	6
72	76	1
71	74	4
52	102	1
53	62	1
47	86	3
42	45	2
68	73	2
63	70	1
48	61	2
70	72	6
55	61	2
100	101	12
56	62	2
51	62	3
24	94	2
95	100	5
69	72	6
45	48	6
51	92	2
83	96	2
72	79	1
52	89	2
41	58	2
29	32	2
101	102	6
55	101	1
75	76	2
49	99	1
22	28	2
82	86	3
73	78	6
46	89	2
21	22	2
63	65	7
65	70	3
82	84	5
47	50	2
67	70	1
56	78	3
51	54	3
58	61	1
80	81	16
47	62	2
87	92	3
52	61	3
61	94	7
75	88	1
88	95	3
53	91	2
86	93	3
91	97	2
58	84	2
57	78	1
25	94	1
59	62	1
50	51	5
52	72	1
22	22	14
29	51	2
78	79	5
54	81	5
53	98	2
85	89	4
99	100	8
37	40	3
60	68	3
42	72	3
85	93	3
100	102	4
62	84	5
51	71	1
58	66	1
63	68	3
55	57	2
49	101	2
52	67	4
34	42	1
88	92	5
58	91	1
25	62	1
63	91	2
87	94	1
34	44	3
33	38	1
22	93	1
94	101	1
37	88	1
27	80	4
74	98	2
61	84	2
39	46	2
97	99	3
27	92	1
25	54	1
66	83	3
91	96	6
22	38	3
48	49	9
80	84	1
49	51	10
85	101	3
66	72	2
48	66	3
35	40	4
54	84	2
84	100	4
51	69	1
65	72	4
61	73	1
35	71	4
73	97	1
79	88	7
55	59	3
43	78	2
42	44	8
61	80	4
37	38	9
53	61	3
48	57	2
54	96	3
68	74	2
62	102	5
25	26	10
45	83	2
21	24	1
80	98	2
43	49	1
53	73	2
34	60	2
61	79	5
55	84	2
64	100	2
41	56	2
50	85	3
53	86	2
98	99	5
54	95	3
92	97	2
89	100	3
89	92	1
34	91	2
20	23	2
28	29	1
25	27	5
48	93	3
28	30	1
48	100	3
43	91	1
31	94	2
45	56	3
25	47	1
81	91	4
61	81	1
62	66	1
78	99	1
29	39	5
41	49	1
25	39	2
53	100	3
78	89	1
62	65	2
88	93	3
79	100	1
77	92	2
32	36	2
54	82	1
57	83	1
28	46	1
42	64	1
96	99	1
44	45	6
43	45	3
32	34	3
81	84	3
68	75	2
61	100	3
31	44	2
51	87	2
38	44	3
82	93	2
31	33	3
83	91	1
40	56	2
37	57	4
24	84	2
37	44	3
62	77	1
25	55	4
34	58	3
26	72	1
52	62	5
93	96	10
55	87	1
45	53	2
58	62	1
46	53	1
34	65	2
87	100	1
30	34	3
24	27	3
83	85	6
27	86	1
56	61	1
47	94	3
34	66	2
84	92	5
77	80	2
20	28	3
52	55	1
58	87	4
25	38	1
72	77	5
62	90	2
27	31	1
27	54	3
52	85	1
23	24	4
26	90	3
63	67	1
79	85	2
74	101	1
93	95	4
44	51	1
61	71	2
75	79	3
20	25	1
59	75	1
49	74	3
49	52	1
20	21	4
32	38	2
43	69	1
68	78	3
34	37	3
30	44	1
84	94	2
38	68	4
20	33	1
35	56	3
70	75	1
91	94	2
59	65	1
68	71	1
66	70	2
20	64	1
46	65	2
66	95	2
62	80	2
34	36	1
81	95	2
64	66	3
60	63	4
43	65	2
32	68	3
88	96	1
47	79	1
27	48	2
52	54	2
57	79	1
50	65	2
45	101	2
29	53	1
94	100	3
35	76	1
34	75	1
62	64	1
82	89	1
49	55	1
51	89	2
56	59	1
91	93	2
31	78	3
60	75	2
56	90	1
57	60	2
41	89	1
65	90	1
29	61	5
47	93	1
25	45	1
54	88	2
66	71	2
42	50	1
41	43	1
42	66	1
58	92	1
33	61	1
80	86	2
83	95	1
33	46	1
69	89	1
49	75	3
80	95	3
59	88	1
60	83	1
29	46	1
33	52	2
29	54	1
62	83	1
29	38	2
45	47	1
54	73	3
89	101	3
34	47	1
84	85	1
32	97	1
78	100	1
39	65	1
29	67	1
52	90	1
24	32	1
23	45	1
32	62	2
41	67	1
92	101	5
73	75	2
50	57	2
44	46	2
66	100	2
25	46	2
75	90	1
62	70	1
47	61	1
74	99	1
76	88	2
33	80	2
80	83	1
53	80	1
30	39	1
34	46	1
48	50	3
25	28	3
40	42	1
62	69	1
30	67	1
50	99	1
77	90	1
44	63	1
84	102	1
42	65	1
95	99	2
73	95	1
64	70	1
53	97	1
31	43	1
57	101	1
60	67	1
60	93	1
36	56	2
76	89	1
82	98	1
74	89	1
67	79	1
55	92	2
56	79	1
40	52	1
68	101	1
45	74	1
56	81	2
89	93	2
50	91	1
53	92	1
60	99	1
26	37	1
78	81	1
81	100	1
89	94	1
31	36	1
92	102	1
78	94	1
44	84	1
57	89	1
26	81	1
65	73	1
73	76	1
51	88	1
62	85	1
30	65	1
46	87	1
55	62	1
54	83	1
34	45	1
77	89	1
