101	104	3
46	46	4
17	19	5
79	79	7
60	60	12
55	55	5
56	56	9
82	82	10
82	83	3
66	67	8
108	108	8
43	87	1
12	13	2
68	68	18
104	104	12
81	119	3
33	33	4
87	88	1
1	1	6
75	75	7
55	59	6
62	62	6
131	131	8
6	7	2
112	112	6
53	53	13
18	18	5
119	119	14
22	87	2
122	122	8
57	58	10
22	22	5
90	102	5
71	71	18
89	89	10
8	8	1
102	103	4
86	117	6
54	54	5
54	77	4
44	118	1
83	83	15
64	69	4
104	105	5
86	86	13
62	63	4
27	27	2
55	60	2
25	25	6
9	9	3
112	113	2
21	22	4
103	103	10
57	59	1
58	60	1
113	115	4
33	34	5
52	52	4
12	12	12
1	135	2
53	59	8
50	50	17
19	19	2
65	67	3
91	91	6
130	130	6
71	73	4
3	4	7
106	116	8
47	48	3
113	113	7
117	117	19
86	106	4
53	54	2
49	50	2
70	70	11
60	62	4
69	69	4
50	53	8
106	106	11
5	93	3
110	110	15
111	111	1
84	123	1
120	133	5
15	15	3
106	108	6
123	123	4
90	90	12
100	129	4
87	87	10
29	29	1
44	44	17
61	61	10
7	9	3
110	111	2
127	127	10
124	124	6
81	81	7
31	32	8
78	78	5
35	121	2
44	45	2
97	100	3
27	33	1
126	126	6
123	125	1
28	28	13
80	80	14
133	133	6
10	13	2
61	62	1
100	121	4
118	129	3
64	65	3
124	125	2
35	35	3
108	115	1
85	85	10
23	23	9
50	115	2
16	16	7
30	30	2
3	3	11
98	98	5
78	79	8
37	37	5
74	74	10
101	101	10
3	124	2
11	11	9
73	73	1
45	45	5
73	74	3
94	96	1
37	61	2
96	96	5
62	74	3
114	114	9
52	53	6
72	72	7
128	128	12
109	109	7
14	26	2
50	83	2
97	97	3
121	121	5
8	11	3
130	133	4
77	79	2
129	129	13
123	133	1
43	107	3
4	4	7
76	134	1
2	2	6
38	49	3
72	73	3
66	83	2
88	88	10
76	96	2
118	119	1
106	122	3
84	131	2
18	124	7
97	98	2
55	56	8
100	100	9
90	91	2
122	123	4
31	31	9
91	92	1
8	9	3
106	107	4
54	57	2
55	69	1
115	116	1
119	120	1
106	130	3
17	21	3
67	67	2
86	111	4
21	21	16
5	5	2
77	78	7
63	63	8
45	46	7
107	107	4
102	134	2
10	10	7
60	61	3
44	50	4
90	103	1
102	102	10
126	129	3
37	42	2
2	81	3
42	61	3
98	121	2
76	79	3
129	133	4
76	76	7
52	92	1
92	92	4
105	105	2
100	130	2
14	14	11
51	105	1
13	13	6
56	57	3
96	104	4
89	90	3
80	125	1
0	0	4
115	115	4
38	38	1
94	94	7
111	130	2
125	126	3
88	127	2
83	84	1
120	120	5
117	118	4
60	76	2
43	43	4
84	84	4
21	37	4
124	134	3
6	6	4
1	89	1
83	86	2
54	58	3
106	109	1
53	57	1
101	102	2
63	70	1
65	66	4
59	59	3
12	26	3
85	91	4
71	72	3
118	118	10
125	125	3
130	131	3
42	42	2
102	105	2
58	58	4
112	121	2
84	91	1
95	95	2
28	29	1
10	17	1
66	66	4
47	47	2
84	85	4
106	115	1
49	61	1
117	130	1
92	93	2
93	93	5
20	20	1
132	132	6
55	67	3
86	87	1
3	6	3
51	51	1
99	116	6
88	121	2
58	66	2
36	127	4
44	64	4
92	101	2
62	65	1
111	112	1
93	129	2
35	60	1
13	16	4
34	34	2
97	115	1
77	116	2
68	69	3
58	59	2
33	61	1
76	128	2
30	70	3
24	24	2
74	104	3
95	103	1
59	101	2
134	134	6
45	118	1
25	26	4
29	30	2
56	60	1
83	85	2
109	110	3
94	95	2
21	23	1
49	49	2
0	65	2
116	122	1
82	100	1
48	48	4
32	32	3
79	80	5
134	135	4
73	90	1
65	65	4
13	14	1
99	99	3
100	101	1
44	106	1
107	122	3
131	132	1
57	57	4
7	7	2
18	125	3
96	97	2
55	66	1
50	54	1
107	123	3
64	100	2
97	121	3
119	132	1
120	121	1
77	77	2
84	86	3
11	12	3
119	133	2
116	116	2
67	68	1
35	36	3
42	70	1
109	111	1
36	68	3
91	134	1
62	70	2
53	75	1
114	124	1
98	106	1
92	102	1
33	99	1
45	120	1
108	111	3
101	124	2
123	129	2
82	85	1
59	69	1
11	24	1
78	99	2
60	65	1
13	22	2
92	119	1
45	54	1
8	23	1
47	61	1
45	107	1
50	64	2
62	72	1
47	133	1
133	134	1
36	37	1
113	114	2
13	15	1
56	66	1
58	85	1
89	98	1
87	120	1
54	76	1
27	28	1
26	27	1
53	111	1
84	110	1
69	98	1
66	82	2
68	86	1
98	99	1
10	11	1
0	119	1
54	64	1
88	106	1
8	96	1
115	120	1
56	59	1
16	20	1
