159	160	5
98	98	3
88	88	6
36	36	16
41	41	12
148	155	3
152	152	8
101	101	9
38	38	10
82	97	5
12	18	6
90	92	3
143	145	3
19	20	9
25	47	1
132	135	4
107	107	7
77	77	9
186	186	9
162	162	2
54	54	6
75	76	4
89	89	6
110	110	7
140	140	6
17	24	3
174	175	3
153	153	11
58	58	5
137	137	8
122	122	4
167	172	1
30	30	5
103	103	10
184	185	3
48	48	7
123	124	6
75	75	4
171	171	2
24	45	3
156	157	4
28	31	8
28	28	6
9	10	5
112	134	8
80	113	3
25	25	5
39	39	10
16	17	10
125	125	5
155	155	7
17	42	4
2	31	2
56	61	4
93	99	4
40	43	2
40	40	22
84	84	6
131	133	7
47	48	4
22	22	8
66	66	2
124	127	3
117	121	1
47	47	14
187	187	8
167	168	3
73	73	2
123	123	9
45	45	10
26	26	8
129	129	6
112	112	18
89	95	3
154	154	6
82	82	5
115	116	2
8	8	7
121	122	6
30	32	4
121	121	11
21	21	9
105	105	7
73	74	1
80	80	11
101	104	1
9	27	1
103	104	1
24	39	1
82	83	2
63	63	5
135	135	2
163	179	3
59	63	5
94	97	2
78	78	4
104	110	3
120	121	3
115	115	6
98	99	5
43	44	5
81	97	5
161	161	13
11	22	5
46	46	12
18	18	8
134	134	4
94	101	2
185	186	5
145	146	3
9	21	4
92	92	3
167	178	3
38	39	1
5	5	5
126	135	6
14	14	10
52	52	8
45	58	5
57	57	6
13	15	8
17	17	4
136	136	15
147	147	12
79	80	1
56	63	1
105	107	7
128	131	2
83	83	3
4	57	6
33	36	7
97	98	2
93	96	2
139	139	4
36	37	6
150	150	7
146	146	6
78	79	3
149	150	8
183	183	10
143	143	6
14	43	5
90	90	12
169	169	7
124	125	2
107	108	5
85	85	17
53	54	4
130	131	3
190	190	13
122	126	1
61	62	6
30	31	2
37	37	7
15	17	5
56	56	11
161	163	5
178	179	3
19	19	4
129	130	6
182	182	3
79	83	3
43	43	12
29	29	4
13	13	9
7	8	7
178	178	3
168	168	3
33	35	4
3	3	5
171	176	2
142	142	8
187	188	5
120	120	3
163	164	7
2	2	19
104	104	5
173	175	2
188	190	7
67	67	7
30	34	2
23	23	7
45	46	5
100	100	7
173	173	12
93	100	4
112	113	1
87	87	3
177	177	1
130	130	10
93	93	5
142	180	5
108	108	13
147	149	2
91	93	5
72	73	2
85	87	3
177	178	3
164	172	1
15	15	14
37	42	2
157	161	2
6	65	2
81	82	2
66	67	7
119	121	5
5	57	4
188	188	10
68	68	5
7	7	12
163	173	3
109	109	4
31	31	15
164	166	2
87	89	1
111	111	3
1	1	3
96	96	4
95	95	1
20	20	8
11	45	4
109	110	5
28	29	4
181	181	7
163	163	3
149	149	3
0	8	2
174	174	7
188	189	9
15	16	3
115	117	2
11	11	11
170	170	7
32	33	6
104	109	5
180	181	8
164	165	12
57	61	1
59	59	3
176	176	4
46	47	4
160	161	1
97	107	1
68	71	1
98	105	2
161	162	4
126	126	6
3	140	2
157	162	4
175	175	8
107	110	2
151	151	11
80	108	3
114	114	7
141	146	2
180	188	5
160	160	2
116	116	7
131	132	7
118	118	11
35	35	8
180	180	4
13	14	4
169	175	4
89	90	1
16	16	9
93	98	2
138	139	6
5	6	2
141	141	7
59	66	2
24	24	1
106	106	7
27	29	4
166	166	5
130	133	4
42	43	3
131	131	8
24	25	9
10	12	6
58	74	1
76	76	4
113	113	7
96	97	1
113	126	3
172	172	5
70	71	4
67	71	2
154	155	2
10	46	2
70	70	4
63	64	1
162	163	4
35	36	1
169	170	4
115	122	2
22	32	1
158	158	1
20	23	3
5	59	1
144	144	7
94	94	6
159	159	11
182	184	3
145	147	6
165	165	12
97	105	1
9	12	2
131	138	1
151	152	1
90	91	5
29	30	6
119	119	2
64	64	2
40	41	8
170	173	1
55	55	10
148	150	3
10	11	2
36	38	1
104	106	3
101	103	4
136	137	9
133	133	4
156	161	1
15	31	1
65	68	1
117	118	2
4	4	7
72	72	2
13	16	2
95	97	1
127	127	2
11	12	1
12	12	3
81	105	3
71	71	5
99	99	4
103	132	3
24	48	3
135	138	1
142	144	1
82	98	4
30	33	1
156	156	7
39	40	1
18	20	2
142	143	2
34	35	3
184	188	2
58	59	3
23	34	3
0	1	2
6	6	9
158	161	4
182	183	8
104	105	1
99	114	3
164	171	3
128	128	5
12	16	1
126	136	6
42	42	4
187	190	1
37	38	3
20	22	3
160	164	1
181	182	6
102	102	1
136	143	2
17	18	3
58	63	1
105	106	3
94	95	1
13	43	2
69	69	2
46	48	4
160	165	1
86	86	2
172	173	1
12	20	1
83	107	1
13	20	2
185	185	7
165	166	4
106	107	1
62	62	1
58	60	1
80	112	3
35	44	1
23	39	1
189	189	3
179	179	1
4	5	1
182	187	2
138	138	3
56	62	1
115	118	4
59	64	1
1	26	2
32	34	4
167	167	1
58	62	2
148	148	6
127	128	1
122	123	2
60	61	2
126	127	1
27	32	2
67	68	1
124	124	2
157	157	2
4	56	2
29	33	3
128	132	1
55	56	1
149	156	2
93	94	2
101	102	4
57	62	2
7	48	1
57	60	2
10	29	1
110	112	1
137	138	1
22	23	3
122	124	4
164	164	2
34	34	4
54	55	3
139	140	2
42	44	2
148	154	3
112	126	2
12	45	1
78	80	1
32	32	2
87	95	1
166	167	1
146	149	1
27	33	4
114	115	3
183	190	2
112	121	2
101	105	1
48	54	2
150	154	1
135	136	1
23	24	4
152	153	3
71	72	3
40	48	3
14	29	1
133	138	1
153	154	1
107	112	1
31	43	1
180	187	1
150	151	2
21	23	1
47	150	1
102	103	1
184	186	1
167	188	1
145	145	6
179	180	3
44	44	4
176	178	1
26	31	1
44	47	2
184	184	3
61	61	2
33	33	1
12	13	3
125	126	3
130	138	1
96	98	3
18	22	1
59	60	2
178	189	1
14	15	3
108	109	1
82	117	1
0	82	3
52	55	2
99	178	1
147	148	1
19	28	1
31	37	2
11	46	2
10	10	2
132	132	2
57	63	2
61	63	2
52	53	1
88	89	1
13	21	1
161	164	1
150	156	2
171	173	2
31	32	1
118	122	1
100	121	1
17	37	1
126	128	3
19	29	1
62	63	1
13	44	1
23	31	3
74	74	2
37	44	1
169	171	1
44	65	3
66	73	1
157	158	2
19	21	2
42	48	1
13	28	1
91	91	1
2	38	1
124	131	1
92	93	2
168	169	3
38	43	1
62	145	1
146	147	3
21	22	1
180	182	1
53	55	3
147	158	1
148	156	2
142	181	1
127	131	1
96	101	1
52	148	1
130	139	2
38	42	1
37	39	2
25	26	1
46	58	2
103	106	1
95	96	4
160	162	1
107	109	1
55	58	1
56	142	1
175	176	1
166	178	2
158	162	1
0	0	2
91	141	1
104	107	1
140	141	1
87	88	1
168	174	1
168	170	1
108	121	1
10	21	2
76	78	1
77	78	1
18	19	1
15	28	1
6	7	1
85	98	1
162	164	1
146	156	1
133	140	1
83	84	1
109	123	1
22	24	1
177	182	1
26	30	1
16	38	1
91	94	1
184	187	1
4	64	1
65	65	1
