138	139	1
238	238	4
23	70	3
166	166	16
36	36	6
62	76	3
210	210	8
142	152	1
88	193	3
182	182	10
161	166	1
22	22	12
102	102	14
154	154	8
37	38	8
101	126	3
166	184	5
137	173	4
137	154	1
169	177	1
189	189	8
52	52	10
172	172	5
119	119	9
71	73	3
157	157	5
153	175	1
167	167	1
232	232	3
234	234	7
96	96	3
223	223	3
40	40	10
9	10	2
12	12	3
4	40	2
27	86	4
206	206	11
236	237	2
236	241	1
15	16	1
156	158	5
240	241	3
234	235	2
31	31	10
81	81	9
158	182	2
61	61	7
88	88	5
202	202	11
186	187	2
33	33	5
99	101	1
50	60	5
171	172	1
178	178	8
23	24	2
7	7	5
48	48	2
175	175	3
158	170	1
82	82	4
228	228	6
123	123	4
28	28	3
219	219	8
198	199	2
170	170	9
25	25	4
118	118	13
211	211	17
61	62	5
153	153	5
129	130	6
57	76	3
23	69	4
79	80	2
213	216	7
242	242	14
67	75	2
6	7	5
103	126	3
1	228	2
133	133	2
104	105	5
18	72	3
101	103	6
50	50	2
6	6	3
129	129	5
222	222	2
0	0	10
27	27	8
54	54	3
46	46	5
80	80	7
11	220	3
112	112	8
213	213	8
5	7	4
35	206	1
32	40	3
122	178	5
76	76	6
4	13	5
236	236	1
116	116	2
145	163	1
198	198	4
20	20	12
105	105	6
25	26	3
83	83	7
8	15	1
211	223	3
78	78	5
40	42	2
106	124	1
203	203	5
73	73	3
29	30	1
126	126	2
117	117	2
78	79	6
108	108	3
192	224	1
218	218	7
214	215	2
51	55	2
74	75	2
185	186	2
41	41	6
42	70	1
58	58	6
149	150	1
188	190	1
212	215	1
10	13	4
174	174	5
99	99	11
163	199	2
19	19	4
158	158	3
44	44	18
106	175	1
167	168	8
230	230	4
141	157	2
162	162	1
28	70	2
60	60	9
63	63	4
30	30	5
175	182	3
21	23	5
214	214	4
190	190	5
71	71	2
1	35	1
108	109	1
32	32	6
37	46	2
39	39	2
3	3	9
186	201	6
116	118	4
136	154	3
7	8	8
81	83	1
183	183	8
58	60	3
186	186	2
15	62	3
37	37	2
125	125	10
8	31	3
103	127	2
197	207	3
113	230	1
133	134	1
2	2	12
215	216	5
237	237	6
30	31	2
103	236	1
120	120	2
169	169	3
146	147	5
104	127	3
24	24	9
160	160	3
8	8	10
5	6	3
146	146	4
58	211	1
235	238	2
74	74	9
153	170	3
213	225	2
205	206	2
171	171	4
205	205	4
137	152	2
175	176	3
149	149	3
67	67	7
193	194	1
98	99	3
44	45	2
34	34	2
232	233	4
182	183	1
225	225	5
97	97	4
173	229	3
65	65	3
31	60	4
134	153	2
26	26	3
227	227	1
154	180	3
179	179	2
217	217	8
233	233	1
145	146	4
70	70	3
120	236	2
121	121	2
58	79	4
143	143	2
43	43	5
5	5	1
4	68	3
194	205	2
14	16	1
100	100	4
42	193	1
143	164	1
168	169	1
76	81	2
102	234	3
135	136	1
23	23	2
46	47	2
111	111	1
77	77	3
221	221	4
219	220	1
153	154	3
176	176	5
19	20	1
234	237	2
45	45	6
29	29	1
49	50	2
204	205	1
134	134	2
12	13	1
57	57	6
217	228	1
42	42	10
8	55	2
136	136	5
86	86	1
155	157	4
59	78	1
138	172	3
22	23	2
57	58	1
157	195	1
144	144	4
204	204	4
101	101	1
203	240	2
62	62	6
47	47	6
173	173	2
14	14	3
235	236	3
234	236	5
154	178	2
101	106	3
139	152	1
28	29	1
10	10	9
102	103	2
144	200	2
165	165	3
187	188	3
18	18	3
13	13	1
216	217	4
77	79	2
41	74	1
19	37	4
147	147	2
163	163	1
51	59	2
76	77	1
204	234	1
76	84	1
212	212	1
53	61	2
179	180	2
196	196	1
209	210	3
195	196	4
150	151	4
44	74	2
218	222	3
4	42	2
55	55	3
130	131	1
229	229	6
76	82	2
47	53	2
104	104	1
67	70	1
213	231	1
45	46	2
240	240	4
12	211	1
16	95	1
179	185	1
4	6	1
49	49	6
64	64	4
95	100	2
152	153	3
219	221	1
20	23	3
141	141	1
12	208	3
221	222	3
113	113	2
161	161	4
83	84	6
132	132	1
79	82	2
152	152	5
15	15	3
188	189	2
122	125	2
138	158	5
155	156	4
100	103	2
14	15	3
199	200	4
42	69	4
30	37	1
144	176	1
177	177	1
226	226	3
59	59	2
16	17	3
10	11	1
138	173	1
128	128	1
2	3	5
103	115	1
48	85	1
215	217	1
13	14	2
159	159	2
150	150	1
73	89	2
185	185	5
102	126	1
47	76	2
181	181	1
189	190	2
11	11	3
3	6	1
97	107	1
159	160	1
68	69	1
124	131	2
147	154	1
149	153	1
134	142	2
140	152	3
31	52	1
101	120	2
107	116	1
208	208	3
14	79	2
220	221	4
17	59	1
103	103	3
224	225	3
216	218	1
125	201	1
11	68	1
21	22	1
228	229	1
95	97	1
40	41	2
17	21	2
62	85	2
131	131	2
51	53	3
29	62	1
187	213	1
53	53	1
122	122	6
155	155	1
106	140	1
69	73	1
239	239	3
30	59	3
26	27	1
154	155	1
118	123	2
231	231	3
189	198	2
23	30	1
104	106	1
135	135	3
21	31	2
102	105	1
46	62	1
211	213	3
82	83	2
107	175	4
183	184	2
164	165	2
200	201	1
21	21	1
196	197	3
208	219	1
180	181	1
84	84	3
197	198	1
172	203	1
200	209	2
11	31	1
109	185	2
13	34	3
194	195	1
215	215	2
103	104	1
62	63	1
28	61	1
39	54	1
173	230	1
7	9	1
216	216	1
66	66	1
50	58	2
110	110	1
24	42	1
5	74	2
158	162	1
127	127	1
45	74	1
1	1	2
139	173	1
109	109	1
123	130	2
158	161	1
117	118	1
161	203	1
65	66	1
203	204	1
127	129	1
56	74	1
21	76	1
211	232	1
217	223	2
85	85	1
79	79	1
56	57	1
107	142	1
116	127	1
123	128	1
97	106	1
11	74	2
208	216	1
124	124	1
4	5	1
235	235	2
140	142	1
184	186	1
9	9	1
179	181	1
27	28	1
229	230	1
56	66	1
192	192	1
101	102	1
68	68	1
180	224	1
