107	107	5
15	15	8
4	4	11
85	86	8
33	33	21
25	51	2
76	76	39
46	47	10
79	80	8
68	69	19
88	91	5
116	117	4
19	19	7
125	129	2
58	58	16
75	75	25
47	47	34
59	59	7
22	22	19
41	42	9
103	105	14
90	100	2
80	81	5
11	11	43
16	17	8
1	2	4
85	85	20
110	110	8
122	122	11
56	56	20
51	55	3
99	99	14
42	43	9
90	90	16
107	130	5
110	111	3
128	129	9
45	45	20
32	32	18
69	70	17
131	132	11
70	70	21
84	85	2
66	66	19
44	44	19
35	82	6
44	68	1
38	38	4
66	67	2
117	120	4
87	87	11
92	93	9
124	124	17
35	75	2
1	1	16
91	99	3
15	16	5
120	125	6
119	120	5
102	102	15
120	120	3
16	16	11
48	48	21
46	62	5
134	134	17
91	91	17
18	18	17
12	26	2
126	134	1
36	36	6
62	62	16
119	119	10
25	82	4
2	2	17
45	64	8
107	128	1
83	83	19
122	125	5
22	24	7
115	121	5
113	114	7
5	5	18
64	64	15
87	92	2
118	118	15
61	61	33
85	89	6
47	65	6
32	43	5
105	106	9
98	99	11
20	36	2
84	84	26
11	12	6
125	127	2
25	25	24
126	131	8
78	81	5
29	32	4
9	9	25
28	28	11
97	101	6
88	88	10
67	68	8
61	68	4
73	73	19
37	84	2
72	72	12
71	72	12
97	98	10
77	77	18
29	29	26
14	14	22
90	96	3
69	69	24
40	41	4
94	122	1
130	130	9
131	131	10
13	13	18
111	111	14
103	103	16
74	74	22
35	61	14
8	9	4
12	14	5
85	90	2
33	34	6
117	117	15
73	74	15
10	10	14
117	123	4
104	105	10
106	106	12
35	35	17
103	104	7
113	113	8
7	7	32
18	19	4
104	104	8
62	74	1
128	128	9
7	11	4
75	76	9
104	106	6
121	121	17
112	112	12
106	107	3
115	117	5
43	44	13
7	14	5
101	106	1
111	113	2
94	94	28
89	89	17
3	5	2
7	13	1
114	114	9
39	40	11
67	67	5
132	132	13
30	30	11
9	10	6
25	26	2
126	126	6
102	104	3
20	20	8
95	95	9
39	39	5
57	57	24
97	97	17
8	14	4
41	44	6
132	133	7
4	63	1
24	25	8
45	63	4
95	98	4
26	26	33
41	41	8
82	82	22
28	29	3
60	76	1
50	85	1
96	96	18
93	94	4
11	93	8
58	83	3
87	89	5
95	99	3
100	100	19
110	125	1
31	43	3
43	43	14
42	42	12
11	48	6
105	105	8
55	56	2
58	59	6
18	32	2
16	18	1
113	116	4
23	26	4
81	82	7
90	92	2
98	98	10
93	93	23
27	27	21
87	99	6
5	11	3
19	73	2
12	13	12
46	46	23
82	84	5
65	65	7
79	81	15
76	77	6
21	60	2
37	37	4
3	3	14
108	108	12
78	78	19
18	44	2
25	35	2
20	21	15
25	48	2
60	83	4
63	64	6
60	60	22
129	129	10
59	80	3
99	100	8
63	98	4
10	33	3
125	128	2
91	100	6
93	95	5
6	93	5
112	114	1
17	17	15
26	29	1
31	32	7
61	63	1
34	34	11
79	79	19
108	110	6
22	37	1
29	30	6
8	8	16
59	60	4
123	125	1
12	12	18
83	84	2
63	63	30
114	117	3
31	31	21
27	83	2
45	60	2
45	71	1
124	126	4
21	31	1
80	114	2
2	102	3
109	109	6
118	120	2
63	74	3
92	101	3
92	97	1
4	13	6
26	82	1
32	34	2
69	71	2
83	99	6
10	66	2
68	68	18
127	129	1
108	132	2
6	11	1
117	122	3
35	36	3
116	116	9
31	33	1
24	83	1
120	122	1
21	82	1
11	61	2
6	72	1
14	121	3
131	133	4
6	8	5
99	101	4
40	51	6
123	124	4
111	112	9
34	36	3
129	130	3
60	61	4
33	36	1
6	7	11
41	45	1
112	113	7
62	63	5
4	7	3
32	70	5
44	64	1
40	40	9
101	101	15
87	101	1
3	14	3
15	92	3
10	11	12
127	127	3
55	55	12
37	38	2
126	132	2
95	121	1
87	88	8
123	123	5
81	81	7
118	119	8
13	17	1
90	91	5
37	41	1
89	93	4
19	44	4
39	41	5
93	101	4
127	128	3
44	45	7
112	115	10
37	39	4
38	42	2
57	59	2
62	64	10
14	15	4
80	80	11
20	73	1
24	24	5
122	123	2
104	127	7
59	76	4
26	27	15
97	99	4
77	78	4
20	32	1
12	93	5
76	82	2
27	98	3
75	77	1
41	82	3
96	97	4
40	60	3
108	109	3
86	86	15
29	49	9
11	25	2
4	64	1
68	70	2
95	116	4
26	28	2
28	78	3
120	121	1
1	3	5
28	91	2
59	61	4
35	39	2
91	92	6
110	124	2
95	112	2
114	134	4
127	130	3
23	25	4
82	83	5
8	101	1
59	70	6
20	23	3
92	92	23
95	97	3
0	0	6
63	71	1
4	33	5
24	82	1
48	49	4
25	47	1
6	6	8
39	44	2
126	128	5
34	37	2
80	82	1
21	21	6
94	95	10
114	115	9
35	81	1
12	16	1
78	82	3
7	8	6
38	59	1
70	71	4
80	113	2
12	46	1
64	65	3
45	69	1
44	49	1
45	74	4
71	71	6
97	100	2
115	116	1
110	123	2
74	75	3
57	58	4
63	70	4
17	18	10
48	63	1
34	64	4
18	43	3
2	3	3
6	32	1
45	67	2
93	98	3
132	134	1
31	41	2
100	102	3
78	79	6
5	48	1
10	61	1
133	133	5
93	97	2
51	56	4
46	70	3
19	39	1
98	101	1
8	68	4
2	7	4
83	101	1
26	92	2
0	1	1
19	20	5
36	37	3
12	19	1
55	58	2
11	36	1
115	115	8
94	101	4
27	92	1
117	119	7
38	39	3
65	67	3
20	22	6
49	85	2
102	114	1
45	70	6
29	31	2
20	29	2
102	117	1
22	26	1
50	51	6
76	78	4
49	49	3
95	96	2
2	35	3
93	99	1
125	125	8
112	116	3
35	80	1
34	71	7
33	64	1
107	108	3
22	76	1
62	65	1
41	50	3
96	98	2
16	27	2
121	122	5
114	116	2
21	32	2
9	11	4
130	131	6
13	18	1
3	6	1
87	102	2
4	31	3
126	127	3
79	116	1
26	47	1
34	74	1
126	133	1
3	47	1
91	93	1
65	66	4
16	28	2
4	6	1
18	31	2
118	122	1
86	134	3
20	83	3
126	129	1
98	100	1
5	50	2
90	97	3
7	83	1
115	122	1
47	48	5
96	101	1
62	75	2
128	133	1
3	7	1
40	42	2
81	84	2
77	81	2
70	72	1
82	85	3
86	89	1
31	42	2
109	110	2
30	32	3
48	64	1
8	33	2
22	23	2
29	39	2
65	68	1
58	62	1
32	33	4
23	23	4
83	104	2
37	70	2
100	101	2
120	126	2
121	123	3
41	43	1
48	75	1
30	42	2
104	107	2
27	28	3
34	35	4
18	20	1
6	84	2
22	25	1
13	46	1
29	36	1
90	93	1
3	4	3
28	30	2
50	59	1
61	75	3
96	99	2
108	128	2
4	5	1
84	93	1
7	33	2
131	134	2
25	92	2
107	129	2
102	106	1
59	67	3
125	126	1
45	94	1
61	76	2
94	113	2
26	48	2
13	14	3
86	87	2
36	61	1
115	134	4
49	61	2
3	64	2
21	22	1
17	44	3
74	77	1
27	96	2
44	63	1
76	79	2
11	13	4
5	47	1
88	94	1
36	41	2
94	117	2
51	51	1
60	68	1
101	102	2
84	92	2
36	80	1
85	92	2
85	128	1
103	106	2
36	76	2
18	70	1
102	109	2
35	41	3
35	77	1
58	61	1
69	72	2
87	98	1
85	87	1
56	84	1
47	56	1
91	96	2
87	91	1
39	42	1
119	122	2
127	133	1
17	32	1
50	61	1
6	13	1
5	43	2
61	67	1
84	100	1
112	124	1
62	83	1
47	100	2
45	46	3
62	71	1
128	131	1
27	29	1
72	73	2
20	33	1
31	34	1
77	82	1
35	74	1
59	88	1
81	85	1
25	83	1
11	34	1
36	77	2
5	21	1
30	31	1
7	10	1
5	6	1
16	93	1
10	93	1
23	24	1
44	47	1
10	60	1
20	61	2
9	12	1
5	7	2
19	36	1
64	75	1
25	27	1
8	17	1
26	46	1
9	64	1
107	125	1
42	44	1
72	76	1
117	121	1
7	32	1
13	15	1
