87	88	9
62	69	3
79	81	6
101	101	8
97	97	9
63	63	11
31	41	1
102	102	5
81	82	6
69	70	2
55	55	1
86	88	4
80	94	4
71	72	6
26	54	4
58	58	9
34	35	3
92	92	7
51	52	2
26	26	7
52	65	1
22	22	1
39	86	5
78	78	9
74	77	5
68	68	9
31	32	3
43	43	17
49	49	2
42	42	12
61	61	8
41	41	5
77	77	9
80	80	8
59	59	7
43	44	6
36	38	1
65	98	2
57	58	1
54	55	1
85	86	1
65	65	16
35	35	6
70	70	9
67	86	1
23	24	1
99	99	15
37	37	5
72	72	2
67	68	4
48	48	5
90	90	5
79	79	2
76	76	6
53	53	5
64	90	1
40	41	3
44	44	9
67	67	5
79	80	4
86	86	7
60	60	8
83	83	3
74	74	15
73	74	3
39	44	2
30	32	3
44	45	5
82	82	1
66	66	16
93	93	2
75	75	8
27	27	3
86	89	4
64	64	11
69	71	1
92	93	2
84	94	3
98	98	3
46	50	1
71	71	12
96	98	5
81	81	7
52	53	6
81	83	2
73	73	7
74	75	3
41	42	3
96	96	3
35	37	2
62	66	1
24	24	2
62	62	7
92	98	3
100	100	4
20	86	2
28	28	2
47	47	14
100	101	3
51	51	7
47	48	2
88	89	1
57	57	5
38	38	8
58	98	2
41	95	2
43	49	1
93	96	4
49	50	3
66	70	3
93	97	2
62	63	5
29	29	1
60	95	2
46	47	2
56	57	4
27	54	2
31	31	2
89	89	2
27	28	2
85	85	2
56	58	4
78	90	1
66	67	1
61	62	4
76	77	5
84	95	5
68	89	5
46	46	1
75	76	3
63	65	1
50	50	2
52	59	1
78	93	1
56	56	5
63	64	4
91	92	1
62	88	1
94	96	4
45	49	2
47	51	2
89	93	1
72	73	1
39	39	1
60	62	1
53	54	1
94	95	2
55	95	2
45	45	4
39	40	1
68	69	3
40	40	5
93	98	1
63	68	2
39	52	2
25	33	3
83	84	2
58	59	2
78	79	5
35	36	2
20	20	2
62	80	1
69	69	5
69	72	2
36	36	2
65	66	1
82	89	1
93	94	1
20	33	1
97	98	6
84	84	1
67	69	1
61	96	1
53	55	2
35	84	1
84	88	4
95	97	1
85	98	1
34	34	1
48	49	3
62	76	1
32	32	1
77	80	1
33	33	1
67	70	1
36	49	1
88	88	1
98	99	1
91	91	1
23	82	1
64	65	1
56	62	1
37	82	1
96	97	1
20	83	1
61	91	1
50	51	1
64	73	1
95	98	1
37	38	1
94	94	1
23	25	2
55	84	1
61	99	1
99	100	1
