108	108	4
15	16	3
118	118	13
24	24	5
151	154	3
28	30	2
96	96	10
134	134	13
3	4	4
125	125	8
135	135	5
87	117	3
102	102	5
99	99	5
55	55	8
79	79	12
15	15	8
85	122	3
140	140	6
3	3	8
67	67	4
45	47	8
126	126	12
90	91	7
98	99	1
128	128	12
13	14	1
89	108	4
7	35	1
157	157	5
48	49	4
5	45	2
144	144	4
47	48	4
130	130	1
14	28	5
8	35	1
22	23	5
75	75	6
124	124	10
150	150	11
35	35	2
106	107	5
38	39	2
122	123	7
5	5	13
37	37	8
32	34	3
135	136	4
13	27	3
110	110	10
118	119	12
16	16	3
100	100	11
83	83	6
108	111	1
17	18	3
92	93	3
101	111	2
4	4	1
144	147	1
105	106	8
137	137	6
15	27	4
116	117	6
70	141	1
129	130	3
82	113	1
114	114	9
16	98	3
73	73	9
103	103	3
87	109	3
86	87	4
115	115	9
52	70	1
18	19	3
78	104	3
68	68	7
41	41	3
132	132	8
89	89	5
46	46	11
122	122	7
44	45	6
31	31	2
132	152	3
6	6	5
143	144	2
50	50	12
107	119	1
68	73	1
61	63	3
106	106	9
24	27	4
143	155	1
28	28	3
89	114	4
88	88	5
57	57	2
33	33	2
32	35	1
40	41	6
143	153	5
29	29	4
151	152	1
156	156	8
6	8	2
134	138	3
141	144	1
14	14	6
117	117	10
7	7	4
32	49	2
53	53	3
92	92	2
148	148	10
98	98	1
83	149	2
10	153	2
87	87	10
10	11	7
122	125	1
30	97	1
14	15	8
138	138	11
22	22	4
151	151	7
71	144	3
9	9	7
13	36	4
17	17	2
94	94	2
68	83	2
121	121	6
10	13	1
36	36	3
93	93	3
140	144	3
0	0	9
145	145	3
105	105	3
65	93	2
79	81	2
34	34	7
144	155	2
63	63	3
83	84	4
119	120	3
46	47	1
66	66	1
78	85	2
40	40	2
49	49	3
91	91	4
86	147	2
147	148	5
67	68	2
42	42	5
73	93	3
155	155	7
68	113	3
64	65	1
95	113	4
95	133	1
31	48	1
146	146	2
78	78	4
19	92	1
125	127	2
8	27	1
129	129	4
153	154	4
12	25	1
12	12	5
7	36	3
43	78	1
127	127	1
26	26	10
112	112	7
86	88	2
135	138	1
127	155	1
86	86	5
136	136	3
123	140	2
18	24	1
78	80	2
154	157	3
85	86	2
99	100	2
39	39	2
104	159	1
101	101	5
114	116	1
137	138	1
80	80	8
7	43	2
147	147	3
69	86	1
50	51	3
77	85	2
95	95	7
72	72	2
84	85	9
28	29	2
142	145	2
108	112	4
37	38	3
77	77	9
147	150	1
25	25	6
139	139	4
113	126	1
118	124	1
70	85	1
27	28	1
116	116	7
20	20	7
139	140	1
134	137	1
93	94	5
149	149	3
111	111	3
68	76	1
119	122	3
44	47	1
97	97	3
13	21	4
18	77	2
84	84	2
19	19	3
14	19	1
125	135	2
71	85	5
1	1	8
51	70	1
52	53	6
70	86	1
81	81	4
113	113	4
43	43	2
16	19	2
65	65	2
155	157	1
107	107	1
86	133	2
35	100	1
18	20	1
44	75	1
102	105	2
97	98	3
56	56	1
152	152	1
147	153	2
8	10	3
87	116	1
82	83	1
20	77	1
131	131	3
69	69	1
38	38	3
5	6	1
23	27	1
1	128	1
21	22	1
27	27	5
2	3	1
13	48	2
15	22	1
99	130	6
120	125	1
109	111	1
9	15	2
120	120	2
13	37	2
20	30	2
121	122	4
28	96	1
35	39	3
81	82	1
97	104	1
71	71	1
119	119	1
85	140	2
113	117	1
114	115	4
154	155	4
12	13	3
20	21	1
104	104	3
70	71	4
79	80	4
37	148	1
157	158	3
44	44	1
18	18	2
109	109	3
32	32	3
13	13	1
45	45	2
158	158	1
104	108	1
68	69	1
104	144	1
23	25	1
17	19	2
43	44	1
78	79	1
104	105	2
70	70	2
13	25	2
12	14	1
133	133	2
88	89	2
122	136	1
26	27	2
54	54	1
131	133	1
13	15	3
136	142	1
14	21	1
133	134	1
19	22	1
149	150	3
80	105	2
72	73	1
115	116	2
30	30	2
68	77	1
88	137	1
0	1	1
4	7	1
70	153	1
103	107	2
156	157	2
1	129	1
131	132	1
131	139	1
132	133	1
146	148	1
22	24	2
98	132	1
36	37	1
86	115	1
47	47	1
31	32	1
66	67	1
51	53	1
108	144	1
3	18	1
118	120	1
119	121	1
120	121	1
112	125	1
