102	117	1
86	86	3
105	106	2
143	143	8
112	112	8
92	94	3
64	64	9
120	120	10
130	131	3
119	119	8
129	151	5
104	104	12
158	158	5
113	127	1
13	18	4
155	157	2
23	23	4
155	155	7
95	109	5
25	26	2
12	16	5
65	134	3
116	122	5
2	81	1
136	137	7
20	21	1
124	125	3
77	77	6
83	83	9
87	87	6
89	90	9
53	53	5
132	133	2
14	33	1
19	20	10
26	150	1
127	127	8
73	73	11
153	154	2
7	7	8
134	134	8
156	157	6
6	6	17
125	125	10
29	29	9
131	131	11
147	147	5
4	7	2
11	12	5
2	2	7
49	49	9
99	99	8
7	8	10
71	71	2
10	10	10
101	101	8
19	49	3
123	154	7
39	54	1
16	16	3
15	15	3
27	27	1
156	156	15
43	43	9
154	156	4
36	47	4
26	29	3
48	49	4
152	152	4
17	19	1
128	129	1
0	1	5
32	32	6
54	54	2
157	157	3
110	110	5
3	3	3
26	38	3
150	150	13
47	47	8
12	12	8
13	14	4
17	17	10
102	104	2
150	157	1
131	134	2
136	136	12
81	156	1
51	51	6
98	98	7
15	34	1
106	112	5
105	105	15
18	18	6
121	122	1
75	75	15
41	41	5
108	109	5
4	4	1
151	151	5
103	105	2
0	0	8
126	134	1
69	69	7
154	154	4
44	99	2
148	148	5
114	114	10
131	132	5
40	42	4
103	156	4
84	85	1
51	52	1
50	50	5
30	30	2
45	45	7
118	120	3
135	158	2
10	11	4
150	154	3
103	103	5
111	111	8
23	24	7
31	32	8
139	140	2
25	25	3
55	55	4
11	14	1
22	22	11
88	88	1
81	81	2
126	144	2
34	34	10
6	79	1
118	133	5
142	142	7
146	146	9
81	82	4
26	26	6
74	74	4
133	133	14
129	129	8
69	70	1
148	149	2
96	97	3
25	30	5
27	55	1
37	38	2
129	138	1
100	101	2
126	126	3
130	141	1
56	56	4
125	127	4
146	147	4
154	155	3
118	147	3
124	143	2
123	124	2
118	121	3
6	17	1
113	113	4
67	67	7
45	46	3
44	44	6
52	52	6
52	53	4
111	112	3
8	9	2
121	139	3
132	132	5
6	12	1
50	97	3
36	37	1
44	46	4
45	49	1
27	30	1
37	37	2
149	149	2
114	115	6
66	66	4
79	79	2
19	48	1
95	96	1
155	156	1
8	92	3
94	94	7
157	158	1
112	113	1
124	126	1
133	139	2
19	19	2
42	43	3
141	141	7
95	95	2
57	62	2
128	140	3
111	149	1
8	85	3
52	89	2
80	80	7
7	9	1
123	126	5
5	5	2
139	139	6
117	119	2
6	7	3
83	85	3
53	97	1
141	142	2
128	128	5
1	1	3
96	111	1
136	140	5
107	107	5
8	80	5
70	71	4
18	19	5
40	41	1
4	5	6
123	123	1
68	68	2
54	89	1
72	90	1
142	143	1
76	78	2
113	115	3
140	141	4
100	100	5
135	136	1
131	133	1
110	111	1
28	28	1
115	115	4
68	69	1
106	106	8
14	34	3
26	27	4
96	96	2
33	33	10
115	117	3
116	116	7
152	155	1
93	93	2
144	145	1
91	96	1
78	79	2
137	138	2
18	48	2
62	91	2
48	48	3
124	124	2
144	147	2
44	45	3
153	153	2
12	15	3
128	135	3
121	121	3
118	122	2
39	49	4
135	139	3
128	139	2
27	28	3
136	139	1
119	122	3
4	6	1
110	112	2
78	78	3
135	135	2
35	47	1
33	37	1
53	55	1
22	23	1
119	121	1
14	15	3
117	117	4
5	85	2
142	145	3
90	91	2
44	49	1
36	36	3
40	43	1
98	99	1
7	20	1
107	108	1
33	34	1
77	78	1
133	134	2
107	119	1
24	26	2
26	30	1
77	94	2
14	14	1
113	118	1
107	110	1
39	39	2
12	150	2
114	146	1
38	48	1
69	71	1
17	18	2
95	110	1
55	64	1
140	143	2
118	119	1
71	90	1
8	8	2
2	4	1
24	24	1
88	89	1
89	89	1
10	38	1
31	31	2
90	90	3
103	104	2
102	107	1
135	137	1
158	159	1
138	138	3
91	91	2
29	30	1
97	97	3
48	86	2
71	72	1
92	93	1
46	46	2
70	70	1
4	11	1
159	159	2
108	114	2
9	9	1
101	102	1
65	65	1
1	2	1
88	97	1
67	68	2
112	126	1
144	144	1
117	122	1
40	40	3
51	54	1
130	130	1
16	17	1
35	45	1
86	87	1
11	11	1
130	134	1
38	38	3
92	96	1
18	81	1
111	123	1
13	13	1
79	82	1
66	70	2
34	55	1
7	21	1
10	12	1
137	137	1
152	154	1
3	7	1
3	4	1
62	68	1
145	145	1
80	83	1
