100	100	21
131	131	7
105	127	3
120	120	14
65	125	3
74	74	9
62	64	6
44	45	7
95	95	8
130	132	4
117	118	3
95	116	1
59	59	8
7	7	16
113	113	18
64	64	10
70	70	3
86	86	10
98	98	22
28	28	18
44	44	10
3	4	3
91	91	10
72	73	5
127	127	14
87	88	9
59	61	7
128	128	12
88	90	2
133	133	14
34	34	5
3	5	1
108	108	4
14	14	5
135	135	12
27	100	1
90	90	21
77	77	17
123	133	1
57	57	8
125	126	5
115	116	1
0	0	6
77	91	4
97	97	10
20	20	9
35	35	17
63	63	14
12	77	6
26	64	2
31	31	9
4	30	3
111	131	4
103	103	21
112	112	14
76	76	13
62	62	14
114	114	4
99	99	17
126	126	20
69	70	5
106	106	13
87	87	14
111	111	13
53	55	2
43	43	14
94	99	6
71	71	5
33	34	3
127	128	9
71	72	3
77	78	2
129	129	3
13	14	3
130	130	13
123	123	1
86	87	2
85	85	4
13	13	7
105	106	3
79	93	1
6	6	5
89	105	4
94	94	18
83	83	2
102	102	10
97	98	4
131	132	1
56	56	5
132	133	2
100	101	8
73	73	9
75	75	23
117	117	7
92	93	6
111	112	5
82	82	14
93	96	2
64	65	3
101	101	4
127	129	2
23	23	3
79	79	6
107	107	9
93	116	2
132	132	3
93	93	6
50	51	1
25	26	1
93	104	1
88	121	1
46	46	4
88	88	3
84	84	6
16	16	5
77	79	3
10	23	3
0	74	2
31	59	1
25	25	9
72	72	9
25	62	4
115	115	3
62	65	5
72	101	2
30	33	5
113	115	3
109	109	4
38	38	2
91	92	2
119	119	5
130	131	3
64	68	3
103	104	4
49	49	5
50	59	2
56	57	4
50	50	10
69	69	18
80	108	1
1	1	9
45	45	10
96	97	6
65	84	3
66	84	3
105	126	1
116	116	11
21	21	5
0	1	4
105	105	10
129	134	3
32	33	4
84	87	3
12	12	9
102	103	6
11	67	4
129	133	1
15	87	1
121	122	7
27	27	7
104	134	3
2	2	6
73	77	1
100	113	2
80	81	2
128	129	12
118	118	11
29	29	8
68	68	10
3	3	4
15	16	2
87	90	3
47	47	5
113	114	5
21	28	1
26	27	3
122	123	4
94	95	9
53	54	5
134	135	7
125	125	2
35	36	4
11	11	2
42	42	2
108	109	3
80	80	15
92	94	1
54	54	7
4	71	2
5	6	9
32	34	1
2	29	6
52	54	2
26	26	9
18	21	4
61	92	2
88	125	3
32	32	5
86	108	4
75	76	4
14	15	3
112	113	6
76	77	3
33	33	5
83	85	3
68	69	6
83	84	2
120	124	2
65	65	9
10	10	3
96	96	4
30	32	4
107	108	2
22	22	7
8	8	3
45	62	3
61	61	3
65	66	5
78	79	3
92	102	1
36	37	2
31	32	1
10	11	3
76	79	2
81	82	1
84	85	2
58	58	3
71	78	2
95	96	2
89	89	12
99	100	2
78	78	3
122	122	14
133	135	3
124	124	5
93	95	2
8	10	1
60	61	2
114	115	7
23	26	2
110	110	9
15	15	3
71	76	2
81	81	2
112	115	1
2	3	1
67	67	6
106	123	1
19	130	4
19	20	1
63	64	4
36	36	7
79	80	1
56	64	1
73	92	1
120	121	1
104	104	4
24	24	10
124	133	1
24	25	5
51	52	2
66	66	3
22	25	1
124	130	1
60	60	2
52	52	3
90	91	4
110	111	1
53	53	4
19	19	7
37	37	2
5	5	5
116	121	1
109	110	4
111	117	2
121	124	2
113	131	1
7	14	1
15	108	3
79	92	4
17	17	3
3	77	2
23	88	2
9	9	7
121	121	11
54	64	2
58	59	6
94	98	1
2	77	1
96	98	1
30	30	7
73	74	4
1	30	1
81	85	1
47	68	1
88	89	2
67	68	3
92	92	1
116	119	2
27	30	1
30	31	2
93	94	2
63	82	2
71	81	2
65	86	2
94	101	2
71	77	3
46	51	1
21	23	3
24	67	1
18	18	3
121	123	1
110	134	2
3	32	1
117	131	1
21	128	1
104	105	2
123	124	2
79	91	1
119	120	3
105	112	1
29	115	2
9	66	2
99	101	2
108	125	1
118	119	1
124	126	1
79	81	1
38	42	1
2	4	2
133	134	1
109	132	3
71	124	3
63	89	1
6	28	1
123	134	1
9	11	2
48	48	1
27	28	1
15	17	1
21	127	1
13	88	2
102	111	1
55	55	1
106	120	1
63	92	2
15	118	5
57	58	1
12	13	1
11	66	2
28	88	2
116	132	1
125	134	1
62	63	1
128	133	1
47	49	1
17	23	1
4	31	2
22	23	2
10	24	1
8	9	1
95	97	1
73	82	1
34	35	1
43	45	2
19	36	1
112	114	1
24	68	1
16	17	1
47	51	1
55	56	1
105	133	1
