22	22	14
31	32	4
14	29	4
60	85	7
157	162	3
129	129	10
132	133	6
171	171	12
160	160	18
5	10	4
10	11	16
37	37	9
117	117	7
68	81	4
131	131	2
52	53	2
53	57	4
3	3	9
51	51	3
116	116	11
150	160	3
7	16	1
42	42	12
19	21	7
88	89	7
150	156	5
70	70	3
19	26	2
142	145	4
17	17	11
153	153	5
7	8	5
96	97	12
71	71	7
36	36	7
6	6	8
112	141	6
57	57	5
146	167	1
12	13	12
105	107	8
11	11	18
132	132	13
119	119	10
2	4	7
161	161	6
6	7	8
50	50	9
20	20	13
2	16	1
35	35	15
98	98	7
21	22	4
42	76	1
77	77	8
33	33	13
68	68	7
178	180	4
144	144	9
27	27	14
12	135	2
18	21	2
86	86	12
38	40	4
113	113	9
85	101	2
13	13	14
19	20	15
60	60	13
102	103	3
25	25	17
102	104	1
157	158	7
52	52	10
90	116	4
53	53	11
2	2	7
81	86	2
61	61	9
7	7	10
79	80	7
147	147	13
76	76	4
4	6	9
25	26	7
84	112	2
87	88	4
15	15	17
27	28	2
166	166	3
172	173	4
101	101	1
82	83	2
135	135	14
18	20	5
18	27	3
10	10	27
150	150	10
50	51	4
29	29	15
143	143	3
127	127	14
124	124	20
34	37	2
39	43	2
177	177	3
28	29	2
39	39	12
82	82	6
10	173	1
43	43	5
8	25	3
180	180	5
40	40	13
6	8	2
59	60	3
16	18	7
142	142	6
32	32	14
30	30	17
163	164	6
141	141	5
178	178	6
32	33	9
79	79	6
165	165	4
82	89	1
137	149	1
159	165	2
133	134	5
74	74	7
68	82	1
3	4	9
95	98	2
14	169	2
177	180	4
170	170	11
9	11	2
83	83	3
144	145	5
126	126	7
151	151	13
115	117	3
7	19	3
91	91	13
155	155	6
8	8	22
154	154	9
8	9	2
17	18	8
173	173	8
29	46	1
8	11	5
12	14	2
73	73	8
25	35	3
123	125	2
177	178	3
9	12	3
56	56	18
44	44	10
112	116	4
87	87	10
33	38	2
57	72	3
63	63	4
105	105	4
21	21	9
96	101	2
118	125	3
1	6	4
120	120	12
38	38	14
179	179	11
123	179	4
80	81	1
37	38	7
74	78	4
9	9	14
164	164	4
176	176	3
84	86	1
23	33	2
4	4	8
114	116	1
129	131	2
120	127	2
136	172	3
88	88	10
19	23	1
41	41	12
66	74	2
65	137	1
16	16	17
42	43	3
149	149	20
82	86	1
110	130	4
112	112	2
125	125	7
1	1	8
164	166	1
115	115	5
14	25	3
139	139	11
12	12	5
16	30	2
81	81	6
90	90	8
28	28	12
82	87	3
2	8	2
0	146	1
41	42	11
52	162	3
98	101	5
61	78	4
119	120	2
53	54	4
129	144	1
56	165	2
55	55	11
121	122	1
120	121	4
160	175	1
95	95	10
83	96	2
104	106	2
159	159	12
168	168	6
42	44	1
0	0	10
63	71	2
121	121	2
128	153	7
58	59	3
24	27	4
51	74	4
111	111	7
9	15	3
5	5	4
19	19	13
65	85	3
34	34	11
110	129	4
175	175	4
12	31	2
14	14	9
11	12	3
24	24	11
148	148	5
157	164	1
78	78	6
103	104	1
109	115	3
154	155	1
26	27	2
115	124	4
113	117	3
26	26	9
106	106	5
108	109	2
145	145	17
111	129	2
105	106	3
33	35	2
17	23	2
10	23	2
114	114	3
29	40	2
38	39	6
45	45	8
100	100	9
150	155	2
82	113	2
133	133	18
110	110	8
29	30	4
51	52	7
152	152	4
110	111	2
144	174	2
154	161	1
166	167	1
36	171	4
161	180	2
172	172	12
119	129	3
99	101	3
99	100	2
110	118	3
60	61	4
159	160	2
157	157	8
123	123	4
152	153	7
86	98	4
86	87	2
101	112	3
136	136	5
142	143	2
92	94	3
18	19	8
66	67	6
117	118	4
72	132	3
62	79	2
23	23	12
134	134	9
93	93	5
29	135	1
63	65	1
18	18	9
19	22	1
97	97	3
167	167	6
7	9	1
17	24	4
96	96	4
114	115	4
102	127	2
136	174	1
161	162	9
84	85	4
97	99	2
6	20	2
31	31	5
63	78	4
96	163	6
21	32	1
99	99	4
96	98	3
65	108	2
1	5	3
7	10	2
15	16	4
146	147	5
56	57	2
155	156	2
125	146	1
65	84	4
40	41	3
67	81	1
73	87	1
83	85	2
94	94	2
76	134	4
50	53	2
118	132	6
24	25	5
24	28	2
113	114	1
89	89	1
112	129	4
128	128	2
29	36	4
143	153	3
102	102	7
138	166	3
138	138	3
72	72	4
127	128	6
58	80	2
30	44	4
88	91	1
100	117	3
98	105	2
43	45	4
89	99	1
63	64	3
3	17	1
56	72	4
143	176	1
24	26	1
151	152	1
109	109	4
109	126	1
3	25	1
44	45	2
170	171	3
2	3	2
14	17	3
85	86	5
165	172	1
10	16	2
31	33	2
140	140	6
163	163	3
162	165	3
34	35	3
100	107	3
75	76	1
108	108	9
162	162	2
74	132	3
113	129	4
125	133	2
80	80	6
67	68	2
107	107	4
138	171	1
22	23	2
107	166	2
107	110	1
10	18	1
92	92	6
165	166	2
119	126	2
98	99	3
19	24	2
54	61	1
4	9	4
113	116	1
8	160	1
103	103	5
13	168	3
13	124	2
56	81	2
113	115	1
64	64	4
36	37	2
3	8	1
134	165	2
16	19	2
96	115	2
97	101	4
116	117	2
27	40	2
33	129	1
160	161	4
149	167	1
87	89	1
143	145	1
62	62	1
129	130	4
140	141	1
59	78	1
112	123	1
12	19	1
3	15	5
30	31	4
36	43	3
84	84	4
117	151	2
90	112	1
22	138	1
90	94	1
84	101	1
122	141	3
169	169	1
12	18	1
11	31	1
93	179	1
169	174	1
137	137	2
76	77	2
66	66	2
54	54	1
29	32	4
112	117	1
25	32	2
142	154	2
1	2	2
150	163	2
134	135	2
119	130	1
10	12	1
102	109	1
56	123	3
12	29	1
172	179	2
27	45	1
9	23	1
14	43	1
67	67	3
41	163	1
87	113	1
63	121	1
125	126	1
152	168	1
59	59	1
146	146	5
37	42	1
96	112	2
135	174	1
56	58	1
34	40	1
101	117	1
141	142	1
134	158	2
67	130	3
95	96	1
147	148	2
174	174	1
26	28	3
41	45	1
59	79	1
61	79	1
85	131	2
9	171	4
171	172	2
43	44	1
83	84	1
4	12	1
49	49	2
65	133	1
90	92	1
4	11	1
79	114	1
35	37	1
65	83	1
142	168	1
124	163	1
147	175	1
152	158	1
143	168	2
7	26	2
118	119	2
33	34	1
17	173	1
9	29	2
114	118	2
150	151	1
84	104	3
31	34	1
145	146	1
10	21	2
39	41	1
157	167	1
174	180	1
35	36	1
158	175	1
39	40	1
12	15	1
118	118	1
4	31	1
124	146	2
91	92	1
99	104	1
81	82	1
6	16	1
89	90	1
120	146	2
52	54	1
67	80	1
98	107	1
86	179	1
72	73	1
12	24	1
31	35	1
145	148	1
110	114	2
70	73	1
14	15	1
102	115	1
128	129	1
113	123	1
135	154	1
10	13	1
87	114	1
54	57	1
135	137	1
104	104	2
144	155	1
71	72	2
85	85	1
174	175	1
67	71	2
88	97	1
158	158	1
28	122	1
13	15	1
56	59	1
157	160	1
17	19	1
68	96	1
78	79	1
33	42	1
65	65	1
143	144	1
122	122	1
14	16	1
