42	42	13
50	50	19
65	65	21
89	89	21
78	78	14
96	96	11
58	61	5
22	66	2
64	64	3
51	51	10
71	77	3
72	72	24
93	93	9
38	84	2
54	93	4
85	85	15
31	99	2
75	75	4
94	96	3
52	52	12
69	77	1
73	73	7
39	39	9
36	37	2
38	38	11
87	96	1
58	59	3
79	79	9
33	83	5
80	82	4
81	100	2
70	71	1
87	87	12
20	20	1
80	81	7
40	40	16
30	52	3
60	60	6
68	68	18
63	63	12
91	92	3
94	94	10
71	71	12
96	100	1
81	81	4
56	91	3
95	95	16
54	54	9
58	84	2
45	46	12
44	45	2
55	55	9
88	88	10
56	85	3
31	70	3
35	36	4
79	84	4
45	49	4
38	54	2
79	82	4
38	100	5
36	97	1
29	29	11
41	41	10
86	87	3
80	80	11
77	77	18
96	97	3
34	57	1
59	62	1
74	74	6
38	46	1
84	96	1
36	36	17
25	79	4
30	49	2
60	88	1
57	57	2
83	83	8
40	41	12
99	99	8
53	87	3
69	69	8
32	97	2
101	101	3
38	60	4
41	90	1
63	83	3
67	67	5
61	62	1
59	59	9
45	47	2
98	98	14
63	64	4
51	54	4
29	100	1
79	80	4
91	91	9
53	93	2
48	49	3
83	89	2
31	31	6
93	99	2
62	63	4
70	70	6
27	27	13
55	56	3
31	78	3
29	81	1
61	61	18
48	48	11
31	85	4
45	45	4
29	93	9
102	102	12
56	56	5
25	25	7
49	49	3
79	83	1
60	61	3
95	96	4
90	99	3
45	79	4
25	27	1
99	100	3
56	57	4
46	48	3
33	34	4
23	23	5
29	33	2
40	50	2
37	87	2
67	91	1
33	37	4
84	84	8
32	58	4
57	89	3
94	98	2
46	50	2
68	74	2
38	101	1
41	42	2
76	77	3
28	28	7
55	91	4
61	96	1
54	55	2
36	61	3
38	88	1
86	86	6
58	58	5
92	92	9
68	69	2
50	72	3
40	44	1
57	90	3
32	38	1
37	47	4
39	84	3
87	98	3
30	100	2
29	30	1
23	65	2
26	26	12
46	46	5
36	101	4
22	23	4
43	43	4
26	27	4
44	44	6
86	88	1
86	98	1
71	93	4
71	72	4
35	35	2
41	91	1
97	97	2
81	82	1
87	101	2
83	96	3
34	34	2
91	100	1
22	22	1
62	77	2
66	66	4
59	76	2
92	93	1
42	44	1
24	24	5
83	84	4
52	53	1
53	53	3
53	55	2
37	37	1
48	50	3
65	74	3
62	62	4
53	54	2
87	97	3
33	33	3
98	99	3
23	24	3
76	76	3
44	50	2
31	93	3
95	97	2
79	95	1
38	98	1
27	28	2
85	86	1
74	75	2
71	76	2
66	73	1
85	97	2
85	90	1
24	27	1
80	99	1
47	48	1
37	59	1
23	25	1
36	87	3
94	95	3
29	82	3
95	98	1
60	97	1
65	66	1
34	38	1
48	51	1
49	50	2
51	101	1
64	76	2
86	101	1
58	98	1
26	84	2
57	58	1
24	26	2
53	92	1
87	88	1
23	79	2
33	100	1
34	35	1
39	51	1
100	100	2
101	102	1
39	50	1
