69	69	8
33	34	4
38	38	17
48	51	7
3	24	3
64	72	2
22	22	12
10	10	27
57	66	2
37	37	19
2	20	7
61	61	6
33	33	7
19	20	6
20	20	14
45	45	11
3	3	14
49	49	7
10	11	12
56	56	12
2	3	2
8	8	12
28	28	4
5	5	7
43	76	2
53	54	11
47	47	11
21	21	26
21	22	3
38	39	2
57	60	2
5	31	1
46	67	1
37	38	2
6	6	11
3	28	2
30	30	9
40	40	6
57	64	3
5	26	3
32	32	9
5	30	2
70	70	12
11	11	12
73	73	5
62	62	6
52	54	9
36	36	13
14	24	6
35	36	8
44	44	5
39	64	2
46	46	5
71	72	2
31	32	4
42	75	4
1	1	8
58	72	2
7	7	4
19	19	8
21	26	5
42	42	17
75	77	2
60	60	17
9	9	9
71	71	8
73	77	1
21	23	2
68	70	9
25	25	15
4	4	10
53	53	5
22	31	5
48	55	3
48	48	17
63	63	6
12	12	12
26	26	12
39	71	1
43	77	3
58	58	18
76	77	3
45	47	1
28	29	2
23	26	4
35	35	6
62	63	1
67	67	1
22	23	8
75	75	12
24	24	7
72	73	3
1	47	4
50	50	10
42	43	2
0	18	8
0	55	2
38	44	2
5	33	3
59	59	4
41	42	5
13	13	7
39	39	6
68	68	7
28	31	4
9	12	3
52	52	5
34	34	5
7	34	1
45	58	3
72	72	7
25	26	7
13	30	1
41	41	4
18	19	3
54	55	5
56	57	3
50	51	1
44	45	2
0	0	8
74	74	4
57	58	2
39	40	2
54	54	6
24	30	1
5	24	2
58	59	11
24	49	3
0	1	2
43	43	8
73	74	2
3	4	5
59	61	2
28	30	4
31	44	1
27	27	9
49	51	1
36	37	4
14	50	1
57	57	7
5	28	5
7	8	6
23	23	7
29	29	6
59	66	2
5	6	4
47	48	2
57	59	3
6	31	1
64	64	3
1	2	6
55	55	6
46	50	3
2	19	3
5	13	3
43	44	8
20	21	1
15	50	2
4	5	3
12	33	7
68	69	4
27	28	4
76	76	5
22	30	1
8	34	3
0	2	6
9	10	3
0	35	3
3	7	1
56	59	2
24	25	3
65	65	6
30	31	2
10	19	3
21	46	2
5	23	1
59	60	2
8	9	2
6	8	2
3	8	2
51	51	3
26	69	1
22	28	1
63	64	3
45	67	3
40	69	2
73	75	2
18	21	1
59	68	2
31	31	1
4	24	4
26	28	2
6	29	3
4	26	3
71	75	3
0	21	1
1	50	1
66	67	2
4	23	1
23	30	1
22	25	2
64	66	3
2	2	1
58	64	2
69	70	2
39	58	1
77	77	1
40	61	1
45	59	1
52	53	1
6	11	1
42	73	1
46	56	1
14	25	1
3	46	2
60	72	1
11	12	1
10	33	1
65	66	3
25	27	1
12	13	1
9	11	1
66	66	2
25	45	2
1	28	2
48	49	3
4	21	3
68	72	1
74	75	1
18	20	2
39	61	1
70	71	1
41	76	2
8	10	1
23	27	1
60	61	2
31	45	1
46	55	1
42	44	1
8	32	1
49	50	1
51	52	1
5	9	1
32	34	1
43	71	1
29	30	2
66	68	3
40	65	1
4	18	1
41	45	1
4	19	1
61	67	1
6	52	1
32	33	1
55	56	1
41	68	2
1	27	1
4	25	1
