80	84	7
25	26	1
69	70	7
48	48	8
94	99	2
50	50	3
78	78	15
56	59	1
8	8	8
57	57	12
37	38	6
27	92	3
96	96	9
17	29	1
47	47	14
44	44	9
18	90	5
64	70	2
113	114	2
11	99	2
6	25	5
115	116	5
14	14	5
27	27	6
95	95	7
4	4	9
22	22	3
11	11	13
86	88	1
55	55	8
94	94	10
67	118	2
93	113	1
24	26	2
34	44	6
98	98	5
16	16	3
59	59	7
127	127	10
90	92	1
84	84	1
131	131	4
94	97	4
21	22	1
10	10	7
106	106	1
130	134	3
80	80	8
129	129	4
75	75	7
17	17	6
23	41	1
7	7	10
85	85	10
46	73	2
97	97	8
20	20	7
45	46	2
57	107	6
9	9	2
64	64	12
24	25	5
130	131	2
14	23	2
5	87	3
102	102	5
65	65	11
40	40	8
67	67	7
62	84	2
35	35	8
21	81	1
111	111	3
92	92	2
83	83	18
63	70	2
19	19	6
127	130	2
31	31	7
44	45	5
64	65	3
38	39	5
29	29	3
38	38	5
3	4	2
5	5	1
93	93	5
117	117	3
37	37	4
32	33	3
123	123	2
5	25	3
106	109	1
112	113	2
110	110	6
34	36	2
32	32	5
85	86	3
15	15	4
100	100	13
72	72	13
45	70	4
49	49	2
77	77	16
21	21	10
120	120	1
6	7	3
99	100	3
47	92	1
26	29	2
79	79	9
7	26	4
73	73	9
133	134	2
46	47	1
82	82	3
28	28	4
15	114	4
62	110	2
70	70	4
66	66	6
13	26	1
21	73	1
15	56	3
77	78	1
26	27	2
126	126	3
104	104	2
76	76	5
66	95	4
16	17	1
30	30	8
26	26	6
46	46	2
39	84	3
69	69	4
19	20	3
61	63	1
34	35	5
86	101	2
90	90	7
34	34	5
57	59	1
12	93	3
99	99	4
48	58	1
91	99	2
13	110	3
132	132	2
98	99	2
56	133	3
81	83	1
60	60	4
74	74	5
26	47	1
12	46	1
16	104	1
33	76	2
3	3	6
12	12	4
128	128	2
96	97	2
83	102	2
5	41	6
0	0	5
68	69	1
26	40	2
2	38	1
83	96	2
47	79	1
4	109	1
39	39	4
86	90	1
21	85	2
110	111	1
46	61	3
110	129	1
60	86	1
87	87	2
94	95	3
12	14	4
109	112	1
93	96	1
47	48	1
64	66	3
89	92	1
30	36	4
113	113	3
26	93	1
2	2	1
29	49	5
26	28	3
79	82	1
83	84	1
125	126	3
62	74	2
29	30	3
93	99	1
107	107	6
78	88	1
31	81	3
122	122	4
41	42	1
25	25	1
89	102	2
8	28	1
31	32	5
42	42	3
25	93	2
45	55	1
73	74	4
105	105	5
119	119	4
86	86	2
60	92	1
114	114	2
15	45	2
7	95	1
43	43	3
45	45	5
62	63	3
100	101	1
39	40	2
6	13	1
101	101	3
81	81	1
90	91	1
61	72	1
41	41	1
95	115	1
97	99	4
18	18	2
67	68	1
20	80	2
63	63	3
78	79	4
66	83	1
15	22	1
14	60	1
27	28	4
71	71	3
72	118	1
78	80	2
47	64	3
14	15	1
27	41	2
31	49	4
91	92	2
16	22	1
123	124	2
35	71	1
7	8	2
109	109	1
125	125	2
36	36	2
1	1	1
14	22	2
13	13	1
4	88	1
96	100	1
19	57	1
42	43	1
23	30	2
13	78	1
5	40	1
2	120	1
134	134	3
23	23	1
93	95	1
91	97	1
85	87	1
75	76	2
20	56	1
33	33	1
3	8	1
58	59	1
68	68	1
84	94	2
48	57	1
56	56	1
6	6	2
18	20	1
130	130	2
51	56	2
124	124	2
29	60	1
21	56	1
91	91	1
121	121	1
82	84	1
55	56	1
71	130	1
88	92	1
88	88	1
121	134	1
112	112	1
