4	4	7
2	2	5
186	186	7
129	129	2
184	193	2
43	44	2
93	93	3
115	115	3
3	44	4
49	49	5
182	182	4
27	27	1
148	149	1
58	58	1
110	123	4
155	155	4
13	13	6
133	133	11
168	168	6
39	40	1
178	178	1
48	48	3
126	141	1
153	153	11
154	161	2
135	135	5
38	38	3
191	191	6
154	154	1
132	133	1
123	123	4
45	187	2
157	158	2
147	147	5
108	154	1
82	84	3
103	103	4
56	63	2
181	182	3
118	118	3
40	40	3
133	170	2
52	53	1
10	10	2
151	153	3
156	158	2
82	83	1
10	24	1
152	152	2
117	118	4
159	159	4
148	174	2
51	51	1
173	175	6
170	171	2
3	6	4
181	181	3
24	25	2
194	194	2
12	12	6
11	197	1
163	164	3
140	140	3
173	180	1
120	121	2
130	131	3
151	151	3
9	10	4
9	9	1
166	166	1
34	35	1
102	102	1
167	168	1
103	104	1
121	180	2
6	19	2
99	100	1
128	128	4
31	31	2
29	31	1
149	149	8
74	74	2
150	152	4
166	167	1
97	174	1
163	176	1
114	119	2
111	159	1
85	85	1
189	189	1
165	172	1
22	27	3
148	158	1
25	29	1
161	166	3
100	106	1
193	193	2
22	23	3
28	28	4
61	76	2
33	33	4
163	168	1
54	54	5
37	37	1
7	60	2
40	65	4
86	86	5
129	194	3
13	14	2
31	32	3
59	62	2
165	166	1
33	34	2
36	54	3
130	181	1
134	135	1
1	43	3
121	157	2
113	114	2
177	177	1
197	197	1
148	148	4
30	38	2
126	126	2
135	136	1
138	138	3
123	151	2
31	85	2
83	93	1
37	38	4
5	17	1
9	15	2
103	143	2
99	99	6
139	139	4
132	132	4
156	156	5
98	118	1
94	94	1
190	190	1
104	105	1
195	195	1
45	45	2
42	43	3
100	123	2
106	108	2
8	54	1
36	36	4
134	175	1
25	26	1
196	197	2
189	191	2
134	160	1
18	18	1
80	190	2
28	78	1
111	113	2
153	170	2
6	6	1
11	13	1
138	179	1
51	52	1
173	174	5
162	162	3
88	88	3
127	171	2
157	157	1
6	65	1
168	169	1
179	180	3
0	43	1
71	72	2
130	130	2
183	183	2
135	178	2
150	150	2
193	194	2
132	175	1
161	172	1
154	175	2
134	134	1
6	26	2
172	172	4
113	153	1
109	110	1
158	158	4
140	166	1
1	1	1
105	175	1
160	160	1
1	3	1
154	159	3
79	79	1
167	167	3
23	31	1
106	176	2
183	188	1
46	64	2
16	16	4
169	172	1
112	155	1
127	127	1
8	13	1
121	121	3
53	53	1
142	142	6
34	34	1
109	109	1
21	21	1
38	48	1
5	46	5
0	0	1
183	184	2
180	180	2
143	152	2
105	105	1
183	186	1
100	108	2
182	186	2
97	97	1
196	196	2
119	122	1
24	31	1
161	161	1
98	99	1
144	146	1
153	180	3
117	117	2
151	152	2
17	18	4
143	143	2
104	104	1
188	188	1
175	175	1
145	151	1
128	129	2
108	108	1
178	180	1
50	194	1
176	178	3
129	131	1
5	44	1
143	176	1
101	105	1
81	82	2
122	122	1
105	154	1
63	63	2
144	144	1
172	174	2
54	56	1
15	37	1
27	78	1
181	190	1
12	57	1
3	3	1
9	16	1
119	120	1
52	52	2
108	193	1
165	165	2
144	151	1
124	124	2
107	170	1
175	177	1
82	93	1
133	136	1
44	190	1
166	169	1
145	153	1
170	197	1
184	184	1
154	197	1
127	149	1
