71	71	5
53	70	4
119	137	2
105	107	11
139	139	9
162	164	9
47	47	21
0	28	5
173	173	12
45	46	11
18	19	3
159	174	2
153	155	1
39	39	12
114	115	8
166	166	13
15	20	2
37	37	14
181	181	15
110	111	10
190	190	18
10	14	2
107	107	10
2	2	4
111	111	15
94	94	9
105	105	18
144	144	7
34	81	4
175	175	8
94	96	2
188	188	15
56	146	1
7	9	6
82	104	1
172	172	21
24	42	3
114	163	2
121	121	9
185	186	7
53	53	21
126	127	2
161	161	16
156	157	8
157	158	17
143	144	18
125	125	13
109	109	17
151	151	18
42	42	18
6	7	4
107	110	2
121	185	1
59	74	8
98	130	5
155	155	15
59	60	3
187	187	12
170	177	3
156	156	18
101	105	1
136	136	29
153	153	12
163	164	7
47	54	2
155	156	15
46	60	3
95	119	2
100	101	8
126	128	6
97	97	5
68	68	11
95	95	11
101	101	18
101	102	5
41	41	15
22	22	13
158	158	28
13	13	19
0	1	15
52	52	18
122	122	15
40	40	13
63	80	3
187	189	6
161	162	18
59	59	17
81	81	4
55	55	15
19	21	3
65	65	4
115	115	12
176	177	7
5	6	3
168	175	3
137	144	4
62	62	8
11	11	18
142	142	12
194	194	22
32	32	15
47	48	2
59	138	2
143	143	16
72	72	20
66	66	7
172	175	6
162	162	14
79	80	2
7	7	10
4	31	2
186	186	25
176	178	15
139	143	1
111	112	5
149	149	22
192	192	23
86	86	9
57	57	29
139	140	8
28	29	3
126	126	18
82	83	9
64	64	4
176	176	14
54	55	6
22	192	3
16	19	5
98	99	8
108	110	1
113	133	9
132	132	7
3	39	3
100	100	18
63	66	3
32	188	2
180	180	31
4	20	1
73	73	17
185	185	16
21	22	3
36	37	5
81	84	3
113	132	9
33	33	30
62	147	5
5	7	2
135	136	6
184	192	5
170	170	10
123	123	14
85	85	13
141	141	23
26	26	12
119	119	13
148	148	25
36	36	20
171	171	19
136	142	4
140	140	9
94	95	11
149	150	9
144	146	7
137	138	3
196	196	10
167	170	1
149	197	2
156	158	2
67	79	1
169	169	24
195	195	11
58	58	10
117	139	1
164	164	6
102	102	11
23	24	5
6	34	3
67	68	6
80	80	11
82	102	1
48	49	4
10	10	14
22	25	4
30	30	19
29	29	15
84	84	8
40	41	7
60	60	4
180	181	9
182	182	17
74	74	9
83	84	9
146	146	16
114	121	4
124	141	1
27	27	3
194	195	4
193	194	3
19	19	13
48	48	16
34	37	1
96	96	6
179	179	17
17	17	13
70	70	8
9	22	5
167	167	17
117	118	6
145	145	9
13	14	6
31	31	12
140	159	4
34	36	4
16	16	11
169	173	3
12	12	3
164	172	2
49	49	20
56	56	14
165	165	19
120	121	5
165	167	6
58	60	3
64	74	2
116	117	4
3	3	17
173	176	7
108	108	16
43	43	12
10	13	2
127	141	4
26	27	3
21	24	8
104	104	13
150	151	22
34	54	3
120	162	1
157	159	1
21	25	4
183	183	13
53	55	1
103	104	5
11	13	6
125	127	1
45	45	6
66	67	4
188	189	6
5	5	9
44	44	19
149	151	2
110	110	22
189	189	25
193	193	17
139	151	2
17	18	3
136	137	8
145	146	2
117	131	1
133	139	7
151	153	7
93	93	6
152	155	4
65	66	4
19	20	7
132	134	6
116	116	12
137	137	18
104	105	6
22	41	2
1	2	6
142	152	7
124	124	14
168	182	1
24	24	10
71	72	4
81	82	3
171	172	9
4	4	8
61	63	3
51	51	5
83	83	13
150	150	10
98	98	19
174	174	14
163	163	16
144	145	10
8	38	3
152	152	11
154	154	27
27	28	14
168	168	17
114	114	4
119	120	1
135	154	8
150	153	3
161	173	1
50	50	17
18	18	8
105	143	5
124	136	1
147	154	2
23	23	9
118	175	1
105	106	3
133	135	1
0	2	4
55	56	10
35	52	1
169	175	3
109	131	4
165	166	11
62	78	2
127	142	6
189	190	6
76	76	10
46	46	7
147	147	18
125	126	5
6	9	6
28	28	16
103	103	5
42	43	8
113	121	2
118	118	11
157	157	23
35	35	10
187	194	1
38	38	25
107	108	1
138	138	9
23	25	3
29	38	4
83	105	3
119	121	3
26	28	4
6	6	8
74	75	3
35	36	6
14	14	6
135	135	9
23	31	1
145	179	1
86	88	3
0	31	3
152	172	1
146	158	2
15	15	15
106	106	12
110	159	3
163	173	2
60	77	2
29	56	2
9	10	2
170	171	15
78	148	3
45	68	1
128	128	3
131	131	24
109	110	2
107	141	2
160	160	12
169	170	13
114	123	1
169	182	1
25	25	16
99	116	3
9	21	3
151	154	1
131	132	6
159	159	13
141	152	1
37	38	5
18	129	2
9	9	10
196	197	5
137	139	3
20	21	9
81	83	2
158	180	4
180	182	7
58	59	2
124	126	1
30	31	7
197	197	9
0	0	5
115	163	1
22	23	7
174	176	12
49	50	2
129	129	5
160	161	5
100	132	4
159	175	3
89	90	4
4	5	7
160	162	6
20	20	9
118	156	4
4	19	1
59	61	2
8	27	2
21	21	10
99	192	1
177	177	14
116	130	3
0	26	4
77	77	7
29	37	3
173	175	5
56	57	2
82	82	22
16	17	6
148	188	4
7	38	2
46	47	2
167	168	10
174	175	8
66	75	3
166	169	4
63	63	2
116	155	1
0	30	2
5	9	2
103	106	8
77	78	6
158	159	5
123	124	5
177	194	3
175	176	13
162	163	10
133	133	7
162	171	2
76	77	3
103	105	9
30	56	1
186	194	1
191	191	4
11	12	3
117	117	15
99	99	12
184	184	12
164	165	4
120	138	1
40	42	5
140	141	4
34	34	11
80	81	7
8	8	7
187	188	8
33	34	3
146	147	4
176	180	3
157	180	5
13	126	1
169	176	1
67	67	6
106	143	1
112	112	9
60	75	2
0	5	1
87	87	12
178	179	7
18	20	3
4	16	1
134	135	8
6	26	1
3	26	5
157	160	2
15	21	2
191	193	1
19	181	3
7	31	3
132	133	7
43	44	4
179	180	1
137	142	7
114	125	2
59	75	2
68	74	3
1	1	13
147	176	5
29	30	2
184	188	2
141	142	7
24	25	5
2	26	3
186	187	5
160	177	4
34	35	9
152	153	7
138	139	2
63	64	2
134	154	1
23	32	3
56	147	3
116	139	2
20	22	2
178	178	6
111	183	1
101	103	5
33	37	4
177	179	5
69	69	12
63	74	1
102	105	1
16	116	2
71	74	4
38	45	4
62	63	2
61	61	2
44	58	1
171	183	4
122	123	17
113	113	5
45	196	2
134	134	11
148	178	1
167	169	2
166	175	3
116	175	1
146	154	2
127	127	8
130	130	7
28	56	5
7	37	1
3	25	2
64	77	2
37	83	1
147	164	2
168	169	5
44	45	5
21	192	1
20	193	1
79	79	6
18	94	3
115	117	3
73	74	4
159	160	7
133	134	5
163	167	4
61	76	4
5	26	4
8	9	6
2	4	2
138	143	1
120	120	6
148	160	1
128	129	1
114	140	3
80	82	1
70	71	8
150	172	4
101	126	1
173	174	1
186	188	1
6	8	1
60	76	1
161	165	4
107	185	2
43	58	4
29	31	3
149	170	3
131	154	1
113	128	1
150	181	1
28	33	1
181	192	1
190	191	1
102	108	3
148	149	3
57	58	3
13	127	1
130	144	1
88	88	4
4	21	3
39	68	4
159	168	3
46	51	3
83	104	3
98	121	2
140	172	2
78	78	9
112	122	3
153	154	3
36	82	1
39	40	5
169	189	2
171	175	1
181	191	2
62	76	3
50	73	1
54	54	9
167	174	1
191	192	4
15	16	2
121	122	2
116	121	1
155	181	3
164	174	2
113	118	1
114	119	3
170	172	3
2	3	4
131	142	1
177	178	2
160	173	3
4	27	2
143	152	1
72	73	2
181	183	1
178	192	1
159	178	1
6	27	2
123	142	4
7	26	1
118	139	2
56	82	1
127	128	1
30	154	1
20	119	2
166	167	3
113	196	2
16	18	1
114	120	3
90	90	3
64	66	2
54	56	3
59	73	3
107	109	2
89	89	2
33	47	1
7	8	6
190	194	2
112	113	1
0	36	1
183	184	1
168	179	3
2	34	1
96	97	3
25	39	1
28	31	3
109	111	2
120	186	1
42	44	3
181	182	1
103	144	1
154	155	1
183	193	6
104	145	1
182	183	2
117	121	4
69	73	1
93	94	4
54	62	4
134	137	1
164	166	5
3	5	1
59	64	3
85	86	1
139	183	3
46	127	3
58	61	1
7	34	4
60	78	1
1	27	1
81	85	2
139	168	2
74	76	2
116	120	1
75	75	3
31	146	1
150	152	5
161	175	2
96	99	2
141	146	3
30	147	1
22	24	2
51	52	3
63	73	1
0	27	2
152	156	1
163	172	1
124	125	2
19	23	3
113	117	4
132	139	1
169	172	1
184	185	1
62	72	1
162	167	3
43	60	3
190	193	3
5	34	1
10	11	5
140	183	1
112	185	1
172	174	1
27	53	2
101	106	1
151	152	2
102	106	4
32	53	1
38	46	1
114	124	1
48	50	1
108	109	1
107	184	2
116	140	2
80	85	2
113	120	1
30	146	2
32	33	2
157	197	3
113	123	1
142	143	2
130	131	1
138	140	2
112	133	1
64	65	3
104	143	1
50	70	1
106	107	3
132	154	1
174	177	1
59	70	1
172	177	2
3	21	3
129	130	1
158	181	1
133	136	1
156	182	1
33	53	2
64	75	1
34	39	1
160	186	1
40	68	2
28	38	1
87	88	3
137	155	1
6	21	1
115	123	1
63	71	1
183	196	1
117	140	1
29	36	1
117	173	1
172	173	1
107	140	3
17	19	1
81	87	1
68	69	1
87	89	1
154	158	1
93	96	1
86	181	1
161	171	2
123	156	1
18	181	1
130	140	1
93	95	1
155	158	1
7	27	1
46	58	1
112	135	1
38	39	1
123	133	1
161	163	1
55	78	1
176	179	1
149	157	1
111	131	1
71	73	1
110	112	1
189	193	1
27	32	1
112	131	1
140	152	1
95	97	1
