103	103	41
22	27	3
91	91	29
12	13	11
56	56	11
89	90	23
61	66	1
28	29	2
91	92	6
104	104	47
32	76	2
122	125	2
125	125	15
4	4	12
75	79	2
27	28	7
82	85	2
114	114	39
55	57	6
14	14	35
27	27	21
50	60	1
118	119	7
101	101	35
105	105	44
31	31	14
33	35	4
25	34	5
23	23	12
2	2	16
85	113	3
129	129	15
87	87	30
105	116	1
121	130	2
88	88	20
120	120	26
53	53	14
57	57	9
112	112	41
72	72	30
122	122	23
70	70	26
126	126	26
55	56	5
79	80	11
133	134	5
122	130	3
86	86	21
13	13	21
55	55	12
120	121	12
69	69	31
60	65	1
54	54	22
17	17	9
71	72	14
12	12	24
119	119	20
117	117	15
100	100	27
69	70	18
54	55	6
45	45	12
32	33	10
112	115	5
28	28	25
25	25	28
132	133	13
63	63	25
57	58	3
131	131	10
70	119	2
79	79	28
97	97	18
89	91	2
81	87	1
48	55	3
48	48	7
72	73	7
29	29	4
123	124	7
58	58	8
62	62	18
116	117	6
115	115	20
133	133	10
102	102	27
49	50	8
84	84	15
128	129	6
116	116	22
94	95	4
93	93	22
110	122	2
29	35	1
75	77	5
75	75	16
63	64	10
83	110	2
127	128	14
111	111	20
95	95	27
97	120	6
114	115	23
124	124	8
73	73	40
17	18	3
36	37	3
130	130	14
32	32	18
78	80	6
108	108	21
65	66	3
99	99	35
98	98	40
90	90	39
6	6	22
127	127	22
94	106	4
76	93	1
112	113	28
105	106	10
15	16	2
106	117	4
51	51	1
98	102	8
128	130	2
74	75	2
121	129	1
121	122	6
0	0	7
3	5	4
73	74	15
130	131	15
62	63	12
7	88	2
111	113	6
77	79	7
96	96	18
101	105	7
94	94	24
80	80	31
118	121	4
99	100	12
52	52	7
5	5	20
89	89	7
78	78	9
61	61	24
128	128	28
76	76	34
53	60	3
22	22	13
50	50	26
25	68	1
19	19	9
123	123	6
131	133	3
130	132	6
122	124	4
101	102	12
37	37	4
132	134	5
71	71	26
29	30	7
119	121	4
81	81	15
33	33	5
1	1	25
111	115	7
132	132	12
56	57	8
53	54	5
53	58	2
123	131	4
11	11	11
33	34	14
81	82	5
35	35	15
15	15	28
95	120	2
84	85	14
91	95	1
7	76	3
56	59	3
98	126	3
23	24	5
16	16	3
24	25	7
11	34	6
67	68	3
74	104	5
10	11	9
26	27	1
6	26	1
62	64	15
80	81	6
92	92	29
82	83	4
21	21	10
108	109	8
104	105	4
64	66	3
66	66	8
102	105	3
31	32	7
125	127	6
24	24	12
44	44	20
59	62	3
113	113	28
121	133	5
64	64	23
73	102	1
123	125	8
107	107	10
29	31	8
50	51	3
3	3	13
106	107	17
11	12	4
21	22	6
49	49	6
4	6	5
32	34	2
126	127	6
60	61	5
86	87	13
117	118	12
73	104	1
109	125	4
22	23	17
86	112	1
83	83	8
114	116	2
100	107	3
69	97	3
43	43	15
6	7	3
102	103	7
51	59	3
82	82	17
34	34	7
77	82	4
106	106	34
134	134	12
21	35	2
85	111	4
59	59	14
5	28	4
103	104	8
23	65	1
93	94	16
110	110	9
70	71	10
95	96	7
25	28	2
7	43	2
61	62	5
108	112	2
129	135	2
117	131	2
109	109	13
14	15	7
96	97	3
79	88	2
2	3	1
10	38	1
101	103	2
115	116	6
92	93	7
83	84	7
96	120	5
86	111	2
107	108	8
16	20	4
74	74	21
65	68	2
21	29	1
87	88	4
46	46	3
111	117	3
112	114	7
26	26	8
26	48	1
54	83	7
77	78	6
60	60	22
47	48	3
90	92	1
57	83	2
52	54	4
90	94	2
68	68	16
48	80	5
127	131	2
68	69	5
110	111	5
81	88	3
37	45	2
90	105	3
52	60	4
20	35	2
85	85	9
66	68	4
64	68	1
121	121	24
63	71	1
65	65	10
100	101	7
77	77	16
75	115	1
49	57	1
47	57	1
121	128	1
88	98	2
98	100	1
82	110	2
119	120	10
75	80	3
24	26	3
27	29	2
20	20	11
79	81	3
6	28	1
134	135	8
97	124	1
55	78	2
46	47	3
113	121	2
110	135	2
10	22	2
0	5	1
30	30	12
87	92	6
129	130	3
9	81	1
82	86	1
95	106	4
20	83	4
16	17	2
30	32	3
38	38	1
60	71	3
27	31	2
21	27	3
98	124	1
68	100	1
8	8	6
90	91	4
91	96	2
47	80	4
100	106	2
3	4	5
57	59	1
47	59	1
5	32	3
58	59	3
22	32	1
109	111	2
122	132	3
121	131	1
98	103	1
135	135	5
28	30	6
122	123	5
78	85	1
69	104	2
116	119	1
59	61	5
5	6	3
90	131	1
64	65	5
108	114	2
98	101	3
99	123	2
64	67	2
27	35	2
98	119	1
86	107	1
118	118	13
13	78	3
121	127	2
38	66	2
7	8	3
49	54	3
34	35	4
0	1	4
117	132	2
106	109	1
66	67	2
60	63	3
67	67	13
60	70	2
113	114	6
97	99	1
36	36	8
51	52	4
49	52	2
111	118	1
7	29	3
72	74	1
125	126	13
119	122	2
78	84	4
45	58	3
121	124	3
9	9	4
8	9	1
97	98	14
25	26	9
78	87	1
131	134	2
1	3	2
74	76	4
23	33	4
108	124	1
65	106	2
78	82	1
52	53	6
66	81	2
120	133	8
128	132	1
63	67	2
122	131	2
76	77	3
94	103	1
88	94	1
92	95	4
128	135	1
50	54	6
2	89	6
2	93	1
54	78	4
44	45	1
102	104	1
84	88	4
45	48	2
44	58	2
21	23	4
99	101	7
111	114	1
119	130	3
92	94	3
74	77	1
125	129	4
129	131	1
4	5	3
25	30	1
18	18	4
60	64	1
30	31	1
6	84	1
130	133	3
23	27	3
22	29	2
56	58	2
111	120	1
69	74	1
100	124	2
125	128	1
45	49	1
120	134	1
26	29	1
76	81	1
70	75	2
13	14	4
93	95	2
128	131	4
101	112	4
22	24	1
53	57	1
101	124	1
118	120	1
97	103	3
114	120	1
111	112	5
113	128	1
108	111	2
54	79	4
9	45	1
101	108	2
123	129	1
91	94	2
44	48	1
85	103	1
36	42	2
76	89	2
116	118	2
99	117	1
8	12	2
78	79	2
9	10	1
1	2	6
61	63	2
16	22	1
7	85	2
100	125	1
15	83	1
7	7	8
93	104	1
75	76	7
4	32	2
73	77	1
108	118	1
71	74	1
7	86	2
77	81	1
111	121	1
120	132	1
31	34	1
49	56	1
14	53	1
42	42	1
18	20	2
113	115	1
108	110	3
85	86	4
85	112	2
43	45	3
106	108	1
108	127	1
59	67	1
109	110	2
94	114	1
10	15	1
110	114	2
12	17	1
128	134	1
23	25	2
124	125	3
27	30	1
10	10	3
91	93	1
6	85	1
19	43	1
2	4	1
67	97	2
83	85	1
22	35	1
56	60	2
81	85	2
129	134	4
16	83	1
21	32	1
107	109	4
62	96	1
37	38	1
11	13	1
118	122	1
48	49	1
42	43	1
131	132	6
50	52	2
103	120	1
19	20	3
15	23	1
9	83	1
101	125	2
78	98	1
14	17	1
63	70	1
8	25	1
110	121	1
26	68	1
9	43	1
0	120	1
115	119	3
72	105	1
90	93	1
42	49	2
111	135	1
70	74	1
127	129	1
84	86	2
45	77	1
89	128	1
64	69	1
26	37	1
22	47	1
59	78	1
60	62	1
109	117	1
123	127	1
94	115	1
38	39	1
11	38	1
19	21	1
104	112	1
125	131	1
11	23	1
4	33	1
20	36	1
7	30	1
35	95	2
118	130	1
8	10	1
23	26	1
43	44	1
98	121	1
38	83	1
103	112	1
124	129	1
98	125	1
126	129	2
109	123	1
47	56	1
69	100	1
86	93	1
10	39	1
3	74	1
88	92	1
