29	30	2
28	28	5
48	48	13
72	72	17
72	73	8
42	42	10
78	78	9
70	70	3
27	41	4
24	24	4
33	33	14
44	44	15
103	105	4
95	95	8
43	43	1
86	86	7
49	49	16
41	68	5
22	22	2
71	104	2
97	97	8
111	111	17
66	67	6
38	39	3
20	20	13
110	110	7
111	112	1
88	88	12
36	53	1
76	76	7
50	51	5
32	40	2
105	106	4
101	101	4
114	114	17
30	31	4
112	112	3
51	51	4
80	82	2
65	65	3
82	82	7
92	92	15
69	69	18
83	83	2
40	40	12
78	79	3
83	88	1
61	61	8
35	35	6
73	74	11
58	58	11
34	34	5
54	60	2
50	50	2
70	71	5
95	106	3
87	91	3
108	108	16
113	113	7
99	99	14
87	87	4
31	37	6
93	93	3
53	54	4
54	54	8
88	89	3
98	98	13
46	46	10
102	103	2
64	65	7
45	45	8
23	23	2
73	73	11
37	37	2
31	32	1
94	94	7
69	92	1
30	40	2
102	105	2
77	78	5
93	94	5
76	92	1
37	86	1
85	85	3
68	69	7
71	71	5
75	75	10
39	40	2
64	67	1
41	41	2
60	61	2
87	88	5
68	68	7
82	84	3
103	103	4
28	29	1
69	106	4
74	74	10
44	45	1
108	109	2
112	113	6
39	39	1
103	107	1
66	66	6
52	52	3
37	53	3
30	50	1
109	113	2
86	88	1
109	109	8
83	86	2
45	63	6
25	25	5
101	102	8
71	79	5
19	19	5
104	107	3
77	77	4
56	56	13
35	37	2
105	105	10
81	93	1
61	62	3
86	87	3
59	59	10
83	100	2
24	53	3
62	62	2
100	101	2
88	91	5
67	67	8
90	91	1
102	110	1
71	78	1
21	21	7
27	27	4
71	103	3
84	84	9
74	75	2
41	81	2
107	107	5
92	93	3
31	31	10
55	55	4
89	90	2
106	106	1
81	81	3
45	60	1
32	32	2
60	60	9
61	97	2
69	105	1
63	63	2
97	98	1
65	66	4
62	63	3
99	101	1
75	77	2
26	26	3
83	84	3
89	91	1
63	68	1
34	35	2
24	113	2
32	53	2
71	72	4
80	81	2
64	64	4
95	96	2
69	70	3
47	47	4
106	107	4
30	30	3
35	36	2
109	110	1
41	79	1
36	38	3
97	102	2
82	83	2
58	59	1
38	65	4
94	95	3
34	36	4
57	58	1
48	55	1
63	65	2
65	70	1
98	99	1
57	57	3
96	97	1
96	98	2
61	79	2
56	59	1
65	73	2
53	53	1
98	100	2
32	37	1
24	25	3
25	29	2
40	87	2
41	86	2
28	51	1
49	50	1
54	59	5
63	64	2
38	38	1
68	73	1
82	85	1
75	76	1
104	104	1
80	80	2
105	110	1
76	78	2
66	69	1
29	107	1
29	29	2
100	100	1
109	111	1
92	95	1
42	98	1
44	92	2
66	100	1
51	52	1
27	30	1
75	85	1
41	80	1
55	56	1
37	39	1
42	43	2
36	37	1
78	80	1
95	97	1
45	92	1
37	54	1
