52	53	7
40	40	8
51	52	5
68	78	2
94	94	32
35	35	10
52	52	13
37	37	18
76	77	8
95	95	15
31	31	14
40	106	1
106	106	4
72	75	4
41	47	1
101	102	5
23	23	10
34	59	1
78	78	10
73	73	14
93	99	3
22	23	11
24	24	11
68	68	5
76	76	6
44	44	15
72	74	2
80	87	3
100	100	9
80	81	9
40	66	3
67	67	9
51	51	10
61	61	10
81	88	2
97	97	6
39	39	7
42	48	2
67	101	7
22	30	4
50	50	34
34	35	5
99	99	12
57	57	16
65	68	4
94	95	3
64	64	16
87	87	6
55	75	4
25	26	1
26	27	7
72	72	10
49	96	6
29	30	3
82	82	10
22	22	7
55	85	6
104	105	10
77	78	9
80	80	10
43	44	6
34	103	1
68	102	2
62	62	9
75	75	13
86	87	1
54	54	9
79	99	1
84	85	7
62	63	6
20	20	6
53	53	14
46	46	14
60	60	8
81	81	10
22	24	1
76	94	2
102	102	8
81	98	2
44	45	5
103	103	20
102	103	5
38	38	11
70	91	2
34	34	9
84	86	5
65	65	14
88	88	5
98	98	11
74	74	10
78	99	3
105	105	10
90	91	10
76	78	2
61	62	6
99	100	2
39	40	6
79	90	1
77	101	2
52	54	3
70	75	2
66	66	7
36	36	17
96	96	9
79	80	5
92	92	11
101	101	12
25	25	18
80	84	2
47	47	8
70	71	8
53	64	1
32	32	9
53	70	2
69	75	2
59	59	10
104	104	9
60	89	3
69	72	3
97	98	6
29	29	13
44	46	2
96	99	3
52	55	1
70	77	5
93	93	20
45	45	12
63	63	13
56	56	9
58	60	5
65	78	3
64	89	1
103	105	2
74	75	2
70	76	5
75	77	4
55	66	1
33	33	14
64	91	2
54	62	2
41	42	17
30	30	11
31	32	2
58	79	1
67	70	2
66	69	4
79	96	1
34	45	1
86	86	5
55	55	11
21	23	2
70	70	3
36	37	2
69	71	1
33	46	2
69	70	1
51	96	4
71	71	6
85	86	4
83	88	4
32	69	3
33	34	9
84	84	7
42	42	3
77	77	8
38	69	2
81	87	1
41	43	2
30	33	4
90	90	7
27	27	9
64	90	2
57	81	4
30	32	1
37	38	5
41	41	8
92	101	3
28	36	2
24	25	7
66	67	2
73	74	1
73	76	6
72	73	3
28	29	5
49	59	1
59	81	3
55	56	8
21	22	5
59	63	3
71	75	2
68	75	1
48	49	7
95	96	2
54	55	1
21	54	1
42	44	4
51	70	1
91	92	1
57	58	2
97	99	3
75	100	1
39	93	2
42	80	2
51	56	1
64	65	3
69	69	10
23	30	1
21	21	2
43	49	2
22	29	2
79	79	1
50	69	2
43	43	8
82	86	2
32	34	2
27	28	3
44	48	3
81	86	2
53	65	3
28	28	2
50	54	2
106	107	1
47	50	1
64	79	3
38	39	4
86	88	1
58	83	1
83	83	5
71	72	7
62	91	2
71	77	1
74	77	2
32	33	2
35	51	2
21	24	4
85	100	3
54	63	3
63	64	2
89	89	4
98	99	4
63	76	3
78	79	3
37	40	2
90	103	1
107	107	1
32	56	1
92	93	2
23	24	1
24	30	2
49	49	6
26	26	4
61	67	1
40	41	2
61	105	1
58	80	1
90	97	2
54	70	3
36	105	3
33	45	1
68	71	1
75	101	1
56	86	1
59	65	1
59	60	1
72	76	2
92	100	1
53	68	1
83	84	1
39	45	1
78	91	2
94	106	3
87	88	1
94	99	2
81	105	2
43	79	1
26	28	2
20	21	1
48	48	1
82	88	2
64	74	1
35	36	1
68	69	1
93	97	1
38	68	1
93	94	1
91	91	4
66	70	1
23	49	1
68	101	2
81	83	1
47	48	1
56	85	1
92	106	1
35	73	1
34	61	1
60	95	1
44	56	1
63	67	1
