50	50	5
95	96	6
100	100	11
94	94	6
80	81	5
64	64	10
22	22	14
96	96	3
35	35	11
56	56	13
52	52	4
61	67	2
89	89	11
101	101	2
70	70	6
44	48	2
46	46	3
29	29	10
38	39	9
43	43	7
80	80	6
31	72	5
93	95	4
88	106	4
74	74	9
31	65	1
49	49	8
31	33	2
71	71	8
97	97	10
95	95	7
73	73	6
78	78	11
50	69	2
36	36	3
42	48	1
42	44	4
48	61	1
40	40	3
56	57	2
54	54	6
68	80	2
47	94	2
106	106	5
32	58	6
63	90	3
63	63	10
82	89	1
62	62	2
79	82	2
77	77	4
47	48	1
37	94	4
64	75	1
75	75	4
41	47	4
105	105	2
68	68	1
84	84	1
26	26	13
30	39	2
36	72	2
90	90	7
22	54	2
98	99	2
60	60	17
89	94	3
94	96	3
104	104	6
49	56	6
22	55	1
23	23	10
61	71	2
43	44	2
51	51	3
40	99	4
38	38	6
86	86	5
76	77	1
26	85	3
55	59	3
41	98	2
29	78	1
21	22	1
87	87	2
32	32	3
70	103	3
28	85	2
78	88	3
93	93	2
55	55	3
34	34	9
78	79	4
24	24	2
94	95	4
46	58	2
76	76	1
50	60	3
72	72	4
48	49	1
53	53	2
78	82	2
61	61	6
31	31	2
36	46	1
83	85	2
79	79	1
86	87	1
59	78	2
65	65	9
81	81	10
71	72	4
99	99	5
49	93	3
21	100	2
36	37	3
67	79	3
55	58	2
44	78	2
26	30	2
27	29	2
22	46	1
20	92	2
25	26	4
51	52	3
40	91	2
21	21	4
35	36	2
25	25	6
73	75	2
67	67	1
78	106	1
66	66	6
23	69	3
98	98	3
62	63	4
41	92	1
41	41	4
26	27	2
58	58	2
59	59	3
40	41	1
33	34	1
103	105	2
45	100	2
37	38	1
58	59	5
67	68	1
48	48	4
33	78	1
78	81	1
21	58	2
66	78	1
71	101	2
70	89	3
79	80	2
83	89	2
39	39	5
88	88	3
57	57	5
69	69	1
73	93	1
92	92	1
20	21	1
42	42	4
34	88	3
89	90	1
81	89	2
70	106	3
66	67	2
20	98	3
46	47	1
83	88	2
43	48	3
79	87	2
23	24	1
33	33	1
80	89	1
37	37	3
24	33	2
102	102	1
92	99	1
27	27	1
65	94	1
82	93	1
70	71	1
37	61	1
60	79	3
42	94	2
81	87	1
47	47	1
34	69	1
50	51	1
52	58	1
84	85	1
86	106	1
30	30	1
89	107	1
63	81	1
100	101	3
68	93	1
50	54	1
92	93	1
29	30	1
71	73	1
20	20	1
33	76	1
68	69	1
70	72	1
41	44	1
61	79	1
