94	97	4
202	202	6
230	231	3
47	47	8
70	70	3
33	33	7
239	239	9
163	163	6
174	174	5
213	213	3
181	181	13
24	24	2
246	246	8
81	82	5
173	173	9
191	192	2
37	37	8
54	54	4
155	155	14
237	237	16
117	118	4
111	111	8
171	172	5
159	159	11
95	118	3
190	190	13
111	112	3
109	109	15
119	119	8
164	164	5
20	20	13
114	114	8
239	240	1
116	119	2
181	182	6
84	84	8
240	241	3
218	218	12
94	94	12
240	240	13
100	101	2
118	119	3
116	116	6
110	110	8
9	9	5
160	160	10
185	185	3
162	163	7
150	150	10
48	48	15
163	164	2
45	46	2
152	152	10
15	32	1
177	177	4
29	30	5
185	195	1
34	34	3
21	21	13
193	194	2
177	178	2
236	236	9
206	206	3
88	88	7
69	69	12
84	85	3
192	192	8
224	224	8
224	234	4
15	15	15
59	78	1
235	235	5
86	86	10
221	221	4
156	157	4
197	197	5
29	42	2
215	215	2
76	76	5
244	244	9
178	182	2
249	249	2
21	22	3
230	230	3
5	18	2
226	227	1
69	70	5
204	204	9
112	118	3
62	62	3
179	183	3
45	53	1
61	62	4
6	6	6
158	158	7
91	91	5
36	37	2
189	215	1
205	209	1
185	188	4
38	38	4
157	157	1
243	243	2
213	235	2
245	249	1
11	11	7
190	191	1
107	107	7
171	210	1
156	156	11
52	52	6
203	203	16
17	17	4
151	151	9
222	222	9
115	115	11
166	166	8
199	199	9
99	100	3
110	183	1
7	7	2
236	237	7
175	176	4
54	55	5
19	19	20
53	55	2
198	198	1
85	85	3
170	170	6
201	201	8
171	171	7
179	179	7
209	209	8
112	112	6
193	193	9
51	52	1
226	226	2
77	77	7
151	153	5
186	187	4
25	27	2
67	67	4
32	32	4
157	160	1
245	246	7
219	219	9
5	5	9
166	173	1
241	242	5
12	12	5
64	65	6
3	4	2
9	44	3
184	184	4
213	237	1
34	35	1
232	232	7
172	173	6
12	13	3
238	238	7
242	242	8
36	36	6
233	233	4
3	30	1
81	87	1
27	27	3
216	217	2
61	61	1
210	210	12
165	165	8
183	184	2
161	161	6
56	56	11
117	117	6
196	196	6
194	195	5
221	222	3
184	185	10
2	29	1
206	209	2
162	162	9
120	145	3
80	80	4
58	58	3
2	37	1
87	87	7
248	248	6
113	153	1
155	168	3
247	247	6
34	61	2
183	211	2
112	113	6
17	19	3
57	58	3
173	193	1
50	51	6
90	90	5
49	50	2
175	175	8
113	113	6
87	90	3
55	113	4
65	65	2
200	201	1
167	167	11
25	26	4
68	90	1
39	40	2
220	222	4
216	219	2
168	168	8
216	216	5
31	35	2
113	119	2
245	245	7
98	98	6
178	190	1
61	88	1
35	36	10
217	217	1
214	215	5
37	59	6
113	115	3
31	31	8
74	77	2
40	40	5
97	97	3
109	115	2
192	193	4
29	31	1
172	172	5
191	191	5
187	187	8
75	76	3
208	209	1
243	249	3
95	95	6
153	153	9
57	61	2
149	150	1
232	233	6
205	205	3
66	67	1
18	18	8
111	160	2
38	55	1
168	169	10
211	211	8
29	29	2
10	10	6
147	157	1
167	172	3
46	46	7
211	212	3
20	85	1
178	179	4
241	241	6
186	214	6
6	7	4
12	119	1
194	198	3
47	48	3
239	241	1
109	155	2
170	171	6
94	95	8
174	175	2
35	35	6
170	172	2
68	68	5
8	8	4
41	41	3
78	78	2
176	176	5
189	189	3
34	37	4
146	146	6
235	237	1
245	247	1
187	188	2
228	228	2
72	73	4
192	194	1
202	205	4
113	117	1
77	78	1
5	30	1
162	169	1
55	55	4
96	96	6
91	92	4
200	203	2
87	88	4
1	151	1
110	111	3
66	68	3
158	179	1
11	55	1
80	84	1
164	165	2
43	43	6
154	154	15
145	145	3
202	227	2
197	198	3
220	220	4
246	247	1
97	99	3
154	156	1
114	116	4
57	59	3
224	225	4
42	42	5
50	50	6
73	73	2
26	27	3
230	233	2
72	74	2
52	53	1
104	104	2
21	155	4
200	200	5
100	100	9
118	118	2
234	235	1
221	234	1
4	31	1
178	189	1
186	186	7
17	18	3
38	45	1
227	228	3
25	25	2
207	207	3
13	13	2
62	87	1
62	118	3
79	79	10
247	248	1
99	101	1
46	56	1
83	87	3
44	45	1
238	239	3
169	170	2
243	244	2
39	39	3
223	223	1
92	93	1
163	178	2
234	234	10
237	241	1
218	236	1
26	26	6
96	97	2
36	64	1
172	174	6
115	117	1
79	81	3
18	22	1
60	60	5
35	41	1
242	243	2
106	107	1
244	245	2
63	63	2
55	56	4
204	205	2
14	14	3
195	197	1
66	66	6
66	90	1
206	207	6
182	182	6
164	166	1
60	61	2
102	103	1
188	246	3
147	152	2
227	227	4
97	98	8
45	232	1
181	184	3
19	27	1
99	99	2
109	110	8
105	105	2
235	236	3
237	240	1
59	61	1
100	115	2
228	229	1
16	31	2
231	231	3
209	212	1
209	216	3
163	165	2
92	96	1
21	23	2
95	98	1
89	90	1
218	219	3
28	28	2
159	160	6
23	23	3
190	195	4
64	64	2
75	80	3
180	181	1
58	60	3
149	149	3
4	4	1
41	95	1
78	80	3
169	169	8
202	225	1
208	208	2
61	90	2
173	174	4
113	114	3
7	8	1
183	183	7
108	108	3
45	45	6
57	57	2
76	77	4
47	71	3
225	225	3
68	77	1
214	214	5
146	147	1
45	90	1
106	106	1
71	95	4
2	21	1
186	194	4
47	63	3
182	183	1
51	51	4
180	180	3
55	79	2
30	30	4
188	189	2
164	178	2
162	175	3
43	70	1
188	188	2
121	121	1
147	147	1
47	49	3
198	199	3
229	229	4
231	232	1
213	214	3
7	43	1
86	90	1
57	60	1
178	192	1
229	230	2
165	166	1
33	44	1
222	223	2
47	85	2
91	103	2
207	232	2
95	117	1
177	179	2
156	168	2
175	208	1
42	76	1
66	162	1
152	153	3
23	185	3
156	167	1
194	194	2
188	190	2
8	10	3
173	224	1
179	180	4
59	59	2
233	234	2
151	155	1
226	228	1
30	34	2
10	54	1
72	72	4
56	79	2
111	181	2
159	180	2
149	166	1
53	53	1
210	237	1
196	203	1
218	220	3
185	187	1
184	246	2
10	11	2
164	208	1
152	171	2
48	62	3
104	107	1
90	91	2
57	62	1
15	17	1
199	202	1
222	234	1
170	229	1
192	218	1
157	159	1
14	19	1
36	38	1
88	90	1
150	186	1
163	173	1
203	230	1
178	178	4
39	70	1
114	115	3
193	215	2
149	177	3
194	196	1
65	66	1
86	88	1
105	106	1
154	155	1
9	38	1
78	98	2
73	74	2
207	209	1
44	44	1
12	38	1
212	212	5
16	32	1
187	246	2
155	225	2
156	202	2
30	41	1
186	221	1
3	3	1
230	234	2
168	174	1
222	245	2
47	61	1
229	232	1
109	149	1
45	78	4
110	181	1
101	101	2
1	9	1
213	217	2
118	120	1
158	175	1
81	81	2
242	244	1
65	92	2
82	82	1
3	19	1
21	26	1
22	41	1
49	49	1
56	62	1
154	161	1
187	189	4
47	86	2
199	200	1
216	236	3
189	190	1
243	245	2
40	44	1
62	78	1
11	12	1
90	92	1
38	78	1
174	196	1
89	89	1
38	39	1
23	41	1
186	193	2
215	239	1
15	16	1
120	144	1
75	86	1
35	37	1
195	195	1
205	206	1
187	240	1
117	119	1
34	48	1
155	157	1
155	161	1
29	40	1
40	42	1
145	182	1
37	38	1
89	91	1
203	204	1
180	200	1
63	64	1
41	42	1
201	232	1
