68	68	7
42	76	1
76	76	11
92	92	19
88	88	4
45	48	2
84	84	11
64	64	7
100	100	8
54	72	3
67	73	1
69	69	19
36	37	6
29	60	4
42	42	12
77	77	9
100	101	4
85	85	11
78	78	20
94	94	5
86	86	11
97	97	9
94	98	4
95	95	11
56	60	4
65	65	6
40	64	2
36	38	4
57	57	4
88	96	3
66	77	2
82	82	2
47	62	4
80	80	18
58	58	11
83	83	1
96	96	12
67	77	1
44	45	5
79	79	10
64	66	1
81	81	6
51	51	15
40	41	2
63	63	11
91	91	9
37	37	10
83	93	1
31	31	3
36	36	15
56	56	5
52	53	2
87	97	3
48	48	8
84	94	2
54	55	8
56	57	4
60	60	10
89	99	9
93	94	9
87	88	4
98	98	8
90	90	4
50	50	8
61	61	9
99	99	12
25	25	5
86	87	5
89	89	5
41	41	12
87	87	12
38	38	7
99	100	13
34	55	1
63	77	4
34	34	8
68	75	1
65	67	2
87	89	2
93	93	10
74	75	9
62	63	2
81	96	4
33	40	1
102	102	5
41	77	1
67	67	8
83	86	3
41	69	2
55	55	4
101	101	8
95	97	2
66	66	13
41	44	2
43	43	8
39	39	7
26	26	3
35	46	1
88	89	4
97	98	5
82	96	5
32	44	3
49	49	8
59	59	3
72	73	5
22	56	3
79	80	6
44	44	10
80	81	1
46	46	7
70	70	5
29	29	7
49	77	1
45	45	5
92	94	2
72	72	7
40	40	5
92	95	3
88	93	1
46	54	1
58	59	4
53	53	8
74	76	5
96	100	1
81	91	2
85	86	5
53	55	1
55	60	3
35	35	4
74	77	2
20	26	2
71	71	5
47	47	1
78	91	2
43	73	1
39	40	2
65	78	2
43	44	1
52	61	3
81	86	6
24	25	2
32	33	3
78	80	3
74	74	6
68	77	4
24	28	1
35	44	2
65	77	1
81	82	2
68	70	1
56	69	1
96	97	3
94	95	3
64	69	1
33	44	1
45	83	1
73	77	1
75	75	7
71	72	1
58	74	1
64	98	1
27	27	2
53	54	2
35	36	2
64	65	1
80	94	2
97	102	3
91	92	1
98	100	1
61	62	5
54	54	4
33	33	3
72	75	2
79	97	1
82	88	3
33	34	3
55	56	2
95	96	4
88	95	1
90	91	2
83	84	1
49	50	1
52	52	4
62	62	1
82	84	1
81	83	2
61	79	2
22	23	1
80	91	1
88	92	3
46	47	4
88	99	1
68	69	2
24	24	5
37	38	1
24	26	1
79	82	1
20	20	1
89	95	1
