59	94	3
113	113	9
9	9	27
32	33	11
173	174	8
23	25	10
27	28	11
23	23	12
38	57	5
14	32	2
39	39	24
28	33	8
65	65	3
2	45	13
14	16	3
147	147	12
30	31	5
41	41	29
121	121	13
59	61	4
129	129	11
134	137	3
14	14	21
0	0	3
4	5	8
138	138	19
148	148	16
89	89	7
17	17	15
25	25	16
171	172	8
10	19	6
96	120	7
143	144	4
51	51	16
87	87	8
16	52	2
42	43	7
31	33	1
120	121	8
4	4	21
38	38	40
170	170	19
42	42	23
10	10	12
39	41	6
11	11	30
115	116	4
95	96	2
20	21	8
91	91	8
109	110	7
93	93	13
18	19	11
45	45	31
95	95	11
178	178	7
50	51	3
171	171	11
81	81	8
103	103	5
28	28	21
25	26	10
152	153	5
100	101	4
149	149	20
172	172	17
101	101	5
22	22	15
96	96	16
154	154	10
139	139	9
179	179	5
34	34	9
131	131	5
24	28	5
158	158	15
98	98	6
15	15	37
86	98	2
77	77	11
127	158	1
18	18	27
21	21	17
32	32	30
116	116	9
53	53	15
37	37	14
21	31	2
160	162	5
130	140	4
80	81	7
151	153	3
67	67	8
143	143	13
8	9	20
111	116	5
138	139	7
105	107	2
24	24	22
144	144	9
85	85	6
59	142	4
31	31	20
16	17	8
60	60	15
8	8	8
30	30	27
73	73	9
139	141	5
23	33	8
13	14	8
45	46	4
132	132	7
161	161	9
170	180	1
16	22	6
102	102	7
81	82	7
26	27	5
20	32	1
76	77	1
85	87	1
22	23	3
135	135	6
114	114	14
131	139	1
137	138	3
107	110	5
164	164	12
126	126	5
99	99	3
35	35	18
164	165	4
165	165	6
23	40	1
62	62	13
168	169	4
9	11	5
68	68	8
124	124	5
101	102	6
145	145	10
152	152	9
14	15	2
56	57	11
151	151	6
156	156	16
141	141	7
63	63	15
2	2	10
3	3	21
44	46	3
133	133	14
109	109	8
84	84	7
27	30	2
15	16	19
107	109	4
65	67	2
173	173	13
180	180	6
150	151	4
38	40	6
36	36	21
64	64	8
14	18	2
170	172	5
114	115	6
2	10	8
106	106	8
33	34	7
27	29	2
85	96	1
81	90	4
56	56	15
24	26	4
142	142	8
136	137	5
19	19	18
38	42	1
20	40	1
5	6	7
105	105	5
163	163	9
65	66	1
129	163	4
128	129	9
24	33	7
79	79	10
66	66	6
4	11	2
122	122	12
57	87	5
17	21	4
111	111	7
6	6	35
93	104	4
157	159	1
20	20	9
90	90	14
26	26	11
54	54	8
91	103	4
133	135	7
55	57	9
43	43	18
21	22	5
113	130	1
16	18	5
166	167	8
7	7	36
17	41	1
16	16	16
41	42	8
92	93	5
44	44	6
27	27	20
168	176	3
5	5	27
116	118	4
117	117	10
157	157	8
106	108	2
174	175	4
79	80	2
19	20	8
12	13	6
6	7	8
120	125	1
27	32	3
1	1	13
137	165	2
9	41	4
102	103	8
144	151	4
59	60	5
1	2	6
76	76	9
107	107	9
61	64	3
12	12	11
118	118	3
145	146	1
94	94	7
122	139	3
150	150	5
49	50	6
128	128	4
75	75	10
86	100	1
79	90	1
21	39	5
13	13	23
83	85	5
7	10	3
158	159	4
83	83	8
75	76	6
133	161	3
14	40	1
153	154	2
110	116	3
83	94	2
12	14	1
146	146	10
87	88	2
129	143	1
72	72	12
134	134	7
123	123	10
127	147	3
141	145	3
49	51	2
176	176	13
9	43	4
31	32	9
167	171	2
59	59	4
6	8	2
169	169	4
129	130	2
178	179	5
157	158	9
38	39	5
155	172	3
129	151	2
140	140	9
91	92	4
135	165	2
10	11	7
155	160	5
122	123	1
71	71	8
140	141	4
100	100	5
24	32	5
118	124	3
174	174	2
131	140	4
177	178	7
141	150	2
61	61	5
28	30	1
46	46	4
40	40	17
129	153	2
99	100	1
33	33	8
150	167	2
29	31	1
86	87	3
127	127	6
54	55	4
11	13	1
57	93	2
110	110	7
66	67	5
128	150	3
53	54	5
3	30	2
40	41	8
108	108	3
111	115	3
107	116	4
85	86	1
9	10	5
136	136	4
139	147	2
154	155	4
125	125	3
52	53	3
172	173	7
22	42	2
83	84	4
167	167	12
1	11	1
21	44	4
159	160	2
35	44	3
159	159	8
90	91	2
127	128	2
155	155	2
50	50	5
73	74	9
127	149	3
5	22	6
25	33	2
7	11	9
11	29	1
74	77	4
165	166	4
136	149	2
104	105	3
78	78	5
130	130	6
115	151	3
159	162	2
155	170	4
42	63	1
95	115	6
128	146	3
169	180	1
115	115	1
167	170	2
169	171	2
24	27	4
78	79	8
84	85	2
137	137	3
168	168	10
147	148	1
11	12	3
43	44	5
166	166	7
103	104	2
110	111	2
82	84	2
133	134	7
2	8	1
99	101	3
27	156	2
119	119	1
0	3	2
138	147	2
112	112	8
163	164	3
85	104	1
24	25	8
18	22	3
70	71	7
74	78	4
148	149	2
39	40	8
56	124	2
0	12	3
162	162	3
2	30	1
125	139	1
97	98	3
140	142	6
67	68	1
114	131	2
40	42	1
170	171	2
37	59	2
41	74	2
32	52	3
140	153	4
156	157	1
28	45	5
131	142	1
126	158	1
175	180	2
127	150	8
3	4	7
162	163	1
37	54	4
63	67	1
39	44	2
82	88	3
139	140	5
60	61	7
82	83	6
151	169	2
100	102	3
44	45	4
58	59	5
57	57	6
160	160	3
64	108	1
178	180	5
132	136	5
144	145	4
134	135	2
165	167	2
17	45	1
155	159	2
119	120	2
144	146	1
40	65	2
161	164	3
5	7	2
59	107	2
126	142	1
8	12	1
135	138	3
3	45	2
26	28	2
58	64	1
17	18	3
35	42	2
88	89	4
176	177	1
86	108	3
71	72	1
28	29	3
175	175	3
96	97	2
158	165	3
55	55	6
108	111	6
16	21	1
129	167	3
154	169	1
2	4	1
29	29	12
51	64	2
175	176	6
26	30	1
104	104	2
36	37	2
13	15	2
6	24	1
91	118	1
162	167	2
34	44	3
88	94	1
11	42	2
155	156	1
153	153	2
5	29	3
148	150	3
118	119	6
112	117	3
158	173	1
34	35	2
92	92	3
23	24	4
132	133	2
106	107	7
97	101	4
37	60	2
50	62	3
80	87	2
122	125	1
5	8	1
151	152	4
80	80	1
123	124	2
67	73	3
4	9	6
53	58	1
61	62	1
101	117	1
39	73	2
135	136	1
17	32	1
113	115	3
36	49	1
112	113	5
24	40	2
5	11	2
98	113	2
85	95	2
14	24	1
117	118	4
164	166	2
26	33	2
149	150	3
16	28	5
89	90	1
72	73	1
140	151	1
12	15	1
42	73	1
20	23	1
12	20	1
88	88	1
166	168	3
111	122	2
130	163	1
57	58	1
80	90	1
82	91	1
2	9	1
146	162	2
37	38	5
19	37	1
5	10	1
140	152	2
52	52	2
99	109	1
51	52	1
74	74	2
41	65	1
83	86	1
20	45	1
6	9	1
38	43	1
105	106	1
21	43	2
11	23	1
14	17	1
121	122	1
88	90	3
25	27	3
37	39	1
55	165	1
112	126	1
15	117	1
74	76	1
82	82	4
97	97	2
157	174	2
80	86	2
63	64	1
92	94	1
142	145	1
6	16	1
117	119	2
28	32	1
108	109	1
103	105	1
86	86	1
6	31	1
23	29	1
50	52	1
41	63	1
35	41	1
111	112	2
15	120	1
32	43	1
161	162	1
13	37	1
153	161	1
42	45	1
55	56	1
16	31	1
142	143	1
167	169	1
