117	117	16
136	136	19
75	75	14
20	21	3
59	59	4
176	176	14
135	135	22
144	145	6
174	174	7
139	139	12
147	170	1
126	126	11
35	35	28
96	97	3
15	42	2
92	95	5
19	19	13
38	38	24
18	18	27
19	20	6
15	15	37
65	80	6
64	64	16
35	36	13
67	67	18
14	14	33
124	124	11
40	40	22
123	124	11
75	106	2
105	106	7
114	114	14
140	140	17
77	77	13
119	119	7
17	17	23
70	70	7
158	158	21
172	172	9
109	110	9
169	169	13
12	12	7
2	3	8
159	160	1
31	31	31
10	10	24
16	16	21
32	44	2
52	53	7
83	83	10
10	11	14
13	15	6
117	118	6
107	108	6
147	154	5
154	154	31
165	165	4
43	43	35
143	145	3
17	18	14
142	142	24
32	32	30
167	167	13
130	130	31
137	173	3
74	76	3
11	11	41
49	49	1
127	127	19
45	64	2
144	144	26
42	140	3
79	79	14
52	52	22
168	168	26
112	117	2
131	133	3
180	180	13
25	26	6
113	113	6
40	41	6
102	102	11
55	55	12
138	138	23
23	33	2
53	57	5
41	41	16
149	170	2
149	149	25
52	54	1
90	92	5
166	167	2
134	175	2
80	80	13
5	6	9
74	89	4
61	61	23
8	11	2
148	148	17
85	85	10
137	137	17
120	121	1
31	33	5
88	88	18
166	166	31
27	27	17
5	7	2
173	173	23
45	45	18
22	23	4
14	15	10
153	154	15
13	17	1
146	147	8
87	87	13
42	42	18
30	31	13
33	33	34
94	94	12
104	104	9
135	136	4
9	12	1
5	5	15
33	36	3
110	111	4
22	26	7
153	153	20
28	29	8
2	2	23
37	37	18
123	123	19
73	73	9
130	131	6
43	45	2
29	29	13
76	76	12
146	150	5
178	179	5
92	92	13
127	142	3
156	161	4
122	123	7
113	114	16
4	5	7
141	142	4
151	152	3
120	120	21
60	61	9
11	12	10
106	106	16
21	21	13
109	109	4
89	90	5
24	25	2
172	173	3
121	122	4
122	131	5
57	88	6
150	151	5
1	6	2
151	151	16
6	7	3
154	167	3
171	180	1
152	152	5
111	112	10
41	42	9
95	95	15
154	158	6
103	103	8
125	125	14
179	179	15
18	19	8
148	149	5
171	172	5
133	133	22
23	32	3
174	175	10
9	13	3
54	57	1
105	105	5
65	66	1
16	17	8
131	132	6
133	138	4
145	168	3
159	159	16
82	115	2
10	17	7
146	146	32
6	6	25
54	54	17
24	36	6
96	139	3
52	58	3
5	8	2
39	40	8
151	153	2
121	121	23
163	163	17
134	135	3
37	38	14
150	150	11
161	161	14
91	91	14
66	66	18
77	78	3
143	144	7
31	32	11
14	32	1
151	161	1
156	167	1
78	78	10
136	168	2
13	13	19
50	51	1
81	81	10
90	96	1
93	94	10
35	64	1
44	45	8
29	30	5
65	65	6
93	93	21
34	34	9
1	1	12
103	108	4
82	97	2
17	42	3
99	99	6
132	133	2
16	18	3
163	165	1
39	39	12
5	10	7
23	23	12
163	164	5
171	171	13
2	5	4
30	30	25
160	161	3
156	166	6
129	129	5
134	134	9
122	122	13
71	73	3
73	102	5
27	28	1
141	141	14
58	58	11
1	2	11
152	167	3
140	141	4
113	118	2
74	75	5
177	177	6
7	11	2
116	117	6
137	138	7
163	171	6
170	180	5
67	68	5
145	145	8
91	95	4
119	144	3
26	27	4
155	167	5
72	72	5
156	156	4
72	102	3
92	97	1
0	14	4
136	137	3
85	86	1
9	11	8
25	45	1
15	38	1
10	18	2
5	9	3
32	33	14
142	143	11
89	89	24
90	91	9
146	168	4
26	26	5
153	168	3
74	88	4
132	132	8
34	89	2
86	86	7
42	43	1
78	89	1
115	132	1
95	131	5
13	33	5
15	16	3
3	9	5
50	64	2
65	67	9
101	101	8
1	18	2
78	79	7
24	24	30
0	24	2
83	86	3
16	19	3
118	158	2
107	109	1
9	9	16
2	8	5
57	58	1
112	112	13
7	8	8
3	4	4
60	60	6
156	169	2
170	171	6
53	53	14
107	107	19
115	115	8
16	20	7
91	92	8
74	74	9
7	7	14
104	105	5
131	131	12
51	51	6
173	174	7
50	50	8
108	108	19
151	154	1
130	133	2
160	165	1
56	56	10
95	138	2
26	28	4
147	147	20
163	166	4
157	158	7
74	123	4
92	140	3
35	65	3
164	166	4
142	145	6
28	28	10
164	164	8
112	113	1
126	127	3
4	6	4
16	39	1
156	157	1
38	39	1
134	137	3
0	0	18
61	62	2
102	114	2
123	125	2
90	90	14
133	134	11
23	24	9
2	22	2
36	36	13
178	178	20
162	163	3
128	128	13
34	39	1
104	106	5
14	22	2
155	155	7
155	156	10
64	65	4
7	9	3
162	162	12
121	134	2
100	100	1
21	23	5
100	101	4
169	170	2
52	64	3
145	153	1
168	169	6
83	84	5
76	112	2
155	158	3
24	26	4
14	21	2
54	55	5
118	119	5
113	117	3
161	164	2
177	178	1
158	160	3
2	4	1
7	10	2
136	146	2
22	22	20
146	151	8
6	10	1
118	118	13
138	139	2
21	65	1
144	146	4
57	57	12
148	167	2
122	149	2
153	167	3
116	116	11
91	93	4
103	111	1
8	8	16
65	68	2
62	63	4
73	74	3
71	71	15
152	160	5
84	84	4
96	96	11
24	29	1
92	128	1
165	167	1
136	145	2
87	89	2
158	159	13
53	58	1
170	170	6
58	59	3
4	4	14
66	67	2
135	137	1
160	169	1
115	116	7
92	94	1
138	172	3
146	167	4
38	42	1
45	46	4
12	13	11
80	81	5
58	61	4
117	127	2
77	80	2
1	3	3
161	162	12
137	147	2
44	44	15
114	115	3
57	89	2
124	125	4
20	20	3
29	31	6
159	163	3
127	160	4
111	111	14
98	100	4
80	122	1
127	128	8
21	22	9
52	59	1
43	44	4
12	33	1
114	124	7
157	157	7
155	170	2
36	55	1
126	128	1
54	56	6
97	98	3
8	9	3
24	27	5
179	180	5
86	87	4
115	126	3
2	45	3
99	100	1
137	139	4
147	150	1
82	85	2
13	18	2
134	136	3
81	82	3
61	63	2
70	71	5
115	129	2
58	60	3
174	177	2
36	38	4
156	158	1
14	16	2
1	5	3
122	166	3
63	63	3
142	144	1
28	39	3
119	158	2
35	42	7
101	102	1
3	3	11
129	134	2
127	132	3
68	68	10
160	160	4
153	170	1
157	163	2
149	150	1
22	42	1
145	146	2
14	17	2
171	179	2
97	97	5
124	131	1
156	165	1
119	131	1
34	35	1
55	56	7
167	168	6
74	80	1
17	21	1
143	143	6
25	25	6
76	77	2
64	138	3
50	65	2
15	39	1
83	168	3
135	175	2
88	90	3
53	54	5
9	10	5
119	130	2
149	167	3
22	31	2
156	171	2
112	114	3
88	89	2
106	107	6
13	14	3
110	110	6
33	34	2
91	94	2
37	39	1
75	102	1
139	140	4
131	143	2
106	119	3
35	39	1
85	87	1
82	82	5
30	64	3
32	73	2
75	108	1
125	131	1
170	172	1
146	148	1
105	107	2
79	80	4
154	157	1
12	21	1
175	175	2
123	146	1
36	37	5
150	168	4
154	155	4
3	5	3
11	13	2
160	162	8
125	141	1
140	147	3
22	67	1
147	167	1
56	57	2
57	59	5
5	11	2
138	140	1
43	64	2
64	106	1
76	80	2
75	95	2
27	32	1
151	166	2
77	92	2
147	148	1
126	157	1
106	118	5
132	134	4
176	177	3
89	93	2
158	168	3
114	126	1
116	118	2
128	129	5
21	24	1
6	13	2
27	31	4
153	169	2
103	132	2
144	153	1
111	125	2
120	145	2
74	77	1
12	34	2
129	132	2
40	42	1
29	51	2
52	63	2
147	168	1
98	98	3
90	94	3
63	64	4
125	126	3
3	19	3
103	104	2
3	18	2
17	68	1
13	43	1
115	128	2
36	44	2
52	68	1
76	111	1
39	172	1
0	10	1
22	32	1
140	142	2
18	21	1
20	22	2
94	95	2
71	72	2
39	41	2
152	154	5
80	98	1
46	46	1
55	65	1
136	140	1
118	126	1
19	21	2
22	66	2
159	167	1
5	13	1
124	148	1
6	14	1
0	1	2
102	106	2
28	32	1
31	125	1
78	80	2
76	108	2
108	109	4
157	160	1
32	40	1
153	159	2
129	130	1
138	143	1
157	159	1
11	16	1
28	30	2
132	141	1
2	10	1
24	28	1
89	121	1
96	112	1
74	93	1
155	157	1
96	98	1
125	160	1
70	72	1
135	173	1
15	18	1
138	171	1
16	21	3
127	143	1
7	14	1
17	43	1
171	177	3
15	17	1
51	53	2
45	63	1
118	121	1
39	43	2
92	124	1
75	77	2
21	35	1
51	146	2
82	86	1
107	111	1
55	60	1
143	168	1
143	146	1
172	174	1
90	93	1
95	96	2
93	115	1
115	143	1
49	52	1
105	108	1
102	107	1
159	161	1
5	21	1
58	82	1
3	44	1
8	22	1
152	153	1
6	9	1
118	129	1
75	76	1
135	179	1
25	27	1
81	84	1
118	125	2
127	135	1
151	160	1
6	11	1
41	43	1
29	50	1
