52	52	5
56	63	4
18	44	3
110	110	19
62	106	7
108	109	3
1	13	6
39	40	2
130	130	6
103	103	5
118	118	9
50	50	5
106	106	4
75	76	1
110	112	3
95	95	9
31	31	10
78	78	8
93	93	4
80	81	6
66	73	2
61	74	1
99	99	9
80	80	13
89	89	3
100	101	4
41	41	3
125	125	6
99	107	3
48	48	8
107	129	4
104	105	2
90	91	3
57	120	3
68	68	3
86	86	5
25	25	4
121	121	13
57	57	10
94	120	3
100	104	2
117	131	1
69	69	5
72	77	3
67	67	4
114	118	3
48	79	1
11	13	4
12	81	1
39	41	2
65	66	3
56	56	6
71	71	9
117	117	6
92	93	3
104	104	8
120	120	5
42	42	2
118	119	3
91	92	3
39	39	6
99	118	3
29	30	1
20	25	1
19	32	4
124	127	2
97	103	6
131	132	2
90	90	4
85	85	7
26	26	3
119	126	2
51	81	2
9	32	2
48	54	1
27	27	5
24	24	2
93	130	1
27	54	2
25	26	1
19	20	2
122	122	3
104	106	1
45	46	1
58	59	5
114	116	1
108	108	3
115	115	1
34	34	4
55	64	1
111	113	4
42	45	2
5	15	2
14	16	2
102	102	7
46	46	2
124	124	5
75	75	3
20	32	2
49	49	5
44	45	3
101	101	3
7	7	2
113	113	6
76	76	3
70	70	2
51	51	2
93	127	2
85	86	2
53	53	9
59	61	2
23	24	3
94	101	1
43	43	4
54	54	6
6	7	5
72	72	2
110	113	6
22	38	3
100	126	1
107	108	1
99	101	1
98	101	1
32	32	5
106	131	3
81	81	3
70	71	2
14	76	2
87	88	5
70	90	1
54	79	2
131	131	2
3	57	3
2	5	4
94	94	2
109	109	3
76	77	2
84	84	1
16	25	3
89	129	1
82	82	5
32	33	1
13	13	11
119	120	2
111	111	3
2	51	1
16	44	2
102	103	2
3	3	2
30	30	5
98	98	3
13	14	1
55	87	4
47	48	2
84	85	3
12	48	2
45	55	1
127	128	1
48	53	1
24	28	2
107	132	1
83	84	5
96	127	2
16	17	2
45	45	2
77	77	5
18	18	3
61	61	2
55	111	2
33	39	1
5	38	2
88	89	5
2	2	6
31	32	1
110	111	2
116	116	3
47	47	7
14	14	1
15	15	3
33	33	2
5	5	2
51	52	1
71	72	2
63	63	2
123	123	4
128	128	4
55	75	1
99	100	3
38	56	1
46	52	2
52	53	2
45	90	1
12	12	1
5	40	1
127	127	1
6	8	1
107	114	1
8	8	1
40	40	1
0	2	1
10	10	1
101	103	2
59	59	1
29	29	2
56	64	1
0	1	3
126	126	1
92	94	2
63	65	1
109	131	2
7	50	1
105	106	1
15	33	1
100	112	1
43	70	1
96	96	3
7	9	3
111	117	2
27	28	1
92	92	9
66	66	1
67	78	1
22	30	4
17	17	1
13	48	1
88	88	1
4	4	2
17	21	1
17	22	2
9	9	1
65	65	1
126	127	1
97	127	1
54	67	1
11	22	1
38	85	1
39	74	1
97	119	1
5	9	1
89	95	1
120	121	1
6	6	2
86	88	1
79	80	1
89	90	1
48	52	1
62	91	1
129	129	1
86	87	1
118	123	1
133	133	1
82	83	1
105	105	1
28	28	2
11	81	1
128	130	1
107	107	1
