132	139	6
13	13	9
155	158	4
33	33	13
1	2	9
142	142	19
92	92	9
55	55	13
55	66	1
13	14	4
17	17	25
12	14	4
25	31	5
9	9	8
15	15	3
131	131	6
8	8	4
145	145	13
117	117	15
135	137	8
146	147	6
125	126	3
101	101	12
140	140	9
96	98	14
125	125	9
144	144	4
31	68	4
96	97	2
48	48	15
95	96	7
56	56	5
139	140	3
72	72	7
23	116	2
119	141	10
122	125	3
29	29	9
109	116	2
93	93	8
142	143	6
28	31	2
117	118	4
36	36	4
107	127	2
11	11	16
88	88	8
22	22	7
35	35	16
154	157	2
119	124	4
124	126	4
82	84	4
67	67	12
90	91	4
69	69	3
137	147	2
107	110	4
6	6	17
89	91	1
106	106	7
109	110	1
78	78	7
136	136	10
51	55	4
52	70	3
68	68	8
36	37	1
32	32	20
77	79	6
140	144	1
38	38	3
137	138	6
7	7	4
98	98	11
107	107	8
129	129	10
72	73	7
45	45	16
116	117	4
63	63	2
123	124	8
98	99	2
152	155	4
126	149	3
29	49	1
52	52	5
47	47	9
26	112	2
132	133	2
31	32	7
90	92	3
105	130	3
113	113	4
154	156	4
116	116	4
151	151	5
109	113	2
53	70	1
34	34	2
53	54	3
115	116	8
99	99	8
1	1	7
10	11	2
25	27	1
44	46	1
25	48	4
37	37	8
9	10	5
22	23	2
64	65	2
15	16	7
50	50	13
87	105	6
4	49	3
138	139	4
104	104	7
148	148	6
115	151	1
22	42	1
89	89	11
107	108	3
123	123	2
120	122	2
82	83	6
51	52	2
114	115	2
27	28	3
105	106	5
87	87	8
46	46	9
84	84	5
153	153	8
135	139	1
134	134	13
139	139	10
108	109	10
141	141	10
82	82	5
73	73	6
93	94	2
117	148	2
26	49	3
66	66	3
108	108	7
127	127	2
36	39	2
108	112	4
143	148	4
148	150	5
78	104	3
104	105	1
23	23	14
88	90	1
86	86	13
152	152	5
21	23	2
71	71	9
40	41	5
146	146	12
119	119	4
39	104	2
90	90	9
115	128	1
26	100	6
111	112	1
0	0	11
128	128	10
32	33	5
91	91	6
77	82	1
93	123	3
152	153	5
126	127	6
112	113	3
119	129	2
94	94	5
65	65	4
85	85	8
4	21	2
105	123	1
153	157	3
109	109	1
156	156	10
126	126	5
85	86	3
95	95	2
126	153	1
23	24	5
94	99	2
65	66	6
26	28	5
71	90	4
131	147	2
19	19	2
150	155	4
23	26	2
108	111	4
2	2	9
114	129	2
31	34	2
31	67	1
81	82	1
111	111	7
44	44	11
79	79	5
96	96	3
80	80	17
83	86	1
26	27	7
82	89	2
64	68	2
145	149	1
111	115	4
41	41	7
137	137	12
30	34	4
96	109	1
70	70	6
12	41	1
42	42	9
120	148	1
43	43	5
74	74	4
81	105	1
123	149	3
3	4	11
142	144	1
122	126	4
112	142	2
122	145	4
28	30	2
39	39	1
14	15	2
4	4	5
115	115	3
18	18	4
140	141	2
130	130	6
119	144	3
36	105	4
99	100	4
122	122	6
129	130	3
46	91	1
54	61	3
132	134	2
138	138	9
47	50	6
155	157	2
30	33	1
7	11	1
54	54	8
82	85	4
15	151	3
95	109	1
121	122	5
78	79	2
93	97	2
82	88	1
81	81	6
120	128	1
105	105	8
30	30	6
24	24	5
26	73	5
80	92	3
103	104	2
144	147	1
28	28	2
106	107	1
64	64	1
66	73	1
69	71	1
50	55	4
20	20	8
135	135	3
100	101	4
27	27	6
54	55	1
123	125	2
80	81	2
40	40	5
18	19	5
45	50	1
106	116	2
43	48	1
29	34	1
114	114	3
22	118	5
84	85	3
157	157	6
130	132	1
39	67	6
124	125	1
110	110	2
8	9	2
124	124	3
148	149	7
89	90	3
100	100	9
25	25	6
159	159	2
83	83	1
107	117	2
90	106	2
128	152	4
62	62	2
80	85	3
135	141	4
71	79	2
48	49	5
143	150	2
81	88	2
105	129	3
145	147	1
93	95	6
39	40	3
14	14	6
118	118	3
133	135	4
16	20	2
11	12	6
51	53	2
30	31	1
154	155	4
51	51	3
133	151	1
82	104	3
101	102	1
130	131	1
21	21	5
48	51	1
86	95	1
68	71	4
83	84	7
155	155	4
122	133	2
84	94	2
112	137	1
122	144	1
10	10	2
45	47	2
121	124	2
136	144	1
134	144	1
107	141	1
88	89	1
49	49	3
67	68	3
137	142	2
70	71	2
139	156	4
49	54	2
75	75	3
93	110	1
102	102	2
132	156	3
109	117	4
137	145	2
155	156	2
92	101	3
78	92	1
0	2	3
147	147	7
33	34	2
133	133	5
7	42	2
38	104	1
119	121	1
150	154	1
39	47	1
8	15	1
97	98	2
90	113	1
121	121	4
46	78	2
12	13	1
97	97	4
63	67	2
26	26	6
145	146	2
123	134	1
24	25	2
16	18	1
23	55	1
12	40	3
92	94	2
34	40	3
16	16	3
87	90	3
32	70	1
92	93	3
4	56	1
98	108	1
11	13	1
8	22	2
103	108	2
119	145	1
5	5	5
52	71	1
2	6	1
6	8	1
121	135	1
103	103	2
154	154	3
41	42	1
34	37	1
48	57	1
145	150	1
119	125	2
120	120	6
101	115	2
38	54	1
110	115	1
68	69	1
56	69	2
7	12	3
131	132	2
79	83	1
50	52	3
79	82	1
107	111	2
16	17	2
92	95	2
77	80	1
158	159	1
8	10	1
22	45	1
51	54	1
91	92	1
108	127	2
84	86	1
119	151	1
157	158	1
47	52	1
3	55	1
45	48	2
117	119	1
57	57	1
137	146	1
51	56	1
34	35	1
23	30	1
135	136	2
124	146	2
31	31	1
77	78	1
35	46	1
147	152	2
24	102	1
38	72	1
41	43	3
132	132	2
138	140	2
50	67	1
94	95	1
25	102	1
45	46	4
123	140	1
43	136	1
112	112	1
90	93	1
110	117	1
79	80	1
122	146	1
153	155	1
33	119	1
18	20	1
110	111	1
123	147	1
110	112	1
96	125	1
120	125	1
50	51	1
80	97	1
78	91	1
141	142	1
109	111	1
