0	1	32
105	107	9
161	161	23
111	112	25
76	81	3
153	154	25
77	79	5
90	90	52
80	80	60
8	11	3
19	19	70
42	42	90
124	124	44
17	18	19
11	11	77
108	108	86
16	50	4
34	158	3
23	23	54
65	65	36
101	101	60
12	12	52
64	64	55
119	119	38
49	49	72
2	2	87
36	36	87
76	76	49
131	132	3
69	69	70
5	12	1
150	150	54
121	121	30
158	158	43
127	127	33
85	85	54
83	83	66
36	37	24
14	14	67
97	98	33
77	80	8
88	89	24
166	166	37
170	170	22
72	74	14
126	126	52
3	34	6
52	52	69
75	76	8
44	116	1
116	116	80
149	150	8
96	97	12
0	0	46
72	72	64
115	115	57
96	96	29
40	40	45
156	156	22
78	84	2
68	100	2
40	41	13
4	4	65
92	153	7
138	138	42
51	73	3
16	17	19
94	94	42
26	26	53
144	144	47
88	88	41
156	157	23
18	40	5
141	141	29
147	147	50
165	169	4
22	22	54
18	18	58
117	125	3
142	142	41
169	169	60
6	52	1
133	134	5
15	44	2
41	41	31
53	53	69
102	102	78
21	22	19
4	20	2
164	165	25
77	77	50
7	8	22
56	56	72
39	40	39
54	55	15
141	142	9
55	106	1
164	164	42
134	135	17
113	113	57
47	100	4
76	77	47
20	37	2
128	144	3
17	17	77
81	81	73
50	50	46
3	4	13
37	37	87
2	41	1
135	135	44
91	92	18
93	93	37
128	128	57
140	141	17
43	43	59
15	25	5
99	99	52
111	116	1
71	71	72
112	139	1
95	96	11
124	125	17
150	151	11
92	94	8
118	130	1
102	103	35
78	78	38
147	148	21
134	134	32
1	1	68
26	27	18
118	118	39
159	159	38
39	41	5
21	23	8
82	82	65
39	39	48
163	164	19
63	63	62
28	28	39
57	57	35
139	140	15
84	96	3
51	51	50
80	81	5
145	145	56
49	51	11
130	130	54
8	91	2
106	110	3
143	144	14
38	40	20
95	116	2
92	95	8
103	111	3
97	123	3
120	131	2
8	40	1
95	95	34
148	148	32
119	120	14
7	17	2
73	73	60
53	54	39
118	131	5
27	163	3
15	17	11
99	100	17
3	25	7
139	139	29
14	15	44
0	2	5
98	98	58
84	84	51
4	147	1
10	48	3
40	70	4
6	9	6
25	25	85
103	103	55
5	131	3
120	121	17
56	57	26
127	140	3
145	146	9
46	47	10
66	70	3
34	34	63
105	105	40
133	133	38
65	80	3
21	24	5
105	106	32
1	2	26
75	75	63
4	135	3
97	99	26
92	92	51
111	111	64
11	12	33
9	9	86
3	5	5
98	123	2
109	110	19
92	132	7
107	108	14
100	100	31
157	157	36
68	68	26
99	115	6
48	107	1
35	35	81
21	21	42
119	122	7
17	20	2
24	25	20
42	52	4
33	33	37
25	69	2
99	108	2
120	120	35
75	80	4
112	113	15
25	47	1
13	13	53
94	105	3
20	21	17
79	79	39
12	26	1
44	44	51
157	158	9
97	97	61
89	89	47
35	130	4
151	151	26
106	106	75
27	27	48
110	110	65
88	97	5
47	48	28
3	3	60
167	167	29
18	139	1
99	163	10
103	144	3
80	83	4
2	3	7
155	155	38
53	55	8
45	52	3
138	145	2
95	112	2
37	38	16
82	118	4
49	50	14
110	111	11
65	78	2
5	5	47
6	6	87
7	7	70
72	73	19
117	117	46
112	112	69
54	54	53
43	44	14
119	121	7
154	154	63
51	155	1
104	147	2
76	85	1
155	157	13
160	160	39
24	51	8
136	136	48
123	123	46
44	45	18
66	66	35
94	103	2
55	55	76
71	74	2
46	46	50
113	114	8
24	24	50
122	130	3
160	161	8
110	137	6
162	163	10
16	16	54
106	107	22
100	114	2
104	104	43
74	74	61
11	137	2
83	85	4
102	105	5
117	118	8
96	116	6
163	163	28
92	93	37
116	146	1
167	168	11
162	165	3
48	49	18
141	144	1
38	38	42
74	75	16
140	140	55
55	56	13
16	75	5
130	157	4
129	129	29
20	54	2
52	53	9
122	147	4
8	8	49
48	143	6
74	80	2
125	127	9
124	149	5
70	70	44
101	166	2
109	111	4
57	62	15
72	83	1
107	107	57
58	58	20
18	19	18
158	159	16
86	87	42
53	64	1
54	100	2
120	151	5
50	69	9
139	144	7
0	84	2
68	69	13
18	98	1
155	159	9
132	132	43
66	67	13
115	117	7
109	109	73
80	105	2
116	117	12
168	170	6
114	114	59
25	166	4
51	98	4
4	142	1
19	124	2
24	46	4
54	56	9
101	111	3
83	148	2
88	91	3
119	125	3
93	95	14
58	63	3
110	130	1
24	81	6
149	149	40
38	39	14
146	147	11
88	90	11
64	65	13
84	91	5
71	73	2
149	158	2
77	78	32
67	67	42
163	165	13
126	127	16
65	68	6
152	152	30
134	137	8
50	51	24
84	88	5
24	112	3
113	115	4
112	114	15
22	23	22
66	68	7
95	114	3
114	116	13
45	45	76
9	12	6
122	122	36
109	167	2
151	156	2
62	63	22
8	12	9
47	47	52
91	93	10
70	83	3
165	166	18
0	3	7
3	166	9
142	143	17
103	104	19
99	105	10
139	141	11
122	166	7
25	28	9
53	143	2
23	115	3
123	147	4
63	85	5
123	130	5
165	165	32
129	144	3
101	104	6
34	35	22
87	87	58
74	84	5
35	37	6
117	144	5
48	48	40
105	113	2
130	131	17
110	115	4
120	153	5
52	54	6
123	125	16
12	13	8
1	4	1
18	22	4
108	111	2
62	62	31
95	126	2
94	109	11
44	46	13
35	54	3
121	146	3
46	48	3
123	124	14
20	20	53
135	138	1
131	131	27
4	5	18
46	51	1
83	84	12
110	166	2
86	86	53
25	26	4
15	15	58
20	22	26
132	137	3
54	106	7
70	71	13
33	34	8
168	168	26
126	130	1
21	57	4
9	10	14
150	159	4
133	136	2
75	109	1
79	87	5
135	150	2
46	73	5
161	162	8
143	143	40
44	95	2
48	62	1
40	51	11
63	70	1
153	153	42
144	145	15
69	70	23
111	113	1
13	17	4
100	103	6
82	89	2
64	66	6
27	40	7
118	119	2
135	136	14
19	56	4
113	128	3
10	10	48
76	78	21
125	125	49
39	52	1
121	130	5
57	167	7
8	41	5
47	63	1
74	168	2
45	49	4
41	52	1
120	127	5
104	107	6
162	164	7
81	82	26
41	50	6
37	42	7
69	141	5
123	162	3
159	160	5
8	9	17
132	149	1
35	36	25
108	167	3
16	20	2
2	35	3
67	145	2
122	127	4
10	11	6
86	89	3
0	20	5
11	27	2
64	68	4
121	122	20
93	116	2
49	52	9
16	138	2
68	70	2
80	86	2
27	28	14
11	17	4
159	162	2
45	47	6
133	135	8
144	155	2
47	56	2
3	164	2
88	117	1
106	145	3
133	137	5
12	17	1
20	23	6
159	161	6
148	152	2
108	149	7
4	26	5
57	58	11
19	39	2
15	16	5
57	64	4
93	94	5
4	132	3
78	79	15
73	166	4
19	20	13
162	162	13
115	116	28
1	5	4
121	124	9
89	90	11
28	137	4
21	155	1
45	46	16
128	130	1
5	6	4
22	97	7
17	45	4
23	25	6
33	35	4
104	105	12
52	57	2
6	104	3
106	127	4
112	138	2
98	115	11
121	125	6
70	78	4
26	28	7
112	136	2
26	106	2
38	44	2
125	126	12
39	44	4
91	91	38
138	146	5
108	109	20
65	66	15
21	97	7
154	155	8
67	86	1
6	82	2
103	105	14
100	105	7
86	119	3
130	141	3
47	81	1
1	56	2
51	52	3
48	50	4
117	119	3
167	169	5
65	167	3
80	102	2
3	46	2
120	123	4
74	155	2
64	114	2
41	51	2
147	166	2
51	62	4
127	128	7
72	91	3
94	95	17
41	42	5
125	132	2
79	80	20
21	44	1
67	107	2
101	102	15
117	154	2
96	98	5
85	121	6
146	146	41
47	49	5
88	98	3
78	80	16
122	123	10
62	85	2
102	104	3
62	66	1
72	86	4
86	118	3
52	97	3
150	160	1
76	82	1
16	25	5
166	168	3
93	123	2
23	24	12
3	11	5
6	67	4
28	160	1
100	104	1
84	110	6
102	107	1
26	113	3
76	95	2
128	129	10
6	7	34
16	150	1
99	117	3
22	118	9
12	40	5
84	85	18
17	19	5
132	138	4
50	163	6
90	101	2
121	147	3
14	24	2
44	57	1
90	91	18
142	147	9
4	11	1
130	133	1
144	146	9
5	16	2
148	167	7
14	45	3
98	99	21
105	108	2
20	50	1
75	116	3
76	80	9
10	12	2
28	34	1
13	20	4
69	78	2
122	131	3
96	113	1
6	133	3
111	146	3
34	37	3
45	57	2
77	81	3
77	92	4
134	136	4
62	72	6
81	164	4
91	123	3
7	16	4
8	39	2
152	153	12
159	165	1
127	159	4
63	79	1
101	103	19
137	137	37
26	39	1
63	77	4
140	146	3
84	87	6
105	167	3
8	10	11
64	69	4
1	49	2
114	142	6
135	137	4
114	128	2
1	146	2
74	89	2
4	6	6
11	16	2
2	42	1
67	77	1
4	133	1
26	141	6
112	157	2
16	23	3
16	53	3
138	149	4
13	14	30
22	160	4
92	106	4
81	83	4
54	128	4
111	127	4
136	142	3
119	155	1
132	136	2
63	111	3
25	110	3
85	86	8
139	145	1
54	68	1
144	148	3
54	92	4
117	130	8
155	156	21
21	118	6
52	101	1
113	132	1
132	134	2
4	56	2
149	169	2
115	125	2
67	71	5
93	133	1
80	113	3
163	166	2
110	143	2
162	168	7
73	79	1
108	116	2
119	139	1
130	146	5
89	165	1
148	149	9
79	86	1
144	149	3
20	24	11
118	124	2
57	63	14
132	133	4
19	24	2
75	86	3
0	11	1
18	137	1
2	7	7
91	107	4
101	124	1
18	26	2
111	128	2
128	148	1
73	89	4
2	108	2
48	56	2
14	110	2
45	51	3
82	90	3
13	15	9
122	132	4
151	154	2
116	154	15
58	79	1
158	167	6
10	44	2
131	147	2
15	38	2
88	112	2
94	97	4
96	102	3
6	8	4
72	85	1
139	143	12
85	89	7
37	46	6
138	139	9
76	79	4
108	158	3
81	107	2
52	89	2
25	76	2
152	157	3
100	101	18
18	118	2
69	81	4
61	62	2
7	53	3
20	85	1
26	37	1
83	92	6
52	76	4
155	158	1
70	73	5
58	62	8
71	72	7
12	48	2
99	101	4
151	153	7
15	37	4
112	162	4
14	23	1
99	156	2
10	21	2
100	106	2
20	40	2
85	110	2
1	7	2
63	64	5
96	117	4
86	88	3
122	157	2
72	111	1
40	165	3
9	160	4
82	86	4
25	37	2
111	149	3
70	118	3
92	98	1
83	90	2
94	96	3
89	103	1
77	86	2
15	150	1
81	113	2
34	42	2
72	106	1
78	92	2
161	164	3
14	52	2
109	130	2
81	136	6
145	147	1
17	113	2
88	114	1
73	94	3
90	146	1
116	159	5
21	46	2
23	84	5
118	120	4
23	46	4
25	79	2
79	117	1
160	165	5
71	81	1
117	120	4
84	92	4
2	45	2
49	87	2
1	3	2
19	23	6
118	122	1
159	166	1
155	160	4
7	52	3
36	158	2
136	137	8
1	19	2
84	104	2
46	50	9
90	145	4
147	169	3
153	159	7
156	163	3
116	150	5
159	163	1
119	145	4
67	69	4
90	96	2
84	100	3
56	150	3
160	163	3
7	103	5
85	90	2
81	90	1
58	87	1
109	156	4
5	7	4
113	116	3
100	165	1
123	126	1
140	145	4
122	124	1
93	124	1
137	138	7
111	165	1
129	131	4
106	147	2
8	17	1
14	17	3
98	104	4
99	102	1
148	151	5
3	43	2
0	7	2
82	83	5
85	87	5
70	72	5
113	148	2
135	139	3
147	155	1
114	117	4
93	99	2
91	124	2
43	52	2
25	39	5
148	168	1
75	151	3
112	145	4
56	68	1
169	170	3
19	55	1
38	106	1
149	157	2
80	82	5
46	62	3
5	100	1
129	154	2
82	151	1
17	24	2
82	117	4
90	123	1
127	130	2
19	49	3
82	84	5
9	67	2
76	83	1
156	162	3
3	53	2
10	39	2
7	156	1
71	91	3
23	62	1
4	42	1
90	148	1
103	145	2
2	36	5
87	89	7
22	47	4
48	74	4
57	80	1
104	117	1
82	93	1
70	140	1
79	82	3
27	75	1
5	8	4
126	144	2
113	144	2
7	45	1
36	38	4
90	103	1
47	73	1
166	170	1
65	67	7
79	81	6
69	77	2
87	88	6
120	129	2
13	52	1
79	102	1
72	94	3
114	121	4
80	116	1
75	152	5
56	117	2
12	168	4
112	128	2
107	114	1
97	105	2
100	139	2
45	80	1
112	135	1
25	113	4
25	46	2
74	87	1
78	102	1
26	42	1
81	149	3
136	160	1
4	45	2
9	15	3
151	158	1
8	66	7
83	87	1
129	130	5
73	74	6
61	63	2
27	44	2
71	84	3
77	84	2
150	153	1
78	104	2
114	115	13
65	140	6
161	169	3
25	139	1
10	46	1
102	117	2
63	170	4
74	76	7
41	167	4
87	120	3
64	129	4
23	118	2
55	58	2
143	151	3
77	91	1
117	122	2
14	39	2
24	101	5
122	161	1
73	86	1
13	126	1
22	130	1
51	70	2
35	46	1
7	11	2
67	68	4
63	72	3
129	165	1
109	150	1
123	157	2
15	19	2
107	133	2
120	167	2
21	63	2
67	73	1
142	156	1
128	158	3
52	56	2
10	28	1
40	168	5
139	150	2
94	114	1
24	53	1
66	159	1
7	10	5
102	106	4
73	84	1
128	159	2
97	170	1
63	66	3
0	4	1
48	55	4
121	137	2
55	142	3
107	111	3
111	114	4
15	18	5
139	142	2
130	143	1
79	154	2
97	113	2
63	65	5
98	100	5
2	54	2
105	114	3
97	103	1
125	141	1
137	139	4
121	123	1
76	84	1
9	16	1
53	56	4
19	158	1
85	114	2
12	23	1
43	83	5
69	71	7
49	100	2
102	166	4
11	42	2
97	102	2
70	97	1
41	48	1
22	24	2
88	93	1
56	98	2
91	96	8
121	148	4
100	115	2
37	41	2
21	26	1
161	165	1
0	18	3
142	144	5
93	108	1
21	62	1
65	79	1
142	148	1
12	75	1
41	111	2
134	161	5
1	8	1
75	95	1
49	108	1
55	111	4
86	111	4
113	123	2
38	41	3
87	127	1
11	13	4
24	48	1
4	107	1
80	144	1
85	92	1
112	129	1
100	121	3
139	151	1
116	118	2
73	106	1
1	89	2
125	131	1
17	27	1
150	155	1
6	22	1
44	51	3
26	44	1
15	23	3
1	13	3
6	75	1
91	94	3
162	169	3
64	84	2
12	45	2
92	159	3
92	111	2
147	154	1
100	113	1
119	123	5
62	77	2
50	52	2
137	151	1
5	120	1
35	115	1
10	154	1
65	137	1
132	143	1
34	38	1
47	52	3
161	167	3
130	155	1
18	20	4
40	86	1
149	159	1
123	127	2
98	103	2
39	58	2
3	24	1
120	143	1
21	41	1
35	89	2
87	97	2
4	10	1
116	142	1
41	46	1
126	168	2
6	19	1
147	167	2
25	117	1
156	158	2
64	89	2
66	86	3
101	126	2
94	115	4
37	52	2
51	58	3
12	153	1
144	151	2
62	81	2
73	101	4
99	161	2
26	133	6
106	149	1
153	167	1
100	117	1
80	91	2
12	34	1
22	166	1
13	58	2
28	51	2
33	42	3
143	163	2
125	133	2
21	135	1
82	149	1
18	23	3
26	149	1
138	144	1
96	115	2
120	133	1
120	122	2
10	155	1
89	95	2
25	82	2
13	23	1
5	39	2
0	55	1
51	63	3
27	132	1
62	114	1
101	106	1
17	43	1
106	108	1
34	47	3
83	110	2
5	18	1
62	119	2
25	53	1
18	97	1
114	131	2
39	47	3
25	27	2
5	42	1
70	99	1
51	66	2
70	86	1
130	132	7
14	63	4
45	54	1
4	68	1
103	118	1
56	103	1
94	112	2
91	103	6
137	140	2
83	113	1
20	55	1
160	170	3
22	40	3
128	136	2
82	102	1
96	127	4
81	111	2
104	157	3
123	129	1
51	55	2
114	130	2
166	167	4
14	40	2
150	158	3
1	150	1
55	64	3
123	150	1
12	38	3
11	47	1
120	162	2
5	43	2
22	141	1
83	86	2
21	159	1
82	111	2
57	103	1
6	71	1
96	114	1
20	39	1
26	45	2
64	79	2
87	92	1
18	21	2
91	97	3
4	9	3
8	88	3
105	109	3
126	129	2
151	152	4
114	147	1
153	155	1
128	156	1
98	114	2
53	107	2
74	77	2
75	97	2
153	163	1
87	112	1
97	115	5
64	82	3
11	58	2
23	168	5
108	168	3
122	146	1
36	150	1
129	135	1
96	123	1
70	80	1
73	97	1
114	148	1
100	116	1
89	114	2
26	47	3
0	82	3
17	23	1
105	118	1
7	99	1
110	135	2
125	128	1
90	92	1
12	15	1
46	68	1
6	26	1
75	89	2
113	155	1
117	123	1
41	44	1
27	42	1
89	111	3
28	44	1
128	132	2
73	83	2
109	137	1
148	155	2
3	9	2
84	86	2
85	88	2
112	150	3
38	142	1
94	132	1
22	51	1
161	163	1
56	64	2
43	70	1
69	145	3
155	161	1
138	140	3
39	163	1
68	89	1
78	81	3
72	79	1
0	12	1
108	110	3
133	159	1
23	50	1
57	67	1
67	72	1
17	26	1
140	143	3
164	167	1
63	67	2
63	98	2
57	81	1
16	27	2
138	142	2
58	77	1
14	120	1
65	170	1
115	139	2
10	157	2
12	58	1
54	136	1
14	16	1
13	43	1
80	90	1
16	18	2
132	159	2
14	18	1
94	124	1
34	41	1
87	105	2
63	126	1
75	90	1
109	112	1
77	101	1
5	14	1
50	62	1
19	27	1
123	156	1
25	152	1
1	55	2
157	159	3
105	169	1
115	150	1
77	96	1
22	62	1
144	150	1
2	77	2
137	145	1
18	50	1
127	129	3
65	142	1
150	154	1
143	154	2
89	91	1
5	108	1
80	129	1
25	142	3
82	154	1
124	128	1
71	92	1
10	20	2
111	158	2
134	144	1
132	151	1
66	69	2
64	76	1
24	26	1
56	75	1
164	166	2
80	111	1
90	117	1
41	54	1
70	84	1
78	124	1
91	100	1
116	129	1
68	126	1
4	12	3
73	82	1
22	25	1
17	44	1
71	82	1
160	164	1
159	168	1
71	168	1
130	158	1
56	58	1
108	127	1
47	82	1
95	97	1
6	21	1
17	22	1
18	52	2
122	125	1
90	114	1
112	137	1
118	161	2
53	58	1
110	158	1
38	46	1
82	91	1
131	143	1
19	73	1
37	40	1
2	138	1
112	117	1
112	140	1
19	21	1
90	97	1
26	74	1
26	75	1
9	18	1
6	83	1
5	68	2
71	79	1
55	89	1
70	77	3
108	112	1
137	144	1
12	16	2
134	159	1
91	110	1
26	135	1
65	92	1
17	112	1
84	119	2
98	102	1
86	113	1
166	169	1
106	125	2
25	43	1
64	94	1
62	64	1
20	97	1
91	95	1
52	116	1
129	150	1
94	118	1
41	43	1
64	88	2
74	151	1
74	83	2
91	139	1
86	90	1
138	141	1
143	146	1
90	94	1
131	166	1
85	103	1
83	116	1
18	47	1
10	105	1
49	144	1
146	153	1
12	57	1
119	142	1
38	111	1
80	89	1
55	160	1
71	76	1
105	110	1
129	145	1
28	46	1
42	47	1
137	165	1
75	77	1
119	146	1
32	141	1
18	38	1
46	58	1
42	43	1
159	164	1
108	165	1
74	91	1
128	155	1
11	24	1
21	50	1
62	166	1
18	51	1
118	150	1
103	129	1
3	45	1
38	149	1
52	165	1
23	37	1
93	96	1
104	106	1
69	76	1
