149	150	7
16	20	1
148	148	9
21	23	4
123	123	4
105	105	12
136	136	18
34	34	12
18	20	5
97	98	5
22	26	3
18	18	8
15	80	2
145	145	5
41	41	17
133	133	19
87	87	3
38	38	32
4	42	1
2	3	12
61	90	2
84	84	8
14	16	1
44	44	9
42	42	12
36	36	15
128	129	3
80	80	8
14	33	1
3	3	18
127	127	11
155	157	5
114	166	3
160	165	6
26	28	3
8	8	13
13	31	1
142	143	4
51	51	5
180	180	3
168	168	5
72	72	11
24	24	7
59	91	5
57	59	1
9	9	12
156	156	4
33	33	12
82	82	4
71	72	1
39	40	7
169	169	10
153	154	6
143	145	2
23	24	3
40	40	6
77	77	2
149	149	10
45	45	12
139	139	20
141	141	5
31	31	6
14	36	3
52	52	8
4	4	2
171	171	15
70	70	2
141	142	5
30	30	7
13	14	3
27	27	9
59	60	3
137	137	5
125	125	5
78	78	8
172	172	9
92	92	3
90	91	5
41	43	1
1	1	9
162	164	3
140	140	12
56	59	2
30	31	5
84	85	4
37	37	10
52	55	2
10	23	4
140	169	2
90	90	9
7	31	3
88	90	3
167	168	2
29	30	6
178	178	8
14	17	3
10	10	17
28	28	8
99	100	3
15	16	12
56	56	7
136	137	3
76	125	3
76	76	6
21	36	2
15	82	1
65	83	2
29	31	5
17	17	9
135	135	8
60	65	2
0	0	10
83	85	4
126	126	11
49	49	4
65	101	2
173	174	4
121	121	7
115	116	2
73	74	4
138	138	20
111	112	2
110	113	3
95	95	8
6	10	2
33	36	2
101	105	1
25	26	7
67	67	3
91	91	7
107	110	4
150	150	9
114	114	3
134	134	6
16	16	8
76	124	2
23	31	5
66	101	4
118	118	6
179	179	3
32	32	17
139	140	3
5	8	4
111	111	1
65	65	3
31	32	4
44	45	6
146	146	4
107	109	4
14	14	12
17	18	2
11	12	7
27	30	2
124	125	4
5	5	8
152	153	2
81	81	6
108	109	4
132	137	1
107	107	3
58	59	3
112	112	6
41	42	9
68	68	6
154	160	1
37	38	13
127	128	3
86	87	2
158	162	3
64	64	5
12	13	7
43	43	8
106	106	11
134	141	3
55	93	4
33	34	4
104	106	5
23	37	2
35	35	9
94	94	2
115	115	6
129	143	1
11	35	3
25	36	3
62	62	2
111	171	4
97	113	3
22	22	12
96	171	3
124	126	3
122	122	5
11	11	15
39	39	8
53	53	2
104	104	3
173	173	6
106	107	2
31	37	2
26	26	12
139	143	2
113	113	7
20	20	4
53	55	2
93	93	5
78	119	2
17	22	1
151	151	4
96	96	7
137	143	1
55	55	7
15	15	17
23	23	9
144	144	3
29	29	3
12	12	3
174	175	1
159	159	11
3	4	2
115	118	1
66	66	2
156	157	4
36	37	3
94	171	4
116	118	1
132	132	5
120	120	4
83	83	1
6	6	10
138	139	3
30	32	1
7	7	1
71	121	1
0	24	3
103	104	2
95	142	2
110	110	6
176	176	10
38	39	3
51	52	3
61	62	3
139	168	2
13	15	4
132	133	1
95	172	1
147	147	5
32	33	2
22	30	1
2	40	2
8	9	1
11	33	3
109	119	2
0	2	3
13	13	15
102	103	3
162	162	2
125	131	1
60	60	6
103	106	1
167	167	3
19	19	4
39	87	1
44	82	1
65	85	5
101	101	6
89	89	3
7	20	1
171	172	3
40	42	1
159	160	2
10	11	3
81	116	1
50	50	2
160	160	3
83	86	2
113	166	1
16	33	1
153	153	7
28	31	3
128	128	2
1	6	1
95	143	2
95	96	2
71	71	2
174	174	3
10	27	1
129	140	4
169	171	1
81	115	3
166	166	8
33	35	1
161	162	5
42	43	2
10	14	3
102	102	5
23	25	2
32	36	1
66	67	4
21	22	4
105	122	1
17	81	1
119	136	3
103	103	1
135	146	1
4	5	1
2	2	8
75	75	3
35	42	4
28	29	3
7	9	2
27	28	2
158	158	6
147	157	2
110	111	1
14	15	4
9	31	3
142	142	5
131	131	3
95	119	3
123	124	5
120	121	6
59	88	2
165	166	3
126	162	1
61	79	1
155	155	4
82	83	2
22	23	2
54	74	1
116	117	7
151	153	3
83	84	1
0	1	4
108	108	1
122	123	2
148	149	6
154	154	7
176	179	3
169	170	2
6	7	4
152	152	2
107	108	3
4	6	1
5	7	1
20	22	2
154	156	1
11	14	2
170	170	5
41	82	1
59	59	5
138	142	2
81	88	1
53	65	1
105	106	1
151	152	3
74	75	2
14	163	1
117	118	1
65	86	1
73	95	1
7	8	4
25	31	1
167	171	2
76	77	1
177	177	1
175	176	2
131	132	1
67	71	3
17	19	1
25	39	1
76	93	1
60	130	1
157	165	1
16	17	1
97	97	2
32	35	2
124	129	1
130	131	2
73	73	3
57	58	1
14	44	1
98	114	3
124	132	1
72	73	3
21	21	2
74	74	2
64	119	1
119	119	1
75	76	2
34	40	1
20	21	1
111	117	2
67	73	1
4	12	1
61	61	1
52	54	1
137	139	2
100	100	2
25	25	6
63	67	1
86	86	1
12	14	1
153	157	1
5	6	3
2	89	3
82	85	2
108	121	2
130	130	1
176	178	2
35	36	2
18	23	2
123	159	1
55	56	2
109	111	1
108	122	1
6	28	1
75	95	2
164	164	1
4	8	1
1	3	1
143	144	2
150	156	1
2	4	1
108	126	1
165	165	2
9	14	1
154	155	2
73	75	1
113	114	2
58	58	1
136	154	1
88	88	3
168	170	1
145	146	1
59	61	3
24	25	1
95	118	2
70	89	2
148	157	1
3	10	3
71	119	1
172	173	1
25	28	1
50	51	1
41	45	1
100	113	1
124	124	1
79	79	2
167	173	1
154	157	1
67	100	2
155	156	1
105	107	1
1	2	2
139	148	2
77	93	1
137	138	1
163	163	1
136	146	1
149	173	1
104	105	1
101	116	1
147	148	1
9	11	1
98	98	1
61	63	1
10	33	1
18	19	1
34	43	1
