110	110	9
22	22	3
63	63	7
41	152	4
17	17	4
103	104	3
34	37	2
97	98	5
51	73	2
47	47	9
36	36	6
25	152	2
133	133	7
19	19	6
17	18	2
130	132	2
103	120	1
4	6	3
124	124	3
12	12	3
27	28	3
145	146	1
15	16	1
28	28	5
21	22	3
104	107	2
68	69	2
26	38	5
97	97	1
67	73	3
33	34	4
27	50	2
77	83	1
35	35	6
137	138	2
9	12	4
41	41	1
11	11	6
118	118	11
83	83	6
42	42	6
127	127	6
4	4	10
100	101	5
24	24	11
123	129	5
121	147	3
122	122	6
37	42	4
26	26	4
2	2	2
31	31	1
19	22	1
9	10	3
145	145	7
20	21	1
81	81	2
138	138	3
101	102	4
6	6	2
71	71	5
45	45	6
37	39	2
108	113	7
27	27	7
111	111	1
29	29	4
119	120	4
55	63	4
125	125	2
7	7	5
53	53	10
112	112	3
75	90	4
55	55	9
123	126	8
55	56	6
94	94	5
25	25	5
20	20	6
67	82	2
77	77	6
139	139	4
29	49	1
124	125	3
25	26	3
16	16	5
102	102	7
109	109	8
55	57	3
13	13	13
66	66	7
69	123	1
117	117	4
76	76	3
96	96	1
93	99	1
112	121	3
61	63	2
36	49	2
96	150	1
50	50	7
70	70	2
15	15	8
137	139	4
57	57	7
104	104	4
46	46	10
30	31	2
72	74	2
37	38	2
11	27	5
148	150	2
105	106	3
38	47	1
22	23	6
6	16	1
62	62	4
88	88	2
65	84	1
13	19	1
68	68	5
123	123	8
33	33	1
6	8	5
132	132	6
61	81	2
29	38	4
112	113	4
9	30	3
146	146	2
75	75	1
65	67	3
97	99	6
62	63	3
144	147	1
51	51	3
93	94	5
24	77	3
9	9	4
44	44	8
10	10	4
98	98	3
12	13	2
13	14	3
106	106	2
80	80	3
112	139	2
10	11	2
154	154	12
94	95	5
93	116	2
147	147	2
51	74	1
83	84	5
42	43	1
48	49	2
82	82	7
39	40	6
101	101	2
40	40	9
67	67	2
106	108	1
128	128	5
82	99	1
78	79	3
73	73	6
65	65	4
72	72	3
92	94	6
8	92	5
150	150	1
23	23	4
49	65	1
141	141	2
149	149	5
75	76	1
126	126	3
123	124	3
128	130	2
109	114	2
13	17	3
131	131	3
84	84	4
144	144	3
69	70	1
87	87	2
45	46	1
90	92	1
49	67	2
37	53	1
96	97	2
5	6	1
21	21	1
144	145	2
78	83	5
99	99	1
30	33	1
8	10	2
41	43	4
38	38	5
57	64	1
10	12	1
129	129	6
34	35	2
100	110	2
85	97	2
53	76	4
98	99	2
64	64	2
53	54	2
10	20	2
66	73	2
13	15	2
121	134	1
86	86	1
11	32	2
27	96	2
101	105	1
61	65	1
5	5	3
71	81	3
103	103	1
26	28	2
140	140	3
142	144	1
61	61	1
66	80	1
19	35	1
25	55	2
32	33	1
30	30	5
88	90	1
39	42	2
93	95	1
108	108	3
8	8	1
107	107	3
49	64	2
117	118	1
79	79	1
18	18	3
96	99	2
48	48	3
122	124	1
41	42	2
7	93	1
49	49	2
139	143	1
76	77	2
138	144	1
153	153	1
110	116	2
39	39	3
25	31	1
30	41	1
130	130	1
51	52	1
48	53	1
18	21	1
119	119	1
12	57	1
122	127	1
87	91	2
32	32	1
109	111	2
12	14	1
8	9	1
69	71	1
57	75	1
4	7	1
118	140	2
86	87	1
136	136	2
102	109	1
2	3	1
4	5	1
116	116	1
23	28	1
140	141	1
95	95	1
135	138	1
74	75	1
52	52	1
