98	98	12
103	103	15
71	71	10
88	94	3
50	52	4
65	66	12
13	14	4
54	54	10
9	10	2
98	108	2
80	118	6
55	55	6
16	17	4
11	11	2
25	25	10
72	72	7
6	6	9
84	84	9
60	61	14
125	125	17
28	28	2
77	77	4
42	42	15
122	122	7
20	20	12
15	15	19
45	45	6
110	111	3
95	95	9
115	115	13
0	106	4
48	48	13
58	58	5
95	117	11
52	52	21
13	18	1
124	124	13
105	105	13
69	69	15
24	81	4
39	39	13
92	92	10
50	50	11
12	12	5
65	72	2
88	92	1
85	115	4
83	83	11
21	21	10
7	17	2
67	67	10
42	43	10
51	52	14
62	107	2
26	26	12
112	112	17
80	88	4
116	116	4
49	49	20
72	73	1
9	58	3
18	33	3
85	85	6
118	119	6
44	44	6
19	19	6
8	8	1
73	73	6
88	93	1
82	90	2
97	98	9
107	107	8
97	97	3
33	64	2
47	47	5
110	110	11
6	130	4
53	53	11
0	0	6
62	80	2
65	65	10
126	128	8
129	129	10
7	7	6
5	111	2
131	131	9
78	118	1
55	56	5
128	128	18
50	53	1
51	51	4
132	132	11
75	75	16
67	68	2
52	66	2
38	38	5
62	62	6
82	82	5
60	66	1
64	120	1
43	48	1
72	77	3
109	109	9
40	40	12
76	76	11
109	110	1
41	41	4
23	23	5
114	116	2
68	68	11
82	117	2
119	119	15
56	56	20
3	3	5
1	2	3
33	34	1
73	77	3
118	118	5
90	90	7
67	101	6
43	43	6
6	133	2
88	89	1
45	46	3
101	114	2
99	129	5
61	61	13
81	89	2
67	84	3
91	117	3
13	13	12
23	100	3
81	81	8
79	81	4
94	94	3
4	22	5
87	87	3
104	104	15
101	130	4
13	23	3
101	101	8
20	30	6
17	17	3
62	92	2
86	106	1
1	1	7
31	31	2
80	80	5
24	24	11
111	111	20
59	60	1
30	30	8
10	124	3
106	107	10
64	65	5
122	123	2
115	116	5
66	66	10
59	59	5
25	100	1
127	128	2
100	114	4
28	29	8
97	102	1
107	108	6
113	113	10
121	121	8
58	59	9
64	66	9
55	72	3
93	94	4
4	111	2
6	100	7
2	2	7
9	124	3
54	102	3
99	102	1
76	77	3
7	116	3
63	63	4
128	129	4
14	14	12
88	88	16
11	16	3
1	3	2
10	14	1
6	112	3
5	112	6
123	123	5
82	88	2
94	121	2
4	4	9
106	106	3
89	90	3
15	39	1
96	96	7
65	67	3
89	116	5
82	118	2
117	117	10
10	10	12
108	108	8
82	99	3
85	105	3
130	130	12
15	42	5
98	113	3
105	106	1
103	104	4
9	9	4
84	85	2
15	16	5
114	114	10
91	96	2
61	62	6
86	88	2
91	92	3
21	46	1
120	121	1
89	89	14
31	32	2
6	23	1
99	103	6
91	93	1
79	79	6
5	5	4
74	74	4
66	81	2
39	40	7
114	115	3
18	128	1
95	116	2
18	34	1
63	64	1
46	48	2
19	20	4
99	100	1
29	29	5
103	107	2
87	89	2
83	84	6
63	65	2
37	40	2
77	80	2
57	57	7
126	126	5
44	46	1
78	117	2
86	86	6
98	102	1
20	39	3
6	25	1
64	64	3
106	109	1
30	69	1
97	99	1
70	70	8
78	78	2
74	82	2
47	48	1
88	97	2
94	95	4
10	114	4
96	105	2
39	41	2
1	69	1
127	127	3
18	18	8
79	80	3
3	55	1
2	3	5
16	16	6
11	43	1
94	102	1
6	7	2
24	25	3
112	113	3
53	56	3
63	66	3
17	23	4
82	83	4
125	127	1
42	61	1
121	122	1
4	6	1
70	93	1
46	105	3
41	43	3
46	86	1
83	106	1
92	118	4
87	102	3
47	63	2
120	120	6
42	83	3
38	39	1
77	91	3
33	33	2
22	24	5
4	112	2
27	31	1
51	56	2
90	117	1
72	80	4
67	79	1
98	115	1
75	106	1
97	103	1
64	119	2
41	51	5
53	102	1
13	127	2
93	95	2
34	34	4
18	26	2
101	126	1
89	117	1
100	100	3
99	113	1
63	92	2
32	34	3
61	63	1
42	48	2
11	12	2
72	75	2
29	59	2
98	116	1
110	121	4
39	52	1
129	130	3
49	56	1
46	47	1
76	80	1
33	40	1
28	47	3
91	91	5
52	53	2
113	119	4
80	105	2
90	95	1
76	78	1
113	126	2
76	115	1
90	91	1
10	113	1
115	127	1
87	96	3
93	100	2
82	100	1
43	79	2
10	11	1
44	45	1
17	39	1
47	57	3
23	126	1
63	87	2
83	89	1
15	100	1
21	22	1
93	93	3
123	124	1
61	65	1
30	31	1
5	51	1
6	14	2
25	26	1
99	99	6
22	22	1
98	118	1
84	86	1
20	21	1
65	87	3
56	57	2
39	60	1
126	127	1
72	104	1
82	85	1
86	89	1
4	47	1
88	96	2
44	60	1
62	109	1
107	119	1
68	82	1
108	128	1
6	54	1
14	15	1
43	80	1
102	102	2
69	94	1
27	56	2
32	69	1
9	69	1
32	32	1
111	112	1
71	85	1
57	58	1
72	82	1
72	91	1
80	116	1
105	117	1
74	78	1
124	125	1
43	106	1
112	125	1
