80	80	16
115	115	12
18	21	7
40	40	33
158	159	4
100	103	3
80	102	2
145	145	16
121	123	9
103	106	2
12	13	14
170	170	14
17	41	1
13	13	17
88	88	6
158	160	1
5	14	2
3	12	1
18	19	3
94	95	3
25	25	15
91	148	2
36	36	25
41	41	14
52	54	3
2	8	1
33	35	2
16	16	19
2	20	3
71	71	3
128	128	7
42	42	27
176	176	10
121	121	17
96	96	9
45	46	2
2	2	20
63	63	3
52	86	1
44	44	10
150	150	15
120	162	1
60	130	1
42	51	8
66	158	3
94	94	16
21	22	5
109	109	18
169	169	7
1	2	11
174	174	4
116	118	3
3	111	3
39	39	20
155	156	3
24	24	27
130	130	11
59	59	10
35	35	15
107	107	6
135	135	13
22	22	25
18	137	2
32	32	40
52	52	6
4	9	2
114	114	13
131	131	6
34	34	12
173	174	5
157	157	20
21	23	4
5	6	13
173	173	17
120	120	23
65	65	15
141	141	15
11	11	25
16	26	2
87	88	2
127	127	17
23	23	12
14	14	20
115	117	5
12	12	19
123	123	6
5	5	36
127	130	4
6	6	11
29	30	5
153	153	6
83	96	3
33	33	17
163	166	5
79	79	6
103	103	12
39	40	14
37	38	3
6	8	9
82	126	1
178	178	8
152	153	3
14	17	7
10	36	7
17	17	20
78	79	2
11	15	6
149	149	16
147	147	24
68	68	13
109	113	3
20	20	27
126	126	6
2	3	6
148	148	16
160	162	3
1	1	22
62	62	5
169	170	1
110	169	2
19	19	35
134	134	13
0	0	13
26	26	11
9	9	36
20	21	3
30	30	35
66	67	8
57	57	8
43	43	17
167	167	16
142	152	1
25	28	1
16	23	3
6	39	2
6	16	3
86	86	10
15	21	1
16	25	1
154	159	2
155	170	2
18	18	15
75	75	17
37	37	24
61	61	12
97	140	2
4	4	20
53	61	1
158	158	9
28	29	13
12	33	2
75	118	5
162	162	14
10	10	19
7	7	17
101	101	8
156	156	9
90	90	10
33	38	3
154	154	19
62	63	6
172	172	16
67	67	9
73	73	14
140	140	7
119	145	2
8	8	17
42	43	12
2	42	1
99	99	7
133	133	14
28	56	2
151	153	7
25	26	12
13	14	1
146	146	8
111	154	5
24	25	7
38	38	15
139	141	4
117	117	12
4	8	6
27	36	3
31	31	16
30	86	2
118	118	4
155	155	6
23	24	5
105	107	4
132	178	2
137	137	27
99	100	9
29	86	2
161	162	5
116	116	9
51	51	12
125	125	7
22	23	5
60	61	8
144	144	19
37	39	1
1	3	6
83	83	7
78	78	8
111	159	4
95	116	3
92	92	4
5	7	2
4	10	2
171	171	11
84	85	4
159	159	8
136	166	2
142	142	13
66	66	4
9	45	3
3	3	24
23	31	1
100	120	2
8	10	1
174	175	1
93	93	12
67	160	1
106	107	6
2	33	2
32	33	10
165	165	13
72	72	11
64	155	6
29	29	28
13	33	4
52	62	2
27	27	14
109	156	3
5	56	3
3	45	3
105	105	11
13	20	4
54	54	3
91	91	10
163	179	3
74	122	2
145	165	1
110	111	1
162	163	2
28	30	1
179	179	11
44	45	6
8	9	18
6	7	6
83	98	3
36	72	3
119	120	9
123	124	2
116	117	6
97	97	9
11	51	2
45	140	3
4	46	2
40	41	2
168	175	1
19	20	10
3	9	3
102	106	2
30	149	2
73	100	1
164	164	3
108	108	7
124	124	8
102	102	14
141	178	1
3	16	1
49	49	2
21	21	16
7	16	2
135	136	1
33	42	2
3	4	11
72	102	3
125	126	8
19	30	2
60	60	11
70	70	1
10	40	2
180	180	15
84	84	10
27	28	5
95	95	8
73	168	4
160	160	10
91	92	10
66	82	3
100	178	2
23	94	3
10	30	1
3	6	7
104	107	4
151	151	17
149	151	4
15	16	5
131	133	2
68	160	2
80	86	2
130	151	1
63	84	4
3	41	2
166	166	16
150	153	1
81	82	5
86	87	7
8	11	1
101	102	2
7	62	3
75	144	1
164	165	5
175	175	8
104	104	13
59	61	1
154	155	2
85	92	1
106	106	10
17	27	3
17	18	2
53	53	8
5	20	2
83	86	3
10	11	9
10	18	1
56	56	13
142	159	1
119	146	3
112	112	10
164	166	3
11	33	1
96	98	1
36	42	2
45	153	3
99	118	1
132	132	6
7	9	5
45	45	8
89	89	10
31	37	3
50	50	3
136	136	13
9	35	5
18	23	5
35	99	2
99	103	3
153	158	1
2	14	5
102	105	1
6	19	1
136	169	1
2	4	8
10	31	1
57	58	4
161	161	6
122	122	8
139	140	3
28	28	25
32	150	1
131	132	4
31	93	1
98	98	4
15	15	19
40	58	2
83	113	1
154	156	1
87	90	1
27	93	3
124	125	3
36	74	2
81	81	8
16	17	4
103	104	3
11	12	6
80	159	2
55	56	8
150	177	3
43	44	7
65	66	6
147	166	2
108	109	4
84	135	6
112	113	1
55	55	3
10	13	3
70	71	1
141	179	2
10	45	2
168	168	6
74	74	9
138	138	6
38	39	1
13	40	1
165	166	4
64	64	4
18	20	2
114	150	3
61	62	2
31	39	1
50	96	2
109	157	6
24	29	4
71	134	3
143	143	6
67	73	4
97	178	1
58	58	4
7	8	7
21	40	2
144	146	1
129	150	4
0	2	2
18	169	3
73	74	2
19	46	4
90	92	1
67	78	5
17	23	3
82	85	2
23	26	2
61	130	2
88	89	2
80	147	2
15	19	2
151	156	1
73	179	2
19	21	2
23	122	1
28	38	1
88	114	1
20	124	1
16	18	1
114	154	2
32	37	1
97	98	1
43	56	1
82	82	7
120	128	1
90	102	1
73	143	2
35	44	4
118	146	1
121	147	1
82	118	1
3	7	1
132	133	1
146	151	3
54	55	1
13	22	2
120	121	3
31	32	4
76	76	3
34	148	1
145	146	3
164	167	2
77	78	5
162	168	2
61	66	2
9	10	2
85	85	4
170	171	2
151	152	4
14	25	4
153	154	6
116	119	5
175	178	1
26	27	4
163	163	7
43	45	3
33	36	3
82	111	2
25	45	2
19	108	1
101	105	3
114	155	1
72	90	4
140	147	1
105	106	3
57	59	2
6	10	1
9	16	1
110	110	3
15	27	2
138	143	2
100	100	8
100	115	3
4	6	3
139	142	1
85	113	1
52	53	2
22	42	3
99	107	3
71	72	1
63	85	2
1	39	1
92	93	2
147	160	3
114	115	1
152	152	8
59	77	1
106	117	2
100	117	2
143	144	4
82	134	5
82	96	2
97	119	1
7	21	2
74	81	2
21	80	2
43	147	1
1	12	1
42	129	4
36	37	2
139	139	5
97	116	1
148	154	2
16	39	1
77	77	4
117	118	5
130	169	2
21	44	2
43	167	1
37	132	2
142	143	2
41	42	3
51	52	1
127	128	2
66	154	1
94	151	2
163	164	4
42	179	1
30	41	2
67	85	1
104	105	2
50	51	2
88	153	2
113	114	2
83	85	1
44	131	1
147	148	1
113	113	7
76	77	3
116	122	1
105	178	2
148	149	2
1	45	3
96	151	1
11	19	3
11	32	2
96	97	3
83	134	1
1	15	2
80	122	2
126	169	1
118	126	1
131	169	1
11	31	1
119	147	2
64	153	2
73	75	1
89	98	3
12	45	5
30	31	5
5	22	1
31	80	1
9	24	1
107	110	1
132	138	1
150	151	1
39	76	2
10	26	1
95	96	3
62	68	2
7	11	2
17	21	1
25	60	1
128	129	2
13	16	3
45	130	3
107	129	2
167	168	1
86	116	3
39	50	2
1	11	1
12	16	1
116	128	2
11	44	1
83	84	3
87	87	5
31	38	1
174	178	2
86	98	1
5	23	1
10	21	1
175	177	2
148	167	2
130	136	3
115	116	3
112	129	2
88	102	1
41	43	2
12	15	3
140	146	1
161	179	1
5	8	2
118	119	1
119	121	2
111	137	2
17	31	2
4	7	1
140	155	1
112	154	1
72	76	1
66	128	2
17	19	2
109	111	1
86	88	1
85	87	1
56	59	2
62	89	1
13	15	2
35	36	2
170	178	1
81	118	2
28	78	1
17	137	1
65	111	1
96	150	2
177	177	1
103	129	3
96	128	2
0	1	2
151	158	2
14	15	3
129	129	4
7	12	2
13	23	1
36	138	3
133	134	1
13	26	2
31	41	1
7	13	1
15	37	1
79	128	2
103	173	1
15	18	1
37	90	1
136	155	1
97	100	1
0	16	2
6	38	1
111	114	2
17	22	1
44	133	1
39	58	1
15	36	1
117	119	2
140	143	1
46	46	1
41	131	2
101	165	1
9	50	1
135	172	2
77	159	2
71	127	1
1	34	2
98	99	1
67	110	1
31	33	1
13	41	2
90	122	1
121	148	2
79	80	1
75	76	1
141	172	1
14	20	2
103	118	1
111	111	3
63	121	1
31	111	1
7	10	1
14	29	1
138	142	1
166	167	1
148	150	1
117	122	1
32	80	1
68	70	2
20	22	1
14	163	1
39	43	1
44	46	1
177	178	1
103	156	1
30	33	1
36	52	1
98	157	1
10	15	3
4	5	1
107	108	1
126	127	2
2	75	1
80	81	1
115	153	1
73	141	1
106	114	1
143	145	1
2	168	1
12	18	1
63	110	1
159	160	2
28	57	1
123	125	1
124	152	1
31	180	1
9	28	1
7	19	1
62	121	1
130	131	1
56	95	1
89	114	1
98	151	1
6	37	2
1	5	1
21	126	1
76	130	1
89	95	1
162	165	1
26	80	1
98	100	1
61	65	2
170	174	1
49	128	1
19	111	1
11	14	1
67	111	1
34	41	1
134	173	1
40	42	1
