56	57	10
44	53	5
185	185	11
67	67	13
57	129	7
147	147	23
2	2	6
143	143	11
124	124	9
41	41	12
166	166	5
42	42	5
42	55	2
109	109	10
102	102	2
158	160	2
167	167	2
60	140	2
44	46	3
109	110	6
84	84	6
83	83	12
46	46	7
98	98	3
83	101	4
66	66	5
170	173	3
77	77	4
121	121	5
174	174	19
31	32	6
72	73	2
15	15	10
180	180	5
84	86	6
169	169	14
89	90	4
154	154	8
76	76	12
90	93	2
75	75	10
145	145	8
149	149	5
187	187	2
7	8	5
138	138	5
45	45	5
45	48	2
20	20	7
87	87	10
61	62	1
57	67	1
13	13	6
103	103	4
33	33	14
177	178	3
178	178	6
189	189	6
152	152	16
118	118	2
59	59	6
133	133	9
73	73	9
17	17	5
120	122	4
56	56	22
133	134	5
88	88	10
160	160	1
156	157	1
149	151	1
70	86	1
126	127	1
112	112	8
188	189	5
140	140	16
102	109	3
14	14	3
80	80	5
73	74	5
111	111	7
83	86	3
16	21	1
26	34	2
57	57	5
123	123	14
39	39	12
161	161	1
107	107	13
175	175	5
114	114	4
0	1	2
171	172	7
9	9	2
55	55	7
123	124	4
150	150	11
61	65	5
48	48	6
58	58	4
72	72	3
45	46	3
158	164	2
171	179	2
157	181	1
128	129	8
54	54	5
97	97	2
139	141	3
123	150	1
129	129	10
23	24	2
106	108	3
82	101	1
38	38	6
26	37	3
81	81	17
179	179	5
11	11	11
93	93	8
115	115	2
116	116	3
155	155	3
68	71	3
24	24	5
9	13	1
157	157	3
10	11	4
60	78	4
92	95	3
98	99	4
127	127	8
135	135	7
26	26	2
75	94	7
96	125	3
11	13	6
118	149	4
82	82	9
7	7	9
83	87	1
132	132	1
173	173	8
173	174	6
174	175	1
170	170	9
71	72	2
118	119	2
146	146	3
74	174	1
70	78	1
156	172	3
95	95	8
6	186	2
168	168	9
85	85	7
32	33	1
169	173	2
144	144	3
24	33	2
82	83	4
113	113	6
76	80	1
2	3	1
3	3	4
172	172	1
183	183	10
115	177	2
47	47	7
131	131	6
53	53	4
93	95	2
169	170	2
42	53	5
6	6	9
25	25	5
52	52	2
46	150	2
164	164	4
117	117	8
74	75	1
112	122	3
8	15	1
43	43	1
108	108	6
122	122	5
136	136	5
186	186	4
177	177	3
151	151	8
40	40	7
107	108	4
127	130	3
11	12	4
42	54	1
78	78	5
58	59	3
165	166	6
153	153	3
157	170	2
106	107	1
114	116	2
45	47	1
125	126	2
63	63	2
61	61	4
110	111	1
116	118	2
158	163	4
104	105	4
176	176	1
184	184	4
13	169	4
21	21	1
189	190	3
158	158	8
110	113	3
140	141	1
54	103	2
20	21	3
58	60	2
163	164	1
163	163	3
12	13	4
1	1	1
122	124	1
149	150	1
86	86	6
56	100	2
35	35	2
137	138	1
96	96	11
26	27	2
137	137	4
136	138	1
148	148	6
171	171	2
153	158	1
147	148	1
68	68	5
157	161	1
62	64	1
128	128	7
16	16	2
113	114	1
177	179	2
94	94	15
84	85	7
120	123	1
67	68	8
19	24	1
60	60	3
154	156	2
94	129	3
120	147	4
66	149	2
96	129	2
29	36	1
132	145	1
113	128	2
136	139	4
25	36	3
46	111	2
132	133	3
79	88	2
133	136	1
58	62	2
53	54	1
7	154	1
65	69	1
162	162	8
25	27	1
68	149	1
44	44	2
79	79	5
0	0	6
127	128	2
37	37	4
23	23	4
104	131	3
12	16	2
65	135	2
119	120	2
62	135	1
38	39	2
73	178	3
32	32	5
110	110	3
17	18	2
142	143	3
48	54	1
130	131	4
130	135	2
8	11	1
173	178	2
100	100	3
160	161	4
74	183	1
144	146	1
104	104	4
167	188	2
3	4	2
142	142	10
106	106	2
112	121	1
155	156	3
27	27	2
4	4	1
75	76	3
101	103	1
77	78	1
158	162	1
139	139	4
130	132	3
116	126	1
78	79	1
162	188	1
187	188	3
176	177	2
86	87	4
141	141	4
119	119	2
29	30	1
8	8	3
183	184	3
37	42	1
134	134	7
129	130	1
75	79	3
74	176	1
80	81	2
39	40	1
54	55	1
111	112	3
61	139	1
43	44	5
139	140	1
74	74	3
130	130	1
52	53	1
171	174	1
71	124	2
156	158	2
165	165	3
32	34	1
12	12	1
64	65	2
161	183	1
23	25	1
124	148	1
87	89	1
119	128	1
47	48	3
100	101	1
178	179	1
25	26	3
109	115	2
95	174	1
26	38	2
19	19	2
152	153	1
67	134	4
47	151	2
124	125	2
57	79	1
42	109	1
135	138	1
57	91	1
65	133	2
43	46	1
41	84	1
37	48	1
89	89	1
188	188	3
46	47	1
141	152	1
171	176	1
93	129	1
115	117	1
7	169	1
108	109	3
88	89	1
90	92	1
91	93	1
167	168	1
60	61	2
14	15	1
91	91	1
14	156	1
164	165	2
121	122	1
172	173	2
72	77	1
18	18	1
168	183	2
107	110	1
87	88	1
47	149	1
44	45	2
106	131	1
101	124	2
190	190	1
79	81	1
152	164	1
70	70	1
15	16	1
150	151	3
163	185	1
36	36	1
66	67	1
141	143	2
117	118	1
78	184	1
158	181	1
104	107	1
127	131	1
40	41	1
181	181	1
66	68	1
162	164	1
100	102	1
73	76	2
162	183	1
13	14	1
