4	4	15
97	97	10
137	137	13
130	130	13
101	101	11
124	124	33
117	117	9
105	106	14
86	86	4
78	78	3
134	134	22
126	126	16
38	38	4
134	135	7
3	3	5
74	75	1
128	128	18
131	131	31
79	123	5
88	100	1
16	16	6
0	114	2
107	112	10
129	129	11
88	130	3
138	138	21
91	92	5
81	83	3
2	3	4
130	131	6
71	93	3
75	75	4
95	95	8
93	94	4
124	125	6
15	17	2
93	93	2
5	122	3
112	112	17
135	135	10
29	29	13
23	26	6
22	23	3
8	9	2
127	127	15
17	17	4
133	133	9
125	126	7
87	87	11
18	18	16
28	28	6
71	71	7
9	9	16
102	132	2
19	21	2
89	89	12
79	79	12
100	100	7
114	114	13
80	80	6
24	25	4
7	7	10
4	7	1
35	35	18
136	136	14
121	121	17
24	35	2
72	72	8
81	81	4
140	140	15
111	111	9
121	122	10
21	21	6
88	106	1
10	11	10
123	123	18
104	104	5
13	14	1
109	111	1
107	107	1
125	125	8
12	13	5
92	92	6
109	110	2
137	138	7
102	102	8
72	76	1
15	15	10
27	27	10
11	12	5
2	7	2
107	109	1
132	132	12
122	122	7
127	129	5
73	73	8
113	114	6
96	96	7
19	23	2
25	29	3
31	129	4
72	73	3
74	74	6
77	79	6
83	84	2
29	30	9
9	11	3
115	115	7
77	118	5
81	82	1
130	133	3
76	76	7
20	20	7
90	90	1
108	108	2
4	112	6
107	119	5
23	29	1
110	111	10
26	30	4
85	115	2
89	135	2
77	78	4
99	99	2
14	15	2
94	94	4
14	14	3
22	22	4
75	80	1
73	91	1
7	8	5
37	138	2
105	105	8
6	6	12
85	85	5
92	93	1
33	33	8
128	129	3
25	25	5
1	3	5
118	118	6
110	110	13
2	8	6
139	139	15
88	90	2
120	121	9
21	113	1
119	119	10
37	37	3
134	140	1
34	34	3
97	115	2
13	118	4
83	85	3
75	76	4
81	94	3
116	117	3
120	120	4
109	109	8
130	138	1
113	113	9
10	10	8
30	30	7
81	86	5
27	28	6
31	31	2
87	88	3
96	97	1
123	124	5
114	123	3
2	2	2
11	11	9
119	120	3
103	103	11
82	82	7
116	116	6
0	1	2
24	30	1
28	32	2
1	8	2
24	24	1
19	19	2
28	29	2
88	88	1
96	129	9
101	102	3
7	9	4
118	120	2
104	106	2
4	123	1
38	93	6
13	13	5
79	81	4
1	2	1
24	31	4
0	0	3
122	123	5
76	77	1
77	77	5
80	115	5
38	92	1
77	107	1
131	132	3
3	4	4
73	75	1
128	133	2
84	84	2
23	23	1
92	116	1
87	108	3
108	109	4
17	18	3
86	97	1
89	115	1
78	96	1
94	95	2
81	93	2
23	24	2
25	30	1
71	86	1
80	85	1
26	26	3
129	130	1
79	80	4
78	105	4
89	128	3
8	11	1
1	1	1
74	91	1
135	137	2
111	124	3
86	88	3
133	134	1
12	12	1
127	133	2
126	127	1
28	94	2
36	105	1
91	139	2
113	121	1
24	29	1
82	84	2
82	102	2
135	136	1
80	116	1
101	115	1
115	116	2
31	32	2
103	110	1
36	36	3
91	91	4
75	100	2
13	30	1
34	35	1
23	139	1
106	106	2
26	35	1
112	113	1
98	98	1
80	81	2
30	31	1
74	92	1
5	123	1
115	134	1
118	119	2
106	107	1
98	99	1
130	139	1
95	140	2
32	32	1
88	89	1
25	26	1
86	89	1
79	95	1
