35	35	12
108	109	8
84	84	7
96	96	3
23	23	11
154	154	5
129	129	1
76	76	5
16	16	9
101	101	8
13	13	14
87	93	6
104	110	5
17	21	3
73	74	7
33	33	11
86	97	4
93	94	4
149	150	1
12	13	2
85	85	7
150	150	3
40	41	2
8	8	9
57	65	2
67	118	2
144	144	3
15	15	5
19	22	1
22	28	2
96	103	3
57	57	4
40	45	3
137	138	3
49	64	2
43	93	2
40	40	13
55	55	6
139	139	5
71	98	4
48	53	3
24	25	5
6	16	1
29	30	3
119	119	3
21	23	2
144	146	1
75	86	1
33	34	8
37	50	1
6	13	1
87	94	4
128	128	2
82	83	1
87	87	4
97	98	2
145	146	2
115	116	1
49	49	7
97	99	2
34	34	3
14	15	6
126	126	2
138	150	2
123	123	4
109	111	2
67	67	7
112	135	2
47	47	10
56	56	4
142	143	3
4	5	1
3	3	5
41	42	9
46	90	2
14	14	2
11	11	9
35	51	2
65	65	6
32	36	2
42	42	8
108	126	1
64	64	2
115	123	2
74	75	3
63	63	5
122	122	6
120	120	3
51	51	4
131	131	4
51	84	4
73	73	5
43	44	3
83	83	4
98	98	2
36	36	4
63	64	5
53	53	6
5	16	1
19	19	3
31	33	4
146	146	3
70	71	1
84	87	2
9	9	5
148	148	5
44	45	2
48	48	6
37	38	5
41	43	4
11	12	2
108	108	2
67	68	4
103	118	2
145	145	4
141	142	5
80	80	6
94	95	3
68	79	3
104	104	4
21	21	6
46	46	5
30	31	3
37	49	2
138	138	4
74	106	2
71	71	5
115	124	1
41	41	8
141	141	6
106	106	8
135	135	5
117	117	4
114	114	3
13	26	5
49	52	1
17	17	3
99	99	6
68	83	1
118	118	1
20	20	6
113	113	5
115	115	4
25	25	2
116	116	6
109	109	9
133	133	7
129	137	1
9	21	2
43	43	7
102	109	2
4	4	2
46	53	2
70	70	3
134	135	5
113	114	5
7	7	2
96	98	5
31	31	7
24	24	12
146	148	3
31	34	1
96	99	1
120	121	4
143	147	1
45	53	5
84	117	1
72	72	3
36	93	1
149	149	6
77	77	2
86	111	4
140	141	2
84	85	5
85	97	2
97	111	1
39	79	1
36	49	1
37	39	3
28	28	2
39	39	5
33	35	2
78	78	7
112	113	1
81	82	1
10	10	4
37	37	5
73	85	1
51	56	6
21	26	1
107	107	2
50	51	1
132	133	2
83	90	3
72	73	5
32	37	1
50	50	10
9	10	2
85	86	3
45	45	7
21	30	3
4	8	2
44	44	4
86	86	7
78	96	1
26	29	2
153	153	2
12	12	4
150	151	3
127	127	1
144	147	1
110	110	2
6	17	2
95	99	2
75	85	1
33	45	6
32	83	1
97	97	4
119	121	3
5	5	3
22	24	1
33	50	2
147	147	3
39	40	4
39	51	2
65	66	1
121	121	2
65	68	1
102	103	1
146	147	2
32	33	2
49	70	1
73	75	2
79	79	3
143	145	2
7	16	3
134	134	1
46	64	2
80	98	1
8	9	4
3	16	1
22	23	6
62	62	1
108	110	3
110	111	2
7	10	1
53	54	3
25	26	1
29	29	3
22	22	2
6	6	2
17	18	1
93	93	3
104	108	1
10	11	2
83	87	2
74	74	3
125	126	2
100	105	1
138	139	1
42	43	1
141	145	3
72	74	1
69	69	1
116	117	1
66	102	1
38	39	1
109	110	2
7	12	1
109	112	1
136	136	3
63	66	1
109	128	1
30	30	3
31	32	2
75	87	1
99	115	1
78	95	1
76	82	1
86	87	2
71	72	3
67	120	2
111	129	1
137	137	1
21	38	2
20	21	2
135	139	1
144	145	1
16	17	2
45	57	1
127	128	1
107	108	2
126	127	2
152	152	1
66	66	3
135	138	1
20	22	1
92	92	2
143	146	2
54	55	2
139	151	2
3	5	1
5	7	1
129	130	1
47	48	1
101	108	1
149	152	2
40	67	2
112	112	2
132	134	1
123	124	1
68	69	2
17	19	1
107	122	1
125	125	1
104	105	1
16	24	1
95	97	1
43	53	1
101	107	1
79	98	1
124	127	1
56	57	1
37	62	1
58	58	1
140	140	1
130	130	1
18	148	1
31	40	1
32	34	1
80	82	2
106	107	1
132	132	2
4	25	2
4	6	1
61	62	1
23	24	1
68	71	1
36	37	1
69	119	1
80	81	1
119	120	1
57	93	1
68	68	1
94	94	1
81	84	1
3	4	1
27	29	1
5	6	1
