3	3	14
79	79	6
65	65	11
67	67	22
89	89	4
5	81	3
7	7	15
27	27	21
30	31	2
54	54	6
63	63	8
9	10	6
73	74	3
50	50	9
23	23	10
34	34	6
51	63	7
70	70	11
0	0	6
55	55	6
61	61	7
67	68	8
19	20	3
57	58	5
80	83	3
48	48	10
64	64	10
25	25	10
85	85	13
53	53	8
83	83	9
71	71	12
34	35	1
19	19	8
80	80	6
49	54	2
26	31	5
9	9	7
2	2	12
84	85	3
49	49	10
56	56	16
14	14	13
72	75	2
46	46	5
82	82	10
30	30	2
50	51	2
7	53	2
48	78	2
73	77	1
72	72	26
10	10	4
51	54	1
27	56	3
60	60	3
29	30	2
28	28	4
24	24	8
3	4	5
5	5	9
74	74	16
69	69	6
80	81	12
22	23	4
16	16	14
66	66	8
11	11	9
25	82	2
6	6	6
57	57	14
17	17	13
46	47	1
20	20	2
29	29	3
10	12	6
88	88	7
73	73	12
68	68	12
1	1	5
27	28	4
59	62	1
60	62	4
81	81	10
12	22	1
86	87	7
7	17	4
28	29	2
22	24	5
72	73	4
20	59	5
64	65	3
49	61	5
6	77	2
18	18	1
83	84	7
53	55	6
69	72	4
59	60	9
52	53	4
5	23	2
59	59	8
76	77	6
59	63	3
56	57	2
62	62	5
61	62	4
86	86	6
12	13	4
78	78	9
32	32	4
61	66	3
17	34	3
52	62	3
11	12	6
51	52	8
54	55	4
0	1	1
5	78	2
54	56	1
85	86	8
87	87	5
57	66	3
60	63	1
6	25	5
22	22	5
72	74	1
26	26	3
75	75	5
11	13	1
4	4	11
6	14	4
88	89	1
6	7	2
46	48	2
82	83	3
0	2	2
15	16	2
5	20	3
13	14	1
79	81	3
6	12	2
68	69	2
75	85	2
1	2	10
17	19	3
25	54	6
77	81	3
33	33	5
26	83	1
26	82	3
67	69	1
65	79	4
62	83	1
7	13	2
47	48	1
49	58	1
21	21	2
17	20	2
5	17	4
6	22	3
8	9	2
26	51	1
4	80	4
5	19	1
26	33	1
8	12	1
18	19	1
35	35	1
31	31	4
5	6	3
58	58	3
74	75	1
15	15	3
13	13	1
75	78	2
21	22	3
63	66	1
77	77	1
27	57	2
1	22	1
52	52	3
26	55	1
9	11	3
31	32	1
8	10	2
78	80	3
28	55	2
77	78	3
8	24	2
47	47	2
58	59	1
12	12	2
26	80	3
65	83	2
52	59	1
54	62	1
20	22	1
62	76	1
52	63	1
86	88	2
20	53	1
84	84	2
79	80	1
63	64	2
25	27	1
70	73	1
10	27	1
62	63	1
48	49	1
63	65	1
51	51	2
26	27	1
80	82	1
23	28	1
73	80	1
56	83	1
60	61	1
