71	71	3
1	2	2
21	30	1
116	116	2
112	112	12
0	10	4
60	62	1
3	5	1
28	28	3
21	23	1
125	125	5
30	99	1
104	105	14
70	70	8
52	52	4
55	55	10
1	1	5
89	89	7
60	86	2
15	15	4
82	82	8
103	103	9
95	96	2
39	40	1
12	12	6
76	76	1
132	132	3
69	69	6
107	108	1
89	90	5
46	47	5
72	72	2
98	99	2
38	38	4
80	81	2
20	20	4
19	23	1
8	8	7
17	17	2
22	26	3
18	18	4
26	30	1
114	125	3
115	115	7
79	80	4
120	120	5
47	48	2
123	124	1
108	108	9
96	96	8
62	115	2
117	117	2
14	14	1
86	86	1
27	27	9
34	34	2
31	31	8
127	128	3
41	41	4
126	126	7
39	41	2
43	45	4
91	91	2
30	65	1
94	94	5
113	114	6
83	85	3
58	58	9
116	130	1
32	32	4
95	95	7
111	111	3
5	5	3
26	26	11
57	57	6
80	80	4
44	119	3
2	3	4
67	68	1
26	27	3
78	79	2
88	88	4
32	33	1
65	68	2
49	94	2
50	50	8
101	101	7
33	33	3
2	2	2
0	0	1
97	97	6
48	48	12
65	66	3
128	128	6
118	128	2
64	76	1
60	64	5
121	121	7
71	76	2
4	4	2
7	7	4
77	78	3
102	103	1
4	5	5
67	67	3
24	24	4
49	52	1
54	54	12
106	106	5
111	132	1
22	30	3
110	110	9
9	124	2
42	42	3
114	114	3
62	84	5
109	109	3
13	13	4
80	102	1
126	127	3
18	19	3
46	126	1
73	73	1
48	67	2
46	46	8
54	55	3
44	79	2
10	10	7
63	63	4
115	116	7
14	15	3
45	46	1
30	30	2
56	56	4
47	47	7
45	45	6
124	124	7
85	85	10
9	9	6
51	51	4
65	65	5
57	89	1
99	114	1
30	31	3
82	83	4
28	29	2
104	104	2
105	105	4
39	102	2
97	98	3
63	126	2
83	83	3
21	97	1
5	6	5
11	11	5
92	92	4
24	25	2
45	119	2
29	29	2
69	86	1
31	32	1
4	117	2
71	72	2
127	130	2
93	112	1
27	28	4
118	118	2
47	119	1
84	85	1
125	126	1
59	61	1
117	118	2
58	59	3
131	131	1
62	62	6
13	14	5
10	31	2
38	39	1
65	69	3
122	122	1
123	123	1
110	111	2
25	26	1
101	102	2
69	83	2
77	77	3
41	42	1
93	94	4
70	71	3
22	22	4
119	119	5
48	54	1
40	96	2
91	93	3
124	125	2
82	87	1
102	102	2
79	79	2
21	33	2
133	133	1
65	67	1
48	49	2
121	124	2
72	76	1
56	125	1
49	49	6
53	54	1
18	32	2
62	68	2
40	40	4
59	60	1
86	90	3
64	64	1
60	87	1
53	53	2
0	120	1
10	11	1
30	47	2
132	133	2
39	39	1
113	113	3
17	119	2
81	82	1
129	129	5
33	41	3
107	107	2
17	18	1
3	117	1
7	8	1
49	51	2
90	90	2
15	16	3
88	89	3
2	18	1
100	100	1
20	28	1
59	59	4
93	93	1
56	57	1
0	7	2
61	61	1
126	128	1
103	105	1
61	62	1
80	125	2
25	25	1
116	119	2
73	77	1
82	85	1
38	40	1
15	17	1
16	18	1
6	6	3
83	86	2
111	112	1
23	23	3
80	84	1
130	130	2
44	44	1
58	89	1
53	55	1
24	32	1
85	86	1
55	56	1
21	21	1
10	33	1
26	31	2
102	104	1
79	81	1
51	52	1
61	116	1
19	19	1
30	48	1
78	78	2
127	127	1
112	113	1
97	101	1
74	97	2
19	20	1
50	51	1
28	79	1
75	75	1
80	85	1
43	43	1
40	41	1
