57	80	1
121	130	3
63	63	4
66	68	2
23	23	22
110	114	3
72	72	15
56	56	14
80	80	5
16	16	22
74	74	14
119	151	3
26	43	1
56	139	2
42	43	4
14	14	27
41	42	11
37	37	20
174	174	7
154	154	14
160	160	9
133	133	15
123	147	3
109	109	7
5	8	2
23	41	2
52	52	13
10	10	23
60	61	2
9	10	11
100	101	8
148	148	5
51	65	8
9	9	14
142	142	8
9	45	1
167	167	22
172	172	22
179	179	11
76	76	8
82	82	3
176	176	23
71	72	7
141	142	5
109	114	4
154	156	8
81	81	14
161	161	10
8	8	23
65	66	1
13	13	11
51	51	9
168	168	23
149	149	23
171	171	12
132	133	2
54	54	11
91	91	9
160	174	3
50	52	5
117	117	4
99	101	5
75	75	16
128	128	3
145	145	18
32	32	43
6	7	6
122	139	3
33	33	24
127	171	6
17	21	5
11	11	23
38	38	45
36	36	32
136	136	11
5	6	6
41	41	18
35	36	9
82	89	2
58	59	3
145	146	7
40	40	12
59	60	7
84	84	12
38	39	7
73	73	10
80	82	1
102	102	10
28	30	2
56	57	6
127	128	5
147	148	8
32	36	4
7	7	12
60	60	12
37	38	11
30	30	11
141	141	10
90	94	5
10	14	7
74	78	1
158	180	3
96	96	15
27	27	7
148	166	4
28	112	3
127	166	2
130	170	2
15	15	9
4	4	16
120	120	4
166	166	9
29	29	13
68	68	15
104	108	2
36	43	3
71	80	1
135	135	10
1	1	18
11	12	4
134	144	8
165	165	5
44	45	14
24	24	12
136	154	1
104	114	1
53	53	9
139	139	11
42	42	23
0	0	9
111	111	7
122	122	17
94	94	15
121	141	1
43	43	19
41	113	1
11	109	3
150	150	18
39	40	11
28	28	10
39	39	20
15	17	5
70	77	3
31	31	17
26	27	7
61	102	5
45	45	5
58	74	1
70	70	8
172	173	7
143	144	4
5	7	7
126	168	2
78	78	17
1	2	3
138	139	3
134	134	13
13	14	5
160	162	2
118	143	2
25	25	11
125	126	4
59	112	3
129	129	13
148	163	1
74	76	2
21	22	8
108	108	6
121	121	23
169	174	3
29	30	6
2	4	5
17	17	27
143	145	7
93	93	14
89	91	2
78	168	1
87	88	2
107	107	4
77	78	6
52	53	3
112	112	7
56	60	4
94	95	3
153	153	12
130	130	5
92	93	5
132	150	1
75	76	3
110	111	5
44	44	19
3	15	3
89	89	11
162	164	1
25	44	1
88	90	7
14	16	2
72	73	6
100	100	6
116	116	6
165	166	4
0	1	5
115	116	7
82	86	3
151	153	4
8	40	1
65	99	2
162	174	4
173	173	22
6	6	17
35	35	20
34	35	1
169	169	12
62	63	5
7	10	3
124	141	4
162	162	7
144	144	12
136	162	3
127	168	1
23	24	11
169	170	5
123	139	4
88	95	1
142	143	3
117	118	4
67	68	1
148	167	2
124	125	5
121	131	2
71	167	3
134	176	2
99	99	3
91	92	1
75	126	1
19	19	7
118	167	1
46	46	4
20	21	5
167	168	6
126	127	7
70	108	1
1	6	2
90	90	21
87	87	6
129	130	4
68	98	1
58	58	13
173	174	5
77	77	15
23	45	1
124	124	3
180	180	9
102	106	2
85	90	5
8	9	7
70	71	6
127	129	2
132	148	3
131	132	3
22	22	26
10	11	5
135	150	2
118	118	15
177	177	5
157	157	8
79	83	4
27	29	6
117	119	2
155	155	8
65	65	8
101	108	2
61	61	10
83	83	8
22	41	3
157	159	1
62	65	2
59	64	1
126	128	1
93	94	11
161	162	6
53	54	3
161	174	3
113	115	4
135	155	1
137	138	3
3	3	17
163	163	8
3	4	14
57	57	10
139	140	3
158	158	8
106	107	5
59	140	1
4	15	3
16	35	1
145	154	3
143	151	1
2	2	6
18	18	15
81	88	3
147	153	2
57	60	2
26	29	2
60	95	1
16	18	1
110	116	3
158	159	1
108	137	2
12	24	2
49	50	5
127	127	7
108	116	4
55	55	14
73	118	2
155	160	2
64	64	12
34	34	2
67	90	4
147	147	8
95	95	15
57	90	1
121	123	3
126	171	2
4	5	6
57	58	4
33	34	1
119	128	3
19	20	8
40	42	2
146	172	2
156	156	5
90	92	2
168	169	1
97	97	2
83	96	4
21	21	11
175	175	3
123	126	4
71	71	10
56	61	2
125	125	11
105	105	3
68	99	1
143	152	1
98	100	1
122	123	5
76	77	5
6	32	7
96	97	2
61	62	5
170	174	3
157	158	6
161	168	1
116	117	2
161	163	5
111	114	2
91	93	2
148	149	9
104	104	3
126	126	9
158	179	2
141	178	1
2	50	3
67	67	5
5	5	16
11	126	2
24	25	8
44	46	5
143	143	3
25	36	2
98	99	6
154	155	3
31	45	2
123	123	5
80	81	1
30	31	2
108	167	1
119	119	4
58	64	2
86	86	3
59	59	7
64	103	1
92	92	1
41	43	5
159	159	2
134	135	2
142	176	1
11	13	2
77	124	1
72	118	3
118	168	1
124	147	1
66	66	7
62	62	6
113	113	3
107	108	2
60	102	7
146	146	2
54	65	2
54	55	4
13	15	3
16	44	4
127	164	1
31	32	2
111	125	2
56	58	1
137	137	25
55	80	1
30	33	1
131	131	4
65	96	1
163	164	3
159	174	4
149	150	5
20	20	7
2	3	5
107	111	3
158	172	1
55	56	1
4	8	2
126	166	1
130	131	2
108	109	1
66	67	2
157	174	1
131	141	1
118	119	5
27	28	2
115	117	1
26	36	4
151	151	6
152	152	1
153	154	1
37	41	2
25	28	1
2	5	4
171	176	5
12	12	3
19	34	1
115	115	3
103	104	5
8	11	1
2	8	3
134	145	1
176	179	1
77	102	2
96	118	3
38	41	1
102	141	1
4	7	2
107	131	1
63	87	3
146	147	2
138	138	8
178	178	4
17	18	3
132	132	3
9	12	2
3	8	1
137	176	4
70	100	1
152	153	3
18	21	3
134	159	4
155	173	3
113	114	3
12	111	3
121	122	5
28	29	6
111	173	2
164	165	1
157	176	2
96	121	1
11	114	1
83	107	1
13	18	1
168	171	2
103	107	3
125	148	1
15	42	3
96	142	2
104	105	2
3	45	3
119	120	2
33	122	1
126	148	2
137	149	1
43	44	2
159	177	2
170	170	5
152	154	3
119	158	4
77	80	3
28	43	2
34	36	2
18	19	1
163	171	3
15	36	1
171	172	1
22	40	2
140	140	4
7	9	3
50	50	2
10	126	1
119	121	2
79	80	2
2	45	1
135	141	1
156	157	2
16	17	6
74	75	3
53	65	1
143	175	1
2	11	1
14	118	1
88	89	3
24	39	1
64	65	1
110	110	3
10	31	1
23	27	3
0	3	2
88	88	5
107	115	2
30	106	1
24	29	1
152	175	1
57	122	2
18	27	1
25	26	5
147	168	1
103	103	2
32	35	1
16	21	1
23	26	2
170	175	1
43	45	1
33	45	1
118	145	1
2	49	1
15	16	5
133	150	1
112	113	4
65	97	2
110	115	1
14	19	1
21	36	1
83	87	1
97	169	1
25	45	3
17	24	1
126	167	1
141	149	3
128	129	1
27	36	2
156	159	2
123	124	1
163	175	1
120	121	1
49	51	3
105	107	1
111	122	1
1	3	3
111	112	3
49	49	1
116	143	1
26	26	1
152	174	1
84	86	2
29	108	2
40	41	4
160	169	1
177	178	2
123	140	1
14	42	1
71	77	1
61	88	1
130	150	1
98	115	1
113	128	2
15	44	1
15	18	2
149	151	1
141	176	1
120	127	3
27	37	1
148	169	4
127	163	1
173	175	2
15	43	1
96	172	2
155	156	1
52	76	1
175	176	3
72	109	1
131	170	1
106	106	1
1	17	1
78	169	2
106	112	1
62	87	1
85	89	2
87	89	4
79	79	1
80	108	1
165	173	2
136	167	1
166	169	1
61	64	1
66	81	1
14	15	1
118	142	1
10	24	1
120	137	2
159	173	1
130	140	1
151	152	1
85	88	1
102	136	1
104	113	1
150	180	1
54	74	1
21	23	1
65	68	1
135	136	2
38	43	1
166	167	1
169	171	1
147	162	1
66	90	1
38	40	1
60	94	1
154	180	1
101	102	1
122	140	1
164	170	1
136	137	1
31	43	2
149	157	1
115	135	2
122	167	1
23	25	1
156	173	1
92	94	1
14	112	1
79	98	1
89	95	2
147	169	1
64	87	1
21	40	1
3	13	1
113	131	1
80	102	1
90	91	1
56	77	1
50	65	1
75	90	1
14	38	1
150	154	1
20	25	1
164	164	1
60	93	1
85	85	1
160	175	1
78	79	1
95	96	1
33	36	1
162	175	1
16	39	1
