93	93	2
12	38	2
67	68	1
48	54	2
5	5	6
8	23	4
66	66	1
46	47	2
78	78	2
147	147	8
102	102	3
17	54	2
95	95	5
24	24	13
104	106	2
110	110	8
16	16	8
30	30	1
120	125	1
120	143	1
122	123	3
84	85	1
75	76	1
65	65	2
16	43	2
37	37	6
7	42	6
21	37	3
112	113	1
54	55	3
68	68	9
87	87	10
70	70	3
142	142	2
24	48	2
140	140	4
91	92	3
34	34	2
105	106	1
72	142	1
43	43	4
134	136	4
28	29	5
134	134	1
136	152	1
40	40	7
9	9	4
33	34	2
116	117	3
98	98	8
105	105	5
101	101	1
123	125	6
1	5	2
82	98	2
114	115	1
126	126	3
98	116	4
72	98	1
104	104	3
144	145	5
21	43	1
51	51	4
86	96	3
113	113	7
145	147	1
150	150	8
4	120	3
89	89	1
103	103	4
130	131	6
15	21	7
52	52	2
80	80	9
145	145	2
72	72	3
121	122	6
11	26	1
26	26	1
132	132	3
42	42	2
100	100	6
67	70	3
10	28	1
148	148	1
9	10	5
25	25	2
156	158	2
63	67	3
125	126	3
79	79	4
45	46	2
45	45	4
67	69	3
119	119	3
49	57	2
118	146	1
144	144	8
108	108	4
143	143	5
28	28	8
33	56	3
138	149	1
94	94	1
154	155	1
88	88	3
82	96	1
83	83	1
123	123	1
106	106	1
21	55	2
23	23	1
55	55	4
111	148	1
17	22	1
120	120	1
135	153	1
17	18	1
104	107	1
5	6	1
86	87	1
71	126	1
125	141	1
71	71	2
13	14	1
137	138	3
103	106	1
51	57	2
56	73	2
43	61	3
114	143	1
47	47	2
11	12	3
122	125	2
2	2	2
35	35	1
7	7	4
13	13	2
149	150	2
30	38	2
84	84	1
27	27	4
36	36	1
33	33	1
67	67	4
65	70	1
122	143	2
36	139	1
4	4	3
18	18	2
22	105	3
100	101	1
34	37	1
54	54	1
45	72	1
135	135	2
76	77	1
8	8	2
81	83	1
70	71	1
116	116	2
111	111	2
24	45	2
6	27	1
4	107	1
131	131	4
13	31	1
129	129	4
22	43	1
65	77	1
86	86	2
103	105	2
2	4	2
156	156	1
86	88	1
106	116	1
81	81	1
136	146	1
8	10	1
128	128	2
127	127	3
22	22	1
99	99	1
30	36	2
44	44	3
141	141	1
92	123	1
1	1	2
15	37	1
88	91	1
73	93	1
39	39	1
57	61	1
97	97	1
151	151	1
158	158	1
154	154	2
117	117	3
145	148	2
155	155	1
138	138	2
34	35	1
40	42	1
7	8	1
95	96	1
49	49	1
107	107	1
38	39	1
124	125	1
148	153	1
137	154	1
113	115	1
62	136	1
20	21	1
130	130	1
65	66	1
21	28	1
82	82	1
118	118	1
101	156	2
119	125	1
73	73	1
48	49	1
