154	154	15
97	97	6
109	109	4
3	3	8
146	148	2
103	105	1
138	149	2
13	13	11
133	133	4
33	33	8
145	145	4
32	32	10
39	62	2
27	55	1
6	6	5
84	105	1
96	96	7
5	7	3
100	102	2
18	18	8
38	39	1
119	131	4
44	44	4
38	38	8
83	83	2
123	123	8
26	65	3
53	53	11
26	28	4
40	41	2
41	41	4
131	131	14
27	64	6
122	126	1
106	106	9
74	110	4
27	28	1
153	153	8
68	75	6
36	36	15
65	136	2
106	107	4
49	94	2
16	17	3
144	144	8
86	87	3
47	47	13
137	146	4
13	31	7
143	143	13
11	11	3
70	70	8
137	137	10
84	85	3
126	127	2
30	30	5
116	116	4
128	128	3
34	34	9
115	117	1
52	52	1
102	102	5
35	36	3
37	38	1
15	15	8
74	74	6
139	148	9
47	49	2
66	66	4
19	19	5
93	93	8
98	98	3
76	134	3
151	151	2
96	97	3
77	77	14
12	75	6
86	111	6
101	114	4
48	50	2
17	24	3
139	139	4
25	29	2
85	86	2
132	132	4
68	127	2
69	69	2
46	70	10
82	82	10
63	98	1
42	103	1
72	72	4
125	128	3
24	24	20
129	129	11
76	118	2
11	14	4
8	8	2
17	25	6
56	56	8
67	67	7
50	50	5
117	117	1
28	67	2
43	51	2
124	136	2
12	12	5
10	10	8
82	83	1
149	149	5
45	45	4
82	93	1
12	73	2
124	132	3
118	134	5
80	93	2
24	35	3
25	50	1
81	94	4
72	93	2
51	51	2
92	92	3
29	29	8
63	63	4
18	23	1
119	119	3
31	31	9
126	126	11
62	62	2
120	126	3
66	78	1
112	112	14
71	71	6
85	85	1
78	112	1
132	133	5
42	42	5
134	135	6
35	35	1
37	37	5
80	80	3
125	126	1
113	113	1
83	84	1
43	43	4
25	26	2
94	94	6
118	118	5
5	5	6
21	21	8
104	107	2
103	116	4
65	138	4
4	4	4
16	16	6
77	86	2
131	147	2
97	99	2
81	82	3
7	7	2
46	50	2
121	121	2
98	112	2
41	43	3
47	48	4
95	99	1
126	128	2
152	152	6
134	134	2
75	76	3
77	79	1
114	114	4
43	70	6
41	76	4
92	141	4
54	55	3
49	49	4
67	111	1
46	46	6
15	16	1
77	78	6
12	30	1
22	50	2
64	64	7
23	23	2
78	78	2
55	55	5
8	9	3
76	76	3
27	86	3
14	51	3
84	84	2
78	79	4
120	135	2
20	20	5
22	23	3
17	17	7
85	87	7
52	53	3
118	133	1
141	141	2
40	40	1
57	57	8
47	50	1
67	68	1
34	35	2
4	5	3
68	146	2
108	108	3
123	131	1
134	136	3
48	49	1
58	67	3
42	43	3
148	148	4
13	16	4
119	154	3
73	74	5
103	103	2
77	134	2
95	96	3
88	136	2
125	127	8
50	86	3
145	146	2
140	140	4
102	118	3
79	79	2
68	110	1
68	68	6
34	38	3
138	138	3
54	54	1
107	107	6
87	87	1
53	56	4
9	17	1
29	99	3
49	95	4
9	13	3
127	127	3
67	135	2
98	136	1
78	80	2
68	86	1
142	142	4
52	54	3
88	135	2
143	144	3
78	83	3
28	29	4
46	54	2
10	11	2
23	24	3
25	84	2
121	150	1
35	38	2
78	109	2
93	95	2
26	26	2
77	84	2
58	58	1
64	137	2
84	112	3
88	88	2
27	63	1
9	15	1
105	106	3
15	17	2
92	93	1
72	97	1
117	118	2
9	9	1
48	48	2
120	127	1
138	139	2
122	122	3
99	112	1
96	111	1
91	141	1
3	10	3
115	115	3
66	79	1
61	64	2
62	150	1
11	30	2
79	110	2
43	101	3
65	146	2
86	86	1
88	92	1
51	52	1
101	101	1
65	67	2
150	150	3
124	124	1
48	74	1
28	28	1
79	83	1
78	86	2
113	114	1
122	147	2
65	65	3
120	120	2
138	145	3
22	22	2
121	145	2
2	3	1
27	27	2
36	37	1
127	138	1
64	110	1
84	87	3
8	15	1
58	151	2
48	54	1
32	33	1
99	99	3
5	25	1
12	15	3
66	137	1
74	75	1
52	74	1
3	6	2
27	29	1
18	69	1
47	118	1
4	7	1
62	64	1
12	14	1
36	41	2
66	98	1
105	107	1
27	31	1
75	75	1
52	55	1
17	18	1
