125	125	5
94	95	1
109	109	4
72	72	7
126	134	1
62	73	4
35	37	2
153	153	5
181	181	2
60	60	3
54	55	4
84	152	2
92	94	3
32	32	1
174	176	7
122	123	3
14	16	3
156	157	6
61	61	5
78	78	4
55	55	7
96	96	6
145	146	5
178	178	4
17	17	4
47	47	4
13	17	5
120	120	3
139	139	2
92	92	10
179	180	5
159	159	3
17	18	5
28	30	3
87	129	2
13	13	2
145	145	2
57	68	2
107	108	2
110	110	5
180	180	7
155	155	8
140	140	4
70	73	3
4	4	4
117	117	5
178	179	4
83	83	1
67	67	2
121	121	1
92	114	3
35	35	2
41	41	7
67	91	4
58	63	5
54	56	1
74	76	3
90	143	3
138	138	4
82	127	3
172	172	7
64	66	12
35	36	1
112	117	6
76	76	13
154	170	3
90	96	1
58	59	1
86	86	8
56	67	1
4	56	4
156	175	2
166	174	2
106	143	6
176	176	1
134	134	6
88	109	2
19	19	2
46	46	1
152	152	2
64	64	3
53	54	3
9	44	2
179	181	2
44	47	3
120	121	2
187	188	2
5	6	1
108	112	2
171	172	1
118	118	4
123	124	5
4	5	2
16	18	5
167	167	4
183	183	4
151	170	1
91	94	3
103	103	5
83	84	1
107	173	4
187	187	2
37	37	7
25	25	4
154	155	5
8	8	4
99	99	7
162	163	2
97	98	1
17	23	1
15	17	2
72	73	1
111	112	2
132	132	1
134	137	3
123	125	1
61	93	3
54	54	1
171	173	2
85	110	3
130	130	5
188	188	3
111	113	2
85	115	2
185	185	5
74	75	6
18	18	1
84	84	1
167	168	2
78	80	7
29	29	5
168	172	2
45	48	3
129	129	1
150	155	2
100	100	5
109	111	1
148	149	4
118	132	5
23	23	7
9	9	1
128	129	3
12	12	5
116	165	2
148	148	3
190	190	2
30	34	1
80	80	2
149	150	2
142	143	5
27	27	2
23	24	2
156	174	3
171	171	3
104	106	1
57	77	2
108	109	5
157	170	4
170	170	1
178	181	2
79	82	3
45	46	2
33	35	4
52	52	4
182	183	2
146	147	6
95	95	2
117	120	4
169	182	3
147	174	2
119	119	2
104	105	2
27	31	1
31	38	1
58	58	2
111	114	2
2	58	1
54	99	1
83	118	1
117	118	1
63	118	1
28	28	1
24	24	2
6	17	1
22	22	3
4	6	1
169	169	2
178	180	2
171	181	1
11	11	1
155	156	1
100	118	2
97	97	2
165	165	2
6	6	1
43	43	1
104	104	1
38	90	2
147	147	1
136	137	2
18	20	2
122	122	2
81	81	4
135	135	2
33	44	1
1	78	1
36	37	2
158	164	2
56	56	2
10	45	2
67	180	2
62	62	2
65	65	1
82	82	2
95	156	2
179	179	2
30	30	1
27	28	1
145	156	3
90	90	3
173	173	1
92	136	1
127	128	1
137	137	2
5	5	4
126	126	4
187	189	1
182	182	3
125	126	2
0	0	1
172	173	1
123	123	3
85	116	1
102	110	1
163	163	1
161	161	1
180	181	1
109	136	2
177	177	2
114	114	1
158	158	2
38	98	1
10	31	2
5	12	1
96	97	1
59	63	1
156	156	2
10	12	2
107	109	1
65	68	1
13	15	1
7	25	2
110	115	1
10	21	1
140	141	1
107	107	3
125	128	2
188	189	2
98	98	2
176	177	1
114	115	1
110	121	1
7	8	2
112	114	1
32	96	2
157	157	2
31	35	1
127	127	2
186	186	3
110	113	3
142	142	1
39	39	1
52	53	1
70	70	1
89	173	1
2	2	1
141	142	1
135	139	1
29	30	1
66	66	1
16	16	1
