128	128	6
127	127	3
108	108	7
105	105	3
124	125	2
130	131	4
20	52	1
69	69	5
126	126	2
66	67	5
125	125	5
64	65	1
65	65	3
104	104	13
52	52	7
127	128	3
64	64	9
125	126	4
98	99	3
125	132	1
131	133	3
121	121	8
102	102	4
83	83	4
117	131	2
98	101	1
93	105	3
14	14	6
32	94	1
129	129	6
133	133	4
99	99	9
101	101	3
36	37	5
49	50	5
84	84	5
72	72	2
120	120	10
106	106	7
92	96	4
67	77	2
79	83	3
66	66	5
32	32	4
112	118	4
76	76	11
55	57	2
47	48	1
122	122	9
55	55	5
90	91	1
118	123	3
97	97	4
91	91	10
18	21	2
110	117	1
112	113	9
108	109	4
113	113	8
85	86	2
75	99	1
71	71	8
15	72	8
43	43	3
96	96	8
85	92	2
111	113	4
50	50	11
90	90	1
83	85	2
49	49	2
82	83	2
51	51	3
70	71	3
54	54	1
21	45	2
33	33	4
94	94	10
66	87	3
53	53	4
125	129	7
62	62	8
63	63	7
8	8	2
44	45	4
42	42	3
135	135	2
98	98	2
103	103	11
20	20	5
122	124	5
22	22	3
82	114	5
56	65	1
74	80	3
9	9	6
78	78	5
61	62	3
18	18	2
123	127	2
87	121	1
53	54	5
131	131	6
22	23	3
96	116	2
58	58	1
21	21	4
57	57	3
63	64	4
3	3	3
49	51	3
74	114	1
60	60	1
86	106	1
33	36	2
36	36	2
119	123	1
75	75	6
7	7	3
23	23	2
97	111	1
87	87	3
7	22	2
17	17	1
81	88	2
123	123	2
27	27	2
124	124	6
80	80	8
65	87	2
49	92	2
96	130	1
44	44	8
57	58	7
3	4	1
68	114	1
79	80	1
134	134	5
4	13	3
106	117	1
76	101	1
110	110	3
91	92	4
130	130	2
96	108	2
93	93	3
111	111	1
96	106	3
116	116	1
112	112	2
119	119	3
8	23	1
23	24	2
11	11	2
70	70	2
14	23	2
85	85	1
129	133	2
58	60	1
10	10	3
77	77	3
107	117	1
57	59	2
132	132	3
88	91	2
73	73	2
104	119	1
44	53	1
28	30	2
74	74	3
9	10	2
81	93	1
12	64	2
56	56	2
16	16	2
90	94	2
34	35	2
122	125	2
130	133	2
100	100	3
86	86	1
22	91	1
48	48	2
95	121	2
121	125	3
109	109	3
36	38	2
6	6	4
68	71	1
70	127	1
26	27	1
133	134	1
45	54	3
62	63	1
59	59	2
72	73	2
114	115	2
106	107	2
56	57	1
98	111	1
4	5	3
107	107	3
81	81	1
43	45	1
8	11	1
26	26	2
98	105	2
85	110	1
92	92	1
82	82	5
5	5	1
67	67	1
62	76	1
38	38	2
82	84	1
13	14	2
55	60	3
84	85	1
89	123	1
80	85	1
120	124	1
60	61	1
8	9	1
74	75	1
76	88	2
9	11	2
87	88	1
88	88	1
80	87	1
95	98	1
118	121	1
13	13	1
79	79	1
114	114	2
6	26	1
31	31	1
95	95	1
88	93	1
