69	70	9
70	70	12
30	30	10
68	68	8
154	154	9
19	19	19
13	13	18
29	95	3
45	45	5
77	77	8
32	32	12
57	58	3
99	99	7
110	112	1
104	105	4
15	17	4
20	20	2
8	8	10
78	83	4
36	150	1
92	127	4
117	117	7
67	67	12
10	11	4
41	41	36
71	71	19
66	66	13
76	80	5
125	127	3
53	53	11
146	147	3
133	133	16
38	39	3
128	129	6
33	33	7
144	145	8
30	105	5
20	21	2
51	51	4
5	8	2
65	68	3
109	109	2
54	55	2
122	123	4
95	97	5
144	144	11
22	22	13
126	133	1
100	100	15
73	73	4
26	86	2
18	18	8
38	38	8
4	6	1
24	24	19
16	16	22
23	23	14
92	96	1
111	111	15
49	68	4
83	84	8
139	139	4
42	43	5
30	31	3
86	86	4
15	15	9
29	29	14
150	150	4
43	43	1
47	48	7
120	120	6
47	47	6
25	25	5
3	3	3
21	21	10
110	111	5
16	18	3
33	34	6
90	90	4
55	55	9
64	64	8
87	92	5
36	36	14
5	7	5
12	12	10
76	83	3
39	39	19
137	137	9
82	82	2
134	134	6
73	78	3
9	9	18
46	46	13
36	37	2
142	144	8
41	42	8
126	126	3
119	119	9
80	82	2
8	9	4
87	93	2
88	88	1
78	79	4
28	121	1
72	72	6
4	11	5
65	65	7
85	85	16
10	23	1
48	48	14
57	57	4
42	42	8
146	148	1
42	44	2
11	12	6
115	115	5
122	122	4
10	10	5
153	154	4
65	66	6
124	124	2
121	121	6
4	4	10
100	102	5
118	118	7
136	141	5
5	5	4
37	38	3
149	149	7
15	16	5
39	40	1
27	27	1
4	36	2
13	14	7
93	93	3
22	23	1
49	50	2
109	114	1
34	34	6
137	138	2
135	135	13
71	139	1
83	83	5
31	47	3
12	13	5
5	6	4
6	7	4
97	97	5
27	30	2
82	87	2
69	69	3
112	113	1
82	84	2
35	35	7
108	115	1
81	81	2
131	131	5
136	136	5
33	37	1
151	151	4
94	95	2
104	104	4
124	150	2
75	76	1
17	18	2
133	134	3
14	15	6
49	130	4
103	104	7
105	108	2
40	42	2
141	153	2
119	122	5
137	139	4
49	67	7
6	8	3
81	82	3
44	44	9
32	39	1
112	114	4
116	116	4
11	13	3
94	99	6
62	63	1
34	35	2
4	5	7
50	50	2
110	110	8
40	40	18
37	37	9
130	130	3
24	25	5
21	22	4
25	26	1
123	125	5
102	103	6
56	56	9
101	105	3
48	49	4
40	43	1
25	33	2
11	11	14
83	94	3
109	111	3
19	20	8
26	26	10
53	107	3
53	56	4
84	84	5
49	49	5
141	141	4
24	47	1
81	84	2
110	113	4
2	9	2
18	19	4
146	146	2
110	114	2
109	110	1
35	37	7
145	146	2
120	122	4
152	152	7
128	128	1
127	127	5
26	87	1
29	30	4
30	106	2
147	147	6
90	91	2
129	129	7
28	28	1
108	109	3
99	102	3
100	116	5
24	122	5
46	53	2
72	73	1
14	14	5
17	17	8
77	78	4
5	12	1
145	145	2
138	138	2
27	28	4
45	65	2
95	95	2
107	107	11
152	153	2
29	90	1
118	119	2
109	113	1
106	106	7
79	79	4
97	99	7
74	78	1
84	85	1
136	137	2
27	29	1
94	94	3
68	72	1
96	96	2
76	79	1
45	57	1
98	98	5
120	121	3
146	149	9
106	107	4
10	13	5
94	97	3
153	153	7
108	108	5
55	56	5
3	4	3
125	128	3
108	110	1
126	127	1
2	27	3
71	88	2
11	14	3
31	31	6
123	126	1
50	51	1
62	62	2
41	153	1
33	35	3
58	58	5
74	74	6
32	38	1
48	133	4
65	91	1
85	86	3
114	114	4
73	76	1
51	52	5
73	74	1
98	99	5
116	117	3
31	32	6
50	53	1
35	36	2
66	67	1
129	131	2
9	12	1
134	137	1
105	105	1
78	82	2
47	49	1
77	98	1
64	65	1
120	124	1
75	84	1
55	85	1
87	87	1
113	113	1
16	21	2
123	124	2
113	114	1
95	96	2
95	99	1
45	46	1
93	94	7
6	6	5
115	116	2
54	56	5
34	38	3
77	89	4
24	41	1
75	75	1
11	23	3
27	87	1
77	92	1
63	63	6
56	62	2
7	7	2
2	5	1
50	85	1
25	27	5
24	87	1
49	53	3
125	126	3
45	55	1
67	69	2
124	125	1
73	79	1
26	47	3
50	74	1
102	102	1
103	105	1
101	101	1
80	95	1
76	77	1
96	99	2
103	103	1
53	54	3
16	17	4
64	96	1
76	76	4
75	77	1
143	143	3
54	64	1
132	132	4
46	54	1
66	68	1
99	100	3
66	96	2
10	12	1
45	51	1
124	129	2
112	112	1
71	77	1
143	144	1
44	45	1
123	123	2
61	61	1
78	78	2
77	93	1
96	100	2
54	54	3
75	80	1
125	150	1
50	86	1
25	30	1
13	17	2
22	137	1
79	80	1
126	128	2
52	53	1
123	127	2
46	48	1
23	24	2
39	119	1
107	108	1
109	115	1
22	123	1
24	119	1
45	50	1
3	36	1
122	125	3
69	146	1
7	8	1
76	84	1
80	80	1
24	40	1
56	64	1
