55	55	11
136	136	6
121	121	8
0	0	1
49	79	3
110	110	13
119	131	3
156	156	4
142	143	1
88	95	2
87	87	5
81	82	6
14	14	12
46	46	3
87	111	3
144	145	3
11	13	3
85	85	3
81	81	3
38	41	2
136	137	2
44	104	2
26	27	2
152	154	2
87	116	3
134	134	5
18	18	3
78	119	3
31	32	2
84	85	8
73	74	2
88	88	5
138	138	1
144	147	3
11	11	3
37	48	1
89	89	8
29	29	17
158	158	4
5	24	2
125	125	5
43	43	5
21	145	2
105	109	2
117	151	4
17	17	9
135	135	5
153	154	1
70	70	6
118	125	3
131	131	9
44	45	2
28	29	1
20	34	1
48	48	4
26	26	8
132	132	1
128	156	1
112	113	5
75	75	13
107	107	6
87	90	4
157	157	8
45	46	2
105	105	5
127	127	6
15	16	3
92	121	1
93	93	7
99	100	3
151	151	8
11	17	1
40	40	4
49	53	4
145	145	6
120	154	1
116	116	6
103	104	1
101	101	12
124	124	5
83	88	3
44	44	13
17	56	3
131	132	3
7	7	2
3	3	7
137	137	8
71	71	4
102	102	2
133	133	4
57	78	4
87	91	2
39	46	3
18	135	2
112	150	5
130	132	6
112	112	4
81	134	1
80	80	3
120	141	3
6	65	1
119	120	7
27	28	5
28	28	8
113	113	5
137	145	1
8	11	4
120	133	4
61	61	3
12	14	1
42	42	7
119	119	6
86	131	3
121	123	1
114	114	6
10	19	4
9	10	7
5	5	3
19	19	7
39	39	3
155	155	1
119	144	4
129	129	6
33	53	2
142	142	5
124	125	2
16	17	2
21	144	2
31	54	1
107	131	1
90	148	2
77	140	2
9	11	4
22	22	4
96	96	8
130	130	6
102	103	2
78	143	2
51	51	2
95	155	2
23	23	4
10	10	4
134	137	2
78	78	2
73	94	3
153	153	1
135	137	5
47	47	1
4	4	4
144	144	4
100	100	6
66	79	3
63	63	7
88	146	3
24	25	1
143	143	6
150	155	2
118	118	4
81	143	2
145	147	2
121	122	1
128	128	2
134	135	1
9	19	2
126	147	3
126	126	3
23	44	1
108	112	3
49	54	2
1	5	1
115	115	4
104	112	1
104	104	6
108	113	2
110	115	2
31	31	5
49	50	4
120	142	2
84	84	5
103	103	4
31	43	1
97	153	2
66	78	4
9	9	2
86	88	1
95	95	4
136	157	1
123	123	10
128	129	1
57	63	1
84	104	2
86	87	1
124	137	2
90	90	6
33	33	5
78	141	1
52	53	6
107	147	4
8	8	2
129	130	2
117	117	4
10	50	2
32	37	2
7	10	2
30	30	3
86	122	1
73	73	4
69	69	1
140	141	2
24	24	3
98	115	5
42	43	1
109	124	1
147	147	2
74	94	2
91	121	2
154	155	4
110	114	1
5	7	3
56	56	2
88	89	2
101	102	2
84	139	1
139	139	4
62	62	1
49	49	2
119	146	4
97	97	1
86	86	4
119	121	2
83	96	2
80	134	2
64	92	1
65	119	2
34	34	1
57	57	1
148	148	6
32	53	3
25	25	2
149	149	3
42	48	1
74	158	2
89	141	1
67	67	3
48	51	1
27	27	2
82	82	2
37	37	1
26	45	1
108	109	3
125	126	2
132	133	3
68	68	2
88	151	2
13	13	3
132	141	1
152	152	2
66	66	3
111	111	4
4	17	1
107	108	2
45	45	3
137	151	4
123	124	1
51	52	1
141	141	1
33	36	2
85	104	2
109	109	6
112	146	1
122	147	1
1	1	1
80	81	1
14	15	3
71	86	1
97	121	2
114	138	3
3	4	5
110	137	1
21	21	6
106	106	2
127	146	3
96	97	4
122	122	2
76	77	1
91	91	2
54	55	3
53	53	2
106	110	3
33	39	1
143	144	2
109	146	2
89	118	1
31	48	1
33	34	2
103	106	1
83	90	2
117	154	2
78	82	2
13	14	1
48	49	2
53	63	1
50	54	1
127	147	1
77	77	1
49	51	1
12	12	1
112	140	2
19	37	2
146	147	2
106	107	1
85	86	1
88	141	2
99	99	2
92	102	1
69	71	2
32	32	1
63	64	3
86	148	1
35	51	1
114	115	3
131	141	1
131	133	3
122	136	1
120	146	1
32	55	1
83	83	1
155	156	1
80	85	1
19	51	2
29	55	2
152	153	2
123	125	1
135	156	1
78	144	1
4	5	1
79	106	1
11	12	1
118	121	1
8	53	1
108	140	2
123	136	1
67	69	1
90	121	1
8	42	1
92	92	2
86	112	1
5	44	1
92	140	1
108	110	2
96	154	1
93	157	2
131	145	1
2	2	2
89	96	1
115	116	1
55	128	1
50	50	1
80	84	1
127	135	1
111	130	1
38	38	1
104	105	1
150	150	1
91	93	1
