92	93	10
14	14	2
11	26	3
86	86	10
134	134	9
110	111	4
11	37	1
118	118	4
118	120	4
27	27	3
98	124	1
96	100	2
129	129	12
72	84	10
74	74	5
96	116	2
129	133	4
132	133	1
6	6	12
96	96	7
134	135	6
12	12	15
5	89	4
28	28	1
21	21	9
23	119	1
74	75	2
24	38	3
135	136	1
103	104	3
26	26	9
126	134	2
93	93	5
31	31	2
11	11	3
125	125	4
28	29	4
80	126	3
16	16	5
9	9	15
16	78	2
103	103	7
91	91	12
140	140	11
100	117	3
35	35	13
111	111	10
87	87	4
13	108	3
114	115	6
123	123	3
139	139	11
79	79	4
128	129	4
29	29	6
7	9	6
13	14	3
128	128	10
122	122	13
89	89	7
106	106	4
105	105	5
98	99	5
78	108	1
139	140	4
83	87	3
80	80	5
28	30	2
29	30	6
126	126	14
5	6	1
81	86	2
98	98	11
25	26	4
116	116	5
24	24	3
137	138	3
77	77	4
37	38	2
16	18	2
101	102	1
96	117	3
0	0	8
72	72	1
115	115	7
137	139	5
114	114	7
112	112	3
109	110	1
131	140	3
80	86	1
131	131	10
3	4	2
102	103	2
19	19	5
10	37	3
119	119	5
106	107	4
11	12	1
18	19	1
135	135	8
4	4	2
28	32	2
78	80	4
102	102	7
7	10	2
131	132	4
10	11	5
25	25	4
7	7	2
17	17	9
95	108	1
71	71	3
105	119	1
97	97	5
84	104	1
15	18	1
129	130	4
17	18	4
107	108	3
109	109	6
84	84	1
22	23	4
18	18	1
101	101	6
111	112	6
21	22	2
107	107	3
72	85	4
133	133	8
75	75	8
22	22	14
113	126	3
6	89	2
127	135	1
20	118	2
117	117	2
132	132	4
129	132	2
22	79	3
23	23	13
14	79	2
76	77	1
120	122	3
0	3	1
137	137	9
81	81	2
18	21	2
94	94	2
3	3	2
121	121	1
120	120	6
21	79	1
99	100	2
24	25	5
37	37	4
112	115	3
80	83	1
104	113	3
9	11	1
32	32	2
84	89	1
93	94	2
72	75	3
36	36	2
82	85	1
136	136	5
138	138	9
29	31	3
100	132	4
130	130	3
138	139	1
103	106	1
6	7	2
16	17	3
107	123	1
18	22	4
2	105	5
95	97	2
1	1	4
87	104	1
100	100	2
2	13	1
10	22	1
7	8	2
89	90	2
99	99	4
8	8	3
7	24	1
112	114	2
104	104	6
10	17	4
84	119	1
36	136	1
5	5	3
17	80	4
88	88	4
127	127	4
38	43	1
36	37	1
126	127	2
88	89	4
2	107	3
84	94	2
34	34	3
17	36	2
17	99	1
125	126	2
108	108	1
11	18	2
2	2	3
15	19	2
104	115	2
72	73	2
13	13	1
10	19	1
85	139	1
90	90	2
100	125	3
91	103	1
12	14	1
1	2	4
16	80	2
100	101	2
81	120	1
35	36	1
30	30	2
125	139	1
103	121	1
23	66	2
5	29	1
96	99	1
4	6	1
26	27	1
83	83	1
108	109	2
73	73	1
87	88	1
121	122	3
4	12	1
15	15	1
20	20	3
8	9	1
87	106	1
110	110	3
34	36	1
21	23	2
1	3	1
20	121	1
73	102	2
77	79	1
95	95	1
19	26	1
17	20	1
78	78	1
95	116	1
32	37	1
77	116	1
83	102	1
127	129	1
0	2	1
87	90	1
71	82	1
114	123	1
12	20	1
14	15	1
