43	43	17
89	89	15
111	114	2
20	20	8
103	103	13
74	75	7
80	80	14
10	90	3
38	38	10
17	17	19
52	52	12
118	118	12
30	30	17
68	68	15
47	47	13
98	108	2
87	87	9
106	106	13
62	62	12
0	0	16
128	128	8
98	99	5
25	27	3
91	91	5
62	63	19
75	79	3
5	5	9
29	30	9
48	48	13
119	119	4
77	94	2
57	57	15
112	112	11
116	132	1
27	27	16
44	44	23
74	74	15
10	14	3
63	63	11
92	92	11
18	18	17
1	20	1
60	60	21
107	107	13
115	115	17
55	55	10
39	88	2
46	46	14
25	25	14
131	131	6
32	32	7
63	75	3
55	66	3
15	15	12
22	22	11
51	51	24
24	26	3
56	56	26
123	123	11
90	90	10
127	127	12
75	76	2
39	39	18
13	16	4
31	32	5
83	83	8
88	89	18
113	127	3
124	126	6
42	45	2
69	69	13
118	124	4
14	17	2
111	111	9
117	122	2
9	10	6
70	72	8
40	45	1
7	7	10
126	126	12
81	81	10
24	24	9
64	64	13
33	33	9
28	28	8
18	19	5
15	16	14
15	47	4
85	85	5
130	131	3
108	109	4
49	49	16
101	102	8
18	24	5
101	119	3
128	129	3
55	64	3
98	98	6
2	2	9
93	94	3
46	47	12
99	117	1
10	10	21
53	54	4
109	109	12
6	7	2
4	4	12
42	42	8
19	19	15
84	84	12
122	122	5
96	98	2
116	116	6
67	67	16
70	70	14
72	72	7
54	54	9
99	100	8
102	102	10
94	97	3
61	61	5
0	1	5
121	122	3
53	53	11
0	13	1
33	34	9
41	41	19
120	131	5
73	73	9
129	131	1
94	94	8
90	93	1
45	46	13
19	20	9
96	96	11
1	2	1
93	93	11
60	61	7
58	67	2
97	97	15
101	101	8
17	22	3
102	103	7
27	28	7
94	95	2
107	108	3
125	125	13
122	123	2
72	73	9
58	58	5
105	105	14
16	23	4
104	105	2
97	103	2
65	65	9
13	14	12
19	22	2
15	18	3
65	66	15
1	1	10
79	79	15
78	78	10
3	13	1
31	31	9
40	43	3
44	58	2
78	79	4
57	58	4
124	124	14
127	128	2
77	77	11
26	26	9
73	76	2
2	3	3
117	118	9
76	76	13
44	45	6
30	33	3
6	6	7
41	47	2
75	77	7
90	92	1
21	22	8
22	23	4
113	114	2
71	71	7
76	77	3
2	13	2
21	21	11
75	75	8
113	113	13
23	23	6
14	14	9
59	59	10
113	116	1
34	34	2
3	3	7
95	95	4
40	41	9
44	78	1
80	81	4
104	104	6
58	60	6
50	50	15
114	114	9
11	25	2
14	15	3
44	63	2
117	117	14
0	19	2
40	40	17
5	6	3
82	85	5
114	131	3
38	39	11
67	78	1
12	12	15
112	113	5
98	103	1
99	99	4
57	61	4
13	64	1
123	130	2
41	43	3
16	44	6
61	64	4
42	43	3
117	119	2
89	91	4
91	95	1
116	124	2
23	43	2
133	133	9
129	130	4
71	74	1
119	131	3
59	61	4
17	23	3
82	82	8
108	114	1
21	39	2
41	44	3
100	128	1
66	66	10
104	107	3
87	88	8
8	8	13
3	4	2
120	121	1
32	33	1
47	48	3
27	42	1
45	69	3
107	109	2
129	129	6
86	86	5
99	103	2
67	68	4
97	98	5
63	65	2
124	130	1
106	107	4
120	120	13
115	116	2
29	29	10
57	65	3
130	130	10
18	43	2
28	32	1
121	121	9
99	118	4
66	67	3
108	108	5
128	131	4
110	110	12
69	70	5
77	85	1
94	98	2
14	47	2
100	100	9
60	63	7
45	65	2
105	111	4
63	64	3
3	20	2
126	127	4
105	106	8
126	131	1
28	31	2
16	18	2
57	62	4
15	39	4
73	74	3
102	126	1
7	31	3
119	120	2
42	47	2
16	16	10
86	88	2
16	22	3
3	16	1
102	125	1
117	121	2
119	123	2
76	80	1
81	82	3
95	96	2
8	9	2
14	20	1
113	129	2
28	29	4
79	81	5
46	54	1
85	86	5
7	59	4
11	11	7
48	49	2
41	42	4
25	65	1
94	96	2
50	51	3
131	132	3
20	106	1
15	17	2
43	45	2
115	130	1
54	55	7
13	13	10
56	69	1
0	10	1
46	93	1
123	125	2
69	86	2
22	25	3
23	41	2
85	87	3
44	67	3
61	63	2
27	67	2
117	120	1
100	103	2
62	102	2
73	75	1
52	123	3
123	124	1
96	97	2
68	71	2
44	70	2
70	100	1
18	21	4
82	84	2
119	125	2
68	70	2
51	53	4
26	27	2
32	92	1
78	81	2
19	37	1
31	33	2
17	21	2
113	117	1
40	59	3
101	103	2
78	102	1
9	9	4
20	65	1
20	80	1
10	11	1
43	44	2
0	2	2
58	59	6
45	45	3
103	105	1
0	12	2
42	44	4
77	79	1
68	69	2
1	7	1
40	86	1
87	89	1
11	12	1
49	66	2
116	117	2
18	41	1
124	125	8
91	93	1
3	95	1
18	28	1
60	62	1
51	52	3
49	116	2
114	115	5
54	68	1
114	116	4
85	88	2
59	62	1
23	26	2
68	77	2
48	65	2
54	56	2
5	8	1
70	71	3
44	81	2
83	87	1
27	29	2
101	104	2
27	33	1
132	132	3
87	96	2
79	85	1
16	66	3
101	118	2
7	8	2
66	68	2
11	13	1
86	87	2
4	130	1
1	5	3
99	101	1
82	83	2
106	110	1
82	87	1
30	31	1
125	126	1
88	88	4
15	45	2
6	8	2
12	13	2
105	109	1
127	129	3
111	112	1
60	119	1
19	25	1
16	17	3
13	24	2
68	75	2
99	102	1
19	21	1
52	133	1
77	78	1
9	46	1
2	4	1
110	113	1
4	5	1
23	24	1
84	85	1
85	89	2
8	90	1
22	44	1
113	115	2
75	97	1
107	110	2
49	50	1
21	38	1
80	102	1
109	111	1
65	67	1
24	25	1
13	15	2
14	72	1
72	74	1
108	117	1
4	96	1
18	79	1
125	127	1
97	126	1
76	96	1
9	90	1
25	26	1
54	65	1
87	98	1
19	26	1
111	113	1
110	116	1
59	63	2
33	42	1
79	80	1
90	91	1
4	73	1
61	62	1
71	72	1
46	48	1
105	107	1
