26	26	2
24	24	6
108	109	5
101	101	7
13	13	6
2	2	3
53	56	6
76	99	2
127	127	5
68	108	5
70	71	2
91	91	10
133	133	3
33	33	4
44	57	4
119	119	6
110	111	1
105	105	6
53	53	1
130	130	3
113	121	3
22	22	4
70	101	2
108	133	1
62	62	5
34	34	12
10	10	3
38	38	4
82	87	2
133	135	2
8	106	1
53	55	4
59	62	2
118	128	2
61	65	2
2	4	2
30	30	4
14	14	3
33	98	4
117	117	4
67	67	1
115	115	3
105	126	4
86	86	5
16	59	2
8	10	1
45	132	1
83	83	4
44	44	3
109	129	2
122	122	1
91	96	1
58	58	8
59	59	4
21	126	2
10	11	1
57	57	8
88	88	4
99	99	8
28	29	1
8	9	2
87	88	2
81	128	3
118	118	6
78	79	1
12	59	1
84	122	1
70	70	5
36	36	3
25	27	3
121	121	10
27	27	5
123	123	3
50	55	2
18	21	2
100	100	9
15	124	3
74	74	2
110	110	8
90	99	4
62	87	2
94	94	5
64	64	1
113	117	4
98	98	5
99	134	2
95	95	3
12	13	4
119	120	2
37	37	1
5	28	1
73	73	7
15	15	4
23	24	3
13	36	2
66	66	2
118	133	3
112	112	3
19	19	3
111	129	3
90	90	5
86	87	1
1	5	1
65	128	2
112	113	2
29	35	2
37	96	2
113	113	6
32	33	1
18	24	3
50	50	3
79	79	4
81	82	1
34	35	3
97	112	2
85	85	6
76	76	7
125	125	3
63	63	1
95	120	1
65	107	1
125	126	1
56	59	3
52	52	6
7	7	1
21	21	3
55	59	1
103	104	3
52	53	1
84	85	1
72	73	2
35	35	2
6	103	1
45	45	4
91	92	3
56	58	2
76	77	1
99	108	2
19	78	1
116	116	1
68	77	2
106	109	2
94	95	2
67	88	1
114	114	1
124	124	5
91	95	1
28	28	5
113	114	4
30	31	1
81	81	2
48	50	3
0	0	2
82	83	3
135	135	1
21	34	2
69	69	5
65	65	2
106	113	1
42	42	2
16	16	4
11	19	4
100	106	1
66	67	2
31	31	1
104	104	1
84	117	1
78	84	3
61	128	3
101	128	2
134	134	1
106	106	4
45	58	1
126	129	2
61	61	2
11	12	1
97	98	1
64	80	1
114	122	2
128	128	1
85	116	1
77	77	2
78	78	3
25	25	1
7	8	2
70	112	4
26	43	1
49	86	1
67	68	3
1	3	1
80	81	1
20	20	4
57	66	2
69	82	1
45	53	1
75	75	1
89	89	2
129	129	1
8	8	1
36	44	1
126	126	2
47	47	2
108	108	2
106	123	1
60	60	1
11	43	2
84	84	1
92	92	1
61	107	1
82	82	1
3	4	1
102	103	1
67	78	3
14	25	1
23	68	2
93	93	3
6	6	1
114	133	2
111	125	2
17	17	1
97	97	2
65	66	1
102	135	1
117	122	1
96	121	1
54	55	1
111	111	1
117	124	1
44	45	1
82	120	1
83	132	1
20	24	1
113	116	1
