54	84	2
72	72	3
60	60	15
83	83	5
32	33	3
79	79	30
98	98	8
51	51	14
80	93	3
34	49	3
24	27	4
78	78	10
41	41	22
31	31	19
42	42	7
46	46	19
43	79	2
102	102	3
90	92	5
33	85	4
32	36	1
69	73	2
65	69	3
80	81	6
20	27	4
81	81	9
95	95	12
63	64	8
38	45	3
42	43	4
79	80	10
62	100	3
67	68	4
57	57	5
94	94	11
65	65	7
77	77	8
101	101	16
24	26	12
37	38	2
55	55	4
94	96	7
70	70	5
27	27	4
90	90	14
88	88	9
66	66	13
79	92	1
49	49	15
45	45	1
58	58	22
96	97	6
65	66	3
67	67	13
86	87	1
59	59	13
86	88	4
61	61	9
69	69	8
76	76	7
89	89	16
81	82	13
33	33	8
93	94	1
20	29	5
54	54	2
62	83	3
68	68	11
86	94	2
100	100	11
91	101	1
91	91	9
44	44	8
40	51	1
47	47	8
57	74	1
97	97	5
96	96	10
80	80	6
65	68	4
71	71	2
66	67	4
56	57	7
56	59	1
83	84	1
35	35	8
73	73	3
66	68	5
31	56	2
30	32	3
85	85	8
62	65	1
63	63	4
55	84	6
48	50	5
32	32	12
26	26	3
54	87	1
71	72	5
72	74	2
49	50	3
89	99	2
53	53	7
79	100	4
66	74	1
87	87	7
68	69	5
25	28	2
23	23	2
89	90	3
73	74	5
29	29	4
34	59	2
75	75	5
60	61	4
92	92	3
93	93	5
53	54	3
52	53	1
74	78	1
58	70	8
24	24	4
88	95	2
48	49	6
38	40	4
66	69	2
54	88	2
97	98	3
52	52	3
64	70	1
39	39	3
26	27	2
69	76	1
46	51	1
33	34	1
94	95	1
62	62	7
78	79	3
48	48	4
64	64	13
46	47	4
34	34	6
69	77	4
43	43	1
101	102	2
46	49	2
74	74	3
87	95	1
22	82	1
45	51	1
55	88	2
39	58	4
69	70	1
63	78	2
96	101	2
75	76	1
98	99	5
50	50	4
86	86	3
44	52	1
36	36	3
99	99	10
57	68	2
100	101	5
35	44	2
70	76	1
28	28	2
41	42	1
94	98	3
45	46	2
25	25	6
90	99	4
38	44	1
27	28	3
56	56	3
38	38	1
37	37	1
95	97	2
44	93	1
90	93	1
60	62	2
31	32	1
47	54	1
33	36	1
40	40	1
68	70	1
57	58	1
60	79	1
63	100	1
46	56	3
32	54	1
84	100	1
84	87	1
47	48	1
84	99	1
74	75	1
