190	190	2
51	51	12
192	193	2
21	22	4
128	128	13
99	99	8
40	40	8
160	160	7
163	163	7
57	57	16
19	19	11
54	56	8
9	9	26
81	81	4
139	140	5
41	42	6
173	173	10
149	149	11
22	25	4
22	23	2
140	140	20
37	37	7
147	147	7
157	157	16
134	134	15
76	77	6
26	27	4
30	30	3
99	101	7
134	135	11
70	70	5
46	46	19
167	167	5
9	10	11
113	113	7
123	124	2
149	150	5
171	172	1
23	26	1
147	148	1
136	137	1
137	139	1
191	191	6
174	174	6
27	27	9
177	177	11
22	22	7
196	196	7
18	18	9
153	153	7
59	59	2
107	107	13
32	33	2
133	133	7
27	28	11
152	164	4
103	103	6
140	160	1
74	74	8
32	32	5
34	34	11
148	160	3
162	162	6
138	138	9
10	12	5
169	170	3
44	44	10
8	8	11
43	43	8
52	52	8
154	154	17
29	30	4
197	197	4
150	150	5
143	143	12
94	107	2
79	79	2
0	0	12
133	139	1
150	156	3
26	26	17
117	117	3
152	153	4
118	118	8
113	114	4
40	41	10
124	125	6
168	168	12
159	160	3
93	93	3
38	38	13
145	148	5
186	186	6
176	178	6
48	48	11
74	75	2
78	78	7
156	156	4
125	125	8
188	188	6
40	42	7
64	64	5
135	135	6
137	152	4
15	15	11
24	24	13
171	171	18
31	31	8
139	145	6
31	56	4
85	85	6
171	180	5
182	182	15
36	37	9
18	38	5
166	166	14
69	69	5
106	106	7
190	191	8
137	137	8
114	114	8
132	133	6
116	116	9
64	65	3
14	31	2
36	36	16
108	108	4
189	189	18
52	54	2
157	158	7
143	144	3
77	79	1
42	42	11
130	132	4
189	190	5
68	68	7
101	101	16
15	16	13
0	1	1
178	178	6
148	150	2
96	96	12
159	164	4
15	103	1
158	159	7
172	172	18
172	180	7
141	141	16
39	39	3
146	147	8
2	2	3
30	177	2
53	53	8
119	120	5
28	29	1
106	114	2
112	114	3
47	49	1
43	79	2
148	148	6
179	179	10
164	164	15
192	192	2
176	177	6
105	110	1
38	182	3
3	3	3
105	105	2
86	87	6
179	191	4
145	146	1
108	134	2
119	119	12
28	28	9
55	55	2
32	55	3
38	39	2
33	33	6
163	164	6
26	29	4
169	169	9
188	194	3
57	58	6
39	40	4
141	168	2
130	130	7
12	49	1
187	187	12
12	12	11
15	183	4
4	4	9
10	10	9
102	102	8
4	21	2
71	72	2
165	165	4
186	189	3
175	175	9
159	159	4
122	122	5
156	157	5
146	158	3
24	25	5
54	128	1
14	14	13
111	112	3
50	50	5
17	17	8
36	50	1
41	41	8
132	134	7
120	120	5
173	174	1
152	152	8
97	98	3
150	170	4
155	155	8
142	143	1
193	193	6
18	19	2
115	115	7
180	180	6
181	182	2
128	183	2
16	16	3
187	189	4
80	80	3
181	181	10
108	130	4
98	98	12
150	157	1
160	165	1
151	160	2
33	147	1
175	179	2
101	102	5
178	190	2
25	25	11
142	142	7
112	112	8
111	139	3
170	171	2
133	169	4
11	13	8
184	184	5
170	170	10
5	197	3
97	97	5
144	145	7
12	13	4
50	51	4
84	93	3
147	157	5
99	100	3
94	94	7
169	171	5
24	27	1
127	149	1
68	77	2
32	39	4
104	104	9
136	144	4
67	70	1
56	56	9
138	139	6
153	158	2
23	25	2
9	11	1
151	151	7
130	131	3
42	44	2
123	123	2
11	15	2
138	151	3
23	23	9
17	41	7
110	111	4
78	79	2
105	106	5
173	179	3
194	195	3
124	124	14
110	110	5
11	14	3
30	31	3
143	151	2
1	1	4
127	127	4
195	195	4
109	109	5
14	48	4
171	187	2
175	177	2
0	2	4
139	139	12
121	123	3
89	89	3
34	38	1
122	128	3
47	47	11
187	190	3
49	49	3
185	185	6
114	115	5
114	119	1
186	187	2
8	9	3
138	152	1
62	62	3
59	61	1
188	189	2
106	145	2
131	131	4
45	45	13
165	167	1
154	155	4
185	186	3
142	147	2
96	97	5
85	86	1
94	96	1
5	6	5
172	179	3
67	77	1
0	21	3
145	145	5
129	129	8
136	136	2
153	156	3
14	15	1
57	112	2
16	24	1
7	7	4
66	66	4
115	116	4
135	136	1
153	160	2
120	122	1
193	194	3
23	170	2
151	152	2
26	35	3
83	83	1
16	17	3
11	11	2
11	23	2
33	34	6
175	181	2
8	194	2
34	37	3
77	78	2
73	76	1
148	149	5
17	190	3
73	73	9
163	175	1
116	134	1
53	55	2
45	46	3
170	195	1
146	146	11
47	54	2
160	164	4
139	169	2
144	146	1
187	196	1
63	64	2
10	11	5
95	95	2
179	180	4
22	27	1
178	189	2
171	177	1
111	157	1
68	69	1
163	165	1
37	177	2
148	159	1
28	34	1
141	160	1
12	16	1
142	182	1
151	162	1
18	41	1
173	176	2
23	24	2
194	194	4
147	159	2
140	142	4
132	132	1
28	35	1
77	77	3
168	172	2
8	189	1
183	183	6
151	164	4
152	182	2
158	158	6
58	58	2
88	89	1
29	29	3
154	197	1
121	128	4
185	187	2
140	143	1
118	135	1
20	20	6
191	192	1
115	117	1
1	2	1
139	142	1
138	150	2
133	181	2
104	105	2
189	192	1
154	156	1
5	26	2
147	156	1
125	126	1
82	82	1
88	88	3
115	136	1
70	72	3
22	29	1
178	179	1
79	80	1
42	43	1
54	55	3
176	176	3
163	174	1
167	168	1
150	160	1
152	157	3
53	56	1
23	29	2
158	172	2
133	134	1
189	194	1
158	168	2
25	26	2
112	115	2
156	174	2
182	183	3
184	185	3
35	35	2
45	54	1
74	76	2
72	72	2
39	43	1
137	138	2
134	139	1
157	170	1
54	54	3
162	163	1
133	161	1
32	35	1
94	95	2
19	38	1
80	81	2
43	44	1
66	69	1
34	35	2
7	21	1
168	169	4
37	38	5
118	119	1
168	170	1
103	113	1
161	161	5
174	177	1
155	156	2
152	156	1
8	37	2
149	159	1
130	134	1
100	101	1
136	138	1
187	193	2
121	121	2
13	13	2
138	140	2
33	50	1
97	105	1
104	115	3
18	180	1
24	31	3
106	110	1
65	66	2
9	14	2
52	67	1
131	135	1
123	138	1
13	14	1
148	156	2
110	121	1
131	134	1
126	127	1
6	24	3
4	5	4
114	118	2
63	66	2
76	76	1
136	146	1
50	130	1
73	94	1
149	181	1
16	18	1
187	197	1
102	103	1
47	48	2
100	100	2
35	38	2
185	189	1
177	195	1
179	190	2
161	162	1
5	5	2
8	11	1
69	72	2
52	109	1
123	125	1
123	127	1
55	56	1
131	132	2
63	63	2
105	145	1
17	20	1
58	93	1
109	116	1
18	36	1
35	37	1
10	13	1
19	20	1
87	88	1
15	33	1
174	175	1
159	166	1
187	188	1
