76	76	5
7	7	11
55	55	8
17	17	7
64	65	6
70	70	11
48	50	1
35	35	7
36	77	4
62	62	8
57	57	5
8	8	6
69	69	8
27	27	17
55	56	11
71	71	9
54	54	18
52	68	6
53	53	11
34	35	4
58	59	15
19	35	5
46	48	2
74	74	10
51	63	3
5	6	5
36	36	5
60	60	9
68	68	2
60	76	5
20	35	3
67	68	5
60	61	17
61	61	25
19	34	1
42	42	18
5	5	8
59	74	1
25	26	2
68	71	2
49	50	4
65	65	5
0	0	9
56	56	10
46	46	6
1	6	1
38	39	5
40	40	10
4	4	17
3	3	8
8	12	2
50	51	5
63	65	1
2	2	16
65	66	4
58	58	11
37	38	4
20	20	5
52	52	12
6	6	9
50	52	2
7	8	2
21	65	2
41	41	10
72	72	13
0	11	1
29	38	4
18	19	2
12	12	7
1	1	3
27	49	3
48	48	17
56	57	3
9	9	14
78	78	5
6	10	2
49	49	9
10	12	2
31	33	6
39	39	12
52	53	2
34	79	1
16	16	6
77	77	9
66	66	9
57	61	6
59	59	9
80	80	12
30	30	8
25	25	3
18	18	4
56	60	2
69	70	6
15	15	2
33	40	5
47	47	7
44	45	5
63	72	5
26	26	9
64	64	7
29	29	9
40	79	2
32	32	8
32	33	2
3	4	5
1	4	3
1	28	2
34	34	12
13	14	3
37	37	2
33	35	1
68	69	2
30	35	3
10	11	3
52	54	1
33	49	2
66	73	2
10	10	3
67	67	5
29	48	4
74	75	5
68	70	5
70	71	3
15	16	3
50	50	6
73	73	9
63	63	8
4	41	4
13	13	2
17	18	2
45	46	2
19	19	3
10	63	1
33	33	5
12	13	1
13	80	2
45	45	5
19	20	3
79	79	2
19	79	1
30	32	1
53	54	2
75	75	8
1	2	3
69	71	3
27	48	4
71	72	3
73	77	3
42	43	3
33	78	1
14	14	5
19	26	3
2	3	1
58	60	2
41	42	4
31	31	5
8	65	1
50	53	2
42	56	2
21	21	1
30	50	1
62	76	1
9	79	2
54	55	1
16	17	2
54	56	1
73	74	2
55	60	1
34	39	2
5	28	1
30	67	1
51	51	4
27	40	1
7	9	1
33	47	3
43	43	2
17	77	1
13	15	1
48	60	1
40	41	2
21	31	2
15	17	1
1	7	1
37	62	1
11	14	1
9	10	1
41	43	1
50	71	2
11	11	1
61	62	3
48	52	1
38	38	3
63	64	1
78	79	1
9	56	1
49	71	1
8	16	1
28	28	2
57	58	1
28	29	1
76	78	1
32	34	1
47	77	1
49	51	2
78	80	1
26	56	1
50	70	1
