13	13	6
64	64	13
117	119	7
129	129	6
11	12	2
127	128	3
39	39	8
98	98	9
88	88	3
113	116	1
20	21	6
19	19	25
23	36	2
103	103	6
69	69	19
21	21	17
32	33	5
71	71	11
112	115	2
81	86	5
131	131	11
81	81	4
48	48	4
86	86	8
45	45	15
42	101	5
92	94	3
128	128	6
107	107	1
78	78	9
76	76	4
24	26	4
127	127	4
94	95	7
34	74	4
92	92	12
95	95	10
93	93	5
32	32	7
29	60	1
75	75	5
122	122	3
83	88	2
34	35	4
29	29	4
103	107	2
100	100	10
84	84	9
20	20	10
31	32	11
22	35	3
77	86	3
66	66	13
79	79	8
58	58	8
90	91	3
12	13	6
16	16	5
30	37	4
11	11	12
47	47	3
42	42	2
35	60	2
11	93	2
99	99	6
116	116	12
31	31	5
27	27	2
27	35	1
97	100	3
92	93	2
60	60	10
26	26	13
45	46	7
84	85	1
18	18	6
104	104	3
7	33	4
29	36	3
29	32	2
74	75	1
19	85	4
57	113	3
85	85	6
82	82	4
21	42	3
12	46	8
117	117	5
44	45	4
21	22	4
7	10	8
114	114	3
17	19	6
112	113	3
11	26	5
44	44	1
81	83	2
70	70	8
1	3	7
38	90	1
7	7	9
96	111	2
110	128	2
41	44	1
82	83	11
6	93	2
116	117	5
124	124	4
77	78	4
20	35	2
97	97	8
30	31	5
85	131	8
91	91	8
55	55	3
62	62	6
65	65	5
112	116	7
93	94	3
35	35	6
24	24	5
36	36	4
109	110	6
45	101	2
109	109	2
20	39	2
9	14	4
79	80	5
73	74	3
9	9	2
43	45	5
69	71	5
119	119	1
57	57	6
69	70	5
29	59	3
46	84	2
121	121	2
36	45	3
40	40	4
90	105	1
70	71	2
29	31	3
46	46	5
27	92	4
5	5	3
40	100	2
43	44	5
63	63	3
14	14	2
58	59	4
90	90	2
99	103	2
48	49	2
22	26	2
34	34	6
111	111	4
83	87	1
132	134	3
85	86	6
73	73	4
11	13	2
10	10	3
3	45	3
59	60	3
79	82	2
8	8	6
109	111	4
27	28	5
79	97	2
117	134	3
36	37	2
48	94	1
9	10	6
133	133	6
119	120	5
77	77	7
83	83	8
58	108	5
78	80	1
16	19	8
35	36	1
33	33	3
12	12	4
87	87	3
49	77	1
46	47	6
33	34	1
95	102	2
108	111	4
84	87	1
72	73	1
26	27	5
68	68	5
47	49	4
101	102	4
61	62	1
120	120	7
113	113	2
118	118	6
89	90	1
88	96	1
61	61	4
27	122	4
72	72	7
91	105	2
94	94	3
108	109	2
18	77	2
5	6	1
43	43	4
82	87	3
8	61	1
67	68	2
31	77	2
35	45	2
89	100	3
100	102	2
98	100	1
25	61	1
40	41	2
27	70	1
98	99	1
66	83	1
41	41	2
28	28	2
58	75	1
93	98	1
82	131	1
4	4	1
10	11	2
37	37	1
111	112	3
110	111	1
46	71	1
18	83	1
83	85	1
110	110	4
45	71	2
38	38	1
116	120	2
30	40	1
44	46	1
62	64	2
10	13	1
34	78	1
111	117	1
6	6	1
64	74	1
12	14	1
79	81	2
69	79	2
93	95	2
70	77	2
130	130	2
66	68	2
101	101	1
114	122	1
65	67	1
78	82	2
108	108	1
11	33	2
62	70	1
49	50	1
131	132	2
30	30	1
76	77	3
37	38	1
1	1	1
70	72	1
45	99	1
2	2	1
13	14	1
83	84	1
23	23	1
73	76	1
37	44	1
45	64	1
16	17	1
25	25	1
13	101	1
25	26	1
97	98	1
115	117	2
77	90	1
88	115	1
3	16	1
124	126	1
81	82	1
68	70	1
102	102	1
76	111	1
3	3	1
120	129	1
129	130	1
8	35	1
11	15	1
