6	6	50
72	72	70
16	19	2
28	29	12
85	126	2
29	29	29
43	44	16
53	53	57
13	21	2
79	79	53
65	65	58
113	129	1
91	96	2
98	98	85
84	84	88
47	47	14
95	112	2
78	78	73
130	131	21
42	43	7
1	79	3
19	19	42
121	121	59
83	84	19
103	103	84
87	87	51
84	85	32
118	118	56
1	2	20
116	116	62
127	131	1
78	84	4
0	0	21
112	112	56
8	8	33
84	109	3
70	70	70
128	128	40
61	61	54
35	50	1
44	57	5
82	82	62
113	120	2
35	135	1
67	68	16
45	72	1
114	114	89
2	32	6
57	57	45
119	125	8
49	49	28
58	60	8
31	31	41
33	38	6
34	35	8
45	45	33
65	86	3
94	95	20
93	93	68
125	125	57
92	92	44
65	67	7
120	121	16
125	126	8
76	98	1
82	83	28
127	127	71
32	32	36
52	52	41
90	90	73
77	100	6
109	110	29
20	49	4
104	104	76
65	68	10
97	97	50
30	37	6
86	93	6
26	105	5
54	54	52
126	126	47
84	125	5
116	130	3
82	85	10
133	133	40
56	59	3
117	117	82
91	91	50
23	23	41
113	113	60
89	89	65
22	24	13
96	96	33
113	131	1
56	57	17
95	95	79
34	102	2
68	68	32
107	107	53
32	34	8
34	34	44
114	115	22
25	25	19
132	132	46
59	59	72
7	7	29
103	104	15
83	83	55
115	115	73
36	36	50
113	133	4
58	58	37
64	64	48
94	94	55
2	6	8
92	122	3
119	119	42
91	134	5
65	66	14
51	53	2
12	12	54
74	74	60
67	67	60
132	133	24
58	59	19
50	114	2
17	22	10
109	109	52
5	5	44
111	118	4
71	71	70
74	75	28
84	108	9
120	120	73
8	11	6
81	81	36
76	76	79
101	101	70
85	85	47
102	102	67
17	17	19
11	11	31
13	22	3
7	8	14
28	28	53
84	86	4
105	106	18
63	63	89
17	92	1
77	77	82
14	14	48
26	26	42
106	106	76
43	43	50
60	60	42
69	76	5
124	124	56
70	118	1
82	84	10
112	113	13
50	79	6
96	110	2
66	79	4
98	104	2
79	80	12
108	110	16
60	61	24
73	74	16
4	4	44
94	100	3
10	16	2
15	77	3
66	66	54
31	32	10
22	115	1
21	21	41
61	69	2
87	88	11
64	67	5
122	123	23
61	86	5
65	80	12
96	112	3
54	55	24
19	63	7
96	106	7
134	134	30
82	98	4
73	73	46
96	131	5
99	99	59
89	90	35
29	126	1
52	53	26
82	96	1
24	24	23
110	110	43
30	31	6
18	18	20
86	86	50
90	94	2
125	129	3
47	51	12
96	98	6
46	47	2
53	80	12
50	50	36
90	91	9
92	93	14
1	1	32
60	96	1
100	100	45
34	60	3
84	87	3
37	85	5
112	114	16
93	97	7
62	62	48
8	57	7
75	76	7
95	122	2
33	33	46
44	45	10
9	44	7
129	129	75
30	30	51
68	69	17
86	87	37
66	68	1
45	57	5
39	66	2
55	55	23
107	119	1
131	132	4
82	132	6
105	105	71
96	97	27
69	69	48
46	133	2
5	7	6
33	90	3
106	107	35
15	16	12
25	60	6
2	14	3
77	78	41
10	26	2
115	130	6
106	115	4
133	134	11
21	22	34
49	50	19
80	80	57
10	11	17
108	109	20
67	69	7
85	124	9
121	126	1
111	112	8
129	131	6
62	79	2
56	107	6
127	128	26
22	22	36
58	121	6
56	79	3
86	91	7
67	84	4
35	35	17
76	79	9
13	13	30
49	130	5
108	108	49
97	99	4
86	121	1
57	58	23
108	114	5
80	83	5
64	83	6
96	100	3
50	99	1
128	129	14
33	34	20
85	110	4
52	106	2
64	106	5
53	56	1
97	106	3
130	130	42
109	111	18
60	83	4
2	2	30
61	63	7
115	118	6
20	20	30
33	84	5
27	56	4
111	122	9
9	58	3
88	88	73
62	64	2
91	92	31
26	27	2
57	95	1
87	116	4
26	92	2
75	98	2
81	92	1
100	102	4
24	61	3
30	35	1
77	80	3
53	54	13
127	129	7
56	58	10
107	110	5
132	134	3
110	113	8
4	23	1
8	19	2
64	81	6
64	66	3
37	37	13
59	65	5
16	17	10
105	112	4
71	72	20
11	12	3
76	77	5
83	87	6
62	91	1
22	25	2
3	7	5
91	108	1
123	123	52
27	27	23
9	9	25
120	122	7
97	128	3
114	130	4
48	125	4
104	105	13
48	50	2
2	3	12
106	111	8
117	118	30
15	43	3
45	75	3
72	76	8
102	103	5
135	135	19
60	77	3
75	75	55
44	44	30
10	10	47
92	125	2
100	101	5
122	124	3
95	96	18
116	129	3
4	5	12
90	116	1
19	20	22
10	42	3
114	132	2
109	122	1
111	123	2
45	47	4
103	105	11
35	108	4
67	114	1
105	120	4
81	88	2
46	46	7
48	48	20
101	102	11
86	110	4
85	96	2
56	56	20
92	118	8
98	113	1
13	15	4
111	111	52
29	65	1
121	122	19
86	107	1
32	46	3
118	130	6
118	119	13
129	132	12
36	54	1
13	14	12
94	97	2
91	121	1
130	133	4
80	119	3
57	59	10
20	23	3
35	85	2
26	32	5
6	15	1
63	64	16
65	109	3
59	60	17
67	78	6
99	101	4
77	105	2
131	131	49
63	65	8
130	132	9
123	124	11
111	113	3
16	16	28
36	61	3
125	127	4
5	11	1
11	19	4
64	85	2
50	87	6
35	38	1
98	99	21
44	67	1
78	79	13
38	39	4
107	111	6
19	49	5
118	125	4
115	116	7
126	127	20
126	129	3
72	101	4
53	85	4
115	133	6
120	129	5
38	38	13
52	54	20
25	124	5
42	72	2
0	36	3
86	94	1
66	101	4
95	100	5
77	81	11
62	63	21
8	9	9
45	46	2
97	98	19
31	33	3
30	32	9
80	87	1
122	122	41
122	125	7
114	122	6
96	122	1
66	70	6
21	78	4
3	3	38
87	132	4
34	81	2
59	78	3
28	90	3
98	101	5
59	69	4
36	37	6
78	113	5
43	87	2
49	77	5
20	21	11
12	13	11
92	135	1
90	93	5
78	115	3
32	63	3
121	123	8
65	79	2
129	135	6
89	96	5
126	128	3
69	80	4
29	30	12
45	74	2
69	95	3
44	110	2
69	82	2
21	49	2
0	131	2
86	122	2
104	111	3
20	24	9
107	108	11
43	50	2
13	85	4
3	4	16
117	127	2
81	85	1
33	83	1
23	33	3
6	63	5
70	71	14
124	125	11
57	70	3
14	16	5
45	124	3
3	88	1
71	87	1
124	132	2
131	133	11
105	108	3
120	124	6
35	70	2
90	92	9
8	14	2
45	80	6
95	98	5
13	134	3
89	103	2
58	86	4
50	100	4
48	52	3
88	134	7
106	108	5
108	111	7
99	100	7
18	20	2
7	79	2
48	69	3
68	80	2
4	25	2
126	131	4
102	122	1
82	117	3
22	57	1
78	107	2
54	82	6
30	36	1
31	35	2
84	88	3
43	85	1
110	122	2
70	75	3
86	116	3
7	55	2
44	113	3
46	86	5
27	28	10
57	69	1
79	90	2
110	111	15
45	54	5
25	37	4
86	127	5
118	122	7
5	6	2
106	113	13
29	43	5
16	98	3
49	52	2
5	118	5
9	10	9
52	116	6
98	127	1
113	114	5
37	135	7
70	73	2
6	12	7
5	62	3
64	108	1
48	126	5
3	5	2
57	77	2
8	50	2
7	11	4
93	94	22
64	65	15
117	120	1
106	110	7
67	92	5
23	79	2
54	76	1
19	21	5
75	129	1
23	115	3
97	133	4
20	61	2
88	121	1
52	61	7
79	81	5
3	6	1
21	23	9
42	44	1
17	18	10
56	125	5
68	70	5
1	4	4
106	114	2
70	88	1
75	128	1
67	77	3
2	5	3
66	72	3
51	126	3
45	56	5
69	108	4
25	26	9
12	30	4
72	131	4
82	97	1
35	37	7
50	51	9
101	127	2
7	9	10
9	67	3
109	123	4
97	101	5
103	120	1
76	123	1
37	67	1
50	78	2
91	117	3
20	98	2
57	76	4
24	38	2
31	63	2
105	124	2
11	16	3
91	93	5
112	115	2
115	122	5
28	31	5
113	117	2
80	81	8
0	3	1
24	25	11
89	93	4
12	16	1
30	34	2
131	134	1
88	103	1
3	25	1
113	123	1
4	31	2
79	87	1
75	88	7
78	111	5
61	80	1
118	128	4
68	94	1
55	56	18
35	36	6
61	62	16
83	86	4
42	126	4
22	23	8
55	78	2
62	95	2
0	55	1
94	120	4
115	125	2
106	112	4
69	71	3
122	131	1
23	25	4
111	124	4
78	116	2
71	83	6
66	67	16
122	126	3
90	112	4
97	127	1
69	72	2
119	122	4
55	57	8
116	120	1
23	111	2
112	122	3
57	62	4
19	36	2
15	15	12
38	130	3
84	122	2
113	124	2
10	19	2
45	53	3
54	77	2
83	85	2
119	131	2
127	130	2
8	32	4
32	33	13
6	7	13
121	130	1
43	47	3
80	102	1
85	107	3
109	117	12
18	19	13
103	130	1
106	132	4
14	47	3
87	117	1
129	130	16
2	4	3
15	17	4
87	118	2
1	6	2
27	62	2
134	135	5
97	121	3
102	127	2
65	88	6
12	44	5
131	135	4
115	117	3
53	58	1
60	102	4
49	83	4
79	124	1
49	78	2
65	81	2
38	44	3
13	53	1
97	112	4
125	130	3
121	129	2
21	24	4
45	79	4
60	134	4
45	127	4
67	82	3
89	104	1
76	105	4
119	120	11
18	23	2
48	109	3
93	131	1
95	97	4
85	109	4
73	85	1
35	90	3
97	100	2
111	127	4
79	116	2
116	121	3
109	119	2
16	38	4
8	23	2
86	113	4
36	105	2
82	108	2
49	87	2
87	91	3
45	86	2
22	31	7
80	90	1
112	133	3
95	135	3
19	46	3
50	130	4
55	84	2
73	123	1
53	70	3
107	109	7
84	98	2
53	55	9
92	132	4
53	60	1
25	84	10
110	130	1
25	61	2
43	54	4
115	128	1
55	82	2
26	119	3
86	108	1
86	92	3
96	115	3
126	135	3
56	67	1
98	114	3
87	122	1
52	101	2
8	10	2
51	77	2
101	126	5
4	88	1
21	63	2
66	84	5
49	71	1
79	86	1
1	5	3
54	57	4
44	85	2
123	127	4
99	129	4
79	83	3
81	89	3
27	89	3
60	92	6
76	117	1
87	99	1
44	81	2
56	126	3
72	77	3
89	112	3
37	49	1
86	100	2
112	121	2
52	82	1
34	50	1
71	133	4
113	118	2
56	66	3
75	103	2
11	33	3
94	109	1
106	121	2
119	123	11
37	38	4
84	96	7
63	80	4
11	15	3
96	114	2
67	101	6
61	78	2
111	134	1
50	98	1
9	61	2
119	124	4
69	70	7
112	118	2
50	52	3
63	66	1
65	96	2
92	96	1
60	69	3
11	45	1
51	56	2
96	126	1
57	72	1
73	132	1
115	123	1
52	59	4
87	112	2
68	79	1
36	131	3
80	117	2
64	80	4
112	116	6
113	119	3
65	72	1
82	130	1
8	25	1
115	120	3
81	82	4
69	84	3
1	53	2
114	124	1
66	110	4
17	23	1
74	105	4
124	133	4
19	135	3
10	38	4
8	80	1
50	128	1
10	36	1
11	25	1
100	122	8
3	29	2
9	11	14
35	112	2
37	66	2
2	126	1
25	78	1
128	130	8
39	43	1
20	85	1
61	108	2
54	56	3
78	86	3
77	116	7
57	78	6
58	83	1
73	79	1
72	73	1
56	77	2
28	30	3
53	61	3
9	38	1
65	78	4
8	26	3
68	81	1
22	36	2
68	131	3
76	88	4
109	130	3
52	112	3
99	102	3
106	109	2
109	116	3
96	134	2
7	12	2
116	118	5
1	65	1
66	108	1
71	131	2
60	107	1
82	93	2
61	134	4
86	97	3
6	10	1
55	64	1
0	1	7
44	61	1
95	125	2
17	21	1
65	131	1
69	121	1
31	34	3
25	111	2
107	113	7
65	124	1
6	13	1
50	85	1
10	15	2
19	96	3
77	97	2
43	122	3
117	119	4
0	95	2
5	14	4
123	128	1
81	123	3
67	89	1
13	43	2
80	82	3
53	84	1
58	69	2
56	89	1
115	119	2
107	131	1
83	108	1
33	35	3
54	123	3
0	130	3
47	48	5
85	130	4
46	52	2
128	133	2
43	61	2
6	135	1
107	121	1
80	84	2
4	11	2
61	64	5
95	99	3
7	13	2
87	124	1
9	26	1
64	122	1
85	87	2
5	13	3
7	10	1
71	129	3
6	21	2
50	129	2
54	80	2
101	104	1
111	121	2
50	63	1
107	135	2
54	96	2
14	94	2
113	115	4
37	79	1
71	130	5
72	133	1
108	131	1
52	55	3
31	114	1
75	120	2
1	135	1
14	28	2
44	111	3
62	87	4
0	93	1
109	118	1
57	60	1
32	91	2
7	18	1
24	60	6
103	116	2
14	27	1
77	101	2
27	76	2
6	23	2
90	111	3
102	107	2
66	132	1
101	106	1
73	75	3
111	114	4
82	118	1
111	120	5
43	45	1
12	21	1
108	124	1
34	38	2
87	130	4
30	33	2
64	68	3
90	108	3
88	90	1
115	124	5
57	106	4
74	80	1
52	57	1
105	123	5
0	62	2
89	95	4
87	89	2
11	14	2
73	102	1
86	120	1
51	52	1
11	76	2
78	117	2
24	49	1
94	99	3
24	47	2
77	79	1
27	34	3
109	115	1
58	67	2
60	79	3
112	126	1
123	126	1
11	24	3
16	91	1
18	30	2
23	84	1
54	58	1
111	132	2
65	70	1
27	54	4
33	60	2
117	121	3
76	95	1
66	127	1
72	88	1
69	107	3
70	80	2
52	87	1
14	15	4
15	33	1
91	119	2
12	34	1
57	122	1
81	121	3
92	109	1
13	16	2
24	112	1
115	126	4
56	60	1
27	36	1
89	94	2
110	123	2
2	115	2
64	77	2
84	121	1
68	78	1
9	16	1
57	75	1
32	113	5
23	24	6
86	119	1
15	70	3
123	130	3
101	108	2
92	133	1
57	117	1
53	87	5
45	73	1
44	58	1
63	98	1
78	109	1
76	102	2
4	38	1
88	101	2
98	102	2
119	121	2
2	121	1
7	35	1
10	93	1
105	114	2
76	101	2
44	86	2
83	130	2
77	120	1
21	62	3
68	114	1
45	50	2
7	80	1
67	128	1
20	63	2
14	93	1
56	78	1
7	92	1
56	123	2
36	133	3
3	27	2
78	81	1
21	76	1
116	117	6
83	109	1
118	134	2
81	86	1
88	91	3
76	134	2
90	102	1
59	79	2
58	122	1
101	117	2
8	15	2
47	50	1
19	93	1
59	80	1
85	88	2
24	44	1
28	36	1
70	116	2
83	106	1
66	87	1
60	65	3
95	106	1
95	120	1
36	95	1
24	26	1
87	110	1
90	95	2
77	107	1
75	104	1
110	120	1
67	113	1
1	18	1
9	19	1
34	128	2
16	97	1
66	90	1
47	69	2
60	63	1
68	97	1
0	2	1
45	48	2
85	131	1
0	8	1
84	133	1
98	126	1
124	126	1
121	127	1
12	31	1
107	118	1
15	21	2
118	121	2
34	112	1
3	72	1
67	72	1
67	83	2
32	118	1
37	55	1
112	129	1
93	123	1
107	125	2
44	50	1
49	69	1
5	9	1
15	67	1
36	135	1
80	105	3
65	83	2
42	42	1
45	65	2
60	62	1
29	37	2
93	116	2
53	69	1
90	119	1
47	85	1
64	69	2
59	122	2
78	80	1
102	128	1
13	36	1
111	115	1
102	104	1
15	24	1
72	86	1
62	67	1
58	66	1
25	36	1
93	104	1
85	116	1
54	122	1
125	132	3
56	84	2
69	81	1
12	22	1
102	126	1
10	25	1
79	100	1
56	85	1
66	83	1
61	68	2
58	93	1
48	49	1
59	110	1
10	33	2
8	59	3
5	27	1
60	85	1
50	54	2
92	119	2
100	123	1
114	116	1
6	25	1
91	101	1
43	121	1
95	105	1
101	115	1
43	77	2
45	55	1
32	92	1
57	63	1
87	115	2
23	48	1
124	131	1
20	68	1
128	132	2
2	11	2
23	50	1
91	95	1
86	88	1
31	66	1
55	71	2
47	124	1
45	49	1
10	17	1
101	124	1
62	65	1
2	65	1
61	117	1
84	118	1
68	117	1
114	131	1
86	96	1
8	37	2
44	118	1
85	108	1
82	87	1
72	87	1
79	117	1
15	49	1
113	125	1
100	116	2
8	24	1
65	74	1
79	105	1
3	37	1
14	43	1
14	30	1
85	118	1
107	124	1
92	100	2
71	73	1
54	79	2
79	82	1
77	106	1
54	67	1
16	18	2
74	76	1
84	92	1
85	111	1
62	106	1
26	66	1
64	124	1
29	34	1
56	121	2
56	82	1
11	21	1
37	93	2
70	77	1
27	121	1
5	90	1
113	128	1
103	133	1
49	63	1
