9	9	15
37	38	5
47	47	23
46	71	9
43	43	12
69	70	9
58	58	13
59	59	12
99	99	28
67	68	7
89	89	5
76	76	8
2	2	19
23	24	16
35	35	11
110	116	4
93	131	5
126	127	5
75	76	12
80	80	23
72	72	17
81	82	11
34	63	4
64	64	19
59	60	11
15	17	12
83	83	18
117	117	15
111	118	2
6	6	31
85	86	4
66	66	26
109	109	14
7	7	19
69	69	22
68	68	29
44	44	18
41	41	11
30	47	2
79	79	15
17	17	19
23	29	5
10	10	23
0	0	13
88	94	2
7	8	9
67	67	14
24	26	6
34	112	4
10	18	2
75	107	1
97	97	12
33	33	11
82	82	24
27	27	19
95	95	21
125	126	6
94	94	22
9	10	12
103	124	3
129	129	8
103	103	8
17	20	5
119	119	13
13	13	12
1	2	6
33	34	13
102	102	16
35	118	2
24	25	3
12	35	3
74	74	13
60	60	26
123	124	7
101	101	9
28	91	6
99	100	11
45	46	8
34	34	20
11	11	28
85	85	6
65	65	33
48	105	1
110	110	6
107	107	4
27	90	5
95	100	4
43	82	3
95	97	10
78	83	2
10	20	3
112	113	9
49	50	3
88	89	6
100	100	17
28	95	5
62	62	26
129	130	10
87	87	18
128	128	10
80	81	14
94	95	11
96	96	7
78	79	7
64	68	4
35	74	2
32	32	32
77	78	6
80	82	2
123	123	7
12	48	1
61	61	24
76	77	7
20	27	4
10	12	5
27	78	1
28	28	10
3	4	4
78	78	17
127	127	9
107	116	4
11	74	4
9	112	2
5	5	23
31	31	13
46	61	5
46	46	24
107	109	2
63	63	9
105	105	2
4	4	6
75	122	1
25	26	6
122	122	5
19	20	16
132	132	4
15	15	21
29	29	16
5	6	6
70	70	10
76	78	4
19	19	17
42	43	6
93	93	19
21	85	7
79	80	5
22	22	5
76	107	2
134	134	7
115	115	9
26	92	4
91	91	11
57	58	10
65	67	4
26	26	7
8	8	17
112	112	5
14	17	1
125	125	9
14	14	12
95	96	9
56	56	11
29	31	7
121	121	23
60	61	7
77	77	19
87	88	4
118	118	8
112	116	1
30	30	10
124	124	8
107	108	1
108	108	3
68	69	17
82	83	1
73	75	2
8	10	5
27	30	1
65	66	1
27	80	2
123	126	5
71	71	11
18	19	9
75	75	23
83	84	4
89	91	5
44	45	6
18	18	11
26	27	12
5	30	2
21	21	7
118	119	2
14	56	1
4	5	10
92	93	2
0	1	4
11	41	2
12	12	20
130	131	6
26	38	2
11	101	2
36	37	4
36	36	16
14	16	4
116	116	11
36	124	1
4	48	4
6	36	4
43	44	9
19	61	4
62	74	2
84	84	16
81	81	8
91	131	4
97	132	4
118	121	7
5	116	1
81	83	6
126	126	10
40	40	6
11	93	5
2	9	1
86	87	1
70	71	2
25	62	2
20	60	1
120	122	3
97	131	1
74	75	3
45	45	20
84	94	3
124	126	3
105	106	3
61	75	1
127	128	2
45	89	1
6	44	2
70	123	1
100	127	2
55	55	11
12	13	1
34	116	1
38	39	2
130	130	8
62	67	2
60	84	2
7	15	4
45	57	2
114	114	13
57	57	14
48	48	9
31	32	14
104	105	3
18	83	4
17	44	1
18	60	1
111	111	5
11	17	5
8	115	3
129	131	1
80	83	5
49	49	2
82	84	2
55	57	2
86	86	23
84	85	3
11	13	2
100	128	6
20	20	4
5	28	3
27	93	5
6	7	7
0	77	1
23	23	5
42	81	1
28	30	3
119	121	3
50	50	9
84	86	1
59	63	2
124	125	1
42	42	3
68	70	5
15	16	3
16	17	4
23	26	2
22	60	3
107	122	1
93	94	1
94	96	2
71	72	2
23	30	1
31	81	2
113	113	9
97	98	3
31	117	1
25	25	10
93	108	1
17	72	1
26	83	1
41	42	2
104	106	1
24	24	4
85	88	2
2	3	4
12	18	4
90	90	3
96	97	9
11	12	4
10	61	1
36	38	3
6	47	1
10	19	2
8	98	7
78	134	5
131	131	4
32	33	4
114	115	2
49	58	1
107	128	3
120	120	8
121	122	7
7	115	2
8	9	2
55	58	2
111	116	1
92	92	4
132	133	4
92	96	4
78	80	2
98	101	4
131	133	3
21	22	2
1	1	6
45	62	1
62	63	1
8	114	3
6	8	3
13	48	2
61	62	4
3	3	11
78	81	1
133	133	4
4	98	2
19	35	3
31	125	1
20	38	1
7	94	1
7	60	1
5	101	3
102	131	1
24	55	3
103	106	5
25	81	6
17	18	1
64	65	3
86	88	1
24	74	1
20	21	3
98	100	3
39	39	4
45	47	2
10	22	2
89	95	1
106	107	6
22	59	1
22	24	3
37	37	2
34	35	5
3	65	1
7	111	3
46	62	7
63	65	1
29	30	5
79	124	2
47	62	1
28	34	2
37	56	1
59	82	5
38	40	2
101	102	6
76	89	1
13	14	2
113	114	3
14	25	1
19	74	2
69	71	1
2	101	1
73	73	13
41	58	1
111	114	5
84	87	1
60	75	1
41	43	1
22	23	2
108	111	2
76	79	2
59	64	1
98	99	1
63	70	1
87	89	4
35	119	3
63	64	3
91	133	2
40	43	1
131	134	2
11	19	2
9	101	2
35	63	1
89	94	1
110	111	1
4	101	3
28	90	1
8	36	2
48	101	2
103	105	2
62	75	3
46	47	4
96	98	2
16	44	2
61	82	1
59	65	1
47	48	2
38	49	2
20	61	1
30	49	2
26	47	2
32	125	1
106	106	2
12	59	1
7	23	1
4	116	2
28	67	1
20	43	1
61	65	1
26	93	2
27	91	2
34	109	1
73	74	1
101	104	2
109	110	1
87	100	1
38	38	2
68	121	3
14	55	1
61	71	2
28	78	1
4	11	1
120	121	1
76	85	1
0	124	2
79	85	4
21	26	2
108	118	1
20	55	1
5	102	1
101	125	1
45	71	1
4	6	1
88	88	4
12	41	2
128	129	1
27	28	1
115	116	1
6	19	1
26	100	1
5	114	1
88	92	1
2	66	2
105	126	1
102	127	1
21	82	1
46	75	1
5	27	1
20	25	2
117	118	2
10	82	1
55	56	2
91	96	1
10	11	1
20	62	1
35	36	1
2	129	1
26	29	1
25	27	2
48	49	1
