37	37	29
4	5	10
67	68	24
0	38	1
27	28	18
23	24	12
38	39	11
64	66	2
135	135	31
75	78	2
131	131	49
57	57	33
98	135	2
98	98	29
126	126	50
71	71	24
94	94	37
83	83	29
19	38	4
34	66	4
41	125	1
114	114	38
77	79	5
32	33	23
31	31	31
25	25	30
99	103	1
124	124	51
89	89	20
97	97	22
36	36	34
136	137	12
120	120	40
74	93	3
87	94	6
88	88	10
95	95	31
8	8	25
132	132	45
48	53	2
49	50	23
79	79	16
121	122	15
39	132	2
14	16	27
112	112	27
12	12	5
24	24	31
71	72	18
60	62	4
128	128	45
64	64	32
74	74	48
35	35	32
6	30	1
15	15	24
4	4	28
91	91	32
116	117	20
43	65	6
38	38	45
142	142	13
42	42	27
98	138	1
139	139	35
33	33	36
92	92	39
62	63	18
18	55	7
36	39	6
49	122	4
86	86	36
80	81	12
99	100	19
53	54	21
12	35	2
129	129	52
78	85	10
21	22	13
75	75	27
122	122	26
19	19	28
111	111	34
10	10	25
27	27	28
101	101	27
136	136	47
142	143	9
29	43	2
54	54	25
143	143	41
11	11	25
109	109	18
13	13	41
31	139	4
135	136	14
62	94	4
119	120	17
114	144	4
79	105	2
16	16	36
94	95	12
49	51	3
87	88	18
131	142	2
106	109	4
6	6	28
118	118	21
60	107	6
53	102	1
55	55	43
74	89	3
72	72	42
24	66	4
6	32	3
41	41	43
138	139	15
36	42	2
74	79	4
122	123	15
55	56	13
90	90	48
9	21	5
140	140	43
87	90	12
80	100	2
94	97	2
117	117	57
52	59	4
25	26	13
66	71	1
3	97	6
105	105	23
77	103	5
5	14	5
118	139	6
134	138	3
2	2	23
52	82	2
78	78	19
88	90	8
0	99	1
130	130	29
111	114	5
0	2	6
74	90	2
59	59	19
35	36	16
106	108	8
119	119	28
127	127	39
59	60	18
137	137	26
61	62	4
31	32	10
81	81	42
63	63	26
137	139	10
124	125	23
136	139	10
93	93	23
55	97	5
105	110	1
141	141	32
34	34	19
73	73	32
67	69	1
118	119	25
77	77	26
106	106	48
86	97	3
108	114	2
30	30	21
125	127	2
33	34	6
30	104	11
39	39	29
121	121	30
134	136	8
144	145	14
39	111	4
73	131	1
113	114	15
61	61	28
23	23	33
52	52	28
108	108	23
113	113	17
18	19	3
84	84	24
39	40	12
63	96	2
33	35	6
119	121	6
62	62	36
118	120	18
128	139	3
145	145	11
1	2	13
16	86	3
98	99	4
12	14	4
26	26	29
121	123	16
69	74	5
38	110	3
110	111	12
8	10	6
58	58	31
64	65	7
26	27	15
48	50	6
20	20	30
102	103	15
130	132	3
36	37	10
123	123	37
40	40	24
137	138	33
102	102	37
107	107	27
68	68	35
49	52	7
131	132	11
82	84	7
37	38	10
115	116	12
89	119	1
50	50	17
66	67	17
13	18	1
87	87	13
95	96	4
53	53	25
122	135	4
103	103	36
50	52	7
39	41	2
35	47	4
63	97	6
0	1	11
132	133	20
72	138	4
134	144	4
103	122	3
127	132	3
74	82	3
67	89	1
56	56	27
79	80	7
132	136	6
130	131	1
34	35	22
5	5	29
52	67	2
0	34	3
62	98	3
66	69	2
57	66	3
32	32	24
120	122	5
75	84	10
9	9	40
120	123	4
0	19	3
37	42	2
3	5	5
76	77	15
33	41	3
116	116	24
74	136	2
72	134	5
62	109	4
2	35	5
17	17	32
96	96	23
85	85	27
118	121	10
65	75	3
5	123	2
18	18	29
135	139	4
73	86	4
5	140	3
39	77	1
105	106	8
29	29	36
112	119	1
94	96	4
81	82	15
133	133	23
15	16	7
1	1	17
125	130	5
14	15	9
17	19	4
3	3	32
109	110	8
139	140	22
114	131	1
134	134	37
41	62	1
18	22	12
104	105	9
76	76	28
123	124	10
88	91	10
118	140	8
49	116	1
86	105	2
63	104	5
28	28	26
105	107	3
135	140	10
6	139	4
48	48	13
131	136	3
134	139	4
83	84	17
133	134	6
57	68	4
57	62	1
72	86	1
104	104	33
13	42	2
74	75	13
36	46	7
73	74	10
136	138	8
20	24	3
125	125	39
82	82	16
14	14	21
113	118	2
96	125	1
2	3	9
111	112	8
76	84	1
4	14	1
70	70	23
133	136	6
113	115	19
4	48	3
2	36	1
110	110	22
85	86	13
51	51	12
18	24	3
9	76	2
122	127	1
117	118	12
108	111	1
140	141	12
82	83	6
69	70	18
134	135	19
99	99	17
79	83	4
12	13	1
112	138	7
78	98	2
125	126	6
66	66	27
96	97	18
66	74	2
10	11	5
2	6	3
65	65	21
115	115	23
116	118	4
133	140	5
79	128	1
79	82	3
54	130	1
146	146	9
117	139	2
86	117	2
107	109	6
21	21	20
10	20	4
4	16	3
29	126	2
77	82	6
124	129	3
100	100	22
3	137	1
38	111	6
144	144	21
127	140	9
104	106	7
3	38	1
116	124	9
69	75	4
20	26	6
18	98	4
73	92	4
28	48	1
31	132	1
51	52	9
107	108	13
27	56	4
9	54	3
58	59	3
141	142	17
24	56	4
71	74	6
34	110	1
18	20	10
70	71	8
110	115	3
95	97	3
129	130	7
95	108	4
138	138	50
65	67	8
47	56	4
11	12	1
22	22	23
36	117	3
135	143	5
40	41	1
58	60	6
72	92	4
84	87	1
103	104	13
18	25	4
56	57	10
41	42	5
78	79	5
56	110	3
119	132	2
125	135	5
54	102	2
122	128	3
4	32	2
131	135	4
78	83	4
120	121	9
30	39	1
101	102	10
6	17	2
24	61	4
98	139	1
112	113	8
0	0	6
60	60	24
125	141	2
9	10	5
99	101	8
122	137	4
85	106	3
90	91	6
19	42	2
105	122	4
21	58	3
67	67	7
57	58	3
16	17	5
92	138	4
59	61	13
80	80	18
73	90	4
84	95	2
61	109	7
58	86	3
48	55	3
43	43	11
112	116	3
126	127	4
49	121	1
128	130	10
39	118	5
17	18	6
32	130	3
41	110	5
59	94	2
77	78	8
131	139	3
52	53	14
126	129	6
17	22	2
83	85	6
2	4	8
10	22	3
92	94	2
98	134	5
100	101	3
24	32	1
23	37	2
123	125	4
102	121	3
47	113	2
47	47	8
69	71	3
119	133	2
91	92	8
99	126	4
35	65	3
78	84	2
111	113	1
103	106	4
46	46	2
112	130	4
22	129	2
54	55	3
34	39	2
69	69	18
51	102	1
116	131	3
39	108	4
124	130	2
35	70	3
73	133	2
143	144	6
31	36	2
114	115	12
21	24	3
87	101	5
131	133	2
15	17	1
124	128	6
132	135	3
79	104	5
137	140	6
49	125	1
75	76	13
37	131	3
123	132	1
29	102	3
67	90	3
0	6	4
123	136	1
84	85	8
106	107	9
135	138	5
131	134	1
3	4	7
5	72	1
127	130	7
21	23	2
57	129	5
142	144	3
5	47	3
26	56	5
77	83	2
73	97	5
56	61	6
6	15	4
76	79	8
109	131	2
99	125	2
117	119	5
55	127	2
71	92	4
71	75	2
18	124	3
57	98	4
88	89	22
124	140	2
54	56	2
66	68	2
34	36	1
105	109	4
1	5	6
1	99	2
72	76	3
110	114	3
13	14	9
80	82	2
62	70	2
22	122	2
66	103	2
5	6	11
117	140	1
70	131	2
2	16	2
30	123	2
78	99	1
19	27	2
71	132	3
66	104	5
109	114	2
121	141	2
70	73	1
23	32	4
65	109	2
6	11	4
97	98	6
29	54	3
122	124	1
52	123	4
98	141	1
145	146	6
34	43	1
3	32	2
53	56	2
35	67	2
127	128	13
20	25	2
104	123	1
22	24	3
40	104	5
126	130	1
84	88	7
15	68	4
114	117	1
21	26	3
32	123	1
20	39	2
9	11	2
54	58	2
56	109	1
5	16	1
33	113	2
15	31	2
49	49	23
99	102	2
92	93	12
2	5	3
104	122	1
24	26	2
25	125	2
105	108	1
76	78	8
86	118	2
38	135	2
50	51	7
28	123	1
127	139	1
19	30	1
68	114	2
130	133	1
19	41	1
129	133	1
115	117	5
49	53	4
133	139	2
54	105	3
100	126	3
65	89	2
114	116	4
128	129	6
122	126	4
89	90	4
22	23	7
125	129	5
42	119	3
60	61	4
17	24	1
135	137	6
114	130	4
15	18	7
20	40	5
60	66	1
68	73	2
0	35	1
48	52	6
77	124	6
103	107	1
80	121	3
58	101	3
12	42	1
34	37	1
97	108	2
35	39	5
4	6	2
124	127	1
16	67	1
33	36	2
40	108	1
0	21	2
13	119	3
109	111	2
108	110	7
102	122	3
4	10	1
50	128	2
93	139	1
105	136	4
68	70	6
131	140	1
33	55	2
69	88	4
76	85	3
133	135	9
95	124	1
35	69	2
95	106	3
75	98	2
120	133	1
82	133	1
1	35	2
25	59	1
28	29	5
72	73	2
87	142	2
39	110	2
72	93	1
40	107	2
84	101	1
1	12	4
33	65	2
68	69	4
50	72	2
129	134	3
6	9	2
122	131	2
127	134	7
97	100	1
77	123	4
11	20	1
29	103	4
72	95	1
124	143	2
48	49	10
54	61	2
71	85	3
50	133	2
140	143	4
17	110	1
66	108	3
58	61	1
72	74	4
27	122	1
65	66	2
36	40	1
36	60	1
19	40	1
58	83	3
141	144	1
98	133	1
22	25	3
60	92	2
53	106	1
98	131	2
131	141	4
17	25	2
3	98	6
65	108	2
82	85	1
141	143	2
25	32	2
55	110	3
32	122	3
119	128	3
15	38	6
20	22	2
108	109	6
85	137	2
52	56	2
71	133	5
93	95	1
119	131	1
84	94	3
74	92	1
133	143	2
134	141	4
13	15	1
28	38	1
66	70	1
63	138	2
37	113	2
93	94	7
0	32	1
98	127	1
18	33	1
19	20	4
121	126	3
85	89	5
25	55	5
54	80	3
33	42	1
6	140	3
36	38	3
111	116	2
35	113	2
20	21	3
85	94	1
28	41	2
76	141	2
31	133	2
110	113	1
95	99	4
112	114	5
128	131	1
6	40	1
55	108	2
51	69	3
86	87	7
120	142	2
97	139	1
112	117	4
31	131	1
30	32	3
51	56	1
18	26	2
129	143	1
5	48	2
37	69	2
112	115	5
47	68	2
74	84	1
104	107	1
81	126	1
99	128	2
19	24	3
22	38	2
49	118	1
28	122	1
119	122	2
29	53	2
18	21	3
77	85	5
85	104	2
42	48	2
51	58	1
31	33	4
5	13	2
130	139	2
20	27	1
66	76	1
85	88	1
37	82	1
29	30	3
138	140	4
16	18	1
32	143	1
35	37	6
3	34	2
85	87	2
41	129	2
47	67	1
50	117	2
87	103	2
34	38	1
16	68	1
48	80	2
73	75	4
139	142	1
84	91	1
64	89	1
42	56	1
70	124	2
60	84	2
65	79	1
95	140	1
140	142	4
18	23	2
55	107	3
98	136	1
30	42	2
112	118	1
26	57	1
10	54	1
59	62	1
77	84	2
69	131	4
113	117	1
70	72	1
53	99	1
3	35	2
18	122	3
110	121	1
128	132	2
70	76	1
55	57	2
93	138	5
105	130	1
4	139	2
47	48	1
31	47	3
90	94	1
35	48	1
48	101	1
112	139	2
52	106	2
25	100	2
90	96	3
127	129	2
10	38	4
78	127	1
24	25	5
113	116	4
43	107	2
41	43	5
64	88	1
100	102	3
82	90	1
93	96	1
30	33	3
31	113	1
23	61	2
10	21	2
3	6	1
82	135	1
29	101	2
58	65	3
42	43	6
74	76	2
15	108	1
99	142	1
50	69	1
37	141	1
1	134	1
59	67	1
75	82	1
9	20	1
107	130	1
61	63	3
10	15	1
64	68	1
101	104	1
123	137	1
96	138	3
29	37	1
104	121	3
37	117	2
66	90	2
56	106	3
84	93	8
81	84	1
95	128	1
48	103	3
37	81	2
43	66	1
87	91	1
73	91	2
134	140	2
122	133	3
126	128	5
55	124	1
74	85	2
82	134	1
57	67	1
37	132	1
87	119	2
65	71	1
59	65	1
46	47	3
59	63	1
112	127	1
22	125	1
50	85	1
43	47	1
89	91	1
4	38	3
72	132	2
40	110	1
33	104	1
37	47	1
134	142	1
29	122	1
32	58	1
74	88	1
72	87	1
13	37	2
121	138	1
143	145	2
55	130	1
118	144	1
64	69	1
123	131	3
32	136	1
121	130	1
113	130	2
25	30	1
94	98	1
48	117	1
41	105	2
89	93	1
35	38	1
19	32	1
62	104	5
129	131	1
110	118	1
70	133	1
2	9	2
1	3	1
64	108	1
87	89	1
1	139	1
81	141	1
3	33	3
74	98	1
78	81	1
40	63	1
41	106	3
73	76	1
23	27	1
96	107	1
76	104	1
0	37	1
101	103	1
52	71	1
56	58	1
144	146	1
81	89	1
48	56	1
85	105	1
34	47	1
42	104	1
73	93	1
28	42	1
30	31	1
6	35	1
69	87	1
38	40	1
68	72	1
58	93	1
54	125	1
132	144	1
64	82	1
70	81	2
75	81	1
39	107	1
7	16	1
8	11	1
0	39	1
90	92	1
80	130	1
124	126	1
69	91	1
59	64	4
93	136	1
49	68	1
25	27	1
6	141	1
75	87	1
102	123	1
39	62	1
32	104	1
98	104	1
47	50	1
27	110	1
24	47	1
136	140	1
47	57	1
0	12	1
51	68	1
4	37	1
67	74	1
62	71	1
9	61	1
63	101	1
21	39	1
61	95	1
20	23	1
8	29	1
112	128	1
54	127	1
49	54	1
