77	77	4
133	133	8
123	158	3
109	109	5
2	27	1
80	82	5
155	157	5
14	14	8
111	111	8
81	81	6
9	9	7
127	127	8
38	39	1
2	2	8
33	34	5
16	39	8
125	125	13
3	4	4
154	154	8
18	18	2
76	76	10
157	157	21
58	58	3
153	153	3
135	136	5
16	23	1
158	158	8
160	160	11
52	53	1
3	3	6
86	87	6
0	1	3
8	8	19
56	57	8
37	37	6
87	87	10
71	97	2
84	84	14
100	102	3
56	56	9
117	118	4
147	149	4
20	21	6
88	88	8
151	151	2
48	48	5
100	100	4
113	116	6
62	87	2
137	138	4
97	101	2
9	19	4
47	49	4
105	107	9
47	47	6
89	89	13
118	118	5
156	156	3
91	94	5
10	11	3
91	91	6
97	98	6
146	146	13
71	72	12
28	28	8
77	79	4
76	78	3
22	23	4
102	117	3
115	122	3
78	79	1
110	110	7
101	101	12
5	6	4
19	38	2
90	91	1
67	68	2
35	35	6
40	40	8
1	1	8
38	38	16
44	45	2
169	170	3
163	163	8
11	11	10
149	149	4
116	139	2
99	101	2
124	124	5
27	138	8
5	5	8
57	57	15
52	52	4
15	15	10
50	50	11
120	120	6
19	21	2
107	107	7
48	51	2
85	88	2
81	86	1
10	10	7
82	82	10
155	155	4
99	99	10
27	27	5
38	40	1
114	114	6
150	150	8
102	116	2
19	47	2
21	21	8
135	135	11
21	22	10
74	74	9
39	39	11
46	46	5
46	52	3
108	108	7
88	91	3
4	4	5
39	40	6
72	72	4
20	23	4
144	144	2
75	75	6
96	96	8
137	139	4
48	50	3
10	13	1
103	104	4
106	106	9
99	103	1
100	108	2
127	130	6
75	100	1
43	45	2
33	33	1
25	25	8
98	98	9
98	101	1
90	100	2
137	137	6
6	6	12
45	45	3
7	7	9
13	13	8
10	14	4
112	116	1
104	112	3
152	153	3
101	103	3
166	166	3
113	113	4
142	142	2
146	147	6
17	17	11
136	137	3
124	125	1
106	107	6
88	89	12
53	53	8
134	135	1
26	26	8
115	124	1
47	71	2
143	144	1
12	13	3
70	87	1
20	20	5
104	105	1
119	119	14
71	71	3
78	78	5
34	35	4
11	84	1
23	23	7
104	104	7
102	102	8
83	83	9
8	10	5
129	129	3
99	100	4
123	124	1
152	152	6
11	89	1
166	167	4
116	155	5
81	83	3
39	47	3
149	151	2
164	164	2
74	99	3
159	166	1
64	65	4
110	111	4
90	90	6
49	50	2
16	16	3
116	116	1
163	165	1
14	18	5
161	166	1
55	55	4
146	155	1
156	163	7
41	42	3
102	104	6
20	52	2
47	48	3
64	64	3
50	72	2
11	12	7
21	25	3
126	126	4
97	97	2
53	64	4
77	160	2
70	70	7
86	86	4
4	6	1
72	97	2
40	53	3
76	77	3
136	136	3
52	54	3
26	27	1
98	99	5
9	10	6
85	86	1
111	112	6
145	145	5
114	116	2
81	82	1
54	54	3
39	45	2
156	157	1
170	170	1
114	121	4
49	49	3
46	51	2
162	162	10
57	58	3
95	95	3
120	122	2
112	112	4
36	36	6
92	92	3
123	123	5
53	56	1
41	41	7
115	115	4
156	159	1
53	84	2
37	92	1
107	108	1
41	44	1
73	74	6
73	75	1
125	126	5
8	14	1
14	16	3
75	77	2
18	25	3
66	84	1
120	124	1
158	159	2
89	90	1
168	169	3
42	42	3
122	122	2
121	121	3
34	34	2
54	58	1
9	88	1
142	143	4
9	13	1
42	43	2
14	15	4
90	102	4
5	7	4
148	148	3
124	127	2
115	117	2
48	49	3
139	143	1
139	139	4
50	51	2
93	93	4
16	18	1
115	116	2
126	127	2
132	137	1
3	18	2
62	62	1
7	9	2
69	69	7
44	46	2
133	134	2
45	71	2
65	66	1
18	23	4
70	79	2
44	44	3
116	118	3
53	54	1
51	51	2
155	156	2
143	143	3
105	105	4
73	73	3
15	16	2
113	114	1
91	124	1
37	40	4
138	142	1
4	5	2
134	134	2
150	151	2
2	143	1
12	12	3
161	162	2
94	94	1
165	165	1
6	7	1
13	14	2
24	25	1
62	70	1
23	83	1
36	37	2
117	122	1
54	55	2
116	117	2
8	9	3
159	161	1
138	138	7
13	15	2
94	130	1
80	80	1
144	145	1
1	54	1
106	108	2
94	95	3
118	119	1
138	139	2
100	105	1
137	140	1
130	130	3
45	74	2
132	132	2
24	24	2
149	158	2
161	161	1
103	103	1
69	78	2
22	22	1
80	81	1
43	43	3
75	86	1
155	161	1
140	141	2
64	69	1
66	66	3
154	157	1
2	149	1
92	93	1
20	24	1
128	129	2
140	140	2
113	128	1
139	163	1
37	38	1
82	83	1
65	65	2
148	163	2
140	142	1
97	99	1
102	103	1
92	94	1
95	99	1
27	28	1
109	110	1
69	70	1
19	19	1
91	95	1
147	147	1
149	159	1
159	159	1
139	142	2
20	25	1
146	156	1
18	52	1
21	43	1
103	122	1
121	122	1
62	72	1
6	128	1
