123	123	10
148	148	5
122	122	14
116	117	1
22	39	4
54	59	1
190	195	4
170	171	4
30	31	2
19	19	8
187	188	5
189	189	7
27	27	2
145	185	4
113	180	3
103	106	2
127	127	17
10	11	4
45	45	9
110	110	5
173	173	10
49	49	15
20	20	2
79	80	5
179	179	8
147	147	1
183	183	5
161	162	6
149	149	10
156	156	10
135	135	2
122	125	2
24	33	5
77	77	15
0	20	1
133	155	2
9	10	4
85	85	4
189	190	4
106	106	4
82	82	3
36	37	2
24	24	1
32	32	11
19	21	2
48	48	9
69	99	3
148	149	1
12	12	5
134	169	2
181	181	12
171	171	3
158	169	3
4	4	3
11	11	1
192	192	20
102	102	8
126	126	3
121	129	1
129	131	2
67	186	2
8	22	2
97	159	3
161	161	8
28	30	1
163	163	5
197	197	14
168	168	9
171	172	3
144	147	2
88	89	2
6	6	8
69	112	2
103	127	1
184	197	2
47	47	14
141	141	3
177	177	9
152	161	3
21	21	10
44	44	5
150	151	2
114	119	3
101	101	12
30	30	6
158	158	4
15	15	9
102	103	5
8	21	2
180	180	11
146	146	12
96	96	2
157	157	18
176	194	2
75	75	1
52	52	3
38	38	8
179	190	5
180	192	1
110	111	1
117	117	5
162	166	2
56	72	1
190	190	6
163	164	5
56	56	8
124	124	6
8	8	3
20	22	2
40	41	3
155	155	9
145	145	6
46	46	5
154	178	2
76	77	3
121	121	7
184	184	1
168	170	2
167	167	8
107	107	11
60	63	1
112	113	3
160	168	3
142	142	8
78	78	1
39	135	1
136	143	3
154	154	7
48	49	3
14	182	4
69	69	4
154	182	7
77	79	2
89	90	5
42	42	20
47	49	3
20	44	4
0	0	18
68	135	1
169	169	7
196	196	10
16	16	9
191	192	8
160	160	8
107	108	1
3	3	5
24	26	3
175	175	5
157	158	1
2	2	6
188	188	8
122	160	4
134	139	2
56	57	4
87	87	2
58	58	10
139	139	9
66	66	1
133	133	2
2	4	3
137	138	4
136	136	6
159	160	1
50	50	3
76	76	3
0	32	3
27	53	2
46	47	8
71	71	8
120	121	6
57	57	1
37	57	1
131	131	2
114	114	4
13	13	6
173	176	2
191	191	3
79	85	2
37	37	2
0	2	7
176	178	6
105	105	4
106	107	2
23	27	1
67	67	9
159	159	4
17	17	4
112	112	5
109	110	1
185	185	5
83	83	2
125	125	3
40	60	1
30	56	2
154	159	2
166	166	4
143	144	4
175	182	2
142	147	1
138	138	6
144	144	11
177	188	3
170	170	3
119	119	6
105	106	3
118	118	4
17	31	4
42	73	2
168	192	3
181	192	3
168	190	3
173	174	2
189	194	1
188	189	3
178	180	4
55	56	2
70	70	3
31	31	9
194	194	10
195	195	5
130	130	6
42	87	1
62	62	2
115	160	2
18	18	3
165	190	2
96	161	2
49	50	3
43	43	6
165	165	4
84	84	2
72	72	4
0	1	1
168	181	2
176	177	10
143	143	3
143	145	3
168	169	2
40	135	3
45	51	3
0	3	4
162	182	2
9	11	4
127	128	1
19	20	4
61	62	1
181	182	1
39	39	2
95	117	2
65	65	4
28	28	3
66	112	5
7	20	2
100	101	2
19	61	4
64	64	2
129	129	5
26	26	6
25	25	4
174	174	3
3	94	4
178	178	7
23	34	3
182	182	3
68	68	3
11	42	2
162	164	1
40	40	2
149	150	2
22	34	6
134	134	2
103	103	2
131	176	1
64	68	7
112	158	2
88	88	7
187	187	6
130	131	2
64	65	1
94	94	3
115	155	1
45	179	1
121	123	3
161	163	1
53	53	4
89	89	1
153	154	3
16	17	3
9	125	1
142	143	1
19	112	1
33	35	1
152	152	1
9	26	5
165	174	3
52	177	2
18	27	1
159	165	5
98	156	2
160	161	4
172	172	1
72	74	1
66	135	4
104	105	1
115	173	2
165	167	3
50	51	1
21	59	2
1	1	3
24	25	6
190	196	1
164	191	3
7	7	8
28	64	3
174	176	1
193	193	7
34	35	4
81	81	2
109	109	3
59	61	1
46	50	1
70	71	1
179	181	1
71	94	1
97	156	1
135	154	2
138	139	4
117	118	1
159	161	1
166	167	1
17	18	1
150	150	4
83	84	2
137	168	2
17	24	2
99	158	2
31	32	1
186	187	4
27	28	1
128	143	2
35	35	1
51	159	2
21	22	2
137	137	1
14	14	2
162	174	1
8	20	2
43	57	1
184	185	3
151	151	4
122	123	1
79	79	3
34	37	1
133	178	1
6	8	3
27	31	3
29	29	2
120	120	1
74	76	1
140	140	2
164	188	1
98	159	1
114	115	2
145	164	2
188	190	1
153	153	3
78	79	2
37	41	2
35	86	1
144	184	1
170	174	2
171	184	1
26	34	1
0	41	1
165	166	3
58	69	2
33	34	1
51	51	5
131	135	1
152	153	1
133	134	1
59	62	1
73	73	1
149	176	3
59	59	1
37	39	1
5	20	1
36	36	3
97	117	1
119	121	2
155	156	2
136	141	1
181	186	1
99	108	2
28	29	1
48	51	1
128	128	2
53	63	2
74	74	1
13	14	1
9	42	1
169	170	1
8	9	1
133	141	2
55	55	1
6	25	1
42	65	1
40	42	1
177	178	1
8	18	1
139	148	1
118	148	1
37	145	1
123	125	1
153	157	1
162	162	1
34	39	1
86	86	1
113	118	1
9	123	1
145	147	1
9	9	1
111	111	1
112	134	1
19	24	2
6	21	2
5	5	1
185	186	1
27	48	1
17	185	1
30	64	1
119	155	1
4	7	1
15	16	1
18	41	1
67	111	1
61	61	1
100	100	1
8	19	1
66	134	1
169	171	1
38	140	1
39	132	1
71	93	1
