87	87	4
143	143	7
65	65	6
51	52	14
82	83	4
5	5	24
98	102	3
5	6	13
95	95	11
116	116	12
35	35	21
104	104	13
77	77	10
2	2	13
13	14	12
13	13	15
65	66	1
147	147	4
4	4	16
25	25	16
31	32	2
144	146	2
161	162	8
24	25	4
149	149	9
61	62	2
157	157	15
123	124	6
129	129	4
23	27	3
7	9	1
146	152	2
32	32	16
94	94	8
108	123	4
152	152	1
6	154	2
171	172	4
33	34	6
128	152	2
160	160	4
158	158	13
41	41	16
29	29	6
32	33	16
59	59	12
148	148	9
44	44	18
14	14	21
164	164	5
33	33	17
23	24	6
66	67	5
102	103	3
58	58	3
83	83	8
74	74	10
103	103	8
30	30	14
127	127	7
37	38	5
135	136	9
79	79	8
71	72	6
176	176	9
121	121	10
8	9	8
151	174	2
10	10	12
68	68	12
126	126	12
146	147	2
21	22	7
165	165	2
97	98	7
120	120	11
7	7	11
106	106	7
102	102	4
79	81	4
27	27	14
56	56	7
112	112	5
85	85	11
166	166	13
71	71	4
15	15	18
20	21	4
11	14	5
20	20	6
118	118	13
153	153	2
155	156	3
12	13	13
70	70	5
170	170	14
167	167	5
136	137	3
138	139	2
99	100	2
153	154	2
105	106	2
171	171	7
43	45	4
38	38	8
86	86	10
34	88	4
145	145	7
116	118	2
27	36	2
97	97	7
37	37	11
63	64	5
128	128	7
22	22	7
7	8	2
42	42	10
131	173	2
43	44	4
66	66	7
158	159	6
3	3	10
134	134	11
145	148	1
36	37	3
39	39	5
12	12	6
165	166	4
34	34	12
159	159	10
154	155	1
152	153	3
6	6	11
0	0	14
9	9	20
134	135	2
60	60	4
122	124	3
105	105	5
39	63	3
139	139	13
28	30	3
110	110	5
17	17	9
11	11	18
151	151	11
25	32	3
27	29	7
132	132	10
107	109	12
158	160	1
113	113	7
90	104	4
102	114	3
122	122	11
163	165	2
142	154	2
16	16	12
96	124	1
24	24	13
36	92	3
21	21	4
31	96	4
57	57	3
7	10	2
162	164	2
96	97	4
84	84	2
55	57	4
133	133	12
127	131	3
119	119	10
111	112	1
12	18	2
18	18	24
54	54	1
73	73	3
50	52	4
86	122	4
160	161	2
4	20	5
75	90	1
145	150	2
146	164	1
89	89	2
113	176	3
98	98	7
35	36	3
178	178	9
162	162	14
15	16	5
24	26	5
26	26	10
87	88	7
135	169	3
148	149	2
28	28	10
18	19	7
89	90	7
49	49	2
96	96	9
3	7	3
130	130	9
95	121	3
101	101	2
142	143	7
2	4	5
136	136	4
173	174	5
141	141	9
162	170	3
14	15	1
132	133	1
94	95	3
30	37	2
131	131	6
111	173	3
124	124	6
177	177	1
91	91	6
150	154	2
73	74	1
74	121	2
149	150	7
64	64	9
93	93	5
63	63	3
75	75	2
145	146	4
62	64	1
179	179	3
126	131	1
35	91	2
31	31	7
82	89	1
129	130	2
133	134	2
166	167	1
169	169	4
157	158	3
51	51	2
161	171	2
144	144	2
80	81	4
170	171	6
110	111	3
23	23	15
1	5	2
115	115	5
40	40	9
83	84	5
80	84	2
176	177	2
80	80	13
138	141	1
150	151	6
104	125	6
55	55	7
52	53	5
121	122	1
14	94	3
92	108	2
127	128	6
78	79	1
144	145	2
25	30	2
173	173	6
109	109	4
26	27	7
81	82	1
58	72	2
156	156	8
137	137	3
150	150	6
3	4	6
154	154	5
144	157	1
23	25	5
8	8	6
29	30	3
168	171	2
118	119	6
167	168	3
162	166	1
133	149	5
125	142	1
19	19	6
162	163	2
112	115	9
108	108	7
9	15	2
62	62	5
95	130	2
107	107	3
76	76	9
32	34	1
148	153	5
149	169	2
92	92	2
142	142	3
175	175	3
113	114	3
82	103	2
115	118	3
125	126	3
137	172	1
129	149	2
36	36	9
1	1	3
82	135	5
92	93	1
53	54	5
13	36	2
52	52	8
82	82	4
29	44	3
19	20	2
43	43	10
17	26	1
24	170	1
100	121	2
22	31	2
84	104	2
111	115	3
18	23	2
81	81	3
20	30	2
36	38	1
107	130	2
124	147	2
109	111	1
111	120	3
157	169	1
119	129	4
137	166	2
159	160	2
175	176	3
31	44	4
38	39	3
76	77	3
123	145	2
117	117	4
26	29	3
45	46	2
74	75	2
44	45	4
45	45	3
146	146	2
31	97	2
72	72	13
78	163	1
169	170	2
21	83	3
95	103	2
128	129	2
78	78	3
113	128	3
114	114	7
78	91	2
22	23	1
166	175	2
5	17	2
128	145	2
72	88	1
60	61	5
89	93	1
10	11	7
2	8	2
111	141	2
167	170	1
174	175	2
35	76	2
109	151	1
112	114	1
136	138	1
104	112	2
1	2	2
179	180	2
41	42	1
166	179	1
140	140	4
41	51	1
90	91	2
143	144	1
141	144	2
25	29	1
125	125	4
135	135	1
31	37	1
149	153	1
115	116	2
3	9	1
163	164	5
124	125	3
161	161	4
20	35	3
124	150	1
140	159	2
41	45	1
76	90	3
29	43	1
51	60	1
9	29	2
115	117	2
101	102	3
64	65	1
16	17	1
34	90	2
42	43	2
178	179	1
10	35	1
11	13	4
53	53	2
19	22	1
54	61	1
135	170	1
36	72	1
37	39	4
172	172	1
112	135	2
123	125	2
88	88	4
111	142	1
41	44	1
6	7	1
88	91	2
138	138	4
9	10	1
169	171	3
115	119	3
3	40	1
167	169	1
168	168	4
140	160	1
162	180	1
168	170	1
137	138	2
108	109	3
52	63	1
134	149	1
8	155	1
158	179	2
143	145	2
104	105	1
160	178	1
131	132	2
22	24	2
59	60	2
10	14	1
112	113	1
30	44	1
165	167	2
16	18	2
29	31	1
89	143	1
13	15	1
118	131	1
30	75	1
50	50	2
8	147	2
57	58	1
147	148	1
15	35	2
17	18	1
153	157	1
39	40	1
51	53	1
27	28	1
40	63	3
123	123	1
20	22	1
95	123	1
26	28	1
94	132	1
166	171	1
163	163	1
6	12	2
98	115	1
70	179	1
159	161	2
180	180	1
163	179	2
139	147	1
100	100	1
59	65	1
160	162	1
31	38	1
120	121	1
1	31	1
95	96	1
140	141	1
156	165	1
26	44	1
78	81	1
106	120	1
90	90	1
85	104	1
2	3	1
91	121	1
