34	34	14
90	90	9
99	99	12
29	29	5
98	98	6
95	95	5
96	96	3
74	74	8
44	44	11
84	107	2
61	62	4
65	65	8
111	112	3
73	73	12
79	79	12
32	33	3
47	48	2
105	107	4
88	88	6
73	74	16
100	100	8
52	52	20
55	56	8
78	79	1
93	95	6
72	72	5
33	33	8
56	56	4
81	82	2
83	88	2
66	67	3
79	80	4
54	54	4
45	49	5
114	114	9
43	45	1
77	77	4
92	92	6
58	58	8
67	68	3
80	80	11
62	64	5
88	89	1
69	70	1
109	109	10
48	48	8
92	94	5
55	60	5
36	38	2
88	93	2
83	84	3
113	114	1
59	59	8
82	82	8
89	91	4
46	46	5
93	93	2
57	57	6
54	57	4
96	98	6
81	81	7
100	102	2
110	110	11
49	73	1
115	115	5
112	112	2
75	76	1
76	76	8
88	98	1
70	83	3
96	97	6
47	49	3
80	81	4
45	45	6
87	87	8
101	101	11
28	28	4
108	108	5
84	84	7
111	111	11
41	41	18
47	47	9
64	65	7
42	42	9
68	68	4
83	83	4
78	78	10
70	70	7
40	41	2
34	35	4
66	70	1
83	85	4
61	61	5
50	50	6
61	64	7
82	89	4
98	99	4
86	87	4
77	79	3
38	39	5
59	60	2
51	52	3
63	63	5
89	89	7
69	69	3
38	38	1
28	29	3
70	96	1
65	68	1
22	22	5
105	106	2
86	86	2
49	49	6
49	53	2
107	108	3
75	75	4
85	85	3
95	96	4
37	37	10
70	74	3
109	110	4
113	113	7
60	98	1
52	74	1
89	98	7
85	86	2
104	105	2
25	25	1
39	39	2
44	45	5
60	60	7
90	91	6
55	55	4
41	42	1
37	38	1
100	103	1
73	79	3
31	34	3
53	60	1
23	25	2
21	21	4
20	20	13
68	69	6
91	95	1
48	49	1
105	109	2
19	20	1
27	28	2
35	35	2
66	66	9
64	64	1
56	97	1
27	27	4
94	95	3
101	102	2
62	80	3
106	106	1
26	26	1
91	93	1
69	71	3
83	86	1
97	97	2
89	90	2
70	97	2
104	107	2
104	104	2
39	40	1
61	72	2
56	58	1
24	24	1
91	91	7
73	86	1
71	73	2
44	50	1
87	90	3
102	103	2
51	51	2
57	59	1
90	94	3
91	92	4
81	90	2
61	75	1
48	50	1
67	67	1
30	30	4
71	71	2
70	71	1
105	105	2
60	62	1
30	31	1
54	55	4
42	43	1
109	111	1
79	83	1
52	53	1
87	89	1
99	105	1
108	109	1
84	85	2
76	77	1
22	23	2
99	100	2
60	63	1
59	77	1
38	41	1
80	88	1
64	76	2
46	47	3
63	71	2
36	37	1
31	32	1
62	62	1
106	107	2
44	48	1
107	107	1
103	106	1
83	87	1
88	90	1
76	78	1
66	95	1
94	94	1
32	32	1
43	43	1
53	53	1
84	87	1
65	67	1
63	65	1
102	102	1
26	27	2
98	108	1
45	46	1
52	77	1
