28	28	27
31	32	25
82	82	24
57	59	3
96	97	2
169	169	23
99	100	6
104	104	11
159	160	11
38	38	33
157	158	9
55	55	17
26	26	17
165	165	21
43	44	9
161	163	3
33	33	31
157	157	26
30	36	4
129	130	21
65	65	19
111	121	3
6	6	30
59	78	3
135	136	6
161	162	15
72	72	19
6	20	1
50	51	16
132	132	8
40	41	13
118	118	25
174	174	32
7	7	44
117	118	6
4	4	20
114	115	10
14	15	3
125	125	23
130	130	6
91	91	5
173	173	26
98	98	10
57	57	30
120	156	9
44	44	25
158	159	12
14	14	35
129	129	26
111	112	17
23	24	7
25	35	2
56	56	33
31	35	2
67	67	23
1	1	17
5	5	22
152	153	16
151	152	11
26	27	6
67	156	1
64	64	26
127	128	5
103	103	16
96	96	11
24	24	37
110	110	27
63	136	3
83	83	9
104	105	9
11	12	16
141	143	4
143	145	6
12	12	22
43	51	4
155	155	16
139	140	10
96	98	3
100	100	19
102	102	10
29	29	28
160	160	17
121	159	2
144	145	5
140	140	14
32	32	50
66	156	7
20	20	26
68	150	3
87	87	15
168	174	3
33	74	5
30	30	37
86	87	9
143	153	4
168	168	24
116	118	13
127	127	29
90	90	13
42	42	24
105	146	3
120	121	2
53	55	10
105	147	4
25	25	23
31	31	31
11	14	2
163	164	16
155	156	6
79	122	2
86	89	6
109	113	2
54	54	11
10	10	34
4	6	8
16	16	14
27	27	32
93	93	20
86	86	14
27	30	2
22	23	14
19	19	27
147	147	21
39	40	15
37	38	6
101	119	5
147	151	1
36	37	13
39	39	38
62	85	2
11	11	33
43	43	32
37	39	3
158	158	20
27	60	1
50	52	7
78	78	12
57	60	1
116	117	5
22	22	38
117	168	5
16	31	2
149	150	12
84	85	1
3	5	3
134	134	10
18	18	14
117	119	2
124	124	25
105	109	5
116	116	9
16	18	12
122	122	18
87	88	5
71	139	1
31	33	12
81	81	14
0	1	7
109	109	9
159	159	13
131	156	3
23	58	2
138	138	13
28	86	3
15	16	15
137	137	4
66	103	9
156	167	1
96	153	2
16	33	6
132	136	4
141	141	12
121	123	6
11	13	6
15	15	21
119	160	2
34	35	11
60	135	2
136	136	16
119	119	26
145	147	4
9	9	43
7	8	10
17	18	20
106	145	3
65	130	4
7	13	1
71	71	15
146	154	2
95	95	16
35	35	17
89	89	11
29	59	7
117	117	20
176	176	9
2	2	24
76	76	17
172	172	24
105	106	5
113	126	6
24	36	3
3	3	27
80	82	3
139	142	2
28	33	1
20	21	7
88	89	28
21	31	3
2	3	16
24	25	8
25	26	10
149	149	14
171	171	16
28	30	22
45	45	25
99	99	12
96	150	2
5	29	2
21	21	20
13	13	28
28	29	9
50	50	19
113	114	5
103	104	8
21	22	4
17	17	29
65	66	8
161	161	14
73	90	4
9	12	5
62	62	13
113	113	7
60	60	18
5	33	3
112	112	18
126	126	21
137	144	2
62	63	8
17	23	1
20	22	8
123	123	24
130	157	5
13	20	3
74	74	17
85	86	11
144	144	27
64	175	1
8	157	2
168	169	7
34	41	1
146	152	6
53	54	9
64	73	2
19	20	10
40	40	11
64	155	3
81	82	11
175	176	3
148	148	11
110	111	5
23	23	41
124	125	13
104	146	4
163	163	12
132	165	4
58	59	6
108	123	3
34	34	13
150	150	13
172	173	7
65	75	6
97	97	14
150	152	2
13	16	3
32	35	1
67	152	2
10	11	20
121	124	7
60	61	9
41	41	20
75	75	15
133	133	17
100	151	1
98	99	13
22	37	7
5	6	13
79	80	1
101	102	8
120	159	5
51	51	17
108	108	11
15	42	3
26	159	2
146	148	1
8	8	32
27	28	9
63	63	22
163	167	2
68	153	2
82	83	6
32	33	9
170	170	13
72	79	3
167	168	7
128	128	20
121	122	16
143	144	5
37	37	29
142	166	4
114	114	4
64	65	2
42	43	4
154	154	21
15	34	2
131	131	24
157	159	1
162	171	2
121	121	13
4	5	13
2	33	4
170	171	7
178	178	11
29	30	11
38	39	5
21	23	10
9	11	12
18	46	4
76	85	4
74	75	4
166	166	7
5	9	5
148	150	3
79	79	21
162	162	17
20	43	3
67	68	10
133	134	7
34	73	1
90	91	3
44	45	12
33	34	4
66	66	8
27	42	1
165	166	5
8	9	14
77	77	11
166	171	2
119	120	4
26	28	8
45	46	7
99	147	2
158	177	1
132	133	13
22	41	6
115	118	1
149	153	2
139	139	21
123	124	13
171	175	7
17	58	5
142	142	13
94	108	1
21	44	2
93	108	3
150	153	5
33	37	1
6	12	1
19	21	5
101	101	7
5	7	7
143	143	19
112	113	2
27	35	1
92	92	14
12	13	19
88	88	13
16	17	3
145	145	11
106	106	7
129	157	2
61	61	12
76	77	9
85	85	16
52	52	3
166	167	6
104	106	3
163	166	9
106	111	1
141	142	6
73	74	7
41	44	6
112	115	1
150	151	1
162	165	1
103	107	2
27	31	1
14	34	3
131	132	2
135	138	3
124	162	3
35	36	14
56	62	1
166	168	10
111	111	9
33	36	3
157	168	2
121	160	2
74	139	3
115	116	3
120	120	32
116	168	6
40	42	1
24	30	1
72	73	4
73	73	21
130	156	1
56	58	2
83	85	6
128	129	5
53	97	6
130	131	5
96	99	2
151	151	10
91	92	8
54	55	4
34	36	2
131	144	2
164	168	5
66	67	6
146	155	3
118	145	2
56	59	2
82	106	1
153	153	9
57	61	1
102	103	5
7	9	4
156	156	12
87	90	3
131	157	3
24	27	2
120	155	4
63	65	4
99	101	3
13	14	11
63	152	1
156	159	3
18	19	7
65	76	1
73	75	7
70	71	3
146	146	19
104	109	2
97	131	1
9	10	13
59	98	1
63	64	5
107	107	13
140	141	3
157	160	2
17	44	3
126	128	3
177	177	1
56	61	2
18	21	2
36	36	37
22	112	1
28	42	8
138	140	5
40	166	2
3	4	3
65	154	2
152	152	10
68	68	5
13	15	5
95	96	1
0	0	14
65	74	2
68	154	2
110	126	7
97	101	3
154	155	12
87	89	6
41	42	11
53	53	9
107	109	10
138	139	1
13	68	1
1	2	8
4	32	3
65	72	5
36	42	2
100	101	7
14	32	3
18	58	5
159	163	3
135	135	6
25	33	4
59	59	8
20	58	1
98	151	1
159	169	5
25	28	4
109	125	1
74	102	3
102	147	1
10	14	5
49	50	7
18	33	6
134	138	2
21	41	2
120	122	3
121	126	2
1	3	1
28	72	1
1	10	2
77	91	7
132	137	2
132	134	9
175	175	4
118	119	9
145	146	3
10	18	3
46	46	7
52	54	6
9	151	1
35	45	1
37	87	2
123	162	1
3	31	3
121	125	4
66	73	3
111	113	1
71	79	1
10	27	1
176	177	8
109	112	3
31	36	3
173	180	2
6	21	3
115	147	2
52	53	6
105	108	4
163	168	5
131	167	1
122	160	1
108	157	3
103	154	3
15	33	5
58	62	2
10	12	5
20	29	3
85	117	5
161	165	3
5	10	1
51	52	1
164	164	4
34	58	4
134	135	5
94	94	10
14	16	2
5	8	3
9	13	1
125	126	1
35	40	1
60	62	1
126	127	2
30	31	4
65	129	1
122	133	1
25	42	4
98	129	1
115	117	3
111	114	3
5	20	2
171	172	4
87	113	3
126	129	1
61	152	1
153	155	1
7	10	5
147	150	1
4	30	3
56	84	2
56	60	2
9	158	3
21	27	5
108	109	7
79	91	1
29	44	2
179	180	2
167	167	13
115	168	5
9	35	1
78	80	1
40	58	3
171	179	2
89	94	1
103	147	4
115	115	4
70	70	1
106	109	4
29	35	1
89	124	3
163	165	2
2	30	4
23	85	5
174	176	1
52	82	1
110	112	2
135	148	4
84	84	7
6	11	2
178	179	3
118	162	5
119	168	3
170	178	1
92	122	3
150	154	1
82	84	2
53	56	1
35	73	2
1	33	1
107	148	1
73	76	3
58	58	10
3	9	5
155	166	2
54	56	1
16	26	2
31	74	2
104	145	1
22	25	5
100	130	2
141	145	6
11	18	1
77	79	1
104	147	1
104	107	2
0	57	1
180	180	3
97	98	3
136	137	4
26	30	2
106	107	6
61	62	6
151	154	2
122	123	4
136	173	2
146	153	3
85	96	2
56	57	5
107	108	4
59	77	2
40	85	5
127	131	2
105	105	11
24	26	2
95	97	4
15	18	2
92	93	1
29	32	2
138	141	1
162	164	5
135	173	2
179	179	4
25	27	4
28	43	1
162	166	7
40	84	2
153	154	2
95	137	2
162	167	1
50	82	3
24	31	1
20	24	1
82	116	2
38	54	2
95	138	3
81	86	2
4	24	3
2	29	2
137	138	4
41	49	4
159	161	2
18	25	1
80	80	4
120	123	1
5	13	6
24	28	6
97	99	2
160	161	4
122	132	3
14	25	2
24	131	2
29	31	2
72	74	2
12	15	6
3	7	2
88	122	2
112	118	4
160	162	3
67	149	1
22	29	2
80	81	1
128	155	2
55	56	2
118	157	2
6	7	4
110	125	1
164	166	1
20	36	2
119	161	1
6	9	1
16	36	2
61	85	1
78	141	3
176	179	1
71	78	1
93	122	3
88	103	2
169	170	1
38	40	1
26	31	2
132	142	1
132	135	2
78	91	1
4	7	3
52	98	1
101	146	4
82	97	2
31	93	1
106	129	2
7	15	2
164	165	3
71	72	2
8	10	1
13	24	1
147	148	1
27	36	2
6	10	1
175	177	2
115	167	2
177	178	3
118	165	4
105	107	5
78	79	3
25	44	2
28	35	1
125	161	1
30	74	3
6	14	1
24	42	1
135	149	1
142	143	6
35	42	2
106	113	2
29	45	2
11	24	1
109	126	1
23	27	1
32	40	1
168	175	3
15	31	4
95	130	1
19	23	2
32	36	1
49	49	3
145	150	1
74	94	2
173	174	1
93	94	2
77	175	1
175	180	1
86	88	2
31	42	2
12	14	1
8	12	1
65	67	2
51	59	2
77	93	1
78	153	1
103	109	2
132	141	1
162	163	2
10	13	3
30	34	1
103	146	1
43	55	1
91	109	1
83	114	1
131	134	1
89	90	1
66	136	1
24	43	1
111	115	2
81	90	1
132	173	2
76	91	1
51	53	1
106	127	2
22	24	2
2	31	1
152	154	3
146	147	1
92	151	2
96	131	1
79	121	2
66	68	3
17	31	1
156	157	1
112	126	1
106	108	1
0	2	1
99	106	1
135	174	1
12	27	2
10	15	1
99	150	3
102	119	1
11	15	2
91	93	2
2	4	2
21	34	1
70	72	1
1	91	3
112	114	2
16	45	1
154	157	1
104	108	3
73	135	1
64	68	1
24	29	2
168	171	1
158	169	1
58	82	2
135	143	1
27	29	1
178	180	2
72	77	1
17	22	1
29	37	1
115	169	1
39	41	1
12	41	1
132	164	1
156	161	1
27	71	1
19	24	2
121	155	1
169	176	1
75	77	2
78	93	2
157	170	1
0	33	1
3	23	1
6	33	1
122	163	1
90	102	1
22	27	1
37	40	1
98	101	1
23	26	1
91	94	1
117	157	1
133	167	1
19	33	1
92	108	1
136	139	2
98	153	1
81	85	1
23	25	2
59	61	1
142	149	1
82	145	1
134	149	1
136	149	1
136	143	1
63	74	1
4	55	1
10	16	1
76	90	1
21	40	1
164	169	1
70	93	1
146	149	1
90	92	1
145	153	1
65	102	1
26	29	1
