5	5	9
66	88	5
89	89	10
9	9	4
61	61	5
10	10	12
32	32	13
83	83	4
12	13	12
107	107	2
160	162	4
133	134	3
11	15	1
95	96	2
171	172	2
97	97	6
57	59	4
66	66	2
118	118	1
151	152	1
67	67	7
99	101	3
169	169	3
79	79	3
56	57	8
54	54	7
84	84	2
22	23	4
10	15	5
123	125	3
4	4	7
20	20	4
113	113	3
95	95	13
3	3	6
103	119	3
80	99	1
156	163	5
130	130	11
111	111	2
14	14	13
32	33	8
1	4	3
138	138	9
116	117	3
177	179	2
7	34	2
19	19	9
157	159	1
125	125	11
158	158	1
46	46	4
177	177	5
2	9	9
164	164	2
7	7	5
22	22	9
27	27	8
11	30	5
141	141	2
45	45	4
106	115	5
167	169	10
127	127	3
2	4	4
58	58	1
120	120	5
21	153	8
152	161	2
66	83	3
106	106	5
24	88	3
162	162	6
25	25	10
109	118	3
61	62	1
173	174	1
146	146	3
129	129	5
176	176	4
103	114	2
93	94	3
148	148	3
53	73	4
83	85	5
149	149	4
26	26	8
25	168	1
62	62	4
24	137	2
53	53	1
152	155	2
50	88	3
85	85	2
134	142	2
175	177	3
38	38	8
6	10	1
91	91	10
6	6	5
135	136	1
96	133	1
86	86	2
23	29	2
4	8	4
58	59	1
129	130	1
36	36	4
88	90	3
41	41	4
77	78	3
34	34	4
119	119	8
86	87	5
2	43	1
166	167	2
153	154	2
108	120	3
38	40	1
33	34	2
151	151	7
12	12	13
29	40	2
32	37	2
123	123	10
19	40	3
134	134	7
165	165	3
52	64	4
4	6	1
126	126	4
88	89	1
98	110	4
152	152	4
132	133	3
142	142	3
21	21	6
89	145	4
24	26	2
164	165	1
116	116	4
90	90	6
165	169	1
75	75	1
0	1	5
175	179	1
112	112	5
93	93	4
133	133	10
172	172	2
11	16	4
171	171	6
114	114	11
4	33	2
28	42	4
67	89	3
15	15	7
20	35	3
100	100	3
10	17	2
114	115	6
154	170	2
33	33	5
8	9	2
39	39	7
6	31	5
137	138	3
104	104	5
109	110	4
141	174	3
131	131	8
73	73	2
40	40	12
157	157	3
66	67	2
16	16	7
17	20	4
156	157	2
151	167	6
134	135	1
28	28	10
105	105	4
74	74	1
20	44	5
31	33	2
144	144	4
171	173	2
19	20	4
67	79	2
177	178	3
169	170	1
175	176	1
143	144	3
31	31	5
92	92	3
128	128	1
9	13	1
0	0	2
168	168	7
137	140	2
39	41	1
167	167	10
59	59	11
111	113	1
43	43	2
116	136	1
28	29	6
156	158	6
3	5	2
137	137	8
57	57	2
60	60	1
137	141	2
140	140	2
71	71	4
50	51	3
2	5	3
36	38	4
35	35	4
102	102	1
136	136	8
44	44	3
29	30	1
147	147	1
30	30	4
180	180	3
64	71	1
23	24	4
91	92	1
8	8	3
174	174	1
23	23	7
88	88	2
97	128	1
53	54	1
110	110	5
118	124	1
37	38	3
26	27	2
178	179	1
117	123	3
50	50	1
3	4	4
92	93	2
95	145	2
29	29	3
24	25	4
10	16	3
41	42	2
142	143	1
132	132	3
154	155	1
170	174	3
7	68	1
4	7	1
36	42	1
121	121	2
83	86	1
11	12	2
139	139	4
77	102	2
179	179	3
7	23	3
44	45	1
109	120	5
63	63	2
65	65	1
78	78	3
1	1	3
94	94	2
151	155	3
30	31	1
140	162	2
14	15	2
101	109	1
9	10	1
59	60	2
15	16	1
162	167	1
117	117	2
101	101	5
103	103	3
24	41	2
97	125	3
16	28	2
82	82	3
17	17	2
104	105	1
24	93	2
1	14	2
94	153	3
20	45	2
96	96	1
32	34	1
37	37	1
33	55	2
108	108	5
144	154	2
35	36	1
24	24	5
11	11	2
9	15	1
56	56	2
97	100	1
13	13	2
81	81	1
33	38	4
17	108	3
135	146	2
39	51	3
43	95	1
16	17	6
33	35	1
10	14	2
107	111	4
126	127	1
8	15	1
66	72	3
152	153	1
96	179	1
124	126	1
33	132	2
80	80	2
9	32	1
18	21	1
159	161	3
10	11	2
68	68	2
160	178	1
32	35	1
2	31	1
128	130	2
42	42	2
124	124	1
112	113	1
55	55	2
18	18	2
61	92	1
127	158	1
55	76	1
42	45	1
81	85	2
55	57	1
17	34	1
158	159	1
106	147	2
105	106	3
9	38	2
18	19	1
156	156	5
157	163	1
128	156	1
161	162	3
154	154	2
146	147	1
90	146	1
39	40	1
96	97	1
155	156	1
96	134	1
127	128	1
137	139	1
130	131	1
31	32	3
91	97	1
135	135	1
6	8	1
118	119	1
160	160	1
134	153	1
20	22	2
128	129	1
79	82	1
35	37	1
110	145	1
147	148	1
108	118	2
148	149	1
156	167	1
130	152	2
109	119	1
87	87	1
163	164	1
166	166	2
23	27	2
81	82	1
118	120	1
98	103	1
67	86	1
5	9	1
90	91	1
