93	128	2
125	126	8
130	130	6
104	104	6
82	96	1
24	24	4
78	78	7
108	109	3
77	78	12
131	131	3
56	57	4
82	82	2
30	30	1
94	94	5
84	84	8
96	107	3
100	100	2
113	113	8
28	28	3
73	73	5
62	88	4
118	119	4
59	59	1
68	68	2
111	111	5
48	48	1
91	92	7
98	98	3
47	61	5
65	68	5
106	119	8
82	87	4
71	72	4
92	92	4
128	128	2
90	90	9
58	58	4
61	61	5
106	106	4
12	12	5
87	87	7
7	13	3
43	43	3
93	93	19
46	128	1
70	70	10
1	3	4
77	100	3
31	31	6
55	68	5
75	75	6
80	80	1
128	129	3
132	134	2
71	71	12
91	133	1
5	5	5
45	45	5
44	44	2
7	10	2
69	69	7
89	89	9
129	132	3
72	72	1
0	0	5
6	35	3
16	17	1
18	20	4
57	58	2
96	111	3
90	104	1
93	95	3
116	120	4
62	125	1
86	86	2
21	22	6
44	61	4
22	22	4
76	100	3
97	97	5
7	12	2
125	125	6
25	26	3
53	87	2
121	121	6
108	108	6
79	81	2
53	53	1
15	16	1
74	74	4
43	61	4
104	105	2
124	125	2
9	47	1
98	100	2
12	27	2
9	10	3
1	2	1
65	65	3
14	14	1
91	91	2
50	50	3
94	105	4
35	35	2
66	67	5
102	102	1
11	13	6
10	13	5
133	133	3
107	107	7
13	14	3
67	67	6
98	102	2
119	125	1
79	80	4
88	88	3
60	129	1
49	50	1
16	18	1
10	10	2
106	109	3
112	112	12
78	82	2
64	64	3
124	124	1
103	104	1
85	85	5
114	118	1
126	127	3
49	49	2
69	71	3
105	105	2
18	18	3
69	89	2
60	62	2
126	126	1
3	4	1
99	99	2
47	47	2
66	66	3
120	120	2
32	33	2
73	75	3
114	114	2
122	130	1
26	37	3
79	79	3
116	118	1
11	36	2
63	79	2
31	32	3
118	118	4
28	47	1
101	101	2
119	119	3
48	53	1
19	19	1
56	58	1
59	109	1
122	122	2
56	56	2
15	15	2
111	120	3
2	4	2
54	57	2
63	63	1
55	55	3
73	129	3
88	125	1
115	115	3
110	110	3
26	26	3
129	129	3
0	102	2
17	25	1
9	11	1
90	105	1
125	130	1
32	32	1
42	50	1
82	84	2
113	125	1
60	60	2
86	87	1
45	59	3
3	32	2
12	13	2
19	20	1
117	121	5
62	63	1
109	109	1
92	124	1
20	21	1
53	54	1
70	71	1
97	109	1
71	105	1
92	107	1
18	21	1
129	130	1
64	65	1
114	115	2
114	119	1
29	30	3
52	52	1
119	124	1
133	134	1
79	83	2
11	11	1
121	122	1
16	16	1
105	111	2
15	20	1
46	46	1
105	123	1
1	1	1
83	83	1
28	31	1
127	128	1
