55	55	32
69	69	14
53	53	36
4	4	14
47	47	21
34	34	11
58	58	18
66	70	1
66	67	11
23	48	3
56	57	9
38	39	4
28	28	23
57	57	24
31	31	15
71	71	19
20	20	21
72	72	30
73	76	9
23	23	16
36	38	6
22	22	28
63	63	31
0	1	6
39	42	4
33	34	10
36	37	19
50	51	16
2	8	9
12	13	5
0	2	4
19	21	5
35	36	14
65	65	23
10	10	31
5	6	8
25	29	1
24	24	8
68	68	34
9	10	5
29	29	22
23	24	11
2	4	5
74	74	22
7	7	14
74	77	5
72	73	8
54	55	11
30	30	21
51	53	5
48	49	7
1	2	11
35	35	20
3	3	23
6	6	9
51	51	8
31	32	17
26	26	43
46	46	15
42	42	14
1	3	3
8	8	20
51	68	3
75	75	7
50	50	9
57	62	1
29	34	2
60	61	22
43	43	24
37	42	2
12	12	13
13	13	14
24	25	2
45	45	27
63	64	6
9	9	12
21	21	16
52	52	17
10	11	9
61	62	10
54	54	18
18	32	1
43	44	9
53	55	2
67	67	19
2	2	15
0	3	4
35	38	4
19	19	27
64	68	4
26	27	11
66	66	21
7	8	5
62	62	19
51	52	7
67	68	10
60	60	16
55	69	1
35	51	2
13	23	4
69	70	19
48	48	19
73	73	28
1	1	14
61	61	18
64	64	19
8	9	4
36	39	1
48	52	3
34	50	3
37	37	14
32	33	2
23	31	2
3	4	16
64	66	12
48	71	4
75	77	3
40	41	10
7	11	2
74	75	6
24	49	6
4	21	2
33	33	23
70	70	8
18	21	3
34	52	1
5	20	2
73	74	14
39	39	9
2	3	6
22	23	7
19	20	7
49	50	12
45	46	3
18	18	5
32	32	21
30	72	6
27	27	16
24	28	3
41	42	5
44	44	12
40	40	13
3	23	2
8	12	8
47	48	6
45	48	2
68	69	7
54	56	9
57	65	2
31	72	3
56	56	25
2	23	4
11	11	11
52	54	10
41	41	15
51	55	7
58	61	2
30	34	6
20	21	8
62	64	2
60	65	4
62	63	11
58	60	3
45	47	2
63	68	1
0	0	12
29	47	6
71	72	1
59	60	10
57	59	6
63	65	5
1	12	1
39	40	4
75	76	6
21	22	10
38	41	3
25	28	5
38	38	4
74	76	3
7	9	2
7	29	6
44	45	5
25	25	8
29	30	5
57	75	2
46	47	7
70	71	7
8	10	3
6	7	5
65	70	5
59	59	14
57	60	7
7	10	2
9	11	6
8	11	3
65	66	1
5	5	5
36	36	12
54	68	3
35	39	2
76	77	3
55	60	3
33	54	2
34	54	3
49	49	8
28	29	2
60	62	5
76	76	7
34	37	2
24	27	2
49	51	5
37	39	7
59	62	5
4	18	2
38	72	4
37	45	1
27	28	1
41	43	1
58	59	4
10	12	1
6	29	1
57	58	5
34	38	3
21	23	1
41	73	1
25	26	6
37	70	2
42	43	6
77	77	10
55	56	7
37	38	4
46	71	2
46	72	1
30	31	8
70	74	2
77	78	2
35	37	1
6	8	1
59	61	5
43	45	5
3	22	2
61	63	2
34	51	3
24	48	2
5	13	2
57	66	3
5	25	2
0	46	5
4	24	1
51	67	1
38	42	3
51	56	1
64	69	1
65	68	1
63	74	2
12	21	1
2	22	3
18	23	2
33	49	2
24	30	2
51	71	1
37	71	1
45	63	1
7	13	1
5	18	1
56	69	1
38	69	1
38	43	1
34	35	3
53	54	1
3	25	1
4	5	2
48	50	1
42	71	4
11	12	2
48	72	2
52	68	1
44	47	1
33	52	2
52	56	1
52	53	2
49	74	1
24	26	1
32	34	2
39	53	1
6	10	1
25	49	1
34	53	2
34	49	1
14	47	1
18	19	2
47	71	1
72	74	1
5	28	1
1	4	1
0	6	1
60	64	1
57	74	1
4	6	1
9	20	1
42	70	1
34	39	1
28	30	1
31	54	1
39	43	1
