28	28	1
105	105	11
25	25	11
107	115	4
93	94	6
49	91	2
64	65	2
45	46	2
43	100	3
110	110	11
78	79	3
2	2	6
104	105	4
112	112	2
81	82	4
22	80	4
23	24	2
11	11	6
40	40	10
9	9	4
19	25	5
1	1	2
50	50	5
79	79	6
61	61	6
126	129	6
71	71	11
19	19	10
76	76	3
126	127	4
72	72	5
108	108	2
21	25	3
109	110	2
78	78	5
78	80	1
55	71	7
74	74	1
45	65	5
64	64	5
121	121	5
24	24	1
17	17	3
91	91	5
106	106	2
30	30	10
57	57	6
43	43	6
94	94	11
119	126	2
62	64	1
67	67	4
4	5	6
60	65	1
89	89	10
102	102	3
132	133	2
55	99	4
44	44	6
41	41	4
79	80	6
20	20	2
13	13	4
104	130	1
60	64	2
51	51	9
123	124	1
13	65	3
5	5	5
119	119	5
131	131	3
84	84	4
117	117	3
63	63	4
16	18	2
86	87	1
48	48	5
101	101	10
96	96	6
120	123	2
99	101	6
100	115	2
130	130	5
65	66	2
45	45	5
124	124	4
104	104	6
56	56	7
42	98	4
58	79	3
73	115	2
29	29	3
92	92	5
30	34	5
58	59	3
15	15	2
9	10	6
94	118	3
126	128	7
52	52	2
40	75	4
89	91	7
127	127	10
20	21	1
0	12	5
49	51	3
47	47	13
123	123	2
69	69	4
52	113	1
103	103	11
11	12	5
21	21	2
133	133	1
105	106	4
50	51	2
69	74	3
56	87	2
83	83	6
17	29	1
61	62	1
72	74	2
15	65	3
3	3	2
109	109	5
27	27	1
102	114	4
115	115	3
80	80	2
16	22	2
111	111	2
7	7	3
49	49	2
55	78	2
87	87	2
119	130	2
60	61	2
54	54	2
43	73	4
59	59	2
33	33	2
42	44	4
100	100	5
98	118	4
82	85	1
64	66	9
112	113	2
42	59	3
80	81	1
113	113	5
125	125	4
42	42	1
20	76	3
90	91	1
52	54	2
73	77	3
83	86	3
66	66	1
55	55	7
116	116	3
60	60	4
69	95	5
125	127	3
58	73	1
56	59	5
87	117	4
57	58	3
12	12	4
87	88	1
34	34	3
50	94	2
65	65	7
53	53	3
98	114	2
99	99	7
81	98	3
111	113	2
83	116	3
16	39	3
47	96	2
50	56	1
5	10	3
54	79	1
10	10	5
65	72	1
6	6	2
26	26	5
39	46	1
111	112	1
85	104	1
4	4	1
82	82	2
66	67	1
115	116	1
22	22	7
77	77	1
46	47	4
112	121	1
130	132	1
33	34	1
100	102	1
97	99	1
53	113	2
31	31	2
107	108	1
82	97	2
18	18	1
87	101	2
109	112	1
61	91	1
2	5	1
61	78	2
16	16	1
97	119	1
72	73	1
110	111	1
86	86	1
3	5	1
8	9	1
132	132	1
107	107	1
78	90	2
119	128	1
95	95	2
119	125	1
70	70	3
39	39	1
85	85	1
70	71	1
88	122	1
113	114	1
45	55	1
1	2	1
13	18	1
98	117	2
40	41	1
40	44	1
0	0	1
24	33	1
88	90	1
118	125	1
120	120	2
108	122	1
46	46	1
29	32	1
38	38	1
114	114	1
23	34	1
85	86	1
