2	72	1
44	46	3
39	39	6
163	163	2
113	114	2
130	130	6
25	25	5
56	56	8
37	41	2
69	69	6
47	49	1
42	42	6
76	76	1
85	85	1
54	54	6
133	133	2
26	27	2
53	166	3
101	102	1
125	126	2
145	147	3
10	10	1
33	33	3
98	98	1
35	35	8
117	153	2
123	170	2
146	161	2
127	127	4
27	41	1
85	86	2
92	94	2
16	16	1
56	57	1
46	46	4
146	146	2
7	37	2
121	121	4
3	4	1
122	122	3
52	52	1
141	141	4
118	118	4
39	52	1
34	34	3
145	145	3
169	169	3
81	81	1
99	111	1
120	122	3
12	140	2
116	117	1
2	6	1
160	160	3
5	38	5
16	87	2
115	115	1
15	15	3
98	99	1
128	128	4
117	117	1
92	109	1
68	68	3
112	112	7
164	164	4
99	152	1
47	47	1
101	105	2
2	2	5
4	4	2
107	107	2
139	139	3
78	108	1
20	20	2
102	102	3
73	73	5
80	97	4
158	158	1
122	123	3
83	83	1
63	69	3
79	81	6
119	120	2
126	127	1
110	151	2
66	66	4
8	8	3
9	9	2
62	63	4
99	99	2
103	104	3
73	74	1
130	145	1
24	107	1
128	132	2
140	140	1
40	40	9
11	11	3
63	162	1
65	65	2
65	66	2
108	108	1
72	72	2
110	150	1
102	107	3
86	87	3
43	43	3
55	55	2
7	7	1
86	86	1
58	164	2
82	83	2
150	150	5
100	100	2
101	112	1
108	109	2
48	48	1
44	44	1
129	129	1
24	24	3
15	38	1
39	50	2
24	25	2
2	66	1
17	87	2
50	50	2
75	75	1
20	24	1
5	20	2
38	39	1
13	14	3
124	124	1
11	48	2
168	170	3
55	56	1
92	92	1
91	96	1
148	149	2
74	116	1
147	147	1
148	148	1
49	49	4
1	1	2
70	70	3
129	143	2
57	62	2
12	12	2
159	159	2
94	94	1
71	127	1
53	53	1
77	130	2
119	119	1
14	14	1
132	146	3
111	112	4
27	27	3
18	40	1
95	95	1
58	58	2
147	153	3
131	131	1
77	77	1
5	7	1
84	84	1
18	18	1
163	165	1
106	150	1
137	137	1
77	115	2
132	142	1
100	110	1
134	134	3
26	26	1
8	14	1
0	0	2
19	19	2
51	51	1
3	3	1
144	145	1
80	80	1
136	139	1
143	143	1
33	35	1
113	113	1
162	163	1
13	15	2
93	94	1
108	159	1
66	67	1
62	62	1
132	132	1
22	23	1
5	5	1
120	120	1
153	153	1
76	77	1
94	109	1
73	116	1
0	73	1
62	66	1
45	45	1
