176	176	5
97	97	4
13	14	2
101	103	3
84	84	9
61	61	4
173	173	15
118	118	4
35	35	3
107	107	10
138	139	4
103	103	5
151	151	11
152	152	4
153	165	2
101	102	1
97	98	5
78	78	7
2	2	11
52	53	1
68	68	4
10	14	4
95	139	1
100	100	19
53	120	3
2	3	4
22	22	9
81	118	6
166	167	7
58	58	3
171	172	4
134	135	1
156	157	4
141	144	2
48	48	8
147	147	4
178	178	5
81	100	1
117	117	3
108	109	4
38	115	2
131	133	2
56	56	7
39	39	6
55	55	10
86	87	2
163	163	6
134	138	3
114	114	3
177	180	1
97	132	2
78	82	5
4	4	5
188	188	6
162	162	4
138	138	6
43	44	5
47	47	2
12	13	7
154	154	6
36	36	4
17	17	5
166	166	4
41	41	5
112	113	4
104	105	2
90	90	10
20	22	2
28	28	3
108	108	3
40	41	3
133	164	2
66	66	13
174	175	3
37	37	6
9	14	1
6	6	7
106	106	13
93	95	3
124	124	7
105	106	4
66	67	6
185	185	14
27	28	2
149	188	3
27	27	3
157	157	8
77	77	7
167	167	4
132	132	9
104	104	10
20	21	4
152	153	5
2	4	3
62	62	7
179	179	12
134	139	4
18	18	5
89	90	3
74	75	3
95	95	2
44	45	2
157	158	1
31	32	6
46	46	9
133	163	2
183	183	2
52	52	5
20	23	2
5	5	4
85	85	3
142	142	5
24	25	3
14	14	4
150	151	2
170	170	8
158	187	4
149	149	9
68	71	1
184	184	6
125	126	9
179	180	4
156	182	1
75	76	4
28	30	6
18	174	6
190	190	6
80	119	1
12	12	3
68	146	2
20	20	2
160	161	1
41	52	1
44	44	1
172	181	3
133	134	3
181	181	10
134	134	5
25	25	5
164	165	5
128	128	3
110	110	3
133	137	7
88	101	2
23	23	5
65	167	2
65	66	10
122	122	6
34	34	1
71	164	3
6	37	5
96	96	7
5	24	5
109	109	9
21	22	2
130	131	3
99	99	9
125	125	17
38	38	4
121	121	2
16	17	1
74	74	12
155	156	1
67	67	3
47	48	4
57	57	2
121	122	8
102	120	1
150	152	1
73	73	5
75	75	5
129	130	5
184	189	3
53	54	4
95	167	1
56	57	1
182	182	10
180	181	3
41	102	1
68	165	1
112	112	16
16	16	3
0	0	4
61	181	2
116	116	4
75	130	1
115	116	8
164	164	2
180	190	2
93	111	3
5	23	3
6	7	1
157	178	2
105	105	6
175	176	5
141	141	9
19	19	7
78	79	4
131	131	7
15	16	3
65	65	2
145	146	4
93	148	4
6	38	1
133	136	3
103	104	2
79	79	4
34	36	1
104	106	2
82	82	5
158	158	6
22	23	1
40	40	4
90	91	1
24	24	4
27	56	3
68	164	1
175	175	4
8	14	4
145	145	5
62	166	1
54	117	2
58	63	3
153	155	3
135	136	2
17	20	3
92	93	5
101	101	3
31	31	7
132	133	2
95	96	1
115	117	5
91	94	2
53	55	4
77	83	1
9	10	2
81	81	3
1	2	1
74	88	3
181	182	1
72	72	4
150	150	2
27	30	2
129	139	2
111	112	2
170	171	4
171	171	7
27	32	3
34	35	1
73	74	2
11	13	2
128	129	2
146	146	5
76	86	1
67	164	4
126	128	4
113	113	11
127	127	3
3	6	2
186	186	8
81	137	1
10	10	3
60	61	3
7	7	5
148	148	4
168	170	4
143	159	1
4	26	3
113	114	5
113	169	1
126	129	1
177	177	1
96	166	2
133	139	4
123	123	5
165	165	4
143	143	2
185	187	4
127	128	4
177	178	3
28	32	2
27	29	1
172	172	3
63	165	5
173	175	3
69	70	2
64	165	3
129	129	7
67	68	1
147	148	6
182	190	1
149	150	1
150	189	1
176	177	2
62	141	3
98	98	2
114	120	1
63	63	1
87	87	8
140	140	1
169	169	6
189	190	2
58	70	1
144	144	5
109	110	5
15	15	6
38	41	1
16	25	3
64	64	5
170	176	5
18	22	1
42	43	3
72	136	1
72	137	2
187	187	4
111	111	3
76	87	1
7	8	2
153	156	3
130	130	4
71	72	2
135	137	2
171	181	1
120	123	1
141	143	2
156	187	4
89	92	1
135	135	3
139	139	1
126	127	2
107	146	3
99	100	1
94	94	4
91	91	1
70	70	4
55	91	1
116	117	1
64	167	2
174	174	3
80	80	4
53	53	2
23	24	3
76	134	3
114	115	2
29	117	1
137	137	4
172	174	1
4	5	1
150	154	1
0	43	1
76	76	1
126	126	2
140	141	1
69	165	1
115	115	2
178	179	2
47	49	1
184	185	1
65	67	1
35	37	1
54	141	1
96	97	1
36	43	1
29	30	2
46	47	2
39	40	1
80	100	1
37	42	1
146	161	2
59	64	1
107	108	2
93	94	1
100	129	1
10	11	1
143	161	1
55	117	1
134	140	2
77	84	1
154	157	1
167	177	1
28	29	1
56	94	1
59	63	1
56	91	3
96	98	2
92	94	1
183	184	3
93	93	1
114	122	2
13	13	2
35	57	1
153	159	1
64	68	1
37	39	1
155	155	2
29	32	1
32	34	1
94	95	1
105	146	1
120	120	1
106	107	1
56	95	1
82	120	1
91	122	1
164	177	1
48	49	1
62	103	1
172	173	1
83	84	2
1	1	1
11	23	1
81	82	1
180	180	1
71	79	1
189	189	1
102	102	1
14	26	1
60	60	1
106	123	1
110	111	1
140	177	2
77	78	1
158	159	1
8	24	1
105	116	1
177	179	1
