11	72	5
7	7	5
5	5	16
6	21	5
51	51	8
42	43	1
8	46	5
3	3	17
36	36	14
33	63	1
66	66	14
49	52	2
63	72	3
37	37	24
53	54	6
64	65	2
65	65	7
26	26	36
74	74	12
66	72	2
67	68	12
67	67	8
73	73	9
47	47	19
70	70	12
69	69	8
30	35	2
58	58	13
60	60	7
21	59	2
5	6	6
29	29	16
49	49	9
39	40	2
7	8	4
13	14	8
27	27	16
17	17	9
57	57	18
59	59	31
0	0	12
80	80	15
39	39	21
28	28	13
38	38	20
21	41	1
57	72	3
16	16	7
61	61	16
40	41	4
73	74	10
14	15	4
32	54	3
33	33	5
76	76	12
48	48	15
2	2	12
6	8	5
68	69	5
6	7	2
30	31	4
63	63	11
49	68	1
35	35	24
8	8	17
45	45	7
9	9	6
42	42	35
12	12	7
19	41	3
37	38	7
75	76	3
31	63	3
8	63	3
30	30	4
69	70	5
67	71	5
29	46	1
71	71	9
46	48	1
4	47	1
1	1	28
8	9	2
33	64	2
15	16	2
71	72	5
63	64	2
56	56	7
19	19	15
19	27	8
0	80	2
79	79	12
44	45	3
51	52	4
64	66	1
13	13	6
16	57	1
40	40	27
50	50	3
25	26	1
61	80	2
15	15	1
25	25	12
52	53	4
50	51	5
72	72	5
29	30	2
11	12	2
4	5	5
62	73	1
0	30	2
64	64	5
12	50	3
54	69	6
4	4	16
54	54	18
46	46	12
48	76	1
11	14	3
36	37	4
62	64	3
20	20	6
33	72	3
6	6	15
41	41	10
11	11	4
52	58	3
75	75	6
13	44	4
21	50	6
49	70	1
19	40	4
12	75	1
16	21	1
78	78	20
10	10	9
41	42	7
52	52	4
12	72	4
10	11	2
51	58	2
14	31	1
59	63	2
68	68	3
56	57	4
10	75	2
55	55	16
14	14	19
76	78	3
8	55	4
31	72	3
10	12	3
77	77	18
48	65	4
34	34	7
31	70	2
48	80	1
19	20	1
5	56	2
14	75	2
21	21	9
30	71	1
32	33	3
32	63	2
62	66	4
31	31	13
2	47	2
28	30	3
4	73	4
49	50	9
31	32	5
12	13	1
26	33	2
48	50	8
11	71	2
21	31	4
76	77	1
33	71	2
50	69	7
22	31	2
51	69	2
68	71	3
77	78	5
66	67	5
58	59	3
31	49	5
51	70	2
13	31	4
25	59	1
52	69	1
12	21	2
21	67	1
55	57	2
20	21	2
12	32	3
4	78	3
27	29	4
48	49	2
49	51	4
6	9	1
32	32	6
16	20	1
7	9	3
13	75	1
5	29	1
35	37	3
18	19	1
73	75	1
14	53	1
44	44	2
10	21	1
49	71	5
3	4	5
31	71	5
2	6	1
14	54	4
9	30	2
62	62	5
60	61	2
54	64	1
0	34	4
53	53	4
18	18	2
26	63	3
38	40	1
12	31	2
34	61	2
62	74	4
38	41	1
2	3	1
26	64	2
11	75	2
12	14	1
43	43	5
2	45	2
65	67	2
54	63	7
50	70	2
74	75	2
61	74	2
5	14	1
50	52	2
36	39	2
30	36	1
80	81	1
70	71	1
8	32	2
51	54	1
49	66	2
16	17	2
50	54	1
52	68	2
75	77	1
14	51	1
4	46	1
47	48	2
50	53	2
46	47	2
57	58	1
13	15	2
2	5	1
9	31	1
54	68	1
26	30	1
61	62	1
68	70	1
16	40	1
35	36	1
32	72	1
59	60	3
22	49	1
11	31	1
55	56	1
38	39	1
30	64	1
26	27	1
