34	34	5
46	46	7
114	114	8
35	45	1
30	32	1
39	39	7
51	104	1
138	148	1
96	98	2
40	40	4
88	90	7
125	125	6
101	102	3
24	24	11
19	19	10
159	159	1
13	13	2
121	121	2
119	119	3
66	71	7
66	72	2
104	108	2
8	8	8
38	38	5
23	25	4
32	142	1
18	18	2
9	15	4
77	81	1
103	103	2
121	122	8
2	3	2
67	68	2
136	136	13
106	107	6
5	98	1
113	114	4
135	137	2
5	75	2
69	69	3
93	94	4
90	90	4
152	154	4
6	6	5
124	125	3
30	30	10
85	107	1
15	34	8
3	3	7
70	156	3
109	109	7
73	73	14
78	121	5
28	28	9
15	15	8
78	78	5
125	126	3
115	115	12
82	87	2
88	89	1
123	125	3
158	158	5
144	146	1
53	53	4
131	131	10
120	120	8
94	94	11
145	145	4
91	91	6
128	128	5
39	140	2
44	44	8
85	85	2
25	25	10
26	26	7
113	113	2
55	55	9
66	68	3
97	97	1
153	154	3
137	137	6
142	151	1
43	43	4
139	139	11
33	34	2
66	67	5
46	47	1
150	150	3
7	23	2
81	81	12
80	80	2
54	54	3
27	28	7
93	127	1
9	9	6
105	105	16
95	97	2
113	115	3
97	101	2
93	93	10
84	107	5
130	130	5
38	39	3
20	22	2
95	95	6
25	29	7
16	16	9
18	20	4
81	82	9
154	154	13
143	143	1
7	150	1
20	20	6
2	2	5
61	61	2
42	42	5
152	153	4
42	46	2
38	41	2
124	124	6
123	123	1
62	63	6
7	37	2
145	153	4
11	11	2
102	103	2
108	109	2
12	12	6
107	107	4
32	33	4
82	83	1
7	7	9
15	16	7
29	29	4
37	37	2
147	148	1
23	23	8
93	107	3
24	29	5
77	77	2
32	32	9
145	148	4
71	71	4
45	45	7
117	117	6
80	81	2
101	101	4
141	141	9
10	11	4
93	95	1
116	117	2
75	75	2
33	33	1
72	146	2
27	27	1
46	97	1
52	56	1
157	157	7
138	138	11
44	54	3
29	30	1
26	29	3
17	17	6
99	99	12
153	153	2
82	82	6
151	151	3
44	45	7
84	93	1
115	131	3
144	144	6
11	30	2
13	14	6
148	148	2
5	5	4
24	32	1
13	17	3
36	137	3
134	134	8
35	36	3
31	31	2
4	4	4
102	102	1
50	50	4
51	53	3
144	145	2
140	145	3
19	21	1
84	85	8
156	156	5
1	136	1
90	91	2
25	37	1
137	138	4
83	83	6
25	26	1
36	36	3
92	92	2
75	112	1
127	127	3
16	19	1
39	40	2
7	14	2
155	155	2
83	84	2
132	132	2
96	96	7
56	64	2
50	63	3
26	27	2
131	156	1
68	68	2
49	52	2
41	42	2
132	139	1
17	27	3
53	54	5
14	34	3
87	90	2
86	86	3
105	107	2
20	21	5
18	19	1
147	147	7
5	6	2
156	157	1
19	34	4
134	138	5
140	140	2
13	15	1
24	25	2
55	57	1
84	84	4
50	91	1
98	98	6
23	24	2
33	45	2
120	121	3
128	129	1
146	153	1
80	123	1
17	18	2
0	44	2
111	112	1
66	89	2
1	1	5
114	123	2
122	122	2
108	112	1
69	155	4
7	12	1
63	68	1
8	9	2
9	22	2
44	73	2
51	51	3
26	28	3
76	102	1
14	14	5
39	41	1
149	149	1
99	100	2
11	12	1
45	47	1
115	116	3
129	129	1
116	116	6
71	72	2
0	0	1
102	104	1
70	70	3
87	87	2
65	65	1
45	73	1
108	108	2
14	15	2
56	57	1
100	100	3
2	4	1
112	126	2
91	92	1
66	66	1
22	22	1
146	147	2
114	140	3
106	106	2
136	137	1
47	47	2
135	135	1
52	52	1
36	37	1
45	98	3
133	133	2
22	23	1
40	41	5
7	24	2
146	146	2
50	52	2
21	21	1
16	37	2
88	88	3
147	154	2
117	118	1
40	43	5
116	140	1
109	110	3
69	70	3
48	48	1
67	67	1
148	151	1
41	41	1
23	39	1
106	108	1
132	140	1
6	8	1
17	24	1
37	38	1
89	89	1
132	133	1
104	104	1
105	106	2
100	104	1
72	72	1
127	129	1
130	131	1
80	122	1
111	111	2
4	56	1
53	96	1
145	146	2
149	151	1
92	94	1
16	39	1
68	69	1
120	123	1
81	84	1
107	108	1
