130	131	2
8	14	3
108	108	12
89	89	13
108	111	2
44	45	13
80	80	15
114	132	2
131	131	11
32	32	14
46	46	1
63	73	1
8	8	9
87	87	26
3	3	10
34	34	6
99	99	30
102	102	27
101	101	20
13	13	12
77	78	10
43	44	2
78	78	11
104	104	20
82	83	3
117	133	1
102	103	9
98	98	8
122	122	9
98	99	4
38	38	5
72	72	13
75	102	2
86	86	25
131	132	9
115	115	23
60	61	5
124	125	8
126	126	20
48	48	8
70	70	26
106	107	11
114	115	5
79	80	5
24	25	2
72	94	3
59	59	4
119	129	2
29	29	9
21	21	10
24	24	6
73	74	9
78	130	1
82	84	8
119	119	9
50	50	19
56	57	7
11	11	9
120	120	9
21	22	5
5	5	8
11	37	3
121	132	4
113	113	22
27	28	2
96	96	6
115	132	3
107	107	6
123	123	10
74	74	19
93	93	5
118	118	8
84	84	21
80	82	4
26	26	7
102	104	1
112	131	4
66	66	6
78	123	2
115	117	1
106	117	3
124	124	15
109	109	23
128	129	2
94	94	31
14	14	8
56	56	6
98	116	3
105	105	12
31	31	19
27	27	11
84	118	4
3	4	3
35	35	19
97	97	13
91	100	3
85	85	7
65	65	17
32	74	6
114	114	12
25	37	3
128	128	14
133	133	13
125	125	6
49	50	4
132	132	13
50	60	4
9	9	8
83	100	2
111	111	11
77	77	17
112	113	12
108	110	3
43	46	2
69	69	35
90	91	3
70	75	7
68	68	14
75	76	2
129	129	23
82	82	13
64	64	9
19	20	8
65	67	7
53	53	7
114	127	3
112	112	29
45	46	4
83	83	13
125	126	6
116	119	1
70	93	1
120	129	2
20	21	4
126	127	8
23	27	2
121	121	5
60	68	1
119	120	6
110	110	5
108	109	4
75	75	15
17	17	10
105	107	4
55	56	6
91	91	7
57	57	9
44	44	9
86	87	2
17	19	4
103	104	7
76	76	17
2	32	1
127	127	18
81	81	11
36	37	9
52	52	3
49	49	4
79	79	20
58	59	2
52	54	3
70	72	1
7	7	7
16	16	6
77	125	2
54	58	5
28	28	5
61	61	15
16	23	4
117	117	8
48	50	4
42	43	3
23	23	4
15	15	5
79	111	1
22	22	23
62	62	8
49	60	2
23	26	1
88	88	7
16	18	7
93	101	4
98	115	4
59	60	3
90	90	10
2	3	3
124	134	1
92	92	11
33	33	14
103	103	14
44	101	3
12	14	2
45	45	8
123	134	1
100	100	6
94	114	2
55	120	4
114	134	3
88	93	1
18	18	3
77	80	1
0	0	8
113	114	5
55	55	6
4	5	3
132	133	8
96	115	2
134	134	5
18	21	3
99	103	2
25	114	5
25	25	6
8	20	1
32	33	8
19	19	7
87	111	1
99	130	5
73	73	11
84	91	2
110	111	5
97	131	1
100	133	3
74	103	2
5	6	1
87	88	12
76	77	2
58	58	11
35	38	2
54	55	12
21	23	3
88	106	3
129	131	3
121	122	4
93	104	4
1	2	10
4	4	3
37	58	2
63	63	19
120	121	4
100	125	1
29	103	2
132	135	3
83	85	2
60	60	9
83	84	6
105	106	4
63	105	1
29	30	3
92	126	2
91	117	4
47	52	4
20	20	5
7	10	2
84	85	1
104	111	1
95	95	19
64	67	1
94	95	4
71	71	10
119	121	2
43	50	4
47	47	3
82	85	4
72	104	3
72	102	2
121	131	8
71	72	1
6	6	9
57	64	2
133	134	3
51	55	1
15	18	5
73	120	1
91	92	4
122	125	2
66	69	2
43	48	1
12	12	7
13	14	2
116	121	1
3	120	1
127	129	3
2	2	11
134	135	1
109	110	1
30	30	5
6	9	3
111	130	1
99	113	1
76	89	1
46	47	2
130	130	7
127	128	6
89	90	8
84	88	4
73	119	3
95	96	6
83	91	2
14	15	4
85	92	4
56	58	4
61	118	4
109	111	3
100	126	2
37	37	5
104	105	3
34	72	1
31	32	11
73	75	3
106	106	11
65	101	2
19	21	2
105	110	4
10	10	5
53	118	2
128	133	1
107	111	4
106	108	3
45	58	4
96	97	3
31	33	3
92	99	1
54	57	3
116	116	1
78	84	3
93	94	3
117	119	3
122	132	4
60	80	4
27	30	1
100	101	2
59	83	2
94	103	1
72	120	1
77	127	1
99	105	2
8	9	2
96	123	4
79	81	2
87	108	2
89	128	1
67	68	3
60	66	3
122	123	1
43	43	3
67	67	4
98	129	2
11	14	4
130	132	6
77	123	3
93	105	1
101	111	5
37	38	1
11	15	3
12	13	1
36	36	4
25	115	8
89	93	2
57	59	3
70	90	1
97	98	1
20	47	1
4	28	1
114	117	2
60	70	1
115	130	1
64	100	2
54	54	2
71	75	2
81	89	1
2	94	2
114	133	2
56	67	1
92	93	3
92	100	1
112	115	5
52	53	2
8	15	1
116	117	2
111	127	1
123	126	1
46	77	1
25	34	2
114	118	1
26	28	1
123	124	1
101	124	1
91	112	2
78	79	1
68	69	1
24	26	1
106	111	2
106	109	4
69	70	2
90	101	1
23	24	1
22	23	2
64	65	1
35	36	1
102	134	1
43	70	1
112	130	1
108	118	1
50	52	1
109	123	1
1	1	3
28	32	1
101	127	2
94	127	1
98	120	1
53	54	1
92	128	2
76	101	1
106	118	1
6	126	1
78	88	1
78	108	2
17	35	1
117	118	1
73	101	1
34	71	1
54	56	1
63	77	1
21	25	2
68	79	1
112	114	1
44	61	1
115	116	1
14	72	1
107	108	2
86	106	1
64	66	1
71	127	1
