149	149	11
171	171	7
136	176	2
73	73	1
145	145	9
162	163	2
158	161	1
112	112	13
108	109	9
7	8	1
14	15	2
156	156	7
85	85	7
18	19	1
8	31	6
141	141	6
52	52	8
27	27	8
41	42	14
41	41	15
114	139	5
87	87	5
159	162	1
55	55	4
15	16	1
1	5	3
8	44	2
16	16	8
166	168	6
118	119	6
89	89	5
23	23	11
23	41	3
7	25	6
14	14	12
1	1	8
158	158	6
37	37	13
166	167	6
125	125	11
36	36	10
42	42	15
34	34	8
120	120	4
2	79	1
40	54	3
58	60	4
178	178	6
111	111	5
172	172	7
66	67	3
4	7	4
133	133	13
81	87	1
81	81	1
10	10	8
120	121	5
154	155	3
146	146	5
135	135	4
97	97	2
56	57	1
144	145	1
173	173	7
15	15	4
30	30	3
3	3	6
144	144	4
123	125	2
80	80	2
131	131	15
10	11	5
169	169	4
8	8	10
67	71	4
39	44	2
154	154	8
161	161	3
4	4	6
21	23	3
101	101	2
75	75	6
131	158	1
123	124	6
98	98	8
122	124	1
126	126	1
38	38	4
140	140	4
163	163	3
165	165	11
91	91	6
121	121	4
51	54	3
72	74	2
43	43	4
64	66	1
106	109	5
158	159	1
33	33	7
136	136	9
160	160	4
148	148	4
132	132	6
7	16	1
168	168	7
43	44	4
12	14	1
27	28	12
12	13	9
134	134	8
29	29	11
0	0	4
150	150	10
9	9	14
19	19	4
155	155	3
123	123	1
80	87	6
40	40	7
12	12	4
127	128	1
117	117	1
19	25	2
32	32	5
64	65	4
54	54	8
17	30	1
164	164	4
25	26	4
61	61	3
177	177	10
88	90	3
24	25	3
36	37	2
62	67	3
170	172	1
32	34	2
70	71	3
179	179	8
147	147	9
90	91	6
49	50	1
139	139	1
44	45	4
110	110	1
143	145	3
104	104	3
21	21	6
113	113	3
19	21	3
38	40	3
127	127	6
71	71	5
65	65	3
122	125	2
20	20	7
39	39	5
108	108	3
174	174	5
32	33	1
106	106	6
105	105	1
130	130	4
22	22	9
63	64	4
124	124	5
172	173	5
146	172	1
52	53	5
101	111	2
175	176	3
75	111	2
132	147	1
57	57	2
176	176	9
134	136	2
151	154	5
67	68	1
70	70	1
100	100	2
143	144	5
179	180	1
34	39	2
94	96	4
54	168	2
90	90	4
28	92	3
122	123	2
22	23	5
31	31	6
127	133	4
109	109	6
1	2	1
92	93	2
114	114	5
1	10	1
119	126	1
178	180	4
167	168	3
146	147	3
93	93	8
13	13	7
59	59	10
144	154	1
78	80	2
93	108	2
38	39	2
135	136	3
24	24	2
28	32	1
50	63	1
4	5	3
137	138	4
68	68	5
16	18	1
138	139	2
51	76	4
3	7	3
45	45	2
60	60	2
32	71	1
96	96	4
9	11	5
99	99	2
177	178	2
77	77	3
88	88	3
142	142	6
122	139	1
16	27	3
129	130	3
11	11	5
73	75	5
157	157	2
2	2	4
53	54	1
121	122	2
146	174	1
146	166	1
107	107	3
78	78	1
6	7	2
84	85	4
144	147	1
57	58	4
161	165	3
18	61	4
145	165	4
26	27	4
5	7	3
34	35	2
0	1	1
86	86	1
21	29	6
25	25	4
78	88	1
74	74	1
6	6	11
60	61	1
72	72	10
103	103	1
52	93	4
64	106	1
152	153	2
110	111	1
99	100	1
119	128	3
28	28	3
120	126	1
145	172	1
62	62	1
116	128	2
122	133	1
82	82	1
160	161	3
76	77	2
84	84	3
5	6	6
143	159	7
50	50	1
95	95	1
133	136	1
129	129	2
33	35	3
167	167	2
51	51	1
88	89	1
147	148	3
45	46	3
92	92	2
134	138	1
132	133	1
161	162	2
138	138	2
63	63	2
74	75	1
137	137	5
132	136	1
167	172	1
78	79	4
131	133	1
91	96	5
13	14	1
128	130	2
46	46	2
28	51	1
118	118	3
50	65	4
144	161	4
63	67	3
22	42	1
171	179	1
44	44	1
124	125	2
104	105	1
52	54	1
62	63	1
84	93	1
17	18	1
111	113	1
110	113	1
16	17	2
83	105	3
73	76	3
141	142	1
97	98	2
94	94	1
175	175	2
119	119	3
23	170	1
165	166	1
99	102	1
171	172	3
33	42	1
60	71	2
5	5	2
81	83	3
141	143	2
87	88	1
180	180	1
71	134	2
2	3	2
88	92	1
151	151	4
73	74	1
139	150	2
52	55	1
17	17	3
63	65	1
112	113	1
15	42	1
33	34	1
20	21	1
76	76	2
74	76	1
173	174	2
23	42	1
159	159	1
51	94	1
120	152	1
7	7	1
106	107	1
178	179	3
118	126	1
35	43	1
24	26	1
16	30	1
30	31	1
50	95	1
115	116	3
53	53	1
93	94	2
169	170	1
136	137	1
142	143	1
102	102	1
11	12	1
176	177	1
172	178	2
111	112	1
58	58	2
55	56	1
101	102	2
79	79	1
0	10	1
8	9	1
39	40	1
150	151	1
31	32	1
