38	39	5
134	134	6
93	93	24
116	119	6
119	124	3
131	132	5
69	70	2
73	74	3
22	22	16
129	129	9
110	110	3
62	64	1
127	140	5
11	11	1
107	107	7
132	138	5
112	112	5
53	54	6
2	4	4
67	68	6
118	119	3
76	79	6
122	123	5
40	40	9
58	58	8
92	93	4
74	74	2
92	92	11
24	24	4
83	83	11
27	27	12
123	124	5
16	16	3
29	29	5
26	27	10
8	9	3
33	51	2
113	137	2
8	8	4
14	16	2
138	138	8
67	67	7
39	42	1
31	130	2
122	122	7
143	143	15
87	107	2
23	24	7
71	71	10
47	59	4
21	23	1
76	77	3
9	9	10
118	118	18
84	87	3
97	97	10
93	94	8
34	37	5
32	32	10
128	130	7
102	106	6
16	114	1
6	11	1
111	131	8
36	40	1
107	108	6
25	25	4
58	59	2
52	52	4
49	72	1
41	123	1
57	57	2
75	97	1
146	146	3
24	25	4
76	85	3
108	108	3
23	26	2
35	87	7
21	73	1
88	97	8
139	139	3
77	78	2
95	95	7
126	127	7
31	31	4
42	58	3
39	40	5
87	122	1
125	125	8
91	94	4
26	77	2
6	6	10
56	70	2
111	112	7
24	27	3
55	55	4
37	38	3
96	96	7
30	30	5
127	127	6
140	140	2
0	21	1
48	74	5
38	38	4
142	142	3
128	128	8
25	39	1
18	18	1
97	98	2
113	113	3
28	28	2
59	59	12
61	61	4
111	111	9
121	122	1
90	90	7
12	13	2
64	64	2
85	108	4
79	79	7
131	134	6
20	20	5
68	69	5
34	34	1
111	128	2
131	131	14
62	62	3
117	117	5
87	88	2
115	117	3
87	87	6
29	30	4
123	123	16
87	89	1
145	145	8
38	102	1
52	53	2
2	3	4
78	78	9
119	131	2
37	37	2
34	72	2
126	126	3
16	28	2
66	83	2
12	12	1
67	69	4
34	35	1
81	81	5
69	83	2
89	91	4
41	52	4
80	80	3
132	132	2
19	19	2
77	77	4
34	39	2
120	120	14
47	48	5
132	133	3
106	106	8
36	51	5
133	133	9
141	141	15
127	141	2
137	137	8
64	106	3
40	51	1
86	87	6
34	98	3
88	89	10
124	127	2
13	13	4
62	63	1
2	5	1
119	123	1
113	114	5
129	131	2
59	62	2
135	141	3
19	23	1
78	79	2
26	100	2
133	134	3
63	63	3
55	57	2
104	105	5
40	53	2
17	17	5
59	60	9
42	43	1
5	5	7
50	52	2
27	41	2
133	139	3
131	141	3
26	26	3
105	106	1
29	101	6
135	135	3
90	91	3
56	58	4
91	91	4
73	73	5
48	124	3
109	109	7
56	56	7
83	110	1
39	39	1
27	75	1
62	65	1
50	54	2
77	79	6
79	80	3
38	77	1
85	85	3
115	118	3
0	0	4
120	123	8
105	105	3
69	69	3
130	136	1
100	100	1
60	84	1
15	15	2
12	14	2
124	125	2
125	127	5
68	68	2
72	72	2
48	48	8
89	90	1
25	26	2
65	75	2
35	35	6
99	99	2
143	144	5
5	25	2
50	50	1
137	138	3
62	95	2
57	58	3
20	24	1
111	132	3
60	61	1
95	96	1
117	125	2
46	46	3
115	116	3
93	95	2
4	5	2
47	96	1
47	47	5
53	56	1
130	142	3
3	88	1
121	121	8
136	140	4
74	97	1
109	110	4
15	16	2
55	75	2
130	130	7
134	142	1
119	119	6
114	137	2
88	108	4
102	102	5
70	72	5
10	10	2
42	119	2
32	57	2
0	87	1
144	144	1
129	132	2
52	54	3
118	123	6
110	124	2
131	146	2
19	21	2
114	114	4
62	97	3
34	40	2
91	127	1
3	4	2
3	35	1
25	47	2
38	94	3
53	53	5
85	110	4
101	101	4
54	54	5
64	86	2
110	132	4
133	135	6
134	144	2
4	4	5
88	88	2
91	99	2
41	41	3
104	106	3
37	96	3
70	70	6
103	103	4
113	127	3
1	5	1
59	76	1
31	132	3
139	140	2
49	122	2
18	19	2
116	116	1
35	36	1
42	57	2
111	133	1
110	121	1
18	27	4
66	66	4
135	138	1
86	86	3
117	123	2
38	98	1
63	96	2
94	95	5
121	133	3
36	36	3
39	52	1
49	73	2
60	60	4
23	23	6
20	35	4
13	68	2
104	104	4
33	49	1
9	10	2
136	139	2
88	90	1
89	94	2
135	137	3
5	36	2
88	91	1
24	28	1
31	129	2
69	73	1
19	24	1
119	120	3
135	140	1
136	138	2
42	59	1
134	135	2
33	72	2
106	107	4
61	63	1
43	43	3
124	124	3
17	29	3
42	81	2
81	82	2
119	129	3
135	136	2
9	25	1
57	59	2
21	21	3
119	122	1
99	101	1
84	90	1
114	115	2
5	52	3
31	103	2
142	143	1
90	92	1
31	69	1
112	137	1
66	67	1
36	102	1
2	2	2
39	72	1
83	84	1
22	101	1
131	139	1
108	109	1
120	121	2
112	113	3
132	136	1
74	77	1
102	105	1
64	83	2
64	65	1
68	86	2
33	36	1
65	65	1
95	103	1
117	118	2
40	52	1
37	62	1
30	32	1
56	61	1
80	81	1
127	132	1
122	124	1
14	14	1
56	64	1
33	42	1
49	53	1
17	19	1
82	88	1
30	80	1
136	136	1
116	121	1
75	123	1
94	105	1
58	71	1
18	26	1
142	144	1
76	106	1
134	139	1
118	131	1
116	118	1
90	95	1
46	47	1
38	42	1
26	38	1
37	91	1
