168	168	4
18	18	1
63	70	5
122	122	6
167	169	7
144	147	3
2	2	7
71	84	1
97	99	6
116	117	2
112	112	9
119	119	5
37	37	2
67	67	3
46	53	2
52	52	11
37	41	2
6	7	2
48	50	4
143	143	5
141	141	1
151	166	1
165	165	5
125	127	2
27	47	6
72	72	8
138	138	3
149	150	1
39	39	9
27	27	5
45	45	2
20	20	3
40	40	4
73	73	7
28	28	4
24	67	1
84	84	2
144	149	2
90	90	1
118	118	3
132	133	1
159	159	5
34	35	3
1	14	2
153	164	1
113	113	8
93	96	6
96	99	3
72	73	5
104	104	3
89	110	4
133	133	10
1	1	3
157	157	2
42	42	10
74	74	4
79	79	1
44	44	7
15	19	2
138	154	1
5	5	7
71	72	2
79	80	3
52	54	7
145	145	11
104	105	3
83	83	4
78	78	3
93	93	9
125	125	4
145	147	4
156	156	3
108	108	16
136	137	1
38	38	2
159	160	2
99	99	9
161	162	2
135	136	3
18	19	3
36	37	2
155	155	2
14	14	2
4	5	3
87	87	6
6	48	1
43	54	4
23	23	4
114	114	6
65	65	3
163	164	2
120	154	3
56	56	3
160	160	1
111	111	3
46	46	11
24	24	3
46	47	6
169	169	2
25	25	6
163	163	2
101	101	3
50	51	4
48	49	4
164	164	6
119	120	3
26	26	7
25	49	2
17	20	1
129	130	4
88	89	3
94	94	9
69	86	1
34	42	2
107	107	4
66	66	1
64	64	5
110	110	4
128	129	3
139	139	1
77	83	3
119	122	1
129	129	4
54	54	4
83	96	2
99	110	6
91	91	1
121	121	5
70	86	1
6	43	2
155	163	3
15	15	3
45	54	3
101	151	1
38	40	3
86	86	2
20	23	3
100	100	1
71	73	1
12	13	5
131	131	3
122	154	3
76	76	3
3	3	5
5	16	2
93	94	3
69	115	5
81	81	3
142	143	2
109	111	2
112	113	1
33	33	3
83	84	2
128	128	1
92	92	1
115	117	4
1	2	1
14	39	5
109	146	1
3	4	3
57	62	1
28	86	1
113	114	3
109	110	2
11	11	5
83	92	1
131	132	2
134	134	5
41	41	3
44	58	3
147	147	1
122	124	4
69	69	2
120	120	6
37	38	1
22	22	5
154	154	2
75	76	2
50	50	7
47	50	1
103	103	2
27	33	2
1	107	2
10	10	3
47	48	5
36	36	5
108	140	1
88	116	3
133	134	3
81	82	2
118	119	1
14	27	1
102	102	1
68	84	3
16	16	1
96	100	1
55	56	1
69	107	1
126	126	1
151	151	2
137	137	1
150	150	3
80	138	1
130	130	1
13	14	1
165	166	1
148	149	2
62	65	2
57	57	4
36	44	1
7	7	6
105	105	4
75	75	2
17	17	3
19	19	2
81	83	2
68	85	1
167	167	1
161	161	2
43	44	2
149	149	2
115	129	1
80	80	1
77	78	1
86	87	1
39	41	3
84	89	1
49	49	3
152	153	1
98	98	3
13	15	2
11	23	1
77	77	5
17	50	1
100	110	2
146	148	2
39	40	2
112	114	1
124	124	2
51	51	6
62	62	6
22	23	2
152	152	2
117	117	1
3	107	1
7	41	1
38	39	1
68	68	1
89	89	2
166	166	1
12	12	1
8	8	2
116	124	2
13	13	2
96	96	2
116	116	2
4	4	1
123	123	1
52	55	1
21	22	1
163	165	3
91	92	1
144	144	2
4	8	2
124	125	1
58	58	1
127	129	1
53	81	2
128	139	1
35	35	2
140	143	1
70	70	2
62	64	1
53	53	1
144	145	1
156	164	1
