124	140	1
2	100	4
9	84	2
7	8	6
148	148	15
84	95	6
4	4	13
5	5	22
32	32	7
32	36	5
129	129	17
97	98	4
127	127	25
135	135	18
128	129	9
18	18	36
4	29	1
28	29	20
144	146	4
27	27	11
29	29	14
144	145	13
156	156	1
152	152	25
107	108	8
100	104	2
88	89	7
150	151	17
68	69	14
0	0	34
42	43	8
46	46	12
86	86	6
41	42	3
22	22	15
111	111	19
48	48	5
128	128	7
133	133	14
109	109	13
136	136	9
2	2	26
12	16	1
30	30	31
108	108	10
34	34	22
77	77	19
94	94	22
138	139	10
139	140	8
33	41	7
38	38	13
7	7	21
147	147	11
52	52	12
16	16	17
53	66	4
1	2	14
11	25	6
51	51	12
89	89	21
7	86	2
73	73	26
114	114	9
126	127	10
153	154	13
75	75	32
144	144	13
121	139	8
75	76	5
150	150	12
24	24	17
16	21	3
151	151	19
99	99	13
20	26	4
34	35	16
14	14	8
80	80	18
40	41	7
8	8	9
3	4	13
121	121	16
53	53	4
7	79	5
8	31	1
80	91	13
141	149	2
18	21	7
35	35	15
145	147	5
70	70	14
8	24	8
25	25	12
82	86	3
36	37	6
21	25	7
58	61	1
99	106	4
119	119	20
41	41	16
44	44	21
23	23	14
79	90	5
90	90	22
38	39	9
130	134	2
93	132	5
130	131	12
143	158	1
104	104	15
105	105	10
84	84	13
158	158	21
100	100	31
147	148	4
96	96	8
28	28	27
148	151	3
67	68	5
70	71	6
20	22	2
10	14	2
117	117	24
33	129	2
107	112	2
105	126	2
106	106	15
42	42	8
1	1	24
5	6	17
156	157	2
115	116	11
134	151	4
149	150	8
3	3	17
140	141	6
128	156	1
20	21	6
41	43	3
92	136	3
17	17	22
134	134	17
71	71	12
71	84	1
134	137	5
138	140	1
28	37	5
11	12	6
140	140	10
49	52	2
135	136	1
113	114	11
157	157	12
106	107	12
68	70	11
45	117	1
95	134	4
81	84	1
25	43	8
108	115	2
111	112	13
93	93	11
105	115	1
139	139	17
101	101	26
48	50	2
146	147	10
48	112	1
109	110	21
26	26	16
82	82	2
10	15	5
8	87	4
47	51	2
121	133	4
17	19	2
6	85	3
113	113	24
109	112	4
109	111	9
36	36	11
22	32	2
20	20	18
38	41	2
7	87	9
55	75	2
89	90	4
138	138	14
92	92	9
141	141	23
88	88	11
65	65	14
87	93	1
120	121	10
78	79	5
67	70	8
93	94	5
19	19	13
47	47	9
133	134	1
31	32	10
111	134	3
5	33	1
43	43	40
142	158	3
28	31	2
116	117	5
40	40	6
125	125	5
31	31	18
97	97	17
48	52	1
21	21	5
18	25	5
45	45	5
117	120	2
6	6	25
50	51	4
27	75	2
98	98	17
77	88	2
83	84	4
87	88	7
32	118	2
10	12	1
64	85	3
134	135	2
44	72	5
130	130	18
90	91	3
81	81	11
110	110	14
72	73	9
0	1	5
142	142	7
67	67	13
102	102	11
17	18	3
128	130	5
21	24	3
48	49	3
113	115	10
63	63	6
87	87	10
98	100	1
14	31	3
145	145	6
9	9	11
141	142	7
16	17	3
49	51	3
12	41	4
83	91	1
5	43	1
30	31	3
121	122	3
14	15	6
152	157	4
10	10	11
155	156	2
105	106	7
51	52	5
19	20	12
158	159	6
29	32	3
95	95	7
44	45	7
55	73	1
12	20	3
143	143	4
11	13	4
95	123	2
22	23	7
24	41	1
36	138	2
146	152	1
38	42	4
47	48	2
33	33	12
79	79	13
114	116	2
50	50	18
136	137	5
86	87	4
85	85	13
39	41	4
54	54	9
78	86	1
131	132	3
123	137	1
31	33	6
116	116	10
121	125	2
121	137	3
15	16	7
11	11	5
110	111	13
105	116	5
147	152	9
19	21	10
56	56	11
69	69	6
134	138	4
95	96	5
65	66	2
137	138	3
57	57	8
73	97	1
129	130	8
37	37	4
50	52	5
85	91	3
8	20	6
25	26	5
27	31	4
122	132	6
15	15	16
108	109	6
34	40	2
103	103	6
51	55	6
93	96	1
13	14	8
110	131	2
34	38	1
3	153	2
2	5	3
91	91	8
73	74	5
20	29	3
25	27	4
64	64	4
131	131	14
102	103	4
54	66	4
147	149	2
39	40	8
98	109	2
55	55	6
120	120	6
24	25	3
10	86	1
4	30	2
14	20	1
155	155	13
19	25	2
115	130	1
124	150	1
108	112	9
12	12	13
22	26	6
54	73	1
4	10	2
140	149	1
50	116	2
118	118	11
8	11	2
4	5	1
134	136	2
0	51	3
97	129	1
142	154	1
84	85	9
84	91	1
61	67	4
13	13	7
31	38	3
67	69	3
143	155	5
123	126	1
33	34	4
27	28	7
80	110	1
94	95	1
95	121	2
57	68	2
123	152	2
92	96	2
81	92	1
124	124	6
91	138	2
131	133	5
147	150	1
144	158	1
29	31	2
56	68	2
126	126	9
99	100	6
110	113	1
115	129	1
19	24	1
15	22	3
8	10	2
97	134	5
81	95	2
1	44	3
51	53	1
44	73	4
151	152	3
56	58	2
78	78	2
157	158	1
34	37	2
82	120	1
153	153	11
18	23	2
132	132	8
110	115	4
5	7	4
69	95	1
112	112	12
91	92	2
46	47	4
100	101	5
141	147	1
91	97	3
125	126	8
98	101	2
53	54	6
68	68	11
104	105	3
37	151	2
39	39	6
4	6	3
152	154	1
122	134	2
103	106	3
136	145	1
117	121	6
110	112	1
122	133	1
31	85	5
90	138	1
123	123	1
10	11	4
43	44	3
124	126	3
36	156	1
139	150	3
115	115	4
16	18	3
96	123	2
15	24	1
37	38	1
25	32	1
62	88	1
98	99	3
54	56	3
124	136	3
123	138	1
61	61	1
47	49	2
132	133	7
8	9	2
142	143	3
10	80	2
74	75	2
53	71	3
0	75	3
137	137	2
91	96	1
92	93	2
49	49	6
23	24	9
95	124	1
45	46	6
133	141	1
81	85	2
122	122	3
16	19	1
34	36	3
82	83	2
85	92	2
62	63	1
41	84	2
22	30	7
66	67	2
113	141	1
118	119	9
12	23	1
80	81	1
40	85	1
56	71	2
6	43	2
22	24	3
142	150	1
145	146	4
10	63	2
53	70	1
24	42	1
141	153	2
25	39	5
152	153	2
12	13	1
124	125	2
3	30	3
103	109	1
5	34	1
131	136	6
28	35	3
125	134	1
56	67	1
7	10	1
15	18	1
119	120	6
10	13	3
44	46	1
45	54	1
9	31	1
121	140	2
3	38	1
154	154	3
14	28	2
27	36	2
37	126	1
84	97	2
71	72	2
27	77	2
79	89	2
0	2	1
33	43	2
83	83	1
118	120	1
35	37	1
9	19	2
105	119	1
77	79	1
4	38	1
81	83	1
27	37	2
149	151	1
122	129	2
37	153	1
28	30	2
29	72	2
31	84	2
143	156	1
88	115	1
6	23	2
31	152	1
7	11	1
148	149	3
97	127	1
81	94	2
112	149	2
29	134	2
114	115	3
115	128	1
75	79	1
123	131	1
10	87	5
116	130	1
92	122	1
2	3	2
30	32	2
131	150	1
107	107	3
9	10	2
93	118	3
71	126	1
3	15	1
108	110	2
62	62	1
120	137	2
2	8	1
110	133	2
85	116	1
62	86	1
97	126	1
130	136	2
159	159	1
35	36	1
121	132	1
53	55	1
7	84	2
21	31	1
80	90	1
5	138	1
10	19	1
92	95	1
111	116	1
45	48	3
135	150	1
83	85	2
132	138	2
151	153	1
117	118	1
54	55	1
63	66	1
134	150	1
123	153	1
143	152	1
83	117	1
20	32	1
16	20	1
103	104	2
74	74	1
149	149	1
37	154	1
116	136	1
6	8	1
43	45	1
81	118	1
108	111	1
4	8	1
30	118	1
3	37	1
107	113	1
144	147	1
82	90	1
72	99	1
80	86	1
26	27	1
92	117	1
