37	38	3
16	20	1
80	80	3
137	137	6
140	140	12
8	12	5
67	67	4
50	52	2
75	75	7
91	97	2
33	33	10
85	86	2
104	135	2
132	132	6
44	44	7
30	30	3
19	26	3
9	9	7
55	64	8
28	29	2
85	96	1
30	31	4
27	27	14
108	110	2
96	96	11
124	124	9
46	46	7
48	52	1
119	119	4
120	120	7
4	5	1
103	103	5
156	156	10
76	85	1
52	97	4
53	54	2
21	21	11
117	118	9
87	87	4
34	34	6
89	146	7
4	4	15
56	64	4
111	111	4
114	115	2
2	2	5
27	28	5
108	108	2
123	123	8
151	151	5
102	102	4
81	111	3
90	90	10
121	123	3
68	68	6
38	38	11
129	129	5
1	2	3
50	51	6
70	70	10
69	69	10
141	143	3
42	42	9
30	37	4
14	14	2
71	72	5
141	141	2
45	46	3
16	16	21
134	134	8
39	39	12
136	137	4
104	104	13
138	139	4
142	142	11
139	139	7
23	24	5
23	23	10
14	20	2
124	139	2
67	116	1
68	70	10
135	135	18
54	54	6
77	78	7
47	51	2
124	131	7
147	147	12
37	42	4
99	99	3
5	6	2
15	21	3
95	96	6
155	155	2
4	9	3
4	16	6
71	148	2
64	65	2
131	131	5
112	112	4
16	17	2
15	15	5
113	113	7
131	132	6
132	133	5
22	22	7
92	92	3
10	10	16
94	94	15
148	148	10
66	66	7
109	111	6
46	110	2
30	36	3
81	81	3
19	20	3
133	133	2
154	154	8
124	126	9
126	126	10
77	93	1
47	48	5
56	57	4
115	115	7
36	37	2
46	117	4
87	89	4
33	34	2
19	19	8
138	138	3
1	5	4
18	18	4
21	22	2
55	55	11
85	85	2
79	79	4
41	41	7
110	111	3
152	152	3
49	51	2
82	82	3
25	35	1
65	65	4
52	53	3
22	23	5
117	117	5
107	121	4
104	105	5
116	116	7
106	107	3
3	9	3
77	84	1
92	93	1
131	156	2
73	73	5
43	43	6
24	24	6
49	49	12
20	20	14
101	102	6
4	13	3
145	146	3
53	53	6
85	93	1
79	80	3
122	122	7
70	71	3
1	1	4
11	14	4
135	136	1
120	126	4
36	36	7
43	44	1
68	69	2
28	28	15
13	21	2
98	98	5
56	56	3
89	90	1
0	0	7
156	157	2
47	47	6
118	120	5
27	37	1
136	136	4
152	153	2
111	120	2
45	45	8
40	41	1
106	106	9
43	48	3
153	153	4
12	12	7
19	21	1
41	42	3
63	64	1
153	154	3
71	71	4
13	14	2
157	157	10
84	84	5
86	89	3
145	145	5
150	150	4
109	109	6
101	101	5
51	51	3
73	99	1
68	148	2
46	80	1
81	93	2
25	25	4
50	50	5
123	136	2
35	37	4
57	95	2
155	156	2
114	114	4
133	137	4
52	52	2
78	78	6
124	125	1
83	83	2
133	135	1
158	159	3
120	123	3
18	19	6
144	144	2
29	30	3
67	68	3
97	97	10
48	49	3
76	76	3
29	78	2
127	127	4
100	100	6
121	121	2
28	32	3
105	107	1
3	29	2
107	107	1
69	70	7
34	35	1
40	40	5
134	135	3
31	31	4
31	33	4
88	88	3
72	72	5
158	158	4
36	51	2
139	151	1
78	85	2
6	6	4
125	125	2
30	150	1
149	149	3
110	110	2
26	37	3
113	126	2
69	71	2
107	132	1
65	66	1
141	142	4
5	5	4
6	7	2
39	41	2
86	119	2
128	128	5
119	126	1
157	158	5
0	22	1
86	86	4
84	86	3
0	5	1
107	115	4
7	7	3
123	133	1
91	96	2
37	39	1
77	77	7
35	35	3
51	52	1
96	98	1
43	142	2
144	146	4
28	147	1
47	117	3
100	129	1
0	4	1
123	151	1
122	136	1
13	13	2
107	131	2
17	17	3
102	105	4
103	135	2
33	36	1
78	79	1
26	36	1
152	154	1
87	97	1
93	95	1
12	13	1
26	26	2
143	144	2
137	138	1
7	19	3
104	112	1
31	36	1
128	129	2
101	129	2
9	10	1
139	154	2
90	93	1
44	75	1
31	32	2
110	113	2
98	99	1
77	79	2
57	62	1
3	3	2
10	13	1
142	144	1
102	104	3
144	145	4
10	19	4
137	157	2
23	26	2
26	27	4
30	49	1
101	106	3
20	21	1
105	106	1
67	119	1
19	25	2
91	99	3
8	8	1
140	141	1
24	26	1
36	142	1
95	95	2
113	114	2
91	91	2
105	105	4
80	82	1
28	77	1
50	53	1
135	157	1
78	83	1
11	11	1
81	92	1
50	103	1
62	62	2
29	29	2
107	152	3
34	38	1
102	138	1
29	77	1
89	89	3
2	20	1
33	46	1
26	77	1
88	148	1
32	32	1
45	100	1
132	153	4
37	49	1
146	146	2
126	127	1
132	134	1
46	81	1
25	26	2
112	118	2
3	28	1
39	42	1
117	119	1
134	152	1
15	16	1
130	130	1
81	82	1
129	130	1
12	17	1
118	118	1
108	109	1
41	46	1
37	37	1
109	143	1
33	39	1
93	94	1
150	152	1
85	97	1
122	158	1
148	156	1
54	55	1
146	156	2
12	14	1
130	131	1
100	101	2
53	64	1
8	9	1
62	68	1
89	144	1
69	147	1
90	91	1
87	88	2
33	44	1
134	137	1
2	6	1
120	124	1
24	44	1
3	19	3
38	50	1
25	29	1
125	141	1
