83	83	3
96	96	1
102	108	2
75	77	2
46	51	2
82	84	4
88	88	4
60	60	13
67	87	2
69	69	3
75	76	2
58	58	4
33	41	2
82	82	5
70	80	1
87	89	3
82	83	4
61	91	4
39	39	5
32	35	3
44	45	2
23	23	9
65	65	6
51	51	6
90	90	8
86	86	4
110	110	5
53	60	2
25	25	2
101	101	3
82	87	4
64	67	2
63	85	1
20	20	7
85	85	9
89	93	6
20	51	2
94	94	3
103	103	4
66	81	3
113	113	3
77	77	6
76	114	3
35	35	1
57	57	6
112	112	1
56	56	2
82	85	3
55	55	3
93	93	5
29	60	3
54	54	6
90	91	3
73	73	11
47	47	11
106	106	4
61	61	5
96	97	2
79	81	2
106	113	2
19	22	3
74	80	1
111	111	14
100	100	3
75	75	3
91	91	5
109	110	1
66	68	2
59	72	2
98	98	5
79	108	2
24	24	3
104	104	5
70	85	1
37	37	6
103	105	2
68	69	5
57	95	1
104	107	3
83	86	1
34	35	1
58	96	1
68	70	4
71	71	1
107	107	1
53	53	5
30	56	4
21	24	2
105	105	3
70	70	4
83	84	6
57	59	4
108	108	3
97	97	2
94	105	3
107	108	1
48	48	1
80	81	1
47	49	2
27	27	2
88	106	4
114	114	1
64	64	6
81	84	2
59	62	2
53	85	1
78	79	4
63	63	4
57	58	3
72	72	2
95	98	1
97	105	4
42	42	4
65	80	4
67	67	7
43	70	1
93	94	2
40	48	9
72	89	2
81	81	5
29	29	1
74	77	5
56	57	1
34	34	3
65	97	2
66	67	3
103	104	4
59	96	1
88	93	2
83	85	2
70	71	1
21	21	2
89	89	4
80	92	2
102	102	2
76	77	3
74	75	2
95	95	2
58	59	2
62	98	2
68	68	3
66	93	1
80	84	1
26	26	1
40	40	2
41	41	1
101	109	3
20	21	1
63	68	2
76	76	1
97	107	2
27	28	1
73	109	1
87	87	2
23	31	1
78	78	1
58	98	2
106	111	3
51	63	2
87	88	1
79	79	2
99	99	1
64	66	1
81	82	1
92	93	1
23	26	1
63	67	2
52	52	1
60	61	1
97	98	1
91	93	1
32	32	2
88	91	2
47	52	1
70	86	2
36	36	1
86	88	1
109	109	2
19	19	1
108	109	1
35	36	1
105	107	1
84	92	2
50	50	1
45	45	1
78	108	3
67	68	1
96	98	1
72	73	2
60	77	1
68	87	1
19	53	1
84	84	3
45	51	1
65	66	1
98	106	1
88	107	1
40	41	1
