108	108	4
75	76	10
112	112	10
92	93	3
4	4	8
58	58	9
85	85	16
90	91	1
116	128	2
76	76	14
100	100	21
31	32	3
118	118	11
9	10	5
6	87	3
68	68	18
12	12	21
123	123	19
46	46	9
8	95	1
97	97	11
13	13	3
22	22	9
10	10	23
1	1	7
6	6	16
84	84	3
59	59	8
79	79	15
47	47	27
17	17	13
66	66	27
116	116	7
30	37	3
3	3	16
121	121	8
18	18	28
104	104	8
25	25	8
13	95	5
126	133	4
33	33	19
60	60	11
78	123	2
83	83	12
96	97	11
79	81	4
71	71	13
119	126	4
73	73	12
93	93	8
87	88	3
35	35	11
59	60	8
106	107	5
57	57	2
34	34	49
4	7	7
47	61	2
35	37	4
115	115	9
39	81	7
96	105	4
73	74	11
25	26	11
88	92	3
32	73	1
120	120	13
120	124	4
118	119	1
95	95	6
108	109	2
63	69	4
25	47	3
34	74	2
126	127	4
11	26	1
124	124	8
62	62	13
88	91	6
99	100	12
74	74	16
5	6	5
122	122	3
40	40	5
107	107	7
33	41	8
2	3	1
128	130	1
62	63	6
129	130	4
72	73	6
30	30	8
128	133	2
3	4	1
63	63	13
113	114	1
121	122	10
56	56	15
78	79	10
29	29	15
111	112	3
57	58	5
21	21	8
106	106	11
92	92	6
11	88	6
9	9	20
20	21	7
70	70	5
14	14	15
111	111	8
71	72	1
11	11	17
11	27	2
45	46	1
103	105	3
39	41	4
114	115	4
31	41	3
67	67	15
44	44	3
114	114	8
24	26	3
98	100	4
81	82	3
4	5	5
102	102	5
35	36	3
28	31	3
91	100	1
69	69	5
51	54	4
26	27	8
123	124	5
35	44	6
11	92	2
119	119	13
134	134	3
133	133	10
26	26	13
15	39	2
8	8	16
64	64	23
2	2	2
61	61	17
15	15	6
98	98	11
91	91	3
13	14	2
109	110	5
110	110	8
25	27	2
22	36	4
17	18	4
27	93	1
45	45	5
79	80	4
90	90	8
39	83	1
123	128	1
89	94	3
39	40	2
9	98	2
126	126	9
132	133	2
112	113	6
51	51	2
111	124	1
46	64	2
39	39	2
73	75	1
100	101	7
78	78	6
65	65	9
20	30	1
86	86	16
80	80	8
19	19	10
119	120	2
55	98	1
88	90	6
91	93	2
27	27	4
77	86	4
6	7	4
28	28	17
101	101	7
72	76	1
96	96	1
127	128	3
94	94	5
130	130	6
63	71	1
65	66	3
40	43	5
105	105	4
7	7	13
75	75	20
21	38	1
51	90	1
16	16	3
124	125	4
46	47	4
29	30	3
72	72	21
95	96	6
64	65	4
18	93	1
31	31	3
38	40	5
30	48	1
5	100	2
12	14	2
87	87	10
48	91	1
24	25	1
36	36	3
77	77	19
7	15	3
14	65	2
103	103	6
104	122	2
44	45	1
81	81	9
76	77	7
48	49	3
129	129	14
82	82	12
12	13	3
113	113	5
77	82	3
23	25	2
68	71	2
78	83	4
17	19	4
30	31	3
0	0	7
131	133	1
45	59	1
67	72	3
15	38	2
4	8	4
39	43	1
26	30	2
84	85	2
79	85	5
96	99	1
57	60	1
38	39	3
99	99	7
57	82	1
7	21	1
41	42	2
77	124	1
64	71	3
63	64	8
33	34	6
10	11	3
48	48	15
78	80	1
34	35	5
11	87	1
27	91	1
8	76	2
10	84	1
90	92	1
32	32	7
131	131	1
8	9	1
92	94	1
57	98	3
82	83	8
83	84	2
127	132	3
77	85	2
30	49	6
30	59	2
23	24	2
17	27	1
32	46	1
86	87	1
1	3	1
125	125	4
46	61	3
68	69	3
14	91	1
43	43	8
40	41	2
3	90	1
69	70	2
30	38	1
128	128	3
70	71	3
30	32	1
56	88	1
28	29	4
41	41	4
37	38	2
34	62	2
63	72	1
97	99	1
35	63	2
5	5	2
104	105	1
78	121	1
31	33	2
76	85	2
97	100	1
12	41	2
38	38	4
117	118	2
10	44	1
117	117	5
27	35	1
27	28	2
61	123	2
38	82	2
18	108	3
32	33	2
29	48	1
91	92	5
31	36	1
28	65	3
83	87	1
27	87	3
113	130	1
105	122	1
20	20	5
93	95	1
88	88	1
27	42	3
42	42	3
92	100	1
122	123	1
66	67	1
43	44	1
123	126	1
28	76	1
8	94	1
108	110	2
18	94	2
29	101	1
1	2	1
48	50	1
29	59	2
81	83	1
7	8	1
26	83	1
102	116	1
14	36	2
63	74	2
97	98	1
77	104	1
8	73	3
31	82	2
61	64	1
39	82	1
29	49	1
103	104	1
28	91	1
46	71	1
105	134	1
121	129	1
19	20	1
11	12	1
128	129	2
113	133	1
107	116	1
107	111	1
68	73	1
89	89	2
3	101	1
26	87	1
109	109	4
116	117	1
98	101	1
85	86	1
18	48	1
75	83	2
48	78	1
47	118	1
8	10	2
42	43	2
94	95	2
67	71	1
47	48	1
127	127	1
83	92	1
49	80	1
85	88	1
7	12	1
26	93	1
23	23	2
3	9	1
46	59	1
113	115	1
28	80	1
127	133	1
83	88	1
14	39	1
9	36	1
87	93	1
34	72	1
37	40	1
25	29	1
112	131	1
24	77	1
37	41	1
86	92	1
28	78	1
4	88	1
7	25	1
11	93	1
99	102	1
24	74	1
22	29	2
