104	122	1
45	45	23
36	36	12
59	59	7
4	7	5
4	11	1
18	18	20
102	102	6
97	99	6
11	49	1
39	39	4
76	77	8
18	100	5
6	7	5
48	48	9
67	67	8
33	95	4
81	91	2
11	11	20
1	1	2
83	83	6
66	68	1
84	84	12
115	134	3
2	2	6
62	62	17
77	96	2
73	73	11
48	49	5
32	32	14
98	100	3
38	81	2
25	38	1
110	110	3
77	77	3
36	37	2
72	72	9
97	97	14
63	64	3
64	64	15
13	13	12
24	24	11
95	116	2
78	79	7
34	34	11
31	33	3
66	83	2
10	85	1
60	60	8
12	12	10
21	21	6
108	120	5
70	70	8
112	112	10
70	71	6
33	34	4
80	80	8
17	20	5
117	117	7
115	116	2
26	26	17
33	33	8
37	134	1
63	71	1
126	129	1
8	8	13
47	47	9
62	67	1
11	81	1
130	130	7
73	74	4
108	108	8
23	23	5
100	100	11
92	93	3
124	124	9
3	5	2
35	35	4
69	70	13
21	35	1
14	14	10
15	15	16
26	55	1
93	93	6
104	106	5
61	74	2
6	6	21
132	132	6
26	46	1
106	106	10
76	76	9
98	98	3
13	15	1
55	92	4
36	41	2
118	118	6
12	66	3
74	88	1
28	35	4
43	43	7
3	101	1
85	85	11
22	47	4
126	127	4
4	5	4
58	58	1
31	31	8
116	116	7
131	133	1
100	126	3
68	68	7
31	99	1
131	131	4
55	56	3
126	126	8
27	40	1
66	66	13
18	20	2
7	7	19
127	127	5
25	48	3
74	83	1
114	133	1
26	82	1
85	86	1
26	92	3
89	96	4
60	117	4
90	90	7
63	63	7
115	115	8
69	69	9
97	98	5
3	4	2
46	61	5
111	121	2
118	125	4
29	29	8
34	35	5
119	120	9
114	114	5
28	101	3
84	87	5
6	18	2
109	110	1
96	97	7
72	121	3
118	119	5
47	48	8
75	75	10
91	91	4
42	44	2
94	94	5
20	22	4
28	60	2
89	90	2
19	19	7
24	25	4
9	45	2
95	95	6
20	131	1
16	16	5
17	17	5
4	4	3
122	122	6
65	66	1
26	29	3
5	5	6
89	89	3
65	118	3
103	104	5
11	12	2
85	113	1
23	120	2
104	115	3
65	65	20
27	27	6
27	80	2
29	49	3
51	55	4
65	75	1
71	71	11
20	20	11
133	133	3
104	127	1
25	25	7
60	61	1
31	34	1
105	105	6
44	44	9
1	68	3
62	94	1
8	100	3
79	79	9
96	96	2
79	80	9
91	93	1
75	76	4
72	124	2
15	100	2
78	81	5
41	41	2
29	30	4
88	94	1
40	40	2
72	73	3
93	102	2
36	44	2
44	62	4
69	71	1
30	30	11
82	82	7
38	38	8
6	101	1
82	83	5
116	134	1
22	26	1
81	81	6
9	9	6
4	32	2
37	38	2
32	48	2
76	104	1
8	9	2
9	10	1
85	91	4
13	100	2
78	107	2
64	65	1
20	61	2
96	101	2
113	133	6
90	97	4
41	47	2
14	15	3
119	123	3
11	93	3
3	3	10
15	23	1
12	77	2
88	93	1
110	111	7
78	83	3
127	132	2
74	74	4
38	41	2
38	68	1
30	31	3
121	121	3
57	59	3
120	125	3
15	36	3
117	130	2
10	12	2
16	33	3
99	102	2
54	55	2
3	20	7
68	69	4
40	43	6
6	31	1
56	56	2
69	76	2
78	112	2
107	114	2
129	129	2
7	100	3
55	115	2
104	116	2
46	47	2
44	46	1
113	113	2
23	32	1
14	26	2
119	119	5
94	96	3
14	32	1
29	48	3
33	38	2
32	47	1
84	86	1
98	99	4
87	124	1
128	128	4
120	120	7
44	45	5
32	86	2
78	90	1
131	132	3
3	8	2
94	98	5
63	70	1
108	109	3
94	97	3
23	29	3
123	123	3
8	11	1
4	12	2
88	88	4
78	78	7
111	133	1
18	33	2
30	78	1
61	72	1
15	16	2
23	24	3
3	10	1
57	57	3
104	124	1
64	67	2
8	97	1
61	66	2
94	95	2
21	22	1
26	97	1
47	88	1
20	132	3
104	104	3
70	75	3
49	49	2
5	62	1
57	58	4
41	43	2
89	91	2
11	90	1
114	115	2
109	109	2
125	125	1
91	95	2
91	96	3
101	101	5
28	28	4
28	86	1
92	92	2
7	8	1
1	2	1
26	27	2
48	92	1
36	43	1
6	17	1
7	111	2
55	106	2
108	117	2
84	85	1
46	91	2
99	100	3
66	67	1
4	95	2
85	93	2
51	78	2
87	87	1
99	99	3
5	83	4
55	83	1
18	58	2
95	96	5
7	14	1
4	130	1
50	115	1
10	118	1
22	22	2
13	47	1
61	61	5
82	130	1
76	119	1
18	19	2
39	42	2
23	134	1
81	82	2
13	61	2
27	28	1
46	46	1
58	60	1
11	27	1
23	46	1
64	70	1
66	93	1
3	12	2
3	118	1
24	26	1
96	99	1
36	42	2
36	38	1
50	50	1
42	73	1
15	133	1
10	10	1
16	26	2
96	128	1
107	107	1
93	111	1
19	21	1
128	129	2
32	33	2
67	69	1
25	47	1
19	72	1
8	12	1
77	123	1
129	131	1
87	94	1
57	81	1
87	125	1
22	125	1
33	98	1
134	134	2
90	92	1
85	90	1
10	14	1
22	128	1
77	99	1
93	100	1
41	42	1
21	41	1
6	13	1
35	36	1
95	99	1
68	70	1
88	134	1
49	50	1
113	121	1
106	113	1
