131	133	10
84	116	7
30	30	27
105	105	21
120	120	14
73	73	24
48	49	3
102	102	16
132	132	23
132	144	1
101	101	11
18	18	20
95	95	22
35	35	28
133	134	10
77	78	5
51	53	3
143	144	12
24	24	13
103	103	26
42	42	7
112	112	26
119	120	21
116	117	7
98	115	4
36	36	20
134	134	26
135	141	1
69	69	15
119	119	27
117	117	15
65	65	28
71	72	14
136	136	22
81	81	13
106	107	4
109	109	21
135	135	9
9	9	21
82	86	1
59	59	16
139	139	7
10	10	12
143	143	10
108	108	11
15	34	4
27	27	14
57	57	14
22	22	17
77	109	2
104	104	23
93	93	18
19	20	6
15	15	20
111	111	24
116	119	4
47	47	13
141	141	32
122	122	34
37	100	2
80	81	10
57	58	7
13	15	1
138	138	24
40	40	11
2	34	3
103	104	5
28	28	18
96	96	15
137	138	24
98	110	5
84	85	5
21	56	4
30	117	2
128	130	7
114	117	5
63	74	2
34	37	6
55	56	7
54	54	19
85	105	2
145	145	16
38	38	36
112	118	5
121	122	7
39	41	10
34	34	23
8	9	8
51	58	5
75	75	7
123	124	1
32	35	1
94	94	10
60	60	9
125	125	19
120	121	13
27	125	1
99	99	11
130	130	25
31	33	5
118	118	22
91	93	4
116	116	17
30	31	1
2	47	4
134	135	18
126	130	3
39	82	1
113	138	3
54	55	11
59	60	2
132	136	5
70	70	22
50	50	8
131	132	14
26	26	10
53	55	2
126	126	33
100	100	4
122	123	18
92	94	6
48	48	14
133	139	4
32	32	17
142	144	2
129	130	10
34	118	1
40	48	1
137	137	12
103	144	2
106	106	17
79	80	5
102	119	2
110	110	25
118	120	8
132	138	7
2	55	3
4	6	5
12	12	4
40	69	1
71	71	16
129	129	15
140	141	10
14	59	3
86	87	6
131	131	28
50	121	1
14	16	8
60	61	2
92	93	12
69	72	2
19	19	8
65	67	3
114	119	6
14	15	7
20	21	10
139	140	19
4	42	3
80	80	14
121	121	17
36	37	16
6	122	4
127	130	18
128	129	7
26	128	4
38	99	1
54	62	4
9	105	6
53	54	10
5	21	3
89	90	2
139	141	4
113	123	2
78	78	10
11	11	14
133	133	27
128	128	19
33	35	5
3	4	3
80	88	4
98	111	4
107	108	4
92	92	15
111	118	4
19	49	2
85	85	19
89	89	12
118	140	2
13	13	11
90	90	9
83	93	1
3	6	4
70	71	12
24	25	3
72	73	1
67	68	5
97	97	6
97	98	7
37	91	3
66	66	13
75	78	5
37	37	16
20	20	7
114	115	7
37	88	1
109	110	2
135	143	4
63	63	8
63	75	6
31	31	10
88	89	4
111	114	3
139	142	4
3	20	1
77	77	15
8	8	14
67	115	1
99	101	5
55	55	16
101	102	3
87	87	25
136	137	9
91	92	5
125	126	3
10	107	4
98	99	3
17	114	1
64	81	4
93	94	2
41	41	13
84	84	19
14	14	15
84	113	4
21	21	7
109	116	1
99	117	7
62	62	8
73	74	2
2	2	10
74	74	9
59	95	2
123	123	6
25	27	1
104	105	7
117	120	2
8	10	6
96	97	5
106	112	3
39	40	11
34	35	4
34	36	3
1	2	5
127	127	12
25	26	8
90	94	3
82	83	5
81	82	6
116	118	1
35	117	1
88	88	15
8	131	2
95	96	7
118	119	11
62	64	7
29	30	3
144	144	23
78	79	2
13	16	7
68	68	10
20	26	1
83	112	1
142	142	12
91	91	7
121	124	1
23	25	3
50	51	8
53	53	13
124	124	16
141	142	7
17	95	2
17	17	9
67	69	4
58	58	9
123	133	1
2	3	5
83	83	11
29	143	5
78	105	2
47	54	5
70	91	5
29	29	33
107	122	4
76	78	3
18	22	4
141	143	3
98	119	1
40	41	6
0	20	2
87	112	1
17	128	2
122	135	5
28	29	9
117	118	7
6	6	20
5	5	18
104	121	2
127	129	3
55	61	1
12	20	1
99	100	12
4	4	4
64	64	18
58	59	6
28	48	1
22	23	3
126	128	3
18	20	3
18	27	3
41	58	7
118	134	3
71	76	1
117	144	5
112	117	5
128	142	2
56	56	23
113	113	18
112	113	6
98	98	12
134	137	4
37	82	1
124	126	3
140	142	4
55	119	1
11	141	1
65	84	2
135	138	7
59	87	4
119	141	4
136	140	11
67	67	11
65	70	6
2	4	5
38	39	1
80	96	1
113	118	1
124	125	6
113	114	4
46	54	1
42	58	1
24	26	1
112	116	3
109	121	6
77	108	3
121	140	5
51	52	10
66	70	6
76	76	11
23	23	5
76	128	2
47	48	7
1	1	11
8	115	2
104	106	1
31	32	8
79	79	7
73	132	1
140	140	8
30	37	5
14	50	3
126	129	1
94	95	4
61	61	13
34	63	1
34	117	3
124	134	1
107	107	15
79	113	2
27	127	4
105	106	10
138	140	4
47	58	1
82	103	4
83	141	2
108	112	5
130	131	4
47	49	3
86	86	10
72	72	16
82	82	13
59	75	3
52	52	9
15	16	6
71	103	2
30	32	5
78	91	1
33	33	20
47	51	5
28	126	3
113	120	3
53	65	2
87	90	4
106	141	5
8	123	4
74	75	3
101	117	1
12	99	1
54	61	2
8	11	2
62	63	11
50	52	9
97	116	1
24	129	2
66	69	5
69	70	11
108	110	3
126	131	4
93	113	1
123	137	2
69	91	5
60	79	1
66	144	1
36	118	1
73	139	1
66	73	2
110	115	2
97	113	1
107	142	1
56	57	5
97	117	2
104	138	1
64	75	1
120	123	1
64	68	3
117	143	1
19	41	3
4	93	2
130	133	4
16	16	15
102	103	4
127	131	4
5	32	6
113	116	4
9	10	6
66	115	3
98	101	3
112	114	2
82	98	4
22	24	6
105	107	1
118	121	1
114	114	13
19	117	3
64	65	7
2	50	3
51	51	7
65	72	3
24	86	1
1	5	3
49	49	9
33	39	4
35	36	2
5	29	2
31	62	2
17	19	2
91	95	3
110	139	2
65	66	5
65	89	1
18	19	4
0	0	8
35	118	3
103	138	1
105	133	6
3	3	11
136	138	7
40	66	4
115	117	6
100	101	2
122	124	3
4	5	4
68	72	2
97	112	5
76	79	5
75	79	1
48	50	2
33	37	4
77	129	2
10	18	2
26	27	2
69	139	2
98	113	2
79	98	1
115	115	9
47	53	3
73	76	1
130	134	2
64	67	1
34	68	2
90	91	5
83	84	7
19	128	1
3	121	2
119	138	1
65	88	2
117	125	3
120	142	2
19	27	1
32	58	5
1	20	2
127	128	5
19	141	2
38	96	4
34	119	2
142	143	1
66	82	2
64	91	8
114	116	1
13	57	1
140	144	1
123	125	2
70	89	3
51	123	1
84	111	1
21	22	6
55	57	5
83	85	3
106	140	1
3	5	5
4	121	4
3	55	2
43	62	3
125	127	4
10	11	7
69	130	1
138	139	3
25	25	11
5	96	1
106	110	1
27	28	6
87	88	3
108	109	2
111	112	1
136	139	7
73	81	2
87	91	3
124	129	2
76	77	3
75	81	3
38	57	1
39	39	2
123	140	2
16	98	3
121	128	1
16	74	2
60	67	2
37	99	3
76	90	1
79	110	1
5	6	1
137	140	1
52	57	2
15	32	2
43	47	2
11	41	2
38	59	1
50	123	1
13	14	2
126	127	4
95	114	1
110	111	4
85	104	3
132	133	1
82	85	1
88	90	1
5	33	1
28	123	3
81	95	2
121	123	3
13	20	4
1	27	2
6	38	1
21	49	3
5	52	3
4	38	2
33	34	11
3	21	1
23	24	1
125	135	1
77	139	2
90	92	1
48	53	1
17	18	3
84	108	2
50	65	1
89	93	2
37	38	2
0	1	3
76	111	1
110	117	1
63	65	2
13	135	1
117	123	1
133	140	2
118	124	2
1	122	4
96	98	2
3	38	2
72	139	1
19	21	2
66	86	1
73	75	2
85	87	1
30	33	1
6	16	2
115	116	2
10	67	1
86	88	2
58	60	2
106	109	2
6	48	2
36	66	1
137	139	1
126	143	1
74	131	2
66	68	2
84	98	1
8	106	2
38	41	2
122	127	1
56	58	2
4	36	2
16	17	5
2	54	2
53	113	1
62	65	2
135	139	4
6	30	1
103	129	2
64	89	2
9	96	3
49	52	3
6	34	1
33	115	3
133	135	1
33	46	2
67	71	1
21	50	1
74	81	2
70	114	1
100	144	2
121	142	2
80	103	1
29	49	1
94	110	1
87	97	2
13	76	2
145	146	1
75	76	1
5	50	2
101	118	3
105	121	1
89	91	2
41	42	1
115	118	1
5	94	1
86	113	1
33	36	1
63	64	1
13	78	1
123	131	1
76	126	2
101	144	1
64	92	1
83	120	1
109	111	1
78	82	1
132	139	1
81	83	1
35	60	2
140	143	2
78	86	3
87	89	1
67	83	1
133	138	1
102	120	1
10	105	1
68	139	1
129	141	1
125	133	2
118	138	3
20	23	1
66	67	1
77	103	2
43	43	1
12	13	1
125	131	1
5	89	1
16	53	1
125	130	1
32	117	2
107	138	2
93	97	1
53	66	1
77	128	1
121	137	1
39	51	1
9	79	1
36	115	1
65	69	1
50	62	1
8	19	1
91	128	1
52	55	1
105	139	1
18	56	1
5	54	1
134	138	1
8	87	1
108	111	1
106	108	1
22	128	1
122	131	1
123	129	1
86	98	1
66	72	1
