12	12	12
47	48	2
8	8	1
25	29	5
5	5	7
18	23	5
19	19	7
67	82	4
85	85	10
20	20	7
99	107	1
66	66	2
115	115	8
42	42	2
62	62	6
114	114	9
103	103	8
117	118	2
111	111	12
42	45	2
64	70	3
26	26	7
127	127	8
96	96	10
7	75	1
116	117	5
15	15	4
54	84	3
108	108	2
100	124	1
16	32	2
74	74	8
41	76	1
2	2	9
65	96	3
8	33	1
77	95	4
27	94	1
89	89	5
14	14	3
63	101	5
112	112	5
30	31	3
92	92	2
105	105	6
52	54	3
129	130	3
121	122	5
49	49	4
122	122	2
108	130	4
51	51	10
21	21	4
103	104	1
117	119	1
56	85	1
64	85	3
110	110	19
78	78	3
45	46	2
42	43	1
94	94	10
10	29	6
46	46	6
14	25	1
101	101	3
129	129	2
11	90	2
73	73	7
11	13	1
95	96	1
13	13	14
18	18	3
8	9	3
41	55	5
102	103	1
70	71	6
124	124	4
50	50	3
11	15	2
117	117	2
99	113	2
96	115	3
46	49	1
29	30	5
29	29	2
37	41	1
55	55	5
97	97	1
86	86	2
64	64	1
108	120	3
64	109	2
119	119	7
32	32	4
88	93	3
43	45	2
74	75	1
24	24	6
54	112	1
53	53	5
88	89	4
90	90	2
59	59	6
119	126	2
25	25	7
93	93	5
28	28	2
7	74	4
114	129	1
120	127	4
56	56	7
27	27	5
107	107	1
30	30	10
92	94	1
109	109	3
5	7	3
17	18	4
97	98	3
130	130	4
70	70	6
50	105	4
81	81	4
43	43	3
4	4	3
91	93	2
10	10	2
69	69	3
55	79	4
32	90	3
31	76	1
71	89	1
113	114	3
9	9	6
68	68	6
116	127	5
88	88	1
124	125	4
132	132	2
24	25	1
94	95	4
88	94	3
119	125	2
18	19	1
48	49	3
16	33	1
0	0	3
121	121	2
41	73	2
22	22	3
83	84	2
65	66	3
64	102	2
13	22	1
133	133	5
0	15	1
87	87	2
119	127	2
71	71	2
19	21	1
83	85	3
45	45	2
11	11	8
78	84	1
79	79	3
102	102	4
48	48	2
106	108	2
77	85	4
16	23	3
106	107	5
53	89	1
41	46	1
88	91	2
125	130	5
17	23	1
124	127	1
59	105	2
88	92	2
120	120	12
67	67	2
3	30	1
109	110	4
66	102	1
100	100	5
71	72	4
62	78	4
62	79	2
52	52	6
38	38	3
41	41	5
33	33	5
112	113	3
85	88	1
64	94	2
16	24	2
82	85	1
28	29	1
42	46	3
46	47	2
31	31	4
64	111	3
76	76	2
126	133	2
5	57	2
72	97	1
79	87	3
81	103	2
8	15	1
99	102	2
72	72	5
53	85	2
131	132	5
64	65	1
50	71	3
1	75	2
131	131	1
63	63	3
99	99	6
75	75	3
102	117	1
39	39	2
1	1	2
40	40	4
62	64	1
98	98	2
63	65	1
45	78	2
84	85	2
82	103	1
54	54	1
16	18	1
57	57	1
47	47	5
66	83	1
44	44	2
59	61	1
118	124	2
32	75	1
61	63	3
47	86	1
126	126	3
15	22	1
78	83	1
49	50	3
79	81	1
121	124	1
91	92	1
120	121	1
19	20	1
77	77	3
47	88	1
67	103	1
14	29	1
22	40	1
42	44	2
43	62	1
51	52	3
52	53	1
113	113	2
3	3	2
77	78	1
55	82	1
50	70	2
52	69	1
56	57	2
53	54	3
118	119	1
114	130	1
67	81	1
40	46	1
18	21	1
0	9	1
61	61	2
98	118	1
60	60	1
39	46	2
31	32	1
128	128	1
89	90	2
50	69	1
71	74	1
111	124	2
40	41	2
44	49	2
16	16	1
120	128	1
25	38	1
71	77	1
104	104	1
34	41	1
130	131	2
118	120	1
111	112	1
65	65	2
61	65	1
9	10	1
63	69	1
