131	132	1
31	31	15
81	115	5
58	58	8
151	152	2
39	39	10
11	12	1
15	16	2
4	4	6
30	30	11
171	172	4
60	60	10
160	161	2
96	97	7
129	129	9
35	35	8
156	156	5
107	109	4
144	144	5
63	96	4
19	19	10
21	21	10
7	7	25
3	4	13
31	35	2
88	89	1
112	117	1
23	23	5
105	105	6
11	11	18
71	73	5
132	132	3
113	114	5
157	158	1
22	22	13
154	154	7
146	146	6
9	10	3
61	61	4
16	17	7
59	59	3
158	158	6
59	60	6
38	38	16
23	24	6
142	142	13
73	73	7
57	57	6
85	85	3
132	133	4
58	95	3
27	27	14
39	40	7
73	79	5
44	44	5
83	85	3
104	155	5
177	178	5
153	177	4
97	103	1
31	32	4
167	167	5
121	121	10
9	9	11
42	115	2
155	155	2
90	91	4
43	139	3
155	157	2
41	41	3
149	149	11
77	77	4
173	173	13
2	3	12
0	18	4
148	148	6
5	10	2
36	37	4
109	109	9
140	180	7
13	13	12
176	176	4
113	165	2
76	76	5
0	0	6
163	163	3
167	170	2
89	90	4
113	113	6
29	29	5
137	137	6
118	118	3
98	152	1
150	150	16
75	79	1
25	25	6
37	73	4
179	179	9
16	16	10
154	158	2
88	88	4
67	68	1
24	25	7
55	55	4
15	15	10
2	11	2
102	102	8
116	116	6
24	24	16
125	125	8
99	100	8
131	131	6
158	159	5
169	169	3
5	6	10
12	12	12
120	120	5
55	60	6
107	161	5
21	22	5
12	13	6
95	118	4
7	8	3
80	86	4
60	78	1
161	161	3
86	86	8
19	20	6
157	162	1
31	39	2
45	45	4
111	111	3
13	43	2
6	6	10
5	41	1
9	25	4
102	143	5
42	42	7
54	55	7
102	150	3
143	144	3
38	44	3
52	52	7
115	116	1
167	168	3
1	32	3
66	67	4
31	34	9
1	1	6
50	52	5
27	28	4
31	33	3
107	158	4
134	178	3
136	165	1
8	9	10
33	33	7
10	10	6
20	20	10
8	8	3
152	158	5
94	94	7
14	14	8
117	117	2
50	95	1
140	140	9
174	174	2
172	172	6
19	22	1
93	107	1
23	40	1
32	32	10
149	150	3
152	152	2
164	167	1
123	124	2
6	11	1
90	90	5
16	44	1
106	106	4
66	140	4
21	93	2
144	145	1
120	126	3
17	18	7
124	124	8
60	61	2
96	117	5
131	135	3
162	162	4
108	108	3
11	14	4
103	104	2
71	71	3
26	30	4
10	11	3
72	76	2
41	42	9
137	138	3
6	7	3
3	3	11
138	138	5
123	123	3
145	179	3
28	28	7
139	139	5
138	180	4
28	29	1
4	5	6
26	29	2
6	9	2
72	72	3
141	141	3
134	142	2
114	115	2
119	119	3
6	8	1
161	164	2
73	108	1
30	31	1
75	75	8
82	82	5
165	165	2
141	163	1
135	135	2
29	35	3
101	115	2
2	2	11
169	173	8
54	54	2
122	122	5
65	67	1
113	116	2
83	84	2
124	125	5
127	128	2
141	142	1
94	153	1
170	173	1
37	37	6
126	126	3
6	26	2
159	159	3
130	134	2
72	73	1
29	33	1
20	42	2
127	127	5
28	31	2
100	100	3
1	21	2
68	68	6
81	81	3
95	95	8
36	36	1
17	17	6
56	56	3
114	167	1
94	99	3
14	15	3
153	153	5
65	82	1
130	139	1
168	168	5
175	176	2
110	110	1
151	151	6
105	107	1
170	170	7
74	74	6
132	135	2
91	91	5
174	175	5
164	164	1
154	155	1
103	139	1
145	154	1
111	112	2
100	115	4
169	174	1
45	46	2
55	57	3
53	53	3
18	18	8
30	33	1
5	5	9
122	134	1
38	79	3
13	35	1
101	114	2
152	153	1
2	6	2
63	63	1
78	78	2
103	173	1
133	138	1
53	58	2
139	140	1
87	87	2
112	147	2
18	19	2
1	2	4
54	59	1
134	134	2
63	64	2
9	13	3
55	59	1
180	180	1
32	33	2
7	9	4
81	82	2
26	41	2
152	157	1
26	26	5
115	115	8
3	5	1
63	67	1
150	151	3
1	38	2
157	160	5
43	43	3
54	141	2
135	162	2
170	172	1
166	167	1
177	177	3
140	141	2
129	174	2
132	171	5
22	23	3
23	38	1
67	67	4
143	145	1
6	28	2
37	38	3
121	123	2
129	160	1
102	147	3
110	116	1
66	66	5
61	71	1
92	93	2
145	153	3
111	113	2
46	46	1
62	62	1
128	129	1
104	104	2
135	136	4
4	10	1
5	7	2
126	148	4
171	171	3
145	145	2
42	97	2
10	12	1
9	16	2
7	34	1
31	42	2
95	96	2
60	166	3
133	142	1
130	146	1
29	36	1
95	124	2
39	96	2
118	160	1
22	27	1
53	54	1
85	86	2
134	163	1
13	14	2
100	107	2
175	175	2
40	40	1
157	157	2
115	151	1
65	71	4
115	160	1
16	31	3
150	174	3
156	159	2
79	79	2
62	63	2
121	122	1
131	140	1
122	133	2
148	154	4
94	95	1
133	133	1
7	41	2
27	32	1
26	27	2
105	109	2
94	114	1
92	92	1
76	77	1
107	107	1
107	111	1
99	99	2
87	88	1
96	96	1
84	112	1
93	94	2
10	13	1
64	64	1
41	43	1
74	103	1
171	179	1
33	34	1
25	39	2
160	160	3
128	128	3
43	44	2
7	15	1
110	111	1
134	160	1
126	180	4
78	79	2
24	27	2
18	21	2
130	130	1
8	24	1
84	85	3
75	101	1
31	38	1
42	43	1
156	158	1
65	83	2
123	133	1
93	93	1
6	14	1
103	106	1
21	23	1
120	121	1
88	99	1
16	40	1
12	38	1
61	77	1
39	112	1
9	12	1
52	128	1
56	60	1
52	56	2
76	80	1
157	178	1
151	166	1
26	28	1
98	100	1
159	161	1
155	156	1
