71	71	4
128	140	3
127	127	7
4	32	3
113	126	7
18	18	10
98	131	1
114	114	6
17	17	4
24	24	3
0	0	3
135	136	1
84	84	5
15	16	2
134	135	7
21	129	3
88	88	4
75	76	5
1	8	7
94	95	6
11	11	4
81	81	5
72	72	8
29	30	2
130	130	11
2	9	1
119	119	11
83	84	11
126	126	7
74	74	9
9	9	6
98	98	7
90	95	9
19	19	5
122	122	9
27	28	5
80	80	5
36	36	5
106	107	4
103	103	5
0	140	3
105	105	5
5	5	3
0	1	2
3	3	3
7	8	7
7	9	5
80	85	1
134	134	5
25	25	6
135	135	7
137	137	15
104	104	6
35	35	8
6	6	9
30	30	5
77	77	7
13	14	3
34	34	18
95	95	8
104	123	2
78	78	2
5	99	3
140	140	4
76	77	2
33	33	6
130	131	2
107	107	7
123	123	6
2	122	2
105	106	2
25	98	3
98	126	5
1	1	5
133	133	3
129	129	8
128	129	5
121	121	5
113	113	5
103	105	1
36	37	3
125	126	2
82	86	1
92	92	2
37	37	1
88	111	3
131	131	2
96	96	4
3	4	3
15	15	6
24	25	5
4	4	4
76	76	3
3	5	6
73	73	4
122	123	2
114	115	1
75	75	2
124	124	9
86	86	12
16	16	8
30	31	4
138	138	3
139	139	6
120	120	2
102	102	3
80	100	2
127	136	2
22	22	4
100	138	3
121	125	3
106	106	7
111	112	2
117	119	2
88	106	2
28	28	10
13	17	2
74	77	3
101	105	1
89	89	3
8	14	2
2	18	2
128	128	4
29	29	5
80	81	4
4	37	3
117	118	1
79	79	4
108	109	3
15	18	2
22	23	2
18	19	3
10	10	3
118	122	4
104	105	5
122	136	3
131	132	1
20	21	4
111	111	7
101	101	4
114	124	1
81	83	2
102	108	2
21	22	1
34	35	1
129	130	3
27	34	2
19	20	4
129	134	2
89	95	2
27	27	1
107	127	3
125	125	3
26	37	5
95	96	1
87	87	2
136	136	6
115	115	5
85	85	2
84	85	1
78	79	2
8	9	3
120	123	1
22	24	1
20	20	2
135	138	1
85	86	3
10	12	1
74	75	2
115	116	3
110	129	1
139	140	3
103	123	1
94	94	2
117	117	2
90	90	6
12	12	3
93	94	1
8	8	2
31	32	2
5	75	2
100	100	2
28	29	1
127	129	1
110	110	1
128	130	1
119	120	2
119	122	1
0	8	1
25	26	1
81	111	1
7	7	4
118	119	1
96	101	2
26	98	1
116	118	2
35	98	1
2	2	2
31	31	1
32	32	3
112	125	1
107	108	1
132	133	1
109	128	1
10	11	1
20	37	1
23	23	2
35	36	1
36	127	1
11	12	1
86	87	1
123	124	1
82	82	1
2	3	1
21	21	1
132	132	1
5	6	1
99	100	1
112	112	1
19	36	1
85	87	1
13	13	1
3	17	1
27	100	1
