111	115	1
10	10	7
63	157	1
62	62	5
166	166	8
20	20	8
164	164	2
2	2	12
19	19	14
24	56	5
7	8	9
31	31	14
160	164	1
1	1	7
149	149	10
38	38	20
4	8	5
110	110	5
76	76	7
57	123	1
144	147	3
60	123	3
130	130	7
53	54	4
161	161	10
40	50	1
37	37	5
142	142	2
151	151	6
26	26	4
161	173	2
12	12	15
18	18	13
102	108	4
36	36	13
79	144	1
42	49	2
104	104	7
17	17	8
29	29	8
65	65	5
135	135	3
179	179	6
6	16	3
144	144	3
132	132	6
13	13	10
111	111	6
67	134	2
71	71	15
35	35	6
107	107	4
57	57	1
89	89	2
38	43	2
99	101	2
7	22	7
4	4	11
76	108	2
72	73	4
74	74	8
177	178	2
108	108	5
159	170	2
42	42	11
78	78	1
95	98	2
43	43	5
25	28	2
98	99	2
9	9	5
11	11	11
31	33	4
169	169	12
5	6	5
91	92	4
145	161	5
14	15	3
11	12	8
66	67	5
85	89	3
141	141	3
128	128	4
154	155	5
167	167	1
171	171	6
57	73	2
39	39	12
173	176	5
116	116	4
76	138	1
15	15	8
87	104	4
79	95	1
77	78	2
153	153	13
127	127	4
12	14	3
172	172	7
137	137	8
112	113	3
103	117	1
21	21	5
5	14	3
27	40	2
23	25	1
111	124	3
145	145	2
85	94	4
175	175	2
123	124	5
81	82	3
0	31	3
26	28	4
115	115	5
152	157	1
32	37	1
106	106	7
41	41	16
4	7	3
70	71	2
27	27	8
15	33	4
25	25	7
8	10	1
151	153	1
75	121	6
154	154	4
92	93	2
122	123	2
155	155	5
126	129	1
72	72	5
51	62	4
161	162	8
61	112	3
151	166	1
14	50	1
20	22	3
9	45	1
41	43	1
134	134	7
50	51	4
44	45	3
79	91	4
80	81	7
67	142	1
33	33	12
150	150	5
75	75	3
4	6	4
14	14	3
91	91	4
60	60	7
26	27	4
18	36	2
27	29	2
31	32	3
73	77	3
83	83	1
39	40	3
41	42	5
129	129	9
90	90	1
43	44	4
92	92	5
157	157	6
136	137	5
3	3	10
119	119	6
82	82	5
25	40	6
68	68	4
113	128	2
14	52	1
29	37	3
28	31	3
170	170	1
4	5	4
108	109	1
147	147	5
131	131	5
40	40	7
160	160	5
3	4	8
98	98	4
61	62	2
113	113	5
15	16	3
11	29	2
7	7	6
30	31	1
100	100	2
176	176	4
165	166	4
152	152	1
12	33	2
61	61	2
4	19	1
12	20	1
124	124	2
93	93	5
28	30	6
66	66	4
10	13	9
163	163	4
162	162	4
80	80	2
65	70	1
168	168	4
1	7	2
120	121	3
123	123	5
16	19	2
177	177	7
13	25	1
56	56	1
28	28	6
116	126	1
5	32	3
67	68	3
105	116	1
44	44	3
14	33	1
10	11	3
32	32	3
156	156	5
79	79	8
58	68	2
28	29	6
98	100	1
5	13	3
167	168	2
20	21	2
136	136	3
87	88	3
133	133	1
135	158	5
180	180	1
118	118	1
83	128	4
17	43	2
173	173	1
63	63	5
54	54	3
115	117	3
34	36	1
17	33	1
122	122	6
116	117	2
5	5	1
24	58	2
164	165	2
145	146	1
88	88	6
0	0	5
8	9	5
59	60	9
17	18	4
20	39	3
16	16	8
12	13	5
131	160	2
24	24	4
145	147	3
13	64	4
88	89	1
117	117	1
8	37	1
121	121	4
80	119	1
29	30	1
10	29	6
156	174	2
127	130	2
53	53	2
54	60	2
2	18	2
51	51	4
89	123	2
3	5	2
0	30	1
34	34	6
34	42	1
23	23	3
131	132	1
102	121	2
15	19	2
138	138	3
133	148	2
8	35	1
55	55	1
89	155	1
166	167	1
8	8	2
89	90	1
60	67	1
160	161	4
37	38	2
140	140	2
104	140	1
174	174	1
64	64	1
40	41	2
1	2	4
13	15	1
2	9	3
13	35	1
10	38	1
110	150	3
23	24	2
118	119	3
125	125	3
16	18	2
40	53	1
156	173	1
98	101	2
171	180	1
38	41	2
59	112	2
103	103	2
25	30	1
84	84	1
2	3	2
57	124	2
58	58	1
115	116	1
165	167	2
30	30	2
80	92	1
143	145	1
3	37	1
135	136	2
146	146	3
115	129	1
19	20	1
3	7	1
33	121	1
151	154	1
110	111	3
2	11	3
163	165	4
25	45	2
177	179	1
2	12	1
10	30	1
96	97	1
1	3	1
71	72	1
101	115	1
77	77	1
4	33	1
133	142	1
102	102	1
153	154	1
150	176	1
19	37	1
45	45	1
65	143	2
151	167	1
22	25	1
65	66	1
22	22	1
21	32	2
113	132	1
130	131	1
49	49	1
6	6	1
52	52	1
94	94	1
140	141	1
81	156	1
73	73	1
143	143	1
42	111	1
21	22	1
99	99	1
35	36	1
59	59	1
86	89	1
64	158	1
131	173	1
157	169	1
12	15	1
1	4	1
54	55	1
