77	78	3
186	186	11
25	25	5
6	6	9
155	155	15
100	103	1
128	128	12
184	184	7
113	113	3
141	141	3
134	134	5
149	189	1
121	123	2
100	100	9
179	189	4
178	178	17
31	31	3
119	130	3
62	62	5
176	177	6
39	39	18
103	103	10
105	105	1
123	125	6
93	94	3
46	46	1
22	22	2
131	131	8
132	132	2
161	164	5
114	174	1
27	28	5
77	77	13
79	80	6
188	190	2
79	79	14
109	110	5
1	2	3
1	1	5
21	26	5
143	143	2
19	19	6
7	8	1
40	40	4
139	140	5
162	162	3
12	12	3
37	37	10
65	66	3
101	101	3
89	125	4
138	138	8
169	169	9
189	189	13
123	123	1
98	98	2
57	57	4
59	59	7
177	181	2
184	185	7
116	117	4
136	136	7
173	185	1
90	123	2
91	91	5
12	83	1
148	148	10
95	119	4
19	21	5
2	2	5
20	180	2
136	146	1
83	103	2
164	164	6
133	133	4
38	38	16
188	188	5
91	92	3
43	45	3
46	47	5
7	39	3
158	162	3
40	41	6
36	36	5
20	83	2
16	16	11
85	97	2
89	89	7
178	181	2
137	138	4
21	180	1
120	120	5
13	13	4
75	75	12
23	24	8
56	56	9
20	20	5
63	63	3
87	87	5
150	151	8
125	125	12
82	83	5
123	124	4
95	97	2
144	144	4
125	127	3
44	45	3
146	146	5
67	67	2
111	111	4
68	68	10
143	144	5
107	107	5
41	41	12
74	74	10
90	90	13
48	68	2
154	154	9
172	172	12
27	27	6
24	24	15
23	23	6
143	174	4
153	154	2
174	188	2
190	190	4
139	139	6
15	15	8
88	88	3
66	68	1
110	110	4
42	175	1
53	53	9
166	166	5
1	56	3
129	158	1
145	173	2
178	179	3
2	3	5
81	81	4
80	80	4
128	129	4
182	182	3
14	14	5
32	35	5
3	3	1
17	17	1
6	7	2
21	22	8
31	38	6
11	11	8
183	183	6
116	116	1
172	173	2
72	72	9
24	25	3
111	156	3
140	140	5
129	129	5
64	64	8
164	178	4
57	59	3
176	181	1
69	69	4
8	8	6
0	57	4
10	10	3
41	175	2
158	158	1
106	106	4
167	168	7
171	174	4
177	188	1
151	151	5
135	136	2
161	161	2
135	138	2
74	75	1
76	76	5
24	26	1
92	92	4
84	85	5
63	64	3
78	84	1
83	83	3
157	157	3
165	165	9
171	178	3
55	68	2
183	188	1
0	0	7
184	186	1
159	168	1
95	120	2
173	184	3
152	153	1
127	127	9
10	11	3
118	168	2
65	67	4
168	168	5
4	5	4
174	174	4
34	34	2
135	137	2
77	84	4
5	5	7
17	18	1
163	163	4
117	117	1
170	174	1
172	174	4
26	26	8
42	42	4
134	148	2
171	172	3
152	152	10
88	123	1
35	35	4
33	33	6
170	170	7
100	101	2
99	99	1
187	188	2
29	31	3
96	97	2
181	181	4
160	162	2
7	38	2
32	33	6
3	6	1
82	82	2
166	170	3
58	60	1
130	130	2
114	117	2
165	178	6
21	104	1
103	112	1
163	173	2
159	159	1
140	169	1
16	17	2
147	147	6
101	103	4
124	125	3
79	83	1
180	181	4
42	43	1
9	14	1
10	79	2
47	48	1
126	126	7
13	14	5
175	176	1
55	56	2
94	94	4
113	150	3
87	88	3
153	153	6
97	97	2
4	4	3
149	149	4
173	174	3
5	10	1
105	126	1
188	189	4
148	154	2
121	121	3
174	175	3
78	78	3
76	87	1
176	185	2
47	47	3
62	65	1
75	78	2
58	59	4
139	168	4
58	58	1
145	145	5
28	33	1
76	77	1
96	96	2
21	21	2
169	170	6
112	112	5
103	104	3
45	45	2
124	124	1
150	157	3
0	1	2
92	93	2
61	61	4
83	95	4
132	133	2
89	158	2
150	154	1
118	118	6
88	90	3
62	159	1
89	90	1
84	84	4
179	179	2
104	109	3
38	53	2
113	122	1
23	25	4
12	82	3
43	44	1
125	159	3
30	30	3
162	170	1
17	24	2
129	133	1
70	105	2
157	162	2
79	107	2
156	156	3
55	55	3
179	181	1
167	167	3
86	87	3
171	171	4
114	114	2
155	156	1
178	180	2
60	63	2
71	71	4
83	84	4
164	165	2
64	65	1
155	157	1
109	109	2
73	73	1
41	45	1
79	84	1
0	5	1
16	24	2
55	58	1
21	179	5
89	151	1
130	131	4
155	164	1
150	150	3
10	80	2
106	108	1
157	158	1
122	122	5
160	161	3
70	70	1
15	33	2
72	73	2
142	142	4
145	174	2
117	120	1
148	149	2
56	57	1
66	66	3
20	84	3
109	123	2
73	74	2
177	178	1
97	100	1
166	169	3
108	108	1
144	148	2
66	67	3
166	171	1
176	176	1
113	123	2
140	142	1
12	14	1
54	54	2
28	29	2
52	52	1
7	7	1
131	146	1
153	170	2
35	36	1
180	180	1
165	169	2
160	160	2
9	56	1
93	96	2
164	189	1
175	175	4
151	174	1
104	107	1
96	99	2
107	133	3
187	187	2
157	163	1
189	190	1
139	169	1
107	131	1
102	111	1
171	177	1
167	178	2
161	167	1
102	110	1
93	93	1
140	170	1
175	186	2
98	100	1
114	150	1
22	44	2
22	24	2
137	137	2
33	34	1
102	103	1
2	158	1
112	116	1
151	186	2
185	185	2
68	69	1
9	13	3
41	42	1
27	33	1
18	19	1
104	104	1
117	118	2
179	180	1
90	157	1
86	86	1
57	61	1
32	36	1
62	63	2
59	63	1
141	143	1
8	10	1
155	172	1
16	27	2
151	187	1
145	146	1
27	29	1
73	81	1
98	117	1
122	123	2
119	160	1
95	95	1
95	99	1
166	167	1
84	94	1
127	128	1
36	37	1
106	107	1
