58	58	15
53	53	28
99	100	3
13	13	6
127	127	24
65	65	8
6	6	3
84	117	3
71	71	6
51	52	5
47	47	17
99	99	18
52	109	2
105	105	24
110	110	10
55	74	1
79	79	13
46	46	12
29	29	7
73	73	14
97	97	9
91	92	3
56	56	8
41	41	8
79	80	4
33	33	16
131	131	9
63	63	9
104	105	6
71	79	1
62	109	5
130	130	15
28	28	14
7	17	4
94	94	9
89	89	5
13	14	4
57	57	11
43	45	4
106	106	14
89	90	4
12	12	3
108	108	11
47	48	1
58	59	6
116	119	2
76	76	15
119	119	17
107	117	1
85	122	4
101	108	4
70	71	3
100	103	4
5	5	18
98	108	1
52	53	3
42	42	14
70	70	7
116	116	12
48	48	17
43	43	6
90	90	9
107	108	4
112	128	4
114	116	1
99	120	3
17	17	14
100	100	8
122	122	5
67	67	5
20	20	15
17	42	1
116	117	2
4	21	1
14	62	3
68	68	9
93	94	3
19	63	6
55	120	4
43	107	4
16	16	5
128	128	6
27	28	9
95	95	10
103	119	2
63	109	4
46	80	2
15	15	8
114	114	6
4	5	4
51	54	3
101	101	9
62	63	3
12	23	1
75	110	1
69	69	16
44	44	3
65	66	3
3	4	4
92	92	7
77	77	11
52	69	2
72	75	1
64	65	2
97	98	8
0	0	12
84	84	4
4	4	4
94	111	6
7	72	2
74	77	3
98	114	3
25	25	7
75	92	3
62	62	14
6	29	5
49	49	15
39	40	12
82	84	5
7	58	2
18	19	2
54	54	6
47	92	2
21	21	10
74	79	5
91	91	13
64	64	7
1	1	11
51	51	5
125	125	4
101	103	2
72	73	5
66	122	2
2	2	12
118	119	2
52	52	7
60	60	4
58	60	5
14	14	2
82	83	1
128	129	3
87	87	3
50	50	16
39	39	12
85	86	5
59	61	5
22	30	3
24	24	14
41	45	6
103	110	2
53	54	1
83	83	14
79	83	1
32	32	9
96	107	4
10	11	3
22	28	3
16	21	2
55	56	5
110	127	1
5	33	4
109	109	11
105	106	1
115	125	1
5	34	6
80	114	4
60	64	3
107	107	5
44	45	4
45	45	2
129	129	8
82	82	9
40	113	2
68	82	2
118	118	3
131	132	3
11	11	13
122	123	1
103	108	2
72	72	5
69	85	4
67	72	2
61	62	8
42	44	4
47	94	3
46	47	1
73	93	1
42	43	4
59	59	8
29	38	4
29	30	2
63	79	2
98	98	7
126	127	6
38	39	1
18	21	4
10	63	2
86	87	3
95	96	4
69	82	3
115	126	1
61	61	7
100	110	4
30	30	3
80	104	1
41	42	2
8	9	1
112	112	3
10	10	9
80	81	2
66	66	10
104	126	2
111	111	11
112	132	2
81	81	11
55	55	10
117	117	13
53	57	4
19	19	7
96	96	5
97	99	4
71	110	8
97	102	2
77	78	2
28	30	4
9	25	2
78	83	1
5	14	2
104	104	3
109	129	3
117	120	1
85	85	10
101	114	4
86	88	5
1	3	3
8	8	4
8	10	2
126	126	5
99	119	1
82	85	3
52	89	3
31	31	3
123	123	8
5	41	5
31	32	4
78	78	5
63	64	2
115	115	3
22	22	7
120	120	6
23	97	2
7	10	3
115	116	11
129	130	4
86	105	3
60	61	3
103	103	6
48	88	1
26	26	8
72	77	4
125	127	2
41	61	1
49	51	2
64	81	3
43	44	3
44	77	1
28	29	3
115	127	2
102	102	5
43	97	1
132	132	6
15	58	2
9	11	3
88	88	5
17	60	3
71	133	2
118	120	2
31	83	2
110	128	4
72	74	2
37	37	3
74	75	2
18	20	2
5	13	1
19	21	3
104	115	2
74	74	8
126	128	3
6	26	4
22	26	1
67	82	2
4	13	4
3	14	3
5	42	3
52	74	1
57	63	1
42	96	3
40	40	8
98	100	2
15	16	3
75	93	1
21	25	1
5	7	1
86	86	5
124	124	9
29	33	1
17	21	2
121	121	3
84	116	5
18	18	7
81	125	1
113	131	1
110	111	2
114	119	2
93	93	4
7	15	1
66	68	1
3	3	8
81	111	3
81	82	3
104	108	2
97	107	2
84	85	4
75	111	1
6	31	2
97	100	2
80	80	4
9	9	3
12	32	1
80	83	1
30	38	1
12	60	2
106	109	1
77	111	2
101	102	1
27	27	5
9	10	3
78	79	5
15	79	2
102	103	1
56	62	1
113	113	4
87	102	2
88	89	2
3	5	3
40	42	4
99	106	3
27	29	1
65	112	2
64	68	2
44	78	4
120	123	1
54	118	2
130	131	2
64	95	1
78	82	4
75	75	5
42	95	1
43	118	2
1	11	1
63	72	1
85	88	4
46	116	1
59	62	1
7	7	1
119	120	1
9	12	2
103	131	2
33	34	3
87	88	3
71	76	3
57	59	1
1	2	1
82	111	2
14	18	2
80	99	2
82	87	1
54	55	2
1	8	1
88	91	1
24	25	1
14	21	1
98	103	1
79	87	1
16	17	3
88	93	2
45	46	2
49	50	1
114	131	3
70	80	2
80	85	2
44	46	1
40	72	1
100	114	3
97	108	5
79	82	2
19	20	3
69	71	1
56	110	1
69	94	1
38	38	3
74	80	1
23	23	1
114	126	2
44	55	1
8	31	1
64	80	2
8	17	1
112	131	2
61	64	3
4	16	2
67	113	1
13	21	2
22	25	1
80	97	2
104	110	1
27	46	1
46	56	4
92	110	2
92	111	1
81	106	1
47	116	1
44	54	1
66	130	2
123	124	1
98	102	2
133	133	1
12	21	1
47	111	2
12	25	1
3	17	1
70	89	1
73	74	1
67	112	1
13	15	3
75	77	1
20	27	2
106	118	1
23	28	3
94	95	1
128	131	2
112	124	2
16	41	1
29	40	1
83	125	1
5	22	1
108	109	1
67	132	1
17	58	1
17	30	1
44	107	1
108	116	1
23	26	2
59	60	1
11	12	1
116	120	1
17	18	1
32	73	1
61	74	2
104	109	1
111	112	1
94	96	1
99	101	1
98	101	1
45	63	1
83	84	1
50	54	1
39	66	1
127	128	1
125	126	1
112	114	1
103	104	1
23	24	1
7	68	1
45	55	1
6	62	1
52	108	1
91	93	1
