53	53	9
82	82	15
27	27	21
102	108	2
99	99	21
57	58	9
222	223	3
159	166	1
164	165	3
221	222	16
189	198	4
66	66	15
23	23	17
73	87	2
25	26	1
53	199	3
224	224	8
28	28	20
11	11	20
121	233	1
38	38	10
226	226	15
195	196	10
220	240	6
56	61	2
155	155	30
219	219	8
102	102	13
112	112	23
167	167	20
24	25	3
144	144	3
172	172	11
90	100	3
73	74	9
115	115	15
234	235	20
227	228	9
109	109	14
4	4	9
65	67	5
239	240	10
245	245	16
225	225	15
248	249	4
111	111	19
152	187	1
116	116	16
243	244	11
31	32	7
49	49	18
178	178	20
110	167	2
162	164	4
76	76	14
194	237	1
75	75	5
208	208	21
55	62	2
236	237	7
210	210	25
9	9	12
67	67	9
97	98	10
205	205	17
240	242	1
25	25	7
188	196	5
91	92	5
49	51	2
114	114	19
90	91	7
115	117	1
62	62	19
105	106	4
246	246	16
213	214	10
193	193	16
184	184	19
39	47	2
95	95	7
175	175	16
42	42	16
242	242	14
155	204	3
107	107	9
239	239	11
50	50	15
53	55	2
217	217	18
186	191	3
20	20	8
232	234	1
10	10	29
180	181	3
55	56	8
24	24	8
21	21	12
34	35	12
109	111	1
181	181	29
182	183	5
213	213	9
179	180	9
216	216	12
113	114	8
209	209	31
168	168	12
173	173	16
89	89	13
35	35	7
204	204	41
165	165	13
237	237	18
236	239	1
199	199	24
52	52	8
160	160	28
150	207	3
86	86	13
96	96	18
73	73	4
223	223	16
5	239	3
36	36	13
231	233	1
194	196	19
167	178	2
106	107	9
64	67	3
171	171	31
178	211	7
201	202	1
195	234	3
50	53	5
155	156	6
206	206	10
37	37	19
152	152	11
202	202	16
178	212	2
177	181	7
83	85	2
237	240	2
76	77	3
103	107	2
192	192	10
6	7	5
102	103	7
146	157	4
178	186	4
154	154	9
191	191	12
207	207	24
46	46	17
23	89	2
111	246	1
152	153	6
62	63	14
196	234	4
36	47	2
60	223	2
151	151	30
118	145	1
81	81	3
158	158	16
3	15	1
61	61	12
164	164	17
194	194	26
118	120	4
212	225	4
178	196	4
64	64	7
72	73	9
93	93	10
12	12	22
58	58	13
197	197	13
222	222	3
230	230	16
200	216	2
157	171	6
216	238	3
60	62	4
72	72	9
218	218	9
65	65	17
43	43	14
188	216	1
235	235	12
19	19	20
197	198	10
164	194	3
227	227	13
109	110	6
191	198	4
105	107	6
118	119	8
180	180	12
247	247	17
153	197	4
92	92	11
167	168	5
50	74	4
179	179	16
240	240	16
182	186	3
92	111	1
56	57	7
145	145	9
246	247	2
180	232	1
15	31	4
78	78	14
236	242	6
232	233	6
238	240	5
193	223	2
21	22	2
98	98	5
166	166	26
22	22	16
232	232	20
248	248	7
208	242	1
186	186	21
72	114	1
188	192	4
33	160	6
111	112	6
161	161	10
198	198	15
102	105	1
6	6	22
97	97	9
184	189	5
65	210	2
210	211	8
31	37	2
157	157	26
234	236	1
71	74	1
177	210	3
195	195	5
118	118	21
57	57	10
115	166	6
208	209	8
92	180	1
33	50	1
76	80	6
69	69	12
221	221	9
70	70	7
99	181	3
5	34	2
192	194	6
188	190	4
51	105	2
15	192	3
29	30	10
96	97	8
48	48	5
30	30	19
110	112	4
177	178	3
215	215	9
59	63	3
7	7	8
205	208	2
94	94	9
241	241	14
41	41	6
114	244	1
201	201	22
69	79	2
39	46	2
88	108	3
98	99	4
44	44	12
61	67	3
194	198	4
85	85	7
64	65	9
197	199	7
67	73	2
162	167	1
53	118	5
175	177	6
196	196	9
165	204	4
153	203	2
173	174	1
162	162	19
225	236	3
159	160	3
156	156	16
2	19	6
203	204	1
174	174	9
92	93	6
183	183	25
27	44	3
229	229	6
30	39	5
153	153	19
95	96	4
85	86	5
48	49	4
34	34	6
120	120	4
228	228	14
164	176	1
238	238	14
196	197	3
60	99	6
150	150	16
159	159	27
190	191	3
200	200	20
55	55	7
98	101	4
20	110	3
185	189	2
50	51	3
11	47	3
46	51	4
27	28	2
152	189	2
15	15	13
113	113	17
187	198	3
80	82	6
5	5	12
244	244	18
5	101	3
6	14	2
216	237	10
182	184	2
167	210	2
177	209	3
18	18	9
33	34	2
57	62	2
198	199	11
175	176	9
184	185	2
54	91	9
243	243	8
47	47	9
117	118	9
236	236	12
196	198	5
115	189	2
241	244	3
33	33	23
238	241	3
238	239	7
189	190	9
231	231	11
98	108	3
157	158	4
206	207	7
212	212	8
1	1	11
48	64	2
187	188	9
53	63	3
67	69	1
182	243	6
66	68	2
92	213	2
54	54	9
188	189	8
68	68	23
172	173	11
42	81	1
68	87	3
202	203	6
188	200	2
185	185	17
32	32	13
223	224	1
207	212	4
31	31	3
59	59	18
77	183	1
201	223	5
233	236	1
110	110	4
13	13	4
77	78	4
49	50	4
34	162	3
111	160	2
186	193	4
2	2	3
108	108	14
105	105	5
167	169	2
14	37	5
82	83	5
88	89	4
159	170	8
78	114	1
52	68	2
53	112	1
3	3	2
61	62	3
182	182	14
223	233	3
10	26	3
173	198	5
216	217	15
36	54	2
104	105	4
12	16	3
209	212	2
71	71	16
63	63	10
151	193	1
203	203	16
233	233	5
234	234	10
11	15	2
199	239	3
204	230	4
6	12	2
227	241	2
186	200	1
152	193	5
79	83	12
12	23	3
36	37	2
194	197	3
21	32	2
163	163	7
166	167	2
77	77	7
175	194	3
186	192	1
92	104	2
10	220	3
62	66	3
34	64	4
166	168	3
211	239	3
8	9	3
186	188	1
188	188	11
20	21	7
224	230	1
199	219	1
79	89	1
226	227	6
60	60	12
47	64	1
71	73	5
80	80	4
119	120	3
41	42	4
187	187	5
100	100	10
223	247	2
60	105	2
111	245	6
14	98	1
84	99	6
208	215	4
113	150	1
103	104	2
119	119	11
65	208	1
45	52	4
88	90	1
37	38	3
115	212	1
158	160	1
10	11	6
212	213	8
172	174	4
40	41	4
19	20	4
87	90	4
2	5	3
160	170	5
244	245	2
58	61	2
43	44	2
178	179	4
7	8	1
213	215	2
31	39	2
58	180	1
161	167	3
57	65	3
8	8	17
193	218	1
179	183	3
220	247	4
84	84	15
36	39	2
40	40	12
145	163	1
195	216	5
25	27	1
163	164	6
104	104	6
96	114	1
89	97	3
86	87	1
95	106	2
210	238	4
164	169	3
104	107	4
43	110	2
215	216	5
214	215	12
214	214	10
58	70	2
107	108	8
87	88	6
28	32	2
50	52	1
106	109	3
213	245	4
165	167	3
74	158	1
87	94	3
210	245	4
176	178	4
101	101	4
162	189	2
17	17	6
199	200	4
161	165	2
159	181	7
55	63	4
220	221	3
103	103	10
69	70	2
170	170	20
214	237	2
185	186	5
80	81	6
177	177	12
71	116	2
174	199	1
95	115	2
190	190	5
88	91	2
82	91	2
79	80	5
69	71	3
18	19	1
15	16	3
171	172	3
39	39	9
51	52	2
115	116	7
152	169	3
35	37	1
180	186	2
162	176	2
209	211	4
174	189	1
101	103	1
100	101	2
237	238	6
160	204	1
101	105	3
104	108	1
208	210	3
56	56	10
81	82	1
162	192	5
175	197	2
177	186	1
146	146	2
245	246	12
37	48	1
55	59	2
210	226	5
3	6	3
39	40	3
187	189	2
169	227	2
91	93	3
10	24	4
90	92	1
4	14	2
194	195	4
164	170	4
16	192	1
73	109	4
152	162	2
74	113	2
26	26	6
71	90	1
110	204	4
216	249	1
27	110	2
225	226	3
112	114	3
193	194	4
63	65	4
217	218	4
76	157	1
220	227	1
151	189	2
149	149	2
91	91	4
2	4	2
204	207	1
193	195	1
83	83	3
229	230	2
212	244	3
112	242	1
66	67	5
208	221	2
20	31	3
156	167	4
191	192	3
26	28	2
110	246	5
116	160	3
12	95	2
77	85	4
153	198	1
216	218	2
220	220	3
179	182	2
164	166	1
25	30	2
52	53	1
160	161	6
48	65	2
99	100	2
51	74	4
42	43	1
177	219	4
90	90	6
176	176	7
48	54	1
14	14	5
113	244	2
117	117	8
112	113	2
68	88	1
84	86	2
169	173	1
50	118	2
169	170	3
178	181	1
214	226	1
157	214	4
47	48	3
165	180	1
157	179	2
152	196	4
162	212	1
182	233	2
208	211	1
70	87	4
186	187	3
240	241	2
156	169	2
16	16	7
118	197	1
116	117	5
186	189	2
111	243	2
162	243	1
30	37	3
177	193	2
17	38	2
174	176	2
249	249	1
147	147	9
200	201	7
117	119	1
151	219	2
186	194	4
114	119	2
195	215	2
145	182	2
88	88	6
80	85	1
189	189	6
195	222	1
189	192	2
32	62	1
29	29	4
163	180	1
47	69	2
2	3	1
192	195	3
149	150	4
211	236	4
73	75	1
44	45	5
225	247	2
83	119	2
82	118	2
68	69	6
175	209	3
180	200	1
231	232	3
100	117	3
83	84	3
164	179	2
45	45	7
70	71	3
82	84	3
90	96	1
17	36	3
191	193	2
56	66	1
78	117	2
71	72	2
163	167	3
216	223	2
87	87	9
73	82	3
93	94	3
184	187	1
165	178	1
10	212	2
230	231	3
80	182	1
151	155	1
208	213	4
147	182	2
159	162	1
40	114	1
76	85	1
218	219	3
166	169	1
120	245	1
92	97	1
56	70	1
81	83	1
32	93	1
58	60	1
198	221	2
51	70	2
191	220	3
32	59	3
74	74	3
55	89	1
211	211	4
242	243	4
12	15	1
166	190	2
180	201	3
187	190	1
193	196	2
5	208	1
70	113	2
58	59	2
9	146	3
55	58	2
101	108	1
52	64	1
172	214	1
91	180	1
219	237	1
185	192	1
198	201	4
196	199	2
33	36	1
242	246	1
176	177	3
62	65	3
233	234	3
151	167	2
118	158	2
15	32	1
181	182	4
211	225	1
74	80	1
164	232	1
187	191	1
169	174	2
156	166	1
241	246	2
11	12	7
29	31	2
106	106	4
196	219	2
168	169	2
70	73	1
112	116	1
55	97	2
36	38	2
51	51	5
181	186	1
86	96	1
160	166	1
11	32	1
187	193	2
12	24	3
76	111	4
193	217	2
19	21	2
65	74	1
4	25	1
157	163	1
114	115	1
193	238	1
70	75	3
193	215	1
179	187	2
196	222	1
32	111	1
173	214	2
68	70	1
156	160	3
111	115	1
61	101	1
111	230	1
24	30	1
12	42	1
161	162	3
227	230	1
95	114	2
200	233	3
192	233	1
151	220	1
59	109	1
73	78	2
161	178	1
155	201	1
192	197	2
201	226	1
153	186	1
92	95	2
77	163	3
199	241	1
183	184	1
63	67	1
55	57	1
209	241	2
4	5	1
145	150	1
68	109	2
163	170	1
50	60	2
48	51	1
200	224	1
6	240	2
34	159	1
166	175	1
150	151	1
17	18	2
41	150	1
98	115	1
40	75	1
109	118	1
16	17	2
230	246	1
47	167	2
53	54	1
179	230	1
110	111	1
216	240	1
169	169	3
58	68	1
18	37	2
83	118	2
14	15	3
215	219	1
61	63	1
89	90	1
31	225	2
158	171	1
40	109	1
169	171	1
161	224	1
26	27	3
210	214	2
207	209	1
214	225	1
159	164	1
160	193	1
35	36	1
193	226	2
56	71	1
43	46	1
116	188	1
82	95	1
32	34	2
191	214	1
7	10	2
50	168	1
59	178	2
14	20	1
152	161	1
23	112	1
56	89	1
5	111	1
157	213	1
41	43	1
75	240	2
157	176	1
67	68	1
57	105	1
78	80	1
115	228	1
117	241	1
180	182	1
158	161	1
47	65	1
144	233	1
49	75	1
60	61	1
177	194	1
15	101	1
102	112	1
101	118	1
72	74	1
37	39	1
51	61	1
32	33	1
242	245	1
17	20	1
119	121	1
75	76	1
20	202	1
191	225	1
82	181	1
111	247	1
211	212	1
151	244	2
3	5	1
177	192	1
101	111	1
78	79	1
87	92	1
209	229	1
90	95	2
179	223	1
210	225	1
160	162	1
114	164	1
166	191	1
81	119	1
59	68	1
191	216	1
113	115	1
48	63	1
79	79	2
117	158	1
47	118	1
76	94	1
183	242	1
151	153	1
177	195	1
49	170	1
0	1	1
168	186	1
7	224	1
95	107	1
207	208	1
87	91	1
81	94	1
159	210	1
162	166	1
7	243	1
146	147	1
157	177	1
77	79	1
173	215	1
237	242	1
246	248	1
192	193	1
101	102	1
26	83	1
80	84	1
162	163	1
32	36	1
155	228	1
182	192	1
33	57	1
77	83	1
146	181	1
53	117	1
217	222	1
59	70	1
153	154	1
