27	34	3
39	138	5
109	109	11
42	45	13
88	88	11
173	173	10
111	111	5
191	191	5
188	189	1
132	133	7
156	156	8
158	159	6
75	75	2
47	51	1
196	196	19
172	179	1
31	31	25
13	14	4
103	104	10
45	45	18
14	32	5
190	192	9
195	195	19
120	121	9
116	116	11
164	164	12
45	46	4
20	20	6
32	72	2
56	56	8
16	32	2
7	147	3
39	39	20
25	155	4
157	157	4
37	38	3
16	16	24
12	12	11
134	135	10
130	131	4
78	78	2
37	54	4
190	190	21
38	42	2
185	186	5
47	49	1
190	191	7
30	31	3
46	46	6
171	171	9
182	183	4
40	41	13
142	142	15
55	56	10
64	64	14
134	134	2
183	183	16
110	190	4
121	121	13
101	101	16
61	62	3
30	30	20
114	114	15
125	127	1
0	5	2
17	18	3
14	47	2
8	8	5
143	143	6
97	144	3
152	152	14
72	72	17
168	168	22
128	128	10
158	181	3
161	162	13
163	167	4
182	182	11
160	160	16
0	19	7
75	76	3
66	66	4
178	178	8
48	48	8
181	181	16
35	161	2
165	165	23
81	81	2
25	25	13
52	58	6
9	9	20
53	53	23
107	108	3
130	135	4
123	185	2
176	176	4
169	169	8
97	97	11
36	36	9
4	19	5
127	127	29
138	138	9
1	24	3
168	179	3
35	36	5
57	57	8
82	82	7
163	164	12
180	181	2
188	188	13
151	151	10
174	175	3
160	162	5
120	120	15
135	136	9
140	173	2
42	43	4
41	41	12
2	2	5
150	179	2
21	21	13
19	181	2
60	60	7
113	113	2
47	48	2
197	197	9
161	163	2
66	76	2
52	52	7
153	153	14
187	188	6
26	26	15
106	106	4
28	29	1
126	127	4
50	50	6
102	102	4
29	29	10
18	136	2
189	189	17
17	17	3
9	54	1
150	150	5
38	38	19
34	34	3
184	184	10
179	179	10
129	129	8
146	146	3
149	149	23
3	18	3
130	192	6
65	76	3
13	46	4
4	8	1
119	119	8
3	4	1
150	151	4
1	1	13
133	133	11
161	172	2
126	126	9
110	110	6
7	135	1
185	185	5
117	117	6
94	122	3
166	166	1
145	145	8
2	26	4
58	58	16
97	98	1
0	0	12
170	171	4
11	11	15
10	10	9
84	84	6
172	172	3
114	115	5
42	42	16
26	63	2
109	110	4
162	162	13
22	164	3
57	58	2
87	87	4
177	178	5
12	13	9
3	3	7
154	154	8
88	89	16
42	44	2
73	73	9
159	159	6
131	131	10
63	63	4
128	129	3
100	167	2
17	144	8
108	108	6
174	174	6
156	157	5
163	163	5
121	122	6
34	36	5
41	70	3
128	141	2
141	171	2
101	102	3
192	193	1
7	8	5
115	151	2
6	6	3
28	60	1
96	97	4
115	115	8
17	143	3
35	35	8
139	140	4
95	95	5
103	103	10
99	99	10
192	192	12
59	59	4
105	105	5
167	176	3
148	148	6
152	153	7
137	137	6
113	147	1
176	178	3
177	177	8
139	139	6
26	58	2
154	165	5
176	177	4
151	155	2
147	147	11
173	174	6
44	45	2
7	12	3
47	47	18
176	179	1
117	118	9
4	4	13
40	131	11
154	162	1
100	101	5
179	192	1
39	43	3
187	187	11
31	150	1
68	154	5
84	85	2
165	166	3
108	110	3
110	193	3
0	2	9
123	123	12
49	49	10
175	176	8
15	72	2
104	104	6
39	137	2
22	22	2
142	143	1
70	70	5
178	179	6
86	86	9
23	36	1
164	166	2
116	118	5
168	186	2
108	111	5
2	3	3
153	154	1
27	28	6
159	178	3
183	185	5
101	160	2
48	51	2
9	50	2
151	162	1
73	74	2
193	193	7
28	28	4
95	96	9
131	132	4
15	15	12
7	136	1
122	122	5
114	125	1
32	32	5
15	43	3
44	44	7
49	56	2
79	79	2
130	190	4
158	158	4
141	172	1
25	63	3
115	116	8
133	134	1
94	94	8
136	138	2
166	167	2
161	161	14
97	114	3
149	194	1
2	22	2
157	158	6
138	189	3
77	77	5
129	130	4
154	155	2
23	23	8
55	55	14
69	69	4
80	81	3
140	140	5
181	182	5
145	146	4
146	147	5
186	186	6
57	78	6
67	73	4
110	111	2
194	194	6
186	188	1
171	172	5
107	107	5
141	141	7
89	98	5
5	6	6
56	69	3
145	172	1
7	7	8
111	112	2
173	175	1
62	63	1
130	143	3
147	156	3
26	78	1
70	71	3
51	51	3
156	170	1
24	25	3
44	56	3
37	47	4
154	168	1
51	52	1
22	155	1
37	161	2
71	71	3
184	185	4
27	62	3
27	27	5
121	171	2
39	45	2
173	178	4
159	161	2
101	186	1
43	43	7
14	14	9
16	70	1
18	18	6
141	184	3
24	24	4
45	48	1
142	192	1
1	78	3
68	78	4
40	154	5
14	111	1
142	146	1
7	58	3
136	137	3
13	13	5
82	84	2
162	171	3
170	170	11
93	95	3
58	61	3
4	41	1
104	105	3
0	1	2
191	192	4
168	190	2
80	80	7
195	196	3
124	124	8
96	96	1
44	51	2
27	59	3
130	130	6
33	33	11
105	107	1
16	17	1
159	160	8
120	151	1
51	53	4
100	100	4
154	158	1
103	106	1
101	147	4
83	83	2
139	171	2
5	30	3
71	72	4
116	117	2
17	146	6
4	5	1
20	23	1
179	180	3
64	65	3
12	38	4
37	37	2
77	78	4
110	114	2
129	131	2
25	148	2
31	82	3
83	85	1
41	45	2
138	171	2
9	10	4
14	185	2
37	42	4
58	59	5
54	54	8
18	19	2
21	167	2
26	35	1
172	174	2
118	118	4
155	155	5
135	135	1
123	124	1
30	32	2
107	192	1
38	166	3
14	128	5
147	158	1
42	160	2
20	21	3
90	90	1
172	196	1
5	5	2
9	12	1
97	115	1
41	58	1
127	128	2
6	7	1
19	19	4
17	72	3
147	157	3
105	106	3
6	8	1
40	40	4
76	151	2
31	57	4
90	103	2
151	152	1
17	71	1
2	19	2
5	104	1
44	47	2
149	183	1
34	62	1
68	68	5
68	73	1
15	40	2
136	145	2
67	67	1
194	195	1
18	68	3
30	82	1
52	53	2
186	187	1
33	36	2
144	144	2
23	160	2
167	181	1
7	11	1
125	125	4
59	60	1
43	46	2
25	78	1
23	41	2
140	150	1
167	167	2
102	103	4
67	76	2
46	47	2
164	165	1
117	119	1
130	132	2
136	136	3
89	89	1
41	157	1
78	79	2
18	20	1
43	56	1
99	171	1
3	5	1
63	64	2
103	105	1
28	31	2
189	193	1
61	61	5
112	112	4
67	68	4
93	96	1
195	197	1
180	180	7
20	40	1
74	75	2
150	155	1
59	65	3
134	146	3
43	187	3
159	162	1
68	75	1
21	168	2
31	33	1
5	8	1
62	62	2
183	184	2
132	132	4
18	40	1
100	148	3
142	191	2
157	194	1
101	112	2
76	76	3
123	186	1
139	180	1
31	32	1
54	56	2
15	73	1
0	98	1
143	144	1
84	86	1
16	145	2
122	187	1
59	77	1
28	76	2
118	119	2
102	133	1
129	183	1
20	22	1
43	44	1
142	194	2
189	191	1
166	188	1
31	54	1
85	86	1
94	96	1
34	163	2
26	59	1
182	184	1
8	148	1
38	160	1
148	149	1
181	193	1
33	34	1
115	118	1
155	164	1
193	194	1
152	156	2
112	124	1
36	59	2
43	51	1
47	50	1
41	152	1
76	78	1
157	172	1
