31	32	4
144	146	1
125	125	3
109	109	6
110	155	2
40	41	2
25	36	6
84	84	4
28	46	1
15	15	4
80	86	4
19	19	7
30	55	3
68	68	9
117	117	5
31	31	4
91	92	2
115	115	7
85	86	3
31	71	7
87	88	1
16	16	2
4	4	10
27	27	4
30	45	2
44	44	11
40	84	2
22	52	1
7	7	3
37	38	3
30	31	5
1	135	1
147	147	5
126	126	8
38	39	3
97	98	2
113	113	3
127	151	4
118	118	13
130	139	1
102	115	3
138	138	1
8	9	2
136	137	4
129	131	6
105	111	6
127	127	5
82	82	3
81	83	2
158	158	6
93	93	5
22	31	3
145	145	2
3	3	4
39	48	4
85	88	2
127	156	4
21	21	3
107	108	6
53	53	8
141	143	2
0	0	11
32	32	2
122	148	1
106	106	2
28	29	2
113	115	8
118	119	9
148	153	2
5	5	3
149	150	2
37	56	2
102	102	8
86	86	3
87	139	1
14	37	1
24	24	7
54	54	8
132	147	3
29	29	2
23	23	5
108	109	1
43	43	4
124	124	1
9	10	3
88	88	2
14	57	3
112	112	7
144	145	5
10	10	3
83	84	7
1	1	2
9	9	4
126	141	1
42	42	3
44	45	3
86	153	2
101	101	6
12	12	3
52	53	4
36	37	4
129	129	5
121	122	3
93	96	2
155	155	5
99	99	1
8	8	6
49	82	2
144	150	2
151	151	3
128	128	4
100	129	2
27	30	2
141	141	2
64	70	2
131	157	2
113	141	3
26	26	6
18	19	1
106	132	1
133	134	2
49	49	2
105	132	1
3	4	3
123	123	5
68	142	2
132	132	2
45	45	3
131	150	1
7	16	2
136	136	2
7	12	3
23	50	4
103	103	4
63	63	2
36	40	3
38	50	1
67	68	1
9	57	5
81	81	2
51	51	4
115	116	1
9	52	3
78	78	4
141	155	1
135	135	3
119	119	2
101	128	2
2	4	2
96	96	4
114	114	7
124	125	3
18	20	4
43	65	1
62	79	1
37	67	1
86	157	2
72	120	1
45	47	1
64	69	3
76	82	3
23	47	5
40	45	3
77	77	4
98	98	8
131	147	2
40	40	1
142	156	1
131	135	2
143	143	3
13	13	4
87	87	6
76	77	1
124	134	3
110	124	2
120	122	1
154	154	3
11	11	6
4	26	3
64	90	2
49	51	3
55	55	3
137	141	1
110	113	2
104	104	5
149	149	1
67	67	6
80	80	3
4	8	1
36	36	3
20	20	2
92	109	3
131	131	5
146	146	1
11	157	2
81	82	2
91	117	2
126	140	4
34	98	1
13	19	2
144	147	1
92	110	3
148	148	5
139	139	4
90	90	1
70	71	2
115	145	3
30	30	1
33	33	1
44	138	2
135	136	3
75	75	1
17	17	4
17	19	1
51	54	2
110	110	1
38	38	2
71	71	5
93	110	1
111	111	2
46	46	3
4	31	2
145	146	1
67	91	1
28	28	1
26	27	1
91	110	2
123	124	1
110	149	1
86	89	1
119	127	1
14	39	1
23	24	1
103	130	1
141	147	1
124	137	1
92	93	2
41	41	3
110	111	1
24	25	3
9	11	1
69	69	2
85	85	2
134	134	2
88	122	1
90	134	3
14	18	1
77	105	1
83	83	3
27	143	2
142	144	1
109	120	1
127	155	1
17	18	1
6	6	1
93	133	1
134	136	2
96	97	1
25	25	1
129	130	2
74	74	2
72	72	2
105	123	1
39	40	2
71	141	1
13	14	2
38	61	1
65	137	3
140	140	1
123	149	2
2	75	1
50	50	1
48	56	1
159	159	1
67	144	1
29	30	1
89	89	2
84	86	1
2	2	1
70	70	1
117	119	1
120	120	3
122	122	1
14	50	1
32	37	1
37	107	1
46	139	1
100	100	1
4	40	1
31	56	1
39	56	2
153	153	2
0	79	1
110	141	1
85	121	2
150	150	2
37	37	1
22	50	1
130	130	1
154	155	1
93	121	1
95	96	1
47	47	1
55	83	1
63	67	1
