30	30	9
58	58	9
68	69	10
105	105	9
80	80	7
104	105	2
85	86	3
74	74	8
59	59	4
23	28	1
102	102	11
78	78	13
33	33	10
27	28	8
72	72	4
82	82	5
49	49	5
66	67	6
72	74	3
85	85	12
96	98	1
63	63	8
84	90	1
23	23	12
53	53	1
21	76	3
44	45	4
56	58	1
54	54	7
55	55	12
44	44	7
44	57	4
89	89	11
25	26	5
70	72	1
51	51	8
101	101	8
87	87	2
52	52	12
29	29	16
90	90	11
46	46	1
84	89	5
57	58	4
24	99	3
58	59	4
95	95	12
61	61	11
88	89	4
27	27	5
69	69	9
32	32	13
62	63	5
75	76	10
76	77	1
28	28	2
65	66	2
76	76	6
92	92	9
80	81	4
70	71	8
28	32	3
42	42	3
40	45	3
48	49	3
70	70	12
26	26	7
47	99	3
60	60	8
83	84	7
31	31	6
97	99	2
53	54	1
104	104	7
97	97	13
40	40	8
82	86	5
30	32	3
77	79	1
22	24	5
24	98	4
67	67	16
84	85	7
75	75	5
42	44	8
34	34	9
89	96	3
28	29	3
47	49	5
47	98	2
36	37	6
20	21	5
79	79	3
66	66	12
96	96	10
102	103	7
38	39	4
57	57	3
73	73	3
41	41	4
20	20	2
73	74	2
25	25	5
88	99	2
47	48	4
86	86	11
37	40	6
86	87	7
21	36	3
83	83	6
88	88	3
61	64	1
50	51	1
51	54	4
81	81	6
21	21	3
78	79	4
35	35	6
40	41	5
45	98	1
38	40	3
34	36	3
26	40	3
70	73	2
36	36	4
22	22	13
63	64	3
91	91	7
56	57	6
37	37	3
71	71	7
41	42	7
37	81	2
99	100	2
65	65	5
55	56	1
98	98	3
36	39	1
103	104	3
82	88	7
43	54	1
64	65	2
65	75	1
33	34	3
89	90	4
49	88	2
43	46	1
52	55	3
38	38	4
26	27	1
100	100	4
69	70	5
24	24	5
46	49	6
93	105	1
43	52	2
45	45	5
92	93	1
31	32	1
46	48	1
101	102	4
29	36	3
86	88	3
21	22	2
43	43	2
50	50	4
92	96	1
79	80	2
45	46	3
103	103	5
71	73	5
59	60	5
94	94	7
62	100	1
46	51	6
101	105	1
94	96	1
62	62	3
93	94	1
89	97	1
41	44	1
90	91	7
94	95	2
88	98	2
56	56	4
48	48	9
83	86	1
24	25	1
97	98	8
77	77	3
107	107	2
54	55	2
41	48	1
89	92	2
32	33	2
82	83	1
68	68	2
64	64	1
23	24	1
41	45	2
106	106	3
99	99	1
98	103	3
27	38	1
82	92	3
23	62	2
47	47	4
73	75	1
89	91	1
82	87	1
77	78	2
49	50	1
96	97	1
89	99	1
79	81	1
78	82	1
84	86	1
51	52	1
24	28	1
93	95	1
100	101	1
56	94	1
88	97	1
