50	50	7
105	105	2
65	65	10
85	85	5
38	66	3
62	62	7
38	38	5
35	35	4
45	45	8
95	96	4
37	39	2
84	84	8
53	85	6
48	48	16
101	101	3
97	98	4
55	55	16
56	56	7
53	53	3
31	31	6
46	46	8
89	90	3
91	91	10
64	64	3
98	98	6
68	68	5
88	89	3
37	37	10
26	101	1
52	55	1
32	65	1
96	96	7
79	79	7
99	99	11
81	81	2
42	42	4
72	74	4
45	90	2
106	106	1
23	23	4
88	88	3
103	103	6
76	76	9
44	70	1
32	86	2
61	61	10
59	60	1
95	95	12
89	94	4
46	47	2
77	77	2
107	107	2
41	41	3
35	69	2
49	96	2
91	92	1
67	69	1
40	40	4
33	34	6
49	99	3
41	106	1
39	39	11
20	20	3
90	90	1
34	34	2
60	92	2
82	82	2
92	92	2
24	24	5
86	86	5
47	49	3
58	58	3
88	90	5
47	48	4
26	26	5
82	83	2
21	21	5
25	25	7
39	42	6
22	22	5
102	102	3
54	54	5
52	52	3
100	100	10
74	74	3
87	87	3
54	55	1
40	45	1
72	72	8
83	84	3
82	84	1
28	28	3
51	51	4
44	45	7
92	93	5
30	31	2
96	99	2
26	28	1
60	96	2
60	60	3
23	24	2
80	80	3
89	89	3
59	59	4
31	32	2
71	71	5
35	44	2
63	64	3
40	41	3
35	71	1
98	99	1
38	85	2
66	67	6
104	104	1
93	93	3
91	99	3
100	101	1
82	88	2
64	66	1
43	45	2
84	87	1
56	88	2
69	69	7
104	105	1
70	70	3
87	88	4
70	73	1
27	28	5
33	75	1
37	38	1
58	95	2
62	63	1
43	43	3
56	106	3
37	67	2
27	27	3
82	86	4
66	66	3
47	47	4
65	97	1
53	55	3
93	100	2
29	29	4
30	30	4
62	66	1
72	73	4
61	62	1
30	59	2
33	33	6
38	39	3
49	49	3
79	93	2
40	107	1
75	75	1
36	36	1
57	57	1
68	69	3
53	83	1
29	31	2
63	63	3
26	27	1
79	80	2
94	94	1
59	68	2
94	95	2
36	38	2
89	107	1
54	93	1
91	94	1
55	56	1
64	67	2
58	59	1
27	29	2
44	44	2
78	78	2
66	71	1
83	83	2
29	30	1
48	58	1
73	73	1
76	77	1
45	96	1
39	40	1
45	59	1
28	29	1
42	43	2
84	86	1
77	89	1
78	79	1
27	31	1
85	86	1
