119	119	5
40	41	7
98	98	7
81	81	10
106	106	2
3	6	1
28	29	3
107	118	2
94	95	5
2	2	2
85	85	7
68	68	4
4	5	2
45	46	1
41	42	6
17	17	8
44	44	7
5	6	3
76	76	11
21	23	2
4	6	1
30	30	8
65	65	3
103	103	11
118	119	2
100	100	7
86	86	3
78	79	5
109	117	2
126	127	6
1	1	7
56	56	6
42	42	9
75	75	8
50	50	6
18	18	6
4	4	9
62	62	7
129	129	2
123	123	6
126	126	7
104	117	5
15	18	2
49	49	9
90	90	4
32	32	7
23	86	1
54	70	3
115	115	10
122	122	6
105	116	2
5	5	3
23	24	3
67	67	8
114	114	6
54	54	11
84	84	4
61	62	4
67	68	1
100	103	1
90	92	2
75	77	2
20	20	7
94	94	6
29	29	5
18	19	3
22	22	3
79	80	2
108	111	2
20	21	7
70	70	9
6	6	8
40	40	13
76	83	3
125	125	9
39	39	4
83	84	2
124	124	3
53	54	6
10	10	15
85	86	4
26	26	7
62	63	3
59	59	5
50	72	3
71	114	3
118	131	2
0	0	2
59	60	7
55	56	1
79	79	6
106	107	3
101	130	7
31	32	6
93	93	9
18	33	1
120	120	2
34	66	3
89	89	7
21	21	7
23	62	2
71	71	6
26	27	2
57	64	1
113	114	8
3	3	4
3	15	2
52	111	3
39	43	1
33	60	2
99	99	9
33	33	3
76	77	5
15	17	5
27	27	5
77	80	2
13	13	5
31	59	5
43	44	2
34	38	1
52	52	5
76	124	3
87	87	6
55	55	4
75	79	1
102	117	1
7	7	4
63	64	3
107	107	5
94	97	5
52	53	3
85	95	1
62	67	2
53	53	8
80	80	4
88	91	2
113	113	6
65	68	1
43	43	5
24	25	1
105	112	1
109	109	4
102	102	8
83	83	6
14	15	3
16	16	4
34	34	2
109	110	2
2	3	3
127	127	1
130	130	3
117	129	2
78	80	3
99	124	2
66	66	7
11	11	5
19	26	1
131	131	3
48	48	3
91	91	5
61	61	2
77	82	2
60	61	3
89	92	2
7	16	3
48	109	1
104	105	6
96	96	1
57	57	1
131	132	3
44	45	1
62	64	3
19	22	1
38	38	2
108	108	4
49	110	1
12	12	2
21	22	2
75	84	3
58	62	4
48	49	4
80	90	1
92	92	6
19	19	4
49	50	1
50	71	2
89	130	1
47	47	5
41	41	2
108	109	4
1	2	2
97	97	7
77	79	2
90	91	3
79	126	2
9	9	5
27	46	6
105	105	5
51	112	2
95	95	1
111	131	1
97	118	2
3	4	2
71	112	1
90	125	3
125	126	2
82	82	1
105	120	2
128	130	3
54	55	1
94	115	1
82	83	4
19	20	4
74	74	2
58	59	2
23	23	1
61	63	8
37	38	1
14	14	4
73	73	1
13	14	1
115	118	1
11	12	3
83	100	2
45	45	3
70	71	2
99	100	2
68	107	2
69	69	1
119	131	1
25	25	1
56	114	1
126	128	1
45	109	1
101	101	1
77	97	2
111	111	3
78	78	3
51	51	3
114	115	2
75	76	1
118	118	1
115	116	1
2	4	2
24	26	2
71	72	5
98	99	1
8	8	1
124	130	2
86	91	1
60	60	1
96	98	3
33	34	2
77	77	6
25	26	1
104	104	2
51	52	1
105	106	2
64	64	2
50	65	1
97	117	1
85	88	1
110	111	1
20	108	2
101	102	3
12	13	1
104	132	2
117	117	1
116	117	1
15	45	1
22	23	1
20	26	1
32	34	1
34	67	1
66	67	1
4	15	1
8	9	2
100	101	2
118	124	1
113	120	1
89	91	2
41	43	1
46	47	2
58	114	1
15	15	1
2	5	1
25	64	1
73	75	1
