35	35	14
89	89	12
38	38	2
105	105	11
1	1	5
85	85	10
136	136	18
74	74	15
27	31	5
109	109	6
129	129	12
22	26	1
10	10	6
95	124	2
34	34	6
13	19	2
80	110	2
84	84	6
116	116	10
111	111	8
139	139	9
10	12	7
107	107	6
80	97	2
76	76	10
37	37	23
128	129	7
99	99	7
94	129	1
130	130	16
91	91	16
12	82	1
78	103	2
92	113	3
133	133	14
113	117	6
20	20	17
87	87	11
111	112	8
137	138	5
15	36	1
90	90	2
6	6	14
12	22	2
120	120	9
32	32	13
75	75	12
17	17	4
132	132	14
134	135	4
15	17	6
77	79	3
73	82	5
79	93	4
134	134	8
3	3	8
88	88	3
82	82	13
33	33	10
100	114	1
119	119	11
138	138	15
108	108	4
26	26	9
25	26	12
73	119	2
28	29	5
104	111	3
122	122	15
135	135	12
77	77	10
13	13	1
80	80	16
102	103	4
104	108	3
127	128	2
19	20	4
17	114	1
129	130	4
80	93	2
124	124	14
93	93	8
95	95	13
81	81	7
0	9	5
94	94	4
92	92	8
113	132	3
104	107	5
116	120	2
9	9	13
126	126	13
93	121	3
125	136	2
104	121	2
125	135	3
132	140	1
126	134	1
7	7	8
113	113	4
82	95	1
120	122	9
21	21	8
5	5	8
112	120	3
89	90	1
84	101	3
125	125	18
96	96	6
30	30	13
76	77	1
96	105	4
27	27	11
140	140	19
71	72	4
110	110	4
15	22	3
71	71	5
104	109	1
7	9	6
2	2	8
29	29	6
114	114	6
11	17	3
7	8	1
127	129	2
114	125	1
104	105	3
13	14	9
78	80	1
77	78	4
25	25	12
15	20	3
92	96	4
120	121	5
100	101	3
126	130	1
96	129	3
78	78	9
29	32	2
90	98	3
75	104	3
29	31	4
101	112	5
19	33	3
28	28	8
83	85	3
18	18	10
115	116	2
6	34	4
90	96	1
35	36	2
72	73	6
17	18	6
11	11	8
74	79	5
108	111	7
121	121	12
127	127	7
12	12	1
135	136	6
74	75	1
3	4	5
138	139	7
12	75	1
71	113	3
6	27	4
85	87	3
81	85	1
114	115	2
72	82	3
123	123	4
32	38	2
137	137	6
102	106	1
14	14	5
106	107	1
101	101	2
124	125	6
83	83	9
23	23	12
119	122	7
80	94	3
0	12	2
106	106	11
30	33	1
30	31	1
12	73	3
71	118	2
86	87	2
92	112	3
72	72	1
99	110	3
133	134	2
10	43	2
136	140	1
104	104	7
5	8	3
103	105	5
88	90	3
103	104	4
0	0	12
79	102	5
73	73	7
117	118	5
22	24	1
86	86	8
91	111	2
16	16	3
31	32	3
123	124	8
131	131	7
78	92	1
13	21	2
19	19	6
97	101	3
73	74	2
1	16	1
27	30	5
90	95	2
128	128	6
100	100	2
90	91	3
96	98	1
117	123	3
81	82	9
132	133	5
9	10	3
102	104	1
20	21	4
125	126	3
108	110	5
34	35	1
107	108	3
104	114	2
19	21	4
105	106	3
74	113	2
116	122	1
36	36	7
115	115	6
29	30	3
105	111	2
4	4	2
28	128	1
102	102	5
24	24	4
136	137	3
79	113	3
87	98	1
118	118	12
86	124	1
85	93	2
116	117	4
1	9	1
27	130	1
15	15	6
114	116	4
14	25	2
74	111	5
116	138	1
72	112	1
134	137	1
127	135	3
74	78	2
113	120	2
74	100	2
11	12	3
93	126	4
72	116	2
136	138	1
99	100	8
1	3	4
112	114	4
73	75	3
11	16	1
112	113	7
73	117	3
103	103	7
99	101	2
13	74	1
80	81	2
78	86	4
75	77	1
111	114	2
75	76	1
75	121	3
11	85	1
122	123	3
78	106	1
112	119	1
80	83	1
98	98	9
76	92	1
103	120	5
82	85	1
20	74	1
32	37	1
123	138	1
8	8	3
126	127	4
1	14	1
92	119	2
93	138	1
126	137	1
85	124	4
91	95	2
97	97	4
92	126	1
80	87	2
23	73	2
127	130	1
13	81	2
27	29	3
106	112	1
27	28	1
93	94	2
118	119	3
81	99	1
84	125	2
31	31	3
125	134	1
22	78	2
96	97	3
15	16	1
77	95	2
11	13	3
100	123	2
105	107	1
0	28	1
112	117	2
12	81	1
103	107	1
86	88	1
23	24	2
78	79	1
116	123	3
11	82	1
120	123	1
7	10	1
2	5	1
5	19	1
73	76	1
88	91	1
22	22	2
93	111	4
112	112	1
98	99	2
12	13	2
5	27	4
10	11	1
79	79	1
9	73	2
5	14	1
95	123	1
86	116	1
108	109	4
85	86	1
121	123	2
119	123	1
7	73	1
97	111	1
25	31	1
126	138	2
3	5	1
2	19	1
116	119	1
33	35	1
83	84	1
114	124	1
139	140	1
77	81	1
75	81	1
22	23	1
131	132	1
27	34	1
135	137	1
37	38	1
12	21	1
87	90	1
98	126	1
101	103	1
87	122	1
104	106	1
94	95	1
5	6	1
126	132	1
1	5	1
93	120	1
94	108	1
121	122	1
2	4	1
24	25	1
104	110	1
