55	55	23
41	42	4
47	47	16
51	52	4
61	61	15
29	29	3
50	50	4
14	14	5
22	22	14
6	8	3
48	48	41
42	42	24
23	23	17
9	38	1
33	33	17
37	39	7
53	54	11
9	9	14
13	13	22
60	60	16
2	4	2
5	8	6
59	59	25
52	52	24
11	11	7
57	57	11
20	20	5
56	57	12
36	37	4
19	19	4
37	37	21
62	62	7
7	7	14
32	32	35
56	56	23
51	58	4
21	21	14
24	24	17
35	35	32
36	36	24
46	46	26
2	2	4
12	13	8
51	51	22
12	12	7
39	56	2
53	53	19
44	44	24
57	59	3
8	9	4
16	16	12
35	36	10
43	43	16
34	34	28
30	30	28
50	56	4
20	29	2
60	61	7
31	31	14
30	31	5
54	55	7
56	59	4
44	45	4
4	4	10
59	60	13
58	58	16
6	6	2
14	16	4
14	18	1
38	39	9
49	49	27
9	16	8
3	3	6
50	51	4
36	39	2
35	44	4
56	58	2
45	56	6
31	32	13
43	44	11
11	13	4
57	58	1
17	17	12
30	39	3
57	61	2
41	41	15
58	59	11
1	1	13
45	45	9
50	55	6
24	25	6
7	41	3
18	19	13
4	7	3
35	37	1
45	47	14
0	0	6
39	39	25
25	25	6
55	57	4
46	47	3
49	52	2
45	46	11
1	2	10
51	53	7
39	40	6
10	42	4
37	38	2
11	16	2
38	40	7
40	41	8
40	40	13
10	13	4
8	8	8
58	62	4
49	55	3
5	5	5
35	55	2
6	7	8
51	54	3
18	18	6
49	50	5
46	59	4
9	10	10
20	22	3
18	20	5
32	37	3
61	62	5
13	16	2
37	40	3
32	33	5
42	43	5
23	24	3
6	10	2
52	53	5
58	60	3
38	38	11
4	5	3
19	20	4
2	5	2
11	12	7
42	60	2
10	10	1
22	23	4
41	58	3
43	45	1
17	19	1
13	14	3
15	15	6
5	6	5
10	11	4
47	48	4
54	54	2
33	34	4
55	56	2
0	1	1
39	45	2
48	49	1
10	38	1
3	5	1
16	17	4
29	41	2
3	4	1
20	21	4
21	22	3
9	11	2
31	33	1
52	58	2
34	35	1
14	17	2
37	44	1
29	30	1
29	58	1
10	12	1
40	53	1
0	5	1
10	39	1
17	18	1
51	55	1
50	52	1
42	57	1
41	53	1
8	10	1
14	15	1
44	60	1
14	19	1
49	56	2
7	8	1
40	59	1
