100	100	10
35	36	7
122	122	16
53	53	8
1	1	9
66	66	17
16	16	15
86	88	4
142	142	23
91	98	2
67	67	5
53	62	3
99	100	14
132	133	7
127	127	21
129	130	9
128	130	2
98	98	9
48	48	7
128	129	15
94	94	8
124	125	7
74	81	2
131	131	28
119	122	5
37	40	1
92	93	2
61	61	9
30	38	2
109	110	6
39	40	4
96	97	6
38	120	4
83	93	3
41	42	5
80	80	18
41	41	13
40	40	16
11	11	14
79	79	8
17	17	17
17	42	6
50	51	5
23	23	12
13	138	6
15	94	3
10	10	5
113	113	16
63	63	11
139	140	6
99	102	5
68	68	5
37	37	14
25	25	10
33	35	2
93	93	14
3	14	1
53	54	5
70	70	13
138	138	9
138	139	4
96	99	2
134	142	4
141	142	7
53	100	2
127	129	6
30	30	6
51	73	4
130	130	12
6	6	8
20	20	15
134	136	1
0	0	6
5	5	3
105	105	6
140	140	26
108	110	7
74	75	8
25	26	10
107	107	11
90	90	9
91	91	18
54	54	15
29	30	6
124	126	6
29	29	15
93	94	3
68	84	4
71	71	8
95	95	12
26	26	18
134	134	20
100	102	3
71	73	1
118	118	16
82	98	1
82	82	5
42	42	5
104	104	16
114	114	3
119	125	1
8	8	13
1	92	1
32	32	11
137	137	12
108	108	7
9	9	14
126	126	13
125	143	3
103	103	23
55	129	3
3	4	4
59	59	15
133	133	21
84	84	4
58	58	9
85	85	10
119	120	18
101	102	5
94	97	9
117	118	12
87	88	5
124	124	17
32	33	10
36	41	3
136	136	11
25	28	1
48	49	5
122	123	12
9	138	2
4	94	4
121	121	18
96	96	15
120	124	2
119	121	5
33	34	2
130	131	4
105	106	2
33	33	7
24	24	7
75	75	11
139	141	1
123	125	6
2	2	11
123	124	7
23	28	2
89	90	2
60	61	15
37	66	1
30	32	4
15	15	15
125	127	3
12	13	5
97	97	2
18	18	11
74	74	21
49	49	8
73	74	11
27	27	17
112	112	5
116	118	4
20	25	3
66	76	3
66	68	1
123	123	24
24	25	8
22	29	2
21	143	3
87	87	12
4	4	12
116	117	10
90	98	3
55	55	11
19	19	16
18	19	7
75	76	3
88	106	1
111	111	5
83	83	5
102	102	17
50	64	3
144	144	11
22	22	5
40	54	1
33	96	2
34	35	4
77	78	4
26	27	3
117	117	9
59	62	5
120	120	14
28	28	19
73	73	15
65	66	1
57	57	24
95	96	4
31	54	5
49	51	4
69	74	5
143	144	4
142	143	4
21	21	2
135	135	25
79	80	10
101	126	3
57	59	2
60	60	8
109	109	1
93	119	4
141	141	23
81	81	10
3	3	10
39	48	2
132	132	10
62	62	5
38	39	7
5	6	7
78	78	4
58	59	2
34	34	10
94	96	3
94	98	4
125	125	17
119	119	11
113	114	7
145	145	4
36	37	2
85	86	8
110	111	4
24	63	9
39	39	15
118	120	2
118	119	3
135	141	3
13	14	7
0	1	3
103	104	3
88	107	4
72	72	3
17	19	5
39	62	2
90	107	1
81	96	2
56	57	3
30	31	2
50	60	5
86	94	3
89	96	4
101	101	7
31	31	9
62	94	1
14	16	2
19	143	5
111	112	3
107	131	3
62	63	13
36	42	3
137	139	1
25	42	1
48	51	1
64	64	3
102	119	2
97	98	8
103	121	2
99	101	5
104	105	2
69	70	1
89	108	7
30	74	3
127	130	1
4	34	4
102	125	3
51	52	4
129	129	7
88	118	1
74	98	3
104	121	1
106	106	3
61	62	6
107	109	1
99	120	1
87	90	6
130	135	1
112	114	1
86	86	11
28	122	5
124	131	4
92	92	6
1	139	3
102	103	3
36	60	2
76	77	2
82	83	4
96	98	15
115	133	5
72	85	1
67	68	6
8	31	1
19	74	1
49	52	2
38	38	6
81	82	2
83	84	4
33	80	3
56	56	2
100	127	1
36	36	4
9	10	1
127	128	7
114	141	2
32	48	3
118	121	1
2	14	3
53	59	3
19	144	1
35	35	12
6	10	3
88	88	3
49	81	4
69	69	1
24	39	2
110	110	4
109	111	2
91	107	1
16	17	3
30	57	1
119	123	1
64	70	3
89	89	2
94	95	6
111	113	2
26	123	2
66	67	1
134	135	8
99	99	3
127	137	1
108	109	1
26	75	4
90	91	2
104	125	1
23	41	3
10	11	2
37	38	4
27	28	4
52	52	5
35	37	3
50	50	3
135	136	3
77	77	2
76	79	3
107	108	3
123	127	5
30	33	1
140	141	2
141	143	3
126	128	1
120	121	5
19	27	3
128	128	3
9	57	4
111	123	2
105	107	3
20	21	4
95	103	1
59	60	2
33	37	1
43	61	1
19	20	5
64	66	1
53	127	3
50	52	1
71	72	1
88	89	1
111	114	1
34	96	3
60	62	3
20	23	4
111	132	2
22	28	2
88	99	1
37	41	1
125	126	2
20	22	2
47	47	1
108	111	3
25	27	3
131	141	2
134	139	2
31	36	3
113	132	1
36	38	1
116	116	5
73	99	2
131	133	4
68	75	3
136	139	1
58	81	2
65	65	1
48	78	1
99	119	1
88	90	1
49	50	1
16	47	1
18	77	2
99	126	2
19	26	1
74	76	2
34	37	5
14	14	3
102	108	4
111	115	2
37	60	2
33	36	4
24	69	2
71	74	1
34	85	1
21	66	1
5	139	1
52	54	2
27	122	2
31	68	1
137	140	2
67	70	2
77	80	1
132	136	1
34	80	1
87	89	2
5	34	1
61	67	2
26	117	1
80	82	1
105	108	1
25	53	1
124	127	2
137	138	1
24	38	1
19	21	2
65	94	3
131	132	3
121	128	1
118	123	1
76	76	1
55	56	1
53	55	1
23	24	3
31	37	1
68	72	2
131	140	1
126	127	3
73	83	1
22	23	1
2	34	2
82	84	1
90	102	1
47	65	1
66	71	2
104	118	1
43	43	3
52	59	1
54	56	2
4	13	1
115	115	5
120	125	1
16	42	3
19	77	2
139	139	1
110	113	1
75	97	1
87	118	1
2	52	1
69	76	1
67	75	1
133	141	1
131	136	1
91	97	1
88	135	1
132	134	1
115	132	1
64	96	1
112	132	1
34	69	1
8	41	2
88	123	1
136	137	1
19	30	1
140	144	2
106	107	2
59	63	1
86	87	1
24	27	2
8	30	2
72	77	2
34	36	1
20	143	1
90	92	1
121	129	1
104	106	1
42	43	1
146	146	1
12	14	1
11	140	1
