117	117	9
110	111	4
74	74	9
37	37	6
11	24	2
112	112	5
125	129	3
138	138	12
128	128	12
24	24	2
5	26	1
99	99	8
72	74	2
98	98	5
122	122	9
20	25	4
9	9	4
73	73	4
134	134	12
100	101	3
71	71	9
93	93	10
124	125	9
81	95	5
1	1	2
81	81	3
1	30	3
105	105	8
91	91	5
29	29	2
89	89	6
132	132	11
80	82	1
71	121	3
119	119	4
88	91	2
92	99	2
118	118	12
127	127	12
25	25	10
77	77	8
33	33	6
130	130	25
103	103	2
124	124	7
98	101	4
14	14	4
128	132	1
113	113	10
78	78	9
14	114	6
98	105	2
0	32	1
76	77	7
114	135	4
7	8	4
35	36	3
129	138	2
2	11	1
84	94	1
94	94	8
72	82	3
110	110	2
123	123	9
140	140	4
106	107	2
137	137	2
77	78	2
81	105	2
131	131	8
26	26	4
125	127	3
120	140	3
81	110	3
114	114	17
85	85	6
104	107	2
30	30	13
38	140	2
23	24	5
86	101	2
111	112	8
105	106	4
133	133	1
125	128	2
2	2	5
4	4	4
129	129	15
34	34	9
95	95	3
136	136	7
126	127	7
21	101	3
15	15	2
18	21	1
92	95	1
12	13	2
109	109	3
66	66	1
101	101	16
74	114	1
83	83	7
3	4	6
74	125	1
71	104	1
17	17	5
37	38	1
16	16	4
11	11	9
124	127	4
125	126	4
116	117	4
110	124	2
5	5	9
139	139	3
76	76	6
22	23	9
73	81	1
5	15	2
83	84	2
91	117	1
109	120	1
96	97	3
1	24	2
79	140	2
109	110	1
102	102	2
27	29	2
116	116	4
120	121	3
7	7	5
24	44	2
120	122	3
36	36	8
127	129	1
132	133	9
73	84	3
121	121	2
120	120	3
27	27	4
111	111	8
15	37	1
125	125	7
100	100	5
0	9	2
73	76	3
122	138	1
68	68	1
78	79	2
82	83	3
23	30	1
123	124	5
83	116	5
95	96	1
9	24	2
19	19	5
105	121	2
89	91	3
83	104	4
10	11	3
121	123	3
12	23	3
96	96	1
78	125	2
96	101	1
86	87	1
130	140	2
79	79	3
10	10	1
1	11	4
72	126	1
93	98	3
20	104	3
75	75	2
12	20	1
71	74	1
12	27	3
0	30	1
82	108	1
97	98	2
7	11	2
18	20	1
72	81	2
6	6	1
13	13	2
0	1	1
89	115	2
28	28	4
131	132	1
14	110	1
87	88	1
21	96	1
1	23	2
97	97	2
31	31	1
103	105	3
80	106	2
79	120	1
98	131	1
14	24	1
122	123	2
88	89	1
28	31	1
8	9	1
107	107	3
87	87	2
15	18	1
130	139	2
16	17	1
77	109	2
7	9	1
135	135	2
118	119	1
134	136	2
82	82	2
88	90	1
87	117	1
107	129	3
107	119	2
124	129	1
79	87	1
15	21	3
5	27	1
21	21	2
88	88	2
4	5	1
85	87	1
109	121	1
126	126	2
108	109	1
86	86	1
17	18	1
12	12	1
22	22	1
4	15	1
108	126	1
