151	152	7
24	24	25
41	41	17
82	82	7
116	116	15
23	24	8
149	149	21
76	76	12
158	159	4
109	110	4
77	78	14
1	1	11
98	99	11
159	159	7
4	4	21
54	67	1
10	10	13
152	152	17
123	125	3
18	20	5
140	159	3
39	39	16
158	158	10
11	19	1
85	85	18
121	122	4
72	74	5
20	21	11
151	170	3
80	82	26
35	35	23
126	126	13
39	40	9
6	7	9
37	37	21
149	160	2
83	83	15
135	135	9
33	34	2
27	27	30
73	73	3
145	147	11
69	76	2
120	120	6
55	64	2
114	114	4
81	82	13
97	97	16
50	102	4
56	56	19
109	109	11
43	44	14
139	139	13
88	89	8
123	123	11
122	122	6
40	41	9
138	141	5
102	105	4
54	66	2
162	162	7
43	43	17
16	16	10
70	70	13
69	70	1
94	94	7
104	168	6
88	90	5
9	10	9
20	20	6
66	75	3
40	40	26
15	15	12
101	102	5
116	117	4
118	127	8
113	113	8
117	130	4
3	3	32
18	23	3
86	86	10
47	49	6
53	53	7
134	134	11
107	128	3
132	132	11
73	74	7
90	90	14
37	38	9
1	2	8
25	25	14
57	76	4
52	58	5
155	155	14
81	81	15
134	135	13
98	98	14
8	9	9
72	73	5
8	8	15
17	26	8
2	22	6
64	66	1
115	119	1
51	51	15
162	163	6
65	76	5
24	25	10
48	48	5
7	7	18
145	145	14
49	50	5
11	12	17
128	129	6
108	108	21
140	141	11
96	96	16
20	23	6
50	57	4
52	52	21
64	64	11
39	44	1
97	111	3
100	100	18
54	54	3
20	22	10
163	163	15
49	49	15
63	63	7
159	169	4
71	72	2
161	161	9
34	107	1
26	26	17
93	93	7
73	99	1
156	156	3
49	52	1
108	109	6
84	84	18
121	121	15
78	81	4
69	78	5
66	67	3
70	100	1
14	14	11
115	122	3
101	104	3
21	21	15
166	170	1
27	123	6
69	69	19
13	13	9
10	12	4
17	17	7
71	71	19
17	20	3
110	110	22
67	67	7
166	167	9
112	112	23
118	118	11
107	108	7
42	42	15
99	99	10
26	36	1
166	166	5
83	86	5
18	24	9
111	111	10
54	68	7
117	128	3
78	98	1
95	95	3
36	73	1
156	160	4
81	83	3
2	2	19
106	133	1
3	5	2
65	65	13
103	104	8
51	52	3
103	103	14
80	80	7
142	142	12
164	170	5
22	22	5
92	92	14
19	19	9
3	4	4
129	130	3
45	45	10
73	75	1
79	79	5
97	98	5
28	28	6
105	105	11
5	13	1
91	92	4
107	107	14
11	11	14
154	154	12
86	111	2
113	116	2
154	163	6
70	77	1
141	141	3
102	104	1
138	160	3
112	113	11
112	143	1
165	166	3
6	6	11
101	101	6
68	69	9
5	5	15
38	44	1
16	169	2
124	125	6
126	129	5
0	1	10
50	50	9
20	27	5
12	13	7
78	80	1
153	169	2
45	46	12
25	42	6
20	24	5
89	90	5
144	144	18
16	17	7
18	19	5
141	142	2
56	57	7
77	89	4
62	62	1
44	44	10
140	140	8
71	75	4
138	139	3
158	160	2
119	119	12
133	133	11
149	159	2
25	26	5
122	125	3
15	16	3
147	147	6
8	13	2
157	157	10
68	68	1
69	77	5
168	168	6
113	114	7
170	170	7
131	162	4
16	20	3
126	127	6
115	117	1
18	18	15
78	79	7
102	102	20
117	117	5
89	91	2
159	164	1
126	130	3
132	133	3
65	74	4
108	113	2
89	92	2
133	134	1
152	153	6
78	78	1
115	116	9
54	56	9
23	23	30
1	3	3
74	74	6
148	148	8
136	136	12
106	108	4
48	50	3
140	147	1
45	48	1
38	39	3
34	34	13
61	62	2
41	47	3
36	36	12
129	156	1
35	42	10
149	158	1
150	161	4
135	136	2
124	124	6
46	46	5
151	151	14
130	130	4
35	47	7
104	105	9
41	167	1
94	95	4
26	27	3
27	35	3
38	38	12
40	103	4
104	104	1
62	63	1
159	160	3
71	74	2
57	58	2
72	72	8
142	144	3
4	146	5
50	51	15
63	69	1
54	55	7
112	122	1
161	162	4
12	12	12
55	67	2
87	91	3
130	163	4
47	48	5
143	143	5
148	162	3
167	167	7
151	169	2
136	137	11
86	97	2
27	28	13
146	146	11
115	115	10
48	49	9
89	89	2
80	83	2
72	76	1
78	99	5
110	142	3
160	169	3
79	84	2
90	107	2
154	155	4
33	33	13
129	129	3
57	57	5
6	14	3
91	95	5
106	106	4
168	169	3
50	52	5
127	128	2
75	166	1
8	10	1
74	75	9
143	144	4
36	166	2
77	81	2
164	166	1
139	140	5
87	89	4
0	0	7
119	127	4
87	93	4
167	169	5
19	27	1
23	27	4
36	38	3
56	125	2
118	120	3
108	111	3
65	66	2
76	77	5
55	55	5
42	43	2
10	11	7
2	3	7
111	113	5
95	96	5
127	127	6
46	124	3
138	140	2
12	146	2
146	147	3
92	108	1
39	103	4
47	47	9
142	143	3
41	45	2
36	49	2
127	129	1
36	106	3
148	150	1
42	133	3
75	75	3
35	105	4
149	152	1
64	74	4
100	101	3
85	86	3
77	77	12
102	106	2
96	104	2
169	170	2
165	165	2
131	131	2
113	119	1
12	145	1
77	80	1
71	94	1
94	103	4
138	158	1
106	122	2
91	107	1
58	58	3
67	68	4
91	91	7
16	18	4
108	114	2
41	42	3
52	108	1
150	150	5
114	119	5
165	167	6
104	106	2
17	18	6
91	94	3
51	53	2
80	81	2
78	84	1
139	141	1
130	131	2
22	23	6
70	99	1
136	149	2
39	41	3
13	15	1
120	121	2
137	137	6
46	49	4
9	9	10
6	34	1
154	166	1
77	83	1
164	164	8
128	130	4
160	160	3
128	164	3
64	123	2
162	164	2
0	23	3
101	110	2
137	140	2
24	134	5
83	85	1
71	73	2
106	168	1
4	5	5
40	129	1
0	2	3
15	19	2
118	119	3
5	130	1
140	155	4
157	162	1
169	169	4
8	14	4
140	165	2
11	13	3
99	100	2
35	106	2
155	156	1
6	8	3
55	124	1
138	138	7
148	156	2
139	144	1
1	22	3
93	94	1
139	143	2
149	150	2
81	99	1
81	100	1
87	95	5
57	64	4
38	40	3
62	64	1
63	64	2
6	130	1
131	164	4
81	84	2
9	12	1
40	132	1
36	37	2
147	148	5
116	118	6
92	119	2
25	41	2
117	120	1
55	56	7
71	77	2
125	125	5
161	165	2
53	54	3
125	126	1
14	15	7
127	162	4
35	36	2
49	54	1
114	115	1
91	114	3
160	161	3
107	112	1
153	153	6
44	45	6
5	12	2
17	24	1
21	23	4
137	143	5
151	158	3
146	148	4
51	63	3
111	112	2
64	69	3
76	79	1
157	158	2
112	117	1
107	116	5
44	48	1
110	111	6
150	151	1
156	169	2
76	89	3
94	96	2
91	93	2
119	120	1
115	120	1
88	91	1
88	88	5
79	80	1
94	102	2
73	76	1
9	13	1
57	63	1
114	121	2
44	47	1
5	15	1
6	15	1
52	53	1
40	44	4
163	164	3
120	126	1
90	94	1
106	107	4
18	22	1
41	125	1
141	143	1
159	161	2
122	123	3
12	25	1
40	45	1
50	53	1
144	145	3
150	170	1
155	159	1
34	90	4
138	161	2
80	87	5
32	112	1
87	87	3
156	158	1
136	150	1
1	135	1
57	62	2
156	159	2
11	27	3
108	112	1
137	142	1
126	150	1
152	154	1
62	75	2
81	91	1
19	20	1
87	90	1
80	100	1
89	111	3
92	94	2
113	138	1
114	126	1
82	100	2
48	52	1
154	170	1
36	92	2
18	21	1
93	122	1
70	72	1
107	117	1
7	34	1
67	69	2
4	13	1
88	109	1
105	106	5
110	141	1
110	112	1
100	102	1
117	118	1
156	164	1
84	85	1
164	167	1
164	165	1
62	65	1
89	109	1
93	104	1
44	55	1
87	88	1
93	95	2
107	109	1
64	65	1
137	144	1
7	9	2
138	170	1
147	149	2
163	170	1
69	72	2
51	102	1
20	26	2
148	149	2
152	155	1
164	169	1
71	89	3
42	125	2
53	56	1
155	164	1
9	17	1
21	25	2
150	169	1
90	93	1
66	66	1
114	122	1
113	121	1
87	99	1
10	20	2
39	42	1
96	122	1
13	14	1
69	107	1
51	58	1
119	132	1
95	122	1
109	111	1
37	48	1
155	166	1
165	169	1
21	22	1
86	95	1
