0	0	8
131	131	19
119	119	12
101	110	1
114	119	4
33	33	25
13	13	11
91	91	17
75	89	1
111	111	13
104	104	11
99	99	11
129	129	27
26	26	23
107	108	6
3	4	8
140	140	10
123	124	11
16	16	16
19	19	10
118	118	5
126	126	14
98	98	8
37	37	8
119	120	4
139	140	2
87	87	21
18	18	9
101	101	15
122	123	11
133	133	9
77	78	2
85	85	14
21	29	1
112	112	13
6	6	8
115	115	15
32	32	10
31	31	5
90	126	2
6	7	8
16	17	2
14	15	5
78	78	10
5	5	11
10	11	2
30	30	6
97	97	12
125	126	6
95	95	11
98	99	6
23	23	12
89	89	10
84	84	7
7	9	4
88	88	5
99	115	1
120	120	9
2	3	6
134	134	10
136	137	5
5	6	2
4	4	8
17	18	11
35	36	3
38	41	1
125	125	20
120	122	5
93	93	10
123	123	18
122	122	28
74	76	4
135	138	3
102	106	3
35	35	8
106	109	1
136	136	5
12	12	16
128	128	11
82	82	6
75	75	9
100	100	6
74	74	13
22	22	1
25	25	2
96	96	8
117	117	8
110	111	11
121	122	1
113	114	1
118	119	9
103	103	6
11	24	2
90	90	9
24	24	2
1	2	2
10	10	6
97	123	2
132	132	7
79	79	4
110	120	1
93	94	5
72	72	7
5	7	3
102	102	10
87	115	1
23	106	1
11	81	1
73	74	7
130	130	23
112	113	5
27	30	3
135	135	7
88	90	2
22	25	2
109	112	7
129	130	3
100	111	3
109	111	5
8	8	1
3	3	9
38	38	8
21	21	11
102	103	3
29	29	7
4	6	1
80	80	9
11	15	1
130	133	1
114	114	7
14	21	2
86	86	9
80	112	1
78	79	3
137	138	2
111	112	1
121	121	16
127	127	8
93	124	4
29	31	4
108	108	3
28	28	6
124	125	12
94	95	4
34	35	1
90	91	10
135	137	1
74	77	1
97	98	9
100	101	8
124	124	13
85	87	1
74	108	1
12	13	3
80	99	1
109	110	3
2	2	4
71	78	1
73	73	8
88	117	1
130	134	4
73	75	2
34	34	13
110	110	8
76	76	4
11	12	8
81	81	8
117	118	5
82	112	2
137	137	13
107	109	2
34	109	3
83	84	3
85	86	5
106	107	3
138	139	2
92	96	1
76	77	3
2	4	4
131	134	1
17	17	8
105	105	2
109	109	7
15	15	6
4	5	12
94	119	2
135	136	2
94	94	6
71	77	1
17	19	6
139	139	6
27	27	7
29	30	2
104	105	3
34	96	1
113	113	7
13	86	2
101	108	1
86	112	5
123	125	4
90	115	6
128	129	5
23	104	2
12	20	1
111	120	4
83	83	3
9	10	1
71	71	5
31	32	1
71	72	6
19	25	2
126	129	1
1	1	4
73	115	2
127	128	1
20	20	6
99	114	1
132	133	2
107	107	5
73	101	1
134	135	5
89	90	2
101	102	1
7	7	5
81	91	3
37	38	4
34	37	1
77	77	9
82	84	2
14	14	7
81	89	3
106	122	2
113	123	1
131	132	5
116	117	4
126	127	4
127	129	4
16	28	1
29	35	1
138	138	4
118	120	2
9	11	4
103	105	3
106	121	1
25	26	3
83	85	2
103	104	2
114	115	4
132	134	2
79	101	2
120	121	2
77	117	1
15	16	3
75	103	1
22	23	5
25	27	1
28	29	3
33	36	3
8	26	1
33	35	3
14	38	3
13	14	2
87	114	1
118	121	1
18	19	1
80	123	3
117	119	1
20	21	3
91	93	1
100	110	1
27	28	2
102	108	1
86	87	2
74	128	1
95	96	1
78	80	2
108	122	1
86	118	1
132	137	1
21	28	1
19	21	2
36	36	1
20	22	1
95	125	2
13	26	2
36	37	3
22	28	2
30	31	1
3	5	1
28	31	2
74	95	1
76	80	1
84	85	1
103	121	1
72	85	1
89	112	1
11	25	1
11	11	1
92	92	2
6	26	2
33	34	1
23	25	2
2	15	2
72	73	1
131	133	1
130	131	1
2	86	2
17	37	1
3	14	2
119	122	1
127	136	1
96	97	1
114	123	1
120	123	1
77	123	1
77	95	1
81	82	1
80	89	1
82	91	1
118	123	1
24	25	1
134	138	1
