59	59	6
7	7	3
76	76	14
73	118	3
17	22	3
77	77	7
101	129	2
46	47	3
43	44	2
132	133	1
117	117	6
23	68	3
104	104	7
16	17	7
66	73	5
70	70	4
46	46	5
15	15	11
88	88	7
83	83	5
81	81	2
83	84	6
57	57	17
129	129	14
28	28	13
84	84	3
123	123	8
109	109	6
124	124	8
47	114	2
44	44	11
17	17	7
66	68	2
99	99	14
64	64	10
85	86	1
64	85	1
122	122	12
50	50	4
22	22	4
130	130	2
94	94	7
85	85	3
42	42	6
39	39	5
119	119	15
86	86	8
7	124	3
61	67	3
51	51	4
8	10	4
78	79	3
14	14	4
90	90	5
19	112	3
96	106	1
112	118	2
103	103	3
124	126	3
99	100	4
72	72	3
110	110	7
48	54	2
11	11	7
97	97	8
45	45	4
61	61	3
22	69	1
65	107	1
82	82	3
25	25	15
127	127	8
66	66	13
43	43	7
15	39	3
74	74	3
73	73	7
27	27	11
25	58	1
102	102	6
128	128	4
12	125	3
58	58	4
95	96	4
30	30	10
21	21	7
6	129	2
72	73	2
84	85	3
120	120	8
112	112	6
89	89	2
117	125	2
96	96	5
0	0	4
115	115	14
21	99	3
121	122	3
4	6	2
68	68	9
26	70	5
7	8	3
8	9	1
6	6	8
100	104	4
17	18	1
40	40	8
88	89	6
6	27	2
75	76	8
78	101	1
75	75	8
6	117	1
16	40	4
77	78	9
42	43	2
63	63	4
72	75	2
80	126	2
79	80	5
126	127	2
15	16	2
129	130	5
15	116	2
76	82	1
19	83	3
25	26	4
14	15	4
62	62	4
101	102	8
5	5	4
95	95	7
48	49	1
24	68	1
124	125	2
2	2	2
78	81	3
60	60	7
80	82	3
8	8	3
41	41	5
52	52	3
7	9	3
41	45	1
71	73	2
10	10	2
77	98	2
107	107	3
24	24	5
107	126	3
80	80	2
17	98	3
20	20	8
93	93	3
47	47	5
65	74	2
110	111	2
37	38	3
19	19	2
26	27	1
63	84	1
31	31	3
26	26	3
18	18	1
92	92	6
122	124	4
29	30	2
84	86	1
65	65	4
117	118	3
38	38	2
19	130	2
33	33	3
98	98	3
101	114	1
131	131	3
48	48	4
5	6	4
67	99	4
71	71	2
9	9	1
23	24	2
46	114	3
116	116	2
50	51	2
13	14	2
125	126	2
105	109	1
97	98	3
118	128	2
23	23	1
98	108	3
68	107	4
92	93	2
53	53	1
67	67	2
105	131	1
60	63	3
101	101	2
22	99	1
20	116	2
29	29	5
3	3	1
23	74	1
104	116	1
69	69	2
100	100	1
77	115	2
126	126	2
54	54	2
93	94	2
58	87	1
101	103	3
115	116	1
104	115	2
4	4	1
6	116	1
63	67	1
2	5	1
118	119	1
100	101	1
12	12	3
59	60	1
59	71	1
39	48	1
78	102	2
21	23	1
17	19	2
56	56	2
16	16	2
13	13	1
49	49	1
30	31	1
18	19	1
91	91	2
51	70	1
76	78	2
90	91	2
114	114	1
97	99	1
60	61	1
120	132	1
108	108	1
40	43	1
78	116	1
70	125	1
83	104	2
106	106	1
