95	96	7
84	84	5
72	72	20
57	57	12
37	39	1
44	58	1
47	58	2
87	87	15
38	59	2
66	66	22
68	68	12
46	46	6
25	27	3
41	41	13
81	81	21
64	64	25
46	80	4
76	76	17
60	60	5
91	91	13
93	93	15
76	78	2
49	50	14
50	50	7
70	70	14
100	100	21
78	79	8
20	22	2
46	47	7
61	62	14
71	71	16
38	38	10
36	57	2
31	31	8
53	53	6
55	55	23
102	102	2
75	76	2
73	78	5
65	68	6
80	80	14
75	75	7
27	27	5
47	48	4
52	52	10
66	69	4
99	100	5
92	93	8
96	96	14
98	99	7
88	88	7
85	86	6
101	101	18
59	59	21
89	90	2
85	85	10
45	45	16
86	86	8
87	88	10
94	95	1
79	80	13
65	66	6
73	73	13
36	38	7
36	46	5
73	74	5
58	59	4
63	63	9
81	100	2
61	61	16
36	37	4
51	51	11
67	67	11
54	54	9
76	77	6
84	89	3
43	64	1
58	58	14
43	43	13
74	75	11
48	48	6
92	92	19
50	51	1
26	27	8
79	83	2
57	58	1
55	57	1
48	49	4
90	90	25
95	95	13
74	74	8
44	56	4
83	83	5
93	101	4
69	69	12
37	38	3
53	56	3
91	101	1
77	77	13
97	97	13
99	99	12
79	91	1
47	47	7
98	98	11
53	55	1
79	79	6
78	78	1
49	49	9
52	53	4
42	43	6
86	87	2
40	40	15
83	95	1
60	62	4
96	98	2
54	61	3
94	94	9
65	69	5
83	97	1
62	62	12
63	64	1
26	26	1
96	97	4
28	28	1
54	55	5
86	100	3
77	87	2
53	54	3
89	89	6
35	60	1
45	47	4
54	57	2
26	28	1
67	72	3
24	24	1
44	57	2
25	28	3
42	55	4
86	88	6
69	70	4
65	65	3
90	101	2
81	91	1
45	48	1
44	59	4
55	56	8
42	42	9
35	35	7
57	99	2
66	71	4
83	100	2
90	91	3
63	70	2
41	54	2
51	52	1
44	44	6
91	92	2
74	76	1
56	56	4
23	23	1
93	94	2
70	73	3
92	95	2
40	41	1
82	82	1
100	101	1
66	67	2
81	82	5
56	57	3
93	98	2
71	78	1
94	98	1
70	76	1
52	79	1
39	40	1
88	89	1
34	35	1
39	45	3
25	25	5
93	95	1
22	23	1
25	26	1
66	68	1
49	58	3
56	93	1
101	102	3
81	83	3
71	72	5
35	36	1
38	39	1
85	88	2
41	43	3
49	89	1
86	94	1
27	28	2
37	37	4
92	96	1
94	96	2
36	36	4
39	39	5
77	78	2
47	51	1
49	51	1
34	34	2
38	61	2
21	22	3
32	34	1
31	32	2
29	29	3
97	98	1
51	79	2
31	35	1
44	45	1
79	81	1
35	37	1
47	60	2
78	83	3
80	84	2
45	46	2
71	77	2
90	99	1
33	33	11
81	99	2
65	67	1
83	98	1
82	92	2
83	88	1
41	42	1
87	89	1
95	97	1
85	87	1
49	60	1
32	32	1
89	95	1
30	30	1
73	85	1
83	96	2
64	77	1
46	48	1
