152	152	13
0	1	5
40	40	13
131	133	2
22	71	3
155	155	26
162	162	5
184	184	6
70	70	12
30	34	5
157	157	17
120	122	5
26	26	21
99	99	10
91	92	4
54	72	5
139	141	15
86	86	13
42	83	5
81	81	18
124	124	8
16	16	13
107	108	5
2	2	9
36	36	19
109	109	12
69	70	2
127	127	17
10	24	3
104	104	10
138	138	21
12	33	2
33	33	5
14	14	15
179	181	1
44	45	5
120	120	8
90	90	22
5	6	9
41	41	21
123	124	4
157	158	12
28	28	19
48	48	12
174	174	8
128	128	6
163	165	4
81	82	4
84	84	21
148	148	25
175	175	2
89	90	7
188	188	4
89	89	11
64	64	17
143	144	6
169	169	12
4	7	5
121	125	4
141	142	6
110	110	15
168	169	5
99	106	3
39	39	16
126	127	9
101	106	9
66	68	9
73	73	10
21	21	12
53	53	19
128	129	8
133	133	34
136	136	4
97	130	1
29	48	2
164	164	13
130	146	5
107	107	6
123	123	13
10	10	17
16	42	2
155	156	7
108	131	2
38	39	10
15	28	7
164	165	10
6	7	13
29	29	18
20	20	17
65	67	5
15	37	4
103	103	22
27	27	13
99	103	2
3	3	7
103	104	5
160	190	2
165	165	14
53	54	2
44	44	8
4	26	1
67	67	17
79	79	22
88	88	11
99	109	2
47	47	13
35	35	18
112	112	17
28	29	11
6	6	8
100	100	7
136	137	11
27	29	6
88	89	5
9	9	7
160	164	4
94	95	7
156	157	4
101	107	1
144	144	18
115	116	12
27	35	7
131	132	3
167	168	6
42	44	2
74	74	14
60	60	9
46	46	12
166	166	12
11	17	2
140	140	15
156	161	2
46	47	3
85	85	16
94	94	11
139	139	13
113	113	10
31	34	1
79	90	1
129	130	5
79	81	1
13	37	4
0	171	4
145	145	14
80	80	8
91	123	1
75	88	2
13	15	1
94	98	2
18	19	1
20	21	4
31	44	1
152	165	5
106	106	19
164	166	2
83	83	16
133	134	9
146	146	17
59	60	2
72	72	11
102	129	5
186	186	13
145	147	1
111	111	13
114	114	22
58	58	10
99	100	5
11	11	17
150	151	13
30	47	8
126	133	6
100	108	4
15	41	6
64	65	6
96	97	9
97	98	9
95	95	20
73	74	2
84	87	4
79	83	4
75	76	4
23	26	5
187	188	5
138	139	9
189	190	5
102	102	10
91	91	14
132	133	11
78	79	13
153	154	1
121	121	7
147	147	9
92	92	9
18	79	6
18	81	5
59	59	8
171	172	3
29	81	1
26	73	1
131	131	14
142	150	7
190	190	5
175	176	2
139	140	8
23	71	4
22	92	2
152	153	10
8	8	13
9	11	2
75	79	3
135	135	8
24	35	1
154	154	10
102	106	5
130	131	8
66	66	8
111	113	1
44	82	5
145	146	5
68	68	9
15	16	5
75	87	1
150	150	13
129	129	21
114	115	5
117	117	9
106	108	1
153	153	11
35	36	1
118	118	17
24	72	3
76	81	8
154	162	3
70	86	1
56	56	14
64	71	1
13	13	6
53	55	2
37	37	14
100	107	1
146	147	7
116	116	7
5	8	3
114	155	2
94	135	4
30	30	14
22	95	2
31	31	18
36	44	2
53	64	2
149	149	7
186	188	2
110	135	1
4	6	12
29	30	4
92	93	7
3	7	5
137	138	3
100	101	9
102	103	9
5	117	3
1	2	8
106	107	6
138	163	7
5	118	2
12	14	5
36	45	2
110	121	7
32	32	16
38	38	9
158	161	4
66	67	10
141	143	8
33	45	3
97	160	3
18	18	13
139	164	1
63	63	9
152	161	4
182	186	2
20	24	1
41	42	7
17	18	14
78	78	9
77	94	1
82	82	8
96	96	12
119	120	2
17	43	3
108	108	13
126	126	9
121	126	2
7	8	10
4	4	8
5	5	12
130	130	7
25	25	8
65	66	4
125	127	5
76	85	6
162	165	4
150	165	3
2	3	11
84	104	4
127	131	1
141	141	9
24	25	8
80	82	2
61	61	5
68	69	3
23	23	11
29	47	7
138	144	9
141	144	2
129	131	1
10	22	2
72	73	3
12	12	9
17	17	12
105	107	4
99	104	1
36	37	4
26	27	1
76	82	4
109	110	6
65	65	5
78	82	2
96	109	1
160	163	1
77	77	23
124	125	2
1	1	3
105	105	7
7	7	17
79	80	13
166	174	3
181	181	3
4	5	4
134	137	3
98	98	12
182	182	3
9	10	8
122	122	15
121	122	4
77	89	1
45	161	3
55	55	9
142	143	5
3	4	1
78	94	5
25	27	1
80	81	5
74	75	8
132	137	2
143	143	22
154	164	5
57	57	9
128	134	1
136	139	2
168	168	2
178	179	2
177	177	12
20	22	5
39	40	8
65	68	11
137	137	10
61	63	6
74	83	4
53	60	1
148	149	3
89	96	2
115	118	1
91	95	3
75	75	3
108	110	5
34	34	4
176	176	2
58	65	3
22	72	4
156	156	6
80	83	1
24	24	8
91	94	4
31	47	2
43	43	2
32	33	3
125	135	3
54	54	3
90	125	5
69	69	3
183	183	5
19	94	1
93	94	10
125	125	10
99	144	2
161	188	5
89	124	3
99	129	2
96	98	8
27	28	4
124	127	1
71	72	6
14	28	2
44	80	1
33	34	3
179	180	1
132	132	3
151	164	12
91	112	4
101	102	5
25	26	3
132	134	1
158	158	7
179	179	10
135	157	1
153	156	2
181	182	2
115	121	5
97	97	7
126	128	3
171	174	5
101	101	7
166	168	2
90	96	1
180	180	9
87	88	3
83	84	4
153	157	4
87	87	4
110	126	2
92	94	7
74	84	3
35	46	2
14	16	2
150	163	3
115	115	5
154	155	3
22	23	7
153	155	1
21	22	6
58	59	2
120	139	2
98	99	4
46	63	4
174	175	5
185	186	2
126	132	4
42	42	6
27	46	1
127	129	2
22	22	7
115	119	6
18	20	6
40	41	6
116	117	4
156	162	2
8	11	1
110	112	3
56	57	2
47	63	2
158	163	1
52	52	1
159	164	3
127	128	8
105	106	3
25	28	3
187	187	6
5	75	1
61	62	3
172	174	1
27	31	2
12	42	1
151	152	2
63	64	5
161	161	2
10	42	3
157	159	2
152	166	2
90	95	9
71	71	7
23	24	6
55	56	2
47	48	2
160	160	4
67	69	5
163	163	12
60	63	6
138	146	2
101	129	1
11	14	1
12	21	2
128	144	2
16	17	3
33	128	1
149	150	1
30	81	1
11	82	2
28	47	2
1	8	1
134	135	2
62	62	15
32	34	2
100	103	4
145	149	4
0	0	10
158	160	4
52	53	2
56	72	1
159	159	7
91	99	3
129	133	4
34	37	2
77	78	2
177	178	2
116	135	2
142	142	9
75	83	3
0	173	5
178	178	7
170	170	4
125	133	3
41	44	1
131	136	3
134	134	6
114	156	2
10	27	2
103	140	2
59	64	3
125	126	4
75	82	3
110	111	3
72	85	2
113	120	1
163	164	3
26	45	3
133	135	2
172	173	2
27	30	1
136	142	1
160	166	2
31	32	2
164	186	1
45	45	3
46	60	1
76	77	2
15	15	6
154	159	1
98	112	2
182	183	1
111	120	1
55	58	4
119	119	6
104	106	2
109	135	3
183	184	4
53	63	1
129	145	2
8	76	1
24	71	1
188	189	1
4	11	2
11	16	5
61	67	4
12	18	1
10	15	1
65	70	2
146	149	2
172	172	1
154	157	2
130	132	2
20	82	2
141	151	2
93	93	7
35	45	1
10	12	3
153	160	1
18	80	4
142	144	2
76	76	7
43	82	2
19	20	5
77	169	1
160	161	3
185	188	4
140	141	9
93	112	2
104	105	2
116	119	1
184	185	1
184	186	3
167	167	3
74	76	1
5	7	3
1	7	2
8	73	1
45	46	2
99	133	1
9	18	1
14	23	3
62	63	3
135	137	2
33	42	2
23	72	1
5	73	2
159	160	3
12	13	1
16	37	2
136	138	1
67	68	5
24	27	3
122	123	1
176	183	1
37	38	1
10	72	3
22	124	2
14	24	1
46	80	2
101	104	1
185	185	2
118	119	2
170	171	2
173	174	1
52	64	1
117	119	2
166	184	1
32	43	2
144	146	1
109	120	3
116	136	1
171	171	4
27	32	1
110	137	4
111	134	1
16	83	2
124	156	1
153	163	2
22	118	1
31	35	1
187	189	4
43	44	1
35	37	2
151	151	2
166	167	1
76	88	1
63	65	2
12	20	1
11	27	3
5	76	1
0	172	1
152	164	1
153	164	1
163	190	2
101	105	4
13	14	4
21	116	1
158	162	1
3	8	2
173	173	4
54	55	2
148	151	1
14	15	2
10	13	1
32	42	2
112	113	1
99	101	1
45	78	1
150	164	2
61	65	1
5	17	3
32	45	1
161	165	1
178	180	2
19	24	1
65	72	2
121	123	2
65	73	2
101	103	1
68	70	1
48	173	2
165	166	3
175	188	1
103	106	1
29	43	2
60	62	2
24	94	1
47	79	2
90	91	1
46	59	1
34	42	1
134	136	2
30	63	1
113	114	3
41	78	1
59	63	1
18	22	1
17	27	2
86	87	1
44	46	1
15	27	1
108	109	2
144	148	1
140	150	1
84	85	4
30	31	2
152	156	1
48	61	1
20	23	1
19	19	1
27	72	1
82	83	1
36	46	1
127	142	1
3	80	1
95	98	1
122	131	1
20	94	2
90	92	2
124	132	1
10	14	1
128	130	1
14	33	1
44	81	1
32	41	1
130	133	1
19	72	1
12	22	1
55	72	2
74	87	1
128	143	1
17	79	1
122	124	1
14	42	1
17	24	1
161	187	1
109	111	2
123	126	1
46	81	1
31	39	1
160	165	1
135	136	1
168	172	1
16	27	1
151	153	1
