90	90	28
80	80	7
24	26	2
70	71	3
93	93	16
47	47	24
126	126	10
66	67	8
20	30	1
9	66	5
115	115	8
87	87	17
74	74	19
45	59	1
63	63	9
19	19	10
20	20	17
98	98	13
77	77	12
130	133	4
11	11	21
60	60	21
36	60	2
48	48	9
13	13	9
61	75	2
96	96	12
30	129	4
31	83	6
15	15	16
17	17	13
25	25	14
78	119	1
127	131	2
89	89	3
35	127	1
111	111	10
4	88	5
85	85	18
70	108	3
16	34	1
86	91	3
130	131	3
27	27	22
45	45	8
39	39	3
21	21	14
27	49	5
15	18	5
8	24	2
19	20	4
8	14	3
65	65	19
12	12	22
114	118	2
93	95	2
36	36	17
100	102	4
38	42	4
8	8	15
132	132	11
9	10	10
34	34	16
70	70	10
4	49	3
124	124	4
8	47	3
95	98	4
91	91	11
27	98	7
76	76	16
46	90	1
64	68	3
69	69	4
71	81	1
118	118	7
38	41	5
6	13	3
25	83	1
120	131	2
44	44	5
59	59	9
3	31	2
88	89	5
121	121	9
72	73	4
20	21	2
71	72	2
90	91	6
23	23	14
61	68	1
113	113	4
128	133	9
51	56	4
29	47	2
79	112	6
61	61	17
111	118	3
72	74	1
41	42	7
106	106	4
6	7	13
24	25	8
87	88	13
23	39	5
84	84	12
99	99	8
55	55	3
37	37	9
103	105	8
31	31	6
30	33	2
24	24	6
68	68	14
32	32	4
20	37	2
28	77	3
94	95	3
50	50	3
5	87	2
57	57	13
78	78	9
10	11	6
44	89	2
4	11	2
27	76	1
70	77	4
0	35	1
66	66	8
11	94	5
1	2	2
30	31	2
12	13	3
57	132	1
2	30	2
18	18	8
99	100	9
71	71	5
59	78	10
54	115	1
85	86	4
112	112	9
75	75	3
67	67	16
2	2	7
9	9	12
68	72	4
46	116	4
27	29	5
123	124	4
62	62	19
4	25	3
92	92	17
33	33	8
1	35	5
48	93	5
104	105	6
4	4	8
29	32	1
33	45	7
8	116	3
86	93	3
63	75	4
7	7	3
59	70	4
112	125	3
1	29	2
97	97	14
46	89	1
19	34	2
117	117	6
17	18	3
10	84	4
8	10	1
62	129	3
29	34	4
72	72	13
4	13	1
48	57	6
78	121	2
29	122	2
105	105	6
96	97	5
29	29	18
36	39	2
25	47	2
83	83	9
35	36	11
123	129	3
4	5	4
108	108	3
69	71	3
31	32	8
42	42	8
2	27	6
6	11	1
87	91	3
18	42	4
31	60	1
28	28	4
120	120	6
108	109	3
113	114	2
3	3	10
55	116	2
61	83	2
118	123	1
56	56	10
57	60	1
7	91	1
95	95	12
47	48	2
2	3	3
0	0	5
119	120	1
23	36	3
21	85	4
41	73	1
30	60	1
26	47	1
119	119	5
81	81	5
16	73	2
26	26	11
134	134	2
114	115	9
86	86	9
35	74	3
79	80	10
7	14	2
10	30	2
29	49	2
129	129	5
37	39	8
39	118	4
84	86	2
101	101	17
5	5	8
122	125	2
122	122	3
103	103	4
116	116	4
64	64	12
18	31	3
118	131	2
22	22	4
88	88	3
100	101	4
79	111	1
36	62	1
76	77	9
127	130	2
16	16	6
131	132	2
24	108	1
107	107	4
30	30	12
20	34	4
16	17	5
10	10	5
7	35	4
21	84	4
13	27	2
51	55	2
29	30	7
11	81	2
25	28	2
64	69	3
79	79	6
38	39	4
45	89	3
82	82	8
57	134	1
3	13	1
100	100	9
13	14	10
26	27	5
31	73	1
29	33	2
23	24	2
111	129	1
125	126	1
34	35	2
43	110	4
117	120	4
49	49	5
8	28	2
63	64	2
101	102	6
25	26	2
45	46	3
23	37	7
99	104	2
31	81	1
43	125	2
81	82	8
15	17	2
28	82	4
18	64	1
8	9	8
28	29	4
20	84	2
73	74	5
83	86	4
38	38	13
83	85	2
12	62	1
8	125	1
133	133	3
26	30	1
57	58	3
28	58	4
102	102	7
68	69	2
57	75	1
70	75	2
33	35	2
6	29	2
42	43	7
98	101	2
3	99	1
58	58	7
78	106	2
7	10	1
6	25	4
95	102	1
99	105	2
27	83	2
114	114	7
21	22	1
112	118	6
79	115	6
94	100	2
17	70	3
15	46	1
5	88	1
63	69	1
11	93	4
12	31	1
33	62	4
43	43	3
126	127	7
20	83	1
93	99	3
26	92	4
131	131	5
17	60	3
61	113	1
21	39	2
94	94	15
62	109	2
0	27	3
35	35	11
73	73	6
36	73	1
17	42	2
111	112	4
125	127	1
109	130	2
4	48	1
78	79	2
84	124	1
58	70	1
5	6	1
123	123	1
104	104	2
46	46	9
93	94	6
60	63	1
123	125	2
6	6	8
10	12	1
11	44	3
115	133	3
84	85	2
31	33	2
117	129	1
128	128	3
93	96	2
120	122	2
107	134	5
113	129	1
40	40	3
70	81	2
44	45	3
45	90	2
40	42	7
91	134	1
21	37	4
15	119	2
12	58	1
25	60	3
64	71	3
60	75	2
56	115	1
44	57	6
121	122	1
8	128	1
5	7	2
27	34	6
67	71	1
82	102	1
36	56	2
38	111	1
100	118	2
14	32	2
29	62	1
32	33	3
130	130	3
110	110	6
71	102	2
18	95	2
4	10	2
24	83	3
93	106	5
14	14	6
40	43	2
3	9	1
6	12	1
25	82	1
86	87	2
14	31	1
60	80	1
8	25	2
60	129	2
75	76	6
15	44	1
36	118	1
46	47	4
56	114	1
47	96	4
113	118	1
6	15	1
99	101	3
63	129	1
95	96	2
87	90	1
47	94	1
25	27	1
127	127	1
2	29	1
33	46	2
26	31	2
32	39	2
102	103	1
49	122	1
108	130	3
37	62	1
57	59	2
39	40	3
78	115	1
109	128	2
97	98	1
0	1	1
109	109	1
16	18	1
20	27	2
8	33	2
46	92	2
14	39	1
45	55	2
44	119	2
33	44	2
107	108	1
23	26	1
8	46	2
92	134	3
4	87	1
27	81	1
90	100	1
16	19	1
21	63	1
126	130	1
47	67	1
116	127	2
28	93	1
6	26	1
79	116	3
92	95	1
102	105	1
5	25	2
74	75	1
17	74	1
13	37	2
3	93	1
20	23	1
35	70	1
106	107	1
31	84	1
128	132	1
48	113	1
84	93	1
5	20	1
55	115	1
35	37	1
21	36	1
4	14	1
43	71	1
45	47	1
31	40	1
127	128	1
7	90	1
