36	36	19
50	51	10
54	55	3
5	5	17
48	48	20
35	59	4
49	49	20
78	78	24
74	74	21
16	16	11
18	18	3
69	69	7
64	64	26
51	52	5
58	59	5
52	52	9
62	62	14
8	8	16
30	31	8
15	67	3
0	3	3
76	76	25
79	79	15
39	39	26
63	63	29
28	28	10
29	30	11
4	4	17
10	32	2
7	7	24
53	57	2
38	48	3
40	40	24
0	0	26
42	43	6
60	60	10
29	29	24
37	37	17
9	9	12
30	30	6
58	58	13
31	31	13
72	72	21
80	80	28
55	55	22
1	1	13
12	12	12
42	42	29
38	65	3
65	65	13
25	26	2
31	50	1
38	38	19
56	57	12
17	17	16
61	61	7
69	70	6
39	41	2
49	50	4
55	56	6
70	70	24
46	46	9
14	14	16
33	33	28
20	21	5
19	19	8
40	41	4
54	54	31
15	16	4
77	77	12
64	67	5
13	14	6
12	21	2
27	28	3
61	62	4
60	61	8
11	11	16
2	2	12
72	73	5
49	72	4
3	4	6
10	10	16
80	81	4
56	56	24
6	6	17
53	53	13
74	75	2
63	65	2
4	79	3
47	47	24
67	67	16
31	32	8
11	69	1
7	8	6
26	26	29
20	20	8
13	13	9
45	45	8
48	49	5
15	15	5
8	19	4
57	57	15
66	66	30
35	35	12
8	16	3
27	27	16
5	6	6
17	26	1
10	14	3
12	17	2
32	32	7
66	67	3
39	40	5
50	52	2
71	71	8
53	54	3
13	15	3
34	34	3
1	4	3
41	41	31
75	75	13
42	79	2
34	70	3
73	73	16
12	18	1
26	31	1
45	47	5
45	72	2
21	21	4
47	68	1
42	55	3
32	33	2
14	31	4
8	26	1
37	38	1
11	52	3
67	69	3
47	48	6
57	67	2
34	61	1
25	53	4
17	19	4
28	29	1
9	10	5
64	66	7
68	68	13
4	5	5
3	3	11
70	71	7
11	12	3
67	68	6
75	76	1
6	7	7
41	42	3
6	28	1
52	53	3
18	19	3
51	51	7
45	74	2
16	25	5
16	66	5
59	62	1
59	59	12
15	77	1
71	72	4
7	18	2
12	31	2
9	62	1
43	65	1
12	32	1
50	50	5
14	15	2
1	7	1
46	78	2
3	18	2
9	16	3
33	50	2
17	18	2
48	78	3
15	18	2
39	65	3
33	73	3
59	78	1
73	74	3
64	65	10
43	43	2
9	60	1
11	13	2
59	71	3
32	50	1
66	68	2
6	31	1
57	58	4
49	51	2
35	72	2
33	49	1
76	77	3
56	70	2
10	11	2
74	76	1
36	37	1
43	55	2
5	27	2
49	53	2
26	27	1
25	28	2
51	73	4
53	55	2
38	39	2
46	47	2
25	25	3
44	45	1
2	73	1
13	53	1
68	69	3
29	43	2
49	58	3
65	66	1
2	3	3
58	60	1
22	22	2
8	11	1
62	72	1
40	48	1
20	34	1
1	2	2
15	17	1
34	46	3
54	56	1
25	51	1
68	71	2
77	78	4
4	20	1
28	49	1
79	80	2
6	43	1
56	61	1
34	35	1
19	26	1
30	56	2
16	62	1
47	72	2
36	55	1
7	19	3
45	46	2
38	46	1
19	20	1
7	27	2
75	78	2
16	78	1
16	61	1
73	78	2
31	51	1
10	72	2
61	78	1
30	59	1
59	60	2
76	78	1
35	42	1
8	46	1
49	54	1
27	49	1
11	53	1
37	39	1
47	60	1
10	71	1
25	27	1
21	33	1
16	17	1
59	61	1
20	69	1
8	56	1
