88	88	11
246	247	1
203	205	5
34	58	3
28	29	8
204	205	3
218	218	8
102	103	2
87	116	2
7	7	17
79	80	12
21	23	7
30	30	17
212	213	6
107	107	24
108	108	5
161	161	10
27	27	16
24	24	19
176	183	3
170	181	1
53	54	6
111	118	6
82	82	4
173	193	9
168	211	3
84	95	2
10	10	17
171	171	7
21	21	3
85	118	10
188	189	16
168	197	2
239	239	9
104	104	2
149	149	10
70	70	2
209	209	16
42	42	20
16	52	3
120	237	2
119	119	11
182	182	13
210	241	2
151	161	9
236	237	5
197	217	2
187	240	1
181	181	10
156	156	21
96	244	1
158	158	7
17	17	13
153	153	6
230	235	5
173	207	4
45	45	15
119	239	2
51	51	15
12	52	6
14	14	7
191	191	6
80	80	13
18	19	1
177	177	29
219	219	14
208	210	3
4	4	10
17	20	2
38	53	4
242	243	7
196	196	8
93	93	6
46	46	15
241	241	15
78	78	10
212	212	21
8	9	1
205	205	27
175	242	4
53	53	17
118	118	8
69	70	4
197	199	7
109	109	10
4	73	1
15	15	9
169	169	14
19	20	3
231	232	1
110	110	11
244	244	13
18	37	6
71	71	10
215	215	9
196	211	3
44	44	17
221	222	7
172	172	8
197	198	7
169	175	5
230	230	13
55	55	25
9	10	6
230	231	6
0	1	6
168	243	6
182	204	1
89	91	3
157	178	1
198	200	3
188	188	10
210	220	3
170	170	14
12	93	4
178	245	1
156	207	3
182	186	3
202	202	10
242	242	8
206	206	5
11	11	9
103	106	10
233	234	8
166	192	4
176	177	10
186	192	6
54	55	4
157	176	3
146	147	8
90	211	1
104	112	4
111	112	2
10	11	1
96	96	8
165	175	1
195	208	3
193	193	4
86	117	3
160	210	4
52	52	8
97	104	3
171	174	3
117	118	5
224	225	5
243	244	5
151	151	11
159	165	2
184	188	4
26	26	15
162	175	3
182	183	7
187	188	5
203	204	2
223	226	5
201	211	3
35	46	2
169	170	2
9	110	2
223	224	3
159	159	11
172	173	18
92	92	17
180	180	6
52	65	2
3	3	9
9	9	13
167	167	18
177	241	2
217	217	18
214	214	13
168	169	5
205	224	3
19	35	4
221	221	16
177	180	1
152	152	9
156	173	4
100	100	5
180	182	6
76	77	3
81	104	3
31	31	9
98	98	13
38	38	15
238	242	2
43	43	9
90	98	4
178	178	18
151	206	4
17	18	5
189	190	1
2	3	4
37	39	6
158	165	2
155	155	29
23	23	11
165	166	2
84	84	6
22	22	15
198	198	7
40	40	9
245	245	11
68	70	4
157	164	2
102	239	2
1	1	7
4	115	1
218	219	9
246	246	10
159	182	4
99	99	7
154	154	12
187	192	2
2	2	5
216	216	14
236	236	3
65	65	8
87	87	7
198	239	1
102	102	9
197	197	7
176	181	5
14	79	2
33	33	13
195	195	4
208	208	6
234	236	7
90	91	5
182	185	1
181	182	20
168	173	2
109	244	2
229	230	3
66	66	10
85	85	15
5	74	4
165	170	1
147	200	5
223	223	6
193	212	3
204	204	11
213	213	8
104	113	2
39	39	13
18	18	9
105	106	10
20	20	5
113	113	13
168	168	19
50	50	3
190	194	1
78	93	7
227	227	11
115	115	7
17	91	5
161	164	2
22	40	6
30	154	1
82	91	3
49	50	2
162	162	8
99	117	12
199	199	27
37	37	12
73	74	1
83	96	3
11	12	1
68	72	4
77	246	2
186	186	11
158	160	3
183	183	9
87	108	5
153	204	4
31	45	2
48	48	6
29	43	2
228	228	5
110	119	1
184	185	3
175	183	3
159	179	1
68	68	7
234	234	8
145	145	7
117	117	11
190	190	9
211	211	4
207	207	12
30	145	3
59	59	4
243	245	1
56	56	7
193	194	8
145	180	3
57	70	5
106	107	6
237	237	16
104	105	3
229	229	5
54	54	12
187	187	6
235	236	2
96	107	2
196	197	1
6	6	6
81	107	1
85	111	3
5	82	4
235	235	3
195	196	5
47	47	7
69	69	10
194	213	3
52	113	5
214	249	3
200	200	5
15	16	3
86	86	2
38	39	6
2	16	1
206	207	2
112	112	8
215	216	4
183	206	3
88	89	6
75	75	6
171	173	4
192	192	11
179	179	7
175	210	1
120	169	5
64	64	6
245	246	8
167	192	1
12	15	1
62	62	6
114	115	8
112	118	3
169	188	2
107	112	4
164	164	6
152	205	1
97	98	8
52	53	1
175	176	3
94	94	5
157	211	2
101	101	5
152	181	6
8	8	16
34	34	6
153	154	4
95	95	14
171	172	2
47	111	5
178	198	2
24	25	5
208	213	2
105	105	7
116	116	11
201	235	3
14	54	3
17	92	2
162	221	2
160	160	8
175	175	15
154	156	5
57	57	16
231	231	11
72	74	4
66	71	3
88	109	3
193	195	7
220	220	4
61	63	4
155	156	5
85	91	3
228	229	7
209	222	2
83	83	3
175	219	4
243	243	4
242	248	3
179	184	3
247	247	4
111	111	7
39	52	3
192	248	4
90	90	5
82	106	3
173	174	3
87	88	4
63	63	2
185	194	2
17	93	2
45	46	4
84	85	8
94	101	2
157	163	3
182	201	2
60	62	3
55	56	7
150	150	14
73	73	4
200	203	1
73	89	1
61	61	2
157	165	2
77	77	13
210	210	10
167	168	6
4	96	2
157	160	4
100	108	3
61	62	4
49	61	2
213	218	2
36	39	2
87	91	2
107	113	4
60	67	5
196	239	7
30	180	1
101	116	3
106	106	1
243	246	3
184	205	1
161	195	3
238	240	2
156	160	4
146	200	4
199	200	3
99	113	1
163	163	5
3	35	2
232	232	4
57	71	2
76	76	2
15	48	3
231	238	3
188	214	5
25	26	3
149	151	3
99	102	1
147	147	6
225	225	1
185	204	2
15	87	1
103	175	3
59	62	2
25	54	6
12	53	1
192	195	4
95	101	2
5	35	1
244	245	2
96	104	3
56	70	2
210	211	1
33	57	2
77	78	1
49	62	2
97	97	4
219	231	2
72	72	7
114	114	9
201	201	18
242	244	2
82	85	2
96	118	4
233	236	4
41	41	5
115	117	5
86	90	2
167	232	2
51	52	3
26	37	1
17	58	1
226	226	5
185	185	12
200	226	1
11	113	3
83	111	1
68	71	4
219	220	3
176	176	9
86	87	6
17	89	2
89	90	1
240	241	8
170	176	5
88	95	3
76	83	2
110	111	4
40	102	3
162	197	3
193	208	2
199	225	2
79	105	1
190	191	5
16	16	2
74	74	8
49	49	7
114	117	3
157	199	2
116	119	2
25	25	2
115	116	2
5	5	4
36	37	3
31	43	1
171	246	1
112	114	6
150	151	4
29	30	7
82	83	3
87	115	1
158	205	1
56	57	5
165	165	7
113	114	1
180	181	5
71	72	2
55	57	1
4	58	3
2	20	4
232	233	2
181	204	3
172	175	2
32	32	5
18	20	2
68	69	2
50	80	1
174	185	3
162	209	2
36	36	11
29	29	5
59	60	1
80	85	2
186	235	1
157	157	6
116	117	6
12	14	1
1	11	1
34	37	2
153	205	3
157	246	2
203	203	3
32	33	3
2	34	4
242	247	2
191	194	2
196	199	5
17	75	3
74	76	1
171	182	2
108	112	1
207	209	2
165	177	2
220	247	1
102	109	1
197	212	4
62	115	1
214	242	1
50	63	1
209	213	3
187	189	1
157	184	2
16	18	1
95	237	3
36	43	1
6	116	2
76	78	1
166	176	1
177	181	2
4	82	2
108	111	2
14	75	2
95	144	2
18	34	3
154	160	1
44	45	1
87	110	2
95	114	2
35	35	15
158	159	5
177	242	3
120	160	2
160	209	1
14	60	1
6	58	1
192	197	2
151	180	3
70	171	4
201	210	3
105	111	3
16	17	3
193	210	3
208	209	2
6	55	2
24	67	1
167	171	3
14	15	7
184	186	3
194	197	2
170	184	1
240	240	7
188	213	1
97	114	2
165	187	1
183	184	3
184	184	2
162	208	3
9	37	3
160	207	1
209	210	1
233	233	4
189	189	1
76	79	3
202	213	1
158	204	2
152	204	2
7	8	3
194	210	1
109	110	5
160	181	1
193	196	2
151	208	4
191	192	2
51	53	4
107	108	2
156	208	1
18	66	1
194	194	1
31	32	6
69	72	1
157	159	1
187	191	2
213	214	2
227	228	2
72	73	1
151	153	2
205	229	1
27	39	2
32	53	1
208	241	1
12	12	2
161	162	1
83	84	1
201	227	1
9	38	3
160	161	1
47	54	1
75	91	1
99	106	1
82	95	1
214	215	2
19	19	3
120	120	3
207	228	2
99	100	2
165	208	7
37	38	1
112	113	3
35	45	1
64	65	4
28	39	2
118	119	1
11	95	2
95	96	1
89	89	2
20	39	2
200	202	2
198	199	1
80	81	2
207	208	3
93	94	3
13	13	2
8	12	4
71	73	5
29	31	1
249	249	1
79	84	1
186	189	1
112	120	1
170	171	1
34	35	2
10	34	3
60	64	1
149	150	1
12	13	2
97	102	1
49	119	1
211	243	2
35	89	1
240	242	1
1	2	2
153	208	1
12	20	3
180	186	1
47	49	1
34	49	1
194	195	1
173	173	2
150	207	1
47	50	1
221	226	1
68	73	1
96	108	3
110	234	1
145	155	1
41	42	1
162	164	1
101	237	1
81	84	1
6	7	4
71	80	1
203	229	2
2	11	1
161	178	1
47	119	1
188	209	2
217	218	2
30	158	1
30	66	2
99	101	1
11	98	2
86	88	2
163	247	1
62	64	1
238	238	3
175	220	1
79	87	3
3	6	2
105	113	1
108	113	1
30	31	1
145	179	2
190	196	2
200	201	2
71	91	3
58	72	1
5	119	2
58	75	1
39	40	1
4	5	1
198	229	1
98	237	3
245	248	1
62	69	1
181	183	1
97	119	2
6	170	1
104	107	1
215	217	1
27	32	1
169	172	1
146	152	1
213	226	1
58	58	1
75	76	1
191	240	1
156	159	1
27	28	2
60	60	1
120	145	1
197	203	1
97	237	1
78	82	2
52	93	2
54	117	1
95	113	2
165	233	1
161	170	2
85	110	1
3	11	1
205	206	1
54	66	3
232	234	1
4	34	2
188	190	1
203	235	1
144	145	1
149	184	2
75	244	1
28	28	1
182	207	2
162	171	3
231	245	1
48	87	1
40	43	1
166	187	1
73	86	1
174	249	1
193	219	1
183	185	1
145	247	2
211	213	1
76	108	1
48	75	1
73	80	1
81	83	1
36	42	2
159	162	2
218	246	1
185	205	1
