161	180	1
15	16	6
57	57	5
93	93	2
154	154	10
183	183	13
12	12	8
144	158	4
166	182	2
185	185	5
130	131	12
164	184	2
189	190	17
144	144	13
74	76	2
46	140	1
178	181	1
8	8	6
147	194	2
153	153	9
44	44	13
50	52	6
163	167	2
78	79	1
58	58	3
9	9	6
40	41	6
190	190	24
77	79	3
170	170	23
161	161	18
155	155	13
119	120	7
160	160	13
100	100	11
167	167	29
171	171	18
141	141	4
190	195	7
31	31	10
47	47	9
23	23	18
147	147	14
133	138	4
1	2	4
176	177	9
141	146	4
147	148	9
132	132	5
192	192	8
54	56	4
168	168	9
15	17	4
43	43	18
31	32	9
1	1	9
77	78	2
54	55	9
122	124	4
132	133	4
164	164	6
184	184	14
119	121	2
152	152	11
181	185	3
110	111	5
30	31	9
11	11	13
78	78	7
70	84	3
138	138	18
56	56	4
150	150	17
83	86	3
188	189	4
25	25	9
156	156	19
191	192	3
51	51	9
62	62	4
14	14	11
17	33	4
51	97	2
123	123	9
15	15	13
45	45	13
37	37	10
29	30	4
122	122	18
41	187	1
130	175	1
107	130	3
37	64	3
28	41	2
103	103	6
116	117	7
194	194	18
101	102	4
17	18	4
7	7	4
166	166	6
102	103	5
62	63	7
71	71	8
117	117	4
121	122	7
34	34	7
29	29	10
41	42	5
142	142	13
178	178	2
55	55	18
52	52	16
48	48	7
177	188	1
112	113	5
126	126	4
186	187	4
120	120	14
188	188	22
169	169	24
107	107	9
165	165	16
118	118	14
36	36	8
85	85	9
3	3	11
151	183	1
128	128	10
81	82	8
81	84	1
196	196	9
58	69	2
196	197	7
157	157	19
140	141	9
169	194	2
31	56	1
32	32	12
5	177	2
137	137	8
59	59	4
108	119	4
13	13	21
98	98	13
110	110	17
4	123	2
42	50	3
134	134	9
99	99	12
131	131	12
101	101	14
95	95	7
108	132	3
122	123	6
153	155	2
189	189	14
149	149	9
27	38	2
193	194	6
16	17	15
186	186	20
145	145	4
98	113	2
108	109	8
107	112	3
42	42	13
33	34	6
177	178	3
156	177	5
37	51	8
113	113	7
98	99	6
176	176	13
62	75	2
115	116	3
57	58	6
112	112	4
2	7	5
162	162	7
177	177	16
41	41	19
112	130	2
161	162	7
33	33	10
195	195	6
72	135	1
166	167	8
176	178	4
2	26	1
102	102	14
188	190	6
101	114	2
104	104	5
26	26	9
31	68	1
30	30	8
174	190	1
21	21	8
138	140	1
80	80	4
150	163	1
4	4	12
88	89	2
158	159	10
33	49	1
187	191	1
119	119	10
104	106	1
158	158	13
127	128	10
18	34	2
143	143	5
163	168	1
101	105	4
22	24	2
64	64	2
159	193	5
150	160	3
127	127	15
140	140	13
119	189	1
46	100	6
115	118	1
46	46	14
18	19	1
101	107	5
37	38	8
55	56	3
111	141	4
179	180	4
13	14	6
146	146	5
141	148	2
114	114	8
12	31	3
122	187	1
87	87	8
187	188	10
86	86	6
151	172	1
89	89	5
58	98	1
167	168	4
155	176	3
50	50	17
190	193	2
45	101	5
44	136	6
172	172	14
121	121	7
31	57	4
120	121	4
185	186	9
26	27	1
175	177	2
161	163	12
68	68	16
71	148	3
149	150	6
139	140	5
151	151	8
99	100	5
18	20	2
181	181	5
109	109	7
114	121	1
113	115	2
44	45	4
111	111	9
151	169	4
135	135	7
24	24	13
67	70	2
133	133	9
53	53	4
40	51	5
190	192	2
19	20	3
104	109	3
31	38	3
182	182	5
136	136	14
22	22	15
167	182	4
136	138	3
192	193	5
52	57	6
62	142	2
65	79	1
129	129	5
3	4	8
73	73	2
119	122	2
70	71	4
94	94	5
175	191	1
172	173	2
5	5	6
0	0	3
6	7	1
38	38	5
159	159	15
40	138	3
64	66	1
123	124	3
119	159	4
159	183	2
137	138	5
168	169	7
19	32	2
122	196	2
154	169	5
130	173	1
124	125	7
27	27	8
49	50	7
85	86	1
20	21	2
180	180	3
157	178	1
39	41	3
7	42	5
10	10	2
150	152	2
167	169	3
180	183	2
39	39	2
105	106	3
13	42	1
111	115	3
14	55	3
74	74	2
188	194	4
161	189	2
79	80	6
117	118	3
173	176	2
191	191	8
99	101	4
115	115	7
65	65	3
155	156	5
187	187	10
174	174	5
50	51	5
67	78	2
0	1	1
159	160	6
110	138	1
183	184	7
45	63	2
106	106	9
197	197	8
120	141	3
114	131	3
79	79	6
156	172	2
120	139	2
83	83	5
132	142	1
6	6	1
40	42	5
43	44	3
39	40	2
124	124	7
54	139	2
106	141	1
193	193	12
173	174	4
17	20	2
10	12	3
116	116	6
136	137	5
41	156	1
28	28	3
141	173	3
163	163	7
171	172	8
20	20	2
151	153	1
126	127	2
160	161	5
35	35	8
58	59	4
138	141	3
142	146	1
61	95	2
110	112	1
70	70	3
173	173	9
160	168	1
44	133	2
157	158	7
141	149	1
139	139	4
116	131	1
72	72	3
148	174	1
25	26	1
184	185	5
143	172	5
9	13	2
17	40	1
189	196	3
125	126	5
46	47	8
81	81	2
106	107	3
0	38	1
155	161	4
110	140	3
34	35	4
4	5	6
129	150	2
21	165	4
19	19	6
137	139	2
105	105	3
162	164	1
144	157	1
17	17	2
43	45	4
160	188	2
157	170	2
150	151	7
18	33	1
30	64	2
49	49	4
162	187	1
148	148	7
12	171	2
8	23	2
36	172	2
10	11	2
170	171	3
3	17	1
101	113	2
114	120	2
115	141	2
141	172	5
73	74	3
78	80	3
71	72	2
119	172	1
135	136	4
184	186	4
116	147	1
53	54	3
194	195	2
99	102	2
58	67	2
18	18	2
52	67	4
133	135	2
177	189	5
33	35	5
182	192	1
152	171	1
5	6	4
155	179	1
15	48	1
69	69	6
145	146	2
49	125	2
143	150	1
125	125	4
135	137	1
159	161	2
186	191	2
148	149	6
100	101	1
9	10	6
156	173	3
93	94	2
81	83	3
12	52	4
63	63	2
103	128	1
172	174	2
179	179	7
143	144	1
159	192	1
48	49	4
65	70	1
143	157	2
25	36	3
8	9	2
2	53	2
128	129	2
44	134	4
125	197	1
131	133	3
4	7	3
114	115	2
115	120	3
155	177	1
42	184	3
158	160	3
68	70	2
40	40	8
144	156	1
105	114	1
176	193	1
160	189	1
47	48	2
130	172	4
121	124	1
101	122	1
158	183	1
9	45	2
63	70	2
191	193	1
14	42	1
111	139	2
60	61	3
67	67	2
161	191	1
71	74	1
138	139	6
88	88	4
150	189	1
157	172	2
129	140	1
181	182	3
134	135	1
27	41	2
160	187	5
132	137	2
3	54	1
24	25	2
55	58	1
106	110	3
183	192	2
169	178	1
72	73	2
8	45	4
9	12	1
33	74	1
45	52	2
114	128	2
151	152	2
152	153	1
68	78	3
24	32	1
149	151	2
192	194	1
128	149	1
5	176	2
66	78	1
82	82	5
39	177	1
4	8	2
153	168	2
190	191	2
9	23	1
24	29	2
108	124	1
173	192	1
51	52	5
133	134	2
4	30	1
160	169	2
61	62	1
76	78	1
54	54	3
14	32	1
113	150	1
155	168	2
66	66	1
154	168	1
67	68	1
121	123	1
66	77	1
169	170	1
129	142	2
46	106	1
171	178	1
87	156	1
156	157	1
170	172	1
135	139	2
23	33	2
184	187	2
102	123	1
71	135	2
108	110	1
139	178	1
119	130	1
129	130	2
130	130	3
45	46	3
189	197	1
16	20	1
31	58	1
175	175	3
195	196	2
63	69	1
23	24	1
9	14	1
60	60	1
22	27	1
156	190	1
155	159	1
101	103	2
139	141	1
153	170	4
170	183	1
11	42	1
133	137	1
61	61	1
133	142	1
119	170	1
130	132	1
160	162	1
46	107	1
121	189	1
112	116	2
186	189	1
86	87	1
46	101	1
69	79	2
170	188	1
155	183	1
162	163	3
76	76	1
71	136	1
63	78	1
161	171	2
64	71	3
179	186	1
174	175	2
183	186	1
36	37	2
160	193	1
171	190	1
11	12	1
180	181	2
61	73	1
153	179	1
182	191	1
169	189	1
6	9	1
14	56	2
183	185	1
64	80	1
155	175	1
109	111	1
94	96	1
56	57	1
118	121	1
163	164	1
154	159	1
158	161	1
16	33	1
160	191	1
16	16	1
15	55	1
123	174	1
171	173	1
177	193	1
63	89	1
42	132	1
11	13	1
76	77	1
