78	79	10
20	20	10
57	57	28
56	56	28
171	171	11
17	17	30
184	184	24
100	108	2
143	153	2
114	115	6
70	70	8
121	121	32
108	108	27
121	122	9
22	30	2
2	2	29
74	74	33
44	46	5
113	113	27
8	8	28
129	171	4
147	147	31
70	71	9
89	184	3
183	189	1
58	58	14
150	156	3
31	34	2
39	56	3
89	89	40
11	11	15
33	33	16
167	167	15
105	107	2
175	176	6
24	24	43
43	43	25
13	122	6
149	170	2
75	75	29
73	73	6
181	182	6
103	139	2
152	152	21
37	46	1
110	174	3
80	80	11
135	135	17
85	95	2
106	106	22
131	132	7
90	99	2
184	185	9
150	150	17
88	88	22
1	1	18
82	84	5
126	126	18
131	131	15
105	105	21
84	85	18
154	168	5
5	5	15
96	97	9
174	176	5
75	76	4
176	176	21
169	169	52
109	109	31
174	174	29
155	155	20
108	109	1
38	38	23
136	136	13
29	29	13
186	186	22
165	165	12
67	76	3
35	36	6
43	44	16
16	16	21
57	62	8
25	25	23
142	142	10
161	164	3
109	111	1
39	39	34
162	163	3
82	82	15
13	14	6
107	107	14
154	155	9
9	9	2
63	180	8
139	139	20
99	99	11
26	26	16
77	109	1
83	83	21
24	40	7
40	74	4
188	188	16
55	56	9
183	184	9
22	22	21
30	31	6
103	103	23
93	183	2
144	170	1
154	154	30
129	129	35
172	172	5
52	52	6
114	118	4
178	178	13
175	177	4
123	123	25
85	86	3
152	153	10
39	40	6
85	92	1
164	164	10
104	105	16
44	56	4
173	183	1
48	48	19
167	168	5
90	93	11
162	162	19
77	77	37
146	146	17
0	1	6
130	130	14
166	170	4
32	33	8
76	100	5
67	67	11
186	187	3
90	185	2
96	98	23
156	156	17
157	157	8
112	124	2
53	53	11
8	103	2
61	168	2
99	100	4
9	10	7
59	68	3
127	128	9
42	42	27
190	190	13
62	76	8
110	110	21
15	15	12
26	61	1
6	6	35
144	144	13
145	146	2
84	84	29
13	37	4
119	119	5
71	71	15
79	79	23
80	81	11
174	177	2
166	166	19
153	153	12
135	136	10
182	183	8
61	61	14
139	140	3
55	55	21
64	64	8
183	183	16
112	112	22
49	127	1
188	190	2
44	45	5
98	98	12
97	97	19
141	141	9
129	133	2
111	121	5
144	146	2
137	137	7
112	127	5
72	86	1
59	64	2
166	168	2
47	55	3
61	64	3
149	149	13
163	163	18
114	114	6
127	127	20
95	122	4
102	103	4
65	67	8
158	158	6
68	68	23
27	27	11
154	186	2
46	46	9
78	78	7
179	179	8
151	152	12
6	103	5
104	104	15
60	60	13
113	114	7
128	159	2
0	0	21
98	99	6
48	56	5
130	131	1
28	31	1
86	86	12
13	13	19
47	47	15
182	182	31
68	74	7
14	15	9
61	63	6
166	167	9
165	175	3
115	115	6
11	59	4
156	172	2
40	41	12
125	125	8
72	72	8
61	62	16
145	174	1
156	157	4
187	187	22
28	46	3
133	135	5
7	7	23
3	3	14
102	102	5
170	170	15
120	124	1
148	148	19
151	151	25
128	128	9
168	168	7
103	104	4
71	72	6
60	78	3
78	81	4
45	54	3
55	57	3
31	32	5
62	62	11
87	87	12
175	175	15
27	31	2
28	29	7
133	134	3
103	108	4
19	38	4
24	55	1
120	120	21
18	21	2
137	138	6
31	40	6
187	188	3
109	110	13
62	64	5
21	25	2
161	161	14
97	98	3
97	117	2
168	169	6
173	173	10
76	76	7
117	117	18
61	65	2
70	106	2
115	136	5
107	108	9
171	172	11
10	10	9
62	63	9
94	94	18
25	38	2
175	186	4
145	151	2
85	85	8
153	185	2
23	29	5
100	144	4
1	2	6
98	100	1
40	40	13
138	139	6
59	60	6
116	117	4
156	168	2
81	81	15
126	127	10
137	139	2
52	53	11
142	143	14
122	122	18
91	92	10
22	43	3
58	78	5
70	78	2
19	78	5
56	57	19
134	135	4
92	92	8
4	4	17
13	16	7
23	24	4
119	121	1
101	102	4
77	78	2
14	14	16
56	75	6
18	26	3
180	181	3
25	26	9
99	151	3
30	32	6
45	47	12
89	123	1
180	182	2
108	113	4
92	95	2
111	111	9
146	148	6
178	179	4
29	31	2
124	124	15
153	154	4
23	23	20
178	181	7
160	162	3
90	91	2
118	118	7
31	31	17
36	38	1
19	19	8
110	141	1
89	108	4
100	101	4
96	96	10
87	88	5
24	37	5
57	61	4
157	161	3
5	19	5
163	164	5
28	28	14
44	44	7
159	189	3
69	70	2
12	12	4
160	161	6
20	77	1
32	32	6
119	120	7
169	170	5
63	63	9
41	88	5
18	18	12
138	138	11
84	102	3
83	84	7
143	176	1
92	94	2
36	36	18
63	64	3
159	160	3
3	4	2
143	143	19
186	189	4
7	46	1
80	85	2
140	140	14
27	29	4
173	179	3
142	149	3
140	153	3
20	21	4
76	86	2
123	126	2
177	178	3
26	29	4
21	33	1
132	133	4
173	174	1
93	98	4
55	62	1
12	13	1
41	42	14
112	123	1
152	154	1
145	145	24
108	156	2
53	56	2
90	92	8
15	24	1
116	118	1
140	141	9
134	187	3
150	161	2
16	18	6
149	150	6
148	149	3
91	91	13
30	30	11
16	21	1
37	37	26
143	169	3
10	90	1
54	63	5
130	132	2
93	94	10
59	63	1
116	116	16
95	123	2
115	116	1
11	12	4
7	8	12
134	134	12
93	93	11
90	108	1
150	151	6
41	41	20
40	42	1
64	65	8
87	152	3
21	21	17
54	54	14
164	165	5
189	189	10
72	73	5
26	37	1
42	44	6
156	158	3
136	137	6
74	77	1
148	153	3
185	185	15
58	59	5
21	46	3
57	58	3
66	66	12
169	186	5
71	163	1
76	97	1
130	138	1
147	149	1
22	25	6
25	37	2
59	59	3
96	107	2
60	62	3
95	95	15
34	36	3
65	68	1
149	155	3
43	59	3
105	132	2
40	48	2
95	96	4
132	166	2
33	35	7
14	37	1
81	84	4
92	93	5
59	154	2
105	106	5
137	173	3
35	35	2
82	83	2
140	143	4
101	103	2
129	173	2
133	190	2
176	183	4
80	103	5
76	108	2
29	33	1
105	109	1
106	107	5
78	80	1
48	95	2
104	120	2
123	125	2
84	126	7
160	160	5
27	46	4
90	90	17
95	99	1
66	151	1
17	30	3
64	68	1
136	174	4
116	182	1
155	168	3
169	184	3
4	6	3
46	48	6
66	67	3
58	60	10
44	47	5
185	186	3
90	96	1
31	33	1
4	20	1
54	55	3
116	177	1
99	133	3
100	100	13
18	23	6
79	80	3
95	147	3
105	155	2
142	154	2
10	12	5
165	185	3
8	9	1
65	66	12
22	23	4
58	62	1
6	7	1
15	20	4
114	182	6
183	188	1
52	54	1
103	154	3
140	175	1
20	41	2
26	34	3
146	147	2
159	159	2
174	187	3
141	142	1
125	126	3
170	174	2
60	121	2
147	148	2
114	117	2
15	151	2
126	128	2
156	167	2
136	138	7
129	141	1
158	159	1
101	139	2
60	64	1
103	109	2
101	101	9
64	71	6
114	137	2
76	77	2
73	94	2
157	189	2
87	102	2
46	121	2
45	45	9
58	61	2
32	79	1
115	117	2
76	119	3
56	80	5
23	30	2
172	173	1
4	13	3
102	105	1
28	37	4
120	123	1
125	129	1
176	187	3
164	169	2
163	165	4
177	177	10
13	58	2
168	174	3
36	37	4
137	146	4
74	165	4
116	149	1
85	134	1
179	180	6
18	37	2
172	186	1
69	182	2
22	42	4
47	77	2
37	38	7
17	18	2
63	65	2
88	89	6
188	189	9
75	114	4
109	154	3
117	118	10
140	148	3
184	186	2
48	54	3
42	43	9
130	137	1
46	67	1
10	11	4
8	45	2
43	45	2
134	137	3
8	11	3
66	84	2
12	122	3
90	110	1
174	186	1
76	138	1
123	124	4
82	85	2
77	79	3
70	182	3
30	33	5
120	147	3
33	34	6
97	123	1
138	154	2
11	122	2
41	66	3
34	35	4
18	25	1
132	132	5
134	161	2
158	163	2
107	161	3
131	133	1
52	56	3
62	67	2
171	178	1
155	156	3
71	78	4
35	37	1
114	153	2
110	112	3
21	24	1
115	133	1
4	77	2
59	70	1
133	133	1
42	56	2
150	153	2
34	34	3
4	8	1
13	15	2
117	126	3
178	182	3
1	22	1
11	19	2
25	40	1
71	161	5
39	41	3
24	25	2
76	139	4
44	49	3
86	88	1
47	48	2
165	166	2
2	3	3
60	61	2
57	73	1
87	164	2
104	109	1
27	28	2
118	120	1
115	182	3
181	181	4
170	185	4
88	170	1
185	187	1
134	139	3
27	47	2
155	167	1
124	125	4
23	37	4
24	79	1
102	113	2
29	30	3
42	77	2
187	189	2
108	134	2
71	73	3
127	130	1
116	152	2
74	150	2
66	68	3
28	30	5
91	95	3
177	183	1
8	41	2
154	156	1
42	47	4
38	132	1
106	157	2
150	155	3
48	126	1
24	31	1
95	146	2
71	86	4
56	129	1
87	129	2
38	39	2
86	87	1
104	108	2
144	149	1
183	185	4
175	187	1
38	42	3
47	56	1
144	150	2
4	5	4
81	83	1
111	113	3
180	186	1
89	151	1
80	82	2
135	137	1
40	56	1
103	106	1
52	76	1
99	142	1
94	138	1
67	68	1
94	95	2
26	43	2
161	167	1
152	170	2
67	73	2
109	112	1
110	186	1
171	174	5
73	87	1
112	113	1
95	170	1
19	42	1
177	186	1
76	136	2
141	146	1
165	168	2
26	30	1
33	83	1
26	27	2
124	128	4
174	175	1
114	134	1
41	85	1
158	161	4
141	147	1
53	64	2
2	4	2
145	150	2
12	14	1
143	175	1
65	81	2
169	171	4
86	110	2
165	167	2
37	82	1
8	16	3
161	163	1
90	183	2
25	57	1
41	83	1
68	69	1
5	6	1
148	150	3
166	169	1
86	95	2
118	119	1
19	25	1
95	140	2
69	151	1
36	44	1
130	158	2
77	82	2
41	78	1
180	180	3
100	143	2
133	143	1
150	164	1
139	153	2
27	32	1
53	55	1
154	169	1
18	22	1
140	142	1
26	32	1
44	48	1
56	62	1
22	172	2
47	122	2
7	24	1
88	169	1
111	112	1
54	66	1
143	170	3
5	8	1
11	14	2
44	80	1
62	77	1
24	36	2
95	101	2
143	151	1
78	83	1
93	96	1
135	139	3
132	138	1
161	168	2
94	130	1
77	139	1
139	170	2
88	108	2
116	148	1
128	141	1
57	59	1
142	177	1
74	76	2
101	111	1
137	171	1
149	151	4
32	41	2
106	121	1
21	22	1
150	157	1
31	37	1
8	19	1
95	119	1
62	65	1
89	93	1
56	89	1
41	151	1
79	105	1
98	119	2
45	46	1
14	92	2
19	37	2
4	104	1
162	164	2
76	78	1
120	122	1
74	75	4
121	140	1
128	129	1
154	162	1
103	130	1
115	147	1
65	65	2
18	19	4
108	137	1
100	140	1
171	173	1
106	108	2
154	170	1
116	123	1
166	190	2
109	122	1
81	82	2
17	22	1
26	38	1
32	35	1
67	165	1
95	151	1
89	90	1
46	47	1
177	179	1
97	130	1
56	59	2
88	94	1
24	47	1
97	146	1
91	96	1
62	73	1
32	37	1
38	40	1
95	100	1
85	94	1
59	61	1
25	36	1
23	41	2
86	103	1
110	187	1
16	33	1
117	120	1
40	47	1
15	76	1
94	133	1
88	152	1
6	40	1
142	144	1
84	94	2
72	161	1
130	133	1
171	181	1
139	152	1
91	185	1
98	117	1
26	36	1
95	137	1
20	28	1
49	55	1
