155	156	5
39	40	13
22	22	18
0	1	2
80	80	8
53	72	1
144	144	18
140	141	4
60	60	25
17	17	8
89	89	17
79	80	5
67	67	24
85	85	12
33	33	29
1	1	23
15	15	17
146	146	16
131	132	15
30	30	10
146	147	2
142	142	18
9	9	37
101	101	17
127	128	3
13	13	20
73	73	9
56	56	13
133	172	1
162	162	19
40	40	14
6	10	3
78	79	9
35	35	18
111	163	1
31	32	8
32	32	25
36	43	2
72	72	14
155	155	8
143	144	3
169	170	16
126	126	14
160	160	22
161	161	14
110	110	21
44	46	3
135	136	4
42	42	20
36	36	14
3	20	2
43	43	20
147	147	9
171	171	14
100	100	5
85	87	3
6	6	19
121	124	2
58	59	3
37	37	32
31	31	24
162	164	4
179	179	7
18	18	5
2	2	13
111	111	19
97	97	7
57	57	4
160	161	12
176	176	8
8	8	16
64	64	11
11	11	21
92	92	19
58	58	3
164	164	12
24	114	5
170	171	11
29	29	21
83	83	10
28	28	11
52	52	6
79	84	3
2	4	1
158	159	10
112	112	19
144	145	7
126	147	2
145	145	24
65	65	15
34	35	6
85	86	8
115	116	5
93	93	14
137	137	29
116	116	8
19	25	4
153	153	6
108	108	17
86	86	8
21	21	14
4	12	1
121	121	11
167	167	17
19	20	27
129	145	6
158	158	15
113	113	19
142	143	16
5	5	14
4	26	4
25	27	5
21	22	7
78	78	19
25	26	9
2	3	9
12	15	4
163	163	8
94	95	8
71	71	10
27	27	13
168	169	17
93	94	5
92	93	6
5	49	3
136	136	19
19	19	20
119	119	11
63	63	8
54	54	12
120	121	4
52	54	1
35	36	8
12	13	13
135	135	18
106	167	1
122	122	15
105	105	7
169	169	16
91	91	8
134	134	12
79	79	13
14	17	2
77	77	16
160	162	2
150	157	2
173	173	11
156	156	6
107	107	3
121	122	4
141	175	2
96	113	1
99	100	10
125	125	26
96	100	4
4	13	3
62	66	2
95	102	1
74	74	12
140	140	14
3	3	4
145	161	3
111	125	2
14	23	7
166	166	20
5	10	2
133	133	16
148	172	3
102	102	9
109	109	3
123	123	9
172	172	17
107	108	8
2	9	1
148	148	22
160	163	6
150	153	3
143	143	20
50	51	4
122	149	4
2	7	9
107	109	5
95	96	5
157	157	15
78	103	3
66	66	7
4	4	19
82	82	4
62	63	1
66	100	3
127	127	26
53	53	10
129	129	12
174	174	6
96	98	3
2	35	6
7	8	4
132	132	11
39	39	34
107	121	5
41	41	37
103	103	6
17	28	3
147	154	2
16	18	4
22	23	2
38	38	19
61	61	12
99	103	2
14	60	3
10	10	17
64	65	9
96	96	6
15	40	1
39	83	1
54	55	1
14	14	30
10	11	14
167	169	2
4	24	1
139	139	6
51	51	17
168	168	14
141	141	15
115	115	8
8	9	5
76	76	15
96	97	2
119	147	4
147	148	6
156	159	2
10	31	4
2	11	2
156	158	1
55	55	15
3	9	4
33	35	1
95	95	12
106	106	9
24	44	1
178	178	7
32	33	13
151	151	13
87	87	15
19	32	3
170	170	6
51	68	1
27	28	4
88	88	4
23	23	14
126	127	1
15	18	1
117	117	22
52	53	3
18	19	3
57	77	2
116	167	1
77	78	4
16	16	26
167	168	4
11	23	3
171	172	10
5	36	1
12	12	8
59	59	8
103	170	4
72	108	3
175	175	7
13	14	6
5	17	5
9	10	7
161	175	2
71	83	1
128	150	1
0	0	11
114	114	22
6	16	6
55	56	3
132	134	3
131	131	12
159	160	5
40	41	5
20	20	6
24	24	15
68	68	6
169	173	2
83	107	3
16	30	2
141	142	8
150	152	4
117	119	2
44	50	5
29	31	3
25	25	9
41	44	3
150	150	17
24	29	5
158	161	2
84	84	10
56	57	1
54	68	1
115	117	6
144	147	2
112	120	2
15	16	10
180	180	4
132	133	10
26	26	19
3	4	7
5	6	17
130	130	7
175	179	1
114	127	4
43	44	3
118	118	9
20	23	3
75	75	13
123	157	4
124	125	1
25	105	2
16	45	1
154	154	14
138	148	2
151	152	1
15	23	2
113	114	5
101	146	3
123	125	3
7	9	4
159	159	14
7	7	8
179	180	2
145	154	2
109	113	1
16	17	8
7	15	3
34	34	5
168	175	4
42	43	1
111	120	8
152	153	4
1	2	5
152	155	4
161	162	1
98	98	4
15	30	5
131	133	3
167	172	2
109	111	1
110	111	9
103	139	2
104	104	5
83	84	2
74	75	6
95	142	1
65	135	2
138	139	3
71	72	5
17	18	6
62	62	5
94	94	8
41	42	5
171	173	2
16	20	1
169	175	1
61	62	5
100	101	2
1	5	1
146	165	2
90	90	8
67	71	1
102	103	5
38	39	9
67	68	11
95	118	7
129	142	2
118	125	3
152	152	6
104	105	1
6	19	2
113	120	2
138	138	11
162	163	1
149	149	13
112	113	1
18	36	3
53	64	5
131	134	1
131	142	2
136	137	4
75	76	2
4	7	3
6	13	2
11	21	1
45	45	6
123	146	2
62	107	1
125	138	2
71	73	1
90	91	1
11	15	4
67	146	3
129	144	2
30	31	8
11	12	12
140	161	2
124	124	5
23	24	5
162	167	1
92	121	2
167	173	4
44	44	10
6	18	1
62	64	3
5	9	2
9	11	5
15	32	1
52	114	1
157	164	1
5	8	1
154	155	2
141	144	1
160	174	2
136	169	2
45	46	2
21	34	1
60	90	2
81	107	5
136	139	4
120	120	1
91	93	1
55	78	1
1	11	3
86	126	1
143	149	3
67	75	1
6	28	2
18	20	1
6	7	8
28	31	3
93	123	1
38	175	3
168	171	2
60	61	1
153	165	4
71	76	1
28	38	2
146	153	2
122	123	2
15	62	3
123	140	1
152	178	1
95	134	1
16	32	2
24	26	2
2	29	5
71	80	2
139	141	1
144	179	2
21	43	2
175	177	2
125	137	1
4	5	3
3	19	2
32	36	2
17	36	1
28	39	1
151	153	2
66	99	1
141	149	3
14	15	2
3	7	3
25	126	1
5	28	3
138	147	4
14	55	2
101	102	4
177	178	3
14	174	1
116	117	2
96	118	1
114	145	1
44	45	1
178	179	3
9	33	1
126	155	1
117	170	2
97	118	3
28	29	2
137	138	9
53	54	2
136	178	1
84	147	2
134	136	1
155	165	1
63	64	1
157	175	1
59	60	2
41	43	1
50	50	4
89	99	1
103	122	1
88	124	1
82	111	1
80	81	6
102	106	1
114	115	1
111	121	1
124	165	1
83	108	1
82	152	1
87	160	1
109	114	2
68	71	1
128	128	2
81	82	5
16	40	1
165	165	4
37	38	2
138	173	2
120	151	1
153	168	1
89	91	2
35	52	1
125	127	3
1	36	1
15	19	3
51	66	1
117	118	6
65	123	3
2	40	2
22	28	2
84	92	4
72	74	4
24	28	1
76	77	3
21	32	1
130	131	6
16	31	1
3	34	1
128	129	2
88	103	1
127	130	2
138	142	1
97	100	1
161	172	1
12	14	2
107	126	1
21	175	1
118	119	1
154	179	1
64	66	1
3	10	1
103	104	2
123	124	2
29	39	2
123	139	2
36	44	1
49	49	2
25	31	2
119	144	1
165	166	3
21	23	1
53	70	2
34	39	1
101	103	1
64	93	1
90	108	4
81	151	1
58	90	2
91	94	2
116	129	1
36	39	1
4	22	1
17	32	2
174	175	1
169	178	1
11	14	1
6	8	1
4	31	2
114	122	4
84	91	1
166	167	1
97	98	3
67	73	1
173	174	2
31	41	1
80	132	1
34	36	1
2	8	3
96	112	1
150	151	1
89	130	1
140	164	1
21	37	1
115	147	2
26	32	1
163	168	1
70	70	1
50	53	1
155	157	2
22	24	1
72	73	1
101	111	1
73	74	2
150	180	1
18	43	1
96	134	1
128	173	1
161	170	1
143	147	2
54	71	1
153	154	2
145	156	1
108	109	1
13	15	2
127	133	1
153	164	2
94	96	2
91	92	1
108	115	1
3	5	1
16	75	1
2	28	1
144	175	1
164	165	1
89	117	1
53	58	1
10	30	2
120	159	1
27	32	1
149	150	1
125	153	1
125	126	1
160	164	1
149	176	1
122	124	1
98	99	1
163	167	2
40	43	1
96	101	1
4	11	1
81	81	1
150	178	1
57	58	1
72	106	1
6	25	1
