88	88	41
87	87	28
69	69	28
66	67	13
75	75	25
119	119	45
120	120	27
59	59	34
61	61	44
97	97	39
96	96	37
24	24	13
36	36	15
122	122	50
68	68	36
109	109	17
134	134	24
117	117	42
12	12	16
28	90	5
72	72	23
82	82	32
108	108	18
33	33	12
131	133	5
99	100	11
33	34	23
6	6	14
13	13	25
21	22	12
16	16	21
79	120	6
8	8	33
90	90	25
34	36	10
93	93	30
32	32	11
19	19	17
105	105	44
66	66	16
133	133	32
124	125	11
53	54	2
76	76	49
87	124	2
100	100	17
39	39	3
81	98	1
111	115	3
98	99	9
123	124	26
17	18	9
73	74	16
38	38	18
24	36	1
106	106	26
25	59	4
128	128	16
114	114	46
24	59	9
89	89	18
124	124	32
60	60	17
21	21	24
18	19	8
57	94	3
94	94	50
60	61	23
35	35	18
4	4	11
130	131	8
49	76	1
99	99	29
116	116	40
88	89	7
3	3	25
34	34	14
30	30	15
127	127	28
105	134	2
102	103	5
61	87	4
104	105	9
103	104	15
62	62	38
58	58	42
49	50	11
102	124	1
65	65	34
132	133	17
7	7	22
73	73	38
101	101	29
135	135	12
95	95	27
46	47	6
112	121	1
27	28	11
50	50	23
107	108	12
126	126	43
64	64	19
129	129	36
28	28	31
84	84	20
25	25	13
91	91	41
60	65	4
85	85	17
79	79	17
111	111	39
8	10	3
36	55	6
1	71	5
68	69	11
35	43	3
62	64	13
104	104	36
125	125	10
44	44	23
53	53	27
15	15	7
52	53	6
74	124	3
85	116	2
80	80	23
2	2	21
63	64	9
79	80	5
74	74	35
79	87	4
14	14	27
3	4	9
59	70	1
71	71	35
45	45	42
86	86	23
25	26	4
112	112	30
66	68	9
106	108	9
101	102	13
34	35	11
15	16	7
118	118	28
102	102	40
11	12	3
26	27	6
52	52	21
22	23	17
70	70	30
67	67	13
22	31	4
62	96	1
85	97	5
71	135	3
108	110	8
54	54	38
51	51	3
128	129	9
57	57	21
17	17	9
18	18	19
83	83	12
115	115	37
6	13	2
110	110	10
5	5	25
119	121	3
92	92	27
112	113	17
70	71	5
101	119	1
127	128	18
43	43	27
121	121	31
120	121	7
4	5	10
30	130	8
115	116	11
74	75	3
117	118	17
29	30	7
88	98	2
127	129	7
33	122	1
77	77	27
113	113	40
56	56	35
123	123	21
45	46	2
0	2	4
1	72	1
13	14	1
92	106	5
78	78	25
119	120	20
27	27	19
79	85	3
6	7	25
77	78	12
67	68	9
98	100	4
121	123	3
61	62	12
37	37	15
105	110	4
130	130	26
22	22	9
103	103	32
115	118	7
87	88	2
12	13	14
0	0	10
20	21	5
79	99	6
54	55	8
57	58	11
58	59	6
36	43	4
31	31	6
72	133	1
126	128	4
60	63	3
132	132	12
81	88	3
10	10	22
53	55	3
106	109	6
91	113	4
31	32	4
55	55	15
71	76	4
90	91	5
111	112	8
45	49	2
110	132	1
72	73	16
65	66	2
29	29	30
63	63	32
123	125	5
10	11	8
71	72	10
9	9	4
90	92	4
122	132	5
6	11	7
26	26	23
100	101	13
98	98	32
95	96	9
85	99	3
94	95	9
64	65	12
20	20	16
115	132	1
105	106	6
107	109	6
62	77	4
92	93	14
30	129	6
116	117	5
79	95	5
107	107	33
114	126	2
116	118	7
80	81	10
79	81	2
125	129	2
48	48	16
0	3	3
1	1	9
90	93	1
110	111	6
64	76	4
42	43	7
21	25	4
60	70	3
26	60	2
122	125	5
100	119	1
21	23	7
64	85	2
35	55	1
29	125	4
115	121	10
23	23	9
58	60	10
89	90	18
18	28	5
97	98	6
95	133	2
37	38	10
83	119	3
5	92	1
126	127	23
80	97	3
129	130	13
117	130	5
75	128	6
108	109	13
62	63	10
32	35	2
19	28	6
25	58	1
28	29	6
112	115	6
130	132	6
105	131	1
82	119	1
95	131	2
113	115	5
94	131	2
102	127	3
54	57	1
114	115	8
43	53	1
76	77	5
111	117	3
99	101	3
111	118	4
31	131	2
83	84	8
85	100	5
8	11	9
81	82	7
131	131	39
93	128	4
9	10	2
102	112	2
133	134	3
113	121	5
35	36	5
11	11	13
29	32	1
63	71	2
56	57	7
109	110	6
78	79	5
106	107	1
92	108	1
99	110	3
5	7	1
64	77	1
72	128	4
107	113	2
59	94	3
14	89	1
108	118	1
14	15	7
80	98	6
107	112	3
79	82	3
125	126	2
79	124	1
79	94	8
7	10	2
88	99	3
53	59	3
86	122	1
65	80	3
7	8	2
93	94	3
47	48	3
56	58	5
122	131	4
54	59	6
55	123	2
110	116	11
78	94	1
76	123	1
85	86	5
110	118	2
1	2	1
49	49	10
102	128	4
92	103	2
57	59	9
44	52	1
121	125	1
77	79	1
57	68	2
105	112	9
0	93	1
60	62	2
107	110	1
74	102	2
24	26	8
111	116	1
52	57	4
15	28	3
122	123	7
62	85	7
75	99	2
103	132	3
48	49	2
86	87	4
115	119	3
57	60	2
19	20	7
62	65	3
122	126	2
38	42	1
12	15	1
49	77	1
121	122	4
89	120	2
63	93	1
19	30	1
109	117	1
50	52	5
64	70	2
88	90	3
62	70	2
123	126	3
96	134	4
97	100	3
102	104	2
117	119	3
118	119	9
74	88	1
23	24	1
91	92	5
129	133	3
56	59	1
82	84	12
65	70	2
61	64	1
126	129	2
43	44	3
89	99	4
118	120	3
94	96	2
60	66	1
73	75	3
13	15	3
19	27	1
65	69	7
99	120	1
61	65	1
61	63	3
110	117	1
65	85	2
115	117	3
30	31	2
16	17	4
63	65	5
106	111	1
67	78	2
83	86	2
84	86	1
36	53	3
20	27	2
100	105	1
108	117	1
60	64	3
29	124	2
55	56	3
8	9	3
87	97	1
100	124	2
86	88	3
3	92	2
20	24	4
61	82	1
13	91	2
2	3	6
34	56	2
91	116	4
18	20	3
75	87	1
44	45	3
14	16	1
126	130	1
63	69	2
76	78	1
71	134	2
72	127	2
101	127	4
82	118	3
53	58	3
98	105	2
82	83	2
109	116	1
62	66	1
34	127	1
36	37	8
97	101	1
63	79	1
107	116	1
79	123	2
79	122	3
84	99	1
24	31	4
65	68	2
79	84	2
115	120	1
81	84	1
84	85	12
78	95	1
88	97	3
24	25	7
55	59	1
73	104	1
111	113	3
16	18	3
5	6	4
33	35	3
89	101	2
52	74	2
121	124	2
54	60	1
69	70	2
64	82	2
106	114	1
21	24	1
110	113	1
35	59	2
62	80	2
52	54	2
72	125	1
116	120	1
130	133	3
47	47	8
36	58	1
106	110	1
111	130	1
1	3	1
26	57	1
111	114	3
33	37	3
14	17	2
97	106	1
71	75	1
80	112	3
91	106	2
3	6	3
68	82	2
99	106	2
20	31	2
78	100	1
114	116	2
37	42	1
125	127	3
24	58	2
114	121	1
73	123	1
66	82	3
32	34	2
5	12	1
30	125	1
31	33	1
101	113	1
98	112	2
131	132	3
66	78	1
91	109	1
127	134	1
69	77	2
35	114	1
96	135	1
134	135	1
110	115	1
65	89	2
82	117	2
78	80	1
85	91	1
79	121	1
43	52	1
80	99	2
65	72	1
69	81	1
113	114	1
96	97	4
60	82	1
96	131	1
78	96	1
72	135	1
92	96	1
2	11	1
65	84	1
34	114	1
60	83	1
80	88	1
87	92	1
101	104	1
28	80	1
79	88	2
32	122	2
71	73	1
38	53	1
76	80	1
12	14	1
81	81	1
109	121	1
118	121	1
69	79	1
