64	64	12
92	93	4
216	216	5
19	19	5
186	186	8
77	77	8
187	209	7
182	182	10
77	96	3
214	214	9
222	223	1
17	17	13
12	15	4
9	43	3
5	152	3
52	75	5
238	238	16
73	108	4
82	82	12
21	21	8
85	86	5
193	195	4
74	74	11
82	84	7
59	59	14
16	16	13
159	172	1
163	165	8
6	6	12
227	227	5
229	230	6
210	211	7
196	196	21
58	71	6
9	9	16
187	187	23
53	53	10
211	212	9
241	241	19
41	94	3
49	50	5
62	62	5
178	178	7
96	99	4
31	32	6
246	246	16
238	243	1
164	164	11
111	111	8
169	185	3
202	202	13
175	175	14
163	163	8
166	184	1
176	181	3
181	182	8
20	20	17
99	100	7
55	57	7
96	98	2
38	76	3
170	196	2
175	180	2
42	117	5
4	92	1
208	209	2
45	45	11
145	145	10
191	192	6
217	217	14
247	247	18
43	43	8
29	30	6
11	11	4
163	166	1
18	18	15
68	71	1
161	161	15
66	66	7
23	23	11
190	192	1
40	40	3
49	89	1
223	223	11
209	209	13
170	170	11
44	44	15
72	107	5
95	95	10
238	239	5
204	204	7
172	172	8
202	205	2
116	118	1
5	30	4
150	150	15
175	176	6
10	10	10
81	81	12
226	234	1
14	167	1
10	161	1
11	112	5
193	193	20
233	233	7
60	60	11
196	244	2
236	237	7
118	118	7
38	38	7
244	244	6
195	196	3
173	173	17
229	229	8
70	70	10
115	115	10
187	246	2
34	35	2
210	213	5
225	235	3
107	107	15
155	155	12
181	211	4
114	114	12
212	212	21
69	86	4
168	169	3
78	78	9
109	109	14
197	197	7
154	156	1
54	59	2
56	56	9
48	48	11
114	115	4
20	55	2
103	103	1
106	106	9
83	83	10
93	93	10
11	16	6
68	102	1
69	69	12
190	195	3
47	100	3
218	245	3
155	196	4
190	190	5
225	225	8
73	107	6
184	184	11
154	157	4
49	166	2
105	105	5
154	183	5
6	7	2
157	158	1
187	190	6
69	70	12
98	98	13
8	8	6
9	10	5
154	154	16
231	231	7
25	46	6
67	67	3
204	206	1
5	50	2
198	198	19
233	234	11
163	183	3
33	34	2
232	237	2
153	153	4
238	245	5
32	32	12
146	147	7
120	201	1
182	192	3
96	115	3
36	39	2
60	70	1
187	189	8
23	45	2
240	240	11
8	149	3
5	15	3
108	108	9
58	58	12
16	32	2
184	191	2
202	229	2
54	55	8
77	80	2
231	248	4
167	167	8
171	171	27
235	236	7
240	242	9
50	75	1
88	89	4
7	7	9
4	4	4
191	191	13
50	50	8
92	92	4
59	66	3
76	78	2
35	35	8
208	223	5
237	237	7
221	222	4
173	174	10
165	165	6
72	72	2
16	45	2
165	182	3
168	168	7
26	26	4
232	232	13
188	188	9
110	115	4
169	169	14
239	241	5
28	28	5
97	98	2
194	244	1
224	225	4
96	97	1
172	175	4
91	95	3
166	167	7
52	52	8
197	198	3
78	82	1
68	68	7
203	203	7
89	89	5
194	195	5
110	110	8
166	168	4
26	43	2
100	100	2
71	73	2
201	201	8
179	179	11
242	242	11
224	231	4
99	99	8
185	224	3
11	111	1
167	177	2
185	210	1
158	158	20
24	24	16
182	183	2
189	209	1
46	46	6
197	200	3
210	210	21
160	160	12
171	172	1
80	81	6
90	91	1
176	209	1
147	151	1
40	203	3
105	109	4
188	189	8
7	9	1
52	89	4
212	237	2
175	209	2
218	242	3
215	215	21
245	245	11
175	194	2
78	80	2
51	51	17
166	171	6
112	113	4
2	2	4
81	158	4
4	14	3
169	184	1
1	33	2
205	221	3
87	88	6
202	203	7
88	88	8
40	94	2
195	195	11
85	85	1
152	152	13
47	48	2
64	65	1
22	23	8
172	173	5
192	192	7
174	175	2
156	156	13
206	206	4
73	74	6
168	192	2
48	49	4
236	236	10
214	215	9
57	57	6
67	68	3
179	180	6
177	182	2
107	115	3
162	162	6
157	157	5
183	183	15
161	207	5
239	239	11
119	119	10
14	14	9
65	65	5
166	166	13
82	85	1
211	211	15
92	94	3
41	41	7
36	36	7
194	249	4
106	107	4
33	33	3
102	102	11
164	166	2
192	193	3
30	30	5
104	104	5
152	157	3
159	159	8
118	145	2
70	73	1
72	73	4
15	15	3
113	113	5
163	164	5
177	177	12
31	31	7
116	116	7
76	79	3
201	202	6
105	106	7
81	87	2
244	247	4
111	112	2
185	194	4
22	47	1
11	19	2
181	181	9
12	87	1
230	230	13
87	87	10
33	41	1
97	104	1
153	168	1
220	220	6
164	165	5
221	221	8
175	196	3
49	61	2
75	88	1
32	33	1
185	185	15
187	188	5
222	222	9
66	112	2
63	63	7
201	203	1
75	76	4
49	49	11
218	237	2
227	230	3
205	205	16
183	191	1
151	151	6
193	194	5
91	91	13
55	99	4
242	243	5
79	79	13
19	26	1
34	83	1
40	48	2
162	163	3
108	245	1
216	218	1
68	99	3
186	187	1
32	40	2
170	182	3
39	39	11
86	87	1
200	200	7
243	244	3
34	34	3
227	231	3
1	102	2
199	200	2
13	157	1
202	204	4
5	5	5
5	35	2
117	117	11
63	111	3
85	91	3
2	4	2
23	93	2
76	76	7
216	242	1
78	178	1
187	248	6
207	207	8
217	241	4
146	157	2
105	119	1
6	11	2
158	183	4
52	53	3
58	107	5
120	120	7
29	29	6
1	36	4
156	171	2
171	175	3
195	217	1
167	204	1
70	92	4
183	204	2
42	42	6
16	23	1
88	162	4
42	43	1
212	214	2
27	28	6
92	116	2
189	189	4
77	167	2
1	1	8
224	238	1
211	218	2
43	44	3
50	93	1
155	212	2
86	86	11
233	237	7
170	191	4
172	176	2
112	112	21
36	38	4
59	65	3
81	164	1
13	13	3
16	28	1
21	22	2
3	14	2
219	219	3
194	194	5
63	65	1
203	204	3
37	48	1
218	218	2
108	109	5
22	22	6
27	27	12
188	211	6
84	85	3
210	215	4
76	98	1
165	167	2
146	205	2
179	188	1
204	246	4
117	118	12
60	62	6
83	84	3
165	166	3
84	84	6
44	46	1
58	73	3
48	199	1
166	183	3
62	68	2
167	170	4
208	225	4
73	73	7
115	118	2
224	224	7
220	231	4
191	208	2
51	61	1
147	175	1
183	186	1
170	190	1
193	213	1
160	162	1
61	61	10
176	180	3
226	230	3
157	159	2
235	240	1
26	42	5
69	88	2
163	173	2
59	60	2
201	206	4
145	154	1
94	94	7
57	99	2
82	99	1
60	61	5
151	183	3
219	222	1
209	215	1
167	168	3
177	196	2
163	167	1
157	181	1
210	214	2
104	107	1
108	110	2
75	75	1
223	224	6
17	19	1
146	164	3
34	75	4
54	54	5
185	208	4
68	70	4
184	198	1
151	161	3
26	27	2
164	181	2
47	51	1
178	179	2
185	220	3
4	5	3
167	169	4
37	37	2
169	179	3
172	181	1
56	57	2
109	110	2
5	14	3
191	211	1
25	25	6
113	115	2
205	226	4
225	230	2
30	48	1
226	226	3
158	160	4
176	176	5
237	243	2
180	180	4
245	246	7
212	213	4
190	208	2
239	248	2
37	110	2
69	92	1
212	222	3
164	182	2
4	49	5
2	3	3
235	235	3
6	53	2
23	27	2
57	98	4
153	157	2
147	176	2
20	47	2
34	70	1
241	242	1
147	160	1
152	153	2
160	181	2
149	243	1
171	177	1
18	152	2
34	72	1
170	171	2
4	15	1
213	223	2
59	102	3
101	101	6
88	158	2
107	118	2
189	200	1
99	101	2
54	65	1
193	196	6
5	48	1
161	182	1
82	83	4
218	239	2
227	241	1
18	19	1
144	171	3
227	232	1
214	217	1
96	96	2
180	181	1
79	164	2
12	12	3
182	184	4
89	217	4
80	80	9
5	29	2
189	212	3
157	177	2
208	213	2
154	160	1
198	199	6
188	193	2
190	248	2
46	98	3
62	63	2
91	93	2
187	214	2
79	82	2
170	185	1
37	38	2
103	104	1
185	186	1
159	211	1
35	160	1
158	184	1
230	234	2
92	104	1
226	227	5
243	245	2
213	213	5
248	248	2
212	219	2
234	234	6
169	187	1
165	170	1
159	160	2
96	106	1
200	213	1
174	174	2
189	190	1
44	45	3
68	78	1
153	162	3
89	116	2
93	94	6
37	39	3
39	51	2
146	159	1
174	178	1
147	147	3
18	146	1
36	63	2
247	248	4
63	64	1
70	91	2
9	156	1
75	83	1
193	212	3
4	35	1
94	113	3
115	119	2
155	156	2
197	209	2
230	231	5
7	16	1
34	66	1
167	175	4
231	234	2
37	41	2
244	245	2
61	62	4
96	102	1
156	183	1
151	203	1
88	159	1
3	3	4
237	238	2
12	117	2
71	99	1
67	84	1
97	97	2
233	242	2
206	207	5
228	228	1
189	218	2
187	191	1
190	245	1
150	156	2
47	47	4
7	28	1
184	188	2
144	173	1
16	149	2
2	47	1
218	220	2
64	112	4
31	54	4
199	199	1
176	184	2
39	40	1
105	108	2
150	244	2
57	72	2
226	229	4
1	58	2
162	166	2
3	4	3
19	54	1
209	247	1
200	201	1
53	54	2
100	101	3
60	85	1
198	200	1
232	236	3
184	185	3
149	150	3
195	210	2
65	66	2
179	199	1
189	210	1
145	160	2
31	37	1
3	30	2
194	203	1
46	96	3
107	116	5
57	58	2
111	237	1
177	200	2
2	29	1
83	85	1
179	205	2
66	67	2
173	179	1
56	98	1
95	113	1
10	151	1
208	208	2
162	182	1
224	248	2
89	158	1
150	161	1
197	199	2
11	42	1
75	99	1
10	111	1
169	180	1
14	166	1
80	82	1
114	120	2
220	222	1
104	105	2
25	26	2
77	79	2
15	150	1
37	42	1
1	182	1
187	192	2
72	74	1
73	104	2
16	26	1
236	240	1
39	113	2
246	247	2
147	157	2
99	114	1
46	97	4
10	162	4
169	170	1
73	89	2
233	243	1
234	235	1
38	113	1
92	103	2
170	181	1
118	119	1
204	226	1
55	56	1
29	31	1
162	168	1
64	121	1
69	91	1
3	168	1
46	169	1
25	41	1
63	102	1
184	189	1
178	180	1
106	108	1
155	205	1
35	103	1
18	22	1
182	213	1
15	29	1
110	247	2
37	94	1
2	18	1
154	155	1
8	9	1
166	181	1
183	185	1
202	206	1
75	90	1
36	203	1
237	239	1
1	200	1
213	217	1
95	120	1
101	119	1
166	169	1
59	63	1
61	103	1
74	75	1
221	226	1
177	179	1
183	194	1
45	113	1
90	90	1
108	246	1
26	28	1
7	8	1
166	177	1
176	185	1
213	219	2
9	36	1
189	191	1
15	31	1
191	195	1
75	96	1
209	210	1
219	245	1
46	53	1
2	55	1
71	71	1
202	230	1
4	29	1
165	169	1
45	74	1
169	182	1
80	83	1
220	221	1
60	65	1
243	243	1
63	181	1
22	46	1
6	153	1
244	246	1
80	151	1
59	86	1
