150	150	10
43	47	2
41	71	1
45	46	9
144	145	1
9	12	7
23	23	1
96	97	4
16	16	12
4	4	6
81	81	4
104	105	4
134	135	2
69	70	1
15	65	4
145	145	8
94	94	3
8	8	2
116	116	10
5	8	1
97	97	7
2	4	3
111	111	10
87	91	4
45	45	12
40	41	8
55	55	8
6	71	2
86	88	4
85	86	8
105	105	6
115	116	4
48	49	11
19	19	3
110	110	6
67	67	2
80	81	5
140	140	9
129	135	1
44	44	4
14	24	1
48	50	2
3	3	6
158	158	5
41	42	1
89	90	3
78	78	6
31	31	1
99	99	8
29	29	7
81	82	1
49	49	9
118	118	2
147	147	7
67	68	1
122	122	11
43	133	2
7	8	1
157	157	2
77	77	5
46	46	1
25	25	3
6	7	5
51	54	3
117	117	5
36	36	4
53	53	2
87	88	1
72	78	1
42	48	8
71	144	1
5	24	2
141	145	5
125	125	2
78	108	2
72	72	2
48	48	9
76	95	3
156	156	3
81	84	3
126	126	10
152	152	6
87	87	10
31	32	8
10	11	2
88	89	8
124	126	1
33	33	6
40	51	4
1	1	5
66	68	2
124	124	6
135	135	3
132	154	1
52	53	4
96	96	4
146	150	2
68	68	3
71	71	3
67	69	2
7	7	3
50	50	5
5	18	2
86	90	1
80	80	3
104	104	5
114	115	3
22	22	3
100	100	2
6	6	2
21	21	8
159	159	3
22	35	1
42	45	1
103	103	3
92	92	1
135	137	2
9	9	2
89	114	1
85	117	1
120	120	6
50	51	4
30	48	4
125	128	3
146	146	11
70	70	7
18	18	3
62	62	2
63	63	1
2	2	5
14	14	5
41	41	3
43	43	2
5	19	2
141	144	2
40	44	1
111	112	3
127	127	5
28	28	3
30	30	5
15	15	3
40	48	2
103	104	2
20	20	3
20	33	1
90	112	1
89	118	1
9	10	3
35	35	13
11	50	1
94	95	1
92	146	2
16	17	2
139	144	2
121	121	2
33	34	1
41	50	1
85	120	1
69	69	4
82	91	2
77	131	4
117	131	1
73	73	4
24	24	4
11	12	5
152	153	2
142	142	3
18	20	3
36	46	2
4	30	1
75	83	2
88	88	2
75	75	6
2	7	3
131	131	6
151	152	3
70	71	4
133	133	1
89	89	1
92	150	1
13	15	2
42	42	2
83	111	3
51	53	1
15	16	1
25	90	2
79	79	3
41	151	1
12	12	2
11	11	5
52	52	4
121	122	1
27	27	4
112	112	2
82	82	3
145	146	1
17	17	3
140	141	3
108	108	6
73	142	1
96	154	3
66	67	1
32	32	6
115	115	3
134	134	3
18	19	4
29	32	1
131	133	3
54	55	2
36	37	2
34	35	4
84	92	2
67	137	1
6	18	2
32	34	1
118	119	1
35	53	1
90	91	4
143	143	1
49	50	1
93	93	8
30	34	1
4	73	1
34	34	1
13	43	1
104	155	1
40	54	1
97	148	2
120	136	2
119	119	3
52	64	1
14	15	1
66	66	3
154	154	2
4	48	3
40	40	2
2	3	1
128	128	2
24	25	2
144	144	6
31	71	1
120	121	2
134	137	4
71	121	2
84	84	3
95	156	2
10	54	2
38	38	4
4	47	1
51	51	2
78	120	2
95	95	2
37	38	2
82	135	2
69	140	2
78	111	1
67	72	1
18	87	3
17	18	1
20	90	2
151	158	2
0	0	1
8	10	1
121	123	1
132	132	1
85	110	2
138	138	5
19	46	3
0	1	1
13	13	2
17	28	2
38	55	1
46	47	1
91	91	1
41	43	2
26	27	1
136	137	1
7	24	2
117	134	1
153	153	3
85	85	2
141	141	4
8	65	1
123	127	1
155	156	1
53	54	1
79	80	1
109	111	2
37	48	2
80	83	1
121	151	1
80	82	1
36	52	2
66	140	1
76	158	3
150	158	1
21	54	1
114	114	1
51	52	2
79	111	1
120	156	2
41	156	1
85	108	1
28	44	2
128	147	1
17	23	1
107	156	2
25	33	1
95	96	1
115	123	2
37	39	1
12	14	1
44	45	2
106	106	2
81	117	1
137	138	1
28	29	1
39	99	1
83	83	1
10	12	1
31	50	1
112	113	1
