146	146	3
129	130	9
55	55	3
128	134	5
119	127	2
58	58	18
140	140	28
122	122	13
43	43	5
126	127	13
75	75	8
37	38	6
50	77	1
87	91	8
52	52	5
142	142	20
34	36	15
74	74	12
35	35	23
26	128	5
120	120	26
56	56	11
84	84	6
30	30	13
103	103	12
130	130	22
132	133	10
140	141	4
98	98	6
8	92	1
93	96	2
128	128	27
33	33	15
107	107	17
36	37	9
15	15	21
21	143	5
69	70	9
112	129	3
118	143	2
106	109	6
42	42	18
2	5	7
123	130	8
123	123	27
2	128	4
72	75	8
78	78	20
109	109	13
66	67	4
137	137	16
50	78	5
86	86	6
94	95	2
89	89	14
25	141	4
132	137	1
110	111	10
54	81	3
18	18	14
91	91	12
112	112	15
63	63	29
61	61	21
56	105	11
49	49	20
2	2	19
119	119	14
53	53	8
94	94	8
91	92	2
108	108	9
8	8	18
105	118	6
1	1	13
23	23	29
125	127	13
133	133	22
124	124	32
135	135	13
125	125	18
84	107	2
145	145	11
38	38	18
29	29	22
143	143	10
139	139	18
55	106	8
88	88	14
134	134	17
117	117	18
25	37	8
28	28	17
141	141	25
132	132	8
123	132	4
136	136	14
21	22	4
10	94	1
8	117	2
126	126	19
29	124	3
51	85	2
144	144	17
115	117	6
73	79	1
94	125	1
127	127	13
32	32	7
39	40	6
104	104	13
88	89	9
16	16	7
92	97	7
118	120	5
71	71	10
73	73	12
22	22	14
100	101	8
82	82	11
76	76	15
66	66	9
92	96	8
130	134	1
47	48	2
89	130	1
66	70	3
97	97	16
81	131	2
64	64	4
51	54	5
85	85	15
86	87	2
29	30	6
87	87	7
56	71	2
132	134	1
2	4	3
47	54	4
130	131	8
30	135	1
100	100	9
83	83	16
31	31	17
75	87	5
70	129	2
139	140	10
77	77	13
24	25	1
5	10	5
55	73	4
129	129	19
124	125	7
117	118	6
114	114	8
39	43	1
59	61	7
116	116	20
122	127	2
13	17	2
33	36	4
95	97	2
21	21	15
125	132	2
131	132	8
113	129	3
41	41	26
6	12	2
134	137	2
0	2	5
13	16	3
69	69	6
102	103	4
101	101	7
121	121	5
17	25	7
138	138	13
96	96	16
133	136	4
141	142	4
92	92	10
142	143	11
27	27	12
118	118	18
50	50	8
85	86	3
145	146	1
5	6	8
52	62	2
114	129	5
8	128	3
40	40	12
121	124	2
17	17	18
54	54	9
25	126	3
79	80	6
61	79	3
80	81	6
95	95	10
3	3	7
110	116	5
115	130	2
14	14	3
90	97	3
79	79	3
59	59	16
99	101	3
21	118	4
63	84	6
85	104	2
94	114	3
130	132	10
12	25	3
65	68	1
18	52	4
93	93	7
112	114	5
107	108	11
25	47	7
18	19	10
108	109	11
113	113	10
34	34	13
81	100	3
125	137	4
134	141	6
51	51	10
19	22	1
80	91	4
93	108	2
68	68	13
62	62	2
77	113	5
57	91	4
9	92	4
90	90	18
50	95	3
26	126	1
61	62	1
2	11	5
9	9	16
106	106	8
26	26	14
125	146	2
77	117	1
135	138	1
27	125	1
33	35	3
84	85	3
110	114	4
71	72	7
93	94	9
39	39	18
15	16	4
73	74	5
77	78	1
63	103	6
81	81	11
60	60	7
90	91	5
80	88	8
97	98	6
57	68	4
112	132	5
67	69	4
85	105	3
79	81	1
133	140	7
59	110	3
106	131	11
14	15	21
25	25	7
52	63	3
102	102	12
116	126	4
37	37	14
11	11	6
133	138	2
117	124	6
70	70	14
76	79	2
20	21	7
128	145	2
79	92	1
98	103	2
55	89	6
137	139	2
66	76	1
46	46	2
57	61	2
118	119	7
47	47	4
67	67	4
66	87	1
110	113	4
80	101	2
72	72	9
120	121	3
111	112	4
106	111	4
87	88	8
105	106	4
138	139	11
9	10	9
76	84	8
48	48	4
64	70	1
134	135	3
48	55	3
56	65	4
136	139	11
138	143	3
57	120	2
35	36	2
13	13	9
59	60	8
65	65	6
117	143	4
133	134	11
130	135	2
75	76	9
117	130	1
95	98	1
112	131	4
63	83	5
114	116	4
131	131	15
110	110	19
0	1	3
13	125	2
120	122	1
83	90	3
28	29	4
105	108	1
62	78	2
113	114	2
81	82	9
2	6	3
60	77	2
93	103	2
105	105	8
92	94	5
4	11	1
102	119	4
8	13	3
5	5	20
19	19	10
13	27	2
34	35	10
111	115	1
116	122	1
69	82	1
121	122	5
111	119	2
18	31	1
137	138	3
36	39	7
89	90	10
125	142	2
125	126	10
41	42	2
110	118	5
139	142	3
64	66	2
36	38	2
9	35	2
110	119	1
24	27	3
0	0	3
116	138	1
57	57	8
67	104	1
120	125	1
48	59	1
130	137	4
48	106	5
8	9	8
24	24	4
119	142	7
67	72	1
95	96	4
76	78	4
80	80	19
58	111	1
37	47	3
18	32	1
66	68	1
50	53	3
38	41	1
23	126	1
115	128	3
130	139	2
78	91	3
76	89	2
2	3	7
86	89	2
56	72	1
56	66	3
127	130	3
3	64	3
6	6	13
129	132	4
103	126	2
53	54	1
58	66	1
58	61	4
82	88	2
28	145	3
70	72	2
9	41	2
81	125	3
93	109	4
20	20	15
68	78	2
120	144	1
113	127	2
83	102	1
92	93	2
54	56	5
10	10	5
84	105	1
20	34	1
128	130	3
124	131	1
28	126	1
10	11	1
109	131	1
119	143	2
58	59	1
117	140	1
115	115	1
81	97	1
69	88	1
129	131	3
39	134	2
51	65	4
6	33	1
70	82	2
121	134	2
56	68	2
64	65	1
53	59	2
8	10	1
135	139	3
85	87	1
32	37	1
28	30	3
76	87	3
83	85	3
67	91	2
50	98	1
132	136	2
91	113	2
119	130	1
37	39	4
10	43	2
119	124	5
124	141	3
118	128	3
122	124	3
136	138	4
99	99	6
111	111	7
68	99	4
126	141	1
19	126	1
51	57	1
2	12	2
3	4	7
91	104	2
88	90	1
8	26	1
55	84	1
70	87	1
104	106	4
121	125	1
27	123	1
108	111	1
4	5	3
23	95	4
22	23	1
56	94	2
111	134	3
96	98	2
69	73	2
115	116	1
56	83	1
109	110	3
95	101	1
99	100	2
20	25	1
30	121	1
117	121	2
33	37	1
48	53	2
12	128	1
9	19	3
73	143	1
122	123	2
32	46	2
102	128	2
58	63	1
9	34	2
17	59	1
52	57	1
111	133	2
62	63	1
117	144	4
135	137	2
136	137	2
9	13	2
53	61	1
89	91	1
19	21	1
84	86	2
92	104	1
85	115	2
15	17	2
55	65	2
64	69	2
27	131	5
69	72	2
0	20	1
12	27	1
57	58	4
132	139	1
126	131	1
109	118	1
128	129	1
102	113	1
118	125	1
40	41	1
82	87	1
108	125	1
1	13	2
66	71	1
39	106	2
53	65	1
121	123	1
59	77	2
61	91	1
30	32	1
91	98	1
96	97	2
70	71	1
81	115	1
74	75	2
50	54	1
122	128	1
13	26	1
90	129	3
128	131	1
129	139	1
94	124	3
105	109	2
97	105	1
26	36	1
26	27	2
36	36	2
125	136	1
54	55	1
10	27	2
81	98	2
4	21	1
112	118	3
48	68	1
8	24	4
92	109	1
49	50	1
52	53	1
57	124	1
21	43	1
116	129	3
4	4	2
121	131	2
58	110	1
52	91	1
131	137	1
27	30	2
20	26	1
117	142	1
50	79	1
91	93	2
52	64	1
67	93	1
30	133	1
27	67	1
5	66	1
29	100	1
14	16	1
30	33	1
3	69	1
73	91	2
113	132	1
78	79	1
28	124	1
12	12	1
53	60	1
50	72	1
0	26	1
52	55	1
116	117	1
28	130	1
83	84	1
5	64	1
85	94	1
67	68	1
