144	144	8
51	51	14
143	143	18
124	124	6
71	72	8
18	19	3
54	54	16
105	106	4
71	71	15
110	111	5
84	86	3
94	94	17
144	149	3
152	152	14
122	122	11
113	114	4
117	117	41
104	104	15
100	102	1
133	149	2
105	105	10
86	88	6
87	87	15
100	100	21
18	18	11
52	52	16
89	89	12
90	93	4
57	57	5
44	45	9
124	143	2
24	25	7
46	46	28
21	21	5
139	148	2
42	42	16
39	51	5
95	97	7
1	1	15
103	103	16
118	118	13
67	67	8
14	14	14
107	107	28
16	16	22
112	112	27
138	138	17
151	151	14
8	8	8
28	28	16
117	122	2
51	52	5
67	71	8
109	110	11
43	103	1
47	47	16
43	43	25
42	52	4
3	4	14
129	156	1
33	33	21
140	140	22
25	25	19
139	139	14
45	45	9
142	142	9
64	64	9
29	30	3
109	109	13
26	103	1
19	29	3
68	68	8
90	90	17
63	63	4
13	16	5
128	140	4
118	134	1
27	27	9
35	35	18
7	7	26
55	56	2
20	20	22
79	79	15
40	40	15
112	113	9
70	70	7
111	111	26
132	132	18
113	113	18
128	129	8
26	26	16
42	43	8
45	46	1
50	71	2
140	141	1
132	144	3
111	112	14
130	130	17
11	11	10
122	123	17
88	88	18
81	81	7
87	89	7
0	0	4
48	48	14
9	9	8
93	94	6
50	50	9
22	22	5
126	126	1
50	52	3
35	36	10
34	34	9
114	115	4
128	128	6
20	21	2
64	71	1
130	158	2
148	155	5
14	15	3
6	6	3
148	148	17
23	23	21
144	147	1
135	136	5
77	86	4
150	150	16
99	99	10
32	33	2
125	125	7
32	67	2
21	22	3
95	95	6
111	114	7
137	139	3
102	102	6
134	135	9
127	128	8
26	44	1
148	151	4
101	101	12
157	157	8
40	41	5
87	88	9
134	137	5
26	86	1
36	37	9
127	127	14
118	146	2
86	87	22
26	41	5
119	119	13
83	84	19
137	137	19
65	71	4
29	29	7
32	120	3
83	94	4
53	53	7
20	31	1
26	48	1
91	91	15
123	152	1
107	108	4
44	44	4
134	134	16
158	158	16
96	96	10
131	157	2
31	32	4
89	91	8
86	86	12
141	142	4
135	137	1
41	42	15
133	133	13
31	31	20
93	93	16
129	137	3
132	149	5
129	130	2
52	53	4
146	146	8
39	39	21
36	36	28
22	48	5
131	151	2
47	51	5
81	82	9
43	45	1
110	110	15
65	65	1
24	24	9
127	131	3
107	110	3
115	115	20
72	72	5
7	8	6
75	75	16
69	71	3
131	131	9
49	49	8
1	2	10
113	121	2
30	71	4
56	152	2
141	141	3
124	144	10
115	116	4
129	129	12
121	132	3
83	86	3
135	135	7
98	98	6
65	75	2
11	12	8
91	92	4
100	131	3
36	40	2
83	83	15
19	21	7
26	50	1
37	39	5
151	152	8
116	116	19
10	11	3
97	97	4
125	138	4
147	147	18
82	86	2
82	114	1
96	98	1
137	142	3
38	38	6
92	92	7
56	57	3
32	34	2
25	26	6
120	121	8
78	79	4
119	135	2
82	82	6
112	115	3
154	155	4
45	50	4
121	121	5
49	50	2
85	85	3
78	78	7
110	114	2
123	123	14
2	2	9
65	66	2
66	66	11
28	31	1
41	151	7
86	94	2
30	30	11
11	23	5
13	22	2
125	126	3
126	127	4
103	104	2
132	150	4
16	21	1
76	76	1
50	54	1
0	3	1
78	82	8
116	118	4
84	85	3
123	125	5
119	120	5
114	114	22
92	110	3
24	33	4
28	29	7
155	155	5
136	136	6
94	147	5
84	84	17
35	66	3
149	149	10
35	40	1
17	17	21
130	131	5
73	76	2
120	120	9
92	94	6
137	138	9
124	127	4
55	73	4
52	54	5
48	49	9
130	132	7
39	117	3
106	135	2
30	31	6
11	34	1
114	117	4
64	89	4
24	27	7
129	131	2
56	56	7
115	119	1
27	139	2
41	47	2
146	154	2
121	122	3
109	111	3
125	144	3
22	25	1
38	39	2
23	24	6
108	109	3
13	14	1
55	55	14
70	154	3
139	156	2
143	144	2
114	137	2
106	106	4
65	82	1
156	156	4
38	50	3
46	47	6
111	113	3
48	50	5
105	128	4
82	104	3
116	117	7
76	77	3
88	89	1
66	72	3
5	5	13
19	19	12
3	3	6
147	154	2
19	20	5
40	120	2
130	137	8
133	137	3
41	41	7
149	155	3
82	115	2
14	34	4
12	12	13
148	149	3
17	18	3
80	105	2
69	69	7
49	56	3
80	80	3
142	143	4
13	13	7
118	122	5
22	23	10
126	144	1
120	125	1
108	108	7
7	9	1
93	96	1
34	37	2
47	50	3
40	42	4
146	153	3
121	140	4
136	138	3
32	37	5
151	155	5
113	115	3
43	44	2
83	91	3
54	56	1
15	15	3
17	33	1
49	52	3
110	112	6
91	143	1
28	30	1
85	90	4
85	87	1
96	97	2
132	133	4
91	139	3
12	13	11
77	77	6
86	90	2
33	34	1
32	32	6
148	156	2
44	51	2
29	77	2
121	124	4
16	33	6
79	82	8
32	35	1
154	154	6
73	73	2
133	151	4
12	22	3
90	91	5
139	140	2
82	83	2
89	144	2
123	124	5
10	10	6
70	71	7
131	150	2
113	120	2
100	109	4
73	80	4
104	105	1
148	153	2
2	3	6
152	155	2
127	139	2
85	86	3
77	78	2
157	158	1
32	65	1
108	154	3
26	45	2
66	104	2
48	52	4
120	131	3
150	151	2
77	89	4
26	47	2
109	127	3
137	140	1
159	159	3
126	128	1
131	158	1
106	113	1
67	68	4
138	140	2
124	125	2
145	146	2
70	76	4
103	117	2
8	9	3
131	132	3
100	101	2
61	69	1
16	17	3
131	156	2
30	52	3
117	118	2
108	117	3
134	138	3
69	70	1
131	137	2
44	46	1
64	69	1
66	98	5
3	6	3
80	81	3
42	151	1
42	101	1
120	137	1
23	44	4
26	87	1
97	98	3
114	124	1
24	28	1
20	25	1
26	46	2
65	67	1
28	77	1
148	150	2
153	153	3
26	27	2
109	112	2
122	142	3
98	102	1
115	123	1
22	73	1
86	97	1
62	62	1
21	25	1
53	54	1
27	28	2
146	147	4
26	79	1
81	106	1
147	148	1
152	154	2
144	145	2
107	114	2
17	20	2
72	74	1
114	118	1
90	92	2
26	28	2
104	106	1
129	140	1
53	156	1
118	119	2
8	10	3
75	98	2
38	40	3
41	119	1
68	147	3
78	88	2
99	100	3
4	4	3
27	44	1
92	93	4
15	16	1
8	11	1
152	153	1
98	101	1
124	142	1
134	142	1
76	78	4
107	111	2
6	7	1
43	117	1
22	49	1
54	55	1
89	90	3
25	27	1
133	134	2
30	55	2
11	36	1
98	105	1
71	148	1
120	132	1
48	51	1
145	145	2
62	63	2
117	137	2
138	139	3
82	84	1
39	40	2
123	132	1
82	112	1
133	135	1
66	82	1
108	110	2
77	79	1
50	51	1
82	113	1
111	123	1
66	67	1
51	53	2
144	146	1
30	48	1
24	46	1
78	80	1
72	147	1
19	22	2
119	121	1
105	138	1
139	158	1
68	153	2
23	25	1
124	145	1
9	11	1
66	81	1
68	154	1
121	133	1
67	72	1
46	48	1
101	103	1
108	138	1
76	96	1
37	37	1
