9	9	10
19	19	2
62	110	3
120	120	9
70	71	5
90	90	11
95	99	6
83	83	2
115	115	4
61	61	9
58	58	5
124	124	8
141	142	5
34	35	9
96	97	4
24	24	4
104	105	6
137	137	5
119	120	4
89	89	12
10	11	5
71	71	7
2	92	1
29	29	3
129	129	9
47	111	4
36	36	2
47	48	2
81	82	2
51	51	5
80	123	4
96	133	3
135	135	9
131	131	5
118	119	4
142	142	2
106	108	2
34	34	3
78	78	10
1	25	3
8	8	5
15	15	2
66	67	1
63	66	1
144	144	2
87	95	3
92	93	2
49	120	1
96	96	4
47	65	4
83	85	3
62	63	3
145	145	6
139	140	6
123	125	2
40	41	3
67	67	8
108	131	5
35	35	6
63	112	2
56	109	1
97	97	11
30	30	10
139	139	4
67	68	1
132	132	2
69	84	1
92	114	1
11	11	6
142	143	3
68	71	4
88	106	1
98	98	5
87	88	8
3	3	4
41	41	2
86	86	5
80	80	3
106	106	7
81	92	1
103	104	5
82	83	3
47	47	3
76	77	3
39	39	3
9	83	2
74	74	6
42	42	3
49	78	3
68	80	3
84	85	4
59	100	4
105	106	4
128	128	8
32	42	1
38	38	3
47	72	5
21	21	4
110	110	6
53	62	2
57	57	7
94	94	3
88	89	3
50	50	6
102	102	4
55	55	5
56	135	3
103	103	6
97	98	3
95	95	9
106	110	4
64	64	4
87	118	3
98	133	2
62	75	1
117	117	4
127	133	5
17	17	2
40	40	1
85	85	1
117	118	5
23	23	6
5	9	2
2	3	3
62	62	7
115	116	2
55	138	4
25	25	5
82	82	6
91	91	4
33	33	6
14	15	3
13	16	2
40	89	2
49	50	5
53	61	6
119	143	1
59	59	4
93	98	1
14	31	2
133	133	5
93	94	6
74	75	1
13	13	3
101	101	5
55	108	2
75	75	4
102	103	5
109	110	4
32	33	4
107	110	1
124	125	3
128	133	3
110	111	2
127	127	5
109	109	2
5	20	1
133	139	4
55	128	3
52	137	1
59	60	1
15	16	4
28	28	2
76	76	4
114	118	2
52	52	2
18	24	1
48	48	7
64	72	2
4	35	1
77	77	1
31	31	2
87	87	2
33	35	2
70	74	1
3	4	3
6	6	2
130	131	1
1	1	2
97	133	8
113	113	5
70	136	2
136	136	3
5	5	2
108	139	1
111	112	2
85	112	1
30	52	5
118	118	2
122	123	2
32	32	3
29	35	1
69	69	4
94	138	2
99	99	5
79	79	2
123	124	3
126	126	5
141	141	8
6	35	2
134	134	3
55	59	1
65	65	7
112	141	4
60	109	3
37	37	2
60	60	3
49	76	1
2	31	3
129	130	3
52	76	2
105	105	4
1	16	2
146	146	1
105	135	2
8	9	3
114	114	3
117	124	2
123	123	1
81	81	3
2	4	1
4	4	3
118	132	4
132	135	3
107	108	1
18	18	5
96	105	2
73	73	4
92	92	5
64	111	1
104	124	1
126	133	1
51	133	2
22	22	5
56	56	2
31	32	3
130	130	3
83	84	1
136	139	1
70	73	1
61	126	2
122	122	5
69	73	2
12	12	2
52	141	1
109	111	2
43	86	1
134	135	2
74	95	2
112	112	3
56	139	2
18	20	2
101	102	2
78	144	1
13	15	2
4	19	1
21	72	2
131	132	2
116	131	2
18	23	2
2	2	3
76	78	1
104	108	1
108	137	1
16	16	1
6	92	2
20	21	2
125	126	1
21	92	2
104	104	5
10	10	1
125	125	1
27	27	1
72	97	2
75	126	2
16	26	2
1	5	1
105	108	2
52	135	2
140	141	1
28	29	1
82	89	3
79	120	1
60	100	1
70	70	2
14	26	1
93	93	1
4	5	2
109	134	2
1	122	1
81	90	1
140	140	4
121	121	4
56	136	1
63	106	1
135	136	1
57	58	1
4	31	1
68	68	1
107	107	1
66	107	1
54	54	1
91	131	2
49	49	1
16	31	1
111	124	1
33	36	1
9	10	1
88	88	1
68	81	1
89	90	1
37	38	1
50	51	1
58	137	1
76	102	1
20	20	1
114	117	2
63	64	1
52	54	1
121	124	1
133	134	1
119	141	1
63	109	1
31	38	2
29	102	1
110	130	1
23	24	1
121	123	1
