82	82	2
87	87	12
29	30	9
102	103	10
33	33	9
76	77	5
102	109	5
98	98	10
98	99	4
62	62	12
79	97	4
96	98	2
94	94	11
109	110	19
41	41	4
65	65	18
77	78	5
110	111	2
49	67	2
67	68	2
37	39	3
77	77	11
95	95	14
48	49	6
52	52	6
43	43	5
79	80	9
67	86	2
51	87	4
55	55	6
32	34	1
48	48	11
80	81	2
89	90	7
28	29	4
107	107	5
46	46	15
108	108	12
24	24	5
32	35	1
21	21	3
105	105	7
31	31	8
38	39	6
101	102	10
66	66	19
106	106	6
75	75	28
99	100	7
106	107	4
80	80	3
27	27	7
36	37	9
75	76	3
68	71	3
73	73	11
102	102	12
100	100	14
68	68	10
25	25	6
81	82	2
33	34	4
105	107	1
88	93	5
84	91	3
57	58	3
93	93	10
68	69	4
96	96	3
50	51	10
70	70	5
26	27	4
71	71	12
29	29	9
62	69	1
56	56	5
71	81	1
110	110	12
42	44	2
63	63	9
38	38	7
97	97	15
85	87	5
83	84	9
84	84	4
35	35	9
35	36	3
88	97	1
29	31	4
80	97	5
32	33	4
100	101	2
30	31	7
53	53	3
69	69	8
112	112	10
67	67	4
26	29	4
104	104	6
34	35	4
71	84	2
105	106	4
60	60	25
95	96	9
45	45	3
47	47	3
21	47	2
88	90	3
113	113	17
19	19	8
33	111	3
66	67	10
76	76	10
20	22	3
85	85	10
103	103	14
50	50	6
56	64	2
111	111	14
101	103	1
79	79	5
66	101	2
75	108	2
83	83	4
29	35	1
20	20	5
92	93	3
74	74	21
84	88	1
89	89	3
69	71	3
91	104	2
76	97	2
23	26	2
32	32	11
60	73	1
71	72	5
26	26	3
74	75	7
94	103	1
47	50	5
64	66	1
85	86	8
39	41	3
78	78	8
96	97	5
78	99	1
86	86	5
59	60	4
90	90	5
87	90	2
70	71	2
44	45	4
68	77	3
78	103	2
74	76	3
73	110	2
44	44	1
107	108	2
82	85	1
54	54	6
96	100	4
91	91	7
20	59	1
40	40	4
41	49	1
33	35	3
24	86	3
30	30	6
51	86	3
99	99	6
46	47	1
51	51	1
88	89	1
83	96	1
21	74	3
34	36	1
79	104	1
20	21	4
85	98	2
62	63	3
92	99	2
62	92	2
51	52	1
60	85	2
68	76	1
56	61	2
37	109	1
101	101	2
36	109	2
23	23	3
90	91	4
72	73	3
86	90	4
22	39	1
109	109	9
43	44	4
54	58	3
103	104	3
102	110	2
39	39	2
114	114	2
72	72	6
91	110	2
111	112	3
80	98	1
83	89	3
51	69	2
47	48	8
41	42	2
82	102	1
63	64	4
53	66	1
36	39	1
92	92	2
93	99	1
56	96	1
53	60	1
36	36	1
60	86	1
104	105	1
83	86	1
61	68	2
61	62	2
57	57	2
82	83	1
64	64	2
34	34	4
24	26	1
84	89	1
55	97	3
42	43	1
31	32	1
97	98	2
28	28	1
89	103	2
66	76	1
21	22	1
37	38	1
51	88	1
80	113	2
37	37	3
79	81	1
62	68	1
78	79	3
25	32	2
20	60	1
52	53	1
62	93	1
44	49	1
59	59	2
23	24	1
68	73	1
81	84	1
73	74	2
60	96	1
25	26	1
21	40	1
54	55	1
54	110	1
81	81	2
61	61	1
71	83	1
31	111	2
84	85	1
60	61	1
