17	27	3
81	81	27
51	51	29
83	83	15
79	79	15
19	19	26
9	9	30
73	73	9
62	62	4
5	6	5
23	23	18
24	24	28
0	0	6
63	64	7
5	5	14
66	66	31
26	26	24
65	66	12
88	88	12
8	14	2
50	50	16
84	84	24
48	49	16
88	89	6
71	81	3
75	78	1
12	12	27
61	61	11
85	86	5
52	72	3
67	67	26
15	15	9
68	68	20
14	14	10
90	90	1
7	8	6
64	64	27
22	23	3
25	25	13
47	47	24
48	66	3
87	87	11
55	82	3
50	51	11
63	63	6
75	75	34
55	55	14
7	7	10
57	66	2
4	4	27
71	72	5
72	72	9
10	53	3
11	68	3
22	22	13
85	85	18
3	50	2
72	73	2
13	13	28
77	78	12
51	52	2
59	59	18
34	34	7
16	17	5
58	59	2
56	83	7
6	6	29
58	58	16
21	21	4
20	20	20
2	80	2
11	11	17
76	76	21
82	82	15
56	56	16
52	52	12
10	10	16
56	82	8
3	3	19
59	60	11
78	79	10
49	49	21
78	83	2
27	28	3
54	54	11
31	31	18
75	76	8
57	84	4
24	25	12
46	46	3
85	87	2
57	57	31
84	87	4
53	54	6
48	55	1
17	17	13
5	25	2
77	77	15
27	27	15
15	24	6
48	48	25
69	69	13
77	87	4
80	85	2
63	85	1
56	81	3
52	82	1
84	86	6
53	76	1
1	1	13
28	29	1
54	56	11
86	86	9
4	16	6
60	60	10
71	71	9
25	26	5
19	20	10
53	53	18
29	29	7
81	83	5
30	30	18
6	7	6
77	80	5
57	69	4
4	23	4
53	81	3
53	60	1
69	85	1
84	85	11
74	84	2
75	84	2
75	77	1
13	25	3
47	48	2
65	65	18
10	12	3
11	12	6
50	62	2
6	15	1
24	31	3
2	30	3
22	24	4
80	80	6
16	16	2
54	55	10
8	10	6
8	8	11
34	47	2
17	20	9
23	24	5
70	70	9
6	26	8
9	10	15
58	62	4
18	18	4
78	78	10
7	16	3
13	46	3
52	61	1
8	17	2
9	12	1
5	13	1
74	74	32
89	89	1
61	62	9
78	80	4
68	85	2
13	26	1
20	87	2
55	56	1
74	79	1
60	65	1
50	53	4
83	87	3
8	9	3
51	62	2
2	2	8
21	33	2
52	80	1
28	28	4
3	17	2
46	47	2
64	68	1
14	46	1
8	26	1
51	81	1
69	81	2
20	21	2
82	87	1
4	5	2
25	66	1
68	69	1
55	65	1
34	35	9
3	57	1
79	83	1
52	53	4
26	63	1
52	64	2
9	13	2
59	63	6
51	63	4
7	23	3
82	83	2
49	54	1
77	79	2
49	50	3
3	4	2
22	53	1
62	63	1
18	58	1
67	86	3
59	62	1
9	25	3
73	74	3
52	76	1
52	62	3
3	20	1
76	77	4
56	57	1
6	22	3
48	54	1
23	48	1
70	71	1
21	23	1
50	52	1
23	25	1
67	69	2
60	61	1
22	54	1
57	77	2
56	66	1
23	26	2
75	87	1
13	31	1
19	23	1
6	23	1
80	81	1
53	55	2
12	13	1
79	88	1
4	10	1
22	61	1
89	90	1
7	46	1
26	27	1
71	80	1
67	68	1
7	17	1
29	30	2
