94	94	15
69	93	2
27	27	4
53	53	7
116	116	13
119	120	8
104	104	4
21	21	3
102	102	6
11	11	5
5	80	8
103	104	2
14	14	6
53	144	1
62	63	7
76	91	1
105	105	8
72	72	11
120	120	17
83	83	8
60	60	10
109	134	1
8	8	21
50	65	1
128	128	11
58	58	4
56	56	4
39	40	6
9	9	14
104	105	7
92	92	17
133	139	4
118	118	14
6	93	4
87	87	6
106	106	4
139	139	14
20	21	10
55	56	3
126	126	16
12	12	6
115	115	21
136	136	4
12	35	4
96	97	1
14	15	7
125	125	8
73	73	4
34	62	1
1	43	2
35	36	2
126	127	3
117	117	18
29	30	1
10	10	6
54	54	6
98	131	5
71	71	4
63	64	7
90	98	2
47	57	2
59	71	5
67	67	11
22	23	6
106	140	3
137	137	3
66	66	11
23	33	4
81	81	13
63	63	10
50	78	1
137	138	7
29	49	4
113	114	6
24	50	5
42	42	8
131	133	2
107	107	6
1	96	2
13	14	6
20	20	17
68	68	12
57	126	4
121	121	6
39	39	10
142	143	2
143	143	3
119	119	10
138	138	6
8	48	1
129	130	2
110	110	12
119	136	2
65	65	7
15	15	15
13	13	3
89	119	1
145	145	17
46	47	1
48	48	7
16	16	11
126	130	1
92	93	3
88	88	11
132	132	16
69	70	5
114	115	4
134	138	1
77	78	3
20	55	3
40	40	4
144	144	11
111	111	4
30	30	12
84	95	3
108	109	2
81	124	1
74	74	3
37	43	3
78	78	5
82	82	15
37	38	7
31	31	3
57	57	12
141	142	8
56	74	3
62	62	9
63	71	6
70	70	7
30	126	2
59	98	2
117	120	6
90	90	5
75	75	10
130	130	15
61	61	12
49	49	5
138	139	7
55	55	6
89	89	3
36	36	4
135	135	7
84	84	8
114	114	7
123	124	7
5	5	5
73	74	1
74	75	4
136	138	9
133	133	18
141	141	18
140	141	5
139	142	3
26	26	19
50	64	3
123	123	10
76	96	1
28	122	1
131	131	13
88	98	1
103	103	5
23	23	19
109	110	11
101	101	2
30	32	4
80	80	19
30	124	5
142	142	6
113	132	4
59	59	9
140	142	4
124	124	5
90	92	6
19	19	5
110	113	1
112	113	4
56	79	6
31	32	10
77	109	2
18	18	11
133	134	1
34	35	4
9	10	7
51	52	8
133	140	2
64	68	4
35	70	1
24	25	4
28	28	6
50	50	8
1	102	2
29	121	1
51	140	1
138	141	1
41	41	8
130	131	3
29	29	11
63	109	1
65	66	4
8	42	5
2	3	6
69	69	16
109	109	2
129	129	6
97	97	8
23	26	1
43	47	9
85	86	4
6	6	13
22	22	14
112	112	3
104	140	7
52	52	4
127	133	6
140	140	9
93	93	13
120	121	7
100	100	3
70	71	2
68	72	1
91	91	2
49	107	2
95	95	14
4	85	5
59	60	5
35	56	1
66	67	2
38	38	6
117	143	2
18	19	2
30	60	2
59	61	4
113	113	5
27	29	4
99	99	6
64	64	8
1	1	3
31	73	2
118	120	3
122	122	2
27	28	2
24	26	2
25	25	6
51	67	1
15	16	1
91	118	3
41	82	3
48	49	2
54	120	1
91	108	1
17	19	4
124	125	2
36	39	1
105	106	2
114	116	3
71	72	3
95	96	2
49	62	1
2	2	5
51	51	5
12	13	6
134	134	14
30	31	3
96	96	2
72	97	5
75	76	1
55	76	5
98	113	3
48	53	1
43	43	3
1	95	7
33	34	3
52	53	1
34	36	2
77	80	2
122	123	3
122	124	2
4	77	3
134	136	3
35	35	13
98	98	2
101	102	1
135	138	3
52	64	4
34	34	9
38	121	3
16	76	2
136	137	3
87	127	3
74	105	2
50	109	2
87	88	2
66	73	1
49	64	5
146	146	4
81	82	3
108	108	4
132	133	3
87	90	2
33	41	7
65	90	1
8	9	2
0	103	1
40	41	5
17	17	8
0	0	3
41	42	1
91	92	1
66	68	4
37	55	3
37	37	9
79	79	4
53	54	6
63	97	1
121	122	4
25	26	1
59	63	1
111	119	3
74	96	1
33	33	9
4	5	2
26	102	3
77	77	3
63	98	2
55	74	2
66	101	2
19	20	3
119	139	1
54	68	3
32	97	1
83	119	2
104	109	3
91	127	3
92	94	1
47	47	6
109	132	1
10	106	2
6	84	3
3	3	3
3	85	5
135	136	2
107	108	4
110	132	2
54	75	2
60	61	5
42	43	1
82	106	1
127	141	1
127	127	7
6	75	2
1	92	1
121	123	1
110	114	1
83	85	3
82	90	2
2	4	6
121	143	1
32	33	4
24	101	1
28	30	2
131	137	2
85	107	2
65	68	1
116	118	6
86	107	3
139	140	1
93	94	3
64	69	2
129	132	1
29	124	2
29	50	1
23	32	1
24	24	5
0	95	1
135	141	3
74	86	1
21	36	3
128	129	2
94	95	3
104	141	2
62	97	1
117	133	2
75	77	3
10	11	3
1	81	2
53	61	3
118	119	3
52	105	1
32	129	1
69	71	3
35	43	3
76	77	2
89	90	3
84	85	2
14	16	1
116	117	1
19	81	1
23	24	3
117	134	1
6	13	1
88	91	2
4	83	1
50	52	1
14	63	1
47	56	1
65	100	1
60	90	2
94	96	1
102	130	2
20	110	1
64	67	1
114	140	1
113	115	1
82	101	3
85	92	1
118	140	1
81	90	1
40	42	1
74	97	2
32	32	2
82	100	1
23	124	1
65	89	1
102	129	1
107	139	1
101	123	1
88	89	1
81	102	1
26	103	2
1	11	2
8	104	1
58	62	1
108	132	1
50	67	2
86	87	1
31	62	1
2	5	1
102	103	1
111	118	1
120	126	1
19	61	1
26	80	1
68	69	2
85	105	1
106	107	3
59	84	2
72	73	1
31	129	1
98	138	1
49	50	1
126	129	1
5	106	1
53	131	1
4	97	1
34	37	1
23	143	1
99	131	1
63	78	1
63	79	1
17	42	1
41	100	1
75	95	1
15	21	1
31	128	1
82	83	1
67	94	1
34	51	1
6	103	1
131	132	1
73	77	1
109	133	1
76	76	1
80	82	1
47	55	1
12	95	1
38	122	1
