100	100	28
126	127	5
18	19	2
113	113	8
87	87	16
114	114	8
76	76	16
4	5	17
111	111	9
126	126	3
34	35	15
111	123	7
38	39	5
47	47	23
9	24	3
81	81	25
82	83	8
70	71	2
106	106	6
46	46	17
93	114	2
26	26	16
129	129	22
8	43	1
82	82	13
37	38	7
43	43	15
106	123	1
103	104	6
104	104	11
40	40	13
26	47	10
3	101	6
9	9	14
96	96	16
120	120	24
30	60	3
68	68	22
127	127	6
78	79	8
32	32	31
0	0	7
64	64	23
45	45	16
49	49	12
23	23	10
71	71	13
121	121	9
113	134	3
59	59	6
57	57	8
95	95	30
15	16	15
55	131	1
73	73	20
94	94	28
126	130	8
60	60	10
62	62	10
70	70	7
19	19	21
76	79	2
131	132	3
30	30	34
61	61	18
22	129	3
8	11	5
34	34	22
17	17	2
63	63	17
27	28	11
71	72	5
130	131	4
35	35	28
44	44	20
20	33	6
108	108	5
41	43	3
77	77	24
98	99	1
43	59	1
39	39	9
103	103	10
110	110	14
95	96	11
124	124	10
63	104	5
79	79	12
27	46	2
66	66	18
93	98	3
22	22	4
14	14	10
40	59	2
88	90	2
12	12	17
30	43	3
20	21	12
123	125	3
122	123	1
58	82	2
10	11	4
117	121	5
63	108	2
80	80	12
37	37	6
125	125	9
87	94	4
8	8	26
90	90	7
36	36	6
101	101	12
11	11	44
87	92	6
128	128	18
104	105	4
29	48	1
83	84	3
78	78	23
102	102	9
70	119	5
5	22	5
57	82	4
13	13	11
74	74	21
83	83	14
31	31	5
2	2	11
5	5	12
85	85	27
125	131	1
15	15	16
27	27	12
83	114	5
42	81	2
82	119	3
85	125	2
87	88	6
29	44	5
3	27	2
37	48	3
69	69	29
48	48	16
99	99	13
116	116	14
131	131	9
39	43	2
21	21	12
98	113	8
65	65	25
10	21	3
17	18	2
75	75	17
86	96	2
77	83	6
130	133	1
38	38	10
18	18	5
127	130	1
46	47	7
36	38	4
31	36	5
92	93	6
7	45	2
38	81	6
92	92	11
6	7	5
25	119	4
40	41	7
30	93	8
66	67	14
121	122	3
4	131	2
74	75	2
97	97	12
33	36	4
6	6	18
42	42	8
58	59	7
74	76	6
134	134	5
63	65	1
88	88	7
79	82	7
26	119	5
10	75	3
8	77	2
28	28	17
26	32	1
41	42	3
12	14	4
113	116	2
41	83	2
11	81	9
45	46	3
22	27	1
56	56	11
123	123	9
10	17	5
27	30	3
31	39	1
3	47	1
50	50	8
86	86	26
11	12	6
69	70	1
24	117	1
3	84	2
75	77	6
78	130	1
95	99	8
77	79	3
40	43	1
22	33	4
127	133	2
72	73	9
25	26	8
33	33	9
8	60	2
96	97	2
61	62	1
132	132	4
11	25	6
32	62	1
48	49	5
98	102	3
100	101	3
21	35	3
13	14	2
30	31	13
10	12	4
11	92	5
113	114	3
26	82	1
112	125	1
84	84	7
7	50	1
86	94	5
5	6	6
77	78	2
96	99	4
62	93	1
45	61	4
87	109	3
95	107	4
3	3	13
132	133	10
28	66	3
110	112	2
78	80	7
23	61	1
10	10	10
29	62	4
80	108	2
84	85	1
74	77	2
72	72	9
26	27	4
10	66	7
8	101	1
65	66	6
67	67	19
65	78	1
54	55	2
55	55	3
13	15	5
22	36	2
84	115	3
24	34	4
107	107	10
79	80	7
29	29	11
40	50	2
48	50	7
94	99	3
7	7	9
60	128	7
39	41	4
105	105	3
5	99	2
4	38	1
89	89	3
63	74	1
65	96	1
88	93	2
9	10	6
110	113	1
67	69	4
38	42	1
80	126	1
77	82	3
118	118	8
20	44	3
12	13	3
4	129	6
12	16	1
18	20	2
120	121	4
41	41	5
25	78	3
26	120	2
93	93	11
112	112	9
91	91	9
24	123	5
33	34	2
4	121	4
28	41	2
21	42	2
98	98	13
32	77	1
32	33	3
61	76	3
124	126	2
133	134	5
25	80	1
104	112	1
55	56	4
1	1	4
119	119	7
20	20	11
7	19	2
58	58	7
120	125	6
64	105	1
115	116	2
81	82	4
28	29	5
11	77	2
4	4	8
6	101	1
75	76	3
94	95	4
38	85	1
14	58	2
12	34	3
20	84	1
80	82	1
37	81	2
91	92	4
24	24	8
69	90	1
16	16	10
84	114	1
27	45	5
85	90	5
14	16	2
117	117	3
63	105	2
45	70	3
31	32	3
36	49	1
79	108	1
130	130	5
43	80	3
56	57	2
100	105	1
34	36	2
63	95	3
36	37	2
60	129	5
62	69	1
82	134	1
49	95	1
110	111	1
114	123	1
87	91	1
23	35	1
128	129	2
25	93	2
44	65	3
97	123	1
6	84	1
42	55	3
5	47	1
76	99	1
90	92	1
10	34	2
83	112	1
5	84	1
51	132	2
10	14	5
58	60	2
23	24	6
97	98	4
123	124	4
31	77	2
133	133	4
40	44	2
8	35	3
109	109	1
128	130	2
37	40	2
35	62	4
80	85	3
63	76	1
24	25	1
89	90	1
11	93	2
36	47	3
27	93	5
99	100	3
42	80	2
20	22	1
12	45	2
44	45	2
6	21	1
27	119	2
86	95	3
9	79	1
93	94	4
3	14	2
115	115	3
83	119	10
1	2	2
39	40	2
76	86	1
79	127	1
88	128	2
99	110	1
63	109	1
20	36	1
127	132	2
129	131	3
43	46	2
18	71	1
59	60	1
4	51	2
77	134	2
71	117	1
63	64	1
25	25	2
112	121	1
100	111	1
3	39	2
39	42	3
23	25	1
68	69	1
43	48	3
11	80	2
128	131	1
57	58	4
7	44	1
26	48	1
117	119	1
113	125	1
43	44	1
85	126	2
13	93	2
30	78	1
62	63	1
56	78	1
25	27	1
78	82	1
42	43	2
18	36	1
35	36	1
19	35	1
44	70	1
9	50	1
126	131	1
28	44	1
29	59	1
62	87	1
21	45	1
90	124	1
61	74	1
94	114	1
21	22	1
27	57	1
37	125	1
8	12	1
78	134	1
21	43	1
35	75	1
30	56	1
124	125	1
