136	136	11
52	61	4
66	70	7
123	131	4
75	79	3
50	100	1
58	71	3
1	43	1
9	20	1
73	73	1
68	68	3
100	100	2
50	50	6
35	35	2
37	37	10
13	33	5
9	10	2
38	38	9
84	84	5
24	25	1
108	108	8
12	13	4
67	68	3
39	39	4
130	130	10
18	20	1
111	111	12
85	111	1
18	18	13
131	136	3
81	127	2
123	123	4
141	141	6
127	127	14
125	127	4
119	119	7
118	118	4
36	37	5
138	138	9
75	110	1
112	112	4
133	134	2
26	26	2
6	10	2
39	40	3
60	60	5
9	9	8
133	133	12
49	49	11
114	114	7
82	82	7
52	52	9
21	22	6
121	124	2
115	115	4
55	55	8
78	78	9
54	55	5
64	64	2
108	121	2
114	115	4
75	75	5
36	36	11
54	54	3
99	99	8
51	51	9
131	132	5
121	121	3
97	106	3
74	75	5
39	70	3
128	128	15
71	72	1
85	106	2
84	85	4
131	131	3
99	111	1
48	48	5
82	104	1
50	61	3
17	17	4
124	124	8
53	54	12
116	142	3
104	104	4
130	132	6
62	63	3
58	61	5
76	76	9
80	80	6
20	20	4
65	71	1
91	91	9
82	99	4
70	70	6
78	79	6
142	143	5
5	5	1
50	60	4
6	9	3
25	25	7
95	95	4
126	126	11
27	27	5
113	115	7
47	47	2
117	117	2
52	88	2
114	131	3
93	94	4
127	136	2
5	18	2
72	73	4
33	34	2
134	134	14
10	10	5
50	62	2
67	67	10
134	138	3
2	40	3
131	135	2
69	70	1
118	125	1
65	65	3
33	33	1
26	38	1
106	106	1
97	97	4
24	24	5
117	129	4
126	131	2
135	139	1
15	15	2
61	73	1
59	141	1
80	81	5
91	111	1
136	138	2
109	116	3
87	87	3
109	112	1
12	53	1
64	84	3
56	80	1
50	51	3
101	101	5
65	117	3
120	120	7
119	120	3
104	105	3
10	36	1
116	116	3
1	10	3
74	74	3
124	140	1
122	123	3
39	41	6
90	105	3
103	104	2
60	120	3
49	50	2
120	123	2
47	48	2
96	96	2
139	139	4
20	21	4
58	69	2
40	88	5
57	71	2
99	127	1
78	87	6
6	6	11
25	38	2
26	32	1
128	129	1
131	137	1
88	112	1
12	12	3
79	124	3
40	41	1
4	16	2
94	94	3
139	140	2
29	29	11
93	93	1
43	43	2
31	47	1
2	2	3
21	32	1
21	42	2
3	3	6
101	102	5
60	77	1
101	126	1
35	47	2
61	61	4
59	59	13
97	112	2
24	35	1
122	138	2
28	28	6
28	29	1
141	142	2
43	75	1
64	117	3
42	42	2
0	0	3
60	139	2
117	118	5
86	100	2
14	15	3
4	43	4
122	122	6
11	11	3
88	88	3
126	127	7
53	53	3
102	124	2
4	33	1
138	139	2
129	130	2
14	16	3
30	32	1
32	33	2
55	56	1
12	19	1
57	144	1
41	41	5
137	137	5
31	31	5
125	126	1
49	110	1
137	140	3
19	19	2
63	63	2
90	107	1
62	118	2
36	42	1
144	144	2
14	50	2
34	34	3
21	21	3
98	98	4
58	58	1
105	106	1
57	74	3
57	57	2
23	23	2
97	107	1
8	14	1
125	125	5
69	69	3
25	26	1
117	134	3
57	75	1
67	121	1
67	69	1
71	75	1
72	82	1
80	82	2
65	69	2
132	132	1
135	136	5
4	4	1
79	94	3
89	99	1
118	119	1
81	82	1
88	89	1
58	59	1
117	119	1
30	30	1
16	16	1
22	22	1
123	124	2
85	107	1
61	121	1
62	64	1
121	131	3
19	30	2
98	105	1
32	32	1
83	84	1
22	28	2
1	1	2
21	53	1
55	75	2
34	65	1
114	127	2
99	101	1
56	61	2
72	72	2
4	5	2
76	80	1
11	41	4
64	65	2
81	99	1
67	72	1
62	62	4
47	73	1
1	3	1
109	110	1
122	124	3
12	32	3
76	77	3
8	8	4
93	99	1
3	4	1
55	74	2
10	12	1
56	56	2
19	40	5
96	98	1
38	90	1
79	79	2
56	110	1
89	115	1
121	140	2
9	21	1
76	78	1
102	104	1
13	26	1
1	2	1
38	39	1
4	14	1
57	72	3
28	61	1
120	121	2
10	11	1
77	78	2
117	137	1
86	86	1
105	105	2
38	42	1
127	128	2
133	135	1
81	81	2
129	133	1
113	113	1
140	140	1
52	53	1
65	72	1
95	98	1
121	133	1
25	40	1
66	67	1
82	87	1
56	112	2
146	146	1
101	142	1
69	91	1
35	36	1
40	74	1
109	114	1
110	110	1
142	142	1
56	86	1
20	33	1
139	141	1
13	13	1
58	116	1
57	58	1
92	94	1
54	56	1
85	113	1
117	122	1
92	93	1
56	57	1
66	66	1
