26	26	7
76	76	4
36	36	5
88	88	13
37	37	11
92	92	4
23	23	5
33	34	14
36	37	6
72	72	7
84	84	3
58	58	11
62	63	7
60	101	3
40	40	15
97	97	10
81	81	14
48	48	11
88	90	3
22	89	3
92	94	8
91	91	11
30	57	1
32	95	2
71	71	7
30	30	6
95	95	12
44	44	6
93	94	2
64	64	5
34	35	4
75	75	6
24	30	4
52	52	3
74	74	8
66	72	4
56	57	2
25	25	4
67	67	7
87	87	6
35	36	2
39	61	1
94	94	13
55	55	11
59	59	18
102	102	5
71	73	3
79	89	2
28	28	5
26	27	10
60	61	6
50	59	2
101	101	16
89	89	8
24	24	17
96	100	4
54	54	10
83	83	6
38	39	10
84	86	1
30	94	4
69	103	2
29	29	5
69	69	7
104	104	9
53	53	4
48	49	7
94	95	11
56	56	5
38	38	5
59	60	3
45	49	1
103	103	5
20	21	3
100	101	4
65	65	2
98	98	7
78	79	4
59	65	2
45	45	12
35	93	2
56	72	1
22	22	4
100	100	5
37	39	5
39	41	3
43	43	9
101	102	6
51	51	12
69	75	4
71	72	5
86	86	4
35	35	9
49	86	3
96	96	8
79	80	8
42	65	4
52	53	4
28	40	2
45	93	3
68	68	5
50	50	2
50	51	3
61	62	7
83	84	7
40	43	2
73	73	10
21	23	2
21	21	7
107	107	2
28	62	2
78	78	4
39	39	8
28	30	5
22	38	1
85	85	3
74	75	3
94	96	2
47	47	4
39	42	3
29	30	2
30	31	2
54	75	2
69	70	2
77	78	1
46	48	2
36	59	1
49	49	7
53	68	3
63	63	11
96	97	2
89	90	4
41	41	4
31	31	4
43	44	1
106	106	6
66	66	5
34	34	6
79	81	2
30	40	1
27	27	3
23	88	2
45	86	3
24	65	4
57	58	1
55	60	6
60	60	19
80	92	2
23	35	2
55	59	4
73	75	3
62	62	1
85	87	2
24	61	1
59	66	1
76	77	1
47	48	3
58	101	2
58	59	2
97	98	3
80	81	2
105	105	2
42	42	3
70	74	1
99	99	1
46	47	4
93	93	1
24	60	2
42	44	1
41	42	1
60	106	2
74	76	2
58	60	2
61	61	3
83	92	1
80	80	4
45	58	4
22	41	1
90	90	5
58	66	1
41	44	1
56	61	1
83	87	3
26	57	5
52	92	2
23	69	1
68	79	1
35	50	1
53	54	1
29	34	1
40	41	4
41	66	1
71	77	4
61	63	1
65	66	3
30	61	2
82	82	3
23	83	4
68	69	2
85	86	2
28	31	1
88	89	2
21	22	2
47	81	1
75	76	1
54	68	1
83	86	1
67	68	1
27	99	2
83	107	1
69	74	1
66	67	2
39	46	1
70	70	1
38	40	1
97	99	3
21	24	2
51	52	2
46	49	1
45	89	1
54	84	1
70	71	1
95	96	1
79	79	1
37	38	1
24	59	1
45	57	1
