0	0	5
3	3	13
27	27	14
16	16	1
6	6	11
9	10	2
72	72	3
13	19	3
12	12	11
78	79	7
58	58	6
18	18	4
48	55	6
8	12	2
3	4	2
73	73	8
82	83	10
67	67	11
86	86	10
9	9	4
7	8	5
23	24	2
25	25	6
10	10	9
88	88	12
1	1	9
81	81	11
49	49	10
79	79	4
77	83	1
61	62	13
19	19	15
17	17	13
4	15	1
57	57	19
90	90	3
11	11	14
34	34	13
63	63	9
24	24	5
50	51	5
56	56	8
9	23	5
28	28	3
75	77	4
25	26	6
80	80	6
52	52	5
46	47	1
87	87	6
15	15	6
51	51	18
54	76	2
48	49	3
53	53	9
75	85	2
77	77	4
55	55	7
82	82	7
5	6	9
50	50	8
79	80	4
61	61	11
74	74	6
8	25	1
71	71	5
72	73	5
53	54	2
78	78	13
9	25	5
89	90	2
23	23	1
51	52	4
10	11	12
51	80	2
68	68	12
83	83	5
8	11	1
33	34	2
54	54	22
2	2	4
8	8	6
11	74	1
9	13	2
74	75	4
7	7	5
70	70	1
58	59	2
54	66	4
59	60	7
66	66	4
4	4	12
64	64	6
30	30	3
52	53	3
49	83	4
62	62	9
72	74	3
9	81	2
8	10	9
72	75	2
75	87	2
60	63	1
5	8	4
34	35	3
78	83	2
79	81	2
6	7	7
48	48	5
65	65	7
8	79	1
59	77	3
35	35	1
50	83	2
63	67	2
59	59	6
11	18	2
8	81	1
71	73	4
26	26	7
53	67	1
54	87	3
83	84	4
57	68	3
54	56	1
71	81	2
47	47	1
56	73	6
18	58	1
31	31	4
84	87	1
48	83	1
26	27	2
10	21	1
76	76	2
70	81	1
74	78	2
29	29	4
9	27	3
48	81	2
54	55	1
74	79	4
68	69	2
23	27	2
20	20	5
57	75	1
47	48	2
52	66	1
55	66	1
12	13	1
69	69	7
85	85	5
56	70	1
49	72	1
52	54	2
17	18	1
46	46	1
55	63	2
60	60	3
74	86	1
75	75	2
60	66	2
14	15	3
50	84	1
81	82	1
59	79	1
13	13	2
89	89	2
63	66	1
48	50	1
62	63	3
78	80	2
84	84	10
8	21	1
32	32	1
72	84	2
12	31	1
2	29	1
14	19	2
59	63	2
16	52	1
74	80	1
59	62	1
76	77	2
63	65	1
5	24	1
56	66	1
14	14	1
59	76	1
29	30	1
75	84	1
1	2	2
56	57	2
49	50	1
0	1	1
24	30	2
10	47	1
9	21	1
29	67	1
21	21	1
77	79	1
53	55	1
17	22	1
10	14	1
