93	93	17
47	48	16
24	25	1
25	25	22
37	37	11
72	72	10
104	106	1
73	74	10
69	69	8
61	61	22
82	82	9
45	45	8
62	62	12
60	60	20
30	30	21
28	28	18
43	43	8
83	83	4
53	54	10
40	44	2
78	78	4
22	22	25
46	46	18
50	50	15
21	21	12
92	92	19
92	95	5
95	95	8
91	91	13
76	76	13
39	39	11
87	87	19
42	45	3
74	74	9
79	84	4
65	65	10
26	28	7
22	23	5
33	33	14
64	65	4
79	80	7
32	32	10
37	38	5
66	66	9
32	46	1
70	72	7
64	64	21
71	72	15
75	75	8
37	91	5
59	78	2
63	63	7
31	33	5
66	92	3
23	23	10
79	79	13
84	85	12
36	54	4
27	27	12
20	21	15
79	82	5
79	94	2
67	67	10
68	68	27
79	81	7
98	98	20
61	62	5
42	42	9
45	46	3
104	105	4
44	45	3
47	47	11
30	33	3
58	83	1
40	45	1
58	58	10
77	77	9
41	50	3
46	49	5
94	104	3
101	101	11
34	34	9
94	94	15
89	99	1
60	88	5
85	86	8
63	87	6
56	56	10
43	44	3
53	53	12
52	52	8
103	103	15
77	78	7
37	61	2
96	96	8
38	38	6
80	80	8
75	76	3
33	56	1
44	44	9
46	47	5
40	40	10
26	27	4
41	41	8
39	75	3
40	41	2
85	85	7
90	99	2
78	86	2
80	81	7
82	107	1
37	92	4
65	81	2
36	36	5
57	57	14
28	29	5
38	39	7
93	94	3
62	63	6
39	47	3
62	78	2
70	70	11
37	39	5
86	86	14
94	95	3
65	66	4
99	99	9
77	79	1
48	49	2
99	100	3
57	58	3
89	90	4
88	88	6
78	106	1
27	28	3
26	26	6
48	85	2
57	60	2
68	70	4
78	90	1
49	49	8
29	29	10
40	42	3
35	36	6
104	104	8
47	49	3
70	71	4
56	57	6
41	49	1
35	35	12
71	71	11
31	31	16
51	52	6
32	53	2
97	97	11
81	81	8
82	83	1
52	53	5
39	89	3
66	98	1
106	107	1
43	79	1
59	99	1
86	87	4
25	26	3
50	51	4
43	106	4
28	32	3
60	77	2
88	89	3
89	97	1
98	100	2
100	100	4
88	90	3
51	51	5
95	97	1
64	100	4
60	84	5
59	59	9
102	102	12
96	97	5
55	55	5
68	69	4
94	96	2
82	90	2
62	100	1
107	107	3
56	87	1
69	70	3
50	55	1
62	86	3
24	24	6
58	60	5
73	73	10
101	102	2
97	98	7
31	32	5
40	59	2
76	77	2
105	105	9
66	95	3
71	75	3
80	82	4
63	90	1
106	106	1
58	62	4
89	89	4
90	90	1
65	70	3
32	34	4
48	48	9
83	85	6
38	40	3
83	89	5
69	71	2
86	89	1
51	97	1
58	61	1
34	35	3
90	91	1
56	84	1
35	37	1
60	87	2
42	44	5
95	96	5
59	90	2
59	60	2
42	91	3
33	34	8
36	53	1
72	73	1
80	88	1
26	29	1
27	29	2
55	57	2
46	50	1
58	59	2
42	88	1
58	84	1
63	83	1
43	45	2
98	99	6
35	54	6
61	78	2
58	87	1
83	84	3
82	95	3
41	90	2
67	68	2
42	43	2
92	96	2
59	88	3
83	86	1
20	20	4
62	64	3
49	50	1
50	56	3
88	91	1
94	105	1
61	87	1
37	42	2
41	59	1
96	99	1
76	92	1
84	84	2
23	27	2
84	86	1
46	56	1
24	26	1
92	94	1
81	98	1
81	82	1
64	68	2
46	48	1
37	51	3
59	61	1
61	63	2
76	82	2
91	92	2
82	88	1
89	91	2
31	89	1
78	99	1
37	40	1
65	69	1
66	94	1
35	75	1
70	106	1
74	75	1
95	104	1
22	26	1
36	42	1
80	96	1
83	98	2
81	94	1
43	107	1
65	67	1
28	102	2
100	102	1
92	93	1
62	83	1
33	52	1
63	64	1
41	42	1
78	79	1
48	89	1
90	92	1
21	22	1
58	89	1
35	55	1
78	98	1
62	79	1
82	96	1
39	49	1
50	88	1
54	55	1
