219	219	12
53	53	8
117	117	10
156	156	19
49	49	7
85	85	6
88	89	4
220	221	3
56	56	13
110	110	23
22	22	10
211	211	4
63	63	6
242	242	7
54	66	1
219	225	1
219	247	5
12	12	14
229	231	2
52	52	11
202	203	2
76	77	3
163	163	7
44	45	6
237	237	13
240	241	3
205	207	1
220	220	14
29	29	13
116	116	4
31	31	12
234	234	14
195	195	7
163	165	6
229	229	8
180	181	6
165	165	18
61	87	1
180	180	8
245	246	8
120	120	7
7	7	8
169	207	2
17	17	8
233	233	6
153	169	2
32	32	7
56	100	2
217	231	1
19	20	4
187	187	13
203	203	12
57	57	8
4	12	2
79	79	15
54	54	10
88	102	3
201	201	12
200	200	14
177	177	12
210	210	6
71	71	5
212	212	3
235	236	4
109	109	12
6	6	10
236	236	6
70	90	4
98	98	7
88	88	18
192	192	3
168	168	7
111	111	3
51	56	1
76	76	3
3	3	12
223	223	4
16	171	1
159	159	5
38	41	1
15	16	3
5	5	6
71	77	2
63	65	2
164	164	22
182	182	5
209	209	9
35	37	3
186	187	2
95	95	7
197	199	2
45	45	16
68	103	3
169	212	2
102	103	8
48	48	9
10	11	3
14	19	2
47	47	13
245	245	9
41	41	9
70	70	4
81	82	5
208	208	14
78	78	12
115	118	5
43	43	10
64	64	16
151	151	21
185	188	2
28	28	5
199	199	1
246	246	6
87	87	8
114	114	9
169	169	12
38	39	3
113	116	7
245	249	2
172	172	7
213	213	7
60	60	8
44	44	14
68	70	1
190	191	2
217	217	9
198	198	5
213	214	4
210	233	2
221	222	5
195	196	1
230	230	9
21	22	3
112	112	14
233	242	3
67	108	1
69	69	1
4	4	12
215	217	5
0	1	7
212	235	4
112	183	5
239	241	10
173	173	8
216	217	4
23	202	1
55	55	14
167	167	12
159	160	4
113	113	14
20	20	3
28	32	2
57	58	8
239	240	2
210	211	3
61	61	4
118	118	14
162	163	1
167	168	12
238	238	17
83	114	1
193	194	4
187	190	6
170	177	3
154	216	2
208	210	4
207	207	8
226	230	1
168	173	3
101	102	1
115	115	6
36	43	3
185	185	8
197	197	6
119	119	9
241	241	9
229	235	3
212	213	7
35	35	4
100	100	2
218	239	3
106	106	10
178	185	3
58	58	16
233	238	1
152	187	2
203	208	3
93	93	7
116	146	3
236	238	5
74	108	3
160	160	6
42	42	5
3	23	5
70	80	4
81	83	2
174	177	6
112	242	3
161	161	7
161	162	1
115	117	5
33	58	3
62	77	1
227	227	7
94	94	5
213	236	1
6	8	5
179	180	2
175	175	11
34	116	4
25	26	5
243	247	4
198	240	3
99	100	8
61	97	3
22	45	5
6	145	2
69	70	3
65	66	8
90	90	5
86	88	2
97	97	9
177	179	5
243	244	1
248	248	4
189	191	3
30	76	2
223	224	3
65	65	6
162	242	4
111	115	3
171	171	8
231	231	3
161	164	2
68	68	3
185	186	3
91	91	12
176	189	4
242	243	4
36	36	1
19	23	1
236	240	3
146	157	3
194	194	6
119	238	1
24	43	2
70	71	2
47	51	2
8	9	5
19	223	1
231	233	2
9	9	8
166	168	2
224	225	1
191	192	9
11	11	9
244	248	5
222	222	5
175	176	6
171	181	2
174	176	2
186	208	2
153	153	14
206	206	10
163	164	4
187	189	1
2	3	1
86	90	2
46	46	7
54	157	1
76	93	2
33	35	1
35	40	1
184	184	10
59	59	5
92	93	5
66	200	3
172	176	2
75	216	2
108	109	5
155	155	9
247	247	8
59	64	5
96	96	7
209	247	2
197	198	11
68	72	1
82	82	10
208	211	1
186	186	6
181	181	11
2	22	1
34	34	6
71	72	1
185	210	1
75	76	5
83	107	3
72	74	2
81	81	6
190	227	3
216	216	5
221	221	3
170	170	11
183	183	7
75	223	1
205	205	15
3	22	1
114	115	1
226	229	1
199	200	4
163	167	2
9	21	2
91	92	6
8	51	5
110	111	5
144	144	3
118	145	2
58	69	4
226	231	1
14	237	1
218	218	3
33	33	5
43	119	3
79	80	1
214	214	5
183	202	1
182	184	1
202	202	4
155	156	1
145	145	8
225	226	3
204	206	2
44	46	2
217	218	4
196	196	9
26	26	6
23	23	10
225	225	8
71	73	5
30	30	11
39	46	2
72	72	5
193	193	7
75	75	7
204	204	10
108	162	2
212	225	2
190	210	1
162	162	5
40	40	6
211	212	1
92	92	4
19	19	7
59	60	2
62	120	2
240	240	11
85	95	1
213	215	3
232	236	1
33	34	1
37	37	11
32	39	1
166	166	14
196	197	2
24	24	3
164	177	2
109	241	1
218	244	2
226	226	8
209	210	2
10	10	5
198	200	1
93	94	6
71	120	1
189	210	2
176	176	5
14	14	4
97	101	2
224	224	3
174	174	2
176	177	10
67	70	1
18	18	5
170	171	2
163	166	4
103	109	3
228	228	2
64	183	3
109	120	1
176	182	1
118	207	2
34	63	2
101	101	2
244	244	12
61	66	6
243	243	4
181	208	1
230	241	3
94	161	2
74	101	2
87	108	1
178	209	3
147	147	1
146	147	4
195	228	5
67	67	7
90	219	1
224	226	4
241	247	6
105	107	1
157	157	10
39	202	3
91	103	1
47	54	2
95	97	7
80	80	7
73	87	1
38	153	1
183	192	3
232	232	1
95	113	3
73	76	2
46	55	4
37	42	1
90	106	2
16	16	10
98	99	1
7	14	4
84	84	6
0	0	2
165	214	3
185	215	4
4	7	1
158	158	9
74	74	8
171	172	1
200	201	5
40	41	1
35	41	1
172	173	1
76	85	2
159	176	4
107	108	3
92	103	2
51	167	2
25	80	3
64	79	1
173	180	1
230	231	5
220	246	2
239	239	4
189	189	1
86	108	2
173	221	3
170	245	2
51	51	1
47	48	2
10	33	2
69	73	1
235	235	5
71	90	4
102	108	1
233	234	4
102	117	2
9	25	1
73	73	3
7	8	1
222	223	1
50	247	1
29	55	3
58	59	1
8	8	5
26	27	4
181	189	2
99	99	6
97	98	2
213	232	1
87	88	7
208	209	5
70	77	1
48	58	3
67	68	2
76	118	3
231	245	1
166	215	1
233	236	1
87	156	1
87	90	1
156	158	3
61	62	4
219	246	1
3	18	4
98	100	1
102	104	1
118	119	5
36	38	3
30	57	1
85	86	3
145	147	3
15	15	3
83	86	1
85	162	3
16	160	2
166	167	2
178	181	2
9	37	3
243	246	2
184	211	1
54	194	2
4	6	2
7	163	4
86	86	2
27	27	2
25	92	3
78	81	2
67	116	1
247	248	2
37	170	3
76	78	1
67	69	1
111	112	2
85	154	7
174	175	2
183	214	1
56	57	1
178	178	4
167	187	1
56	203	1
153	177	2
11	12	2
37	43	1
200	209	2
82	83	2
96	99	1
112	113	3
185	214	3
19	216	2
232	233	5
153	184	2
154	185	1
168	171	1
61	247	1
173	184	2
21	177	1
96	97	1
234	235	1
202	204	1
1	54	1
34	224	3
28	186	2
171	184	1
52	53	2
198	199	2
95	99	1
74	76	2
74	79	3
237	246	2
242	247	1
75	82	2
155	223	1
25	29	3
58	60	1
34	49	2
170	176	2
183	238	1
102	102	2
9	10	2
198	211	1
152	152	7
71	96	3
89	91	3
181	182	3
1	34	4
161	240	1
79	82	1
183	187	2
155	194	1
113	114	2
184	185	1
214	215	2
95	175	1
104	108	1
80	220	1
40	159	1
199	225	4
179	179	4
38	38	3
166	181	3
65	67	1
167	210	1
212	214	2
61	63	1
245	248	1
206	207	1
25	28	2
111	114	1
191	209	1
14	15	2
183	206	1
167	219	2
10	111	2
203	207	1
190	192	2
165	171	2
218	219	2
23	38	1
210	215	1
80	114	3
157	238	2
21	21	4
84	104	2
77	77	3
20	21	1
165	244	1
53	99	2
236	237	1
22	168	1
34	56	1
178	180	1
167	169	3
71	107	1
70	72	1
190	190	2
175	177	1
210	237	2
6	16	1
89	90	2
218	220	3
33	66	1
226	228	1
39	39	2
64	65	1
114	239	5
89	89	1
3	4	1
106	107	2
194	212	2
121	144	1
110	113	1
178	179	2
174	179	1
243	245	1
189	190	2
2	2	3
150	243	1
66	71	2
154	154	4
180	235	1
104	104	1
92	94	1
29	54	1
183	190	1
62	62	2
26	168	1
150	150	2
2	7	1
157	158	1
185	223	1
2	45	1
205	206	1
48	50	1
227	229	2
169	245	1
103	105	1
222	227	1
18	20	1
5	14	1
17	223	1
156	235	2
14	20	1
167	207	1
188	191	1
71	80	1
6	7	1
156	157	1
181	183	2
52	66	1
54	68	1
191	199	1
240	244	1
72	105	1
112	237	1
71	79	1
171	175	1
100	109	1
29	30	1
23	249	2
49	50	1
72	107	1
204	205	2
242	245	1
50	59	2
105	106	1
230	237	1
100	110	1
160	237	1
25	25	1
31	233	1
207	235	1
22	153	1
6	22	2
191	191	3
24	42	2
105	105	1
151	152	1
48	49	1
118	236	2
170	179	1
2	60	1
188	188	2
166	174	1
152	175	1
63	201	1
169	193	1
50	50	2
30	59	1
2	26	1
86	87	1
144	171	1
83	108	1
66	66	1
80	82	1
64	66	1
5	45	1
216	244	1
90	152	1
69	80	1
222	224	1
25	27	1
70	115	1
174	205	1
