59	60	9
61	62	11
11	11	6
82	84	5
49	52	2
86	86	6
6	6	14
68	68	10
24	24	11
88	88	6
75	75	11
87	87	5
85	87	2
15	16	4
70	71	1
62	62	8
12	12	9
60	61	4
67	67	8
80	81	4
85	85	14
6	11	1
9	17	7
77	79	5
82	82	14
4	5	5
23	23	10
89	89	9
13	13	16
34	34	2
10	10	7
19	19	10
54	54	18
14	14	3
76	76	13
49	49	7
8	9	5
53	53	10
7	31	1
29	29	7
81	83	2
8	8	7
57	57	4
8	16	5
5	5	11
68	69	4
58	58	8
79	79	8
64	79	5
81	81	10
20	20	7
64	64	14
63	63	9
46	77	2
78	78	10
49	55	6
22	64	1
25	25	13
54	56	2
80	84	2
59	65	7
81	84	1
46	50	3
70	70	5
49	50	1
24	25	1
4	4	15
74	75	3
52	61	3
58	81	3
84	84	14
55	56	3
59	59	8
46	64	2
63	65	8
17	17	8
80	80	11
7	26	4
61	61	18
26	26	4
60	62	6
50	77	2
6	9	3
13	31	2
54	55	3
25	26	4
9	9	7
50	83	2
66	66	5
27	27	7
73	73	13
55	55	9
49	80	3
31	31	4
73	74	2
12	13	3
9	10	2
8	19	2
22	22	6
56	57	1
65	65	3
18	18	1
60	60	5
21	21	2
79	80	4
2	2	3
71	71	8
72	72	13
8	53	2
58	59	2
53	56	1
19	25	1
62	76	2
50	52	3
47	47	2
77	77	5
5	10	5
62	65	2
83	84	4
7	8	14
10	13	5
49	64	1
53	54	1
51	53	4
64	65	1
61	64	4
3	3	8
50	50	10
69	69	11
86	87	1
70	83	1
2	78	5
4	22	1
90	90	1
59	62	4
56	59	2
23	61	2
5	19	3
53	77	2
81	82	3
58	61	3
50	79	2
51	56	1
79	82	5
4	11	3
55	59	3
59	63	2
34	63	2
24	27	4
6	8	3
52	52	6
52	79	1
1	1	7
35	35	2
46	74	1
8	21	1
6	17	3
49	54	3
10	11	2
56	56	3
51	51	4
51	76	2
5	8	1
74	74	3
6	19	1
0	0	2
54	58	1
52	77	1
14	31	3
8	17	2
7	7	2
72	73	3
24	26	1
65	66	1
53	59	2
48	65	1
83	83	5
46	47	1
48	48	3
4	6	1
53	58	3
21	25	1
46	66	1
76	83	1
16	16	2
51	75	1
84	86	1
49	82	4
49	51	1
71	72	1
50	70	2
3	28	1
46	57	1
82	83	1
78	82	1
15	15	2
13	34	2
31	67	2
22	65	2
80	86	1
50	51	1
9	15	1
48	49	3
17	18	1
6	7	1
62	64	1
78	80	1
54	62	2
23	24	1
50	78	1
86	88	1
61	77	1
28	28	1
65	83	1
69	70	1
85	86	1
53	55	1
49	58	1
23	65	1
51	71	1
52	56	1
15	80	1
46	46	1
74	83	1
