111	112	1
129	129	8
61	61	5
130	130	12
65	74	4
159	159	13
194	194	15
162	162	13
68	75	2
80	80	1
142	146	1
139	139	11
141	142	7
133	134	4
51	52	3
28	30	12
48	48	9
108	108	4
161	164	2
157	158	15
61	65	4
27	27	7
179	183	2
89	89	6
55	55	15
13	37	1
20	25	1
132	133	2
49	49	3
10	12	7
45	46	10
148	149	5
196	196	14
174	184	1
133	133	6
173	174	3
3	27	3
33	33	6
173	173	5
47	47	9
42	53	1
149	149	11
81	81	7
123	123	13
25	36	1
62	63	5
120	120	7
3	29	1
9	15	5
14	15	2
17	17	1
52	52	6
151	151	5
37	38	7
145	145	3
188	188	14
53	54	4
146	179	3
9	10	5
11	50	1
146	177	2
176	177	12
168	168	8
41	41	16
45	45	8
21	21	9
78	78	12
24	28	4
5	5	10
122	122	10
14	14	12
18	26	5
195	195	22
180	180	6
156	156	2
182	182	9
123	125	5
121	121	3
154	184	4
155	176	2
142	149	2
162	163	8
156	157	6
155	186	4
186	186	16
185	185	10
70	71	7
152	157	1
146	146	5
143	143	5
58	58	9
130	131	9
123	124	7
184	185	1
188	194	8
174	174	13
89	122	1
11	23	2
152	153	1
182	183	8
65	73	1
186	187	4
144	145	8
154	154	5
85	86	3
158	158	6
59	61	5
84	84	10
116	117	1
24	24	7
32	32	10
36	66	2
10	43	1
95	96	3
180	185	2
39	39	8
30	30	6
56	56	8
101	103	4
160	160	8
64	64	8
167	167	10
50	51	3
127	127	12
8	8	7
62	62	3
109	109	7
185	186	9
187	187	5
171	172	2
145	146	4
191	191	4
55	56	4
101	118	3
155	156	2
58	64	5
2	3	8
53	53	12
37	37	4
134	135	7
31	31	9
8	30	8
57	58	5
25	26	8
69	75	2
87	87	8
82	82	9
153	153	7
176	178	3
192	193	4
183	183	14
107	107	10
125	125	7
117	120	4
104	123	3
106	107	5
49	50	5
34	34	7
108	111	6
28	29	5
32	45	2
99	99	10
111	111	8
19	19	8
11	12	9
112	113	2
149	168	2
20	20	6
12	12	16
125	126	9
79	80	7
143	144	4
71	71	6
103	103	11
196	197	6
82	84	10
88	88	9
86	87	7
157	157	4
124	125	5
193	193	15
16	16	5
170	170	10
149	150	9
150	151	4
23	23	5
119	119	6
122	123	7
112	112	7
45	49	7
9	52	3
38	56	3
133	136	2
11	11	7
35	35	1
34	35	1
13	44	2
17	20	2
148	152	4
32	44	4
181	193	1
31	33	3
3	3	7
179	179	9
118	118	8
36	69	6
100	102	2
151	174	3
29	30	5
124	126	4
114	114	4
96	133	2
168	169	5
21	22	4
74	74	5
184	184	13
131	137	2
37	64	1
113	113	4
141	141	12
172	172	8
67	68	2
15	15	9
48	49	10
30	31	6
176	176	2
113	114	4
166	166	2
26	26	4
80	81	7
61	62	10
50	50	10
56	57	4
159	177	3
39	40	5
58	63	3
114	123	2
154	185	2
110	110	2
169	169	3
70	70	3
148	148	3
179	181	6
140	169	2
166	168	1
105	105	7
37	183	1
169	170	1
108	110	6
7	7	16
57	63	3
35	36	4
131	131	6
126	126	4
20	21	2
161	162	4
4	4	10
13	13	13
18	18	9
164	165	2
11	14	1
195	197	1
54	55	2
189	189	5
53	185	2
119	124	3
175	175	6
116	116	6
136	137	2
105	106	2
9	9	4
101	101	3
50	157	2
178	179	3
15	18	1
109	111	3
99	100	2
62	72	2
112	116	6
115	115	5
96	96	3
134	134	7
181	181	3
140	141	3
51	51	9
63	63	4
163	163	8
90	90	2
181	184	1
193	194	8
177	186	2
183	184	3
4	5	1
10	10	4
96	97	3
160	176	1
171	171	2
158	192	2
34	65	4
42	42	12
8	12	1
4	16	1
138	140	3
18	31	1
153	154	3
26	30	1
146	153	1
147	148	3
67	67	10
174	175	5
8	53	3
79	79	4
120	121	3
153	155	2
135	136	4
38	38	7
128	128	3
158	191	1
20	34	2
93	95	3
76	76	4
109	110	4
36	36	4
95	97	3
155	155	1
6	39	3
173	175	6
100	100	7
17	18	2
129	130	3
83	83	1
22	23	3
175	177	1
28	28	7
96	98	7
8	11	3
68	69	5
3	18	2
135	137	3
113	115	2
77	78	3
155	184	2
104	106	1
1	1	2
10	11	1
177	177	9
152	152	7
93	96	2
189	190	2
57	57	3
21	166	5
22	34	2
144	172	1
27	28	1
186	190	3
140	140	6
72	73	1
60	68	1
160	165	2
88	121	1
136	136	3
46	46	9
108	137	1
142	142	1
145	147	4
52	53	4
97	133	1
150	150	5
124	124	6
164	166	1
41	42	4
130	132	3
110	140	2
60	60	1
187	188	3
54	54	4
35	64	1
94	95	1
147	147	6
146	148	4
192	192	7
164	164	5
25	25	2
78	80	2
59	59	2
47	48	4
88	90	1
148	150	1
161	161	11
43	43	6
38	55	2
127	128	5
10	14	4
0	1	3
36	37	4
167	168	4
0	2	7
172	192	1
3	4	4
29	31	2
122	125	9
123	126	1
26	27	1
195	196	2
136	138	2
150	183	1
156	162	1
6	6	7
38	64	3
33	41	2
42	43	1
77	81	1
151	152	2
36	79	1
178	178	1
44	44	6
37	39	3
149	169	4
68	68	2
71	72	1
64	66	2
174	191	2
15	16	2
139	141	1
88	89	1
10	13	3
103	104	3
73	73	1
0	6	2
178	186	1
156	161	1
109	140	1
82	133	2
19	21	6
131	145	2
117	118	1
40	42	3
108	138	1
29	29	4
40	40	3
13	14	5
81	82	1
170	172	2
20	170	1
155	172	2
182	185	1
66	73	2
121	122	4
19	20	4
14	37	2
83	84	1
121	163	1
163	164	5
139	172	1
104	105	2
146	181	3
64	65	6
117	117	1
97	97	11
164	172	3
54	84	1
160	162	2
177	179	1
190	191	2
24	26	1
144	144	3
69	69	3
12	13	2
138	138	3
104	104	1
106	106	3
190	190	3
20	166	1
139	143	2
112	118	2
58	59	3
150	155	1
125	137	2
118	120	1
25	40	1
106	131	1
170	171	2
114	120	2
155	174	2
5	7	1
22	26	1
178	180	2
72	72	6
147	157	2
153	173	2
137	138	3
29	32	2
183	185	2
6	41	1
94	94	2
13	43	1
12	52	3
126	129	1
132	132	4
4	6	2
32	33	2
34	36	1
157	175	1
46	47	2
31	32	1
108	142	1
145	156	1
102	103	3
33	36	3
174	176	2
189	193	1
154	155	1
141	143	1
56	62	1
23	24	1
111	116	1
187	194	1
112	160	1
2	2	3
75	84	1
1	3	2
25	44	2
194	195	1
172	185	1
122	142	3
14	46	1
39	43	2
99	103	1
85	85	3
175	181	1
163	167	2
128	129	1
81	133	1
182	192	1
69	70	2
138	146	1
177	178	1
38	62	1
33	64	1
65	65	2
172	177	2
166	167	1
132	135	1
66	74	1
22	170	2
23	53	1
94	96	2
121	159	1
97	98	1
114	115	1
176	179	1
120	124	1
22	43	1
12	44	1
143	145	1
40	54	1
38	43	1
187	189	1
5	8	1
14	53	2
135	135	1
160	167	2
121	125	1
98	98	1
139	140	3
29	33	1
153	159	1
186	188	1
20	26	1
2	20	3
14	43	2
53	149	1
7	42	1
165	166	1
19	38	2
152	190	1
144	157	1
190	192	1
36	65	1
144	149	1
131	167	1
18	37	1
165	165	1
78	79	1
169	175	1
159	178	1
59	63	1
148	165	1
65	66	1
23	171	1
171	173	1
162	164	1
9	39	1
12	50	1
