173	174	5
71	71	1
6	95	3
135	135	13
83	84	6
133	148	3
86	86	9
26	26	12
145	145	4
124	126	1
177	177	7
171	171	8
86	96	4
95	95	2
85	85	17
31	31	4
17	18	8
11	11	3
6	6	7
111	119	2
61	109	3
68	132	2
110	111	4
142	142	6
29	33	2
109	109	2
87	87	2
149	149	14
156	157	3
137	139	4
38	38	20
5	5	6
91	92	8
124	124	5
76	76	10
45	65	1
17	76	9
82	84	16
92	92	9
29	30	3
80	95	7
123	123	11
58	60	9
141	141	13
18	18	2
128	128	10
114	129	8
66	66	5
112	112	9
12	13	6
156	156	8
168	168	5
102	102	12
120	122	1
93	93	6
111	172	5
120	120	7
13	13	7
117	117	3
19	19	6
105	107	5
159	159	7
135	156	3
134	134	5
28	33	2
151	151	3
130	131	5
23	33	1
112	170	1
17	17	6
146	146	6
7	8	5
116	116	1
122	122	4
31	32	4
103	109	1
148	148	18
150	150	7
40	40	9
146	147	6
73	131	2
62	68	2
10	10	14
78	79	5
104	104	4
143	143	3
174	174	13
14	14	7
135	139	1
47	47	6
135	136	2
85	98	2
32	60	6
84	104	3
58	61	4
119	120	1
61	61	5
97	97	7
132	132	4
180	180	1
99	99	5
29	29	6
48	48	11
110	110	7
86	97	3
78	78	3
121	121	3
57	57	4
131	131	8
102	141	4
66	152	2
15	15	6
101	102	1
162	162	11
74	74	13
58	70	4
176	176	3
129	130	2
68	68	7
93	95	1
3	3	6
84	123	2
118	119	3
110	174	2
147	147	11
24	24	6
87	88	4
77	77	1
20	20	5
140	141	7
149	150	7
16	56	10
167	176	2
41	63	1
155	164	2
15	16	7
1	1	4
54	54	8
64	170	2
79	89	8
156	164	4
68	105	7
106	106	9
113	113	7
103	104	2
81	81	7
34	34	3
21	34	1
67	68	3
75	75	5
39	39	4
27	33	1
158	158	3
165	178	1
157	158	5
42	42	6
44	44	1
12	37	1
38	56	3
59	61	3
82	83	2
32	32	2
188	189	1
27	27	7
65	113	2
67	67	8
96	96	5
72	97	3
47	106	2
100	101	5
115	182	4
102	143	5
37	108	2
45	47	3
129	129	8
91	91	3
103	103	1
166	168	2
94	94	3
68	138	3
116	126	1
71	103	3
75	110	1
27	30	4
46	95	3
67	112	3
71	101	3
107	108	5
143	144	1
126	126	2
84	185	1
139	139	3
7	7	6
35	35	5
160	184	4
64	64	1
20	21	1
184	184	1
79	154	2
76	83	1
145	147	3
89	89	10
105	105	2
65	65	4
155	161	3
101	152	3
71	74	2
130	130	11
152	152	12
28	28	3
23	23	4
45	113	2
116	117	5
78	154	3
75	82	2
160	187	2
155	165	2
126	127	2
2	2	3
27	35	2
6	26	2
154	164	2
154	156	3
39	75	4
140	140	3
81	95	3
100	100	3
85	122	1
112	113	3
58	58	3
41	41	8
36	36	2
123	124	6
78	90	3
111	131	1
101	101	14
117	119	1
71	107	6
113	130	3
9	58	1
186	186	2
116	123	2
135	137	2
2	3	2
16	16	6
183	183	9
55	56	2
6	7	3
114	126	1
169	169	1
56	57	3
133	133	6
70	80	3
56	175	2
37	37	2
47	48	5
59	59	3
165	182	1
76	77	8
22	22	2
165	165	1
108	108	5
32	35	3
86	154	4
25	103	1
105	137	1
138	139	2
182	183	3
115	115	6
61	106	1
74	141	1
9	41	2
11	12	1
157	157	2
60	60	3
45	45	3
16	17	5
75	146	1
120	121	2
90	90	6
0	0	7
102	103	4
34	35	3
189	189	5
29	32	2
101	109	7
57	74	1
44	135	1
97	99	4
171	176	3
72	72	6
144	144	4
19	32	3
153	153	8
157	190	1
4	5	4
23	24	1
25	25	9
159	163	3
24	33	1
6	46	3
32	33	2
91	93	3
23	27	1
64	97	1
118	118	4
27	28	2
68	85	2
86	157	2
155	156	1
73	73	4
115	116	3
55	57	3
52	52	5
112	126	3
85	95	2
85	105	1
0	6	2
96	116	1
124	125	1
37	66	1
35	37	2
27	29	4
28	29	1
114	114	4
130	187	2
77	78	3
76	99	3
113	115	1
66	67	3
153	172	4
145	163	2
16	19	1
82	82	5
12	14	2
120	178	5
80	80	1
13	14	6
59	62	1
106	107	2
161	161	3
84	84	4
58	59	1
137	137	2
120	127	2
88	93	1
73	96	1
107	107	3
32	34	2
132	133	3
23	28	2
173	173	4
137	148	1
82	89	3
130	133	2
99	102	2
39	119	2
77	87	2
57	117	3
129	157	2
117	118	3
68	133	1
155	155	2
159	160	3
83	83	6
111	111	5
158	159	4
26	27	1
30	30	1
144	162	2
40	41	1
121	126	5
24	40	2
104	156	6
138	138	3
21	36	3
88	88	5
56	62	1
104	138	4
163	164	1
62	62	4
171	172	1
114	115	2
1	7	2
3	53	2
115	126	3
113	116	3
170	174	1
104	153	2
33	33	1
109	131	2
131	132	3
127	127	5
81	121	4
12	63	2
136	136	4
136	137	2
63	99	1
100	151	1
63	63	5
87	89	2
99	150	1
81	82	1
98	98	1
17	42	1
46	46	1
163	163	4
19	21	2
99	100	1
53	53	1
82	183	1
74	75	2
124	143	1
62	63	1
78	92	1
137	138	1
76	148	1
21	21	2
85	104	1
142	143	2
0	7	2
12	12	2
121	125	1
160	160	1
61	70	2
105	106	2
47	126	3
70	70	1
43	98	1
21	22	3
179	182	1
158	161	1
56	63	1
68	69	1
11	44	2
99	149	1
65	66	1
16	18	2
110	176	2
73	116	2
134	135	2
9	10	1
65	99	1
154	154	1
35	43	2
22	27	1
56	56	2
25	26	2
10	11	1
70	75	2
121	122	2
166	166	1
110	130	2
18	21	1
12	36	3
108	109	2
82	93	2
22	26	1
109	175	1
61	62	1
12	21	1
72	82	1
119	119	1
73	97	2
78	155	2
31	106	1
54	55	1
63	64	2
131	188	1
60	74	1
163	180	2
39	40	1
26	37	1
76	81	1
120	170	1
58	71	1
11	13	1
122	123	2
24	27	1
85	182	1
63	74	1
18	58	1
155	157	2
53	79	1
72	121	1
88	89	1
43	45	1
60	104	1
100	153	1
141	143	1
42	116	1
73	85	1
10	17	1
170	170	1
162	163	1
17	44	1
71	133	1
15	40	1
85	185	2
143	150	1
149	188	1
61	63	1
43	46	1
133	188	1
44	45	1
33	108	1
30	35	1
53	97	1
