144	144	16
152	152	15
19	19	16
108	110	8
41	44	2
21	21	15
57	57	25
34	34	10
27	81	6
14	14	9
145	146	13
22	31	2
63	67	5
19	20	5
62	62	9
130	130	6
84	85	8
103	103	14
73	73	8
26	27	4
40	40	22
137	137	7
90	90	4
20	20	11
23	23	13
50	50	21
78	99	4
91	92	2
27	78	5
119	122	4
136	136	1
68	71	2
22	22	17
149	149	18
98	104	1
122	122	6
15	15	10
38	39	5
75	76	6
3	12	4
95	95	9
133	133	12
144	145	5
92	92	16
131	132	14
93	93	12
42	42	3
16	16	11
4	4	27
87	88	8
31	32	8
30	44	1
108	109	5
58	75	2
20	23	1
80	80	17
28	29	6
13	14	10
15	37	5
40	41	8
136	138	9
102	102	10
13	13	21
54	54	15
37	40	4
56	61	1
36	36	18
40	43	2
21	22	8
4	5	9
81	82	4
10	10	4
98	98	11
151	151	17
106	106	10
113	135	7
53	53	14
28	139	3
67	70	4
28	136	4
87	87	6
17	17	16
117	117	11
48	48	18
127	128	10
45	45	22
44	45	9
118	119	6
109	112	8
7	28	1
29	37	3
43	43	18
101	109	2
103	104	2
56	63	4
94	94	12
83	87	3
28	28	17
134	134	12
98	99	8
25	25	17
100	102	1
68	86	2
76	76	8
135	135	13
119	125	1
30	30	19
36	37	5
136	137	3
134	137	8
72	73	3
72	74	4
11	27	3
113	113	18
128	128	5
44	44	14
8	27	4
153	153	5
2	33	2
69	70	13
37	37	15
94	98	3
106	107	13
127	127	11
23	24	18
55	55	9
5	5	12
51	51	9
29	29	13
20	21	9
34	36	4
119	119	7
86	87	6
94	137	4
17	18	11
84	84	13
75	75	1
99	99	4
27	28	10
104	104	8
149	150	5
93	94	4
32	36	4
47	47	12
153	154	3
123	123	12
18	18	28
12	12	21
51	85	2
7	7	13
103	110	1
141	141	14
125	125	6
73	77	4
139	139	11
50	65	2
121	123	7
26	148	4
79	79	10
52	52	1
120	120	5
85	85	11
7	8	9
17	19	2
41	42	12
97	136	3
124	128	2
41	41	15
57	63	1
150	150	17
54	55	14
101	130	3
143	147	3
74	74	8
108	108	8
63	65	2
49	55	3
81	81	9
19	23	2
109	110	4
71	73	2
126	126	8
82	82	14
135	137	2
77	84	3
99	108	1
76	94	6
108	113	3
142	142	4
43	118	6
38	84	2
3	9	2
46	46	17
44	94	1
110	113	3
20	22	6
37	38	9
87	94	1
46	154	6
147	148	6
132	133	10
102	125	8
14	15	13
88	88	1
64	64	8
25	27	4
32	32	13
70	71	1
64	67	5
8	9	5
130	135	5
15	16	7
32	34	1
11	13	6
79	80	9
25	26	4
66	83	5
121	121	12
27	32	4
69	69	16
47	49	2
3	3	10
11	11	21
56	64	2
38	38	16
66	73	1
16	38	5
68	88	1
26	26	10
62	64	7
38	50	2
65	65	10
39	39	16
143	143	8
10	11	3
110	111	4
74	81	8
24	24	13
63	63	11
64	66	16
63	66	3
142	143	3
47	78	2
132	132	16
68	70	2
68	69	5
124	142	2
109	109	8
70	81	1
32	33	3
8	8	4
118	118	6
120	121	2
53	55	3
111	113	4
111	112	6
139	142	4
7	22	4
131	131	8
48	54	2
146	146	3
21	24	2
27	27	6
31	33	2
129	129	9
39	40	14
56	71	2
21	23	4
116	117	5
132	146	5
24	26	6
129	130	1
72	78	2
29	96	3
70	70	12
56	87	1
55	56	6
25	135	1
50	53	5
107	107	11
27	75	2
77	77	6
50	76	2
122	123	2
49	70	5
81	101	3
14	32	2
116	116	9
93	95	7
65	101	2
154	154	8
47	77	2
132	134	5
30	31	1
8	10	3
13	17	2
150	152	2
65	67	3
38	85	1
86	86	3
101	102	2
11	32	2
132	140	5
74	82	1
13	23	2
43	44	6
6	9	4
52	54	3
6	7	11
18	20	1
46	47	4
15	38	2
129	133	1
44	69	1
120	122	1
84	86	3
151	152	2
50	56	5
45	46	6
66	66	12
76	80	3
48	49	7
9	27	3
15	40	5
75	77	4
82	85	4
112	113	5
97	97	14
3	10	2
127	136	3
131	142	1
70	77	2
85	88	3
32	147	3
24	98	2
35	35	7
83	83	12
118	121	3
78	81	2
74	88	3
66	67	3
110	110	6
101	129	3
45	79	3
22	24	2
15	20	2
74	87	4
31	31	5
34	38	2
105	105	4
39	73	2
50	67	2
5	31	1
58	67	3
34	35	8
4	6	3
5	33	6
42	43	5
72	79	1
78	78	8
44	77	2
56	56	5
69	83	5
11	33	2
19	21	3
114	132	3
28	152	2
148	148	1
39	50	7
12	25	3
50	55	3
109	139	6
140	141	4
124	126	1
48	53	1
123	124	2
40	70	3
44	70	2
152	153	1
82	83	10
9	9	13
146	147	2
63	83	4
43	85	3
68	68	9
50	86	1
86	88	2
40	52	4
109	113	1
67	67	15
113	132	5
41	79	2
96	96	8
75	89	3
97	138	2
74	77	3
31	40	3
123	142	4
4	11	4
131	133	1
4	32	2
43	141	2
73	81	2
40	71	4
6	6	10
62	66	2
22	23	2
30	33	3
30	32	2
109	152	4
116	121	5
142	148	3
114	135	1
40	85	2
23	30	3
24	77	2
125	126	4
77	78	2
89	98	3
117	118	2
32	145	3
18	19	5
145	145	6
14	22	1
75	92	1
57	58	5
28	45	2
29	51	2
39	41	2
115	117	6
9	10	1
97	98	1
115	116	4
74	78	1
28	76	2
29	42	4
29	152	1
14	16	1
138	138	1
107	108	7
16	17	2
6	29	1
24	25	8
145	147	3
49	51	3
46	50	3
106	108	1
78	80	1
31	39	1
52	77	2
10	33	3
132	147	1
55	71	2
131	140	1
71	72	2
141	143	3
142	144	2
97	100	1
81	87	2
62	63	3
100	100	6
141	142	3
95	99	1
5	12	1
72	75	1
103	125	1
7	11	2
49	49	3
147	147	2
143	145	1
107	113	2
122	139	3
103	112	1
41	85	1
123	125	2
104	105	1
99	112	1
99	101	1
30	37	2
71	139	1
40	68	1
122	144	1
104	125	4
145	148	1
9	23	2
124	124	1
50	52	1
38	51	2
110	112	1
27	76	1
82	88	3
29	43	3
16	18	3
54	56	1
140	145	1
87	93	3
139	144	2
130	133	2
34	128	1
111	111	3
104	110	2
92	96	4
11	55	1
90	93	2
53	54	2
4	13	1
53	56	1
95	136	3
28	95	1
52	76	2
96	108	1
102	103	4
30	80	1
92	93	2
75	86	2
80	81	6
84	100	1
96	97	2
122	126	1
26	137	1
13	24	4
95	97	2
107	117	1
17	35	1
48	50	3
138	139	1
25	80	3
106	133	1
74	75	1
61	62	4
57	80	1
76	78	4
68	101	2
118	123	3
107	133	2
41	43	1
41	120	1
116	124	1
126	128	1
100	133	2
58	65	1
74	76	1
81	83	1
107	109	1
151	153	1
28	80	1
71	71	4
81	99	1
101	101	5
129	134	1
81	84	2
78	88	1
6	12	2
78	137	2
57	62	1
127	129	1
47	48	1
89	89	1
48	85	2
58	62	2
12	13	1
33	33	5
121	122	3
50	84	1
16	21	3
22	150	1
38	49	2
141	147	3
46	54	2
141	144	1
38	40	1
127	130	1
105	111	1
96	98	1
56	65	2
33	34	2
47	153	1
38	72	1
42	120	1
136	139	1
114	131	1
139	154	1
124	125	3
14	40	1
85	86	2
58	58	1
79	82	1
64	71	2
149	151	1
118	120	1
22	25	1
6	27	2
83	84	1
119	120	1
7	31	1
99	110	1
29	30	1
98	110	1
72	72	4
58	61	2
64	65	1
29	32	1
140	140	1
52	55	1
56	57	2
39	70	2
12	33	2
27	38	1
39	47	2
7	26	1
139	140	1
18	30	2
23	25	1
111	134	3
131	134	2
23	31	1
94	95	4
68	102	1
126	127	1
117	120	1
65	66	2
97	111	1
66	80	2
5	6	1
55	67	1
51	56	1
40	138	1
46	153	1
7	25	2
85	87	2
121	144	1
52	85	1
150	151	1
79	85	1
63	64	2
12	14	1
73	82	1
15	25	1
46	73	1
50	51	3
72	77	1
114	114	1
47	53	1
117	123	1
88	90	1
95	98	1
75	138	1
26	28	2
45	109	1
48	76	1
66	68	1
24	114	1
19	30	1
64	68	1
103	105	1
116	122	1
