45	73	1
74	74	10
35	35	23
95	107	1
90	90	7
87	88	10
58	58	17
59	59	20
88	89	8
45	45	10
91	91	11
83	83	4
84	85	7
89	89	22
105	106	2
102	102	23
62	62	12
73	73	14
57	57	11
83	84	6
97	97	19
87	87	10
66	66	16
41	41	5
98	98	10
60	60	10
53	53	5
23	95	1
55	55	7
96	96	12
54	56	1
72	72	16
101	101	15
78	78	21
65	65	14
22	22	17
92	92	8
98	99	5
40	40	12
52	52	14
70	70	12
30	30	13
85	86	3
84	84	7
35	36	2
97	99	8
81	86	2
61	62	13
48	48	13
77	77	9
22	23	7
92	93	3
75	75	22
62	63	1
67	67	8
32	32	4
23	23	23
103	103	12
102	103	4
53	56	5
33	34	5
50	50	17
90	93	3
81	81	2
68	68	3
55	72	5
51	52	4
64	64	7
45	46	2
104	104	9
43	43	3
100	100	9
64	65	3
93	94	4
79	79	9
86	86	8
92	99	3
82	91	3
82	88	3
69	70	3
37	37	6
78	79	4
72	73	2
33	33	4
97	98	4
91	92	3
78	89	1
88	88	4
39	39	6
54	54	10
28	29	4
70	100	1
38	39	8
27	27	8
24	24	14
65	99	2
42	44	2
30	46	2
50	60	3
55	56	2
84	93	2
42	43	1
53	54	5
71	101	3
89	90	8
79	82	3
93	93	12
91	101	4
79	94	5
28	28	3
24	96	2
82	82	12
65	66	4
49	49	9
79	81	3
31	31	11
94	94	13
26	26	5
77	78	5
51	51	7
85	85	4
99	106	2
76	97	3
84	89	1
80	80	6
70	71	1
50	53	5
95	95	8
38	38	5
50	51	2
36	43	1
69	72	5
22	25	5
76	76	6
21	22	5
21	21	3
29	30	1
105	105	11
25	25	6
23	24	1
60	73	1
59	60	3
99	99	3
50	55	1
57	101	1
68	69	4
84	86	5
21	24	2
25	26	3
63	63	7
78	99	1
66	67	1
57	59	4
80	81	6
52	53	2
74	75	2
60	61	2
95	97	3
79	80	3
101	102	3
67	68	4
63	64	4
84	96	1
69	71	1
86	87	1
71	71	4
78	90	1
79	99	4
56	56	5
104	105	3
26	30	3
61	65	2
96	98	5
95	96	1
71	73	2
20	20	1
50	52	1
49	51	2
32	39	1
103	105	3
82	83	3
20	21	1
66	73	2
92	100	4
78	95	3
83	86	1
44	59	1
31	93	1
31	46	1
100	101	1
107	107	6
103	104	4
46	46	5
71	72	4
34	34	3
63	100	1
45	72	1
75	76	1
99	100	1
54	55	1
48	99	1
100	102	1
52	106	1
61	63	1
71	105	2
69	69	2
61	61	4
36	36	1
56	57	1
76	77	2
78	80	1
47	47	2
82	87	2
24	74	1
62	64	1
106	106	2
45	47	1
30	58	1
67	69	1
47	60	1
100	105	1
44	44	1
51	72	1
45	59	1
32	37	1
45	80	1
54	57	1
58	59	1
