230	230	21
155	155	13
56	59	1
173	174	1
16	16	7
191	192	8
76	77	5
73	73	11
196	196	22
235	235	11
180	180	9
223	223	3
229	229	9
103	103	6
212	212	12
226	226	3
220	231	3
84	86	3
23	23	21
222	226	5
177	177	7
81	81	6
98	99	7
56	56	20
189	189	17
204	204	15
72	73	5
246	246	14
60	60	23
145	145	12
14	61	3
231	231	4
75	75	7
244	244	10
187	187	9
48	68	4
238	238	16
249	249	7
114	115	8
188	188	8
169	171	4
187	237	2
53	53	9
225	225	19
215	215	11
32	32	14
162	162	19
169	169	15
108	108	4
175	175	21
242	242	9
13	13	1
195	195	10
228	228	7
44	53	4
8	8	7
209	209	7
4	4	19
39	39	10
69	77	6
156	156	18
94	94	15
40	100	5
210	215	2
52	52	25
214	217	3
21	21	22
211	212	4
219	219	13
85	95	3
95	95	11
164	165	5
79	80	8
178	178	10
176	176	15
170	170	7
14	60	4
179	179	17
175	176	9
116	144	1
36	36	17
146	147	6
158	158	4
215	240	3
205	205	10
68	69	4
199	199	18
22	24	5
1	28	5
110	218	1
87	165	8
40	40	12
203	203	18
117	245	4
66	67	1
14	71	9
243	244	11
30	31	3
46	51	9
40	68	1
76	76	14
149	149	3
37	37	17
70	98	4
75	114	1
10	10	12
109	110	4
158	183	3
104	104	18
55	55	10
216	216	12
172	247	9
100	101	4
18	18	3
218	219	6
86	165	3
103	107	1
12	12	6
164	164	9
213	213	4
116	117	1
152	159	2
236	236	8
51	73	3
218	218	11
187	190	3
180	186	1
184	184	8
115	115	9
44	162	2
33	33	13
24	24	5
107	107	4
167	167	14
208	234	1
110	110	6
202	203	3
64	67	1
243	243	8
157	184	1
112	113	2
25	25	14
119	119	13
20	20	16
226	227	10
86	86	2
96	98	2
245	245	9
27	42	4
38	50	1
87	87	14
73	106	5
30	30	12
55	57	3
206	206	4
198	200	1
162	163	5
152	152	12
72	119	3
191	191	5
77	96	3
92	92	10
224	224	9
72	72	5
44	45	3
153	170	4
71	72	6
62	62	6
45	45	8
217	239	3
38	38	3
210	210	9
190	190	7
112	158	3
165	166	2
82	83	2
190	192	2
47	47	12
37	113	3
91	91	8
109	183	3
183	183	20
225	226	9
117	247	3
82	82	2
167	176	2
68	68	19
81	94	5
83	85	3
193	193	7
237	237	8
165	165	12
174	174	10
21	63	3
49	49	7
79	92	1
31	31	4
41	41	8
109	109	18
239	239	5
88	88	13
102	104	4
34	34	9
83	83	8
159	159	9
34	72	4
79	79	11
153	153	13
173	173	18
97	98	6
168	223	4
70	70	10
150	150	5
90	90	8
216	245	4
151	151	14
5	5	11
194	243	3
112	112	20
44	46	4
240	240	17
154	155	3
162	182	2
11	11	14
99	99	7
187	239	3
169	170	5
35	35	4
171	217	3
6	6	8
56	164	2
118	118	9
209	232	2
167	168	5
81	82	6
42	49	6
157	157	3
248	248	5
198	199	3
167	179	3
192	241	1
100	108	1
186	186	11
179	246	1
63	63	7
155	156	3
225	244	3
150	151	6
36	38	4
72	120	3
154	200	3
118	119	2
198	212	2
116	120	4
60	164	4
227	227	2
208	208	4
211	237	3
170	177	6
50	58	6
88	89	1
230	234	3
61	61	7
182	182	8
57	143	3
62	69	3
71	71	6
168	168	9
234	234	5
166	167	7
34	116	4
117	118	4
32	33	7
160	185	2
88	94	4
213	214	8
161	161	2
20	81	2
116	116	12
117	117	4
58	58	5
5	93	1
47	100	2
167	185	3
57	58	5
111	111	8
188	239	2
13	74	1
3	233	2
205	235	2
64	109	3
18	19	6
104	106	3
178	190	5
90	91	2
43	235	1
89	89	8
208	209	2
70	104	2
101	107	3
185	197	3
202	202	9
8	9	3
69	69	7
203	204	1
202	206	3
22	23	5
85	85	7
42	42	4
180	246	2
35	36	2
184	187	2
77	97	2
11	173	1
200	200	9
9	103	1
146	146	4
157	160	2
171	174	2
232	232	6
47	48	5
103	104	5
3	4	3
114	114	7
72	100	3
159	181	3
71	75	3
59	59	8
234	237	1
172	172	10
1	1	5
27	27	14
165	175	3
101	101	5
81	90	3
42	43	3
163	163	10
207	207	8
145	235	1
192	230	4
53	54	1
171	173	1
54	54	12
87	88	4
197	220	2
161	175	4
43	44	3
146	153	2
97	97	5
240	241	6
93	93	7
112	115	1
157	182	2
77	77	12
65	174	3
51	51	10
168	169	12
37	58	4
95	107	3
80	81	9
85	97	2
192	192	5
184	192	2
197	197	3
60	61	4
43	99	3
153	157	2
155	206	3
154	154	5
29	31	2
48	48	7
178	241	3
26	26	3
176	244	3
169	211	2
190	191	5
33	34	1
81	83	1
66	66	6
2	67	5
82	90	1
168	229	2
44	105	4
6	7	2
49	50	6
105	105	8
187	188	2
52	53	6
181	181	11
233	234	3
169	180	1
175	180	1
7	7	6
220	232	1
220	220	5
222	222	1
64	64	6
15	81	1
66	232	1
65	66	3
28	28	6
5	66	2
100	100	1
95	96	2
245	246	5
19	19	6
178	185	1
185	185	4
247	247	8
70	107	2
183	184	2
157	158	3
172	176	2
170	241	2
189	191	1
114	151	1
49	58	4
217	217	5
178	179	4
172	174	1
29	30	12
89	90	3
87	100	1
152	195	1
29	36	2
89	96	2
221	229	1
15	93	3
189	190	1
194	194	12
212	216	2
15	112	4
195	196	2
82	84	1
46	46	3
157	187	1
235	236	2
156	212	3
30	59	1
106	106	1
113	113	3
179	180	2
92	93	2
5	78	1
233	233	6
14	74	2
212	214	1
43	56	1
207	224	2
207	222	2
241	242	4
57	57	9
6	110	3
107	120	3
171	233	2
63	65	1
168	225	1
83	107	5
147	147	6
115	116	2
77	84	4
79	84	2
83	105	2
185	188	3
248	249	2
209	213	2
195	197	5
9	9	1
200	201	1
102	103	1
62	63	1
70	92	2
153	178	1
33	70	1
102	102	2
44	44	3
74	104	1
201	201	6
196	217	2
33	49	5
247	248	3
215	242	1
157	176	2
197	199	3
216	248	1
204	205	3
213	219	1
193	194	3
185	186	5
191	219	2
22	22	3
106	107	5
175	177	2
77	91	1
43	43	3
51	52	3
14	14	4
81	88	2
192	194	1
173	247	1
74	107	1
196	225	3
150	197	2
231	234	4
239	240	3
90	94	1
163	164	4
166	177	2
208	242	1
10	224	1
89	163	2
55	59	3
12	113	2
23	24	2
194	195	3
69	76	2
211	211	1
15	15	4
15	44	3
16	53	3
77	78	1
34	35	2
163	165	1
242	243	1
214	214	5
29	29	2
94	149	1
195	242	2
174	176	2
231	232	1
105	106	1
153	244	1
50	50	4
85	161	3
167	175	4
194	209	1
78	78	2
171	185	5
40	44	3
115	144	2
208	232	1
151	183	1
236	238	4
189	207	1
84	94	1
47	56	3
199	215	2
236	237	5
67	109	2
17	17	2
14	15	2
9	232	1
190	195	3
65	68	3
65	65	8
38	39	2
67	67	3
169	193	2
61	63	1
208	211	2
45	46	1
111	165	1
110	111	1
241	241	6
199	200	1
99	107	1
186	189	2
193	199	1
156	157	3
143	143	1
47	105	3
210	233	1
71	74	2
200	243	1
180	182	2
3	93	3
15	61	1
185	233	2
15	75	2
65	69	1
167	245	1
153	176	1
95	105	3
201	220	1
210	213	1
38	93	2
206	207	2
184	185	2
166	230	1
38	40	2
78	79	1
215	225	1
171	171	3
120	145	1
214	238	2
151	166	1
5	91	2
2	2	3
166	166	5
33	35	2
169	217	1
157	159	1
165	183	2
2	3	1
95	98	2
55	74	1
12	15	1
152	153	3
98	98	1
84	84	2
30	48	2
13	35	1
34	89	1
171	172	1
171	179	1
95	99	1
17	23	2
173	179	1
152	165	4
72	75	1
80	80	3
110	163	1
3	9	1
229	230	1
67	174	1
153	200	2
211	233	2
6	64	1
166	196	1
188	196	1
110	203	1
112	118	1
3	3	1
185	190	1
113	114	2
94	95	1
202	222	2
60	114	1
46	47	1
12	112	2
215	216	1
120	144	1
32	46	1
47	49	1
157	177	1
236	245	2
181	182	2
96	96	2
160	166	1
110	165	1
70	163	3
210	239	1
40	41	1
158	192	1
198	227	1
17	32	1
161	171	2
171	248	1
167	171	1
241	248	1
21	23	1
110	164	1
4	34	1
16	66	1
34	96	1
215	217	1
172	230	2
224	225	2
186	190	1
174	175	1
221	221	1
50	57	1
160	160	1
6	11	1
214	220	1
33	41	1
85	145	1
25	233	1
224	226	1
118	247	1
64	65	1
31	109	1
33	36	1
3	6	1
243	248	1
209	216	1
15	74	1
34	118	1
188	210	1
4	5	1
28	46	1
12	63	1
228	235	1
