68	68	7
74	74	4
142	142	7
164	186	2
97	97	7
47	47	6
21	21	2
6	22	2
0	0	14
80	80	9
27	27	6
70	70	6
24	25	1
102	139	3
82	82	7
105	143	2
7	7	3
106	106	2
138	138	7
12	12	5
32	33	7
150	151	1
123	123	8
99	99	3
35	35	5
18	18	4
149	149	6
77	77	8
87	87	5
100	101	1
5	22	3
14	17	3
65	65	7
150	150	7
139	139	19
117	118	5
91	99	2
173	175	4
145	145	5
30	30	2
147	147	5
7	42	1
25	26	3
107	122	1
41	41	5
108	114	1
143	143	1
125	125	6
107	129	3
4	4	7
18	20	2
57	57	2
148	148	10
141	141	5
120	120	1
38	39	6
129	130	3
73	75	1
66	66	3
105	105	1
60	61	2
116	118	5
164	184	1
87	91	3
113	113	4
158	163	3
122	127	2
133	133	1
9	9	1
25	25	3
2	2	5
73	73	2
53	55	3
175	175	3
19	20	6
15	15	4
96	96	1
21	23	3
38	38	4
152	152	4
53	53	11
135	135	2
153	153	1
185	188	2
122	122	3
165	165	3
119	119	1
59	59	6
115	115	11
101	139	2
63	63	10
142	152	2
156	156	13
94	95	3
81	81	4
169	169	10
127	127	5
103	103	2
79	80	5
61	62	2
67	67	3
3	6	6
122	167	4
44	44	9
148	150	4
154	155	1
106	107	3
171	171	4
158	158	1
124	124	8
105	144	1
65	71	2
30	31	5
1	1	4
45	45	6
31	31	3
8	8	7
117	120	2
84	85	3
1	2	2
146	146	4
56	57	2
112	112	13
26	32	2
22	22	7
137	137	6
70	72	2
109	109	1
3	39	1
149	181	4
129	129	7
48	48	4
89	89	5
3	17	1
187	187	2
23	23	6
126	126	1
166	167	2
4	98	2
188	188	1
102	102	5
34	34	3
128	128	6
94	98	1
164	183	5
110	110	4
26	30	1
108	108	6
16	23	1
29	29	2
140	143	3
20	21	6
165	168	1
164	164	17
88	88	8
62	62	5
177	177	5
87	92	4
134	135	4
10	10	5
17	24	1
123	124	2
9	10	1
5	98	3
43	43	2
146	154	3
14	14	1
17	22	1
98	99	2
172	172	2
97	98	2
6	6	10
111	137	3
64	73	1
20	20	6
168	168	3
11	17	1
64	69	2
6	7	1
173	173	1
95	96	5
175	180	4
134	134	7
111	111	3
80	81	2
169	184	1
59	65	3
87	88	1
27	28	3
85	85	7
100	100	5
121	121	3
90	93	1
60	60	4
127	128	3
40	40	2
55	55	2
78	96	2
108	109	3
140	153	2
174	174	4
176	176	1
159	159	3
39	39	5
64	64	2
31	37	1
16	16	2
37	37	9
171	172	1
78	79	1
54	54	4
91	91	3
117	176	2
102	104	2
178	178	1
25	35	3
164	165	1
160	161	1
66	67	4
5	5	4
11	12	5
22	25	2
114	154	3
52	53	2
131	137	3
5	17	1
20	23	1
13	14	2
24	33	1
72	72	1
39	40	6
4	23	1
60	72	2
100	139	1
124	126	3
105	106	3
145	189	2
83	84	4
102	110	4
163	165	1
56	56	1
65	66	1
42	54	1
79	79	2
21	22	1
61	61	3
104	116	1
155	157	1
117	117	3
132	132	2
155	156	2
140	140	1
0	1	1
36	36	3
35	36	1
125	148	1
158	161	1
73	100	2
46	46	1
33	33	2
12	28	1
136	138	3
126	127	1
114	114	2
61	63	1
75	82	2
150	178	3
186	188	3
73	74	4
101	101	3
79	82	5
144	144	2
181	181	4
42	42	1
103	130	1
47	54	1
69	70	2
82	91	1
90	90	1
10	12	2
172	173	3
116	116	6
19	21	1
126	152	4
155	155	1
163	163	2
180	180	1
107	107	1
83	83	2
102	103	2
7	9	1
113	130	2
76	76	1
83	89	1
88	89	1
128	129	1
24	24	1
35	45	1
46	58	1
157	157	1
154	156	2
124	125	1
123	165	1
189	189	1
147	178	2
94	94	2
17	20	3
54	98	1
85	125	1
127	155	3
187	188	1
123	129	2
70	71	1
100	134	1
5	21	2
91	93	1
19	114	1
42	43	1
76	78	2
105	116	3
159	184	2
185	187	1
95	95	1
151	151	2
135	158	1
143	144	1
105	138	2
53	54	1
52	52	2
67	68	3
140	141	4
86	86	2
161	161	1
17	18	1
9	43	1
165	183	1
55	70	1
7	8	1
131	133	1
114	155	1
168	169	1
81	94	1
74	96	1
131	132	1
16	24	1
143	157	1
184	184	1
14	31	1
9	12	1
175	176	1
28	28	1
121	122	1
