85	86	5
56	56	9
57	57	9
67	67	9
58	59	7
51	52	10
50	50	9
80	82	3
53	53	17
30	30	9
81	82	3
27	27	11
63	63	14
31	31	7
13	13	14
61	62	3
53	54	8
17	17	5
59	73	1
61	61	8
87	87	1
66	85	2
11	11	10
4	4	20
86	86	3
0	0	3
21	22	8
65	65	18
84	85	5
76	77	3
55	55	7
60	62	3
80	80	3
8	15	6
79	81	9
84	84	9
79	82	1
5	6	4
60	60	11
3	3	9
34	34	5
83	83	6
11	86	3
81	81	11
10	49	2
7	7	6
68	68	8
76	76	7
59	61	2
22	22	3
28	66	1
15	15	2
6	7	11
2	2	7
13	80	2
46	48	1
74	74	12
88	89	11
83	84	6
77	77	6
87	88	2
82	82	11
14	80	3
21	21	7
9	9	4
79	84	1
63	74	2
8	9	4
63	78	2
5	5	4
28	28	3
66	66	11
52	52	8
73	78	1
62	62	11
4	5	1
82	83	15
85	85	6
16	17	8
10	10	6
67	68	4
18	18	3
66	67	1
59	59	2
6	6	10
80	81	4
63	77	3
73	73	6
58	58	4
69	69	6
65	66	9
46	46	7
14	14	4
9	51	3
51	51	7
24	24	9
8	8	4
47	47	14
71	71	4
18	19	2
65	83	1
55	64	5
22	25	4
1	2	4
23	23	1
60	63	1
7	56	1
22	23	1
79	79	9
23	24	4
56	86	2
23	25	2
70	70	5
89	89	3
25	25	2
29	29	6
57	58	1
78	78	3
69	70	1
12	14	2
78	79	3
75	75	6
49	51	1
16	19	2
73	77	1
64	64	5
20	24	2
1	1	2
32	33	1
72	76	3
70	71	1
59	71	2
23	56	3
25	65	3
10	55	1
71	73	3
20	20	8
79	80	1
12	20	3
54	54	2
63	79	5
78	83	1
59	62	1
31	32	4
53	56	1
77	78	3
49	52	4
51	59	1
68	69	3
6	52	2
71	74	2
7	8	1
61	71	2
60	61	6
64	71	1
12	12	4
72	73	2
62	63	1
17	80	2
79	83	1
77	80	4
13	16	1
59	63	2
22	30	2
20	21	1
66	80	1
58	61	1
49	50	3
6	53	2
61	66	2
47	48	2
46	49	1
82	84	3
30	31	1
57	86	2
24	56	2
88	88	1
48	48	1
46	47	1
47	59	2
76	78	1
15	19	2
26	54	2
59	65	1
66	82	1
48	49	3
20	59	1
65	82	1
72	72	1
19	20	2
50	57	1
49	49	1
26	27	1
