48	61	6
79	79	13
60	60	4
20	20	8
58	58	11
11	11	9
11	15	1
66	66	5
78	84	2
14	14	3
69	71	3
72	73	5
46	66	1
63	65	3
5	5	4
28	28	2
71	71	7
80	81	1
48	48	7
19	20	3
61	61	9
19	19	9
25	25	4
59	62	4
15	19	3
23	26	3
50	71	3
88	88	14
85	86	4
23	23	6
82	84	5
52	52	8
85	87	2
51	51	6
79	80	1
7	9	3
87	87	7
64	82	2
50	55	3
71	72	4
4	4	21
23	24	4
53	55	4
20	21	2
50	65	3
69	69	7
57	57	4
29	29	4
78	79	5
30	31	5
50	62	2
25	26	6
49	49	5
13	13	10
8	8	4
3	4	5
49	65	2
76	77	6
64	65	3
63	64	5
48	65	3
80	80	5
53	54	1
67	67	6
47	84	2
7	8	7
24	25	7
47	47	2
1	1	3
0	0	6
26	26	8
0	86	1
63	63	6
29	30	3
30	30	4
69	70	2
10	10	7
17	20	4
26	27	6
73	73	7
13	26	2
5	23	1
27	27	6
84	84	5
59	65	2
47	48	3
24	24	11
14	24	1
59	60	3
48	75	1
74	75	5
3	3	16
9	9	4
65	65	9
2	2	9
47	63	2
89	89	11
85	85	5
82	82	6
86	86	4
70	70	10
56	56	3
46	46	1
19	26	2
77	81	1
81	85	1
9	10	3
50	50	5
59	61	2
26	79	1
12	13	8
64	64	4
78	78	4
79	83	2
4	71	2
55	59	5
12	12	1
51	63	4
7	10	3
31	31	6
49	75	1
46	48	5
48	49	3
61	62	1
59	86	3
78	80	1
23	80	2
51	77	4
72	74	7
89	90	3
77	80	4
5	25	1
7	7	9
54	56	1
20	25	1
50	56	2
52	61	1
55	55	4
6	7	5
6	19	1
14	26	1
9	19	1
65	77	2
81	81	3
53	53	2
79	81	1
52	63	1
57	58	6
62	86	7
71	74	5
65	66	2
50	57	4
6	6	8
9	27	1
78	82	2
60	61	1
88	89	1
18	27	1
67	68	3
68	69	2
73	74	4
48	55	2
22	22	2
27	28	2
76	78	4
5	8	1
64	78	2
77	77	2
34	34	1
4	72	1
48	82	2
67	85	3
62	63	5
65	75	1
77	83	1
8	9	2
24	27	3
6	9	1
48	79	1
84	85	2
31	53	1
75	75	4
1	2	2
63	66	1
25	27	3
82	83	2
68	68	3
77	78	3
28	29	1
8	10	1
13	14	4
81	82	1
10	13	1
60	62	1
11	17	2
31	66	1
34	80	1
50	75	1
6	25	1
15	15	1
56	57	1
49	87	1
80	83	1
17	19	1
55	64	1
52	56	1
