21	21	13
121	123	3
141	141	20
70	90	1
118	119	4
136	140	5
28	28	25
140	140	13
43	43	3
102	102	8
78	79	5
108	109	10
95	98	2
65	66	5
23	27	3
71	93	3
85	87	2
131	131	26
121	124	3
10	10	5
83	83	10
88	89	3
103	103	11
17	18	6
22	22	17
0	0	14
69	69	15
114	114	11
107	107	7
30	30	13
3	3	17
111	111	7
80	81	4
134	134	30
73	121	5
64	65	5
117	117	19
49	50	4
113	113	14
79	79	7
18	124	2
126	126	43
135	136	6
135	135	5
74	74	18
1	21	4
98	98	21
95	99	7
37	37	15
56	119	3
20	20	10
75	76	4
63	63	19
103	129	6
71	71	4
29	29	11
81	81	8
116	116	8
103	105	5
84	85	8
70	121	1
18	18	26
0	1	6
2	4	10
23	23	12
88	105	1
97	97	7
13	13	6
58	116	5
105	105	1
75	75	12
119	119	13
81	85	3
22	24	2
64	121	2
38	38	3
39	41	1
107	120	1
80	80	15
95	95	8
2	2	10
42	42	12
134	137	4
92	93	4
6	6	6
14	14	14
128	128	17
117	118	3
40	40	15
95	96	7
132	132	8
21	22	6
46	46	2
31	31	12
135	137	7
91	91	21
28	29	12
27	27	14
94	94	3
9	9	5
4	5	7
130	130	6
19	19	9
104	130	3
47	48	4
123	123	12
127	130	9
121	122	5
57	119	1
120	120	18
41	41	20
137	137	19
61	62	5
37	39	2
20	100	1
53	54	3
14	32	1
10	12	2
48	50	2
42	48	3
108	108	2
99	99	11
70	70	6
143	144	5
98	109	2
8	9	5
116	117	7
50	51	5
101	101	9
58	59	1
137	146	3
122	122	9
113	114	6
54	54	9
62	62	8
24	24	4
125	125	17
127	127	9
73	96	1
89	90	2
136	139	2
87	126	3
26	26	13
121	121	13
99	103	4
66	66	7
138	139	3
142	143	1
72	72	4
137	141	4
96	97	4
57	58	3
25	25	6
13	15	2
68	68	6
119	120	7
102	104	5
26	27	2
21	38	1
73	73	6
76	82	1
11	11	10
59	60	3
19	20	1
81	86	2
94	95	3
3	4	1
30	60	2
36	36	8
143	143	10
58	58	9
32	36	2
144	144	9
39	39	12
9	10	4
142	142	13
133	133	12
118	126	1
138	138	5
20	22	3
139	139	3
61	61	4
17	17	5
60	68	3
126	142	4
90	95	5
106	106	1
29	30	11
110	110	3
34	35	4
90	121	2
31	32	7
95	113	2
48	48	11
101	131	1
18	42	3
62	63	5
0	21	1
104	104	9
107	129	2
124	124	13
76	76	5
8	8	10
55	55	12
130	131	11
107	113	8
37	38	3
129	129	13
15	15	8
53	53	12
137	138	1
129	130	9
20	21	4
91	113	3
108	111	1
57	57	15
145	145	2
16	16	4
127	129	3
95	97	5
95	126	1
96	98	2
18	22	3
95	103	1
6	128	2
111	112	4
100	100	8
16	39	2
14	26	1
5	5	9
77	77	1
136	136	5
124	125	8
87	87	3
115	117	1
27	81	1
105	106	4
101	102	2
24	25	5
67	70	3
32	35	6
65	65	6
49	49	3
48	60	4
138	143	1
35	35	5
59	61	4
133	134	3
82	83	3
141	142	1
67	68	1
82	82	4
50	50	1
85	123	5
83	84	2
137	139	3
27	28	8
95	119	2
1	4	1
72	119	1
51	52	1
93	93	4
33	33	5
90	90	7
56	115	3
103	104	3
62	91	3
131	132	6
1	1	9
95	128	1
62	85	1
142	144	2
11	13	1
135	138	4
78	78	5
51	51	3
134	135	5
11	70	4
67	67	19
87	91	1
106	107	3
66	67	3
80	90	4
102	105	1
26	120	1
64	64	3
109	109	9
26	36	1
97	98	3
33	35	5
92	92	3
122	130	2
55	58	3
124	126	2
89	89	6
117	144	1
4	59	2
88	88	1
19	25	2
93	94	4
59	59	3
58	67	1
88	123	3
12	12	1
35	36	3
96	96	3
89	91	2
38	40	2
16	25	2
138	141	1
34	57	1
55	60	3
33	34	1
81	82	2
55	56	3
13	14	3
87	118	2
34	34	4
62	69	3
77	81	1
77	78	4
72	73	4
32	33	2
72	95	2
63	67	1
41	42	5
70	71	3
123	124	6
118	118	4
55	61	3
22	25	1
24	26	1
108	125	2
126	127	6
11	60	1
5	6	2
63	64	2
84	84	1
68	70	1
49	51	1
58	69	2
85	85	3
38	39	2
29	128	1
132	133	3
136	137	1
109	134	2
127	132	1
77	82	3
32	32	3
76	77	1
22	23	2
105	118	3
138	140	1
4	4	2
56	56	4
93	119	4
54	55	1
15	28	1
117	120	3
61	74	1
141	143	1
90	124	1
107	109	1
33	37	1
104	111	1
10	30	1
2	3	1
138	146	1
130	133	2
67	94	1
98	137	1
63	70	1
31	117	1
75	83	1
146	146	1
128	131	3
24	36	1
68	86	1
69	71	1
96	127	1
73	118	1
134	140	2
73	74	1
3	6	1
52	52	1
124	141	1
106	120	2
140	141	1
26	58	1
104	105	1
71	72	2
90	91	1
12	59	1
6	9	1
27	33	2
127	128	3
137	140	1
1	2	2
8	21	1
52	53	3
8	30	1
125	126	1
6	17	1
31	123	1
91	112	1
58	118	1
136	138	1
49	76	1
90	104	1
102	103	1
63	93	1
30	49	1
71	114	1
70	112	1
27	42	2
21	100	2
