33	33	22
133	174	4
64	64	3
15	30	2
50	50	8
29	29	13
96	102	2
173	174	4
106	107	6
105	106	3
110	110	14
55	56	1
150	150	5
116	116	2
104	106	6
22	22	22
15	62	2
157	157	10
37	37	11
32	33	4
2	4	11
127	127	9
98	104	5
129	129	3
32	32	31
63	63	12
37	43	3
92	95	5
21	31	3
3	3	26
169	169	9
144	144	18
44	44	18
146	146	5
86	86	1
24	32	1
10	10	16
8	8	33
23	23	19
31	31	18
78	79	3
155	156	5
5	6	23
162	167	1
142	148	5
5	5	26
13	13	32
89	89	5
12	12	19
36	36	18
29	31	11
15	15	19
12	13	11
171	171	6
67	67	14
1	4	1
124	124	8
80	80	4
36	40	5
19	20	13
142	143	7
138	138	3
93	94	4
145	166	4
42	42	16
38	38	34
1	1	11
72	72	12
21	22	4
15	23	2
30	31	3
0	0	10
132	132	13
65	65	11
45	45	15
103	103	6
87	88	3
14	14	21
61	133	4
107	107	8
97	97	11
106	106	13
11	11	19
27	28	7
66	66	14
2	2	11
102	102	12
11	13	8
22	36	5
123	124	1
27	52	4
95	95	9
122	122	9
26	28	8
36	38	5
55	55	6
62	63	3
14	62	2
90	90	9
97	101	6
153	155	4
129	130	10
105	105	9
74	74	7
34	34	4
6	25	6
154	154	6
147	148	5
162	163	3
17	23	1
55	57	3
165	165	3
83	83	10
90	92	5
172	172	17
34	59	3
148	148	12
60	60	15
17	38	2
93	93	10
28	28	25
165	166	11
83	94	3
112	128	1
41	41	17
31	32	9
54	54	5
9	9	20
25	26	14
50	51	3
83	85	8
133	133	14
22	33	6
82	82	1
4	4	17
27	32	2
131	161	2
169	170	1
6	6	10
75	76	2
169	171	2
75	75	3
13	15	5
35	35	20
9	10	7
20	45	2
117	117	15
161	162	7
0	1	5
39	39	9
11	12	10
26	26	12
7	10	4
71	71	13
84	86	6
140	140	7
71	72	5
28	29	16
38	39	6
78	78	10
176	176	6
27	36	1
91	93	8
119	119	6
7	43	2
100	100	3
130	130	6
19	19	18
5	7	4
115	115	13
129	131	2
20	36	2
34	44	2
175	176	5
58	58	5
68	68	2
147	147	7
1	8	3
21	27	2
20	42	4
118	118	10
91	91	11
50	52	1
81	96	2
17	105	3
145	145	3
40	40	16
158	158	8
150	151	1
9	11	6
114	114	8
158	160	2
12	15	2
14	15	12
6	36	3
16	21	2
3	161	2
137	137	12
155	155	5
40	42	9
20	20	14
151	151	13
54	56	7
144	146	4
3	30	5
3	8	3
36	39	2
87	87	8
179	179	13
126	127	5
18	20	5
135	135	2
141	142	5
23	39	1
8	11	4
66	103	5
59	59	6
98	98	6
103	104	3
118	159	1
151	152	2
64	65	13
152	153	3
16	16	20
30	106	2
168	168	12
17	17	12
92	115	2
16	22	3
176	177	2
88	89	7
23	25	7
62	62	8
32	51	1
1	13	4
154	158	7
128	128	4
150	158	1
121	121	2
125	125	4
73	75	4
175	175	4
36	37	7
134	137	1
75	149	5
7	15	4
33	35	4
109	109	7
83	86	6
151	161	2
10	83	4
149	149	16
81	81	18
107	108	4
6	7	4
10	11	5
84	85	6
131	131	12
10	95	7
6	167	6
7	7	10
65	66	3
18	42	1
45	67	1
6	31	1
92	92	11
3	4	5
0	6	2
102	107	1
111	112	2
141	141	10
104	151	5
53	53	8
169	176	2
166	169	1
19	43	1
29	32	1
163	165	2
80	81	4
105	151	1
153	153	4
52	52	8
119	158	2
41	42	4
8	31	3
130	151	2
107	113	4
114	117	3
53	60	1
16	101	2
63	65	2
99	99	5
18	31	1
39	40	17
163	163	3
17	19	1
84	84	4
102	112	2
141	147	7
24	28	2
82	85	2
43	43	20
37	38	4
31	37	1
9	19	3
16	17	21
87	89	7
142	142	4
52	53	1
39	44	5
123	123	8
76	77	3
27	54	6
18	18	13
159	159	7
74	76	3
88	88	8
85	85	5
4	5	4
111	113	4
145	146	2
162	162	4
7	101	3
18	19	3
39	41	1
70	70	2
94	94	2
23	32	3
77	78	4
82	84	2
156	156	9
78	149	2
106	153	2
61	107	7
150	156	11
94	97	4
146	148	3
0	34	3
51	51	17
150	157	5
16	82	1
82	83	1
53	57	2
112	116	6
115	120	4
160	161	1
34	38	1
143	144	3
126	126	11
118	120	2
73	73	13
21	21	12
81	82	3
18	109	1
71	86	2
22	23	14
149	173	1
164	164	8
81	86	4
151	156	2
76	76	7
18	30	4
104	104	4
58	80	1
24	24	13
8	9	4
43	44	7
3	7	3
72	73	7
177	177	6
134	139	1
38	42	3
18	27	1
27	27	11
52	60	4
1	19	1
86	87	2
174	175	6
16	18	9
30	30	5
7	34	2
76	78	3
132	134	2
62	71	2
77	77	3
167	167	6
53	58	1
177	178	2
164	167	1
16	158	1
94	95	4
115	116	5
120	120	3
32	104	2
32	34	1
11	41	1
112	112	2
39	42	2
79	81	1
9	100	2
15	16	5
96	104	3
131	140	2
166	166	4
32	105	1
19	34	1
131	132	2
34	173	1
28	30	5
13	14	1
31	108	1
113	122	1
121	130	5
157	159	2
123	125	2
178	178	3
15	63	3
129	152	1
7	8	9
9	12	3
170	170	5
1	14	1
161	161	5
127	128	5
101	114	5
68	72	4
96	96	2
35	38	3
4	7	1
63	120	3
2	8	1
21	32	5
11	84	1
104	105	4
157	170	6
92	99	2
5	31	1
12	14	5
122	123	1
142	145	2
116	117	3
56	56	3
108	108	6
62	158	3
172	174	3
25	25	13
29	30	3
63	64	2
83	84	3
160	162	1
8	18	4
111	121	4
16	23	1
6	26	2
10	16	3
101	101	3
134	134	9
166	168	1
15	28	2
12	162	4
131	134	1
167	168	5
32	107	3
18	103	2
102	113	1
9	96	1
82	96	4
19	21	3
73	77	3
111	111	10
52	59	2
110	111	4
35	37	1
31	33	1
128	129	2
150	154	6
23	24	9
4	8	4
94	159	1
87	90	2
167	171	4
96	97	3
2	3	3
135	136	5
9	160	2
12	16	2
24	25	4
73	93	1
155	158	1
132	140	1
18	102	1
27	30	3
13	80	1
22	25	1
35	44	1
130	131	3
66	67	2
118	119	4
16	62	2
37	42	4
92	93	3
23	30	1
8	45	5
76	79	2
4	19	2
180	180	3
24	27	8
1	2	1
13	162	2
79	79	5
78	146	1
156	157	3
41	45	1
27	29	6
16	25	1
24	26	1
174	174	3
45	46	1
30	41	1
40	41	1
1	6	1
126	130	3
56	58	2
44	45	1
129	140	1
178	179	2
157	158	3
35	41	2
7	9	2
130	145	1
9	18	2
32	41	1
25	30	2
2	5	1
73	74	2
3	5	4
8	12	2
14	80	2
146	159	1
103	152	1
124	125	3
143	143	5
41	44	3
54	58	3
45	62	2
17	18	5
143	145	1
146	147	4
103	113	1
18	23	1
106	109	1
61	61	6
117	118	6
108	109	3
43	45	2
87	95	2
14	82	1
173	173	2
68	88	3
105	152	2
9	46	3
140	143	1
6	163	2
169	172	1
38	58	2
91	157	2
105	109	2
29	76	1
17	33	2
144	167	1
163	166	3
91	97	2
80	97	4
160	164	2
139	139	4
90	91	1
98	99	1
94	109	1
19	154	3
125	130	1
22	27	1
19	159	1
141	145	1
38	40	1
60	61	2
5	10	2
153	172	2
10	12	3
28	33	1
119	120	2
75	78	2
30	33	1
154	156	1
85	87	1
29	35	3
179	180	3
105	107	3
42	46	1
174	177	1
5	8	1
34	43	2
114	115	2
23	50	2
112	113	3
11	15	1
32	37	1
128	132	2
31	55	2
168	169	2
95	96	2
152	152	4
149	150	1
70	71	2
114	116	2
3	162	1
93	138	1
17	24	1
104	107	2
0	78	2
95	98	1
42	45	5
15	18	1
150	155	1
77	79	3
103	105	1
32	61	1
168	170	1
144	145	1
17	42	1
17	40	1
59	61	1
50	151	1
128	130	2
94	98	1
13	16	2
42	44	2
8	84	1
115	117	2
14	16	1
163	164	1
17	39	1
56	57	1
150	152	2
96	98	1
105	150	2
102	104	1
20	24	1
58	129	1
23	43	1
93	115	2
97	98	1
34	35	1
166	170	1
55	60	1
158	171	1
25	39	2
113	114	2
8	43	3
106	152	1
1	5	2
61	62	1
57	71	2
46	46	1
113	113	1
158	159	1
61	67	1
5	161	1
5	15	1
78	80	1
97	104	1
99	100	1
87	94	1
86	88	1
10	13	1
29	75	1
74	75	1
164	165	1
20	21	1
105	113	1
65	70	1
121	122	1
6	9	1
154	157	1
23	29	1
14	77	1
122	125	1
