141	142	8
88	94	1
104	125	1
104	130	2
115	128	3
141	141	12
130	130	17
62	62	2
115	124	1
48	70	2
23	23	8
146	146	4
29	39	4
27	27	6
57	57	9
109	117	1
105	111	3
3	32	2
19	19	8
80	96	6
9	9	6
111	112	2
35	35	7
117	117	4
105	105	8
37	38	5
10	10	10
94	94	7
51	51	1
50	50	4
64	68	4
128	128	6
78	81	2
114	129	4
14	14	4
118	118	4
34	34	1
108	109	2
64	65	4
98	98	4
71	71	4
55	56	2
49	50	4
37	37	8
69	69	1
141	143	4
127	127	6
114	118	2
138	139	3
67	67	2
129	129	5
139	140	3
104	105	9
58	59	3
1	1	1
55	60	1
27	28	1
25	30	2
131	131	3
59	59	2
36	39	2
107	108	5
22	22	14
71	72	2
134	134	7
20	20	4
30	30	8
74	74	2
133	134	2
24	28	1
58	58	4
78	78	5
140	140	3
67	68	1
54	54	1
80	80	4
128	143	2
138	138	3
119	122	2
47	50	3
130	132	1
109	111	2
2	2	1
133	133	9
41	41	5
60	60	4
113	113	2
24	24	4
16	16	3
103	103	14
12	12	7
135	135	1
76	83	1
5	62	4
66	66	2
15	16	6
106	106	5
71	73	4
101	101	3
31	34	1
32	32	5
72	72	8
142	144	2
72	73	4
143	143	3
53	53	3
120	121	3
25	25	11
112	130	2
96	97	2
142	142	3
38	38	9
139	139	4
49	65	2
43	49	1
93	97	4
32	33	5
80	100	4
99	99	4
55	68	5
9	34	4
50	51	3
105	106	1
108	108	1
28	28	2
27	30	5
48	48	3
133	135	3
91	91	2
77	78	2
131	134	1
29	29	1
57	63	1
112	118	1
90	95	2
75	75	2
104	104	5
77	90	1
7	41	1
8	8	3
118	135	4
112	113	2
43	138	2
132	132	2
126	126	6
17	17	2
122	122	1
36	36	5
117	118	2
140	141	4
70	70	2
85	85	1
6	10	2
123	123	2
48	72	1
20	21	3
111	111	2
9	37	1
143	144	3
145	146	1
79	79	1
113	114	1
103	126	3
93	93	2
6	6	2
26	26	3
34	40	2
121	121	3
55	55	1
144	144	2
87	87	1
98	99	2
119	140	3
100	100	1
74	77	1
40	40	1
64	64	1
111	123	1
88	88	1
56	65	1
107	107	4
33	35	1
125	125	4
15	15	3
118	140	1
131	133	1
19	38	2
103	104	2
131	141	1
135	137	3
117	140	1
126	127	1
73	73	1
72	79	1
116	116	1
123	124	1
53	62	1
110	119	1
