71	84	2
27	30	2
90	90	15
134	135	11
114	114	27
94	94	18
113	113	15
125	125	27
25	26	6
129	135	5
32	32	8
100	101	5
138	138	10
0	0	6
136	136	15
30	74	2
133	133	15
81	81	8
76	76	6
77	77	23
120	123	8
38	38	9
36	37	1
107	118	2
87	117	5
37	37	9
130	130	43
81	85	2
121	122	6
9	14	4
84	90	3
78	79	4
95	95	23
11	11	15
101	101	12
136	137	7
82	82	13
108	108	13
35	36	5
123	123	30
96	118	3
139	139	13
73	73	12
19	71	1
103	104	12
7	9	1
76	122	1
109	109	23
23	25	3
103	125	5
93	118	5
79	79	8
4	4	4
15	17	6
131	131	28
134	134	15
80	82	6
89	91	12
97	97	11
104	108	2
110	110	17
129	129	17
131	132	10
83	85	8
16	16	9
22	22	1
106	107	5
117	118	3
15	15	10
8	8	7
129	130	17
3	3	13
72	72	22
126	126	30
77	122	2
6	72	4
119	119	9
81	83	5
89	89	22
104	104	7
104	107	4
31	31	7
75	78	4
116	116	13
128	128	26
135	135	22
122	122	12
105	107	1
34	34	17
103	103	12
35	35	15
85	85	10
27	28	7
83	83	8
104	105	5
16	96	1
91	91	4
18	18	7
3	4	8
86	118	7
130	131	4
124	124	32
93	93	15
5	25	5
37	38	4
88	112	3
113	117	1
114	115	2
4	5	10
120	120	12
105	109	5
118	119	8
140	140	15
71	72	5
112	113	7
73	93	3
6	6	3
88	88	8
74	74	10
118	118	5
133	134	6
71	102	4
19	19	8
89	90	12
132	132	19
102	102	9
129	134	6
84	85	9
17	17	8
127	127	16
13	17	2
123	125	6
17	18	4
122	123	4
98	98	7
101	102	8
36	97	1
106	106	13
102	105	2
80	81	2
37	116	2
14	14	5
115	115	11
66	100	1
5	12	1
127	128	1
87	93	1
23	23	10
19	31	2
124	138	3
73	82	1
120	122	9
135	136	4
105	105	16
68	84	3
79	121	3
103	123	7
116	117	13
86	86	13
109	111	1
84	84	10
72	73	5
121	121	18
12	12	13
90	91	4
34	35	3
7	8	3
96	96	21
77	117	2
87	118	1
119	120	5
99	134	3
82	83	3
80	80	10
5	5	1
16	18	2
82	87	1
137	138	5
76	120	6
134	138	3
113	114	6
85	86	5
100	113	3
100	100	24
99	128	2
129	136	6
75	75	11
79	82	1
11	12	6
74	75	4
0	1	5
118	120	3
93	94	8
137	137	22
99	99	7
25	25	8
3	125	2
33	33	4
107	107	8
92	92	3
78	78	5
1	1	5
36	36	13
99	124	2
30	30	2
4	7	1
137	139	1
78	80	4
29	29	2
116	119	2
112	112	20
111	111	10
85	87	4
30	31	3
73	81	5
15	16	1
27	29	4
5	6	4
87	87	6
79	80	1
134	137	1
87	88	5
108	109	7
23	24	1
136	138	3
140	141	1
20	22	3
24	28	3
2	121	1
113	119	5
7	16	1
27	27	10
107	116	1
83	84	3
92	93	3
26	26	2
2	96	1
13	14	2
21	95	2
68	102	5
84	94	1
4	124	2
124	126	1
85	88	7
85	112	5
81	84	2
73	75	3
127	139	1
88	91	1
115	116	5
123	124	5
105	114	1
73	74	3
4	18	1
26	28	4
7	7	4
132	133	3
71	80	1
86	88	3
97	98	6
30	72	1
129	137	1
84	87	2
124	125	2
95	96	2
103	113	1
10	12	2
95	114	1
89	125	1
19	38	1
98	99	6
10	68	3
102	118	2
117	119	2
75	92	1
13	20	1
100	103	1
26	29	2
3	24	4
128	129	3
112	116	4
125	126	9
128	138	4
125	127	3
9	9	5
26	30	4
16	17	3
77	79	1
2	3	2
102	103	4
21	74	2
104	106	3
126	127	7
30	32	7
7	95	1
82	85	1
99	135	4
28	29	2
102	107	1
86	87	2
103	118	2
128	134	1
112	114	1
103	107	3
36	96	2
110	116	3
24	25	1
126	138	2
13	13	6
92	94	2
2	2	5
103	112	3
19	20	1
8	9	1
71	71	11
78	120	1
101	112	4
73	83	1
82	89	4
20	31	3
86	113	4
105	106	1
31	82	1
123	129	4
77	121	6
138	139	2
97	125	2
70	84	1
22	30	1
130	135	3
22	23	2
0	3	2
110	112	4
103	105	3
88	94	2
128	137	1
2	5	2
124	128	2
117	117	1
77	120	2
81	82	4
104	109	2
107	108	6
15	24	1
93	112	2
28	28	3
14	20	1
9	16	1
3	104	2
3	26	1
21	21	3
1	96	4
74	92	1
10	10	8
84	105	4
15	36	1
26	27	2
7	11	1
44	122	1
20	28	1
21	80	2
111	133	1
111	112	1
90	124	1
127	137	4
14	15	1
109	110	2
100	129	2
15	18	1
4	6	1
88	89	4
79	120	1
75	76	1
102	115	1
113	115	1
78	102	1
17	37	2
23	29	1
37	96	1
83	87	1
14	22	1
74	76	2
91	92	1
20	80	1
94	122	1
21	73	1
76	91	1
73	77	1
112	117	1
101	118	1
35	99	1
23	31	3
74	131	1
80	98	2
123	126	1
15	23	1
100	112	1
94	132	2
101	103	2
121	125	1
22	74	1
88	90	1
21	30	1
30	82	1
101	113	1
10	11	1
71	73	1
124	137	1
77	78	1
112	119	1
96	125	1
15	25	2
15	28	1
3	119	1
20	29	1
20	20	1
2	119	1
19	21	2
83	120	1
141	141	1
122	125	1
16	22	1
24	24	1
71	114	1
134	136	1
29	33	1
1	16	1
72	79	1
102	122	1
18	74	1
81	117	1
28	30	1
37	115	1
116	118	1
