81	163	1
95	95	18
167	169	3
0	0	7
18	19	3
66	67	13
65	65	12
10	10	16
32	32	12
100	101	8
24	24	4
112	114	3
11	11	9
9	11	10
118	118	4
129	131	3
100	100	8
122	122	10
4	12	1
96	96	7
31	32	4
73	79	4
149	149	7
20	20	9
123	124	7
12	34	2
84	84	10
86	86	13
148	148	6
148	149	2
176	176	19
39	39	32
141	158	6
157	157	3
72	72	4
32	33	4
62	62	2
75	77	3
59	59	6
68	68	7
174	174	6
5	10	5
117	155	1
6	7	4
132	149	5
147	147	11
60	60	2
105	105	6
143	173	2
106	106	7
131	131	5
35	35	11
111	120	3
161	161	3
45	45	4
62	63	3
31	43	4
5	5	10
4	8	3
54	54	4
39	141	5
107	107	3
13	33	4
113	115	2
165	178	3
15	35	3
94	94	8
36	73	2
23	24	4
143	154	1
142	142	22
130	130	5
141	141	12
5	7	1
24	32	3
93	93	5
25	30	2
21	107	3
43	43	5
36	43	5
166	166	7
33	33	8
36	74	5
172	172	4
88	88	8
28	28	13
157	158	2
87	87	9
38	39	7
57	57	6
12	41	4
76	76	4
41	41	11
175	176	3
135	136	8
163	163	14
116	117	5
171	171	3
10	11	3
39	89	4
16	16	13
95	96	5
21	44	2
18	18	3
120	120	11
132	132	6
109	110	2
57	59	2
1	1	13
6	6	8
113	113	3
101	153	2
56	64	2
168	168	4
82	145	1
1	6	2
169	170	2
105	107	5
51	51	7
34	42	1
8	21	3
104	116	2
40	40	3
63	112	4
3	4	13
152	152	6
115	117	3
154	154	15
133	133	6
118	119	6
115	116	5
54	172	3
114	114	5
103	105	1
102	102	7
17	17	13
53	121	1
129	129	1
110	115	5
11	49	2
81	81	8
146	146	3
111	112	3
55	73	1
80	80	9
92	107	1
57	58	2
5	45	2
88	89	7
14	14	12
1	7	5
139	139	10
25	36	1
113	114	5
128	171	1
25	25	4
92	92	19
3	3	9
143	171	4
138	138	10
131	132	3
23	26	3
123	125	2
10	33	1
91	145	1
15	15	9
44	44	12
173	174	2
9	12	3
28	30	1
13	13	5
27	27	9
85	125	1
25	26	8
30	30	6
62	114	5
75	75	4
145	170	2
4	11	1
168	169	7
14	33	1
62	146	4
76	77	5
28	29	4
34	40	3
84	86	2
22	23	6
83	85	4
108	108	5
158	158	4
27	28	6
109	109	4
74	143	1
88	157	3
119	119	4
110	113	1
96	99	1
152	153	3
57	64	3
5	14	1
21	21	3
64	67	1
23	23	8
100	156	2
96	98	2
89	89	6
93	166	5
16	17	5
97	99	3
144	144	4
24	25	2
82	82	4
76	150	3
145	145	7
143	143	3
2	2	8
29	32	2
153	154	4
102	149	2
81	84	1
161	162	9
29	29	14
75	76	3
36	36	6
63	91	1
9	10	8
167	179	2
101	101	6
103	103	3
6	9	5
18	23	1
13	21	6
155	156	2
26	26	11
53	54	3
115	148	3
179	179	4
91	91	3
78	78	8
44	89	6
60	145	1
137	137	5
97	97	2
9	9	9
74	168	2
3	38	2
49	49	4
3	30	1
29	42	1
80	150	1
107	108	5
123	136	1
22	22	9
111	115	2
13	15	3
26	27	2
28	31	4
159	168	4
88	99	1
26	43	2
151	151	9
112	112	1
142	143	4
20	42	4
165	165	3
37	37	14
29	31	5
169	169	11
38	172	1
52	52	5
112	113	2
136	136	5
42	42	3
17	59	4
178	178	1
38	44	1
31	31	7
160	174	1
38	38	8
22	50	1
4	9	1
153	153	5
134	134	6
128	156	2
37	39	6
86	160	2
1	5	2
43	49	1
26	64	2
98	98	3
158	159	2
160	162	2
74	74	4
77	77	2
127	129	2
19	19	8
76	157	3
35	38	2
124	124	4
72	138	2
109	111	1
159	159	7
41	44	3
71	178	3
27	61	1
40	44	2
1	8	2
170	170	6
162	162	6
119	125	2
93	94	4
40	41	9
96	101	3
12	20	2
123	123	1
2	9	1
139	142	1
160	161	3
142	156	2
64	64	2
65	111	1
134	137	2
30	31	1
82	86	6
41	45	1
135	135	2
0	3	1
4	5	5
37	142	1
155	155	1
92	165	2
147	151	3
63	65	4
2	11	1
101	145	2
19	21	1
82	87	1
61	61	1
24	26	3
89	169	2
110	121	2
0	1	1
156	156	2
56	56	4
8	10	1
61	62	3
53	53	4
92	94	4
177	177	2
59	60	2
134	136	1
136	138	1
30	32	1
126	126	1
79	162	2
43	44	2
53	73	1
37	171	1
65	90	1
65	66	2
163	173	1
129	152	3
169	177	2
73	73	4
30	60	1
29	30	1
85	86	3
93	106	1
125	125	6
34	34	2
130	151	1
59	68	1
100	116	3
117	117	3
166	167	2
140	140	4
72	74	1
59	79	1
88	145	1
110	111	3
89	99	3
143	144	3
165	169	1
51	52	1
121	121	1
30	36	1
4	18	1
130	149	3
98	99	2
30	35	1
104	104	7
4	10	3
126	127	3
7	7	6
15	41	3
88	170	1
1	3	1
12	12	3
58	59	1
115	115	4
5	19	2
80	111	1
128	168	1
55	120	1
80	119	1
12	29	3
104	106	2
37	38	5
153	162	1
16	61	1
160	160	6
79	79	1
5	8	1
66	66	3
74	78	3
26	28	2
124	146	1
90	91	1
77	152	2
81	156	2
147	148	1
83	83	4
102	103	5
34	41	3
173	173	3
83	86	1
115	120	1
87	101	1
35	73	1
175	175	3
57	149	1
15	42	2
21	22	1
71	71	1
128	130	1
122	123	4
169	172	1
24	144	1
44	45	1
42	84	3
54	55	1
96	145	1
4	4	2
55	64	1
153	179	3
114	121	1
61	145	2
98	113	1
16	62	2
12	44	1
8	8	2
94	172	1
99	99	1
120	121	1
82	83	1
92	174	1
179	180	2
11	16	1
115	118	1
84	85	1
154	162	1
102	122	3
35	79	1
7	8	2
110	114	1
2	3	1
99	100	2
130	169	2
13	14	2
85	103	1
35	36	1
116	116	2
28	34	1
49	50	2
106	139	2
34	43	2
151	153	2
162	165	1
164	180	1
135	178	3
95	114	1
74	86	1
21	103	1
19	42	1
128	128	1
143	172	2
74	84	1
153	156	2
9	13	1
18	21	2
120	126	1
1	16	1
165	166	1
164	165	1
62	73	1
57	65	1
52	53	1
56	58	1
156	160	3
154	156	2
1	2	1
90	90	1
0	38	1
174	176	2
55	55	2
119	121	1
70	70	1
39	44	1
88	144	1
52	56	1
129	147	1
164	178	2
153	160	1
88	101	1
86	142	2
75	168	1
19	20	1
52	113	1
78	79	1
36	141	1
104	105	2
37	52	1
4	40	1
128	129	1
23	38	1
13	18	1
27	60	1
41	42	1
77	139	1
59	80	1
97	132	1
94	107	1
50	50	1
2	34	1
175	177	1
171	172	1
143	153	1
8	9	1
