153	154	2
65	65	12
158	159	10
50	50	18
13	14	17
164	164	22
52	53	13
171	171	16
133	134	11
33	43	2
38	38	20
95	95	17
95	133	1
140	140	18
83	86	1
129	129	16
86	86	19
67	67	7
55	57	4
160	164	1
51	51	7
33	67	2
24	24	19
23	23	26
24	81	1
158	180	1
39	40	16
155	155	10
64	65	10
2	3	8
161	162	7
7	7	25
125	134	1
26	31	4
150	154	5
170	170	10
117	119	10
56	57	9
122	122	15
36	36	20
9	46	1
162	162	14
22	22	47
115	116	10
94	158	2
28	30	7
36	38	11
82	82	7
50	51	7
155	160	2
8	8	26
52	52	12
2	2	19
3	7	1
61	61	21
142	143	8
96	96	14
79	80	5
153	167	3
128	144	2
18	20	9
155	156	8
113	113	21
79	79	6
18	21	7
29	29	17
41	43	5
22	62	1
30	30	35
39	39	20
13	13	20
134	163	1
26	42	2
58	58	11
27	27	25
37	37	20
24	31	1
18	61	3
145	146	9
145	145	11
43	44	15
44	44	22
87	89	10
16	16	36
14	15	10
90	92	5
130	130	19
172	174	2
66	67	16
22	24	4
30	41	2
156	156	15
135	135	14
4	9	4
28	28	29
154	154	21
20	20	12
110	159	3
81	86	8
122	123	2
0	1	9
116	119	4
17	17	21
10	11	13
104	104	17
139	139	16
90	90	12
148	148	28
90	102	1
83	123	2
100	100	8
6	9	2
31	31	24
120	120	17
87	87	21
11	11	30
167	170	3
32	33	11
16	60	3
65	98	2
17	26	1
101	101	12
15	16	5
44	45	7
137	137	18
41	42	14
129	130	4
176	176	11
80	80	19
87	88	5
108	109	6
8	9	19
115	118	1
130	154	3
40	40	23
114	114	22
12	12	33
124	124	9
156	158	3
156	180	2
160	170	3
100	101	4
5	6	9
136	136	7
18	59	6
97	115	6
71	71	8
113	114	1
127	127	17
99	104	3
157	157	16
67	68	4
106	107	2
127	143	4
41	50	1
24	33	1
167	168	3
102	102	11
9	13	3
160	160	18
100	103	3
89	89	7
9	11	11
33	38	1
33	34	8
117	117	27
152	152	7
63	63	16
43	43	33
173	174	12
19	19	28
35	35	24
11	12	13
28	29	23
32	36	8
116	116	13
163	164	6
146	146	3
58	60	4
166	166	11
76	77	4
121	121	11
58	77	3
123	123	18
105	105	9
94	95	8
167	167	19
10	10	33
24	25	17
72	73	6
12	13	12
138	138	7
82	102	1
102	105	8
56	58	3
32	43	2
14	16	2
42	42	23
19	25	2
175	176	3
144	144	16
175	175	6
93	93	11
88	88	16
66	75	2
22	23	16
27	44	1
126	126	17
89	90	3
57	57	9
26	27	8
141	142	5
158	158	20
110	155	2
150	151	1
17	21	5
111	111	14
12	16	2
143	143	10
131	131	12
83	88	2
153	153	19
153	178	4
101	102	1
77	77	18
66	66	19
35	36	11
33	35	4
84	84	12
173	180	2
29	31	9
65	66	4
170	173	1
91	92	4
60	60	16
1	10	3
23	27	2
6	6	37
7	140	6
8	10	5
17	28	7
27	29	6
53	54	6
60	61	4
152	164	1
17	23	3
91	94	8
0	0	15
54	54	14
81	81	7
102	103	3
1	2	11
10	94	1
64	67	2
131	132	8
27	176	3
156	169	3
103	103	9
104	110	2
177	178	3
4	4	16
41	51	5
34	35	4
19	20	4
3	3	19
30	42	1
121	122	4
33	33	21
62	68	4
154	155	4
107	107	16
108	111	4
171	172	3
62	62	12
98	106	5
78	78	15
171	179	1
180	180	10
53	53	9
73	74	4
3	9	4
152	169	3
150	161	3
148	152	1
34	34	19
41	41	28
163	163	15
123	124	20
111	112	5
93	94	11
151	174	1
135	158	1
8	11	3
12	14	1
152	165	3
41	89	2
168	169	13
129	160	2
15	18	4
99	99	11
68	68	12
26	28	5
124	125	7
98	104	4
178	178	12
106	106	8
169	169	10
97	134	1
115	167	1
165	167	4
35	41	1
85	85	7
115	115	4
131	157	1
132	136	5
23	81	1
150	160	3
76	76	9
18	19	16
3	4	15
30	31	12
58	76	3
21	21	13
112	112	15
165	166	1
152	155	7
121	130	2
70	70	2
141	141	15
114	116	10
18	18	20
109	109	20
135	167	1
64	66	3
152	156	2
116	117	10
74	77	3
98	101	3
174	174	8
18	144	4
2	42	1
142	142	17
147	147	7
172	173	10
147	148	7
33	36	9
32	76	2
75	75	6
168	179	2
21	23	11
156	165	3
127	128	4
146	159	2
163	166	5
155	157	2
64	68	5
77	79	1
119	120	5
92	92	5
98	99	4
5	5	17
134	134	11
128	142	4
63	66	7
105	107	2
52	64	1
23	24	2
22	26	1
143	144	4
144	145	3
170	174	2
179	180	1
80	91	1
128	128	15
128	167	1
102	104	1
49	49	3
94	94	14
15	15	30
19	61	4
1	1	18
170	171	6
150	150	11
74	75	10
58	59	2
9	9	16
177	177	7
26	26	16
158	161	2
55	55	14
118	121	6
27	28	13
101	104	1
13	16	3
72	72	18
35	37	4
142	145	2
134	135	5
24	27	7
4	16	1
96	98	3
71	72	6
173	178	4
147	174	2
109	110	4
9	10	3
90	91	5
118	120	1
128	156	2
159	160	3
38	42	2
163	169	1
135	136	10
77	80	5
85	119	4
67	95	2
32	32	23
89	91	4
17	123	2
82	83	4
96	97	3
6	7	11
16	17	4
56	56	6
97	98	6
143	145	8
55	56	8
55	138	2
39	44	6
25	88	1
25	25	14
73	73	7
24	30	3
126	128	1
74	93	1
88	89	12
11	15	1
155	159	3
45	88	2
114	154	1
84	85	5
4	7	4
118	118	4
139	140	2
146	147	3
17	27	3
83	83	5
84	101	2
21	64	2
25	83	1
36	37	3
119	145	1
116	166	2
61	66	2
2	9	1
4	22	4
54	55	5
85	86	7
29	30	4
80	117	1
169	178	1
4	5	2
174	175	2
60	108	1
83	84	1
3	5	1
30	63	3
177	179	4
2	45	4
29	60	3
177	180	4
128	157	3
1	7	3
61	62	3
23	45	2
102	106	1
83	85	2
39	41	1
17	18	1
149	170	2
57	58	2
61	64	2
38	41	2
90	97	4
3	8	1
110	111	2
141	143	2
81	83	2
110	110	11
104	105	6
77	78	4
117	120	1
19	21	5
98	98	8
20	81	2
63	67	5
179	179	5
31	32	7
97	103	1
84	86	2
154	159	1
105	106	4
166	178	3
51	64	1
59	59	5
81	85	4
45	45	10
104	117	1
168	168	7
110	151	2
101	126	1
100	107	3
96	115	5
25	27	2
131	133	2
64	64	8
97	99	2
56	59	7
86	96	4
133	139	6
158	160	1
151	151	12
127	141	1
77	142	2
155	169	1
108	108	3
22	75	1
7	8	15
28	44	1
159	165	5
162	163	6
72	74	1
98	103	2
40	74	2
61	108	2
23	30	5
173	173	15
78	79	8
73	75	6
95	97	4
110	150	1
34	37	6
98	114	1
133	133	6
149	149	7
37	39	2
107	108	2
91	91	5
34	36	3
138	139	2
85	87	1
24	26	7
90	180	3
147	152	2
23	25	4
62	63	1
31	74	6
14	14	25
81	93	2
119	119	3
5	20	3
146	148	3
41	44	5
119	121	3
125	125	11
166	167	4
163	168	1
63	64	6
75	76	4
13	15	9
31	33	1
97	97	9
11	13	1
31	41	3
110	112	2
42	87	1
81	84	1
99	101	3
107	111	2
147	150	2
64	75	2
103	105	2
95	130	4
157	160	1
147	163	1
6	10	2
85	92	1
169	180	2
160	162	4
75	81	1
91	93	1
31	40	2
27	62	8
130	158	3
11	16	2
152	153	4
137	139	1
3	28	1
11	45	2
120	154	3
21	114	1
4	6	5
66	68	3
4	17	3
28	31	1
99	116	3
154	158	3
97	109	1
159	159	6
154	177	2
150	153	1
161	161	9
11	62	1
140	146	1
89	92	1
115	173	2
110	113	1
33	40	2
112	114	1
148	151	3
130	131	4
150	158	5
99	100	1
130	140	1
7	9	3
131	141	2
37	38	4
6	110	1
42	46	2
27	30	3
62	81	1
101	106	1
29	42	1
31	39	1
31	73	3
64	74	1
76	82	1
178	179	1
172	172	9
92	93	1
74	74	2
80	83	1
59	61	3
78	83	2
22	29	1
43	45	2
132	132	8
16	61	6
68	72	4
172	179	2
81	118	1
95	96	7
88	90	3
168	178	1
2	4	1
135	139	2
5	7	4
17	36	2
83	101	1
141	145	1
171	174	3
157	174	3
96	130	1
81	82	1
154	157	1
10	15	2
97	114	1
91	106	2
68	78	1
13	38	1
153	177	6
27	82	3
42	50	1
92	94	3
34	67	1
20	22	7
140	141	1
22	83	1
4	8	1
154	180	1
36	43	1
172	177	4
129	131	2
25	26	3
23	65	2
147	161	2
108	112	1
78	81	1
73	77	3
74	79	2
164	165	3
92	100	1
11	89	1
109	111	1
26	32	5
40	41	5
59	60	2
144	146	3
129	148	3
61	82	1
126	136	6
68	75	2
165	165	4
161	165	1
151	154	2
113	152	2
135	163	1
86	87	3
7	17	2
22	25	1
160	171	2
71	76	4
26	65	1
109	113	2
147	151	4
12	19	1
93	95	1
8	19	1
148	159	1
151	163	1
132	133	3
20	21	4
27	31	1
91	107	3
10	12	1
99	106	1
25	30	1
80	122	1
49	51	1
39	89	3
63	65	1
0	72	3
5	126	2
123	125	1
38	40	1
94	147	2
132	141	2
57	79	2
120	164	2
100	116	1
126	135	1
154	160	1
112	113	3
57	60	2
122	125	1
30	51	2
21	44	3
157	158	4
148	149	3
13	40	3
151	168	1
170	178	1
31	75	2
37	44	1
159	180	2
156	157	2
111	113	4
28	32	1
136	159	2
98	100	1
160	169	2
136	137	3
174	180	2
127	142	1
120	121	4
5	11	1
101	151	1
26	30	1
10	90	1
49	50	1
38	39	2
12	61	3
81	117	1
90	104	1
4	20	1
25	37	1
62	64	1
139	163	4
25	40	2
10	14	1
130	157	1
80	118	2
12	41	1
19	97	2
76	80	1
159	162	1
86	92	1
130	155	1
137	138	4
147	180	1
78	80	2
15	20	1
50	52	1
110	121	5
122	124	3
90	96	2
1	3	1
15	19	1
145	147	2
151	153	2
163	165	4
82	86	1
110	156	1
151	166	1
108	110	1
10	44	1
67	73	2
36	41	3
113	115	1
53	71	1
17	144	1
6	120	1
30	54	1
35	107	1
131	158	2
23	32	1
98	115	1
54	57	1
18	43	1
151	169	1
17	20	1
25	62	1
5	10	1
39	77	1
90	93	1
99	135	2
128	129	1
22	28	1
170	172	1
129	144	1
99	105	1
117	118	1
169	173	1
99	126	1
21	22	1
40	89	1
27	32	1
121	126	1
167	174	1
129	156	2
119	142	1
33	64	1
34	75	1
125	136	1
20	62	1
173	179	1
33	37	1
78	82	1
114	166	1
165	169	1
128	131	1
28	42	1
35	105	1
85	105	1
18	26	1
60	104	1
152	174	1
45	46	1
150	155	2
28	39	2
54	92	1
117	122	1
58	65	1
168	174	1
64	110	1
3	46	1
155	165	1
