101	101	19
126	126	35
30	33	4
66	133	2
5	5	7
100	100	15
39	59	5
119	119	15
3	4	3
28	28	15
16	16	5
93	94	7
20	20	11
42	42	16
76	77	4
73	73	10
54	57	2
81	81	14
62	80	3
114	132	5
107	107	9
32	33	4
53	54	2
43	43	6
73	77	2
92	92	13
66	66	23
101	102	3
122	123	8
49	49	10
24	25	4
72	72	13
80	81	13
22	23	1
115	115	13
15	15	8
31	31	10
102	102	21
75	75	13
79	79	4
18	18	24
37	37	16
130	131	8
10	62	2
33	53	4
65	97	1
6	6	14
11	11	6
40	40	10
121	123	4
1	1	7
62	66	6
0	6	4
10	11	6
129	129	19
123	124	7
68	68	13
118	118	19
91	91	16
42	141	2
118	121	4
117	117	15
39	40	14
54	54	20
17	17	8
65	65	10
87	87	8
41	41	16
125	128	2
133	133	12
96	96	10
36	36	9
41	42	2
101	130	6
99	99	5
98	101	3
23	24	10
56	56	8
117	123	1
115	117	3
29	29	22
87	92	3
124	129	1
103	103	10
130	130	22
113	113	8
144	144	6
111	112	6
48	49	1
32	74	6
13	13	9
66	67	6
143	143	4
40	129	1
95	95	10
23	23	14
81	82	5
117	124	2
2	63	1
27	27	16
1	72	2
22	119	3
39	129	2
19	19	16
111	117	2
145	145	15
50	51	5
100	101	2
141	141	17
131	131	32
120	120	17
135	135	14
127	127	10
34	34	3
114	114	14
84	84	2
96	97	6
98	98	23
39	39	19
47	47	5
103	135	4
90	90	9
20	21	5
14	14	4
83	85	1
136	136	12
137	137	11
61	61	16
25	25	6
128	129	6
57	58	8
19	28	4
100	102	2
120	121	7
124	124	9
67	67	13
6	13	3
82	83	4
107	108	1
71	72	6
30	30	13
33	33	9
126	142	1
86	86	4
38	39	5
59	133	2
108	108	4
58	58	7
97	105	3
89	89	6
117	130	2
29	30	15
67	94	4
126	127	1
130	133	2
62	62	11
99	101	3
80	80	11
73	74	6
8	8	17
133	137	3
136	137	3
140	140	14
112	129	8
132	132	4
95	96	6
109	109	6
117	118	14
122	122	12
124	133	1
103	133	1
21	23	3
52	52	11
128	128	23
55	55	9
94	95	4
10	10	7
74	86	3
4	4	6
63	70	4
86	87	6
116	116	8
63	63	10
61	62	10
26	26	13
35	35	13
35	36	1
87	88	3
59	59	21
63	81	4
22	22	20
59	60	7
107	123	1
87	94	2
143	144	4
24	24	15
60	60	17
103	104	3
97	98	4
116	119	1
136	138	8
116	117	1
21	22	3
9	96	1
77	78	6
119	120	7
134	135	8
50	50	6
4	5	5
40	50	3
73	80	1
34	35	7
51	52	3
103	144	2
87	89	5
142	143	13
25	26	6
107	110	3
123	123	13
23	25	1
142	142	12
89	90	13
27	28	7
12	26	2
134	134	8
100	140	2
77	79	1
5	30	2
141	143	2
133	135	6
141	142	1
64	65	5
48	48	7
106	114	1
40	41	2
29	31	2
104	104	8
4	6	2
99	100	13
57	57	13
66	96	2
121	125	2
32	54	1
136	140	3
9	16	2
12	13	7
125	125	8
9	9	12
58	59	4
51	51	15
121	121	21
105	140	1
28	29	4
104	106	1
68	69	1
101	124	2
0	0	7
70	80	1
84	85	5
21	21	14
110	139	1
77	77	6
138	138	3
111	111	7
1	75	2
5	35	3
42	53	1
138	139	3
33	36	2
63	67	6
24	113	3
53	53	3
91	126	4
37	47	1
60	61	1
61	69	1
104	134	1
79	81	2
139	139	6
109	110	2
9	31	1
8	10	1
114	115	3
4	35	1
113	114	8
17	19	2
38	38	11
3	5	3
19	125	2
114	131	1
112	112	2
101	126	2
78	92	5
74	74	10
72	73	3
32	32	7
37	56	2
67	70	6
102	103	3
17	18	2
72	82	1
130	132	1
145	146	7
91	92	3
62	63	3
133	142	2
131	133	1
128	130	5
118	123	2
15	16	5
79	83	1
127	129	2
33	56	2
135	138	2
115	116	5
20	25	2
71	71	2
146	146	3
15	33	1
10	33	4
103	141	1
73	85	1
109	136	2
48	67	5
124	125	5
93	93	5
98	99	8
30	31	1
66	97	2
99	104	3
135	136	4
13	14	1
17	67	1
118	135	1
82	82	6
55	56	4
96	134	3
106	132	1
6	25	3
70	70	2
97	132	1
10	13	1
91	96	1
0	75	3
78	81	2
22	67	1
84	88	4
97	97	4
122	126	3
23	91	2
121	122	1
41	49	1
18	19	5
53	55	1
66	115	1
40	56	4
12	12	3
8	71	1
129	130	2
33	55	1
54	55	5
132	134	3
125	127	5
60	133	4
26	33	1
38	41	2
16	17	2
63	79	3
78	79	3
141	144	3
105	115	1
98	134	2
65	66	2
1	6	1
101	131	1
24	114	4
40	128	1
62	70	1
37	48	1
49	53	4
94	94	4
78	78	7
96	99	2
62	69	1
38	40	1
28	30	1
107	116	2
9	97	1
106	108	3
55	57	6
22	125	4
131	132	4
66	94	2
132	139	1
69	70	2
88	90	4
133	134	2
69	80	1
74	96	4
125	126	3
106	106	3
79	84	1
125	129	1
66	95	1
11	34	2
33	34	1
1	74	1
0	1	4
14	25	1
94	96	2
86	97	1
100	131	1
36	64	2
19	49	1
36	47	2
93	108	1
79	128	3
105	105	2
104	109	2
13	33	3
9	10	1
124	144	1
134	137	2
63	98	1
79	82	2
24	26	3
49	50	1
26	27	2
110	116	1
95	99	2
110	141	1
25	117	3
100	130	4
68	71	1
91	97	2
99	112	1
92	112	2
36	58	1
2	2	1
64	64	2
14	15	3
95	140	1
114	117	3
10	31	1
73	76	2
117	144	1
137	138	1
31	32	1
104	105	2
118	119	3
124	134	1
56	57	1
132	137	1
134	136	1
75	76	3
138	140	1
124	142	1
109	111	2
127	128	3
132	138	1
135	140	4
50	55	2
62	75	1
26	30	2
18	49	1
6	27	1
106	140	1
29	38	1
19	20	1
92	93	1
35	47	1
11	73	1
77	81	1
54	67	1
84	92	1
26	29	1
1	2	1
103	110	1
34	47	1
37	38	1
110	138	2
131	140	3
5	33	1
59	61	1
95	97	2
123	126	1
140	141	1
118	122	1
92	113	1
83	83	1
86	95	2
76	84	1
99	105	1
110	136	1
73	82	1
8	9	1
34	37	1
85	86	1
38	49	1
8	13	1
43	48	1
89	114	2
104	136	1
42	43	1
108	110	1
140	142	1
15	25	1
5	6	1
136	139	1
36	48	1
99	108	1
