135	135	9
69	69	5
21	21	14
135	147	1
131	131	20
30	30	6
101	101	24
77	82	7
52	52	10
152	153	9
50	50	25
40	41	19
156	156	12
1	3	2
87	87	18
76	79	2
49	54	3
29	29	13
123	123	23
65	65	11
139	141	5
98	98	11
73	73	29
85	86	9
62	62	7
4	4	8
34	34	11
7	7	16
16	16	18
17	17	16
3	17	3
122	122	15
138	138	13
153	153	8
106	106	22
132	132	6
45	51	2
156	157	6
111	111	11
13	15	1
147	147	14
50	53	7
124	124	10
36	36	11
122	126	3
23	23	9
158	158	14
119	119	19
37	37	11
127	127	9
109	110	10
109	113	3
25	25	11
114	114	17
89	89	28
83	83	7
130	131	9
82	97	1
11	12	6
20	40	3
104	104	15
130	130	21
2	4	1
126	126	13
155	156	8
24	27	3
135	137	5
120	120	15
87	90	6
68	69	3
18	18	11
143	143	6
65	66	10
67	71	8
107	116	4
65	70	4
8	8	6
135	139	2
90	90	22
67	68	3
120	121	3
84	85	3
133	136	7
145	146	8
3	3	8
5	5	14
113	115	7
14	19	5
9	10	13
92	95	5
116	116	29
33	33	6
140	140	13
86	86	13
19	20	8
13	22	6
150	150	10
142	143	6
92	92	25
98	158	1
103	104	1
42	42	8
85	85	14
115	116	3
106	107	2
81	82	8
82	82	7
48	48	7
105	105	16
77	78	12
54	55	2
133	133	18
130	148	1
68	71	2
44	44	11
134	143	1
137	137	7
154	155	1
118	118	8
146	146	16
17	18	2
107	108	4
117	119	11
43	43	16
125	125	12
139	139	8
110	111	9
35	41	1
76	76	4
113	113	18
55	55	15
125	126	12
147	148	5
6	6	14
100	100	12
47	51	1
77	77	17
13	24	2
49	49	12
52	62	1
95	95	18
142	142	10
67	120	3
144	144	10
22	22	21
23	43	7
155	155	6
14	14	8
123	145	1
4	57	5
86	87	2
81	81	13
104	111	2
64	157	1
67	67	12
80	80	17
115	115	8
45	75	3
78	79	15
13	14	6
64	64	6
118	132	3
99	100	3
128	128	14
3	36	1
49	50	3
75	75	3
132	133	6
149	149	15
38	38	4
56	70	3
93	105	1
96	111	5
88	89	7
56	57	1
13	13	17
150	151	6
147	151	3
138	139	1
12	12	13
78	78	20
103	103	11
3	4	6
144	145	10
91	96	3
89	104	6
92	94	4
102	102	12
35	35	15
10	34	3
91	104	1
10	10	11
87	88	4
25	26	9
41	42	9
110	110	21
76	109	2
91	91	5
119	121	5
122	123	8
90	91	11
69	87	2
118	130	3
135	136	8
52	56	4
121	156	1
15	20	1
117	117	12
29	30	3
100	154	2
71	130	1
64	73	6
8	9	9
96	159	5
32	35	6
48	50	2
73	128	2
145	145	7
135	141	4
53	53	9
67	147	2
148	148	20
93	93	7
112	112	19
43	66	3
134	134	15
123	126	3
136	137	3
40	40	15
140	144	1
33	142	5
70	70	4
151	151	14
23	24	11
79	79	15
48	51	6
117	118	2
105	129	1
8	12	3
31	31	9
124	126	4
131	133	8
32	32	7
15	16	8
20	20	12
26	26	9
64	71	1
47	47	14
122	133	2
107	112	3
105	127	1
155	158	2
159	159	1
3	6	4
24	24	6
153	154	3
141	142	7
129	150	1
38	39	9
52	54	2
72	72	8
93	94	3
27	27	5
120	126	3
9	49	4
39	39	10
34	147	3
19	19	9
89	90	4
121	121	12
114	115	9
45	45	9
1	2	8
104	105	3
33	64	2
97	158	3
14	16	7
42	43	17
129	129	5
57	69	4
15	15	9
79	80	2
140	141	6
69	71	2
50	51	6
18	19	3
140	142	2
19	34	3
99	99	8
33	36	2
17	36	1
64	111	1
108	108	8
40	43	2
0	0	7
14	26	3
0	1	3
107	107	15
35	43	4
27	29	3
104	134	3
11	11	9
27	28	6
150	152	2
156	158	1
154	154	12
109	111	2
4	20	1
21	22	5
123	124	1
146	147	10
11	13	4
3	8	1
119	120	3
129	130	2
50	52	3
116	134	6
1	1	6
87	124	3
84	84	5
88	88	8
131	142	2
120	138	4
51	51	3
12	14	3
110	124	3
49	71	5
123	148	5
77	81	3
28	28	6
83	85	7
48	93	2
52	88	4
26	28	2
80	85	8
96	96	4
21	29	1
127	146	1
36	69	1
19	22	1
67	69	6
36	158	5
98	114	2
18	37	3
97	111	3
2	36	3
44	48	2
2	2	8
71	71	7
50	78	2
150	154	2
54	54	6
37	42	4
118	119	3
45	49	1
45	47	2
67	146	2
107	117	3
36	37	4
134	138	1
107	156	1
94	98	4
68	68	8
118	120	6
103	129	5
41	41	9
103	139	2
126	127	4
152	158	5
138	150	2
157	157	5
52	153	1
46	47	6
65	88	2
40	42	1
83	84	3
89	91	6
108	112	1
102	103	1
12	24	3
18	36	3
51	54	2
137	138	6
133	134	4
76	77	2
15	18	4
107	113	1
49	52	3
9	9	10
107	119	2
40	46	1
34	146	2
95	116	3
69	91	3
20	21	4
141	144	2
3	57	2
131	157	1
7	8	3
106	147	3
78	80	3
132	134	1
158	159	3
28	29	4
18	20	1
9	52	1
119	153	1
113	148	1
11	14	3
78	82	4
53	54	3
111	148	1
52	55	3
76	78	2
38	40	4
46	57	3
111	121	1
132	142	4
111	120	1
68	87	2
75	76	4
142	146	3
131	156	2
80	81	2
108	157	1
51	55	3
8	33	2
109	121	2
148	159	3
98	101	1
74	74	3
76	86	2
81	128	1
31	33	2
148	149	1
103	113	6
116	117	5
2	6	1
71	87	2
62	68	2
96	155	2
88	104	1
130	149	2
32	90	1
94	95	5
108	153	3
34	36	2
16	20	1
17	35	4
131	132	6
37	88	1
32	33	3
11	34	3
129	131	1
68	70	2
95	96	4
16	48	1
96	97	3
106	119	5
94	94	3
82	114	1
46	46	3
19	35	1
46	98	1
122	124	3
24	30	1
91	92	4
10	11	4
84	121	1
132	150	1
152	154	1
24	158	1
66	66	1
117	135	1
56	56	5
119	135	2
64	68	1
92	117	1
152	152	5
10	27	1
20	22	4
50	54	2
100	148	1
9	31	1
109	109	8
143	145	1
105	137	2
106	146	1
66	87	4
112	113	2
105	106	3
8	15	1
104	131	2
0	44	1
124	127	2
93	95	2
110	112	2
147	158	1
110	118	2
55	114	1
12	13	5
87	103	3
81	83	2
19	21	2
3	56	6
23	66	1
65	92	3
113	114	4
37	39	4
85	98	1
62	63	3
106	139	1
138	141	5
19	30	1
14	20	1
45	67	1
31	53	2
106	131	2
62	64	2
124	125	2
94	97	1
54	87	2
136	136	7
25	28	2
71	147	1
18	21	2
112	115	3
63	67	1
87	89	2
19	48	3
97	155	1
128	129	2
106	117	1
17	131	2
115	135	1
145	147	1
108	155	2
133	141	1
78	114	1
26	27	4
56	66	1
138	145	2
24	25	3
105	109	1
105	108	2
71	136	1
18	48	2
106	120	2
63	63	4
91	100	1
92	96	2
154	156	3
46	54	1
152	156	2
123	139	1
129	151	2
23	158	1
107	110	2
33	34	1
146	157	3
116	140	1
78	115	2
143	144	1
151	156	1
153	156	1
70	81	2
100	111	1
109	115	1
145	153	1
36	71	1
90	94	1
111	153	1
150	158	1
151	152	1
71	72	1
79	116	1
5	29	1
121	122	1
14	15	1
131	134	2
107	109	2
12	15	1
92	121	2
44	45	2
157	158	2
62	69	1
144	147	2
84	93	2
97	98	2
117	120	1
48	49	2
106	122	1
85	91	1
56	58	1
29	31	1
67	70	3
10	19	4
48	57	1
146	148	3
30	32	1
82	112	1
141	141	3
124	143	2
111	112	1
93	120	1
18	63	1
15	47	3
2	3	1
124	145	1
148	151	1
18	34	1
101	128	1
123	150	1
106	154	1
5	6	3
105	114	1
107	118	1
30	31	1
9	34	2
118	133	1
123	133	1
102	105	2
96	117	1
41	126	1
69	70	1
103	131	1
115	139	1
95	97	1
22	31	1
106	112	1
117	121	1
7	9	1
140	143	1
31	32	1
96	106	1
