31	31	9
15	15	12
166	169	1
87	87	6
110	110	7
30	30	22
26	72	4
78	79	5
141	141	18
31	33	2
182	184	2
55	55	13
111	111	1
66	67	3
0	0	7
109	109	8
149	149	17
178	178	12
166	167	10
48	48	17
147	163	4
83	83	13
181	181	7
57	57	13
37	37	7
103	104	2
133	133	12
144	145	5
77	77	7
177	177	6
60	60	3
12	15	4
37	38	2
18	18	7
151	151	15
106	106	18
88	89	6
174	175	5
25	25	16
61	61	3
134	138	3
96	96	2
47	48	12
150	150	20
13	13	10
23	23	6
147	149	4
169	170	4
149	150	7
25	26	9
74	74	7
123	138	4
169	169	13
45	45	4
128	128	13
164	164	12
41	41	14
183	183	3
16	16	7
159	159	7
185	186	3
107	107	10
167	169	6
131	132	3
155	155	11
2	4	1
144	144	5
63	64	11
171	177	1
173	173	9
76	76	20
5	5	4
172	172	12
187	188	3
140	140	15
101	101	5
119	119	8
82	84	3
178	180	3
66	66	9
145	146	7
117	117	6
148	148	12
154	158	5
23	24	11
171	171	6
122	123	7
12	12	9
165	168	6
33	34	2
24	24	5
7	7	15
2	2	17
12	13	17
105	106	5
80	81	8
178	189	4
170	170	5
133	135	1
30	31	5
152	152	2
180	181	11
168	169	1
53	54	3
57	58	1
123	123	15
44	46	2
172	173	14
96	97	1
147	148	2
3	4	4
145	145	10
176	176	10
151	152	6
141	142	5
17	18	4
163	164	4
96	100	5
82	82	4
148	184	6
18	19	1
179	180	2
111	114	2
86	86	7
46	46	5
117	121	1
127	127	10
41	48	3
84	84	13
38	39	10
23	26	3
98	100	8
92	92	8
114	114	10
71	71	8
129	129	8
141	185	4
100	110	6
53	53	7
135	135	7
4	6	5
121	121	5
70	71	2
34	34	6
84	109	4
7	8	6
146	146	11
76	77	7
4	4	4
115	156	4
115	115	6
162	163	4
88	88	16
60	61	3
134	134	3
174	174	14
78	78	11
12	17	2
149	189	5
122	124	3
125	125	2
21	22	5
68	68	12
58	63	4
139	139	20
186	186	10
124	124	12
158	158	3
39	39	8
153	153	7
42	42	14
143	143	13
143	144	10
189	190	1
14	14	7
46	47	3
113	113	9
8	8	10
175	175	23
113	121	2
100	147	3
83	84	10
56	56	14
100	100	4
155	182	2
129	130	8
59	59	2
97	147	2
147	147	7
18	36	7
124	134	5
16	36	10
35	36	3
65	65	1
6	6	10
26	26	9
105	105	3
129	133	3
19	23	2
63	63	4
10	10	7
94	94	14
185	185	2
90	91	9
114	123	1
94	113	1
72	72	6
106	110	3
162	162	3
168	168	13
36	36	11
128	134	5
75	75	9
55	56	5
183	184	4
38	47	2
38	38	11
187	189	4
169	183	2
138	138	6
103	103	4
67	67	6
116	117	2
85	85	17
0	1	1
4	5	9
15	16	4
126	126	3
29	34	2
13	14	4
78	80	3
94	107	6
80	80	4
15	35	1
149	177	1
3	3	5
85	87	4
180	180	7
136	136	2
64	65	1
167	168	2
112	113	2
81	81	1
97	98	2
126	134	1
126	127	5
27	27	2
11	22	2
102	143	1
160	160	2
111	122	3
20	20	7
186	189	2
79	79	14
3	7	4
103	143	2
84	85	6
80	109	4
128	129	1
101	102	4
22	22	9
176	177	7
142	142	4
54	54	5
74	75	11
154	155	5
39	40	2
154	154	5
5	6	1
92	150	1
33	33	3
6	7	5
133	165	2
122	122	5
98	99	3
90	90	10
16	68	1
150	187	2
87	89	1
19	19	5
56	57	7
54	55	2
33	47	2
171	172	5
137	138	3
40	40	9
113	114	4
178	179	1
86	153	5
108	109	12
64	64	5
32	32	2
156	180	1
102	102	8
67	69	1
165	169	2
21	21	5
104	104	6
6	8	1
136	137	5
177	178	6
156	156	5
17	17	1
28	30	2
89	93	1
97	100	1
61	62	2
128	130	4
111	112	2
167	167	8
12	24	1
161	162	4
177	189	4
0	5	4
10	21	4
159	160	2
112	112	4
30	70	1
145	159	3
163	163	9
170	171	3
120	120	9
11	11	4
119	120	6
147	174	3
115	118	8
25	78	2
73	73	4
150	177	2
121	124	1
71	77	1
187	187	5
95	95	2
72	73	2
45	47	1
92	151	2
189	189	7
79	110	3
103	106	3
143	160	5
97	97	2
108	108	1
188	188	13
32	34	1
42	56	1
94	95	1
65	66	3
58	58	8
166	166	6
68	70	2
180	182	3
169	173	3
47	49	1
184	184	4
16	17	3
185	187	4
27	28	5
61	63	2
146	147	3
85	108	5
132	132	2
184	187	1
1	1	3
27	29	3
91	91	2
58	64	1
95	149	1
60	67	1
15	68	1
44	45	4
84	86	1
171	173	2
131	131	4
31	64	2
25	71	2
83	85	6
167	170	2
28	28	1
107	118	2
93	113	1
9	24	1
169	182	2
22	23	1
104	151	1
123	124	5
14	15	5
104	123	2
77	78	2
24	25	2
125	134	2
29	30	1
86	87	2
114	115	3
89	90	1
158	159	3
16	70	3
134	137	1
114	138	4
98	149	2
80	84	1
36	38	2
184	186	3
78	83	1
152	160	1
20	21	1
118	119	2
169	187	1
160	163	1
99	149	3
157	157	1
164	169	3
157	182	1
98	102	1
70	70	6
168	170	2
115	116	1
11	12	4
26	71	2
44	44	1
165	165	2
74	89	1
29	29	5
48	49	3
10	22	1
70	73	4
155	156	1
9	9	2
75	76	1
140	167	4
100	116	2
106	154	2
101	103	2
152	159	1
11	123	1
185	189	1
95	113	1
123	137	2
82	83	1
188	189	3
190	190	1
163	165	1
91	92	1
94	151	2
71	73	2
130	130	2
72	81	1
110	140	2
83	110	1
151	187	3
81	82	1
145	187	1
141	169	1
170	182	1
77	83	1
161	161	1
149	151	2
127	128	2
47	47	2
9	10	2
101	106	1
120	125	1
16	35	1
169	184	2
117	118	2
15	24	2
103	144	1
98	98	3
25	79	1
74	76	1
115	133	2
100	101	1
115	117	1
172	177	1
89	89	2
135	136	1
182	182	3
182	185	1
102	103	2
145	188	1
43	43	1
22	24	1
110	111	3
88	93	1
43	45	2
110	114	1
42	43	4
167	173	1
124	125	1
120	135	3
79	81	1
138	139	1
73	74	1
41	47	1
184	185	1
63	66	1
148	149	1
112	114	1
110	115	1
35	38	1
138	140	1
91	113	2
133	155	1
31	35	1
56	71	1
28	29	1
116	118	1
78	82	1
58	59	1
