103	103	10
84	84	15
72	72	10
69	69	15
47	47	10
88	88	13
65	65	11
29	29	8
39	43	8
47	48	10
63	63	2
93	95	1
98	99	14
91	92	7
68	68	14
80	80	9
62	62	6
22	22	14
59	59	10
24	24	8
87	88	4
102	102	14
78	99	1
45	45	13
71	71	10
26	27	2
94	94	13
23	24	8
54	54	15
65	66	9
56	57	9
90	96	3
58	58	8
50	50	14
63	68	2
75	76	4
88	91	2
60	60	10
78	78	12
43	43	21
91	91	11
49	89	3
100	100	19
66	66	22
70	70	10
32	34	3
106	106	9
31	31	8
51	52	4
82	82	13
52	52	13
25	25	9
55	55	11
101	101	8
98	98	23
83	84	8
46	46	16
89	90	6
90	90	8
86	86	9
93	93	11
41	44	2
55	105	2
53	54	12
20	26	4
25	26	9
70	72	1
26	28	2
87	87	2
30	31	11
82	88	2
35	35	8
40	41	9
105	105	3
101	103	5
81	81	12
67	67	19
33	33	6
84	85	7
63	65	2
27	29	1
61	61	10
85	87	2
51	53	4
85	85	17
23	23	13
38	39	4
41	41	4
20	25	2
64	64	10
39	40	4
83	83	8
44	60	2
60	61	4
78	81	5
81	84	4
57	57	6
77	77	9
105	106	1
44	44	5
61	62	2
53	53	7
38	38	23
27	27	6
39	39	6
72	73	2
29	41	4
51	51	2
92	92	9
78	79	12
40	42	1
31	32	1
96	96	4
33	98	3
97	99	3
67	70	2
55	56	5
96	97	4
33	36	4
30	30	9
50	65	4
38	43	1
32	32	14
97	97	10
40	40	11
31	102	1
68	69	2
28	29	10
46	84	2
89	89	4
34	34	15
79	79	6
32	47	1
55	58	1
62	63	5
42	44	2
99	99	7
48	48	8
22	23	1
48	49	2
46	47	2
37	37	8
49	49	10
95	95	7
92	101	5
81	82	1
37	39	4
42	45	4
90	91	8
75	75	9
74	74	7
89	94	2
88	89	7
80	81	4
42	42	5
27	28	1
21	21	1
54	62	2
31	34	1
28	28	9
47	61	2
89	92	2
26	26	7
46	61	1
52	53	2
73	74	2
45	46	1
53	72	1
82	83	1
87	92	2
48	60	3
85	89	1
36	41	1
78	87	1
99	100	1
36	36	5
50	51	2
104	104	5
67	68	1
39	42	2
40	45	1
88	90	1
79	99	3
84	86	1
77	81	1
93	94	4
64	65	3
73	73	4
97	98	1
86	87	2
54	55	1
59	60	1
100	101	2
85	86	1
63	64	1
69	101	1
58	59	1
93	101	1
92	93	4
31	55	1
69	73	2
69	70	1
29	32	1
36	37	2
61	63	1
87	89	2
76	77	2
21	23	1
56	56	7
43	44	1
49	50	4
44	67	1
29	31	1
44	45	2
20	20	1
107	107	1
32	46	2
50	90	1
24	28	1
82	87	2
28	90	1
54	71	1
49	90	1
57	58	1
76	76	2
54	56	1
56	94	1
101	102	2
22	30	1
83	87	2
83	85	1
