189	190	2
153	153	1
165	165	5
196	241	6
179	180	5
152	152	4
67	68	1
54	54	3
53	53	8
91	91	10
191	191	7
179	181	7
154	154	5
180	180	4
150	150	4
209	209	5
107	107	4
39	205	2
204	205	9
163	177	2
35	35	4
210	210	4
159	162	1
186	187	2
181	181	2
33	36	3
1	1	11
68	68	5
146	147	1
182	183	4
76	76	3
3	27	1
31	31	8
151	151	2
38	38	6
121	121	5
37	37	1
95	95	2
13	14	1
20	20	2
115	115	4
227	228	1
218	218	5
66	67	8
150	179	3
21	21	6
147	160	2
164	164	5
34	245	1
184	184	10
52	156	2
92	92	7
247	247	3
71	72	4
172	172	7
244	244	6
6	16	5
202	202	8
159	159	5
119	163	1
23	24	4
195	195	2
192	223	1
240	240	4
208	209	5
34	96	1
16	16	3
44	53	7
204	204	10
218	219	2
7	7	4
242	243	3
246	246	4
213	214	6
113	156	4
173	174	2
22	171	4
184	185	4
166	166	1
217	217	5
44	44	8
28	28	6
225	225	5
82	82	1
40	55	1
168	169	1
234	234	14
25	25	2
45	45	12
173	173	3
52	52	1
17	17	2
22	24	1
208	208	6
32	32	6
72	74	3
47	47	5
58	58	2
189	191	2
94	94	2
179	179	8
166	183	1
193	193	6
114	114	3
97	157	3
68	199	5
248	248	4
151	179	1
22	22	3
65	65	2
149	150	1
46	46	2
116	117	2
177	177	4
28	32	2
19	19	2
155	155	9
199	200	1
233	234	1
195	211	2
213	213	2
178	178	5
206	207	3
27	27	10
14	15	1
239	239	1
41	41	3
156	156	12
203	204	4
238	239	4
199	199	4
43	43	1
215	216	4
64	202	2
222	222	2
120	120	2
211	211	8
221	222	1
88	89	2
25	26	4
202	206	3
56	56	1
39	168	2
23	23	3
198	200	5
158	158	4
7	44	1
167	180	2
159	160	5
230	234	1
81	82	3
81	81	3
57	222	3
48	49	1
99	99	1
32	93	1
93	93	3
161	168	1
185	207	1
109	109	4
11	11	3
158	159	3
233	233	3
10	10	4
41	43	1
33	60	2
15	15	4
245	245	5
48	48	4
55	182	3
33	33	2
70	71	3
115	116	1
36	36	4
161	161	2
35	36	2
32	94	1
41	42	2
175	176	5
182	182	5
56	58	2
90	90	2
15	16	2
194	195	2
76	77	3
62	73	2
8	8	5
214	214	3
170	170	2
119	119	3
48	71	2
26	27	2
53	172	1
34	76	2
5	15	1
12	12	4
212	212	6
72	72	2
69	160	1
206	223	4
216	216	2
189	189	1
51	168	2
84	84	2
113	114	1
231	232	3
160	160	3
26	28	1
203	203	4
201	201	7
30	30	4
67	67	4
87	87	3
47	48	2
168	168	12
54	55	1
211	242	1
4	15	1
161	227	4
6	15	1
110	110	5
10	184	2
179	207	1
163	164	2
197	198	7
62	63	1
158	160	1
114	115	1
205	205	9
208	246	2
29	246	1
233	235	2
150	153	1
39	39	2
13	15	2
19	20	1
52	207	2
212	235	1
219	220	1
189	198	2
174	236	2
198	198	4
41	46	1
178	179	2
98	157	2
199	204	1
176	177	2
174	181	1
97	97	1
238	240	2
87	88	2
207	207	2
203	205	1
66	71	1
87	92	5
27	28	4
62	62	1
50	242	4
247	248	5
164	198	5
182	208	2
6	6	1
3	6	1
221	221	3
200	219	1
68	70	4
53	54	2
38	96	1
108	110	3
197	199	2
84	85	4
82	232	1
236	236	4
53	64	1
34	73	1
111	111	3
216	217	3
241	241	3
229	234	2
192	192	1
229	229	1
64	66	1
185	185	2
11	52	1
52	53	1
5	5	5
69	69	1
86	171	4
115	162	1
192	196	4
38	51	1
2	6	1
63	241	1
157	157	2
186	186	3
42	42	2
90	91	1
44	45	3
214	215	1
9	10	1
162	162	4
169	170	1
196	196	3
13	13	1
3	3	1
200	201	1
56	57	1
212	214	1
211	212	2
174	174	1
183	183	2
181	182	4
21	22	2
24	24	2
194	241	2
181	184	2
36	57	4
153	154	1
101	101	1
75	75	1
77	86	1
80	80	1
220	220	1
183	190	4
107	121	1
190	190	3
237	237	1
92	93	1
231	231	2
187	188	1
35	70	1
198	217	2
176	176	1
192	193	1
159	199	1
98	98	1
234	235	2
176	183	1
36	37	1
238	238	1
154	155	1
230	235	2
223	223	1
18	32	1
65	66	1
67	83	1
202	203	1
67	236	2
150	151	1
180	181	2
85	85	1
108	108	2
29	29	1
2	2	2
193	195	1
163	182	1
165	173	1
109	111	1
171	171	1
168	201	1
196	218	1
113	149	1
39	40	1
193	196	1
197	197	1
17	18	1
170	199	1
171	193	1
212	215	1
26	95	1
9	153	1
235	235	1
86	86	1
57	58	1
113	113	1
18	18	1
195	196	1
15	27	1
183	184	1
49	51	1
145	145	1
240	242	1
