152	152	4
78	81	1
58	67	3
15	18	2
0	0	4
164	164	3
50	51	8
94	95	4
26	26	5
62	63	7
83	83	10
4	4	6
85	85	8
131	131	15
139	139	12
9	9	10
119	121	2
16	16	4
46	46	8
108	108	8
7	8	3
76	77	1
3	3	11
11	13	1
5	5	10
73	81	1
64	83	3
48	48	8
69	144	2
45	45	9
136	136	13
138	145	6
88	88	11
75	85	3
96	96	3
148	148	3
4	6	2
74	74	4
98	100	2
6	7	2
20	21	2
14	51	4
111	111	8
112	126	4
134	134	10
113	113	7
114	114	3
132	132	8
43	110	1
45	46	4
21	22	5
17	17	7
123	123	5
22	22	9
126	146	2
44	45	3
170	170	8
87	98	4
81	81	6
46	47	2
58	83	2
111	148	2
5	149	3
64	64	10
115	156	3
91	91	11
51	51	2
97	97	3
135	135	4
2	2	10
73	73	6
78	79	12
85	94	5
97	129	1
143	143	5
57	72	2
102	102	3
94	94	6
69	127	1
160	160	8
62	62	2
127	129	3
23	41	1
144	144	5
53	78	1
103	103	3
119	124	1
154	155	1
70	70	6
104	148	1
122	122	4
38	38	5
73	126	1
109	109	4
99	99	6
139	140	5
5	6	8
130	130	4
138	138	6
25	25	8
86	87	4
142	162	1
39	49	1
44	44	3
82	82	3
63	96	5
34	34	3
0	7	1
54	54	4
88	92	1
34	37	1
155	155	11
13	13	3
14	15	4
49	49	9
155	166	4
78	78	2
69	69	3
115	116	1
8	14	2
75	76	1
74	75	1
153	153	4
126	131	1
80	82	4
40	40	6
85	86	5
53	53	3
35	35	7
5	152	1
121	121	4
98	98	5
84	84	4
63	63	4
144	159	2
92	92	7
104	104	5
74	132	1
115	115	3
165	165	2
65	65	6
166	166	2
77	77	4
89	90	4
47	49	2
8	8	4
144	146	3
57	128	1
129	129	8
113	129	2
140	148	1
134	135	2
87	87	11
37	37	10
72	125	1
150	150	4
14	50	2
55	55	6
45	48	1
162	163	1
27	28	5
14	14	9
111	112	2
12	12	5
89	89	7
17	44	2
44	46	2
132	168	1
155	159	1
153	162	2
112	114	3
36	36	8
135	136	3
14	52	2
7	7	10
39	40	2
150	168	3
20	20	14
15	15	6
118	118	1
56	58	1
137	137	2
58	119	1
10	10	2
87	88	2
95	95	4
35	37	2
34	35	3
155	156	6
145	145	3
54	55	4
124	124	4
67	127	3
20	51	2
52	52	6
107	143	2
80	84	1
19	22	1
67	67	5
24	47	1
57	63	1
70	71	1
133	133	5
161	163	2
156	156	4
63	69	1
108	110	1
11	11	14
43	43	3
13	15	2
71	72	2
158	158	5
52	53	2
93	93	5
27	55	1
168	169	1
41	42	2
19	23	2
55	56	5
48	49	3
40	51	1
49	57	2
8	9	2
75	130	3
47	47	1
90	90	4
91	92	8
19	19	7
159	159	6
122	125	2
44	49	3
21	21	6
24	24	2
56	56	5
142	142	3
153	161	2
149	149	7
43	44	1
73	117	2
97	98	1
53	54	1
45	47	1
91	93	2
28	28	2
141	141	2
104	105	4
92	93	5
97	125	3
157	157	5
75	75	5
43	47	1
161	161	4
138	140	1
163	163	5
159	165	1
72	72	5
151	152	1
4	150	2
18	19	2
22	23	3
76	79	1
10	15	3
37	136	1
122	124	3
160	167	1
103	147	2
164	165	2
10	16	2
124	125	2
137	139	1
56	72	3
127	157	1
6	6	3
77	80	1
155	167	2
75	132	3
101	105	3
146	149	2
154	154	1
44	47	1
1	1	10
50	50	3
13	47	3
86	86	5
41	76	1
71	71	2
37	38	1
89	92	1
81	82	3
16	17	1
72	78	1
27	27	1
96	127	5
167	167	5
8	70	3
3	7	1
113	137	1
97	128	1
75	82	1
143	144	1
168	168	2
5	147	2
87	97	1
110	150	2
117	118	1
145	146	1
40	48	1
111	113	1
139	141	1
19	20	1
146	147	1
65	68	3
18	53	1
83	84	2
126	128	1
147	147	1
1	12	1
142	143	1
78	80	1
40	47	2
106	117	1
112	149	1
17	24	1
136	149	1
163	164	1
17	48	1
51	63	1
125	125	2
41	49	3
110	110	4
107	107	4
100	100	3
128	128	2
151	168	3
99	160	2
53	72	1
47	48	1
82	122	2
101	102	2
116	153	1
10	12	2
114	119	1
17	37	3
163	166	1
121	123	1
140	140	2
101	101	1
49	50	1
118	159	1
7	53	2
118	119	1
117	117	3
42	42	3
91	94	1
74	86	1
100	103	2
17	51	1
112	112	5
3	9	1
74	76	2
22	24	3
147	149	1
26	27	1
125	142	1
55	83	2
11	44	1
58	58	1
135	148	1
18	18	2
65	67	1
54	56	1
0	1	1
125	126	2
126	127	1
0	11	1
106	145	1
146	146	2
86	88	1
93	94	1
80	80	1
41	43	1
107	108	2
33	33	2
15	90	1
15	20	1
12	21	1
16	155	1
57	57	1
128	155	1
6	96	2
76	76	1
117	147	1
119	119	1
120	120	1
13	14	1
132	137	1
102	103	1
42	43	1
141	166	1
138	142	1
138	139	1
34	42	1
7	47	2
95	99	1
97	127	1
25	26	1
35	36	1
4	10	1
101	104	1
56	62	1
165	168	1
105	106	1
116	116	1
133	134	1
24	25	1
162	162	1
27	71	1
2	47	1
