5	6	5
114	115	2
135	135	17
33	33	7
12	15	1
106	106	12
94	94	15
6	6	9
7	7	14
21	27	2
8	9	4
24	25	3
72	122	3
13	13	13
73	74	4
123	123	5
27	28	4
80	80	8
127	127	7
133	133	17
9	10	4
76	77	3
34	34	6
137	138	1
20	75	4
131	131	12
3	3	7
4	5	4
22	22	5
79	79	3
12	12	4
123	124	7
117	118	1
125	127	2
130	130	16
133	134	5
6	8	4
132	133	4
116	116	11
111	112	7
132	132	13
17	35	4
80	84	2
10	11	3
104	106	5
74	75	6
84	107	2
110	111	4
118	118	5
87	87	1
35	35	8
128	128	4
8	8	5
27	27	3
114	114	4
126	126	13
72	73	3
100	101	1
100	100	10
90	90	11
83	105	1
131	132	7
84	84	5
86	100	2
92	93	3
125	125	4
112	112	5
9	9	2
119	119	4
16	17	5
136	136	6
138	139	1
37	37	9
30	30	4
138	138	6
97	98	2
113	113	4
81	81	5
89	89	5
29	32	3
5	5	11
28	28	5
92	92	3
136	138	2
26	26	1
82	82	14
84	105	3
19	33	1
104	110	1
5	33	1
74	74	3
89	90	4
21	21	10
121	122	8
86	86	2
24	76	1
78	78	5
91	91	6
91	93	2
4	4	1
98	125	2
129	129	8
32	32	12
1	1	1
124	124	9
130	132	1
137	137	2
22	24	2
75	76	3
24	24	3
18	18	3
75	75	7
71	72	1
26	27	1
118	119	1
95	96	1
139	139	7
108	108	7
2	3	3
25	103	1
101	101	6
121	121	2
97	97	4
83	83	3
36	36	7
140	141	4
19	19	6
140	140	5
27	30	1
130	131	2
109	109	5
120	120	5
120	123	1
116	123	4
22	23	4
8	11	2
120	121	2
25	26	4
111	111	2
73	73	1
117	117	2
83	86	2
17	33	2
96	96	3
102	102	1
84	85	1
71	71	5
29	29	5
86	87	3
87	109	1
85	85	1
23	23	1
21	25	4
14	14	2
91	92	2
135	136	1
7	31	2
68	68	1
72	72	1
82	103	1
117	119	3
7	10	2
20	20	2
134	134	6
15	16	1
77	77	2
95	95	2
96	101	1
98	98	3
93	93	3
17	18	1
118	120	2
83	84	1
81	85	1
82	84	2
79	122	2
122	122	2
108	109	2
15	15	3
82	122	1
91	94	2
116	120	1
120	122	1
81	82	1
19	36	1
19	21	2
72	79	2
16	16	3
22	123	1
18	20	1
94	95	1
11	12	1
115	115	1
93	94	2
38	38	1
35	36	1
113	114	1
33	34	1
90	91	2
112	116	1
134	139	1
75	77	1
107	108	1
112	113	1
0	7	1
10	10	1
