23	24	1
79	79	13
80	81	4
53	53	6
50	50	14
23	23	8
29	29	2
73	73	10
29	30	1
9	9	11
81	82	6
78	78	4
34	35	5
31	85	1
68	68	21
7	7	6
62	62	6
71	71	19
65	65	18
24	25	3
72	74	8
75	77	2
22	23	7
69	69	12
19	19	19
48	48	18
5	5	7
10	11	1
26	26	8
82	82	6
74	74	13
86	86	5
4	5	3
46	48	1
78	83	4
88	89	1
14	14	8
76	76	18
3	3	19
27	28	1
12	12	23
57	60	2
16	16	8
12	13	11
8	8	6
22	22	11
57	58	4
79	80	11
58	58	12
55	56	3
85	85	15
10	16	2
58	77	1
27	27	10
81	81	13
25	89	1
66	66	12
83	83	5
20	21	4
84	87	2
49	49	7
14	25	2
84	84	13
1	1	11
13	14	3
57	57	19
76	77	1
53	55	5
30	30	11
17	18	2
6	48	2
65	66	10
63	64	4
0	0	5
62	78	3
46	54	1
31	32	3
17	60	3
87	87	11
53	75	1
67	67	12
60	61	7
10	10	7
77	77	14
15	16	6
18	51	3
72	73	3
78	79	3
25	25	12
35	35	5
49	50	3
26	27	4
79	81	4
8	9	8
15	15	7
4	4	7
87	89	1
13	13	10
54	54	11
88	88	5
6	6	10
26	50	1
20	20	11
80	80	11
11	11	4
27	47	1
52	52	5
22	31	4
72	72	8
71	74	4
6	7	2
18	18	6
9	48	1
50	51	1
71	84	5
56	59	1
59	79	1
7	8	4
58	59	1
89	89	5
75	75	14
51	51	9
56	56	4
60	60	2
48	83	2
53	54	9
7	21	1
46	46	2
30	31	3
48	56	1
80	82	4
47	47	10
16	51	1
51	66	1
87	88	1
58	61	6
24	24	2
21	21	4
31	31	3
61	62	1
19	20	6
76	78	2
73	76	1
55	59	2
81	87	1
25	26	3
25	51	2
49	76	2
59	61	4
34	34	1
17	17	4
13	34	3
16	49	6
2	2	4
81	84	1
70	70	2
71	81	1
55	55	5
67	68	2
52	54	2
25	27	3
56	76	5
21	23	2
82	83	7
61	61	2
47	61	1
55	66	1
65	81	1
13	15	2
5	7	1
50	75	1
51	58	4
62	76	1
22	27	1
16	27	3
54	55	2
25	64	2
28	28	3
65	83	1
50	78	1
19	77	1
31	55	2
2	3	3
47	48	3
5	12	1
14	49	2
64	64	2
56	57	4
68	70	1
12	14	1
51	67	2
89	90	1
77	79	1
63	63	2
46	47	1
12	33	1
75	76	1
83	84	1
54	56	1
85	86	1
74	75	1
68	69	2
3	4	1
1	2	1
67	75	1
78	80	1
85	87	1
23	27	1
23	31	1
77	78	1
71	72	1
48	50	1
