66	66	10
146	147	3
180	180	8
233	240	1
56	56	5
173	173	7
218	218	10
244	244	14
27	27	17
169	191	1
213	213	15
150	151	7
212	212	9
109	109	11
91	91	17
187	195	1
196	196	17
72	119	1
226	226	5
237	241	3
171	171	5
196	209	4
193	194	7
232	244	5
194	195	9
114	114	7
157	157	16
44	44	10
62	62	16
111	111	4
196	244	1
111	146	2
112	117	1
51	51	7
37	38	6
102	103	6
36	36	8
170	170	7
237	237	10
25	25	5
82	82	8
184	184	10
185	189	3
158	160	3
181	193	6
59	59	19
118	238	5
106	106	11
71	72	2
16	16	6
115	115	20
172	172	12
236	236	6
174	219	3
209	209	28
34	34	12
15	34	3
206	206	8
10	10	12
68	68	8
159	159	10
178	178	7
119	119	17
26	28	4
14	33	3
221	222	5
61	62	6
237	243	4
155	247	2
214	214	12
247	247	10
110	174	2
93	94	1
95	95	10
63	63	9
171	196	2
242	242	6
14	30	9
67	109	4
211	211	8
52	52	6
156	156	20
46	46	3
188	190	7
119	120	6
160	160	11
45	45	11
185	246	3
9	9	8
78	81	8
175	177	6
221	221	20
162	225	1
30	30	10
228	228	9
169	179	1
243	243	7
99	99	6
232	232	7
1	1	1
200	210	2
17	17	10
164	183	1
191	192	5
205	205	10
229	229	11
151	151	19
110	156	2
96	96	5
49	50	3
213	248	2
230	243	5
231	231	16
44	57	2
174	232	2
12	35	5
5	5	18
191	191	10
241	247	3
69	70	5
188	189	10
201	201	8
217	217	7
84	84	6
164	208	2
224	224	10
152	157	3
100	100	7
151	206	5
6	103	5
26	26	8
24	24	6
99	101	1
202	225	1
145	145	7
226	227	2
98	98	5
31	31	6
85	85	9
184	209	5
177	177	12
194	194	8
69	69	14
228	229	9
57	57	7
212	213	3
186	186	5
53	53	10
70	119	3
201	208	3
104	104	11
172	173	5
15	39	2
77	78	5
233	233	5
180	184	2
24	42	1
75	107	5
193	197	2
198	198	18
102	102	15
115	242	1
76	82	1
94	117	2
167	168	2
245	245	8
146	159	2
190	192	5
76	88	1
2	42	2
160	166	3
192	195	4
51	52	10
167	167	13
175	175	4
166	232	1
163	210	4
199	206	1
195	242	1
15	15	7
81	81	22
155	155	10
204	205	3
225	226	2
202	202	18
247	249	1
225	225	11
230	244	2
219	219	7
192	192	16
145	160	4
77	77	9
198	206	4
21	21	10
60	60	10
7	7	11
98	116	1
235	235	12
160	180	1
86	86	9
43	43	9
151	164	2
158	159	6
158	161	2
180	190	2
33	33	4
8	8	11
196	214	1
207	208	1
216	218	5
199	226	2
215	218	5
116	116	16
118	118	14
188	188	6
189	194	6
197	197	10
246	249	4
94	118	1
157	181	2
169	169	19
70	70	4
66	86	1
164	164	15
94	94	12
95	96	4
76	77	5
213	214	7
218	219	4
98	115	2
105	105	7
214	234	2
235	236	5
24	25	3
232	240	2
236	239	4
108	108	6
188	196	1
50	50	9
38	38	3
30	54	5
76	76	8
58	58	9
227	227	6
176	177	6
73	73	7
87	87	9
147	153	3
52	54	4
110	110	14
184	225	3
30	35	1
166	167	4
167	183	2
147	147	2
152	189	3
71	71	9
37	37	14
174	178	2
201	205	4
171	173	5
79	89	4
22	22	19
171	234	2
49	86	5
47	48	2
169	243	3
72	73	7
163	179	3
188	198	3
228	230	1
248	248	7
216	216	14
116	146	3
61	65	5
62	80	1
185	227	3
190	195	3
176	184	8
191	194	1
78	78	3
187	190	5
187	191	5
174	174	8
93	93	4
83	100	2
195	195	10
233	234	3
209	211	2
238	238	7
162	163	5
67	86	7
117	117	13
18	18	9
112	112	4
239	239	7
86	223	2
198	199	4
166	166	15
179	179	6
79	118	2
32	32	11
240	240	11
193	201	1
81	82	3
51	94	1
165	197	3
55	55	8
63	103	3
179	209	2
4	5	4
179	200	1
241	248	2
103	121	1
199	208	2
111	188	1
182	182	11
184	191	2
12	12	13
65	65	9
40	40	15
219	237	5
203	204	1
35	35	4
204	212	2
208	208	18
181	181	18
219	220	3
161	176	3
75	75	14
90	93	4
169	200	1
187	188	7
238	239	9
106	107	2
203	203	13
184	189	5
82	83	2
97	98	2
5	48	5
80	81	9
97	97	4
58	61	4
144	173	3
87	88	8
9	10	8
164	184	4
86	90	3
178	238	3
94	110	1
154	154	5
176	176	6
10	11	1
11	11	11
171	200	2
234	235	2
154	247	2
189	191	5
164	212	4
84	121	1
26	44	1
49	49	4
118	119	3
222	222	6
156	232	3
158	158	2
39	39	2
86	88	2
218	229	3
104	106	9
150	150	10
54	54	6
64	64	4
3	48	1
198	215	5
64	103	7
152	152	12
61	61	3
70	102	3
206	207	3
89	89	7
113	114	1
169	171	1
230	240	3
25	26	4
178	184	2
92	92	8
187	187	12
111	116	1
93	110	2
191	242	3
15	38	3
204	221	1
246	246	5
79	81	2
49	95	1
197	198	5
43	44	6
97	99	4
69	118	1
227	228	3
107	108	2
236	240	4
42	42	7
151	212	3
83	83	4
23	23	3
57	58	2
32	33	2
114	116	2
162	235	2
192	198	3
183	183	7
200	200	10
181	184	4
185	185	9
77	86	2
190	190	4
239	247	1
153	153	4
76	99	1
61	79	3
184	214	3
95	97	6
64	79	3
176	231	2
161	161	4
200	211	3
151	227	1
167	232	1
116	117	10
150	181	1
149	149	9
184	195	2
118	120	3
200	209	2
81	83	2
71	107	5
155	227	2
230	230	5
117	118	2
97	103	2
68	90	1
215	215	8
71	100	2
71	101	1
248	249	2
212	222	3
199	199	5
166	197	1
177	232	1
221	225	1
198	221	5
230	231	2
147	154	3
220	221	2
84	85	6
74	101	1
204	204	4
215	220	3
31	34	1
194	221	2
71	74	4
67	67	4
112	157	2
163	169	3
18	29	2
165	165	3
166	244	1
163	183	3
121	121	6
158	189	1
153	173	1
196	211	5
110	241	3
78	80	2
68	112	1
162	179	3
118	145	4
21	33	2
169	203	2
2	34	5
154	178	3
90	90	8
210	210	12
168	168	7
9	11	1
108	117	2
77	81	2
105	106	3
241	242	2
196	239	3
167	181	4
216	219	1
108	241	1
175	203	5
177	178	2
79	95	3
207	207	10
106	117	1
163	212	2
166	181	4
111	119	2
20	20	6
244	248	2
42	43	2
161	162	4
8	10	3
56	59	4
171	231	2
33	51	3
175	176	2
223	224	1
151	207	2
247	248	1
112	116	2
91	94	3
92	93	1
73	74	5
52	169	2
159	160	5
179	184	2
113	113	6
238	241	1
2	8	1
180	207	2
234	236	3
5	114	1
70	74	2
48	51	1
55	56	3
6	6	4
2	43	1
68	70	3
18	23	1
212	224	2
84	119	1
208	210	2
160	220	1
245	246	2
220	220	3
6	42	5
85	88	1
167	240	2
162	162	6
186	187	3
48	52	1
35	36	3
75	77	5
193	193	3
1	2	3
166	241	5
223	223	8
167	242	1
19	19	3
69	75	3
176	232	1
145	228	2
29	31	1
88	88	3
154	155	2
176	192	3
168	170	1
104	105	2
235	246	1
199	200	2
110	113	3
234	234	3
158	188	2
85	103	1
96	97	5
6	46	6
175	231	2
153	212	3
28	29	2
41	41	2
172	175	3
169	170	5
14	35	1
29	30	2
80	86	1
169	172	2
57	59	2
80	80	4
180	182	4
180	181	1
160	226	2
38	39	2
102	114	1
4	4	2
36	37	4
145	154	1
78	94	2
163	163	5
164	167	1
72	72	4
249	249	3
28	32	2
80	95	2
181	182	1
171	222	1
62	100	1
66	115	2
172	199	1
161	163	1
52	53	3
37	207	7
243	244	1
64	101	1
113	242	2
179	233	1
67	114	1
20	21	3
88	91	8
29	29	2
104	172	1
62	82	2
48	48	4
51	179	1
215	232	1
1	17	1
160	195	1
241	241	4
173	237	1
55	106	1
94	95	7
44	45	4
67	68	2
114	153	4
163	164	5
14	34	1
186	201	4
211	212	2
157	239	2
170	243	4
66	92	2
60	117	1
98	99	3
70	98	1
236	242	1
197	199	3
93	235	5
157	183	1
17	18	1
169	182	2
157	182	3
57	61	1
25	45	1
192	193	2
239	240	1
165	211	2
111	118	2
182	183	5
173	176	1
181	196	1
18	34	1
201	226	4
174	231	2
164	217	2
96	99	3
90	91	1
181	191	1
60	62	1
244	245	1
63	64	2
6	7	1
4	17	1
78	101	1
172	177	2
239	242	1
73	115	1
215	216	2
240	242	1
189	201	2
116	240	1
50	51	1
40	41	3
198	211	1
86	87	2
159	162	1
208	209	2
40	210	1
22	23	1
209	210	5
88	89	5
150	166	1
108	109	1
239	241	1
81	97	2
217	242	1
189	190	1
153	156	1
214	215	2
189	189	6
169	174	2
62	84	1
95	99	1
47	47	3
190	241	1
171	238	2
18	33	1
207	227	1
61	100	1
175	202	2
107	107	1
54	170	1
71	75	2
168	180	2
18	19	1
236	237	2
3	42	2
156	241	2
6	102	1
113	116	2
117	121	1
15	52	2
3	3	1
190	243	1
207	226	1
55	60	1
39	40	1
7	11	4
113	200	1
55	171	2
67	69	1
99	108	3
166	182	3
192	210	1
210	211	2
76	95	1
212	214	1
196	200	1
195	196	1
115	116	1
200	223	3
83	88	1
74	119	1
74	74	2
18	54	1
73	84	1
168	169	1
219	233	1
144	184	1
173	184	1
50	58	1
76	79	1
167	182	2
154	204	1
98	111	2
240	241	2
55	224	1
242	243	1
231	247	1
218	233	1
206	227	1
174	177	1
76	81	1
73	101	1
159	161	1
194	198	1
176	218	1
172	182	1
69	72	1
229	242	1
101	101	1
157	158	2
64	65	2
164	247	1
118	240	1
61	101	1
103	103	1
14	14	2
111	112	1
25	53	1
73	117	1
196	243	1
102	104	3
31	33	3
196	198	1
169	181	1
57	75	2
41	42	2
160	161	1
224	227	2
190	193	1
157	211	1
152	184	1
153	197	1
91	108	2
18	30	2
56	57	2
65	66	1
114	115	1
179	180	2
12	15	1
202	205	1
17	28	1
207	224	1
53	170	1
186	245	1
33	56	3
144	216	1
78	79	1
51	55	1
202	203	2
232	242	2
183	215	1
151	213	3
160	187	1
60	110	1
59	94	1
222	223	2
51	56	1
207	209	1
170	182	1
70	71	1
164	182	1
192	196	2
182	207	1
190	191	1
12	42	1
25	30	1
174	175	1
156	162	1
115	241	2
166	246	1
26	27	1
146	248	1
172	245	1
53	54	2
88	103	1
157	172	2
21	200	1
65	154	2
7	42	1
165	167	1
199	211	1
99	100	1
234	238	1
19	24	1
80	89	1
230	232	1
89	120	1
1	55	1
15	37	1
158	168	1
163	208	1
16	35	1
180	220	1
178	181	1
