52	52	6
128	128	4
1	4	1
26	26	3
48	48	5
82	90	4
7	8	4
116	116	6
99	99	3
1	1	8
122	123	6
81	91	4
81	89	2
111	112	2
113	113	11
83	86	3
85	85	2
122	122	6
55	55	5
44	45	3
108	108	2
42	42	8
67	71	1
124	124	3
135	135	3
100	100	17
148	148	5
12	13	2
33	33	2
102	102	5
2	2	4
23	136	2
29	29	16
89	89	2
77	77	3
125	126	1
146	148	3
22	22	3
31	42	5
14	14	6
153	153	11
19	33	1
36	36	17
136	136	8
147	147	13
39	39	5
49	68	1
142	142	5
47	48	3
151	151	6
127	127	8
126	147	1
88	89	3
50	51	5
110	110	4
41	51	6
8	8	4
54	54	4
122	145	3
103	104	5
132	133	2
126	158	4
123	123	2
6	6	3
80	80	12
64	64	7
10	10	9
96	96	3
82	88	1
41	41	7
21	21	9
115	117	2
29	37	1
123	153	1
27	27	5
118	137	3
17	17	4
19	20	8
109	109	2
143	143	10
61	61	1
113	114	5
114	114	7
3	38	3
87	89	1
14	15	2
107	154	3
84	93	4
138	138	1
6	27	2
114	138	1
98	118	1
112	120	1
79	80	2
0	42	2
80	81	1
1	2	7
46	46	6
132	132	4
7	7	8
20	21	8
128	158	2
119	120	5
139	140	1
127	129	5
154	154	2
34	34	5
118	118	2
43	43	4
79	109	2
117	117	4
68	68	1
135	136	5
39	43	7
45	45	6
63	64	2
104	104	6
114	133	3
0	0	9
146	146	12
56	57	4
81	81	2
50	64	1
121	124	2
51	51	3
15	15	3
49	49	3
105	125	3
9	9	4
84	84	5
69	71	6
46	47	6
14	83	4
146	154	4
15	24	1
33	36	5
75	75	6
82	82	3
149	151	2
101	138	4
90	90	4
82	83	2
94	94	2
52	53	6
19	19	2
150	150	3
136	137	5
47	47	2
145	150	2
156	156	5
120	124	6
22	23	3
13	28	5
108	109	5
150	156	3
30	31	1
83	83	3
2	4	1
144	144	4
8	9	1
94	96	3
40	43	3
102	103	4
0	1	1
151	154	2
119	147	3
22	34	3
2	6	6
32	55	1
130	130	2
128	135	2
134	134	4
112	114	5
137	138	3
140	140	4
84	85	4
157	157	1
81	92	1
79	120	2
13	14	1
105	105	4
95	97	3
72	72	3
141	141	8
4	7	1
63	63	2
86	96	3
24	24	4
86	86	6
41	62	1
158	158	2
65	90	2
19	39	1
114	115	2
128	137	1
31	31	7
133	133	6
52	57	2
72	100	2
115	115	5
134	139	5
153	156	1
93	93	2
77	78	1
69	70	4
119	119	1
17	85	3
25	25	2
79	79	3
113	117	1
129	129	4
137	137	3
18	54	3
63	70	2
70	70	2
117	119	1
24	36	2
50	50	3
54	55	2
23	44	2
11	11	2
5	36	1
56	56	3
31	32	3
51	55	1
87	92	1
92	92	2
121	122	2
3	3	2
103	103	4
79	104	2
136	138	5
25	30	4
117	148	3
148	149	2
13	13	1
68	69	3
38	38	3
70	71	4
33	34	1
73	73	3
78	81	1
3	35	1
38	43	1
88	88	1
10	11	2
139	139	2
41	82	1
39	40	3
145	145	5
30	30	2
86	97	1
16	17	2
14	85	2
26	133	4
106	152	3
43	47	1
114	117	3
158	159	2
91	91	3
97	97	2
21	22	1
66	67	1
123	124	4
123	136	3
83	91	4
98	120	2
15	70	1
51	52	2
8	15	1
124	125	2
40	40	3
124	154	2
126	126	1
86	89	1
125	152	2
37	37	5
67	67	2
131	138	2
86	87	3
40	51	1
112	113	1
48	51	2
9	15	3
105	152	1
120	120	1
127	128	1
30	42	1
18	18	2
77	82	1
134	153	1
40	41	1
138	139	1
84	86	3
137	145	1
128	138	1
49	70	3
125	157	2
13	37	1
111	146	1
93	94	1
107	143	1
12	12	1
107	113	2
62	62	1
21	31	2
147	154	2
4	4	2
49	85	1
5	29	2
54	58	1
133	155	1
55	56	1
99	100	1
112	112	1
88	90	1
31	56	1
20	20	1
81	95	1
12	34	1
121	121	1
98	99	1
138	150	2
77	81	1
18	97	1
111	113	2
137	156	1
154	155	1
53	71	3
52	70	1
78	78	1
29	30	1
42	43	1
76	77	2
3	36	1
15	16	2
5	134	1
35	36	2
10	39	2
149	149	1
20	51	1
41	42	1
26	27	1
32	32	1
5	132	1
118	138	1
62	64	1
51	53	1
52	84	1
