135	135	21
93	94	6
26	26	12
71	117	3
90	91	3
76	76	16
31	32	12
3	5	2
7	8	4
122	122	26
125	125	23
13	30	3
105	105	4
75	75	15
121	121	29
3	18	5
120	121	10
88	88	11
87	87	9
110	111	8
25	25	18
22	23	5
20	21	2
91	121	3
28	28	15
124	124	26
2	2	16
0	0	14
21	21	20
72	78	1
19	19	9
12	12	18
125	129	2
73	74	6
122	123	5
89	90	9
1	2	4
113	113	16
16	16	16
32	32	6
128	128	15
22	123	1
92	96	2
23	24	4
101	101	18
80	80	23
121	122	5
130	130	25
21	22	4
9	9	11
36	124	3
77	77	14
30	30	12
79	79	24
96	96	19
93	93	16
33	33	21
94	95	8
109	111	5
16	18	10
109	109	19
26	27	1
15	15	10
1	1	7
11	11	14
91	124	1
123	123	34
119	119	9
100	100	20
91	91	14
135	136	10
131	131	30
92	122	6
116	116	12
14	14	23
114	114	24
89	89	13
104	104	15
110	110	14
14	27	2
87	126	5
117	117	26
124	125	6
73	73	14
82	83	6
107	107	17
94	94	14
126	126	8
2	19	7
18	18	15
134	134	16
85	85	13
7	7	17
78	78	8
106	107	17
84	84	12
10	10	9
35	35	21
99	114	2
7	20	5
15	16	7
90	90	18
17	17	22
108	108	20
137	138	16
97	123	1
87	88	6
127	127	28
126	128	4
117	118	5
81	82	3
116	117	5
132	132	25
127	128	4
104	105	9
133	133	12
137	137	18
13	13	29
134	136	2
103	103	6
98	98	18
97	100	3
101	103	7
10	11	9
2	16	1
3	21	1
119	120	13
24	24	3
128	129	22
133	135	4
136	136	19
6	6	14
111	112	4
97	97	12
3	3	7
91	104	2
118	119	16
110	112	5
101	102	6
92	93	6
22	22	20
92	104	1
112	112	16
97	98	6
37	37	3
92	94	2
72	91	1
114	115	13
81	88	7
71	71	7
86	90	5
72	72	16
115	115	8
22	25	3
34	35	10
109	110	1
95	95	13
136	138	3
112	113	8
3	20	1
118	118	12
102	103	5
16	19	1
120	123	1
36	36	12
97	102	3
131	132	3
134	135	19
78	79	2
13	14	5
106	106	14
99	99	15
78	86	1
125	130	2
121	123	4
18	19	3
138	138	10
38	38	11
3	4	1
139	139	6
6	13	1
77	79	1
90	94	2
138	139	7
5	6	3
129	129	23
0	1	8
86	86	13
2	3	8
28	29	6
123	124	11
113	116	1
9	12	3
125	126	3
92	92	9
116	121	1
7	13	3
119	122	4
12	18	3
29	30	3
100	101	10
5	5	3
75	76	4
114	122	4
136	140	1
130	132	3
88	91	3
27	27	12
27	29	6
28	30	4
2	15	7
25	26	6
81	81	8
29	29	13
14	15	5
7	24	2
127	129	5
37	123	1
20	20	12
109	121	3
7	19	4
74	74	7
139	140	6
23	23	15
27	28	2
19	20	2
111	111	11
136	137	4
126	129	2
97	99	1
71	72	3
117	119	3
103	104	8
8	12	3
31	31	5
95	96	11
140	140	19
17	18	5
19	22	3
74	75	3
73	93	1
8	8	11
82	82	15
5	7	2
28	32	1
33	34	3
102	102	8
4	4	5
129	130	8
0	14	3
2	17	3
130	131	4
116	119	1
96	97	5
1	23	4
80	89	4
77	80	2
82	89	2
91	103	1
133	134	1
96	101	2
113	122	2
124	129	1
21	23	2
96	98	1
71	118	2
71	77	2
98	110	1
77	78	3
99	100	2
94	101	1
137	140	2
11	19	2
75	80	1
12	13	2
13	29	2
132	133	5
32	33	4
95	97	4
4	5	4
0	15	5
82	87	3
84	88	1
107	108	1
90	124	6
126	127	2
117	140	1
120	120	3
88	89	2
134	137	1
85	88	4
89	124	4
9	23	2
72	119	1
108	109	2
86	88	3
72	73	3
94	140	3
14	21	2
8	9	3
24	25	4
26	125	2
120	122	1
4	6	1
27	30	3
107	122	2
8	10	1
11	12	4
34	34	4
97	101	4
97	122	1
8	26	2
115	116	3
6	7	4
106	113	1
123	130	4
85	86	4
37	38	2
131	135	2
73	77	1
98	120	1
81	90	1
16	17	2
30	31	2
113	121	1
7	12	1
116	120	1
7	27	2
16	39	1
15	19	2
109	112	1
104	120	1
99	136	1
4	111	1
74	80	1
131	134	3
98	99	2
107	109	1
79	87	1
124	126	3
19	21	1
104	106	1
98	123	1
35	36	2
99	123	1
86	105	1
27	32	1
3	19	1
28	35	4
37	124	2
72	77	1
132	134	2
15	18	2
126	133	1
83	83	1
95	100	1
134	138	1
12	17	1
34	140	1
74	76	1
38	124	1
24	27	1
17	19	1
35	125	1
118	120	2
3	16	2
90	103	2
22	24	1
98	122	1
85	107	1
36	37	1
96	123	1
99	115	1
94	119	1
88	90	1
87	92	1
111	115	1
76	77	1
105	113	2
85	106	1
5	14	1
71	93	1
79	80	1
5	15	1
14	16	1
