76	76	13
126	126	6
86	93	8
109	109	12
72	92	1
20	22	1
128	129	1
7	7	9
147	148	4
65	85	2
55	55	9
22	58	2
147	147	12
29	45	3
11	11	12
123	123	21
26	29	2
125	125	9
93	98	3
54	54	10
33	33	21
134	134	13
75	78	1
39	56	2
24	24	18
30	31	12
75	81	1
57	57	16
42	48	4
27	50	5
152	152	4
113	113	4
96	97	2
62	91	3
70	70	13
10	10	6
47	47	12
94	94	10
108	108	6
32	73	3
145	145	11
20	63	4
96	136	2
135	135	9
39	55	7
10	40	1
23	23	7
4	4	6
86	87	8
107	107	4
64	64	5
17	76	6
50	50	20
138	138	9
22	22	12
151	151	5
31	33	4
47	115	4
99	110	1
64	66	3
11	12	2
72	73	4
17	17	20
142	142	13
6	8	2
20	21	5
90	92	1
63	79	7
94	111	5
26	26	9
125	128	4
28	29	4
18	23	3
31	34	2
19	19	14
20	20	5
87	87	3
105	109	6
4	5	7
4	22	2
8	9	18
121	147	2
15	15	10
75	75	12
9	9	14
101	101	6
53	53	11
84	85	8
13	13	19
143	144	12
105	110	5
99	99	3
129	129	4
39	39	9
98	98	14
71	71	8
27	27	8
55	68	2
144	151	1
106	125	2
21	21	13
67	67	14
32	65	3
122	124	5
101	123	4
41	110	1
131	131	8
143	143	8
88	89	1
110	110	5
4	16	2
34	35	5
45	45	26
6	6	4
11	28	2
28	64	4
94	95	7
83	99	1
69	69	12
18	77	4
5	5	11
15	22	2
68	74	4
95	99	8
100	100	3
81	81	6
27	29	3
111	111	8
67	116	1
44	44	7
27	28	18
12	55	5
150	150	6
55	56	6
141	141	11
66	67	2
18	55	3
148	153	1
96	113	6
119	128	2
65	81	2
68	68	11
93	133	4
64	67	4
113	120	2
42	42	17
119	119	8
108	109	1
106	107	3
29	51	3
72	72	2
65	66	8
62	62	7
81	82	8
80	81	4
102	103	4
58	62	2
22	23	4
20	24	7
31	31	8
10	11	7
120	120	8
75	76	5
53	107	2
16	56	4
32	64	3
103	103	7
70	75	4
50	66	3
21	22	5
57	94	2
84	136	1
134	138	3
63	65	1
78	78	8
37	37	6
69	70	6
82	83	4
105	111	4
80	80	16
40	41	6
80	82	3
36	36	21
122	122	3
19	20	2
111	114	2
93	93	11
19	32	4
86	99	5
85	85	7
20	80	1
93	126	1
28	28	4
29	40	5
40	40	12
115	115	6
2	3	2
96	135	1
106	108	5
14	52	3
127	127	5
86	86	15
115	116	1
84	86	1
28	51	2
6	29	7
82	82	13
86	98	1
25	26	12
11	29	5
10	15	2
40	68	4
66	66	15
68	115	5
5	9	4
50	65	8
95	112	1
110	122	1
21	62	1
26	65	1
18	22	5
23	39	2
44	45	1
50	64	8
140	151	3
72	138	2
77	77	9
13	26	2
50	51	5
8	8	13
97	97	6
87	106	1
98	99	7
64	65	6
121	148	1
38	39	10
91	91	2
104	104	9
35	35	8
150	152	2
45	47	3
137	137	5
41	41	11
144	144	5
68	69	3
16	18	2
20	25	1
136	136	2
65	68	3
33	34	2
64	82	1
120	126	1
142	143	8
101	113	3
73	78	8
67	74	5
101	103	5
65	65	6
87	93	3
3	9	2
11	49	1
6	7	4
97	130	4
83	86	2
56	56	8
69	74	4
83	84	2
55	109	3
70	71	3
81	136	4
38	38	2
63	64	3
32	50	3
48	48	10
63	78	1
21	23	1
27	31	2
54	55	3
51	106	4
18	18	3
147	149	1
63	63	19
103	104	1
32	32	10
29	29	6
50	56	7
145	153	1
106	106	10
18	40	1
84	90	1
105	116	3
88	88	6
104	106	4
111	124	4
94	99	2
140	140	8
122	135	2
101	104	4
114	114	11
123	130	1
90	100	1
41	42	8
22	62	2
71	72	1
11	26	2
24	25	6
10	28	3
108	110	10
95	139	8
25	25	3
116	120	5
118	118	11
121	121	1
28	30	3
2	2	4
92	94	7
105	105	7
112	113	2
13	14	5
95	114	1
39	69	2
31	43	2
25	49	2
123	124	1
3	4	2
102	102	2
117	117	3
83	85	5
17	24	4
126	127	5
130	130	9
51	51	6
93	99	6
2	9	9
83	83	8
148	148	6
144	145	10
73	73	7
15	44	2
58	98	3
33	64	1
144	150	2
15	51	2
154	154	5
149	149	4
65	80	4
35	36	1
3	30	2
119	121	4
103	118	6
42	43	11
102	151	1
18	39	2
30	30	8
74	74	6
132	132	6
11	25	2
121	137	3
45	46	7
79	80	3
22	76	2
92	96	2
11	24	6
42	56	2
120	122	2
39	40	4
81	92	2
14	26	3
53	54	5
113	117	2
79	79	3
149	151	2
84	84	5
45	51	1
74	82	2
129	133	2
34	53	3
12	63	3
27	47	4
96	96	6
100	112	1
38	69	1
66	74	6
14	14	4
133	133	12
11	52	2
66	84	1
33	65	3
107	109	6
16	17	2
95	97	1
123	129	2
124	124	5
127	128	1
93	94	1
92	93	2
136	137	3
16	49	2
38	68	1
5	6	6
41	49	1
134	137	1
112	112	5
49	110	1
17	75	1
100	106	1
133	139	3
100	109	2
6	44	1
74	81	1
67	79	4
16	16	11
129	130	2
4	44	4
105	123	2
7	30	1
144	149	1
121	136	3
98	137	3
100	101	1
23	55	2
48	50	2
12	14	1
146	147	1
141	146	2
20	82	1
109	110	5
132	138	2
29	30	3
43	45	4
16	77	1
43	44	3
95	95	4
12	12	6
36	53	2
12	13	3
97	98	5
34	34	8
57	69	3
38	54	4
38	53	2
152	154	2
95	126	4
106	109	2
5	7	2
41	43	3
67	78	1
46	46	5
130	140	2
100	134	2
132	134	1
7	21	5
128	128	2
14	27	1
131	132	1
62	81	2
11	27	6
152	153	2
9	43	2
16	55	1
119	122	2
106	128	1
13	31	2
109	119	1
9	40	1
43	43	3
146	146	5
16	38	4
57	150	1
43	46	3
6	16	3
76	82	2
23	24	1
99	111	2
47	108	2
13	24	1
9	41	4
88	90	1
58	58	7
116	116	4
37	68	2
22	36	5
73	77	2
92	92	5
75	77	1
12	19	2
27	65	1
141	142	2
13	80	2
27	44	3
33	82	1
54	72	2
11	30	2
47	48	1
83	127	1
124	126	1
97	113	1
101	126	3
3	3	4
63	66	3
18	20	1
48	49	3
3	17	3
73	92	1
102	111	4
113	116	1
25	30	1
54	56	1
66	80	1
49	67	1
82	99	6
15	56	2
4	9	2
134	136	6
12	21	1
123	133	1
49	49	3
76	77	1
28	31	1
74	137	1
80	86	1
115	120	1
29	49	1
45	109	1
30	39	3
57	87	3
116	117	1
75	132	1
28	65	4
121	124	3
124	128	1
11	38	1
113	115	1
105	117	1
128	131	2
7	8	2
26	42	3
18	21	2
100	111	1
127	138	2
19	64	2
11	64	1
65	84	3
111	119	1
11	31	1
131	136	2
99	113	1
115	117	2
134	147	1
5	8	3
4	21	2
104	151	1
49	64	1
11	39	1
137	149	1
93	131	1
56	58	1
10	52	1
92	99	1
20	34	1
7	49	1
100	126	1
65	78	1
62	68	1
56	66	2
77	136	1
129	131	2
26	34	1
127	137	1
72	121	1
95	96	3
51	52	1
36	76	2
153	153	2
29	31	1
31	44	2
101	111	1
17	18	1
137	147	1
66	86	1
50	107	1
32	33	1
28	40	1
103	125	1
68	72	1
137	138	1
43	48	1
124	127	1
87	89	2
26	27	2
6	40	1
5	10	1
79	83	1
25	62	1
67	71	1
21	75	1
35	55	1
77	78	1
22	61	1
8	38	2
70	73	1
122	123	1
15	45	1
37	38	2
56	57	1
115	122	1
124	132	1
126	133	1
92	133	1
9	12	1
125	132	1
92	114	1
104	105	1
