8	11	1
95	95	6
138	148	2
83	83	4
121	121	2
142	144	6
119	120	2
158	158	8
7	7	6
139	156	2
127	128	2
3	3	5
130	130	6
87	87	1
13	14	4
110	110	6
132	133	5
23	23	3
65	95	3
71	71	11
141	155	5
87	99	2
70	79	3
119	154	3
85	120	1
152	154	3
34	34	4
36	41	3
38	39	2
77	77	4
86	127	3
78	78	2
91	91	1
146	153	3
23	29	3
129	130	4
21	21	5
29	29	1
84	125	4
140	140	3
136	136	9
101	101	2
1	5	4
113	119	2
135	137	2
28	29	1
70	137	2
26	26	2
73	73	5
147	148	3
42	42	5
144	147	2
120	135	1
52	82	2
78	82	3
90	90	4
144	144	2
156	156	4
37	37	2
54	54	4
148	148	2
1	4	3
146	147	2
54	55	7
84	91	4
10	102	3
132	132	2
117	117	2
19	19	5
104	104	4
140	141	4
49	56	1
124	124	6
114	114	4
63	86	1
0	1	3
58	70	4
4	4	8
64	150	6
131	131	1
61	61	1
52	54	4
125	126	1
2	2	7
23	24	2
77	79	5
139	139	3
18	18	5
8	32	3
5	7	3
10	25	4
41	43	3
120	120	4
138	138	1
133	133	7
10	10	3
97	97	1
106	107	3
109	110	3
49	49	2
68	122	4
4	21	1
128	128	1
91	118	1
28	28	4
137	138	1
69	69	1
81	82	1
126	126	1
41	41	3
76	137	1
14	14	1
111	112	2
141	142	2
85	86	1
70	70	3
153	158	1
34	39	4
100	100	1
45	45	2
111	124	2
83	85	2
68	118	1
93	93	3
17	17	2
43	43	3
103	103	1
46	46	3
10	11	1
27	29	3
146	146	2
63	85	2
3	4	1
41	133	1
123	123	1
67	67	2
125	127	1
7	91	1
52	52	2
0	50	3
71	112	3
9	12	2
107	109	1
6	7	2
84	90	2
110	111	3
50	50	2
96	96	5
84	123	2
16	44	1
38	43	1
36	36	1
37	153	2
16	19	2
48	49	1
4	36	1
152	153	1
99	156	1
38	40	2
148	155	1
33	37	1
32	33	1
5	5	5
145	145	1
26	27	2
141	147	1
94	94	1
151	151	5
36	38	5
20	21	1
151	152	1
152	152	5
12	13	1
83	92	3
24	25	2
39	95	2
147	147	2
109	109	1
65	84	2
80	81	2
48	50	1
143	143	2
13	16	1
39	96	1
157	158	1
44	44	1
95	99	1
36	37	1
55	55	3
106	106	1
98	150	1
36	43	1
17	158	1
10	13	1
69	118	1
15	147	2
51	111	3
99	99	1
139	150	1
79	79	2
113	118	1
82	114	1
31	32	1
132	157	1
140	155	2
1	1	1
40	41	2
113	113	1
92	93	2
24	24	1
1	2	1
30	41	1
117	120	1
68	106	1
112	113	1
78	79	1
12	12	1
25	25	1
84	84	1
98	98	1
68	136	1
155	155	1
49	51	1
64	92	2
122	122	2
73	159	1
124	140	1
2	5	1
72	72	3
149	152	1
70	83	1
157	157	1
30	31	1
137	137	1
18	21	1
20	20	1
38	38	1
118	118	3
107	107	1
42	44	1
