35	36	4
96	96	7
153	153	4
106	107	1
93	93	8
115	123	1
157	157	3
19	22	3
143	143	7
5	5	4
115	116	1
32	33	3
100	100	3
161	162	1
148	148	3
137	137	7
35	41	4
62	62	1
157	161	1
54	55	1
66	66	6
134	134	3
31	31	6
73	73	6
25	26	3
26	26	4
175	175	8
128	128	8
79	80	3
72	73	3
16	16	7
177	177	7
12	12	11
66	86	5
75	100	2
11	18	5
149	149	7
34	34	10
62	63	6
41	41	15
127	129	5
126	126	7
8	9	2
131	131	4
7	8	2
18	18	4
166	166	2
44	45	5
92	92	3
13	16	5
14	15	7
117	119	5
135	135	9
159	161	2
58	132	1
29	29	7
43	44	6
73	77	2
178	178	5
140	140	7
1	1	13
164	170	2
9	13	3
81	81	9
24	25	4
59	131	8
94	115	3
13	13	3
167	167	9
15	23	4
12	24	5
35	35	11
144	144	4
134	172	5
55	55	9
45	118	5
12	13	6
127	127	5
8	18	1
43	43	6
104	107	2
143	147	2
176	176	20
167	168	4
146	146	9
6	7	10
173	173	5
74	102	2
151	151	3
40	41	1
164	166	6
84	105	6
9	9	11
11	19	1
143	145	1
132	132	3
78	79	2
46	52	2
124	124	4
137	152	1
41	42	5
4	4	5
39	42	1
9	12	2
59	179	4
53	53	9
131	134	1
23	29	4
164	169	8
75	75	2
12	19	5
43	64	1
121	122	2
160	160	3
14	14	8
83	83	8
94	94	8
45	72	1
133	134	3
68	91	4
92	140	4
80	104	4
117	122	1
136	136	7
52	153	2
32	44	3
104	105	4
66	75	2
19	19	8
116	119	1
109	109	3
17	17	6
38	38	2
114	153	3
6	36	2
14	124	4
175	178	1
90	90	2
92	94	4
114	116	4
142	142	4
39	39	3
8	8	4
61	127	1
135	137	1
76	93	1
27	27	7
129	178	2
25	28	4
13	15	2
61	61	6
145	155	2
21	43	2
162	162	5
172	172	7
22	22	6
26	27	2
112	117	1
23	23	3
103	104	1
51	51	5
88	88	4
56	139	3
2	6	3
127	134	2
72	99	3
130	130	2
110	110	1
74	106	3
23	24	4
15	31	2
2	20	2
64	65	1
16	17	4
66	67	2
62	127	3
3	20	2
6	6	2
31	32	3
112	112	2
115	134	2
25	25	10
20	22	1
71	71	4
63	63	4
122	124	4
114	118	2
87	87	5
112	113	4
163	163	10
20	20	3
7	7	9
20	30	6
99	173	5
0	1	2
161	170	3
95	95	4
80	80	2
30	31	6
111	161	2
164	165	2
2	4	2
144	145	7
21	22	9
24	24	5
11	11	3
24	29	2
29	36	1
158	158	4
84	84	2
145	145	6
110	162	1
175	176	1
113	113	3
27	28	2
120	163	1
124	125	2
76	77	3
61	80	1
2	3	4
83	85	1
100	103	2
123	167	1
125	126	2
139	139	4
102	103	5
129	158	1
107	111	2
105	106	2
33	33	7
75	86	2
40	40	5
153	154	1
65	65	3
169	170	1
165	165	2
123	124	3
16	18	4
32	32	4
86	86	1
153	155	1
159	168	2
59	61	6
72	145	1
7	21	1
109	112	2
165	169	2
114	119	1
66	73	2
154	155	2
2	13	5
163	167	2
15	16	1
142	146	1
67	68	5
59	59	2
55	180	1
2	2	3
88	141	4
159	159	1
2	7	1
34	39	1
146	147	2
89	97	2
99	102	2
16	140	4
121	121	1
102	102	4
91	91	2
32	41	1
136	137	1
94	148	5
72	72	4
60	60	4
175	179	1
125	125	3
3	5	3
150	150	4
19	21	1
29	40	2
10	18	3
178	179	2
43	45	4
137	141	1
74	74	6
154	156	2
143	161	1
77	93	2
52	53	3
35	44	2
126	127	1
61	62	2
107	107	2
93	149	1
174	174	2
20	34	1
10	23	1
36	36	2
24	26	3
10	11	5
147	148	7
130	159	1
76	76	5
61	153	2
62	81	3
64	90	1
165	166	6
54	54	3
82	104	4
77	77	1
7	129	1
82	129	2
28	29	4
26	28	2
54	139	1
104	104	1
15	45	1
51	154	1
134	159	2
108	108	2
90	94	1
15	168	3
79	79	2
103	103	1
56	56	1
133	138	1
132	133	1
57	57	2
11	23	1
140	145	1
55	56	1
145	151	1
14	168	1
52	52	2
117	118	2
10	167	3
121	128	1
22	32	1
138	138	1
96	174	1
143	144	4
60	80	3
3	8	5
108	121	2
129	129	5
28	28	4
98	98	3
84	106	1
5	6	2
61	176	1
171	171	3
119	147	1
11	169	1
94	101	1
61	134	2
92	93	3
29	30	4
133	133	3
9	10	3
6	9	2
113	116	3
141	141	5
79	95	1
67	67	1
102	106	1
73	112	1
146	152	2
96	100	3
17	28	1
147	147	1
15	35	3
86	172	1
171	172	3
16	127	1
46	46	1
74	112	1
28	30	1
37	37	1
127	128	1
71	72	1
72	92	1
113	157	1
111	111	1
51	150	1
64	64	1
155	157	3
42	42	1
122	125	1
152	154	2
150	153	2
84	86	1
123	179	2
114	115	1
44	44	1
36	40	1
25	146	1
170	170	1
147	161	1
23	26	1
23	36	1
144	148	2
112	155	2
38	40	1
99	99	4
180	180	2
163	164	1
113	129	1
15	15	1
107	110	1
116	116	1
10	10	2
52	176	2
126	128	1
117	148	1
168	168	1
156	169	1
177	179	1
154	154	1
6	10	1
81	82	1
78	78	1
163	169	1
151	152	1
22	23	1
82	84	2
3	3	1
79	128	1
166	169	1
60	71	1
138	163	1
60	61	1
168	169	1
