18	22	2
126	127	2
99	99	8
91	91	8
97	97	6
82	158	4
34	34	15
40	41	3
7	47	2
4	27	1
139	139	9
9	13	2
0	4	4
38	39	2
20	20	12
30	129	7
104	104	15
133	147	1
131	131	7
94	94	14
96	120	6
135	135	15
144	144	9
55	128	4
118	121	2
20	25	2
21	21	12
126	147	1
52	52	15
155	156	10
34	38	2
32	49	2
20	41	1
131	136	1
158	158	13
103	105	7
49	66	1
106	106	3
144	145	3
0	1	3
114	114	12
36	43	5
143	143	13
48	48	10
57	96	2
33	33	12
114	115	4
23	41	4
86	86	5
130	158	4
144	148	2
147	147	8
137	137	5
1	1	6
48	49	8
24	25	2
10	10	3
90	92	1
94	96	4
27	32	2
132	132	8
81	81	6
49	65	1
87	127	4
48	51	5
19	22	1
119	120	2
124	139	4
32	32	5
13	13	8
151	152	5
126	126	13
38	46	3
145	145	7
39	43	3
8	93	4
19	19	6
77	82	2
37	38	8
146	147	5
22	31	4
39	39	15
140	140	12
24	24	4
37	135	1
5	5	5
108	108	9
115	116	4
47	51	3
141	141	3
141	153	5
116	116	15
56	68	3
9	14	1
38	38	7
15	15	9
140	141	4
78	78	5
45	45	7
0	0	2
12	12	6
117	120	3
83	83	5
8	12	2
120	123	5
121	147	3
8	44	2
119	127	5
29	29	2
105	105	7
68	71	1
145	147	1
57	145	1
94	97	3
18	108	1
101	101	8
96	97	2
43	43	8
84	86	2
135	136	9
102	102	4
133	133	7
92	92	5
93	93	4
6	6	1
76	80	2
27	27	5
7	11	2
132	133	8
127	127	8
3	98	1
113	113	4
16	39	1
7	79	2
12	15	4
14	14	2
32	83	7
33	34	1
87	105	5
130	137	3
11	37	1
3	3	2
7	7	5
41	45	4
124	128	1
109	109	7
120	144	2
144	146	1
124	136	4
104	135	3
139	148	1
138	138	5
89	104	1
50	51	3
22	23	2
100	100	5
88	88	4
80	80	3
147	149	1
49	49	7
66	66	6
40	40	6
75	75	15
43	46	4
107	107	4
79	80	5
111	112	4
109	112	4
134	135	2
9	9	6
24	29	1
67	96	5
24	98	2
13	31	1
23	28	4
37	37	7
17	17	3
31	31	7
92	93	5
56	56	3
49	50	5
125	125	7
147	148	2
71	71	12
152	154	2
130	130	10
103	106	7
121	121	8
141	144	1
110	119	3
54	54	7
103	103	6
137	138	2
36	37	4
84	84	8
96	96	3
47	129	2
123	124	5
104	111	3
35	35	2
92	94	1
109	110	1
58	64	1
66	68	1
80	81	2
46	46	5
154	154	3
132	134	1
87	87	3
55	55	6
49	67	1
23	23	3
26	26	3
89	89	8
39	48	1
150	150	5
111	111	2
25	26	4
51	94	1
11	93	1
30	30	6
82	84	4
49	62	1
50	50	8
29	31	1
115	115	10
113	118	5
112	112	5
90	93	2
62	68	1
67	68	6
42	42	8
4	102	2
104	105	2
85	86	5
17	150	1
79	79	5
34	68	2
19	20	3
37	90	1
30	42	3
137	139	4
88	97	3
28	28	7
123	123	2
15	16	4
65	66	2
11	12	3
115	129	2
134	134	4
33	36	2
142	142	4
16	16	6
81	105	2
30	31	6
11	11	6
96	119	3
72	72	2
1	102	1
150	153	1
27	44	4
86	95	6
113	117	3
77	77	6
17	95	1
2	2	12
41	81	2
124	125	2
52	140	3
8	8	2
157	157	4
51	52	5
79	82	3
25	25	10
62	71	1
3	57	3
110	110	5
70	80	1
27	50	6
121	122	3
1	157	2
117	117	7
136	136	11
110	111	4
39	83	3
22	32	1
129	159	2
27	156	1
77	80	2
68	68	5
26	27	2
140	144	3
119	119	5
123	125	2
155	155	9
127	128	5
100	101	1
69	86	1
77	125	2
81	102	5
85	95	2
103	108	3
31	42	4
32	80	1
129	156	2
48	70	2
31	32	4
75	76	2
54	139	1
135	154	1
8	97	4
95	152	1
94	102	1
140	152	2
108	109	3
36	134	2
122	125	3
4	5	4
47	47	4
32	33	2
94	95	2
133	155	2
151	151	7
120	121	3
31	155	2
116	117	3
139	140	1
153	154	2
63	63	3
14	15	5
69	69	2
18	21	2
13	14	3
51	51	4
104	106	2
119	123	3
101	133	1
26	28	1
46	48	2
128	129	2
67	67	4
54	55	1
120	120	3
122	122	2
103	104	2
131	134	2
2	7	1
129	129	5
31	35	1
76	82	1
128	128	4
90	112	2
152	152	4
39	103	3
79	102	1
24	43	1
120	127	1
110	112	1
14	16	1
140	148	3
77	127	1
8	9	3
4	4	1
101	106	1
5	36	2
118	118	3
137	144	5
143	153	1
138	139	1
36	36	3
107	108	3
154	155	3
106	107	2
155	157	2
153	153	1
124	124	8
40	105	2
96	141	1
130	131	1
128	157	1
141	142	2
73	73	4
148	148	3
156	157	2
24	97	2
88	89	1
12	13	1
98	98	2
22	25	2
62	69	1
146	152	1
111	113	2
34	35	4
119	143	1
112	127	1
110	127	3
133	154	1
9	121	2
130	138	1
109	120	1
25	98	1
147	150	2
57	57	2
157	158	2
2	5	2
13	16	1
44	44	2
1	2	4
35	135	1
82	82	1
112	121	1
33	37	1
20	21	1
83	89	3
126	141	1
47	75	1
25	41	2
34	137	1
95	95	2
112	113	2
77	79	1
27	30	1
0	3	1
118	145	1
9	10	1
77	84	1
119	121	1
29	32	1
63	67	1
73	74	1
133	136	1
53	68	1
5	29	2
135	142	1
105	106	3
21	22	1
3	16	1
106	108	1
96	101	2
41	41	2
70	71	2
13	111	1
118	119	1
71	76	1
51	53	1
43	44	1
114	146	1
53	53	1
87	89	1
15	31	1
117	125	1
16	17	3
70	88	1
50	69	1
78	79	1
85	96	3
77	97	1
3	15	2
62	62	1
32	77	1
16	43	1
31	34	1
90	90	1
49	68	1
112	122	1
36	52	1
122	123	1
68	85	1
22	28	1
7	9	1
3	4	1
18	19	1
63	64	1
112	147	1
82	83	1
146	146	2
30	32	2
48	67	2
156	156	3
104	107	1
86	122	2
81	82	1
37	131	1
51	54	1
33	38	1
1	99	1
64	64	1
24	28	1
101	102	1
7	63	1
18	18	1
