26	26	6
55	55	2
22	89	1
75	75	10
89	89	4
26	96	3
41	41	16
53	91	3
70	70	17
87	87	10
80	80	9
38	38	4
93	93	13
24	24	7
94	94	6
84	86	5
56	58	3
62	62	3
34	34	1
71	77	2
24	46	4
69	69	6
50	50	9
31	32	1
88	88	6
78	86	1
33	59	4
61	91	3
47	47	6
25	89	3
72	72	10
81	81	8
95	100	5
78	78	14
22	30	1
35	57	7
48	58	2
46	46	12
74	74	17
31	75	2
23	23	4
88	89	1
81	82	5
87	88	2
29	79	1
99	99	12
100	100	13
61	61	3
36	36	3
44	44	3
54	86	3
57	72	2
97	97	7
69	70	2
95	96	14
51	51	7
66	67	7
47	48	5
101	102	4
68	73	3
94	98	4
64	65	3
76	77	3
68	68	4
66	66	5
60	63	1
34	57	1
47	54	1
34	56	5
35	37	5
69	72	1
67	90	2
83	85	3
68	69	2
63	63	7
53	92	3
24	33	1
79	79	4
70	72	7
71	71	9
77	77	9
47	90	1
59	59	11
65	66	2
27	27	8
90	90	8
45	45	6
60	61	12
62	100	4
46	48	3
42	42	6
98	98	4
26	34	1
44	67	3
38	39	4
85	86	1
84	95	3
57	86	2
75	76	3
76	76	14
55	56	4
54	54	15
64	64	7
99	100	2
55	61	2
83	83	5
25	25	5
34	49	4
61	62	3
73	74	1
50	51	2
91	92	8
92	92	8
24	93	2
39	39	13
57	58	3
62	75	3
25	26	1
71	72	1
52	52	8
68	70	4
25	27	2
69	79	2
41	42	6
79	80	5
84	84	7
69	74	1
85	85	5
51	52	3
41	51	2
100	101	1
96	96	5
42	66	3
36	47	5
86	86	7
52	53	2
40	49	7
22	84	2
60	71	1
28	28	4
25	30	1
47	50	3
94	95	3
87	89	2
56	56	3
52	83	2
101	101	3
53	55	7
33	34	2
53	53	6
36	37	5
24	94	1
74	75	1
60	60	2
43	43	4
31	31	3
53	79	2
33	63	2
65	65	2
22	102	1
92	93	2
38	92	1
53	88	3
29	29	1
45	47	2
53	97	1
40	51	3
62	63	1
56	57	4
54	92	2
40	40	4
53	87	1
48	50	3
39	51	3
53	54	1
48	55	2
48	91	1
93	98	1
48	48	2
88	92	1
64	83	1
44	50	1
92	96	3
91	91	3
22	98	2
39	40	2
67	68	2
49	50	1
22	86	1
58	71	1
35	36	1
20	98	3
69	71	1
63	64	3
63	84	1
36	49	1
72	75	1
34	35	1
27	34	1
43	44	1
34	50	2
40	52	1
48	89	3
57	57	1
36	48	2
34	64	1
20	22	1
62	84	2
48	51	1
75	77	1
33	33	2
86	87	1
70	73	1
22	52	1
27	81	1
67	67	3
66	80	1
22	48	1
26	28	1
93	99	1
73	73	1
82	83	1
57	85	1
29	76	1
