131	166	1
12	35	3
157	157	5
115	116	2
0	1	6
86	87	1
21	21	2
16	122	2
70	70	4
22	23	5
90	90	7
34	34	6
51	51	8
161	161	1
54	54	1
139	140	2
159	159	4
151	151	2
159	160	2
50	50	6
25	25	7
76	77	1
92	92	4
166	168	4
105	106	1
16	17	2
143	144	3
20	21	1
8	8	2
92	94	3
153	153	8
131	132	1
16	49	3
119	120	3
3	3	10
35	35	2
113	113	15
48	64	2
73	73	1
112	114	1
19	19	4
1	1	4
110	110	7
127	127	4
52	52	4
161	163	3
100	100	3
143	143	1
47	62	2
52	53	2
131	140	3
88	141	2
170	170	3
71	71	4
138	141	1
27	28	4
22	22	1
140	140	4
119	124	1
163	163	4
113	114	1
135	135	2
62	62	8
11	11	3
89	89	3
5	7	1
126	126	2
51	52	2
124	124	4
47	47	3
14	14	1
55	55	1
167	167	2
159	165	2
137	137	3
56	71	2
68	115	1
152	156	1
7	7	3
108	112	2
56	56	7
15	15	2
123	123	4
148	148	2
8	9	1
72	126	2
20	20	1
40	40	2
142	164	2
85	86	4
116	116	7
109	117	1
64	113	2
9	9	2
18	20	1
79	80	4
63	64	1
98	98	4
115	115	4
109	110	1
137	138	2
54	56	1
12	12	2
42	43	1
80	80	4
10	10	4
102	102	1
23	23	4
33	34	1
108	109	1
118	118	1
107	107	1
63	63	2
107	114	2
42	42	4
5	6	1
155	155	1
8	132	1
100	101	6
16	16	6
11	25	1
2	3	1
11	110	1
138	139	1
12	44	1
147	147	2
138	138	2
134	134	1
91	92	5
161	162	3
146	153	2
28	28	2
125	125	3
90	91	3
26	26	1
44	104	1
65	65	1
123	124	1
50	51	1
85	85	4
13	16	2
107	108	1
102	103	1
130	130	1
111	111	1
131	131	2
18	19	1
135	136	1
112	112	6
162	162	2
129	129	1
167	168	1
66	113	2
153	156	1
144	144	3
86	116	1
114	114	2
108	108	5
83	84	1
41	41	1
11	13	2
158	158	1
61	62	1
1	168	3
157	158	3
23	24	1
94	94	1
7	56	1
4	7	1
166	167	1
127	128	1
74	107	1
77	77	1
66	66	1
149	149	2
6	6	2
120	122	1
108	129	1
125	126	1
16	40	1
114	115	2
11	12	1
95	96	1
83	83	1
21	22	1
71	84	1
122	122	1
147	155	1
81	81	1
133	133	1
142	142	3
4	27	1
93	95	2
106	106	1
166	166	1
8	12	2
17	19	1
87	107	1
39	40	2
69	86	1
64	64	2
14	15	3
26	27	1
0	140	1
68	117	1
152	152	2
46	97	1
80	82	1
111	112	1
91	91	2
122	151	1
119	119	2
139	165	1
38	38	1
71	72	1
136	136	1
144	145	1
49	123	1
69	69	1
122	152	1
10	13	2
13	15	1
168	168	1
120	121	1
130	144	1
25	39	1
56	73	1
1	2	1
13	13	2
104	104	2
36	36	2
134	150	1
105	105	1
49	51	1
43	43	1
22	24	1
21	23	1
169	169	1
63	78	1
137	158	1
