127	127	2
25	25	3
79	87	3
97	97	10
48	48	9
3	4	1
77	77	8
16	16	4
62	62	9
17	118	2
109	112	4
14	62	2
110	110	2
47	47	26
9	9	6
44	44	13
91	91	5
21	21	4
45	45	13
34	34	11
3	3	4
20	20	3
61	61	6
93	93	3
4	5	3
132	132	9
101	101	10
63	66	1
1	1	3
91	92	3
8	74	3
133	133	13
30	30	7
23	25	8
58	58	6
34	35	1
27	29	5
83	123	1
46	46	5
57	60	4
8	21	2
115	133	2
64	64	11
66	66	8
34	88	1
33	33	3
36	36	13
23	23	12
71	71	7
60	83	1
56	56	7
109	109	3
21	123	1
35	36	5
79	79	3
67	68	1
57	58	3
115	116	2
3	11	3
0	1	1
47	49	3
41	41	6
128	128	5
47	93	5
112	113	3
26	26	12
33	92	5
70	71	4
76	114	1
84	84	11
92	92	7
72	73	1
45	64	2
21	79	1
95	95	5
133	134	3
25	41	2
102	107	4
8	8	9
0	0	3
69	69	9
57	57	4
31	31	6
30	105	1
29	29	6
61	62	4
26	82	5
47	105	2
73	73	11
2	111	1
26	92	1
86	86	3
2	3	1
23	109	2
81	81	3
36	91	3
11	11	10
94	95	2
112	112	4
2	2	4
75	75	5
94	94	2
8	76	1
67	97	3
112	116	3
5	6	6
111	111	4
9	10	1
126	126	7
90	90	6
78	78	7
82	83	1
39	93	1
93	107	2
72	72	10
104	105	4
13	58	2
45	46	3
120	134	1
27	28	4
59	59	10
84	101	6
28	32	2
60	61	8
2	83	2
65	66	1
106	106	1
59	83	5
43	44	2
43	43	6
125	126	5
5	5	3
25	83	2
81	94	2
35	35	8
84	90	1
74	76	1
28	28	7
100	100	4
32	32	4
113	119	3
31	34	4
117	117	4
74	74	11
45	69	1
115	115	9
17	18	2
113	114	3
17	17	3
105	105	3
8	70	2
63	63	9
6	6	7
13	17	4
123	123	7
21	84	2
12	12	5
30	49	2
45	71	6
12	47	2
95	97	1
67	67	9
39	40	2
10	10	3
65	117	2
68	68	8
14	14	11
121	121	3
76	76	11
68	69	3
31	60	3
4	4	5
73	74	1
47	48	3
60	64	2
7	56	1
17	119	1
38	38	7
79	81	1
15	15	8
40	40	8
31	93	1
117	120	2
90	93	3
30	60	2
43	50	2
51	51	1
129	131	1
13	13	5
124	124	1
8	9	3
106	108	6
78	79	3
118	118	4
19	80	1
45	97	1
28	49	2
83	83	11
68	71	1
49	50	3
66	67	1
37	37	1
65	65	4
6	13	5
24	24	2
7	7	3
16	17	4
81	82	7
5	7	1
60	60	5
88	88	9
29	46	2
85	85	3
115	134	1
10	14	2
57	85	1
70	70	4
99	100	4
101	109	2
22	22	3
27	92	1
109	122	5
112	115	1
4	6	1
27	27	5
131	131	2
102	102	3
113	113	1
69	101	1
120	121	2
65	89	1
32	77	2
41	44	2
55	56	1
62	66	1
23	103	1
85	94	3
116	116	1
69	72	2
91	98	1
93	96	1
99	99	2
123	124	2
129	129	5
90	91	3
9	11	1
103	103	3
9	76	3
36	37	2
116	117	3
36	42	1
15	16	2
37	89	2
77	124	2
20	78	2
71	72	1
41	46	2
5	84	1
19	19	4
1	2	2
39	39	2
26	107	2
82	82	3
124	127	1
130	131	1
96	97	1
12	14	1
18	19	1
32	93	1
83	84	1
12	76	3
12	13	1
98	98	4
20	128	1
81	129	2
98	99	1
48	93	1
65	116	2
110	111	1
28	71	1
73	112	1
99	108	1
8	95	1
29	48	1
30	87	2
79	80	2
117	118	1
134	134	1
17	133	1
83	102	1
7	66	2
97	98	2
83	98	1
12	77	2
9	111	1
19	63	2
75	76	2
96	96	3
6	7	1
8	89	1
103	104	1
95	96	2
66	101	1
42	49	1
108	108	1
126	127	2
75	117	2
86	100	1
49	49	2
18	20	1
40	83	1
31	78	1
6	56	1
18	18	1
24	110	1
128	129	1
35	92	1
109	134	2
87	88	1
107	107	1
33	43	1
10	40	1
92	127	1
19	20	2
20	127	1
6	88	1
11	33	1
31	33	1
100	101	1
112	119	1
45	70	1
45	95	1
18	119	1
