16	16	5
49	65	3
112	112	25
99	101	1
48	48	13
47	49	10
117	117	15
42	42	13
135	135	29
93	94	4
10	13	2
6	6	17
111	111	19
113	116	6
30	31	9
35	35	3
140	142	1
127	127	5
99	103	15
62	129	2
143	143	5
130	130	18
37	49	3
125	125	13
50	83	1
142	142	12
79	90	2
100	101	4
2	2	12
30	30	16
29	30	4
114	114	3
120	121	1
17	21	3
69	69	13
93	112	8
93	111	5
53	91	1
15	17	1
89	89	13
51	51	23
53	54	13
134	134	21
72	73	10
23	41	3
75	89	10
74	74	3
116	116	9
137	137	21
0	25	2
121	122	1
59	59	10
28	28	10
102	119	2
124	124	11
8	8	15
56	92	2
56	140	2
67	67	13
139	139	14
50	56	1
106	106	7
122	140	2
122	122	19
126	128	4
87	88	5
138	140	6
129	136	5
93	131	1
72	72	16
1	1	6
52	116	1
98	98	5
122	143	4
107	108	4
68	68	5
110	110	9
20	21	11
36	36	11
5	5	11
76	76	14
91	91	9
55	101	4
94	94	13
133	133	18
30	41	2
105	105	10
10	27	3
119	119	23
128	128	16
99	99	3
82	88	1
85	85	14
54	100	2
75	84	1
24	25	3
79	79	11
100	102	9
14	14	5
18	18	17
58	58	8
128	129	2
47	47	7
93	113	3
35	43	3
73	74	3
70	129	1
101	102	2
68	87	1
10	10	5
80	80	12
50	51	9
38	38	10
87	87	6
101	101	8
61	114	4
129	129	10
102	135	2
33	33	4
57	90	2
71	94	2
88	144	1
94	110	1
78	79	4
83	83	10
71	97	5
73	111	3
86	86	5
140	140	5
55	87	5
126	131	8
121	123	6
66	132	3
20	25	3
81	81	5
43	43	11
27	37	1
100	103	6
88	96	1
97	97	5
112	113	5
96	97	5
1	26	2
49	94	1
146	146	3
27	27	16
111	112	4
79	128	4
80	128	2
56	56	12
40	74	4
73	75	3
118	121	5
125	142	9
41	41	14
81	129	1
84	84	9
104	106	2
62	62	8
49	52	1
103	140	2
145	145	12
126	135	2
74	82	7
50	95	3
98	112	2
11	11	10
119	120	5
117	118	5
95	95	4
68	91	4
60	60	7
23	23	9
118	118	9
39	39	6
27	30	7
141	141	11
87	93	1
41	42	1
70	111	1
115	115	4
34	36	1
139	140	4
54	54	10
108	111	4
105	106	3
31	82	2
121	121	17
38	41	7
12	12	5
137	138	8
57	57	7
120	120	14
109	109	15
67	101	4
33	68	5
40	40	7
123	123	16
132	132	5
103	103	15
43	144	6
17	17	11
95	103	2
94	106	1
55	66	2
108	108	7
16	17	4
36	37	7
70	73	2
142	143	6
50	50	7
24	24	5
22	67	1
104	137	1
64	75	1
53	53	6
144	144	12
78	78	7
82	94	2
84	107	1
66	67	4
119	124	6
93	95	3
39	72	7
96	98	2
39	118	2
77	84	2
41	117	4
56	57	3
42	89	3
112	127	3
128	143	4
102	102	10
73	82	3
132	133	8
138	138	9
65	66	5
77	90	2
124	125	9
61	62	4
53	115	3
140	141	4
6	59	1
4	4	2
119	141	4
123	125	2
31	31	11
54	65	1
52	52	3
25	40	1
82	129	2
77	77	3
75	75	2
66	78	1
25	26	2
106	107	1
63	63	7
66	66	1
1	2	4
126	126	29
80	90	1
129	130	4
58	59	2
49	58	7
56	69	4
20	20	4
107	109	2
32	33	3
108	112	3
106	136	3
104	104	3
71	71	13
70	114	3
69	109	2
86	87	5
32	97	1
32	34	1
30	38	2
19	26	2
22	22	9
63	140	2
42	117	3
120	143	1
96	96	7
105	140	5
36	52	2
90	90	8
34	34	5
33	43	2
49	61	1
19	20	6
29	29	14
88	111	1
4	7	2
80	95	3
9	20	3
21	22	4
126	134	2
81	82	1
83	84	3
13	14	2
75	122	3
100	100	4
128	142	4
55	71	3
75	78	2
111	132	2
20	23	1
79	91	3
130	136	1
49	49	5
0	4	3
40	118	3
117	136	2
135	136	5
59	60	3
69	71	3
60	62	2
17	18	2
3	26	6
77	80	1
33	34	3
55	104	1
64	92	6
97	105	4
96	108	1
117	141	5
74	130	1
78	125	1
86	93	4
91	92	2
136	137	2
140	143	1
65	65	3
61	83	1
24	48	1
18	19	2
55	55	3
55	115	1
73	76	3
70	71	13
96	112	4
83	144	2
9	9	5
19	19	4
134	135	3
137	140	1
130	131	1
25	50	3
51	56	1
65	96	2
43	117	2
141	142	10
131	132	6
3	58	2
0	0	4
77	101	1
101	103	4
116	141	1
1	3	3
37	37	7
28	29	7
115	116	2
4	20	2
47	122	1
127	144	1
84	85	4
64	87	4
100	126	3
127	128	1
76	78	1
111	115	3
40	87	1
111	114	1
136	136	4
88	89	6
9	10	2
25	25	4
79	120	1
50	113	3
56	139	1
120	141	4
67	107	1
78	127	2
71	73	1
32	32	5
33	35	5
50	111	2
22	23	3
125	138	2
51	52	1
52	56	1
122	123	3
52	65	1
73	73	2
107	113	2
118	119	4
113	113	2
69	95	1
108	117	2
13	13	1
77	99	2
125	126	1
88	88	4
111	113	6
108	133	2
69	83	1
56	132	2
130	134	2
11	12	1
8	33	1
67	97	2
66	133	1
70	95	2
138	139	3
76	79	2
121	125	4
46	46	1
2	25	2
38	39	2
69	70	6
39	40	2
123	124	1
77	128	1
92	121	2
136	138	3
1	12	1
109	139	3
88	98	1
136	139	2
4	10	3
22	27	3
92	98	2
113	122	2
30	62	4
127	136	2
27	38	2
122	124	2
11	15	3
2	20	1
38	42	2
77	79	1
55	68	3
114	134	2
68	99	5
4	5	1
133	135	2
57	82	2
49	66	1
79	89	1
93	133	1
99	100	4
35	52	1
70	70	3
98	104	2
125	144	1
56	79	2
92	92	4
26	26	2
83	85	2
117	119	3
109	116	2
73	97	1
36	71	4
50	52	1
82	82	5
35	36	6
30	32	2
68	96	1
102	103	1
54	97	6
80	89	2
108	110	2
0	1	2
67	84	2
85	110	1
40	104	1
134	138	1
121	133	2
4	9	2
128	130	3
3	5	4
66	87	1
87	89	2
10	11	1
64	65	1
79	80	4
74	96	1
74	89	1
51	84	1
126	127	2
31	41	3
85	91	1
76	91	1
32	110	4
11	34	1
3	20	3
67	78	1
136	144	1
74	131	1
5	9	1
94	114	1
112	123	3
85	86	2
72	118	1
83	89	1
127	131	2
74	87	1
27	41	1
118	139	2
36	68	2
39	128	1
50	70	1
124	131	1
110	115	1
120	133	2
34	51	2
28	37	3
120	142	1
14	104	2
117	120	1
23	27	2
32	38	1
63	92	1
133	137	1
141	143	2
129	141	1
61	69	1
67	68	1
11	26	1
21	21	1
87	98	1
112	114	2
40	64	1
124	133	1
107	110	1
64	64	2
59	114	1
3	13	1
10	28	4
142	144	1
33	54	1
47	130	2
2	14	1
70	94	1
121	135	1
74	88	2
91	118	1
49	50	1
135	139	1
104	105	1
121	139	1
38	67	1
74	97	1
56	100	1
73	89	1
94	131	1
56	91	1
15	15	1
118	132	1
93	93	1
80	96	1
11	16	2
34	35	1
86	106	1
135	137	1
52	68	1
57	58	1
94	135	1
4	21	1
115	136	1
134	139	1
109	110	1
69	82	1
116	139	1
