176	177	3
168	168	5
111	111	6
10	16	1
8	8	10
19	19	13
1	1	13
61	61	9
14	14	29
24	36	4
78	78	3
23	28	2
136	136	2
4	4	13
33	33	12
97	97	4
63	63	6
29	29	21
127	128	3
173	173	10
6	10	1
16	18	6
100	105	1
26	28	2
59	59	11
11	11	28
16	16	15
140	140	11
147	147	13
94	108	1
55	55	11
175	176	1
26	27	5
42	42	4
80	80	8
5	6	6
0	1	7
13	14	7
42	44	1
43	43	10
139	140	2
67	67	15
57	124	1
68	68	4
1	5	2
159	159	11
17	18	15
118	120	4
36	36	13
6	6	12
21	22	5
133	133	12
105	105	7
34	34	24
74	74	12
158	162	2
109	109	11
100	102	6
37	37	21
40	40	11
12	45	1
76	76	15
84	86	3
130	130	8
74	80	2
118	119	1
163	164	5
38	39	13
163	163	6
4	5	5
9	9	20
77	90	4
107	108	6
3	3	7
167	167	18
129	129	7
128	128	3
21	21	17
28	28	22
60	78	2
126	126	6
53	53	10
89	89	10
10	39	2
41	41	22
100	100	4
92	92	4
99	99	6
21	23	1
90	96	1
49	49	11
38	38	20
168	171	2
24	24	13
158	158	9
177	178	14
7	7	8
15	15	12
23	23	21
93	93	8
10	10	16
154	154	10
66	66	11
108	108	11
9	19	6
95	95	9
102	102	2
75	75	10
41	42	11
98	98	10
35	35	21
2	3	5
105	106	2
9	15	4
114	114	6
161	161	4
44	44	11
120	121	3
3	4	5
10	19	2
74	108	1
84	84	5
36	37	7
26	44	3
174	178	4
65	65	7
6	7	3
32	33	8
172	172	7
144	149	2
122	123	3
77	78	2
104	123	1
73	73	8
90	90	6
55	56	2
123	124	8
71	71	6
176	176	13
143	143	2
162	167	2
72	72	7
13	13	17
152	156	2
142	142	6
40	41	3
81	81	16
96	97	5
27	27	20
180	180	6
0	0	13
23	24	5
50	50	12
77	77	8
115	115	5
37	39	1
151	151	7
108	118	1
141	141	5
5	42	3
162	162	4
153	153	9
159	163	1
26	35	1
154	156	4
79	80	4
54	54	9
96	96	5
123	167	1
8	9	4
35	40	1
56	57	4
108	110	1
78	79	10
10	40	2
2	2	4
81	83	4
95	109	1
11	13	1
141	146	1
7	8	7
51	51	12
145	145	8
112	112	9
26	26	11
35	36	8
10	11	8
148	148	6
32	34	4
121	167	1
134	134	8
32	36	2
62	62	1
45	45	13
121	121	11
5	33	4
27	39	1
152	155	1
118	121	1
131	131	5
17	17	23
103	103	8
94	94	6
13	15	11
50	73	2
137	148	2
141	145	8
5	5	17
133	154	2
21	29	3
139	139	11
129	130	5
19	20	2
174	174	12
67	68	2
43	44	5
45	46	1
72	90	1
144	144	5
56	56	11
166	168	3
108	109	3
88	88	16
31	32	5
53	54	8
9	20	3
138	138	9
125	125	9
40	42	3
16	24	5
145	146	2
30	30	10
132	132	4
106	107	4
127	127	7
18	19	7
41	43	1
18	18	10
114	117	1
20	22	3
15	20	5
178	178	3
59	142	1
166	166	4
24	27	6
15	18	3
129	163	1
130	132	2
126	127	6
73	89	2
18	24	3
22	23	2
30	57	3
105	122	1
16	26	2
28	55	1
71	72	7
2	4	4
106	106	7
38	43	1
97	98	3
70	70	1
57	57	3
172	173	7
151	159	4
137	138	3
14	30	1
136	137	1
119	119	2
110	110	2
118	128	1
149	149	5
60	60	2
117	117	6
32	32	17
14	21	1
179	179	8
122	122	7
114	122	2
83	84	5
161	162	4
9	10	3
134	135	4
36	57	1
12	12	3
159	178	2
132	151	3
101	102	2
30	31	2
76	77	1
95	96	11
7	13	2
44	45	2
86	86	4
67	72	2
167	168	7
91	92	3
64	66	2
54	58	3
33	39	1
53	76	1
90	92	2
22	22	8
40	180	2
127	136	2
21	56	2
15	16	7
150	150	3
51	56	1
90	103	3
3	8	2
56	59	2
154	158	5
80	81	3
169	170	1
28	29	3
39	39	18
171	171	4
14	15	5
169	169	11
131	132	5
124	124	3
120	120	3
27	28	3
75	110	1
143	144	1
20	20	2
152	152	2
89	165	1
15	23	1
113	115	2
0	5	2
23	30	1
90	128	3
102	103	3
11	45	1
123	123	3
166	167	4
114	130	1
152	158	2
175	175	4
61	73	1
157	159	3
6	35	2
29	32	2
64	64	3
179	180	1
177	177	4
170	172	1
29	30	2
25	27	2
41	67	3
137	137	4
124	125	6
24	33	2
155	156	4
135	135	5
125	126	1
31	31	5
170	171	2
77	79	2
25	28	1
158	159	3
18	22	2
80	110	2
157	157	8
136	139	1
15	39	2
135	136	3
9	12	1
113	113	4
89	163	1
93	94	1
130	131	6
104	134	1
155	155	2
128	129	1
85	85	5
9	11	7
107	107	1
14	18	2
90	97	1
150	151	1
4	6	3
16	89	1
65	66	1
79	79	2
26	34	1
160	160	3
157	160	1
159	160	1
5	134	2
147	148	3
151	153	1
7	15	1
39	41	2
88	115	1
169	172	1
153	154	1
91	91	3
54	55	3
15	24	1
123	125	2
156	157	4
123	128	1
101	101	1
119	120	1
22	31	1
141	143	1
149	150	2
151	173	2
115	117	2
153	171	3
173	175	1
18	23	2
50	51	2
75	89	1
92	93	2
45	103	1
168	169	2
118	118	2
33	34	1
31	41	1
142	143	5
32	41	1
130	135	1
42	73	2
115	116	2
24	25	2
171	172	2
13	24	2
118	122	1
70	71	1
84	85	1
43	45	2
24	26	1
173	176	3
27	29	1
32	35	1
65	73	1
25	25	8
5	43	2
39	40	1
109	117	1
23	26	2
72	89	2
54	77	1
7	9	1
8	34	1
52	52	1
12	13	1
1	43	2
38	169	2
116	116	1
98	99	2
73	116	3
154	173	1
13	21	1
83	83	1
127	130	2
92	125	1
104	104	1
96	114	1
37	38	1
82	82	2
146	146	2
17	27	2
172	180	2
91	95	2
62	63	1
103	104	1
61	74	1
5	32	1
105	127	1
63	68	1
114	116	1
33	35	2
169	171	1
87	96	1
144	145	1
110	112	1
114	118	1
42	43	1
127	129	1
170	170	1
11	12	1
159	166	1
72	73	1
164	166	1
38	44	1
30	44	1
23	29	1
152	174	1
114	115	1
25	26	1
5	14	1
61	65	1
61	62	1
108	112	1
14	20	1
