39	63	6
194	194	20
56	56	11
70	70	1
175	175	5
110	110	21
50	51	3
154	158	2
182	182	21
187	188	10
174	174	7
183	183	11
181	181	17
33	122	4
127	189	2
191	191	23
143	143	19
38	38	13
18	19	2
42	42	13
40	40	12
9	9	8
32	32	12
170	170	12
40	42	9
186	186	13
52	52	6
151	151	5
21	21	4
114	114	1
126	126	8
123	123	10
43	44	2
49	197	2
189	189	7
12	15	2
141	141	9
28	28	14
81	81	3
67	68	6
190	191	2
95	95	8
168	168	8
54	54	8
156	179	2
71	72	4
194	195	3
35	71	4
166	192	2
146	146	6
122	151	3
123	127	4
3	3	11
141	150	5
105	106	1
25	28	2
168	169	2
109	118	5
48	48	8
149	149	12
179	179	10
7	70	3
36	36	15
171	171	13
150	150	4
54	72	3
22	22	12
39	39	5
173	174	9
68	68	1
172	172	16
82	82	13
9	10	4
27	39	3
18	38	2
1	1	4
22	36	3
60	60	4
112	112	15
196	196	11
145	145	9
170	171	2
31	43	2
38	81	3
115	115	8
53	54	2
152	153	8
154	154	8
173	173	10
185	185	23
167	167	10
56	63	2
95	96	4
151	169	3
13	50	3
41	42	7
104	104	1
44	44	6
172	173	4
135	135	6
45	51	4
169	169	10
74	77	3
6	6	6
163	172	5
111	111	4
96	96	2
15	15	11
104	105	2
49	49	5
51	51	2
166	166	13
136	137	3
147	148	1
101	101	7
59	61	4
182	183	3
152	152	6
81	83	6
133	138	1
44	50	1
13	13	9
99	99	6
132	135	2
73	76	5
101	105	5
30	32	4
19	50	1
46	46	6
77	80	5
156	156	5
1	18	3
49	50	3
158	158	10
120	152	2
79	79	5
86	161	3
175	178	5
143	168	1
104	106	3
53	58	3
161	161	11
24	24	4
0	0	4
37	38	4
37	37	2
14	14	12
164	164	1
174	175	5
97	150	2
112	113	2
12	12	10
20	20	7
124	124	7
96	97	8
58	58	3
102	102	4
177	177	10
112	114	5
159	161	3
125	125	12
32	33	1
21	22	6
34	34	7
8	71	1
177	191	1
177	178	5
3	8	2
46	51	3
34	193	2
197	197	4
160	160	25
23	23	15
115	116	2
101	196	3
30	30	5
159	165	6
107	107	7
161	162	9
181	182	6
0	163	2
125	160	9
196	197	6
40	41	6
87	167	3
95	136	2
26	26	4
160	176	2
139	140	3
155	156	5
50	50	12
113	113	13
117	139	1
132	133	9
144	144	10
34	35	6
73	75	7
44	65	2
148	189	5
33	33	6
76	76	8
5	90	5
178	178	9
59	59	8
109	110	3
86	86	3
87	87	7
131	132	3
47	47	6
25	25	11
138	160	2
119	119	4
55	55	8
29	29	3
103	103	12
70	71	10
186	187	1
195	195	10
160	177	2
39	76	1
79	84	3
97	97	7
109	109	16
131	131	2
31	31	1
41	41	11
32	43	2
15	16	2
35	36	1
106	106	3
18	18	8
50	54	2
146	147	2
163	164	1
59	60	5
72	72	5
128	128	8
158	159	2
132	156	2
159	168	3
130	173	1
130	130	12
5	16	5
105	105	12
17	17	3
117	118	5
54	55	10
29	43	2
55	56	1
46	50	1
95	97	1
66	66	7
68	164	3
0	16	5
173	178	2
147	147	4
88	88	6
69	69	7
163	163	8
33	37	3
19	19	9
78	78	6
167	168	4
6	7	1
161	164	1
121	122	3
5	6	1
143	148	1
136	136	13
23	24	5
153	153	2
101	102	1
30	51	2
157	166	6
3	61	4
84	86	3
166	167	1
187	187	6
108	110	2
74	75	4
141	149	3
102	105	2
134	134	4
53	53	5
74	76	12
150	187	1
159	159	12
45	45	9
2	2	5
80	81	1
188	188	3
36	38	2
13	14	3
147	172	3
144	149	2
1	2	2
7	19	1
100	102	4
35	67	1
21	23	1
122	123	2
118	118	6
192	192	13
165	166	4
13	32	1
43	182	1
135	163	3
144	145	7
122	194	3
74	74	1
162	175	1
133	141	5
127	128	1
31	32	4
171	189	5
111	113	2
63	63	5
61	62	3
128	137	2
71	71	3
122	182	3
109	142	1
130	185	2
110	134	2
132	137	3
177	180	3
87	113	4
156	157	2
155	155	6
99	104	1
180	182	2
121	175	2
52	53	3
30	31	5
66	72	1
43	43	7
59	69	2
25	26	2
138	139	1
142	161	1
157	158	7
61	74	1
148	150	2
11	11	9
108	108	4
148	148	2
108	150	2
109	196	1
180	180	5
181	190	2
93	93	5
130	131	7
100	100	4
120	130	1
23	25	1
15	37	1
162	162	5
174	180	1
145	149	2
103	153	1
94	96	4
34	36	3
79	193	3
94	101	1
64	64	7
185	186	3
25	27	2
165	165	3
60	61	2
82	84	2
50	56	1
50	57	2
140	140	5
100	101	1
139	139	3
28	36	1
143	189	3
110	111	1
127	127	4
89	172	3
82	89	2
154	155	3
119	183	1
0	7	2
99	107	2
122	122	3
176	176	5
190	197	3
68	69	2
32	45	1
160	161	1
44	46	1
1	16	2
122	183	2
144	148	3
113	115	1
35	55	2
148	151	1
110	166	1
57	57	3
64	74	1
145	146	1
133	133	3
77	79	4
54	57	3
129	129	7
36	39	1
11	12	1
117	131	1
30	50	2
67	70	2
190	190	5
16	16	5
151	154	2
36	37	2
56	57	1
172	194	5
27	27	3
142	150	2
111	114	4
44	52	1
101	187	3
8	10	2
132	132	2
80	80	2
184	184	4
120	120	4
80	189	2
149	169	2
162	167	5
74	80	4
157	167	1
108	148	1
129	137	1
184	191	3
35	39	1
87	88	5
179	180	4
160	163	4
117	158	2
102	107	3
180	181	5
122	195	1
158	167	2
35	35	1
10	44	2
171	172	1
4	16	2
169	170	2
121	121	1
98	98	1
183	191	1
176	192	4
176	177	3
58	59	1
137	137	2
117	117	4
65	66	2
7	7	1
105	107	2
124	125	2
118	135	6
5	8	1
5	33	1
172	191	2
154	165	4
138	138	4
108	147	1
14	52	1
8	8	3
129	184	1
142	180	1
42	46	4
136	165	1
154	169	1
161	172	1
40	190	1
62	62	1
149	150	2
129	183	1
78	180	1
7	8	1
178	179	1
71	73	3
2	3	2
172	185	1
118	134	2
25	29	2
130	182	1
195	197	2
5	5	2
106	107	1
134	165	1
115	117	1
143	146	2
75	79	2
16	54	1
42	191	2
156	167	1
137	138	1
35	80	1
109	156	1
165	167	1
114	125	4
151	153	3
157	157	4
51	57	1
89	166	2
66	68	2
73	73	1
99	113	3
195	196	1
78	84	1
17	18	1
84	85	1
145	148	1
13	43	2
153	154	1
183	184	2
4	4	2
173	182	2
20	21	2
122	124	1
121	148	1
46	47	2
179	193	1
11	17	2
45	194	1
111	159	2
39	71	1
67	67	1
0	38	1
172	174	1
192	193	1
88	90	1
62	63	1
39	77	1
13	89	1
41	57	2
48	49	1
121	182	1
183	196	1
142	147	1
20	33	1
119	121	1
193	193	4
151	152	1
65	75	1
16	17	1
117	135	1
123	124	1
112	141	2
143	145	2
170	193	1
145	158	1
142	169	1
146	148	1
77	78	2
178	191	1
121	163	1
131	144	1
154	156	1
119	141	1
171	175	1
191	192	1
65	82	1
137	140	1
116	116	1
34	41	3
174	179	1
28	40	1
1	3	1
34	38	1
112	124	1
168	179	1
156	159	1
116	139	1
19	20	1
10	11	1
