37	37	13
87	88	8
190	190	15
180	180	25
198	207	3
153	160	3
231	231	18
19	19	16
167	167	16
54	54	16
118	118	29
203	204	6
48	48	29
161	236	1
7	186	6
187	224	2
17	17	22
208	208	22
116	116	11
62	62	28
97	100	7
9	9	22
169	169	27
163	177	3
53	54	14
162	162	26
21	23	2
198	209	3
92	93	9
173	173	24
112	112	20
115	115	23
178	199	3
108	118	4
197	231	3
179	179	29
225	233	3
177	177	30
240	240	28
105	106	7
52	52	22
65	65	21
25	26	3
205	206	7
114	115	9
204	211	2
55	55	17
10	10	20
232	232	17
180	248	1
202	203	4
50	105	3
15	17	3
56	56	16
53	53	17
152	152	15
64	64	10
162	178	1
58	58	29
22	22	19
205	205	32
36	36	22
32	53	4
158	158	18
58	60	2
178	179	7
203	203	31
196	197	4
168	169	6
7	7	27
23	23	12
29	29	34
165	175	3
200	200	42
119	119	32
61	116	3
79	79	9
212	212	31
147	151	1
145	145	25
156	156	45
243	243	29
53	111	2
11	11	21
182	182	14
188	188	8
168	168	30
97	97	9
40	40	14
100	101	4
220	220	9
222	222	18
76	85	1
221	221	23
202	202	27
175	177	4
71	73	4
210	210	26
192	192	6
60	72	2
175	175	27
96	96	12
28	28	27
48	49	4
210	214	1
150	150	26
162	212	2
189	189	17
66	66	24
26	26	26
229	229	23
154	154	32
86	105	9
99	99	4
85	91	3
146	146	7
213	213	26
42	205	1
55	64	2
223	223	16
182	195	3
217	223	1
101	101	7
186	186	17
159	177	2
111	111	15
184	185	10
155	155	40
119	120	7
192	193	4
242	242	22
198	199	10
186	187	2
197	197	19
184	184	11
238	238	16
156	157	4
117	117	26
212	213	2
172	172	16
15	15	29
28	31	8
51	51	15
233	233	9
108	109	8
80	82	5
240	241	8
42	43	6
19	31	3
12	15	4
182	212	2
27	27	9
82	83	4
64	92	2
58	65	2
157	160	3
30	37	6
161	161	12
12	20	7
151	157	6
8	8	29
52	79	2
46	46	15
229	240	2
163	165	4
41	41	23
35	35	14
20	21	9
78	78	9
6	7	8
216	218	4
93	99	3
194	209	1
173	174	10
42	42	17
174	174	27
92	103	5
166	166	20
146	147	2
165	165	24
70	70	17
63	63	8
199	200	7
227	228	6
235	235	21
170	170	9
5	14	1
75	80	6
0	1	2
151	151	32
246	246	8
50	51	5
160	160	18
38	38	16
150	151	4
45	45	23
164	164	27
47	47	26
176	176	14
108	108	15
216	216	16
87	87	19
67	92	4
246	247	2
36	54	1
93	93	20
77	77	19
173	232	3
79	86	3
50	50	17
195	195	11
157	157	15
49	78	1
153	153	33
201	201	34
47	70	6
65	98	4
230	233	1
97	98	10
165	177	3
180	195	3
24	24	25
9	94	1
68	68	16
168	229	2
145	157	1
164	165	5
187	191	1
11	12	6
245	245	13
40	54	1
145	228	1
17	40	1
23	113	1
211	213	2
231	233	6
174	247	3
92	97	3
41	207	5
247	248	12
159	159	17
94	94	20
109	109	24
178	178	15
85	86	3
183	183	23
27	44	1
233	241	3
149	150	6
186	190	1
34	34	9
216	217	4
84	85	11
48	78	6
19	22	1
223	224	5
6	33	6
158	160	1
224	224	15
10	110	2
239	240	2
109	235	3
82	85	2
111	158	1
92	92	13
193	194	6
98	98	15
147	147	16
50	102	3
49	49	21
5	5	11
171	171	21
32	32	25
215	215	10
22	23	3
89	89	12
180	183	3
69	91	2
209	210	6
235	242	1
18	18	21
249	249	2
161	204	2
227	227	16
234	234	20
189	190	10
215	217	6
27	32	3
242	245	4
229	230	9
57	58	10
219	219	7
213	214	4
85	85	15
72	73	10
211	211	16
199	199	25
162	163	6
91	91	24
157	158	3
10	33	2
184	195	2
111	112	6
40	199	1
236	237	9
167	168	9
80	81	3
113	113	15
6	6	28
67	67	12
193	210	2
79	85	2
170	237	1
191	191	11
65	66	10
90	91	7
77	78	5
162	164	10
29	32	7
114	114	19
166	209	4
183	186	3
198	198	13
43	45	8
110	110	24
84	84	23
23	145	1
208	209	6
244	244	5
27	29	3
186	195	5
8	10	4
226	226	21
193	193	29
53	65	3
2	3	2
204	205	16
44	44	6
201	220	2
37	39	1
14	14	15
98	100	1
209	209	19
43	43	20
216	246	3
20	20	31
95	95	15
237	237	12
207	207	29
64	65	5
111	120	3
156	203	1
12	12	8
192	197	8
182	209	2
50	57	1
3	3	14
21	22	2
158	193	2
49	51	3
71	72	7
2	2	12
153	154	4
147	159	1
187	189	7
187	194	3
183	184	11
30	30	19
187	212	2
34	47	2
190	192	2
191	192	4
80	80	5
56	114	3
187	188	10
212	214	3
63	64	6
206	207	5
81	81	9
234	235	5
103	103	17
76	106	2
89	90	3
99	100	2
83	85	3
77	80	4
163	184	1
180	206	5
181	181	19
25	25	18
5	6	4
109	110	3
165	167	3
76	77	11
1	1	7
43	44	11
241	241	8
241	242	10
171	181	3
88	88	16
161	162	6
8	9	8
217	218	3
214	214	26
94	103	3
100	100	7
178	197	2
90	90	20
215	216	4
194	194	12
49	62	1
187	214	1
223	229	1
217	217	12
19	29	2
90	102	1
177	178	5
60	60	7
33	33	16
30	223	2
31	32	2
204	204	24
185	185	10
228	232	2
32	44	1
196	196	9
212	245	2
107	109	1
61	62	6
77	119	5
39	39	20
244	248	5
204	229	4
11	19	2
12	32	1
17	204	1
61	61	5
18	20	5
4	5	10
160	161	3
150	234	3
163	164	3
59	59	11
29	225	1
1	45	1
9	10	4
109	231	2
236	241	4
169	213	2
40	41	7
188	189	4
104	104	8
117	118	6
91	97	2
31	31	19
170	239	5
197	198	8
60	61	7
178	241	1
116	117	2
144	198	2
33	52	2
13	19	2
20	116	2
224	236	1
93	94	2
57	57	11
27	28	7
178	200	1
84	117	1
228	228	8
165	192	3
15	22	2
189	223	1
171	172	2
34	35	4
17	20	4
121	121	6
169	196	2
101	108	1
72	72	9
220	224	1
14	15	6
169	171	1
234	240	2
47	50	3
169	189	5
238	239	1
170	204	1
67	93	2
38	39	18
196	248	1
201	202	3
26	27	3
218	218	6
41	42	5
156	201	2
170	171	3
204	212	4
182	184	2
243	244	7
220	244	2
55	61	4
225	247	4
94	95	3
192	249	1
194	195	2
4	4	6
102	102	8
205	209	1
86	86	3
187	187	9
162	175	6
79	80	8
171	235	2
67	68	4
167	175	3
2	11	5
86	91	3
175	223	2
200	201	12
225	225	6
114	117	1
83	83	9
196	215	3
16	16	10
53	109	2
225	226	7
110	117	3
21	21	14
179	180	4
180	197	4
32	33	6
52	65	1
37	38	6
189	226	1
56	65	2
1	2	1
99	113	2
90	105	3
208	217	1
162	176	4
105	112	2
106	106	11
197	201	1
0	0	3
163	163	6
93	116	2
210	211	6
244	245	2
36	37	1
19	109	7
15	241	3
58	117	2
73	74	6
158	161	4
86	90	1
120	145	1
95	98	5
112	244	3
239	239	7
92	114	2
2	36	2
18	19	4
176	210	2
4	35	2
206	206	14
188	192	2
150	154	1
35	55	2
78	79	4
151	201	2
190	191	6
82	118	2
55	56	4
47	48	7
188	191	3
82	82	10
234	246	2
75	75	9
30	117	4
155	156	6
236	236	10
59	60	10
58	59	3
176	177	4
14	33	1
84	115	2
177	219	2
146	159	3
232	238	6
106	107	12
69	69	7
97	102	3
75	105	4
30	82	2
242	243	5
112	114	5
241	247	2
58	64	1
171	173	2
74	104	2
113	114	4
190	195	2
57	59	1
102	108	2
81	82	4
180	181	11
95	99	1
112	241	1
170	217	3
95	100	1
120	120	15
49	77	2
227	229	5
74	90	2
48	50	2
26	94	4
23	227	2
110	111	1
16	36	2
185	186	7
174	175	1
184	192	2
191	211	3
26	113	2
230	230	4
60	63	5
30	225	1
61	63	5
71	145	4
53	93	2
13	34	2
162	222	5
180	228	1
19	30	3
182	183	3
24	25	5
235	237	2
38	41	1
81	115	4
221	222	3
47	62	2
43	147	5
211	229	3
170	173	1
30	170	1
51	65	2
22	94	2
68	69	2
171	213	4
66	67	6
35	76	1
26	64	1
17	185	3
92	115	1
216	245	3
218	219	5
183	205	2
85	90	2
3	4	2
211	223	5
159	160	4
75	104	1
220	229	2
6	244	1
175	176	8
74	74	7
33	65	2
33	59	4
180	182	3
51	62	1
213	247	3
228	229	1
111	113	2
2	7	3
59	153	1
105	105	4
20	22	2
212	247	4
153	198	2
161	242	2
3	15	6
39	242	1
213	225	1
237	240	5
49	50	3
86	87	7
76	76	14
38	44	1
158	228	4
162	206	1
69	70	2
59	81	2
29	40	3
38	67	1
48	80	1
195	196	4
39	241	1
96	105	1
35	36	4
62	63	3
60	64	1
244	246	3
169	170	8
73	75	1
192	211	1
164	171	1
0	15	1
207	230	1
155	201	4
247	247	5
17	234	2
192	195	3
193	196	2
26	93	1
188	190	1
174	221	1
84	88	1
214	215	3
214	223	2
231	232	3
87	118	1
107	108	2
91	102	7
93	114	2
78	96	3
192	194	2
153	158	1
7	212	1
146	153	2
47	102	1
205	207	2
47	73	2
71	71	3
71	77	1
15	16	2
48	65	3
3	29	2
57	60	5
151	154	2
15	181	3
222	223	5
75	119	2
113	157	4
91	92	1
165	196	1
242	246	4
26	28	1
178	186	1
154	161	1
154	155	5
159	247	1
72	112	1
161	221	2
201	228	3
162	177	3
153	159	2
63	117	1
198	211	3
179	210	1
60	79	1
78	105	2
112	113	7
40	197	4
179	182	2
107	107	6
194	196	1
224	238	1
55	65	1
169	220	2
15	63	2
44	203	1
233	246	2
76	108	2
202	205	3
47	65	2
181	201	1
115	144	1
64	113	1
170	184	1
74	89	3
56	59	2
75	76	7
95	114	1
1	3	1
90	104	3
181	182	3
161	179	2
87	103	2
118	119	3
3	14	1
173	202	2
59	63	3
98	99	1
157	248	2
163	208	1
82	84	1
212	232	1
180	185	1
2	63	1
73	73	4
216	222	1
204	206	6
185	189	2
197	199	1
4	56	1
102	107	2
167	184	3
51	52	3
46	56	1
166	175	1
16	212	1
3	11	1
237	239	6
213	243	1
109	114	2
74	75	2
164	187	1
185	208	4
2	32	4
96	97	2
95	115	1
216	224	1
237	238	4
217	242	1
146	160	1
44	54	4
47	103	2
182	215	4
203	227	2
96	98	2
232	239	2
6	35	5
152	163	2
233	234	4
16	17	1
121	242	2
76	87	1
38	92	1
17	23	1
57	64	2
12	21	2
46	54	1
144	144	1
50	106	2
95	101	2
33	48	2
81	119	1
198	246	1
161	229	1
107	111	1
15	19	1
60	62	1
233	245	3
229	231	1
62	89	2
224	225	1
218	224	2
33	218	1
185	231	3
175	183	2
52	54	3
187	215	2
153	156	2
204	213	2
173	204	1
175	211	2
110	246	1
44	62	1
52	53	2
45	46	4
243	246	2
208	229	2
71	74	2
29	30	4
68	70	1
152	160	1
211	231	2
144	221	2
192	198	1
57	94	1
172	187	4
161	180	2
162	207	1
116	118	2
193	195	1
217	246	3
17	44	2
218	245	1
91	96	2
56	57	1
34	57	1
160	191	2
36	201	2
217	219	1
151	188	2
165	189	1
230	231	2
39	41	1
54	55	3
56	64	1
33	54	1
167	178	2
214	237	2
198	200	3
80	106	1
102	104	2
46	113	1
15	119	1
4	15	1
75	77	1
11	15	3
87	100	1
47	208	1
115	118	1
248	248	2
55	62	2
17	19	1
77	120	1
161	225	1
236	239	2
223	227	1
121	145	2
35	37	2
12	22	1
76	80	1
169	184	2
27	31	1
111	246	1
179	200	2
245	246	2
3	110	1
63	78	1
240	248	1
95	113	1
105	119	1
5	175	1
33	36	1
183	214	2
115	116	2
25	207	2
83	107	2
71	79	1
98	104	1
50	112	1
174	183	2
97	103	2
162	195	1
173	185	1
65	109	1
51	56	1
165	176	1
163	166	1
26	44	2
180	204	1
150	155	1
188	222	1
41	223	1
90	101	1
75	106	2
212	235	2
167	194	1
175	241	1
46	88	1
174	186	2
79	119	2
7	38	1
162	198	2
37	40	1
59	112	2
190	213	2
102	103	1
68	110	1
1	16	1
199	216	2
156	180	3
213	230	1
166	211	1
161	222	1
168	195	1
44	45	1
202	233	1
10	118	1
211	212	1
145	220	1
97	115	1
231	244	1
90	109	1
90	120	1
50	82	1
36	46	1
195	209	2
190	249	1
2	60	1
117	119	1
183	210	1
179	225	1
178	195	1
182	204	2
175	242	3
174	234	1
15	47	1
209	224	1
228	239	1
203	223	1
3	41	1
184	190	2
34	168	1
78	120	1
10	11	1
97	99	1
156	161	1
7	8	1
165	173	1
22	114	1
62	70	1
193	207	1
24	112	1
39	234	1
200	206	1
51	53	1
172	173	3
1	205	1
28	234	1
209	241	1
83	84	1
216	223	1
9	115	1
55	58	1
106	112	2
218	244	1
219	224	1
163	167	1
203	205	1
18	84	1
68	115	1
197	243	1
203	226	1
144	145	1
62	68	1
43	93	1
166	176	1
93	245	1
186	210	1
64	117	1
169	173	1
172	174	1
175	225	1
69	71	1
195	217	1
39	214	1
53	110	1
186	211	3
152	153	1
37	96	1
235	236	1
30	232	1
181	225	1
19	20	1
111	245	1
157	244	1
189	191	1
171	182	1
165	166	1
111	244	1
