79	79	7
46	78	2
105	106	6
61	61	24
98	98	12
91	91	12
111	111	8
42	42	7
99	99	16
60	60	9
98	102	8
107	107	7
82	82	15
83	113	2
24	46	4
75	75	12
56	59	5
70	73	4
109	110	5
89	89	11
63	64	5
78	97	1
61	62	2
59	81	2
100	100	16
58	58	6
31	31	3
71	73	7
29	79	2
93	95	5
43	44	3
75	77	5
64	64	11
85	85	9
109	109	6
107	108	7
46	76	4
68	68	17
78	79	1
34	34	8
40	40	6
60	80	1
104	104	3
96	96	8
57	57	12
99	100	6
86	89	8
41	41	7
63	63	2
26	26	8
19	54	1
75	110	1
71	71	4
53	55	2
101	101	11
48	48	7
102	102	17
53	54	5
25	25	7
80	80	12
45	45	12
110	111	6
103	103	4
39	39	6
89	91	1
98	101	5
20	20	6
37	92	2
74	74	8
65	83	1
95	95	5
28	29	6
91	94	1
32	32	5
65	65	8
80	85	1
88	110	4
76	76	10
82	83	2
66	66	9
49	50	9
84	85	3
59	59	6
104	105	5
104	106	5
19	19	10
38	38	16
88	89	9
59	60	3
24	24	10
51	52	1
43	43	5
39	61	1
31	91	4
97	101	2
70	70	8
106	106	14
65	81	3
21	21	6
92	93	4
85	98	2
53	53	3
90	91	6
46	56	1
81	81	4
63	65	3
87	106	1
27	98	3
103	107	1
62	69	2
32	33	5
46	60	1
88	88	5
66	67	3
62	62	9
76	78	1
72	72	10
94	94	2
56	56	5
105	105	7
45	46	2
113	114	2
69	74	1
28	28	2
22	72	2
80	81	6
38	79	1
53	72	2
30	30	4
110	110	5
49	49	7
32	34	3
113	113	16
26	27	4
34	35	3
86	86	2
57	68	1
33	33	5
25	55	3
91	108	2
62	63	5
114	114	12
109	112	2
71	79	1
91	104	5
69	69	2
36	36	5
109	111	3
92	92	4
73	73	7
79	80	2
39	40	3
90	90	5
24	45	3
35	35	5
26	78	3
36	109	3
112	113	4
108	108	7
46	46	9
65	67	1
103	104	1
47	47	2
97	97	4
68	72	2
26	37	2
29	29	4
29	109	3
70	76	2
61	68	3
50	50	5
54	72	1
78	78	5
63	66	4
26	79	1
53	77	2
93	93	7
67	67	3
101	102	1
84	84	9
70	77	4
24	96	2
33	35	1
58	73	3
65	82	1
33	34	4
74	75	3
38	86	2
100	101	1
55	55	1
28	109	1
83	83	1
53	65	2
20	23	1
76	83	2
39	78	3
94	101	1
23	77	2
23	96	2
93	96	1
20	25	1
41	99	2
68	69	3
55	56	2
94	96	2
43	71	3
23	23	3
111	113	1
104	107	3
48	49	1
92	95	2
44	45	2
87	87	2
57	72	1
61	74	1
112	112	2
50	51	3
71	77	2
55	108	3
87	91	1
70	81	1
76	77	3
35	36	1
112	114	3
64	68	1
80	86	1
83	86	1
68	70	2
83	84	1
111	112	1
23	72	1
76	112	1
37	37	4
33	82	1
87	97	1
65	70	1
86	87	4
19	20	1
70	71	3
57	58	1
77	77	4
27	28	2
72	77	2
44	44	8
23	24	3
72	73	3
73	101	1
42	77	1
34	37	2
29	99	2
54	54	1
88	90	2
96	97	1
25	56	1
85	113	1
30	87	1
60	62	1
42	43	2
112	115	2
86	106	1
23	52	1
51	51	2
60	74	2
46	73	1
88	101	1
92	104	3
69	76	1
20	31	1
89	90	1
58	74	1
110	113	1
82	84	1
20	26	1
27	27	1
39	79	1
27	109	1
92	100	1
40	97	1
57	85	1
60	81	1
31	32	1
