224	225	2
86	86	5
7	7	6
12	18	2
181	181	2
212	212	3
43	113	1
129	130	3
8	8	4
44	45	6
70	70	4
189	189	1
3	24	3
203	204	5
137	138	9
150	176	3
62	68	1
17	17	6
13	15	2
53	78	3
110	128	3
84	113	2
238	238	4
205	206	9
81	81	5
116	116	6
80	84	5
230	231	5
168	170	1
63	64	3
114	119	1
60	60	3
88	88	1
76	91	5
7	8	2
228	230	2
55	55	5
25	25	6
20	24	1
9	9	7
14	15	1
101	101	4
1	2	4
220	232	2
104	105	3
6	21	6
190	190	2
1	1	4
26	46	1
241	241	7
40	40	5
28	29	6
116	117	1
34	35	6
31	31	2
144	145	2
147	149	2
74	74	3
219	219	2
152	152	5
69	69	4
122	123	6
165	165	1
16	16	3
64	78	3
157	184	1
161	161	5
58	59	4
82	82	3
182	182	2
24	24	4
184	210	2
96	97	4
77	78	3
0	1	2
13	13	2
183	183	4
153	156	1
205	205	1
200	200	2
123	124	4
176	188	4
15	16	5
216	216	7
55	56	3
123	127	3
14	14	1
133	135	5
139	139	1
203	203	6
186	186	4
134	134	2
71	72	1
54	56	1
65	65	1
222	229	1
138	138	7
3	7	4
218	218	1
207	207	5
98	109	1
106	108	5
169	171	3
4	4	6
34	34	4
26	27	1
76	77	1
219	220	3
228	228	6
175	228	4
124	124	3
47	47	8
220	226	1
202	202	7
226	226	3
122	127	2
19	19	3
15	15	1
75	77	2
220	220	4
63	63	3
58	58	7
119	119	1
20	22	4
164	164	1
58	60	3
18	19	5
169	169	1
133	133	3
217	217	2
195	195	2
41	41	2
170	170	6
168	168	3
10	10	1
22	34	1
43	85	2
13	221	1
143	146	2
136	136	1
8	31	1
38	38	5
67	67	3
28	28	1
113	113	2
129	129	3
11	12	2
127	127	5
46	54	1
137	142	2
79	80	1
175	176	1
234	241	1
85	112	2
19	36	3
66	80	1
173	173	2
19	190	1
142	142	4
24	210	2
81	82	1
22	23	2
12	12	2
209	215	2
70	73	2
221	221	1
66	66	1
141	143	1
24	238	2
206	206	2
49	50	2
188	188	5
51	51	2
21	23	1
83	108	1
174	174	4
208	210	2
49	49	2
241	242	3
192	192	2
213	213	2
113	114	1
228	229	4
64	64	2
135	135	2
58	62	1
3	3	2
155	183	1
11	11	5
114	234	1
207	209	1
179	182	3
154	154	1
17	22	1
189	206	1
202	203	2
180	205	5
12	15	2
115	115	1
161	162	3
224	224	3
80	80	2
151	151	2
19	20	3
179	179	1
161	163	2
168	171	1
23	23	2
98	98	1
172	172	3
203	225	1
20	20	1
175	178	1
199	200	7
26	26	2
229	229	2
199	199	3
126	127	1
176	194	2
27	28	2
156	156	2
153	154	1
82	83	3
66	68	1
0	0	3
76	79	1
73	73	2
201	201	3
44	44	4
43	43	2
137	139	1
71	71	2
140	140	1
114	120	2
4	5	1
197	199	1
218	221	2
208	209	1
13	14	4
31	33	1
73	74	1
56	56	2
222	222	1
104	104	2
96	96	1
34	36	2
12	13	2
40	85	1
208	222	2
225	227	1
21	21	1
78	78	1
5	23	1
22	22	2
210	210	1
178	178	2
198	198	4
2	2	1
193	193	1
68	68	1
97	101	1
194	196	1
112	113	2
27	27	2
191	196	1
177	177	2
172	192	2
184	184	1
105	106	5
158	160	1
161	165	1
232	232	2
5	8	1
137	137	2
39	81	1
84	84	1
79	91	1
143	143	1
16	35	1
236	236	1
72	235	2
209	210	1
5	21	1
158	158	1
20	205	1
169	170	2
48	48	1
6	6	1
191	191	2
131	131	1
29	29	3
231	232	1
233	236	1
35	37	1
72	73	1
192	227	1
242	242	1
5	5	1
174	175	1
18	35	1
86	88	1
176	193	1
153	153	1
48	240	1
99	99	1
50	53	1
154	158	1
194	198	1
84	85	1
223	224	1
224	227	1
186	187	1
85	85	1
102	102	1
61	61	1
150	150	1
30	30	1
141	187	1
194	194	1
19	21	1
12	32	1
33	33	1
126	126	1
