35	35	17
18	18	39
224	224	30
238	241	2
98	99	9
117	117	28
170	183	1
169	169	24
114	114	16
229	229	16
9	17	2
50	52	3
21	22	29
192	192	24
19	20	6
154	154	35
125	126	5
11	11	24
33	66	4
117	119	9
172	172	20
215	220	1
28	28	52
178	181	4
140	140	18
118	118	20
34	34	40
19	19	52
145	147	6
52	56	4
39	214	1
178	178	22
191	191	19
22	23	17
231	231	11
121	121	18
65	65	27
123	123	34
41	42	3
150	152	6
204	204	16
52	52	29
15	17	1
32	32	21
181	181	28
168	169	12
56	142	1
35	36	16
43	44	10
241	241	18
212	214	1
208	217	2
40	41	13
55	55	36
31	37	6
157	157	24
187	224	6
170	174	2
188	189	8
126	129	4
18	22	2
20	22	7
9	9	38
204	206	4
200	200	29
10	16	2
54	68	3
4	4	37
85	89	1
190	191	11
137	138	16
233	235	4
133	133	20
104	104	39
119	120	5
158	158	19
73	73	41
161	162	11
152	152	32
17	21	1
29	30	24
145	148	10
33	33	47
86	86	47
62	62	30
161	161	16
85	85	37
106	106	27
198	198	23
106	123	7
105	117	2
24	24	35
119	123	5
74	74	53
124	125	15
155	162	2
5	5	26
19	22	7
15	15	20
82	83	12
54	55	16
201	201	26
14	16	11
145	145	13
41	41	37
25	25	48
59	60	28
71	72	28
171	171	20
48	48	33
79	79	30
57	58	9
21	21	50
29	44	3
182	183	14
119	119	32
36	38	8
84	84	37
214	214	26
138	138	20
64	64	17
11	82	4
218	219	9
102	102	21
233	234	12
136	136	22
63	67	7
30	30	34
47	47	31
38	38	38
116	117	10
175	176	25
26	174	4
99	117	7
214	216	5
58	60	1
17	17	32
226	226	27
164	165	25
68	68	25
69	69	38
226	227	10
141	141	38
63	64	7
239	242	2
66	69	8
150	150	17
25	26	18
103	103	28
47	49	5
202	203	12
194	194	31
3	8	4
97	97	22
122	124	16
59	59	29
154	157	6
183	183	20
140	143	4
7	15	3
213	216	6
122	122	21
158	159	8
43	43	52
81	81	34
8	8	37
186	186	22
184	187	7
140	141	16
2	170	5
118	126	1
6	6	29
168	168	32
27	28	21
148	150	3
81	83	5
147	148	9
101	102	18
29	60	2
26	172	7
49	50	13
2	3	15
45	45	16
221	222	18
118	127	4
36	46	2
228	229	7
64	67	2
209	210	14
66	68	10
128	128	21
7	7	55
100	100	21
89	89	7
78	78	34
3	3	17
153	158	1
45	69	10
13	14	10
218	218	15
1	3	11
69	70	7
26	26	28
157	160	5
73	74	10
12	12	41
80	84	15
203	203	25
196	196	10
49	54	2
220	220	22
209	214	3
10	10	31
32	46	2
31	31	40
162	162	19
48	50	9
103	105	8
237	237	38
182	208	4
202	202	19
23	23	34
7	8	16
1	62	3
151	151	39
39	39	40
26	203	2
136	138	3
184	185	12
44	46	4
28	236	3
125	125	21
104	105	10
117	118	24
14	14	22
88	96	2
209	209	18
17	223	2
219	219	15
122	219	1
220	222	4
186	223	2
102	103	21
18	19	19
120	120	23
185	186	3
6	83	2
48	54	1
46	46	50
206	219	1
7	14	2
42	42	44
214	215	15
159	171	2
101	103	4
148	152	1
62	67	3
23	24	7
99	101	4
178	203	1
106	109	11
3	139	1
53	53	37
12	13	19
235	235	21
121	122	16
60	60	26
228	228	15
56	57	23
2	4	3
174	175	12
9	10	5
107	107	18
81	84	4
205	205	37
135	135	16
76	76	22
61	113	4
126	127	8
62	63	20
20	21	8
210	210	19
194	196	15
201	202	5
180	181	15
24	25	17
51	51	33
207	207	14
118	119	14
184	184	22
239	240	6
101	101	36
20	20	42
161	165	2
14	15	4
198	223	2
142	142	24
8	15	3
108	109	2
197	220	1
4	169	2
216	222	6
144	147	6
83	83	28
15	49	1
67	67	29
211	212	25
57	57	23
33	34	17
139	139	22
12	121	1
187	187	21
61	61	29
30	32	11
210	215	6
224	225	9
206	206	24
22	22	29
58	58	33
142	216	2
9	11	2
113	114	3
15	220	1
215	215	19
150	157	3
230	230	16
5	167	6
146	162	4
182	182	21
222	224	8
237	241	1
77	77	20
54	54	32
98	109	3
32	33	9
236	237	9
213	214	12
99	99	22
53	56	4
222	222	22
4	5	10
196	198	1
189	189	15
80	80	28
16	16	38
108	108	21
83	85	2
18	34	2
187	188	8
47	65	2
149	149	17
12	14	1
4	13	1
38	59	2
134	136	3
100	104	3
17	37	2
98	115	3
7	16	4
72	73	12
20	158	3
75	83	2
99	100	21
227	228	6
220	221	12
234	234	35
148	148	23
139	140	7
198	199	20
212	212	17
124	124	19
116	116	14
49	66	4
47	48	9
167	167	25
4	8	4
164	164	27
42	44	5
112	239	2
148	149	12
170	170	19
10	242	4
185	185	18
105	116	1
18	21	16
144	144	17
7	9	1
111	111	13
240	240	24
47	62	2
130	130	25
174	174	34
95	99	1
166	167	6
96	96	22
169	170	9
143	143	18
140	145	6
45	46	10
85	86	10
227	229	3
189	190	3
82	82	27
216	216	20
168	186	2
72	72	28
38	39	1
178	179	8
146	159	3
146	148	3
0	0	32
208	208	30
238	238	21
13	13	42
224	231	4
177	178	7
18	38	3
213	213	13
217	218	11
37	38	28
95	96	3
138	155	3
137	137	22
30	44	2
129	129	10
66	66	9
75	77	5
219	220	10
115	115	12
118	122	3
153	153	24
101	118	2
217	217	18
185	199	6
205	206	11
76	80	4
211	215	6
70	70	36
205	229	3
11	42	3
118	120	6
145	146	9
36	36	20
105	105	13
166	166	16
12	20	5
127	127	16
176	176	18
195	196	15
158	163	4
1	2	4
76	77	11
53	54	5
113	113	34
31	32	5
193	194	14
188	214	2
2	41	3
144	150	5
163	166	6
64	65	13
180	187	3
72	127	5
58	59	15
56	56	31
72	95	2
155	156	9
183	211	10
174	179	2
126	126	16
196	233	1
27	174	1
100	101	12
232	232	25
120	122	2
47	50	3
156	157	13
159	160	13
16	18	4
44	44	28
197	197	24
13	17	6
144	146	6
104	106	1
175	183	3
29	59	4
122	123	6
6	14	5
235	238	3
222	223	5
28	102	2
238	239	7
27	27	28
188	188	16
103	109	2
30	31	17
50	51	8
50	50	11
32	34	1
0	2	6
67	184	1
186	189	1
211	211	8
225	225	25
234	236	1
193	195	21
174	189	4
80	82	6
173	173	23
109	109	14
200	201	4
163	167	5
242	242	14
179	180	14
30	34	2
170	175	4
57	60	1
210	211	21
65	67	8
24	37	1
37	37	37
88	88	20
218	222	5
117	126	3
147	147	12
155	155	27
42	69	3
134	134	11
44	45	16
228	232	3
74	83	3
48	49	8
217	222	6
197	198	18
42	43	12
83	95	2
177	177	15
141	142	11
221	221	27
112	113	5
136	137	11
5	6	13
39	41	9
194	195	9
209	213	3
8	9	9
29	31	5
225	226	4
18	229	2
49	69	1
40	40	21
216	221	2
33	36	4
133	239	3
33	226	6
156	158	3
78	82	2
2	2	20
14	23	5
25	148	5
16	231	2
138	139	13
160	160	18
6	15	2
54	65	4
59	86	1
165	166	11
127	129	10
190	215	2
195	217	2
127	128	8
56	114	3
149	150	9
71	71	28
77	80	3
49	49	31
198	200	5
144	145	3
26	27	7
167	187	7
81	82	19
125	156	8
95	95	12
34	36	5
206	207	2
25	147	2
199	199	23
159	159	11
100	119	5
124	159	4
188	212	2
236	236	18
227	227	24
68	69	6
203	204	7
175	175	20
176	177	11
64	236	3
107	123	7
17	229	2
137	139	5
16	17	11
119	125	4
171	172	10
17	18	14
140	216	2
40	45	6
133	135	5
152	153	5
63	63	34
223	223	8
169	188	5
32	37	2
28	32	2
146	146	17
2	23	4
113	127	2
114	115	15
128	131	2
217	223	4
55	62	5
29	29	14
77	78	14
5	80	2
23	170	3
115	118	3
190	190	18
64	84	2
32	239	1
46	47	16
107	118	2
17	23	3
98	98	32
101	119	4
210	222	4
207	208	12
151	193	4
218	221	6
132	137	9
2	169	2
34	35	21
122	161	1
8	144	1
164	181	4
79	84	4
23	168	3
12	16	5
11	18	2
109	110	6
75	75	25
138	158	1
181	186	2
235	236	7
174	178	2
179	179	18
166	192	3
80	81	4
40	214	1
71	73	7
12	19	2
156	156	6
40	56	4
180	182	8
155	157	4
158	162	3
6	20	2
105	106	10
65	68	6
199	208	1
4	80	6
8	11	2
164	166	1
232	234	2
100	118	3
120	121	13
200	221	10
117	214	1
1	1	14
138	163	2
38	54	5
56	60	1
136	238	1
116	120	3
163	163	14
97	98	2
74	75	5
186	187	3
79	83	3
140	151	3
173	191	1
125	135	7
103	106	2
183	207	1
141	143	6
49	56	1
60	106	2
10	37	5
85	144	1
31	33	10
233	233	14
44	227	2
232	233	2
3	60	1
75	79	6
180	180	14
95	120	3
115	117	2
57	141	3
154	169	1
17	22	4
239	239	18
28	237	4
169	171	3
173	174	13
5	32	1
160	175	2
128	129	8
214	222	4
161	164	4
165	165	14
52	54	2
227	230	6
84	85	18
231	232	9
67	68	7
29	37	3
1	4	6
83	84	16
66	67	7
6	26	2
106	119	4
161	163	3
184	186	8
151	155	1
140	142	2
193	193	16
151	191	1
115	116	12
137	142	1
131	131	4
5	7	3
17	20	2
82	84	9
48	53	1
126	131	2
103	104	6
79	82	1
144	221	3
57	106	4
15	16	7
192	216	2
107	116	1
98	102	4
9	26	5
0	78	4
51	142	4
159	161	4
129	162	2
132	132	3
71	75	1
51	52	15
8	167	2
208	226	2
150	151	18
230	232	2
67	69	2
142	147	3
180	218	4
1	169	1
189	213	1
108	115	4
158	173	2
185	209	5
16	33	3
90	99	1
146	161	7
170	184	1
133	134	18
146	147	4
207	226	3
200	220	3
40	42	11
134	135	9
216	217	3
215	216	13
238	240	5
226	232	4
55	56	4
216	220	1
131	133	4
208	212	2
34	37	1
78	79	12
26	173	2
0	141	1
23	171	5
47	230	1
16	22	2
213	225	5
16	85	2
127	140	2
96	97	6
52	53	12
66	70	2
173	175	8
26	175	1
184	198	1
139	163	2
45	231	2
190	211	6
199	209	2
3	5	3
18	20	5
87	114	2
108	131	1
214	218	2
124	126	8
102	111	1
162	166	5
209	223	1
119	121	3
119	127	4
99	111	1
155	158	5
25	217	1
112	112	4
129	130	13
23	36	3
118	139	1
240	241	3
11	16	4
60	66	8
85	95	1
153	156	1
46	55	1
219	223	3
196	197	6
186	198	2
192	193	13
28	212	3
3	10	2
2	60	2
72	118	1
64	70	2
223	225	4
136	237	2
119	124	3
17	231	1
104	110	1
184	208	2
16	223	4
17	29	3
187	190	1
110	120	2
16	221	2
136	236	5
3	80	5
130	153	1
12	15	4
230	231	8
64	72	2
36	48	1
197	202	1
1	9	2
13	16	7
106	108	5
121	124	2
146	149	1
165	170	1
116	118	4
217	220	3
136	139	1
24	176	1
138	203	4
107	115	5
151	152	9
189	204	1
215	224	1
162	163	3
123	125	1
6	56	3
58	98	2
25	35	1
241	242	7
21	23	3
143	170	5
111	112	9
50	53	5
113	116	1
199	221	6
236	240	1
20	25	1
133	161	2
156	162	1
148	151	4
176	178	2
199	201	5
64	71	2
14	22	2
11	37	1
11	12	5
12	53	2
20	32	1
124	129	6
109	113	1
32	226	1
90	90	2
231	233	2
135	137	4
168	171	3
175	177	3
57	82	3
211	219	1
18	39	3
41	43	3
102	109	2
64	69	3
6	13	3
26	218	4
63	65	3
149	168	1
70	71	16
10	213	1
167	169	5
164	169	3
58	66	1
54	57	4
145	150	2
195	221	3
15	37	1
180	197	3
39	84	3
79	80	3
187	198	1
10	11	5
160	171	1
142	161	4
37	60	2
23	187	2
62	64	4
227	231	1
200	222	1
89	130	1
171	173	4
196	216	2
162	164	1
125	129	2
213	218	4
130	131	3
53	55	3
180	192	2
235	237	1
156	165	4
143	165	5
209	215	1
157	165	1
185	187	5
65	66	4
37	105	6
61	62	8
17	34	1
175	178	3
172	202	1
122	158	1
153	155	7
194	197	1
71	111	1
180	195	4
140	148	2
2	5	8
197	199	5
167	188	2
31	48	4
57	64	1
159	165	4
165	215	1
107	108	5
120	123	4
217	225	1
30	100	3
179	187	4
153	157	2
21	35	2
19	21	2
46	67	1
26	28	4
105	139	1
47	54	1
146	150	1
161	166	1
142	165	1
28	29	4
29	45	2
125	127	3
11	40	1
142	143	4
61	63	2
184	199	4
38	43	3
16	84	7
142	169	2
14	17	5
25	33	2
215	221	5
212	221	3
170	180	1
95	123	7
197	216	4
198	221	2
11	17	3
135	136	6
205	207	3
187	212	5
159	164	4
17	41	1
21	24	1
152	170	6
199	200	10
1	64	3
6	12	1
16	217	4
182	184	1
58	75	2
25	175	1
101	147	1
7	22	1
58	61	2
181	183	1
176	183	3
170	171	4
28	217	1
172	175	1
223	224	3
224	226	2
69	71	2
118	128	2
110	118	1
185	211	1
43	225	3
105	108	5
136	151	2
165	169	3
205	236	1
164	168	1
186	207	1
165	180	3
153	154	2
76	88	1
80	83	1
212	226	2
184	200	2
20	28	4
39	42	1
216	218	4
31	54	2
161	196	1
181	192	1
2	79	1
149	155	3
219	225	2
35	37	4
100	111	1
51	55	6
142	146	2
207	210	1
157	158	3
130	163	1
1	41	2
51	53	5
20	155	5
126	156	2
8	17	3
140	146	2
49	67	1
116	143	2
38	78	4
202	205	1
73	85	3
77	79	1
88	89	2
45	228	3
16	23	1
122	126	2
158	171	2
109	145	2
3	4	4
219	226	3
236	241	1
137	163	1
209	212	1
144	172	2
167	168	3
16	21	6
109	120	1
146	160	1
188	190	1
127	159	2
17	31	2
23	167	4
212	213	6
144	160	3
144	162	3
220	223	2
23	25	3
158	161	4
26	74	2
7	60	1
11	15	2
65	201	4
143	147	1
15	29	1
16	30	2
11	232	2
172	173	8
51	75	2
54	58	4
24	29	6
201	205	1
229	231	1
25	29	1
36	50	2
108	121	2
45	47	2
72	76	2
72	134	2
165	214	1
224	236	1
193	196	11
95	101	2
166	170	2
32	142	1
19	37	1
143	146	2
159	162	1
106	107	1
185	225	1
192	194	3
51	54	4
148	157	1
112	238	1
145	152	3
154	156	3
14	59	1
6	145	2
7	59	3
200	207	1
147	150	2
30	37	1
118	123	1
113	129	1
108	110	1
176	179	2
8	22	2
186	224	1
139	165	1
63	233	4
10	218	1
44	75	1
75	76	1
105	107	2
46	231	2
83	146	2
7	84	2
12	40	1
216	223	2
6	141	2
13	83	4
120	128	2
224	227	4
18	36	1
12	51	3
163	164	1
234	235	5
119	155	1
181	185	2
38	217	1
9	47	1
55	74	2
152	154	3
34	140	1
41	66	3
3	7	5
206	218	3
73	75	3
3	42	1
217	221	1
168	182	1
160	161	9
0	143	1
108	123	2
151	153	4
11	20	2
39	45	1
16	59	2
15	85	2
150	153	2
4	21	2
141	154	2
51	57	3
123	157	2
152	155	2
143	144	3
6	133	1
215	218	1
133	138	1
59	68	2
95	97	1
17	35	1
153	189	2
231	235	1
15	81	1
24	32	2
3	21	1
174	190	2
34	49	2
24	85	2
34	67	4
237	239	1
108	120	3
212	218	1
210	213	1
150	169	2
12	81	3
39	59	1
124	127	3
130	154	7
90	105	1
229	232	1
95	131	1
6	137	1
192	195	2
9	172	1
99	123	1
58	64	1
1	5	2
57	59	3
214	227	2
199	222	1
72	87	2
209	220	2
27	160	2
95	100	2
126	135	2
237	238	4
206	221	2
43	68	2
188	196	1
180	183	1
36	37	2
106	110	3
163	165	1
225	232	1
52	55	2
140	152	1
102	120	1
4	23	1
131	135	1
4	6	2
152	159	2
1	6	1
212	215	3
54	56	1
211	224	2
190	206	1
64	68	2
132	157	1
37	103	1
184	215	1
44	62	3
166	188	1
110	110	3
17	239	1
236	238	2
20	37	2
13	15	1
229	230	3
15	23	1
65	69	1
151	211	1
115	131	1
32	228	1
11	81	1
10	15	1
120	126	1
1	143	1
100	112	1
10	235	2
145	162	1
166	169	1
144	163	1
134	137	1
28	97	1
78	81	2
182	219	1
12	153	2
183	212	1
234	239	2
217	230	1
187	196	1
10	219	1
152	156	3
13	18	1
208	210	2
37	59	1
123	158	1
177	183	1
228	230	3
48	56	2
159	176	1
67	95	2
75	78	2
8	85	1
139	141	1
96	99	3
156	164	1
186	196	1
153	173	1
189	195	1
4	14	1
100	123	2
213	215	1
125	161	2
23	191	1
201	221	2
59	61	1
14	19	2
45	75	2
128	201	1
199	207	2
31	34	2
10	35	1
19	39	1
185	191	1
44	219	1
104	116	2
199	220	1
2	7	1
84	112	1
9	165	1
8	14	1
181	182	1
30	59	2
188	204	1
126	130	1
22	167	1
8	60	1
0	1	1
182	189	1
130	158	1
43	45	2
130	155	1
78	83	2
125	147	2
168	187	1
10	233	5
46	62	2
74	76	2
51	56	2
65	71	1
100	102	2
89	95	1
25	27	1
58	67	1
32	38	2
45	63	1
162	165	1
169	180	4
142	154	2
39	40	1
6	8	1
60	61	1
139	142	1
207	218	1
63	70	1
205	233	1
72	85	1
237	240	2
158	160	1
114	116	2
0	167	3
180	194	1
28	47	1
80	88	1
186	188	3
204	205	3
92	92	2
85	88	1
32	105	1
36	229	1
91	91	1
65	236	1
188	197	1
104	120	1
43	74	2
28	211	1
40	79	1
46	48	1
167	171	1
57	79	1
178	202	1
210	216	1
69	77	2
29	32	2
182	198	1
136	144	2
191	193	1
24	148	1
25	146	1
96	109	1
8	16	5
57	108	1
16	19	1
38	44	1
2	13	3
173	192	1
191	192	1
32	140	1
225	229	1
214	223	1
76	82	1
25	112	1
179	191	2
99	121	1
181	189	1
140	164	1
16	20	1
213	242	1
15	53	1
57	78	1
20	230	2
55	64	1
82	148	1
30	33	2
180	196	1
206	228	1
154	155	1
218	220	1
133	136	1
50	60	1
228	233	1
33	35	2
203	206	1
7	19	2
177	179	1
131	132	1
72	96	1
204	207	2
195	198	1
211	216	1
37	46	1
56	58	2
20	36	1
10	62	1
197	236	2
42	53	1
127	130	1
186	212	2
0	3	1
36	55	1
12	17	1
18	23	1
72	75	1
11	41	1
201	210	1
201	206	2
121	126	1
107	109	1
0	40	1
55	57	1
60	109	1
209	222	1
44	79	1
170	190	1
33	69	1
24	27	1
114	155	1
99	118	1
177	180	1
99	105	1
194	219	1
74	88	1
166	189	1
189	203	1
203	231	1
27	38	1
183	201	1
72	86	1
167	181	1
143	192	1
189	196	1
98	120	2
137	158	1
38	40	1
132	159	1
83	96	1
40	68	1
232	235	1
106	132	1
66	71	1
17	224	1
204	232	1
131	238	1
49	68	1
