106	106	3
71	71	11
62	62	2
130	130	5
25	26	3
9	9	4
23	23	17
48	48	3
41	56	2
9	110	3
18	18	11
98	99	2
102	102	4
62	64	4
137	137	8
10	10	8
44	44	7
19	31	9
83	85	10
114	114	7
16	16	4
100	103	2
124	125	2
139	143	3
94	95	2
108	109	3
139	139	6
57	57	4
81	81	2
28	30	4
21	21	5
124	124	6
122	122	7
77	77	10
151	151	4
44	45	3
20	23	5
23	63	2
68	68	10
131	137	4
67	68	3
70	70	13
40	40	7
90	93	2
50	55	3
36	36	4
17	25	6
26	27	6
132	132	4
15	16	2
107	107	6
115	128	2
149	152	2
134	136	2
42	43	5
24	24	10
76	79	1
46	46	9
55	55	2
6	66	3
5	5	2
11	111	1
132	138	2
6	25	3
5	26	2
14	20	2
47	54	1
138	138	7
42	42	5
33	33	4
134	144	5
49	49	6
12	13	3
32	33	4
73	73	3
11	11	10
144	144	4
40	93	3
79	79	7
45	45	4
18	19	6
132	139	2
44	91	3
82	83	2
14	14	7
96	96	10
81	82	4
39	39	4
5	14	2
7	7	1
28	65	2
75	83	1
144	145	1
125	126	2
10	11	2
86	86	6
41	142	1
129	129	4
94	94	3
87	87	3
108	108	2
19	24	2
20	39	5
30	31	1
111	111	2
63	64	1
133	134	2
153	153	3
126	126	2
123	123	2
27	68	3
5	27	2
9	67	1
93	94	1
38	92	2
50	52	2
97	98	2
44	46	2
102	103	4
90	90	4
16	24	2
34	65	3
34	35	1
19	19	8
110	111	4
32	32	3
54	54	2
25	25	2
127	127	2
134	134	2
83	83	1
20	20	3
34	96	3
5	11	4
81	137	1
8	141	1
73	85	1
12	142	3
87	88	5
76	80	3
96	98	1
75	75	3
45	54	1
50	57	4
36	64	1
92	92	1
119	119	3
4	5	1
38	131	2
80	135	1
43	43	7
28	28	2
27	32	4
49	73	2
58	58	3
97	97	3
56	56	3
147	147	2
11	12	3
20	22	1
115	116	4
120	120	4
64	69	1
8	8	6
115	117	4
117	117	2
24	30	2
72	87	1
131	143	1
106	107	1
11	15	2
82	82	3
104	104	10
3	7	2
63	65	1
86	93	1
4	6	4
77	79	1
30	50	2
145	145	1
121	136	3
103	104	1
128	128	5
64	64	4
116	116	2
78	79	6
29	29	3
100	100	4
143	144	2
132	133	1
150	150	2
112	112	4
76	137	4
66	66	6
78	78	4
47	48	2
7	18	1
56	93	4
107	114	1
135	135	1
145	146	7
38	38	6
74	74	5
127	139	1
13	17	1
13	13	4
64	67	1
9	142	2
95	99	1
130	139	3
13	129	1
146	149	3
21	22	4
53	53	3
50	83	3
85	85	3
136	139	1
142	143	1
143	143	3
7	27	3
19	87	1
71	73	3
15	15	7
141	145	1
77	80	2
107	109	1
111	114	3
22	34	1
25	27	1
125	135	4
26	138	1
73	75	2
102	107	1
147	150	1
71	72	1
23	26	1
14	15	1
13	16	1
75	94	1
12	68	1
93	139	1
114	117	1
79	82	1
111	112	1
114	115	3
42	55	1
67	67	3
145	147	2
119	134	5
98	122	1
100	105	2
74	81	1
39	141	2
46	153	1
30	107	1
12	12	1
7	17	2
8	140	1
85	94	2
125	125	1
103	103	1
45	46	3
20	21	2
107	108	2
78	82	2
55	138	1
35	35	1
2	7	1
53	55	2
124	129	1
33	51	1
63	67	2
69	69	3
150	151	1
20	132	2
84	84	1
38	129	1
120	122	1
43	44	1
76	86	2
45	64	2
93	93	1
146	147	2
11	14	1
39	43	2
133	139	1
37	37	3
147	151	1
65	65	1
25	28	1
95	95	1
63	63	1
109	109	1
106	123	1
154	154	1
141	141	1
133	138	1
126	127	1
83	87	1
113	114	1
64	65	1
