56	56	29
37	37	22
16	16	13
26	58	2
2	2	13
122	122	12
166	166	25
102	102	20
27	27	13
77	78	6
51	51	14
126	126	16
16	17	14
39	39	22
138	138	18
55	55	18
127	169	3
24	24	16
81	118	2
4	5	3
62	119	2
54	54	37
118	118	17
80	80	22
10	10	28
146	146	11
159	159	17
15	159	3
57	58	2
130	131	3
20	20	12
18	23	3
17	17	17
83	129	1
68	74	1
114	114	26
159	160	4
160	160	17
23	23	9
20	53	1
1	2	16
115	115	13
81	81	16
97	115	8
87	88	15
83	83	36
50	51	7
137	137	14
84	136	1
14	15	5
5	6	12
36	36	36
46	46	29
8	8	12
147	148	14
84	168	2
67	68	9
85	86	7
151	151	3
43	44	2
155	155	18
134	134	8
3	4	9
18	19	8
107	107	28
106	107	10
49	49	23
64	69	3
44	57	9
42	42	14
135	136	8
131	131	8
75	75	26
69	69	15
86	86	13
120	120	15
20	55	2
80	81	4
78	89	7
152	153	8
136	136	19
10	11	9
91	92	11
20	49	5
18	18	21
142	142	20
125	125	11
105	106	2
81	90	2
87	87	18
2	20	4
76	76	10
9	11	3
50	57	5
5	25	1
132	132	10
100	100	13
116	116	18
1	37	2
16	52	1
112	112	13
27	47	3
17	18	10
101	115	12
148	148	10
4	4	34
6	6	11
44	44	5
128	129	15
143	149	2
153	153	8
93	93	23
113	113	13
6	19	9
12	12	12
170	170	6
121	122	11
53	54	8
21	21	14
84	84	21
166	167	2
41	41	17
92	92	13
96	98	2
47	49	4
81	82	15
47	55	1
95	96	10
64	64	13
6	17	3
7	7	16
11	11	24
4	26	3
22	22	13
69	124	2
8	13	1
14	14	15
169	170	17
15	15	15
54	55	5
168	168	6
50	50	20
119	120	5
39	46	2
53	53	29
63	63	7
19	19	12
161	161	7
108	108	26
55	56	12
3	3	23
57	57	13
73	156	4
144	152	2
8	52	2
99	99	29
4	53	10
125	126	3
7	10	4
13	13	19
11	15	1
99	100	7
112	113	5
130	130	1
95	95	13
11	13	8
79	89	3
97	98	9
78	78	15
164	164	21
125	153	2
144	145	10
63	67	5
7	8	16
28	28	9
7	65	7
74	74	7
48	48	10
165	165	10
84	86	5
112	151	1
106	106	12
123	151	2
140	141	5
64	75	3
86	87	9
133	138	1
71	72	8
90	149	1
160	162	2
161	162	6
92	94	4
35	35	14
26	47	3
3	19	3
40	40	15
98	103	4
89	89	20
38	38	24
54	167	4
28	38	7
139	142	2
105	105	14
7	54	4
85	85	6
128	128	6
141	141	6
119	119	15
93	94	4
79	79	15
100	102	5
97	97	27
26	26	15
67	67	13
81	91	2
43	43	19
9	10	4
46	47	2
73	75	5
90	91	18
2	3	3
7	9	1
27	28	7
102	139	2
102	104	7
156	156	5
103	103	13
37	38	9
158	166	4
82	83	5
90	90	16
123	123	8
34	34	24
145	155	2
76	77	8
71	71	21
71	74	2
14	17	12
135	135	11
11	53	4
162	169	1
14	23	7
114	132	1
13	15	1
23	24	5
14	54	3
169	169	12
110	110	25
39	45	4
129	129	13
5	5	12
148	150	4
123	124	9
101	102	1
156	157	2
52	52	34
107	137	2
84	126	2
145	145	7
157	158	5
61	159	3
21	22	4
45	45	16
10	69	3
72	72	12
162	162	6
97	125	2
91	91	11
154	154	13
38	48	6
111	111	21
47	47	16
96	97	4
127	127	13
41	49	1
37	56	2
9	9	9
21	53	5
25	28	2
20	54	5
105	149	8
136	137	4
96	96	11
127	138	3
88	106	1
158	159	1
4	55	2
150	150	12
40	48	6
98	98	25
38	39	2
149	150	1
78	79	9
149	149	16
19	20	2
160	161	1
94	94	9
140	142	1
71	157	3
70	70	8
51	62	2
77	77	18
150	164	2
94	95	7
84	111	1
82	82	16
147	166	1
48	52	4
73	73	19
33	33	8
8	65	4
139	139	9
42	134	3
27	99	3
2	4	4
65	65	9
92	93	5
131	133	2
41	48	4
20	21	13
158	158	14
37	49	1
133	133	10
37	48	2
111	133	1
34	35	6
79	88	4
89	90	10
15	17	2
39	114	2
152	152	7
160	165	2
117	118	3
142	143	7
103	139	1
37	52	3
20	120	2
24	64	4
117	117	13
35	36	3
106	168	2
144	144	2
140	140	12
86	114	1
109	109	17
81	85	2
89	111	1
108	109	3
101	101	15
27	39	1
42	111	3
9	21	2
111	115	4
88	88	10
44	112	2
15	53	2
58	58	3
8	12	2
97	113	3
103	104	5
92	116	1
12	13	6
57	118	3
39	40	4
124	124	1
12	71	2
15	73	2
44	45	3
0	0	11
152	162	1
112	119	7
66	66	5
162	163	4
100	101	7
2	38	6
159	168	2
109	136	1
121	121	13
131	132	3
12	23	7
42	43	2
151	155	3
73	157	7
147	147	8
1	1	3
88	89	5
74	123	1
62	62	4
11	69	3
102	103	4
64	68	4
39	44	1
13	52	3
41	42	1
4	15	2
57	63	4
19	63	1
48	49	6
104	104	19
51	52	3
167	167	7
26	27	3
18	20	8
6	7	4
114	116	1
102	113	2
67	74	3
24	25	5
87	98	2
22	23	3
114	115	5
41	57	2
2	26	1
47	48	7
3	17	3
83	150	2
2	28	3
28	47	3
113	153	4
102	126	5
26	54	3
103	105	4
113	114	5
66	67	2
23	41	6
39	47	4
3	109	4
133	135	2
5	53	2
96	99	1
104	113	1
3	18	1
118	119	3
136	138	1
8	9	4
40	46	2
13	14	4
138	139	2
114	118	4
97	99	4
136	170	2
8	66	1
75	119	2
128	141	3
161	165	2
74	75	6
42	131	2
148	164	1
72	93	2
153	154	3
90	105	2
69	70	2
70	71	4
40	41	1
120	137	1
25	82	1
49	50	1
62	63	6
76	79	6
124	151	3
91	118	2
7	66	1
25	25	13
99	117	2
124	152	3
143	143	6
157	166	5
9	12	2
98	116	4
139	141	2
156	163	2
71	110	1
147	155	1
89	124	4
33	41	4
77	79	2
67	69	2
63	64	3
1	56	1
71	112	2
24	49	2
115	118	2
143	144	5
0	1	2
98	99	2
76	86	3
168	169	5
64	65	4
36	82	3
157	157	3
6	8	2
10	12	2
132	133	3
141	142	1
33	34	2
45	46	5
5	41	2
135	170	1
167	168	2
17	24	2
130	156	1
52	64	3
70	72	1
11	18	1
40	47	1
64	66	3
38	47	2
38	41	6
127	128	2
68	68	3
24	39	1
2	53	3
6	37	2
38	40	1
145	146	1
6	24	2
71	94	1
161	164	1
41	114	1
128	136	2
20	25	2
64	105	1
151	161	2
90	110	2
6	28	3
83	130	2
89	106	3
78	102	1
114	153	2
68	159	2
116	117	2
122	123	1
111	131	2
15	72	1
124	125	2
76	89	1
56	111	1
50	58	4
163	164	2
102	111	2
82	134	1
144	154	1
78	153	1
145	152	2
123	153	2
6	65	1
80	117	2
69	71	1
18	57	1
81	111	1
48	62	1
72	73	3
43	108	1
128	130	1
144	146	1
25	26	1
12	52	1
82	111	2
79	80	1
11	74	1
91	93	1
62	120	3
0	5	1
152	160	1
72	157	3
26	33	1
77	115	2
2	6	1
63	69	3
5	54	2
18	53	1
38	113	1
82	133	1
19	64	1
150	161	1
80	118	1
39	48	1
7	25	2
120	121	2
84	85	1
15	16	1
82	108	1
52	66	1
57	62	2
68	158	1
89	112	1
18	21	2
47	132	2
141	143	1
110	111	1
126	131	1
163	163	2
137	138	3
73	74	1
2	24	1
23	44	1
56	114	3
24	47	1
11	24	1
130	133	1
7	24	1
37	57	1
91	96	2
86	96	1
115	117	1
58	103	1
37	42	1
163	166	1
52	103	1
22	24	1
33	79	1
155	156	1
141	144	1
127	141	1
87	99	1
90	92	1
127	135	1
58	120	1
105	146	1
144	153	1
19	21	1
164	165	1
23	64	1
75	88	1
114	117	1
124	162	1
5	15	1
39	41	1
24	41	1
127	131	1
111	129	1
37	113	1
54	113	1
65	105	2
92	118	1
84	102	1
95	97	1
164	166	1
8	69	1
76	151	1
137	151	1
13	18	1
119	121	1
26	42	1
75	110	1
56	57	1
