187	187	6
155	179	1
180	180	7
49	49	2
126	126	7
135	135	1
41	41	6
58	58	6
33	33	5
110	110	4
81	81	1
193	193	5
31	31	6
8	8	4
46	47	2
30	31	4
97	97	1
101	101	2
155	194	1
180	182	6
163	164	3
10	10	5
148	148	4
32	88	1
9	10	1
188	188	7
4	4	1
38	43	3
131	131	5
56	56	2
184	184	2
160	168	5
35	35	1
162	162	2
5	6	1
150	151	1
79	80	8
103	118	3
111	111	2
25	25	4
104	106	5
74	74	3
118	118	6
29	58	1
88	88	2
186	186	4
140	140	4
154	154	8
86	86	3
139	139	1
37	37	1
68	68	1
136	136	4
189	189	2
0	0	2
181	181	1
139	175	3
110	111	3
152	153	1
144	155	2
177	177	1
154	155	4
64	65	2
129	129	5
29	31	1
31	33	1
11	81	2
116	153	2
175	175	7
134	134	4
19	20	1
176	179	1
24	24	5
39	39	5
0	2	2
51	51	6
192	193	1
11	20	1
132	133	4
161	161	2
11	12	2
66	68	1
192	192	3
99	99	1
170	171	1
156	156	2
9	9	2
45	45	3
171	172	1
127	127	4
149	150	6
67	68	1
166	167	2
117	118	5
3	3	4
171	171	1
137	192	1
137	137	2
100	100	1
19	19	5
174	175	5
173	173	4
39	40	3
147	178	1
143	143	4
9	44	2
40	41	2
68	76	1
179	183	3
29	56	1
52	52	1
6	59	1
190	190	8
151	151	1
150	187	1
128	128	4
179	179	1
195	195	2
124	124	2
5	5	5
173	178	1
160	164	2
191	191	1
142	142	8
15	15	1
4	35	3
131	137	3
159	159	5
104	104	5
70	71	1
26	27	2
99	100	1
48	48	1
12	13	2
62	64	3
119	119	5
15	169	2
102	102	1
151	165	1
13	13	4
115	115	2
73	73	1
112	112	2
38	39	2
95	96	1
59	63	2
9	94	2
105	105	3
113	113	3
107	108	1
141	141	1
174	186	2
153	153	4
43	53	1
119	122	2
10	21	4
114	134	1
29	29	1
128	129	2
160	160	2
161	162	1
23	23	3
27	27	1
145	145	2
183	183	2
65	65	2
108	110	1
23	165	1
118	119	1
115	118	1
144	145	3
122	149	2
11	22	2
160	163	2
151	152	1
175	178	1
147	147	1
7	7	1
187	188	3
33	58	3
94	95	2
78	78	4
176	176	2
132	155	2
20	20	3
191	192	1
17	78	1
132	132	3
21	22	2
54	55	1
108	108	2
108	157	1
169	183	2
11	11	2
64	64	1
157	157	2
45	51	2
20	21	1
178	178	2
3	29	1
77	77	4
67	67	4
165	165	1
152	169	2
163	163	3
31	32	1
56	113	2
55	80	1
15	72	1
57	57	2
21	37	2
59	66	1
144	144	1
72	81	1
167	169	1
53	53	1
155	155	2
36	45	1
55	55	1
53	54	1
170	192	2
138	138	1
149	166	2
149	149	1
11	164	1
95	97	2
1	1	1
42	43	1
7	57	2
147	148	1
10	82	1
9	30	1
156	180	1
106	106	1
76	76	1
175	180	1
83	83	1
197	197	1
47	47	1
122	122	1
113	129	1
180	181	1
