34	34	17
113	113	18
38	39	24
75	75	15
60	64	1
63	63	13
5	5	37
14	14	34
108	108	12
40	41	11
31	31	31
103	105	3
121	121	13
63	74	1
64	64	14
33	40	1
44	45	12
21	21	14
136	136	15
113	115	2
24	24	31
68	71	5
123	123	17
12	13	24
171	172	8
76	76	30
107	109	8
173	175	3
39	40	16
145	156	1
0	0	30
161	161	11
160	160	7
36	36	36
142	143	9
142	142	14
170	171	16
148	148	18
127	128	18
30	30	39
151	175	1
56	57	9
158	158	18
3	4	21
97	97	10
166	167	9
179	179	33
53	53	25
20	20	24
25	25	27
71	88	5
4	12	5
44	44	35
39	39	75
83	107	4
26	26	34
10	10	68
84	87	4
2	2	56
6	35	3
147	148	15
87	87	21
61	61	10
118	118	11
57	59	4
18	19	23
2	3	13
51	51	11
154	155	10
29	41	2
180	180	30
8	9	21
43	45	9
129	129	8
75	76	10
86	86	7
143	145	7
126	126	10
95	95	18
80	81	8
143	143	15
94	94	13
35	36	11
111	117	9
9	9	34
168	169	9
37	37	45
167	167	29
33	33	40
128	129	3
22	22	48
59	104	1
91	91	23
132	132	13
127	151	1
107	108	11
174	174	16
81	132	6
40	40	27
17	17	33
28	30	12
136	137	8
170	170	7
66	66	13
143	144	3
151	153	14
16	18	9
161	164	8
138	138	14
82	83	5
13	41	4
43	44	20
90	90	26
1	1	28
17	44	1
65	65	26
158	159	14
131	131	13
117	159	3
32	32	51
137	137	21
139	139	14
127	127	12
153	153	10
159	160	5
161	163	5
125	126	3
25	27	3
6	9	4
42	42	32
124	125	5
29	30	3
162	162	15
15	15	37
89	89	8
58	79	3
11	13	4
18	31	1
92	92	22
3	3	18
111	112	6
6	40	3
15	42	2
102	102	13
153	154	5
16	16	55
72	72	23
23	24	11
14	16	4
58	58	16
66	67	3
6	107	3
110	111	10
141	153	7
116	127	6
149	149	14
112	115	1
147	147	22
76	78	3
108	110	3
30	31	8
21	22	6
4	5	6
35	35	30
45	46	5
80	80	11
41	42	16
106	106	16
157	160	1
146	146	22
95	98	4
19	19	51
1	10	4
62	64	4
24	25	11
162	163	3
13	13	39
78	78	7
5	18	6
38	40	7
133	170	4
99	102	4
151	164	7
51	52	6
32	33	22
6	6	20
5	7	6
139	140	17
23	23	37
14	15	9
99	99	9
117	118	10
100	100	29
7	7	22
28	28	17
33	34	6
54	54	11
3	9	3
151	151	12
171	171	8
173	173	28
67	67	23
155	155	14
27	27	26
126	127	10
141	142	8
54	55	1
18	18	23
121	135	5
36	37	9
125	125	15
169	173	2
150	153	7
43	43	23
166	166	10
93	105	2
106	107	6
28	31	6
141	141	14
153	155	4
9	10	13
55	56	26
19	20	13
6	15	5
103	104	8
37	40	4
101	101	16
23	30	2
15	16	7
21	24	1
71	72	8
50	50	12
83	90	1
176	176	23
73	85	1
157	158	6
59	60	5
29	29	30
81	98	1
12	14	4
107	110	4
37	131	1
45	45	25
36	40	4
41	41	43
118	135	6
101	102	8
131	132	5
165	165	9
59	62	4
6	7	10
79	79	15
178	178	11
72	73	2
122	126	4
133	134	6
145	145	14
141	146	1
2	7	1
84	130	2
175	175	9
116	116	8
22	50	1
4	4	36
159	161	6
122	134	2
148	149	5
122	122	7
31	41	5
6	10	1
111	111	18
8	10	3
114	114	17
31	33	7
55	55	27
77	78	11
114	115	8
138	139	5
17	21	2
50	51	12
25	26	27
159	159	13
27	28	17
112	112	22
100	101	10
59	59	22
110	132	2
68	68	15
84	86	4
65	71	3
163	163	14
37	38	25
152	152	7
2	9	4
54	57	6
135	135	10
5	6	17
129	130	5
16	17	10
54	100	1
38	38	40
60	61	11
177	177	3
132	133	9
4	7	7
86	88	1
4	8	9
119	119	10
105	105	9
124	124	6
85	88	2
32	35	2
12	12	36
120	121	13
170	173	3
176	177	3
154	156	3
8	15	5
173	174	12
95	96	9
49	51	5
73	73	23
8	8	20
133	133	13
165	166	6
34	38	4
68	89	5
49	49	3
59	61	2
140	140	11
20	22	2
37	39	3
31	39	1
110	110	7
161	162	13
151	154	7
60	60	11
2	4	15
9	18	2
23	25	4
62	62	5
132	153	3
62	63	5
144	145	2
119	120	5
81	82	8
96	98	7
63	73	8
30	40	4
17	20	3
104	104	7
5	8	5
39	41	4
83	84	3
93	93	23
80	83	4
136	142	1
90	95	3
18	21	4
103	103	14
52	52	14
99	100	7
8	18	4
6	34	2
159	164	3
154	154	13
15	18	3
96	96	7
75	97	1
10	11	8
28	29	16
114	117	2
177	178	5
98	98	11
109	109	15
91	93	3
81	81	13
31	35	3
77	77	6
36	39	7
7	13	3
37	41	1
165	167	7
56	56	13
91	92	7
169	170	7
160	161	3
167	169	3
11	11	26
119	121	4
83	86	8
172	172	19
135	136	5
156	168	3
92	94	10
121	126	5
42	43	6
88	88	28
82	110	1
108	109	6
26	28	4
156	157	8
7	10	4
5	19	5
26	27	12
19	30	3
82	82	14
130	130	4
72	75	1
150	150	9
58	60	4
29	39	3
27	51	3
16	42	3
3	12	5
91	94	8
95	97	2
5	9	3
121	122	9
34	39	8
22	26	1
150	157	6
156	167	4
141	152	1
78	79	8
17	39	3
121	125	4
10	13	1
105	108	1
27	30	3
73	74	2
83	83	11
134	134	12
29	95	1
20	21	6
57	57	19
30	51	1
157	169	4
98	99	8
72	74	7
11	12	6
146	160	2
154	158	5
76	85	3
144	144	13
55	80	2
31	32	20
85	86	6
84	84	8
143	153	2
106	108	1
26	40	6
159	168	1
96	97	12
128	128	9
25	38	1
71	71	11
122	124	4
84	88	1
113	114	6
107	107	9
84	129	6
4	9	6
8	12	1
56	60	8
27	54	3
87	103	1
146	147	4
81	133	1
30	53	3
65	66	3
115	161	3
11	15	5
13	14	9
104	106	2
143	161	4
168	168	14
174	175	2
83	85	8
16	29	2
88	104	2
102	105	2
134	142	3
2	41	1
85	85	20
152	153	3
115	115	10
79	95	2
23	26	6
65	67	1
164	164	13
145	158	2
76	77	10
7	8	9
158	163	1
74	74	8
71	74	3
17	45	3
80	87	3
172	173	5
156	156	7
152	154	3
24	39	2
53	100	5
21	45	2
137	138	1
40	42	2
160	163	2
67	109	4
145	146	7
82	94	1
109	110	5
130	131	3
118	158	5
23	29	5
86	87	2
33	36	5
85	125	1
125	140	2
4	10	4
2	13	4
169	169	12
112	114	4
104	107	2
12	20	3
4	14	1
129	163	5
157	159	1
53	54	11
141	151	2
137	154	6
30	54	1
176	178	4
157	157	6
28	50	2
155	156	3
14	20	2
123	142	3
123	124	10
117	117	9
43	46	2
10	17	5
56	80	2
91	171	2
167	168	2
3	10	3
62	107	1
81	139	3
149	159	3
101	107	3
2	19	2
120	120	9
88	116	6
140	147	2
169	174	4
79	80	7
106	109	3
19	21	2
144	146	1
150	167	4
71	76	5
9	11	2
17	18	14
62	67	1
83	87	3
100	111	3
87	90	1
13	44	1
33	35	6
76	83	1
109	128	2
93	94	8
20	32	2
134	135	4
167	170	1
113	116	3
27	29	5
128	130	5
115	116	5
65	108	2
2	10	3
52	105	4
115	120	1
15	21	1
120	168	3
76	94	2
114	125	1
22	30	1
4	15	1
119	158	3
153	164	4
52	57	1
178	180	6
79	139	1
2	17	2
64	65	6
34	35	1
82	86	2
142	145	2
24	26	5
108	111	3
83	108	3
133	169	2
105	107	3
158	160	2
12	107	2
23	27	1
98	101	1
25	29	1
1	9	6
11	16	1
143	158	2
149	167	2
0	8	1
151	152	3
140	141	6
84	89	1
22	31	1
10	18	2
7	9	5
51	100	1
0	1	3
150	168	4
148	154	1
116	118	5
42	95	2
152	155	1
160	174	1
25	39	4
160	162	6
86	94	1
150	151	3
73	75	5
179	180	2
33	39	1
167	171	2
8	11	1
22	23	7
1	2	2
7	30	1
168	173	1
14	71	3
132	152	1
2	5	4
16	21	2
105	106	6
20	30	2
31	38	2
102	103	2
61	105	3
24	29	1
79	81	1
52	53	8
41	43	6
27	50	1
24	59	1
38	41	2
18	20	5
64	72	1
100	105	1
167	174	3
52	56	1
53	96	1
98	110	2
18	30	2
134	137	2
12	15	3
15	66	2
131	153	2
172	174	3
3	5	3
84	85	2
16	111	2
17	145	1
74	75	2
117	121	1
1	6	2
174	176	2
144	165	1
163	164	4
90	91	4
130	132	1
16	19	1
80	82	2
22	67	4
150	164	1
73	102	1
138	161	2
7	44	1
65	109	1
162	165	1
3	7	1
153	156	1
58	104	2
2	6	1
28	41	3
29	31	1
146	157	2
60	105	2
143	155	1
90	93	3
112	113	3
117	119	1
159	170	2
97	98	1
98	111	1
16	20	5
144	157	1
22	24	2
136	138	3
35	38	2
105	110	2
63	64	1
85	130	1
70	77	2
177	180	2
73	106	1
162	170	3
162	164	2
24	36	1
129	131	3
61	76	2
159	174	3
169	172	2
149	150	3
44	95	1
51	53	3
116	125	1
94	103	1
67	75	1
7	14	1
55	57	1
37	51	1
57	79	2
29	42	1
142	151	1
22	25	2
2	18	1
50	52	2
65	104	1
134	136	1
86	92	1
127	133	1
24	28	2
111	113	1
133	148	2
57	110	1
120	152	2
52	54	1
3	15	3
165	168	1
72	99	1
175	176	1
114	116	3
32	34	2
2	20	1
88	89	1
127	132	1
8	16	1
88	127	1
65	68	4
155	157	2
43	118	1
93	135	1
131	149	1
58	59	2
25	28	3
30	39	1
104	105	4
170	174	1
129	152	2
129	132	3
49	50	2
60	62	1
80	106	1
61	106	1
98	100	2
70	70	1
14	17	1
153	178	1
3	8	1
68	70	1
169	175	2
4	42	2
78	80	1
153	172	1
124	134	1
75	77	1
20	33	1
30	50	2
62	108	1
151	174	1
42	45	1
62	71	1
22	28	1
132	163	1
64	81	1
37	43	1
11	32	1
58	93	1
10	16	1
15	25	1
136	141	1
35	37	1
110	122	1
83	93	1
46	46	1
94	95	1
155	167	1
145	163	1
159	176	1
5	10	1
62	73	1
