3	3	10
92	92	3
24	24	4
132	132	12
80	80	10
80	128	3
74	74	11
102	102	11
72	91	6
112	112	9
106	106	5
41	43	3
8	72	3
40	46	1
69	69	10
87	87	4
14	14	3
27	106	2
13	56	5
71	71	14
62	63	3
76	81	1
1	1	8
11	11	5
7	7	3
19	19	7
50	123	2
0	0	5
6	6	17
80	100	3
59	62	8
131	131	2
40	54	2
38	38	6
29	29	7
54	54	10
44	45	6
114	116	2
43	43	5
76	76	12
78	80	4
48	48	14
114	114	6
95	95	10
26	26	10
65	82	2
55	55	3
67	67	2
72	73	5
14	15	8
127	128	5
45	45	13
57	57	11
107	107	10
22	22	11
46	92	1
78	78	6
47	47	10
83	84	5
93	93	4
90	91	10
2	2	10
60	60	5
102	103	4
48	49	1
33	33	10
16	19	1
31	31	4
105	105	7
41	44	1
91	105	2
44	44	11
89	89	8
46	46	14
8	8	1
71	72	1
122	122	7
97	101	5
28	42	4
70	93	4
104	111	4
56	66	1
97	100	4
70	88	2
65	65	2
8	10	2
78	79	2
69	71	6
41	42	3
68	68	4
103	103	9
126	126	7
94	113	2
27	28	5
47	53	1
79	79	7
15	15	9
97	98	4
0	1	1
53	53	9
15	21	2
10	11	3
82	82	11
52	53	3
70	71	9
101	101	7
86	86	5
48	133	2
68	74	2
119	119	15
101	103	2
8	50	1
101	102	6
50	57	3
108	108	7
28	29	9
52	52	9
120	120	5
39	40	4
31	32	5
94	106	3
115	115	5
4	4	6
66	66	3
16	17	5
11	54	1
93	94	1
26	27	3
111	111	5
51	122	2
16	47	4
129	131	3
27	27	8
6	7	2
67	102	2
25	25	3
34	34	4
30	30	11
96	96	5
12	12	2
117	118	6
105	106	2
16	16	5
110	110	8
121	121	6
63	63	9
73	73	6
100	101	4
29	89	2
56	57	3
125	125	5
64	78	1
56	56	8
59	59	4
127	127	5
124	124	5
75	75	4
46	54	2
41	41	3
43	61	5
40	41	4
20	110	4
125	127	2
28	39	1
49	49	8
131	132	4
43	106	2
39	39	4
72	72	2
17	18	4
17	20	1
13	13	13
5	5	7
60	61	2
40	40	4
77	78	2
99	103	5
108	120	1
76	82	1
96	112	1
30	41	4
88	88	8
75	76	1
58	58	8
55	62	1
111	122	1
76	105	2
23	24	2
106	120	1
115	118	2
57	71	2
45	48	4
56	58	2
18	70	1
14	40	2
116	121	1
128	128	3
98	130	1
16	24	1
115	116	4
42	42	9
126	128	2
37	37	1
68	107	2
109	110	3
2	4	3
98	99	1
95	96	2
2	6	1
85	85	2
43	46	1
91	92	2
51	51	3
72	121	6
42	43	3
83	83	6
84	84	2
94	94	1
72	90	1
17	17	5
104	105	3
129	129	1
62	62	6
13	25	7
66	97	2
109	109	2
95	125	2
70	70	2
106	108	2
33	34	1
86	88	7
65	71	1
133	133	3
68	69	1
8	9	2
71	75	2
98	119	3
130	130	7
14	22	4
76	89	1
18	18	1
21	21	1
76	109	2
28	32	3
53	54	3
65	66	3
90	90	3
116	117	3
118	120	2
32	32	3
77	77	6
92	104	1
20	20	4
116	128	2
43	44	1
79	95	1
118	119	2
73	74	1
13	85	1
21	23	2
3	4	1
110	111	2
69	70	5
123	123	6
74	103	1
19	42	2
85	86	2
20	94	2
99	100	1
9	50	1
97	117	5
63	66	4
9	9	1
118	118	2
94	118	1
116	116	5
22	23	2
4	5	2
106	121	1
118	125	1
127	129	2
50	50	6
63	64	1
106	132	2
107	120	1
11	30	2
23	23	2
12	57	1
46	47	1
4	16	1
11	51	1
10	10	2
97	97	1
113	113	3
83	85	2
117	117	1
76	106	1
8	28	1
84	85	1
58	117	1
69	109	1
28	30	2
62	91	2
77	108	2
94	111	1
22	24	1
15	19	1
112	122	2
80	82	1
77	107	1
72	81	1
10	12	2
19	20	1
114	118	1
78	95	1
7	16	1
120	121	1
5	6	2
12	88	1
37	38	1
98	98	1
93	116	1
121	122	1
39	59	1
55	56	2
15	18	1
57	110	1
91	104	1
126	127	1
97	102	1
72	104	1
60	77	1
