8	8	2
11	11	10
157	157	4
116	124	2
155	155	8
87	112	2
25	29	3
34	69	1
85	85	4
138	138	5
108	108	10
23	24	3
105	106	2
68	68	4
132	133	5
56	61	2
1	1	9
135	136	5
126	126	3
75	75	9
37	38	2
15	15	2
55	56	2
77	82	4
50	51	9
85	90	3
124	125	2
77	79	6
86	86	8
119	119	4
134	134	10
112	112	6
27	29	6
48	48	3
50	69	1
27	27	8
136	136	6
123	123	2
10	10	2
103	103	6
123	124	2
40	40	5
121	121	2
67	69	1
142	142	4
8	10	9
93	96	4
16	53	3
18	18	9
79	79	6
118	125	1
93	93	16
8	19	6
22	25	3
85	86	2
29	31	3
92	92	5
114	114	6
151	151	4
96	96	4
126	127	3
88	90	10
84	84	3
78	79	1
128	129	2
117	117	3
112	113	3
93	116	1
122	122	7
100	100	4
111	111	14
148	148	8
143	144	1
82	82	9
39	39	3
56	56	5
94	142	5
137	142	3
101	101	10
24	27	1
115	115	5
20	20	5
70	89	2
45	46	5
29	29	4
118	119	2
96	97	6
31	31	5
28	28	5
79	83	2
3	3	5
54	54	2
40	41	2
64	71	4
63	63	5
69	126	2
140	141	4
66	66	5
65	65	6
55	55	5
18	19	4
93	95	2
13	19	2
46	46	5
136	137	2
78	80	1
64	69	1
18	20	2
44	44	5
115	116	3
25	26	7
36	40	3
35	35	1
139	151	6
75	83	1
41	41	2
139	139	6
16	16	3
37	37	3
8	115	3
137	138	2
32	32	2
0	0	9
100	101	2
12	81	1
23	23	3
130	130	4
42	45	2
104	104	2
14	15	1
14	14	8
57	61	3
94	94	8
149	149	4
140	140	5
125	125	1
128	128	10
145	145	2
152	153	2
12	87	1
66	103	2
83	83	5
71	71	4
44	45	3
123	126	1
90	90	4
78	78	2
51	137	1
76	78	6
50	55	2
73	73	4
20	21	1
153	153	7
88	89	3
49	49	6
22	22	3
2	4	2
26	27	7
140	151	2
47	47	4
147	150	2
129	130	4
68	71	3
20	71	4
30	31	3
106	107	4
38	39	3
11	75	3
135	135	3
50	50	4
17	17	7
17	18	5
30	32	1
23	26	2
116	117	1
21	69	2
93	94	3
156	157	9
5	5	3
9	9	2
88	88	3
17	19	2
135	138	2
25	25	1
141	141	8
16	17	3
124	126	2
144	144	4
43	43	8
145	147	3
68	70	2
87	96	1
69	69	4
81	83	2
6	6	2
150	150	3
99	99	3
100	127	1
45	47	2
107	107	5
83	116	1
147	147	2
139	140	3
105	107	1
34	34	2
109	115	1
52	136	4
29	54	1
54	119	1
7	7	4
116	116	3
38	44	2
62	64	1
83	84	2
15	16	1
14	70	1
138	141	1
89	90	1
50	134	1
31	47	1
51	51	1
80	80	4
94	95	2
117	120	2
8	15	1
40	134	4
31	32	1
19	19	3
21	22	1
130	131	2
12	13	3
77	78	1
36	37	2
110	138	1
108	112	3
152	152	7
77	77	2
106	106	4
35	53	3
65	87	2
137	156	3
13	14	1
155	157	2
64	77	2
21	71	1
7	19	3
91	91	7
75	107	1
140	150	2
134	137	1
67	67	3
92	93	1
12	15	1
7	77	1
57	68	1
24	135	2
118	118	1
3	4	2
117	119	2
143	143	3
54	149	2
127	127	3
134	138	1
146	147	3
17	73	1
85	87	1
1	5	1
82	96	2
5	18	2
98	98	5
109	111	1
111	112	2
70	70	2
79	80	1
52	53	2
120	120	3
13	13	5
146	146	2
104	105	1
34	118	1
87	87	4
140	142	1
90	92	2
119	120	1
56	67	2
63	68	2
69	70	2
42	42	1
4	19	1
115	117	1
124	124	1
154	154	1
126	152	1
45	45	2
156	156	3
23	31	1
80	134	1
123	141	1
128	130	1
33	119	1
30	30	1
52	54	3
92	125	2
90	91	2
12	85	1
151	152	1
81	81	1
115	124	1
67	71	2
119	122	3
8	20	1
147	149	1
131	131	1
37	46	1
142	143	2
79	127	1
19	76	2
152	154	3
89	89	3
95	95	3
141	147	2
28	29	1
0	72	1
133	133	3
80	116	1
121	143	1
108	117	1
28	137	1
53	137	1
132	150	1
101	102	1
24	24	1
102	103	3
44	133	1
13	76	1
39	136	1
33	34	1
110	110	1
68	90	1
85	103	1
5	80	1
3	49	1
120	121	1
125	155	1
87	92	1
129	129	2
7	11	1
105	108	1
123	146	1
55	147	1
2	2	1
99	100	1
105	105	1
7	55	1
27	78	1
26	26	1
64	64	1
6	8	1
7	8	1
109	121	1
148	149	1
