134	139	3
124	125	2
40	40	8
149	149	5
137	137	4
54	54	6
29	29	7
182	183	5
31	32	3
91	124	2
142	143	3
154	154	7
87	87	2
128	128	8
122	122	2
141	141	13
97	97	8
49	86	3
61	81	3
3	3	6
96	96	4
17	19	4
77	77	18
163	163	9
5	53	1
120	146	4
13	14	7
17	22	1
145	145	3
168	168	2
140	140	9
83	86	2
57	74	3
104	104	4
36	37	9
148	149	4
176	176	7
82	95	5
139	139	13
68	68	10
91	91	3
107	107	1
11	12	4
6	6	6
15	15	8
184	184	3
67	70	2
18	18	1
126	126	1
61	62	1
46	49	4
32	33	3
190	190	4
111	111	4
83	84	5
155	155	7
62	62	6
66	66	2
7	7	6
136	136	5
183	183	4
140	141	3
44	46	4
90	90	6
39	39	8
5	5	5
28	28	2
147	147	4
155	156	3
33	41	4
63	63	1
71	71	7
77	84	2
110	110	8
125	152	3
135	136	1
66	67	2
167	168	3
88	88	5
136	137	2
72	72	2
103	129	1
120	120	3
19	19	4
109	110	3
129	129	7
138	139	1
150	150	7
1	2	1
43	111	2
153	153	12
56	56	8
144	147	1
151	151	8
36	36	4
158	160	5
185	187	3
91	126	1
74	75	5
185	185	4
53	58	2
20	21	1
90	103	2
22	22	3
159	186	3
14	14	6
186	186	2
99	131	5
186	187	4
161	182	1
11	11	2
67	68	1
188	188	3
165	165	4
103	103	9
150	151	3
171	171	1
21	21	2
125	125	9
106	106	7
131	131	1
152	152	1
1	1	2
158	161	3
5	18	3
114	115	2
30	30	1
58	58	4
34	35	6
30	31	9
158	158	3
26	26	5
31	41	1
173	173	5
10	35	2
132	132	1
2	2	6
65	68	4
139	143	4
18	72	2
46	47	5
172	175	1
83	83	1
94	94	1
23	23	2
142	142	4
82	82	3
102	102	1
66	70	1
113	113	7
95	96	6
123	123	7
30	54	3
70	70	2
17	17	2
25	36	1
146	146	1
5	37	1
78	78	3
129	170	2
33	33	1
48	49	1
76	76	5
121	121	3
16	17	4
53	53	2
47	47	6
169	170	2
49	49	1
63	64	2
175	175	3
88	89	4
119	120	3
55	66	1
31	54	3
138	142	1
10	11	2
174	174	1
21	81	2
183	187	1
128	153	1
74	74	2
33	34	3
166	167	2
25	25	3
89	91	1
181	181	3
57	57	4
89	89	6
109	137	1
8	8	3
101	101	2
96	99	2
177	177	4
38	47	4
82	83	3
111	112	3
55	68	2
118	119	1
89	90	1
144	144	5
84	89	2
12	12	4
84	130	1
15	16	3
45	45	1
60	60	1
73	73	5
109	109	3
126	127	4
42	43	1
44	44	4
61	61	5
119	119	1
139	148	1
59	93	1
11	35	1
65	67	1
157	158	1
75	75	2
85	85	2
147	148	2
95	99	1
187	188	1
76	84	1
30	33	1
11	13	1
30	32	1
74	89	1
28	53	1
12	14	1
124	124	2
79	80	1
92	151	2
164	164	1
27	48	2
42	42	2
18	73	2
65	66	1
102	103	1
119	148	2
168	176	1
32	32	1
86	86	2
93	93	2
151	153	2
112	112	2
148	160	3
59	59	3
46	46	3
93	94	1
177	184	3
130	134	1
156	158	3
120	148	1
90	128	1
94	107	2
65	65	3
81	81	2
70	74	2
112	113	1
64	66	1
109	138	2
45	109	1
13	13	1
34	47	2
100	100	1
73	81	1
138	151	1
111	113	1
14	16	3
38	38	2
147	174	2
169	184	2
66	112	1
98	98	1
80	81	1
37	37	2
12	13	1
4	4	1
141	142	1
155	163	2
170	177	2
16	16	1
55	55	1
98	150	1
24	24	2
151	176	1
56	57	2
71	105	1
130	130	1
97	98	1
17	18	1
143	174	1
151	166	1
93	102	1
101	135	1
13	25	1
159	159	1
125	126	1
167	167	1
38	39	1
35	36	1
85	86	1
