69	70	3
191	192	9
79	82	1
69	69	5
216	233	4
57	57	7
46	150	1
167	167	10
157	158	7
64	68	4
46	46	8
27	32	3
67	67	3
51	62	3
204	235	1
176	176	10
239	239	7
108	108	2
195	195	3
209	211	2
5	5	6
50	60	7
189	189	4
36	151	5
161	161	6
190	190	10
105	105	7
202	204	3
165	165	1
86	86	5
150	150	12
162	163	5
193	204	2
244	247	1
151	167	5
212	212	7
158	168	3
215	215	11
223	223	6
43	43	6
159	159	9
95	95	3
231	231	9
14	42	3
2	20	1
194	194	6
98	98	3
87	89	4
34	60	4
230	231	3
49	63	4
19	39	3
51	81	2
187	247	2
113	113	6
244	244	3
105	106	2
245	245	4
79	79	1
200	200	6
114	114	7
3	10	3
58	103	3
151	151	5
77	77	3
40	41	2
177	177	9
90	90	4
242	248	2
211	211	11
202	219	5
45	45	11
70	70	6
171	209	1
52	53	2
234	234	4
210	210	4
18	18	7
174	190	3
3	6	1
220	220	7
175	175	7
51	54	3
29	29	4
187	187	5
31	114	3
156	156	12
221	221	2
247	248	3
64	244	2
183	183	5
26	26	7
234	235	6
218	233	5
174	175	7
74	99	3
166	171	4
48	63	2
111	115	2
54	55	6
213	213	3
73	73	8
61	66	3
177	182	4
32	32	5
54	54	4
146	147	1
96	96	4
64	64	4
80	80	6
47	47	2
8	8	6
199	199	6
197	197	5
235	235	3
46	117	2
163	163	4
22	22	5
204	204	2
52	113	2
44	52	2
246	247	6
37	60	3
159	160	8
152	152	5
183	215	3
39	39	7
107	107	5
7	7	10
3	31	1
74	75	5
44	44	7
52	52	3
111	111	3
196	196	7
209	209	7
0	7	1
102	103	2
239	240	6
119	119	5
59	68	4
236	238	1
193	194	3
114	115	1
81	245	4
34	34	7
65	65	2
150	220	3
63	63	5
171	175	1
56	57	3
19	21	2
179	179	1
110	110	8
102	102	5
187	189	2
182	183	3
196	204	1
218	241	3
243	243	2
190	191	3
14	14	2
17	17	1
227	227	3
63	70	2
160	160	2
31	60	5
89	89	8
234	237	1
96	97	3
16	16	8
18	164	1
186	186	8
143	163	2
170	171	6
58	58	2
28	28	6
11	11	1
10	16	4
207	207	2
116	149	2
191	191	9
201	201	5
174	179	2
175	177	3
187	241	3
232	232	1
178	178	1
34	35	2
184	188	2
97	97	5
70	104	1
167	211	1
100	100	3
69	91	2
222	222	8
75	99	1
87	87	2
24	24	3
98	99	2
230	244	1
103	103	1
16	88	2
116	116	8
38	38	2
230	230	4
202	202	2
16	17	1
197	198	6
150	184	2
218	218	3
176	177	1
228	229	1
120	120	4
240	244	1
94	94	3
200	201	4
208	209	4
34	50	3
73	83	2
241	242	1
173	173	5
214	215	4
236	242	1
214	214	5
51	51	2
17	19	3
22	156	2
88	89	2
76	78	1
6	6	2
248	249	4
64	209	1
167	224	1
61	62	4
247	247	3
55	90	2
40	42	1
158	162	2
41	45	2
66	66	6
190	192	3
2	21	1
99	101	5
86	107	2
34	66	2
184	215	3
62	62	2
71	71	4
5	35	2
79	80	3
59	59	1
186	197	3
182	182	3
94	95	2
210	248	2
169	169	4
216	247	1
60	60	4
98	100	2
210	211	2
7	204	3
45	116	1
211	221	2
198	198	2
45	65	1
174	174	3
158	158	1
59	80	5
36	36	2
72	225	1
4	49	4
237	239	4
98	116	1
59	224	1
241	248	1
217	217	7
155	155	4
154	185	1
224	224	2
194	196	2
200	212	2
193	193	4
211	212	1
149	149	1
5	18	1
42	42	1
85	85	6
213	248	1
63	67	1
78	90	1
164	164	4
241	245	2
19	19	6
226	226	3
203	204	1
112	114	1
3	5	1
99	99	2
203	203	4
175	176	1
20	20	1
240	240	3
59	61	2
153	153	2
172	173	3
166	166	5
233	238	1
181	181	2
48	48	2
174	210	3
152	182	2
165	166	1
14	15	3
23	23	1
233	233	3
238	238	5
102	104	1
28	32	1
41	41	2
116	154	1
242	242	6
50	50	2
180	181	1
209	245	1
201	207	3
74	74	1
162	162	1
169	177	1
117	118	6
86	112	2
154	154	2
232	239	1
21	21	8
208	246	1
241	241	3
45	93	2
62	70	1
194	195	1
233	239	2
155	156	2
53	53	1
56	56	2
215	219	1
47	49	3
95	97	1
4	18	2
74	80	1
19	38	1
59	60	1
157	173	1
212	220	3
8	23	3
73	102	1
4	50	2
18	33	2
173	174	1
2	5	2
4	4	2
49	49	5
114	151	2
196	203	3
179	212	1
37	114	2
49	50	1
60	90	1
84	84	3
91	91	2
160	171	3
40	40	1
7	8	1
170	170	1
76	76	2
187	192	1
223	224	3
65	66	2
37	37	1
221	230	1
168	168	2
35	35	2
180	205	2
31	31	1
60	61	1
164	167	1
192	192	2
217	244	2
48	246	1
154	167	1
219	240	2
86	116	2
117	117	4
184	199	1
58	71	2
184	197	1
216	217	1
219	220	1
6	7	1
182	214	1
157	163	1
1	2	1
147	238	1
225	226	1
2	2	1
171	195	1
109	109	2
233	234	1
249	249	1
191	193	1
99	100	1
189	222	1
186	212	1
84	85	1
9	9	2
30	30	2
201	229	1
7	9	1
4	115	1
189	190	1
70	71	1
186	188	3
106	107	1
177	179	1
57	58	1
81	82	1
168	183	1
205	206	1
169	170	1
244	245	1
42	43	1
24	205	1
76	104	1
142	142	1
110	120	1
110	111	1
75	91	1
173	207	1
172	172	1
153	224	1
181	183	1
206	207	1
197	212	1
59	231	1
82	82	1
184	185	1
23	26	1
