71	72	12
127	127	6
101	115	4
139	139	13
3	4	15
59	60	5
81	84	3
48	48	17
140	140	19
51	51	15
102	103	14
88	88	11
130	130	29
108	118	5
2	3	12
12	12	18
113	113	12
75	87	5
54	54	5
19	19	14
108	109	2
118	119	4
25	26	5
114	114	14
117	118	7
99	100	8
134	134	15
25	25	11
14	14	11
69	69	16
67	68	6
79	82	7
28	28	20
16	16	9
5	6	10
26	26	24
121	127	1
27	28	3
24	24	14
15	15	14
30	30	16
1	3	2
95	95	23
87	106	2
86	86	8
64	64	7
64	66	7
60	60	11
28	31	2
20	21	4
23	36	5
53	53	23
32	32	15
8	8	21
133	133	14
48	71	1
100	101	6
1	1	10
10	11	8
65	66	9
78	104	2
137	137	8
96	96	19
66	67	8
11	11	13
74	75	8
17	17	16
16	20	2
138	139	6
18	22	6
121	126	1
15	16	5
120	121	2
113	120	1
81	83	2
101	102	12
91	91	3
19	75	4
16	29	5
81	81	9
90	90	14
110	111	4
23	25	3
121	121	16
43	43	6
79	79	7
62	64	2
145	146	2
80	80	8
142	142	12
135	135	15
141	142	4
21	99	3
36	38	3
32	33	14
124	124	19
8	9	2
139	140	13
144	144	11
106	106	2
125	126	11
70	71	17
87	87	20
61	71	4
96	110	2
107	108	2
67	67	10
100	104	3
119	119	21
61	62	11
50	50	21
19	96	3
132	132	10
59	59	11
71	71	16
2	2	2
21	22	8
108	108	10
94	95	5
105	106	7
93	93	10
126	126	11
100	100	9
75	75	12
91	92	9
107	107	13
124	126	5
120	120	14
35	35	10
145	145	10
37	37	19
122	122	10
2	6	4
6	28	3
66	66	13
18	120	2
39	39	14
70	70	22
79	81	6
76	76	11
42	43	6
37	38	7
118	118	6
5	5	11
94	107	3
33	33	16
114	137	5
123	123	18
31	31	7
10	29	3
125	133	3
42	59	3
138	138	12
42	42	10
80	112	5
17	75	1
24	141	2
134	135	10
115	137	1
9	16	1
129	129	24
98	104	10
94	98	2
77	78	3
95	117	1
19	94	4
31	32	5
92	92	10
88	89	7
77	79	10
117	124	2
22	22	16
29	29	19
104	104	15
83	89	3
110	112	7
142	143	5
128	128	16
89	90	7
96	108	3
4	4	8
23	23	16
28	29	9
68	69	7
18	20	7
47	47	11
14	18	1
9	26	4
117	117	12
4	5	2
126	128	2
87	88	7
94	94	13
61	61	15
10	10	11
23	27	10
22	24	1
94	96	2
76	103	1
48	72	4
80	85	3
49	71	2
93	94	5
102	102	9
22	27	3
87	103	7
114	115	10
74	74	15
120	127	2
131	131	17
47	49	6
99	102	8
101	101	19
119	127	4
49	53	2
6	6	9
62	62	13
127	128	3
141	141	8
27	27	10
13	14	6
11	27	3
84	84	10
124	130	5
75	105	2
120	124	11
112	112	9
123	124	3
97	98	3
72	72	7
9	9	10
72	73	7
108	117	5
63	64	5
31	33	1
91	102	2
131	132	10
17	20	2
125	129	8
128	129	8
98	98	11
95	96	8
99	110	2
119	120	11
41	42	2
40	40	7
67	69	2
21	21	8
131	134	9
55	75	5
55	55	6
110	110	19
56	56	8
19	26	1
136	136	7
68	70	1
17	19	2
57	57	5
116	116	6
18	18	31
52	52	10
19	20	3
66	70	1
83	85	6
115	115	17
129	131	4
14	15	4
109	109	10
126	130	4
89	89	5
141	143	6
0	0	14
20	20	12
62	71	3
33	34	3
99	99	19
87	89	9
38	38	7
38	39	7
16	17	10
58	59	3
106	110	3
39	40	6
42	89	2
26	140	4
78	106	3
116	117	3
90	91	4
103	103	13
52	53	3
18	21	3
115	117	4
91	94	6
75	106	1
63	75	3
75	91	4
21	24	1
42	71	1
49	57	2
125	125	10
101	134	3
82	82	10
23	24	16
105	105	1
81	105	1
121	128	3
92	100	1
85	87	1
121	123	1
85	85	5
73	74	3
41	41	6
17	18	2
100	106	3
102	104	2
80	117	1
49	49	9
24	25	2
115	138	5
51	52	3
79	84	1
103	110	1
50	67	1
76	112	5
83	84	4
34	35	1
58	66	1
80	81	5
97	97	4
56	57	4
93	98	1
97	109	1
97	118	5
125	127	2
55	56	3
101	103	2
77	85	2
50	51	1
129	133	2
77	77	13
30	31	5
112	126	3
109	115	2
114	118	4
15	18	1
2	4	5
79	111	3
109	110	2
49	69	3
75	76	2
119	129	1
88	104	1
110	127	1
96	118	1
15	34	2
96	99	1
113	126	4
6	29	2
71	73	1
104	110	5
58	58	3
22	36	2
22	23	6
8	138	6
26	29	1
146	146	6
78	86	6
57	63	1
39	119	1
96	97	6
36	36	6
79	80	1
68	68	14
143	143	9
37	39	1
81	82	2
13	13	7
137	138	1
26	28	2
13	36	3
94	116	1
62	79	2
115	118	3
86	87	2
13	91	1
77	120	1
19	21	2
17	125	2
90	101	2
27	29	1
138	141	1
60	69	1
28	32	4
8	23	2
60	65	2
28	33	1
76	77	5
6	32	3
98	109	2
92	93	2
27	140	1
58	60	1
128	130	1
64	65	2
21	121	1
19	23	1
49	68	2
62	63	5
64	67	1
73	73	6
13	15	5
49	54	1
92	97	2
90	103	5
63	63	5
2	5	2
62	123	3
111	112	4
75	90	2
120	123	3
20	121	3
9	10	1
3	3	4
43	48	2
90	102	2
107	110	1
116	118	2
50	68	2
1	2	4
127	129	2
15	29	1
47	66	2
57	64	3
12	13	3
88	90	1
18	26	2
78	119	1
36	37	1
133	134	3
122	123	3
136	138	3
74	106	3
77	113	1
51	66	1
86	114	1
78	110	3
129	132	1
105	107	4
78	78	1
13	16	1
59	61	2
30	33	1
48	54	2
120	126	3
1	6	1
110	119	1
140	141	1
21	122	2
83	83	2
12	136	5
132	133	2
6	26	2
69	70	2
63	119	2
77	128	4
65	65	1
78	79	2
139	141	1
24	26	1
112	119	1
63	120	2
17	95	1
112	127	2
66	79	2
80	129	1
113	114	1
81	112	2
6	33	1
108	116	1
10	25	1
136	139	1
38	41	3
125	134	2
2	32	1
8	26	2
26	27	2
15	19	1
98	101	1
126	127	2
95	98	1
125	130	1
78	85	1
77	81	1
49	50	2
85	106	2
124	129	2
18	19	1
100	102	2
81	127	1
25	29	1
34	36	2
19	102	2
140	143	1
90	107	1
30	32	1
112	113	1
15	87	1
130	133	2
0	1	1
49	66	1
109	118	1
40	41	1
16	89	1
81	128	1
93	97	1
21	100	1
73	89	1
113	127	1
54	55	1
13	35	1
