187	187	33
50	50	24
134	134	17
164	165	4
171	171	20
73	73	7
147	148	2
158	158	9
124	124	30
136	137	6
194	195	13
128	128	29
152	152	7
2	2	8
153	154	4
68	87	8
181	182	5
172	172	31
15	16	7
24	24	19
174	177	5
169	171	3
16	16	18
167	167	11
40	41	3
74	77	1
113	113	22
133	133	15
5	5	10
4	5	6
63	63	9
176	177	17
47	47	18
13	13	26
20	20	3
165	166	11
48	48	22
137	137	22
41	42	9
112	112	27
197	197	15
14	14	20
190	191	4
168	168	13
94	94	6
73	74	4
170	171	6
116	117	7
191	192	5
97	99	3
4	4	23
181	181	18
183	184	10
21	21	8
58	58	10
176	176	12
25	25	13
139	139	15
62	63	2
32	32	9
64	64	2
93	97	2
9	24	2
162	163	10
45	45	31
116	121	4
160	160	17
166	166	13
37	37	6
69	69	8
12	12	36
189	189	24
99	100	5
115	115	3
99	99	9
175	175	22
127	127	18
15	15	21
19	38	2
66	66	6
160	165	2
52	52	41
12	13	4
70	70	14
188	189	7
46	47	14
33	34	4
38	38	8
143	145	2
172	174	1
102	105	4
114	115	7
183	183	8
26	26	5
193	193	27
174	174	9
88	88	8
184	184	12
188	188	22
33	33	19
154	154	35
43	43	20
170	170	19
132	133	5
102	103	2
100	100	5
158	159	5
175	177	1
43	45	3
185	186	10
89	89	2
186	186	28
138	138	12
46	46	10
87	87	4
96	100	1
119	122	4
161	178	2
170	190	2
6	8	4
187	188	20
142	142	10
143	144	9
190	190	11
55	55	6
122	122	18
86	87	6
125	125	5
117	117	5
121	121	1
156	186	3
77	78	4
32	33	2
163	163	9
13	14	10
83	86	3
153	153	6
179	179	4
195	196	5
129	138	6
156	156	8
7	7	12
141	152	1
65	65	7
192	192	8
111	112	7
141	141	29
156	157	8
105	106	7
94	97	1
153	158	2
13	44	2
31	31	16
9	10	5
83	84	7
119	119	11
177	178	3
60	60	2
97	97	10
24	25	6
145	146	7
134	135	15
108	108	10
144	144	14
16	29	2
110	119	1
58	63	2
185	185	28
3	3	4
56	56	27
78	81	2
106	107	7
170	194	4
61	61	2
152	172	1
146	146	4
196	197	2
16	36	2
89	90	1
9	9	25
28	28	8
7	73	3
13	16	2
151	151	24
148	148	16
7	38	6
60	65	3
11	13	6
11	12	7
59	61	6
43	44	2
170	172	5
109	109	2
139	140	13
108	111	3
44	44	12
103	103	14
16	20	1
124	125	15
109	110	8
2	6	3
151	152	6
135	137	2
95	95	3
123	123	13
104	105	7
108	110	6
113	122	3
129	129	20
75	79	2
140	141	4
96	104	3
131	131	6
83	83	3
135	135	6
10	47	2
151	160	3
20	21	8
150	150	18
142	143	6
169	169	23
63	87	5
25	29	3
36	37	6
173	176	6
102	102	7
157	157	14
22	23	5
61	62	2
34	35	5
123	124	7
196	196	16
106	106	9
34	34	4
124	127	2
118	118	4
68	68	8
27	27	15
167	168	5
172	189	3
51	51	17
105	105	2
8	8	4
149	149	29
126	133	2
165	165	5
66	71	1
54	54	14
65	69	3
179	180	7
59	59	9
21	23	4
186	187	6
60	61	3
72	72	6
182	182	11
49	49	13
116	118	6
36	36	6
163	165	1
167	197	2
7	8	3
42	42	22
52	53	6
2	7	2
158	176	2
195	195	10
57	57	15
121	122	1
17	17	9
64	65	3
127	128	8
111	111	13
94	108	1
62	62	3
0	0	9
79	83	2
114	114	9
193	194	5
107	107	12
11	11	21
73	77	3
147	147	3
53	53	9
16	17	4
57	59	3
110	110	10
194	194	25
3	5	1
102	104	3
93	94	2
22	25	2
160	180	3
168	170	1
177	177	16
61	77	1
140	140	12
29	29	3
154	159	2
189	193	3
169	192	2
154	155	12
6	6	6
160	172	4
137	138	6
80	88	6
86	86	3
9	11	2
78	78	4
169	170	11
122	130	3
45	46	2
77	77	6
185	187	3
6	7	3
81	81	9
180	181	1
148	149	4
87	88	4
160	161	2
174	176	8
33	44	2
159	159	22
30	31	7
21	41	2
140	166	1
142	149	2
115	117	5
85	87	2
15	40	2
33	37	8
125	127	4
101	116	1
185	188	7
82	86	1
16	32	3
2	26	2
136	136	15
5	40	4
106	108	3
149	150	1
192	193	3
123	125	3
11	41	2
137	164	1
190	192	5
56	57	5
113	115	1
11	31	1
25	26	4
33	38	3
107	111	3
10	10	19
51	52	5
5	8	4
101	101	8
37	38	4
23	24	4
132	132	5
14	15	4
44	55	3
54	56	5
152	156	3
184	185	3
54	80	1
84	84	2
39	40	6
72	73	9
29	31	6
81	86	2
10	46	2
5	6	4
44	45	6
69	70	5
130	130	11
145	145	10
153	160	1
168	169	10
105	107	4
10	12	3
63	78	1
126	126	5
3	4	2
20	23	2
34	166	2
168	180	3
80	81	3
19	32	3
18	18	4
85	86	1
1	5	1
15	32	1
34	36	5
174	175	5
28	29	1
78	80	3
65	67	3
80	80	4
139	141	5
67	68	3
129	135	2
74	74	2
112	113	3
161	163	4
133	134	3
42	43	3
96	97	3
155	165	2
5	11	3
160	170	2
161	161	6
117	118	2
179	190	2
3	21	4
55	57	1
42	45	1
64	67	4
62	78	2
189	194	3
35	38	3
118	119	5
173	173	10
80	87	5
31	33	3
95	96	1
161	165	3
161	180	1
58	72	1
98	98	1
100	101	7
115	132	3
41	41	10
49	51	2
163	166	2
185	195	2
128	129	11
187	189	6
98	99	2
168	181	3
176	187	3
16	45	1
101	104	4
103	105	2
1	3	3
70	71	6
180	180	9
151	155	6
85	85	5
1	2	5
120	120	7
191	191	3
135	136	3
164	164	11
71	71	2
82	83	4
97	110	4
50	51	11
74	88	2
27	29	1
5	33	3
116	116	6
36	39	2
172	177	2
140	152	2
74	75	2
0	6	2
67	67	2
162	162	6
82	82	6
63	67	2
99	112	4
104	109	3
30	30	9
180	183	1
7	34	2
138	149	2
103	106	3
65	74	1
54	55	5
4	31	4
34	37	1
178	178	5
2	5	2
163	164	2
171	172	6
162	166	4
171	190	1
69	85	3
75	75	5
119	123	3
80	86	1
163	167	1
22	22	2
159	160	1
93	95	2
119	120	3
25	28	1
26	27	4
127	130	2
182	183	3
31	32	3
177	196	4
64	74	1
142	148	2
66	69	2
175	189	1
103	104	3
23	23	13
146	148	3
189	191	3
173	189	1
18	28	1
150	152	1
104	106	2
150	151	3
18	19	2
143	143	7
126	127	2
172	173	3
177	190	1
188	192	3
67	87	1
172	176	1
59	73	2
57	58	3
26	28	1
83	85	3
180	182	1
66	70	1
82	85	1
101	102	1
97	109	2
76	76	1
160	178	2
125	129	3
156	193	1
81	82	5
58	192	2
58	60	1
93	93	3
161	162	1
146	147	7
88	89	1
138	160	2
138	139	1
18	20	1
72	81	1
13	15	3
141	166	2
87	89	2
129	140	3
40	40	4
71	72	2
179	184	1
163	196	3
53	54	2
49	50	3
155	155	5
171	184	1
114	122	2
101	105	1
27	30	1
21	22	1
96	107	1
64	70	3
150	157	2
48	49	7
96	96	1
112	120	2
181	191	1
189	190	4
165	167	1
194	197	2
172	194	3
110	111	2
20	28	1
58	61	1
58	73	1
106	111	1
179	192	1
104	107	2
177	189	1
17	18	1
131	138	3
169	188	1
157	158	1
151	154	1
120	123	1
17	33	3
173	175	2
22	41	1
131	133	3
20	40	1
145	162	2
70	72	1
125	126	1
179	181	2
149	195	2
75	89	2
30	33	2
142	180	1
8	9	3
75	76	1
76	77	2
188	193	5
39	39	1
104	104	2
35	35	3
17	36	1
173	174	4
37	39	1
90	90	1
181	189	3
99	113	1
35	36	2
22	24	1
5	16	1
152	153	4
169	179	3
10	11	1
176	183	1
4	9	1
72	196	1
94	96	2
38	40	1
19	20	1
79	85	1
159	183	2
109	112	1
157	161	1
142	182	1
79	81	1
108	109	1
82	84	1
57	69	2
153	159	1
18	21	1
130	131	1
94	111	1
152	154	2
80	83	1
65	66	1
141	142	2
5	20	1
96	98	1
164	167	2
131	137	1
11	47	1
48	113	1
15	29	1
23	32	2
94	95	1
64	79	1
14	44	1
84	85	1
137	185	1
140	143	1
46	122	1
12	42	1
53	56	1
178	190	1
47	48	2
79	79	1
144	145	1
110	120	1
172	193	1
1	7	1
172	175	1
