76	89	2
67	67	8
49	50	7
7	8	8
53	53	9
73	73	20
85	85	7
10	10	10
7	7	3
49	74	9
47	47	8
84	84	7
72	72	12
7	10	3
75	77	4
84	88	2
46	86	4
89	89	14
4	8	1
20	20	13
19	19	4
6	13	6
48	48	10
32	32	6
74	74	9
77	77	13
57	62	4
3	3	17
29	29	8
25	78	1
57	57	9
19	20	8
61	61	3
7	9	3
6	7	1
12	12	10
81	81	7
9	9	9
56	56	7
86	86	7
13	19	2
23	23	12
5	5	3
35	35	2
70	70	5
59	59	10
27	27	8
17	19	3
76	76	5
81	82	6
31	72	1
50	53	8
87	87	7
48	49	2
46	78	1
60	60	11
51	55	2
56	59	3
66	66	13
79	82	2
68	68	4
56	62	2
2	2	12
46	75	6
85	86	3
13	17	5
20	64	3
71	74	2
11	11	5
78	78	2
8	9	1
30	85	2
69	69	6
11	23	2
4	5	3
62	62	9
86	88	1
82	82	6
51	51	6
75	75	6
14	14	3
64	83	2
66	67	3
59	63	5
13	20	2
54	62	4
58	59	3
63	64	3
72	78	2
75	82	1
81	83	5
63	63	5
24	24	11
68	85	2
8	8	2
80	80	5
52	52	5
18	18	3
47	48	3
64	65	2
53	61	3
88	88	2
28	28	4
31	31	6
50	60	2
18	19	1
49	49	2
25	64	2
34	34	2
69	72	1
9	10	1
53	56	2
72	73	2
26	26	3
71	87	1
78	82	1
76	78	3
21	21	1
17	17	4
5	8	5
84	85	1
7	13	1
76	77	4
5	28	5
9	13	1
27	66	3
25	25	1
60	61	4
16	57	1
13	58	3
6	27	2
55	62	1
64	64	3
59	61	1
0	1	3
83	83	6
58	58	2
63	65	4
59	60	4
14	16	3
19	65	2
55	55	1
20	21	2
0	0	5
10	19	1
5	12	2
79	79	3
63	69	2
30	30	4
10	12	1
13	13	1
3	11	1
5	6	5
15	15	1
4	4	3
54	54	2
25	26	3
18	21	2
21	22	3
23	24	4
6	17	3
64	66	3
51	65	1
87	88	4
0	20	1
15	16	1
86	87	1
65	65	3
51	53	1
75	76	2
88	89	1
22	24	2
64	78	4
0	84	3
20	32	2
78	80	1
75	84	2
6	6	1
61	63	1
20	57	1
60	62	2
7	25	2
1	1	1
89	90	1
5	20	1
19	29	1
33	55	1
11	12	1
30	31	2
9	12	3
27	29	1
70	71	2
5	13	1
14	18	1
11	15	1
25	65	2
22	22	1
51	54	1
4	9	1
53	66	1
54	85	1
59	62	1
55	56	1
54	55	1
