62	62	8
58	58	14
56	56	30
56	57	4
78	78	7
55	55	17
19	21	2
87	87	19
54	54	15
85	85	28
26	31	4
1	1	20
76	76	22
23	24	11
57	57	15
68	68	25
16	17	9
71	73	3
30	30	36
60	60	4
27	27	22
75	81	1
81	84	5
7	7	20
19	19	23
12	47	6
52	53	10
9	9	19
84	84	16
65	65	14
24	25	6
74	75	5
28	28	6
27	28	6
29	29	13
59	59	9
31	31	16
11	11	21
82	82	18
67	67	27
17	49	4
15	15	12
18	18	11
70	70	14
1	2	5
30	31	2
74	82	4
74	74	20
49	51	6
80	81	8
12	13	6
61	62	5
22	54	1
72	86	1
75	75	28
79	79	7
65	72	5
69	71	2
50	52	4
90	90	4
73	79	4
22	23	1
14	14	15
63	63	7
4	4	32
88	88	9
4	5	10
25	28	4
75	79	3
73	74	2
71	71	17
0	0	26
66	66	24
84	85	9
72	81	2
11	14	3
72	72	28
27	59	4
25	25	16
18	21	1
73	73	3
28	29	2
77	79	7
86	86	16
77	77	14
72	82	3
71	85	2
3	3	25
18	19	6
82	84	2
6	34	3
24	24	30
5	5	17
12	17	5
20	21	5
12	12	15
86	87	3
2	3	8
67	69	3
83	83	6
2	2	10
81	81	36
13	13	17
77	81	1
4	35	1
85	86	4
66	69	2
32	33	5
49	49	10
17	56	2
62	65	5
62	63	6
64	64	3
59	62	5
82	83	7
88	89	9
21	21	8
25	26	10
78	79	11
11	12	6
19	74	9
10	10	10
7	26	1
50	55	2
59	84	3
0	2	4
16	57	3
25	27	3
5	6	5
46	47	3
7	48	5
5	54	2
89	89	23
47	49	6
53	56	4
66	67	9
11	13	1
47	48	1
16	56	2
34	34	11
47	47	4
79	80	1
69	69	15
51	55	7
16	16	7
8	8	8
17	17	11
78	81	4
7	25	4
72	80	6
1	86	1
46	48	7
22	22	10
10	13	1
54	55	4
65	71	2
52	52	8
6	23	2
48	49	5
19	20	3
6	8	4
31	33	2
80	80	6
18	53	1
28	31	1
27	30	2
11	16	2
50	50	2
4	55	2
66	68	2
78	80	2
83	84	1
75	84	6
4	56	3
8	9	5
5	19	2
59	60	2
51	51	4
67	68	6
54	58	3
26	26	5
49	50	2
66	72	1
20	20	14
17	80	2
23	56	2
81	83	3
64	65	2
16	21	1
61	61	5
58	80	2
85	87	3
63	65	2
63	64	3
9	10	4
76	77	3
5	8	1
5	31	3
68	69	5
77	87	2
29	57	3
48	50	3
20	23	3
27	31	1
53	53	6
7	9	3
69	70	1
89	90	2
75	86	2
16	20	2
66	71	1
6	48	2
65	66	2
46	46	3
51	52	3
85	89	1
24	31	3
74	76	1
10	12	2
50	51	6
21	23	2
21	22	5
74	80	2
75	76	2
17	22	5
3	4	3
64	72	1
5	16	2
57	58	3
79	84	1
20	55	3
30	57	1
29	30	5
21	83	1
7	8	4
0	89	1
0	27	5
48	48	4
27	48	2
87	88	2
55	56	5
77	86	2
75	82	1
67	70	4
56	58	2
1	11	3
81	82	1
2	4	3
74	89	1
20	47	1
72	83	2
26	32	1
13	14	3
19	48	3
75	80	2
46	55	1
11	15	1
59	61	4
76	78	3
53	55	2
84	86	1
0	1	2
60	62	2
14	31	2
26	60	1
6	6	6
58	81	1
17	23	2
24	27	1
65	83	1
23	54	1
51	57	1
66	76	1
23	23	6
63	66	2
52	55	1
12	14	1
73	77	2
9	47	1
64	66	3
78	85	1
75	87	2
22	25	1
55	57	1
55	60	1
68	71	1
58	72	1
21	78	1
84	88	1
72	75	1
61	63	1
51	53	2
17	18	1
19	80	1
33	33	1
22	26	1
20	78	1
20	82	1
20	26	1
53	54	1
3	28	1
76	79	1
