133	137	2
181	181	12
230	230	15
177	177	31
102	103	6
206	206	26
146	147	7
204	205	4
199	199	21
18	30	2
48	49	10
223	224	6
167	167	8
45	46	13
208	208	39
154	155	10
178	178	19
117	118	8
228	229	13
164	164	17
41	41	10
29	29	13
154	154	31
225	225	19
134	134	10
199	206	3
84	84	27
106	109	3
74	74	29
20	20	8
58	58	26
203	203	13
211	216	1
149	151	3
195	196	12
24	25	10
50	51	11
60	63	3
224	226	6
95	95	13
133	133	15
34	36	4
85	85	45
76	77	7
109	109	14
42	98	2
59	59	21
99	102	2
37	38	18
99	99	28
46	46	24
98	98	25
67	67	14
56	56	24
219	219	13
53	56	2
77	77	21
7	7	19
172	172	20
101	102	14
209	209	8
35	35	13
144	146	7
57	57	27
205	205	13
160	164	3
61	61	19
21	22	18
69	69	22
181	200	2
44	44	22
133	134	13
199	200	5
141	141	9
21	24	3
235	235	20
242	242	12
127	131	5
39	39	32
55	154	3
211	211	15
178	180	2
38	38	19
164	165	5
22	22	27
146	146	8
144	144	10
74	75	5
160	160	19
98	99	5
234	235	9
155	155	24
174	174	10
204	204	15
189	190	3
35	37	3
186	186	8
52	52	35
49	52	3
47	47	20
167	177	3
103	103	9
72	72	21
39	53	1
187	187	6
96	96	8
152	152	15
140	142	4
123	123	15
241	241	20
3	8	6
39	80	2
37	37	24
112	113	2
230	231	16
11	11	30
132	134	7
102	102	14
183	183	14
83	83	26
40	40	12
147	147	15
47	48	7
198	198	4
3	11	4
97	98	7
224	225	7
80	118	2
226	226	17
43	43	22
46	149	4
166	166	12
170	170	16
14	16	1
169	170	5
27	27	19
171	171	6
160	161	3
66	66	10
156	156	22
87	141	6
64	64	12
60	60	9
202	229	3
230	237	4
13	13	13
83	84	16
189	189	14
223	228	3
48	48	19
29	33	6
25	26	17
163	168	3
95	98	3
9	10	16
169	169	19
106	106	7
81	81	12
23	23	31
102	117	2
107	107	7
6	8	12
15	15	7
200	200	21
4	4	13
88	88	14
137	137	11
54	55	19
26	26	27
75	77	11
97	97	7
153	153	22
184	185	4
10	10	30
208	217	8
115	115	8
124	125	3
100	118	5
143	143	11
59	62	6
1	1	35
67	68	1
113	113	16
232	232	13
194	194	4
223	223	20
236	238	3
29	30	9
79	79	14
75	79	3
55	55	21
225	226	9
237	238	13
171	172	8
158	158	17
100	100	24
36	36	19
57	58	8
19	19	31
8	8	9
175	176	6
210	210	21
25	25	19
23	24	18
234	236	1
219	220	6
226	227	10
135	136	3
2	3	4
104	106	1
26	27	3
207	220	2
49	49	23
30	30	21
40	41	9
118	118	13
162	162	9
163	166	3
62	63	9
121	134	7
176	176	12
33	33	6
192	192	14
32	57	3
13	15	2
199	204	4
165	178	2
12	12	22
201	209	4
182	182	11
15	17	3
195	195	14
38	39	8
150	151	2
158	165	8
0	0	25
209	210	7
53	170	4
36	188	6
237	237	14
160	165	2
175	178	2
164	175	3
122	122	19
156	158	8
54	54	22
4	5	4
50	57	3
184	184	22
112	112	11
175	175	19
43	63	1
140	140	7
14	15	9
59	60	5
201	201	10
86	86	23
135	172	10
43	44	3
63	63	20
52	53	14
130	130	12
61	71	4
2	4	3
149	170	1
104	104	19
160	170	3
56	57	10
11	12	4
75	75	25
128	158	2
173	173	9
6	6	11
13	14	3
78	78	14
229	229	33
0	1	5
77	79	1
227	227	18
1	17	2
139	140	9
32	210	3
22	215	2
218	218	32
29	189	2
36	51	2
80	80	6
21	32	2
44	45	2
96	97	7
1	2	7
179	179	4
24	29	3
191	195	2
151	154	1
125	125	2
202	203	8
157	157	8
145	171	2
221	222	4
4	7	3
37	52	1
63	64	7
120	137	3
6	7	12
66	67	8
206	228	1
159	160	10
173	174	6
42	42	18
129	129	14
138	138	15
19	30	1
35	36	8
211	212	8
227	229	6
27	29	3
19	22	4
144	147	13
68	70	1
82	82	14
119	119	20
151	151	14
89	89	8
230	234	5
68	69	3
220	223	8
22	23	17
204	207	3
233	233	9
163	164	7
61	62	9
145	148	3
2	2	13
28	29	14
9	9	24
17	20	1
161	161	14
84	85	7
199	217	4
197	197	21
54	194	1
229	230	12
78	79	7
180	180	11
159	159	12
95	97	8
88	89	2
68	72	1
141	143	9
186	187	3
216	217	3
217	217	9
196	206	5
148	148	27
66	68	4
58	162	1
73	75	4
5	5	8
113	114	4
7	8	11
181	182	4
31	31	19
73	73	21
183	198	2
196	196	14
193	193	10
24	24	16
209	217	4
206	221	5
70	70	26
187	190	1
36	49	4
0	21	1
67	70	1
29	226	1
18	18	9
139	139	7
53	163	3
122	135	1
68	68	12
123	124	14
100	102	19
149	149	20
126	127	3
203	207	4
122	123	3
240	240	9
76	76	14
71	71	18
224	224	10
116	118	2
149	150	2
49	51	5
220	221	6
236	236	17
215	215	10
200	202	2
144	145	7
185	197	4
193	195	2
168	169	4
85	86	4
3	4	9
35	63	1
131	131	6
128	128	6
28	201	3
43	86	4
32	32	17
20	25	3
204	209	3
234	234	13
180	181	2
191	192	14
34	37	1
75	81	5
117	117	8
3	9	4
5	12	2
120	120	11
70	72	2
115	116	5
105	106	5
71	209	2
15	16	4
135	135	2
6	14	6
21	30	5
208	220	2
3	16	3
220	220	11
103	104	4
84	88	2
222	222	6
207	224	4
121	121	8
60	61	2
4	17	1
213	213	11
197	198	2
167	169	3
135	142	2
128	131	4
21	21	30
165	166	5
108	108	8
136	139	7
232	233	8
34	34	13
214	215	2
127	127	13
16	16	8
228	228	5
31	32	5
105	105	15
187	188	2
45	45	28
162	163	8
73	77	6
76	78	3
140	141	9
151	161	2
239	239	22
218	222	3
47	50	1
134	135	3
120	121	6
202	214	1
132	145	2
44	63	3
61	70	3
54	180	2
128	156	4
25	63	3
233	234	12
99	103	5
212	212	10
219	235	1
76	79	4
44	60	4
145	145	5
236	237	5
148	152	1
192	196	3
34	35	10
61	85	2
150	152	6
172	173	4
191	191	12
28	28	27
140	145	3
207	207	18
51	52	9
183	185	1
11	15	4
13	19	3
220	230	3
153	154	3
191	238	2
50	50	12
176	177	3
6	13	3
33	34	4
101	103	5
0	3	6
218	223	6
65	68	7
122	129	1
240	241	5
12	13	6
61	63	4
40	42	2
53	57	8
73	74	6
146	148	4
32	33	5
197	206	2
21	23	8
221	221	35
121	135	6
41	42	5
53	53	26
114	114	8
207	209	1
134	137	1
239	242	3
48	139	1
201	210	2
190	190	10
86	87	1
166	167	2
210	221	1
17	18	8
80	81	2
6	12	1
105	109	2
181	186	2
85	111	1
8	10	6
197	200	3
150	150	4
143	145	2
148	149	4
99	100	5
238	238	13
215	217	2
170	171	5
163	163	12
15	107	3
47	51	1
65	92	3
0	230	2
239	240	6
153	155	11
217	218	13
18	21	4
130	156	1
23	32	7
238	240	2
219	242	6
45	60	1
69	70	3
64	65	5
65	88	2
81	84	5
0	2	7
51	161	2
147	148	7
190	191	3
138	164	1
126	131	2
136	136	8
185	185	7
177	185	2
103	109	3
111	111	2
218	227	3
187	189	2
39	67	2
126	126	5
73	80	1
1	10	8
2	7	3
154	159	1
113	127	1
202	204	4
78	82	1
235	236	3
142	144	2
31	33	2
27	28	4
212	213	8
206	223	1
181	184	4
144	150	2
200	201	1
104	117	5
30	33	5
158	159	6
41	98	2
24	201	1
120	133	2
100	103	5
204	217	2
46	155	2
20	21	4
123	126	3
58	60	1
202	207	1
16	34	4
132	132	6
216	216	16
152	153	4
198	230	1
205	206	5
203	204	1
62	76	1
213	217	4
151	152	2
45	57	4
14	14	2
237	240	1
68	71	3
69	124	1
101	101	15
142	142	5
65	65	8
97	101	5
189	194	4
50	56	3
3	6	6
11	227	4
182	183	4
139	142	4
97	99	1
54	56	1
29	35	1
146	167	3
3	3	9
99	101	2
89	91	5
238	239	3
53	180	2
102	104	3
147	149	9
82	83	3
227	228	1
104	105	4
208	210	1
124	134	2
145	146	3
35	193	2
33	36	5
10	27	2
188	188	6
148	199	1
195	197	2
22	33	1
3	227	2
208	209	6
40	50	1
20	30	2
30	31	8
1	4	1
59	171	2
184	186	1
191	194	2
143	183	3
204	230	2
66	70	1
188	190	3
141	142	6
143	150	4
165	165	10
75	76	9
119	120	2
46	47	3
20	22	2
96	98	3
12	226	3
199	211	1
208	216	2
18	31	3
14	227	1
65	66	5
207	208	2
110	110	4
10	28	5
175	196	2
108	109	3
10	12	3
150	153	1
199	210	1
122	191	1
42	155	1
40	59	1
77	80	3
145	154	1
11	47	1
202	202	6
148	198	2
192	193	5
139	141	1
203	215	1
125	126	2
136	138	3
84	141	5
64	67	1
54	173	3
56	179	2
204	206	1
51	54	1
35	38	3
156	159	4
193	196	1
171	176	3
174	192	1
130	158	3
25	203	2
26	164	3
3	7	1
188	194	2
231	231	11
55	179	2
228	230	3
77	78	2
149	159	1
240	242	2
23	31	3
159	165	4
114	127	1
60	151	2
178	184	3
75	85	2
39	43	3
121	133	1
45	58	3
175	180	3
74	81	1
211	213	1
10	11	5
128	129	5
17	21	3
137	151	1
16	17	4
135	139	1
100	101	4
121	122	3
64	66	1
98	102	2
24	32	1
228	236	1
44	62	4
12	15	4
37	42	1
4	15	4
4	8	2
141	144	1
23	25	3
210	212	1
124	124	4
225	237	2
69	75	4
164	186	3
214	214	3
22	216	2
58	59	3
102	120	1
1	8	3
213	218	1
149	200	1
29	224	2
5	6	1
200	211	2
88	102	1
175	192	1
19	20	12
71	74	1
8	17	1
159	162	6
176	180	1
120	143	3
183	210	1
34	53	1
30	32	1
18	19	3
230	235	3
174	175	5
143	144	3
157	161	2
136	137	1
70	71	2
40	48	1
51	164	1
81	82	3
185	186	1
184	200	2
216	218	1
62	73	1
95	105	1
61	73	2
71	72	2
19	21	2
25	30	3
138	139	3
43	45	2
219	224	2
153	160	2
168	168	1
17	17	1
14	17	2
155	159	4
143	149	1
194	227	2
2	12	1
176	179	3
208	218	2
229	234	3
108	114	3
174	178	1
142	143	2
181	183	4
126	129	1
228	231	1
15	29	3
62	62	7
207	210	1
223	230	1
37	49	2
223	225	2
7	10	3
43	46	1
22	30	1
51	51	2
146	150	1
133	141	1
7	12	1
39	42	3
203	236	1
43	65	1
163	165	2
180	204	1
156	161	3
15	34	1
0	229	1
202	240	1
239	241	1
215	216	3
4	6	1
41	60	3
35	58	1
201	202	3
60	62	2
210	211	5
67	71	2
156	157	2
169	172	1
127	130	1
144	167	1
224	227	1
86	111	2
187	225	4
177	178	4
133	144	2
24	26	1
127	129	3
188	198	4
184	187	1
95	104	1
166	169	1
159	171	2
39	50	1
207	218	1
182	212	1
185	187	1
11	14	2
117	121	2
79	80	1
195	199	1
209	221	1
11	16	1
95	119	3
179	183	2
113	126	1
49	50	1
54	57	1
1	9	2
115	117	1
28	55	1
37	39	1
188	197	1
219	236	2
40	64	2
46	71	2
46	58	2
23	30	2
74	76	4
233	238	1
196	205	1
196	228	1
226	228	2
206	207	2
107	108	2
104	109	1
99	104	1
37	65	1
194	195	2
55	56	1
155	157	1
139	143	1
121	136	2
189	193	1
188	189	2
145	155	1
179	180	1
163	167	2
85	141	1
4	13	1
159	230	1
144	197	1
104	116	1
44	58	1
237	241	1
7	9	2
114	115	1
18	20	2
139	148	1
32	34	2
25	32	1
67	69	2
159	170	2
30	189	1
167	168	2
5	17	1
65	87	1
137	143	1
35	53	1
149	152	1
109	110	2
242	243	1
222	223	1
135	160	1
187	198	2
53	150	1
100	117	1
116	116	1
55	57	1
36	37	1
220	222	1
85	96	1
34	41	1
231	234	1
9	46	1
36	65	1
198	199	1
44	46	1
138	141	1
233	235	1
118	119	3
157	162	2
234	240	1
129	130	1
147	154	1
178	181	1
0	13	1
146	154	1
97	100	1
16	18	1
232	235	1
36	48	1
25	121	1
125	127	2
203	206	2
199	208	1
