109	109	5
4	4	1
121	121	7
8	8	4
126	126	6
147	147	4
119	119	5
90	90	2
116	116	5
125	126	3
91	134	3
73	79	1
21	21	2
43	44	4
79	79	8
39	40	7
127	127	7
66	150	2
148	149	1
41	93	3
34	34	3
45	45	10
77	82	1
55	55	9
137	137	10
86	144	2
133	133	8
46	46	4
47	47	4
139	139	9
85	85	8
38	38	2
22	39	2
98	139	3
39	130	1
100	100	5
25	94	3
52	53	6
11	11	6
18	19	4
118	118	9
42	42	4
31	31	5
140	141	2
129	129	4
89	89	3
117	123	1
48	48	7
66	108	2
128	134	1
93	93	2
154	157	2
48	49	1
146	146	8
117	121	4
12	25	2
128	128	4
156	156	3
9	9	5
51	140	3
44	116	1
110	110	2
92	93	2
96	97	4
124	136	2
78	78	6
68	69	3
42	75	2
3	18	4
86	86	6
103	126	1
138	138	8
44	44	6
107	152	2
88	88	2
9	10	3
8	9	3
53	53	3
107	130	3
98	98	5
30	79	1
111	111	8
119	151	3
134	134	6
35	35	2
20	35	2
129	133	2
24	97	1
142	142	5
102	102	6
47	55	3
12	28	3
88	145	3
66	68	1
105	105	3
104	104	3
132	132	2
62	107	5
66	75	3
29	29	5
152	152	1
25	26	2
80	80	11
136	137	3
14	16	2
12	13	2
28	29	2
140	140	3
89	91	2
101	129	4
3	3	8
28	28	6
75	75	3
7	50	2
131	131	1
152	153	8
18	20	1
126	127	1
99	99	7
50	50	9
113	113	3
20	23	4
12	12	4
49	49	2
110	111	2
53	62	4
15	15	4
112	112	6
103	104	1
1	96	1
94	95	4
83	83	1
130	130	7
103	105	1
69	69	1
14	36	2
78	89	2
116	118	2
14	14	2
118	156	3
73	73	1
51	51	1
22	22	3
135	135	3
154	154	6
4	46	2
105	111	4
67	68	2
158	158	6
104	105	5
113	153	1
51	107	1
100	150	3
50	51	1
56	56	6
81	82	2
95	96	1
112	120	1
155	155	2
101	101	1
24	25	2
6	27	2
13	13	7
24	24	3
52	54	1
117	117	3
23	24	3
16	18	1
12	54	1
94	127	2
30	94	4
91	111	2
89	120	1
91	91	1
68	70	2
114	138	2
88	89	1
5	5	3
7	8	1
131	133	7
7	7	3
47	48	1
54	55	1
132	149	3
18	22	1
0	0	2
38	41	1
135	136	6
106	106	4
85	144	2
27	133	2
42	48	3
43	46	2
151	151	4
17	35	2
41	91	3
87	95	4
104	111	1
98	109	1
149	149	1
51	81	2
40	40	6
125	125	2
26	27	1
2	2	5
13	14	3
23	39	1
157	157	1
26	41	1
109	148	2
159	159	1
79	80	2
98	124	2
92	128	2
123	123	7
67	69	2
118	123	1
11	46	2
92	92	4
82	82	1
30	30	2
24	93	2
103	103	2
115	115	2
10	10	1
109	110	1
128	129	2
120	120	2
145	146	2
1	1	2
22	28	2
117	127	1
64	64	2
4	5	2
57	68	1
125	142	1
23	72	1
98	101	2
109	111	2
71	71	1
97	97	1
54	54	2
118	124	1
25	33	2
113	123	3
84	84	1
41	41	2
63	69	1
101	152	2
15	16	3
144	145	2
22	38	1
36	36	1
108	155	1
19	19	4
34	38	1
21	30	1
101	115	2
15	18	1
95	95	4
51	77	1
67	67	1
6	122	2
81	81	1
26	73	2
18	18	1
144	144	3
27	27	4
47	77	1
70	83	1
72	94	1
71	72	1
87	87	1
37	37	2
108	111	1
148	148	1
27	42	1
120	121	1
12	15	1
106	107	1
6	23	1
136	142	1
99	120	3
47	98	1
12	14	1
20	68	1
131	132	1
49	50	1
20	54	1
150	150	2
145	145	1
157	158	1
26	26	1
32	32	1
50	105	1
35	55	1
79	88	1
42	77	1
94	94	1
93	126	1
129	138	1
94	156	1
79	81	2
6	6	1
21	22	1
131	135	1
40	41	1
108	109	1
146	147	1
43	43	1
