196	196	38
12	12	13
161	161	21
9	23	1
172	190	1
31	31	23
78	78	18
46	46	26
171	171	9
195	195	27
168	168	21
117	117	15
148	149	19
78	80	3
40	41	6
155	158	1
28	30	1
54	54	8
129	129	32
16	16	27
73	78	1
156	157	9
63	63	14
39	39	18
180	180	27
166	166	28
23	23	22
72	72	12
155	159	3
25	32	1
23	195	2
190	190	36
26	26	12
48	48	25
71	71	7
17	17	15
156	156	20
106	108	1
19	19	17
57	58	6
28	28	18
7	34	2
55	56	10
191	191	31
29	30	6
177	180	2
39	41	3
172	175	4
45	45	32
159	159	17
193	194	18
191	192	6
135	147	1
155	155	21
56	56	10
165	166	20
171	177	7
6	8	5
168	173	3
134	135	8
175	176	4
50	50	23
31	32	7
186	186	25
84	85	4
169	169	22
4	4	17
79	79	11
143	143	8
161	165	2
15	46	4
128	129	9
128	128	22
118	118	9
152	160	2
197	197	25
86	87	2
88	89	5
52	52	19
144	148	1
172	183	5
188	188	46
2	3	13
145	175	1
16	17	10
111	112	16
152	153	11
128	171	1
35	35	21
140	140	12
100	102	3
68	69	6
46	47	9
103	108	1
163	166	2
98	107	1
187	192	4
113	113	11
142	142	7
134	134	19
149	150	17
124	136	6
57	60	2
166	168	5
39	40	9
59	59	22
158	160	4
94	108	5
160	163	2
159	178	4
125	125	10
100	100	18
104	105	1
183	183	19
39	42	4
141	141	17
93	93	6
158	159	12
193	193	35
37	39	7
149	149	26
182	183	15
171	176	3
8	44	3
30	30	20
131	132	5
69	69	20
126	126	24
20	20	25
108	112	5
183	194	3
138	140	6
166	177	3
182	182	19
27	28	12
13	14	12
132	132	24
2	2	36
106	106	15
127	127	15
38	40	1
166	167	7
43	43	23
12	13	11
77	77	13
51	51	13
22	22	10
190	192	13
23	24	1
6	20	1
155	156	17
26	35	6
25	25	18
77	78	9
142	150	2
144	145	14
66	66	10
9	9	27
21	22	6
124	125	8
129	188	1
183	197	4
114	114	11
5	6	12
188	189	9
58	58	18
33	33	13
40	40	17
21	21	8
79	80	7
157	157	18
107	108	5
24	60	1
171	172	5
146	147	5
104	106	8
16	42	2
174	174	11
63	65	4
187	187	30
14	15	6
139	139	13
107	107	22
177	177	27
3	7	11
60	60	2
126	127	5
124	124	23
94	102	2
148	148	17
38	38	16
70	71	9
161	162	2
179	180	14
95	105	3
73	74	8
85	85	6
162	163	2
116	126	2
83	83	12
156	172	2
98	99	8
123	123	15
73	80	1
10	10	11
11	13	2
15	15	12
147	162	2
176	176	7
11	11	14
181	184	3
87	87	17
18	118	1
62	64	4
135	135	20
138	162	1
125	133	1
53	53	24
89	89	14
140	179	6
138	139	5
182	187	1
138	138	11
192	192	10
105	105	4
99	100	13
189	191	9
181	183	3
110	112	2
113	116	2
184	185	4
165	165	9
109	109	12
55	55	13
143	147	1
178	178	17
12	38	3
38	39	7
51	53	4
80	80	13
120	123	3
142	145	1
23	29	3
11	12	11
174	185	3
116	117	6
108	108	9
109	111	12
144	146	8
172	173	3
139	162	2
8	22	2
181	181	24
14	14	15
144	144	16
151	152	13
77	79	8
145	168	1
93	95	3
7	7	22
50	51	6
62	62	17
36	38	3
152	152	17
57	57	14
49	49	17
148	150	3
116	123	2
113	118	4
136	137	9
137	137	7
97	98	3
131	133	4
133	135	2
170	170	24
32	33	5
143	145	5
152	159	5
30	31	15
121	122	4
139	140	4
3	3	7
164	165	13
101	101	1
19	22	1
17	18	24
112	134	3
194	194	24
20	21	8
110	111	4
122	133	1
167	168	10
47	48	8
158	158	11
7	20	1
130	131	6
131	131	13
191	194	1
150	159	5
24	54	2
189	189	34
7	8	11
75	83	4
119	123	5
141	148	1
36	36	16
116	116	13
112	113	7
140	141	5
15	59	3
99	101	7
7	37	3
173	178	2
42	45	4
102	104	6
115	116	4
19	36	5
43	44	11
146	148	5
146	146	16
189	192	5
119	119	12
133	134	8
67	86	2
113	166	3
63	64	10
160	160	21
37	54	2
39	52	1
54	55	13
49	57	3
61	61	10
49	50	7
51	54	3
44	44	13
172	172	16
184	184	19
169	170	5
135	141	1
173	175	16
161	167	3
164	164	7
185	186	10
10	11	7
142	176	3
73	75	3
174	175	3
187	193	2
93	96	4
96	96	6
139	142	2
6	6	6
4	5	3
75	76	5
20	196	1
24	25	3
48	52	4
151	154	1
176	177	7
185	185	15
78	79	1
147	153	3
145	164	3
34	34	10
157	158	6
150	150	11
48	49	16
68	68	8
120	125	3
8	8	3
31	38	1
94	95	8
73	73	5
132	136	1
3	5	5
13	13	18
133	137	6
195	196	16
187	188	14
126	129	2
149	157	3
105	106	8
153	193	3
180	183	2
35	40	3
153	154	3
104	104	12
25	27	2
33	36	5
133	133	12
161	173	2
0	0	20
175	175	15
154	154	13
135	137	1
59	60	1
154	155	9
179	179	15
1	1	6
143	144	7
162	162	13
89	90	2
65	65	6
181	182	11
18	18	10
118	119	8
163	163	10
48	50	6
71	72	8
133	136	1
18	40	1
93	94	10
118	120	9
71	113	3
56	57	5
26	38	2
151	151	19
120	121	3
158	161	3
103	103	16
42	56	1
34	35	9
176	185	7
84	84	10
185	189	2
62	63	5
160	182	2
156	158	2
102	103	6
186	189	4
135	148	2
123	124	5
77	82	1
42	42	12
130	130	16
37	37	4
113	114	3
26	27	5
165	167	8
66	69	2
65	66	1
177	178	14
173	173	6
167	167	19
8	50	4
39	50	4
11	22	5
87	88	5
29	32	2
7	31	1
147	148	3
119	121	6
4	31	3
114	115	3
142	143	6
51	55	1
22	23	8
148	160	2
36	37	4
122	134	8
9	11	4
118	122	5
82	82	7
130	134	2
24	24	15
21	23	6
178	179	5
120	124	4
116	132	1
136	154	1
152	192	2
153	155	1
141	142	4
95	96	2
25	26	5
98	98	11
94	94	9
137	148	2
23	54	4
81	82	7
89	94	3
5	5	12
1	5	1
16	38	1
169	174	2
94	96	6
111	111	5
170	172	1
109	110	2
16	35	2
129	131	4
122	135	2
180	181	11
177	197	1
86	97	3
17	23	3
86	86	3
66	87	3
64	65	4
51	52	2
43	47	2
120	120	7
122	137	3
94	118	2
115	131	2
27	27	8
163	165	1
74	94	1
26	39	2
115	118	3
147	147	8
26	28	5
102	102	17
123	126	4
19	68	3
136	136	19
41	42	4
25	39	2
150	170	1
107	109	1
121	123	6
177	186	4
38	50	4
67	71	2
166	172	1
64	64	11
162	178	1
43	51	4
14	24	4
147	163	1
40	53	1
189	190	3
110	110	12
173	174	6
140	143	2
32	32	12
142	144	5
41	41	10
0	27	3
8	42	1
184	188	4
97	97	10
24	32	2
73	84	3
15	23	2
35	36	6
153	153	12
25	38	4
15	17	1
26	34	6
101	104	3
157	161	1
129	160	6
152	179	4
28	29	3
159	183	1
17	46	1
121	121	14
0	2	7
161	175	1
145	169	2
125	126	7
140	176	1
186	188	6
160	161	14
14	32	2
45	46	5
120	166	1
85	89	2
4	10	2
184	186	2
167	172	3
176	197	2
70	70	3
186	187	10
23	69	2
135	136	2
106	107	3
163	164	3
25	33	1
76	76	3
150	153	5
118	123	1
82	83	4
16	18	1
102	110	6
183	184	6
34	39	4
70	80	1
27	34	2
132	133	3
179	185	1
20	51	1
26	30	8
95	117	2
157	160	3
50	53	4
86	88	6
74	74	4
132	137	2
19	37	2
174	176	3
1	2	7
128	160	1
20	39	4
67	87	2
161	163	2
180	185	2
180	182	6
27	30	3
95	97	1
67	112	2
23	35	5
83	85	4
93	107	1
19	33	3
170	171	9
143	149	1
11	51	1
15	193	1
24	26	3
134	137	4
16	41	4
161	164	3
135	146	4
3	8	1
145	145	6
127	129	1
88	88	9
143	148	1
145	148	3
72	73	3
22	29	3
94	107	3
110	113	3
83	84	2
155	157	2
129	149	4
26	33	1
32	37	2
192	193	8
125	127	2
183	191	2
40	42	1
136	147	1
66	111	3
28	36	2
121	139	4
33	34	2
111	129	2
21	35	1
47	47	12
83	88	1
170	173	4
150	194	1
187	194	2
144	168	5
39	56	5
119	120	6
12	60	1
20	195	2
194	195	4
16	19	1
100	101	2
139	178	1
1	30	1
42	51	3
116	120	1
41	54	2
18	39	6
59	61	5
111	113	2
29	196	1
137	147	2
80	81	10
2	5	1
61	62	2
29	29	1
155	175	1
74	75	7
132	135	1
17	21	3
38	42	5
151	173	2
160	162	2
6	15	1
144	175	1
152	155	1
79	84	2
183	193	2
113	115	2
195	197	1
79	83	3
53	55	1
168	170	4
115	115	10
101	103	3
96	101	1
14	49	2
112	112	5
9	10	4
141	149	2
151	153	2
176	179	1
16	23	1
126	135	3
83	194	2
15	16	4
1	42	1
90	90	3
23	32	1
19	41	5
136	167	1
173	176	2
67	67	2
37	55	1
2	26	2
37	41	1
144	154	2
59	64	1
159	160	1
4	28	1
33	35	4
136	168	2
68	86	4
148	151	2
113	129	1
44	45	2
152	154	1
176	178	2
130	146	1
49	53	1
29	31	1
81	81	2
174	191	1
196	197	1
122	122	10
53	54	2
96	97	2
185	187	2
103	104	3
105	107	5
5	7	3
17	40	1
69	70	1
129	130	2
23	51	1
34	36	1
10	21	1
0	31	2
167	169	1
139	145	2
131	160	2
0	1	5
0	47	2
117	118	2
153	158	1
140	173	2
20	22	2
20	36	1
101	102	3
145	150	1
179	181	2
150	172	1
3	31	1
29	197	5
52	53	6
69	112	1
168	169	3
150	160	2
23	196	4
166	173	1
73	79	1
127	184	3
35	37	2
58	59	3
163	179	2
76	78	1
9	20	3
150	152	2
21	25	1
5	31	4
181	185	1
149	158	4
184	194	1
14	30	1
95	118	1
167	170	1
177	183	1
95	95	3
169	171	2
8	9	1
27	32	2
150	158	2
118	121	1
148	158	1
170	174	1
163	167	2
147	157	2
3	4	3
109	113	1
27	36	1
18	19	1
185	188	2
36	39	1
142	173	1
20	53	1
105	108	2
4	9	2
22	24	1
30	36	1
9	151	1
159	161	1
156	173	1
41	55	3
150	157	1
169	178	1
116	167	1
154	168	1
165	168	2
139	173	3
78	83	3
30	32	1
71	84	1
140	178	1
137	138	1
60	63	1
172	174	1
31	196	1
139	141	1
145	147	1
38	51	2
58	60	1
111	134	1
68	70	1
53	56	2
24	38	2
119	137	1
160	190	1
15	195	1
97	99	1
71	85	1
30	34	1
118	137	2
42	43	2
194	196	1
138	179	3
135	167	1
71	73	1
100	110	1
22	25	1
99	99	1
33	51	1
99	110	2
6	7	1
24	33	1
108	109	2
66	97	1
129	180	1
40	51	1
186	192	1
66	67	1
28	31	1
31	34	1
64	104	1
115	117	1
176	186	1
5	10	1
137	167	2
20	68	1
85	86	1
97	108	1
178	186	1
124	133	1
144	155	1
156	171	1
117	121	1
150	151	1
144	176	1
39	54	1
164	168	1
152	191	1
70	79	1
5	8	1
76	77	1
154	183	1
65	68	1
50	56	1
122	136	2
64	103	1
143	150	1
126	130	1
152	194	1
