40	59	2
66	72	3
46	91	1
62	93	1
45	45	7
86	89	5
35	36	3
97	98	3
88	88	7
74	74	7
46	46	11
60	102	5
99	99	5
96	96	5
29	29	5
62	62	8
94	94	12
63	63	13
26	26	5
90	91	4
55	55	10
83	93	1
76	92	2
61	62	5
77	77	8
39	59	3
60	94	4
54	55	2
25	25	12
85	85	8
20	37	2
73	80	1
31	31	6
27	27	5
20	20	3
48	49	2
25	28	1
53	54	2
49	49	7
93	101	3
42	43	2
34	36	2
66	75	2
67	67	10
42	42	17
61	94	2
73	73	9
23	32	2
48	60	4
91	91	6
57	57	8
72	72	8
81	94	4
64	65	3
37	38	3
59	59	9
76	76	4
36	36	19
101	101	1
56	57	2
34	35	4
84	84	2
42	83	4
40	40	10
63	64	3
50	50	7
90	90	13
55	56	4
53	53	1
33	33	3
58	58	5
41	42	1
67	90	3
71	73	2
94	96	1
78	81	2
94	95	5
64	70	1
49	50	4
34	58	5
53	55	3
81	84	2
95	98	1
47	47	5
83	83	8
79	80	2
60	60	3
46	99	1
88	89	4
44	44	6
60	93	5
45	51	1
41	41	8
91	92	3
68	68	5
20	22	3
82	82	1
64	64	7
48	48	7
23	27	5
35	35	1
52	52	7
89	89	4
34	34	5
47	91	1
94	98	1
56	56	4
75	81	2
70	70	11
65	66	2
46	47	4
65	65	6
62	63	2
87	88	3
59	62	3
57	61	2
81	82	5
92	92	7
55	63	3
77	78	2
86	87	5
77	94	1
26	28	1
98	98	3
67	68	2
39	39	3
72	73	2
69	71	2
75	75	3
66	66	2
74	81	2
79	84	2
40	58	3
78	78	2
69	70	3
80	87	1
97	97	9
38	39	2
35	37	1
86	86	3
85	86	1
60	92	1
40	63	1
71	72	1
53	81	2
36	37	5
24	26	1
81	81	5
95	95	5
28	28	1
100	100	6
38	92	1
66	67	3
92	93	1
102	102	2
78	79	2
24	27	1
96	100	3
47	51	2
98	100	3
79	89	2
42	44	3
59	91	2
71	71	3
51	52	1
35	60	2
52	54	1
43	43	4
80	80	2
36	50	2
38	38	5
95	96	2
46	71	1
86	88	3
100	101	1
75	76	1
63	65	1
37	53	2
34	59	1
73	78	1
50	56	2
89	90	1
96	97	1
49	79	1
66	74	1
33	34	2
22	27	1
54	54	1
45	48	1
68	72	1
41	51	1
33	51	1
69	69	1
24	24	1
39	58	1
59	67	1
51	51	1
84	87	1
63	66	1
61	63	1
