0	23	3
143	148	6
95	96	1
72	72	4
49	58	1
21	21	30
108	108	23
76	76	13
67	69	5
110	110	21
115	118	3
128	128	3
95	95	15
133	134	1
63	69	7
166	166	13
27	52	2
77	86	3
16	22	1
14	23	4
12	12	16
58	69	5
153	153	14
5	73	6
107	109	2
142	142	6
19	72	7
158	158	10
0	13	9
42	43	5
90	90	8
117	117	15
3	3	24
70	112	4
48	116	2
19	19	1
38	38	4
69	116	4
1	8	6
16	21	4
77	78	2
85	85	9
129	129	11
53	53	20
20	25	2
164	164	5
38	124	1
156	157	7
12	51	2
20	56	1
8	13	3
5	5	15
21	110	1
111	111	5
37	50	4
35	35	13
109	111	7
54	54	13
55	168	6
1	2	4
86	86	8
13	64	6
22	23	2
152	152	16
100	100	11
47	101	2
135	137	4
37	37	19
20	21	8
23	23	12
114	114	8
139	139	10
132	132	6
48	49	5
56	56	16
26	27	6
169	169	10
11	11	20
18	18	7
57	57	8
36	36	5
50	50	1
44	44	16
55	68	6
67	68	4
46	46	14
73	73	8
109	109	9
51	62	3
130	164	3
45	154	6
101	103	2
93	94	5
40	46	4
94	135	2
151	152	2
84	115	4
136	136	15
4	27	1
27	27	14
36	56	2
67	67	7
96	96	1
119	120	12
76	116	1
120	122	3
8	10	10
22	65	3
21	22	4
47	47	7
54	55	4
134	134	4
77	77	10
168	169	8
121	124	1
145	145	2
70	107	2
7	7	15
45	45	7
10	11	3
115	115	10
6	6	7
40	40	12
13	56	1
65	65	8
41	41	9
51	51	9
50	51	7
65	85	3
42	42	7
14	14	13
22	168	1
43	43	20
46	68	5
68	68	6
78	78	14
113	136	1
79	80	7
0	1	6
10	160	4
52	58	2
103	104	2
15	16	2
37	150	4
2	2	17
52	52	10
96	97	6
130	131	1
130	130	10
131	164	2
140	140	7
15	15	19
64	67	1
81	81	10
47	48	6
163	163	11
153	154	1
162	162	4
40	50	4
109	113	2
5	24	1
46	48	5
94	94	5
90	91	1
148	148	3
3	7	3
42	44	3
94	97	2
141	141	7
22	164	2
112	113	2
84	85	2
119	119	12
128	160	5
5	6	6
76	77	3
6	73	1
132	138	4
100	105	1
13	25	3
69	69	14
49	133	3
154	154	8
24	24	11
126	126	3
116	117	2
63	123	2
144	158	2
69	114	1
80	82	1
137	137	12
48	48	8
162	163	6
86	93	1
68	69	6
143	147	2
8	8	17
155	158	3
157	157	3
79	81	2
131	161	1
98	98	5
39	39	5
89	91	5
134	157	2
136	137	1
39	58	7
55	55	12
92	92	6
125	125	18
10	10	8
67	71	4
135	135	5
4	16	3
106	106	7
53	54	3
63	96	4
155	156	2
110	126	4
16	17	1
87	87	4
161	161	2
66	67	2
18	19	7
115	120	2
16	16	11
123	123	9
44	52	7
155	155	7
71	112	3
8	12	2
143	143	5
3	4	2
124	124	6
102	102	3
118	118	12
168	168	7
121	122	2
124	170	4
15	24	2
14	66	1
22	22	8
62	99	2
22	50	2
4	4	9
57	95	3
115	116	4
49	49	5
44	135	6
41	96	3
56	57	5
27	110	4
0	96	1
108	110	3
19	51	6
34	35	2
140	141	3
74	76	2
46	47	13
147	147	3
37	38	8
53	132	2
89	90	1
112	112	16
39	40	4
21	24	2
102	104	2
134	135	5
99	100	2
139	140	6
54	118	1
91	91	5
20	22	4
13	13	6
163	167	2
89	89	5
79	79	1
40	47	4
144	147	2
105	105	3
42	135	5
83	83	11
151	151	5
101	101	7
34	34	8
130	162	3
9	9	9
142	143	1
70	101	4
14	16	3
48	158	1
38	64	5
75	75	7
26	26	8
12	16	2
93	93	6
123	163	3
97	100	4
121	121	4
113	113	2
42	107	5
65	166	2
42	150	2
13	15	3
20	20	2
28	28	4
104	105	1
53	149	3
128	163	2
17	17	13
86	89	1
148	151	4
147	148	10
113	114	7
97	97	5
74	75	2
24	64	1
92	93	6
41	138	4
141	157	3
33	34	1
127	155	1
157	159	5
63	63	5
12	58	2
63	99	4
45	48	1
41	51	1
71	71	4
17	18	6
119	123	1
69	94	5
101	112	4
19	71	2
0	14	4
164	165	4
9	10	9
80	80	5
1	1	11
64	112	3
25	25	6
88	90	1
19	20	4
64	64	10
148	149	1
159	159	8
122	122	6
20	23	1
124	127	2
169	170	1
81	82	2
46	49	7
54	68	4
3	35	4
69	70	5
48	117	1
156	158	1
160	162	4
17	71	2
88	89	4
120	120	7
9	12	1
45	122	1
19	25	6
5	16	2
13	19	2
149	149	8
149	150	1
146	148	4
160	163	2
33	33	2
2	35	2
34	43	2
129	160	8
25	55	1
100	101	2
39	51	1
97	113	2
87	88	2
18	44	3
128	129	1
170	170	5
6	7	2
57	58	3
46	55	1
39	46	1
95	133	2
112	114	3
0	0	2
135	136	1
22	24	3
51	58	1
72	83	1
116	116	2
72	137	1
74	74	1
144	144	7
55	56	1
145	146	2
2	23	2
138	138	2
165	165	2
150	150	5
41	42	1
142	144	1
41	62	2
45	49	1
107	107	7
5	7	4
105	106	2
117	121	3
88	88	3
110	111	3
89	116	1
160	160	2
133	133	3
93	102	2
111	112	1
40	45	2
75	76	2
58	58	4
82	82	2
64	66	4
23	24	2
42	53	2
14	51	1
163	164	1
2	11	1
12	13	1
2	10	1
142	145	4
18	21	1
38	150	1
120	162	1
114	115	1
95	98	4
75	113	1
125	128	4
23	118	2
13	63	1
13	14	3
4	5	2
13	17	2
39	57	2
62	63	4
50	97	2
7	8	2
73	115	1
49	68	1
64	85	1
164	169	1
47	100	2
125	126	1
65	66	1
22	51	1
48	137	1
146	146	1
143	144	1
7	79	3
0	37	2
52	132	1
128	131	1
44	56	1
77	84	1
98	99	3
22	25	1
125	170	2
99	99	1
116	118	1
109	126	1
37	45	2
58	167	1
84	84	2
25	35	2
117	118	2
127	127	1
104	108	1
1	23	1
15	23	1
84	108	2
44	50	1
39	97	1
139	141	3
23	132	1
63	167	1
24	27	1
101	102	2
151	170	1
131	137	1
36	37	1
72	132	1
129	163	1
138	141	1
63	98	2
73	82	1
118	167	1
3	36	1
128	156	1
124	125	1
147	149	2
41	46	1
8	23	1
12	55	3
118	168	1
43	96	1
127	128	1
86	90	1
40	57	3
70	70	1
131	131	2
77	115	1
150	151	1
26	35	2
40	41	1
114	133	1
113	138	1
9	11	1
104	104	1
12	63	1
62	117	1
144	157	1
35	36	1
79	92	1
47	49	1
47	137	1
55	58	1
48	68	1
62	169	1
139	142	1
6	74	1
47	50	1
72	78	1
