114	117	3
8	20	1
13	13	9
123	123	20
76	76	4
85	93	1
96	96	8
83	97	2
49	50	7
93	95	1
66	66	5
134	134	9
104	105	6
37	38	2
136	136	18
87	103	3
122	122	10
75	75	18
10	10	15
124	124	14
137	138	6
128	128	11
72	72	10
17	17	12
36	70	1
125	125	13
57	57	7
14	16	2
135	135	5
142	143	5
89	91	1
102	102	13
27	52	4
81	81	21
24	25	9
11	12	3
58	59	10
136	138	6
82	134	2
133	133	13
5	33	2
85	85	9
122	123	10
47	91	1
114	114	10
18	18	10
56	57	5
48	52	3
27	28	1
99	100	2
2	2	7
137	137	18
41	41	8
55	55	8
82	83	3
4	136	3
52	52	8
11	11	10
108	131	1
118	144	9
14	14	6
47	108	1
25	26	2
65	66	4
54	54	11
60	60	9
20	20	16
27	27	9
35	43	3
94	95	6
77	77	9
32	73	6
68	68	8
83	83	8
39	39	7
129	129	10
80	81	6
39	90	5
3	14	1
17	18	2
46	47	10
20	21	11
112	113	4
21	21	8
80	80	22
140	140	9
76	79	5
73	73	9
143	143	9
140	141	8
48	48	14
50	107	1
59	59	13
83	85	2
19	24	2
58	58	8
110	110	4
99	99	16
42	74	2
53	53	8
132	132	15
112	112	11
77	79	9
79	80	9
37	37	6
4	14	1
64	64	4
59	70	2
20	71	4
127	127	6
108	108	9
61	61	9
49	49	13
71	83	1
47	47	15
12	20	1
18	19	3
15	15	9
131	131	9
51	51	10
35	36	1
89	92	4
100	101	8
25	36	2
143	144	3
36	36	6
125	126	1
13	14	2
96	105	1
2	5	1
127	129	4
5	5	14
130	130	12
105	105	20
77	78	10
50	51	6
19	19	13
8	34	1
118	118	17
139	140	7
69	72	2
127	130	3
78	80	3
108	109	4
125	132	2
134	135	5
33	33	12
8	9	2
126	133	4
142	142	11
3	3	17
68	69	5
118	125	1
141	142	1
40	143	1
24	124	3
58	64	6
25	27	5
144	144	14
9	10	3
69	69	11
31	31	3
126	130	5
133	137	2
83	84	2
101	102	1
70	70	5
28	29	8
104	104	13
63	63	9
110	112	8
121	121	13
90	118	2
72	123	3
113	114	4
48	97	1
128	129	7
50	50	6
71	72	7
59	60	2
78	110	1
23	23	15
117	143	3
105	107	2
36	37	4
121	136	8
117	117	21
132	133	7
123	143	6
109	127	2
100	100	1
123	124	7
68	91	1
74	74	8
70	71	2
22	23	3
125	130	4
91	94	3
10	16	4
58	67	3
60	71	5
138	138	7
139	139	14
111	112	5
29	29	6
116	118	3
28	51	1
121	122	1
145	145	6
85	86	2
30	30	6
99	101	1
92	110	2
11	24	2
106	106	12
88	88	9
86	87	6
40	40	9
113	113	5
124	125	1
73	123	3
3	4	4
63	66	1
70	115	1
118	133	3
38	38	16
122	138	2
50	52	3
42	80	1
112	119	1
30	31	1
87	96	6
109	109	6
74	75	4
0	1	9
25	83	4
80	82	2
79	83	1
62	65	2
25	25	8
117	125	2
67	111	3
42	42	6
135	139	1
98	108	6
121	129	2
118	119	4
49	134	1
30	72	3
8	8	4
23	24	3
136	139	7
119	119	8
87	88	5
86	97	3
22	22	13
87	87	7
4	135	1
16	16	5
33	36	4
59	83	1
28	28	10
31	35	6
97	131	1
71	71	9
70	72	6
26	39	2
36	120	1
111	111	5
116	133	2
92	92	10
32	32	6
129	130	4
4	16	1
116	116	10
79	79	7
126	131	2
53	60	1
96	97	8
120	120	9
126	126	7
79	81	1
54	66	5
72	73	4
26	27	3
42	43	3
80	112	2
95	96	1
95	107	2
90	90	3
94	96	1
55	64	3
87	105	1
38	42	2
32	140	2
67	67	3
8	36	3
23	37	2
53	74	3
93	93	6
1	1	3
6	6	8
9	9	7
133	139	4
5	35	2
94	94	9
124	130	2
79	123	2
32	33	3
91	95	1
107	107	10
53	54	3
13	21	2
9	14	4
4	4	11
39	43	4
82	84	4
62	62	4
31	32	6
3	16	1
114	116	2
56	58	1
67	68	2
146	146	4
68	103	1
108	138	1
98	105	1
89	89	4
123	136	2
104	110	1
31	33	5
92	96	3
97	98	3
31	88	2
69	138	5
39	40	3
15	16	1
115	115	11
117	131	1
71	74	4
57	58	3
131	140	1
91	91	2
95	97	3
63	65	3
101	101	8
43	43	1
120	121	1
26	26	3
8	10	1
130	133	2
60	62	1
103	103	7
133	134	2
84	85	1
144	145	2
26	66	1
123	126	2
71	118	1
106	123	4
15	30	4
41	42	2
141	141	6
40	51	1
17	29	1
105	106	1
6	10	6
11	25	2
76	77	5
34	35	4
94	111	3
69	91	2
73	107	3
56	56	5
83	112	4
62	64	2
104	106	2
135	141	3
133	135	3
135	136	1
121	134	2
95	95	3
37	90	1
99	104	6
117	139	3
136	137	7
37	50	2
58	63	1
82	85	3
65	65	2
25	37	2
85	132	2
27	39	1
33	94	1
116	117	5
53	58	2
64	65	1
48	50	2
73	74	1
113	117	1
129	141	2
12	16	1
86	86	2
79	104	6
66	70	1
59	80	3
53	82	2
110	111	1
29	49	3
1	120	2
108	136	1
118	139	1
5	15	1
135	137	1
3	6	2
102	103	1
35	35	5
23	117	2
97	105	1
13	16	2
84	84	2
84	129	1
86	96	2
130	131	1
12	18	2
74	139	1
27	80	1
94	113	1
133	141	3
138	139	4
36	56	1
4	12	1
56	74	2
105	110	1
43	109	3
17	20	1
24	24	5
128	131	1
97	107	2
137	141	1
88	91	4
74	79	1
65	84	1
14	63	1
9	32	2
93	94	5
100	103	2
55	70	1
13	72	2
88	99	1
35	69	1
4	10	1
47	94	1
88	92	1
61	71	1
98	98	5
115	116	4
32	53	1
5	6	1
117	123	1
47	52	2
34	34	3
82	82	3
68	97	4
120	123	2
78	78	7
118	143	1
54	69	2
21	37	1
3	10	1
113	115	1
62	83	1
75	82	1
115	123	1
26	87	1
107	130	1
87	89	2
81	86	3
27	30	1
131	132	4
100	102	3
50	134	1
86	103	1
112	115	1
50	53	1
6	11	1
78	79	4
137	139	1
32	96	1
77	82	1
26	31	2
75	76	2
107	108	1
111	115	1
57	64	1
77	81	2
84	86	1
32	34	2
131	135	1
51	52	3
13	34	1
62	72	1
34	37	4
97	97	1
20	96	1
108	133	1
88	108	1
110	113	1
89	115	2
22	95	1
2	21	1
66	75	1
66	67	1
20	70	1
102	126	1
61	62	2
134	140	1
8	15	1
109	118	2
90	100	1
103	105	1
11	119	1
53	106	1
109	110	3
89	90	1
55	73	1
33	95	2
65	83	1
12	33	1
98	124	1
107	127	2
22	96	1
32	54	1
119	144	1
61	100	1
50	59	1
58	70	1
96	99	1
75	138	1
100	119	1
134	138	1
69	118	1
59	72	1
102	119	1
20	24	2
86	106	1
30	125	1
69	70	2
104	111	1
75	79	1
131	133	3
19	74	1
139	141	1
55	56	1
96	104	2
93	96	1
97	104	1
92	93	1
99	118	1
21	24	2
36	105	1
113	118	2
34	94	1
9	21	1
50	60	1
132	134	1
68	102	1
22	26	1
38	43	1
127	131	1
90	96	1
37	95	1
122	131	1
30	73	1
126	127	1
40	128	1
24	37	1
4	5	1
89	110	1
83	105	1
20	25	1
30	37	1
114	115	1
114	131	1
115	118	1
36	51	1
