160	162	1
14	14	8
3	34	2
187	187	7
104	105	1
44	44	3
66	79	3
53	53	3
163	163	4
40	41	1
146	146	6
81	82	3
57	57	3
82	82	1
82	92	2
35	35	6
84	85	1
155	155	5
55	55	5
58	58	1
66	66	4
117	118	2
135	141	1
71	80	4
37	37	3
188	188	6
128	128	3
10	12	4
12	12	7
121	121	5
127	127	1
4	67	3
133	133	4
55	56	3
68	71	2
84	84	1
154	154	3
5	20	4
24	24	3
37	84	2
129	129	5
36	36	2
45	45	3
26	86	3
87	87	4
30	30	3
147	149	3
16	16	1
0	0	2
30	31	2
19	19	4
101	101	5
89	89	6
131	131	6
88	89	1
142	142	3
34	76	2
38	75	3
113	116	4
104	104	3
54	54	6
159	173	2
40	40	6
80	96	1
115	155	3
5	35	2
47	47	2
38	38	1
96	96	1
125	125	1
17	17	3
182	184	5
10	10	6
102	103	2
130	131	1
59	59	2
90	90	2
42	42	2
183	183	4
20	37	2
114	115	4
137	137	4
172	172	4
97	101	1
81	95	1
5	5	6
182	182	2
39	40	1
160	161	2
156	156	2
153	153	4
115	119	3
52	52	1
42	52	2
85	94	1
56	56	4
98	98	1
65	65	2
134	160	1
3	3	1
86	86	4
148	174	2
149	150	1
109	109	2
171	171	2
189	189	1
27	28	1
178	179	1
18	18	1
77	77	1
39	39	1
72	78	1
92	92	1
76	77	2
189	190	2
11	11	1
118	118	2
91	91	1
8	85	1
93	93	2
186	186	2
103	141	1
143	144	1
165	165	4
86	108	1
137	138	4
15	47	1
29	29	6
124	125	3
99	99	4
155	156	2
141	141	1
13	14	1
151	151	1
49	49	2
107	107	4
163	165	1
78	78	4
72	73	1
17	72	1
4	7	1
103	103	1
115	118	1
187	188	2
145	176	1
8	8	1
33	33	2
70	70	2
110	111	1
114	122	2
144	147	1
161	161	2
76	76	1
169	169	1
168	169	1
24	25	2
136	136	2
176	176	2
12	14	1
58	59	2
60	64	1
168	190	2
168	168	2
170	171	2
64	68	2
124	124	1
115	116	1
35	36	2
140	140	3
178	178	1
156	157	1
12	13	1
55	71	2
167	168	2
27	29	1
157	157	1
20	20	1
63	65	1
106	106	1
106	118	1
63	63	2
56	60	1
41	41	2
181	181	1
110	129	4
75	75	1
103	115	1
188	190	3
22	22	1
60	60	1
117	117	1
48	48	1
99	100	2
120	134	1
7	7	1
120	120	1
168	189	4
166	170	2
143	146	1
124	141	1
135	137	1
2	2	1
185	185	1
174	174	1
26	67	1
46	46	1
72	72	1
88	88	1
29	30	1
176	177	1
172	174	1
107	131	1
102	102	1
73	73	1
100	100	1
