62	80	3
102	105	2
71	82	6
63	63	5
10	10	14
114	130	1
124	124	11
54	54	25
44	44	10
56	56	11
127	127	9
53	53	5
11	45	1
85	85	1
13	14	7
53	54	1
65	83	4
129	129	3
9	10	2
108	108	9
38	38	13
64	73	1
129	130	1
121	127	2
107	107	5
43	44	1
19	109	1
114	114	4
7	7	3
31	31	11
79	80	5
81	91	6
18	24	2
70	81	3
78	99	1
105	105	7
122	122	5
124	125	4
95	127	1
50	50	10
40	63	2
79	88	3
50	123	1
61	99	3
51	51	7
42	44	1
20	22	3
111	111	5
65	67	3
107	124	1
110	110	12
55	55	7
66	79	3
41	45	1
11	11	10
1	2	7
118	118	7
31	32	3
96	96	11
32	32	5
117	118	6
45	68	2
16	91	1
23	23	12
121	122	5
77	77	13
19	47	4
26	54	1
29	29	3
100	102	2
0	0	4
1	30	2
26	27	5
123	123	7
14	15	6
47	48	4
106	117	4
101	101	4
25	25	9
94	94	5
34	34	1
102	102	9
83	93	1
89	90	9
115	125	3
46	47	1
128	128	5
9	47	2
106	106	10
116	116	7
111	112	3
76	84	3
79	81	1
67	97	1
104	105	3
91	94	2
14	25	8
74	77	1
42	55	4
81	90	2
47	47	4
118	119	3
15	25	3
4	4	8
91	92	3
101	114	8
32	55	4
5	17	6
42	42	5
22	55	1
8	8	10
68	71	3
7	132	1
71	71	7
33	33	2
50	120	2
54	55	5
13	13	15
2	45	2
113	125	3
78	78	8
125	125	7
99	128	2
51	54	1
75	75	4
3	3	5
100	127	7
48	51	3
132	132	6
12	12	4
130	130	5
40	41	4
100	126	1
84	100	1
83	92	2
48	112	2
6	6	7
61	61	3
73	73	1
109	117	2
53	106	1
97	97	6
88	88	7
60	60	7
33	40	1
59	59	6
70	70	6
48	54	4
26	26	9
77	78	1
60	92	2
101	102	2
8	9	2
70	86	4
7	8	5
115	115	4
27	27	9
39	39	7
6	39	3
98	98	5
59	65	5
91	91	9
86	86	8
66	66	1
44	69	3
62	62	2
93	95	1
49	49	5
127	129	5
19	54	1
96	97	1
83	84	4
47	124	4
52	52	6
76	76	2
45	45	12
21	22	10
82	82	7
15	15	8
24	54	3
52	106	3
46	46	7
101	116	1
81	81	9
117	117	4
5	5	4
106	107	2
18	27	1
101	103	4
7	47	2
10	14	1
58	58	5
45	55	2
90	96	2
99	99	5
51	53	2
66	70	1
125	129	1
113	113	4
115	116	2
20	60	2
37	62	1
65	65	1
30	32	1
39	77	1
104	106	1
58	59	3
58	93	1
16	42	3
67	128	2
109	112	5
64	65	2
69	69	1
76	93	2
93	93	2
119	120	2
23	24	1
15	16	7
44	68	2
87	87	7
42	72	6
94	95	1
109	123	2
40	40	5
79	79	5
78	81	1
113	122	1
22	22	3
100	100	4
101	126	2
121	121	6
112	112	2
97	99	2
68	68	3
47	118	1
26	46	1
10	25	3
128	130	2
46	63	4
12	26	5
89	95	3
62	75	2
100	101	2
126	126	11
13	26	1
103	104	1
61	93	1
46	55	3
125	126	4
50	51	1
19	55	3
29	30	4
54	69	1
94	132	2
84	94	1
38	39	4
61	91	1
94	120	3
92	94	1
5	34	7
29	55	1
92	96	2
102	103	2
108	124	5
50	52	1
41	43	5
84	85	2
40	42	2
47	55	2
20	27	2
16	16	2
19	62	2
114	117	1
48	49	1
42	43	5
89	89	3
123	124	1
83	83	4
98	99	1
12	20	1
119	119	3
92	97	2
46	50	1
52	53	1
1	1	3
82	83	1
13	27	1
25	26	4
21	21	2
119	126	1
13	21	1
82	97	4
95	96	2
59	62	1
21	47	1
104	107	2
1	57	1
80	80	5
18	18	2
51	120	4
104	104	5
17	43	1
52	122	1
70	72	2
11	29	2
1	53	1
90	90	3
32	33	4
46	52	1
41	41	3
67	68	2
59	75	2
105	106	3
7	25	2
127	128	1
83	85	2
19	48	1
63	64	1
131	131	1
65	90	1
23	25	1
14	14	2
40	44	1
120	120	1
67	67	5
64	93	1
115	117	1
48	48	3
72	72	2
20	91	1
57	57	2
126	128	1
66	85	1
108	109	1
70	71	3
116	125	1
49	50	1
32	39	1
17	17	1
103	105	1
128	129	2
103	103	4
82	91	2
27	66	1
61	98	1
86	89	2
6	51	1
24	26	2
9	9	1
10	11	3
15	104	2
65	66	3
52	54	1
3	19	3
20	47	1
69	106	1
92	92	1
84	91	1
3	27	1
13	39	1
74	78	1
116	117	1
120	131	2
8	56	1
40	43	1
84	90	2
76	127	1
61	62	1
119	125	1
26	30	2
5	33	1
80	104	1
20	20	1
7	58	1
27	44	1
44	45	1
7	11	1
99	126	1
96	103	1
99	100	1
60	61	1
27	28	2
26	112	1
125	132	1
51	52	1
24	24	1
22	33	1
82	93	1
113	119	1
124	133	1
28	55	1
44	63	1
125	131	1
43	43	1
19	19	1
89	97	1
46	56	1
53	66	1
2	55	1
0	56	1
74	75	1
