154	154	12
124	124	5
22	22	10
41	42	3
8	8	5
23	25	6
114	116	1
144	146	2
76	76	6
4	4	10
108	109	5
109	111	9
0	1	2
102	102	5
153	153	7
6	7	6
33	33	4
74	76	2
45	45	2
167	167	2
115	115	5
61	61	1
168	168	3
13	17	1
4	11	2
129	134	3
155	156	4
158	158	3
70	70	1
101	101	11
92	92	4
151	151	15
119	128	7
54	54	6
55	55	5
183	183	2
179	179	3
176	176	3
116	133	2
87	87	7
135	136	3
39	39	6
7	7	10
103	110	3
113	113	13
172	173	1
97	98	3
6	6	10
5	5	11
149	149	12
140	140	7
83	83	6
91	92	7
58	58	5
184	184	6
113	117	2
150	150	9
164	165	7
68	72	6
28	29	2
62	62	2
64	65	2
181	181	1
36	37	1
173	173	7
64	64	2
84	85	9
30	32	1
117	117	3
157	157	8
152	152	11
161	162	7
31	32	8
129	129	9
125	128	1
116	116	1
13	14	4
103	103	9
58	59	4
37	37	6
163	163	10
17	17	4
104	104	6
16	16	12
148	150	1
94	94	6
124	125	2
71	71	8
5	6	2
92	94	5
103	125	1
2	2	13
18	19	2
86	86	6
141	141	7
81	81	2
128	128	11
89	90	4
76	78	3
52	52	2
124	140	1
113	115	1
162	163	6
185	185	10
24	38	5
13	16	2
184	186	2
81	118	5
62	63	2
185	186	5
132	136	3
121	121	11
79	79	8
112	112	7
64	76	2
126	127	4
63	74	3
101	110	2
119	135	1
46	46	2
38	38	7
111	111	2
27	30	4
138	139	1
109	109	6
98	99	3
12	12	7
107	107	1
66	67	11
57	57	8
108	108	5
76	79	2
100	100	7
83	84	3
148	148	14
156	156	3
65	75	1
110	111	4
134	135	4
139	147	2
112	113	1
23	24	7
37	38	3
25	25	6
188	188	2
86	87	4
119	120	5
49	53	1
138	152	2
14	14	2
66	68	2
145	145	4
39	40	3
43	44	1
127	127	4
43	43	4
171	173	2
24	25	5
44	44	3
16	22	2
56	59	1
163	175	1
120	141	2
90	109	4
109	128	1
91	91	5
96	97	6
96	99	1
130	130	3
59	67	1
73	74	2
140	141	2
131	153	3
41	41	4
80	80	1
92	117	4
122	138	2
88	88	5
129	154	6
21	21	4
157	163	2
6	10	2
87	103	2
96	96	5
72	72	6
95	95	10
109	113	2
162	178	1
15	16	4
73	73	5
90	90	3
129	131	2
122	122	6
24	24	4
98	100	2
62	64	2
123	123	7
93	94	5
84	84	6
1	2	2
129	130	2
74	75	6
173	174	1
132	132	2
44	45	1
104	110	1
42	42	7
133	133	2
53	53	5
170	170	5
93	95	2
16	24	3
59	59	4
127	128	3
95	97	2
88	100	1
68	68	2
188	189	4
152	153	4
95	96	2
1	1	6
135	135	4
110	110	5
46	47	6
169	169	3
41	46	2
42	44	2
82	82	8
23	23	6
9	13	3
40	40	4
184	185	4
27	27	4
182	182	2
77	77	6
18	20	1
138	138	5
149	150	3
117	118	3
23	38	1
120	120	5
125	125	4
67	67	1
101	102	4
83	91	3
180	180	3
40	42	1
168	173	2
162	162	2
66	104	2
25	44	3
132	135	2
147	148	3
111	112	1
102	113	2
165	166	1
18	18	2
99	99	2
78	78	5
48	48	1
67	74	3
13	15	3
60	60	4
160	161	3
163	164	6
156	158	2
56	56	6
133	134	2
138	143	1
157	160	1
103	129	1
8	16	1
109	110	3
165	167	1
89	89	2
15	21	1
23	36	2
32	33	2
149	189	1
146	146	3
15	15	3
179	180	1
187	188	3
76	91	2
90	91	1
105	106	4
122	123	2
157	161	2
60	83	1
75	75	2
9	9	3
38	39	2
74	121	2
3	3	8
147	147	2
160	160	2
170	183	3
139	139	5
69	70	5
142	142	6
139	141	1
114	114	3
161	161	1
151	153	1
0	0	3
104	108	1
8	14	1
76	84	1
53	54	3
24	37	1
93	118	1
47	47	2
20	20	1
28	28	5
117	119	2
148	153	1
23	37	1
26	26	4
66	74	2
165	165	10
93	93	3
79	82	1
74	74	5
19	20	1
189	189	1
110	134	1
45	46	4
131	131	1
76	86	1
94	108	2
33	36	2
166	166	1
103	127	1
91	126	1
123	124	2
141	144	1
163	165	1
164	164	3
36	36	2
55	56	2
129	155	2
159	159	3
119	123	3
57	58	2
35	36	1
150	151	2
35	35	4
110	141	1
102	118	1
61	74	1
158	161	2
28	33	2
153	176	1
24	40	1
7	8	2
80	81	3
85	85	4
166	183	2
137	139	1
44	47	2
133	135	1
8	23	1
120	126	1
47	48	2
29	29	3
77	120	1
65	74	3
154	155	1
54	55	2
136	138	1
146	147	1
98	107	1
97	100	1
87	88	4
67	68	3
4	5	1
175	177	2
137	154	1
182	183	2
102	103	3
35	37	3
141	152	1
77	80	1
151	154	1
84	102	1
65	66	1
145	146	1
22	25	1
76	92	1
127	129	2
121	122	1
127	154	1
141	142	4
69	69	1
167	181	1
107	109	2
80	84	1
25	28	1
125	127	1
139	145	2
58	60	1
14	15	2
161	180	1
136	136	1
61	64	1
62	65	1
9	21	2
77	78	1
80	82	1
75	76	2
148	152	1
134	143	1
15	22	1
9	14	1
159	160	1
131	148	1
174	175	1
105	108	1
169	180	2
148	154	2
104	130	1
13	13	1
172	172	1
14	16	1
157	158	1
56	57	1
175	175	1
134	142	1
156	157	1
149	152	1
92	102	1
186	187	1
91	93	1
91	127	1
190	190	1
