109	137	1
76	76	24
67	67	24
8	8	13
2	47	1
44	44	28
23	41	1
211	212	4
181	181	15
147	148	8
31	31	33
147	171	1
74	74	13
220	220	10
115	122	7
27	69	3
184	184	12
122	124	1
219	219	22
24	24	5
207	208	11
191	206	2
32	32	11
119	130	1
86	86	24
148	149	6
36	36	40
219	220	9
184	185	10
211	211	16
236	236	7
59	59	13
66	68	10
128	128	12
73	73	16
151	152	6
69	69	27
70	70	12
5	6	4
126	126	14
6	16	3
72	72	19
146	147	7
114	114	4
228	228	13
22	22	12
10	10	12
170	170	21
68	68	14
207	207	3
41	41	24
13	36	4
3	3	30
64	65	10
121	121	11
98	98	23
54	55	4
174	174	18
109	110	5
26	26	18
80	80	14
113	113	6
240	240	16
189	191	3
101	101	12
221	221	6
9	9	18
46	61	4
18	47	1
78	78	13
177	182	1
6	6	4
173	173	14
142	143	1
33	33	7
162	163	8
193	195	6
137	139	2
57	57	16
200	201	9
26	85	1
13	13	21
48	52	2
212	212	6
38	38	21
56	56	15
61	61	18
7	9	2
43	43	29
45	45	8
220	222	4
75	85	7
151	151	13
170	171	10
154	154	14
46	46	21
121	194	5
16	16	14
110	113	3
199	201	1
207	209	1
175	180	5
114	126	2
4	4	23
74	79	4
136	143	2
39	41	3
223	223	14
33	34	9
84	84	14
224	224	16
162	178	6
134	134	8
161	163	2
177	177	11
52	53	15
182	182	2
217	217	10
111	118	2
29	29	17
22	23	15
68	84	2
133	133	19
138	138	10
196	198	3
134	135	8
43	44	4
129	148	4
120	120	9
137	138	7
27	31	2
204	204	9
62	63	6
25	26	7
54	54	28
44	45	16
62	62	22
136	136	6
214	216	7
58	74	2
46	62	3
146	226	1
199	200	9
194	197	5
35	35	19
157	158	11
40	40	9
28	29	12
223	224	4
27	28	10
47	57	1
4	5	5
151	165	1
190	190	11
199	199	28
209	217	8
32	38	6
137	137	15
4	16	4
162	162	12
130	152	3
208	210	3
31	210	4
81	81	11
152	152	10
168	182	4
201	201	7
28	31	2
0	0	28
33	56	4
50	51	12
47	47	9
85	85	29
3	19	3
231	236	3
30	217	2
202	202	9
225	225	7
120	171	3
196	196	3
36	54	1
32	39	1
19	19	20
37	37	13
165	165	6
197	197	19
168	169	8
189	189	16
202	222	2
179	179	10
78	79	7
146	146	9
242	242	7
213	213	10
52	52	12
20	20	33
71	72	18
228	230	6
119	200	2
42	43	4
29	30	3
21	22	9
58	58	27
218	218	7
67	68	11
48	48	11
140	141	8
54	102	4
51	57	9
192	192	7
168	168	17
9	10	5
3	27	1
208	208	19
218	220	4
85	86	6
15	18	4
229	229	10
47	62	2
7	16	2
176	177	14
82	82	25
104	104	23
12	13	8
10	12	4
154	164	2
153	153	6
91	91	6
216	216	5
139	142	6
47	58	2
121	207	4
80	82	3
11	15	1
123	123	11
148	148	6
126	138	9
7	37	3
99	100	8
34	38	2
128	169	3
40	41	4
103	103	10
210	219	3
237	237	12
169	169	15
123	124	5
189	190	1
195	197	7
136	148	2
181	184	1
161	165	1
25	214	5
88	89	6
155	155	13
75	75	24
33	54	1
162	165	5
147	149	4
191	192	4
18	20	2
9	12	10
68	69	4
122	123	9
110	110	7
105	106	2
32	58	4
2	16	1
17	17	16
119	119	5
183	183	15
7	8	2
203	203	10
159	159	13
187	187	5
129	153	2
11	11	7
55	55	20
116	116	7
207	218	5
23	23	21
176	176	6
35	77	1
227	227	9
55	56	18
108	108	4
144	145	2
131	131	7
126	127	9
185	185	15
150	151	4
210	210	10
230	230	16
143	143	4
176	179	3
152	153	3
140	140	26
136	137	4
103	115	1
103	104	15
203	205	5
209	210	7
118	202	1
7	14	2
64	64	22
232	233	3
34	56	1
130	141	3
162	164	5
7	7	14
5	5	11
154	191	1
54	101	10
49	51	5
166	166	15
114	115	4
156	156	7
49	49	19
155	227	4
164	165	7
127	203	5
118	118	7
29	178	5
75	80	2
73	74	13
89	100	1
205	205	6
52	91	4
155	158	2
31	40	1
115	118	3
191	191	10
84	85	9
36	37	4
108	109	3
15	16	7
222	222	9
2	3	6
221	222	10
8	9	12
197	198	3
12	14	6
227	228	4
60	60	18
48	88	4
19	31	6
68	83	3
217	221	5
2	2	12
130	130	9
150	150	9
35	36	6
218	221	4
71	71	8
26	67	8
171	171	33
30	209	6
49	82	1
155	226	1
172	172	11
135	135	10
1	2	6
100	100	8
130	170	1
9	24	3
215	215	11
28	28	14
18	18	26
75	77	4
239	240	5
46	47	4
12	85	2
149	210	5
45	46	4
49	50	3
142	142	8
142	162	2
102	102	16
192	196	4
51	53	3
51	51	21
25	47	4
102	103	7
133	137	1
160	165	6
209	209	7
77	77	18
95	99	1
50	50	17
44	46	2
57	60	4
57	62	3
52	55	2
147	147	8
127	223	2
15	15	22
37	38	3
16	17	6
200	200	6
49	59	2
109	135	2
30	32	4
185	186	6
79	79	11
24	25	9
225	227	3
119	201	1
31	32	4
117	117	13
65	65	17
159	160	7
60	61	3
122	122	5
56	88	4
59	60	6
234	234	13
150	153	3
195	195	14
138	139	8
123	163	4
105	105	7
8	29	2
115	115	11
8	62	1
19	59	6
19	27	3
65	91	4
214	215	3
25	25	12
210	212	2
89	89	4
150	212	1
34	34	23
80	81	1
111	111	5
112	112	5
1	1	7
125	125	10
163	164	3
166	167	4
72	76	2
60	62	2
181	183	6
97	99	2
0	60	1
33	44	2
10	155	4
160	160	7
58	98	4
37	86	3
194	194	10
82	83	2
123	208	2
233	233	7
144	144	8
210	217	14
107	149	1
129	129	7
214	214	4
122	191	1
208	216	1
55	57	7
141	141	7
0	1	4
133	135	3
39	39	14
185	226	8
123	127	9
25	86	5
20	43	1
86	87	5
118	119	1
192	193	7
178	178	6
73	99	3
12	77	1
46	86	2
136	162	3
27	27	14
125	126	9
97	97	10
220	221	6
74	75	2
63	73	2
184	186	1
3	11	4
201	202	5
143	209	1
205	206	9
45	85	2
107	108	1
167	167	12
189	192	1
222	223	2
212	223	1
41	42	3
81	82	7
63	64	9
76	82	2
150	152	2
206	222	2
121	192	1
196	216	1
106	119	1
141	146	2
49	106	2
52	57	4
66	67	4
128	129	2
29	217	3
49	54	1
238	238	13
79	82	1
47	48	2
148	150	3
161	224	3
49	52	6
213	216	4
196	197	3
50	60	1
241	242	4
48	82	4
161	166	3
45	73	2
127	127	14
42	42	12
106	106	10
228	229	7
6	17	7
30	30	13
35	48	2
132	152	1
169	185	2
2	8	3
175	175	14
98	114	4
160	174	2
11	23	2
83	83	26
220	223	4
120	140	2
186	187	3
66	66	9
135	228	2
19	30	3
49	105	6
161	211	1
77	79	5
21	78	1
98	99	3
143	144	2
68	70	2
102	104	2
106	118	1
12	12	15
169	171	4
92	92	3
71	106	1
216	217	2
137	141	4
232	232	4
208	217	1
168	170	4
178	180	1
186	188	4
185	225	1
207	212	2
83	84	2
97	98	2
206	223	1
23	40	4
48	49	14
161	212	1
151	213	6
178	205	5
131	138	3
141	142	4
235	236	1
65	67	3
71	73	3
30	210	5
12	15	4
14	15	1
237	238	2
10	11	6
162	210	2
34	35	14
125	168	4
156	158	4
231	231	7
33	59	2
169	170	8
145	215	2
139	139	9
240	241	1
124	124	5
70	71	5
180	184	2
141	209	2
20	55	1
180	180	11
198	198	3
203	204	3
150	191	1
56	62	4
21	21	16
109	149	4
5	7	3
88	88	7
204	205	1
47	88	5
107	107	11
1	37	1
44	86	2
193	193	4
0	27	1
149	149	3
44	64	3
194	196	4
102	108	1
158	158	4
29	31	3
175	176	2
63	63	8
12	20	2
167	184	6
3	36	2
163	163	6
7	29	1
140	142	2
53	53	6
1	3	5
29	211	1
27	33	2
163	177	3
121	122	1
111	149	1
9	21	3
11	231	2
34	51	2
28	63	2
48	103	2
109	133	1
226	226	11
188	188	9
6	7	2
164	164	4
190	191	5
10	64	3
73	75	2
116	169	1
190	210	2
182	184	1
24	78	2
193	194	1
53	55	3
46	48	2
20	27	1
151	212	1
110	134	1
18	19	6
101	103	3
57	59	1
40	42	3
50	52	7
109	109	3
144	146	2
22	24	1
70	73	2
150	192	4
178	179	3
61	62	1
10	26	6
47	103	1
96	96	4
65	68	2
1	11	2
197	199	1
54	60	1
113	114	2
18	58	3
208	215	1
23	81	2
156	225	2
119	120	7
208	209	4
154	161	4
146	162	2
102	115	1
197	200	1
131	152	2
156	187	1
158	203	2
56	58	1
160	178	1
113	117	2
165	236	1
6	30	2
48	60	4
107	115	6
37	54	1
161	161	6
51	52	3
188	189	3
46	64	3
127	128	2
153	157	1
121	216	2
37	46	3
239	239	7
31	217	1
136	139	1
235	235	3
206	213	1
116	117	3
143	182	3
25	46	3
132	133	1
159	225	1
203	223	1
86	97	3
54	56	3
11	37	1
186	186	5
144	227	5
226	227	3
27	204	2
25	34	1
154	179	1
99	99	5
157	203	2
48	51	2
178	186	2
212	213	3
8	33	3
158	162	4
0	58	3
155	156	2
205	212	1
122	126	4
2	4	2
179	180	1
39	61	2
58	61	2
161	168	1
73	98	1
95	96	3
62	73	1
160	161	3
192	194	3
229	230	3
153	154	1
81	84	4
82	84	1
114	169	3
153	156	1
155	190	1
135	159	1
54	57	2
113	167	1
125	128	6
205	208	1
119	198	3
118	122	2
139	210	1
200	215	2
35	54	1
5	18	1
129	130	3
205	213	1
131	132	2
177	178	4
62	74	2
65	66	2
34	36	1
15	26	1
198	200	3
19	33	1
39	42	2
123	207	2
64	67	1
211	223	2
197	202	1
236	238	1
16	29	1
56	57	2
215	216	2
107	147	1
20	24	1
234	235	1
13	15	4
32	37	1
11	20	2
23	24	6
76	77	2
138	140	1
206	206	9
112	170	1
123	166	2
5	37	2
22	52	2
211	214	1
24	40	1
1	16	4
161	162	5
77	78	4
136	138	4
28	203	1
53	54	2
11	12	2
135	136	3
24	64	1
218	219	3
195	202	1
129	170	1
153	211	3
107	119	1
216	220	3
106	107	1
188	212	1
165	166	1
195	196	4
167	185	1
11	13	1
116	125	1
241	241	3
39	40	1
117	118	1
211	213	1
28	30	1
195	223	2
33	35	2
122	161	1
3	16	2
32	33	2
52	101	3
79	81	1
151	201	1
71	74	2
206	214	2
156	203	1
35	102	1
114	119	1
156	157	1
174	182	5
125	224	1
107	109	3
58	60	2
11	61	1
117	122	2
122	192	1
13	166	2
30	177	4
81	83	2
48	63	3
134	145	1
127	208	5
179	184	1
178	206	1
116	167	1
129	169	1
122	208	2
100	101	2
133	145	1
145	227	1
198	205	1
142	145	1
17	18	2
108	134	3
80	83	2
2	11	1
0	40	1
104	105	2
117	123	1
122	216	2
212	215	2
230	232	1
22	49	3
8	177	1
177	179	2
154	226	2
105	115	1
115	119	1
153	155	1
103	105	1
198	199	3
12	22	1
58	143	1
66	69	1
23	82	1
164	175	1
199	206	1
48	53	1
98	100	2
194	195	1
95	95	5
63	65	1
22	78	2
17	142	1
157	157	2
160	162	6
49	53	1
43	45	1
0	28	1
72	73	1
147	227	1
101	102	1
33	36	1
119	169	1
168	177	1
22	60	1
50	106	1
128	206	1
122	127	2
80	84	2
5	177	1
47	101	2
198	216	3
6	34	1
155	189	1
126	203	2
120	205	1
133	172	3
115	116	1
44	73	2
67	70	2
12	86	1
198	201	1
118	126	1
34	65	1
228	231	2
189	210	1
102	105	1
196	215	1
125	144	1
8	54	1
151	211	2
42	44	1
75	76	1
174	175	1
176	182	1
47	52	1
3	4	1
118	120	1
149	215	1
154	213	1
104	107	1
19	21	1
112	113	1
79	80	2
233	234	1
134	142	1
143	173	1
8	56	1
160	166	1
132	132	2
96	97	1
197	219	1
164	177	1
33	37	1
185	224	2
2	59	1
4	8	1
7	10	1
26	46	2
5	14	1
49	55	1
5	30	1
15	67	1
139	141	1
183	186	1
156	199	1
154	155	1
15	236	1
120	201	1
1	4	1
124	161	1
72	113	1
129	131	1
183	184	1
113	169	1
142	144	2
46	72	1
23	89	1
25	190	1
24	62	1
50	53	1
75	79	1
54	64	1
152	189	1
141	143	1
