232	232	12
238	239	1
198	198	15
240	240	9
142	142	9
37	38	9
146	149	4
162	162	6
67	67	21
18	18	6
191	191	5
7	7	8
44	45	9
1	1	11
31	31	22
178	181	11
56	56	13
47	50	2
64	65	3
122	122	6
116	117	3
186	186	1
187	191	3
220	220	14
85	85	22
10	54	3
35	36	7
134	142	1
0	9	4
44	218	1
31	32	7
199	199	7
227	237	7
181	181	5
128	129	4
66	66	6
66	87	3
10	37	6
86	88	4
69	69	21
30	30	19
202	202	7
64	64	9
32	33	4
12	12	16
170	176	3
211	213	4
59	59	11
26	26	21
33	33	7
72	72	9
183	198	2
50	50	8
107	107	6
63	67	3
74	74	31
40	40	11
67	68	6
88	88	8
17	24	8
32	32	7
224	224	12
36	36	19
33	36	3
46	46	13
19	19	16
103	103	7
72	236	3
63	63	5
34	34	5
45	45	10
152	152	11
24	25	2
91	91	4
57	66	5
70	70	9
205	206	2
139	142	1
75	75	24
83	83	6
66	67	13
227	227	7
8	8	11
22	23	9
3	3	28
100	100	32
169	169	6
184	184	6
203	203	1
170	170	9
48	53	4
180	183	3
235	235	4
20	20	16
40	42	1
56	57	10
123	123	10
53	154	1
160	160	11
242	242	2
28	28	12
186	187	2
124	124	8
222	222	8
145	145	10
61	61	17
42	42	16
154	155	2
27	39	1
178	178	9
0	0	5
47	48	6
27	29	6
2	5	3
54	54	5
205	208	5
165	165	12
164	164	2
141	146	2
27	28	7
22	55	2
60	74	3
106	106	7
233	233	11
46	74	3
36	58	2
216	218	2
62	63	7
37	37	3
26	231	2
48	51	3
71	71	16
230	231	2
75	101	2
227	231	2
58	58	19
53	75	2
41	45	1
5	5	2
45	46	5
100	102	2
105	105	8
116	116	5
76	113	3
86	86	16
181	209	4
88	89	6
237	237	7
196	196	5
37	71	1
44	44	10
230	230	5
50	102	2
67	88	4
190	190	3
155	190	3
185	186	2
7	16	1
117	117	6
239	240	3
39	39	4
23	23	10
173	173	18
34	35	7
122	144	1
73	75	4
37	39	6
157	157	6
82	82	3
212	212	3
81	82	6
21	31	1
147	147	6
216	216	6
57	57	4
114	117	2
122	151	5
200	201	5
224	225	7
39	216	3
129	131	4
230	235	4
18	19	4
127	129	1
143	143	17
240	241	6
40	47	2
129	129	3
84	85	6
43	62	4
134	167	3
133	134	5
212	213	4
52	52	5
107	125	1
176	176	8
18	20	4
196	197	4
74	86	7
180	181	1
219	219	15
188	188	4
194	194	6
17	33	1
104	125	4
22	22	8
43	43	21
218	218	7
69	173	4
208	208	9
86	89	7
192	192	4
55	57	6
229	237	3
156	157	2
200	208	2
119	119	9
197	208	2
81	81	6
161	168	4
167	169	4
99	99	10
25	28	3
35	35	4
206	219	2
113	113	15
29	29	13
241	242	7
50	75	1
188	189	2
106	108	1
184	189	2
117	118	5
95	96	2
45	51	2
71	73	6
164	173	2
8	21	3
197	197	6
196	225	3
114	119	3
53	54	2
141	141	5
212	223	1
19	21	3
11	20	4
40	41	8
14	14	10
47	55	2
53	53	11
225	226	4
228	237	4
205	205	5
18	21	3
48	48	10
65	65	6
101	108	3
100	101	11
146	151	4
0	25	3
111	112	1
232	233	7
241	241	7
112	112	2
201	201	13
105	106	9
9	10	1
131	150	4
12	13	8
26	27	6
84	143	3
2	2	15
55	55	9
203	204	8
27	27	17
214	214	4
238	238	5
77	77	2
46	47	9
47	47	10
109	109	1
234	234	5
102	102	12
139	140	3
27	231	1
148	148	5
144	145	3
106	125	1
15	15	1
42	44	3
233	234	6
80	81	3
118	118	9
189	190	1
19	23	3
225	225	7
84	84	6
48	52	1
123	124	4
125	125	4
106	111	4
107	126	3
65	66	1
207	208	10
74	75	3
104	105	7
183	186	2
49	49	12
193	193	4
11	38	1
144	144	6
21	40	5
220	223	5
101	101	4
80	88	3
175	176	4
128	128	1
60	65	3
200	200	5
137	170	2
138	139	1
173	175	2
32	38	3
130	130	3
221	221	4
162	163	5
32	39	2
31	41	5
36	40	3
42	43	4
185	185	8
153	158	3
115	115	2
11	11	8
183	197	4
38	39	1
185	197	1
190	192	2
114	114	9
100	162	2
126	127	4
137	137	7
154	154	1
62	62	10
105	107	1
69	70	7
63	64	7
163	166	1
24	24	12
181	211	1
16	18	2
11	28	2
187	187	9
76	76	4
220	221	5
229	229	4
60	158	5
127	127	3
182	184	2
136	136	8
117	126	3
70	71	3
137	150	1
213	213	4
177	177	14
135	136	3
78	78	8
152	153	2
167	168	4
174	175	4
58	151	6
207	224	2
42	74	1
235	236	3
114	115	7
125	129	4
132	133	5
12	39	1
219	220	8
171	171	6
101	102	2
226	227	8
206	206	8
10	53	4
72	86	1
172	173	6
229	230	8
66	133	3
119	121	5
41	41	8
40	73	1
104	104	4
158	158	7
231	231	5
204	207	2
58	59	2
73	74	6
158	159	4
134	138	4
123	126	6
68	76	1
68	204	3
39	70	1
79	80	1
6	7	6
204	218	6
12	19	3
109	112	4
203	225	3
21	25	1
230	242	2
179	179	5
37	55	1
25	25	5
168	168	3
172	177	4
230	232	6
217	218	4
113	117	2
153	153	4
47	80	2
44	232	2
44	205	5
72	75	2
114	116	5
7	9	2
107	123	5
162	167	1
177	178	7
183	183	7
59	66	1
210	214	1
70	73	1
195	219	2
187	193	1
233	237	3
182	182	3
20	230	3
174	182	3
147	151	2
187	201	3
189	189	3
68	69	7
28	234	1
78	95	1
1	36	3
60	61	2
126	126	1
74	149	3
156	156	1
215	216	1
175	175	7
184	186	1
231	232	3
5	7	1
11	30	2
201	202	4
134	134	3
101	162	6
170	171	5
223	223	6
21	21	5
73	73	11
61	62	3
125	127	3
21	22	1
28	226	1
29	30	1
213	223	1
228	229	3
3	8	5
72	159	1
155	155	5
169	170	1
54	56	1
112	113	1
226	226	2
77	78	1
209	209	7
228	228	5
161	161	2
138	138	5
198	199	1
159	159	4
52	57	2
195	195	1
6	6	5
117	123	8
16	16	4
20	36	4
43	44	1
32	37	3
10	10	5
60	70	4
72	230	2
201	227	2
190	191	4
116	118	1
5	17	2
76	83	1
113	122	3
4	4	7
96	96	1
53	68	3
131	131	3
231	235	2
110	120	2
98	99	2
8	11	1
48	64	1
45	65	1
20	30	4
219	221	2
97	97	2
10	11	4
99	100	3
110	110	2
187	188	2
5	15	1
80	80	1
151	151	2
168	169	2
89	89	2
1	2	2
4	8	1
172	172	6
171	172	5
110	111	1
212	219	3
55	70	2
169	182	1
88	101	1
223	225	2
16	17	2
154	156	1
75	97	1
59	77	1
39	61	1
64	203	2
135	135	4
35	38	2
120	120	3
62	64	5
0	2	1
11	36	1
167	167	3
26	39	1
75	86	1
136	156	2
147	148	3
13	14	3
132	132	2
50	155	2
134	135	4
181	183	3
109	110	2
8	20	1
207	207	3
48	55	3
20	21	1
7	8	6
179	180	1
108	108	1
41	43	2
113	114	2
133	133	5
173	174	1
26	29	1
9	55	3
83	102	3
209	210	3
96	106	2
166	167	3
237	240	1
11	17	2
87	87	1
59	158	1
169	171	3
142	143	2
163	176	1
232	237	2
95	101	1
137	142	1
174	174	5
178	182	1
36	38	1
34	36	3
236	240	1
33	60	2
81	97	2
204	204	1
96	97	1
25	26	2
28	30	1
215	225	2
139	139	4
106	107	2
184	185	1
182	194	3
83	88	1
106	115	1
140	140	2
119	120	2
103	104	2
17	17	2
68	75	2
146	146	3
48	50	2
54	55	2
63	65	1
68	73	1
1	9	2
11	12	2
127	130	2
150	152	2
52	53	2
166	166	1
194	199	2
75	76	1
159	229	1
18	33	1
20	23	1
95	95	2
54	58	4
152	156	2
101	103	1
86	102	2
9	37	1
82	83	1
42	230	2
18	48	2
28	231	1
118	123	1
58	61	2
33	34	1
48	56	1
0	8	1
218	219	1
43	216	1
210	224	1
85	86	1
178	180	1
72	87	1
217	217	2
234	235	1
103	108	1
78	79	2
195	196	3
199	208	2
54	69	1
72	73	2
5	6	2
136	163	2
23	24	3
192	225	1
10	236	1
32	34	1
65	67	1
0	3	2
107	109	1
37	53	2
211	215	2
181	182	2
149	150	2
49	56	2
88	178	1
20	22	1
19	20	1
213	214	2
19	36	2
154	157	2
9	9	4
66	191	1
105	109	1
128	131	1
54	57	1
170	178	1
49	80	1
122	123	1
47	74	1
221	222	3
39	73	1
163	163	2
124	126	1
33	38	2
4	13	1
51	53	2
38	38	2
46	52	1
118	119	1
231	240	1
49	79	2
26	28	2
140	144	2
105	119	1
3	4	1
216	219	2
47	234	1
38	235	1
237	238	1
76	81	2
19	37	1
180	180	1
102	105	2
28	232	3
15	16	1
9	24	2
51	51	1
196	203	1
79	108	1
111	114	1
75	85	1
41	42	1
50	51	1
164	172	1
4	5	2
51	74	2
204	206	1
53	66	2
228	239	1
60	60	1
58	65	1
2	8	1
115	127	1
48	102	1
