51	51	2
110	110	5
31	140	2
13	15	2
148	152	3
135	135	3
54	54	9
1	1	2
99	99	2
139	139	4
82	83	2
98	98	5
129	150	1
20	20	2
7	135	6
133	133	4
0	1	2
151	151	11
100	100	5
142	142	5
45	46	1
121	122	1
47	47	3
26	26	3
15	15	6
31	31	6
75	75	3
50	52	2
78	79	6
30	30	2
38	38	4
111	111	3
113	113	6
2	2	4
71	78	1
43	84	3
2	11	2
112	112	3
107	138	3
53	71	2
101	102	1
23	24	5
40	40	1
120	120	2
9	9	2
4	4	1
114	114	4
113	142	1
87	87	9
86	86	1
88	88	5
29	29	7
47	75	3
52	54	1
138	138	1
115	124	3
96	97	2
12	12	4
25	25	3
19	20	5
65	66	1
158	158	7
46	75	5
105	105	2
14	14	7
141	144	5
3	40	3
94	94	8
95	95	3
7	7	7
46	47	1
31	85	3
126	126	1
17	91	2
7	91	1
32	32	2
42	42	1
33	34	7
146	147	2
152	154	3
39	39	3
124	124	9
27	27	5
13	13	1
118	120	5
141	141	1
132	155	1
40	42	2
67	67	3
35	35	1
3	70	2
126	127	3
120	123	2
153	153	2
132	134	1
91	91	4
132	132	5
119	120	2
92	92	3
102	103	3
143	146	3
3	13	1
54	55	2
136	136	3
28	28	3
119	119	3
32	36	1
145	153	4
3	3	3
130	130	1
48	51	1
116	116	2
52	52	3
107	156	1
10	10	3
83	83	3
145	145	1
43	43	3
68	68	3
123	123	3
137	137	3
107	107	3
129	129	1
27	34	1
48	49	2
78	78	2
108	109	1
72	72	2
30	140	3
134	135	2
122	122	2
156	156	2
8	18	1
8	134	1
110	111	1
127	148	1
30	31	2
12	26	3
45	77	1
134	155	1
95	96	1
134	134	1
68	83	2
101	101	3
90	90	1
152	152	2
114	115	2
135	137	1
136	138	2
20	50	1
28	39	2
50	51	1
122	124	2
127	141	1
41	41	2
4	7	1
68	69	1
131	131	1
84	84	1
121	144	1
150	150	3
37	39	2
69	69	1
94	95	1
106	106	1
80	80	1
52	53	1
91	92	1
147	148	2
127	128	1
93	93	1
12	141	1
109	109	1
22	37	1
70	71	1
131	133	1
127	127	1
46	46	1
157	157	1
115	122	3
115	120	1
121	127	1
