5	6	8
28	28	9
12	13	6
14	31	3
8	8	17
25	26	5
47	47	9
55	55	13
64	66	10
9	9	11
11	21	1
31	31	3
64	64	13
19	20	6
11	23	1
13	13	1
23	70	2
37	37	4
33	46	2
36	37	3
20	20	18
54	54	9
43	43	3
28	72	3
56	56	1
27	28	6
33	33	4
2	2	9
28	29	4
9	77	2
9	13	3
1	31	1
18	70	2
38	40	2
29	33	3
23	31	2
55	56	10
14	45	1
1	6	1
27	29	1
58	58	3
47	48	2
19	19	21
35	35	9
60	60	7
10	60	2
47	52	5
46	46	13
21	21	13
9	10	1
61	61	2
20	21	3
61	66	2
48	51	2
39	40	5
34	35	3
32	32	5
30	69	4
7	61	4
6	6	12
24	30	3
41	42	6
77	78	3
27	34	1
69	71	1
63	64	4
4	4	17
13	72	2
50	50	7
49	49	11
32	39	2
48	48	24
57	68	1
73	73	2
29	72	4
3	33	3
1	69	4
22	22	14
57	74	5
53	54	1
31	34	5
7	8	6
1	5	7
23	23	4
41	41	6
4	25	3
51	51	12
44	45	5
21	74	2
70	70	2
42	42	6
74	74	4
25	25	7
0	2	5
61	65	4
8	77	1
0	74	2
47	55	1
24	25	5
69	69	9
1	30	6
22	23	7
10	10	6
70	71	5
24	24	4
38	51	2
34	41	3
0	0	8
11	11	13
76	76	5
5	72	4
0	1	4
12	47	2
18	18	3
45	46	4
23	24	4
19	70	3
3	3	8
39	39	5
13	28	2
0	47	1
12	12	4
23	27	2
59	69	3
53	53	6
0	28	3
57	75	4
1	27	2
72	73	5
8	75	4
1	2	3
29	34	8
26	26	8
10	11	1
35	39	4
26	28	1
65	66	5
40	40	1
12	46	3
62	63	1
59	59	3
5	5	7
21	22	4
34	34	3
67	70	5
29	30	2
27	35	2
38	41	4
25	28	5
71	72	2
54	58	1
60	61	2
11	12	4
7	7	10
32	35	2
3	12	1
1	1	1
22	46	2
4	5	2
0	6	2
3	29	4
66	66	5
2	6	3
38	38	1
65	65	8
33	34	2
6	7	1
49	51	2
8	13	1
13	14	1
8	29	1
10	42	1
29	29	3
30	38	2
45	45	1
13	44	2
13	77	1
58	67	4
30	30	2
44	72	3
1	73	3
26	27	4
14	25	1
72	76	2
73	74	2
44	44	2
49	64	1
77	77	7
3	6	1
58	62	5
39	45	1
43	44	1
67	67	2
75	76	1
19	21	3
49	57	2
8	9	2
32	44	1
63	66	2
14	14	1
28	30	1
22	26	2
9	60	1
39	72	1
36	36	2
71	71	2
9	24	1
63	63	1
76	77	1
24	27	1
25	27	3
27	27	1
36	38	1
9	12	1
62	64	1
50	51	1
34	38	1
30	31	2
4	29	1
6	73	1
7	42	1
0	73	1
9	23	1
18	42	2
66	68	1
10	23	1
53	55	1
62	67	1
75	75	4
6	75	1
58	64	2
66	67	2
52	52	1
68	68	1
30	33	1
57	57	2
32	45	1
