137	138	10
44	44	18
96	97	17
97	97	13
56	56	19
33	35	10
74	75	3
68	73	3
135	135	38
40	78	6
119	119	12
23	23	20
83	83	26
47	47	30
65	66	7
79	79	19
63	64	3
84	84	27
39	39	37
105	110	3
93	93	21
83	84	4
4	5	10
63	78	4
131	131	13
112	113	5
44	46	2
36	86	5
21	69	2
36	37	7
72	72	15
109	109	24
57	57	35
122	129	5
101	102	13
30	30	18
76	76	20
96	96	20
81	83	2
131	135	4
54	55	9
51	54	1
52	52	11
35	38	2
77	98	3
105	106	8
22	22	12
122	122	14
45	45	9
93	95	3
40	40	34
49	49	15
69	76	4
100	100	23
17	17	24
95	98	6
110	113	1
66	103	4
152	152	16
65	65	12
151	151	13
51	55	2
27	33	2
89	106	4
149	149	21
4	22	3
86	86	22
31	31	36
112	112	18
133	133	33
28	28	9
11	67	4
27	28	4
95	96	16
17	18	6
48	48	33
95	95	17
73	74	8
53	54	5
11	12	20
98	99	15
4	71	3
114	119	2
36	38	3
71	141	7
130	146	2
108	110	12
47	48	4
55	55	16
118	119	4
141	142	10
50	51	15
121	121	5
48	49	12
68	68	29
12	12	17
37	37	26
29	29	6
70	73	3
8	9	22
38	39	3
19	19	30
30	31	5
84	85	19
43	43	31
22	23	11
25	63	3
97	98	10
99	101	4
35	35	16
54	54	30
25	25	21
7	7	12
140	141	10
94	94	21
136	136	18
6	6	12
21	21	25
65	69	1
71	71	40
67	101	7
82	83	9
62	62	16
56	89	2
150	150	22
56	63	1
21	30	2
42	43	6
77	77	33
96	99	3
70	70	25
32	33	12
19	20	4
32	37	2
100	130	1
87	87	9
126	130	5
136	137	7
144	144	10
99	99	14
42	42	24
69	70	6
138	143	4
46	53	1
77	78	12
10	27	2
132	132	26
150	151	10
143	143	5
111	111	18
75	75	26
110	111	8
107	108	7
101	101	6
123	130	3
50	50	23
34	35	11
98	98	12
148	148	9
6	11	1
21	98	2
149	150	3
49	50	11
13	14	7
118	118	16
76	93	2
79	80	2
66	66	17
50	77	3
128	129	5
37	38	8
119	120	6
5	6	13
63	74	1
64	64	18
117	117	18
61	112	2
66	67	11
38	38	36
115	115	10
46	48	2
20	20	20
13	13	16
120	120	28
41	42	10
27	27	26
132	135	9
139	139	11
14	15	22
82	84	4
144	145	5
137	137	10
64	74	1
104	104	16
34	34	15
8	20	3
43	57	6
68	72	6
86	93	4
75	77	4
63	80	4
153	153	13
79	94	4
126	128	5
30	32	3
106	106	18
69	69	23
123	123	32
36	36	23
85	85	13
15	16	10
129	132	5
86	87	10
145	145	8
62	77	4
24	24	25
90	90	10
4	7	6
127	127	19
134	150	1
107	109	2
71	73	6
110	141	4
43	44	12
71	72	3
128	128	17
20	88	3
32	32	13
45	49	1
154	154	12
48	54	2
116	116	16
63	79	1
75	108	2
44	48	3
97	99	4
102	102	19
139	149	5
109	110	4
23	25	6
142	142	17
67	122	2
119	123	6
79	92	3
28	33	1
14	14	28
49	53	8
135	136	1
20	21	1
52	54	3
49	55	1
151	153	6
25	31	6
99	100	11
89	89	1
76	77	6
43	45	5
22	25	6
92	96	2
106	117	3
152	153	6
81	81	10
92	92	4
139	143	2
136	146	1
135	138	3
137	139	2
56	69	4
110	112	4
21	28	2
100	101	8
113	113	27
106	115	4
9	9	28
11	11	33
132	134	4
7	50	2
57	58	4
5	84	3
47	50	5
79	87	4
16	16	14
139	147	3
80	82	3
105	105	19
43	46	3
39	40	15
37	57	1
132	139	2
104	118	8
111	113	4
24	45	8
141	143	6
116	117	5
78	78	26
12	32	7
28	30	5
2	2	4
41	41	7
65	121	5
109	113	1
30	44	3
124	124	15
8	12	5
51	51	15
8	8	10
114	114	13
13	21	3
146	146	13
66	84	4
10	10	15
91	91	4
29	32	2
4	4	10
122	123	1
105	108	4
106	108	4
103	103	11
110	110	23
29	30	12
38	40	4
82	82	18
21	22	7
26	30	4
42	45	2
75	76	10
103	119	3
67	69	3
108	108	12
26	26	9
125	126	7
77	80	4
78	96	2
123	128	6
5	7	3
25	27	5
83	94	6
10	11	10
37	53	3
8	37	5
67	67	19
56	57	6
125	125	14
15	15	10
133	135	1
28	35	1
80	80	9
11	26	2
23	24	6
147	147	21
50	54	2
33	33	12
33	34	7
124	125	7
138	145	4
99	109	4
130	130	19
24	77	6
11	27	2
49	52	4
133	138	2
120	121	12
17	78	1
143	147	1
134	134	17
34	36	5
121	122	10
74	74	9
62	63	6
79	81	2
10	85	2
67	74	1
73	75	4
27	36	3
140	140	7
6	8	2
93	96	4
34	57	2
144	146	9
74	97	7
6	7	9
55	56	6
5	5	13
135	149	2
84	91	2
102	103	5
47	49	1
126	126	15
83	85	8
79	95	3
11	48	2
35	37	3
94	98	4
106	107	4
78	79	5
43	68	4
55	57	1
37	41	3
68	69	15
126	127	3
21	87	1
135	154	1
35	36	8
83	86	6
104	106	4
64	86	1
53	53	27
114	117	1
64	98	4
76	78	11
93	97	3
40	41	2
115	116	7
134	136	1
73	73	14
65	67	3
27	29	3
29	78	2
44	45	10
133	145	3
133	134	10
79	96	1
79	98	3
31	32	5
22	30	2
87	88	3
104	105	5
119	130	2
130	132	3
32	38	1
46	46	11
77	79	6
104	107	2
69	72	4
107	107	11
76	110	6
149	152	6
141	141	13
117	133	1
122	133	3
78	80	3
25	45	3
3	30	1
40	44	1
4	9	1
20	22	4
142	143	7
129	147	2
102	120	4
72	82	2
13	35	1
120	132	2
78	86	2
12	14	9
64	111	3
114	115	2
25	26	23
19	23	2
78	82	2
144	148	6
138	139	8
54	76	2
67	71	4
29	33	1
123	132	1
86	88	4
30	33	2
93	94	9
98	101	1
67	68	8
138	144	1
24	62	2
68	119	2
129	129	6
8	71	3
55	65	1
18	18	7
37	39	5
42	44	3
137	149	1
67	73	1
119	132	3
58	58	4
4	8	4
92	94	2
138	141	1
66	78	4
119	122	2
53	55	6
85	86	3
125	127	3
32	34	1
64	66	6
74	92	1
122	125	2
6	10	3
127	129	2
107	110	4
138	140	1
116	118	3
103	133	1
7	38	2
138	138	8
19	30	2
20	99	1
2	3	3
8	10	3
103	111	3
41	49	1
14	23	1
28	29	1
45	46	11
9	10	3
66	101	2
70	71	4
114	118	1
24	25	3
72	73	8
66	73	1
131	132	13
109	116	2
148	149	2
124	126	4
66	125	2
103	115	1
18	19	6
41	53	3
73	76	4
79	83	3
63	136	2
136	145	2
37	80	2
54	56	3
48	50	1
41	102	1
88	89	1
32	66	1
7	8	3
12	57	1
45	51	2
143	148	2
4	66	4
66	68	4
88	88	4
124	128	4
20	77	3
41	43	2
3	3	4
103	104	3
10	90	2
81	82	6
51	67	2
101	121	3
38	41	5
36	42	2
79	86	1
31	34	1
44	47	1
30	74	1
78	93	3
133	136	4
134	135	2
137	146	1
30	58	2
147	148	4
147	150	1
63	63	6
36	58	1
84	132	3
132	133	5
61	63	3
70	138	1
145	146	3
32	35	5
95	97	3
153	154	3
25	29	4
108	109	5
130	133	2
43	48	2
85	91	2
67	70	3
76	99	2
142	145	5
69	135	1
78	83	4
119	121	7
65	73	4
58	80	1
130	131	4
6	33	1
25	64	6
20	40	1
151	152	7
115	134	4
4	6	6
80	81	6
22	24	2
105	109	1
101	120	1
65	70	2
77	128	1
30	55	3
74	86	1
15	17	2
139	140	1
136	152	3
19	22	7
112	114	3
122	127	3
140	151	1
74	85	1
14	24	1
137	144	1
150	153	1
147	149	2
12	13	2
139	144	4
113	115	3
137	150	2
99	111	1
75	93	1
86	106	2
118	128	1
63	114	1
17	19	10
84	87	2
113	114	4
16	20	3
21	26	1
65	74	1
69	71	2
18	20	1
3	7	1
20	76	2
121	136	3
138	149	2
31	33	4
12	30	3
37	40	3
31	36	1
9	12	4
129	130	3
53	56	4
58	65	1
32	56	2
50	53	2
121	132	4
81	85	3
48	55	2
12	25	1
146	148	2
33	53	2
73	99	1
90	92	2
104	120	3
127	128	4
57	76	2
68	70	2
135	147	3
17	76	1
16	17	5
75	94	1
41	44	3
110	116	1
24	69	2
89	91	1
11	33	1
68	75	1
123	124	2
78	127	1
24	38	1
122	130	1
4	50	1
95	99	1
41	48	1
56	91	3
137	147	1
101	108	1
102	119	1
93	98	1
3	39	1
82	99	2
85	132	2
94	95	3
48	53	3
45	47	2
142	149	1
76	109	4
52	56	1
103	112	4
64	65	3
5	36	1
100	112	1
51	53	1
4	51	1
14	17	1
66	80	1
82	86	2
100	102	2
5	8	2
18	22	1
84	86	2
89	93	1
92	99	2
3	17	1
50	55	1
66	72	1
35	86	1
49	54	1
122	124	1
130	147	2
54	77	1
11	124	1
23	37	1
56	58	1
17	20	1
74	77	1
67	75	2
24	37	2
56	76	1
111	140	1
96	98	1
44	54	1
74	78	1
7	12	1
21	23	1
57	87	2
141	150	1
26	72	1
124	127	2
129	134	1
9	92	1
98	136	1
7	26	1
19	50	1
66	70	1
8	24	2
85	87	2
123	126	1
108	117	1
32	40	1
66	79	1
39	41	1
87	129	2
63	77	1
23	30	2
100	109	1
106	151	1
14	30	1
103	113	1
7	33	1
145	148	1
113	118	1
35	43	2
88	90	1
69	85	1
71	77	1
30	50	1
133	146	1
13	15	1
135	142	3
42	46	1
135	144	1
23	27	1
46	71	3
11	22	1
47	77	1
35	58	1
132	143	1
50	56	1
67	77	1
7	25	1
121	124	2
72	81	1
40	53	1
71	139	1
47	53	1
29	31	1
65	68	2
44	71	1
43	71	1
78	84	1
46	51	1
68	142	2
57	102	2
131	138	1
8	85	1
50	52	1
63	73	1
49	67	1
152	154	1
67	107	1
123	127	1
23	38	2
117	118	1
96	100	1
104	108	2
