23	24	8
57	58	5
24	75	1
10	13	1
71	71	8
36	40	1
74	74	7
36	38	3
41	48	2
20	20	16
41	43	3
42	66	3
63	63	6
55	55	6
32	32	6
69	70	1
77	77	6
4	5	11
1	2	13
45	45	5
63	64	5
51	51	6
70	72	2
26	27	12
7	8	5
21	21	16
2	3	3
28	29	13
24	24	13
70	71	6
39	39	6
13	14	6
23	23	5
64	76	1
31	31	2
29	29	8
22	53	5
40	50	2
36	39	2
43	57	3
19	20	12
2	4	1
7	7	11
33	51	1
0	7	3
59	59	7
30	31	11
69	69	3
48	60	3
48	48	7
0	0	10
63	69	2
1	1	5
73	73	11
37	38	8
52	52	1
21	45	1
30	30	12
54	54	7
25	35	1
28	28	5
13	13	16
33	33	16
11	11	9
57	59	2
5	23	2
10	10	22
47	47	3
61	63	1
34	34	3
60	60	11
55	60	2
61	61	9
50	51	3
40	40	7
26	32	5
41	68	2
34	37	5
25	26	8
35	35	9
44	44	4
18	18	5
26	51	1
35	39	1
72	72	10
8	8	12
3	3	12
38	65	2
62	62	3
9	10	2
27	27	12
49	51	1
10	11	8
13	25	2
68	68	3
51	52	3
0	1	7
47	48	5
39	61	2
48	66	2
14	15	1
53	77	1
58	60	1
27	28	3
65	65	8
12	12	8
42	42	4
41	63	3
6	6	16
49	50	2
19	19	8
29	30	4
32	33	1
35	36	3
13	23	2
61	62	5
26	26	3
72	73	10
6	9	2
55	56	3
4	4	11
54	55	4
41	49	1
63	67	1
38	38	3
75	76	1
66	72	1
58	59	2
58	58	1
41	62	1
25	25	12
5	5	12
44	45	1
13	24	1
35	41	1
3	5	6
43	65	2
28	31	5
21	22	8
76	76	5
22	23	6
38	39	3
14	14	2
34	59	2
24	48	3
52	54	3
22	26	1
9	9	5
3	27	4
53	60	4
75	75	3
24	76	2
2	2	5
31	35	1
66	68	4
48	49	2
24	25	1
41	41	2
35	40	1
53	53	10
56	58	3
50	61	2
24	50	4
73	74	1
3	23	1
43	43	7
71	72	7
53	54	2
22	22	2
66	66	3
50	50	4
22	25	3
41	42	3
72	75	2
64	65	4
20	22	1
60	70	4
36	36	6
64	64	3
22	24	3
9	47	1
5	6	1
57	57	2
49	49	2
56	56	1
7	9	4
70	70	3
26	28	1
37	37	2
39	42	2
23	25	1
42	43	1
18	21	2
38	41	3
6	7	1
12	47	1
23	26	2
27	30	3
30	33	3
49	62	1
70	73	1
0	5	1
8	10	1
59	60	2
68	71	1
11	12	3
65	66	5
66	67	3
64	69	1
36	37	1
31	32	2
42	49	1
4	23	1
27	29	2
64	67	1
45	46	1
48	51	1
40	41	1
32	58	1
28	34	1
37	39	2
41	50	1
70	74	1
25	76	1
42	62	1
46	46	1
12	46	1
56	57	1
67	68	1
43	50	1
2	25	1
26	29	1
26	50	1
71	74	1
68	70	1
34	35	1
44	47	3
19	77	1
24	26	1
0	10	1
66	69	1
65	67	1
8	9	1
