148	155	4
137	137	21
87	87	22
32	32	20
18	18	8
184	184	9
103	103	22
145	146	3
1	1	26
105	106	4
85	99	4
7	7	14
121	173	3
24	24	21
94	94	26
31	32	8
154	154	12
164	187	1
120	120	9
107	107	20
41	41	31
80	80	3
139	139	10
56	56	19
103	124	2
114	118	7
161	161	14
14	14	11
110	111	4
96	97	10
81	82	13
153	153	20
74	77	4
147	149	13
175	175	20
127	127	14
20	21	11
68	68	8
127	131	1
164	188	3
134	134	16
114	115	3
57	57	13
72	72	22
53	54	5
125	125	20
149	150	12
91	91	27
122	123	8
178	180	5
3	3	12
10	10	4
17	17	18
61	61	13
85	85	13
129	129	16
59	59	2
20	20	13
148	148	10
40	41	3
138	139	15
5	5	19
111	111	19
184	185	8
130	130	14
186	186	13
81	81	6
45	46	6
165	165	18
16	17	5
89	89	26
73	74	2
131	131	18
4	5	9
59	60	6
46	64	2
119	120	5
44	53	3
127	128	9
52	53	2
190	190	5
71	72	4
38	39	6
47	47	22
179	179	8
118	118	8
7	38	1
144	144	4
25	25	17
105	105	11
10	17	2
117	118	2
177	177	9
64	65	3
78	79	5
117	117	8
128	130	1
92	92	14
103	110	2
10	12	4
93	94	5
35	35	10
187	187	19
185	185	20
135	149	8
155	155	25
4	6	1
107	108	4
106	106	12
28	28	7
48	48	12
84	84	15
130	131	9
127	129	2
53	53	13
62	63	6
140	141	5
39	39	24
156	156	13
78	78	9
161	163	5
147	150	1
77	77	19
36	36	8
158	162	5
132	132	7
112	112	8
116	119	5
56	81	2
15	15	11
14	18	2
136	136	16
110	110	18
62	82	8
84	85	15
119	119	3
70	104	3
34	34	13
97	102	2
5	65	3
5	64	1
98	98	13
100	101	2
0	0	21
128	128	9
188	188	9
83	93	3
95	95	29
71	71	7
42	44	5
10	11	6
102	124	1
13	14	7
129	130	3
123	123	16
16	16	12
42	42	16
163	180	3
177	178	3
148	152	5
13	38	1
179	180	5
73	76	8
43	43	9
109	110	6
160	161	6
24	27	5
108	108	7
66	66	9
44	45	6
66	67	10
113	145	2
56	57	2
87	88	4
6	6	17
15	20	2
74	83	1
122	122	20
104	104	6
69	69	3
37	67	3
116	117	2
152	152	17
22	22	13
8	31	3
72	85	1
174	174	6
162	162	16
144	150	3
120	122	1
40	40	13
106	123	5
38	38	13
48	77	1
73	75	3
116	123	5
79	81	1
13	13	15
166	167	8
100	100	5
27	27	16
187	188	5
12	12	18
166	166	7
143	143	4
98	99	8
81	84	4
115	142	4
117	119	6
0	4	1
109	109	6
104	105	6
103	128	1
76	76	15
46	46	7
148	151	3
108	110	3
88	88	20
30	32	1
32	33	6
19	19	15
26	26	16
70	71	7
135	135	11
154	155	8
73	73	12
130	138	7
134	135	4
81	106	1
94	124	7
160	160	3
3	8	6
126	128	6
30	31	1
13	15	6
72	73	7
1	16	2
97	98	6
104	108	4
18	19	1
90	90	10
95	106	1
182	182	8
96	96	12
146	146	7
171	173	6
126	127	6
185	186	6
150	154	6
145	145	27
60	80	4
11	12	4
25	99	2
167	186	2
176	176	11
121	121	14
21	21	9
60	72	5
68	69	5
54	54	13
98	105	3
144	160	1
126	126	8
15	21	1
77	78	4
83	90	3
16	31	4
31	33	4
29	29	11
128	129	6
171	171	13
146	148	2
172	173	3
30	30	6
35	37	4
34	35	5
31	31	14
90	91	4
68	86	2
151	151	15
115	115	6
121	137	1
93	142	3
28	30	7
91	92	6
61	62	8
106	122	5
113	113	17
60	60	7
133	134	6
143	155	1
27	28	2
156	158	1
181	181	3
151	154	12
102	102	8
155	156	9
86	86	9
120	121	4
11	11	10
100	103	7
29	33	3
133	133	10
116	116	7
145	161	2
22	27	3
156	161	6
43	44	6
88	89	11
99	100	9
16	21	4
159	161	2
125	126	1
23	100	4
60	63	6
67	67	8
101	102	11
92	94	4
25	27	1
94	101	4
37	37	7
178	178	8
2	2	17
125	130	3
93	93	4
152	153	4
105	123	8
82	82	13
73	81	1
170	171	1
97	97	7
114	114	8
124	125	5
150	151	6
157	157	7
156	157	4
54	55	10
141	142	7
108	109	2
63	63	4
118	119	6
164	165	4
17	19	2
91	99	3
64	64	9
131	137	2
47	48	5
57	61	1
74	74	7
140	140	8
121	136	1
1	39	2
173	174	3
124	124	12
153	176	7
163	163	1
109	114	7
57	62	2
22	23	5
44	44	16
69	72	1
62	66	2
91	95	5
144	146	2
4	16	3
14	17	5
99	99	16
19	20	5
46	47	13
132	137	2
75	75	6
76	80	4
59	73	3
189	189	4
60	64	5
99	101	2
94	95	3
53	55	3
1	3	3
181	182	5
6	7	8
58	59	4
141	154	2
93	95	3
30	35	3
62	62	4
24	25	11
15	19	2
180	180	7
111	112	4
164	178	2
39	41	5
63	80	2
142	155	2
92	93	18
98	100	4
15	30	3
124	179	3
143	146	3
57	76	3
121	122	3
22	44	3
22	24	3
150	150	12
3	7	4
142	142	11
96	124	2
29	32	6
147	147	5
166	190	2
142	143	5
131	134	2
64	66	1
89	96	1
173	173	1
31	39	1
103	106	1
179	181	7
14	15	6
30	38	4
90	93	1
61	72	2
123	125	5
36	45	1
67	68	5
141	153	1
79	79	7
23	24	6
96	99	2
52	52	11
113	144	2
141	141	9
138	138	3
15	80	1
149	149	13
182	183	1
169	173	1
4	4	4
22	25	5
23	27	1
110	113	2
66	87	2
13	16	2
151	153	1
1	22	4
29	30	4
132	134	2
83	83	7
94	117	3
25	26	4
171	174	5
18	20	9
23	23	6
162	163	2
1	2	4
23	33	2
183	183	4
33	33	6
111	113	1
92	155	2
95	104	3
101	124	4
100	102	1
165	166	5
110	114	3
69	128	2
149	155	1
104	121	2
96	98	2
73	84	5
26	28	1
32	35	3
5	10	2
172	172	5
169	169	5
75	76	2
22	26	1
66	72	1
18	21	1
168	168	4
28	29	3
131	140	1
132	133	1
162	164	1
63	81	2
121	172	2
183	184	1
85	86	2
68	87	3
143	144	2
2	5	3
133	135	3
168	186	1
11	34	2
86	87	3
84	91	2
159	159	7
148	154	4
109	111	2
65	65	4
91	106	1
58	73	1
170	170	7
25	80	2
30	33	4
17	22	2
129	139	2
59	64	2
154	156	4
55	55	6
83	84	1
32	34	7
146	147	1
42	79	2
44	46	3
125	174	2
60	62	3
30	46	1
168	170	1
76	77	5
61	64	4
118	121	2
157	178	2
167	167	4
164	164	9
156	165	1
171	172	1
58	83	1
153	154	2
12	17	1
10	15	2
85	100	4
32	67	3
164	182	1
36	46	1
101	101	2
36	55	1
21	22	3
91	93	4
86	100	1
145	158	1
45	45	8
26	27	3
12	65	1
42	86	2
8	8	4
17	24	1
87	98	2
188	189	2
57	59	1
187	189	3
163	164	2
48	84	2
125	127	1
31	67	5
56	76	1
36	39	1
168	169	1
39	48	1
56	75	2
158	159	1
65	66	2
146	158	2
0	2	1
167	168	2
22	46	1
90	96	1
107	109	1
157	161	1
19	126	2
132	138	3
176	177	6
35	45	3
12	15	4
41	42	6
58	61	1
163	187	1
75	84	1
153	157	1
89	106	4
122	124	2
77	79	1
122	131	1
154	175	2
58	58	2
129	141	1
55	56	2
58	63	1
30	36	1
139	145	1
78	112	1
11	13	1
91	103	1
58	62	1
11	14	2
141	145	1
27	55	1
147	148	2
134	142	2
131	133	1
27	29	1
1	27	1
47	55	1
135	150	3
148	150	2
31	66	1
20	52	1
48	53	2
157	158	4
5	19	1
71	74	4
93	155	2
37	48	1
129	132	2
78	80	1
35	47	1
141	155	3
9	36	1
104	115	1
2	39	2
62	77	3
127	132	4
95	96	3
12	18	1
7	8	2
178	179	1
121	140	1
89	90	1
130	144	1
167	169	1
121	129	3
115	133	2
82	91	2
166	181	2
89	139	1
97	125	2
16	26	1
172	177	1
31	38	2
72	81	1
93	143	1
2	4	1
33	35	2
32	36	1
172	174	1
133	140	1
57	58	1
74	155	2
105	122	1
0	16	1
112	113	1
132	144	1
80	81	2
95	98	1
12	13	1
0	21	1
84	109	1
135	148	2
139	140	1
142	146	1
160	178	1
23	34	1
33	36	1
70	72	1
102	103	1
56	58	1
143	148	1
57	60	1
161	162	1
84	90	2
159	164	1
180	181	1
52	56	1
94	155	1
71	73	1
46	65	2
61	63	1
83	88	1
158	158	1
76	170	1
135	138	1
26	29	1
55	61	1
116	121	1
47	87	1
54	75	2
39	40	2
156	163	1
60	61	1
17	18	1
42	52	1
173	176	1
110	112	1
166	168	1
140	154	1
108	114	1
