64	64	17
110	110	8
6	41	3
99	110	3
24	24	25
141	145	1
179	179	6
8	8	12
154	154	9
131	131	8
57	57	3
30	89	2
50	51	4
43	44	4
149	149	14
96	96	9
156	156	10
9	25	5
92	92	9
45	45	4
155	160	4
84	85	6
148	148	9
138	138	22
141	142	6
27	29	1
112	114	3
137	138	6
150	150	18
125	125	14
29	29	7
56	56	3
60	60	17
25	26	10
172	172	22
35	37	3
4	30	4
14	14	7
14	15	7
176	176	13
178	178	4
58	59	5
6	6	13
142	142	4
125	126	5
12	13	10
164	167	2
153	153	13
68	68	6
16	18	3
2	16	3
44	45	4
169	169	10
8	23	3
39	39	22
135	135	8
107	109	6
38	38	26
1	1	12
121	122	2
177	177	9
23	24	5
128	129	4
106	107	1
118	118	11
121	121	1
40	40	14
27	27	6
12	12	7
163	164	6
26	26	10
149	170	4
142	143	4
158	160	2
95	107	1
50	60	1
23	54	1
172	174	1
168	168	9
34	34	11
22	23	7
147	148	5
133	133	10
122	122	3
59	59	13
105	105	8
120	121	2
13	13	14
129	129	6
104	104	3
164	164	1
83	117	2
173	177	5
56	57	5
110	116	2
152	153	8
15	15	28
168	169	3
37	38	2
110	111	3
80	81	2
39	40	3
177	178	1
55	55	12
151	151	8
107	107	4
132	132	21
16	16	9
18	18	7
37	37	9
84	84	7
161	162	3
71	71	5
100	100	7
23	23	8
128	130	1
71	82	2
32	32	8
159	159	2
36	36	13
130	130	6
35	36	4
103	103	6
61	66	3
172	173	4
165	165	4
63	64	2
61	61	10
11	14	2
22	22	7
36	37	4
93	93	9
146	146	7
90	92	2
152	152	9
128	166	2
101	101	12
62	62	6
36	38	1
105	106	6
163	163	4
149	150	11
62	63	1
63	72	2
113	113	13
91	95	4
18	122	3
140	140	10
0	0	11
74	74	5
141	141	13
43	43	15
8	9	9
54	54	8
123	123	6
18	19	4
5	5	10
75	75	3
107	118	2
67	71	3
111	113	1
17	17	10
160	160	3
95	95	10
83	84	2
174	174	7
78	78	5
164	165	1
80	80	7
63	63	10
167	168	1
35	35	5
24	126	5
118	143	5
19	19	2
156	157	3
157	157	7
102	102	10
171	171	6
111	111	8
170	170	13
68	70	1
124	124	7
9	12	2
51	51	2
139	171	3
29	30	2
18	20	6
126	126	18
116	117	3
87	89	12
96	99	7
10	10	12
167	171	1
167	167	4
102	103	4
3	3	7
166	166	8
173	173	11
20	21	8
76	77	5
155	156	3
91	92	2
11	11	9
117	117	5
10	41	2
157	166	1
58	58	4
10	11	9
53	53	3
179	180	3
33	34	5
19	20	10
89	89	3
65	66	2
136	136	5
44	44	8
76	76	16
156	170	2
150	151	5
33	33	19
93	94	1
36	59	1
100	104	3
170	173	2
134	134	5
154	155	5
140	157	2
60	61	4
19	22	4
100	102	2
99	99	4
6	7	1
97	107	1
144	144	2
147	153	5
20	20	6
89	90	1
94	94	9
57	58	6
166	168	2
137	139	3
139	139	3
73	73	8
65	65	11
16	17	1
42	43	4
72	72	6
138	139	3
21	21	4
41	42	1
130	131	6
78	79	2
124	126	1
119	120	1
100	125	1
88	89	3
21	22	1
52	52	14
111	112	3
82	82	5
162	163	3
121	123	2
87	87	5
72	77	2
9	9	7
104	105	3
118	125	8
136	160	3
79	79	5
175	175	4
2	4	4
5	9	4
112	112	4
23	36	4
141	154	3
128	128	10
107	108	1
5	6	6
10	14	1
136	137	3
96	97	2
31	31	13
86	86	6
2	2	10
149	157	1
118	119	7
109	109	4
150	169	3
130	133	4
115	117	4
156	164	1
145	146	8
180	180	3
131	133	2
80	83	1
102	117	1
151	152	4
119	119	3
66	66	6
95	96	1
26	28	3
134	135	2
5	7	2
7	7	6
29	95	2
66	67	4
42	67	4
165	172	1
154	170	2
162	162	7
77	77	7
28	29	5
171	172	2
7	30	2
129	133	2
158	165	1
118	120	1
56	76	1
79	83	2
155	173	1
114	114	7
90	90	7
63	66	2
81	82	1
41	41	6
80	85	1
66	75	1
17	18	3
113	114	3
110	126	4
94	96	3
52	54	5
74	76	1
51	52	5
98	98	10
155	169	2
51	53	1
144	153	1
64	65	2
121	146	1
158	158	3
30	30	2
17	118	2
147	149	1
145	167	1
12	15	1
0	6	1
108	108	5
19	21	2
150	152	4
67	68	8
42	42	8
177	179	1
157	158	1
59	90	1
156	167	1
160	162	5
28	28	8
163	165	1
135	136	2
119	121	1
92	94	1
143	146	2
147	173	1
145	145	3
50	50	2
25	28	1
96	98	1
146	156	2
125	132	2
88	88	4
143	143	4
15	42	1
103	168	2
1	2	2
9	10	5
106	106	4
127	128	5
74	75	1
4	8	2
71	72	1
79	88	5
117	118	3
18	21	4
123	124	5
160	164	1
153	154	5
7	8	4
25	25	4
163	166	1
137	137	7
80	86	1
91	102	4
26	87	1
11	21	1
129	130	4
22	37	1
148	150	2
27	34	4
49	50	2
170	172	1
15	19	1
61	62	1
91	99	1
27	28	1
99	104	1
42	44	1
155	155	2
97	98	1
161	161	2
175	176	2
160	175	2
131	155	1
66	87	1
90	94	1
153	163	3
147	169	1
4	11	1
170	171	1
81	88	2
156	163	1
31	93	2
101	102	2
4	4	6
1	6	2
131	142	1
16	30	2
66	68	6
82	84	4
15	33	1
38	39	3
157	170	1
85	86	2
127	131	1
152	160	1
140	141	3
112	123	1
56	58	3
91	91	1
126	127	2
62	103	2
31	33	1
121	136	2
147	150	1
83	85	2
98	99	2
173	174	1
7	9	1
164	166	2
116	116	3
139	153	1
13	20	1
24	25	1
37	39	1
34	35	2
0	1	1
159	163	1
55	57	1
144	162	1
50	54	1
89	91	1
112	113	1
4	5	1
15	45	1
67	67	4
56	78	1
126	151	1
108	126	1
20	22	1
123	130	1
146	171	1
5	8	2
11	13	1
3	4	3
143	144	2
100	101	2
63	134	1
3	15	2
114	115	1
172	176	1
158	161	3
88	152	1
16	42	1
118	135	1
31	32	1
18	119	1
64	72	1
14	31	1
33	42	1
132	148	1
77	79	1
122	124	1
145	147	2
139	140	1
123	125	1
39	43	1
27	94	1
102	109	1
85	87	1
87	110	1
55	56	1
20	23	1
11	12	1
131	132	1
147	147	1
157	159	1
121	125	1
10	12	1
39	41	1
126	133	1
115	143	1
13	15	1
99	100	1
57	93	1
