82	82	10
34	34	4
56	56	4
126	126	7
46	46	9
150	150	19
98	99	6
112	124	2
77	77	8
22	23	5
139	142	6
72	77	4
115	115	7
8	8	11
71	71	12
7	94	4
128	128	9
91	91	8
12	12	2
23	23	11
117	118	5
111	113	1
148	148	3
11	12	2
121	130	2
81	81	7
142	142	9
103	104	6
23	25	5
139	139	11
131	132	4
19	19	10
13	13	8
68	70	3
27	39	4
33	33	7
142	150	1
32	32	5
92	92	7
87	87	11
120	133	1
90	90	10
28	32	1
145	145	3
113	113	2
62	68	4
21	21	6
114	122	3
90	91	6
94	101	1
133	139	1
144	148	1
101	101	16
120	120	11
131	131	15
17	17	10
71	72	11
68	69	8
40	40	3
15	15	4
55	56	4
145	147	2
156	157	2
18	93	1
51	51	6
73	75	5
132	132	13
93	93	8
62	62	4
27	27	12
123	123	6
52	52	3
119	119	2
24	26	2
1	1	14
135	135	5
79	87	1
29	29	10
99	99	10
114	114	7
150	155	2
124	125	2
111	111	6
108	109	1
109	123	1
23	44	3
104	104	6
83	83	7
17	23	1
30	30	4
96	96	6
2	7	3
112	113	5
54	55	7
129	130	5
26	28	3
144	145	1
109	125	2
41	41	4
136	136	4
24	24	22
90	92	1
49	84	3
22	22	5
34	93	4
98	98	7
88	88	9
72	72	3
26	27	4
68	68	7
112	112	8
124	126	9
121	133	4
117	117	5
4	5	3
91	92	1
103	103	11
79	81	5
158	158	13
10	11	3
2	2	23
84	84	5
94	97	1
40	97	6
138	138	9
78	79	7
0	2	4
73	73	12
14	31	1
46	47	2
15	17	4
2	4	1
41	42	1
13	14	4
79	80	2
55	55	5
9	10	2
48	67	4
47	47	4
31	31	9
156	156	6
144	144	6
94	95	5
29	30	11
53	53	5
16	16	16
95	95	2
32	34	4
127	127	5
108	110	2
94	94	14
118	119	7
28	28	12
113	116	4
80	80	13
122	122	2
74	74	3
123	124	2
30	81	1
107	110	4
111	125	6
147	152	2
136	137	4
149	149	1
118	118	4
5	88	2
77	78	7
83	86	3
156	158	2
131	133	4
79	79	15
67	68	3
113	122	1
130	131	4
103	113	2
39	40	11
42	43	6
57	57	3
8	10	4
50	50	4
7	8	5
16	18	3
38	38	4
137	138	6
92	93	10
45	45	12
93	96	2
121	122	5
126	127	3
51	54	2
105	105	2
146	146	4
130	130	5
147	151	1
119	120	3
67	67	2
152	152	4
115	118	1
138	142	2
42	42	9
37	38	2
107	107	4
155	158	3
157	158	7
147	150	2
46	55	3
150	151	3
145	146	3
53	54	6
134	134	3
54	135	4
4	4	6
131	147	3
110	111	4
67	69	3
35	35	6
49	49	2
79	134	1
17	18	7
150	152	1
149	151	5
43	43	5
12	16	1
140	153	1
116	117	7
129	129	6
102	102	6
138	139	3
3	3	5
65	68	1
98	102	1
147	154	1
10	27	5
98	134	2
66	66	3
108	108	6
23	24	3
153	154	1
81	98	1
78	78	3
12	32	1
38	39	7
132	158	2
116	116	3
78	80	3
157	157	4
49	52	1
95	96	7
117	144	2
135	137	4
102	114	1
85	86	4
70	71	3
35	50	2
48	48	3
78	87	4
54	72	5
106	107	1
112	114	1
46	48	3
154	155	8
114	115	6
109	110	9
139	140	2
53	69	2
148	151	2
27	28	6
80	100	1
115	116	2
102	103	2
117	119	2
79	103	1
57	67	1
83	87	2
18	18	3
44	45	2
45	47	6
102	104	1
11	17	1
100	101	2
6	99	2
16	17	2
33	34	2
85	85	1
133	134	2
125	125	10
152	153	4
18	19	2
31	32	2
121	121	3
10	20	2
5	5	2
54	56	3
39	41	1
5	6	3
10	10	8
12	14	3
106	114	3
75	75	5
40	43	1
51	53	4
81	82	4
82	83	1
140	141	2
75	77	1
147	147	3
128	129	1
97	99	2
119	121	1
100	100	5
80	98	2
155	155	7
24	25	3
44	47	2
7	9	3
86	87	6
37	37	3
133	137	1
126	145	2
21	22	2
124	124	2
81	83	1
14	14	2
50	54	2
62	67	1
36	37	2
111	114	3
132	135	2
30	79	4
32	33	3
143	143	1
107	108	2
45	93	1
9	11	1
151	151	2
7	7	5
31	34	1
93	94	2
24	28	3
142	149	3
20	24	2
48	49	2
27	30	3
40	41	4
51	70	3
0	1	6
15	16	3
72	73	3
13	16	1
143	149	1
121	123	3
141	142	1
102	107	1
132	133	2
51	52	1
69	71	2
40	98	1
8	91	3
106	127	1
84	85	1
102	105	1
127	128	1
11	15	1
127	131	2
140	143	1
20	32	1
90	99	1
132	134	2
9	15	1
125	147	2
65	65	2
12	13	1
69	70	1
140	142	1
7	13	3
49	50	3
27	38	1
151	152	2
64	64	3
41	98	1
112	127	2
73	74	1
52	54	3
109	112	3
99	117	1
96	97	1
54	69	1
79	120	1
54	54	3
43	44	1
154	154	1
110	110	1
43	48	1
46	72	1
118	146	2
155	156	1
0	0	4
33	36	1
26	26	1
89	90	1
79	83	1
120	121	1
69	69	1
109	109	2
14	15	2
13	80	2
86	86	3
22	24	1
64	65	1
10	22	1
73	76	1
137	137	1
136	153	2
140	140	2
23	27	1
116	145	1
114	116	1
155	157	1
5	99	1
11	11	1
52	89	2
44	46	1
23	26	2
44	44	1
135	136	1
97	98	1
52	53	1
140	148	1
51	65	1
77	98	1
126	129	1
93	97	1
