38	38	4
215	220	4
192	192	3
40	42	3
153	153	3
231	231	4
179	186	1
84	84	8
172	172	3
20	23	6
50	198	3
181	208	2
21	22	2
33	34	4
195	196	2
0	0	7
50	52	4
226	226	4
199	200	4
106	121	2
233	233	10
133	134	1
57	57	8
85	85	7
40	40	4
9	17	3
206	235	2
175	198	1
209	209	8
237	237	8
213	213	6
153	154	3
236	240	3
53	53	3
7	7	3
148	149	1
197	197	4
165	165	4
100	100	5
104	105	7
225	226	2
168	168	2
194	194	3
148	152	3
30	30	5
117	123	3
119	176	2
29	29	16
17	30	1
23	31	2
167	167	3
137	137	5
187	188	3
104	125	3
34	34	10
60	61	3
95	95	2
42	42	3
125	127	2
51	51	7
74	74	6
138	138	5
15	30	4
218	218	10
160	160	4
0	1	3
181	181	2
161	161	2
220	220	2
12	12	4
148	156	3
184	229	2
65	65	9
15	186	1
181	182	6
178	179	3
58	58	8
168	176	4
7	16	3
206	207	2
148	150	5
28	28	14
99	103	3
11	11	4
196	215	4
139	140	3
205	220	2
40	151	1
143	143	3
5	34	1
134	175	1
83	84	5
172	227	2
225	225	11
5	5	11
19	19	9
35	48	3
141	143	8
4	4	3
175	175	3
83	90	3
121	127	3
20	24	2
78	78	8
196	199	4
101	103	5
182	183	2
23	24	2
205	227	3
25	26	6
128	128	5
24	24	3
145	145	7
156	156	9
97	97	7
80	84	3
128	133	1
164	171	3
188	188	9
89	89	9
141	141	6
131	132	2
19	211	3
43	95	1
71	71	13
185	186	4
159	159	7
238	239	2
220	233	3
28	43	1
80	80	8
214	215	13
154	155	3
78	79	2
110	113	2
120	120	5
56	61	4
56	56	1
33	35	7
22	225	5
180	200	5
100	130	1
197	213	3
14	14	3
197	198	1
27	27	17
236	237	2
63	63	5
49	74	1
54	200	3
229	231	1
41	151	6
59	59	1
167	178	3
21	21	3
181	205	3
202	202	3
135	135	6
42	55	3
188	189	3
123	123	2
158	169	3
204	204	5
227	227	5
238	240	2
195	198	2
117	121	2
67	67	5
108	108	4
102	102	2
222	226	2
76	76	7
68	68	2
54	54	15
182	182	5
50	50	5
22	23	1
242	242	3
173	176	2
3	3	14
140	140	5
105	126	2
116	116	3
169	177	3
54	234	3
104	104	2
26	69	2
191	228	1
76	77	14
51	103	2
6	6	2
152	187	5
2	2	3
118	118	5
15	33	1
9	45	1
72	72	7
129	130	2
11	14	1
15	15	10
144	146	4
195	195	7
158	158	2
54	70	3
155	167	1
139	139	7
166	166	1
27	28	1
162	162	2
27	38	1
169	169	3
42	98	2
179	179	3
133	133	1
119	120	4
200	200	4
206	206	3
109	129	1
228	230	2
69	69	7
66	66	2
200	241	1
30	32	2
60	75	5
107	126	1
20	20	10
109	110	3
137	138	6
40	41	1
176	176	4
224	224	9
8	8	6
146	147	3
23	23	6
145	146	4
184	207	1
233	234	4
98	98	9
30	37	6
63	64	1
103	108	3
154	162	1
196	196	7
203	203	2
182	208	5
177	177	3
140	141	4
186	227	3
81	88	2
184	184	6
14	15	3
191	232	1
35	62	2
12	38	1
17	17	4
54	236	2
206	224	2
120	121	4
43	43	9
31	31	6
37	42	2
234	234	11
88	118	4
70	70	8
36	50	4
235	240	1
176	177	2
183	183	1
6	22	3
49	77	3
60	65	3
7	14	1
232	233	6
155	166	1
215	232	2
223	223	2
25	103	3
36	37	2
118	119	2
24	30	2
110	110	3
172	174	4
109	109	6
3	219	3
212	212	4
54	104	1
83	88	4
99	100	1
16	16	2
123	176	1
164	165	7
136	137	1
24	25	6
184	185	3
26	27	2
49	49	7
16	21	5
30	56	2
42	49	1
142	142	5
86	86	1
185	187	2
52	116	1
205	216	4
10	10	5
9	27	2
208	210	2
171	185	1
178	178	6
36	36	1
242	243	1
62	62	6
176	186	1
82	88	2
77	77	13
171	171	4
15	35	2
33	105	1
60	60	7
206	225	2
22	35	1
101	101	5
155	158	2
10	43	1
42	45	2
60	107	1
12	14	2
65	69	1
15	16	3
238	238	2
105	106	3
124	132	3
207	207	1
147	147	1
122	122	2
81	173	2
171	180	3
83	83	3
173	203	1
4	7	2
35	35	3
142	143	2
96	158	1
1	224	3
121	161	1
153	164	2
104	197	1
49	101	1
151	188	2
105	105	6
144	144	2
224	232	5
208	231	2
115	118	3
8	17	3
48	99	1
203	237	1
201	206	1
99	107	2
78	85	4
41	41	3
55	56	3
121	135	1
240	241	2
169	184	1
66	69	3
37	63	3
28	40	2
58	60	1
19	20	3
194	235	2
107	109	1
224	225	3
214	216	1
119	119	4
144	152	2
6	25	2
82	173	2
6	228	2
75	77	1
113	113	2
135	175	1
205	205	2
135	143	1
77	102	1
185	185	1
29	51	1
25	61	3
164	167	1
72	73	1
228	228	2
219	239	1
67	68	4
148	148	5
188	190	1
157	175	2
234	242	3
165	176	1
146	146	7
206	212	5
168	169	2
240	242	5
31	32	5
55	55	2
230	230	5
25	104	2
233	238	1
68	69	1
142	144	1
97	101	1
111	160	2
9	10	1
48	48	5
131	160	3
221	225	1
179	210	1
136	136	3
199	199	2
129	129	1
3	9	1
79	79	3
219	219	3
32	32	1
179	180	1
218	221	1
82	82	1
13	14	1
174	182	2
20	55	6
128	131	2
122	132	3
18	57	2
173	174	2
191	191	1
133	171	2
158	159	2
191	194	3
215	215	2
59	78	1
190	228	1
34	105	1
15	20	4
29	31	3
194	199	3
236	236	4
74	75	2
131	135	1
99	135	1
240	240	2
126	126	1
44	44	7
211	211	2
105	130	1
3	25	2
207	208	2
105	124	4
122	126	1
205	206	6
20	66	2
79	80	3
239	242	2
46	46	6
216	216	5
106	107	2
223	227	3
51	52	1
157	157	9
189	189	4
155	172	1
121	121	1
151	192	2
8	14	1
193	193	2
76	78	4
110	119	1
239	239	2
235	235	3
24	191	3
43	44	3
211	215	3
39	74	1
159	170	3
27	73	1
60	76	1
59	116	4
191	233	1
124	124	2
232	232	4
113	115	1
174	174	3
107	107	4
196	197	3
211	221	1
115	115	4
108	111	2
39	71	1
147	168	1
8	12	2
225	227	1
38	41	2
106	135	1
181	209	2
107	127	1
59	60	1
197	200	2
73	74	4
125	126	1
219	234	1
17	18	1
47	70	2
31	33	1
214	229	2
18	18	1
43	67	1
53	198	2
52	78	2
125	125	1
103	124	1
4	56	1
49	72	1
3	21	3
26	26	6
206	227	2
14	16	1
80	114	1
10	11	1
43	45	2
150	151	3
145	147	1
2	14	1
156	158	3
11	15	1
52	198	1
75	79	1
172	173	1
150	150	1
17	23	1
17	22	2
1	6	1
78	84	1
96	96	1
136	141	1
11	13	3
57	58	2
8	11	4
81	81	3
147	167	2
102	146	1
217	217	4
5	16	1
190	201	1
77	80	3
165	177	1
204	206	3
21	224	2
217	218	1
207	230	2
211	212	2
103	103	1
105	109	1
102	118	3
64	65	2
182	204	1
218	241	1
220	229	1
241	241	1
190	190	3
18	19	1
173	197	3
7	226	4
146	164	4
15	36	3
38	39	1
37	37	3
154	154	2
30	31	1
232	242	1
149	149	3
139	147	1
214	214	1
148	163	1
186	208	2
37	70	1
170	175	4
88	95	2
134	134	2
25	25	2
108	118	1
138	139	2
218	230	1
215	229	1
7	8	1
5	6	1
167	168	1
106	106	1
213	216	1
224	226	1
58	182	2
6	7	2
59	107	3
119	181	1
47	47	2
89	124	1
234	235	1
160	204	2
189	190	3
133	135	2
177	178	1
153	160	1
81	89	1
20	21	1
4	5	2
23	30	1
127	127	2
60	108	2
101	107	1
45	45	2
32	54	1
145	150	2
96	224	1
157	171	1
123	127	1
164	164	1
148	154	1
11	25	1
195	197	1
22	22	1
181	183	1
14	18	1
149	151	1
223	230	2
217	228	1
118	124	1
216	230	1
207	231	1
144	147	2
10	27	1
88	88	1
186	207	1
9	9	2
31	34	1
151	151	1
4	17	1
144	145	1
186	229	1
152	152	1
132	133	1
81	91	1
42	48	1
73	73	1
220	222	1
172	203	1
51	116	1
1	17	1
108	117	1
34	195	1
