26	94	5
149	149	12
48	49	1
6	7	6
96	114	3
121	147	1
130	130	15
52	52	5
125	125	3
39	39	29
110	115	3
134	134	14
20	21	6
21	22	4
40	41	3
47	47	19
53	53	7
42	42	7
8	9	4
104	104	4
88	88	4
81	81	6
109	109	16
34	35	4
101	101	14
103	109	3
119	119	4
23	23	10
92	92	2
80	94	2
44	45	9
113	114	3
65	66	8
22	22	13
25	25	20
66	125	1
146	147	4
106	106	8
11	11	17
75	76	1
45	45	10
25	98	3
101	102	6
119	126	1
96	117	8
88	91	1
67	67	12
35	35	14
27	94	2
10	10	16
56	64	3
145	145	6
86	137	1
55	55	3
9	9	7
83	85	1
43	43	21
119	120	2
137	145	1
81	85	1
104	122	3
128	129	2
132	132	14
96	96	9
41	52	2
63	63	12
135	135	10
7	7	8
102	102	14
139	142	1
148	149	3
69	75	1
75	77	4
29	29	21
14	14	32
18	18	2
32	33	3
95	97	11
79	79	7
123	135	4
71	71	9
107	107	14
73	113	4
26	28	2
75	82	1
42	44	2
26	26	13
143	144	1
137	141	9
33	33	19
34	34	17
38	38	10
90	90	7
13	14	5
16	17	1
57	128	3
147	147	8
66	84	1
138	141	1
55	56	8
110	110	25
12	12	18
56	56	5
3	3	4
140	146	2
63	87	4
150	151	3
28	29	3
85	105	5
41	42	10
126	128	2
27	27	14
77	82	2
20	22	4
142	143	3
108	110	5
93	98	2
92	93	3
74	124	2
15	15	11
84	86	4
38	55	3
64	83	2
105	107	3
50	50	4
38	39	6
141	142	4
73	73	17
144	144	5
98	123	1
87	90	1
64	67	2
80	81	5
74	78	8
135	149	3
41	131	1
51	51	9
85	85	10
65	83	5
140	140	15
108	116	2
110	111	8
99	99	7
136	136	2
83	125	4
40	40	10
7	21	1
20	20	15
124	126	4
116	118	1
41	41	14
68	69	1
85	87	2
8	10	3
118	118	4
151	151	13
84	85	1
127	127	4
49	49	9
78	78	4
45	64	2
123	136	1
7	8	3
5	5	12
67	74	1
68	75	7
137	137	5
150	150	10
62	65	3
32	32	18
139	139	4
128	133	3
37	43	2
138	138	4
33	35	6
37	37	15
42	52	3
143	147	5
108	108	6
140	142	4
128	128	6
144	145	9
10	11	14
66	67	4
73	121	2
54	55	12
126	126	11
106	110	2
40	51	3
38	51	2
31	43	5
65	68	3
98	98	11
146	146	9
82	125	7
54	57	2
113	113	15
139	146	3
137	143	3
62	62	7
137	138	3
129	131	3
75	127	1
70	70	13
149	150	10
39	40	14
8	8	9
26	36	5
76	83	3
64	64	22
139	144	3
14	15	6
75	75	9
26	27	4
123	124	4
16	16	10
76	77	8
132	138	6
78	79	8
129	130	9
122	128	2
54	87	1
27	28	3
79	89	1
49	74	2
111	112	3
95	96	1
124	124	11
68	68	9
51	52	4
123	123	3
36	36	1
30	30	6
102	103	2
84	111	1
130	132	4
94	95	7
84	99	2
73	74	2
56	129	5
99	100	8
17	17	12
10	12	3
136	142	4
68	77	3
117	118	8
98	99	5
11	25	1
4	4	9
120	151	2
37	38	5
61	62	1
101	108	1
11	12	12
50	75	2
44	44	21
76	80	6
127	128	4
115	115	8
12	25	2
66	66	10
104	105	3
106	107	4
100	119	3
17	68	2
121	122	1
72	97	1
92	137	1
82	123	2
117	117	11
94	94	5
6	6	5
126	136	2
131	131	10
154	154	4
26	39	2
119	150	2
94	99	4
53	54	3
76	76	13
63	68	1
78	80	4
66	79	4
152	153	2
121	121	5
74	84	2
125	126	4
25	27	2
22	23	11
86	112	1
76	119	2
37	42	2
95	95	9
33	34	11
48	48	16
142	142	3
82	82	8
76	78	2
74	74	7
18	19	4
67	68	1
31	32	5
133	135	3
97	99	1
103	116	1
56	57	3
13	13	5
65	65	5
146	148	1
24	25	4
83	83	7
138	139	4
30	31	4
82	126	2
79	80	4
111	113	5
100	123	3
83	84	2
70	77	2
101	105	1
96	97	2
31	36	3
46	46	15
95	116	1
7	9	2
25	26	5
123	125	4
133	133	9
75	97	2
110	113	1
104	112	2
8	20	1
19	39	1
95	98	2
55	128	1
100	100	7
57	57	7
100	101	3
97	121	6
28	30	1
51	63	2
19	19	6
31	31	16
84	112	3
148	148	2
100	112	4
111	111	6
87	100	1
106	108	1
84	123	2
32	35	2
50	52	4
94	98	6
23	24	4
152	152	6
93	93	3
121	143	4
121	149	2
94	97	3
136	138	4
85	86	5
97	97	4
74	75	5
98	103	1
21	21	2
141	141	1
109	111	1
105	108	2
43	44	3
29	46	1
83	98	2
82	84	2
28	94	2
116	116	8
93	94	8
79	81	1
29	40	3
72	72	4
141	144	1
133	138	3
100	104	1
145	146	2
27	32	4
50	62	1
42	63	2
103	103	6
15	43	4
112	112	1
80	80	4
114	114	5
71	119	2
79	121	2
5	6	7
15	16	3
124	142	3
144	146	4
50	84	1
129	129	6
93	97	1
89	89	1
93	95	2
38	40	1
43	45	3
139	140	1
28	28	3
42	43	4
106	114	1
83	124	2
111	114	1
135	136	3
130	133	3
134	136	2
108	109	3
28	39	1
11	18	3
77	77	6
139	141	1
102	107	1
34	37	1
136	137	1
144	148	4
12	17	3
72	73	3
96	98	1
21	23	2
46	48	1
83	94	2
86	99	5
83	123	4
86	92	3
54	84	1
68	74	1
71	115	1
145	148	1
19	24	4
93	123	3
45	46	4
19	28	1
41	43	4
87	87	1
17	18	3
52	58	1
141	149	1
77	78	2
80	120	1
138	140	1
120	128	1
84	84	5
51	57	2
153	153	4
64	65	1
81	125	1
29	32	2
131	134	2
90	93	1
110	116	1
120	123	1
137	144	1
54	54	2
55	58	2
81	123	1
87	88	2
69	73	2
97	116	1
125	127	1
57	90	2
12	18	2
43	61	2
41	49	1
19	20	5
105	105	2
101	103	1
12	13	2
53	55	2
115	116	2
142	144	2
80	121	1
122	122	2
97	105	1
32	126	1
15	38	1
102	114	1
104	135	2
97	100	1
84	122	2
24	24	3
99	108	2
47	48	2
147	148	2
78	121	1
93	99	2
98	115	1
48	55	1
108	113	1
49	54	1
103	104	1
85	98	1
124	125	1
51	128	3
58	58	2
75	79	1
35	36	2
15	40	1
102	115	1
95	105	2
129	134	1
64	84	2
62	86	1
130	131	1
103	110	2
125	144	1
97	124	1
98	121	1
142	151	1
43	46	1
70	74	1
100	110	1
65	67	2
49	73	1
20	27	1
9	10	1
36	38	1
40	48	1
73	77	2
39	49	2
63	75	1
66	83	1
104	107	1
43	67	1
120	120	1
42	65	1
82	83	1
84	125	1
67	76	1
101	110	1
48	54	1
39	52	1
81	124	1
122	123	1
75	99	1
40	42	1
109	110	1
