62	62	17
81	82	3
20	20	3
34	36	5
98	98	10
50	50	11
73	73	4
57	59	4
66	66	4
113	114	8
20	28	4
96	96	5
76	80	1
98	99	6
69	70	1
77	77	12
107	107	6
104	105	4
86	90	7
26	29	4
82	82	5
79	79	6
20	31	2
27	28	2
78	78	9
31	31	5
85	85	6
43	44	6
23	24	2
33	34	5
26	26	10
76	76	5
43	43	8
114	114	8
70	70	2
47	48	5
49	49	2
103	107	3
94	94	8
58	58	3
83	83	13
110	110	7
86	88	4
59	59	1
80	80	5
41	66	1
20	22	2
82	84	1
77	78	1
112	112	3
21	21	2
36	39	3
100	110	2
95	95	20
87	91	1
56	57	9
96	100	3
56	60	2
33	33	2
84	94	2
99	99	8
63	63	5
45	45	2
52	52	4
74	75	3
74	74	2
30	36	1
100	100	2
103	103	2
103	104	8
92	93	2
110	113	2
21	22	1
47	49	2
109	109	2
29	31	1
72	72	3
91	92	1
61	61	3
46	46	2
84	84	6
111	111	10
89	91	3
40	40	2
39	40	3
36	36	3
104	107	4
35	36	3
83	84	8
106	106	7
47	47	5
77	104	1
38	38	4
34	40	2
90	90	4
65	65	10
76	77	4
78	79	3
41	41	2
71	71	2
44	44	8
88	88	7
82	83	1
104	104	7
97	97	2
31	32	4
113	113	2
86	87	3
39	39	4
35	40	1
79	80	4
42	73	1
53	53	4
64	64	3
58	60	5
60	60	4
87	87	2
48	48	2
109	110	3
91	94	4
51	51	2
40	66	1
37	37	1
75	76	3
24	30	2
101	101	4
42	42	5
90	94	1
32	33	4
55	55	3
84	92	2
57	57	3
93	93	4
89	89	3
101	102	3
67	69	1
28	28	5
19	19	3
27	27	7
82	94	2
106	107	2
81	81	3
42	43	13
99	100	1
29	29	2
50	51	1
97	98	4
32	32	2
22	24	1
91	91	3
22	23	1
96	97	5
49	50	1
41	42	3
105	107	1
36	38	2
92	92	1
32	39	1
78	108	4
24	29	1
40	41	2
63	65	2
35	35	2
108	108	2
25	25	3
29	36	2
95	96	3
34	34	2
56	58	1
53	60	1
24	24	3
36	37	1
30	31	1
20	21	2
42	67	1
85	86	1
56	56	1
86	86	2
28	30	2
22	22	1
73	76	1
67	67	1
90	91	1
24	33	2
96	99	1
34	35	1
78	103	1
68	68	1
