128	128	3
18	41	3
54	91	1
5	5	2
150	153	1
150	150	7
108	108	4
73	75	4
119	119	12
131	133	7
119	121	3
36	36	9
43	43	7
125	125	2
21	80	5
87	87	7
85	85	5
90	94	5
46	117	4
111	126	5
6	6	7
115	115	8
141	141	7
93	95	3
11	13	5
24	41	4
75	75	4
131	137	3
13	43	2
29	83	1
31	31	2
77	77	6
151	152	2
51	52	3
30	30	2
122	122	5
150	154	2
16	17	3
57	57	4
90	92	2
19	63	4
133	156	1
4	4	1
71	106	2
38	38	15
153	154	3
10	12	8
49	50	2
24	93	9
156	156	5
39	49	6
82	83	1
9	49	3
73	73	6
78	79	2
43	45	6
135	135	2
23	23	4
110	127	1
106	106	3
50	50	4
70	70	16
157	157	5
8	8	6
19	19	4
126	127	7
44	44	9
27	28	5
17	18	3
120	120	3
151	151	4
131	132	8
92	105	1
85	145	6
88	88	1
41	41	2
80	80	6
137	138	5
48	48	6
99	99	12
71	82	4
62	62	2
140	140	9
55	55	4
49	62	3
122	144	1
13	13	7
26	32	2
1	2	7
42	42	7
142	142	3
91	104	1
114	114	2
32	36	3
30	52	3
19	82	5
34	54	2
112	113	6
34	38	2
149	149	2
119	146	1
56	68	5
64	87	3
25	27	5
28	28	6
81	156	2
22	28	6
142	144	1
134	151	3
93	124	1
38	55	1
152	152	4
14	14	6
95	98	9
29	39	5
144	145	3
25	25	3
22	22	7
5	27	3
78	78	5
142	147	1
137	137	4
134	134	1
154	155	7
103	103	3
8	9	4
39	39	4
137	141	3
19	28	4
30	93	1
146	146	5
14	41	2
53	54	2
92	92	6
83	83	2
132	152	2
14	66	3
130	135	2
149	150	3
64	64	6
102	130	4
132	151	1
94	94	3
100	100	7
63	63	3
97	97	4
2	4	4
84	137	2
20	22	5
146	147	5
61	61	3
91	92	2
29	86	1
12	12	3
54	78	3
53	53	4
148	148	4
92	93	2
25	70	1
94	150	3
33	68	1
111	112	4
127	127	6
145	145	5
158	158	6
29	29	6
32	34	3
21	26	3
86	88	3
101	115	2
131	131	4
34	35	2
93	96	2
71	81	2
116	116	4
95	96	2
69	70	1
136	136	4
22	25	1
88	121	1
90	91	8
21	25	3
82	107	3
79	79	4
21	21	2
28	86	1
68	71	3
92	117	2
49	70	2
47	47	3
2	2	10
50	68	1
21	56	2
135	138	3
133	133	2
100	106	1
133	147	2
6	51	1
21	52	5
133	137	2
93	93	5
106	109	3
57	101	1
144	147	3
154	156	3
52	67	2
10	10	1
28	154	1
93	102	3
87	89	7
55	79	3
49	49	5
121	122	2
21	22	8
139	139	1
154	154	6
9	9	5
147	147	4
52	52	2
90	90	3
8	118	1
84	156	2
125	126	1
108	112	1
102	102	1
35	35	2
4	56	1
46	46	3
3	3	1
16	54	1
112	154	2
97	98	2
83	89	1
65	65	3
79	156	2
124	142	1
10	36	2
133	134	1
20	20	2
34	70	1
101	101	2
128	129	3
141	146	5
91	147	4
24	27	2
62	68	1
103	104	1
4	6	2
79	109	2
138	138	5
33	33	4
115	116	2
37	37	4
126	126	3
35	88	1
72	106	1
78	82	2
156	157	1
93	98	1
123	123	1
14	40	2
106	116	1
126	147	2
86	86	2
107	111	1
67	68	1
52	55	2
7	8	1
38	39	2
77	79	1
7	7	3
117	117	1
84	85	2
66	67	4
48	69	1
35	39	2
56	56	2
131	151	1
15	15	2
129	130	1
29	63	2
129	138	1
22	27	2
104	104	1
16	16	7
26	26	5
80	82	2
85	89	4
21	58	1
57	70	1
45	65	1
65	73	2
30	69	4
91	91	1
23	24	3
13	26	7
51	57	1
93	94	1
139	140	1
21	70	2
9	31	3
18	24	1
18	18	1
10	14	1
121	121	1
114	119	2
152	155	2
71	103	1
88	89	1
19	42	4
81	84	1
7	9	1
64	67	1
153	153	2
74	75	1
52	53	3
0	26	1
34	119	1
50	52	1
143	151	3
105	105	1
96	96	1
6	47	2
48	53	1
77	78	1
68	69	1
8	14	1
63	70	1
144	144	1
84	84	3
34	63	3
115	117	3
87	103	1
16	18	1
112	126	1
107	116	2
132	132	1
157	158	2
27	27	4
117	118	1
0	0	2
118	118	2
17	17	1
62	69	1
135	148	1
132	133	1
1	75	1
144	148	1
40	41	1
101	132	2
81	81	1
71	72	2
100	101	1
83	84	1
47	94	1
30	33	1
141	147	1
114	115	1
2	3	1
25	40	1
155	156	2
11	11	2
28	83	1
71	71	1
107	108	1
24	31	1
3	68	1
128	130	2
110	110	1
5	6	1
85	86	2
54	54	1
132	153	1
19	20	2
24	25	1
126	133	1
10	69	1
108	109	1
121	151	1
78	117	1
76	76	1
115	141	1
24	66	1
95	123	1
126	131	1
124	124	1
88	91	1
126	132	1
32	37	1
18	20	1
98	98	1
