191	191	3
135	135	15
114	114	4
34	34	11
152	155	5
7	7	11
17	17	13
102	102	4
11	11	10
169	169	7
124	125	2
48	48	2
150	151	3
54	54	5
125	126	3
181	181	12
57	57	2
166	166	15
184	184	12
147	147	9
88	89	4
64	67	1
53	53	7
3	25	4
176	176	9
132	132	7
153	155	6
179	179	18
110	110	16
1	25	3
1	30	1
193	193	8
50	51	3
150	157	2
185	186	7
192	192	12
160	160	15
155	173	2
34	68	3
182	182	4
149	149	14
197	197	6
170	171	9
6	6	15
188	188	5
184	194	1
59	68	3
40	41	5
139	187	1
194	194	19
48	52	2
172	172	19
111	111	4
138	140	1
131	135	3
70	72	6
82	83	6
40	56	3
2	2	11
157	158	1
101	160	2
103	103	11
180	181	3
30	88	1
158	158	12
167	167	12
104	104	16
164	164	5
163	164	11
34	37	4
108	109	6
1	3	1
144	173	1
95	96	7
35	76	2
122	122	12
87	87	5
158	162	1
134	191	3
131	131	6
20	20	7
74	74	7
31	31	9
144	145	1
47	48	1
173	173	10
4	5	3
167	168	1
12	12	11
100	125	1
44	55	2
157	157	12
69	69	7
3	21	2
187	187	8
7	8	5
36	36	9
31	89	4
113	121	7
8	8	13
186	186	4
165	166	7
51	52	1
195	195	7
173	174	2
116	118	2
155	165	4
15	15	4
188	193	5
185	185	4
190	190	8
84	84	2
113	113	3
139	139	4
141	141	12
80	154	2
84	85	3
22	22	6
2	3	5
131	163	2
29	30	1
161	163	4
137	139	2
131	164	5
33	42	2
76	76	13
13	46	2
98	98	4
3	27	4
158	159	5
4	4	8
13	13	5
130	137	2
135	143	2
157	160	3
140	140	7
127	127	4
123	123	5
152	152	8
13	50	1
5	5	5
58	59	6
145	145	11
161	161	6
180	180	6
68	69	2
118	134	2
168	173	4
55	55	12
171	171	19
53	54	6
67	191	1
96	96	4
121	121	7
14	14	11
6	7	4
19	56	1
149	150	6
19	26	1
157	159	13
151	151	3
58	63	4
67	71	5
148	148	10
27	29	3
32	32	11
13	16	1
96	97	3
138	138	14
182	183	5
64	64	9
170	170	13
146	146	6
161	162	4
29	29	5
45	45	17
139	140	5
41	41	3
25	26	4
47	47	10
26	38	2
5	29	2
183	183	11
35	105	5
170	172	2
37	59	2
176	183	1
67	67	11
1	1	2
64	72	2
23	23	10
101	150	4
172	183	2
146	147	8
153	159	4
35	35	6
77	152	2
132	141	2
177	177	10
39	39	5
18	19	3
35	36	3
101	101	6
19	19	10
187	189	2
94	94	5
132	133	2
4	9	3
128	128	2
155	155	6
124	124	8
107	144	1
152	161	2
59	60	4
126	127	5
196	196	8
104	106	2
63	65	1
40	42	5
187	191	6
105	105	3
44	45	2
168	192	1
153	153	6
36	59	1
109	118	3
156	156	7
108	110	1
65	89	2
10	10	10
36	190	2
80	80	2
51	51	9
155	156	5
150	150	9
107	133	2
137	141	2
108	133	3
135	136	3
42	53	4
49	49	12
121	122	3
130	130	13
109	109	8
0	0	6
106	106	9
99	99	5
153	162	2
3	20	4
50	50	6
176	178	5
142	142	3
130	131	1
119	183	3
37	37	7
145	175	7
189	189	2
34	73	2
25	25	8
34	40	2
146	166	1
58	58	3
174	174	8
176	177	7
4	6	1
159	160	1
103	104	7
175	175	4
104	123	1
178	178	5
46	46	9
126	132	1
18	28	2
66	71	5
0	16	2
49	53	1
59	61	4
68	187	3
101	188	1
51	56	2
1	24	5
75	75	1
179	180	4
12	43	1
2	25	1
139	166	4
155	167	2
20	30	1
141	149	2
62	62	1
53	55	6
21	27	3
168	168	7
191	192	5
112	134	1
116	116	6
134	135	6
3	3	7
73	73	6
16	17	3
79	80	2
101	185	1
151	165	3
160	169	1
80	81	2
113	148	1
143	144	4
19	20	2
60	68	2
83	85	1
28	30	3
151	152	1
179	181	3
137	137	4
59	74	2
155	159	1
28	28	3
18	18	7
63	153	3
100	100	3
35	37	2
143	143	6
42	42	5
17	21	4
35	40	2
94	125	1
154	154	10
62	63	1
15	32	1
86	160	3
56	56	3
74	75	1
9	9	5
54	55	3
149	179	2
179	191	3
125	172	2
113	114	3
2	7	8
175	176	4
159	159	5
126	126	8
88	88	2
21	21	7
100	128	3
133	133	5
59	71	1
27	28	2
22	23	5
98	99	1
154	155	2
119	119	3
136	136	3
134	178	2
19	21	4
120	121	1
143	164	1
39	170	3
33	44	1
174	175	1
17	20	1
156	157	3
116	117	4
150	162	2
33	34	2
0	9	2
21	39	2
154	165	2
112	112	3
189	190	3
118	118	4
37	187	2
52	53	2
107	107	8
125	125	6
58	64	2
43	43	4
187	188	2
78	138	1
134	134	4
152	190	2
36	38	3
120	122	1
149	154	2
130	136	1
144	144	7
169	175	2
77	153	2
135	139	2
113	140	1
35	62	1
156	182	1
30	32	4
15	46	2
23	38	3
108	108	3
27	27	4
129	130	2
123	124	2
24	24	8
163	163	3
100	129	2
16	16	5
110	114	2
152	154	2
12	13	3
80	98	1
50	56	2
15	16	6
78	78	1
38	38	4
20	39	3
5	8	1
141	148	1
100	151	1
68	68	5
34	44	2
99	159	5
96	113	1
175	180	4
30	30	3
186	189	1
34	35	2
20	24	2
45	46	1
107	109	1
86	86	1
21	22	4
26	26	1
168	169	5
141	142	1
68	140	1
81	81	3
156	172	1
71	86	2
102	188	1
108	146	2
152	153	1
22	25	3
174	184	1
163	179	2
146	174	1
37	54	1
129	129	2
78	79	1
186	187	6
57	58	2
98	109	2
3	24	1
188	195	1
110	116	1
39	40	2
19	24	2
156	167	1
178	192	1
95	95	1
35	56	2
52	52	10
130	134	1
19	25	1
82	82	3
9	14	1
101	102	1
137	163	1
43	44	1
70	70	1
97	129	1
116	145	1
165	165	2
179	182	1
14	169	1
162	162	5
51	54	2
0	2	1
131	133	1
145	146	1
9	10	1
14	15	2
114	189	4
133	135	1
59	59	4
60	62	3
153	179	1
93	93	2
11	14	2
28	29	1
181	182	3
154	172	1
132	163	2
159	164	3
38	41	1
63	63	1
9	12	1
178	181	1
33	33	4
86	127	1
24	157	1
152	179	1
64	65	1
133	134	1
159	161	3
103	105	2
117	118	1
101	149	2
121	140	1
177	178	2
23	37	1
32	42	1
154	180	2
139	159	1
43	52	1
94	113	1
60	61	1
89	89	1
106	110	1
75	76	1
93	126	1
134	136	1
67	68	1
38	153	1
7	36	1
142	143	1
0	20	1
56	57	1
7	37	1
193	194	1
148	149	1
112	140	2
44	50	1
166	167	1
120	120	2
37	39	1
24	25	1
13	51	1
65	65	1
160	181	1
135	193	1
97	97	1
156	158	2
158	178	1
194	195	2
130	170	1
76	153	2
189	195	2
76	77	1
52	70	1
143	165	1
115	115	1
133	136	1
150	152	1
101	139	1
16	29	1
145	147	1
8	24	1
170	193	1
79	79	1
21	30	2
61	62	1
72	72	1
