55	55	15
112	120	2
18	18	4
92	93	7
124	124	13
83	84	1
114	118	4
26	26	14
78	99	3
130	131	5
71	71	11
42	42	3
100	101	4
113	117	1
94	100	3
77	77	9
93	94	8
80	85	2
7	67	3
36	92	3
92	92	15
60	60	8
75	75	8
27	27	10
26	27	1
73	73	16
133	133	10
105	106	4
65	65	10
120	121	12
111	111	11
87	94	1
29	29	15
134	134	14
128	128	10
89	89	12
83	83	6
7	7	11
16	16	4
10	10	9
35	35	4
25	26	4
91	92	6
21	21	7
96	98	1
90	95	1
34	34	3
58	58	5
50	50	13
102	102	12
30	30	11
94	94	19
30	50	1
95	95	18
44	44	3
72	72	8
24	24	5
111	113	2
45	46	1
84	84	5
24	29	11
28	28	18
68	69	5
127	128	8
104	104	31
31	34	2
99	99	14
22	22	2
12	12	13
43	43	11
62	62	15
85	85	11
106	130	4
3	4	5
89	91	2
28	29	8
120	120	13
45	68	4
70	70	12
116	116	11
119	119	6
79	79	15
108	109	8
123	124	8
108	112	3
90	90	22
45	45	8
98	129	5
81	102	4
2	2	15
86	92	4
118	118	7
68	68	11
111	112	1
72	92	3
29	68	3
19	19	1
27	28	8
121	129	1
71	72	10
121	121	15
25	25	11
106	107	4
1	2	2
78	78	4
125	132	2
103	104	6
99	100	3
107	118	1
19	20	3
81	81	7
20	20	10
97	97	4
129	129	19
6	6	9
52	52	10
65	69	2
126	126	12
38	38	2
64	65	3
81	82	3
107	111	6
121	122	5
53	53	20
31	31	8
1	1	11
115	115	6
7	8	12
131	131	4
101	102	17
112	129	3
4	4	4
94	95	4
47	50	3
107	107	9
36	36	15
47	52	6
82	108	6
106	106	7
26	28	1
37	37	2
112	112	22
69	69	12
25	55	2
80	80	16
113	113	8
57	57	4
59	59	15
30	70	2
63	63	11
58	71	2
95	96	3
114	120	1
58	98	5
79	80	8
111	131	4
108	110	2
127	127	9
8	11	1
32	32	4
78	79	7
87	87	1
37	43	2
103	113	1
97	98	6
35	36	6
108	108	4
84	111	2
98	98	13
114	115	4
125	125	7
76	76	14
55	58	4
97	125	3
120	123	2
86	86	7
49	50	3
114	114	19
122	122	7
12	65	3
87	92	2
112	114	4
48	48	4
129	134	1
51	51	2
119	120	2
22	29	1
53	63	4
50	52	2
73	74	7
114	117	1
32	65	2
30	32	1
21	22	4
12	13	6
88	88	11
89	90	13
103	103	11
55	56	3
83	106	1
22	23	3
29	69	3
105	105	12
5	7	2
113	123	1
48	49	4
127	129	8
90	91	2
66	66	5
87	91	4
63	72	1
84	100	3
74	74	7
3	3	7
14	14	9
104	105	7
72	73	8
1	3	4
64	64	1
67	67	11
127	133	4
93	93	8
11	11	4
81	84	3
117	118	1
129	135	2
11	25	1
83	85	1
123	123	7
60	61	9
101	101	12
118	131	1
21	43	2
44	107	4
0	3	3
107	109	2
78	97	1
124	126	2
34	35	2
13	13	4
109	109	4
8	66	2
7	93	1
68	81	1
88	89	1
54	54	2
66	68	3
83	111	3
132	132	4
70	76	2
54	55	1
130	133	7
131	133	2
10	11	3
11	48	4
122	123	3
56	97	1
22	27	2
105	126	2
120	122	1
26	46	4
100	100	2
92	132	2
85	88	1
114	119	3
130	130	5
106	127	2
21	76	2
91	91	8
125	130	4
115	116	1
14	15	6
60	63	2
131	132	1
96	96	3
33	33	9
33	61	2
32	59	2
21	23	2
16	17	4
62	64	3
8	8	5
132	133	2
106	112	1
8	25	1
52	53	1
88	90	2
5	5	4
49	49	3
53	54	2
124	131	3
125	126	2
30	34	2
85	100	2
43	47	2
106	108	1
36	104	1
49	63	1
95	98	1
114	121	2
79	99	1
23	46	1
98	127	3
17	17	3
82	100	2
69	70	2
54	58	2
0	0	2
30	51	4
110	111	3
126	134	2
117	117	1
119	122	3
24	28	1
61	61	2
65	66	6
28	30	1
118	122	4
112	113	3
32	34	5
59	60	1
83	101	2
113	131	1
12	62	1
47	49	1
133	134	4
120	124	2
82	99	3
80	81	1
5	6	2
66	67	3
44	45	2
86	87	1
93	104	1
126	129	4
108	130	2
54	90	1
74	79	2
82	98	1
15	15	1
37	111	1
56	56	3
70	71	3
115	118	2
81	95	2
106	132	4
36	93	2
65	119	2
103	135	1
107	108	3
26	55	1
80	129	1
129	132	2
84	85	1
78	80	1
57	77	1
61	62	2
50	56	1
75	77	1
87	131	1
31	33	2
83	110	1
5	34	1
58	59	1
97	106	1
58	60	1
37	87	5
4	6	3
67	119	1
44	131	2
13	15	1
72	127	1
15	16	2
88	95	1
9	9	1
87	88	1
128	129	2
81	127	1
6	7	2
10	64	1
50	53	2
37	70	1
23	23	1
48	50	2
108	111	2
65	68	1
44	82	1
75	128	1
122	129	2
13	14	3
87	93	1
74	75	1
111	121	1
24	25	1
130	132	1
25	27	1
