29	39	1
41	45	1
57	58	5
58	58	48
10	12	5
8	8	32
15	15	54
33	33	36
37	37	32
13	15	7
13	13	32
38	38	29
56	56	28
4	5	9
10	10	22
48	49	5
6	7	7
8	14	1
31	31	27
32	33	3
35	35	19
54	54	22
9	9	16
31	32	18
47	47	25
3	3	12
34	34	25
55	55	19
39	58	2
40	40	29
11	12	8
36	36	41
2	2	23
50	50	38
52	53	8
28	45	2
44	45	15
48	48	28
41	41	12
42	42	23
11	11	30
52	52	25
22	22	14
39	39	25
22	37	9
6	6	18
45	45	32
5	5	10
33	34	10
16	16	46
2	42	2
20	22	21
19	19	5
12	12	31
7	7	25
4	4	38
17	18	5
14	14	38
30	31	6
49	49	44
20	20	20
1	1	21
41	42	2
38	39	5
15	31	5
18	18	30
32	32	20
5	7	2
52	54	2
16	17	6
51	51	43
0	0	20
49	50	3
29	29	11
21	22	6
17	42	2
13	14	3
6	34	2
28	29	7
30	30	26
44	44	26
46	46	18
7	11	1
42	50	4
53	54	2
28	28	8
54	55	3
17	17	31
55	58	1
10	15	2
22	23	6
42	44	2
37	38	21
40	41	9
34	35	10
24	24	7
14	15	3
37	39	1
42	43	2
12	13	3
34	40	2
50	51	5
39	56	2
53	53	10
29	30	1
10	33	4
1	6	2
55	56	3
21	21	3
36	51	1
36	38	1
23	23	7
32	35	4
50	55	5
56	58	1
13	16	2
36	37	3
3	4	5
19	21	2
10	45	3
29	40	3
12	31	6
18	50	3
48	51	5
16	39	1
19	51	4
47	48	4
9	28	3
14	46	1
3	16	1
42	55	2
21	24	2
6	18	2
5	48	2
51	52	4
19	53	2
57	57	8
15	16	7
7	37	2
18	36	2
42	45	4
24	52	2
6	40	1
34	36	2
2	3	5
18	19	6
6	17	1
21	23	4
12	32	2
54	57	2
10	17	1
27	37	1
2	15	2
56	57	4
43	43	7
20	21	3
40	54	5
55	59	2
29	38	2
45	46	5
0	59	2
51	59	1
44	46	1
2	16	1
16	42	1
43	44	4
42	46	2
32	52	2
27	28	4
8	41	1
34	38	1
41	55	2
58	59	2
46	47	3
17	44	1
4	38	1
19	24	1
1	2	1
31	35	3
5	9	3
19	20	1
9	19	3
1	46	3
53	55	1
30	35	1
11	33	2
16	33	1
22	27	1
55	57	1
11	18	1
19	41	1
1	4	4
35	51	1
30	32	1
51	57	3
36	40	2
2	48	1
46	50	1
33	46	1
9	23	1
16	41	1
33	35	1
31	52	1
2	4	1
3	7	2
15	34	1
59	59	1
4	12	1
31	39	1
