98	98	7
87	88	4
129	129	9
149	150	1
36	36	7
5	6	1
65	73	1
119	119	5
73	73	2
149	149	6
68	82	2
48	48	6
32	32	7
86	86	18
116	116	6
42	42	14
36	37	8
4	4	3
107	107	11
16	24	8
102	102	9
147	160	2
174	175	4
125	125	8
152	152	4
160	160	5
128	129	2
167	167	2
184	184	6
0	0	9
114	142	2
115	128	1
78	78	5
95	95	4
31	32	2
79	79	13
11	11	10
176	178	4
6	6	9
24	26	4
109	109	2
4	5	2
53	83	1
110	111	4
122	123	9
124	124	5
69	73	5
173	178	1
28	37	1
56	56	8
77	93	5
154	156	5
145	145	13
43	48	1
122	122	5
134	134	5
121	121	5
140	140	12
103	141	1
6	15	1
81	124	3
154	154	7
14	14	7
142	143	9
15	15	5
131	131	6
135	135	4
16	16	13
103	103	8
17	18	2
129	130	3
79	124	2
155	155	4
80	125	3
109	111	3
79	93	3
96	96	7
30	31	4
90	96	3
138	138	9
13	13	3
125	126	10
5	5	10
71	71	7
48	58	2
119	120	3
177	177	1
39	39	7
82	82	6
40	41	3
21	21	2
77	77	3
76	77	4
171	171	5
57	57	11
99	99	9
70	70	1
12	14	4
29	30	6
91	98	3
40	40	5
78	79	3
173	189	1
102	105	4
187	187	4
1	1	3
74	74	7
23	23	4
85	85	10
42	43	3
38	38	4
92	92	5
19	20	5
12	13	5
185	185	7
121	140	1
14	15	4
11	12	2
132	136	1
30	30	2
105	105	4
25	25	8
53	54	2
99	100	6
112	112	15
58	58	5
7	32	3
163	163	2
59	63	1
114	114	7
186	186	3
75	75	9
46	46	9
59	68	2
100	100	4
28	29	4
111	111	4
150	150	2
169	169	6
53	53	4
159	159	5
126	127	3
88	89	13
106	108	2
12	23	1
150	151	2
4	6	5
147	158	3
141	144	1
148	149	4
82	84	2
136	137	6
115	115	8
102	103	2
110	110	7
162	162	1
59	67	1
57	83	2
175	175	2
189	189	1
47	47	5
171	175	2
127	127	4
90	90	4
95	96	6
68	72	11
131	133	5
1	151	1
56	57	3
135	136	2
88	90	3
164	165	3
100	105	2
38	39	1
136	138	2
13	14	4
149	154	3
55	55	7
106	106	2
166	166	6
152	153	2
147	147	2
24	24	5
105	106	3
148	148	5
73	74	4
123	123	8
45	45	3
147	148	4
41	41	7
127	128	1
144	148	1
76	76	4
157	158	3
88	88	7
115	129	4
140	144	2
108	108	6
150	152	1
138	146	3
33	34	2
108	110	2
124	127	1
115	116	7
92	93	3
57	58	4
31	31	7
183	183	2
80	80	3
80	81	7
171	172	7
7	7	3
78	81	2
168	168	3
87	99	3
142	142	9
29	31	4
6	7	4
59	60	5
77	120	3
35	36	2
74	90	2
26	26	6
64	64	4
48	49	2
12	12	11
25	26	1
3	3	3
103	105	2
133	134	4
83	84	2
61	61	4
74	91	2
134	182	1
54	55	3
39	48	1
120	120	1
76	119	1
145	146	4
140	141	3
68	68	4
188	188	1
1	32	2
34	34	8
157	160	1
78	86	3
83	83	5
142	144	1
151	151	7
112	114	4
29	29	2
143	143	3
95	125	1
11	23	2
89	89	4
28	28	6
68	75	2
104	142	2
43	44	1
106	133	2
146	146	1
107	108	3
130	130	6
157	157	3
126	128	4
10	12	3
105	145	2
32	34	1
151	152	2
172	172	1
112	131	2
20	20	1
126	130	2
8	8	4
74	98	2
184	185	2
94	94	4
23	40	1
2	3	4
57	59	1
23	24	3
176	176	1
91	96	4
91	91	4
143	144	1
164	164	4
130	131	4
107	110	1
93	93	5
97	124	2
72	72	4
113	129	1
23	25	1
103	129	1
90	98	2
43	43	1
113	114	4
37	38	2
138	139	4
39	41	1
116	144	1
113	113	5
56	83	2
67	69	1
118	118	1
30	33	1
22	22	4
130	138	1
103	116	2
26	30	1
141	141	2
139	151	3
156	158	1
179	179	3
2	2	3
1	169	2
46	47	3
10	10	3
67	68	2
33	33	4
56	74	1
3	120	1
66	67	2
64	73	2
66	66	2
37	37	4
77	86	1
77	84	3
190	190	2
10	11	4
159	160	5
101	109	2
134	147	1
27	28	3
156	156	2
154	165	1
167	184	2
89	100	1
54	84	1
62	62	1
141	142	2
20	21	1
154	155	2
126	126	4
173	174	1
44	44	4
84	84	2
79	80	1
30	35	4
123	124	2
104	106	1
78	80	4
66	84	1
124	125	1
141	143	1
111	118	1
97	99	1
159	177	2
125	127	1
52	52	1
35	35	2
6	88	1
24	42	2
7	8	2
100	101	2
101	101	3
139	140	2
61	62	1
104	105	2
106	107	4
87	87	4
74	75	1
144	144	4
90	91	2
114	115	1
25	46	1
53	58	2
171	179	2
153	153	2
12	27	1
18	18	2
91	92	1
156	157	1
182	183	1
25	31	1
137	138	2
45	47	1
138	155	3
67	67	2
166	170	1
59	59	1
58	63	1
146	147	1
96	124	3
165	165	4
81	81	1
17	17	1
182	182	2
71	72	3
108	109	1
85	86	2
2	122	1
160	161	1
98	99	2
105	108	1
81	83	1
182	184	1
15	16	1
19	19	1
122	124	1
139	152	2
65	65	1
28	30	2
144	151	2
47	49	1
185	186	1
158	158	1
139	139	1
128	128	1
34	35	1
187	190	1
173	173	2
74	99	1
125	131	1
2	168	1
69	69	1
10	20	1
