62	62	5
127	128	4
33	62	1
15	69	2
30	30	12
3	84	1
125	125	10
146	147	5
122	122	5
98	98	9
19	19	13
124	127	1
95	95	2
127	127	5
53	53	20
77	77	6
84	87	7
123	125	1
91	92	1
73	73	11
38	69	2
65	83	3
63	145	3
138	138	6
113	117	4
139	139	1
39	39	7
104	104	2
35	36	8
13	13	7
153	154	2
84	86	3
152	152	6
29	29	16
69	71	4
47	118	1
66	66	7
67	99	1
102	103	3
70	80	1
29	35	3
51	51	7
39	40	9
23	26	4
15	16	5
22	25	2
81	81	6
5	12	3
106	111	1
118	118	6
42	42	3
141	141	1
28	28	5
46	46	5
56	56	9
148	148	6
64	64	10
103	121	2
7	149	2
76	76	5
69	69	2
43	43	3
135	136	3
75	75	6
22	24	3
84	85	5
123	124	3
149	149	7
4	7	5
104	105	6
67	68	4
25	25	6
115	115	2
17	18	2
44	44	4
106	112	2
70	70	11
74	75	3
33	146	1
131	131	2
17	21	2
121	128	3
137	137	2
12	12	7
63	63	5
74	74	5
108	108	3
76	82	1
51	54	3
5	76	2
52	52	4
139	142	2
79	79	7
133	134	1
67	67	8
27	27	4
23	76	1
17	19	2
116	116	2
66	83	6
26	26	7
75	76	1
117	117	2
3	5	2
82	83	1
29	34	1
94	94	3
121	122	3
153	153	3
38	38	1
97	140	2
50	150	3
122	123	1
3	3	9
46	47	4
109	109	7
38	41	2
90	92	1
5	5	8
68	68	5
107	122	2
76	93	1
16	28	4
15	95	4
131	137	4
86	87	3
114	114	9
106	106	2
42	43	1
73	152	1
61	86	1
118	144	4
65	65	1
27	69	2
111	111	3
38	39	6
86	86	4
151	151	6
103	106	3
93	144	2
147	147	2
79	81	3
78	78	3
21	21	8
95	96	2
136	138	4
79	80	2
48	48	5
11	16	1
108	110	2
30	31	4
11	11	2
28	29	1
36	36	5
133	138	1
124	124	12
28	75	2
86	146	5
130	137	1
51	103	1
23	25	4
16	17	1
5	135	3
146	148	2
21	30	3
39	41	1
113	113	2
123	142	4
71	85	2
150	150	2
45	45	10
10	10	6
22	30	1
103	103	7
35	35	2
87	87	2
24	24	7
18	18	7
120	121	2
2	145	1
17	17	9
19	26	1
20	21	1
121	121	2
50	56	2
129	130	5
6	6	4
132	132	3
130	133	1
144	144	5
16	16	3
98	101	1
92	97	1
80	80	2
3	4	3
104	113	1
63	64	8
33	63	2
23	23	2
74	99	2
9	9	3
65	67	5
4	4	2
32	34	5
83	86	2
11	12	3
72	72	5
77	78	1
146	146	5
97	97	3
41	41	2
56	84	1
126	127	1
77	79	3
29	75	3
78	80	2
141	143	1
110	110	12
68	75	3
57	61	3
18	19	2
20	20	2
32	38	3
15	15	4
110	111	2
15	33	2
71	77	3
107	118	2
40	40	8
40	41	2
25	26	1
47	143	1
34	34	5
93	94	1
105	111	3
37	37	8
71	75	2
8	10	1
8	8	7
108	109	1
99	99	5
57	65	3
27	37	1
136	137	1
40	47	3
25	28	1
45	47	1
49	53	4
123	123	2
136	136	3
69	75	1
31	36	2
79	149	2
83	83	2
27	28	3
64	65	3
106	117	2
123	150	1
83	84	5
62	100	2
57	57	2
44	45	2
32	36	1
120	120	4
101	101	2
92	92	1
107	109	1
53	55	2
20	26	1
32	32	1
134	134	3
26	32	1
139	143	1
131	132	1
87	93	1
69	78	1
31	31	3
87	88	2
47	48	4
43	45	1
45	46	1
13	42	1
96	96	2
102	102	3
85	85	2
145	146	1
75	96	2
98	99	1
13	69	2
143	144	2
26	71	2
5	6	3
144	145	1
54	54	1
150	151	1
130	132	2
66	82	1
100	101	1
111	112	1
34	144	2
4	5	2
104	117	2
135	135	6
152	153	2
70	71	2
72	73	1
100	100	3
50	50	1
7	7	2
68	80	1
28	30	1
79	148	3
85	89	1
85	86	1
32	33	6
128	128	2
47	47	3
55	55	2
133	136	1
22	22	2
102	120	1
54	57	1
119	119	2
21	22	1
37	39	1
10	97	1
33	33	2
93	93	1
7	22	1
130	130	1
6	22	1
93	95	1
16	69	2
104	111	1
41	45	1
112	113	2
108	151	1
122	148	1
24	30	1
68	76	1
58	68	1
93	97	1
112	112	2
115	121	2
48	49	1
99	101	1
154	154	1
124	150	1
2	3	1
33	67	3
37	38	1
105	117	1
67	77	1
6	7	1
58	58	1
38	43	2
34	35	1
16	20	2
55	121	1
130	139	1
97	98	1
90	90	1
94	99	1
13	14	2
125	128	1
26	29	1
48	50	1
