135	135	12
111	116	5
21	21	3
136	136	11
85	85	2
75	75	5
93	93	11
4	7	4
133	133	8
108	109	9
90	136	1
18	18	8
127	129	2
7	9	5
131	131	15
108	111	9
105	105	6
121	121	10
125	126	4
75	86	1
1	3	2
107	108	1
71	72	5
126	126	9
124	125	3
11	21	5
90	91	4
137	137	11
109	109	14
1	8	3
90	90	7
111	111	9
81	102	1
1	1	5
72	72	9
28	29	8
78	78	8
9	11	3
138	138	7
113	113	6
22	22	4
36	36	14
81	81	10
132	132	17
9	10	9
87	87	7
89	89	15
10	12	7
115	115	16
25	86	3
139	139	6
120	120	5
91	130	1
79	83	2
118	119	4
95	96	2
2	5	6
31	32	6
110	110	4
76	76	16
84	84	7
17	18	7
20	20	5
123	123	10
9	9	13
13	13	6
112	115	3
30	31	5
98	98	1
134	134	18
107	107	6
118	118	10
10	14	3
33	33	2
86	87	7
5	5	10
94	94	2
128	128	8
128	129	2
92	92	4
37	37	7
3	3	9
116	116	9
86	86	1
134	135	4
136	137	7
23	23	7
137	140	2
102	103	8
103	103	5
25	25	5
6	6	8
122	122	14
138	140	9
7	7	12
12	12	5
16	20	2
29	30	3
117	118	5
35	35	13
30	30	4
96	98	11
73	73	5
83	83	13
34	35	4
0	0	1
21	84	3
82	82	5
78	79	2
114	114	16
81	82	2
106	106	7
130	130	8
6	7	2
34	34	10
104	106	1
95	95	4
140	140	14
97	97	4
119	119	6
19	19	10
124	124	15
101	101	5
78	81	6
88	88	3
102	107	5
17	17	2
2	2	4
71	71	5
91	91	10
22	24	4
38	38	2
137	139	4
38	79	3
32	35	3
21	26	3
133	138	3
137	138	3
74	74	6
117	117	4
11	11	4
74	92	4
104	104	3
93	94	2
125	125	5
27	27	4
100	100	1
112	116	1
16	16	7
17	32	2
19	27	5
101	123	1
99	99	1
74	93	1
129	129	7
5	91	4
117	119	1
77	77	4
13	14	1
110	114	1
36	37	1
24	24	7
127	127	3
18	27	1
13	15	2
107	113	1
78	82	5
91	93	3
114	115	2
83	85	4
119	122	1
121	126	1
7	13	1
133	135	1
94	95	3
29	29	5
84	85	3
135	136	3
28	31	8
8	8	4
75	78	3
109	110	1
5	6	2
102	109	2
25	26	1
129	131	1
105	120	2
1	31	1
111	112	5
15	16	5
33	34	1
78	83	1
115	116	1
2	28	1
99	112	1
14	29	1
71	104	3
139	140	2
129	130	4
114	119	2
101	102	2
19	20	3
1	11	2
75	76	1
127	128	2
25	83	1
114	117	1
112	113	2
103	105	1
105	121	1
101	103	5
119	123	2
126	127	3
2	29	1
18	90	4
121	122	1
83	84	1
15	21	1
112	112	1
88	89	2
7	14	1
136	138	2
73	75	3
128	130	4
129	136	1
79	80	1
127	130	2
88	91	2
89	90	1
103	104	1
102	108	4
135	138	1
102	102	1
96	96	2
135	137	1
4	4	1
18	24	1
78	85	1
5	18	1
133	134	1
28	30	1
23	25	1
108	108	1
89	91	2
28	28	1
32	32	3
97	98	2
29	32	1
96	114	1
103	114	1
79	79	1
16	17	1
80	80	2
103	121	1
100	123	1
98	102	1
