113	114	1
15	15	5
52	52	1
125	127	5
74	74	1
66	66	10
90	90	7
64	64	5
106	106	2
127	130	4
62	62	3
33	34	1
24	24	3
86	95	1
41	41	1
72	102	6
6	6	3
2	3	3
112	112	5
115	115	2
16	52	2
4	4	7
7	7	3
14	14	1
40	40	5
3	3	6
88	88	5
108	108	3
103	103	2
77	78	2
92	122	1
22	33	3
109	121	1
98	98	1
110	110	5
61	61	6
129	129	5
111	111	2
25	32	1
83	83	9
45	104	1
43	43	4
131	132	5
45	45	4
57	57	2
42	42	1
53	53	4
44	44	7
37	40	1
97	108	2
9	10	2
46	82	3
107	114	2
68	68	2
100	101	3
32	32	1
95	95	6
96	96	1
83	84	2
50	50	1
39	39	3
41	54	4
51	117	2
37	87	2
6	8	3
111	124	1
90	91	3
27	27	3
54	54	6
105	107	1
92	93	1
85	86	3
49	49	4
70	71	6
7	100	1
46	48	4
133	133	3
67	67	1
38	42	2
56	56	2
116	116	3
88	109	1
4	54	1
65	65	1
2	20	2
85	105	1
46	46	1
118	118	4
51	51	1
38	38	5
11	11	4
34	34	3
109	109	5
38	66	2
63	63	2
119	119	1
68	69	1
52	116	1
117	117	4
76	76	2
81	81	2
23	23	6
94	94	2
128	128	3
71	71	4
5	55	1
89	89	1
46	47	1
104	104	2
45	96	4
65	67	3
5	21	1
23	62	3
25	25	3
9	45	1
114	114	2
92	94	2
111	123	3
20	20	1
39	40	5
84	98	1
58	116	3
88	96	1
118	119	1
84	84	4
99	99	2
100	100	1
69	69	3
59	61	1
108	109	2
113	113	2
74	81	2
123	123	1
21	21	1
46	56	1
19	20	2
85	87	1
124	124	2
44	118	1
89	90	1
2	2	1
125	125	2
129	130	1
109	110	4
101	102	3
10	11	1
59	62	1
8	9	1
126	128	2
26	56	4
1	1	3
127	127	1
69	70	1
17	115	2
28	29	1
131	131	1
6	106	1
0	0	1
55	56	2
38	43	2
51	113	1
18	118	1
61	62	1
128	130	1
51	52	1
10	10	2
17	17	1
12	12	1
44	45	1
60	61	1
16	16	1
5	5	1
39	99	1
77	77	1
80	80	1
19	119	1
57	70	1
18	18	2
117	118	1
58	58	1
2	24	1
101	103	1
