53	53	2
110	110	2
14	15	1
71	71	7
81	81	11
27	27	2
102	105	3
104	104	7
77	77	9
47	55	3
98	126	1
48	48	4
24	46	1
50	79	3
132	141	1
136	138	4
9	44	3
119	144	2
97	97	7
41	43	1
54	54	6
18	18	8
149	149	3
138	148	1
104	125	2
13	13	5
22	23	3
6	65	1
47	47	3
94	99	4
78	78	7
147	147	2
103	103	9
41	46	1
26	34	4
4	4	5
24	24	7
6	6	8
106	106	1
46	46	7
50	81	1
90	90	4
129	129	3
121	125	1
84	101	1
43	43	3
9	22	4
126	126	5
30	141	1
21	74	5
105	108	3
115	115	7
103	134	4
80	84	4
14	18	1
13	14	5
109	109	1
5	7	2
76	76	3
90	92	3
99	99	9
17	22	4
150	150	4
83	83	2
153	154	3
134	150	4
36	36	5
114	130	1
27	35	5
42	43	2
108	108	9
40	40	2
40	149	1
23	23	3
143	143	2
101	110	1
45	45	3
140	140	3
105	110	3
17	17	4
14	14	1
15	15	8
33	36	1
7	10	1
75	75	3
137	138	5
35	141	1
42	57	1
122	122	3
50	92	2
121	122	3
44	44	7
38	38	4
22	50	2
126	127	4
68	69	2
63	63	1
102	103	2
146	146	4
72	72	2
16	17	1
40	148	2
63	64	4
27	145	3
126	128	3
20	24	2
98	98	6
42	42	5
132	147	1
35	149	1
101	104	2
49	69	5
137	137	11
98	99	2
6	7	4
105	105	7
11	12	5
70	70	2
111	146	4
73	75	1
96	96	7
120	120	2
37	37	7
131	131	3
9	9	15
119	124	3
82	82	6
85	85	3
32	144	1
143	146	2
23	34	5
119	119	3
81	84	3
132	132	3
82	87	1
134	137	3
4	5	3
3	4	1
20	77	1
100	100	4
54	68	2
123	125	2
136	136	4
27	29	5
19	21	4
94	97	4
24	25	4
7	8	3
53	54	1
94	95	2
48	148	2
33	102	1
133	133	9
147	148	2
31	31	7
66	68	2
113	113	1
9	64	1
3	3	2
119	120	1
95	108	2
92	92	5
32	33	1
22	22	2
81	83	1
69	73	1
11	11	9
77	95	3
5	74	4
131	132	1
78	83	1
68	79	2
138	138	9
96	98	2
47	64	2
50	74	1
53	67	1
130	130	4
88	88	4
150	151	4
69	69	2
33	34	8
134	135	2
8	8	2
30	139	1
40	41	1
2	2	2
86	86	2
72	78	2
145	145	3
28	28	8
84	85	5
50	51	1
130	141	5
116	116	6
19	19	3
140	141	4
107	107	11
148	148	3
65	65	9
86	87	4
29	30	2
12	16	2
65	81	1
153	153	6
119	123	5
107	112	1
134	134	2
66	66	3
117	118	1
93	100	2
81	82	1
68	68	1
94	98	1
49	49	4
111	111	1
72	73	2
84	86	2
102	102	2
87	88	2
114	114	2
28	29	1
5	8	1
53	65	1
112	112	3
80	80	1
154	154	2
65	67	1
94	94	5
73	74	2
46	54	3
93	93	2
96	116	2
106	125	1
41	41	4
124	127	1
13	15	6
25	32	1
121	121	3
108	116	4
29	29	5
33	33	1
123	123	1
25	26	1
101	102	7
48	51	1
73	73	4
93	94	3
116	120	1
18	64	1
4	6	3
151	151	2
117	117	1
5	5	4
28	34	1
96	97	2
40	134	1
34	37	1
28	33	1
57	77	2
65	147	1
110	130	4
141	141	2
3	6	1
77	101	1
87	99	2
58	58	2
13	17	2
65	68	1
95	96	2
104	105	1
27	28	2
142	142	1
35	35	5
8	95	1
10	12	2
120	126	1
20	20	1
25	34	1
44	45	4
123	128	3
115	144	3
125	125	2
67	67	4
88	94	2
35	131	1
37	38	2
74	74	2
48	57	2
98	127	2
125	126	1
135	135	4
95	100	2
118	129	3
80	87	1
116	117	1
120	121	1
71	101	1
64	64	1
120	130	2
19	74	1
4	50	1
133	134	1
124	128	1
51	146	1
83	84	1
8	9	1
119	121	2
26	29	1
74	75	1
34	34	3
95	98	2
63	148	1
69	76	1
136	139	1
130	137	2
55	68	1
123	129	1
32	132	1
25	35	1
31	32	1
25	25	2
38	42	1
95	95	1
26	27	1
39	39	1
102	110	1
18	72	1
31	129	2
143	144	1
77	87	1
136	137	1
99	109	1
98	108	2
51	65	1
10	10	2
87	87	1
138	147	1
127	130	1
123	124	2
135	141	1
152	152	1
101	105	1
53	56	1
62	69	1
85	86	1
99	102	1
57	57	1
100	135	1
38	40	1
131	139	1
4	76	1
30	30	1
111	112	1
56	67	1
32	32	1
