19	54	1
55	55	3
174	174	1
198	198	2
105	105	1
97	97	2
14	14	6
156	156	7
56	57	3
158	158	3
66	68	1
20	236	1
214	214	8
173	173	1
186	186	4
89	90	3
117	118	3
31	67	1
163	163	7
242	243	2
208	208	11
41	41	3
53	53	8
178	178	1
104	110	4
161	163	2
211	213	2
154	154	5
76	77	2
208	209	6
167	167	1
117	117	4
29	30	2
24	53	1
81	84	2
33	33	2
95	96	2
212	212	2
94	94	1
203	203	1
10	10	1
6	7	1
46	237	2
213	213	5
166	166	2
35	35	4
50	50	4
86	90	1
26	27	1
89	89	2
182	182	1
158	176	1
210	210	4
78	79	2
48	48	5
230	230	2
169	171	1
8	9	4
111	114	3
60	60	6
229	230	1
176	176	1
101	209	1
91	91	10
213	214	4
6	6	4
200	200	3
161	161	1
242	244	2
181	181	6
33	44	2
118	120	1
19	19	9
191	191	1
44	44	4
31	33	1
247	247	4
85	85	6
160	161	1
95	99	3
246	246	2
61	73	1
5	5	5
112	112	4
197	199	4
57	58	2
108	109	1
99	99	2
172	173	1
63	99	1
203	204	2
36	36	10
1	2	4
52	53	1
92	93	1
152	157	1
152	203	2
47	69	3
176	219	3
26	26	1
22	22	4
182	187	2
144	144	2
71	74	1
95	95	1
113	113	3
98	98	8
61	62	2
204	204	1
48	50	3
160	174	3
9	9	3
215	215	5
108	236	1
87	89	2
151	156	3
42	42	4
114	116	3
40	40	2
113	152	1
3	4	2
37	37	7
185	185	3
68	68	3
222	222	2
225	225	5
180	185	3
49	58	1
86	86	3
180	180	13
84	84	2
220	220	1
151	151	3
207	207	4
88	98	3
151	152	1
205	205	4
63	64	3
223	223	1
70	70	3
31	31	5
228	228	2
28	28	1
158	175	1
173	178	1
75	75	5
88	88	1
58	60	1
228	229	1
39	39	2
164	167	2
236	236	3
211	212	4
231	231	3
115	115	4
153	153	1
61	72	1
156	161	4
211	211	1
245	245	3
201	201	2
157	157	2
169	169	6
69	69	3
77	86	1
229	229	1
165	166	3
244	244	9
101	105	2
183	184	1
22	23	2
38	39	1
92	92	4
195	195	2
118	118	2
238	239	3
243	244	2
101	118	4
190	190	3
38	56	2
53	54	1
237	237	5
163	164	1
65	68	2
11	11	5
116	116	6
209	218	1
49	49	3
149	149	2
197	197	4
34	34	2
168	168	2
234	235	3
164	164	3
235	240	2
184	184	1
2	2	1
188	188	3
110	110	2
188	204	1
70	233	1
17	18	1
78	78	2
189	190	1
28	29	1
56	187	1
115	116	2
32	32	4
199	200	3
225	229	2
192	193	1
177	177	2
83	83	3
69	70	2
99	100	4
171	171	2
51	51	2
233	233	5
62	62	2
47	47	4
241	243	4
3	3	1
8	8	2
152	152	2
85	92	3
160	160	1
55	56	1
160	198	2
202	202	3
216	216	2
234	234	3
45	45	4
93	93	1
39	40	1
0	0	1
52	52	1
19	20	1
16	53	2
173	198	3
81	81	3
213	241	1
109	109	4
16	16	2
109	110	3
179	229	1
157	158	1
77	78	1
30	32	2
222	225	2
68	70	1
93	94	1
5	9	1
54	54	3
43	43	1
199	199	2
86	87	1
193	209	1
161	174	1
209	209	3
19	26	2
18	18	3
114	114	1
247	249	1
152	153	1
42	52	1
218	219	1
235	235	1
227	228	2
36	38	1
12	236	1
96	96	3
181	187	1
79	79	1
74	74	1
100	100	1
20	21	1
97	98	3
194	195	1
62	72	2
159	159	3
61	61	4
1	1	1
57	57	1
34	35	1
202	203	1
174	219	1
39	41	1
171	199	2
106	106	1
75	91	1
64	64	2
168	199	1
196	197	2
15	15	1
219	219	2
172	172	1
32	33	3
2	25	1
48	49	1
119	119	1
108	108	1
44	51	1
80	80	1
218	220	1
62	63	1
224	225	1
51	53	1
74	75	1
56	56	1
149	150	1
180	186	1
4	5	1
12	12	1
170	170	1
27	27	1
85	153	1
12	30	1
29	41	1
