75	75	7
38	38	8
33	33	11
91	126	4
104	104	6
65	65	8
85	85	3
35	35	6
6	6	9
86	86	6
45	45	7
60	60	9
7	21	4
101	127	2
114	115	3
37	37	11
13	13	5
43	60	2
79	122	2
81	81	1
129	129	6
128	129	3
83	83	3
18	45	3
69	70	1
28	28	9
119	121	3
84	84	4
128	128	1
49	49	2
68	68	7
67	67	8
11	11	7
100	100	1
120	121	3
119	119	10
125	125	4
75	76	1
21	21	11
15	16	1
17	17	9
61	84	5
57	58	4
74	74	6
97	98	3
101	102	5
94	94	2
24	24	4
42	42	13
51	56	2
91	91	5
58	59	3
112	113	6
56	62	1
72	72	12
43	43	1
32	32	8
130	130	7
47	47	11
29	30	2
14	14	2
15	15	6
30	30	11
19	19	6
95	126	4
114	114	3
45	46	6
3	70	1
82	83	2
115	115	3
80	80	6
79	80	4
57	57	10
18	18	2
4	4	2
46	46	1
42	51	1
81	92	2
4	37	1
31	36	2
59	59	6
55	55	1
83	84	1
70	71	2
57	60	2
35	36	3
0	0	4
111	111	6
63	63	8
37	43	2
123	124	3
89	91	2
93	94	7
122	122	1
101	101	2
73	75	1
111	112	3
132	132	4
7	20	4
79	79	6
132	133	1
44	45	3
96	97	2
11	58	3
82	89	1
98	99	7
107	111	3
47	48	4
76	76	4
61	61	4
120	120	3
27	27	5
115	116	2
92	108	1
95	95	2
6	15	7
45	62	1
130	132	4
21	50	1
66	66	5
125	126	2
100	102	1
31	35	2
8	8	3
106	106	2
73	73	6
18	32	4
96	98	3
97	97	2
23	23	4
82	107	4
69	69	4
27	73	3
127	127	3
78	79	1
118	118	4
124	124	2
41	41	1
33	34	1
131	131	2
50	50	1
105	106	1
12	12	7
79	93	2
60	61	2
26	26	4
48	50	1
14	23	1
9	9	7
123	123	5
112	112	5
29	29	5
70	70	3
34	35	1
99	100	1
93	93	1
20	60	2
17	34	4
99	99	4
6	81	3
126	126	4
62	74	4
103	105	2
90	126	1
96	96	2
98	113	1
18	42	2
20	21	1
119	120	1
64	65	1
25	43	1
24	28	1
73	74	2
7	61	1
133	133	1
64	64	4
12	58	2
16	16	1
21	84	3
72	73	3
80	81	1
29	37	1
82	82	3
33	78	3
56	56	2
81	86	1
62	62	2
33	81	1
108	111	3
34	75	3
39	39	1
56	82	2
42	83	2
12	19	1
21	83	2
39	49	2
58	58	4
5	55	1
107	107	1
105	112	1
39	50	1
10	10	1
22	35	1
110	112	3
117	117	1
87	87	1
32	34	1
20	20	4
32	47	1
6	8	1
62	67	2
40	43	1
22	22	1
8	14	1
12	13	1
8	13	1
104	105	1
33	47	1
8	16	1
79	90	1
2	2	1
27	80	1
7	7	2
113	114	2
64	85	1
31	31	1
24	79	1
66	67	1
91	125	1
75	77	1
78	78	2
27	30	1
71	71	1
9	10	1
98	100	1
