27	27	5
52	52	6
47	90	4
124	124	10
128	129	3
60	60	9
130	130	6
97	97	5
1	1	3
113	120	7
116	116	2
26	26	5
4	4	4
19	19	5
82	82	14
103	103	3
80	80	2
51	64	2
5	5	16
43	75	3
38	39	4
119	119	13
44	103	4
126	126	6
127	127	4
96	99	8
131	131	8
133	133	11
56	56	5
87	116	1
65	65	6
54	54	8
16	18	7
65	69	2
66	66	7
33	33	4
125	125	4
70	71	3
16	17	4
11	14	3
51	51	13
67	101	1
118	120	2
20	21	2
92	92	17
40	40	3
58	60	1
85	85	6
104	104	1
99	99	6
73	73	10
76	76	10
43	43	4
98	98	7
23	23	10
90	90	4
40	76	1
49	49	3
46	46	14
41	45	1
53	54	3
14	14	2
53	53	11
42	43	3
105	105	2
71	71	10
60	66	1
63	63	7
83	83	5
71	84	6
7	33	4
21	21	4
74	74	6
84	86	5
27	28	3
132	132	4
9	16	2
29	29	9
129	129	2
102	102	5
117	117	5
10	10	3
13	13	5
118	118	9
89	130	3
40	71	1
48	53	4
120	120	10
71	85	2
52	53	3
101	101	3
18	18	13
58	63	2
59	71	5
16	16	4
50	76	2
50	50	6
99	130	2
109	109	7
41	43	1
51	77	2
114	117	6
61	82	3
48	48	7
7	15	2
0	0	4
111	111	3
99	101	2
69	116	2
39	39	7
25	26	3
47	47	5
68	68	2
81	117	3
52	92	7
128	128	5
3	3	3
89	89	6
24	24	3
11	11	5
19	22	1
94	94	5
70	70	3
103	108	1
30	30	10
104	113	2
49	105	3
93	95	3
42	94	2
42	42	6
115	115	3
38	76	2
10	13	2
106	106	10
8	26	3
45	45	7
70	99	1
98	100	2
65	119	1
46	65	6
57	58	3
50	122	1
113	114	2
123	123	2
7	7	6
56	57	2
13	17	1
96	123	4
46	87	2
78	78	2
101	117	1
15	15	5
62	62	4
114	119	2
57	57	3
4	33	2
38	45	1
5	6	1
103	118	1
41	61	4
30	33	4
40	55	1
77	77	4
17	17	5
58	58	5
46	47	4
18	19	4
2	5	1
125	126	1
115	118	2
94	95	3
81	81	1
12	12	4
110	110	2
120	124	1
58	59	5
69	69	1
88	89	1
44	44	4
110	111	4
5	32	5
69	71	2
47	100	1
82	84	4
106	108	1
23	24	1
96	118	3
112	122	1
67	67	3
69	110	2
95	95	4
64	68	1
71	81	2
28	29	2
83	84	3
130	131	1
121	121	3
65	66	2
85	86	2
2	2	7
79	91	2
55	55	3
107	108	1
9	25	1
71	133	1
8	8	3
28	28	2
59	67	2
103	112	3
87	87	3
107	107	3
72	72	2
96	98	2
80	110	1
12	28	1
73	74	3
17	18	3
84	100	4
117	119	2
67	71	1
71	99	2
96	96	1
40	41	1
71	126	3
64	99	2
33	34	1
10	26	1
79	79	1
114	114	3
0	110	1
77	78	3
103	107	2
96	117	1
1	2	2
86	86	4
46	53	2
113	113	1
132	133	3
114	115	2
72	73	3
65	126	2
112	112	4
95	97	1
44	45	2
67	68	5
110	112	3
42	111	2
65	109	1
29	30	2
21	25	4
111	112	3
81	82	2
99	100	2
97	118	4
37	37	1
83	91	2
86	87	1
115	116	4
61	64	3
14	19	1
64	71	1
64	64	2
122	122	1
69	121	1
40	107	1
53	57	1
97	98	1
111	113	1
59	96	1
113	121	1
20	20	1
59	62	2
0	1	2
59	63	1
105	106	1
91	92	1
70	133	1
84	84	1
54	56	1
32	32	1
40	113	1
93	93	1
92	93	1
97	121	1
58	64	1
8	9	2
101	118	1
49	79	1
124	125	3
64	65	1
59	59	1
115	119	1
19	32	1
95	96	1
