48	49	6
46	46	37
39	39	48
61	61	67
51	52	15
4	4	28
76	77	3
69	70	11
57	57	48
74	78	2
36	74	6
51	51	15
15	17	4
68	69	18
55	55	37
45	45	43
5	7	5
52	52	32
17	18	5
78	79	4
76	76	50
41	41	41
6	6	43
37	37	47
35	35	42
43	43	14
14	15	10
35	38	2
64	80	3
15	15	17
48	48	38
31	71	5
59	59	17
16	16	28
40	40	28
54	54	30
38	40	3
12	12	40
65	65	22
7	7	46
53	53	32
56	57	7
47	47	37
67	67	39
6	78	6
27	27	30
3	3	26
39	45	1
29	29	35
14	14	33
58	59	6
8	8	33
36	45	2
38	38	28
70	70	25
17	17	18
50	54	1
66	66	21
10	10	27
78	78	39
57	72	2
75	75	23
31	31	41
48	73	8
19	19	28
42	47	1
36	36	29
20	20	19
68	68	34
42	42	35
74	74	41
0	0	46
2	2	35
11	11	38
77	79	6
5	5	26
13	13	22
18	19	5
13	14	12
53	54	14
28	28	43
21	21	24
73	73	32
69	69	28
7	33	6
47	48	18
33	33	32
7	51	2
18	18	11
50	52	15
56	56	39
7	8	5
7	12	2
26	31	2
33	34	2
25	25	12
19	34	1
12	15	5
27	28	5
63	63	24
62	62	21
42	59	3
77	78	9
32	33	6
60	60	23
4	38	4
31	32	15
79	79	27
49	49	17
1	2	8
6	29	1
9	9	27
44	44	6
26	26	42
70	75	4
64	65	18
71	71	34
0	2	3
33	49	4
50	50	19
64	64	35
55	60	3
53	55	6
71	72	16
30	30	20
20	61	4
37	40	1
32	32	40
37	39	5
74	79	1
21	22	3
62	64	3
1	1	28
54	72	6
67	70	4
7	28	4
38	39	5
12	13	5
70	71	4
75	76	4
76	79	3
10	13	2
36	48	3
72	72	29
80	80	32
58	58	40
42	63	1
46	47	7
28	31	2
34	62	3
36	42	4
3	4	8
66	67	21
6	46	4
77	77	26
28	29	1
60	61	7
54	79	3
49	70	3
19	20	8
79	80	7
0	12	1
37	38	3
32	49	3
63	64	9
49	50	10
5	6	17
20	21	4
30	32	4
46	74	2
42	48	1
66	68	2
4	5	7
42	65	6
5	29	2
73	76	2
19	48	1
26	64	3
22	22	4
46	76	1
37	41	2
15	16	8
25	26	3
33	58	2
63	69	5
54	58	4
56	67	2
38	50	4
36	40	4
45	74	2
20	60	1
51	55	2
67	68	11
25	62	4
57	65	1
35	36	1
8	9	9
10	15	1
59	72	1
38	77	1
10	12	2
26	27	3
74	75	6
11	45	4
72	73	2
39	40	3
43	62	1
50	51	8
28	59	1
6	48	6
38	62	2
59	74	3
8	17	4
54	70	5
56	62	2
62	63	1
55	57	5
13	21	3
39	42	1
66	73	5
75	78	1
18	40	1
51	54	3
9	31	1
7	45	1
2	35	1
2	28	1
2	48	3
9	12	1
8	52	3
49	51	8
49	57	2
1	8	4
35	78	1
10	11	12
27	42	6
8	18	1
16	17	6
21	59	4
34	34	12
29	30	6
46	80	1
53	66	1
11	21	2
40	41	9
66	71	3
42	57	3
13	15	10
25	32	4
0	14	2
36	63	2
5	66	2
38	42	1
53	56	4
7	27	1
59	60	1
20	47	4
9	10	2
4	17	3
40	61	3
57	58	5
54	55	5
48	79	1
30	33	1
68	80	2
3	27	3
34	37	3
60	62	1
68	70	2
47	74	3
70	72	7
2	3	4
39	41	2
56	59	1
34	48	1
41	48	3
7	34	2
73	81	3
55	56	6
45	76	2
52	54	1
81	81	2
42	45	1
41	42	1
65	73	1
75	79	1
60	63	3
73	79	1
42	60	2
65	66	3
55	61	1
6	34	2
28	36	1
0	35	1
55	67	2
54	60	4
60	64	4
46	75	3
58	61	1
64	72	1
19	35	1
61	80	1
7	18	2
63	72	4
44	45	1
6	8	2
42	43	1
21	26	2
4	6	2
30	31	2
69	73	1
49	53	1
30	66	2
30	53	1
55	73	1
25	43	3
51	69	2
28	30	1
40	49	3
49	74	1
66	72	5
4	47	1
18	47	2
43	80	1
1	9	2
63	65	2
58	73	2
55	58	2
55	72	2
75	77	1
50	75	1
29	75	1
42	51	2
34	64	1
73	74	1
56	61	1
8	33	1
35	47	1
36	73	1
17	80	1
38	75	4
0	75	1
12	14	2
65	67	2
72	75	2
47	79	1
36	62	1
2	20	2
6	79	1
45	46	1
36	79	1
8	21	1
35	79	1
2	36	1
0	10	2
15	47	1
53	61	2
29	69	1
26	66	1
52	64	1
2	6	2
41	73	1
5	8	1
56	71	1
37	62	1
