215	219	3
42	54	3
237	237	17
207	207	26
68	113	1
60	246	2
174	175	5
12	14	3
44	44	14
215	218	3
187	187	14
28	28	6
168	169	7
76	76	17
116	119	3
89	89	8
170	170	11
188	188	8
45	45	23
42	42	10
38	75	4
100	101	1
2	4	3
202	202	11
12	35	3
238	240	2
163	164	5
118	118	8
237	240	4
88	102	3
106	106	10
231	231	16
20	29	1
51	246	2
233	240	3
160	160	11
167	167	17
4	50	1
205	205	15
116	116	13
38	38	10
20	20	8
165	165	12
24	24	3
168	168	10
21	147	2
214	214	15
208	208	23
36	38	2
146	146	10
243	243	18
226	226	22
48	48	1
76	77	1
80	80	13
43	46	1
177	177	17
247	247	13
203	203	12
18	18	5
220	220	11
35	36	4
43	43	21
212	212	12
52	52	17
92	92	10
3	3	3
187	188	4
11	11	9
104	104	16
240	240	13
176	177	7
86	86	7
20	204	2
9	9	7
95	95	11
73	94	1
63	65	3
84	112	3
103	103	3
221	223	4
234	235	1
211	211	14
59	59	17
54	54	6
162	220	5
33	33	22
210	210	10
30	30	10
71	71	11
102	104	1
112	112	13
110	110	14
156	156	29
87	94	3
245	246	8
74	81	1
11	15	3
90	90	10
92	106	3
147	147	7
159	159	12
224	224	21
221	221	12
98	98	5
62	75	5
229	229	11
238	238	12
67	97	2
69	69	4
173	173	12
30	47	6
1	1	3
47	48	5
51	52	5
144	144	4
41	46	4
154	154	10
218	218	8
21	26	2
71	73	3
193	232	2
239	239	7
164	164	14
4	5	22
68	68	13
22	22	8
39	39	5
8	8	21
154	155	4
150	151	4
239	241	1
197	197	13
66	93	4
102	102	6
94	94	8
79	79	10
32	32	14
55	55	11
178	178	7
192	197	4
82	88	3
63	215	1
216	217	4
241	241	14
119	120	8
151	154	5
208	209	5
62	74	2
142	183	2
96	96	7
61	61	9
116	118	4
164	174	1
183	183	19
194	194	9
172	174	3
106	107	10
157	157	11
150	154	6
82	84	6
58	61	2
81	81	9
10	32	1
232	234	2
117	118	7
199	200	4
26	26	5
62	62	8
54	62	6
18	30	2
191	191	9
120	120	11
182	182	12
46	116	3
63	63	8
209	209	19
184	214	1
174	174	11
193	194	3
144	145	2
12	12	6
27	27	16
213	217	4
239	240	7
179	180	6
184	184	15
228	228	17
189	189	13
62	171	1
219	225	3
157	158	10
186	187	5
152	152	7
176	176	11
84	85	4
6	7	3
196	196	3
206	206	7
89	90	8
25	26	3
26	27	5
233	234	8
111	112	11
7	10	6
75	75	10
218	219	4
118	170	6
204	204	19
5	5	5
119	119	10
31	33	2
51	51	21
23	23	18
69	89	1
6	48	2
161	161	11
40	40	20
160	162	3
216	218	10
81	82	8
233	233	7
230	230	5
146	149	3
58	62	3
53	56	4
56	57	1
79	80	2
242	242	3
162	162	11
98	99	3
231	234	1
175	214	2
17	17	16
104	105	5
7	8	4
222	222	11
109	109	11
214	217	3
166	166	8
78	78	15
171	171	15
64	101	1
80	81	2
195	195	6
50	77	2
85	85	19
200	207	4
41	41	8
187	208	1
190	190	4
113	113	14
172	172	22
185	212	2
150	205	4
217	217	18
97	97	2
157	242	3
163	163	6
85	94	5
239	249	7
121	242	2
29	39	1
53	62	1
105	106	1
50	50	5
198	198	10
188	213	9
153	153	15
67	94	2
64	64	10
87	101	6
36	36	3
215	215	9
14	15	9
234	234	14
82	82	8
178	179	3
213	213	11
114	115	9
236	237	1
49	50	4
165	190	1
153	161	3
171	195	2
16	16	16
201	201	6
72	72	12
175	175	13
73	88	1
146	162	1
81	84	4
184	185	2
101	101	17
244	245	3
235	235	9
185	204	5
167	171	2
87	87	3
115	115	6
246	246	31
31	31	8
90	109	5
174	183	1
49	49	8
186	188	2
68	69	7
223	223	8
70	70	9
39	40	5
184	215	2
58	80	6
190	192	2
221	222	4
47	226	5
229	230	6
175	179	2
116	117	7
218	249	2
108	109	1
209	210	2
200	200	7
58	58	3
79	81	8
154	247	2
47	54	2
120	179	2
166	167	6
59	60	4
3	48	3
151	151	25
112	119	3
33	34	2
78	79	4
155	155	14
151	161	2
146	165	1
202	204	2
179	179	12
66	66	5
105	105	8
35	50	2
53	53	17
186	186	7
192	192	9
243	245	1
226	234	1
97	99	1
93	93	13
8	32	2
35	227	4
19	22	5
79	113	1
7	7	14
194	195	4
174	185	3
58	75	2
238	239	10
8	9	4
46	51	2
6	32	5
73	78	2
152	158	3
94	95	6
170	171	3
173	185	6
46	46	3
111	111	16
196	197	6
118	182	2
227	227	9
85	86	2
37	37	5
22	155	2
249	249	2
165	166	5
65	66	3
158	158	5
12	33	1
113	114	3
64	95	2
60	60	14
35	35	6
237	238	3
108	108	16
47	240	3
21	148	3
17	48	3
67	67	5
29	52	1
204	205	3
232	233	4
62	71	3
4	4	4
118	119	8
2	2	6
169	170	2
50	248	3
57	62	6
248	248	4
150	220	1
214	215	9
243	244	5
6	6	14
165	167	2
77	245	3
182	230	3
193	193	7
112	113	5
70	92	1
244	244	8
155	223	4
238	241	5
239	246	2
15	20	1
47	238	9
37	38	6
162	163	7
198	199	5
4	35	3
176	209	4
223	230	4
97	98	1
199	199	13
37	39	1
82	216	2
228	229	1
65	65	6
188	211	5
15	15	13
195	196	6
13	14	5
232	232	9
222	224	2
19	19	9
10	15	1
156	157	5
245	245	10
52	219	3
61	70	6
25	25	20
190	191	2
95	101	2
38	228	1
224	237	3
188	240	1
145	149	3
111	244	3
115	212	4
38	44	2
73	73	5
96	97	1
151	180	1
205	244	2
30	33	5
60	62	1
180	181	2
200	235	1
236	236	7
181	184	2
33	36	3
92	155	3
155	226	2
48	50	1
213	215	2
46	201	1
87	88	4
52	53	3
91	91	8
225	225	11
222	223	3
10	36	2
107	111	4
3	4	8
88	89	2
10	10	5
79	82	7
27	66	2
190	199	3
152	182	1
166	170	3
4	34	3
112	116	3
82	83	2
16	223	2
88	88	9
92	110	1
83	111	3
81	216	2
162	185	4
145	208	2
39	49	3
31	204	3
27	28	2
189	190	6
40	41	2
147	164	1
66	87	3
58	84	2
38	43	3
65	84	2
54	55	3
147	204	1
93	94	5
47	47	12
159	168	4
197	198	2
158	159	4
188	189	2
109	205	2
109	110	4
107	107	4
150	150	8
72	73	2
15	94	1
50	245	1
103	180	7
113	115	2
175	176	3
19	20	4
191	192	6
227	228	4
100	100	2
185	186	1
49	60	4
27	203	3
84	84	4
117	117	4
38	39	3
15	224	3
27	205	1
219	219	8
67	69	1
105	116	2
62	89	2
71	72	5
203	205	1
34	35	4
21	23	4
99	99	3
60	77	1
180	180	2
30	204	2
94	113	2
93	207	3
57	58	5
13	13	2
116	180	1
18	20	2
90	91	2
28	41	3
234	246	1
4	14	1
181	181	5
91	181	3
83	83	7
77	77	5
34	243	3
98	103	1
21	21	5
4	33	2
211	238	1
43	45	3
18	22	1
211	213	2
57	106	1
24	151	1
30	227	1
107	108	3
103	108	2
202	206	1
86	88	2
74	111	2
101	102	1
64	66	2
56	59	9
23	24	3
77	78	4
160	191	1
25	150	1
59	78	1
223	229	1
237	241	3
43	52	1
163	167	1
66	107	1
59	91	1
187	191	2
27	202	2
33	244	3
10	11	3
75	86	1
81	83	2
208	210	1
147	156	1
205	224	3
202	209	3
172	173	1
216	216	3
12	13	1
66	223	1
116	179	1
201	204	2
66	212	1
34	37	1
74	74	3
73	75	1
61	62	3
52	218	1
74	75	2
6	8	1
216	237	1
29	29	5
29	30	5
189	192	1
80	86	2
237	242	1
114	114	4
16	31	2
182	183	1
14	14	1
56	61	1
34	38	2
118	181	3
57	57	4
115	116	4
186	213	2
181	183	1
181	182	3
37	76	1
197	211	4
66	86	1
184	216	1
197	240	2
185	185	1
95	96	3
183	191	2
89	153	2
164	167	1
51	54	2
89	106	1
28	29	1
195	232	1
158	163	1
144	159	1
154	157	1
78	80	1
53	93	1
174	214	3
110	179	1
19	59	2
220	221	1
17	43	1
145	202	1
18	19	1
145	145	2
113	206	1
21	25	2
110	111	1
246	247	1
110	180	1
194	210	2
67	92	3
64	100	1
232	235	1
94	114	1
93	235	1
63	74	1
63	100	1
38	54	2
146	147	2
17	241	1
34	34	4
183	185	1
49	244	1
31	32	4
201	202	1
155	156	1
169	200	1
88	106	1
34	36	1
23	26	1
62	65	1
76	80	1
64	65	3
45	155	1
10	115	1
93	212	1
42	117	1
15	36	1
146	203	1
169	169	2
152	204	1
237	248	1
66	92	1
99	108	2
146	163	1
146	166	1
82	93	1
149	149	1
45	231	1
111	113	1
226	230	1
147	167	1
213	236	1
21	22	1
225	226	2
86	87	2
119	181	1
210	211	1
53	54	1
200	201	1
157	199	1
45	235	1
169	204	1
221	224	1
41	43	1
61	74	2
180	218	1
99	100	1
202	207	2
169	201	1
27	41	1
55	56	1
153	248	1
201	223	1
