22	79	2
9	22	4
38	43	2
99	99	1
93	93	2
42	43	3
14	14	4
65	65	7
38	38	7
65	67	2
12	12	4
87	88	4
66	67	3
51	58	2
7	66	4
76	82	5
125	125	8
31	38	2
136	136	4
115	115	2
39	39	5
15	21	1
21	32	1
81	94	1
74	95	3
136	141	4
111	113	4
94	94	4
4	63	1
114	115	3
71	71	5
73	73	7
139	139	5
65	79	2
39	50	2
85	86	1
101	101	3
144	144	5
22	23	3
42	45	1
8	8	10
130	131	4
91	91	3
117	118	1
84	87	2
145	146	4
25	26	1
36	36	7
104	112	7
116	146	4
126	145	2
147	148	4
40	40	6
76	76	5
96	96	9
97	97	4
94	99	1
44	44	7
115	121	3
38	39	4
33	33	7
121	123	4
10	11	7
34	35	1
28	37	1
48	53	3
45	45	4
122	122	12
50	51	4
35	35	4
138	139	7
99	120	4
121	121	7
80	80	6
133	133	4
92	92	5
20	20	2
153	154	4
39	40	4
147	147	2
152	152	1
105	105	4
15	15	5
23	25	1
128	128	4
10	10	12
55	55	4
134	134	1
103	105	1
30	68	3
41	41	6
44	45	1
110	112	3
63	63	8
83	90	1
43	43	8
7	7	10
38	50	4
118	118	5
92	95	3
131	131	5
36	50	1
107	116	2
48	48	2
65	66	3
12	37	3
51	51	7
129	130	4
23	48	2
109	111	2
20	70	2
13	39	3
23	23	4
143	146	5
22	22	2
38	49	4
33	34	1
57	57	6
38	48	1
14	18	3
105	114	2
22	67	1
140	141	4
47	47	3
148	154	2
132	132	4
21	23	1
112	121	1
14	15	2
18	18	7
66	66	7
28	28	7
86	93	3
125	137	2
129	129	5
109	113	2
39	41	3
3	3	1
52	56	2
13	17	2
110	110	9
75	78	3
78	80	3
39	46	3
78	78	2
7	8	4
37	62	2
23	30	1
29	64	6
80	81	2
119	119	5
40	42	6
64	86	1
37	37	7
27	27	7
67	67	3
123	127	2
12	107	2
63	86	2
121	122	2
17	17	9
31	31	3
28	29	2
16	67	3
4	4	2
20	72	1
45	56	3
87	87	8
96	109	4
107	112	4
16	31	3
55	56	2
33	35	3
102	103	3
41	43	2
101	120	2
53	53	4
124	125	4
13	13	5
135	135	6
67	80	1
140	140	2
98	98	2
36	44	2
6	6	5
100	101	2
137	138	2
107	111	1
149	149	2
8	37	3
109	110	1
8	15	4
122	134	2
74	74	2
39	42	7
139	142	1
22	48	1
12	34	3
144	146	3
4	5	1
85	85	8
43	51	1
42	42	3
24	24	5
101	102	2
126	126	4
45	46	2
54	55	4
93	141	2
11	18	4
32	34	4
115	116	1
75	88	1
84	84	2
11	11	1
115	119	2
16	17	3
99	115	2
79	79	2
146	146	6
14	30	3
86	87	1
103	104	1
18	20	2
41	42	1
119	135	1
137	137	1
86	86	1
95	99	3
70	70	6
25	80	2
43	50	2
9	9	1
9	14	2
69	69	5
63	68	2
118	119	4
9	37	4
115	146	1
34	34	5
30	30	3
82	107	1
125	130	2
143	143	1
105	110	2
29	29	3
97	98	2
75	84	1
2	3	1
22	78	2
150	152	1
148	148	5
32	33	1
32	32	2
25	34	2
84	93	2
43	44	4
56	56	4
84	98	1
62	62	2
49	49	2
150	150	5
71	72	3
127	128	2
27	34	1
106	116	2
145	148	1
82	105	2
74	93	4
76	77	2
50	50	1
111	111	1
109	109	1
72	79	4
81	81	3
2	21	5
106	106	1
103	103	3
5	6	1
82	82	3
81	82	2
34	36	2
14	31	1
32	118	4
25	27	2
79	80	1
82	120	1
149	150	3
72	72	3
53	62	1
83	84	2
11	12	2
128	129	1
101	104	1
153	153	2
38	55	1
12	31	1
68	68	6
102	102	2
26	26	1
123	139	1
100	100	5
143	144	5
78	79	2
112	112	2
137	146	2
116	142	1
130	130	4
26	29	3
94	95	1
16	16	1
8	16	1
9	23	3
44	77	3
122	136	2
76	78	2
82	86	1
17	19	2
6	66	2
35	55	1
46	46	1
118	122	2
68	71	1
27	30	1
89	89	1
23	24	1
127	127	1
131	150	1
48	51	1
25	64	2
54	56	1
16	19	1
11	35	1
154	154	2
12	25	1
106	114	1
100	110	3
25	28	3
26	28	2
68	69	1
100	111	1
45	54	1
24	55	1
64	65	1
42	152	1
18	31	1
94	97	1
115	117	1
124	124	1
99	102	1
145	145	3
52	57	2
100	137	1
36	43	1
132	136	1
134	135	1
140	142	1
107	107	3
29	30	1
44	46	1
128	136	1
19	19	1
62	63	1
139	140	1
24	31	1
113	115	1
142	143	1
138	141	2
123	125	1
104	111	1
87	96	1
104	105	1
103	144	1
137	145	1
8	9	1
42	87	1
46	47	1
133	134	2
119	122	1
75	92	1
144	145	1
126	136	1
110	139	1
78	81	1
17	20	2
25	31	1
97	99	1
108	114	1
95	134	1
