9	9	11
64	64	11
106	106	14
88	88	14
151	151	11
8	9	4
116	141	3
59	59	13
119	119	13
50	50	10
38	39	2
158	161	4
56	56	18
102	102	15
27	27	6
132	132	20
136	136	17
44	44	13
134	134	25
163	163	11
137	137	27
99	132	4
85	85	2
5	8	6
162	177	3
28	29	13
113	116	2
67	71	2
125	170	3
4	4	8
166	166	19
153	153	26
107	138	3
95	133	3
179	179	16
139	140	8
148	148	9
10	10	12
10	34	2
176	177	19
173	174	3
190	191	9
155	155	21
48	48	11
124	170	3
37	37	11
195	195	8
53	53	11
34	36	4
161	175	5
127	127	15
88	89	4
103	103	19
159	159	20
116	116	8
18	18	16
22	23	5
35	38	1
69	69	16
89	89	3
56	122	1
168	168	20
38	75	6
147	148	17
188	188	25
178	178	49
67	67	9
142	142	22
132	143	5
45	45	24
30	31	5
133	133	16
147	164	2
183	183	16
81	81	2
134	181	4
190	190	17
32	32	21
94	94	15
138	138	9
47	48	3
29	30	14
131	131	8
19	21	2
149	149	24
12	16	4
146	147	11
24	25	2
67	76	1
7	7	9
160	160	17
180	180	17
68	68	4
178	179	16
124	124	18
41	41	11
117	118	5
122	123	8
156	178	6
3	3	25
12	13	7
19	66	5
2	3	3
20	20	5
146	146	33
112	113	5
144	151	1
20	21	8
147	152	9
36	64	10
75	75	1
165	166	6
52	52	12
115	116	4
53	170	2
168	172	3
118	129	3
14	14	16
16	16	21
49	185	6
152	153	10
142	182	3
148	186	1
146	191	7
192	193	5
15	16	6
155	156	13
145	150	1
166	188	4
6	7	14
134	135	1
181	181	14
117	135	3
47	47	19
111	113	7
74	77	2
106	107	1
65	65	8
76	78	4
123	123	14
25	26	11
67	73	8
66	66	5
173	173	3
189	189	19
28	28	8
17	17	7
1	2	11
158	162	6
46	46	19
154	154	17
140	140	13
145	145	11
17	42	6
156	156	26
101	101	9
5	5	14
7	19	3
29	41	3
40	40	9
141	149	3
22	32	2
90	116	4
120	120	12
172	172	10
194	194	11
197	197	8
71	72	2
167	169	3
25	25	12
89	90	4
169	169	15
84	85	5
87	87	10
94	95	2
82	82	8
147	147	15
191	191	10
51	84	3
37	75	4
157	157	14
121	124	5
99	101	2
59	77	1
0	21	3
107	139	1
192	192	17
184	184	16
93	93	3
144	144	17
172	174	12
97	141	5
7	29	2
130	138	4
22	22	10
96	96	7
17	18	11
100	100	11
83	83	17
21	21	7
72	72	5
196	196	19
0	0	6
29	51	1
171	171	9
45	46	6
164	165	7
185	185	20
163	164	7
69	70	3
100	101	9
46	47	5
31	32	3
26	26	5
54	56	7
149	173	2
161	161	20
164	178	7
36	98	1
84	84	9
29	29	8
133	154	3
76	87	1
112	119	2
130	130	6
71	71	3
118	118	6
41	61	5
61	61	9
109	110	12
175	175	20
6	27	3
88	140	4
8	8	3
150	150	8
62	62	1
187	187	14
105	105	8
182	182	14
153	179	6
117	117	6
152	152	12
1	1	1
165	173	1
153	157	1
139	139	7
23	27	2
63	63	6
34	78	3
12	17	2
35	35	12
15	24	2
185	186	11
167	167	7
162	163	4
112	121	6
12	12	10
110	110	12
114	114	4
6	9	2
24	31	2
81	82	5
40	41	5
13	13	9
159	161	1
184	185	2
63	68	2
61	62	3
108	108	10
179	180	3
164	164	22
140	160	4
122	122	16
182	183	7
180	192	1
31	38	2
101	104	1
7	68	2
90	90	2
172	173	3
93	95	3
123	189	3
158	164	4
111	117	2
36	36	6
98	159	4
135	135	16
152	154	4
30	30	15
94	97	2
11	11	6
70	70	4
186	186	12
121	127	1
0	2	7
31	31	18
148	149	7
38	38	11
186	187	4
24	24	1
49	50	2
104	104	12
24	62	5
32	113	1
160	163	2
130	131	5
140	194	3
0	4	1
174	174	16
19	19	9
162	162	8
168	192	2
99	99	2
40	85	5
177	177	28
107	130	1
53	54	6
126	126	10
60	60	5
165	165	9
142	143	6
73	139	1
62	74	5
63	73	3
189	190	4
100	129	3
102	103	2
108	113	3
170	170	19
18	19	2
64	65	3
29	39	2
128	128	6
8	50	1
42	57	4
129	179	2
144	152	2
15	15	10
34	34	9
152	164	1
22	25	2
119	150	2
104	105	3
185	189	1
33	33	5
21	29	1
79	85	4
133	160	2
52	53	2
19	20	2
24	29	4
3	5	5
129	129	8
9	10	5
69	78	3
54	58	1
51	51	15
127	128	6
54	55	4
43	43	13
121	121	6
84	87	1
121	148	3
151	167	3
141	142	1
79	80	5
52	112	3
5	6	2
120	188	5
54	54	11
133	134	2
101	182	3
158	158	10
187	188	11
143	145	2
97	151	2
163	165	1
33	34	1
170	171	5
104	145	1
142	155	1
34	35	2
65	66	3
149	189	1
20	28	6
181	182	4
127	183	2
3	26	1
158	160	1
32	78	1
80	80	10
167	168	9
79	81	2
167	182	3
145	190	2
36	77	3
154	155	7
1	3	6
5	27	2
147	176	4
107	137	1
143	144	3
111	120	2
183	184	1
66	87	1
169	197	4
113	113	15
23	23	16
43	80	1
77	77	1
49	49	9
58	69	2
39	66	1
6	6	12
9	38	3
160	161	4
115	145	3
121	169	4
0	1	7
125	125	5
8	181	4
132	140	3
135	136	2
10	11	4
171	172	3
111	150	3
128	129	1
59	69	6
108	137	1
112	135	3
83	84	3
30	166	2
74	74	4
5	15	4
147	191	2
147	153	2
54	142	3
66	77	1
58	72	4
98	98	7
155	180	2
161	162	8
11	45	3
131	132	8
111	111	6
18	28	1
56	110	3
122	168	1
29	182	2
164	180	1
143	143	9
1	4	1
134	141	1
32	56	1
146	192	5
13	14	3
106	128	2
103	104	4
102	136	3
113	115	1
108	112	1
122	189	8
42	42	6
50	51	4
121	126	1
193	193	7
130	134	2
25	35	1
10	119	2
7	9	2
141	141	6
172	178	1
39	40	3
22	27	4
180	182	3
130	179	4
21	22	2
107	108	4
156	160	2
8	182	1
29	63	3
151	182	1
114	129	1
27	28	6
4	23	1
100	181	4
184	188	2
141	182	1
167	192	2
168	193	2
77	78	1
116	134	1
4	5	3
124	188	7
154	165	1
155	161	5
134	137	2
169	172	5
3	34	1
131	141	1
165	178	2
55	55	3
119	149	1
158	175	1
115	119	1
79	79	8
150	168	2
42	44	5
11	50	2
125	188	3
118	138	7
62	63	2
163	174	2
145	157	1
56	111	2
104	137	3
13	45	3
3	27	2
171	174	2
155	181	1
117	147	2
146	153	2
150	151	9
7	8	5
17	57	2
146	196	2
165	190	1
176	176	7
76	76	1
82	84	2
168	169	1
38	179	2
125	128	1
13	15	1
51	169	1
110	131	2
111	112	3
107	107	1
112	112	8
155	163	3
100	157	2
142	149	2
166	167	2
7	10	2
95	95	3
133	172	2
148	169	3
3	60	1
158	159	4
23	30	1
3	58	3
143	181	2
55	111	3
115	148	1
168	174	1
130	132	1
121	123	5
52	174	6
0	59	2
122	169	3
160	189	2
123	124	5
120	125	1
154	157	2
166	172	1
9	181	4
106	115	2
161	165	3
58	58	3
118	131	1
70	71	3
107	148	3
114	115	2
138	139	1
73	74	4
78	86	2
2	59	2
38	131	3
38	86	2
121	157	1
165	167	1
118	119	1
4	8	1
16	23	3
43	71	1
0	41	1
133	156	1
104	132	1
35	37	1
64	66	1
66	68	2
115	115	3
190	192	1
115	173	3
152	177	4
121	152	1
28	30	1
161	164	3
57	57	4
28	32	2
147	192	1
116	117	2
123	127	1
23	57	2
157	158	2
128	141	3
162	187	1
44	62	2
17	43	2
45	47	2
161	163	1
105	115	1
37	72	1
112	142	3
52	197	1
32	47	1
191	193	1
32	39	4
173	179	1
140	155	1
108	136	1
163	177	1
102	170	1
28	64	1
160	180	2
181	192	1
26	27	1
143	147	2
182	191	3
165	170	1
75	97	1
107	140	1
98	140	1
188	189	4
173	178	1
151	152	2
136	137	2
39	39	2
94	96	1
36	58	1
109	109	1
30	58	1
157	176	2
160	172	2
8	10	1
170	172	2
118	144	1
161	177	1
150	181	1
10	19	1
151	190	1
1	29	1
73	73	1
86	86	2
29	33	1
126	127	2
132	133	1
105	107	1
49	184	2
165	179	1
125	126	2
128	182	1
121	122	1
132	158	1
159	160	1
67	68	1
58	61	1
142	177	1
18	22	1
24	30	1
124	178	1
152	157	1
163	193	2
2	2	3
174	175	2
99	100	1
77	89	3
120	143	2
142	144	1
135	177	1
116	144	1
65	67	1
8	14	1
101	102	2
66	74	1
86	87	1
150	188	1
105	137	1
161	190	1
44	79	1
17	19	1
168	190	1
130	170	1
