23	23	15
7	8	5
57	58	6
45	45	19
6	7	7
36	37	9
52	52	13
10	11	10
62	63	6
11	12	6
49	51	2
20	20	17
28	28	7
2	3	5
50	50	12
44	61	1
0	2	4
3	3	8
39	43	1
39	39	9
5	6	3
34	34	10
40	40	10
33	33	8
3	15	1
53	53	17
73	73	5
21	21	17
48	59	3
43	43	7
55	76	2
13	13	13
44	44	12
12	12	25
54	55	7
48	48	4
71	71	16
34	35	2
7	7	13
57	57	11
70	70	6
61	62	9
76	77	4
56	56	11
31	31	14
60	60	8
43	44	7
38	49	1
18	19	1
49	49	7
29	29	14
1	1	19
4	4	6
41	41	10
67	67	10
74	75	2
32	32	5
67	68	7
9	21	2
0	0	12
47	47	8
21	28	3
19	19	14
51	51	7
37	37	3
22	22	7
5	23	1
8	10	1
64	67	3
36	36	13
34	63	3
77	77	2
6	9	3
19	20	8
75	75	7
10	10	12
27	76	4
20	21	9
59	61	1
64	64	9
24	25	3
9	9	10
44	45	4
62	62	9
19	21	3
68	68	7
56	67	1
66	66	4
33	59	1
30	30	8
2	5	2
13	14	2
30	31	3
29	32	3
33	34	2
59	59	5
55	55	4
21	60	2
8	8	11
2	2	9
26	26	10
64	77	2
65	65	8
61	61	18
58	59	2
25	26	4
24	24	6
66	69	3
42	42	9
52	67	1
35	36	4
22	23	2
59	60	5
8	9	5
6	6	12
47	48	1
8	24	1
63	64	1
28	29	2
68	69	2
27	27	7
62	73	2
5	5	3
74	74	6
25	25	4
23	32	1
26	27	1
37	38	3
50	51	3
21	22	1
18	18	5
35	35	5
38	39	5
1	2	8
14	14	3
37	42	1
58	58	10
75	76	4
23	25	2
6	28	4
63	63	4
55	57	4
54	68	1
49	66	5
73	74	5
9	10	2
24	29	1
56	57	1
56	76	2
39	61	2
12	13	2
4	41	2
23	24	1
13	42	2
31	32	3
48	70	1
23	31	1
3	5	1
70	71	6
72	72	1
47	49	1
7	25	2
3	60	1
39	44	1
4	5	3
64	65	1
3	4	1
69	70	1
7	36	1
29	34	1
41	42	2
48	50	2
37	54	1
54	74	1
36	52	4
43	45	1
2	11	2
30	33	4
72	73	2
18	44	2
22	38	1
38	38	3
51	52	1
51	53	1
44	46	2
55	56	1
47	72	1
23	77	3
5	7	1
11	11	2
46	46	5
12	24	2
53	54	1
50	52	2
39	51	1
68	70	1
21	32	1
34	61	1
42	44	1
22	34	1
42	75	1
38	48	1
