60	60	8
0	0	10
89	89	15
79	79	6
13	13	17
85	85	7
80	87	2
8	16	2
82	82	15
6	6	6
47	47	2
3	3	16
52	52	18
46	52	1
25	25	2
88	88	3
83	84	3
22	31	6
54	54	24
4	14	1
23	23	11
67	67	8
69	69	13
63	64	5
62	62	10
50	50	6
30	53	1
31	31	7
22	23	5
63	63	6
9	9	5
66	66	14
49	52	5
59	59	9
62	63	2
8	9	3
64	65	7
1	2	1
50	70	2
66	81	1
24	24	11
2	2	4
11	11	11
20	20	7
75	86	2
21	22	4
25	26	4
50	51	1
9	13	2
19	19	18
78	78	8
61	62	6
22	22	10
49	54	3
17	17	4
68	69	4
19	53	3
80	80	7
6	8	2
73	73	13
61	79	2
57	70	4
10	51	2
30	30	8
19	22	1
75	75	6
10	10	3
62	81	2
58	69	3
51	52	6
19	20	1
7	7	3
11	85	6
72	72	7
56	56	5
11	21	1
28	89	4
55	82	3
48	74	3
16	17	4
58	58	8
13	27	2
57	57	12
8	8	2
69	87	8
70	70	5
15	15	6
71	89	1
74	74	11
28	28	5
64	66	1
12	19	2
58	71	4
81	81	4
47	48	2
68	68	15
84	84	16
26	34	2
48	48	9
50	84	1
78	79	13
54	55	11
76	76	7
12	13	3
77	77	3
63	65	3
23	24	2
61	83	2
49	56	3
5	27	7
71	71	3
12	12	3
24	87	3
46	46	1
84	85	5
0	1	6
27	28	5
50	56	6
59	61	3
11	77	1
63	78	2
71	72	2
83	83	8
87	87	8
53	54	2
67	68	1
49	49	3
62	76	1
64	64	1
48	52	4
82	84	1
51	56	4
4	4	7
17	18	2
82	83	12
4	23	2
6	7	1
51	51	13
59	60	3
71	73	4
6	26	5
74	76	5
86	87	2
81	85	2
53	53	3
58	75	1
20	46	2
61	61	3
59	77	4
21	21	3
35	35	1
65	65	6
63	79	1
26	31	2
7	8	1
1	1	4
47	50	1
5	5	2
26	27	1
60	61	2
5	26	2
29	58	3
86	86	4
72	82	1
9	10	2
81	83	2
16	16	5
61	78	3
61	74	1
48	49	2
19	21	1
29	29	4
23	31	2
12	33	1
60	62	1
30	67	1
58	85	2
56	57	4
56	74	2
69	78	1
17	49	1
66	86	1
71	81	2
27	27	3
65	66	2
15	24	1
5	6	2
46	53	3
49	84	1
77	79	1
8	13	1
16	18	1
23	46	1
55	55	2
74	87	1
59	78	1
89	90	1
47	58	1
48	50	1
74	78	1
55	66	1
80	86	1
10	11	1
