52	52	18
50	52	5
57	57	22
41	42	2
40	57	3
34	34	21
48	49	11
5	9	4
57	58	2
5	5	10
0	1	9
30	30	23
40	52	4
4	13	1
59	60	9
45	57	9
43	43	27
49	49	28
18	18	12
61	61	19
18	38	3
46	46	18
26	29	1
37	56	1
46	47	9
31	41	3
48	62	3
48	48	39
51	59	6
15	15	12
44	44	29
47	47	17
39	39	15
16	16	4
34	35	9
41	41	19
59	59	18
33	34	7
47	48	10
13	13	6
34	48	4
42	42	22
23	23	11
53	54	19
51	53	9
53	53	27
31	39	3
50	50	42
40	53	8
54	54	14
14	14	8
10	10	15
38	39	20
20	39	3
17	17	6
41	55	1
21	24	3
39	50	2
45	46	9
60	61	4
38	38	5
43	44	13
37	62	4
43	46	3
37	37	23
54	58	2
31	31	20
32	32	20
51	51	27
49	55	3
35	48	1
35	35	20
52	54	6
4	5	5
12	12	5
35	37	3
54	57	6
19	24	2
20	20	13
24	24	10
30	35	2
36	37	6
30	31	14
7	7	8
36	36	18
21	21	4
19	37	4
30	37	3
60	60	17
16	56	3
13	14	5
40	40	21
56	57	7
1	1	9
0	2	5
33	33	9
22	22	5
9	9	3
15	16	11
20	21	5
3	4	6
11	11	2
44	47	3
52	57	2
62	62	14
32	33	2
52	53	7
58	58	23
2	12	1
3	3	16
8	54	3
58	60	8
43	45	4
55	58	4
45	45	16
51	55	3
42	44	4
4	4	19
55	55	13
5	6	4
19	40	2
46	58	2
42	43	3
49	51	12
47	57	2
48	55	2
36	44	3
31	58	4
31	46	4
9	25	1
51	52	10
45	47	4
35	49	2
29	57	2
55	59	7
7	8	4
37	50	2
39	42	3
4	12	5
19	39	2
56	56	8
18	19	4
39	41	3
57	59	3
54	55	10
56	62	2
42	45	3
39	40	6
1	4	1
7	18	1
56	59	2
9	56	2
7	24	4
8	24	1
10	11	4
38	53	1
9	22	1
30	51	1
0	0	3
39	51	3
13	17	3
25	25	2
40	41	3
53	58	3
6	24	3
19	52	1
19	20	1
44	45	2
32	47	2
57	60	3
31	32	4
36	45	1
55	60	2
55	56	2
16	55	1
30	49	2
38	42	1
4	11	2
61	62	3
22	23	8
49	50	12
6	6	5
40	42	2
19	22	2
1	2	5
33	47	1
14	49	1
23	40	3
6	8	1
17	19	2
30	39	3
30	55	3
8	17	3
24	42	2
22	25	4
22	54	1
40	54	3
31	33	3
38	41	11
30	50	2
41	57	1
2	3	1
13	55	3
33	39	5
40	58	2
14	16	2
2	2	8
8	9	5
45	61	1
23	24	3
47	58	1
38	40	2
11	13	3
8	53	2
52	55	3
25	38	1
13	15	2
58	59	5
30	33	4
8	25	1
37	40	2
15	57	2
30	48	1
6	7	1
0	3	1
0	4	1
12	15	1
4	9	2
2	45	1
16	17	1
40	44	1
25	41	3
4	15	1
14	45	1
20	24	1
30	57	3
13	16	1
9	12	1
50	51	4
33	42	1
5	13	1
5	10	1
3	35	1
24	53	1
17	52	2
18	40	1
21	51	1
50	55	2
35	36	3
36	43	2
30	32	1
22	51	1
56	58	2
10	54	1
39	56	1
25	37	1
37	42	1
53	57	1
42	47	1
3	15	4
4	10	1
10	49	1
37	51	2
1	39	1
35	50	2
5	17	2
42	53	1
45	54	1
36	48	1
54	59	1
36	39	1
37	38	1
13	50	1
