106	111	7
65	65	7
5	6	3
4	5	3
123	123	14
101	101	18
97	97	10
1	2	6
52	54	10
133	133	7
72	73	3
126	132	2
25	25	7
87	88	3
116	118	6
54	55	6
31	34	1
65	66	9
98	98	9
104	109	2
115	115	20
114	115	11
130	130	6
112	113	7
125	126	3
131	131	5
77	79	1
53	54	7
10	111	3
93	93	5
116	116	10
100	101	3
90	90	8
81	120	2
23	23	5
60	60	5
89	89	10
74	74	17
57	58	6
54	56	3
52	55	5
80	81	5
99	99	13
63	64	6
3	3	14
63	121	2
19	82	3
86	86	12
25	26	6
95	95	10
77	77	7
0	2	4
67	68	5
21	21	6
54	54	6
10	10	5
45	45	6
135	135	3
107	109	2
131	132	3
128	130	4
126	126	6
64	64	12
83	83	7
124	125	4
102	103	3
96	96	10
94	94	9
12	95	1
47	51	2
79	80	7
18	19	1
53	59	2
91	92	9
56	57	6
121	121	11
20	21	5
32	32	4
91	91	17
131	133	5
100	100	5
13	121	2
13	15	3
128	128	4
94	95	1
24	25	6
106	107	7
55	55	2
126	127	3
44	44	2
108	110	2
133	134	5
72	72	10
111	111	4
127	129	3
59	76	3
66	66	4
87	87	12
84	85	4
13	13	3
26	26	6
113	113	10
53	53	7
80	80	6
118	118	7
4	4	9
6	8	5
14	14	7
22	23	2
108	108	1
1	5	4
31	31	4
114	114	20
122	123	7
2	2	9
68	102	2
54	57	3
8	8	6
49	49	5
129	129	3
68	68	2
1	1	5
12	13	5
109	109	2
67	67	4
32	48	4
94	114	1
77	78	5
105	105	7
62	62	3
44	45	5
62	64	5
102	111	2
90	91	3
82	82	6
118	122	1
34	34	1
42	44	1
112	112	1
121	122	1
127	128	5
96	98	1
115	131	2
73	73	9
112	115	1
79	79	8
117	117	8
32	34	2
18	18	5
0	0	5
37	109	2
117	118	1
50	50	6
117	127	2
61	61	3
10	107	8
76	76	5
3	6	2
28	28	2
115	116	2
59	59	6
66	67	4
121	123	1
106	131	4
103	103	8
83	92	2
120	120	7
58	58	4
63	63	7
81	100	1
70	70	7
120	121	3
58	59	1
23	25	1
69	69	7
118	119	1
71	130	1
72	134	4
20	92	2
105	106	5
89	90	5
27	28	1
24	24	14
85	85	5
52	52	2
114	122	2
61	62	1
132	132	3
117	121	2
52	53	1
31	32	1
19	20	5
132	133	1
84	84	8
7	95	1
1	3	2
96	106	2
75	75	7
28	29	1
69	101	4
50	53	1
108	111	1
123	124	6
124	124	6
67	107	1
110	111	6
102	102	7
9	10	1
109	110	2
65	70	1
119	120	1
104	115	3
134	134	6
15	122	1
9	66	2
80	94	3
92	94	1
17	104	1
74	75	3
9	9	1
73	74	1
34	35	3
108	112	3
125	125	3
17	124	1
46	46	1
24	104	1
19	19	3
6	6	4
6	7	3
42	43	1
130	132	1
114	117	2
69	70	2
12	16	3
27	27	2
43	43	6
45	93	1
71	72	3
7	13	1
57	60	2
78	79	4
96	97	4
7	7	5
88	89	2
106	110	1
99	100	2
7	106	1
92	92	1
22	22	2
34	38	1
68	116	1
93	94	3
110	118	3
57	57	2
112	114	1
78	78	5
0	5	1
113	117	1
53	60	1
130	131	3
122	124	1
110	128	2
59	61	2
11	11	4
81	95	2
119	119	5
61	64	1
88	88	2
77	80	1
93	95	2
17	18	2
110	110	2
33	33	1
110	114	2
60	61	2
82	95	1
113	115	2
66	107	1
82	83	2
104	104	1
44	92	1
15	17	1
75	76	1
107	107	1
90	97	2
101	102	3
109	111	1
131	135	1
68	69	1
128	132	1
83	84	3
46	106	3
29	29	2
127	130	1
127	127	1
71	71	2
75	79	1
70	72	1
127	134	2
55	57	1
30	32	1
70	101	1
110	113	1
5	5	1
0	4	3
108	109	1
107	110	1
29	30	1
13	113	1
69	121	2
104	105	1
22	91	1
61	67	1
49	50	1
57	126	1
52	60	2
17	17	1
2	4	1
64	68	1
