64	65	3
3	85	1
119	120	5
20	21	9
6	6	10
82	86	3
130	130	14
109	109	6
117	117	8
69	69	12
119	129	5
120	136	3
40	41	6
106	106	6
65	88	2
111	111	8
97	108	3
88	88	8
19	19	17
57	133	2
89	94	3
143	144	4
62	62	12
111	139	5
37	39	1
96	96	11
107	118	2
50	52	8
2	2	10
48	59	1
73	73	9
99	99	15
84	84	7
134	134	14
64	64	10
38	38	16
89	89	6
3	4	6
87	142	3
33	33	15
8	9	4
92	134	1
79	80	6
4	6	11
12	12	4
90	90	7
111	114	2
34	34	11
72	72	6
49	49	17
56	57	2
70	73	3
20	22	3
128	128	18
115	135	3
17	17	13
117	121	5
57	64	5
138	140	2
28	120	3
1	1	5
11	11	9
2	35	9
5	5	14
91	91	9
144	144	9
23	24	2
23	23	10
86	110	2
112	112	13
63	114	1
139	140	4
51	51	6
131	131	10
28	28	12
16	16	7
28	29	3
4	5	11
42	47	3
31	31	5
95	96	6
113	135	2
80	80	11
98	98	7
76	79	8
106	138	2
29	29	13
100	100	4
1	2	4
97	98	7
76	76	11
119	127	1
101	101	7
41	41	10
61	61	14
118	120	1
53	53	15
98	103	2
36	37	12
56	61	3
102	102	6
3	103	3
27	27	12
56	110	3
47	52	2
21	21	11
62	63	5
127	127	7
74	75	1
110	110	3
81	81	10
141	141	14
57	57	10
133	135	4
137	137	17
103	104	3
15	129	2
12	34	3
109	110	4
80	81	3
35	37	2
30	30	8
136	136	18
50	70	2
122	128	1
67	75	2
142	142	12
37	37	6
66	66	6
13	51	2
125	125	15
92	92	10
14	15	4
105	138	5
82	83	5
84	85	2
3	61	1
104	109	1
51	68	2
3	34	5
77	78	5
4	62	2
120	120	27
143	143	6
10	20	5
82	82	14
123	123	6
83	83	5
132	138	3
103	103	12
140	141	16
38	84	4
142	143	11
75	75	5
136	140	4
48	49	2
49	53	4
77	79	4
124	124	14
52	57	5
139	139	8
119	133	2
60	60	11
51	65	1
0	0	8
126	126	12
118	118	6
118	136	2
35	35	10
113	113	4
54	144	1
59	59	4
116	116	5
111	117	2
74	74	16
5	6	3
118	119	15
103	105	3
121	122	4
18	19	7
134	135	7
39	43	1
22	22	12
63	63	10
97	117	2
66	72	4
70	71	2
1	35	4
38	59	5
115	115	7
65	69	6
94	94	6
126	144	1
40	40	6
25	59	1
78	79	8
73	75	3
90	92	2
89	124	4
49	51	3
104	104	4
63	118	1
66	70	2
18	18	16
133	133	5
36	90	4
27	57	1
131	132	5
58	58	8
56	58	7
32	32	11
54	54	12
34	43	4
123	144	4
74	142	3
81	82	6
119	119	6
82	87	1
70	70	5
124	125	6
77	77	9
76	77	6
50	51	11
10	18	1
97	97	7
26	26	9
90	91	2
78	106	4
131	134	3
104	111	3
66	69	4
136	137	5
94	95	3
43	43	5
24	25	7
10	10	4
132	135	5
138	138	5
107	108	2
112	119	4
32	53	1
76	106	1
34	54	3
78	78	7
99	101	5
101	102	5
111	112	4
104	128	6
85	85	4
117	118	2
122	123	13
20	20	22
138	139	1
83	84	8
130	136	2
117	130	4
55	55	5
130	144	1
13	13	8
108	109	4
113	136	3
9	36	2
39	40	3
68	71	1
140	140	19
33	55	1
51	52	2
135	135	9
8	20	2
110	139	3
104	106	3
14	14	4
36	36	12
9	10	6
96	97	4
119	128	2
123	133	2
105	105	2
88	105	2
67	69	4
93	93	9
51	137	2
80	141	1
47	69	6
86	86	6
4	4	9
8	8	2
11	30	2
3	35	1
38	40	2
117	136	5
114	115	2
49	50	3
114	114	7
107	107	3
103	124	3
41	42	9
26	41	1
42	42	19
40	43	2
10	15	1
68	68	7
33	54	1
9	9	5
19	20	1
120	134	2
95	95	12
25	39	2
30	31	1
59	60	6
103	112	3
47	48	2
67	76	2
2	53	1
137	139	5
67	67	5
93	95	2
22	23	3
108	108	7
33	53	2
37	116	1
72	75	3
34	40	1
58	61	2
121	121	6
10	11	2
49	64	1
49	131	1
116	140	1
47	47	3
2	4	3
137	138	4
97	118	1
104	110	3
48	48	6
69	70	4
31	56	4
89	92	2
71	72	5
24	24	5
104	120	1
78	90	2
119	142	2
58	137	2
60	61	5
68	69	2
135	136	3
71	87	1
124	129	4
83	86	1
87	121	1
105	139	1
67	74	3
29	30	1
129	129	11
87	103	1
38	39	4
80	83	1
83	85	4
75	115	1
56	56	7
117	141	3
128	130	3
12	21	2
19	21	2
25	25	8
30	33	1
93	144	3
21	37	4
50	50	3
3	3	14
69	120	1
112	114	4
112	113	2
4	36	3
134	137	3
91	125	4
64	66	1
10	17	1
130	131	3
65	66	1
30	32	3
68	91	3
75	76	3
141	142	6
109	111	1
105	130	1
8	19	1
71	71	7
99	100	1
34	50	4
88	89	3
91	143	1
118	127	1
34	106	2
15	94	2
0	2	3
97	111	1
104	117	4
99	124	4
0	1	2
132	132	7
145	145	1
95	131	3
71	76	1
67	68	6
106	113	1
118	130	2
71	75	1
112	137	1
78	83	3
66	75	3
2	6	1
39	101	1
105	106	2
25	60	1
6	27	1
116	143	1
121	124	2
89	90	1
116	135	1
69	88	5
43	52	3
79	84	2
90	118	3
33	37	1
22	28	6
90	106	2
11	21	2
13	34	2
12	13	2
124	131	2
89	106	2
4	29	3
57	137	1
128	143	3
31	33	2
104	130	1
3	33	1
145	146	2
63	65	1
131	135	2
22	24	2
98	99	2
78	104	5
23	68	1
122	122	5
49	59	1
133	134	4
88	93	5
27	38	1
15	16	3
3	83	1
63	64	1
126	127	8
131	133	2
13	14	5
77	114	1
52	52	2
88	124	2
113	115	2
24	39	1
100	101	4
50	59	1
135	137	1
68	72	4
15	15	2
111	115	2
73	78	1
1	33	1
64	67	2
32	33	1
58	59	7
77	117	1
92	96	2
108	119	1
124	127	2
70	94	1
118	138	4
53	54	2
79	85	3
137	141	2
35	40	1
1	4	1
120	135	2
26	27	2
17	18	1
91	130	1
75	131	1
108	110	3
127	128	1
14	16	1
12	14	1
127	130	4
32	56	3
130	137	2
39	39	1
38	41	1
97	142	1
132	140	1
75	83	1
103	126	1
118	123	1
55	56	1
74	89	1
71	73	1
81	111	1
34	36	2
68	74	2
87	110	2
126	128	1
87	87	2
125	127	5
97	112	1
78	80	2
36	43	2
96	139	1
84	109	1
83	87	5
55	57	2
102	124	2
132	136	4
41	121	3
123	127	1
125	128	2
93	94	2
118	137	2
132	141	1
26	124	1
96	114	1
73	74	1
12	117	2
121	136	1
119	136	1
103	106	2
136	138	3
65	120	1
92	98	2
92	124	1
20	42	1
82	84	1
72	73	3
86	87	2
82	123	2
33	96	1
55	137	1
101	103	2
49	145	1
77	85	1
94	96	2
88	119	1
116	118	1
117	144	1
54	64	1
93	105	1
71	144	1
141	144	1
19	95	1
113	139	2
59	61	1
16	127	1
65	65	4
104	107	1
95	105	1
132	133	2
91	92	2
61	63	1
82	114	1
129	134	1
27	66	1
128	134	2
81	138	1
8	21	1
73	108	2
119	123	2
19	141	1
12	43	1
64	69	1
94	104	1
31	36	1
78	85	1
10	23	1
130	134	1
46	47	5
69	77	1
127	129	1
79	79	1
61	62	3
104	105	2
53	136	3
134	140	1
112	138	1
105	109	1
74	91	1
37	90	1
19	22	1
11	14	2
111	113	2
107	138	1
23	55	1
123	124	1
66	68	1
80	90	1
104	121	1
13	15	1
10	21	2
74	78	1
120	132	1
88	115	1
105	116	1
123	136	2
57	58	2
52	53	1
126	134	1
128	129	1
32	55	1
27	28	1
111	118	1
116	130	2
77	80	1
5	30	1
43	90	1
120	139	1
11	20	1
35	36	1
116	121	1
125	130	1
71	88	1
37	38	1
134	138	1
24	55	1
13	20	1
3	108	1
9	21	1
58	64	1
1	65	1
103	122	1
133	136	1
