98	98	13
4	4	6
0	35	5
104	104	5
162	163	3
152	152	6
148	150	4
44	44	7
86	110	2
36	36	13
88	89	2
56	64	3
18	20	1
77	106	2
56	56	3
125	126	9
82	111	2
17	53	4
131	164	2
34	34	3
146	146	10
87	87	12
21	22	8
143	143	1
147	148	2
96	103	4
38	38	7
47	47	6
131	131	3
18	18	7
14	18	6
51	51	7
6	6	2
114	116	4
69	69	6
40	40	4
122	124	2
66	66	1
101	101	6
69	70	2
155	160	2
40	72	4
68	68	5
130	155	3
71	72	5
154	154	7
81	81	9
16	16	15
47	52	3
6	84	1
42	42	8
107	107	6
120	141	4
135	155	2
99	104	4
14	88	6
7	12	2
100	104	3
167	167	4
161	162	5
48	48	3
91	95	2
119	120	2
168	168	5
21	21	3
92	111	1
20	85	3
90	90	3
6	13	5
37	41	4
113	114	7
8	8	3
14	14	6
146	162	4
0	0	3
22	22	9
71	71	1
25	25	9
95	95	3
111	111	2
108	109	3
71	79	1
76	77	3
95	97	1
155	168	4
54	54	5
9	11	1
13	13	7
158	158	2
11	11	3
46	70	2
115	115	8
85	86	1
166	166	4
45	45	3
47	56	1
146	147	2
24	26	4
52	53	2
98	99	3
141	141	2
80	81	3
17	17	4
164	164	7
161	161	2
8	10	3
79	79	8
136	136	3
115	147	3
142	144	1
84	84	1
22	23	3
45	46	4
70	72	6
113	116	1
53	91	2
28	54	6
18	49	2
39	106	5
74	74	3
53	53	4
113	127	3
114	114	5
147	147	3
43	43	4
46	46	3
34	35	2
140	140	2
55	55	9
78	87	1
7	8	1
126	163	2
167	168	2
42	43	6
106	106	4
137	137	4
20	39	2
9	9	9
119	164	2
136	137	5
57	58	3
113	113	5
123	124	3
96	96	10
110	126	3
63	63	5
14	15	2
122	131	2
76	91	1
7	7	4
67	68	8
153	154	1
50	69	2
106	112	5
151	151	6
92	92	9
37	42	2
103	105	1
150	150	4
162	162	8
113	164	4
39	39	5
126	127	1
145	145	4
123	126	8
68	69	1
126	137	2
10	10	3
103	103	3
1	1	8
24	38	2
99	156	1
119	119	3
8	108	1
62	62	6
70	71	2
164	165	2
13	14	8
3	5	1
8	44	1
7	44	3
55	56	1
122	122	3
49	49	8
35	76	1
6	43	3
24	24	5
66	68	3
71	101	3
124	124	1
71	106	1
20	77	3
39	40	2
28	28	6
111	143	2
121	122	1
99	99	3
87	88	1
22	62	2
163	165	2
135	136	4
135	168	1
137	138	1
50	71	3
41	111	1
12	12	4
13	15	3
116	116	2
130	164	3
92	99	1
12	94	1
21	51	2
126	159	4
140	170	1
159	160	1
46	55	2
18	19	5
20	119	1
75	75	1
44	46	7
131	165	2
78	78	2
123	123	5
144	145	4
120	143	1
125	155	2
102	102	3
135	135	1
145	151	2
112	159	2
3	12	1
9	10	2
15	48	2
160	161	1
119	128	2
143	144	2
77	77	2
110	111	3
93	93	5
14	109	4
146	150	1
94	94	3
126	141	2
77	87	1
20	20	2
53	56	2
76	99	2
47	70	2
4	12	4
19	19	7
96	114	3
65	65	1
10	83	2
101	103	2
92	94	1
155	155	2
109	109	4
17	102	3
115	161	4
88	88	3
100	102	3
76	78	2
80	160	1
39	41	1
13	44	1
93	94	1
85	85	2
99	100	2
41	41	3
24	90	3
46	85	1
33	33	2
101	102	3
15	15	5
23	23	5
2	35	5
5	5	4
70	70	3
86	86	2
6	48	4
80	80	2
39	90	2
122	127	1
109	110	1
89	90	1
15	114	2
83	107	1
50	50	3
97	112	1
10	109	1
82	82	2
132	132	1
13	109	1
23	40	2
156	161	2
129	166	1
139	139	2
75	86	2
75	76	1
39	100	2
35	35	4
13	25	2
139	140	2
27	123	1
24	35	1
8	9	2
94	102	3
3	4	2
152	153	2
94	97	1
37	38	1
121	124	2
123	127	1
81	82	1
57	57	1
85	101	2
95	96	2
97	97	5
43	49	1
63	64	1
35	36	2
79	80	1
3	3	2
16	19	1
52	52	2
142	142	1
90	91	2
151	152	1
37	37	2
84	85	1
125	134	1
49	52	2
2	2	1
98	127	1
2	12	1
4	20	2
4	5	1
113	159	2
26	26	1
100	100	1
138	138	2
51	86	1
77	89	3
99	105	1
28	75	1
83	83	1
82	116	2
91	91	1
86	87	2
148	148	1
21	47	1
11	82	1
73	73	3
133	133	1
115	116	1
48	80	2
63	65	1
80	114	2
117	155	1
74	86	1
132	133	1
80	102	1
110	110	2
41	42	2
55	100	1
18	90	2
103	113	2
77	78	1
53	58	1
82	150	1
107	109	1
94	100	1
50	63	1
124	154	1
71	90	2
50	52	1
157	157	1
127	165	1
32	35	2
47	50	1
89	101	1
97	98	1
64	99	1
58	81	1
99	161	1
44	88	1
67	67	1
52	107	1
112	113	2
100	101	2
112	114	1
160	160	1
62	81	1
102	103	1
149	149	1
109	131	1
128	128	1
169	169	1
159	159	1
7	10	1
