81	86	3
158	158	16
115	154	4
120	120	10
109	109	7
123	123	6
196	196	12
21	26	6
136	136	16
6	6	4
189	190	9
43	43	5
11	12	5
180	180	5
139	139	11
111	112	1
81	84	9
187	187	24
72	72	8
184	184	2
165	165	4
5	5	2
195	195	10
159	159	6
8	44	1
109	143	2
123	125	4
17	17	11
1	2	5
172	172	11
16	16	6
26	26	19
108	108	12
152	163	3
191	193	1
20	20	9
188	188	10
121	121	2
169	185	3
117	147	2
99	99	2
23	32	6
186	186	7
113	113	11
51	51	6
193	194	4
135	139	3
57	57	10
0	1	4
10	57	3
6	8	2
177	185	1
130	136	4
85	158	2
37	82	2
13	14	7
106	106	3
43	44	6
158	161	1
168	169	8
186	192	4
73	73	5
187	189	3
168	170	2
34	35	10
143	144	1
41	42	10
136	138	4
155	155	4
52	54	10
156	156	14
44	44	9
8	8	7
4	5	1
98	139	3
153	161	2
82	82	1
19	19	4
14	23	2
41	41	7
79	80	8
29	71	4
181	181	13
0	26	2
181	183	8
114	114	7
80	80	8
117	138	5
26	27	8
166	166	5
9	10	3
150	150	11
3	21	1
118	118	1
104	115	2
18	36	5
16	28	2
62	62	2
53	53	7
100	100	2
39	77	2
155	168	6
66	66	8
177	177	10
14	15	2
9	9	10
44	45	3
29	29	13
53	54	3
185	185	8
174	174	14
170	170	3
56	56	5
158	192	5
126	134	6
174	175	2
154	156	4
183	183	20
33	37	1
27	31	3
132	152	2
142	143	9
179	179	9
81	81	3
146	146	10
32	32	8
165	167	2
180	191	1
15	25	4
97	98	2
18	18	16
61	74	2
193	193	12
18	19	4
110	182	4
148	148	7
37	37	6
135	140	2
85	94	1
37	52	3
168	168	14
107	113	4
68	68	7
45	45	9
42	72	3
54	55	3
32	56	4
138	138	7
185	186	3
155	191	4
38	39	4
165	166	3
134	135	1
55	55	6
40	40	6
162	173	8
50	50	6
185	191	2
52	52	16
106	163	5
130	170	2
7	8	1
143	143	6
4	4	3
13	13	8
176	176	7
112	134	5
157	190	2
34	34	11
10	10	10
49	49	14
141	143	2
29	30	9
189	189	6
47	48	2
47	47	11
35	35	6
46	46	14
24	28	2
30	30	15
153	162	3
82	86	4
44	105	3
80	81	4
102	102	6
10	12	2
9	31	5
137	137	2
149	159	3
170	171	5
129	129	3
154	155	6
88	105	3
9	16	3
50	51	1
59	73	2
175	175	19
98	98	4
130	130	9
48	48	10
116	118	2
100	144	1
24	24	3
146	176	4
145	145	4
142	142	3
127	127	6
160	161	4
160	165	5
39	39	14
33	56	1
70	70	4
157	157	2
186	191	7
96	96	5
8	9	5
148	149	3
55	60	3
165	186	2
31	31	4
17	29	5
167	169	1
26	34	3
63	63	4
17	51	6
11	11	12
184	197	1
2	29	5
26	35	3
126	126	10
28	30	1
145	152	2
123	153	4
20	22	8
4	24	2
154	174	1
194	195	6
153	153	5
1	1	6
12	12	6
177	182	4
171	171	3
177	178	8
17	18	1
3	27	2
189	191	7
137	177	1
122	124	1
83	85	3
174	177	5
42	42	4
44	47	3
85	161	3
116	147	1
146	177	3
33	33	5
178	178	15
175	179	1
15	16	5
182	182	9
0	0	11
161	161	10
81	83	3
105	106	3
179	193	1
171	172	1
71	71	13
60	75	6
36	36	4
160	168	4
59	59	5
164	164	11
30	31	1
124	124	12
153	165	2
143	145	3
65	77	1
78	86	1
56	61	2
17	19	6
152	152	4
151	152	3
83	86	2
64	64	8
54	54	3
27	34	1
11	15	2
68	72	1
169	170	3
186	190	3
21	24	2
78	78	4
130	137	3
25	25	11
154	166	1
69	69	4
19	20	8
110	110	2
119	127	7
181	182	7
163	163	5
76	82	5
192	193	6
19	33	2
61	61	2
41	70	3
3	85	2
144	144	7
14	43	3
151	151	11
134	134	5
40	75	2
64	75	1
15	26	1
116	166	2
107	108	2
194	194	2
117	153	3
77	77	7
119	119	5
119	167	1
174	178	1
137	138	4
173	176	2
137	152	2
13	56	4
154	154	6
5	6	8
156	157	5
140	140	4
77	79	4
79	79	4
69	71	2
0	4	2
18	23	3
148	168	5
40	42	1
100	102	2
112	112	8
14	14	11
173	173	1
58	58	12
153	174	1
174	176	5
85	85	5
147	147	1
153	158	1
169	169	2
97	101	5
3	3	10
115	119	6
35	36	3
161	164	1
84	95	1
22	22	10
115	115	12
113	120	4
131	141	2
109	123	1
145	146	4
45	46	2
28	28	6
197	197	3
179	180	2
60	64	3
109	122	3
136	137	2
102	107	1
2	2	5
87	88	2
164	176	6
25	39	3
58	66	1
39	40	2
3	6	2
56	66	1
149	149	11
89	90	3
111	138	5
162	168	1
20	21	2
158	197	1
122	122	3
67	88	1
28	29	1
15	15	8
107	141	3
127	129	3
163	166	2
10	14	2
95	165	1
116	126	4
133	133	4
140	142	1
127	139	2
166	172	2
70	77	1
126	137	5
48	49	1
28	70	2
162	162	5
73	81	1
114	196	4
7	7	6
86	86	4
162	165	2
152	153	1
167	167	12
94	151	1
85	156	1
9	11	2
134	149	5
60	61	2
182	183	1
76	76	7
21	21	5
42	73	3
51	52	1
46	47	1
38	38	9
7	26	2
36	50	2
41	73	2
88	88	1
163	195	1
71	79	3
120	126	1
110	142	3
13	36	2
61	65	2
5	81	1
22	26	4
14	55	1
39	70	1
132	132	4
16	120	2
185	192	2
120	121	3
159	161	2
81	85	1
131	131	7
46	83	1
121	156	2
61	75	1
8	45	1
101	103	2
34	36	3
118	161	2
117	176	2
103	103	5
138	177	1
4	23	1
15	32	1
119	123	1
2	3	3
140	154	3
3	24	2
10	11	2
131	133	1
135	153	2
163	178	3
136	155	1
9	45	1
79	90	1
32	63	1
89	89	3
31	36	2
119	136	2
111	121	3
23	52	1
76	78	5
139	143	1
169	172	2
172	182	1
117	139	1
191	192	1
121	123	2
98	104	1
95	96	1
159	186	1
161	162	1
28	31	1
26	33	3
137	173	5
27	27	5
160	160	4
8	16	3
178	185	3
100	101	1
3	5	2
87	87	5
22	37	4
57	58	1
162	163	3
110	150	2
135	154	1
3	7	2
108	109	1
117	143	2
85	86	1
108	124	2
164	174	1
22	23	1
62	63	1
94	94	5
127	149	2
64	73	1
114	115	1
154	173	3
40	41	4
43	67	4
158	179	2
155	158	2
133	177	3
75	100	2
145	147	3
97	155	1
192	192	5
140	177	2
73	76	1
180	181	3
107	107	3
116	139	3
23	67	4
125	136	1
74	77	2
148	158	3
157	179	1
63	75	2
62	65	1
46	54	1
156	178	1
104	105	2
95	95	2
128	159	1
147	150	1
116	158	2
146	153	1
173	175	1
10	54	1
163	174	1
22	55	2
2	32	3
137	143	1
157	161	2
37	38	2
146	154	2
13	50	3
185	194	1
39	59	1
104	104	2
144	177	1
130	131	2
183	184	5
108	110	2
177	179	2
86	87	2
143	154	1
145	173	1
163	185	1
135	146	1
171	173	4
117	142	2
181	185	1
146	164	1
6	27	1
50	52	2
186	187	2
125	125	2
9	53	4
5	54	3
6	20	1
27	42	1
179	185	1
71	72	1
77	78	1
192	194	2
117	163	1
160	178	1
133	135	2
105	105	2
111	111	1
191	191	1
150	152	1
12	13	1
141	178	2
119	126	1
7	45	2
109	121	1
21	56	1
32	64	1
135	135	2
130	193	2
16	25	1
62	69	1
116	116	2
123	124	1
174	196	1
37	46	2
185	187	1
128	128	2
23	23	2
44	89	1
144	145	2
143	169	2
33	57	1
180	185	1
165	175	1
74	74	1
121	122	1
147	158	1
87	89	1
154	167	2
74	83	1
28	36	1
67	67	1
16	18	1
15	33	1
146	158	1
141	153	1
136	141	1
186	188	2
75	75	1
44	74	1
20	37	1
23	24	1
96	99	1
54	56	1
102	103	1
131	132	1
155	162	1
62	64	1
149	197	1
102	182	1
68	77	1
188	194	1
49	50	1
16	35	1
19	35	1
