42	42	14
58	127	1
57	57	4
1	1	5
0	1	3
50	58	3
0	24	4
128	128	10
110	110	18
88	97	7
169	169	23
1	41	2
91	92	11
51	51	24
40	40	23
100	100	19
15	15	26
24	24	9
89	141	2
43	44	3
68	68	16
15	18	2
2	6	2
3	3	15
55	55	2
95	95	12
129	129	4
144	144	5
167	167	7
80	80	6
110	150	2
36	36	6
11	17	2
16	16	6
154	154	25
85	153	3
71	77	5
139	139	9
17	17	1
8	8	29
64	64	11
53	84	1
107	107	10
66	67	7
16	17	5
15	57	7
19	19	16
66	68	3
135	135	15
53	53	11
82	83	3
56	56	13
146	146	9
96	96	10
136	136	20
142	142	7
57	62	7
18	18	9
101	118	3
145	145	12
108	108	19
118	119	1
76	116	8
104	143	4
18	47	3
9	9	5
138	168	4
34	34	5
71	71	8
143	144	10
157	157	17
82	82	11
28	28	11
147	147	11
3	18	3
141	141	12
21	22	6
4	4	7
91	93	2
65	66	3
112	112	11
123	123	7
136	169	2
94	95	5
156	156	5
7	21	1
84	84	7
93	93	7
15	88	4
140	140	9
12	88	1
20	20	18
53	81	3
67	67	25
90	91	4
168	168	14
14	51	7
36	37	4
46	49	5
139	166	2
53	56	5
24	26	1
21	27	3
2	72	2
148	162	1
38	39	2
33	107	3
113	113	7
48	48	10
143	165	5
151	151	7
22	38	3
37	56	1
138	158	3
50	50	15
125	125	14
154	155	1
47	47	9
91	91	10
166	167	4
5	5	23
85	85	19
11	11	16
44	44	14
54	64	4
131	131	6
43	43	12
47	51	1
143	164	5
109	109	10
33	33	4
104	105	3
37	37	25
87	87	5
145	146	2
160	160	11
116	130	2
47	48	11
12	12	22
106	106	7
14	14	15
134	134	8
163	163	10
151	170	1
48	143	2
15	16	4
101	101	4
38	38	7
25	28	1
114	124	2
148	149	5
133	150	4
158	160	4
67	69	1
115	115	4
85	97	1
40	48	2
63	63	13
69	72	2
3	16	1
52	52	18
92	92	3
93	94	2
155	156	8
110	111	6
99	99	5
41	41	13
19	49	5
14	15	10
116	121	1
21	39	4
155	155	14
104	104	13
3	48	5
138	138	7
73	73	3
44	45	4
25	25	21
95	96	2
2	2	13
69	70	6
6	6	14
69	69	6
45	45	10
114	114	4
77	77	8
165	165	7
153	154	3
81	82	6
35	35	17
72	91	1
152	152	3
161	161	3
155	157	4
13	13	6
123	164	2
105	105	16
7	7	20
65	67	5
143	143	13
141	161	7
81	81	5
4	41	3
48	51	1
81	84	3
116	119	2
74	75	7
79	79	6
75	75	2
11	12	5
120	165	4
73	114	4
22	22	3
20	57	5
133	134	1
153	155	1
8	12	4
17	40	1
101	167	1
8	10	3
116	116	10
111	111	9
52	84	4
161	162	3
101	103	4
149	150	2
55	86	3
141	160	1
149	168	3
148	148	6
164	165	1
70	70	8
109	151	3
121	121	9
83	83	5
37	38	1
66	69	1
21	24	6
155	162	4
118	118	3
57	88	1
153	153	8
115	116	3
66	66	5
0	0	5
109	111	6
127	127	10
150	161	1
15	58	2
54	54	11
103	104	5
109	110	4
78	78	2
113	114	8
19	70	5
106	133	4
111	112	2
38	54	1
149	151	3
152	153	3
39	62	2
135	137	2
48	49	12
151	152	2
138	157	2
51	147	3
86	88	3
114	130	2
105	107	1
49	49	3
117	117	9
137	146	2
5	56	1
45	46	3
6	7	3
139	158	1
7	80	2
122	122	3
103	103	3
7	8	7
137	138	2
166	166	6
90	90	5
19	20	2
102	102	14
119	120	5
3	80	1
127	159	1
16	58	2
88	88	1
11	16	2
18	19	4
133	133	6
77	79	4
98	99	4
39	39	6
115	124	2
23	23	8
50	69	1
72	72	1
62	62	4
138	139	1
168	169	3
105	143	4
140	155	1
159	162	3
7	147	1
73	116	2
104	106	4
75	76	4
69	116	2
74	74	6
21	21	6
77	98	5
17	49	2
19	45	2
27	28	2
141	142	3
13	27	3
15	44	8
14	24	7
13	15	1
76	76	15
89	89	1
97	120	1
20	21	2
86	87	3
138	147	4
139	140	1
79	112	2
122	125	3
40	47	1
26	26	4
130	142	2
20	27	1
139	156	5
18	88	1
140	143	2
46	46	11
88	89	6
38	44	1
64	127	3
52	56	8
126	126	3
68	72	1
103	110	1
131	139	2
97	97	4
46	47	1
129	130	3
149	149	3
34	35	1
41	42	1
39	40	6
128	129	3
47	49	2
18	87	3
84	85	4
149	162	1
50	64	1
136	137	3
98	98	1
23	24	6
124	124	3
149	160	2
129	131	2
68	97	4
126	140	2
76	99	1
110	136	2
21	23	1
170	170	2
18	46	1
54	55	3
2	64	1
77	78	3
83	84	1
148	153	1
52	54	3
28	43	3
20	22	2
71	72	1
128	130	2
158	158	2
68	69	2
154	162	3
97	99	1
55	56	2
144	145	2
137	137	4
73	111	2
124	125	1
24	37	2
34	136	2
102	117	3
144	165	1
146	163	2
132	152	2
65	65	3
78	86	2
21	25	3
10	10	3
115	117	1
160	163	1
0	28	1
37	44	1
113	131	1
24	25	1
5	55	2
10	155	3
12	24	1
27	27	3
120	120	2
127	156	2
118	120	3
45	50	2
164	164	1
134	135	1
112	120	1
119	124	2
17	42	1
92	93	7
112	123	1
150	150	4
130	130	2
6	39	1
94	121	1
125	126	1
58	88	1
50	62	1
157	158	1
19	44	1
105	167	1
7	20	1
167	168	1
137	169	1
63	66	2
51	64	1
132	132	3
122	126	2
26	27	1
139	152	1
98	140	1
115	118	2
13	23	1
113	116	1
13	18	2
81	83	1
135	156	2
55	143	1
86	86	1
85	148	2
2	15	1
18	55	1
46	50	1
23	38	1
9	14	1
80	84	1
107	117	1
77	86	2
127	130	1
1	13	1
15	17	1
5	40	2
95	121	2
159	159	1
63	70	1
120	125	1
15	51	1
40	41	1
7	9	1
62	63	1
109	114	1
52	83	1
16	51	1
112	113	1
132	133	1
102	104	1
4	5	1
142	154	1
69	107	1
158	163	1
119	119	1
138	166	1
101	117	1
159	161	1
2	53	1
