1	1	24
9	12	3
139	139	18
132	133	3
103	120	1
84	84	3
122	122	20
16	16	12
35	35	7
17	19	3
87	119	2
27	28	9
80	97	3
137	137	9
17	17	16
140	140	13
124	125	9
127	127	19
8	8	20
106	108	7
105	105	3
118	119	2
4	5	2
129	129	20
78	79	9
72	73	5
123	124	3
109	109	12
76	76	13
24	24	9
131	131	14
106	106	6
99	130	5
112	113	8
37	37	13
83	85	2
127	128	4
112	112	7
117	118	5
91	94	1
118	118	11
128	128	31
12	15	1
113	113	18
97	116	2
135	135	19
83	83	8
116	124	3
12	12	5
28	30	1
11	11	15
126	126	15
27	27	10
95	95	15
121	121	16
119	119	21
20	24	1
110	110	8
108	109	5
128	129	2
4	4	12
14	14	19
2	28	2
124	124	14
118	124	1
115	116	7
97	97	3
89	90	3
102	102	8
90	90	11
2	2	15
75	81	3
71	71	10
15	23	3
105	106	1
82	83	6
126	127	6
101	101	20
34	34	4
141	141	3
120	121	1
97	99	3
35	36	5
88	100	2
119	120	5
72	72	5
23	24	14
98	98	11
19	19	6
36	36	13
33	33	16
91	91	14
92	92	8
85	85	3
110	131	4
102	120	1
130	130	23
134	134	14
103	103	9
93	93	10
25	128	4
26	26	4
14	22	2
79	80	1
116	119	2
111	111	10
25	26	4
87	87	11
87	120	3
13	13	4
88	88	13
38	38	12
89	89	12
27	31	9
133	133	10
116	116	9
95	96	3
80	80	14
73	73	7
93	94	7
23	23	10
15	15	6
88	89	1
87	100	2
125	125	16
30	31	5
77	77	16
32	32	6
90	93	5
7	34	7
18	18	14
84	120	2
136	136	15
74	74	8
32	33	2
2	26	2
75	75	11
20	20	14
78	78	8
86	87	1
130	131	4
125	126	12
7	7	1
92	93	8
30	30	7
120	120	10
117	117	15
138	139	1
104	105	5
99	108	5
37	38	2
6	33	4
103	104	7
1	31	3
29	32	3
78	118	5
5	5	12
79	98	3
16	18	1
16	31	2
138	138	7
28	31	2
26	27	5
109	110	1
27	30	4
114	114	8
117	128	1
28	29	4
96	117	2
25	25	3
132	132	15
29	29	9
20	21	7
30	32	6
111	117	5
24	30	1
10	10	8
22	32	2
96	96	14
76	77	5
107	107	2
81	81	7
134	135	11
88	90	1
136	137	2
128	130	2
72	85	5
107	108	3
6	6	10
28	28	7
11	12	5
102	124	4
119	122	2
76	79	2
123	123	18
100	101	6
10	11	5
83	106	1
14	71	1
88	96	3
9	9	10
139	140	4
121	122	11
99	99	3
87	112	1
119	124	1
14	25	2
77	78	6
115	115	4
20	30	1
71	74	1
84	85	6
86	86	9
6	36	3
104	104	4
9	15	1
21	22	3
81	82	3
112	118	2
8	23	1
82	82	4
3	5	1
18	19	3
98	133	3
74	125	1
66	72	4
15	26	6
23	38	3
112	120	3
131	132	2
0	5	2
29	31	2
119	125	2
6	8	3
79	79	5
9	34	4
83	84	2
73	107	2
16	17	4
0	34	2
0	26	2
120	122	1
129	140	3
3	3	10
1	2	3
21	21	10
95	117	1
10	12	3
94	94	6
74	117	1
108	108	5
104	107	1
114	121	5
99	101	2
15	16	6
118	120	1
13	72	1
100	100	3
111	112	4
17	20	2
2	7	1
123	125	2
100	126	4
137	138	2
128	139	1
10	20	1
8	9	3
71	79	3
72	82	2
97	103	2
72	120	1
86	101	1
96	97	3
120	123	3
79	81	5
72	93	5
72	118	1
94	126	5
115	124	1
93	97	1
13	14	1
13	19	2
75	76	4
13	71	1
121	130	1
80	85	2
27	32	1
110	127	1
109	111	2
113	121	1
92	94	4
93	101	1
97	98	1
87	101	1
94	95	2
102	103	2
74	75	1
78	122	4
67	74	1
6	31	3
114	120	1
107	113	1
115	125	1
73	82	2
117	125	1
5	6	2
105	122	2
106	109	1
3	4	1
97	129	1
94	98	2
82	85	2
19	21	1
121	123	2
92	124	1
133	140	1
13	15	1
83	122	2
10	16	1
13	17	2
90	95	1
6	25	2
81	93	1
17	21	2
9	23	3
22	24	1
93	118	2
116	123	1
86	93	1
88	93	3
120	141	1
80	100	2
76	81	1
77	82	1
0	2	1
110	111	1
93	103	2
34	35	7
116	117	3
114	126	1
71	96	1
32	36	1
86	92	1
9	69	1
101	102	3
17	18	3
129	130	1
89	96	1
104	108	1
31	32	2
24	31	1
29	30	2
31	31	3
116	125	1
2	6	3
91	114	1
3	8	1
0	27	3
15	21	2
7	25	2
21	23	1
127	132	2
31	135	1
82	84	3
99	100	1
125	129	1
0	24	1
1	32	1
9	32	1
94	101	2
1	7	1
33	34	1
94	102	1
4	77	1
79	121	1
24	26	1
22	22	1
4	7	1
95	129	2
2	3	1
78	81	1
