0	1	1
71	73	1
124	126	2
74	75	6
10	10	4
81	111	2
112	112	18
84	84	6
104	114	4
104	104	9
2	2	16
101	101	6
12	12	8
27	27	3
30	30	10
127	133	1
98	98	4
44	44	9
73	73	12
46	46	1
84	85	7
70	70	15
33	52	1
70	74	4
103	105	2
90	90	7
5	5	5
99	99	11
61	61	8
43	43	6
25	25	15
104	105	3
33	33	8
115	115	7
76	79	1
117	118	3
109	110	3
46	106	1
122	123	1
127	130	3
120	120	15
77	77	6
1	2	3
59	59	3
12	34	2
103	103	11
94	94	9
38	38	5
69	69	9
80	97	1
95	95	5
131	131	2
82	106	5
110	115	1
114	114	5
95	108	3
72	73	6
55	56	3
80	80	15
78	79	1
7	10	1
126	126	6
43	50	2
133	133	6
64	64	9
60	60	5
35	35	4
79	79	14
75	93	1
79	80	4
100	133	4
78	93	2
20	20	5
121	121	16
68	68	3
106	106	4
126	127	7
45	49	3
83	87	4
24	24	7
110	111	4
113	114	2
120	123	1
11	12	1
102	102	5
132	132	2
89	90	9
128	129	2
128	128	3
125	132	1
52	54	1
19	19	3
57	58	2
14	23	3
62	62	3
72	72	3
65	65	13
30	31	2
85	121	2
22	22	4
67	67	8
113	113	4
7	12	1
105	105	6
82	83	1
75	75	4
23	23	8
52	52	1
55	58	2
115	116	3
50	51	3
97	97	6
90	121	2
55	57	3
31	90	1
70	71	2
35	76	1
107	107	5
33	43	3
134	134	6
11	13	2
125	125	7
3	4	1
44	45	5
79	101	1
77	130	1
85	85	5
1	1	4
127	128	2
52	56	1
75	89	2
64	92	1
76	76	9
34	57	3
13	13	2
16	17	2
36	36	2
110	110	3
29	29	7
44	48	2
106	108	2
126	133	3
90	91	2
131	132	2
86	87	5
91	130	6
73	74	1
59	61	2
108	108	7
91	91	10
93	94	1
71	71	8
117	117	2
78	130	5
84	87	4
43	46	2
124	124	2
123	123	1
11	27	2
56	58	2
22	23	1
96	120	3
100	125	1
100	101	3
50	50	6
122	122	7
69	79	2
31	31	4
88	88	2
116	116	2
60	61	2
69	70	3
74	74	10
77	96	1
81	88	2
53	53	4
9	10	1
13	22	3
50	53	2
78	80	2
69	71	1
111	115	1
45	45	4
55	55	2
8	8	1
107	109	2
113	115	1
36	87	2
9	9	1
92	93	2
75	76	3
71	72	3
89	89	2
111	113	1
81	83	1
77	97	1
49	49	3
3	3	2
127	127	1
86	115	1
7	8	1
63	63	5
59	60	1
120	134	1
14	14	3
62	64	2
119	119	2
122	124	4
133	134	1
86	86	1
96	97	1
26	34	1
55	64	3
78	78	2
37	38	3
83	83	3
7	7	7
108	111	1
112	113	3
11	11	2
97	98	1
28	29	1
11	17	1
43	45	1
60	66	1
91	92	4
58	58	2
118	118	3
4	4	1
17	17	1
11	16	1
28	28	2
88	115	1
54	57	3
1	24	2
49	57	1
109	111	1
105	108	1
2	12	1
99	101	2
48	48	2
80	99	2
43	44	1
18	18	1
68	69	1
6	10	1
80	121	1
20	24	3
7	52	1
85	95	2
132	133	1
32	34	2
96	116	1
7	11	2
15	15	1
108	113	1
5	76	1
83	84	1
108	112	1
124	132	1
123	124	1
118	119	1
80	100	1
87	92	1
11	52	1
100	111	1
3	35	1
88	90	1
62	88	2
94	97	1
53	54	1
44	55	1
66	67	1
4	5	1
48	65	1
129	129	3
52	53	2
95	97	2
34	35	1
25	27	1
54	54	1
97	121	1
100	124	2
91	96	1
85	118	1
71	98	1
130	131	1
109	109	1
81	84	1
48	51	1
77	122	1
55	59	1
100	122	1
97	119	1
70	99	1
62	63	1
32	33	1
37	37	1
93	93	2
65	69	1
3	5	1
54	55	1
