112	112	13
97	99	4
108	108	18
31	56	2
109	110	17
60	60	25
23	23	17
114	115	3
86	86	18
20	20	9
39	39	11
61	61	13
75	75	33
20	106	3
105	109	2
113	113	21
76	77	5
26	26	11
36	36	10
73	74	5
70	73	6
72	72	11
51	51	9
65	66	5
79	107	1
95	105	2
55	57	5
79	79	14
58	58	12
69	69	26
91	91	10
99	99	18
104	104	24
52	99	1
40	40	2
106	109	7
40	42	3
78	79	8
62	75	5
103	103	18
114	114	9
33	33	17
68	68	9
19	20	3
81	81	10
22	23	6
62	92	3
65	73	5
37	37	12
47	47	13
98	109	2
81	82	6
72	75	1
92	92	9
66	66	17
30	30	16
100	100	18
40	111	1
97	97	17
105	107	14
84	84	13
82	82	12
83	111	3
101	101	9
92	93	9
80	94	3
88	88	8
90	90	14
48	49	12
73	73	9
19	84	4
87	89	8
57	58	2
102	102	20
52	53	1
43	43	8
89	91	4
85	85	13
32	32	11
86	89	5
93	93	12
76	76	21
111	111	24
88	91	2
69	109	6
107	108	10
41	42	15
71	71	8
105	108	4
73	96	6
95	103	1
34	34	6
24	25	1
47	50	1
25	25	5
98	99	9
67	68	4
58	59	8
70	70	21
95	95	20
73	100	5
100	101	6
96	96	20
83	83	24
38	43	2
30	97	1
37	41	5
105	106	8
111	112	9
81	107	2
49	49	8
107	107	13
80	80	7
94	94	20
108	109	10
45	47	4
84	85	8
38	38	14
62	62	15
99	103	3
55	55	6
31	32	6
31	95	4
74	75	12
21	25	3
63	63	12
70	72	1
34	35	12
60	89	1
83	84	6
53	57	2
91	94	9
85	86	2
85	110	2
78	78	14
57	57	8
23	112	3
62	64	4
74	74	14
90	91	4
78	82	5
58	70	2
64	64	13
78	103	3
28	28	13
22	22	12
51	52	2
76	78	3
42	48	3
81	86	4
70	71	8
52	52	2
54	54	16
88	90	2
59	95	3
87	97	1
47	48	4
27	27	18
26	42	4
106	106	14
96	97	6
86	87	3
56	60	4
29	30	4
44	46	6
94	95	10
50	50	11
29	29	11
57	59	4
87	87	11
20	86	1
88	89	9
65	65	11
68	69	4
37	43	2
103	104	3
67	92	9
35	35	3
94	106	8
82	91	3
109	109	12
98	98	13
31	31	14
28	29	5
49	67	3
65	68	2
78	104	1
30	31	8
104	108	3
80	102	2
67	91	1
102	103	4
56	56	6
19	19	6
57	67	2
67	67	24
96	98	7
97	98	4
39	41	8
77	79	3
77	78	4
82	83	5
93	95	4
85	91	4
33	34	4
61	68	5
38	41	4
87	88	2
38	39	3
107	111	5
45	46	3
64	65	5
46	47	2
59	60	4
109	111	4
56	84	2
104	107	2
25	26	7
110	110	19
93	105	5
64	68	3
81	83	4
91	99	3
105	105	9
46	46	4
71	95	1
27	47	2
78	81	2
56	57	5
82	104	5
103	105	3
62	63	5
89	89	14
48	48	7
100	108	3
32	55	2
55	58	2
84	88	1
39	40	13
36	41	1
79	81	3
24	24	8
38	85	4
59	59	8
50	51	3
61	62	4
42	42	16
60	70	1
33	35	1
88	97	3
93	97	1
63	68	1
91	100	5
84	103	1
77	77	12
63	64	5
68	110	2
36	37	4
93	102	1
56	59	3
41	43	3
37	42	1
36	84	2
66	79	3
58	61	1
83	86	3
53	53	1
112	113	2
42	47	2
56	70	2
60	65	6
21	21	9
94	108	4
45	45	5
81	110	1
80	81	4
71	75	2
92	94	6
38	86	1
44	45	5
36	38	6
104	105	2
71	73	2
103	106	5
43	44	2
63	93	3
59	64	2
25	43	1
37	39	3
67	111	2
88	111	5
39	112	1
40	41	3
27	84	3
25	48	1
86	91	2
95	98	1
83	85	3
99	100	2
82	84	2
83	91	2
44	44	2
62	74	1
26	28	1
31	96	1
64	69	3
65	67	4
92	96	3
89	90	3
26	41	1
68	109	2
55	59	1
67	88	1
66	69	1
68	75	1
23	24	4
60	61	2
85	109	3
22	25	1
98	104	3
57	82	2
56	82	1
77	106	1
30	99	2
82	111	1
42	79	1
80	109	1
54	55	3
69	71	1
95	96	2
92	95	1
90	95	1
21	84	1
76	106	2
75	76	1
35	36	3
62	65	3
68	87	1
22	84	1
73	97	3
21	23	1
84	86	2
21	24	2
87	107	1
39	83	3
78	92	1
62	67	1
110	111	1
65	108	2
32	33	1
55	56	2
25	84	1
82	103	1
58	63	1
41	41	1
84	96	1
78	101	1
28	103	1
101	110	1
57	60	1
104	106	1
63	91	2
73	79	2
46	99	2
93	94	1
53	84	1
97	103	1
62	93	2
90	111	2
61	63	1
69	108	1
73	99	1
87	90	1
66	68	1
78	94	1
43	48	1
74	76	1
101	108	1
83	109	1
101	102	1
67	70	1
60	62	1
79	96	1
25	28	1
