18	19	2
53	53	2
51	51	3
102	110	2
141	142	4
13	15	5
66	68	2
74	74	7
115	115	5
44	44	2
97	97	4
39	64	1
40	40	5
36	45	1
101	102	1
23	26	4
110	111	2
124	124	5
48	51	1
70	70	2
54	54	2
9	9	4
29	29	10
15	15	2
10	11	2
62	98	4
97	99	1
41	51	2
93	136	1
152	153	2
105	105	2
106	106	4
120	122	2
117	117	7
5	5	1
66	75	2
21	47	1
46	46	5
19	20	1
23	23	3
36	36	6
82	83	3
3	32	2
75	86	2
35	35	2
133	133	3
33	37	7
93	95	2
79	79	3
146	146	1
18	18	5
100	111	1
7	55	7
153	153	1
93	93	6
34	36	3
128	129	5
63	63	2
32	64	1
118	118	1
94	94	3
113	136	2
8	8	1
22	27	4
31	31	1
71	71	5
123	123	5
8	12	3
28	28	8
25	26	2
73	73	3
67	67	1
65	66	2
152	152	1
77	79	2
86	86	3
119	119	1
93	99	2
8	9	3
11	21	2
22	22	3
37	38	1
137	137	1
117	147	1
76	76	6
64	93	1
109	117	1
48	48	5
77	77	5
33	33	1
90	90	4
81	81	2
77	84	3
127	128	1
104	104	1
66	73	7
31	48	3
27	66	4
121	121	2
119	133	1
150	150	1
55	55	2
41	42	2
147	148	3
11	11	3
8	18	2
14	15	2
36	37	1
127	127	4
145	145	3
27	28	1
120	120	3
51	74	3
96	137	2
98	98	3
24	39	3
149	149	1
40	49	2
26	79	1
39	39	5
139	149	1
26	77	3
23	24	1
107	107	2
129	131	1
71	100	1
25	25	2
27	27	1
123	124	1
38	48	1
146	151	2
101	101	1
57	123	1
44	45	1
79	93	2
65	74	2
129	129	1
115	146	3
75	77	4
119	121	1
6	6	1
65	65	2
7	7	1
20	20	2
113	113	2
62	62	2
41	41	1
132	138	1
67	96	1
104	112	1
128	139	1
70	142	1
85	85	5
135	135	3
134	135	1
123	125	1
153	154	1
63	81	1
12	13	1
106	107	2
97	113	1
30	30	1
106	114	1
50	50	1
80	80	1
13	13	2
82	82	2
31	33	1
70	71	1
78	78	1
22	29	1
94	114	1
18	20	1
111	112	1
12	34	1
30	74	1
42	43	1
110	110	1
57	57	1
33	34	1
65	68	1
132	133	1
35	36	1
115	116	1
120	121	1
27	29	1
149	150	1
