163	165	1
4	4	19
8	8	11
18	118	6
55	115	1
98	99	6
107	107	9
24	24	10
39	121	2
140	141	2
114	115	5
153	153	7
110	110	8
152	152	8
108	108	8
148	168	2
40	40	11
70	70	10
113	113	7
53	53	14
5	5	11
6	8	2
5	52	1
6	6	11
130	130	14
43	43	19
5	24	5
145	146	4
166	166	10
57	62	3
104	112	2
92	92	4
38	39	4
85	85	10
168	168	6
5	23	2
36	36	9
39	44	3
62	62	10
133	133	7
65	66	3
37	38	2
22	39	2
34	34	8
146	146	5
107	108	5
159	159	8
23	39	3
44	46	2
91	137	1
139	139	9
48	48	6
129	129	2
69	69	8
116	116	8
98	98	13
3	3	10
67	69	3
37	111	3
11	11	8
112	112	5
2	3	9
6	53	1
141	141	11
81	81	6
1	1	15
13	13	13
138	138	12
160	160	12
24	25	5
163	164	6
72	72	6
26	27	4
23	23	13
8	9	2
69	135	1
150	150	5
120	121	6
135	135	11
121	121	9
74	75	1
101	101	11
73	73	11
18	18	15
104	105	5
123	132	3
117	118	6
134	134	6
17	17	14
163	163	6
8	25	2
2	2	7
16	16	6
28	28	3
25	26	2
102	102	7
169	169	3
33	34	3
65	67	1
50	50	8
144	144	13
86	86	8
158	158	10
27	41	1
110	111	5
100	100	2
45	46	4
51	51	4
22	23	13
133	136	3
26	26	15
11	12	8
90	90	4
101	125	2
125	125	5
100	101	2
6	49	3
39	40	12
22	22	16
144	145	8
58	58	3
14	15	11
167	167	3
10	10	5
113	114	3
87	99	1
46	46	8
64	64	6
115	115	6
53	108	3
27	27	6
45	45	17
148	148	3
77	78	2
125	154	2
51	72	2
104	104	1
82	82	5
53	68	2
27	28	5
9	9	8
42	42	17
48	49	3
45	56	2
83	84	3
17	20	3
39	39	10
13	17	3
33	33	8
124	131	1
162	163	3
80	80	5
145	145	12
125	126	5
103	103	9
143	143	6
77	77	5
37	37	11
137	137	9
56	56	7
97	97	4
78	79	11
83	83	5
36	47	6
16	40	3
73	74	3
55	55	10
20	20	9
108	113	1
14	14	12
49	145	2
49	49	3
119	119	4
79	79	11
106	107	2
21	23	3
93	93	3
127	150	7
140	140	12
92	94	2
147	149	7
75	75	6
41	41	13
11	13	3
129	151	4
108	132	4
151	151	10
120	120	4
117	156	7
7	7	7
57	58	3
164	164	5
151	152	4
41	51	1
127	127	7
21	22	2
47	47	2
92	93	7
4	5	3
94	94	4
4	13	4
50	113	2
54	54	9
0	1	6
109	109	5
47	48	1
130	131	1
7	23	1
67	67	2
38	56	2
162	162	3
97	113	1
87	88	2
115	154	3
36	37	1
1	2	3
88	88	2
105	158	1
87	87	1
95	96	4
134	152	4
142	142	2
155	155	6
94	95	3
15	16	3
35	36	6
157	158	5
52	52	1
131	131	3
114	114	3
40	41	2
64	65	5
57	57	1
50	114	2
76	76	7
22	40	2
14	16	4
10	11	4
26	50	3
38	38	5
157	157	4
7	10	1
41	43	1
142	144	2
51	69	2
128	128	2
104	106	1
122	134	4
17	53	3
0	0	7
111	111	8
43	72	2
26	51	4
126	127	3
23	24	3
108	109	3
105	105	2
44	44	7
12	12	5
79	86	2
17	52	4
132	147	2
25	52	3
14	26	4
22	24	2
106	165	2
5	6	4
120	148	1
79	83	2
40	45	2
41	72	3
103	113	1
156	156	2
43	44	1
89	90	2
170	170	1
18	19	1
112	113	3
42	43	1
126	126	11
132	132	3
117	157	1
18	57	1
95	95	2
16	17	1
15	15	8
19	19	2
159	160	1
28	43	2
97	98	2
105	110	2
142	143	4
106	106	4
68	69	2
91	92	2
141	142	3
118	118	2
136	136	3
134	135	4
157	159	1
155	156	4
19	58	5
45	139	1
103	123	4
6	10	1
150	151	2
112	116	2
35	35	2
18	20	1
115	117	1
72	73	1
66	67	1
70	72	7
11	43	1
50	51	4
154	161	1
62	63	2
12	13	3
105	116	2
81	82	1
93	97	2
108	160	1
96	96	4
149	149	2
122	147	2
135	137	1
69	70	3
91	94	1
158	159	1
126	151	1
111	115	1
136	144	1
78	89	1
124	154	1
20	56	1
169	170	2
14	51	3
71	71	3
6	7	3
2	76	1
124	124	5
132	170	1
0	109	2
47	144	1
43	50	1
99	100	1
84	84	2
168	169	1
161	161	4
135	136	1
128	133	1
78	78	2
38	65	1
102	103	1
63	69	2
69	124	1
21	21	5
26	117	1
76	88	1
21	54	2
103	105	2
70	71	1
49	51	3
155	157	3
86	87	1
122	136	2
13	15	1
44	45	1
6	48	1
17	23	4
146	149	1
165	165	3
151	166	1
40	62	1
90	91	1
154	154	2
97	99	1
128	129	4
117	117	1
161	163	1
152	153	1
69	108	1
40	73	1
18	54	1
4	17	3
39	69	2
5	7	1
161	165	2
45	47	1
38	41	2
86	91	1
79	85	1
65	170	1
22	65	1
25	25	2
66	69	1
19	63	3
134	155	1
27	51	1
122	137	1
12	15	1
138	140	1
63	64	1
45	55	1
39	118	1
147	147	1
82	93	1
123	123	1
64	108	1
