71	73	7
90	90	7
236	238	1
108	108	6
21	23	1
197	199	4
181	181	9
231	231	10
194	195	2
53	53	5
208	208	1
45	45	12
37	204	1
165	166	1
115	115	2
154	155	6
189	189	9
4	18	6
158	158	4
104	104	7
189	190	2
61	61	1
188	194	2
161	161	7
111	160	4
37	37	2
220	220	12
229	229	2
231	232	1
154	154	11
64	64	2
234	234	6
150	173	2
224	230	1
113	114	4
12	46	3
50	50	10
152	179	3
160	160	10
79	110	1
27	27	10
19	20	3
214	214	7
181	182	2
159	159	12
60	60	3
29	31	1
38	38	7
97	112	3
191	191	3
67	73	2
245	245	7
215	218	1
178	178	10
223	224	7
158	159	4
229	249	1
28	90	1
62	74	3
189	191	1
112	112	5
93	93	7
44	45	3
109	109	11
61	64	2
14	14	6
214	215	2
187	187	6
238	238	4
57	58	4
56	56	5
119	119	7
199	199	5
30	30	4
95	115	1
157	169	4
237	238	1
72	72	7
163	163	8
8	8	5
175	175	7
213	213	11
195	195	3
171	171	11
188	188	6
88	89	2
175	176	11
15	160	1
118	118	4
228	228	6
18	35	3
7	7	8
36	36	15
235	235	4
62	64	1
197	198	6
67	67	15
217	218	4
182	182	9
166	166	7
46	46	10
232	232	5
183	183	15
8	45	4
177	178	1
84	84	3
239	240	4
68	71	5
95	95	6
6	6	2
159	160	4
85	85	7
150	150	10
148	151	2
153	154	9
110	237	1
210	210	4
49	50	9
149	149	3
119	120	1
71	84	1
21	21	6
97	97	7
85	86	6
5	5	3
182	183	2
156	156	11
43	43	9
10	10	6
44	44	7
11	12	2
145	147	3
54	54	7
165	165	3
242	242	3
163	164	3
175	190	2
179	210	6
147	147	3
50	68	3
20	20	9
22	22	3
57	60	1
60	62	3
187	188	5
155	155	3
34	35	3
157	158	1
98	99	1
177	184	1
26	26	5
41	41	5
167	167	6
55	55	8
185	186	1
31	178	2
170	170	7
34	34	5
73	86	2
42	42	5
226	226	7
187	190	3
76	76	2
185	197	3
179	180	3
77	84	1
100	100	5
211	211	3
96	97	1
221	224	1
227	227	3
28	28	6
169	170	2
1	6	1
173	174	1
246	246	7
68	68	6
197	200	1
32	32	9
199	242	1
22	23	6
54	55	2
176	177	5
203	227	2
78	78	8
175	192	1
50	69	2
243	244	2
13	13	3
6	7	2
207	207	5
185	185	2
145	145	5
81	81	10
209	243	1
54	65	1
163	165	5
71	72	8
204	205	4
78	87	5
33	33	4
9	9	5
209	209	10
192	192	4
42	43	4
247	247	1
24	25	3
239	244	1
96	112	1
62	62	5
36	37	3
114	115	10
57	161	2
179	179	4
68	69	1
178	215	1
160	161	2
91	91	5
13	38	2
69	69	4
99	100	2
177	203	2
164	166	1
180	180	8
24	24	5
70	70	5
101	101	5
117	117	3
219	219	5
1	32	1
204	204	4
78	82	1
201	201	5
113	113	4
175	200	3
174	190	3
173	173	6
173	175	3
240	241	8
31	31	4
202	202	11
47	47	5
190	190	5
61	83	2
153	170	2
92	109	1
176	176	3
25	25	4
120	144	1
215	215	12
225	225	1
99	99	3
112	117	2
170	173	1
49	60	1
107	108	4
205	205	5
224	236	4
236	236	1
196	197	2
87	87	3
80	82	1
209	248	4
1	1	1
230	230	5
23	23	4
208	233	2
103	103	3
90	230	3
71	71	2
19	19	4
167	168	2
151	152	2
97	98	2
5	33	2
200	200	6
207	212	4
89	89	2
55	57	4
3	3	8
64	66	6
11	11	3
77	89	2
33	203	2
198	198	3
97	107	1
92	92	6
117	118	3
12	12	6
110	110	3
203	203	5
236	241	1
60	75	1
8	44	2
94	94	3
222	222	3
21	22	2
241	241	1
155	174	1
45	46	1
91	92	2
2	2	1
75	75	5
226	236	3
113	115	4
216	218	3
15	15	7
26	27	1
66	66	3
177	177	3
199	200	2
70	83	4
244	246	1
108	237	1
116	117	2
176	214	2
20	24	1
207	231	1
188	191	1
218	219	2
174	226	1
187	189	2
61	63	2
211	233	2
221	221	3
114	114	4
6	212	2
244	244	2
17	17	1
156	157	1
179	211	4
240	240	3
168	168	2
221	237	1
164	167	1
227	228	1
178	213	3
105	149	1
2	18	3
151	151	4
236	237	2
196	196	2
174	174	4
38	39	2
30	31	2
80	80	3
35	37	1
50	51	1
197	213	3
52	52	2
207	208	1
94	95	1
99	101	3
59	59	5
239	239	4
224	224	1
84	85	1
210	211	4
37	205	1
94	115	2
39	39	5
168	169	4
223	223	2
232	241	1
222	223	1
102	102	1
14	15	1
12	15	1
32	33	4
201	204	3
190	216	1
108	109	2
77	87	4
176	185	2
169	169	1
8	9	1
79	81	1
5	34	1
100	101	1
193	193	2
102	105	3
81	157	1
79	79	2
158	196	2
230	241	1
198	242	2
116	116	9
18	37	1
49	59	3
49	49	2
103	106	2
63	63	2
218	220	2
170	171	3
86	86	2
243	243	1
73	84	2
162	210	2
152	152	2
219	247	2
50	195	1
83	83	1
234	236	2
36	180	1
162	162	4
208	209	1
0	0	1
76	80	1
198	199	2
178	179	1
56	57	1
18	18	3
168	211	2
206	207	2
206	206	3
27	28	1
94	110	2
57	147	1
164	165	2
186	186	1
234	235	1
57	64	2
78	80	1
203	204	1
153	153	4
33	151	1
82	83	1
157	157	1
210	214	1
245	246	3
247	248	3
172	172	5
212	216	1
112	113	1
197	197	2
38	225	1
178	212	1
63	64	1
111	111	3
233	233	2
202	203	1
35	36	2
32	181	1
48	57	2
55	228	2
228	229	1
58	58	2
97	100	1
12	21	1
30	37	1
40	44	1
163	166	1
78	156	2
237	237	2
222	224	1
73	73	1
205	206	1
163	208	1
87	88	1
232	234	1
238	239	1
207	209	2
92	93	1
15	38	1
82	82	1
218	218	1
36	40	1
20	21	2
170	172	1
47	48	1
184	185	1
78	79	1
12	13	1
229	230	1
106	106	1
152	170	1
79	82	2
105	105	2
221	247	1
59	66	1
213	214	1
31	32	3
161	180	1
240	245	1
209	247	2
112	115	1
16	21	2
173	201	1
9	10	1
35	35	1
105	106	1
225	232	2
49	68	1
83	86	1
176	178	1
183	184	1
21	40	1
18	223	1
194	194	1
37	39	1
95	96	1
187	196	1
49	51	1
225	226	1
51	235	1
