72	72	3
61	61	15
7	7	3
103	103	9
122	122	14
50	50	16
77	77	12
3	3	5
98	98	5
82	83	7
44	45	5
52	53	7
82	82	6
114	133	2
9	10	4
65	65	14
88	92	3
119	119	7
27	27	6
33	33	8
80	80	10
101	101	13
87	87	23
45	45	2
131	131	1
116	131	2
96	97	6
102	102	14
113	130	2
64	64	13
10	42	1
53	60	2
84	84	13
121	122	2
102	104	2
93	93	3
107	107	12
6	12	1
106	112	2
29	33	4
126	128	5
73	73	6
127	128	7
133	133	10
1	4	2
120	121	6
114	114	8
114	126	4
104	104	19
127	127	14
94	102	2
70	71	8
95	95	9
97	97	16
63	99	8
43	43	6
114	115	6
59	59	13
17	17	4
110	110	3
71	72	5
95	96	8
119	126	2
83	83	3
17	24	2
69	69	14
92	92	14
85	94	3
84	92	5
120	120	8
29	29	5
135	135	2
54	54	10
85	95	2
79	79	6
100	101	1
116	117	4
73	127	4
24	25	4
43	53	2
32	32	2
49	49	7
97	98	6
70	70	2
62	62	10
66	67	3
55	56	3
95	98	4
63	63	7
74	74	17
94	94	9
112	115	4
75	76	3
100	100	10
85	87	1
31	31	2
94	95	1
53	53	8
73	74	4
96	96	4
97	131	1
47	77	1
105	105	3
91	92	8
112	112	4
86	99	2
132	132	8
11	36	4
121	121	4
77	79	3
123	123	8
92	94	4
45	46	3
128	129	2
124	124	7
89	89	5
24	24	2
43	45	4
35	35	11
109	109	1
102	103	1
13	14	2
66	66	6
93	101	1
92	93	3
89	91	1
25	25	6
99	99	6
75	78	3
8	11	4
86	87	4
78	78	5
14	14	7
133	135	3
95	97	1
27	31	2
86	86	4
118	118	6
14	100	3
15	58	1
8	8	6
50	88	1
92	95	2
64	95	2
123	124	3
80	104	3
96	121	1
60	66	3
2	3	3
115	115	6
126	127	5
108	109	4
71	71	7
28	28	7
60	63	1
28	30	3
9	68	1
88	89	1
60	60	9
62	66	2
68	87	2
87	88	4
9	9	4
113	114	3
78	100	1
12	12	3
118	119	2
125	125	2
129	129	13
60	61	3
125	126	3
52	54	7
5	5	6
13	13	8
124	125	9
67	67	4
128	128	4
112	113	3
74	75	2
79	81	2
81	82	3
64	99	3
56	56	5
86	96	1
7	35	1
65	68	2
68	68	9
119	120	1
85	85	7
26	27	1
79	80	6
54	55	2
73	77	1
59	68	2
53	54	2
116	116	10
70	88	1
125	133	5
48	48	2
69	93	1
105	134	1
110	111	4
61	62	7
6	63	1
76	96	1
6	18	2
31	32	2
111	111	5
14	64	4
18	18	3
106	107	3
57	58	1
117	117	6
43	58	3
121	123	1
90	90	4
58	58	3
69	95	1
113	113	7
15	15	9
103	128	1
59	60	2
44	65	2
88	88	5
49	50	5
2	2	6
16	16	3
63	64	5
125	130	3
11	15	3
108	108	8
96	112	2
82	96	1
85	122	2
96	99	2
26	28	1
82	86	2
14	15	2
66	68	1
86	91	1
25	26	3
36	42	1
46	49	1
62	63	2
48	64	2
74	90	1
6	33	1
4	5	1
82	87	1
1	1	3
53	59	1
0	1	1
103	104	2
23	23	2
34	35	3
44	44	4
53	55	3
29	30	2
91	108	1
64	65	4
76	120	2
2	4	3
91	111	1
4	4	4
114	121	2
91	91	4
56	57	1
15	16	1
55	55	5
122	123	4
20	21	1
119	125	4
96	100	1
118	123	2
116	132	4
12	14	2
109	110	1
21	21	1
127	129	1
134	134	3
96	122	1
93	104	2
48	62	3
123	128	3
94	124	2
79	124	2
75	75	2
90	91	1
97	118	1
85	93	5
111	117	2
69	70	1
84	94	1
102	112	1
32	34	1
30	30	2
83	86	1
73	80	3
106	106	3
81	96	2
130	132	1
50	52	2
50	67	2
6	7	1
110	120	4
88	98	1
14	62	1
91	106	3
44	54	1
107	108	1
0	0	2
129	130	1
46	46	2
105	106	1
87	92	2
52	52	4
133	134	1
64	100	1
13	15	1
49	87	2
45	47	3
26	26	2
114	116	2
37	37	2
34	34	1
117	118	1
47	48	2
10	11	5
11	11	1
1	2	2
107	109	4
94	104	1
121	124	1
38	45	1
111	125	1
110	121	1
58	60	1
20	20	2
81	95	1
107	124	2
47	47	2
119	122	1
120	122	1
116	118	2
77	100	1
80	81	1
76	76	1
132	134	1
16	36	1
63	65	1
56	60	1
32	33	1
15	24	1
115	116	1
