37	38	2
108	109	3
63	64	4
98	118	3
81	82	3
1	5	1
60	61	6
73	74	3
91	91	7
102	102	5
22	44	1
106	106	3
40	40	10
30	30	3
22	34	1
21	41	3
100	100	4
46	47	9
26	26	6
32	41	3
123	123	3
120	120	8
48	95	4
4	4	9
21	21	2
57	57	15
106	107	5
65	65	3
46	80	3
117	117	3
38	38	4
102	103	5
71	71	12
43	43	3
2	2	4
99	101	7
119	124	2
67	67	6
125	126	2
70	106	4
67	91	2
126	127	2
61	61	4
117	120	3
58	58	6
118	118	5
50	56	4
99	118	5
1	14	4
7	7	3
24	39	1
4	16	6
101	101	2
11	11	5
5	17	1
106	111	1
28	28	1
48	56	3
52	112	1
66	127	2
116	131	3
116	116	4
77	78	1
49	49	3
50	51	6
87	89	2
97	133	1
81	81	6
54	54	5
67	72	3
56	56	11
107	107	5
7	33	7
112	113	4
33	34	4
93	94	2
53	53	5
1	1	13
19	21	4
24	24	2
44	81	3
82	82	8
5	5	9
95	95	3
52	52	6
3	3	2
77	77	12
45	46	1
75	75	4
58	81	2
78	82	2
43	44	1
124	124	7
38	39	3
128	128	5
12	14	3
41	41	5
112	112	8
61	62	1
48	48	8
18	18	4
13	13	4
64	64	8
64	82	4
98	102	1
10	40	2
113	117	2
33	33	1
100	114	12
74	74	1
42	81	4
44	45	3
1	2	3
76	76	5
79	96	4
50	50	7
42	42	9
97	97	4
11	14	2
9	9	7
46	54	4
67	74	4
53	96	2
44	44	3
26	27	4
49	56	2
86	86	1
15	15	5
16	17	3
94	94	5
97	116	5
62	62	5
113	114	1
98	119	1
27	27	7
127	128	1
80	120	1
88	89	2
22	24	2
51	53	3
38	42	3
110	110	11
10	20	3
79	80	2
72	73	4
57	70	3
24	25	2
100	103	2
42	92	3
32	32	3
132	132	2
10	10	5
63	63	3
19	49	2
76	87	1
122	122	2
78	78	3
29	30	6
7	11	3
126	128	4
72	74	4
59	59	7
116	117	1
90	90	4
113	113	2
17	19	1
109	113	5
19	19	2
126	129	4
126	126	3
109	109	4
83	84	4
47	58	1
120	123	4
87	87	3
51	52	2
18	19	6
98	98	4
72	102	2
12	12	6
37	37	4
55	57	5
107	109	2
131	132	3
111	111	4
92	92	2
22	63	5
54	132	3
51	51	9
131	131	3
6	53	2
96	96	4
127	127	1
68	98	2
57	58	1
97	119	3
115	115	1
117	118	2
20	20	3
90	93	3
115	116	3
56	57	2
73	73	4
87	88	4
113	116	3
104	111	1
99	102	2
47	67	1
25	25	4
85	85	6
111	113	1
40	42	1
79	81	1
60	81	1
110	111	4
130	130	3
84	84	4
34	34	1
31	31	2
42	45	3
6	19	1
80	81	5
102	115	1
79	79	1
8	19	1
47	48	1
92	95	1
55	65	2
6	6	1
30	32	2
88	88	2
17	39	2
23	23	3
118	119	2
84	91	1
3	7	2
23	25	2
59	93	1
27	28	2
114	114	6
69	70	1
72	72	1
69	106	1
16	16	1
24	84	1
0	1	2
112	118	1
129	129	2
109	110	2
1	15	1
100	101	3
62	64	2
18	20	3
41	78	5
119	120	1
120	121	1
114	118	1
98	100	1
80	80	1
53	55	1
84	90	3
113	118	2
65	67	1
19	20	2
133	133	1
40	41	2
112	120	1
41	42	2
21	92	1
127	129	1
104	104	1
124	125	4
49	50	1
57	59	1
33	39	1
74	75	1
14	14	1
81	129	1
4	8	1
22	22	5
69	69	2
0	0	2
91	93	2
61	71	2
83	88	1
84	85	1
44	47	1
45	64	2
47	47	2
69	104	2
111	112	1
57	107	1
73	89	1
38	43	1
66	66	2
2	11	1
99	99	1
94	95	1
62	63	1
28	97	1
125	125	1
105	106	1
45	78	2
78	80	1
97	98	1
39	95	1
108	110	1
60	60	1
2	12	1
54	56	1
110	132	1
52	55	1
2	52	1
107	114	2
96	132	1
55	77	1
108	108	1
7	52	1
66	103	1
75	101	1
99	129	2
10	13	1
46	63	1
105	105	2
60	63	1
121	121	1
