23	23	11
110	111	5
87	87	3
66	66	5
62	62	4
126	127	9
26	57	8
107	107	9
130	130	5
57	57	3
30	31	2
111	112	3
102	102	15
33	33	6
26	34	1
61	61	2
41	43	1
25	34	4
20	20	5
55	55	4
11	12	4
8	9	2
73	76	3
7	7	3
63	75	1
88	98	2
72	72	2
43	43	6
53	53	9
4	5	2
19	19	9
42	44	4
11	22	1
7	8	9
80	80	4
35	79	1
104	114	2
149	151	1
63	76	4
112	112	10
33	34	5
95	96	6
98	102	5
138	138	17
42	42	11
153	153	5
49	50	4
103	104	6
77	79	1
51	52	3
63	79	2
129	140	3
10	11	3
69	69	12
121	121	6
68	68	8
101	102	1
11	11	8
113	114	1
11	14	3
55	56	2
86	86	3
22	22	5
67	77	3
105	105	9
119	119	17
136	136	3
93	94	5
76	76	15
103	110	3
122	122	5
132	132	6
54	54	9
40	40	4
108	110	2
63	67	4
95	106	3
115	115	6
150	150	5
74	74	4
12	12	2
36	57	4
103	103	4
78	79	2
85	87	4
37	37	6
145	145	4
99	99	2
44	45	4
73	75	5
118	118	9
12	13	4
78	78	10
34	34	4
50	62	3
127	127	5
18	18	12
139	140	9
92	105	1
139	139	3
64	65	4
92	94	3
82	82	8
5	5	8
19	30	3
44	44	15
140	145	1
3	56	2
46	46	5
131	131	3
144	144	6
6	6	8
103	113	4
133	133	4
14	30	2
152	153	1
38	46	4
50	50	10
104	112	1
145	146	1
38	51	3
64	87	2
16	27	4
32	32	7
68	81	1
75	75	7
67	67	22
21	21	5
149	149	3
67	72	3
30	63	3
65	65	1
37	78	2
106	107	8
22	24	1
17	37	5
38	38	6
15	16	1
95	95	7
140	140	6
132	139	4
26	26	2
10	10	7
4	6	3
16	16	4
68	72	2
108	119	1
51	73	2
85	86	6
150	151	3
3	5	1
114	114	4
82	99	2
38	54	4
84	84	6
16	17	7
87	94	1
142	143	2
65	76	1
73	86	1
54	57	1
128	135	1
46	47	2
71	71	3
120	120	6
48	49	3
104	125	3
141	141	3
29	30	3
51	68	3
25	27	2
50	55	3
31	64	2
16	19	1
113	113	4
90	90	6
106	106	7
69	70	1
4	7	5
17	18	10
120	121	4
134	136	6
21	23	2
96	96	2
107	114	3
73	85	1
136	144	1
80	83	1
74	82	5
86	87	2
5	31	1
95	97	2
51	63	1
143	144	1
39	39	4
47	48	2
65	86	2
103	105	1
41	41	3
116	118	2
84	86	4
69	100	2
120	123	6
110	112	9
146	149	3
25	25	6
48	56	1
74	77	2
65	79	3
25	29	3
34	35	5
97	97	7
56	56	3
104	104	3
84	85	2
91	92	1
129	139	2
109	109	3
73	73	3
102	103	2
36	36	4
29	75	2
133	134	2
8	8	3
135	137	2
94	95	4
116	116	7
17	34	3
144	146	4
70	70	7
29	29	4
50	54	2
80	81	2
123	124	1
107	115	1
154	154	1
44	74	3
61	64	1
64	64	7
85	85	3
81	82	4
77	77	4
95	122	1
36	58	4
88	93	2
12	16	1
146	147	1
51	51	5
126	126	2
110	110	1
137	138	7
30	30	3
42	43	1
76	77	2
14	25	3
69	82	4
126	128	2
32	33	2
124	124	4
28	34	1
133	139	1
128	144	1
75	76	1
33	87	2
10	12	2
56	57	2
50	73	3
103	111	3
151	151	4
18	23	3
146	150	1
116	117	1
117	117	2
115	116	1
4	4	2
78	83	4
93	95	7
138	139	3
15	15	2
142	142	6
38	55	2
135	135	2
63	63	2
51	54	3
71	73	2
73	74	2
93	93	1
9	9	5
98	98	2
127	128	3
5	6	1
47	47	3
106	111	1
107	109	1
111	111	8
90	91	1
101	101	4
128	142	1
40	46	2
136	137	3
128	140	3
17	17	6
47	77	1
38	40	1
18	19	5
83	83	6
45	76	3
104	113	2
91	93	1
49	49	3
75	78	2
137	137	1
81	81	1
97	98	1
27	28	2
70	100	2
52	67	2
40	45	3
79	79	1
31	31	3
95	136	1
147	147	2
28	28	9
35	35	2
65	75	3
109	110	1
48	62	1
41	42	1
112	114	1
83	84	2
132	133	2
20	21	1
125	125	2
37	38	1
124	125	1
141	143	1
123	125	2
48	48	1
21	32	2
117	128	1
112	115	1
28	29	1
21	24	1
95	108	1
19	20	2
34	58	1
108	108	2
94	96	2
35	36	4
62	63	5
114	119	2
34	75	1
20	36	1
94	94	1
39	54	1
134	135	2
137	139	2
94	97	2
28	73	1
82	98	1
6	22	1
31	32	1
76	85	1
80	82	1
65	66	1
76	84	3
24	24	1
83	99	1
95	98	1
36	68	1
71	100	1
102	119	1
39	43	1
133	135	2
3	4	1
75	80	1
123	123	2
100	100	2
54	55	2
66	67	2
26	29	1
45	53	2
27	27	3
20	23	1
135	140	1
147	148	1
131	132	1
8	11	1
78	84	1
104	105	1
25	28	1
69	73	1
123	130	1
39	40	2
14	14	1
3	3	1
113	149	1
87	98	1
13	30	1
96	99	1
52	55	1
69	71	1
65	77	1
34	87	1
141	142	1
63	86	1
135	144	1
21	22	1
27	30	1
150	152	1
65	74	1
16	21	1
74	80	2
