48	48	12
68	68	13
11	11	16
65	65	11
4	5	7
67	89	2
30	31	4
81	81	12
77	77	8
52	53	2
3	3	23
76	77	9
89	89	8
87	87	11
80	81	11
13	13	16
17	17	3
10	10	28
14	14	8
73	73	12
47	48	7
64	65	8
24	24	15
65	81	5
6	25	3
84	86	5
47	47	20
75	75	10
53	53	7
63	79	3
9	9	16
79	79	14
67	67	11
13	14	2
26	26	7
5	9	1
24	81	6
88	88	5
85	85	11
53	61	2
56	56	13
5	23	3
3	11	1
70	70	4
63	63	5
31	31	4
72	85	1
84	87	1
9	10	3
86	87	8
29	30	5
57	66	5
57	57	27
30	30	10
66	66	8
60	60	8
49	49	6
25	25	8
47	52	5
62	64	2
2	3	3
84	85	8
55	56	4
22	22	6
50	65	2
68	69	4
58	58	7
50	50	10
6	6	4
21	21	2
66	82	5
2	2	7
4	4	14
72	72	3
69	69	14
59	60	4
75	77	1
76	76	3
7	7	2
74	74	10
55	82	4
54	54	5
59	59	8
5	32	1
12	12	9
72	73	20
0	0	6
85	86	5
12	16	5
51	51	3
3	4	10
53	54	2
74	75	2
23	23	5
62	80	1
62	69	2
61	61	2
72	75	3
80	80	9
86	86	3
64	80	3
78	78	6
22	23	5
19	19	15
58	83	1
20	27	1
78	79	11
71	71	18
26	27	3
63	64	1
60	68	2
84	84	8
50	52	5
52	52	5
27	27	5
60	61	7
6	7	2
24	25	6
82	83	1
54	55	2
34	35	1
25	27	4
20	20	1
82	82	2
15	16	2
75	76	1
5	8	2
66	68	2
61	62	3
28	28	4
12	17	2
21	27	1
13	15	3
71	80	2
76	83	1
14	15	1
15	18	1
66	80	1
81	82	1
62	62	2
8	8	9
46	48	2
55	55	3
83	83	3
79	81	6
46	81	1
29	29	1
12	13	1
21	22	2
66	67	1
60	63	5
64	64	4
5	5	7
9	13	3
25	26	1
56	73	2
54	59	1
16	16	2
73	74	3
19	21	1
7	8	1
55	61	2
58	67	2
4	61	1
6	8	2
53	81	1
52	62	1
5	25	1
23	25	3
49	63	1
15	15	1
88	89	2
56	57	2
20	21	2
5	6	4
60	66	1
0	1	1
11	12	1
1	1	3
67	68	1
28	31	2
53	55	2
47	81	2
59	63	1
34	34	1
1	2	1
71	73	1
34	46	2
54	66	2
66	81	1
51	52	1
54	56	1
90	90	1
17	18	1
