54	94	2
19	19	14
29	29	10
20	21	21
92	100	3
15	87	2
129	129	5
99	99	2
39	39	7
24	26	1
118	119	11
91	92	2
37	37	7
136	136	10
65	130	1
14	14	7
82	82	11
62	62	8
112	114	2
93	93	12
69	69	16
34	35	9
73	78	3
140	140	18
107	107	12
54	55	4
99	100	8
125	125	17
69	110	5
108	113	3
117	117	15
65	66	3
110	110	12
80	128	2
70	70	2
33	33	15
54	72	1
94	94	14
141	141	30
111	111	13
42	42	3
96	98	4
14	38	1
33	71	2
43	75	1
89	90	5
9	42	2
1	13	2
88	89	6
47	47	20
108	108	13
138	138	6
55	78	5
130	130	19
55	58	2
67	68	3
57	58	6
25	25	5
49	87	2
9	110	3
33	42	1
38	41	2
93	94	7
134	134	8
54	131	4
81	101	1
133	139	4
59	145	1
73	73	7
74	75	3
141	143	3
5	13	6
36	83	3
51	52	4
3	110	2
55	56	4
64	74	2
25	75	6
121	121	11
136	140	2
27	27	5
3	13	2
57	57	5
17	30	1
70	75	3
128	129	7
114	114	7
94	118	3
121	130	5
11	11	10
19	32	2
0	0	4
20	20	15
60	61	4
69	83	3
98	111	4
24	122	2
54	74	4
143	143	5
65	80	3
143	144	2
66	66	21
54	54	23
81	81	9
93	95	2
69	76	2
123	123	6
136	137	7
6	14	3
11	27	4
36	36	6
28	99	4
124	128	3
55	57	2
135	136	11
104	105	5
87	139	3
98	146	1
118	118	14
135	135	14
32	32	13
97	97	6
94	98	7
8	13	1
85	94	4
52	61	3
76	105	7
98	104	4
56	59	2
10	10	6
71	71	3
18	18	12
22	22	10
83	109	1
69	70	7
85	85	11
139	139	19
41	41	7
105	105	18
63	94	3
122	123	7
36	37	7
127	127	6
13	35	3
122	124	11
79	80	3
13	19	3
19	28	3
116	136	2
20	47	3
122	126	3
32	33	2
75	90	1
41	75	2
115	116	2
53	93	3
2	2	3
74	74	8
127	128	8
131	131	24
75	75	7
120	134	4
97	98	9
109	109	7
98	144	4
121	131	2
98	98	7
60	84	5
90	90	9
56	76	3
99	117	1
121	123	1
91	116	2
2	5	3
84	85	2
39	51	3
1	34	3
87	87	6
19	21	1
6	30	1
56	56	4
17	17	12
137	137	6
80	80	10
128	144	4
23	23	10
76	77	4
2	131	3
102	104	2
95	95	11
99	134	4
95	144	3
72	72	9
133	134	7
144	144	6
3	3	7
126	126	20
112	112	11
43	92	1
64	82	3
145	145	4
21	122	5
21	21	9
64	64	8
135	137	7
66	85	1
73	83	2
4	86	5
133	133	9
72	74	3
35	35	7
1	1	6
116	144	1
110	111	4
20	86	6
48	56	2
36	143	4
132	132	4
53	75	1
31	35	3
98	107	1
65	88	2
107	108	5
50	51	1
53	70	6
121	134	1
101	101	6
0	35	1
98	114	2
114	135	1
72	73	5
60	74	4
120	120	7
77	77	8
103	103	7
38	39	1
113	135	3
137	138	4
62	63	3
2	25	1
61	61	6
16	16	14
49	102	3
49	49	5
94	140	4
119	134	2
17	28	5
108	109	2
113	114	1
53	64	2
76	76	5
59	80	4
62	71	1
133	138	2
5	6	5
30	42	1
1	2	6
128	128	11
98	113	2
142	143	2
91	91	7
24	71	1
43	43	6
119	119	7
15	16	5
54	87	3
61	67	3
130	133	3
126	141	3
100	100	3
8	16	1
67	67	2
76	123	3
125	134	3
65	65	12
28	28	7
55	55	8
81	82	2
103	104	5
15	15	9
59	59	9
1	11	1
5	5	16
83	83	4
63	63	6
105	134	2
119	123	5
88	88	3
51	140	2
88	91	3
0	7	2
50	50	5
49	50	4
90	91	4
72	85	3
141	144	2
38	38	11
64	72	1
98	99	3
124	124	14
96	96	6
103	144	1
8	107	5
8	8	8
48	61	1
89	92	3
86	87	2
119	120	3
61	131	4
129	130	7
54	110	5
51	51	7
24	118	1
77	137	3
92	92	5
0	4	1
76	113	2
58	141	2
109	126	2
78	78	8
1	36	4
90	95	5
58	60	6
17	18	5
93	107	4
102	103	2
70	90	4
115	115	4
68	132	3
97	104	3
142	142	2
95	111	2
3	106	3
125	126	4
37	39	1
104	104	4
58	58	3
30	30	4
27	91	2
9	9	3
49	141	2
23	31	3
56	62	2
63	72	3
111	112	8
114	115	2
39	40	4
31	137	1
63	65	3
122	122	11
13	15	1
106	106	6
112	118	2
53	69	4
36	92	1
52	143	1
102	111	2
101	105	5
77	142	2
48	48	6
78	79	3
97	102	2
60	60	13
8	9	6
13	13	4
68	79	1
40	41	5
146	146	2
77	78	5
86	86	2
37	38	5
76	81	1
52	52	4
89	89	4
84	84	7
58	59	2
64	89	2
117	126	1
70	76	2
66	84	4
47	73	3
39	50	1
128	130	2
130	141	3
40	40	4
102	102	3
53	110	1
135	143	2
31	31	4
84	135	1
42	43	1
105	106	2
97	111	1
102	144	2
87	94	1
62	99	1
104	107	5
23	121	1
71	72	3
140	142	3
14	15	1
134	136	9
64	88	4
30	126	3
19	144	1
4	109	2
52	56	1
20	32	2
111	128	4
32	90	3
76	109	4
24	112	1
71	84	2
108	126	1
87	137	1
4	4	2
52	58	2
9	10	3
83	85	2
26	26	4
65	84	1
26	31	3
134	135	5
118	134	1
68	85	2
49	52	1
25	101	2
118	120	1
59	60	6
53	53	7
33	36	1
37	40	1
40	70	7
9	11	3
116	116	7
76	89	1
56	125	1
79	79	4
19	24	3
80	89	1
127	133	3
32	99	1
108	112	2
55	128	1
55	74	1
140	143	2
94	95	4
25	26	1
2	4	2
59	66	1
14	139	2
76	92	1
114	127	1
29	85	3
43	91	1
96	140	4
93	135	2
102	126	1
1	10	2
15	37	3
131	139	1
34	47	2
12	13	2
132	140	1
10	11	3
53	82	3
113	130	1
126	127	7
71	121	3
51	125	1
20	136	1
59	140	2
52	83	1
121	139	1
6	8	1
117	144	1
59	143	2
99	139	1
0	10	1
85	127	1
140	141	1
27	134	1
5	11	4
133	146	1
113	113	4
138	139	1
112	131	2
63	81	2
35	114	1
43	68	2
13	16	2
85	137	1
1	20	2
110	128	1
62	85	1
62	82	2
2	36	2
50	87	1
9	92	1
53	113	1
21	23	1
31	34	6
53	143	2
106	134	1
53	54	1
56	81	1
23	24	2
96	104	1
9	36	2
27	31	1
135	138	1
63	92	2
94	135	3
26	27	2
8	15	1
112	130	1
84	119	2
71	86	3
131	142	1
39	99	1
79	109	1
6	6	2
6	11	2
1	8	2
1	5	2
64	66	1
121	133	1
29	30	1
48	55	2
100	101	1
61	66	1
94	104	1
27	101	1
92	112	1
76	78	1
51	53	1
58	85	2
104	112	1
114	117	1
120	137	1
18	28	1
118	139	1
110	125	1
22	99	1
49	64	1
118	123	1
26	138	1
4	5	1
14	87	3
32	88	1
32	82	3
76	79	1
30	54	2
64	78	1
123	130	1
38	49	2
85	97	2
93	108	1
56	58	1
21	30	1
32	98	1
3	9	1
122	137	1
97	105	1
136	138	1
24	24	1
0	2	1
29	120	1
97	140	1
120	135	1
71	88	1
103	131	1
104	110	1
34	98	1
15	118	1
67	139	1
94	97	1
69	79	1
12	42	1
41	81	1
60	62	1
108	118	1
28	33	1
133	137	1
61	140	1
