36	96	3
34	34	9
32	32	22
84	84	12
32	161	3
106	106	9
142	167	1
68	68	13
231	231	22
99	100	6
8	8	10
66	67	6
26	45	6
117	118	10
99	99	27
19	19	12
223	223	14
178	202	2
15	23	6
100	115	3
140	141	1
71	72	3
190	191	4
66	66	7
29	30	6
104	105	14
165	165	6
224	224	15
102	105	4
189	190	7
29	29	15
48	48	9
98	98	24
69	69	16
215	216	3
138	139	7
23	23	8
36	36	9
2	7	1
96	138	5
128	128	11
81	81	19
161	161	8
188	197	3
45	45	12
56	56	19
241	242	3
64	71	7
159	159	5
233	233	9
211	211	12
40	41	5
85	85	11
57	57	15
12	14	6
16	23	7
7	7	15
159	217	4
202	202	19
66	68	8
177	177	5
1	8	2
39	39	19
222	223	8
46	46	29
186	209	5
107	107	7
170	170	13
33	78	2
42	42	9
30	30	9
225	225	7
160	160	3
183	205	1
234	234	20
54	55	10
0	0	7
206	206	7
174	174	8
15	16	9
223	228	3
82	82	9
102	102	18
183	183	9
54	54	11
86	86	17
138	138	8
68	69	4
6	17	3
73	73	14
78	123	3
43	43	14
155	155	16
122	122	17
104	104	13
176	176	9
205	206	10
61	61	11
3	120	1
168	168	3
75	96	2
65	69	5
31	34	7
22	22	14
112	112	4
169	169	24
32	33	9
62	64	4
151	151	1
109	109	6
178	178	13
137	139	3
215	215	20
73	74	1
9	9	15
15	75	3
161	235	7
53	58	4
1	1	4
79	80	5
65	65	10
44	44	8
64	64	23
203	203	13
121	121	15
174	225	4
191	191	11
166	206	3
11	15	1
83	129	4
11	11	15
63	63	10
173	173	15
201	201	16
2	2	8
41	41	36
1	2	2
48	236	1
10	11	1
80	80	13
12	12	23
178	228	2
110	110	6
31	31	7
150	152	4
145	145	4
221	222	4
117	119	3
217	218	3
84	85	3
85	86	6
235	236	9
186	186	3
88	101	3
145	146	3
113	134	4
170	171	6
51	51	22
208	210	1
12	15	2
97	101	1
99	119	2
137	138	19
13	13	5
62	62	12
200	201	6
115	115	4
100	100	8
114	114	3
190	190	18
74	74	18
120	121	6
103	105	2
137	137	6
125	127	6
33	33	21
149	150	7
55	55	22
167	167	7
78	78	6
180	236	4
239	239	9
219	219	17
238	238	8
16	33	3
84	104	4
203	204	5
171	171	6
111	111	1
232	232	10
75	75	5
34	35	17
49	50	7
133	135	11
67	67	11
61	69	2
47	47	22
3	3	18
147	147	11
169	170	5
185	185	6
101	101	13
188	189	3
130	130	7
181	181	15
21	22	5
125	125	12
24	43	2
121	122	6
13	14	4
9	25	1
151	164	1
10	10	8
153	158	2
49	49	1
106	117	4
57	59	1
15	15	13
123	123	3
77	77	10
233	234	1
1	7	4
24	24	10
5	36	8
25	25	16
147	148	8
12	13	4
50	50	7
216	216	3
29	47	3
113	113	8
4	7	3
119	156	4
103	103	7
11	72	5
26	26	24
1	50	3
29	54	4
5	17	3
89	89	5
81	82	1
83	84	12
150	150	2
150	166	2
229	229	5
178	205	12
163	164	4
20	20	4
149	149	6
240	240	7
210	210	7
108	108	11
157	221	3
174	194	3
16	16	14
123	158	3
129	130	3
67	68	5
11	12	8
95	100	5
96	96	8
166	166	5
208	211	3
60	60	15
163	189	1
21	21	16
157	157	7
138	147	4
237	238	3
176	181	3
8	29	2
228	230	5
70	70	13
137	151	4
5	6	11
209	210	7
16	20	3
40	40	9
194	195	6
52	52	13
140	140	6
200	200	7
46	47	4
164	164	14
35	36	11
129	129	6
58	218	5
6	6	8
100	124	2
4	5	12
101	135	1
173	174	7
114	115	3
55	56	2
222	222	2
119	119	3
48	50	2
38	38	8
221	221	7
101	118	2
15	157	5
96	121	3
134	134	9
77	79	2
185	187	6
41	42	6
100	101	8
175	175	5
230	231	5
157	195	2
194	194	3
196	197	2
213	213	5
135	135	9
32	55	6
17	18	8
6	7	12
242	242	9
4	6	2
45	46	2
139	140	3
214	216	1
10	51	3
208	208	3
169	171	2
198	199	2
230	230	11
133	134	10
198	198	6
211	229	7
187	187	5
82	84	3
73	135	2
116	134	4
37	47	1
139	141	2
25	44	7
88	88	4
146	234	6
65	70	4
114	126	3
71	71	16
172	172	8
44	45	5
14	226	7
61	62	6
34	48	1
156	163	3
116	116	5
26	38	2
193	193	6
180	180	6
8	17	1
84	95	1
21	23	2
152	152	4
10	196	1
116	118	3
117	117	4
72	72	15
218	218	13
3	16	4
182	182	5
0	52	5
27	27	8
204	204	12
58	59	7
73	92	2
182	201	2
20	22	6
172	196	1
39	46	2
105	105	15
160	216	1
68	72	2
45	73	7
65	82	3
189	189	3
29	36	4
118	118	6
35	35	4
209	209	10
99	137	4
79	127	1
37	38	7
1	49	3
127	127	2
91	91	6
115	122	2
2	12	5
140	142	9
172	173	2
186	188	3
154	194	4
178	199	1
190	192	2
189	204	3
163	168	7
37	136	5
158	158	7
241	241	2
59	78	1
28	28	12
200	223	5
75	76	3
13	17	7
25	43	5
167	168	7
64	137	1
52	53	6
194	196	3
51	53	2
77	115	4
150	164	1
49	51	2
8	9	3
228	229	7
25	55	4
37	37	2
20	24	3
220	229	2
198	217	2
57	80	2
80	123	6
0	9	10
214	214	3
113	135	3
207	208	5
162	162	7
195	195	3
191	231	1
164	165	3
214	215	2
32	48	2
179	186	4
65	66	2
122	123	2
203	220	3
97	97	13
4	4	13
80	133	1
237	237	3
137	143	3
50	51	9
143	143	4
33	36	4
159	160	3
205	219	1
148	148	4
91	131	1
85	95	3
106	140	5
22	23	6
91	123	3
179	179	14
156	157	3
37	121	1
136	138	1
119	139	2
110	143	2
128	136	4
207	221	2
202	203	5
76	141	4
4	56	4
13	18	2
203	232	5
184	184	9
30	31	4
165	191	1
58	82	9
64	70	3
48	51	3
2	6	1
59	59	8
5	5	2
7	8	12
137	147	2
76	76	4
124	124	4
224	232	1
161	226	3
102	113	3
178	200	4
96	100	1
2	16	2
63	139	3
199	199	9
32	85	1
139	139	3
0	1	1
96	97	3
199	200	4
162	163	3
47	63	4
17	29	3
217	217	3
226	227	3
73	239	3
176	207	5
236	237	5
118	137	2
210	219	6
60	129	1
213	214	3
198	200	1
58	58	5
112	113	3
38	39	3
170	175	1
126	126	2
9	52	2
61	64	2
79	79	9
178	198	4
52	75	2
99	102	2
105	130	2
25	39	2
80	104	3
34	60	2
3	8	2
57	83	4
211	220	2
153	185	2
42	216	3
160	162	2
165	169	2
220	220	16
70	71	2
39	56	2
224	228	3
228	228	5
27	28	5
190	197	2
189	203	2
60	130	3
35	40	1
42	49	1
236	236	7
119	157	1
154	163	4
166	170	1
1	15	1
9	10	2
103	104	4
74	140	1
154	164	2
154	180	1
95	95	2
9	48	2
80	81	5
0	57	1
131	144	3
142	142	2
53	53	2
120	120	5
188	191	5
80	106	2
9	17	2
136	144	1
99	148	2
237	240	1
185	194	2
82	83	6
69	86	1
238	239	3
131	131	3
225	226	2
102	128	2
105	106	1
29	37	2
136	136	3
153	164	3
65	67	4
16	24	3
56	57	1
168	169	3
101	102	3
188	188	6
159	197	3
30	59	4
162	197	1
17	48	5
186	207	3
206	207	1
97	122	3
186	187	3
9	38	2
145	147	1
42	55	2
62	71	1
153	153	2
14	19	1
39	73	2
173	224	2
122	152	2
35	78	1
149	192	2
161	162	3
32	53	1
19	21	2
24	28	1
154	154	3
149	160	1
56	85	4
59	60	1
71	73	1
212	212	3
122	160	3
149	176	2
27	38	1
2	3	4
77	114	4
178	179	3
146	165	1
32	144	1
208	220	2
179	180	2
102	103	1
155	194	1
16	48	1
18	23	1
97	99	1
18	48	4
7	16	2
101	114	1
31	35	2
24	25	2
143	144	2
64	65	2
9	33	3
37	89	1
239	240	1
81	83	1
13	120	2
3	7	1
207	207	5
151	166	1
185	226	1
14	14	1
14	49	5
95	114	6
2	8	1
196	196	3
204	205	5
75	120	1
64	69	2
65	89	1
95	96	4
150	151	1
51	52	3
13	79	1
104	106	1
3	15	3
125	126	4
110	145	2
176	221	1
128	172	3
69	70	2
43	64	1
143	145	1
34	74	2
193	196	2
56	58	3
115	133	2
197	197	4
73	128	1
11	55	1
19	20	2
76	115	1
33	34	3
5	35	1
10	55	1
0	157	3
150	191	2
99	123	1
192	192	2
24	57	2
182	183	2
75	140	1
37	55	2
67	69	2
146	146	2
59	79	1
24	27	1
79	124	1
62	88	1
197	198	1
62	63	1
240	241	1
6	120	1
172	184	3
79	129	1
209	223	1
181	236	1
181	226	2
18	18	1
12	118	2
15	17	3
179	184	2
143	147	2
78	126	3
96	101	1
179	201	1
80	84	1
186	210	1
153	157	1
106	107	1
48	49	1
161	205	1
31	60	1
0	225	1
47	48	1
16	18	2
9	29	2
40	55	1
75	118	2
152	238	1
152	158	1
124	140	1
36	37	1
220	221	1
52	58	1
11	136	1
156	156	4
132	132	1
151	204	1
123	127	2
162	164	4
79	125	1
166	167	1
101	128	1
180	200	1
210	211	2
81	102	1
116	128	1
12	185	1
80	132	1
161	164	1
102	138	1
105	117	2
165	199	1
124	159	1
176	177	1
177	215	1
58	72	1
99	135	1
105	107	1
25	45	1
123	125	1
24	66	1
58	78	1
202	233	1
62	137	1
17	79	1
0	83	1
44	136	1
70	88	1
208	224	1
150	192	1
165	200	1
177	208	1
27	69	1
144	144	1
191	194	1
174	175	1
175	197	1
