6	32	2
70	70	22
145	145	10
127	127	22
99	119	2
18	22	2
126	128	7
87	88	8
96	133	3
81	81	24
58	58	26
78	78	18
134	135	6
111	111	14
14	15	1
124	124	19
138	138	22
36	56	2
140	140	18
117	117	9
54	54	6
28	29	8
2	3	1
82	84	1
80	80	15
42	42	21
15	15	8
49	51	2
29	146	4
134	134	34
87	138	2
114	114	17
78	92	3
57	58	3
41	62	1
8	9	11
78	86	3
141	141	21
28	28	17
82	86	4
125	125	12
19	19	29
56	56	7
62	62	31
48	48	14
142	142	28
26	36	3
59	59	29
144	144	25
26	27	3
52	96	6
5	51	1
61	61	20
29	29	32
69	92	2
18	18	23
107	131	5
139	139	9
89	89	7
102	119	1
98	98	5
82	82	13
37	71	5
55	55	7
95	98	8
109	109	9
136	139	5
39	40	9
125	126	9
84	124	4
129	129	18
112	115	3
122	122	13
128	128	34
126	126	16
48	49	5
121	121	20
111	112	5
47	47	8
129	130	20
77	78	3
118	135	3
75	87	2
113	114	1
106	113	4
37	37	38
34	106	2
2	2	16
13	13	26
124	131	2
130	130	11
0	0	19
40	40	18
95	106	2
140	141	12
70	71	8
131	131	27
15	16	15
95	96	5
115	115	12
91	92	5
97	97	23
21	21	19
82	113	1
13	65	2
120	124	2
108	109	6
118	118	7
27	27	37
106	106	21
11	11	21
91	91	22
90	91	2
128	130	6
100	100	14
104	104	23
30	74	3
132	132	26
57	133	1
10	10	12
20	24	3
77	88	5
135	142	2
96	97	11
79	79	12
72	72	8
1	3	5
135	138	4
67	67	15
27	127	4
112	114	3
73	74	1
50	61	2
31	76	2
137	137	28
131	135	1
51	51	5
53	74	2
96	96	9
100	103	3
2	6	4
39	39	20
104	135	2
104	105	4
110	110	5
52	52	22
93	94	17
8	8	5
119	121	3
14	125	2
65	68	4
36	36	8
124	125	9
119	119	20
71	72	2
86	110	1
32	32	21
38	38	17
116	116	26
42	74	6
135	136	9
47	50	4
38	39	9
105	106	4
6	10	2
55	72	2
67	81	4
4	4	16
6	6	16
25	25	12
142	143	9
38	82	3
65	65	14
123	123	19
67	101	4
88	89	6
48	113	2
115	117	3
86	86	10
77	77	12
26	33	4
100	115	2
23	65	3
120	125	4
133	135	2
34	34	7
101	102	10
32	111	2
35	56	7
113	113	15
54	56	3
43	43	3
132	133	13
40	128	1
31	31	14
120	120	7
39	76	1
104	110	4
34	36	1
41	87	4
101	101	18
132	134	5
95	125	2
116	133	5
52	53	3
26	78	3
102	102	17
47	48	3
57	57	16
50	50	6
71	74	4
32	104	1
53	68	1
93	93	15
71	75	2
37	82	2
49	49	8
30	30	6
40	41	7
54	55	8
35	36	4
136	136	21
81	82	3
33	105	2
97	98	7
117	131	1
74	74	16
89	91	1
95	95	13
23	23	22
22	22	29
135	137	10
61	62	2
9	9	14
107	108	5
83	85	6
1	19	5
35	70	1
58	59	13
4	49	2
90	90	14
37	74	1
85	89	3
24	25	2
99	99	9
89	90	13
63	63	7
71	71	11
137	138	6
59	91	2
72	74	2
35	35	7
66	66	3
102	103	4
66	90	4
20	20	15
34	35	6
66	68	2
76	76	21
87	87	12
144	145	1
41	41	20
104	130	3
67	102	1
108	108	9
93	97	1
42	56	4
38	42	4
50	51	4
16	16	18
60	60	13
66	69	5
73	73	13
68	68	18
126	127	7
84	108	2
123	143	4
95	129	4
19	22	2
106	107	4
116	117	8
20	25	3
70	73	1
86	87	2
115	118	2
3	4	4
127	128	5
57	59	2
4	5	4
122	124	2
79	84	4
141	142	2
116	118	3
8	29	6
146	146	6
15	31	3
16	27	1
125	137	3
107	144	1
54	58	5
104	129	4
131	143	1
126	129	3
84	84	10
134	144	4
26	26	14
133	137	2
12	16	2
0	2	2
26	97	2
105	129	2
118	119	8
121	123	8
99	100	5
95	104	2
103	103	10
114	119	2
132	137	2
105	109	1
90	96	2
47	108	2
13	43	1
74	86	2
92	93	10
94	120	1
98	99	4
59	60	3
43	91	2
2	65	3
74	88	4
20	21	4
38	40	6
127	129	7
131	132	8
94	94	15
1	12	1
51	52	5
5	6	3
140	144	2
78	79	11
25	33	2
66	67	7
12	13	1
24	24	12
21	22	4
58	62	4
38	81	2
25	26	7
64	64	3
99	102	1
92	109	3
133	133	10
5	5	8
47	52	1
53	53	8
17	17	12
2	4	4
139	140	5
116	119	3
31	32	3
47	114	2
36	49	1
126	140	1
122	123	7
5	21	1
57	61	1
15	32	2
107	107	5
110	111	10
122	143	3
39	121	2
109	110	2
74	85	2
81	84	1
56	62	5
33	37	2
143	143	8
104	106	1
133	136	4
40	42	2
104	107	3
140	143	4
88	88	3
4	43	1
3	3	8
83	83	7
74	75	2
104	111	3
12	12	2
1	1	7
74	84	2
136	137	3
127	130	3
118	120	4
85	85	6
133	134	10
23	24	6
1	5	3
59	62	1
15	24	4
50	67	2
78	85	2
99	109	4
33	33	3
48	81	3
72	102	1
27	100	1
105	107	3
2	54	1
40	68	4
24	27	3
112	113	5
75	75	15
88	111	1
126	130	1
30	82	6
77	79	1
125	131	4
18	33	3
92	99	1
90	92	3
109	140	2
27	42	2
103	104	2
138	142	4
6	56	2
62	63	4
62	68	2
107	118	1
74	82	2
92	94	2
120	121	3
92	92	4
138	139	3
4	64	3
58	98	1
98	103	2
4	31	2
33	34	1
36	37	3
88	110	2
83	84	1
68	82	1
89	124	2
128	142	1
52	56	1
59	61	3
106	115	2
113	115	4
143	144	3
39	58	1
18	19	1
5	23	2
136	138	2
2	52	3
139	143	5
95	97	2
99	101	1
112	112	8
122	132	1
72	105	2
123	124	1
135	143	2
114	117	3
121	122	4
12	18	1
99	128	3
20	73	3
40	137	1
27	77	2
35	69	2
36	48	1
90	141	5
104	112	2
16	26	1
25	71	1
20	22	2
121	127	1
96	134	3
37	50	1
115	140	1
54	83	2
33	109	1
115	124	2
35	92	4
5	36	1
87	141	1
96	102	1
85	110	1
111	115	3
125	141	1
21	26	1
135	135	5
13	121	1
66	109	1
19	24	3
100	122	1
35	66	5
117	118	1
131	134	3
14	14	3
41	42	1
20	23	1
125	134	1
127	140	2
119	127	2
125	135	2
65	66	2
1	10	1
115	139	1
69	69	6
131	141	4
11	17	3
20	49	4
119	134	2
57	63	2
13	14	1
75	76	2
25	70	4
90	144	1
67	70	1
1	21	1
60	61	1
142	144	3
37	38	2
58	73	2
64	65	2
130	131	3
31	33	1
55	136	2
69	72	2
64	72	3
131	142	2
105	105	3
60	72	1
41	135	2
74	131	1
119	120	4
57	98	2
123	141	2
31	35	2
32	33	1
90	95	2
86	88	2
35	121	1
33	92	3
72	78	1
59	120	1
24	65	1
81	83	1
76	130	4
23	66	2
52	65	1
88	90	1
41	89	1
34	38	1
43	74	1
5	121	1
61	99	1
27	28	1
40	66	1
2	68	1
3	5	1
60	75	1
21	23	4
75	108	1
79	80	2
14	34	1
54	139	1
15	38	2
134	136	1
52	98	2
103	123	1
23	25	1
29	100	1
137	139	2
47	138	3
114	115	2
38	77	1
98	127	2
136	142	1
42	98	1
82	83	1
133	140	1
15	72	2
87	97	1
17	18	1
61	97	1
82	104	1
15	21	1
53	55	1
73	107	4
29	30	1
22	58	1
14	50	1
123	131	1
77	99	1
136	141	1
100	101	1
0	1	1
139	144	2
25	96	1
83	125	1
48	50	1
69	71	1
63	64	1
26	34	1
129	131	1
109	113	3
19	25	1
43	48	1
105	108	1
72	103	1
91	128	1
109	111	1
102	133	1
17	29	1
87	91	1
125	127	1
62	65	1
98	100	1
19	33	2
88	98	1
33	68	1
145	146	1
104	116	1
