118	242	1
52	62	3
163	169	5
74	74	15
46	46	5
11	11	12
38	39	2
170	180	4
137	137	4
133	134	4
80	80	10
130	131	3
231	231	5
207	209	1
162	162	3
4	4	8
213	213	7
31	31	7
215	216	13
193	212	1
40	53	4
0	30	3
88	100	3
140	140	6
32	32	8
34	34	6
79	83	5
17	17	9
170	170	8
118	118	7
237	237	2
206	206	6
15	23	9
13	14	5
154	154	9
149	149	2
33	34	2
198	198	7
68	68	14
188	188	5
140	189	3
7	13	1
106	106	6
0	0	6
18	18	7
40	40	15
103	105	3
104	104	6
2	3	7
80	108	2
130	130	6
2	2	10
52	53	2
196	196	9
16	19	4
67	67	14
45	45	2
123	136	3
151	151	4
176	176	1
30	67	3
102	102	17
7	8	3
103	123	3
24	39	4
76	79	2
95	96	1
15	103	2
41	42	3
15	16	1
200	200	4
179	179	12
5	6	6
242	242	5
113	113	7
41	41	11
96	96	5
23	23	11
161	161	13
192	192	12
39	39	6
72	72	7
114	120	3
56	79	4
164	165	1
159	164	4
115	126	2
117	117	5
128	128	5
182	182	3
4	23	3
62	62	6
1	2	9
61	61	6
15	15	2
167	167	3
37	37	7
191	191	11
20	20	13
55	55	6
19	214	5
39	42	5
131	131	3
163	163	3
27	27	12
84	84	4
114	116	4
141	141	4
169	176	2
178	220	1
101	101	3
186	186	7
62	63	3
187	191	2
63	111	2
77	79	6
145	145	4
168	168	2
54	61	2
136	136	3
204	204	4
22	49	2
169	169	3
42	42	7
220	220	11
53	53	7
1	30	3
37	38	4
105	119	1
22	22	8
10	10	4
56	57	4
66	66	5
112	113	1
48	48	7
36	114	1
116	116	1
198	212	4
61	75	1
10	73	2
103	103	2
78	79	4
58	106	1
17	73	1
3	73	1
232	234	2
178	213	2
3	121	3
73	73	5
3	3	9
60	60	5
227	227	9
50	50	3
115	116	1
144	155	2
57	57	4
230	230	15
148	157	3
176	177	1
46	47	5
163	166	7
123	123	5
64	64	8
16	16	10
7	7	11
218	219	2
171	171	12
35	49	3
199	200	2
232	232	5
85	85	1
68	69	7
5	5	7
101	103	6
70	70	2
223	223	2
205	205	5
200	242	3
180	216	2
59	75	4
177	177	5
5	8	3
8	8	2
173	183	5
187	187	7
170	172	2
139	139	7
169	186	6
150	232	8
209	221	1
88	88	2
222	223	3
4	16	5
158	178	2
199	229	2
148	148	1
72	127	4
210	210	4
14	14	3
239	239	2
2	12	3
77	78	3
125	125	3
72	126	2
71	71	2
69	69	6
11	32	2
185	185	1
52	52	5
186	187	7
99	105	1
34	35	2
48	51	1
216	219	1
26	26	7
78	78	7
41	114	1
127	127	4
154	179	2
158	158	1
51	56	2
149	157	2
229	229	6
154	180	3
39	47	4
155	158	4
31	48	2
25	38	4
21	24	3
56	56	2
86	86	1
1	36	3
24	24	4
29	65	2
180	180	8
31	41	2
51	51	7
149	202	6
20	47	1
31	32	1
41	51	1
13	105	3
208	220	1
175	175	1
119	119	8
152	152	4
72	128	1
178	178	2
164	166	3
226	230	2
23	24	3
200	218	1
173	173	6
189	189	10
2	34	4
164	164	3
4	14	4
181	182	2
38	38	6
137	174	5
123	125	1
181	181	1
202	202	2
219	220	1
177	223	5
221	222	3
65	66	1
59	59	6
194	194	6
36	67	1
214	214	1
13	13	2
100	100	2
126	126	2
162	175	1
225	225	3
65	67	1
58	58	4
229	230	1
195	206	4
122	122	3
2	30	3
29	29	2
159	174	2
36	36	2
226	226	3
19	19	3
76	76	3
199	208	4
211	211	6
134	134	3
79	81	6
196	206	1
43	43	1
203	203	2
201	201	1
11	148	2
79	79	1
8	13	2
114	114	3
35	35	6
195	195	3
105	151	2
69	130	1
81	83	1
65	73	1
217	217	2
193	196	4
109	109	3
17	163	1
193	193	1
104	105	2
98	99	1
50	51	3
18	19	1
21	22	4
209	210	3
140	142	1
228	228	2
75	75	1
158	159	1
26	28	1
21	50	1
106	113	1
80	84	1
82	82	4
233	233	1
8	9	1
7	23	1
122	126	5
55	56	1
224	224	5
167	169	4
12	33	1
158	169	1
115	127	3
77	83	1
180	181	1
174	174	3
234	235	2
71	72	1
156	158	5
121	122	2
47	74	1
105	105	4
159	159	1
155	168	2
216	216	1
153	153	3
222	222	4
77	77	5
180	223	2
166	166	2
157	159	3
208	208	1
208	221	2
2	6	2
17	159	1
12	114	1
201	202	1
238	239	2
138	138	2
121	121	2
137	138	1
167	168	2
24	43	1
44	44	2
73	76	1
117	130	1
108	108	1
239	240	2
137	189	2
209	209	2
127	128	2
65	65	4
49	60	1
138	143	1
187	188	4
84	106	1
101	102	6
168	169	1
194	212	2
35	40	2
68	130	2
235	236	1
9	9	2
45	47	1
205	213	2
216	220	2
43	61	1
101	122	1
39	52	1
63	63	1
17	65	1
82	106	1
124	125	1
160	160	2
83	83	2
173	174	1
72	220	1
62	82	2
51	58	2
138	142	1
136	191	1
226	227	1
207	222	2
202	204	1
111	111	1
227	228	2
75	85	2
66	67	1
172	172	1
165	165	1
58	144	1
6	7	1
153	158	1
66	103	2
143	143	3
171	172	1
60	78	2
14	15	1
217	219	1
236	236	1
56	77	1
34	48	2
137	191	5
223	224	1
135	135	1
75	76	1
143	146	2
225	226	1
200	215	1
6	6	1
184	186	1
29	66	1
22	50	1
9	71	2
197	197	1
117	118	1
99	99	1
21	21	1
4	6	1
202	241	1
170	176	1
44	47	1
202	203	1
1	1	1
92	92	1
11	12	1
171	176	1
95	95	3
124	124	1
241	241	1
214	215	1
138	139	1
154	155	1
49	50	1
25	37	1
56	82	1
114	124	1
114	115	1
24	25	1
97	97	1
161	168	1
63	75	1
183	224	1
160	175	1
51	52	1
69	116	1
183	183	1
115	148	1
3	9	1
98	98	1
118	125	1
235	237	1
