57	58	4
78	82	1
118	122	3
92	92	7
184	184	9
147	147	12
137	144	3
58	59	1
16	16	5
116	155	5
0	0	4
166	166	8
163	165	1
21	26	4
111	112	6
189	189	7
146	146	8
182	190	1
175	187	1
122	182	3
75	164	1
95	96	3
104	114	4
117	118	1
36	36	8
22	22	2
55	105	2
22	26	9
75	96	1
91	91	6
55	60	1
136	139	3
89	89	4
9	11	5
117	117	4
103	129	3
9	10	1
27	28	6
76	76	6
23	24	7
148	149	2
1	4	1
45	46	4
35	35	6
6	25	5
131	177	3
137	137	7
64	64	4
58	58	9
186	186	4
45	45	9
106	107	1
79	79	4
29	29	5
42	44	3
78	100	4
10	18	2
31	31	20
174	174	13
128	171	1
106	106	2
134	134	8
138	140	4
109	109	5
190	190	15
45	111	5
187	187	6
39	39	7
185	185	5
156	156	17
112	150	1
168	168	14
169	169	25
38	38	9
140	140	7
26	76	1
125	125	8
14	26	1
20	20	5
177	177	4
22	24	3
130	162	3
110	110	4
88	88	11
47	48	3
173	180	1
152	153	4
82	83	2
66	67	10
6	6	15
71	94	1
129	161	6
32	32	5
64	118	2
42	46	1
116	119	6
94	94	8
157	157	6
23	25	3
111	146	1
156	162	1
52	54	2
139	139	9
75	76	4
92	93	1
99	100	4
80	166	1
10	13	6
17	18	3
59	59	3
9	13	5
77	77	5
53	53	10
14	16	8
171	174	2
132	132	2
5	21	2
36	78	1
124	173	3
107	150	4
163	163	4
136	143	1
10	14	2
95	95	8
116	116	2
119	120	3
59	151	2
24	25	2
67	67	5
5	34	2
187	189	4
61	61	5
141	142	6
147	149	3
164	164	6
131	131	10
48	48	8
33	33	4
99	99	6
81	106	1
28	28	2
111	111	7
121	121	6
142	142	12
48	58	9
148	148	6
118	120	2
141	141	2
54	54	4
85	85	13
176	186	1
0	14	1
65	106	1
80	80	6
145	145	5
76	77	2
111	150	4
116	120	3
117	127	1
60	61	4
180	180	18
33	34	2
66	106	3
18	23	2
162	162	3
100	166	3
46	46	8
176	176	4
101	101	7
96	97	1
120	182	2
122	122	10
75	178	2
115	116	5
106	134	2
53	54	1
5	24	5
108	108	7
78	78	6
98	158	3
83	83	3
169	174	2
41	41	7
189	190	3
98	98	4
73	73	10
149	153	2
114	115	7
81	84	2
80	86	2
107	115	3
4	4	2
170	170	5
9	26	5
111	177	5
7	24	5
90	90	6
173	173	3
125	167	4
19	19	2
26	37	4
46	60	3
3	6	1
149	175	7
2	2	3
91	95	1
164	184	2
138	175	1
60	60	1
32	35	1
75	94	1
26	30	1
131	178	3
65	65	8
174	175	4
67	68	2
15	15	8
69	104	4
73	97	4
134	137	4
0	6	2
132	146	3
44	45	4
34	37	2
81	83	2
1	1	5
149	170	1
42	42	4
82	98	2
178	178	10
54	55	1
25	36	2
151	152	3
57	62	3
150	150	1
76	176	4
159	159	1
6	24	3
181	181	4
120	124	6
17	17	11
113	113	8
135	136	1
149	150	3
100	107	1
164	166	3
38	174	4
137	142	2
131	144	4
9	14	4
110	152	3
129	130	2
19	24	1
129	183	1
188	188	5
38	185	2
155	171	4
61	62	2
37	37	5
117	181	5
149	149	8
3	4	2
7	7	3
56	56	4
13	25	2
117	182	1
70	72	4
64	81	1
28	35	5
144	144	4
18	18	3
172	172	4
79	80	1
168	171	2
129	129	8
28	33	1
155	163	3
123	123	2
5	16	1
108	148	1
91	106	3
16	37	1
18	20	5
59	62	1
43	43	9
179	179	1
76	110	1
178	179	7
21	21	3
120	122	2
27	27	8
48	57	1
125	183	1
68	109	1
151	151	3
85	87	2
70	155	4
180	181	1
58	87	1
5	5	3
119	170	3
163	164	4
64	98	1
86	87	1
65	68	2
65	113	3
13	26	3
28	29	2
150	184	1
72	182	3
162	164	2
81	82	1
165	165	4
128	167	3
125	126	6
146	147	6
154	154	3
112	112	5
45	146	2
116	118	3
124	154	2
104	105	4
10	10	5
43	46	4
133	147	2
22	23	2
122	124	2
159	160	2
34	34	1
60	98	2
165	188	3
0	45	1
102	103	1
64	65	2
13	13	1
71	180	2
183	183	2
55	59	1
79	106	1
55	55	1
118	155	2
157	164	2
59	60	2
32	33	4
78	156	3
152	152	3
38	39	3
153	154	2
127	127	7
105	145	1
78	81	5
40	40	8
96	96	3
116	170	1
81	96	2
4	6	2
143	147	1
3	3	5
131	132	3
101	110	2
65	66	7
19	20	3
90	134	2
107	108	2
153	153	2
78	113	2
171	180	1
15	28	1
53	55	4
185	186	3
118	123	3
70	71	1
108	109	2
75	176	4
115	115	2
73	74	1
116	127	1
13	14	3
156	157	1
79	87	2
155	184	3
78	99	2
134	135	1
140	142	2
20	37	1
34	45	2
58	62	1
46	146	2
116	123	1
46	47	2
155	155	1
114	114	3
14	15	3
63	81	1
103	104	1
116	156	2
71	71	4
103	106	1
72	72	1
58	60	1
70	70	3
68	70	1
164	165	4
48	53	3
81	98	5
131	136	1
56	57	1
12	12	2
150	151	1
160	164	2
68	71	2
99	165	1
188	190	3
131	145	1
182	183	1
26	27	3
82	82	8
161	161	3
130	131	4
71	170	1
107	107	1
181	182	3
14	14	3
60	110	2
2	3	1
15	23	2
81	81	1
154	163	2
78	165	3
66	70	3
24	24	4
59	61	4
124	124	4
158	158	1
33	35	1
60	64	1
128	156	1
64	73	1
128	129	2
118	127	1
106	129	7
170	179	3
42	146	2
100	164	1
143	145	3
65	72	2
135	145	2
133	161	1
26	26	3
175	178	1
11	24	1
163	170	1
60	109	2
47	47	4
132	139	3
36	42	2
74	74	3
157	161	1
100	100	6
29	30	1
66	71	1
97	98	2
63	63	2
99	190	2
84	85	1
158	161	1
116	124	1
160	163	3
153	183	1
40	41	2
67	70	3
93	93	2
97	97	2
167	168	2
134	136	3
168	169	1
8	11	2
118	126	1
25	25	2
29	31	1
154	171	2
23	23	2
30	30	2
118	118	3
130	130	1
165	167	3
113	144	2
171	171	3
106	145	1
55	62	1
88	152	3
79	100	1
12	13	2
39	40	1
64	115	1
0	16	1
54	188	1
23	27	2
188	189	1
119	121	2
87	87	1
55	125	1
121	190	1
44	44	1
175	176	2
112	145	1
62	62	1
5	12	1
74	75	1
80	82	1
18	21	2
15	16	1
172	173	1
79	81	1
44	46	2
71	124	1
112	156	2
33	48	1
101	122	2
71	177	2
169	170	2
120	181	1
31	33	2
86	86	1
67	76	1
37	76	2
72	73	1
130	137	1
143	144	1
112	147	3
64	111	2
9	9	1
129	151	1
98	99	1
130	134	1
48	49	1
41	112	2
116	179	1
84	90	1
101	102	1
113	153	1
127	156	1
43	68	1
69	114	1
59	85	1
89	171	1
131	133	1
118	163	1
151	185	1
69	76	3
84	93	1
165	166	1
75	149	1
39	185	1
79	110	1
119	119	2
130	145	2
5	6	1
157	158	2
157	167	1
4	26	1
11	11	1
186	187	1
75	174	1
143	143	1
20	21	1
16	17	1
138	139	1
104	104	1
104	115	1
67	77	1
171	179	1
37	43	1
122	126	1
135	135	1
21	22	1
100	101	1
72	80	1
112	134	1
119	180	1
84	91	1
79	113	1
1	2	1
137	141	1
114	154	1
18	24	1
129	150	1
183	184	1
137	173	2
64	107	1
76	106	1
61	63	1
74	180	1
11	32	1
80	96	1
