48	88	8
26	46	4
54	54	5
23	23	5
98	98	13
67	68	4
48	48	8
65	65	6
85	88	3
75	75	6
97	98	11
74	75	2
78	92	1
22	24	5
91	101	3
77	77	7
56	58	9
56	56	4
76	76	5
73	73	8
91	91	1
106	106	9
45	46	8
86	88	5
28	59	1
49	78	2
51	51	5
30	31	2
86	87	3
97	97	3
20	86	5
66	68	2
32	32	6
51	61	1
52	52	11
70	70	3
25	27	6
20	91	3
61	71	4
23	88	2
100	100	8
83	95	4
97	106	2
79	95	2
58	58	3
103	103	6
47	85	5
58	59	5
94	94	4
60	60	12
96	97	6
90	92	1
51	52	6
28	48	2
82	82	7
74	74	4
62	62	9
92	93	4
33	34	6
102	102	3
53	53	5
57	57	10
90	90	8
82	97	1
21	68	1
55	58	1
89	89	4
27	71	2
24	24	2
84	85	4
22	23	2
34	34	3
69	70	4
104	104	15
89	98	2
92	92	4
64	64	2
72	72	6
30	30	10
26	30	1
60	63	2
93	93	5
31	96	3
67	67	5
84	89	1
83	83	4
49	99	1
75	76	2
81	84	3
101	104	3
35	38	1
62	63	5
53	55	3
74	76	2
99	99	3
96	96	7
90	99	3
56	57	7
87	87	1
24	26	3
61	62	1
48	60	4
44	44	1
35	35	3
59	60	3
105	105	3
47	72	3
58	62	2
39	39	1
28	28	6
49	56	2
69	69	10
76	78	2
55	77	1
42	91	3
84	96	3
48	49	5
46	82	4
20	20	5
55	66	2
28	30	3
61	61	10
54	71	3
21	25	1
22	25	5
81	97	1
85	86	2
54	55	1
61	63	3
70	75	4
88	106	1
59	68	3
70	72	2
49	49	8
35	36	3
59	59	7
26	26	5
51	53	5
47	87	5
68	69	2
80	80	2
50	97	1
50	51	2
82	84	4
65	66	5
31	84	2
106	107	2
81	81	3
29	29	2
97	99	4
76	77	1
27	29	3
83	84	1
79	80	5
91	102	2
21	92	2
88	88	3
50	55	2
21	22	2
49	82	2
51	64	1
79	79	3
90	96	2
25	44	2
46	46	4
94	96	2
47	60	2
81	82	2
21	21	5
29	30	5
63	63	5
55	55	3
27	27	4
52	53	3
24	25	4
25	25	1
82	83	4
51	85	3
33	39	2
79	83	2
89	90	1
71	71	3
44	45	3
38	41	4
86	86	4
54	96	2
79	86	1
40	40	2
82	96	3
95	96	2
32	83	2
105	106	2
34	86	2
34	35	1
101	101	3
36	36	5
76	97	1
92	105	2
67	72	2
30	44	2
61	66	1
50	74	2
101	102	1
77	107	1
80	81	7
91	100	1
85	85	2
73	104	1
29	94	1
40	41	2
56	62	1
41	43	1
66	67	1
78	83	1
49	58	3
31	33	2
30	48	1
39	53	1
50	52	3
48	56	2
63	88	2
32	34	1
79	82	1
58	63	4
55	57	1
31	31	1
84	98	1
70	74	3
55	59	2
72	73	2
47	51	1
49	79	1
105	107	1
68	71	1
37	39	1
24	43	1
47	97	1
95	99	1
107	107	2
64	65	1
93	105	1
93	95	1
82	85	1
66	66	1
100	101	2
57	58	3
24	29	1
43	47	2
83	96	1
68	68	1
51	99	1
36	37	1
45	45	1
41	90	1
76	95	2
34	40	1
54	59	1
99	107	1
51	76	1
50	79	1
31	35	1
