151	151	3
136	140	3
46	46	5
53	54	5
188	188	3
142	142	5
7	34	2
155	155	5
109	109	5
122	129	2
118	144	1
126	126	3
47	47	6
161	162	3
18	18	1
148	148	6
112	121	1
170	170	4
12	12	5
29	29	5
175	175	11
161	164	2
27	27	2
11	12	1
187	187	6
103	106	1
125	125	8
69	69	7
76	76	3
22	22	6
197	197	1
74	75	3
4	5	2
194	194	5
63	63	3
96	97	2
94	95	11
139	139	2
57	57	1
17	18	2
11	11	7
110	110	2
153	153	7
132	133	8
183	183	4
0	0	1
73	90	1
119	120	1
31	31	9
38	52	1
81	81	7
54	55	2
25	25	4
85	85	10
134	134	3
15	15	5
50	50	3
137	153	3
105	105	6
114	114	6
70	70	2
5	6	4
96	96	5
102	103	2
115	137	5
131	131	5
105	141	1
55	55	1
130	167	3
143	143	2
40	40	5
104	104	4
151	177	3
10	27	1
89	90	1
62	64	3
44	44	6
195	195	2
135	135	8
189	189	1
10	10	1
9	9	11
19	32	1
138	153	3
141	141	3
108	174	1
154	174	1
193	195	4
30	44	1
82	82	2
18	24	2
10	11	1
129	129	3
55	56	1
171	171	3
133	151	3
39	66	2
109	110	3
8	8	5
100	100	5
117	124	1
2	2	2
127	128	4
122	122	2
73	140	8
123	124	2
174	177	2
102	149	4
119	119	4
184	184	3
124	125	1
41	41	4
99	131	2
82	83	2
17	34	2
118	118	3
173	173	1
132	132	7
174	174	2
156	156	4
98	98	2
138	138	2
52	52	7
157	158	6
4	4	6
163	164	3
106	106	1
88	88	1
133	133	3
135	140	2
51	51	5
138	157	3
20	20	2
12	14	4
1	1	4
161	161	6
184	186	1
74	74	1
87	87	6
3	4	4
33	33	4
123	123	7
113	114	1
13	13	3
64	65	3
97	101	1
124	127	1
175	176	2
152	158	1
23	23	3
28	102	1
24	25	2
81	138	2
48	48	2
8	34	1
137	137	3
180	180	5
171	190	1
54	54	2
68	68	3
93	94	2
73	74	1
185	188	3
154	155	1
185	186	3
4	58	1
146	146	1
86	113	1
45	45	3
181	184	3
181	191	6
21	21	1
165	165	2
168	168	5
32	32	3
4	23	1
155	156	2
127	127	1
141	145	5
174	176	3
185	185	1
32	33	1
94	106	1
180	186	1
102	102	4
149	149	5
159	168	2
37	48	1
28	29	3
6	19	3
16	16	2
74	76	1
191	191	3
161	178	1
136	136	1
14	14	3
14	51	1
45	69	1
150	177	2
62	62	1
81	84	2
176	176	2
37	182	3
7	9	1
183	188	1
56	57	3
173	174	1
79	80	1
173	176	2
3	59	1
41	131	2
172	193	3
136	138	1
77	77	1
158	158	2
181	181	4
147	148	1
186	186	8
56	56	1
37	183	1
86	86	2
122	123	1
128	128	3
193	193	2
44	56	1
72	72	5
163	163	1
65	65	3
43	43	1
177	177	3
42	50	1
176	180	1
20	62	2
159	159	2
132	177	3
5	10	3
168	181	1
196	196	1
127	151	1
42	42	2
64	72	1
182	182	1
8	9	2
152	160	1
59	59	3
139	140	1
95	95	3
175	180	2
22	26	2
145	145	2
67	67	1
162	162	2
22	41	1
140	140	2
45	63	1
16	72	2
37	37	2
30	64	1
49	49	2
111	120	1
171	172	1
17	154	1
159	167	1
21	43	1
17	17	2
177	178	2
187	195	1
53	53	1
11	13	2
156	180	1
6	66	1
102	177	2
116	117	2
24	24	1
132	134	1
28	100	1
157	157	1
40	42	1
19	19	1
7	7	1
121	124	1
3	163	1
25	26	1
127	161	1
166	166	1
36	36	1
136	137	1
157	169	2
27	29	1
190	190	1
27	28	1
20	21	1
132	164	1
120	120	1
21	27	1
82	86	1
86	126	1
74	77	1
134	135	1
9	49	1
87	150	1
111	111	1
34	35	1
77	78	1
143	144	1
107	107	1
147	147	1
3	3	1
