12	12	5
73	73	21
42	42	9
65	66	4
69	69	8
14	14	6
33	34	3
6	7	3
52	52	9
65	65	6
0	13	3
19	19	7
5	28	2
0	1	6
74	74	4
39	39	16
11	11	9
58	73	5
66	68	4
20	20	13
40	40	7
44	44	18
50	51	4
20	39	2
33	38	3
45	46	3
75	77	1
7	7	8
1	28	2
36	37	7
21	21	12
51	51	7
60	60	17
43	44	5
72	74	1
55	55	10
47	47	9
3	3	10
41	41	7
31	38	4
41	43	7
38	38	8
9	9	10
25	25	6
24	25	4
62	63	4
48	49	4
6	6	8
5	5	9
25	26	5
42	43	3
23	27	2
33	77	6
70	74	1
28	29	5
32	32	6
2	3	4
50	50	7
76	77	8
27	27	6
45	68	4
59	75	3
2	77	2
5	68	1
27	28	1
35	36	2
34	76	3
72	75	1
33	33	5
67	67	13
22	22	15
53	53	15
58	59	2
44	72	2
45	48	4
0	0	7
75	75	6
31	33	4
26	27	7
60	77	4
65	75	2
54	54	6
51	68	1
34	35	5
18	18	4
45	45	8
49	50	4
1	2	3
28	77	1
26	26	3
77	77	9
23	23	8
71	71	12
5	8	2
31	31	1
56	57	2
64	64	14
32	77	1
64	65	2
35	35	10
0	4	2
19	74	1
47	68	1
60	73	1
70	70	5
34	40	4
53	55	3
30	30	7
46	46	10
62	64	3
26	30	5
61	63	1
8	8	11
37	37	11
42	45	1
70	71	4
21	22	3
34	37	5
67	68	5
58	58	6
48	50	3
0	9	2
0	28	1
19	20	6
31	32	7
28	28	6
5	6	3
34	39	3
48	48	6
12	55	5
68	68	2
24	24	9
50	53	1
43	43	10
44	45	1
74	75	4
72	72	3
32	33	4
1	1	9
22	35	1
32	39	1
31	50	6
57	60	6
31	35	5
39	40	7
10	10	4
62	62	6
14	53	1
30	48	3
22	24	2
23	37	2
59	59	3
53	54	1
4	4	5
10	11	5
0	53	3
56	56	6
58	60	1
2	11	2
33	37	1
2	2	8
56	58	3
19	21	1
49	53	1
64	67	1
31	39	3
66	66	2
61	61	1
1	13	4
46	66	2
7	9	3
40	53	2
34	34	5
69	71	4
13	34	2
72	73	3
41	42	3
36	36	3
63	63	4
8	35	2
4	28	1
36	40	1
20	21	1
30	35	3
13	49	1
30	34	2
57	57	2
61	77	1
13	33	1
19	50	1
66	67	4
32	48	2
61	62	4
35	41	3
31	49	1
47	73	1
43	45	3
75	76	2
12	13	1
20	43	1
49	49	3
25	30	3
7	8	2
5	69	1
40	50	2
64	68	1
11	12	1
8	9	1
13	37	1
11	29	1
56	66	1
63	64	1
5	31	1
29	29	4
4	5	1
47	56	1
18	26	1
36	51	1
0	65	2
52	53	2
68	75	1
39	74	1
57	58	1
33	39	2
70	72	2
24	49	1
11	55	1
19	45	1
59	76	1
47	48	1
45	76	1
10	77	1
76	76	1
55	66	2
7	31	1
34	42	1
13	77	1
24	30	1
13	13	1
