54	54	9
99	99	10
114	114	13
114	138	6
123	123	7
63	63	9
101	101	8
121	121	6
87	87	3
8	8	6
128	128	7
82	82	3
145	145	11
122	122	18
107	111	6
48	48	10
10	14	1
14	29	5
57	60	3
22	22	14
39	39	21
74	77	4
67	68	6
105	105	5
74	75	9
118	118	13
61	62	6
103	103	20
40	40	15
130	131	5
70	71	2
122	129	3
111	126	1
42	42	8
26	26	7
124	124	12
127	127	5
102	129	2
42	50	3
138	138	14
33	33	5
129	129	28
106	106	7
28	28	19
131	139	3
64	69	2
13	14	2
53	53	5
132	132	19
5	6	5
67	73	6
125	140	5
89	89	4
6	6	6
1	6	1
33	84	4
98	99	10
67	67	8
18	18	8
117	133	7
106	108	5
64	64	1
70	72	1
119	119	9
36	36	9
120	121	6
5	5	6
14	14	4
141	141	11
97	98	4
0	11	10
136	136	11
16	17	9
27	27	21
96	96	12
110	136	3
81	81	6
53	54	8
37	38	1
115	125	1
29	29	11
94	94	2
65	65	4
1	1	8
88	88	6
86	86	7
84	84	13
112	126	4
90	90	2
59	59	2
117	117	7
80	80	9
95	95	4
115	116	2
74	76	4
56	56	7
140	140	6
118	119	6
132	133	5
126	126	11
134	135	8
26	33	4
135	142	4
74	74	6
13	13	4
8	12	3
28	29	4
20	25	5
11	11	8
58	59	2
55	56	10
26	32	4
69	69	7
104	104	3
99	110	1
47	52	4
118	125	1
91	102	3
37	37	11
68	75	3
35	35	4
61	61	8
93	104	1
76	77	2
129	130	9
71	76	2
82	83	3
107	107	3
117	126	4
69	88	2
134	134	13
25	25	9
124	125	2
68	68	10
21	21	8
55	55	4
87	95	1
16	29	6
23	26	1
41	41	7
25	27	5
38	38	7
94	95	8
143	143	13
49	49	5
133	134	2
121	129	3
11	86	2
53	72	1
64	76	3
120	144	3
19	20	4
128	136	3
105	130	3
74	79	3
144	144	12
2	25	1
127	135	2
37	49	3
65	68	1
56	69	2
62	62	5
58	64	1
9	9	4
54	63	1
122	128	2
95	105	3
72	72	9
79	81	7
79	80	2
14	71	2
71	75	4
131	131	9
103	104	4
58	63	5
125	125	19
140	141	5
1	11	4
111	112	4
118	120	2
48	71	1
92	114	4
60	76	2
34	51	8
91	96	4
99	100	12
51	70	3
141	144	7
130	130	12
23	23	5
55	69	1
82	87	4
80	82	1
15	15	3
35	36	9
123	143	1
129	131	5
69	72	2
9	10	3
32	32	7
50	61	3
50	56	1
134	138	6
38	42	5
111	139	4
16	16	4
17	17	10
135	135	4
57	63	3
19	19	10
53	65	1
130	133	1
12	12	5
75	75	2
38	41	3
127	130	3
63	64	6
12	13	5
51	52	3
128	129	1
109	109	12
40	41	2
55	87	1
6	36	2
141	142	4
58	58	9
25	26	1
131	142	1
117	120	4
124	126	1
97	97	3
106	107	4
76	76	1
78	79	7
113	113	8
106	109	2
99	104	2
2	12	3
83	123	1
2	2	5
73	97	4
102	102	6
52	52	5
34	35	9
104	129	3
24	24	6
60	100	2
114	115	4
2	18	8
79	79	1
71	72	5
9	11	2
80	121	6
89	95	2
110	137	3
61	82	1
107	108	3
1	2	2
93	95	1
105	107	2
71	71	5
127	134	2
57	58	2
12	19	1
52	56	1
71	97	5
92	93	1
131	143	2
128	130	1
93	93	14
2	6	3
119	120	3
4	5	5
52	67	6
72	77	1
60	110	1
25	31	1
68	84	3
52	53	1
57	73	8
55	90	2
139	139	5
92	92	6
39	40	4
137	137	9
136	138	5
58	61	4
142	142	3
49	50	2
9	62	3
48	49	5
80	120	5
77	77	3
121	122	8
96	113	2
102	104	3
119	140	1
85	105	3
28	30	1
89	90	6
127	129	1
38	39	3
136	137	5
62	65	3
132	134	1
127	136	3
15	18	5
131	133	4
83	122	2
130	141	2
130	142	2
106	138	4
6	11	7
84	118	2
83	112	2
9	12	2
48	50	4
60	60	9
22	23	4
10	10	7
120	120	3
136	139	2
146	146	2
66	66	5
91	91	6
57	64	1
21	32	1
15	29	1
53	68	2
81	88	2
83	83	9
93	97	3
18	34	1
5	40	3
34	36	1
65	69	3
56	84	1
10	13	2
113	136	2
80	81	1
97	119	1
47	112	3
137	138	6
33	34	2
111	136	3
50	58	2
50	84	1
50	51	1
108	114	2
87	88	2
134	142	1
123	140	2
21	33	1
122	130	1
122	124	2
70	76	2
77	79	1
118	129	1
52	74	2
71	96	3
111	117	2
60	61	2
18	22	1
113	114	2
35	51	2
12	14	1
18	19	2
28	42	1
124	129	1
77	78	5
122	123	2
2	14	2
122	143	1
110	110	3
0	10	1
54	73	1
24	36	5
17	20	1
3	35	1
106	111	1
2	13	1
115	115	3
49	76	1
89	109	3
96	116	1
121	130	1
98	98	2
125	126	3
136	140	2
115	123	1
140	143	1
20	35	4
117	138	3
25	33	1
98	106	3
35	38	2
54	70	2
87	90	1
87	89	3
143	144	2
116	118	2
137	142	1
15	16	2
121	133	3
70	77	1
31	33	1
130	135	1
99	101	1
125	129	1
96	97	1
133	140	1
1	36	1
117	118	2
71	77	3
43	51	1
84	89	1
90	103	2
84	85	4
115	118	1
56	79	3
106	133	1
37	42	1
69	75	3
123	124	1
37	43	1
17	22	2
74	87	1
98	107	1
100	100	3
73	99	1
47	55	1
103	125	1
59	103	3
105	131	1
74	81	2
121	127	1
4	4	3
33	38	1
67	81	1
104	123	2
34	34	1
56	77	1
116	116	2
1	10	2
23	34	2
86	89	1
56	74	1
70	70	1
57	57	1
9	16	1
79	83	1
56	75	1
2	10	1
50	54	1
20	21	2
72	90	1
121	145	2
50	50	2
125	136	1
35	53	1
66	73	2
52	88	1
126	136	1
98	105	1
47	86	1
130	132	1
57	68	2
3	3	1
131	132	1
142	143	1
0	0	2
102	103	1
120	139	1
108	139	1
8	39	1
43	43	1
86	87	1
111	116	1
122	141	3
68	72	1
52	63	1
115	126	1
67	79	2
94	97	2
42	63	1
31	35	1
116	117	1
36	37	1
117	144	1
30	30	3
31	32	1
33	36	1
83	88	1
61	98	1
110	121	3
139	140	1
108	109	1
145	146	1
76	85	1
