16	17	9
14	14	9
117	117	12
128	129	8
93	93	7
44	80	1
108	109	5
40	42	2
81	81	8
4	22	2
2	5	4
52	52	15
54	109	1
7	69	4
68	113	4
4	5	4
106	107	4
98	102	1
75	75	10
96	96	4
105	106	3
69	70	7
40	41	5
102	102	7
1	117	1
29	52	1
10	11	8
82	86	4
6	6	8
27	28	10
4	20	2
125	126	3
113	116	7
108	108	12
10	12	1
31	104	3
131	131	7
43	45	1
72	75	3
91	97	3
74	74	9
85	104	4
12	32	3
110	110	3
70	105	2
32	37	1
56	124	3
41	42	3
97	97	9
46	127	2
91	91	6
46	46	8
1	1	9
51	52	4
83	116	2
42	43	4
128	128	14
2	4	3
131	132	1
130	130	8
44	44	8
76	76	9
59	60	2
5	10	2
40	113	4
3	3	1
8	8	5
99	100	6
47	47	4
127	129	2
132	132	2
11	12	1
89	89	7
59	59	4
10	10	1
60	60	3
87	89	5
112	113	3
27	53	2
23	23	6
13	16	1
58	59	13
96	110	1
113	113	14
102	105	3
75	90	7
13	23	5
8	11	1
125	125	2
98	99	1
108	118	3
72	72	6
39	39	11
43	44	13
18	45	2
57	57	2
72	76	2
28	95	7
2	2	9
19	26	6
118	118	10
79	126	1
66	66	10
51	51	5
107	107	8
19	19	2
12	13	3
53	53	11
33	33	12
47	48	1
45	46	5
109	109	15
82	119	4
67	128	3
100	100	2
6	11	1
30	30	11
71	78	2
54	54	16
94	95	4
101	101	7
45	126	6
43	43	10
60	107	2
48	48	6
23	24	4
103	103	3
44	45	9
67	71	8
78	103	1
106	110	2
40	40	8
32	106	3
68	69	9
9	10	4
119	120	3
8	118	3
114	114	6
82	82	3
50	50	13
26	26	8
99	101	3
11	11	6
88	88	10
41	41	16
71	121	4
68	68	5
31	31	2
7	118	1
20	20	13
117	118	9
90	90	5
74	77	2
29	30	2
56	56	10
9	9	1
112	112	8
18	32	4
42	66	1
14	23	1
2	22	3
98	98	4
72	73	2
67	72	2
3	118	2
2	107	3
28	29	1
121	121	5
124	133	2
13	14	4
88	90	1
78	99	8
3	56	3
83	83	6
124	124	4
39	40	1
20	51	2
105	107	8
127	127	5
18	18	4
107	108	3
77	77	12
4	4	3
47	92	4
47	93	3
101	102	4
21	22	2
68	123	4
62	63	2
32	59	2
29	29	7
55	78	1
126	128	3
45	45	4
58	62	1
46	70	3
118	125	2
106	106	9
24	24	6
5	5	11
118	120	3
71	71	6
49	49	6
7	17	1
67	67	12
44	128	3
7	8	4
69	94	2
42	42	8
104	109	2
70	70	3
40	96	5
78	81	1
85	85	2
13	13	6
104	105	1
21	21	4
66	84	3
66	67	2
79	124	2
15	16	2
7	16	6
48	89	1
16	16	4
56	77	3
119	128	2
21	24	9
71	98	3
69	125	1
71	72	2
83	86	2
12	122	2
3	5	2
58	58	7
41	55	4
41	128	1
82	128	3
76	101	3
20	113	2
32	32	3
124	125	2
19	40	1
109	110	8
104	104	5
67	131	1
111	111	4
13	15	2
63	63	6
31	111	2
78	100	2
115	115	11
42	45	3
111	113	1
18	22	1
99	99	6
119	119	2
25	25	4
55	55	6
7	7	3
65	65	2
122	122	4
34	115	4
3	14	2
42	44	1
77	89	3
83	84	8
66	70	2
28	28	2
8	103	1
38	61	2
22	22	1
4	21	5
87	87	4
79	79	11
6	10	2
50	53	4
83	87	3
1	124	2
83	88	2
33	98	3
12	12	9
52	108	5
18	59	5
46	126	3
100	117	3
100	101	3
110	111	1
80	81	4
58	61	2
85	121	1
5	32	2
81	87	1
2	130	2
114	115	1
92	92	2
23	29	1
15	15	2
21	115	1
3	107	2
74	75	3
89	90	2
123	123	2
67	118	1
30	57	2
34	58	1
82	93	3
15	23	1
85	86	1
5	11	1
70	104	3
27	27	4
102	104	2
111	112	1
26	81	2
82	83	4
18	41	2
64	64	4
77	100	1
94	94	3
68	71	1
79	80	2
22	23	1
39	45	2
105	105	6
63	64	3
82	116	3
26	57	1
49	132	1
3	6	1
46	129	1
3	115	1
66	128	1
18	19	1
15	59	2
71	89	3
92	93	1
109	123	1
60	61	1
126	126	3
103	126	3
80	96	1
56	62	1
31	105	2
16	18	1
61	61	1
2	21	2
39	105	1
73	73	4
69	132	3
69	69	4
5	34	1
39	124	2
75	76	1
119	127	3
48	121	2
38	38	3
41	72	1
41	129	1
70	99	1
68	75	1
15	31	1
133	133	2
8	102	1
82	87	2
10	20	1
70	125	1
42	128	2
127	131	1
33	34	3
95	96	2
26	118	1
129	130	2
29	31	1
7	11	1
14	15	2
73	74	2
115	116	2
39	81	1
56	121	1
80	80	3
78	78	2
2	3	1
72	131	2
98	103	1
38	39	1
95	117	1
48	68	2
127	128	1
19	41	1
6	38	1
105	110	1
70	87	1
116	116	1
70	71	1
86	86	1
98	108	3
9	20	1
17	44	1
47	66	1
55	110	1
27	96	1
97	132	1
24	60	2
97	131	1
6	56	1
95	95	1
1	105	1
45	119	1
98	122	1
130	131	1
52	53	1
5	14	1
88	91	1
19	20	1
57	123	1
82	127	1
1	87	1
25	26	1
3	8	1
91	96	1
0	127	1
