206	231	4
169	190	2
167	170	2
111	111	8
10	10	26
39	39	14
17	18	18
226	226	11
101	101	37
6	6	15
0	2	6
123	123	9
113	113	12
220	220	7
55	55	20
71	71	29
143	145	1
157	182	1
66	66	16
106	106	9
40	75	3
82	82	1
182	182	13
65	65	19
14	17	3
216	220	1
43	74	2
19	19	19
29	34	5
149	149	8
23	23	29
181	226	10
165	224	3
51	51	15
81	81	16
32	32	16
59	59	28
126	126	6
70	71	14
105	105	25
132	133	7
168	168	26
62	63	4
147	148	13
46	46	22
128	128	9
29	30	20
58	58	16
163	166	4
131	134	2
241	241	31
158	159	3
13	23	3
98	98	5
25	26	4
82	83	12
153	153	11
121	121	11
11	11	40
136	136	7
203	203	12
7	8	8
147	187	3
221	221	7
41	41	17
66	133	2
28	29	12
215	215	17
163	163	21
116	125	6
225	227	6
45	53	2
73	73	26
152	153	2
75	131	2
57	59	3
119	119	8
10	16	1
146	147	4
112	115	1
241	242	1
3	12	7
79	80	5
102	105	2
68	68	18
61	61	18
52	61	1
20	20	43
190	192	6
18	19	7
206	206	22
132	132	8
153	197	2
4	4	13
16	23	3
168	188	1
102	102	17
195	195	6
199	199	6
127	127	5
22	23	5
54	54	15
67	75	2
52	52	23
139	141	7
100	103	3
78	78	14
218	218	21
205	205	7
65	66	10
14	59	2
18	18	15
226	227	8
11	12	5
64	64	22
96	96	9
82	122	3
14	31	4
1	1	13
231	232	4
7	7	21
110	110	4
0	0	19
37	38	4
230	230	7
62	62	14
34	34	12
21	21	20
137	138	3
47	47	28
22	24	11
123	126	1
201	201	9
228	229	5
46	51	4
202	202	6
35	36	8
232	232	19
15	15	15
116	116	10
26	26	30
0	28	5
2	2	15
64	164	2
174	174	25
28	28	18
45	46	6
56	56	8
172	190	1
42	42	27
7	49	4
198	221	3
167	167	9
235	235	12
49	50	8
53	54	4
20	26	2
163	167	2
57	60	1
189	189	8
234	235	15
194	195	6
3	8	2
44	44	19
76	76	14
206	220	2
33	44	3
225	225	18
168	174	3
215	216	7
219	219	16
69	69	28
197	203	1
208	220	2
3	18	3
238	238	14
199	221	4
67	67	7
84	84	19
235	237	9
57	62	3
19	50	4
112	112	6
25	25	19
222	222	10
29	29	17
197	198	14
125	125	18
12	12	17
144	144	8
56	57	8
176	176	22
2	60	3
169	187	8
169	174	7
62	68	6
64	84	4
52	54	10
199	222	2
22	32	1
135	135	7
154	154	10
30	44	3
144	188	7
237	237	20
27	27	18
164	164	8
142	143	5
51	52	9
69	70	4
80	80	11
130	130	8
180	199	1
78	79	6
214	216	4
52	181	3
148	186	5
224	224	8
171	172	11
65	75	1
148	150	4
38	39	3
150	150	11
216	218	4
129	129	10
145	145	19
26	27	9
9	195	4
139	139	8
175	176	3
27	28	7
197	197	8
85	85	22
207	207	14
140	140	19
62	67	3
180	180	13
140	142	5
239	240	7
183	183	9
223	223	15
107	120	3
200	224	2
232	242	4
111	114	2
172	172	9
103	105	3
31	31	19
117	118	11
184	231	2
137	137	15
118	119	4
131	131	11
122	122	13
31	33	1
3	5	1
36	36	30
134	134	16
78	80	1
186	186	5
210	210	6
5	16	2
56	58	3
40	42	7
73	74	5
123	124	3
31	38	3
21	29	2
220	221	9
8	8	25
67	68	7
43	231	3
156	183	1
45	70	3
81	82	9
37	37	15
48	50	5
217	219	3
64	65	12
209	211	4
160	161	3
210	211	15
200	201	3
5	7	4
193	194	4
200	200	7
104	104	19
4	7	5
151	157	4
70	70	25
49	51	4
150	151	14
224	230	2
1	19	4
48	49	3
134	157	1
105	107	2
135	169	2
140	141	5
181	181	12
5	60	1
173	174	8
204	213	4
231	234	6
196	196	10
17	17	17
179	180	7
190	190	15
161	161	24
7	163	2
43	43	39
204	226	3
75	75	10
154	155	3
186	187	5
239	239	12
13	60	2
170	171	6
47	48	7
101	102	6
191	191	7
98	99	1
65	74	1
51	53	6
188	188	6
137	140	3
33	33	10
169	170	8
16	17	10
133	133	10
129	150	1
204	207	1
49	49	5
141	142	6
50	82	2
44	48	5
15	30	4
34	35	8
50	51	17
168	169	7
6	17	2
163	234	3
167	168	7
99	100	11
41	233	4
13	17	2
57	163	1
114	114	7
166	167	12
217	217	12
20	21	6
16	21	6
139	140	7
172	173	3
43	235	1
213	213	20
40	40	8
71	72	3
61	67	2
99	101	4
64	77	4
63	148	2
54	223	3
156	157	11
96	138	4
207	223	1
169	169	13
202	226	1
14	14	16
63	64	6
220	227	6
153	159	5
39	40	7
148	148	6
33	36	4
76	83	3
100	102	5
45	45	23
42	43	2
107	107	14
152	152	15
24	25	5
181	220	2
164	200	4
96	97	5
24	24	14
58	59	13
141	141	9
16	29	3
221	226	8
13	19	5
1	48	5
178	196	4
194	194	2
63	150	5
171	171	6
62	151	3
168	171	3
183	190	1
207	208	5
18	21	6
129	133	3
9	9	13
0	45	4
184	184	5
5	5	32
54	57	2
40	41	4
162	162	12
204	206	6
212	212	14
86	86	17
103	117	1
80	82	4
118	118	16
52	224	1
83	102	6
177	178	5
148	149	11
22	22	10
10	11	8
105	115	4
205	206	8
240	241	5
219	227	1
147	189	1
170	170	7
23	25	4
117	117	8
46	47	6
86	133	2
217	218	6
228	228	10
218	221	4
170	173	2
232	240	12
79	81	5
4	58	4
227	228	1
233	233	10
19	22	3
124	125	12
26	28	6
219	220	7
84	86	5
48	77	3
188	191	2
134	135	2
13	15	1
178	181	2
193	193	2
17	55	2
183	184	1
36	53	5
63	65	4
213	214	9
223	224	4
74	74	17
13	14	4
107	108	4
121	122	6
88	89	4
204	204	5
83	83	6
212	213	3
235	236	7
33	64	4
77	77	15
144	147	4
70	74	2
33	54	1
0	1	11
100	101	2
165	167	3
33	53	5
238	239	7
120	120	5
173	173	19
167	180	3
103	111	1
83	84	7
6	7	1
3	3	24
160	194	3
4	5	6
76	99	5
103	103	16
103	104	9
161	162	3
13	13	5
182	226	6
114	116	2
160	160	17
179	179	10
95	95	5
145	166	1
79	79	12
26	43	1
232	239	1
232	233	6
158	158	4
144	148	2
148	189	3
14	19	2
108	109	2
48	48	10
61	62	5
30	31	4
3	16	2
64	70	2
147	147	4
112	113	2
21	24	1
42	73	3
228	230	9
21	22	6
109	114	2
159	159	11
136	168	2
15	19	1
237	238	1
206	223	3
180	182	8
138	139	1
16	16	24
135	168	2
38	38	8
192	192	4
162	163	3
187	187	10
128	137	1
178	188	1
44	53	2
208	208	8
2	51	3
44	75	2
30	30	17
6	9	2
144	145	5
188	189	5
35	38	2
84	150	2
233	234	6
120	122	5
23	31	1
122	127	5
147	149	4
146	188	4
217	226	1
185	185	6
104	124	1
103	122	3
141	143	2
65	83	1
168	179	2
72	72	15
86	188	1
39	72	1
135	136	9
61	77	4
218	222	7
149	151	2
159	160	2
26	39	3
102	103	4
31	32	2
211	211	11
29	74	4
53	53	12
158	166	2
35	37	2
145	158	5
57	57	11
171	175	1
2	47	1
58	140	3
2	12	3
164	165	7
19	21	6
117	120	2
234	234	18
64	72	2
166	170	4
202	204	1
189	190	2
178	179	5
135	149	2
184	186	3
150	173	2
78	129	2
68	76	1
101	121	2
21	34	4
178	178	6
144	146	2
107	115	6
152	158	1
63	63	4
153	154	2
175	175	6
65	68	5
85	86	16
50	50	5
161	227	2
142	142	9
189	193	1
77	81	1
44	45	2
17	56	3
109	110	5
122	123	3
99	99	8
186	188	3
240	240	8
216	216	2
187	188	5
170	175	4
45	47	4
32	44	3
180	201	1
68	69	2
100	100	4
214	217	1
18	34	4
72	74	1
153	161	1
196	197	7
192	193	6
182	185	3
200	226	2
97	141	3
160	162	3
198	198	9
29	31	7
4	59	1
143	146	2
42	74	3
8	12	1
171	190	1
5	32	1
222	234	2
14	15	2
65	67	8
227	229	3
171	179	1
163	164	3
194	196	4
104	108	2
50	54	2
39	73	2
191	192	1
79	99	2
142	145	3
10	32	1
204	224	1
31	37	4
128	136	4
224	225	4
109	113	3
53	64	2
42	59	7
165	165	2
137	142	1
196	198	2
26	75	2
15	20	1
156	195	1
200	204	2
115	116	2
17	31	1
52	225	3
86	95	2
4	17	3
111	113	3
66	68	7
84	89	1
35	51	3
60	60	10
34	36	2
58	143	2
19	226	1
8	19	2
211	213	1
80	81	2
119	122	3
204	209	2
157	183	1
36	60	2
36	37	2
105	123	2
168	172	2
68	73	1
200	217	1
46	83	3
20	24	1
114	115	2
55	68	2
64	66	2
109	112	3
138	138	5
75	83	3
210	212	1
48	61	1
190	225	3
149	201	2
67	88	1
166	166	5
154	192	1
4	11	2
227	227	8
174	176	1
120	121	4
215	218	3
54	61	6
109	121	1
30	34	1
0	29	5
151	156	2
2	3	3
88	88	13
104	107	1
185	230	1
216	219	2
239	241	2
12	13	5
14	16	1
236	237	3
9	10	6
130	150	1
66	76	1
104	106	4
49	67	1
33	34	3
28	46	2
108	108	7
57	58	3
34	54	1
203	204	2
232	234	4
56	164	4
74	75	5
67	69	2
135	151	1
69	86	1
177	177	9
179	217	3
156	158	3
10	31	2
232	235	2
136	137	6
84	102	3
185	187	3
35	35	11
42	75	1
62	64	1
136	155	1
10	197	1
48	60	2
126	127	1
179	226	1
12	32	1
1	24	2
71	236	1
50	60	4
181	182	5
210	213	2
43	54	3
166	207	4
33	35	2
200	202	1
25	63	1
39	74	3
109	120	1
77	80	3
139	187	1
76	79	6
133	173	2
189	192	3
24	26	2
180	200	1
126	137	3
209	212	5
62	65	3
39	44	3
106	107	2
205	221	2
155	157	1
76	77	2
132	134	1
192	194	4
82	103	1
28	30	1
52	53	7
21	23	5
109	118	1
143	143	3
46	61	1
179	181	2
205	220	1
129	134	1
199	200	1
60	62	3
22	29	3
84	85	3
178	180	1
198	199	6
201	205	1
139	142	2
237	239	3
183	186	1
169	179	1
56	63	2
242	242	6
113	118	5
155	155	4
98	114	3
74	76	1
155	198	4
167	199	1
76	80	1
57	140	1
142	198	4
151	151	2
14	23	3
106	122	4
50	52	3
0	3	2
163	200	2
183	229	1
12	16	4
127	129	2
43	45	1
54	55	2
197	221	2
31	34	2
39	42	2
181	221	2
61	75	1
20	22	3
37	58	1
240	242	2
29	45	2
66	82	1
29	71	3
114	119	1
220	226	2
231	231	1
113	114	2
209	209	2
89	130	1
13	22	2
23	24	1
200	203	2
119	125	2
1	2	5
12	31	1
84	100	1
201	202	6
130	133	3
173	187	4
64	140	2
9	198	2
202	203	3
108	119	4
171	180	2
238	241	2
40	84	1
46	71	1
106	121	1
11	15	2
191	202	1
166	224	1
20	44	3
133	152	2
45	60	1
44	71	2
15	16	4
157	157	3
137	139	2
111	137	2
188	201	2
165	166	3
59	60	4
53	73	1
133	134	4
144	150	2
204	222	3
69	89	3
149	150	1
75	76	1
106	124	1
3	4	3
127	131	1
204	205	3
193	229	1
18	49	1
56	162	1
11	23	2
18	47	2
3	24	2
168	187	1
89	89	3
80	125	1
121	125	1
128	134	1
21	153	1
89	135	2
205	222	2
91	91	2
109	109	3
129	137	1
111	172	1
207	209	2
162	224	1
181	186	1
104	105	5
63	85	1
156	156	1
15	60	3
229	229	1
58	61	2
230	231	2
9	156	1
9	153	1
88	152	2
121	127	1
42	44	1
52	55	1
39	71	1
162	226	1
44	60	1
74	84	1
191	221	1
40	44	1
72	73	1
158	163	1
32	34	1
208	209	1
95	130	2
38	74	2
55	223	3
47	50	3
12	14	1
23	29	1
215	228	2
107	109	2
145	147	1
145	146	2
195	196	2
74	161	1
17	34	3
41	43	1
33	38	6
171	174	1
65	82	1
75	77	2
214	214	4
21	30	2
26	30	1
205	215	2
11	33	3
129	152	2
136	150	1
108	111	1
50	66	1
105	106	1
127	139	1
169	175	1
103	118	1
168	170	1
4	14	2
223	229	1
203	207	1
51	54	2
129	132	2
16	58	2
10	29	1
100	104	1
11	14	2
200	225	1
211	212	2
203	205	1
41	42	1
10	36	1
41	74	1
68	83	1
117	123	2
218	219	1
184	188	4
53	55	2
150	172	1
80	83	2
231	233	2
43	44	1
67	72	1
239	242	3
11	16	1
75	236	2
155	163	2
152	155	1
4	60	2
162	225	2
154	158	3
167	179	2
78	81	1
185	229	1
96	100	2
86	87	1
157	191	1
44	61	2
119	123	1
157	158	2
26	74	1
37	146	3
184	185	1
115	117	1
49	77	1
68	88	2
212	215	1
97	98	1
29	96	1
102	104	1
55	56	1
95	131	1
31	36	3
1	29	1
204	212	1
162	227	1
170	177	1
95	129	1
55	164	2
115	139	2
8	13	1
66	67	3
1	14	1
210	216	1
153	156	1
205	216	1
139	152	1
37	53	2
199	224	1
53	163	1
173	184	2
232	241	2
154	193	1
29	75	1
166	222	1
157	184	1
4	18	1
97	97	1
143	144	1
152	160	1
190	228	1
183	226	1
99	105	2
6	14	1
182	183	3
89	100	1
127	132	1
39	233	1
144	149	2
180	187	1
143	147	1
95	116	1
108	120	1
188	193	1
5	6	2
185	194	1
206	224	1
152	172	1
124	124	1
68	106	1
15	17	1
78	91	1
229	230	1
105	121	1
55	59	1
68	70	1
61	66	1
139	146	1
68	75	1
52	165	1
43	232	1
115	118	1
62	150	1
91	123	2
127	128	1
116	139	2
190	191	1
44	73	1
115	170	1
155	183	1
206	221	2
67	134	2
11	20	1
115	138	1
100	131	1
137	143	1
19	20	1
204	234	1
64	189	2
56	60	1
123	128	1
206	228	2
100	130	1
48	52	1
185	189	1
82	84	1
39	59	1
55	60	1
121	126	1
169	171	1
104	115	1
210	221	1
15	42	1
1	60	1
74	86	1
223	225	1
44	51	1
218	226	1
84	128	1
50	62	1
104	126	1
176	177	1
64	67	1
142	186	1
165	182	1
216	217	1
215	219	1
219	225	1
14	33	1
146	149	1
76	97	1
131	132	1
