193	194	5
136	136	2
157	157	8
3	4	6
49	49	13
115	115	12
175	175	8
143	143	2
80	80	5
100	101	1
9	12	1
179	179	4
137	137	14
194	195	7
188	188	12
194	194	4
44	44	6
125	125	5
119	119	6
80	124	2
46	46	14
133	133	14
33	34	5
28	28	4
134	135	8
162	164	3
53	53	9
74	75	4
29	30	6
0	1	3
164	176	2
35	35	7
193	193	19
172	172	6
101	101	10
170	170	8
158	158	5
33	39	2
15	16	4
128	128	9
149	149	12
179	180	7
132	134	2
85	85	1
145	145	6
50	50	9
55	55	3
151	158	1
113	122	1
134	134	23
30	30	8
121	122	4
192	192	5
95	95	3
36	37	7
3	3	7
134	153	1
118	118	7
38	39	4
0	0	2
156	156	8
106	123	2
12	16	1
176	176	15
170	179	3
15	15	9
168	168	11
26	26	3
148	192	1
102	103	5
177	177	8
172	173	8
38	68	6
140	140	12
99	99	6
139	139	9
9	9	9
162	162	3
152	172	5
150	150	11
174	190	1
107	120	3
178	180	7
136	138	1
15	182	1
147	149	2
110	111	3
117	117	2
114	114	14
166	166	2
105	105	6
163	163	3
160	189	1
12	14	2
58	58	11
67	67	2
148	149	1
13	14	6
30	31	3
154	154	8
155	155	6
9	10	3
121	121	8
58	59	6
22	22	3
1	1	11
47	48	4
122	122	11
54	55	3
24	24	18
7	26	1
7	7	2
20	22	3
59	59	7
135	136	5
11	15	1
158	159	3
137	153	1
47	47	8
36	36	10
45	80	1
180	180	5
116	116	9
107	107	6
54	54	11
57	57	10
113	113	1
150	160	1
138	138	10
89	90	4
82	82	6
159	160	1
169	177	3
137	138	1
100	100	7
29	29	7
124	184	2
171	171	5
185	185	9
1	30	4
196	196	8
129	129	7
81	82	2
2	2	4
106	106	6
148	160	1
131	133	2
94	94	8
112	113	6
14	15	5
43	43	9
191	192	2
174	192	2
123	123	7
161	161	5
10	10	8
134	136	1
152	152	5
39	39	12
155	156	2
111	111	9
113	115	3
125	128	3
106	115	1
187	188	7
147	147	11
183	184	1
40	40	7
156	157	1
163	164	2
105	106	6
169	170	2
130	131	1
187	195	3
23	24	7
32	32	15
178	179	2
131	138	5
166	167	3
178	178	4
120	122	3
109	109	1
195	195	4
130	130	8
111	112	6
41	41	6
5	5	5
72	72	2
4	5	8
27	27	5
98	99	3
89	89	2
132	132	5
115	116	4
150	194	1
67	77	3
28	30	1
147	193	1
48	48	12
16	16	7
186	186	9
38	38	21
182	182	15
165	181	1
80	82	2
151	151	9
160	161	8
151	186	1
42	42	10
180	191	1
183	183	9
25	25	6
11	11	14
140	156	1
197	197	6
14	14	4
65	66	1
20	20	1
167	169	2
126	126	10
170	171	8
190	191	8
129	130	3
176	177	2
185	186	1
50	51	7
160	160	11
34	34	8
63	73	11
45	45	5
19	21	4
143	157	3
48	49	1
154	157	2
75	75	2
148	148	5
13	55	5
41	57	2
179	182	3
133	136	2
93	93	3
77	77	4
66	66	3
131	131	2
7	69	1
37	38	2
196	197	3
164	164	4
79	79	4
49	50	2
174	174	1
124	124	11
189	194	2
154	155	1
172	177	1
177	178	1
139	140	4
33	33	9
152	153	3
57	188	1
189	189	5
30	100	6
100	125	2
28	29	2
190	193	1
63	63	2
142	142	9
23	23	5
76	77	1
175	176	3
112	112	1
172	192	2
186	187	4
40	41	4
31	31	8
172	182	2
24	25	5
151	157	1
190	190	3
44	56	1
165	165	1
61	62	1
42	59	1
153	153	3
176	192	1
167	197	2
21	24	5
31	193	1
93	94	4
42	45	1
171	177	2
135	135	6
117	120	1
67	73	5
64	64	3
105	142	2
26	27	2
132	149	1
87	87	6
37	37	4
169	169	10
144	144	2
155	157	3
156	160	2
25	40	3
51	51	7
149	150	2
159	166	1
98	98	3
146	147	4
69	69	2
50	52	1
11	185	1
120	120	2
84	84	2
96	96	4
171	183	1
187	187	6
33	37	1
52	52	2
157	159	2
123	124	4
114	120	4
177	193	2
146	146	3
73	73	1
127	127	7
48	55	1
116	119	3
113	114	1
161	162	1
62	62	1
11	12	1
102	102	5
56	56	5
186	188	1
137	139	2
52	53	6
54	62	3
35	36	3
22	27	2
132	137	2
115	180	2
120	121	2
17	24	2
69	70	2
191	191	6
110	110	2
31	32	2
71	71	4
183	185	1
104	104	2
86	86	3
167	168	1
29	32	1
117	135	1
107	108	1
9	44	4
110	112	2
85	88	1
163	165	1
27	43	2
171	188	4
85	86	1
136	137	3
18	18	4
53	54	3
106	110	1
83	86	2
0	5	2
4	45	1
62	63	1
18	62	2
86	87	3
30	54	1
33	43	1
68	68	1
12	12	4
114	115	1
168	169	2
149	156	2
19	19	3
141	141	4
106	107	2
13	13	5
118	135	1
179	191	1
119	136	1
159	159	5
33	36	2
184	184	6
31	38	2
8	9	1
167	167	5
131	139	2
154	172	1
173	174	2
182	183	1
94	101	1
115	122	2
171	172	1
116	117	1
165	182	1
180	197	1
132	133	1
4	37	1
171	196	2
122	124	2
11	23	1
4	4	2
27	28	2
97	99	1
69	81	1
165	166	1
108	109	2
195	196	2
169	182	1
7	8	1
80	81	2
173	173	1
8	8	4
20	29	1
129	138	1
10	45	1
75	77	1
37	39	1
179	188	1
88	88	5
63	64	1
181	181	2
44	45	1
18	19	1
59	60	1
20	23	1
1	2	1
132	153	1
99	101	1
143	144	1
115	148	2
173	176	1
45	46	1
38	40	1
13	38	1
44	53	2
168	183	1
6	6	2
58	66	1
101	140	1
17	20	1
129	137	1
28	188	1
86	88	1
22	24	1
59	62	1
119	120	1
9	25	1
18	27	1
13	15	1
59	69	1
153	154	2
1	3	1
61	61	1
32	193	1
32	57	1
17	17	1
2	20	1
45	47	1
150	152	1
147	148	1
146	149	1
141	168	1
158	173	2
117	136	1
122	123	1
58	81	1
135	143	1
173	175	1
16	17	1
