53	54	14
79	80	3
11	11	7
35	78	4
7	7	14
20	20	5
19	79	3
87	87	17
68	69	3
4	4	16
2	2	9
24	24	18
62	62	6
78	80	8
31	31	6
76	76	11
13	13	8
17	31	5
85	86	1
81	81	12
88	88	5
47	47	26
80	80	16
3	29	3
3	3	9
19	19	8
79	79	15
10	10	7
23	72	5
85	85	7
68	68	13
82	82	6
57	57	8
72	72	8
5	5	10
84	84	6
15	15	10
20	26	2
77	78	3
60	61	4
61	84	2
54	54	15
27	31	7
47	49	1
18	84	5
52	53	6
67	85	1
21	21	14
12	12	15
59	59	2
14	80	7
17	17	8
59	60	1
8	79	8
59	73	4
86	87	4
21	25	2
50	55	3
70	70	3
78	78	3
63	63	11
62	71	2
53	53	2
47	48	5
66	66	19
56	56	7
49	72	9
75	84	3
59	61	5
26	26	7
25	25	6
75	75	17
49	50	3
8	8	1
67	67	14
89	89	15
34	34	6
58	71	2
5	6	9
49	74	5
65	79	2
0	0	9
9	9	2
23	27	6
61	75	9
48	51	3
48	65	2
17	22	2
30	30	3
86	86	7
14	14	8
50	50	16
63	65	4
51	51	11
64	70	3
6	20	6
71	71	13
71	82	1
84	85	3
5	8	2
74	74	12
0	69	2
60	60	4
69	69	9
57	72	1
46	77	1
12	13	2
11	66	2
51	81	1
31	77	1
52	54	3
8	22	3
14	19	1
82	83	5
6	6	6
11	85	2
7	9	3
20	27	3
9	10	10
21	22	5
56	60	2
57	88	3
35	35	5
72	73	2
77	77	4
52	52	5
46	46	3
19	31	3
15	16	3
56	57	1
5	9	3
25	26	13
58	58	9
64	64	3
51	62	2
65	65	4
53	71	2
73	73	8
22	67	2
59	62	1
13	54	1
7	13	1
0	1	2
29	30	2
17	60	2
61	62	2
71	72	2
54	88	2
27	28	3
15	18	1
51	52	3
34	64	5
24	72	1
64	65	8
55	55	8
18	75	2
26	27	1
54	75	4
8	13	3
16	74	2
10	13	1
46	55	1
60	62	1
8	27	1
48	49	3
13	46	1
27	27	5
75	78	3
72	80	5
62	63	1
57	85	2
63	66	3
55	75	1
49	63	1
23	23	4
55	56	1
34	35	2
73	74	2
58	81	7
52	71	3
6	76	3
58	59	1
57	75	1
70	81	3
61	61	4
57	74	3
16	70	3
74	75	5
7	60	2
57	67	3
56	70	2
50	81	1
83	83	4
29	29	2
7	49	1
54	57	1
19	21	1
27	56	2
59	63	2
23	24	4
74	76	1
4	31	4
48	74	1
64	76	2
59	83	1
26	32	1
61	81	3
76	80	1
17	20	1
23	25	2
81	83	5
58	70	2
19	24	1
5	7	1
7	8	1
13	14	2
61	63	1
30	84	2
48	84	3
77	87	1
71	83	1
56	67	1
70	71	1
1	1	3
75	77	1
50	51	1
61	82	2
53	75	1
83	84	1
27	55	1
0	57	1
31	69	1
61	64	3
6	33	1
57	89	1
76	77	1
6	35	3
77	79	1
19	20	1
49	49	3
17	76	1
90	90	1
76	79	1
72	84	1
28	28	1
71	81	1
60	77	2
10	12	1
17	19	2
34	77	1
9	28	1
73	82	1
60	63	1
6	17	1
48	60	1
67	68	3
6	65	2
62	65	1
53	73	1
8	23	1
5	15	1
4	25	1
