175	175	1
24	24	10
22	22	5
133	141	1
156	156	3
123	124	4
148	148	13
51	84	2
133	133	5
14	14	1
43	43	4
21	30	2
167	167	9
138	138	4
0	0	11
102	102	3
161	161	5
52	61	1
32	32	9
30	31	4
19	22	1
106	109	1
123	123	6
15	19	3
30	30	4
27	27	2
20	20	2
18	19	2
8	9	5
139	139	5
155	156	3
136	174	2
140	140	3
38	38	6
94	95	4
45	45	10
8	8	6
173	173	4
171	173	2
4	8	1
4	4	9
137	137	5
84	85	9
180	180	2
42	42	7
66	67	2
39	40	12
58	58	7
5	7	1
53	133	3
11	11	7
111	124	1
23	23	13
110	114	1
37	37	4
152	152	6
99	99	5
3	14	2
54	54	2
28	28	6
112	112	7
3	3	6
56	56	3
52	136	2
55	56	7
158	159	5
136	136	2
142	142	8
22	23	5
90	90	3
15	15	8
18	33	1
62	132	1
67	74	5
52	75	2
162	173	1
39	39	5
41	42	2
24	26	1
171	172	2
77	78	4
62	73	1
124	125	8
9	10	1
36	36	3
26	43	4
25	25	10
154	155	2
18	18	8
3	7	5
2	2	2
9	30	2
103	169	1
143	144	3
7	7	5
113	169	2
24	25	3
3	4	2
100	100	2
128	158	4
5	43	2
170	172	1
76	76	2
61	61	2
178	178	5
92	93	4
110	124	2
11	16	1
82	82	10
118	180	2
11	13	3
127	127	6
10	133	1
141	142	2
33	35	9
77	77	5
19	20	2
26	26	4
103	107	1
43	44	2
134	134	3
66	66	4
3	9	1
111	111	1
86	102	2
145	155	2
63	65	3
89	107	1
13	13	1
37	38	3
35	112	1
122	122	2
112	131	1
104	105	1
129	129	7
10	10	1
108	108	5
165	166	1
4	36	5
149	149	2
171	171	3
124	150	2
113	113	1
106	110	3
31	33	2
150	150	3
53	54	6
75	75	4
6	6	1
82	85	3
6	7	5
73	74	6
27	28	2
6	40	1
44	169	1
22	150	2
18	23	1
145	145	1
51	144	2
95	95	3
74	74	2
80	80	2
109	109	2
11	44	2
17	17	8
97	119	1
85	85	2
52	53	2
62	62	3
34	34	5
159	174	1
66	103	1
107	109	2
10	11	3
26	27	2
5	19	2
143	143	4
154	154	1
7	8	2
86	154	1
32	33	3
41	126	5
10	37	2
72	72	6
144	144	2
53	53	1
71	72	2
4	5	3
84	86	2
131	132	2
87	115	2
172	172	3
106	106	2
16	19	3
135	144	1
41	41	1
16	18	1
129	147	3
71	76	1
128	128	3
54	57	4
107	108	2
96	96	3
2	3	2
135	136	1
10	18	2
53	56	3
147	147	1
2	14	2
81	81	3
169	174	3
52	63	3
105	161	4
161	162	3
9	9	2
67	67	1
2	36	2
5	5	3
168	168	2
35	35	1
105	106	3
88	98	4
9	11	3
173	174	3
40	40	5
57	57	3
172	173	5
138	141	1
135	135	2
130	130	1
176	176	1
11	45	1
111	112	3
84	84	2
62	63	4
164	167	1
97	97	2
50	128	2
150	152	3
159	161	1
175	178	2
132	132	1
130	131	1
86	86	2
158	158	2
125	125	2
99	175	2
169	178	1
68	68	2
12	12	3
164	164	1
73	73	1
71	71	2
131	131	1
15	17	1
12	13	2
117	118	2
104	106	1
179	179	2
60	60	1
160	160	2
98	98	1
106	158	1
93	94	2
141	141	3
21	21	1
93	134	1
12	14	1
67	134	1
10	13	2
2	11	2
52	52	1
124	124	3
76	77	1
93	93	1
23	24	1
72	73	3
115	115	1
41	43	2
34	35	1
123	139	1
31	31	2
15	21	1
59	147	1
130	160	1
94	94	1
62	99	1
50	78	1
110	111	1
50	50	1
15	29	1
4	9	1
165	165	1
16	16	1
65	65	1
6	26	1
91	93	1
2	4	1
63	67	1
13	18	1
156	157	1
67	68	1
162	167	1
55	59	2
45	111	1
119	119	1
