20	32	8
132	132	31
124	125	10
107	107	9
1	1	16
117	117	20
17	17	21
82	82	1
115	115	19
72	72	15
92	92	10
132	133	5
81	82	6
98	99	2
82	85	5
113	113	22
120	121	9
4	5	8
23	24	2
137	137	21
85	85	11
20	37	5
102	102	24
140	140	21
93	93	11
73	73	23
130	130	27
89	89	19
12	24	5
95	95	26
16	16	9
120	120	26
19	19	9
71	72	3
26	27	14
33	33	20
35	35	17
13	14	9
134	134	31
137	138	8
80	80	17
120	122	10
127	129	9
99	101	2
25	26	12
110	110	19
122	123	8
99	99	21
74	74	15
97	123	1
94	94	9
97	97	3
75	75	8
4	4	9
29	29	17
11	11	4
102	123	1
131	132	10
0	2	10
24	25	2
117	121	4
118	119	16
135	135	19
6	7	4
21	21	15
103	111	2
137	139	2
133	133	19
115	119	4
19	21	2
114	114	19
118	120	6
123	123	21
126	126	27
106	107	5
35	36	12
101	102	6
1	5	4
28	29	13
23	23	8
7	7	15
112	112	17
34	34	10
33	134	2
3	3	12
73	74	4
116	116	17
102	103	4
15	133	4
104	104	5
5	6	20
100	101	7
81	85	4
86	87	4
124	124	22
92	100	1
128	129	9
6	22	2
109	112	2
129	130	6
85	93	4
103	120	3
18	18	8
104	109	7
124	127	3
108	108	9
6	27	1
129	129	16
89	90	9
131	131	27
25	25	9
20	35	4
22	22	21
16	21	2
101	101	15
133	134	4
34	127	3
125	127	8
119	120	12
87	88	3
132	134	4
122	122	34
136	138	11
1	4	2
104	108	1
109	109	6
127	127	9
77	77	18
19	20	8
33	35	1
9	12	1
96	100	4
91	92	1
28	28	5
20	20	10
81	81	16
13	13	10
138	138	11
76	76	19
15	15	18
74	75	22
84	84	5
118	118	17
125	125	19
132	135	4
110	111	7
119	119	12
14	14	27
8	8	8
134	135	19
71	79	2
22	28	4
87	87	15
71	98	3
26	26	12
14	22	1
121	122	2
0	0	2
100	100	25
27	28	5
121	121	25
74	76	3
103	103	20
27	27	12
92	124	1
2	2	12
104	105	6
75	77	1
6	6	10
138	139	11
6	36	3
27	38	1
35	127	2
127	128	14
22	23	5
95	96	1
116	117	7
90	94	7
38	38	3
111	111	14
75	76	7
136	136	17
71	97	3
9	10	1
96	96	8
25	31	1
0	7	3
73	75	8
9	9	5
32	34	7
5	5	18
114	125	2
8	9	6
83	84	5
87	92	2
139	139	16
37	37	14
117	119	8
5	13	6
12	12	13
3	4	8
88	117	3
18	19	3
108	109	2
17	121	1
14	32	9
90	90	6
21	22	5
97	124	1
81	116	3
131	138	6
36	37	1
31	32	10
90	92	1
34	35	3
128	128	6
112	114	2
105	105	8
91	94	2
24	26	2
78	78	11
0	5	3
31	34	3
90	95	4
97	98	4
71	71	3
91	123	2
105	107	7
107	108	7
125	126	5
99	100	1
98	98	5
3	5	5
35	37	2
116	123	1
117	118	5
12	13	5
101	123	3
130	131	7
71	74	6
113	114	5
5	115	1
86	86	10
88	88	11
92	93	5
25	27	8
131	133	3
32	32	6
113	121	2
3	7	3
134	137	2
135	136	7
8	11	1
83	83	1
96	98	1
36	36	5
139	140	3
79	79	1
114	120	2
15	132	2
81	83	1
30	30	5
10	10	5
91	96	1
86	92	3
2	3	1
136	137	7
9	11	4
126	127	3
72	117	1
74	86	1
88	92	2
27	29	1
0	1	2
90	118	1
6	125	1
102	110	5
106	106	3
84	85	1
12	25	2
29	31	1
4	6	2
7	9	2
111	112	5
33	34	4
130	140	3
5	14	1
91	124	3
78	79	4
97	108	4
76	106	1
80	116	2
87	91	1
112	113	1
20	21	2
26	31	1
89	127	1
71	75	1
11	12	5
7	8	2
76	108	1
35	132	1
79	80	2
115	116	1
14	15	2
126	129	2
2	4	1
91	91	6
15	16	1
37	38	2
102	104	1
95	123	1
90	93	1
72	73	6
117	120	1
103	104	1
17	20	1
116	121	1
110	114	1
76	77	1
22	27	1
96	101	2
109	121	2
87	95	1
6	18	1
89	91	1
101	103	2
138	140	1
93	96	2
123	125	2
73	88	2
128	130	2
3	21	1
12	21	1
10	12	1
104	107	1
20	34	1
114	115	4
76	78	1
1	2	1
11	24	1
92	94	1
90	117	3
88	89	2
109	122	1
113	120	2
21	98	1
22	25	1
127	138	1
2	13	2
24	24	1
124	126	3
26	133	2
10	22	1
17	18	2
85	86	1
135	137	2
86	93	1
123	124	3
87	118	1
15	21	1
87	117	1
22	26	1
32	33	2
14	24	2
31	31	1
90	91	1
4	14	1
141	141	1
29	30	1
33	37	1
38	79	1
116	118	1
