45	78	2
11	11	4
158	158	3
151	152	2
101	102	2
16	16	9
80	80	11
133	133	7
7	7	11
98	98	11
22	62	3
118	118	11
79	79	6
17	19	2
15	168	4
2	166	3
130	130	4
95	100	2
119	119	9
103	103	5
8	73	4
13	169	3
33	33	3
65	65	8
69	69	2
5	8	2
161	161	3
134	157	1
13	13	6
138	149	6
95	97	2
53	53	10
134	136	1
14	27	2
160	160	1
15	15	5
143	143	2
132	132	6
94	94	5
24	25	5
57	57	6
12	82	3
12	16	2
50	168	2
49	165	2
105	105	7
126	131	3
0	0	4
63	63	6
157	157	3
26	26	15
40	40	14
107	110	7
73	85	2
71	74	1
170	170	5
111	111	9
88	88	9
88	89	2
13	14	3
89	89	6
92	93	8
156	162	4
16	53	1
10	79	2
87	88	2
96	97	7
45	147	4
143	144	2
18	18	5
12	12	4
107	108	10
13	15	2
100	101	1
169	170	5
68	68	5
64	66	4
11	13	1
106	107	3
37	37	14
52	52	9
129	129	4
38	38	2
10	80	2
134	134	9
51	51	4
93	93	8
11	12	3
2	2	10
123	123	4
150	151	1
83	83	13
167	167	7
6	163	2
17	55	1
50	50	9
46	46	8
76	76	8
71	71	2
69	108	3
81	83	2
68	70	5
102	102	5
163	163	8
21	77	5
120	120	11
93	128	1
34	34	6
83	84	1
121	166	4
110	110	6
152	152	3
75	104	3
159	160	1
28	56	2
47	47	4
2	5	2
9	9	2
81	82	3
39	39	3
125	155	3
95	95	4
148	148	2
108	108	7
114	114	3
53	167	2
20	24	3
133	169	2
35	35	6
139	150	1
91	92	5
121	132	1
10	11	2
9	137	1
106	106	9
110	156	4
20	20	8
95	118	1
20	23	2
138	140	5
114	149	2
151	151	3
6	6	5
58	99	1
27	27	2
67	67	10
124	124	4
139	139	2
69	70	5
70	71	5
9	73	3
91	111	2
97	97	6
133	157	5
96	96	8
18	19	3
44	44	4
27	148	4
131	131	2
140	140	4
116	117	4
154	154	3
155	155	3
25	56	4
123	160	1
37	53	4
153	153	7
63	85	1
39	40	2
138	138	5
19	19	3
128	128	4
139	140	4
49	49	8
144	144	12
22	22	9
4	4	11
5	164	1
66	66	4
152	160	4
56	56	5
71	85	2
100	100	13
1	1	6
153	156	5
100	147	2
1	4	1
151	159	1
169	169	2
14	16	1
10	10	8
0	1	5
91	96	5
56	90	2
104	104	7
24	58	3
73	103	1
122	122	3
13	17	6
74	74	6
73	73	3
165	165	1
17	17	4
8	86	3
28	28	3
8	9	4
125	125	3
87	87	6
12	14	2
25	58	1
91	91	14
149	149	3
16	27	1
48	49	4
117	117	4
47	48	6
76	81	1
138	139	3
162	166	3
3	28	1
62	74	1
8	72	1
86	96	2
25	47	4
105	152	1
8	53	4
16	46	1
65	112	2
90	91	1
101	105	1
17	27	4
115	115	6
43	43	10
94	103	1
1	9	5
105	148	1
86	115	2
79	82	3
8	50	3
121	122	2
90	129	4
97	98	3
81	109	1
17	53	2
123	130	3
6	7	2
84	84	5
53	55	5
58	58	2
24	47	3
133	135	2
21	21	7
93	96	1
21	22	5
152	154	2
158	159	1
1	166	3
76	77	1
20	105	1
130	168	2
73	98	2
17	18	1
108	109	4
141	141	3
144	147	2
86	87	3
8	10	6
135	135	8
26	27	5
80	81	1
16	18	1
73	112	2
116	116	3
128	166	4
164	164	5
118	120	2
74	76	7
44	45	2
103	104	3
138	141	5
36	36	4
166	166	8
6	150	3
107	107	2
89	126	1
23	23	7
94	95	8
153	160	1
156	156	3
140	141	5
15	16	2
22	23	1
105	106	1
98	102	1
137	138	1
126	126	4
25	25	5
24	124	1
103	124	3
42	42	9
3	76	3
98	114	6
77	79	2
40	45	3
85	85	3
51	85	2
109	109	2
82	82	2
113	113	2
20	143	3
24	24	4
44	46	2
163	169	2
135	150	1
125	132	2
57	85	3
48	48	1
151	154	2
136	136	2
134	152	2
140	158	2
99	100	5
112	113	4
145	145	7
89	129	2
20	78	5
54	54	2
2	167	1
145	146	1
3	9	3
90	90	3
168	169	1
124	156	2
101	152	1
70	70	5
130	164	2
34	35	1
159	169	2
8	13	1
57	74	3
65	67	1
101	104	2
2	36	1
19	23	2
106	108	2
3	11	3
14	17	1
12	26	2
162	162	4
2	3	2
56	64	2
21	23	3
54	55	1
33	34	1
58	115	1
50	51	5
129	130	2
100	148	2
106	111	4
96	99	3
8	167	2
92	94	2
142	143	1
106	166	1
24	39	5
65	149	1
133	134	1
36	93	1
58	96	4
35	147	1
160	166	1
154	165	1
2	41	1
78	80	1
67	70	2
142	142	1
24	100	2
45	46	1
127	127	1
159	166	2
96	116	1
57	58	1
0	26	1
87	115	1
107	146	2
89	150	2
91	113	4
78	78	1
163	168	3
118	119	1
63	71	1
66	146	1
75	81	1
98	99	3
14	14	3
79	80	2
152	153	1
49	52	1
3	3	3
126	127	2
9	150	1
150	150	2
61	62	1
55	55	5
75	75	1
46	49	1
55	56	2
53	166	1
27	48	2
5	7	2
109	110	1
101	148	2
113	114	3
92	92	1
122	123	2
49	50	1
93	94	1
161	165	2
123	132	2
114	118	1
57	150	1
156	160	1
127	128	1
64	148	1
1	2	2
19	50	1
120	121	1
72	86	1
8	8	1
73	74	2
76	78	1
44	149	1
101	101	2
40	58	1
140	145	2
58	97	2
72	83	1
38	41	1
129	158	2
99	103	1
14	15	1
20	146	1
137	137	2
91	112	1
159	159	1
5	72	1
88	154	1
124	148	1
86	86	2
141	142	1
70	101	1
97	119	1
77	77	1
92	128	3
61	61	1
164	166	2
115	125	1
62	77	1
58	63	1
48	51	1
3	5	1
163	164	1
52	57	2
97	99	1
45	45	1
116	124	1
20	21	1
147	147	1
86	116	1
38	39	1
25	27	1
41	45	1
5	6	1
92	112	1
