104	105	7
122	122	15
104	104	13
86	86	7
87	108	5
21	21	7
109	109	14
102	102	5
125	125	13
125	133	4
34	36	6
20	20	7
1	1	4
13	13	4
55	55	4
95	99	2
111	112	6
6	6	6
126	126	13
19	19	9
24	24	7
88	97	4
56	75	7
73	73	11
53	53	11
134	134	14
103	103	6
122	123	3
75	97	2
13	18	7
121	122	3
82	82	15
131	131	4
100	102	1
123	130	6
107	112	2
117	117	12
3	4	9
9	9	12
26	37	2
127	128	3
138	138	13
95	95	14
119	119	9
38	38	10
60	61	5
108	109	5
68	84	8
77	77	9
31	31	15
120	134	2
29	29	15
87	89	1
100	101	2
121	121	25
51	51	14
71	71	6
141	141	10
56	56	6
92	92	4
68	68	6
123	123	12
120	121	1
70	70	3
56	74	1
81	105	4
139	139	15
129	129	9
80	80	13
30	30	11
116	116	9
33	35	1
132	137	3
14	14	5
13	135	1
94	94	8
110	110	12
11	38	1
89	97	2
28	124	1
39	39	7
114	130	3
40	40	3
33	34	10
105	105	3
88	89	1
27	27	8
99	99	6
96	96	7
71	105	2
18	18	12
118	118	12
75	75	7
73	86	7
34	34	8
73	109	3
127	127	11
27	30	3
111	111	2
108	108	4
81	81	3
127	129	1
120	120	18
50	103	5
85	85	3
23	23	5
140	140	17
39	40	3
25	25	13
65	70	5
51	52	8
135	139	2
10	25	5
43	142	3
22	22	8
133	137	4
78	79	5
13	14	1
35	35	19
48	119	2
55	56	4
93	94	6
88	92	3
23	34	1
63	136	2
89	89	9
66	93	1
0	1	8
76	77	2
131	133	3
49	49	6
70	71	5
106	112	4
84	84	5
118	131	4
50	50	11
14	15	1
118	119	9
105	106	3
144	144	3
38	39	3
131	132	3
134	135	3
60	60	11
65	65	7
28	28	5
135	135	12
56	73	1
86	116	4
57	58	8
36	36	12
92	93	3
93	93	20
108	110	1
137	138	4
71	104	2
110	111	7
82	106	3
41	41	7
116	136	3
88	140	3
69	91	9
84	85	2
58	59	5
5	5	17
129	130	7
126	127	5
116	117	3
135	136	1
64	64	7
62	62	6
12	12	2
1	20	2
83	105	3
70	75	1
82	83	2
6	11	3
72	72	8
117	136	6
124	124	26
11	20	2
72	84	2
119	125	2
49	53	7
62	63	2
0	4	2
128	128	7
106	106	4
15	15	18
41	42	3
11	37	2
57	97	3
32	32	9
57	57	6
91	91	7
4	4	13
67	122	4
101	101	11
42	42	8
96	97	3
64	65	1
49	51	3
113	113	3
72	95	1
115	116	3
26	26	7
21	34	4
8	37	1
2	4	4
33	33	6
67	121	3
83	83	6
90	90	2
69	102	3
34	35	11
97	138	3
128	131	1
112	113	3
136	136	6
124	125	4
66	66	7
59	59	9
113	117	1
10	10	5
87	87	3
17	17	6
52	52	5
37	37	6
112	112	4
86	104	3
18	19	1
145	145	4
72	73	9
65	66	2
75	76	4
54	54	3
11	11	10
42	62	3
47	47	3
0	0	3
3	3	3
78	109	2
142	142	15
133	133	8
119	120	11
63	64	1
76	108	5
61	61	9
12	13	2
81	82	4
130	130	6
63	63	9
21	37	2
88	136	5
98	98	9
15	31	3
115	117	1
29	33	1
58	96	4
88	88	1
136	138	2
55	57	2
58	64	2
38	41	1
97	97	2
86	117	2
64	67	1
124	128	1
0	10	1
64	93	1
67	67	7
84	107	1
61	62	1
125	134	2
123	125	1
56	57	2
132	132	7
21	31	5
51	142	1
21	91	1
68	135	2
114	114	9
132	135	1
23	33	2
141	142	2
74	74	8
25	26	1
13	141	1
119	136	1
68	138	1
68	118	4
16	16	9
15	16	6
77	130	2
64	96	4
122	124	2
66	67	1
119	135	1
13	140	2
25	33	3
91	92	4
59	62	2
145	146	3
26	35	1
13	15	2
59	60	1
143	143	5
107	107	2
3	31	1
131	139	3
64	66	4
89	90	2
110	117	1
119	124	1
144	145	4
68	69	4
66	72	1
136	137	3
73	82	1
118	120	2
21	23	1
73	84	2
73	104	3
117	118	2
117	132	1
106	111	1
70	72	1
139	142	2
37	141	3
96	112	1
72	79	2
82	105	1
67	68	3
97	98	2
114	117	2
50	51	4
115	115	2
113	114	6
126	128	1
85	86	1
4	11	2
8	8	3
14	20	2
58	58	3
135	140	2
25	38	1
53	85	3
86	107	1
62	125	2
10	20	1
9	14	3
133	135	2
88	137	1
122	128	1
128	129	2
9	25	1
118	136	1
4	9	1
1	6	1
66	86	1
61	141	1
3	40	2
24	30	1
85	89	1
122	127	1
114	118	1
80	104	2
50	52	1
133	134	2
69	69	2
113	115	1
77	108	2
2	2	1
78	83	1
134	136	2
8	10	1
8	21	1
77	109	3
79	79	3
111	116	1
71	72	1
82	84	1
135	138	1
37	38	1
5	6	1
140	141	2
24	33	1
97	107	1
132	133	1
112	115	2
9	20	1
23	25	1
135	141	3
65	82	2
47	63	1
73	95	1
96	113	1
89	96	2
116	129	1
98	99	1
142	143	1
48	48	2
78	78	1
105	111	1
120	125	1
76	81	1
119	134	1
50	107	1
62	64	1
137	137	1
114	115	2
103	104	1
68	122	1
3	14	1
58	136	1
55	74	1
129	134	1
2	9	1
