23	24	2
95	95	29
6	7	6
18	19	12
176	176	14
16	16	18
132	133	10
113	114	7
168	169	13
53	55	4
27	28	9
67	68	2
89	89	9
116	117	4
102	103	10
56	56	5
168	174	4
146	147	11
127	127	10
160	160	20
174	174	19
93	93	14
119	151	3
161	161	16
172	172	30
36	38	9
30	30	17
1	1	14
177	177	4
174	175	7
8	9	15
171	171	16
158	158	23
3	5	5
1	2	5
27	27	18
178	178	11
32	32	43
77	77	11
11	11	34
58	77	2
37	179	2
94	95	5
134	134	9
130	130	16
149	149	17
115	115	4
10	10	31
24	24	13
139	139	16
162	162	11
142	146	2
123	123	7
21	21	22
5	5	26
53	53	16
140	140	14
179	180	7
118	118	22
12	12	7
38	172	3
52	52	11
128	130	5
38	38	35
179	179	25
33	33	20
131	131	18
174	177	1
87	87	15
31	32	13
13	14	7
21	26	6
39	39	27
60	60	6
75	76	4
63	63	10
64	64	12
32	33	9
90	115	1
6	6	17
158	159	12
140	145	2
144	145	4
41	42	6
120	120	4
52	53	9
4	4	23
50	88	2
71	94	6
151	151	8
147	147	12
68	68	20
146	146	16
101	102	5
0	35	1
167	168	5
138	138	21
111	111	3
121	121	17
121	122	5
92	108	1
109	150	6
148	148	18
11	12	4
173	173	11
13	24	2
10	43	4
73	73	14
67	67	7
22	23	5
141	143	3
14	14	33
55	55	22
141	141	16
108	108	10
9	9	12
143	144	8
35	35	20
177	178	6
75	114	3
154	156	3
34	34	11
36	36	17
9	15	5
163	163	8
156	156	13
126	127	1
96	96	17
62	62	15
22	22	20
81	82	7
129	165	4
42	42	15
33	34	3
23	23	24
68	87	1
129	129	8
23	27	1
135	135	11
132	132	26
10	14	9
148	149	6
137	137	4
166	169	5
164	164	10
2	2	8
152	152	7
90	90	15
13	13	26
33	35	5
142	145	2
119	119	14
142	142	10
93	94	10
7	8	7
133	133	20
7	29	8
166	166	9
125	125	10
24	25	16
50	66	3
64	65	5
98	102	3
76	76	14
79	79	22
5	37	4
124	125	4
107	107	8
131	132	1
35	36	5
17	17	15
26	27	6
16	17	3
110	110	8
138	139	4
10	11	7
44	119	3
83	84	10
31	31	25
163	166	1
44	44	10
154	158	4
5	9	2
54	54	13
19	24	3
99	100	6
42	43	5
15	15	22
173	174	6
75	109	3
143	145	9
153	153	14
43	43	32
61	61	11
95	96	8
25	25	12
68	77	4
41	41	8
35	42	2
143	143	9
147	161	2
168	168	8
125	158	2
133	134	1
180	180	16
78	78	13
18	18	25
28	28	7
34	43	1
95	112	2
0	0	12
108	109	1
44	50	4
25	31	1
112	119	4
3	3	17
161	165	2
119	120	6
28	120	1
97	97	5
15	16	10
18	27	5
53	54	2
5	41	2
126	126	13
86	86	8
19	19	11
178	180	3
5	10	2
37	37	11
102	105	2
6	138	2
90	91	8
42	66	5
50	50	2
112	112	12
88	115	2
53	67	4
81	81	16
7	62	4
5	6	11
88	88	1
154	155	3
67	85	3
175	176	2
170	170	13
104	117	1
22	24	4
36	42	2
15	39	4
91	91	8
9	10	2
43	44	4
77	86	6
165	165	8
172	173	10
75	75	13
40	41	6
76	77	3
154	154	2
26	26	12
59	90	2
11	13	7
84	85	5
17	24	4
82	84	5
139	140	5
109	109	10
155	155	11
92	93	5
23	25	3
37	38	10
163	168	3
0	1	10
144	144	13
26	29	6
70	90	1
74	74	14
126	129	2
169	169	16
6	10	2
17	18	2
89	116	1
80	80	9
51	66	3
136	136	3
107	108	7
131	133	4
107	114	4
17	19	9
99	102	5
19	31	1
57	57	9
20	21	5
71	71	10
41	43	4
150	150	23
62	63	3
23	43	4
120	127	1
82	82	6
123	124	4
170	175	1
12	13	9
27	36	3
170	179	2
117	118	6
70	71	4
134	142	3
14	25	3
97	99	4
29	30	9
125	126	3
151	153	3
94	94	17
38	39	3
152	159	1
86	89	1
8	30	3
164	176	2
71	76	1
157	158	5
122	122	8
4	6	7
59	59	23
145	180	2
41	44	2
97	98	8
8	8	26
3	13	1
25	27	6
45	45	10
101	115	5
28	30	3
51	52	3
3	12	4
45	118	1
65	65	7
159	160	3
20	32	1
6	8	2
9	30	2
29	29	11
59	74	3
103	103	8
99	99	4
0	4	2
112	116	4
102	102	11
174	179	5
50	51	7
88	89	4
3	4	12
160	161	4
14	33	1
7	7	15
108	153	2
151	152	10
74	75	3
22	37	2
77	78	7
19	20	9
155	156	6
14	15	5
64	68	3
136	137	2
74	76	2
104	104	4
123	153	1
72	72	3
128	129	4
142	143	8
22	26	2
161	162	6
49	49	3
157	157	9
145	173	2
103	104	6
2	3	4
105	105	6
154	170	4
107	110	2
4	5	9
123	155	3
80	119	1
27	32	3
135	138	7
50	58	2
54	58	1
1	3	3
166	167	3
4	10	4
128	128	5
51	53	1
155	158	1
134	141	1
49	78	4
106	154	1
57	58	3
165	166	2
111	112	9
114	114	11
21	23	4
98	98	1
20	20	9
56	57	3
90	94	3
92	92	14
150	153	5
165	167	1
110	111	3
88	94	1
11	97	1
73	75	7
112	113	1
18	31	1
2	61	3
27	31	3
127	130	5
135	144	2
84	87	2
36	41	3
14	16	3
137	138	5
170	171	4
141	142	3
142	147	2
66	66	4
51	127	2
30	31	4
65	89	2
124	124	6
37	171	1
58	76	3
17	40	1
51	58	2
132	158	3
167	167	8
7	11	1
76	78	2
35	38	1
102	106	1
19	21	4
76	89	1
85	85	6
89	115	1
159	162	1
65	66	2
112	114	2
40	42	2
115	116	6
44	45	1
91	96	1
60	61	6
31	44	1
169	174	3
30	82	2
13	17	3
21	22	2
113	113	5
43	45	1
103	107	2
44	121	4
125	157	2
34	37	3
140	141	3
163	164	2
17	57	1
121	125	1
11	14	6
80	81	4
71	72	6
171	172	5
83	83	5
0	6	2
55	57	3
3	8	3
102	142	4
14	27	2
49	50	2
164	165	3
89	117	4
50	52	4
143	146	1
78	79	2
16	41	2
161	167	2
66	67	1
43	50	2
64	66	3
37	39	1
32	34	2
28	95	1
5	7	4
6	14	2
134	138	3
116	118	1
96	111	2
80	82	4
75	106	3
106	135	1
105	114	1
2	4	3
30	35	1
17	22	2
167	169	3
19	22	3
40	40	3
114	148	1
19	27	4
159	159	2
116	116	1
26	28	2
124	128	2
12	15	2
73	74	3
25	98	1
28	29	3
131	134	2
14	32	3
126	130	2
49	77	2
83	119	2
35	39	2
6	9	2
82	85	1
84	99	1
102	110	1
24	26	1
9	11	1
92	114	2
122	150	1
106	107	2
86	99	2
39	40	1
163	165	1
135	136	1
75	79	1
8	10	1
19	33	3
37	173	2
83	86	1
6	11	3
101	101	5
54	55	1
2	16	1
4	7	3
84	84	2
146	151	1
99	101	2
51	51	2
164	168	1
166	168	1
109	110	2
165	169	3
172	174	1
89	90	1
80	98	1
134	137	1
7	10	3
100	100	1
72	73	3
5	61	1
169	170	2
5	12	1
101	118	2
40	153	3
10	39	2
152	153	1
134	135	1
96	99	1
96	105	1
14	17	1
50	53	2
26	30	1
118	119	1
117	117	2
174	176	2
79	143	1
153	154	1
20	22	1
80	92	1
29	34	1
157	159	1
79	80	3
50	86	1
126	144	2
104	107	1
156	157	1
10	13	1
79	118	1
25	26	3
106	106	1
78	91	1
79	122	1
96	102	1
9	16	1
52	55	1
150	154	1
4	12	1
38	40	1
35	37	2
135	152	2
92	94	1
150	151	1
175	175	1
108	112	1
36	37	1
37	43	1
121	153	1
22	30	1
23	32	1
76	86	1
55	58	1
