108	109	5
104	105	4
36	107	3
28	28	11
142	142	7
81	81	9
33	39	2
22	82	2
134	134	10
10	10	8
3	3	7
126	126	14
115	115	1
80	99	3
145	146	1
76	78	2
94	95	3
135	136	1
75	75	8
121	121	9
69	69	9
19	19	15
139	139	1
0	0	8
74	126	1
84	84	1
68	68	4
89	90	2
140	140	6
67	71	2
49	49	17
137	141	1
144	144	7
87	87	3
102	134	3
31	39	1
59	60	3
136	136	10
82	82	3
21	29	5
124	124	13
42	42	14
102	103	5
49	62	6
110	110	8
24	25	6
103	103	11
10	11	6
54	55	2
99	99	4
123	123	9
50	50	3
71	71	7
132	132	7
108	108	2
119	120	10
5	5	5
102	131	5
58	77	2
40	41	6
126	127	8
130	130	14
51	51	5
138	138	1
133	134	9
129	129	5
135	135	7
104	104	4
29	87	1
93	94	5
127	129	6
31	31	2
3	4	2
79	79	12
131	131	13
73	73	11
77	77	6
128	129	5
58	59	2
57	61	2
33	35	1
86	86	1
74	91	1
15	17	3
70	70	5
11	86	1
60	98	3
40	55	6
129	130	8
115	120	6
122	122	7
26	26	7
104	134	3
109	110	5
14	14	7
30	126	2
17	17	6
143	143	7
75	132	2
80	141	1
11	11	9
13	13	4
8	8	4
80	82	3
40	40	6
93	139	2
16	19	5
95	96	2
20	80	2
48	48	5
67	67	6
102	102	14
60	60	2
35	35	5
71	72	3
98	102	1
84	85	4
114	114	9
98	98	10
141	142	9
117	138	1
138	141	2
140	142	3
130	140	1
137	137	2
91	92	2
23	24	3
38	38	9
101	101	7
80	81	4
39	39	6
43	43	4
30	31	1
121	125	1
18	18	14
119	123	2
57	57	4
90	91	2
65	66	7
20	20	8
27	27	7
92	92	5
36	36	6
91	130	4
125	126	5
90	127	2
117	118	3
128	141	1
117	117	7
83	121	3
73	74	2
141	141	3
68	70	2
0	1	1
11	121	1
101	102	1
100	136	2
16	16	14
112	112	6
127	127	11
59	59	11
62	62	6
12	86	3
55	55	5
110	130	6
96	141	3
32	32	3
61	82	3
74	74	8
103	133	2
41	41	6
123	124	6
4	4	2
103	104	7
34	34	3
80	80	3
109	109	11
9	10	2
56	63	2
37	37	9
91	91	5
8	11	2
61	61	2
119	119	5
80	94	1
87	119	2
142	143	1
94	94	5
80	125	4
97	139	2
116	116	4
41	42	4
9	9	10
74	79	3
65	65	5
57	64	4
105	134	4
1	1	5
64	64	4
89	89	9
79	80	2
27	28	4
38	39	3
30	30	8
125	125	6
82	94	2
93	93	7
39	67	1
95	95	3
73	86	1
53	53	6
99	119	4
75	79	2
14	15	3
25	107	2
76	76	5
128	131	1
134	135	4
83	122	2
128	128	13
85	91	3
117	134	1
19	40	2
120	127	1
19	124	4
29	29	8
88	88	8
114	119	2
4	5	1
5	6	3
82	117	2
81	100	1
127	128	1
95	128	2
11	82	1
30	136	1
84	90	1
82	91	1
102	125	2
114	117	1
61	62	2
118	119	5
66	66	3
121	122	2
87	88	3
104	106	1
52	52	2
124	125	2
66	67	4
26	27	5
69	70	3
118	118	6
95	141	1
95	134	3
30	38	2
125	128	2
105	130	2
93	113	1
68	69	2
97	97	1
6	6	2
58	58	2
96	98	1
112	113	1
66	69	4
17	18	1
131	141	2
103	115	1
91	133	1
54	54	8
75	76	2
74	75	5
50	52	2
125	127	3
144	145	1
33	33	4
104	115	1
98	99	1
96	96	4
81	94	1
86	111	1
134	141	2
111	112	1
105	106	1
107	107	2
56	56	2
33	36	1
72	79	1
115	123	1
25	25	3
81	82	2
139	140	2
43	47	1
62	64	2
83	83	2
18	23	3
130	131	4
132	135	1
16	136	4
92	93	1
90	90	5
114	116	3
107	135	1
117	127	1
83	85	2
120	120	5
24	24	3
84	114	1
53	54	1
114	131	1
23	23	5
53	66	1
113	115	1
98	133	2
118	120	3
133	133	9
18	115	4
28	29	2
105	105	4
135	139	2
17	37	1
117	129	2
54	56	4
78	78	2
91	93	3
137	138	3
96	97	2
64	81	2
35	135	1
96	137	2
115	117	1
103	105	1
62	90	1
115	118	1
133	136	1
67	68	2
39	126	2
99	100	3
63	65	1
50	66	2
111	118	2
36	39	3
49	50	2
22	22	2
121	124	1
33	34	1
131	136	1
113	113	1
21	21	2
88	89	2
76	77	1
25	26	2
2	2	1
108	138	1
97	98	2
43	52	1
82	83	1
100	100	1
75	92	1
111	111	1
143	144	1
14	26	1
32	33	1
50	71	1
63	63	1
85	85	1
104	108	1
58	64	1
75	77	1
75	93	1
100	141	1
106	107	1
17	24	1
60	61	1
22	81	1
128	130	1
110	112	1
95	99	1
