38	39	2
11	11	8
100	100	5
104	104	4
141	141	6
132	132	5
29	29	8
122	137	3
70	70	6
81	98	3
107	107	6
26	26	2
113	113	2
10	10	2
154	154	10
42	42	8
84	84	6
63	63	11
95	95	2
39	39	12
31	31	12
65	66	3
103	105	2
14	14	8
43	58	2
58	58	5
135	148	1
105	105	5
67	67	3
11	14	3
121	121	3
32	32	3
80	80	2
107	110	2
62	62	5
101	102	2
5	6	3
30	30	12
23	23	9
51	54	2
53	55	5
23	31	2
112	112	4
115	116	2
129	129	4
5	21	1
114	114	8
20	20	6
9	9	3
86	86	5
46	117	3
36	36	20
8	8	10
12	13	3
97	98	7
107	109	1
49	49	8
44	44	7
12	12	4
133	135	3
17	17	3
99	99	6
4	4	1
69	70	2
117	151	2
55	56	3
95	97	2
56	75	2
119	119	9
45	45	4
29	30	2
27	95	4
44	57	5
81	89	1
48	48	11
124	124	5
13	13	11
35	35	2
147	148	2
97	97	4
94	103	1
124	126	2
144	144	2
15	15	7
41	41	10
103	103	3
102	109	2
126	128	2
64	77	2
25	26	3
38	38	10
57	57	6
12	50	3
32	33	10
66	67	2
81	82	3
80	81	2
79	96	4
48	51	5
26	32	10
85	93	5
139	139	4
37	37	4
33	33	6
98	105	2
34	36	2
126	144	1
35	48	5
93	93	10
4	5	1
73	73	3
19	102	2
109	110	3
66	66	5
19	19	3
102	102	9
76	79	4
34	38	3
140	140	3
125	147	6
71	71	5
4	50	3
120	137	3
106	106	2
46	46	3
39	40	1
69	69	7
142	142	7
108	110	2
110	119	4
50	50	4
81	81	4
111	111	9
16	17	8
96	96	3
77	77	1
80	82	3
90	90	10
85	85	3
87	88	3
40	49	3
80	84	1
64	65	1
98	99	2
113	114	2
115	115	4
149	149	3
21	21	5
119	122	2
128	129	1
77	79	2
40	41	3
8	25	5
57	118	1
83	83	3
53	53	9
95	98	1
11	12	2
47	47	3
119	150	3
77	83	2
131	131	9
139	144	5
74	74	5
27	28	2
131	132	3
140	142	3
16	154	2
37	38	1
56	56	1
24	26	1
110	111	2
152	153	3
96	105	2
120	120	8
121	132	2
139	148	2
130	130	3
127	127	8
6	7	3
43	52	3
122	122	4
28	28	2
30	43	3
87	93	4
65	94	2
128	128	2
92	92	1
126	126	2
108	108	1
134	134	1
127	147	4
54	54	2
72	73	2
63	64	4
24	24	4
13	148	1
117	117	7
58	74	4
133	133	8
22	28	4
94	94	3
31	33	6
28	29	2
121	127	1
44	46	3
33	42	4
112	113	4
8	9	1
72	98	3
84	85	1
28	64	1
120	122	2
45	46	3
40	40	2
23	25	2
25	25	7
42	43	2
65	67	4
75	75	4
148	148	6
35	38	1
83	85	5
45	56	2
33	75	1
129	132	1
47	53	1
26	28	2
153	153	1
134	135	1
17	18	2
48	53	3
65	65	5
69	77	1
135	135	5
34	34	3
106	111	4
93	98	1
44	47	1
28	58	4
98	98	1
21	31	1
94	113	3
49	51	2
116	116	2
17	20	2
34	43	1
27	30	1
94	98	2
3	3	1
100	101	2
15	21	2
5	7	3
12	138	1
105	111	4
64	64	4
81	83	3
96	116	1
109	109	4
103	104	3
123	123	2
22	72	2
95	99	2
129	139	1
119	123	3
65	68	1
93	94	1
118	118	5
26	27	1
31	32	1
43	43	5
20	31	1
84	90	1
29	40	3
4	7	1
86	87	2
34	40	2
6	6	4
28	95	2
137	137	2
79	83	1
5	5	2
22	32	1
93	95	1
27	33	2
58	86	3
97	112	1
104	105	4
57	58	3
2	24	2
132	133	1
50	51	1
122	123	1
48	49	1
146	146	1
129	130	1
50	56	1
68	113	2
46	53	3
10	29	2
22	24	2
83	90	1
18	18	1
43	45	2
129	133	2
72	72	2
38	40	2
99	103	3
84	88	1
110	110	1
28	94	1
123	139	1
116	117	2
89	106	2
68	77	1
139	145	2
85	86	2
53	58	1
11	15	1
152	152	1
64	66	1
61	61	1
33	40	1
84	87	1
34	41	1
24	72	1
23	68	1
122	142	1
6	32	2
127	128	1
56	57	1
121	136	1
43	153	1
55	55	1
98	108	1
140	145	1
144	146	1
61	74	1
78	78	1
118	148	1
41	57	1
57	62	1
29	68	1
28	67	1
82	82	1
95	104	1
12	14	3
130	132	1
7	21	2
16	16	1
5	23	1
75	87	1
122	143	1
23	24	1
135	136	1
56	76	1
7	7	1
