73	75	1
32	33	4
121	128	2
71	114	2
109	109	5
7	13	2
94	94	4
93	117	2
83	83	3
119	127	1
127	128	10
80	81	3
52	52	6
86	88	6
112	112	3
52	53	1
91	92	2
61	65	2
101	106	2
75	76	4
80	112	5
107	110	3
129	134	3
99	100	1
105	105	10
59	59	2
19	29	5
110	110	5
18	18	2
19	19	6
94	118	3
125	125	5
106	112	3
27	30	2
106	125	2
97	104	3
61	61	2
130	132	3
90	99	2
122	124	6
10	11	3
92	93	2
31	34	5
30	30	3
107	109	1
17	18	3
131	131	8
117	126	2
73	73	6
16	17	2
8	9	1
99	99	1
111	111	2
90	90	3
117	120	2
38	38	4
98	99	2
80	82	9
56	59	4
66	75	1
48	49	4
52	88	2
7	7	4
92	94	1
105	110	1
74	93	1
109	116	3
72	78	2
23	25	5
28	31	3
9	11	2
61	62	2
132	135	2
36	37	2
22	22	3
101	105	8
104	104	1
100	120	3
69	71	1
113	117	6
113	115	4
38	44	2
3	25	2
6	6	1
85	92	3
63	64	1
94	95	4
57	57	1
128	130	5
85	85	6
118	121	1
108	109	6
63	67	2
28	29	2
79	80	2
25	28	1
107	113	1
2	19	6
126	126	7
16	16	2
101	101	4
79	98	1
74	88	2
66	66	3
66	77	1
123	123	3
0	7	5
11	11	2
33	33	4
80	91	4
62	64	1
109	110	2
62	70	1
24	24	4
22	27	3
73	108	2
44	46	1
21	23	3
103	105	1
24	28	1
48	75	1
103	103	1
112	132	1
100	102	3
64	66	1
109	130	2
13	13	3
3	19	2
74	87	1
65	67	2
130	135	4
97	97	3
125	129	1
106	117	1
127	131	2
119	125	1
60	62	3
120	124	3
129	131	1
98	101	12
121	123	1
56	64	2
62	78	1
83	98	1
67	113	1
17	17	2
119	130	2
19	21	2
72	73	4
1	2	1
107	107	2
38	39	2
0	1	6
22	36	1
78	81	1
58	62	2
64	71	2
3	4	4
3	3	2
128	128	4
91	93	3
94	96	4
70	74	1
121	126	1
85	88	1
50	59	1
134	134	4
90	107	1
92	99	2
50	54	1
1	1	7
106	124	1
122	131	1
8	10	1
123	127	1
27	29	1
127	127	2
70	71	1
104	122	3
44	63	3
58	87	1
15	18	1
43	44	3
15	21	3
109	135	1
99	101	4
130	134	3
113	113	2
104	105	1
26	28	1
73	74	3
50	52	3
120	120	3
101	104	2
130	130	1
76	84	1
107	126	2
0	0	4
65	85	2
116	120	2
86	87	4
73	89	1
62	62	1
132	132	6
9	9	1
119	131	2
77	86	3
77	78	8
52	54	3
65	94	2
109	115	3
65	80	1
106	111	2
69	81	1
2	26	3
78	78	1
63	63	1
106	107	1
22	34	2
75	80	3
81	82	3
122	122	4
69	84	2
86	86	2
43	43	1
82	83	2
34	37	1
74	80	2
25	27	1
50	58	1
98	98	6
112	116	1
32	32	3
133	133	1
110	117	4
53	56	3
126	127	1
6	7	3
27	28	2
16	37	2
45	50	1
19	23	3
68	95	2
112	115	3
121	124	4
43	66	2
12	13	2
122	123	6
2	3	2
76	76	2
124	125	3
98	102	1
87	87	2
58	65	1
27	31	2
30	31	2
108	111	2
118	118	3
4	13	3
36	36	3
85	86	3
5	8	1
4	8	1
20	21	2
59	63	2
50	50	2
126	130	3
30	33	2
109	117	1
97	100	2
9	10	1
3	8	2
57	59	2
114	114	1
96	99	2
25	25	1
90	98	1
74	74	2
129	129	2
31	33	1
5	6	1
32	57	1
47	49	1
95	108	2
98	120	2
90	101	2
108	123	2
115	116	1
90	92	2
61	82	1
75	75	1
125	127	1
114	132	2
123	129	1
132	133	1
115	115	1
6	14	1
56	81	1
68	98	1
59	66	2
100	101	1
102	106	2
116	119	1
79	90	1
59	82	2
15	16	2
111	117	1
87	89	1
95	97	1
75	107	1
97	98	1
6	24	2
59	72	1
130	131	1
52	55	1
116	118	1
13	14	3
113	114	1
59	62	1
76	99	2
129	130	2
103	104	2
115	119	1
29	30	3
106	108	1
20	44	1
60	84	1
45	45	1
70	73	2
88	94	1
16	43	1
91	105	2
104	110	3
96	96	1
3	5	1
5	20	1
118	120	3
68	77	1
53	55	1
113	121	1
0	3	1
87	88	1
88	93	1
70	75	1
50	55	1
20	33	1
82	87	1
128	131	1
78	107	1
101	102	1
115	117	1
115	118	2
115	125	1
69	70	1
68	108	2
76	80	1
36	58	1
68	94	1
27	27	1
30	37	1
54	67	1
119	120	1
77	80	1
108	110	2
86	91	1
54	59	1
47	50	1
121	121	1
110	131	1
126	131	1
79	79	1
63	82	1
49	53	1
0	8	1
74	78	1
16	19	1
123	126	1
60	70	1
124	131	1
16	20	1
90	91	1
