135	135	17
118	118	20
60	60	14
70	70	14
162	163	8
73	74	8
115	115	26
77	77	28
119	121	3
125	125	12
88	88	23
124	124	18
82	83	10
52	52	12
28	28	24
41	41	19
46	46	7
106	106	21
76	77	18
144	146	6
30	31	19
15	15	36
181	181	3
34	34	14
140	140	18
116	116	18
11	11	26
2	2	11
23	24	13
25	25	34
126	127	10
96	97	14
149	149	28
67	67	17
165	166	11
120	123	9
66	67	16
81	81	24
54	55	13
178	178	18
75	75	24
32	32	20
142	142	31
158	161	3
38	38	21
33	66	1
78	78	14
94	95	6
20	22	4
154	182	4
53	54	11
8	8	18
46	47	9
90	92	3
134	134	32
47	47	22
55	55	11
121	122	7
133	138	7
67	68	19
137	137	7
168	168	26
65	65	14
176	176	22
84	87	7
111	111	31
126	126	15
27	27	35
169	170	4
164	166	7
27	30	4
136	136	28
177	177	17
155	181	4
80	80	26
31	32	12
98	98	17
182	182	26
184	184	18
23	23	32
171	171	14
154	155	3
39	39	16
13	21	4
127	167	5
22	22	21
145	146	5
59	59	8
9	9	8
24	24	23
157	160	3
40	40	25
18	18	20
65	68	2
169	169	18
99	100	8
87	88	5
146	148	1
91	92	11
160	160	20
10	10	7
148	148	33
70	111	9
152	153	10
19	19	26
139	139	27
32	66	1
108	139	2
128	128	6
94	97	4
71	109	7
6	23	3
104	105	11
68	68	34
48	48	31
47	48	2
68	91	5
107	107	26
17	17	17
19	20	18
133	133	14
56	57	13
133	134	7
20	20	30
56	56	23
79	79	8
64	64	9
149	150	7
105	105	32
170	170	20
138	139	12
174	175	2
14	14	18
94	94	40
43	43	28
174	174	24
164	164	30
33	57	5
153	153	9
118	119	6
16	16	24
188	189	24
102	102	26
155	156	10
147	147	23
122	122	31
100	100	19
189	189	15
58	58	20
131	132	11
68	70	3
29	29	35
6	6	18
132	138	1
7	7	26
27	28	19
144	170	6
140	141	10
29	30	10
19	22	2
32	33	13
122	123	22
67	93	1
42	42	31
124	125	10
123	123	16
34	35	7
141	141	18
66	74	5
88	89	11
113	134	3
168	171	4
100	101	2
181	182	3
150	150	20
61	61	8
66	66	24
72	72	21
166	167	7
122	126	3
165	165	15
96	100	1
71	71	18
156	156	13
163	163	28
127	131	3
179	179	16
148	149	6
107	108	12
5	5	31
26	26	20
73	90	4
185	186	7
146	146	24
73	73	15
119	119	25
101	102	10
136	137	23
182	183	17
80	85	5
180	180	32
131	138	7
135	136	20
4	13	3
161	161	14
121	121	25
104	104	18
139	142	2
16	40	6
147	149	12
109	109	14
17	22	4
147	171	6
31	31	22
16	19	3
88	170	1
74	86	1
83	85	1
152	152	18
163	164	2
173	173	34
92	92	16
160	184	4
6	7	23
119	120	6
127	127	23
64	65	7
119	122	7
63	63	9
67	81	4
65	67	20
86	108	1
41	43	2
58	62	6
82	82	25
128	129	4
167	167	16
146	147	14
117	117	15
41	42	12
76	76	14
32	34	3
68	90	1
162	162	14
134	187	3
174	176	4
129	129	27
165	168	7
71	72	19
120	120	9
3	184	1
62	62	6
66	91	2
131	141	1
68	113	2
54	54	11
71	82	3
97	97	18
33	36	2
158	158	10
38	39	15
90	90	26
122	151	7
79	80	6
2	3	9
157	158	8
53	53	27
147	172	1
131	131	9
74	74	24
86	86	18
14	15	6
144	144	14
10	12	7
108	108	35
186	186	38
36	36	23
143	143	20
142	143	11
154	154	15
11	12	9
150	151	5
53	55	3
84	84	26
34	63	3
21	21	14
15	40	1
74	82	2
92	100	1
110	112	3
91	126	1
157	157	7
183	183	19
175	176	8
32	35	6
99	99	27
30	30	14
37	44	3
155	157	2
187	188	22
112	112	17
103	106	7
175	175	10
83	83	17
15	43	4
105	106	21
93	93	4
106	107	2
91	91	19
188	188	12
141	143	2
13	13	12
122	124	1
162	175	5
96	96	10
185	185	25
97	98	4
18	22	3
73	75	3
40	41	4
16	17	6
101	101	30
155	155	9
173	174	16
187	187	10
151	151	17
107	109	2
89	89	16
35	35	21
55	56	15
74	89	1
152	171	3
85	85	25
71	84	3
83	84	11
26	27	3
101	103	2
130	130	22
68	81	2
1	1	20
132	137	7
145	189	5
94	98	5
172	172	17
159	159	23
2	16	1
117	118	7
33	35	6
145	190	3
147	168	4
80	81	6
33	33	9
133	136	3
42	44	1
164	167	2
58	60	4
59	60	14
62	63	9
36	44	9
117	136	4
166	166	34
130	167	1
53	124	3
166	168	5
130	170	3
114	115	5
158	176	8
134	135	12
96	129	2
108	113	1
103	103	15
20	21	8
0	0	13
110	110	13
123	125	4
17	41	3
102	103	5
33	34	9
190	190	11
68	94	3
113	131	3
87	108	2
28	30	6
156	181	1
140	176	4
53	123	2
28	29	6
67	74	3
43	46	6
8	11	1
43	44	4
63	64	3
18	19	6
90	95	2
77	83	1
74	83	5
125	127	6
131	133	1
104	106	10
6	8	10
153	183	2
102	128	1
74	81	2
66	73	2
68	83	1
135	189	5
138	138	18
126	128	4
148	151	2
42	43	4
115	156	2
73	92	1
167	168	7
92	101	5
155	165	3
35	78	2
165	170	2
159	160	6
17	18	7
12	12	19
116	117	5
5	6	8
129	167	1
5	7	1
4	16	2
15	16	7
70	109	2
79	84	2
130	145	1
129	170	1
165	167	4
67	90	1
71	108	2
12	13	8
84	85	5
36	37	4
109	110	11
93	94	8
186	187	2
133	135	6
128	130	6
164	171	2
158	177	8
52	53	7
70	71	5
173	176	5
176	177	3
35	37	11
88	129	1
15	17	6
86	88	3
92	126	3
39	40	8
45	45	17
57	57	7
61	63	2
27	29	4
130	144	2
43	85	2
177	183	2
70	86	3
31	124	2
108	112	3
164	165	11
113	113	16
153	154	5
110	139	1
104	126	2
1	4	2
89	90	4
49	54	1
143	144	4
109	113	2
42	47	6
161	163	2
29	31	1
42	45	1
21	22	7
42	54	10
127	128	7
4	10	1
132	132	8
4	5	8
170	184	2
77	89	4
130	131	4
167	170	5
95	95	13
3	3	6
73	91	5
189	190	8
113	114	9
60	61	10
154	157	4
141	171	1
41	53	3
61	62	1
120	121	4
114	132	2
156	157	7
171	172	7
110	111	11
91	94	2
98	99	4
28	54	2
88	95	4
92	93	3
164	172	4
120	149	3
37	57	2
114	114	14
179	180	10
123	124	5
111	115	1
169	182	3
70	83	3
146	168	2
140	152	1
39	41	1
146	170	1
44	44	10
7	8	8
81	82	4
88	128	2
67	95	3
0	1	4
121	125	3
24	25	5
145	168	3
127	129	2
93	117	3
146	149	1
132	139	3
86	109	1
36	60	1
37	37	3
125	126	8
17	24	3
55	57	1
16	18	5
78	85	4
119	136	1
95	96	5
29	66	2
72	83	3
92	94	2
66	79	1
8	17	2
73	105	5
57	163	2
154	158	4
31	38	4
73	83	5
140	175	3
145	169	1
2	4	5
112	130	2
72	73	2
5	8	3
3	16	5
86	110	1
26	31	2
161	162	7
58	100	2
107	138	2
134	138	2
108	109	1
135	137	2
44	82	3
111	114	3
111	112	2
38	57	1
114	135	1
49	55	1
138	158	2
22	23	4
66	68	1
145	145	7
27	165	2
96	118	1
146	188	1
70	110	2
176	180	3
68	69	2
93	126	1
149	165	2
116	169	4
78	84	2
177	182	2
32	36	3
127	184	2
172	189	6
115	116	4
78	79	7
30	124	1
170	172	1
61	65	2
105	125	2
87	87	12
77	78	4
148	183	2
30	166	1
132	133	5
107	110	2
172	173	4
76	79	3
118	169	2
124	127	1
93	95	2
185	187	2
122	125	3
104	127	3
97	100	5
13	14	3
9	12	2
22	24	3
95	97	1
91	101	2
70	82	3
93	122	3
69	69	1
144	168	1
131	134	2
44	55	5
168	169	3
118	121	5
153	176	1
29	41	2
84	86	2
34	36	4
68	117	1
180	181	5
145	172	2
44	83	1
57	189	2
37	38	5
153	173	3
83	182	2
94	117	3
90	91	2
69	70	5
112	128	3
114	119	3
75	76	5
72	82	2
23	25	4
135	138	1
9	22	1
117	121	4
139	141	3
174	184	1
22	25	2
36	42	2
43	124	4
139	152	3
114	118	1
35	36	2
90	106	2
141	153	1
116	168	2
115	168	1
177	178	2
184	185	4
29	68	3
43	83	1
69	84	1
128	167	2
113	139	1
143	152	1
75	85	2
10	11	2
123	150	3
63	99	2
8	10	1
30	34	4
129	130	4
63	65	2
183	184	2
142	169	3
164	182	1
75	80	1
129	168	1
69	111	3
12	21	2
90	115	2
86	113	1
70	113	1
118	136	4
144	145	1
141	152	2
68	74	3
87	127	3
85	86	3
21	23	1
124	126	1
89	92	1
159	177	1
45	46	1
26	29	1
171	173	5
32	126	1
30	37	1
3	5	1
90	116	1
27	31	3
114	134	1
29	34	1
157	182	1
90	103	3
0	2	2
173	175	3
44	45	1
135	158	2
178	180	4
115	180	5
118	153	1
169	185	1
159	183	2
48	49	3
159	176	1
36	57	4
188	190	2
45	47	3
110	113	1
116	144	1
167	188	2
114	120	1
78	81	1
30	32	2
119	143	1
145	187	1
120	150	2
154	170	1
3	8	1
86	87	3
112	113	1
175	187	2
162	164	2
161	164	1
131	136	1
33	63	1
109	144	1
134	176	2
31	41	1
138	176	1
58	59	2
6	151	2
166	169	3
121	126	1
72	75	2
120	124	1
169	184	2
158	159	1
58	61	2
35	57	3
41	47	3
107	140	6
114	128	1
114	154	1
97	99	4
179	182	2
178	179	1
137	152	1
120	151	1
4	4	1
25	26	3
147	165	1
81	83	1
95	115	1
103	131	1
85	89	1
134	142	2
57	59	4
29	33	1
115	154	1
85	87	1
172	187	1
147	148	3
71	85	4
120	125	2
8	9	1
163	181	1
27	149	1
148	150	2
69	116	1
172	184	1
154	162	1
78	80	1
86	89	2
138	175	1
174	187	1
74	75	1
172	186	1
139	140	1
114	181	1
43	47	1
95	119	1
58	101	1
138	140	1
187	190	2
39	48	1
58	63	2
74	76	1
67	99	1
179	183	1
104	107	1
118	122	1
75	82	1
148	166	1
169	171	1
74	110	1
77	79	1
113	130	1
128	148	1
146	172	1
48	54	1
109	129	1
71	87	1
27	55	1
131	139	1
88	134	1
140	151	1
9	24	1
