7	7	5
65	66	4
44	44	6
57	57	11
126	126	8
72	73	5
94	94	5
4	48	2
110	110	3
2	2	4
99	99	5
73	74	1
117	118	4
88	124	6
34	82	3
30	108	1
114	115	2
126	133	5
46	71	3
25	25	4
0	1	2
113	114	3
6	93	2
61	62	4
125	125	2
44	45	4
105	105	2
74	74	6
26	27	1
103	103	1
130	130	3
9	9	9
63	63	9
16	19	3
107	114	2
93	93	10
69	72	2
28	29	11
113	116	1
91	91	4
109	109	6
111	111	3
118	118	2
48	48	3
2	12	3
27	93	3
13	29	5
131	133	2
42	58	2
121	121	3
65	65	6
68	69	5
81	81	10
94	123	1
70	84	1
60	123	3
33	35	1
79	79	4
21	22	5
36	36	2
131	131	3
18	18	3
120	129	1
34	34	8
101	101	3
19	19	5
28	28	5
24	25	3
17	17	5
90	90	10
26	26	8
1	1	6
41	58	2
37	37	8
5	19	2
8	8	4
29	30	14
109	110	2
15	16	7
58	58	8
109	130	4
0	0	7
132	132	7
8	95	2
48	102	4
98	99	6
71	71	5
21	37	3
67	67	11
82	82	2
20	21	2
55	56	1
101	102	4
121	124	3
22	29	5
55	55	6
87	98	4
78	78	8
11	30	3
80	80	5
35	112	3
94	95	2
68	68	7
79	80	4
16	21	3
35	35	7
97	99	2
49	49	2
73	73	9
111	131	3
92	93	4
9	10	5
116	116	7
14	14	11
125	134	2
95	99	4
7	11	4
7	13	1
3	75	1
17	65	1
46	96	1
127	127	3
47	47	15
62	62	8
64	66	2
80	81	4
81	83	2
23	23	4
75	75	4
61	61	11
5	6	4
21	21	4
60	60	3
123	124	2
70	70	6
29	47	3
66	66	8
7	95	3
14	16	2
72	72	5
43	81	2
75	76	8
124	126	1
114	114	3
124	125	3
2	3	1
7	88	3
33	36	1
6	90	2
93	95	1
90	94	3
38	38	3
134	134	4
83	83	4
100	100	7
16	17	2
5	5	5
6	92	5
31	39	2
7	16	4
90	92	2
36	39	1
25	47	7
10	10	5
45	45	1
112	112	3
20	22	3
60	79	2
76	76	6
3	3	3
43	80	2
95	98	3
76	77	2
115	115	1
46	47	6
100	102	3
34	35	1
45	46	1
11	12	3
123	123	5
14	84	2
71	77	2
69	69	7
85	86	3
64	68	1
95	95	5
12	12	3
64	64	8
104	104	3
79	81	1
120	120	3
33	33	10
119	119	5
37	41	1
32	33	1
19	20	2
4	4	3
59	99	3
4	7	2
98	98	8
69	99	2
128	128	2
112	113	4
11	11	11
8	45	4
107	113	1
95	102	1
79	82	1
24	24	2
82	90	3
26	46	3
31	32	3
85	85	5
30	30	5
95	96	2
22	31	2
3	12	8
97	128	2
76	82	2
29	29	4
107	107	11
16	16	6
62	63	2
20	74	2
6	95	2
120	121	2
9	93	2
129	129	6
27	27	3
97	98	2
98	128	1
30	32	2
109	116	2
91	92	4
100	111	3
89	89	6
92	101	1
24	26	2
57	58	1
20	59	1
46	62	2
10	12	3
49	79	2
55	113	2
88	95	2
6	94	2
87	99	1
100	101	2
25	62	1
21	30	2
27	81	3
117	117	4
113	113	3
67	71	2
13	69	1
28	77	3
54	55	3
5	16	4
51	55	1
41	42	1
21	82	3
29	48	2
9	17	2
112	116	1
42	42	2
10	11	9
96	96	9
7	94	1
19	83	1
40	78	3
102	102	3
81	93	2
99	100	1
50	92	1
63	119	1
32	94	1
62	74	1
15	17	3
6	6	1
83	84	2
20	24	2
106	113	1
13	75	1
27	77	1
87	87	1
10	19	2
88	88	1
37	38	2
125	126	2
106	115	2
97	97	3
31	31	4
40	40	1
27	101	1
47	48	2
127	133	1
29	38	1
110	111	2
96	98	1
59	59	4
122	122	2
104	105	1
16	18	1
33	81	1
35	36	1
15	19	1
17	18	2
11	14	1
108	126	1
46	46	1
33	34	1
37	79	1
32	32	1
108	127	1
20	20	2
77	77	2
131	132	1
36	37	1
90	91	2
106	106	1
63	70	1
111	113	1
93	116	1
29	36	1
5	49	1
47	89	1
66	68	1
93	94	1
6	32	1
22	35	1
64	71	1
56	56	1
3	69	1
78	86	2
111	129	1
46	78	1
8	13	1
110	113	1
108	108	1
39	39	1
66	77	1
19	25	1
113	128	1
101	107	1
40	41	1
99	103	1
66	67	1
43	43	2
48	94	1
19	22	1
77	82	1
9	35	1
39	55	1
82	83	1
