97	97	9
113	114	5
101	106	3
7	7	10
3	3	7
71	71	4
90	90	7
6	6	5
36	43	2
34	35	3
94	95	2
113	113	5
46	47	3
56	56	6
47	47	19
111	111	1
129	129	3
73	75	3
39	41	2
24	24	5
98	98	4
22	22	6
91	91	4
13	13	7
33	92	2
19	19	11
30	79	2
10	10	11
83	83	11
45	117	3
8	8	3
41	42	5
46	46	15
21	21	7
25	25	3
120	121	3
85	111	3
15	16	10
20	20	7
27	27	19
14	73	3
42	42	3
123	123	10
36	36	9
39	40	3
125	125	6
94	96	6
85	85	9
91	105	1
13	46	2
126	126	1
35	35	9
8	46	1
92	92	7
51	51	3
96	96	14
27	28	3
10	11	5
15	21	3
14	14	14
101	101	5
72	72	6
78	78	9
75	76	6
82	82	6
94	102	2
83	89	1
16	16	4
103	103	7
84	84	8
102	102	7
57	57	26
30	30	9
24	33	1
112	112	8
126	129	2
20	31	5
18	18	15
2	12	2
41	41	6
115	121	5
74	74	14
48	49	4
6	97	2
28	30	2
40	55	2
79	79	8
100	100	3
61	61	10
112	113	1
83	84	5
9	10	2
7	8	8
24	25	4
38	39	6
116	116	10
35	42	3
109	110	2
62	95	4
89	92	2
32	32	3
77	77	5
59	59	9
22	123	1
130	133	2
11	11	15
122	122	4
90	91	3
65	65	14
88	89	2
57	59	3
99	99	10
4	4	10
128	128	4
64	64	10
45	45	16
40	40	10
91	131	4
11	33	1
49	50	2
34	75	3
16	36	1
108	108	1
33	33	9
94	101	3
127	133	3
118	118	9
106	106	6
81	82	3
15	15	10
127	128	3
32	78	3
76	76	4
110	110	7
68	68	9
81	81	4
100	101	2
62	66	3
44	124	2
34	34	11
94	104	3
86	113	1
63	63	7
62	62	6
69	71	4
79	80	5
3	4	1
26	27	8
86	86	9
92	133	1
1	47	2
103	104	7
49	49	2
47	48	3
119	119	8
49	81	6
37	38	4
7	21	2
48	48	6
73	73	6
66	66	6
41	81	2
55	55	4
43	43	5
33	62	2
75	75	11
10	98	1
80	80	2
20	22	3
61	76	3
20	25	5
12	12	19
2	3	1
117	120	2
29	32	5
32	80	1
106	108	2
29	29	4
132	133	2
17	120	1
84	85	2
58	58	7
124	124	8
69	69	7
19	46	1
84	108	2
21	36	3
65	69	3
44	44	3
70	70	2
33	34	5
26	30	4
87	87	9
56	57	1
83	95	1
95	100	3
40	80	2
84	101	3
98	99	2
31	32	9
99	100	6
10	19	1
6	95	2
131	131	6
67	67	8
26	26	6
35	37	1
78	90	3
15	20	2
120	120	5
90	92	7
31	31	6
9	11	4
70	71	2
84	95	2
78	82	1
83	91	1
25	26	2
16	17	3
0	0	6
112	115	3
65	93	1
81	83	2
8	76	1
114	114	6
69	75	1
109	116	3
11	90	2
35	45	1
85	116	1
112	114	2
24	26	1
60	60	2
9	9	3
131	132	1
93	94	1
108	109	1
2	17	1
117	117	1
55	124	1
28	29	2
93	93	3
4	5	2
95	96	4
89	89	5
29	30	2
91	108	3
6	27	2
30	32	2
108	128	3
132	132	2
14	15	3
25	125	2
92	130	1
71	72	3
95	95	2
87	88	5
110	111	3
11	93	2
58	59	2
73	74	6
91	92	1
130	131	1
5	5	2
28	90	1
15	43	1
9	99	1
28	41	1
88	88	2
113	115	1
114	115	3
8	22	2
45	56	2
3	8	3
94	94	3
134	134	2
49	60	1
11	31	1
11	47	1
17	18	2
5	6	1
27	29	2
96	97	6
115	116	2
93	131	1
121	121	3
2	2	2
24	83	3
105	105	2
115	115	1
34	68	3
85	86	2
62	79	1
38	40	3
107	107	3
68	72	2
70	77	2
11	26	1
23	23	3
68	74	2
104	104	3
20	61	1
116	128	2
62	82	1
83	88	1
8	10	1
46	48	1
64	65	1
75	77	3
96	98	1
93	100	3
26	49	2
19	20	1
118	124	1
6	36	1
40	51	1
126	130	1
70	72	1
108	110	1
44	45	3
78	89	1
28	48	1
35	36	4
57	60	2
7	33	1
95	99	1
18	44	1
12	27	2
90	122	1
43	60	1
127	127	1
28	28	1
84	94	1
1	1	1
92	125	1
1	2	2
109	111	2
106	121	1
86	97	1
5	7	2
93	130	1
16	35	1
14	30	1
82	113	1
124	125	1
7	100	1
36	40	2
92	105	1
28	33	1
29	49	1
104	105	1
93	101	1
56	81	2
118	123	1
37	37	1
96	100	1
23	26	1
