2	3	11
57	57	19
1	1	20
77	77	14
109	110	8
42	42	17
60	61	11
92	94	2
34	35	10
134	153	1
28	30	10
8	8	22
23	23	21
11	11	24
147	147	23
35	35	23
146	146	20
39	39	12
93	93	32
140	141	7
120	121	17
17	39	1
161	164	4
92	92	10
133	134	5
28	28	35
150	159	5
118	118	17
91	93	10
125	125	21
71	72	16
123	124	13
53	54	3
2	2	24
141	141	19
15	15	20
89	89	12
117	118	3
171	172	4
163	167	1
143	147	2
58	59	9
24	24	21
9	9	19
67	113	5
137	137	30
14	15	12
129	131	1
144	144	19
136	140	2
33	33	30
53	53	7
5	6	9
151	152	14
101	101	28
31	65	1
77	80	1
146	148	3
4	4	24
151	151	19
10	10	29
68	111	3
16	17	5
36	90	4
161	162	8
176	176	16
133	133	25
36	36	28
27	28	22
120	120	12
67	68	14
155	155	15
114	114	16
1	6	2
21	22	3
38	38	39
30	30	44
179	179	12
25	26	14
167	167	18
128	128	13
5	5	23
104	104	14
135	135	15
115	115	21
78	78	14
142	147	4
80	80	19
99	100	4
14	14	28
172	172	16
17	18	11
85	85	16
65	65	20
123	125	3
156	157	5
154	155	16
56	57	9
118	131	2
117	117	16
113	113	12
136	137	9
164	164	9
96	96	10
124	124	11
121	122	11
106	118	4
40	46	2
74	89	2
143	163	2
163	164	5
119	121	5
158	158	16
143	144	10
63	63	19
20	21	5
59	59	13
161	161	10
165	165	12
66	67	3
74	74	11
26	26	30
31	31	24
103	103	7
22	22	21
50	51	12
1	2	11
132	133	4
73	73	17
55	55	10
148	173	4
57	59	5
27	89	4
105	106	12
43	45	8
94	94	18
40	40	22
44	45	10
107	108	4
167	168	10
148	148	17
98	107	11
112	112	11
37	88	1
121	121	10
145	145	10
55	56	4
169	169	22
125	127	6
103	106	3
32	32	35
96	102	2
127	127	11
44	84	3
14	36	6
149	149	27
61	61	19
34	34	15
170	171	13
23	24	8
0	104	3
159	166	2
131	131	20
132	132	12
130	132	5
168	168	11
97	98	10
60	60	10
110	110	12
153	153	27
24	66	5
26	89	9
27	27	34
150	150	28
74	75	6
134	135	4
159	159	13
123	123	21
95	95	27
25	25	24
16	81	2
46	46	7
56	56	8
41	42	9
102	102	36
3	3	13
9	16	3
20	20	9
7	85	4
7	7	21
16	18	5
96	97	2
36	95	4
8	9	4
151	153	10
83	85	3
42	43	8
21	30	3
17	87	3
106	106	20
174	174	14
11	12	6
144	154	6
16	80	4
109	109	12
98	99	3
170	170	16
36	37	21
32	33	16
151	157	3
180	180	16
29	29	25
99	99	11
38	39	6
177	177	15
92	110	2
87	88	4
4	5	10
108	108	16
150	157	2
68	68	8
50	53	3
20	23	3
116	116	10
7	15	4
131	133	2
59	60	4
141	142	1
13	14	15
30	31	9
7	8	7
167	172	1
122	122	13
178	179	3
134	174	1
24	25	23
147	170	1
154	154	22
2	9	1
18	19	5
119	120	1
42	86	3
62	62	8
117	131	1
6	6	33
166	166	25
5	84	1
39	41	8
71	71	9
29	30	2
102	103	5
52	53	11
107	107	17
31	87	4
76	76	3
115	120	5
16	16	25
117	130	3
173	177	6
142	142	18
126	126	18
130	130	15
106	107	13
10	11	5
22	24	7
164	165	3
35	36	13
124	125	9
13	13	34
163	163	12
105	105	12
118	119	6
119	122	3
19	19	21
141	174	3
31	32	8
93	120	6
9	10	13
22	67	2
138	138	13
135	136	10
90	90	22
137	138	11
156	156	14
41	41	32
79	79	16
33	34	7
147	148	4
73	88	1
43	44	11
32	73	2
134	136	7
0	1	8
103	104	15
146	164	2
93	112	1
7	37	5
101	103	8
110	111	6
84	87	3
66	66	16
122	123	3
150	151	4
4	102	1
61	65	2
102	107	2
1	5	1
113	114	4
52	92	3
88	108	1
64	64	14
50	50	12
39	40	15
23	29	3
119	119	32
51	51	19
75	75	6
12	15	2
28	29	10
65	66	6
73	75	8
76	77	11
125	126	6
83	86	1
88	89	9
160	160	21
88	115	2
21	21	15
178	178	15
162	162	18
81	82	12
66	74	6
150	156	2
127	137	3
175	175	9
5	120	2
135	147	1
37	41	2
6	8	3
37	37	12
30	68	1
161	163	4
135	137	2
23	67	2
43	43	21
37	90	4
150	158	1
84	85	11
157	157	21
169	171	3
111	163	1
91	92	4
81	81	17
90	130	2
100	101	6
31	34	1
109	111	2
14	168	1
173	173	18
126	127	6
85	86	6
94	95	10
95	96	8
79	80	7
13	16	3
129	129	14
18	31	3
84	84	7
141	143	2
33	35	3
68	70	2
70	72	3
15	36	1
111	112	5
134	134	13
76	78	2
136	136	23
149	178	5
52	52	13
56	58	1
83	83	10
67	67	11
13	40	2
98	98	10
100	102	6
4	12	8
108	109	5
40	41	7
96	106	1
8	32	8
3	4	11
100	100	4
115	116	4
111	111	11
62	65	1
54	71	1
109	116	1
63	64	8
158	159	13
72	72	16
147	165	4
86	106	3
12	12	10
17	17	24
26	27	8
151	158	5
92	138	2
168	169	5
104	105	3
0	0	8
51	53	2
152	154	5
93	94	3
8	86	2
21	25	1
18	18	17
149	174	1
31	50	3
118	123	2
177	178	5
157	158	7
40	42	1
54	55	3
2	43	1
118	128	2
155	160	5
166	167	12
118	122	6
164	166	1
18	22	2
146	147	3
10	22	1
19	31	2
83	87	2
44	44	11
12	24	3
171	171	15
133	173	3
118	130	4
82	82	16
139	139	18
11	35	7
131	132	7
2	5	2
179	180	3
138	139	2
30	100	1
49	49	2
49	75	2
154	156	7
10	14	4
15	16	15
14	37	2
121	180	1
73	74	8
90	94	8
101	144	2
77	78	3
53	80	1
153	154	6
52	54	3
66	73	4
142	163	2
148	149	5
134	154	2
163	166	5
74	77	3
11	15	2
64	87	4
4	8	3
128	129	4
7	9	1
62	63	6
115	118	1
65	67	2
145	146	6
119	124	1
27	40	2
152	152	14
40	86	1
91	91	6
36	38	4
18	41	2
0	10	2
86	86	15
81	83	4
140	140	18
97	97	14
18	21	5
127	128	5
88	88	11
16	23	1
74	76	4
155	165	1
75	76	4
27	30	2
104	106	1
87	87	11
18	32	3
70	77	1
45	45	5
127	129	2
31	73	1
58	58	3
11	14	4
84	86	4
24	26	5
81	85	2
57	61	1
29	106	3
6	7	12
14	28	1
78	80	4
89	111	1
101	102	15
155	159	1
153	169	2
6	10	2
19	23	3
176	180	1
145	154	4
5	9	3
103	105	3
147	164	3
58	74	2
173	174	5
126	129	2
63	87	1
4	6	1
153	156	2
89	90	5
9	11	1
98	102	1
174	175	6
3	15	1
64	65	3
118	120	1
171	175	2
65	74	2
6	34	1
114	120	1
129	132	1
91	94	2
2	7	3
25	27	1
126	147	1
7	84	2
15	21	2
102	104	4
0	31	1
22	23	2
143	143	11
20	24	2
20	42	1
38	40	3
33	90	4
166	168	3
129	130	4
142	143	2
95	100	1
122	152	3
63	65	2
17	27	1
55	57	3
12	34	1
160	161	3
26	28	3
125	130	2
162	163	1
126	149	1
130	131	4
61	62	5
43	46	1
132	175	2
38	41	3
157	160	1
159	160	3
155	157	1
89	129	1
94	96	3
172	173	2
112	114	1
39	44	1
122	166	1
51	52	1
145	148	1
152	156	2
80	81	3
139	140	9
54	54	4
66	68	1
10	35	1
28	105	1
16	22	1
36	93	1
106	119	1
104	108	2
18	24	1
14	82	6
45	46	4
107	109	5
90	91	1
20	41	1
23	92	1
114	115	7
12	13	1
110	143	1
3	5	2
1	3	1
58	71	3
31	33	1
112	113	4
156	159	1
143	145	3
59	68	1
15	80	4
90	127	2
61	72	1
165	166	5
24	92	1
152	153	4
134	150	2
157	159	2
29	100	2
133	137	3
86	98	2
58	73	2
92	93	2
114	137	2
1	8	2
122	126	1
26	30	2
17	31	1
123	141	1
24	67	1
14	79	1
113	151	2
3	8	3
17	22	1
142	144	2
19	20	2
9	30	2
3	31	1
37	40	4
14	17	1
58	61	1
80	85	2
91	127	2
19	86	1
8	11	2
7	11	4
14	16	2
18	20	1
23	25	1
11	22	2
34	36	2
147	163	1
151	154	1
2	15	2
21	41	2
2	4	2
79	81	1
15	31	1
15	84	1
103	108	1
66	75	4
109	117	1
149	150	1
155	156	1
68	112	2
72	73	1
54	77	1
115	136	3
17	23	2
121	124	1
112	115	1
86	107	3
103	109	1
22	111	1
23	68	2
142	145	3
89	115	2
85	105	1
90	110	1
151	156	1
21	87	1
111	115	3
167	179	1
55	59	1
11	19	1
28	32	2
26	99	1
168	171	2
65	76	2
7	16	1
65	117	2
94	97	3
21	85	1
16	140	1
88	114	3
3	102	1
2	33	1
142	169	2
72	74	1
122	124	2
50	52	1
34	37	2
102	106	1
123	161	1
90	93	2
123	126	1
116	126	2
2	101	1
125	147	1
167	170	1
59	61	2
135	145	1
7	10	1
3	9	1
4	15	2
123	128	1
60	65	1
146	165	1
170	175	1
55	71	1
122	161	1
18	43	1
5	8	1
120	153	1
153	167	1
2	6	1
116	117	3
82	85	1
27	99	2
4	20	1
82	83	1
68	71	1
106	116	1
35	39	1
95	139	1
23	27	1
63	84	1
78	84	1
21	88	1
176	177	1
168	170	2
5	42	1
139	150	2
91	124	1
123	140	1
112	150	1
40	43	1
174	178	1
37	38	1
27	97	1
150	152	2
99	107	1
19	24	1
17	68	1
111	113	1
129	138	1
150	154	1
57	58	1
103	121	1
38	100	1
126	133	1
