209	209	7
105	107	2
9	10	5
160	160	12
62	67	1
198	199	11
34	34	10
90	91	10
45	45	17
27	110	2
196	196	8
199	200	7
7	7	18
31	31	11
235	235	4
163	164	4
64	96	4
164	164	5
238	238	14
192	192	21
81	81	8
43	44	6
174	174	9
246	246	9
167	167	20
59	71	10
19	19	16
105	105	10
108	108	12
68	68	22
3	5	3
38	39	1
28	54	5
108	242	2
77	79	6
5	5	7
11	11	22
101	102	5
44	116	2
188	211	6
236	236	10
211	211	25
234	234	19
145	169	5
89	89	6
208	208	8
240	240	20
166	166	19
168	168	11
50	51	8
175	204	1
11	38	1
104	104	7
106	107	6
101	113	1
38	38	16
245	245	15
61	61	3
54	113	3
180	180	1
101	101	4
66	66	15
195	195	7
32	32	8
189	190	4
90	90	7
40	58	7
230	231	5
156	164	1
197	237	5
186	186	10
202	202	11
179	180	5
91	105	3
200	200	12
65	65	19
161	169	2
64	114	4
207	207	8
115	116	1
31	157	1
19	200	2
175	175	14
62	85	1
31	35	3
50	50	3
79	79	3
196	217	2
99	99	9
212	212	29
113	113	20
176	177	18
106	117	3
55	55	3
116	116	13
52	52	8
215	239	2
47	47	9
18	20	4
187	188	5
229	230	1
166	174	7
100	100	17
71	112	1
44	93	1
191	192	13
187	187	15
158	158	15
239	240	9
55	92	1
75	75	6
6	19	2
1	1	8
178	178	8
217	217	14
233	233	6
237	238	7
244	244	21
220	220	10
225	231	1
82	82	3
94	94	8
26	26	11
249	249	3
201	220	1
107	107	7
43	173	7
22	52	3
113	117	6
216	217	2
116	117	2
48	119	9
37	37	27
24	24	9
159	159	12
112	226	3
156	156	10
150	150	21
10	10	8
58	58	19
182	182	14
152	152	8
219	219	10
38	40	3
243	245	10
72	72	6
110	110	11
201	201	14
57	64	4
102	102	4
53	53	9
181	182	2
153	231	2
157	232	2
190	246	7
71	71	18
94	99	11
151	151	14
48	48	5
21	21	10
179	179	20
55	113	2
112	118	11
99	101	3
215	215	8
183	185	6
112	112	11
211	212	7
95	95	15
151	229	2
222	222	4
171	181	3
209	213	5
47	117	3
98	98	21
105	106	5
205	205	15
89	183	1
228	228	19
71	74	5
193	194	8
48	112	1
203	203	18
61	62	3
12	12	5
103	103	5
109	109	6
3	3	6
188	188	16
172	172	10
20	177	2
176	176	21
106	106	4
72	86	5
53	54	7
237	237	23
37	38	9
9	9	10
191	196	2
22	22	13
170	170	13
159	160	4
229	232	2
6	17	5
217	218	8
39	71	4
184	196	2
169	169	17
44	44	13
70	86	4
3	17	1
84	85	4
119	119	12
175	176	3
228	229	3
245	249	2
69	70	22
241	241	16
63	63	12
54	54	20
149	149	4
78	78	10
184	184	11
214	215	6
14	18	4
15	15	7
76	76	15
184	245	2
209	241	3
108	237	5
45	183	3
36	61	5
6	196	2
54	227	4
236	240	2
55	118	3
35	36	4
17	17	4
161	161	14
117	117	7
18	19	10
16	16	13
177	177	13
60	226	4
81	82	12
100	118	4
6	36	3
104	107	4
186	198	8
3	218	8
191	194	5
215	217	1
30	31	5
91	91	4
85	85	8
171	172	9
163	163	16
4	4	16
41	41	9
230	230	8
39	39	4
210	210	7
115	115	6
58	64	2
67	67	8
54	55	1
62	78	5
113	114	9
225	225	7
243	244	2
193	193	10
168	225	1
119	145	1
218	219	1
56	56	6
69	114	2
163	185	2
23	144	3
116	180	3
144	146	1
82	89	1
42	43	3
2	48	3
198	198	8
25	25	3
239	239	11
204	205	4
14	14	7
72	73	3
194	195	1
155	155	22
176	191	2
173	173	4
42	214	1
197	200	1
166	179	1
29	30	8
213	213	16
102	237	3
42	224	2
92	93	2
45	46	3
87	88	6
162	162	7
206	206	9
43	43	5
190	191	3
173	174	6
192	240	3
47	63	1
204	204	8
42	85	3
12	18	4
67	96	8
230	232	2
60	60	6
93	93	6
183	189	6
207	209	5
47	245	2
111	111	12
78	79	2
112	113	2
199	199	27
184	185	8
35	35	6
7	230	5
173	178	1
191	243	2
169	177	3
70	75	2
63	100	3
190	190	8
20	88	3
194	194	14
24	25	3
165	183	1
43	183	5
120	120	10
69	243	1
88	88	5
153	160	2
57	58	6
73	73	3
168	189	5
218	218	7
73	74	9
197	197	4
221	222	4
181	181	3
223	223	4
20	20	10
56	113	3
223	230	5
91	106	2
23	229	3
166	239	3
40	40	11
208	239	3
229	229	5
76	77	4
224	224	5
153	153	4
45	151	2
194	196	1
2	107	2
75	77	3
206	207	1
14	218	3
153	154	5
57	57	6
49	172	3
96	115	4
121	121	3
153	171	3
99	108	3
49	49	10
11	12	4
170	171	2
70	70	5
2	3	4
146	146	1
161	162	4
111	112	3
79	84	2
21	161	4
27	27	5
158	161	2
194	212	2
151	163	3
20	22	1
224	225	1
101	112	1
57	60	3
101	108	1
118	118	7
166	181	1
18	18	7
79	80	2
174	176	6
208	209	9
17	23	1
240	241	1
236	245	1
51	85	1
234	235	4
30	30	4
36	36	8
0	0	4
35	50	3
45	53	1
71	72	1
216	219	4
210	242	1
86	90	2
96	98	4
102	157	2
145	145	5
84	84	7
214	214	17
154	154	4
227	227	12
219	220	2
79	81	3
48	49	8
41	42	2
62	62	5
42	42	9
97	98	9
193	197	2
72	111	2
46	46	8
42	88	4
64	64	10
71	111	2
65	66	7
110	118	2
114	114	11
178	211	2
46	53	1
188	207	4
210	211	6
49	50	3
157	158	3
217	248	2
10	32	3
55	65	1
72	74	5
45	116	3
202	203	2
33	34	1
188	189	1
95	96	3
96	96	13
48	181	4
215	218	1
9	201	1
209	240	4
66	116	2
213	218	1
119	120	4
237	239	1
114	119	2
115	181	3
163	184	5
185	186	1
2	2	9
148	238	1
20	98	1
150	152	3
160	165	5
223	229	5
205	206	4
171	177	4
212	218	3
10	26	2
110	183	4
207	208	4
163	165	4
174	179	3
23	23	8
197	199	2
104	112	3
78	91	1
59	64	1
183	184	5
161	168	3
215	248	4
201	222	2
171	178	2
33	105	6
213	214	1
75	76	2
157	157	4
213	240	2
216	216	7
12	143	2
212	240	5
221	221	6
242	242	12
83	91	5
4	13	5
236	239	2
91	92	4
179	183	1
115	118	2
208	213	3
19	20	3
165	165	8
33	198	4
88	89	1
232	232	2
247	247	8
42	45	3
146	163	1
52	117	1
74	74	5
42	184	1
209	210	2
33	33	9
191	191	2
99	100	4
64	65	1
226	227	1
110	111	5
40	201	1
181	246	1
187	211	1
214	240	3
181	245	3
42	216	4
221	244	2
150	201	2
213	241	1
34	104	1
77	77	4
87	87	11
15	16	2
189	192	3
171	171	1
48	97	2
193	215	2
180	181	2
165	180	5
3	26	1
80	80	5
80	82	5
5	15	5
60	61	5
195	196	3
149	187	2
185	185	8
151	219	2
48	60	3
157	160	5
106	118	4
33	92	1
33	77	1
162	183	3
158	177	3
168	186	1
98	105	2
51	59	3
14	15	1
182	238	1
243	243	1
60	74	4
81	84	5
12	16	1
188	198	1
52	53	2
35	51	2
59	59	5
245	246	8
110	162	2
56	64	2
76	80	2
51	56	1
64	66	2
185	197	2
21	22	1
214	237	1
245	247	3
243	248	1
236	237	1
28	36	1
183	183	5
152	163	1
182	237	3
231	231	5
231	232	4
196	238	5
102	107	2
84	88	2
183	187	2
168	246	2
185	198	3
183	186	2
80	81	2
6	6	7
166	180	3
52	119	2
155	180	2
8	16	1
112	144	1
65	93	1
67	68	2
185	193	1
47	48	2
224	237	3
159	174	4
2	18	2
196	213	1
70	111	1
182	183	1
1	29	1
72	120	2
67	116	2
21	231	4
84	91	1
101	159	2
60	75	2
21	24	2
13	37	2
4	5	1
145	155	2
85	234	2
60	98	2
241	242	2
67	101	1
214	247	3
190	192	3
37	97	4
51	51	3
28	28	3
53	113	4
97	97	2
79	95	1
220	224	2
21	42	3
219	246	2
203	204	3
117	118	2
67	85	4
246	247	1
178	184	2
20	104	1
103	104	2
193	195	1
238	239	5
6	216	1
102	103	4
99	102	2
10	28	1
215	245	2
174	175	1
67	100	1
102	159	1
163	169	1
114	116	1
189	189	5
43	234	1
181	192	2
196	210	3
186	212	1
101	231	2
226	226	6
147	147	3
112	119	1
166	226	1
115	120	1
220	221	1
60	63	2
53	177	2
63	66	2
96	105	1
1	221	2
82	86	2
35	40	2
45	232	2
152	170	1
60	72	1
83	83	3
154	155	1
26	38	1
7	51	1
3	10	2
21	33	2
194	211	1
109	241	2
46	233	2
71	87	2
44	183	2
81	85	2
99	103	1
16	234	2
37	119	1
8	8	2
1	19	1
194	236	1
62	63	1
114	115	3
82	83	2
98	117	1
150	190	1
185	201	2
44	212	1
190	229	4
17	26	1
242	243	2
63	99	2
57	61	1
3	4	1
105	118	1
225	232	1
167	190	1
158	203	3
29	29	1
6	24	1
158	159	2
56	229	2
244	246	1
96	116	1
224	232	2
98	103	1
247	248	1
186	189	3
34	35	1
22	230	1
76	102	1
33	52	1
0	1	1
69	69	3
40	45	1
211	242	1
200	201	1
178	179	1
176	246	1
76	108	1
161	234	1
97	112	3
212	235	1
231	243	1
94	95	3
101	230	1
12	39	3
11	16	1
84	95	1
182	199	1
192	194	2
48	51	3
31	219	1
27	67	1
75	86	1
63	248	1
60	102	3
203	205	1
38	214	1
157	159	2
70	84	1
181	204	1
48	246	1
48	61	1
107	111	1
21	41	2
55	56	1
24	51	1
40	60	1
171	179	1
53	172	1
53	117	4
147	156	1
72	82	1
162	167	2
2	103	1
86	86	2
85	86	1
48	95	2
55	57	1
191	217	1
7	9	1
50	62	1
33	63	1
211	238	1
66	67	1
158	169	1
162	163	1
169	171	1
215	249	1
227	229	1
71	75	2
22	27	1
58	108	1
241	244	1
150	171	1
181	247	2
160	161	1
202	206	1
190	247	1
61	102	1
104	106	2
152	154	1
196	197	1
70	96	1
74	84	1
26	244	1
47	87	1
180	211	1
27	114	1
30	101	1
218	241	1
62	76	1
173	207	1
189	196	1
93	94	1
11	22	1
164	165	1
176	181	1
4	219	1
