84	84	10
27	53	2
75	75	9
151	151	3
79	80	10
118	118	6
77	77	7
115	116	6
23	23	8
154	154	5
138	138	13
40	42	5
56	63	1
32	34	8
99	99	8
32	32	4
144	147	1
3	31	2
13	13	6
142	142	10
91	91	4
65	65	4
18	18	5
7	7	8
28	40	3
17	17	11
3	3	20
99	100	6
121	122	1
71	71	5
134	134	11
107	108	2
67	71	4
37	37	6
108	108	6
152	152	6
1	1	4
2	31	3
132	142	2
113	122	7
30	52	4
16	16	7
87	87	9
87	89	3
11	11	4
4	4	15
144	145	6
149	150	3
129	129	8
88	88	7
38	158	3
82	82	14
86	86	7
27	27	5
2	2	10
7	140	4
120	120	7
127	129	1
83	84	6
20	20	6
128	128	5
51	157	2
156	156	11
67	67	4
89	89	4
137	137	16
123	138	4
120	145	7
29	30	4
39	48	1
42	43	6
86	87	7
146	146	2
141	141	7
5	5	8
96	96	8
35	35	5
15	15	9
136	137	6
55	148	3
143	143	5
23	140	6
106	106	9
125	126	4
40	40	7
98	98	9
117	118	6
116	141	3
28	133	1
42	42	4
68	68	7
123	128	3
39	43	1
97	97	5
111	126	4
121	121	3
81	81	2
118	143	2
131	132	4
30	30	6
48	48	4
116	124	6
103	103	6
140	140	8
37	38	8
64	67	2
108	109	2
138	139	2
80	82	3
147	147	6
91	92	1
54	138	4
9	11	6
116	116	12
24	26	3
112	112	6
127	142	2
16	117	1
86	89	1
105	107	2
41	41	8
54	54	9
10	42	5
31	32	8
39	39	4
157	157	9
43	45	2
29	29	1
21	22	4
139	140	4
141	143	5
73	73	10
112	143	1
90	90	6
53	54	6
104	104	3
9	120	2
132	132	9
24	24	15
125	125	5
46	64	2
113	115	4
107	107	5
119	120	3
101	101	9
114	114	2
15	16	2
78	82	2
20	32	2
139	139	3
43	43	6
64	66	1
78	78	11
66	66	8
144	144	4
25	25	6
33	33	5
153	157	2
1	6	1
31	31	4
110	112	2
25	26	1
14	15	5
92	93	1
148	148	2
122	127	3
64	65	1
19	20	3
54	156	1
49	49	4
82	86	1
150	151	5
80	80	3
158	158	3
90	91	5
130	130	5
69	70	2
46	46	4
93	93	8
1	5	2
65	66	2
15	117	5
69	71	6
153	154	3
100	100	2
136	136	4
56	68	3
117	117	8
14	50	2
45	45	1
123	123	7
0	0	4
155	156	5
141	145	4
80	81	3
34	37	1
66	149	1
85	104	4
145	145	3
94	94	4
93	94	2
117	120	2
125	136	1
124	125	4
3	4	3
40	41	3
121	141	1
140	141	1
81	82	4
44	44	5
4	19	2
27	51	3
36	36	1
84	88	1
17	36	3
135	137	6
157	158	2
28	29	1
3	47	4
49	52	1
72	72	5
47	49	3
108	112	1
81	138	2
38	39	8
14	39	1
26	26	7
81	83	5
142	143	3
50	50	3
88	90	4
77	103	1
54	55	4
20	26	1
1	2	1
130	131	4
4	5	1
55	55	4
126	127	1
33	35	2
5	44	2
8	8	1
83	83	3
150	150	2
102	102	1
62	64	2
122	140	1
1	4	2
27	52	2
23	152	3
149	149	6
110	134	3
38	38	2
111	112	2
0	1	1
117	124	2
146	148	3
124	156	1
19	38	1
127	127	3
79	79	2
45	48	2
24	25	1
20	21	1
3	29	1
25	28	1
29	35	1
123	124	1
92	92	1
82	99	1
30	32	1
107	111	2
27	28	3
21	21	3
121	123	1
52	52	5
94	128	3
146	147	1
33	34	4
9	9	4
6	6	2
19	124	2
88	118	3
69	69	1
31	37	2
21	155	1
127	154	2
63	64	1
108	113	1
55	56	1
135	138	2
89	90	1
155	155	1
132	133	2
154	156	2
67	69	1
31	36	2
49	50	2
79	130	3
103	121	2
153	153	1
35	36	2
122	122	2
51	52	1
116	139	1
53	125	1
100	101	5
16	18	1
2	5	1
68	89	2
10	11	1
115	115	2
134	135	1
19	19	3
18	38	1
57	70	1
18	20	2
15	53	4
28	28	1
129	130	1
63	63	1
7	8	2
131	134	1
21	24	1
89	91	1
53	96	2
113	113	1
65	77	1
48	52	2
101	102	1
53	53	1
151	152	1
26	27	1
145	146	1
70	94	1
51	54	1
61	61	1
126	126	3
70	70	2
94	95	1
0	2	1
88	91	2
93	95	1
128	129	2
13	14	1
47	47	1
104	105	2
113	114	1
100	151	2
100	102	1
119	119	1
5	6	2
141	157	1
9	10	1
125	134	1
109	109	1
105	106	2
133	133	1
110	144	1
152	153	1
10	10	1
19	21	1
129	135	1
84	86	1
114	115	1
63	68	1
51	129	1
117	123	3
28	132	1
89	92	1
88	89	2
79	106	1
124	151	1
152	154	1
