55	55	24
91	91	25
80	80	22
88	88	7
85	85	18
32	33	12
76	76	42
72	72	31
67	67	31
68	69	10
61	61	24
50	50	35
48	48	44
42	42	58
42	43	22
95	98	3
86	87	13
44	58	4
60	60	27
83	83	6
47	48	5
31	31	9
56	57	6
41	41	39
53	54	9
56	56	26
71	72	12
46	46	25
64	64	34
34	35	16
57	59	3
84	88	3
61	62	7
66	66	40
98	98	11
77	77	20
60	61	23
71	71	21
64	65	11
74	74	25
79	80	11
49	50	18
40	40	31
94	94	14
43	66	7
45	68	7
52	52	31
72	73	3
28	29	3
95	95	12
99	99	29
87	87	9
36	37	17
32	32	2
63	63	28
70	70	28
37	37	6
75	75	21
35	35	19
73	73	24
58	58	10
57	58	6
86	86	25
81	82	14
35	36	10
100	100	4
90	90	17
64	67	2
42	44	6
79	79	4
41	77	1
47	47	10
89	89	25
69	69	14
58	59	15
102	102	2
82	83	3
58	61	2
28	28	6
57	57	18
65	66	19
52	71	2
48	50	8
44	44	39
26	98	3
30	31	6
34	34	9
81	81	12
51	51	26
37	38	5
24	24	12
22	30	1
96	96	12
53	53	10
97	97	18
25	29	3
49	49	29
80	81	14
95	99	3
59	59	16
84	84	5
92	92	18
27	27	5
39	40	2
94	96	2
93	100	3
52	53	6
45	45	18
38	38	8
54	54	18
26	26	8
62	63	3
66	67	5
55	58	2
85	86	12
58	101	2
101	101	31
62	62	14
78	78	28
98	99	2
100	101	9
75	76	11
65	67	2
43	43	14
52	55	4
24	25	2
94	95	1
44	73	2
29	33	7
36	36	7
71	73	4
80	88	2
100	102	4
38	39	4
68	68	26
85	89	1
44	50	3
87	88	3
73	76	1
99	101	1
22	23	1
88	89	5
91	92	8
47	62	1
33	33	9
29	100	3
60	72	3
63	64	12
41	42	23
45	67	1
93	94	6
35	39	1
30	30	2
67	68	7
81	93	4
73	74	4
39	39	9
59	69	1
95	97	3
59	60	5
91	93	2
42	90	2
24	26	11
63	65	6
94	98	3
74	75	12
59	63	2
32	64	2
65	65	22
93	93	22
84	86	2
34	80	2
99	100	9
80	86	2
23	23	7
34	41	7
81	83	3
86	88	6
35	94	5
48	90	1
87	98	1
47	49	2
45	76	4
45	46	6
34	51	1
78	80	1
32	80	4
56	62	2
43	48	2
41	43	7
69	74	3
51	53	3
54	55	7
82	87	1
45	91	1
76	77	5
26	27	3
27	98	1
25	26	2
25	25	4
65	71	1
60	62	3
44	45	2
35	44	1
23	33	5
51	62	1
80	83	4
77	78	4
31	33	1
32	92	3
55	59	1
97	98	7
67	76	1
31	81	1
70	71	6
48	49	6
33	50	3
83	85	3
95	101	3
71	99	2
31	92	1
46	47	4
90	91	4
42	75	1
84	87	5
52	62	2
50	52	5
83	88	3
50	51	6
30	78	1
61	63	1
42	76	2
22	22	1
91	100	2
66	77	3
51	52	4
95	96	1
68	70	3
89	90	1
34	39	1
55	56	2
70	73	1
47	50	2
29	29	1
32	34	1
40	41	2
59	72	3
69	72	3
88	95	3
67	77	2
35	45	1
29	30	1
56	63	1
70	74	1
46	62	1
45	48	1
58	77	1
31	32	1
62	64	2
58	60	1
36	95	2
24	27	3
69	71	1
83	87	1
20	27	1
101	102	1
78	79	1
37	94	1
82	82	1
34	44	1
92	94	2
45	73	1
84	89	1
44	48	1
43	51	1
