112	112	1
128	143	3
146	147	6
135	135	5
81	82	7
44	45	9
33	34	3
74	74	12
48	48	12
110	111	4
81	116	3
133	133	7
64	64	6
47	49	1
100	100	6
18	58	1
86	120	2
74	76	3
75	77	5
68	71	4
14	14	2
136	138	5
1	1	12
150	150	3
44	49	2
76	76	6
164	164	7
17	17	2
41	89	7
111	111	9
167	167	3
10	10	5
116	119	3
52	52	7
159	166	4
25	25	4
83	83	15
13	13	15
92	93	1
82	84	1
65	72	7
53	54	2
20	26	2
120	121	4
11	27	2
72	72	8
28	28	10
127	159	6
43	44	3
103	103	3
16	17	2
109	110	5
138	140	4
56	97	4
63	63	4
151	151	3
104	104	6
27	55	3
117	117	9
4	4	3
123	123	2
58	58	3
26	90	1
2	2	9
166	166	6
121	121	4
138	138	8
5	5	5
38	38	3
125	125	6
88	92	4
17	18	2
41	41	1
38	48	1
56	148	2
43	79	3
62	62	3
168	169	1
25	38	1
42	42	6
128	128	4
69	70	7
1	2	7
0	0	7
85	112	1
40	41	5
23	46	2
98	98	5
162	162	5
163	163	5
164	165	1
44	44	1
80	121	4
140	149	1
5	100	3
77	77	3
105	105	7
63	69	1
14	15	9
159	159	5
77	80	1
45	48	2
67	67	2
15	15	1
81	81	2
35	56	2
22	22	1
152	152	3
75	75	10
78	79	8
10	11	1
51	55	2
36	36	3
23	23	11
9	9	5
104	105	1
145	145	2
0	1	1
129	129	4
125	158	3
93	93	3
128	129	3
90	90	6
50	50	4
53	53	5
21	48	2
156	157	2
88	94	3
82	82	3
24	24	5
102	104	3
97	97	5
132	132	1
34	34	2
79	79	2
137	137	2
16	16	8
160	160	2
88	99	3
102	102	10
134	134	3
86	86	7
114	119	3
140	141	4
163	164	2
141	145	8
169	170	4
110	110	3
169	169	2
46	47	1
147	147	3
149	149	5
22	23	3
62	71	1
56	56	3
21	21	1
143	143	1
36	76	1
143	145	5
66	66	3
146	146	4
161	161	3
39	39	4
149	150	2
52	53	1
112	113	3
57	57	5
157	158	2
46	46	6
13	25	1
35	38	2
34	35	3
78	80	3
96	100	1
0	2	1
68	68	5
22	70	1
71	71	3
77	85	1
73	73	6
44	54	1
12	12	3
91	91	1
10	94	2
124	124	2
11	44	2
20	67	1
64	70	1
131	166	2
107	107	6
136	137	1
121	157	1
83	84	4
119	157	1
100	131	4
139	140	4
20	20	5
78	78	8
73	76	1
101	158	2
25	26	1
100	105	1
105	106	1
103	104	4
141	141	4
40	40	6
65	73	2
165	165	3
101	102	2
118	118	2
36	43	1
133	135	2
142	142	2
106	106	2
35	35	2
137	139	1
101	101	2
141	149	4
43	43	2
85	85	3
9	12	1
102	109	3
48	66	3
105	159	3
80	113	1
7	7	4
115	118	1
153	153	1
168	168	1
111	112	5
170	170	3
6	6	1
135	141	1
88	114	1
17	47	1
129	130	1
16	24	2
13	15	1
113	113	2
38	56	2
92	94	3
21	68	1
63	65	2
80	80	2
14	17	1
161	162	1
156	156	3
3	76	1
73	74	1
86	89	2
153	156	1
111	157	1
101	157	1
73	79	1
124	125	2
108	108	1
49	49	1
91	108	1
99	99	1
62	63	1
86	121	1
9	71	2
140	140	2
11	12	1
152	153	1
58	62	1
85	86	1
122	156	1
11	26	1
27	27	1
84	85	2
150	161	2
131	131	2
136	136	1
139	150	1
164	167	1
86	103	1
8	10	1
9	91	1
84	118	1
116	118	1
144	145	1
64	66	2
76	77	1
82	83	1
10	44	2
3	3	3
72	73	3
81	83	2
66	72	1
89	91	1
37	54	1
0	13	1
88	89	1
121	122	1
166	168	1
151	166	1
87	87	1
65	74	1
37	37	1
