37	37	3
66	111	4
59	60	4
26	26	4
70	110	3
118	135	4
78	78	11
70	70	7
97	97	3
64	65	2
52	80	1
127	127	10
70	72	2
87	87	5
128	129	4
15	15	2
47	47	2
69	69	3
110	110	6
16	16	13
140	140	9
114	114	7
123	125	2
80	80	8
144	144	4
88	88	1
93	94	5
120	120	10
113	113	7
73	73	10
12	16	2
14	15	2
87	118	1
119	119	7
114	115	5
101	101	2
141	141	10
75	78	2
67	69	7
30	30	3
66	66	6
123	123	5
81	118	1
126	130	2
4	68	1
140	141	2
133	133	3
55	80	5
93	97	1
112	113	5
49	49	5
53	67	2
93	93	8
102	102	4
8	19	2
74	74	1
132	132	5
13	14	1
25	25	8
24	69	1
56	56	3
56	57	2
9	11	1
101	102	2
124	124	3
8	9	1
30	140	2
68	68	4
15	16	4
115	115	2
76	78	4
94	95	10
90	99	3
13	13	2
98	107	3
105	105	4
61	62	3
76	76	3
19	32	1
99	103	3
83	84	5
71	71	1
141	142	3
56	58	3
2	25	1
128	128	3
130	141	1
63	63	4
107	108	5
62	62	4
138	138	4
9	10	3
93	112	2
87	120	1
50	50	5
29	30	3
24	24	8
22	141	2
5	47	3
28	28	11
41	41	5
91	91	3
9	9	3
111	111	2
35	35	6
60	60	4
5	5	6
55	56	2
135	137	1
21	21	3
84	127	2
113	118	1
69	70	2
89	89	3
90	91	3
92	96	4
138	140	2
79	79	2
87	94	2
126	141	1
30	31	4
98	98	1
88	89	2
70	76	1
65	76	1
61	61	7
1	20	3
33	33	6
129	130	3
64	64	3
64	75	7
54	55	2
82	84	1
6	42	2
112	112	6
28	29	1
115	116	2
2	2	3
67	67	3
11	11	3
27	27	6
6	6	6
122	123	3
118	118	6
72	72	4
32	32	3
72	73	1
51	52	3
10	11	2
62	63	3
29	29	4
81	81	4
78	116	1
48	48	8
75	98	2
122	122	3
130	131	2
34	35	6
35	36	5
80	81	3
82	82	6
121	129	1
69	71	2
138	139	1
18	18	7
36	128	1
126	126	4
53	90	4
85	85	4
66	68	1
77	78	8
117	117	2
104	105	4
87	88	1
10	10	2
139	140	1
94	112	1
87	89	1
61	69	4
60	91	1
0	0	3
80	119	1
81	144	1
84	85	1
56	80	4
24	25	2
145	145	8
38	39	2
133	134	1
58	58	5
95	126	1
139	139	3
70	71	1
71	109	5
77	77	2
65	65	1
75	75	4
51	87	1
47	68	1
4	5	1
116	116	3
109	109	3
48	66	1
66	67	1
95	95	1
57	57	3
83	83	2
38	38	3
63	64	1
97	102	3
10	40	2
59	59	2
25	26	2
127	128	2
136	137	1
94	94	1
3	4	3
99	100	2
77	80	2
113	114	2
36	38	1
31	31	6
126	140	2
134	134	3
71	74	4
65	66	6
52	52	1
137	140	1
110	122	2
131	131	2
68	69	1
104	131	5
18	19	3
54	70	1
59	61	3
33	35	2
17	30	1
40	40	6
103	103	2
61	98	1
17	17	1
19	19	5
125	125	4
64	66	1
126	127	2
124	125	3
56	79	2
63	68	1
3	3	1
20	20	1
8	8	3
25	75	1
31	33	1
26	70	2
48	52	1
135	135	2
1	4	3
82	87	1
32	141	2
58	62	2
114	118	1
100	101	2
116	117	1
120	121	1
92	92	3
47	48	2
22	22	1
110	111	2
97	109	1
129	129	2
129	135	1
24	70	2
134	137	1
1	36	2
79	105	1
96	96	3
98	127	1
97	98	2
134	136	1
9	12	1
53	119	2
0	76	1
60	84	1
49	53	1
97	106	1
85	118	1
100	100	2
142	142	1
0	5	2
62	68	1
53	54	2
66	76	1
43	43	2
127	132	1
22	23	1
86	126	1
76	84	1
30	33	1
53	53	1
34	36	1
37	80	1
138	141	2
57	63	1
127	138	1
54	54	3
121	121	1
51	51	2
49	52	1
136	136	2
108	108	1
65	68	1
28	30	1
56	76	1
33	34	1
52	71	1
