119	119	5
65	65	8
120	120	4
64	64	4
62	63	2
20	20	3
134	135	2
58	58	3
68	68	3
113	114	7
70	70	8
123	123	7
60	60	1
89	90	6
81	81	4
114	115	5
67	68	3
89	89	1
9	11	3
47	47	2
2	12	3
79	79	8
24	48	1
72	72	10
78	78	5
83	83	4
4	5	3
64	77	4
91	91	5
95	95	4
101	101	7
112	112	2
98	98	7
109	109	3
63	64	6
7	7	1
72	83	1
29	29	4
16	16	5
44	44	8
101	102	2
21	21	2
83	84	3
18	18	2
96	96	2
90	90	3
84	110	2
108	108	1
129	129	5
100	110	7
85	111	1
46	46	2
104	104	5
60	84	4
124	124	8
54	54	3
6	21	1
112	113	3
13	62	2
1	1	3
128	128	5
131	131	5
122	122	5
106	106	9
79	80	3
111	111	1
66	66	1
66	69	4
65	66	3
82	83	7
135	135	2
99	99	4
70	113	1
45	61	2
124	125	3
75	80	1
80	80	8
57	115	1
50	50	5
22	22	5
6	6	2
100	100	3
111	112	6
3	3	4
53	53	6
56	56	4
106	122	5
23	23	4
133	134	4
86	123	1
55	56	2
107	107	5
99	100	4
60	79	3
130	130	6
97	97	1
92	92	6
3	4	3
54	55	6
63	86	2
80	81	4
69	69	9
42	43	3
134	134	2
34	34	3
25	58	4
13	13	1
67	67	5
91	92	2
70	103	1
127	127	3
125	125	10
25	37	2
37	37	3
63	74	10
103	103	4
107	109	1
115	115	4
49	50	4
61	62	2
65	72	1
63	63	3
14	14	4
114	134	2
86	131	3
96	117	2
52	53	1
76	76	6
119	120	1
35	37	6
64	87	1
36	65	2
87	122	1
86	86	4
46	47	4
133	133	6
4	14	6
103	124	4
77	79	2
121	121	5
69	106	1
87	87	4
4	4	1
132	133	1
126	126	1
16	17	2
24	24	6
90	101	3
104	120	3
57	66	4
132	132	3
93	93	4
66	85	1
71	72	4
117	117	5
0	76	4
123	133	2
61	61	2
116	132	2
71	103	1
62	62	4
86	87	2
25	25	5
79	82	1
56	57	1
129	133	1
85	86	2
5	5	2
110	111	1
26	26	1
52	52	1
102	126	2
12	12	3
105	105	1
95	103	3
38	38	1
45	45	1
92	101	2
31	31	1
109	110	1
59	70	2
0	0	3
27	27	1
25	33	1
26	36	1
94	94	2
35	36	1
87	88	1
88	88	2
78	82	2
59	83	1
113	113	1
110	110	1
9	10	1
102	102	1
77	78	1
128	131	1
116	119	1
97	98	1
70	72	1
13	44	2
116	116	1
12	14	2
73	73	3
80	120	1
34	38	3
30	30	2
18	43	3
84	84	2
66	82	2
2	2	2
119	121	1
63	87	1
66	112	1
69	119	1
108	118	1
54	81	1
90	91	2
33	33	2
106	108	1
64	65	2
86	106	1
69	70	1
36	36	3
96	100	1
62	64	1
35	35	1
124	129	1
28	28	1
65	70	1
