87	87	1
123	150	3
94	94	2
80	80	7
52	56	3
120	122	2
24	24	3
45	45	8
126	128	2
56	56	2
27	27	4
44	44	8
11	12	10
81	82	4
83	84	7
39	40	4
77	77	11
120	120	5
43	56	1
5	65	2
82	83	2
34	36	3
142	142	5
95	95	3
35	35	5
11	11	1
133	133	6
95	96	2
21	21	3
126	126	11
131	132	4
10	10	5
13	13	4
86	92	1
63	63	5
20	20	6
115	137	2
129	153	5
126	127	5
98	98	7
40	40	7
102	103	2
64	64	7
84	84	5
29	29	2
144	144	10
140	142	2
31	31	3
148	150	5
9	103	1
3	65	2
41	42	1
72	73	6
142	143	4
115	115	3
23	26	6
5	7	3
54	55	3
32	32	6
57	57	4
109	109	1
58	74	2
110	146	4
7	104	2
110	110	3
87	97	5
94	95	4
76	76	8
17	109	1
46	46	9
147	147	2
18	19	7
62	62	2
81	81	4
33	33	2
152	152	3
102	102	4
119	121	2
44	48	3
53	54	3
119	137	4
92	92	5
83	83	4
143	143	7
130	136	1
54	54	1
70	70	3
35	37	2
49	50	6
14	14	7
37	37	4
18	18	4
67	68	3
86	90	2
18	20	1
105	105	2
79	79	8
67	67	3
107	107	2
130	132	3
48	53	1
84	88	2
154	154	3
34	34	3
111	146	2
111	114	1
7	8	1
49	49	4
79	83	2
26	26	3
147	154	1
15	15	2
5	6	2
135	135	2
107	108	1
74	74	2
12	13	1
75	75	3
7	7	5
144	145	2
148	148	2
19	19	4
2	3	2
67	79	2
97	97	8
65	65	5
50	50	2
107	110	3
8	32	2
94	98	2
47	47	7
105	145	1
40	41	8
84	90	2
41	41	6
5	20	2
48	48	1
28	28	4
116	137	1
120	137	7
49	51	1
64	66	1
116	121	2
26	27	4
22	22	2
8	8	1
36	36	2
10	17	1
143	144	2
153	153	2
95	97	2
21	25	2
77	78	3
4	5	5
14	109	3
108	108	4
27	38	4
32	33	2
132	133	1
113	113	2
151	151	1
106	107	1
12	12	1
38	44	1
108	109	1
55	55	3
71	76	4
43	43	3
23	38	1
112	113	2
129	129	1
50	71	1
137	137	1
118	141	2
125	136	3
75	76	2
72	72	2
78	79	2
40	69	1
85	88	1
38	39	5
153	154	1
128	128	1
9	9	4
96	96	2
141	145	2
99	99	3
17	17	3
150	150	2
106	144	1
66	87	1
39	39	2
116	116	1
14	15	3
98	99	2
104	136	3
42	42	3
11	13	1
126	129	3
5	12	2
139	139	3
76	77	3
15	16	4
125	132	3
67	99	1
117	118	2
56	57	2
89	89	4
46	47	3
102	139	1
84	85	1
37	38	3
126	136	1
131	131	1
126	151	1
4	4	2
78	78	1
50	51	1
32	34	1
106	106	2
134	134	1
34	81	1
124	124	1
57	58	1
73	73	2
94	100	1
108	114	1
25	25	1
138	138	1
75	77	2
82	93	2
68	68	2
3	4	1
93	93	2
149	149	2
125	140	1
20	22	1
72	76	1
68	89	2
40	46	1
107	109	1
16	16	1
86	86	2
52	52	1
145	146	1
40	45	1
49	52	1
111	111	1
6	6	1
141	141	1
62	72	1
33	35	1
136	136	1
17	18	1
4	6	1
10	35	1
117	117	1
88	97	1
