89	89	32
147	173	1
192	192	58
219	237	2
99	108	1
17	17	27
47	47	38
33	68	1
218	218	43
239	239	42
19	19	52
67	79	2
79	79	51
189	189	59
74	74	31
37	56	3
170	170	64
95	109	5
5	81	5
167	169	6
198	199	36
183	183	72
58	59	15
108	108	19
106	107	16
240	240	97
155	155	88
239	244	3
203	227	5
62	62	32
151	151	77
159	166	5
55	55	33
37	72	5
212	212	64
153	153	80
53	53	31
45	45	49
55	57	9
188	190	9
157	163	2
197	198	19
157	160	10
111	120	4
225	228	4
240	246	9
161	163	6
184	221	5
64	66	7
166	166	45
11	34	6
66	66	35
74	75	5
107	108	6
191	194	4
69	69	32
201	201	82
243	244	24
6	84	2
35	45	2
207	207	42
74	197	7
1	2	14
6	7	17
73	74	19
48	48	43
192	194	9
198	231	6
246	246	67
242	242	73
53	226	5
97	97	27
169	169	56
56	62	1
166	167	20
191	191	56
237	237	62
154	154	83
110	117	4
220	245	3
184	186	8
161	161	67
179	179	80
109	109	59
184	185	14
7	20	2
178	178	54
6	6	33
194	194	46
163	165	11
175	175	65
8	8	49
9	62	1
79	163	1
22	207	3
241	241	56
157	170	5
165	166	26
185	185	69
108	238	5
190	247	7
70	70	19
230	230	69
65	65	25
117	117	48
186	186	90
191	192	23
211	213	12
79	80	26
75	174	3
154	155	11
158	158	53
153	154	15
110	111	22
226	242	2
209	209	57
244	244	62
44	44	40
162	163	11
78	78	39
41	41	45
233	234	22
229	229	66
168	169	27
29	29	29
21	52	4
181	197	4
61	63	13
220	221	12
187	190	12
97	109	5
190	190	35
164	165	12
88	89	7
232	232	27
119	119	37
202	202	82
188	188	72
1	1	30
164	196	7
211	212	18
40	41	8
190	195	3
168	168	61
245	246	21
210	210	22
152	152	42
214	214	39
231	231	48
27	27	39
208	216	6
34	34	35
58	247	1
75	75	21
220	220	57
207	246	1
169	170	28
184	184	56
236	236	75
152	181	4
145	145	39
25	35	6
157	157	51
10	10	39
158	159	23
193	207	3
85	176	1
6	30	4
100	179	3
66	95	3
216	243	1
53	114	1
95	97	7
119	120	10
111	169	1
210	212	9
112	112	45
176	231	1
196	196	60
186	247	2
245	247	12
48	60	2
233	233	60
102	102	23
36	36	43
156	156	91
215	215	56
101	101	42
111	244	6
159	159	58
37	38	24
116	117	6
182	186	2
32	32	35
31	32	21
179	180	22
109	215	1
115	116	34
118	119	22
35	35	53
26	32	7
53	56	1
197	197	54
200	200	89
185	212	2
154	178	6
150	150	78
234	234	44
76	77	29
201	237	7
216	236	2
160	160	53
215	242	2
146	152	2
7	7	56
178	179	26
108	237	3
82	82	41
213	213	69
203	203	98
74	92	3
23	28	6
78	98	3
94	104	3
206	206	53
196	198	2
112	202	2
30	204	1
214	222	1
11	11	27
21	22	9
221	222	23
208	208	69
163	164	52
100	100	43
98	98	37
68	68	53
225	233	2
245	245	43
205	205	81
214	216	4
31	31	39
227	236	6
222	222	31
84	225	1
109	112	3
14	14	22
95	95	47
213	249	1
221	221	38
157	164	3
175	176	51
211	211	55
236	243	2
18	18	20
163	163	38
83	83	23
20	20	17
72	73	9
56	56	32
236	237	23
199	204	2
54	55	10
51	52	16
26	26	34
236	240	4
69	164	2
34	47	3
227	230	7
193	195	21
67	67	55
14	15	10
248	248	33
15	16	4
81	81	36
215	233	3
177	177	53
145	164	4
225	225	39
38	54	1
39	48	4
77	77	28
86	86	19
45	57	5
230	235	2
30	30	24
197	199	5
177	179	2
244	245	22
178	182	5
32	34	5
84	167	2
186	193	2
55	56	27
80	82	12
104	105	11
90	97	3
230	236	5
10	79	1
219	219	48
231	241	3
110	114	3
168	193	2
166	172	2
185	238	1
43	43	45
68	199	2
226	226	33
167	167	58
69	72	2
176	177	29
167	232	6
213	225	3
2	2	18
220	222	13
106	115	2
87	116	2
152	153	15
193	194	38
110	185	4
157	158	25
46	46	34
11	59	6
118	118	70
17	35	4
58	60	20
4	48	1
234	235	21
226	227	28
96	96	36
176	178	7
81	83	7
60	60	31
193	193	39
228	238	2
155	236	4
168	170	7
173	173	60
187	189	3
220	246	6
45	46	12
153	157	2
3	12	9
20	23	2
204	204	80
212	220	1
238	238	43
52	52	33
46	47	6
86	99	4
42	52	1
165	177	3
242	248	3
25	39	4
235	235	56
155	156	19
4	5	18
181	191	1
182	182	54
209	210	8
225	226	21
9	10	11
30	34	14
59	62	7
54	65	1
153	191	1
171	179	1
160	165	12
162	162	58
16	235	2
231	232	20
228	228	46
229	230	9
66	69	6
107	118	2
208	239	2
5	5	18
76	116	4
65	67	4
12	62	2
51	51	25
223	223	47
186	191	4
162	209	8
232	241	3
10	46	2
99	99	39
178	184	1
84	182	1
166	168	6
91	92	11
63	68	5
217	218	10
4	60	1
212	230	2
182	183	13
42	42	39
89	97	4
107	107	35
221	235	1
23	48	2
119	237	3
64	64	36
150	156	1
216	216	44
71	72	18
20	27	2
105	105	29
171	171	60
57	58	26
118	236	6
203	204	19
234	236	5
99	119	1
184	199	3
157	162	2
115	115	38
218	219	36
88	88	20
224	224	42
84	84	35
54	54	51
61	61	22
108	117	4
199	234	5
40	40	41
198	198	62
62	63	14
186	187	14
9	9	33
164	164	65
49	50	16
158	163	6
15	21	3
84	87	1
99	178	7
151	154	3
217	217	56
90	90	47
39	42	5
101	102	6
195	195	49
100	101	16
96	107	5
52	53	16
165	167	9
95	98	10
187	188	12
53	55	5
206	207	15
210	211	21
22	23	12
174	178	8
7	10	2
208	213	10
82	104	2
218	224	3
58	66	4
91	97	3
187	187	61
105	107	10
22	22	25
70	87	5
180	180	59
112	114	10
227	227	37
177	178	16
149	151	3
100	104	4
68	70	18
180	181	21
180	248	4
87	88	23
26	27	8
116	245	2
7	246	1
61	62	16
67	68	18
23	23	38
111	112	11
31	48	2
87	87	21
224	226	5
117	118	21
154	233	3
150	155	6
1	173	1
2	11	5
243	243	54
73	73	39
110	205	9
157	185	5
195	220	1
171	177	4
114	114	36
11	228	2
28	28	47
226	230	6
85	85	32
11	152	2
165	174	3
147	165	2
169	213	1
57	117	1
16	16	20
186	195	1
10	160	5
169	215	3
39	39	24
15	15	22
39	40	8
47	48	4
24	24	32
64	110	3
246	247	15
168	210	2
62	85	1
91	91	35
165	165	50
191	209	5
199	199	64
10	52	2
105	109	1
168	202	2
187	191	5
149	149	12
103	103	21
49	49	36
13	13	11
16	17	8
199	200	35
72	75	4
159	160	32
173	180	2
41	42	10
191	243	1
202	235	2
114	172	5
215	216	14
194	195	28
226	229	10
217	220	1
156	160	4
90	95	1
116	116	66
208	209	14
172	172	49
114	116	3
31	35	3
75	97	2
190	219	2
79	93	2
65	66	8
177	180	5
213	214	25
149	225	1
247	247	46
106	109	1
241	243	8
25	34	1
176	176	42
207	209	5
244	247	10
57	102	3
167	191	5
30	35	4
71	71	56
227	229	3
63	87	3
189	190	21
188	209	1
146	222	3
172	173	34
183	185	7
110	110	58
60	61	18
189	240	2
145	249	2
42	43	18
240	247	6
77	118	3
169	172	4
80	81	8
230	242	3
115	156	5
168	191	4
113	114	18
175	177	14
173	227	1
37	37	25
183	216	3
165	185	2
22	59	3
175	229	1
26	36	7
26	110	3
207	238	3
57	57	21
59	59	34
152	179	1
184	190	6
30	58	2
185	189	2
174	174	56
112	120	7
222	223	22
79	81	9
184	238	1
82	185	2
101	103	4
4	15	3
185	186	22
4	4	22
89	92	6
105	106	8
76	76	30
153	187	1
32	33	13
164	197	1
111	236	6
95	96	9
172	217	3
243	247	5
188	210	2
32	35	1
48	96	4
165	209	3
38	39	7
43	44	28
196	214	1
164	166	11
231	238	1
201	206	1
42	51	3
188	195	4
57	59	4
55	58	4
35	42	1
3	3	18
97	98	8
152	176	1
84	96	3
107	115	3
115	117	10
38	38	27
230	231	12
241	244	3
75	76	12
93	93	30
172	185	1
202	205	3
150	151	28
63	63	21
120	120	17
186	224	1
50	59	4
48	71	7
192	196	2
192	193	5
9	19	5
112	117	6
84	176	2
150	152	1
77	95	1
100	103	3
33	33	31
186	194	4
218	239	7
93	94	10
50	56	4
70	71	6
205	214	3
54	94	4
191	216	4
153	180	3
229	231	10
31	49	1
80	80	26
190	191	17
76	83	8
209	242	6
212	213	29
52	244	5
29	30	4
7	169	5
202	222	3
150	230	3
106	106	21
5	14	3
155	216	2
70	176	2
111	243	3
49	63	2
158	160	7
249	249	7
79	85	4
50	74	4
9	42	4
218	220	3
17	53	2
113	113	42
207	208	8
117	120	3
243	246	2
227	228	10
55	59	9
64	170	1
158	245	2
179	181	10
101	116	6
12	16	4
33	67	2
48	50	10
171	172	7
179	210	1
16	55	2
169	178	6
21	21	29
25	25	41
114	115	20
192	195	6
52	91	2
226	235	2
157	159	13
60	66	1
83	84	11
102	105	1
169	198	6
88	91	1
18	19	6
184	191	4
94	94	12
160	162	3
160	161	4
163	185	6
62	113	5
81	82	12
151	153	4
241	245	1
11	12	4
34	81	3
11	16	2
115	242	1
65	217	3
36	37	3
223	224	18
86	109	2
12	12	14
246	248	4
68	89	1
26	30	2
30	236	6
242	244	5
229	232	3
170	171	19
196	241	1
6	75	2
38	49	2
58	58	21
171	190	2
171	232	3
168	172	3
18	42	1
62	65	6
181	182	23
145	158	1
56	57	15
94	105	1
27	44	5
76	96	2
68	71	6
50	50	21
17	18	14
30	177	3
167	171	7
96	103	1
239	241	9
81	170	4
102	103	21
200	201	8
62	92	4
8	9	16
118	145	1
25	26	7
108	110	3
175	178	4
239	240	7
238	242	5
196	199	1
78	93	3
188	189	25
4	9	1
174	177	3
238	239	21
232	233	11
43	202	2
150	169	2
39	55	6
194	196	4
193	196	1
220	229	3
108	109	3
185	191	4
201	220	4
40	228	1
146	216	1
147	147	22
111	111	33
110	115	4
73	77	2
231	234	2
109	110	17
181	184	9
85	105	2
237	240	7
70	199	2
224	234	3
183	192	5
171	175	5
86	94	5
6	36	2
174	175	11
184	187	5
144	145	5
204	239	1
37	41	2
173	174	15
90	107	1
68	69	12
17	20	1
75	86	1
230	234	5
202	231	1
66	172	5
69	78	3
151	152	3
35	53	9
165	184	2
167	173	2
49	89	2
213	215	3
93	95	2
90	103	3
37	90	4
3	84	3
57	72	3
3	4	5
100	102	3
245	248	2
152	161	8
179	209	1
72	72	22
118	144	1
155	206	1
50	102	2
244	246	11
183	184	22
165	179	6
214	215	17
79	180	2
226	233	3
168	173	3
91	106	2
166	169	4
97	99	11
71	75	5
194	246	1
206	209	3
207	220	3
23	41	2
175	181	2
202	203	17
205	206	21
184	200	2
210	213	4
15	20	2
103	104	3
59	78	4
162	174	1
110	113	2
181	181	51
158	182	2
118	120	3
48	56	4
159	171	2
2	42	1
6	57	2
162	165	3
155	226	1
92	95	2
203	205	3
175	179	2
15	19	3
11	180	2
26	108	3
178	188	6
5	7	3
39	47	1
220	224	4
24	26	2
26	88	4
204	236	5
77	78	6
240	242	7
193	212	3
168	175	3
31	34	6
151	156	3
59	60	17
224	225	9
182	206	2
180	197	1
175	215	3
181	244	1
173	201	3
22	26	4
59	61	1
237	238	10
151	202	2
99	100	6
58	95	3
49	83	2
50	58	2
211	247	2
5	12	3
53	54	10
96	97	9
51	173	2
231	233	8
161	162	16
50	63	1
184	202	1
8	52	3
44	94	5
44	60	3
240	241	19
159	201	2
44	45	15
69	77	2
166	197	2
176	211	1
67	70	7
76	168	2
73	75	16
166	174	1
40	60	1
18	29	2
111	114	2
198	233	5
28	180	1
214	244	1
156	165	6
75	94	2
189	191	10
197	200	3
168	207	2
116	144	1
238	240	8
84	85	6
151	160	1
108	120	3
159	179	2
171	237	1
57	69	4
84	111	1
36	43	4
6	8	4
10	17	3
36	54	2
212	223	2
68	88	5
145	155	1
186	196	2
224	238	3
119	152	1
115	118	5
149	167	2
33	35	2
165	169	4
67	90	6
9	35	1
12	15	1
218	222	1
67	73	5
86	96	1
77	108	2
208	222	1
85	100	1
177	236	3
63	65	7
207	227	2
177	188	3
92	92	26
216	217	10
207	217	4
170	215	2
236	238	8
175	193	3
48	68	2
55	110	1
146	146	9
17	84	1
168	180	3
177	209	1
223	225	5
54	57	4
19	232	3
182	208	4
34	50	1
107	119	1
201	204	5
35	36	8
156	182	1
77	82	5
55	80	4
65	72	2
38	67	4
111	119	5
170	177	13
109	176	1
221	226	5
52	85	2
209	217	1
242	243	20
174	180	1
212	249	3
89	90	11
14	50	3
160	163	2
7	55	1
167	180	1
27	28	18
219	220	5
150	157	2
79	86	3
108	236	4
167	172	4
27	38	1
98	99	11
239	248	3
3	5	8
151	204	3
247	248	16
156	200	1
7	168	5
9	16	4
171	225	1
5	99	2
219	241	1
165	192	8
61	74	7
2	4	2
186	216	4
44	46	1
16	115	4
5	119	5
170	172	5
104	104	12
86	111	4
116	118	2
79	82	5
150	235	3
15	59	2
88	90	3
37	39	4
80	99	1
18	37	3
8	19	4
21	24	3
228	233	1
223	229	2
161	165	3
195	214	1
147	150	3
204	205	9
77	79	7
227	234	4
62	64	5
66	99	1
25	88	2
21	27	6
82	108	2
159	186	3
4	12	3
196	197	6
79	97	2
186	189	11
167	181	3
26	203	1
79	104	3
15	17	3
198	200	7
94	95	8
75	95	3
237	239	6
171	233	1
151	159	4
55	107	2
228	229	10
31	204	3
72	86	3
31	33	8
219	221	1
205	239	4
189	199	4
181	183	4
240	249	3
150	153	1
94	107	5
171	196	1
96	98	10
66	71	2
30	53	2
185	209	1
22	25	5
209	248	3
194	242	4
81	84	1
94	97	2
7	8	11
184	218	2
57	60	5
171	213	4
189	214	1
162	195	4
206	222	3
145	205	2
8	151	2
238	243	1
162	180	3
160	207	1
195	218	2
152	167	4
15	208	2
120	145	5
242	245	1
3	19	3
187	241	1
162	164	10
51	53	2
162	179	2
180	185	1
158	196	1
73	168	5
188	237	1
24	25	4
27	180	1
101	112	4
92	93	18
179	211	1
6	25	3
171	231	1
47	60	2
184	189	3
11	19	5
7	145	2
61	119	1
201	202	8
5	20	12
18	20	1
19	21	3
152	180	2
109	204	3
5	6	4
173	178	8
82	107	2
157	165	2
66	67	6
57	96	4
152	166	4
38	50	1
120	203	1
4	209	1
183	193	3
31	46	2
235	236	9
163	167	2
41	93	1
200	203	2
180	183	1
41	51	1
194	197	4
80	102	1
66	86	3
173	205	2
198	210	3
194	216	3
240	248	1
154	161	2
240	243	4
104	107	14
186	209	3
167	168	7
210	240	1
150	202	3
174	185	4
111	152	1
72	76	3
16	24	2
90	91	7
170	179	1
84	101	5
80	98	2
221	223	3
184	188	2
115	120	2
180	189	3
50	51	5
15	18	2
243	245	2
205	226	3
6	9	1
209	211	2
67	75	3
145	231	2
155	227	1
178	198	2
158	176	2
209	213	3
37	48	3
215	217	8
108	114	3
170	174	5
204	206	1
45	114	2
183	237	4
216	218	5
197	204	3
112	243	1
200	207	1
185	246	2
24	89	1
118	249	5
153	162	6
9	12	4
54	115	4
54	70	2
203	237	6
77	90	3
43	107	1
5	13	5
172	174	1
47	52	2
74	119	3
55	95	1
218	241	3
28	29	6
188	218	4
44	51	2
177	195	2
156	197	7
208	238	5
156	157	10
57	61	5
8	32	4
41	43	4
38	110	2
31	36	1
169	211	2
34	37	7
72	74	4
2	5	2
236	246	4
203	236	3
37	50	1
220	223	6
235	237	3
23	206	1
17	24	2
97	105	1
152	193	2
29	37	2
172	181	6
45	47	3
87	100	7
156	181	4
159	178	1
97	100	2
80	164	1
79	83	3
165	181	3
14	19	5
230	240	3
15	61	1
189	192	4
2	37	2
167	188	3
45	113	3
195	226	1
168	195	4
155	180	3
222	226	2
24	203	2
172	228	1
203	222	4
23	78	2
227	237	4
191	228	2
193	224	2
215	246	5
49	60	2
153	161	2
156	167	2
0	55	2
154	234	1
152	238	6
152	210	1
116	248	2
110	236	1
14	30	3
229	236	4
183	195	2
166	179	1
220	228	4
172	176	1
72	84	3
175	184	2
42	186	4
76	118	1
25	28	5
159	161	3
166	213	3
166	173	1
28	93	3
55	62	1
87	94	3
92	98	1
50	72	3
44	54	1
64	65	7
113	116	2
224	247	1
195	198	2
60	112	2
74	76	1
195	196	7
49	51	2
12	39	2
156	218	3
91	102	1
97	184	1
38	47	2
167	241	1
9	15	3
113	115	4
215	248	1
39	227	2
45	61	4
151	172	1
179	182	2
14	33	3
102	108	2
156	247	1
20	21	10
201	213	1
74	171	2
68	153	1
98	110	4
75	87	3
12	18	3
181	214	1
101	107	1
65	91	2
213	231	1
226	234	4
20	32	4
31	62	2
34	51	2
179	213	2
18	34	4
62	96	2
25	32	4
115	248	4
203	210	2
226	228	2
169	171	12
151	155	1
52	171	2
153	202	3
157	183	1
6	38	1
115	154	1
219	246	2
67	92	3
154	182	1
99	109	4
30	37	6
19	30	2
4	11	4
28	35	1
225	230	2
147	157	1
151	206	2
63	88	1
160	184	3
20	38	3
19	83	4
186	192	1
190	239	2
201	210	1
193	198	1
172	188	1
86	88	1
48	58	1
87	102	2
11	58	1
49	111	1
71	76	1
169	182	1
193	219	3
183	236	4
111	113	3
203	208	6
2	3	6
201	205	1
32	43	1
6	43	2
71	73	7
96	102	1
63	64	4
2	18	4
175	180	1
177	231	2
119	156	2
181	209	4
248	249	5
95	99	1
61	155	2
11	17	1
208	245	2
20	41	3
105	108	4
34	35	9
120	121	1
159	162	3
84	106	2
50	53	1
178	181	2
2	7	3
220	226	3
90	92	1
230	232	8
187	212	2
241	242	11
173	175	3
36	38	3
165	170	1
51	54	1
30	108	3
1	34	1
85	90	2
207	212	1
93	99	1
153	197	1
186	188	4
208	210	2
198	201	4
144	168	1
172	234	1
183	210	3
33	36	2
177	183	1
153	195	2
46	52	4
157	210	2
190	192	2
101	108	2
176	179	7
164	188	1
198	204	1
17	27	2
1	8	3
82	83	7
175	245	2
178	223	2
29	35	1
55	229	3
78	80	2
176	196	3
85	86	9
170	189	1
64	67	2
179	212	2
8	10	2
15	86	2
172	177	2
157	179	3
69	171	3
205	207	4
158	248	3
171	195	1
82	120	4
194	243	2
145	152	2
161	179	1
196	239	1
69	89	2
78	79	3
6	150	1
28	43	3
164	169	4
72	80	3
65	78	4
35	39	4
112	115	3
76	102	3
70	75	5
112	244	2
101	214	1
11	52	1
3	23	2
176	181	5
44	101	2
186	223	1
212	231	3
32	36	2
174	176	2
24	27	2
230	237	1
160	182	1
214	241	1
179	203	1
85	107	1
63	66	3
112	221	2
54	83	2
179	204	2
20	25	1
37	76	1
162	211	2
148	164	1
144	151	1
168	174	5
169	183	1
145	186	8
112	113	11
44	100	2
19	20	7
51	223	4
183	186	1
230	247	2
218	221	3
115	119	3
43	45	1
51	65	1
200	212	2
157	246	3
101	184	3
220	244	1
71	74	1
6	21	1
110	150	3
85	87	1
12	32	4
187	194	2
28	46	7
10	80	1
185	229	3
152	196	4
220	231	1
67	87	3
244	248	2
161	170	1
158	164	1
74	84	1
21	104	1
78	104	3
3	18	1
153	158	1
177	215	2
86	87	4
50	69	3
101	197	2
8	168	1
229	235	2
228	231	2
102	113	3
81	104	1
199	201	2
178	180	1
162	204	1
8	16	2
95	100	2
3	116	1
56	93	1
28	54	2
24	43	2
54	156	1
163	171	1
9	112	3
3	20	1
224	228	1
25	42	1
41	46	1
76	226	1
168	183	1
169	180	2
37	58	4
192	236	1
75	91	2
201	228	1
149	217	2
219	244	2
62	97	5
15	36	1
93	110	3
14	73	3
204	231	1
227	245	2
64	68	2
95	101	2
51	67	2
185	219	2
71	82	3
32	54	6
164	173	1
90	112	1
156	183	1
30	237	1
77	110	1
10	12	4
186	205	2
159	211	2
76	119	4
8	12	1
89	91	6
5	109	2
164	246	1
105	111	1
158	179	2
158	183	3
60	111	1
59	94	2
48	52	3
199	213	1
33	34	4
7	38	1
173	226	1
74	106	1
199	207	3
54	58	3
2	14	1
43	51	1
14	80	3
151	231	2
178	185	1
204	226	3
193	246	1
239	242	3
31	226	1
4	20	1
194	247	2
117	150	3
4	7	2
83	107	2
79	164	3
202	209	3
197	203	5
156	170	2
65	83	1
151	180	2
54	62	1
16	52	1
235	245	1
111	118	2
182	187	4
202	213	1
88	102	1
164	213	2
48	53	2
32	114	1
53	244	1
114	117	1
206	211	2
152	157	1
162	220	1
195	216	2
173	177	1
216	239	1
145	153	3
1	6	1
22	29	1
174	181	3
23	26	2
152	165	3
60	62	5
22	38	2
34	39	1
18	30	3
22	61	2
72	79	1
21	31	1
205	208	1
199	203	1
144	144	7
2	84	1
166	171	3
10	15	2
54	167	2
192	215	1
215	244	3
162	172	3
22	62	4
202	204	1
22	24	2
170	213	1
45	56	2
29	113	1
208	214	3
10	59	1
149	150	4
85	110	2
102	104	4
198	221	3
104	106	1
161	172	4
62	67	2
104	110	1
225	229	3
51	97	2
68	90	1
146	158	1
152	174	1
76	81	2
234	237	2
226	240	1
105	119	2
166	189	2
23	61	1
164	182	4
178	190	2
210	225	1
9	70	1
166	170	1
115	230	2
87	113	1
177	193	2
60	247	3
33	116	3
26	35	4
173	231	3
156	202	1
201	231	4
145	209	1
229	241	2
40	91	2
226	246	1
70	110	1
189	216	4
26	28	2
197	218	2
66	109	2
66	70	2
205	225	2
21	90	1
217	222	3
183	220	3
213	242	1
51	59	3
171	217	1
34	60	1
33	57	1
216	247	1
146	156	1
46	62	2
30	87	3
43	56	2
145	161	1
185	211	2
1	29	1
114	249	1
197	227	1
43	227	2
142	142	3
176	213	1
237	241	1
29	114	1
85	95	2
42	56	1
55	66	2
16	29	1
50	62	1
145	208	1
162	171	1
199	235	2
167	205	1
162	168	1
107	109	1
211	229	2
156	158	1
59	109	1
12	35	1
174	182	1
54	59	2
2	76	1
67	89	2
185	220	1
159	196	1
46	87	2
209	247	1
33	79	1
164	209	1
47	56	1
228	230	2
204	215	1
202	220	1
20	86	1
224	229	3
70	111	1
74	88	1
187	217	1
164	170	4
92	94	2
183	214	2
14	152	1
58	99	1
14	25	1
182	243	1
156	163	3
222	232	2
93	117	1
184	236	1
74	78	1
38	102	1
110	203	2
229	234	1
175	185	1
66	114	1
195	244	2
191	202	1
77	105	2
71	176	2
81	102	1
50	52	1
23	24	7
26	87	1
62	114	3
146	147	6
94	241	1
108	239	4
86	101	2
156	207	1
47	62	1
46	56	1
15	82	4
168	178	2
191	246	2
52	69	2
214	242	2
19	41	1
229	247	1
7	199	1
1	9	3
187	210	1
194	249	3
150	205	1
9	26	3
69	86	1
72	78	1
177	181	2
8	11	1
30	38	1
192	199	1
29	121	1
165	236	2
163	241	1
36	55	1
160	164	3
210	214	5
179	220	4
204	235	1
52	159	2
216	244	1
44	106	3
54	61	1
17	21	2
94	101	3
9	17	1
182	244	2
117	217	2
34	38	2
2	117	1
165	247	2
7	162	1
199	208	2
58	61	4
97	179	1
222	235	1
114	215	1
41	55	1
85	103	1
196	200	2
213	226	1
150	223	2
62	78	1
15	46	1
167	237	3
96	99	1
180	199	1
46	67	1
199	222	1
100	116	1
220	236	2
83	86	2
217	237	1
145	157	1
10	159	3
77	92	1
63	113	2
231	236	1
49	56	2
40	90	2
208	211	2
39	69	1
70	72	1
190	196	1
93	98	2
91	93	1
106	116	1
34	49	1
63	78	1
15	44	2
87	90	1
201	229	1
216	245	1
42	45	1
211	220	1
202	207	2
150	160	3
5	48	2
168	214	1
117	248	1
28	31	2
172	180	1
6	11	1
63	212	1
52	59	1
89	100	2
232	235	1
29	33	3
210	223	2
17	57	3
6	51	1
118	193	1
11	14	1
199	216	1
46	60	1
68	166	1
153	212	2
201	208	2
191	248	1
85	111	2
169	212	1
30	119	2
3	49	1
91	98	1
163	170	1
165	176	1
217	239	1
111	116	1
61	65	1
4	110	1
204	207	3
200	202	1
167	186	1
171	216	1
83	111	1
75	119	2
11	18	1
85	182	1
27	175	3
168	181	1
56	58	2
79	98	2
81	105	1
21	44	1
121	237	3
110	112	1
57	65	2
17	209	1
178	202	1
160	198	1
176	208	1
217	236	1
154	158	2
80	105	1
73	76	1
164	239	1
180	182	2
12	13	1
64	227	1
80	83	2
219	247	1
154	186	2
75	88	1
167	212	1
165	168	1
76	88	1
31	67	2
42	47	1
10	11	1
179	219	2
178	222	1
68	73	1
187	192	1
63	93	1
14	18	1
156	180	1
182	193	1
67	175	1
168	240	1
70	104	2
91	105	1
164	247	1
58	195	1
194	207	2
5	15	1
69	70	2
158	221	1
31	205	1
28	62	1
37	53	1
29	146	1
155	201	1
6	10	1
156	162	1
38	43	1
69	71	3
35	51	1
38	90	1
64	115	2
175	182	2
4	30	1
221	229	2
192	231	1
199	248	1
24	41	1
146	150	2
14	216	1
104	119	2
186	244	1
82	152	2
147	154	1
177	232	1
161	173	1
222	245	1
35	47	2
114	145	1
166	194	3
170	209	1
169	177	1
12	14	1
4	18	1
152	155	1
104	112	1
17	110	1
16	47	1
247	249	2
190	222	1
75	113	2
197	225	1
193	203	2
85	197	1
178	199	1
77	99	1
57	62	1
40	48	2
76	103	1
35	66	1
25	89	1
56	72	1
27	59	1
183	198	2
109	205	3
66	68	1
31	65	1
237	248	2
191	215	1
40	109	1
204	220	1
22	79	1
149	159	1
219	236	1
55	214	1
168	246	2
168	177	2
40	119	1
147	152	1
114	151	1
69	76	1
222	229	1
111	245	1
167	184	1
12	44	1
206	212	1
95	111	2
13	15	1
195	197	2
50	233	1
78	207	2
203	213	1
182	184	3
106	110	1
4	109	1
166	191	1
65	113	1
156	179	1
214	221	2
194	217	1
32	116	1
56	60	1
48	101	1
218	243	1
168	186	1
161	201	1
70	89	1
106	108	1
44	62	1
78	85	1
193	197	1
163	245	1
112	242	1
158	175	1
167	170	1
111	237	1
75	89	1
161	182	1
107	111	1
89	98	1
74	120	1
154	204	1
150	161	1
24	33	1
74	87	1
28	32	1
51	99	1
29	31	1
233	236	1
204	234	1
82	85	1
37	110	1
5	11	2
12	19	2
151	161	2
9	52	1
147	164	1
188	193	1
7	41	1
215	232	1
198	238	1
40	59	1
188	221	1
156	159	1
3	6	1
52	57	1
69	112	1
158	241	1
65	75	1
205	224	1
151	207	1
77	89	1
17	19	1
14	231	1
104	118	1
49	57	1
78	109	1
176	189	1
171	191	1
76	78	1
3	48	1
205	212	1
15	49	1
233	238	1
158	181	1
149	164	2
26	188	1
11	57	1
212	216	1
204	217	1
169	237	1
119	203	2
3	207	1
165	180	1
34	147	1
171	245	1
56	90	1
30	47	1
20	46	1
5	31	1
37	47	1
172	244	1
5	50	1
75	99	1
93	96	1
225	227	1
46	64	1
50	64	2
25	44	1
55	194	1
200	206	1
88	93	1
180	208	1
72	98	1
97	107	1
29	54	1
3	111	1
3	29	1
173	221	1
69	90	1
8	33	1
47	118	1
116	244	1
169	184	1
23	156	1
19	23	1
214	217	1
