161	180	2
62	62	1
28	28	1
72	90	2
120	120	6
173	173	13
128	128	18
127	127	13
149	149	6
51	51	12
129	129	4
119	120	5
38	38	5
4	4	5
185	185	8
121	121	3
166	166	11
102	102	9
71	71	5
161	163	2
161	167	1
109	109	15
168	168	25
35	35	13
48	49	1
162	162	11
184	184	6
106	107	5
139	139	13
31	31	19
124	126	2
151	151	15
184	185	2
173	174	5
39	42	2
83	84	7
133	133	10
27	29	2
50	50	6
191	191	4
114	169	2
44	52	4
47	51	1
159	168	6
38	108	1
10	10	18
175	176	8
103	104	5
131	131	1
186	186	14
143	144	8
80	80	7
56	56	7
165	165	9
160	160	20
163	165	2
96	96	7
189	189	12
137	137	6
115	119	4
156	157	5
108	109	2
152	152	5
178	190	5
157	157	7
179	179	7
141	141	13
81	83	1
161	161	11
45	45	10
7	18	2
170	171	2
89	89	4
59	62	2
164	164	9
44	44	14
83	83	7
32	32	2
95	110	3
1	1	12
181	181	4
134	135	4
65	67	4
149	155	1
52	52	4
103	103	11
26	26	13
10	11	2
171	171	19
169	169	21
148	151	2
167	167	22
172	173	5
112	112	7
160	164	3
69	69	8
6	7	2
13	14	5
21	21	9
144	144	9
150	150	11
8	8	11
148	149	3
46	50	1
147	147	12
182	182	12
85	85	3
102	105	5
43	43	7
10	128	1
115	115	3
2	29	1
192	192	20
177	177	12
70	71	8
67	68	2
117	117	14
197	197	11
46	46	9
9	13	2
33	36	1
23	23	7
63	135	4
9	9	8
37	140	1
194	194	4
124	124	3
134	140	2
191	193	3
44	47	2
16	16	4
118	120	6
55	55	8
87	87	3
20	22	2
172	172	11
148	169	3
98	106	2
174	174	6
24	28	1
106	194	1
22	22	4
76	76	3
155	158	4
42	44	4
58	134	3
44	141	5
74	74	4
137	144	2
116	117	10
170	170	9
68	68	5
132	132	4
133	134	5
147	148	6
136	136	2
183	183	7
27	27	11
95	97	1
27	68	2
196	197	2
165	166	4
30	30	10
37	38	3
87	88	4
63	63	3
138	140	4
195	195	12
15	137	1
45	106	1
16	21	3
47	47	8
72	72	5
101	102	1
126	126	1
18	19	7
38	44	1
138	138	4
23	32	5
8	10	4
189	190	1
145	145	5
179	180	10
175	175	5
76	78	5
151	154	4
59	61	7
1	4	3
171	172	4
57	57	5
111	111	6
153	153	3
95	95	7
162	164	4
159	159	9
69	70	3
87	89	3
60	190	7
100	101	3
0	6	4
169	192	1
176	177	3
19	19	10
122	159	3
13	13	5
131	144	4
11	44	2
123	124	8
149	150	1
93	94	5
46	47	5
126	127	5
110	110	4
0	0	3
65	87	3
163	163	3
119	119	7
177	192	1
133	141	3
3	3	4
105	105	2
150	183	1
122	122	7
39	39	6
93	93	2
186	188	1
14	14	11
175	178	2
146	172	3
9	42	2
180	180	4
100	100	1
117	139	2
2	2	2
77	77	2
98	98	2
125	126	1
190	193	2
193	193	6
142	142	5
154	155	1
123	127	1
6	6	6
180	191	1
183	186	3
70	70	4
149	187	1
113	113	7
155	155	12
60	60	3
94	96	1
40	40	8
133	171	2
121	187	3
39	40	5
82	82	3
36	36	10
134	134	2
132	137	6
196	196	6
155	174	2
17	19	1
33	33	11
124	188	4
44	128	4
81	82	3
118	118	8
61	61	6
33	34	2
10	44	2
10	12	3
90	90	3
9	17	3
30	32	4
66	66	3
114	171	1
114	114	2
54	54	14
167	168	9
21	28	2
193	194	3
44	46	1
0	3	2
190	190	5
105	194	4
146	146	4
41	41	7
109	114	2
58	58	1
81	81	1
34	34	9
103	107	8
33	37	1
99	131	1
184	192	2
131	136	2
118	122	1
10	42	4
115	118	2
73	73	3
181	182	1
168	169	2
165	171	4
104	117	2
79	82	4
155	157	2
42	42	6
7	7	6
48	48	8
115	122	3
4	5	4
151	171	8
176	176	7
187	187	4
5	5	3
69	88	7
160	168	2
41	42	2
108	110	1
12	12	7
121	189	3
146	147	2
64	64	3
99	101	3
37	37	3
143	143	8
96	97	4
106	106	2
25	25	2
113	142	2
194	195	4
158	158	4
109	110	3
43	44	3
192	196	1
86	87	2
18	18	4
151	158	2
130	131	6
11	11	4
20	20	6
81	86	1
28	78	3
65	90	1
56	57	2
59	59	4
54	122	4
11	12	4
77	78	3
107	107	3
15	15	4
147	156	1
35	36	2
146	173	1
148	148	5
139	140	1
69	72	1
8	123	1
2	4	1
34	35	1
53	54	3
188	188	2
99	99	3
150	152	3
140	140	3
78	78	6
116	116	4
66	68	1
31	32	3
17	17	5
108	108	1
22	23	1
94	94	3
137	138	1
104	135	2
25	39	4
190	191	1
40	41	1
7	8	3
29	29	5
67	67	3
45	141	5
155	156	2
86	88	1
143	167	1
38	39	1
154	154	4
137	174	1
156	173	6
117	118	2
171	181	1
36	37	2
60	62	3
135	135	2
177	178	1
97	97	1
73	74	3
166	167	3
174	177	5
162	163	1
160	196	1
134	137	1
146	148	1
103	168	1
16	17	1
47	49	1
98	99	1
139	172	1
156	156	3
121	122	1
160	161	1
183	184	1
120	121	1
125	125	1
122	125	1
80	83	3
180	181	3
49	50	2
185	197	1
97	98	2
14	15	1
88	89	1
135	136	2
178	181	1
148	188	1
34	36	1
143	190	2
153	154	1
152	155	3
123	123	1
128	150	1
164	165	1
47	48	1
28	29	2
118	119	2
179	184	1
74	87	1
174	180	2
147	152	1
1	41	1
9	10	1
30	31	2
138	143	1
99	100	2
194	196	1
151	155	2
7	17	2
134	193	1
84	84	2
163	164	1
113	191	1
45	46	1
41	44	1
102	103	2
151	177	1
181	191	1
123	184	1
61	64	1
113	115	1
156	162	1
157	158	1
66	69	3
110	116	1
104	106	1
192	193	1
158	167	1
120	138	1
10	13	1
187	188	1
124	186	1
