59	61	1
156	157	3
123	123	4
114	114	6
56	56	6
63	123	2
147	148	1
169	184	4
132	133	1
74	74	9
138	139	1
180	180	1
109	109	6
28	30	1
72	72	4
187	187	2
147	147	5
84	84	3
179	180	4
173	173	2
88	88	3
165	166	1
127	127	5
41	41	2
79	79	4
183	183	1
108	113	2
27	36	2
104	105	1
109	130	2
75	75	7
106	106	5
174	174	1
82	109	4
147	149	3
120	120	3
5	5	1
89	89	4
110	177	2
172	172	5
180	181	2
111	132	1
133	133	1
166	168	1
135	135	4
75	76	2
179	179	1
68	74	4
76	76	3
0	1	1
83	84	2
61	65	3
92	93	2
120	122	1
169	169	3
39	39	1
37	37	4
86	86	1
121	130	1
41	127	2
119	119	5
1	1	1
169	173	2
139	141	2
22	36	3
136	136	3
82	82	4
114	116	2
168	168	2
21	23	3
114	115	2
142	144	4
185	185	1
108	109	1
0	0	3
98	100	6
38	38	2
155	163	1
87	87	5
59	59	2
4	4	1
184	185	1
30	32	2
80	114	1
121	121	1
95	95	5
148	148	7
155	156	6
168	182	1
85	85	2
42	47	1
143	144	2
135	136	4
164	169	2
113	113	1
58	79	1
163	163	1
127	128	3
23	25	1
124	124	1
60	60	2
154	154	3
181	181	3
141	142	1
25	25	2
176	176	4
6	7	2
78	78	3
79	111	2
145	150	1
28	60	1
86	88	1
186	186	2
138	147	1
24	37	1
167	167	1
43	43	1
53	55	2
28	28	1
46	46	4
27	62	1
170	170	3
108	111	1
145	160	2
97	97	1
147	154	2
150	150	2
118	142	2
14	14	1
184	184	1
7	7	3
138	138	3
107	108	1
43	44	1
111	112	2
126	126	1
76	79	4
72	73	3
34	35	1
178	178	2
154	156	1
77	130	2
103	103	1
112	113	1
144	144	1
36	36	1
174	175	2
135	144	1
62	63	2
70	70	2
72	120	1
77	79	1
56	57	1
147	150	1
94	94	1
103	124	2
169	170	2
152	152	1
142	142	2
55	55	4
151	151	1
71	71	2
106	107	1
175	176	2
66	66	1
122	122	1
104	111	1
153	153	1
48	48	2
190	190	1
10	11	1
168	189	1
63	63	2
60	63	1
149	149	1
155	155	1
86	96	1
6	6	1
108	110	1
21	21	1
57	57	1
64	64	1
