25	25	32
26	26	44
99	101	10
132	132	20
9	10	22
102	123	2
133	133	37
5	5	28
93	93	21
39	42	6
15	18	3
117	129	5
62	62	13
111	111	27
111	137	1
44	71	5
135	170	1
155	162	5
9	12	7
25	26	39
166	167	9
165	167	5
7	7	48
139	139	37
10	10	42
98	98	14
105	106	9
118	118	18
13	14	23
4	10	1
13	178	3
56	56	39
72	74	7
137	137	51
44	45	22
22	22	49
160	160	33
82	84	6
27	27	53
56	71	4
151	152	10
43	44	26
169	170	7
152	152	13
14	14	71
30	31	13
11	11	71
144	144	47
17	17	40
108	108	13
103	104	8
88	88	29
2	2	49
119	121	4
38	38	69
178	178	21
16	16	46
126	127	8
145	145	32
64	66	3
124	124	38
139	140	16
4	11	2
124	139	2
1	2	13
9	9	57
111	112	16
153	154	25
158	158	25
2	15	4
78	104	2
171	174	4
112	112	42
35	35	59
10	11	22
14	15	10
125	125	34
68	68	22
114	162	1
44	44	41
84	84	13
103	103	20
116	117	14
151	151	36
11	12	17
135	150	3
128	128	42
52	53	8
133	137	3
8	8	50
33	34	22
161	167	2
105	105	28
147	154	1
30	35	1
21	31	4
150	150	31
164	177	1
55	56	11
21	21	27
60	60	33
150	151	3
134	134	35
72	72	23
19	19	28
13	66	2
15	16	26
24	25	23
153	157	1
101	104	9
42	42	49
31	41	3
6	6	83
118	121	2
29	29	32
20	20	18
58	58	29
73	73	38
97	98	11
55	55	37
28	28	68
134	147	1
62	78	4
37	38	13
166	166	20
38	127	4
136	136	28
67	67	23
32	32	59
142	142	32
75	75	25
53	53	24
57	58	1
27	28	26
148	148	36
124	128	2
109	109	16
17	18	23
42	43	15
41	41	38
40	40	51
39	39	53
4	4	38
157	159	7
84	108	5
121	122	9
180	180	28
84	85	5
157	157	32
122	122	23
51	152	3
15	15	79
65	65	35
57	57	21
26	27	10
113	113	29
129	159	1
11	13	21
5	6	19
104	105	8
11	16	2
36	36	55
96	96	23
8	9	19
171	171	22
134	135	12
163	163	28
102	102	49
107	108	15
112	113	4
1	5	4
130	131	14
10	43	6
177	177	24
0	1	9
140	142	5
172	172	31
126	126	34
76	76	15
26	37	2
86	86	26
87	87	31
155	155	20
91	92	14
7	55	1
92	92	26
35	36	7
3	3	37
146	146	29
40	41	10
147	147	35
137	172	1
52	63	3
173	173	44
97	97	12
106	110	3
77	77	19
169	169	28
115	115	31
31	31	60
10	13	4
4	5	10
161	162	12
45	45	18
82	82	12
152	170	6
52	52	29
109	110	2
129	130	15
100	100	17
51	67	5
159	160	11
12	12	18
95	95	42
141	141	32
120	120	16
140	140	36
101	101	26
29	60	2
167	171	6
32	33	12
110	110	35
73	75	12
170	170	25
78	147	4
3	8	2
33	33	75
78	78	29
135	135	29
62	73	8
43	126	2
64	64	13
39	141	1
117	117	25
117	118	14
30	32	3
168	168	40
96	101	5
23	23	32
21	22	16
115	127	2
138	141	5
79	80	4
43	50	3
131	131	32
89	90	2
18	20	10
173	174	7
41	42	22
172	173	18
94	94	27
23	25	3
151	153	8
158	159	25
145	146	8
147	148	7
159	159	30
75	168	3
34	34	23
157	158	12
174	174	33
30	30	40
128	129	1
162	163	7
0	0	20
93	94	11
37	37	28
126	132	1
140	152	2
132	133	6
164	165	14
14	38	5
167	167	39
106	106	23
165	165	19
153	153	31
124	131	2
13	13	40
98	99	7
51	54	2
61	61	29
166	169	6
30	40	6
110	126	5
5	20	2
113	128	4
38	43	6
24	26	12
143	143	21
6	81	2
71	72	5
164	164	19
2	16	2
43	43	47
94	95	5
168	173	4
111	114	9
152	161	6
116	118	11
17	41	4
142	144	2
4	9	8
155	156	12
127	127	35
129	129	30
76	147	3
121	146	2
164	166	5
154	154	21
54	54	17
24	24	26
20	21	5
122	123	7
87	151	4
3	4	26
162	162	31
151	169	6
168	171	3
86	97	2
89	91	3
73	133	1
78	80	4
137	139	2
154	155	20
159	175	7
151	154	2
64	78	8
119	119	23
119	151	1
81	81	15
115	116	17
171	176	6
110	111	9
6	33	5
59	59	26
83	86	3
119	120	7
64	73	2
3	34	1
114	114	33
149	149	30
123	133	2
79	79	21
80	81	13
32	40	5
110	122	2
70	71	5
33	37	9
112	114	4
31	32	12
138	139	16
57	59	2
86	100	3
152	154	2
1	15	1
139	176	2
29	43	3
1	1	14
16	17	21
1	3	5
67	71	5
91	95	2
138	138	29
10	16	6
6	27	3
131	143	3
121	121	20
131	149	1
92	94	6
7	8	17
130	130	24
18	21	2
133	149	1
7	17	2
73	76	5
175	175	15
80	118	2
82	89	7
88	106	2
161	161	24
42	44	2
23	26	4
176	176	34
18	18	28
123	124	17
123	156	1
2	9	3
65	66	15
5	31	5
66	66	20
23	42	2
89	89	29
105	122	4
12	25	5
96	98	2
16	19	4
8	26	2
120	121	13
104	104	18
5	8	1
161	177	5
1	13	6
64	81	1
123	123	19
88	89	11
5	13	5
56	58	3
44	46	9
144	145	7
116	116	27
36	37	28
179	179	24
6	18	5
102	104	5
10	39	3
99	100	10
103	107	3
15	39	1
26	30	1
77	78	7
13	15	3
6	7	24
82	146	1
138	140	2
163	174	4
177	178	16
54	61	4
117	155	4
179	180	6
71	71	29
41	43	6
27	31	5
90	94	1
79	81	8
165	166	17
125	132	6
9	26	1
31	38	1
114	115	7
163	164	8
113	114	18
90	90	25
78	148	1
33	40	2
4	20	5
53	54	7
38	39	11
31	36	9
145	148	1
62	63	7
76	77	4
36	38	7
37	173	1
131	132	6
90	91	11
124	125	14
104	123	4
12	26	3
160	162	6
146	148	1
40	42	4
90	92	3
123	125	13
9	11	6
3	5	4
83	83	26
158	169	6
61	88	5
26	28	5
78	83	1
94	97	2
25	36	1
102	103	7
61	79	4
126	163	2
76	91	4
2	8	13
50	50	8
81	136	2
175	179	1
112	135	9
10	40	2
88	101	4
137	138	6
125	147	2
51	52	5
3	7	6
37	44	4
55	60	4
5	18	4
72	75	7
2	3	13
121	124	6
6	42	3
80	80	10
119	155	3
66	67	5
40	92	4
59	60	8
34	35	9
125	126	11
22	23	7
35	174	7
90	95	4
51	151	2
144	150	5
84	146	2
66	86	2
65	67	3
96	110	1
10	35	2
105	107	8
103	111	2
78	79	6
106	107	11
122	154	2
19	24	1
151	157	4
27	29	2
8	54	1
156	156	14
67	68	2
40	67	5
61	62	3
121	123	5
81	82	16
118	122	3
15	21	1
77	114	5
171	177	1
56	57	8
157	178	3
91	91	15
145	151	3
24	27	5
134	163	2
12	14	2
41	71	2
99	99	14
98	110	2
132	167	2
52	57	3
16	42	1
117	131	2
81	171	3
170	171	2
140	163	2
127	128	14
134	141	2
28	31	5
19	20	13
139	141	5
22	26	4
131	144	1
4	8	4
21	68	2
106	125	2
74	76	4
59	65	2
43	45	3
107	107	21
135	151	3
0	5	1
23	30	2
118	149	2
67	89	2
166	168	2
122	127	1
39	108	3
83	84	10
157	160	3
28	29	13
21	33	1
19	60	1
26	42	2
141	142	17
36	39	1
74	74	15
39	41	10
169	179	2
139	170	3
119	139	1
111	115	1
104	106	5
76	78	2
104	107	1
60	61	5
33	42	6
142	145	3
135	136	9
81	121	2
117	120	1
118	119	18
152	157	1
14	26	1
109	130	2
29	30	17
58	59	5
72	73	12
11	14	6
96	103	3
74	89	3
160	161	7
2	13	6
51	51	11
115	117	3
9	33	3
154	167	3
84	87	1
66	68	13
83	127	1
101	120	3
160	163	1
86	87	6
103	128	1
149	150	2
60	65	1
11	22	1
176	177	4
123	126	9
38	41	6
6	9	9
66	121	2
63	63	18
92	93	2
98	130	2
167	178	5
94	96	3
133	134	4
171	175	2
134	136	7
132	137	1
138	159	2
168	178	2
124	154	1
87	101	3
77	79	3
39	40	15
46	46	2
34	37	9
134	173	2
80	90	2
162	173	5
163	166	5
50	51	5
117	119	4
151	178	3
92	132	2
68	91	2
106	109	5
148	149	7
155	161	1
12	13	10
95	96	3
152	153	4
156	170	6
3	10	1
40	103	5
162	164	2
135	140	2
49	50	1
126	128	2
96	121	6
168	169	16
3	41	2
138	148	1
8	43	1
153	159	5
54	55	5
72	76	2
143	146	8
45	46	5
8	38	4
6	11	1
38	88	4
110	114	4
42	51	2
146	151	3
29	31	5
25	28	5
2	4	4
40	142	2
31	42	1
160	169	2
146	150	1
68	75	1
154	168	2
107	155	2
110	136	2
33	132	1
59	100	1
8	21	1
120	146	4
3	19	4
67	72	5
9	35	1
142	143	12
91	94	4
74	75	7
38	42	3
129	158	1
127	159	3
146	155	1
9	15	2
148	165	3
57	100	1
73	74	8
4	7	3
37	56	2
38	64	2
95	102	3
118	120	5
35	43	4
156	157	12
40	79	3
118	124	2
85	86	2
67	124	2
8	11	8
20	23	5
93	105	1
128	136	3
175	176	9
167	179	2
78	145	1
76	90	1
136	151	2
9	29	2
15	24	2
17	30	4
102	106	2
38	112	1
153	158	1
109	115	2
38	89	3
158	167	1
172	178	6
132	173	2
7	9	8
133	172	2
142	150	4
27	43	1
71	76	1
92	149	2
82	87	4
77	104	1
61	82	2
174	176	2
160	176	1
4	12	2
20	32	1
134	137	1
56	59	2
37	43	2
167	168	8
113	126	1
23	27	2
6	10	3
16	24	2
68	70	5
80	82	5
145	159	1
14	23	1
7	41	2
135	153	1
51	167	3
63	110	1
93	122	3
144	147	2
81	124	1
28	30	3
44	65	2
51	53	6
7	16	4
14	19	2
30	44	2
19	21	2
127	131	1
55	112	2
54	78	2
59	61	4
122	124	4
63	112	2
111	146	1
20	26	2
111	135	3
164	169	5
59	122	4
25	39	1
100	101	3
45	161	1
10	15	5
52	179	1
19	29	1
163	170	2
132	154	1
175	177	5
85	85	7
18	19	5
101	102	7
60	107	3
76	86	1
73	77	2
28	58	4
147	163	2
91	93	4
105	129	1
132	148	1
96	97	8
32	137	1
35	38	4
155	157	5
170	176	1
114	123	3
116	120	3
145	150	2
57	97	2
33	35	5
24	28	1
28	140	1
149	179	1
60	63	3
77	106	2
32	133	2
94	158	2
9	31	2
7	25	1
6	15	1
154	158	1
55	57	2
136	148	2
52	68	2
174	175	4
13	23	1
111	148	1
52	54	4
96	106	2
77	86	1
81	110	3
130	142	2
76	109	2
154	162	2
53	57	3
43	65	1
111	136	5
11	15	2
2	5	2
123	163	3
16	18	2
97	110	5
85	150	3
106	112	1
50	67	2
6	34	1
148	151	1
111	116	2
14	31	4
2	19	4
100	121	3
168	174	4
154	156	3
142	169	2
114	131	3
152	164	6
20	22	5
63	64	2
65	75	6
13	17	2
133	146	3
82	86	2
173	176	3
133	135	3
6	36	1
150	177	1
18	24	5
5	19	1
75	148	3
153	168	2
2	25	3
9	45	1
110	125	1
101	131	3
37	41	2
158	161	1
145	170	2
59	101	2
95	159	1
143	145	1
12	43	2
126	136	2
114	118	1
75	93	2
10	32	3
2	20	3
7	53	2
74	91	3
83	87	1
32	34	6
96	123	1
143	144	3
39	132	1
22	24	4
135	144	2
146	147	6
100	102	1
61	89	3
65	116	1
9	13	1
16	21	3
75	76	5
130	150	2
29	33	1
114	116	2
17	26	3
82	83	1
173	180	2
103	105	1
160	177	2
103	109	2
66	71	2
8	10	3
60	81	1
93	95	1
162	166	2
146	154	1
65	82	3
5	10	1
98	101	2
65	179	2
140	141	5
95	131	1
2	29	2
120	136	1
155	168	3
166	176	2
120	125	1
40	89	2
41	45	1
130	148	2
130	145	5
31	40	1
66	118	2
5	16	1
14	17	1
136	150	4
134	153	3
70	70	8
170	175	2
80	121	1
153	156	1
10	14	2
111	144	2
136	140	2
14	16	1
60	148	1
77	145	1
75	87	2
118	139	2
36	58	1
9	14	2
5	14	1
4	15	2
54	56	2
137	148	1
49	51	1
0	17	1
85	107	1
116	131	2
119	131	1
152	158	2
143	147	2
7	37	3
140	170	2
121	126	1
87	88	4
107	109	4
85	151	2
77	121	1
171	173	1
41	65	1
161	166	2
86	115	2
5	24	2
159	169	1
133	139	2
1	38	2
129	150	1
80	97	1
41	66	2
134	146	1
10	31	2
34	36	1
66	131	2
125	138	2
59	90	2
31	33	2
31	34	1
102	107	2
108	109	2
31	173	3
169	171	1
63	77	1
178	179	3
105	113	3
138	172	2
9	19	1
15	17	3
178	180	1
52	102	1
51	96	1
2	7	2
6	12	1
115	130	1
50	178	2
22	30	1
98	111	2
113	143	1
76	93	3
123	139	1
130	158	2
150	161	5
86	90	2
5	9	3
116	121	2
128	135	3
127	129	5
131	146	2
97	111	1
96	107	4
13	28	1
103	124	1
171	172	2
38	40	4
150	170	2
34	38	2
102	110	1
112	147	1
129	131	2
85	153	1
169	178	2
74	138	3
145	162	1
10	19	1
108	121	1
156	169	1
38	44	1
109	127	4
165	170	1
84	86	2
129	156	3
89	102	1
35	40	1
109	146	1
109	112	2
62	104	2
136	137	1
87	90	3
120	155	2
35	37	1
84	95	2
76	133	1
90	96	1
40	145	2
35	39	2
89	92	1
12	15	2
60	79	3
168	170	1
8	45	1
6	8	3
9	30	2
122	153	1
144	149	2
32	44	1
103	106	1
76	120	1
121	130	1
34	42	1
63	78	1
18	42	1
78	119	1
17	21	1
107	110	4
127	157	1
159	178	1
168	180	1
74	146	1
65	76	1
88	147	1
61	63	2
97	106	1
72	82	1
166	174	1
6	31	2
114	142	1
113	116	1
3	11	1
16	41	1
146	170	1
75	90	1
22	44	3
51	56	1
44	87	1
30	33	1
168	177	1
81	83	2
68	93	1
9	17	2
111	147	1
66	75	2
88	91	1
49	49	1
80	117	1
45	107	2
54	122	1
128	130	1
172	174	2
54	64	1
131	133	1
36	87	1
100	107	3
60	62	5
32	45	1
92	139	1
95	125	1
5	42	2
29	65	1
76	80	1
83	172	1
33	38	1
68	140	2
31	45	2
21	23	1
0	36	2
7	20	1
10	34	1
12	16	2
83	105	1
11	44	1
63	119	1
23	29	1
54	58	2
73	153	1
74	93	1
136	153	1
111	113	2
143	150	1
134	150	1
162	168	2
24	148	1
174	180	1
16	23	1
53	63	1
109	147	1
9	40	1
43	77	1
114	127	1
145	179	1
136	173	1
138	178	1
150	153	1
161	173	1
6	38	2
84	128	1
163	171	1
64	83	1
5	27	1
114	126	1
11	39	1
101	119	2
14	32	1
18	22	2
162	177	1
71	132	1
109	131	2
87	89	1
51	153	1
32	71	1
142	151	1
110	150	1
26	54	1
11	17	1
28	40	2
87	146	1
25	27	1
39	109	1
36	86	1
125	146	1
119	123	2
102	111	1
82	127	1
30	45	1
133	142	1
26	71	1
125	142	2
95	108	1
174	177	1
155	167	1
75	77	1
75	111	1
51	66	1
55	113	1
61	100	1
35	175	1
115	126	1
137	140	1
72	94	1
176	180	1
130	162	1
28	80	1
82	85	1
21	45	1
