30	30	15
68	69	5
31	52	5
63	64	3
69	77	2
45	45	8
41	41	15
36	38	9
11	12	7
39	39	10
57	57	14
7	7	19
13	13	5
66	67	4
19	63	6
63	63	11
49	50	6
37	37	8
42	42	23
36	36	7
72	72	13
49	53	5
67	68	10
1	57	1
47	58	3
6	6	16
29	29	12
21	26	5
32	55	3
69	69	16
27	41	1
1	1	18
74	74	10
48	48	23
17	17	7
50	50	5
31	31	18
53	53	12
68	68	4
20	21	4
62	62	6
55	55	20
78	79	4
11	11	4
80	80	21
11	13	1
10	10	8
26	26	14
8	72	1
49	49	9
59	59	4
48	53	2
56	56	9
43	43	1
4	37	3
0	0	7
37	80	1
9	9	6
3	4	4
29	30	2
27	49	3
42	56	4
60	60	9
6	16	1
8	8	12
56	57	2
46	47	1
38	38	10
12	13	3
7	8	1
45	49	2
34	34	2
15	15	12
39	40	6
5	6	12
59	60	2
27	27	19
65	65	19
13	14	6
55	56	5
18	62	7
29	45	4
10	11	7
60	61	5
75	75	9
54	54	20
21	21	12
27	28	1
3	3	6
68	70	5
35	35	9
5	5	12
32	32	9
38	41	3
78	78	12
27	50	1
46	46	16
71	71	11
4	4	17
33	33	3
79	79	5
51	51	3
31	65	2
47	47	7
40	61	2
40	40	17
9	50	2
67	67	9
33	56	1
16	16	3
14	14	9
1	50	6
25	26	2
73	73	9
64	64	15
77	77	7
50	52	3
76	76	12
64	65	2
30	49	3
2	2	7
12	12	2
61	61	4
45	54	2
12	38	2
28	42	2
47	48	1
58	61	3
41	42	4
31	33	2
32	33	3
52	52	8
69	70	4
31	64	3
58	59	2
54	57	3
31	50	2
12	53	1
58	58	6
31	32	2
30	31	2
1	63	3
9	12	1
73	76	1
2	46	2
20	67	1
36	37	3
66	66	13
21	22	4
38	39	4
45	46	3
46	63	5
37	38	2
2	79	1
6	53	2
70	70	1
16	17	1
19	19	5
21	25	2
25	25	2
26	29	3
2	3	5
21	30	1
28	28	6
34	36	3
28	65	1
81	81	1
10	52	1
29	49	1
26	27	3
8	9	1
48	81	1
27	62	2
41	55	2
43	69	1
26	53	1
75	76	2
54	55	1
41	43	1
0	19	3
5	57	1
18	18	1
6	7	1
34	35	2
32	52	1
30	45	1
30	34	1
8	10	1
18	47	1
30	65	1
14	38	1
