13	13	50
224	224	56
61	61	75
104	104	61
160	160	64
9	12	8
47	47	87
8	8	65
22	22	60
10	10	74
52	53	35
221	221	37
150	151	22
156	205	1
67	67	91
86	86	80
64	65	16
13	16	8
117	125	6
66	66	75
60	60	56
112	145	2
68	69	19
27	27	75
6	104	2
184	184	49
78	215	6
52	229	3
189	190	18
98	171	4
170	170	48
167	168	24
80	80	56
97	97	50
104	124	9
140	141	15
204	204	58
48	48	87
4	7	15
57	134	3
181	226	4
145	155	5
26	26	91
162	162	41
201	201	77
59	59	62
234	235	20
168	182	5
46	46	91
191	191	32
5	6	40
170	211	2
57	58	10
179	197	1
9	10	14
128	128	32
193	193	55
212	213	25
211	213	6
181	182	9
175	192	3
133	133	45
176	176	48
117	118	22
52	56	7
226	227	14
198	198	53
11	11	110
68	68	64
34	35	30
33	54	7
38	38	68
220	221	25
40	40	83
85	85	62
65	65	71
3	3	62
33	34	19
28	28	85
73	84	2
69	69	81
135	146	1
152	153	8
117	117	23
219	230	5
223	223	60
154	159	5
111	112	7
122	122	28
25	25	65
61	62	21
75	75	77
104	105	35
109	109	26
138	138	48
153	158	1
219	219	61
123	124	17
144	147	18
134	134	59
54	54	50
31	31	54
56	68	8
18	53	4
140	140	28
168	169	12
151	151	50
173	239	2
166	167	15
83	83	66
17	18	20
18	18	36
173	174	14
15	15	93
53	156	1
138	139	19
118	120	9
154	155	31
231	231	50
227	228	8
140	165	3
27	85	2
23	60	1
76	76	93
233	233	39
199	200	34
150	150	37
41	78	2
6	6	40
18	19	36
156	210	1
48	57	3
23	23	70
88	88	45
30	30	67
125	125	34
82	82	48
37	37	64
122	125	1
32	33	22
185	185	50
122	202	2
49	49	46
148	148	33
73	74	23
144	145	22
172	172	61
13	15	22
50	51	19
203	203	58
218	219	6
56	65	4
172	173	18
85	86	14
174	175	23
151	192	1
47	135	5
201	207	7
194	194	46
99	99	71
123	126	8
229	229	53
62	62	74
131	131	16
218	231	2
0	34	1
57	57	73
37	38	22
34	34	73
80	109	2
199	199	42
35	36	25
45	46	29
214	214	26
161	161	69
50	50	55
41	238	5
82	83	29
41	41	53
103	103	67
99	100	8
106	107	12
104	108	5
189	195	5
98	119	1
216	216	44
70	70	75
135	135	55
75	98	5
188	188	67
24	24	101
80	136	1
190	192	7
44	44	71
241	241	27
33	33	70
236	237	13
102	103	27
45	45	66
51	51	83
181	181	28
2	2	64
158	158	67
113	116	1
48	230	3
235	235	49
102	102	92
7	7	65
18	218	3
117	126	4
211	212	5
99	101	5
150	156	7
144	163	4
151	153	4
160	161	24
236	239	1
137	137	46
38	47	9
191	228	4
4	4	64
120	120	50
222	222	42
143	174	5
15	16	30
71	86	5
236	236	40
63	63	69
81	83	10
226	226	61
156	156	27
72	72	79
127	216	3
211	226	3
143	143	51
227	227	67
198	216	4
142	142	39
128	224	4
187	187	30
240	240	51
188	189	29
202	205	4
84	84	73
179	180	7
35	35	45
60	89	8
26	27	13
132	182	2
163	163	46
231	232	20
210	212	12
203	204	37
204	206	12
182	182	35
20	20	97
23	30	1
143	149	5
125	126	10
8	81	2
58	59	29
104	116	6
84	85	12
166	166	61
105	105	58
43	64	2
122	124	2
215	216	13
51	52	45
34	123	2
154	175	4
0	15	3
16	111	3
29	33	6
198	205	6
29	30	23
60	61	15
44	97	3
171	171	42
98	175	1
4	18	1
58	65	1
63	70	2
196	198	2
154	154	38
180	180	54
6	7	11
39	39	94
6	13	1
189	189	38
225	226	23
37	47	3
142	143	10
2	4	7
5	5	42
211	211	68
159	159	51
27	220	5
168	168	39
71	71	63
125	155	3
31	123	5
169	200	1
213	214	8
103	131	14
202	220	1
0	10	3
126	126	42
13	40	3
63	128	5
203	205	3
100	100	73
144	144	28
147	148	15
124	124	44
9	68	4
14	218	2
163	165	8
56	200	1
128	132	6
77	77	28
208	208	44
28	126	4
186	186	41
197	197	41
72	73	4
73	73	62
104	109	4
116	117	24
220	220	50
66	67	20
149	150	9
81	81	45
115	115	44
10	11	12
237	237	41
64	64	79
36	53	11
177	190	1
8	30	3
128	131	2
12	12	59
13	14	38
71	73	8
149	149	22
238	238	51
153	154	17
46	74	7
81	82	24
205	206	15
53	70	2
4	13	5
48	220	5
116	169	1
57	71	1
218	225	3
169	169	34
19	19	56
72	222	3
210	221	4
66	68	18
17	35	2
55	55	76
123	123	47
205	205	49
23	34	3
217	218	34
158	176	2
223	224	11
52	52	80
49	191	4
59	60	52
48	58	5
96	104	2
146	146	18
29	29	56
148	165	2
16	16	78
17	17	85
14	18	5
34	36	9
177	177	67
75	82	3
239	239	32
25	136	2
190	190	37
179	179	34
52	143	3
3	5	5
95	95	17
156	157	15
153	153	32
147	147	37
30	106	2
86	87	4
167	167	35
116	116	32
29	237	5
25	42	4
69	71	4
174	174	49
21	21	69
45	63	7
113	113	58
196	196	38
190	191	5
142	145	4
148	149	15
75	165	4
65	66	26
6	11	3
208	211	2
193	198	4
53	53	72
215	215	44
19	33	2
218	218	60
145	153	3
9	57	3
36	36	55
15	17	3
143	196	4
127	127	42
63	64	18
129	179	3
8	12	5
0	113	2
178	178	52
42	46	1
141	141	27
183	183	49
156	159	6
202	202	64
45	86	5
62	63	26
41	42	8
113	129	6
128	168	2
14	15	25
21	23	5
24	25	36
219	224	4
54	55	21
110	171	3
32	32	46
4	5	32
121	135	2
129	130	15
120	142	2
49	50	30
206	206	37
157	220	2
41	58	2
79	79	93
159	217	2
188	191	3
21	22	25
217	223	8
42	219	3
185	192	5
68	92	5
156	184	1
136	146	2
11	46	1
207	207	25
1	1	34
79	80	29
138	146	2
194	196	11
39	42	9
38	52	4
101	101	49
225	225	51
139	211	3
9	18	7
14	32	2
20	85	4
9	26	2
217	217	46
159	207	2
38	53	4
31	32	7
56	56	76
21	42	2
31	116	2
169	170	27
181	183	9
104	126	4
182	224	1
209	209	44
57	60	2
114	118	2
25	35	4
96	97	18
48	50	3
108	125	3
3	33	6
49	51	4
89	100	4
179	181	7
76	78	17
74	74	78
139	140	4
239	241	16
168	178	2
139	139	30
146	225	3
24	46	2
36	38	8
197	211	4
16	73	6
1	2	27
95	129	5
192	197	9
36	37	16
43	45	11
164	164	29
122	141	5
137	138	18
33	53	7
4	84	5
130	131	9
58	61	6
105	162	1
45	233	3
9	9	87
164	178	1
49	59	5
102	104	2
48	59	1
180	212	1
111	111	30
145	145	52
43	43	96
83	84	42
58	58	75
218	223	4
47	54	3
25	26	23
54	58	3
196	199	3
158	162	11
18	20	10
98	98	36
119	119	34
172	174	12
178	179	21
129	129	61
35	204	3
132	191	1
148	158	6
14	14	59
42	42	72
10	15	4
72	142	2
173	180	2
155	155	13
109	121	5
210	210	30
173	173	34
98	111	4
152	175	3
159	174	1
115	137	5
39	41	7
26	74	1
106	106	33
138	168	2
84	189	4
114	125	2
234	234	49
130	170	3
213	213	50
12	13	23
7	22	1
0	0	57
1	4	5
109	198	3
43	73	2
125	127	17
4	6	20
16	17	20
141	143	4
0	42	2
129	169	1
106	197	1
206	218	2
31	49	1
44	45	27
65	67	3
78	78	47
28	242	1
39	98	1
16	170	7
102	219	2
1	84	4
130	130	42
96	96	27
183	188	1
69	70	13
157	157	55
103	104	22
51	53	26
108	109	8
100	101	12
172	207	2
164	165	26
12	15	12
180	183	7
61	63	4
162	174	5
114	114	24
205	207	3
120	122	5
209	210	15
152	152	49
120	121	10
95	237	3
159	160	7
165	174	5
128	222	3
220	222	14
82	84	16
210	211	17
74	75	21
156	172	3
175	175	32
19	56	5
136	136	56
214	216	12
75	79	3
60	67	2
80	81	16
179	182	7
95	216	1
122	123	9
48	49	21
236	238	10
53	81	2
145	235	2
38	74	1
200	200	38
208	210	2
172	196	1
32	37	3
44	47	6
23	29	2
118	126	1
148	162	2
12	76	8
48	56	11
56	57	31
105	110	3
14	16	19
19	21	2
65	128	1
41	49	3
211	216	2
158	175	2
73	113	3
114	179	2
63	173	5
161	165	3
4	33	1
218	227	1
166	171	3
221	222	10
201	217	3
4	35	1
220	232	6
44	64	2
12	230	4
31	148	2
131	157	2
1	60	3
195	195	40
17	20	4
64	151	2
175	191	5
39	70	4
132	240	1
187	188	19
210	229	3
15	30	3
30	31	20
112	135	1
45	96	1
19	37	1
201	202	17
85	96	3
183	206	1
0	35	11
58	79	4
77	80	7
161	171	2
31	118	4
206	227	1
105	106	6
140	142	6
19	175	6
143	147	4
189	200	3
212	212	34
228	228	51
42	43	14
107	108	21
179	184	4
139	141	10
80	83	9
182	231	4
79	107	2
53	54	9
70	133	1
232	233	15
117	120	1
148	150	6
28	29	18
191	192	20
4	63	3
169	182	4
29	231	4
162	163	8
224	230	4
186	212	3
9	11	5
8	31	3
158	159	13
118	118	35
3	15	4
183	191	7
36	212	5
164	167	4
27	232	1
80	104	8
115	169	6
146	147	6
78	83	4
156	158	18
116	118	8
206	207	26
223	225	9
24	79	2
16	224	3
3	26	2
179	183	2
170	171	14
11	15	5
176	190	1
52	54	4
1	29	2
209	228	2
1	66	2
208	228	2
42	49	4
8	59	7
5	52	6
47	84	2
54	223	1
192	192	45
219	223	4
15	25	6
105	108	3
173	193	2
145	146	13
25	97	7
48	79	4
16	19	4
98	99	8
8	14	5
220	223	13
21	201	4
76	105	1
165	165	23
164	183	8
56	58	5
3	20	9
168	177	2
125	153	3
115	125	4
106	115	2
31	43	4
49	56	5
18	22	6
215	225	3
147	235	3
224	229	3
121	121	33
17	86	2
72	80	1
27	32	12
177	187	2
100	198	2
7	36	3
20	21	13
21	81	1
197	199	2
33	37	4
154	168	2
143	172	8
178	222	1
111	238	5
89	181	3
72	88	3
32	39	3
221	228	2
62	175	1
160	162	1
59	88	1
132	157	2
151	191	3
166	175	1
233	234	22
5	16	7
108	108	20
54	195	2
12	75	4
132	133	2
10	44	1
193	202	2
3	22	3
152	171	2
76	80	9
37	85	1
88	89	10
159	170	8
79	81	7
13	123	3
163	164	6
215	229	2
159	161	3
240	242	9
53	55	6
156	165	2
71	85	2
51	54	8
208	226	2
182	183	27
3	6	4
22	23	20
29	48	3
25	143	1
153	215	3
151	152	10
219	220	6
9	25	3
21	50	4
197	198	40
116	132	7
149	154	2
73	86	1
104	127	4
123	125	4
27	230	1
46	64	1
170	191	2
114	136	3
166	169	2
72	87	1
6	15	1
56	178	2
107	114	4
74	128	3
97	110	2
49	60	1
165	183	2
216	225	1
17	30	3
111	121	5
115	120	5
232	232	44
157	169	1
192	206	2
6	8	8
115	124	4
98	100	7
128	129	19
37	46	7
133	217	4
73	97	2
116	119	6
7	8	19
154	157	3
4	57	2
145	150	4
112	113	6
116	175	1
168	213	5
8	34	1
45	234	2
140	156	4
1	21	1
141	145	5
209	217	1
132	204	2
200	201	5
220	231	3
230	230	40
177	178	10
12	39	2
178	180	9
40	51	3
86	112	3
104	107	12
171	211	2
102	128	2
70	150	2
11	12	7
213	215	4
24	83	2
230	231	16
119	127	6
46	47	7
15	56	3
183	217	4
186	188	7
103	147	5
133	134	14
174	206	1
109	137	4
91	91	9
47	105	1
102	147	1
199	231	2
199	229	6
161	179	2
39	40	19
106	114	2
12	119	3
138	161	4
8	9	12
155	158	7
80	123	6
74	78	4
125	135	2
80	86	4
205	229	2
112	112	16
11	74	2
17	19	5
224	225	18
15	227	5
217	231	7
3	36	2
61	227	6
205	227	2
219	227	1
140	206	3
48	51	3
54	64	2
4	14	2
77	79	16
128	130	2
48	99	2
215	226	2
100	102	5
145	154	3
143	144	2
116	125	3
169	171	4
65	68	5
111	175	3
4	21	3
24	32	5
35	82	1
196	215	2
150	236	3
219	231	5
198	199	3
211	224	2
170	196	2
0	32	3
26	44	5
41	56	2
52	82	1
5	66	4
64	66	3
147	151	2
194	195	16
217	219	2
29	49	2
157	158	35
33	126	5
214	215	25
71	115	4
169	184	1
36	42	2
192	193	11
49	82	3
115	176	3
141	148	1
173	231	1
40	41	29
71	192	1
163	176	2
198	225	7
56	238	1
176	177	13
38	81	4
190	194	2
95	172	1
235	236	16
113	114	7
191	208	7
3	7	11
37	42	1
164	168	1
103	108	4
67	69	5
41	50	5
191	196	5
213	225	4
161	197	2
222	223	18
142	144	7
67	68	19
149	151	8
66	69	1
146	148	8
3	69	3
170	185	2
232	234	6
36	54	2
201	220	2
29	113	5
148	202	4
194	200	5
177	214	2
121	123	2
78	79	11
4	42	3
147	149	5
174	218	1
75	80	9
45	80	2
3	34	3
0	2	4
165	168	3
10	55	6
139	142	2
176	202	3
74	135	1
10	24	4
29	31	4
144	157	3
113	170	4
184	187	5
160	164	4
157	175	3
231	233	4
30	51	2
184	185	20
146	162	6
190	197	1
191	239	2
67	133	3
118	123	8
131	132	2
50	54	2
189	213	3
58	60	4
177	221	2
55	56	11
167	196	1
184	186	8
212	218	1
11	20	1
1	8	2
1	35	2
131	182	3
55	57	4
139	157	2
119	171	1
117	127	2
203	234	2
150	152	3
228	230	12
3	4	11
47	64	1
77	78	9
107	107	35
142	146	3
16	21	3
167	184	2
1	201	2
212	219	6
190	214	2
8	22	7
133	144	5
65	71	4
173	194	2
1	6	2
230	242	4
79	163	2
213	229	2
193	194	15
115	186	1
24	143	3
4	34	3
95	118	1
162	185	1
0	1	22
177	220	1
123	167	2
74	179	1
122	128	5
119	120	14
144	208	2
0	86	7
151	165	3
172	203	1
5	7	4
50	52	10
64	144	2
38	46	2
39	65	5
37	39	1
110	127	6
193	195	10
178	183	1
166	206	2
2	15	3
18	21	9
121	122	6
148	235	2
228	229	15
14	80	2
2	3	21
165	167	2
55	88	3
187	222	2
122	127	3
229	230	7
126	132	2
46	101	3
17	32	1
115	123	1
157	207	2
19	39	4
6	96	3
0	17	4
1	171	3
118	149	3
127	129	5
60	220	2
217	239	3
200	221	4
166	172	1
79	125	5
199	212	2
240	241	10
238	239	4
41	43	1
106	125	3
123	135	2
83	96	3
105	125	5
2	35	1
110	110	5
88	175	1
67	191	1
24	173	6
218	235	5
157	159	1
38	194	1
104	179	2
155	165	1
185	186	7
43	47	3
60	125	4
155	171	1
101	102	7
41	223	2
75	77	4
10	26	8
51	57	12
6	14	3
124	125	10
2	23	2
52	211	1
74	85	2
180	236	1
121	240	2
185	199	3
27	77	1
182	186	4
150	176	3
62	172	4
40	69	3
37	51	1
12	14	5
143	158	2
104	106	2
65	69	7
231	242	1
1	38	1
30	105	1
5	49	5
63	65	2
32	65	1
170	175	8
8	199	11
143	164	2
32	226	3
192	210	4
102	105	1
136	137	23
17	49	4
83	157	3
115	198	2
158	178	3
190	217	3
12	54	1
202	219	1
80	82	7
27	161	6
18	30	5
76	77	8
113	131	4
69	72	4
101	134	4
35	39	1
197	201	3
82	89	2
11	14	8
168	209	5
114	127	2
97	98	5
223	228	3
46	157	4
183	184	3
36	40	2
179	187	1
171	194	3
105	151	2
38	48	1
71	72	9
47	48	16
191	224	7
0	8	2
26	68	1
154	166	2
39	62	1
11	18	1
22	33	3
205	215	7
114	119	1
32	36	3
45	176	2
128	186	2
105	117	2
204	205	14
21	24	2
195	196	5
166	215	1
135	138	2
210	227	6
209	220	2
10	47	3
182	221	2
49	53	10
7	9	5
12	17	7
51	107	3
136	144	5
75	76	19
27	136	2
81	125	2
135	136	17
96	220	4
118	148	2
11	33	1
27	29	3
141	165	1
102	108	2
3	11	1
178	240	2
110	111	2
133	168	1
10	217	4
10	61	2
87	143	1
58	84	4
235	239	1
5	35	4
25	48	1
118	119	7
217	229	2
108	116	6
20	23	3
108	115	2
198	208	1
101	112	2
111	129	3
19	30	2
26	66	6
175	217	2
80	126	4
103	105	16
15	23	3
163	181	2
197	217	3
115	117	20
107	167	2
225	227	3
85	118	1
191	216	1
39	74	2
37	48	3
170	202	5
75	84	4
130	204	3
141	193	1
181	198	4
194	197	1
36	56	1
145	149	5
188	197	2
1	16	3
179	185	2
38	50	5
174	204	2
180	188	7
157	167	1
183	231	1
29	76	1
204	227	1
96	98	2
148	161	1
70	72	2
26	128	5
20	216	4
45	78	1
219	225	3
78	219	1
156	170	2
109	111	2
80	130	1
177	231	4
116	130	1
46	56	4
183	201	2
44	65	2
75	95	1
33	171	5
207	226	2
219	222	4
242	242	28
4	15	4
98	176	3
222	229	1
166	186	5
9	219	2
85	189	3
209	212	2
54	68	2
122	135	2
175	180	2
78	115	2
10	56	2
3	24	1
176	178	2
23	24	6
36	39	1
171	173	6
57	59	5
108	173	3
80	84	4
50	214	1
31	35	4
191	197	5
173	192	1
11	216	4
75	91	4
192	198	3
38	39	9
34	43	6
104	115	2
159	175	2
205	216	1
105	126	4
156	169	4
16	49	3
33	35	6
89	89	15
118	127	2
115	118	4
43	44	7
231	237	1
18	230	3
180	182	5
27	28	9
45	47	7
116	126	3
84	87	2
186	187	2
17	105	2
105	118	4
121	148	3
11	72	1
21	48	1
39	50	1
5	20	4
144	146	6
6	119	1
136	142	2
96	99	5
4	9	3
28	222	4
73	163	4
78	80	5
3	30	3
43	53	1
69	97	2
198	200	5
7	34	4
19	23	4
120	238	2
139	159	5
234	242	4
53	82	3
165	166	2
23	26	1
46	180	2
153	227	4
20	28	7
46	128	4
204	211	4
196	197	7
41	59	4
0	20	3
22	146	4
5	34	2
15	24	1
143	145	4
119	121	5
8	37	4
63	71	2
209	211	11
10	133	3
42	203	1
10	46	2
156	161	1
35	46	2
218	226	5
61	73	4
32	70	2
126	127	7
102	197	2
164	166	7
180	198	2
25	237	2
35	165	1
163	179	4
114	115	3
20	47	3
101	147	1
207	208	7
43	203	4
53	79	2
192	194	7
232	236	1
128	161	1
115	197	1
119	124	1
0	65	1
107	115	5
140	143	4
2	6	4
157	179	1
175	177	3
88	133	4
201	206	4
180	186	2
19	52	2
153	156	3
102	153	1
56	165	1
47	50	6
142	204	1
186	202	1
125	235	3
119	149	4
17	21	2
24	181	4
125	129	7
135	143	3
29	109	1
153	155	11
139	143	6
59	62	1
49	238	3
120	189	2
5	82	2
180	209	1
210	214	2
126	130	3
127	130	3
0	46	2
83	85	10
55	62	1
117	173	3
178	196	2
103	128	2
30	76	4
181	227	4
161	164	2
186	189	3
154	156	1
25	58	2
63	147	4
117	119	3
37	69	1
48	70	1
51	78	2
68	88	4
26	76	3
59	239	2
41	99	2
61	98	1
31	169	2
159	167	1
156	171	1
14	111	4
133	165	1
156	162	1
186	215	2
74	122	1
161	162	2
4	12	5
8	32	2
147	168	1
191	203	6
141	142	8
112	128	2
61	191	3
8	20	5
204	225	2
35	37	4
62	64	3
205	222	1
52	63	6
31	75	4
35	168	2
38	42	3
114	120	2
38	69	9
55	65	1
171	209	2
163	168	3
51	164	4
19	50	3
144	160	1
193	241	1
122	147	2
239	240	8
72	172	2
12	114	1
2	101	2
218	228	2
157	168	1
57	61	2
158	177	1
119	135	5
149	155	3
12	81	2
20	31	1
64	67	1
168	184	4
169	187	1
206	209	5
212	215	1
218	224	3
144	215	2
43	46	5
166	200	5
153	171	2
28	122	1
33	36	10
186	217	1
128	149	2
16	99	1
52	60	1
107	129	1
83	188	5
4	49	2
16	18	2
14	57	3
213	226	6
46	176	2
198	202	3
237	238	4
53	176	1
18	107	1
77	167	2
60	62	5
1	70	1
84	97	2
168	183	2
59	61	3
162	164	2
89	135	2
30	33	1
110	135	1
3	21	2
149	157	4
198	218	2
36	59	3
36	49	1
23	38	2
35	38	1
237	239	5
137	199	1
84	236	2
51	56	2
155	156	9
102	142	3
67	70	3
135	144	2
23	37	2
80	91	2
107	130	1
23	176	1
18	184	2
188	190	4
80	138	1
41	83	5
15	29	2
182	202	3
78	105	4
167	174	1
234	236	3
6	16	1
157	161	3
47	80	4
163	177	1
1	3	6
150	197	2
28	48	1
17	22	5
70	71	12
145	174	1
183	225	2
3	37	2
9	20	1
56	140	2
39	57	1
193	196	2
159	171	3
71	80	1
26	62	2
164	172	1
8	11	2
119	122	2
198	229	2
72	74	2
65	77	2
213	217	2
208	209	2
13	23	3
77	83	2
212	222	3
105	119	2
180	200	1
141	146	8
74	121	1
63	213	1
192	199	2
69	150	1
221	224	3
131	133	2
64	137	5
103	190	3
171	172	6
27	165	1
195	215	3
96	208	6
99	105	1
189	196	1
170	183	1
16	123	4
3	187	4
88	111	3
37	219	1
15	36	2
2	7	3
47	74	1
148	152	3
59	66	1
19	20	9
100	104	2
159	198	3
32	46	1
189	223	1
167	169	7
8	91	1
75	97	2
50	59	2
53	68	2
202	204	2
162	199	3
38	85	3
13	17	4
168	189	3
30	42	2
35	126	2
174	202	5
144	152	1
53	228	1
31	33	2
39	231	3
99	102	1
29	43	1
233	238	2
152	173	1
241	242	12
209	227	7
130	134	3
114	142	1
36	52	2
142	152	1
38	57	1
0	90	2
75	122	1
115	149	3
39	64	2
166	168	1
214	218	2
56	143	1
195	197	1
132	132	7
192	213	3
178	182	3
168	170	2
29	37	2
148	226	4
143	146	3
141	149	1
24	71	1
179	208	3
50	56	1
12	126	2
193	223	4
44	221	4
50	147	1
3	9	6
115	160	2
213	224	3
11	19	3
174	217	1
72	76	4
13	21	3
0	127	1
182	226	1
26	29	3
26	52	5
10	29	1
70	101	1
72	115	1
56	62	3
14	26	1
9	16	2
154	167	5
16	60	4
14	17	3
97	99	2
180	181	7
48	123	4
70	113	3
172	227	2
37	45	4
76	85	1
37	80	1
30	36	3
42	228	2
43	86	2
65	79	3
89	133	3
76	79	2
30	47	2
4	17	1
62	72	2
188	199	4
76	81	4
190	195	2
22	47	2
10	54	1
116	197	3
15	21	2
16	32	1
39	195	2
101	180	4
233	235	2
123	133	1
83	195	2
111	128	2
140	161	4
20	33	3
109	110	5
166	185	2
226	228	1
115	213	2
216	217	2
144	186	3
192	196	3
136	151	4
95	148	1
170	177	1
59	237	2
205	209	1
199	207	1
136	145	2
193	214	2
74	76	3
173	175	3
53	222	6
193	226	1
78	86	2
189	222	3
42	59	1
12	23	3
167	171	1
212	216	2
124	154	2
40	60	6
1	223	2
49	137	2
124	126	2
201	203	2
24	29	4
20	76	1
44	116	2
96	215	3
56	232	2
4	8	2
143	160	2
11	40	3
178	213	1
131	134	3
152	154	5
30	34	2
99	114	1
106	211	2
48	103	1
162	202	1
198	220	3
157	197	1
49	78	1
136	162	1
40	42	4
4	16	2
236	241	5
36	74	3
50	148	1
62	71	2
150	164	2
53	56	2
81	84	2
3	23	1
186	211	5
55	133	1
43	71	1
153	173	2
64	85	1
123	129	1
180	211	4
151	154	5
33	123	2
21	78	1
161	177	1
206	212	2
136	138	6
41	87	2
189	220	2
67	123	1
13	64	1
74	88	3
161	202	6
183	208	1
138	143	3
142	154	1
103	112	1
101	130	2
2	10	1
122	162	4
175	176	5
138	142	4
187	198	2
36	58	2
84	121	3
2	8	5
152	227	1
50	83	1
36	170	2
103	199	1
10	20	1
7	33	3
68	119	2
169	183	1
54	101	2
173	209	1
210	240	1
11	232	1
119	137	4
172	219	1
196	223	3
140	201	1
26	54	2
171	174	7
68	76	2
0	28	3
76	106	4
193	204	1
225	230	3
19	36	4
5	10	5
63	235	1
155	238	1
137	142	1
67	73	4
11	83	1
105	116	3
1	30	2
105	107	2
188	225	1
57	65	2
136	154	2
137	139	2
111	153	4
16	22	5
66	99	1
181	191	2
102	187	1
40	50	2
44	147	4
201	208	1
25	64	2
7	29	1
114	168	1
50	79	5
100	195	3
85	113	3
46	125	2
82	129	2
30	118	2
35	49	1
167	201	1
202	236	3
116	150	1
28	113	1
102	184	1
201	219	1
152	159	2
199	227	3
8	62	3
189	221	1
44	143	1
142	147	2
190	224	2
188	213	4
25	32	3
21	36	2
134	150	1
24	75	2
43	87	2
53	77	2
71	177	3
74	131	3
31	84	2
134	135	2
18	23	2
121	190	4
200	230	4
32	107	1
86	96	1
21	76	3
34	77	1
111	134	1
88	98	3
191	202	4
72	81	1
168	224	4
18	39	1
37	68	4
61	68	1
43	206	2
19	34	1
121	144	3
50	153	2
118	153	4
23	178	1
27	120	2
24	129	2
25	196	2
76	116	3
11	13	1
180	185	2
89	188	1
123	130	4
29	57	1
115	116	3
30	32	4
73	109	1
113	135	1
1	125	1
137	200	2
187	191	4
155	167	1
165	170	2
64	69	2
56	209	1
120	126	2
176	215	1
120	197	2
83	133	3
180	189	4
62	174	2
23	36	1
40	61	1
27	38	1
201	205	2
48	60	1
44	115	1
119	128	3
20	32	1
44	164	1
21	215	1
191	193	1
171	185	1
76	83	2
109	115	3
138	174	1
73	89	2
200	218	1
174	201	2
180	199	3
0	37	2
81	88	1
137	166	3
84	140	1
109	120	2
220	228	1
37	202	2
74	81	1
35	51	2
68	74	2
46	48	3
134	136	2
200	202	3
229	231	1
217	230	3
136	177	1
193	213	1
18	31	2
202	235	2
84	126	1
166	174	1
167	185	4
197	223	2
13	29	2
134	159	3
15	18	4
208	225	3
165	187	1
167	192	1
136	139	1
147	187	1
105	142	1
21	25	1
101	195	2
205	208	1
159	165	1
40	150	2
158	167	2
12	47	2
151	156	2
55	197	3
52	140	2
207	224	2
27	71	1
91	129	1
54	61	1
37	55	1
143	161	2
9	140	6
148	223	3
115	138	1
20	29	1
59	89	1
6	49	2
158	179	1
158	165	1
62	152	2
27	235	1
186	209	2
34	37	1
30	43	2
71	153	1
131	200	1
211	228	1
200	227	1
195	199	1
103	114	2
168	207	2
29	38	1
37	230	2
161	219	2
162	166	1
170	190	2
19	22	1
40	81	1
102	137	1
191	195	1
24	26	1
106	168	2
137	182	1
68	80	2
163	185	3
44	185	1
133	159	2
77	89	1
47	49	3
115	168	1
9	15	1
123	201	1
68	109	1
125	130	2
19	58	2
3	14	2
21	229	1
99	194	2
198	211	2
221	229	3
10	43	1
125	197	1
45	97	2
154	184	1
174	203	3
42	181	1
106	108	2
2	21	3
25	241	2
141	207	1
6	218	2
161	170	1
179	193	1
119	146	3
1	5	1
99	190	2
86	88	3
221	223	2
11	223	2
79	128	1
3	17	3
47	172	3
10	147	1
97	175	1
27	160	1
166	183	1
125	201	2
233	236	3
2	72	2
166	170	3
195	200	5
172	230	1
75	121	1
156	177	1
210	230	2
143	170	1
198	217	4
139	152	2
15	20	1
173	218	1
17	78	1
188	200	1
29	32	2
11	62	1
15	34	1
5	17	2
17	23	1
13	26	1
5	64	1
82	123	1
76	104	4
189	234	2
199	217	2
10	87	1
145	147	5
114	116	3
199	205	1
58	237	1
37	43	2
182	201	3
67	74	1
1	49	2
155	178	1
183	186	2
136	143	1
169	206	2
135	161	2
33	91	1
34	66	2
74	84	1
165	172	3
7	30	1
186	213	1
40	68	1
19	25	1
53	173	1
139	191	3
202	203	3
105	115	2
124	229	2
64	159	2
169	177	1
212	221	1
19	44	2
109	126	2
129	145	2
46	174	1
175	234	1
184	191	1
148	212	2
37	82	1
20	22	1
130	153	1
37	56	1
6	29	2
53	135	2
211	218	2
146	215	4
22	81	3
98	172	3
161	166	3
6	30	1
108	117	2
79	115	1
168	185	1
89	113	1
39	48	1
16	20	2
29	211	1
176	206	1
72	86	1
41	82	1
120	128	1
105	122	1
155	225	2
213	216	7
126	128	3
20	217	1
84	238	2
18	203	1
113	115	1
54	56	1
27	175	2
45	133	3
55	157	2
154	187	1
78	104	1
97	105	2
199	221	2
130	133	3
14	31	2
150	225	2
77	82	3
53	91	1
117	137	2
72	223	1
226	229	2
46	54	1
53	57	1
69	98	2
210	219	1
103	106	2
85	90	1
6	56	1
13	38	1
139	161	1
16	23	1
130	223	1
77	104	1
4	31	2
111	124	1
6	129	1
11	26	1
183	226	1
3	75	1
146	151	1
36	85	2
95	197	2
163	192	2
11	43	1
10	21	1
23	49	1
151	172	1
32	115	1
5	56	1
115	121	1
31	47	2
49	140	1
140	205	3
47	59	2
199	214	1
49	79	2
86	197	1
38	61	2
141	170	1
0	177	1
122	137	1
85	239	1
154	162	1
108	228	1
48	83	2
7	11	1
112	144	1
15	19	1
123	155	2
62	143	1
6	22	1
35	56	2
118	139	3
18	79	1
73	121	1
33	73	2
98	188	2
171	230	1
196	226	1
20	25	1
183	187	3
102	159	2
173	238	2
9	65	1
42	98	1
198	233	1
37	49	1
142	186	2
22	49	1
133	163	2
50	53	2
163	167	1
142	159	1
57	133	1
45	180	2
25	38	1
101	127	2
100	151	2
11	30	1
35	58	1
29	100	1
45	49	1
185	187	3
114	154	1
0	66	1
167	199	1
219	235	2
64	89	1
12	30	2
166	197	2
197	203	2
105	161	1
20	219	1
6	9	1
17	81	1
237	240	2
132	134	1
77	105	3
85	241	1
50	80	1
47	56	1
120	127	1
153	159	1
71	205	1
143	154	3
73	206	1
2	139	1
216	235	2
99	110	1
71	74	1
63	238	1
15	77	1
87	97	1
26	70	1
111	113	2
44	170	1
104	135	1
108	126	1
130	227	1
43	69	1
196	206	1
63	76	1
108	167	2
218	236	1
242	243	1
91	92	1
91	179	2
16	31	1
54	63	1
191	218	1
131	213	2
27	70	2
178	208	1
0	136	1
9	130	2
109	141	1
194	209	1
34	40	1
220	224	2
42	217	1
172	175	3
10	28	1
56	75	1
102	123	1
115	166	3
91	95	1
149	234	1
212	228	1
79	105	1
26	37	2
163	184	1
127	131	1
62	74	1
11	70	1
4	162	2
95	158	1
149	160	2
99	103	1
50	144	1
99	104	1
96	157	1
119	237	2
14	49	1
57	77	1
85	88	1
39	75	1
72	163	1
164	174	1
119	133	1
15	48	1
209	229	1
173	225	3
54	69	2
5	48	1
210	213	3
80	118	1
14	79	1
187	223	1
191	199	1
24	50	1
62	160	3
8	36	1
1	15	1
215	223	2
191	217	1
116	127	1
208	232	1
157	178	1
203	219	1
44	233	1
7	12	3
43	74	1
88	205	1
46	67	1
12	18	1
182	194	1
77	84	1
127	176	1
130	168	1
9	40	1
191	242	1
26	32	1
99	107	1
170	176	1
84	195	4
23	33	1
62	77	1
66	136	1
81	107	1
179	209	1
209	215	1
72	143	1
31	105	2
5	63	1
8	10	1
173	201	1
14	110	1
75	86	2
173	184	2
119	197	1
6	17	2
159	176	1
213	228	1
119	147	1
128	226	1
11	22	1
55	75	1
24	38	1
102	106	1
23	48	1
190	227	1
62	171	1
164	185	2
53	65	1
121	154	2
88	173	1
109	112	1
33	241	1
45	203	1
159	178	1
65	100	2
27	217	1
121	137	1
139	165	1
121	162	1
13	30	1
138	140	1
160	204	1
57	154	1
48	142	1
166	210	1
112	124	1
109	118	1
137	148	1
28	70	1
190	222	1
27	194	1
71	78	1
64	153	1
48	53	1
183	185	1
106	130	1
60	76	2
120	131	1
205	217	1
133	149	1
134	162	2
199	222	2
154	234	1
133	164	1
85	145	2
168	172	1
4	66	1
155	157	1
33	127	1
12	218	1
95	96	1
97	170	2
171	186	1
29	136	2
14	77	1
11	38	1
215	218	1
144	172	1
65	152	1
5	36	1
64	82	2
103	109	1
21	41	1
25	54	2
25	28	1
10	231	1
150	241	1
125	168	1
185	229	1
51	75	1
137	141	1
9	67	1
116	123	1
0	31	1
135	173	1
85	87	1
115	126	1
38	76	1
155	170	1
170	173	1
5	8	1
107	118	1
100	152	1
29	141	1
39	46	1
198	226	2
143	202	1
97	157	1
20	27	1
7	14	1
64	233	1
36	87	1
187	241	1
101	152	1
77	117	1
179	210	1
6	35	1
26	64	1
200	213	1
167	208	1
97	111	1
233	240	1
56	222	1
113	136	1
82	126	1
50	238	1
