111	138	3
171	171	11
30	30	7
10	12	1
64	64	11
138	138	10
155	156	11
20	21	3
72	101	2
129	130	4
193	193	9
99	101	1
56	57	2
42	42	6
184	185	3
118	146	3
5	62	1
19	19	7
102	102	10
136	137	5
151	174	5
4	4	14
136	136	7
52	53	6
160	191	6
100	100	13
150	150	14
191	191	9
125	125	4
37	37	10
95	183	2
176	190	4
134	134	8
181	182	3
15	15	9
99	108	2
107	140	1
163	164	11
146	164	2
66	68	1
100	101	6
126	126	8
158	158	15
160	160	8
187	189	4
169	169	7
171	186	1
152	152	13
115	115	7
56	56	12
173	173	11
176	176	18
144	144	6
71	71	10
178	191	7
31	32	5
102	105	6
58	59	7
38	38	7
173	176	5
164	165	3
153	153	2
163	163	12
155	155	10
43	43	5
104	159	4
157	178	5
97	150	5
11	12	3
19	86	7
196	196	16
119	119	7
95	148	1
158	175	1
39	40	9
193	194	5
2	22	4
15	47	5
146	152	6
8	18	2
88	90	7
113	113	10
72	72	8
131	132	6
158	160	3
5	8	7
139	157	4
26	36	1
174	190	3
182	182	16
130	137	4
151	191	2
44	46	3
130	130	13
5	30	2
4	5	2
18	55	2
48	48	2
4	8	12
162	162	8
31	34	6
110	118	2
35	35	13
105	105	10
36	36	9
107	108	1
175	175	7
10	11	7
172	172	11
109	109	7
106	107	3
114	114	15
194	194	19
17	19	2
3	3	4
45	101	1
61	85	3
180	180	18
57	57	5
142	142	5
98	147	2
29	29	7
168	169	2
187	187	11
23	59	1
161	163	8
97	98	6
45	45	9
84	85	4
49	52	1
94	94	7
64	73	2
132	132	3
49	49	12
41	41	7
116	143	6
73	75	2
5	5	8
6	61	3
148	196	2
158	159	3
165	165	8
167	167	13
67	67	5
143	154	2
5	6	10
148	148	9
19	68	6
26	87	1
7	154	2
141	142	6
102	103	1
101	197	2
10	10	10
45	50	1
118	134	6
180	181	6
40	71	3
103	103	19
147	148	8
63	63	2
107	107	5
40	40	5
62	62	7
184	184	8
172	174	4
4	169	5
1	1	7
158	193	2
102	171	6
185	188	1
28	28	9
31	31	12
176	182	2
106	106	3
185	186	12
181	181	10
195	195	11
174	174	12
143	164	1
61	76	2
59	68	2
40	41	4
177	177	11
34	34	10
42	100	2
183	183	6
94	183	2
127	127	5
25	25	8
110	195	1
21	136	3
98	98	3
39	101	1
68	68	6
141	141	5
85	88	4
144	158	3
2	2	10
133	133	12
13	13	6
16	70	2
6	6	2
58	58	12
52	52	11
157	175	2
10	48	3
191	192	10
3	30	1
44	69	4
147	170	2
81	81	5
109	110	9
93	93	4
138	139	1
31	57	1
43	44	2
131	136	5
110	132	2
154	154	19
101	102	2
87	87	4
21	21	10
80	80	5
151	167	2
23	23	3
148	163	2
190	193	1
37	38	12
64	65	6
17	17	14
17	20	1
63	129	3
59	86	2
192	192	9
17	18	4
37	39	1
121	123	5
184	193	2
62	63	4
46	46	7
27	28	1
166	166	4
5	60	3
94	100	4
113	119	1
60	62	5
143	143	7
65	67	4
189	189	20
121	121	8
70	70	9
20	20	4
161	161	10
144	153	4
25	87	4
73	73	7
170	170	7
82	83	5
55	56	12
167	170	1
138	143	2
166	167	1
94	189	2
76	79	2
103	104	3
77	78	7
126	127	5
135	135	4
97	97	3
50	50	8
105	106	1
40	178	1
100	118	2
137	138	3
176	196	2
111	152	2
153	155	3
190	190	15
132	138	1
150	157	1
83	83	3
12	77	1
122	122	5
8	8	7
179	179	14
136	140	1
113	114	3
126	128	4
98	132	3
171	188	6
33	37	5
188	188	10
36	53	1
116	140	2
159	159	7
0	89	2
27	27	4
157	157	7
75	75	2
6	67	1
32	32	3
95	191	2
123	123	5
118	149	1
52	194	1
139	139	2
121	126	2
112	173	1
51	51	8
66	105	3
164	164	5
18	18	6
151	151	6
3	5	1
29	30	2
43	45	1
157	158	4
47	47	6
185	185	4
12	12	9
131	131	3
130	143	1
7	21	1
142	194	3
119	194	3
103	170	4
189	195	1
123	124	3
25	81	2
95	99	2
16	16	5
117	117	2
116	116	5
148	191	1
163	165	4
155	158	3
57	58	1
88	89	1
33	35	3
99	166	2
38	176	1
28	29	10
163	166	2
54	130	1
58	63	3
86	87	2
86	108	2
89	89	5
118	145	2
115	145	4
109	116	2
59	59	5
66	67	2
41	42	2
27	36	2
7	7	7
135	181	3
187	188	9
167	168	5
154	156	2
121	133	1
36	39	2
35	114	4
21	26	1
61	62	3
54	54	11
98	117	2
46	122	3
192	193	4
149	150	2
156	156	4
74	74	7
1	90	1
81	82	4
104	105	5
32	57	2
65	65	3
178	178	3
146	147	7
35	36	1
86	89	1
130	131	3
33	33	4
142	177	6
20	22	2
136	138	1
39	39	6
53	126	1
13	14	3
166	189	5
98	146	3
108	108	6
12	13	4
159	180	1
93	143	2
78	79	6
113	115	3
49	106	1
145	162	6
67	69	3
21	22	2
186	186	4
90	172	1
110	111	4
70	72	4
119	193	2
137	137	1
76	76	3
138	141	1
151	179	5
128	128	10
150	152	1
143	161	3
171	172	5
152	162	1
176	197	3
118	137	3
108	144	6
190	191	5
126	179	2
104	104	5
111	111	3
151	189	1
165	167	3
98	148	1
90	192	3
102	129	1
57	138	1
146	146	3
0	0	3
112	112	6
164	187	3
23	82	2
155	166	3
38	39	3
116	147	1
73	74	1
134	137	1
128	129	1
30	31	2
152	155	4
19	22	3
84	84	3
154	162	1
69	69	3
124	184	3
9	48	4
5	7	3
197	197	5
15	17	1
4	30	1
44	44	5
136	142	1
174	175	4
110	151	2
194	195	2
195	196	3
122	124	3
4	26	1
72	190	4
178	180	2
150	151	1
34	40	1
145	147	1
150	183	4
77	77	3
189	197	2
33	36	2
175	176	1
93	139	1
21	116	2
173	177	1
140	147	1
3	6	1
157	174	2
134	190	4
145	197	2
86	88	2
9	13	2
30	67	2
110	110	7
179	180	1
66	66	5
169	189	1
145	145	2
171	194	1
134	140	2
2	18	2
29	87	5
71	72	1
29	78	2
57	182	3
15	16	3
78	78	3
63	90	1
117	145	1
140	140	5
170	171	1
140	158	1
106	172	1
18	23	3
134	181	3
9	9	5
74	75	3
96	182	1
141	158	2
4	6	2
16	17	2
54	68	2
60	60	2
110	150	2
143	145	1
1	3	4
115	178	1
104	161	1
80	81	1
158	180	2
165	166	3
106	173	1
35	44	1
16	44	1
14	14	5
151	152	2
23	84	2
7	143	1
53	53	3
111	142	1
50	51	4
26	26	5
79	79	1
16	47	4
154	182	1
150	156	1
24	24	8
146	191	2
58	71	1
75	84	3
150	182	2
188	189	3
142	191	1
129	129	6
113	186	1
46	47	1
11	11	1
156	157	2
164	169	2
24	28	3
171	197	1
108	160	1
1	128	1
161	164	1
29	54	1
104	107	2
159	160	5
57	59	1
110	112	3
168	168	6
148	152	1
24	82	1
95	95	1
1	89	1
120	120	5
158	161	2
155	157	2
59	85	1
113	144	1
117	147	1
21	34	1
67	68	2
116	131	2
149	149	2
8	116	1
136	144	1
93	134	1
55	55	1
105	107	1
56	132	1
39	179	1
53	55	2
62	64	1
108	140	1
43	46	1
8	21	2
184	186	1
70	71	1
4	82	1
0	2	1
177	178	3
130	185	1
183	184	1
142	143	1
114	143	1
96	97	1
99	134	2
106	177	2
21	115	1
99	146	2
152	153	1
117	159	1
25	28	1
23	27	2
88	88	3
116	146	3
136	178	2
127	128	1
134	143	1
25	26	1
133	134	1
5	66	1
3	64	1
113	131	1
153	172	1
116	145	1
67	73	1
174	191	1
169	170	1
151	159	3
119	122	1
100	122	1
101	101	1
76	77	2
95	141	1
96	170	1
96	96	1
124	124	3
41	84	1
141	170	1
112	113	1
118	147	2
81	83	1
34	35	2
56	58	1
169	173	1
32	36	1
148	160	1
132	181	1
178	193	1
94	96	2
95	96	1
131	181	1
145	164	1
99	139	1
119	120	1
1	2	2
38	179	1
93	142	2
100	160	1
130	132	2
188	197	2
120	121	1
19	113	1
23	58	1
74	115	1
86	86	1
113	185	1
147	147	1
109	138	1
23	24	1
172	177	1
15	46	1
82	82	1
141	157	1
133	140	2
8	87	1
172	194	1
166	190	1
39	122	1
114	124	1
99	171	1
32	44	1
173	174	1
33	34	1
6	19	1
126	135	1
38	41	1
