56	56	5
26	26	4
103	104	6
94	94	9
35	75	7
41	98	2
59	61	5
37	37	10
73	73	6
41	44	2
98	98	2
34	91	2
74	74	7
55	55	7
29	30	3
57	57	7
58	90	2
42	43	3
78	101	2
40	40	7
22	23	1
40	42	3
92	92	2
46	49	4
45	46	3
51	52	2
57	58	4
61	61	5
26	28	2
50	50	10
95	95	2
20	20	8
22	101	4
34	34	4
51	51	4
68	69	1
88	88	7
63	63	10
71	71	8
76	76	3
47	87	5
53	53	5
27	28	3
32	32	2
36	37	1
100	100	8
79	80	1
21	21	8
57	84	1
106	106	3
20	78	2
33	33	5
65	65	5
26	27	11
46	46	1
37	38	2
36	36	1
61	64	1
102	102	3
55	97	1
77	77	3
95	99	4
61	62	3
87	88	2
56	57	3
48	49	1
20	106	2
67	67	10
82	82	7
32	37	1
20	96	3
47	47	3
34	59	2
25	25	4
86	87	3
90	90	5
73	74	1
78	78	8
30	30	2
55	56	3
74	97	2
97	97	3
91	93	1
42	42	1
40	41	1
91	91	2
31	32	1
64	64	3
100	103	2
52	52	5
35	35	1
103	103	1
26	29	1
59	60	2
68	75	1
38	38	4
61	82	1
45	45	3
76	86	3
72	72	3
94	107	1
32	81	1
41	43	4
39	39	3
30	98	1
31	31	5
66	67	4
71	72	1
31	104	1
87	87	6
101	101	1
80	81	7
24	24	3
58	58	6
26	106	1
45	66	1
39	84	2
83	106	4
39	42	1
27	98	3
42	44	1
38	39	2
43	43	2
59	59	1
104	104	1
82	86	1
89	90	5
80	84	1
47	62	1
23	24	3
24	69	2
59	78	2
22	22	5
70	70	2
58	89	1
85	85	3
92	94	2
69	69	2
99	107	1
30	44	2
25	78	3
83	84	1
46	83	3
53	54	6
99	99	1
25	29	2
23	23	5
73	106	1
45	48	1
47	49	2
28	28	1
30	31	1
62	63	2
63	100	2
82	96	3
58	59	3
41	41	2
105	105	1
90	91	1
79	97	1
59	75	2
48	73	2
72	100	1
20	84	1
27	27	2
51	64	1
33	34	2
62	62	1
29	29	2
80	80	1
86	97	2
34	46	1
51	66	1
63	65	1
63	81	1
100	104	1
37	41	1
66	66	1
92	93	2
96	100	1
96	96	1
102	103	1
70	73	1
34	38	1
30	33	1
78	97	1
