185	185	5
90	90	7
69	146	2
141	141	8
142	142	4
89	91	3
1	1	6
153	153	9
87	87	5
68	68	2
33	48	1
33	35	2
70	70	4
104	104	4
134	134	5
129	142	3
140	141	4
109	109	6
71	72	3
14	15	2
95	95	11
116	116	2
98	100	2
119	151	3
120	120	9
39	39	9
81	93	1
154	154	8
149	149	5
77	79	3
1	2	1
151	151	4
166	166	1
161	161	7
73	73	6
125	125	10
163	164	3
164	164	8
170	170	4
87	152	3
136	136	2
103	104	3
143	144	1
27	28	2
131	131	12
126	126	3
16	17	5
148	148	7
187	187	1
140	140	9
13	13	4
85	91	1
177	177	7
117	118	2
89	89	6
179	179	1
83	83	13
186	186	8
121	121	4
24	24	13
132	132	1
5	5	3
39	40	4
138	138	6
99	100	2
156	156	4
79	79	6
30	31	4
15	15	6
6	21	1
123	128	1
26	27	2
77	77	14
47	47	8
20	20	3
77	133	5
103	103	4
23	24	2
109	111	1
114	114	9
100	100	6
107	109	2
6	6	3
108	108	1
134	135	2
157	157	2
106	176	2
92	93	5
102	102	3
127	127	4
98	98	4
88	151	1
66	93	1
184	184	5
3	3	5
173	174	1
59	59	4
28	30	2
44	44	2
72	72	4
63	63	8
148	150	3
47	88	2
9	11	1
125	155	3
137	137	2
62	62	3
104	106	1
120	157	2
10	10	3
25	31	5
139	139	13
17	17	1
12	12	5
113	113	6
65	95	1
37	37	8
144	146	5
176	176	1
175	175	8
172	184	2
80	165	3
8	8	10
25	39	5
86	86	5
99	99	9
75	76	4
123	123	6
29	29	5
11	11	2
61	61	6
22	23	1
169	169	10
30	30	1
89	90	2
68	79	4
120	121	2
119	119	6
77	151	2
105	105	2
150	150	2
18	36	2
121	122	3
67	80	1
19	19	1
93	94	1
112	112	13
124	124	4
56	57	2
109	110	5
43	43	3
178	178	5
128	128	6
48	48	7
110	110	5
102	154	3
153	154	1
123	126	3
160	160	1
67	67	1
171	171	3
61	62	5
26	26	4
167	167	7
135	135	1
107	107	8
154	157	3
47	48	4
84	102	2
122	122	4
27	27	3
22	42	2
14	14	2
173	173	2
41	41	6
72	110	1
54	54	3
183	183	5
87	89	1
129	129	4
152	152	6
40	40	13
16	16	4
48	85	1
76	189	1
168	168	2
84	84	5
146	147	4
2	2	6
86	94	2
73	82	2
88	88	6
146	146	3
97	97	2
12	13	2
186	189	1
140	165	1
45	88	2
172	173	2
78	78	4
149	175	3
44	45	4
23	23	3
84	159	2
161	162	5
43	44	2
188	188	3
138	139	5
129	152	1
182	182	3
82	83	3
75	75	3
31	31	3
149	150	1
25	40	1
179	181	3
64	65	1
123	127	1
74	83	2
63	93	1
172	174	1
0	1	5
139	140	3
83	86	2
58	61	1
18	19	2
66	66	5
4	5	1
165	165	3
158	158	2
22	22	1
36	36	2
104	105	2
122	123	5
174	174	2
127	128	2
143	143	3
46	46	3
32	34	2
155	156	1
144	144	3
132	133	1
114	123	2
107	108	2
93	93	1
84	103	1
57	57	4
79	80	1
80	80	3
105	118	1
12	14	2
117	117	6
114	155	3
163	163	4
180	180	2
133	134	1
58	58	4
65	65	1
136	137	1
56	56	1
96	96	1
38	38	3
152	153	6
91	91	3
74	74	1
67	81	3
33	33	1
21	22	3
34	34	3
18	37	3
147	147	2
60	61	3
82	82	5
78	132	1
65	68	1
125	154	2
55	56	2
133	133	2
19	42	2
154	156	3
0	0	3
7	7	2
19	20	4
84	162	1
145	145	1
116	117	3
71	71	4
64	64	1
180	181	1
65	66	1
24	42	1
158	162	2
98	99	1
32	41	2
20	42	2
87	103	1
78	182	2
84	85	3
7	8	1
130	131	2
147	148	1
58	64	1
141	147	1
107	110	2
100	108	1
79	164	1
94	94	1
115	117	1
78	179	1
36	37	1
25	26	1
127	136	2
134	141	2
99	144	1
4	7	1
130	130	3
187	188	1
42	42	4
111	112	1
162	162	2
129	151	1
90	91	2
27	29	1
114	115	1
78	79	3
41	42	1
123	129	1
25	25	1
101	101	1
68	69	1
91	92	2
42	44	1
34	36	1
38	40	1
63	64	2
96	107	1
110	113	1
77	183	1
162	165	2
83	87	1
18	18	2
97	108	1
46	88	2
45	46	1
20	21	1
112	140	1
57	89	1
181	181	1
148	149	1
170	171	1
145	146	1
150	186	1
124	125	1
4	4	1
