115	115	10
133	133	10
89	90	8
126	126	24
117	123	1
30	30	16
134	136	4
101	101	6
97	128	4
77	77	6
85	105	4
78	98	3
34	35	6
105	107	6
129	129	19
95	96	3
74	75	8
105	105	10
134	134	18
33	33	13
136	138	3
76	76	9
112	112	16
79	84	4
32	32	6
80	82	1
124	124	11
12	14	2
28	29	7
18	18	7
95	95	8
130	130	16
79	79	4
37	37	10
136	136	13
10	11	10
0	2	3
84	84	5
21	21	11
35	36	9
79	80	6
134	139	5
81	81	6
118	118	3
2	2	8
116	116	9
35	35	5
139	139	13
83	84	2
110	110	11
34	34	6
22	23	7
100	100	9
74	76	1
12	12	9
128	130	4
74	74	6
17	28	3
94	94	6
127	127	13
15	17	2
1	2	3
137	137	2
131	131	11
83	113	5
138	139	4
27	28	2
5	6	5
125	126	4
135	135	21
124	125	7
18	19	7
22	22	5
75	77	5
75	75	7
134	135	4
112	115	2
115	118	1
27	27	9
111	113	3
1	8	3
117	117	10
6	6	10
135	136	5
3	3	3
131	135	2
5	132	3
102	102	6
128	129	9
96	96	5
86	86	5
17	18	2
124	126	3
140	140	7
11	11	2
136	137	2
80	81	9
126	127	5
125	125	14
93	93	13
97	97	10
14	14	3
73	73	8
80	80	18
22	28	4
83	83	2
26	26	3
129	130	3
117	119	2
123	123	9
119	122	4
4	5	11
120	120	2
104	104	5
119	120	1
110	111	6
19	19	7
103	104	2
12	31	5
99	99	3
123	124	5
137	138	14
19	20	4
72	72	5
71	71	13
10	10	9
106	110	2
7	29	3
138	138	7
115	116	6
126	129	5
82	100	3
80	84	1
13	13	7
85	93	1
89	89	5
114	124	4
28	28	4
127	128	8
82	82	5
16	17	4
9	9	3
106	106	4
20	20	8
121	125	2
1	1	9
90	90	3
13	14	8
79	100	1
29	29	5
123	125	2
114	114	10
132	132	13
116	120	6
107	108	5
111	111	8
106	109	1
90	93	2
117	120	3
88	88	8
109	109	11
25	26	6
103	103	8
75	76	6
130	132	2
97	98	3
78	78	9
96	109	1
98	98	6
15	15	6
91	91	12
78	85	2
118	119	1
121	121	7
5	5	5
8	8	6
27	34	4
107	107	7
78	79	3
29	33	1
92	93	1
93	106	3
30	32	1
104	105	3
120	122	8
15	32	1
24	26	1
122	122	6
100	103	1
91	92	2
24	76	3
14	15	3
23	24	2
96	97	1
128	128	2
23	23	3
15	33	1
16	16	5
93	140	3
20	29	1
79	81	2
109	110	2
101	102	2
113	113	11
71	79	2
134	138	1
80	100	1
1	14	4
44	44	2
90	91	5
96	139	3
108	109	3
114	115	3
76	77	2
77	78	1
2	5	2
16	96	4
12	13	1
88	94	1
1	12	5
3	12	1
95	98	3
15	18	1
109	111	3
4	7	1
79	82	1
97	99	1
76	78	4
79	140	3
133	134	3
24	71	2
17	17	7
20	23	1
31	32	1
120	121	1
28	30	2
119	119	5
15	16	3
94	95	5
9	12	1
8	11	2
87	87	2
88	89	1
5	26	1
38	38	2
10	31	6
131	132	1
139	140	1
125	137	1
96	98	2
114	117	2
113	115	1
3	7	3
128	135	3
3	4	2
95	97	1
24	24	4
132	133	3
78	82	3
30	31	2
102	115	2
77	80	2
93	94	2
131	134	2
36	36	4
33	34	1
79	85	1
121	123	2
88	90	1
100	104	2
99	110	1
127	134	4
21	22	4
130	131	2
79	83	1
101	108	1
3	6	1
130	134	2
92	92	3
97	109	1
72	75	1
16	18	1
85	86	3
9	10	3
27	30	1
25	72	1
120	125	1
71	78	3
4	4	1
73	74	1
95	109	1
72	73	1
106	107	1
102	103	1
116	119	1
6	7	1
37	38	1
7	31	1
119	123	1
11	28	1
2	4	1
21	31	1
24	27	1
86	88	1
102	112	1
82	87	1
113	119	1
116	117	1
117	118	1
133	135	1
29	32	1
82	84	1
116	124	1
88	92	1
100	101	1
26	76	1
108	108	1
