61	61	24
49	49	9
54	54	11
68	68	18
3	3	8
12	13	9
80	80	15
86	87	14
4	4	10
80	84	3
48	59	2
78	79	4
63	64	5
71	86	4
22	22	18
90	90	2
63	63	20
85	85	5
71	73	2
65	65	27
73	75	5
50	61	7
49	66	1
48	66	3
85	86	9
17	17	6
82	83	8
30	31	9
61	62	8
29	67	1
71	82	4
11	11	13
70	89	4
25	25	9
16	17	1
10	25	3
79	80	2
89	89	12
10	56	2
0	0	7
53	54	10
58	58	10
49	74	13
10	10	15
78	78	18
56	81	3
1	1	14
34	34	6
47	77	4
5	5	11
13	13	15
83	83	12
52	52	14
51	51	8
18	18	3
9	10	11
57	57	14
15	16	4
48	49	5
56	56	16
49	60	1
46	46	12
76	76	7
79	79	13
70	70	7
54	55	9
57	58	3
75	82	2
7	7	14
53	72	1
59	60	5
5	6	7
72	72	13
67	89	6
58	66	2
13	21	2
7	46	5
87	87	13
66	66	14
29	29	6
50	50	7
64	72	5
14	67	6
71	71	21
64	64	13
14	14	6
82	82	20
21	22	2
26	26	17
51	77	2
24	24	20
75	75	13
60	62	4
75	81	2
13	19	6
26	27	6
28	28	3
23	26	4
55	55	15
3	4	11
86	86	14
27	27	17
55	72	3
77	78	4
67	67	12
7	20	1
59	62	3
53	75	6
47	56	2
59	66	6
47	71	2
24	25	2
31	31	10
67	68	4
49	77	5
13	27	6
12	12	10
59	59	15
51	52	8
88	89	2
49	61	5
65	66	2
48	48	8
59	84	1
77	77	9
71	74	5
8	27	9
17	19	2
6	6	15
0	24	1
50	65	3
82	84	2
22	23	6
53	53	7
84	84	14
59	63	1
74	74	15
23	25	1
58	75	2
12	25	1
61	65	1
60	66	4
57	89	3
12	14	2
23	23	14
19	20	3
8	8	3
88	88	15
47	47	8
19	19	9
64	65	3
60	60	8
23	24	1
55	83	3
52	53	2
52	80	1
50	74	1
69	69	7
65	73	2
53	74	1
28	30	2
78	83	9
63	87	3
25	26	4
87	88	3
77	84	2
7	10	3
5	17	1
18	30	1
10	55	3
47	52	1
35	35	1
50	52	5
81	81	10
81	84	6
62	64	6
8	52	5
65	84	4
29	30	2
60	64	2
53	79	2
9	25	1
15	15	3
30	30	10
22	24	3
58	61	2
74	85	2
20	46	1
85	88	1
14	46	3
62	65	4
65	76	2
0	1	2
46	67	2
55	71	2
20	20	5
7	54	1
23	30	4
59	72	1
53	80	2
85	87	2
20	22	1
7	13	1
56	71	1
8	72	5
47	74	1
8	16	1
20	21	2
8	17	2
13	31	2
10	27	1
70	83	1
72	74	3
23	63	1
6	34	3
11	16	1
17	20	2
57	74	3
67	87	2
23	64	1
17	21	2
62	63	3
52	54	2
54	80	2
2	2	3
19	21	2
49	50	2
62	62	1
35	53	4
17	26	2
56	57	4
63	84	2
75	76	1
60	65	1
77	80	1
50	51	5
62	70	1
21	21	2
7	33	3
17	18	2
81	82	1
9	9	1
70	75	1
76	77	3
59	65	1
7	8	2
58	62	3
18	21	1
74	76	3
71	78	1
19	58	1
5	35	1
73	73	4
58	73	1
6	10	1
52	65	1
7	26	1
78	82	1
54	81	2
79	81	1
71	81	2
60	61	1
31	71	2
7	56	3
2	67	1
74	82	1
53	82	1
53	73	2
66	67	1
80	82	1
6	35	1
59	64	2
48	58	1
10	12	1
58	60	1
65	71	2
15	24	1
34	64	1
23	27	2
11	12	1
63	78	1
79	84	1
12	18	1
9	27	1
66	87	2
26	48	1
14	81	1
50	71	1
10	15	1
47	57	1
12	22	1
46	48	1
77	88	1
47	48	1
