47	60	2
44	44	2
57	58	12
88	88	14
94	94	14
65	65	11
22	22	10
84	84	16
76	76	13
77	101	1
89	100	2
52	55	3
98	98	3
80	80	14
53	53	15
28	28	28
45	47	6
75	77	2
92	93	4
93	95	2
50	50	16
31	94	3
25	25	7
49	49	12
55	57	4
38	38	9
103	103	12
73	73	11
104	105	16
69	70	1
52	63	1
50	55	6
41	82	1
89	90	8
96	96	11
46	46	14
54	55	5
75	75	5
47	48	10
50	51	6
21	95	1
68	74	4
36	36	13
42	42	9
70	70	11
26	27	4
35	47	2
102	102	15
22	43	2
42	44	5
34	34	13
83	84	2
59	59	16
89	89	7
23	24	4
100	101	2
33	34	2
64	64	17
74	74	18
87	87	5
81	81	14
55	56	3
62	63	6
101	101	6
54	54	16
100	100	7
83	88	1
62	62	3
21	21	14
67	68	2
41	46	4
52	52	4
41	42	3
23	23	17
63	64	2
76	77	5
37	37	16
72	72	5
58	58	20
31	35	4
68	68	16
23	36	2
77	77	12
56	56	10
29	29	8
57	57	11
86	86	10
44	89	1
31	31	16
37	44	2
47	47	5
23	75	2
97	97	13
61	63	5
71	71	9
74	75	8
55	91	2
71	73	5
20	20	4
97	99	7
60	61	3
27	27	5
32	54	1
60	60	8
59	62	1
58	60	1
54	70	4
82	107	2
61	62	3
60	97	2
33	33	5
84	85	2
27	41	2
48	48	8
41	72	2
69	69	8
52	58	4
93	93	12
105	105	11
21	22	8
40	40	7
26	26	10
92	104	2
27	28	4
80	98	2
70	71	2
93	100	1
49	82	2
66	66	6
91	92	4
67	76	1
68	69	3
55	55	10
75	91	1
29	37	1
67	67	9
51	53	2
30	30	4
20	96	1
49	96	3
27	29	1
79	79	7
102	103	1
22	45	2
24	24	10
24	96	2
65	66	4
41	45	3
95	96	5
31	32	4
30	47	1
41	41	4
32	32	14
46	99	2
55	78	4
83	86	3
51	51	11
85	85	4
104	104	19
51	52	2
94	95	4
30	31	1
35	75	1
78	78	12
36	37	1
53	55	5
99	99	8
25	31	2
75	76	1
74	76	1
32	95	1
90	91	5
83	83	9
43	44	4
61	61	8
31	38	1
87	96	2
37	39	1
22	23	3
79	88	2
39	39	5
53	54	3
97	98	5
77	105	1
42	43	5
66	67	7
35	35	13
60	92	2
47	49	5
63	63	4
25	26	3
35	60	1
33	72	2
58	78	4
43	43	4
34	49	1
66	73	2
31	36	3
91	91	4
95	95	5
97	100	1
64	65	2
102	104	6
32	34	1
88	97	3
83	87	1
25	29	4
43	46	1
30	94	2
40	41	5
29	97	2
45	45	3
45	56	1
37	98	1
84	86	3
28	29	6
57	59	1
22	68	1
82	88	1
101	102	1
45	78	1
106	106	5
47	79	4
98	99	3
51	65	1
48	49	2
51	55	4
34	72	1
40	82	1
107	107	3
65	100	1
68	71	1
78	79	3
72	73	3
92	92	2
81	99	1
90	90	3
82	106	1
55	58	1
82	87	1
86	87	1
40	43	2
51	72	2
82	83	2
54	63	1
71	103	1
90	101	1
36	46	1
63	65	1
32	35	1
56	91	3
49	54	1
93	94	2
89	93	1
23	80	1
37	38	1
38	39	2
66	72	1
46	73	1
79	98	2
50	65	1
80	81	2
22	28	1
93	98	2
37	40	2
38	40	3
37	100	1
91	95	1
74	100	1
67	78	2
73	74	1
94	96	1
30	79	1
68	70	1
22	24	1
78	99	2
79	94	2
46	47	3
84	87	2
67	88	1
30	33	1
66	97	1
45	46	1
31	37	1
85	86	2
89	92	1
47	62	1
41	43	2
96	99	1
43	106	1
46	56	2
44	78	3
43	45	1
72	91	1
41	47	1
67	86	1
52	53	2
49	78	1
79	80	1
79	81	1
50	64	1
82	82	2
57	83	1
24	25	1
44	45	1
39	93	1
34	50	1
