81	81	8
166	168	3
80	80	7
168	168	4
51	51	9
121	159	3
28	81	2
0	103	7
32	79	5
125	158	1
121	156	2
169	170	8
114	114	15
145	147	1
129	130	3
66	66	3
88	182	4
126	157	2
159	159	7
5	5	8
105	106	10
123	124	4
177	177	6
189	192	4
0	0	5
126	126	5
34	34	5
129	131	2
72	76	2
138	146	1
3	3	3
190	190	6
42	42	6
136	137	1
155	197	2
37	37	5
142	152	3
101	101	5
185	186	11
155	155	7
146	146	5
145	145	2
50	50	4
179	179	14
113	128	1
122	122	5
193	193	8
121	140	3
112	112	4
75	94	2
105	105	5
180	180	10
31	31	1
43	43	2
24	27	1
111	112	2
187	192	6
36	36	3
90	90	1
154	183	1
171	171	11
161	162	3
138	138	5
136	136	8
107	108	5
176	176	4
186	186	6
100	142	3
62	63	3
152	153	4
152	152	5
96	127	2
5	106	1
187	188	2
6	6	8
29	29	4
16	16	3
103	104	1
195	195	4
95	95	5
60	60	10
18	20	2
184	184	11
8	9	1
179	180	4
182	182	6
34	35	1
181	184	3
54	60	2
54	55	3
7	7	12
78	120	3
163	164	6
35	35	8
11	11	5
117	117	7
183	189	3
128	128	12
13	14	2
156	157	2
188	188	8
78	78	1
49	50	1
33	55	2
135	135	1
116	116	7
100	106	3
101	132	1
32	32	3
175	176	6
85	86	2
178	183	2
151	151	8
188	191	3
189	189	5
112	140	2
111	158	3
2	3	1
116	158	3
30	31	4
147	147	14
186	187	1
133	133	4
70	70	5
59	59	4
96	97	2
102	103	4
100	168	5
184	188	2
109	109	6
173	180	1
118	139	4
9	9	9
139	140	3
113	124	1
68	68	8
163	163	10
42	43	3
69	90	1
36	37	7
130	181	6
114	115	4
51	52	4
118	118	1
124	124	2
22	34	2
170	170	5
191	191	11
194	195	1
76	76	2
24	24	8
167	167	9
115	116	5
7	8	6
7	25	4
182	183	2
39	39	4
191	192	1
13	13	2
174	174	5
118	135	4
113	113	2
133	134	2
195	196	1
17	17	2
124	127	3
9	38	5
19	19	4
17	59	1
107	107	6
181	181	4
149	149	7
149	180	1
10	11	2
142	142	3
154	159	1
10	10	8
61	66	2
157	165	2
54	54	4
82	82	4
189	194	3
151	163	1
140	141	1
165	167	2
113	114	4
130	131	1
165	168	3
53	63	1
184	186	2
1	2	9
38	71	1
77	77	4
22	22	1
165	165	4
193	197	4
65	65	9
176	177	1
100	100	4
155	179	3
115	118	1
156	158	3
150	150	12
103	103	1
35	37	3
39	74	4
74	75	3
46	46	3
119	167	4
23	23	4
39	40	6
165	166	2
106	107	2
171	183	2
15	15	3
55	55	4
69	69	3
192	192	2
23	24	2
192	193	2
189	190	2
8	8	2
154	154	4
28	29	1
121	121	2
180	191	4
109	110	6
59	68	1
74	77	3
50	73	2
187	195	1
35	51	3
134	134	2
135	137	3
150	164	1
127	127	4
2	2	1
108	108	6
113	139	4
38	38	4
40	40	2
17	18	6
115	124	1
7	40	2
105	107	3
20	21	6
64	64	7
63	63	3
173	173	5
14	14	7
148	161	1
45	45	1
152	160	3
168	186	2
80	82	1
12	14	1
117	146	2
121	122	1
99	99	6
183	183	2
52	53	2
151	195	2
132	136	3
97	98	2
161	161	4
157	158	1
160	160	7
26	59	1
148	148	3
30	51	2
100	103	2
144	159	3
132	133	3
101	162	3
137	144	4
196	196	1
122	123	2
37	54	1
164	164	2
110	140	2
176	178	4
70	128	1
102	102	1
69	73	1
166	166	1
143	179	1
56	57	1
141	143	2
62	62	3
129	129	5
35	36	1
98	98	2
4	4	2
107	110	2
163	189	2
72	73	3
159	160	1
9	10	2
177	182	1
88	88	3
123	123	1
159	161	1
25	35	1
41	41	7
58	58	4
53	55	1
76	77	1
126	127	1
153	153	1
160	161	2
77	78	2
132	132	3
47	47	1
51	94	2
29	70	2
86	142	1
129	139	2
33	33	6
120	141	1
48	48	2
96	96	2
99	100	2
187	187	5
110	139	4
46	47	2
197	197	4
16	17	2
110	110	3
13	16	1
64	65	1
94	94	2
30	127	1
30	30	1
150	151	2
19	28	3
67	67	3
50	58	1
127	146	1
1	4	1
106	119	1
52	52	1
122	129	2
125	125	2
140	169	1
138	143	1
114	167	2
189	193	3
2	95	2
142	192	1
22	26	2
44	44	3
21	21	2
104	190	1
22	25	2
149	154	2
49	49	3
22	51	1
159	181	2
119	119	1
139	139	1
112	169	4
36	65	1
20	20	1
128	141	2
49	142	1
140	140	3
113	130	4
133	143	1
134	136	1
119	152	1
146	173	1
13	42	2
110	111	1
1	1	1
22	35	1
181	192	1
117	143	1
73	76	2
57	60	1
61	61	3
71	72	1
132	143	2
55	56	1
4	5	1
101	104	1
34	37	1
144	144	1
101	173	1
138	149	1
51	59	1
28	87	1
24	25	1
37	69	1
99	191	1
110	112	1
10	74	1
35	41	2
117	144	1
175	175	1
61	64	1
115	115	1
6	23	1
10	12	1
78	79	1
149	191	1
156	179	1
156	156	1
144	147	1
62	64	1
173	182	1
140	142	1
112	148	1
