123	123	1
91	91	6
6	6	11
138	138	3
125	138	4
114	119	2
11	11	1
1	1	8
71	71	3
158	160	2
54	54	2
50	55	1
36	36	10
109	141	2
57	69	2
84	111	2
135	135	3
103	104	1
136	136	13
19	27	1
43	43	5
26	26	6
5	5	5
41	71	1
107	107	8
37	37	6
17	17	6
92	92	3
164	164	6
24	24	4
44	45	2
55	55	4
158	166	5
62	62	4
39	39	5
162	165	3
152	152	4
47	49	4
117	117	6
120	120	2
68	69	3
9	10	2
118	125	1
126	126	5
73	73	4
50	58	1
77	77	1
5	11	3
94	94	4
12	45	4
46	47	3
57	57	8
52	74	1
130	163	1
10	10	7
121	154	4
86	86	11
157	166	3
85	85	3
154	170	3
81	82	4
108	109	3
118	118	3
98	98	6
150	151	2
45	69	2
38	38	3
80	80	1
95	95	4
166	166	1
34	35	4
7	7	5
12	12	4
112	122	2
143	143	3
75	75	7
20	22	1
101	102	3
0	1	2
63	63	7
167	167	1
169	169	1
64	166	1
99	100	2
150	150	3
162	162	1
127	128	1
125	125	4
91	92	4
2	2	2
53	53	14
19	19	2
67	81	1
47	47	6
116	116	2
110	110	5
165	170	1
69	71	2
37	38	2
111	111	6
69	69	5
140	140	1
141	141	2
47	51	2
21	22	3
169	170	1
39	40	2
20	23	3
67	76	2
108	108	2
132	132	2
124	125	1
126	127	2
151	151	5
0	24	2
101	103	2
154	155	3
96	98	2
45	83	3
50	50	2
14	15	7
45	79	1
63	81	2
160	160	3
156	156	1
106	106	1
159	159	4
18	19	1
112	113	1
24	55	3
99	99	2
16	16	4
72	72	2
35	35	2
137	137	4
0	0	3
146	155	2
46	50	1
70	70	3
14	14	6
5	6	4
8	13	2
74	80	3
20	20	4
6	7	1
113	113	3
83	83	4
118	163	1
105	105	3
147	148	4
121	121	2
165	165	1
23	52	2
3	3	3
63	69	1
44	44	1
167	170	3
51	62	2
153	154	2
17	28	1
82	82	1
112	112	1
34	56	2
97	98	1
25	83	3
90	116	2
93	94	2
163	164	4
105	106	2
155	155	2
114	115	3
103	103	4
84	85	2
152	153	2
39	58	2
28	72	3
48	69	1
52	53	1
36	37	1
133	133	2
5	16	1
137	138	2
103	116	3
129	129	4
116	117	1
46	46	1
6	90	1
23	23	2
125	142	1
40	40	4
121	122	1
38	84	1
27	28	2
71	85	2
49	57	3
48	49	2
22	22	1
66	68	2
18	18	1
101	101	1
26	27	2
85	87	1
24	25	4
48	48	1
56	78	2
93	93	2
70	71	1
145	145	3
11	12	1
98	116	1
84	84	2
3	33	1
128	128	1
62	83	1
81	81	3
121	142	2
93	95	2
88	89	1
20	51	1
154	154	4
115	116	2
42	42	4
117	128	3
80	81	2
50	51	1
148	149	2
134	134	1
63	67	1
25	25	3
108	111	1
78	78	2
64	64	4
117	118	1
16	27	1
145	164	1
35	36	2
47	79	2
115	115	1
65	65	1
68	68	1
21	21	1
4	4	2
43	44	1
17	42	1
88	88	2
49	52	1
9	9	1
116	137	1
90	91	1
80	87	1
56	56	2
22	23	1
113	114	1
89	90	2
148	148	2
21	28	1
5	58	1
109	110	2
21	23	2
104	104	2
53	56	2
26	28	2
146	147	1
51	51	1
142	144	1
13	13	2
85	92	2
42	43	1
3	6	1
78	101	2
141	163	1
139	141	1
102	104	1
99	101	2
12	16	1
49	49	1
124	124	1
17	18	1
8	10	1
38	40	2
77	78	1
15	39	1
70	73	1
104	105	2
147	147	2
23	50	1
74	75	1
84	89	1
66	95	2
84	93	1
154	156	1
84	87	2
130	130	1
43	45	1
74	74	1
54	55	1
148	154	1
75	82	1
28	28	1
151	153	1
2	3	2
27	27	1
37	39	2
142	142	1
79	80	1
57	62	1
87	91	1
84	96	1
139	139	1
52	52	1
128	165	1
70	84	1
45	45	1
108	113	1
131	131	1
101	105	1
20	21	1
140	141	1
