14	15	5
140	141	2
143	143	6
108	108	8
36	36	12
6	38	2
17	17	5
14	14	6
106	106	7
8	8	5
5	13	3
74	74	7
136	138	3
59	59	8
95	95	3
69	70	7
22	22	13
133	133	18
94	94	2
57	57	3
85	127	2
113	113	9
33	33	6
123	123	4
129	130	1
107	107	8
62	63	4
5	42	5
118	118	5
132	132	5
6	6	5
82	96	6
68	73	2
109	109	8
88	89	4
27	27	5
136	139	6
22	23	9
48	48	8
140	140	3
25	25	5
20	41	5
130	130	11
120	120	2
41	41	1
114	137	1
34	55	2
65	65	10
17	50	2
24	26	5
96	96	2
13	13	2
121	121	4
53	94	4
32	32	6
74	94	1
58	111	1
142	142	4
71	71	5
28	87	6
42	42	2
67	67	10
42	108	2
138	138	7
131	131	11
10	10	7
1	9	3
135	135	9
56	57	6
75	79	3
104	108	1
86	143	1
64	65	5
70	72	2
6	22	2
120	135	2
99	100	6
84	84	2
68	68	11
56	56	7
91	91	11
15	91	4
75	75	6
4	4	5
123	127	3
13	91	2
36	81	3
51	51	3
104	104	11
90	90	2
69	69	14
26	26	1
93	93	13
83	83	9
55	102	4
39	41	7
38	38	5
125	125	14
21	41	4
117	117	5
67	73	3
51	116	3
2	2	10
86	86	5
81	81	1
126	126	3
27	29	2
140	142	2
67	77	2
106	119	3
22	28	3
97	98	3
77	77	3
35	35	6
101	101	16
73	78	2
59	64	7
137	137	7
139	139	6
93	116	1
23	23	7
127	127	2
72	92	3
56	70	2
136	136	2
99	99	3
55	57	2
10	26	4
141	141	3
115	116	2
125	141	2
115	120	3
19	20	4
96	119	1
16	50	2
20	27	3
111	111	6
120	141	3
121	124	2
0	37	3
12	19	1
70	70	4
59	60	1
19	21	7
60	60	3
130	132	2
28	38	4
5	43	6
59	62	7
15	16	4
126	129	2
52	53	2
0	26	1
5	5	6
107	108	2
31	31	2
134	134	11
71	72	1
76	78	5
122	123	5
78	105	6
66	66	5
40	62	3
89	89	3
16	16	4
85	85	8
11	36	4
31	61	1
50	50	5
37	39	8
1	15	3
128	128	4
53	68	2
65	130	1
1	10	5
124	124	4
39	43	1
122	122	5
52	52	4
57	65	2
74	75	9
123	140	2
18	18	5
130	134	2
132	143	1
16	18	1
34	34	3
123	129	5
91	94	3
40	53	3
128	129	3
98	98	5
27	30	2
6	50	3
96	105	1
47	55	3
72	73	2
56	108	3
36	43	1
102	103	3
81	82	2
132	133	5
10	70	1
29	29	7
124	126	4
100	104	5
28	28	5
92	108	1
125	130	1
78	79	1
87	87	2
15	15	2
102	102	6
116	136	5
76	77	2
106	107	3
58	59	2
39	40	5
52	59	2
87	88	1
126	130	1
125	129	4
145	146	2
103	103	3
31	32	7
4	50	3
115	128	1
61	61	5
26	27	2
27	28	1
117	135	1
93	94	1
124	134	2
62	62	7
79	82	3
37	38	6
32	33	2
111	131	2
97	111	1
85	132	7
125	126	2
28	29	2
19	19	4
16	19	2
14	16	3
122	124	1
55	55	4
132	138	2
10	71	1
88	88	1
112	136	1
63	68	1
74	82	1
139	140	1
100	102	2
52	83	1
9	9	7
13	25	1
41	42	2
21	21	2
111	118	3
134	139	4
100	100	2
24	24	1
112	114	2
32	51	2
87	90	1
119	128	2
135	139	1
113	114	5
132	140	1
37	37	5
39	39	2
95	96	4
57	67	1
67	68	1
139	142	3
23	26	4
133	140	1
53	69	1
53	110	3
65	116	3
53	53	1
117	118	2
36	37	1
27	90	2
91	109	1
54	55	1
118	139	2
101	102	1
114	115	3
118	132	2
27	52	1
90	109	4
97	97	1
36	48	1
54	54	1
117	131	1
136	140	1
120	123	1
120	140	1
8	12	1
11	11	3
22	61	2
35	36	3
28	30	1
110	129	1
13	34	1
73	74	2
59	63	2
31	66	1
53	128	2
51	66	1
97	99	1
66	67	1
14	91	1
99	102	2
5	6	1
69	117	1
140	143	1
64	64	1
118	119	1
84	89	1
31	79	1
112	135	2
6	12	1
92	92	3
0	47	2
137	139	1
129	129	2
112	117	2
145	145	4
83	84	2
71	115	1
62	64	1
105	105	1
0	0	1
34	36	1
2	102	1
38	39	1
1	1	1
144	144	1
18	40	1
0	14	2
71	73	2
51	67	1
3	3	1
31	69	1
69	72	1
8	125	1
34	35	1
115	130	1
77	78	1
133	135	1
83	137	1
20	21	1
121	122	1
64	66	1
123	143	1
36	104	1
127	130	1
56	67	1
11	69	1
110	110	1
92	93	1
76	81	1
