221	225	5
166	166	24
164	164	1
163	163	6
43	43	24
96	96	18
209	210	7
7	7	8
225	228	1
56	56	11
151	151	16
242	242	10
19	97	1
43	45	2
37	37	8
180	202	2
235	239	2
198	198	6
205	206	9
232	232	7
24	24	10
179	183	1
64	64	10
61	61	18
34	34	3
157	157	7
88	89	1
103	111	2
229	229	7
194	194	1
32	32	18
217	217	6
68	70	3
144	146	3
3	3	17
201	203	6
21	24	7
96	104	2
161	161	9
69	73	3
22	22	19
213	214	6
244	244	17
221	221	12
23	23	18
158	158	11
114	114	6
235	238	2
41	41	10
213	213	11
19	19	18
33	33	9
170	177	5
112	113	5
154	154	18
152	152	15
211	211	16
241	241	20
14	14	11
181	181	20
239	242	3
185	185	4
109	110	6
182	182	19
162	162	18
70	87	1
7	8	8
115	115	16
90	90	10
202	202	14
61	62	8
62	244	1
52	54	3
200	201	2
75	76	4
37	38	2
58	58	3
188	189	2
26	26	15
49	49	4
93	99	2
165	173	1
77	78	1
209	209	14
76	77	5
212	212	13
95	95	4
39	40	5
192	193	4
206	206	9
174	174	8
204	205	5
14	233	3
43	154	1
24	26	1
19	37	1
214	218	4
195	195	9
189	189	14
153	153	11
200	200	12
45	78	2
146	146	8
170	174	4
53	53	6
234	234	20
220	220	16
101	101	7
68	71	7
169	169	15
18	18	8
208	245	2
238	239	5
24	35	2
55	56	5
4	6	4
180	180	13
4	4	6
201	201	14
35	35	10
36	36	20
109	109	7
183	183	3
46	46	13
224	225	1
9	10	3
38	38	13
12	12	16
227	227	6
151	153	1
240	241	4
208	208	10
59	60	2
214	214	20
60	60	2
86	90	1
186	186	12
155	156	3
63	65	5
178	178	6
60	66	4
241	242	4
222	222	15
60	62	1
156	156	23
203	205	5
193	193	8
55	55	18
16	43	1
246	248	3
224	239	1
87	99	2
15	34	1
199	200	7
61	75	2
28	33	1
236	237	4
218	218	6
82	84	2
1	1	3
183	187	3
35	63	3
20	20	14
151	152	4
8	8	10
159	159	9
62	64	6
224	224	7
207	207	9
168	168	23
69	70	6
192	192	1
155	155	11
226	226	11
240	240	5
77	77	7
230	231	4
69	90	3
219	219	14
89	89	6
65	65	6
189	190	3
82	82	4
222	223	4
33	52	1
67	77	1
29	29	3
184	184	7
61	181	1
238	238	5
83	84	5
48	48	13
54	221	1
208	209	6
53	113	2
191	193	1
44	45	4
182	183	2
96	97	5
26	27	3
21	21	13
39	154	2
72	75	4
226	227	3
5	14	3
229	230	3
173	180	1
18	114	1
118	118	8
42	43	1
195	213	1
10	10	6
92	92	5
165	166	2
116	119	1
28	30	1
190	190	6
100	115	3
43	44	5
33	221	1
191	197	2
243	244	3
28	28	10
48	66	1
220	225	1
4	14	5
56	72	1
8	9	7
39	39	5
245	245	3
204	204	23
167	167	4
223	224	5
246	247	5
25	25	9
97	98	5
27	27	8
62	84	4
179	180	5
211	212	5
170	171	4
209	211	2
232	234	1
0	1	7
51	51	22
34	35	2
54	54	8
228	229	3
68	78	1
175	185	1
195	196	7
86	86	7
67	67	4
169	199	2
32	39	6
52	53	8
193	211	1
108	108	3
233	234	6
93	94	6
47	48	1
174	176	4
243	243	3
93	93	16
74	74	13
108	109	2
245	246	6
192	195	1
180	181	5
70	73	1
239	240	4
160	206	1
216	216	8
241	248	4
66	66	6
17	18	2
31	32	2
111	111	12
100	100	2
175	176	5
215	217	3
119	119	8
64	66	5
160	160	15
21	30	4
160	161	2
78	78	7
102	114	1
72	73	15
52	52	7
180	187	2
50	64	6
182	184	1
91	91	3
56	78	5
179	182	3
150	151	4
223	223	23
187	187	9
76	79	4
57	196	1
236	236	14
2	156	3
107	107	5
102	102	5
21	23	2
94	94	14
11	11	4
21	44	3
106	108	3
40	40	12
98	98	3
153	185	2
52	221	1
104	104	3
27	28	7
17	28	2
235	235	16
158	164	9
87	88	4
144	144	7
88	92	2
116	116	13
163	186	2
70	70	12
167	168	3
60	78	1
176	177	6
213	225	2
167	169	2
63	89	3
155	204	2
201	202	5
89	90	2
108	110	2
196	196	12
214	215	8
231	231	5
113	114	5
9	9	9
35	36	1
62	62	4
76	76	10
116	117	3
74	75	2
2	2	7
76	78	3
117	118	2
29	30	2
54	55	1
84	84	2
225	226	1
244	245	1
105	108	1
66	169	2
177	177	2
160	207	2
230	240	1
206	208	2
184	185	1
8	16	1
57	170	3
59	59	8
110	240	2
214	217	4
206	207	5
77	79	3
171	174	1
3	48	2
166	170	2
45	55	2
106	107	3
6	12	4
68	68	3
225	225	3
205	205	7
86	88	3
112	112	18
183	184	3
247	248	3
212	242	2
69	69	5
2	32	1
92	93	5
104	120	2
62	63	3
29	158	1
174	177	1
110	110	8
38	177	2
191	192	6
38	39	7
167	183	1
175	177	5
165	165	1
80	80	4
35	49	3
190	197	2
210	210	5
172	177	4
158	159	7
203	203	6
150	150	8
14	18	1
149	149	5
237	239	2
172	172	2
39	44	3
48	51	2
171	171	6
3	4	1
67	74	3
221	224	1
246	246	2
57	60	4
227	228	1
84	87	2
80	87	1
96	100	1
56	58	2
231	232	5
114	115	3
162	178	1
161	198	5
209	225	1
47	88	1
23	233	2
39	170	3
16	16	2
2	204	2
67	171	3
157	161	1
6	41	4
230	230	6
60	61	3
33	50	1
194	195	6
170	170	2
173	173	13
49	50	4
198	199	1
166	168	1
30	30	7
4	33	2
118	119	2
46	151	2
113	113	4
105	105	4
50	59	1
95	96	3
14	153	1
68	79	1
168	193	1
197	198	2
54	67	1
153	154	5
41	45	2
64	71	3
163	174	1
31	51	2
45	45	3
199	199	9
6	18	1
146	150	2
31	31	3
169	188	2
8	36	1
147	147	2
0	0	3
120	120	4
223	233	1
118	155	2
209	216	2
109	115	1
17	17	5
161	204	3
231	234	2
173	174	6
77	94	2
50	82	4
117	117	4
94	97	1
207	208	4
75	77	2
163	164	10
89	91	4
196	197	3
152	173	1
169	239	1
145	145	6
85	85	4
105	107	2
5	12	1
32	33	4
167	170	2
35	67	1
15	41	1
247	247	4
218	219	2
90	93	4
208	212	1
188	188	4
164	201	2
19	20	1
7	111	1
24	32	2
163	178	1
201	228	1
73	73	3
191	191	4
73	74	1
193	195	1
197	197	9
90	91	2
166	167	1
12	13	1
223	244	1
78	79	1
2	161	3
45	82	1
44	44	6
47	217	1
161	188	2
95	97	3
154	160	1
17	54	3
172	174	3
90	218	1
18	20	1
27	31	1
114	119	3
190	191	3
201	222	1
95	204	1
171	172	1
47	53	3
101	107	1
176	176	4
188	200	1
179	179	4
152	162	1
82	83	2
219	241	1
25	203	1
64	65	1
50	50	5
212	213	1
49	60	2
11	38	2
115	116	2
216	228	1
83	85	2
12	47	1
63	63	1
33	36	1
110	111	4
5	5	1
80	83	1
164	178	1
199	208	2
103	105	3
77	80	1
6	6	1
159	179	1
151	182	1
1	15	1
178	179	2
68	80	1
152	153	2
183	185	5
37	40	1
20	21	3
149	150	1
190	206	1
164	165	2
61	65	1
49	59	1
169	171	3
87	87	7
165	208	2
107	108	2
241	247	1
74	90	1
38	40	1
168	214	1
194	196	1
8	17	1
185	186	2
221	223	5
234	235	1
25	37	1
57	58	6
15	15	1
47	47	5
34	223	1
5	7	1
203	204	2
28	31	1
161	162	1
24	31	1
237	241	3
165	169	1
71	72	3
157	159	2
1	22	1
226	228	1
118	120	1
189	192	1
66	71	2
222	233	1
151	156	2
161	212	1
186	195	1
77	82	3
6	7	1
238	243	1
239	239	1
183	237	2
47	65	2
211	214	2
187	188	1
42	42	2
114	247	1
45	97	1
81	83	2
85	86	2
67	68	1
58	78	1
45	46	2
187	192	1
71	71	2
19	22	1
103	103	1
170	176	1
227	231	1
41	159	1
15	18	1
202	203	2
159	160	1
166	176	1
216	217	1
1	2	1
23	26	1
218	220	2
169	177	1
78	161	1
232	233	1
70	84	1
197	208	1
79	79	2
19	29	1
173	175	1
17	55	2
110	174	1
14	152	1
81	82	1
229	238	1
185	225	2
5	174	1
165	167	1
225	229	1
212	230	1
119	120	1
212	215	1
83	88	1
181	243	1
33	54	1
24	33	1
4	5	1
51	52	1
106	106	1
189	196	1
224	238	1
169	193	1
102	111	2
78	80	1
90	101	1
15	29	1
151	216	1
156	179	1
58	86	1
195	208	1
72	72	1
235	236	1
79	81	1
12	18	1
166	184	1
52	68	1
