111	111	12
21	21	10
77	77	7
83	83	5
40	41	2
26	27	8
65	104	4
35	38	1
110	110	14
38	38	14
58	59	8
73	73	13
29	34	3
107	107	16
62	63	2
62	62	8
87	89	1
74	74	11
70	86	4
45	45	3
57	58	8
84	84	12
24	24	7
52	52	9
41	41	24
79	79	11
62	97	5
24	25	1
47	47	9
27	43	5
113	114	7
106	106	10
69	69	9
78	78	7
36	53	2
44	44	13
61	70	2
113	113	13
71	87	2
34	34	5
35	36	2
25	26	4
31	32	3
43	44	2
30	31	4
101	102	1
48	48	10
93	93	7
72	78	6
36	36	5
75	75	13
54	59	4
59	60	7
95	95	16
103	103	6
28	28	11
46	46	20
68	68	8
82	82	8
97	98	6
87	87	5
99	99	8
27	27	9
108	108	12
81	82	10
54	55	4
102	102	10
107	108	8
88	88	18
96	98	4
108	112	4
98	98	7
33	33	10
48	49	3
65	92	4
29	29	5
29	75	2
70	79	3
55	56	10
45	46	3
42	42	13
97	97	11
85	86	10
55	55	8
20	27	2
67	67	5
88	89	3
60	60	5
34	41	4
103	108	3
38	39	2
61	61	8
72	81	3
20	21	4
66	66	4
26	26	1
56	101	2
101	101	4
35	35	2
54	60	2
80	80	4
83	84	1
57	57	6
68	69	1
57	61	2
58	58	6
81	81	5
56	61	4
90	90	8
32	32	4
50	51	5
61	69	3
93	94	2
49	50	2
65	66	4
65	67	1
25	44	2
85	85	6
63	66	3
43	43	5
104	108	1
63	86	3
51	51	4
103	110	2
37	38	5
68	86	4
96	97	3
105	106	3
22	23	3
104	109	4
81	84	2
49	49	5
39	39	2
36	38	6
66	67	5
55	92	2
91	91	4
71	71	7
69	78	3
30	30	8
54	54	9
76	82	3
73	74	3
76	76	2
22	22	2
39	57	2
82	86	4
89	89	4
76	89	1
101	111	1
81	86	3
61	68	1
47	49	2
59	59	1
74	75	10
98	99	6
37	37	2
22	24	1
111	113	1
89	90	6
91	92	2
40	53	5
94	94	3
76	77	3
47	48	4
23	27	3
83	85	2
56	58	8
20	20	6
101	103	4
56	57	1
53	53	3
33	34	6
80	82	2
68	70	3
104	104	2
25	25	1
93	95	6
72	76	1
102	103	2
109	109	2
31	31	3
92	92	3
79	82	1
106	107	1
55	97	2
87	88	4
99	110	1
63	91	1
34	35	4
96	96	7
78	79	8
70	84	2
39	40	2
34	45	2
73	75	2
72	72	6
68	72	1
40	40	3
23	23	2
105	105	1
84	85	6
55	107	1
75	87	4
50	50	3
64	66	4
28	61	3
55	102	2
32	43	3
100	100	1
99	102	2
64	92	2
104	105	1
111	112	2
69	84	2
70	70	5
64	64	1
87	96	2
103	109	2
88	95	2
21	24	1
41	42	2
37	56	2
20	24	1
37	53	1
79	81	1
22	26	1
70	71	1
73	76	1
92	93	1
112	112	1
77	81	1
73	78	1
64	70	1
65	65	2
53	60	1
72	77	2
36	41	2
64	65	1
90	95	1
72	73	1
