146	147	4
139	140	8
122	197	1
48	48	2
167	167	6
151	152	2
46	47	4
17	20	1
148	148	11
69	71	3
11	11	2
36	37	2
7	7	4
185	185	1
192	192	5
32	32	8
166	166	8
193	193	8
133	134	3
131	148	1
45	47	2
3	8	1
112	144	1
38	67	4
125	125	8
128	128	2
174	175	1
10	12	2
1	1	4
59	63	3
89	90	2
39	39	2
80	81	3
40	40	6
146	146	4
41	41	6
111	111	4
33	85	3
151	160	3
44	83	1
26	27	5
0	0	2
4	34	1
31	31	3
189	189	7
18	18	5
16	16	10
123	123	2
59	116	1
15	16	2
185	187	2
99	104	1
161	161	7
35	35	10
34	34	2
139	139	5
181	181	1
83	84	5
196	197	1
182	182	7
122	122	11
85	108	6
50	50	10
5	34	8
20	22	1
187	188	4
30	30	10
158	158	6
143	160	1
150	150	9
102	102	4
77	77	11
119	119	4
115	115	2
115	136	2
174	174	6
111	112	3
190	190	15
194	197	2
171	171	7
173	173	4
101	101	2
4	4	4
185	186	5
0	3	3
136	136	3
75	99	3
161	163	6
148	152	5
14	20	2
9	17	4
21	21	5
120	121	6
82	85	7
152	153	4
5	5	5
116	130	4
156	156	8
22	41	3
62	62	2
11	24	2
120	120	4
137	137	8
60	62	2
140	140	3
25	26	3
187	189	2
54	54	5
46	46	2
96	145	1
73	76	3
57	57	3
127	127	3
110	146	2
73	73	11
56	56	3
180	180	11
36	36	9
27	27	4
147	148	1
37	37	13
96	149	2
65	65	4
123	124	3
47	47	4
133	133	4
83	83	1
5	21	1
52	52	1
35	61	1
176	177	4
127	128	3
124	178	1
118	120	5
142	161	4
110	110	3
176	176	5
29	70	1
186	186	15
10	10	2
147	147	4
151	151	3
152	165	2
48	49	4
95	95	3
19	20	3
112	112	4
183	183	4
69	72	3
33	33	2
159	159	2
183	184	5
184	184	7
82	82	4
177	177	8
149	149	2
64	64	2
39	102	4
156	157	3
42	42	2
85	86	1
11	12	3
6	6	1
3	3	7
114	114	2
182	189	2
172	172	4
132	159	2
169	169	10
8	69	1
98	98	9
36	38	2
7	22	3
45	80	1
121	182	6
156	180	2
55	67	2
66	73	3
20	21	5
79	79	3
135	135	2
164	165	1
45	45	3
129	151	2
161	162	3
53	53	3
125	145	2
107	107	6
66	66	2
96	96	5
136	137	4
23	23	11
22	22	3
176	184	2
134	134	1
188	188	2
104	104	1
176	178	7
179	179	4
63	66	2
157	157	3
15	15	3
134	137	1
173	176	2
44	44	3
189	190	2
192	193	3
81	83	1
69	69	2
7	28	3
6	7	2
129	129	1
160	160	4
38	38	3
16	188	4
132	132	5
108	109	3
13	15	1
141	141	10
64	66	5
1	103	7
73	75	1
154	160	3
178	178	1
59	59	1
142	142	1
55	57	2
99	99	4
169	170	3
20	20	3
50	51	4
25	25	3
24	24	3
191	191	4
149	190	1
112	158	1
34	41	2
162	164	1
54	56	1
78	78	1
22	27	2
147	158	1
110	111	1
89	89	2
134	136	2
168	168	4
142	155	2
179	182	1
69	70	3
34	73	1
130	168	2
162	162	1
63	63	1
90	90	1
181	192	2
110	143	2
42	70	1
144	159	1
58	59	1
22	26	1
105	105	1
194	194	5
168	169	1
196	196	1
45	46	2
19	19	3
52	53	2
123	179	2
9	9	3
71	71	1
13	13	2
117	117	4
71	74	1
155	158	2
74	74	2
94	97	3
165	166	1
152	161	2
197	197	1
18	19	2
9	13	2
55	55	1
49	49	2
138	139	1
179	180	3
71	75	1
169	182	1
65	110	2
2	2	3
40	42	2
16	45	1
186	187	3
33	53	1
190	194	1
168	192	2
165	165	2
11	13	3
21	22	1
114	135	1
96	97	2
82	83	1
9	169	1
84	110	1
144	147	2
180	181	1
153	179	3
106	106	1
163	163	3
40	41	1
118	118	1
17	17	1
1	101	1
12	12	1
169	193	2
71	72	2
173	177	1
54	85	2
77	78	1
9	50	1
116	137	1
56	62	1
14	15	1
3	4	2
94	94	1
186	188	1
