135	135	4
7	50	3
87	87	10
0	2	4
50	50	11
7	8	6
48	48	17
101	101	26
61	64	2
84	84	8
69	69	4
134	134	17
107	107	9
18	23	2
11	14	3
115	136	4
27	27	6
68	69	8
116	116	6
50	53	5
80	80	9
44	44	13
77	78	4
97	102	3
93	93	5
30	32	1
29	30	8
46	56	5
8	8	7
79	79	7
38	41	2
54	54	16
96	125	1
19	19	13
56	56	11
158	158	14
98	151	4
3	3	9
0	0	7
130	130	25
67	69	13
32	33	16
145	145	8
133	134	3
4	38	1
2	2	9
41	41	15
55	56	5
1	1	8
5	5	14
93	94	2
151	151	7
98	99	4
13	13	7
30	30	9
28	28	27
114	114	11
24	24	11
132	133	9
33	33	5
3	51	4
103	103	6
13	14	8
51	51	10
102	103	2
0	41	6
4	37	4
123	127	1
87	88	1
125	125	9
112	116	2
126	127	1
90	147	4
112	112	7
156	156	11
65	65	7
139	142	1
129	129	14
99	99	5
122	122	3
68	68	8
147	147	8
157	157	5
21	21	12
108	108	5
36	36	18
123	123	7
111	111	10
17	17	17
148	148	18
70	70	9
49	53	2
66	67	3
44	45	5
54	55	4
78	79	4
150	150	17
140	140	8
83	83	10
24	40	1
108	117	3
144	146	13
96	96	4
130	134	2
76	76	3
95	102	4
95	95	12
26	26	4
131	131	19
67	68	3
32	36	1
130	133	2
145	146	6
32	32	5
135	136	10
100	100	11
33	151	1
47	48	4
16	17	5
69	70	15
141	141	13
82	82	9
29	29	20
63	69	4
94	94	11
9	9	7
47	47	5
105	105	12
116	140	2
4	4	8
85	86	11
80	91	1
80	81	2
46	46	5
6	8	3
10	10	2
136	137	1
132	134	3
104	104	7
23	23	11
71	71	10
73	74	2
12	12	8
86	86	2
149	150	1
127	131	1
40	40	15
41	42	2
154	154	5
115	115	4
6	12	2
124	125	4
86	91	2
109	118	1
47	50	3
94	95	3
73	73	11
133	133	6
92	115	6
7	7	6
117	117	5
124	124	2
95	97	5
76	78	3
45	46	2
15	17	6
81	83	2
132	132	3
62	64	3
31	31	3
50	51	2
43	43	11
18	18	7
140	141	1
2	3	3
27	28	5
2	33	1
22	22	8
72	73	2
85	85	8
48	49	12
120	120	12
106	106	3
137	139	3
20	20	5
102	102	5
12	22	3
25	25	4
128	128	9
57	67	3
98	150	6
137	138	5
26	29	2
98	98	9
86	87	6
40	41	7
66	113	7
117	124	1
136	136	4
151	152	1
109	110	1
6	7	7
100	101	6
133	135	2
33	34	6
148	150	1
75	75	21
16	16	8
12	24	4
69	71	4
129	138	3
23	36	1
92	92	7
63	63	8
25	36	1
107	118	3
113	113	1
89	89	3
155	155	6
98	102	2
157	158	3
105	117	5
103	104	2
52	52	5
78	78	3
55	55	11
53	54	3
130	131	2
111	112	3
110	110	3
51	52	2
23	43	3
17	18	4
123	124	2
142	142	2
90	90	6
45	45	4
130	151	1
97	98	1
40	45	2
138	139	2
39	39	4
62	62	1
23	116	1
10	11	3
64	64	3
155	156	3
6	6	7
3	6	1
65	66	2
26	98	2
95	96	1
113	114	4
9	10	8
35	35	3
25	51	4
101	136	3
12	25	1
77	77	1
82	84	2
108	110	1
2	13	5
146	146	3
119	125	3
25	98	1
11	12	2
138	138	8
127	148	1
34	34	7
49	49	3
152	152	1
104	113	3
8	9	3
93	100	2
122	123	7
97	125	4
95	125	1
15	15	2
50	54	1
131	133	2
32	35	1
144	144	6
118	142	2
137	137	6
25	64	1
128	129	3
92	148	2
117	118	2
28	32	3
115	116	3
20	21	3
17	42	1
37	37	3
48	52	2
110	123	1
108	113	3
23	24	2
150	151	1
14	14	4
116	136	1
134	135	2
106	111	2
77	152	1
97	97	2
1	2	2
52	53	2
109	109	7
82	151	2
3	27	1
114	115	2
139	139	2
87	89	2
98	101	2
100	134	1
127	151	2
81	81	6
36	43	1
53	53	1
75	76	3
118	118	3
100	130	1
105	106	1
111	138	1
129	130	1
8	10	2
24	43	1
37	56	1
33	35	1
152	154	3
39	158	1
149	149	3
30	31	1
95	126	1
154	155	3
104	158	1
99	100	1
71	97	1
15	41	1
67	67	2
22	51	1
25	116	2
66	66	3
15	33	2
93	95	1
68	70	3
68	71	1
146	147	2
82	85	1
48	70	2
127	127	1
119	119	4
20	23	1
82	86	2
50	55	1
29	45	1
36	40	1
143	143	3
120	147	2
77	82	1
110	111	1
17	20	3
116	127	1
118	119	1
96	127	1
5	6	1
12	97	3
25	26	1
126	126	1
119	124	1
88	89	1
15	38	1
108	109	4
13	101	1
109	142	2
1	3	1
90	91	1
144	145	4
22	23	1
42	42	1
27	37	1
78	83	1
158	159	2
13	16	1
14	69	1
155	158	1
153	154	1
46	54	1
118	121	1
15	16	4
2	4	1
143	148	1
106	107	1
42	43	1
14	16	2
120	148	1
72	72	2
65	77	1
80	90	1
121	121	2
17	24	3
56	63	1
3	4	1
132	151	1
109	147	1
159	159	1
106	108	1
48	71	2
26	30	1
5	12	1
8	103	1
30	94	1
139	150	1
54	57	1
70	77	1
142	147	2
38	39	1
131	132	1
91	91	1
43	44	1
