97	98	4
89	90	3
126	139	3
162	162	6
68	68	2
29	30	2
89	89	3
144	144	3
24	25	2
38	38	2
152	153	1
10	22	1
91	98	2
73	74	1
142	142	3
21	24	2
124	124	4
56	167	4
10	11	4
104	104	5
12	43	1
112	112	5
36	36	1
91	93	6
105	106	5
20	20	1
64	156	5
44	45	1
133	134	2
73	157	4
65	67	5
103	103	3
118	119	3
136	155	1
78	78	6
20	74	3
147	147	4
159	159	2
45	45	4
23	23	3
72	72	4
132	151	3
5	5	6
34	35	2
184	185	1
117	117	6
177	178	3
94	94	1
25	25	2
123	123	2
65	70	3
36	37	2
133	137	1
42	44	4
13	13	5
158	159	1
178	178	3
15	15	1
153	153	5
56	56	3
63	68	2
131	136	5
61	62	5
55	165	2
107	108	1
4	5	1
142	143	1
89	142	2
96	97	6
123	153	1
108	108	5
47	47	4
70	132	1
84	84	6
0	0	7
95	95	4
131	147	1
133	172	1
136	137	1
41	41	1
57	104	2
75	75	3
92	93	4
146	149	2
149	155	1
139	139	6
60	62	3
163	165	1
23	68	1
109	113	2
37	129	2
158	162	1
27	60	1
85	85	5
115	116	1
149	149	5
61	170	3
37	37	3
28	29	1
134	134	2
126	127	1
190	190	4
57	159	3
13	14	2
124	125	1
35	150	3
18	22	1
9	10	3
55	109	3
61	61	4
151	151	5
113	113	4
127	173	7
74	106	2
113	137	2
74	148	1
6	8	2
56	166	1
53	160	1
40	40	2
7	7	2
133	135	1
45	46	1
152	152	3
47	77	3
118	118	1
131	132	1
21	22	3
100	101	1
174	174	1
172	172	4
96	99	1
43	44	4
83	83	2
162	163	1
53	53	2
12	12	1
109	109	1
187	187	2
189	189	3
105	105	3
65	72	6
96	98	2
11	11	3
113	118	2
180	180	1
71	71	3
101	101	3
45	120	1
47	103	1
99	100	2
6	6	5
4	6	3
104	105	1
34	34	2
93	93	1
116	116	2
111	156	1
109	162	2
127	128	3
26	60	1
173	173	3
104	107	4
122	122	1
87	87	2
62	62	1
91	145	1
45	121	1
17	17	1
154	154	3
28	28	2
77	77	4
114	114	3
86	86	1
81	81	2
146	146	2
130	136	2
166	166	1
100	100	3
24	73	2
119	142	1
47	48	1
182	182	3
29	29	3
52	111	2
145	146	2
140	142	1
55	108	1
161	161	3
22	35	3
59	59	1
165	165	1
136	136	2
14	14	3
2	2	1
106	106	2
42	42	4
25	109	1
39	39	1
33	33	1
177	177	2
10	10	1
125	188	4
126	126	1
71	72	2
60	60	1
16	24	1
119	119	2
53	54	1
156	158	1
90	96	1
11	12	1
35	35	1
34	129	1
42	43	1
22	25	3
58	59	2
111	112	1
28	136	1
90	99	2
110	110	1
80	80	1
137	137	3
133	150	1
26	27	1
31	31	1
41	143	1
90	90	1
41	101	1
21	110	2
21	73	1
55	55	1
3	3	3
32	36	1
84	85	1
6	98	1
107	107	1
75	116	1
70	71	1
65	65	1
35	129	1
82	82	1
27	27	1
35	43	1
169	170	1
111	163	1
147	149	1
25	72	1
61	132	1
113	117	1
63	63	1
18	18	1
133	173	1
