188	190	3
48	48	6
74	74	6
127	127	3
27	31	1
43	43	10
158	158	8
139	139	2
31	31	11
145	146	1
153	154	2
163	165	2
122	125	2
94	94	13
89	101	1
85	85	8
32	32	1
46	96	1
18	18	4
69	69	1
89	89	7
171	171	6
164	165	2
97	97	3
155	155	3
169	169	4
24	24	7
183	190	1
39	84	4
163	179	2
59	61	2
143	143	3
190	190	4
68	69	4
105	108	5
99	115	4
157	158	3
29	30	7
156	156	6
70	71	10
117	117	4
161	180	3
120	121	1
123	123	2
67	73	2
18	26	2
99	99	10
1	1	6
83	83	3
116	136	2
137	137	3
10	18	1
59	63	1
175	182	3
175	177	1
71	98	2
126	126	4
79	79	3
110	111	1
76	84	4
44	47	7
78	97	1
95	95	2
6	57	3
64	64	5
86	118	1
37	37	6
149	149	5
132	132	3
87	87	5
71	80	2
58	59	1
17	27	3
77	77	10
98	98	6
170	171	1
42	42	3
29	33	3
61	61	4
46	47	3
159	159	4
99	118	3
124	124	2
104	104	8
111	112	3
88	88	12
25	25	5
45	45	4
176	182	2
160	163	2
142	142	3
145	173	3
178	178	6
16	16	4
113	145	2
105	105	14
145	169	2
93	93	4
146	147	3
114	115	1
60	60	12
119	119	2
56	56	7
44	70	2
27	37	3
63	63	2
70	87	1
179	180	3
108	145	1
76	88	4
0	0	1
132	135	3
23	23	15
14	14	5
57	57	5
100	104	3
75	87	2
152	152	6
47	48	2
67	67	2
16	59	1
161	161	7
42	80	1
73	86	2
165	168	6
144	144	4
68	84	1
157	157	8
92	92	13
180	181	2
60	64	6
11	21	2
111	111	4
117	118	1
189	189	3
38	38	3
3	4	2
12	36	1
55	56	1
188	189	2
107	146	3
138	138	6
142	166	1
61	62	3
9	10	2
22	22	5
81	83	4
170	170	4
10	11	5
165	165	1
113	113	3
137	148	4
93	94	1
119	170	5
123	126	3
133	137	1
172	174	5
100	100	3
67	99	2
16	18	1
65	67	4
110	113	3
24	25	1
172	172	3
143	171	2
159	160	2
92	93	3
126	127	2
75	75	4
8	13	4
155	180	1
136	136	3
65	66	2
76	76	5
84	84	5
4	5	5
90	90	5
123	124	3
154	154	3
108	108	4
134	134	4
73	74	2
145	145	3
184	184	3
11	11	1
7	7	2
72	72	5
124	125	3
106	109	3
90	92	1
10	10	6
92	94	2
53	55	3
131	180	1
26	30	3
144	146	1
179	179	6
39	39	11
44	45	4
7	8	1
107	107	4
166	168	1
39	40	3
162	164	1
46	57	2
156	157	1
150	150	4
2	2	7
115	181	1
172	173	1
43	80	5
118	131	1
34	34	2
149	188	1
57	64	4
107	108	2
106	145	3
130	150	2
62	63	3
181	182	1
62	62	3
44	80	2
125	169	2
53	53	3
71	71	7
56	57	2
44	44	4
61	64	2
162	162	4
58	58	2
135	136	2
26	26	7
11	18	1
6	37	2
25	39	1
54	54	2
133	168	4
103	115	3
162	165	3
129	151	4
154	155	5
6	7	8
137	143	1
47	47	5
80	81	4
75	97	1
148	175	2
23	24	3
92	128	2
64	67	1
153	153	3
164	173	2
125	127	2
71	73	2
130	130	7
97	119	2
157	180	1
129	129	3
4	4	8
147	168	1
107	111	4
175	178	1
7	26	2
96	97	3
86	117	3
146	146	6
174	174	4
178	180	1
160	172	2
98	118	2
164	164	7
40	93	1
114	181	3
103	103	3
91	93	2
64	65	1
91	91	1
22	25	2
67	85	2
115	147	1
109	110	1
19	72	2
142	172	5
112	112	5
78	79	2
101	101	3
70	104	3
66	67	2
116	116	1
150	174	1
73	73	1
83	84	2
46	46	1
123	128	2
137	139	1
28	28	3
60	93	4
35	35	3
103	114	1
11	36	1
42	43	1
112	118	3
15	15	3
7	37	1
70	119	5
168	168	5
18	21	1
132	133	4
131	131	2
35	36	2
175	175	1
33	35	2
101	103	1
67	154	2
162	171	1
13	15	3
110	110	4
102	102	1
151	187	2
20	21	1
78	78	2
21	27	4
49	95	1
103	109	1
103	104	1
96	96	2
155	181	1
55	55	2
43	44	1
187	188	1
120	133	1
140	141	2
5	5	2
140	140	2
47	57	4
171	173	2
40	40	1
66	66	5
170	173	3
27	36	1
98	117	2
68	74	2
8	8	2
21	25	1
37	38	2
1	95	2
121	155	1
89	90	1
151	151	1
78	81	1
148	150	1
108	109	4
128	129	2
161	163	3
101	102	2
176	176	4
147	158	1
38	39	1
75	76	1
156	172	1
5	60	2
58	61	1
110	134	1
142	180	2
116	118	3
102	103	2
70	70	3
94	121	1
5	10	1
138	157	1
130	131	2
104	105	1
86	100	2
66	73	1
12	18	1
88	110	1
41	57	2
99	100	1
12	12	3
9	11	2
156	180	1
13	14	2
180	180	3
0	73	2
46	65	1
100	117	1
72	80	2
44	46	2
149	168	2
139	157	1
19	36	1
52	68	1
135	137	1
18	37	1
26	39	1
125	125	2
42	44	1
93	123	1
53	54	1
115	115	1
41	41	1
79	82	1
48	55	1
187	187	2
177	177	1
167	168	1
188	188	1
29	42	1
36	36	1
37	42	1
125	130	1
108	112	1
90	129	1
138	141	1
105	161	1
18	20	1
90	97	1
160	162	1
72	75	1
36	37	2
124	126	2
134	139	1
76	77	1
102	111	1
81	122	1
110	112	1
106	108	1
177	178	1
58	72	1
119	120	1
56	62	1
119	121	2
138	158	1
59	59	1
22	33	1
112	148	1
0	5	2
16	35	1
111	132	1
53	56	1
139	159	1
124	127	1
118	118	1
122	130	1
27	27	1
113	146	1
46	63	1
183	186	1
