215	215	10
16	16	4
11	13	1
131	131	3
103	168	3
103	103	2
175	179	3
165	166	2
95	128	3
159	179	2
6	60	1
71	75	2
49	90	3
48	48	1
79	115	4
197	197	8
217	222	1
26	26	2
187	187	5
8	8	7
224	224	6
110	113	1
147	147	7
207	207	1
18	34	1
8	106	1
63	63	2
0	33	1
149	149	5
218	219	1
180	237	1
22	22	9
29	30	1
36	37	2
211	211	1
143	143	3
226	227	7
126	126	3
188	189	4
151	152	4
139	143	1
109	109	4
65	65	4
50	50	10
79	81	1
24	24	6
103	106	2
22	59	2
9	9	2
177	178	4
230	231	5
52	52	4
201	201	8
127	128	1
67	67	2
3	162	1
144	144	3
105	130	2
230	230	4
78	79	3
8	12	2
209	210	2
100	100	5
19	19	8
53	53	3
215	216	7
41	50	2
23	23	11
28	28	5
34	36	5
22	50	1
99	99	13
139	139	8
96	99	3
165	165	1
54	54	4
76	76	6
219	219	5
216	217	2
17	17	11
177	186	3
38	38	2
42	44	1
133	133	2
17	31	2
167	167	1
20	20	7
44	44	3
188	188	2
10	10	12
197	218	2
240	240	3
159	159	2
217	217	1
26	27	1
2	4	1
239	239	3
196	196	6
172	172	3
88	88	3
72	73	1
156	156	2
0	1	2
109	220	2
10	85	2
81	82	3
41	75	2
25	25	5
51	52	2
56	56	6
120	148	1
175	175	5
86	86	4
101	101	7
76	79	1
57	57	5
19	20	3
70	70	3
22	34	2
7	8	9
61	61	7
98	98	7
84	85	3
8	9	2
8	39	1
150	150	4
120	120	3
36	36	3
80	81	1
49	68	2
58	58	3
34	78	2
25	208	1
40	49	2
220	225	2
175	177	1
43	45	1
156	159	1
119	166	2
5	80	4
1	1	1
198	198	1
27	27	2
3	3	6
12	13	5
109	110	3
189	189	2
85	85	11
203	203	3
145	145	6
190	191	6
121	121	1
102	102	2
225	226	1
148	151	3
12	12	9
12	31	1
194	194	3
193	194	2
37	38	7
47	52	2
227	227	5
0	0	8
74	74	5
43	43	3
180	180	2
69	69	6
183	184	3
136	137	2
238	238	5
6	71	3
74	75	1
42	45	2
53	54	2
169	169	4
6	6	2
209	209	1
112	135	1
112	112	1
116	116	2
33	33	1
62	63	5
21	79	2
44	45	2
194	196	1
59	59	3
65	66	2
45	47	1
11	114	2
71	77	4
63	81	2
158	174	1
125	125	1
47	47	3
185	185	1
81	81	6
193	217	2
3	22	7
222	222	3
182	182	1
15	15	4
10	20	4
163	177	2
231	231	3
49	49	2
169	170	1
10	60	2
148	148	2
106	106	8
121	141	1
125	126	1
23	33	3
213	216	1
83	84	1
7	7	5
76	78	4
31	31	6
149	150	2
191	208	1
104	105	1
172	239	2
178	178	1
65	68	4
14	14	4
216	216	3
16	34	5
221	221	1
69	91	1
79	79	2
115	115	1
88	101	1
30	85	3
32	75	1
200	208	1
60	142	2
40	115	2
177	177	3
86	87	2
212	212	1
169	176	2
30	31	4
106	107	1
181	207	1
166	183	1
144	153	1
0	37	1
71	71	2
221	222	3
17	29	3
6	59	2
105	105	1
181	181	3
122	122	2
119	209	1
20	41	2
4	5	5
16	19	1
160	219	2
18	19	4
27	68	1
157	158	1
129	129	1
193	230	2
111	111	1
9	68	2
149	151	1
15	95	1
101	103	1
62	62	2
158	159	3
180	214	1
195	195	2
157	157	1
42	75	1
204	204	2
190	215	1
99	215	2
65	109	1
52	53	2
222	223	2
175	178	1
170	176	1
68	69	1
229	231	1
192	193	1
214	214	2
200	200	2
75	75	1
36	48	1
139	140	1
161	161	1
154	155	1
4	6	2
1	17	1
190	193	1
168	185	3
38	39	1
4	4	2
113	113	3
151	157	2
27	28	3
34	34	2
0	18	1
114	114	1
161	162	1
210	212	1
5	6	1
222	225	1
199	211	2
220	220	1
228	228	1
156	173	1
229	229	5
124	124	4
119	126	1
201	232	2
234	235	1
73	73	2
192	192	1
23	48	2
90	90	1
164	164	3
75	81	2
97	97	3
39	39	5
186	186	2
52	54	1
71	74	1
185	187	1
199	200	2
51	54	2
241	241	1
29	29	3
82	91	1
68	140	2
79	80	1
82	82	2
164	165	1
107	107	2
13	13	1
46	47	1
123	130	1
146	146	4
136	136	2
202	202	1
112	113	2
235	235	1
128	128	2
78	78	1
9	11	1
76	91	1
177	227	1
49	84	2
239	241	3
120	129	1
58	60	1
237	237	1
121	168	2
96	100	1
154	154	1
3	23	2
98	215	1
46	46	1
88	109	1
95	95	1
111	130	2
75	143	1
84	84	1
22	79	1
152	152	1
38	58	2
56	58	1
38	57	2
42	42	1
18	18	1
22	33	1
50	54	1
153	153	1
66	67	1
194	197	1
79	100	1
142	143	1
232	232	1
20	24	1
98	190	1
158	182	1
22	76	2
7	18	1
11	20	1
242	242	1
207	210	2
104	104	1
191	217	1
37	39	1
174	174	2
122	136	1
35	70	1
7	12	1
71	72	1
39	115	1
47	73	1
237	238	1
183	183	2
201	202	1
125	127	1
23	70	1
184	184	1
223	224	1
170	170	1
38	100	1
73	74	1
145	146	1
124	126	1
160	160	1
16	74	1
173	174	1
204	205	1
135	135	1
59	137	1
98	213	1
48	59	1
193	193	1
135	136	1
