20	20	8
208	221	3
60	62	4
245	248	4
75	75	7
114	114	2
78	79	1
196	196	17
71	75	7
17	18	4
49	49	6
32	32	3
113	113	17
151	151	6
237	239	2
73	73	4
228	229	2
191	192	2
115	116	4
68	68	6
112	112	12
71	74	5
38	189	1
156	156	10
30	30	8
231	231	9
37	38	5
111	111	9
33	33	14
23	23	11
117	117	4
14	14	10
183	184	1
192	194	4
29	30	6
242	243	1
104	104	4
212	212	17
118	119	3
111	144	1
84	84	16
191	196	2
188	196	11
195	195	5
187	187	7
62	62	7
72	72	14
216	216	6
186	200	2
8	8	3
246	246	10
89	89	8
226	226	5
162	166	4
194	194	8
7	7	6
179	179	15
171	171	10
101	101	7
168	168	5
51	204	2
110	110	16
169	169	6
38	38	3
170	170	7
211	211	11
100	100	9
97	98	5
193	193	8
214	214	9
230	230	4
95	97	4
213	214	5
16	16	12
171	208	2
81	81	5
210	218	1
240	242	1
21	21	7
98	98	6
64	64	14
155	155	4
221	222	1
95	99	5
18	18	7
208	208	12
106	107	3
97	97	3
221	221	3
159	159	6
119	119	2
53	54	6
180	180	8
160	160	12
189	192	1
99	99	13
168	169	1
238	238	4
109	109	12
232	233	1
36	36	8
74	80	6
217	247	2
167	167	20
190	190	11
62	200	3
66	66	5
37	37	12
150	150	9
158	158	7
241	241	9
160	170	1
202	202	10
244	244	10
95	96	4
175	175	13
176	176	8
152	152	10
57	57	7
42	42	10
191	191	1
188	188	17
190	216	3
88	88	5
41	41	4
85	88	8
205	205	7
86	86	7
197	198	2
163	164	9
188	240	1
90	90	11
86	87	3
208	212	1
198	200	1
56	56	7
238	239	7
67	89	1
213	213	13
25	25	7
189	190	4
214	215	3
165	173	1
104	106	1
60	60	3
200	200	11
219	220	4
60	61	7
65	65	8
183	183	6
157	160	3
105	113	3
16	17	4
160	161	3
216	217	2
215	215	5
182	196	1
8	24	1
92	97	3
7	20	3
111	112	4
76	76	8
175	176	3
107	107	11
181	183	3
74	74	3
44	44	4
79	79	11
42	43	2
28	28	12
27	27	5
61	61	3
185	185	3
2	40	2
5	5	11
10	11	1
77	77	6
27	43	1
13	13	2
118	144	1
94	94	5
194	197	1
198	198	10
24	25	2
102	103	3
182	182	8
181	182	8
174	175	2
207	207	8
11	11	7
70	70	5
87	90	4
40	40	4
178	178	9
78	78	7
60	71	5
233	233	6
95	95	7
163	163	4
201	201	5
223	223	8
157	163	3
39	39	11
210	210	7
235	235	3
215	216	5
29	42	1
35	198	2
26	229	6
204	204	11
50	50	7
51	51	8
225	225	1
177	178	4
238	240	1
194	195	1
93	202	2
102	102	5
190	191	6
239	239	15
114	245	3
181	184	1
203	203	13
164	164	10
166	166	11
59	59	4
171	172	6
59	75	1
31	31	7
53	53	13
197	199	3
184	209	2
19	19	13
55	55	5
26	26	3
106	106	9
196	197	3
154	155	3
23	24	4
91	91	5
44	46	2
113	115	4
108	241	3
154	154	6
145	168	2
190	192	2
103	103	9
105	114	1
93	93	5
22	22	8
1	40	2
212	213	1
204	205	11
146	152	2
162	167	2
18	23	2
236	237	1
106	173	3
237	237	8
4	4	2
217	217	2
87	87	6
234	235	5
238	242	5
208	209	6
96	96	6
12	12	3
178	235	1
181	209	1
17	17	1
44	54	3
245	245	8
243	244	3
157	159	4
30	202	1
87	88	1
193	194	6
169	170	1
164	165	1
43	43	7
71	71	6
52	52	8
246	247	3
26	227	2
104	105	2
85	85	8
83	83	4
101	103	2
80	80	6
173	173	3
187	193	1
34	34	7
79	80	3
181	185	3
162	162	4
239	247	5
75	76	13
191	195	2
177	244	1
153	153	4
23	28	1
218	218	7
6	6	1
8	9	2
222	222	11
197	197	6
61	62	4
165	165	7
239	248	4
219	219	5
68	69	1
177	177	7
174	176	2
233	234	1
64	66	2
93	94	4
247	247	9
173	207	1
76	77	3
149	149	2
69	69	1
82	83	4
198	199	4
146	147	3
113	244	2
115	115	1
94	100	2
75	82	3
189	189	3
243	243	7
75	84	1
222	223	2
228	228	2
173	174	3
9	11	1
163	178	1
9	9	2
242	242	2
64	65	2
72	73	1
180	182	2
163	166	1
47	235	3
199	199	6
220	220	4
158	165	2
209	209	4
4	5	3
162	165	4
60	75	1
48	49	3
46	236	1
110	111	3
55	56	2
103	120	3
18	20	2
47	48	8
150	226	2
71	73	4
218	219	2
188	193	2
152	165	4
54	73	1
161	173	2
56	57	2
217	218	3
64	229	1
101	104	3
189	191	1
201	205	2
233	244	1
1	1	6
98	101	1
72	74	3
163	165	1
48	50	1
34	197	1
116	116	5
71	85	3
85	145	1
229	230	1
50	203	1
61	77	1
153	154	2
5	19	2
236	236	4
55	57	2
172	174	5
67	67	5
172	178	1
94	99	2
57	58	3
170	171	2
189	240	1
229	229	3
38	39	5
59	60	1
240	240	7
184	185	2
172	173	4
151	201	2
37	39	3
145	145	4
92	92	1
39	47	2
184	184	2
174	193	2
192	192	2
120	120	4
6	57	1
160	171	2
89	100	1
227	227	2
64	73	4
46	59	1
35	35	3
46	55	1
213	215	1
198	201	2
85	87	2
79	82	4
38	53	2
147	147	2
149	226	2
161	161	2
56	58	2
67	87	2
36	38	1
48	48	3
217	221	1
12	13	6
34	199	1
108	109	1
157	157	5
31	233	3
99	100	1
44	45	3
173	198	1
193	200	1
179	182	1
187	188	2
234	234	2
66	67	1
31	32	1
82	82	2
62	205	4
186	186	2
181	181	5
194	201	1
17	21	1
21	22	2
59	62	1
21	28	1
36	37	2
160	181	3
24	65	2
22	23	3
45	45	7
76	83	1
180	181	1
24	24	1
80	81	4
187	196	1
146	226	1
31	162	2
47	47	1
53	66	1
32	42	2
58	58	1
87	151	1
47	238	2
79	81	2
169	245	1
44	235	1
89	90	1
44	53	1
116	117	1
63	63	1
109	115	1
156	157	1
6	10	1
220	221	2
170	176	1
242	244	2
2	4	1
215	217	1
188	190	1
172	172	1
157	190	2
54	54	1
15	15	2
109	110	1
113	114	2
46	47	1
108	108	3
3	3	1
241	247	3
44	207	1
199	200	1
73	74	1
10	10	1
152	198	1
188	238	2
47	240	1
171	200	1
210	225	2
178	179	1
142	142	1
224	224	2
18	19	1
36	59	1
192	216	1
183	189	1
167	168	1
161	162	1
115	117	1
24	200	1
42	46	1
30	31	1
216	247	1
111	245	1
41	204	1
115	149	1
244	245	1
41	54	1
96	207	1
177	189	1
174	174	1
175	244	1
241	242	1
4	13	1
54	55	1
200	201	1
224	226	1
74	75	2
92	94	1
46	46	1
198	215	1
95	98	1
186	202	1
39	56	1
100	101	1
80	82	1
82	84	1
