94	94	33
121	149	1
88	88	50
63	110	1
39	39	55
27	27	34
179	180	14
143	147	1
151	151	44
100	102	5
71	73	3
58	59	19
17	38	5
12	12	40
1	1	33
98	105	2
60	63	3
43	43	34
99	161	1
153	154	8
93	93	41
187	190	2
28	31	2
65	68	10
19	19	44
184	186	14
138	139	17
151	152	11
22	27	1
164	165	10
172	172	30
99	100	8
83	84	18
129	158	3
165	181	1
69	86	1
83	83	32
64	64	23
114	114	39
29	30	21
116	116	24
16	17	18
185	185	40
75	75	15
84	84	22
189	190	9
178	178	38
45	45	57
185	186	16
63	64	12
112	112	26
99	99	27
12	18	5
129	129	49
187	188	27
14	17	7
113	113	40
144	164	2
17	17	25
16	16	19
13	14	18
96	97	22
48	49	3
130	133	5
156	156	32
41	41	49
130	131	16
35	35	38
92	93	22
57	68	5
122	123	19
84	88	2
95	175	5
131	131	37
0	41	2
147	147	40
184	185	10
130	130	37
186	187	3
21	22	14
134	135	11
127	127	23
52	52	16
78	87	2
67	67	36
35	36	6
76	76	25
137	138	14
169	169	37
42	79	4
125	150	2
7	7	33
97	98	16
24	25	19
121	122	9
87	88	7
19	20	32
81	83	5
147	148	8
137	137	31
150	150	39
125	125	41
8	8	37
105	108	6
157	181	1
140	140	41
177	177	30
123	123	33
29	29	21
6	6	37
133	133	19
173	173	29
25	25	39
146	147	13
29	36	3
32	34	5
114	115	29
139	139	18
190	190	33
21	35	10
154	155	13
90	90	31
79	79	31
152	152	50
145	166	2
95	96	7
124	125	13
93	94	15
168	168	22
169	170	33
132	132	20
93	145	3
177	180	7
175	175	38
67	68	11
148	148	37
30	32	14
165	165	31
15	15	41
155	155	24
59	116	2
153	153	32
65	107	3
37	37	39
11	11	41
180	181	11
53	53	42
61	62	21
26	26	50
147	149	12
75	76	3
81	82	22
163	164	23
17	18	27
47	47	36
98	99	12
140	157	2
167	170	1
93	149	6
109	109	18
68	68	16
180	180	33
176	176	39
60	60	24
127	128	15
48	48	30
176	179	4
122	122	19
21	21	26
102	140	3
121	177	4
188	188	27
135	135	29
16	18	8
180	183	7
157	158	11
23	23	40
108	108	37
103	103	31
142	142	43
71	71	23
91	91	13
35	41	8
31	48	4
19	21	6
62	68	4
18	20	18
7	8	15
80	80	16
66	66	33
20	20	30
86	86	22
4	94	3
81	81	35
186	186	47
101	140	4
174	175	7
171	172	15
106	106	27
83	89	2
52	53	4
179	179	18
80	159	6
128	129	10
124	124	28
87	87	32
163	163	34
73	73	31
77	77	46
110	110	33
118	118	49
181	181	51
120	120	22
5	9	4
19	43	3
10	10	58
139	140	6
100	100	33
126	128	14
108	109	9
31	33	9
128	128	26
97	97	32
3	7	6
16	22	3
115	115	35
82	82	34
46	46	33
187	187	35
159	160	7
85	87	3
42	42	25
101	106	3
103	124	3
10	12	10
66	76	3
154	154	36
24	76	1
119	119	29
176	178	8
148	149	15
121	127	5
133	135	4
62	62	40
47	48	13
19	62	6
15	18	3
24	24	36
33	58	5
128	132	2
58	58	46
161	163	1
27	30	4
68	120	3
123	142	3
77	78	15
53	62	1
40	40	40
116	118	4
69	69	6
74	74	52
29	32	4
156	185	4
113	157	1
124	173	4
53	66	3
61	61	39
25	66	1
25	26	25
43	65	5
182	182	35
28	35	6
137	140	7
131	133	9
120	122	8
72	72	29
55	55	28
136	137	12
78	78	31
40	100	3
122	124	4
124	128	3
53	54	32
99	113	1
33	34	8
59	60	11
106	107	32
92	94	11
138	138	36
98	98	25
54	54	12
102	136	8
23	26	3
89	89	26
181	182	15
76	77	9
31	31	20
96	96	23
99	166	3
161	161	28
28	28	40
130	136	8
105	105	37
107	156	3
124	129	3
129	130	8
167	168	11
2	2	40
95	95	50
174	177	6
3	3	36
80	82	6
95	117	2
36	36	23
159	159	18
13	74	4
126	150	3
78	79	23
94	157	1
11	48	2
115	125	3
143	143	31
145	156	3
75	146	5
69	70	7
101	185	4
59	59	18
96	98	9
105	155	1
4	6	3
0	155	2
52	78	1
174	186	2
83	99	2
132	135	2
9	9	12
32	32	21
70	85	2
98	100	7
73	76	5
29	31	8
14	14	38
188	190	8
164	164	26
143	144	8
31	36	5
112	116	2
43	45	3
5	5	37
18	18	37
117	117	34
122	170	5
13	13	35
57	110	2
106	115	6
70	74	5
17	65	4
158	158	27
6	8	20
154	164	8
157	163	1
141	164	2
26	27	2
174	174	23
156	165	5
117	119	2
92	95	4
176	177	8
38	38	69
36	37	19
147	154	3
91	95	11
103	108	4
82	87	1
182	183	14
13	16	5
181	183	8
32	33	19
106	159	4
0	0	11
2	20	3
43	44	17
18	23	3
4	9	4
188	189	11
68	71	2
155	156	13
106	135	3
116	117	12
178	179	12
107	107	44
109	124	4
136	138	4
70	71	6
133	155	6
12	13	15
99	103	7
110	134	3
31	32	16
29	38	1
34	35	11
6	7	19
143	153	7
170	171	5
14	15	21
94	108	2
171	171	13
45	46	19
26	37	4
1	47	3
44	45	8
115	116	8
162	162	44
84	85	10
23	24	15
11	12	13
30	31	16
104	107	1
141	144	3
166	166	27
121	182	2
170	170	22
149	173	1
42	61	5
137	151	3
107	127	2
79	100	4
126	126	12
64	65	15
70	70	22
126	129	9
189	189	35
5	114	2
134	136	1
107	110	2
123	130	1
111	113	8
156	184	3
141	141	26
0	114	2
108	117	2
104	108	4
175	176	22
57	57	59
80	122	1
154	177	4
123	125	8
121	121	15
103	104	6
27	28	8
89	94	3
94	97	4
65	67	11
39	69	3
184	184	33
61	65	7
33	33	26
85	85	23
114	118	2
111	112	25
68	74	3
111	111	23
87	106	3
146	146	58
167	167	45
107	154	1
94	139	3
10	11	19
30	30	30
66	67	15
101	101	15
171	184	2
0	7	2
18	25	3
93	167	7
166	177	3
150	180	1
35	37	7
93	95	1
92	92	33
2	27	1
72	73	3
143	146	3
56	56	28
150	151	8
95	97	2
168	184	9
34	42	1
2	6	7
183	183	22
20	29	3
20	22	6
136	136	34
17	29	2
144	144	9
109	112	3
91	126	4
124	126	6
16	19	2
27	33	2
3	39	5
55	122	1
165	184	12
28	33	5
162	163	15
91	92	7
106	157	3
5	53	6
121	126	1
24	75	2
116	134	4
136	160	1
63	63	25
145	145	17
57	118	1
151	153	3
95	101	2
20	47	4
103	109	2
144	174	7
79	80	7
17	20	11
10	15	3
13	17	4
20	21	8
119	163	4
37	38	8
102	103	8
98	102	2
142	143	8
94	95	13
40	42	2
64	66	2
22	22	28
67	74	4
142	154	6
60	62	6
60	80	3
89	125	8
62	75	6
14	19	4
25	29	1
179	181	8
76	103	2
10	13	8
105	107	11
159	169	2
4	4	10
131	132	8
85	86	11
37	56	2
103	106	3
130	138	4
132	145	1
118	121	6
96	121	1
86	97	2
168	169	6
130	132	2
133	139	2
155	179	2
149	150	9
178	190	2
182	187	4
89	90	16
113	114	8
45	48	2
158	159	4
34	34	18
112	113	6
105	106	3
56	57	16
169	186	4
118	148	2
53	60	4
19	26	7
99	174	1
148	177	1
102	102	22
15	27	4
180	182	3
168	172	1
6	53	2
86	87	10
6	79	2
65	65	25
167	169	7
101	164	8
151	161	1
36	72	3
157	157	34
54	55	12
95	110	1
110	112	5
36	143	6
10	21	2
138	164	1
86	88	3
46	47	9
150	161	2
68	80	2
109	114	2
55	58	6
107	108	12
99	109	15
114	164	4
63	74	2
2	26	3
145	154	2
28	29	7
95	119	6
75	78	5
112	115	7
177	181	3
133	142	1
31	43	6
14	62	4
34	36	10
170	173	3
5	6	4
57	97	3
95	126	4
175	177	4
102	163	5
106	108	14
149	149	24
132	147	3
170	172	3
19	82	2
101	175	1
160	161	5
42	43	6
9	10	4
12	16	1
15	24	3
102	113	2
159	163	7
62	70	4
20	26	7
30	35	5
95	178	4
152	166	2
133	175	6
185	187	4
133	178	1
0	17	5
53	57	3
115	119	9
37	41	1
109	110	19
110	118	4
57	88	4
93	96	1
33	94	2
88	89	6
101	186	5
105	116	3
55	63	3
160	184	5
132	133	16
91	93	5
58	63	4
60	61	13
37	40	3
4	5	12
161	181	1
39	43	6
87	163	5
107	109	6
147	178	4
152	154	7
134	134	17
118	178	3
142	144	2
79	97	1
12	14	4
98	118	2
39	40	5
70	101	1
177	178	18
84	91	2
3	4	13
55	105	2
79	81	2
54	90	2
9	17	1
58	64	2
53	55	3
2	71	1
92	162	2
73	75	4
57	130	1
121	179	1
172	173	14
183	184	6
176	180	2
112	133	1
80	83	2
82	156	1
82	97	4
136	141	3
141	142	3
80	88	8
69	99	2
13	47	3
187	189	2
110	113	5
107	136	1
41	42	4
35	43	1
44	47	1
17	63	3
45	52	1
79	82	6
38	39	3
104	104	18
152	177	5
1	97	2
114	176	2
114	116	3
65	164	1
3	5	2
70	73	3
53	59	2
100	101	4
148	150	6
116	164	3
157	161	3
182	185	1
178	180	5
32	35	8
43	115	2
129	159	2
22	24	6
135	144	3
89	176	4
101	102	6
152	153	15
162	164	2
134	137	5
60	119	1
89	178	4
158	162	4
143	178	4
149	179	3
99	154	3
18	19	6
75	99	5
71	72	12
25	74	1
62	91	3
110	115	1
16	27	2
6	9	2
117	118	19
129	135	4
103	111	1
140	145	3
11	72	2
42	48	2
0	2	2
55	61	1
153	158	3
86	93	1
146	156	3
166	169	6
12	19	2
153	155	4
30	33	2
1	77	1
78	89	1
37	57	1
13	45	5
17	48	5
163	165	2
77	108	1
35	38	2
76	79	7
146	155	1
104	156	1
67	95	1
80	81	3
60	64	2
60	93	3
21	36	2
96	106	1
160	162	4
32	36	1
14	74	3
145	146	9
115	117	1
82	86	4
19	31	1
118	155	4
82	83	8
89	185	3
29	37	1
27	39	2
158	161	5
17	36	6
128	135	1
120	158	3
120	173	1
85	89	2
92	132	2
33	35	3
60	78	2
129	154	5
113	121	5
139	164	2
105	109	4
121	147	1
106	175	3
144	176	3
4	116	2
55	57	7
22	23	9
42	44	12
99	147	1
78	91	4
18	48	4
27	47	3
123	128	2
55	66	1
81	96	1
124	151	3
44	44	12
85	100	2
53	71	2
66	70	1
2	54	4
139	144	1
22	25	1
41	77	4
74	190	2
60	71	2
132	134	2
141	143	4
141	145	3
19	33	2
96	115	3
54	152	2
0	130	2
117	183	2
134	162	3
167	190	1
83	88	2
108	110	9
154	176	3
101	124	2
113	164	3
38	66	4
113	171	3
105	180	1
120	187	2
171	173	9
95	156	2
167	174	1
56	151	3
103	138	3
74	75	13
19	48	5
120	125	2
118	119	6
55	60	3
120	143	2
178	187	6
98	112	5
150	156	3
27	29	5
74	98	3
65	66	10
95	98	7
108	150	2
166	167	8
126	127	4
55	81	2
19	60	1
91	146	3
175	178	1
38	139	1
104	106	8
1	2	9
159	175	3
104	105	11
12	46	3
116	178	4
115	151	2
5	117	6
90	95	5
122	149	4
6	140	1
173	174	10
53	97	2
123	156	2
91	94	5
61	78	2
18	36	1
71	106	2
182	188	1
89	187	5
103	162	3
135	137	5
1	5	4
30	46	3
71	78	3
152	158	1
1	8	3
36	46	2
23	65	2
90	91	8
2	166	2
15	16	4
19	116	3
94	150	1
62	64	5
119	120	2
144	147	1
3	6	5
95	169	2
1	33	1
78	80	3
39	75	2
166	178	5
101	103	3
11	13	8
113	116	2
122	150	7
64	106	2
12	15	5
100	112	1
172	181	3
62	81	3
184	187	2
1	6	4
116	119	5
0	42	1
29	35	3
168	178	5
6	24	3
23	98	1
61	63	5
23	64	1
125	127	6
94	156	2
141	174	4
27	43	1
95	128	3
26	28	5
111	114	2
19	24	1
114	190	2
61	93	2
81	88	2
4	86	3
152	155	2
58	82	1
88	98	2
62	63	6
57	63	1
24	170	1
61	125	1
53	104	4
53	67	1
63	66	2
23	74	3
79	84	2
110	120	2
142	150	3
64	109	1
35	42	3
29	34	2
58	62	2
99	112	4
181	184	5
142	145	1
58	167	1
97	177	1
93	125	1
17	35	2
91	165	2
166	168	4
104	154	2
29	33	5
96	103	4
75	77	2
65	80	1
65	72	2
176	186	1
43	111	2
61	81	1
62	79	1
184	190	4
97	165	1
40	41	5
166	173	2
89	175	2
60	66	1
5	163	1
70	102	2
1	67	2
129	132	1
118	171	3
146	154	3
129	139	2
1	94	1
8	17	2
11	90	5
0	27	3
87	122	1
180	190	1
140	141	4
83	85	2
185	188	1
20	45	1
146	178	2
148	162	6
4	15	1
103	113	3
86	160	3
1	4	1
131	135	3
1	80	2
86	100	1
1	78	3
86	172	3
58	72	2
15	45	1
2	41	4
56	71	1
97	155	2
156	183	1
113	122	1
56	58	1
145	147	3
153	181	1
57	119	3
123	129	2
109	111	1
73	82	1
58	109	1
28	47	1
38	88	1
69	168	3
87	103	5
130	139	5
22	101	2
101	107	2
13	42	3
60	107	1
146	176	4
123	133	1
42	78	2
68	72	3
159	170	3
143	176	1
59	80	1
38	113	4
95	164	2
18	77	2
154	190	1
89	128	1
101	169	1
27	41	3
24	53	1
62	83	1
58	61	3
110	124	2
38	165	2
6	80	2
17	54	1
18	61	2
32	56	2
160	160	3
15	32	2
25	171	1
55	56	3
21	63	3
55	62	2
120	165	2
120	123	2
71	104	2
5	38	2
181	186	1
75	84	1
52	62	2
30	34	6
44	52	1
11	30	2
116	154	1
67	77	1
84	89	2
59	62	3
33	41	2
16	40	5
125	126	7
65	69	2
71	107	1
144	153	2
129	164	1
106	110	1
95	184	1
77	80	2
96	130	2
68	69	3
135	187	3
84	139	1
21	25	3
80	109	1
28	32	3
5	12	3
125	141	5
116	145	1
135	138	4
74	86	1
62	92	3
133	134	2
7	83	2
101	168	2
4	23	2
54	57	3
150	169	2
66	73	1
116	122	2
183	186	4
66	102	1
124	174	2
154	178	2
148	151	1
149	155	1
61	97	1
130	173	1
20	24	2
21	73	1
32	37	3
151	174	1
7	32	1
154	158	4
155	181	2
0	149	2
0	140	2
79	106	1
23	25	1
0	22	1
43	46	3
144	151	1
167	172	1
104	158	1
105	178	2
159	161	2
103	135	2
109	156	2
8	79	3
179	186	3
111	155	1
113	115	3
5	10	7
164	183	2
145	179	3
107	180	1
72	108	1
17	21	2
124	127	3
128	154	1
8	71	2
1	20	1
103	152	1
72	75	2
121	167	1
28	74	5
100	119	2
9	13	5
123	124	5
156	157	3
172	176	1
101	109	2
117	187	5
73	74	2
13	19	1
56	84	1
131	162	1
13	182	1
54	103	1
35	59	1
103	110	2
17	19	4
76	85	1
125	173	2
42	172	2
24	26	1
157	179	3
172	178	2
114	129	4
148	174	1
4	38	2
53	189	1
109	120	3
8	38	1
65	76	2
104	165	1
59	63	3
122	151	1
60	65	1
38	40	2
57	83	1
66	108	1
79	86	1
38	78	4
4	16	2
23	167	2
10	62	1
158	163	2
11	44	1
23	35	3
64	78	2
18	21	6
101	184	2
3	42	1
5	87	1
56	76	2
25	38	1
87	89	3
12	22	2
84	90	5
13	73	2
54	104	1
129	166	1
2	3	3
70	165	1
165	186	2
186	189	1
120	121	3
18	107	2
156	173	1
59	68	2
57	58	1
111	147	3
0	153	2
11	68	1
119	121	1
102	185	1
121	168	4
154	181	2
108	112	3
55	113	1
165	177	1
8	11	3
13	75	3
74	94	2
167	175	1
90	185	2
103	167	1
144	155	2
147	150	2
60	73	3
111	116	3
161	162	2
56	77	2
81	85	1
100	186	3
156	180	6
113	142	1
109	135	1
94	102	1
80	107	1
74	188	1
69	77	3
89	126	1
31	34	5
131	147	1
21	24	1
78	82	4
142	153	1
133	149	3
1	3	2
23	68	3
2	187	2
105	176	2
105	117	2
165	166	3
122	173	1
117	154	1
101	154	1
5	98	3
92	126	1
4	7	1
144	146	1
116	127	2
110	114	1
106	166	2
79	110	1
26	31	1
157	164	1
145	162	1
0	21	2
143	145	1
146	175	1
76	82	1
71	74	2
148	157	1
19	22	3
70	90	1
109	119	2
99	122	1
54	70	2
100	124	1
90	178	1
20	73	2
64	76	2
182	184	2
25	36	3
38	41	3
61	83	1
78	105	2
122	171	2
137	139	1
63	65	3
86	94	2
56	65	1
60	97	1
38	76	2
161	180	3
59	61	2
146	148	1
25	39	1
45	58	3
118	120	1
140	143	2
79	83	5
10	16	2
4	19	2
123	126	1
89	98	1
2	128	1
26	77	1
48	80	1
7	46	1
105	110	1
95	129	1
89	154	2
10	46	2
21	45	2
82	105	1
63	72	1
106	174	1
66	68	1
165	169	1
117	156	1
103	156	1
104	110	2
87	129	1
6	14	2
130	153	1
58	78	3
76	100	3
104	166	2
1	7	1
28	30	1
33	39	1
7	85	1
80	135	1
99	102	1
30	45	1
12	68	1
55	68	1
25	123	2
173	175	2
164	168	1
21	23	1
91	98	2
10	48	1
135	136	1
165	183	1
71	156	1
103	148	2
111	168	1
102	167	1
101	125	1
121	153	1
5	23	1
6	10	1
111	121	1
178	183	1
82	96	2
155	174	1
89	166	2
86	90	1
15	52	4
113	119	1
0	1	2
137	146	1
88	173	1
56	121	2
42	83	2
154	159	2
3	18	1
119	122	1
43	117	2
149	180	1
174	181	2
22	53	2
59	65	2
77	91	1
62	84	2
58	164	1
74	83	2
117	171	1
72	85	3
74	87	1
17	28	1
62	148	1
14	45	1
3	8	2
18	22	1
55	59	1
120	156	2
163	180	1
89	95	2
87	99	2
13	15	2
175	183	1
19	54	1
56	111	1
42	49	1
154	156	1
12	30	1
18	76	1
38	74	1
9	12	1
30	38	3
113	129	1
6	114	1
19	37	2
4	8	1
140	142	1
20	60	1
25	69	1
43	47	1
128	174	1
165	178	1
48	68	1
92	96	1
169	171	1
23	67	1
34	44	1
120	141	1
59	64	1
160	165	1
127	129	1
81	89	1
7	41	1
133	138	2
20	48	1
44	111	1
68	129	1
131	148	1
182	189	1
10	22	1
134	138	1
6	87	1
21	33	2
10	18	1
86	95	1
15	22	1
166	170	1
80	112	1
70	93	1
5	16	2
53	68	1
109	123	1
103	155	1
54	59	1
162	184	1
143	152	1
80	118	1
151	184	1
56	130	1
23	156	1
153	170	1
83	111	1
93	129	1
88	90	2
13	38	1
54	56	1
68	70	1
74	76	1
114	117	1
54	130	1
126	162	2
28	42	1
110	111	1
26	41	2
27	46	1
110	136	1
13	22	1
155	157	1
46	75	1
95	99	1
127	184	1
52	107	1
40	47	1
156	158	1
66	71	1
84	110	1
113	163	1
113	140	1
85	92	1
52	59	1
8	18	1
15	19	1
38	62	1
20	46	1
108	119	1
