85	86	2
152	152	5
233	236	1
204	207	2
184	184	2
111	242	2
89	89	7
60	63	5
4	5	3
167	184	3
7	7	13
79	79	4
71	72	3
237	238	2
74	74	3
60	62	2
96	99	3
27	27	3
18	18	2
21	21	2
199	218	1
71	74	3
244	249	2
8	8	11
66	66	4
14	14	11
217	217	5
109	201	1
93	93	1
72	72	2
202	202	2
248	248	2
73	73	4
39	55	3
83	193	1
237	237	4
23	23	3
166	166	3
15	34	2
19	19	2
162	165	1
30	63	2
205	205	3
198	199	7
230	231	2
29	29	2
155	155	4
94	101	3
190	190	7
12	12	3
183	183	3
176	176	9
170	170	4
50	50	2
220	221	4
63	64	2
47	47	3
80	80	4
226	226	3
219	219	4
48	65	3
65	69	1
112	112	5
143	143	2
214	231	4
63	63	2
102	102	2
89	92	3
77	77	3
42	42	4
68	68	3
229	229	1
35	35	9
90	90	1
26	26	5
153	153	3
105	105	2
238	239	3
17	18	5
238	238	3
92	92	4
8	9	1
187	188	1
28	28	11
78	78	11
150	150	3
91	101	1
165	165	2
162	162	1
62	62	2
50	56	2
22	25	2
6	6	5
115	116	5
186	189	1
104	107	3
169	171	1
52	62	1
190	191	2
58	58	1
158	158	5
40	40	2
71	71	7
197	197	2
26	40	2
203	203	8
195	199	1
185	185	8
195	200	2
55	55	3
16	37	2
56	58	4
35	38	1
117	117	2
169	189	3
9	9	4
14	29	2
154	154	7
241	246	4
168	168	2
11	11	3
32	32	3
95	96	4
115	115	5
61	180	1
175	175	7
192	192	7
109	109	2
176	188	1
118	118	6
10	11	3
58	61	3
160	188	4
174	174	1
197	198	1
41	43	2
183	236	1
60	60	3
184	237	1
173	173	5
204	205	3
87	113	2
94	94	2
75	76	2
245	246	1
191	191	2
49	50	2
240	241	4
43	43	1
144	144	3
230	230	2
199	199	2
61	62	4
223	223	3
184	188	1
31	31	2
51	235	1
214	214	4
225	225	1
57	68	4
85	85	5
228	229	1
208	210	2
61	61	3
232	236	2
54	54	1
30	31	1
215	232	1
58	59	1
57	200	2
101	101	4
65	68	5
163	163	2
39	65	4
183	184	1
111	112	1
57	57	1
182	182	1
205	206	5
204	228	1
103	184	1
114	114	3
171	171	1
45	45	3
247	247	1
47	70	2
233	233	4
182	185	2
81	81	4
99	99	3
33	33	2
70	71	2
40	55	1
78	111	2
6	7	5
18	33	3
240	240	4
106	107	1
211	211	1
157	157	1
46	46	2
65	65	3
176	178	1
114	118	1
34	35	2
60	64	4
97	99	2
17	27	2
56	56	2
69	71	2
92	102	1
98	98	2
24	24	2
86	86	2
97	97	1
5	18	2
53	54	2
117	168	2
227	227	5
106	106	1
50	60	2
156	156	3
5	12	4
13	13	4
208	208	3
87	87	4
6	37	2
177	177	1
147	147	1
88	88	3
5	6	2
96	96	2
210	211	1
241	241	3
69	91	1
206	206	2
186	186	1
50	71	1
172	173	1
30	30	7
109	110	1
209	209	1
59	59	5
57	237	2
34	100	1
188	189	2
10	10	2
34	34	2
211	213	1
100	100	5
38	38	1
234	234	2
1	9	1
77	79	4
194	194	4
57	58	3
52	52	4
51	51	2
60	61	2
159	188	2
187	194	2
27	33	1
111	111	3
173	192	1
160	160	3
22	22	1
174	175	1
219	242	2
70	70	1
5	5	2
116	116	2
96	97	1
47	63	1
111	245	1
209	211	1
79	80	2
44	44	1
95	95	1
218	218	1
204	204	1
68	71	1
200	200	1
215	215	2
195	197	1
185	210	1
51	59	1
146	146	1
241	242	1
221	221	1
30	34	1
49	49	2
171	172	1
14	15	1
172	172	3
119	119	1
242	243	1
67	233	1
4	4	1
218	219	2
108	108	1
180	197	1
245	245	1
39	103	1
15	244	1
185	186	2
187	187	1
163	179	1
245	248	1
161	162	1
118	121	1
110	110	1
113	113	1
28	29	1
217	231	1
175	176	1
29	30	1
216	216	1
30	43	1
221	222	1
14	32	1
29	47	1
202	222	1
31	41	1
96	238	1
53	178	1
183	210	1
