56	73	1
76	76	18
74	74	11
31	31	27
55	55	34
32	32	14
11	11	12
32	33	7
37	37	17
33	33	22
19	75	2
12	12	22
12	50	7
31	32	16
47	47	14
48	48	24
49	49	21
52	53	12
4	5	9
77	77	11
63	63	26
17	17	19
66	66	17
3	4	9
72	72	18
38	38	22
73	73	16
60	61	9
54	54	20
52	52	29
15	21	1
39	39	22
46	46	19
70	71	15
66	69	6
1	29	2
42	42	21
79	79	18
25	32	3
75	75	16
7	8	5
10	10	25
67	68	15
69	69	24
30	30	17
58	58	23
40	40	21
20	20	6
44	45	6
0	9	2
61	61	29
26	27	6
50	50	24
58	73	1
27	28	12
51	54	6
69	70	17
65	66	8
6	6	24
53	53	26
28	28	31
51	52	9
56	56	33
64	64	19
27	27	12
38	39	3
80	80	13
9	11	2
1	1	24
21	21	14
65	65	14
70	70	10
44	46	3
67	69	8
65	72	3
14	14	12
55	56	13
43	43	6
57	60	5
13	21	2
36	36	24
56	60	3
8	9	12
68	68	12
9	9	15
1	2	14
46	71	3
74	75	5
15	15	6
13	14	7
7	54	2
4	4	23
2	2	14
7	7	21
45	45	19
58	59	6
45	46	7
13	13	17
0	20	2
5	10	1
62	62	17
10	11	4
7	50	1
57	57	17
11	12	7
59	60	8
5	6	4
34	35	4
14	16	2
8	14	5
0	0	9
41	41	30
12	13	2
60	60	6
79	80	6
39	40	1
59	59	20
29	29	8
38	41	1
33	49	2
67	67	14
35	35	12
26	29	2
50	51	2
62	64	2
18	18	8
0	1	7
64	65	6
35	36	5
37	38	5
29	30	2
25	31	5
5	13	8
26	26	18
66	67	5
0	51	1
78	78	19
28	29	1
55	57	1
16	16	10
57	61	1
2	30	1
12	49	3
8	8	12
55	73	4
77	78	8
29	39	2
3	3	14
56	64	2
19	19	9
60	62	5
57	58	4
15	19	2
59	65	2
53	54	17
35	73	3
54	55	2
71	71	7
36	73	2
0	2	4
26	31	1
63	64	8
61	62	3
75	76	3
16	17	4
3	7	1
76	77	2
58	64	2
5	5	12
34	34	5
25	28	1
64	66	3
56	61	2
1	21	1
63	75	1
11	13	2
5	14	1
65	67	1
68	69	4
36	37	4
51	51	18
19	20	4
3	32	1
3	19	1
64	75	2
10	31	2
3	31	1
11	14	7
28	40	1
6	7	8
8	11	2
9	12	4
8	49	6
10	12	7
3	11	1
78	79	5
53	67	1
47	48	7
51	68	2
25	25	4
53	64	2
58	60	1
46	47	3
40	42	2
49	50	4
55	65	1
59	64	2
4	6	3
41	42	1
27	35	1
75	77	1
34	37	1
40	41	3
53	55	1
49	53	2
63	77	1
68	80	1
5	16	2
2	3	2
26	33	3
20	64	1
0	12	1
15	16	2
10	49	3
51	53	2
19	74	1
33	34	1
52	68	2
12	51	2
7	30	1
81	81	2
30	31	1
71	72	2
9	48	1
56	65	3
0	11	1
52	54	1
46	62	1
25	26	1
17	19	1
33	76	3
8	26	1
5	7	1
72	73	1
48	49	1
36	42	1
36	46	1
33	35	2
17	20	1
73	74	1
55	62	1
56	57	1
42	43	2
0	28	1
59	62	1
9	51	1
41	52	1
30	33	1
56	71	1
49	64	1
9	49	1
