84	118	1
129	129	9
76	104	3
23	24	2
71	105	1
22	22	2
18	19	4
4	14	1
37	37	4
118	118	8
97	104	1
124	124	17
121	121	8
121	122	4
123	123	11
14	14	7
19	94	1
17	17	15
12	12	3
127	129	1
0	0	6
15	129	1
103	103	11
88	88	10
32	36	3
119	119	6
33	34	3
1	10	4
34	34	12
96	96	5
112	112	12
113	113	5
20	20	10
6	7	5
82	82	6
97	97	7
27	27	17
111	112	6
28	28	2
22	27	2
99	100	2
131	131	7
1	8	2
13	13	1
104	104	1
21	22	2
89	89	3
71	72	2
93	93	11
110	110	6
77	77	11
107	107	5
122	122	12
109	109	4
82	96	2
114	114	5
27	38	3
138	138	10
134	134	11
83	84	4
19	21	2
102	103	2
126	127	4
87	87	12
16	16	9
104	109	1
80	80	8
74	74	10
130	130	13
0	22	3
86	86	1
25	25	11
102	102	3
69	115	1
136	136	6
128	128	12
29	29	2
37	38	8
8	8	4
108	109	2
31	31	6
126	126	7
79	79	3
116	116	7
35	35	9
22	23	10
9	10	2
10	12	10
101	101	4
117	122	1
99	99	3
13	18	10
2	3	2
7	7	5
104	107	10
18	18	11
83	83	16
3	3	10
101	102	2
79	83	4
17	124	3
81	82	1
9	9	4
105	105	3
78	78	15
78	79	1
28	38	4
91	91	4
29	36	1
100	100	2
75	77	2
117	118	1
127	127	7
27	28	5
113	118	1
95	101	1
38	38	6
28	31	2
108	108	2
2	2	2
119	121	2
111	111	4
120	121	4
85	85	2
66	71	1
126	130	2
25	26	1
122	140	1
73	78	5
13	14	8
37	139	1
137	137	7
139	139	5
107	113	3
95	95	5
106	106	1
8	14	3
15	15	9
84	85	4
98	98	9
3	7	3
90	92	1
71	71	6
106	108	2
73	76	2
121	123	6
94	106	2
114	117	1
125	125	5
97	98	3
129	130	3
83	93	3
120	120	3
133	133	3
115	118	3
81	107	1
98	99	7
135	135	6
82	86	3
94	94	5
11	11	7
117	117	2
75	75	3
23	23	2
90	91	3
117	121	1
18	137	5
76	76	1
21	21	5
103	119	1
19	93	3
23	25	3
136	137	2
82	85	2
33	33	6
71	79	2
32	33	2
100	138	2
16	136	3
131	132	4
104	105	2
105	106	1
27	31	2
134	135	1
91	122	5
126	137	2
92	92	5
112	120	1
116	118	1
10	11	2
119	122	2
7	8	1
90	90	4
106	107	1
2	4	2
4	4	10
97	100	3
76	77	2
127	135	2
106	127	2
81	81	5
132	132	2
8	9	2
74	102	1
115	116	1
130	131	3
120	122	5
32	32	2
128	141	1
7	15	1
22	25	1
15	128	2
73	73	5
5	5	2
19	19	3
24	24	1
1	1	1
140	141	1
94	101	1
115	115	4
124	125	2
96	138	1
112	121	1
104	111	2
8	12	3
92	122	2
28	29	2
115	120	2
127	128	5
2	8	1
82	99	3
72	73	2
80	113	1
72	96	1
89	90	3
124	138	1
126	135	1
87	88	1
136	138	2
133	135	3
114	116	1
16	17	1
100	101	2
88	102	1
129	140	1
6	6	2
79	119	1
103	106	2
113	117	4
137	138	1
5	6	1
93	94	2
140	140	1
128	129	2
78	93	2
71	80	1
125	126	1
73	74	1
107	109	1
123	134	1
117	133	1
28	32	1
12	20	1
20	91	1
28	30	2
6	36	1
103	111	1
26	26	2
8	10	1
36	36	1
3	4	1
84	84	2
113	120	1
29	31	1
85	92	1
29	30	1
30	30	1
94	95	1
101	137	1
