20	20	11
116	116	7
23	23	2
88	89	2
135	135	1
92	92	4
152	152	5
12	41	2
25	25	1
55	65	1
111	111	11
106	106	1
72	75	1
38	38	3
43	47	3
100	100	4
105	105	4
54	54	4
108	109	5
28	28	8
49	49	11
53	71	2
67	103	1
127	130	6
99	99	2
3	3	1
127	127	4
87	87	1
144	145	2
96	96	3
76	76	2
24	24	3
112	113	4
141	143	3
41	45	1
88	88	2
107	107	1
78	78	2
137	137	6
6	6	1
65	65	1
137	138	1
132	140	3
112	112	2
97	97	6
9	20	1
153	153	1
144	147	2
46	46	2
17	48	7
114	115	3
17	17	3
17	18	2
2	2	2
67	67	8
10	10	1
46	98	2
12	13	1
69	70	6
141	141	2
125	125	3
30	31	2
104	108	1
132	132	2
113	113	3
13	13	2
80	80	5
40	40	3
41	41	1
53	53	2
27	27	6
7	20	2
136	136	1
107	111	2
7	7	2
25	28	2
5	5	2
34	34	1
9	33	1
112	134	6
7	8	1
148	148	4
43	43	4
100	102	2
69	76	2
122	122	7
73	73	2
8	8	1
121	121	3
74	74	2
144	144	4
25	29	2
40	41	2
140	140	3
108	108	6
68	69	1
23	24	4
107	108	2
87	92	1
143	143	6
97	98	8
49	55	1
125	132	2
156	156	1
57	68	1
115	115	2
11	14	1
32	53	3
19	19	5
3	42	3
81	81	3
76	93	2
35	35	5
118	118	3
153	154	3
11	20	2
119	156	1
89	89	1
47	47	4
146	147	2
53	56	2
15	15	1
90	91	2
62	96	1
63	63	2
86	86	1
102	102	1
116	152	1
95	96	1
16	54	1
64	64	1
32	32	2
90	90	3
150	150	2
21	21	1
16	53	4
147	148	2
109	111	3
22	33	1
29	29	2
123	123	3
4	4	3
28	29	2
109	143	1
79	79	2
66	66	2
136	151	1
119	119	3
66	70	3
95	97	1
120	120	2
106	159	1
116	117	1
29	30	2
87	105	2
75	75	1
138	139	5
24	40	1
51	52	4
0	0	1
138	138	2
15	97	3
36	36	2
53	54	1
111	112	2
113	148	2
128	128	1
124	126	2
48	48	3
111	157	1
41	42	1
48	49	4
123	124	6
142	142	1
122	123	2
118	146	2
3	5	4
115	116	1
103	103	3
16	16	1
80	82	1
75	79	2
147	147	2
158	158	2
66	78	1
26	34	1
68	68	1
47	48	1
95	103	2
43	120	1
18	18	1
122	124	1
24	27	1
151	151	1
84	84	2
36	44	1
14	14	2
30	36	1
4	5	1
11	21	3
8	9	1
38	39	1
120	134	1
112	115	1
93	94	2
138	151	1
87	89	1
50	68	1
43	44	1
126	154	1
130	130	1
131	131	1
20	100	1
107	132	1
85	85	1
131	133	2
39	50	1
77	78	1
131	132	1
152	153	1
116	151	1
96	97	1
105	110	1
22	22	1
98	98	1
64	95	1
56	56	1
