100	100	7
76	76	7
45	45	8
37	46	2
91	91	10
98	99	6
36	39	1
111	111	14
73	73	10
66	66	5
102	103	4
85	85	9
34	34	8
49	49	7
67	67	13
91	104	3
40	41	7
62	70	2
101	101	23
41	42	3
57	57	2
114	114	6
115	115	2
47	48	4
60	61	1
37	37	5
112	112	8
90	96	2
31	31	7
64	64	14
60	60	11
72	72	7
70	71	6
87	87	5
108	108	8
72	73	2
111	113	4
84	84	13
49	80	3
29	29	7
104	104	8
105	105	8
45	50	1
20	20	6
83	84	3
43	43	9
91	92	2
85	87	5
70	91	2
44	108	2
54	59	9
90	90	13
75	83	3
109	109	15
29	34	5
49	99	3
50	51	14
99	109	7
61	62	2
79	82	1
35	35	2
63	70	3
43	45	1
73	75	6
52	53	3
59	59	7
50	50	10
46	107	2
67	68	3
71	71	6
55	56	2
57	58	4
71	85	2
110	110	5
93	93	4
103	103	11
82	85	9
34	35	5
22	22	2
51	51	5
42	42	8
88	88	6
79	79	2
71	73	5
38	38	4
80	80	21
109	110	4
19	26	8
95	95	12
96	96	13
94	94	7
75	76	3
29	33	2
92	92	2
106	106	4
33	35	4
95	97	4
63	68	3
21	21	4
69	69	4
78	78	6
23	23	6
52	52	9
56	57	1
106	107	1
96	105	6
97	103	3
110	111	8
71	77	2
62	62	14
70	70	5
24	24	7
33	34	3
20	21	4
64	67	2
78	80	2
86	88	2
82	83	2
36	72	2
105	107	4
50	56	3
105	106	3
76	107	2
65	66	3
60	66	1
108	109	2
101	102	9
54	54	4
81	81	4
80	107	3
65	65	3
79	80	3
102	102	10
79	83	1
39	39	2
85	107	1
71	74	2
103	107	2
36	36	4
37	40	3
50	55	1
61	61	11
83	83	6
45	112	2
72	93	4
33	36	4
41	41	10
75	90	2
56	58	5
43	49	1
60	62	3
61	63	2
92	98	1
99	99	8
28	29	7
81	82	1
33	33	2
93	109	3
48	49	4
77	77	6
27	30	2
32	32	4
88	107	1
25	26	3
65	67	4
43	44	2
47	68	2
28	28	8
86	86	7
44	44	4
39	44	3
104	108	2
90	95	1
87	88	2
102	107	2
62	75	1
59	72	1
71	72	2
74	97	1
64	65	8
22	23	3
23	26	2
89	89	4
90	91	9
81	84	3
40	55	1
107	107	3
81	83	2
29	38	1
72	74	2
84	87	1
76	78	1
43	74	3
30	30	5
103	105	1
109	113	4
71	91	3
88	89	2
89	90	2
27	27	5
72	104	3
103	104	4
27	28	5
47	51	6
54	76	7
68	68	4
88	108	4
77	80	2
78	79	5
101	103	1
105	108	1
30	31	4
73	84	1
42	44	2
47	50	1
62	80	1
45	51	3
74	80	1
55	55	2
113	113	2
87	107	4
66	67	3
39	51	2
96	99	2
75	75	4
89	91	1
53	53	1
107	108	1
53	56	2
78	84	1
99	100	5
24	25	2
80	84	1
23	29	1
73	104	1
20	24	1
82	82	1
97	97	5
92	100	1
91	94	1
55	59	1
108	110	3
64	68	1
49	79	2
104	105	2
81	93	2
71	75	1
93	98	2
51	58	3
48	48	7
79	102	1
59	63	5
25	25	1
54	85	3
74	81	2
96	98	1
97	98	1
112	113	1
39	46	1
67	90	2
109	112	1
40	112	2
93	94	1
102	105	3
35	36	2
40	40	2
59	65	1
74	76	1
32	95	1
46	113	1
97	105	4
62	67	2
60	67	1
85	96	1
98	98	2
86	98	1
50	59	1
76	81	1
54	75	2
42	49	1
51	85	1
68	95	1
74	75	1
26	27	1
80	81	2
63	66	1
94	95	1
49	69	1
51	52	1
100	101	1
63	63	1
85	86	1
35	45	1
98	103	1
35	39	1
101	106	1
111	112	1
73	74	1
79	107	1
