56	117	2
125	125	5
46	46	1
179	179	5
148	148	1
150	160	6
147	147	6
29	32	2
116	117	2
157	157	3
89	89	3
43	43	4
114	115	3
96	96	4
31	38	2
163	165	2
184	184	1
83	101	2
82	101	3
15	15	8
96	110	1
149	149	7
110	110	5
11	11	2
113	116	2
92	92	1
117	144	2
131	134	1
85	94	3
131	131	3
40	40	4
55	55	1
128	128	3
138	138	5
80	105	3
2	2	5
92	93	1
23	23	1
100	100	2
114	114	3
105	105	1
63	125	1
179	180	1
100	101	4
118	118	2
18	18	5
78	78	1
32	34	4
3	4	2
182	182	1
36	36	2
72	72	4
99	100	5
41	77	3
156	188	1
36	38	1
132	134	1
112	115	1
145	145	5
58	58	2
77	77	1
159	185	1
149	182	1
173	173	3
126	126	2
61	61	4
65	65	2
30	30	2
163	163	2
124	131	1
102	102	3
124	133	3
175	176	1
146	149	1
25	30	2
71	72	4
3	5	1
106	106	1
25	27	3
130	130	1
82	82	4
80	100	2
25	26	2
156	156	4
132	133	2
38	38	2
167	167	1
180	181	3
112	112	2
62	66	1
99	99	2
108	108	2
86	86	3
172	173	1
40	41	2
33	33	4
80	81	1
120	120	1
95	95	1
146	146	4
122	122	3
167	168	3
168	169	2
34	130	2
115	115	4
122	123	1
137	137	1
64	64	3
53	55	1
60	60	1
8	8	1
0	1	1
79	79	2
4	7	1
121	188	2
161	163	2
135	136	1
151	171	1
71	87	1
88	89	1
142	142	1
58	63	2
139	139	3
4	4	2
20	20	1
149	151	1
19	20	1
25	25	1
131	132	2
56	144	1
75	75	1
14	15	1
66	66	1
152	152	2
93	94	1
57	144	1
182	183	2
134	145	1
79	81	2
149	171	1
45	46	1
118	119	2
55	122	1
84	84	1
74	74	2
22	22	1
81	106	1
42	43	1
12	12	2
93	93	2
112	116	1
62	63	1
109	110	1
142	143	1
53	54	1
155	156	1
144	144	2
117	119	1
27	37	1
78	79	1
7	7	1
27	27	1
42	42	1
24	25	1
28	29	1
129	130	1
116	119	1
90	95	1
125	129	1
68	69	1
148	161	1
162	162	1
45	72	1
180	182	1
172	172	1
115	119	1
2	140	1
110	111	1
65	78	1
