163	167	5
209	209	21
176	176	18
160	170	2
191	191	23
161	161	23
25	25	7
242	242	19
206	206	5
154	154	26
97	97	18
157	159	8
77	104	2
152	152	17
105	106	12
30	58	7
22	22	15
216	216	10
27	27	22
174	174	22
155	237	1
109	110	3
4	60	2
180	180	40
116	116	24
51	55	4
248	248	9
54	54	24
109	109	16
76	77	13
228	228	11
86	86	13
163	203	5
48	75	8
81	82	6
165	175	3
159	165	3
97	98	7
182	182	18
213	213	22
247	248	8
240	240	34
238	239	11
199	199	23
93	94	12
89	89	31
8	8	17
230	231	17
110	111	8
19	42	1
211	211	32
152	225	5
42	42	18
9	10	9
159	159	26
65	66	6
1	1	12
151	151	36
223	224	4
26	26	11
93	93	11
203	203	21
157	176	7
58	59	8
101	111	4
55	55	18
63	63	21
172	172	22
110	110	30
23	23	16
177	177	20
188	188	9
119	119	20
35	35	19
155	155	22
88	88	29
21	21	32
88	91	1
165	199	2
221	222	21
73	73	11
198	198	23
168	169	12
10	10	17
189	191	6
15	15	14
203	245	4
66	66	25
153	214	2
187	188	13
80	80	19
20	20	19
226	227	6
48	72	8
147	247	13
192	192	14
59	93	2
95	96	10
236	239	11
116	118	2
162	162	26
0	43	3
19	19	32
34	34	13
62	110	5
187	187	20
40	52	1
239	239	21
180	205	4
235	235	16
43	43	35
208	220	3
219	248	4
207	207	20
161	202	4
63	115	2
204	204	19
208	232	1
71	71	32
100	100	13
68	70	13
207	210	6
33	33	17
4	5	15
57	58	16
79	80	3
196	238	6
71	197	1
117	119	7
67	67	12
221	221	22
246	246	26
41	41	33
190	198	4
51	66	3
90	90	13
44	45	6
64	64	22
202	202	25
209	210	8
44	48	2
243	243	8
176	177	7
28	28	6
24	24	10
181	193	7
59	59	18
152	177	4
3	3	16
197	197	18
39	40	10
44	53	4
0	19	1
167	226	2
158	191	3
169	198	4
237	238	17
232	233	3
92	93	4
215	215	19
102	102	23
226	226	20
7	7	31
21	23	3
13	53	6
196	196	15
24	25	6
215	217	8
164	164	22
210	218	12
32	32	11
85	86	12
49	72	1
194	194	15
178	178	34
214	214	15
200	217	4
42	218	1
228	229	8
170	170	19
227	227	18
36	36	9
170	192	2
196	198	3
191	192	5
95	95	13
20	45	3
179	179	21
169	231	2
60	61	11
72	75	3
152	176	3
186	203	4
9	9	25
183	184	11
78	118	1
111	112	12
93	114	1
5	5	16
194	195	12
202	204	5
13	14	2
90	92	1
96	97	1
108	108	19
65	65	24
218	219	15
61	61	24
158	203	2
47	47	11
11	11	26
178	180	10
66	113	2
102	103	13
164	166	2
200	200	30
69	69	19
231	232	9
101	101	19
186	187	7
107	111	3
107	107	13
3	160	2
113	113	14
187	189	5
71	82	3
73	74	5
170	171	6
185	185	24
206	220	2
201	201	36
57	57	27
190	191	12
155	156	7
82	86	3
62	62	11
17	17	20
241	241	33
175	175	18
38	38	27
218	218	19
229	229	20
153	217	5
237	237	31
150	172	2
231	231	13
86	87	2
165	243	3
247	247	22
68	71	5
193	193	14
230	230	27
189	189	24
70	145	2
212	212	20
20	65	2
244	244	20
46	46	20
120	120	10
20	35	4
150	151	4
242	243	3
233	233	14
208	208	26
33	61	1
173	173	32
175	176	14
9	60	1
166	166	19
194	212	1
161	162	12
150	199	4
20	84	1
227	234	2
78	84	4
86	90	2
96	96	13
7	9	1
51	51	18
6	57	2
145	231	1
179	186	3
20	112	5
82	84	6
181	181	32
210	210	13
118	118	29
185	186	6
48	203	2
62	63	8
161	183	1
0	1	2
165	198	5
146	160	3
170	194	6
57	59	4
163	165	19
161	168	1
220	222	2
153	153	18
83	84	4
74	74	13
147	147	9
168	173	5
93	169	2
87	99	6
106	114	4
65	68	7
165	237	2
222	222	16
245	245	18
18	18	9
99	99	14
151	197	6
81	90	2
82	89	6
234	234	19
31	31	8
205	205	29
20	21	4
98	100	1
171	171	18
2	16	1
220	220	13
229	230	15
155	226	2
30	30	18
89	90	5
115	115	37
237	239	5
238	241	5
32	98	1
213	214	7
109	116	2
5	42	2
160	161	2
179	180	9
238	238	10
217	217	17
163	243	5
50	50	20
28	51	1
181	182	7
24	28	3
167	167	14
52	52	18
192	196	3
39	39	23
35	92	1
18	64	2
162	204	1
188	189	6
49	49	15
55	56	11
227	233	4
164	165	3
215	216	7
7	69	4
39	119	7
174	177	5
172	185	10
64	65	4
165	165	25
113	114	11
175	177	2
185	198	1
195	195	16
150	153	4
41	42	5
56	56	21
208	210	3
91	91	21
117	235	1
104	104	8
70	70	24
244	248	3
11	17	4
38	39	7
48	71	2
190	190	20
178	179	9
156	212	3
76	76	22
160	160	17
80	87	2
162	163	15
184	184	18
171	175	4
183	183	19
158	175	3
153	154	2
219	249	4
85	85	29
166	246	2
112	112	20
33	34	2
158	176	2
13	13	7
66	145	6
60	60	19
108	147	4
118	120	5
236	236	13
31	98	2
159	176	1
102	104	4
79	114	2
82	83	4
66	73	1
200	209	3
58	58	9
237	240	9
68	100	3
156	211	4
197	220	2
169	171	2
238	248	8
159	177	2
240	243	2
83	83	12
6	45	1
74	78	1
45	58	1
67	73	10
152	216	3
159	175	3
159	249	2
3	68	2
151	200	1
98	98	20
35	40	3
114	114	22
162	231	1
219	232	1
209	218	5
225	225	12
169	169	13
195	197	3
68	68	8
14	15	10
109	236	6
27	56	4
56	57	8
227	229	4
5	15	8
167	171	5
87	183	2
35	48	4
18	151	3
69	70	7
157	157	19
87	112	1
1	22	2
214	215	4
117	118	4
92	195	4
163	163	17
177	178	5
172	199	7
101	196	4
52	53	5
111	111	15
155	218	2
61	69	4
145	145	9
94	94	14
88	113	2
49	50	12
74	97	2
2	2	15
4	4	18
152	179	3
1	23	1
154	212	9
84	84	11
193	223	8
118	119	15
183	193	3
79	79	14
203	204	5
50	96	1
213	219	7
29	55	1
155	227	4
225	244	2
168	168	13
193	212	4
156	156	12
2	41	2
78	78	6
195	216	1
34	103	3
82	82	8
171	172	4
210	211	2
9	23	4
29	31	2
6	6	9
6	7	7
36	41	9
27	46	2
42	43	10
76	107	1
86	111	2
75	75	10
167	183	1
92	92	21
57	79	3
154	186	4
17	183	1
52	57	2
35	47	1
48	49	2
204	229	4
234	235	1
31	99	1
71	75	2
16	27	3
85	89	2
189	190	5
84	212	4
25	31	3
68	215	1
76	84	2
21	39	6
16	16	14
34	48	4
160	169	2
208	209	12
114	213	2
224	224	8
51	52	2
240	241	11
173	174	3
184	185	8
87	87	10
162	178	1
21	65	4
35	36	1
199	200	11
208	211	3
44	44	12
101	104	1
72	73	10
169	170	5
77	77	19
186	186	11
196	197	3
105	105	6
219	219	21
53	53	19
154	178	4
245	246	6
40	40	8
210	233	2
164	203	2
100	115	1
205	230	3
8	9	2
103	103	15
55	57	9
94	95	2
12	15	1
209	211	4
32	100	1
67	111	4
81	81	16
88	100	4
57	80	4
207	220	6
5	58	3
41	59	2
8	35	3
155	248	2
80	81	1
198	199	15
3	4	7
119	120	4
39	65	4
206	221	1
20	34	1
156	238	3
57	67	4
165	182	4
223	232	4
105	117	4
167	235	1
41	43	3
171	237	3
190	194	1
43	44	2
39	90	1
27	54	1
97	116	2
87	88	2
163	164	3
164	199	3
74	75	1
54	224	2
26	51	2
242	244	4
247	249	3
211	216	3
78	88	2
48	48	16
158	184	4
176	248	2
36	101	2
146	198	2
217	218	6
160	171	4
191	193	1
164	175	1
93	168	4
225	226	2
160	192	3
93	101	2
48	50	7
186	194	2
37	37	11
154	219	1
160	237	1
99	100	4
34	60	2
15	61	7
155	187	3
45	51	1
71	81	1
7	8	4
54	55	6
166	176	1
186	211	1
170	174	4
210	215	4
106	107	4
161	163	1
76	104	3
82	87	1
78	79	7
15	78	1
95	99	1
97	99	6
178	184	2
188	246	3
42	48	5
104	106	1
79	87	2
0	0	9
144	144	4
206	209	5
40	99	1
210	214	2
18	113	3
167	172	3
169	184	6
226	229	6
157	163	2
164	180	3
173	184	1
198	209	1
96	115	2
223	223	19
150	150	16
15	16	5
216	217	1
162	241	5
164	225	1
167	247	4
65	67	1
220	224	3
155	197	4
168	248	2
50	66	2
97	219	2
34	90	2
1	3	2
159	160	4
9	72	3
165	166	3
34	35	3
166	242	2
167	201	3
188	192	2
162	177	2
115	116	12
176	184	3
200	246	1
31	86	2
209	213	4
152	158	2
192	193	2
10	35	4
58	157	3
51	56	2
2	22	4
14	14	8
156	160	2
47	78	6
81	84	4
36	38	2
155	229	3
12	64	5
74	91	2
77	248	2
87	94	3
222	223	2
171	199	1
187	192	1
36	37	4
177	217	1
74	76	4
246	247	3
29	29	7
166	183	1
186	205	5
72	74	8
144	226	5
206	207	6
195	215	1
204	205	2
103	111	3
14	42	2
175	180	1
159	197	2
110	246	3
85	101	5
187	246	1
37	38	4
60	62	3
92	239	2
62	76	2
61	65	3
186	188	1
10	11	5
88	89	4
111	245	2
157	158	6
164	198	2
159	182	2
18	182	2
67	72	2
214	234	1
174	198	5
26	114	3
158	249	3
18	19	4
167	168	3
63	66	1
173	199	3
79	83	2
67	69	2
111	120	2
61	62	2
201	202	2
238	243	2
230	234	4
47	48	4
207	211	5
34	42	3
187	190	3
93	115	1
152	220	4
73	78	3
15	91	1
46	47	3
161	186	4
21	87	2
89	112	1
160	175	2
19	59	2
157	185	1
117	117	18
19	34	1
197	198	4
104	107	3
162	193	3
12	12	2
149	149	4
191	234	1
66	67	2
105	111	3
97	101	6
67	219	3
45	53	2
62	104	2
15	65	1
204	223	2
107	108	2
161	172	4
193	194	2
34	91	3
152	200	2
38	76	1
57	179	1
158	177	1
196	214	2
162	167	4
50	203	1
178	181	1
1	27	3
106	106	8
220	225	1
157	179	3
58	60	1
99	101	4
87	95	2
171	173	3
214	219	3
184	187	2
156	239	3
37	41	2
98	145	1
32	65	2
205	228	2
162	164	3
170	179	2
73	86	2
121	121	2
50	60	4
81	83	1
225	246	1
66	69	1
167	242	1
2	10	3
9	35	2
118	213	4
194	197	1
99	115	2
72	72	4
48	96	1
158	160	2
36	47	1
13	18	1
26	27	2
236	237	3
77	84	3
177	180	5
16	17	2
156	240	1
164	189	1
241	242	7
172	200	1
41	55	1
101	186	1
39	76	2
167	225	1
158	185	2
236	245	2
58	69	4
61	112	2
188	196	1
77	108	3
198	221	1
14	60	1
163	166	6
183	197	4
105	108	7
63	64	5
2	3	2
156	208	1
23	40	3
32	33	3
20	82	2
189	231	4
97	218	2
36	100	1
38	90	1
117	120	1
180	181	1
193	248	2
0	3	2
146	147	1
20	68	1
101	103	1
31	88	1
110	117	3
211	212	2
145	204	1
157	177	1
116	117	3
71	83	1
29	30	2
168	183	4
172	205	3
50	179	1
146	146	2
77	78	3
36	66	3
196	215	4
149	165	1
146	226	4
19	95	1
187	212	2
22	23	4
33	35	2
159	225	1
45	45	6
176	180	1
173	240	3
90	93	1
165	167	1
11	28	2
112	118	1
19	115	2
93	95	2
196	237	1
232	232	3
94	249	1
2	40	2
21	46	1
58	178	1
112	120	1
71	72	5
86	89	1
30	66	1
10	206	1
93	99	2
147	226	2
49	60	2
152	159	1
164	167	2
172	173	2
11	12	2
8	28	1
161	165	1
48	60	1
167	173	2
27	43	1
104	111	2
185	193	3
190	192	2
106	116	2
12	13	1
173	185	1
29	63	1
23	27	4
70	213	1
170	175	2
33	36	2
223	233	1
35	103	2
46	85	2
156	158	2
166	243	4
215	218	1
171	225	5
162	229	1
31	95	1
45	62	1
4	8	4
166	244	2
162	176	1
119	206	1
158	158	3
114	115	1
120	145	2
153	179	1
195	241	1
165	242	2
164	237	2
55	62	2
37	39	3
32	76	3
235	236	1
56	87	2
1	16	1
21	47	2
241	247	1
34	224	5
61	75	1
195	196	2
5	59	1
86	91	1
220	221	1
157	197	1
31	56	1
87	91	1
195	221	1
184	212	1
159	189	1
94	149	2
101	113	3
162	239	2
175	248	2
75	121	1
19	26	1
244	245	1
94	117	1
207	218	2
219	220	2
191	241	1
147	156	1
20	85	1
39	85	1
73	110	4
167	234	2
32	104	1
47	49	2
101	110	2
82	90	2
36	52	3
78	114	1
6	17	1
99	120	1
157	213	1
166	174	1
190	193	1
160	168	2
112	117	1
20	22	1
21	61	1
92	212	1
17	18	3
62	68	3
116	119	1
112	113	1
3	5	3
4	190	3
227	228	2
52	220	2
82	88	2
21	156	1
147	198	1
8	74	1
67	217	2
144	145	2
39	80	2
27	45	1
59	60	2
84	85	2
68	69	1
69	197	1
184	230	1
200	201	2
166	178	1
76	80	1
33	92	1
92	170	1
157	214	2
110	238	2
20	42	1
60	101	1
202	228	1
69	217	1
41	47	2
19	27	1
200	249	1
88	99	1
66	120	1
162	182	1
168	244	1
28	32	1
168	171	1
5	60	1
108	109	1
19	35	3
158	216	1
149	150	1
191	196	1
36	65	1
44	47	1
174	176	2
171	242	2
214	245	2
105	116	1
211	214	2
171	183	1
192	213	1
221	223	1
101	102	1
185	197	2
165	215	1
157	212	1
46	55	1
187	196	1
189	249	1
10	30	1
80	85	1
82	85	1
75	76	1
82	91	1
9	28	1
19	179	1
171	198	1
203	224	1
49	203	2
176	219	1
15	64	1
105	107	1
176	181	1
32	36	1
90	102	1
151	222	1
212	213	1
160	197	1
21	28	1
91	92	1
195	248	1
