130	178	5
236	236	11
17	17	3
40	60	4
102	102	7
207	207	6
49	81	3
14	17	5
177	177	12
38	38	7
9	24	1
128	128	3
156	156	6
67	67	5
48	54	1
32	79	3
192	192	4
190	217	2
183	183	4
206	206	4
107	107	4
9	9	5
54	55	9
220	222	2
61	62	3
21	21	7
133	133	2
127	127	6
4	16	2
162	162	2
203	203	4
190	190	7
12	12	6
143	144	4
99	100	2
61	61	15
12	41	1
54	187	4
78	115	3
216	220	1
62	96	3
11	12	3
10	10	2
241	242	2
26	26	6
225	225	8
157	157	7
99	99	17
181	181	6
0	1	4
55	118	2
132	138	2
72	72	4
160	160	3
60	60	5
82	83	9
13	13	5
222	222	4
228	229	8
164	164	2
44	45	6
147	147	3
55	58	4
11	11	13
189	189	2
10	45	2
115	116	3
123	134	4
136	136	5
181	195	4
23	24	4
2	15	4
149	149	2
148	148	6
170	170	5
126	176	2
30	33	2
130	131	9
214	217	1
195	195	7
206	230	1
82	82	2
2	23	1
124	125	2
240	241	3
113	113	5
88	96	1
100	102	6
198	202	1
27	143	6
18	19	7
103	105	1
22	22	15
65	68	1
133	170	1
241	241	7
55	187	1
80	81	5
112	112	3
97	97	10
46	47	2
194	195	3
4	5	5
34	34	9
88	108	5
24	208	3
181	182	4
73	74	1
88	88	6
118	118	7
159	165	2
0	157	4
23	36	4
14	49	2
115	115	5
122	135	2
234	234	5
81	84	6
97	99	5
98	98	2
214	218	1
231	231	7
84	171	3
53	53	7
3	3	3
119	119	8
230	230	7
150	152	2
107	113	4
1	39	3
200	200	2
14	14	5
75	88	2
166	166	1
36	42	1
202	202	6
125	134	3
7	8	5
48	53	3
153	153	5
6	8	2
38	233	1
186	213	1
143	164	6
40	40	6
204	219	2
24	24	3
114	178	1
125	127	4
204	211	2
144	144	2
163	174	3
184	206	8
64	64	4
218	219	4
41	41	3
204	206	1
20	61	2
104	105	4
50	50	5
207	208	2
233	233	1
86	86	4
71	71	5
174	180	3
24	189	1
50	51	3
211	212	2
8	8	4
50	185	2
238	238	4
64	65	3
27	27	9
19	19	7
47	48	8
101	101	3
29	30	5
109	109	1
208	218	1
158	159	4
85	85	3
210	210	1
221	221	9
220	220	4
13	41	3
121	154	1
103	103	4
49	50	4
83	83	6
15	15	5
188	188	6
223	223	4
161	173	4
7	7	11
0	62	1
150	150	2
184	185	6
46	46	9
195	238	8
57	60	2
70	70	5
172	197	2
201	201	9
207	209	2
157	158	1
12	15	1
16	187	1
124	124	2
186	186	3
158	162	1
61	63	2
1	1	3
113	116	2
52	52	2
58	83	3
194	194	3
199	199	1
242	242	4
43	43	2
2	34	1
141	158	2
217	218	4
100	100	4
79	79	4
182	182	4
79	89	1
218	218	2
174	174	3
155	155	2
227	227	9
141	141	1
21	131	1
54	206	1
225	227	2
69	69	16
62	62	9
23	23	5
4	7	1
54	189	1
0	0	6
191	191	2
73	73	8
25	29	4
37	228	1
28	28	4
199	209	1
3	8	1
180	180	4
134	134	1
30	30	4
186	206	1
215	216	1
53	54	1
9	55	3
149	151	1
47	47	3
219	219	1
165	165	1
164	165	1
108	117	1
66	68	2
14	15	3
187	187	3
96	96	3
13	40	3
18	18	3
38	39	3
54	54	2
185	205	1
0	156	5
42	43	4
68	175	1
77	78	4
213	214	3
55	56	2
29	29	4
25	25	2
50	81	1
4	6	2
39	39	3
1	38	4
202	203	2
219	228	1
51	51	5
5	5	3
54	64	2
153	154	2
48	48	7
74	74	3
216	216	2
56	57	2
20	21	4
119	123	1
19	21	6
57	57	3
49	49	2
130	138	3
117	118	4
3	57	1
105	105	2
65	66	2
67	68	1
128	131	1
3	31	2
135	135	3
137	137	7
23	100	2
113	117	3
158	163	2
152	154	2
187	188	5
2	2	3
116	117	1
104	104	3
145	147	2
235	235	3
150	151	2
5	17	2
223	224	2
2	129	2
231	233	2
30	40	4
68	68	3
9	10	1
64	233	3
229	229	5
42	42	4
100	101	5
102	103	4
143	143	2
59	62	2
3	5	2
31	33	3
170	171	4
131	131	1
39	42	1
75	75	2
234	235	1
217	219	1
184	186	2
224	224	3
40	41	3
107	117	6
135	137	2
78	78	3
100	105	2
32	80	4
125	125	6
178	178	1
165	166	3
24	25	1
203	207	1
230	231	5
181	187	1
195	196	3
1	47	1
63	63	3
206	207	2
212	212	2
76	76	3
84	84	1
218	222	1
213	213	1
33	33	4
167	168	2
179	189	2
27	211	1
229	230	2
128	166	1
31	60	3
66	66	1
215	215	4
5	7	2
53	84	2
95	100	2
176	176	4
183	205	3
139	139	1
29	102	1
83	148	1
129	130	1
226	227	1
16	49	2
83	143	1
32	32	3
11	39	1
124	127	1
115	117	3
232	232	3
148	161	1
226	226	2
18	129	1
3	44	3
164	171	1
29	39	1
219	220	2
240	242	1
6	6	3
192	193	1
29	37	3
214	214	3
22	49	1
221	222	3
15	16	2
121	121	1
227	232	1
85	86	2
134	168	1
78	88	1
45	45	6
159	164	2
0	2	1
110	110	1
228	228	1
76	79	1
7	22	1
72	179	1
80	80	2
1	22	1
128	160	1
47	182	3
157	172	2
55	55	2
80	169	2
237	237	2
79	81	2
1	20	2
142	156	1
79	182	2
106	106	1
11	16	2
134	135	1
169	170	2
37	38	1
199	200	2
95	97	1
44	44	2
119	127	2
159	161	1
4	8	1
135	170	2
60	62	1
84	135	1
117	123	1
195	199	1
53	184	1
240	240	2
23	138	2
21	35	1
169	169	2
207	210	2
129	129	1
122	122	1
208	208	1
19	20	1
53	58	1
126	126	1
65	65	1
173	173	1
40	42	1
236	237	1
7	35	2
107	108	1
161	161	1
108	115	1
107	114	1
190	224	1
9	211	1
124	134	1
77	85	1
23	157	1
59	59	1
8	18	1
154	155	1
49	51	1
233	234	1
16	56	1
196	196	1
108	108	1
227	228	1
116	123	1
3	15	1
25	26	1
35	35	1
