155	156	9
113	115	2
71	71	16
52	77	3
96	98	6
125	126	2
3	3	12
124	124	6
8	8	11
98	98	16
113	114	9
104	114	5
128	128	1
38	38	14
82	83	6
101	101	7
105	107	4
157	158	6
25	25	8
138	138	19
21	21	15
138	139	8
136	137	8
105	119	2
31	31	11
142	142	9
54	57	2
132	132	10
80	91	3
136	136	6
34	35	2
152	153	2
135	136	4
103	104	4
83	83	12
41	41	13
26	26	13
13	13	1
85	121	1
52	52	8
10	28	2
42	42	5
88	88	12
84	85	9
130	130	9
96	96	9
54	54	5
18	18	5
140	140	10
158	158	13
151	153	6
156	156	21
63	67	4
15	15	14
1	1	13
119	120	11
13	14	3
123	123	15
22	26	1
27	27	9
146	146	8
131	131	10
24	24	8
107	107	11
47	98	1
93	93	7
25	26	13
155	155	10
55	56	6
5	135	1
92	94	5
8	9	9
89	90	8
64	78	2
81	82	4
135	145	1
11	17	1
122	124	1
127	127	19
20	20	12
80	80	10
137	137	8
68	68	12
55	55	4
100	100	6
14	28	5
39	39	9
70	70	10
16	31	5
47	48	2
36	37	5
108	112	2
105	114	3
38	39	5
77	79	7
34	52	2
4	4	12
152	152	9
126	126	5
6	6	12
79	81	1
122	122	8
34	37	4
105	127	3
112	112	15
35	36	1
21	22	2
26	27	2
49	52	9
99	99	10
5	6	5
105	106	6
14	15	4
92	93	6
106	115	4
131	132	10
50	50	11
111	111	14
48	49	5
92	92	13
56	56	2
132	133	7
114	115	5
104	151	1
121	121	2
109	109	6
9	9	4
106	106	20
87	89	4
16	51	1
72	72	4
16	16	7
47	47	5
28	28	9
82	82	7
46	46	5
2	149	3
102	102	10
51	51	12
118	119	4
44	44	12
5	129	9
90	90	13
141	141	5
133	133	19
0	2	6
64	64	4
123	124	6
103	103	11
157	157	8
7	7	9
106	112	4
2	4	5
91	91	10
95	95	5
1	149	1
110	110	5
7	130	4
9	10	10
105	105	8
142	144	1
0	0	6
140	141	2
97	97	10
107	110	2
41	43	10
31	52	5
30	30	10
30	31	5
125	125	4
26	38	2
128	129	8
102	121	2
32	32	8
73	73	10
40	41	7
7	9	6
17	17	9
35	35	10
18	19	11
108	108	15
5	5	15
117	117	2
39	40	4
86	86	10
101	128	1
50	51	1
139	140	3
9	19	2
149	150	6
10	10	15
118	121	4
129	129	6
21	127	1
117	118	3
141	142	1
22	22	8
151	158	4
75	75	9
62	63	3
104	104	10
7	8	2
2	2	8
119	133	2
48	48	5
1	107	2
10	135	1
79	80	1
90	127	1
65	65	9
104	115	2
22	23	5
112	113	2
107	137	1
14	14	9
33	33	14
30	36	2
150	150	3
50	52	1
139	148	2
110	111	6
15	38	4
34	34	6
118	118	6
67	71	3
148	148	9
8	19	6
119	134	2
147	147	6
44	97	1
19	19	4
119	119	3
106	110	3
38	41	3
33	34	7
144	144	11
29	29	5
53	53	3
4	45	1
114	114	7
139	139	8
129	130	5
17	22	5
151	152	4
143	143	3
93	94	4
151	151	6
63	63	5
114	147	2
90	143	3
43	43	5
116	116	8
46	48	1
84	84	8
78	78	6
108	109	4
120	131	1
154	155	4
79	79	13
36	36	9
19	20	6
20	53	2
122	142	2
13	28	4
109	111	2
149	149	4
107	126	2
65	66	3
3	101	1
113	113	11
115	115	7
11	12	7
27	28	7
42	94	1
49	53	5
97	98	4
20	24	3
85	85	2
63	64	3
90	91	5
8	131	1
40	40	6
54	55	6
23	23	2
69	71	2
80	81	2
71	81	1
153	154	5
3	4	3
134	135	1
67	67	6
77	77	9
102	107	3
16	55	1
94	95	4
31	32	1
43	96	2
106	111	3
123	153	1
89	89	4
6	128	1
15	85	3
137	140	2
6	43	2
51	53	1
94	94	4
28	79	1
103	121	2
37	37	2
52	67	4
69	70	3
17	48	4
16	17	1
10	12	1
86	131	2
48	52	4
19	25	3
159	159	1
85	86	4
27	76	1
123	126	1
124	126	1
11	11	2
23	24	3
21	53	3
107	139	3
94	131	1
102	120	2
12	12	3
117	119	2
103	126	1
26	28	2
116	154	1
148	149	3
66	67	1
39	85	1
45	46	2
32	33	2
40	46	6
28	74	5
1	2	5
105	140	3
45	45	5
29	30	1
126	155	4
85	87	3
153	153	3
2	3	3
13	84	2
9	28	2
7	17	4
102	116	4
13	36	2
69	69	1
150	151	2
88	89	4
28	76	2
26	35	1
146	147	2
143	144	2
95	96	4
12	13	3
7	129	1
112	132	2
73	74	1
120	120	7
109	110	2
20	22	1
64	65	3
7	18	1
30	38	1
42	43	1
66	66	2
8	10	2
78	96	2
46	57	2
128	140	1
20	21	1
107	148	1
144	145	1
28	40	3
99	100	1
158	159	3
123	125	1
49	49	2
145	145	4
87	88	2
78	86	1
1	148	1
113	116	3
82	110	3
46	101	1
95	97	1
120	150	2
50	54	1
76	77	1
56	101	1
76	76	1
24	25	1
44	45	2
123	154	1
11	87	2
80	95	2
118	120	2
114	154	1
54	65	1
92	135	1
83	84	2
1	3	1
67	68	1
88	90	1
87	125	1
13	35	1
87	87	1
16	54	2
17	30	1
109	116	1
71	72	1
77	78	2
53	54	1
106	107	1
66	139	2
91	128	2
149	155	1
21	23	1
74	74	1
54	56	1
25	52	1
82	122	1
16	22	1
136	144	1
49	62	1
121	130	1
107	118	1
135	138	1
79	87	1
119	121	1
31	39	1
22	31	1
90	133	1
12	41	1
102	103	1
131	134	1
30	35	1
