6	6	10
9	9	12
4	7	4
6	11	4
108	112	2
21	22	4
116	116	8
111	117	3
85	86	3
97	97	4
120	120	12
12	12	13
48	48	12
63	63	10
16	16	15
112	114	4
85	88	5
90	90	7
73	73	6
95	95	10
128	129	3
32	32	6
1	1	13
54	54	19
104	105	7
51	51	21
122	122	14
45	45	2
83	83	7
118	118	15
120	123	2
16	17	7
52	52	16
4	5	4
49	49	20
108	109	4
54	55	10
106	107	4
95	110	2
54	57	1
121	121	7
124	124	9
98	99	5
50	50	21
5	5	8
131	131	6
55	55	10
12	20	1
19	21	3
88	89	6
103	105	3
87	87	8
17	17	7
13	13	17
47	47	21
108	108	10
28	30	2
104	104	14
57	58	4
102	102	5
83	84	10
96	98	2
105	105	5
62	62	8
23	24	5
123	123	8
59	59	4
73	75	1
78	78	11
19	20	4
85	105	2
116	117	4
14	28	2
45	74	1
110	110	6
79	82	2
71	103	2
93	93	6
39	39	9
14	14	4
111	111	9
115	115	9
53	53	11
48	54	1
129	129	5
27	28	6
31	31	4
84	85	8
94	94	11
56	57	1
15	15	9
132	132	9
54	66	2
107	107	2
61	62	5
19	19	6
27	27	3
50	51	3
68	69	11
112	112	3
127	127	4
116	118	1
33	33	4
122	123	4
71	71	15
60	61	3
24	24	6
71	80	3
73	79	1
109	109	24
29	29	7
127	128	3
88	88	6
2	2	18
41	41	13
20	32	3
30	30	4
59	60	3
20	28	2
29	30	10
22	24	3
115	116	3
86	86	11
20	20	18
68	68	4
75	78	2
11	11	7
106	108	1
62	63	3
70	70	8
0	1	6
7	7	6
72	72	1
17	18	2
41	61	5
124	125	3
133	133	7
100	101	7
92	94	2
94	95	1
103	103	6
58	59	6
66	67	5
46	46	22
106	106	10
13	14	18
26	26	5
118	124	1
52	53	8
86	125	2
118	120	2
3	3	7
83	85	6
124	133	1
17	19	2
51	57	1
77	77	8
108	114	3
119	119	9
0	0	3
117	119	4
45	46	7
57	57	9
126	126	8
85	85	13
86	89	3
113	117	1
93	94	1
73	74	5
90	92	2
75	75	6
18	18	7
44	44	5
115	124	2
3	7	3
49	77	2
65	67	1
84	84	2
61	61	3
82	89	1
31	59	3
29	31	1
76	76	7
125	125	14
120	121	4
50	64	1
80	80	12
58	58	16
15	24	3
107	108	1
10	12	6
96	96	2
12	13	5
64	70	5
117	117	3
132	133	1
11	30	1
65	68	1
2	11	2
5	6	3
102	125	4
4	4	6
90	96	3
118	130	1
122	131	2
94	96	3
47	63	3
32	33	6
79	79	1
41	45	3
98	98	5
46	47	3
102	104	3
11	33	1
26	28	1
105	106	3
69	69	14
118	119	2
19	26	1
45	76	2
48	76	1
121	123	1
110	112	3
12	14	2
99	104	1
76	79	6
41	42	1
43	73	1
4	43	1
100	100	1
128	128	4
16	21	1
130	130	5
126	128	1
19	24	1
70	71	2
4	42	1
91	92	2
72	73	1
40	42	2
82	82	5
40	40	6
48	50	1
104	110	1
44	45	4
97	98	1
119	123	2
53	54	2
27	31	4
59	61	2
38	40	1
42	43	3
64	64	3
108	113	1
124	131	2
11	14	2
1	2	1
44	59	2
81	81	1
56	68	1
79	80	1
46	54	1
113	113	7
22	23	1
21	21	1
130	131	1
20	120	1
45	48	2
28	28	3
3	4	1
56	56	5
101	101	8
10	10	9
14	15	1
51	67	3
26	27	3
8	8	6
80	97	1
68	94	1
40	43	3
46	63	3
23	23	1
57	66	2
78	79	2
47	48	3
15	16	2
99	101	2
22	22	4
70	99	1
51	52	1
101	104	1
77	78	1
108	130	2
79	102	1
10	11	1
4	39	1
66	66	1
65	65	3
25	26	1
104	106	2
75	83	1
89	90	1
43	43	4
18	19	2
21	26	2
83	98	2
41	73	2
28	59	1
42	42	2
39	42	1
127	129	1
107	117	1
100	125	1
20	119	2
91	91	1
87	88	1
107	109	2
60	60	2
2	3	2
11	12	1
45	47	1
127	130	1
110	111	1
49	75	1
44	58	1
49	50	1
131	132	2
102	103	1
114	116	1
16	18	1
89	89	2
48	49	2
79	95	1
42	60	1
24	27	1
41	74	1
84	100	1
95	103	1
67	67	1
53	58	1
30	34	2
34	34	1
75	79	1
6	9	1
21	29	1
38	38	1
43	64	2
42	72	1
50	68	1
29	53	1
103	104	2
107	131	1
45	59	1
28	29	1
0	2	1
3	68	1
1	3	1
75	76	1
58	60	1
8	9	1
108	111	1
123	124	1
31	32	1
