98	98	25
88	88	6
136	136	29
137	137	16
6	6	21
91	91	15
100	102	4
62	63	7
140	140	30
126	126	17
30	30	21
93	94	12
52	52	25
113	114	2
38	38	16
61	61	12
63	63	13
71	71	29
51	52	7
69	71	3
128	128	32
81	81	22
124	124	11
16	16	8
123	125	2
3	34	3
27	28	11
75	76	6
119	119	6
68	70	7
116	116	6
68	68	14
131	140	3
102	122	1
114	121	4
145	145	18
111	115	1
25	26	12
85	85	11
35	35	15
59	62	9
37	38	4
0	0	10
25	25	24
67	67	26
29	29	33
135	135	18
129	131	2
10	24	1
106	123	5
83	84	7
54	54	16
67	70	4
112	114	1
49	50	7
134	134	29
15	15	15
144	144	18
104	104	15
141	141	14
69	69	12
99	99	20
76	77	10
61	62	15
75	75	28
0	1	12
17	17	17
48	50	2
131	137	1
54	55	4
32	32	10
52	54	4
71	73	6
77	78	17
100	101	6
53	55	4
133	134	7
99	101	4
104	107	4
50	51	7
53	53	8
127	129	8
70	72	3
119	120	6
50	53	2
125	126	12
133	136	8
143	144	8
36	40	5
2	2	6
96	96	18
9	9	19
83	83	22
84	84	9
47	47	9
97	97	7
26	26	12
14	14	12
67	68	9
108	125	6
142	142	12
140	142	7
137	138	16
96	97	14
85	112	6
130	130	28
8	8	11
16	17	7
108	109	1
116	117	7
55	56	6
125	125	24
97	124	5
89	89	27
103	103	16
95	102	4
97	98	8
22	23	6
118	118	26
81	82	10
142	143	9
124	130	15
136	143	3
27	27	23
123	123	19
14	15	4
111	112	12
95	122	3
77	79	7
84	118	3
50	50	11
51	51	14
132	133	16
133	135	5
120	131	2
59	60	12
113	115	3
31	51	5
72	72	14
110	110	13
118	119	15
33	34	8
9	22	2
139	142	1
114	116	6
40	40	15
102	102	13
58	73	11
128	129	16
118	121	5
101	101	8
111	111	21
37	37	3
103	104	9
31	35	1
115	115	11
10	10	14
74	74	21
102	103	11
41	42	8
82	82	22
120	120	24
69	79	2
102	104	7
19	20	9
35	36	10
23	24	19
58	59	12
125	132	2
30	33	2
21	21	9
8	9	9
74	75	2
2	4	2
19	19	17
5	6	2
87	87	6
67	72	3
39	40	5
135	136	12
17	18	4
65	66	4
66	68	4
34	34	10
20	20	14
96	99	2
86	89	3
49	49	20
8	18	1
95	95	19
4	5	4
11	19	5
4	4	7
117	117	15
31	60	4
139	139	13
90	90	15
18	19	10
117	118	4
12	20	6
2	11	4
129	129	24
26	38	3
60	62	3
133	133	27
139	140	13
137	141	2
86	138	1
19	29	1
101	102	15
129	130	6
107	107	11
3	3	10
65	65	17
113	113	10
56	56	7
131	132	4
88	90	3
115	123	2
122	122	19
39	41	3
118	120	3
110	112	5
118	135	4
8	129	3
77	77	11
23	25	2
7	12	2
120	121	7
21	72	2
114	114	12
14	16	4
23	99	4
64	73	2
123	124	9
109	109	9
98	99	7
105	107	1
73	75	9
89	90	14
128	130	4
11	28	2
127	130	5
105	121	1
108	108	7
66	67	10
86	88	3
1	1	2
42	43	2
98	135	2
39	39	6
118	132	3
32	33	10
54	58	1
31	31	8
117	119	1
48	48	6
66	66	10
32	67	1
15	16	7
36	38	1
10	19	3
11	11	13
79	79	10
32	36	1
121	121	21
22	22	8
62	69	5
141	142	2
127	127	28
13	13	10
58	58	9
8	17	6
55	55	16
89	110	1
96	120	1
36	61	5
12	12	2
62	64	4
93	106	2
132	140	5
100	103	2
23	73	1
68	71	5
131	141	6
24	38	1
136	137	10
134	136	1
136	138	12
122	123	3
141	143	3
113	116	4
20	21	10
86	109	7
36	37	9
88	91	6
101	132	3
133	137	7
10	13	1
20	70	3
114	117	2
78	82	5
40	123	1
88	89	5
53	54	5
33	33	13
28	28	12
71	79	3
73	73	5
5	5	6
112	121	2
53	56	2
123	130	2
126	127	12
105	106	2
125	127	1
143	143	7
114	115	2
31	62	3
100	100	9
111	113	2
61	64	1
15	17	1
3	4	8
103	124	3
31	36	3
12	13	6
41	41	9
12	15	1
24	25	3
59	59	8
92	108	4
110	117	1
79	80	6
13	33	1
103	105	3
127	128	2
138	138	17
94	94	9
18	18	24
42	42	6
94	104	7
28	29	5
125	131	2
137	143	3
11	72	2
108	138	3
88	107	1
131	131	14
64	64	6
112	112	7
85	88	1
94	108	1
134	138	2
12	14	1
60	68	1
96	105	2
106	106	9
40	42	1
114	118	2
134	135	8
101	103	10
38	39	6
23	23	8
87	90	9
79	81	3
4	34	2
84	117	5
76	76	12
37	40	3
64	69	2
73	74	2
20	32	3
58	82	2
55	82	3
16	18	3
80	80	13
108	127	2
57	57	7
36	36	13
84	85	3
64	66	2
93	93	9
89	95	2
124	131	2
24	24	7
9	71	1
56	58	2
9	73	2
60	61	2
41	121	1
133	144	1
72	73	3
32	34	4
101	104	4
105	124	1
119	131	2
57	61	4
25	27	2
132	132	12
8	19	1
37	39	3
72	109	2
67	69	1
62	62	8
57	58	3
142	144	2
124	125	3
60	60	7
89	106	3
92	92	15
12	21	2
87	92	1
9	10	5
49	52	2
31	32	4
71	75	1
86	86	3
30	31	3
78	78	7
25	73	2
34	35	6
95	96	2
13	17	1
65	69	3
88	108	2
31	33	2
65	84	7
101	146	2
106	140	5
112	116	6
70	70	8
110	115	5
91	107	4
114	130	1
91	105	3
70	71	2
13	16	6
119	122	3
25	38	2
72	112	2
99	100	9
73	85	2
90	91	2
112	120	1
64	65	4
85	86	1
138	139	3
100	116	2
83	113	2
64	93	1
0	2	1
140	141	7
71	72	8
141	144	7
92	93	4
40	41	3
96	121	1
18	21	3
131	136	1
27	38	1
9	72	1
124	144	2
89	94	7
102	124	2
47	48	1
133	142	2
91	124	2
133	139	4
108	137	1
29	40	3
55	57	4
11	73	1
108	139	1
92	94	1
88	92	3
20	22	1
107	143	1
24	73	1
21	22	5
109	110	1
140	143	2
113	129	2
41	82	2
32	40	3
76	79	1
43	43	1
13	14	2
57	84	2
95	97	5
109	115	3
122	124	3
56	57	1
91	92	3
69	76	1
80	81	2
113	117	2
73	84	2
106	107	1
63	72	1
87	110	3
63	65	1
119	134	1
82	83	3
55	61	1
125	140	3
72	86	1
8	23	2
2	3	5
93	95	1
10	73	3
137	139	1
18	29	2
51	58	2
78	80	1
136	139	3
84	87	1
65	67	1
52	53	1
63	64	2
116	118	2
90	122	2
104	105	2
125	141	1
122	128	4
113	120	1
123	129	1
92	96	2
74	77	1
54	82	2
118	136	2
132	139	2
118	137	1
60	112	1
128	131	1
18	20	3
122	138	1
87	108	1
117	142	1
68	72	2
59	61	3
88	137	2
61	68	1
90	109	1
91	123	2
119	121	2
31	61	1
58	72	1
107	108	1
5	14	1
56	82	1
67	71	2
131	133	1
17	51	1
115	118	2
35	37	1
29	30	1
140	144	2
117	139	1
9	11	1
36	60	1
75	94	1
83	112	1
69	70	1
51	53	1
23	74	1
13	15	3
144	145	1
107	139	1
134	137	1
57	82	1
99	117	1
65	85	2
133	140	1
55	63	1
62	66	1
96	104	1
30	32	1
85	136	1
92	104	1
