38	40	4
128	128	16
42	43	6
69	70	10
59	59	11
84	86	7
107	107	17
29	29	4
44	44	6
2	8	3
132	132	6
62	62	9
80	80	5
5	5	11
67	67	9
104	109	3
100	100	7
31	31	6
8	9	1
126	126	13
7	133	2
109	109	6
59	60	9
21	22	8
81	81	8
87	87	2
48	48	11
104	105	4
71	99	3
103	103	10
41	42	3
72	79	4
112	112	6
50	50	12
63	63	9
72	97	1
77	78	7
94	94	9
61	61	7
123	123	4
50	51	6
61	88	2
67	68	1
12	12	6
14	15	4
78	79	3
42	42	8
0	2	7
13	14	4
129	129	7
56	88	6
91	91	4
126	127	1
121	121	7
84	84	7
73	74	4
57	76	1
59	61	9
115	119	1
126	128	3
102	106	2
102	103	3
117	117	7
5	117	2
51	51	5
47	48	2
106	106	3
93	93	3
111	118	5
108	108	4
11	12	4
43	43	10
19	19	3
83	84	1
69	69	8
72	72	6
56	56	5
65	65	8
124	124	7
66	66	7
124	125	6
49	53	1
82	87	3
2	2	5
95	95	8
38	39	6
44	45	4
56	57	5
45	83	4
39	40	1
64	64	5
29	30	1
102	102	2
85	85	2
99	109	4
91	93	3
60	60	5
21	34	2
105	131	1
86	86	5
60	63	4
82	84	3
102	107	3
76	83	1
8	8	3
100	101	4
25	30	3
19	20	2
75	76	6
122	122	4
75	75	5
39	39	7
130	132	3
41	41	6
116	119	2
86	88	7
25	25	8
104	107	1
17	18	3
111	111	4
47	47	8
98	98	6
53	53	7
93	94	6
70	70	4
14	14	3
55	55	5
40	40	7
3	4	3
86	89	5
15	15	8
9	9	2
6	6	3
89	89	3
25	39	4
101	102	2
79	79	5
95	113	6
30	30	13
18	40	2
70	71	3
114	120	4
18	24	1
127	127	3
63	64	2
16	22	2
101	103	2
49	49	10
12	20	3
130	130	7
96	96	2
72	73	1
58	63	3
46	46	4
19	44	3
31	32	3
57	58	1
115	116	2
62	84	1
50	90	1
70	105	3
43	72	4
18	22	4
34	34	3
116	117	1
84	85	1
33	33	2
107	108	5
115	115	3
51	52	5
16	16	2
125	125	8
92	96	2
24	24	2
113	113	11
4	4	5
20	20	2
117	118	2
20	26	2
19	21	5
131	131	1
25	26	2
110	111	3
80	81	1
18	39	1
77	82	2
66	67	2
52	53	6
77	77	2
41	43	1
123	124	3
14	16	4
7	7	7
111	117	1
87	88	2
101	101	1
58	58	5
49	76	2
96	123	1
99	99	11
100	108	4
85	86	3
26	26	3
18	18	10
73	75	5
26	39	1
12	54	2
26	27	3
10	10	4
71	71	10
130	131	6
32	32	7
127	128	4
45	80	2
87	89	3
97	98	1
128	129	2
58	74	2
104	104	3
27	27	5
55	114	2
55	116	2
102	108	1
76	88	1
99	100	1
126	133	2
83	83	2
105	105	3
110	110	4
2	3	1
20	45	1
13	21	2
54	54	3
90	91	5
52	52	3
105	106	2
96	106	3
57	109	1
86	87	1
27	29	3
133	133	1
16	17	6
30	32	2
22	23	3
88	89	1
76	77	3
92	94	1
108	109	3
25	27	2
45	45	5
75	77	3
97	97	2
118	118	1
76	94	2
118	119	1
13	13	2
100	103	1
95	96	3
17	17	1
81	82	2
62	100	2
76	76	2
90	90	3
56	58	2
43	128	3
77	96	2
116	122	2
98	100	2
116	116	3
120	120	1
0	4	1
121	122	1
109	120	2
131	132	4
64	70	1
46	47	2
72	74	3
57	57	2
38	38	1
52	54	1
45	58	1
1	1	2
40	41	1
24	33	1
107	109	1
29	50	2
1	2	3
58	62	2
131	133	1
74	74	2
127	133	1
98	124	1
20	54	1
28	29	1
129	130	2
23	24	2
6	30	1
53	55	1
59	62	1
47	49	1
11	11	1
85	88	1
91	92	2
68	68	1
83	86	1
55	59	1
21	39	1
49	51	1
46	58	1
6	8	1
51	56	1
15	38	1
127	131	1
29	33	1
70	86	1
23	26	1
