7	7	13
111	111	15
28	28	18
97	98	2
159	159	3
200	211	1
8	8	7
111	204	6
202	202	21
37	37	8
5	37	8
25	25	11
156	161	3
240	240	8
23	23	18
192	192	5
159	200	4
165	165	1
89	90	2
40	40	9
236	237	5
225	225	12
44	44	15
119	119	7
187	187	12
176	176	12
160	160	7
41	41	15
153	183	2
79	79	8
38	38	9
6	6	8
42	42	15
161	162	6
31	32	7
31	31	8
9	147	2
208	208	7
27	27	21
244	244	7
67	68	2
170	170	13
18	18	11
113	113	10
179	180	5
169	181	8
155	156	8
163	167	1
237	239	1
29	29	11
218	220	5
49	49	4
89	89	15
191	192	2
162	162	8
232	232	8
71	74	3
206	206	8
82	83	5
216	218	1
54	54	9
81	81	8
52	52	22
14	14	3
88	88	5
81	108	1
210	214	2
38	105	4
3	150	2
170	184	2
5	5	11
9	29	2
84	84	4
109	109	10
51	51	18
183	183	13
234	234	15
172	173	3
166	167	1
110	110	13
107	107	6
222	222	11
169	169	10
55	55	12
28	29	8
180	181	6
185	185	4
238	239	2
76	90	2
236	241	2
207	227	4
14	15	7
187	190	2
118	118	10
207	207	17
201	201	14
173	173	8
178	179	8
195	196	3
86	86	11
175	175	17
39	39	3
153	153	13
192	245	1
217	217	10
237	238	1
182	184	1
9	9	11
211	212	3
12	12	3
168	168	16
204	226	2
47	47	8
16	16	3
227	235	3
65	94	4
178	178	9
104	104	3
51	52	4
90	90	9
17	18	1
76	99	2
214	214	20
239	239	5
194	195	5
77	77	6
23	41	2
231	232	2
170	171	6
151	151	19
167	167	13
186	186	5
117	117	4
224	224	9
211	211	8
114	114	19
57	62	2
59	59	5
85	86	9
62	62	8
165	166	5
20	20	4
66	66	7
46	46	8
3	3	6
205	205	15
150	150	4
96	96	6
180	180	14
245	246	9
30	30	6
166	166	8
45	45	12
64	64	7
21	22	7
209	209	8
4	4	1
151	183	2
211	227	4
26	26	17
162	163	4
243	243	9
219	219	7
118	246	3
170	190	2
40	110	2
4	5	2
174	222	1
177	177	20
24	24	7
179	179	7
163	165	2
242	242	6
35	35	8
152	152	3
234	235	3
53	53	5
42	45	2
170	197	1
20	21	6
97	97	8
21	21	6
193	194	8
1	1	4
212	212	14
237	237	5
63	63	4
106	106	6
110	115	3
205	206	3
233	234	8
92	92	6
58	60	5
18	20	4
32	32	10
244	245	7
56	62	3
243	244	1
36	36	4
174	174	6
102	103	3
156	156	14
239	240	8
175	178	3
245	245	6
11	55	4
213	213	8
115	116	7
89	98	4
154	155	5
195	195	5
35	37	5
24	27	2
15	15	7
84	85	1
50	50	6
34	35	9
146	153	4
248	248	4
28	31	1
70	70	6
176	181	3
95	95	16
65	65	3
157	159	2
223	224	6
113	114	1
10	10	15
60	60	2
54	55	2
160	208	2
227	228	4
5	6	3
236	236	5
58	58	3
32	46	5
88	90	4
67	67	9
96	97	4
210	210	3
181	181	5
57	65	3
34	34	5
2	2	2
114	115	6
168	169	4
108	108	4
33	37	1
179	181	3
198	198	4
116	116	3
93	94	6
120	120	2
213	214	11
210	211	1
171	171	6
95	102	2
73	73	4
93	93	8
212	213	5
39	213	2
208	209	1
231	231	5
0	0	4
182	182	4
76	76	8
235	235	7
48	48	10
106	107	1
151	152	2
187	188	2
189	189	6
72	72	2
32	33	3
204	204	7
108	175	2
241	241	5
230	230	6
168	184	5
117	249	2
155	155	10
17	20	6
209	244	1
25	26	5
87	88	10
95	153	1
200	200	2
72	75	3
190	191	5
101	102	2
199	199	7
172	180	2
29	30	6
192	194	2
203	203	8
33	33	5
120	172	2
99	100	9
37	233	10
38	234	3
102	102	4
70	71	6
85	85	7
144	206	6
236	238	1
112	113	4
112	112	9
185	186	2
96	98	4
4	37	5
105	105	8
184	194	4
206	207	1
113	226	4
221	221	7
203	204	5
145	145	3
7	8	6
144	144	3
98	100	1
184	184	2
73	75	3
193	195	3
188	190	1
246	246	4
182	183	5
88	89	3
92	164	3
177	179	6
202	210	3
209	238	4
172	172	5
208	213	1
94	94	6
188	189	3
71	71	7
17	17	2
98	99	1
166	168	1
32	38	2
177	222	2
153	164	5
22	23	5
87	110	3
66	68	5
89	146	1
161	161	1
190	190	4
228	228	3
220	220	3
227	229	3
210	245	2
22	22	5
147	147	2
108	112	5
121	121	2
193	193	4
209	211	3
229	229	2
115	115	4
91	92	1
2	3	2
43	46	1
207	224	4
79	80	1
118	119	3
183	184	4
220	221	5
176	197	4
159	247	2
80	80	3
94	155	2
107	108	1
74	74	5
152	153	4
34	37	4
162	165	1
12	42	1
207	213	1
76	77	2
215	215	3
233	233	3
98	98	2
77	85	2
169	194	1
109	114	1
48	49	2
111	245	1
73	92	1
224	225	5
49	50	2
65	169	1
21	23	1
158	160	2
3	7	4
149	149	2
150	151	5
161	196	1
238	238	1
207	226	2
82	82	7
192	198	4
40	156	2
46	48	1
224	235	2
117	119	2
230	231	1
162	200	1
79	82	1
162	166	1
157	157	6
146	147	3
197	197	8
225	247	1
105	118	2
118	245	2
218	218	6
87	87	1
39	40	4
91	91	1
247	248	3
247	247	2
42	43	6
196	196	2
87	89	2
169	182	1
82	115	6
112	244	1
175	176	1
245	247	2
75	77	1
43	43	7
24	25	1
175	206	2
206	214	1
225	248	1
184	185	1
82	109	2
16	17	3
15	53	1
61	61	1
106	114	4
176	177	3
44	45	1
109	113	1
196	198	1
191	191	3
171	172	2
83	83	2
105	107	2
56	66	3
30	31	1
36	37	1
92	97	1
39	234	3
181	220	2
232	233	2
5	36	1
157	164	1
235	240	1
116	117	1
90	91	1
68	68	3
15	16	5
187	189	1
200	203	2
177	181	1
69	69	2
114	117	1
151	161	1
227	227	1
156	200	1
211	245	1
15	190	1
240	241	2
55	57	2
19	19	2
59	71	1
159	160	2
44	53	1
153	245	1
6	17	1
237	240	3
181	184	1
172	206	1
64	66	3
118	238	1
38	39	1
175	180	1
20	22	1
112	119	1
152	203	1
208	239	1
236	245	2
11	11	3
30	32	2
169	202	1
76	78	1
92	93	2
221	222	3
175	209	1
241	242	3
27	28	3
83	119	1
146	146	3
39	46	1
238	240	1
23	24	1
186	212	1
10	11	2
168	189	1
105	115	1
49	78	2
66	67	1
153	154	1
63	70	1
6	7	2
154	154	1
194	194	1
25	43	3
68	69	2
159	172	1
169	186	2
166	185	1
14	203	1
12	34	2
45	46	1
214	215	1
11	42	2
163	164	1
62	94	1
29	41	2
11	12	1
52	55	1
163	163	1
90	92	1
197	198	1
19	20	1
188	188	1
103	103	1
163	176	1
216	216	1
223	223	1
51	53	1
163	171	1
43	44	1
