120	120	9
85	86	9
101	103	2
67	69	7
98	98	6
110	117	1
32	32	10
45	46	4
18	19	6
129	132	3
14	15	1
135	135	9
82	84	4
16	17	9
147	147	5
10	10	12
17	21	1
20	20	18
5	6	2
50	50	11
116	116	7
113	113	1
57	57	17
31	32	9
17	19	2
66	66	5
103	103	15
126	126	10
42	55	1
70	70	8
44	44	10
8	8	13
48	48	14
49	56	5
67	67	8
112	112	5
43	44	8
109	109	8
15	17	3
36	36	13
95	95	7
98	99	5
42	50	1
51	56	2
16	16	4
53	53	17
4	4	9
11	11	14
148	148	4
56	116	3
151	152	1
53	152	3
124	145	2
81	81	9
134	134	10
51	51	5
75	75	6
76	78	6
118	118	8
73	73	4
34	34	11
34	35	1
105	108	2
80	81	2
24	26	1
25	25	14
137	137	6
104	116	3
136	136	4
27	27	8
74	84	3
33	33	9
6	7	18
120	122	10
38	39	1
48	49	4
85	85	2
14	14	5
141	142	5
129	130	2
122	122	5
119	119	15
39	39	5
148	149	2
24	24	8
64	64	6
138	139	10
66	95	4
153	153	8
133	133	10
2	3	3
18	18	9
128	139	4
93	94	3
124	124	3
16	25	2
100	101	11
21	31	4
66	76	1
15	15	11
119	124	2
6	6	1
106	107	2
105	105	2
125	127	4
69	70	5
28	28	8
83	83	12
47	48	3
140	141	1
117	117	6
11	13	3
100	106	6
12	13	3
99	99	8
97	97	5
22	22	22
64	82	2
5	18	8
127	139	2
140	140	9
37	39	3
20	21	6
69	69	7
106	106	8
114	117	2
63	64	1
100	111	1
12	12	9
32	33	6
53	54	3
26	27	6
101	101	2
13	14	2
69	74	5
87	87	8
144	144	8
13	13	16
62	64	1
33	34	5
79	80	2
35	36	11
83	98	2
86	86	1
44	45	4
46	46	6
18	26	8
115	115	5
42	43	5
22	23	2
5	7	2
38	49	3
35	37	4
27	51	4
150	150	2
123	124	4
126	139	3
3	5	1
47	47	8
40	40	3
43	53	1
131	132	6
31	31	12
25	28	1
56	85	2
101	106	4
143	143	1
30	32	2
37	37	6
145	146	4
21	21	11
25	27	3
85	92	2
19	20	2
96	97	7
9	9	20
103	105	2
4	5	8
65	65	6
75	76	2
16	23	2
129	129	5
75	77	1
78	78	4
33	36	4
38	38	10
146	146	4
108	108	11
77	77	4
126	144	1
43	117	7
42	42	9
107	107	6
115	116	7
34	43	2
12	21	4
131	131	2
19	19	13
46	47	1
95	96	4
125	126	5
82	82	2
30	30	4
132	133	2
74	74	5
110	110	4
35	35	8
141	147	2
147	148	3
55	55	2
15	25	1
16	22	2
123	146	1
78	82	2
5	5	6
43	43	7
62	63	5
5	9	2
103	110	6
68	72	1
24	25	4
66	82	2
3	6	1
100	100	6
65	88	4
111	111	14
124	125	7
92	99	1
25	26	1
15	16	3
17	18	3
66	74	3
80	80	6
141	141	3
27	36	2
94	97	6
149	149	10
41	41	7
130	130	5
55	56	2
121	121	7
137	138	7
3	8	1
130	135	1
116	117	3
50	51	4
34	36	2
94	95	5
94	94	4
68	68	9
17	30	1
125	138	2
120	121	1
27	30	2
96	96	1
67	77	3
7	119	1
37	38	2
28	29	6
11	12	1
84	86	2
26	26	4
136	139	3
4	6	5
23	24	1
88	89	1
125	125	3
71	90	2
101	102	4
49	50	1
68	76	3
151	151	6
152	152	4
23	37	3
65	96	2
46	50	8
126	127	3
92	93	2
104	104	3
45	75	2
138	138	6
110	111	5
121	125	3
68	77	2
4	12	1
38	40	3
105	112	2
9	13	2
150	151	4
4	57	1
84	84	6
72	72	3
100	107	1
102	102	1
142	142	5
123	130	1
43	45	2
131	138	3
68	74	1
13	33	1
132	132	8
3	3	2
100	112	1
139	142	1
7	10	1
39	40	2
38	45	1
77	78	1
57	62	2
56	56	3
95	97	4
71	71	3
102	107	1
49	51	2
79	79	4
78	97	3
122	138	1
112	134	2
109	114	1
8	15	2
3	4	1
41	44	7
64	65	2
97	114	1
109	110	3
8	9	3
84	85	1
113	114	4
81	82	3
19	22	1
80	84	2
111	112	4
24	30	1
29	29	10
101	110	3
154	154	3
10	12	1
49	49	1
23	26	3
75	82	1
33	35	3
131	133	4
63	63	1
104	105	1
65	66	2
27	28	2
5	19	1
62	62	3
23	38	1
8	40	2
136	137	1
18	37	1
23	23	4
18	21	1
140	142	2
75	79	1
77	94	1
16	18	3
93	93	1
4	7	1
42	150	2
37	40	1
120	124	2
81	87	1
36	37	1
7	8	2
126	148	1
110	112	1
105	110	2
46	84	4
78	79	1
88	88	3
144	146	2
126	138	1
146	147	6
127	127	3
76	77	1
108	112	3
52	53	1
128	128	3
64	99	3
10	11	1
7	35	3
105	109	1
129	146	1
7	7	2
97	98	3
24	37	1
102	106	1
58	63	1
21	22	2
117	118	1
132	142	1
139	139	7
7	123	1
35	39	1
3	9	1
57	63	1
30	31	1
132	138	1
47	57	1
39	41	1
9	15	3
17	17	1
137	139	1
54	54	2
65	94	1
72	83	1
12	14	3
14	33	1
23	30	1
45	116	2
100	110	1
123	138	1
65	98	3
119	121	2
97	99	1
3	20	2
127	130	1
26	32	3
9	11	1
93	97	2
39	43	1
109	117	1
114	150	1
141	143	1
95	99	1
73	74	1
10	17	1
62	73	1
114	114	1
139	147	2
25	29	1
15	33	1
42	51	1
39	42	1
119	122	1
102	103	1
