114	114	6
3	3	7
86	86	13
124	154	3
109	110	10
41	41	2
92	92	21
101	101	13
78	81	5
45	47	1
130	151	1
145	145	15
24	24	7
26	26	30
127	127	10
42	43	2
7	8	2
11	12	4
52	53	7
84	92	1
129	129	9
10	10	13
148	148	10
79	79	34
66	67	6
14	14	15
138	143	5
88	89	10
46	46	7
146	147	3
107	107	8
90	90	14
12	13	7
94	94	9
36	36	26
147	147	9
19	19	12
16	16	15
13	13	14
57	57	6
93	94	6
73	73	14
122	123	5
108	109	9
84	86	1
133	134	15
123	123	11
144	144	18
109	109	7
146	153	5
33	35	4
112	113	8
97	97	19
133	133	21
34	34	13
140	140	9
3	43	4
111	112	7
132	132	6
51	51	16
115	117	2
81	82	7
18	18	17
64	64	6
85	85	19
126	126	12
1	1	12
107	108	6
117	118	7
53	54	7
36	39	4
75	75	12
108	110	5
121	136	2
37	40	3
47	47	13
0	1	7
93	93	16
1	3	3
79	80	6
19	117	1
50	50	14
134	134	20
152	153	2
71	72	3
123	124	10
137	137	9
137	146	1
140	141	9
52	52	10
116	116	26
38	140	1
18	20	1
112	112	9
69	69	11
36	38	3
88	88	9
28	155	2
132	133	6
146	146	16
116	117	7
115	116	8
92	106	1
82	83	7
122	122	10
84	85	5
65	71	3
70	70	7
83	83	11
99	99	15
153	154	6
37	122	9
105	105	16
29	29	5
38	38	6
114	117	11
32	33	7
37	37	8
126	127	5
33	33	5
104	104	17
3	9	1
6	6	8
78	78	10
155	156	6
49	52	5
48	90	3
77	77	17
121	121	9
69	70	4
31	85	1
82	82	13
125	125	11
79	122	4
125	145	2
130	130	10
84	84	20
96	97	4
2	2	16
122	137	5
22	22	15
96	96	7
32	51	8
109	112	3
86	88	2
42	42	4
137	153	8
68	70	3
135	135	14
124	124	8
56	67	8
142	142	3
95	95	13
89	89	4
141	141	18
131	132	3
8	20	6
49	49	11
66	69	2
117	117	12
144	146	6
126	146	3
68	69	9
41	42	3
119	119	15
28	156	1
156	156	18
8	9	8
138	138	20
84	142	6
114	116	3
55	57	7
153	156	3
115	115	6
8	8	9
135	137	4
4	40	3
80	80	20
81	83	4
138	139	7
108	108	6
149	150	3
33	34	4
106	114	4
46	47	8
30	31	3
83	85	6
113	114	4
39	39	1
106	106	9
150	153	2
71	71	9
83	89	1
98	98	6
92	93	3
47	140	1
28	28	11
86	87	5
128	128	14
80	84	2
26	103	6
120	121	1
67	68	7
154	154	6
90	91	5
123	138	6
150	150	9
87	88	6
105	106	7
33	41	3
22	37	2
100	100	11
31	147	6
71	85	4
131	131	15
135	138	2
118	119	12
87	87	4
49	50	3
103	103	7
48	57	3
155	155	4
83	84	13
48	89	3
94	95	3
23	23	7
27	27	4
35	36	7
127	135	4
55	56	2
124	125	18
89	90	2
81	81	2
31	31	17
136	136	12
109	111	4
157	157	3
90	92	3
82	84	1
28	29	7
20	23	3
23	25	6
102	104	1
152	152	9
40	40	8
148	150	2
38	39	3
137	140	3
62	69	1
126	136	1
154	155	6
10	11	8
70	72	2
27	158	1
91	91	11
39	40	4
139	139	9
48	48	9
103	105	8
67	67	4
11	11	4
62	68	2
78	79	6
137	138	9
4	5	5
53	53	3
18	19	5
134	148	1
62	62	3
127	141	1
80	82	2
136	140	2
69	82	2
4	44	2
23	24	6
143	143	2
117	121	1
122	152	1
87	89	4
72	72	7
43	43	14
35	35	6
55	55	7
31	32	1
15	15	3
44	44	11
142	148	1
21	21	5
5	5	3
35	125	2
80	91	1
62	63	3
77	78	3
32	54	5
32	34	2
121	122	4
22	23	4
29	47	3
29	30	4
120	120	9
123	125	2
102	102	1
39	50	1
111	111	8
37	38	4
3	4	4
110	111	3
104	106	3
35	39	3
67	70	2
85	86	3
9	9	5
63	63	3
4	45	2
142	152	4
127	139	2
39	41	2
116	118	2
80	121	2
65	66	1
51	53	3
129	130	6
92	102	2
49	88	2
40	41	11
25	27	3
147	148	2
7	7	3
151	152	3
14	19	1
113	113	8
70	71	6
148	149	1
98	99	5
124	144	3
27	29	2
4	10	2
80	81	4
30	30	8
135	136	2
34	38	4
20	20	3
136	137	3
50	51	3
12	12	3
145	147	7
139	140	9
114	121	1
47	71	1
40	42	4
28	46	2
32	32	3
65	65	2
106	115	1
120	126	4
145	146	3
49	89	4
2	43	2
78	142	4
116	120	2
76	142	3
33	133	1
75	76	2
68	68	8
134	149	2
110	110	3
9	10	1
13	29	2
126	144	1
97	98	1
66	66	2
29	31	1
131	133	2
119	120	4
17	17	7
54	55	1
67	69	2
156	157	1
110	116	2
144	145	4
149	149	2
111	114	2
70	83	2
134	135	1
54	54	2
140	146	2
46	98	3
56	56	7
73	95	2
66	158	2
14	16	2
113	120	3
25	25	7
50	96	2
19	20	3
27	28	2
54	57	2
15	16	3
0	0	2
49	53	3
45	45	1
124	126	1
73	74	2
103	104	7
114	115	2
128	152	2
112	140	1
115	120	2
33	132	1
75	80	1
5	155	1
8	53	2
6	26	1
14	49	1
2	3	1
148	151	1
128	133	1
27	157	2
79	142	1
9	11	1
25	26	1
113	121	1
119	140	2
56	57	2
9	21	2
32	49	2
151	151	4
153	153	2
79	81	3
77	79	1
137	139	1
8	25	1
50	52	2
72	73	1
134	152	2
79	82	3
135	139	1
24	25	1
70	91	1
3	44	4
5	40	1
129	138	2
142	147	2
104	105	1
117	119	1
127	138	1
124	127	1
54	132	1
38	141	3
21	22	2
79	121	2
77	83	3
71	86	1
48	49	2
118	118	2
10	20	1
42	45	1
11	13	1
37	125	1
76	78	1
100	101	1
76	77	1
18	21	1
74	84	1
113	115	1
125	126	2
34	37	1
83	107	1
11	19	1
35	38	1
133	149	1
150	151	1
16	17	1
26	40	1
41	98	1
19	21	1
25	111	1
12	51	1
31	38	1
137	142	1
126	153	1
140	142	1
64	68	1
30	72	1
102	103	1
143	146	1
134	138	1
