23	74	1
97	99	3
29	29	7
38	38	4
48	49	3
60	61	8
37	37	8
58	59	1
97	97	11
77	80	4
41	46	2
33	34	7
93	93	1
23	23	4
65	65	5
59	70	3
96	96	8
103	103	14
63	63	9
95	99	6
25	42	3
31	36	5
24	24	5
98	98	5
61	61	13
68	92	2
56	56	10
77	79	3
57	89	2
73	82	4
88	88	7
61	63	4
36	39	1
70	70	7
62	62	3
25	95	1
40	41	2
86	86	9
80	80	6
66	66	10
105	105	5
73	93	1
46	46	10
25	36	3
60	62	1
75	76	4
37	40	3
39	39	5
25	25	7
26	26	12
38	39	8
87	99	3
90	90	5
22	22	6
72	79	6
89	89	3
42	43	6
26	95	2
41	43	3
35	35	3
51	51	9
45	46	1
20	20	5
46	49	3
30	36	2
62	63	7
66	71	1
102	102	3
70	91	1
69	69	2
102	103	1
79	79	11
58	58	9
74	74	15
54	54	11
31	32	1
27	27	2
60	100	1
68	72	1
49	67	3
82	82	8
79	80	4
44	44	6
41	44	4
61	62	1
58	77	1
97	98	1
65	66	2
95	95	2
60	70	5
31	60	1
77	84	1
45	45	4
33	33	9
99	100	1
50	51	4
76	76	6
78	78	7
68	97	2
85	85	4
57	57	9
47	53	1
61	99	7
25	84	1
91	91	3
40	79	3
44	45	1
71	93	2
50	50	2
25	37	3
30	30	6
75	75	3
72	72	10
38	47	2
32	32	6
53	53	7
40	44	6
42	42	5
88	90	1
72	80	3
101	101	13
104	104	7
83	83	7
34	61	2
67	67	3
84	84	4
95	97	4
88	89	1
64	64	7
48	48	9
37	58	4
36	36	5
95	96	3
29	30	2
87	87	11
25	82	1
49	51	2
59	59	5
62	92	2
66	67	2
50	54	2
82	98	2
101	102	1
106	106	4
40	40	3
32	46	2
55	56	1
72	78	1
73	73	3
80	81	3
82	85	3
43	43	3
55	55	6
37	38	3
31	31	2
81	93	1
58	85	2
21	21	10
99	99	4
94	99	3
78	81	1
71	71	2
21	58	1
79	81	2
100	100	5
51	53	2
65	79	1
28	28	1
21	25	1
72	84	1
43	44	1
36	47	2
49	49	4
26	27	1
96	106	2
34	34	2
74	75	2
82	96	1
40	46	1
92	92	1
51	52	1
42	45	2
62	91	1
20	65	1
41	41	2
70	75	3
62	88	2
43	45	2
94	94	2
54	55	3
52	52	5
69	74	2
40	45	1
81	81	2
40	43	2
23	59	1
34	65	1
62	104	1
64	65	2
86	87	2
65	68	2
53	54	2
34	37	2
62	66	1
89	90	1
77	77	2
87	88	3
68	68	3
60	65	1
100	102	1
38	80	1
69	70	3
20	28	1
82	87	3
65	86	1
60	77	1
82	84	1
76	77	1
49	53	1
59	78	2
56	88	1
36	48	1
35	39	2
64	68	1
37	39	1
61	105	1
57	78	1
66	79	1
32	76	1
22	76	1
