23	29	4
43	44	2
51	66	4
61	61	8
46	46	3
28	32	3
70	71	1
83	84	3
28	28	8
30	41	3
100	100	3
65	91	4
105	105	15
82	82	6
39	39	5
80	80	5
94	96	3
106	107	4
92	92	5
54	54	6
70	70	5
50	89	1
55	55	13
20	20	2
31	69	3
33	33	2
87	87	4
19	21	3
41	41	2
38	44	1
56	97	1
49	49	4
76	77	2
25	25	11
79	80	3
40	40	10
49	87	4
35	35	5
63	66	5
86	87	4
57	87	7
60	61	3
84	86	6
32	69	1
66	66	6
27	27	5
40	41	5
69	69	6
58	58	12
32	32	7
31	31	4
95	106	5
99	99	10
29	29	9
75	75	6
81	81	2
73	74	1
43	43	2
42	42	6
91	91	7
90	90	15
56	60	3
20	28	7
31	76	4
85	85	7
57	57	5
74	104	2
87	96	2
52	52	10
23	23	2
102	102	10
64	92	2
68	69	6
51	106	4
36	37	5
34	34	1
58	82	1
38	38	9
95	96	1
41	44	2
96	99	2
21	33	5
89	97	2
35	36	2
67	68	3
89	95	3
71	71	1
26	26	2
93	93	8
25	49	3
77	77	1
50	94	5
50	51	3
88	88	2
21	21	1
104	104	2
26	44	3
44	44	4
62	62	3
37	39	2
95	95	12
64	64	1
22	23	2
106	106	4
51	51	5
27	40	4
19	19	2
56	56	6
103	103	3
59	59	2
64	65	1
45	47	1
74	74	9
36	36	3
26	30	2
78	79	4
78	97	5
65	90	1
82	92	2
33	34	1
51	65	1
50	93	2
30	30	2
101	101	1
98	98	3
40	42	3
37	37	3
87	99	1
65	65	4
31	32	1
89	89	1
97	99	2
26	40	2
55	56	1
33	41	1
95	99	1
62	90	1
77	78	2
68	68	3
56	58	2
92	98	1
61	68	2
40	48	2
85	99	1
50	50	1
45	45	3
61	78	1
88	97	1
79	79	2
93	106	1
79	82	1
73	73	4
52	92	2
39	40	1
82	87	1
64	90	1
47	47	2
96	96	1
26	28	2
40	49	1
97	97	1
67	67	3
28	48	4
51	69	1
78	84	1
103	104	1
86	86	1
79	96	2
91	92	3
50	96	2
27	28	2
53	53	1
40	47	1
28	30	1
43	97	1
37	38	1
50	95	2
74	101	1
84	84	3
76	76	1
84	96	1
22	22	1
53	55	1
104	105	1
22	25	1
