92	92	8
84	85	4
41	41	9
100	100	10
90	90	10
105	105	16
74	74	17
21	21	14
39	43	2
70	72	8
22	22	13
56	56	21
99	99	12
40	40	2
24	30	2
89	89	6
69	69	18
92	101	2
26	27	6
62	63	7
49	49	11
29	32	1
30	30	7
64	64	9
63	63	19
88	90	4
72	72	2
47	47	5
60	60	8
71	71	7
36	36	15
38	39	14
82	82	7
47	48	12
54	54	3
36	37	8
51	51	16
91	101	1
94	95	5
51	52	12
53	54	3
50	50	10
97	97	7
68	69	5
88	89	6
58	58	3
31	31	13
71	72	1
25	25	8
93	93	11
61	62	10
78	92	9
65	66	4
98	98	7
91	91	15
83	85	3
101	102	5
37	39	1
24	24	13
23	23	10
55	55	9
79	81	1
81	81	7
37	38	9
50	51	9
38	42	6
79	80	8
106	107	3
27	27	6
32	32	5
61	61	18
34	78	2
83	86	5
58	59	8
52	52	15
38	38	3
66	67	5
92	93	14
22	23	2
73	74	6
65	67	3
65	65	14
96	96	8
62	64	5
75	75	14
29	29	9
43	44	1
83	99	1
78	78	17
53	53	15
101	101	10
80	93	2
34	34	6
79	79	2
25	26	7
57	57	8
84	84	8
66	66	8
33	34	3
103	103	5
77	77	10
26	29	6
76	76	15
94	94	9
62	62	8
97	98	8
68	71	1
38	43	1
88	88	13
96	98	1
71	73	2
31	32	14
29	30	9
59	59	7
67	68	6
59	60	5
86	87	4
43	74	3
24	25	6
70	71	3
60	61	5
39	39	7
102	102	6
103	104	2
27	28	4
53	55	1
36	79	5
91	99	1
78	94	1
80	80	4
20	20	9
35	35	8
37	96	3
92	100	2
107	107	1
46	46	4
52	53	4
69	70	5
62	65	1
91	92	7
28	28	6
54	55	1
66	68	3
26	26	9
44	44	3
71	75	2
93	94	1
98	99	1
104	104	9
68	68	7
81	82	3
74	75	10
92	96	3
55	56	8
35	36	2
48	48	2
42	42	3
87	88	2
85	86	1
95	95	3
40	42	2
77	106	2
42	43	3
73	73	7
86	86	3
87	87	6
78	88	3
85	89	2
32	34	1
90	91	6
70	70	10
28	54	1
80	81	3
33	33	5
74	93	2
42	73	1
26	31	1
90	106	2
32	33	2
82	83	1
41	43	4
21	22	1
64	65	3
53	56	3
54	56	3
81	86	2
97	100	2
77	78	2
46	49	1
37	37	3
57	59	2
33	36	2
99	100	1
61	64	1
91	95	1
67	67	3
45	45	2
97	99	2
76	77	2
78	79	2
77	92	1
63	65	2
21	25	1
104	105	2
94	99	3
79	82	2
56	57	5
39	40	1
61	63	1
101	103	3
82	87	2
34	36	1
19	38	1
26	28	1
49	50	1
27	47	1
78	81	1
23	31	2
79	94	2
89	90	2
80	84	1
99	107	1
95	99	1
84	92	1
84	91	2
76	88	1
51	53	1
81	84	1
56	59	1
56	58	1
87	90	1
72	73	1
39	42	1
