102	102	5
126	130	1
104	104	7
48	49	7
15	51	4
120	120	12
57	57	12
113	113	10
14	15	10
102	103	3
17	17	7
66	67	4
85	86	3
79	79	4
45	45	6
83	83	10
125	125	13
40	75	1
82	87	1
113	133	1
58	58	13
112	112	11
27	27	4
49	49	15
70	70	23
78	78	8
75	83	3
42	42	4
9	9	4
126	126	6
107	107	6
67	67	7
2	2	4
44	56	1
62	85	3
114	114	3
110	110	17
13	14	1
122	122	8
31	31	11
109	109	13
16	16	11
95	95	5
32	32	10
71	71	16
19	19	4
52	52	14
12	12	14
74	75	3
103	103	4
61	62	7
24	24	5
46	46	14
0	0	5
111	111	10
75	75	5
31	32	3
89	89	3
99	100	1
56	56	10
15	19	2
81	81	5
0	52	3
13	13	9
5	5	25
90	90	5
98	98	9
73	73	4
54	54	11
21	21	7
1	1	5
61	61	3
22	22	4
86	97	1
77	109	3
23	24	3
123	124	7
14	14	7
74	74	6
107	108	5
92	92	7
47	47	5
76	76	13
108	108	7
97	97	16
55	55	8
6	6	19
28	29	2
40	40	5
74	81	2
127	127	1
106	106	7
57	58	3
73	74	5
67	70	2
80	86	2
40	41	2
59	59	4
110	111	5
7	7	13
25	26	3
79	81	3
76	77	2
11	12	6
24	33	2
86	86	7
26	30	4
100	100	8
4	4	5
115	115	5
81	82	2
91	93	2
79	84	1
8	8	5
92	93	1
18	34	3
121	122	4
50	50	8
107	114	1
20	20	3
96	96	9
77	77	2
132	132	8
65	65	4
28	28	6
64	64	9
53	53	9
116	116	11
96	130	3
69	124	3
101	101	3
87	105	3
26	26	1
10	10	5
82	84	3
27	28	2
124	124	8
25	25	2
105	109	1
121	121	9
130	130	5
68	68	6
112	114	1
72	72	6
105	105	5
26	27	3
117	117	6
46	57	1
18	18	2
98	99	1
80	82	1
55	56	3
67	68	3
97	98	8
103	114	1
1	7	1
38	39	2
15	17	1
40	45	1
105	116	3
81	99	1
63	68	1
63	63	3
131	131	6
5	6	2
88	89	8
23	23	3
94	94	5
88	88	3
69	72	1
63	98	6
128	128	5
100	126	3
80	80	4
100	107	1
78	79	2
48	48	3
93	93	5
22	23	1
128	129	4
41	41	4
94	95	1
19	20	1
18	19	2
39	39	2
41	42	2
105	106	2
93	94	1
100	101	2
118	129	1
129	129	1
3	3	2
22	33	2
119	119	5
24	128	2
30	30	3
51	51	6
62	106	3
58	61	2
43	56	1
130	131	2
115	116	2
44	44	2
86	88	2
95	102	1
133	133	1
126	127	1
59	60	2
3	26	1
46	58	1
33	33	1
71	72	1
85	103	2
44	61	1
123	123	4
131	132	1
22	25	1
11	11	4
43	45	1
20	21	3
3	45	2
49	50	1
112	113	1
47	53	1
51	52	1
71	79	1
99	99	2
6	7	3
109	113	2
76	108	1
68	89	1
132	133	2
9	11	2
118	131	2
76	80	1
42	43	2
9	10	1
44	67	1
125	126	1
101	103	1
4	5	2
9	69	2
58	59	1
109	110	1
8	9	1
47	54	1
97	115	1
97	99	2
60	60	1
127	128	2
38	44	1
82	83	3
87	87	2
95	98	2
1	20	1
82	82	1
27	34	1
65	75	1
96	124	2
118	118	1
113	114	1
45	46	1
90	96	1
84	84	1
91	92	1
124	125	1
15	16	2
108	109	2
69	69	1
114	116	1
85	85	2
81	100	1
22	24	1
62	98	1
90	91	3
111	112	1
91	91	4
101	102	1
43	43	2
18	32	1
85	104	1
71	88	1
76	109	1
38	38	1
77	79	1
0	2	1
94	102	1
29	29	1
53	54	1
49	52	1
27	32	1
95	97	1
39	40	1
48	69	1
