17	18	8
73	73	23
96	96	11
15	16	14
96	97	11
111	115	4
44	44	6
34	34	28
35	36	17
107	107	10
95	95	4
92	93	12
44	56	1
28	30	1
14	14	7
122	122	4
36	36	9
12	14	5
94	96	2
126	128	4
10	12	1
17	27	1
81	81	5
5	7	4
2	2	4
35	59	4
65	65	30
112	112	5
80	80	6
89	90	3
15	15	6
104	104	5
119	120	2
97	97	14
117	117	6
130	130	8
11	92	3
24	25	4
47	93	2
115	131	1
17	26	6
75	75	26
72	73	10
35	35	12
31	31	12
97	98	8
24	79	2
111	118	1
82	82	24
101	132	3
3	4	10
97	100	2
29	29	12
8	8	16
33	33	24
19	26	2
11	11	14
60	60	10
47	47	26
85	85	17
96	126	2
43	44	3
79	80	8
72	72	14
69	69	7
71	71	5
29	49	2
45	92	3
115	115	5
39	39	8
58	58	11
26	82	2
101	101	12
12	12	18
61	61	8
63	63	11
107	108	4
11	93	2
113	113	9
45	45	11
73	126	4
33	34	6
8	15	2
93	93	9
100	100	3
111	111	14
90	90	5
46	46	12
66	66	12
69	70	4
28	28	18
125	125	5
92	92	4
8	10	2
108	130	2
55	55	5
33	78	2
122	123	9
105	105	1
63	64	2
61	67	3
60	61	5
31	36	2
45	70	4
126	126	4
101	107	2
9	9	20
129	129	9
103	131	3
38	41	1
99	100	3
5	5	10
18	18	12
70	71	6
68	68	12
127	127	7
114	114	9
19	19	11
56	56	9
118	118	8
20	84	1
45	87	4
62	70	6
7	8	9
128	128	11
96	128	1
95	96	3
34	76	3
42	42	4
110	111	2
24	24	6
86	86	8
20	22	3
7	7	8
1	1	3
81	88	4
6	7	5
46	47	3
4	4	25
94	95	15
87	90	4
26	26	8
71	72	4
112	113	5
10	11	9
22	24	5
124	130	2
109	109	5
104	105	3
99	99	4
74	74	7
44	78	5
45	46	2
32	33	9
102	102	10
91	91	12
134	134	2
99	130	2
0	3	4
15	17	2
40	40	3
69	72	4
62	72	2
17	20	1
32	32	11
68	69	4
27	27	16
16	16	4
132	132	11
64	69	2
16	37	4
78	90	2
5	6	6
116	116	2
57	77	4
28	79	2
112	131	1
50	50	9
80	81	8
81	82	3
13	66	1
86	87	3
65	66	9
115	133	2
45	90	1
29	30	3
26	27	2
131	131	2
16	42	1
37	37	4
110	110	10
10	10	4
0	1	6
56	57	4
132	133	3
123	123	3
66	83	3
64	64	7
16	17	2
21	21	18
98	100	5
114	132	3
13	13	12
21	22	4
103	107	2
94	94	8
22	31	2
27	46	1
54	56	1
112	116	5
103	111	1
115	117	4
77	78	3
9	10	6
111	113	2
48	93	1
78	78	11
83	83	9
27	92	4
15	40	2
73	74	4
57	59	2
116	117	5
25	26	10
117	119	6
20	20	1
33	81	4
84	84	6
13	95	2
85	86	4
57	58	2
38	81	2
82	89	1
84	106	3
108	108	1
5	88	2
124	125	4
42	95	3
27	77	2
97	99	3
105	109	2
106	109	1
0	0	2
47	83	2
98	99	2
5	19	2
66	71	1
22	23	2
29	48	4
9	18	1
22	22	6
8	18	3
96	100	3
1	2	3
39	84	3
17	30	2
69	71	5
87	88	3
77	77	7
17	28	1
50	55	2
6	91	2
67	67	5
17	17	3
3	3	4
35	75	3
63	70	2
51	51	3
6	6	12
75	76	8
58	59	1
31	32	2
92	94	2
62	64	4
61	62	1
115	116	1
120	120	4
62	85	1
9	14	3
62	75	2
22	39	2
26	93	1
23	23	1
89	89	3
12	13	2
79	79	2
76	76	2
12	46	3
45	91	2
74	75	2
37	59	1
41	42	4
108	110	1
59	59	6
57	57	2
70	70	7
81	89	1
62	62	5
34	35	5
118	119	4
37	60	4
19	20	4
18	23	4
84	103	3
124	124	1
85	100	1
56	92	3
56	87	1
25	61	1
43	43	3
6	8	5
31	49	2
33	35	3
113	117	2
100	101	4
95	99	2
4	6	1
99	102	2
83	84	4
30	30	4
45	60	2
133	133	7
87	92	1
94	102	1
113	114	1
40	42	2
49	49	1
44	87	1
78	80	3
102	114	2
95	97	1
45	48	2
4	5	1
44	48	2
13	14	4
45	102	2
98	106	1
82	85	1
62	63	2
27	93	1
60	68	1
119	119	2
112	118	2
63	67	1
86	89	1
76	77	3
25	75	2
110	133	2
87	87	5
40	61	2
19	36	2
70	72	1
128	129	2
42	60	1
121	122	4
55	56	2
66	67	1
91	92	1
44	57	1
69	73	1
12	124	1
48	48	3
40	43	3
42	43	2
45	64	1
125	126	1
54	55	3
93	97	1
1	3	1
82	83	2
8	48	2
77	117	1
27	48	1
12	19	2
58	86	1
37	38	2
8	20	1
63	71	2
23	24	1
88	88	1
73	83	1
26	92	1
14	16	1
57	79	1
131	133	2
24	82	1
119	133	2
38	39	1
28	62	1
23	26	1
123	124	3
43	101	2
80	90	1
120	121	1
57	90	1
61	76	1
95	126	2
115	134	1
12	47	2
98	127	1
14	41	1
96	98	1
27	78	1
38	38	1
11	48	1
9	28	1
39	81	2
100	133	1
100	130	1
67	123	2
42	83	1
23	25	1
32	36	2
18	19	1
56	59	1
112	130	1
120	122	1
112	119	1
26	47	1
93	94	1
