119	119	9
109	113	1
78	98	1
121	123	2
10	11	3
131	131	13
121	121	8
78	78	2
30	30	5
98	99	1
80	80	10
23	26	4
8	8	8
17	17	5
125	125	6
27	32	2
128	129	3
1	1	7
83	84	7
17	32	1
140	140	6
82	82	5
115	115	10
24	83	8
88	88	2
132	133	6
137	137	7
120	122	2
101	101	4
34	36	1
123	124	12
24	32	7
118	118	5
135	135	11
17	18	2
97	97	5
35	35	13
108	111	1
104	104	4
95	95	12
100	100	5
0	1	5
116	116	6
19	19	8
105	105	5
107	107	1
4	4	13
74	74	9
71	72	4
91	91	6
3	3	8
129	129	3
114	114	9
135	136	4
93	93	5
123	123	6
90	90	5
110	110	7
15	15	2
124	125	2
107	108	7
83	85	2
110	111	2
0	0	1
126	126	14
106	106	2
16	16	7
18	18	3
31	31	5
92	93	5
77	77	2
117	118	3
75	96	3
8	11	1
29	32	2
124	124	11
72	111	1
29	29	4
108	110	2
28	32	3
90	91	5
13	14	6
14	14	10
75	75	3
136	136	8
78	101	1
36	90	4
2	2	9
138	138	4
102	109	4
113	113	4
115	116	5
81	83	2
26	26	5
79	101	1
0	73	1
118	119	5
112	112	3
11	11	4
107	122	2
28	29	10
84	85	2
34	35	2
21	86	1
6	7	2
71	71	5
81	81	6
120	121	1
116	117	3
30	38	2
24	85	2
25	25	5
88	89	4
93	94	2
109	109	2
27	28	2
89	89	3
34	34	3
28	28	8
23	66	4
115	119	3
134	134	7
117	121	2
27	27	9
73	73	6
5	5	2
118	120	3
79	80	1
31	32	5
84	84	3
21	21	1
102	102	5
32	32	3
86	86	7
74	98	3
2	20	2
113	115	2
12	16	1
84	93	1
24	24	6
122	122	5
16	37	2
10	10	1
119	126	1
132	132	10
105	106	2
120	120	3
12	15	2
97	100	2
0	2	1
15	20	1
133	133	5
128	128	5
7	80	1
44	44	2
121	122	2
82	83	3
15	32	3
30	43	2
4	7	1
127	127	6
77	119	5
7	11	3
108	108	1
33	33	6
130	130	3
104	105	2
104	108	2
9	73	2
11	13	1
4	25	1
3	4	2
11	85	2
7	7	2
85	86	1
74	118	3
81	84	2
111	111	9
14	85	2
22	24	1
22	23	2
76	120	2
127	135	1
139	139	2
79	102	1
115	118	1
84	91	1
125	126	1
37	37	3
0	8	2
30	31	3
75	91	3
10	12	3
16	38	2
77	79	2
89	90	3
12	12	2
104	106	2
122	123	2
19	94	2
98	100	3
73	76	1
33	125	3
19	20	3
78	100	1
18	20	2
125	127	2
72	73	4
76	76	2
105	107	1
15	17	1
36	89	3
10	83	1
96	100	1
102	103	2
99	100	1
133	134	2
9	12	4
103	103	1
6	90	1
94	95	1
36	37	2
119	121	1
117	117	1
80	81	4
87	87	1
115	123	1
108	109	1
109	110	2
107	120	3
16	17	2
94	94	1
108	115	1
79	79	1
15	16	1
137	138	1
7	79	1
72	77	1
8	9	1
129	130	1
23	23	1
127	128	1
111	114	1
35	36	1
