106	106	9
46	46	8
84	84	8
42	42	7
75	81	2
114	114	12
50	50	4
97	98	3
31	31	20
53	56	4
81	103	2
34	34	7
75	80	5
80	81	3
81	82	4
101	101	7
88	90	3
25	25	6
89	89	9
103	104	1
87	88	5
45	45	11
59	60	5
46	89	2
64	65	1
21	21	11
23	41	4
39	39	8
55	58	1
50	51	4
85	86	3
51	51	2
45	46	5
77	77	6
58	59	6
37	39	2
110	110	13
108	109	7
62	62	9
33	41	1
36	36	9
29	68	4
23	24	2
58	58	12
40	41	5
80	80	12
25	61	5
83	83	7
45	53	1
90	90	6
48	48	4
65	65	9
68	68	4
63	63	4
93	93	5
68	69	5
104	104	4
99	99	8
50	63	1
98	109	3
37	37	5
37	38	4
92	93	6
24	24	14
27	27	16
94	94	4
52	52	7
62	83	3
19	19	4
53	53	22
85	85	6
111	111	11
74	75	1
76	76	17
78	78	4
73	73	5
100	100	5
88	89	2
26	26	5
81	81	5
113	113	6
79	111	6
26	103	3
102	102	4
46	69	3
40	45	2
108	108	4
63	64	6
91	91	9
102	103	1
98	101	6
84	85	2
28	29	1
88	91	2
42	110	5
75	75	5
88	88	3
65	66	2
33	33	9
68	70	5
60	61	5
74	74	4
50	74	4
71	72	1
61	61	3
76	77	4
65	79	4
32	32	5
29	35	3
79	79	11
56	58	3
59	59	5
105	106	2
65	71	1
64	64	3
58	60	1
36	69	2
49	49	3
43	43	6
53	54	2
87	87	3
91	101	2
109	109	13
95	95	6
90	91	6
22	22	6
111	112	3
70	70	6
56	57	3
22	23	3
24	37	6
78	79	1
66	67	1
86	87	1
38	39	1
67	68	4
28	28	5
60	115	1
35	35	14
93	94	2
24	25	7
25	101	3
33	34	4
66	66	7
105	105	3
106	107	2
44	98	2
43	55	2
47	47	3
25	44	2
89	90	4
42	100	2
90	101	3
34	35	5
29	29	5
69	69	9
88	102	1
41	41	2
96	112	1
87	90	5
44	44	3
60	60	6
57	57	1
101	103	2
98	100	1
96	96	10
28	74	4
40	40	4
71	71	5
52	63	2
103	103	8
25	36	1
64	78	2
37	61	1
82	83	1
26	29	3
53	59	3
74	82	1
76	88	3
96	98	3
103	107	5
25	37	3
73	74	2
72	72	1
27	42	1
74	103	2
103	108	2
30	30	6
40	61	2
101	108	4
33	35	2
25	62	2
105	113	2
99	101	2
93	95	2
23	23	6
21	99	1
71	73	1
47	50	1
112	112	3
27	35	2
77	79	1
26	27	1
26	82	1
98	98	1
20	20	5
61	74	1
94	95	3
26	115	2
25	35	1
66	69	1
82	82	1
92	92	5
55	55	2
64	79	1
99	100	2
48	49	1
47	48	2
38	41	1
60	64	2
103	113	2
55	56	1
101	102	6
51	64	1
61	62	1
82	90	1
75	76	1
109	110	1
86	103	1
97	101	1
87	103	1
80	87	1
110	111	2
108	112	1
54	57	2
49	50	1
27	34	1
38	38	1
73	79	1
23	39	1
83	85	1
96	111	1
107	107	1
100	101	1
