246	246	25
155	156	4
214	214	23
67	68	9
173	180	2
171	171	37
225	225	6
192	236	2
188	189	5
168	168	14
46	47	4
192	192	23
155	155	16
243	243	14
94	112	2
170	171	4
241	241	20
44	45	2
21	21	22
151	151	19
182	182	18
234	234	19
78	79	3
100	100	27
119	119	25
77	82	2
192	193	2
202	202	16
79	79	12
72	72	17
213	214	10
116	116	27
55	57	1
64	64	15
194	195	15
32	32	13
245	246	12
174	174	12
177	177	15
95	95	12
110	111	10
181	181	19
182	183	10
175	181	4
97	97	13
160	210	5
150	150	18
111	236	2
220	220	5
55	56	6
158	159	9
237	237	16
26	26	9
175	175	17
85	85	10
160	176	5
164	164	20
245	245	33
75	75	20
210	210	21
199	200	11
154	154	30
238	238	24
168	169	11
98	98	23
118	119	10
187	188	8
169	170	8
7	65	1
44	53	5
19	20	1
184	184	17
197	197	20
41	41	19
171	172	6
57	60	1
49	49	10
18	19	2
113	114	7
50	50	9
114	114	27
11	11	26
80	91	3
246	247	4
183	183	24
193	193	17
174	175	7
157	157	28
167	167	21
228	235	3
38	39	2
23	23	12
56	57	5
186	187	15
80	82	5
36	47	2
187	189	9
198	217	2
40	40	14
51	51	24
200	200	21
61	61	13
218	222	4
77	78	7
188	190	10
247	247	16
5	6	2
79	88	5
99	99	6
69	69	5
5	5	20
210	236	5
146	146	8
77	80	1
19	19	17
188	188	12
228	229	7
66	73	4
210	238	1
2	2	6
211	211	24
36	39	4
160	160	22
31	224	4
176	202	3
43	43	14
240	241	7
9	9	9
47	196	1
33	33	14
218	218	13
39	39	7
35	35	23
159	159	28
162	162	18
109	109	24
49	51	2
209	209	13
87	90	3
45	146	3
108	110	4
176	176	19
51	52	6
1	10	4
212	213	5
115	115	21
238	240	6
54	54	17
156	156	31
39	40	5
24	24	11
232	232	20
110	110	22
172	172	19
230	230	11
235	236	4
146	147	4
169	169	15
97	98	7
49	50	10
90	101	4
165	165	16
157	158	7
65	65	14
90	90	12
213	213	26
203	203	25
34	34	12
191	191	20
11	12	3
80	80	7
70	156	1
190	236	3
236	237	4
161	161	7
69	71	4
195	195	18
47	47	12
201	201	16
186	189	3
189	189	34
100	101	8
229	230	20
74	75	3
44	44	27
6	6	16
18	18	19
217	217	28
20	20	8
200	201	9
207	207	18
198	199	13
63	63	8
81	81	17
41	46	1
27	27	27
46	46	18
210	214	3
216	217	21
19	21	3
163	166	1
173	173	33
93	94	6
15	15	30
208	208	20
219	219	18
209	225	8
152	152	17
108	108	1
60	60	22
106	106	11
108	159	1
198	198	16
215	215	15
202	219	4
195	196	10
6	7	5
76	77	16
233	233	9
39	61	3
166	196	4
30	71	3
77	77	12
82	83	10
37	41	1
165	166	3
7	8	8
230	231	5
185	185	14
42	72	1
56	56	37
107	108	5
61	62	4
199	199	22
93	109	5
178	178	7
74	74	5
194	194	5
176	178	3
4	5	9
163	163	13
180	180	37
107	222	1
186	188	2
65	88	1
229	229	20
55	63	2
112	112	24
16	16	13
69	70	2
93	93	12
76	76	14
45	45	18
92	101	3
118	118	14
62	62	14
191	192	11
84	85	13
99	101	3
197	198	7
27	28	3
57	57	17
242	243	10
163	177	4
45	55	4
47	193	1
175	183	1
36	36	17
2	5	13
115	116	7
117	117	15
193	194	13
177	184	7
52	65	4
226	226	10
161	162	4
34	86	2
12	12	20
59	60	5
23	24	3
157	159	6
221	222	5
161	210	2
187	187	13
103	103	16
180	181	5
153	153	25
147	147	10
58	58	11
198	200	2
212	212	16
53	53	12
108	158	1
116	117	5
185	192	4
96	99	1
74	76	3
40	43	5
3	204	1
159	160	14
18	29	2
55	55	7
37	50	3
48	49	5
222	223	6
31	31	18
214	216	1
222	227	5
7	37	2
151	152	4
170	170	27
205	205	28
183	194	1
67	67	7
25	25	10
42	77	4
88	88	12
33	35	4
214	236	1
204	204	18
225	226	5
12	107	1
145	145	6
185	214	1
185	186	6
42	42	9
203	227	2
14	41	2
91	93	3
170	172	3
3	3	18
37	37	10
240	240	15
92	109	1
120	145	3
48	48	15
83	83	15
116	119	1
65	67	9
206	206	19
38	38	13
91	91	16
227	227	13
121	156	2
156	209	2
222	222	11
247	248	6
7	7	13
235	235	22
82	82	16
155	200	2
145	162	3
169	191	3
78	80	2
35	51	2
244	244	15
5	20	1
75	80	1
101	102	2
232	234	3
105	107	5
33	37	4
3	4	5
181	194	1
84	84	5
50	61	1
211	246	2
57	58	10
235	247	2
176	181	6
22	22	19
110	237	2
224	224	19
163	164	4
10	10	26
65	66	4
21	32	1
152	186	2
16	19	1
4	4	8
120	120	9
181	182	12
17	37	1
78	88	1
160	163	4
105	105	13
18	20	2
236	236	2
231	232	2
95	96	6
211	214	5
8	10	7
89	90	5
189	191	7
20	31	7
78	78	9
162	164	9
87	87	8
151	155	2
179	179	18
57	61	6
81	88	2
81	82	8
232	233	3
152	158	5
10	24	1
245	248	7
107	107	10
221	221	21
166	177	1
194	196	2
206	207	7
227	228	6
91	92	14
71	71	9
199	248	2
89	102	1
208	209	9
149	149	2
14	14	9
186	186	24
216	216	11
77	85	4
166	166	18
171	192	4
68	68	11
201	220	5
56	72	2
239	239	25
158	158	10
82	92	1
192	194	1
28	28	3
66	66	7
226	227	10
167	172	5
201	202	2
59	59	12
68	81	4
118	120	6
217	218	5
81	87	1
86	87	3
101	101	5
79	81	3
162	163	5
177	179	3
26	27	3
223	223	9
160	164	6
183	184	4
95	99	2
88	89	3
228	228	12
81	86	3
41	42	1
22	23	7
53	55	2
241	242	2
112	114	5
172	175	1
211	212	5
12	41	2
209	224	1
114	115	15
177	178	6
226	239	3
111	112	5
54	55	9
111	111	23
189	190	13
178	179	5
175	176	10
8	8	10
41	43	2
244	245	4
30	30	11
44	110	2
81	90	1
99	111	3
1	212	2
81	91	3
188	218	3
57	77	6
4	20	3
56	61	3
229	234	4
222	224	2
73	73	15
156	159	2
209	210	5
1	1	7
154	155	3
117	248	3
80	83	1
70	89	1
230	233	2
55	95	1
176	177	5
231	231	7
90	94	3
239	241	2
202	203	7
53	54	4
76	78	3
85	86	4
89	89	7
109	212	5
6	17	2
70	70	10
152	182	3
181	195	2
184	185	1
175	184	2
59	73	3
224	228	1
233	234	7
243	244	7
52	52	16
159	163	7
153	172	6
204	207	1
215	218	3
92	92	6
33	41	1
227	234	1
99	100	3
78	94	4
45	193	3
153	168	2
29	71	3
35	248	4
12	13	2
156	157	5
216	236	3
111	237	1
238	239	12
165	168	4
83	85	4
219	222	3
172	173	6
54	187	1
6	204	1
5	204	2
164	166	2
161	163	3
56	58	4
2	19	1
150	162	3
119	120	2
72	73	3
109	110	3
212	230	2
156	173	1
178	194	3
60	61	4
156	210	5
97	102	1
202	220	2
71	72	2
37	38	3
29	31	2
236	238	3
119	241	1
74	87	2
96	96	7
193	232	2
85	87	2
45	51	1
248	248	15
87	160	1
202	217	3
55	60	2
210	212	2
242	244	2
63	154	3
113	118	2
72	75	1
66	67	3
248	249	3
107	111	2
118	144	3
177	183	3
35	249	2
2	6	3
80	81	5
166	172	3
96	97	3
121	189	3
214	215	9
14	15	2
9	10	7
95	105	1
173	174	4
4	12	1
47	225	1
47	195	3
9	218	2
168	173	3
36	88	1
215	216	5
185	205	3
31	32	9
76	81	3
181	183	4
196	196	5
111	241	3
113	117	3
75	76	2
196	199	3
224	225	2
120	157	1
197	201	3
164	177	1
190	190	11
245	247	3
117	149	3
117	118	2
171	189	1
145	156	1
220	235	2
111	212	5
64	65	1
121	157	1
195	198	4
33	50	2
108	223	3
18	24	4
102	104	3
44	52	5
87	88	2
102	103	4
114	241	2
113	113	7
32	76	1
29	29	7
59	61	2
170	177	4
218	219	10
103	104	3
92	93	8
145	166	2
102	102	2
48	195	2
86	86	5
73	77	2
163	210	1
210	211	5
120	144	1
10	11	3
46	48	2
38	61	3
151	153	6
96	102	5
12	15	1
223	224	4
106	157	2
63	64	5
90	91	1
106	107	5
229	233	1
8	9	3
176	179	3
181	184	2
96	118	2
179	180	2
17	17	1
186	204	1
94	94	5
16	29	4
47	48	2
47	52	1
37	39	1
0	0	3
243	245	1
95	120	1
75	77	4
2	3	3
151	222	3
198	205	2
215	237	2
36	246	1
200	211	2
220	221	4
95	117	2
172	180	3
104	110	1
145	198	1
152	171	1
215	217	3
112	113	5
176	184	4
73	80	1
162	178	1
229	231	2
166	182	3
151	225	3
115	117	1
95	98	4
117	239	3
215	247	1
230	234	4
102	159	1
162	175	1
13	15	1
38	70	1
24	25	3
203	204	4
103	105	2
34	36	7
98	106	1
153	154	1
82	91	2
34	48	1
61	63	3
48	51	1
85	88	1
2	4	1
191	215	2
185	191	3
241	244	2
90	158	3
234	239	1
5	38	1
166	167	5
97	99	4
246	248	1
202	216	1
150	156	6
112	118	2
152	153	2
205	214	2
53	154	1
226	236	2
242	242	3
153	189	3
16	64	1
161	204	3
211	236	2
94	95	2
31	111	2
108	224	1
47	249	1
62	65	1
165	172	2
112	119	3
75	79	1
165	177	1
207	209	2
222	228	1
113	119	3
98	99	1
209	236	2
237	238	4
95	97	1
189	236	1
156	207	2
104	104	3
220	222	2
30	38	1
169	171	3
151	154	2
45	54	1
73	74	1
94	109	3
215	226	1
154	220	2
69	75	1
111	244	3
48	224	3
163	172	2
50	81	1
76	80	3
58	59	1
121	121	1
98	101	1
1	36	2
68	71	2
155	164	1
199	202	2
28	222	3
171	220	2
189	209	1
196	197	4
209	211	2
213	220	1
233	246	1
40	67	1
36	230	3
193	195	2
17	25	1
20	30	1
238	241	1
112	121	2
165	170	1
15	16	1
174	182	1
152	154	1
144	205	1
104	120	1
179	181	2
36	40	2
146	149	2
207	208	1
191	194	1
40	45	2
184	190	2
17	154	1
208	210	3
11	225	1
112	243	2
111	239	2
68	69	1
45	52	1
105	106	1
97	118	1
30	31	1
51	87	2
171	178	3
66	68	2
32	42	1
163	165	1
55	93	1
243	247	1
2	205	1
11	226	2
165	182	2
6	46	1
65	78	1
32	33	2
95	100	1
4	14	3
62	64	1
106	112	2
6	15	1
109	202	1
55	58	1
214	218	2
39	66	1
16	17	1
54	59	1
34	37	1
96	119	1
249	249	1
231	234	3
17	18	1
164	165	3
11	207	1
220	228	1
39	65	1
3	5	2
233	245	1
111	213	1
70	73	1
164	210	1
13	14	2
77	81	1
13	211	1
214	220	4
224	236	1
44	94	1
13	42	1
48	50	1
19	31	1
22	154	2
39	60	1
1	9	1
20	46	1
232	245	2
43	44	2
118	240	1
78	93	1
209	234	1
173	183	1
38	112	1
172	186	1
100	108	1
51	154	1
93	117	1
228	230	1
113	116	1
193	211	1
173	222	1
150	164	1
63	174	1
2	53	1
56	78	1
82	87	1
69	88	1
62	63	1
95	107	1
157	211	1
15	38	1
92	94	1
208	224	1
205	207	1
159	167	2
177	181	1
172	209	1
51	60	3
193	231	1
47	87	1
1	2	1
107	119	1
101	108	1
149	176	1
66	243	1
10	234	1
183	223	1
218	220	1
12	116	1
167	198	1
167	168	1
