40	40	9
59	106	2
71	72	4
55	55	13
63	63	12
45	45	11
97	98	5
37	37	6
20	20	5
31	34	4
68	68	14
83	88	2
55	56	3
77	78	9
73	73	16
62	62	6
53	54	1
50	50	14
67	67	4
99	99	8
45	49	6
44	44	5
83	87	6
25	25	4
26	29	2
49	89	2
66	70	1
61	65	8
25	28	3
101	101	12
43	81	4
41	41	12
94	94	9
59	60	9
48	48	15
85	85	12
47	47	4
39	39	9
71	71	13
81	85	4
33	34	2
32	32	9
57	57	1
93	94	8
53	55	4
74	105	1
27	27	4
78	90	2
37	84	1
100	101	6
46	46	10
87	87	4
105	105	18
99	100	3
91	97	5
30	41	4
84	84	16
37	38	2
38	39	11
102	103	5
62	63	6
65	65	7
48	78	3
31	31	17
104	105	6
50	90	2
79	79	6
42	42	12
54	54	11
61	62	4
47	66	2
61	61	8
58	58	5
48	49	2
72	72	2
100	100	4
89	89	5
70	70	3
41	44	1
78	94	7
94	96	5
80	81	7
42	45	3
82	82	8
33	106	2
73	75	3
80	80	7
34	34	13
25	26	4
56	56	10
51	52	6
74	74	9
69	69	3
60	60	7
88	93	1
24	24	9
36	36	3
75	76	2
76	76	5
80	97	3
41	45	2
27	29	2
27	28	2
86	93	1
102	102	16
46	71	2
31	73	3
89	90	8
86	86	5
19	19	2
22	34	6
30	55	1
35	35	6
49	83	4
82	87	1
37	39	2
84	92	2
104	104	4
22	22	5
22	50	2
83	86	3
82	83	5
69	72	1
68	70	1
86	88	1
38	38	9
35	50	2
90	91	4
81	81	7
49	82	2
43	43	4
90	90	1
51	51	11
42	43	6
92	94	6
23	23	12
85	87	2
45	80	4
33	33	6
27	48	1
63	64	4
68	69	7
60	70	2
95	96	5
79	80	3
53	76	1
47	48	3
65	69	1
40	44	4
43	86	1
92	105	1
84	85	11
66	67	2
95	95	8
47	83	4
97	97	7
48	90	1
53	53	6
61	64	2
26	26	7
75	75	10
56	70	3
70	85	6
39	61	1
62	64	2
94	98	1
66	85	2
29	30	5
30	32	4
46	80	4
30	30	6
30	85	1
35	36	1
77	77	4
86	87	5
31	76	1
96	96	4
70	104	1
98	98	7
32	44	1
40	41	2
56	58	2
26	77	3
21	21	5
43	45	4
67	68	3
50	79	2
32	77	1
50	104	1
64	64	1
30	73	2
91	95	1
46	78	1
91	91	3
42	88	1
52	52	7
43	44	1
78	96	2
94	95	3
78	78	4
88	89	3
21	30	1
83	83	2
66	66	5
93	95	1
58	59	9
92	92	4
28	28	3
106	106	5
50	78	1
34	35	1
88	88	3
26	27	1
34	58	1
87	91	2
103	103	8
64	103	1
96	99	3
20	27	1
37	104	3
32	37	2
22	40	2
88	95	1
93	93	4
59	61	1
97	99	4
47	81	1
61	70	1
28	40	2
29	29	3
50	74	1
29	44	2
20	76	2
32	46	1
31	78	3
39	101	2
36	37	2
21	22	2
34	72	1
59	59	6
59	65	1
49	80	1
23	28	1
32	33	4
45	90	1
60	71	3
77	95	1
101	102	1
83	85	2
82	86	2
31	53	1
36	92	1
32	76	1
55	75	1
65	72	1
25	29	1
96	98	1
77	81	2
60	62	1
78	79	1
51	54	1
57	58	1
55	77	2
33	41	2
49	49	2
54	78	1
38	45	1
32	34	1
32	49	1
94	100	2
92	93	1
76	77	2
24	26	1
60	61	1
25	30	2
55	57	2
87	88	3
90	104	2
82	88	1
34	44	1
91	98	1
23	39	1
48	95	1
30	78	1
55	58	1
66	73	1
29	73	1
48	66	1
20	21	1
41	42	1
78	81	1
77	90	2
21	56	1
53	56	1
92	100	1
96	97	1
53	72	2
93	96	1
43	92	1
26	40	2
22	49	2
41	93	1
62	66	1
