71	71	4
6	20	3
76	78	7
137	138	14
73	73	13
31	41	5
3	5	8
55	55	3
37	38	6
56	56	14
117	118	4
38	39	4
142	143	8
32	32	7
68	68	12
51	63	2
138	138	7
37	37	37
131	131	16
139	140	16
24	24	11
32	33	8
120	120	19
62	62	17
107	108	6
79	79	7
74	95	3
101	102	12
19	19	23
93	93	13
30	30	23
34	35	3
23	23	23
31	31	7
27	27	17
2	2	5
141	141	21
132	135	1
47	48	8
52	52	3
10	10	10
132	133	8
129	129	14
98	103	5
126	126	33
18	22	4
110	121	2
105	107	4
135	135	10
121	130	4
15	16	7
125	135	3
137	137	12
88	90	3
84	95	4
133	133	7
118	119	7
1	26	4
29	30	4
25	90	2
68	70	3
97	97	9
28	28	8
13	18	4
13	14	4
99	100	2
114	115	6
94	94	13
111	111	7
138	140	16
142	142	22
124	124	21
130	131	11
140	141	2
41	41	23
134	134	15
43	43	9
102	110	6
133	134	4
66	66	22
6	6	1
49	49	15
54	71	1
86	87	3
93	95	2
16	16	12
117	117	11
49	51	4
126	127	17
98	110	1
59	59	17
50	50	8
33	34	5
136	136	11
80	80	21
121	122	4
74	74	18
53	65	3
123	123	20
33	63	2
128	129	22
40	40	14
34	34	9
89	90	8
39	39	24
82	82	11
146	146	3
27	28	11
18	18	10
49	56	2
36	36	4
8	8	17
32	40	3
29	67	3
135	138	10
120	128	6
22	22	11
111	113	5
22	23	7
145	146	9
8	11	5
37	42	2
61	62	5
64	65	1
18	19	5
54	54	12
9	10	1
132	132	19
111	112	15
99	99	8
145	145	24
38	38	10
118	140	2
69	72	9
0	0	9
134	142	2
2	4	4
61	63	5
16	68	1
104	104	5
128	130	9
96	96	8
144	144	17
72	73	11
12	32	2
6	16	3
125	125	26
131	134	1
92	93	7
75	76	3
70	99	4
14	14	6
26	26	28
1	1	8
125	126	9
136	137	14
102	102	16
121	121	7
103	103	7
98	98	13
8	117	3
3	91	2
136	140	1
88	89	1
76	77	4
139	139	10
62	63	11
116	117	2
122	122	12
115	116	4
69	71	4
30	32	5
42	71	2
112	115	3
131	132	8
70	81	3
82	84	1
46	49	3
127	128	6
32	42	1
64	70	1
91	91	6
29	29	20
75	78	2
83	111	3
78	79	6
18	20	2
88	93	1
109	111	1
123	124	10
38	64	2
101	128	1
104	106	7
81	110	4
55	72	1
98	99	8
1	2	3
49	62	2
12	38	3
130	130	23
21	21	15
110	110	6
2	3	1
134	135	7
123	137	2
84	84	7
47	47	8
124	125	6
137	140	4
8	9	3
67	67	12
63	63	13
58	58	4
115	115	14
143	144	4
102	103	2
103	105	1
84	85	10
82	97	3
140	140	10
22	26	3
106	106	6
21	22	1
135	137	9
25	25	19
101	101	12
93	94	13
109	110	5
67	68	8
52	58	6
106	108	3
42	42	12
10	19	3
31	33	1
87	90	1
0	4	2
143	143	14
70	72	2
65	66	6
2	91	6
58	59	6
118	118	20
13	13	10
57	57	14
128	128	18
4	4	2
108	108	4
127	129	8
17	17	9
89	92	1
105	117	5
33	40	5
42	66	4
18	28	1
107	107	5
77	77	5
51	65	7
123	140	4
28	29	10
103	111	1
18	141	2
51	64	5
30	31	3
11	11	8
0	1	3
34	69	2
78	78	5
47	64	4
120	132	1
81	81	8
41	42	2
37	69	1
73	85	1
124	141	1
69	69	2
104	105	2
33	35	3
72	72	15
130	134	5
118	125	5
12	12	4
95	107	1
127	127	16
67	70	1
10	20	1
24	52	3
42	43	2
53	53	1
8	30	3
5	6	6
90	90	4
5	5	11
35	35	4
118	128	2
87	87	6
99	107	2
81	82	4
61	61	6
49	52	3
54	57	3
23	24	10
105	105	10
95	95	11
49	50	2
0	27	1
76	76	9
74	87	3
122	123	1
65	65	4
9	9	9
137	139	1
11	12	1
24	25	9
20	20	12
88	88	3
64	64	4
67	69	1
60	61	4
47	55	2
39	40	7
50	60	1
26	29	2
12	13	2
76	88	3
134	141	1
39	53	3
96	106	1
92	92	7
83	83	7
90	91	2
99	124	2
16	33	2
55	56	4
70	70	2
33	37	1
86	86	2
86	88	2
119	119	4
16	17	6
38	40	1
32	39	3
105	106	2
52	56	1
75	75	7
112	113	2
59	60	4
52	53	1
54	59	3
10	11	1
66	67	3
100	100	3
8	19	2
99	101	2
73	74	3
38	41	4
4	20	1
14	16	3
111	115	1
37	41	1
51	51	4
26	28	1
31	32	5
12	16	1
60	60	2
59	61	1
119	120	4
19	27	2
106	122	2
20	21	7
17	67	1
38	66	2
85	85	1
12	23	2
74	85	2
33	33	9
48	79	1
120	123	1
110	111	4
23	62	1
116	119	3
28	62	3
48	48	4
96	144	1
116	116	3
36	38	1
141	142	4
55	57	1
70	73	2
32	41	1
84	93	4
90	117	1
71	73	2
79	80	1
78	90	1
124	126	1
53	62	1
97	112	1
77	79	3
38	65	2
77	78	3
133	136	3
57	58	1
125	127	1
88	92	1
16	71	1
120	121	1
132	137	2
47	73	3
19	20	1
104	107	1
118	120	1
73	96	1
14	15	3
32	43	1
15	15	4
83	112	3
113	114	3
113	113	1
129	130	2
83	94	1
39	66	4
67	100	2
119	122	1
104	132	1
111	114	4
98	115	1
127	130	1
63	65	3
129	142	1
66	72	1
85	86	1
49	64	1
95	96	1
11	20	3
83	84	2
62	65	3
47	63	1
123	126	1
60	62	2
138	139	2
54	58	1
82	93	1
142	144	1
22	49	1
119	131	2
48	74	2
42	125	1
17	42	1
68	101	1
98	102	1
37	70	2
36	37	3
74	81	2
141	144	1
8	49	3
54	60	1
56	70	1
109	109	1
136	141	1
3	3	2
34	70	2
113	115	1
66	101	1
122	138	1
34	64	1
86	94	1
100	125	1
114	114	1
26	27	1
51	66	1
103	116	1
66	102	1
89	93	1
128	131	1
42	51	1
11	19	1
108	110	1
136	138	1
11	27	1
104	114	1
40	41	2
54	61	1
14	43	1
5	85	1
109	117	1
114	116	1
120	126	1
23	126	1
96	111	1
48	49	2
105	110	1
82	96	1
87	89	1
96	97	1
35	36	1
