20	25	3
234	235	11
48	85	3
183	184	6
62	62	13
154	154	13
112	112	26
213	215	5
238	239	7
114	114	14
114	115	10
63	64	4
147	147	6
204	204	17
172	187	11
93	93	3
88	88	14
214	221	4
151	151	17
78	78	5
172	173	13
56	57	6
99	99	18
81	84	2
54	54	23
248	248	12
85	85	16
246	246	13
34	35	8
187	187	19
118	199	1
25	25	8
188	188	5
52	52	13
186	186	14
32	33	6
110	111	10
197	198	7
181	181	22
245	245	19
47	47	11
221	222	6
36	44	4
89	89	14
196	197	6
28	28	11
8	8	20
23	23	9
182	182	8
30	30	10
192	192	8
170	170	12
193	193	25
174	174	19
55	59	1
243	243	15
144	145	3
162	186	3
111	245	2
55	55	14
211	211	31
203	203	3
182	183	8
209	209	28
113	113	9
101	101	6
164	164	18
205	205	16
236	237	16
44	45	6
65	65	6
180	181	15
157	159	5
109	109	13
32	32	16
46	47	5
46	101	2
158	159	4
37	38	12
119	119	15
214	215	7
52	57	3
29	29	4
202	202	10
79	79	14
3	3	8
161	161	13
68	68	19
31	32	4
2	2	20
208	208	17
29	109	2
68	69	13
247	247	20
9	9	14
244	246	2
39	39	6
236	236	15
243	244	8
214	214	33
218	219	7
238	247	5
151	152	4
111	111	12
90	90	8
15	15	15
199	199	16
162	197	5
118	118	10
210	211	11
94	95	5
16	24	6
49	50	3
41	57	3
25	26	4
44	44	12
156	156	16
5	5	22
185	198	2
175	175	11
116	116	23
214	242	4
167	167	15
66	66	10
16	20	9
78	104	4
191	191	9
211	212	6
200	200	19
114	160	4
183	183	12
157	157	10
241	241	10
245	248	1
17	17	15
231	231	12
111	112	4
96	97	10
169	169	20
87	87	12
91	91	7
232	232	10
36	36	13
183	209	4
82	83	4
7	7	6
190	190	5
73	74	4
33	35	3
33	33	10
208	209	18
67	67	21
71	72	3
8	15	3
45	45	12
182	195	1
163	164	12
234	234	11
227	230	1
31	33	7
192	194	4
86	86	13
77	79	2
153	155	1
205	208	4
27	29	1
22	40	5
58	58	5
167	184	2
18	20	1
196	196	12
204	208	2
195	196	5
234	248	4
100	100	8
193	194	6
172	172	17
241	247	1
10	10	13
163	163	16
121	121	1
108	109	4
187	188	1
96	96	16
4	4	4
184	185	15
202	204	1
176	176	8
185	197	1
75	76	4
235	236	11
221	223	2
35	35	23
157	185	4
10	14	4
107	110	2
226	227	2
222	223	5
46	46	19
70	71	7
36	40	1
120	120	9
49	49	7
150	150	36
192	193	10
51	52	5
42	42	12
78	80	3
84	156	4
186	198	2
168	168	14
43	43	7
180	180	21
92	94	4
24	25	4
213	214	5
241	242	7
171	171	18
178	179	9
98	100	6
47	50	2
215	217	8
55	57	2
93	94	5
118	208	1
203	204	6
97	97	9
244	245	3
104	106	4
52	53	6
1	1	10
108	108	17
162	162	5
193	196	6
244	244	23
48	48	13
102	102	9
182	192	1
162	189	3
56	58	3
83	85	6
14	14	9
41	52	5
206	225	1
161	230	3
207	207	20
19	20	6
160	173	5
12	12	13
235	235	8
190	192	1
165	165	11
65	84	2
36	70	2
189	189	11
41	41	12
184	184	21
173	173	14
168	171	4
169	170	7
110	110	13
211	239	3
222	224	2
240	240	9
223	223	10
21	22	12
201	203	3
89	90	4
77	77	15
74	79	1
67	100	1
153	153	20
207	227	3
203	205	3
34	34	18
215	215	9
35	69	1
99	118	2
38	38	3
217	220	3
236	247	1
59	59	15
15	17	3
229	229	6
228	230	4
115	115	12
6	6	12
208	239	3
165	166	8
155	155	11
210	210	30
237	238	6
63	63	15
247	248	12
7	8	3
112	114	2
107	109	4
26	26	4
213	213	11
164	165	8
57	57	10
56	59	1
207	208	3
152	154	3
20	20	8
159	160	4
66	67	7
178	184	1
38	39	13
194	195	4
37	37	15
187	196	3
223	224	5
11	11	5
239	239	7
69	69	10
106	107	4
237	239	2
50	50	12
160	160	13
219	219	16
158	158	8
40	40	8
237	240	1
40	44	4
53	59	1
78	79	10
171	175	1
104	104	2
110	117	2
197	200	1
175	183	1
145	147	2
4	5	9
58	60	1
198	200	4
69	71	1
232	236	2
76	76	3
152	152	16
113	114	7
177	177	18
8	9	4
16	16	7
41	43	2
111	246	2
163	186	1
96	101	3
183	208	3
81	81	2
14	19	3
91	92	13
60	61	6
20	21	5
111	233	4
212	240	1
82	108	3
238	241	3
18	30	7
178	178	15
18	31	6
62	65	6
51	51	15
56	61	2
6	24	1
93	96	1
151	154	2
170	181	1
199	204	2
60	60	8
119	120	5
45	46	1
185	185	15
70	70	7
22	52	2
53	53	5
119	121	3
21	21	14
167	168	9
67	70	1
82	88	4
77	102	2
194	194	9
30	38	3
26	32	1
230	230	7
93	235	4
222	222	9
35	152	1
25	167	3
157	158	7
242	242	10
7	16	3
147	154	3
95	98	4
23	28	3
153	154	3
107	108	2
75	75	3
245	247	2
27	27	10
236	248	1
37	53	4
54	55	5
193	195	2
219	220	2
177	180	4
115	241	1
217	217	9
80	80	4
181	182	6
29	36	2
215	221	3
47	88	2
174	177	3
49	181	4
176	186	4
206	208	2
53	56	2
226	229	9
216	216	6
170	171	6
152	153	3
146	156	1
201	201	10
61	61	4
2	3	3
86	115	5
177	179	2
17	18	6
92	93	3
227	228	4
97	98	4
237	237	4
84	85	2
111	113	4
47	157	1
241	245	2
34	36	3
109	110	2
180	182	2
20	39	3
50	53	4
205	209	1
94	94	9
233	233	7
95	96	8
166	170	4
5	8	2
56	56	3
162	163	1
172	175	2
95	95	9
174	178	2
186	193	1
231	233	3
193	197	1
174	175	5
76	77	3
121	152	2
245	246	12
71	71	3
31	31	5
147	150	3
230	232	2
87	89	4
100	101	3
64	64	6
175	176	2
118	119	5
170	180	3
25	27	1
58	61	7
216	217	1
188	189	5
238	240	4
201	204	5
224	226	6
164	166	2
54	56	2
158	160	2
176	192	1
38	40	2
173	176	3
218	218	7
1	6	2
98	98	4
33	34	4
9	12	2
117	117	7
102	105	3
72	72	3
43	45	3
160	161	5
40	42	3
179	181	2
225	225	3
62	63	2
41	58	2
229	230	6
209	237	1
191	192	1
26	41	3
227	227	15
149	150	1
206	207	4
57	58	7
147	153	1
204	206	3
166	167	4
112	117	4
64	65	1
169	207	4
206	209	3
226	230	4
195	195	5
48	82	2
197	197	6
156	158	1
99	100	2
11	14	8
51	57	1
155	156	1
231	232	5
70	113	1
109	112	1
0	229	3
40	46	2
0	0	1
47	48	4
10	11	3
184	187	2
206	206	4
84	84	9
166	166	6
211	238	1
179	179	3
98	101	1
10	33	1
159	172	1
97	99	2
24	24	3
144	144	1
19	29	3
163	165	4
199	201	4
228	228	5
16	19	1
36	78	1
30	53	1
212	212	11
31	37	1
61	62	6
240	241	2
186	187	6
145	145	5
3	4	3
71	113	1
60	62	2
179	180	1
94	107	1
159	159	7
210	213	4
73	75	2
22	153	2
73	77	1
201	228	4
42	109	4
114	116	1
40	58	1
225	226	1
236	238	2
92	92	4
226	226	6
176	177	5
48	184	3
169	182	2
83	83	1
161	162	4
223	234	3
55	56	2
11	12	4
82	82	4
88	95	3
17	22	2
201	202	4
172	188	2
170	182	2
57	59	2
57	61	2
31	36	1
209	210	2
52	54	4
95	101	2
71	74	3
26	206	2
162	191	3
201	229	1
246	247	2
105	107	3
205	206	2
163	175	3
198	199	4
241	243	2
29	30	4
230	231	1
239	249	1
42	43	1
159	184	1
224	224	7
187	198	3
26	28	1
198	198	8
23	205	1
99	112	4
200	210	2
19	22	2
26	239	1
32	55	3
208	211	5
149	149	3
80	83	4
9	15	4
186	227	3
87	108	1
51	109	2
33	109	2
18	18	5
71	77	2
160	228	3
86	109	2
81	82	2
72	73	3
73	102	1
5	6	3
95	111	2
38	41	3
76	96	2
86	87	6
184	186	5
161	190	2
160	175	1
14	101	1
190	191	1
51	181	2
218	241	1
14	198	2
9	10	2
212	231	1
32	109	2
17	34	1
20	34	2
112	233	1
99	117	2
192	244	3
175	181	1
59	60	1
109	236	2
4	6	1
92	108	3
196	198	6
53	60	2
54	57	1
168	207	1
44	46	3
242	243	5
22	44	1
74	76	1
183	207	1
26	153	1
112	113	2
61	64	3
146	146	1
99	111	2
39	40	1
104	105	1
18	39	1
20	38	1
174	186	2
220	220	3
72	80	2
26	205	2
212	213	2
78	95	3
120	144	1
28	29	3
22	22	1
40	52	1
94	112	1
43	92	2
35	36	2
5	230	1
90	91	3
174	219	1
193	198	1
217	219	3
116	117	3
10	13	1
239	240	2
181	194	1
70	75	1
215	220	2
76	79	2
12	16	1
2	7	1
238	238	4
2	4	2
85	87	3
224	225	1
53	55	3
214	220	1
185	186	9
99	101	1
182	184	1
80	81	2
64	66	1
36	37	2
36	38	3
18	37	3
212	214	2
48	50	1
41	42	2
180	189	4
117	118	5
221	225	1
233	235	1
10	145	2
67	69	2
239	246	2
97	105	2
235	245	1
18	19	1
154	155	2
236	246	3
209	247	2
43	204	2
66	78	1
166	168	1
30	31	1
6	8	1
220	222	1
218	220	2
228	229	1
4	56	1
201	230	1
36	202	1
19	19	6
223	225	4
34	46	1
55	58	1
112	116	1
220	221	2
115	117	2
177	181	1
168	169	5
166	193	2
32	226	2
36	201	1
11	15	1
183	197	1
88	89	2
211	213	1
234	246	2
21	44	2
170	186	1
205	207	1
87	88	1
242	244	1
23	44	1
45	201	1
226	228	2
208	214	2
116	120	1
162	164	2
111	244	3
79	80	3
182	197	1
106	116	2
204	205	3
179	205	1
111	241	1
23	46	1
74	74	2
13	15	1
144	152	2
22	23	1
96	108	1
111	117	2
96	98	2
42	44	1
75	77	1
41	62	1
73	73	1
107	107	2
177	186	1
91	93	1
64	237	1
48	180	1
50	107	1
177	178	1
197	215	1
15	91	1
54	58	1
58	59	1
173	174	1
208	215	1
0	1	1
227	229	1
53	54	1
243	245	1
3	27	1
158	161	1
172	174	1
100	111	1
215	247	1
101	102	3
213	218	1
209	214	2
71	112	1
74	75	1
46	107	1
23	24	1
20	22	1
201	206	1
220	223	1
150	152	1
150	151	1
36	145	2
70	78	1
221	221	3
187	190	1
155	180	1
215	219	1
51	70	1
45	84	1
80	84	1
111	240	1
167	172	1
14	16	1
50	70	1
181	193	1
103	103	1
181	195	1
182	205	1
66	90	1
30	36	1
65	66	1
46	201	1
15	29	1
18	34	1
239	247	1
45	92	1
