158	209	2
76	76	18
199	199	13
23	205	6
71	71	15
206	206	4
2	229	3
35	36	6
160	160	26
182	182	18
174	174	16
162	163	8
8	9	13
166	181	3
217	217	11
214	214	13
120	120	1
59	59	9
40	40	19
110	111	5
155	155	17
163	164	8
188	196	4
204	204	15
23	223	1
158	172	2
238	242	1
209	209	8
94	94	13
201	201	9
17	18	4
9	9	13
215	215	11
25	81	1
57	60	1
4	14	7
177	178	4
236	236	4
169	183	2
162	162	13
200	200	3
74	74	7
62	62	10
18	34	2
221	222	1
69	69	5
184	184	13
57	57	12
173	173	13
37	37	2
186	186	17
210	210	13
100	101	2
36	78	1
226	240	1
175	175	16
235	235	9
38	39	3
205	205	11
31	35	2
227	227	6
166	167	7
48	48	8
14	15	3
231	231	5
192	193	11
113	113	2
223	226	4
18	47	4
15	234	3
166	171	2
52	53	4
185	185	15
216	216	11
178	178	13
229	229	3
151	151	19
226	226	6
88	88	9
183	183	9
178	198	1
215	217	2
168	168	3
83	83	6
38	38	7
3	11	5
15	18	5
226	245	2
157	158	2
2	16	2
197	197	16
27	28	5
67	67	9
177	177	8
162	201	2
1	1	8
209	222	1
22	22	3
225	225	10
245	246	8
21	21	6
158	158	13
27	27	8
101	113	3
241	241	14
159	177	4
198	198	12
242	243	2
211	212	6
53	54	8
176	186	2
242	245	2
39	39	8
35	35	8
194	194	13
188	188	6
8	8	10
47	47	13
150	150	9
7	7	12
220	220	10
187	187	11
31	31	6
166	166	14
3	3	6
159	159	14
248	249	1
112	116	4
156	201	2
95	96	9
228	229	7
6	7	10
240	240	3
210	213	2
212	213	4
233	233	3
19	19	4
52	61	4
65	90	2
174	205	1
58	60	11
11	11	5
181	181	12
220	228	3
54	55	10
212	218	3
221	221	5
173	175	6
218	218	10
207	207	15
152	152	7
91	93	4
87	87	2
231	233	2
169	169	3
93	93	3
248	248	7
85	86	5
186	187	9
198	199	3
245	248	1
158	177	4
93	95	1
193	193	12
10	12	1
167	168	3
91	91	9
56	56	9
69	70	5
190	190	2
170	170	11
232	232	13
12	12	3
175	176	6
97	98	2
39	45	1
23	23	5
87	88	2
197	198	7
244	244	7
86	86	9
189	190	5
58	156	2
79	79	9
194	195	4
236	248	3
14	14	3
244	245	3
67	68	3
187	200	1
72	75	2
10	45	1
156	161	2
99	99	3
175	191	1
211	211	9
63	64	7
86	145	1
70	71	1
195	195	12
162	197	2
155	156	1
163	163	5
116	119	1
5	5	14
15	15	7
119	119	5
41	41	13
111	111	8
77	79	3
114	114	3
30	47	3
171	172	4
236	237	11
243	243	10
36	36	7
233	234	5
77	77	10
203	204	11
35	50	4
60	61	3
30	30	9
170	183	3
220	222	1
115	115	8
198	213	1
49	49	5
84	84	3
118	118	8
180	192	1
5	12	3
85	85	18
51	51	10
245	245	3
17	17	10
119	246	3
192	192	6
65	66	4
210	211	2
183	184	3
181	182	1
197	215	1
163	165	5
46	46	11
239	239	2
109	109	9
114	115	1
196	198	1
232	234	1
28	28	14
234	234	9
34	210	1
101	101	1
55	55	8
217	239	1
2	156	2
208	209	9
55	56	2
32	32	2
6	6	5
145	145	4
157	157	7
188	194	4
164	164	9
100	103	1
34	34	10
2	2	2
220	244	3
202	202	6
224	225	3
89	89	11
112	112	7
98	98	3
4	5	7
52	52	3
56	66	3
120	145	4
243	245	2
167	167	6
61	62	2
215	218	2
98	101	1
10	20	2
206	207	6
168	169	7
48	78	1
222	222	7
82	82	7
171	171	12
54	54	6
12	163	5
29	29	4
1	227	2
59	80	3
4	4	9
164	169	2
209	211	5
36	37	2
213	214	5
164	166	3
165	166	1
234	235	2
144	144	3
101	102	3
75	75	1
119	120	2
29	39	4
196	199	2
25	221	3
58	58	5
38	45	3
68	68	13
210	238	2
147	147	4
207	209	3
217	218	8
208	208	15
90	90	2
66	66	4
92	92	3
156	156	8
64	65	6
246	247	2
99	101	3
7	8	3
110	110	6
242	242	9
213	213	9
51	201	7
21	22	8
203	203	4
161	161	6
25	56	2
215	241	2
196	218	3
211	214	3
241	245	1
178	179	2
234	236	2
229	230	4
210	212	1
152	153	6
247	248	2
76	77	3
165	181	1
247	247	5
12	18	2
50	50	4
57	58	1
45	45	6
33	44	2
222	223	3
153	153	5
188	189	2
166	170	2
107	107	5
160	161	6
191	194	5
117	117	3
33	33	7
50	52	4
94	109	1
4	47	2
16	16	4
224	224	3
189	210	1
26	205	1
180	181	2
160	209	3
179	180	3
238	238	4
8	11	2
220	221	1
96	96	11
42	43	4
85	88	3
214	215	3
219	219	5
238	239	8
201	202	4
103	103	2
19	22	1
211	213	2
106	107	1
191	192	1
99	100	1
86	87	6
43	43	4
172	174	2
2	3	2
3	58	2
218	219	8
197	199	1
154	154	2
84	87	3
113	114	1
228	228	7
237	245	2
78	78	2
176	177	6
194	219	1
26	26	4
35	38	1
204	205	2
53	53	4
198	246	1
15	16	1
184	193	1
15	19	1
65	65	7
164	165	3
116	117	5
42	42	3
35	157	3
172	172	4
19	154	3
237	238	3
75	76	2
225	226	2
157	199	1
196	196	4
116	116	5
199	212	1
70	70	2
237	239	2
24	25	2
25	25	4
53	55	1
47	55	1
100	100	7
19	230	2
192	208	4
41	43	1
175	178	2
192	194	2
98	99	1
56	58	1
151	152	1
21	153	1
159	164	1
47	48	4
99	120	1
176	176	6
162	200	1
174	178	2
44	44	1
179	179	9
41	42	2
72	72	4
184	187	3
180	180	6
27	204	2
230	231	1
86	88	2
205	206	3
149	150	3
154	227	1
153	154	2
34	35	1
72	74	2
241	242	1
238	241	1
22	26	2
4	12	3
240	245	1
223	223	3
31	39	1
64	66	1
36	211	1
157	160	2
4	58	1
101	103	2
24	24	2
30	31	3
158	197	4
65	67	3
59	60	1
108	108	3
197	244	1
89	90	6
18	18	3
35	40	1
81	83	1
192	213	3
223	224	1
186	193	2
150	155	2
237	237	5
81	82	1
34	39	1
241	247	3
212	222	1
212	212	6
63	63	1
172	173	1
157	159	1
33	34	1
177	181	3
193	218	1
191	191	1
34	47	3
199	200	6
14	19	1
165	165	5
58	59	1
230	230	1
184	185	3
61	61	2
34	217	1
24	26	2
11	16	2
17	19	1
186	188	2
240	241	2
94	95	1
151	154	1
9	209	1
5	6	1
77	78	1
216	218	1
23	24	1
81	81	2
19	21	1
158	208	3
61	75	1
92	94	2
150	165	1
190	191	1
29	77	1
96	117	2
25	26	1
184	192	2
45	46	2
62	66	1
22	23	1
90	92	2
159	184	1
34	37	3
164	180	1
32	49	2
202	203	2
73	75	1
91	92	1
93	94	1
13	13	1
149	149	4
18	19	1
37	38	2
218	239	1
160	182	1
60	60	2
28	31	1
10	10	3
74	90	1
27	38	1
26	154	1
189	189	2
151	158	1
48	49	4
168	184	1
208	213	1
97	97	1
182	183	3
192	199	1
29	30	2
185	193	1
227	230	1
182	184	2
37	39	1
3	4	1
177	192	1
179	197	1
239	240	3
164	196	1
55	60	1
109	110	2
158	159	1
115	116	2
145	202	1
159	209	1
1	2	1
28	187	1
83	85	1
235	237	1
147	153	1
32	54	1
26	27	1
154	160	2
64	64	2
146	146	1
195	200	1
203	205	1
172	203	1
176	189	1
167	170	1
121	121	1
46	78	1
165	167	1
