18	42	4
26	27	5
58	58	5
26	26	6
6	6	8
18	18	5
123	134	4
144	144	8
67	80	1
82	96	2
119	120	5
30	30	9
53	53	7
49	49	4
99	140	1
23	24	9
100	128	2
84	84	4
139	141	3
118	119	7
51	51	5
67	68	7
63	67	1
126	126	7
37	37	12
125	125	6
109	109	7
117	117	8
140	140	9
100	100	7
40	41	2
28	28	7
94	96	3
21	21	1
130	130	12
4	9	4
136	139	1
70	70	4
1	9	3
25	25	1
79	89	2
57	58	1
23	25	3
83	85	2
62	63	3
80	81	7
131	131	13
118	118	17
135	139	3
135	141	6
139	139	3
120	120	3
16	17	1
136	137	5
105	106	5
10	11	1
83	84	1
73	79	1
143	143	6
36	61	1
122	130	3
104	112	1
140	141	3
22	22	9
20	54	1
29	29	9
19	19	10
133	133	2
48	49	2
60	60	4
135	135	3
129	129	3
137	139	2
124	125	3
28	57	1
108	108	7
42	42	2
55	55	4
28	30	5
110	110	11
71	96	2
71	71	6
102	141	3
9	23	1
123	123	6
135	136	5
70	79	1
117	122	5
122	122	5
85	96	1
94	97	2
103	103	2
1	1	4
81	82	2
47	47	6
28	29	1
52	52	2
101	101	7
53	54	8
11	11	6
36	36	7
23	23	4
136	136	5
62	62	12
119	119	2
36	62	3
55	56	2
103	122	2
80	80	5
89	89	2
103	120	3
128	128	8
80	117	3
103	104	6
134	139	1
33	35	2
66	67	3
81	81	4
94	94	3
78	78	3
79	116	2
48	48	8
141	141	4
111	111	4
127	127	4
75	75	2
68	79	1
97	97	1
13	14	1
138	139	3
64	64	4
18	27	4
33	33	4
23	35	3
59	59	2
18	19	1
38	38	5
135	140	2
124	124	3
121	121	1
137	137	5
20	20	4
20	21	1
38	64	1
2	2	2
75	76	1
104	104	3
66	66	12
81	91	3
123	141	1
27	27	4
137	138	3
41	41	4
79	94	1
24	25	3
21	22	3
83	99	1
78	79	2
102	108	1
108	109	3
133	135	3
99	99	5
81	83	1
71	72	5
12	12	1
68	68	2
54	55	3
119	128	3
82	82	2
126	143	1
66	72	1
17	17	6
56	57	2
96	96	1
63	64	3
145	145	1
93	97	1
74	79	1
142	142	3
68	71	2
71	73	1
128	129	1
16	62	1
13	13	5
8	8	2
17	18	3
5	5	4
103	113	2
93	93	1
101	102	2
4	4	2
102	102	4
88	96	1
99	100	2
106	109	2
50	50	2
24	24	3
19	29	1
18	29	3
23	39	1
42	43	1
57	57	3
128	130	3
38	39	1
40	40	2
121	122	1
14	15	3
89	90	1
8	68	1
65	65	3
99	109	1
58	60	3
125	143	1
2	4	1
83	83	3
73	73	5
127	129	4
20	29	1
134	134	6
83	90	2
126	127	1
33	36	3
65	66	2
125	131	1
134	135	5
87	96	1
115	115	1
128	144	1
74	74	2
113	113	3
91	91	2
34	34	3
16	57	1
16	16	3
16	30	1
77	80	2
67	72	1
126	130	1
84	101	1
67	67	1
58	59	2
117	118	3
133	134	2
62	74	1
15	18	1
59	60	1
115	116	1
98	108	1
34	37	1
102	105	1
136	138	1
61	61	3
127	130	1
68	70	1
54	56	1
132	134	4
6	38	1
135	138	1
31	32	2
92	93	2
125	126	1
144	145	1
86	86	2
89	92	1
93	96	1
54	54	1
131	133	1
90	120	1
120	121	1
5	6	1
123	143	1
3	4	1
70	71	2
83	93	1
31	31	2
127	133	1
75	92	1
60	63	1
87	93	1
103	117	1
132	132	1
32	33	1
35	35	1
16	32	1
39	41	1
34	49	1
79	79	1
142	144	1
100	101	1
50	52	1
77	78	1
112	114	1
10	15	1
81	93	1
