74	74	12
69	71	1
67	68	9
32	32	11
64	66	9
49	50	14
67	67	23
54	54	28
72	72	7
55	55	18
0	2	4
24	26	7
37	37	15
36	37	3
18	18	2
51	53	3
35	35	20
25	26	5
21	21	31
54	57	2
55	56	4
43	54	1
41	41	13
75	75	13
22	22	16
49	49	9
62	62	19
66	66	18
51	51	13
43	44	9
41	42	21
63	63	11
42	56	12
14	14	9
20	21	7
73	75	10
64	72	3
42	42	29
44	45	9
4	4	5
26	26	5
43	43	9
39	57	3
34	34	14
29	31	4
47	48	3
10	10	15
77	77	16
39	40	10
29	30	16
24	24	21
37	39	7
43	47	6
1	2	14
43	51	1
70	70	15
11	11	8
29	29	10
76	76	18
42	68	2
60	60	27
52	54	1
71	71	28
64	67	7
33	33	32
10	11	14
23	23	15
9	9	26
30	30	20
9	10	5
2	2	18
40	58	2
4	5	4
28	29	12
7	7	20
26	27	9
47	60	5
3	3	25
51	52	4
38	39	11
45	45	15
50	51	19
1	4	9
43	67	5
28	28	9
43	48	4
11	12	6
5	5	11
21	47	4
70	71	6
76	77	7
72	75	6
58	58	30
20	20	17
12	12	8
49	52	2
61	73	5
53	55	1
1	1	8
35	36	8
63	66	5
32	33	4
68	69	8
64	64	5
75	76	1
48	48	15
41	43	1
25	25	17
38	51	1
0	0	11
0	3	3
40	40	24
73	73	20
42	58	2
59	61	2
50	73	5
50	50	28
59	59	11
19	60	7
8	8	11
71	72	13
53	53	22
61	61	10
4	22	1
50	52	2
62	63	4
34	36	6
2	3	9
57	57	8
21	32	16
24	25	12
51	55	4
56	72	4
27	28	8
13	13	26
34	47	1
27	27	13
31	32	9
7	8	7
74	75	2
65	66	9
69	70	7
35	39	3
48	72	2
41	49	2
70	72	4
44	44	21
60	67	2
42	43	7
43	45	3
40	41	3
45	47	3
18	19	5
9	11	2
27	29	4
61	64	8
41	48	2
19	20	11
51	73	9
39	39	14
49	72	2
23	25	1
52	52	12
72	76	2
56	56	8
5	6	5
15	15	1
36	36	16
49	51	4
73	74	5
61	63	1
53	59	2
19	19	11
52	53	2
30	31	6
33	34	6
68	68	7
75	77	5
50	53	4
51	54	3
6	13	2
31	31	9
38	38	13
24	30	3
34	35	16
20	29	5
46	47	1
32	34	1
53	54	6
61	68	1
46	46	10
35	37	4
36	61	3
72	77	3
71	73	4
63	67	5
0	1	10
60	68	3
26	60	5
40	59	5
23	24	2
6	6	3
53	57	1
64	71	1
35	40	5
28	35	2
28	30	1
51	57	2
15	29	3
22	61	1
50	54	2
54	56	6
50	72	1
22	25	1
61	72	3
23	29	2
4	13	1
19	30	1
47	47	2
62	76	4
23	27	4
49	58	4
23	28	3
43	46	2
62	66	2
22	23	4
69	69	15
31	33	3
21	22	7
68	71	2
28	56	2
33	35	2
44	49	2
68	73	4
54	55	4
64	69	1
23	62	1
9	21	4
74	76	2
65	68	1
72	73	2
68	72	1
44	47	3
2	24	1
62	64	1
63	64	3
39	59	3
38	54	1
1	29	3
7	10	2
55	58	1
53	64	1
61	62	4
3	5	2
61	70	2
34	61	2
57	58	4
27	30	2
36	38	3
63	65	3
63	70	1
42	49	4
66	69	3
25	29	2
19	29	2
47	51	1
22	24	3
78	78	2
55	60	1
44	53	2
31	34	2
26	28	1
24	29	1
66	67	2
62	70	1
45	46	1
65	65	4
58	59	1
3	6	1
44	51	2
60	61	3
60	70	2
13	14	2
62	73	2
8	10	3
22	63	1
41	60	1
36	39	2
12	13	3
26	40	2
19	34	1
37	53	2
21	23	1
25	27	2
56	57	2
61	67	2
47	56	2
21	60	1
72	74	1
22	27	1
39	53	1
37	38	2
41	54	1
13	15	1
22	32	1
51	60	1
53	58	2
57	59	1
66	68	2
52	74	1
3	10	2
4	7	2
51	58	1
36	46	1
1	3	1
65	69	1
20	46	1
41	53	2
62	74	1
43	52	1
68	70	1
48	51	1
37	61	1
