25	26	9
184	184	14
135	135	6
90	96	4
180	188	1
99	100	5
27	35	3
109	109	11
154	173	2
80	81	4
147	150	1
180	181	2
108	109	1
135	136	8
125	130	1
143	145	2
100	100	4
165	165	7
105	105	10
56	56	9
42	66	3
130	140	8
0	0	12
104	104	4
156	190	4
128	128	4
85	85	10
129	129	9
188	188	2
146	146	17
11	12	2
34	34	6
31	41	2
118	118	8
17	17	7
175	175	9
46	47	3
39	39	6
58	59	8
62	62	6
95	95	11
8	10	4
37	37	13
80	86	5
178	179	5
79	102	3
84	84	11
178	178	6
83	83	13
158	158	4
7	7	7
72	72	11
80	82	2
12	12	4
36	37	8
114	116	5
157	157	8
57	95	7
19	20	4
2	2	13
182	182	8
24	25	2
82	82	9
94	94	12
19	92	5
39	40	4
48	49	5
10	17	6
55	56	3
149	149	15
148	152	1
174	174	9
32	32	7
43	44	6
130	132	5
115	117	1
149	168	6
186	187	3
43	43	6
57	87	3
156	161	6
29	45	2
61	61	3
61	63	9
184	185	6
123	123	3
60	61	2
10	11	7
77	77	14
171	171	7
187	187	8
185	185	28
152	153	11
172	173	9
5	5	5
35	35	12
158	160	1
108	110	6
107	107	8
29	29	11
15	16	5
156	156	9
59	60	2
122	122	15
60	74	2
142	143	8
56	102	1
190	190	2
70	71	7
90	154	5
11	11	7
71	83	5
169	169	4
45	45	6
35	44	5
60	60	4
86	86	7
141	141	11
143	143	3
96	96	12
144	177	2
81	81	5
175	176	2
170	170	9
48	48	12
99	99	10
110	110	4
163	189	1
93	93	11
84	86	1
138	138	11
133	133	9
149	167	1
187	188	2
153	153	11
72	82	14
36	36	3
57	57	10
71	71	2
65	67	14
10	41	2
65	65	4
75	75	6
120	132	3
136	137	6
172	178	4
123	124	6
45	47	2
59	59	10
41	41	14
149	150	6
136	173	1
42	45	1
124	124	9
151	151	6
150	155	2
77	78	10
15	25	8
33	33	6
163	166	7
181	182	5
128	129	1
164	189	3
74	74	6
1	1	4
167	167	3
78	79	9
31	31	8
125	145	3
21	21	8
155	167	3
90	90	7
150	151	9
97	147	2
92	92	3
46	62	3
156	188	2
42	43	7
144	144	8
155	156	4
172	174	1
137	137	6
70	73	3
35	36	1
185	186	4
11	19	6
40	40	7
33	34	8
13	15	6
23	23	5
122	123	6
28	29	7
151	190	3
129	130	6
181	189	2
24	24	8
57	58	2
27	30	2
20	22	1
98	100	2
115	115	3
168	171	1
41	45	3
152	152	2
127	127	13
141	143	1
25	40	2
183	186	2
4	4	12
176	176	9
69	69	3
132	132	5
179	181	2
85	87	1
83	85	2
20	20	10
134	134	7
186	186	7
30	45	1
54	54	17
89	89	8
25	27	1
20	93	3
177	177	13
123	129	3
103	103	11
3	4	2
10	10	5
138	139	4
73	98	2
18	18	14
64	64	4
67	67	9
91	95	6
58	58	8
131	131	3
101	101	4
24	48	2
54	87	3
77	101	2
129	140	2
59	64	1
76	100	6
117	118	7
79	79	3
47	47	5
111	111	2
54	103	3
30	30	1
164	164	5
0	1	3
142	142	6
112	112	3
120	120	6
14	23	2
166	166	6
55	55	3
53	53	2
160	161	3
145	145	7
176	177	1
106	108	4
108	108	9
32	67	3
144	170	1
104	109	5
170	174	4
60	92	3
64	65	6
167	172	2
113	116	1
102	103	1
141	184	3
110	113	1
73	75	3
88	88	4
31	32	3
183	183	4
144	158	4
42	42	10
165	178	2
83	96	1
165	181	1
87	88	1
134	136	4
22	48	1
126	126	4
179	179	9
22	23	1
38	38	11
30	32	8
28	28	4
57	111	3
6	40	2
85	86	3
156	157	4
4	26	4
5	12	6
31	34	2
14	14	4
148	167	2
126	147	1
46	46	12
131	132	7
155	188	1
15	43	2
45	93	7
66	66	6
3	3	5
78	78	10
162	162	5
139	139	10
87	87	3
162	173	1
12	27	2
47	62	2
27	27	4
177	180	4
144	166	3
154	156	3
91	93	1
121	121	13
48	91	1
188	189	2
166	167	4
107	108	2
168	170	2
173	173	7
179	180	1
29	30	2
162	163	2
77	104	1
171	172	3
144	165	1
132	134	1
45	46	1
155	155	2
154	161	5
19	22	2
9	12	1
72	81	4
116	117	7
4	25	3
20	21	4
155	161	2
111	112	6
71	76	1
132	139	2
154	155	9
127	147	7
171	177	3
125	125	10
115	121	2
5	10	2
154	154	6
19	21	1
126	128	1
8	8	6
167	168	4
53	81	1
7	20	2
133	134	2
17	18	1
36	87	5
90	163	2
117	121	3
148	187	2
174	175	2
26	26	2
188	190	4
182	183	1
146	171	2
121	122	2
132	133	2
106	106	2
63	64	2
136	136	4
102	102	3
70	70	2
31	71	2
48	94	3
57	110	1
76	101	4
22	22	7
15	15	8
159	159	1
6	6	4
159	161	2
125	126	2
71	75	3
139	140	2
80	92	3
77	79	1
88	89	2
14	15	2
140	140	5
168	168	4
25	25	8
19	19	7
10	15	2
150	150	2
57	84	2
132	138	2
6	15	2
133	147	1
109	110	5
22	49	1
118	145	1
72	73	1
144	185	3
36	44	1
173	184	3
141	170	3
16	16	6
6	21	2
37	46	1
31	36	1
23	28	2
172	172	7
130	130	5
33	37	1
96	119	2
73	80	2
96	97	3
98	98	3
71	73	3
97	97	2
52	56	3
126	127	5
31	38	3
144	171	3
141	144	1
76	77	1
60	75	1
163	188	1
94	95	3
146	153	1
60	82	3
163	163	1
81	99	1
152	186	1
20	25	1
143	144	2
148	150	2
26	27	1
124	132	2
4	7	2
133	140	2
117	117	4
114	114	2
83	99	1
146	147	1
175	183	1
160	160	10
119	140	2
84	85	2
4	8	2
53	103	2
86	98	1
179	189	1
102	104	2
13	24	2
183	184	1
18	28	2
59	63	3
23	33	1
67	68	3
81	82	2
148	148	4
85	121	1
180	180	1
16	17	1
62	66	1
23	24	4
79	83	1
18	23	1
88	90	1
144	157	1
149	154	1
54	56	1
164	165	1
70	72	1
82	83	1
116	141	2
10	13	2
116	116	1
26	28	1
170	184	2
82	100	2
120	130	2
63	63	2
122	124	3
58	61	1
68	68	3
53	54	2
76	76	2
83	84	2
170	176	2
181	181	1
95	96	2
131	147	1
137	138	1
109	114	2
3	20	1
0	6	1
9	9	2
83	103	1
118	120	2
109	111	4
32	33	1
119	119	1
13	26	1
26	37	1
57	85	1
19	26	3
147	147	1
37	45	1
155	171	1
93	94	1
150	190	1
64	70	1
105	108	1
13	13	1
97	98	1
64	72	1
34	35	2
53	83	1
65	66	1
146	152	1
48	62	2
57	60	2
59	61	1
41	42	1
189	190	1
