71	71	15
50	50	13
2	2	16
58	59	10
66	67	3
28	30	2
0	0	13
37	39	2
21	24	3
73	73	9
72	72	14
63	63	9
24	24	11
37	37	7
37	38	3
59	59	13
76	76	13
28	28	25
23	23	12
30	30	11
10	10	11
21	23	3
44	44	11
20	20	13
43	46	4
57	58	2
21	21	24
25	27	12
0	29	1
19	22	1
58	58	11
71	72	4
52	52	7
1	1	4
61	62	5
59	62	4
19	19	20
33	75	1
3	3	14
23	24	2
33	33	6
44	45	5
28	29	10
32	32	13
65	66	10
9	9	15
13	14	4
67	67	10
42	49	3
34	59	2
59	61	5
38	38	8
55	55	4
0	1	3
3	4	6
27	34	1
53	53	9
77	77	16
9	10	2
45	45	15
40	51	3
42	43	8
8	8	5
5	8	2
43	43	8
36	36	6
74	74	10
39	39	4
25	25	13
27	35	5
22	23	18
68	69	5
52	54	2
8	10	2
1	2	12
51	51	6
34	58	4
48	48	12
64	69	4
64	71	1
32	33	2
70	71	7
11	11	12
65	65	6
2	23	2
53	54	5
29	29	13
60	60	14
72	73	6
6	6	10
4	6	9
5	6	3
34	34	5
41	74	5
62	62	10
36	37	6
44	46	5
49	50	9
42	42	11
7	7	8
4	4	11
63	75	1
24	25	7
31	34	1
23	26	3
31	32	2
69	69	4
12	13	1
76	77	9
7	8	8
47	47	15
61	61	7
48	49	6
10	11	14
64	66	3
48	50	4
44	48	1
55	56	5
54	67	1
21	22	2
12	19	6
11	12	4
75	75	6
56	57	9
68	68	4
12	12	10
56	56	11
62	63	3
19	20	4
59	72	1
46	46	12
63	74	1
64	64	7
5	7	6
33	34	5
27	28	5
44	62	1
41	50	2
42	47	6
63	77	2
54	55	14
52	53	2
44	47	4
2	46	2
6	7	3
64	67	3
36	39	4
21	55	1
54	54	6
56	59	2
70	70	7
22	24	7
32	74	3
26	29	4
60	72	4
31	63	3
61	63	7
54	63	2
36	38	7
66	66	14
22	22	17
29	30	3
22	25	2
4	43	3
7	10	3
28	73	2
2	43	4
34	51	2
62	74	2
26	26	4
27	27	8
57	57	6
8	11	4
31	31	10
71	74	1
49	49	8
51	53	1
68	71	2
46	50	1
8	9	4
37	57	2
39	49	2
14	14	6
47	48	4
63	65	2
35	35	8
49	53	3
40	40	4
30	31	9
74	76	4
2	27	3
2	4	1
41	41	5
66	73	5
50	51	5
25	34	3
64	65	2
5	5	10
45	46	3
38	39	5
0	24	1
4	7	3
3	22	1
46	55	1
23	25	2
25	35	1
7	12	3
0	2	2
74	75	6
68	73	2
55	65	5
1	4	2
4	5	1
67	68	2
2	3	2
55	68	1
68	70	3
41	42	5
20	21	6
26	27	1
69	70	5
42	44	1
35	37	1
64	74	3
62	75	3
24	58	3
32	75	2
22	39	3
46	47	3
29	35	3
57	62	1
75	76	4
61	74	2
36	59	1
56	60	3
2	7	1
33	35	4
19	21	2
39	40	3
25	26	1
34	35	2
27	29	1
63	64	1
3	7	2
20	22	2
23	28	2
29	62	1
9	12	2
3	43	1
55	57	1
48	53	1
62	64	3
41	51	1
59	64	1
30	32	1
67	73	2
1	3	1
47	54	1
18	18	1
13	13	2
6	8	1
23	27	1
61	70	1
39	50	1
57	61	1
22	53	1
67	72	1
41	44	1
43	45	1
3	44	1
32	63	2
27	32	1
51	52	1
