130	130	9
72	74	3
64	65	8
35	35	10
32	32	9
143	143	7
55	55	12
22	22	22
17	18	5
126	126	40
19	19	20
27	128	3
93	93	12
60	89	3
41	58	4
96	96	20
63	63	6
20	20	3
116	118	2
113	113	18
65	75	2
142	142	15
53	53	15
65	65	15
105	110	8
87	88	3
35	58	2
76	76	11
122	123	4
56	57	5
121	122	3
119	120	3
138	139	7
73	73	6
126	127	6
8	27	3
67	67	4
135	135	11
88	88	15
110	110	14
52	52	14
132	132	19
100	103	3
12	13	10
75	75	2
73	92	1
105	120	4
38	59	5
105	111	4
98	98	22
8	8	27
58	59	2
37	38	3
27	27	30
141	142	9
83	83	18
133	134	12
76	77	17
72	98	1
50	50	10
24	24	11
134	135	7
97	97	8
55	57	6
124	124	15
94	94	6
118	118	16
85	85	6
55	56	5
108	108	10
144	144	20
1	1	6
61	65	5
58	60	3
3	4	5
87	89	3
141	141	50
79	80	8
108	121	4
86	86	8
6	15	7
33	33	14
103	103	12
71	74	1
85	125	7
51	51	19
31	31	15
70	70	8
113	114	2
125	133	5
18	18	20
39	39	12
105	109	1
41	41	10
40	59	1
67	72	1
71	71	24
100	100	10
133	135	4
82	83	4
49	49	13
109	110	6
2	2	4
137	138	8
118	125	1
40	62	3
58	58	11
83	85	8
105	105	4
51	52	3
132	135	2
23	61	5
140	141	11
88	91	1
23	23	9
110	112	2
111	112	6
123	123	11
133	139	2
38	38	18
116	117	7
86	90	5
92	97	2
29	29	17
41	42	2
114	115	8
134	134	15
128	128	23
63	74	3
40	40	16
9	9	7
96	97	6
125	126	4
28	28	8
57	57	3
61	61	11
136	137	11
17	39	4
37	37	13
12	80	5
20	21	8
79	82	2
91	94	3
129	137	3
145	145	13
87	87	10
99	101	3
121	123	3
127	128	2
105	112	3
85	86	2
49	73	3
31	32	4
92	92	10
6	21	2
101	102	3
124	125	7
129	129	11
3	5	4
14	14	7
0	1	4
124	127	5
131	131	22
117	135	5
136	136	22
132	133	11
101	101	19
13	38	3
5	5	2
2	3	4
42	42	22
146	146	3
77	82	2
64	97	2
17	17	19
115	115	3
90	100	3
69	69	12
136	139	8
34	34	11
93	94	3
84	127	2
133	133	18
112	112	6
27	79	1
99	99	15
60	60	12
28	76	4
139	139	6
30	30	15
106	113	2
13	35	1
36	53	3
13	13	7
2	5	3
107	123	1
93	107	7
95	95	13
77	77	4
124	141	4
106	107	3
22	23	4
16	16	6
80	115	1
91	92	6
127	127	10
2	4	5
84	84	4
47	56	6
21	21	10
114	116	1
133	140	1
117	117	6
12	12	4
61	90	3
70	71	9
76	86	1
81	81	11
53	54	5
112	117	2
125	125	3
6	11	6
78	78	4
101	103	4
23	24	4
117	118	5
4	4	5
77	78	10
26	26	13
140	140	16
8	9	7
117	125	1
128	129	8
10	10	19
62	62	4
15	15	6
64	88	3
4	5	7
39	40	7
99	128	5
25	25	13
129	130	8
52	53	1
107	118	1
126	140	2
112	113	6
35	38	1
107	108	4
48	96	8
52	67	2
80	126	3
139	140	7
93	118	1
114	114	11
70	101	4
56	59	4
62	63	4
54	81	1
119	119	8
64	91	2
14	15	2
97	98	4
90	101	1
47	48	5
122	122	12
30	82	1
12	16	2
120	121	5
5	6	4
16	144	1
107	107	6
2	20	5
111	111	5
0	2	2
57	59	3
115	128	5
8	36	2
84	126	2
114	137	1
117	124	1
130	131	4
83	84	2
128	141	2
25	26	1
110	135	4
60	82	2
59	61	2
119	141	1
25	36	1
24	37	4
87	107	1
53	56	3
88	110	1
5	31	1
72	72	3
9	30	5
97	118	3
39	41	3
130	138	4
135	140	1
104	104	4
83	126	2
117	139	1
13	14	4
30	61	3
108	109	5
36	36	7
55	81	2
49	52	1
116	116	4
87	113	4
88	93	7
3	3	8
106	106	8
113	116	1
118	119	6
88	111	3
74	74	5
57	62	2
74	75	2
8	26	4
121	121	2
76	78	1
90	90	4
131	135	4
66	71	2
94	95	4
63	76	1
32	33	5
89	89	4
119	129	3
63	75	3
11	144	2
72	101	2
9	10	3
104	136	1
109	109	12
65	66	2
120	120	6
66	77	2
89	100	1
91	91	3
93	105	1
142	143	3
0	11	1
84	85	2
47	47	3
90	117	4
0	0	5
29	30	2
54	54	4
33	116	5
75	124	1
126	130	1
11	11	1
63	86	1
13	15	1
23	39	2
16	41	1
88	89	3
64	64	6
6	17	3
6	6	8
131	141	1
6	32	1
10	11	2
71	73	2
100	101	2
82	89	1
55	60	2
30	31	1
19	23	4
50	58	1
72	118	8
41	59	1
103	135	2
2	43	2
132	143	4
1	6	1
125	134	3
72	73	2
69	70	2
1	10	2
13	23	1
92	93	2
92	96	2
28	59	5
137	137	4
59	60	2
111	136	3
74	84	3
77	86	4
107	132	1
113	119	1
82	82	3
80	80	2
124	134	1
68	68	2
36	37	3
66	96	2
10	144	3
9	41	2
73	97	3
66	66	4
33	34	3
49	50	1
83	104	1
108	118	4
32	36	4
35	36	6
88	90	2
52	64	1
66	99	1
54	66	1
111	139	2
21	22	2
48	48	7
64	73	3
118	124	5
32	42	2
110	117	1
52	54	4
89	101	1
76	82	2
48	56	2
66	67	1
48	76	1
105	106	2
81	86	1
102	103	3
86	111	1
138	138	4
63	64	4
94	105	1
84	110	3
131	132	2
87	90	2
52	57	1
128	130	3
14	24	1
73	74	3
137	140	1
72	100	1
116	130	1
132	137	3
34	36	4
129	132	3
53	59	1
96	98	4
57	58	1
132	134	1
117	142	1
77	95	1
137	139	1
81	82	1
78	86	2
14	19	2
30	63	2
50	68	2
102	102	3
5	20	1
53	61	1
144	145	1
67	68	3
107	117	2
26	27	2
118	141	1
53	57	1
125	141	2
103	105	1
68	70	1
16	19	1
135	139	1
125	129	1
50	51	2
107	122	1
50	61	2
89	90	1
109	125	1
80	116	1
135	138	1
110	113	1
120	122	1
40	41	2
23	103	2
63	65	1
133	143	2
93	97	1
118	129	1
108	132	1
89	111	2
75	78	1
80	81	4
17	129	2
61	62	1
1	2	1
23	38	1
124	128	2
120	141	1
54	55	1
113	120	2
125	140	1
41	81	1
96	123	2
19	36	1
24	32	1
55	61	1
11	20	1
24	33	1
98	118	1
79	79	1
25	38	1
83	106	1
117	131	1
34	35	1
86	121	1
37	116	1
38	82	1
123	141	1
38	39	1
