47	47	18
70	70	11
116	128	4
24	26	5
25	26	2
16	17	5
98	98	7
125	125	9
20	20	9
17	17	9
107	108	2
131	131	6
103	103	3
14	14	5
97	97	17
86	86	3
82	92	3
115	115	5
94	94	5
27	28	7
122	122	6
105	105	7
123	124	2
25	25	9
43	84	1
62	62	10
84	84	5
95	95	10
68	71	1
129	134	3
23	24	2
81	83	10
123	123	3
27	27	8
9	9	6
70	71	9
121	121	2
61	72	2
29	29	4
83	85	3
42	81	1
34	35	3
106	106	11
34	34	9
93	93	8
18	18	3
114	115	3
77	77	8
46	46	25
129	131	4
21	112	3
32	85	4
69	70	2
126	126	3
87	88	14
109	109	8
46	47	5
118	119	2
32	33	3
30	31	6
82	83	3
60	60	5
113	115	5
92	132	2
36	64	1
99	100	3
11	93	3
27	29	6
37	40	3
11	88	3
95	99	2
74	116	3
81	81	11
23	23	3
85	88	2
108	110	1
83	83	13
92	121	9
65	65	6
32	32	7
107	107	4
33	37	1
76	76	15
106	107	2
102	102	7
73	133	1
55	55	4
72	72	7
43	43	5
11	13	4
97	99	1
12	12	14
44	44	11
8	8	3
24	24	5
33	43	1
15	15	13
35	74	1
88	97	1
79	79	13
73	74	6
41	41	3
65	66	4
114	128	3
47	48	1
26	27	11
27	32	4
68	70	6
7	84	3
40	42	1
14	23	2
107	109	8
128	129	3
78	78	12
49	50	1
83	120	1
38	38	4
130	131	5
94	98	3
66	66	14
89	89	5
8	9	10
108	108	15
48	48	5
82	82	11
124	124	6
80	80	3
26	26	3
96	101	1
94	95	7
7	92	1
83	92	1
89	123	3
90	90	7
25	79	1
73	73	7
7	99	4
7	58	1
33	33	5
5	6	2
42	45	2
37	37	9
6	88	1
88	88	2
20	62	1
132	132	4
2	4	2
35	35	8
28	28	4
42	43	2
85	87	1
64	64	9
27	97	1
96	96	5
74	130	2
21	21	17
29	62	1
45	45	13
110	110	6
81	128	1
57	57	7
78	79	3
46	62	2
118	120	1
112	112	9
91	91	3
45	47	3
85	85	5
2	2	5
76	77	3
100	100	8
6	58	5
79	82	2
3	3	9
66	87	1
11	12	5
26	29	2
66	83	1
35	36	6
117	130	3
101	102	1
63	63	6
40	40	4
10	10	4
61	61	7
7	9	1
85	86	4
24	25	2
122	129	2
80	118	3
6	56	4
116	116	3
44	45	2
98	99	1
92	92	5
114	114	2
15	17	3
7	7	4
14	18	3
77	78	2
31	31	6
130	134	2
99	101	1
104	104	3
101	111	1
5	5	7
122	125	1
74	74	3
103	107	3
82	90	1
4	4	2
82	84	4
60	61	2
114	116	2
27	49	2
28	80	1
33	35	4
26	93	1
101	110	4
126	128	2
30	30	2
83	114	1
19	100	1
31	82	1
13	13	5
3	101	1
124	125	1
83	122	2
16	21	5
35	78	1
84	120	1
97	101	6
19	19	9
117	117	2
19	20	3
7	95	4
12	16	1
119	119	1
68	69	2
56	56	1
95	96	4
33	34	2
84	85	4
57	58	3
39	56	1
71	73	2
130	130	2
89	90	4
111	111	9
14	15	5
50	50	2
133	133	3
105	106	1
108	109	2
51	51	1
101	101	2
90	127	1
10	46	4
39	39	2
71	71	2
126	127	2
22	27	3
81	84	1
36	37	2
10	14	4
119	120	1
127	127	6
58	58	4
82	114	1
4	45	3
109	110	2
10	83	3
23	26	2
23	25	2
36	36	2
88	89	2
44	60	6
66	68	1
97	98	5
131	132	2
82	117	1
35	75	1
39	55	4
60	62	2
66	67	2
27	48	1
117	127	1
31	32	5
67	68	3
99	99	6
93	94	9
130	132	1
116	117	1
10	84	1
6	8	3
20	21	3
96	97	2
115	116	4
112	114	4
128	128	2
120	120	3
112	113	1
8	83	2
68	68	1
61	74	2
14	46	1
104	106	1
45	77	1
11	14	1
94	97	1
12	13	3
86	92	1
56	57	1
93	99	2
62	67	2
21	62	1
134	134	3
10	60	1
131	133	1
36	63	1
26	77	1
12	46	1
11	11	5
25	93	1
8	19	2
90	99	1
71	76	1
89	98	1
100	114	1
18	31	1
90	134	2
75	75	1
22	22	1
124	129	1
3	47	1
43	57	1
79	81	1
59	61	3
27	91	1
87	123	2
8	84	1
6	99	1
26	80	1
64	70	1
11	80	2
86	87	1
84	121	1
39	40	5
116	131	2
5	8	1
40	41	1
8	13	1
92	93	2
79	116	1
45	101	1
100	113	2
4	6	1
32	40	1
81	127	1
27	47	1
21	42	3
9	47	2
81	120	1
3	27	1
104	105	1
24	82	2
47	123	1
48	78	1
43	45	1
76	78	1
82	116	1
6	6	1
37	71	1
7	75	1
129	129	2
86	88	1
111	113	1
89	134	1
120	122	1
3	7	1
101	112	1
120	121	1
129	130	1
62	63	1
10	12	1
