10	11	2
40	40	4
73	118	2
100	109	4
31	31	10
136	137	2
8	8	10
123	136	2
144	144	4
120	120	11
12	13	3
148	148	5
87	87	2
17	19	2
69	70	7
17	18	3
17	21	5
4	6	2
70	134	5
21	21	7
133	133	3
34	36	2
48	80	2
115	122	2
3	7	1
33	150	1
153	153	6
54	54	4
83	83	1
97	98	2
61	87	2
145	146	1
54	55	1
131	149	3
15	15	5
124	144	2
22	22	7
83	84	2
62	62	5
57	57	5
65	87	3
142	143	2
85	85	3
125	128	3
106	108	2
50	50	2
151	151	7
118	118	4
123	126	3
53	82	2
64	65	1
121	122	2
5	5	3
112	112	2
150	150	6
135	135	4
67	67	4
70	70	6
8	9	5
19	25	2
129	142	2
69	69	6
120	121	1
144	146	5
99	100	4
131	131	13
66	67	2
123	125	1
43	43	6
82	87	1
36	36	7
68	69	1
140	140	2
40	57	1
94	96	1
77	79	5
109	110	3
28	29	2
84	84	5
76	78	2
4	4	5
21	22	5
88	113	2
32	32	13
122	122	5
127	132	1
56	56	2
34	37	1
144	145	4
3	3	9
13	13	15
129	130	1
153	154	1
19	19	1
27	28	5
11	13	4
50	70	2
26	28	1
37	135	3
11	12	2
93	99	1
64	64	3
150	151	2
119	128	4
67	73	3
10	19	1
29	29	2
52	52	1
115	115	6
45	45	7
46	46	3
25	27	2
20	20	5
147	148	5
80	82	3
35	35	6
55	56	1
74	79	2
14	14	4
115	117	1
39	39	6
77	78	5
102	107	1
49	49	2
82	84	1
152	153	3
22	23	3
56	80	3
20	21	1
39	51	3
139	139	5
80	83	2
142	142	3
54	80	2
82	82	2
79	85	1
74	95	1
154	154	2
96	97	3
57	140	1
108	114	4
65	67	1
63	63	4
48	153	3
49	150	1
52	58	1
33	33	2
38	56	1
119	122	1
29	30	5
31	34	3
93	94	2
78	79	2
44	44	8
37	37	3
95	97	1
80	84	1
95	99	3
4	7	1
125	137	2
99	99	3
34	35	4
12	12	3
55	55	1
13	14	1
110	110	3
53	53	4
25	25	2
100	100	3
129	129	6
122	124	2
82	83	1
76	77	2
23	23	3
93	97	4
9	22	1
32	151	1
10	36	1
34	34	3
147	147	2
78	78	5
146	146	2
70	71	2
90	91	5
111	111	2
18	18	3
72	72	6
12	65	2
61	139	1
128	128	3
65	65	4
4	29	1
58	145	1
78	80	3
75	94	1
27	27	6
14	15	2
130	130	1
64	86	1
97	97	2
49	53	1
103	103	1
80	80	1
4	5	3
82	85	2
74	77	2
138	138	2
77	97	1
91	92	1
45	46	1
101	102	2
136	136	1
107	118	1
66	66	1
115	116	4
127	128	1
65	66	1
11	11	1
17	17	1
105	105	2
4	12	1
124	124	2
76	123	1
28	28	1
8	15	2
122	136	2
112	113	1
64	127	1
71	71	3
31	32	1
144	154	2
143	146	2
95	95	2
7	7	1
6	6	2
24	24	5
58	81	1
125	136	2
123	137	2
3	5	1
86	87	3
58	58	1
63	65	2
96	96	4
77	131	1
62	64	2
110	111	1
77	77	1
41	47	1
2	3	2
9	9	1
48	48	3
98	99	1
21	25	3
75	77	1
32	33	2
94	94	1
49	50	1
65	114	1
68	68	4
94	95	1
78	97	1
79	79	1
78	86	2
81	81	1
116	116	3
64	68	1
117	117	1
131	143	1
76	76	3
73	73	2
90	113	1
141	141	1
11	14	1
86	88	1
41	41	2
74	78	1
106	107	2
79	83	4
76	124	2
138	146	2
27	29	1
100	101	3
38	38	1
81	82	1
109	111	1
106	106	1
45	55	2
125	125	1
25	26	1
75	87	1
93	93	3
74	99	1
86	86	1
113	113	1
2	13	2
47	53	1
146	148	1
107	107	1
9	40	1
2	2	1
87	90	1
5	6	1
18	19	1
74	129	2
43	148	1
47	47	1
95	100	1
69	71	1
63	75	1
90	90	1
74	74	1
62	85	1
20	23	1
71	72	1
104	104	1
87	94	1
125	126	1
30	30	1
75	126	1
