43	43	5
8	8	3
8	102	2
115	148	4
25	25	1
91	95	3
6	6	7
119	122	5
52	52	4
35	35	6
78	79	2
19	19	3
42	42	2
166	166	4
130	130	2
108	109	4
45	45	4
101	116	2
35	111	2
45	46	1
102	102	2
121	121	4
68	68	7
160	160	1
143	143	3
46	46	8
85	85	2
137	147	1
87	87	4
19	22	2
128	129	1
14	14	2
64	64	3
88	90	5
143	148	1
125	125	2
16	46	3
162	162	3
34	34	1
16	28	1
4	4	10
96	96	2
138	138	4
145	145	1
18	18	5
5	5	5
11	12	1
159	160	3
133	133	1
37	38	2
111	111	5
63	63	6
153	153	1
120	120	6
126	126	5
124	124	5
39	118	1
141	141	3
16	17	2
47	47	3
144	145	1
139	139	3
57	57	4
71	127	1
2	2	3
5	75	1
17	17	2
27	27	3
90	114	2
22	23	2
167	167	1
155	155	2
105	106	4
125	126	2
23	23	2
71	71	1
152	152	5
140	141	2
94	94	3
110	110	1
41	41	1
115	122	2
96	123	2
54	54	1
24	24	1
20	21	1
146	147	2
26	26	7
70	76	1
144	144	1
117	117	1
111	112	1
50	50	3
40	40	4
77	77	4
7	34	2
136	136	1
1	1	2
107	107	2
115	115	3
159	159	3
163	163	1
146	146	2
42	64	2
147	147	3
22	22	4
141	142	4
90	90	5
112	112	2
114	163	1
9	9	2
113	114	1
114	114	7
153	163	1
108	128	1
66	68	2
62	62	5
51	81	1
18	19	2
165	165	1
54	77	5
22	80	2
147	148	2
81	81	2
91	91	6
86	88	1
121	122	1
101	101	2
76	76	1
121	146	1
122	159	2
108	108	2
89	89	2
98	99	2
62	87	1
7	7	1
92	92	4
150	150	1
34	35	1
38	133	2
88	88	1
78	78	2
69	87	3
169	169	1
105	151	1
53	53	2
48	48	3
134	135	1
70	86	3
168	168	2
72	123	1
5	74	1
99	99	2
112	114	1
39	52	2
81	83	1
66	66	1
101	103	2
57	62	1
3	3	1
118	119	1
122	122	2
109	109	2
102	119	1
64	70	1
36	36	2
66	67	1
129	129	1
45	80	3
38	38	2
121	125	2
68	120	1
102	103	1
11	11	1
69	70	1
13	13	1
83	84	1
56	56	1
1	2	2
70	160	1
39	40	2
68	70	1
39	39	1
98	98	1
75	75	1
99	115	1
96	125	1
101	102	1
11	135	1
136	142	1
3	45	1
40	134	1
25	56	1
71	88	1
44	45	1
0	1	1
