19	19	23
134	140	6
37	38	2
11	11	5
128	129	17
117	117	25
75	75	18
123	123	54
106	106	13
114	114	20
91	112	2
138	138	33
125	126	10
18	18	20
128	128	36
136	136	23
34	35	6
78	78	3
129	135	1
134	135	14
99	99	16
87	120	3
19	31	5
91	91	32
86	86	12
4	4	12
94	94	13
133	133	37
113	117	3
134	134	43
0	27	3
111	111	15
76	79	2
135	136	15
140	140	12
26	27	5
88	89	3
21	38	1
116	117	8
36	36	28
115	115	23
3	4	13
3	10	1
131	131	24
121	123	7
118	118	22
106	107	4
81	116	5
76	77	6
104	105	10
88	95	2
122	123	9
129	129	44
28	28	13
88	100	1
103	103	16
124	124	35
121	121	15
91	92	13
139	139	28
34	34	19
6	6	21
27	37	1
35	35	35
116	116	25
89	93	1
100	100	21
132	132	32
4	5	18
4	13	1
7	22	3
5	5	24
4	7	1
126	126	53
16	16	20
138	139	11
80	81	3
7	23	9
93	94	8
22	26	2
94	113	1
139	140	7
127	128	15
95	95	4
22	23	9
129	136	2
98	98	17
89	89	12
93	116	4
125	125	32
90	91	13
74	74	26
97	97	15
26	80	1
89	90	3
137	137	14
71	72	2
10	11	6
132	133	18
0	0	6
120	121	8
116	118	3
37	37	25
31	38	1
33	33	13
133	134	12
27	29	2
130	130	32
107	111	2
6	15	3
71	71	3
17	18	4
107	115	4
120	120	16
102	102	15
19	20	8
114	115	9
135	135	29
130	138	2
98	99	12
21	21	19
105	105	9
124	130	5
18	19	8
103	104	4
81	85	3
119	120	4
127	127	30
130	131	9
8	14	2
79	91	1
25	25	3
75	76	3
17	17	21
113	113	12
111	124	4
13	17	7
122	122	25
72	74	4
93	93	13
88	88	13
23	24	4
33	34	4
35	38	2
127	135	1
21	26	1
14	29	1
94	110	2
13	14	2
24	24	3
101	102	10
23	23	8
73	74	10
101	101	26
85	85	11
82	82	12
90	90	17
81	82	12
36	132	1
109	109	16
1	29	1
129	138	2
9	11	5
30	31	5
108	109	9
131	132	8
92	116	3
87	87	10
118	119	4
111	112	5
84	85	7
31	32	3
116	123	6
115	122	4
22	32	2
105	106	19
20	20	25
0	1	3
81	81	18
7	9	4
96	96	11
3	9	3
12	13	6
88	116	9
80	80	10
2	2	13
97	98	10
127	132	1
20	38	2
101	115	7
14	14	12
79	79	5
117	118	6
124	128	3
101	105	4
102	104	6
72	72	8
96	127	4
113	114	2
35	37	3
14	26	2
27	28	7
1	2	8
73	73	7
13	13	8
72	73	9
110	110	12
32	32	14
94	128	2
78	79	4
92	115	4
3	3	10
8	8	7
8	10	6
30	30	7
112	112	33
73	84	4
107	107	10
132	137	3
9	9	18
76	80	2
115	116	9
84	117	1
76	76	7
104	109	3
18	20	5
110	111	6
2	21	3
28	29	4
108	108	5
81	115	2
112	113	4
129	130	6
74	75	9
103	105	1
103	123	6
138	140	7
94	114	3
103	117	1
26	31	2
73	78	12
5	6	4
15	15	11
17	20	4
0	2	3
7	10	3
109	113	2
20	21	2
83	86	2
1	1	9
10	13	2
6	21	2
31	31	2
81	83	3
106	119	2
7	21	2
36	37	9
83	83	4
136	137	7
21	36	1
92	92	9
104	112	2
29	29	10
112	126	3
72	81	4
73	108	1
106	109	4
84	118	1
95	116	2
73	115	1
25	80	2
106	110	3
7	7	8
74	114	2
22	22	16
111	113	3
77	106	3
96	126	2
26	32	1
100	105	3
111	114	2
95	96	6
124	125	8
9	10	5
125	139	1
22	38	2
110	129	3
25	26	3
79	105	3
90	111	3
34	36	1
130	136	3
81	84	1
94	95	5
104	106	8
80	106	3
124	129	4
10	12	2
1	5	1
12	12	4
113	116	1
100	124	2
94	115	3
102	103	6
131	139	3
38	38	6
124	132	2
126	127	5
10	10	5
73	79	2
15	17	3
24	25	3
8	24	3
8	21	1
107	108	2
136	138	1
123	125	4
132	134	2
4	16	1
77	77	5
82	83	1
6	7	7
101	106	1
7	12	1
79	80	3
140	141	3
26	28	2
93	100	2
89	91	4
72	105	1
6	24	2
75	80	1
28	38	1
35	36	1
120	122	1
6	14	1
16	17	5
17	19	4
92	94	4
20	36	4
85	86	2
27	27	5
19	21	1
125	127	2
34	131	2
7	8	2
135	138	3
15	19	6
104	117	2
89	98	3
25	68	1
84	87	2
14	15	2
4	15	3
76	85	2
29	30	2
109	122	3
121	122	4
7	14	3
117	119	1
132	135	2
87	88	6
123	124	1
93	101	5
32	37	1
28	32	3
125	129	1
21	22	3
8	11	1
83	84	1
104	119	1
119	119	3
27	32	2
109	110	2
75	88	1
130	139	1
30	32	1
104	104	3
88	119	2
129	134	2
82	85	1
129	132	1
8	9	1
109	112	3
127	134	1
33	35	1
103	118	1
105	109	1
29	32	1
75	140	1
100	107	1
32	38	2
23	26	1
2	19	2
4	12	2
23	25	2
12	23	2
120	123	1
99	100	2
92	108	2
86	117	1
73	82	1
126	138	1
77	79	1
73	85	1
102	105	1
24	26	1
96	100	2
94	116	2
69	69	1
115	123	1
14	22	2
108	111	3
74	81	1
128	133	1
83	85	1
100	101	1
73	80	1
28	31	1
74	76	3
26	26	1
118	120	1
79	100	1
22	27	2
18	22	1
76	111	1
114	118	1
92	93	1
87	119	1
