98	100	3
26	36	2
155	155	5
27	28	1
133	136	1
94	95	7
87	167	2
100	100	12
176	177	3
148	150	5
149	149	4
133	133	9
11	16	2
0	136	3
156	157	8
116	119	3
142	142	2
76	101	1
180	181	3
58	152	1
151	151	3
124	140	1
27	36	2
77	77	4
109	109	2
57	57	1
85	85	7
186	186	2
131	131	2
99	99	7
12	47	1
154	154	9
14	22	3
16	16	6
114	115	9
157	162	2
67	67	4
40	40	7
22	23	2
108	108	11
29	29	2
138	139	5
122	122	8
177	178	2
111	155	1
33	33	13
16	18	3
166	188	6
11	11	7
137	144	2
92	92	2
75	75	7
107	108	3
18	109	2
170	170	6
104	104	9
82	133	1
84	85	8
118	118	4
5	10	5
185	187	3
187	188	9
138	138	3
60	122	1
137	139	4
12	12	5
2	8	6
93	93	8
67	70	6
165	165	5
84	84	7
156	184	3
123	123	5
89	138	1
71	73	1
111	111	6
113	113	10
84	86	2
132	132	3
179	180	4
73	82	2
146	168	3
151	177	1
1	4	2
106	161	8
82	82	2
38	39	4
34	35	2
130	131	6
136	136	2
179	182	3
20	20	6
13	15	10
134	145	2
146	146	9
85	104	1
74	74	4
5	6	5
88	88	4
78	78	4
94	94	9
43	44	3
132	134	9
112	113	2
145	185	6
14	107	2
166	167	3
81	82	3
136	137	1
155	156	4
32	32	8
121	121	6
38	38	5
54	57	3
87	87	2
71	71	2
98	98	18
142	156	1
146	156	4
36	37	2
182	182	3
118	186	1
28	31	2
62	65	3
36	36	10
134	135	4
9	9	1
91	92	3
16	17	2
97	98	1
27	27	7
175	176	4
14	14	2
70	116	1
115	117	3
96	100	8
142	143	2
166	182	3
125	128	1
148	148	4
25	25	6
31	36	1
166	169	1
120	120	3
73	73	4
44	44	8
56	56	4
90	90	3
53	53	5
120	123	2
37	37	8
42	42	1
116	116	1
66	124	2
61	63	1
43	43	2
61	61	2
61	77	5
29	30	1
46	47	4
147	188	2
80	80	3
161	161	4
37	174	2
125	125	8
137	137	2
188	188	10
23	24	2
157	167	1
126	126	7
86	86	6
114	116	2
137	143	2
111	154	2
27	37	2
65	65	3
184	184	10
88	138	1
129	129	6
89	91	1
39	39	7
143	172	1
45	45	1
19	19	5
103	103	5
174	174	8
96	97	5
23	23	4
180	190	1
18	20	2
75	101	2
77	78	2
178	179	1
173	173	6
165	167	1
78	88	2
183	187	1
159	174	1
127	127	5
171	173	3
48	48	4
163	163	4
163	165	1
58	67	1
18	18	2
31	31	2
46	46	7
37	48	1
139	161	2
183	183	1
73	83	1
135	151	1
28	29	3
133	151	2
63	63	9
175	175	3
76	76	3
141	168	1
117	125	4
117	119	1
33	34	2
99	116	5
4	4	3
128	187	3
117	117	3
30	44	2
68	124	1
97	100	2
150	155	1
134	134	4
76	130	2
64	67	4
125	126	1
128	128	2
128	133	1
66	67	5
135	136	5
10	10	3
113	114	1
97	99	4
1	120	1
131	133	1
6	7	2
1	1	1
128	129	4
17	17	2
105	109	1
149	181	1
145	184	3
169	170	1
86	178	2
157	186	2
55	82	2
167	168	1
31	34	2
102	102	1
114	114	3
172	172	4
1	77	1
78	121	3
65	66	3
144	144	2
110	110	2
169	169	7
119	129	2
171	171	6
151	179	1
8	8	1
96	96	4
60	120	1
77	89	1
152	175	2
30	30	5
150	150	4
180	180	4
36	180	3
59	59	3
75	102	2
66	66	3
63	68	4
106	106	4
54	54	3
58	126	2
61	62	2
53	55	1
35	35	3
161	164	1
26	44	2
83	83	5
146	184	1
121	122	2
122	148	4
110	115	2
10	15	1
74	75	2
26	38	1
177	179	2
100	102	2
164	164	1
87	189	4
144	161	2
11	107	2
85	124	2
149	150	2
2	2	1
91	91	1
28	28	2
181	187	1
150	176	1
62	63	2
64	111	3
151	152	1
19	67	2
54	55	1
146	147	1
150	154	2
41	41	3
54	61	4
179	179	2
170	171	1
146	185	1
42	44	2
137	173	1
26	26	3
147	165	2
15	16	1
19	20	2
99	117	2
106	107	1
152	152	1
180	182	2
78	79	2
112	112	4
18	56	1
135	139	1
119	119	2
34	34	1
141	141	3
33	37	2
110	111	1
188	189	2
111	112	1
60	64	1
108	112	2
140	156	1
138	144	1
73	74	1
69	70	2
33	80	1
160	163	1
90	139	4
32	162	1
110	113	4
18	65	4
178	178	2
153	153	3
79	118	3
27	35	1
23	32	1
29	130	2
23	42	1
40	90	1
76	175	3
0	161	2
185	185	1
87	177	2
87	120	2
129	186	2
134	137	1
161	165	3
82	83	2
20	21	1
162	162	2
151	163	1
147	147	1
131	149	1
173	175	1
9	10	1
68	68	2
13	14	1
3	7	1
84	87	2
91	102	1
176	185	2
87	102	2
15	15	4
96	98	3
177	177	4
107	107	3
13	13	1
138	140	1
47	88	1
136	145	1
73	75	1
166	166	2
133	150	1
127	128	2
22	64	1
18	64	7
104	105	1
28	151	1
101	101	1
143	143	1
82	118	1
11	15	2
7	8	2
132	133	3
78	80	1
68	175	1
111	115	1
8	57	1
14	23	1
169	187	1
103	104	1
6	6	1
125	127	2
181	181	2
115	115	2
8	53	1
79	79	1
91	138	1
87	103	1
13	65	1
3	104	1
30	31	1
139	139	1
187	187	1
176	176	2
149	182	1
164	165	1
44	47	1
2	47	1
128	138	1
103	170	1
8	108	2
57	58	1
5	56	1
139	160	1
159	159	2
130	144	1
13	108	1
136	141	1
16	49	1
59	62	3
134	136	1
53	57	1
17	82	1
109	163	1
130	130	1
142	189	1
101	102	1
89	89	3
108	165	1
185	186	1
5	5	1
72	73	1
96	137	1
102	103	1
