89	89	9
2	2	12
58	59	2
140	140	10
36	36	4
75	105	7
80	80	8
111	139	1
9	13	1
91	91	14
133	133	6
65	66	3
123	123	11
141	142	4
64	65	4
115	124	6
136	139	3
108	108	2
35	35	4
13	14	5
130	130	2
12	12	5
115	117	1
132	135	5
132	132	3
142	142	4
96	107	1
12	23	1
142	143	2
146	146	1
49	49	11
50	52	7
68	68	11
67	67	8
20	20	4
32	57	1
63	63	6
0	0	6
134	136	3
10	10	9
84	88	7
56	56	7
54	54	3
118	118	7
102	103	5
39	39	7
75	75	16
34	34	7
124	125	4
107	107	5
121	124	3
110	110	5
116	116	11
141	141	5
126	129	4
87	88	2
114	115	4
34	35	7
29	32	1
79	80	3
39	41	5
77	78	3
57	58	2
70	70	6
100	102	3
136	136	6
122	123	5
38	38	7
18	19	3
101	101	10
85	86	3
144	144	6
8	80	4
2	9	4
13	30	4
3	4	4
83	85	3
110	111	3
97	127	2
135	135	2
134	134	10
17	17	3
104	104	5
126	128	3
25	122	1
6	27	1
103	103	3
42	42	1
55	55	3
95	128	6
101	102	4
8	9	4
117	125	2
23	24	5
9	109	2
82	82	6
21	27	3
24	25	5
138	139	8
8	8	7
93	94	8
10	23	3
95	100	2
64	64	1
26	122	2
124	128	1
138	138	5
112	114	1
132	133	5
16	48	2
104	105	1
14	14	4
92	111	2
85	85	2
66	66	1
128	128	6
105	106	5
0	4	1
41	42	5
99	99	2
61	61	3
113	114	1
40	40	5
131	131	11
57	61	2
30	32	5
31	31	9
26	68	3
62	69	6
27	27	7
87	87	4
94	94	3
143	143	3
122	122	3
53	88	3
57	57	3
11	11	2
75	77	1
123	136	2
65	65	2
33	34	1
48	49	2
58	58	5
32	32	5
33	33	5
126	138	4
102	102	1
103	105	4
22	22	8
131	133	3
125	125	4
139	139	7
46	82	2
76	79	4
111	119	3
121	122	6
43	63	1
67	121	2
21	21	4
77	77	3
80	141	3
98	98	4
100	100	8
18	18	7
82	99	3
84	84	3
74	74	4
111	123	2
137	138	3
93	96	3
96	96	1
37	71	2
103	125	4
136	137	3
73	73	3
133	135	7
36	39	2
17	81	1
117	117	6
0	18	4
111	127	1
24	24	3
67	70	7
133	134	2
12	14	2
101	104	4
88	88	3
111	111	3
105	105	1
13	62	2
30	33	2
68	96	3
121	135	2
51	51	2
8	11	1
8	20	3
102	109	2
12	13	1
101	103	1
121	121	5
112	112	2
6	6	3
15	20	4
79	79	2
96	97	1
109	109	2
78	78	4
38	42	2
25	25	1
108	110	1
26	27	1
98	103	3
56	64	1
109	125	1
118	119	1
23	23	2
63	65	1
134	140	2
41	41	7
79	127	5
128	143	1
81	81	4
140	141	1
30	30	4
133	138	1
138	140	2
78	132	1
112	126	2
40	58	2
104	132	1
83	83	3
113	113	4
9	20	2
13	56	1
97	110	1
120	120	4
119	119	2
37	38	1
81	93	2
123	139	1
92	93	4
2	109	1
95	133	2
5	11	4
123	124	2
72	72	1
28	30	2
80	81	1
133	137	4
126	126	4
12	21	3
76	127	2
71	73	1
139	142	2
71	71	3
88	89	2
8	79	1
33	35	1
13	31	1
17	54	1
79	81	1
65	105	2
137	137	1
135	137	2
18	28	1
134	137	2
132	137	1
73	74	1
134	135	2
130	139	1
112	113	1
69	71	2
25	26	3
53	80	1
66	68	2
88	93	1
100	104	1
126	127	1
19	19	1
10	24	1
68	71	2
60	60	2
35	41	2
90	90	4
21	22	1
19	29	2
15	22	2
59	59	1
116	119	1
97	97	2
5	6	1
67	75	2
38	41	1
16	16	3
121	123	2
91	93	1
92	92	2
43	55	1
96	139	1
4	61	2
96	106	1
145	145	2
49	84	1
129	129	1
76	78	1
124	124	2
122	130	1
104	131	1
54	59	1
48	48	1
100	109	1
