93	95	6
132	132	16
125	125	35
114	115	18
109	110	8
118	118	17
99	100	6
109	109	12
107	110	6
32	32	16
1	1	12
20	20	26
18	18	32
104	123	1
56	57	1
22	22	10
104	124	3
156	157	10
114	114	20
153	153	11
85	85	24
40	41	13
5	30	6
82	82	28
46	51	4
107	107	24
111	111	19
133	134	5
152	157	2
30	30	15
80	80	23
93	93	18
88	91	1
87	89	1
104	104	10
31	122	3
131	133	5
27	27	17
69	70	7
87	93	1
17	17	13
67	68	6
13	31	5
41	41	23
76	79	4
64	64	7
26	27	4
45	158	3
36	36	23
122	131	2
8	11	3
115	115	16
81	82	8
36	41	2
140	141	9
33	33	16
2	5	7
5	5	20
86	86	23
13	14	13
75	75	20
99	99	25
114	118	3
139	156	1
47	47	23
67	67	20
108	109	7
8	9	12
132	134	5
6	6	34
15	15	15
3	4	22
50	51	9
9	11	10
141	141	15
117	118	4
112	112	20
97	98	9
111	112	10
124	126	10
113	114	7
51	51	8
43	52	3
129	130	9
40	50	3
7	7	34
103	122	4
148	148	34
65	65	9
131	134	1
32	33	10
123	123	19
110	110	19
39	42	4
30	31	6
135	135	28
151	158	1
87	87	19
29	30	6
45	157	1
9	9	11
82	86	1
158	158	28
16	16	26
153	154	3
152	152	17
22	23	8
21	21	11
28	28	20
94	95	5
134	134	12
49	49	11
78	79	7
16	18	7
2	4	5
79	79	12
4	26	1
10	10	16
145	145	20
106	106	7
106	107	15
86	87	17
131	131	22
34	34	22
131	132	8
18	19	17
13	13	11
91	91	18
124	124	22
23	23	3
126	126	23
110	111	8
114	117	2
55	55	15
120	120	10
92	92	22
48	48	15
22	24	4
51	52	3
25	25	13
117	117	23
46	46	34
31	108	2
42	42	14
40	40	24
38	39	11
107	109	6
7	11	5
16	17	10
146	146	15
52	52	10
108	108	24
127	127	19
128	138	2
78	78	16
102	102	11
78	85	1
10	11	7
88	89	14
126	127	13
129	151	1
102	104	8
123	126	9
49	50	3
50	50	22
124	125	6
114	116	1
81	81	26
95	95	16
137	137	16
43	43	16
0	38	2
122	122	19
145	146	5
97	97	20
116	117	5
139	139	8
121	121	13
101	101	14
137	139	6
138	151	2
44	44	23
139	140	14
65	66	6
33	85	2
8	8	7
119	119	25
88	90	5
108	110	3
38	38	19
67	70	1
37	37	12
4	4	19
79	80	14
136	147	5
113	120	3
18	130	1
127	152	1
104	105	6
31	126	15
11	21	4
150	150	32
57	57	3
7	16	3
7	8	7
140	140	21
144	144	17
137	142	3
39	39	14
80	81	7
54	55	11
76	77	3
71	71	10
20	21	5
156	156	10
103	103	27
79	86	1
77	77	15
79	81	2
119	120	11
12	12	11
122	126	5
68	68	16
19	133	2
14	14	9
73	94	3
119	121	1
50	56	1
96	96	8
136	137	5
45	47	4
94	94	20
62	62	12
80	98	2
21	22	14
151	152	4
88	88	20
51	91	1
100	100	10
31	32	8
128	135	3
95	96	3
154	154	14
39	158	3
22	28	2
98	98	24
19	21	1
19	19	13
141	142	7
12	13	3
125	126	8
33	113	1
130	130	13
142	142	12
16	142	3
155	155	13
77	78	3
121	146	2
73	73	22
0	2	3
113	113	18
19	20	4
136	138	1
131	138	1
24	24	20
6	30	1
11	11	21
132	133	6
119	141	1
89	89	13
12	14	3
104	117	5
121	122	14
108	112	10
154	155	5
144	145	13
3	3	14
35	35	16
30	126	2
53	53	17
151	151	23
134	143	3
97	99	1
23	131	4
120	121	2
87	90	1
0	0	14
70	70	9
2	2	18
117	120	1
25	26	5
82	83	7
71	72	3
138	138	20
41	42	2
129	129	15
148	149	10
147	147	13
66	66	5
53	68	1
90	91	5
15	17	1
121	137	3
48	54	3
8	141	2
123	124	9
107	108	4
84	84	8
44	45	8
87	88	11
49	54	2
138	139	7
8	10	9
93	94	4
30	32	2
37	158	2
118	119	9
106	108	10
15	19	7
105	120	3
145	147	10
1	2	10
18	106	4
136	136	19
92	93	3
69	89	2
52	54	3
51	53	1
125	132	1
20	28	3
135	148	2
78	86	2
136	143	2
129	135	7
29	29	24
31	127	5
125	144	6
121	147	1
146	147	6
24	36	2
9	16	4
133	147	1
4	5	6
116	116	23
62	63	1
128	128	12
96	97	5
133	133	18
49	52	8
38	42	3
9	10	11
46	47	6
92	111	3
45	46	4
39	53	2
41	52	1
5	6	5
125	127	4
103	119	1
27	30	1
105	105	11
95	97	5
84	85	3
33	112	2
150	156	2
26	28	4
14	15	10
41	43	4
50	54	4
130	131	7
132	138	2
23	24	7
115	118	1
29	33	1
134	137	1
137	138	8
30	128	1
144	146	2
72	73	3
39	40	6
135	136	3
39	44	1
155	156	8
13	15	2
141	144	1
83	84	10
115	117	3
2	25	3
82	110	2
66	69	2
33	127	2
123	125	1
29	31	2
17	138	3
139	141	1
10	12	1
127	144	4
149	149	13
42	43	2
28	34	1
103	121	2
5	24	5
23	25	2
120	122	7
68	88	2
25	35	1
136	141	4
75	83	1
111	124	1
36	38	3
68	89	5
79	87	2
157	157	14
157	158	3
137	141	6
83	83	11
26	26	14
100	101	2
103	105	3
69	69	11
30	127	5
11	141	2
104	121	2
105	115	1
23	35	3
129	138	3
113	121	4
107	121	2
106	121	2
91	92	5
68	71	4
47	55	3
98	99	1
127	145	1
33	34	6
17	139	1
152	153	5
32	122	2
77	83	1
17	93	1
11	13	5
0	5	1
76	76	1
127	129	1
106	111	1
70	71	2
31	31	11
105	121	4
94	98	1
107	111	3
121	125	2
113	117	2
45	45	6
28	30	3
68	96	1
15	16	3
114	119	1
117	119	2
80	83	3
68	69	6
0	1	4
6	7	6
50	53	1
11	25	2
81	83	1
36	37	8
90	90	7
111	113	2
57	62	4
105	132	1
120	139	1
117	141	3
12	21	1
122	125	1
91	93	2
19	28	1
31	123	1
7	22	1
40	157	1
150	151	3
43	50	2
16	19	3
127	140	2
37	42	1
57	61	4
72	72	2
35	77	1
7	10	2
130	148	1
35	36	4
140	142	4
42	50	1
82	84	1
88	97	1
103	126	1
48	50	1
62	96	1
54	54	5
48	70	2
47	48	5
15	18	1
32	86	2
39	45	1
84	91	3
128	129	2
3	5	1
44	46	1
86	91	7
32	106	2
122	132	1
112	113	1
122	123	4
6	8	2
52	53	4
68	70	1
116	140	1
154	156	2
79	92	2
22	34	1
129	152	3
11	12	3
113	123	1
118	124	2
112	121	3
46	91	1
0	4	1
102	128	2
29	118	1
112	124	3
130	132	4
120	141	1
66	67	1
152	156	1
1	4	3
102	103	3
106	117	1
39	41	2
40	42	3
3	32	2
94	96	4
142	143	1
104	140	1
14	21	3
56	56	2
128	130	3
136	148	1
134	136	1
54	56	1
0	3	1
77	86	2
9	102	1
52	88	1
47	158	1
81	84	1
43	45	3
47	96	3
17	19	2
42	157	1
72	74	1
55	56	2
35	76	1
108	111	2
68	98	1
89	90	1
49	53	2
75	77	1
18	22	1
63	64	3
31	109	1
110	127	1
37	38	7
34	38	2
24	26	1
46	66	2
81	96	1
77	79	1
44	157	1
43	51	5
41	130	1
150	153	1
17	18	1
155	157	2
9	14	1
39	156	2
93	96	1
158	159	3
96	98	4
13	32	1
37	141	1
27	28	2
104	138	3
115	122	1
24	25	1
27	34	3
107	112	1
108	127	2
106	113	1
47	56	1
106	129	1
121	123	2
113	118	1
153	155	1
143	143	2
156	158	2
149	150	6
54	64	2
129	136	1
106	112	2
10	20	1
118	121	1
135	137	1
32	111	2
32	123	3
1	29	1
88	95	1
104	107	1
104	120	1
101	105	1
105	107	1
39	51	1
118	120	2
107	125	1
50	52	2
28	29	1
111	117	1
29	32	1
129	134	2
48	49	5
34	79	2
80	87	2
113	115	3
2	3	3
124	127	1
74	75	1
46	72	1
66	137	1
7	140	1
112	125	1
128	148	1
19	22	2
141	143	1
103	132	2
9	22	2
108	113	1
143	144	1
103	104	1
3	31	1
129	132	1
6	36	1
7	102	3
14	18	1
109	112	1
139	142	1
111	120	1
154	159	1
47	50	1
85	86	3
1	37	1
145	148	1
136	145	1
38	41	1
63	63	1
98	100	1
140	152	1
43	48	1
21	23	1
32	39	1
131	147	1
128	152	1
31	39	1
118	139	1
112	119	1
62	67	1
148	150	1
3	30	1
1	27	2
144	148	1
102	127	1
113	122	1
14	31	1
125	128	2
89	91	1
73	127	1
13	30	1
83	85	1
61	61	1
134	135	1
103	124	2
131	137	1
77	80	1
25	31	1
4	31	1
35	38	1
109	111	1
115	116	1
116	119	1
83	99	1
43	44	2
90	95	1
145	154	1
13	20	1
10	118	1
6	35	1
136	142	1
40	52	1
62	97	1
105	106	1
18	20	1
