154	215	1
171	171	1
58	58	7
92	92	7
90	95	5
165	165	3
239	240	2
43	145	2
203	203	3
33	33	2
102	102	2
96	99	3
188	190	1
241	248	2
152	172	2
34	62	2
218	219	2
61	61	6
149	150	1
112	112	3
12	31	2
242	247	2
37	46	1
187	190	4
38	38	3
217	218	3
50	50	2
39	47	7
179	197	2
41	42	2
189	189	5
91	91	2
19	19	3
190	192	2
80	82	3
157	157	2
95	96	5
165	166	6
238	239	3
17	47	1
156	161	1
215	215	3
205	205	7
187	187	4
100	174	1
213	213	2
55	55	4
211	211	6
73	73	11
63	64	6
97	98	1
86	86	4
179	179	3
95	173	1
163	183	1
55	56	3
146	169	3
98	98	6
201	202	1
66	78	3
37	37	4
5	5	2
175	175	4
197	197	5
29	91	1
194	194	4
192	236	2
118	118	9
209	212	2
238	238	6
27	27	5
71	71	1
220	221	2
99	99	5
58	65	2
180	180	7
113	113	13
119	119	4
116	117	5
150	150	4
86	88	2
114	114	6
105	112	1
224	224	4
64	65	2
110	111	3
49	49	4
35	35	2
172	173	4
230	234	5
9	9	4
52	109	1
176	176	7
120	120	4
170	170	8
23	24	3
16	16	3
225	225	2
115	115	5
168	168	4
82	174	2
156	172	5
175	176	3
243	243	3
77	111	1
188	192	1
194	198	2
108	108	2
210	210	6
146	247	3
45	45	5
217	217	1
152	152	2
184	185	3
30	31	1
231	231	4
36	36	6
241	241	6
114	118	1
31	31	1
153	165	3
34	34	3
30	30	4
177	177	7
104	105	2
184	184	9
178	178	6
35	47	2
165	170	2
106	106	9
181	217	4
54	54	5
155	155	2
57	57	1
214	215	1
109	117	2
117	118	3
248	248	3
183	183	2
153	153	1
95	100	2
156	157	1
104	104	1
213	244	1
159	159	10
169	170	2
107	107	2
151	151	2
220	220	5
18	109	2
202	202	7
96	96	2
221	221	1
12	12	2
163	199	2
229	229	6
237	237	2
162	209	1
59	59	5
32	32	5
218	238	2
117	117	4
116	116	2
156	156	3
174	197	1
147	240	3
174	200	1
54	58	2
17	17	5
65	145	2
12	15	2
66	66	1
47	48	1
212	212	1
28	28	3
105	105	9
111	111	2
190	198	1
62	62	3
201	201	6
166	166	8
18	119	2
22	22	6
169	169	3
103	119	1
75	75	1
163	164	3
78	78	6
110	110	2
41	41	4
162	162	1
39	40	2
29	30	1
60	60	4
168	169	1
206	206	5
2	4	3
90	90	8
2	2	5
196	228	1
4	4	2
43	48	2
94	95	2
247	247	5
216	217	1
85	85	5
195	195	1
53	54	1
77	77	1
84	85	2
22	23	3
76	111	3
190	191	2
151	156	1
87	87	3
159	164	1
211	212	1
83	83	3
198	199	1
232	232	5
169	178	1
221	222	2
211	221	2
113	114	1
106	107	4
25	25	3
15	15	2
14	14	5
87	88	1
173	173	3
182	182	2
195	196	3
155	156	1
43	43	2
70	119	4
7	7	4
41	79	3
10	10	3
53	53	2
154	212	3
6	55	1
109	109	8
191	193	1
226	226	2
23	23	4
239	239	1
193	196	2
176	196	1
52	107	2
200	200	3
38	39	3
182	191	1
33	34	3
53	109	1
198	198	3
246	246	1
95	95	1
94	94	1
164	164	7
18	18	1
46	46	4
94	110	1
84	84	1
169	200	1
65	68	2
4	104	1
197	207	2
16	18	1
223	223	1
186	186	3
165	175	1
1	2	1
42	81	1
42	42	2
172	172	1
234	234	2
192	230	3
81	81	2
80	83	1
164	168	2
35	36	3
112	204	1
238	240	2
67	67	2
158	158	1
183	184	1
154	154	1
15	70	1
44	44	3
179	181	2
185	185	3
16	109	1
100	100	1
119	239	1
79	79	5
41	184	1
145	244	1
85	108	1
99	106	3
197	199	1
18	19	1
156	168	1
198	227	2
75	77	1
190	190	2
214	239	1
181	182	1
47	47	3
83	84	1
215	233	1
8	8	1
221	237	2
40	40	1
2	15	1
199	199	1
51	51	1
224	226	2
76	76	1
184	187	1
227	227	3
69	101	1
11	11	3
5	20	1
212	213	1
176	177	1
96	171	2
196	196	1
73	176	2
208	210	1
188	188	1
184	190	1
36	37	1
24	24	1
145	214	2
244	244	1
75	119	1
199	242	1
20	20	3
118	119	1
70	73	3
68	75	2
240	240	1
64	64	1
183	213	2
101	173	2
228	228	1
219	240	1
231	232	1
243	249	1
194	195	2
52	52	2
38	46	2
76	78	1
232	233	1
207	207	1
235	238	1
2	3	1
56	65	1
207	208	1
37	38	1
13	13	1
47	107	1
162	163	1
206	207	1
46	90	1
64	119	1
230	230	1
28	29	1
