128	128	15
90	90	9
109	110	4
127	127	6
37	80	2
99	99	8
117	118	3
104	104	5
113	113	13
34	89	3
34	34	6
83	83	8
131	131	3
111	111	6
38	80	1
77	78	2
15	15	5
7	8	7
32	32	6
23	25	4
97	98	10
101	101	10
105	105	5
25	25	4
123	124	7
103	104	2
129	129	13
126	126	3
71	75	1
125	125	2
77	77	2
93	93	5
74	93	2
81	82	4
33	33	4
72	109	1
127	128	3
87	87	8
115	115	6
128	130	3
19	19	5
6	7	1
135	135	10
98	99	2
98	98	2
82	83	2
108	108	3
12	12	6
71	71	1
24	24	7
119	119	5
1	2	8
94	94	9
124	124	7
31	32	1
110	110	5
138	138	13
73	73	7
123	123	7
90	91	2
136	136	2
37	37	1
17	17	7
79	79	2
118	123	4
6	9	2
109	109	6
87	131	1
129	130	4
10	11	1
77	82	2
113	117	3
120	123	1
118	118	2
72	72	7
72	73	2
14	20	2
13	13	2
15	16	5
98	126	2
22	22	8
23	26	1
135	136	1
81	81	4
96	110	1
0	1	3
95	96	3
38	38	1
31	31	1
86	86	1
5	5	7
106	106	2
28	30	7
21	21	3
72	76	2
74	74	4
108	109	2
112	113	2
83	138	1
76	76	3
89	89	3
139	139	16
134	135	8
91	91	2
73	101	1
130	130	6
97	97	5
85	85	6
132	132	5
5	38	3
38	91	1
9	9	3
140	140	12
114	114	4
78	78	4
74	117	3
137	137	2
76	118	5
88	135	2
92	93	2
109	119	3
107	107	2
112	112	6
139	140	2
114	115	7
75	112	1
134	134	7
96	96	3
84	84	3
3	4	4
117	117	7
71	73	2
16	16	2
122	122	9
18	18	6
75	113	2
71	72	5
18	19	2
107	112	3
101	118	2
120	120	10
81	86	2
90	124	3
133	133	5
93	119	2
35	35	6
44	83	2
72	101	2
29	30	2
118	119	3
119	122	2
36	36	5
94	118	2
35	135	2
24	25	1
116	117	1
117	124	1
105	106	5
100	126	3
11	13	5
121	123	4
77	113	1
3	3	2
34	36	2
20	20	1
15	26	2
91	92	2
27	28	2
30	30	2
100	100	4
107	108	1
104	105	3
99	100	1
111	115	2
93	94	3
116	116	2
33	34	2
92	92	1
120	121	5
83	84	2
121	122	1
86	88	3
23	23	1
119	120	2
2	2	4
95	123	1
124	136	1
111	112	2
133	134	2
98	111	2
6	19	1
101	102	2
101	117	1
81	83	2
8	8	3
97	115	1
80	81	2
127	133	1
125	126	1
87	112	1
34	35	1
110	111	2
113	128	1
9	27	1
71	92	1
5	12	1
88	88	1
76	77	1
14	15	1
102	102	1
30	31	1
111	135	2
84	85	1
73	78	1
3	33	1
117	119	1
126	127	3
101	111	2
81	138	1
103	103	2
82	82	1
25	26	1
0	0	2
75	78	1
6	6	1
4	33	1
88	134	2
121	121	1
11	16	1
115	116	1
1	1	2
4	4	2
72	105	1
7	27	1
23	31	1
37	117	1
102	103	1
9	26	1
122	123	1
37	93	1
