105	105	7
155	155	4
146	146	13
129	129	8
114	114	5
87	87	13
38	39	4
156	156	7
43	43	18
88	88	8
34	34	9
80	95	2
0	1	3
131	133	6
65	129	8
62	64	2
3	3	10
120	120	11
124	124	11
8	22	4
144	145	4
103	103	6
102	102	2
51	55	4
65	65	10
135	136	5
24	24	12
89	95	8
42	42	5
25	25	7
86	86	14
29	51	13
157	158	2
140	141	5
67	69	1
47	47	5
6	6	13
16	16	6
137	137	16
130	130	14
21	21	12
51	51	7
142	142	19
2	3	4
97	97	4
48	50	4
50	55	2
137	140	3
68	70	3
25	51	6
149	157	1
23	23	11
122	123	2
84	84	10
75	75	6
115	116	10
90	94	10
84	87	5
35	35	18
15	15	11
117	120	3
124	125	4
20	20	4
31	41	1
94	94	12
28	29	10
92	92	10
36	38	5
148	148	4
22	22	17
131	131	10
83	86	3
4	4	21
37	37	12
0	0	13
5	5	8
40	41	3
99	100	3
109	114	5
113	114	4
150	150	2
12	143	2
118	118	7
115	115	1
76	127	1
45	46	1
32	36	7
85	85	14
79	79	6
127	127	10
100	101	5
154	155	9
78	78	7
45	45	7
98	98	8
70	70	10
27	28	1
116	116	1
84	85	2
158	158	12
145	145	15
54	54	6
2	95	2
99	99	8
53	54	2
13	13	7
12	12	12
49	70	1
89	89	2
73	73	12
66	66	9
78	79	6
57	57	4
121	121	4
126	126	19
26	26	5
83	84	1
153	153	2
13	14	9
1	1	8
3	146	1
104	134	1
9	56	4
19	19	4
57	67	2
93	93	11
117	117	2
54	55	2
101	101	14
146	147	12
137	141	1
134	134	3
71	71	3
2	2	10
151	152	5
17	17	7
83	83	7
138	152	5
10	10	7
80	80	2
87	88	1
141	141	8
151	151	3
104	105	4
154	154	4
123	124	3
76	76	3
32	32	5
104	104	2
7	39	3
39	46	1
4	104	1
13	54	1
7	7	3
7	8	1
135	135	13
145	147	6
108	108	12
91	91	10
95	97	1
19	22	2
123	129	4
128	128	4
24	26	4
67	70	5
99	101	3
51	54	5
48	48	1
90	90	2
155	156	1
3	4	4
90	93	2
9	11	3
95	95	2
45	47	3
9	19	2
95	96	3
8	8	3
122	157	6
13	124	4
64	77	3
41	41	4
72	72	5
144	144	5
50	56	3
21	22	3
112	112	7
133	133	11
31	32	1
138	140	3
41	44	2
46	46	20
31	31	7
68	69	6
147	157	5
111	111	10
15	16	3
109	109	1
91	112	5
52	52	2
30	31	4
107	141	1
69	69	7
33	34	2
128	129	5
18	18	4
36	48	5
17	18	9
146	152	1
119	119	7
132	132	6
147	147	3
122	122	10
37	47	2
69	71	4
32	34	4
113	113	5
88	89	1
36	36	2
33	33	1
9	10	3
105	138	3
141	142	2
110	110	6
103	105	2
124	129	3
152	153	3
55	80	3
79	80	3
112	113	4
120	151	4
151	155	4
134	156	1
140	140	9
21	65	1
108	154	1
77	77	5
47	55	1
96	97	2
81	82	6
125	125	4
2	5	3
8	12	5
81	95	2
23	24	1
37	38	2
14	20	2
44	44	6
2	39	3
20	40	1
102	111	1
39	39	4
152	152	1
68	68	10
109	110	8
29	43	2
93	95	1
81	81	3
112	114	3
55	81	5
18	19	2
136	136	9
33	36	1
6	79	2
55	55	9
145	146	5
11	11	3
28	43	1
20	23	1
42	43	3
119	120	1
64	70	2
106	106	3
139	139	4
16	17	3
116	117	4
104	131	1
14	15	3
14	25	1
86	105	1
43	112	1
108	109	3
11	12	1
121	122	4
100	100	7
30	30	1
109	156	1
49	49	4
51	53	3
154	156	1
17	23	2
56	57	1
104	155	2
46	55	2
48	56	3
49	56	2
29	29	7
127	133	3
83	137	2
39	40	2
37	56	1
131	132	3
41	42	2
13	142	1
150	153	3
97	98	3
9	55	1
6	7	1
107	108	3
87	98	4
38	56	2
19	20	1
14	14	3
96	96	2
89	90	3
107	107	2
90	91	1
70	72	1
88	98	2
148	150	1
1	41	3
112	154	3
110	111	2
24	25	2
152	155	1
25	26	3
10	24	3
20	55	1
12	13	2
92	93	1
79	97	1
104	132	2
157	157	3
3	152	3
52	54	5
137	153	1
62	62	1
43	113	2
38	38	2
90	139	1
19	21	1
22	23	1
123	132	1
50	50	2
129	134	1
123	123	1
37	76	1
133	134	2
8	47	1
106	110	1
88	136	1
2	80	1
138	138	3
50	51	2
27	42	2
83	87	2
121	158	2
53	53	5
9	9	4
28	28	3
85	96	3
85	105	1
79	83	2
101	102	1
97	132	1
136	137	1
9	18	1
6	24	2
3	127	1
117	118	2
123	127	1
136	146	1
18	20	1
128	159	1
131	156	1
131	153	1
156	157	1
64	81	2
83	93	1
57	68	1
52	53	1
122	127	1
82	83	1
140	142	2
122	156	1
143	143	1
120	125	1
127	151	1
37	50	1
1	2	1
