128	129	12
37	38	4
1	1	3
9	9	3
62	63	3
81	81	3
127	129	6
87	87	5
32	32	10
141	141	14
50	50	4
40	41	5
126	126	16
142	142	10
22	22	7
68	68	7
37	37	11
131	131	19
65	66	6
57	58	3
23	30	4
135	135	15
58	58	9
118	119	10
118	118	23
88	88	2
101	101	7
21	21	4
53	53	9
41	41	6
9	30	1
134	134	18
25	25	5
144	145	10
116	117	1
130	137	4
138	138	10
129	129	12
102	103	5
48	96	2
100	100	3
19	19	5
112	114	1
28	29	7
116	116	6
2	2	4
66	66	13
6	6	6
97	97	5
132	133	6
85	85	14
24	24	6
123	123	9
108	131	5
119	119	8
118	120	5
36	36	11
73	73	6
63	114	3
79	79	5
143	145	1
23	23	12
32	96	3
23	25	7
102	117	1
77	77	5
35	36	7
132	132	14
77	78	3
139	139	3
57	57	3
133	134	4
48	48	5
124	124	7
16	61	1
57	71	2
95	95	6
144	144	8
129	130	5
103	103	6
117	117	6
118	135	4
96	98	4
142	143	4
120	120	11
38	39	5
5	5	5
88	90	4
63	63	5
80	80	5
121	121	14
136	140	1
122	124	2
120	124	1
130	130	6
133	133	4
67	67	6
119	121	1
21	22	2
72	72	4
61	62	3
92	92	3
34	35	2
99	100	8
105	105	2
124	141	2
131	140	6
134	135	4
59	59	5
75	76	7
28	28	17
125	125	12
0	73	2
27	27	6
30	32	5
25	26	3
2	6	1
42	42	6
82	82	2
29	29	6
123	124	7
51	52	2
24	50	1
26	26	3
103	104	3
74	74	10
62	62	4
16	16	4
102	102	4
49	49	11
59	112	1
138	139	4
140	141	8
27	56	1
115	115	4
114	114	3
91	92	1
112	112	4
141	142	7
59	60	9
61	61	7
107	107	1
106	120	1
20	21	3
140	140	28
52	60	2
103	121	1
123	126	1
63	115	2
119	120	1
14	14	8
96	97	1
62	114	2
56	56	7
29	42	3
39	41	3
31	32	2
98	98	4
74	75	2
19	23	3
136	141	2
83	84	4
143	143	6
90	90	3
18	18	4
15	15	2
106	106	1
125	130	1
38	38	5
63	64	5
92	97	2
114	130	5
78	79	4
94	94	7
49	50	2
120	121	2
18	19	1
84	84	4
142	144	1
94	95	4
115	116	2
49	53	2
33	34	3
113	113	3
122	122	4
65	65	12
61	63	2
109	110	2
26	49	2
55	106	1
126	130	1
35	83	2
128	128	6
27	38	4
31	36	1
20	23	1
89	89	2
20	20	5
76	77	2
96	96	2
66	68	1
32	63	2
122	123	2
10	11	2
71	71	8
110	111	3
35	35	2
135	137	5
87	88	1
22	23	2
8	8	1
10	10	3
8	9	1
113	131	1
58	59	4
111	111	3
58	62	2
58	61	1
60	60	3
91	91	1
92	94	2
127	130	1
83	86	3
127	131	1
109	109	2
93	94	1
131	132	2
70	70	4
110	110	1
35	47	2
41	42	1
64	65	1
135	140	1
136	137	2
3	3	2
124	125	1
107	120	2
52	52	1
17	17	3
127	132	2
10	30	2
125	127	3
69	69	2
104	104	3
118	134	1
127	127	2
20	24	1
121	123	1
60	65	2
143	144	3
97	125	2
33	33	3
34	85	2
91	99	1
73	88	1
39	40	1
92	93	1
93	93	1
23	24	1
12	13	2
31	33	4
24	54	2
57	59	1
87	89	1
121	126	2
136	136	2
32	33	1
113	130	3
27	28	1
75	75	6
33	65	1
11	11	3
9	17	1
110	129	1
118	133	1
19	29	1
63	100	2
74	110	2
118	132	1
29	30	1
13	58	2
79	81	1
69	70	1
131	139	1
8	10	1
32	62	2
19	26	1
106	118	1
95	96	2
15	41	1
0	86	1
108	109	1
43	43	2
3	4	3
30	31	1
54	54	1
146	146	3
78	81	1
18	26	1
99	99	1
31	31	1
9	10	1
81	100	1
117	132	1
36	37	1
33	36	2
14	17	1
55	56	1
71	72	1
15	16	1
101	105	1
107	118	1
70	71	1
78	80	1
4	5	1
53	54	1
13	16	1
76	76	1
123	125	1
76	99	1
25	41	1
70	74	1
51	51	1
2	75	1
64	85	1
