22	22	3
47	55	2
82	82	3
72	72	11
94	96	1
67	67	4
150	150	6
13	22	2
28	30	4
73	75	3
144	148	1
43	44	4
21	21	3
75	75	3
69	69	4
47	47	6
143	143	5
15	15	6
29	109	4
131	134	3
45	45	7
19	19	10
16	18	4
74	86	3
42	42	1
138	138	6
65	66	1
83	87	6
38	40	5
48	48	4
146	146	3
95	96	3
36	142	1
145	145	4
6	26	5
47	50	3
129	129	3
14	17	5
154	154	5
18	18	6
95	95	11
110	110	4
74	74	4
115	116	2
87	87	5
99	99	1
40	40	2
139	141	6
68	72	2
13	13	8
116	116	2
113	113	4
75	87	4
35	35	2
83	84	1
94	95	1
80	84	1
79	79	2
122	122	3
3	3	1
84	85	3
5	5	4
46	47	1
11	11	1
21	23	2
103	103	2
127	127	2
109	109	6
44	44	7
83	83	6
26	27	3
6	9	1
16	39	1
54	54	5
80	80	3
111	111	4
32	32	5
30	146	1
28	28	4
144	144	3
121	121	3
7	7	2
27	28	1
34	34	5
37	37	3
133	133	6
150	152	2
13	43	1
109	112	1
134	134	2
149	150	1
6	6	7
47	116	4
110	116	5
25	25	2
20	21	6
74	83	2
145	148	6
138	141	3
123	124	1
51	56	1
62	112	1
11	12	4
152	152	4
93	94	1
57	57	1
144	146	1
93	93	2
124	124	1
27	121	4
27	29	3
47	48	4
70	70	4
52	76	1
3	4	1
49	50	5
30	30	2
135	135	2
39	85	1
131	131	7
13	41	4
144	145	2
12	14	1
81	83	1
113	114	1
39	39	7
51	51	4
24	40	1
151	151	4
120	120	3
6	7	1
26	26	2
16	16	2
41	41	2
22	23	1
42	57	6
132	132	1
24	146	1
2	53	1
119	119	2
101	101	2
30	31	1
71	71	3
34	49	2
81	82	1
49	49	2
112	112	4
108	108	2
137	137	1
4	8	1
40	41	2
24	24	1
8	12	4
74	75	2
115	123	1
63	65	2
23	23	1
5	144	2
36	37	2
63	63	1
50	63	2
4	118	3
15	17	1
123	123	1
76	82	1
113	115	1
64	64	2
9	9	2
26	28	1
67	68	2
5	6	1
24	25	1
94	94	2
35	49	1
130	130	2
138	139	1
78	82	2
37	38	1
100	100	1
29	51	1
8	9	1
121	126	1
53	53	2
117	117	2
23	24	1
76	78	2
10	10	3
10	11	1
129	130	1
91	92	2
8	15	2
119	120	1
94	97	1
44	46	1
145	147	2
57	80	1
65	65	1
31	31	1
109	110	1
133	136	1
107	108	2
31	115	1
39	40	1
10	12	1
