91	91	19
44	44	13
85	87	5
97	97	9
25	47	1
17	44	2
18	18	17
63	103	7
28	29	9
46	47	19
69	69	10
33	33	6
117	117	13
123	123	20
105	108	2
16	17	5
42	44	7
64	64	14
45	45	22
102	102	4
15	15	24
126	126	6
57	57	25
32	32	8
126	127	7
21	21	1
85	86	9
40	40	14
3	3	13
47	47	17
19	20	5
52	53	7
129	130	16
83	85	7
0	0	14
21	22	6
31	31	12
12	12	17
67	68	11
41	42	13
16	41	6
17	17	15
1	1	10
78	78	7
133	133	8
79	79	9
10	11	5
7	106	2
3	4	1
12	95	3
73	73	8
41	41	13
103	103	24
99	99	6
61	62	6
4	4	13
20	20	8
127	129	8
99	100	11
64	65	3
86	86	10
0	133	5
67	76	5
47	48	10
31	32	10
53	53	22
50	50	15
124	124	21
83	83	9
17	18	3
56	57	1
74	75	3
63	63	17
82	82	13
127	128	5
16	16	12
101	102	1
95	95	10
80	81	2
14	14	6
119	119	5
8	9	4
67	67	8
25	34	1
81	81	14
115	115	12
97	103	5
115	116	7
93	93	11
29	30	2
52	52	24
106	107	6
113	114	6
127	127	1
79	82	2
108	108	15
54	54	17
106	106	15
11	12	4
90	91	7
67	72	1
2	5	7
7	7	10
68	68	8
29	29	8
71	72	2
2	3	13
116	116	11
9	10	2
75	76	1
93	94	6
111	111	11
118	120	1
119	120	1
41	43	4
107	108	6
104	104	14
22	23	3
130	130	12
70	70	13
19	19	9
27	29	2
13	14	4
4	6	5
33	34	2
15	75	2
125	125	20
45	47	4
2	2	12
22	22	21
49	49	20
128	129	3
49	50	5
77	83	6
96	96	12
121	121	26
5	6	2
76	76	21
131	132	5
99	103	6
107	109	3
25	26	10
56	56	12
55	55	10
100	101	6
100	102	2
65	66	4
111	119	5
108	109	6
61	61	3
0	2	1
43	44	3
13	13	12
39	39	3
87	93	3
42	42	13
51	51	14
128	128	7
77	81	3
77	82	2
65	65	6
95	96	2
71	75	2
125	126	4
128	133	3
72	72	16
48	48	23
64	118	3
26	28	4
43	43	11
11	14	2
89	90	2
87	87	6
44	55	3
114	115	1
104	105	12
94	94	12
59	60	6
131	131	7
75	75	3
71	71	18
9	9	8
80	80	12
14	34	2
15	43	2
129	129	4
102	103	4
28	28	18
20	21	2
114	119	3
110	111	4
106	108	6
109	109	16
92	92	9
6	8	2
24	24	11
123	124	3
60	62	4
50	51	6
59	59	4
90	90	11
8	8	2
26	26	8
98	98	8
14	18	1
94	96	2
11	92	1
110	117	2
105	105	16
79	80	3
10	12	1
6	6	2
15	18	1
112	113	11
114	114	10
13	18	2
53	54	6
73	75	2
77	86	2
5	5	12
58	58	15
27	27	7
46	48	1
51	111	1
118	119	6
22	25	2
30	30	11
64	67	1
97	117	1
42	43	3
55	67	1
66	66	4
112	112	9
74	74	5
32	94	3
71	116	1
116	117	4
97	100	2
55	56	3
46	46	9
92	94	2
76	77	7
40	58	1
77	78	2
64	109	2
62	62	9
60	60	6
19	21	3
87	88	2
117	118	4
6	7	2
26	27	5
32	33	4
45	46	5
107	107	3
128	130	4
52	67	2
38	38	2
0	16	1
101	101	4
120	121	5
18	21	3
118	118	5
14	15	7
62	63	2
86	92	2
2	4	2
40	46	3
29	46	2
11	11	1
105	106	3
25	27	2
122	122	4
16	80	2
109	111	3
91	93	3
53	109	1
26	122	1
58	65	2
125	129	1
110	110	8
63	64	4
89	91	5
84	84	8
10	10	4
14	16	1
54	55	1
78	79	3
19	27	2
113	113	13
18	19	5
24	25	5
81	84	4
85	85	6
13	15	1
10	30	3
14	23	3
77	77	2
59	61	1
124	125	8
46	70	2
44	45	6
7	9	2
13	25	3
120	120	10
70	71	4
3	5	3
63	72	1
98	99	2
47	55	1
97	98	2
88	88	4
54	121	3
2	6	1
112	114	1
11	95	1
19	23	1
42	69	1
29	47	1
25	25	6
115	117	1
94	95	4
109	110	5
45	48	2
13	23	1
19	22	4
100	100	5
86	88	2
4	5	2
13	47	3
44	67	4
71	76	1
18	25	1
24	33	1
40	44	1
112	115	1
12	13	3
55	133	1
130	131	2
108	111	2
78	82	3
93	96	4
5	23	2
58	60	2
1	87	1
17	43	1
25	33	1
24	34	1
83	84	2
107	111	1
17	23	1
132	132	2
114	118	1
80	82	1
0	6	6
18	24	1
82	83	3
88	93	1
59	62	2
60	61	2
71	90	3
108	114	3
123	131	1
51	120	1
66	72	2
58	64	2
39	40	1
8	111	1
16	18	1
91	92	1
21	39	2
15	42	1
101	103	5
107	110	1
38	58	1
21	32	1
24	28	1
23	24	1
112	118	2
51	52	1
61	66	1
20	39	2
123	130	3
113	118	1
64	92	1
89	89	5
50	120	2
45	68	1
52	54	1
94	105	1
12	19	1
112	119	1
24	26	1
76	91	1
22	40	2
114	116	1
0	65	3
102	111	1
23	23	2
125	130	1
122	123	2
13	24	1
53	56	1
39	58	1
1	2	1
1	4	1
24	46	1
23	26	1
111	118	1
