8	8	8
26	26	11
55	55	9
35	35	8
21	21	19
5	6	2
56	57	3
24	24	12
47	47	27
66	66	2
61	61	20
73	73	8
70	72	2
34	34	9
75	75	8
22	32	4
30	40	1
7	7	13
47	56	2
64	64	18
37	37	9
36	36	11
25	26	7
69	70	7
46	46	17
31	67	3
25	25	16
70	71	7
53	53	28
42	42	30
6	6	11
27	27	20
60	60	18
49	51	5
58	58	13
10	11	10
4	62	2
57	57	10
69	74	4
27	28	10
9	10	4
40	40	21
64	70	3
65	65	10
51	51	6
64	66	4
56	76	2
0	0	13
12	12	11
43	46	1
4	49	1
39	40	2
65	66	10
4	5	7
40	76	3
22	22	18
1	1	13
62	62	14
40	42	3
6	26	3
60	61	1
43	43	26
63	63	5
64	65	12
28	29	8
30	73	3
52	52	14
23	23	13
2	2	7
9	61	2
41	42	13
30	31	4
38	38	8
58	67	3
48	55	3
69	69	13
19	19	15
33	33	11
31	73	8
68	69	10
49	49	13
12	13	1
34	68	4
2	22	1
57	74	4
0	2	3
75	76	2
35	41	4
13	13	8
51	64	5
3	3	10
26	27	3
29	51	7
44	44	5
54	57	4
30	30	4
56	56	5
24	26	2
11	20	2
1	2	5
45	45	12
5	5	11
10	10	10
28	42	3
7	8	9
23	25	5
48	48	10
39	39	10
76	76	12
68	70	4
67	70	4
9	9	16
67	72	2
50	68	3
13	21	1
0	42	6
2	3	5
54	55	5
26	33	1
46	47	5
35	37	1
54	54	3
24	28	2
23	24	6
0	28	3
22	23	7
2	7	1
74	74	1
29	30	2
77	77	3
71	71	13
58	59	5
42	77	3
31	34	1
44	45	8
26	31	2
72	72	1
60	64	3
29	29	14
68	71	1
4	4	6
33	34	15
66	67	1
0	35	2
50	51	6
66	72	4
7	51	2
31	31	3
68	68	15
19	20	3
54	56	5
23	26	5
28	31	4
20	20	12
70	70	8
14	30	3
30	43	4
60	76	3
30	76	1
59	60	2
38	65	3
20	22	3
59	59	2
32	32	11
67	67	3
27	64	2
38	40	1
25	30	5
43	52	3
30	54	3
36	37	9
10	12	4
14	14	2
6	7	2
52	74	1
62	64	3
27	37	1
7	12	4
60	75	3
6	8	1
43	57	1
42	70	1
11	11	7
19	24	2
3	48	3
61	62	1
20	32	4
31	49	1
72	74	1
74	76	4
8	22	3
0	25	1
6	64	2
59	75	1
41	41	6
63	64	4
28	28	7
49	50	5
22	43	1
30	61	1
52	71	4
36	38	2
28	30	1
19	44	2
33	69	1
57	76	1
2	27	1
34	50	1
52	76	3
58	76	1
35	39	2
23	35	2
52	53	4
35	53	2
32	76	1
1	6	2
31	66	1
34	35	2
50	50	4
12	48	1
32	34	1
39	41	2
52	55	2
28	41	2
68	72	2
23	28	1
55	57	1
18	18	3
26	28	1
5	13	1
49	52	1
12	47	1
20	33	2
28	48	1
49	76	1
30	48	1
31	32	1
5	28	1
45	46	1
13	44	1
6	22	1
3	12	2
20	43	1
3	74	2
8	9	1
37	38	4
47	50	1
36	40	1
25	27	1
34	37	1
59	74	2
34	41	2
30	34	1
75	77	4
59	77	2
24	29	1
24	25	2
62	63	2
29	42	1
24	38	1
33	54	1
29	33	2
74	75	2
26	56	1
53	54	3
4	30	1
29	54	1
13	73	1
32	33	1
32	41	1
6	60	1
