155	155	5
101	101	10
51	52	17
137	155	3
120	120	3
65	65	5
73	74	4
24	24	3
211	211	13
30	31	4
201	202	3
225	225	2
26	26	6
218	218	12
27	27	3
205	206	3
4	16	1
164	164	3
24	38	2
12	32	2
56	57	7
235	236	3
242	242	9
135	182	5
40	40	6
46	46	11
64	66	5
21	37	1
56	56	7
137	138	7
179	179	3
239	239	7
237	237	14
163	163	2
122	122	3
161	167	3
233	233	3
3	8	2
153	153	2
5	7	7
16	17	6
78	78	6
128	134	2
137	156	3
1	2	2
233	234	4
235	235	5
199	199	5
209	209	6
102	137	1
35	35	5
8	8	5
7	7	11
119	120	2
52	52	6
48	49	3
205	205	6
28	45	4
42	42	25
184	184	5
188	189	3
52	53	4
36	36	12
197	198	5
159	159	9
62	62	7
224	225	1
79	80	3
7	56	1
17	17	11
200	202	1
12	12	6
69	69	7
39	40	6
76	77	2
28	28	14
53	53	8
77	77	3
108	108	5
193	193	8
110	110	5
3	3	4
113	113	9
191	196	3
75	76	3
145	145	2
178	179	4
36	210	4
151	151	7
196	196	4
1	1	15
168	168	5
74	74	17
160	192	2
33	198	2
100	101	2
204	204	3
219	219	9
4	17	1
178	178	5
59	60	4
194	194	5
85	85	8
78	104	4
3	50	2
72	72	5
128	148	3
212	213	2
162	162	5
43	43	5
81	84	2
138	139	5
2	2	6
120	121	6
9	102	3
66	67	5
200	200	3
100	100	7
33	40	2
146	146	8
106	106	4
109	110	5
11	138	1
54	54	10
11	11	11
28	47	5
202	202	5
2	213	2
175	179	1
1	3	1
239	242	1
150	150	4
189	189	4
149	150	2
241	241	8
14	16	4
118	119	3
203	203	8
26	28	6
156	159	1
182	182	5
145	146	8
121	121	6
158	158	1
228	228	7
38	39	4
86	86	17
50	51	2
55	55	9
215	215	6
157	157	6
224	224	5
66	138	2
35	36	4
147	151	1
143	143	5
42	85	2
220	221	1
10	10	2
214	214	4
103	103	4
221	221	9
97	97	4
14	14	4
63	63	8
182	183	1
37	38	4
15	51	2
36	37	3
73	73	14
104	105	3
84	84	8
67	67	9
71	71	6
68	68	6
61	62	3
57	57	3
61	61	4
109	109	3
191	201	4
181	181	8
189	190	3
0	0	1
190	191	3
206	206	3
56	181	3
167	171	3
41	41	9
203	204	1
22	23	1
5	41	1
29	29	5
236	236	3
34	35	4
106	107	1
82	82	5
95	96	2
150	173	3
216	216	4
23	24	1
138	143	1
95	95	3
75	75	9
41	59	1
137	157	1
78	102	2
55	183	2
59	59	7
39	39	7
156	156	5
191	192	4
29	30	1
51	57	3
136	137	6
4	5	3
238	238	3
119	119	9
80	80	9
38	42	3
208	210	1
212	212	4
1	46	3
48	48	2
152	156	1
16	16	2
194	195	1
29	32	1
200	210	2
21	34	1
166	167	2
119	124	3
140	140	5
197	197	7
119	122	2
139	139	7
139	141	5
123	123	5
81	81	2
159	160	2
232	233	1
171	171	4
185	185	7
161	171	5
217	217	2
108	116	1
43	55	4
26	27	3
152	175	4
183	183	5
184	193	1
58	58	5
49	59	4
134	134	7
99	99	7
28	64	2
40	41	1
129	130	3
107	107	4
70	70	7
118	118	3
88	88	2
230	230	5
195	222	3
45	46	8
134	135	1
232	232	2
126	126	5
135	135	11
174	174	1
142	142	1
105	106	3
209	221	1
133	133	4
50	50	4
9	45	3
37	47	3
101	102	4
33	34	1
45	45	8
21	21	3
192	192	3
63	64	2
147	155	4
47	47	3
166	166	1
84	85	3
201	201	12
67	138	1
160	160	10
172	172	1
158	160	3
180	180	8
144	146	2
190	192	2
160	190	2
41	179	2
133	134	1
229	230	2
9	9	1
83	83	2
31	31	7
195	195	4
53	54	1
58	103	2
78	80	1
223	224	2
219	220	1
104	104	2
57	60	1
8	57	1
7	41	1
164	193	2
6	6	3
2	13	1
13	15	2
48	59	1
161	219	2
78	79	3
74	75	2
240	240	5
150	153	1
214	217	2
125	126	1
170	171	4
124	124	6
76	76	4
60	60	6
191	191	3
163	164	1
75	98	1
184	186	1
146	147	3
202	224	1
217	228	2
9	16	2
12	36	2
228	229	3
188	196	1
217	218	3
15	17	1
27	70	2
175	175	1
25	46	2
192	202	1
142	143	2
207	207	3
210	210	2
13	13	2
233	236	3
167	169	3
236	239	1
99	121	1
223	225	1
209	212	1
198	198	1
38	45	2
84	104	1
111	113	3
44	44	4
71	72	3
27	28	1
144	171	3
18	19	7
38	54	2
226	227	3
64	64	4
0	1	2
18	18	3
211	220	1
213	214	1
174	175	2
47	48	2
97	127	3
161	187	3
37	37	2
102	102	6
12	16	1
173	174	2
87	87	3
38	38	2
128	128	2
136	136	3
111	111	3
70	71	2
125	125	2
2	3	2
161	184	2
36	53	1
49	49	1
13	14	3
137	137	1
195	213	1
109	111	2
199	200	1
19	56	1
17	18	4
218	219	3
44	45	2
31	32	2
147	147	1
156	160	1
220	220	1
115	115	6
156	157	1
25	25	4
28	179	1
208	208	2
114	115	1
85	86	1
61	65	2
124	126	3
212	228	1
222	228	2
127	127	1
33	39	1
9	29	1
171	184	2
7	9	3
23	23	4
52	54	1
114	127	2
5	5	1
15	15	4
186	187	6
20	48	1
72	73	2
31	40	1
19	19	1
161	161	2
167	167	2
41	52	2
27	45	1
195	196	1
164	177	1
98	98	1
176	176	2
190	190	1
21	24	1
101	106	1
39	45	2
10	61	1
186	186	1
227	227	2
111	154	1
42	134	1
4	4	1
151	154	2
223	223	2
150	151	1
217	231	1
220	228	1
210	213	4
114	114	1
177	177	1
73	83	1
71	103	1
188	188	1
46	47	1
148	173	1
194	204	1
208	223	1
234	234	2
83	104	1
42	79	2
140	141	1
28	173	1
170	170	2
65	66	1
8	41	1
176	177	2
145	148	1
66	66	1
148	149	1
207	221	2
32	32	3
141	142	1
149	149	1
83	106	2
215	230	1
10	235	1
3	7	2
165	165	1
172	173	1
227	228	2
92	92	1
103	104	1
79	79	3
231	232	2
58	67	1
58	59	1
27	44	2
4	12	1
148	152	2
54	55	1
135	155	2
221	222	1
2	8	1
124	125	1
84	105	1
119	127	1
5	6	1
50	53	1
177	178	1
14	15	2
67	68	1
34	34	2
8	217	1
175	176	1
136	159	1
13	18	1
186	195	1
200	209	1
112	112	1
207	222	1
129	129	1
15	47	1
75	79	1
9	47	1
174	178	2
57	77	2
48	50	1
138	138	1
239	240	1
173	173	2
200	205	1
147	156	1
175	180	1
11	235	1
51	51	1
207	220	1
20	20	2
96	97	1
141	141	1
82	89	1
225	226	1
11	218	1
20	21	1
130	155	1
9	14	1
