55	55	37
0	1	11
170	170	13
9	10	9
145	145	9
32	33	19
112	113	4
108	123	1
15	18	4
11	18	4
24	26	13
7	7	18
141	143	4
19	20	17
77	77	5
41	42	8
139	139	18
118	118	5
129	129	23
36	37	13
151	168	7
29	33	5
95	95	22
157	158	3
164	164	14
160	160	19
26	30	4
0	5	2
123	123	9
41	41	19
24	24	24
27	27	24
119	119	10
122	122	4
130	130	9
179	179	19
59	59	15
36	36	25
40	40	29
87	88	5
5	6	16
8	8	28
6	9	8
35	35	41
3	3	32
126	126	14
38	38	23
23	23	36
8	9	10
126	127	1
15	16	7
13	27	4
144	144	5
2	2	36
38	39	6
17	17	14
124	124	16
32	32	26
61	61	18
150	150	15
30	31	14
39	39	22
45	45	20
111	112	6
10	11	23
130	151	2
3	4	25
37	37	27
26	28	5
53	53	10
125	125	11
174	175	9
9	9	20
33	33	31
151	151	21
4	4	26
113	113	27
103	103	3
13	13	20
106	110	6
1	5	2
90	90	23
116	117	16
115	115	19
86	86	10
3	7	4
26	29	1
42	42	21
161	162	10
106	106	13
98	98	6
6	43	4
111	111	6
88	88	5
136	136	17
7	10	9
1	1	22
22	23	21
146	146	10
100	100	8
168	168	20
117	119	9
63	64	3
162	162	12
120	121	3
44	44	27
165	165	11
29	29	18
100	103	1
157	157	31
94	95	14
2	15	3
14	14	25
18	35	2
173	178	4
159	159	9
50	50	19
40	44	6
133	133	34
93	93	12
130	131	5
102	102	2
37	39	3
75	75	13
21	23	3
37	38	13
141	141	21
23	24	8
28	28	17
12	13	25
167	167	27
53	54	3
22	29	4
25	28	8
56	57	11
6	6	7
116	119	1
108	115	4
143	143	18
15	15	23
114	114	9
131	132	4
25	29	3
18	18	8
62	62	12
88	89	6
34	34	16
175	175	14
54	54	19
1	4	3
19	19	16
90	91	8
6	21	1
31	31	35
85	85	17
145	146	2
163	167	3
65	65	12
84	84	12
35	38	5
85	86	5
101	101	12
171	171	21
73	73	17
11	13	8
27	28	6
5	7	13
71	72	5
132	132	18
91	92	7
105	105	11
89	89	8
65	66	3
112	128	3
2	3	10
66	66	9
176	177	5
2	33	3
91	94	4
31	32	7
99	100	2
32	35	6
43	44	25
159	160	3
9	11	4
110	110	18
154	154	17
134	138	4
107	116	4
134	134	9
11	25	5
136	145	4
22	22	20
178	178	18
14	16	12
61	79	5
12	12	13
18	19	14
52	54	8
81	81	8
164	165	6
173	173	12
43	43	22
111	129	3
71	71	16
1	6	6
94	130	2
11	12	13
142	143	14
51	51	3
142	142	20
149	149	17
120	120	10
16	17	4
23	25	6
171	174	2
140	140	16
121	122	5
0	0	25
96	97	12
169	170	8
75	78	4
78	93	2
112	162	3
123	124	19
147	161	8
169	169	16
103	104	5
177	178	8
104	127	4
60	60	20
98	125	1
155	155	8
121	124	2
56	56	15
116	116	14
16	16	26
23	27	3
174	174	27
82	83	10
26	26	28
102	125	3
117	148	6
131	138	1
135	135	8
16	18	5
155	156	7
146	147	4
36	44	2
76	76	7
101	107	5
7	8	6
138	138	15
163	166	2
11	39	2
151	152	6
78	78	13
64	65	5
83	120	3
25	25	23
21	22	8
153	156	5
80	81	8
50	53	1
43	45	2
11	11	11
96	96	7
152	155	7
10	19	1
173	175	3
23	132	1
118	119	5
33	34	9
25	27	2
63	63	12
84	86	4
9	21	7
25	26	11
106	121	2
175	177	4
10	10	25
161	161	10
123	125	7
115	118	1
177	177	4
178	180	6
24	27	1
115	117	1
106	107	2
12	36	3
60	61	6
107	110	7
7	11	4
92	92	12
112	157	2
110	129	5
58	58	3
3	8	1
5	5	24
145	147	4
165	168	1
94	94	7
23	26	2
11	17	3
83	83	6
153	153	8
62	91	2
21	21	12
67	68	2
99	99	6
131	131	11
128	128	14
83	85	6
146	151	4
84	85	13
7	9	8
12	16	3
30	30	11
93	95	4
137	137	19
170	172	2
144	145	3
121	121	13
34	51	2
58	59	1
117	118	9
23	28	7
147	148	14
1	17	2
156	161	1
51	52	6
36	40	2
136	142	2
8	11	3
163	165	11
149	150	2
1	15	3
104	104	12
101	106	3
109	110	1
168	170	3
109	109	11
63	89	1
97	99	5
40	42	6
5	13	7
5	32	4
74	126	1
144	170	3
117	117	10
90	95	1
168	169	6
8	15	2
73	74	4
87	89	3
16	37	1
72	72	12
138	139	5
101	109	1
148	149	6
80	80	10
64	64	9
156	158	2
54	55	2
79	80	5
12	26	1
135	141	1
28	29	6
59	60	4
151	154	6
102	112	2
75	76	5
39	44	1
24	25	20
34	63	5
121	123	2
16	19	2
158	158	19
105	109	2
140	141	4
154	155	6
19	22	1
5	24	4
26	27	9
148	148	9
1	33	3
104	105	3
108	119	3
175	176	1
4	16	1
4	5	9
87	87	5
105	136	1
105	151	2
107	113	1
164	166	5
105	127	1
165	166	4
113	114	5
5	29	4
42	43	3
99	101	9
35	37	3
149	153	2
112	148	3
13	29	2
81	83	3
172	178	1
109	120	3
62	87	3
107	107	6
62	63	8
97	97	10
39	40	10
98	102	2
104	128	5
6	44	4
103	106	3
128	129	4
140	174	2
155	157	8
1	2	5
141	142	2
92	93	9
61	62	4
123	128	4
112	125	1
133	138	3
112	131	1
150	153	3
68	70	4
23	31	2
45	46	5
156	156	8
160	164	2
152	168	3
2	4	5
95	132	3
20	20	5
2	9	6
9	14	2
10	25	1
56	58	5
150	160	4
136	137	3
14	22	3
172	174	3
54	57	1
74	74	7
172	172	22
81	82	3
106	126	2
104	117	2
13	14	4
124	126	1
104	106	4
57	57	12
143	144	4
118	120	2
89	90	3
38	40	2
3	6	4
2	7	1
4	14	1
114	115	5
79	127	1
10	43	2
52	52	5
158	159	7
111	123	2
38	43	1
6	17	3
37	41	3
118	149	1
19	21	4
125	126	2
91	91	9
55	87	1
7	43	1
1	3	9
118	159	5
172	173	3
166	167	1
36	38	2
154	156	4
110	160	1
32	34	4
137	138	1
176	176	9
15	20	1
39	43	4
12	18	1
67	128	2
52	53	3
171	172	2
131	134	4
161	164	2
126	128	6
17	18	5
127	127	8
116	158	4
99	121	3
152	152	4
130	132	2
139	140	7
12	19	2
5	17	2
153	154	2
58	95	2
12	20	5
28	30	6
136	154	1
147	147	7
166	166	2
41	45	5
56	59	1
8	22	2
28	31	4
105	106	1
115	116	3
106	117	1
167	168	2
160	161	2
4	8	1
115	120	1
82	100	4
106	131	1
105	131	5
110	168	1
42	50	1
6	19	1
103	109	1
14	15	5
103	105	2
125	135	1
76	77	4
20	21	2
163	164	1
129	153	2
102	121	1
135	144	4
108	109	2
86	87	1
11	14	3
8	16	4
40	41	4
108	118	4
21	24	3
5	30	2
113	157	2
104	107	2
166	171	4
74	79	3
134	136	3
124	125	6
135	136	5
180	180	4
62	89	2
77	78	3
34	35	4
4	7	2
129	131	1
23	29	3
29	30	1
136	144	1
113	160	2
49	49	2
114	174	2
44	52	2
122	128	4
134	135	9
11	19	1
152	170	1
115	175	2
67	67	1
35	36	7
112	115	3
50	51	8
9	12	3
159	163	3
82	82	4
101	116	1
110	148	1
150	151	2
23	36	1
173	176	1
83	87	1
128	167	2
148	154	1
108	108	7
6	29	1
151	153	1
161	163	2
178	179	1
79	79	9
98	99	1
25	30	2
32	95	3
44	45	3
68	68	3
55	57	1
95	138	1
63	65	1
116	118	1
75	77	1
118	158	2
14	36	2
83	97	1
179	180	2
10	12	1
17	35	2
78	79	5
33	42	3
150	173	1
83	86	1
149	171	2
82	87	3
3	5	1
10	18	2
41	50	1
105	115	1
109	116	1
70	71	2
24	29	1
92	94	3
156	169	1
108	160	2
135	140	2
81	90	3
31	34	1
74	75	2
122	125	1
113	115	1
4	9	3
98	101	2
14	18	2
109	118	1
74	93	1
61	88	2
143	145	3
117	120	1
122	136	2
123	127	1
122	123	2
72	73	2
6	7	4
140	149	1
108	176	1
20	22	3
163	175	2
51	62	1
80	86	1
114	152	2
63	99	1
14	20	1
97	98	2
124	133	1
137	142	2
66	75	2
152	156	3
64	77	1
112	112	2
10	40	1
60	78	1
83	84	3
8	20	1
162	171	2
137	140	3
98	100	2
63	86	1
68	73	1
104	109	1
102	106	1
79	87	1
163	163	5
110	157	1
139	141	2
159	162	2
8	12	1
51	53	1
32	39	1
73	75	1
106	111	1
174	176	2
22	24	1
141	145	1
110	111	1
145	150	1
99	105	1
76	108	1
42	53	1
100	101	1
107	126	2
50	54	1
70	127	1
152	154	2
95	102	1
31	38	1
22	25	2
76	90	2
14	17	1
132	133	1
153	176	2
65	130	1
2	5	2
137	145	1
82	85	1
51	55	2
6	13	1
126	129	1
9	15	1
101	102	1
10	44	1
101	121	2
160	162	1
27	33	3
82	86	1
46	46	1
27	31	1
154	157	1
177	179	1
90	92	1
100	120	1
131	143	1
128	130	1
86	88	1
122	134	1
126	135	1
113	153	1
4	6	1
27	30	1
8	18	1
152	153	1
81	85	2
173	174	1
49	50	1
71	127	1
