58	58	6
51	51	13
77	77	11
42	42	14
73	73	12
85	85	14
54	55	5
59	59	5
65	65	3
95	97	6
66	66	5
37	37	5
55	55	6
46	46	8
101	101	15
93	93	13
44	47	4
68	68	10
87	87	23
32	33	1
35	45	2
27	27	12
72	73	3
62	63	2
34	34	7
82	82	6
86	88	3
61	61	8
52	52	14
35	39	1
46	88	2
23	23	4
46	87	1
58	61	10
86	86	17
43	43	1
56	56	4
37	38	1
89	94	3
39	40	5
57	57	10
39	39	15
67	91	3
50	51	5
31	31	6
79	79	9
83	97	1
38	46	1
48	51	3
61	62	2
67	76	2
75	75	15
29	29	12
85	86	2
40	40	6
76	76	7
49	49	15
60	60	9
53	81	3
67	68	8
88	88	12
95	99	2
69	74	7
40	63	7
96	100	3
45	47	6
100	100	11
54	54	9
56	58	1
39	49	1
64	65	1
62	62	6
83	83	14
48	49	10
73	74	9
89	89	6
94	98	5
67	67	14
41	41	7
96	96	6
59	78	1
63	63	11
93	95	6
49	51	4
76	77	4
53	54	1
62	75	2
38	38	9
81	81	12
70	70	12
56	81	4
83	85	1
78	79	1
31	32	6
72	72	12
70	71	2
36	37	4
38	62	4
62	95	5
47	47	9
95	95	5
24	24	3
46	53	4
82	83	1
35	41	3
63	64	4
92	92	16
75	76	6
80	80	6
46	48	2
88	89	4
36	36	1
98	98	6
68	69	1
52	80	6
50	50	3
92	93	4
20	25	2
44	44	4
96	97	4
45	45	2
35	37	3
69	70	2
102	102	2
93	94	5
71	72	4
101	102	7
80	81	4
84	88	3
94	97	2
68	70	2
94	96	3
58	59	5
87	95	2
65	66	3
78	78	6
60	81	3
25	26	2
49	50	6
99	99	2
69	69	3
22	54	1
86	87	4
92	94	6
88	93	1
74	75	1
43	66	1
84	84	5
31	33	2
42	45	2
48	48	10
35	35	2
91	91	4
57	59	1
89	90	2
69	71	1
38	39	2
97	97	3
47	85	2
25	25	4
74	77	3
27	28	2
64	64	1
47	54	1
92	98	3
26	89	1
66	75	1
45	48	3
33	33	2
71	71	3
58	60	7
24	26	1
94	94	5
30	58	1
28	29	1
36	38	2
79	81	1
53	53	1
74	74	3
47	55	1
98	101	2
98	100	1
47	48	2
43	44	2
38	61	2
61	97	1
68	76	1
90	90	3
20	22	1
33	37	1
22	55	2
29	30	3
80	89	1
67	75	2
65	101	1
61	81	1
63	100	1
95	96	1
23	27	1
