60	60	3
98	100	2
107	107	7
85	85	6
78	78	3
55	55	8
47	48	4
39	45	4
106	106	8
93	101	1
16	57	2
111	111	4
114	123	2
115	131	5
8	8	5
34	34	11
60	83	1
47	47	26
127	127	5
8	101	7
88	88	2
68	68	11
3	3	6
90	90	5
125	127	4
58	82	3
45	45	7
61	61	5
82	82	5
106	115	6
130	130	2
64	64	4
16	16	4
121	121	4
120	120	1
25	25	9
35	35	10
50	84	4
108	108	3
100	100	5
81	82	1
31	32	3
61	73	1
129	129	4
114	114	2
26	35	3
109	109	7
49	61	4
12	12	9
122	122	4
25	31	3
72	72	12
34	35	1
71	72	6
47	61	4
128	128	11
73	73	9
8	9	5
19	19	3
114	117	9
14	30	1
32	32	3
68	69	2
56	56	2
17	73	2
48	48	7
74	74	7
97	113	3
62	93	3
38	38	2
30	30	5
120	124	7
93	93	4
46	46	7
113	113	5
21	21	7
96	96	5
76	77	1
116	116	2
26	26	5
84	104	3
17	17	4
79	79	1
45	64	2
27	27	2
18	18	9
9	9	7
42	42	3
131	132	4
118	118	4
73	74	6
82	83	3
31	31	7
94	94	5
29	29	2
85	108	1
20	20	2
11	27	4
101	104	4
91	91	3
28	28	11
67	67	3
45	57	2
30	33	3
41	75	6
84	87	1
15	27	2
108	120	1
11	11	8
0	0	4
86	86	6
66	66	3
35	36	3
94	98	4
77	77	1
61	68	1
70	70	6
102	102	6
95	98	1
33	60	2
92	92	9
22	58	1
2	2	4
103	103	3
74	75	4
1	1	1
6	66	4
92	127	1
117	117	1
5	7	2
55	56	3
120	125	1
108	115	2
7	7	12
26	93	4
77	78	1
79	81	3
22	22	3
27	28	5
17	71	1
94	97	2
98	99	2
123	124	2
123	123	2
105	106	2
119	119	6
84	101	1
97	98	2
33	33	3
97	97	6
93	123	2
133	133	2
80	80	5
26	82	1
40	40	3
37	55	1
8	36	3
34	43	2
5	26	1
15	16	3
38	56	3
107	108	1
60	84	1
20	21	5
83	83	2
75	76	1
39	39	1
63	63	6
12	14	1
85	103	2
26	33	1
7	99	2
13	13	2
71	71	4
75	75	5
69	69	2
11	45	1
27	80	1
23	111	1
14	17	3
15	15	4
3	12	1
42	80	1
132	133	1
11	93	1
51	51	1
124	124	3
102	105	1
74	110	2
93	103	3
20	27	1
81	81	2
76	76	3
23	23	3
26	92	3
64	67	6
5	92	1
101	103	3
32	75	3
75	122	2
109	134	1
26	76	1
96	97	1
99	99	3
91	92	3
82	96	1
110	110	2
84	84	1
44	44	1
61	76	1
29	49	2
70	71	1
94	95	3
17	72	3
5	37	1
100	102	1
134	134	1
39	41	1
41	78	1
21	26	1
61	75	2
34	47	2
87	92	1
4	4	1
87	88	1
3	62	1
36	36	1
26	36	1
65	65	2
84	85	1
24	24	1
26	29	1
67	74	1
37	37	1
115	115	1
124	128	2
126	127	1
57	58	1
45	81	1
7	8	1
115	116	1
19	20	1
