13	13	9
49	49	4
12	44	2
1	34	6
19	46	9
38	39	3
2	6	6
50	51	6
62	63	3
0	0	7
45	45	6
59	59	3
23	26	2
27	76	2
52	52	7
56	56	9
41	42	4
10	11	8
20	20	5
60	60	13
41	41	16
69	69	5
41	53	1
47	49	1
53	53	9
48	74	1
70	71	9
21	21	14
31	32	2
12	13	3
4	4	14
25	25	8
8	8	6
66	67	6
36	37	4
35	38	8
20	46	2
58	59	2
29	29	14
6	6	6
19	19	4
18	18	2
10	10	8
34	62	4
77	77	2
36	36	3
2	2	4
6	7	5
30	34	3
51	51	5
61	62	7
5	5	4
73	73	8
5	38	2
75	75	3
57	57	8
53	54	10
65	65	3
34	37	2
0	39	4
63	63	5
44	44	6
11	11	10
14	14	1
61	72	1
54	54	4
72	73	7
7	9	5
63	66	1
18	57	1
35	37	3
8	68	4
63	65	4
23	23	5
37	37	4
2	31	1
43	43	8
68	69	4
39	47	4
42	43	3
36	38	5
37	38	3
67	67	10
24	25	3
26	26	13
74	74	1
55	56	3
62	62	6
9	9	10
71	73	3
34	40	3
24	26	2
50	50	2
41	47	4
70	73	2
9	12	3
64	66	3
3	3	16
46	46	7
25	26	4
35	54	2
40	40	3
35	36	6
66	66	3
3	4	4
39	39	2
5	6	2
4	42	2
31	31	4
20	21	2
55	55	7
1	4	1
8	9	3
27	55	1
42	42	10
47	48	4
48	49	2
1	2	1
46	56	2
49	76	3
24	24	4
21	55	1
52	53	2
40	47	2
67	68	4
76	76	6
38	57	1
0	1	5
2	4	1
68	68	4
65	66	5
22	52	3
64	64	15
61	61	6
39	40	2
59	60	1
53	55	1
44	45	2
71	71	3
35	35	1
60	61	5
32	32	8
70	70	2
21	46	2
72	72	6
48	76	1
25	27	1
12	12	2
48	50	2
28	29	4
7	43	2
26	27	2
31	52	1
30	30	4
64	65	2
22	22	2
0	72	1
22	29	1
58	60	1
13	72	1
6	39	1
13	14	2
14	48	1
22	23	1
7	18	2
68	71	1
9	10	5
7	71	2
65	67	1
43	55	1
69	70	2
35	45	3
63	71	2
72	74	1
34	43	1
8	72	1
35	59	2
1	1	1
8	44	1
62	64	1
2	34	1
10	12	1
33	33	1
51	71	1
30	50	1
59	62	1
63	64	1
5	8	2
42	49	1
3	47	1
4	6	2
51	70	1
50	53	1
46	47	1
47	47	1
58	58	1
30	31	1
0	3	1
38	56	1
