53	54	2
63	131	3
113	114	1
94	94	6
50	89	3
101	105	4
86	86	8
135	135	1
132	133	4
8	56	1
130	130	5
119	119	8
22	22	2
108	109	3
104	104	14
103	118	2
73	73	4
83	84	2
65	66	4
7	21	1
100	103	1
132	132	8
64	65	1
28	28	1
55	55	6
53	53	10
59	68	2
12	13	3
72	72	8
16	16	3
89	90	3
58	58	7
82	84	1
0	1	1
60	122	3
107	107	4
56	57	2
75	75	6
26	27	1
133	133	4
66	67	6
122	129	2
71	71	6
127	127	2
62	62	7
8	8	2
70	70	7
52	52	3
0	0	7
78	78	4
105	128	2
19	20	3
64	127	3
36	59	2
89	98	1
51	51	1
81	110	1
115	116	5
10	84	4
52	53	7
10	27	2
1	1	6
38	43	1
112	126	4
134	134	5
1	30	1
77	77	5
72	73	4
77	130	1
44	45	2
79	79	7
16	21	2
93	103	1
131	131	1
65	65	8
121	121	7
85	85	4
90	98	3
132	134	1
86	87	7
124	129	1
81	81	1
100	100	2
111	111	1
62	126	1
6	6	1
60	60	3
106	106	8
45	45	2
45	69	2
43	80	2
99	99	10
122	122	2
91	95	1
38	63	1
57	58	1
35	35	9
25	38	1
88	88	3
109	109	3
59	59	1
112	129	1
25	97	2
33	34	4
108	108	5
121	122	2
98	98	5
8	111	1
94	96	1
62	63	3
63	63	2
57	57	6
78	82	2
66	66	3
113	113	7
56	58	1
2	75	2
118	118	3
67	84	1
74	74	4
115	117	3
48	48	2
120	120	3
38	38	4
20	21	4
47	47	2
71	104	2
30	30	3
9	15	4
109	110	1
61	61	1
50	51	1
61	125	4
7	111	2
2	6	1
88	90	2
95	95	5
115	115	5
128	128	6
93	93	2
116	116	5
8	98	1
82	82	2
11	11	3
62	131	1
29	29	4
12	15	3
120	134	1
26	26	4
117	118	1
105	111	1
25	27	1
3	30	4
93	97	2
66	88	3
67	67	2
107	121	2
73	101	2
82	83	2
107	111	4
80	80	3
117	119	3
45	47	1
59	93	1
78	79	6
61	64	1
30	32	1
121	123	1
81	84	3
117	117	3
21	105	3
92	92	1
23	24	3
108	121	1
27	28	1
87	107	1
44	53	1
19	19	5
9	28	1
94	95	1
51	100	1
32	32	1
129	129	3
69	100	2
36	36	2
118	119	4
8	105	2
96	96	3
114	114	4
43	94	1
94	99	1
91	91	1
83	125	1
84	84	6
67	69	1
4	4	3
109	114	1
83	83	2
106	111	1
3	4	1
105	106	2
7	19	1
69	69	3
45	48	2
9	9	4
62	115	1
75	105	1
123	123	1
54	54	3
102	102	4
130	131	2
62	78	2
123	130	1
16	86	2
6	20	1
122	123	1
49	50	1
66	85	1
105	127	1
43	43	4
50	54	1
63	64	2
82	111	1
25	98	1
118	135	2
59	60	1
88	108	2
84	86	2
15	28	4
69	135	1
65	68	1
57	125	1
27	27	1
110	111	1
33	37	2
117	125	2
126	126	3
70	76	2
5	5	2
9	87	2
61	62	2
13	14	2
83	85	2
49	49	1
68	78	1
105	105	3
88	99	1
45	78	1
124	124	2
118	120	2
48	49	2
5	12	2
56	56	1
4	32	1
6	106	1
84	85	1
115	119	1
118	130	2
4	5	2
79	106	1
3	76	1
84	87	2
125	125	1
99	103	2
3	69	1
45	52	2
106	121	2
103	103	4
93	94	1
2	24	2
64	104	1
103	104	1
8	106	1
117	122	1
126	128	1
47	51	1
16	17	1
108	117	1
8	11	1
18	19	1
81	85	1
114	123	1
9	10	1
121	134	1
13	13	1
8	17	1
118	122	1
64	69	1
58	68	1
66	87	1
7	8	1
91	92	1
69	70	1
77	115	1
110	117	1
60	85	1
93	95	1
127	128	1
70	71	1
96	97	1
34	34	1
