99	99	2
54	55	2
56	56	5
21	21	6
143	143	3
57	57	2
38	41	2
110	110	3
106	106	3
107	107	2
131	134	1
23	23	15
37	38	2
133	134	3
140	140	9
31	31	2
103	104	1
2	4	2
145	146	2
35	35	2
58	61	3
120	120	7
82	83	1
29	29	8
18	18	2
99	102	2
40	40	10
14	15	1
141	141	8
142	142	6
77	77	2
26	26	2
37	37	6
80	80	4
95	95	5
93	94	3
36	36	2
78	78	5
116	116	5
110	131	6
55	58	3
124	124	8
33	34	3
39	39	1
65	66	4
89	89	2
131	132	2
142	143	1
143	144	4
100	100	5
19	19	6
125	125	3
71	71	2
97	98	5
84	104	3
136	138	5
75	75	9
15	16	2
99	100	7
33	33	5
56	57	1
122	122	1
48	50	3
53	79	2
32	32	3
6	6	1
97	97	2
9	9	3
58	58	1
53	54	3
131	131	4
54	54	3
13	13	4
17	17	5
14	14	2
62	62	3
102	102	2
1	37	1
117	117	3
79	80	3
119	120	2
134	135	2
21	27	3
22	27	1
104	104	5
73	73	4
25	25	5
22	22	6
127	127	2
74	81	3
118	119	1
113	113	1
105	105	1
52	76	4
126	126	4
10	11	2
90	90	3
93	93	1
134	134	2
119	119	5
49	49	2
144	144	3
87	89	1
16	16	3
104	141	2
121	123	2
50	50	3
63	63	1
96	96	3
30	30	3
23	26	1
53	53	3
48	48	4
103	103	1
118	118	2
66	67	3
107	108	1
92	93	4
43	43	1
127	131	1
128	142	1
28	29	1
137	141	1
135	135	1
55	55	2
130	130	1
98	99	2
20	20	3
38	38	4
98	104	1
123	123	3
98	107	1
94	95	4
82	82	1
18	19	2
66	66	4
124	126	1
131	133	1
121	128	1
11	11	1
84	97	1
34	34	2
90	94	3
8	9	1
65	65	2
27	28	3
92	92	3
14	16	1
88	92	5
93	95	1
32	35	1
127	129	1
139	139	1
74	121	2
1	2	1
94	94	1
80	81	1
59	59	2
136	136	1
139	141	1
76	76	1
139	140	1
129	129	1
59	60	2
41	42	1
4	41	1
81	82	2
136	139	1
69	69	1
74	74	2
97	107	1
86	86	1
88	91	2
28	28	1
124	125	3
106	107	1
90	91	1
115	118	1
4	4	1
15	17	1
140	141	1
