37	38	4
83	83	2
160	160	12
135	135	12
105	106	11
141	143	5
33	41	4
82	102	1
152	152	15
38	38	13
53	53	17
14	14	10
13	13	9
5	6	5
143	147	3
91	96	2
126	126	11
103	104	2
140	141	5
62	62	3
116	145	2
125	126	5
39	39	10
80	84	1
156	156	9
138	138	6
105	105	13
138	141	1
40	51	6
125	125	12
40	40	6
20	20	9
19	19	16
129	129	9
24	24	13
50	50	8
1	1	6
149	152	6
6	7	8
34	35	7
110	110	10
69	69	5
103	103	4
136	136	3
6	6	16
93	95	4
47	55	5
88	89	6
26	28	3
121	121	1
36	37	5
47	125	1
119	119	2
46	47	8
7	7	12
84	85	3
155	155	7
158	158	3
40	52	3
22	23	3
23	23	8
106	107	4
45	46	4
65	65	1
56	56	12
3	8	2
39	40	2
154	158	1
118	146	3
10	12	4
43	43	18
27	28	5
4	4	6
148	149	6
114	114	7
48	48	10
90	90	8
153	154	10
3	3	13
139	140	1
100	100	2
117	118	3
85	86	2
84	90	3
127	127	5
146	146	5
11	11	14
72	72	5
34	34	9
8	8	14
26	26	8
0	0	11
115	115	5
71	71	4
73	73	7
22	22	7
93	93	5
140	140	7
118	120	2
75	96	2
74	74	6
108	108	11
104	104	4
133	141	3
92	92	3
10	10	17
129	130	3
78	79	2
87	87	5
38	39	1
9	10	10
81	82	5
99	159	3
73	74	1
46	46	9
41	41	6
143	143	4
5	5	11
113	113	5
86	86	4
75	77	1
63	69	4
48	52	3
82	82	9
107	148	1
12	12	6
137	138	9
17	18	3
118	118	17
138	142	4
134	141	3
48	127	1
64	64	5
2	2	14
128	128	13
49	125	5
163	164	7
116	146	2
0	1	13
121	122	4
48	55	1
157	157	3
111	112	4
26	27	3
14	15	3
44	44	6
91	91	3
80	81	4
110	111	10
68	107	4
18	18	18
27	27	5
134	135	3
75	84	4
124	125	4
56	122	2
170	170	1
117	117	5
164	164	4
80	83	1
35	35	6
151	152	7
10	28	2
48	49	3
8	9	8
108	109	10
49	53	3
112	114	5
142	142	5
76	87	1
4	5	4
75	91	1
24	25	13
63	65	1
147	153	4
112	112	5
168	168	8
99	99	2
63	170	2
39	41	3
144	144	5
141	141	5
135	137	2
137	137	3
63	63	4
54	55	2
20	21	2
63	64	5
0	2	1
57	57	4
25	25	9
115	146	3
149	149	9
142	143	3
109	114	1
139	139	5
98	99	8
49	49	12
21	24	2
36	36	3
92	95	2
76	76	10
147	158	4
19	20	2
130	130	4
16	16	11
37	37	6
134	134	6
141	142	1
156	166	1
147	147	9
47	48	2
102	102	6
109	110	5
159	159	7
133	133	3
52	52	4
91	93	2
55	55	13
44	45	5
136	137	5
88	88	13
126	128	1
124	124	3
98	98	3
9	9	7
124	126	2
99	158	2
154	154	7
57	63	1
167	167	2
159	162	3
42	42	8
158	160	2
84	84	6
15	15	5
165	166	5
96	97	2
13	15	2
106	106	3
105	152	2
103	107	3
3	7	1
20	25	1
113	114	3
145	145	7
116	116	4
51	125	1
2	3	1
64	66	2
75	76	3
136	139	4
70	71	3
128	129	2
109	109	7
16	24	3
149	153	1
13	14	2
43	44	4
45	48	1
42	43	5
69	70	7
54	54	7
106	147	2
21	22	3
15	17	1
46	49	1
154	155	3
54	56	3
163	163	5
44	127	1
53	54	2
165	167	3
17	19	3
114	120	2
1	2	7
39	123	4
17	17	10
96	99	3
67	67	1
148	148	3
161	161	3
20	22	2
0	5	2
1	6	2
0	45	1
150	150	5
111	111	3
158	159	3
77	85	3
17	24	1
71	72	3
127	128	2
75	87	4
101	102	1
49	52	1
77	77	2
17	25	1
25	26	4
92	93	1
139	141	3
69	121	3
33	33	1
3	4	2
156	157	4
57	62	1
132	132	2
125	128	3
40	41	1
41	43	3
23	24	3
89	89	4
127	129	1
56	58	1
77	78	3
131	131	4
107	107	3
148	152	3
70	70	1
76	79	1
116	117	3
18	19	4
147	148	3
143	146	1
119	120	4
20	23	2
94	94	1
165	165	7
10	13	2
42	44	1
143	144	2
151	151	5
144	147	2
48	53	2
138	149	1
119	121	4
64	65	1
78	86	1
36	41	1
8	13	2
8	10	1
44	46	1
144	145	2
101	101	5
34	36	2
89	90	3
125	130	2
21	26	1
155	156	2
66	66	2
162	163	3
72	76	1
100	105	1
107	147	2
163	165	1
104	105	2
104	107	1
42	165	1
99	156	2
134	154	2
63	67	1
159	161	1
47	47	5
115	120	2
75	75	5
27	34	1
11	13	3
38	41	1
80	80	2
21	21	4
73	94	2
95	96	1
127	166	1
76	78	1
101	112	1
157	158	2
40	45	4
14	16	2
109	113	1
83	84	2
162	164	1
6	12	2
99	100	1
115	116	1
51	52	1
157	159	3
96	96	2
28	28	2
102	103	1
114	145	4
142	149	2
9	20	1
144	146	1
115	145	5
133	134	1
128	132	2
122	122	1
106	146	1
56	57	1
129	140	2
153	155	1
7	8	1
82	83	3
75	78	1
41	42	2
112	113	3
87	88	1
135	136	1
78	90	1
120	120	1
138	140	2
6	8	1
97	97	3
48	50	2
78	91	1
6	9	1
91	92	1
43	45	1
54	57	1
66	97	1
104	106	1
71	75	1
109	111	2
50	51	1
42	160	1
33	35	1
111	113	1
84	152	1
10	11	2
47	126	1
131	136	1
45	52	1
75	86	1
133	138	1
104	108	1
136	138	1
126	170	1
