135	136	8
134	135	2
137	138	1
15	73	6
49	126	2
136	137	5
11	39	3
116	116	6
63	96	5
79	113	1
113	113	9
32	33	6
2	2	2
76	77	4
36	36	11
83	84	2
89	89	6
128	128	9
11	11	6
88	89	1
102	128	6
124	125	12
14	14	4
68	97	1
127	127	7
70	70	10
139	139	5
26	39	1
128	135	2
104	140	6
121	121	3
112	113	1
122	122	9
79	80	7
119	120	4
129	130	3
138	139	2
89	90	7
63	92	5
102	102	9
11	30	2
65	97	1
42	42	2
136	136	15
118	120	3
75	76	4
98	98	7
111	111	1
31	92	1
116	133	4
114	120	1
5	25	1
110	111	4
134	134	3
51	52	2
88	88	3
49	50	4
114	118	2
12	65	2
80	81	5
142	142	3
60	60	4
18	18	3
135	137	4
118	119	3
133	138	1
129	129	10
102	103	3
118	118	7
25	26	7
107	109	1
123	123	2
41	41	4
69	70	3
86	125	1
27	33	4
128	134	2
9	71	3
133	133	3
27	27	1
120	121	4
110	110	2
132	132	5
98	112	1
109	111	2
130	131	1
142	143	1
114	114	9
78	81	9
9	9	9
50	64	3
96	96	2
126	126	7
51	51	1
14	73	3
3	3	1
112	112	2
67	74	2
15	38	4
42	43	3
58	59	4
0	1	1
3	9	3
65	66	1
80	80	7
100	127	3
18	19	1
89	129	1
138	138	7
66	70	2
97	98	5
125	145	2
140	140	5
139	140	1
30	30	5
83	83	4
38	38	6
79	86	3
70	71	4
133	139	1
56	96	6
73	73	4
84	84	8
135	135	1
94	140	2
108	108	9
88	90	3
130	130	5
75	82	1
61	126	4
63	88	2
78	78	2
9	19	5
11	99	2
52	52	3
14	16	5
56	92	4
31	33	2
124	124	3
24	24	2
2	55	3
117	117	5
28	28	2
55	62	4
131	131	7
101	102	4
82	85	2
126	133	1
64	65	3
13	13	3
92	121	2
16	90	3
114	115	4
104	104	2
67	67	3
9	10	4
19	25	1
106	119	3
94	95	1
36	37	4
21	102	4
69	78	2
103	103	4
25	34	1
51	138	2
74	75	1
50	52	1
133	134	5
23	32	1
11	43	1
38	50	4
9	20	2
21	40	1
47	47	3
76	78	5
12	55	2
0	28	1
113	123	1
21	47	3
30	121	2
8	20	1
12	20	2
3	4	3
107	112	1
1	53	2
49	49	1
62	62	6
90	117	1
97	97	1
105	105	1
43	43	2
31	31	1
55	55	5
119	119	2
21	21	2
40	40	2
94	94	3
81	81	2
20	37	2
80	110	1
108	112	3
20	20	3
50	66	1
99	99	2
10	24	1
64	72	3
109	109	3
146	146	1
22	22	4
39	41	1
39	39	1
94	119	2
125	126	1
135	140	2
77	78	2
53	55	2
26	26	1
126	131	2
139	141	1
129	139	2
42	120	1
62	66	1
39	40	2
115	118	1
6	6	1
126	129	1
125	125	2
107	107	1
128	138	1
107	114	3
61	61	3
109	110	1
119	124	1
53	54	1
106	130	1
131	132	1
15	15	4
54	54	1
142	145	1
76	76	1
103	107	1
115	115	1
101	101	1
113	114	1
66	99	2
26	27	1
65	65	1
72	85	1
32	32	1
134	140	1
87	89	1
28	66	1
127	137	1
51	61	1
79	82	1
8	41	2
17	18	1
99	100	1
87	142	1
90	121	1
50	60	1
120	139	1
21	50	1
130	137	1
77	77	1
