119	119	13
105	105	5
17	17	4
33	38	6
124	126	6
117	117	9
71	73	4
65	65	6
6	7	3
26	27	4
56	56	4
118	118	9
51	51	8
70	117	1
8	48	2
60	60	11
41	41	10
104	117	3
119	127	2
2	43	2
90	90	9
1	1	4
13	13	5
53	53	9
7	7	8
49	56	2
117	128	2
16	16	17
116	117	3
73	74	2
64	64	8
114	115	4
15	85	5
83	84	8
29	31	1
74	85	2
25	26	1
6	6	7
75	75	7
82	84	6
99	126	2
111	111	8
104	104	4
23	23	4
81	81	6
28	30	2
107	107	4
38	43	1
58	58	9
130	130	7
113	113	7
29	30	5
6	32	5
50	50	11
7	92	1
125	127	7
13	14	5
98	98	3
10	10	3
26	40	5
34	34	3
18	21	8
96	105	3
33	33	1
33	34	1
8	9	2
44	44	4
121	121	7
59	61	1
101	101	3
11	11	3
122	122	7
120	121	2
5	34	3
129	129	13
99	99	5
73	73	5
12	12	7
50	51	4
52	53	4
10	15	6
76	96	3
48	49	5
44	45	9
101	102	4
112	113	5
91	92	3
108	109	7
83	87	5
120	120	13
93	94	1
76	76	8
72	72	1
49	49	3
38	38	10
53	54	4
112	112	7
132	132	6
30	30	1
15	16	7
51	52	3
108	108	4
45	45	3
80	81	1
89	90	2
15	15	2
47	47	9
19	20	14
14	16	6
100	100	2
26	26	5
106	106	3
85	85	3
57	57	5
54	54	9
104	105	7
3	4	2
83	83	3
125	126	4
26	31	3
77	78	3
82	82	4
46	47	6
3	5	4
115	115	4
70	71	4
42	43	3
109	113	2
110	111	4
67	68	2
91	95	2
84	84	5
4	5	1
75	77	4
66	86	2
39	39	5
4	29	1
12	13	2
82	87	3
92	92	3
114	114	11
90	91	3
54	64	2
43	44	3
27	28	3
80	87	2
20	45	2
65	66	2
99	118	2
22	22	1
105	106	6
24	29	4
41	43	6
71	72	5
112	120	2
2	24	2
67	67	5
63	66	2
127	127	4
114	116	4
25	30	3
128	131	1
55	55	6
32	32	4
56	72	3
125	125	6
69	70	4
97	127	1
74	74	7
19	19	5
24	24	3
96	96	7
131	131	1
97	97	2
46	46	1
110	110	6
120	132	2
29	29	1
18	19	6
11	13	1
107	128	3
108	132	1
4	4	4
118	129	4
94	94	7
98	101	1
0	0	4
56	57	3
80	80	4
88	89	2
52	52	16
94	124	4
5	5	2
8	8	1
19	21	5
106	108	1
129	133	1
65	68	4
15	18	2
49	50	1
128	128	6
115	120	1
113	114	5
59	59	2
48	48	5
77	82	1
108	130	1
123	123	8
3	3	1
114	131	1
65	67	3
28	29	2
9	26	4
40	40	4
61	62	3
94	95	1
60	71	3
62	63	5
21	21	1
70	70	1
20	20	4
107	127	1
111	112	2
102	103	1
129	130	2
19	30	2
42	42	4
117	130	2
13	78	4
102	102	1
96	97	2
100	101	4
55	56	4
2	23	2
108	128	3
10	12	1
95	125	2
124	125	2
107	108	1
103	104	2
72	75	1
8	27	2
124	124	2
119	129	2
76	77	1
103	103	1
84	85	2
78	80	1
5	6	1
4	22	1
57	58	1
14	14	4
23	79	2
43	43	2
20	48	1
27	31	1
31	31	1
97	98	1
78	81	2
126	126	2
68	68	2
115	116	1
30	31	3
77	77	4
108	113	2
25	29	1
51	53	1
3	31	1
23	30	1
15	28	1
54	88	1
99	100	2
133	133	3
54	57	2
89	89	3
1	24	1
51	92	1
85	88	1
99	102	3
24	27	1
95	95	1
79	79	1
116	116	1
83	86	2
22	29	1
126	127	1
23	25	2
63	64	1
86	88	1
55	57	1
96	104	1
109	109	3
51	109	1
54	89	1
4	6	1
81	82	1
129	131	2
88	88	1
22	23	1
7	20	1
111	113	1
42	44	1
45	46	1
77	81	2
29	38	1
87	133	1
107	126	1
68	82	1
78	78	1
0	6	2
66	67	1
3	32	1
132	133	1
110	113	1
38	42	1
73	81	1
109	115	1
29	55	1
