120	120	6
8	8	20
92	99	3
56	56	20
166	166	9
5	5	20
99	99	14
115	116	8
113	113	9
107	107	15
111	112	2
44	111	2
141	141	8
70	70	21
108	109	9
22	23	15
164	166	2
106	107	5
63	99	6
7	7	33
71	71	16
62	63	3
24	24	18
36	36	18
100	100	27
20	23	3
102	102	6
149	150	12
163	163	9
61	62	1
78	78	8
150	150	13
142	143	1
127	127	26
126	127	3
129	146	9
88	103	6
57	103	1
123	123	9
75	75	10
94	94	8
133	133	13
3	6	2
14	14	10
55	56	3
46	46	21
97	97	10
1	1	27
37	37	22
84	84	9
116	119	1
79	79	3
78	96	2
151	151	10
34	34	28
1	2	16
130	130	16
98	98	3
140	140	4
110	110	23
134	134	27
43	43	32
4	4	8
91	91	6
96	97	4
21	22	3
129	129	12
25	25	13
75	76	3
93	93	12
105	105	12
63	70	4
129	130	7
138	138	8
62	62	7
56	138	5
21	21	7
45	45	17
164	165	4
105	106	5
123	126	1
3	3	15
68	68	7
155	156	10
57	57	15
52	157	6
99	100	7
72	72	14
5	6	5
47	47	14
131	164	2
89	107	3
91	93	2
109	110	7
130	165	4
45	46	8
139	141	3
141	142	4
3	4	6
96	96	16
26	37	2
51	106	2
154	154	13
113	121	1
121	124	3
164	164	13
127	161	3
40	41	6
64	64	8
130	146	1
126	126	9
117	117	15
142	142	2
157	157	3
74	74	22
20	158	8
85	85	17
18	20	3
53	54	7
108	108	7
18	18	3
63	63	18
50	51	10
38	38	5
46	47	6
100	156	2
147	149	9
97	98	9
35	35	16
10	10	9
48	136	3
64	78	3
33	36	3
17	19	4
9	9	16
43	107	6
87	87	8
153	153	9
128	162	4
2	3	4
91	92	2
6	7	8
42	42	23
117	118	8
149	149	9
132	132	12
63	64	3
63	100	2
0	2	1
70	116	3
84	85	5
156	156	4
83	83	10
72	122	2
152	152	9
19	20	3
20	20	16
5	13	1
19	19	14
116	116	24
46	106	1
103	104	7
25	34	1
119	119	5
88	89	3
77	77	8
6	13	3
27	27	6
150	152	5
111	111	5
41	41	15
17	17	7
125	125	15
69	77	8
28	28	1
155	155	8
137	137	8
135	135	6
147	147	7
89	90	8
15	15	6
161	162	5
64	69	2
47	49	12
44	44	24
148	149	10
55	168	1
6	8	10
69	69	13
17	18	5
90	106	2
160	160	7
94	98	2
76	77	2
49	49	16
160	168	4
39	40	3
13	14	6
50	52	1
119	120	3
16	16	8
19	159	5
136	136	8
11	11	11
167	167	8
122	122	5
66	131	5
69	71	2
121	122	3
12	12	2
74	84	7
101	101	11
88	88	12
50	156	4
40	40	4
114	114	5
143	144	5
35	76	2
64	125	2
82	82	5
76	76	20
26	26	6
73	73	4
51	51	4
2	2	18
20	22	5
53	53	14
74	85	2
127	133	1
113	114	1
115	115	3
106	106	19
55	55	8
23	23	7
18	19	7
22	22	12
142	146	1
158	158	11
81	82	5
139	139	8
90	90	20
81	81	7
0	1	7
65	66	1
121	121	4
54	144	2
101	151	2
101	102	4
78	80	2
93	117	3
24	74	2
39	39	5
86	87	3
135	136	5
19	160	4
159	159	6
81	104	2
127	128	3
9	10	1
140	141	5
113	117	4
118	118	7
103	103	12
75	78	1
109	109	9
58	58	2
114	115	3
112	112	8
128	129	3
159	160	2
139	140	7
42	43	6
52	52	13
49	56	1
85	86	3
91	95	7
46	49	2
13	25	2
75	83	1
0	0	5
43	113	1
124	124	5
151	152	6
9	12	1
87	88	1
86	86	3
87	153	1
87	152	1
41	110	2
129	167	3
35	36	9
95	99	5
102	103	6
65	67	3
161	161	6
98	99	3
102	105	1
44	45	13
145	147	6
33	33	3
130	131	1
80	95	4
167	168	3
93	94	8
124	125	4
73	116	1
56	58	4
82	141	3
120	121	5
113	127	3
163	164	4
73	105	2
39	85	1
94	97	2
70	72	3
2	6	2
13	13	12
106	136	2
44	53	1
33	34	2
89	89	7
145	146	4
34	35	3
157	158	2
35	106	2
16	18	3
133	136	3
66	66	2
131	131	10
131	162	3
67	71	3
20	21	4
11	12	3
16	39	4
71	73	3
54	54	1
47	48	4
92	93	1
48	50	2
110	111	4
165	165	6
4	5	8
51	104	1
148	148	7
57	61	5
56	121	4
79	80	1
69	78	6
116	120	1
37	170	4
90	105	4
57	64	1
17	152	3
38	109	1
160	167	1
6	6	12
67	67	2
169	170	2
146	147	4
23	73	2
117	164	3
128	131	1
49	153	3
66	71	2
143	148	1
128	164	1
11	13	3
69	76	1
48	48	3
24	25	2
34	42	1
33	35	3
162	163	4
49	152	5
92	92	3
89	137	2
104	104	2
162	162	1
50	106	4
104	105	4
143	143	7
100	101	2
158	162	2
106	135	1
134	140	4
82	83	2
153	155	1
138	139	5
69	70	4
146	148	2
50	50	2
142	145	1
93	99	4
39	109	3
144	145	6
4	10	1
48	49	1
26	27	4
125	156	1
44	63	1
133	134	4
134	135	1
8	9	3
111	122	1
17	38	2
70	95	2
136	137	1
96	98	2
102	104	1
88	106	2
53	74	1
72	73	2
158	159	1
49	50	3
119	121	1
122	123	1
37	38	3
101	104	2
159	169	1
10	12	1
17	163	4
110	166	3
111	121	1
112	159	1
77	81	1
168	170	2
143	146	1
83	141	4
68	69	1
47	170	1
70	96	1
90	116	2
128	128	1
146	146	6
46	100	1
125	126	1
113	115	1
74	75	3
76	83	1
52	53	1
133	135	4
23	24	1
37	39	1
154	156	1
112	113	3
80	83	1
161	165	1
123	124	1
36	92	2
25	26	3
1	5	4
127	139	1
112	116	1
14	15	5
162	164	1
166	168	2
50	62	1
137	141	2
45	100	1
80	81	4
97	117	1
83	140	1
150	151	2
73	74	2
88	105	3
95	98	1
56	57	1
10	24	1
81	105	2
165	166	5
100	103	1
38	39	5
90	91	1
12	13	2
114	122	1
39	86	2
134	143	1
134	136	1
131	167	2
68	128	1
15	16	5
76	78	1
74	108	1
19	23	1
84	86	2
120	122	1
92	95	1
101	106	2
21	25	1
51	155	1
35	84	1
100	104	1
53	106	1
36	37	1
105	115	1
168	169	1
169	169	1
56	107	1
51	52	1
24	86	1
68	77	1
65	68	1
5	12	1
5	14	1
132	143	1
74	107	1
17	37	2
46	90	2
145	145	2
106	114	1
44	106	1
5	8	1
80	82	1
95	95	1
58	62	1
41	42	1
63	79	1
5	10	1
64	101	1
46	66	1
