78	78	15
80	82	3
62	64	3
50	133	1
60	60	7
3	64	4
57	85	4
4	17	4
42	82	1
26	27	5
16	76	3
93	93	11
66	66	17
71	71	5
104	110	4
31	31	2
100	100	5
62	71	1
67	67	6
6	6	12
63	63	12
28	91	2
47	48	3
61	61	9
96	102	6
111	131	5
11	11	12
37	94	2
21	39	2
110	111	2
39	39	5
128	129	2
30	30	7
119	120	8
6	11	5
76	76	12
113	115	1
8	46	2
81	81	3
42	42	8
29	29	8
67	69	4
44	45	10
92	92	3
33	33	13
3	3	6
2	116	3
4	5	5
25	26	4
94	113	2
46	46	20
34	34	7
19	21	4
41	42	3
65	65	21
126	133	2
107	107	4
8	8	10
85	85	4
45	48	3
45	99	1
63	74	2
112	121	7
23	24	6
64	64	18
1	2	2
103	105	3
18	18	6
35	35	9
62	62	10
83	83	6
97	99	2
4	4	10
126	126	5
40	41	2
47	47	11
112	112	8
5	6	1
32	76	2
17	18	3
0	0	5
19	19	10
79	80	4
45	46	2
44	44	5
77	83	2
110	110	4
32	62	2
73	73	8
59	59	3
101	102	7
90	90	9
2	2	11
26	26	12
8	17	4
91	97	1
20	20	9
120	120	1
130	131	2
124	124	2
115	132	2
14	19	1
90	101	2
129	129	4
27	27	9
9	100	2
113	122	2
4	50	3
122	122	3
36	36	16
22	22	3
49	50	2
72	73	4
59	60	1
78	79	4
13	61	2
101	101	10
119	119	10
97	100	4
103	103	2
38	38	4
127	127	4
16	16	3
91	115	2
115	115	11
131	131	5
35	36	3
78	133	4
91	92	4
80	80	7
12	97	3
32	32	9
29	77	1
112	113	6
44	49	3
95	95	7
73	74	3
33	34	2
45	45	15
98	98	6
96	96	8
20	37	1
134	134	1
7	7	3
58	59	3
75	75	5
38	100	2
79	79	9
84	84	7
28	28	5
58	64	5
27	96	3
94	99	4
68	68	6
16	22	2
99	100	2
12	12	11
72	72	4
51	57	1
47	94	3
74	74	6
26	31	2
9	9	8
0	25	1
32	35	3
126	127	5
34	36	1
0	4	1
96	98	1
69	69	5
92	93	1
117	117	2
123	123	2
121	121	4
132	133	1
41	43	6
13	13	17
62	63	3
20	21	2
6	94	1
77	79	1
115	116	1
95	96	3
106	107	8
6	7	12
41	41	6
14	78	4
105	116	2
47	100	1
26	80	2
25	49	4
41	49	3
15	15	6
70	70	5
47	95	3
49	96	1
56	56	6
64	65	2
30	31	1
8	33	3
70	71	2
82	82	5
25	25	1
44	47	1
9	45	4
0	63	2
106	106	3
92	103	1
35	94	2
96	99	2
28	31	2
25	62	2
23	23	4
38	43	1
112	116	3
3	4	2
57	57	3
55	55	10
77	77	9
88	88	3
37	41	4
67	68	2
89	90	4
124	125	2
40	40	3
35	96	4
25	82	2
21	37	2
11	26	5
21	21	3
22	36	3
13	45	1
23	42	1
40	98	2
10	46	4
44	48	4
113	113	3
97	98	1
40	42	1
45	78	1
11	93	2
4	91	1
27	28	5
32	33	3
79	92	1
99	99	3
60	61	1
45	79	1
132	132	1
20	22	2
108	108	3
14	23	5
4	41	3
27	79	1
130	130	3
17	17	7
87	88	2
45	76	1
80	84	1
127	128	4
125	125	6
102	106	1
84	90	2
105	105	4
97	97	4
14	14	3
68	69	3
21	25	3
103	106	4
33	47	1
1	87	1
123	124	1
85	92	1
41	97	1
58	80	3
5	5	5
65	101	4
35	93	2
26	79	1
39	42	5
79	81	4
82	83	2
102	125	2
37	103	1
2	3	2
13	14	1
104	105	4
117	118	4
114	114	2
40	62	3
45	57	1
29	42	3
79	132	1
46	47	2
86	87	2
102	102	3
9	46	4
58	58	7
35	95	1
127	133	2
98	99	2
65	66	7
61	75	3
94	98	2
43	58	4
27	30	2
94	94	1
85	93	2
107	109	2
9	10	2
11	13	4
45	47	1
21	82	1
43	46	4
18	20	1
22	80	3
26	30	1
63	75	1
10	16	2
3	46	2
87	87	2
23	25	2
26	47	1
111	112	2
37	37	3
28	45	1
79	84	1
50	95	1
11	17	3
99	102	2
86	86	1
45	64	1
69	70	1
18	39	1
16	77	1
128	128	6
24	25	2
88	90	2
29	79	1
10	10	1
47	99	1
88	115	1
79	133	2
83	84	2
93	94	2
8	10	1
80	88	1
104	104	2
37	38	3
48	95	1
41	99	1
126	132	1
8	93	2
77	78	2
51	56	1
46	61	1
111	111	1
12	14	1
133	133	1
42	43	1
49	49	1
11	12	1
106	110	1
57	71	1
123	128	1
36	37	1
97	101	1
20	25	1
114	133	1
20	36	1
109	109	1
114	117	1
15	22	1
63	70	1
7	16	1
57	59	2
8	45	2
5	17	1
56	58	1
126	128	1
43	43	1
28	30	1
5	18	1
16	17	1
56	57	1
63	64	1
117	133	1
89	94	1
73	86	1
11	40	1
120	121	1
93	96	1
57	58	1
42	54	1
84	85	1
66	90	1
48	48	1
7	91	1
18	38	1
15	38	1
90	115	1
