0	0	11
132	136	3
98	98	21
131	131	39
7	25	8
36	36	16
114	114	15
8	122	3
93	93	9
128	128	19
22	22	37
116	116	11
4	5	10
115	124	7
136	136	11
90	94	4
96	96	9
18	18	15
3	6	2
121	121	8
6	6	20
110	118	2
71	98	5
131	133	2
137	138	7
72	72	13
17	17	9
87	87	15
139	140	8
20	20	10
14	14	3
16	16	14
25	25	10
111	111	41
86	86	11
106	106	5
11	13	6
135	136	4
16	17	10
19	26	2
35	36	15
109	111	2
133	134	20
82	82	11
10	10	11
100	100	8
135	135	17
127	127	24
117	118	10
82	85	1
132	132	30
11	11	9
19	19	24
81	81	18
30	31	10
29	29	5
115	115	13
114	115	3
75	76	6
119	119	8
123	123	61
125	125	22
31	32	1
85	86	4
133	133	20
110	110	26
132	133	6
117	117	24
14	29	3
74	74	23
5	5	29
113	113	7
37	37	12
22	38	3
71	71	17
121	122	6
108	108	13
125	126	10
75	77	3
94	95	4
106	107	9
122	122	26
118	118	16
30	30	3
134	134	36
103	104	2
94	94	9
127	128	6
113	114	3
23	23	7
85	85	14
104	104	6
131	137	2
91	91	13
33	33	17
129	129	21
103	103	29
3	5	8
26	26	19
9	10	9
124	124	27
3	3	11
8	9	8
105	107	6
9	24	1
25	26	1
126	130	1
79	79	3
130	130	51
97	99	7
97	97	18
89	89	17
38	38	13
95	131	4
121	123	8
5	108	2
75	75	15
28	28	13
108	109	2
12	12	7
97	98	12
90	91	7
24	76	3
81	82	5
8	27	1
123	124	17
21	36	3
6	27	1
84	84	10
21	21	16
26	86	3
33	38	2
83	85	2
78	78	9
128	129	8
139	139	18
4	4	22
76	76	9
138	139	6
8	8	6
79	110	2
138	138	6
131	132	6
134	135	16
2	2	7
79	80	1
111	112	8
9	9	2
136	139	2
33	34	8
102	103	8
83	83	10
137	137	24
1	1	6
115	125	4
4	13	1
23	73	4
11	20	2
1	7	5
111	127	1
35	35	16
105	105	2
93	128	2
106	119	6
77	77	4
83	84	10
88	133	4
24	24	5
92	92	6
6	20	1
73	77	3
95	96	2
88	88	18
22	23	3
73	73	13
118	119	5
120	122	7
74	75	10
86	87	1
2	6	6
7	7	16
110	111	4
95	95	15
21	23	5
101	102	5
88	94	3
17	18	7
120	120	12
130	131	3
7	117	2
101	101	23
111	125	1
127	129	4
27	29	5
74	77	3
21	27	3
106	118	2
111	114	1
34	34	12
86	107	4
28	30	3
32	32	12
34	36	3
126	126	28
105	106	1
17	38	2
84	85	2
140	140	17
82	84	3
100	129	9
93	95	2
10	11	9
27	28	3
30	32	4
71	72	6
6	7	4
80	90	2
85	87	1
77	78	6
84	92	1
120	123	3
89	94	1
81	83	3
12	13	2
126	127	12
3	4	1
34	35	2
108	111	1
80	80	9
116	117	2
108	110	3
102	102	9
23	26	7
110	125	5
71	73	3
99	125	1
119	122	7
81	94	1
71	116	3
89	125	2
11	12	4
85	119	2
77	100	1
14	15	2
111	116	1
22	76	2
133	136	1
98	99	10
127	130	1
125	127	2
76	77	2
125	132	2
28	31	2
20	21	3
8	10	3
79	82	1
72	73	2
24	26	5
73	74	2
5	6	4
8	28	2
22	75	1
3	75	3
37	133	5
26	27	4
103	118	2
93	94	2
24	77	3
115	116	7
73	79	2
108	120	1
110	116	2
26	29	3
25	76	6
101	119	2
117	119	3
24	78	2
21	114	5
6	75	1
88	89	4
28	29	2
7	11	2
13	13	14
87	88	7
80	81	1
92	93	1
99	99	7
84	116	2
3	12	5
31	31	1
15	27	3
86	106	2
28	32	3
29	30	3
15	15	1
15	16	3
109	109	7
8	12	6
36	38	2
102	104	2
112	112	5
92	130	1
129	130	11
19	27	1
104	106	4
115	123	4
105	108	2
1	9	3
111	123	3
90	90	4
27	27	3
21	22	3
0	2	1
90	115	5
36	130	1
13	31	1
124	125	4
38	76	3
109	110	2
21	32	2
86	88	2
119	120	1
7	13	2
111	115	4
78	116	2
112	113	1
18	83	1
91	96	2
136	137	2
75	116	1
21	35	2
122	123	3
23	25	2
14	17	3
101	128	1
36	37	1
24	25	3
104	107	2
88	132	1
37	38	3
118	121	2
85	118	1
95	129	1
18	32	1
6	8	1
21	26	2
132	139	1
0	1	1
7	12	1
133	139	1
24	74	1
38	39	1
21	25	1
17	28	1
104	105	1
19	21	1
79	116	1
0	7	1
27	31	3
74	110	2
103	120	1
2	3	1
110	114	1
14	33	1
2	10	1
116	125	1
18	19	1
74	116	1
6	22	1
