30	38	5
0	1	2
2	2	4
139	139	5
0	0	7
132	134	2
113	113	9
127	127	13
135	135	8
3	4	2
15	45	3
121	124	2
169	169	3
53	53	8
187	187	10
112	112	1
130	130	10
156	156	2
4	4	11
14	31	2
138	177	3
29	38	4
179	179	8
107	143	4
121	121	11
16	16	10
124	125	4
20	20	4
70	70	8
39	40	5
107	107	9
34	35	7
40	41	1
143	143	3
142	142	4
3	6	2
100	107	3
3	3	8
100	100	4
190	190	7
103	154	3
106	106	6
171	171	10
6	6	4
30	30	6
102	103	12
197	197	4
50	50	10
44	44	3
111	111	8
104	151	3
180	180	10
120	120	4
81	81	2
18	18	10
144	145	5
170	183	4
173	173	14
99	144	1
192	192	9
107	156	2
119	119	2
25	26	14
13	128	2
73	74	2
24	24	13
109	109	4
122	122	5
96	101	1
159	160	2
33	33	12
133	133	8
71	71	4
108	108	6
31	33	2
8	8	8
146	149	4
72	72	7
140	140	5
58	60	2
191	191	5
23	23	7
183	183	3
184	184	10
144	144	9
196	196	17
191	192	7
134	134	7
40	40	5
132	139	3
146	146	6
126	126	8
156	180	1
79	80	8
195	196	5
82	84	4
105	106	1
34	34	5
34	38	2
152	152	5
157	157	6
161	161	5
138	139	7
185	185	3
167	168	8
76	87	3
74	123	7
64	64	12
103	103	4
41	41	2
2	3	5
21	21	7
126	127	3
73	76	3
193	193	3
104	104	12
43	43	3
83	83	3
175	175	14
150	150	13
160	196	1
169	170	5
108	109	5
57	57	6
68	68	10
77	78	1
84	84	3
132	135	4
135	140	2
70	71	4
25	25	7
17	45	3
99	123	1
140	189	2
51	51	8
19	22	1
153	163	3
115	116	2
87	87	3
153	153	6
16	33	1
153	164	1
42	65	1
69	69	6
3	5	5
89	126	1
161	167	4
62	73	2
151	151	15
153	154	2
195	195	10
12	40	1
154	154	6
186	186	4
9	9	8
18	19	3
55	58	2
73	75	4
148	148	6
131	131	4
6	7	8
76	76	6
168	169	3
86	87	3
15	63	1
35	35	4
146	150	3
103	105	2
62	63	1
179	182	2
24	28	3
156	190	1
15	15	2
19	42	2
57	95	4
31	32	1
42	42	6
62	64	4
189	189	8
35	40	2
36	36	7
109	110	3
176	176	3
47	48	2
177	177	4
105	142	3
15	23	1
181	181	7
47	47	1
174	178	7
16	63	4
123	124	1
114	114	4
64	73	3
115	115	4
163	163	10
38	40	1
174	175	2
89	124	1
42	44	4
190	197	2
142	170	3
194	194	3
159	159	5
182	192	3
43	44	3
127	129	2
12	13	1
178	178	2
14	14	1
30	37	1
13	14	2
183	185	4
46	46	6
11	11	2
13	13	9
173	175	3
188	188	4
55	55	6
72	116	3
162	162	5
138	138	5
85	136	5
82	85	9
20	41	1
131	132	1
114	188	3
133	192	2
0	3	4
10	10	3
155	156	6
99	99	3
172	172	4
89	89	2
104	108	2
98	98	6
176	177	3
105	105	1
17	18	4
186	188	1
141	152	1
11	33	2
166	166	4
152	153	1
113	115	2
107	165	9
114	115	3
133	135	4
101	101	5
165	165	6
94	95	1
71	97	1
14	15	1
5	5	4
58	59	4
45	45	7
37	69	2
160	160	1
29	29	1
49	49	2
146	159	1
57	93	2
56	56	4
173	181	1
95	95	2
51	56	3
51	121	2
148	152	1
37	77	5
95	156	2
45	46	5
157	172	2
104	105	1
25	66	1
179	180	4
111	160	1
186	187	2
115	118	3
78	78	6
145	146	2
82	82	4
158	185	1
149	149	2
19	19	2
124	124	1
90	90	3
1	1	4
167	169	3
34	39	2
65	65	2
34	36	2
48	48	2
67	79	2
134	139	1
6	8	1
165	166	2
158	182	2
122	135	1
168	181	1
71	93	1
163	164	7
4	5	4
147	150	3
116	117	5
170	171	3
7	37	1
94	94	3
52	52	3
123	123	6
149	155	6
79	79	3
69	119	2
161	182	2
155	155	3
116	116	3
173	174	3
117	118	1
154	155	2
153	179	2
26	26	5
160	166	2
109	115	1
173	178	2
128	128	3
44	45	1
24	74	2
1	2	1
63	63	1
172	178	5
190	192	1
152	157	5
132	136	2
55	56	1
42	62	1
124	136	1
107	108	1
164	165	1
109	118	1
37	37	1
70	109	1
93	118	1
12	32	4
17	17	3
71	108	1
85	85	1
168	168	1
39	77	1
110	118	1
137	142	1
137	139	2
132	143	2
66	66	1
80	80	3
96	96	1
33	43	1
38	38	1
105	149	2
118	118	6
158	158	4
164	176	1
54	54	2
35	38	3
141	141	3
136	158	3
119	120	1
160	162	2
143	145	1
57	97	1
60	61	2
12	39	3
126	130	1
110	110	5
190	191	1
182	182	3
170	170	3
133	134	2
75	75	1
168	172	2
97	106	1
31	31	1
94	165	1
174	174	3
83	85	1
102	102	2
115	197	2
77	77	1
27	27	2
131	152	2
191	193	1
72	99	1
61	64	1
155	158	1
133	160	1
130	157	1
143	151	1
100	106	1
26	67	1
32	32	2
20	22	3
123	135	2
138	175	1
139	141	1
182	185	1
114	117	2
119	122	1
134	190	1
93	93	1
27	39	2
187	188	1
125	125	2
181	182	2
132	133	1
150	151	1
8	9	1
70	118	1
172	176	1
9	10	1
147	147	1
100	122	1
54	56	1
172	173	1
157	191	1
136	136	1
42	43	1
146	158	1
49	69	1
17	89	2
122	124	1
148	179	1
134	173	1
159	165	1
50	51	1
59	75	1
7	43	1
29	93	1
67	78	1
175	176	1
93	99	1
151	160	1
159	172	1
2	4	1
4	98	1
154	159	1
84	85	1
178	179	1
137	137	1
172	195	1
65	74	1
0	8	1
156	157	1
146	151	1
52	53	1
4	7	1
11	12	1
122	123	1
59	74	1
124	194	1
179	181	1
73	73	1
192	193	1
163	172	1
