128	130	5
16	17	8
72	72	6
46	46	7
46	117	1
141	145	7
42	42	12
135	158	3
148	162	5
98	100	2
95	95	15
132	132	4
21	116	1
120	123	2
73	73	4
51	51	8
34	35	4
161	161	5
21	21	5
36	45	3
9	19	2
154	154	4
46	116	2
10	10	9
87	87	4
13	49	1
41	46	8
38	159	3
50	50	2
2	2	27
88	89	3
137	148	2
61	62	1
55	55	3
104	105	1
96	96	3
112	112	1
41	41	7
15	15	16
14	50	3
156	157	7
57	57	12
28	28	9
81	81	7
105	106	2
126	126	3
125	125	3
114	114	10
82	85	2
17	17	8
21	44	2
27	47	3
20	21	3
1	1	8
53	53	5
92	93	2
101	104	1
8	9	3
169	169	4
7	8	3
108	108	10
57	63	5
27	27	10
138	138	2
12	15	3
28	109	2
117	119	3
104	104	6
149	149	2
39	160	2
54	54	2
97	97	4
123	123	6
128	129	8
119	122	2
94	94	7
52	68	1
110	110	10
69	69	11
140	161	6
57	62	2
48	69	4
122	123	5
115	116	4
45	70	5
93	94	3
45	45	2
71	73	1
52	62	2
19	19	3
122	146	3
26	27	8
162	162	5
46	69	2
41	118	4
13	13	2
130	130	1
143	143	7
133	133	7
111	114	2
136	144	3
12	12	4
58	58	3
61	61	1
3	3	4
127	154	3
44	45	3
6	22	1
9	9	13
135	135	4
0	0	11
98	98	3
154	169	3
75	75	5
34	34	6
151	151	7
23	93	5
124	141	6
148	148	3
115	115	7
37	91	2
149	167	2
40	40	6
0	1	5
137	161	2
27	36	2
10	54	2
49	49	8
65	65	9
155	162	1
101	102	8
161	164	3
117	117	13
35	35	7
39	39	10
82	82	5
134	135	4
56	56	6
129	129	4
36	36	7
117	122	2
84	84	2
83	83	4
102	102	1
38	39	12
143	163	4
152	152	11
8	8	10
38	52	2
143	145	4
90	92	4
36	109	1
156	162	6
9	10	4
47	48	6
24	25	11
80	95	3
90	152	1
41	42	2
91	93	2
107	108	2
137	137	2
132	165	1
74	76	1
49	51	1
114	115	1
72	110	2
77	99	3
42	74	1
42	43	6
76	77	2
112	119	2
159	159	6
146	146	10
22	22	4
64	66	3
16	16	7
113	113	2
126	154	2
17	20	2
163	168	6
26	26	2
4	4	2
144	144	8
14	14	7
26	28	1
37	37	11
38	42	3
99	112	1
170	170	2
151	156	2
25	47	3
100	105	1
155	156	3
92	94	2
69	70	3
100	100	1
36	43	3
127	127	2
28	68	1
132	133	4
20	20	6
76	76	3
81	82	1
136	160	3
105	105	4
39	40	5
50	69	1
2	26	2
67	67	7
164	165	2
22	23	2
54	114	1
142	142	4
109	110	3
78	79	2
85	85	4
52	52	2
136	158	4
136	149	2
145	146	2
63	63	4
53	67	1
38	70	3
155	157	2
58	64	1
5	5	4
168	168	1
49	50	4
106	112	1
43	43	7
21	22	3
27	109	2
106	108	4
123	124	1
45	46	2
57	58	2
164	164	2
149	150	3
14	15	3
105	119	1
49	69	3
46	122	1
38	41	3
88	88	2
132	146	2
145	145	2
3	4	1
37	42	3
71	75	3
75	76	2
21	25	1
2	53	2
148	161	2
27	52	1
103	103	3
118	118	1
19	20	5
76	79	3
166	167	2
46	75	2
10	13	1
44	44	3
28	36	1
140	140	2
99	99	4
127	163	1
33	33	3
136	136	2
152	156	4
137	147	2
91	91	5
123	137	2
163	163	1
128	128	1
107	109	5
23	23	1
65	66	3
13	86	4
71	72	1
139	139	2
99	100	2
18	20	1
18	18	3
38	116	2
6	6	6
23	24	3
118	121	2
161	163	1
19	23	3
133	135	2
25	26	3
50	63	1
36	108	1
45	159	2
21	23	5
112	114	1
137	139	2
101	146	4
122	122	2
37	53	1
151	157	1
48	49	4
48	48	5
58	63	1
66	66	3
28	52	1
124	124	3
0	48	1
38	45	2
80	113	1
135	136	1
63	64	2
146	169	1
38	38	1
153	153	1
153	162	1
148	154	2
115	122	2
11	12	1
107	107	1
71	76	1
38	46	1
147	165	2
106	106	2
4	7	4
92	92	4
53	54	1
117	123	3
77	95	2
54	55	1
134	134	5
163	164	1
56	65	1
37	87	2
118	132	1
24	24	3
147	147	1
112	113	1
111	112	1
141	141	2
101	101	1
44	70	1
66	69	1
126	164	1
7	7	2
38	80	1
19	21	2
40	41	1
25	25	2
3	26	1
140	148	2
161	162	1
76	78	1
49	63	1
121	122	1
130	147	1
120	121	1
43	44	1
106	166	1
106	120	1
108	114	1
150	151	1
67	68	1
142	145	1
97	99	1
131	131	1
166	166	1
37	89	1
110	111	1
155	158	1
125	126	1
89	90	1
129	130	1
119	119	1
97	100	1
7	41	1
71	71	1
108	134	1
73	111	2
3	112	1
116	116	1
86	86	1
76	80	1
