28	28	13
183	184	6
121	122	11
8	26	2
0	0	18
223	223	17
69	70	2
20	20	21
75	75	6
54	54	18
230	230	8
83	83	14
202	202	9
147	147	2
201	201	12
2	2	14
175	175	10
137	140	1
39	40	7
101	102	7
52	53	6
18	19	10
130	130	4
233	236	1
47	47	8
135	135	14
184	184	7
182	183	6
3	3	5
81	83	2
1	1	5
197	197	3
66	68	4
179	179	6
64	64	9
118	126	2
240	240	20
38	40	2
13	14	3
13	13	4
118	118	3
145	145	13
58	58	7
27	27	10
137	139	5
172	173	3
9	9	15
186	187	5
121	121	3
148	149	1
85	85	22
232	233	1
175	177	4
8	8	25
129	129	8
74	75	5
38	38	12
79	79	9
48	48	10
108	108	5
45	45	15
144	175	2
146	146	11
205	206	9
191	191	7
177	177	8
83	84	7
68	68	15
75	77	5
132	134	2
35	36	6
101	101	14
29	29	4
61	61	12
131	134	3
30	30	16
31	31	17
24	25	3
89	89	2
102	102	13
193	193	4
171	171	14
217	218	2
11	11	11
35	35	15
50	50	11
3	7	3
192	192	7
66	67	7
143	144	4
242	242	4
70	70	27
201	203	3
73	73	7
159	159	3
82	84	5
66	66	9
29	30	8
194	196	2
99	99	13
105	106	7
215	215	10
72	72	15
19	20	7
221	221	3
192	197	5
42	42	16
235	235	9
161	161	4
218	220	3
43	47	2
35	156	1
88	88	5
207	208	9
205	207	2
224	224	9
30	31	8
172	172	10
179	181	5
123	124	5
182	182	5
25	25	11
189	189	17
219	219	27
202	203	3
7	8	6
46	47	17
12	12	6
213	213	16
14	21	2
0	240	2
209	211	1
71	71	6
65	67	1
82	82	13
81	81	6
57	66	5
62	62	10
160	161	13
236	236	6
64	67	4
40	40	8
76	76	11
32	32	11
203	204	8
207	207	16
86	86	4
227	227	4
199	199	11
192	193	3
67	67	14
22	23	4
34	34	8
29	32	13
66	69	2
8	10	1
160	160	14
14	14	14
82	83	12
134	134	4
117	117	9
19	19	13
226	228	4
49	49	11
152	152	6
144	146	5
144	144	10
241	241	8
21	23	2
43	43	16
200	200	12
106	106	14
68	69	7
39	39	4
191	193	2
67	68	11
22	22	7
229	229	13
153	155	2
46	46	12
140	140	6
55	55	13
232	232	6
65	65	9
126	126	14
40	41	10
149	149	4
136	136	3
157	157	10
122	123	5
2	9	7
147	149	2
206	206	7
156	156	10
189	190	3
16	19	6
136	137	3
44	45	1
12	16	3
12	13	7
153	162	5
17	21	1
49	50	5
176	177	7
225	226	1
20	22	4
15	16	2
129	130	8
162	170	1
207	212	3
128	129	7
204	206	5
147	148	8
37	37	8
151	151	11
63	67	1
188	195	2
31	34	4
58	60	7
9	10	6
158	158	4
209	209	8
22	24	1
41	41	9
203	211	2
167	168	14
171	172	5
48	91	4
228	229	1
51	51	6
74	74	14
238	239	11
26	26	18
137	137	14
165	165	4
57	59	8
26	27	6
40	42	8
18	18	12
98	98	7
215	216	7
98	100	2
123	123	6
77	77	7
140	157	4
155	155	10
6	8	2
197	198	4
190	190	1
29	173	1
17	24	1
155	163	2
198	198	13
33	33	11
55	56	4
139	140	3
107	107	3
7	7	14
210	212	3
221	230	3
205	205	17
184	185	4
41	42	3
228	228	6
23	218	1
163	167	1
156	162	3
187	187	5
11	15	2
164	166	3
3	12	2
56	56	2
62	63	11
78	78	2
185	185	9
216	225	2
46	96	2
231	231	2
72	73	3
24	24	1
218	218	14
116	116	8
7	35	3
104	104	10
21	22	11
161	162	2
195	195	8
158	161	2
238	238	8
154	155	1
237	237	4
124	125	3
9	211	2
183	187	1
149	150	5
167	167	10
101	114	2
224	226	8
9	11	1
65	173	1
65	68	3
145	146	5
17	17	7
220	221	3
203	203	8
51	53	3
4	4	26
18	22	2
52	73	4
234	234	5
122	122	7
179	186	2
196	197	7
103	103	8
200	230	3
30	173	2
60	60	12
70	149	1
63	63	8
169	169	9
164	165	8
238	240	4
16	23	2
159	170	3
192	194	1
61	62	1
196	196	7
106	109	2
114	114	8
15	228	1
69	69	7
53	53	8
80	103	2
101	103	1
139	141	1
125	125	2
115	116	2
162	162	11
12	15	6
85	86	2
42	44	7
158	162	2
173	174	3
57	57	6
44	44	5
96	96	2
142	142	7
15	15	4
154	154	3
45	91	3
212	212	3
158	163	1
163	163	3
16	16	12
2	3	2
9	215	2
168	168	4
231	232	1
128	130	3
220	225	3
80	80	1
183	183	2
227	228	1
153	153	5
211	211	4
43	61	1
178	178	9
100	100	1
79	80	1
221	222	3
2	7	1
191	192	4
178	179	1
209	210	5
79	82	1
38	51	2
45	46	4
137	148	1
119	119	3
23	33	3
148	160	2
33	36	1
179	182	1
15	19	2
97	97	8
63	64	3
15	32	2
150	150	1
175	178	3
56	58	2
131	132	2
17	18	1
16	24	1
25	26	6
105	105	6
5	6	4
235	238	1
45	47	6
195	196	4
169	184	3
166	166	4
59	60	3
20	21	1
117	118	3
183	185	5
41	151	1
165	167	1
230	231	4
38	148	3
153	154	2
143	178	3
65	66	1
18	33	3
34	35	2
127	128	5
239	239	8
77	80	1
194	194	4
210	211	9
12	217	2
220	220	3
79	104	2
57	61	1
222	222	2
211	212	3
174	174	3
23	23	8
7	34	3
2	8	3
84	117	3
176	176	7
17	22	2
21	21	3
186	186	6
226	227	4
134	135	2
217	223	2
47	49	1
174	175	7
52	52	5
33	34	1
100	101	1
33	157	2
195	197	2
96	97	1
158	159	2
120	121	3
232	242	2
206	207	4
7	9	3
10	10	5
179	180	1
159	177	1
62	64	3
204	236	2
211	213	1
142	143	1
51	52	4
138	138	3
180	193	3
188	193	1
226	226	4
170	170	5
214	215	1
169	170	3
103	105	1
104	105	1
208	208	2
102	105	1
84	84	5
202	231	2
31	33	3
18	21	1
215	224	1
121	123	3
179	193	2
95	95	2
31	32	4
194	195	5
19	21	4
155	156	2
180	180	5
103	104	4
204	204	7
152	154	1
47	76	4
184	227	2
3	8	5
216	222	2
29	31	2
116	117	3
203	206	1
99	100	1
2	5	2
217	217	5
78	79	1
57	60	2
7	17	2
14	15	3
84	85	3
28	30	1
3	4	5
60	63	1
116	129	2
59	59	3
239	241	1
159	161	1
150	152	2
81	82	1
109	109	3
164	164	1
181	181	4
102	103	3
16	17	2
119	120	1
4	6	3
171	174	1
53	54	2
38	39	2
222	226	3
120	120	3
73	74	2
72	151	1
100	104	2
199	200	1
149	177	2
36	38	4
88	89	3
215	218	1
139	139	6
145	148	1
110	110	1
50	51	4
43	60	2
161	165	1
4	5	2
108	109	3
216	216	7
135	136	1
67	71	2
178	180	1
147	152	1
229	230	2
113	120	2
128	128	2
14	16	1
21	24	1
167	170	1
70	71	1
21	96	2
201	202	1
36	36	5
181	215	2
79	95	1
18	35	1
141	141	1
213	215	1
187	198	3
193	194	2
126	127	3
232	235	2
132	132	1
233	233	5
127	127	5
39	49	1
225	225	3
137	138	4
113	113	1
162	163	2
15	23	2
6	6	4
27	28	1
190	191	2
35	155	1
47	55	1
148	150	2
157	158	2
56	60	1
227	229	1
143	146	1
105	107	1
22	34	1
163	169	1
57	64	2
177	178	2
181	213	3
188	199	2
218	235	2
130	131	2
220	222	2
214	214	4
216	217	2
154	170	1
168	169	1
125	126	1
50	52	1
67	69	2
75	78	1
212	215	1
117	130	2
46	56	3
32	33	2
36	37	2
179	211	2
37	150	1
211	214	1
180	183	2
48	49	2
73	151	1
35	37	1
53	72	1
196	237	2
27	29	1
5	5	4
114	115	1
176	178	1
188	192	1
137	142	1
143	170	2
182	213	3
60	68	2
240	241	1
7	12	1
188	189	1
53	67	1
181	211	1
64	65	1
210	210	1
173	173	1
219	220	1
71	72	1
209	231	1
192	198	1
204	205	1
136	143	1
210	214	1
0	1	2
144	147	1
155	162	1
131	131	1
36	157	1
8	16	1
185	189	1
57	58	1
159	160	1
50	60	1
43	45	1
