34	35	7
25	25	28
168	169	13
102	103	12
78	79	10
231	231	7
27	27	32
174	175	5
84	84	17
124	124	11
11	11	24
34	103	2
164	164	26
54	83	3
5	14	5
134	134	8
193	193	17
102	102	24
187	188	6
214	215	8
56	157	3
56	59	2
126	132	2
9	10	5
26	26	24
76	76	6
74	74	24
86	86	35
37	38	16
4	5	8
126	127	9
189	189	21
136	140	1
224	225	12
50	53	5
234	234	16
161	161	24
35	36	11
31	31	27
40	40	38
12	12	18
195	195	8
34	34	16
141	175	1
20	20	14
123	125	2
43	43	16
138	180	6
2	161	4
6	7	12
66	68	5
18	19	11
65	65	36
135	136	6
204	204	11
58	207	3
29	59	2
204	236	1
14	14	10
58	58	13
154	154	10
175	175	16
237	237	14
113	113	7
83	109	1
64	66	2
56	56	20
196	197	4
55	56	4
32	32	34
177	178	4
137	137	19
62	62	20
196	196	14
166	177	6
21	21	14
12	14	9
8	8	26
117	117	6
34	41	6
221	223	1
118	119	5
59	59	19
182	182	11
206	206	17
104	107	1
163	163	11
15	18	2
29	31	7
233	234	9
145	145	12
184	184	22
4	19	2
199	199	30
62	68	4
215	216	8
212	212	23
53	53	28
222	222	7
17	17	15
55	55	17
45	45	20
18	18	17
0	23	5
145	146	7
109	109	20
75	75	19
167	167	14
58	59	6
213	214	4
14	15	13
204	217	3
208	208	21
167	176	4
156	163	2
142	142	6
29	67	6
191	192	4
28	28	23
218	234	12
203	203	16
145	180	2
230	230	18
27	29	3
15	15	28
202	203	5
200	200	3
188	188	12
111	111	11
179	179	19
28	29	6
183	191	1
207	207	13
79	79	12
229	230	1
68	68	33
226	226	18
51	51	17
10	10	21
18	65	4
60	61	2
194	195	23
180	204	1
24	24	24
152	155	5
49	49	17
4	4	24
38	54	6
21	22	15
183	183	14
58	208	2
83	83	20
3	3	9
54	80	5
11	28	11
172	172	16
235	235	7
61	61	16
14	63	1
95	115	3
144	145	13
185	187	7
42	46	2
186	186	19
151	151	10
185	186	2
228	228	18
241	242	7
81	82	14
42	42	18
219	223	2
18	24	1
122	176	6
218	218	17
180	180	23
39	42	8
140	141	5
103	103	17
2	2	23
156	156	10
80	80	22
240	240	15
35	87	4
121	128	1
208	211	2
101	101	19
119	171	3
45	46	10
158	158	10
67	68	12
120	123	3
120	121	3
70	70	11
88	91	3
205	206	4
85	85	24
146	162	2
201	201	16
4	7	5
205	205	8
123	123	9
136	174	1
54	54	29
200	201	5
199	200	6
224	224	11
13	17	3
122	124	4
240	241	6
114	114	7
60	60	15
171	171	10
66	67	15
16	17	1
150	150	6
180	201	2
36	36	21
193	196	5
223	223	8
81	98	5
3	15	3
3	23	1
195	196	2
174	174	11
221	221	20
72	72	8
0	0	13
149	151	1
153	155	5
22	23	6
110	110	10
102	109	1
67	67	16
13	21	4
122	201	5
206	208	2
167	168	18
112	114	5
27	28	5
13	13	13
133	134	9
0	1	8
197	197	22
129	129	7
153	153	14
80	96	3
38	38	13
180	193	1
123	124	5
192	192	7
99	99	21
98	127	5
207	221	2
225	225	10
20	31	2
187	187	14
82	83	6
44	44	17
159	159	15
0	203	4
166	167	6
46	46	13
168	168	9
7	13	5
136	136	8
69	69	14
48	48	31
66	66	20
122	122	12
117	118	6
97	99	1
105	105	17
87	87	5
209	209	13
153	193	2
209	210	13
40	41	12
100	109	1
186	187	3
199	206	2
62	69	2
97	97	11
138	139	7
57	158	1
37	43	9
47	47	15
73	74	3
31	201	1
98	113	4
9	9	17
52	54	3
104	104	13
112	112	2
117	169	1
31	33	8
5	5	14
12	17	1
158	160	1
20	22	2
36	37	2
126	126	10
51	52	4
139	139	10
73	73	21
81	81	14
50	54	11
1	1	14
29	29	21
30	30	19
147	147	12
44	45	12
26	27	7
189	190	3
215	215	15
33	33	26
22	22	11
77	78	8
214	214	14
141	142	12
232	232	15
105	107	3
215	224	4
1	2	18
141	141	7
63	64	8
148	148	7
190	190	13
239	242	1
114	116	6
125	125	9
105	120	3
170	170	12
65	66	6
168	212	2
220	220	12
173	174	2
209	211	5
57	58	5
175	189	2
138	138	11
120	120	14
154	236	3
107	108	7
157	157	12
49	50	9
100	173	2
99	100	7
64	65	8
208	209	4
62	63	9
137	139	7
165	165	16
24	205	3
217	217	12
227	227	18
167	170	1
241	241	8
97	130	3
177	177	2
35	35	25
118	118	13
25	61	2
125	135	2
7	7	12
151	163	3
217	218	7
115	126	2
210	212	2
76	77	6
116	116	8
236	238	1
201	219	3
184	213	4
184	185	7
114	115	3
211	211	9
110	113	3
201	204	1
119	119	14
147	148	5
215	223	8
177	179	3
165	175	6
181	182	17
19	19	26
178	178	7
41	41	6
53	99	2
169	170	11
148	161	4
169	169	6
115	127	2
114	213	5
179	180	6
233	233	4
181	181	21
133	133	9
145	166	3
152	152	18
212	213	12
56	57	9
108	108	4
18	101	6
222	229	2
117	124	3
39	40	9
4	6	3
52	53	6
202	202	14
31	56	2
101	102	4
192	193	5
77	80	4
36	38	2
179	183	2
5	7	3
122	125	4
213	213	18
46	47	8
30	226	6
48	50	8
236	236	9
183	201	5
115	115	11
56	66	1
155	161	2
162	162	22
82	82	14
23	99	1
15	16	8
63	63	13
167	179	8
103	104	8
127	127	15
205	235	1
71	71	18
156	162	6
116	118	4
13	19	2
17	18	4
152	158	4
88	89	2
220	222	3
206	236	2
180	197	5
187	196	3
194	194	7
237	238	3
50	50	9
210	211	3
119	125	4
13	22	4
105	106	9
15	101	3
36	49	1
57	57	7
13	14	5
107	107	12
162	165	2
82	84	4
64	64	18
136	143	6
192	196	3
16	16	13
235	236	5
95	95	13
124	125	8
179	195	3
130	130	8
204	223	1
61	62	6
200	213	5
209	215	3
56	238	1
210	210	15
3	16	1
17	66	2
23	23	10
162	164	1
88	88	11
162	192	1
62	64	5
169	174	2
143	190	6
37	37	10
182	197	2
193	194	1
189	194	3
192	194	4
30	42	2
58	63	4
135	135	2
52	52	21
215	217	2
84	85	5
45	101	3
219	219	18
150	152	3
121	122	5
39	39	7
59	62	2
147	150	1
83	100	4
128	129	1
148	155	2
155	155	9
80	91	1
12	16	1
59	60	7
230	231	2
6	63	5
146	163	3
115	116	5
154	237	1
78	78	5
227	240	4
236	237	2
5	6	4
29	30	10
61	70	3
106	119	6
17	20	3
52	76	3
37	46	2
32	209	3
147	161	3
65	67	2
14	22	2
22	206	2
98	98	9
160	160	12
26	64	1
148	149	5
43	238	4
33	91	1
7	12	1
102	108	1
230	235	3
173	173	8
29	57	6
32	55	2
100	100	16
200	222	1
181	194	3
113	114	1
166	166	21
55	239	3
143	144	5
226	228	2
187	192	3
176	176	12
180	202	1
54	55	7
18	20	4
73	84	3
225	226	4
32	56	1
79	82	2
141	176	1
219	220	3
17	101	5
175	176	8
135	139	2
100	102	2
33	34	6
102	104	2
107	126	3
98	100	1
182	183	5
242	242	8
50	51	6
57	60	3
184	186	10
131	132	1
197	202	1
20	21	4
155	158	3
160	186	4
226	227	10
12	13	10
83	86	1
31	81	2
131	131	9
167	214	4
48	49	4
201	217	1
203	204	1
0	2	4
111	128	1
120	171	2
51	100	5
39	43	3
125	134	2
137	145	4
49	83	1
169	172	2
53	78	3
142	143	1
194	196	3
122	143	1
77	77	12
157	159	1
95	130	2
33	103	1
102	105	1
72	73	3
214	222	1
43	219	1
106	109	2
69	73	1
78	81	4
166	168	4
194	197	2
171	172	4
8	9	3
121	127	2
225	237	4
107	110	2
96	127	2
145	192	4
193	195	8
137	138	6
67	154	2
31	34	4
97	98	1
7	8	3
30	66	2
223	229	1
72	83	8
120	136	2
187	208	4
216	216	11
34	104	2
25	26	7
140	140	4
6	6	10
120	135	4
98	109	3
70	234	1
20	26	1
239	239	9
2	4	2
95	98	5
180	200	4
180	198	1
35	50	2
163	165	1
124	167	1
192	195	3
195	206	1
60	62	2
53	82	3
6	17	1
14	16	1
24	45	1
238	238	7
54	202	3
185	199	1
143	148	2
4	8	1
151	158	4
43	44	2
128	128	6
27	86	5
146	151	2
21	24	5
207	208	8
105	135	3
101	110	4
76	79	2
149	149	8
186	215	2
9	11	2
189	192	2
171	173	3
151	156	2
54	57	1
134	135	3
215	218	1
146	146	5
208	214	1
238	239	2
211	212	8
127	128	4
224	233	1
20	23	6
104	126	2
12	60	3
143	175	1
6	15	2
41	42	2
23	97	2
140	143	2
122	123	2
223	230	3
49	82	2
29	61	2
127	132	3
10	11	2
116	117	3
232	233	2
33	61	1
106	106	2
12	63	4
205	236	1
125	126	2
23	206	3
117	211	2
80	81	6
144	144	6
74	85	1
214	216	1
172	177	3
199	207	2
34	83	2
19	20	4
89	89	3
240	242	1
19	24	3
143	143	8
188	190	1
30	32	1
202	204	1
218	223	1
145	172	3
24	25	4
16	102	2
70	86	1
12	20	2
28	48	3
30	68	1
81	83	6
149	161	1
61	69	2
204	218	2
162	163	3
200	215	2
147	156	1
20	32	2
204	205	2
49	60	1
214	238	2
199	221	4
202	205	1
21	208	1
100	101	1
204	206	2
146	166	1
38	39	4
239	240	6
120	173	2
14	19	1
3	5	1
10	65	2
37	39	1
2	15	3
198	221	2
188	189	6
78	80	1
34	40	1
191	191	14
57	151	1
47	84	1
20	67	1
30	57	2
32	35	3
211	213	1
14	17	2
84	98	1
85	86	1
206	221	2
97	115	1
103	105	4
195	197	1
57	59	1
12	57	1
71	72	2
14	102	1
120	179	1
217	223	4
8	12	2
34	102	1
156	157	4
221	222	4
142	145	2
3	4	3
30	31	3
154	174	1
150	155	1
11	26	1
122	166	1
183	186	2
38	55	1
153	156	2
3	19	1
123	168	1
229	237	3
108	120	1
32	33	5
10	28	1
160	161	4
113	127	4
34	59	2
178	214	2
57	149	1
211	216	1
124	168	3
51	54	1
35	57	3
125	142	1
149	157	4
164	165	1
59	68	2
4	18	1
15	23	1
86	88	1
15	22	1
57	68	2
21	95	1
104	108	4
198	200	2
230	236	2
216	217	1
40	43	2
147	157	2
5	39	1
76	78	1
200	217	1
220	224	4
112	130	1
14	59	1
15	17	3
29	60	2
36	47	3
206	235	1
2	20	4
79	98	1
96	100	2
29	35	1
199	222	1
16	18	2
182	219	3
148	164	1
186	188	3
193	216	1
121	121	5
148	160	2
4	17	2
178	215	2
145	163	4
7	16	1
11	58	1
231	232	1
86	101	1
150	151	4
50	81	1
21	23	3
47	48	8
121	129	2
119	120	3
229	229	7
20	63	2
235	240	3
22	97	1
58	60	4
120	128	3
117	119	8
33	76	1
196	230	2
147	163	1
185	185	1
113	211	2
31	32	5
30	63	1
112	117	1
198	199	3
218	219	2
228	229	3
198	216	2
199	213	1
25	48	1
98	99	2
207	222	1
144	146	4
140	144	1
197	198	2
159	161	3
63	68	1
81	84	1
52	201	1
150	160	2
49	80	2
209	214	1
123	167	3
44	46	4
129	130	3
56	61	2
232	242	1
84	96	1
26	233	1
152	156	1
69	70	2
13	15	3
122	167	1
220	221	2
163	164	2
11	59	2
205	220	1
54	81	2
218	235	3
24	97	3
52	57	2
50	82	3
61	99	2
225	227	1
217	219	3
31	36	1
101	104	1
24	28	2
56	237	1
47	103	1
121	150	3
169	211	1
32	114	3
136	146	1
97	113	1
214	239	1
132	132	1
40	42	3
212	215	1
206	220	1
43	45	1
122	168	2
52	210	1
191	193	1
51	82	3
169	171	1
143	145	1
152	153	1
31	226	2
104	105	1
36	237	1
154	155	1
57	67	2
140	170	1
206	207	1
37	45	4
35	86	1
103	132	2
197	205	1
23	24	1
142	191	1
145	204	1
14	31	1
204	234	1
79	81	1
155	192	1
143	176	2
44	105	2
137	140	4
95	127	1
227	228	2
127	130	2
48	53	2
13	18	1
108	109	1
144	147	1
36	51	2
42	225	1
165	166	1
183	216	1
96	96	4
9	61	1
5	18	1
2	3	3
13	16	4
155	156	1
83	108	1
215	221	1
167	215	1
73	83	1
221	230	2
50	80	1
136	145	2
172	174	1
218	233	1
5	17	1
70	72	1
144	189	1
8	17	2
179	181	1
82	88	1
205	221	2
180	181	1
39	41	1
36	43	1
18	100	1
155	237	1
198	198	3
10	58	2
234	239	1
150	154	3
216	218	1
158	159	1
12	34	3
154	161	1
77	79	4
161	162	1
20	66	1
34	44	1
127	129	2
36	39	1
19	63	1
155	157	2
193	197	1
190	191	1
21	98	1
149	159	2
23	46	1
29	227	2
135	142	1
11	12	1
182	184	3
201	202	1
221	224	2
96	128	2
147	189	1
12	21	1
30	36	1
89	92	1
154	158	1
113	115	3
118	126	1
177	190	1
185	209	1
33	56	1
132	133	1
60	63	1
147	190	1
79	104	1
198	223	1
21	96	1
1	3	4
47	49	2
44	102	2
75	78	1
35	56	1
229	236	2
17	21	1
188	198	1
195	233	1
165	174	3
5	16	1
157	158	2
145	195	1
104	132	1
11	60	1
163	192	1
174	201	1
200	223	2
223	224	1
11	35	2
234	235	1
36	44	2
37	40	2
207	209	1
138	175	1
53	54	1
14	18	1
84	89	1
199	208	3
30	56	1
117	126	1
139	140	2
151	152	1
75	77	1
107	137	1
16	20	1
157	238	1
130	131	2
188	192	1
55	81	2
83	88	2
42	239	1
226	237	2
15	102	1
122	135	1
216	223	1
120	176	1
149	152	1
222	223	1
19	22	1
136	137	1
17	64	1
33	57	1
50	98	1
119	121	1
202	227	1
216	220	2
170	184	1
56	62	1
23	25	1
177	191	1
4	72	1
32	239	1
112	128	1
74	75	1
65	224	1
212	214	1
199	212	2
217	222	1
217	234	1
76	98	1
55	106	1
146	147	1
194	200	1
220	229	1
75	79	1
103	106	1
183	196	1
99	113	1
105	133	1
188	194	2
102	106	1
205	216	1
79	80	1
56	152	1
2	19	1
201	228	1
20	96	1
51	99	1
