62	83	1
60	60	60
158	166	3
163	165	7
115	122	4
45	82	3
3	4	60
1	2	26
72	72	39
41	42	27
20	23	6
62	63	26
1	174	3
176	176	53
177	178	4
94	95	19
92	92	41
54	54	35
64	65	10
19	19	65
14	14	117
166	167	18
13	14	28
17	17	88
98	102	4
149	149	49
40	40	77
9	10	29
93	94	23
7	9	29
23	97	3
104	106	7
62	91	4
11	13	29
152	152	47
124	179	2
110	113	3
59	61	8
5	5	96
22	22	73
35	36	27
126	126	34
134	175	6
28	28	69
60	78	3
6	7	49
10	11	49
11	11	133
3	22	2
66	80	1
95	95	54
60	64	6
137	147	1
26	26	103
113	113	32
31	33	21
59	59	40
115	116	17
167	167	69
3	7	5
33	33	111
6	6	85
11	15	4
42	46	4
130	130	23
16	17	32
3	3	84
115	146	3
24	25	34
133	134	9
51	61	5
21	21	63
64	67	3
68	68	32
61	165	3
12	13	74
55	56	25
13	13	109
9	9	84
125	125	42
128	129	18
130	131	7
126	129	4
159	159	53
153	153	46
4	9	10
124	125	19
119	120	29
35	35	94
18	19	43
37	68	5
156	157	7
25	26	43
16	41	4
62	62	35
120	121	20
98	165	3
33	35	19
18	49	3
52	52	60
122	123	7
116	116	27
123	126	3
23	23	103
36	36	73
10	14	31
64	64	43
98	114	1
14	15	36
16	121	4
107	133	1
5	7	13
37	37	85
133	136	2
2	15	2
143	149	2
45	46	13
25	27	18
66	66	21
0	34	2
150	171	2
72	96	4
107	119	1
158	159	21
138	138	37
142	142	35
2	2	155
83	85	13
1	1	60
67	81	2
25	134	5
89	89	59
143	143	26
4	4	88
59	66	3
24	24	98
141	141	62
153	171	4
89	91	10
65	67	4
155	168	4
111	141	3
114	133	4
20	20	55
133	133	47
74	74	33
88	118	5
29	29	80
84	85	46
27	31	5
83	83	47
49	67	7
85	85	50
58	147	4
84	86	9
19	20	46
29	42	2
103	104	36
126	127	15
139	139	66
108	114	3
28	35	4
137	137	40
10	10	89
139	140	18
169	169	76
4	7	15
26	28	31
178	178	36
93	93	55
21	22	33
14	110	3
55	55	33
80	80	45
112	113	19
124	124	51
71	93	2
46	67	4
42	45	15
111	111	38
71	71	51
162	162	31
99	135	9
146	164	1
152	153	25
61	63	8
105	107	14
98	113	4
134	141	1
172	172	72
81	82	21
80	81	13
115	115	41
147	147	44
73	73	35
156	173	1
31	32	30
45	45	53
2	3	56
118	118	32
101	102	12
0	0	49
67	67	31
27	27	92
8	8	110
39	40	50
40	41	26
41	43	7
96	98	11
121	121	38
110	111	17
123	125	17
90	91	23
79	79	33
21	35	1
74	109	1
108	109	18
43	43	67
42	42	93
50	51	32
114	114	65
135	167	3
108	142	4
7	7	57
68	180	1
71	77	2
157	157	19
175	176	6
36	37	20
82	135	2
102	102	50
27	28	52
169	170	12
51	51	39
161	162	22
73	74	12
71	92	3
103	105	20
41	41	97
8	9	45
65	65	51
132	132	44
94	94	37
14	109	6
110	110	39
163	163	80
146	147	22
97	97	39
34	34	52
127	127	40
75	76	23
171	174	2
103	122	1
30	30	83
11	14	15
127	130	9
101	101	46
127	128	17
128	128	62
17	18	40
96	132	1
148	148	66
135	136	11
32	33	42
159	166	7
42	43	38
84	84	36
150	150	49
91	91	45
110	144	1
43	46	2
110	167	2
54	56	5
142	143	21
134	154	3
41	89	6
113	163	4
173	173	47
25	25	89
179	179	56
35	42	3
31	31	93
23	27	9
122	133	1
122	125	5
151	166	3
165	170	3
16	62	4
10	26	3
44	45	25
91	92	23
146	146	46
135	135	27
137	139	4
176	178	10
173	175	3
30	33	8
15	15	94
5	6	84
63	63	22
134	134	45
106	106	44
98	98	35
143	144	23
108	108	45
112	112	37
66	67	28
75	136	2
52	126	3
23	24	26
125	127	5
39	39	45
30	31	21
168	168	44
95	171	4
44	44	80
139	141	6
15	16	33
114	115	16
129	129	38
83	84	31
31	34	5
16	16	101
2	6	3
179	180	15
11	37	1
109	115	2
102	106	7
105	105	39
118	119	11
52	54	7
77	77	28
68	74	1
114	119	5
105	122	1
12	14	6
81	98	5
100	100	44
13	18	6
89	111	3
88	88	41
20	21	20
65	98	5
132	133	19
19	21	15
70	72	4
119	119	51
107	107	35
9	33	2
36	39	4
58	98	1
18	18	84
67	83	6
164	166	4
64	68	4
171	171	41
80	93	7
165	165	39
68	178	1
17	42	5
4	5	33
3	8	16
32	32	119
154	178	4
134	174	2
12	12	93
164	165	15
37	91	2
129	130	38
9	43	3
174	174	38
145	163	11
17	72	3
0	1	25
7	54	1
72	73	10
60	121	1
31	155	2
142	146	4
160	161	16
166	166	20
2	35	5
97	98	25
131	131	58
117	117	58
109	109	31
123	123	26
8	15	8
123	124	27
122	171	1
125	126	14
0	10	2
7	35	6
81	97	3
92	95	1
145	145	40
154	154	33
41	44	4
106	108	6
29	30	27
63	180	5
52	159	2
70	78	3
151	151	19
177	179	4
18	20	12
71	150	2
87	87	30
32	44	2
122	122	74
146	150	7
107	108	13
153	154	20
103	103	45
160	162	21
38	38	102
38	43	5
124	157	4
33	45	6
96	96	43
145	146	16
60	120	2
53	53	38
52	53	34
130	159	2
144	145	8
14	34	2
155	173	4
143	145	15
144	165	1
116	118	14
163	164	12
28	30	24
106	107	30
104	104	55
136	151	3
61	71	5
166	168	8
126	130	7
158	162	4
5	9	9
78	79	15
9	12	1
112	124	4
151	155	7
82	126	2
8	10	9
137	138	8
6	16	13
149	150	11
25	29	2
71	75	4
100	101	10
13	17	3
12	18	7
88	89	19
143	146	8
71	72	12
15	42	6
43	44	29
118	122	3
24	28	5
128	155	3
75	79	4
0	2	4
177	177	20
54	55	5
87	88	20
13	35	3
115	132	4
8	100	2
140	177	3
94	107	2
164	164	29
89	94	3
165	166	28
65	146	3
1	3	9
75	75	59
136	136	24
10	39	2
90	92	10
140	146	3
98	115	2
13	34	3
78	78	53
9	20	2
159	160	4
29	31	15
3	16	8
45	115	5
39	43	2
123	150	3
4	8	7
98	100	4
151	152	9
90	90	47
38	40	8
71	137	2
99	99	37
133	135	7
52	60	1
86	88	3
121	130	2
161	175	3
39	41	10
37	55	6
99	100	22
68	100	5
164	170	4
91	102	4
129	132	1
33	112	3
3	33	4
167	177	2
27	34	4
37	38	46
79	81	5
154	180	3
161	161	35
10	32	3
58	58	27
4	42	3
103	124	6
152	160	10
29	38	4
81	102	2
137	140	1
30	44	2
80	92	4
8	33	5
5	38	4
32	80	2
24	26	31
137	143	4
15	99	1
65	137	3
68	155	4
23	26	6
140	140	39
109	125	2
117	123	4
80	85	3
8	16	4
73	75	13
109	152	3
157	158	8
31	43	4
175	175	26
108	180	2
57	57	39
99	101	8
32	35	5
132	134	6
76	76	37
106	131	4
101	155	3
154	155	16
88	111	2
81	142	2
67	180	4
126	160	3
7	45	2
31	39	3
80	87	1
2	43	5
57	58	18
7	12	3
10	13	19
17	20	2
56	56	38
37	64	3
35	44	3
96	97	24
86	86	29
18	54	1
86	160	3
52	57	3
2	33	3
86	87	9
50	50	34
109	160	2
141	157	3
40	88	3
11	12	29
7	8	23
14	16	12
90	96	2
23	25	3
41	45	9
122	146	1
88	95	3
102	103	17
18	43	3
163	173	7
61	61	51
36	43	7
105	106	8
23	37	8
148	149	13
115	143	6
6	44	4
82	82	44
60	63	7
167	172	6
158	158	33
168	169	26
128	173	4
174	175	16
37	73	1
11	134	3
65	102	5
61	62	15
116	129	4
53	104	1
33	36	9
2	5	6
123	173	3
43	158	4
121	122	20
126	128	14
55	57	4
1	16	4
35	43	2
23	28	11
23	41	4
3	20	4
88	98	1
109	143	2
64	96	6
88	112	4
44	82	3
53	92	4
83	174	1
152	155	4
95	119	2
129	158	10
130	163	6
2	31	5
106	147	3
81	81	46
6	18	4
58	59	17
20	26	3
135	138	2
26	27	20
64	66	2
98	103	5
155	164	1
28	29	22
20	28	1
178	180	5
62	129	9
53	70	2
38	65	1
66	102	1
50	75	1
180	180	21
2	30	5
119	156	4
70	71	7
55	172	3
82	109	2
89	90	6
168	174	4
171	172	12
172	173	4
138	141	2
115	118	9
56	66	6
24	27	12
92	140	2
60	157	5
18	38	1
76	77	15
119	167	3
105	109	7
87	117	2
100	171	2
16	93	4
85	110	4
13	19	3
53	57	2
155	155	30
19	35	3
8	30	3
72	76	5
50	144	5
44	67	3
147	148	36
119	121	9
140	172	3
124	126	6
167	168	11
121	128	5
87	153	4
2	7	7
102	108	6
113	140	3
93	112	2
20	22	9
37	43	5
22	27	3
109	142	2
95	100	3
119	126	6
73	76	1
163	168	4
16	19	19
59	177	1
57	107	2
108	121	2
5	19	2
56	65	8
82	153	2
145	159	1
146	168	2
32	37	6
2	4	22
32	115	4
70	70	15
0	5	5
15	18	6
31	46	1
170	170	39
6	15	10
5	8	16
50	82	3
34	35	20
169	171	2
60	66	2
29	32	3
82	91	3
61	83	2
34	36	14
37	92	2
90	94	5
161	164	4
18	158	1
111	164	3
124	136	2
13	15	11
63	66	3
60	95	3
144	144	42
153	170	2
120	120	27
33	34	28
126	141	2
98	101	8
67	68	10
38	42	6
85	86	13
107	109	12
155	156	9
118	128	2
143	164	1
50	65	4
56	57	12
27	61	2
83	99	3
21	27	4
152	165	2
55	76	3
53	66	3
98	99	18
2	46	2
108	136	1
67	112	4
130	132	3
134	135	4
99	109	3
18	22	4
130	158	2
84	129	4
79	141	2
53	141	1
41	152	3
138	139	9
81	115	1
10	36	5
92	94	12
72	94	1
25	44	5
109	111	9
114	116	5
118	127	4
166	170	5
131	136	7
121	126	4
85	97	3
95	131	3
77	78	7
3	5	2
7	44	5
82	88	5
116	117	19
8	45	2
37	62	4
81	83	5
80	94	2
35	37	8
5	22	1
88	148	1
108	113	4
21	23	6
89	126	3
117	118	11
83	86	6
122	177	2
79	161	8
114	143	2
32	36	7
82	86	6
50	52	1
135	172	2
9	17	1
117	130	3
107	125	3
93	105	6
63	102	3
38	39	11
63	67	11
173	174	14
44	46	4
1	33	2
156	156	30
1	42	3
52	58	4
115	121	3
0	38	3
163	167	4
19	44	1
62	158	2
141	142	12
95	96	27
163	166	8
170	171	22
101	113	2
160	160	30
167	178	3
72	80	2
9	30	5
27	29	9
137	161	2
25	59	1
66	180	1
77	85	2
9	13	11
42	82	7
111	112	13
52	72	1
151	157	4
175	180	4
49	49	4
141	143	8
46	74	2
38	93	3
7	31	3
84	130	2
144	155	1
102	119	7
112	115	9
40	133	2
12	16	3
164	180	3
53	60	1
103	110	1
170	173	9
54	60	3
165	168	3
74	78	1
115	155	8
11	16	5
7	30	1
117	119	1
22	23	29
55	72	3
58	77	2
84	88	5
150	154	8
153	159	4
55	153	3
115	117	2
82	115	7
29	35	1
60	61	24
172	174	7
15	17	6
16	18	19
8	19	1
120	124	2
87	90	4
94	103	2
112	168	1
156	161	4
35	145	3
103	106	4
117	156	1
38	41	4
6	173	1
73	155	2
13	36	1
89	98	1
144	169	1
21	24	8
63	100	3
74	76	4
122	174	3
43	115	2
130	148	1
26	29	7
8	13	7
127	161	6
99	119	1
104	108	3
85	165	1
87	97	2
13	32	2
135	156	3
159	170	5
43	114	2
124	159	5
88	90	4
90	97	5
68	72	1
28	37	2
64	80	1
39	44	4
131	132	6
16	67	2
139	178	3
94	106	1
9	42	2
21	29	1
74	90	1
164	167	10
142	147	2
155	160	4
84	170	5
162	164	4
4	11	6
37	39	3
95	97	3
115	130	5
65	66	7
104	105	29
144	150	5
24	34	8
91	93	4
43	45	9
79	93	8
127	131	9
159	162	7
88	97	3
19	45	5
113	114	16
169	172	2
60	76	2
155	158	9
171	173	6
3	11	2
21	25	5
154	162	3
131	133	3
88	101	6
89	97	1
8	27	4
51	66	2
28	31	7
32	169	1
7	16	2
32	43	4
113	126	3
52	150	3
56	58	1
11	18	1
7	18	3
35	83	5
156	158	9
5	167	5
9	19	3
160	175	2
150	151	10
11	26	4
106	124	3
159	161	1
117	144	1
95	102	4
67	177	2
1	17	2
152	176	1
89	180	2
169	174	3
112	129	6
144	180	3
53	54	9
131	135	1
4	15	5
168	170	5
75	77	8
84	151	1
6	96	1
52	64	1
113	138	1
135	141	4
3	6	4
98	170	2
9	14	7
38	45	4
166	169	7
62	100	3
22	24	3
36	38	8
8	18	3
25	34	2
86	110	1
121	171	3
143	147	5
134	152	2
111	146	4
46	46	5
110	160	2
170	172	2
162	163	8
31	35	1
67	150	3
65	101	4
49	68	7
37	150	1
100	109	1
2	9	4
151	159	3
32	34	4
88	96	4
4	43	1
113	117	2
25	32	6
97	119	1
4	6	7
32	110	3
25	28	9
16	32	3
105	111	2
42	44	2
9	16	5
9	11	10
82	83	12
40	72	2
98	154	1
136	137	6
11	43	1
136	144	4
177	180	3
54	59	1
100	105	1
83	100	3
60	62	1
56	149	4
154	156	13
145	179	1
40	44	3
28	38	1
93	95	1
90	103	4
156	160	4
9	18	6
84	106	2
137	144	1
37	52	2
27	56	2
54	83	1
88	91	1
149	172	2
155	157	12
79	80	13
111	113	6
37	42	4
121	131	2
20	44	2
61	153	1
101	117	1
27	30	3
102	105	5
88	180	3
17	22	2
112	117	6
119	131	1
63	85	6
62	66	3
15	34	2
11	19	4
38	44	2
134	136	4
98	110	2
39	153	8
11	36	2
66	68	6
101	141	1
142	155	4
91	94	2
171	177	2
152	154	6
55	114	2
82	85	5
10	12	4
115	157	4
124	149	2
0	33	6
101	169	1
51	63	1
20	33	2
81	88	1
23	157	5
67	157	2
114	117	2
51	68	3
59	60	6
137	179	2
142	144	6
126	146	3
118	120	3
55	135	6
120	126	5
144	146	2
80	112	3
15	75	1
135	173	1
12	45	3
126	174	4
141	147	3
77	179	4
18	152	1
110	152	3
10	15	8
13	42	3
18	41	3
6	10	4
81	95	1
65	115	1
92	93	5
108	111	2
76	94	7
97	105	3
23	29	9
68	164	3
61	64	4
13	16	5
24	42	4
150	156	5
146	148	1
101	112	3
119	124	2
164	179	4
103	142	1
153	157	6
160	168	3
80	95	6
130	161	1
41	50	2
134	146	1
157	163	3
151	154	12
100	144	3
56	126	2
51	52	5
96	170	1
124	174	3
85	87	2
144	152	2
7	10	7
125	147	2
4	33	3
56	175	2
99	131	1
95	99	7
150	174	1
142	157	3
62	104	2
165	167	3
6	17	1
175	178	1
44	111	3
157	160	2
140	141	5
119	169	8
79	94	3
0	4	1
35	39	1
4	118	4
33	40	4
113	118	2
18	21	3
13	38	3
32	38	2
63	84	2
77	103	1
129	131	4
63	65	2
21	56	4
96	100	1
139	160	4
120	123	2
118	130	2
7	11	2
59	63	1
152	175	4
76	147	8
63	64	5
22	30	4
26	177	3
56	119	3
167	169	6
136	175	3
24	36	3
92	134	1
52	158	3
28	36	2
25	41	1
150	168	7
120	122	4
50	61	3
74	75	5
80	140	1
91	126	4
162	165	8
31	45	2
58	65	2
65	112	2
144	151	5
40	42	9
10	171	1
7	15	11
118	121	2
23	30	6
171	175	1
116	146	3
95	161	1
56	71	1
126	133	3
34	38	3
82	117	1
80	113	2
140	158	3
51	53	2
175	177	3
137	171	2
18	44	1
9	15	4
57	61	7
4	41	1
16	46	4
5	17	1
130	137	1
67	178	3
110	116	4
33	55	2
95	175	3
26	80	1
37	45	4
102	137	2
60	171	1
22	26	7
59	105	2
109	116	1
101	167	3
62	157	3
17	156	1
53	56	4
108	110	1
14	37	1
114	129	3
75	132	3
166	171	1
76	103	1
58	119	3
6	57	2
99	114	4
56	80	3
121	125	3
8	11	2
7	19	1
50	86	2
75	81	4
63	86	1
114	122	2
107	111	2
45	67	2
108	126	5
62	75	3
64	105	2
64	85	1
17	21	8
33	39	4
81	87	5
68	122	1
20	32	2
58	143	2
109	131	1
109	112	2
122	124	2
24	32	2
146	155	1
0	134	1
2	8	2
144	147	2
120	134	6
52	134	2
101	107	3
54	144	2
50	179	3
64	81	1
147	150	5
24	29	3
64	73	1
85	116	1
87	160	1
165	169	4
30	83	2
160	174	3
104	107	6
5	31	1
16	98	1
30	42	3
117	151	1
156	174	2
136	145	1
93	108	4
51	65	5
138	150	1
74	80	2
30	35	4
126	155	2
68	71	1
112	165	2
106	109	5
128	142	1
75	180	2
93	103	3
117	150	1
97	118	1
108	137	1
6	14	5
113	131	1
76	125	1
142	145	10
118	156	3
68	136	1
140	157	1
25	30	4
36	52	1
86	164	2
35	79	2
62	99	7
31	44	3
135	137	3
176	177	3
159	180	2
51	67	3
127	142	2
16	40	1
83	102	1
91	109	2
78	124	5
0	16	2
63	104	2
32	42	2
66	113	3
90	107	2
44	50	1
21	31	1
99	116	3
118	180	2
28	33	2
125	146	1
120	129	2
20	157	1
5	18	5
44	60	1
174	178	5
12	42	1
51	124	3
67	73	3
67	72	5
74	94	2
79	114	2
58	71	1
71	147	3
3	40	1
28	32	7
139	151	6
117	155	3
130	136	3
104	177	2
13	25	2
101	111	2
122	173	3
1	27	1
100	164	1
61	114	3
147	155	3
151	153	11
129	159	2
82	160	2
101	151	1
117	145	2
6	27	4
18	27	4
13	44	2
12	19	1
167	170	3
65	68	5
170	175	1
40	45	2
72	81	2
132	167	1
100	145	2
158	163	1
111	167	4
71	87	1
17	158	4
18	29	1
54	121	3
168	172	1
50	53	1
53	59	1
119	152	1
141	145	5
5	15	1
112	136	2
81	84	1
49	50	10
153	156	1
128	167	6
174	176	1
129	161	1
67	86	1
112	166	2
58	150	2
166	180	1
142	177	2
28	172	1
97	102	1
99	112	4
107	139	2
122	126	1
82	98	3
119	127	1
1	51	2
6	46	2
18	23	4
88	136	2
73	77	2
116	163	3
98	105	1
49	51	3
117	128	3
85	103	1
162	167	1
159	165	1
12	52	1
36	42	3
101	103	1
135	143	2
152	163	4
123	158	2
12	17	1
15	19	4
169	175	1
87	89	4
83	110	3
171	178	2
31	38	4
111	152	2
37	46	1
130	157	1
100	102	2
53	55	2
95	132	2
108	160	4
32	41	1
30	32	1
114	154	1
120	127	4
118	135	3
55	74	1
15	92	1
15	20	1
1	72	4
116	160	2
116	130	2
31	42	1
86	89	1
142	149	2
22	29	1
10	16	1
40	43	1
46	97	1
152	158	2
137	145	1
111	137	1
55	131	2
162	169	2
24	40	2
65	150	5
0	25	1
138	162	2
95	143	2
35	38	7
124	154	2
136	143	1
30	79	2
152	164	2
14	17	1
46	113	3
54	72	4
68	70	3
159	168	1
14	20	5
6	19	2
8	35	3
27	72	1
95	123	2
128	161	3
51	80	1
79	82	3
41	85	1
94	102	3
147	174	2
23	32	2
7	41	5
122	178	2
17	43	3
27	36	2
37	41	5
122	172	1
58	149	2
4	20	2
134	139	1
59	157	2
154	157	1
4	19	3
60	123	2
172	177	1
27	43	1
68	137	1
5	10	5
26	167	1
125	133	2
2	37	3
65	73	5
96	106	1
65	114	1
125	135	1
71	91	1
2	19	3
53	173	3
5	34	1
135	139	3
12	101	1
118	165	3
160	169	1
77	106	1
156	169	1
113	115	2
135	152	1
82	154	2
44	61	1
77	104	4
7	43	5
153	160	1
92	142	1
19	32	1
149	178	1
82	157	2
131	170	4
8	31	2
135	177	1
33	42	1
165	177	1
104	109	1
125	132	1
152	157	2
58	61	4
44	52	2
20	35	2
60	133	2
80	86	1
86	97	3
103	180	1
67	129	1
32	168	2
103	143	2
135	158	2
98	108	2
112	130	1
172	179	1
33	37	2
132	137	2
117	126	2
0	13	1
97	101	4
90	112	1
4	34	2
14	35	1
137	146	1
61	68	1
5	13	3
103	140	1
65	151	1
61	84	1
51	132	2
90	138	1
0	79	1
5	51	1
96	99	5
35	40	1
95	112	2
72	117	1
39	91	1
4	23	2
78	94	1
61	100	1
38	91	2
95	111	3
109	110	4
33	147	2
79	96	2
146	169	2
75	78	1
123	175	2
171	179	1
1	5	5
85	121	1
42	64	2
76	139	1
117	129	1
45	156	2
6	101	1
17	85	1
62	136	1
26	33	3
158	170	1
10	33	2
10	180	1
98	143	1
7	56	1
1	9	4
5	20	1
70	148	3
75	84	1
127	145	1
61	95	2
90	98	2
110	142	1
24	39	1
140	145	3
140	154	2
128	170	1
109	120	2
14	170	4
36	85	2
22	33	1
132	150	3
50	71	3
6	26	1
60	90	1
139	177	1
20	24	1
9	127	2
27	130	2
103	107	4
115	128	1
20	38	3
80	105	1
4	17	2
68	101	2
50	67	2
12	98	2
133	148	2
21	26	3
163	169	1
56	141	1
68	172	2
157	159	2
73	172	3
80	99	2
102	130	1
112	122	3
2	16	1
73	135	1
83	163	2
74	112	4
91	125	1
41	79	2
121	162	1
100	128	1
56	121	1
1	4	4
61	140	2
58	153	1
29	60	1
18	34	3
73	80	1
136	154	1
102	104	1
112	149	1
91	99	1
149	168	1
119	132	2
169	178	2
50	68	1
112	137	1
97	180	2
60	65	3
101	110	1
59	108	1
14	43	1
107	143	1
125	128	2
108	150	1
50	134	1
4	10	2
24	31	1
171	176	2
13	107	1
17	50	1
96	159	1
137	176	2
122	145	1
146	159	1
16	177	1
14	92	1
10	43	1
20	30	2
5	14	3
18	110	1
110	137	1
73	113	1
6	42	2
103	114	1
134	148	2
125	131	1
101	174	1
28	59	1
72	144	1
10	82	2
9	31	2
72	118	1
39	156	1
167	173	3
10	22	1
50	54	2
92	101	1
122	134	1
156	168	2
105	108	1
3	42	2
76	96	1
141	149	2
0	12	2
39	113	1
93	124	2
81	124	2
129	156	1
105	148	1
66	90	1
139	149	3
159	167	1
162	166	1
24	30	2
131	147	1
66	136	1
131	140	1
58	146	1
3	41	2
35	112	1
74	79	1
145	152	2
104	120	1
92	148	1
141	146	1
50	87	1
169	173	2
14	36	2
158	169	1
60	178	1
88	146	2
63	72	1
34	37	1
116	177	2
4	12	3
84	128	1
112	142	1
25	33	1
11	160	1
61	90	1
101	114	1
169	176	1
128	160	3
130	149	1
75	161	1
67	101	1
56	77	1
100	143	2
50	58	1
64	116	1
168	175	4
95	105	2
106	111	1
2	41	2
124	138	2
144	158	1
40	92	1
68	135	1
76	114	2
65	120	2
134	145	1
35	45	1
173	176	1
39	146	1
58	81	1
87	99	1
96	144	1
88	151	1
116	136	1
9	38	2
110	118	2
114	163	1
150	158	1
61	111	1
94	108	1
145	169	1
0	6	2
119	128	2
128	152	1
150	153	1
17	32	6
59	65	1
160	164	1
83	89	1
125	139	1
96	102	1
82	84	1
164	169	1
153	163	1
14	33	1
19	115	2
65	132	2
65	157	1
116	134	1
80	108	1
90	176	1
61	132	1
58	91	1
39	42	1
142	159	1
36	84	2
105	126	2
117	162	1
144	168	2
10	35	1
65	87	1
88	135	1
123	131	1
34	175	1
11	27	2
21	42	3
95	113	2
3	31	1
149	176	1
142	153	1
59	82	1
53	84	1
24	41	4
149	180	1
25	167	2
94	123	1
107	118	2
27	169	1
19	23	3
63	162	1
37	40	1
97	117	1
89	152	1
102	110	1
131	172	1
161	165	1
57	60	1
62	112	1
78	99	1
127	139	1
18	42	1
136	149	1
26	31	3
94	173	1
52	118	1
114	118	3
96	104	1
112	178	1
58	122	1
152	166	2
120	130	1
67	78	1
78	80	2
137	141	2
150	175	1
126	131	1
88	133	1
51	71	1
92	104	1
42	84	1
13	21	1
81	86	1
62	92	1
37	76	1
97	99	1
81	126	2
50	154	1
16	33	1
61	121	1
19	22	2
24	121	2
158	175	1
43	52	1
95	98	2
131	134	2
135	153	2
5	29	1
25	62	1
4	16	1
70	74	3
10	42	1
17	19	1
52	130	2
22	92	2
118	163	1
118	126	1
6	11	1
28	176	2
53	65	1
6	8	1
108	172	1
89	113	2
131	173	1
44	58	1
76	83	1
82	90	1
36	41	2
115	153	1
136	174	1
116	179	1
67	75	1
95	114	1
13	28	1
112	135	1
86	90	1
133	150	1
81	94	1
53	131	1
113	156	1
100	108	1
155	180	1
11	34	1
31	85	1
58	67	1
19	39	1
6	9	2
81	96	1
119	166	2
62	126	1
134	180	1
14	72	2
147	159	1
162	168	1
41	92	1
124	144	1
119	130	1
88	109	1
150	170	1
90	120	1
151	158	1
16	79	1
65	81	1
17	112	1
26	32	1
136	139	1
63	105	1
125	148	1
43	136	1
158	160	1
55	64	1
114	155	1
75	113	1
68	103	1
