181	181	1
154	159	3
159	159	3
8	9	2
97	97	3
20	34	3
3	15	4
18	20	2
149	149	4
176	177	2
178	178	6
14	14	2
192	193	3
36	37	2
170	170	7
28	68	2
175	177	5
179	180	2
143	146	3
183	183	1
111	111	2
121	121	3
21	21	3
177	180	3
34	36	3
29	29	1
20	82	2
143	144	4
175	179	5
80	80	4
158	169	4
33	33	4
85	88	1
137	174	2
24	32	1
156	157	3
173	173	5
96	97	1
122	123	1
129	129	4
138	139	1
193	193	7
188	188	4
4	4	5
166	166	5
122	122	2
113	114	3
175	175	2
53	53	3
114	114	3
189	194	3
130	130	4
117	161	1
11	11	1
42	42	4
119	119	3
187	187	3
34	34	2
168	179	1
106	161	3
34	35	6
163	164	1
160	162	3
72	72	4
186	186	4
118	118	4
177	178	8
177	177	1
167	167	3
124	127	1
49	49	4
120	121	2
138	173	1
178	183	1
22	58	1
160	160	3
16	18	3
19	21	1
46	47	1
62	63	2
156	156	6
109	158	1
63	80	2
189	189	4
27	28	4
23	23	2
119	154	2
32	32	2
24	24	1
118	130	1
95	95	1
139	139	3
180	181	1
17	17	2
196	196	1
118	173	2
13	24	1
182	182	5
157	176	2
135	140	2
63	63	1
195	195	3
57	57	2
165	165	3
140	140	4
24	28	2
123	150	1
10	11	1
175	176	4
107	111	2
66	66	1
0	0	3
77	78	1
150	150	2
58	58	1
67	68	2
137	137	6
176	194	1
172	172	1
172	179	1
101	101	2
156	166	3
78	85	1
85	85	2
127	127	4
16	17	3
108	108	2
57	58	1
106	106	1
103	103	5
56	56	7
67	67	1
25	27	1
62	62	4
72	95	1
144	144	1
163	163	2
124	124	1
168	168	3
35	35	4
191	191	1
97	111	1
110	153	2
138	138	1
59	59	2
126	126	2
31	32	1
43	44	2
16	16	2
134	134	4
120	153	1
133	152	2
161	181	1
155	184	2
157	172	2
25	25	2
33	112	1
128	128	4
161	162	2
20	21	3
155	155	4
121	144	1
132	132	2
42	43	1
153	154	1
163	170	3
136	137	3
184	184	1
41	41	1
20	20	2
112	143	2
87	87	2
178	180	3
171	171	5
152	165	3
82	83	1
3	3	3
136	136	2
121	122	2
28	59	1
23	74	2
22	26	3
54	54	2
154	154	1
45	45	2
113	113	1
65	76	2
187	188	1
192	192	1
143	143	1
50	52	2
131	131	3
176	176	1
8	8	4
47	47	1
142	142	1
100	100	2
64	65	1
126	196	3
109	109	1
67	69	1
118	122	1
58	60	1
72	73	1
30	30	3
134	135	2
178	179	1
26	27	4
81	81	1
83	84	1
55	69	1
6	40	1
159	160	2
118	119	2
110	155	1
124	125	3
18	18	1
30	31	1
55	55	1
173	176	1
133	133	1
7	7	3
189	190	1
43	43	1
71	71	1
97	100	1
22	31	1
39	39	2
133	139	1
165	166	2
79	79	1
113	115	1
60	61	1
5	5	2
126	197	1
197	197	3
151	189	1
69	69	1
46	46	1
22	74	1
62	64	1
10	10	1
154	160	1
150	170	1
19	19	1
115	115	2
45	46	1
195	196	1
146	146	1
23	73	1
86	86	1
120	178	1
107	107	1
36	36	1
6	6	1
72	94	1
17	58	1
