38	38	4
145	148	4
25	25	8
15	15	6
6	6	2
3	3	4
104	104	5
91	91	5
17	28	2
111	156	1
15	16	3
44	44	1
71	73	6
40	41	3
9	10	5
142	143	2
83	83	10
82	83	4
26	57	1
0	28	2
137	137	4
2	2	5
187	190	5
102	102	4
135	135	3
117	117	4
148	148	6
105	109	4
140	140	8
46	47	5
109	109	10
35	37	2
152	152	6
114	114	8
32	33	2
61	64	3
61	61	2
132	132	13
114	139	2
77	77	2
131	131	4
153	153	8
118	118	2
19	19	7
184	184	5
52	52	5
183	186	4
43	43	5
42	42	11
105	105	5
136	136	3
141	144	4
111	130	1
23	59	4
79	79	12
9	37	4
150	150	4
46	66	2
65	65	2
177	177	7
59	59	6
107	112	1
134	136	5
186	186	10
128	129	1
149	149	5
16	17	3
48	48	10
44	46	3
128	128	9
68	68	2
56	57	3
162	162	7
163	163	3
16	18	4
86	86	10
176	186	4
7	8	2
131	139	2
63	67	4
61	87	4
185	185	3
64	64	3
4	4	9
0	0	3
95	96	4
11	13	1
40	40	1
26	26	11
142	144	1
56	56	4
16	16	8
28	29	7
131	142	1
46	63	2
134	134	10
160	164	1
103	103	12
7	7	4
116	116	10
39	40	8
182	186	5
143	143	8
72	72	14
5	10	2
170	186	3
35	35	2
190	190	3
113	113	10
124	124	1
73	73	7
145	145	11
58	58	6
78	78	6
62	62	2
10	10	6
17	18	5
122	124	6
129	129	5
183	183	7
6	7	1
164	182	3
34	37	1
36	36	2
84	85	1
118	156	2
154	155	2
178	178	2
158	158	1
181	181	2
155	156	4
0	15	3
74	79	2
146	146	1
11	12	4
137	181	1
79	81	1
4	63	4
65	68	1
144	145	2
139	139	6
75	75	3
5	6	3
66	66	8
188	189	3
115	118	2
19	20	8
5	5	3
138	138	5
108	108	9
115	115	4
98	98	11
11	11	3
180	180	3
188	188	8
30	30	6
1	2	2
180	182	2
177	185	5
76	76	5
127	156	5
120	156	6
0	55	3
146	148	5
90	90	6
84	84	5
92	106	4
92	92	9
161	182	1
147	148	3
14	14	3
45	56	5
95	95	2
58	59	2
63	64	6
189	189	3
39	39	3
75	76	2
18	18	4
92	93	2
108	111	3
24	24	4
75	123	4
80	100	1
123	123	3
81	81	10
97	126	3
182	182	4
66	68	3
173	173	9
31	31	1
114	115	3
55	55	4
158	167	4
126	126	1
30	31	1
160	160	2
164	165	5
152	153	2
145	155	1
75	122	2
95	98	1
93	93	7
105	106	3
46	46	5
19	22	1
68	69	2
12	12	3
112	112	1
113	148	2
33	34	1
182	184	3
53	54	3
32	36	7
142	142	2
150	166	3
92	95	2
154	164	3
71	82	3
88	88	2
158	169	1
21	23	3
67	68	1
13	13	5
144	144	2
181	182	6
121	122	2
131	143	1
0	1	4
151	151	3
6	12	3
146	157	3
33	33	6
163	166	2
6	28	2
107	107	2
125	126	2
79	99	1
57	57	4
133	142	5
178	180	1
127	128	4
22	22	6
72	80	3
115	119	5
104	106	2
108	117	1
79	100	1
160	182	1
116	150	3
112	149	2
133	133	2
18	22	4
29	36	4
97	97	3
10	34	2
54	54	3
79	89	2
23	23	4
111	129	2
24	31	3
96	96	3
134	177	4
71	95	2
137	146	2
170	170	2
62	64	4
178	179	2
1	1	1
187	189	1
166	170	1
42	44	2
110	146	2
166	167	3
174	175	8
109	110	3
87	87	1
119	120	2
175	183	1
141	141	5
23	24	1
146	149	3
70	70	8
8	14	3
41	41	5
14	15	1
164	164	3
103	104	3
44	45	1
149	150	1
111	111	2
101	131	2
91	113	3
122	122	3
117	118	1
154	165	1
187	188	2
45	63	3
84	100	3
67	67	1
85	105	3
147	147	3
171	171	2
8	11	3
102	147	1
71	71	4
175	175	5
82	82	3
54	55	1
80	92	2
159	159	4
141	142	2
83	87	1
118	138	3
163	164	2
111	113	2
166	168	2
97	128	3
27	27	3
64	75	2
79	85	1
174	174	4
156	156	5
157	157	2
147	182	2
174	184	1
6	8	4
108	116	2
60	60	2
40	47	1
99	101	2
80	81	3
74	75	2
153	174	3
93	94	4
6	67	1
6	27	2
35	53	3
32	38	1
72	94	1
176	176	3
17	34	1
176	183	1
154	154	1
138	144	1
45	46	1
92	120	2
43	44	3
85	85	4
74	74	3
121	124	1
179	187	1
137	138	2
172	172	2
106	106	2
90	101	3
21	21	1
0	56	1
175	176	1
131	141	2
89	89	5
14	66	1
31	32	1
100	121	2
73	115	1
13	21	1
125	125	4
8	39	1
182	183	3
58	62	1
95	108	1
72	73	1
155	155	1
94	95	1
0	14	1
131	132	1
136	137	1
45	45	1
47	47	2
63	63	1
185	186	1
169	169	2
146	147	1
116	167	1
10	11	1
134	180	1
13	14	1
120	127	1
19	138	1
71	97	1
11	14	1
99	99	2
79	87	1
17	22	1
97	98	1
113	114	1
23	60	1
36	37	1
80	93	1
9	34	1
9	35	1
163	172	1
179	179	1
127	127	1
163	171	2
21	22	2
91	92	1
115	116	1
172	174	1
16	22	1
187	187	1
59	64	1
59	60	1
72	78	1
123	125	1
109	111	1
166	183	1
18	28	1
97	129	1
