139	139	7
82	83	2
86	107	2
120	120	9
79	79	4
2	2	2
8	8	1
92	92	6
72	134	2
100	100	10
83	84	3
4	12	2
111	111	13
73	81	2
110	134	3
135	135	5
78	78	1
95	95	8
88	93	1
98	98	2
17	18	8
120	121	5
36	36	1
27	27	6
97	97	5
10	10	5
124	124	4
114	135	1
76	78	2
32	36	5
82	82	7
136	136	1
133	133	11
114	114	8
96	96	18
130	130	15
33	34	1
21	22	2
116	116	12
122	122	12
34	35	1
93	94	3
127	128	6
21	21	9
128	128	14
3	3	4
11	12	2
16	16	4
88	133	2
108	120	3
94	94	4
72	73	7
135	140	1
14	14	2
17	17	7
73	73	5
134	135	5
37	136	1
72	129	1
107	107	4
73	129	1
86	122	1
32	32	3
115	126	2
94	95	2
140	140	4
77	77	2
87	87	5
113	126	2
113	115	2
79	80	3
83	85	2
7	7	3
81	82	3
24	24	5
75	75	7
121	121	6
28	28	3
84	84	4
127	132	1
136	138	1
36	37	1
33	136	4
123	123	7
104	106	2
37	37	6
134	134	2
79	101	1
103	103	6
77	110	1
126	126	7
132	132	7
113	113	3
133	134	4
130	131	1
91	91	1
74	74	8
76	77	3
19	20	1
138	138	7
31	31	4
115	117	3
106	106	4
88	90	1
100	117	1
85	117	2
114	133	1
83	83	2
71	129	2
131	132	1
15	15	4
71	71	1
30	32	3
115	134	1
109	109	7
78	80	2
125	125	3
102	120	2
74	110	1
91	92	2
99	100	1
25	25	1
67	94	1
125	126	1
104	104	4
89	89	7
137	137	10
31	32	1
28	36	3
102	102	3
135	136	1
108	108	1
102	116	3
112	113	1
80	80	3
14	19	2
85	86	3
22	26	1
102	104	1
12	26	1
105	109	5
97	114	1
78	79	2
129	129	4
109	112	1
22	25	2
128	132	2
119	119	9
118	118	1
101	102	4
35	35	2
112	112	4
81	129	1
123	135	1
90	94	1
6	6	3
67	85	3
110	111	3
127	127	7
118	119	1
1	1	1
88	94	3
78	108	2
85	108	1
100	101	2
113	114	1
80	134	2
6	33	1
20	26	1
124	126	3
105	105	1
87	88	1
90	90	2
88	88	2
13	13	1
4	4	2
128	129	1
99	99	2
73	74	1
130	136	2
33	36	2
97	98	1
104	105	1
125	128	1
85	85	3
87	122	1
101	101	1
90	126	1
17	34	1
66	72	1
115	132	1
126	127	1
110	110	1
83	108	2
29	29	1
113	131	1
137	138	3
123	126	1
77	104	1
12	13	1
16	17	1
93	93	1
77	116	1
84	85	1
80	116	1
76	76	1
37	137	1
81	81	1
134	138	1
