102	102	5
16	18	1
119	120	3
84	85	4
121	130	7
31	31	6
74	74	6
97	120	2
14	15	2
109	109	6
105	105	13
111	111	4
82	82	9
70	70	4
60	60	9
4	4	12
98	98	3
87	87	10
48	48	2
79	81	4
63	64	1
10	10	15
73	135	4
63	63	11
49	49	8
60	69	1
1	65	4
98	99	3
137	137	6
27	27	8
17	21	4
133	137	7
134	134	8
34	41	2
104	117	5
76	78	2
138	138	9
53	87	1
58	65	2
41	41	2
2	4	2
138	139	6
95	95	9
69	69	9
8	9	5
84	84	9
77	77	3
17	17	7
57	58	5
75	82	3
116	118	2
121	121	11
10	34	3
94	94	4
50	65	2
2	68	4
29	29	10
112	112	1
89	89	11
38	41	3
57	57	5
17	57	2
97	122	1
18	18	11
82	142	1
51	51	14
133	133	8
56	69	1
107	109	1
106	109	1
104	130	1
27	28	15
63	85	2
117	117	9
34	34	5
125	125	8
61	108	3
86	86	4
133	134	9
90	91	1
66	67	8
107	134	2
36	36	3
2	31	2
131	131	10
73	109	1
24	144	2
106	107	5
9	38	4
18	56	5
73	73	4
132	133	4
117	118	4
129	130	4
120	120	7
135	135	9
121	138	6
50	50	3
70	107	7
129	129	12
0	28	1
108	109	1
85	85	4
11	21	2
69	75	3
31	39	3
71	79	6
11	20	2
91	91	3
125	126	1
139	142	1
33	37	2
123	123	11
131	136	4
126	126	17
80	131	2
85	108	1
48	72	2
88	89	17
103	126	1
65	69	2
75	76	2
141	142	7
90	90	7
6	24	4
125	137	3
101	101	7
126	127	5
11	96	3
128	128	6
41	42	5
15	16	5
24	24	4
14	19	1
11	11	4
25	25	15
116	116	4
52	64	1
137	140	4
89	90	2
50	51	2
59	64	1
104	104	8
53	54	3
62	68	2
38	38	12
143	143	6
39	39	9
98	119	4
4	31	5
67	68	4
0	66	4
96	96	3
23	23	2
106	132	3
2	97	1
118	118	9
87	95	1
112	113	4
73	74	8
117	131	2
20	21	3
22	22	11
141	141	4
134	142	1
31	33	2
28	59	3
117	140	2
99	99	8
136	138	1
83	83	5
76	120	1
37	37	9
6	69	3
118	136	1
28	28	2
110	116	3
79	80	5
13	20	1
9	10	3
11	14	6
118	119	4
37	38	5
47	47	7
88	90	5
54	94	3
85	120	2
42	42	6
122	123	3
15	26	4
8	8	6
70	109	2
107	107	6
6	6	8
84	96	4
96	118	2
110	110	7
2	3	1
33	39	2
139	143	1
92	92	4
114	114	6
81	121	1
139	139	4
103	128	4
79	88	3
73	106	2
75	75	3
82	103	2
3	4	2
108	108	1
8	36	1
13	67	1
21	23	3
79	85	2
115	115	6
113	132	3
33	42	1
103	103	5
88	88	4
118	125	1
47	74	4
122	122	4
116	117	1
29	102	3
101	103	2
68	69	2
0	96	1
145	145	3
142	142	1
53	58	2
0	146	2
130	130	9
63	86	3
81	82	4
137	138	2
133	135	5
33	33	3
25	96	1
72	74	2
93	93	5
144	144	1
75	94	1
79	79	5
145	146	1
112	116	1
127	138	1
22	23	1
76	80	1
122	138	3
134	135	1
62	67	4
5	5	4
1	67	1
124	124	14
120	123	1
12	12	2
48	92	1
112	133	2
88	91	1
4	36	3
0	63	1
53	53	7
68	68	10
20	20	4
3	34	1
132	132	1
64	86	2
40	40	7
59	60	1
48	53	1
114	115	2
23	24	6
86	106	4
5	6	2
84	87	1
62	66	1
59	59	1
32	32	6
2	5	1
104	105	1
80	130	7
126	132	1
0	0	2
71	71	3
127	127	1
109	110	3
87	110	3
120	144	1
58	58	6
58	59	4
53	56	1
66	66	3
96	97	3
61	61	5
55	55	3
136	136	11
30	30	3
81	131	1
3	68	2
66	69	1
54	54	2
15	32	1
33	34	3
31	41	2
35	43	2
65	65	4
87	88	1
113	138	2
134	144	1
85	140	2
89	93	3
9	9	1
121	131	2
137	139	1
32	33	3
111	138	2
25	26	6
92	94	1
0	65	4
51	129	1
131	138	3
69	79	1
135	138	4
55	56	3
119	119	3
71	110	1
29	30	1
48	117	1
139	140	1
73	134	2
17	18	1
21	21	1
31	34	1
52	129	2
5	40	1
15	15	1
3	3	1
14	20	1
52	52	3
1	26	5
72	109	4
106	116	1
72	72	1
108	140	1
13	21	2
3	27	2
103	104	1
1	28	2
47	49	1
0	1	2
89	110	2
83	115	2
62	62	2
65	66	3
104	120	2
24	39	2
37	40	1
54	69	1
109	140	3
128	129	1
13	13	1
18	96	1
140	140	2
123	127	1
127	129	2
128	142	1
64	65	2
67	67	1
72	75	1
146	146	2
1	1	1
117	136	1
62	79	3
81	118	1
2	33	5
97	97	2
77	78	2
97	101	1
60	64	1
78	78	1
9	23	2
91	114	1
103	117	1
87	111	1
10	23	3
1	69	1
104	129	1
85	92	1
56	56	1
57	66	1
38	39	2
73	85	3
83	85	2
71	73	1
112	117	3
80	128	1
132	135	3
8	22	1
92	117	1
81	81	1
55	86	1
128	132	2
70	86	1
12	13	2
40	41	1
43	43	1
60	61	1
142	144	1
98	117	1
64	64	3
26	27	2
16	16	2
111	112	2
39	40	2
70	85	1
14	14	3
121	124	1
18	19	1
56	96	1
54	56	1
107	108	1
114	138	1
52	59	1
100	100	2
79	131	2
142	143	1
71	72	1
68	75	1
95	145	2
140	141	1
105	110	1
135	140	1
26	26	2
23	38	1
91	94	2
80	80	1
130	131	1
136	137	1
85	86	1
115	116	1
