138	138	7
14	19	3
7	7	3
16	16	7
111	111	10
38	39	1
35	35	6
34	34	6
21	21	3
114	115	7
74	75	3
118	151	2
53	53	8
122	122	4
152	152	5
14	14	13
158	158	5
13	15	2
121	127	2
0	1	6
50	50	7
40	62	4
3	3	2
128	129	5
154	160	2
170	170	3
17	17	4
112	112	14
15	18	3
8	8	6
6	6	7
148	160	1
151	154	3
166	166	3
2	2	20
116	147	3
54	55	8
108	108	3
57	57	4
38	38	15
81	81	1
128	128	15
71	102	1
167	167	3
81	82	3
4	4	8
156	156	6
168	170	2
45	121	2
77	111	4
6	14	1
79	80	4
76	80	2
155	160	1
50	57	5
28	49	2
44	46	1
20	20	4
45	45	12
62	62	6
144	144	5
145	146	3
70	73	4
169	169	4
11	11	5
97	97	4
21	57	4
157	167	5
63	63	4
126	126	7
162	162	1
109	110	3
91	91	3
110	141	1
36	36	8
129	140	4
5	8	1
80	80	6
144	146	1
52	52	10
126	128	2
48	49	15
96	96	2
7	8	6
22	23	3
148	162	3
26	52	1
77	87	2
2	112	2
44	44	11
71	75	1
73	73	5
159	159	5
23	23	7
43	74	1
133	134	4
144	157	1
47	48	2
116	145	2
85	85	5
108	109	3
49	49	4
165	165	3
113	113	4
57	62	2
25	27	4
17	18	2
22	22	3
66	69	1
27	27	3
162	164	6
25	26	3
71	71	4
46	46	5
6	7	3
43	43	3
51	51	4
19	19	3
41	41	6
148	148	2
10	25	1
56	56	7
72	87	3
12	12	1
148	164	3
33	33	3
119	120	3
107	116	2
127	127	1
160	161	2
116	116	4
69	73	3
25	57	2
156	157	3
46	54	3
63	118	5
52	55	1
98	98	6
20	21	2
106	106	5
114	114	2
130	133	1
154	154	6
102	102	3
91	106	1
40	40	2
68	68	5
71	81	3
77	84	3
58	58	1
25	25	3
113	153	1
152	153	3
40	41	9
144	165	1
24	24	5
136	136	3
26	64	1
90	98	2
93	93	3
140	141	2
67	69	1
155	157	3
14	106	3
160	160	5
77	162	2
12	14	1
92	95	2
19	115	2
120	123	4
110	110	4
119	119	5
115	118	3
15	15	5
151	151	4
48	48	6
157	157	1
55	55	1
64	64	4
109	134	2
146	164	1
168	168	2
139	139	5
1	13	1
117	117	3
13	37	1
10	10	3
131	131	3
11	37	3
92	94	2
3	39	1
142	142	3
73	90	1
15	38	3
140	140	2
34	35	3
10	41	1
121	121	1
74	81	1
54	54	3
120	120	1
167	169	2
25	44	1
35	111	1
74	74	3
5	5	1
75	80	2
133	133	7
24	25	2
18	18	2
13	51	1
9	9	1
126	163	2
15	39	3
147	147	3
71	80	3
37	38	1
21	22	1
21	49	4
151	152	1
109	109	1
6	36	4
8	10	1
6	20	1
99	100	3
95	105	2
9	52	1
19	47	1
164	164	1
79	79	3
145	145	1
80	82	1
85	114	3
83	87	1
44	48	1
42	42	1
4	6	1
126	149	4
69	69	7
23	58	1
137	138	2
87	87	2
63	69	1
7	35	1
46	121	2
35	36	3
23	54	2
34	110	2
51	55	1
148	149	1
150	156	1
135	135	4
7	10	1
73	86	1
67	67	2
99	105	1
66	66	1
0	0	1
14	51	2
118	118	1
13	13	1
20	24	1
138	139	2
26	26	1
99	114	1
39	63	2
90	93	1
131	132	1
152	155	1
14	18	1
120	121	1
107	107	1
39	39	3
123	161	1
153	153	3
19	20	1
17	20	2
107	108	1
116	146	1
111	112	1
90	91	1
26	27	1
105	106	1
45	56	1
155	155	1
12	58	1
37	57	1
36	136	1
134	136	1
141	141	2
13	24	2
112	151	1
76	77	2
163	163	1
117	144	1
33	34	1
83	83	1
1	24	2
16	78	1
89	90	2
44	45	3
25	37	3
125	125	1
97	98	1
152	154	1
161	168	1
65	68	1
113	152	1
94	94	1
126	142	2
164	165	3
42	43	1
77	79	1
146	146	1
149	149	1
156	158	1
20	58	1
15	22	1
97	147	2
108	116	1
39	51	1
72	72	1
1	1	1
116	122	1
105	105	1
18	40	1
115	115	1
20	41	2
82	82	1
88	88	1
95	95	1
141	152	1
162	163	1
115	151	1
124	124	1
144	145	1
142	166	1
18	39	1
103	112	1
131	142	1
147	148	1
