125	125	9
111	111	20
101	101	6
119	119	10
126	126	22
123	123	20
83	83	18
136	136	21
129	129	18
83	84	3
98	99	5
87	88	1
21	21	9
21	26	7
84	84	7
36	96	3
6	26	7
73	73	24
78	78	2
114	117	8
116	116	9
118	119	1
131	131	16
82	82	4
1	1	5
108	108	14
97	97	10
28	125	2
137	137	12
17	17	5
89	89	7
118	118	6
128	128	9
139	139	16
88	124	2
99	99	5
119	138	1
79	86	1
115	115	18
5	6	3
96	138	3
103	104	2
85	85	14
130	130	16
106	107	14
138	138	26
26	27	2
2	10	5
124	124	24
114	114	9
121	121	20
34	34	8
36	90	2
20	21	8
76	76	4
14	72	4
113	113	12
8	10	2
140	140	21
86	97	5
6	6	10
4	5	10
107	108	3
12	21	1
74	74	8
75	75	10
96	122	4
106	106	15
98	98	11
88	90	4
127	127	8
12	12	1
132	132	17
28	28	5
14	14	6
27	31	2
79	85	6
20	29	2
95	95	11
26	26	9
38	38	6
90	90	3
125	126	5
77	77	8
71	101	3
92	92	7
88	88	7
71	102	3
27	33	3
25	25	7
74	77	2
35	35	13
22	23	6
33	33	16
96	96	11
88	122	4
120	120	13
84	87	4
11	122	2
133	133	21
91	91	7
11	12	9
73	75	6
109	109	13
117	117	11
80	80	9
27	27	7
131	135	3
2	2	10
8	8	7
3	3	9
115	118	1
86	88	3
1	8	1
8	9	4
7	7	5
18	19	11
107	113	2
107	107	10
37	37	7
84	85	4
112	112	6
137	138	5
14	23	3
86	87	5
31	31	5
114	133	3
23	23	10
94	94	11
104	104	9
11	11	2
99	100	3
19	26	1
30	30	3
72	118	1
135	135	10
124	129	1
9	11	1
0	0	6
25	82	3
93	93	12
30	35	2
119	120	1
123	128	1
22	24	5
32	32	5
117	118	1
122	122	16
21	22	1
81	86	1
29	29	4
110	110	19
109	120	2
72	72	10
22	22	3
83	85	2
36	37	2
95	130	2
134	139	1
27	29	1
105	105	4
134	134	13
14	24	1
24	26	3
100	101	2
123	124	11
71	71	5
120	121	8
24	24	5
0	1	2
88	101	2
100	100	3
75	77	1
17	88	2
88	96	2
23	24	3
13	13	10
98	100	2
104	105	8
34	35	3
93	94	3
123	134	2
124	125	4
102	102	4
39	78	1
121	122	9
68	68	2
78	79	2
81	81	3
109	110	1
102	104	2
88	123	3
107	109	9
74	76	2
87	87	7
119	123	5
82	84	2
127	128	3
71	118	1
24	74	1
79	121	1
123	139	2
105	113	2
22	26	1
82	83	3
96	104	2
10	10	3
36	125	1
36	36	7
102	107	2
96	121	1
124	126	2
25	26	1
79	79	3
111	115	3
75	76	4
110	111	1
4	4	5
72	73	1
72	93	1
74	82	2
132	133	6
10	14	1
10	11	1
139	140	1
7	9	1
77	78	1
7	8	2
96	131	4
13	14	4
97	98	2
130	135	2
37	38	2
133	134	2
116	118	2
117	133	2
10	110	2
126	129	1
1	15	2
127	136	1
14	25	1
14	15	2
129	135	2
103	107	2
124	138	4
22	82	1
132	137	1
34	36	1
101	103	2
81	85	3
81	82	2
80	81	1
76	77	1
20	20	6
116	117	3
97	132	1
11	19	3
5	21	3
28	29	1
86	86	6
28	124	3
16	16	2
120	122	2
18	18	1
5	5	1
73	91	1
96	130	2
105	106	1
97	121	1
31	32	2
103	103	2
74	75	2
84	101	4
12	22	1
23	85	1
12	117	1
72	74	1
35	36	1
8	23	1
89	95	1
119	122	1
22	25	1
83	102	1
29	31	2
77	88	1
9	10	3
9	9	3
136	137	1
91	130	1
3	4	1
96	100	1
84	122	1
126	127	1
23	82	2
125	138	2
103	105	1
96	136	1
85	101	2
19	20	1
22	81	1
79	83	1
92	93	1
29	93	1
22	38	2
12	18	1
25	38	1
134	135	1
87	97	1
26	134	2
28	30	1
99	116	1
