77	78	3
85	86	3
95	95	1
128	128	16
86	86	3
79	79	8
17	17	6
3	4	3
134	134	23
33	33	20
131	131	22
135	135	16
89	89	3
18	18	2
111	116	1
37	38	1
32	32	10
90	90	11
21	21	15
104	113	4
94	94	6
72	116	5
22	22	6
124	124	37
2	3	1
8	8	6
122	122	12
75	75	13
101	101	15
73	73	13
81	81	5
87	120	6
124	125	4
10	11	1
105	111	5
130	130	17
107	107	1
71	71	1
133	133	10
125	128	6
23	23	8
81	86	1
17	18	6
80	80	5
27	27	2
2	2	4
128	129	4
4	5	6
77	77	15
86	87	6
72	72	5
79	87	1
93	93	9
134	135	10
123	123	4
87	87	3
91	91	8
19	38	1
78	78	11
16	16	4
140	140	15
120	121	2
38	38	5
11	11	2
82	94	4
127	127	12
124	136	2
35	132	5
27	28	9
108	110	2
116	116	5
29	30	1
139	139	8
12	12	4
22	24	2
23	25	2
9	9	8
24	26	3
73	120	1
106	106	8
11	15	2
28	29	6
19	19	5
13	18	4
12	14	3
79	80	3
21	26	2
128	136	1
34	35	2
82	86	1
112	112	4
78	79	2
129	130	7
0	1	2
99	99	2
98	98	4
96	96	8
26	114	6
14	20	1
137	137	10
37	37	2
132	132	21
120	120	7
109	109	8
127	131	2
7	7	6
38	123	5
3	3	8
112	119	1
31	32	2
120	122	4
116	118	2
125	125	10
30	30	4
97	97	6
9	11	8
18	26	1
100	100	10
103	104	8
116	117	3
88	88	6
136	136	15
84	84	10
88	89	3
24	24	3
75	77	2
112	116	4
83	84	4
118	120	1
110	110	9
111	111	9
80	81	1
12	16	1
74	74	7
126	126	5
119	122	2
112	122	3
123	124	2
91	104	1
5	5	7
35	35	6
115	115	3
9	10	1
13	13	1
36	36	5
83	83	6
6	6	9
76	76	5
127	128	5
27	30	2
104	105	2
114	114	7
121	121	5
37	129	2
118	118	4
6	7	1
4	4	11
10	12	5
18	20	2
21	22	2
88	128	2
20	20	2
129	129	6
28	28	9
131	132	4
33	34	8
34	34	6
114	115	4
110	111	3
18	32	4
0	0	8
77	79	2
73	102	1
95	96	1
122	129	2
117	119	1
3	14	1
44	120	2
10	10	4
105	108	2
14	17	2
127	129	1
92	92	1
87	114	1
22	23	6
124	128	4
122	123	4
22	80	2
121	124	4
138	138	10
125	135	1
35	100	1
106	109	3
15	15	2
12	19	1
103	118	4
97	110	1
25	26	2
74	77	1
82	85	1
1	1	6
122	124	1
112	123	2
77	83	2
73	80	5
99	100	3
121	122	2
37	100	1
87	88	3
28	34	1
138	140	1
109	110	3
26	27	2
30	32	2
109	112	1
7	9	6
31	31	4
17	27	2
3	5	2
84	85	1
111	122	3
126	128	1
29	32	1
110	123	1
19	21	1
138	139	1
96	106	1
7	8	2
96	97	1
36	37	2
104	106	2
76	77	4
123	136	1
95	127	2
103	103	1
85	92	1
136	137	1
72	104	1
140	141	1
131	133	1
5	132	2
102	102	1
29	29	2
13	14	2
137	138	1
111	117	1
38	94	1
32	33	1
108	108	1
135	136	1
26	26	1
32	37	2
73	119	1
44	44	1
21	125	1
101	102	1
5	14	1
5	18	1
25	25	3
102	103	1
15	19	1
112	113	1
109	114	2
83	86	1
109	122	1
34	132	1
