143	143	6
170	170	3
11	11	11
118	118	15
65	67	2
131	131	4
25	25	12
19	19	23
42	42	16
157	173	5
24	24	10
8	8	9
0	0	12
122	122	2
33	38	2
127	127	7
133	133	12
97	97	5
64	64	8
21	21	4
14	14	10
88	88	3
36	36	8
21	86	7
124	124	3
83	83	3
98	98	4
66	67	1
54	55	2
32	34	5
157	157	5
155	180	3
99	103	4
148	149	3
166	166	3
39	39	10
26	26	16
142	142	3
2	19	3
3	3	5
160	160	5
117	126	6
143	144	1
43	44	1
114	121	1
23	23	10
132	132	3
178	178	3
101	106	1
110	110	4
153	154	5
140	140	5
88	89	1
5	15	7
92	122	9
177	177	2
123	126	2
83	86	5
152	153	5
176	176	6
44	44	7
148	173	4
12	12	5
125	126	1
23	26	8
116	127	3
12	13	7
6	39	5
0	95	3
35	37	1
5	6	4
4	5	2
20	20	3
123	123	5
12	15	5
110	130	2
3	4	16
39	43	5
108	125	2
33	34	7
173	173	6
37	39	2
163	163	6
2	5	1
13	13	6
111	111	3
13	44	2
11	15	2
89	95	2
108	108	3
74	74	1
53	54	3
129	129	4
145	145	3
61	64	1
77	77	4
9	9	10
136	136	2
72	72	6
33	33	5
28	28	8
41	44	1
22	22	2
158	158	8
55	55	1
68	88	1
18	19	5
10	10	10
41	42	6
68	68	4
142	143	3
157	170	2
30	34	8
40	40	5
147	147	7
45	45	3
92	92	6
151	155	2
150	165	3
136	172	1
78	78	4
154	173	2
89	90	6
89	89	2
17	23	2
11	12	8
72	92	1
143	145	3
32	33	5
11	13	5
2	3	5
22	30	1
82	82	2
105	105	3
172	172	9
28	30	3
173	180	6
66	66	4
5	7	7
117	117	4
180	180	7
2	2	9
164	164	1
5	42	1
15	16	2
112	113	7
149	159	1
38	38	7
3	42	2
40	77	2
54	54	3
0	55	1
58	58	4
139	139	3
93	93	3
159	159	3
7	11	2
18	21	3
162	162	3
76	76	6
5	30	1
27	28	3
16	16	15
113	113	12
110	135	1
16	19	3
31	31	3
29	29	8
98	101	3
29	30	3
15	35	3
30	30	3
14	33	1
169	169	6
56	56	5
15	22	2
97	98	1
59	60	4
19	20	2
8	32	3
150	157	2
27	39	2
19	22	4
164	166	2
18	20	1
123	124	2
97	105	2
23	31	3
26	27	6
20	23	4
128	140	3
12	16	1
150	154	1
107	108	3
123	125	1
157	160	2
15	15	5
7	7	5
157	174	1
138	138	7
71	71	4
81	81	3
63	91	3
91	92	1
171	172	1
43	43	7
121	122	1
121	121	5
162	165	3
9	10	2
6	42	1
109	110	4
34	34	2
79	83	3
150	169	4
37	37	7
168	168	11
89	93	2
13	62	2
64	87	1
2	12	7
87	96	1
42	44	1
130	151	3
39	40	7
124	125	6
89	114	1
16	43	1
10	38	4
87	97	5
156	157	2
107	130	2
16	17	6
137	137	5
2	4	1
40	161	5
125	125	6
114	127	3
18	117	1
78	82	1
94	94	2
116	116	4
161	161	4
4	10	1
163	164	3
150	150	9
67	75	1
146	146	1
102	102	6
118	126	1
103	105	1
40	41	5
13	14	1
1	14	1
5	5	9
63	98	1
9	11	4
38	39	4
10	39	2
128	128	3
166	168	1
56	57	3
63	101	2
10	11	1
73	75	1
135	154	1
148	148	4
21	22	2
35	35	10
155	155	2
141	141	4
1	1	5
20	39	4
8	9	6
174	174	1
32	32	4
6	6	2
16	35	2
153	153	5
24	35	1
157	159	1
159	161	3
79	86	4
24	25	2
163	167	4
86	87	1
6	41	2
104	107	2
112	112	6
146	147	1
75	75	3
13	58	4
167	167	2
146	174	4
20	36	3
134	134	1
7	8	3
52	52	3
96	96	2
17	17	4
80	81	1
171	171	3
84	85	1
50	51	2
92	93	3
34	35	2
28	35	2
35	36	4
116	117	1
111	118	1
125	127	5
2	6	2
7	15	1
9	30	2
167	168	2
95	96	2
67	94	2
113	128	1
25	35	1
154	154	1
144	145	1
0	52	2
85	88	1
87	87	1
7	41	3
40	42	1
4	14	5
108	109	2
46	46	2
33	35	1
41	41	5
4	4	2
94	137	1
126	127	1
80	80	3
150	151	2
139	147	2
136	147	2
149	149	3
15	17	3
85	114	2
160	169	2
179	179	3
75	76	1
134	152	1
36	37	2
95	95	1
141	148	1
61	91	1
4	9	1
21	40	1
2	20	1
25	36	1
119	120	2
116	118	2
99	100	1
8	14	2
79	79	4
68	70	3
21	35	1
61	61	6
89	92	1
10	12	1
8	40	1
90	91	2
13	31	4
130	132	1
81	92	3
173	174	2
107	107	1
154	155	4
4	35	2
59	59	2
73	73	3
72	76	1
6	7	4
1	45	1
131	154	1
111	130	1
10	41	2
27	27	3
115	115	1
1	95	1
120	120	1
157	158	1
110	111	1
17	41	1
157	169	2
162	164	1
88	115	1
71	107	1
14	22	2
14	23	2
175	175	1
165	165	1
89	102	2
98	109	1
76	77	1
23	25	1
154	171	1
135	155	2
57	57	3
178	179	1
6	13	1
1	4	1
61	62	1
13	42	1
160	161	1
129	169	1
137	148	1
65	65	2
90	110	1
165	166	1
16	18	2
53	55	1
23	24	1
14	16	1
4	19	2
78	79	1
86	86	2
65	66	1
171	173	1
85	85	1
159	162	1
10	31	1
93	124	2
76	109	1
15	44	1
25	27	1
152	156	1
76	78	1
21	34	1
139	141	1
109	109	1
58	60	1
170	171	1
135	136	1
65	140	1
104	104	1
7	44	1
81	83	1
32	36	1
