103	103	4
60	60	4
119	119	7
63	66	3
112	113	6
6	6	5
122	129	2
124	124	9
5	63	4
132	133	3
63	64	3
78	80	1
115	115	10
43	43	4
68	87	3
53	53	3
97	98	4
115	118	1
70	72	2
34	35	1
106	106	9
99	99	16
47	70	5
62	62	7
105	105	6
90	90	8
57	60	5
76	88	2
38	38	7
123	123	7
114	116	1
49	50	4
58	63	4
112	112	13
73	73	7
54	57	3
15	19	2
31	31	6
111	111	7
119	120	3
11	11	7
100	100	5
3	3	5
66	67	2
76	76	2
121	121	5
13	17	7
13	14	3
82	82	2
98	98	13
35	35	7
111	116	3
65	65	6
14	15	5
6	7	2
7	7	6
19	20	6
93	93	2
63	63	2
84	84	12
105	106	4
50	50	5
66	66	5
75	76	3
58	59	1
1	2	7
6	8	1
120	120	3
67	68	2
110	110	5
16	16	4
92	98	3
102	102	10
113	114	1
107	122	2
114	115	3
36	36	6
67	67	5
75	75	6
68	69	3
17	18	1
49	49	2
64	64	11
104	104	3
24	24	3
86	86	5
98	99	1
94	95	3
104	105	5
117	117	6
97	97	5
83	83	3
128	128	1
28	28	3
2	2	2
128	129	1
111	114	1
122	122	4
11	12	3
94	94	9
82	86	2
61	66	3
108	108	1
131	131	1
46	47	1
88	88	3
95	95	8
110	116	2
32	74	3
72	72	6
95	96	4
78	82	2
54	60	2
87	87	4
77	78	3
14	14	7
61	61	2
29	34	2
130	132	1
62	78	1
80	80	2
86	88	2
109	110	6
97	100	4
51	51	3
68	68	12
28	30	3
13	25	2
44	67	2
77	81	1
61	64	1
20	22	1
79	80	2
32	34	1
107	107	2
96	96	6
133	133	4
96	97	1
15	22	2
116	116	4
106	107	5
19	19	1
101	101	8
3	4	3
8	8	3
118	118	1
127	127	2
34	34	6
74	75	3
29	29	1
59	59	3
86	87	1
56	56	4
67	87	1
44	47	2
33	33	5
129	133	1
69	69	3
125	125	1
126	126	1
5	5	3
14	25	2
64	68	3
113	113	4
82	83	1
74	74	1
44	44	2
120	121	1
130	131	3
99	100	2
125	126	1
66	79	3
67	69	1
97	113	2
64	79	2
92	93	1
15	15	2
26	27	2
30	30	3
76	112	2
33	35	4
20	21	2
93	94	4
18	18	1
78	78	6
64	65	1
87	113	1
15	23	2
35	50	1
84	85	4
128	133	1
44	45	2
70	71	1
12	13	1
66	68	1
56	57	1
59	61	1
91	91	4
64	66	1
94	98	2
16	25	3
27	29	3
52	53	2
71	73	2
70	70	2
128	132	1
54	54	2
134	134	1
101	103	1
107	108	1
64	72	2
20	20	1
65	76	1
102	116	3
78	79	3
33	70	1
93	97	2
45	48	2
32	32	1
92	92	2
123	124	2
92	110	1
111	112	2
56	73	2
27	27	2
131	132	1
125	129	1
57	57	2
120	131	2
108	119	1
100	116	2
88	91	1
52	54	2
47	69	1
12	12	1
31	32	2
85	88	1
28	29	1
11	14	1
69	71	1
130	130	2
38	44	2
132	132	2
5	6	2
88	90	1
44	48	1
6	34	1
25	27	1
20	23	1
55	63	1
32	47	1
75	77	1
45	45	1
114	114	1
108	109	1
125	130	1
106	109	1
7	13	1
13	13	1
