42	42	20
96	96	1
24	24	25
70	70	19
218	220	2
228	228	14
58	60	10
85	85	14
109	109	5
15	15	13
195	195	11
239	241	3
29	29	21
204	204	11
3	3	14
45	52	2
2	4	2
34	34	13
6	6	13
59	59	12
100	104	1
61	62	11
55	55	12
43	236	1
213	213	7
240	241	2
50	105	6
112	112	3
6	8	6
77	77	9
62	62	5
39	39	21
210	219	3
7	170	1
198	198	12
12	13	4
33	35	3
76	76	9
130	130	8
54	55	8
53	53	13
139	141	7
197	212	2
26	26	11
103	116	5
103	103	14
127	133	3
47	232	1
154	167	4
12	12	25
54	54	11
59	130	2
161	161	8
51	51	9
229	229	11
199	200	4
35	36	4
66	67	7
190	190	6
151	151	11
199	199	12
194	195	9
23	23	17
187	187	10
20	20	20
222	222	10
64	64	15
153	169	5
11	11	7
61	61	14
151	173	2
17	217	3
154	154	10
166	166	6
81	83	3
66	66	13
6	45	2
136	136	11
82	127	3
119	119	7
32	33	7
64	65	8
83	84	11
47	47	24
167	169	4
60	60	12
141	141	5
8	8	8
31	31	19
125	125	10
8	12	7
150	150	10
37	37	17
195	196	3
206	206	8
30	30	12
109	110	7
230	230	16
29	45	3
88	88	8
6	7	2
203	203	4
171	171	19
122	122	9
179	179	11
38	38	29
178	180	3
211	229	3
221	221	7
81	84	2
65	66	7
200	200	8
170	171	1
58	58	19
163	163	8
144	167	3
56	56	12
202	203	6
164	165	3
198	201	2
104	104	18
220	223	1
2	2	9
0	21	1
202	202	7
192	192	20
99	122	3
128	128	5
16	16	8
2	3	4
19	19	9
38	39	1
180	180	9
10	42	2
176	178	5
110	110	2
143	143	12
77	79	3
99	100	2
15	16	4
148	151	1
120	124	3
8	9	8
107	127	2
25	25	15
119	124	2
148	148	6
211	227	3
37	38	18
31	32	7
21	21	7
53	54	5
40	40	8
0	1	8
106	106	8
71	71	5
226	226	12
185	186	2
71	75	7
222	224	6
49	104	4
35	42	2
127	127	12
201	201	4
198	212	2
197	198	5
121	121	15
118	119	2
144	146	3
36	36	16
169	169	9
236	236	12
190	191	8
173	173	12
109	127	3
194	199	4
13	15	2
164	164	11
177	177	15
186	186	15
162	193	2
172	172	18
146	152	1
148	149	5
145	147	4
120	121	6
240	240	6
52	52	9
216	223	2
50	53	4
74	74	12
29	31	5
21	23	6
193	193	12
14	14	3
6	158	1
48	48	9
73	73	13
103	118	6
105	136	1
46	46	6
10	10	20
157	165	2
58	59	4
233	233	12
151	154	2
67	68	3
223	225	6
80	126	3
167	167	6
213	214	5
138	138	9
1	5	1
18	18	14
120	122	1
67	236	1
18	19	8
189	189	11
149	151	2
162	194	1
67	67	20
41	48	8
146	146	5
168	168	4
153	155	1
5	5	6
99	99	4
204	211	2
46	47	15
111	111	5
131	131	13
157	157	12
89	89	3
63	63	5
177	178	7
15	19	4
22	22	11
51	52	13
56	57	16
35	41	4
16	17	3
63	237	1
216	216	12
40	41	6
196	197	2
84	84	6
115	117	1
178	178	3
18	20	3
155	157	6
155	155	6
114	115	1
134	134	8
162	164	2
20	239	3
59	60	5
2	31	1
80	84	4
62	64	1
82	82	9
82	99	2
154	168	9
1	2	5
75	75	5
54	207	1
215	220	2
197	197	12
165	184	3
72	72	11
102	102	15
234	234	2
81	81	14
176	176	11
216	225	1
115	119	1
15	175	1
172	179	2
9	9	10
78	78	3
22	31	6
145	146	5
98	98	10
58	61	2
143	144	3
203	211	2
60	130	2
183	183	15
30	40	2
162	162	24
25	27	2
47	209	4
211	226	2
210	210	10
208	209	2
223	223	22
14	175	4
147	147	5
135	135	9
175	175	9
33	33	10
156	157	4
15	31	1
109	111	2
200	201	4
65	65	10
48	49	3
227	228	3
14	207	2
155	156	3
201	202	3
84	85	5
80	80	4
149	149	10
51	129	2
4	4	7
14	19	4
77	78	6
189	196	2
58	127	2
30	217	2
217	217	6
72	73	9
19	20	3
156	156	7
17	17	5
208	211	4
43	43	24
112	113	3
27	27	15
70	71	7
28	37	1
16	20	4
39	42	5
105	106	5
100	129	2
131	132	6
39	41	4
137	172	2
220	220	9
229	231	1
33	34	11
218	219	2
35	35	4
210	211	3
184	188	7
219	220	7
140	141	5
23	27	3
207	207	4
227	227	7
215	216	3
41	41	5
0	0	7
172	180	1
236	237	9
144	145	2
174	174	15
211	211	8
158	158	5
208	208	4
234	235	5
231	231	11
7	13	2
241	242	5
119	120	6
170	170	2
56	206	2
158	159	1
49	49	12
139	139	4
181	181	9
168	169	6
191	191	15
69	69	11
219	219	8
230	231	2
95	95	6
207	208	10
237	237	6
7	8	1
164	179	1
32	32	9
204	208	1
212	213	4
152	152	9
211	225	5
155	166	2
113	113	7
224	224	10
35	37	3
116	116	5
13	14	6
125	126	3
32	36	4
137	191	3
214	214	12
120	120	5
158	171	1
221	222	4
182	182	7
7	7	11
49	115	3
83	83	8
71	72	4
188	189	5
129	129	10
241	241	6
140	140	1
30	220	4
28	28	10
105	105	8
24	25	7
214	215	5
184	189	6
238	238	6
25	26	2
150	151	4
103	122	3
64	66	6
44	45	16
54	85	1
54	101	3
137	139	8
232	232	4
165	165	4
225	226	10
220	221	2
236	239	2
108	108	3
209	209	10
59	80	3
225	225	5
229	230	2
51	222	1
89	130	3
30	32	4
181	182	10
108	126	4
154	156	1
58	129	1
76	77	4
11	20	3
243	243	2
49	103	2
79	79	4
22	23	2
5	10	1
163	165	2
45	45	15
111	113	4
22	24	2
4	5	7
133	133	2
12	21	4
103	104	1
6	171	3
100	126	4
20	21	5
204	205	3
100	100	5
11	30	1
34	35	4
151	152	2
242	242	8
123	123	3
144	147	1
78	80	7
101	102	4
136	139	3
155	158	1
182	183	8
239	239	4
21	35	1
111	112	4
160	160	5
19	26	2
154	155	4
21	22	7
48	50	2
175	176	2
18	217	1
192	197	5
98	99	5
52	53	8
44	44	7
208	210	6
41	42	5
36	37	2
198	225	1
212	212	9
98	122	2
107	108	3
68	68	10
167	168	2
195	198	1
45	46	4
49	50	1
141	143	2
225	228	1
16	31	1
14	210	2
23	24	5
27	28	3
50	50	7
217	219	2
115	116	6
11	29	5
146	150	1
174	182	1
117	119	1
63	64	2
188	201	2
216	222	4
153	154	8
182	185	3
91	91	2
232	233	2
209	210	2
133	134	9
64	67	2
226	227	4
40	42	2
193	195	2
13	20	3
73	238	1
96	97	2
31	40	1
57	57	4
27	173	1
13	13	14
38	43	1
147	148	9
220	222	1
145	148	1
107	125	1
57	77	1
155	167	1
114	114	7
66	68	4
3	20	1
208	216	1
182	184	2
152	154	2
139	140	4
209	214	2
153	153	8
184	185	2
138	139	1
193	198	5
57	60	2
214	216	2
78	79	6
43	46	2
223	224	3
195	212	3
215	223	3
159	159	6
238	241	2
235	235	4
202	204	1
139	161	2
194	194	4
212	215	2
5	7	3
142	142	2
52	221	1
28	30	3
72	133	1
7	29	3
14	176	1
124	124	1
24	26	2
211	213	1
172	173	3
86	86	5
10	29	1
238	239	1
19	37	1
51	53	3
137	137	4
184	184	3
140	142	3
138	167	2
67	75	2
3	7	3
11	204	2
228	230	5
137	138	2
70	73	1
78	125	1
218	218	5
55	56	2
157	158	3
34	36	1
197	201	1
117	118	1
123	124	4
117	117	3
76	95	3
146	148	1
4	12	1
192	193	3
44	101	1
200	228	2
176	179	2
162	165	5
115	115	3
50	51	4
106	107	1
17	208	2
71	74	1
60	63	1
31	34	2
15	49	4
54	83	2
217	218	3
47	48	4
61	65	3
235	236	2
48	113	1
192	195	2
14	15	3
217	221	2
166	169	1
222	223	4
107	129	4
98	100	2
186	187	2
210	223	2
180	183	1
82	101	2
237	239	1
55	237	4
115	124	2
136	137	1
203	204	2
11	40	1
180	181	4
108	127	1
174	175	1
181	183	1
187	189	1
16	208	1
47	49	2
11	15	1
180	182	1
185	185	3
57	58	1
183	201	1
57	59	3
60	129	1
205	205	3
7	9	1
143	150	1
205	211	1
220	229	1
21	42	2
162	163	3
172	175	1
0	2	1
196	196	7
8	45	1
14	17	1
156	163	1
116	117	2
144	144	4
20	189	1
18	21	2
3	5	1
126	126	3
107	107	1
201	204	1
179	181	1
185	210	1
207	209	1
128	129	1
9	232	3
159	169	1
1	31	1
97	97	3
190	203	3
177	186	2
218	222	1
75	77	2
188	188	2
4	14	1
84	96	1
101	101	3
75	81	1
170	172	1
99	104	2
216	221	1
89	90	1
51	105	2
102	103	1
65	79	4
161	162	1
219	224	1
189	204	2
70	72	2
114	125	1
68	85	2
47	50	1
1	3	2
82	84	2
22	42	4
184	186	3
64	236	1
65	70	1
178	179	1
32	217	1
39	40	2
68	69	1
15	39	2
8	176	1
184	187	3
153	168	1
138	161	3
152	153	1
208	230	2
163	166	1
1	1	1
59	129	2
119	121	1
33	36	2
67	81	1
28	32	1
118	118	4
63	236	1
32	42	1
175	178	1
145	145	2
9	10	3
114	116	2
156	165	1
216	217	1
2	23	1
192	198	1
66	69	2
142	143	1
198	199	1
193	197	1
30	31	2
131	133	1
167	180	1
215	215	1
134	197	2
80	85	1
79	83	2
46	53	1
165	178	1
85	86	3
38	42	1
3	37	1
152	155	1
71	73	1
145	155	1
26	235	1
66	104	1
125	127	1
83	124	3
171	172	1
185	209	1
26	42	1
60	61	1
213	215	1
151	158	1
80	82	1
129	131	1
136	138	3
58	99	3
103	106	1
108	118	1
158	161	1
153	183	2
81	82	1
50	52	1
159	192	1
8	29	1
6	29	2
201	203	1
70	75	1
15	32	1
173	180	1
88	105	1
48	115	1
59	79	1
149	152	1
17	32	1
115	118	1
82	124	2
19	36	1
108	116	1
11	13	1
205	206	1
31	33	1
29	231	1
62	70	2
173	175	1
221	230	1
4	170	1
12	35	1
96	105	1
206	211	1
107	113	1
135	136	1
54	56	1
62	65	1
80	81	1
