23	24	10
63	189	3
182	182	4
134	136	7
30	32	1
24	24	4
177	177	4
65	68	3
124	124	9
111	111	2
71	72	3
89	89	2
76	76	4
109	110	1
82	82	7
70	71	5
140	140	5
78	79	4
122	123	5
16	16	2
56	57	5
96	96	3
132	135	7
41	41	8
131	137	6
171	171	1
163	163	5
26	26	2
166	169	5
87	115	2
137	137	6
144	144	7
133	133	6
5	7	2
85	85	5
2	3	4
17	17	5
39	39	12
45	46	4
146	146	3
56	56	4
122	122	5
93	93	7
30	30	2
2	2	10
148	165	3
175	176	7
91	98	1
82	83	2
151	151	3
126	156	1
154	155	7
116	120	3
93	99	3
64	65	2
143	143	3
48	48	4
95	97	2
97	99	6
187	187	6
91	91	8
62	62	1
138	141	2
74	76	2
77	77	3
45	45	2
84	85	4
126	126	5
0	0	1
141	141	3
185	185	5
118	181	1
153	153	2
138	139	5
105	106	9
68	73	1
123	123	3
47	47	7
6	21	2
59	59	3
98	98	5
143	144	1
167	167	7
127	180	1
58	61	4
113	113	8
77	96	2
159	159	2
130	130	6
100	107	3
157	158	2
157	157	6
14	14	8
106	106	2
85	86	3
140	141	2
127	127	2
68	90	2
161	161	2
121	122	2
165	165	1
117	117	4
91	99	1
87	87	2
53	53	5
7	8	2
108	108	8
118	119	1
148	168	4
79	79	7
92	95	2
64	64	4
142	143	1
118	182	2
139	139	2
168	168	3
190	190	3
132	134	4
57	83	2
67	67	7
35	35	5
107	108	2
59	60	1
88	130	3
100	112	1
78	98	3
1	1	2
91	92	1
147	147	4
79	81	1
114	115	2
58	63	5
83	83	6
126	129	4
164	175	1
180	182	2
27	28	1
158	158	2
60	94	3
7	22	1
17	20	2
57	57	3
40	40	1
18	19	7
97	112	2
161	176	5
169	170	5
153	154	1
125	128	1
104	104	6
109	109	2
163	164	1
72	167	3
137	139	3
58	58	4
44	44	3
188	188	2
72	73	3
59	154	2
61	61	2
123	183	2
187	188	2
22	23	1
156	156	6
155	155	5
88	88	3
38	38	2
152	152	1
76	181	1
79	92	4
86	87	4
17	19	1
128	182	1
110	110	3
12	12	2
120	133	1
39	40	2
52	52	1
100	101	1
112	112	5
13	14	3
92	93	2
21	22	2
15	15	3
156	157	3
84	154	3
138	138	2
70	167	6
176	178	3
122	133	2
6	6	3
173	174	2
175	175	1
153	173	1
71	71	4
145	145	2
184	184	6
65	82	1
166	167	2
149	149	3
9	9	1
32	32	3
157	162	1
84	84	2
3	3	4
126	127	1
186	186	7
74	77	1
106	107	2
166	166	1
101	112	2
112	172	1
97	98	1
136	136	2
78	78	1
76	87	1
61	63	2
178	183	1
86	86	1
125	125	4
153	175	1
55	56	1
73	74	4
163	174	1
34	34	2
103	103	1
63	65	2
68	148	1
146	147	1
134	135	3
162	162	2
148	149	1
145	146	1
148	155	1
157	163	3
61	62	1
24	38	2
60	60	1
99	100	1
58	64	1
24	36	1
169	169	2
19	19	2
75	75	4
78	167	4
72	72	2
43	43	5
42	42	3
32	33	1
186	187	2
153	157	1
63	63	3
101	101	1
129	129	3
46	46	2
162	163	2
135	147	3
172	172	3
125	180	3
64	68	3
114	179	1
150	150	3
27	30	4
15	18	4
189	189	1
27	29	2
158	176	1
68	88	1
149	150	2
54	54	2
108	109	3
171	172	1
183	183	3
73	73	1
29	31	1
154	154	2
21	21	2
170	170	2
73	82	1
131	138	1
41	42	1
94	95	1
27	27	2
180	180	1
57	58	1
109	139	1
4	4	2
147	149	1
74	74	1
8	13	1
39	48	2
77	78	2
148	148	2
116	180	1
101	103	1
80	80	2
83	127	1
127	128	1
148	153	2
11	11	1
186	190	1
78	94	1
114	120	1
118	118	2
173	173	1
16	17	1
116	123	2
141	142	1
176	179	2
66	67	2
128	128	2
65	65	1
10	11	1
57	151	1
77	93	2
158	162	1
151	152	1
36	37	1
178	179	1
155	156	1
24	25	1
117	118	1
170	171	1
6	24	1
94	94	1
74	85	1
95	95	1
14	15	2
141	143	1
181	182	1
12	48	2
29	29	1
58	59	1
166	171	2
19	25	1
