156	156	41
65	93	8
97	98	4
22	22	31
27	28	17
200	201	6
179	179	26
8	156	3
34	39	5
8	8	16
200	200	30
64	64	33
28	28	28
202	202	15
72	88	3
65	66	13
77	77	17
56	63	7
30	57	2
43	43	18
182	184	3
108	112	3
28	29	5
163	163	14
63	63	10
10	11	2
6	7	12
9	9	39
176	177	6
185	185	16
23	24	11
235	241	6
91	92	10
54	55	19
23	23	27
37	37	18
196	197	10
57	58	9
12	12	13
106	106	9
17	17	25
226	226	36
157	157	24
229	229	18
186	186	19
73	73	11
232	233	7
204	204	26
201	201	54
52	52	26
230	230	13
45	45	29
42	42	22
237	237	19
76	77	9
54	87	6
170	171	9
197	197	16
218	219	7
30	30	12
2	2	12
175	195	2
113	114	4
5	5	20
66	66	33
93	94	6
74	88	3
155	156	19
101	104	8
72	73	8
180	181	9
145	145	13
109	109	37
115	115	28
225	225	16
180	180	21
241	244	5
100	101	9
230	233	5
119	120	9
153	153	42
56	56	20
184	184	23
31	32	4
207	207	44
195	196	8
44	44	34
211	214	3
152	152	22
215	221	1
21	21	26
118	149	2
162	162	21
216	216	17
234	234	35
18	155	1
219	219	12
18	18	26
234	235	12
155	155	31
177	177	15
35	174	1
80	83	7
65	110	7
176	182	3
238	238	16
166	177	2
163	164	12
203	204	8
2	3	8
103	103	4
32	32	48
175	176	8
178	179	6
150	150	32
97	97	9
113	113	16
102	103	9
153	154	7
116	116	14
173	174	27
213	213	23
45	46	14
167	167	11
245	245	21
47	47	22
243	246	1
33	33	35
111	157	4
189	189	3
154	154	47
187	191	7
177	178	5
53	53	19
5	244	3
244	244	30
174	175	11
92	92	21
55	55	20
40	40	14
29	29	21
159	166	2
38	38	17
233	239	1
232	232	9
51	51	28
15	15	24
46	46	14
231	231	14
4	5	13
193	225	1
4	12	2
177	181	4
20	20	13
37	96	5
7	7	30
112	246	3
236	237	16
26	26	19
111	111	24
94	94	28
114	114	24
188	188	29
86	145	2
108	236	4
27	27	33
215	215	22
158	160	4
109	244	1
2	6	4
214	216	4
41	41	40
71	95	8
223	224	9
213	215	5
176	176	22
187	192	2
54	54	26
93	93	19
55	93	5
238	239	10
221	221	19
16	16	20
109	110	7
25	25	21
192	195	5
27	41	5
168	168	17
205	205	25
11	11	31
89	89	6
231	232	16
53	78	6
230	231	4
1	1	20
14	14	18
160	175	7
220	220	19
197	200	7
110	110	18
209	209	22
65	65	16
208	213	3
228	229	4
240	240	6
55	56	10
174	174	14
214	245	2
6	6	23
4	4	7
161	161	5
39	39	17
48	50	4
15	16	5
199	199	12
19	19	22
193	193	26
218	218	12
210	246	2
228	228	36
156	157	12
235	240	1
175	175	16
199	200	4
212	212	21
9	22	3
153	165	5
198	200	3
154	155	4
84	116	1
226	230	3
183	209	5
107	113	2
234	241	2
35	35	11
98	98	11
80	80	8
10	10	20
172	172	21
65	109	2
208	208	12
59	60	5
34	34	4
178	178	26
111	248	1
195	195	12
181	182	10
236	236	19
164	176	4
113	116	6
159	159	12
70	70	15
196	196	12
35	37	8
241	241	17
113	120	4
165	174	3
223	226	1
102	102	4
58	58	18
36	37	7
222	222	8
194	196	2
66	104	2
50	50	5
68	68	14
22	23	7
108	109	7
208	209	4
171	172	4
120	120	5
151	151	51
116	119	3
144	144	4
118	119	10
235	235	17
13	14	11
24	24	18
211	211	33
163	165	5
52	78	2
11	12	2
12	226	1
107	112	5
216	218	4
177	193	5
71	71	10
89	90	3
7	29	5
76	97	1
235	236	4
29	30	10
15	117	2
146	152	2
90	90	6
169	169	19
101	101	6
103	104	2
87	87	12
107	108	14
119	119	12
68	70	8
91	91	9
64	75	1
182	182	10
50	51	2
70	71	9
55	57	1
68	69	9
31	31	23
242	242	15
38	40	7
203	203	20
217	241	3
166	205	3
22	46	3
66	67	3
158	164	3
217	223	5
202	203	1
75	75	1
201	205	4
57	57	11
72	72	8
78	78	10
176	207	5
68	95	4
194	195	9
110	161	4
242	245	2
76	78	4
0	8	1
44	45	12
205	227	2
246	246	16
62	62	6
194	194	7
36	36	14
77	82	1
199	211	4
33	34	3
224	224	15
177	183	3
150	151	6
185	186	3
165	167	4
151	152	4
110	246	3
75	115	2
32	33	9
227	227	9
166	166	5
152	153	7
210	210	12
245	247	6
184	185	8
74	76	4
233	233	15
30	58	1
178	189	4
15	198	4
85	91	5
56	59	4
210	211	14
241	242	13
53	54	8
35	36	11
29	59	5
108	108	13
112	112	15
65	85	2
21	22	6
237	242	2
89	98	1
15	203	8
36	65	2
117	118	8
149	151	6
183	183	21
215	216	8
17	41	4
187	189	8
96	101	1
38	39	3
104	104	3
173	201	4
197	198	7
61	61	14
173	200	3
86	87	2
214	215	4
237	247	1
95	99	7
9	15	2
68	93	2
74	74	6
151	200	1
191	192	6
101	102	10
89	100	5
237	240	5
208	211	3
243	244	9
190	191	10
179	181	2
181	181	21
1	4	1
242	243	6
213	241	4
56	61	1
209	211	3
9	10	2
161	162	9
31	33	3
164	174	6
67	108	4
85	86	3
171	178	2
180	183	3
109	243	9
86	86	14
11	22	4
169	208	1
77	79	4
154	165	3
206	206	25
118	118	4
103	108	2
160	164	2
196	198	10
26	27	3
37	39	2
95	107	2
106	107	8
226	227	9
198	199	6
83	83	16
111	245	2
168	174	5
80	85	6
109	156	3
192	192	8
79	79	6
46	47	5
48	53	3
34	38	5
206	207	10
7	26	5
217	218	7
88	89	13
223	223	16
161	205	7
71	74	5
247	247	15
57	106	2
59	59	14
117	117	8
164	164	19
147	151	2
60	61	6
47	53	2
197	199	11
54	59	1
47	48	9
57	64	2
81	81	3
16	17	6
182	183	9
77	78	3
220	221	3
80	86	7
190	190	6
166	168	5
225	228	2
211	212	10
202	205	2
230	232	2
248	248	10
76	76	4
198	198	12
107	107	7
55	84	5
146	146	9
207	212	1
169	170	5
52	53	11
87	94	1
239	240	5
179	207	5
203	205	4
169	210	3
66	68	4
19	21	2
95	98	3
6	228	2
115	116	10
100	100	6
40	41	3
18	20	4
14	15	5
87	93	1
10	21	1
8	226	4
169	171	2
184	186	3
15	234	2
67	67	17
25	26	1
43	44	2
189	190	7
171	173	3
95	95	11
109	113	2
37	38	4
66	75	1
144	206	1
166	167	1
243	245	8
47	49	3
189	191	4
147	159	3
183	184	4
9	249	2
178	229	2
66	93	4
171	171	7
87	88	4
5	246	2
49	54	4
16	155	1
188	200	2
81	84	6
179	182	1
201	229	3
200	204	1
85	85	2
213	224	3
187	188	4
114	230	2
200	212	1
201	209	3
179	187	4
191	197	5
180	189	1
80	82	3
112	113	3
159	161	1
50	74	4
190	193	1
104	114	3
105	106	3
19	20	19
29	205	4
5	6	6
214	242	3
82	82	8
172	220	3
42	43	14
2	18	5
61	62	2
109	242	2
165	165	9
48	48	10
214	225	8
78	79	6
84	85	14
90	91	9
60	60	1
177	194	3
165	176	3
191	191	12
36	38	1
217	244	7
217	217	9
45	47	1
76	82	5
96	106	2
161	163	1
1	2	3
67	109	1
14	18	3
163	175	5
216	217	9
24	25	5
239	239	6
180	186	1
24	26	3
215	217	5
243	247	6
151	179	2
219	220	6
218	224	5
69	69	3
177	180	2
5	8	2
177	207	3
174	193	1
119	148	5
26	28	2
162	206	6
170	170	11
70	72	2
168	169	4
91	93	1
73	100	2
7	8	5
80	84	2
2	19	4
111	115	3
165	166	4
52	103	2
152	176	1
17	18	6
183	186	2
187	187	2
172	174	7
17	20	2
75	76	1
39	65	3
33	38	2
161	180	4
227	228	6
96	98	1
173	173	4
85	87	1
220	222	5
80	101	5
205	207	2
6	27	2
225	232	3
244	246	3
50	53	1
15	205	1
70	76	3
160	160	9
18	19	7
69	70	4
7	15	2
112	114	3
88	88	7
34	35	3
99	99	4
8	201	2
44	47	3
3	10	5
225	233	2
110	111	8
8	16	1
112	120	8
159	175	1
237	238	2
207	228	7
37	64	2
3	3	2
8	22	1
240	241	4
183	196	3
65	75	1
170	174	3
41	42	8
32	88	1
215	218	6
208	228	3
161	176	1
38	86	1
145	178	1
27	29	2
56	57	2
78	155	2
80	88	2
174	195	3
225	242	2
96	96	4
222	223	3
30	41	2
105	110	2
173	177	2
34	37	3
168	170	2
68	107	4
3	4	2
121	121	3
51	52	11
164	171	2
190	194	2
193	196	2
230	235	2
197	206	2
229	230	8
110	244	4
212	240	2
92	109	1
157	158	4
163	168	1
109	237	2
167	174	1
20	35	2
175	183	1
204	205	8
153	178	3
192	197	3
54	68	3
214	214	6
188	190	2
49	50	3
78	84	1
157	178	3
53	68	1
169	194	1
34	36	1
3	5	2
183	194	2
110	156	1
105	105	3
20	21	7
118	240	3
23	51	2
205	206	2
19	49	2
79	80	4
162	167	2
62	109	2
64	88	2
233	234	1
71	75	3
241	243	2
58	62	4
85	110	1
247	248	4
53	86	2
54	97	2
213	214	3
109	115	1
176	193	5
70	77	1
114	233	2
104	108	3
78	81	3
165	231	1
6	235	3
189	192	1
20	51	2
61	63	2
115	117	1
184	239	1
86	95	1
159	160	2
29	169	3
115	119	1
208	210	3
15	18	4
5	9	2
97	115	4
107	109	1
217	240	2
14	225	1
158	159	2
41	48	3
110	117	1
217	222	1
8	29	1
168	177	1
84	84	6
102	104	3
75	77	1
15	34	2
96	97	2
149	150	1
17	37	2
36	96	3
88	219	1
88	92	1
3	19	1
69	95	1
157	159	1
209	210	4
101	103	1
84	156	2
17	155	2
199	208	2
244	245	3
143	143	1
112	245	2
96	99	4
179	180	3
30	32	2
0	1	1
179	200	2
112	237	1
87	91	1
162	163	1
6	10	1
19	120	1
109	119	2
178	180	3
5	19	1
201	212	3
235	237	2
60	63	4
236	243	1
73	74	2
63	103	3
37	40	1
111	118	2
4	19	1
95	96	2
224	225	2
57	59	1
4	236	1
169	177	1
101	105	2
216	228	1
79	81	3
221	222	1
47	51	1
17	19	2
153	177	1
236	238	4
182	187	2
5	11	1
200	210	1
104	105	1
158	158	4
168	178	1
192	196	2
114	115	7
68	75	1
105	114	1
3	20	5
1	12	1
75	116	2
162	165	2
114	231	1
179	190	1
98	99	3
208	212	4
150	156	1
11	20	2
225	226	2
9	23	1
112	160	1
54	85	2
9	12	1
237	239	2
20	120	1
94	108	1
49	68	1
152	167	1
169	196	1
58	63	2
170	178	3
104	106	2
49	49	4
67	70	2
236	239	2
3	6	1
201	207	1
214	227	2
168	197	2
92	98	2
8	10	1
160	161	5
29	38	1
248	249	1
206	208	1
150	178	1
210	232	1
207	229	1
171	174	1
111	112	2
8	230	1
92	155	2
167	205	1
191	196	1
91	103	1
8	9	4
243	243	1
2	5	1
57	61	1
2	231	1
36	52	1
3	235	1
30	31	1
192	194	1
80	145	1
78	80	1
163	167	1
6	8	1
172	173	1
50	71	1
214	224	1
52	94	1
183	193	1
214	232	1
16	117	1
45	59	1
55	78	1
215	242	1
157	181	1
14	233	1
