31	76	3
63	63	11
127	127	5
21	22	1
134	134	3
74	74	6
122	122	8
2	2	6
64	69	2
86	101	5
111	111	6
78	79	2
106	107	1
21	21	4
115	129	2
45	55	2
97	97	11
62	62	14
118	119	5
91	91	16
94	94	4
69	69	5
121	121	6
33	34	2
25	26	4
26	26	2
126	126	10
57	57	6
83	87	2
131	131	7
28	28	2
92	92	13
45	47	3
95	95	6
79	79	6
98	98	15
99	99	5
130	130	7
100	100	6
76	77	10
16	16	6
80	80	4
30	30	10
129	129	3
124	124	21
35	35	8
71	71	7
101	101	9
113	132	5
120	120	3
16	18	4
35	71	4
73	73	8
74	75	8
20	20	4
112	112	9
94	95	5
17	17	5
34	34	4
25	66	1
128	128	1
133	133	4
87	107	2
89	89	7
132	133	7
87	92	2
63	64	2
108	108	6
121	127	1
49	49	10
15	15	3
94	110	1
48	48	7
83	83	4
2	22	1
3	3	4
105	105	8
75	75	7
25	25	9
119	120	3
31	31	12
106	106	5
17	18	1
27	27	5
43	43	2
33	33	3
129	131	2
103	103	3
11	11	4
77	78	2
4	5	5
64	82	2
6	6	6
93	101	5
1	2	6
14	14	9
38	112	5
64	64	9
100	120	1
72	72	4
110	110	1
62	112	1
123	123	5
82	82	6
30	32	2
60	64	1
56	56	3
62	63	1
124	125	3
132	132	6
0	1	2
120	122	2
8	8	1
12	17	2
44	45	1
70	70	7
88	88	2
103	104	3
133	134	4
65	65	2
90	90	5
37	38	3
87	87	7
44	44	2
125	132	2
112	128	1
49	50	4
125	134	1
84	84	4
82	84	1
65	111	1
104	104	5
63	89	8
110	111	1
30	31	6
72	76	4
52	52	3
119	119	4
129	132	1
88	89	3
5	17	3
116	120	4
107	107	3
24	25	5
77	77	9
45	45	1
57	58	4
65	66	2
109	109	6
75	76	6
7	7	4
4	6	5
66	66	9
48	78	1
12	18	2
109	110	1
112	133	3
14	15	1
35	36	3
28	68	3
53	53	5
52	53	2
89	91	1
116	118	6
85	96	2
29	29	4
50	50	5
112	130	3
65	68	1
46	46	2
19	21	4
89	90	1
20	22	3
10	10	1
114	115	1
18	18	2
67	67	4
116	116	3
86	88	1
117	117	4
129	134	1
93	93	3
9	10	3
18	21	2
102	102	4
28	70	1
88	96	3
83	84	4
12	12	2
102	103	5
23	92	7
104	107	4
58	58	3
113	130	2
116	134	1
19	56	1
37	37	1
3	4	2
115	115	1
115	116	1
1	1	2
121	122	1
36	37	1
76	76	3
108	110	4
84	88	2
79	80	2
60	60	2
22	22	2
78	78	2
1	105	1
68	68	1
107	108	1
9	9	1
55	56	1
94	111	2
131	132	2
61	81	1
61	61	1
62	64	1
106	110	4
86	86	1
116	117	2
122	125	1
13	14	1
57	59	1
97	98	1
16	17	1
47	63	1
59	67	1
87	88	1
121	123	1
12	13	1
4	4	1
31	32	1
69	70	2
81	81	1
56	57	1
113	113	1
62	65	1
34	35	1
73	74	1
91	92	2
68	69	1
8	9	1
126	127	1
