107	107	10
103	103	12
35	138	1
56	56	4
15	15	13
100	100	10
85	85	10
118	118	11
4	4	7
14	14	6
90	90	10
65	65	13
89	89	12
60	60	10
145	145	3
117	117	20
53	120	2
83	84	5
105	105	15
86	137	3
56	61	1
48	48	7
51	73	4
61	62	2
90	114	5
94	94	14
144	144	11
68	70	1
1	1	11
133	134	2
32	32	23
104	104	12
84	87	1
2	2	10
96	99	6
35	36	4
72	72	6
116	116	15
134	134	20
92	94	6
129	129	20
53	53	14
101	102	3
42	42	14
29	30	3
118	142	3
19	67	2
144	145	5
133	133	27
108	108	15
71	71	11
0	18	2
135	135	7
4	6	3
21	21	14
133	139	1
12	14	5
64	64	6
67	68	3
119	120	4
91	92	5
137	141	2
24	24	6
25	26	2
83	83	3
122	142	2
40	40	7
95	111	3
20	20	21
12	12	8
81	81	7
25	31	1
112	113	3
113	113	11
115	115	12
0	139	1
84	84	9
63	64	2
93	93	26
111	112	4
142	142	17
50	55	1
129	138	2
31	32	6
124	124	14
41	41	11
107	109	5
123	123	17
134	135	17
72	73	3
127	128	3
49	49	14
93	108	3
95	95	10
48	96	1
26	29	1
50	51	12
51	51	3
3	4	9
143	143	10
64	65	6
32	33	6
11	117	4
54	54	5
119	119	19
78	79	7
6	34	3
75	75	8
49	55	2
99	101	2
106	109	2
135	138	2
29	29	8
10	140	2
63	63	12
99	100	3
63	111	3
65	66	3
102	102	14
82	82	19
121	121	27
73	74	3
131	131	31
58	132	3
0	20	2
78	78	4
58	58	9
36	36	10
47	83	4
66	66	5
14	105	3
30	34	3
6	6	5
17	17	10
70	70	12
139	139	12
132	132	13
1	21	4
138	140	4
22	22	13
37	98	4
97	97	14
43	43	6
106	106	6
79	79	10
61	61	18
123	125	3
33	33	18
58	99	2
9	10	3
122	122	14
59	60	1
126	126	16
4	53	3
137	137	14
91	115	3
118	139	2
87	137	2
88	91	1
9	9	21
95	134	1
110	110	6
95	96	3
30	30	10
8	8	8
116	117	3
111	111	11
137	138	1
126	127	6
17	101	1
128	128	9
75	126	3
75	76	2
81	99	3
50	50	10
28	28	8
5	5	9
3	3	16
100	101	3
22	23	4
29	38	4
124	125	4
37	37	7
25	25	6
39	40	4
69	70	5
71	72	6
27	37	4
5	14	2
14	104	5
77	78	5
96	110	1
13	14	12
5	52	1
125	125	7
14	111	3
92	92	5
129	131	5
67	70	1
92	93	4
5	6	2
19	19	6
98	107	1
56	66	2
128	131	2
10	20	1
15	16	5
59	59	5
52	55	1
98	98	4
69	69	2
141	141	13
138	139	4
57	103	3
67	67	6
87	87	2
91	91	10
141	142	2
53	66	1
23	23	8
52	81	6
112	114	1
133	135	5
140	140	8
130	130	22
124	143	2
135	137	9
55	55	10
98	140	3
58	127	3
143	144	1
47	65	1
99	99	2
73	73	12
56	132	4
96	96	13
0	0	4
138	138	18
140	141	2
123	143	1
60	61	2
4	5	2
36	139	2
86	111	4
24	32	2
38	38	10
123	126	3
127	130	8
118	121	3
130	132	2
16	16	13
39	81	1
18	18	8
58	62	2
109	109	8
81	82	4
129	130	4
39	41	1
63	135	1
120	120	8
112	112	4
101	101	4
136	137	9
80	80	7
27	28	1
114	114	10
34	140	1
34	34	6
14	89	2
26	28	1
70	72	1
77	77	8
11	11	8
5	139	1
35	35	3
14	127	1
131	133	4
17	19	6
102	103	7
10	26	4
1	2	3
87	141	2
118	119	4
106	108	4
27	27	10
52	52	11
37	38	3
68	68	9
50	56	3
87	136	2
88	88	6
76	134	1
86	86	4
115	123	4
119	138	2
58	60	2
141	144	2
31	31	5
132	133	2
136	139	8
136	140	2
83	102	3
55	111	1
113	117	4
58	59	2
131	132	4
57	57	3
31	33	4
105	108	2
93	94	1
76	76	7
48	76	3
4	34	3
128	129	1
40	41	7
119	121	4
58	72	1
113	115	2
119	131	4
56	58	1
105	109	1
122	123	4
35	133	2
27	82	1
62	62	3
3	79	5
82	84	6
47	64	1
97	109	3
26	26	4
23	32	2
13	13	5
6	74	1
53	113	2
47	47	1
35	140	4
34	36	2
94	115	1
38	39	3
51	56	1
34	98	3
105	106	6
39	39	7
26	27	2
72	135	2
117	118	2
118	131	4
103	104	3
8	124	2
136	136	8
105	107	2
109	110	2
89	102	5
137	139	3
72	74	3
42	50	1
93	118	1
106	107	4
106	141	1
103	110	2
111	136	1
75	132	1
112	118	1
127	132	4
63	80	3
2	4	4
56	102	1
127	127	8
14	16	3
93	134	1
12	13	3
54	55	2
59	126	4
20	127	2
83	96	1
56	72	1
104	105	2
53	54	1
8	107	1
29	39	3
66	67	3
139	140	4
79	80	2
9	102	4
0	76	3
74	74	2
27	32	1
86	109	4
83	109	3
62	64	3
14	15	6
118	120	1
87	92	4
94	95	3
82	83	1
47	67	1
104	117	1
67	72	3
22	24	1
76	78	2
136	138	6
10	21	1
90	94	3
92	113	3
62	110	5
65	95	2
33	35	2
54	67	1
88	89	1
128	130	1
88	90	2
121	123	5
56	73	1
30	31	3
55	133	2
86	94	2
132	139	3
52	120	1
145	146	3
1	19	2
67	69	2
71	74	1
8	95	2
35	37	4
2	34	1
127	129	1
94	96	1
95	143	1
76	136	1
0	1	1
35	135	2
59	100	1
18	27	1
18	19	1
33	38	1
114	117	2
8	11	1
57	58	1
34	35	4
53	67	1
121	129	1
120	126	3
66	68	2
24	102	2
123	124	1
124	131	1
22	141	1
127	131	2
20	121	1
18	20	2
53	115	1
78	82	1
62	63	2
108	109	1
69	74	1
104	118	1
83	85	1
36	37	1
8	9	1
86	96	1
30	33	1
88	114	1
9	13	2
33	34	2
135	139	1
2	3	1
26	30	1
46	48	1
86	93	2
59	61	2
63	67	1
17	18	1
89	104	1
4	51	1
0	19	2
121	122	1
10	10	1
90	116	2
69	135	1
0	30	2
62	77	1
87	104	1
53	114	2
107	120	1
1	140	1
84	95	1
26	101	1
123	127	1
66	70	1
76	77	1
13	15	1
0	82	1
88	95	1
121	143	1
126	134	1
4	20	1
51	82	1
116	126	1
89	90	1
19	20	1
