64	64	4
77	77	23
50	50	18
56	56	18
43	43	5
12	12	8
46	46	20
15	16	2
21	25	7
74	80	6
69	70	6
16	17	8
85	85	9
123	123	19
40	42	3
77	80	6
97	126	1
79	79	9
105	106	16
26	26	18
0	0	5
19	19	4
7	7	20
74	86	2
110	110	18
18	18	9
88	88	13
95	124	5
107	107	16
108	108	8
97	97	8
70	70	22
42	84	2
30	30	19
124	124	12
16	19	2
94	94	12
122	122	23
129	129	5
33	33	10
100	107	2
47	47	20
25	25	3
55	55	10
11	11	4
110	111	5
75	77	6
30	31	6
95	95	29
90	90	15
71	93	2
49	49	17
91	91	19
104	109	2
105	105	9
42	42	21
111	111	16
81	81	21
51	110	2
91	92	14
85	86	2
66	66	10
4	4	17
15	19	4
94	95	6
24	24	10
64	65	3
15	15	10
68	68	13
78	79	7
115	115	16
56	58	5
17	17	20
20	20	32
46	57	2
13	13	17
41	42	9
31	50	1
69	69	14
117	121	3
87	88	2
2	6	2
42	66	1
78	78	5
31	31	3
1	62	3
98	98	9
19	20	10
6	6	19
60	60	2
53	53	35
109	109	7
131	131	15
20	21	1
21	116	3
88	89	5
71	80	1
80	80	12
83	85	2
14	15	4
48	48	17
120	120	13
117	123	3
99	99	10
10	11	4
133	133	1
2	3	2
125	127	3
40	40	12
3	3	19
127	129	5
50	52	2
83	83	9
54	58	1
6	11	5
21	21	8
97	98	4
96	96	8
91	93	1
112	112	11
96	101	2
57	57	19
28	28	10
118	118	11
101	101	14
100	101	5
116	116	9
60	62	5
52	52	30
132	133	5
65	65	3
127	127	11
126	126	10
99	100	11
121	121	5
51	51	7
81	82	4
38	39	8
54	54	14
39	39	7
92	92	14
31	32	6
87	89	8
44	44	3
16	16	11
96	107	4
73	73	10
65	69	1
43	44	9
5	5	12
62	63	5
13	28	2
116	117	3
75	75	15
108	114	5
32	32	7
10	10	17
25	26	3
23	24	15
23	23	12
27	27	10
13	74	5
47	49	4
45	46	3
53	54	1
71	91	2
48	52	4
89	89	8
65	66	2
3	4	3
90	91	1
15	77	2
62	62	9
72	76	1
73	74	7
128	129	7
5	6	2
67	83	1
61	61	11
15	18	5
71	71	10
46	47	12
106	125	2
38	38	7
93	93	12
75	109	2
8	8	17
6	10	3
9	10	1
11	54	3
72	74	3
74	75	8
14	14	9
101	114	1
18	25	2
15	24	2
41	41	12
14	16	6
114	114	4
100	100	7
60	64	6
127	128	4
86	87	5
12	13	1
9	9	11
118	119	6
48	49	4
132	132	4
59	60	4
125	125	13
110	112	2
73	76	1
72	72	4
55	56	3
64	117	3
115	116	8
28	29	4
113	113	7
96	129	3
38	41	1
102	103	3
70	71	1
58	59	6
95	125	2
106	106	5
17	21	3
27	29	4
63	63	5
45	45	6
67	68	1
17	23	1
0	55	3
75	78	1
2	2	4
65	67	5
121	122	5
114	116	3
26	91	3
119	119	6
102	102	6
128	128	3
49	50	2
59	59	4
72	77	1
97	99	4
92	98	3
98	127	2
78	80	4
102	104	1
76	77	1
13	27	2
117	118	6
31	51	2
68	69	1
47	48	5
1	3	1
78	81	4
82	82	4
77	78	5
18	19	2
82	102	1
125	128	1
17	18	2
42	46	5
114	115	1
43	45	1
110	113	4
32	33	2
3	55	2
42	43	3
32	54	1
75	81	3
84	88	3
128	131	1
101	103	6
52	53	7
16	77	1
103	103	3
95	102	4
126	129	1
40	67	2
117	117	9
44	45	7
50	51	1
11	104	2
126	127	3
11	22	1
11	115	1
101	126	2
92	93	4
113	124	3
108	118	5
67	67	8
34	34	1
1	31	1
96	105	1
92	109	1
61	62	2
48	57	2
81	84	1
92	94	1
107	118	2
87	87	3
115	128	3
104	104	5
95	106	1
43	54	1
88	95	1
21	26	2
130	130	5
127	130	2
93	94	2
6	7	1
131	133	1
24	25	1
110	115	2
99	103	2
14	17	1
88	93	2
40	68	2
129	130	2
21	22	4
58	60	1
46	85	2
96	99	1
60	63	2
72	98	1
29	29	2
58	58	2
95	96	1
79	80	4
22	22	1
84	84	1
29	30	1
10	19	1
130	131	3
110	117	1
75	76	1
10	12	1
20	71	1
111	113	2
73	98	1
73	81	1
91	94	2
10	74	1
42	68	2
29	31	1
57	58	2
11	12	4
86	86	1
59	64	4
54	56	1
77	81	1
67	75	1
11	28	2
119	120	1
56	57	2
78	102	3
83	87	1
55	59	1
122	123	2
33	34	1
43	46	1
106	110	2
39	67	1
112	123	1
83	84	1
74	74	1
111	112	2
17	26	1
102	127	1
115	118	2
13	14	2
0	5	2
88	94	1
60	61	1
8	9	3
42	65	1
2	56	1
3	41	1
21	24	3
109	118	1
108	113	1
96	98	1
104	133	1
98	99	1
17	19	1
50	53	1
110	125	1
105	133	1
124	125	2
114	127	2
23	115	2
80	81	2
1	2	1
113	123	1
66	68	1
6	33	1
101	102	1
79	101	1
110	120	1
128	130	1
53	133	1
46	56	1
32	40	1
27	28	1
73	102	1
91	121	1
75	83	1
