109	111	1
72	72	14
98	98	4
30	30	6
71	71	4
112	112	6
78	78	7
65	65	4
19	19	11
38	39	2
66	67	5
80	83	4
68	68	8
74	94	1
86	94	1
88	88	1
21	21	2
85	85	1
41	41	6
101	101	3
33	33	6
40	42	2
88	89	7
115	115	2
56	57	1
57	57	8
90	93	2
28	61	2
29	29	9
31	31	5
38	40	3
32	35	3
96	97	4
32	34	2
90	90	14
84	84	7
22	28	2
88	91	1
22	22	4
110	110	3
45	45	5
95	95	5
106	106	6
100	100	2
81	85	2
67	67	8
29	61	1
39	39	9
111	111	6
69	69	1
42	63	2
49	52	2
114	114	4
63	64	2
48	48	7
57	72	3
98	99	1
98	105	3
92	93	4
41	47	2
23	23	5
50	51	2
38	38	2
54	55	2
68	69	3
93	93	5
24	24	6
76	76	7
42	43	4
73	73	1
86	86	7
54	54	4
78	80	2
33	49	3
87	87	3
29	35	2
105	105	2
100	101	2
97	97	7
104	106	4
54	77	1
81	87	2
61	98	5
109	109	2
80	106	4
99	99	7
103	103	1
71	72	4
26	27	2
96	96	5
88	94	2
26	30	2
47	48	6
77	77	6
63	68	5
37	41	1
43	43	11
104	104	1
77	80	1
74	104	2
41	42	6
88	95	2
55	55	5
87	88	4
74	76	1
102	102	1
37	37	3
60	63	6
93	94	4
52	52	6
33	36	2
82	84	2
83	84	6
109	110	4
91	104	3
93	95	4
56	58	1
70	71	2
98	103	1
90	91	2
60	62	2
74	74	13
87	89	2
74	81	3
22	29	1
70	70	4
58	58	5
75	87	1
44	44	1
38	44	2
43	44	1
38	60	1
60	60	2
70	87	1
47	47	5
29	31	8
50	66	1
66	68	5
76	80	1
57	59	4
113	113	7
76	106	1
82	83	2
73	76	1
82	82	1
62	62	5
91	91	2
24	25	3
112	113	3
51	51	4
63	66	1
69	75	3
31	32	4
80	81	2
49	49	4
70	77	1
63	63	3
64	73	1
79	79	1
64	65	1
74	95	1
25	25	3
68	75	1
83	83	2
80	80	1
30	31	3
32	32	1
74	89	1
40	41	3
53	72	3
53	53	2
26	26	6
73	78	1
88	102	1
24	30	2
42	42	1
65	102	1
28	28	3
35	35	1
108	108	5
66	85	1
25	26	2
58	59	1
92	105	1
67	68	1
39	43	2
111	113	2
82	103	1
50	52	1
34	36	1
74	87	1
27	27	1
51	52	2
38	41	1
44	45	1
38	47	1
39	45	1
84	86	1
89	91	1
47	49	2
75	88	1
50	50	1
40	53	1
70	81	1
71	82	2
57	73	1
100	103	1
92	94	1
59	59	3
28	29	1
83	96	1
62	64	2
46	46	2
86	87	1
65	100	1
69	99	1
34	34	1
73	74	1
22	30	1
110	111	1
41	62	1
78	79	1
