16	19	6
25	25	10
119	133	3
69	69	15
6	22	1
42	59	4
20	20	9
132	132	9
103	103	24
94	94	4
30	30	9
15	15	19
27	27	10
107	109	7
0	77	3
4	27	2
3	3	18
8	8	20
14	46	5
79	80	4
17	17	12
14	15	5
91	91	19
59	59	28
89	90	11
102	112	3
44	52	1
115	116	11
81	95	2
112	113	7
128	128	8
134	134	11
121	121	21
78	84	2
110	110	9
119	122	2
28	28	8
129	129	22
46	48	4
49	83	3
78	78	14
49	49	4
94	123	1
105	105	18
80	80	23
60	60	27
61	61	2
16	26	7
31	31	6
13	13	12
92	92	18
11	11	19
53	54	6
79	98	5
95	95	18
70	70	14
123	123	15
35	36	6
29	30	3
1	120	2
119	119	12
97	98	7
73	74	9
65	65	17
82	111	6
116	127	2
116	116	19
78	80	6
75	75	37
82	82	17
76	76	9
117	117	16
38	38	6
14	16	2
120	122	6
43	43	14
126	130	3
64	64	27
124	125	2
49	50	10
101	101	26
134	135	7
5	27	6
106	106	35
96	96	12
91	92	9
7	7	10
7	9	4
77	77	15
47	48	4
23	24	2
31	32	5
10	10	7
72	72	16
36	36	2
98	98	24
109	133	1
95	124	2
14	14	6
29	31	7
90	90	12
123	126	3
55	55	18
111	123	3
111	111	17
95	129	8
100	100	15
29	29	18
108	112	3
130	130	24
1	1	15
127	127	12
98	126	3
124	124	21
26	64	3
84	85	2
87	88	5
44	45	4
121	122	4
121	124	5
79	79	16
34	35	2
104	104	14
99	111	3
85	86	1
102	102	19
126	126	29
114	122	6
84	84	20
27	28	6
63	63	16
20	21	5
22	22	3
75	76	1
109	110	7
85	85	16
2	12	5
114	114	26
78	79	4
23	23	6
92	97	1
6	9	4
73	73	24
58	78	1
60	66	4
64	65	4
59	91	3
58	58	7
24	24	9
120	120	12
56	56	7
113	113	6
74	74	15
133	133	7
44	44	6
66	66	10
118	122	4
27	29	3
68	68	11
115	115	14
54	76	4
18	19	5
82	83	4
108	110	6
55	56	4
3	78	3
0	0	6
108	109	6
14	25	2
102	103	8
18	18	9
118	123	3
99	110	1
80	127	5
50	50	18
89	89	10
83	85	4
34	34	18
87	87	4
86	87	6
6	6	5
45	46	5
117	118	15
125	125	11
97	97	16
9	10	5
30	31	11
67	69	5
1	2	11
72	73	9
100	106	4
81	87	1
68	69	2
88	88	12
131	132	2
103	132	1
127	128	4
114	115	11
56	57	7
105	134	3
102	126	2
93	93	24
122	122	8
12	12	5
58	79	3
51	51	2
130	131	2
133	134	2
54	54	15
79	92	1
27	93	1
83	84	7
71	71	10
54	67	4
86	88	6
109	109	13
65	77	3
109	118	7
71	78	3
96	99	3
96	97	11
57	65	4
117	122	2
97	128	2
71	72	6
70	73	1
38	43	4
13	14	2
6	7	3
80	83	4
113	116	1
42	44	1
94	127	2
53	53	3
118	119	4
58	59	8
74	75	1
84	109	1
33	70	5
54	78	2
111	112	3
124	126	4
85	87	5
112	115	4
63	64	4
95	96	8
4	5	4
59	61	1
5	5	5
26	26	5
60	84	1
98	115	1
92	93	7
97	123	3
50	83	3
52	52	9
26	27	1
35	35	1
62	62	9
113	122	2
118	129	4
67	67	6
12	35	1
72	77	5
33	34	4
99	99	14
107	129	2
68	83	4
112	112	17
69	81	2
33	33	7
80	87	4
128	129	10
125	126	5
62	63	3
81	81	8
106	107	6
47	47	2
93	99	1
77	123	2
116	132	3
83	83	10
23	34	2
4	4	10
127	129	2
61	62	4
93	126	1
21	21	6
16	16	5
131	131	10
77	78	7
64	106	2
65	70	4
107	133	1
80	86	3
62	70	3
26	61	1
116	117	2
9	11	4
70	71	3
91	95	3
79	93	2
105	120	1
2	3	3
69	70	5
14	93	2
17	123	2
99	101	3
43	52	2
32	33	1
5	12	1
33	35	3
102	120	8
57	57	9
115	119	1
107	107	9
69	88	2
71	80	2
48	48	5
16	17	4
17	43	2
100	101	5
57	59	3
20	37	2
129	131	1
20	22	1
60	61	1
114	118	1
37	38	2
28	65	1
66	67	2
118	121	5
56	58	1
69	122	2
118	124	1
96	113	1
27	30	2
123	124	1
82	106	4
119	120	5
46	46	1
46	51	1
85	110	1
9	82	1
86	86	9
89	91	2
91	110	1
108	108	3
54	65	5
37	37	9
70	89	7
11	21	1
129	132	1
19	37	5
79	83	2
65	94	4
0	2	1
126	127	8
68	108	6
9	9	2
94	97	1
65	66	2
59	60	5
43	56	1
12	17	1
105	106	1
54	68	3
58	60	3
106	117	2
118	118	2
72	87	2
13	24	3
31	74	2
61	64	3
100	105	4
8	9	4
28	30	1
8	11	1
54	55	3
56	61	2
95	131	3
77	88	1
43	79	2
62	84	2
79	85	1
22	25	3
107	108	1
121	125	2
62	86	1
94	95	4
106	108	1
57	78	1
60	64	1
19	19	6
64	69	3
19	38	2
50	61	2
120	121	6
54	61	1
130	132	3
88	92	2
126	133	1
70	135	1
63	75	2
113	114	1
76	77	1
29	94	1
110	118	2
84	87	3
4	8	3
100	110	2
125	130	1
80	92	1
11	79	3
7	25	1
61	84	1
66	71	3
101	120	1
60	78	4
110	129	2
66	86	1
99	100	2
107	110	2
7	18	2
59	85	1
51	52	1
3	72	2
54	60	4
60	77	1
118	125	1
101	111	4
20	36	1
42	60	2
81	124	3
107	130	3
112	117	1
80	81	2
132	133	1
64	66	1
90	92	3
46	50	1
113	117	1
52	53	1
60	62	3
116	133	2
17	26	1
69	82	1
6	14	1
28	29	1
120	126	1
66	76	1
109	123	1
26	76	1
29	75	1
50	80	1
111	129	1
105	115	1
78	83	1
112	119	1
45	45	2
11	12	3
116	126	1
114	131	3
18	80	1
122	123	2
109	131	1
21	39	1
50	131	2
14	17	2
45	47	1
96	119	1
88	106	1
44	82	1
85	99	1
2	2	3
12	28	1
42	61	1
13	59	1
55	66	1
97	99	2
67	126	1
54	57	2
16	29	1
81	82	1
88	105	1
50	51	1
50	59	1
104	105	1
123	131	1
27	49	1
62	64	1
12	20	1
67	86	1
56	126	1
52	54	1
19	21	2
116	119	1
114	126	1
124	131	2
71	105	1
1	3	2
25	65	1
5	90	1
45	80	1
