29	30	9
34	34	17
15	27	1
15	15	9
58	58	9
67	67	9
46	46	14
8	36	4
21	22	9
4	4	6
25	83	2
32	32	17
25	25	19
30	30	13
44	44	3
36	36	5
104	105	3
73	73	8
29	29	13
74	74	1
27	27	3
10	10	9
9	9	15
7	7	8
108	108	12
62	62	10
79	79	18
104	104	4
85	85	10
59	59	2
85	124	2
48	49	1
57	57	4
68	68	15
11	23	2
21	21	5
65	65	6
41	75	1
32	33	5
25	73	1
21	75	3
22	22	4
60	60	8
80	80	21
16	16	5
111	111	9
86	86	3
55	55	4
15	16	4
33	33	11
89	90	1
115	116	7
61	61	5
5	5	9
92	92	2
12	13	4
69	73	1
95	96	5
45	45	6
63	63	5
61	101	3
97	97	7
11	11	9
6	6	2
33	41	3
11	14	2
85	126	2
31	31	9
28	29	9
75	75	3
39	55	3
13	13	9
47	47	17
112	113	3
81	81	6
37	37	11
126	132	4
38	39	2
131	132	4
95	95	9
77	77	6
105	105	3
94	95	3
70	70	11
12	71	4
106	106	2
76	110	2
29	48	3
18	18	5
11	34	1
47	48	8
103	105	2
120	120	9
133	134	5
66	66	6
64	64	18
78	79	4
9	14	1
103	103	7
12	14	1
100	100	9
35	35	8
11	31	2
19	21	2
41	41	1
35	36	2
68	71	4
18	72	5
132	133	1
28	99	5
38	38	10
68	69	5
77	78	4
24	24	6
86	88	1
116	116	2
93	93	10
69	69	14
14	92	1
44	61	1
30	31	1
124	134	3
76	76	3
88	89	1
9	10	2
93	131	5
90	90	5
78	81	1
109	109	4
81	120	5
83	83	3
3	3	2
120	122	2
17	17	7
87	87	5
113	116	3
8	8	10
99	100	1
41	50	7
72	72	8
121	122	5
41	43	3
66	86	3
101	101	4
5	6	8
72	91	2
90	91	4
124	124	3
111	113	1
3	27	1
71	118	6
19	19	5
110	110	9
2	2	4
23	23	2
28	28	12
8	26	3
84	84	9
7	48	2
71	72	3
12	12	4
17	74	2
129	129	6
70	71	2
126	127	2
46	47	1
14	14	4
77	117	1
37	38	4
25	47	3
132	132	4
119	119	7
11	12	3
130	131	2
9	19	2
56	56	1
20	20	9
11	93	2
25	29	5
33	34	3
70	75	1
115	115	3
127	132	3
15	37	2
31	32	2
12	28	4
111	112	1
91	91	5
9	29	3
99	99	3
72	73	4
14	78	2
34	35	1
103	104	2
84	126	1
26	26	3
113	130	2
2	3	1
125	126	3
114	114	6
113	113	2
18	62	2
18	20	1
81	127	3
6	8	1
12	46	3
21	70	1
82	83	1
8	60	1
50	55	1
26	27	1
43	43	3
88	88	2
45	70	2
48	48	1
125	133	3
46	71	3
126	128	1
117	117	1
85	86	2
42	42	2
27	28	1
87	93	4
2	79	1
125	125	1
11	68	3
95	112	1
121	121	1
102	102	4
90	132	2
24	25	1
13	21	1
96	99	1
81	82	1
3	6	1
71	71	5
28	94	2
4	102	1
46	76	2
40	40	1
66	116	1
127	131	1
20	21	2
79	81	1
74	117	1
41	42	1
17	18	1
57	110	2
81	83	1
112	112	2
51	51	1
14	15	1
96	115	1
46	82	1
37	40	2
92	119	1
43	69	1
3	101	1
4	5	2
98	99	1
94	94	1
62	66	2
78	78	2
96	96	1
16	17	1
78	109	1
32	59	1
89	89	1
69	75	1
45	71	1
107	114	1
0	3	2
10	21	1
69	72	2
41	48	1
125	127	1
25	26	2
61	84	2
79	80	4
126	126	1
72	74	1
27	29	1
118	118	1
113	114	1
19	22	1
13	14	2
119	120	1
86	90	1
49	56	1
95	114	1
96	117	1
47	62	1
73	74	1
109	110	1
11	69	1
28	98	1
11	41	1
7	57	1
80	82	1
56	58	1
51	55	1
60	72	1
9	16	1
11	15	1
