94	94	46
70	70	37
58	58	18
37	37	12
67	96	2
100	101	7
62	75	2
41	42	14
40	41	12
22	22	21
62	62	31
85	86	3
95	95	31
35	35	35
101	102	6
33	33	19
93	93	26
57	58	20
55	55	44
24	25	10
89	90	17
100	100	53
72	72	19
64	64	43
97	97	36
59	80	2
49	49	16
28	30	5
78	79	21
89	89	25
102	102	25
97	98	9
60	61	15
27	27	13
96	96	22
86	87	17
81	82	7
82	83	11
42	78	3
54	89	3
92	92	23
22	23	15
36	37	10
26	28	3
71	75	3
78	78	30
106	106	36
101	103	5
94	95	9
40	42	2
98	98	20
50	51	3
104	104	34
70	76	1
69	70	6
32	33	3
75	75	27
68	74	7
93	94	11
84	84	25
57	57	15
71	71	23
32	32	22
65	65	35
30	31	5
91	92	7
74	74	34
42	42	16
80	81	14
60	60	19
99	99	23
39	39	27
66	66	10
45	45	21
80	80	22
64	65	5
81	81	43
30	38	5
78	90	2
31	31	32
92	93	12
90	90	30
53	56	7
69	75	3
76	77	2
26	26	16
66	77	5
38	41	3
70	75	4
60	62	3
105	105	26
21	21	26
87	105	3
29	32	5
67	68	5
67	67	24
66	75	3
20	22	5
62	77	3
91	91	30
73	73	29
20	21	5
77	81	4
101	101	21
38	75	1
79	81	10
26	27	12
76	76	29
46	54	3
24	24	34
61	62	11
59	59	16
56	56	30
48	48	20
103	103	44
44	44	18
89	91	13
78	84	2
38	40	6
87	87	15
79	80	6
36	38	3
53	54	10
45	67	1
42	100	1
22	33	1
43	44	3
57	99	1
64	82	1
52	91	4
42	43	10
51	51	11
53	53	17
48	49	8
63	80	4
52	54	4
88	97	2
25	25	21
82	82	24
25	65	2
74	75	13
81	99	2
60	82	3
77	77	26
63	64	8
48	83	3
34	34	19
52	67	4
50	50	32
30	30	10
23	23	16
77	92	3
59	62	3
38	38	21
65	91	7
55	58	2
66	71	4
54	76	3
41	41	9
59	75	2
63	91	2
71	72	11
85	87	6
35	69	1
61	61	21
67	70	7
105	106	1
79	79	25
69	69	38
55	76	3
20	20	13
103	105	3
63	63	16
31	33	7
38	39	11
54	54	22
34	36	3
28	28	12
91	96	3
85	85	17
95	97	2
65	68	2
80	82	1
31	36	5
86	88	4
49	59	4
34	35	2
83	83	6
98	99	8
65	66	5
67	75	3
68	68	29
62	63	17
25	42	5
88	88	9
86	86	13
65	67	7
92	97	1
33	34	7
47	82	2
47	48	2
65	69	2
28	29	4
58	59	7
52	53	11
36	93	2
107	107	3
29	41	1
60	67	3
29	29	2
97	107	3
84	85	7
91	94	8
83	85	8
55	56	12
89	96	6
90	106	7
62	65	3
95	107	2
49	50	4
91	106	2
89	95	8
83	84	10
88	94	1
91	105	2
61	78	1
39	40	5
99	100	6
64	71	4
46	46	10
68	69	15
62	64	5
88	90	6
65	87	4
99	101	1
80	107	3
40	40	16
45	46	7
77	79	3
59	79	6
87	88	4
73	75	1
51	52	7
77	87	3
96	97	4
84	86	4
53	86	2
68	70	3
90	91	6
67	94	1
54	55	7
50	104	3
62	91	2
25	28	4
72	73	3
29	48	7
82	97	1
36	36	9
88	89	11
45	49	2
77	105	1
65	95	1
90	92	6
44	67	4
50	62	2
61	64	3
62	82	2
71	95	1
23	35	2
44	68	2
52	104	3
73	74	2
52	52	5
76	78	2
77	89	1
24	34	5
55	78	2
71	76	4
77	78	5
24	36	3
100	102	1
77	88	3
42	45	2
51	53	2
41	43	6
61	63	6
57	59	1
56	61	3
71	74	2
75	78	4
56	58	6
39	41	1
59	60	7
60	63	2
47	47	7
96	102	3
86	93	4
94	101	3
25	67	4
83	88	2
27	29	1
58	60	8
65	97	3
25	29	3
57	60	2
80	86	2
51	54	2
48	78	2
47	79	3
82	98	4
69	74	1
82	99	2
71	73	3
25	40	1
77	85	3
23	68	1
66	67	4
61	75	4
56	57	2
58	78	3
51	59	1
76	104	1
25	26	1
102	103	6
64	78	1
49	98	2
83	87	2
60	71	2
46	47	8
41	45	1
49	51	2
54	56	3
55	59	2
53	77	1
35	36	4
95	96	4
36	39	5
48	50	3
37	38	2
43	43	3
75	77	2
23	51	3
70	103	2
77	80	1
100	105	2
77	93	1
22	49	1
26	29	5
78	80	4
29	30	2
69	77	2
30	72	1
87	94	2
75	76	6
46	48	4
62	83	1
70	71	4
51	104	1
77	94	2
68	92	1
24	30	1
66	72	2
29	95	3
21	22	3
25	27	1
59	61	6
63	65	1
64	85	1
51	56	1
47	50	1
57	100	1
46	99	1
53	55	1
51	55	1
41	92	1
45	103	1
65	71	3
53	90	1
46	78	2
24	31	1
62	68	2
66	68	1
69	71	3
25	44	1
32	36	1
26	48	1
21	93	1
78	91	1
89	93	1
53	68	2
54	62	1
31	38	4
106	107	1
103	104	1
59	81	1
43	45	1
89	94	2
96	99	2
68	71	2
79	90	1
55	80	2
55	57	2
49	80	1
91	93	1
27	28	1
49	55	1
83	86	3
89	92	2
47	93	1
82	88	2
58	89	2
81	85	2
26	32	2
44	54	2
30	100	4
82	105	2
81	89	1
42	44	5
59	63	1
63	85	2
78	102	2
25	32	1
40	45	1
45	55	1
97	99	3
27	48	1
38	98	1
28	80	1
23	24	1
68	75	1
48	79	1
52	55	1
31	32	1
22	87	2
33	35	1
50	58	2
30	40	1
63	78	2
47	49	1
47	85	1
33	38	1
33	37	1
50	100	1
79	93	1
84	87	1
22	25	2
24	46	1
30	35	1
23	67	1
79	82	2
25	74	1
86	92	1
52	75	1
68	79	1
24	38	1
31	40	1
61	67	1
60	65	1
35	92	1
65	72	2
26	33	1
32	35	2
87	91	1
55	100	1
86	90	1
33	36	1
20	24	1
24	96	1
24	48	1
28	32	1
50	92	1
82	90	1
53	102	1
22	82	1
58	79	1
80	92	1
75	101	1
