21	21	3
207	207	8
112	112	12
187	187	5
211	211	3
117	117	4
40	40	8
177	177	10
23	23	11
193	193	4
219	219	7
199	199	9
176	177	12
196	197	5
104	104	8
114	114	15
200	200	5
91	92	5
9	224	1
188	188	8
190	190	4
160	160	11
205	205	11
180	180	10
30	75	2
208	208	6
67	67	3
55	55	10
227	227	6
177	184	4
149	150	4
213	214	7
176	176	8
60	60	3
77	80	3
192	192	11
213	213	7
188	189	4
195	195	11
118	118	9
46	46	15
110	110	12
87	88	7
66	66	5
155	155	8
75	78	1
35	38	7
220	220	7
35	35	5
18	19	4
229	231	2
161	225	1
98	160	4
49	49	5
64	79	8
69	71	1
102	103	3
168	169	7
241	248	5
204	212	1
56	56	4
167	168	9
113	243	3
212	212	8
7	167	1
50	73	8
232	241	4
16	174	1
145	145	6
49	119	1
159	160	4
240	240	7
228	228	6
80	83	3
226	226	6
75	77	2
44	44	11
170	170	14
5	15	1
75	75	4
235	235	9
198	199	4
187	188	6
161	180	1
39	39	10
80	80	1
235	236	6
83	84	8
54	54	5
238	238	10
167	167	11
150	151	1
3	3	3
77	211	1
181	182	1
7	7	7
10	10	2
77	77	5
230	241	4
31	74	1
3	233	4
2	2	2
103	103	2
0	2	4
24	81	2
173	174	3
36	36	7
9	9	6
238	240	6
104	105	1
208	209	4
75	90	4
212	213	2
234	235	4
218	218	11
45	45	4
115	115	10
224	224	14
32	89	2
152	158	6
101	101	3
211	212	3
205	206	3
20	20	9
54	55	5
60	73	6
32	32	5
6	6	10
164	164	13
63	63	4
19	39	3
242	243	2
33	115	3
178	179	3
121	158	3
89	89	9
81	81	5
197	197	13
159	183	2
179	210	2
11	11	8
166	181	4
232	242	3
26	26	1
243	244	3
245	246	3
5	5	6
96	105	3
93	93	3
179	182	5
217	217	7
184	184	7
96	106	4
107	107	2
47	47	5
156	226	2
146	146	5
232	232	4
237	237	14
50	59	7
191	191	5
152	181	3
73	75	3
105	106	5
237	244	5
29	29	4
30	30	3
22	22	3
161	161	8
2	5	4
58	75	3
4	14	2
161	185	1
80	84	5
237	247	3
4	4	3
166	182	2
204	204	4
121	242	4
43	43	9
48	60	2
155	156	5
240	245	1
17	17	4
72	72	5
74	74	3
58	59	3
82	104	1
162	163	5
57	58	1
71	71	3
42	42	6
231	231	11
16	16	1
94	94	7
116	116	3
53	54	3
180	198	1
33	33	13
102	102	3
102	163	1
246	246	2
106	107	5
65	66	2
68	82	3
13	232	4
234	241	1
19	20	2
236	236	5
247	247	4
18	18	4
160	163	2
78	83	2
54	110	1
30	116	4
58	58	4
38	38	5
223	223	5
67	85	3
91	91	5
194	194	7
8	8	4
167	205	2
239	242	3
14	245	3
37	226	3
92	92	7
162	162	6
240	241	5
95	97	2
234	234	8
67	86	7
73	73	3
225	225	3
42	43	3
197	198	2
10	235	3
175	175	3
68	68	6
198	209	3
180	181	7
8	100	2
104	106	2
96	96	2
49	50	5
202	202	5
48	48	3
152	152	5
225	226	8
236	237	3
40	45	2
64	64	10
113	113	5
245	245	1
71	74	4
174	174	2
73	74	4
163	164	2
230	230	6
15	205	1
97	98	3
109	109	4
41	44	1
108	108	8
154	154	4
20	35	2
189	199	2
194	213	3
95	95	3
19	34	1
217	219	1
31	31	4
169	183	4
104	108	1
157	191	2
49	118	1
208	210	1
82	83	2
69	82	2
238	239	7
165	166	5
12	12	2
181	181	8
54	72	1
198	200	1
99	99	4
64	67	1
168	168	4
172	200	2
232	233	2
44	45	6
110	236	3
167	184	1
78	78	8
178	191	1
171	221	1
117	120	6
112	113	5
87	89	3
206	207	13
188	192	4
34	39	2
175	177	2
79	81	4
239	239	7
69	76	2
29	30	4
97	97	2
85	85	10
27	27	1
53	53	7
6	7	10
77	78	1
76	76	3
115	146	3
31	115	1
23	41	1
193	195	3
166	191	1
197	217	1
6	101	1
120	242	1
157	157	4
221	221	14
211	213	1
183	183	4
51	70	2
153	153	9
172	172	8
227	229	2
51	62	1
88	88	8
48	50	3
233	234	5
107	108	3
215	215	1
1	1	2
111	111	11
28	33	3
218	219	3
176	208	3
85	86	1
194	195	4
206	206	4
84	84	1
201	202	2
243	243	4
203	222	2
233	233	6
161	162	2
52	52	2
248	248	5
191	192	4
118	119	2
189	189	4
16	17	1
98	99	2
67	68	2
247	248	3
90	90	5
113	114	3
32	33	3
172	236	2
216	218	1
208	243	2
109	154	1
241	249	5
30	35	1
39	40	1
209	210	2
35	36	1
203	203	1
193	194	3
81	88	3
210	211	4
51	68	1
79	79	3
210	213	4
50	50	4
151	151	6
214	214	2
102	106	1
154	155	1
109	162	5
153	155	1
209	216	1
170	244	2
212	229	2
177	244	3
180	222	2
201	201	2
24	25	4
226	227	1
158	158	4
44	52	1
151	153	2
47	114	1
15	213	2
12	199	2
69	70	2
97	107	2
172	173	6
179	179	5
195	214	4
161	178	1
18	39	1
240	248	3
62	67	2
157	159	3
171	174	2
171	180	1
56	64	2
188	196	1
244	244	7
24	24	2
169	170	2
227	228	6
153	214	3
14	237	1
22	94	1
18	38	1
173	226	1
192	193	2
159	247	1
166	166	1
66	93	2
100	100	1
88	90	2
63	76	2
118	120	3
165	169	1
245	247	1
14	15	3
5	239	2
224	225	2
159	159	4
153	162	2
172	210	3
112	114	1
177	213	1
37	37	2
120	120	3
26	31	1
145	220	2
89	96	1
157	187	3
216	241	2
229	230	3
172	223	1
19	19	2
168	183	1
99	100	4
177	238	1
2	226	3
20	33	4
28	28	5
180	183	4
20	36	3
197	199	2
178	184	2
110	112	1
51	51	1
169	169	2
14	14	9
218	246	2
78	79	1
87	87	3
152	162	1
52	71	2
38	40	1
72	113	1
177	181	1
91	110	1
170	208	1
15	15	3
165	165	4
151	156	1
216	216	2
190	195	1
193	212	1
183	192	1
18	227	1
34	38	2
62	68	1
173	173	3
163	166	8
162	186	3
151	152	1
178	178	3
198	198	4
18	37	2
176	185	2
210	210	3
40	155	1
30	31	1
76	78	1
77	85	3
34	57	3
61	77	2
52	54	3
156	156	4
217	218	1
16	180	1
32	41	1
217	246	1
25	25	1
197	220	1
115	116	1
48	61	2
221	233	1
12	108	1
76	77	1
239	240	2
38	39	2
80	81	2
69	69	1
175	186	1
8	202	1
184	207	2
151	182	2
198	248	1
62	62	2
184	189	1
62	63	1
60	74	2
203	204	2
154	156	3
65	92	2
167	207	1
174	186	1
214	219	2
85	99	1
114	116	1
12	109	2
47	48	1
1	2	1
90	91	1
177	178	1
182	182	2
169	197	1
207	220	1
21	22	1
117	119	1
171	197	1
66	67	1
56	57	1
164	179	1
152	153	3
97	108	1
64	65	3
204	205	2
149	161	1
183	184	1
170	171	1
9	16	2
237	240	1
61	61	1
16	46	1
3	237	1
3	230	1
59	59	2
8	201	2
98	98	1
57	81	2
119	119	2
96	98	1
120	156	1
24	94	2
212	216	1
246	247	1
185	185	3
174	202	1
230	231	1
159	184	1
232	234	2
59	60	2
200	237	1
71	72	1
237	238	1
164	213	1
106	106	2
147	147	1
57	57	1
194	212	2
173	223	1
181	227	1
33	47	1
31	78	1
167	196	1
62	70	1
75	76	1
17	18	1
48	71	1
8	228	1
35	74	1
57	91	2
242	247	1
202	203	1
101	116	1
161	168	1
34	112	1
213	244	1
229	229	2
165	208	1
6	203	1
18	20	1
185	194	1
34	102	1
78	84	1
86	89	1
101	108	1
82	84	2
103	105	1
210	214	1
70	74	1
186	186	1
105	105	1
168	244	1
161	231	1
161	163	1
163	163	1
144	186	1
154	202	1
81	84	1
109	110	1
200	201	1
147	150	1
56	59	1
121	121	1
156	220	1
66	68	1
34	34	1
89	90	1
10	203	1
234	237	1
212	222	1
248	249	1
173	236	1
72	73	1
201	221	1
60	61	1
47	61	1
43	205	1
4	5	1
171	176	1
8	9	1
