73	73	3
30	31	2
31	31	6
87	111	2
84	85	3
133	133	1
61	62	2
96	96	3
13	14	2
30	43	1
51	58	3
50	50	2
135	135	6
36	36	2
132	134	2
72	72	2
29	29	4
4	4	3
55	67	3
28	29	3
129	132	1
68	68	5
103	108	4
8	9	2
147	148	6
58	58	2
110	113	4
152	152	2
23	23	4
82	82	5
62	62	1
48	48	1
38	38	1
15	15	2
154	154	1
19	19	5
149	149	2
31	32	3
95	95	2
65	65	4
34	51	2
10	10	3
115	115	4
65	67	1
97	97	7
125	136	5
14	14	2
55	56	2
109	109	1
143	144	1
64	68	1
153	153	2
65	95	2
2	34	1
151	152	2
27	31	4
63	63	2
62	67	1
24	53	4
7	7	3
62	74	4
146	147	2
38	39	2
80	82	4
22	22	4
71	71	4
81	145	1
21	21	2
44	44	5
113	121	2
41	42	1
98	98	4
83	83	2
27	35	2
115	117	5
136	138	3
81	82	4
47	48	2
42	43	1
139	142	1
49	49	4
64	64	1
84	144	2
35	35	3
78	82	1
45	49	1
102	125	3
90	91	1
84	93	1
127	146	2
87	88	1
26	26	1
18	19	4
152	153	2
83	96	1
43	43	1
113	113	3
39	39	1
79	79	2
11	16	3
116	117	3
37	37	1
75	97	1
20	20	2
84	84	1
119	119	3
65	71	1
123	123	2
34	34	2
4	5	2
74	74	1
64	69	1
106	119	2
76	77	2
103	149	1
127	127	1
12	21	2
41	54	2
36	37	4
31	34	1
13	13	1
145	154	3
30	41	2
3	6	1
91	94	3
147	147	3
43	44	2
45	45	2
93	94	1
102	127	1
104	104	2
9	9	1
117	117	1
94	101	1
106	107	1
14	15	1
40	40	1
44	46	1
26	27	2
77	77	1
126	127	1
96	97	1
113	114	1
147	149	1
47	47	2
127	137	1
131	131	1
54	54	1
23	68	3
78	78	1
95	99	3
64	79	2
148	148	1
40	48	2
101	118	1
95	98	1
63	68	1
57	57	2
29	30	2
88	113	1
42	42	2
107	133	1
12	14	1
102	102	1
98	99	1
125	125	1
130	130	1
145	145	1
62	68	1
13	25	1
28	31	1
33	33	1
32	36	1
39	67	1
95	96	1
105	139	1
