185	185	8
76	76	4
100	100	3
20	20	2
102	103	2
77	77	5
87	87	4
188	188	4
141	141	11
88	88	3
172	173	2
135	135	5
67	67	4
177	178	1
81	84	6
142	144	1
7	39	2
174	174	4
99	99	1
145	146	3
156	156	4
112	112	2
134	160	6
36	36	6
116	136	3
132	134	1
13	13	6
17	17	4
54	54	10
7	7	5
49	49	7
187	187	3
2	3	4
82	82	2
51	51	10
58	61	2
184	184	4
147	147	4
58	59	1
173	174	2
27	98	2
98	98	1
12	12	3
197	197	4
42	43	10
185	187	1
157	158	3
150	151	5
57	57	3
35	35	6
11	11	12
57	128	2
34	35	1
118	173	2
19	19	10
189	189	5
104	104	3
10	15	1
59	59	4
15	15	8
195	195	1
60	61	3
130	130	3
5	6	2
120	181	3
8	34	3
180	181	6
169	185	4
97	97	2
107	107	3
53	53	2
13	14	2
144	145	3
8	8	6
181	181	5
188	189	7
41	81	2
14	62	2
181	182	5
19	22	1
148	168	3
171	171	4
158	159	1
27	27	3
68	68	1
9	9	5
58	58	3
153	153	8
3	5	1
80	81	3
110	111	2
159	159	5
106	106	4
195	196	3
85	85	7
112	113	7
147	161	3
129	129	3
79	79	7
139	140	4
194	195	1
172	172	5
169	169	5
142	143	7
149	149	4
174	175	4
164	164	3
42	42	4
29	29	7
166	166	3
6	27	2
18	18	6
43	44	8
6	6	5
6	8	1
81	82	1
16	16	11
182	183	8
117	117	9
167	167	7
8	41	1
52	54	4
114	114	2
121	121	3
40	41	2
139	139	10
128	128	4
56	56	7
108	108	4
118	118	5
9	154	1
182	182	8
25	26	2
170	170	6
1	2	2
191	191	4
176	176	6
98	175	1
24	24	6
115	115	2
122	122	1
15	100	1
148	161	2
96	169	2
193	193	6
1	1	2
168	168	5
132	132	5
129	130	2
158	158	4
111	111	3
8	37	2
101	105	1
186	186	2
132	133	3
163	163	5
134	135	6
102	102	3
39	39	1
54	56	2
137	137	9
65	68	6
25	25	3
99	159	2
99	173	2
17	104	1
116	117	3
135	136	7
154	154	6
82	83	1
103	107	2
88	89	2
155	155	3
27	62	2
150	150	14
52	52	6
46	48	2
196	196	4
76	82	2
145	145	4
152	152	4
146	146	2
124	124	5
116	118	3
21	178	1
103	103	4
171	194	2
174	176	2
183	183	4
108	109	2
163	173	1
37	37	3
3	4	5
57	77	3
45	45	2
47	47	9
105	105	6
133	167	1
18	115	1
192	192	1
99	100	2
150	156	1
81	81	2
173	173	4
130	131	3
148	148	1
102	104	3
76	79	3
180	182	2
104	105	6
161	161	5
19	28	2
143	145	6
148	187	2
13	35	3
192	193	3
161	173	2
136	136	3
43	43	4
67	68	3
83	83	3
110	110	3
194	194	1
148	166	2
46	47	2
168	169	3
122	123	1
72	73	2
22	22	7
66	66	6
3	23	1
94	97	1
4	28	1
0	1	2
147	148	2
85	86	1
123	123	1
140	140	4
125	126	2
14	14	9
147	156	1
134	140	4
5	5	1
54	55	3
154	174	2
11	12	1
116	116	1
121	131	1
96	96	3
35	36	3
23	23	1
38	59	2
23	29	2
141	142	1
24	27	1
155	156	3
179	181	2
84	84	2
118	136	3
147	151	1
44	44	2
7	9	1
107	108	1
62	63	2
133	133	4
11	15	1
167	168	3
137	146	3
73	93	1
149	171	1
7	40	2
66	67	2
169	173	1
101	101	2
120	120	5
14	109	1
22	23	1
140	144	3
64	67	1
178	178	3
14	57	2
21	95	1
177	177	5
0	0	1
101	113	1
39	40	3
26	26	3
113	113	3
124	196	3
18	19	1
151	179	1
23	76	2
42	54	1
160	160	2
134	134	1
20	176	1
109	111	1
123	124	1
138	138	2
50	50	2
73	73	1
176	177	2
173	175	1
55	55	4
136	181	1
149	150	1
93	96	1
17	187	1
70	138	3
175	175	2
30	30	2
154	157	1
116	137	3
50	51	1
27	30	1
94	95	1
2	2	2
77	79	1
133	187	2
32	32	1
0	20	3
157	170	1
70	70	1
48	48	5
156	157	1
33	33	2
78	78	1
151	152	1
41	41	1
193	194	1
161	163	2
46	46	2
165	168	2
146	148	1
117	173	1
119	119	2
161	174	1
94	96	1
65	65	1
126	126	1
155	165	1
179	179	3
29	30	2
72	140	1
115	116	1
27	28	1
142	142	1
93	95	1
31	31	2
184	190	1
25	135	1
164	172	1
187	188	1
30	85	1
65	66	1
89	89	1
28	28	1
180	180	1
86	86	1
21	21	2
76	136	2
136	137	1
13	22	2
149	183	1
136	138	1
64	66	1
11	44	1
14	106	1
160	185	1
166	172	2
39	41	1
131	131	1
10	11	1
38	39	1
5	113	1
8	35	1
161	162	1
20	95	1
95	95	1
73	75	1
63	63	1
46	52	1
135	137	1
98	99	1
62	62	1
117	118	1
145	158	1
64	64	1
155	158	1
