49	49	9
50	50	5
141	141	2
36	36	9
5	5	3
167	167	5
101	101	8
81	82	6
106	113	4
105	105	8
37	37	5
18	18	8
38	38	9
97	98	3
53	55	8
8	10	5
106	161	2
150	151	2
78	78	10
109	167	2
74	74	15
44	44	4
94	94	3
130	130	3
23	23	7
133	144	2
139	139	5
114	115	1
119	133	1
125	125	6
131	131	7
80	131	3
65	68	4
58	58	1
106	158	1
25	25	3
161	161	6
135	135	2
15	52	3
91	132	5
72	72	5
143	143	3
94	116	3
94	95	6
138	138	10
119	121	9
12	12	2
112	114	3
104	104	2
102	102	8
74	75	2
46	46	1
106	106	9
133	135	6
79	150	3
101	155	8
77	80	3
10	117	5
94	117	3
16	16	5
137	137	1
1	1	5
112	112	5
99	123	5
114	148	7
133	133	4
6	6	2
63	68	2
17	17	2
108	113	2
108	142	3
44	46	5
115	115	1
57	57	4
54	54	9
8	8	5
21	21	13
104	105	3
25	51	3
82	100	3
82	82	5
0	0	3
21	22	4
76	145	1
14	39	1
53	53	2
64	131	2
132	150	2
45	45	6
81	129	2
84	85	2
75	75	3
14	14	3
27	148	3
108	109	2
71	152	1
143	163	1
128	129	4
7	7	4
70	70	4
103	104	3
48	48	2
68	79	4
111	144	1
107	108	2
37	38	4
144	145	1
35	134	6
95	97	6
83	137	3
90	115	1
134	135	2
113	148	5
47	47	6
20	20	1
82	105	2
91	91	7
81	81	2
110	110	4
2	2	3
134	140	2
124	124	4
34	34	4
86	135	6
52	111	2
19	24	1
36	152	3
20	22	1
40	40	7
95	96	3
33	33	1
3	139	1
122	122	3
162	162	8
100	102	2
114	114	2
71	126	3
75	76	3
140	143	2
132	133	1
88	88	7
101	159	3
118	118	1
73	76	1
57	63	2
120	120	2
129	129	2
97	124	3
88	89	1
159	159	3
63	63	2
13	13	6
89	89	2
70	135	1
18	19	2
73	86	1
26	27	2
128	136	2
41	41	9
39	51	2
38	39	2
127	127	2
26	26	1
64	64	3
131	133	3
79	80	1
92	92	1
76	123	2
94	132	1
99	100	1
77	77	2
158	158	2
144	144	2
10	10	1
35	35	3
151	155	1
40	41	5
143	144	4
84	84	2
140	141	1
20	24	3
7	11	3
39	40	5
20	23	1
24	24	5
9	9	1
107	107	1
133	140	3
147	147	4
94	112	2
52	55	2
15	15	2
64	112	3
50	51	3
79	114	2
169	169	2
129	133	2
86	86	2
117	117	4
86	87	1
55	55	7
66	66	1
123	124	2
57	62	1
154	154	2
54	112	2
168	168	2
92	94	1
93	93	1
73	73	1
161	163	1
76	83	2
158	159	1
131	155	1
26	28	2
108	108	2
63	92	3
66	67	2
55	95	2
62	62	1
152	152	1
4	4	1
4	6	2
11	11	1
121	122	1
5	45	1
136	137	1
85	85	1
149	149	1
146	164	3
11	44	2
58	81	1
151	152	1
43	43	3
3	3	1
79	82	1
115	116	1
35	44	1
88	122	1
84	126	1
1	2	1
64	71	1
157	157	1
51	51	1
61	61	1
80	86	1
126	133	1
100	106	1
80	80	1
22	51	1
83	154	1
122	123	1
132	132	1
52	52	1
100	103	1
15	19	2
56	56	1
