171	171	10
97	97	15
15	15	12
121	122	14
11	12	5
1	4	4
119	120	3
5	5	24
33	33	16
170	171	2
96	130	2
43	43	11
102	102	7
10	11	16
93	94	10
56	93	2
76	77	10
30	113	1
83	84	5
43	44	6
132	132	9
77	77	16
167	167	26
10	15	2
41	41	16
115	115	6
159	159	5
62	62	4
140	140	13
57	179	1
19	19	10
124	125	5
62	85	2
93	93	11
72	72	7
163	163	4
174	174	6
143	143	11
136	137	11
150	150	15
13	13	15
9	9	7
1	76	2
22	31	4
25	25	11
118	118	9
40	40	26
75	75	4
19	20	5
158	158	10
179	179	9
38	38	20
126	135	3
113	115	1
12	12	11
133	134	6
39	39	25
88	95	2
23	23	17
29	29	15
89	89	15
173	173	9
18	18	19
130	134	1
37	38	6
29	33	6
26	28	8
103	104	5
170	170	7
24	24	18
32	32	17
36	37	7
38	39	20
63	63	3
11	11	25
50	52	1
179	180	5
37	37	22
109	109	12
112	112	11
172	172	9
6	8	2
25	44	2
55	55	13
128	132	1
66	88	2
160	161	2
94	94	12
146	157	2
122	122	8
148	149	8
97	99	2
147	148	4
84	84	2
28	28	6
14	14	20
172	176	5
123	123	5
36	36	11
51	51	18
0	1	5
20	20	6
147	147	5
148	148	10
155	156	1
127	128	1
142	142	7
18	62	2
3	3	15
153	153	6
161	163	2
116	119	2
21	25	5
138	138	14
149	149	2
80	86	1
158	159	6
53	54	3
73	74	3
126	126	5
111	111	15
132	137	3
95	95	15
22	22	14
24	31	2
176	176	10
119	119	7
57	57	12
64	64	11
26	27	6
12	100	2
65	65	6
41	42	6
147	149	2
131	131	7
67	67	11
171	175	1
146	146	5
74	75	2
86	89	2
145	146	5
68	99	3
6	18	1
39	40	8
49	50	2
109	110	7
96	96	5
162	164	2
7	9	3
7	7	19
162	162	8
50	65	3
73	73	7
60	60	8
104	104	1
90	90	17
141	141	15
17	23	8
59	59	16
58	59	2
159	172	1
169	169	10
50	50	17
72	75	3
25	26	5
97	98	9
139	140	1
1	2	9
125	126	9
29	30	6
3	20	2
27	28	6
10	10	17
55	56	5
61	61	8
132	136	2
131	132	14
63	80	3
117	118	2
32	38	4
14	15	3
25	144	1
134	134	11
136	136	8
137	137	12
56	56	13
13	14	5
155	155	4
169	170	1
65	66	3
164	164	14
32	33	9
56	57	7
172	173	7
22	23	9
3	9	5
0	0	13
54	56	2
175	175	4
166	166	4
15	16	6
94	96	3
139	139	8
3	62	1
146	147	2
87	89	3
1	1	15
31	32	5
90	91	6
113	114	5
144	144	5
168	168	12
108	108	7
57	60	3
31	31	11
126	127	14
42	44	4
91	91	5
140	141	5
35	36	6
45	45	5
21	22	6
102	106	2
130	130	5
64	65	4
101	101	3
158	168	4
3	5	3
21	21	6
100	128	4
38	44	4
113	118	3
40	43	7
18	21	3
125	125	19
71	72	6
2	2	10
139	172	6
37	39	4
118	176	1
133	133	6
60	67	2
39	43	1
154	154	5
15	41	1
41	43	2
24	26	2
175	176	5
28	30	4
124	124	11
28	29	3
135	135	14
158	160	1
159	160	2
8	8	8
23	24	4
54	54	8
58	86	3
105	105	5
100	100	1
173	174	3
95	131	3
159	162	2
16	16	7
180	180	4
59	74	4
177	177	5
14	32	2
95	111	7
6	7	3
42	42	7
21	23	5
151	151	3
7	10	2
76	76	7
162	175	1
127	129	2
13	21	2
49	51	2
94	95	5
20	21	1
145	152	3
52	52	7
5	13	2
163	164	1
35	35	29
7	16	2
156	156	3
83	85	4
6	6	12
44	44	16
81	81	3
178	178	8
78	78	2
9	10	5
121	121	9
122	125	1
35	39	6
116	116	8
59	60	4
120	124	1
55	92	1
75	76	1
106	107	2
154	155	3
137	138	1
160	163	1
150	151	5
66	67	8
167	168	3
165	166	3
7	28	5
161	165	2
56	61	3
100	103	2
12	13	12
150	154	1
33	119	4
28	104	6
86	87	1
71	71	9
100	101	2
113	113	5
34	35	6
54	68	1
52	54	1
17	17	6
4	20	2
5	6	10
38	40	4
80	80	4
90	122	4
68	68	3
90	158	1
10	13	5
27	29	1
13	19	2
133	142	1
2	3	5
92	94	4
106	106	2
143	144	2
96	97	3
68	90	4
114	114	5
102	105	2
8	9	2
18	20	4
35	40	1
88	89	3
62	63	6
40	41	2
136	140	1
20	22	1
64	66	2
35	37	4
61	84	4
11	15	2
2	19	5
138	150	2
51	52	2
10	12	1
158	174	1
128	128	6
87	87	2
90	98	1
157	174	1
6	9	1
114	115	3
18	19	5
2	13	3
130	148	2
3	4	4
96	137	2
30	30	4
50	51	1
79	79	6
7	8	3
10	14	2
84	85	1
87	90	2
35	42	2
117	117	3
99	99	1
151	152	1
113	126	1
17	42	1
103	126	3
74	74	2
34	34	6
15	17	3
33	35	1
3	7	2
16	17	2
118	125	2
15	18	4
70	70	1
2	7	2
141	169	3
167	171	1
29	31	4
58	90	2
30	34	1
160	160	2
16	37	3
166	179	2
174	175	2
59	76	2
23	30	1
120	125	3
4	4	5
16	19	2
115	116	1
18	44	2
142	149	1
51	76	2
9	11	5
161	161	4
168	169	1
145	145	4
52	53	2
98	99	2
16	18	2
157	158	3
166	167	2
33	34	2
20	23	1
157	157	1
11	13	2
56	72	2
128	129	2
13	23	3
91	92	1
39	41	1
88	88	4
67	68	2
82	82	8
92	92	2
129	129	1
13	18	5
178	179	1
34	36	1
79	80	1
23	26	2
22	96	1
107	108	1
119	121	1
121	126	2
10	17	2
30	43	1
27	27	4
117	119	1
81	84	1
13	16	5
123	124	3
14	21	1
172	174	4
66	66	1
109	116	1
142	143	4
19	111	2
104	105	2
95	97	1
18	141	2
8	10	2
124	143	1
19	141	1
91	96	4
156	157	3
93	97	2
113	175	1
149	168	1
30	31	3
19	143	1
32	36	1
145	149	1
26	29	1
35	41	1
2	9	1
86	86	2
157	163	3
82	84	3
12	15	2
128	133	3
36	43	1
178	180	2
1	19	2
4	8	2
42	43	1
137	140	2
109	115	1
116	121	2
52	63	2
9	24	1
80	81	2
118	171	2
149	150	1
109	113	1
98	98	1
102	103	1
42	58	3
169	174	1
38	109	1
4	5	2
110	111	2
132	133	2
26	33	1
143	149	2
80	82	1
163	166	1
22	24	2
36	60	1
57	75	1
89	90	1
24	27	2
12	16	1
54	55	1
44	45	1
11	26	1
163	168	1
16	22	1
136	148	1
129	142	1
133	153	1
147	168	1
101	102	1
93	95	1
120	121	1
102	107	1
33	90	1
153	155	1
57	71	1
19	21	1
85	86	1
37	167	1
