45	132	4
48	49	39
124	124	61
147	154	5
5	52	1
43	43	72
5	5	60
107	107	72
156	156	74
76	76	13
83	86	1
123	157	5
129	129	78
92	94	6
83	83	55
125	125	55
21	21	69
19	20	40
91	92	26
22	23	19
103	104	20
135	136	25
104	104	62
85	94	8
87	87	76
8	9	37
115	115	68
80	81	32
22	22	57
34	34	64
7	7	79
131	131	89
98	98	73
23	23	61
13	21	3
107	115	3
54	54	43
112	113	31
132	134	2
94	95	30
35	35	46
73	73	87
29	29	74
35	38	2
62	63	6
96	98	9
68	70	12
52	52	50
1	2	29
68	68	63
88	89	37
77	77	54
54	100	6
141	141	41
107	108	13
14	14	47
18	18	70
82	106	4
113	113	47
71	71	37
82	84	7
36	117	4
63	64	6
127	127	90
56	156	1
50	50	66
48	50	4
103	123	2
96	97	16
81	82	24
133	133	58
25	25	88
46	47	39
48	48	46
104	107	8
145	146	16
105	156	2
82	86	12
11	12	28
121	121	61
89	89	58
151	151	43
108	121	6
118	118	88
41	41	82
0	1	13
16	16	45
35	118	4
66	69	5
45	45	43
123	123	69
137	137	70
117	126	2
128	128	68
53	54	23
90	90	51
68	69	22
158	158	59
49	49	53
27	27	82
148	148	68
49	50	16
75	81	10
39	40	26
63	70	5
26	26	66
110	110	50
83	121	6
8	10	18
119	119	72
149	149	29
15	36	2
30	107	2
36	37	23
121	123	5
19	40	3
80	80	64
84	85	21
119	147	2
1	1	82
133	134	8
130	133	1
91	91	48
117	117	100
29	30	22
10	14	5
15	15	67
74	74	12
53	53	48
93	93	64
66	66	41
37	37	34
97	153	6
96	96	44
87	91	5
80	95	8
52	133	2
40	42	11
108	108	65
109	109	54
114	116	7
38	38	50
155	156	16
31	32	34
6	7	9
139	156	2
132	132	63
16	20	8
22	26	10
9	10	13
27	28	20
147	152	3
103	103	64
67	67	41
102	102	34
4	4	79
75	75	52
67	69	14
153	153	31
27	31	1
53	142	5
5	6	4
84	159	4
36	36	60
0	0	84
136	136	62
149	154	1
51	51	43
104	157	5
34	40	3
157	158	16
70	70	43
67	93	1
119	122	2
39	39	44
142	142	40
151	158	5
86	115	5
130	131	26
95	95	72
99	99	77
2	2	64
42	103	3
12	12	48
18	19	22
108	154	3
13	14	25
69	154	8
7	70	8
142	143	7
143	144	11
14	19	4
9	16	4
38	39	25
82	82	56
126	126	68
128	129	14
145	145	54
20	30	2
147	148	9
115	116	21
42	48	6
81	106	1
114	131	1
110	115	5
10	10	45
132	133	32
50	51	25
150	150	44
47	47	54
34	35	4
52	53	18
12	13	15
28	28	41
26	28	12
98	99	9
111	111	50
8	8	63
157	157	56
80	82	7
152	152	49
121	146	1
7	8	20
86	86	57
28	134	1
122	122	56
144	144	46
83	118	5
38	41	3
118	119	19
15	20	3
20	20	89
146	146	48
95	96	19
93	94	25
119	146	5
19	19	44
88	88	50
6	6	47
100	100	91
114	114	52
62	62	21
11	11	67
120	121	18
119	144	1
3	21	1
89	90	14
140	140	61
15	16	10
31	123	2
135	135	51
16	17	4
47	48	7
13	13	51
108	112	13
146	147	25
42	42	50
117	120	15
145	147	11
90	103	3
52	108	3
29	36	5
154	154	49
23	28	10
90	91	22
85	85	63
3	4	32
7	139	5
116	116	92
105	110	3
156	157	6
28	29	24
139	139	39
78	79	21
47	102	4
144	146	16
17	17	81
112	112	71
128	130	5
144	147	17
32	32	21
23	46	3
62	158	8
29	145	3
111	115	2
27	29	19
119	145	3
101	101	57
77	78	23
109	110	23
117	118	19
78	149	5
43	104	3
18	27	4
8	40	3
62	64	3
106	158	1
149	151	1
77	79	15
3	3	78
132	136	3
131	144	7
36	52	5
41	42	9
92	92	39
79	79	41
94	94	74
106	106	42
30	156	1
130	130	61
37	38	21
155	155	53
46	46	58
28	31	3
86	93	3
87	90	7
105	105	52
115	117	7
32	33	15
10	20	1
38	40	5
9	9	51
12	18	3
17	115	2
55	128	2
122	123	4
111	141	3
145	150	2
94	97	2
51	52	30
114	119	1
128	134	4
45	72	5
19	23	1
134	134	71
29	134	3
77	144	2
33	33	50
121	122	48
141	147	10
15	31	9
141	142	8
17	30	8
7	47	1
71	82	3
88	114	3
124	125	26
30	48	2
144	145	31
48	93	2
104	105	15
124	153	2
39	41	4
75	148	3
120	120	40
5	151	3
8	86	2
37	41	1
120	123	1
83	84	30
7	35	1
104	129	4
138	138	74
32	35	5
122	144	1
45	53	1
57	58	7
108	111	15
87	123	2
120	150	7
95	123	3
20	42	6
42	49	1
40	41	35
30	30	50
81	81	56
84	86	11
76	77	10
98	103	1
43	53	1
12	140	3
117	154	4
24	44	1
118	120	11
54	108	6
70	78	2
12	16	2
92	93	17
114	115	41
51	111	5
120	126	4
10	49	3
65	66	16
138	139	8
49	55	1
0	153	1
77	82	5
45	49	1
119	153	3
46	132	2
31	31	57
50	53	3
85	86	12
63	63	20
148	155	7
148	149	27
49	153	9
77	103	2
40	40	59
4	38	4
87	116	1
26	27	25
55	55	36
49	70	5
69	70	13
112	119	1
85	115	1
15	35	1
141	157	6
111	120	2
61	68	1
97	141	2
69	136	2
97	97	31
73	74	6
88	92	10
82	97	3
128	152	4
80	127	3
152	153	16
39	42	2
128	139	3
110	111	24
25	28	4
64	64	29
70	71	23
38	140	1
50	153	1
135	137	12
48	51	5
52	85	1
147	147	68
80	119	6
52	54	15
142	146	5
94	96	9
106	107	24
151	152	5
52	88	2
30	31	10
6	10	2
125	126	11
16	18	2
37	49	2
105	106	9
25	39	6
0	33	2
89	91	12
24	24	53
129	130	26
54	97	2
143	143	18
108	150	2
20	22	6
79	88	2
49	52	1
21	115	4
45	65	3
40	107	2
4	143	1
17	19	2
14	48	12
142	147	9
25	26	15
22	33	2
85	136	3
88	91	4
86	91	2
44	72	3
44	44	84
117	119	2
146	149	4
124	139	6
4	5	10
13	68	1
64	108	3
95	104	2
17	116	3
17	18	13
123	125	5
119	121	7
30	50	3
23	24	17
62	139	1
78	78	56
154	156	5
125	127	7
94	144	1
106	143	2
14	15	11
3	49	1
37	53	1
1	43	1
108	109	22
20	21	28
16	27	11
96	102	2
13	32	8
151	157	7
76	117	2
108	120	1
141	143	14
21	41	9
127	140	4
92	152	1
34	41	5
65	65	33
0	32	3
75	100	1
5	72	2
131	138	11
77	147	3
35	36	10
9	40	2
47	111	5
97	98	13
41	55	1
26	29	6
31	38	1
85	88	3
10	48	8
2	3	11
3	39	3
16	35	6
118	140	1
144	154	9
102	104	2
9	21	3
66	67	14
67	140	1
77	105	3
117	156	5
123	135	2
11	87	2
108	119	3
67	68	23
136	150	1
36	38	3
50	52	8
116	118	3
143	152	3
107	113	1
72	81	4
49	57	7
107	110	5
109	140	5
104	127	4
152	156	7
11	116	3
21	23	6
7	51	2
72	92	3
32	36	2
54	105	2
116	119	6
18	120	3
24	25	9
25	36	6
65	72	5
56	121	1
10	25	3
18	50	3
115	118	12
28	30	3
138	154	4
56	56	21
111	135	3
21	32	7
34	36	16
92	139	3
50	70	2
131	146	6
87	107	4
111	112	31
84	104	2
104	121	3
99	100	13
70	93	4
33	34	9
54	109	2
86	88	4
99	122	2
14	21	10
137	138	12
96	100	4
45	133	3
0	5	3
71	79	2
106	139	3
140	141	19
122	145	1
29	159	2
87	105	3
136	142	4
89	93	3
82	124	5
37	40	4
0	27	1
135	144	4
105	109	7
29	148	2
68	71	7
84	113	3
123	124	28
134	135	15
109	142	2
54	101	5
3	35	3
83	122	3
79	80	6
105	107	5
116	117	24
82	126	3
72	72	30
116	151	7
118	147	5
114	140	2
145	155	9
130	138	2
150	151	14
57	57	15
43	139	1
126	131	2
14	16	11
150	155	7
40	125	1
120	122	8
136	147	2
38	44	2
42	45	3
21	53	2
32	51	2
69	69	27
131	132	11
127	139	2
75	91	1
5	24	3
48	52	3
13	18	4
142	148	2
119	120	9
76	93	3
84	84	37
139	140	15
20	25	3
100	102	5
43	48	6
44	47	2
83	96	1
97	157	1
13	38	2
27	47	3
102	103	10
48	108	4
139	151	1
50	55	3
127	138	4
109	121	2
68	152	4
30	140	5
71	72	3
107	114	7
66	71	7
128	131	6
153	154	13
93	104	1
29	129	3
105	112	2
39	142	2
64	131	2
56	62	6
31	42	1
55	120	2
38	55	3
86	119	2
79	105	3
50	154	3
7	135	1
33	110	3
47	130	1
9	31	6
90	102	3
148	152	1
32	43	5
78	118	1
49	84	3
88	140	1
29	104	1
42	43	17
71	148	10
75	84	2
11	14	1
8	16	3
80	117	1
79	144	7
12	30	7
18	90	2
147	149	2
124	138	2
24	51	2
109	112	12
38	50	2
46	48	7
136	146	2
87	88	9
77	83	1
25	29	5
45	47	4
42	85	5
26	75	3
93	97	1
136	154	1
111	113	5
95	150	1
28	131	4
15	28	3
79	82	5
31	34	5
0	4	3
7	11	5
14	20	3
88	115	2
8	41	1
94	157	4
31	68	2
79	127	3
134	146	2
6	82	3
67	70	8
78	133	1
45	66	1
25	51	3
92	95	4
48	71	1
51	54	7
56	57	5
10	18	2
41	82	3
33	42	6
2	131	1
70	123	6
77	114	2
16	64	1
146	154	7
149	152	2
113	114	7
47	98	3
144	148	2
113	127	3
31	49	3
113	119	5
112	122	5
53	96	2
26	39	10
127	152	2
15	34	2
48	70	3
11	30	3
90	112	9
141	154	7
116	122	2
137	147	1
112	131	3
67	78	2
57	69	2
75	98	3
100	107	3
64	85	2
22	32	4
28	32	4
34	145	2
18	21	4
127	128	10
31	56	2
32	75	2
66	70	2
24	26	6
126	127	7
136	141	2
9	151	3
3	5	2
9	11	13
28	39	5
61	71	1
137	141	1
8	48	1
46	73	1
3	94	2
123	126	2
8	11	5
32	111	5
77	81	4
109	131	2
37	134	7
2	4	6
81	105	4
81	89	2
118	135	3
49	150	3
55	56	8
125	147	2
75	77	6
10	11	6
51	53	10
150	152	2
124	133	4
40	43	2
71	146	4
7	96	1
86	89	5
96	129	4
39	43	1
108	134	1
54	156	1
46	131	4
112	125	3
1	148	2
135	138	3
154	155	9
101	148	2
109	111	4
25	41	2
21	22	18
29	97	1
117	124	3
153	156	1
125	157	2
36	69	3
22	47	1
8	24	3
83	111	1
49	54	3
56	66	1
100	111	2
11	18	1
62	68	4
116	158	1
70	153	2
134	136	1
1	53	3
24	46	2
45	96	1
102	130	2
81	86	4
147	153	6
80	113	6
104	106	3
64	99	1
55	117	4
136	143	1
143	148	2
155	158	5
86	87	10
123	132	1
110	129	3
87	89	4
116	152	5
33	35	5
63	97	2
2	150	3
1	133	1
12	27	3
25	47	3
158	159	7
49	109	4
71	121	2
120	145	3
113	115	3
97	122	1
92	148	1
69	144	6
86	109	3
34	37	4
35	75	1
80	100	3
93	95	6
30	154	4
66	68	2
103	122	3
9	124	3
46	134	3
87	102	1
0	67	2
1	156	6
57	61	3
48	54	3
45	46	11
67	77	2
95	97	12
11	16	10
17	21	1
72	76	3
131	134	10
118	156	5
120	124	3
32	112	2
136	137	4
149	150	10
13	22	5
130	148	2
28	34	4
19	22	4
17	36	2
18	47	4
7	20	1
86	110	3
14	70	2
111	114	8
4	52	2
13	23	4
55	64	1
76	82	1
90	97	4
120	138	1
114	150	3
122	136	3
117	155	2
70	122	5
26	55	3
113	123	2
31	48	2
79	96	2
100	101	9
94	123	1
3	19	2
131	133	9
18	151	4
141	148	3
18	26	3
31	43	1
21	38	1
64	137	3
141	158	2
89	96	1
41	43	1
20	117	2
23	29	4
65	123	1
125	131	2
62	103	1
2	5	1
37	45	6
48	53	4
124	144	3
72	108	2
8	51	2
31	46	1
0	6	2
78	81	3
86	121	4
28	50	2
20	41	8
2	64	1
91	107	1
147	156	3
82	139	5
46	51	1
66	72	2
104	119	2
24	118	4
108	135	1
72	73	1
38	111	4
107	143	1
91	115	4
22	27	1
46	104	8
51	108	4
106	138	3
118	138	2
99	155	3
142	153	1
9	131	1
81	157	5
149	156	4
10	16	3
5	99	1
126	140	4
48	111	2
133	139	1
144	149	2
55	101	3
35	56	2
7	32	2
123	127	1
39	44	1
94	98	9
77	118	1
23	85	1
132	135	1
145	153	5
90	92	2
89	108	1
103	134	3
16	40	1
120	131	3
82	83	5
14	26	1
13	19	7
126	145	2
7	14	2
25	135	1
54	57	2
9	56	2
113	122	2
80	83	2
134	155	1
96	103	3
135	145	5
134	152	5
134	139	1
82	105	1
78	147	1
11	137	2
80	107	3
48	64	1
120	148	6
94	152	5
88	112	3
86	116	4
22	25	5
103	139	2
29	35	1
142	144	1
31	37	3
30	36	2
117	121	1
112	156	5
48	55	2
12	15	7
32	45	3
49	51	4
34	128	1
8	61	5
126	142	1
82	85	6
117	125	2
35	45	6
77	146	4
117	148	2
144	153	2
125	140	8
78	82	5
106	113	1
5	150	1
77	148	4
0	69	1
11	90	2
15	42	3
2	7	2
8	56	6
98	155	7
95	133	2
21	24	3
112	118	9
43	132	1
22	34	1
49	56	1
68	78	3
94	103	2
140	155	1
124	128	1
49	136	1
48	104	1
76	81	1
81	96	1
101	102	2
48	116	1
16	55	1
136	144	1
47	56	3
152	157	3
24	54	4
114	117	5
95	106	2
121	156	2
83	85	5
78	83	2
20	44	1
13	16	2
68	88	1
84	127	2
47	50	1
11	21	5
122	134	1
42	139	2
17	92	1
114	127	3
96	123	2
25	151	3
12	40	2
37	111	3
56	68	3
102	128	1
133	156	3
85	122	3
101	151	4
4	71	2
152	154	1
30	117	1
54	131	3
142	151	2
139	154	2
7	30	1
127	150	3
114	138	4
68	117	3
16	19	3
69	134	1
112	140	2
91	114	1
71	122	3
108	110	2
119	152	3
104	138	1
112	114	3
25	27	7
83	125	5
52	61	2
106	123	3
12	23	1
15	46	2
75	105	3
69	145	1
25	45	1
34	38	1
119	126	3
43	83	2
26	36	2
54	133	6
95	130	1
31	35	3
23	133	1
5	25	1
121	155	5
24	29	2
36	149	2
112	121	1
37	51	3
67	83	1
118	148	1
35	139	1
123	149	3
107	145	1
21	155	1
79	85	1
31	54	2
39	112	1
31	33	2
54	111	1
11	88	1
14	49	1
84	147	1
29	31	4
32	139	1
107	127	3
46	135	1
25	32	2
69	83	3
123	141	5
71	88	3
87	93	3
12	26	1
89	109	3
96	142	7
120	125	5
65	105	1
78	132	2
54	55	6
106	140	2
11	24	1
117	123	1
23	26	5
3	18	2
32	137	1
5	129	2
52	96	4
70	89	1
75	150	2
144	152	3
75	130	2
16	34	3
65	73	1
130	145	4
57	144	3
102	137	1
120	151	1
20	27	3
106	120	3
109	113	1
3	149	3
38	52	1
16	38	2
125	135	2
43	45	3
64	102	1
36	47	2
17	31	1
111	156	1
83	90	1
30	137	1
47	54	2
96	130	3
47	71	2
83	95	7
142	158	1
106	155	5
42	157	4
39	49	1
110	112	4
109	114	1
15	32	7
11	17	1
39	70	1
63	72	2
65	103	2
51	57	3
78	80	3
95	153	2
117	139	2
42	106	1
85	91	3
135	139	1
69	85	1
4	31	3
112	117	1
26	30	1
5	107	1
104	132	3
121	125	1
80	91	1
17	127	1
53	108	2
73	139	1
19	21	3
9	49	4
68	79	4
11	35	2
82	96	4
74	75	2
42	104	2
51	154	1
45	87	3
52	66	2
85	126	2
106	141	5
12	139	3
92	129	1
103	158	4
91	116	1
151	156	1
150	154	2
115	130	4
75	83	3
47	131	2
93	142	2
108	118	1
1	6	1
16	46	3
139	155	2
64	120	1
57	77	1
127	134	3
48	57	1
2	24	1
65	133	1
72	118	2
102	108	2
120	140	1
99	135	2
112	144	1
5	7	3
143	147	4
46	49	1
107	112	5
76	100	2
3	110	1
76	118	1
0	2	2
77	110	3
84	111	5
23	157	2
52	136	3
130	151	1
36	127	3
69	124	1
66	106	1
110	113	2
0	25	1
145	149	1
12	38	1
113	140	1
20	38	2
109	122	1
115	134	1
66	97	1
95	122	4
14	71	3
81	127	4
23	51	4
11	37	1
93	98	2
117	151	3
57	152	3
68	149	1
45	48	1
3	17	2
89	102	2
18	52	2
2	36	4
4	101	1
103	143	2
45	134	4
109	120	1
75	76	6
85	98	4
36	101	3
42	44	1
135	152	1
45	55	1
94	131	1
47	49	2
84	90	2
124	126	6
18	64	1
77	116	3
21	158	1
50	131	1
80	122	2
24	47	1
110	130	1
65	127	2
92	126	2
11	13	1
96	141	3
108	113	1
10	13	2
78	121	1
153	157	1
81	118	5
88	90	2
92	121	1
104	124	1
64	146	1
77	115	1
62	136	1
38	42	2
66	89	1
77	80	1
13	43	2
1	143	2
89	113	2
150	153	2
95	141	1
146	152	3
55	156	1
75	128	1
93	152	3
116	120	4
67	89	3
86	94	5
91	159	3
51	76	1
110	118	1
57	71	3
7	18	1
40	105	1
121	127	2
35	37	2
2	76	1
93	123	1
67	112	5
54	56	2
85	96	2
71	137	1
6	138	2
38	114	2
54	121	1
46	56	3
57	70	4
50	119	2
103	110	1
70	72	3
123	133	2
50	109	1
118	126	1
53	94	2
47	51	2
23	25	1
93	100	1
22	31	1
32	34	3
3	23	2
138	149	2
104	133	1
40	137	1
17	20	3
148	153	1
110	116	1
27	33	1
10	12	1
21	48	3
95	105	1
62	70	2
73	150	1
63	68	1
22	36	1
17	41	1
25	44	1
75	118	1
26	140	3
25	30	2
90	114	4
28	57	1
124	127	1
117	147	3
95	137	1
13	48	3
143	146	2
20	84	1
6	140	1
46	105	4
146	148	3
72	136	1
49	71	2
3	38	3
88	117	1
69	71	2
72	158	1
108	156	1
98	105	3
68	124	1
81	100	1
145	148	3
29	62	1
129	148	1
140	148	2
138	152	2
61	97	1
2	120	2
78	150	2
77	126	2
112	155	2
25	107	1
3	24	2
108	122	2
3	46	1
86	90	2
84	106	3
45	124	3
8	34	1
122	135	1
85	110	2
77	101	1
129	132	1
136	139	2
17	37	1
12	17	2
31	144	1
138	142	4
13	128	1
11	26	1
36	110	1
107	156	1
7	41	1
22	30	1
1	95	2
121	136	2
152	155	3
31	117	1
39	143	2
150	156	3
78	101	5
129	134	2
39	45	2
15	25	3
95	148	1
13	30	3
75	135	1
98	147	3
103	132	1
93	128	4
28	156	1
96	148	3
103	146	1
16	67	1
114	135	1
37	133	2
122	127	2
127	132	1
9	39	2
125	130	1
2	34	1
19	43	1
21	31	1
10	36	2
119	123	1
4	49	2
118	151	3
8	35	2
108	155	2
85	156	1
12	14	1
7	9	1
4	51	3
55	72	2
71	97	1
68	112	1
29	55	4
51	139	2
141	152	4
17	102	1
12	116	1
94	99	1
115	129	2
35	89	1
4	148	1
4	93	1
65	70	1
6	11	3
93	96	1
44	45	6
107	151	1
126	141	3
7	55	1
65	132	1
111	118	1
120	132	1
108	145	1
94	142	1
118	146	2
42	54	1
53	88	2
115	135	1
80	101	1
121	126	2
15	21	2
111	131	1
11	40	7
88	155	2
84	112	1
11	64	2
54	96	1
89	141	1
10	56	1
105	116	1
53	92	1
128	138	1
48	87	1
122	125	2
133	141	1
102	115	2
47	136	1
110	147	1
83	87	1
103	105	1
11	22	1
11	23	1
40	80	1
91	93	1
63	69	2
89	92	1
145	152	1
122	126	1
24	27	2
61	61	1
2	9	2
95	144	1
119	137	1
83	97	1
47	133	1
9	65	1
28	104	2
26	43	1
69	84	2
87	140	2
23	40	1
13	138	1
107	149	1
27	46	1
63	67	1
22	140	1
105	114	2
141	146	1
16	37	1
62	69	2
66	154	1
13	15	1
120	141	1
2	158	2
21	40	1
121	137	1
0	3	1
17	54	1
153	155	2
13	20	1
103	119	1
63	146	1
6	47	1
149	155	1
22	158	1
7	10	1
77	99	1
72	107	1
43	47	1
76	146	1
108	116	1
21	121	2
120	147	1
117	141	1
65	97	1
96	131	1
26	114	1
68	146	2
157	159	1
51	131	1
110	114	3
108	141	1
145	154	2
138	156	1
14	17	1
50	54	1
92	133	1
83	110	3
121	133	2
142	154	2
26	54	1
7	12	1
4	36	1
2	105	1
8	20	1
18	22	1
23	47	1
79	145	1
80	105	1
112	157	1
100	104	1
17	23	1
4	25	1
79	110	1
25	126	1
10	32	1
84	110	1
79	81	1
42	130	1
55	155	2
14	32	1
127	137	2
73	151	1
70	83	1
25	113	1
49	67	1
123	139	1
122	146	1
29	108	1
14	67	2
93	133	1
31	110	1
98	100	1
31	69	1
12	39	1
67	71	1
42	96	1
68	141	1
92	96	1
41	121	1
62	153	1
23	41	1
12	56	1
142	152	1
92	102	1
29	109	3
135	149	1
7	52	1
95	127	1
5	32	2
85	97	1
120	149	1
42	55	1
99	115	1
81	117	1
68	153	1
55	57	1
4	66	1
26	139	1
18	62	1
88	141	1
104	123	1
111	152	1
67	122	1
21	137	1
81	126	1
116	123	1
86	92	1
27	30	1
48	89	1
53	103	1
102	105	1
155	157	1
52	154	1
36	55	1
106	145	1
77	108	1
97	142	1
107	116	1
101	150	1
54	63	1
138	148	1
30	44	2
39	106	1
37	55	1
81	144	1
137	139	1
79	92	1
75	114	1
87	136	1
46	71	1
46	148	1
48	103	1
112	145	1
103	151	1
13	26	1
7	26	1
116	139	1
115	123	1
51	130	1
102	139	1
74	99	1
138	155	1
