41	54	4
40	40	8
8	8	2
55	55	14
164	165	3
171	172	6
94	103	5
160	183	3
82	86	3
29	29	13
10	10	7
148	149	3
6	6	10
163	163	10
129	129	20
153	153	9
97	108	4
186	186	5
97	97	13
33	35	5
162	163	5
152	152	11
157	157	2
85	85	10
54	54	9
170	170	7
6	37	1
27	27	9
106	164	3
128	128	8
130	130	11
132	138	5
9	28	8
53	54	2
22	22	3
154	154	9
61	71	3
84	84	7
34	116	10
35	40	3
94	94	9
96	96	7
77	77	13
119	120	7
115	115	12
30	31	6
166	166	8
101	101	14
92	94	5
80	94	2
62	64	3
171	180	5
37	37	5
45	45	7
151	151	28
83	98	8
45	47	2
145	146	3
160	161	4
181	181	6
179	179	7
57	57	6
19	20	7
76	82	3
137	149	1
41	41	9
17	18	2
123	124	4
126	126	12
67	67	7
174	174	7
117	117	8
24	24	6
139	139	7
91	92	5
76	76	8
125	125	4
141	165	2
134	134	7
156	156	12
97	105	2
147	147	7
125	126	8
130	138	2
34	34	3
14	14	12
60	65	5
9	9	2
127	128	5
80	80	6
79	79	5
161	162	9
185	186	5
145	163	5
105	105	6
56	56	15
103	103	8
48	48	8
24	25	11
118	118	11
43	43	6
81	104	2
113	116	2
30	30	9
52	52	7
42	54	5
113	113	12
84	99	1
35	35	4
15	16	11
70	70	3
95	95	9
131	147	1
23	24	3
12	12	1
14	29	6
61	61	9
112	112	13
168	168	6
190	190	4
20	24	7
10	11	7
106	106	4
127	127	4
65	65	3
31	31	6
56	106	2
11	27	4
60	61	1
114	114	4
44	44	11
35	101	2
137	144	5
141	141	13
53	60	1
15	15	9
161	167	2
62	62	6
85	93	5
144	147	5
172	172	16
68	68	5
184	187	4
150	150	12
53	61	2
144	144	8
24	36	4
90	90	18
27	28	4
112	113	4
136	143	4
47	47	7
167	169	4
123	123	3
14	21	4
21	21	7
84	85	3
111	112	8
58	60	5
65	66	9
93	93	7
59	63	2
102	103	3
138	138	25
53	55	5
48	64	2
160	160	9
32	32	8
66	66	4
43	47	2
58	65	3
1	6	2
148	148	9
7	7	12
35	36	1
102	102	7
5	21	1
120	120	5
3	3	10
165	165	2
15	22	2
19	19	12
18	26	4
84	152	3
122	122	12
29	30	3
63	69	5
59	70	2
65	109	3
183	183	4
108	108	4
100	100	6
71	73	4
91	91	3
73	74	7
130	131	7
128	153	3
64	64	6
58	59	2
27	31	3
158	158	3
81	83	2
107	158	4
135	145	1
133	133	11
164	164	13
95	99	2
104	104	3
15	17	2
160	170	5
149	149	11
167	167	2
42	42	1
13	13	8
134	156	6
0	5	1
99	104	2
124	124	7
116	116	3
184	184	8
89	89	4
102	132	2
131	132	5
82	82	5
117	146	3
36	36	6
83	83	3
38	38	10
11	12	3
118	119	1
113	115	2
84	87	1
81	81	1
156	157	6
2	2	7
160	162	2
136	136	8
28	28	14
110	110	2
140	140	6
87	87	9
74	85	3
34	35	3
77	79	3
142	142	7
27	29	2
131	131	4
53	53	3
71	71	4
113	151	2
1	1	7
10	18	2
107	107	3
78	78	3
121	121	1
73	73	9
172	178	2
23	23	3
58	58	4
22	27	1
187	188	3
162	162	15
36	44	3
88	89	4
39	39	6
161	183	5
27	35	3
167	168	3
86	86	8
126	127	2
10	12	5
16	16	5
1	2	5
45	46	4
141	177	1
20	20	3
90	92	2
33	33	1
117	149	2
119	142	3
78	87	5
20	21	1
4	8	1
178	178	4
155	155	7
28	29	2
59	59	5
40	41	1
186	187	1
63	63	7
155	156	5
101	116	3
96	108	2
114	115	9
17	17	6
46	46	10
93	94	1
169	169	4
59	60	4
155	182	2
144	145	5
24	102	1
41	48	2
159	178	1
88	88	3
68	71	1
133	137	7
0	0	2
179	180	5
155	181	7
154	156	2
18	18	7
84	104	4
11	11	8
134	135	3
165	170	2
25	26	2
96	111	1
53	70	1
67	68	1
137	151	2
143	143	5
16	17	2
19	31	1
175	175	2
139	140	2
86	108	1
56	87	2
115	117	5
99	100	2
67	69	1
121	146	3
136	137	1
143	144	2
54	55	3
157	158	1
24	115	4
23	115	6
110	111	1
23	32	1
140	141	3
161	161	2
153	170	1
98	98	2
81	132	3
156	181	3
122	123	1
75	75	1
144	149	2
189	190	4
168	169	1
99	99	1
55	105	1
52	53	4
14	114	1
62	63	1
154	155	3
111	111	1
88	108	2
6	7	1
101	132	2
11	28	3
33	34	1
82	100	2
114	135	1
43	46	1
55	104	1
28	30	2
126	128	1
97	99	2
124	153	1
68	89	2
133	134	2
57	70	1
4	39	1
26	27	1
145	145	1
119	147	4
44	64	1
75	76	3
106	107	1
140	153	1
147	149	1
14	30	1
14	26	2
179	181	1
125	154	5
64	65	2
137	146	1
19	72	1
68	81	1
180	180	2
19	21	1
124	129	4
56	105	1
57	72	1
69	71	1
33	38	1
83	97	1
80	100	1
147	148	1
37	47	1
66	105	3
180	190	3
173	174	2
18	22	2
20	132	1
183	184	1
135	136	1
46	47	1
21	27	2
72	82	2
132	134	1
14	16	1
120	141	1
134	137	2
109	111	1
75	84	1
0	1	1
14	15	3
5	5	1
188	189	1
69	70	2
66	164	1
119	119	1
25	25	2
124	152	1
81	82	1
85	108	1
14	24	1
13	120	1
123	129	1
185	185	1
138	151	1
115	116	1
25	31	1
125	155	1
181	182	2
73	98	1
96	97	3
4	5	2
67	71	1
119	152	2
38	47	1
116	117	1
152	153	1
142	164	1
102	150	1
70	71	1
74	74	2
158	159	1
66	68	1
72	84	2
84	98	2
74	75	1
83	85	2
187	187	1
101	102	1
157	161	1
89	108	1
64	98	1
60	69	1
95	98	1
95	104	1
98	107	1
33	46	1
55	56	1
141	152	1
137	138	1
61	62	1
145	147	1
82	98	1
177	177	1
189	189	1
163	166	1
188	188	1
11	17	1
8	60	1
84	131	1
60	60	2
73	80	1
