44	45	12
180	206	3
79	85	7
84	84	11
10	10	31
109	109	34
170	171	1
182	182	27
39	39	23
17	19	2
29	29	20
178	179	5
192	200	3
180	180	24
186	211	9
66	66	8
168	171	2
55	55	30
70	70	11
172	173	14
36	38	1
242	243	2
18	18	15
32	36	3
202	202	20
194	196	1
23	23	15
150	150	45
77	214	4
195	195	21
53	53	23
245	245	14
220	220	10
41	41	21
239	239	9
201	201	32
168	168	26
244	244	41
52	52	19
49	49	16
210	241	4
186	189	6
210	210	14
155	156	2
110	110	34
94	94	35
191	191	12
111	245	2
14	15	4
153	156	2
92	92	16
238	239	5
209	209	28
188	200	3
6	7	8
240	240	29
61	62	8
81	81	7
106	106	26
162	189	4
103	103	14
218	218	8
37	37	17
246	246	32
61	61	11
193	193	18
236	237	8
184	184	15
204	204	24
67	67	12
43	44	7
246	248	5
177	223	3
93	93	17
104	104	4
183	183	26
167	167	28
69	69	16
156	156	40
82	83	1
97	97	19
158	188	2
6	12	5
209	211	5
21	21	28
73	73	11
178	178	12
58	58	21
5	5	20
233	233	10
153	153	32
107	107	15
95	95	21
19	19	22
230	230	23
216	219	3
170	177	2
229	230	3
117	117	22
172	172	16
4	4	16
39	62	3
247	247	26
60	60	7
36	36	23
40	43	3
35	35	15
175	175	27
102	103	1
223	223	32
167	205	4
117	244	1
157	157	22
118	119	3
203	203	36
43	203	1
5	6	5
115	153	4
29	30	1
64	71	5
225	225	12
49	112	4
228	229	1
174	174	16
95	96	5
100	100	10
181	227	4
24	24	17
90	90	19
213	213	27
22	22	15
154	154	37
78	78	17
169	170	1
170	170	19
177	211	2
159	160	12
114	118	5
71	72	4
152	170	3
159	159	22
162	163	2
222	222	13
116	206	2
37	39	3
175	177	5
4	5	8
66	67	7
243	244	8
106	120	5
156	162	3
54	54	21
152	152	25
33	33	28
234	235	6
119	119	34
206	219	7
218	219	7
85	85	28
213	243	1
149	150	3
107	108	12
43	43	29
64	64	18
228	228	3
16	16	28
77	77	11
145	145	18
35	36	5
192	192	12
115	116	5
20	20	15
200	200	13
2	2	9
37	38	5
219	220	8
205	208	8
216	216	24
195	196	6
99	100	1
211	211	20
3	3	6
235	235	29
213	219	5
208	208	31
71	83	3
40	41	7
68	69	9
147	147	8
8	10	3
212	212	32
168	204	1
99	99	14
160	161	5
248	248	16
62	63	4
227	227	6
218	221	1
152	153	7
12	12	30
217	217	11
69	70	7
232	232	19
52	53	10
28	28	30
91	101	2
88	88	20
209	233	8
48	48	17
90	177	2
185	187	2
188	190	2
68	216	3
234	234	37
229	229	27
28	153	2
98	98	12
34	34	24
205	234	2
70	79	2
177	178	3
199	200	8
111	112	6
26	234	3
208	231	2
114	114	23
194	203	4
238	238	9
33	36	7
176	181	3
115	240	2
3	11	5
84	86	1
42	42	35
230	231	9
187	187	15
25	25	10
40	42	4
198	198	19
186	186	14
88	169	4
191	192	12
4	47	8
9	9	22
184	239	2
221	221	23
205	205	32
112	113	5
50	67	4
200	201	4
101	102	4
218	239	1
21	28	3
68	68	20
17	17	7
241	242	6
56	56	16
16	23	5
86	86	24
169	173	4
112	112	28
75	75	6
37	177	7
187	188	9
11	11	23
60	64	2
15	16	2
176	177	13
44	44	10
165	165	14
29	32	4
175	235	1
78	106	6
94	145	1
188	188	5
230	234	2
30	30	16
171	171	16
238	241	5
80	81	8
71	73	6
206	207	5
169	169	29
247	248	8
219	219	16
111	111	11
185	185	29
114	237	3
155	155	30
48	50	4
205	212	6
10	39	3
212	213	8
90	106	3
74	74	7
104	105	7
241	241	13
76	92	3
115	115	12
83	83	6
175	183	4
177	177	13
165	172	1
190	190	24
164	167	3
213	216	2
25	26	8
110	167	3
152	169	2
221	222	15
194	224	1
59	64	2
15	15	31
49	50	4
5	37	2
26	26	20
93	97	3
57	58	6
161	169	4
162	162	26
21	46	3
24	25	2
39	40	7
186	199	2
206	206	18
193	216	2
181	181	25
239	243	4
116	117	9
112	115	1
242	242	6
180	200	1
114	115	8
226	226	13
149	149	6
207	207	24
231	231	14
113	114	7
187	193	3
118	118	15
72	79	3
213	214	2
210	213	1
82	86	2
89	94	2
90	108	4
108	152	3
192	194	5
175	178	4
35	43	1
25	46	3
176	227	2
218	233	3
190	199	3
199	199	17
19	181	1
30	34	4
43	51	3
108	108	16
38	39	5
12	17	1
146	146	9
237	238	1
19	25	5
62	62	19
63	63	8
196	196	18
174	223	2
101	101	18
71	218	5
180	226	1
81	82	3
22	23	5
7	12	4
236	236	25
7	10	3
181	198	3
180	203	2
65	65	16
184	235	2
47	53	2
194	194	13
32	32	16
38	38	16
68	81	1
40	40	24
183	214	7
65	117	3
5	9	3
79	81	7
189	190	19
55	57	4
66	76	1
179	179	31
86	88	3
91	247	3
166	166	7
203	204	5
51	58	1
1	1	23
6	6	15
36	80	2
72	116	4
163	163	3
144	144	3
173	173	15
189	189	13
144	206	3
169	232	4
45	45	14
93	94	7
78	110	1
168	169	6
194	195	9
10	179	4
60	61	3
82	84	1
113	113	16
89	90	8
164	165	6
77	210	1
205	211	4
190	191	9
178	225	1
171	172	4
245	246	6
208	234	1
166	176	4
184	188	3
57	57	10
219	221	1
31	31	21
153	154	10
55	58	2
88	89	3
42	43	3
195	215	6
73	74	4
52	113	2
164	164	16
218	220	1
116	116	17
183	222	3
10	11	2
186	205	2
226	227	7
211	248	2
33	197	3
53	54	7
184	185	6
42	78	1
153	245	1
69	76	8
151	151	39
214	214	15
93	109	2
193	194	7
47	220	4
47	47	9
146	150	5
233	235	4
96	96	4
27	27	12
72	73	5
58	60	5
91	91	11
30	192	2
3	206	5
207	208	7
190	192	13
215	225	2
89	89	15
2	10	2
101	119	2
217	241	1
6	13	3
83	107	1
232	233	4
7	7	30
189	195	4
79	79	8
46	46	19
155	202	1
19	37	2
157	162	2
194	234	3
169	192	1
48	62	2
1	2	2
211	215	4
87	87	16
162	242	3
197	200	2
58	82	1
8	8	19
31	34	5
97	98	3
51	52	3
90	91	5
16	209	1
169	238	2
33	42	1
59	59	15
71	116	1
45	228	1
43	45	9
10	221	3
215	217	1
76	77	6
14	14	8
42	73	4
238	243	1
7	8	4
12	79	2
162	169	4
172	239	1
20	21	3
161	228	2
72	74	1
91	103	4
9	54	2
187	198	2
12	201	1
85	93	3
106	107	6
11	12	7
21	23	1
94	101	3
75	76	4
28	29	3
47	51	7
33	78	2
55	64	4
61	144	2
87	88	8
163	166	2
50	50	12
181	191	1
14	99	1
73	220	3
50	58	9
76	76	14
100	144	3
161	196	1
4	7	2
153	157	4
77	116	1
105	111	7
95	104	4
157	158	4
84	85	1
18	19	2
160	160	31
157	177	1
8	185	2
231	247	3
176	176	10
247	249	5
110	111	15
36	46	2
165	166	5
210	211	4
54	87	2
104	106	5
29	220	1
154	155	7
30	31	1
158	158	5
80	80	9
240	241	3
33	35	3
222	223	6
110	113	1
58	102	2
116	207	2
207	233	4
87	119	1
5	33	2
191	224	1
52	115	2
97	101	2
217	222	3
50	210	1
109	120	2
112	170	1
45	46	4
40	89	3
211	237	1
12	38	3
102	102	2
36	37	4
224	225	1
82	82	12
154	167	1
239	246	2
184	205	3
181	182	2
244	246	3
14	38	3
197	198	6
146	147	3
63	64	3
182	226	2
217	221	2
175	243	3
186	188	4
176	247	3
5	13	4
158	167	1
6	43	2
85	86	4
83	103	2
10	40	5
71	75	1
24	27	1
54	55	1
161	161	8
86	89	2
69	71	1
212	239	4
233	234	5
28	98	4
198	209	2
105	105	12
163	164	3
46	47	1
19	66	3
217	218	3
180	181	2
20	31	5
168	173	1
51	59	1
33	203	1
56	57	3
173	178	2
79	196	2
81	161	3
47	48	4
12	15	1
235	236	2
4	11	2
153	229	1
41	45	1
224	236	2
177	248	6
192	199	2
15	17	1
195	197	4
32	214	2
215	240	1
97	99	4
184	208	4
68	211	1
216	217	7
189	198	2
86	87	1
172	245	3
213	218	2
190	195	4
95	213	1
189	217	2
9	10	5
165	180	1
68	88	6
230	232	1
84	246	1
218	222	1
185	186	4
237	237	10
189	237	1
225	234	3
94	95	1
8	9	5
2	3	5
167	203	2
211	219	4
23	54	2
186	206	2
174	175	4
80	83	2
188	192	1
41	46	2
52	55	1
115	118	4
165	193	2
155	168	3
227	228	2
167	247	2
35	38	1
192	196	1
58	63	2
27	28	1
164	171	1
22	28	1
5	18	2
201	226	2
116	173	1
4	14	3
7	155	1
25	109	1
69	74	1
231	232	7
37	50	3
209	245	1
33	34	4
33	210	1
25	65	2
5	36	4
203	208	1
105	106	2
26	27	3
191	221	1
77	78	1
173	243	1
241	243	2
68	70	5
201	228	1
166	239	5
163	193	1
71	71	6
152	157	2
119	120	4
208	238	2
22	24	4
34	36	4
105	107	2
236	238	1
175	179	1
23	47	3
30	37	2
171	225	1
44	221	1
10	37	4
156	163	1
90	99	1
166	167	4
179	197	1
166	201	1
41	67	1
57	59	1
180	183	3
188	189	2
24	113	1
149	155	1
213	225	1
187	189	2
208	229	2
26	201	3
226	231	1
215	231	1
48	118	1
27	154	3
203	205	2
180	231	3
85	222	3
206	224	1
209	236	2
12	37	4
65	70	1
51	51	8
233	247	3
184	186	7
166	169	1
74	101	3
220	226	2
63	76	2
14	30	1
3	30	2
71	80	2
164	170	3
78	103	3
92	100	2
40	51	3
52	203	2
189	192	5
55	56	4
208	247	4
21	67	4
50	63	2
109	236	1
173	174	4
241	245	1
155	201	1
215	216	3
167	236	3
152	212	2
94	246	2
196	197	3
120	157	4
181	244	2
11	245	1
153	165	1
15	56	1
68	112	2
188	232	4
73	121	1
109	218	3
73	98	2
173	220	2
177	183	1
109	169	1
239	240	5
0	1	1
58	59	6
224	224	14
92	103	2
34	35	5
93	173	1
203	230	3
48	119	1
185	234	2
9	46	3
215	215	6
71	77	1
183	190	4
120	145	1
204	206	1
154	156	1
23	62	1
17	18	2
62	112	2
28	33	2
43	112	1
160	182	2
80	82	3
168	172	1
11	23	1
38	45	2
87	101	2
210	240	1
56	85	2
34	53	3
212	219	1
208	228	1
57	60	1
175	176	2
200	229	1
198	199	1
144	203	1
35	60	3
78	196	2
60	63	2
49	118	2
65	66	2
246	247	5
215	241	3
150	156	1
184	246	1
207	209	1
165	241	1
15	19	1
208	225	1
163	216	3
142	142	1
28	43	1
180	244	1
6	8	1
31	204	1
171	247	4
211	241	3
190	237	2
29	59	1
20	22	1
157	165	2
197	197	2
179	226	1
212	237	3
216	218	1
155	190	1
79	80	7
163	167	2
204	205	5
188	193	1
31	47	1
68	72	2
41	43	2
40	90	1
87	89	2
211	212	1
37	67	1
111	115	1
199	234	1
155	226	1
165	179	1
146	162	2
153	227	1
96	99	2
169	174	2
212	244	1
172	232	1
31	156	1
0	10	1
84	245	3
12	33	2
120	120	2
244	245	1
72	77	1
100	113	2
77	80	1
15	29	1
92	200	1
157	196	1
64	67	2
1	52	2
145	150	1
190	194	1
212	216	1
205	206	1
202	203	4
91	92	2
15	33	2
183	184	2
5	57	2
54	64	1
201	202	2
153	168	1
96	165	3
182	186	2
224	226	4
80	86	2
30	36	1
169	175	1
197	233	1
72	72	1
182	206	1
62	66	1
47	64	1
87	211	2
156	168	1
29	36	1
15	38	3
51	64	1
243	243	3
18	37	1
59	60	1
106	114	2
152	174	1
0	23	1
159	170	1
179	209	1
101	120	2
6	15	1
99	101	2
7	40	2
170	179	1
195	233	2
173	234	2
34	101	1
184	245	1
192	208	1
153	169	2
182	183	2
31	33	3
225	226	2
161	245	2
187	225	1
206	226	2
29	33	1
42	44	1
91	106	1
40	66	2
69	115	1
18	29	2
174	186	2
50	61	2
7	43	1
55	62	1
152	225	1
55	87	1
153	202	1
181	192	1
29	31	2
16	228	2
110	245	2
215	243	1
166	184	3
241	248	1
8	11	1
6	23	1
40	189	2
215	234	2
20	223	1
94	120	1
35	37	2
78	79	2
64	85	1
190	200	1
216	224	1
60	72	2
77	104	2
153	179	1
179	180	2
226	235	1
74	89	2
60	79	1
30	35	1
170	182	1
101	103	1
101	113	1
219	222	1
31	32	2
105	112	1
59	74	1
166	183	1
181	232	1
96	97	1
187	209	1
201	205	1
226	233	1
217	219	1
231	237	1
12	19	1
144	168	1
83	84	1
196	247	3
90	159	2
23	24	1
150	151	1
5	246	1
227	229	1
149	151	1
59	78	1
15	145	1
215	223	1
220	223	1
154	202	1
187	191	1
89	105	1
211	218	1
238	247	2
36	168	2
221	236	1
106	111	1
158	214	1
28	174	1
92	95	1
234	248	1
182	190	1
68	111	1
13	13	1
150	227	1
56	62	1
95	102	1
71	81	1
182	195	1
116	120	1
120	154	1
68	78	1
48	49	1
58	61	1
42	80	1
