78	78	4
6	6	12
25	25	7
38	39	6
44	70	1
77	77	5
81	81	2
82	82	10
44	45	2
50	50	32
21	22	4
9	9	6
31	31	2
33	33	4
71	71	7
28	30	3
104	105	6
39	40	4
96	107	1
41	41	11
117	118	13
46	49	2
63	65	3
47	85	1
106	110	1
90	90	17
16	16	7
31	39	5
68	69	3
110	120	3
19	21	11
41	43	6
112	112	10
32	32	8
104	104	10
50	51	5
124	124	7
15	15	19
54	80	2
48	48	16
23	24	8
73	73	8
1	10	3
98	98	9
110	111	8
119	119	15
25	90	2
0	9	2
88	89	2
123	123	6
113	113	9
55	55	13
43	43	10
84	85	9
1	1	18
47	48	1
64	65	4
121	122	2
131	132	6
7	8	4
85	85	13
76	76	11
31	48	2
51	64	3
63	63	4
57	57	15
53	53	10
60	60	9
67	67	10
13	13	11
42	42	7
51	51	16
39	39	9
24	29	1
86	86	10
82	83	4
99	100	4
27	94	1
108	108	11
91	91	7
44	44	15
14	14	10
54	70	2
44	55	4
49	54	4
47	47	18
102	102	24
66	66	5
69	69	6
5	7	3
123	124	3
89	90	1
7	12	6
101	102	2
54	55	3
86	87	5
126	126	13
11	11	12
117	119	2
126	128	5
131	131	6
132	132	19
111	112	8
73	74	4
68	68	10
7	57	1
129	130	8
25	29	1
107	107	11
106	121	1
96	98	1
125	125	9
59	59	5
70	70	6
89	89	5
101	101	8
97	97	9
114	114	7
91	92	12
10	11	5
114	120	2
130	130	9
12	12	14
102	125	3
94	94	7
40	40	9
122	122	11
25	26	2
49	49	19
3	5	2
99	115	4
100	100	10
112	113	7
10	10	8
57	58	3
124	132	2
40	71	1
117	117	6
27	70	3
66	68	2
93	93	9
46	55	2
110	110	9
24	24	6
109	125	3
30	30	6
2	8	4
120	120	9
2	5	2
95	95	7
80	80	7
76	77	3
128	129	4
49	58	1
116	117	3
52	53	6
111	111	5
115	116	4
29	30	8
116	116	3
19	25	6
105	105	16
62	63	2
128	128	8
23	23	5
124	125	3
49	50	5
2	2	4
133	133	5
0	1	7
92	92	1
127	127	3
121	121	16
8	8	11
1	62	2
58	59	4
26	26	22
97	98	6
46	46	14
3	3	6
106	108	1
15	16	5
64	64	3
45	45	11
88	90	2
118	118	6
121	123	3
34	38	4
69	70	6
19	19	5
72	73	2
106	106	3
120	121	3
61	61	4
50	52	7
54	54	11
48	49	5
22	22	2
5	5	4
56	56	4
90	91	3
103	103	5
9	10	3
95	96	4
99	99	11
83	85	3
41	42	2
25	32	2
77	80	3
113	121	3
94	96	2
7	7	17
79	79	6
74	75	5
96	96	12
60	63	1
115	115	7
109	109	8
103	104	1
130	131	2
59	62	5
2	61	2
100	105	2
27	27	3
18	18	3
79	80	4
13	14	6
118	119	6
88	88	13
80	81	3
14	16	2
65	66	2
46	47	6
84	84	2
58	58	3
19	20	5
16	17	4
61	62	2
107	110	2
12	13	1
114	116	3
74	74	4
49	84	3
8	12	1
2	3	1
0	0	3
104	122	1
74	78	1
48	52	1
4	4	1
8	9	2
109	131	3
75	85	2
78	79	5
58	63	1
69	80	2
98	99	4
20	21	1
31	47	1
101	108	1
26	91	1
72	85	1
70	71	2
1	19	1
42	43	5
105	106	3
31	32	4
67	69	3
32	34	1
97	115	1
77	78	5
24	30	1
45	46	5
72	72	3
125	130	6
44	72	1
102	103	8
38	41	1
43	46	2
65	71	2
17	17	5
24	60	3
81	85	3
1	5	1
1	57	2
106	107	5
5	8	2
105	121	2
56	57	1
52	52	5
51	52	2
39	101	1
56	63	1
50	88	2
13	18	3
125	126	1
89	109	1
28	28	6
126	127	5
87	88	4
64	68	2
3	4	3
16	23	2
27	46	1
105	120	2
4	5	2
21	21	6
18	19	2
87	87	3
38	43	2
85	87	1
43	44	6
77	98	2
26	27	1
46	54	1
29	45	2
67	74	1
111	123	1
105	127	1
27	28	5
122	123	2
79	81	2
94	95	4
22	23	1
104	112	1
86	92	1
47	53	1
10	53	1
20	20	3
14	21	1
27	29	1
53	54	3
47	51	3
31	33	1
33	39	1
75	75	3
93	94	3
85	86	1
38	38	1
71	72	1
92	94	1
107	109	1
65	65	1
29	31	1
83	83	2
115	118	1
41	80	1
27	32	1
100	101	1
44	71	1
47	54	2
113	114	1
33	34	1
99	108	3
31	34	1
101	129	1
6	13	1
2	21	2
109	110	1
66	67	1
9	12	1
85	92	1
54	69	1
1	2	1
21	89	1
55	67	1
104	121	1
68	77	1
15	55	1
26	32	1
75	84	2
52	122	1
67	68	1
28	61	1
55	63	1
24	25	2
59	61	1
127	128	1
56	62	1
69	110	1
