11	130	6
5	11	1
26	26	2
21	25	1
29	29	4
53	53	2
117	117	12
126	126	11
83	83	2
122	123	1
59	59	7
40	40	9
121	121	5
111	113	2
2	3	2
105	105	12
20	21	10
113	125	4
99	103	4
135	135	7
57	57	4
0	0	4
22	24	2
132	132	10
100	100	5
39	40	2
55	56	2
141	141	7
96	96	5
120	122	4
126	127	4
94	94	8
134	138	1
32	33	3
20	20	2
14	14	3
78	102	2
129	129	2
54	54	4
41	41	6
109	109	2
34	35	1
125	125	5
13	26	1
133	133	10
142	142	8
24	102	2
128	128	9
92	93	1
35	35	8
116	119	3
137	139	2
113	113	2
48	48	1
70	70	4
54	74	2
64	64	2
9	9	2
122	138	1
98	98	7
115	119	5
124	124	4
139	141	1
84	85	2
8	8	2
106	106	7
95	105	1
105	106	5
103	103	4
31	31	5
61	61	4
32	32	5
74	74	4
71	71	5
81	81	4
43	83	2
3	21	1
50	52	1
136	142	1
114	114	9
21	119	2
136	137	2
43	43	3
136	136	4
8	15	1
95	95	5
50	56	1
27	27	6
144	144	3
17	17	3
99	99	3
132	133	4
1	37	5
70	72	4
120	120	10
26	31	4
134	135	3
10	11	1
88	88	3
134	134	3
82	132	3
29	145	1
121	122	2
76	76	2
42	87	2
69	70	6
119	119	3
14	15	5
83	85	1
53	74	1
16	16	4
3	6	2
103	104	1
136	138	4
22	22	6
3	39	1
42	48	1
2	2	9
22	48	1
91	91	2
37	39	4
123	123	5
1	39	3
104	104	2
24	30	2
21	118	3
63	63	3
4	12	2
80	80	3
69	85	1
101	103	1
79	79	2
122	124	2
47	71	2
0	53	3
51	79	1
93	93	7
19	25	1
38	38	3
33	57	2
131	131	7
28	28	6
51	51	3
115	115	2
73	73	1
94	95	4
114	115	1
138	139	3
20	118	4
140	140	6
72	97	2
138	138	3
24	24	2
127	127	8
42	94	1
86	134	3
130	130	3
99	100	4
101	145	1
33	33	1
91	92	5
115	117	1
74	79	1
62	63	1
112	112	2
63	64	2
85	85	4
55	55	4
53	98	1
78	78	2
72	72	1
27	29	2
21	21	5
102	144	1
116	116	3
35	65	2
49	95	1
43	92	2
20	24	2
101	102	3
81	118	1
26	118	1
139	139	4
87	87	6
129	130	1
47	47	1
5	5	2
58	58	2
72	93	4
72	98	1
52	92	1
42	91	4
107	107	4
25	25	3
99	113	2
26	41	1
49	49	3
21	22	1
71	72	1
4	43	1
100	126	1
137	137	2
67	67	1
120	121	2
23	23	2
104	115	2
34	65	1
57	58	2
3	26	1
112	114	2
34	34	1
82	82	2
146	146	1
108	108	3
1	20	1
27	28	2
33	74	1
50	72	1
88	120	1
8	11	1
34	38	2
37	37	4
79	80	1
5	43	1
107	108	2
0	131	2
1	4	1
52	74	1
32	111	1
64	65	1
5	33	1
69	87	1
31	32	1
131	132	2
62	62	4
18	18	1
17	120	1
9	27	1
66	67	1
128	129	2
96	97	1
6	33	1
58	59	1
104	105	1
118	118	1
128	130	1
110	110	1
70	92	2
39	39	1
113	114	1
35	36	1
18	98	1
57	61	1
75	75	1
6	37	1
101	101	1
8	12	1
10	10	1
3	3	1
89	89	1
65	66	1
111	112	1
36	36	1
23	28	1
93	94	1
52	52	1
56	56	1
61	68	1
9	11	1
50	50	1
37	38	1
133	137	1
53	82	1
15	15	1
91	100	1
89	130	1
