72	142	4
171	173	4
120	120	8
78	114	1
40	40	5
29	29	5
136	136	9
96	99	2
39	47	2
147	148	3
53	73	3
180	181	3
91	93	5
59	60	4
165	166	3
44	44	1
79	79	3
65	82	4
18	74	4
17	17	7
118	118	2
162	168	4
80	97	2
74	104	1
133	133	2
138	138	3
14	15	3
87	88	3
98	115	1
188	188	14
157	157	3
55	55	3
55	56	1
58	58	4
11	12	1
106	138	3
74	101	3
125	125	5
177	180	1
132	133	1
97	97	3
57	57	2
58	96	4
153	184	3
154	155	1
4	4	3
84	117	2
109	109	5
119	134	2
77	94	3
106	106	4
148	148	4
75	77	5
126	126	1
95	190	2
55	136	1
90	90	15
87	120	4
60	60	4
46	46	3
113	113	6
7	7	6
130	130	4
43	43	1
77	78	5
104	106	4
11	15	1
100	100	4
32	32	2
41	41	5
71	72	1
71	71	2
156	157	1
48	66	1
38	39	4
186	186	1
113	131	3
95	95	2
96	98	2
62	64	2
162	163	1
99	100	2
55	143	1
110	110	1
55	118	4
166	166	5
89	102	4
154	163	1
95	140	3
15	15	3
126	127	2
73	144	2
180	180	2
172	172	2
41	74	6
74	75	3
48	48	3
1	1	4
68	113	5
93	103	1
147	149	4
6	8	1
4	39	2
105	117	2
8	8	1
184	184	2
163	163	8
140	141	1
189	189	9
65	67	3
13	42	1
81	82	4
171	172	2
123	124	1
83	83	3
56	57	1
4	41	1
75	75	1
63	76	1
37	37	8
34	34	8
114	147	1
148	154	3
89	89	8
105	147	2
45	64	1
27	28	1
121	121	2
114	114	3
11	16	4
96	96	4
3	23	2
28	29	3
177	177	1
32	35	2
107	107	8
178	178	2
61	63	3
152	152	2
117	119	2
182	183	1
63	80	3
80	106	2
177	178	1
179	179	2
80	80	5
122	154	5
153	153	2
161	163	3
178	179	3
134	134	6
79	100	3
117	118	3
142	142	2
64	65	5
129	129	1
145	147	1
0	55	3
165	175	4
68	68	1
22	22	3
181	183	3
110	113	1
171	171	3
2	2	5
136	137	5
125	126	1
154	154	3
42	42	4
66	66	2
17	21	1
123	123	1
79	80	3
143	143	3
175	175	2
30	33	3
187	187	3
166	179	1
160	161	3
10	22	1
13	25	3
110	111	1
32	48	2
122	162	1
171	174	2
79	142	2
159	159	2
121	122	4
52	89	1
10	11	2
188	189	2
124	187	1
20	89	1
67	67	1
77	101	1
42	65	2
76	113	1
78	78	2
20	166	2
13	13	3
140	140	3
93	94	2
164	180	3
86	139	1
44	72	1
72	99	1
149	149	1
99	99	2
155	155	2
21	21	1
23	73	2
88	88	2
128	128	4
157	158	1
13	15	1
44	45	1
1	3	1
45	48	1
119	119	2
112	112	4
12	46	2
59	130	2
58	60	1
109	110	2
39	39	3
165	165	3
94	146	2
91	91	3
58	73	2
168	168	1
64	83	1
148	150	3
123	151	2
17	18	1
187	188	2
104	105	1
33	33	2
130	131	1
59	149	2
110	130	2
47	70	2
124	139	1
60	65	1
156	190	1
94	94	1
30	30	2
108	108	1
26	27	1
19	20	1
62	62	2
82	83	2
164	165	2
86	101	2
37	38	1
33	34	1
105	105	1
59	62	1
96	97	1
1	22	1
89	163	1
38	42	2
76	76	1
23	24	2
78	146	1
2	4	1
172	174	1
9	10	1
101	103	1
54	104	1
57	107	1
185	185	1
6	7	1
112	132	1
61	61	1
32	36	1
175	176	1
185	186	1
5	53	1
66	69	1
69	70	1
117	117	1
24	24	1
28	28	1
81	81	1
174	175	1
104	104	1
