136	136	13
101	102	1
124	124	37
8	10	8
19	20	7
79	79	5
138	138	21
137	137	19
103	108	1
87	92	4
129	129	20
84	105	3
101	101	26
87	87	9
30	32	11
102	102	10
115	115	8
126	126	10
117	137	2
7	10	1
12	19	3
132	132	16
12	12	9
137	138	4
140	140	19
135	135	23
130	130	29
134	134	29
74	74	12
95	127	1
11	11	12
82	84	7
131	131	28
7	8	4
95	95	6
81	117	1
107	109	1
123	123	15
89	89	20
127	127	15
92	92	12
116	116	20
35	36	7
13	14	5
25	31	3
75	75	11
87	102	3
104	123	1
103	104	2
119	119	13
31	31	4
85	122	2
120	123	4
131	139	5
75	113	4
139	139	19
95	110	2
98	98	18
134	135	4
92	122	1
123	124	5
19	19	5
106	106	12
110	110	12
90	136	2
104	105	11
27	27	17
121	121	25
23	23	8
77	77	2
71	71	17
133	133	26
14	14	18
128	128	24
116	124	3
100	117	1
136	137	10
29	29	8
34	35	8
136	138	3
138	139	4
5	17	1
109	109	16
97	97	11
93	93	14
75	79	2
80	80	11
116	117	12
97	98	2
21	21	6
28	28	12
28	32	2
88	88	13
6	130	3
80	81	4
88	112	1
81	81	11
131	134	4
125	126	13
26	26	10
124	125	6
135	136	5
96	97	1
13	24	6
33	134	4
131	132	7
6	6	4
3	3	10
15	17	6
118	118	9
140	141	2
125	128	2
22	22	14
82	127	3
122	122	15
72	118	4
7	18	3
120	120	11
27	137	1
124	126	16
131	138	2
82	105	1
120	122	7
97	99	2
125	125	11
28	29	6
85	104	1
19	21	6
104	104	9
112	112	18
17	18	2
27	29	4
90	91	4
106	125	3
20	21	5
73	76	2
120	121	6
7	9	6
72	110	1
117	120	2
10	10	3
122	123	3
117	117	12
78	78	12
115	118	4
81	104	2
30	31	8
128	139	3
24	31	2
25	25	9
85	120	2
90	98	5
121	122	9
99	99	6
86	94	3
82	83	3
113	113	12
129	130	5
73	73	6
94	94	2
8	8	12
23	31	2
16	18	5
82	106	2
31	32	2
25	26	5
22	23	6
76	76	9
108	108	11
83	83	12
30	30	12
24	26	7
90	90	15
8	14	5
24	25	6
82	82	8
34	34	7
93	104	1
114	115	9
105	106	8
114	114	13
4	4	6
107	108	4
2	33	2
96	136	2
121	123	6
112	130	1
88	102	2
2	2	6
112	114	1
108	109	6
9	9	6
71	95	1
125	127	3
84	84	15
113	114	4
117	119	1
18	19	4
111	111	5
8	12	6
31	33	1
85	119	4
10	11	3
38	38	7
4	16	4
78	79	3
107	120	3
0	29	2
83	85	2
86	87	4
35	35	8
0	0	3
80	103	3
96	96	9
86	102	4
80	82	1
85	86	3
21	26	3
97	127	6
102	103	3
20	20	7
87	103	3
15	134	1
83	84	7
117	124	1
13	21	3
95	112	3
82	117	1
82	85	7
96	129	4
131	133	2
93	94	6
95	98	2
13	22	3
75	76	7
83	105	5
15	16	3
80	108	3
77	80	6
81	137	7
105	117	4
110	111	7
25	27	1
95	101	5
5	134	1
71	104	2
18	18	7
71	73	4
72	83	1
105	105	8
10	22	2
79	80	4
85	85	4
76	77	3
103	103	8
33	33	3
110	121	1
25	137	3
13	13	6
106	108	2
4	11	2
74	79	3
27	28	4
130	132	3
74	113	1
86	86	10
80	107	1
6	17	1
98	135	1
107	107	7
90	126	4
116	138	1
127	128	3
104	119	3
97	100	1
81	85	1
103	125	3
85	90	2
3	16	4
107	140	1
126	132	4
34	135	1
1	1	4
126	127	2
88	89	2
109	110	1
10	12	5
72	73	3
33	35	2
2	6	2
5	5	2
103	109	3
82	120	2
14	17	1
91	91	4
81	82	3
132	133	1
100	101	1
107	114	1
17	17	5
79	105	7
37	37	4
81	103	5
130	136	4
21	23	2
2	7	1
133	135	1
123	126	1
131	137	1
96	125	1
89	97	1
83	86	3
82	102	1
88	91	2
87	88	1
71	84	4
117	118	1
81	108	1
1	11	3
73	102	1
128	129	3
24	24	3
109	123	3
16	16	1
133	134	1
95	96	1
84	107	2
74	75	4
137	139	1
103	116	1
96	100	2
90	101	1
23	32	2
84	103	1
2	30	2
36	36	2
92	93	2
78	104	1
111	112	6
33	131	2
89	90	3
9	10	2
0	1	3
32	32	2
16	17	1
71	92	1
71	121	3
138	140	1
36	37	1
29	30	2
26	27	1
100	126	1
75	98	1
80	113	1
12	32	2
118	119	3
90	95	1
109	122	2
14	23	2
135	140	1
123	136	1
9	13	1
12	15	1
73	77	3
15	23	1
29	132	1
91	102	1
104	106	1
72	72	2
100	100	1
118	122	2
2	25	1
3	4	1
72	106	1
77	78	3
119	120	2
105	119	1
10	19	2
73	74	1
74	77	1
73	101	1
87	121	1
81	119	2
128	130	1
27	32	2
88	128	1
111	132	1
77	125	2
78	82	1
1	34	1
14	26	1
12	23	1
35	132	2
86	101	1
5	135	1
76	79	1
6	133	1
78	105	1
108	114	1
83	106	1
102	108	1
72	79	1
88	90	1
6	18	1
92	94	1
73	75	1
