36	36	16
84	84	16
34	34	34
6	12	3
99	132	9
81	82	15
110	110	25
17	17	36
80	80	34
15	16	13
123	125	6
138	138	39
95	95	41
140	140	25
118	120	2
5	6	12
12	12	14
136	136	50
120	122	7
95	96	6
21	21	27
126	126	51
125	125	27
110	111	30
93	93	19
118	119	9
107	107	18
105	116	5
115	135	3
6	7	15
28	28	44
133	134	16
73	73	24
8	8	11
29	29	19
24	26	6
31	32	4
120	120	23
123	123	22
114	114	23
4	4	18
107	108	28
87	87	36
114	115	17
118	118	32
130	130	34
15	31	5
1	86	2
30	31	27
11	12	11
26	125	1
133	133	29
96	96	31
26	29	5
93	94	16
121	121	20
106	109	3
137	138	13
128	128	35
24	29	4
16	16	21
33	33	20
6	31	1
117	117	38
127	128	27
90	90	29
111	112	14
97	97	23
3	5	5
76	76	12
37	66	6
111	131	2
97	98	11
26	26	27
94	95	4
81	81	40
33	34	13
106	119	6
105	105	7
24	24	24
119	119	48
0	93	1
135	136	10
7	7	23
25	26	18
135	135	22
3	25	2
73	74	5
89	89	30
86	86	21
20	22	6
109	111	3
113	116	7
21	114	2
111	111	34
88	88	23
101	101	48
113	113	15
89	90	12
106	106	9
112	113	13
116	126	3
74	94	7
0	92	2
14	15	9
86	94	1
116	122	2
124	124	45
103	121	4
90	93	4
74	74	51
23	23	16
22	26	5
132	132	38
79	82	2
27	28	29
99	100	10
5	5	21
10	10	6
3	3	30
15	15	21
134	135	28
132	133	13
25	25	8
113	118	1
87	91	1
136	138	5
71	72	19
92	93	16
88	90	5
135	137	4
7	12	11
20	20	28
115	115	9
27	29	9
94	94	25
28	29	4
124	131	4
35	35	44
3	4	14
29	30	7
117	118	14
0	34	3
23	24	7
44	44	1
114	119	4
116	124	6
72	73	17
94	126	7
109	110	10
124	127	5
91	95	1
131	131	23
2	2	12
134	134	37
112	119	3
114	116	9
103	103	40
1	7	3
137	137	19
109	112	14
38	38	14
84	90	6
139	139	25
79	79	9
25	27	3
138	139	11
26	27	7
127	127	26
95	101	7
73	80	5
86	87	8
122	122	34
92	94	1
99	99	34
17	18	21
104	104	25
111	118	3
12	14	10
92	92	13
77	77	13
96	99	4
91	91	32
22	24	4
78	86	1
16	35	5
108	108	17
104	116	3
129	130	1
1	1	11
23	25	2
136	139	1
132	135	1
116	116	17
10	23	4
82	82	9
123	124	13
8	9	9
125	126	4
115	117	2
109	109	37
36	95	5
95	126	3
112	112	33
126	134	2
90	91	13
113	115	2
18	18	29
104	106	2
77	101	3
110	124	2
71	71	29
79	80	9
94	96	2
6	6	19
106	107	12
31	31	14
29	32	2
86	91	4
116	125	6
72	99	3
17	36	5
100	100	24
75	76	11
81	116	1
114	122	4
77	79	3
19	19	20
122	123	4
131	132	16
30	32	4
126	129	2
115	124	1
100	130	1
27	116	2
77	80	7
2	3	10
72	75	4
128	134	3
29	71	5
85	85	21
30	30	14
24	25	8
113	122	10
115	121	5
121	122	12
102	103	18
83	83	6
10	11	14
6	8	3
32	32	19
75	75	39
76	77	10
88	89	6
102	102	19
85	86	10
20	26	4
100	101	17
132	137	1
76	78	10
9	9	13
98	98	28
14	14	30
0	0	19
21	22	17
11	23	3
5	7	5
99	123	3
13	13	14
138	141	4
123	127	2
114	125	4
112	114	8
128	137	1
10	14	5
81	88	1
128	129	3
105	106	5
76	88	2
134	137	8
18	22	1
84	87	1
11	11	13
27	27	20
129	129	23
34	38	5
107	110	1
95	100	1
78	78	8
84	85	9
20	30	8
37	37	33
7	14	2
29	36	3
34	35	17
72	72	25
17	28	3
119	124	6
85	88	4
112	123	3
96	101	2
73	101	3
124	126	10
93	98	6
5	86	3
92	123	1
15	32	2
22	22	28
78	88	6
7	9	8
95	133	1
15	115	2
80	121	7
116	117	5
98	118	6
21	115	2
125	127	1
73	76	1
79	83	2
91	101	2
126	132	2
125	129	8
103	117	5
101	118	1
124	125	6
126	127	8
12	19	4
8	10	6
75	112	5
96	97	5
7	8	6
96	98	7
107	119	4
77	78	6
74	75	16
132	134	2
20	21	14
18	20	5
116	123	4
99	118	1
80	81	5
88	94	2
127	129	7
95	97	4
27	127	1
98	99	12
130	131	9
85	102	3
136	140	1
26	114	2
36	94	4
13	14	8
30	36	3
125	128	5
117	119	2
20	80	2
123	128	1
16	18	8
111	124	2
99	101	2
78	79	4
90	92	8
103	113	4
92	99	5
1	2	3
133	140	2
88	114	2
21	91	2
4	86	1
103	104	5
13	18	1
16	17	2
0	1	3
15	30	7
85	87	5
10	12	5
92	124	1
38	72	2
102	111	2
26	115	4
122	124	1
21	26	3
35	36	5
27	124	3
110	112	1
91	92	4
125	140	3
98	101	2
75	77	6
119	125	2
80	92	2
12	23	4
27	32	3
139	140	5
125	138	2
100	132	1
138	140	4
101	112	2
111	126	1
15	17	1
122	125	1
115	120	4
35	37	5
29	31	7
2	9	4
22	27	1
115	126	7
105	107	5
4	5	7
97	101	4
75	78	2
104	111	1
116	118	3
37	94	1
82	83	2
2	13	3
140	141	1
86	88	2
135	138	2
36	37	3
82	84	4
115	116	4
126	128	5
92	100	1
28	134	4
117	122	5
32	33	1
104	105	3
32	35	9
74	115	3
5	19	3
121	123	9
29	72	1
97	99	2
120	123	2
0	6	5
79	92	2
95	109	1
18	19	2
94	98	1
12	20	1
108	112	2
4	11	1
75	98	4
28	30	3
98	100	5
77	112	2
34	37	5
75	79	4
109	116	1
11	13	2
19	22	1
9	10	2
85	90	5
33	74	1
29	73	2
130	132	1
29	134	2
108	109	7
116	121	2
22	125	1
14	35	3
117	120	1
2	5	5
37	38	9
133	136	1
3	6	1
85	93	3
72	83	1
120	121	3
32	38	1
136	137	2
29	75	2
13	15	1
15	18	2
19	21	1
87	115	4
88	93	1
111	125	1
21	121	2
72	74	3
118	125	2
28	72	2
72	112	2
131	140	5
18	140	2
115	122	1
115	118	5
83	84	4
73	78	1
100	131	3
14	25	3
9	11	4
92	125	1
34	36	3
85	116	1
18	23	4
19	20	8
26	31	3
7	10	5
1	11	3
87	88	2
101	102	2
114	117	1
7	11	2
20	38	5
10	15	2
114	118	1
131	139	1
72	80	2
119	120	1
126	130	3
80	94	1
125	137	2
3	18	1
83	85	1
3	114	1
0	2	1
22	123	1
137	141	2
16	36	1
91	103	1
12	76	1
24	32	1
109	114	2
91	100	1
5	20	1
115	123	1
23	26	1
89	91	1
75	101	1
119	122	1
135	140	1
35	139	1
72	79	1
28	37	1
133	135	2
93	99	4
135	139	1
86	95	1
5	88	1
7	31	1
6	32	1
21	38	2
78	85	3
91	94	3
83	102	1
88	91	2
81	87	2
28	73	2
16	27	1
37	95	2
14	89	1
92	95	1
85	117	1
6	33	1
36	87	3
71	78	1
129	133	2
0	35	1
32	111	1
15	25	1
107	120	1
34	94	3
83	122	1
20	116	1
77	89	3
28	32	1
33	36	1
113	114	2
27	31	1
38	71	1
81	102	1
71	79	1
6	81	1
106	111	1
38	97	1
107	109	1
71	74	1
125	132	1
94	97	1
121	124	1
90	111	2
79	93	1
4	18	2
36	96	1
87	93	1
123	131	1
115	119	1
104	119	1
21	25	1
107	113	1
2	4	2
104	112	1
114	124	1
20	88	1
100	117	1
