97	97	8
4	4	5
28	28	24
87	87	7
93	94	8
82	82	7
6	6	9
13	13	9
85	86	4
50	50	8
31	31	15
70	90	1
12	21	1
74	74	2
4	133	1
5	6	2
34	55	2
132	133	1
104	104	10
10	27	3
55	55	8
66	66	3
119	147	1
30	30	5
148	149	10
107	154	4
138	138	6
113	113	12
21	21	3
127	137	7
152	152	7
31	32	3
43	44	6
135	135	8
134	134	5
36	36	5
10	10	3
85	102	3
8	26	1
110	138	2
95	96	2
150	150	7
118	118	5
128	128	4
85	85	6
35	35	1
9	14	4
19	19	1
115	116	1
116	117	2
109	109	5
69	69	6
8	9	2
71	71	12
14	23	1
20	20	6
10	28	3
58	62	3
16	16	2
8	8	4
142	142	8
105	106	4
12	37	2
103	103	9
41	43	2
40	40	13
26	26	10
144	144	4
34	35	4
49	51	4
112	113	5
73	73	5
80	80	14
84	84	6
53	54	1
151	152	4
126	138	2
29	51	4
106	134	4
12	13	4
122	122	4
16	88	2
88	88	6
83	83	9
116	118	2
78	136	1
42	43	4
34	36	6
9	15	1
41	42	3
29	29	7
43	43	2
99	137	1
129	129	3
11	13	1
62	62	5
11	19	2
12	30	7
54	55	3
129	140	3
106	113	6
146	146	4
93	135	3
99	99	15
102	102	3
108	108	3
5	5	11
25	25	1
17	17	15
149	152	3
42	42	7
123	124	4
114	114	3
76	76	9
96	98	5
14	15	4
120	120	2
103	123	2
131	132	2
24	24	9
14	14	3
74	94	3
55	74	4
126	126	6
35	36	3
27	27	10
81	81	1
34	48	3
63	66	5
28	29	5
11	66	6
31	36	4
147	147	7
76	81	1
65	65	2
127	129	2
121	121	3
70	96	3
95	95	7
4	66	6
80	81	4
24	26	3
39	40	10
150	152	2
9	67	1
45	45	5
54	54	3
15	32	1
71	73	2
26	27	3
74	75	1
20	66	1
47	47	15
121	122	7
139	139	9
111	111	6
24	25	1
23	49	3
16	33	6
107	108	1
143	143	4
105	127	4
100	100	1
13	15	1
7	132	3
133	133	3
67	72	3
75	79	1
74	138	2
78	78	3
18	50	3
93	96	2
9	9	5
7	27	2
77	82	2
42	44	3
86	98	2
38	38	4
68	69	2
8	65	3
136	136	4
147	148	1
44	44	9
55	56	2
23	23	4
21	67	2
6	65	3
10	13	4
77	83	5
123	126	3
8	32	3
20	21	2
30	31	1
26	28	2
22	66	3
76	99	3
154	154	2
98	98	1
93	93	9
149	149	3
63	64	3
7	8	2
97	99	2
6	73	2
48	49	1
135	137	2
17	116	2
128	145	3
128	129	4
105	137	2
47	48	1
12	12	4
116	116	2
18	18	1
53	53	13
11	29	2
77	77	5
3	75	1
105	108	1
32	55	3
110	127	7
38	39	1
29	30	2
91	122	2
65	66	4
86	108	1
57	57	4
73	74	3
119	120	1
37	37	5
64	67	8
75	98	3
72	74	5
92	93	1
10	30	2
133	134	5
136	137	5
37	39	1
32	32	6
130	144	3
26	50	5
75	97	2
87	121	2
123	135	4
26	51	3
51	51	3
64	64	5
110	137	2
103	113	2
3	3	5
45	53	1
11	26	2
98	99	5
140	140	5
35	48	1
4	6	4
105	105	1
125	127	3
15	27	3
127	127	1
6	8	1
78	79	3
58	58	5
103	122	2
111	112	6
73	98	1
49	49	2
94	94	4
67	67	1
126	128	3
74	97	1
11	12	1
11	62	2
4	132	1
97	98	3
6	62	2
6	68	1
105	146	1
75	75	4
53	125	1
71	72	2
64	65	3
130	131	2
55	57	1
68	100	3
141	141	3
84	95	1
6	30	1
86	86	1
119	119	1
45	51	3
72	73	1
117	117	2
9	34	1
19	23	1
39	39	3
21	22	2
65	85	3
43	46	2
65	75	1
85	95	2
130	130	3
78	84	2
56	57	2
123	123	4
93	95	3
121	147	1
146	152	1
69	70	3
137	137	1
32	35	2
29	33	1
4	58	2
25	63	1
77	78	1
153	153	2
130	143	2
70	70	3
97	103	3
124	124	4
79	79	3
87	108	2
148	148	2
12	58	1
44	45	1
48	48	1
122	124	1
124	125	1
21	65	1
14	27	1
15	83	3
112	112	3
81	82	1
64	69	1
41	41	2
13	14	1
4	32	2
66	67	1
115	115	5
21	23	1
92	92	1
90	90	1
88	89	1
104	126	1
10	12	2
96	97	1
15	16	1
84	96	2
9	23	1
142	143	1
46	46	2
64	66	1
63	63	1
21	66	1
110	113	1
15	17	1
132	143	1
136	146	1
103	125	1
4	26	1
27	120	1
72	72	1
62	65	1
6	26	1
83	94	1
121	146	1
125	151	1
25	26	1
14	51	1
46	48	1
96	96	1
29	32	1
5	61	1
14	83	1
20	119	1
68	68	1
139	143	1
110	120	1
6	7	1
30	55	1
84	90	1
114	144	1
73	97	1
138	139	1
