62	62	30
134	135	8
74	74	38
17	17	42
40	40	18
119	119	41
1	1	20
29	29	33
87	87	34
132	132	37
76	81	2
65	66	12
139	141	4
121	121	25
59	59	20
38	38	16
57	57	23
88	88	20
107	107	25
115	116	11
122	122	30
60	60	38
66	66	30
85	85	10
90	126	3
116	132	1
42	42	19
54	54	24
63	63	32
123	124	25
104	105	6
139	139	10
123	123	37
87	91	3
83	83	16
125	125	37
54	55	19
105	107	4
135	135	28
64	64	16
116	120	5
120	120	13
130	130	35
77	77	17
37	57	2
22	22	28
110	111	7
2	2	18
68	69	4
116	116	45
21	40	1
120	121	25
117	117	27
4	5	7
94	95	8
55	56	9
19	19	20
138	139	10
71	72	18
62	63	15
64	79	6
117	118	22
2	5	1
133	133	39
38	52	4
136	136	19
121	122	4
101	129	2
14	17	7
110	117	7
127	129	11
103	103	27
14	16	7
12	12	14
80	80	18
50	50	21
10	25	8
5	20	3
30	30	27
145	145	17
71	71	11
89	91	8
110	114	7
73	75	14
59	66	4
90	90	11
41	41	22
129	129	52
96	96	23
82	83	6
28	29	16
32	33	7
76	76	23
12	13	9
96	119	7
76	78	7
131	131	39
34	34	20
33	34	3
24	27	1
82	82	17
27	29	4
11	61	3
55	55	34
58	58	21
143	143	15
36	36	21
62	65	4
118	121	4
1	5	2
114	116	15
99	99	17
110	110	25
5	34	2
128	128	28
89	114	1
51	51	16
31	32	13
101	101	22
50	51	10
23	23	18
88	89	16
31	40	10
93	93	16
10	10	24
70	70	30
140	142	3
137	137	7
77	81	2
47	48	8
115	115	17
91	92	13
116	117	10
79	81	2
6	10	8
106	107	18
14	14	12
89	90	17
67	67	24
100	100	13
146	146	7
121	126	1
30	32	11
99	100	12
39	52	2
115	117	4
130	131	15
140	141	13
81	81	17
87	96	2
88	90	8
108	109	2
27	27	29
113	113	18
53	53	37
52	77	3
124	124	33
129	130	23
35	43	2
126	126	21
25	25	24
61	75	2
144	144	26
40	41	14
95	119	3
79	80	7
108	108	8
92	92	22
95	95	11
65	77	3
9	9	27
31	31	45
24	26	7
71	75	9
53	99	2
5	5	26
37	37	25
119	120	21
6	6	21
140	140	25
68	68	23
39	40	14
65	65	22
36	37	9
56	56	17
141	142	12
18	20	2
126	130	6
112	137	5
109	109	25
101	103	2
91	91	19
10	11	4
52	52	22
96	97	8
89	89	19
136	138	7
33	37	3
112	112	12
84	84	11
80	81	16
103	107	2
118	119	24
8	23	1
35	35	12
8	8	21
105	105	12
120	126	7
4	4	13
134	134	44
8	18	3
96	117	5
8	12	5
77	78	14
125	134	4
3	3	13
132	138	3
108	110	5
56	57	4
32	32	32
28	28	32
126	129	2
111	113	5
30	31	15
112	113	4
102	103	11
135	137	6
104	114	1
70	71	9
100	101	7
98	98	35
26	26	30
87	90	3
5	6	7
61	61	20
141	143	2
0	1	7
78	79	7
18	19	4
102	102	30
127	128	8
33	33	27
20	40	2
59	60	17
8	9	6
104	104	28
111	111	18
122	124	14
113	116	6
41	42	7
105	110	7
51	52	5
110	116	7
53	56	8
128	131	4
10	24	3
20	20	6
76	77	10
24	24	9
0	0	16
136	139	3
101	102	4
119	121	8
11	11	22
46	47	7
26	31	2
38	39	14
31	33	3
92	94	4
116	118	2
107	108	5
57	58	1
86	86	14
18	18	35
48	113	1
138	140	1
11	57	4
15	15	11
12	26	2
20	74	2
118	120	17
125	126	7
91	116	3
73	82	1
139	140	9
138	138	9
106	108	8
3	5	6
67	68	14
59	73	3
141	141	26
16	17	7
107	139	4
18	30	4
92	117	2
48	49	10
104	110	7
111	112	9
37	38	5
35	56	2
11	59	4
37	42	3
124	129	1
106	106	15
82	84	3
72	72	18
25	26	14
49	50	8
27	28	7
122	123	13
52	53	11
11	62	1
114	117	3
61	74	4
9	32	4
81	90	3
135	138	3
43	43	6
94	94	19
53	54	6
20	30	4
23	24	1
22	23	4
48	48	16
127	127	10
135	136	3
13	13	14
33	36	8
89	103	2
24	25	18
78	95	8
49	49	25
109	117	3
80	89	3
73	73	20
113	115	11
42	43	3
24	30	3
83	85	7
88	116	3
105	109	2
117	133	4
39	74	2
113	114	4
32	39	4
5	43	2
15	16	17
93	94	15
42	59	2
119	123	8
118	118	28
47	63	2
34	36	5
124	125	8
5	8	4
20	70	2
99	101	3
22	40	2
125	127	5
90	103	2
113	132	3
90	91	8
115	131	2
135	140	3
89	116	1
73	74	5
64	66	4
103	113	8
28	30	3
38	60	4
35	38	1
27	55	1
79	96	2
25	31	3
87	88	12
114	114	18
121	123	4
70	72	7
77	79	2
17	18	7
10	33	4
90	122	3
35	36	11
97	97	5
50	55	3
10	60	3
28	102	1
90	123	1
71	73	3
111	131	2
22	24	6
109	110	7
108	119	2
117	123	3
79	79	9
58	59	7
97	98	12
121	140	4
57	64	4
123	125	6
91	131	1
103	104	8
114	115	10
16	16	10
32	48	3
88	115	3
60	143	3
60	73	1
1	2	7
100	131	1
38	116	1
62	80	2
37	40	4
23	30	3
105	106	3
64	65	5
138	141	4
1	27	2
38	61	1
75	76	9
1	20	2
33	38	2
39	39	15
118	123	4
26	27	7
39	41	7
67	71	1
38	74	3
38	40	5
21	21	7
19	20	2
120	123	3
9	23	2
42	47	5
91	104	2
22	48	1
111	137	2
117	125	1
84	85	2
118	143	2
61	62	13
136	137	8
133	135	4
142	142	6
46	46	3
96	98	5
52	54	7
106	111	2
132	136	1
53	55	3
114	129	1
61	65	4
49	60	1
5	46	2
128	129	6
17	51	1
92	127	4
126	131	2
80	88	4
115	128	1
87	89	3
40	42	1
11	60	2
83	84	2
25	41	1
91	129	5
79	86	2
29	37	3
98	100	1
6	9	3
25	61	4
123	126	1
97	117	1
78	80	1
1	3	1
89	97	1
79	134	2
4	6	2
59	76	1
95	97	6
125	145	1
95	96	4
70	78	5
21	74	1
18	29	2
53	131	1
126	127	7
36	38	1
1	26	3
99	131	1
70	79	3
127	131	3
2	18	2
120	138	3
49	61	4
69	69	5
137	138	8
59	72	4
2	3	1
71	78	1
51	56	2
91	124	2
62	79	3
1	21	2
72	79	4
137	140	4
112	138	1
78	78	15
112	114	3
92	93	2
111	132	1
96	130	3
145	146	2
69	70	2
131	132	1
117	119	6
114	126	1
19	22	2
128	130	4
64	80	5
6	11	2
17	30	1
124	126	7
0	39	1
18	49	3
75	75	13
9	10	3
20	22	2
114	132	1
30	33	3
55	87	5
113	138	4
11	56	2
58	69	2
103	106	2
59	70	8
95	118	3
8	42	2
68	100	2
66	68	2
6	8	1
98	99	2
32	34	2
100	103	1
117	121	4
107	140	1
66	67	1
80	87	2
110	113	2
125	131	2
135	141	1
34	35	3
43	47	1
1	39	3
74	76	1
96	124	4
98	102	1
133	134	3
91	125	1
90	110	1
29	30	5
134	137	1
74	75	5
32	53	1
117	120	1
5	39	1
59	71	1
8	22	2
97	120	1
120	140	1
13	14	7
121	125	3
27	32	1
95	127	2
12	25	1
60	61	1
63	64	1
9	39	1
32	104	1
26	49	3
55	117	2
31	91	1
35	57	2
96	102	1
83	92	5
9	33	2
81	86	1
117	144	1
76	100	1
14	15	2
107	109	3
21	22	2
40	52	2
93	95	2
75	77	1
36	43	2
77	124	2
118	133	3
143	144	1
3	4	3
79	87	1
18	51	1
16	18	3
133	140	2
43	46	2
0	22	2
142	143	5
47	49	3
24	50	1
134	138	3
64	78	1
88	105	1
39	42	2
77	97	1
36	41	1
20	21	7
36	52	2
68	70	1
5	33	1
112	131	1
55	114	3
36	57	1
47	47	6
101	121	1
117	143	3
35	53	2
118	142	1
100	109	1
15	106	2
54	67	1
99	109	1
81	82	3
133	141	2
18	50	2
117	128	2
18	31	1
104	109	1
126	132	2
24	51	1
58	61	1
118	125	1
6	30	2
6	37	1
104	133	1
104	113	1
98	104	1
68	103	2
60	74	1
11	26	1
17	19	1
54	56	2
2	4	3
71	76	1
91	110	1
131	134	1
16	101	1
132	133	2
125	130	1
124	135	1
120	122	4
68	75	1
104	108	1
2	38	1
77	87	2
2	6	1
99	123	1
26	36	2
65	67	1
25	27	1
63	65	1
33	42	1
76	79	2
117	124	1
59	74	1
49	51	1
114	130	1
16	30	2
129	131	1
9	42	1
114	118	1
10	23	1
140	143	1
11	24	1
91	130	1
