117	117	3
14	78	5
95	95	5
45	45	12
129	130	4
24	25	6
9	10	1
38	39	1
20	21	5
94	94	19
37	39	3
32	43	2
74	77	1
77	77	9
65	66	3
75	77	2
35	35	10
84	90	2
76	76	4
46	46	12
90	114	1
107	107	10
62	62	17
28	29	3
44	44	4
55	90	4
73	73	7
40	91	1
83	86	1
33	34	1
112	113	9
99	100	4
31	31	10
110	110	16
29	29	7
10	112	5
11	11	10
9	9	7
51	51	1
120	122	3
81	82	2
101	102	5
36	43	1
39	39	6
29	61	2
33	90	3
47	47	10
93	93	7
97	97	6
30	30	7
5	5	8
71	71	1
32	32	6
12	14	1
26	78	2
75	75	12
95	96	4
16	110	1
100	101	8
15	15	2
10	17	1
63	64	4
26	26	6
27	27	9
123	123	4
111	113	2
31	32	4
72	72	8
82	82	9
82	83	3
13	97	1
70	70	11
124	124	7
68	68	7
84	84	8
4	5	5
95	127	1
66	66	4
67	68	1
97	127	1
40	42	6
74	74	18
12	35	3
8	24	3
20	20	6
35	79	3
41	43	4
25	33	1
15	16	5
133	133	2
13	13	5
17	17	7
16	112	3
11	93	5
79	80	2
55	56	4
119	119	4
102	102	3
130	130	4
92	128	7
8	8	13
36	37	8
24	24	4
90	90	5
8	19	1
9	16	4
6	6	4
12	12	7
25	25	4
115	115	2
113	113	9
0	61	1
21	21	3
69	71	1
90	91	4
100	100	13
10	122	2
47	83	1
13	47	2
114	114	7
34	34	7
4	4	2
78	78	8
88	88	2
103	128	1
79	79	14
23	27	1
111	111	5
74	78	1
36	36	5
65	65	9
64	68	1
30	47	3
48	54	3
98	98	3
23	58	1
22	22	5
92	92	4
43	43	9
131	134	3
61	61	3
112	114	1
20	83	1
126	133	1
109	110	4
57	57	10
118	119	7
70	71	1
82	109	2
29	59	2
87	88	1
69	69	7
116	126	6
81	81	5
7	8	1
105	126	4
40	40	5
131	132	4
15	55	1
75	76	3
93	126	8
4	45	3
126	126	2
63	63	2
87	87	4
111	112	2
21	97	2
32	42	1
29	33	2
134	134	3
14	77	4
39	42	1
127	127	3
48	48	3
85	87	4
64	64	5
27	78	2
28	28	3
96	96	2
25	47	2
125	128	3
46	47	2
3	19	5
92	93	6
116	116	5
14	14	2
44	86	1
86	86	5
67	67	6
18	18	8
28	79	4
41	41	5
45	46	5
15	114	4
83	83	1
1	44	1
121	132	3
37	37	3
17	122	1
55	82	3
23	24	4
117	121	2
15	22	3
61	75	4
118	118	7
125	125	7
128	128	1
93	115	1
28	62	3
27	28	8
66	83	2
59	59	3
37	48	1
27	97	1
25	78	2
98	121	3
97	99	2
116	134	2
98	99	6
26	27	3
4	101	1
89	90	2
79	81	2
17	20	1
85	86	2
10	10	5
101	101	5
15	131	1
9	77	2
103	103	1
18	20	3
10	32	1
33	33	5
42	49	1
11	74	1
104	105	3
84	92	6
60	60	3
22	132	2
120	133	2
33	48	2
94	130	3
10	21	1
25	93	2
112	112	2
104	125	1
57	72	1
21	48	1
83	87	3
46	84	1
32	44	3
14	124	1
10	31	1
120	134	2
38	38	2
17	18	2
35	63	2
105	105	1
27	29	1
64	65	3
41	42	2
55	92	1
60	86	1
82	108	3
84	93	1
18	77	1
8	32	2
28	91	1
121	121	2
35	36	1
19	19	2
0	1	2
4	6	1
61	62	1
37	38	1
11	77	1
3	3	2
96	127	3
55	55	3
0	27	2
42	43	1
81	93	4
11	122	1
110	112	1
110	115	3
129	129	6
16	17	1
132	132	3
36	80	1
45	90	2
106	106	1
29	100	1
20	59	1
41	113	2
60	75	1
6	93	1
88	94	1
66	67	1
128	130	1
47	104	1
56	56	1
14	96	2
11	91	1
18	19	1
3	101	1
91	115	2
19	57	2
63	68	3
11	12	2
27	74	1
93	128	1
85	85	1
6	99	1
8	110	3
72	73	2
36	78	1
4	84	1
7	13	1
88	92	1
119	122	1
20	80	1
40	80	1
4	8	1
83	85	1
81	90	1
90	113	1
91	91	1
33	75	1
11	34	1
113	114	1
63	118	1
93	133	1
89	111	2
1	1	1
11	27	1
5	81	1
