26	27	2
34	35	4
30	30	7
132	141	2
37	38	5
42	42	9
147	147	6
6	6	9
25	25	9
110	111	7
104	105	4
128	128	1
23	23	2
35	42	7
100	100	4
34	56	1
58	68	2
154	154	4
109	109	4
55	55	3
62	62	3
112	113	1
66	67	1
2	44	2
141	141	5
133	134	1
69	70	4
57	67	1
90	96	2
81	96	8
47	53	2
46	46	7
22	23	3
124	124	3
120	121	3
119	140	3
144	145	1
93	93	7
41	41	4
110	110	6
72	80	3
96	96	3
99	99	5
88	88	3
87	87	3
28	30	4
105	117	2
134	134	3
92	125	1
65	66	4
75	77	2
82	82	2
81	82	2
32	32	4
115	116	6
32	34	7
118	118	2
44	44	4
30	44	2
27	28	2
124	125	1
130	131	2
72	74	1
117	117	2
74	74	8
34	34	3
136	138	5
50	51	2
82	83	3
51	52	2
121	127	3
27	29	4
12	12	5
25	26	4
95	97	2
108	108	10
6	7	2
73	73	5
48	49	1
115	115	2
42	43	2
17	20	3
35	35	4
10	10	6
149	151	4
62	63	5
150	151	2
50	134	4
20	20	4
122	122	2
11	11	6
38	38	6
133	133	5
4	38	1
112	112	7
135	135	5
70	70	3
16	16	2
83	83	2
36	37	1
111	112	2
8	8	3
28	28	2
101	101	2
90	90	1
41	42	2
68	69	8
17	30	1
119	119	4
116	152	1
10	11	2
24	24	8
18	19	1
50	132	4
136	136	5
84	84	4
107	107	3
93	144	1
123	129	2
145	146	1
66	66	6
24	26	2
17	26	4
102	114	5
85	86	2
76	76	3
19	19	8
75	83	3
101	106	4
36	36	2
58	78	4
68	138	1
69	138	3
50	50	3
68	93	1
54	54	4
68	68	8
129	130	1
40	40	2
47	47	3
72	72	5
32	37	5
31	32	2
17	17	8
11	17	3
152	152	4
67	67	4
64	66	2
98	113	1
77	78	4
12	15	3
63	63	2
81	81	2
77	77	1
35	37	2
135	138	1
139	139	2
70	84	1
102	102	3
97	110	1
95	95	4
99	115	4
64	65	1
97	98	3
58	58	3
15	16	2
38	42	1
137	137	2
146	146	1
121	136	3
106	106	2
43	43	1
134	135	3
9	9	1
69	69	2
51	51	2
13	13	4
71	71	1
93	94	2
5	5	4
148	148	2
55	56	1
16	21	2
150	154	1
145	145	1
29	29	1
75	87	2
153	153	1
7	7	1
136	137	1
78	78	1
12	102	2
96	97	1
100	110	2
48	53	1
29	30	1
131	131	1
21	21	1
57	57	1
123	123	1
123	124	1
15	15	1
71	82	1
87	94	1
125	126	1
119	142	1
79	79	1
28	29	2
65	65	3
45	46	1
10	34	1
56	153	2
31	33	1
45	45	1
2	3	1
32	41	1
139	144	1
93	121	1
126	126	1
23	24	1
