33	33	12
22	23	2
32	32	9
140	140	5
134	134	4
168	174	1
166	166	9
80	82	1
162	162	5
160	161	2
79	110	2
15	17	3
129	129	8
86	109	1
179	179	10
41	42	6
117	117	8
84	85	5
65	65	9
10	11	8
100	100	13
115	116	10
131	131	5
0	36	1
21	21	5
4	18	1
16	17	6
122	126	1
11	11	21
76	77	4
18	18	15
29	29	8
102	102	14
106	143	2
167	167	12
63	67	1
4	6	1
61	61	5
5	30	1
95	95	12
71	71	12
41	41	5
35	35	8
6	6	11
146	161	1
146	146	9
28	28	3
2	2	13
82	99	1
1	1	15
119	119	11
125	125	2
5	5	7
94	101	4
24	65	3
9	17	7
58	58	4
124	124	6
12	13	19
63	63	5
91	91	2
15	15	18
122	125	1
2	41	1
63	71	2
138	138	5
43	43	5
17	18	5
49	51	2
148	150	1
79	79	9
99	99	1
25	25	9
131	149	4
172	172	6
132	163	4
113	114	4
15	22	7
12	40	2
165	165	5
53	53	6
158	158	5
88	91	1
155	155	7
90	94	2
101	102	2
163	163	6
96	98	1
37	141	3
55	57	4
37	75	3
34	40	3
142	142	10
21	28	3
73	73	11
164	164	2
177	177	4
3	4	6
19	22	5
77	77	6
73	74	3
98	98	7
34	34	6
160	160	9
46	46	4
143	143	6
116	117	2
111	111	5
103	103	3
151	151	8
58	59	2
105	107	3
108	108	8
130	130	9
135	135	4
23	23	10
37	37	12
36	36	14
64	64	6
72	108	1
144	144	5
64	72	3
67	67	8
42	42	8
31	31	8
8	63	1
77	142	1
112	112	12
157	157	5
38	38	8
89	104	3
133	133	3
83	83	2
93	93	9
52	76	1
51	51	8
80	80	5
5	7	2
66	66	5
101	101	2
110	114	2
30	30	14
4	9	1
73	76	1
1	53	2
50	50	10
105	105	6
49	50	2
86	88	2
119	123	2
131	164	3
40	40	12
15	16	6
147	174	1
8	8	5
27	27	6
118	118	6
159	159	3
86	86	8
0	0	5
139	139	5
4	8	1
1	4	3
90	90	7
156	156	1
153	153	8
59	59	1
87	87	10
1	38	1
91	99	1
54	59	2
147	147	5
25	51	1
123	123	11
96	100	1
20	22	3
167	168	3
163	167	2
20	20	1
119	120	3
31	32	3
171	171	7
176	177	1
26	31	2
3	3	5
103	104	2
24	64	1
11	37	2
173	173	7
120	120	6
145	146	2
79	90	2
72	72	8
91	92	5
169	169	6
4	5	4
8	17	2
5	88	1
44	44	7
7	7	7
2	50	3
3	19	1
35	37	1
12	15	2
12	12	7
14	14	12
13	13	10
102	108	1
82	82	4
55	56	1
161	162	6
18	20	3
0	1	2
21	22	2
23	24	3
83	84	1
65	67	2
15	18	1
162	163	1
26	27	1
12	19	1
61	83	1
132	132	3
126	126	5
114	114	3
9	9	6
171	172	3
10	10	3
137	137	5
123	124	5
134	136	1
115	170	2
19	35	1
83	99	2
7	9	1
26	26	6
8	71	2
86	90	1
148	148	10
88	144	2
76	76	14
169	171	3
107	107	5
149	149	6
64	102	3
55	176	1
116	118	2
148	151	1
109	111	3
88	89	2
98	100	4
13	15	2
163	164	6
14	30	2
132	145	2
39	39	4
166	167	6
112	138	1
32	178	1
3	8	4
11	15	1
89	89	8
169	173	1
62	94	1
103	134	1
102	103	2
168	170	2
25	27	4
16	16	12
103	130	2
22	26	1
170	170	3
110	110	5
178	178	4
11	12	3
59	65	1
53	54	1
9	35	1
154	154	4
22	22	3
24	24	11
134	135	1
5	148	2
36	44	2
75	75	4
105	106	2
3	6	1
27	29	1
105	136	1
4	11	3
135	145	3
157	158	8
99	100	2
97	97	7
62	62	5
78	78	6
106	107	1
60	61	3
39	45	1
135	137	2
128	128	7
175	175	2
86	89	3
13	40	2
161	161	7
90	102	5
104	130	4
65	66	1
147	148	2
4	4	6
81	81	4
60	60	4
96	96	3
146	168	1
32	39	1
153	154	2
115	115	4
134	141	1
108	110	2
128	143	3
14	55	1
116	116	6
122	122	3
94	94	3
5	6	3
52	52	3
2	3	3
23	62	1
121	121	4
174	174	3
41	43	2
62	63	5
84	86	1
67	68	4
34	35	2
4	30	2
54	55	2
168	169	1
81	94	1
39	40	6
57	57	4
45	45	5
26	145	1
85	86	1
40	41	1
11	13	3
41	46	3
14	42	3
24	51	3
176	176	1
35	41	1
127	127	4
92	93	2
6	94	3
18	21	1
37	44	2
127	128	1
66	68	2
30	31	3
29	31	2
61	64	1
104	104	2
132	133	1
1	3	3
56	58	1
37	133	2
6	7	1
2	4	6
158	159	3
121	123	2
12	142	1
159	161	1
37	42	1
83	162	1
92	92	2
35	44	2
151	154	1
78	82	1
125	127	2
19	21	2
58	173	1
56	56	3
19	30	1
79	114	1
57	58	1
26	29	1
154	155	1
52	60	4
85	85	2
17	38	2
168	168	2
8	9	2
180	180	2
174	175	2
61	94	2
2	8	3
24	25	4
135	146	1
6	31	4
31	76	1
67	73	1
173	174	1
45	46	1
139	140	3
54	60	3
74	75	1
88	88	1
177	179	2
142	171	3
106	106	2
65	95	1
55	59	2
8	16	1
123	126	1
54	54	1
22	28	1
152	152	5
163	165	2
114	115	2
95	99	2
56	76	1
154	156	2
39	52	1
2	6	1
27	60	1
143	145	1
44	45	1
107	111	2
17	17	6
42	88	2
7	33	2
114	124	1
84	118	1
105	124	3
7	89	1
96	97	1
126	144	4
108	109	1
84	84	1
159	160	2
143	144	3
140	141	1
107	137	1
164	165	5
109	109	2
14	65	1
150	150	3
21	64	1
112	114	2
61	63	1
4	19	1
81	171	1
83	109	1
156	160	2
113	113	9
133	178	1
119	121	2
38	93	1
130	147	1
55	64	2
33	34	1
27	28	2
18	25	3
23	25	4
6	8	1
125	126	1
23	26	1
141	142	1
28	58	1
25	26	3
134	137	1
7	12	1
67	100	1
151	153	6
104	105	1
5	10	2
133	134	1
43	44	2
90	91	1
73	77	1
54	146	1
103	106	1
26	28	3
4	151	2
38	39	1
111	112	2
1	148	1
107	108	1
102	113	3
95	97	1
8	11	1
145	145	2
126	152	1
20	21	2
38	40	1
119	127	1
177	178	3
25	28	1
55	58	2
81	92	1
129	131	2
43	45	2
144	145	2
142	143	1
1	2	1
32	33	2
66	67	1
118	119	1
9	10	1
95	111	1
135	136	2
9	12	1
62	85	1
63	64	1
55	55	2
129	136	2
124	125	1
54	58	1
106	135	1
74	77	1
5	40	1
144	174	1
115	117	1
3	33	1
102	109	1
39	53	1
18	19	1
27	61	1
35	36	1
10	13	1
136	137	1
78	102	1
51	52	1
123	144	1
128	130	1
167	170	1
0	33	1
87	88	1
120	127	1
38	41	1
5	19	1
56	60	1
93	95	1
121	125	1
