114	115	2
43	43	6
161	162	2
167	167	7
248	248	1
38	39	1
5	5	8
181	181	6
8	118	2
26	26	5
149	192	1
9	9	2
243	243	1
193	193	8
71	71	1
86	86	2
211	211	4
155	155	2
65	67	1
66	214	2
200	200	5
113	113	2
108	109	3
4	50	3
239	239	11
173	173	6
153	153	1
197	198	2
169	170	4
177	216	2
114	114	3
182	182	2
115	116	2
6	7	6
183	238	1
111	112	4
98	98	2
72	72	5
217	217	9
112	112	3
214	215	3
77	78	1
166	167	1
208	209	3
29	29	8
18	18	4
238	238	7
186	187	2
240	241	2
246	246	10
205	205	9
70	70	1
31	31	5
202	202	4
88	88	6
61	62	10
188	188	5
226	228	1
23	203	1
184	184	7
28	28	9
234	234	3
22	23	7
90	91	3
86	97	1
237	237	2
48	50	1
162	162	3
109	109	3
159	170	3
36	36	2
236	238	1
180	180	2
182	183	2
78	78	8
74	74	7
180	182	8
29	31	1
213	214	3
245	246	4
73	81	4
39	39	7
48	86	3
64	64	1
89	100	3
151	151	3
146	146	4
232	234	3
8	8	7
199	199	1
180	181	4
169	231	7
201	222	4
158	212	3
69	69	8
73	74	2
150	150	7
32	32	5
93	94	1
215	239	1
45	45	6
92	92	4
155	156	1
102	103	3
212	212	4
176	210	1
5	30	4
119	119	5
206	207	1
104	117	1
94	111	2
80	80	1
197	197	2
190	190	5
63	63	2
245	245	6
231	232	4
215	215	4
89	95	2
97	97	11
93	93	4
161	161	3
64	89	1
154	239	1
29	30	4
158	192	2
149	241	4
198	198	10
244	244	6
210	221	2
185	185	1
169	194	3
11	11	5
20	20	6
72	75	3
176	177	1
3	3	4
59	60	1
12	12	4
79	79	3
76	76	4
240	240	13
4	5	2
44	44	1
90	90	1
94	94	4
157	157	1
19	246	4
57	57	5
186	186	2
27	27	1
241	241	4
82	92	2
241	245	2
201	202	3
200	222	1
106	106	1
3	92	1
203	204	3
159	159	4
145	145	3
100	100	4
238	240	3
183	228	2
112	159	2
219	219	2
48	68	1
65	65	2
165	165	1
52	52	3
242	243	3
110	110	2
14	14	3
223	223	1
166	166	4
171	171	5
170	170	2
70	71	2
187	187	4
207	207	3
153	158	3
58	59	1
69	70	2
162	234	3
35	51	2
185	229	2
175	175	1
209	246	2
67	67	3
204	204	4
163	166	1
183	190	5
85	85	7
164	166	2
22	22	2
81	84	1
226	226	2
18	19	2
172	173	1
158	158	4
248	249	5
58	61	5
58	58	9
193	237	1
157	166	2
221	221	5
87	97	1
17	17	1
110	111	2
87	87	1
3	41	1
184	189	1
154	155	3
75	75	6
144	145	1
236	243	2
60	61	2
176	176	3
157	162	2
14	15	2
25	25	3
116	116	3
61	61	3
33	34	1
190	192	2
57	76	1
210	210	2
102	102	1
218	234	1
20	248	1
34	34	3
117	117	4
239	245	1
189	190	3
210	213	1
15	15	2
21	192	2
32	99	2
247	247	6
35	35	2
119	120	3
97	98	3
184	224	2
244	245	3
41	41	2
49	49	1
187	188	1
179	179	1
218	219	3
107	107	2
160	160	3
190	191	2
188	196	1
229	231	2
5	48	3
172	172	2
172	216	3
120	120	1
182	246	2
159	165	1
77	80	3
33	33	5
150	151	1
154	154	2
54	54	2
95	105	1
150	162	3
236	236	5
224	224	6
167	179	1
25	36	1
168	169	3
17	18	1
203	203	2
49	50	3
97	101	1
76	77	2
68	68	3
117	118	1
48	49	1
52	53	1
213	213	1
173	174	2
190	217	1
18	247	3
16	16	2
108	108	1
23	23	4
210	211	3
192	192	1
184	227	1
101	101	2
183	183	3
94	109	3
118	118	3
218	218	1
156	156	3
49	67	1
164	164	2
56	56	3
222	222	1
37	38	2
196	196	2
1	1	1
187	198	1
119	150	1
178	178	7
175	177	2
88	96	1
30	30	5
231	231	1
200	203	2
51	51	4
63	64	2
232	233	3
242	247	2
235	235	6
47	75	2
96	96	2
66	66	1
31	106	2
228	229	1
111	115	1
239	240	1
185	188	1
53	55	2
53	53	1
198	225	1
46	46	3
56	58	1
77	77	1
62	66	1
242	242	3
194	195	2
65	66	2
5	61	1
229	229	2
232	232	4
149	152	2
168	168	2
3	19	3
91	91	1
16	21	1
57	58	2
60	64	1
209	209	1
163	163	3
19	19	2
42	42	3
21	245	2
195	196	3
4	31	2
7	223	1
6	6	1
169	169	1
202	227	4
236	237	2
201	201	2
11	232	1
104	104	1
62	62	1
166	171	1
177	177	1
180	183	1
73	73	2
72	85	1
47	47	1
35	113	1
67	76	1
78	101	1
220	220	2
186	219	1
111	117	2
87	92	1
18	47	1
198	201	1
55	56	1
28	45	1
117	120	1
174	188	2
109	113	1
11	12	1
212	222	1
7	22	1
96	98	1
99	99	1
105	105	1
48	48	1
63	88	1
42	43	1
229	230	1
175	179	1
