104	107	3
38	38	8
5	5	4
65	65	10
40	43	4
88	88	3
2	2	4
61	88	3
29	29	4
112	112	9
55	55	2
67	68	7
45	45	6
3	3	7
119	119	4
83	84	7
85	127	1
72	77	5
99	127	2
114	114	4
97	117	3
102	104	3
72	72	4
113	130	5
84	102	2
90	90	8
64	64	14
106	106	5
61	81	2
61	79	3
76	76	9
92	92	8
54	54	5
108	108	9
107	107	8
79	79	8
4	10	1
51	51	7
89	90	4
91	92	3
107	108	1
90	91	3
66	84	4
98	98	5
52	52	6
75	75	4
131	132	6
1	1	3
115	115	7
70	71	3
4	7	3
53	53	6
111	111	6
101	101	1
62	62	3
48	49	2
117	117	4
47	47	3
62	98	1
42	42	7
26	26	6
118	119	5
131	131	3
93	94	1
55	132	1
115	116	3
1	2	4
109	109	6
68	68	4
44	44	5
60	60	4
115	117	3
31	31	2
76	77	2
65	84	4
33	33	1
12	12	5
9	9	2
123	123	5
129	129	3
46	88	3
11	11	4
105	106	1
32	32	6
6	6	1
80	80	5
113	126	3
71	71	7
94	95	2
46	49	2
75	80	1
100	101	3
96	117	2
112	120	1
104	104	9
4	5	1
64	71	1
25	25	2
60	64	1
14	14	3
19	19	2
75	79	2
111	116	2
49	54	2
78	81	1
38	101	1
121	121	9
67	67	8
82	103	2
84	104	1
95	95	1
65	66	3
11	12	1
66	66	1
98	104	1
11	13	1
116	132	2
104	106	2
39	39	1
103	103	1
75	81	3
49	50	1
28	53	3
43	43	2
18	18	2
125	125	4
17	17	5
127	128	2
94	94	9
58	58	2
10	11	1
26	56	1
130	130	2
113	113	1
57	57	2
87	87	2
103	129	1
47	58	2
87	88	3
39	117	1
128	128	3
81	82	2
41	42	2
31	56	1
86	88	2
93	93	1
76	105	1
85	86	1
18	42	1
59	125	2
48	71	1
105	105	3
126	128	7
133	133	2
64	81	2
49	49	2
91	91	2
103	130	3
97	118	1
17	18	1
8	8	2
42	99	1
109	125	1
48	48	3
78	79	1
59	60	4
60	117	1
113	120	1
72	73	4
86	87	5
21	22	3
10	10	1
51	52	2
113	124	1
21	21	1
41	41	4
32	45	1
8	9	1
13	15	1
46	46	4
124	124	4
118	118	1
77	77	1
108	109	1
107	113	3
102	102	3
59	61	1
31	54	2
24	116	1
13	13	1
81	81	1
95	107	1
41	94	1
43	44	2
113	125	2
75	98	2
73	74	1
61	61	1
115	127	1
83	130	2
39	105	2
58	101	2
41	43	1
84	84	3
58	96	1
16	16	4
16	17	1
63	68	2
82	82	1
52	76	1
65	69	1
84	129	1
89	89	1
53	57	1
28	29	1
50	51	1
117	118	1
86	100	1
78	78	3
103	119	2
124	125	4
56	56	1
74	74	1
27	27	2
120	130	1
101	108	1
96	107	1
52	90	1
102	108	1
104	129	1
19	63	1
52	71	1
100	102	1
85	87	1
118	127	1
123	124	1
69	69	3
90	127	1
40	63	1
7	7	1
57	58	1
122	122	2
56	64	1
70	70	1
6	7	1
82	91	2
71	72	1
81	128	1
58	115	1
86	86	1
116	117	2
0	15	1
104	112	1
119	120	1
99	128	1
99	109	1
59	59	2
45	93	2
126	127	2
46	48	1
42	108	1
42	107	1
86	103	1
49	68	1
122	123	1
121	122	1
114	115	2
50	50	2
