180	180	5
124	137	4
155	155	2
102	141	4
62	68	4
7	7	2
117	117	2
57	59	6
102	134	4
211	211	1
11	36	3
192	192	5
35	40	1
239	239	1
10	10	3
143	153	5
130	209	5
149	149	3
60	60	5
200	224	6
16	21	2
149	154	4
20	20	5
196	201	2
8	159	2
2	2	3
76	76	2
66	66	2
187	188	4
136	155	1
152	160	1
198	199	2
44	44	5
23	133	2
28	28	3
113	113	6
61	61	5
152	152	4
228	228	6
32	47	1
37	38	1
13	37	5
61	73	3
172	172	5
224	229	1
69	89	4
109	109	4
215	215	1
3	3	2
194	194	4
12	12	8
82	83	4
13	16	1
53	54	5
112	172	9
99	99	2
64	65	7
166	207	4
8	8	6
173	174	1
169	170	5
48	49	4
109	113	2
8	9	1
11	37	2
101	102	2
207	207	7
111	174	3
71	71	3
69	69	4
183	186	2
208	225	1
118	119	3
12	18	1
8	10	1
179	179	5
12	13	1
141	205	4
58	58	1
147	147	3
26	26	5
11	20	4
182	182	7
225	225	5
47	47	10
170	209	3
89	92	4
50	51	3
202	202	7
98	223	3
2	4	3
156	157	5
63	63	2
177	177	9
160	160	5
97	177	3
168	206	4
177	178	4
21	22	2
77	77	2
226	227	5
153	155	2
136	137	2
69	72	2
13	34	3
52	54	2
160	161	5
82	82	1
24	142	6
45	45	2
72	73	4
70	74	4
242	242	5
155	156	8
129	129	4
145	145	4
74	86	1
11	38	3
45	68	4
216	216	5
88	89	4
18	18	4
9	9	4
68	76	2
49	49	2
119	119	3
31	35	3
173	173	3
188	189	6
18	47	4
200	200	3
219	219	4
225	232	2
4	8	2
16	17	3
122	123	6
32	69	3
35	43	4
17	17	7
4	5	1
51	52	3
191	191	6
118	118	3
138	138	1
237	237	2
114	114	10
102	103	1
208	210	3
220	221	2
121	121	1
25	25	9
202	230	3
146	148	3
241	241	3
71	72	3
202	227	7
100	100	3
144	144	1
63	73	2
235	235	5
81	83	4
107	109	5
76	78	1
0	0	1
107	164	5
199	200	1
207	208	6
54	54	9
106	107	5
152	153	2
102	102	1
147	148	2
191	192	1
202	225	2
106	116	1
3	4	4
44	65	1
135	136	1
164	164	3
28	86	1
157	157	5
28	31	3
105	228	6
68	68	2
196	222	3
176	176	6
39	39	7
99	101	5
218	222	2
15	15	6
42	47	1
37	37	3
88	88	1
125	127	3
170	196	4
86	165	4
101	144	2
29	45	5
2	3	3
52	52	2
84	112	1
74	78	2
4	6	3
77	108	1
186	189	2
240	240	3
57	80	4
115	115	3
54	55	2
181	181	7
221	221	5
112	114	1
97	97	2
86	86	10
148	148	2
97	98	3
44	47	2
166	166	4
209	209	1
30	30	3
230	230	2
196	203	2
166	167	5
32	33	2
120	120	2
19	20	3
60	83	3
140	140	2
153	157	4
140	141	3
200	201	1
111	185	6
77	78	3
61	83	1
73	76	2
161	162	2
201	207	3
117	198	3
159	160	3
216	239	1
138	145	2
80	82	1
0	5	1
210	211	1
50	53	3
64	69	5
137	138	4
17	18	5
11	11	9
19	59	3
127	129	1
24	59	2
127	127	3
21	23	2
179	197	3
117	118	3
145	205	4
27	91	2
43	44	5
196	196	3
33	33	3
12	47	2
83	83	2
123	137	3
28	85	2
62	76	1
127	128	1
29	29	3
99	103	3
169	207	3
120	121	1
101	101	2
104	104	2
15	16	3
183	183	1
1	112	2
121	159	3
33	41	4
46	46	2
56	60	1
217	220	3
122	122	3
130	130	1
210	210	3
235	236	3
7	15	1
163	164	3
161	161	8
183	184	2
98	98	7
227	227	5
101	103	1
27	27	2
126	126	3
31	33	2
25	26	2
50	52	4
11	12	3
193	227	2
184	186	4
22	67	1
79	81	1
238	238	2
79	79	2
72	81	1
70	83	1
131	132	1
1	2	4
124	124	3
78	82	1
157	158	4
165	170	2
14	15	4
201	201	1
197	198	2
136	148	2
29	68	3
14	16	5
235	237	1
232	233	4
61	84	1
30	31	1
31	31	3
36	41	1
204	204	1
162	176	4
36	36	2
151	152	2
124	129	1
137	137	2
77	79	1
0	19	3
217	217	1
199	203	2
56	57	2
4	7	2
219	222	2
131	211	3
234	234	3
218	221	2
105	106	1
33	69	1
72	72	2
125	125	2
4	18	2
231	231	2
1	1	1
49	50	2
60	198	1
115	206	2
28	88	1
19	19	1
36	65	3
95	99	1
168	203	1
42	43	1
84	85	2
219	228	3
229	230	3
9	38	3
199	222	1
124	125	3
227	228	2
46	48	1
3	5	1
106	135	4
95	105	1
59	60	4
74	74	4
167	169	1
223	223	3
235	238	2
128	137	2
29	36	1
203	205	2
137	139	2
230	231	1
155	159	1
121	181	1
162	234	1
102	236	1
232	241	2
59	59	1
87	218	2
21	203	1
5	5	1
67	68	1
127	130	2
1	10	1
118	122	2
127	205	1
30	86	1
222	222	1
48	48	1
120	122	1
33	43	1
193	193	1
103	105	1
203	206	2
85	85	1
7	12	3
103	106	1
168	211	1
74	75	2
78	79	1
163	163	1
226	242	1
126	139	1
174	175	1
180	182	2
145	147	2
32	32	1
2	18	2
7	8	1
16	16	1
6	7	2
113	163	1
106	114	1
22	22	1
191	237	1
167	214	1
84	84	3
42	45	1
114	157	1
18	239	1
159	159	2
74	173	3
79	133	1
107	108	1
72	74	1
96	96	1
221	222	1
17	19	1
197	197	1
239	240	2
111	175	1
198	201	2
62	65	1
130	131	1
13	36	2
212	213	1
30	32	1
240	241	1
60	133	1
217	222	1
176	191	1
11	65	1
81	81	1
64	70	1
116	129	1
109	110	1
172	173	1
117	124	1
149	151	1
163	165	1
220	220	2
189	190	1
225	242	1
81	82	1
22	23	1
158	158	1
84	89	1
157	237	3
203	231	1
111	112	1
146	147	1
193	224	1
170	172	1
128	128	1
195	201	1
100	101	1
108	133	1
61	81	2
227	229	1
63	70	1
23	131	1
234	235	1
79	83	1
24	100	1
213	215	1
64	64	1
62	131	1
57	134	1
70	71	1
108	164	1
81	91	1
138	158	1
