138	138	18
45	45	18
103	104	2
86	86	12
13	21	5
133	133	2
94	94	6
113	113	10
92	92	23
102	102	2
91	91	12
88	88	8
50	51	5
0	1	5
31	31	5
29	29	12
13	14	2
77	79	5
54	54	10
86	88	2
87	88	2
156	157	3
150	150	18
92	94	4
90	90	12
29	126	5
113	122	1
34	115	2
40	40	4
8	8	14
146	146	5
46	47	8
93	95	1
84	84	7
47	47	12
56	56	10
115	115	11
155	156	2
8	9	2
36	36	6
106	107	5
81	81	6
21	21	10
7	46	3
105	105	12
102	103	8
89	89	7
138	142	2
73	73	15
44	44	8
145	147	3
155	158	2
152	156	1
25	25	15
140	140	14
23	23	18
95	95	5
17	17	15
79	80	1
52	53	9
98	101	2
123	123	6
39	39	2
84	85	7
125	126	6
144	147	3
41	41	10
47	48	3
38	38	4
30	30	12
129	130	3
93	93	11
110	111	9
77	77	4
16	18	2
85	86	4
128	128	16
23	46	5
135	135	15
26	26	10
139	139	6
12	12	9
157	157	11
54	67	4
108	108	12
65	65	8
111	148	4
111	111	8
124	124	5
101	102	2
55	55	12
46	46	14
96	98	1
23	24	13
78	78	12
126	137	3
103	103	7
7	7	6
41	42	7
14	14	3
15	15	5
120	120	11
118	118	6
34	34	11
100	100	15
67	67	12
120	122	3
156	156	9
6	6	15
4	35	2
127	127	16
127	150	4
103	133	1
158	158	14
124	127	4
14	33	5
49	145	1
22	22	14
27	28	7
38	39	3
23	31	2
42	43	4
94	97	1
130	138	1
42	42	8
25	26	3
76	78	2
112	113	1
139	148	3
27	27	14
66	67	8
50	50	6
138	140	2
44	93	3
148	148	5
83	84	3
64	65	2
75	75	6
91	92	5
108	109	7
85	85	6
76	80	5
66	66	9
130	130	14
78	80	1
2	130	2
14	15	2
148	154	2
10	40	3
119	119	4
53	53	7
68	68	8
106	106	12
72	72	5
10	10	6
70	71	3
91	95	8
81	82	6
131	131	10
53	56	4
114	114	10
117	118	3
134	134	13
18	18	4
63	64	4
29	122	3
11	22	2
4	4	4
76	76	1
132	132	3
151	151	10
142	142	4
35	35	3
154	154	4
24	24	15
87	104	3
153	153	4
97	97	2
34	35	3
147	147	8
39	42	2
114	116	2
49	50	4
91	101	1
43	43	9
130	132	3
8	13	3
120	123	1
49	49	2
70	70	12
122	122	10
83	83	4
101	101	4
146	147	4
73	99	1
138	139	6
123	124	4
126	127	5
137	138	3
33	33	9
92	93	3
52	52	3
40	78	1
45	50	2
33	34	1
51	51	18
141	141	14
91	93	2
31	33	4
110	110	5
120	127	2
13	17	2
12	13	3
88	111	1
121	121	10
94	95	5
67	70	1
30	33	2
37	37	4
66	85	2
144	144	3
27	30	2
82	82	9
34	38	3
125	150	2
104	105	10
95	96	4
1	1	5
112	112	2
40	41	5
75	80	1
106	114	2
10	13	5
32	32	3
0	0	7
34	37	3
73	155	3
155	155	5
129	129	9
136	136	1
71	71	4
18	35	3
74	86	2
115	117	1
69	69	10
21	35	1
39	72	1
3	3	12
63	63	2
158	159	8
107	107	3
135	136	8
77	84	1
114	115	2
16	16	3
137	137	11
126	126	2
146	153	1
51	54	4
88	89	3
87	87	6
5	5	12
148	152	1
130	131	8
3	4	4
52	54	1
98	98	9
39	41	3
13	15	2
118	119	2
55	56	2
28	42	1
4	37	2
102	113	1
47	51	5
149	149	3
20	20	5
99	99	11
19	19	9
62	62	1
28	28	4
80	80	12
112	126	1
26	27	2
98	99	3
100	101	3
50	55	3
8	41	1
142	146	2
96	96	4
1	3	2
102	152	1
23	51	1
117	117	10
7	32	2
139	142	1
117	127	4
75	129	2
48	48	6
90	91	1
35	36	1
13	16	4
6	29	1
57	57	3
33	94	1
88	90	1
48	50	2
69	70	6
9	12	2
129	134	3
131	133	2
113	117	9
113	116	1
2	2	4
9	9	6
28	30	2
24	25	3
30	31	1
41	76	1
68	72	1
105	116	2
83	86	1
105	115	1
114	117	1
28	29	5
140	141	2
136	137	3
80	81	4
135	141	1
86	111	2
46	50	2
11	11	3
151	155	1
86	91	2
27	44	2
26	37	2
22	23	5
128	131	3
119	125	1
125	127	1
37	38	1
104	104	5
56	57	1
84	93	2
40	94	1
113	114	1
152	155	1
141	142	3
102	104	2
139	140	1
7	8	2
82	83	2
80	87	1
42	51	1
84	86	1
148	156	1
105	106	3
154	155	2
132	136	3
43	151	1
115	116	3
38	40	2
115	119	2
31	32	2
124	126	2
103	134	1
48	49	3
129	131	1
116	117	2
145	145	1
152	152	3
142	147	1
124	125	1
116	116	3
5	92	2
151	152	1
107	108	1
64	98	1
54	57	1
5	34	2
23	34	1
3	5	1
109	109	3
12	14	1
24	130	1
7	116	1
27	33	2
51	55	3
97	98	2
26	45	1
144	146	1
116	127	3
25	36	1
18	20	2
62	70	1
20	22	1
24	26	1
7	9	1
103	131	1
10	127	1
9	10	2
87	129	1
102	105	1
18	21	1
45	47	1
39	40	1
120	121	1
82	86	3
111	112	2
20	21	1
143	152	1
140	153	1
9	40	1
49	146	1
79	79	2
92	99	1
4	5	1
145	152	1
92	95	1
51	53	1
121	122	1
8	40	1
18	19	2
31	36	1
159	159	2
140	156	1
32	35	1
123	125	1
130	151	1
87	90	1
107	109	1
10	52	1
1	2	1
4	12	1
131	132	2
115	128	1
65	66	1
29	120	1
72	106	1
150	151	2
22	48	1
7	40	1
5	12	1
