62	70	2
98	98	7
143	144	6
94	99	2
142	144	3
32	34	5
95	95	8
153	153	2
53	53	5
112	112	1
39	39	3
6	6	2
102	120	2
64	65	2
17	18	6
80	92	3
4	4	1
127	127	6
53	57	2
86	86	5
103	103	4
36	36	4
142	142	1
79	94	3
10	10	5
121	121	1
102	102	1
8	10	1
80	80	2
140	142	1
129	129	4
72	72	3
6	22	3
135	136	1
83	83	5
42	42	3
27	29	3
111	115	2
25	55	1
22	23	4
144	144	2
87	87	1
105	105	4
51	58	3
18	18	1
28	28	6
147	147	3
21	21	2
103	104	5
50	57	2
66	66	6
113	113	3
44	44	2
78	93	2
150	150	2
37	38	3
79	80	4
88	88	6
13	13	3
9	9	4
31	31	1
16	18	5
41	42	2
13	51	1
43	43	2
75	105	1
145	146	3
154	154	1
130	131	2
81	84	1
38	38	3
151	152	2
3	4	1
41	65	3
123	135	2
53	54	2
129	133	2
18	19	1
116	116	1
98	113	1
45	45	1
100	101	1
4	86	1
47	47	2
123	128	2
135	135	5
56	57	5
130	130	4
23	23	2
153	154	1
97	97	6
110	110	1
26	82	2
50	51	4
102	104	1
117	117	2
137	142	2
32	32	4
120	121	1
6	75	3
145	145	2
73	73	3
115	115	5
35	35	1
63	64	9
94	94	5
74	74	2
79	97	4
2	2	3
118	118	2
11	24	2
132	132	2
113	137	2
123	153	1
34	34	4
123	124	1
33	33	2
80	88	2
138	146	1
84	84	2
127	128	2
43	65	1
48	48	3
133	133	2
135	141	2
12	81	1
9	11	2
25	80	1
101	122	2
65	65	2
5	11	2
8	8	1
128	129	1
107	109	2
4	32	1
51	66	1
77	81	3
120	122	2
85	109	1
72	102	2
13	17	2
40	57	2
148	148	3
56	67	2
26	26	1
149	150	3
6	7	2
95	97	1
137	137	1
50	50	1
105	106	1
81	86	1
71	71	3
38	39	2
13	19	3
111	111	4
13	14	1
47	48	3
122	122	1
114	114	1
99	99	1
83	99	1
38	76	3
62	62	1
86	87	1
14	24	1
107	107	1
43	51	1
57	57	2
46	46	3
70	106	1
35	36	2
49	49	1
5	30	1
57	68	1
145	147	1
81	81	3
96	96	1
24	24	1
104	105	1
44	45	1
68	68	1
125	125	1
25	82	1
69	73	1
140	141	1
136	136	1
71	119	1
76	76	2
68	94	1
139	144	1
86	88	1
106	119	1
84	85	2
108	112	1
103	108	1
152	152	1
79	84	1
28	63	1
20	21	1
109	109	1
14	14	1
