103	111	1
51	51	5
144	153	5
5	6	8
146	147	3
150	150	7
97	104	1
11	11	3
13	13	3
10	10	2
4	4	1
169	169	6
123	123	8
12	12	4
65	75	2
69	69	4
114	114	8
178	178	3
23	24	6
3	3	2
45	45	6
49	49	3
43	43	8
54	54	1
8	8	5
176	191	1
185	186	4
50	50	3
113	113	4
163	163	4
191	191	5
33	33	2
53	53	2
149	150	2
130	131	1
23	50	2
2	2	1
182	182	4
120	120	1
26	27	2
152	181	3
48	48	10
55	56	3
173	173	3
102	103	1
179	179	5
139	139	4
10	12	2
155	156	4
60	76	1
174	174	1
177	182	8
20	21	1
87	100	2
27	30	1
153	153	3
56	56	1
135	137	2
1	1	3
28	28	3
193	193	4
4	5	2
159	163	2
74	77	2
0	2	4
41	94	3
158	158	3
31	32	1
121	121	6
181	182	1
9	48	1
60	74	2
165	167	1
117	117	1
132	132	6
71	71	4
195	196	1
189	189	2
61	61	5
177	180	2
16	16	1
115	116	3
116	117	2
14	14	6
178	179	1
148	154	2
58	59	1
197	197	1
177	177	2
94	112	3
72	72	3
94	96	1
167	167	4
131	131	1
172	173	1
136	136	1
93	94	2
146	154	1
36	131	1
31	31	3
170	170	3
167	169	1
138	143	3
6	7	3
129	130	1
122	123	1
109	109	2
176	176	6
6	6	4
172	172	3
82	84	1
68	68	2
167	173	5
67	67	2
167	168	5
77	77	2
59	64	2
87	90	2
154	154	4
27	28	2
103	103	3
187	187	2
175	177	2
80	80	1
170	171	2
102	102	3
93	111	1
160	161	2
3	4	1
147	193	1
138	142	2
124	124	2
63	63	1
156	156	2
137	139	2
135	135	2
157	157	2
189	191	1
146	146	1
179	180	3
186	186	3
116	116	3
161	161	1
12	52	2
110	133	1
58	58	3
34	35	1
30	31	1
173	174	2
160	160	2
52	54	2
179	186	1
12	31	1
95	95	4
112	114	1
141	141	4
35	37	1
114	121	2
165	165	1
133	133	2
63	74	1
32	32	1
145	164	2
151	151	2
57	57	2
143	147	1
148	148	5
151	152	1
145	145	1
142	189	1
1	3	2
124	150	1
101	117	1
161	164	2
99	99	3
159	160	1
194	194	1
59	59	1
116	137	1
130	130	2
190	190	2
38	38	3
70	70	1
114	115	3
159	159	1
152	152	1
19	19	3
111	113	1
188	189	1
94	94	1
9	10	2
105	105	2
184	184	1
7	7	2
156	157	1
122	122	4
158	161	1
155	158	1
4	6	3
143	144	1
192	192	2
96	96	2
128	128	2
48	49	1
29	34	1
180	180	1
158	167	3
186	187	1
166	166	1
81	84	2
74	74	1
137	137	2
51	55	1
175	175	1
20	20	1
116	135	1
191	197	2
144	144	1
116	143	1
79	79	2
9	9	2
2	37	2
67	109	1
21	64	1
114	141	1
124	125	2
142	142	2
52	52	2
21	21	1
184	190	1
35	132	1
146	164	1
76	76	1
134	134	1
181	181	1
168	168	2
13	52	1
141	142	1
192	193	1
66	118	1
50	56	1
168	173	1
162	163	1
148	163	1
71	72	1
46	46	1
5	21	1
137	140	1
183	183	1
22	25	1
39	39	1
196	196	1
18	19	1
138	138	1
