38	38	10
6	7	2
78	79	3
85	86	6
13	14	6
150	150	4
17	17	13
146	146	12
139	139	8
53	53	9
81	81	14
43	43	14
63	64	2
23	23	9
121	121	8
84	84	6
117	117	7
64	65	3
76	76	7
141	148	4
124	128	4
47	54	3
80	80	4
130	137	2
42	42	4
32	41	3
15	37	2
72	99	2
83	83	8
48	53	2
118	118	7
8	19	3
65	80	3
142	143	10
55	55	7
66	74	2
4	4	9
112	115	5
8	8	12
15	15	16
107	109	2
144	144	6
51	51	7
69	83	2
137	137	6
154	154	8
141	141	12
22	23	1
14	36	2
142	142	10
30	31	2
10	10	10
131	131	4
123	123	5
65	65	4
50	50	8
27	28	4
37	37	19
41	41	9
25	25	4
40	40	12
53	55	3
94	94	10
25	53	1
16	31	6
128	128	13
79	83	4
30	33	1
90	90	4
112	121	2
85	98	11
14	15	4
44	53	1
71	71	14
102	103	8
43	44	2
66	66	6
20	20	10
76	79	5
45	102	3
136	152	4
116	116	6
48	55	2
96	99	3
15	71	4
66	67	11
105	111	3
115	115	2
104	105	2
50	77	2
56	56	11
103	113	4
27	43	7
67	67	6
101	101	6
73	95	2
8	11	3
87	90	1
11	39	2
46	46	13
65	123	3
77	133	1
43	78	2
86	98	2
13	13	3
86	101	2
17	18	2
4	6	11
14	21	1
39	39	14
26	26	5
25	32	3
148	148	9
54	55	3
36	54	2
63	63	10
127	127	7
45	46	1
19	19	15
43	79	2
126	126	2
77	78	5
102	102	5
12	38	1
44	44	12
143	143	3
34	39	1
73	74	5
136	136	8
32	32	2
129	148	1
87	93	2
105	105	8
35	85	1
69	69	6
52	52	6
78	84	1
33	34	4
112	142	3
120	120	1
4	5	9
125	125	4
44	46	2
97	99	5
125	149	1
95	99	3
14	14	9
88	88	8
67	81	1
53	64	2
123	124	3
22	22	3
80	82	5
86	97	2
74	74	6
134	135	2
65	76	2
104	104	8
25	56	2
27	54	2
54	56	2
18	18	4
103	105	6
100	100	8
48	48	4
28	28	5
106	121	1
84	98	1
147	148	4
51	78	4
112	113	2
135	136	2
148	150	5
119	141	2
12	22	2
115	134	5
149	149	5
34	35	2
117	118	2
116	119	4
114	114	7
24	27	2
34	36	3
37	118	2
7	7	1
10	11	3
122	122	4
120	122	3
87	87	12
53	54	4
135	135	8
75	75	9
8	10	5
5	5	13
148	154	6
98	99	3
25	116	1
109	114	1
122	134	1
69	126	2
12	12	10
109	109	3
3	3	2
132	132	2
83	84	2
99	99	10
12	13	4
73	73	1
139	140	6
49	76	2
36	36	1
81	82	5
141	149	4
72	73	4
92	92	8
93	94	4
29	29	10
150	151	4
34	34	9
140	142	1
5	6	7
62	62	11
112	112	4
108	109	3
72	72	9
77	77	14
21	29	2
47	47	11
128	130	4
84	85	2
110	113	7
153	153	4
47	48	2
110	111	1
57	58	5
68	78	2
75	78	1
7	11	2
92	93	2
33	48	2
44	78	4
31	31	14
24	25	3
129	129	3
107	121	2
42	99	3
49	77	1
30	30	3
145	146	3
70	70	3
16	30	1
65	75	2
150	152	3
78	83	3
57	57	11
77	79	1
136	143	2
67	70	2
43	85	3
82	82	11
70	128	3
65	67	4
49	78	4
85	85	14
72	86	1
71	74	4
141	144	2
111	141	1
95	100	1
36	53	1
123	134	4
97	97	5
25	26	3
108	122	1
54	54	4
49	64	4
131	132	1
31	116	3
71	91	1
41	100	1
35	35	7
52	55	2
34	85	1
65	66	5
87	88	4
98	98	2
22	24	1
69	70	1
41	43	1
64	64	8
20	22	2
73	78	1
67	83	1
33	33	6
75	76	2
31	33	2
140	140	2
103	103	11
24	28	1
68	68	4
96	96	8
132	138	5
141	142	2
145	145	3
106	107	1
45	73	2
134	134	4
107	107	3
78	78	11
79	79	4
50	51	6
125	126	3
106	109	1
93	93	5
9	11	5
135	138	1
9	9	6
111	111	2
63	122	1
104	144	1
67	149	2
119	124	1
20	28	2
95	95	6
7	13	2
113	122	1
68	86	1
85	94	1
123	128	2
58	58	3
16	23	2
25	98	1
98	117	2
5	21	2
34	44	3
134	145	1
102	107	2
28	29	4
18	23	2
49	49	5
26	57	2
43	50	2
146	152	1
7	10	2
30	43	2
27	42	4
90	93	1
34	97	3
76	78	4
113	114	4
30	32	3
103	111	3
147	147	4
24	29	1
94	95	2
45	96	1
148	149	2
78	85	1
24	24	6
66	69	3
37	38	2
15	17	1
115	141	3
113	113	2
106	106	4
12	31	1
85	97	3
99	116	2
94	99	2
97	98	2
15	46	6
113	138	1
129	130	4
1	2	1
110	110	5
124	126	3
130	132	3
108	108	2
74	78	2
18	19	1
89	89	1
100	117	1
75	85	1
138	138	5
119	119	3
67	73	1
111	112	2
21	21	1
16	16	5
27	30	3
110	112	1
149	151	2
11	11	7
4	31	2
111	122	2
15	16	5
109	141	1
98	113	3
23	24	1
32	43	1
14	20	1
69	75	1
70	85	1
92	107	1
118	129	1
63	66	1
94	100	2
64	80	1
71	73	2
45	85	1
134	137	1
125	127	2
49	53	1
27	29	2
81	83	1
79	80	1
96	100	1
88	90	1
151	151	1
105	109	2
27	27	4
18	44	2
68	80	2
77	83	2
130	130	5
79	81	3
64	126	2
21	35	1
31	57	1
55	56	2
68	69	1
51	52	2
67	69	3
27	58	1
86	94	2
130	148	1
92	95	2
34	56	1
68	83	1
46	47	1
12	20	1
146	149	1
22	28	2
74	84	2
75	86	1
44	99	2
143	144	2
26	29	1
76	77	1
103	112	1
12	14	1
88	93	2
78	81	1
36	76	1
70	75	1
145	150	1
149	153	1
41	46	1
28	30	2
101	102	1
31	47	1
45	86	1
21	57	1
6	6	3
38	39	2
86	102	1
108	111	1
111	121	1
110	142	1
56	57	1
114	117	1
127	128	1
54	63	1
8	9	1
51	53	1
132	133	1
65	68	1
13	15	2
5	13	1
39	40	1
6	13	1
54	57	1
6	11	1
26	32	1
49	80	1
15	31	2
21	23	1
22	29	1
15	36	1
24	41	1
71	72	1
115	116	1
26	30	1
68	79	2
86	87	1
33	55	1
13	47	1
63	95	1
123	125	1
