74	79	6
42	42	7
59	59	14
111	111	27
96	96	27
85	86	16
102	102	8
26	27	5
97	97	22
60	64	2
47	47	10
107	107	6
109	110	3
110	111	3
74	74	10
75	79	2
43	44	10
51	51	17
106	106	5
110	110	17
33	60	1
86	86	6
79	80	4
92	94	4
103	103	17
77	96	2
22	23	12
76	77	9
29	29	11
71	71	14
68	69	9
40	40	23
75	75	20
92	92	11
100	101	11
89	89	7
103	104	2
34	36	3
20	23	4
85	85	7
78	95	5
54	54	12
45	45	23
100	100	18
21	21	9
24	24	1
90	90	15
66	67	8
33	33	8
91	91	5
52	53	6
34	34	16
113	114	1
73	110	2
68	72	2
40	41	5
84	84	6
66	73	2
53	54	3
95	95	10
44	45	3
32	32	11
81	81	14
26	26	8
68	68	18
48	49	3
41	41	17
20	20	12
90	91	7
76	79	6
94	94	17
99	99	17
56	56	20
72	74	2
69	69	11
21	25	2
37	39	6
60	108	2
51	52	6
66	66	11
91	94	3
25	25	9
77	77	18
110	112	1
101	102	8
43	43	18
65	66	6
55	55	12
23	24	3
31	33	2
46	51	3
109	109	5
73	102	2
72	73	6
19	31	3
39	39	10
93	93	10
60	60	9
79	79	7
91	92	8
37	37	6
98	98	12
24	65	1
72	75	2
36	37	3
70	71	5
67	68	3
89	90	14
104	105	5
53	53	12
74	86	1
107	108	6
31	113	1
83	84	15
96	97	5
70	70	3
65	65	10
74	76	2
88	90	7
113	113	5
39	58	4
27	29	6
43	45	2
87	93	1
31	32	2
81	82	3
72	72	10
77	106	7
19	20	4
56	62	3
30	31	2
53	58	4
88	88	12
91	93	2
93	94	1
77	87	2
76	93	1
61	62	1
47	52	7
105	109	3
88	92	1
48	48	8
108	108	12
90	96	6
22	57	2
67	67	12
76	87	3
22	67	3
82	85	4
27	27	4
55	57	3
37	40	2
28	28	5
29	112	3
59	60	3
38	38	6
61	108	4
75	76	2
20	29	4
46	46	12
90	95	2
47	48	4
73	91	2
64	74	5
82	82	2
38	39	1
84	85	4
31	50	3
78	78	6
82	83	4
67	69	3
98	99	9
50	50	4
75	95	2
93	95	7
49	49	4
101	101	3
41	42	1
35	59	1
77	97	1
21	30	6
71	85	2
64	64	5
83	85	3
20	113	4
52	52	2
53	57	1
37	38	2
108	109	2
112	113	6
61	61	14
79	81	1
42	43	3
41	56	2
104	104	9
37	94	2
25	111	1
63	65	4
105	105	6
22	22	3
50	51	3
99	100	3
97	100	2
52	60	2
77	95	2
26	96	1
101	103	3
80	80	5
73	75	3
60	67	1
76	76	2
49	51	1
78	79	5
35	35	2
29	30	2
93	102	2
73	73	11
63	74	3
61	65	1
57	58	2
78	101	2
25	60	2
58	108	2
41	53	1
27	50	1
114	114	2
100	110	1
21	56	2
90	92	3
60	61	2
89	91	2
34	35	1
33	34	1
55	59	2
56	57	4
24	26	1
87	87	5
105	106	3
99	101	2
63	63	3
55	73	1
32	36	1
26	30	3
40	94	1
83	101	1
82	84	3
95	96	1
61	66	2
98	100	1
74	94	2
98	110	1
97	102	3
21	23	1
71	72	2
63	64	1
93	100	1
60	65	1
95	98	3
30	30	3
109	112	1
44	44	2
35	36	3
30	112	1
62	71	1
75	94	1
20	112	2
32	33	2
73	74	2
26	29	1
73	79	1
27	110	2
108	110	1
39	75	1
40	93	2
80	81	1
94	95	2
36	36	2
31	111	1
77	98	1
49	50	1
77	78	1
80	83	2
74	75	1
91	110	1
