51	51	1
12	12	4
88	88	6
29	29	8
179	179	3
203	205	1
75	75	6
69	69	6
59	59	2
81	82	3
223	224	5
5	6	4
47	118	2
2	2	1
136	136	5
199	199	6
206	207	1
33	33	7
4	20	3
76	78	2
47	112	4
78	78	1
196	218	2
178	178	7
72	72	7
107	107	4
33	34	3
14	194	1
176	176	2
56	56	8
40	49	3
65	65	2
148	203	1
231	231	6
228	228	9
236	236	5
55	56	4
175	182	5
18	18	5
81	81	6
32	57	2
175	193	1
118	118	9
21	21	7
73	73	2
40	41	3
228	229	4
200	200	4
71	113	2
147	147	2
219	219	4
60	60	7
13	78	3
138	138	1
133	133	2
12	66	2
104	125	1
20	20	8
128	128	3
72	119	5
44	44	5
54	54	12
64	72	2
49	50	5
235	235	4
169	230	2
159	159	5
38	38	12
13	14	2
45	45	6
112	113	2
151	151	5
109	109	5
107	118	1
188	207	1
188	188	3
49	78	1
37	38	3
155	155	2
77	77	1
63	63	4
10	27	2
191	191	5
18	19	3
163	163	5
23	23	4
28	28	2
195	196	5
224	224	7
148	148	5
44	63	1
45	46	3
183	183	3
34	34	3
214	214	2
156	157	3
224	227	2
10	10	6
141	141	12
217	219	2
162	163	4
104	104	10
50	53	1
242	242	7
212	212	2
203	203	4
9	9	3
40	42	1
204	204	4
26	26	12
153	153	6
41	42	3
232	233	1
46	112	1
171	171	1
29	31	4
84	84	11
154	156	2
169	169	3
60	68	4
3	20	2
103	126	1
125	126	1
37	37	2
190	190	5
50	50	4
55	86	1
50	51	4
73	120	6
102	124	2
227	228	2
79	82	5
234	234	1
52	52	3
4	21	4
195	195	2
234	235	5
18	159	1
192	192	2
86	86	8
67	67	6
50	76	1
215	216	2
0	0	5
174	201	1
162	162	4
113	114	1
25	25	9
14	14	2
106	106	3
20	69	2
199	200	2
97	97	1
101	102	3
80	80	2
139	139	3
55	55	4
15	15	7
213	213	3
85	109	1
47	47	5
221	221	3
193	195	4
27	27	3
134	135	2
211	211	6
166	166	2
155	156	6
148	150	1
102	102	7
197	197	2
49	79	6
43	43	7
11	11	4
85	100	2
133	136	3
73	74	2
31	32	1
19	19	3
180	181	2
63	64	2
68	69	2
221	222	2
195	203	2
105	105	5
225	225	1
197	224	1
99	121	2
202	202	3
31	34	2
75	84	4
201	201	5
203	206	2
218	218	1
79	79	4
16	17	2
165	221	2
70	70	5
99	99	1
135	135	5
3	65	1
196	196	5
70	112	2
122	123	1
47	75	1
185	209	3
208	216	1
11	28	1
56	66	1
99	100	2
150	150	1
131	131	2
121	121	1
85	85	2
25	55	2
164	183	2
131	144	1
114	114	2
46	46	2
227	227	7
110	121	1
54	177	1
193	193	3
204	208	1
191	192	1
144	144	5
42	42	7
109	130	3
117	117	5
196	197	3
71	72	1
17	17	2
10	29	1
109	110	1
8	8	2
80	81	2
71	71	3
70	72	1
157	181	2
220	221	4
52	53	2
146	146	1
28	88	1
74	74	1
168	169	1
211	212	1
8	34	1
64	69	2
113	120	1
144	145	1
6	6	4
64	64	6
177	177	2
77	78	3
172	172	2
201	233	1
108	124	1
13	13	7
111	122	2
36	37	9
8	16	2
47	73	3
3	34	1
217	217	4
76	76	2
36	36	4
192	215	3
66	80	1
7	7	3
197	198	1
181	209	3
127	127	4
153	154	3
100	100	4
166	167	3
138	139	1
11	86	2
43	44	5
223	223	4
49	77	2
111	111	1
191	196	3
198	198	7
144	241	1
4	4	1
20	55	2
157	158	3
187	222	1
40	40	4
207	219	1
204	206	1
182	183	1
107	126	1
69	70	2
175	219	4
59	60	3
23	24	1
182	182	3
41	41	5
198	199	2
235	236	1
176	177	2
24	172	1
139	140	3
105	205	3
7	213	1
237	237	4
62	63	3
53	53	2
220	220	3
28	29	2
239	239	1
179	180	1
210	210	4
39	39	4
108	108	2
212	214	1
137	137	3
103	128	5
174	174	2
76	127	1
98	104	2
180	180	2
163	210	2
36	39	1
211	213	3
154	154	1
172	173	1
115	116	2
235	237	1
234	236	1
214	215	1
230	230	3
160	160	4
156	156	2
206	211	1
240	240	1
56	116	1
9	10	2
37	115	3
207	208	1
23	60	1
232	232	1
103	103	1
24	24	1
48	48	2
68	68	1
66	67	1
56	57	1
44	73	1
159	160	1
3	3	1
79	80	1
156	161	1
126	127	2
32	32	6
76	77	1
203	210	2
125	125	1
173	175	1
66	66	1
110	120	2
174	200	1
101	122	1
165	222	1
149	149	3
20	65	1
185	223	1
51	56	1
2	8	2
170	171	1
213	218	1
173	173	1
2	5	3
25	202	1
220	222	1
61	62	1
48	72	1
203	204	1
55	85	1
102	122	1
47	72	1
3	42	1
1	1	1
217	218	1
25	27	1
206	206	1
9	16	2
208	208	2
236	237	1
113	113	1
185	186	1
28	84	1
89	211	2
45	75	1
62	68	1
7	8	2
112	112	1
224	225	1
159	178	1
164	164	3
121	190	1
201	211	1
27	43	2
168	168	1
95	95	2
51	69	1
134	134	1
180	182	1
123	127	1
181	181	2
78	79	1
6	13	1
58	58	1
15	65	1
36	53	1
16	16	1
205	205	1
188	197	1
168	178	1
49	49	1
61	68	1
116	117	1
153	208	1
194	194	1
0	1	1
184	185	1
51	78	1
32	33	1
162	176	1
