128	129	3
36	36	3
104	104	7
27	27	4
121	122	1
117	122	1
38	77	1
115	115	6
92	102	3
100	100	5
93	94	3
20	72	4
137	137	10
116	117	1
76	101	10
87	100	1
27	73	3
137	138	2
121	121	5
7	7	11
134	134	14
76	94	4
2	2	4
132	132	6
11	12	2
34	34	6
81	81	4
29	30	8
1	68	1
30	30	2
0	0	4
77	77	13
118	118	10
78	87	1
110	110	5
134	135	11
124	124	3
75	76	4
138	138	2
76	76	5
105	105	6
117	117	6
16	16	3
88	88	7
73	73	2
107	107	3
4	4	3
28	28	3
86	87	1
112	113	4
118	119	3
136	136	5
89	89	4
74	74	3
8	13	3
16	17	3
94	94	8
140	140	5
37	37	7
120	120	5
72	72	4
23	26	2
109	109	3
92	95	2
135	138	6
97	97	8
123	123	13
7	14	1
16	25	3
82	82	3
6	6	3
71	71	4
130	130	2
90	90	10
95	95	4
78	85	2
85	85	7
103	113	2
93	93	6
24	26	2
103	115	5
19	23	3
20	21	3
126	126	8
87	88	2
111	111	5
79	79	3
3	22	3
18	18	6
10	10	3
127	130	1
33	33	2
9	30	2
3	3	7
103	103	3
17	18	2
108	123	3
133	134	3
112	112	2
136	140	1
89	126	1
2	7	4
2	16	1
11	11	1
114	123	2
23	23	12
135	135	3
84	84	2
113	113	2
124	125	5
120	121	1
21	21	4
101	101	3
111	112	7
29	73	2
7	9	4
88	99	2
71	72	1
122	123	5
84	85	1
122	122	8
80	106	1
71	101	2
34	36	1
75	77	2
14	21	3
87	87	1
133	133	8
128	128	6
1	2	4
117	121	1
5	7	2
73	87	2
101	103	2
100	101	3
18	19	7
12	12	3
23	80	2
136	137	1
121	123	7
126	127	1
86	86	7
108	108	4
87	92	3
136	138	2
110	111	5
28	31	2
101	107	3
106	106	3
125	125	3
24	24	4
83	83	1
78	82	3
20	24	2
17	29	3
111	121	2
91	91	2
94	138	2
85	86	2
129	131	1
12	15	2
1	1	3
15	15	4
71	81	2
86	107	2
23	24	3
75	75	4
83	106	2
89	111	3
22	22	7
119	119	2
19	19	3
132	135	1
74	111	1
38	38	1
77	82	2
34	35	2
135	137	1
16	18	2
127	127	3
32	32	3
3	21	1
116	116	1
87	105	2
76	77	4
20	20	6
76	102	1
127	129	1
66	84	1
7	10	2
114	117	1
17	17	1
87	111	1
29	29	2
7	12	1
2	17	1
91	98	1
9	9	3
115	129	2
33	36	1
124	126	2
0	23	3
31	87	1
102	102	2
132	134	1
139	139	6
137	140	1
131	131	1
88	124	1
116	123	2
95	117	4
28	30	1
14	73	2
18	125	1
106	121	1
108	109	1
77	99	1
95	96	1
16	20	1
8	8	2
132	138	1
104	106	1
5	5	1
105	106	1
