2	3	2
96	96	8
39	39	8
69	69	9
0	0	3
41	42	3
11	38	3
74	111	1
91	92	5
23	27	4
58	58	3
79	79	10
78	78	8
45	45	4
11	11	8
26	26	10
68	77	3
27	97	5
102	105	1
85	86	8
13	13	7
97	97	7
62	62	6
73	74	1
17	17	8
47	47	11
68	68	8
91	91	5
85	91	3
25	25	4
88	91	1
70	70	4
100	102	2
57	74	1
79	115	3
132	132	7
120	122	4
28	28	1
15	84	2
22	35	4
33	33	7
12	25	2
73	73	8
31	78	3
126	128	5
8	36	2
61	78	2
78	121	4
15	48	2
75	75	7
125	126	5
35	35	8
31	31	5
101	109	1
5	25	2
9	10	3
114	114	4
97	98	8
26	27	4
12	34	2
23	24	3
83	83	5
93	93	11
107	111	1
61	72	1
2	2	7
124	125	3
38	38	1
87	87	6
14	14	6
3	3	2
27	27	7
26	81	3
27	28	2
66	66	5
16	16	5
12	43	5
29	33	6
77	77	3
98	105	1
60	60	7
65	65	10
29	31	4
106	107	10
56	56	6
68	69	1
25	80	1
6	6	1
9	71	3
72	74	2
72	72	5
61	63	1
94	94	7
68	71	1
80	80	2
36	36	14
55	55	4
87	88	5
8	8	8
61	61	8
46	46	9
27	76	7
51	54	3
46	47	4
109	109	3
117	117	7
59	82	4
57	58	6
93	100	2
57	57	2
21	21	1
9	74	2
6	96	1
35	36	3
61	65	2
12	12	7
105	105	4
47	76	2
59	60	2
99	99	6
106	106	4
78	79	3
29	29	9
11	81	1
94	96	3
33	35	3
22	22	1
47	66	5
38	39	2
96	97	4
50	50	3
37	40	1
133	134	2
89	92	2
24	24	3
34	63	1
64	64	7
92	132	3
26	76	3
26	80	3
48	50	1
99	100	1
28	80	2
20	20	8
17	46	3
34	34	3
44	45	1
1	1	5
103	103	4
93	108	1
121	122	2
128	131	3
98	99	3
47	73	5
113	113	2
10	10	5
4	70	2
50	56	2
92	109	3
79	80	2
90	91	1
37	39	2
119	119	2
7	97	1
6	7	1
42	42	1
92	106	1
77	113	3
30	30	6
40	40	3
48	48	2
134	134	2
4	43	1
118	118	1
41	57	2
4	4	3
83	84	1
126	127	5
95	95	1
23	23	1
59	81	2
44	49	1
8	16	1
67	67	2
81	115	1
12	13	2
94	95	1
88	88	3
89	89	4
10	107	3
74	74	2
58	63	1
61	77	3
82	82	1
44	47	1
95	96	4
56	58	1
110	110	2
27	46	4
88	90	3
24	81	1
62	72	2
32	32	2
47	48	4
9	68	1
41	41	4
48	59	1
62	66	1
8	9	4
102	102	4
44	44	5
86	87	1
26	29	2
6	100	3
7	96	1
43	43	9
130	130	2
35	37	2
83	85	1
45	56	1
18	19	2
30	47	1
49	49	1
16	83	1
33	102	2
41	114	2
63	64	2
82	84	1
130	134	1
123	123	3
126	129	2
70	72	1
39	49	3
131	132	1
121	121	1
19	19	3
84	84	4
11	93	1
18	18	1
85	85	1
108	132	3
114	120	2
64	65	2
1	3	3
46	62	1
55	56	1
82	83	2
120	120	1
10	19	1
75	108	5
67	77	1
131	131	2
56	57	2
31	32	2
38	40	3
17	18	1
3	48	1
114	116	1
81	81	1
7	7	5
81	82	1
25	81	1
37	38	1
59	59	4
63	67	4
115	131	2
12	39	2
66	102	1
122	123	1
127	128	1
19	22	1
104	107	1
101	101	1
42	114	3
6	16	2
62	63	1
30	76	1
20	36	1
25	75	1
95	104	1
84	85	1
84	126	1
63	63	2
86	86	2
90	90	1
0	3	1
75	125	1
27	30	1
38	48	1
28	31	1
66	95	1
79	82	1
54	55	1
76	77	1
24	25	2
9	9	3
106	109	1
28	29	1
71	73	1
31	37	1
85	90	1
78	81	1
98	98	1
10	14	1
128	129	1
29	30	1
