155	156	3
18	18	25
157	157	10
7	7	18
22	22	9
27	28	3
39	41	3
48	48	18
96	106	2
170	170	10
73	75	2
55	55	8
11	11	22
10	10	27
144	145	5
26	26	14
23	23	20
163	170	2
7	33	4
138	138	2
22	23	5
89	90	2
102	125	1
134	134	19
45	45	23
108	109	9
1	2	11
127	129	8
37	37	22
141	141	5
149	149	4
132	132	5
95	95	10
67	67	8
15	16	1
159	159	16
128	130	1
25	25	11
2	3	13
117	121	6
1	1	38
151	152	8
50	50	16
24	25	9
97	97	17
155	155	6
69	70	5
2	2	12
43	43	37
80	81	11
101	103	2
7	8	1
52	52	13
107	108	6
12	12	4
28	28	6
169	170	4
18	20	4
120	121	6
129	159	3
161	161	5
130	130	8
44	44	11
20	21	13
56	111	3
76	76	2
86	88	5
106	107	4
70	70	10
109	109	15
3	3	39
64	64	7
24	27	4
111	111	10
56	56	14
132	133	6
139	139	18
21	23	6
114	114	15
143	143	3
20	20	11
82	82	18
41	41	8
92	93	10
96	96	18
3	27	2
160	160	16
24	24	26
42	44	5
24	146	2
101	102	6
142	150	1
167	167	7
23	88	2
147	148	3
35	36	5
79	79	3
47	47	10
122	129	2
145	145	12
93	93	2
142	143	3
128	161	3
5	6	8
101	104	3
18	66	1
2	5	4
146	146	5
21	22	4
80	83	2
63	66	3
13	13	14
17	17	12
20	68	5
150	159	4
79	80	4
89	89	3
33	37	3
36	36	19
101	101	8
151	151	6
19	19	8
41	45	4
128	156	1
4	5	5
73	73	6
140	142	4
42	42	18
137	137	7
39	40	14
88	88	9
13	15	12
0	0	12
152	154	5
142	165	9
19	23	8
40	40	13
123	124	4
107	107	3
34	36	3
67	70	2
129	129	7
152	152	5
164	164	7
5	5	12
90	92	1
9	10	3
75	75	12
10	49	4
133	134	20
49	110	5
68	69	5
3	4	10
100	101	2
42	43	5
53	53	10
76	79	5
113	113	16
2	27	2
136	136	20
165	166	8
108	108	2
6	6	9
38	38	10
132	147	2
63	63	6
135	135	12
148	148	5
84	84	10
84	87	7
151	153	1
45	51	2
158	158	30
83	83	5
125	125	2
57	57	6
145	146	5
144	144	8
110	110	21
53	146	1
6	7	13
114	115	13
153	154	9
74	74	11
128	128	6
27	27	6
8	9	6
64	69	2
93	94	5
9	9	7
66	69	1
168	169	6
48	49	5
53	54	14
53	64	9
14	15	12
125	126	11
52	57	5
21	21	13
62	62	11
74	107	2
76	90	7
34	34	23
133	138	3
131	164	6
135	136	4
142	142	14
144	148	6
110	112	1
71	71	2
100	100	5
44	45	9
41	68	2
152	153	14
81	82	13
44	49	1
91	91	7
140	141	6
127	128	1
4	4	10
143	165	1
46	46	31
159	160	1
9	11	3
141	149	4
116	116	12
157	158	4
117	169	3
87	87	13
49	50	4
106	106	9
118	147	2
4	18	9
118	121	2
63	114	6
54	54	4
2	166	1
129	130	6
163	164	5
49	49	5
95	96	4
71	72	4
8	76	6
115	115	8
24	160	2
65	67	4
11	12	5
10	53	1
119	120	5
6	33	1
149	150	11
13	108	3
150	151	5
5	7	2
35	35	7
154	154	11
122	122	5
56	90	2
98	98	5
35	44	2
145	147	2
129	154	1
41	42	3
134	139	2
10	11	3
40	41	5
65	66	1
169	169	7
77	80	1
118	118	5
137	138	2
66	68	5
168	168	1
90	105	5
85	85	4
117	117	4
117	119	4
72	72	4
55	56	6
0	1	13
50	51	3
153	153	15
127	127	4
7	12	3
86	87	10
15	15	9
24	157	3
44	70	5
146	162	4
74	76	3
84	89	2
158	159	3
126	126	8
56	64	1
163	163	13
34	35	2
72	75	1
23	84	3
111	112	2
19	20	1
1	165	1
1	166	1
112	112	16
102	103	2
7	74	2
139	140	4
0	2	1
8	48	2
57	111	5
12	15	2
95	103	2
34	47	2
119	119	4
12	110	2
52	55	3
73	74	3
166	166	7
147	147	3
92	92	4
66	67	4
143	162	3
142	153	2
24	159	2
133	133	11
143	144	2
139	142	1
51	57	6
143	169	1
83	84	2
90	90	5
99	99	9
58	71	5
157	159	1
12	53	2
105	105	3
62	63	1
91	94	1
102	104	2
124	125	3
102	102	4
41	47	4
16	17	6
94	94	2
97	98	1
16	16	9
80	80	9
11	47	1
76	78	3
45	68	2
82	83	1
125	142	1
13	16	2
14	14	6
66	66	2
8	75	2
86	86	3
77	85	1
26	27	2
35	42	1
132	151	1
34	42	4
24	144	2
11	13	4
72	73	2
56	57	2
77	77	14
10	15	3
42	48	4
0	150	2
162	163	4
104	104	5
19	24	2
161	165	6
18	23	1
4	35	5
77	84	2
15	41	1
78	78	4
63	69	2
4	26	1
21	24	6
89	149	1
132	134	1
117	151	1
37	38	5
8	8	5
136	137	5
98	99	1
120	120	4
19	63	2
50	52	3
104	105	6
33	33	5
120	131	3
14	16	4
5	38	1
17	18	5
124	124	2
79	105	1
57	58	4
38	39	4
109	111	3
85	86	2
94	95	3
44	68	2
115	116	2
103	105	1
13	14	1
71	73	3
143	167	1
167	169	3
18	19	2
56	114	3
156	157	3
88	89	3
90	93	3
40	48	3
18	22	5
69	107	4
69	108	1
41	44	1
53	56	3
126	127	4
103	103	9
3	35	1
126	153	2
129	141	4
149	168	1
47	49	4
155	157	1
14	66	1
4	16	2
64	65	3
50	110	2
22	144	2
134	135	3
39	66	2
44	112	3
154	155	1
43	44	4
56	103	2
55	57	3
24	158	3
125	131	1
23	144	4
45	112	1
74	75	2
123	125	1
45	65	4
80	82	1
0	10	2
65	68	1
99	100	3
16	64	1
116	117	1
123	170	1
16	18	1
25	26	2
103	125	2
78	79	2
97	99	1
128	155	3
148	149	2
3	6	3
118	143	3
162	167	1
35	43	1
15	32	1
73	104	4
123	127	1
88	99	1
103	104	1
144	162	3
108	110	1
147	160	1
84	85	1
70	71	4
132	148	1
61	61	1
103	124	1
112	113	2
87	89	3
149	151	1
51	52	1
13	64	1
131	143	2
132	135	2
97	116	2
39	39	3
23	63	1
132	143	3
131	144	1
126	128	2
62	67	2
150	150	5
148	154	1
46	51	1
2	25	1
145	162	2
19	21	1
55	116	3
113	114	3
40	46	1
146	147	1
17	19	2
47	48	1
145	166	1
20	23	1
113	116	1
106	108	2
36	37	1
23	77	1
67	68	3
156	156	2
3	18	1
127	130	2
4	9	1
47	52	1
87	88	1
11	52	1
105	106	2
37	47	1
13	52	1
110	111	1
11	35	1
51	51	1
2	165	2
35	37	1
52	71	2
62	115	1
65	65	1
46	68	1
47	50	1
117	167	1
6	32	2
140	140	1
99	103	1
92	94	1
123	123	1
66	70	1
0	11	1
24	166	1
165	165	1
18	65	1
