192	192	24
30	30	14
245	245	15
202	202	18
36	37	8
14	14	12
156	169	2
166	166	11
74	77	3
23	24	5
185	223	5
149	172	3
4	116	3
226	235	2
78	78	15
27	29	3
78	119	2
248	248	5
48	48	14
165	195	3
225	226	2
111	173	2
158	159	4
8	8	15
51	56	6
107	107	12
200	200	23
111	111	10
81	83	3
178	180	1
206	211	3
7	8	7
70	70	12
183	183	7
99	99	12
99	108	1
216	218	5
175	175	16
11	11	11
218	231	2
155	155	29
4	4	4
72	72	7
112	113	11
2	3	1
110	110	17
246	247	1
34	56	11
98	98	7
153	153	33
210	210	3
186	189	4
201	201	14
108	236	1
57	58	1
156	156	34
111	112	3
206	206	13
213	215	4
235	235	7
49	49	13
23	43	2
111	245	3
175	178	3
4	5	1
85	85	8
109	112	1
162	162	23
170	188	1
113	113	16
61	61	5
214	220	2
233	233	4
241	241	4
115	115	4
223	223	6
32	32	8
75	75	5
19	19	6
162	163	5
82	84	5
196	196	5
99	100	6
77	78	3
220	220	10
223	228	4
191	192	8
219	219	10
204	204	14
165	165	7
45	156	2
232	232	11
151	201	2
160	160	6
96	96	5
151	151	22
19	48	2
157	157	11
173	178	3
13	13	1
28	32	2
20	36	1
227	227	16
214	214	24
81	81	13
203	223	4
216	216	21
109	109	19
30	31	5
118	118	4
152	152	8
197	198	3
112	112	9
194	195	4
64	65	5
168	173	1
190	197	1
55	55	11
94	94	7
149	150	4
27	28	3
212	212	9
173	173	24
207	207	15
36	36	9
34	34	12
224	225	7
12	110	5
102	102	7
155	156	4
95	95	10
188	190	2
51	51	13
40	40	18
57	57	7
46	46	11
201	202	2
234	234	11
31	31	13
240	240	7
49	62	3
44	45	3
191	193	2
191	191	4
214	215	1
77	77	13
213	214	12
89	89	8
101	103	2
231	231	2
103	107	1
160	172	5
69	69	10
10	10	10
186	187	3
237	237	6
205	205	18
114	115	3
180	180	12
93	93	5
242	242	1
58	58	3
187	187	3
7	9	3
110	114	4
24	26	3
9	9	16
6	7	4
178	179	12
246	246	8
116	116	5
39	65	7
204	205	3
230	230	6
43	43	15
235	237	1
66	67	2
26	26	14
182	183	8
49	50	5
200	201	7
181	213	3
87	87	6
95	96	4
203	203	7
101	101	7
174	175	1
44	44	11
96	102	1
203	204	3
60	60	3
188	188	5
97	98	3
150	150	9
178	197	1
100	100	3
179	180	3
219	220	1
198	200	4
163	185	3
18	19	2
172	172	3
170	181	1
226	226	5
5	13	1
68	145	2
244	244	15
50	51	4
106	106	7
208	208	26
28	28	8
165	166	5
23	23	13
190	191	5
167	167	10
196	197	7
90	90	7
86	88	2
64	64	10
42	43	7
48	81	1
9	10	5
52	52	6
26	54	1
205	228	2
103	103	7
66	66	7
117	117	8
16	17	2
247	247	6
12	77	2
144	144	2
184	185	3
19	31	3
168	168	10
89	90	4
91	91	5
105	114	1
37	37	17
169	169	9
214	221	4
216	231	3
74	74	3
25	207	1
17	18	2
216	220	1
118	119	3
231	245	3
168	169	3
21	67	4
17	17	9
114	114	21
16	16	15
179	195	2
222	222	11
98	99	3
178	178	12
167	168	6
113	245	2
6	6	10
105	105	1
187	188	7
227	228	5
6	11	5
197	197	3
151	152	6
109	110	6
180	181	7
228	229	2
229	230	6
108	108	8
113	114	1
54	54	19
1	1	8
24	24	8
185	185	7
241	242	4
82	106	1
195	195	11
213	213	8
19	21	2
163	191	1
161	162	6
11	12	4
154	154	10
163	163	4
19	22	1
84	84	5
59	59	2
54	55	7
160	162	1
207	229	3
42	42	6
71	72	4
239	242	1
176	178	4
182	189	1
60	61	7
80	80	5
49	83	1
229	229	4
22	22	10
26	28	3
15	16	3
76	101	2
184	184	8
68	69	2
223	224	14
26	32	1
104	105	9
95	97	2
222	223	4
60	63	4
11	222	1
186	186	10
225	225	10
30	37	1
15	15	13
42	44	1
34	116	4
65	66	2
41	54	1
51	218	2
147	147	8
185	222	1
164	164	14
80	81	3
194	194	5
208	223	1
181	182	7
67	67	4
102	104	1
27	27	17
61	62	3
159	159	12
154	155	5
35	36	6
41	41	3
37	40	1
185	186	4
217	218	2
224	224	6
31	32	3
97	97	3
41	45	2
225	232	4
59	72	3
209	215	1
57	152	3
157	158	1
199	199	9
46	155	2
24	35	2
228	228	6
48	216	2
186	190	1
205	206	4
78	109	1
5	5	16
230	240	3
200	207	3
189	189	6
208	209	4
51	52	4
50	50	5
231	246	5
68	68	7
171	194	3
32	33	3
179	202	2
221	221	9
68	110	2
47	110	1
82	83	4
215	215	12
218	220	4
72	74	1
79	79	2
167	169	2
211	211	10
101	102	1
110	111	1
110	113	3
193	194	1
64	66	2
41	47	1
14	15	2
10	26	1
180	182	1
43	44	1
233	234	4
12	118	3
176	176	6
145	148	3
110	179	1
20	48	1
181	184	6
73	97	1
221	222	4
79	105	3
90	107	5
22	42	1
68	70	2
164	173	1
17	20	1
25	26	4
84	90	5
211	212	1
179	179	3
59	62	1
217	217	2
20	20	8
207	224	1
84	88	2
2	2	5
231	232	1
107	108	2
20	21	2
6	30	3
249	249	2
181	183	3
73	78	3
119	119	5
169	170	1
57	61	2
230	231	6
74	95	2
176	177	6
81	85	1
237	248	1
45	46	5
16	19	4
52	53	8
145	145	2
12	117	2
111	113	1
32	54	2
24	25	1
65	65	5
170	170	9
161	161	4
85	88	2
156	179	4
68	76	2
230	245	1
174	174	11
94	95	5
210	211	3
82	82	3
69	70	3
177	177	10
25	25	4
68	239	2
78	145	2
225	231	1
102	105	1
85	86	1
47	57	2
21	21	6
120	120	1
79	114	3
84	86	1
69	71	3
90	100	3
71	71	4
116	117	3
18	31	1
76	76	2
76	93	1
90	92	1
57	154	1
58	121	1
57	60	2
175	176	4
53	54	1
93	114	3
24	30	2
220	239	1
171	171	4
78	80	2
40	46	4
157	160	2
87	103	1
3	3	5
103	104	1
53	53	9
86	86	3
238	238	3
23	200	1
156	157	5
56	57	3
35	35	3
22	23	4
236	239	2
21	22	4
88	107	1
31	37	2
114	117	1
70	71	1
193	214	1
55	57	1
98	109	1
15	21	1
92	92	2
62	63	1
56	56	4
98	115	1
32	120	1
117	118	1
12	12	4
45	45	5
63	68	1
14	56	2
10	28	1
117	119	1
192	228	2
34	37	1
84	85	1
208	214	1
48	82	2
48	49	4
5	6	1
193	195	1
45	155	2
151	154	4
162	178	1
202	203	1
211	213	2
73	74	4
186	200	1
104	108	3
88	88	2
40	47	4
182	182	3
118	120	1
208	239	4
93	94	2
159	163	2
204	206	1
163	172	2
115	116	3
17	19	1
155	217	4
150	151	5
224	245	1
7	7	5
153	154	4
85	89	2
34	117	1
182	184	1
168	170	1
166	168	2
165	167	1
201	228	1
12	15	2
9	202	1
146	146	3
156	172	1
28	29	2
173	181	2
172	173	1
46	47	2
26	27	1
171	172	3
110	112	1
187	192	1
147	160	1
156	173	3
40	74	2
58	60	1
91	92	3
185	189	1
218	218	4
3	35	2
201	204	1
45	52	1
193	193	6
236	236	2
199	200	1
50	111	4
67	76	1
79	81	1
75	103	1
247	248	3
152	153	1
195	197	2
49	68	1
147	149	1
243	243	3
232	233	2
96	97	1
8	9	2
184	191	2
234	235	1
29	30	1
160	161	1
188	189	1
11	26	3
33	33	4
115	151	1
38	38	2
20	25	1
156	159	1
209	209	1
239	239	2
29	95	2
231	235	1
57	68	1
10	27	1
3	233	1
188	192	1
173	174	1
7	10	2
63	63	2
83	104	1
146	147	2
58	80	1
53	180	1
242	243	1
94	159	1
115	153	1
175	180	2
105	106	1
175	177	1
35	42	1
158	161	2
197	208	1
19	20	1
164	166	1
180	198	1
47	47	2
183	192	2
5	57	1
158	168	1
37	38	1
112	242	1
163	165	1
174	178	1
15	51	1
100	114	1
177	179	1
120	157	1
119	149	1
176	180	2
33	34	1
190	194	1
100	102	1
198	198	1
38	39	1
154	156	1
179	207	1
23	29	1
60	71	1
182	196	1
62	62	1
236	246	1
146	167	1
170	171	1
35	116	1
119	158	1
197	214	1
223	234	1
87	88	1
178	225	1
