39	39	7
83	84	7
76	76	14
80	81	3
78	78	14
63	92	2
102	102	13
90	90	9
90	106	4
88	88	7
31	31	12
56	69	1
74	74	10
44	96	1
34	34	4
42	42	3
75	75	11
37	37	11
34	38	8
54	54	15
71	71	6
53	68	3
84	84	14
55	92	2
87	88	11
64	64	19
68	69	12
54	56	3
59	59	5
100	100	3
54	69	1
82	96	1
82	82	22
95	95	11
66	87	2
51	53	11
49	49	7
27	27	2
25	26	2
31	105	2
82	83	1
67	87	3
32	32	7
104	104	13
67	68	3
98	99	5
83	85	2
33	34	2
60	60	9
21	21	18
95	96	2
38	38	15
44	44	19
57	57	18
66	66	10
81	81	4
102	103	3
61	61	10
93	93	13
85	86	5
22	22	12
33	60	2
62	63	3
79	79	13
51	61	2
88	89	1
97	97	11
50	50	7
58	93	1
46	46	14
80	104	4
80	80	5
92	92	12
57	79	3
91	91	9
107	107	2
23	23	12
63	63	3
41	49	2
32	36	1
37	49	5
33	33	12
62	62	15
56	79	8
98	98	5
35	36	2
69	69	6
73	73	9
30	30	10
79	80	10
35	35	12
77	77	9
100	101	1
101	101	8
27	28	5
59	62	5
26	26	3
41	44	4
44	93	5
29	30	12
74	75	6
22	60	7
38	84	3
99	99	17
25	29	2
46	47	5
75	93	3
42	45	1
105	106	3
59	87	3
97	98	3
78	94	1
78	89	4
57	78	3
21	53	2
36	36	3
96	96	16
78	80	3
65	65	5
43	49	2
57	63	4
52	52	1
86	86	8
31	36	4
43	44	5
49	93	1
41	42	3
29	29	4
45	47	1
30	31	3
26	30	7
75	91	2
53	53	2
44	45	7
68	68	7
43	43	11
106	106	2
25	25	8
78	96	4
73	87	1
55	56	3
41	41	2
32	71	1
54	55	1
48	48	5
72	72	4
83	86	1
78	82	7
78	81	7
58	78	5
30	40	4
52	60	1
45	66	5
24	24	9
27	32	3
40	107	5
29	45	2
45	49	1
34	69	1
83	83	4
55	55	3
80	89	4
54	57	1
53	92	2
64	77	1
21	50	3
87	87	6
92	93	3
79	105	1
76	77	2
104	105	1
40	40	2
46	99	3
36	57	4
39	82	5
42	70	2
27	74	2
31	64	1
68	70	1
50	100	3
73	98	1
81	85	3
67	85	1
37	54	5
67	70	3
53	54	3
45	46	1
70	70	3
32	58	2
56	80	1
69	71	2
68	75	3
86	87	9
51	52	4
28	29	2
64	92	3
62	70	2
103	103	1
31	62	3
63	68	2
78	90	2
57	58	1
85	85	9
61	62	1
67	67	11
34	89	1
55	75	2
26	49	3
21	22	1
50	52	1
105	105	1
56	56	6
34	86	1
34	35	3
77	79	2
41	73	1
33	90	1
36	56	2
51	51	3
26	99	1
39	83	1
26	29	2
59	65	2
54	64	2
28	28	2
57	74	1
47	49	2
21	59	1
93	96	1
45	45	1
23	65	2
32	33	2
52	61	1
79	89	1
70	71	1
100	102	1
21	65	2
66	67	3
22	23	1
66	81	2
34	85	1
91	105	1
34	88	1
45	86	2
89	90	1
54	67	3
25	54	2
20	92	2
46	52	2
79	85	1
46	48	2
20	73	2
71	75	1
20	20	2
32	34	1
48	49	1
79	90	2
20	31	1
74	92	2
22	52	1
55	84	1
89	89	1
69	70	1
27	48	1
32	60	1
25	27	1
22	29	1
