22	44	4
88	91	4
43	43	34
130	130	28
79	80	5
29	29	18
46	46	32
62	62	28
20	20	21
94	95	4
115	115	31
57	57	35
65	65	25
132	132	21
88	89	13
116	116	21
105	106	9
71	71	34
120	120	15
27	27	18
105	105	33
111	111	36
3	3	20
83	85	7
80	81	10
126	129	4
54	54	34
23	24	9
67	80	9
23	25	2
49	49	31
30	30	20
45	47	17
78	78	20
91	91	19
87	87	16
70	70	11
4	5	21
51	51	23
13	13	19
115	117	6
125	126	13
28	38	3
13	14	6
123	124	2
2	2	27
95	117	3
122	133	1
76	76	30
67	68	9
93	93	35
108	108	24
89	90	6
68	70	2
109	109	31
77	116	5
5	5	20
123	123	24
112	129	1
117	117	20
24	24	29
127	130	1
48	48	31
58	58	19
113	113	26
43	44	10
92	92	19
40	41	2
48	54	2
0	0	13
124	124	25
45	45	27
77	77	21
82	82	8
41	43	8
52	123	2
1	105	6
42	42	31
118	118	15
50	50	31
44	46	5
127	128	3
131	131	25
69	69	25
21	47	1
52	52	27
13	15	5
110	111	6
23	41	1
126	126	20
120	121	11
104	104	30
121	121	33
23	23	15
3	5	1
10	10	12
40	42	2
99	106	4
1	1	43
8	8	11
33	33	10
64	79	1
106	108	5
129	130	15
119	119	6
85	100	2
41	41	8
24	25	3
28	30	1
70	71	15
100	100	18
129	129	22
64	64	11
11	12	7
3	8	1
44	44	23
103	103	18
42	43	12
18	19	14
78	79	12
95	95	11
89	89	12
10	101	1
7	7	20
113	115	3
74	74	5
82	87	5
116	117	3
73	73	16
113	119	7
88	88	20
45	46	11
32	32	12
40	40	10
61	62	7
99	99	7
90	90	18
81	85	10
18	18	19
17	17	19
63	67	5
26	26	17
96	96	19
101	101	14
60	60	15
11	49	2
11	11	14
110	110	26
101	130	3
44	45	2
94	94	27
50	51	5
107	107	18
102	102	20
55	55	23
114	114	26
66	71	6
0	1	7
21	22	8
80	80	27
83	83	13
59	60	12
62	63	10
63	63	24
19	27	6
0	19	2
72	73	13
66	66	25
67	67	18
69	70	5
81	81	16
1	50	3
2	7	1
54	62	3
42	45	1
106	106	18
46	47	26
12	12	21
124	125	6
29	30	29
42	44	2
75	91	3
22	22	23
39	44	3
10	12	2
100	101	3
6	6	17
96	98	2
115	118	3
31	33	2
86	86	10
125	125	16
43	45	6
82	83	10
39	40	9
31	57	2
128	129	5
12	13	11
126	128	8
122	122	25
49	57	5
38	38	18
57	59	3
98	127	6
106	107	6
55	56	6
127	127	25
90	91	11
99	100	4
9	45	3
19	20	17
12	27	3
62	118	1
17	19	9
86	94	5
51	53	15
48	52	3
84	98	2
66	97	1
32	33	1
60	61	11
10	11	8
126	127	2
131	132	9
56	56	17
14	15	4
31	32	10
68	71	3
75	75	22
85	85	25
9	24	3
101	102	9
53	111	3
13	16	8
50	52	2
95	96	3
91	92	18
61	61	10
68	68	12
9	9	10
100	104	2
14	14	6
30	117	3
103	129	2
28	28	13
34	34	16
12	22	3
15	16	5
68	107	2
57	89	5
59	61	6
107	108	6
56	90	2
112	112	16
131	133	7
68	69	5
58	60	1
81	86	1
27	28	3
79	81	9
21	34	5
72	72	17
2	4	2
69	85	1
117	118	11
28	29	8
20	42	3
47	47	25
84	85	4
97	97	10
85	89	2
31	31	11
7	42	1
39	39	12
105	116	3
133	133	17
82	85	2
64	65	3
53	53	27
84	100	3
98	98	8
75	92	1
9	15	1
83	84	6
17	29	2
19	19	5
69	86	3
66	67	4
57	60	2
59	59	19
126	131	4
93	94	5
32	34	5
75	104	1
77	99	2
62	67	2
25	42	5
0	105	2
1	10	2
54	56	2
104	105	9
111	112	1
112	131	2
21	21	11
119	126	2
46	50	1
44	115	1
58	117	5
113	114	2
118	129	3
68	75	3
15	15	6
70	74	3
121	125	3
26	40	1
99	103	4
115	127	3
24	42	2
60	62	3
90	93	1
15	19	4
76	86	4
22	23	1
76	106	2
77	109	2
45	48	2
4	6	4
72	75	3
49	50	6
25	26	3
118	119	4
84	84	13
76	92	1
51	52	6
19	21	5
31	39	3
22	32	1
108	114	4
42	100	5
100	102	5
60	85	1
86	90	5
107	109	2
79	92	5
48	49	1
40	47	1
132	133	5
65	73	2
95	124	1
41	45	3
16	16	6
114	119	2
115	120	1
4	4	16
38	40	1
62	120	2
114	131	5
25	25	13
116	126	2
45	54	2
104	107	1
61	100	4
120	132	3
63	65	5
95	122	3
60	89	5
8	9	6
102	125	1
52	53	5
46	48	4
65	94	3
64	98	2
100	105	3
95	104	2
20	46	2
63	78	3
118	126	1
14	24	2
72	81	5
17	40	1
79	79	12
83	119	2
74	101	3
74	75	4
98	131	4
49	53	4
50	54	3
85	87	2
128	128	13
121	126	3
26	45	1
102	103	1
1	2	1
67	72	2
86	110	1
125	128	1
33	45	4
16	19	2
68	85	2
128	131	1
128	130	2
9	12	2
83	89	2
39	49	2
109	110	4
55	62	1
58	59	5
73	74	13
7	17	2
107	114	3
69	109	2
15	22	2
111	113	2
7	9	2
47	48	6
129	133	2
107	113	1
18	21	9
33	34	4
33	42	3
38	39	6
3	7	2
37	107	1
25	31	2
37	37	3
69	75	2
95	116	1
2	31	1
37	41	1
101	114	1
101	103	4
70	90	1
25	27	3
65	66	5
81	82	3
76	88	3
2	3	2
56	57	8
21	42	1
48	55	1
101	104	1
125	127	5
120	123	1
1	12	2
11	20	3
12	21	2
97	98	10
74	99	2
11	121	2
121	123	2
120	126	2
0	10	5
31	42	1
24	26	2
103	116	1
1	8	2
42	48	1
114	116	1
24	44	2
105	114	1
33	43	1
5	18	1
73	78	2
2	6	1
15	23	2
9	26	1
72	74	3
95	112	1
31	48	2
13	22	2
47	49	1
82	84	1
87	106	2
86	87	3
92	93	6
77	79	1
99	130	1
43	47	5
110	113	2
76	77	3
28	128	2
9	10	2
108	109	1
77	89	2
24	41	2
118	120	1
13	25	1
3	4	1
64	68	1
43	81	3
16	25	1
17	103	1
57	132	2
22	25	2
42	55	2
8	18	4
11	19	1
26	27	2
97	101	1
76	82	4
67	104	2
103	114	1
51	123	3
96	97	2
74	98	2
117	119	5
103	104	1
81	89	3
125	130	1
6	39	1
105	107	1
38	45	1
41	42	1
10	26	2
20	45	1
13	19	1
7	8	6
57	118	1
77	78	4
98	99	1
8	27	2
26	47	2
40	76	1
103	133	3
19	123	1
108	133	2
61	118	2
2	22	2
5	6	3
24	81	1
86	92	1
72	80	2
32	56	2
126	130	2
85	104	1
0	7	2
130	131	3
64	75	1
18	45	2
112	113	4
40	44	1
59	62	2
7	10	1
113	127	2
99	112	1
20	47	2
102	129	1
33	41	1
66	75	1
30	31	2
14	30	1
2	8	1
73	99	2
78	82	2
114	130	1
22	27	1
102	107	1
60	63	2
21	26	1
16	18	1
22	33	2
120	122	1
71	72	2
129	131	1
26	52	1
16	17	1
15	26	1
94	109	1
64	78	1
78	81	1
95	125	2
100	114	1
22	43	1
42	103	1
114	115	1
14	16	1
67	77	1
75	82	1
117	121	1
104	121	1
106	113	1
12	20	1
53	55	1
13	17	1
23	28	2
100	107	1
11	26	1
62	78	1
41	44	1
