117	117	3
136	139	2
126	128	1
115	130	1
82	82	4
135	135	9
20	20	1
71	71	9
116	116	5
106	107	8
11	26	3
86	86	5
125	125	5
71	73	3
140	140	6
75	75	4
93	94	5
101	101	6
33	114	2
128	128	8
94	94	8
81	81	4
10	10	2
6	7	4
4	4	12
115	123	1
35	35	5
93	93	9
2	2	1
29	30	6
114	114	7
133	133	6
72	72	17
134	135	5
7	7	6
15	118	2
95	95	5
1	24	4
121	122	4
122	123	5
85	86	2
16	110	2
80	86	2
36	36	2
24	24	3
105	105	3
96	129	2
15	16	3
18	19	2
109	109	7
133	134	4
87	87	11
103	103	1
16	117	1
101	102	5
71	102	6
11	11	10
87	92	5
107	107	4
74	75	7
126	127	4
82	83	2
95	127	1
25	26	4
76	120	2
83	83	6
15	120	2
9	28	1
110	110	4
100	100	2
132	132	1
112	112	13
19	20	4
131	132	2
30	30	4
28	29	1
80	88	3
34	34	6
89	89	3
5	6	1
122	122	11
111	111	8
75	76	1
27	27	3
119	119	3
95	137	3
78	120	3
136	136	6
131	131	6
118	119	10
27	29	3
109	110	4
77	83	1
83	85	1
84	84	2
106	106	8
134	134	8
6	6	5
138	138	3
9	30	4
85	104	3
84	103	2
15	15	3
124	124	5
8	9	2
133	135	1
1	22	4
90	91	5
26	27	1
73	73	5
120	120	10
129	129	12
80	80	2
3	19	5
9	9	4
92	93	1
124	131	3
123	124	7
25	25	4
37	38	4
1	1	2
7	8	3
127	127	4
79	79	6
89	100	2
127	138	4
79	113	2
84	85	2
102	102	11
117	118	1
74	86	1
80	81	3
17	17	2
22	22	7
74	76	2
113	113	5
33	33	4
126	126	6
33	131	3
3	3	5
26	26	2
119	122	2
81	87	2
130	134	1
32	32	3
25	27	2
22	23	4
27	32	2
23	23	4
126	130	2
130	130	5
104	105	6
116	117	3
74	74	5
19	19	3
73	82	3
71	116	2
137	138	7
115	115	4
121	121	6
4	11	5
10	11	5
79	117	1
86	93	3
136	140	4
28	28	1
27	35	4
0	0	1
137	137	8
139	139	8
90	90	8
101	136	1
23	25	3
76	76	3
132	133	1
0	2	1
90	93	1
8	8	7
38	38	1
92	92	1
14	78	1
130	131	3
135	136	2
8	10	2
14	15	2
123	123	12
110	111	3
71	72	2
84	123	1
13	14	2
3	20	1
14	120	2
102	117	1
118	118	1
21	21	1
37	124	1
99	115	1
85	85	2
125	129	2
71	112	2
0	10	2
16	16	6
77	109	1
104	104	3
76	77	1
88	123	3
13	13	1
18	18	2
96	128	1
16	17	1
96	96	1
9	27	2
29	29	7
128	129	2
35	37	1
35	36	1
114	131	1
81	91	1
31	31	1
25	132	3
127	128	3
24	26	1
72	105	1
71	75	1
102	108	1
77	77	3
34	35	1
111	127	1
98	98	4
124	125	2
94	95	1
95	96	2
83	105	1
99	99	4
100	125	1
83	84	1
129	130	3
78	78	1
99	100	1
107	110	1
102	109	1
106	108	1
110	141	1
20	21	2
131	134	2
19	21	1
17	117	1
30	31	1
12	12	1
119	120	2
102	103	1
108	108	2
3	4	2
16	118	1
78	79	1
107	108	1
14	14	1
98	100	1
22	25	1
88	88	1
19	111	1
114	132	1
138	139	1
