102	105	3
26	26	1
24	34	2
85	85	11
18	18	1
57	121	2
44	121	1
129	129	10
111	123	1
67	68	2
107	109	4
32	32	2
15	15	7
111	116	3
12	13	3
63	64	7
65	68	1
124	125	3
45	68	3
60	64	6
127	127	8
112	117	6
111	113	1
114	115	5
57	107	2
127	128	4
33	33	5
58	58	1
78	78	3
87	96	1
114	114	2
122	124	1
69	69	5
26	27	4
55	58	4
62	62	1
115	116	3
92	92	3
16	16	3
65	67	3
86	126	1
76	76	4
72	72	4
1	1	5
71	71	8
83	85	3
98	99	6
56	117	2
130	131	4
131	131	11
96	96	2
73	74	2
84	94	3
65	65	2
80	116	1
7	8	2
64	65	3
107	108	2
120	131	3
103	103	8
122	123	3
24	24	4
79	79	5
6	70	2
3	72	1
78	80	1
96	98	4
55	68	2
59	59	7
60	60	11
17	19	2
47	52	1
93	93	4
64	64	2
19	19	3
11	11	1
59	68	1
58	62	1
63	75	1
25	25	4
75	75	5
87	87	8
94	94	2
111	111	4
81	81	3
63	63	4
15	16	2
73	73	3
104	104	2
5	17	4
119	129	1
45	45	3
59	64	4
44	57	3
14	14	1
75	94	4
126	126	7
22	22	3
115	115	3
57	74	1
83	83	9
117	117	2
48	48	1
6	6	5
120	120	5
108	109	1
27	31	1
2	2	3
103	104	1
91	95	1
119	119	2
88	99	2
53	53	1
97	97	3
48	55	3
30	35	4
0	0	3
29	31	2
95	95	8
107	118	2
36	36	4
46	46	3
60	100	2
90	90	4
52	52	5
52	88	2
12	12	2
48	49	2
23	24	1
112	112	7
20	20	3
94	95	1
57	57	2
96	97	2
119	121	3
89	89	7
54	55	1
2	20	3
19	131	2
4	4	1
9	9	3
13	13	4
34	34	2
13	14	1
113	113	1
103	121	1
71	74	4
118	118	9
97	98	2
109	109	2
119	122	1
82	82	3
28	28	3
116	116	4
44	112	2
99	99	4
60	69	3
95	97	1
45	119	4
57	98	1
83	91	2
35	35	1
84	85	1
121	121	5
55	56	3
36	37	2
80	80	3
86	86	1
101	101	6
72	74	1
124	124	2
58	82	2
5	6	1
58	59	1
107	107	3
4	5	1
74	74	2
31	31	2
68	68	4
87	88	1
43	86	2
59	60	4
20	21	4
92	94	1
132	132	1
117	118	1
54	54	1
25	27	1
66	67	2
132	134	1
102	102	2
56	56	2
10	10	3
56	113	2
88	88	2
10	56	1
130	130	1
70	70	2
5	5	1
77	99	1
77	84	1
100	100	1
10	79	2
8	8	1
122	122	2
123	123	3
7	9	2
9	19	1
68	90	2
37	37	2
128	128	1
106	106	2
13	108	1
43	84	1
3	3	2
23	23	3
19	21	1
117	125	1
60	67	2
71	72	1
57	67	2
55	67	1
21	21	2
96	104	1
57	58	1
110	111	1
82	85	3
65	96	1
77	78	4
42	43	1
105	105	1
87	90	1
44	44	1
8	20	1
76	92	1
57	84	1
108	108	2
14	15	3
90	91	1
93	94	1
53	111	1
10	45	1
67	67	1
111	120	1
98	98	1
27	27	1
65	66	1
59	66	1
125	125	1
79	113	1
