12	12	13
37	37	25
40	40	16
41	41	21
4	4	14
42	42	23
50	50	18
43	43	37
52	52	14
60	61	8
29	29	4
3	46	1
34	62	2
45	62	2
47	47	29
25	39	3
17	40	2
51	51	17
7	7	13
33	33	20
49	50	9
13	41	1
19	21	2
0	43	6
34	35	15
47	50	4
2	4	1
10	10	16
39	58	5
49	49	32
48	48	31
52	58	2
55	55	18
30	57	4
61	61	28
50	51	5
30	37	2
44	44	32
7	8	8
46	50	2
56	56	17
46	46	23
47	48	8
39	39	33
33	34	4
3	4	4
30	30	28
44	45	13
3	3	20
34	34	30
39	42	5
40	60	4
32	32	45
36	36	20
6	6	17
9	9	9
31	32	10
35	61	3
25	30	5
45	45	36
1	1	4
44	58	2
62	62	15
58	59	7
6	7	9
54	55	7
39	47	1
49	51	2
59	60	4
9	10	6
16	16	9
11	11	22
39	40	1
31	61	2
21	21	11
5	5	8
24	44	2
32	61	5
11	12	6
45	46	10
44	47	1
53	53	24
57	57	12
16	47	1
17	17	21
37	38	5
8	9	7
24	25	6
8	8	11
34	61	2
58	60	5
0	0	10
22	22	6
48	49	10
54	54	16
56	57	13
41	46	5
46	51	1
35	35	26
50	53	7
58	58	18
24	24	2
31	31	15
1	8	5
52	53	2
42	44	1
56	60	2
3	31	1
37	42	1
38	38	13
60	60	17
30	32	3
30	31	6
18	20	8
0	5	5
36	37	6
55	56	12
13	16	2
20	32	2
41	52	2
35	44	4
23	23	6
15	18	4
40	41	12
42	47	1
36	42	3
17	18	4
57	60	7
45	49	4
39	41	2
43	60	1
14	14	4
21	42	1
10	11	6
35	36	5
31	36	10
44	57	4
59	59	11
46	47	12
18	22	3
21	22	3
20	42	3
51	53	8
53	54	6
32	33	3
2	2	6
0	12	2
61	62	3
16	31	6
4	23	8
39	57	1
38	60	3
38	58	2
42	60	5
25	48	5
25	25	5
31	35	2
15	19	3
13	13	4
4	41	3
29	57	3
42	43	4
43	44	9
55	59	1
40	46	4
35	37	3
12	14	3
14	18	2
15	16	5
38	39	4
34	48	2
17	38	2
44	62	1
45	47	3
20	20	5
4	48	2
35	47	1
37	39	3
40	52	1
18	19	4
15	15	2
55	58	5
14	15	1
12	38	2
1	2	1
19	19	3
20	59	2
42	57	4
50	52	1
32	34	1
0	30	3
37	58	3
31	47	2
13	15	1
39	56	1
54	56	1
0	2	1
38	59	2
39	45	8
13	14	2
35	48	5
37	49	2
18	18	5
42	50	1
51	52	5
34	42	1
18	40	3
4	5	3
32	42	1
1	22	1
39	50	4
44	46	3
42	56	1
34	36	2
30	44	1
22	24	2
29	30	4
8	20	1
25	31	2
43	49	3
34	44	1
11	19	3
40	53	2
23	41	3
20	22	1
5	6	2
13	30	1
31	58	2
23	24	2
47	57	2
38	41	2
0	32	3
19	24	1
55	60	3
41	57	1
18	32	1
24	45	1
49	60	1
46	56	1
9	32	1
16	17	1
24	30	1
30	42	1
43	55	1
16	38	1
41	59	1
8	49	1
52	55	2
30	35	1
53	55	2
35	60	1
2	36	1
52	54	1
38	40	1
15	42	1
0	44	1
45	50	1
14	16	1
30	43	1
26	26	1
