85	104	3
92	92	37
30	30	16
99	100	8
24	25	10
73	73	18
77	77	12
34	35	4
64	70	3
101	101	34
97	98	14
89	90	15
65	65	19
27	28	1
68	68	33
26	26	27
51	62	2
63	63	30
52	54	10
73	77	5
48	49	7
39	39	27
44	45	6
62	62	30
67	67	21
96	97	26
83	84	22
82	82	16
32	33	5
93	93	16
40	40	32
102	102	30
41	41	13
36	39	5
76	76	37
75	75	29
47	50	2
37	37	24
69	76	2
77	92	2
31	31	35
24	24	35
28	28	13
81	89	3
81	99	5
92	95	5
19	24	2
25	25	32
80	94	5
55	56	12
30	31	12
57	57	20
72	76	11
55	55	24
78	78	33
86	103	4
46	49	5
81	98	7
78	106	8
79	79	16
100	100	22
96	96	17
66	67	9
61	65	4
59	59	35
45	55	7
89	89	34
61	97	3
52	52	27
73	75	4
45	50	3
47	47	17
54	54	17
35	68	6
71	74	1
22	22	20
83	85	15
46	46	12
24	70	5
68	69	28
80	81	7
79	80	16
35	35	32
71	73	5
43	43	13
71	71	18
37	38	13
103	103	27
64	72	3
42	43	8
34	34	24
56	56	24
42	56	3
62	67	5
97	97	25
61	62	22
105	105	26
46	47	12
106	106	8
50	50	26
61	61	18
81	81	15
39	40	3
85	87	2
84	85	17
101	102	8
85	85	15
32	32	23
45	79	3
21	32	7
73	74	15
90	91	9
90	90	32
29	29	24
44	44	18
23	23	15
54	76	7
53	53	34
65	106	9
45	45	26
88	90	4
37	82	6
76	89	5
93	94	1
31	68	2
45	46	11
107	107	4
104	105	13
87	87	13
62	65	2
70	72	3
72	104	2
42	42	18
78	96	2
60	64	3
32	42	1
66	66	19
22	27	5
82	93	10
41	44	8
36	36	21
64	64	17
70	70	23
82	88	4
49	51	8
57	58	6
23	28	2
60	60	32
67	68	11
91	91	11
42	44	14
94	96	6
38	39	14
106	107	4
22	23	9
43	49	3
86	88	2
73	99	4
38	38	14
87	88	8
33	33	29
52	73	2
83	87	2
41	57	7
95	95	23
80	95	1
100	102	5
86	87	15
21	21	21
77	80	2
51	51	10
34	37	10
45	47	7
20	21	2
64	66	6
33	36	2
49	50	7
27	27	19
20	22	5
51	52	4
88	88	27
87	90	9
80	80	24
58	58	17
79	82	4
30	32	7
105	106	2
41	42	1
25	26	4
72	72	39
28	71	1
45	49	5
85	86	9
20	20	5
26	30	2
40	41	15
80	88	4
78	79	20
93	101	4
78	81	5
71	72	15
76	77	6
48	48	7
99	99	16
81	90	3
81	88	6
94	94	22
49	66	2
54	63	5
95	96	6
49	49	16
69	71	6
28	29	9
41	43	1
100	101	6
63	64	7
35	39	6
74	74	10
74	75	3
84	88	6
93	104	7
84	84	8
50	51	5
98	98	8
60	67	5
72	100	4
81	82	12
69	69	12
49	52	1
83	83	4
84	90	2
102	103	5
52	53	4
78	94	1
44	78	1
36	37	3
51	96	2
38	40	2
86	86	16
46	55	4
59	60	9
34	43	4
50	55	1
59	92	2
49	59	1
35	37	1
84	87	1
29	30	3
26	27	3
74	76	1
35	36	1
42	55	3
69	70	5
88	89	3
104	104	13
50	104	3
64	67	2
80	91	1
31	32	11
57	59	7
25	53	2
66	72	8
28	72	3
51	76	1
55	73	3
64	65	9
33	78	3
98	99	4
93	96	2
82	98	1
87	89	3
38	44	1
97	99	6
63	66	4
82	83	8
30	58	1
73	93	2
23	31	12
43	55	4
93	95	4
95	97	5
77	93	3
40	57	2
79	81	6
63	77	2
34	58	3
103	104	1
35	38	6
66	73	5
92	93	7
82	86	2
65	66	4
82	85	5
37	57	2
62	63	6
69	103	1
47	49	3
56	57	1
72	102	3
79	89	1
74	77	2
86	99	2
58	59	4
59	61	2
42	54	5
79	97	2
60	66	2
81	91	1
41	49	3
71	101	3
102	104	3
40	56	5
68	70	2
21	22	3
65	67	2
22	24	1
31	34	3
95	101	2
40	42	6
61	63	2
49	106	1
21	42	2
34	36	2
25	32	2
76	88	2
49	89	2
25	29	4
91	92	2
90	104	2
73	101	2
41	56	5
101	105	1
39	56	2
77	78	3
92	106	2
92	101	1
30	33	5
78	97	1
59	62	1
101	103	3
56	58	1
70	71	1
54	55	2
46	48	1
53	54	5
90	106	1
31	37	3
32	35	3
31	69	3
94	99	2
22	31	3
27	29	1
87	91	3
95	104	2
55	71	2
91	104	2
74	100	3
44	50	1
78	80	2
29	34	2
84	96	1
26	29	1
69	102	1
60	65	3
92	103	2
22	64	2
44	49	1
94	95	1
67	69	1
44	79	2
33	56	1
77	101	1
72	73	3
49	81	1
71	103	1
69	72	1
49	94	1
74	101	1
35	40	1
64	68	2
27	71	3
20	43	2
84	86	1
33	77	1
33	34	1
72	75	3
95	99	1
22	25	1
54	62	1
87	104	1
62	68	1
45	78	1
93	100	1
31	60	1
24	26	2
43	45	1
23	24	1
100	103	1
40	43	1
36	49	1
62	66	1
58	60	1
66	105	1
53	102	1
