58	59	5
53	54	5
1	1	17
55	55	14
74	74	13
26	55	2
19	19	9
57	57	12
15	16	5
62	64	2
57	67	5
28	28	8
13	18	1
64	64	12
12	12	7
18	22	1
84	84	17
52	52	10
23	24	8
66	67	5
13	13	11
27	55	3
47	47	18
15	15	10
89	89	8
75	75	26
74	75	10
65	65	14
30	30	15
13	14	10
2	2	18
88	88	9
71	72	8
24	25	12
87	87	7
53	53	9
31	31	5
4	4	11
68	68	10
46	47	8
82	82	13
7	8	2
57	58	8
47	49	4
48	48	10
5	17	3
33	33	6
14	16	6
82	83	6
81	81	12
70	71	4
50	52	1
23	27	6
9	10	4
26	26	14
50	50	15
19	21	3
24	71	1
60	60	2
8	8	5
22	22	5
56	56	10
3	3	6
63	63	4
11	11	16
3	30	2
8	9	9
19	20	9
5	5	8
22	23	8
51	61	1
76	77	3
12	13	6
53	55	3
60	61	5
86	87	9
55	57	1
30	31	10
74	81	10
68	70	2
80	81	2
54	54	6
58	60	1
72	72	11
72	73	6
67	69	1
23	23	8
50	78	1
29	30	2
20	21	6
47	57	2
78	79	1
50	87	1
18	19	2
49	50	5
10	10	3
23	50	3
51	51	10
84	87	3
26	34	1
6	6	5
86	86	7
70	70	3
48	53	1
14	25	1
21	21	6
76	76	3
7	7	5
0	0	9
20	53	2
49	49	10
69	69	10
18	18	1
10	11	2
16	19	3
85	85	1
61	61	4
84	85	2
25	27	9
68	75	1
26	51	2
75	84	3
67	67	15
79	79	4
13	15	3
73	73	4
52	59	2
6	10	1
25	25	4
24	26	3
71	71	3
7	10	3
88	89	4
62	63	3
8	10	4
58	58	15
52	60	4
53	57	2
77	77	2
22	57	1
66	69	2
66	66	11
20	20	2
11	13	2
17	52	2
9	9	6
28	29	1
24	57	1
79	81	4
68	69	7
2	3	2
81	85	3
80	80	3
63	65	4
49	83	1
75	81	3
62	62	4
20	22	2
51	52	3
77	87	1
24	29	2
20	59	2
50	60	1
5	19	2
81	82	4
29	29	1
70	80	1
14	14	2
47	52	3
55	56	1
11	12	4
46	46	2
81	84	3
54	56	2
7	9	3
63	64	1
84	89	2
17	17	6
21	58	1
46	48	3
31	67	1
56	57	1
78	80	2
20	52	1
5	9	1
56	65	1
11	69	4
48	49	1
65	66	2
24	24	10
27	27	5
64	65	1
6	8	3
5	8	1
24	31	1
21	61	1
48	52	1
67	68	3
59	60	2
23	49	1
75	77	3
16	16	2
1	2	2
10	12	2
27	57	1
52	53	3
89	90	2
75	76	1
54	66	1
13	19	1
72	74	1
61	62	2
30	67	2
17	31	2
69	74	1
53	56	1
30	58	1
4	18	1
51	87	1
85	86	1
35	46	1
47	48	1
27	28	1
83	83	1
