49	49	17
103	103	18
67	72	4
126	126	19
135	136	12
101	102	2
91	91	9
82	82	7
47	51	3
39	40	8
125	133	3
3	3	10
40	40	21
71	71	8
7	7	17
9	10	8
102	103	2
128	128	13
143	143	13
70	70	15
42	43	9
13	14	10
13	13	13
134	135	1
156	157	8
67	68	6
7	29	5
23	24	7
15	15	16
123	124	11
148	148	16
52	54	12
39	39	19
96	96	6
122	123	1
106	106	18
131	131	10
104	104	7
111	111	22
30	30	6
109	110	5
52	53	5
95	105	3
8	10	11
29	29	15
107	107	23
104	105	12
115	115	20
5	5	19
87	89	5
28	29	5
68	68	14
108	108	10
119	119	18
44	146	1
138	138	16
12	12	15
72	72	11
36	36	9
92	116	2
19	19	12
40	41	7
110	110	20
48	49	7
34	34	22
86	90	5
113	114	12
57	62	6
137	138	9
116	131	5
79	79	13
56	68	5
80	80	12
0	0	18
113	113	6
121	121	15
151	151	19
17	20	1
31	46	3
144	146	2
76	77	3
50	55	3
78	81	5
18	18	7
31	31	13
64	65	3
2	2	18
28	31	3
44	46	2
25	26	13
130	130	8
100	100	17
98	98	17
51	56	4
30	67	2
114	118	3
101	121	7
86	86	26
92	93	3
51	51	11
75	75	18
94	94	18
12	14	9
88	88	19
42	42	18
55	55	14
75	83	2
24	25	1
8	8	20
115	131	2
81	81	18
83	83	14
140	140	11
80	82	6
111	121	2
157	157	20
54	54	15
149	149	17
27	71	1
84	84	16
84	105	1
11	13	9
123	123	26
38	42	5
122	122	8
158	158	19
142	142	9
44	49	2
57	70	1
30	31	6
136	136	6
61	70	7
130	131	5
92	92	20
73	73	17
156	158	2
35	67	1
139	139	34
43	43	20
26	26	16
124	124	19
134	134	13
18	19	7
120	121	7
102	102	5
147	147	16
125	125	27
128	129	7
137	137	10
152	152	14
110	133	1
100	101	2
99	99	13
14	14	13
1	1	10
23	23	11
121	122	10
146	146	6
49	50	1
25	25	20
11	63	4
19	158	2
52	52	7
7	9	1
77	81	2
129	130	5
124	141	5
119	120	6
143	144	3
145	145	7
97	97	17
30	71	3
105	116	4
154	156	4
114	120	3
9	9	6
114	115	3
124	126	3
10	10	13
19	20	12
32	33	9
51	53	2
22	53	4
46	46	12
48	48	17
144	148	3
65	65	6
69	71	2
50	54	5
129	129	11
78	78	22
108	111	2
106	107	6
156	156	10
80	92	6
155	155	13
27	27	18
108	110	4
15	31	4
69	69	20
144	145	11
114	116	2
43	56	3
150	154	3
6	6	10
3	5	5
28	28	26
47	50	2
35	62	1
124	125	10
33	36	2
112	112	10
95	96	10
135	137	4
38	38	7
93	93	17
53	53	15
105	107	3
120	120	12
47	48	7
56	56	3
41	46	1
9	49	3
110	126	7
50	50	14
4	5	4
95	95	14
44	44	10
18	22	2
43	57	1
87	87	16
118	118	9
81	86	1
78	97	2
20	21	4
67	67	10
117	118	13
63	70	1
154	155	2
36	41	4
47	71	5
19	21	1
29	46	5
64	67	2
81	84	1
45	45	11
139	147	7
10	11	7
133	134	3
126	127	13
3	4	3
47	47	7
135	135	11
88	90	3
77	77	9
121	143	3
50	51	4
108	109	2
129	131	1
114	114	5
105	105	14
94	103	1
0	1	2
22	22	11
90	93	3
36	38	4
94	95	20
20	20	7
82	86	4
20	155	3
45	47	2
29	47	1
56	145	2
4	4	8
61	61	3
80	113	4
7	14	5
130	133	2
17	17	5
118	119	5
132	133	5
88	89	1
33	34	9
143	152	1
83	84	2
85	89	3
127	127	16
41	41	9
63	64	7
35	36	7
68	69	5
53	54	4
132	132	6
101	101	23
90	90	14
155	157	1
141	141	4
50	52	2
140	141	13
109	113	5
116	117	3
32	32	10
145	149	1
57	67	1
89	90	10
81	89	1
93	94	10
133	133	12
116	116	8
67	69	3
24	24	2
136	137	9
36	37	3
131	134	1
37	37	5
78	80	2
98	105	1
153	153	10
13	15	4
99	100	5
150	150	4
146	147	7
14	16	3
109	109	7
37	38	10
148	150	4
64	64	8
69	70	5
111	112	11
51	52	2
57	57	8
142	143	1
12	13	6
22	23	9
85	85	14
157	158	9
154	157	3
109	130	2
115	117	1
89	91	4
62	62	1
19	28	5
89	114	2
31	49	2
30	32	1
123	141	3
99	116	1
111	133	4
62	63	3
151	152	2
17	24	2
28	30	5
14	33	2
144	144	5
33	33	12
35	35	9
2	4	6
109	123	1
56	64	1
97	98	4
113	118	2
127	140	3
125	126	3
39	41	2
94	105	4
11	11	7
40	42	3
141	144	1
1	2	4
45	48	7
36	64	2
30	69	3
125	127	2
63	63	4
87	88	2
29	30	2
22	28	2
96	97	3
90	94	2
38	76	5
38	51	3
76	103	3
90	132	1
77	82	3
5	7	2
140	144	4
17	18	2
49	70	5
26	29	6
113	115	2
9	45	2
82	84	1
44	45	3
150	156	1
152	156	2
159	159	5
91	107	6
53	142	2
25	156	1
150	151	2
91	130	2
32	71	1
147	150	1
138	148	2
15	18	2
15	21	6
140	142	2
31	53	1
131	133	4
21	21	8
105	106	4
142	148	2
78	79	2
16	16	3
117	119	3
70	71	6
147	154	2
45	49	5
126	146	1
17	25	2
138	139	5
56	70	2
41	49	1
3	14	2
154	154	8
109	122	1
54	55	2
21	23	1
78	94	4
90	91	6
53	69	1
97	102	2
51	76	1
108	134	1
152	154	2
112	121	2
87	116	2
39	49	1
106	116	3
10	64	2
37	121	3
117	117	8
34	35	2
35	51	1
10	12	1
55	56	3
141	147	1
85	86	4
114	131	1
23	31	2
152	155	3
153	154	4
56	134	2
101	120	2
115	116	3
41	43	3
110	111	7
127	132	2
38	41	2
45	46	1
6	65	1
19	155	1
15	17	3
117	121	1
4	6	2
92	96	1
5	6	2
142	144	2
52	55	1
7	11	1
22	30	1
82	88	2
145	146	7
72	73	1
54	150	1
68	71	1
79	80	1
66	67	2
82	83	1
9	15	1
63	65	1
93	105	3
65	66	4
87	106	1
29	31	2
66	66	4
84	97	5
108	112	3
91	106	2
124	128	2
93	96	2
152	153	1
27	28	4
16	17	5
31	33	3
40	46	5
93	95	2
42	49	2
110	113	1
3	27	4
91	93	2
20	159	1
8	45	1
127	128	1
15	16	4
137	139	5
94	106	2
8	16	1
43	48	3
27	30	3
24	27	1
103	104	1
9	11	1
145	147	4
71	133	1
122	124	1
151	155	1
23	30	1
141	142	2
81	82	3
31	32	1
38	49	2
80	116	1
14	15	2
17	47	1
26	27	1
90	120	1
34	36	2
77	78	1
46	48	1
78	85	2
33	35	1
35	47	1
158	159	2
146	148	1
56	143	2
80	93	2
38	92	1
78	89	3
35	37	3
57	64	1
54	67	2
21	22	1
8	15	1
70	136	2
143	146	1
65	67	1
26	129	1
104	107	1
81	91	1
2	3	1
124	127	1
79	81	1
79	82	1
131	135	1
37	39	2
155	156	2
53	150	1
35	72	1
68	70	1
86	98	1
75	77	1
98	99	5
40	94	1
134	137	1
139	140	2
131	132	1
86	96	1
80	81	1
80	108	1
4	14	1
81	85	1
77	104	1
56	139	1
84	102	1
77	80	1
86	87	1
