0	0	12
46	47	3
20	28	1
104	104	12
112	112	20
129	129	8
72	72	7
86	86	22
16	16	4
35	35	13
60	60	3
90	90	11
6	6	9
76	76	24
64	64	6
124	124	6
46	51	1
126	127	7
127	127	19
103	103	9
101	101	8
118	120	1
3	3	1
120	120	9
3	4	4
100	100	11
66	66	19
115	116	6
53	53	13
69	69	7
68	68	8
10	10	13
2	2	1
96	97	11
10	11	8
16	19	3
85	85	12
67	67	10
83	84	11
108	109	8
77	78	6
80	80	26
14	16	4
132	132	15
19	19	7
128	129	4
107	107	8
70	70	26
117	117	8
9	9	9
63	63	9
29	29	11
65	96	4
65	65	11
22	22	12
6	90	2
26	26	5
98	98	3
123	131	1
127	128	5
78	78	13
43	43	5
79	81	4
49	49	6
103	104	2
118	119	6
119	119	10
128	131	1
12	12	5
71	71	9
35	37	5
99	99	18
50	50	10
110	134	3
57	58	11
110	110	3
93	93	16
8	8	5
49	50	6
79	79	14
129	130	2
93	94	4
102	103	5
62	62	11
114	114	19
115	115	13
105	105	13
71	72	7
98	112	1
130	130	8
35	38	2
75	75	13
108	112	4
49	53	4
115	118	4
114	127	1
106	134	1
99	114	4
119	120	3
14	14	3
55	55	6
72	73	3
125	125	6
61	63	1
78	99	1
126	126	8
97	98	3
122	122	2
111	111	5
23	24	4
61	62	5
4	4	5
74	74	15
91	91	4
63	65	1
13	13	4
66	107	2
52	53	3
7	7	7
52	52	13
84	84	12
0	4	3
92	92	17
61	95	2
58	61	2
5	5	9
88	88	5
20	21	1
56	58	2
89	89	11
48	53	2
60	61	1
122	123	6
22	23	3
97	97	9
81	81	9
20	23	3
9	10	6
15	15	11
92	112	2
45	45	2
124	126	1
133	133	6
16	17	5
119	133	4
54	54	19
9	52	1
95	95	14
112	119	2
109	120	3
21	21	10
109	134	3
59	62	3
44	44	2
84	85	4
66	67	6
33	33	2
70	71	3
45	54	5
32	32	3
87	87	9
34	34	21
24	24	2
27	27	5
76	86	1
25	25	3
76	80	2
66	110	2
70	77	2
7	9	3
48	48	7
11	11	5
18	19	4
102	102	15
91	105	3
52	54	3
73	73	9
82	82	3
78	92	2
94	94	13
0	1	4
1	1	3
77	77	7
116	119	3
115	122	3
57	57	5
99	102	2
28	28	6
37	37	6
76	84	1
17	94	1
75	77	1
118	118	5
75	91	2
71	90	2
123	124	1
55	57	2
71	99	1
77	111	2
91	92	3
116	116	10
18	18	3
115	117	5
119	130	2
93	95	4
15	16	6
122	125	4
110	111	5
44	45	5
106	106	4
15	58	1
58	59	2
133	134	3
23	23	6
67	68	4
101	102	3
65	68	2
117	118	2
92	95	5
4	7	3
65	99	3
38	79	1
123	123	7
58	58	6
101	124	2
112	118	7
17	21	2
69	91	2
82	85	2
113	113	10
11	18	1
92	93	2
5	91	7
55	56	8
106	107	2
59	59	6
97	116	1
82	87	5
1	20	3
77	108	4
65	85	2
6	7	2
131	131	4
56	57	3
108	110	4
119	121	1
17	18	2
108	125	1
105	111	1
10	37	1
30	30	4
74	75	5
65	66	1
61	93	3
126	134	3
77	83	1
8	17	1
69	79	1
84	86	3
18	93	1
65	67	1
24	54	1
72	74	1
134	134	5
96	118	1
53	54	4
69	77	4
124	125	2
121	123	4
17	59	4
109	110	3
38	38	4
15	36	1
17	19	4
8	13	1
99	100	1
65	69	3
105	108	2
8	29	1
63	64	4
59	94	1
17	17	6
109	125	5
55	69	1
113	114	5
29	30	2
64	65	3
94	114	1
130	131	1
124	130	1
5	12	1
56	56	1
62	96	2
105	106	1
24	25	3
101	120	1
106	111	2
10	13	1
76	77	2
75	86	1
4	6	1
66	108	1
105	107	1
95	110	1
31	69	1
79	80	2
107	108	2
77	110	2
77	84	1
39	83	2
57	59	3
69	70	1
93	103	3
130	133	1
77	120	1
76	88	1
61	94	3
82	84	3
106	125	1
132	133	6
17	62	2
45	66	2
109	112	4
7	12	3
83	83	9
62	63	1
46	46	1
98	99	3
88	89	2
78	81	2
11	56	1
43	52	2
104	128	1
37	38	3
108	108	3
97	118	2
43	66	1
19	20	1
135	135	1
79	83	1
68	86	2
125	126	1
93	101	1
68	107	1
94	103	1
125	133	2
86	87	2
109	109	2
77	117	1
76	79	1
20	20	3
17	22	1
42	86	1
96	96	5
8	9	1
95	97	1
97	117	4
128	128	1
117	128	1
82	86	1
27	28	1
61	61	2
121	121	6
79	92	1
1	3	2
25	26	1
66	69	1
35	36	2
33	34	1
131	133	2
100	101	2
113	128	1
78	84	2
11	17	2
75	92	2
127	129	1
112	120	2
106	132	1
21	33	1
18	27	1
120	121	1
8	30	1
114	131	1
85	97	1
70	99	1
68	69	1
78	96	1
18	57	1
117	119	1
85	87	1
44	52	1
95	98	1
95	96	1
117	127	1
55	58	1
33	74	1
43	77	1
109	111	1
21	76	1
114	115	1
28	93	1
87	88	1
111	112	1
