16	17	6
77	130	2
2	4	1
118	130	4
63	63	2
14	14	7
101	126	7
116	132	1
121	121	3
91	92	4
95	95	16
103	103	4
124	124	5
19	25	3
128	129	2
98	98	6
130	130	3
46	69	6
123	123	7
40	40	9
3	5	2
110	110	13
16	16	10
105	105	8
49	50	1
4	108	4
56	56	6
114	116	2
58	58	4
60	60	12
69	69	13
21	29	2
78	119	1
45	45	5
127	127	5
118	118	12
46	46	13
120	120	2
9	9	7
71	71	2
65	66	9
87	87	17
42	42	6
48	48	6
13	24	2
10	29	1
110	111	2
102	113	4
105	106	4
17	28	5
28	28	8
112	112	3
38	38	6
50	51	4
2	2	6
77	77	8
32	33	5
7	7	1
87	88	1
72	77	2
53	53	14
117	132	1
33	33	1
119	127	2
44	45	2
78	78	2
78	79	2
131	131	6
66	67	2
10	10	13
109	109	5
107	107	5
103	106	5
132	132	8
29	29	3
104	104	4
48	62	1
39	39	8
117	128	3
28	31	1
108	108	2
59	60	4
24	24	3
6	6	7
108	109	4
15	15	1
20	20	3
133	133	7
3	108	2
78	128	1
57	57	8
44	68	2
124	129	2
70	71	4
65	65	3
85	86	3
31	31	9
1	7	1
5	68	1
5	17	6
83	94	2
21	25	5
41	41	6
41	67	2
10	11	8
29	30	8
83	83	5
107	113	2
52	52	6
129	129	5
126	126	3
55	55	7
128	128	2
72	72	4
27	27	3
33	60	1
115	120	3
66	66	4
41	43	2
23	24	1
116	116	4
16	130	4
15	26	2
51	52	8
89	89	5
65	70	4
129	130	3
6	11	2
54	54	4
119	119	8
42	43	2
88	89	1
91	91	1
86	86	7
104	112	3
26	26	5
5	16	1
42	59	1
73	73	3
74	74	4
77	97	2
101	113	1
73	74	1
62	62	5
106	106	6
46	48	2
30	30	3
102	103	3
94	94	2
1	8	4
92	92	2
125	125	6
99	99	1
34	44	1
100	101	4
5	127	2
102	112	2
68	68	8
73	75	5
105	125	1
61	62	3
34	73	1
42	75	2
111	111	4
5	22	1
18	18	5
101	103	5
126	127	1
65	67	2
117	117	6
8	8	5
58	59	3
0	1	1
114	115	1
67	68	2
102	105	3
108	113	3
58	61	1
53	54	1
75	75	3
118	119	1
3	28	4
79	80	2
103	113	2
34	34	6
8	123	1
12	12	2
125	130	3
55	100	3
102	102	3
125	127	5
88	88	3
49	49	6
59	59	1
94	95	1
82	82	4
52	53	4
116	117	2
22	23	5
102	106	1
4	5	3
20	26	1
70	70	2
44	44	5
32	49	1
80	80	2
4	72	4
47	47	5
106	124	2
33	34	2
40	58	3
113	113	2
46	72	5
127	128	4
101	101	4
121	122	2
72	75	4
100	100	1
80	81	5
76	76	3
2	92	2
3	18	2
4	103	1
4	107	1
19	19	3
90	90	2
54	79	1
4	102	3
5	73	1
68	73	2
27	30	1
97	104	1
86	90	1
51	51	3
124	133	1
96	119	4
2	54	1
111	113	2
47	71	1
41	42	2
4	4	2
78	81	3
50	53	2
2	132	1
0	123	2
4	101	1
46	64	3
89	91	1
24	58	3
14	28	1
22	24	1
8	9	1
82	84	1
25	26	1
14	100	2
5	5	2
0	0	1
100	102	2
96	96	1
22	22	1
94	117	1
129	133	1
48	92	1
67	67	3
3	3	1
18	28	2
81	84	2
45	72	1
93	93	1
102	131	1
114	114	2
1	131	1
19	23	1
18	19	1
82	94	1
39	40	1
104	108	2
32	32	1
54	65	1
18	29	1
64	64	1
78	80	1
78	130	1
107	108	1
58	75	1
10	30	1
115	115	1
122	122	1
26	27	1
106	112	1
