11	11	26
13	13	14
122	122	5
96	96	10
62	83	4
118	118	7
72	72	12
12	12	30
10	12	7
93	93	15
120	120	5
10	13	6
65	66	5
68	70	1
4	4	10
103	104	4
64	109	2
98	98	14
131	131	10
45	45	18
97	98	10
18	18	7
78	78	14
90	91	2
22	24	2
104	104	2
49	94	5
121	121	10
6	15	1
47	47	15
112	112	11
39	39	9
28	30	3
26	26	9
115	115	13
58	61	1
43	43	5
6	7	10
45	83	1
20	58	3
95	119	2
28	28	11
105	105	3
84	87	5
30	30	9
56	56	9
120	123	4
73	74	7
79	80	4
61	61	35
16	16	3
15	33	4
99	99	14
81	81	8
83	83	14
99	100	4
10	65	2
124	124	3
11	81	4
90	90	5
29	29	14
21	22	7
100	100	10
17	46	5
98	99	8
44	45	1
29	30	5
112	119	4
31	31	18
91	92	6
33	33	19
45	46	2
90	123	2
16	20	4
23	25	3
69	69	7
87	87	15
107	107	3
117	119	2
25	25	6
86	96	4
40	110	3
41	41	8
7	93	3
125	126	11
126	126	10
77	77	28
36	108	1
35	35	16
66	66	14
47	65	2
59	59	7
68	68	6
74	109	3
86	86	2
20	20	6
100	101	4
62	62	7
34	35	5
47	75	3
71	71	13
24	78	2
113	115	4
70	70	12
31	32	8
103	103	8
60	60	15
5	11	2
34	34	11
57	57	8
63	63	7
7	107	7
1	1	5
22	22	10
17	17	1
36	39	1
92	126	1
6	8	2
60	62	3
112	121	5
121	122	3
49	49	6
7	25	1
48	48	5
19	19	4
74	107	2
33	34	8
91	91	3
17	18	4
45	94	4
9	14	3
73	73	24
110	110	3
39	40	3
6	6	12
123	123	11
11	22	1
62	72	2
113	116	3
80	80	18
41	43	8
11	93	8
48	93	1
38	84	2
15	25	2
81	82	9
84	84	8
90	97	3
125	125	11
9	10	4
17	45	3
41	93	2
61	72	1
60	61	1
85	85	10
105	110	3
127	133	1
81	92	1
95	95	14
69	123	4
12	35	2
116	122	1
88	89	1
48	90	3
67	67	8
21	21	11
97	97	10
56	85	4
80	94	3
39	82	1
9	12	4
3	16	1
131	133	2
7	7	10
25	26	7
68	69	4
95	98	1
38	41	1
58	58	16
6	47	1
113	113	7
133	133	4
111	112	3
132	132	6
24	24	4
28	29	1
129	129	12
45	57	5
129	131	4
85	86	5
15	15	10
26	27	5
57	59	1
11	12	7
108	108	1
79	81	4
76	76	8
101	101	12
41	42	5
102	102	5
5	93	1
117	118	1
34	107	5
59	68	6
26	28	4
55	55	4
32	32	11
4	32	2
88	88	4
100	105	6
30	40	2
11	89	1
19	20	5
115	126	2
13	34	5
8	94	3
59	95	3
40	41	7
40	42	4
77	108	3
21	95	3
83	84	6
119	119	4
10	10	8
82	82	11
5	6	2
82	83	6
5	5	13
63	67	1
111	111	7
18	44	3
27	29	2
47	48	2
75	75	10
44	44	12
77	78	5
92	92	3
39	54	1
92	93	3
7	106	1
65	65	11
35	36	2
39	44	3
37	38	8
112	116	2
85	94	1
126	129	3
84	89	1
5	7	5
79	79	10
128	131	2
27	47	3
51	51	1
83	88	2
70	81	3
36	40	5
21	29	1
18	84	5
26	39	1
42	42	6
16	74	1
36	36	8
62	96	2
110	111	4
0	31	2
78	79	5
9	9	4
74	74	3
77	95	2
14	14	4
37	41	4
50	50	1
31	67	2
106	106	8
127	129	1
8	92	4
114	127	1
55	56	2
40	40	7
131	132	5
16	17	2
57	79	1
11	14	1
121	132	6
30	80	2
3	3	8
93	122	1
20	21	5
121	129	1
45	64	2
34	60	1
22	80	3
120	124	2
116	116	10
64	64	4
86	100	2
27	28	3
128	133	2
92	125	2
113	114	1
56	101	4
105	106	3
8	11	3
59	108	2
11	57	1
65	85	1
12	46	3
95	97	1
27	27	6
11	56	4
109	109	4
57	58	2
67	68	2
128	128	6
21	58	1
3	8	5
94	94	7
17	20	2
27	31	2
32	79	1
116	134	1
82	84	1
37	37	7
0	1	2
10	58	1
91	98	1
14	15	1
8	70	2
56	62	1
75	76	3
71	72	4
72	73	3
118	119	3
7	89	1
132	133	3
58	68	4
124	125	1
111	128	7
6	48	3
89	89	1
107	111	1
34	72	2
7	8	1
46	72	2
27	96	1
7	99	1
21	30	2
78	80	1
4	95	1
38	38	3
8	58	2
134	134	7
14	86	6
35	95	2
26	82	2
60	109	1
117	117	3
10	14	4
61	96	1
23	23	3
58	78	1
33	43	4
74	75	2
130	130	5
29	32	3
121	131	1
58	81	4
24	25	1
59	60	2
4	6	1
8	9	1
70	84	2
46	98	2
63	98	2
96	99	1
92	96	1
22	51	2
25	62	2
46	46	4
10	27	1
96	97	1
7	100	2
17	75	4
118	120	1
13	71	1
8	8	4
19	22	2
127	131	2
70	71	3
95	109	2
92	98	3
7	85	2
55	57	1
48	100	1
39	41	2
89	92	1
122	123	1
72	96	1
13	22	1
122	131	1
41	90	2
21	59	1
89	127	1
5	95	3
96	98	1
21	51	1
76	77	6
93	125	1
30	67	1
10	86	2
38	49	1
87	88	2
128	129	2
48	49	1
32	77	2
16	42	1
31	92	1
93	100	1
15	29	1
30	39	2
13	28	1
17	57	1
43	109	1
44	94	1
5	101	1
14	99	1
62	86	1
127	127	1
54	104	1
35	74	1
84	85	1
2	2	4
130	131	1
32	46	1
90	127	1
41	92	1
118	128	1
11	92	1
109	110	2
26	49	1
27	80	2
69	70	1
27	77	1
69	77	3
129	133	2
38	55	1
88	93	1
104	105	1
21	38	1
28	35	1
106	107	1
29	62	1
59	74	1
3	4	1
121	123	2
23	29	1
58	60	1
8	31	1
36	85	2
30	31	3
31	39	1
89	126	1
28	88	1
60	70	1
10	11	1
78	83	1
34	109	2
9	47	1
114	120	1
26	93	1
8	36	1
94	95	2
113	117	1
37	55	1
29	38	1
58	80	1
59	111	1
3	14	1
26	80	1
83	108	1
15	16	1
120	121	1
57	83	1
93	94	1
64	67	1
103	107	1
115	116	1
74	96	1
36	84	1
86	101	1
58	67	1
74	76	1
3	47	1
38	40	1
35	72	1
