146	146	5
133	133	3
78	79	4
29	39	2
96	96	7
166	167	2
154	154	1
44	50	1
161	164	1
148	156	1
100	100	5
45	46	3
141	141	5
143	158	6
184	197	3
122	122	3
160	160	2
25	26	2
144	145	1
185	186	2
156	156	6
35	35	6
107	107	8
35	36	3
61	72	2
13	13	2
128	129	2
126	139	3
194	194	3
28	29	6
134	134	2
171	171	2
163	164	4
5	27	3
150	177	1
167	167	3
119	119	5
123	134	2
55	55	3
177	177	7
130	158	2
31	31	5
36	36	2
172	172	2
181	182	3
100	106	2
173	179	3
190	190	1
196	197	4
166	166	1
43	43	5
45	45	1
98	98	3
151	152	2
34	35	8
153	153	3
139	170	3
17	17	1
127	127	1
11	12	1
136	136	3
106	106	6
171	182	1
174	174	1
5	7	3
100	101	1
6	27	1
193	196	1
18	19	3
50	50	5
155	155	5
170	184	2
183	183	5
62	62	2
113	114	2
162	163	3
161	161	6
173	192	1
142	142	2
13	40	3
126	127	2
16	16	6
102	102	2
5	6	4
111	111	3
159	192	1
147	165	5
149	181	1
152	153	1
0	1	5
174	179	2
85	85	3
3	3	1
28	28	2
25	25	1
50	161	3
20	22	1
139	139	2
156	157	2
19	22	3
96	97	5
138	138	1
123	123	1
133	184	1
160	173	2
57	58	4
103	103	2
182	182	4
140	182	1
117	132	1
68	68	6
155	177	1
131	131	4
132	132	4
169	170	1
183	184	2
39	39	4
109	109	5
77	77	6
34	36	1
89	89	3
16	17	2
40	43	1
158	173	4
185	185	4
175	175	2
7	7	3
33	35	1
20	20	2
85	177	2
40	40	1
8	8	2
109	110	2
146	147	1
145	146	1
186	188	4
132	141	1
113	113	2
95	96	3
42	42	3
22	24	4
152	177	1
178	178	4
130	130	4
187	187	7
46	46	3
41	83	1
129	183	1
145	145	3
117	117	4
23	23	3
176	178	1
160	179	1
101	136	1
14	14	4
12	13	2
4	24	2
43	44	3
70	71	1
134	135	2
161	162	2
173	173	2
155	156	2
20	25	1
163	163	4
79	99	1
169	172	3
59	79	3
126	126	3
117	118	3
189	189	1
107	113	1
2	3	1
147	148	2
179	179	3
188	197	1
127	188	1
149	149	3
21	22	2
137	137	5
6	30	1
184	184	3
105	107	2
12	18	1
186	186	5
104	104	3
165	165	5
159	188	1
77	78	3
162	164	3
135	135	2
132	133	2
54	56	3
136	140	1
23	24	1
34	34	1
135	138	1
188	188	5
14	46	5
168	169	3
59	60	2
44	44	3
33	33	6
154	159	2
152	162	3
123	135	1
148	149	4
63	73	2
97	97	1
2	2	1
146	152	2
189	191	1
163	165	1
24	24	2
189	197	2
61	83	1
90	90	5
175	178	1
15	70	1
181	181	2
120	120	1
98	100	3
1	1	2
157	157	1
30	33	1
124	124	1
95	101	1
115	115	2
22	22	1
79	87	2
197	197	3
85	87	1
8	155	1
93	96	4
112	112	5
59	59	3
177	183	3
189	190	3
30	31	1
58	58	1
49	49	1
81	81	1
19	23	2
52	52	4
4	27	2
116	116	4
107	108	2
158	158	4
45	50	3
116	118	3
69	69	1
116	117	1
195	195	2
104	116	1
41	41	2
170	170	2
18	24	2
153	176	1
190	191	2
149	150	2
108	108	4
133	134	2
80	81	2
30	30	1
51	61	2
157	158	1
167	168	1
15	15	2
81	83	1
39	40	1
8	26	1
147	163	2
47	47	3
11	11	1
105	105	2
140	140	1
179	181	1
137	138	2
49	50	1
150	150	1
37	37	1
151	151	1
154	157	2
103	104	1
99	119	2
94	94	1
38	38	1
28	34	1
27	27	1
114	114	1
1	22	2
159	190	2
134	137	1
61	61	2
147	147	1
176	176	1
152	152	1
99	99	1
138	160	1
137	139	1
81	87	1
144	146	1
141	194	1
158	163	1
122	123	1
192	192	2
10	138	1
157	177	3
20	21	3
9	10	1
165	166	2
179	182	2
14	51	1
42	43	1
18	18	1
150	190	1
24	27	2
190	197	1
160	161	1
123	130	1
176	177	1
111	112	1
174	180	1
149	153	1
99	106	1
140	142	1
138	140	1
131	140	1
104	105	1
9	160	1
53	54	2
121	122	1
115	135	2
159	159	1
84	84	1
102	103	1
43	51	1
9	156	1
184	185	1
164	164	1
5	5	1
67	67	1
125	125	1
119	120	1
149	190	1
160	165	1
187	188	1
121	121	1
139	148	1
6	6	1
196	196	1
34	38	1
108	118	1
183	193	1
54	54	1
88	88	1
22	23	1
135	140	1
63	63	1
147	171	1
191	192	1
110	120	1
