179	179	18
9	9	24
135	151	2
99	99	5
149	176	3
15	20	2
44	44	24
31	31	10
31	32	8
51	51	7
6	7	6
154	154	8
9	42	2
141	145	1
95	102	5
131	131	24
139	139	29
71	72	7
87	87	8
104	104	10
1	4	1
43	44	7
66	66	12
1	10	3
32	32	18
175	175	5
39	39	23
30	30	18
111	111	11
57	57	17
36	36	22
134	159	4
135	135	3
18	19	8
176	176	24
166	169	5
18	32	4
12	13	12
113	114	2
112	113	3
45	45	11
134	134	19
65	65	37
68	68	7
127	127	13
19	19	22
24	24	9
51	52	1
177	178	3
6	6	19
41	42	16
70	71	4
161	161	3
19	21	6
88	89	5
97	98	1
10	11	5
24	26	7
97	97	5
78	78	5
29	29	15
133	133	24
89	89	5
23	23	30
8	8	14
108	110	3
162	162	5
53	66	2
55	55	27
172	172	23
41	45	3
20	20	4
129	130	3
101	101	8
73	73	12
3	3	21
43	43	22
41	41	20
114	114	15
15	16	5
116	116	13
26	38	3
20	23	3
144	145	3
22	25	6
171	173	2
85	117	3
14	14	17
76	77	7
125	125	15
77	77	9
134	172	1
178	178	6
101	111	1
151	180	1
4	29	8
91	91	8
169	169	4
150	150	7
148	148	13
130	130	16
52	53	10
128	128	5
53	54	5
35	35	16
93	93	14
132	142	2
90	106	3
134	157	2
142	142	11
83	84	5
81	81	9
2	2	7
141	141	7
18	20	1
37	37	17
138	138	15
52	55	1
157	168	3
53	58	4
180	180	10
150	153	5
26	26	17
163	165	1
117	117	3
40	40	12
17	18	11
89	118	5
37	38	3
143	143	6
17	27	1
11	13	3
0	0	15
95	96	3
22	22	9
115	122	4
64	64	7
42	43	15
171	171	7
94	94	10
135	168	2
15	18	4
35	36	13
115	116	8
132	132	6
19	20	11
162	164	3
2	4	3
168	168	5
18	18	8
80	80	4
0	1	5
114	124	1
21	21	18
158	158	5
156	156	3
85	85	4
12	22	1
123	130	1
120	122	1
56	56	16
38	39	11
126	127	5
71	71	9
106	106	11
145	146	3
94	95	4
139	140	5
7	20	3
118	118	11
10	14	5
135	136	2
78	79	3
79	173	5
110	110	4
144	144	12
109	170	3
107	109	6
90	123	5
105	105	3
152	153	1
36	37	5
5	8	3
9	10	5
31	33	1
72	81	4
42	42	9
149	149	13
86	87	3
76	76	12
5	5	7
119	119	7
92	94	6
89	94	2
28	29	5
102	102	3
34	34	8
90	124	1
3	20	3
160	160	8
64	82	3
21	28	2
9	11	1
5	6	5
67	67	7
126	129	3
7	8	9
4	4	15
25	25	14
140	148	2
146	146	10
61	63	3
112	112	7
1	1	11
141	143	2
92	93	2
93	122	5
175	176	1
1	2	8
167	167	2
82	83	1
126	126	7
2	3	8
159	159	12
173	173	12
151	152	3
65	76	3
159	160	4
57	59	2
82	82	4
10	10	10
58	60	3
12	12	4
119	121	3
137	137	4
86	86	6
90	90	17
111	112	5
60	60	19
153	153	5
8	9	4
7	7	10
15	15	13
123	125	4
84	85	7
142	145	3
166	166	3
171	180	1
3	7	2
25	27	3
110	111	3
33	33	12
17	17	8
134	143	3
5	42	2
169	170	2
83	83	6
170	170	12
91	117	2
29	31	1
153	154	3
152	155	1
98	101	1
155	156	2
13	13	9
56	57	1
169	179	2
57	58	6
126	130	3
147	147	10
77	78	1
121	121	5
61	61	3
145	145	7
179	180	4
106	107	3
63	64	3
136	136	8
174	175	2
146	154	5
3	4	7
108	108	6
44	45	5
19	22	4
96	96	12
135	150	4
163	163	10
59	60	7
61	62	2
54	55	2
98	100	5
52	52	7
156	157	4
34	35	3
172	173	2
32	33	4
101	104	1
25	26	6
54	54	9
133	134	5
163	164	6
82	85	2
129	131	1
39	40	6
163	166	1
66	71	1
158	167	5
98	99	1
141	147	1
140	140	8
74	74	9
102	103	3
17	33	6
59	59	9
79	79	7
138	140	1
157	175	3
38	38	13
30	31	2
165	166	8
11	12	4
168	169	10
120	120	11
84	101	1
30	118	2
158	159	3
91	92	8
1	3	3
160	165	1
19	27	2
15	17	2
42	44	1
8	12	1
11	11	11
23	40	2
121	122	1
104	105	3
4	5	3
55	56	7
43	52	2
64	65	3
40	42	1
6	42	4
77	87	1
95	95	8
124	125	3
138	139	1
4	19	2
114	115	1
108	169	1
82	84	2
77	79	2
50	50	3
29	30	4
12	38	2
116	117	6
16	16	11
10	40	3
102	133	2
63	63	4
129	129	3
23	24	5
122	122	3
39	43	3
58	58	4
93	95	2
170	171	2
74	75	1
94	115	2
105	106	6
3	21	2
42	45	1
170	179	2
85	112	3
28	30	1
176	180	3
128	129	3
157	159	1
137	151	1
67	68	1
13	16	1
107	134	4
17	79	2
151	151	5
131	132	1
10	15	1
84	84	4
13	18	1
68	112	3
12	16	1
123	128	2
14	15	4
101	103	3
118	120	1
50	53	4
22	23	4
50	51	6
28	28	4
160	162	1
65	82	2
113	113	4
99	100	4
165	165	1
123	124	4
84	109	2
60	77	1
136	154	2
92	92	2
93	96	1
157	157	1
22	59	1
20	28	3
7	9	5
97	99	2
153	155	1
171	172	3
104	122	1
157	173	1
163	168	2
5	7	1
134	135	2
132	133	3
66	68	1
126	156	5
72	72	2
107	107	6
162	163	1
21	59	1
82	87	1
92	118	1
27	27	6
8	10	3
119	120	2
140	141	3
86	118	1
34	36	1
4	8	1
21	23	1
164	173	3
168	170	1
142	144	4
60	61	1
28	104	2
134	138	4
17	30	2
98	98	1
62	62	4
18	44	1
14	16	2
12	45	4
61	88	2
155	155	3
103	104	2
137	154	1
26	28	1
100	100	1
152	152	3
54	59	1
16	17	5
167	171	1
90	91	3
118	119	2
45	46	5
53	53	2
10	12	2
105	107	1
129	152	2
134	171	3
65	66	3
103	103	8
93	94	2
154	156	3
10	13	2
96	118	2
143	145	1
81	82	1
11	37	1
9	12	3
30	35	2
63	67	1
55	59	2
3	6	2
90	92	1
131	153	2
68	71	1
88	88	6
77	80	2
26	27	3
89	123	2
7	10	1
94	96	2
8	21	2
16	36	1
39	93	1
40	93	1
71	78	1
157	162	1
18	23	1
174	174	3
150	180	1
19	23	1
33	38	1
78	93	3
20	21	1
164	165	1
107	108	1
129	165	1
29	43	1
160	161	1
143	144	1
177	177	1
65	67	2
4	7	1
93	167	1
75	75	3
96	97	1
59	61	1
100	117	2
3	8	1
20	45	1
129	154	2
81	83	1
115	126	1
139	148	1
49	50	2
101	102	1
135	169	1
27	61	1
22	43	1
51	64	1
25	39	1
39	41	1
94	125	1
62	63	1
145	149	1
3	5	1
87	88	1
24	25	1
114	117	1
