197	197	9
161	161	11
81	82	1
192	192	24
157	158	7
173	173	22
12	12	14
124	126	5
162	162	6
29	29	9
156	181	3
2	4	1
106	107	10
114	114	15
93	93	16
119	119	16
124	125	6
131	131	6
112	112	3
186	186	9
127	127	15
117	139	3
155	179	3
173	176	2
30	30	14
50	52	8
113	113	12
190	190	17
62	62	17
164	165	8
167	167	9
16	16	4
31	31	14
28	32	4
156	156	34
57	58	1
147	147	8
127	128	1
154	159	2
163	166	3
35	35	18
57	57	13
152	152	7
129	129	2
22	24	5
48	48	11
39	39	6
44	44	12
14	14	17
149	149	7
106	106	16
15	21	1
188	188	21
82	87	6
7	12	2
19	21	6
176	177	2
160	161	7
47	47	10
58	58	10
148	148	19
182	182	11
183	183	20
133	135	4
175	176	10
64	66	8
181	181	10
175	175	8
139	139	5
54	54	10
119	135	2
194	194	13
42	42	11
38	49	2
34	35	6
125	126	2
102	104	6
123	123	11
121	123	8
176	176	14
8	36	4
9	9	12
38	38	8
25	25	9
184	184	15
45	45	8
72	72	9
145	145	15
79	79	7
133	136	4
137	138	7
156	157	10
11	11	12
143	143	6
163	164	4
56	57	2
185	185	11
81	84	2
51	53	2
3	114	4
134	135	4
120	120	13
13	15	5
186	187	5
50	53	4
150	150	12
133	133	21
118	119	2
134	134	14
97	97	9
32	56	1
13	14	8
19	20	6
64	65	7
163	167	1
34	34	21
133	134	10
168	169	10
55	56	5
151	152	6
53	56	3
155	156	12
46	46	8
33	33	13
187	187	9
29	30	1
126	126	7
165	187	1
164	188	3
21	22	4
132	132	5
70	72	3
171	171	17
150	151	8
117	117	5
71	71	11
124	124	16
48	53	1
161	163	3
169	169	12
119	178	3
51	63	3
109	111	6
45	46	3
135	135	15
141	143	3
114	119	2
168	168	7
10	10	7
115	145	3
146	146	16
172	172	10
105	105	5
135	136	9
128	128	15
36	36	10
119	131	3
185	186	9
30	31	5
179	179	7
166	168	2
52	52	6
113	115	5
141	141	6
98	98	4
121	124	5
100	100	3
164	172	4
99	99	11
55	55	5
44	45	2
68	73	1
165	166	6
0	0	11
23	23	9
157	178	3
63	63	7
105	107	1
98	99	9
107	107	14
187	188	9
17	24	5
195	195	18
120	122	1
151	151	6
43	43	22
9	10	7
4	4	6
103	106	4
14	48	2
3	3	7
25	26	6
149	160	2
143	144	3
189	190	9
146	148	2
102	103	9
145	147	2
10	11	2
17	17	7
130	130	5
37	38	6
159	159	25
160	160	13
125	128	4
178	178	6
22	26	3
49	49	11
108	110	1
0	5	4
72	73	1
110	113	4
153	154	8
189	189	21
1	1	4
1	12	1
53	55	3
153	153	5
170	172	2
41	41	7
19	22	2
51	51	11
138	138	16
122	137	2
155	155	16
154	154	3
184	189	1
183	184	7
100	106	1
152	155	2
172	173	3
82	82	9
48	54	6
21	21	7
42	44	4
116	142	3
115	115	11
35	64	4
174	174	12
171	185	1
25	34	1
56	56	4
135	138	1
194	195	15
26	26	3
143	146	3
136	137	4
99	100	2
95	95	4
169	185	3
26	163	2
33	34	7
154	155	3
50	57	4
195	196	4
16	19	6
81	81	4
51	55	4
163	163	3
112	120	3
145	148	1
126	128	2
137	137	10
147	149	4
158	158	4
170	171	4
149	196	2
31	32	3
94	100	4
119	120	4
32	152	4
79	81	1
28	29	1
110	111	4
37	40	2
105	187	1
24	31	3
45	50	3
169	170	11
190	191	3
193	194	8
116	116	10
22	22	7
62	64	4
193	193	17
125	125	9
16	18	3
177	178	6
128	129	8
45	47	2
141	145	2
114	115	5
52	53	6
122	122	10
104	105	10
0	57	2
146	147	3
65	65	1
187	189	4
144	144	5
111	112	6
50	54	1
51	66	2
39	40	6
107	109	5
165	167	1
97	102	5
120	155	2
162	189	5
3	5	3
85	85	3
15	15	7
11	24	1
59	60	2
27	28	2
174	175	7
66	66	9
43	44	7
194	197	2
142	142	9
83	83	3
101	101	6
54	55	6
93	103	2
130	131	5
121	121	6
38	72	1
191	191	16
10	15	1
53	57	3
74	75	1
116	117	9
122	129	3
162	185	3
178	180	4
123	124	10
23	24	4
68	68	5
62	63	5
36	151	1
140	140	9
94	95	2
64	64	4
37	37	9
14	15	3
157	157	13
103	103	6
11	12	1
24	26	3
121	122	7
12	14	3
87	90	3
133	143	5
110	110	6
101	102	7
191	192	2
171	172	10
53	53	5
122	123	3
111	111	17
32	33	9
37	41	2
26	27	4
99	101	1
13	13	4
113	118	2
86	87	4
32	32	13
155	159	2
190	194	1
156	170	1
78	79	3
7	36	4
127	142	1
159	161	2
159	160	2
147	148	6
114	134	3
146	190	1
10	14	2
144	145	3
118	118	6
179	180	5
36	37	7
173	174	1
119	121	1
126	127	7
100	115	3
138	139	4
35	154	4
67	67	5
12	13	2
192	193	7
143	145	1
188	190	4
63	104	4
42	43	3
196	196	3
69	71	3
156	158	1
185	188	3
156	169	2
4	141	2
142	144	4
136	148	3
176	178	3
117	118	2
71	73	2
181	182	3
153	157	3
164	166	2
73	73	8
16	21	2
38	76	2
163	187	4
5	5	5
136	147	2
179	181	1
131	133	3
11	15	1
131	154	2
174	177	1
8	8	8
23	31	1
158	159	2
155	186	2
2	2	9
177	177	5
7	8	3
46	49	1
166	167	1
97	98	1
27	27	1
182	185	2
93	94	4
103	114	5
44	83	4
111	139	2
109	109	4
24	24	7
35	37	1
30	32	6
69	69	4
157	170	2
108	111	2
70	70	7
47	48	3
171	184	2
154	181	4
169	171	3
5	7	14
13	33	3
132	135	1
147	171	3
164	164	2
160	185	3
4	7	1
114	127	1
180	181	2
19	19	2
20	21	3
34	58	1
6	6	6
135	137	1
119	171	3
89	89	1
11	127	1
104	104	5
37	67	3
160	168	1
120	123	3
161	164	4
1	57	2
18	18	5
152	154	2
136	136	7
170	170	13
134	136	1
88	89	2
129	142	5
141	142	1
96	96	4
185	187	2
61	61	6
112	113	1
59	59	1
123	125	2
8	13	1
186	188	3
108	108	3
35	60	2
142	145	3
103	104	1
155	158	3
28	28	4
167	169	3
71	86	1
90	90	2
192	197	1
186	189	2
48	49	6
148	149	6
58	61	3
15	17	2
50	65	1
7	37	2
4	8	1
174	176	4
169	181	1
137	148	1
165	184	2
130	154	2
132	133	2
23	114	2
61	63	5
50	50	7
114	144	1
18	19	3
84	84	1
32	114	2
69	70	4
166	166	9
7	7	3
67	68	1
165	165	2
5	18	1
95	104	1
50	55	5
60	61	1
17	32	1
187	192	1
42	46	2
111	145	1
192	194	2
6	144	1
71	72	4
94	94	2
105	106	2
188	189	6
106	108	1
136	140	3
100	116	3
148	153	1
164	187	2
40	41	2
17	54	1
32	66	1
188	197	1
149	176	1
131	143	1
167	168	2
150	152	3
169	187	1
18	20	3
166	170	2
78	78	5
149	150	3
170	185	2
151	183	1
37	51	1
4	5	1
35	39	1
42	78	1
167	174	1
142	143	4
3	20	2
25	28	1
16	56	2
51	52	1
118	120	3
120	121	4
87	87	1
184	187	1
118	123	1
3	19	2
128	183	1
54	56	4
140	142	1
179	182	3
70	71	1
9	11	1
97	100	2
196	197	1
53	54	1
164	180	3
192	196	1
132	137	1
14	46	1
66	69	1
58	65	1
99	104	2
107	108	1
47	72	1
28	30	2
20	61	1
140	143	1
40	40	3
82	86	2
75	77	1
153	156	2
41	43	1
116	136	1
20	20	2
37	66	2
0	4	1
189	192	1
147	184	1
45	49	2
87	97	1
37	153	1
5	6	2
100	108	1
16	17	3
63	115	1
73	74	1
30	108	1
10	13	2
109	110	2
39	42	3
193	196	4
68	69	2
141	146	1
16	52	1
161	162	1
180	180	4
17	18	1
152	153	1
163	172	1
158	160	1
108	109	3
20	115	1
64	67	2
142	146	1
73	75	1
19	32	2
90	137	1
115	118	1
6	40	1
12	136	2
82	83	1
24	25	1
52	56	1
59	68	1
38	39	1
94	114	1
148	157	1
33	52	1
48	71	1
11	13	1
12	15	1
82	84	1
22	23	1
106	110	1
26	35	1
13	45	1
88	88	2
6	7	2
9	13	1
182	183	3
41	42	1
132	143	1
184	185	1
97	114	1
37	42	2
48	69	1
113	114	1
156	178	1
145	146	1
63	65	1
130	133	3
116	119	1
122	128	1
96	97	2
38	69	1
115	119	1
184	186	1
22	27	1
116	139	1
112	139	1
68	70	1
