20	31	6
20	21	14
163	167	2
116	117	13
26	26	15
137	137	25
31	31	29
32	33	10
14	14	40
39	40	18
36	37	5
94	95	6
43	62	1
131	131	12
104	104	10
134	134	13
143	152	2
33	34	9
9	9	28
4	4	20
100	102	5
93	93	4
18	19	5
73	75	4
17	50	1
119	121	4
13	38	6
132	148	3
133	133	19
147	148	3
27	60	3
87	87	11
63	63	14
136	150	2
75	132	3
62	62	8
167	167	12
165	165	19
106	106	13
166	166	18
124	130	2
142	144	4
0	0	21
119	119	17
1	16	4
15	41	5
127	143	3
2	3	20
111	111	13
171	171	13
15	15	22
117	117	9
162	162	11
3	8	3
16	21	3
73	73	21
138	138	18
91	92	13
44	45	8
19	19	30
114	114	4
176	176	26
156	161	2
41	41	28
41	42	17
142	142	24
110	110	10
173	174	6
172	176	4
29	29	14
96	96	16
7	7	18
43	43	20
55	55	13
34	41	5
26	27	1
169	169	27
20	20	16
166	178	5
129	130	11
123	126	2
127	127	25
102	103	2
7	98	1
123	123	14
9	10	9
58	93	4
80	80	22
89	89	16
5	7	7
19	20	6
95	102	4
128	152	2
122	122	17
102	111	7
90	92	5
160	160	8
92	93	6
9	12	2
57	104	3
40	41	5
68	68	18
111	152	2
65	89	6
95	95	9
2	33	1
7	9	7
23	23	20
155	155	19
126	129	9
25	26	10
150	166	8
30	30	24
29	63	4
11	12	6
179	179	9
81	81	7
60	60	16
174	174	11
86	101	4
151	151	15
103	104	6
62	63	2
7	22	6
97	98	4
83	83	17
34	34	15
136	136	21
80	102	2
61	62	1
40	40	14
52	59	9
118	118	10
81	93	3
10	10	32
87	89	6
163	163	12
2	4	3
5	21	1
6	6	29
28	28	27
13	13	34
10	14	10
67	67	18
128	128	17
21	22	2
147	169	2
11	11	26
112	113	2
36	36	38
37	37	16
133	137	3
89	90	2
27	27	23
172	172	12
116	116	5
139	139	21
140	140	16
78	79	8
91	91	10
138	147	6
42	63	2
132	132	11
28	61	5
83	85	13
75	82	1
154	157	1
35	35	18
112	112	12
130	130	8
170	171	14
0	5	2
148	148	11
158	170	1
161	161	13
88	89	7
72	72	20
38	39	3
147	163	4
120	120	6
7	8	3
16	24	1
170	170	11
42	42	29
6	7	33
118	125	2
76	111	3
44	44	26
157	158	7
134	145	3
5	8	6
23	40	3
12	14	4
8	8	11
85	111	1
135	135	11
159	159	16
107	108	2
25	25	21
152	153	5
33	33	40
174	175	4
84	84	10
71	71	10
76	76	9
85	113	5
132	146	5
24	31	4
64	101	3
16	17	9
37	38	6
16	16	16
3	4	5
99	99	5
11	34	1
130	131	9
22	22	28
85	85	6
165	166	8
145	145	8
18	18	38
84	93	2
2	2	14
56	56	16
52	54	1
46	46	3
129	129	19
143	143	9
1	1	19
38	38	22
3	3	28
100	155	2
65	65	20
60	61	11
144	144	7
17	24	5
33	35	5
10	32	6
98	108	1
59	59	23
64	64	9
115	115	9
21	21	16
98	98	8
53	59	5
5	6	18
77	88	4
2	11	3
79	79	12
18	21	8
146	146	34
64	66	3
165	178	1
86	109	2
153	153	21
168	168	15
54	57	2
171	172	10
147	147	14
162	169	2
25	126	2
113	114	5
162	168	3
106	120	1
58	58	13
39	39	23
64	89	5
124	124	5
84	101	2
57	57	10
156	156	14
90	91	5
154	154	16
57	93	7
24	26	5
65	79	2
108	114	1
81	143	3
80	96	1
140	142	5
76	118	2
14	24	3
74	74	6
75	75	16
139	143	1
12	12	17
84	115	2
1	2	7
93	94	7
160	161	4
175	176	2
85	151	2
2	39	2
100	111	1
17	17	18
111	150	3
61	61	6
97	97	18
100	100	13
19	21	8
165	168	3
145	152	1
25	43	3
99	100	3
11	14	2
6	31	2
78	78	14
32	32	16
152	152	8
57	58	8
50	50	10
117	129	3
130	154	8
77	77	17
149	149	9
108	108	16
24	77	1
108	110	5
9	11	3
12	44	7
115	117	3
103	103	19
159	170	5
27	28	17
94	94	8
86	86	7
20	51	7
17	21	3
59	60	5
67	68	4
83	84	4
178	178	12
102	102	14
52	60	1
64	65	6
121	122	3
132	133	4
135	139	2
109	110	9
171	173	1
84	151	1
33	36	3
113	155	2
121	121	5
50	91	1
101	101	12
28	29	3
145	155	2
150	150	12
8	9	10
124	125	5
51	51	9
6	10	7
71	125	2
14	18	5
50	51	1
156	157	6
25	36	8
45	45	6
17	45	1
113	116	4
56	93	5
31	32	6
74	121	2
15	18	2
29	115	1
6	9	1
79	130	5
164	164	2
163	179	8
87	162	1
26	28	6
173	173	16
72	127	1
163	173	4
24	25	3
96	97	5
52	52	7
117	119	1
98	99	3
87	88	1
101	119	1
82	87	2
8	16	1
8	13	3
92	92	11
122	123	2
31	38	1
35	45	4
18	31	3
164	165	6
146	150	4
6	30	10
88	88	5
25	41	11
163	165	7
81	82	2
82	142	3
19	22	4
154	155	3
111	112	1
24	32	2
166	167	4
22	23	7
117	118	6
119	125	2
158	159	9
54	54	7
21	23	1
53	122	3
113	113	13
75	76	2
5	5	23
166	179	5
102	104	1
115	118	8
126	126	7
146	147	1
81	106	3
157	157	19
52	57	2
113	115	3
72	94	2
85	103	5
0	6	6
85	86	7
25	28	7
101	109	1
138	140	2
10	12	3
21	32	4
28	31	4
49	61	1
53	103	1
24	36	2
157	159	2
125	125	10
74	95	3
52	53	2
53	53	9
78	91	2
24	24	7
65	66	1
105	107	2
16	18	6
143	145	5
151	152	3
151	157	4
114	117	4
144	153	5
63	66	2
66	66	6
141	141	7
70	78	5
7	18	1
92	151	3
180	180	6
61	87	2
74	120	3
106	107	3
109	109	6
27	53	1
34	44	5
134	135	5
81	133	2
140	143	2
135	136	2
27	31	1
29	30	4
87	101	2
137	138	1
18	23	3
100	104	4
67	84	2
159	165	1
7	10	1
71	127	2
173	177	3
160	165	1
62	82	1
38	40	1
68	79	7
109	112	1
85	152	2
158	160	1
56	94	2
66	80	2
129	131	2
28	30	9
111	114	1
132	147	2
107	107	6
15	16	3
153	157	4
155	178	1
137	141	1
66	67	2
134	156	5
76	114	2
161	177	1
107	149	3
172	173	5
56	58	1
79	80	5
14	39	1
35	36	1
146	168	1
11	41	3
26	36	2
109	111	2
55	78	1
173	175	2
55	58	5
84	105	3
10	23	7
19	28	2
11	40	3
23	26	2
143	144	2
110	112	4
90	90	4
23	25	3
162	163	3
115	116	2
11	35	1
118	133	2
16	23	2
74	96	2
55	94	2
135	137	1
114	115	2
76	109	2
177	178	3
112	153	1
162	178	3
158	158	13
33	102	2
81	107	1
82	82	5
43	44	7
26	31	1
56	80	3
56	57	7
12	13	3
3	9	2
15	99	1
4	84	1
144	145	4
112	149	2
32	34	1
31	33	1
145	154	3
158	161	3
161	162	4
127	128	1
103	107	1
33	61	1
168	169	2
30	31	3
161	170	1
123	124	1
18	24	2
166	172	1
168	175	2
31	99	2
32	40	2
4	40	5
81	95	1
6	124	1
31	36	2
4	80	5
174	178	3
138	149	1
16	42	3
85	114	1
34	35	1
78	145	2
98	100	2
169	171	2
163	164	8
74	76	2
161	180	4
3	15	1
33	45	1
76	133	2
161	178	1
42	43	6
52	58	2
98	107	1
104	124	3
53	54	3
80	82	1
141	145	1
166	180	3
13	14	2
76	103	3
77	112	2
167	168	2
105	106	3
77	89	2
100	101	1
11	13	2
39	41	2
18	20	2
120	121	2
102	106	2
157	171	1
62	105	2
53	58	1
139	140	1
79	102	1
155	156	5
0	10	1
72	125	1
109	114	3
155	161	3
156	169	1
49	49	1
77	78	2
86	98	1
63	64	1
26	30	2
6	14	3
39	44	1
71	73	3
115	136	2
81	124	2
4	7	3
80	81	1
161	166	1
133	134	1
3	10	2
19	30	2
6	17	1
87	115	2
43	45	1
4	6	1
177	177	3
38	64	1
117	152	2
142	154	1
105	105	4
169	178	2
10	13	1
164	175	1
135	155	1
32	36	2
158	162	1
96	98	1
78	103	2
22	30	1
112	118	2
54	60	1
15	31	1
29	97	1
35	60	1
159	162	2
168	174	1
83	86	2
3	14	1
109	152	1
21	44	2
86	87	1
139	142	1
119	120	2
159	177	1
17	23	1
67	76	2
133	147	1
104	119	1
148	173	1
27	120	1
124	145	1
49	50	1
76	77	1
91	105	2
175	175	2
0	9	1
8	10	1
57	119	1
92	122	1
35	41	1
148	149	1
5	9	1
128	145	1
23	38	2
104	105	2
24	44	4
78	109	2
38	44	2
51	57	1
108	119	1
134	149	1
30	62	1
44	46	1
23	24	1
114	118	1
113	119	1
74	92	1
20	35	2
162	166	1
135	154	2
89	94	1
158	175	1
2	7	2
15	25	2
75	91	2
2	8	1
4	5	1
80	123	2
128	129	1
9	22	1
96	119	1
25	53	1
108	150	2
113	117	1
114	180	1
55	56	1
49	70	2
109	154	1
18	30	1
91	151	1
153	154	1
132	140	1
103	105	1
128	151	1
17	28	1
32	37	1
4	35	2
57	94	1
6	50	1
21	31	2
31	97	1
169	174	1
71	79	1
29	58	1
57	81	1
90	95	1
0	1	1
132	153	1
27	58	2
130	153	1
164	166	1
51	53	1
33	46	2
