39	39	12
41	42	8
103	103	5
19	19	11
79	80	6
13	13	11
11	12	4
83	110	4
38	39	7
104	104	4
12	12	9
29	30	5
21	22	8
133	134	5
92	92	4
64	64	19
98	99	8
38	38	10
18	19	4
144	144	3
97	103	1
109	110	6
4	29	3
99	138	3
129	129	7
122	127	4
120	120	2
31	120	3
135	135	7
86	86	7
64	65	2
84	86	3
41	67	2
26	27	1
19	25	5
41	43	3
15	15	15
33	33	3
80	126	6
118	118	4
131	131	14
19	20	1
32	32	11
36	46	4
5	5	6
36	36	11
34	46	3
24	24	4
93	93	4
136	139	2
7	7	13
37	38	8
78	82	1
113	114	1
62	64	5
50	51	2
30	30	14
107	114	1
14	14	7
7	8	3
47	48	3
53	54	5
107	107	6
149	149	5
84	84	6
6	27	6
26	28	3
145	154	1
34	35	9
147	147	3
77	77	8
25	25	18
96	96	10
23	23	16
108	119	1
78	99	4
123	135	6
93	97	4
143	143	9
26	153	3
115	116	9
71	73	4
71	71	8
9	9	3
47	47	8
81	81	10
90	90	4
56	57	4
122	122	6
40	40	19
40	43	1
3	4	4
72	126	3
82	82	4
85	85	9
151	151	3
123	127	4
29	33	3
102	102	5
62	62	1
18	18	7
142	143	3
123	132	7
112	112	6
66	94	2
139	149	1
68	69	2
73	73	6
68	68	12
87	87	3
32	34	3
114	114	5
36	37	4
85	107	3
54	54	9
53	55	3
140	140	6
88	88	6
42	55	2
75	77	3
95	95	7
25	26	2
106	106	3
99	99	13
58	58	4
75	76	4
150	151	6
31	31	3
45	45	8
105	105	3
110	110	2
116	116	5
138	138	6
51	79	1
122	124	1
23	24	4
133	133	18
80	81	1
135	148	3
39	40	4
76	77	1
26	26	6
16	16	3
126	128	1
87	88	2
113	113	4
134	134	6
93	94	2
48	54	2
69	70	4
152	152	4
74	74	6
39	42	1
44	44	11
81	99	3
128	128	5
25	28	2
64	71	6
145	145	6
91	92	2
17	18	4
13	14	5
141	141	2
132	132	9
5	6	2
39	51	3
110	112	3
81	82	6
144	147	1
124	125	3
56	63	1
28	28	4
41	41	3
48	48	11
136	149	2
29	29	6
130	130	11
57	57	4
83	83	5
22	23	7
49	50	10
25	47	3
120	122	3
35	36	3
43	43	12
94	125	1
98	144	1
137	137	7
126	126	1
46	54	1
28	29	4
8	8	4
65	66	1
135	149	3
78	78	4
119	119	4
102	103	3
78	79	2
56	56	5
108	108	4
27	27	3
99	103	7
83	111	5
80	82	3
46	62	1
67	85	1
63	71	2
53	53	9
32	39	1
100	139	3
79	79	7
15	16	1
17	23	2
125	125	7
153	153	7
66	66	5
98	98	4
12	14	3
50	58	2
111	115	3
71	72	1
32	33	3
107	108	3
127	147	2
114	151	2
6	6	5
126	148	1
3	3	3
33	34	5
52	70	2
14	17	4
96	97	2
2	28	1
11	11	3
47	100	6
74	79	2
46	46	7
95	137	1
88	92	1
124	124	3
55	55	3
121	121	2
9	22	1
88	121	3
10	17	7
130	132	1
110	114	5
70	70	6
146	147	1
143	149	4
34	34	9
43	44	2
100	100	5
9	10	1
105	108	1
21	21	5
69	69	2
17	24	1
150	150	2
96	104	1
119	122	2
51	52	1
56	102	2
37	37	9
4	4	4
136	137	2
78	127	2
94	97	1
50	70	1
43	50	1
35	44	3
109	109	3
146	146	2
88	93	2
28	30	3
87	98	4
110	113	1
57	58	1
107	112	1
154	154	2
93	111	1
121	128	3
61	61	1
63	119	2
29	32	3
40	41	3
142	142	3
97	98	2
10	13	3
140	142	2
27	28	2
101	143	4
50	69	1
38	42	1
45	46	3
104	119	1
139	139	1
76	118	2
98	137	3
49	49	3
33	39	2
76	76	6
20	20	3
141	143	2
81	85	1
97	99	1
48	51	2
13	15	3
6	7	1
65	123	3
127	127	1
74	111	1
66	67	1
86	112	1
17	19	1
12	13	1
30	52	2
6	8	1
111	111	1
51	54	2
5	7	2
81	94	2
97	97	7
67	67	3
142	144	1
48	49	3
101	101	1
30	37	3
65	65	3
12	26	1
38	49	4
55	56	1
134	135	3
42	53	1
26	31	1
20	23	1
63	64	1
131	135	1
63	75	2
127	128	1
67	123	3
69	75	2
90	95	2
146	148	2
76	83	2
72	73	1
115	129	2
112	115	1
96	118	1
99	145	1
49	51	3
43	62	2
66	69	1
10	10	6
77	119	2
42	43	2
55	66	1
17	20	2
30	43	2
121	124	1
144	145	1
19	24	1
16	18	1
132	133	1
87	105	2
91	122	1
123	133	1
83	98	2
120	124	1
93	105	1
67	69	1
95	104	1
102	112	1
74	119	1
69	79	1
44	45	1
42	49	1
117	117	1
51	56	1
67	120	1
108	110	2
8	9	3
87	92	1
138	141	4
67	68	1
116	118	1
144	146	1
12	17	1
24	25	1
4	28	2
123	123	3
99	146	1
127	145	1
112	114	1
83	112	1
78	80	1
43	65	1
85	98	1
34	36	1
74	98	1
118	119	1
121	122	1
138	143	1
79	81	1
87	97	1
6	10	1
50	68	1
62	71	2
46	57	2
131	132	1
45	55	1
105	112	1
