53	53	3
107	111	4
67	77	1
91	91	8
56	59	2
29	52	4
109	109	6
94	96	5
24	53	1
44	44	13
102	102	11
33	33	2
105	106	6
69	69	3
39	40	3
47	47	11
70	70	9
22	23	4
87	89	4
49	49	15
73	73	16
22	22	2
97	97	14
85	85	14
67	67	5
72	72	8
83	88	1
82	82	5
51	52	3
23	24	4
61	62	3
103	103	6
42	42	6
48	48	11
58	58	7
83	83	12
107	107	6
75	75	3
99	101	4
34	34	8
81	81	6
82	83	1
100	101	2
25	25	4
99	102	1
68	71	6
46	46	6
72	73	5
28	28	3
89	90	6
59	60	1
43	44	3
40	40	10
90	90	3
57	57	9
27	27	14
79	79	9
101	101	3
77	79	4
112	113	6
40	41	2
50	50	13
51	51	13
35	36	3
45	45	3
84	84	15
74	74	2
95	97	2
28	60	1
33	34	3
51	97	3
88	88	9
75	78	2
89	114	1
92	92	6
89	89	8
71	72	1
59	59	8
49	76	2
98	98	4
30	30	8
29	47	3
101	102	2
92	110	2
47	48	2
21	21	12
85	86	5
88	90	4
60	60	1
30	31	18
76	81	1
87	87	4
81	84	1
55	55	8
26	26	3
67	86	1
42	66	1
36	36	6
29	30	3
88	100	4
70	72	2
32	32	7
66	78	4
26	27	3
69	75	3
108	108	5
39	58	2
46	47	7
58	59	1
43	43	2
96	96	8
60	61	6
93	93	4
78	78	3
23	73	3
28	58	3
106	106	6
99	109	1
27	28	3
20	84	4
56	57	1
64	67	1
95	95	6
25	26	8
62	62	6
52	52	5
86	87	3
64	64	3
82	84	5
66	67	3
79	80	1
26	46	1
21	25	1
59	63	3
105	105	2
20	20	3
30	57	1
63	65	1
110	110	10
40	50	2
29	31	2
111	111	7
31	32	5
29	29	4
62	109	3
95	96	4
71	71	7
114	114	4
46	111	5
44	45	2
39	39	7
64	65	2
78	93	2
69	96	1
83	87	4
90	91	2
23	23	11
55	57	1
104	104	8
54	54	5
54	59	1
83	85	1
104	106	2
31	37	1
92	93	2
72	75	1
98	112	2
99	99	3
26	53	6
38	39	5
65	65	8
55	56	5
24	24	11
44	69	2
86	111	1
19	19	2
23	26	3
93	95	1
41	41	3
37	37	7
20	21	1
101	103	1
77	77	4
38	38	5
61	61	3
103	109	1
49	111	2
80	91	1
67	88	1
58	70	1
32	33	5
42	44	3
76	76	12
50	51	5
67	92	2
64	66	2
71	76	2
76	78	2
27	29	2
69	71	3
45	46	5
42	62	2
72	109	2
103	104	3
80	95	1
74	75	1
29	42	2
33	72	3
43	46	1
24	25	3
35	35	5
81	93	2
28	46	1
100	110	1
105	107	1
102	104	1
78	81	2
33	53	2
27	31	1
53	56	1
67	96	1
68	68	2
106	107	1
76	77	2
96	97	2
66	70	1
113	113	2
21	23	1
25	32	2
111	113	1
94	98	1
21	40	1
69	70	2
60	111	2
112	112	5
21	22	2
106	108	2
97	99	2
95	108	2
31	31	2
72	76	1
23	61	1
73	74	1
80	80	1
38	100	1
21	31	1
36	37	2
63	63	2
102	103	2
86	86	2
35	68	1
54	56	1
53	58	1
75	76	1
34	36	1
21	30	1
39	55	1
82	88	1
78	79	1
104	107	1
31	59	1
100	100	1
99	100	2
33	51	2
77	78	2
81	99	1
42	99	2
73	75	1
25	60	1
70	71	1
25	58	1
113	114	1
87	94	1
59	61	2
30	46	1
33	65	1
93	97	1
75	95	1
28	47	1
75	96	2
104	105	1
98	101	1
71	100	1
