124	124	16
78	81	6
110	116	4
27	27	10
105	105	6
101	101	5
101	127	1
108	108	6
67	101	3
73	116	4
93	93	5
22	22	11
139	139	7
27	31	1
131	131	14
131	132	11
72	74	4
86	99	7
89	89	16
102	102	11
95	95	12
20	21	3
24	24	8
15	79	5
127	128	11
32	38	1
84	84	10
20	27	4
113	113	14
73	73	5
83	85	7
35	35	10
74	76	1
110	110	6
92	128	6
125	125	8
27	36	1
23	23	6
114	115	6
89	90	10
37	37	6
134	134	21
19	19	11
34	34	6
124	137	1
74	75	4
9	9	9
84	119	3
2	16	4
134	140	3
22	119	3
6	6	11
78	80	2
125	128	3
72	73	1
25	25	6
22	88	3
78	79	11
107	107	10
32	97	1
16	112	6
18	18	3
8	8	7
120	120	12
74	114	2
15	102	2
132	132	26
17	91	5
77	77	8
97	97	10
135	135	11
118	120	1
17	17	7
126	126	17
112	112	21
132	133	1
98	130	2
105	111	2
86	86	10
95	100	3
3	3	9
4	4	12
83	84	2
90	91	6
128	128	24
138	138	14
137	137	21
87	119	1
130	131	4
129	132	10
123	123	9
33	34	5
128	130	5
119	119	5
21	21	6
73	120	3
1	122	2
28	28	11
36	37	2
24	30	4
78	78	5
121	121	10
37	38	5
33	36	1
36	95	3
26	80	6
125	126	8
11	11	1
122	122	24
20	80	3
31	31	7
12	102	2
126	138	2
105	109	2
140	140	12
11	31	1
94	94	7
117	119	1
15	16	3
129	129	21
23	25	2
133	135	4
13	78	1
80	87	2
103	107	2
121	122	3
93	94	4
84	121	1
20	20	14
118	128	2
74	74	9
130	130	15
82	98	3
106	106	10
103	105	2
76	76	5
109	110	4
116	116	22
3	4	2
11	14	2
27	28	4
104	119	1
136	136	8
87	87	4
131	133	3
75	77	2
71	71	3
78	107	1
5	5	21
134	137	1
28	31	1
5	6	8
75	98	4
127	127	14
27	32	3
7	7	8
71	72	3
81	81	12
79	79	10
36	110	5
0	0	6
24	79	1
97	98	3
133	133	17
15	15	3
83	83	5
115	117	2
104	117	1
99	99	6
80	105	3
87	99	1
0	101	3
88	88	6
36	36	4
128	129	8
135	136	1
78	92	6
117	117	10
115	115	5
82	82	8
2	6	9
23	26	1
118	118	2
91	91	3
72	72	9
16	16	6
90	90	8
137	138	2
0	1	2
86	112	2
88	91	4
6	16	4
21	22	4
86	136	2
85	86	5
88	90	2
93	116	2
73	121	4
116	126	1
126	128	4
83	119	1
127	139	4
110	111	4
36	87	2
128	134	2
125	127	4
83	136	2
76	119	3
100	101	6
121	135	1
19	37	2
139	140	1
120	123	8
78	86	1
25	26	6
85	89	3
23	24	2
92	92	13
4	5	2
114	114	10
36	88	3
85	85	7
81	82	5
35	87	2
80	108	2
13	13	8
91	100	4
83	91	1
104	105	1
88	89	4
74	113	1
82	105	7
73	75	3
77	78	5
117	118	1
96	97	2
75	99	4
29	30	1
7	12	3
32	32	4
75	75	4
77	117	1
73	115	1
126	127	4
20	38	3
111	123	2
21	88	3
119	120	1
45	118	1
75	82	2
92	136	1
19	24	4
2	8	1
105	106	4
101	102	2
118	119	2
40	85	1
100	100	9
96	118	1
93	118	2
106	110	2
119	121	1
107	110	1
98	99	1
9	22	3
22	23	2
76	103	2
78	93	3
98	100	1
96	96	5
124	130	2
92	93	2
10	22	2
13	14	2
103	103	5
95	130	1
26	26	3
87	88	2
98	98	2
10	15	3
112	114	1
105	125	2
20	24	1
134	135	1
9	20	1
80	80	7
91	119	2
3	90	1
33	33	4
138	139	2
18	112	4
35	36	4
82	93	2
136	138	3
124	128	1
123	136	1
12	12	1
127	131	6
94	95	4
14	14	8
112	123	1
17	18	1
28	119	2
18	19	2
7	8	1
92	117	1
82	83	1
1	22	1
78	105	2
1	1	3
103	118	4
116	138	1
109	109	6
79	81	1
87	120	1
130	132	1
1	12	4
90	114	1
129	130	6
23	38	1
129	131	1
0	14	2
120	128	2
88	100	2
28	130	1
127	141	1
32	100	1
8	24	3
1	25	1
23	71	2
102	118	1
78	103	2
80	82	1
95	137	2
21	89	2
19	23	1
115	121	2
111	111	2
110	117	1
133	134	1
123	127	1
109	120	2
3	22	1
8	27	2
89	100	1
3	16	1
123	124	1
75	115	1
71	101	1
37	88	1
6	98	1
126	129	1
96	101	1
21	25	2
30	75	2
119	122	1
27	90	1
97	132	2
112	113	1
120	124	1
31	38	1
29	100	1
10	11	1
124	129	1
2	7	2
120	121	2
103	104	1
14	75	1
104	104	1
38	38	4
30	30	1
30	32	1
123	125	1
76	77	1
0	12	1
82	87	1
81	88	1
88	114	1
0	2	1
130	133	1
91	118	1
12	20	1
23	119	1
81	87	1
106	124	1
124	125	1
7	10	1
