115	115	8
106	109	2
3	74	2
49	50	6
76	76	9
34	34	12
50	56	1
32	32	6
6	7	3
10	10	4
108	109	9
125	126	6
64	64	12
110	110	6
120	122	1
58	59	5
127	128	5
11	11	2
31	31	4
12	13	3
67	68	1
99	99	4
83	84	6
42	42	6
103	104	4
29	30	8
9	23	1
119	119	11
112	112	18
28	28	3
37	37	2
87	87	7
124	128	1
91	91	17
91	93	5
112	116	2
96	97	2
91	108	7
86	87	5
73	93	2
59	64	2
84	107	2
33	33	15
53	53	10
85	132	1
45	46	3
110	128	2
29	29	9
124	125	2
64	69	4
49	56	4
4	5	3
43	43	5
73	74	2
1	3	3
10	11	3
95	95	7
79	81	2
55	56	4
60	100	2
66	66	6
50	50	9
118	123	1
65	117	2
118	129	3
62	62	12
116	124	3
117	125	4
75	75	6
8	23	1
67	67	10
111	111	7
116	116	4
61	61	7
50	100	3
112	113	2
69	69	2
52	52	9
91	98	2
113	114	5
114	114	5
92	92	8
121	121	10
63	63	8
7	8	1
107	107	12
126	129	2
119	120	11
52	53	3
22	22	8
82	84	2
116	117	2
44	101	3
113	132	8
128	128	10
32	102	2
97	97	7
123	123	8
131	131	7
120	120	3
81	81	9
85	99	1
106	106	6
101	101	8
72	72	3
80	115	1
102	102	4
84	84	2
2	2	7
2	4	3
57	58	3
84	111	1
46	46	1
71	71	6
122	125	4
24	45	1
82	82	9
100	100	6
56	66	3
60	60	2
82	83	2
122	122	3
90	108	4
4	4	4
117	118	5
118	118	9
77	78	4
110	131	2
57	106	4
1	98	1
80	81	2
52	97	2
90	90	4
116	125	2
93	93	12
45	48	3
27	27	4
95	99	3
48	70	5
94	98	2
4	91	3
110	133	2
57	84	1
126	127	6
23	23	4
65	65	1
62	79	2
5	5	7
15	16	3
74	74	8
89	89	2
67	118	5
44	44	9
61	127	1
113	113	8
94	94	5
97	98	3
85	85	10
80	80	5
127	127	2
121	129	5
100	133	3
111	118	1
58	58	2
113	120	1
104	111	1
72	105	3
132	132	1
103	103	5
11	15	4
77	121	6
36	36	3
126	126	3
9	10	2
88	89	1
20	22	2
115	127	2
34	55	1
46	114	1
78	78	7
44	56	3
110	112	3
26	26	5
134	134	5
19	24	4
64	66	4
77	77	3
64	89	2
56	56	6
14	14	5
68	68	6
78	79	2
73	73	2
104	104	2
64	65	1
16	16	4
78	80	7
123	129	3
75	96	2
59	59	2
111	130	1
50	52	1
124	124	6
86	107	2
70	70	2
37	38	7
91	97	1
66	67	4
86	86	1
108	108	4
125	129	1
71	76	3
62	68	3
35	65	1
53	91	1
92	99	1
90	98	5
34	38	2
129	130	1
106	110	1
25	25	2
135	135	2
102	103	3
48	48	6
96	96	5
44	100	3
85	133	1
130	132	2
84	117	5
56	108	5
23	33	1
87	88	3
100	101	1
25	26	1
88	106	1
82	108	2
74	75	4
82	109	2
28	65	2
109	114	1
46	115	1
50	51	2
65	74	1
61	62	1
20	20	3
42	45	1
45	45	7
117	130	1
83	83	2
57	132	3
83	107	1
124	129	2
53	70	2
95	96	1
45	54	1
111	135	2
99	105	1
114	115	1
19	19	2
55	55	1
6	6	7
6	25	1
115	116	1
84	106	1
21	21	3
3	3	3
87	97	1
55	87	2
11	14	1
130	131	2
109	111	1
17	25	1
49	52	4
105	105	5
69	75	1
117	117	1
56	57	1
3	4	2
22	24	3
54	54	3
111	134	2
44	108	1
45	56	2
113	133	2
58	60	2
24	24	5
43	56	1
44	55	1
1	80	1
15	15	1
10	23	2
130	130	2
60	61	2
20	21	1
79	80	2
110	117	2
70	74	2
129	129	1
81	102	2
19	20	2
69	100	2
72	73	1
7	13	3
12	28	2
16	36	1
80	87	3
45	97	1
61	124	2
5	6	1
117	129	2
9	9	2
132	133	2
118	125	3
12	12	2
125	125	2
117	119	2
24	25	3
1	5	1
35	36	1
83	85	2
15	17	2
13	14	1
77	80	1
129	134	2
108	131	1
1	1	1
131	135	2
90	106	1
67	77	1
119	121	1
65	126	2
88	88	1
29	34	1
110	134	1
86	92	1
79	79	1
71	101	1
94	95	1
66	118	1
42	43	1
