104	104	18
30	31	3
73	97	2
111	111	16
109	109	16
98	98	24
77	78	8
24	24	13
49	49	33
85	104	3
83	84	12
96	102	1
54	60	2
79	79	21
81	81	24
75	75	17
22	23	18
25	25	16
74	74	35
40	41	6
19	19	10
45	45	34
33	33	28
38	38	18
54	54	15
21	21	13
87	87	25
50	50	15
102	102	19
99	99	24
47	47	19
86	86	18
73	73	26
49	74	4
110	110	19
30	30	30
47	70	4
36	56	4
98	99	9
40	40	24
71	75	5
58	60	9
100	101	5
103	103	16
39	39	25
65	100	2
60	60	20
63	63	16
64	81	1
31	53	3
89	90	4
34	42	1
83	83	12
53	53	16
47	52	4
95	96	7
41	41	20
91	91	32
26	26	29
100	100	16
70	70	29
80	80	22
77	77	14
48	49	11
61	61	14
96	97	7
112	112	17
42	42	21
73	103	2
43	43	27
25	30	2
102	108	3
79	108	3
59	59	15
93	94	11
69	69	22
75	77	7
113	113	15
52	52	29
46	46	19
80	84	2
22	22	16
67	67	26
106	109	6
96	107	4
68	68	19
32	32	11
94	95	6
84	103	5
58	58	20
44	44	22
93	93	15
42	45	5
34	35	8
28	28	15
72	73	8
90	90	14
103	104	8
55	56	7
26	27	15
105	106	10
62	67	4
27	27	24
61	62	18
84	85	13
105	105	27
54	56	14
97	104	2
104	105	9
79	96	3
78	78	19
60	81	3
94	94	27
35	35	19
85	85	6
90	91	9
87	108	2
95	95	16
50	53	4
76	78	4
83	109	3
54	55	9
39	41	4
46	47	9
114	114	11
59	63	4
64	64	7
82	82	11
109	111	3
32	34	3
103	109	3
107	107	21
88	91	7
57	57	13
28	72	2
76	77	8
97	97	24
36	36	13
28	41	3
56	56	10
77	86	5
37	37	18
23	23	9
40	48	7
47	60	1
108	108	24
89	89	11
76	85	3
91	92	5
101	101	13
80	95	4
23	25	4
39	40	8
88	88	21
68	69	18
78	83	1
63	66	6
26	28	3
61	70	3
55	55	9
85	88	3
30	36	4
98	101	2
41	44	3
59	60	5
35	39	1
95	108	4
82	83	2
22	25	2
25	108	2
97	98	12
62	86	3
84	84	18
78	98	3
43	61	5
104	108	2
75	81	11
95	107	3
35	47	7
70	73	2
47	48	10
31	31	17
34	34	27
29	29	14
71	71	23
51	60	2
20	27	4
74	80	4
95	97	3
107	108	13
94	98	2
57	58	7
58	61	2
70	103	1
99	111	1
35	58	2
26	33	1
79	80	2
78	79	6
23	26	5
63	64	14
88	90	2
62	62	9
104	106	4
36	37	4
110	111	2
70	71	8
29	30	11
81	82	12
87	91	5
65	66	9
92	92	10
76	81	8
65	65	22
83	108	3
27	28	8
69	86	4
88	103	1
77	98	2
29	31	1
88	95	3
49	50	8
59	66	3
28	29	4
38	39	7
69	90	3
34	43	1
37	47	2
41	45	3
65	68	2
62	82	1
51	52	2
79	81	11
88	104	1
38	52	1
50	110	1
66	66	19
85	108	1
21	23	10
41	56	1
93	95	6
106	107	4
54	63	2
33	34	3
34	41	1
41	46	18
34	47	4
87	90	7
78	80	2
73	89	4
108	109	2
20	33	3
59	62	1
63	81	5
83	91	1
56	57	3
76	76	9
23	28	1
32	33	9
81	84	4
46	52	1
48	48	9
86	109	1
79	85	5
53	60	3
101	102	11
26	71	1
96	96	26
26	34	1
42	43	6
92	93	6
42	56	3
41	52	1
42	51	2
96	105	2
84	108	3
100	108	1
37	48	1
103	108	2
72	72	19
67	69	1
84	86	2
99	100	10
27	76	2
86	87	7
102	103	6
58	59	8
21	22	3
23	24	5
39	42	5
74	85	2
68	79	3
35	36	7
39	44	2
83	85	1
80	82	4
26	38	3
29	36	3
64	65	3
34	36	2
22	32	1
99	101	4
22	27	1
88	89	10
28	100	2
82	84	7
74	75	8
70	74	5
69	70	5
34	58	1
88	92	3
59	78	2
47	49	3
106	106	9
21	28	1
45	47	3
56	59	2
86	90	1
26	105	5
63	84	3
96	98	3
73	87	3
71	72	6
68	70	3
73	77	3
25	26	8
62	69	7
96	101	1
66	105	4
55	57	1
82	85	2
72	78	1
68	73	2
25	27	1
34	44	3
101	106	1
50	52	2
72	81	1
87	100	1
29	46	1
56	78	3
29	33	3
83	86	3
21	30	4
79	97	3
33	35	9
28	77	4
107	109	1
64	83	1
97	99	1
66	67	7
38	46	2
81	103	1
79	86	1
53	54	4
112	113	3
35	48	2
43	44	2
74	77	1
62	63	8
99	103	2
71	107	2
19	22	1
60	74	2
86	91	1
73	74	6
23	29	7
70	77	3
61	76	4
31	33	2
70	80	1
68	75	1
78	95	2
111	112	2
105	110	2
41	42	2
91	99	2
64	67	1
62	71	3
89	91	4
20	20	8
51	51	9
56	58	1
98	100	1
97	105	1
67	104	5
42	49	1
59	77	1
90	92	2
45	46	1
26	102	3
20	28	2
30	39	1
78	85	2
77	92	2
88	108	1
37	39	1
39	47	2
61	73	2
40	56	3
50	51	3
98	102	4
92	95	3
31	34	3
70	79	4
96	103	4
75	76	2
43	45	2
22	24	4
73	111	1
68	85	1
87	88	6
59	64	2
24	31	2
95	98	1
64	84	2
25	29	3
73	76	1
30	34	3
80	81	5
97	108	1
42	44	1
83	110	4
85	86	4
70	72	2
93	97	1
60	101	1
37	38	3
97	107	1
105	107	1
63	67	3
72	75	1
20	21	1
78	107	2
106	114	3
41	102	1
36	41	4
100	107	3
28	44	2
51	61	2
52	53	1
44	51	2
60	69	1
36	47	4
40	54	2
19	25	2
19	28	1
81	104	4
72	77	2
49	51	1
84	105	1
64	74	1
92	94	1
92	99	1
67	85	2
80	103	4
95	106	1
38	49	1
60	90	1
26	70	2
62	68	1
65	83	2
100	111	1
28	30	1
64	66	1
61	77	1
73	95	1
30	100	1
109	110	3
97	111	1
80	96	1
31	100	1
23	27	1
59	70	1
24	59	3
94	97	1
77	81	1
24	25	1
91	108	1
68	72	1
37	51	1
103	107	2
27	32	1
111	115	1
85	87	1
88	99	2
29	37	1
62	101	1
40	45	1
60	87	2
21	27	1
92	101	2
61	66	1
25	33	1
62	66	1
60	79	2
56	64	1
62	74	1
73	102	1
110	113	1
63	69	1
51	53	1
70	82	1
28	101	1
47	59	1
23	32	1
30	32	1
24	28	1
44	49	1
85	90	1
