104	137	5
102	174	3
156	157	6
18	58	2
173	173	3
151	151	2
99	111	2
109	113	1
165	165	6
11	12	3
12	15	2
115	115	7
67	68	2
26	26	3
145	145	6
52	53	3
161	162	2
5	8	4
37	37	4
157	159	9
158	158	3
188	188	3
113	113	5
41	41	7
117	117	2
18	22	1
38	38	5
109	110	1
40	40	6
16	16	3
184	185	1
35	35	4
43	43	5
28	28	4
48	49	3
30	30	7
116	117	1
7	7	4
99	156	3
109	109	7
8	10	2
189	189	5
8	84	3
154	154	5
47	53	4
166	166	7
177	178	6
17	17	8
137	137	1
24	24	11
175	177	1
134	134	7
182	182	6
20	51	3
35	80	1
187	187	4
57	57	1
104	104	2
48	50	1
164	164	5
117	119	3
149	149	9
134	135	4
61	74	3
59	60	2
29	29	2
123	184	1
14	71	1
167	167	4
114	114	3
118	119	1
130	130	5
25	25	8
157	157	3
33	34	3
180	180	14
112	113	4
96	193	3
45	45	3
5	5	2
126	126	2
141	141	3
191	193	2
79	81	2
98	118	2
163	165	2
33	33	6
129	132	3
121	121	1
169	171	3
130	135	3
183	183	3
194	194	5
169	169	1
67	67	2
48	48	7
147	148	6
191	191	2
100	100	5
129	149	1
132	135	2
50	50	4
150	150	7
193	193	3
18	18	4
196	196	1
20	25	2
173	174	1
44	44	5
186	186	9
0	0	1
155	155	2
122	122	2
151	152	2
138	138	2
60	61	3
195	195	6
171	171	8
36	36	3
1	1	2
16	30	2
5	29	1
147	149	3
115	129	2
139	165	2
135	135	1
81	81	5
54	54	2
163	164	2
170	170	3
159	169	2
127	128	1
122	195	1
159	160	3
137	138	1
127	142	3
40	59	4
112	112	3
89	89	4
55	56	3
114	126	2
175	176	4
153	153	1
16	31	5
15	70	3
0	1	2
96	97	1
32	33	2
98	98	3
3	3	1
168	168	2
10	10	6
107	107	2
160	160	4
15	15	2
22	22	2
170	171	3
26	27	3
104	119	2
174	174	3
50	51	3
127	197	1
19	73	4
15	30	2
19	56	2
121	122	2
88	197	2
119	141	2
140	145	1
13	84	1
98	161	1
105	105	4
13	13	4
110	110	3
165	167	2
99	101	1
5	9	3
176	178	1
94	94	1
178	179	2
85	85	1
77	80	3
52	52	3
46	47	1
82	82	3
172	176	2
189	190	1
119	119	3
193	194	1
47	47	3
70	71	1
93	93	3
127	127	1
134	166	3
186	196	1
99	99	1
61	61	1
34	35	2
104	142	1
24	53	2
110	132	1
187	188	1
144	154	2
190	191	1
172	173	1
16	44	1
101	101	2
76	76	2
185	186	2
147	147	5
0	93	1
34	34	3
185	191	1
167	172	2
74	74	2
179	179	1
32	32	2
123	123	2
185	185	3
87	87	2
0	2	1
25	26	1
66	66	2
5	10	2
21	21	2
172	178	1
181	182	2
71	139	2
71	71	3
0	75	2
179	180	1
120	120	1
143	144	1
69	69	1
42	42	1
129	136	1
37	87	1
153	173	1
186	194	1
68	68	1
99	100	1
197	197	1
136	137	1
103	168	1
79	79	1
106	106	1
152	153	1
15	38	1
97	98	2
142	150	1
2	35	1
143	143	1
189	191	1
2	2	1
155	159	3
132	134	1
102	105	1
176	190	2
58	58	2
138	164	1
159	159	2
49	50	1
161	164	1
143	179	1
175	175	1
46	46	2
50	56	2
62	62	2
152	180	1
47	52	2
4	18	1
151	155	1
145	149	2
151	167	1
140	165	1
105	151	1
108	150	1
