134	135	2
81	82	2
168	168	10
174	174	4
196	197	5
2	18	2
104	104	3
174	177	1
173	173	9
36	40	1
102	104	4
149	149	16
32	33	5
174	175	14
190	191	7
63	64	2
143	143	5
195	195	13
49	49	1
95	95	5
11	12	3
6	6	12
158	158	3
165	167	9
57	57	7
43	44	5
4	4	9
184	185	4
117	118	4
16	17	2
69	69	3
28	30	5
45	45	11
190	190	10
161	162	7
143	145	5
28	29	3
10	10	4
134	134	9
164	164	8
24	24	12
44	45	9
130	130	3
148	148	5
112	112	7
8	8	4
70	70	4
163	163	2
184	189	4
169	169	7
155	155	5
162	162	1
56	84	2
7	7	5
78	78	6
161	161	11
121	121	3
28	31	8
103	105	2
2	2	4
196	196	11
3	4	6
152	154	1
9	9	14
51	51	7
125	125	2
3	3	8
154	157	11
179	179	13
185	194	5
192	192	5
41	123	1
80	80	4
177	177	6
130	131	4
191	192	3
179	185	2
79	79	5
38	39	8
26	29	5
152	153	9
96	96	4
138	139	1
181	181	5
186	187	14
50	50	10
103	154	2
123	123	2
180	180	5
30	31	2
101	101	4
156	157	1
1	2	8
57	58	3
180	181	8
21	21	4
28	69	2
156	156	11
140	140	7
141	141	6
55	121	2
16	16	4
5	7	3
142	143	1
37	129	4
192	193	10
133	133	4
7	28	3
144	145	4
155	164	4
69	115	2
139	139	5
52	52	2
12	12	11
158	164	4
185	185	18
126	126	8
140	154	4
32	32	11
183	183	13
109	120	2
132	134	2
195	196	2
88	94	8
21	22	1
157	167	2
30	30	8
46	46	16
9	12	1
157	159	5
5	8	5
81	81	5
22	23	3
105	106	5
127	127	8
53	53	6
118	119	9
39	39	14
33	128	3
15	15	8
17	146	4
146	146	8
67	73	1
153	153	10
32	57	2
104	112	2
36	146	3
94	115	1
51	52	4
187	187	3
24	26	4
105	105	7
181	183	5
31	37	8
130	140	2
134	142	1
98	98	1
151	151	14
143	144	3
13	15	2
24	25	2
26	26	6
142	142	3
139	140	6
195	197	2
34	37	2
145	145	11
168	171	2
172	172	7
176	178	4
34	35	7
94	95	5
117	117	2
94	94	8
170	170	5
23	23	4
149	183	2
0	1	1
187	193	1
99	100	4
162	164	3
181	182	6
118	118	12
127	128	3
171	172	5
154	154	8
103	103	3
10	12	2
135	135	13
155	156	3
175	175	6
128	135	3
52	121	1
64	64	3
82	85	2
23	24	4
44	44	12
149	151	4
168	169	7
46	47	4
54	55	2
186	186	10
17	18	4
50	56	4
182	182	2
159	159	13
102	155	2
56	56	4
37	39	4
160	160	6
9	134	2
179	192	4
167	167	14
20	23	3
27	27	7
97	99	3
150	153	1
73	73	3
13	13	8
7	8	4
28	28	3
178	178	9
167	168	4
43	43	2
25	25	5
108	108	7
2	3	3
31	31	11
189	189	5
178	179	3
131	132	1
22	22	2
150	150	9
152	152	7
83	85	1
132	132	9
113	113	4
103	108	3
10	11	4
126	127	6
47	47	5
197	197	1
22	26	1
113	173	2
171	174	1
8	18	3
101	171	5
159	161	2
20	20	5
129	129	9
51	149	3
179	180	2
77	77	3
177	178	3
64	65	1
193	193	14
74	74	5
68	68	8
51	54	2
67	67	2
8	10	4
147	147	9
48	48	3
184	184	9
144	146	2
87	87	2
54	54	2
173	192	4
132	133	2
85	86	2
20	21	7
58	59	2
41	41	11
105	151	2
33	87	3
24	32	3
188	189	3
186	193	3
19	19	8
59	59	4
111	111	5
86	94	5
194	194	8
136	136	20
170	172	2
42	42	6
156	164	1
119	121	6
29	29	2
157	158	3
8	160	1
45	46	1
89	89	2
37	37	2
25	26	6
123	125	1
170	171	2
33	33	5
104	105	6
40	40	3
144	144	8
99	172	1
20	22	3
74	75	1
5	5	3
27	28	3
28	70	3
109	110	1
169	193	1
41	43	4
136	138	2
86	86	2
61	150	3
145	147	1
71	79	4
152	165	1
14	14	3
113	115	5
138	138	2
154	155	3
166	166	6
33	37	3
133	134	3
4	195	1
149	150	2
102	102	2
149	182	2
11	13	2
110	110	3
95	96	4
172	178	1
31	57	4
187	188	6
175	190	3
26	27	2
176	176	8
82	83	1
155	158	2
106	130	1
131	131	1
5	6	2
191	191	8
172	174	2
40	41	4
188	188	8
76	76	9
67	69	1
106	107	4
193	194	2
180	188	1
55	55	4
29	32	5
67	70	1
0	0	5
36	39	2
62	62	3
157	157	2
110	111	4
111	113	2
151	152	2
44	55	1
124	125	1
112	113	1
34	34	1
150	151	2
21	23	2
86	88	5
172	173	2
23	28	1
184	186	1
105	109	3
18	18	3
99	99	2
93	93	3
174	178	3
63	65	1
165	165	3
11	11	4
141	147	1
103	109	1
119	119	1
137	137	3
133	143	1
128	128	3
67	98	2
54	90	1
39	40	2
31	32	2
19	21	1
151	161	1
79	81	3
17	19	1
172	177	2
6	7	2
185	186	1
22	25	1
124	129	1
73	77	4
108	110	1
158	159	1
72	73	2
6	9	1
142	148	6
105	112	1
139	155	1
115	119	2
34	36	1
154	162	1
60	60	1
72	78	2
132	140	1
173	175	1
153	168	1
48	73	3
97	98	2
168	172	2
71	116	1
174	193	2
56	82	1
18	19	1
35	35	1
175	176	1
169	170	3
152	162	1
132	149	1
27	69	2
131	140	1
171	195	2
36	36	1
160	162	1
111	150	3
48	49	4
59	118	1
15	17	2
165	166	1
111	114	1
41	42	2
109	109	2
37	69	4
182	183	1
155	159	1
123	124	1
142	165	4
120	121	3
125	126	1
122	122	1
140	145	1
105	107	1
120	123	1
106	106	5
103	104	2
167	172	2
16	182	2
163	164	1
65	66	2
52	54	1
89	96	1
107	107	1
38	38	2
67	71	1
20	32	1
79	80	1
115	115	3
158	161	2
154	161	2
108	109	1
147	153	2
15	16	1
154	156	1
68	70	1
179	181	1
75	75	1
151	165	1
101	153	1
2	9	1
64	68	1
185	195	2
35	36	1
100	101	1
100	100	2
126	128	1
122	123	1
155	163	1
102	108	1
109	112	2
86	87	1
97	97	1
32	86	1
156	172	1
24	27	1
64	74	1
103	106	2
160	167	1
146	148	1
20	26	1
56	57	1
