131	131	8
133	134	3
2	3	7
178	178	11
101	101	16
106	106	12
34	34	9
9	10	2
64	64	12
176	177	5
34	35	6
9	9	7
61	61	8
155	155	8
186	186	16
10	10	7
7	45	2
184	185	3
71	71	5
72	72	4
117	117	8
172	172	9
30	30	12
124	124	9
185	185	14
196	196	16
14	14	8
10	56	3
103	103	8
4	4	6
43	43	20
157	157	13
40	40	4
100	192	4
0	0	8
97	97	7
141	141	20
179	179	13
122	122	12
170	195	2
116	157	4
83	83	8
140	140	8
158	158	9
125	125	8
151	180	4
85	85	7
17	17	12
8	45	3
173	174	11
64	153	4
3	3	10
46	140	1
49	49	10
50	50	5
171	171	13
113	113	18
22	25	2
98	99	4
130	131	2
145	145	4
167	167	5
6	6	4
117	118	12
29	56	4
175	175	5
148	148	9
47	48	4
193	193	6
9	44	2
164	187	5
5	5	9
32	32	5
173	173	13
165	189	1
145	174	4
157	187	5
104	106	7
194	194	8
39	55	3
144	150	5
143	145	6
78	78	5
107	112	2
99	105	1
182	182	10
51	51	8
27	43	1
52	52	4
154	155	6
120	121	5
83	85	5
173	175	6
20	70	1
184	184	6
170	170	14
112	186	3
8	8	11
109	110	5
95	96	4
118	187	4
163	173	5
18	30	3
143	143	7
166	166	13
189	189	4
192	193	3
41	41	6
7	8	6
21	90	3
192	192	8
96	129	2
190	190	5
10	45	4
125	126	6
194	195	10
154	156	2
38	38	3
114	114	2
196	197	4
101	136	2
152	153	5
119	119	12
111	111	10
113	114	8
7	9	3
99	104	2
98	98	2
129	129	10
144	145	5
163	163	6
89	89	13
160	160	16
146	146	5
183	186	7
161	163	3
176	176	9
94	96	2
73	88	6
195	196	2
58	59	3
62	63	3
158	169	2
123	169	1
191	191	5
25	25	15
56	56	10
142	142	7
57	57	4
96	105	2
116	117	3
49	50	3
130	130	16
67	159	2
77	93	2
132	144	3
135	135	6
69	70	2
159	159	10
33	40	2
195	195	6
154	154	9
150	151	6
100	134	4
137	138	5
181	181	11
119	157	4
63	63	9
48	48	13
38	54	1
13	13	10
183	183	14
121	121	9
162	174	3
24	24	2
123	125	2
24	25	3
21	89	4
64	155	3
5	19	2
108	176	4
26	27	3
168	169	6
100	102	1
8	136	2
36	36	11
93	93	6
100	100	5
123	123	10
47	47	11
115	115	12
53	53	8
36	40	3
159	168	1
162	167	4
12	12	8
15	15	4
166	176	1
5	6	5
102	103	12
144	144	13
163	166	1
99	191	7
63	179	3
161	161	8
99	190	2
143	144	1
181	182	4
115	118	1
53	55	4
87	87	6
45	45	6
41	57	3
119	120	2
110	111	4
107	108	3
84	84	6
169	169	7
185	195	3
123	127	3
69	69	5
189	192	2
32	67	2
175	178	1
50	128	7
2	19	3
88	88	4
100	106	2
152	157	2
122	171	3
121	125	1
114	129	5
105	105	3
32	42	1
48	52	1
185	186	8
149	149	4
59	59	5
142	149	4
21	22	4
112	133	2
2	2	17
135	160	2
18	20	3
23	23	7
187	188	8
144	155	6
155	156	1
11	11	3
79	80	5
0	1	6
8	19	2
182	186	4
94	105	2
45	46	2
165	165	3
54	54	6
156	156	10
22	22	8
20	20	3
118	118	5
162	162	6
40	41	6
76	76	12
116	116	8
7	44	2
66	66	3
95	190	1
146	149	1
131	132	1
102	106	1
168	168	2
8	28	2
41	42	5
61	62	6
74	74	6
81	81	5
18	18	3
175	182	2
162	164	3
127	128	3
38	41	2
164	165	3
39	39	5
65	65	1
151	151	7
100	135	2
29	29	5
164	164	8
132	178	3
165	167	7
139	139	7
182	195	2
52	88	2
4	17	1
47	112	1
27	27	4
172	175	1
43	44	3
102	134	2
95	95	16
96	101	1
63	173	3
89	133	5
5	9	3
127	127	4
43	87	3
174	174	9
154	162	1
115	119	1
58	61	2
1	1	4
24	30	1
35	39	6
80	80	5
6	7	5
81	90	8
187	187	7
180	180	9
31	31	8
158	159	7
146	147	4
147	168	1
4	173	1
110	110	3
111	179	2
153	161	1
142	169	2
162	166	2
3	64	1
188	189	7
7	7	9
113	119	1
37	37	6
108	177	1
42	43	1
24	87	3
152	154	2
107	107	5
88	89	1
145	160	4
81	156	3
33	38	6
188	188	10
8	71	3
19	19	4
120	120	4
112	187	1
156	160	2
58	78	2
112	112	3
46	46	7
35	35	7
170	171	1
81	83	1
165	166	3
79	79	4
74	144	1
99	99	5
118	119	4
73	90	2
85	86	1
171	172	2
35	67	1
150	150	14
61	75	3
188	190	2
147	157	2
26	26	4
55	55	5
31	132	2
108	108	5
1	16	4
100	160	4
67	67	8
103	143	3
147	147	6
1	72	2
136	136	5
81	157	1
12	49	2
45	52	2
105	106	4
11	12	3
146	167	1
70	72	1
102	102	4
121	122	2
4	21	2
153	153	8
156	186	1
94	95	2
152	152	11
115	145	3
182	192	2
111	112	1
109	109	4
103	104	3
130	139	6
170	183	6
137	137	6
6	20	2
33	33	13
113	148	3
193	194	2
119	141	2
15	16	2
45	187	1
142	146	3
116	118	1
38	46	1
48	105	1
90	158	1
30	31	3
81	158	1
5	7	1
139	140	2
182	190	2
197	197	3
104	139	2
156	157	6
44	44	12
178	179	1
97	104	1
73	87	2
133	135	1
75	76	1
123	124	3
77	77	3
132	132	7
166	167	1
42	64	2
67	68	3
173	176	2
59	61	2
70	70	4
76	77	5
2	17	1
4	44	2
146	168	5
62	174	1
167	190	2
153	155	1
101	167	1
132	180	2
128	128	2
82	82	3
39	56	1
145	150	2
12	13	3
98	154	2
164	166	3
8	50	3
100	111	1
59	65	2
39	40	5
61	73	3
134	134	4
156	181	1
156	158	1
99	151	1
95	101	2
1	73	1
174	176	2
19	173	3
40	65	2
176	178	4
73	73	3
36	66	5
181	184	2
147	148	1
17	18	1
164	188	1
149	186	3
103	105	2
30	53	2
27	28	3
151	152	3
76	158	4
84	86	1
81	82	2
108	111	3
96	107	3
83	86	1
110	131	1
133	133	2
177	177	3
58	58	3
100	151	1
150	179	2
104	105	3
104	104	3
6	21	3
49	57	2
96	106	1
77	159	4
113	133	2
6	60	2
102	146	1
40	130	1
95	97	2
160	162	3
3	18	2
33	37	2
90	133	1
174	175	2
101	193	1
109	111	4
98	103	1
2	18	1
47	50	2
165	188	3
133	178	2
18	19	2
122	123	3
108	172	1
42	42	4
19	175	2
89	90	2
28	66	3
5	68	1
94	187	2
96	132	2
189	190	1
161	162	1
126	126	1
109	173	2
3	19	1
1	11	1
35	159	2
90	90	1
146	192	1
172	184	2
115	181	1
94	97	2
167	168	1
112	188	1
141	148	1
3	21	3
191	192	1
99	160	1
24	31	2
27	31	2
28	31	1
8	9	1
172	173	1
116	129	1
146	169	1
175	176	1
98	141	1
152	180	1
166	190	2
46	139	1
93	173	1
132	133	1
14	95	1
5	139	1
115	160	1
170	185	1
100	113	1
94	94	2
7	73	1
10	11	2
146	197	2
103	174	1
59	73	1
97	162	1
118	144	1
101	135	1
107	189	1
20	21	3
132	181	1
162	165	2
38	39	1
62	73	1
174	180	1
180	182	1
7	30	2
135	136	1
86	86	2
121	129	1
153	185	1
59	68	1
21	21	1
107	155	3
138	139	1
96	96	1
134	183	2
84	85	1
129	132	1
74	75	1
69	72	1
31	55	1
150	170	1
16	17	1
12	14	2
101	102	1
73	75	1
16	16	2
144	196	1
132	134	1
39	64	2
169	170	1
163	164	1
100	101	2
123	126	1
47	141	1
164	181	1
65	66	1
13	14	1
28	57	2
106	107	1
138	138	1
36	37	1
121	170	1
193	197	1
29	30	1
159	160	1
177	178	1
