19	19	17
118	118	5
78	79	11
48	48	4
23	23	3
38	38	4
47	70	6
75	75	9
68	76	1
42	43	6
124	124	12
36	37	2
84	86	11
14	14	13
18	18	11
84	84	10
58	62	3
5	9	3
84	85	1
153	153	6
55	55	18
54	54	7
9	50	2
71	71	19
18	36	2
16	16	8
7	8	2
31	31	10
68	68	4
136	136	10
15	17	9
4	4	17
129	129	6
83	85	2
99	99	11
110	110	11
65	65	12
21	21	7
135	135	12
95	95	4
124	125	1
52	52	7
81	82	5
122	122	8
64	65	1
103	103	3
63	64	4
22	25	1
53	54	11
146	148	2
25	25	13
31	143	1
87	88	3
103	110	4
35	35	5
50	62	3
34	35	6
79	80	3
11	12	7
104	117	3
77	77	9
72	79	4
2	2	2
53	79	8
5	28	2
56	56	3
30	30	9
83	83	6
9	9	16
38	39	2
127	127	4
43	43	17
57	57	9
10	13	1
49	50	5
119	135	1
50	50	11
105	106	4
43	44	5
21	113	3
19	23	3
57	113	1
17	53	5
85	85	15
102	102	9
47	48	1
13	16	6
19	37	1
58	58	3
132	132	10
67	68	4
103	115	3
57	71	5
42	42	10
49	49	8
39	39	11
152	153	6
11	50	7
86	86	10
110	111	1
32	32	10
63	76	2
125	125	5
142	142	4
132	134	3
147	148	14
10	10	7
73	73	9
151	151	4
95	97	4
104	109	4
109	109	4
20	20	7
88	88	3
92	92	6
108	109	10
139	148	2
63	63	5
98	98	5
32	54	5
53	53	21
29	29	18
33	33	8
17	36	3
114	114	3
154	154	3
41	41	11
116	116	2
31	149	3
104	104	6
95	105	1
93	98	4
72	72	6
14	15	6
96	96	8
127	129	2
80	83	6
69	69	9
27	56	5
126	128	3
65	66	9
5	5	5
45	47	3
62	62	6
51	54	9
107	107	5
96	97	4
105	121	5
78	78	13
149	149	6
8	8	3
22	22	18
134	138	2
147	147	3
78	92	4
10	11	4
40	40	10
78	81	1
65	67	1
48	49	6
50	72	2
15	15	7
80	81	5
24	25	2
57	58	3
8	57	1
121	121	5
6	6	1
30	69	8
101	101	2
150	150	9
82	82	9
56	68	2
97	127	1
51	56	8
81	81	8
148	149	3
62	64	3
44	44	7
48	62	2
12	13	3
144	144	10
123	124	4
11	13	4
119	119	5
15	16	1
39	40	8
74	75	2
11	16	9
67	84	5
80	80	7
72	73	3
43	46	1
64	64	4
33	37	4
40	41	1
35	36	3
93	93	1
36	53	2
68	87	3
74	74	5
7	15	4
118	132	3
131	131	5
73	79	3
126	126	7
131	132	2
115	115	3
48	70	3
80	107	1
45	45	1
70	70	3
29	34	4
52	69	5
150	151	2
94	95	1
20	113	2
30	67	3
49	56	5
64	66	3
5	7	6
83	84	2
136	137	2
29	71	2
40	42	3
28	28	3
10	17	6
6	26	2
85	86	2
12	12	7
123	123	3
36	36	7
118	119	1
25	64	3
145	146	1
113	115	2
76	94	2
146	147	3
17	17	8
9	34	1
3	16	1
34	34	7
12	56	2
82	83	5
30	35	1
135	136	8
45	46	3
67	67	6
98	99	3
6	19	2
149	150	2
7	26	3
13	149	4
49	70	1
3	3	5
5	10	3
44	45	8
13	13	4
68	75	2
152	152	3
118	131	3
101	102	2
47	47	4
36	67	3
144	146	1
136	146	3
50	54	2
144	145	6
6	25	6
119	121	4
106	117	2
81	83	2
140	142	2
27	28	9
106	106	4
75	80	4
92	109	2
33	34	1
24	71	3
120	120	3
141	143	2
118	152	2
42	57	3
75	76	1
50	68	3
89	92	5
10	16	2
24	39	1
69	75	2
3	5	2
46	46	3
66	67	3
68	69	5
95	114	2
117	117	5
32	39	5
22	23	8
138	138	7
94	94	5
105	105	3
57	74	2
93	96	2
112	112	1
137	137	3
17	18	1
71	73	1
7	16	2
113	113	1
56	71	1
43	57	2
9	10	3
31	32	1
132	133	2
7	17	2
136	138	3
109	112	2
87	92	2
145	145	4
51	51	3
101	113	1
58	86	1
32	34	1
93	105	3
78	126	3
37	44	1
103	113	2
22	24	3
133	133	4
117	147	2
78	93	1
25	29	1
121	122	2
7	7	1
36	66	1
148	148	1
11	124	1
134	135	2
64	88	1
62	63	3
30	39	2
41	42	2
11	11	5
129	130	2
93	95	2
4	71	1
32	139	2
124	128	1
141	142	4
55	56	2
61	65	3
8	28	1
86	87	1
80	122	1
106	107	2
10	49	2
128	128	3
18	19	2
125	134	1
139	145	1
66	66	3
86	120	1
139	139	1
93	94	3
100	102	1
50	51	3
13	15	1
145	147	1
108	110	1
24	24	8
27	27	3
97	97	1
30	68	1
141	141	1
138	150	2
104	110	1
127	128	1
109	110	1
146	146	2
4	34	1
137	146	1
87	87	4
37	37	4
84	88	1
110	112	2
50	66	2
100	100	2
126	127	4
93	110	3
31	54	3
25	28	1
44	46	1
108	108	2
104	119	1
117	149	1
63	75	1
76	77	1
44	102	1
29	30	2
19	43	2
79	79	2
13	14	2
25	26	1
122	135	2
19	25	1
76	76	4
19	20	2
70	72	1
131	133	3
44	92	1
12	15	1
51	52	1
56	58	1
71	72	1
137	138	1
9	17	1
124	140	1
80	84	1
30	31	2
37	38	1
18	53	1
79	126	3
6	24	1
62	77	1
13	152	1
9	137	1
32	33	1
27	30	1
112	115	1
77	94	1
13	17	2
112	114	1
137	150	1
123	125	1
70	71	1
133	134	1
136	150	1
