24	25	4
107	107	5
35	35	13
21	21	11
125	138	3
16	16	25
98	98	15
72	73	8
133	133	17
136	136	14
76	76	13
37	38	2
73	73	16
33	33	17
86	86	16
94	108	2
110	110	18
75	76	4
38	38	10
22	22	31
0	2	3
14	14	15
92	92	14
137	138	9
34	34	8
128	128	25
84	84	5
13	15	4
132	132	20
111	111	17
102	102	5
111	113	4
128	129	1
18	18	15
130	130	23
125	126	2
29	30	14
104	104	10
75	77	3
36	36	10
106	106	19
131	131	20
87	129	1
136	137	13
103	104	6
31	31	3
104	105	14
2	2	9
75	75	12
72	81	1
81	81	25
10	12	5
82	84	11
101	101	28
15	15	6
125	125	19
10	26	3
117	117	8
8	8	10
87	87	10
75	87	3
72	82	2
69	80	3
123	124	4
84	87	2
74	75	7
80	80	13
123	123	15
5	5	14
110	111	15
83	85	6
12	13	8
119	119	14
76	83	4
82	82	9
22	26	3
0	0	8
26	26	5
109	109	10
113	113	13
79	93	5
10	10	6
88	88	10
114	115	6
77	78	11
11	76	6
3	4	12
89	89	23
140	140	12
17	19	4
138	139	1
76	84	2
3	7	2
103	103	6
80	81	4
36	37	8
18	19	3
93	93	12
112	121	2
93	102	1
99	100	7
74	74	9
96	96	15
0	36	2
93	119	2
85	85	10
33	128	3
129	130	7
124	124	9
7	7	10
71	120	2
108	117	2
115	115	13
24	30	1
134	134	13
19	19	10
121	121	14
94	94	16
122	123	6
0	22	1
30	110	5
17	17	8
24	24	9
76	78	1
80	118	1
94	107	4
81	128	2
122	122	22
98	100	1
138	138	8
108	113	1
76	102	1
118	118	18
8	12	5
35	80	1
79	104	2
94	114	1
83	83	6
93	94	11
94	100	2
13	13	13
127	127	12
100	100	17
131	132	5
106	107	4
21	22	4
96	98	2
112	115	2
28	30	5
28	29	3
79	79	10
114	114	12
116	118	3
68	68	1
10	18	5
91	91	17
107	117	2
1	1	8
120	121	11
6	6	19
71	71	7
72	74	2
29	29	11
89	90	1
98	99	2
6	20	3
78	78	17
85	86	2
1	12	10
9	11	4
90	91	6
72	72	8
10	11	5
71	101	3
20	21	1
24	31	7
117	118	7
77	103	2
0	5	3
1	2	13
77	79	3
112	116	9
25	25	11
97	98	6
112	112	14
92	115	1
139	139	11
34	36	4
96	138	3
106	109	2
102	106	3
91	97	1
27	27	10
111	125	1
16	21	1
9	9	6
3	3	8
104	106	3
126	126	30
27	34	2
8	9	3
30	32	1
100	114	1
97	97	9
37	37	14
71	102	3
2	132	1
73	74	5
86	90	2
116	117	5
132	133	4
0	6	1
77	77	4
22	27	1
104	109	1
15	16	4
109	122	6
4	86	1
115	116	2
32	32	8
12	12	20
2	3	8
31	83	1
11	12	2
16	17	2
30	86	2
120	120	12
32	33	2
105	105	14
112	122	6
129	129	16
28	28	7
127	128	4
20	35	1
20	20	7
120	122	4
91	108	1
82	85	4
106	112	5
137	137	6
123	125	1
95	95	7
29	32	1
83	84	3
116	116	5
127	129	1
13	14	3
94	95	7
9	76	1
72	88	4
101	121	1
101	103	5
107	108	2
112	125	4
84	85	5
1	30	1
126	137	2
85	88	2
14	23	2
1	36	1
77	80	2
99	102	4
15	38	1
15	17	1
110	116	1
102	104	3
95	100	1
135	135	11
107	123	1
104	107	7
121	122	7
6	9	1
90	90	9
29	85	1
4	4	11
87	109	1
11	28	1
34	35	4
1	8	4
30	30	8
0	1	3
36	139	1
27	28	4
88	89	4
2	5	2
126	127	8
88	129	2
105	119	2
2	38	1
18	27	1
106	120	4
87	128	3
108	108	11
27	31	1
95	97	1
2	16	2
134	137	1
47	67	1
73	76	4
78	107	3
21	27	2
108	109	6
130	133	3
137	139	4
79	121	1
11	11	6
1	7	1
2	7	2
82	93	4
4	5	2
102	103	5
86	123	1
81	82	2
80	88	2
77	117	1
124	135	1
113	114	3
9	12	2
14	27	1
86	93	2
73	75	1
5	13	1
107	115	2
23	23	4
71	73	1
114	116	5
97	111	2
17	34	1
91	94	3
140	141	1
108	120	4
27	32	2
16	37	2
111	116	3
102	118	2
99	99	2
13	36	1
111	112	3
78	79	3
84	113	1
96	97	2
76	77	1
79	87	1
124	125	5
112	113	4
92	96	6
7	8	3
101	124	2
109	118	2
84	104	1
100	101	3
90	112	1
85	87	1
0	9	2
79	91	1
24	38	1
75	105	2
12	29	1
72	83	1
81	96	4
124	126	1
6	16	2
76	87	1
93	101	1
74	76	1
133	134	1
94	111	1
121	123	2
119	123	4
120	123	2
85	101	1
116	119	1
72	103	1
94	116	2
19	22	1
19	26	1
74	77	2
30	100	3
106	117	1
12	20	1
118	124	1
17	18	3
12	15	2
118	121	3
0	16	1
12	28	3
92	93	1
26	30	2
31	111	1
32	119	3
7	20	1
8	24	1
89	95	1
35	136	1
25	26	3
81	84	1
77	101	2
117	119	1
86	94	1
109	113	1
130	132	1
105	107	1
135	138	1
71	122	2
105	120	1
71	104	1
0	8	1
82	83	2
85	90	1
91	98	1
71	72	1
103	105	1
12	72	1
135	137	1
19	20	1
22	23	1
99	132	1
72	76	2
109	120	2
12	31	1
35	111	1
117	128	1
84	107	1
118	119	1
133	135	1
2	15	1
81	89	1
7	10	1
89	92	2
11	23	1
134	135	3
33	37	3
95	96	1
84	86	3
22	30	2
28	31	1
107	116	2
100	102	1
2	4	1
91	95	1
139	140	2
72	79	1
3	5	1
16	18	1
103	106	1
71	77	1
101	125	2
71	92	3
130	140	1
72	77	2
25	27	1
117	121	1
113	122	1
14	37	1
4	10	1
2	12	1
6	7	2
81	86	1
111	117	1
34	37	1
13	27	1
91	129	1
7	12	1
79	109	1
91	123	1
71	119	1
85	93	1
83	87	1
