73	127	2
125	126	3
88	89	3
69	101	4
29	29	2
129	130	4
29	30	9
27	27	15
43	72	3
43	43	17
83	83	16
30	30	11
28	28	2
21	22	4
0	0	11
111	111	6
32	32	12
65	105	1
96	104	6
79	83	2
64	64	9
97	97	1
133	133	4
73	74	3
57	57	11
52	53	3
109	109	16
31	31	12
21	26	5
21	74	2
39	45	2
20	58	3
71	73	2
102	102	17
52	52	11
112	112	14
55	55	19
114	127	1
72	72	9
51	51	10
15	15	18
108	108	7
115	115	9
42	103	1
101	102	6
45	119	1
72	84	2
60	75	3
121	122	11
96	96	27
41	43	7
28	29	8
22	100	7
17	17	7
94	94	6
69	69	19
68	68	4
97	100	7
22	77	3
49	50	3
83	123	4
50	121	2
120	121	5
70	70	9
49	49	18
46	80	2
92	92	15
13	14	1
98	98	12
60	60	8
65	65	11
11	12	4
48	66	2
87	88	6
24	24	4
66	73	4
87	87	3
128	130	3
10	10	5
3	5	4
90	90	4
62	62	8
49	69	4
21	21	5
23	23	5
123	124	4
10	11	4
53	54	3
123	123	9
50	50	6
30	132	2
71	71	12
45	47	2
115	117	4
3	3	6
88	88	6
91	92	3
110	110	7
66	67	3
20	106	4
83	84	3
105	106	3
6	6	15
101	101	14
17	101	1
21	30	3
49	55	1
1	31	4
82	90	1
33	33	4
31	132	1
96	117	3
91	91	9
76	77	4
12	92	4
68	72	3
56	56	12
104	108	2
83	85	2
118	118	4
114	126	3
124	124	8
59	59	6
43	128	1
13	13	11
78	78	10
63	63	6
19	27	2
119	119	4
75	75	11
114	115	7
85	89	3
25	25	9
75	77	2
70	71	5
47	47	4
52	54	4
45	45	5
106	107	2
78	79	4
44	55	2
8	8	7
66	66	11
55	73	3
60	62	5
81	81	6
100	101	1
130	130	3
3	12	2
131	133	4
63	64	6
24	25	2
103	103	7
7	7	13
48	56	1
39	40	3
68	73	1
43	81	1
46	88	1
120	120	8
41	41	8
5	5	4
26	31	1
121	121	10
75	78	1
80	85	1
76	76	13
51	109	3
107	107	8
9	10	7
2	2	11
39	39	11
84	84	3
18	18	3
11	11	6
18	97	1
86	88	3
100	100	4
15	16	5
10	85	4
72	120	4
97	102	1
1	2	7
70	116	2
93	93	6
105	120	3
86	86	3
131	131	8
85	86	4
99	104	2
5	17	2
8	80	1
28	88	4
20	120	3
42	129	2
26	26	8
101	118	3
9	9	9
20	22	2
104	106	4
14	14	8
73	73	10
89	89	6
128	128	12
67	67	3
80	81	5
114	131	5
132	133	1
131	132	3
16	18	3
12	12	9
42	42	5
104	104	6
48	48	9
113	114	6
119	120	2
13	109	1
113	113	6
128	129	1
78	99	1
15	17	3
39	130	3
47	62	4
84	87	3
40	116	1
18	33	1
19	104	5
7	8	9
15	26	1
54	72	1
48	65	3
106	106	2
102	120	3
80	80	1
5	15	2
42	43	3
32	33	4
72	81	1
46	46	6
13	92	1
126	127	4
34	34	1
82	85	2
53	53	7
90	91	4
74	78	2
61	65	1
79	79	8
4	4	3
51	52	3
122	122	4
129	129	3
105	105	5
97	103	1
39	119	2
117	117	6
126	126	9
16	17	4
112	113	3
94	95	3
19	20	1
103	114	1
6	7	3
62	63	3
71	72	2
74	119	2
40	40	6
15	33	1
19	19	3
95	125	1
43	108	1
44	44	6
100	125	1
114	119	2
26	47	3
38	39	3
22	23	2
39	44	3
59	60	3
43	44	1
58	58	3
95	111	2
4	25	2
61	61	4
98	118	3
65	120	4
13	107	2
79	80	3
14	94	2
96	115	1
77	132	1
54	55	1
124	130	1
113	115	3
21	99	4
42	64	2
104	120	1
18	23	1
45	46	3
98	107	3
120	122	2
38	109	4
97	98	2
116	127	4
96	101	5
81	82	2
2	3	1
0	1	3
3	4	6
127	127	3
82	82	3
42	104	2
1	4	1
38	38	4
25	46	2
21	27	1
22	22	3
104	105	3
2	17	1
23	125	1
115	116	2
132	132	9
12	113	5
16	26	1
116	119	3
113	117	2
71	84	1
44	72	4
13	117	1
98	99	3
39	81	1
28	66	2
5	14	1
101	103	1
68	75	2
19	105	1
53	120	1
31	32	1
86	87	2
85	85	6
22	78	4
79	110	1
4	5	1
63	127	1
56	68	1
74	128	1
95	95	3
107	116	2
38	81	3
97	101	2
59	114	1
69	72	1
73	84	3
61	62	5
0	11	2
20	20	2
81	130	1
125	125	3
14	18	6
94	112	2
114	116	4
94	100	1
16	16	5
13	113	3
4	29	4
99	100	3
53	58	2
101	108	3
90	92	1
14	95	3
13	108	1
74	74	3
29	31	1
19	107	1
74	75	2
126	128	1
47	119	1
101	107	1
42	130	1
124	129	1
58	59	2
63	75	2
116	126	1
96	98	1
40	118	1
84	102	2
95	98	1
56	69	1
67	119	1
31	130	2
39	82	1
0	31	1
21	29	2
94	102	2
117	118	1
108	118	1
114	114	4
57	58	1
1	1	4
54	54	2
96	108	2
99	99	2
95	96	2
49	68	2
76	79	1
12	13	2
10	12	1
44	113	1
124	125	1
77	77	2
13	93	1
79	82	2
116	116	2
99	102	2
70	125	1
9	54	2
80	82	2
23	24	1
20	62	1
44	100	2
41	120	1
97	131	1
59	63	1
28	65	1
89	94	2
48	49	1
46	105	1
125	130	1
2	4	1
0	26	2
9	11	1
66	117	1
18	24	1
13	94	1
39	108	1
45	110	2
76	119	1
130	131	1
43	79	1
40	108	1
44	45	1
