92	92	6
71	71	15
117	117	20
84	88	1
83	83	20
7	45	2
63	68	1
86	94	4
95	96	4
103	105	5
68	77	1
115	115	8
99	99	8
32	32	14
123	123	11
63	77	5
128	129	5
5	5	11
73	73	10
35	35	21
78	78	10
132	133	7
43	43	14
61	73	3
130	130	6
74	74	21
37	41	4
48	49	4
45	45	20
105	105	14
2	20	2
134	134	14
106	107	4
131	131	16
25	25	12
107	119	10
30	31	3
95	112	2
29	29	18
38	56	1
75	75	22
59	59	8
18	47	5
80	80	17
127	127	2
14	14	9
7	58	2
122	122	11
124	124	6
132	132	8
10	10	23
8	8	15
16	27	1
17	17	6
29	30	8
95	95	13
73	101	1
23	36	4
15	15	7
83	85	4
49	88	6
118	118	3
63	66	2
77	77	12
29	88	2
51	55	1
70	71	5
29	47	4
128	128	6
15	70	2
4	7	4
123	124	2
70	70	7
81	81	3
31	81	7
17	19	3
56	56	16
33	46	1
34	34	19
66	66	25
31	70	1
65	65	17
27	32	2
68	68	11
58	58	23
67	67	13
4	11	1
87	89	7
40	40	5
27	47	2
28	79	4
54	55	4
64	64	17
94	96	3
72	72	28
13	13	10
113	113	6
104	105	7
100	100	11
101	109	2
35	36	3
121	122	11
107	109	1
86	86	12
76	76	5
1	1	5
26	26	13
9	9	15
11	15	4
27	27	16
40	45	2
4	45	3
87	88	4
110	111	9
119	120	3
27	93	4
34	35	6
116	116	16
94	94	4
84	84	8
12	12	10
86	87	7
112	112	4
11	11	20
87	87	15
106	106	7
102	123	2
93	93	17
19	19	11
82	82	3
114	114	7
19	123	3
47	47	28
117	118	3
20	78	4
57	57	13
67	101	1
29	49	8
31	31	15
125	125	10
25	93	8
25	92	2
27	78	2
63	63	13
37	43	3
60	60	9
0	61	2
39	39	8
69	69	4
73	74	3
26	47	4
96	96	19
44	44	5
62	62	9
25	74	2
31	32	2
131	132	5
90	91	3
126	126	5
108	109	1
43	62	1
41	41	15
3	42	4
73	94	6
14	63	1
30	30	12
68	69	1
21	21	6
67	77	3
28	90	2
14	62	2
18	19	1
102	112	2
103	103	2
5	91	1
5	6	6
46	47	3
26	27	3
108	108	9
79	79	12
61	61	5
103	104	6
4	4	6
48	48	11
13	14	2
85	88	10
78	125	2
37	37	13
44	45	7
78	79	11
4	41	2
3	4	6
85	87	5
96	97	13
25	26	14
79	80	2
23	24	4
42	42	11
36	37	2
37	38	10
119	127	4
61	71	2
113	130	4
92	98	1
90	90	6
56	89	3
48	82	2
67	72	2
56	127	1
27	41	4
109	109	5
22	22	2
8	99	3
94	95	9
28	44	2
111	111	7
20	21	3
97	99	1
89	90	3
124	125	1
15	16	4
2	2	1
3	97	1
20	20	4
14	100	2
67	68	5
28	28	7
17	20	2
2	8	3
42	65	6
32	33	9
47	101	1
25	87	1
97	98	7
21	80	3
36	36	2
0	0	1
56	131	3
3	3	7
107	107	6
75	76	4
33	33	12
101	101	5
7	7	3
125	126	2
26	46	2
114	127	2
31	45	1
0	118	2
114	115	1
54	54	2
67	73	2
64	65	1
38	38	3
19	42	1
24	26	3
120	120	2
14	15	2
6	6	3
66	67	6
18	18	9
62	76	1
6	75	1
8	14	1
9	10	7
109	123	2
98	98	7
11	93	3
72	75	2
39	40	4
66	83	4
55	55	6
11	26	1
75	77	2
89	95	4
116	117	1
41	42	8
8	20	2
86	96	2
70	73	2
24	36	3
85	85	5
16	16	9
99	102	1
39	45	1
104	104	4
4	5	8
27	31	4
47	100	1
73	78	3
88	88	4
36	39	1
61	116	3
28	35	2
40	42	1
81	124	2
46	46	4
23	23	1
7	62	4
107	111	1
121	121	6
99	101	2
91	98	1
6	7	1
20	30	1
133	133	5
91	92	4
26	31	2
91	94	2
97	97	9
21	91	3
5	47	2
19	20	1
98	99	1
28	29	4
131	133	2
21	89	1
30	71	3
68	95	2
9	13	3
65	66	4
113	114	1
37	40	4
30	70	2
119	122	2
94	134	1
28	91	4
49	56	2
129	129	2
46	62	2
19	126	4
28	74	1
81	123	3
27	28	2
119	119	6
33	34	3
55	131	2
12	98	1
55	60	1
57	58	3
27	80	1
29	31	1
57	127	2
3	75	1
10	21	1
44	46	2
92	93	4
79	82	1
8	9	2
28	80	2
5	26	2
49	49	2
65	72	1
63	64	2
82	131	2
6	27	1
6	93	3
21	45	3
59	61	2
76	85	1
0	1	1
11	25	3
103	112	1
61	72	1
60	112	1
2	18	3
110	110	1
3	25	1
107	108	1
1	37	2
7	42	3
5	92	1
81	85	1
90	97	1
25	43	1
8	12	2
112	113	1
10	17	1
47	48	1
120	121	1
1	6	1
45	71	1
33	35	1
27	92	2
44	57	2
9	62	2
45	63	1
130	131	1
4	74	1
102	102	2
24	44	1
17	65	1
99	100	1
116	118	1
11	47	1
107	121	1
24	24	2
23	25	1
68	94	1
48	83	1
84	85	1
74	75	1
10	12	1
72	73	1
79	125	1
33	43	1
13	77	1
5	17	1
7	25	2
64	70	1
8	36	1
48	95	1
40	43	1
49	50	1
46	89	1
44	56	2
18	76	1
