26	30	8
44	46	2
72	73	10
79	79	11
41	48	2
72	72	11
102	102	17
100	102	3
21	22	6
67	67	12
53	53	12
55	55	15
78	79	7
80	80	18
60	67	3
40	40	25
50	51	16
73	73	18
39	39	18
90	90	4
22	23	5
41	41	8
53	58	3
91	91	18
57	57	17
88	89	6
63	68	2
40	42	6
65	65	21
20	47	1
92	92	4
21	21	12
25	41	6
40	41	5
75	75	14
101	104	2
95	95	20
79	80	8
25	25	16
38	38	12
56	57	1
69	69	14
49	49	10
105	105	14
82	85	1
22	37	1
61	61	13
22	22	20
63	63	13
36	37	10
62	62	15
100	100	18
103	103	15
62	67	1
20	36	1
68	68	18
77	77	13
97	99	3
33	33	9
34	34	26
65	66	5
97	97	10
104	104	8
82	83	1
96	96	17
45	49	3
67	68	5
59	59	18
58	58	10
99	100	16
70	70	2
66	68	2
49	51	4
92	93	6
73	74	3
71	71	9
71	87	2
20	22	5
34	36	1
48	48	7
95	96	9
21	50	1
65	67	5
101	101	13
98	99	8
82	82	5
66	93	4
86	87	6
30	30	16
82	88	1
83	106	2
104	105	4
27	27	1
76	76	15
72	89	1
70	71	5
87	88	6
54	55	4
68	69	12
83	83	9
99	99	17
35	50	2
63	65	3
60	60	12
26	26	2
66	66	7
38	39	11
25	26	4
57	58	6
34	35	2
20	21	10
61	64	3
66	88	1
69	76	1
44	50	3
53	69	2
76	91	2
38	59	1
28	29	5
93	93	22
40	59	1
84	84	12
52	52	9
35	35	8
68	84	3
23	23	17
62	64	3
20	20	12
58	60	1
36	36	11
53	56	3
37	40	5
94	96	7
88	93	4
42	43	8
45	45	5
97	98	2
81	81	19
64	64	8
51	51	10
53	65	1
26	49	1
93	95	4
56	56	13
33	36	5
28	28	4
29	39	2
96	97	5
61	99	3
58	59	9
79	96	1
55	73	2
62	63	7
94	94	14
53	54	8
54	54	20
32	32	9
66	67	9
92	94	2
106	106	4
76	87	3
87	87	15
52	54	7
57	81	2
72	76	6
64	65	4
70	77	3
33	40	6
98	98	7
69	70	7
93	96	1
101	102	9
85	85	6
47	48	3
86	86	7
83	84	3
24	24	10
95	97	2
93	104	2
78	100	2
71	72	1
85	86	7
89	90	7
37	38	7
31	31	24
31	32	4
80	81	4
61	62	4
76	77	4
45	46	3
60	61	2
25	50	3
78	78	8
44	44	3
25	49	1
74	75	3
79	98	2
74	76	5
64	100	4
88	88	8
50	50	4
75	76	5
40	57	3
70	81	1
41	44	2
68	70	2
89	89	12
38	60	4
59	63	3
46	49	1
78	94	3
86	89	1
103	105	5
35	51	1
59	60	5
30	31	4
46	46	7
60	79	4
42	44	2
64	71	1
90	92	5
65	69	2
47	47	2
30	49	1
52	53	3
91	100	3
29	30	1
78	99	2
107	107	1
79	97	3
50	78	1
82	84	3
37	37	6
43	43	6
49	50	1
75	77	1
100	101	7
29	51	1
84	85	2
70	84	2
48	49	3
86	88	3
81	94	1
81	83	1
29	29	3
67	96	3
61	89	3
77	79	3
46	47	8
81	82	2
42	42	2
33	43	7
74	74	5
35	36	1
39	40	2
79	82	1
72	87	1
80	91	4
49	54	2
40	46	1
82	90	1
45	51	3
36	50	1
32	33	3
26	41	1
89	93	3
59	67	1
75	103	1
90	91	5
96	99	1
100	104	2
71	78	3
62	89	2
55	56	1
71	73	1
57	59	1
105	106	2
44	45	3
91	92	3
99	106	1
56	65	1
94	95	3
34	39	1
91	104	6
34	59	1
23	35	1
43	44	2
23	24	2
88	90	3
41	43	2
27	28	2
61	72	2
70	72	1
93	94	1
25	30	1
91	93	1
71	76	1
77	78	2
82	87	2
33	34	1
75	92	2
60	88	2
24	29	1
60	99	2
96	101	3
53	55	2
95	98	2
38	40	1
35	52	1
53	62	1
70	87	2
25	33	1
106	107	2
69	95	1
67	76	2
62	73	3
73	76	1
55	74	1
47	49	1
77	93	1
60	66	2
61	97	1
78	81	1
102	103	2
78	83	2
26	27	1
71	103	1
74	87	1
65	81	1
30	44	1
53	73	1
19	19	1
