5	13	6
17	17	3
77	77	13
101	101	3
16	60	2
38	39	1
61	61	5
19	19	3
102	102	11
28	52	3
129	130	7
14	14	3
32	32	1
39	46	2
70	70	11
4	126	1
62	67	1
122	122	7
64	64	7
70	74	3
116	116	8
40	41	2
48	49	2
91	91	5
82	82	7
130	131	2
124	124	13
94	96	4
29	29	6
110	110	13
53	53	11
80	84	4
38	41	4
80	80	4
69	80	1
104	117	2
115	115	8
129	129	5
94	94	6
45	45	11
67	74	1
108	108	8
12	12	5
44	45	5
109	109	16
111	112	1
114	115	3
15	15	11
19	128	2
4	4	14
2	3	9
66	66	3
82	83	2
5	14	2
92	95	5
20	20	10
79	79	9
0	1	2
69	89	5
16	16	7
103	114	1
25	25	2
121	121	3
83	85	4
15	59	3
19	29	4
131	131	9
95	95	10
116	117	2
126	126	4
37	40	1
86	87	2
44	68	6
127	131	2
39	47	2
124	125	2
96	96	6
101	102	5
111	111	8
97	98	2
4	5	2
90	91	2
49	49	11
30	30	4
13	14	3
95	96	4
68	68	9
89	89	5
15	16	2
100	101	5
41	68	3
76	92	6
18	18	2
46	47	8
93	93	8
53	54	4
84	84	2
81	81	2
73	73	1
79	80	5
7	8	2
38	42	3
118	119	6
97	97	5
85	85	8
104	104	7
82	84	1
54	54	13
132	132	2
75	75	2
77	82	3
58	63	1
25	95	1
70	71	3
31	31	3
48	48	17
110	111	10
76	76	7
117	117	1
52	55	1
90	90	6
58	58	7
9	10	2
42	62	4
29	30	1
6	8	1
51	51	11
59	59	4
119	126	2
107	107	8
13	13	3
79	89	5
23	62	1
31	32	2
25	28	1
120	120	9
22	22	11
78	79	4
69	90	3
132	133	1
106	107	4
26	27	3
18	19	1
98	98	3
43	44	4
9	11	2
60	60	4
100	100	8
65	65	6
65	66	5
75	77	2
105	105	7
63	63	3
40	40	8
6	6	5
42	69	3
88	89	4
67	99	2
1	87	2
38	72	1
102	119	1
47	57	2
105	112	3
91	93	1
50	50	5
113	113	10
83	83	4
46	49	1
111	113	4
77	78	1
38	48	1
18	23	2
85	88	1
119	127	3
118	118	4
123	125	1
91	92	3
27	27	3
57	58	8
1	1	2
41	44	2
130	130	5
58	60	3
33	34	1
73	74	3
21	21	1
98	99	3
16	18	1
16	44	2
28	41	1
34	34	3
17	128	2
112	112	4
2	2	9
19	20	3
123	123	6
39	39	3
133	133	1
41	41	3
9	17	3
103	103	4
74	74	1
42	42	2
72	72	6
33	33	5
89	95	2
107	108	3
8	9	1
16	39	4
2	101	1
101	103	6
117	118	6
113	116	1
27	29	1
3	6	1
108	109	1
38	45	2
10	28	3
119	128	3
78	82	3
87	94	2
20	27	1
87	88	1
12	13	3
66	67	4
76	77	1
110	112	1
125	126	1
1	20	1
78	78	6
86	88	1
46	46	2
126	127	6
5	8	3
30	98	3
0	0	8
66	101	2
128	128	2
47	47	5
5	127	3
18	22	3
43	48	4
44	65	4
104	105	1
83	84	1
3	4	4
55	56	1
38	97	2
52	52	11
112	116	4
58	59	3
51	52	4
67	72	1
7	7	5
41	42	2
4	6	1
113	128	2
75	76	5
92	97	1
21	30	1
119	119	2
46	70	1
92	93	1
23	23	2
93	94	4
44	44	6
67	67	1
88	88	6
32	94	3
52	69	1
56	56	6
114	114	5
106	106	3
92	92	1
9	9	3
127	128	4
43	69	2
17	129	1
123	124	1
0	2	1
61	62	3
57	57	1
118	124	1
12	15	1
120	121	2
5	6	3
58	61	4
55	55	6
39	40	4
125	128	3
94	95	2
17	38	2
30	76	1
52	125	3
34	78	2
17	130	1
69	70	1
48	50	1
57	69	2
23	24	3
20	21	6
5	17	3
11	19	3
28	28	1
10	10	2
56	98	2
105	106	1
46	90	1
27	123	1
51	55	2
3	3	1
43	43	10
89	91	2
1	8	2
25	26	2
31	88	2
81	83	1
38	49	1
6	7	1
54	127	1
42	43	1
81	88	2
115	117	2
71	72	3
30	93	1
81	82	1
23	25	2
16	59	2
19	21	1
22	23	2
45	46	2
25	27	1
71	71	3
96	97	1
47	48	1
27	52	1
65	131	1
108	110	2
86	89	1
28	29	1
108	113	1
80	87	1
60	64	1
89	90	2
34	92	2
62	62	1
99	99	1
3	97	1
37	37	1
54	55	1
11	11	2
62	63	1
76	82	1
122	123	1
49	83	1
13	109	3
38	43	1
60	61	1
52	53	1
59	64	1
3	87	1
105	116	1
72	73	1
40	59	1
99	101	1
31	66	1
108	129	1
24	24	1
2	97	1
119	132	1
125	125	1
61	63	1
115	116	1
39	60	1
102	103	1
59	60	1
80	90	1
59	63	1
