130	130	13
43	66	5
92	92	11
143	143	6
75	77	2
30	32	10
6	6	36
48	48	29
88	88	4
47	53	1
122	133	2
82	82	32
28	28	30
57	62	1
39	39	38
78	78	42
45	45	40
120	122	5
31	31	27
41	153	3
130	131	7
27	27	31
95	97	3
18	18	37
12	12	38
64	64	15
7	55	4
34	34	27
85	85	25
14	14	20
35	35	23
12	26	1
111	111	13
49	49	18
9	19	3
97	97	24
27	30	4
149	149	14
107	118	2
83	83	37
11	11	35
73	75	3
65	65	18
111	120	3
26	27	10
19	19	23
137	137	5
14	25	2
20	21	9
98	98	31
81	81	33
5	5	15
108	108	14
26	26	26
41	41	23
87	87	42
34	35	11
48	55	1
117	118	16
98	99	15
77	96	1
145	145	24
42	42	25
47	47	45
34	58	1
96	98	8
108	110	1
23	24	5
91	92	2
33	33	38
124	139	5
16	16	21
81	82	29
105	105	15
7	7	15
50	50	31
63	65	7
73	86	5
38	39	10
118	118	15
33	34	9
21	21	33
103	104	11
104	118	2
66	66	14
34	62	4
142	142	18
53	53	28
119	119	7
131	131	6
30	31	4
91	91	2
30	30	23
71	71	17
23	23	17
57	57	29
117	129	1
135	135	11
140	140	7
32	32	24
41	43	3
32	33	14
73	74	10
10	149	2
30	79	1
13	13	43
54	54	27
127	127	14
33	35	6
131	135	3
67	67	29
75	75	13
79	79	21
8	8	16
94	97	10
26	79	2
136	144	3
126	130	8
100	100	20
139	139	17
133	135	5
115	140	1
50	127	6
110	120	1
10	10	32
25	25	20
39	40	12
126	128	2
28	32	1
110	121	3
12	145	1
38	38	35
66	67	6
138	139	8
76	76	18
113	113	9
36	36	45
69	69	32
136	136	27
91	140	2
5	30	5
123	123	13
87	92	2
100	107	3
70	70	34
95	95	19
75	76	10
9	24	5
37	56	3
68	69	6
106	117	1
79	80	8
11	13	4
122	122	23
96	97	9
85	86	12
101	101	9
80	80	30
55	55	9
62	62	9
17	19	8
82	83	5
110	114	2
76	78	4
52	77	3
4	5	9
10	32	1
51	142	3
65	84	4
128	129	5
54	70	2
9	9	22
128	128	6
24	24	23
55	68	1
25	26	17
4	4	28
41	42	5
43	43	27
133	133	23
3	3	16
29	29	28
120	120	14
112	112	15
87	88	7
105	114	3
142	143	5
5	85	11
94	94	33
73	91	1
73	80	1
146	146	14
67	72	7
134	134	8
36	53	2
93	93	27
6	31	1
109	110	3
22	22	11
37	38	9
152	152	9
35	53	2
51	51	15
130	138	9
37	37	21
44	44	14
18	87	1
46	46	21
77	77	17
74	74	20
58	77	1
21	73	3
32	34	7
31	32	7
117	117	13
151	151	8
124	124	17
121	122	3
38	41	5
2	3	8
20	20	17
71	76	2
77	84	2
17	18	9
23	26	6
36	136	3
17	17	18
84	84	12
22	23	8
50	85	3
24	69	4
84	86	3
56	56	10
74	75	5
63	67	3
109	109	9
154	154	11
35	36	14
132	132	15
99	99	24
58	61	1
98	128	1
38	42	6
43	44	7
144	144	8
41	48	3
15	15	18
121	121	13
19	25	1
86	86	23
23	25	4
72	72	6
9	27	1
15	30	4
44	46	4
118	152	1
10	40	7
62	63	3
72	73	8
27	29	3
79	82	5
138	138	13
126	127	7
134	135	2
143	144	10
3	5	5
33	51	4
79	81	3
124	147	7
18	22	2
45	46	8
147	148	9
97	98	6
17	21	4
96	96	29
67	74	3
115	116	14
94	95	12
77	79	4
32	50	1
80	82	8
23	30	2
141	144	4
97	115	3
122	151	5
42	53	1
81	121	2
54	57	2
58	64	2
71	94	5
35	62	1
32	51	2
106	106	18
102	102	5
32	40	7
67	71	1
120	121	6
107	107	11
87	90	3
122	132	1
85	132	2
16	29	4
141	141	5
88	105	1
127	129	6
53	54	14
128	138	1
8	40	1
83	91	4
25	29	5
74	115	2
63	63	28
9	10	3
130	137	2
110	122	3
140	143	3
74	77	2
17	20	7
14	26	5
104	105	4
24	38	2
19	20	3
71	100	6
63	64	10
18	20	5
80	81	11
108	111	2
9	11	2
116	116	4
90	92	3
101	109	3
8	9	13
20	22	6
27	33	3
100	103	2
64	72	2
129	129	11
45	79	5
90	133	1
69	88	2
113	114	3
67	68	3
4	11	3
51	63	1
66	75	4
18	19	6
42	43	7
50	78	1
55	57	5
67	84	1
9	38	1
6	7	5
53	55	4
50	55	5
95	96	3
142	144	2
38	40	1
127	128	8
40	40	38
149	151	2
122	130	5
32	63	4
129	131	4
73	73	16
11	31	4
89	92	1
42	56	1
35	37	5
23	28	4
17	70	2
40	64	4
69	70	5
26	78	4
150	150	5
123	126	2
34	36	2
57	75	6
11	12	3
69	77	2
50	80	4
115	115	14
16	18	1
54	77	2
12	13	7
105	107	1
19	149	7
28	33	1
28	29	3
114	114	3
149	150	3
12	22	2
34	55	1
148	148	6
34	37	2
122	131	2
96	100	1
103	103	6
62	66	1
94	99	1
6	50	1
132	136	4
35	50	2
143	148	2
14	16	1
64	68	4
56	80	4
153	153	5
21	25	3
33	124	1
106	108	4
57	64	4
51	146	2
10	13	2
98	115	1
39	68	1
85	91	3
110	113	3
8	34	2
23	76	1
75	94	1
64	76	2
76	85	1
22	30	1
128	136	2
24	73	2
14	77	1
26	29	4
36	37	5
30	36	1
136	139	2
21	78	3
105	127	5
21	23	3
15	28	1
123	125	1
95	104	3
24	31	2
93	99	2
94	111	7
61	62	5
70	79	1
82	121	2
30	66	1
5	13	3
15	16	5
132	142	2
68	87	1
75	86	6
93	124	4
57	131	1
7	12	1
4	27	4
3	4	5
19	24	2
110	111	3
76	86	3
94	112	1
147	147	7
21	22	6
80	85	6
12	35	3
65	123	3
63	72	10
65	67	5
74	95	2
23	75	4
126	138	5
5	31	1
68	68	28
93	96	3
126	135	3
94	103	1
49	53	3
66	69	5
54	55	8
10	25	1
31	70	2
124	146	1
3	18	1
127	130	2
15	19	2
84	85	6
6	36	1
87	113	3
22	70	2
68	72	3
78	79	2
100	106	1
49	50	6
8	14	1
21	34	5
110	110	9
16	17	5
76	84	2
74	94	3
6	22	3
124	144	1
13	16	1
75	87	4
10	31	4
126	126	10
13	14	4
146	147	4
8	32	1
77	100	1
11	25	2
77	78	4
107	109	2
84	111	3
44	45	8
86	103	2
136	137	5
9	22	2
110	116	4
70	83	1
6	8	4
23	63	2
101	108	1
11	15	4
72	74	5
118	129	1
74	76	4
46	56	2
9	16	1
51	52	2
39	42	2
151	152	2
62	86	2
52	54	1
7	10	3
26	34	1
14	23	1
119	122	4
33	55	5
47	48	8
74	85	1
72	83	2
118	119	4
58	76	1
64	81	2
25	32	2
46	47	3
56	63	2
110	112	6
20	23	5
48	87	1
65	68	4
14	22	1
96	102	2
121	128	1
145	146	6
37	43	4
9	21	3
115	154	1
93	111	1
74	84	2
102	103	3
32	69	2
5	6	7
7	11	1
50	52	1
35	41	3
15	17	2
114	118	3
109	154	5
130	134	1
11	14	3
3	8	1
29	30	3
31	141	4
138	148	2
37	48	2
77	83	1
139	142	2
120	132	2
131	134	1
40	41	1
15	18	1
137	138	5
128	130	6
128	150	4
37	39	1
10	16	1
14	15	3
95	103	2
3	6	2
46	53	3
73	83	2
4	29	2
104	127	1
129	135	3
93	94	2
31	34	2
57	68	1
15	25	7
97	99	3
122	123	4
56	78	5
31	52	2
105	126	1
15	21	3
48	49	2
66	72	3
69	71	1
94	115	2
40	68	2
117	153	2
34	53	1
25	67	2
12	14	3
111	115	3
13	65	1
110	154	3
52	52	3
65	66	6
71	102	2
114	116	2
15	49	2
108	109	1
124	125	1
64	66	1
50	54	2
13	35	1
54	56	1
56	82	3
144	145	3
95	98	2
115	139	2
35	39	2
64	65	4
133	134	2
104	129	3
10	11	4
88	94	2
52	78	1
45	81	2
13	24	1
105	110	1
138	147	2
4	6	5
112	114	1
90	111	1
90	122	1
74	104	5
132	133	2
93	105	2
139	140	1
81	84	1
104	107	2
62	81	2
90	90	6
85	94	1
76	79	1
73	77	3
71	103	1
21	24	1
7	30	1
62	64	2
43	68	2
35	54	2
55	83	4
153	154	1
34	85	2
147	150	3
31	35	1
75	104	1
46	50	3
121	151	1
9	35	2
126	146	2
9	20	1
10	142	1
4	26	3
100	109	1
73	84	2
132	144	1
134	137	1
109	119	1
22	57	1
100	117	1
62	75	1
21	32	1
112	113	1
84	93	1
121	130	5
11	20	1
122	136	1
34	56	2
52	55	2
68	73	1
85	111	1
83	87	2
13	34	1
90	91	1
68	125	1
4	7	1
87	105	1
78	138	2
76	77	5
27	28	5
15	26	1
141	142	7
54	69	1
20	26	3
30	38	1
65	81	5
45	135	1
102	110	1
33	58	1
20	57	1
34	49	1
11	27	1
31	36	1
125	138	1
89	90	1
92	93	2
100	113	1
63	76	2
55	62	2
70	84	3
10	20	3
11	22	3
104	104	2
75	95	2
122	153	2
45	47	4
123	130	3
35	136	1
6	86	1
5	80	2
42	44	1
72	99	3
28	30	1
15	27	3
77	99	1
109	152	2
33	36	2
118	128	2
50	51	2
46	52	1
20	25	1
57	63	1
125	125	1
6	142	3
100	102	2
43	53	3
46	80	1
12	30	1
25	66	1
73	115	4
48	53	1
83	84	3
37	49	2
9	13	1
39	41	1
20	29	1
101	104	1
99	121	1
36	39	1
55	56	1
34	82	2
93	102	1
35	118	1
52	73	1
32	141	1
19	70	1
71	80	1
94	113	1
77	82	3
125	129	1
21	70	1
31	117	1
8	24	1
14	18	2
34	57	1
92	126	1
12	15	1
22	28	1
111	112	1
57	84	1
6	21	1
37	41	1
86	87	2
94	98	1
67	75	1
62	67	1
96	107	1
4	79	1
43	67	1
128	139	1
86	91	1
119	121	1
46	149	1
8	11	2
14	21	2
125	146	1
73	95	1
79	83	2
123	129	1
137	139	1
106	122	1
65	73	1
122	154	1
43	46	2
131	151	1
28	31	1
116	119	3
69	75	3
125	147	1
8	10	1
40	51	2
13	89	1
105	106	1
9	31	1
68	127	1
21	72	1
123	124	1
13	30	1
129	132	1
51	54	1
21	88	1
10	24	1
6	53	1
22	31	1
75	81	2
100	112	1
39	88	1
130	135	2
4	32	2
90	127	2
89	89	2
45	73	1
2	23	1
77	92	1
24	78	1
26	33	1
55	77	1
101	103	1
12	31	1
32	64	1
124	137	1
140	142	1
122	150	1
99	128	1
45	54	1
52	62	1
150	151	1
83	94	1
126	129	1
43	45	1
12	21	1
36	42	1
7	8	1
73	103	1
13	19	1
96	114	1
67	73	1
34	136	1
81	96	1
116	124	1
74	83	1
40	47	1
124	131	1
102	112	1
6	56	1
90	93	1
116	117	1
68	128	1
25	62	1
127	135	1
14	31	1
