41	41	4
72	72	23
64	65	7
8	8	17
73	73	11
26	26	19
59	59	13
90	93	1
38	38	16
66	66	29
65	66	8
46	46	30
0	0	4
82	82	22
97	97	6
7	7	16
63	65	4
33	122	4
28	28	15
94	94	26
133	133	10
83	83	15
88	88	22
6	6	28
8	55	1
10	56	2
115	115	11
75	75	29
101	101	16
16	16	16
93	93	18
93	94	8
116	116	8
87	87	23
62	62	55
56	56	13
4	4	8
25	25	14
122	122	13
77	81	3
46	47	10
92	93	3
26	93	6
77	95	1
123	123	14
33	35	3
112	113	5
30	30	12
8	9	3
90	90	10
33	33	11
103	104	4
12	12	26
10	10	25
106	107	3
27	91	2
60	82	5
8	68	3
44	45	2
61	72	4
43	78	1
21	21	23
4	5	11
31	97	1
34	34	12
112	112	7
110	112	5
18	18	26
3	99	3
45	45	25
96	96	11
9	10	6
60	81	3
11	11	38
91	92	9
109	130	2
64	64	19
74	74	23
63	63	23
77	78	9
45	89	4
5	5	7
41	42	6
33	98	1
27	29	7
61	61	34
13	20	2
43	44	5
104	104	16
49	49	9
65	65	26
16	20	7
82	83	1
42	42	2
33	64	2
69	69	17
27	28	10
12	58	5
81	81	20
19	20	9
27	40	1
68	69	7
78	79	9
100	100	19
6	30	2
109	109	4
105	105	12
60	99	3
9	9	15
55	55	7
57	58	8
70	70	22
47	47	43
68	68	12
120	122	2
25	26	14
81	82	14
92	92	15
91	91	14
59	60	4
113	113	4
131	132	9
10	36	3
13	13	19
126	126	5
84	84	11
29	29	23
58	59	15
63	64	9
134	134	10
78	78	15
88	89	2
126	127	4
61	62	5
60	60	14
89	89	12
62	64	1
67	68	8
3	29	3
27	27	22
5	41	6
99	100	9
131	134	1
11	32	14
23	23	6
112	114	4
47	124	4
39	39	9
57	84	2
8	19	3
99	99	7
71	71	9
15	74	2
85	108	5
35	35	20
44	95	3
79	121	2
39	40	1
38	39	7
78	80	2
108	108	10
26	27	13
12	64	1
48	48	10
54	55	2
6	94	4
14	14	3
3	35	1
11	12	9
94	95	8
78	122	3
36	36	6
119	119	13
2	3	6
26	35	4
55	56	3
10	11	2
121	122	3
38	43	7
85	96	6
64	76	7
37	38	4
100	101	4
11	58	1
38	44	2
89	90	7
117	117	12
88	99	1
78	124	2
14	47	3
130	130	3
115	132	6
37	37	10
20	20	17
127	127	5
47	74	3
76	78	7
82	125	3
3	3	10
49	101	1
125	125	8
110	110	5
132	132	5
84	85	3
15	16	5
33	71	4
128	134	4
92	131	3
79	79	15
98	98	6
128	128	2
67	67	5
17	45	3
51	55	2
87	88	3
41	60	8
130	134	3
115	116	4
32	32	18
75	76	8
120	121	1
27	32	3
17	17	16
39	81	3
85	90	6
31	32	3
57	57	3
92	121	2
103	103	9
131	131	10
80	80	9
16	23	1
95	95	9
93	125	2
50	50	5
10	85	3
30	31	4
73	74	7
14	110	1
0	90	1
5	90	3
0	1	2
50	81	2
36	44	6
19	19	7
86	86	11
79	81	7
9	102	2
95	99	1
71	108	1
13	14	5
94	99	3
128	129	3
29	30	4
85	86	1
127	128	1
11	67	4
28	91	1
10	59	2
83	88	1
45	115	5
84	87	1
95	98	1
132	133	6
124	124	5
25	83	2
21	55	1
30	62	5
70	71	1
6	89	4
10	41	1
11	82	3
8	73	1
84	88	2
4	23	5
47	92	1
18	23	2
79	128	2
104	105	3
43	43	4
49	50	2
27	92	2
48	49	6
22	102	3
9	26	5
72	97	1
20	42	4
120	120	4
10	86	4
58	80	3
67	71	1
62	63	3
12	46	4
129	130	2
90	92	4
24	25	6
30	41	4
108	109	8
22	28	3
3	25	1
16	44	1
105	112	2
83	85	5
33	75	1
2	2	8
114	114	11
28	29	5
25	82	4
38	82	2
96	97	6
13	17	1
74	78	4
50	56	2
122	126	1
72	73	4
69	75	3
66	83	2
103	112	4
15	34	1
42	43	1
29	93	3
83	84	4
22	22	7
74	76	1
92	120	1
9	18	6
16	18	3
97	98	5
85	85	10
40	40	4
73	117	2
109	125	1
3	102	1
32	33	5
11	19	3
6	7	4
0	89	2
130	131	4
20	21	2
66	85	3
93	100	1
111	111	7
73	122	2
15	15	5
8	10	1
106	106	6
121	121	4
3	28	3
10	20	5
18	19	3
31	82	2
35	36	1
90	91	8
110	111	3
11	81	3
118	118	8
117	118	3
36	37	3
15	35	2
20	78	3
47	110	3
14	48	2
12	76	1
31	31	5
47	48	12
125	134	3
11	83	1
114	116	3
44	70	3
24	24	2
84	86	2
9	95	3
13	47	2
91	95	4
5	6	5
19	21	1
95	96	4
58	58	3
75	119	2
4	22	1
10	18	3
116	117	1
101	121	1
34	35	1
115	127	2
114	119	1
112	129	2
14	23	1
83	99	1
89	95	1
33	34	4
76	77	5
62	66	1
80	81	4
44	44	5
37	40	3
61	63	1
98	99	3
31	63	1
16	36	4
9	61	2
45	64	2
78	81	2
14	100	1
102	102	5
107	107	2
4	47	1
78	93	2
11	26	1
61	76	2
124	125	1
11	62	1
76	76	2
11	49	1
25	43	3
4	45	1
69	71	3
39	84	2
123	124	1
8	56	1
7	8	1
6	55	2
29	32	2
65	74	1
13	101	1
22	81	3
77	77	4
8	61	2
68	117	2
72	93	1
115	133	3
3	73	1
113	115	2
12	73	5
56	58	2
69	70	3
2	30	1
12	67	1
27	48	1
119	128	1
38	40	3
86	87	3
42	78	1
44	110	1
27	38	2
129	131	2
9	46	1
12	13	4
8	57	1
65	94	1
38	58	1
5	22	2
82	129	1
73	116	2
89	91	1
39	50	1
27	30	2
112	115	1
40	60	2
30	32	2
62	70	2
27	77	1
103	107	2
8	58	1
35	82	1
29	63	1
60	80	1
115	128	2
72	122	1
14	32	1
20	85	1
101	114	1
31	66	2
16	19	2
6	113	1
26	120	1
43	47	1
67	75	1
130	133	1
36	39	1
32	64	2
115	120	1
90	94	1
79	80	2
39	115	1
77	94	1
30	60	1
29	120	1
76	79	2
6	23	1
1	2	1
15	23	2
24	34	1
13	48	2
66	67	1
10	33	1
11	13	1
29	47	1
61	73	1
43	79	1
115	130	2
16	48	1
122	124	1
37	57	1
33	69	1
30	81	1
31	94	1
27	120	1
28	32	1
102	116	1
62	118	1
27	47	1
40	44	1
129	129	1
