42	84	2
6	121	4
28	29	4
76	77	1
128	129	7
21	34	2
66	66	8
116	116	5
93	93	1
104	104	10
28	28	3
77	77	11
46	46	4
120	120	8
110	110	4
43	114	4
109	109	4
27	28	1
115	115	8
6	7	1
11	65	1
90	112	4
88	88	2
105	105	9
111	117	3
15	15	3
73	73	2
54	54	7
36	36	3
11	37	2
70	75	1
112	112	13
113	113	8
4	4	4
76	90	2
68	68	9
107	121	2
86	110	2
97	99	7
52	53	2
35	36	1
49	50	1
105	108	1
115	120	3
96	96	3
3	3	1
101	102	4
90	90	5
108	108	2
82	84	3
47	47	2
11	25	1
108	109	1
97	97	8
118	118	4
119	121	2
109	111	1
44	133	1
98	98	10
99	99	12
106	106	8
61	61	1
54	56	3
37	106	4
72	78	3
16	21	5
54	57	2
67	67	2
71	71	8
79	121	2
107	120	1
5	5	9
102	102	7
46	90	3
88	124	3
110	111	4
65	65	3
51	56	1
90	123	2
25	25	8
16	16	3
95	95	4
106	110	1
72	77	6
1	2	2
111	111	6
44	53	2
131	131	2
44	45	2
103	118	2
63	63	5
81	81	4
129	132	3
52	52	8
72	72	4
53	53	6
18	18	1
31	31	3
130	130	8
75	102	1
19	19	1
128	132	1
33	33	1
1	3	2
68	69	3
5	29	2
57	58	1
79	95	2
12	12	9
126	126	3
15	16	1
54	55	3
120	126	2
99	100	4
67	82	3
75	75	4
7	7	4
125	125	4
26	26	5
71	72	1
79	79	11
87	87	2
126	127	1
129	129	3
133	133	7
50	51	4
73	103	1
90	93	2
74	74	6
61	81	3
85	85	1
35	35	5
0	0	5
128	128	6
121	121	5
130	132	1
134	134	4
31	32	3
33	34	2
59	59	3
119	120	3
135	135	1
14	22	1
1	1	7
89	95	1
101	101	2
69	69	4
9	35	1
44	130	3
118	119	3
100	101	1
64	64	3
0	1	1
0	6	2
124	126	1
80	81	4
47	51	1
66	83	1
124	124	2
66	68	2
127	127	10
79	122	2
117	122	1
129	130	2
8	8	3
25	35	1
117	117	3
11	12	1
56	56	7
43	55	3
76	76	9
20	21	1
132	132	8
3	4	2
57	59	2
65	84	3
13	13	3
17	17	5
123	124	1
34	34	4
59	68	2
94	94	2
50	59	1
82	82	1
18	27	1
108	128	1
12	26	1
92	92	2
50	50	5
34	35	3
118	122	1
45	106	2
20	27	1
43	128	1
78	78	5
84	85	2
118	121	2
79	80	1
91	92	1
56	57	2
73	85	1
9	9	2
21	21	3
79	124	3
85	121	2
44	44	3
72	85	3
23	26	1
129	131	2
107	111	1
45	45	4
37	37	1
62	63	3
57	57	6
50	52	2
60	61	3
22	34	1
62	62	3
9	106	2
82	111	2
58	58	1
80	80	3
83	83	5
11	34	4
83	86	2
29	29	2
84	84	3
79	123	1
130	131	4
114	114	4
14	20	1
10	14	1
74	83	1
89	89	4
102	103	1
32	35	1
119	122	2
67	69	1
72	81	1
68	71	1
88	93	1
89	90	2
15	31	1
100	100	1
43	43	3
11	24	3
90	132	1
22	23	1
102	134	1
49	133	1
12	13	1
44	55	1
91	91	3
117	118	2
112	113	1
75	77	2
5	105	1
4	5	1
103	103	3
45	130	1
115	121	1
44	54	1
112	122	1
90	113	1
14	15	1
119	119	1
97	98	1
66	85	1
44	50	1
49	58	1
16	25	2
68	117	1
86	129	1
88	91	1
53	55	1
70	70	1
64	115	1
112	114	1
20	20	1
92	108	1
71	116	1
110	116	1
68	128	1
36	63	1
64	85	1
