96	96	11
114	115	4
37	37	9
25	25	11
144	145	7
113	124	3
113	120	1
34	34	13
70	70	10
41	41	13
67	67	8
44	44	29
49	49	3
68	68	14
66	68	6
39	40	10
73	73	15
17	17	8
16	134	5
40	41	2
131	133	9
88	88	12
5	5	13
135	135	13
148	149	6
40	40	5
2	2	23
47	47	11
31	35	2
130	130	13
99	99	19
125	126	14
51	101	6
155	155	5
39	39	4
10	10	5
12	13	7
55	55	8
141	142	2
31	32	10
138	138	10
15	15	12
90	138	4
131	141	2
20	21	2
71	71	22
31	31	9
12	12	17
140	140	15
146	146	11
126	150	4
82	82	10
38	38	19
50	51	1
63	63	1
78	78	11
88	91	2
137	137	15
80	80	10
133	133	11
26	27	6
91	94	1
52	53	2
13	15	4
117	117	5
43	43	9
0	0	10
158	158	7
146	147	7
142	142	5
134	134	7
42	42	11
22	22	11
105	105	19
118	118	10
79	79	22
46	46	15
21	48	3
50	50	13
112	117	4
116	116	7
107	107	13
96	97	2
90	95	2
115	116	5
65	65	12
66	66	3
4	4	18
26	26	12
116	127	2
97	97	10
118	119	9
141	141	2
98	98	21
7	7	6
51	51	7
5	6	8
2	4	2
28	28	10
157	157	15
86	86	8
123	123	18
16	17	8
100	100	18
21	32	2
106	106	20
129	129	18
29	29	20
8	8	9
75	75	7
34	38	3
81	81	15
85	87	5
2	5	4
154	155	6
152	154	3
143	144	2
137	141	8
89	89	15
122	122	7
109	121	3
77	133	1
123	124	7
45	46	2
21	21	6
112	112	9
134	135	10
124	125	7
63	121	5
1	1	24
131	131	22
104	107	2
103	104	1
6	6	16
104	104	9
124	124	5
16	16	13
109	127	1
52	52	8
24	24	18
53	54	7
46	158	4
149	149	13
23	24	7
155	156	11
54	81	1
119	119	5
121	121	7
45	127	2
132	132	9
92	92	15
14	14	9
104	139	5
110	110	11
72	93	4
11	11	5
54	54	7
25	28	2
101	101	9
44	45	5
55	143	1
7	13	2
50	130	1
116	156	4
128	139	3
79	134	4
69	70	9
93	94	9
144	144	11
27	27	10
158	159	2
90	97	1
33	34	3
135	136	1
144	155	4
110	111	8
128	157	2
76	97	4
85	86	9
69	71	3
51	52	7
94	98	2
132	133	4
65	151	1
68	69	10
90	90	7
56	66	3
48	48	7
13	13	13
52	54	3
139	139	10
33	75	2
69	69	4
2	3	5
56	56	8
17	55	3
53	53	9
148	148	5
139	140	3
155	157	1
22	30	2
153	153	6
67	69	6
3	3	12
16	21	2
31	111	1
117	151	2
121	124	4
149	150	1
95	95	6
18	19	3
113	113	7
33	33	5
27	28	2
118	127	1
23	28	1
36	37	4
125	125	7
154	154	2
107	114	3
77	77	7
29	31	4
152	155	4
88	89	2
65	66	1
32	46	1
19	19	5
13	23	2
31	115	1
15	28	3
124	132	1
15	21	1
107	110	4
16	32	1
81	104	2
133	145	3
52	157	2
38	49	4
32	32	8
56	63	3
9	9	9
50	101	5
41	43	3
87	99	1
83	83	1
50	52	2
136	137	5
103	117	4
72	73	5
54	100	1
72	72	4
22	31	2
20	20	6
26	107	1
128	128	8
127	128	3
18	54	5
103	103	10
136	138	2
105	106	8
28	34	3
14	16	1
145	148	2
31	33	1
107	108	3
93	93	8
99	100	3
28	50	1
115	115	9
92	146	1
71	89	5
79	80	3
45	136	2
109	119	2
70	71	4
24	107	1
45	45	11
47	129	3
30	30	8
91	145	1
90	144	2
34	37	7
18	18	2
8	9	2
138	140	1
48	50	1
87	87	6
17	20	1
94	94	11
133	134	4
127	127	6
17	18	8
91	91	8
7	136	7
71	97	2
36	36	6
93	95	3
13	14	8
136	136	4
18	43	2
35	35	4
29	30	1
86	87	4
54	146	3
83	84	1
91	93	1
130	133	1
85	85	11
50	127	2
105	126	1
4	5	3
151	151	11
42	118	4
83	85	2
113	153	2
77	82	1
111	113	1
150	150	5
30	82	1
77	78	3
92	93	3
1	2	1
84	84	7
46	47	3
21	22	5
126	126	8
42	43	5
84	94	1
68	142	1
52	81	2
38	39	5
31	37	1
63	64	3
28	29	4
24	26	3
1	24	2
128	159	2
145	145	10
5	121	1
34	35	2
45	149	1
81	82	2
23	23	6
8	15	4
92	128	2
131	134	3
10	11	3
37	38	3
73	131	1
49	52	2
10	137	1
73	158	2
48	49	5
98	99	1
104	105	6
67	141	1
73	100	4
76	76	3
117	118	4
83	87	4
8	11	2
21	39	1
75	80	1
84	92	1
36	38	2
156	157	4
43	44	2
142	143	2
111	112	1
88	90	1
22	39	1
44	150	1
35	37	1
111	111	2
24	25	2
27	96	4
40	72	1
22	32	2
35	41	1
24	119	3
131	132	5
68	70	2
108	108	2
110	117	4
77	86	2
0	1	1
130	131	1
41	119	1
34	96	2
108	112	2
91	92	1
143	143	4
107	117	1
85	135	2
83	147	1
102	102	3
48	156	1
108	111	1
95	96	1
12	134	3
25	29	1
47	55	1
80	81	1
47	50	5
12	23	3
136	150	2
108	126	1
71	96	2
16	20	7
22	55	1
138	139	1
27	32	1
11	12	1
93	105	1
8	136	1
75	158	3
64	64	4
116	151	1
23	55	1
142	145	1
97	98	2
110	124	3
29	32	3
113	154	2
77	130	1
145	146	1
6	21	1
30	31	2
147	147	2
67	71	2
122	124	1
47	149	2
90	91	1
109	122	2
29	40	3
101	105	2
151	152	1
66	142	1
55	56	2
43	76	1
82	122	1
153	154	3
101	123	4
148	150	2
99	101	3
54	147	1
33	35	2
74	82	1
135	137	1
45	138	2
66	67	3
24	118	2
66	71	1
128	150	1
121	122	1
7	15	3
82	123	1
128	140	2
79	82	2
8	10	1
152	152	4
117	120	2
78	79	2
126	127	1
25	110	1
67	68	5
108	109	3
113	115	1
13	16	1
114	114	1
22	29	2
118	152	1
138	142	1
109	109	3
21	28	1
156	156	1
22	23	1
72	142	1
140	141	3
84	85	2
4	19	1
33	155	2
156	158	1
12	46	2
112	113	1
104	106	2
127	148	1
55	145	2
142	149	2
75	98	1
135	138	1
117	119	1
98	157	2
154	156	2
77	91	1
11	43	2
72	90	2
38	114	2
148	151	2
72	148	1
9	10	1
41	42	1
109	118	1
101	157	1
94	95	1
42	82	2
143	145	1
66	72	1
7	12	2
53	83	1
77	87	1
120	121	1
51	157	1
98	106	1
88	105	1
100	101	1
145	147	1
63	118	1
43	73	1
42	122	1
22	49	1
7	8	1
2	66	1
50	129	1
119	126	1
120	120	1
