31	32	2
43	44	6
56	76	4
109	109	6
55	67	9
130	130	4
78	79	2
4	61	1
52	52	5
42	42	6
1	7	5
89	89	3
72	80	3
66	66	7
49	52	1
107	107	5
50	85	2
76	76	2
2	2	3
110	110	4
113	118	9
52	94	3
56	69	2
37	37	2
56	57	3
51	52	6
20	20	2
97	98	5
60	60	1
24	24	7
34	34	1
83	84	2
40	40	18
121	121	19
10	10	9
32	32	3
17	29	4
124	125	2
112	112	8
11	46	5
94	94	10
50	50	9
73	74	7
92	92	11
13	33	4
72	118	4
72	73	4
89	90	5
77	98	3
87	88	10
82	82	6
98	99	6
21	22	1
53	95	3
122	122	6
45	58	1
68	69	3
93	94	8
125	125	3
67	67	15
54	58	2
95	95	12
7	99	5
39	39	9
98	125	1
22	25	3
88	111	1
48	54	5
28	29	1
22	129	1
84	84	5
97	97	5
40	63	1
22	44	5
94	124	2
59	59	6
85	85	5
3	3	12
56	84	1
111	111	10
28	28	3
90	90	9
116	117	1
39	40	4
98	98	9
15	15	3
5	33	4
108	109	4
55	60	1
83	86	3
98	107	5
8	48	1
69	69	5
124	124	10
8	8	5
71	71	1
25	86	1
131	131	5
73	78	6
49	49	5
20	21	3
114	114	6
7	31	2
114	119	5
22	23	5
118	118	4
116	116	4
54	112	6
51	51	7
72	72	4
70	84	1
17	17	6
80	80	4
126	128	1
117	117	9
44	45	2
7	7	6
53	57	2
30	96	1
87	87	5
27	27	8
33	101	5
41	41	5
106	106	5
123	123	6
26	26	6
19	19	3
78	97	2
132	132	11
25	25	5
32	33	1
78	78	4
72	76	6
19	133	3
5	6	2
115	115	6
54	59	3
45	54	7
96	108	3
105	106	6
126	126	4
4	44	4
4	4	4
79	79	5
119	119	14
63	63	6
10	32	2
84	88	1
100	100	9
15	19	1
22	22	3
114	118	2
11	11	3
122	123	3
14	14	6
31	31	6
29	29	9
75	77	4
52	110	2
78	100	2
80	81	5
83	83	2
58	58	4
33	33	5
133	133	2
50	82	3
44	44	12
16	17	1
60	69	2
118	129	2
54	54	10
26	28	1
96	98	2
83	95	3
22	68	2
68	68	6
104	104	7
17	21	4
125	127	3
3	21	1
4	5	3
94	131	3
11	12	2
79	130	2
22	24	3
96	96	3
89	91	3
18	25	2
47	47	4
108	108	4
67	76	2
55	55	3
9	11	4
102	102	1
5	5	2
47	54	2
117	118	4
129	130	7
55	81	1
121	122	3
128	128	3
127	130	3
22	67	1
4	13	2
126	127	2
43	43	3
74	74	4
73	73	2
65	98	2
6	13	1
72	99	2
40	41	2
99	99	6
48	49	1
26	86	3
64	73	1
87	124	5
55	56	4
16	16	4
131	132	1
30	30	6
6	7	1
38	68	3
0	3	1
18	67	1
63	76	1
74	75	4
1	6	2
113	113	1
12	13	2
78	83	3
14	15	3
0	2	2
3	55	2
120	122	2
62	62	2
39	82	1
30	99	3
72	81	1
15	34	1
1	54	1
98	101	1
86	111	2
72	82	3
103	104	2
104	112	1
103	103	6
102	103	5
52	53	3
120	120	1
61	76	3
1	1	3
64	81	1
0	62	2
33	34	1
106	109	2
19	34	1
28	102	1
57	58	1
102	130	2
115	116	1
127	127	1
58	59	3
46	46	2
21	62	1
110	111	1
97	99	1
29	30	1
69	117	3
13	13	4
56	56	3
126	130	3
74	83	1
77	78	3
53	53	2
107	108	2
44	130	2
105	105	4
4	15	1
23	23	2
109	112	1
118	119	2
118	120	1
6	6	2
127	129	1
45	45	3
64	71	2
8	30	5
102	108	1
99	103	2
2	20	3
57	57	3
101	107	1
40	99	2
67	68	1
74	81	1
19	20	1
23	24	2
16	18	1
94	95	2
75	75	6
38	39	1
66	67	3
9	9	2
60	61	1
73	98	1
120	121	2
15	107	2
85	88	1
69	70	1
57	85	1
88	89	1
12	12	1
65	65	1
11	44	1
55	63	2
93	93	3
68	77	4
49	50	2
32	117	1
59	61	2
120	124	3
8	9	1
84	85	1
11	19	1
27	102	1
115	126	1
108	119	1
82	84	1
44	82	1
101	102	1
5	59	1
73	100	1
40	97	4
104	129	1
27	96	1
38	38	2
61	61	1
90	92	2
50	51	1
48	48	1
1	28	2
32	86	1
17	27	1
27	31	1
90	91	1
117	131	1
64	95	1
23	63	2
42	81	1
2	12	1
58	62	1
49	51	1
14	33	1
10	19	1
18	18	1
28	106	1
75	76	1
39	69	1
1	83	1
85	86	1
29	62	1
87	111	1
127	128	1
97	108	1
91	91	1
49	79	1
57	112	1
