35	35	16
69	69	10
15	16	4
63	63	16
50	50	4
33	33	18
4	5	1
6	7	3
41	41	25
45	45	8
38	38	7
4	4	27
69	70	12
79	79	10
40	40	24
76	76	13
50	51	11
62	62	12
42	42	13
28	30	1
75	75	13
5	6	5
11	11	18
52	52	8
59	59	15
10	10	14
10	11	10
42	58	5
51	51	10
29	29	13
64	64	17
71	71	10
65	65	13
12	12	4
28	29	1
67	68	7
60	60	10
55	55	13
26	26	14
7	7	17
54	54	10
6	6	13
48	48	13
31	31	7
11	12	5
14	14	11
16	16	10
27	27	10
47	66	2
21	21	9
58	58	15
56	57	11
78	78	12
62	63	2
28	28	20
16	19	1
51	53	1
66	66	12
30	30	20
68	72	10
15	66	1
13	56	2
8	8	4
3	3	10
1	2	5
80	80	13
39	39	18
48	56	2
0	0	17
57	57	9
77	77	4
74	74	25
19	19	10
61	61	7
75	77	4
53	53	10
19	20	4
15	15	6
25	25	3
58	73	3
12	49	1
72	72	12
17	18	4
1	48	2
67	67	9
33	34	4
11	33	1
56	56	13
35	55	3
47	47	20
46	46	7
60	61	3
70	70	6
20	71	3
64	72	3
26	27	1
47	48	6
73	73	6
49	49	7
4	6	7
17	17	11
30	32	2
68	68	12
9	9	4
7	8	8
36	36	9
46	47	2
37	38	2
1	1	9
13	13	3
78	79	2
32	51	3
27	28	2
4	38	1
66	68	3
2	6	3
29	30	1
14	69	3
2	2	6
59	61	2
18	55	1
73	78	2
31	53	2
9	10	2
12	15	3
62	73	1
52	71	1
14	49	3
63	64	2
67	70	1
32	33	2
50	52	2
72	73	2
55	61	1
68	69	4
70	71	3
37	37	7
13	14	10
18	18	1
20	20	3
47	56	3
25	32	1
61	72	1
69	71	3
9	11	1
71	72	1
0	1	1
25	35	1
37	39	2
77	78	2
48	55	1
26	33	1
66	67	2
32	32	4
3	29	1
5	5	1
56	73	3
56	72	2
2	49	3
38	39	2
56	64	1
64	65	3
31	33	1
26	49	2
9	12	5
61	62	1
44	44	2
1	80	3
34	35	1
67	72	1
62	65	1
48	49	1
10	12	1
41	45	1
65	66	2
43	43	1
65	67	1
54	55	2
34	34	1
31	52	1
19	75	2
3	4	1
54	70	1
58	74	2
58	59	1
53	54	3
59	60	3
30	61	1
2	47	1
28	47	1
2	29	1
49	53	2
14	64	1
29	31	1
36	40	1
51	52	1
31	32	1
57	63	1
49	52	1
25	26	1
41	42	1
45	46	1
