39	39	7
68	69	2
80	80	10
70	71	9
103	103	15
71	83	3
105	105	13
49	50	3
26	29	4
63	63	6
88	88	5
58	58	2
117	117	9
8	9	1
70	70	4
72	97	3
115	115	11
123	124	4
27	31	2
17	17	4
124	124	5
92	92	7
86	86	5
67	68	5
75	75	6
60	69	3
93	93	2
55	55	5
123	123	3
88	90	4
73	73	6
68	68	14
107	108	4
133	133	10
69	69	13
94	94	4
46	48	2
86	87	3
33	33	4
15	15	10
47	72	2
118	120	3
74	74	3
44	47	2
46	47	9
126	127	3
111	111	3
62	63	1
130	130	20
29	29	9
124	131	8
100	103	1
87	87	7
62	62	6
59	59	2
54	54	12
125	125	5
94	95	7
27	27	14
110	110	9
96	98	1
44	44	19
78	80	1
47	47	3
107	107	10
99	99	6
108	108	3
61	72	5
14	15	6
118	119	5
9	10	1
22	28	6
114	114	18
102	103	3
21	21	14
116	119	4
39	89	1
99	103	4
119	119	8
82	84	2
71	72	3
48	48	4
55	56	5
110	111	4
13	15	3
52	52	10
4	4	9
82	82	5
66	66	9
42	42	11
112	112	5
122	122	11
19	20	4
6	7	4
48	49	3
69	71	4
69	70	7
131	131	3
67	67	4
113	113	14
65	65	4
61	61	6
25	26	5
13	13	3
46	87	2
53	53	11
5	5	6
3	3	8
78	107	2
87	88	3
89	91	5
57	61	3
70	72	1
89	90	9
43	44	4
66	67	1
25	38	1
24	24	2
46	46	9
108	109	4
41	54	6
60	71	4
64	64	6
40	40	8
85	85	9
91	91	2
22	22	4
80	96	3
44	90	1
127	129	3
19	19	4
45	45	9
84	85	1
49	49	6
94	107	4
122	123	4
80	81	1
57	59	3
89	89	6
98	98	5
9	9	3
129	129	6
11	12	6
97	98	7
4	5	1
83	84	3
95	95	8
64	70	2
83	90	3
44	48	3
92	93	1
119	126	4
121	122	4
7	7	4
90	92	10
88	91	6
126	128	1
20	20	3
45	50	4
5	6	2
106	106	5
101	103	4
71	71	14
72	81	3
29	101	3
78	78	4
51	52	5
43	43	1
77	78	4
120	120	4
128	128	4
100	126	2
24	25	3
83	83	4
76	81	1
15	16	5
28	28	1
10	10	7
72	72	11
39	40	5
24	45	3
97	118	1
0	3	6
89	100	1
30	30	10
96	96	8
93	127	2
47	48	3
45	46	4
41	41	6
80	107	1
18	39	2
16	17	3
115	116	4
116	116	9
52	93	3
7	9	2
38	38	4
55	80	3
99	100	2
132	132	4
71	73	2
73	77	1
23	34	3
43	45	6
68	70	2
12	26	2
79	79	3
29	30	4
37	39	4
60	60	9
11	14	2
50	50	11
101	101	5
0	1	1
114	115	3
54	55	2
33	109	1
27	29	3
1	1	3
90	91	1
12	12	3
100	100	5
103	104	3
34	34	8
21	22	6
57	57	6
78	81	5
75	77	3
73	74	4
102	102	2
59	126	1
126	129	3
22	26	2
60	64	1
77	77	1
6	6	7
26	39	2
56	56	1
108	116	2
23	45	1
76	76	2
100	101	4
14	14	1
119	120	2
23	23	1
64	65	1
108	114	1
91	92	3
17	22	1
63	64	3
101	102	3
26	26	4
58	69	2
7	8	4
121	121	3
41	43	2
0	0	2
59	60	4
16	16	3
54	56	2
18	20	1
90	90	6
109	110	1
56	126	3
11	11	2
40	42	3
32	32	2
87	94	3
118	118	3
114	116	3
87	103	4
26	27	1
74	75	1
55	81	1
95	131	1
88	89	1
116	120	1
15	45	1
72	79	3
59	62	1
55	126	2
98	99	1
57	58	1
15	18	1
79	81	2
15	21	1
115	117	1
120	121	2
58	59	2
60	62	1
109	109	1
54	78	1
79	107	1
31	32	1
46	85	1
72	74	1
84	84	1
33	98	1
38	40	1
44	49	1
105	107	1
2	2	1
114	118	1
30	31	1
82	98	2
81	81	1
51	51	1
93	94	1
114	117	1
97	99	1
16	24	1
85	87	1
99	101	2
20	38	1
13	14	1
81	97	1
40	44	1
108	119	1
