82	82	17
118	119	4
78	78	5
123	124	3
17	18	6
124	124	9
12	12	6
10	10	13
73	74	4
186	186	4
142	143	5
89	89	7
62	62	12
0	0	5
1	41	7
182	183	3
110	120	1
13	17	1
112	112	29
84	84	11
177	178	12
58	63	3
180	183	1
152	152	4
177	177	7
66	114	1
68	68	9
177	179	5
24	169	1
30	30	11
67	67	12
90	90	8
67	68	3
32	36	3
27	36	3
4	38	4
151	151	10
41	41	17
186	187	3
89	90	2
125	125	7
7	7	4
153	154	7
28	28	7
61	61	2
172	172	4
34	36	4
169	169	5
154	154	10
106	106	7
34	35	5
62	98	7
7	8	8
71	71	11
132	136	6
129	129	1
64	111	1
59	64	5
155	155	4
43	44	3
133	133	9
135	135	6
64	105	3
27	34	3
27	27	16
6	181	3
79	82	1
85	85	2
54	54	5
85	188	1
161	161	8
165	165	10
163	164	3
131	132	5
173	173	11
64	131	1
63	63	9
21	21	5
149	149	13
137	139	4
55	55	8
79	83	1
153	153	6
85	88	2
156	162	5
138	139	2
67	85	3
123	123	6
15	15	9
82	83	2
157	158	5
140	140	8
100	100	10
117	118	5
131	131	4
11	12	5
4	5	3
141	144	2
81	82	14
70	70	3
18	36	4
59	59	9
111	115	6
138	138	3
189	189	1
78	79	5
57	116	2
79	80	6
156	156	14
88	88	7
32	35	1
120	120	12
128	128	12
2	2	7
145	190	1
127	127	2
44	44	11
34	34	4
101	101	3
40	40	1
130	130	1
132	133	1
187	187	4
24	57	5
78	134	2
85	86	2
99	99	6
133	168	1
181	181	4
37	37	4
43	43	7
170	176	4
26	31	2
12	176	2
103	107	1
87	95	1
157	157	5
107	107	4
82	132	1
42	42	8
75	76	5
32	40	2
138	147	1
119	119	3
47	47	7
64	64	3
80	80	5
95	95	4
20	135	3
35	36	3
92	94	4
124	127	2
137	138	1
66	97	5
84	147	1
161	169	3
137	157	3
15	16	4
32	32	6
105	105	3
163	163	6
88	115	3
171	172	4
111	111	9
6	11	4
18	18	7
60	60	9
74	75	1
11	178	4
77	77	7
188	188	7
5	5	8
8	8	7
152	154	2
144	144	1
20	108	4
126	127	4
58	58	9
10	38	3
22	35	1
104	105	1
18	19	2
19	19	7
39	40	1
108	108	7
132	132	5
0	1	2
92	92	5
53	53	4
120	169	5
17	48	3
156	157	5
62	63	7
42	139	2
57	57	6
26	41	2
77	84	2
110	140	2
138	164	3
93	93	7
18	21	2
92	177	1
29	32	3
43	88	2
39	39	13
20	165	3
11	46	2
147	147	7
78	80	4
27	28	7
3	4	1
31	32	2
5	6	7
171	171	3
66	66	13
72	72	11
150	150	7
6	6	4
56	56	4
44	45	2
113	113	2
3	39	1
189	190	2
91	91	13
69	70	2
53	132	3
4	4	4
185	186	1
130	131	2
13	14	4
100	104	4
84	154	1
178	180	1
167	167	4
120	130	3
157	180	1
9	131	2
62	117	1
19	52	1
24	33	4
178	178	2
130	175	3
105	106	1
148	150	5
54	58	3
68	130	2
168	168	2
28	65	1
166	166	2
122	122	6
121	121	2
52	168	1
139	139	5
23	23	10
140	142	2
134	134	9
33	33	2
136	137	3
30	31	2
22	22	4
13	25	4
102	105	1
104	189	3
20	20	5
25	103	3
97	97	3
127	128	2
14	14	1
110	110	1
22	177	1
81	81	3
17	20	3
36	36	2
59	80	2
38	38	5
148	148	2
75	75	1
185	187	1
30	37	2
144	145	2
83	83	5
58	135	2
29	29	7
13	47	4
16	18	2
182	182	2
0	65	2
130	156	1
81	94	2
67	69	1
149	150	8
104	104	4
12	21	3
132	156	1
11	11	1
137	146	2
91	93	2
59	60	2
42	45	1
1	141	1
25	25	8
118	118	9
58	65	1
33	36	1
97	98	3
77	166	1
96	97	2
143	145	3
75	184	1
85	114	2
12	14	5
68	70	5
57	101	2
62	100	3
26	26	3
73	73	3
109	109	4
124	125	3
141	141	2
111	116	1
105	112	4
33	34	2
31	31	3
76	183	1
19	56	2
10	16	1
70	74	1
61	62	1
24	29	1
30	33	2
92	180	1
99	151	2
105	107	4
109	110	5
116	116	2
184	184	3
42	46	2
20	181	2
24	184	3
187	188	3
150	151	1
131	175	2
16	16	4
72	82	1
96	96	4
103	122	3
13	13	1
98	98	8
115	142	2
72	76	2
63	65	2
104	106	2
65	67	1
14	183	1
113	114	2
26	28	1
116	131	2
77	78	2
106	129	1
184	186	1
100	108	2
10	133	1
72	73	3
155	156	1
27	29	3
145	145	2
85	115	1
115	119	2
174	176	1
115	115	1
117	117	2
66	113	2
171	173	5
63	68	1
22	48	1
28	31	1
185	185	4
114	114	3
146	146	4
91	92	1
137	137	3
75	130	1
47	71	4
164	164	4
166	169	4
180	180	2
4	8	3
112	113	1
126	126	3
76	76	5
159	160	2
8	11	3
46	46	2
99	131	1
37	65	1
146	147	1
164	165	1
63	64	3
80	82	7
48	52	1
5	149	2
79	79	7
156	163	3
126	128	2
2	39	1
111	128	1
28	37	3
28	29	4
31	56	1
7	153	1
162	162	4
34	104	4
1	38	1
21	136	2
171	178	2
60	63	2
21	161	1
42	43	1
174	174	3
98	176	2
39	186	4
103	103	2
61	63	2
62	73	1
181	182	2
107	108	3
137	162	2
8	41	2
94	95	1
44	132	1
141	143	1
24	25	2
116	125	3
84	190	2
140	188	1
12	16	2
102	102	2
110	150	2
175	175	3
37	38	1
143	143	8
161	162	1
7	24	1
122	123	1
92	93	1
152	153	2
55	56	3
53	55	1
126	141	1
65	112	1
158	158	4
111	112	1
14	174	3
74	74	1
90	121	1
99	100	2
71	72	1
130	167	1
136	162	3
69	80	1
66	74	3
27	37	3
24	24	3
160	161	3
38	121	1
94	94	1
74	87	3
121	132	2
17	17	2
13	56	1
98	105	1
101	102	1
18	105	1
46	47	1
133	136	2
118	164	1
25	104	1
158	159	2
109	186	2
74	106	3
148	149	1
149	165	1
142	142	2
42	44	1
40	41	5
154	182	2
7	166	2
57	88	1
172	173	1
103	119	1
77	122	1
4	151	1
129	184	1
188	189	3
6	9	1
57	95	1
165	175	2
37	41	1
85	113	2
151	153	2
48	48	1
78	85	2
58	73	1
109	111	1
134	136	1
84	85	2
12	13	1
101	110	1
54	118	1
100	134	1
53	58	1
57	58	1
105	124	1
70	71	1
32	60	1
54	55	2
121	140	1
168	171	1
114	115	1
90	91	2
97	113	1
63	69	1
86	114	2
140	141	1
117	126	1
121	122	1
117	119	2
119	140	1
147	148	1
20	162	1
15	183	1
99	122	1
64	134	1
48	57	1
59	85	1
99	171	1
90	97	1
179	180	1
57	121	1
8	48	1
3	3	1
58	59	1
125	126	1
42	130	1
86	86	2
144	146	1
9	10	1
79	139	1
120	128	1
84	148	1
116	119	1
43	117	1
29	30	1
23	24	1
130	134	1
118	138	1
11	175	1
