47	47	14
11	12	8
66	66	20
6	7	7
27	84	2
14	14	13
8	8	18
77	79	8
58	58	11
63	63	7
75	75	37
57	57	28
25	27	5
29	58	3
25	25	13
68	68	25
76	77	27
19	19	8
57	66	5
74	74	17
8	9	18
12	13	6
22	22	4
9	9	12
62	64	3
52	52	12
68	69	12
31	47	2
70	70	7
15	16	6
1	1	14
11	11	22
4	4	30
13	14	6
85	85	24
76	76	26
3	5	5
88	89	11
71	71	20
86	86	23
29	29	8
61	62	5
59	59	17
27	85	3
89	90	5
69	69	21
89	89	25
26	26	10
69	70	1
67	67	23
51	52	9
62	62	14
86	87	4
10	13	2
51	51	19
53	57	4
48	48	25
79	79	13
60	63	3
81	81	17
87	87	21
24	24	20
12	12	17
73	73	17
24	25	4
17	18	5
3	19	2
61	63	7
90	90	4
2	2	13
56	80	2
7	7	6
79	80	3
78	79	7
22	23	2
83	84	6
27	27	11
3	3	24
6	6	8
61	61	12
17	17	10
0	0	7
66	67	6
25	26	3
82	82	22
79	81	3
67	68	16
88	88	14
52	54	4
10	11	4
49	49	21
70	71	2
72	73	14
18	19	3
5	6	6
62	63	12
9	14	4
19	24	2
4	14	1
81	83	1
4	5	6
16	16	3
58	70	9
81	82	5
18	56	6
9	13	1
84	85	3
72	72	28
84	84	15
19	20	3
20	23	3
49	50	3
15	15	8
82	83	7
1	4	3
80	80	12
26	27	4
10	10	30
23	50	4
31	31	14
27	28	6
74	84	4
50	50	25
53	53	13
21	21	3
66	70	2
23	26	1
64	64	4
55	55	20
73	74	4
49	52	5
14	22	3
48	85	2
78	80	1
5	5	10
71	74	4
15	19	2
60	60	6
62	65	3
50	53	2
3	4	8
13	13	17
56	56	9
83	83	6
81	84	2
77	77	9
30	30	18
6	13	3
17	20	1
25	50	2
20	20	2
35	35	5
34	47	1
25	49	1
12	23	3
26	65	4
9	10	6
63	65	11
71	73	3
59	65	1
75	76	7
58	66	3
23	23	2
60	61	7
27	66	1
8	12	4
4	57	1
20	21	5
28	28	6
78	78	8
34	78	3
65	67	1
80	81	6
5	56	4
0	1	2
53	54	2
71	72	2
20	22	3
10	57	2
22	25	1
76	80	1
3	22	1
54	55	8
10	12	1
48	49	2
25	51	1
85	86	1
29	30	8
49	51	6
77	78	5
54	54	10
65	66	3
34	34	6
32	64	2
65	65	6
19	28	1
35	82	3
74	75	3
87	88	2
56	57	7
53	58	2
12	14	1
57	58	4
59	60	3
74	80	2
48	50	2
34	64	2
53	55	7
10	14	3
5	8	3
56	69	1
66	75	1
25	66	3
50	52	2
17	19	1
47	48	4
32	82	3
74	81	2
58	62	1
59	61	3
67	73	2
23	86	1
58	60	1
6	56	1
5	9	1
19	56	1
75	81	1
23	51	5
48	59	1
25	87	1
9	27	3
75	80	1
27	65	1
6	55	2
0	2	1
56	75	1
26	53	1
14	19	1
2	4	1
26	51	1
8	60	1
60	65	1
28	30	1
48	61	2
31	46	1
60	62	3
30	31	1
18	18	1
23	24	1
6	8	1
57	85	1
70	73	2
55	79	1
8	11	2
55	75	1
46	46	1
50	75	1
7	23	1
16	18	1
