144	144	53
133	133	57
81	81	39
70	71	13
56	56	61
117	136	6
108	108	44
8	11	1
0	1	8
88	126	3
108	112	1
112	114	13
139	139	52
28	28	66
87	87	61
87	88	17
112	113	11
19	27	2
109	109	44
92	120	4
12	13	9
94	135	4
64	66	8
13	14	17
131	131	86
135	139	9
74	74	49
22	22	65
72	129	2
142	143	21
79	83	5
16	22	1
127	127	55
2	3	23
111	135	4
100	103	4
3	3	36
116	120	2
142	144	10
60	60	41
129	129	47
8	9	23
130	130	59
103	105	3
102	103	30
81	105	5
143	143	35
137	137	75
72	143	2
49	49	48
29	29	83
133	140	12
12	26	4
73	73	39
82	82	17
110	117	7
135	138	7
104	106	5
23	23	43
137	138	36
50	50	40
91	91	55
1	43	2
20	54	3
86	87	15
86	136	3
50	52	4
75	76	17
16	30	1
12	15	13
57	57	41
102	102	51
125	125	78
138	138	72
111	111	41
67	67	56
31	33	9
61	61	44
55	62	6
10	10	57
131	132	30
56	124	2
92	93	17
14	14	28
16	17	13
61	62	24
69	69	40
18	56	1
32	32	35
4	4	33
110	110	53
88	91	21
6	6	62
20	93	2
27	38	6
132	132	57
83	85	18
48	48	47
73	74	18
79	80	30
89	90	17
62	62	63
95	95	46
130	132	13
128	128	80
85	85	58
96	97	23
51	61	4
40	40	49
88	90	8
56	57	11
113	117	2
18	18	54
116	117	28
38	42	3
41	41	66
89	89	33
41	70	1
144	145	18
38	38	78
20	20	51
107	107	50
93	96	8
115	116	22
16	18	5
71	71	57
122	122	63
43	47	5
100	101	9
95	122	2
63	64	23
81	114	3
103	130	1
145	145	32
26	35	9
128	146	3
131	143	7
78	78	22
9	9	34
122	123	29
62	95	2
95	99	3
123	123	65
13	16	7
19	19	54
31	31	52
71	81	1
2	11	1
140	140	75
11	12	1
65	85	5
141	142	15
58	58	40
119	130	1
117	117	68
82	109	6
134	136	15
84	112	5
94	94	48
130	133	3
74	75	12
118	118	73
84	133	2
24	24	34
100	118	3
17	18	7
82	124	1
134	135	61
114	116	9
64	64	52
35	47	1
101	106	2
80	90	1
52	52	41
97	97	23
41	42	6
55	56	14
37	37	30
51	51	59
93	104	1
126	127	15
123	124	18
5	5	52
47	63	3
4	6	6
34	35	22
62	66	6
103	103	38
112	112	29
120	131	5
3	5	5
136	137	19
126	126	75
96	112	3
32	117	3
142	142	52
129	130	18
83	83	52
84	108	3
104	105	33
27	118	1
53	53	63
124	124	59
132	139	2
91	104	6
2	10	3
56	65	5
35	36	30
66	66	46
42	42	53
47	47	45
84	93	1
80	80	54
65	81	3
5	14	2
91	92	23
84	88	3
61	95	3
49	132	1
70	72	6
27	28	18
8	8	75
145	146	8
125	126	18
43	43	29
133	139	10
103	123	5
80	141	4
129	136	2
110	111	20
69	70	26
77	77	63
63	63	78
139	140	18
99	100	28
84	84	29
76	79	5
141	141	81
71	97	2
120	120	53
119	120	26
51	73	4
3	35	5
65	65	58
128	131	4
86	97	2
17	17	82
57	61	10
16	16	39
49	50	14
140	141	33
48	51	7
52	56	1
34	34	40
106	107	13
26	26	48
121	121	83
67	94	3
106	121	3
89	107	2
92	92	57
62	63	19
0	8	2
67	69	1
84	85	12
72	73	13
86	86	21
125	128	2
97	109	6
80	145	1
79	79	64
127	131	3
93	107	3
90	90	41
27	33	3
124	125	23
129	132	6
68	69	17
28	91	1
136	139	18
83	131	3
121	123	12
93	93	47
119	119	75
0	0	32
18	25	1
77	78	32
138	139	21
39	65	4
101	101	58
94	95	14
81	83	9
73	86	4
39	41	8
93	94	28
122	140	1
91	113	2
54	54	22
120	121	9
13	13	49
118	119	22
50	53	3
55	65	4
133	134	20
114	114	50
9	66	7
36	37	22
135	135	49
26	69	2
104	136	1
1	1	28
5	6	5
134	134	80
0	107	3
85	86	13
131	135	2
75	87	6
80	85	10
49	142	2
115	115	29
128	130	15
67	76	2
28	30	17
64	105	3
58	105	3
92	94	11
130	131	16
2	36	2
75	120	1
25	25	49
55	55	42
65	66	13
116	116	44
1	3	5
15	15	42
98	137	8
74	131	1
83	84	18
94	97	7
104	104	31
1	70	4
123	130	5
78	119	1
71	83	2
55	81	1
30	30	47
56	58	10
58	59	15
25	59	2
119	135	5
56	59	6
50	98	1
106	106	46
116	144	4
31	32	13
11	11	22
20	21	19
136	136	65
6	10	4
26	40	1
23	24	18
58	100	2
15	16	25
113	113	29
9	31	2
89	92	1
66	99	7
2	2	47
87	104	8
59	59	51
106	128	1
81	82	28
11	41	2
9	10	18
33	41	2
39	39	27
90	94	4
107	113	1
112	115	9
27	27	54
111	112	13
32	70	3
138	141	5
32	38	1
35	66	4
39	55	2
85	127	2
0	36	3
91	95	1
33	34	34
18	19	21
23	27	2
3	4	16
3	110	3
21	63	6
96	98	14
64	131	4
72	75	2
72	72	43
36	36	24
58	60	4
18	21	6
37	39	5
48	61	2
96	96	46
81	142	3
105	110	5
102	141	7
68	68	50
55	58	7
115	138	2
68	71	2
55	60	3
140	142	6
106	108	9
123	128	4
33	35	16
98	141	2
26	27	9
105	106	21
136	138	26
21	110	5
9	21	9
22	95	4
116	127	2
25	90	1
134	140	2
3	55	1
21	25	3
50	51	10
42	103	1
131	134	4
59	62	7
100	100	46
54	55	13
60	61	8
21	21	29
33	33	44
120	123	8
72	115	4
105	105	42
77	118	2
4	109	1
66	68	3
111	115	2
4	5	22
18	20	17
76	77	13
34	36	7
106	109	5
37	38	9
105	108	3
43	80	5
63	93	4
89	109	8
52	55	3
33	133	2
27	32	4
64	65	17
47	73	4
39	40	30
33	54	3
68	82	5
30	31	9
12	19	4
143	144	21
48	49	13
4	43	1
15	48	1
37	68	5
11	97	2
90	101	3
82	99	3
108	118	3
72	89	2
5	120	8
53	56	3
128	129	36
67	106	3
88	96	4
51	57	2
2	85	3
8	99	1
47	81	1
69	92	8
122	124	3
13	15	21
130	141	1
1	106	1
105	132	11
6	29	5
98	99	14
71	118	4
53	54	10
69	95	4
11	36	7
77	101	5
16	89	1
35	35	29
123	125	6
57	58	29
20	36	6
125	141	3
32	33	22
131	133	11
71	108	1
132	133	19
1	2	12
31	88	3
65	83	4
59	121	2
114	137	1
19	20	5
13	126	4
0	89	1
18	94	4
94	96	6
114	115	20
59	87	4
75	83	3
3	14	2
2	69	2
70	70	54
140	144	1
68	70	6
129	138	2
33	39	1
90	138	1
73	96	1
67	81	2
109	112	2
127	130	20
133	135	17
99	99	31
60	65	2
63	67	1
38	39	14
135	136	20
129	131	7
94	143	3
134	141	4
38	41	6
111	138	6
33	47	2
132	135	6
3	6	3
75	75	43
107	108	10
107	137	3
92	141	4
121	125	10
133	137	7
92	139	3
4	35	7
125	144	1
52	53	6
4	23	3
98	136	2
76	78	11
71	73	10
82	84	11
113	128	3
27	31	5
25	33	1
67	68	22
108	140	2
10	26	7
141	143	7
48	50	2
0	26	2
135	137	7
24	64	5
111	116	4
42	48	12
66	67	20
70	73	5
37	53	5
60	67	3
65	73	5
76	76	29
10	11	22
17	27	1
56	63	5
97	105	1
108	109	13
35	88	1
24	82	4
96	136	2
119	131	3
52	80	4
74	77	3
136	140	3
2	34	4
97	104	1
71	72	21
23	43	4
2	47	3
61	73	4
16	119	2
88	88	36
109	111	4
31	34	6
20	33	2
34	37	4
1	87	3
59	115	2
18	28	1
101	102	13
84	86	2
15	22	1
27	43	4
82	85	6
10	41	2
59	60	20
34	102	3
78	122	4
68	77	1
64	70	3
115	117	4
89	91	5
75	141	3
17	29	4
2	4	10
10	32	5
98	135	3
55	84	4
121	138	11
84	96	5
64	97	4
113	114	21
115	120	2
24	26	8
47	65	1
65	93	2
83	110	4
51	100	4
23	89	3
120	146	4
19	29	4
93	113	5
121	145	5
136	142	4
83	115	2
80	146	2
36	41	5
57	62	4
132	134	7
67	103	2
99	121	4
64	107	3
51	52	31
120	144	1
125	127	4
25	40	8
56	68	1
14	15	12
24	32	3
15	31	4
31	69	3
1	69	3
110	131	3
98	98	28
56	131	2
3	17	1
133	144	3
63	65	6
110	118	5
92	126	5
66	124	7
115	133	2
40	41	12
59	61	6
54	143	2
88	131	7
53	62	4
4	10	6
116	126	3
14	16	6
127	133	2
66	70	5
109	110	21
51	84	3
104	142	4
25	42	2
78	79	15
108	110	5
96	137	1
6	42	2
120	125	3
32	55	1
146	146	7
21	55	1
75	77	2
47	75	2
113	115	12
66	72	2
96	102	1
8	95	2
140	143	9
22	71	1
49	54	5
77	79	5
32	37	2
134	138	2
69	72	6
121	122	15
70	93	4
120	130	4
72	127	1
71	82	5
62	72	2
97	136	5
56	91	4
63	66	4
24	68	2
14	27	3
19	120	7
125	129	6
133	136	2
37	48	2
74	129	2
40	61	1
75	131	2
5	13	6
103	141	1
18	30	3
1	81	1
57	90	1
74	82	4
2	5	6
36	67	2
97	132	1
16	26	4
61	78	7
130	134	2
25	32	4
15	17	2
74	87	2
39	56	1
97	98	15
68	132	2
17	21	1
96	123	2
97	124	3
101	128	2
54	56	8
48	145	2
84	111	3
42	62	2
11	18	3
8	17	2
37	79	2
17	32	2
84	110	1
61	135	2
78	123	1
21	23	3
12	12	14
84	114	5
90	95	6
18	41	1
101	117	2
67	116	1
1	35	5
46	64	4
139	141	3
121	134	2
14	32	2
117	118	22
128	144	1
15	29	7
8	74	2
36	46	3
85	111	6
121	126	3
82	115	5
47	48	6
133	141	1
76	84	3
5	102	1
83	86	4
67	70	4
115	121	2
107	132	2
56	69	7
61	65	2
119	123	3
86	138	8
76	126	4
96	142	4
40	42	2
17	78	1
74	118	2
127	129	3
64	87	3
65	137	7
64	80	1
6	26	1
20	63	2
126	129	7
95	102	1
56	145	1
60	123	2
42	57	4
90	91	3
43	77	3
89	94	4
17	28	4
137	139	4
64	84	1
27	64	4
80	81	8
132	140	2
1	46	4
4	13	2
47	66	4
88	89	13
86	110	2
38	40	11
71	109	1
137	140	7
118	129	3
125	130	3
131	140	9
128	142	5
89	98	2
104	110	3
1	28	2
19	23	4
98	143	1
2	16	2
63	91	1
66	91	1
119	128	2
2	105	2
100	102	2
53	143	3
74	85	1
62	64	9
9	100	2
127	128	5
91	105	2
139	142	4
0	83	2
115	118	2
10	16	1
67	90	2
72	98	2
79	131	5
13	65	2
92	124	2
67	126	1
115	137	2
21	34	1
85	133	4
128	138	1
98	123	4
20	25	4
26	64	4
102	104	7
117	125	2
87	89	1
114	117	5
21	71	1
54	72	3
16	20	1
121	133	4
107	118	3
92	98	1
136	141	6
91	94	5
54	60	5
76	118	4
99	109	2
14	18	1
8	23	10
94	140	2
36	89	2
37	43	1
81	91	1
55	57	3
10	53	1
129	134	4
36	43	1
12	33	1
25	26	15
108	133	1
60	119	3
103	106	2
92	95	5
104	139	3
75	116	1
18	123	5
42	54	1
10	27	3
78	107	5
78	82	2
125	142	2
33	36	7
60	62	3
65	72	2
108	126	1
19	48	2
66	69	4
55	127	1
58	77	2
32	36	4
52	74	1
22	23	4
123	135	1
114	130	2
80	118	2
39	100	2
57	60	2
10	20	4
139	143	6
1	6	1
9	34	1
105	144	4
95	128	2
28	49	3
95	96	7
39	90	4
73	77	1
104	141	2
106	132	2
1	83	2
84	138	1
91	98	1
61	83	1
118	120	5
18	106	2
121	131	5
19	33	4
102	105	1
82	87	7
123	127	1
50	61	2
119	133	5
107	109	3
0	17	4
9	69	3
60	134	1
89	103	1
0	81	4
17	33	4
9	22	2
56	103	2
135	140	3
63	116	1
113	116	3
47	118	2
123	138	2
138	140	4
87	92	2
104	112	1
71	141	1
56	72	1
57	73	2
136	144	2
82	83	5
24	43	3
8	28	3
19	126	1
40	144	2
40	70	5
130	137	5
115	126	3
87	90	8
37	49	4
91	125	4
106	110	6
18	141	2
56	95	5
71	74	1
9	19	2
116	130	1
67	78	3
16	128	6
20	35	3
24	25	9
36	47	2
6	11	6
1	20	2
116	138	2
102	130	3
117	137	1
37	40	6
98	107	1
70	74	2
3	89	3
22	54	3
131	139	6
76	83	3
95	120	3
47	112	1
122	144	4
67	95	4
96	128	1
5	55	2
91	128	1
8	10	4
100	119	5
78	125	1
8	42	2
1	25	1
107	110	4
107	111	2
40	69	2
14	20	1
126	138	2
53	57	2
69	93	1
5	80	1
19	39	1
118	135	3
106	140	3
95	101	6
81	87	4
33	43	3
103	134	4
37	41	4
9	11	1
85	123	1
92	99	3
98	104	1
34	67	3
11	113	3
98	125	3
126	130	5
60	126	2
16	78	1
70	113	2
72	130	1
54	106	4
9	20	3
14	17	6
68	73	1
110	116	2
2	6	2
55	110	2
82	107	3
95	121	1
56	66	4
4	37	1
73	76	2
85	139	5
104	134	1
35	37	8
67	105	1
23	33	2
66	116	2
141	144	2
13	138	2
99	111	7
113	130	1
75	85	1
111	130	1
28	29	4
57	95	1
9	15	3
39	71	1
79	124	4
11	25	1
58	61	2
104	127	3
0	58	1
118	124	3
62	75	1
8	138	1
119	121	3
84	109	2
116	121	1
1	36	4
23	55	3
13	102	1
119	122	1
61	120	1
21	28	1
127	132	3
34	38	2
29	30	7
30	99	1
18	50	5
97	99	3
119	124	3
82	135	2
100	126	1
97	138	3
3	34	1
53	55	4
36	83	4
62	67	2
22	78	2
74	83	6
111	119	2
61	64	2
117	140	2
131	142	4
8	24	1
12	125	4
29	118	1
118	126	3
9	98	1
68	72	4
42	58	2
111	113	1
8	89	2
133	138	5
3	112	2
95	126	8
10	121	2
117	143	5
122	128	4
119	126	1
56	64	6
6	8	2
70	132	2
72	136	1
32	120	6
72	101	3
65	69	5
77	84	3
67	74	2
33	72	4
82	108	4
103	121	2
26	67	1
89	113	1
76	88	2
57	100	1
47	127	3
117	119	3
73	130	2
9	48	2
30	37	1
60	64	3
24	74	2
63	137	3
47	53	1
0	92	4
93	105	1
57	59	3
97	102	1
21	42	1
71	88	1
67	73	3
4	118	1
40	63	1
21	103	3
82	103	1
124	142	3
42	74	1
26	93	3
106	111	1
117	132	3
98	106	1
75	78	8
129	144	1
13	43	1
111	132	1
53	59	1
54	74	1
68	81	4
116	118	5
25	43	2
85	109	5
124	126	5
43	57	5
64	74	2
94	134	1
113	118	5
24	69	3
85	112	1
20	27	2
35	64	3
1	67	3
64	108	1
106	117	3
80	120	1
107	134	1
72	84	1
56	79	2
127	144	1
120	127	4
17	19	4
35	70	1
48	52	3
33	37	2
28	47	2
113	129	3
13	74	1
93	139	3
70	145	1
107	112	1
99	101	5
8	58	1
100	104	1
54	68	3
82	105	1
112	116	2
93	97	3
58	127	3
124	141	2
9	33	2
43	76	2
69	140	2
61	127	1
87	106	1
53	70	3
86	91	2
57	82	2
111	118	3
105	135	1
57	102	1
47	82	4
120	122	3
11	13	2
98	139	2
134	143	2
62	107	1
103	104	4
126	131	2
5	8	1
19	38	1
64	140	1
72	83	5
20	97	2
72	90	2
64	121	2
70	89	1
34	47	1
9	13	2
23	30	1
108	141	1
1	61	3
62	108	3
3	83	2
82	112	1
96	100	1
105	137	2
49	82	3
56	80	3
18	118	2
74	113	1
2	35	3
87	139	1
0	37	1
122	131	3
88	112	1
27	101	1
64	85	2
9	12	1
110	113	2
63	145	2
65	95	1
16	33	1
10	14	1
92	114	1
117	120	2
9	63	4
92	119	1
124	138	1
36	39	3
61	105	2
131	138	4
71	129	2
125	135	1
68	107	1
27	63	2
9	17	3
61	90	2
101	143	1
8	88	2
9	28	1
84	115	1
21	22	3
19	144	1
79	126	1
117	126	2
25	31	2
95	104	3
10	58	3
5	65	1
118	134	3
98	144	2
0	82	2
96	104	2
62	65	2
47	79	1
96	105	3
67	85	1
126	132	3
4	20	1
80	124	1
132	138	2
10	30	4
18	132	3
6	131	1
58	78	1
36	85	3
70	94	1
65	88	2
99	126	1
6	64	1
47	120	1
67	97	1
53	66	1
13	143	2
84	132	1
13	20	2
51	116	1
72	91	1
99	118	1
89	99	1
11	34	3
116	139	1
69	74	1
90	127	1
110	112	4
77	127	1
72	74	4
76	125	3
19	25	2
109	113	2
51	53	3
110	125	2
15	51	1
2	57	2
89	105	1
56	70	2
104	109	2
78	84	2
29	41	3
126	134	1
5	9	1
89	130	1
123	126	2
1	93	1
81	132	1
23	38	2
119	127	2
105	107	3
85	110	2
60	86	1
75	132	1
136	143	1
22	131	1
1	21	2
123	143	1
10	31	1
78	80	1
69	84	2
102	108	1
47	56	1
25	50	2
99	131	1
77	80	1
14	19	1
54	75	1
108	142	1
5	41	1
47	121	1
85	114	3
125	133	1
56	78	1
115	129	1
49	131	1
110	143	1
34	43	2
3	88	2
48	59	1
118	121	2
126	128	2
97	107	2
79	81	2
105	140	2
90	92	1
8	61	1
20	23	1
111	125	1
119	138	1
11	27	3
55	70	1
8	115	1
106	114	3
16	96	2
18	27	2
99	117	3
134	139	1
61	102	5
5	119	2
112	144	2
97	133	2
91	99	1
57	71	2
8	29	1
5	40	2
67	134	1
105	141	1
123	145	1
19	22	2
11	58	1
19	24	1
91	139	1
20	24	2
32	34	3
76	81	2
5	63	4
73	109	1
53	71	2
58	74	3
73	129	2
58	62	3
30	32	1
27	119	1
1	4	1
38	67	1
104	121	1
69	83	1
58	93	1
69	91	1
54	110	1
68	133	2
34	133	1
1	90	3
72	93	2
128	140	2
93	98	1
91	96	1
29	39	1
3	9	1
116	137	3
110	119	1
6	36	1
0	20	1
87	95	1
97	121	1
15	89	1
80	98	1
54	58	2
73	146	1
70	118	2
73	137	1
2	53	2
20	72	1
68	88	2
12	88	1
4	116	1
87	101	2
17	38	2
21	27	1
87	107	1
28	65	2
65	82	1
9	38	1
26	31	3
57	117	2
5	87	1
85	94	1
39	82	1
99	103	1
83	88	1
137	141	2
85	97	1
4	33	2
62	77	1
76	123	4
68	129	2
103	128	1
84	90	2
117	133	4
24	54	1
77	125	1
59	65	1
63	135	1
99	141	2
3	63	1
85	87	2
30	33	1
61	86	2
22	37	1
9	14	2
41	73	2
9	26	1
90	98	3
1	32	2
97	120	1
86	89	1
71	80	1
58	112	1
85	93	3
1	14	1
5	58	2
55	80	2
3	72	2
18	78	2
11	65	1
31	113	1
37	64	1
61	103	1
16	77	2
40	71	1
72	126	1
21	36	2
11	57	1
50	125	1
130	140	1
102	111	1
48	129	1
1	58	1
76	90	3
114	118	1
27	39	2
75	117	2
73	88	1
110	126	1
61	104	3
99	142	1
104	140	2
12	25	1
112	132	1
15	76	1
11	131	1
54	115	1
9	43	2
11	28	1
65	70	2
132	144	2
66	107	1
66	82	1
124	144	1
90	99	1
6	63	1
8	101	1
106	127	1
65	68	1
115	122	1
104	137	1
66	93	1
53	130	1
5	37	1
2	114	1
11	32	1
79	122	1
21	41	1
68	134	1
122	126	1
81	103	3
79	128	2
56	96	2
117	123	1
98	120	3
13	17	1
131	136	3
57	63	2
89	100	1
67	131	1
53	120	1
109	134	1
26	32	1
83	119	1
3	10	1
47	58	1
93	121	1
19	30	1
56	67	1
27	77	1
35	68	1
68	83	1
94	123	1
98	140	1
39	43	1
101	104	1
84	123	1
92	143	1
72	82	2
27	136	1
1	26	1
83	97	1
87	116	1
80	102	1
101	120	2
43	108	1
28	39	2
9	40	1
4	34	1
88	92	1
22	70	1
96	131	1
40	145	1
2	113	1
5	36	1
86	109	1
71	87	1
110	138	1
49	52	1
112	117	2
75	79	1
69	71	1
15	30	1
77	107	1
1	38	1
20	34	1
58	103	1
47	54	1
1	139	1
66	78	1
8	18	2
36	60	1
13	60	1
10	40	1
38	96	1
88	137	1
57	67	1
26	28	1
4	65	1
78	114	1
88	111	1
20	106	1
76	133	1
90	141	1
118	143	1
69	111	1
17	34	1
103	115	1
31	43	1
43	133	1
99	107	1
18	120	1
31	105	1
33	118	1
105	112	1
