41	41	6
48	48	17
113	113	3
119	119	11
67	67	5
111	111	3
102	102	4
6	6	10
122	122	4
87	87	3
1	2	5
28	28	14
29	31	1
115	115	3
92	92	8
44	44	9
124	124	4
5	5	5
54	54	8
94	95	5
108	109	2
127	128	4
84	84	9
121	121	6
89	89	7
110	133	3
82	129	4
79	79	3
44	45	6
103	103	5
106	106	3
109	109	10
129	131	5
120	122	1
50	57	1
123	123	8
97	98	7
86	87	4
45	46	3
104	104	7
44	69	2
11	11	6
5	86	3
83	84	10
55	55	12
77	77	6
108	108	11
41	42	2
113	132	3
91	91	8
125	126	2
85	85	3
41	43	3
20	92	1
61	61	13
73	73	6
84	85	3
3	3	9
2	103	2
101	101	7
68	68	2
118	118	2
89	126	2
95	95	10
97	97	11
3	34	2
72	72	15
79	80	4
90	91	2
117	117	13
11	12	3
70	70	9
65	67	1
40	40	4
89	127	3
32	32	4
18	116	4
30	30	5
22	22	9
53	53	2
80	80	7
1	1	2
61	62	3
81	84	1
114	126	2
71	120	3
16	17	3
17	17	3
73	74	2
10	12	3
8	8	6
42	43	5
82	82	1
52	52	4
101	102	2
81	83	1
126	127	3
51	93	3
50	50	4
112	112	11
66	68	2
85	86	5
99	99	1
109	120	4
15	15	2
12	12	4
71	101	1
1	40	1
126	126	1
115	116	2
4	4	3
86	86	2
17	98	2
110	110	6
94	94	3
49	49	5
48	49	4
64	107	2
47	47	12
66	66	6
100	101	4
42	42	3
118	119	5
102	122	1
65	65	2
75	75	4
18	21	4
38	39	2
59	60	5
2	2	4
76	76	4
96	97	3
130	130	3
49	114	1
125	125	6
30	31	1
100	100	5
59	59	3
105	105	2
120	120	4
51	52	1
75	76	1
114	114	1
16	100	1
31	31	1
104	105	4
93	93	2
46	46	7
29	30	6
19	20	4
6	31	1
20	20	2
80	84	1
9	14	3
133	133	3
24	73	2
0	1	1
25	25	1
33	34	2
22	23	2
21	21	6
77	89	1
51	54	2
42	45	1
117	119	1
116	116	7
125	132	5
117	118	2
131	132	1
120	125	3
80	81	1
128	128	3
97	129	2
96	96	7
106	107	2
59	62	2
24	24	2
26	27	3
83	83	4
4	12	2
95	113	2
116	126	1
50	54	2
71	71	3
19	117	1
60	62	1
131	131	6
61	75	2
6	86	2
76	77	3
114	127	2
95	121	1
14	15	1
10	76	2
47	48	1
39	103	3
87	97	1
74	74	2
43	43	4
125	128	2
127	127	5
88	88	5
79	86	1
89	90	3
69	69	1
114	119	1
93	94	2
65	66	5
114	115	1
39	40	2
98	98	1
1	62	2
107	107	2
19	96	1
119	120	1
4	5	1
102	103	2
67	68	1
78	78	4
23	107	2
114	129	1
74	120	1
0	2	3
95	102	1
33	33	5
3	6	1
18	18	2
19	25	2
10	10	1
62	63	1
32	33	1
18	22	1
75	77	1
25	65	2
126	132	1
128	129	1
105	106	4
87	88	1
16	16	1
127	131	2
78	79	3
40	46	1
51	56	1
75	78	1
82	114	1
70	71	1
80	102	1
113	130	1
124	129	1
97	99	1
64	65	3
60	61	1
52	53	1
13	14	3
46	53	1
54	55	1
7	32	1
121	122	1
132	132	2
16	86	2
29	29	2
17	99	1
48	125	1
10	11	1
7	7	1
72	73	2
23	23	2
99	100	1
91	92	1
37	37	1
27	28	1
