33	33	6
120	120	3
141	141	2
109	111	1
40	40	9
111	111	1
68	68	13
55	55	2
109	110	2
49	50	5
110	110	5
79	79	2
120	123	3
29	29	3
46	46	2
65	65	5
92	92	1
118	152	4
123	123	5
25	27	2
40	41	2
57	57	2
69	78	1
102	102	4
106	106	7
4	4	3
64	64	5
67	67	8
62	63	3
76	76	10
58	63	3
74	74	2
43	44	7
103	103	3
148	148	4
144	144	4
115	116	1
53	54	1
76	77	3
30	30	3
119	135	1
31	31	4
9	9	14
25	29	2
84	84	5
48	48	2
25	26	3
11	11	2
25	32	2
98	98	3
17	17	13
137	137	2
39	39	4
10	10	6
50	50	3
110	111	1
8	8	1
37	37	3
12	12	6
98	99	1
40	42	2
114	114	3
38	38	3
14	14	5
126	127	4
146	146	4
71	71	12
143	151	1
125	126	1
95	96	2
140	140	1
45	45	1
7	7	1
118	118	11
22	22	4
16	17	2
78	78	2
37	38	5
69	71	1
88	88	1
49	49	14
108	108	1
81	81	1
66	66	7
12	13	2
153	154	2
129	129	2
80	94	1
25	25	3
27	28	3
121	121	3
42	42	4
11	12	5
56	56	5
12	15	4
18	18	5
9	10	3
135	135	4
11	109	1
33	34	1
149	150	3
20	20	3
9	11	1
51	51	1
28	28	2
113	114	2
112	113	3
87	113	2
99	114	3
23	23	3
101	101	1
36	36	2
150	150	3
12	14	2
53	53	2
74	80	2
137	138	1
116	116	3
43	43	2
83	83	2
6	6	1
35	35	2
147	147	3
98	111	2
15	16	1
117	117	6
55	56	2
41	41	4
50	62	2
11	29	2
68	69	6
6	7	2
111	114	1
21	21	2
122	122	5
2	8	3
77	77	6
93	94	4
109	109	2
83	91	1
69	69	5
61	63	2
80	80	4
115	115	1
131	131	4
130	131	2
69	70	1
42	74	1
87	87	1
21	23	4
127	137	1
130	130	1
31	32	2
75	75	3
131	132	5
133	133	1
73	75	1
47	47	5
132	132	2
85	86	3
105	113	1
92	94	1
130	134	1
53	67	1
23	34	2
129	132	1
7	8	2
44	103	2
13	13	2
67	68	2
74	79	3
25	40	1
94	94	1
77	97	1
17	18	3
45	53	1
37	39	2
15	18	2
5	5	1
49	64	1
128	129	1
102	105	1
17	20	3
8	9	2
84	85	2
108	109	2
107	111	1
24	24	1
72	73	2
128	128	3
70	71	1
101	102	1
36	37	3
55	57	1
106	114	1
138	138	1
122	135	1
44	44	1
14	77	1
19	19	1
96	96	1
39	44	1
83	86	2
77	78	1
154	154	1
92	93	1
142	142	1
120	136	1
131	134	1
105	106	1
42	43	1
26	27	1
73	73	1
58	58	2
38	82	1
119	120	1
136	136	1
16	16	1
19	25	1
24	25	1
