136	136	7
126	126	5
29	58	1
68	76	3
21	21	5
106	106	16
34	34	13
142	142	17
130	130	20
72	72	9
147	147	13
5	5	8
64	64	7
93	127	4
34	41	1
137	138	1
10	10	12
20	20	13
53	57	7
50	50	19
4	4	14
68	68	7
10	36	7
10	70	1
146	147	7
5	49	1
111	150	5
70	70	6
38	38	10
154	154	7
31	31	22
93	93	11
8	53	2
10	37	3
105	113	2
50	62	3
63	63	18
34	35	9
40	40	27
34	37	3
77	77	8
43	45	2
125	125	4
48	48	7
83	83	12
45	46	8
37	37	6
132	148	6
96	97	9
82	84	6
76	76	10
152	152	13
129	129	4
77	80	2
132	132	12
24	24	13
107	117	4
64	65	1
106	107	2
121	121	6
50	51	6
53	53	32
131	132	4
8	23	6
141	141	13
79	81	3
76	80	2
54	57	2
49	50	5
39	40	9
124	127	2
110	110	8
103	104	7
88	88	9
127	127	15
97	98	2
84	86	2
139	144	3
62	85	1
40	47	4
80	82	2
65	99	5
102	102	12
113	113	14
10	41	4
43	86	4
55	55	11
128	132	1
111	113	3
108	110	4
131	131	17
67	68	4
117	117	19
18	18	12
86	86	16
119	119	6
33	33	10
82	82	13
32	32	10
98	99	7
54	54	9
37	49	4
45	45	10
42	42	11
134	134	5
74	82	4
8	8	8
27	42	2
31	39	1
98	98	5
121	123	2
7	7	19
73	77	2
90	91	2
14	14	18
24	47	5
33	44	1
72	79	2
6	48	7
44	44	12
65	65	15
137	137	6
135	135	3
116	116	9
64	81	4
16	16	14
6	25	5
27	28	8
137	146	1
14	47	6
22	25	1
57	57	17
126	145	1
72	76	5
48	49	1
81	82	4
28	29	6
6	6	7
120	121	12
46	46	5
5	50	1
67	67	22
102	110	3
10	12	4
78	137	1
62	62	5
94	95	7
96	96	13
71	71	7
22	22	12
109	109	14
104	104	5
78	82	7
121	124	5
36	36	8
15	15	17
150	150	4
82	85	3
24	25	2
3	3	5
19	19	9
118	122	2
101	114	3
148	148	5
99	99	6
42	43	6
84	133	2
89	90	1
76	77	3
107	107	6
101	101	14
143	143	4
5	21	4
27	27	5
116	117	1
81	83	4
65	66	3
62	145	2
21	23	2
17	17	7
62	63	4
108	108	17
78	79	8
150	151	9
125	140	2
145	145	9
35	35	13
32	36	3
141	142	5
124	124	11
43	43	2
109	110	4
51	54	1
120	120	6
11	36	2
76	82	1
66	66	13
18	24	1
126	146	1
138	138	8
124	126	3
78	123	1
123	124	3
4	5	16
140	141	5
29	29	5
105	105	17
125	126	5
87	87	7
118	118	10
13	13	11
95	95	10
9	9	6
92	93	7
149	149	11
21	26	1
61	74	3
81	86	2
52	52	5
77	79	4
94	94	7
85	142	2
38	39	7
140	140	7
11	11	10
47	47	13
66	67	4
97	97	4
12	12	9
26	26	9
104	150	2
9	12	1
30	30	9
51	51	5
43	44	5
4	26	6
97	99	3
103	103	12
75	79	9
136	137	8
144	147	2
112	112	9
143	144	5
123	144	2
16	26	1
133	149	4
99	100	7
74	75	5
33	35	2
56	56	7
144	148	1
5	7	7
29	43	1
128	128	15
81	81	1
120	122	3
114	149	2
17	29	12
68	69	6
20	21	4
41	41	12
28	28	4
109	116	1
135	140	1
42	86	3
115	117	4
69	70	2
122	122	9
119	123	3
146	146	8
65	67	5
61	85	2
115	115	5
73	73	7
144	145	1
28	55	1
80	83	3
16	29	7
70	86	4
25	25	5
123	126	3
46	53	3
22	66	5
64	87	2
55	56	1
5	48	2
93	125	5
65	68	3
125	127	1
33	43	2
41	51	2
129	130	4
23	23	6
111	112	2
84	84	4
123	125	1
119	149	1
54	55	2
62	64	2
100	100	7
126	127	4
95	96	6
12	31	3
46	54	1
102	105	3
80	81	1
113	114	3
17	18	4
115	116	2
8	9	2
29	30	5
22	68	1
95	97	6
74	74	5
85	86	8
76	81	5
107	108	2
153	153	6
102	103	1
31	34	2
123	123	6
151	151	5
83	85	3
80	86	3
90	95	1
8	11	4
14	15	1
19	29	1
76	84	1
96	99	3
34	36	3
10	31	2
13	25	1
95	120	1
25	28	1
9	23	3
90	93	1
63	87	2
100	114	2
50	55	2
5	26	1
32	34	3
143	146	2
104	105	1
72	80	5
19	20	3
26	27	5
90	90	5
9	17	1
124	132	3
148	152	1
74	84	1
80	137	2
78	78	4
37	38	2
134	136	2
51	52	4
101	107	1
11	12	2
25	26	5
134	137	5
49	49	2
31	32	4
48	53	1
15	28	1
138	142	2
93	95	1
47	53	2
58	58	2
113	118	2
95	99	2
86	87	4
22	23	4
124	125	4
33	34	1
76	83	1
23	69	1
142	147	1
147	148	2
32	44	2
27	30	2
10	34	1
119	148	2
130	140	3
131	133	3
32	33	4
43	46	4
110	113	1
8	129	2
66	86	2
15	16	3
89	89	1
123	145	1
139	139	1
79	79	2
14	30	2
148	149	2
18	19	1
8	71	2
20	27	2
22	47	2
15	23	1
66	99	1
94	125	1
80	87	1
6	20	1
22	26	2
11	54	1
87	144	1
74	147	3
72	98	1
130	131	2
46	47	2
73	83	3
20	25	2
111	111	3
53	54	1
6	21	2
127	128	2
24	31	1
141	144	1
37	40	2
45	102	2
75	75	3
142	143	3
18	35	1
104	115	2
28	39	2
30	56	1
68	84	1
91	122	3
72	73	2
104	111	1
87	139	1
91	91	2
89	92	1
64	68	1
7	20	1
63	69	1
132	146	2
10	11	1
47	48	1
94	128	2
118	119	2
97	120	2
85	140	1
5	6	2
122	123	1
39	39	7
108	109	2
32	58	1
77	78	1
144	144	3
8	12	1
109	118	1
18	28	1
93	94	2
17	37	1
39	43	1
33	45	1
78	83	1
121	132	1
85	85	1
23	66	1
78	90	1
12	55	1
66	126	1
102	107	2
4	25	1
66	85	2
57	62	1
88	93	1
63	64	2
27	29	2
94	127	1
65	69	1
48	85	2
92	94	1
81	88	1
133	134	1
31	33	1
31	46	2
91	96	1
125	143	1
92	92	1
69	69	1
22	46	1
84	85	1
68	128	1
