111	111	36
164	165	3
66	66	11
171	171	9
125	125	12
147	147	6
64	64	12
29	30	7
184	184	11
131	131	13
57	57	7
124	124	11
150	150	3
179	181	7
149	149	18
174	174	20
175	175	12
94	94	9
83	83	12
22	22	6
60	60	8
16	17	6
45	56	1
78	78	10
134	138	2
19	20	10
13	13	15
178	179	4
142	142	11
168	168	14
62	64	3
106	106	8
169	170	3
170	172	2
105	105	9
181	181	5
8	8	12
9	27	3
15	16	3
104	137	4
40	69	5
3	86	5
10	12	3
163	164	7
120	125	6
134	134	21
107	108	8
155	155	3
19	111	2
154	180	1
58	58	12
91	91	2
172	173	6
20	20	8
92	94	4
137	137	8
4	5	4
178	181	4
24	38	3
18	19	2
42	47	6
177	178	10
71	71	6
185	185	16
77	77	13
142	143	5
109	109	6
173	173	12
72	72	13
14	14	6
73	74	8
96	96	2
46	47	2
86	86	20
31	31	11
41	42	3
2	2	8
73	73	7
39	39	12
107	145	3
61	62	8
161	168	4
61	61	2
107	107	8
160	168	5
101	101	7
48	71	3
99	99	11
74	74	12
157	157	7
19	112	5
53	53	3
126	128	4
119	119	4
58	64	4
23	23	17
125	126	2
133	133	6
130	132	2
14	55	2
82	82	7
130	133	7
143	143	8
76	76	1
97	98	6
147	148	11
91	93	2
32	35	3
1	2	6
118	118	10
16	16	7
120	136	3
106	107	5
180	180	9
100	122	3
48	48	9
53	60	4
119	121	3
179	179	6
17	17	5
95	95	9
80	80	11
77	138	3
79	79	10
0	1	3
164	164	18
113	118	2
63	64	4
10	52	4
5	6	7
14	17	7
137	139	1
115	115	7
130	157	4
92	93	5
21	22	11
15	15	8
0	0	9
114	114	10
103	106	2
11	11	6
44	44	3
77	137	2
116	116	14
150	155	2
127	128	2
64	65	3
170	170	9
49	84	2
104	105	4
71	85	8
75	75	9
67	85	4
129	129	7
77	131	3
103	124	7
128	139	2
113	113	4
84	84	13
61	63	4
159	189	1
161	162	2
54	55	9
46	46	3
24	24	9
90	92	2
24	26	3
29	74	4
19	19	3
83	84	3
17	48	3
41	48	4
123	123	15
167	174	2
44	55	1
98	99	4
1	101	1
141	141	10
47	47	11
13	66	1
20	23	1
130	131	1
11	62	7
58	61	9
140	141	4
59	61	4
139	139	18
177	177	5
98	98	12
152	152	8
54	76	5
144	146	2
161	161	3
165	177	4
140	140	12
124	125	3
44	47	1
122	122	10
157	176	1
90	90	7
74	75	6
24	25	5
153	167	3
28	28	10
41	41	8
162	179	2
92	110	2
123	174	3
188	188	9
93	93	15
153	154	4
3	3	9
169	169	17
7	7	2
139	173	3
20	21	5
17	20	3
27	29	2
32	75	2
120	120	4
63	63	12
27	27	9
97	97	2
178	178	6
37	37	7
174	176	3
100	119	3
26	27	1
33	33	3
25	25	14
110	112	3
154	154	13
42	49	2
89	89	3
108	108	3
85	85	5
182	182	6
166	167	8
10	14	2
55	103	4
103	103	12
100	101	2
10	11	4
101	102	2
176	185	5
183	189	3
145	146	1
187	187	3
166	177	3
149	150	3
89	91	4
14	33	3
122	123	5
34	34	5
2	3	1
65	113	1
65	67	1
121	121	1
4	4	11
139	146	1
14	15	3
115	117	2
167	168	4
138	138	6
96	97	6
79	81	2
121	122	4
53	54	2
26	73	2
145	145	7
175	180	6
167	167	6
110	143	3
104	104	10
18	18	13
78	80	5
88	88	6
10	10	10
163	163	1
177	190	4
48	83	1
72	82	1
12	14	1
159	159	5
68	68	5
153	153	8
167	170	1
33	35	5
87	88	4
151	151	2
59	59	2
56	56	2
36	36	7
134	135	2
156	156	12
55	56	6
58	59	3
17	43	2
81	81	3
45	46	2
129	138	2
33	34	4
95	96	3
106	144	1
60	99	3
141	142	4
133	171	1
13	21	1
116	119	2
93	94	3
69	71	1
6	6	8
141	144	2
126	126	9
162	166	2
152	153	4
64	106	1
5	5	12
129	141	5
115	116	1
102	102	3
108	114	1
38	39	2
68	90	1
82	83	2
86	105	2
21	21	2
53	65	3
158	158	2
100	100	2
178	180	5
37	126	1
141	168	5
148	148	11
111	112	4
174	175	3
166	175	2
32	33	2
1	1	6
131	132	10
19	26	1
107	109	1
173	175	1
158	161	3
81	83	1
154	157	2
60	62	6
106	124	1
23	24	2
48	72	2
116	137	1
5	21	1
27	28	2
112	132	4
101	126	2
92	107	1
59	60	3
55	64	3
54	54	3
57	64	2
25	42	1
94	107	2
52	56	2
157	158	2
172	172	5
132	133	4
132	132	7
39	126	2
150	154	1
13	161	5
128	131	1
67	67	5
152	185	1
180	186	5
165	172	1
53	56	2
138	139	3
3	65	3
97	99	4
175	176	9
12	12	8
89	102	3
55	55	3
68	71	2
148	157	3
137	138	8
146	148	1
12	18	7
11	56	4
128	128	2
3	67	4
135	135	4
64	66	2
38	38	3
160	167	2
128	133	2
42	42	4
116	128	3
55	62	1
140	142	1
186	187	4
28	61	1
38	47	2
79	80	2
170	173	2
110	110	4
31	66	1
94	95	2
178	184	1
105	107	2
140	154	4
33	75	1
188	189	1
11	22	2
40	40	3
106	108	2
176	176	7
68	69	2
136	137	1
168	172	4
177	182	1
186	186	2
173	174	6
112	112	3
44	45	3
123	124	1
156	159	1
144	144	1
43	43	1
45	45	6
146	170	2
87	87	5
159	168	1
13	14	4
85	91	4
145	165	3
159	169	3
120	121	3
145	180	1
129	130	1
55	59	1
0	66	1
131	133	2
55	57	1
189	189	6
8	39	2
35	48	3
25	36	2
113	117	1
162	162	5
29	29	3
79	93	1
28	31	3
54	72	1
183	184	2
166	166	6
57	66	1
154	166	1
31	34	2
23	27	3
32	76	1
43	47	3
12	61	1
128	129	2
84	87	1
140	146	1
93	109	3
7	20	1
38	74	3
162	170	2
42	45	1
9	9	4
76	102	2
32	32	4
32	36	2
66	67	2
136	136	1
0	6	3
104	114	2
9	10	1
190	190	4
158	162	1
69	70	3
112	113	1
139	141	3
118	137	1
85	88	1
23	26	2
127	175	2
167	169	1
75	116	1
187	188	2
35	35	5
67	109	1
67	83	1
65	65	6
111	119	3
75	76	3
165	165	2
112	131	2
34	68	3
83	104	2
106	111	1
31	33	1
22	72	2
8	25	2
130	137	1
149	171	4
130	174	1
4	6	1
71	95	1
58	131	2
96	99	2
24	29	3
26	26	1
56	68	1
39	40	2
182	183	2
60	64	1
23	29	1
136	139	1
115	128	1
30	36	1
47	59	2
156	162	1
15	92	2
47	61	1
113	116	2
71	74	2
102	105	1
12	21	1
5	8	1
40	98	2
167	179	2
171	172	1
5	18	1
126	127	2
52	64	1
60	81	1
105	134	1
162	163	1
0	113	6
18	27	2
43	48	1
78	79	1
81	84	2
158	176	1
145	148	1
13	114	1
146	147	2
9	14	2
90	91	1
78	91	1
2	67	2
53	64	1
91	94	1
108	111	3
119	122	2
28	159	1
100	108	2
28	29	1
36	46	2
134	145	2
53	61	1
176	177	1
17	21	1
117	117	1
12	15	2
52	52	4
129	139	2
80	83	1
53	125	1
116	140	2
130	138	1
25	43	1
181	185	1
13	45	1
187	189	1
57	81	2
66	69	1
70	95	1
146	184	2
72	73	2
44	62	1
112	130	2
27	34	1
91	92	1
37	41	1
58	130	2
136	138	1
146	146	1
106	114	1
70	70	1
125	143	1
189	190	2
134	144	1
70	101	1
18	21	1
16	74	1
80	81	1
29	123	1
102	103	1
127	136	1
113	119	1
25	37	1
182	186	1
64	124	1
165	178	1
16	21	1
60	133	1
26	29	1
135	137	1
