47	47	18
21	21	8
121	122	8
106	106	21
3	4	12
13	13	12
97	97	18
22	22	22
99	126	4
43	44	5
59	59	9
99	102	2
95	95	7
42	42	8
88	89	8
88	88	7
50	50	20
33	33	11
49	49	31
18	19	6
79	80	7
96	96	11
53	54	2
18	21	3
33	34	6
125	125	11
55	55	20
10	10	11
99	118	3
98	98	15
99	100	8
19	20	11
101	101	21
78	78	9
73	76	6
54	118	2
73	73	13
57	57	15
16	16	12
60	61	11
52	115	1
131	132	7
66	66	12
72	72	17
1	1	9
89	89	7
130	130	10
31	31	16
82	83	5
99	101	4
71	76	6
70	70	10
85	86	8
56	56	34
121	121	11
54	56	3
7	7	16
2	2	10
52	52	16
127	127	12
50	51	8
76	77	6
44	44	18
63	63	11
80	80	21
92	92	12
23	34	4
54	54	27
128	128	8
118	118	6
40	40	16
18	18	5
51	85	6
89	90	6
26	26	28
42	43	6
59	67	2
4	13	3
62	62	10
54	55	10
23	23	13
89	92	5
108	108	19
58	58	15
85	95	2
117	119	3
77	77	22
84	84	8
14	14	13
4	5	3
102	103	9
122	122	7
15	20	10
71	71	6
9	9	19
110	111	5
27	27	15
90	90	23
130	132	3
49	50	9
81	81	7
98	99	13
86	87	6
0	2	2
48	48	10
60	60	4
45	45	14
106	108	3
18	30	4
70	71	3
75	77	3
106	107	12
99	99	17
63	64	3
31	32	15
74	74	9
38	39	6
93	94	1
4	4	7
131	131	15
55	56	2
58	84	5
57	58	1
129	129	8
17	18	2
57	69	1
58	59	14
37	37	1
124	125	3
85	90	4
109	109	8
5	5	3
53	53	19
112	113	3
64	64	14
91	91	8
86	122	1
22	75	11
25	25	16
79	79	10
94	94	10
28	28	5
16	29	1
102	104	4
129	130	9
41	42	4
110	110	7
29	29	11
101	103	9
100	100	13
48	49	3
67	67	11
96	97	1
19	51	1
84	86	1
72	73	7
123	124	6
119	119	7
97	99	4
126	126	11
11	16	5
94	118	4
7	12	4
12	12	15
97	98	7
92	126	2
123	123	8
100	102	2
3	3	2
9	46	1
8	8	9
59	60	6
40	43	5
32	32	6
93	95	1
93	93	8
120	120	5
46	46	16
23	38	2
43	43	19
69	69	2
11	12	3
98	101	1
87	87	4
24	24	10
65	68	1
77	78	5
19	21	3
15	15	10
65	66	16
126	128	4
60	68	3
9	10	3
19	22	2
38	75	2
81	84	3
114	114	13
50	125	4
29	30	11
107	107	5
65	67	1
61	61	9
118	119	12
68	68	15
39	40	6
53	85	2
128	129	7
94	107	3
28	29	1
105	107	1
111	111	12
105	105	7
102	102	6
45	49	1
29	43	2
100	103	2
32	34	5
76	76	9
80	81	6
114	119	3
127	128	6
90	91	5
44	47	3
53	114	4
116	116	5
132	132	10
30	30	2
46	49	3
39	39	4
19	19	4
44	46	3
75	76	13
95	108	3
85	85	11
133	133	4
57	68	2
92	93	3
51	51	9
83	83	6
42	48	2
69	105	1
97	103	4
46	65	2
41	41	11
126	127	8
13	49	3
69	70	7
124	124	7
78	79	6
109	110	6
65	65	14
89	91	3
12	15	3
11	11	8
114	115	1
40	41	6
92	124	2
113	114	3
47	48	4
117	117	7
91	92	2
82	82	3
27	29	1
92	99	3
130	131	1
115	116	2
96	101	1
112	112	7
71	80	2
105	106	11
22	23	2
51	117	1
103	103	6
111	116	2
75	75	2
28	44	2
113	113	2
111	114	3
15	39	2
43	48	3
44	45	2
61	78	2
34	34	3
16	18	2
51	52	3
125	131	1
17	17	8
27	40	2
45	47	1
31	33	3
69	76	2
87	89	1
86	86	4
16	17	4
7	8	1
122	123	1
12	17	3
56	58	1
52	56	1
58	68	1
53	72	1
37	40	1
46	47	4
38	38	7
104	105	3
19	24	2
68	77	5
111	112	1
40	59	1
6	6	4
117	120	2
83	86	1
67	68	3
95	96	2
68	69	3
82	103	1
85	89	2
24	75	1
8	9	1
49	65	3
54	69	5
63	66	2
38	41	1
45	64	1
62	74	2
29	33	1
71	81	3
72	75	1
116	117	2
15	16	3
33	42	1
12	13	1
20	21	6
83	88	1
34	38	3
111	113	2
62	68	3
125	128	2
72	91	2
59	61	3
53	56	2
20	29	2
114	116	2
88	93	1
14	15	5
25	30	1
105	110	1
85	87	3
23	24	2
21	84	4
11	21	2
63	78	2
19	26	2
92	95	2
56	57	1
107	108	1
98	108	3
103	108	1
115	117	1
3	13	1
113	118	1
77	80	1
115	115	2
63	68	2
108	109	4
75	78	1
34	40	1
33	40	3
26	51	1
85	111	1
125	127	2
80	107	2
52	53	2
45	46	1
30	31	1
96	102	3
5	7	2
2	3	2
51	116	1
0	0	2
1	2	1
60	77	2
79	81	2
21	40	1
97	100	2
50	69	1
83	89	1
71	73	1
51	55	1
53	86	2
47	49	1
21	22	1
11	38	2
61	62	3
28	41	1
15	26	2
110	112	1
76	79	1
4	7	1
13	14	2
86	88	1
107	118	1
97	107	1
40	56	1
107	111	1
12	18	1
72	79	1
40	72	1
