115	116	1
33	33	3
51	52	4
127	127	5
106	106	2
86	87	2
111	112	6
19	20	12
57	68	3
55	55	9
50	51	10
107	107	4
153	154	4
150	153	1
50	50	4
135	136	6
37	37	6
5	5	11
14	16	1
137	138	4
83	91	1
138	139	4
100	130	2
21	34	1
117	117	13
43	43	5
80	80	3
20	33	1
19	19	9
14	15	5
62	62	13
3	129	2
105	105	10
117	122	2
82	122	3
98	99	6
7	8	6
123	124	1
97	98	3
76	80	3
72	72	5
66	95	2
131	133	2
64	91	3
30	30	4
143	144	2
123	123	11
19	96	6
53	54	5
148	149	1
155	155	3
21	21	6
52	53	6
2	2	5
83	144	1
86	86	7
45	45	5
92	92	8
108	112	5
11	16	2
153	153	4
114	118	1
71	89	1
72	85	1
38	38	5
147	147	2
144	146	3
23	23	11
91	150	4
7	10	3
94	95	5
158	158	5
1	2	5
23	24	3
10	11	2
101	101	4
110	110	3
140	140	6
119	120	1
121	121	3
44	45	3
154	154	11
136	137	3
136	136	5
124	126	3
104	118	2
96	96	7
94	94	8
22	22	7
133	133	4
70	70	5
130	130	8
49	49	10
97	150	1
75	77	1
82	82	3
77	77	12
135	142	5
76	77	2
14	118	1
13	14	2
1	1	5
21	43	6
96	97	1
104	104	9
154	155	5
91	99	3
150	150	4
128	128	12
107	147	1
13	126	5
118	118	2
144	145	4
66	67	2
66	66	6
77	97	3
74	74	1
18	19	2
115	115	1
146	153	3
67	70	4
144	144	4
122	122	5
36	36	12
122	123	6
98	98	5
15	21	1
15	15	6
146	147	5
125	126	8
88	89	3
11	11	10
26	26	7
57	62	2
134	134	5
66	128	1
84	84	2
48	50	3
103	119	2
68	68	2
124	124	4
148	148	5
50	52	5
11	40	1
27	27	5
56	56	3
150	151	1
73	73	5
114	114	4
89	146	1
145	147	3
16	16	3
69	69	3
78	78	2
79	79	9
135	135	6
10	10	2
91	91	5
87	87	2
131	131	5
132	132	6
26	132	3
87	88	6
24	24	3
112	115	1
79	155	2
152	153	2
97	108	3
53	53	4
113	115	2
31	33	6
158	159	3
18	18	3
152	154	7
3	4	11
8	8	2
155	156	3
71	96	3
6	7	2
62	156	2
78	79	4
22	123	2
16	55	2
11	12	1
71	71	7
3	25	4
67	93	1
91	92	1
75	75	7
155	157	9
9	12	1
142	147	2
109	110	1
93	93	5
83	148	1
116	149	1
14	14	4
13	125	3
52	52	4
127	128	2
116	117	2
149	149	11
156	156	4
151	158	1
42	42	3
48	48	6
80	81	3
53	143	4
25	27	3
132	133	2
40	41	6
81	82	3
72	77	1
106	107	6
151	151	8
109	109	4
123	128	1
70	97	2
83	121	1
111	111	4
102	104	6
4	5	2
69	134	2
100	101	1
7	7	6
129	130	2
28	28	9
152	152	6
33	34	3
145	146	4
13	16	1
94	134	2
125	125	6
70	71	4
6	6	1
105	113	2
8	10	4
145	145	1
99	100	4
44	44	11
136	139	2
87	110	2
108	108	1
133	142	2
68	69	2
95	131	1
103	155	3
146	146	1
22	23	1
39	45	2
30	32	4
39	39	4
42	43	5
89	112	1
129	129	6
138	138	2
20	20	11
118	119	6
116	116	1
46	46	1
2	4	2
35	49	1
23	132	1
9	9	2
137	140	1
11	34	2
24	96	3
86	119	2
49	52	2
56	147	2
102	103	2
41	41	3
119	119	3
51	51	5
112	113	1
32	32	5
89	89	3
157	157	1
15	20	1
87	96	1
41	48	2
48	52	2
90	91	3
120	120	4
132	134	2
21	22	3
81	81	5
65	95	1
11	36	1
29	29	5
131	144	1
112	112	3
9	33	1
150	158	3
12	12	3
94	96	3
83	83	1
91	156	1
117	120	3
84	85	2
15	34	1
106	109	5
86	141	4
96	134	1
103	103	4
139	139	4
141	141	4
27	29	1
99	99	4
24	33	2
112	118	1
34	34	6
109	111	4
40	40	6
38	39	1
47	50	2
71	153	2
20	21	2
0	0	3
18	136	2
45	47	1
66	100	1
21	50	2
68	70	2
67	69	1
144	152	2
47	48	1
54	56	1
21	48	2
7	9	1
36	39	2
13	13	2
69	141	1
52	54	5
67	68	2
151	156	1
85	112	2
35	36	2
88	118	1
47	51	1
22	132	1
10	13	1
90	92	1
79	82	1
4	129	1
142	142	1
126	131	3
142	146	1
96	98	1
57	57	2
135	138	1
90	153	3
69	71	3
88	110	2
153	155	2
31	31	2
44	72	1
95	137	2
71	112	1
30	31	1
9	10	1
110	111	1
103	107	1
17	17	2
93	94	1
20	131	1
111	119	1
54	55	2
37	42	2
137	137	2
66	72	2
130	131	2
23	33	2
126	126	1
84	87	1
36	37	2
34	36	1
70	123	1
100	100	3
91	153	1
54	54	2
42	49	2
15	104	1
55	56	2
131	135	3
153	156	1
133	134	1
21	119	3
145	152	1
149	150	1
135	139	1
108	111	1
143	143	1
37	38	1
14	104	1
28	29	1
134	136	1
151	152	2
47	47	1
83	84	1
117	152	1
57	83	1
113	120	2
55	65	1
103	118	1
79	81	2
85	119	1
46	123	1
87	135	1
4	4	1
84	86	1
124	125	2
150	157	1
3	108	1
86	95	1
8	24	1
17	18	1
17	38	1
117	118	1
112	119	1
26	32	1
80	155	1
63	63	1
53	146	1
77	78	1
