57	57	15
51	52	7
82	112	5
45	110	2
91	91	5
68	69	2
60	60	1
64	64	4
75	75	8
89	89	7
110	110	2
48	48	3
93	93	14
85	97	4
70	70	7
56	70	2
107	108	1
44	44	4
83	84	2
75	76	9
87	87	1
31	32	2
74	74	7
95	95	2
66	66	4
54	54	3
92	92	5
57	59	2
107	107	4
26	45	4
103	103	10
98	101	2
40	41	2
88	89	7
62	62	7
32	32	2
75	85	1
88	95	2
70	98	2
98	98	2
39	43	1
38	41	4
76	78	5
58	80	4
101	102	2
65	90	2
75	99	5
24	35	1
45	45	11
57	65	3
58	58	12
78	98	5
59	59	1
52	52	10
51	64	6
78	78	4
81	84	1
106	106	8
34	34	4
109	109	4
71	71	5
49	50	3
96	96	8
82	82	9
90	90	3
49	49	8
99	99	9
56	58	2
93	102	1
26	28	2
114	114	6
26	27	2
37	37	6
55	55	3
109	111	4
64	65	2
80	106	3
110	112	2
74	75	2
28	33	1
81	105	2
85	107	3
56	57	5
69	69	4
30	30	3
46	68	3
89	90	4
35	35	4
89	95	6
83	83	4
42	42	7
80	80	3
95	96	3
93	107	3
105	105	3
77	97	2
56	56	1
67	68	3
76	79	3
62	64	2
50	51	1
38	38	3
104	104	3
71	75	2
27	28	2
100	101	4
77	77	3
58	84	3
67	67	3
40	40	2
58	73	2
78	79	1
72	78	2
46	51	2
112	113	2
87	89	5
66	67	3
106	108	2
19	19	2
41	41	2
50	50	4
90	105	1
84	84	2
22	22	4
51	51	3
24	28	2
27	40	3
95	100	2
47	48	1
28	36	1
48	49	2
76	76	1
105	108	1
90	91	1
46	46	1
108	108	3
67	69	1
111	111	6
73	73	5
82	99	3
104	107	2
68	76	2
71	98	2
24	24	2
100	100	1
102	102	1
34	35	1
72	76	4
57	58	3
67	70	1
78	104	1
59	95	1
96	103	1
40	96	1
29	29	2
53	53	1
101	101	1
26	26	2
75	101	2
105	107	3
113	113	1
36	36	3
90	103	1
39	42	3
47	47	2
29	33	3
39	39	2
53	105	2
73	94	3
91	92	1
77	98	2
68	68	1
25	34	1
69	70	1
60	95	1
94	102	1
99	100	1
94	105	1
59	61	1
81	81	1
57	61	1
31	31	2
43	43	1
81	106	1
67	90	1
87	110	2
59	97	1
102	105	1
47	71	1
