79	79	4
31	32	2
15	15	13
61	61	12
32	33	5
40	61	4
10	19	2
52	72	5
8	16	3
63	63	13
78	78	12
4	4	26
0	0	10
11	11	12
8	8	7
21	21	4
28	28	9
71	71	4
46	46	14
36	46	1
41	41	22
80	80	7
55	55	13
48	49	1
20	20	3
65	65	9
11	13	5
68	68	9
19	19	8
53	53	8
7	8	2
54	54	15
45	45	9
31	72	3
3	3	3
0	20	1
13	14	15
2	5	1
31	31	7
76	76	12
56	57	4
66	66	6
3	4	4
53	77	3
62	62	6
20	64	4
5	5	5
36	36	4
59	59	10
11	14	2
74	74	8
38	41	3
35	35	3
34	34	2
49	49	5
33	33	5
62	63	1
6	6	7
30	31	3
27	28	3
42	42	13
9	9	12
1	1	9
28	29	2
33	63	1
13	13	8
49	52	2
53	54	2
52	52	7
60	61	5
37	37	7
3	80	2
67	67	18
29	29	7
49	53	2
32	32	14
35	66	3
57	57	8
75	75	7
73	73	8
26	62	3
51	69	2
64	69	1
51	52	2
37	38	4
17	17	6
60	60	7
69	69	8
55	72	7
19	79	3
64	64	3
57	58	1
58	58	3
32	49	5
30	30	13
75	77	1
6	16	2
47	47	3
26	26	10
36	62	3
39	39	6
54	64	1
38	38	18
52	69	5
53	62	1
16	16	2
15	71	2
27	27	5
72	73	2
2	2	9
64	65	3
36	37	3
78	79	2
18	37	1
44	44	3
67	68	10
66	77	1
45	73	1
13	68	1
20	46	3
9	16	1
40	41	1
1	79	2
12	12	2
33	49	1
72	72	7
5	16	1
72	75	1
14	71	2
32	53	2
54	55	3
54	65	3
31	51	2
41	47	3
63	64	2
56	61	1
76	77	4
11	50	1
51	51	6
18	18	4
34	39	2
48	48	2
3	6	2
25	25	1
49	56	1
74	75	2
6	7	4
80	81	2
0	31	2
4	5	2
0	8	1
70	70	5
36	65	4
66	67	1
9	70	2
2	16	1
64	67	2
56	56	5
36	60	2
11	21	1
50	50	6
61	62	2
77	77	9
5	6	2
29	53	2
81	81	1
70	71	1
54	63	3
53	76	2
2	7	1
31	33	1
8	12	2
30	81	3
21	31	2
8	9	3
37	60	1
35	47	2
10	71	4
14	14	3
10	33	1
46	47	2
20	63	1
49	80	2
13	21	2
1	63	1
29	30	2
27	29	2
1	47	1
8	72	2
40	40	2
31	53	2
10	14	1
25	62	1
38	39	1
16	73	2
15	20	1
63	69	2
75	76	1
33	68	2
73	74	1
47	54	1
7	7	1
31	75	1
74	77	1
43	43	1
13	15	1
9	15	1
41	46	1
