84	109	6
117	117	3
127	142	3
127	127	3
138	138	4
140	140	2
73	74	6
3	3	1
145	147	2
153	153	2
63	69	1
10	11	3
72	110	4
72	72	4
31	31	7
132	132	1
132	138	5
75	110	2
67	69	3
82	86	3
108	108	2
94	95	2
95	97	5
6	6	3
53	53	14
21	22	3
66	112	3
102	109	3
145	145	4
44	46	1
54	63	1
17	17	6
138	148	1
26	26	3
63	64	4
22	23	3
83	85	3
138	144	1
43	44	3
25	52	1
26	43	3
39	39	9
122	123	7
33	96	1
107	107	3
48	77	2
136	136	3
6	9	4
130	138	4
90	93	4
83	83	3
139	148	2
109	109	3
38	38	5
44	44	3
104	104	4
36	36	4
111	112	4
152	152	2
68	68	2
131	131	6
93	94	4
20	20	2
105	105	2
11	34	1
76	106	2
22	22	3
25	25	5
86	94	2
74	84	3
14	78	2
35	35	9
34	34	1
113	134	2
70	70	12
137	139	4
3	26	2
73	73	4
76	76	3
67	68	1
102	103	2
11	32	1
143	144	3
135	135	1
145	146	2
93	99	3
106	106	4
43	46	1
14	61	2
34	37	2
132	140	3
16	16	5
33	94	2
5	6	2
15	16	3
19	19	4
14	14	2
118	131	3
30	30	2
37	38	2
82	94	2
28	28	6
5	7	1
114	116	2
94	98	4
67	67	1
56	56	5
128	128	2
33	53	1
150	150	2
61	61	2
79	79	2
64	64	1
83	86	2
108	110	2
23	63	2
114	114	5
4	4	5
91	97	3
77	113	2
120	136	1
149	149	5
81	97	3
94	94	3
64	68	4
40	54	1
99	99	4
77	99	4
104	113	10
58	64	1
57	57	6
24	24	6
8	42	2
53	153	3
122	122	4
18	19	1
66	66	4
151	152	1
69	69	2
46	46	1
49	50	3
82	87	1
64	66	2
5	5	4
5	32	3
43	45	3
42	43	1
137	137	1
17	118	1
110	110	4
66	68	2
20	21	1
25	42	2
50	50	3
10	29	1
37	37	3
42	42	7
95	95	1
51	51	5
24	25	1
81	82	3
13	13	6
64	69	1
82	82	3
80	81	2
126	127	1
97	97	2
8	9	4
144	144	4
25	30	3
80	80	2
86	86	2
91	92	1
43	43	6
32	92	4
17	70	1
40	53	1
75	75	3
32	33	2
102	102	1
11	11	1
12	12	1
65	75	2
119	119	5
68	69	5
77	119	3
19	118	4
4	26	1
31	36	1
84	110	2
15	28	2
45	46	1
8	20	2
62	62	3
28	30	1
148	150	2
41	41	3
118	118	2
29	29	2
25	26	3
41	64	2
49	56	1
147	147	2
148	148	1
19	25	1
121	126	1
45	48	2
90	90	1
83	125	3
72	79	2
32	32	5
72	73	1
115	116	1
32	37	1
66	67	1
20	22	1
66	78	2
77	80	5
75	76	2
40	41	2
23	23	1
74	79	3
9	9	4
76	104	1
84	121	1
38	69	3
139	139	1
65	65	1
95	98	1
26	28	1
31	32	1
98	98	1
142	142	1
92	94	1
110	113	2
51	56	1
27	29	2
47	47	2
111	111	3
21	21	2
80	94	1
116	117	1
23	70	2
127	128	1
94	97	1
106	135	1
16	18	1
134	134	1
137	148	1
93	93	1
86	93	1
96	96	1
46	47	1
24	53	1
15	24	1
87	87	2
98	99	1
126	137	1
84	85	1
101	124	1
10	30	1
71	79	1
71	71	1
147	148	1
36	37	1
41	42	1
69	70	1
