27	28	16
22	23	6
102	103	4
64	64	11
22	22	13
40	45	3
47	47	8
104	104	8
79	80	7
40	41	5
29	29	7
40	42	3
101	101	9
26	26	9
31	31	6
105	110	2
20	20	7
113	113	12
27	27	7
67	77	1
80	82	1
76	76	10
92	93	3
54	54	3
62	63	1
42	43	4
39	39	8
24	24	6
111	111	7
66	66	6
89	89	10
88	88	8
83	83	5
75	75	6
73	74	3
44	44	11
97	99	1
46	46	11
100	100	10
102	102	9
79	97	2
86	86	3
53	53	6
109	110	5
41	44	1
48	59	4
67	81	6
95	95	6
30	31	7
73	73	13
76	105	1
82	82	3
70	70	11
103	103	1
82	84	2
99	112	2
58	59	2
48	49	2
50	51	3
96	96	7
34	34	16
103	104	1
98	99	1
106	106	1
67	68	2
81	94	3
30	30	2
94	94	6
50	50	11
44	92	1
61	61	5
77	105	4
110	110	4
19	19	4
51	52	3
112	112	3
84	84	9
58	74	1
77	77	7
92	92	5
21	22	2
80	80	5
28	28	2
33	34	3
74	74	10
69	70	2
21	21	7
26	27	2
105	106	4
59	60	5
87	87	2
93	94	5
49	51	3
36	36	7
33	33	7
19	20	5
40	40	6
37	37	6
36	37	2
52	52	3
107	107	4
80	84	1
73	75	4
51	51	5
108	108	7
55	61	7
95	97	1
26	32	1
55	55	4
91	91	5
90	91	5
48	48	7
56	56	2
52	53	5
94	95	1
35	36	1
101	111	1
97	98	2
45	47	1
49	49	6
86	87	3
49	50	1
33	36	2
33	40	2
76	78	2
87	89	2
97	97	5
20	21	4
41	42	1
25	25	2
46	48	1
70	73	4
68	69	5
75	77	2
69	69	2
98	98	2
42	42	1
104	108	3
104	110	1
39	40	2
105	109	1
72	72	2
26	36	3
108	109	1
93	93	3
79	100	1
45	45	7
53	54	1
110	112	2
61	64	2
97	101	2
110	111	1
43	44	2
30	50	1
99	101	4
34	35	3
95	96	1
47	50	2
37	38	2
78	78	4
44	45	1
73	76	1
101	110	1
81	82	1
58	58	2
85	93	2
31	32	3
88	89	2
38	39	1
81	81	2
65	66	1
35	35	2
35	37	1
54	57	1
56	58	1
100	101	3
75	76	3
23	23	3
62	62	1
67	67	1
109	109	1
96	97	6
25	26	2
113	114	3
29	30	2
19	21	1
74	76	1
74	75	1
65	65	1
32	32	4
61	62	1
102	109	1
91	92	1
43	43	1
73	77	1
67	70	1
56	57	1
68	68	1
84	96	1
57	58	1
106	107	1
45	46	1
41	43	1
80	81	1
52	56	1
