87	98	2
75	75	20
98	98	6
53	79	8
52	52	6
36	71	3
59	76	2
73	73	13
44	45	2
48	48	7
47	48	2
70	70	12
93	94	3
26	28	2
63	64	7
90	91	10
50	50	13
39	40	3
94	96	5
51	51	13
42	42	21
54	86	3
61	62	8
90	93	3
76	76	10
94	95	4
78	78	13
68	68	8
51	55	2
59	59	11
81	83	3
57	58	6
35	35	16
64	64	12
93	93	15
57	57	11
81	81	8
47	47	9
100	100	20
86	86	6
64	65	8
58	58	4
89	89	20
81	99	1
79	84	2
67	67	12
80	81	6
76	78	3
72	72	11
56	56	6
46	46	14
48	49	3
88	88	6
62	63	3
84	84	9
87	89	3
56	57	3
92	92	19
40	40	3
91	91	7
72	73	4
54	79	4
25	26	5
86	89	1
61	61	14
29	29	6
95	97	3
42	43	7
68	69	5
96	99	5
54	54	10
48	77	1
85	85	10
69	72	2
67	68	3
63	63	30
61	78	1
50	64	2
31	31	4
76	77	1
34	35	3
51	52	2
85	88	4
24	26	1
75	76	6
45	45	10
48	59	1
60	61	8
37	37	1
93	96	1
77	77	4
24	25	1
83	83	8
49	51	2
38	38	6
99	101	1
60	60	6
35	36	4
74	74	4
36	36	2
34	49	3
80	80	5
79	83	3
87	87	8
79	79	3
55	55	8
91	92	2
51	60	1
81	100	3
101	101	7
79	81	2
41	41	6
43	44	1
96	96	2
65	65	2
78	79	2
34	34	2
27	28	1
38	39	3
71	71	7
33	76	1
84	86	2
48	62	2
86	88	3
27	27	2
41	62	1
53	53	4
28	28	2
56	58	1
100	101	2
30	30	1
99	99	5
31	44	2
56	85	3
89	91	2
59	67	2
94	94	2
40	42	1
86	87	3
36	37	1
45	46	1
49	49	1
35	47	4
56	62	2
33	33	2
44	44	3
26	27	1
33	46	1
22	22	1
37	38	1
66	66	5
88	101	1
64	67	1
55	84	1
69	70	1
60	68	2
55	56	2
98	99	1
43	43	3
20	20	2
33	78	1
96	97	2
79	80	4
55	86	1
62	62	7
61	101	1
90	90	1
92	93	4
92	94	1
52	79	1
69	69	1
55	57	1
54	55	1
50	51	1
34	40	1
37	89	3
51	58	1
90	101	1
25	27	1
62	76	1
89	90	3
85	87	1
65	66	1
23	23	1
61	64	2
98	101	1
53	54	2
40	41	1
73	74	1
39	39	3
46	47	1
34	47	1
41	42	1
44	72	1
