126	127	9
131	131	13
64	64	5
112	114	2
20	20	29
6	6	21
50	50	13
19	19	24
71	71	17
21	23	2
53	53	32
89	89	20
55	56	2
103	103	10
21	21	18
102	103	13
24	24	8
122	122	42
26	26	32
131	132	2
47	47	23
126	129	7
91	91	16
85	86	9
0	0	17
114	114	19
34	34	6
79	80	4
23	23	6
85	87	3
4	4	13
76	76	15
110	110	17
88	88	18
99	99	8
106	107	5
92	92	17
23	24	6
81	81	4
9	9	13
130	130	6
52	53	14
109	109	17
8	8	3
44	45	11
55	80	8
95	96	4
63	69	4
15	15	20
46	46	21
82	82	4
61	61	11
3	3	18
62	62	7
6	69	2
28	29	2
65	66	10
46	47	4
66	66	13
57	57	21
97	98	10
51	51	15
119	119	19
79	79	5
106	130	3
99	100	5
120	120	24
90	90	18
53	112	2
49	49	18
31	31	19
102	117	2
121	122	2
7	7	13
8	9	1
44	86	1
97	119	1
90	124	4
112	112	23
108	127	1
77	77	13
59	87	4
86	86	12
55	55	13
101	101	10
85	85	16
77	78	5
19	20	11
60	62	4
124	124	30
38	39	7
16	34	3
16	16	8
107	109	3
54	54	15
73	73	5
66	67	2
100	100	12
96	98	7
12	13	1
0	89	2
58	112	5
120	130	4
107	107	12
97	97	6
98	99	2
72	75	4
68	68	7
25	25	8
43	44	3
80	81	6
11	11	7
56	56	14
83	83	18
127	127	10
3	4	3
105	105	13
115	118	2
16	17	8
70	70	24
11	77	5
0	3	2
62	63	10
111	111	6
53	57	8
17	17	11
13	13	18
121	121	19
57	111	3
56	122	6
68	69	5
30	30	7
5	5	13
133	133	13
32	33	2
72	72	4
87	88	2
46	104	1
67	67	9
80	96	4
42	42	4
23	30	4
113	113	12
81	82	3
117	117	7
12	31	5
61	62	3
94	94	12
57	76	4
14	15	8
105	110	2
60	60	6
116	116	19
59	59	9
44	83	3
12	12	25
44	44	10
49	50	4
58	59	7
20	21	6
44	63	2
117	118	5
115	115	11
123	123	15
105	109	3
78	78	7
50	51	5
93	93	8
112	120	2
129	129	12
13	14	4
95	95	6
49	105	1
63	63	18
83	88	4
41	41	5
52	52	21
117	119	5
48	48	17
118	118	15
32	34	3
39	40	4
55	113	1
120	132	6
74	74	4
2	2	11
92	93	5
4	16	1
43	43	7
69	69	21
45	45	5
98	98	11
73	74	4
73	91	4
75	75	12
94	95	3
28	28	5
40	40	6
127	128	3
80	80	12
118	128	3
1	1	17
102	102	9
53	54	3
114	119	4
80	83	5
101	119	2
129	131	1
21	22	8
57	58	2
60	61	7
47	105	1
125	125	15
78	84	5
0	53	2
77	79	1
128	129	5
10	20	3
115	117	4
29	29	10
4	11	3
112	113	3
128	130	3
108	108	6
64	91	3
27	27	10
105	130	2
43	73	1
65	65	7
51	58	2
114	115	5
78	82	2
39	39	13
58	58	9
59	60	3
4	5	3
13	24	3
18	18	9
14	14	14
40	82	1
100	108	1
113	117	2
125	126	2
118	130	1
116	117	4
128	128	15
130	131	4
83	84	4
45	46	4
43	108	2
87	96	1
33	33	8
30	31	1
22	23	7
10	10	19
92	120	1
6	15	5
5	28	1
40	95	1
126	126	8
6	18	1
109	110	9
104	104	9
1	20	1
16	19	2
74	75	2
0	1	5
62	97	4
40	70	2
124	125	3
101	125	3
2	6	3
17	50	1
95	97	1
47	48	5
104	127	3
12	49	2
70	71	5
126	128	4
23	26	3
32	32	11
29	30	2
31	58	1
29	65	1
24	30	2
96	96	9
67	68	3
102	106	1
52	54	2
125	128	1
17	111	1
25	100	5
38	38	7
132	132	13
64	65	1
69	113	1
109	111	4
34	39	4
57	60	2
103	130	6
57	92	2
96	101	4
79	81	2
86	87	7
13	33	2
110	120	1
125	127	2
56	118	2
37	38	3
22	34	1
110	124	2
109	132	1
3	22	4
33	34	1
25	33	3
103	104	2
90	92	4
104	105	1
58	117	1
43	70	1
99	109	2
120	121	7
99	126	1
129	130	9
84	84	3
10	11	1
40	41	2
101	115	1
4	6	1
32	49	6
44	71	5
102	118	1
99	131	4
106	117	2
42	43	5
97	100	1
9	10	1
54	57	1
64	74	1
17	18	2
106	106	3
64	69	1
22	22	2
0	8	1
59	61	4
14	23	1
113	131	1
46	89	3
76	77	4
17	25	5
58	85	3
84	85	3
117	131	1
65	68	2
13	19	2
32	59	1
43	55	2
20	57	1
0	17	1
78	81	2
18	19	4
87	87	2
98	131	2
62	114	1
80	124	2
11	13	1
15	16	3
26	55	2
104	109	1
65	118	1
103	126	3
84	86	3
113	114	3
19	75	2
56	57	2
117	130	1
15	22	3
6	11	1
44	103	1
42	74	1
112	124	1
108	109	1
23	25	2
23	72	2
56	120	3
119	133	1
12	51	3
75	76	2
9	25	1
127	129	1
31	112	2
72	85	4
5	73	3
7	8	3
50	52	4
110	111	2
88	89	1
91	98	2
14	21	2
65	114	1
11	28	1
81	97	1
83	85	2
56	133	2
22	25	1
42	70	1
51	56	2
1	83	2
49	52	1
10	76	2
28	105	1
114	118	2
50	77	1
65	74	1
55	63	1
102	104	1
5	6	1
19	21	1
78	79	1
46	57	1
105	107	1
59	63	1
4	17	1
30	78	1
59	98	1
82	84	1
4	18	2
59	62	1
78	80	1
11	20	1
77	86	1
69	114	1
3	11	1
111	120	1
99	113	1
19	33	1
58	132	1
118	119	2
43	68	1
96	97	1
51	90	1
117	132	1
20	51	1
45	82	1
110	133	1
18	22	2
107	108	1
14	72	1
24	25	1
59	85	2
1	2	1
122	123	1
19	57	2
103	129	1
41	72	1
47	52	1
53	123	1
64	68	1
27	30	1
104	126	1
93	94	2
11	48	1
39	112	1
108	110	1
58	60	1
34	97	1
