84	84	14
102	102	7
58	58	10
75	75	6
71	71	9
42	70	1
73	89	2
79	79	6
41	42	1
82	82	2
68	69	8
94	95	4
61	63	5
85	85	2
98	98	6
32	33	3
66	79	7
48	107	1
33	34	3
25	76	5
89	90	3
93	95	3
43	44	7
82	87	4
42	43	7
35	35	7
67	67	2
33	33	12
80	80	6
21	24	4
62	62	6
78	78	10
96	99	1
70	89	1
92	92	17
65	65	4
29	30	1
103	103	11
76	76	7
46	60	1
26	26	6
39	39	11
49	49	2
47	47	8
88	89	1
23	23	6
22	52	2
50	50	9
62	63	3
86	86	5
95	95	6
88	88	3
29	29	8
32	32	8
40	41	4
52	63	3
96	96	12
52	52	8
104	104	1
22	22	10
23	51	1
54	76	3
95	99	4
37	37	7
64	64	2
20	20	6
80	81	3
95	96	2
43	46	3
55	55	2
57	57	3
27	27	3
89	89	2
20	24	3
28	28	5
99	102	3
72	73	4
100	100	1
48	48	5
26	49	3
39	45	2
20	48	1
93	99	4
54	63	1
48	91	4
59	59	3
31	32	3
94	94	5
84	85	3
78	79	3
46	47	2
99	104	1
53	54	5
87	87	2
60	60	4
73	73	3
74	75	1
70	70	1
31	64	1
79	88	2
54	54	1
41	47	2
42	61	1
90	90	4
95	97	1
91	91	1
37	38	1
35	36	1
101	102	1
53	53	2
78	89	2
34	36	2
36	36	6
25	106	3
34	34	6
22	25	1
83	83	6
70	71	1
69	69	3
38	38	1
96	97	2
49	88	1
25	25	2
77	77	4
72	72	7
44	44	2
62	85	1
56	56	3
74	74	3
46	46	3
85	86	3
20	27	6
63	64	2
36	37	3
63	63	2
97	99	3
92	95	2
81	81	1
31	34	1
41	41	1
68	68	2
50	58	1
64	65	2
29	90	4
56	59	3
31	31	3
101	101	1
38	67	1
48	106	3
83	84	2
104	105	1
20	49	1
22	53	1
52	54	2
57	73	1
35	59	1
40	45	1
45	45	1
85	94	1
61	61	1
75	76	2
40	47	1
42	42	1
30	42	2
58	59	4
26	28	3
28	29	1
20	22	1
87	88	1
20	21	1
43	43	1
34	42	2
85	88	1
82	107	1
94	96	1
66	66	3
94	97	1
44	45	1
21	21	2
97	97	1
25	97	1
89	103	1
83	85	2
32	52	1
89	91	1
56	57	2
61	62	1
90	91	1
97	98	1
51	51	1
50	51	1
26	27	1
31	61	1
