137	137	14
135	135	12
186	186	18
70	71	2
0	0	18
27	27	24
184	184	21
150	151	8
128	128	17
110	115	4
168	168	20
18	163	1
159	159	14
48	122	4
11	12	3
35	35	11
41	41	34
191	191	13
88	88	8
153	154	3
99	100	4
141	141	11
65	65	5
122	122	12
64	70	3
82	85	1
167	170	2
146	146	14
145	146	4
9	10	10
83	84	6
152	178	5
163	164	12
48	49	3
123	123	7
136	137	8
132	132	14
148	155	3
167	167	32
44	52	4
162	162	3
145	145	9
166	167	11
171	178	4
1	1	12
14	14	18
134	134	12
164	164	13
151	152	3
173	174	4
148	148	24
40	40	8
156	158	8
11	11	13
152	152	6
48	129	4
49	49	15
149	149	18
191	192	2
8	8	13
55	55	19
155	155	23
48	48	24
190	190	31
195	195	14
17	24	6
46	46	23
90	94	5
118	118	6
19	19	6
24	24	17
138	147	2
43	43	25
100	101	4
188	188	18
179	180	10
183	184	12
189	189	6
7	173	2
181	182	3
185	185	18
130	131	4
138	138	16
147	147	16
31	31	13
74	74	3
182	182	20
177	178	13
2	2	7
127	127	21
18	28	3
47	47	15
178	178	13
130	130	10
25	26	5
36	36	19
16	17	6
95	96	2
52	52	22
15	16	8
152	189	2
32	32	7
14	15	7
10	10	20
124	124	9
13	14	3
21	21	13
157	157	10
115	115	6
11	30	8
111	111	8
17	17	9
28	29	4
114	114	13
163	163	11
71	72	1
149	150	7
196	197	6
117	118	4
7	8	6
187	188	5
144	144	3
61	65	3
34	34	16
108	108	5
16	27	8
36	59	2
67	67	9
193	194	10
154	155	12
165	165	24
97	97	6
68	68	8
129	129	10
39	39	19
86	159	3
134	135	5
119	120	2
13	13	11
184	185	5
106	106	4
136	136	13
124	125	7
138	139	6
85	85	13
150	150	6
50	50	25
174	175	5
131	131	17
103	103	8
99	99	4
139	140	7
102	102	7
142	154	4
120	120	15
9	9	13
140	140	20
28	34	1
174	174	9
82	82	13
188	189	2
5	5	13
116	116	4
72	72	4
46	55	1
16	16	14
50	51	2
3	101	3
34	35	6
106	107	8
103	105	3
170	171	5
86	86	6
52	53	9
170	170	15
132	145	6
58	59	1
33	33	26
105	106	7
37	37	11
100	100	11
151	151	20
172	172	25
158	158	8
112	133	3
181	181	10
169	169	14
80	80	3
160	169	3
142	143	7
51	52	5
61	61	1
177	177	25
3	3	19
166	166	7
4	24	1
182	183	2
101	102	5
179	179	10
104	105	7
171	171	15
160	160	20
31	124	6
0	1	7
153	153	5
104	106	11
104	104	13
140	141	2
59	59	7
96	97	1
78	79	3
46	48	3
28	28	8
133	152	4
42	42	32
175	176	11
189	190	2
71	71	4
132	133	8
155	156	9
2	3	8
101	101	4
27	28	7
78	83	5
110	133	2
113	113	3
155	164	5
80	83	2
15	15	22
7	18	5
24	25	4
112	112	20
33	34	3
187	187	11
185	186	6
107	108	3
25	25	6
45	47	7
43	44	3
196	196	9
23	23	18
27	30	4
121	121	24
114	137	2
66	66	2
186	188	5
183	183	12
96	116	4
81	82	3
10	13	6
52	59	4
55	56	3
120	122	2
140	142	3
176	177	6
51	191	3
143	143	8
29	70	1
84	84	7
54	54	20
159	160	3
94	94	7
117	117	7
31	32	4
44	44	13
11	31	2
122	127	3
135	150	1
119	119	5
79	79	6
12	12	18
32	33	8
101	103	2
180	181	10
180	180	5
69	69	3
15	17	1
114	115	10
41	130	2
8	59	4
116	118	3
4	4	8
134	137	3
156	156	11
0	79	3
154	156	1
123	124	1
109	109	6
45	45	14
105	105	7
56	56	17
173	173	15
89	89	3
78	78	11
1	20	3
22	22	5
169	170	5
87	115	1
126	126	22
49	50	8
54	81	5
57	57	11
63	63	3
160	171	2
154	154	1
107	141	2
36	37	4
5	163	1
139	139	10
176	176	11
20	20	6
39	45	3
133	133	13
170	172	2
46	112	4
40	42	4
101	114	3
70	70	3
48	170	2
23	171	2
129	177	4
12	13	10
6	6	6
127	128	4
129	132	6
183	185	1
35	36	3
160	181	3
55	71	2
64	65	2
44	45	3
177	179	1
77	77	6
152	153	6
29	30	6
20	25	2
4	6	4
186	187	1
142	142	7
85	99	2
118	146	4
7	7	7
169	174	2
192	192	10
107	107	6
54	55	10
158	191	3
126	127	5
80	84	3
194	194	18
95	95	2
23	25	4
41	42	2
84	100	4
103	104	2
132	139	2
6	26	1
83	85	6
190	193	1
38	38	9
33	100	2
157	158	7
15	43	1
171	195	3
125	127	2
8	72	2
4	5	10
63	67	2
83	100	2
83	87	2
82	86	1
155	158	1
58	58	15
168	173	3
26	26	12
87	87	6
158	159	1
18	18	17
17	121	3
180	182	4
61	64	1
62	62	1
192	193	14
110	110	10
135	147	4
139	143	1
47	122	2
72	121	4
38	39	1
114	129	1
154	158	2
12	31	2
33	36	4
185	187	1
11	44	3
0	2	4
156	182	3
29	29	4
173	180	2
161	161	13
39	40	4
167	189	2
16	22	3
38	40	3
40	41	1
0	9	2
37	38	5
135	139	1
56	57	3
197	197	8
108	150	1
97	100	3
181	192	2
189	194	1
117	131	2
93	94	3
193	193	15
29	32	1
3	17	2
42	43	4
61	62	2
121	124	3
149	155	1
139	145	3
26	27	3
163	165	5
173	175	3
82	84	4
37	44	1
150	152	5
17	44	3
99	107	2
174	176	5
119	196	1
152	158	2
65	68	1
79	80	1
94	99	1
142	146	2
53	53	7
135	137	3
73	73	8
29	41	4
111	119	1
131	132	3
30	30	6
50	53	3
187	189	1
156	157	1
30	37	1
84	85	3
130	179	6
5	17	1
119	123	3
105	115	1
58	68	3
151	177	2
113	114	3
165	166	2
28	30	1
111	114	2
67	69	2
166	181	1
104	108	3
184	188	1
47	48	3
157	159	3
128	129	1
124	150	3
171	173	1
6	9	1
19	25	6
7	34	3
135	136	2
168	194	2
81	81	2
17	20	2
46	47	2
23	44	1
66	67	1
179	181	1
53	55	1
117	138	1
45	46	2
134	140	2
174	181	5
194	195	1
57	72	3
148	152	1
99	184	2
14	149	2
176	178	2
119	122	1
31	185	1
27	56	3
86	87	3
115	140	1
51	51	1
14	125	4
20	22	2
132	153	2
80	82	1
161	179	2
47	120	2
5	52	1
1	31	4
8	9	1
88	89	2
97	98	2
89	118	1
160	170	2
60	61	1
64	67	1
126	130	1
74	75	1
89	117	3
98	112	1
116	137	4
17	25	2
9	14	1
46	51	1
5	8	2
77	78	6
109	110	3
160	161	1
15	33	1
22	135	1
115	116	1
168	189	1
153	180	1
62	68	2
184	195	1
38	41	1
64	68	2
5	6	1
177	193	2
107	120	1
22	79	3
30	31	2
6	181	2
166	180	3
148	165	1
34	72	1
168	169	1
159	182	1
126	172	2
75	76	3
147	152	1
3	4	1
121	122	2
109	118	2
4	10	2
17	18	1
168	174	1
17	163	1
117	119	2
125	126	1
59	76	3
186	191	1
195	196	1
30	120	2
141	142	1
72	133	1
148	162	1
98	98	2
148	187	1
52	127	3
106	147	2
19	20	1
191	193	2
35	37	1
167	168	2
111	112	1
75	75	2
110	111	1
93	93	1
108	119	1
8	18	2
77	79	2
34	38	1
31	37	1
146	176	2
151	163	1
41	68	1
112	116	1
78	95	2
9	11	1
59	68	2
119	155	1
101	181	1
125	125	1
36	38	1
24	27	1
1	3	1
130	171	1
172	179	1
51	53	1
173	176	1
7	21	1
162	166	1
128	133	1
27	39	1
13	43	1
185	190	1
