80	80	14
103	103	35
116	116	8
172	172	19
133	134	6
9	13	3
167	185	1
226	227	12
66	66	28
29	29	51
5	5	23
23	23	30
10	43	5
235	235	24
55	55	41
217	218	18
40	40	39
6	8	7
165	166	3
46	46	35
148	148	20
138	141	2
30	30	28
166	166	25
118	125	5
231	231	27
84	85	15
28	28	36
201	201	41
177	177	35
6	22	3
57	57	35
43	43	41
12	12	41
5	6	9
171	171	21
27	27	36
138	139	12
207	207	20
24	25	6
154	184	2
42	42	21
232	233	16
131	131	11
149	153	4
17	67	1
217	228	2
119	119	25
49	50	12
11	11	31
18	18	17
174	174	13
76	122	4
238	238	20
102	102	32
216	216	25
74	74	29
43	45	6
146	146	14
205	221	7
56	57	12
13	13	14
56	56	45
112	112	9
17	20	3
9	11	8
21	204	1
29	30	11
20	20	31
59	59	31
55	85	4
199	199	12
120	120	7
18	21	2
25	26	9
2	2	28
88	88	7
107	176	6
165	165	23
155	157	1
85	85	38
154	154	21
153	156	3
135	135	20
142	191	2
17	17	13
72	72	17
68	68	17
10	10	28
167	167	16
24	24	32
53	53	53
60	60	19
152	218	4
213	216	7
158	185	1
225	240	3
35	35	27
38	38	33
98	98	24
61	103	4
153	177	2
169	169	25
101	102	14
24	69	4
141	141	9
109	109	24
28	37	2
8	9	6
51	51	26
219	223	2
168	168	9
107	108	6
169	170	5
12	13	12
197	199	5
97	97	16
106	106	21
49	49	29
37	37	22
107	178	2
220	220	21
62	62	30
211	211	40
145	145	12
79	79	13
152	153	5
126	127	4
116	117	14
61	62	11
61	61	51
72	73	9
34	34	27
157	159	6
194	195	10
42	53	1
205	206	31
208	208	13
48	49	4
145	146	4
26	26	45
101	101	13
241	241	9
212	218	4
221	221	13
217	241	3
198	198	20
182	183	10
50	84	4
0	0	20
30	32	13
83	115	2
31	31	38
217	239	3
205	205	23
144	145	11
53	55	2
118	119	7
45	45	52
183	183	22
186	186	20
106	119	1
14	15	8
217	217	36
36	37	16
70	73	3
58	58	13
70	70	21
233	233	22
117	123	1
221	222	3
4	4	28
177	214	3
62	63	9
1	2	13
61	64	1
76	76	12
190	190	30
173	173	28
127	128	6
175	175	23
189	190	2
166	167	11
32	32	47
162	162	14
7	231	4
78	85	3
69	69	31
28	42	5
196	196	25
21	21	19
170	179	4
149	149	15
22	22	30
25	25	58
130	130	9
41	41	13
192	192	25
218	218	28
96	96	15
176	176	22
40	41	8
8	8	56
32	53	1
51	52	13
153	209	4
2	101	3
29	33	10
36	36	31
213	215	4
12	15	5
13	76	3
180	180	8
128	136	4
87	98	1
140	141	11
234	234	25
44	44	35
39	41	6
198	199	3
171	172	7
63	63	33
153	154	7
121	121	29
14	17	4
240	240	25
74	234	4
12	26	4
37	47	1
239	239	16
158	158	20
228	228	16
142	162	7
73	85	1
131	176	2
75	75	27
131	133	2
184	185	5
67	67	20
155	212	2
9	9	31
207	208	5
30	31	25
104	104	15
1	1	24
65	84	1
45	48	4
34	35	15
164	165	9
133	133	17
51	54	2
6	15	1
82	89	2
234	237	5
78	79	7
14	50	4
71	72	11
6	7	7
200	201	2
71	73	2
10	28	4
190	236	3
181	181	40
209	209	24
69	110	5
5	90	3
219	219	38
166	186	3
50	124	1
119	123	1
3	3	36
71	241	2
187	200	4
51	104	4
59	60	9
33	33	33
158	164	1
4	6	9
191	193	3
60	76	2
66	239	2
43	47	4
146	147	3
32	36	7
28	242	1
52	53	6
16	17	7
213	213	24
125	127	3
95	96	8
185	185	20
149	150	10
103	185	6
120	123	1
5	29	2
55	155	4
216	218	1
175	176	4
1	9	4
79	113	3
2	12	9
9	35	1
7	7	12
162	186	2
139	139	10
78	78	27
226	226	19
181	210	2
47	48	9
64	64	28
6	80	3
100	100	17
19	20	13
206	211	5
67	69	5
204	204	24
45	72	3
198	201	3
102	106	2
111	112	2
162	206	2
155	194	6
171	177	2
186	189	5
156	157	11
173	174	4
215	217	6
242	242	23
202	207	3
63	183	5
82	82	16
4	5	8
198	221	1
142	149	4
144	146	2
114	115	4
134	134	15
1	5	2
191	191	21
199	200	7
38	41	1
222	222	22
223	227	1
127	127	26
118	118	7
160	183	6
167	168	1
237	237	20
51	57	4
225	227	4
213	214	2
137	138	7
15	15	24
124	124	15
136	140	3
0	85	6
11	29	4
220	223	4
114	132	1
76	176	1
154	155	7
210	218	3
182	182	22
142	142	6
180	181	5
39	40	9
229	229	16
18	22	6
231	232	6
23	70	8
115	116	7
153	153	3
42	43	9
54	54	22
143	143	15
110	201	1
197	198	4
30	40	4
97	121	1
21	22	11
9	15	3
76	79	2
80	81	14
74	79	1
37	38	20
237	238	6
201	224	2
215	215	14
178	178	33
75	79	5
146	154	3
85	86	3
81	83	1
26	27	17
210	210	12
86	86	26
140	142	9
20	21	19
74	85	6
35	49	1
41	47	6
174	184	8
151	151	18
225	225	16
129	162	2
158	171	6
63	64	13
68	69	9
84	100	3
50	50	24
161	161	19
159	159	11
117	119	1
163	163	24
214	215	6
155	155	12
33	34	10
190	191	11
40	60	4
129	130	4
213	217	2
212	216	2
200	200	11
2	3	10
73	86	3
15	16	8
41	53	3
202	202	30
220	222	8
31	32	9
29	49	2
84	84	25
214	214	6
15	33	5
79	127	1
171	193	5
22	24	1
19	21	5
96	102	2
167	196	2
32	52	1
2	80	1
65	65	21
141	142	14
233	234	6
223	223	22
158	159	6
71	71	13
49	51	3
111	197	1
36	176	5
1	117	3
187	198	3
42	48	4
233	235	3
116	127	4
35	36	2
18	19	16
11	52	4
202	203	12
226	241	1
159	166	5
116	124	4
16	16	19
1	3	10
19	19	32
69	70	6
44	45	8
129	129	22
13	14	8
136	136	15
193	198	2
138	138	28
203	230	4
6	6	12
38	39	9
83	84	6
121	122	10
137	137	15
82	83	6
17	22	2
151	161	2
6	9	2
118	148	4
79	185	2
46	223	3
224	224	31
107	107	20
241	242	2
99	101	1
55	56	1
52	52	14
193	193	24
206	206	20
100	105	2
209	210	13
35	37	3
199	204	3
46	63	1
125	125	7
179	179	18
160	161	12
156	156	17
156	202	4
159	171	8
234	236	3
99	105	9
184	187	1
20	37	1
240	242	1
183	184	6
61	102	2
0	2	3
57	58	9
169	195	2
151	170	1
128	128	18
77	77	8
144	144	2
178	184	3
5	19	2
195	195	6
66	76	1
143	144	1
155	164	1
188	207	2
214	218	3
39	202	4
187	187	17
227	227	16
115	119	2
98	100	5
52	56	4
186	197	1
1	115	5
80	84	4
47	63	2
28	29	13
32	33	10
81	81	24
61	183	3
80	82	1
106	108	3
21	23	10
41	105	2
100	107	2
125	126	5
16	32	1
185	186	14
152	152	11
100	101	3
204	207	12
39	39	33
46	109	1
35	178	3
88	191	2
30	52	4
186	187	20
12	19	3
191	208	4
211	213	15
183	205	1
239	241	4
143	218	1
188	188	11
218	227	2
153	155	4
207	210	2
175	191	3
74	75	5
115	115	13
9	10	10
228	231	1
215	218	4
224	225	9
82	84	5
127	148	5
160	162	6
77	78	6
157	157	13
176	178	6
45	46	11
189	192	7
223	231	3
35	70	2
175	183	1
101	106	2
189	189	6
0	3	3
78	80	3
5	9	2
100	114	2
10	20	3
64	74	3
185	187	9
134	170	2
180	209	3
10	85	3
147	147	12
137	173	3
99	99	26
122	122	14
200	208	1
184	184	22
194	194	8
10	11	8
118	126	3
158	165	5
22	67	4
108	181	3
203	203	28
200	202	1
196	202	1
47	61	2
41	49	5
99	102	3
13	17	9
51	53	5
78	200	3
6	221	3
81	82	3
54	55	7
187	188	4
66	165	3
50	52	1
120	170	3
37	63	2
27	28	11
30	89	2
150	150	21
49	105	3
150	151	13
36	38	1
188	193	1
31	34	3
111	111	8
64	207	2
230	231	9
33	36	9
170	170	9
138	161	6
5	31	2
218	242	3
33	35	1
211	212	6
48	48	29
212	212	21
59	68	3
238	242	2
151	152	10
7	19	1
141	143	4
77	79	4
203	241	3
73	73	20
109	198	2
102	108	5
160	160	24
57	59	4
22	25	2
170	198	5
117	117	11
73	150	5
193	194	5
54	60	5
200	220	2
169	173	2
135	136	13
31	56	3
154	203	1
84	199	2
216	217	8
137	140	4
135	144	6
108	108	17
177	178	2
43	63	1
156	158	4
85	98	2
163	176	2
34	40	3
5	7	3
3	7	1
195	196	4
153	210	1
84	99	4
119	120	7
68	75	2
61	69	5
176	214	4
162	164	3
6	10	5
232	232	9
236	236	13
11	16	2
66	67	15
234	235	9
227	228	1
105	105	10
159	196	4
124	127	3
86	88	8
50	123	4
136	139	7
79	198	4
123	128	4
234	242	1
117	135	6
134	135	8
97	98	2
154	176	3
81	84	9
178	215	3
95	122	2
15	104	1
150	169	2
46	47	7
22	23	7
203	208	5
34	82	2
223	224	6
65	76	2
17	23	5
20	27	2
145	171	1
95	127	4
78	81	1
212	228	1
134	141	1
193	195	2
126	126	11
123	123	6
105	166	2
154	204	2
89	100	2
166	188	6
157	158	5
163	164	5
140	143	4
162	207	3
17	62	2
227	233	4
159	160	8
160	195	2
43	44	5
8	16	3
71	237	2
95	95	10
69	242	1
152	174	2
3	116	3
15	28	2
136	137	10
27	182	1
25	37	3
19	58	1
73	220	4
211	216	3
99	104	3
214	216	3
225	226	10
235	236	5
194	196	5
30	57	1
72	75	1
198	210	3
150	174	2
47	47	12
121	143	2
170	171	6
174	193	1
67	68	5
100	118	2
14	14	11
11	12	6
53	60	1
8	19	6
0	1	12
9	24	3
44	55	3
64	69	5
82	186	2
66	68	6
235	237	2
142	143	11
109	114	3
132	133	3
128	129	4
70	71	12
157	203	2
75	113	2
6	92	1
242	243	3
103	187	4
49	80	1
63	234	4
105	106	8
57	60	3
36	40	2
76	81	2
103	104	3
228	229	4
180	182	1
217	219	1
114	117	3
39	215	4
17	36	1
58	70	3
195	238	1
3	6	3
83	133	2
0	121	1
62	103	2
47	187	1
206	214	6
214	217	3
230	230	11
24	86	3
96	97	5
47	50	1
128	131	4
73	174	1
43	54	1
65	66	8
90	180	3
50	53	5
175	179	5
108	130	6
6	117	1
127	190	1
192	193	2
220	221	4
172	174	3
77	199	2
170	200	1
107	113	2
79	101	2
115	117	4
200	223	3
36	43	2
152	209	3
207	225	1
229	238	3
40	102	1
194	203	3
16	66	2
208	209	7
102	120	1
113	175	1
104	105	11
189	191	2
123	124	1
138	234	1
60	63	3
7	124	2
104	118	3
113	113	14
22	38	1
77	159	3
25	44	2
62	64	5
210	211	3
40	62	1
215	216	9
181	182	11
100	104	4
102	103	3
148	149	6
134	140	2
179	213	4
165	170	2
69	85	1
19	223	2
28	139	2
40	45	1
81	205	3
191	192	3
6	18	2
197	197	10
9	225	3
0	5	5
65	187	1
148	150	1
108	182	1
188	190	1
53	54	5
11	15	6
186	238	4
1	4	1
222	226	5
132	135	1
34	36	3
64	82	2
236	237	7
140	140	10
8	17	2
229	231	5
199	201	2
174	175	7
29	36	2
183	211	1
175	178	6
199	223	2
204	206	1
219	220	4
71	224	2
161	165	2
54	85	1
111	113	1
50	91	2
212	213	7
105	184	1
164	180	1
38	102	1
30	56	1
183	201	2
198	217	1
164	164	14
99	100	8
203	209	2
118	137	2
177	179	2
114	114	1
153	219	1
222	231	2
100	119	3
88	95	2
1	7	1
195	197	1
40	42	3
161	189	1
85	182	3
76	198	2
206	209	3
231	233	2
40	44	2
81	168	2
239	240	4
121	174	4
204	208	7
176	177	10
59	69	2
109	110	3
51	76	1
119	124	1
144	241	2
51	59	3
75	76	4
142	144	6
106	122	1
130	131	1
184	189	1
155	158	2
6	220	1
198	224	2
58	60	4
181	183	1
4	115	3
135	137	2
224	229	2
28	38	2
185	191	1
101	160	1
157	187	4
107	115	3
112	113	2
41	85	1
3	22	3
1	11	1
170	193	3
203	217	4
80	212	2
83	100	1
108	180	3
54	97	1
198	209	2
36	56	1
29	74	3
183	238	1
154	218	1
147	148	2
164	170	1
166	168	3
179	183	1
66	72	2
209	230	3
39	55	3
161	167	1
26	202	3
20	22	4
227	230	3
156	237	1
113	133	3
181	201	2
64	65	6
211	214	1
114	116	1
105	179	1
4	118	6
133	135	4
152	154	3
172	175	1
127	129	3
6	114	5
116	118	4
38	140	2
9	16	1
171	198	1
188	189	4
201	212	2
158	170	4
132	132	2
60	61	6
38	40	1
41	43	2
3	11	1
158	200	1
39	63	4
124	125	2
3	18	1
171	186	2
40	43	1
113	114	2
63	88	3
23	41	2
25	28	2
121	128	3
135	146	2
145	161	6
175	192	1
23	24	1
8	210	2
13	15	5
218	219	1
227	232	2
65	74	1
48	50	2
144	235	3
183	228	3
122	123	4
11	39	2
188	237	7
27	86	3
164	216	2
41	42	5
81	232	1
73	195	2
88	128	1
165	196	2
218	241	1
80	199	2
122	124	1
152	160	2
191	195	1
109	197	2
131	134	4
218	225	2
185	196	1
32	58	2
159	197	2
76	78	2
171	182	3
148	151	4
134	139	1
182	201	1
74	192	1
74	86	3
86	97	1
110	175	1
134	165	3
27	37	1
221	225	1
100	102	2
15	17	2
148	169	2
169	180	1
101	103	2
139	140	5
28	43	1
184	194	1
148	152	2
168	169	7
10	16	2
182	200	3
144	219	1
157	238	1
191	228	3
206	207	4
208	227	1
14	35	1
159	187	2
58	219	1
195	200	3
72	109	3
25	43	1
189	203	1
17	28	2
7	8	10
83	83	3
58	59	6
154	156	3
88	89	1
137	162	1
71	109	3
208	219	2
174	214	3
208	218	1
103	119	1
19	212	1
181	184	4
115	167	2
96	128	3
205	209	1
190	192	1
202	210	3
18	20	3
122	133	1
163	181	2
3	14	2
22	66	2
73	225	1
30	51	1
19	38	2
7	118	3
107	109	1
2	13	1
226	229	2
64	70	1
159	162	1
139	143	2
89	97	2
121	192	1
139	151	2
189	240	3
77	115	2
183	195	1
188	192	1
3	9	1
65	68	4
20	67	1
165	167	2
177	180	4
33	48	1
101	104	1
210	212	1
22	32	1
211	215	1
1	87	2
45	110	2
193	207	1
135	139	2
55	57	1
55	63	2
21	24	5
85	91	3
129	131	1
182	188	1
117	118	4
112	135	1
152	169	2
205	222	1
1	12	1
0	6	1
43	193	2
124	126	1
60	68	3
156	240	2
71	196	1
115	123	1
176	180	1
220	227	2
19	57	4
28	74	1
9	12	1
41	71	1
60	183	1
76	84	6
205	208	1
76	124	2
0	116	4
206	208	2
1	118	3
155	156	1
76	162	1
95	105	1
55	61	2
151	154	1
135	171	1
17	21	1
121	136	2
203	239	1
157	162	1
167	169	3
101	120	1
17	24	1
145	147	3
190	227	1
61	70	3
118	122	1
172	176	2
30	47	1
82	104	1
0	223	2
122	128	1
163	165	1
199	208	1
19	104	2
149	152	1
3	34	3
183	186	1
20	85	2
21	31	1
98	99	2
172	181	1
160	169	1
30	34	1
125	129	2
29	68	1
163	169	3
39	42	4
23	69	2
173	181	2
162	163	3
124	169	1
0	33	1
114	148	3
8	10	4
141	148	1
116	125	1
33	37	1
31	36	2
7	16	1
154	200	1
7	35	1
3	8	1
17	18	2
49	52	1
158	189	3
113	148	1
141	162	2
106	167	2
10	86	1
36	49	1
76	98	3
47	55	3
47	74	1
202	238	1
82	185	1
171	179	1
162	200	1
164	173	2
91	91	2
158	196	2
120	128	1
184	197	1
183	207	2
37	43	1
23	36	1
106	107	1
140	234	1
14	16	2
17	60	1
86	183	1
125	169	1
11	20	2
60	65	2
45	109	2
101	109	1
131	168	1
120	122	1
118	127	1
223	230	1
27	29	1
127	155	2
15	52	1
202	204	1
111	175	2
27	183	1
70	110	1
54	62	1
143	155	3
71	239	2
238	239	1
10	12	2
178	198	1
232	235	2
120	121	5
82	107	1
12	75	1
147	150	1
229	230	3
121	129	1
61	63	2
5	153	1
5	126	1
113	151	1
73	74	1
186	188	1
117	127	2
149	151	2
143	149	2
52	57	2
133	169	1
158	186	1
2	106	1
219	226	1
63	225	1
78	83	1
168	198	1
3	124	1
238	240	2
189	197	2
142	154	2
172	190	1
32	48	1
163	166	1
66	73	2
142	153	1
108	171	1
229	234	1
203	204	1
147	152	1
17	48	1
142	147	1
176	179	2
61	82	1
190	232	1
129	137	2
19	33	1
12	14	1
55	58	1
109	113	1
180	183	1
89	89	1
163	179	1
19	115	1
228	236	1
108	177	1
232	239	1
191	226	1
143	147	2
161	162	1
185	188	1
234	238	1
22	210	1
46	85	1
196	232	1
178	179	2
150	152	1
7	20	2
9	231	1
17	55	1
157	199	1
227	229	2
232	236	1
3	5	1
111	158	1
16	75	1
32	173	1
237	239	2
199	209	2
20	211	1
17	41	1
63	74	1
201	222	1
34	48	1
143	146	2
33	50	1
102	109	1
21	57	1
18	57	3
204	230	1
175	182	2
108	109	2
9	36	1
122	137	1
11	47	1
122	138	1
31	33	1
20	48	1
175	177	1
118	124	2
62	66	1
139	236	1
36	57	1
42	56	1
159	188	1
66	75	1
197	210	1
179	180	1
126	129	1
19	133	1
155	175	1
0	122	1
3	4	1
169	192	1
114	167	1
126	179	1
