155	161	2
76	76	21
102	103	26
25	25	29
74	74	22
147	150	3
77	78	10
34	34	19
145	145	20
71	71	15
166	167	4
14	15	19
86	87	15
53	54	4
94	94	16
4	4	16
49	49	10
100	101	7
108	108	10
27	27	26
63	63	3
6	6	18
97	97	42
98	98	17
51	65	4
73	73	22
101	101	21
73	74	10
90	120	1
163	163	11
62	62	35
47	48	10
54	56	1
79	79	19
128	128	21
108	127	2
70	70	14
164	165	3
9	9	22
83	83	23
41	41	33
151	151	26
137	137	7
120	120	27
55	55	20
112	113	16
3	3	26
22	49	2
62	69	5
2	131	7
107	108	25
23	23	16
161	162	10
155	155	11
148	149	7
37	38	7
51	51	29
22	24	2
114	114	7
116	116	16
123	123	11
99	99	13
15	15	15
20	71	2
150	150	25
46	97	1
148	148	10
11	12	12
17	17	31
26	26	28
102	102	14
1	2	7
122	122	5
154	154	17
21	38	4
35	35	19
70	71	6
77	77	24
114	115	6
128	129	9
19	20	5
36	42	5
21	21	7
125	125	21
58	58	4
163	164	8
92	93	11
22	23	7
40	40	25
42	42	34
112	112	34
45	45	26
38	38	15
136	136	25
130	130	10
48	48	28
3	35	1
85	85	42
8	8	14
152	152	15
105	105	22
40	51	2
18	19	17
144	145	12
84	86	1
37	37	25
8	10	6
146	146	17
50	53	3
68	69	7
157	158	1
121	121	12
7	8	8
158	158	13
130	131	6
100	105	1
143	145	2
58	66	1
143	143	14
46	47	3
0	0	13
7	7	29
24	24	10
47	47	27
109	109	12
81	81	12
157	157	20
98	128	2
168	169	5
81	166	4
119	120	5
37	64	4
144	144	20
82	82	20
115	162	2
79	80	14
78	78	10
159	159	12
109	110	5
57	73	4
69	69	29
54	54	25
86	86	19
44	44	26
5	8	1
164	166	1
92	92	16
38	151	2
134	135	9
65	149	3
74	75	14
33	35	6
77	79	5
8	9	4
123	156	2
50	51	4
66	66	14
107	107	12
137	138	2
145	146	21
10	10	11
57	57	14
125	126	2
128	157	2
16	16	15
75	75	11
15	38	3
111	112	3
64	66	1
78	80	12
124	126	2
159	165	2
63	74	3
104	104	12
46	46	13
97	123	1
40	57	3
129	131	2
6	7	9
75	76	6
53	53	16
91	91	15
129	129	5
168	168	15
93	143	1
68	78	2
55	57	2
131	131	3
90	91	10
113	114	8
35	36	7
17	18	8
18	18	36
87	87	22
65	65	10
161	161	6
39	39	27
104	105	2
111	113	4
28	28	18
108	109	17
103	103	25
20	21	8
142	142	13
156	156	19
56	56	22
5	6	3
36	36	28
106	106	10
20	37	3
124	125	5
139	139	28
162	162	11
83	84	7
67	67	6
1	1	13
106	137	1
18	76	1
63	64	2
56	57	2
0	51	2
87	88	5
91	92	6
80	83	7
80	80	14
140	140	9
46	48	3
121	122	9
105	106	5
134	134	11
42	43	9
52	52	32
124	124	14
132	132	12
118	118	12
40	58	5
80	86	7
88	88	31
166	166	9
13	14	3
24	25	9
135	135	8
77	147	4
79	82	1
43	43	13
55	56	5
93	95	4
97	114	2
131	132	15
103	104	8
16	17	6
14	14	13
142	143	4
52	68	3
41	52	1
100	100	16
81	103	4
119	122	2
113	113	22
156	157	1
115	116	15
163	167	1
116	158	2
98	111	2
36	37	4
13	13	19
90	90	23
20	23	6
139	143	1
146	148	1
64	64	25
101	102	4
164	164	5
47	75	2
12	12	9
89	90	6
63	68	1
13	134	3
77	81	4
66	70	1
103	105	4
44	45	9
48	52	1
4	5	6
15	20	4
20	24	7
123	124	10
20	22	8
72	72	25
84	90	6
158	159	4
2	6	3
14	16	2
82	83	11
131	133	1
12	15	3
98	132	4
3	5	1
106	132	5
170	170	11
89	135	2
90	93	2
139	140	9
6	37	2
18	21	3
2	5	4
50	50	17
77	80	3
96	96	9
127	130	2
20	49	2
63	77	2
92	94	3
64	67	2
147	148	4
72	73	11
89	89	9
71	72	11
14	133	1
135	137	2
91	97	1
137	159	5
12	13	3
38	39	2
115	115	14
141	141	12
47	49	5
11	11	16
93	94	9
122	138	3
133	133	23
49	72	1
33	33	7
118	141	1
18	128	1
2	2	12
158	169	1
62	76	1
20	25	2
93	93	2
111	111	14
165	166	4
116	122	2
57	62	2
135	136	3
84	84	19
143	144	8
138	138	14
66	67	4
11	168	1
40	71	4
80	81	10
6	63	1
165	165	5
87	90	3
116	137	3
3	4	6
89	91	2
78	79	8
65	66	12
45	46	10
120	139	1
129	140	2
96	101	3
118	122	7
85	86	7
160	160	8
152	153	7
84	85	15
129	130	3
51	66	2
127	127	7
37	167	2
39	40	7
149	149	11
142	162	1
19	19	15
128	130	7
21	25	3
152	166	1
74	88	1
35	37	1
125	130	3
77	89	3
65	85	2
67	68	7
57	71	3
68	70	5
70	72	5
112	123	1
5	5	14
117	118	8
38	41	6
110	110	3
2	3	10
97	109	2
98	99	8
19	73	2
51	69	2
76	80	3
69	84	1
53	55	3
119	119	6
117	117	17
97	99	3
169	169	6
52	53	5
20	20	12
99	113	4
132	148	3
47	50	4
110	112	2
56	106	3
110	111	4
27	28	6
129	133	2
153	153	9
67	69	5
156	164	4
43	44	7
100	167	2
118	121	6
142	144	5
116	117	5
35	166	2
97	98	7
25	26	8
140	141	11
121	124	1
58	88	1
70	73	2
118	151	1
39	53	1
76	135	1
54	55	7
80	156	4
44	46	6
162	167	1
9	13	2
99	100	1
126	126	4
84	116	3
95	96	3
166	170	3
87	114	1
49	55	1
63	65	2
26	27	3
77	83	4
73	99	1
57	70	2
97	146	1
119	132	4
86	133	3
137	143	2
149	169	1
64	65	2
105	114	3
68	68	4
48	49	4
66	69	2
169	170	4
81	83	6
101	136	2
80	82	2
96	131	1
117	137	2
22	22	8
44	52	3
41	42	1
133	134	5
106	107	5
92	95	4
52	87	1
0	1	4
94	96	1
112	122	1
63	69	2
102	134	2
16	35	2
5	70	3
95	99	1
78	93	2
1	39	1
152	154	2
83	94	2
147	154	2
18	44	1
150	151	6
125	127	3
8	11	2
140	159	1
64	68	4
93	104	1
102	133	4
147	147	4
122	156	3
48	65	3
118	119	6
81	82	5
15	133	2
71	73	3
119	138	1
151	153	2
34	35	3
69	95	2
137	170	2
69	87	3
85	117	3
58	73	3
62	77	2
76	79	1
167	167	4
69	70	4
1	74	1
79	110	2
105	107	5
11	15	1
36	38	1
123	132	2
104	131	2
15	16	3
51	52	1
159	168	2
167	168	3
40	50	4
9	10	4
157	159	4
11	39	2
45	50	1
3	36	3
40	41	2
12	141	1
52	55	3
49	50	5
23	25	2
114	116	4
120	122	3
105	111	5
83	85	3
20	86	3
107	110	1
73	75	5
110	155	1
21	23	8
76	105	3
97	103	2
23	85	3
160	161	2
130	140	2
19	25	1
98	122	2
24	37	3
154	155	1
86	114	2
135	138	1
125	128	2
86	96	1
139	141	2
128	132	1
53	88	2
81	84	1
109	112	1
44	50	2
43	47	3
142	145	2
40	47	1
138	141	2
122	123	3
112	114	2
153	154	4
124	129	1
162	163	2
4	6	1
58	127	2
132	147	1
136	137	4
96	103	1
71	97	1
18	35	1
80	154	2
24	38	3
154	162	2
16	23	1
55	58	2
119	149	1
23	40	1
33	40	1
13	145	2
57	61	1
58	62	1
86	90	1
53	86	2
84	114	1
80	116	1
138	139	2
96	97	1
154	156	1
77	93	2
19	46	1
82	92	3
5	41	1
65	69	3
95	95	4
12	168	3
104	132	3
150	152	4
77	92	1
142	149	2
90	94	1
50	71	3
42	44	4
162	165	1
14	135	1
110	113	1
13	38	1
46	49	3
6	58	1
18	25	1
63	72	1
21	42	3
76	77	5
17	37	2
10	12	1
143	146	1
13	35	2
160	166	1
57	58	1
155	156	2
4	7	1
38	40	4
101	133	1
120	121	4
51	54	2
57	77	1
10	11	2
107	109	3
140	142	3
104	111	1
79	96	1
96	109	1
63	70	3
16	87	1
48	158	1
146	149	1
51	63	1
69	75	3
21	22	4
33	34	1
7	41	1
76	91	2
123	151	1
14	35	2
13	33	1
40	44	1
9	11	2
54	87	1
51	68	1
150	153	1
69	72	2
0	2	1
55	64	2
115	131	1
83	115	1
22	25	1
126	127	3
137	146	1
47	52	1
95	97	1
91	95	1
133	157	1
5	19	1
63	93	1
117	119	1
77	94	1
3	6	1
144	146	1
18	43	1
156	159	2
100	102	1
12	169	1
62	67	2
145	160	1
64	91	1
96	122	1
76	89	1
91	93	1
53	77	2
19	24	1
6	8	3
96	98	1
102	132	1
101	166	1
129	132	1
11	14	1
102	104	1
0	53	1
