6	6	14
118	118	20
118	124	1
34	34	12
91	91	10
23	24	4
35	35	11
135	136	3
134	135	3
20	20	7
104	104	14
76	76	13
22	24	1
116	118	5
85	85	9
138	138	9
3	3	5
10	10	5
26	26	6
94	94	7
126	126	10
128	128	15
27	32	3
12	12	5
124	124	9
119	119	9
131	131	11
1	2	6
22	26	1
89	89	15
130	130	19
134	134	14
118	122	4
120	120	9
127	127	11
86	86	11
119	125	3
95	95	8
98	100	3
71	71	5
112	112	4
95	134	1
129	129	11
4	4	6
30	30	4
93	93	8
9	9	10
13	13	9
3	11	3
135	137	2
29	29	8
93	94	3
92	92	9
117	118	4
5	6	2
124	125	3
104	106	4
101	101	9
5	5	5
104	118	1
132	132	13
97	97	8
79	79	13
122	123	10
118	119	4
87	87	16
4	5	1
96	107	2
99	132	3
117	117	8
0	1	2
100	100	5
82	83	2
22	22	7
89	90	5
80	82	2
37	37	3
79	122	2
78	85	1
130	131	4
17	18	2
137	140	4
121	122	2
111	111	5
108	108	4
21	25	2
121	121	10
19	19	7
109	109	7
14	14	5
28	28	7
76	93	5
114	114	20
16	17	3
21	21	6
136	138	2
88	89	1
83	83	3
11	11	10
106	107	1
137	137	8
90	91	2
110	111	2
103	103	12
93	126	2
32	32	13
98	98	9
81	109	2
123	123	8
33	33	12
122	122	7
104	105	5
104	122	2
110	110	7
107	107	3
73	73	7
31	31	6
74	74	5
30	31	4
71	73	2
72	87	7
91	92	2
136	136	6
15	20	7
18	18	14
21	22	1
27	27	4
72	81	1
78	78	1
81	81	6
25	26	7
36	36	6
140	140	5
113	137	1
18	19	3
139	139	7
81	84	3
81	110	3
35	36	2
24	24	4
79	82	1
94	95	1
105	119	3
76	77	3
87	114	1
72	73	1
90	115	3
105	105	2
105	106	2
0	0	6
125	125	4
19	26	3
37	100	5
86	87	3
8	8	3
116	116	9
117	120	1
105	107	1
16	21	1
124	126	3
96	96	8
105	122	2
85	86	2
75	75	5
13	92	3
1	1	2
89	95	1
82	84	4
115	115	6
116	121	1
10	13	3
90	90	6
14	22	1
82	85	3
101	102	2
16	16	3
13	14	2
80	80	4
100	117	1
133	133	6
84	85	1
127	134	1
27	31	2
118	120	2
90	99	1
126	128	3
8	29	3
23	23	7
106	106	3
82	82	4
109	119	2
12	22	3
102	102	2
107	108	4
33	34	5
37	38	2
82	109	3
14	90	3
31	102	1
25	25	2
125	126	2
84	84	1
15	15	2
119	121	2
93	95	2
7	66	1
7	7	3
77	94	1
15	21	1
86	93	4
102	111	1
112	113	1
8	9	4
28	32	2
10	24	2
10	23	2
75	111	1
75	76	1
24	26	2
99	99	1
2	11	2
127	129	3
135	135	5
102	118	3
114	134	1
93	122	2
78	79	2
107	109	1
31	32	4
15	33	3
97	101	1
6	18	2
117	119	2
113	113	1
120	121	1
133	140	1
28	29	1
123	125	1
87	113	2
9	10	1
104	126	1
83	85	4
98	99	1
114	115	1
29	30	1
116	119	1
87	88	1
6	8	1
71	128	1
38	38	1
105	120	1
2	2	2
128	129	1
95	118	1
106	109	2
71	75	1
101	108	1
97	98	2
113	115	1
122	125	1
92	93	1
89	134	1
86	88	1
72	128	1
7	8	1
119	120	1
0	9	1
88	88	1
