123	124	6
92	105	3
102	103	4
53	53	10
116	116	16
97	107	4
49	49	5
119	119	8
104	105	3
103	103	31
54	54	25
132	132	16
62	63	5
132	133	10
127	128	6
127	127	32
50	50	20
130	130	22
77	77	18
113	115	7
15	15	10
73	73	20
120	121	2
1	2	8
101	102	4
60	61	10
52	80	4
22	73	2
88	88	22
45	45	14
122	122	14
69	88	3
96	96	19
129	129	16
34	34	7
66	132	6
8	33	7
31	31	12
101	101	16
115	115	22
80	80	27
100	101	2
10	10	11
108	108	5
71	75	1
78	78	8
118	119	7
54	126	4
108	109	14
95	96	8
130	131	10
118	118	17
103	104	3
52	53	8
124	125	11
126	126	25
92	92	15
69	69	27
125	125	14
98	99	4
67	67	16
81	81	9
117	118	9
36	37	5
128	128	20
63	77	7
87	123	4
61	61	20
94	94	10
20	20	7
130	132	3
78	130	2
72	72	20
109	109	10
87	87	11
90	98	2
23	24	3
55	56	4
86	134	5
29	34	3
90	91	12
79	80	4
56	56	8
102	102	21
93	94	8
9	127	2
105	105	22
84	84	24
123	126	2
97	109	2
133	133	15
61	77	1
68	68	17
123	123	20
122	124	3
79	79	33
91	92	3
102	104	1
13	15	3
60	60	16
30	30	11
26	26	12
20	24	4
59	59	12
99	99	13
90	92	4
134	134	8
109	111	6
1	3	2
111	111	7
49	50	6
63	64	5
89	89	19
57	57	16
13	13	14
70	71	12
6	7	3
120	120	24
63	63	22
124	124	22
98	98	21
43	52	14
76	76	14
66	67	10
13	27	1
77	130	1
117	117	20
62	62	13
33	105	3
3	3	16
19	19	9
44	44	14
12	47	4
2	33	3
95	97	1
66	66	8
55	55	7
52	96	3
59	79	3
34	105	3
69	127	2
106	106	23
21	21	9
30	110	2
113	113	11
56	57	6
14	14	12
105	106	3
9	10	7
115	116	1
129	134	1
98	102	5
19	21	5
93	93	10
8	8	15
90	90	11
113	121	2
131	131	13
114	114	20
78	125	2
69	72	3
83	84	8
52	52	8
49	95	1
116	133	4
9	9	11
30	122	2
54	58	1
96	97	5
80	81	3
95	95	17
99	100	1
64	65	11
121	121	14
97	97	9
98	101	2
66	68	8
95	112	3
8	12	1
54	55	5
113	114	5
32	105	3
27	28	3
12	12	26
27	27	4
64	64	23
19	20	3
68	69	7
54	61	8
28	28	14
71	71	27
10	11	3
28	29	6
33	33	9
70	70	13
52	81	6
46	46	1
100	100	19
85	91	3
58	58	8
17	23	3
77	126	3
121	124	1
107	107	5
7	7	2
22	22	11
35	35	6
119	122	2
71	72	6
53	81	1
15	27	2
2	2	12
89	90	6
104	104	10
13	18	3
7	33	10
47	47	7
65	67	11
106	107	4
132	135	2
24	29	1
43	43	6
42	42	4
62	127	1
15	16	3
120	126	1
70	74	1
4	4	12
22	23	8
83	83	13
82	84	1
114	115	7
12	29	1
11	32	4
18	18	7
43	44	3
79	122	6
123	125	3
110	111	6
8	9	6
78	123	2
12	28	1
5	5	10
128	129	3
30	35	2
9	11	8
122	123	4
75	75	19
86	86	12
110	133	1
11	11	20
74	74	9
0	5	1
94	96	1
12	13	4
71	73	4
99	121	1
77	78	4
112	112	21
5	126	2
7	53	3
88	104	1
67	68	10
62	100	1
45	106	1
16	16	8
57	58	5
86	111	2
0	1	1
49	94	3
21	22	5
0	0	7
86	106	2
53	54	5
35	85	3
81	114	2
36	36	10
23	23	3
99	116	4
124	130	2
9	38	1
98	116	6
55	67	3
61	68	2
32	32	10
108	110	1
97	121	1
80	83	4
91	91	10
107	108	6
130	133	5
60	127	3
57	59	4
55	57	5
110	110	8
77	124	2
3	4	2
25	26	3
82	82	6
112	113	9
43	53	2
23	31	2
37	37	3
96	106	5
120	122	4
33	34	1
39	42	4
72	75	1
86	87	2
58	59	3
92	94	2
86	133	3
100	116	1
86	135	2
122	130	3
17	17	7
78	117	2
94	95	5
6	6	4
24	25	1
116	135	3
25	91	2
84	86	1
50	82	4
65	68	1
76	77	3
119	123	1
77	125	1
22	25	2
85	85	9
31	32	5
90	105	2
34	38	5
11	33	2
20	21	5
42	43	1
116	121	5
79	97	1
24	24	8
71	88	2
82	106	1
25	25	11
126	134	1
106	111	3
3	49	1
55	58	1
16	26	2
78	79	1
37	38	4
115	125	2
61	127	5
97	98	5
1	1	4
75	76	4
85	113	5
32	111	1
116	117	3
105	109	3
99	101	1
32	33	5
38	38	4
27	30	1
36	80	1
58	61	1
84	87	2
5	47	1
12	46	1
82	107	1
134	135	3
5	12	1
29	29	5
16	21	1
62	89	1
79	124	3
116	129	1
4	5	2
85	86	1
65	69	2
106	108	4
10	37	1
120	125	1
108	133	1
109	110	3
1	97	1
135	135	2
50	79	3
17	18	2
92	110	2
83	115	1
8	13	1
7	54	1
126	127	1
6	127	3
47	49	1
124	127	3
55	97	3
7	13	1
81	82	3
12	94	1
105	115	2
115	126	2
7	38	1
54	59	2
101	116	1
0	3	1
28	90	1
28	30	1
45	47	3
55	124	1
0	2	1
105	111	3
56	58	4
15	19	2
125	126	1
70	75	1
54	95	4
8	14	3
57	61	3
17	34	1
7	128	4
99	102	2
54	57	3
4	89	1
112	114	2
65	65	2
4	106	1
50	51	1
82	83	1
26	27	1
86	123	1
118	125	1
69	70	2
111	112	2
84	112	3
34	35	4
108	111	1
119	132	1
32	34	1
69	71	1
21	23	2
60	79	3
13	20	1
4	121	1
117	125	3
70	127	3
14	20	1
64	66	2
28	93	1
90	93	1
44	45	1
3	6	1
85	105	2
113	124	1
78	129	2
121	128	1
88	116	1
59	122	1
16	24	1
18	22	1
118	120	1
36	38	1
11	12	1
68	71	1
11	26	1
113	123	1
4	47	1
68	87	1
11	18	1
64	130	1
55	125	1
35	44	1
32	38	1
101	105	1
5	7	1
15	24	1
