94	94	11
152	152	11
77	79	5
62	63	2
78	79	7
124	127	4
8	8	23
103	135	1
153	153	20
133	133	13
12	12	24
138	139	1
77	77	16
67	70	3
53	53	16
103	103	20
134	151	1
40	41	11
45	45	5
18	29	3
148	148	13
15	15	16
42	44	3
109	110	4
22	22	20
44	45	3
74	97	1
122	123	3
130	130	31
97	97	12
97	98	12
29	29	18
6	6	6
71	88	3
13	13	14
28	28	5
79	79	10
109	109	14
32	33	5
46	47	5
92	92	8
72	73	6
31	39	3
12	14	1
49	49	8
107	107	17
34	34	14
129	129	6
16	17	14
64	66	3
114	114	9
75	80	3
106	106	17
93	97	10
16	16	18
20	23	4
36	38	3
47	48	9
41	44	4
19	19	18
46	46	25
121	121	6
103	136	4
94	98	3
129	130	8
132	133	9
100	101	7
33	33	4
66	67	2
151	151	6
83	83	4
142	142	13
72	72	15
68	68	16
70	70	21
47	47	19
106	107	3
25	25	3
95	96	6
57	57	8
64	65	2
135	135	22
26	26	15
31	31	14
128	129	14
3	3	5
83	118	3
132	132	8
16	23	6
70	73	3
3	8	3
131	131	15
76	76	5
149	149	11
74	74	4
41	43	4
123	123	9
5	5	7
85	85	15
73	102	4
11	13	1
53	56	2
4	5	4
135	136	5
9	9	10
146	147	4
5	6	14
108	109	9
76	84	4
32	131	10
113	113	5
51	51	22
20	20	14
23	23	33
140	149	4
18	18	22
15	16	5
32	32	7
72	75	1
86	86	16
154	154	9
134	142	2
79	80	6
63	63	17
77	78	11
93	98	3
57	58	12
81	81	3
30	30	4
124	125	13
49	62	3
53	54	4
45	46	3
41	45	2
19	20	5
100	100	22
116	116	11
25	27	2
10	12	11
17	17	30
109	115	6
124	124	4
36	36	17
95	95	5
5	7	5
71	71	12
105	106	5
84	84	4
88	88	8
133	134	11
21	21	14
42	42	6
128	128	2
73	75	9
37	38	1
98	98	5
26	27	8
43	51	1
2	8	1
150	150	2
152	153	8
116	117	3
65	66	6
27	28	8
136	138	2
119	138	5
87	87	7
135	137	4
142	152	1
42	43	14
87	88	5
61	61	1
75	77	2
24	24	23
123	126	4
84	85	6
67	71	2
64	64	14
129	149	2
141	146	4
48	52	2
33	35	10
122	122	23
85	87	11
99	99	10
125	125	1
117	118	4
94	97	4
37	37	18
38	48	4
48	48	10
101	134	2
122	125	3
81	94	5
41	41	20
56	57	2
7	7	5
120	120	7
141	143	6
43	43	13
67	68	10
81	82	1
120	144	4
115	135	2
6	8	3
39	39	19
67	77	3
127	127	2
104	105	2
125	127	4
33	34	12
143	143	3
75	88	1
101	101	3
16	20	4
69	69	9
120	121	4
96	96	5
48	106	4
63	64	2
46	49	5
141	141	8
135	141	3
10	40	7
31	32	4
27	36	3
110	110	7
24	40	3
92	94	1
104	136	4
63	71	5
50	50	5
72	81	2
83	84	6
82	83	9
38	38	10
25	34	2
10	10	8
40	46	1
85	86	5
62	62	4
119	119	1
78	80	4
8	9	11
102	102	16
82	94	2
87	94	3
71	100	1
104	104	10
115	117	6
18	19	1
52	52	5
78	78	2
21	22	5
36	100	4
56	56	8
38	39	4
55	55	9
15	24	4
74	75	7
108	108	5
66	66	7
125	131	1
123	150	3
17	23	4
43	64	2
38	57	2
106	109	3
14	14	1
24	31	3
71	72	2
73	93	2
134	134	16
105	105	5
139	142	3
121	122	1
22	23	10
153	154	5
35	36	4
4	6	2
102	143	4
9	10	4
126	126	1
50	51	3
40	40	13
82	82	5
97	99	4
110	111	2
67	67	6
115	116	4
35	35	26
36	37	11
23	24	9
27	33	1
38	44	3
92	98	1
75	76	3
27	27	5
10	46	2
117	117	10
73	84	3
141	142	3
21	23	6
54	54	5
135	139	3
8	11	2
44	46	7
44	44	9
110	113	1
16	55	3
11	12	14
136	137	4
15	38	2
77	84	2
98	111	6
86	117	3
93	94	3
18	20	6
115	115	9
93	114	3
124	130	5
86	88	3
102	103	4
133	139	2
125	126	5
30	31	10
12	42	4
80	145	4
82	84	4
16	24	2
140	140	3
68	77	1
57	63	2
69	70	3
112	112	5
45	51	3
118	118	9
73	73	12
10	38	2
79	144	2
53	76	2
16	35	3
54	77	1
16	77	1
62	65	1
17	29	3
134	135	5
65	65	12
150	151	2
4	4	3
131	132	2
29	30	4
25	28	3
81	83	1
76	93	1
89	116	4
6	23	2
40	63	2
112	113	5
99	109	3
17	18	6
40	42	3
54	56	1
34	36	2
105	108	1
131	154	3
76	86	1
62	68	1
49	53	1
49	114	3
91	92	1
39	48	2
139	139	7
17	27	1
119	121	3
26	29	5
67	106	4
146	149	4
123	148	1
12	13	3
20	21	4
146	146	2
106	116	3
16	54	3
43	53	2
144	144	2
8	19	3
85	103	1
49	77	2
52	61	3
116	135	2
102	141	2
16	56	1
93	93	4
90	92	2
13	15	1
16	52	4
3	10	4
117	135	3
15	26	2
95	97	4
51	62	2
140	141	1
40	62	2
74	79	3
16	25	1
84	118	2
78	146	2
43	44	4
150	154	2
147	147	2
81	97	1
63	66	1
15	53	3
48	49	3
39	95	1
144	151	1
2	2	1
134	143	1
9	17	2
147	148	4
69	95	2
68	71	2
130	131	2
24	39	2
119	120	2
109	113	2
125	128	3
137	138	4
140	144	1
10	44	1
118	119	1
86	87	2
145	145	2
35	37	2
76	79	1
17	24	3
82	85	1
39	40	3
26	36	2
45	70	1
34	35	4
27	30	2
82	111	1
46	67	2
66	68	1
74	84	2
50	52	2
58	78	1
58	58	1
76	77	2
36	101	2
76	81	2
30	32	1
107	115	2
138	145	1
136	149	1
92	93	1
25	32	1
28	29	1
76	80	3
65	69	1
111	111	3
63	68	1
19	30	1
26	30	1
83	120	1
63	65	1
26	31	3
31	33	3
35	100	2
80	80	2
66	69	1
113	114	2
111	112	1
48	53	1
14	15	3
134	139	1
119	135	2
25	29	2
149	150	1
96	97	1
140	148	3
135	151	2
9	49	1
109	114	1
24	25	1
64	69	1
144	145	2
128	149	1
102	135	1
57	65	1
11	14	1
75	79	1
145	147	1
100	102	1
138	141	1
138	138	1
137	137	1
118	120	3
137	143	1
111	114	1
40	43	2
133	142	1
40	44	2
137	140	1
24	27	1
77	103	1
24	28	1
83	116	2
16	22	1
84	86	1
145	146	1
136	139	1
108	114	1
61	62	1
98	99	1
134	140	1
121	145	1
9	45	1
105	115	1
85	117	1
8	24	1
46	64	1
90	93	1
76	82	1
