105	105	7
41	41	9
75	75	7
12	13	13
6	6	17
48	48	15
57	158	1
134	140	2
53	53	6
4	140	3
110	127	3
101	101	5
82	82	13
155	155	11
151	153	4
59	59	1
115	155	1
28	28	11
147	147	11
57	95	1
90	90	6
103	103	13
130	130	14
75	91	3
91	95	4
17	17	13
92	94	6
5	5	23
152	152	11
17	18	5
124	125	3
143	143	20
138	139	6
145	145	18
95	95	12
86	86	16
52	98	2
93	93	6
104	104	7
70	70	7
85	85	11
20	20	5
77	77	17
132	132	12
79	80	10
16	16	12
14	14	12
15	86	1
52	79	1
144	144	15
96	96	4
44	45	10
130	133	4
65	65	10
111	111	15
121	121	16
62	62	13
120	120	15
33	33	13
65	67	1
23	72	2
113	113	7
30	30	22
43	43	11
123	124	4
151	151	7
112	112	16
107	107	12
67	67	13
27	47	1
29	29	5
53	55	6
47	47	11
47	48	4
84	84	12
116	150	2
15	15	8
114	115	15
155	156	8
140	153	2
114	114	10
61	61	12
133	133	8
122	122	10
126	126	14
96	98	3
63	63	8
117	117	13
18	18	18
60	60	16
75	97	10
32	32	25
157	157	9
145	146	1
134	138	4
89	89	16
140	141	13
34	80	3
37	37	10
164	164	15
138	138	17
24	25	2
141	150	1
67	76	2
61	64	2
161	161	4
116	116	17
18	19	2
78	91	2
124	151	2
146	147	12
163	163	4
151	154	1
138	141	2
26	40	3
136	137	2
2	8	4
97	97	13
87	88	4
139	149	3
77	78	1
67	83	2
106	106	7
35	35	13
62	63	6
2	2	8
84	85	5
64	64	3
133	137	1
74	74	17
93	94	6
91	91	8
10	10	10
112	122	3
36	37	7
59	61	2
153	157	1
88	88	11
9	14	2
38	82	2
134	134	6
34	34	5
154	155	11
108	108	19
45	45	17
128	137	2
69	73	2
80	80	6
11	11	4
124	124	14
118	118	13
52	53	3
128	128	10
117	118	9
37	85	4
58	61	3
97	140	1
164	165	3
123	123	8
124	141	5
130	131	7
111	112	9
23	25	5
131	131	9
92	157	3
79	79	9
72	73	9
27	36	11
25	25	11
27	85	2
125	126	3
40	40	3
74	82	5
19	20	11
16	17	7
148	148	12
134	137	11
38	38	8
190	190	1
153	153	12
149	150	6
42	42	9
46	46	5
135	139	5
53	54	6
100	100	15
125	125	3
0	0	4
79	82	7
12	12	7
134	139	10
88	89	3
92	92	8
24	24	17
149	149	9
93	157	1
66	66	10
152	154	2
101	102	3
146	146	7
87	87	8
100	105	4
76	128	1
80	81	1
142	148	4
55	56	2
28	39	5
103	113	3
54	55	4
39	39	4
13	15	1
99	107	3
56	56	13
81	165	1
158	158	3
150	154	3
81	81	6
54	56	7
103	110	1
78	78	7
115	115	11
137	139	2
89	90	2
14	15	4
71	71	5
153	154	10
54	54	8
97	98	3
61	63	1
103	109	4
22	22	1
105	133	4
36	36	9
141	153	1
109	109	4
48	53	3
110	141	1
29	30	3
72	72	7
109	125	2
165	165	9
135	137	6
26	70	2
57	57	10
154	157	2
127	127	12
20	21	1
36	81	3
142	142	17
99	104	3
58	58	11
145	147	2
157	158	9
1	1	8
137	137	13
23	23	9
107	113	3
64	73	3
55	55	5
44	44	7
154	156	3
13	13	6
162	162	11
19	19	8
4	6	2
52	55	5
9	9	6
94	95	1
45	46	4
90	91	1
129	129	6
78	79	8
134	135	7
58	60	3
48	63	1
122	123	6
33	34	5
75	127	1
139	139	8
32	33	3
17	19	4
123	125	4
106	134	6
115	151	2
26	78	1
140	140	4
128	129	1
8	8	8
71	73	1
73	73	10
108	111	3
150	151	2
10	11	7
34	35	10
153	156	4
7	8	1
135	135	4
33	77	3
140	143	2
37	38	1
60	71	2
31	31	4
110	111	2
156	157	6
126	127	3
35	36	1
0	1	3
126	128	2
23	24	5
1	2	5
43	46	3
55	158	2
147	148	1
29	31	4
15	16	1
27	33	1
39	83	4
76	76	1
91	92	2
118	155	3
138	154	1
94	94	7
42	78	4
52	52	5
36	52	4
141	141	4
67	128	1
76	95	3
68	68	9
102	102	5
142	143	2
26	26	14
38	39	4
68	98	1
136	136	6
106	107	1
21	46	5
21	30	2
108	131	2
32	35	1
139	141	2
3	3	8
97	114	3
27	82	5
140	150	1
134	136	2
155	158	1
40	42	1
154	154	2
105	149	1
133	145	2
142	144	5
13	38	2
75	98	4
96	97	2
48	67	2
143	151	1
124	126	4
119	119	3
110	110	6
105	134	1
138	155	1
132	133	3
27	84	1
66	68	2
81	82	2
127	128	2
74	79	2
105	157	2
131	132	2
13	14	3
103	104	5
27	48	1
6	7	5
68	70	2
113	146	4
33	35	1
76	77	4
48	49	1
129	136	4
83	83	8
113	142	3
72	82	3
98	98	6
67	95	1
66	67	2
36	83	2
34	78	3
67	127	1
9	10	1
41	42	1
43	78	2
17	20	1
81	83	1
26	27	1
161	162	3
56	79	1
27	27	2
62	64	1
45	47	1
120	121	1
58	76	2
67	68	1
83	86	1
21	21	3
144	145	2
99	106	1
29	86	2
48	76	1
5	10	1
40	41	3
5	9	2
48	64	1
21	45	1
137	138	2
56	57	1
100	101	1
141	151	4
38	85	1
58	59	2
60	72	1
74	75	1
77	80	1
55	162	2
116	119	1
158	161	1
30	33	4
21	24	2
143	148	1
120	122	1
150	150	5
59	72	1
4	5	1
130	144	1
135	138	4
95	96	1
109	143	1
115	116	2
136	164	1
38	84	2
60	61	1
56	90	1
22	23	1
58	84	2
55	163	1
37	81	1
18	21	1
156	156	1
99	105	2
64	68	1
151	152	1
61	65	1
99	99	1
62	65	1
4	4	1
28	30	1
27	86	1
66	77	1
32	36	2
75	90	1
28	29	1
61	70	1
112	113	1
107	134	1
27	30	1
54	80	1
104	149	1
3	6	1
100	106	1
98	127	1
63	64	2
61	71	1
68	128	1
27	37	1
5	6	1
12	45	1
163	164	1
7	7	2
93	156	1
96	99	1
