125	167	2
34	34	17
41	41	17
42	42	17
128	140	1
31	31	19
23	23	19
173	174	6
72	94	3
166	166	14
106	106	13
21	33	3
131	131	11
36	37	1
4	12	2
41	42	10
6	6	21
81	81	12
116	120	3
109	109	24
5	5	24
91	91	11
118	173	2
159	159	16
59	59	29
0	1	1
12	13	17
129	129	7
44	62	1
81	82	5
13	14	6
3	3	28
14	14	11
91	92	4
63	93	2
84	94	3
111	112	7
37	38	6
117	117	16
26	26	24
19	41	2
87	87	10
159	161	5
180	180	9
39	39	23
9	9	13
89	89	8
25	26	8
126	126	12
12	12	20
102	103	7
4	5	3
65	89	4
4	19	4
21	43	7
128	129	6
155	157	5
11	11	36
175	175	4
17	17	2
109	115	4
19	19	25
178	179	3
13	13	16
40	40	11
22	22	33
16	16	15
139	159	1
46	46	6
118	118	4
8	8	12
101	109	6
127	166	4
156	156	7
45	46	1
151	152	7
134	135	3
123	125	6
147	147	10
2	2	16
151	151	18
165	165	18
15	15	32
33	34	21
22	23	12
19	20	3
25	28	2
177	178	4
100	101	1
37	37	24
137	137	13
110	110	16
52	52	4
127	127	14
23	31	5
24	25	9
45	45	15
87	88	4
44	44	18
134	172	1
21	21	6
79	79	7
32	34	3
168	168	23
127	140	3
16	18	5
108	108	9
142	142	11
74	74	8
125	142	3
36	36	17
38	72	4
27	28	9
107	107	4
119	120	3
34	35	7
83	85	1
161	161	8
35	35	23
157	157	4
139	173	2
7	36	1
108	109	2
174	174	8
119	119	17
43	44	9
93	93	4
177	179	1
160	160	7
141	141	4
33	33	24
135	135	19
100	100	3
164	164	6
36	94	3
75	75	16
63	63	7
144	144	10
54	59	2
150	150	8
154	158	3
116	151	1
169	169	8
136	136	16
109	111	4
57	57	12
75	136	5
5	11	1
26	30	3
14	15	7
21	22	6
87	91	2
127	165	4
125	128	1
138	138	8
139	142	4
105	111	1
54	176	4
121	121	11
43	43	11
127	150	2
32	33	13
30	30	17
149	149	13
77	77	10
9	10	16
60	60	8
10	10	16
156	157	10
176	176	10
94	94	8
105	105	6
111	119	2
112	112	8
38	38	36
19	65	4
1	20	2
76	76	6
154	155	3
161	170	1
113	116	2
80	80	9
85	85	8
19	43	3
16	17	7
133	141	2
44	60	1
18	20	7
155	155	5
38	39	6
98	136	1
113	113	7
5	6	8
97	120	5
14	28	1
120	122	3
125	125	4
148	148	7
111	111	14
64	93	2
132	132	15
31	43	6
130	130	5
39	40	8
92	94	1
140	140	11
51	51	3
167	169	1
1	2	8
107	112	5
2	4	8
85	86	4
40	41	4
54	136	3
24	24	12
128	130	3
27	27	19
172	175	5
50	50	5
154	154	10
4	4	21
20	144	3
11	13	1
16	20	5
171	171	6
157	169	5
12	41	1
80	81	8
50	51	3
64	139	3
123	149	4
108	154	4
99	99	3
115	169	4
118	174	2
131	133	4
81	156	4
3	4	12
22	28	2
145	145	8
31	45	2
129	130	3
7	20	1
2	9	2
7	8	5
23	35	9
32	32	10
25	25	12
56	56	10
7	7	20
30	39	3
29	30	8
16	25	1
27	43	1
95	95	8
86	87	2
127	130	5
167	167	5
62	63	3
77	78	9
66	119	1
53	53	8
127	128	7
43	159	5
179	179	12
4	8	6
2	3	7
9	11	1
73	76	1
96	98	4
170	171	6
1	1	12
98	98	3
54	54	4
49	51	3
29	64	4
146	147	6
29	29	11
1	38	2
11	16	3
170	170	10
28	29	9
141	142	5
96	173	5
15	26	2
5	7	3
7	9	6
83	86	4
178	178	11
55	107	7
116	116	3
123	123	11
159	169	1
37	43	1
54	134	2
71	77	5
161	162	1
29	32	4
57	73	2
105	106	7
65	65	4
14	43	3
75	155	8
20	140	1
137	138	3
93	94	5
119	145	2
18	18	20
0	0	10
90	91	4
159	162	1
65	93	1
12	16	2
97	119	3
8	9	9
75	156	1
156	178	3
173	173	5
120	121	1
71	72	5
84	84	3
26	76	2
122	142	1
155	156	1
97	101	3
123	141	2
150	151	5
64	64	10
74	131	4
103	103	6
20	20	6
152	152	5
109	168	3
17	19	2
55	55	14
158	158	3
15	16	3
6	7	6
66	66	10
122	122	8
152	153	3
91	94	2
68	121	5
143	143	17
76	125	1
124	125	13
104	104	4
18	100	4
56	137	2
24	26	2
130	156	1
157	164	3
128	151	1
153	153	7
131	146	1
17	21	2
41	45	2
131	132	1
133	133	6
118	145	3
33	36	1
172	172	16
23	25	2
2	16	2
166	169	3
29	41	6
18	19	3
10	11	6
163	168	2
66	118	5
35	99	3
115	115	3
57	90	4
36	38	2
92	92	12
116	117	2
45	52	1
26	77	3
127	151	2
166	173	5
3	19	1
65	125	2
31	40	3
5	10	3
61	94	1
3	5	1
23	67	1
133	179	3
66	67	4
72	72	14
17	73	6
111	120	3
81	84	1
83	83	5
26	31	1
103	105	1
121	122	5
38	40	2
81	167	1
147	148	2
95	110	1
28	135	2
163	164	4
84	85	2
81	174	1
18	58	1
102	114	4
125	131	3
124	136	1
18	66	1
40	50	4
11	12	2
128	128	6
15	18	1
116	118	3
88	101	2
58	91	1
146	167	3
13	21	4
72	76	3
140	165	4
110	115	4
106	107	2
108	122	1
108	166	1
1	4	2
11	41	1
6	10	4
124	170	3
28	28	10
76	77	4
65	66	1
14	16	9
82	140	3
107	168	1
114	114	2
14	21	3
114	117	2
134	134	3
115	116	4
78	78	3
23	24	3
112	114	2
82	82	6
73	155	4
30	40	2
73	73	2
68	68	4
6	36	6
163	175	2
101	101	6
16	67	1
162	162	4
144	145	2
135	136	1
67	67	7
81	83	1
170	174	4
24	42	2
96	96	2
88	88	6
122	125	6
27	71	4
3	9	2
97	145	1
75	85	2
155	178	1
165	166	4
125	150	4
104	107	1
73	123	1
35	36	2
100	115	2
3	10	1
162	163	5
13	39	2
7	19	3
57	58	8
78	137	4
15	71	1
129	140	1
22	35	1
151	167	1
133	149	1
163	163	4
86	86	6
169	174	1
175	176	2
55	56	3
115	166	3
61	61	2
143	160	2
114	175	1
42	44	3
31	41	2
31	68	1
22	30	3
17	18	5
54	94	2
133	139	1
139	167	2
156	160	2
83	84	3
141	167	1
33	58	1
29	33	1
72	159	1
1	13	1
0	13	1
11	23	1
25	40	1
145	147	1
116	165	1
26	43	2
5	33	1
20	42	1
95	99	1
160	161	1
109	121	1
4	13	2
21	26	1
107	110	1
35	127	1
3	33	1
156	159	3
62	62	1
88	117	1
169	170	7
158	159	2
26	28	2
1	37	2
15	30	1
79	80	1
157	158	1
39	50	1
42	43	1
107	108	1
55	95	1
112	175	1
111	118	1
16	19	1
143	165	1
58	58	2
44	66	3
135	172	2
140	144	2
20	21	1
120	120	1
2	5	1
7	42	2
1	5	2
10	13	1
42	45	1
16	23	1
132	133	3
31	144	1
35	71	1
90	92	1
55	111	1
126	141	1
7	10	1
5	35	2
142	143	1
31	32	3
174	175	1
64	68	2
34	36	1
97	97	2
97	98	1
57	131	1
24	39	3
167	170	3
126	172	2
146	146	6
40	44	3
79	149	2
124	124	2
60	61	1
102	121	1
2	8	1
143	144	1
129	157	1
71	71	2
88	89	2
54	55	1
33	35	1
139	139	2
43	67	1
8	25	1
49	49	1
70	70	1
113	114	1
41	43	2
130	144	1
145	148	2
121	123	1
26	27	1
17	77	2
28	31	1
61	62	1
29	31	2
71	150	2
30	31	1
40	42	1
104	106	2
55	63	1
149	150	1
14	52	1
148	149	2
119	143	1
122	123	1
102	102	2
21	31	1
66	89	1
27	42	1
44	67	1
74	75	1
2	6	1
105	107	1
147	164	1
90	90	1
97	107	1
130	145	1
107	171	1
