81	85	1
91	92	7
26	26	6
71	72	4
49	54	1
25	25	5
62	70	5
75	93	1
83	83	13
26	27	8
86	88	3
26	49	1
60	88	1
69	70	2
62	63	5
59	62	1
40	48	3
32	38	2
100	100	3
39	39	9
62	62	4
31	35	2
64	64	3
106	106	2
21	21	4
87	87	8
69	73	5
44	44	5
48	48	8
78	78	8
87	89	6
84	90	6
94	94	8
77	77	5
27	27	4
71	79	1
45	97	1
34	34	10
70	70	7
62	97	2
43	64	2
95	96	3
48	60	2
96	96	2
68	68	2
36	36	4
90	90	6
66	94	1
68	95	3
79	80	3
22	26	2
64	84	6
56	56	9
32	32	3
101	101	3
81	81	4
66	79	1
56	61	1
20	20	1
37	40	4
35	35	10
51	51	11
63	69	1
73	73	2
88	97	7
25	28	3
85	86	6
92	92	5
64	99	1
29	29	4
89	89	4
52	53	2
91	91	4
61	62	1
49	49	2
79	79	5
99	99	4
76	76	6
55	60	4
46	47	3
31	31	6
80	81	8
69	69	5
71	71	2
70	78	3
66	85	2
24	24	6
47	96	4
94	99	4
38	39	4
53	53	5
103	103	2
74	93	4
52	52	4
22	23	2
98	98	4
86	86	8
66	80	1
27	66	4
37	71	2
77	95	2
22	32	2
97	99	6
42	43	1
97	98	1
60	60	7
64	66	5
90	91	2
95	101	1
71	93	1
47	49	7
95	95	3
28	34	2
46	58	3
55	55	3
63	70	1
29	33	4
38	50	3
85	85	3
29	32	3
33	33	1
26	35	4
102	106	4
82	82	2
84	84	9
105	105	3
57	57	6
97	97	7
63	63	7
46	59	1
22	22	7
67	77	2
102	102	4
28	28	1
82	97	1
48	66	2
41	41	2
78	80	1
75	75	2
27	60	2
24	50	1
26	28	3
48	58	2
72	72	1
27	28	5
25	40	1
45	45	2
64	92	2
23	23	5
38	38	3
79	86	4
36	37	2
35	36	1
50	50	5
67	67	3
66	97	1
49	95	2
80	80	1
39	102	1
45	60	1
74	77	3
72	78	3
91	100	3
29	71	2
89	90	2
37	38	1
64	77	2
106	107	1
25	69	1
48	62	1
104	104	3
60	84	1
103	104	1
69	103	1
65	65	6
43	43	2
102	103	1
79	82	1
40	40	1
65	76	1
42	42	3
72	73	1
82	88	5
75	76	4
87	88	1
54	54	1
40	42	1
37	37	7
88	98	1
95	98	1
84	85	2
30	33	2
54	55	1
77	78	4
48	63	1
82	85	1
47	47	2
30	30	1
91	95	2
37	81	2
25	46	1
87	90	2
73	102	1
45	54	2
74	74	2
45	80	1
88	88	1
70	71	1
84	87	1
65	66	3
49	56	1
77	96	1
73	77	1
66	78	1
62	64	1
65	107	1
67	98	1
93	93	1
66	66	1
82	107	1
43	84	1
36	66	1
61	97	1
