17	17	14
84	85	5
81	105	4
142	142	5
71	71	4
99	99	9
25	25	4
103	113	2
4	4	6
4	5	7
106	106	4
4	8	1
118	118	1
73	73	6
29	29	9
14	31	3
36	36	13
120	150	3
77	77	2
51	51	4
15	16	2
68	68	2
92	93	3
135	135	10
131	133	4
131	131	6
82	86	3
8	8	6
10	11	7
19	20	6
154	154	1
106	107	4
24	24	10
31	31	7
21	21	9
100	100	1
43	43	4
133	133	6
73	117	3
17	18	3
107	129	5
40	54	2
8	9	2
86	86	1
67	68	4
71	72	3
125	128	8
78	78	9
68	69	5
126	138	1
139	142	7
8	11	1
54	54	5
153	153	1
14	14	7
22	22	4
122	148	1
96	99	8
73	85	1
150	150	5
15	15	6
42	42	2
95	96	2
61	63	2
48	48	12
93	93	11
5	5	2
105	105	1
94	94	3
11	11	3
48	63	3
102	102	7
147	149	1
121	122	3
9	9	1
124	147	2
107	114	3
45	45	3
72	72	3
122	122	4
129	129	10
27	66	4
79	79	1
62	62	4
22	32	4
81	84	3
34	35	6
32	32	7
84	84	7
99	138	3
105	151	3
128	133	6
20	21	1
81	87	1
67	67	4
37	37	4
13	14	1
48	52	1
147	147	5
83	83	6
132	132	5
121	121	5
104	104	3
97	99	4
107	116	1
105	150	4
70	70	5
64	66	4
127	143	1
94	119	1
127	128	1
10	24	2
126	145	3
97	97	4
51	56	1
114	114	2
132	135	1
77	78	4
36	65	3
69	70	3
119	142	3
8	12	1
53	53	8
120	120	3
92	128	1
137	137	3
17	30	2
81	81	5
41	41	14
123	136	3
125	126	1
98	99	2
80	80	5
39	39	8
109	109	2
102	106	2
56	56	7
2	2	2
76	77	3
85	85	10
55	55	5
29	30	1
44	44	5
73	77	3
130	130	2
43	44	1
115	116	6
87	88	4
141	141	2
41	64	2
151	151	3
101	103	1
9	13	1
35	35	2
27	65	1
106	144	1
136	138	3
138	139	5
63	67	4
136	136	5
33	34	4
141	142	1
40	41	5
134	135	4
3	3	3
106	149	3
44	45	2
142	145	1
96	128	4
49	77	6
145	147	3
99	119	3
64	64	4
33	33	3
150	151	4
53	56	3
79	83	3
29	43	1
107	107	2
37	56	5
7	7	6
139	139	2
57	57	2
135	138	1
32	33	3
46	48	1
113	113	5
111	114	3
3	4	2
62	63	3
123	123	3
87	110	2
45	46	4
37	48	1
145	145	2
23	23	3
37	40	4
96	96	2
63	63	3
145	146	1
82	82	6
95	95	3
126	149	2
56	57	3
128	128	6
26	86	2
11	12	2
26	26	2
75	77	2
3	34	1
16	26	1
46	64	2
6	10	3
39	40	2
28	29	6
92	94	2
80	87	1
80	88	1
117	130	3
72	73	4
104	116	3
68	84	2
127	136	3
50	51	1
124	136	1
28	28	4
97	112	1
16	37	1
42	46	2
25	26	2
90	117	2
78	93	1
147	148	2
27	27	4
16	16	1
17	19	1
42	64	1
74	74	3
54	68	1
103	111	2
44	51	2
81	90	2
115	117	1
57	63	1
38	38	1
137	141	2
13	13	3
32	34	3
124	127	2
81	82	1
149	149	1
48	57	1
76	78	1
12	12	2
109	110	1
58	58	2
26	27	1
65	66	4
80	83	2
24	25	1
144	144	1
4	6	1
127	127	2
42	43	1
20	20	2
48	49	2
144	147	1
36	80	1
34	37	1
34	34	2
75	80	1
6	21	2
116	116	1
125	125	1
80	82	2
96	142	1
28	64	1
75	83	1
126	126	2
94	98	1
82	85	2
38	55	1
54	69	1
124	124	1
15	25	2
119	128	2
100	101	1
110	110	1
140	143	1
136	139	1
150	152	2
87	87	1
94	99	1
19	19	1
64	68	2
30	30	1
57	58	1
93	95	1
5	7	1
94	97	1
50	50	2
66	66	1
96	97	1
130	132	1
94	95	1
119	119	1
47	47	2
78	80	1
50	58	1
35	36	1
8	13	1
66	67	1
120	121	1
92	92	1
107	117	1
139	140	1
93	97	1
67	69	1
88	153	1
27	28	1
69	72	1
