66	67	5
82	100	3
15	15	12
155	156	9
87	94	5
70	70	17
97	97	14
101	103	4
9	9	12
39	39	7
149	149	5
23	24	3
26	27	7
12	12	11
166	166	2
141	141	10
8	9	7
26	26	7
10	10	13
8	8	13
45	52	2
119	120	5
88	88	7
41	41	10
134	134	11
84	85	2
136	136	10
102	137	5
16	16	3
137	137	8
155	155	3
43	48	1
71	74	3
40	40	4
43	43	10
22	38	2
11	11	9
80	80	9
163	164	7
139	139	3
102	102	8
103	103	5
68	68	6
48	49	3
44	45	11
22	24	5
106	106	13
5	22	2
2	53	2
97	162	4
94	94	6
135	138	4
147	147	16
109	110	3
116	116	9
132	132	5
79	154	4
47	47	6
48	48	13
79	131	3
52	52	13
135	135	14
109	109	9
5	35	3
121	122	10
65	118	2
14	14	12
112	112	5
5	8	1
5	64	3
45	45	4
151	151	5
62	62	8
86	86	14
139	147	2
54	54	2
63	63	7
15	20	2
99	122	3
133	134	5
133	133	8
14	15	8
67	80	6
6	41	4
22	23	6
57	57	5
21	23	3
160	160	9
164	164	3
13	13	10
25	25	23
77	77	4
100	101	6
153	162	1
71	135	1
119	119	6
76	76	5
168	168	11
70	87	1
49	49	11
131	154	2
35	35	10
101	106	2
102	103	8
96	96	3
85	85	6
87	87	8
81	82	1
115	115	6
99	114	3
74	75	3
153	156	1
36	36	13
88	89	4
128	130	3
23	23	10
148	148	8
16	37	3
150	150	8
28	28	5
170	170	4
34	34	6
73	159	5
68	92	2
1	1	6
55	55	7
104	104	3
91	99	1
104	105	2
147	150	1
78	78	4
56	57	7
0	1	4
148	149	3
52	57	3
20	21	9
7	7	10
143	144	2
114	114	15
108	108	14
3	3	6
127	166	3
18	19	5
77	138	2
46	51	2
56	110	5
44	46	4
134	135	1
22	58	1
101	101	6
23	40	2
146	155	3
53	157	1
143	143	7
110	110	8
18	18	12
37	37	14
64	64	9
0	51	2
41	57	5
48	54	2
96	97	11
161	161	4
35	55	2
142	142	9
145	145	3
131	131	10
128	128	9
40	147	8
137	139	1
87	96	2
168	169	1
11	13	3
44	122	6
53	53	3
50	50	5
150	151	2
125	126	5
113	114	3
94	95	7
152	152	12
127	129	1
66	83	1
65	161	2
127	127	5
46	46	14
134	138	1
146	146	7
115	116	5
89	89	7
46	47	4
8	10	3
92	92	18
17	17	14
63	64	4
76	79	2
134	139	4
21	21	5
120	120	4
118	119	2
58	153	1
76	78	5
113	136	1
6	6	8
52	53	1
108	109	1
118	118	3
105	106	5
10	140	2
100	102	2
75	75	12
100	106	2
24	25	4
84	84	7
84	87	3
19	23	2
2	2	11
95	95	3
45	46	4
50	51	11
5	5	8
83	83	7
27	27	12
67	67	11
129	129	6
40	63	3
159	160	2
44	82	1
78	79	5
69	69	6
126	126	7
146	147	9
36	37	6
55	108	2
55	135	2
51	51	6
12	13	4
161	162	3
147	148	1
20	20	5
130	131	1
93	93	3
116	117	5
113	113	2
0	14	4
19	19	9
47	48	2
24	24	7
145	151	3
114	117	7
154	156	1
107	107	6
119	121	1
73	76	5
46	124	1
12	37	1
83	119	3
67	68	2
107	108	1
87	89	4
70	162	1
15	39	4
37	38	2
154	154	9
169	169	5
70	88	2
144	144	5
4	5	8
141	142	5
122	122	6
108	122	3
62	86	1
41	42	2
65	65	9
83	142	2
81	81	9
139	141	6
16	35	1
14	50	1
47	49	2
42	43	2
35	37	3
91	123	1
153	153	1
3	35	2
66	66	11
56	56	8
70	117	2
1	2	6
72	72	7
78	154	2
15	18	2
39	40	1
97	98	4
91	91	4
108	169	6
76	77	5
71	71	8
3	44	1
100	109	3
123	123	4
91	157	2
156	156	5
49	50	7
98	98	9
9	10	6
37	41	1
16	41	1
165	165	2
44	44	3
99	156	2
82	82	3
7	46	2
13	15	2
120	121	6
104	156	2
99	105	5
0	0	3
38	38	7
100	100	1
18	149	1
53	158	1
70	95	2
127	128	1
163	163	3
154	169	2
101	104	1
109	163	1
10	11	2
96	157	1
136	142	1
25	35	2
40	41	6
28	111	1
65	66	2
10	48	1
25	34	2
74	74	5
33	34	4
111	111	7
76	134	1
17	18	2
102	133	1
71	73	4
100	103	1
51	115	2
43	83	1
46	67	1
158	158	3
110	159	1
97	99	4
107	129	2
101	119	1
91	92	1
161	165	4
81	132	2
38	39	2
74	79	1
79	79	3
138	166	1
90	125	2
108	161	1
14	17	4
4	4	4
130	130	7
10	49	2
90	115	1
100	119	2
69	70	3
7	13	2
119	123	1
65	67	5
57	118	1
72	151	2
112	132	1
133	139	1
106	129	1
23	25	3
77	83	3
142	143	1
38	40	1
108	126	2
5	83	2
155	163	1
105	165	1
72	95	2
53	56	2
67	69	2
159	169	1
125	125	2
99	129	1
42	42	4
1	17	3
53	55	5
140	141	1
43	49	1
15	52	1
22	22	4
47	92	2
16	17	1
157	159	1
142	144	2
50	62	2
21	27	1
162	162	3
1	4	1
50	52	2
166	167	1
73	162	1
78	84	2
159	159	5
15	16	4
105	105	1
140	140	1
106	107	1
83	116	2
93	166	1
79	166	1
14	21	2
55	56	2
13	14	4
33	33	2
121	163	1
16	20	1
21	37	1
164	165	3
80	155	1
90	91	4
98	99	1
108	160	1
165	166	2
45	94	3
127	136	2
124	125	1
92	116	1
112	139	1
58	58	1
130	143	1
132	133	1
74	76	2
11	116	1
46	118	1
92	133	2
138	138	1
167	167	1
56	64	1
105	107	1
19	87	1
101	102	2
62	63	1
81	159	1
94	116	2
50	99	1
65	70	1
76	82	2
89	126	1
16	28	1
34	37	1
16	22	2
95	98	2
91	115	1
2	3	1
51	122	1
109	164	1
118	156	1
95	96	1
54	121	1
95	97	1
6	10	1
84	124	1
128	129	1
84	127	1
78	155	1
5	6	1
117	117	2
73	74	1
117	169	1
67	98	1
144	145	2
135	137	1
48	68	1
99	99	1
128	132	2
85	86	1
58	61	1
72	146	1
154	167	1
47	88	1
138	142	1
76	94	1
99	100	1
145	148	1
64	84	1
78	85	1
136	137	1
51	58	1
11	12	1
69	97	1
133	146	1
76	92	1
