36	37	6
42	42	25
136	136	17
192	193	4
225	225	19
75	88	4
134	134	20
78	79	3
14	15	20
3	3	21
88	88	18
145	145	3
1	1	17
15	16	10
97	98	7
155	155	14
6	6	24
214	219	7
188	188	16
0	160	3
196	197	2
216	216	17
175	175	11
7	7	28
75	80	2
60	71	1
212	220	1
147	147	13
75	77	6
46	46	27
52	53	16
51	52	7
3	137	5
170	170	11
109	109	13
82	83	8
153	159	2
59	59	15
221	221	7
155	164	3
15	15	39
74	80	2
84	84	26
169	181	2
183	201	1
217	218	8
11	44	5
13	13	17
168	170	4
22	23	9
8	8	16
71	71	31
184	193	5
170	171	17
141	142	7
28	44	2
220	226	2
222	222	22
239	239	12
221	222	9
144	165	1
151	152	4
17	21	2
86	86	25
83	84	12
226	226	13
47	48	6
1	228	2
145	146	3
72	72	26
125	125	4
123	129	3
150	150	5
104	106	5
5	5	10
15	17	3
57	57	18
233	237	1
30	31	14
236	236	13
128	128	8
164	164	25
213	213	13
146	146	13
187	189	7
137	137	8
67	67	20
56	57	7
234	235	9
59	89	4
231	231	22
36	42	4
137	138	13
88	103	3
18	19	17
195	197	3
214	214	9
20	20	24
214	215	13
128	130	8
191	191	32
20	21	13
49	49	25
87	204	2
112	112	8
77	77	20
38	38	15
141	141	10
224	224	15
174	175	12
156	167	6
80	80	19
58	58	24
9	9	30
153	153	4
238	238	21
76	77	11
12	12	26
207	208	4
97	97	12
200	200	9
65	152	4
211	211	10
140	142	3
4	7	1
173	173	15
233	236	7
161	161	9
47	53	8
99	99	39
236	237	5
220	220	15
182	182	19
96	205	2
53	53	22
106	106	8
106	108	5
16	21	6
144	144	8
186	190	3
102	106	1
184	184	21
159	160	2
6	7	4
226	227	8
229	229	32
24	24	25
75	75	26
48	49	8
130	131	8
225	230	1
50	50	21
27	28	10
190	190	14
43	43	12
210	210	10
185	185	12
75	96	1
16	17	6
192	192	16
218	218	18
74	104	12
57	58	6
187	188	17
83	83	20
234	234	22
118	119	13
107	116	4
1	2	9
121	121	18
14	14	9
62	63	4
55	55	9
52	54	14
105	105	9
48	48	20
150	152	7
199	199	9
0	1	12
65	68	6
169	169	20
217	217	11
219	219	17
76	76	19
198	198	11
50	51	5
123	123	16
37	44	4
122	123	3
40	41	25
41	41	17
28	28	20
27	27	31
212	212	14
39	39	23
44	44	20
139	139	9
7	8	5
60	60	27
65	65	32
115	116	3
118	118	17
99	100	5
73	73	18
11	39	4
204	204	19
235	235	15
68	68	24
162	162	19
82	82	11
177	177	17
113	122	4
71	128	4
49	52	4
146	171	2
58	59	6
17	17	31
174	174	12
13	14	17
55	57	5
199	207	4
25	42	6
26	26	17
163	180	1
56	56	10
14	17	2
59	60	14
104	104	17
220	227	2
146	183	1
197	200	3
179	180	5
78	78	22
237	237	11
48	64	2
56	76	1
74	74	28
119	119	16
230	231	5
32	32	31
149	149	13
23	23	31
112	120	1
37	37	12
71	72	9
230	230	11
133	133	14
128	131	7
218	219	3
21	21	22
194	194	14
133	134	9
143	143	25
114	114	10
51	51	14
15	23	1
44	45	5
67	68	7
142	142	10
150	151	11
223	223	12
205	206	12
98	113	1
178	194	2
144	145	6
181	191	2
65	66	6
21	22	13
102	139	6
81	81	18
2	2	21
111	111	11
33	34	8
61	129	3
6	17	5
35	36	10
54	54	15
29	29	23
68	69	1
183	190	2
195	196	13
167	167	9
85	86	15
152	158	1
140	143	4
0	0	13
63	63	14
148	149	8
158	158	17
24	33	5
97	172	1
60	75	1
37	40	1
176	177	2
163	164	4
102	103	7
3	31	2
129	131	4
152	152	19
46	47	12
187	187	16
40	54	1
34	36	3
201	201	19
37	38	7
98	98	16
9	10	14
211	212	8
146	182	4
19	19	22
168	168	12
12	13	12
5	6	4
177	178	2
56	84	4
179	179	15
69	69	27
227	236	1
19	20	9
190	191	7
28	33	9
161	165	7
38	42	5
104	125	2
3	8	2
205	205	12
186	188	1
40	40	19
2	3	7
139	182	3
227	228	2
95	99	5
130	153	3
30	211	2
101	101	13
203	204	10
34	34	14
30	36	5
108	116	2
157	157	11
98	100	6
65	67	4
116	116	4
107	120	1
193	193	19
70	70	17
19	68	2
85	85	22
11	11	17
52	52	10
58	63	5
233	233	19
51	53	5
14	170	1
148	148	5
45	45	19
180	180	7
77	80	2
151	163	6
139	140	6
26	27	2
240	240	17
62	130	2
72	73	3
81	101	1
40	42	4
197	198	9
156	165	1
158	159	5
100	100	17
203	234	3
178	186	7
122	122	9
113	118	1
126	126	9
164	165	8
28	45	6
232	232	17
32	34	5
102	102	14
79	79	18
147	148	10
66	66	15
7	29	6
58	60	9
18	20	6
208	209	1
138	138	6
239	240	1
103	104	12
117	118	6
11	12	16
61	128	2
227	227	26
156	156	8
39	44	2
154	155	2
185	193	5
63	64	13
103	109	1
219	232	3
203	203	23
69	77	1
95	96	2
50	53	1
186	189	5
181	182	5
49	63	2
1	229	2
77	82	2
176	176	6
153	157	2
53	54	10
21	23	13
232	234	3
213	214	4
24	36	3
50	54	6
18	18	25
196	196	12
216	228	3
129	130	11
60	61	4
193	196	4
30	32	1
98	119	2
70	72	2
189	189	15
16	16	11
4	4	18
10	10	30
209	221	3
195	195	6
215	216	8
61	61	14
102	140	2
74	75	7
209	209	14
96	96	8
184	185	8
32	33	12
181	181	10
237	238	8
221	223	10
47	68	2
101	109	4
24	25	6
103	108	4
134	176	4
127	127	3
215	215	10
183	183	5
215	229	7
54	56	3
95	95	12
144	146	5
98	171	4
140	141	6
144	147	5
22	22	18
197	197	19
111	112	11
89	89	3
0	2	5
200	201	8
79	80	3
229	230	6
56	82	7
2	138	2
173	174	8
211	228	2
65	135	1
172	172	23
0	6	5
176	204	4
88	89	4
148	152	1
104	105	9
2	12	1
100	131	1
160	161	4
231	232	6
193	194	4
25	25	11
80	84	8
64	65	4
186	186	11
96	97	8
36	36	8
206	206	12
110	110	8
196	198	3
88	105	4
39	67	2
91	91	2
162	180	4
235	236	13
28	46	3
107	107	5
10	12	3
106	120	2
163	179	4
55	59	1
143	170	2
99	206	3
34	35	10
61	118	3
32	51	4
66	67	5
57	78	4
44	74	1
33	38	2
66	68	3
10	24	3
226	233	1
185	186	4
202	234	3
232	233	4
31	33	3
96	98	1
241	241	12
107	108	8
16	19	4
125	126	5
31	31	19
169	171	4
110	113	1
82	85	3
238	239	7
211	217	3
50	64	6
208	208	8
178	178	8
138	139	8
240	241	2
187	190	3
126	127	7
75	78	5
62	62	25
199	206	3
201	207	6
139	143	2
35	37	1
213	226	2
56	59	2
24	28	8
162	189	1
50	52	4
30	30	25
114	116	3
157	166	5
175	176	1
58	61	2
228	228	9
12	14	3
32	48	2
45	46	3
38	39	5
28	37	1
233	234	5
108	108	5
122	124	2
14	18	5
138	142	1
26	85	2
95	125	1
198	212	1
29	30	8
69	70	6
14	16	10
36	67	3
210	211	5
127	128	9
35	35	11
217	231	3
208	222	2
8	30	1
159	159	5
33	53	1
179	189	2
27	73	3
21	24	2
214	221	2
39	41	1
23	30	2
139	156	1
81	83	5
7	30	4
20	69	3
226	229	2
242	242	5
121	124	3
115	117	3
0	22	6
4	5	9
175	178	1
178	193	3
105	107	1
207	207	18
241	242	1
103	103	13
108	127	1
114	122	4
188	190	2
216	217	2
143	147	4
194	213	1
80	81	5
33	33	28
38	44	3
16	20	6
45	47	2
188	189	3
134	175	1
169	170	4
199	200	8
179	183	3
71	73	2
11	13	2
113	121	1
151	151	15
228	229	3
164	166	3
117	117	9
124	125	11
139	142	11
10	86	1
212	214	4
19	34	5
181	185	1
130	130	8
215	219	2
129	129	8
42	43	2
179	182	3
149	160	2
159	167	1
214	227	1
165	166	8
163	165	1
211	218	3
83	87	1
185	198	2
75	104	1
15	20	1
108	124	1
11	36	1
44	46	5
220	222	6
33	35	4
59	66	4
116	118	3
49	57	2
76	103	1
209	220	2
141	143	3
224	231	2
154	165	2
162	165	1
31	35	4
26	73	2
97	113	3
135	135	4
22	228	1
224	225	2
20	24	2
23	29	6
124	124	6
118	120	1
167	168	4
150	173	8
41	137	3
166	166	6
143	144	1
148	150	1
163	163	8
47	47	7
142	143	2
70	235	2
184	192	3
225	231	5
38	43	1
36	48	5
37	42	2
145	147	2
23	37	4
197	219	2
228	231	2
108	109	3
29	152	2
100	142	4
49	50	2
113	115	3
202	202	8
134	135	2
13	15	3
220	230	2
149	161	2
84	85	3
77	78	5
112	121	1
168	176	2
222	223	2
27	29	1
113	113	9
82	84	1
21	34	3
154	164	5
73	74	2
55	61	2
84	132	1
128	129	7
15	137	10
171	176	4
22	36	1
197	215	4
12	31	6
15	42	2
207	233	6
192	194	3
54	55	6
23	217	2
140	140	8
157	158	7
4	16	2
8	9	7
180	209	2
166	171	1
195	218	1
164	185	2
200	212	3
20	37	1
10	39	2
153	178	2
10	30	3
225	232	2
56	58	3
30	35	2
49	59	3
225	227	1
4	20	2
4	17	1
135	136	6
163	166	5
171	171	11
8	15	1
55	56	4
155	157	2
169	175	3
114	115	4
105	172	1
40	45	1
5	7	2
115	115	10
76	104	1
134	136	1
42	71	3
39	46	1
11	29	1
50	59	5
161	164	2
101	102	7
134	168	1
194	195	4
140	147	2
60	126	2
142	147	1
203	205	2
109	140	1
25	26	2
211	221	1
221	231	3
38	45	3
97	115	3
181	187	3
39	40	2
64	64	11
149	150	10
70	133	5
234	236	1
209	210	4
63	126	1
6	8	2
134	169	1
101	105	1
108	123	3
75	119	2
169	176	1
154	160	1
109	110	1
121	123	1
59	63	1
156	157	3
31	34	1
180	183	2
178	180	2
1	134	1
21	25	1
183	186	1
168	169	1
125	127	1
43	44	5
155	156	2
78	80	2
219	226	1
178	179	3
34	37	3
143	145	3
146	148	3
22	24	3
152	153	2
96	125	2
2	137	2
100	103	2
11	135	4
179	181	3
0	226	3
153	155	1
49	61	1
165	167	3
106	139	1
64	68	2
205	207	1
12	138	4
120	120	4
2	79	3
5	16	3
48	52	4
171	172	4
217	230	2
56	85	3
172	195	3
212	213	1
28	29	5
168	181	4
151	153	4
83	85	3
146	147	2
153	177	1
149	152	1
19	23	4
26	205	1
108	115	3
97	114	1
153	164	3
184	186	1
138	140	1
15	21	1
136	137	2
83	214	1
154	154	3
160	160	4
9	23	2
220	224	1
187	238	2
141	156	2
10	73	1
184	187	4
152	196	1
219	220	1
124	127	3
55	89	1
96	206	1
131	132	1
167	180	1
214	229	1
204	205	1
164	183	1
9	136	1
183	242	2
177	205	5
234	237	1
100	135	1
19	21	1
101	139	1
75	76	4
197	226	1
68	70	2
97	124	1
101	103	1
60	62	1
201	202	2
7	137	2
40	46	2
37	45	3
62	65	1
146	165	2
61	69	3
36	65	1
165	183	1
61	115	2
96	116	2
50	56	1
70	71	2
98	172	3
122	127	1
181	183	1
146	164	1
97	136	2
8	18	2
115	118	4
3	16	2
198	201	3
107	115	1
122	129	2
81	205	2
89	105	1
211	213	3
5	17	3
189	190	4
96	127	3
73	103	2
64	131	1
223	224	4
156	201	2
105	106	1
211	224	1
194	201	1
132	134	1
15	35	1
14	23	1
79	142	1
81	86	1
140	156	1
49	56	4
28	38	2
31	32	2
149	159	2
122	161	1
194	196	2
152	159	2
105	125	2
27	70	1
221	224	2
233	235	1
156	159	2
26	28	1
62	125	2
141	144	1
36	53	2
166	167	3
17	156	1
152	182	1
104	123	1
106	109	1
1	151	1
86	87	2
205	208	2
88	107	1
116	117	4
73	234	1
180	181	1
147	173	1
185	187	1
61	62	1
81	88	1
16	23	1
13	16	2
9	207	1
162	163	2
89	119	1
80	82	2
56	83	1
39	70	1
88	119	1
137	144	1
156	164	1
52	59	2
213	217	2
99	108	2
198	208	2
10	31	1
211	222	2
210	223	2
185	191	3
105	108	1
63	68	3
221	229	1
113	114	2
144	166	2
58	66	1
227	231	1
157	159	2
48	66	1
77	119	2
3	7	1
153	154	1
91	119	2
37	43	2
98	205	2
25	35	1
81	95	1
155	167	1
106	121	2
50	58	2
47	64	1
121	122	2
169	200	1
35	43	1
26	38	1
182	183	3
141	167	4
95	167	1
203	236	2
171	173	2
6	27	2
58	68	1
220	225	1
133	175	1
10	11	1
186	187	2
119	129	2
180	239	1
18	48	1
6	20	2
102	142	1
26	66	1
131	131	2
41	42	2
174	181	1
58	64	1
64	66	1
1	135	1
10	32	1
4	8	1
100	107	1
165	165	1
3	12	3
208	211	2
56	81	2
57	89	1
64	70	1
171	178	1
43	46	1
26	217	1
141	181	1
11	143	2
198	200	2
30	33	1
156	158	1
23	24	1
92	104	1
211	214	1
202	203	1
180	190	1
100	143	2
60	69	1
151	166	1
232	235	1
58	62	1
122	128	1
195	207	1
130	155	1
7	17	2
121	129	1
41	78	1
183	188	1
2	4	2
52	56	2
149	218	1
86	101	1
83	215	1
1	3	1
162	209	1
133	135	3
198	215	1
50	57	1
166	198	1
69	74	1
61	70	1
152	154	2
56	90	1
48	51	1
6	11	1
158	163	1
123	124	1
6	9	1
81	82	1
156	169	1
23	218	1
228	230	1
98	99	1
6	213	1
217	219	2
135	137	1
10	25	1
101	114	1
139	145	1
21	228	1
81	85	1
200	205	1
156	168	1
