187	189	3
2	2	3
86	87	1
83	83	3
99	99	7
191	194	5
160	160	5
96	96	4
239	239	8
112	113	4
241	241	8
35	36	2
64	64	1
114	114	12
233	233	11
208	209	1
175	182	8
181	181	12
25	25	5
153	161	1
106	107	5
150	150	4
206	211	3
238	239	3
229	229	12
121	193	1
94	94	7
110	207	2
38	38	4
119	119	8
152	152	4
116	116	3
50	50	5
100	101	8
183	183	2
208	208	7
56	66	3
64	68	2
213	214	1
159	175	5
173	186	2
207	207	10
57	60	8
237	246	1
44	44	15
28	28	15
87	87	4
187	236	3
210	211	4
81	82	3
92	92	12
223	223	10
117	120	1
204	204	10
199	228	3
152	153	1
11	11	11
164	165	2
152	166	1
107	107	7
51	51	7
214	214	14
23	23	8
188	201	9
230	230	4
60	60	10
195	195	6
34	34	4
202	202	8
1	1	6
100	100	4
79	79	6
156	156	10
112	112	7
151	172	2
41	41	9
41	42	8
96	108	3
196	196	8
230	231	5
215	215	3
48	50	3
87	88	3
198	198	6
37	76	1
161	230	2
241	247	2
20	20	13
108	108	8
218	218	7
168	168	8
172	195	3
157	176	6
25	42	2
59	60	5
182	182	12
213	232	3
36	36	7
71	71	4
104	104	4
161	161	9
74	116	8
32	32	4
21	21	4
79	80	2
235	235	5
82	82	3
34	60	2
192	192	5
110	110	8
226	227	1
60	61	11
31	31	9
42	66	1
107	108	3
102	102	5
22	23	1
163	164	2
49	50	7
55	55	3
184	184	6
57	58	3
62	226	4
67	67	8
205	205	11
166	166	3
98	99	3
98	98	11
50	76	1
193	193	15
243	243	5
244	246	4
151	151	6
158	158	6
9	9	5
73	73	4
150	162	1
58	58	7
154	233	1
19	19	4
155	155	6
197	198	7
45	46	1
182	183	1
37	42	1
94	119	2
194	195	5
192	206	3
204	227	3
178	247	4
162	230	3
78	81	2
74	74	7
224	224	3
56	56	6
216	216	7
165	166	2
118	119	4
77	77	2
40	40	8
110	112	2
29	29	7
173	173	4
66	66	1
204	205	2
236	236	5
219	219	6
108	109	4
157	192	1
20	36	2
46	46	3
199	239	2
71	73	4
228	228	2
5	5	6
119	178	1
241	242	1
240	240	6
106	106	1
197	228	6
63	63	7
153	249	1
52	52	9
118	118	1
47	48	3
195	196	2
227	227	6
200	201	5
39	39	9
246	249	4
222	222	2
48	48	7
200	200	11
113	113	4
7	7	7
244	244	3
186	186	11
6	44	2
33	34	4
176	177	2
154	155	2
203	203	8
91	101	5
12	26	1
17	17	4
41	64	3
4	19	6
111	111	2
209	209	4
6	6	4
176	176	8
147	147	5
244	248	1
222	223	3
159	159	7
201	202	1
153	153	4
24	24	1
237	237	7
62	63	2
245	245	8
43	43	9
237	238	2
33	33	4
95	96	3
85	86	1
228	229	3
18	18	3
236	237	1
225	227	5
201	209	3
162	168	2
95	95	15
208	237	3
34	40	3
26	27	1
102	169	3
212	212	6
232	233	5
170	175	3
10	10	3
179	184	1
168	191	1
160	185	1
62	228	3
218	248	4
115	115	3
75	76	7
14	14	5
9	10	5
45	80	2
79	100	1
67	68	5
57	71	2
68	69	1
201	201	8
185	185	6
167	229	2
180	180	1
199	225	1
88	88	1
58	59	1
220	220	4
47	47	3
179	180	1
0	1	1
190	190	4
234	234	9
57	59	4
33	91	1
26	26	7
8	8	2
154	234	1
112	242	1
59	62	2
248	248	5
224	225	2
225	225	5
237	239	1
51	62	3
197	206	1
167	169	1
111	112	1
155	220	2
236	246	1
170	170	4
200	205	1
197	200	1
159	183	4
204	222	1
181	182	1
78	78	4
38	42	3
171	171	3
177	179	3
171	175	4
189	189	3
165	167	4
69	77	1
167	167	7
197	233	2
64	73	1
22	22	3
175	176	4
179	206	1
45	45	5
146	146	3
69	70	4
168	169	2
91	95	1
84	88	1
201	207	1
166	170	1
173	184	2
231	231	2
103	103	3
170	181	1
146	188	1
179	205	1
247	247	11
246	246	2
217	217	1
19	21	1
172	172	1
151	171	3
4	5	2
203	204	3
225	226	3
205	207	1
105	106	1
6	17	2
90	90	3
177	204	2
92	95	2
146	147	5
27	27	3
187	187	2
54	54	3
210	210	4
76	76	1
49	87	2
227	228	2
174	174	5
233	234	5
2	3	2
96	107	1
39	40	3
167	168	1
154	230	1
154	231	1
153	171	4
26	42	1
190	191	5
114	118	3
169	169	2
153	242	3
199	200	3
153	232	2
86	86	4
116	234	2
211	211	4
37	39	3
232	232	6
178	178	1
165	231	1
20	22	1
89	90	6
8	9	1
30	46	1
154	154	4
160	161	1
156	207	1
221	221	5
45	81	1
67	240	1
205	206	1
199	224	1
192	209	1
62	62	1
15	16	2
53	53	2
176	210	3
249	249	1
213	213	1
2	20	1
116	236	1
35	61	3
165	171	2
148	180	1
157	157	9
75	85	1
152	165	2
35	50	1
188	188	7
144	209	1
238	238	4
229	230	1
85	85	3
192	193	3
157	196	1
230	232	6
114	116	1
172	219	1
92	103	1
100	209	5
179	179	6
78	88	1
211	237	1
153	168	2
207	229	2
183	184	4
198	200	2
32	228	1
196	209	7
50	68	2
188	189	5
179	230	1
60	62	3
77	92	1
191	192	2
154	199	2
12	12	3
35	39	1
194	194	3
228	235	1
11	18	1
42	42	4
92	96	3
120	120	5
193	194	1
87	89	1
34	46	3
200	244	2
68	239	3
159	181	2
100	208	2
176	179	2
216	217	1
80	84	1
40	48	1
56	57	6
35	40	1
105	105	1
61	61	5
208	210	1
89	91	3
79	101	1
88	89	2
24	25	2
160	183	1
205	208	1
231	232	1
241	243	1
58	75	2
211	212	3
77	78	1
210	239	1
181	214	1
68	68	2
157	158	1
49	78	2
113	114	1
86	100	1
61	76	1
109	110	1
97	98	2
36	37	1
169	170	2
217	218	1
53	55	1
247	248	1
214	215	1
52	53	2
96	98	1
83	85	2
80	113	1
199	199	3
212	219	1
35	35	3
198	199	1
226	228	1
194	196	1
117	145	1
117	117	2
232	234	3
109	207	2
38	172	1
70	70	1
174	178	1
184	185	2
110	151	2
62	72	1
191	191	2
175	183	1
110	117	1
206	207	1
221	222	1
202	203	1
42	51	2
175	175	1
80	80	2
72	74	1
226	226	1
20	111	1
72	72	1
242	242	2
153	187	1
65	65	2
69	69	1
59	59	1
109	109	2
181	242	1
144	179	1
37	73	1
39	68	1
37	37	1
199	210	1
177	178	1
109	193	1
80	82	1
155	161	2
178	248	1
145	145	2
157	216	1
239	240	1
164	164	1
117	152	1
187	188	1
178	179	1
182	232	1
194	230	1
169	174	1
64	65	1
64	66	1
34	35	1
93	95	1
205	237	1
237	247	1
63	70	1
186	193	1
33	53	1
49	49	1
171	214	1
166	169	1
30	30	1
0	0	2
89	119	1
91	91	2
41	153	1
183	230	1
186	191	1
176	182	1
165	165	1
36	113	1
190	193	1
