100	127	2
119	119	5
18	63	1
135	136	2
17	17	3
70	84	4
33	34	1
109	109	8
15	15	6
57	63	3
53	53	4
108	108	2
8	9	3
56	56	6
83	90	1
113	113	1
3	3	7
80	81	5
57	57	5
91	91	1
4	4	7
45	46	3
18	57	4
153	153	14
121	125	3
131	141	1
101	102	6
81	90	1
141	141	6
107	108	4
25	25	11
83	86	4
55	55	13
115	121	1
117	118	2
122	124	6
49	169	3
154	154	9
121	133	1
48	50	5
50	51	1
126	126	12
136	137	4
83	83	1
40	40	5
37	43	4
71	71	3
44	44	10
47	48	2
121	121	3
160	161	5
117	117	2
104	106	4
1	2	2
99	99	8
145	145	5
70	77	1
49	49	4
51	51	4
165	165	6
21	21	3
105	106	2
141	142	2
57	164	3
6	147	3
153	154	2
28	28	6
39	41	3
68	68	2
113	114	2
127	127	2
76	80	7
94	96	2
98	99	2
2	2	6
136	136	8
63	63	5
40	49	1
24	51	1
49	168	2
18	92	7
46	46	5
1	130	4
123	123	3
104	104	4
22	22	2
40	41	1
156	156	5
109	155	2
38	40	3
112	113	1
27	27	7
170	170	5
62	63	4
110	156	4
97	100	4
93	93	3
34	34	4
163	163	1
168	170	2
65	66	3
115	115	4
109	157	2
169	170	2
128	128	7
86	87	3
103	103	6
77	77	4
137	137	4
37	39	3
15	51	3
69	85	3
12	12	3
103	128	2
75	75	2
87	93	2
91	92	4
8	8	3
124	125	3
126	153	1
18	18	7
5	5	9
115	122	3
126	127	3
122	133	1
37	44	2
24	24	2
42	42	2
38	38	5
120	123	3
152	152	6
87	87	1
132	132	7
39	39	10
94	94	3
88	88	7
6	6	4
62	125	2
74	75	3
101	101	2
134	134	3
87	91	4
123	124	2
120	124	3
124	162	3
9	10	4
168	169	3
108	109	1
35	35	3
112	112	7
41	41	3
9	9	4
44	45	2
37	46	1
13	13	10
19	57	2
68	85	1
144	144	1
47	47	11
155	155	5
105	113	1
150	150	7
123	161	2
72	72	5
36	36	6
92	93	1
161	164	2
135	135	4
148	148	5
133	133	6
105	105	4
133	134	1
15	16	1
84	84	2
56	117	1
55	56	2
10	13	4
75	86	2
64	64	3
45	45	3
43	43	1
157	157	3
140	141	1
34	53	1
34	35	5
76	89	1
129	129	8
52	52	7
57	68	1
16	16	2
98	98	2
147	147	2
75	116	1
69	71	1
77	79	5
76	77	4
110	110	1
33	33	7
68	69	4
17	51	1
14	14	5
151	151	10
61	124	1
10	11	3
21	41	2
50	50	3
49	50	3
158	158	4
80	80	3
66	66	6
164	164	4
108	146	4
106	106	3
25	27	1
11	12	3
37	37	7
54	70	3
15	40	1
120	150	1
95	95	1
43	107	1
20	20	1
23	23	3
119	120	1
21	22	1
40	63	2
78	81	1
14	16	1
67	69	3
69	69	2
155	156	1
132	136	2
5	6	2
149	149	2
138	169	1
110	126	1
19	19	1
62	116	1
1	1	3
96	97	1
6	9	2
12	39	1
95	101	2
10	10	7
90	90	2
48	48	6
37	45	2
96	96	1
125	151	1
14	52	1
132	162	1
26	28	1
69	70	1
8	62	3
7	116	1
38	39	2
160	160	2
87	90	1
129	130	2
26	26	1
53	108	3
37	38	1
50	55	1
4	111	1
135	167	2
86	154	1
161	161	2
16	19	3
63	162	2
9	15	1
119	162	1
64	160	2
76	76	3
39	49	3
56	57	1
42	43	1
11	11	1
70	83	1
82	82	2
140	140	2
99	127	1
16	23	1
53	54	1
107	107	1
52	53	2
130	130	1
91	160	1
81	82	4
81	81	3
10	113	3
115	116	2
23	58	1
73	74	1
18	40	1
162	163	1
102	102	2
126	154	2
41	104	1
86	140	1
117	124	2
85	87	1
16	18	2
70	72	1
146	147	1
146	146	3
90	152	1
134	135	2
72	73	2
168	168	1
80	92	1
108	158	2
46	47	1
162	162	1
13	34	1
89	169	1
12	123	1
52	120	1
68	93	2
93	164	1
83	159	1
7	8	1
84	169	1
39	40	1
161	163	1
116	163	1
89	167	1
53	56	2
19	91	1
166	166	1
139	153	1
90	91	1
10	112	1
85	138	2
63	165	1
86	152	1
25	26	1
125	125	2
14	39	1
0	0	1
