27	92	4
131	131	4
36	36	4
129	129	2
8	8	6
100	100	4
58	58	4
19	19	13
11	11	12
23	23	4
127	131	1
128	128	5
73	73	8
25	25	6
46	46	5
29	29	11
35	36	4
61	61	10
27	35	2
94	95	8
47	47	17
4	4	10
108	109	2
69	69	9
116	116	10
110	111	5
77	78	2
75	76	1
62	62	11
28	29	2
103	103	3
48	48	11
16	31	4
101	101	8
75	75	13
18	18	13
81	81	6
35	57	3
24	24	1
14	14	1
109	111	1
35	35	8
11	45	1
30	32	3
13	14	4
44	58	2
2	3	1
103	105	1
117	131	1
91	92	2
87	87	4
70	70	3
107	107	5
3	92	3
68	68	12
120	120	7
26	26	3
99	101	2
29	30	2
87	100	3
99	99	7
93	93	2
114	114	2
34	34	5
125	125	3
7	7	3
126	126	4
33	59	2
12	12	6
72	73	6
65	65	7
126	131	2
10	120	1
15	29	1
17	17	15
102	103	1
9	10	5
85	85	12
59	60	4
130	130	3
13	13	3
27	28	4
83	93	2
111	111	8
72	72	10
41	41	3
64	64	4
74	74	5
121	121	3
26	27	1
5	31	3
59	86	4
77	77	4
117	118	3
11	39	1
8	84	1
7	11	1
79	80	1
15	33	2
104	105	3
113	113	8
12	19	4
118	118	7
45	45	11
26	34	1
33	33	8
76	76	12
34	35	2
6	6	10
43	107	3
78	78	5
25	26	2
69	120	3
9	9	9
128	129	1
61	76	1
20	20	3
42	42	7
47	48	2
43	77	1
95	95	5
91	91	3
67	67	5
86	87	4
83	83	6
81	82	3
59	59	5
57	57	4
90	90	1
49	49	2
55	56	2
83	84	4
48	60	1
100	101	1
81	100	1
15	15	4
1	9	1
13	94	1
63	63	3
111	112	6
44	46	3
21	22	3
19	79	1
88	89	1
41	81	2
16	16	2
88	95	6
0	0	4
66	66	6
11	69	1
30	33	3
80	81	1
40	42	1
109	109	1
21	60	3
45	73	1
56	57	1
94	94	4
129	131	1
124	125	3
14	23	1
27	27	5
3	3	3
85	86	2
95	96	4
11	130	1
38	38	2
2	102	1
124	124	8
15	18	1
56	56	2
55	55	3
65	66	2
110	110	5
71	71	3
17	73	2
9	12	1
126	128	3
98	98	4
31	32	2
84	84	6
32	32	3
123	123	1
28	33	1
60	62	1
82	82	4
112	113	3
0	64	2
21	57	2
10	10	6
121	122	1
26	32	2
39	50	1
40	41	4
42	43	1
16	17	2
90	101	1
11	20	2
77	120	1
97	97	2
30	30	3
42	77	1
46	63	1
19	44	1
48	88	1
80	80	2
22	24	2
45	62	1
37	58	3
122	124	3
47	58	1
24	80	1
41	78	1
82	84	1
70	120	1
32	33	1
96	96	4
39	80	1
41	42	2
57	58	2
86	86	5
13	73	2
69	70	4
95	100	1
62	63	1
21	21	2
134	134	2
108	108	2
116	117	2
35	79	1
17	26	1
85	88	1
133	133	2
16	47	1
27	97	1
5	114	3
102	105	1
26	38	1
35	74	1
79	79	2
50	50	1
122	122	1
130	134	1
104	104	2
26	90	2
47	87	1
5	5	1
31	33	1
35	44	1
116	129	1
17	19	1
123	124	1
124	126	2
89	89	1
6	7	1
73	74	1
56	94	1
114	125	1
31	31	1
23	24	1
22	22	1
82	83	1
96	97	3
8	10	2
64	65	1
78	79	2
67	68	2
98	100	1
15	16	1
46	75	1
91	93	1
23	74	1
19	69	1
102	102	1
27	59	1
111	113	1
21	41	1
68	69	1
95	97	1
88	88	1
21	37	1
19	77	1
77	79	1
47	113	1
