43	43	7
70	70	5
36	37	2
96	96	6
111	111	9
24	24	7
30	30	9
62	71	4
40	40	3
73	73	1
63	64	2
35	35	1
64	64	5
104	104	2
30	31	4
30	113	4
42	42	2
45	45	8
23	24	1
24	25	2
54	54	8
76	77	6
112	112	5
49	49	7
81	82	1
94	94	1
90	98	6
78	79	1
85	85	4
51	51	1
62	63	2
82	82	6
31	31	9
22	25	1
86	86	6
90	91	4
81	81	4
107	107	7
46	46	5
85	86	1
20	54	3
83	83	2
98	98	6
84	107	1
38	39	2
110	110	1
47	47	7
71	71	2
90	90	1
37	40	4
87	87	5
82	83	3
59	61	2
56	57	2
23	51	6
63	65	5
99	99	7
38	111	1
22	26	2
23	23	1
103	105	1
44	44	2
83	86	2
60	60	3
36	36	9
87	96	2
87	99	1
38	66	2
74	75	1
93	93	9
101	101	2
24	27	5
48	48	3
65	65	2
57	109	4
80	111	1
20	52	1
34	34	3
51	53	2
76	81	2
96	97	2
88	88	1
56	58	2
103	104	1
61	61	3
107	110	2
37	38	4
24	82	3
28	29	2
76	76	1
104	105	1
37	37	4
95	96	2
70	71	1
19	19	1
54	60	2
63	100	2
55	55	4
109	109	2
84	85	1
102	104	1
74	74	1
34	44	2
104	106	1
33	33	5
113	113	1
33	84	3
65	66	4
56	72	4
104	111	1
20	30	2
100	105	1
91	91	1
21	21	3
68	69	1
68	100	2
62	62	3
25	32	5
114	114	1
50	52	1
33	34	2
72	78	2
26	72	3
71	77	2
66	67	1
43	45	1
27	27	1
50	50	1
77	77	2
52	52	1
84	84	2
85	90	2
101	103	1
28	28	1
78	78	3
77	87	1
88	92	1
25	47	2
62	78	3
32	47	1
24	51	1
38	110	1
100	101	1
25	25	1
101	102	1
39	39	2
59	62	1
73	115	1
53	61	1
41	41	1
96	99	1
25	73	2
103	103	1
24	78	1
25	31	1
22	30	1
84	86	1
108	108	3
32	46	1
86	88	2
106	106	2
99	113	1
70	109	1
89	89	2
56	56	1
82	91	1
27	31	2
100	100	2
98	99	1
87	88	1
77	81	1
111	112	1
75	75	2
95	95	1
83	84	1
22	28	1
51	52	1
72	72	1
26	26	1
98	112	1
92	98	1
22	61	1
54	57	1
23	61	1
45	46	1
