76	76	12
41	62	2
55	56	15
16	16	9
12	54	3
54	55	9
5	15	1
26	26	12
15	16	9
17	17	14
52	52	7
6	6	5
68	68	7
33	35	5
37	38	1
64	65	7
8	8	2
10	13	1
75	75	6
72	75	5
45	45	12
9	33	4
3	10	4
11	11	6
35	35	11
46	46	8
0	0	5
42	79	4
67	67	11
48	48	13
21	29	4
59	70	1
28	28	10
27	28	5
51	52	3
5	5	18
49	52	2
66	66	9
72	73	7
14	14	5
55	55	7
39	39	18
26	29	1
56	56	24
73	78	3
75	76	4
56	57	6
31	36	6
78	78	15
4	4	5
36	36	1
2	2	9
25	27	2
27	35	8
16	17	5
17	27	2
44	45	1
53	54	1
48	49	1
66	76	2
0	3	3
42	42	18
48	56	3
46	47	2
69	71	3
10	50	2
12	14	9
63	65	4
37	37	15
8	33	2
62	67	1
70	70	8
50	51	3
10	11	8
68	70	3
62	62	11
27	27	10
47	48	3
25	31	8
53	53	3
75	77	4
13	13	1
11	16	2
30	31	1
21	21	3
56	71	2
7	7	17
3	13	1
19	36	3
54	63	2
25	39	2
74	75	2
11	12	3
73	73	10
16	66	5
0	1	6
54	54	7
20	21	9
41	41	12
36	37	1
17	78	4
69	70	2
34	34	10
61	72	2
55	77	2
27	65	2
40	40	13
64	64	22
33	33	7
46	53	5
8	16	1
80	80	8
6	16	3
67	68	3
70	71	2
74	74	15
25	25	4
12	12	3
69	69	7
67	70	1
19	19	6
11	51	3
57	58	5
60	60	5
29	30	2
43	43	3
54	75	4
11	21	1
57	57	1
59	66	2
3	5	2
20	20	4
73	79	1
11	15	4
80	81	2
35	76	3
61	62	1
9	9	8
31	31	4
2	4	1
79	79	5
63	64	2
15	15	5
3	3	4
9	10	3
79	80	1
31	32	4
21	52	4
66	71	1
29	29	7
3	7	1
47	47	7
1	2	3
65	65	5
18	19	1
51	51	3
71	71	2
6	79	1
71	72	2
41	79	2
63	74	1
59	60	2
30	79	3
13	26	2
38	38	4
12	13	2
1	1	4
66	67	3
31	33	2
39	48	1
5	6	6
71	80	2
5	7	2
60	71	1
61	61	7
8	11	2
74	77	1
42	46	2
13	14	1
10	10	6
13	33	1
66	70	1
38	39	2
42	78	1
32	33	2
18	18	3
64	71	2
38	43	1
49	49	4
34	35	1
50	52	2
19	29	1
32	32	3
9	11	2
11	13	1
77	77	1
36	40	1
55	72	1
77	78	1
72	72	1
30	36	1
18	27	1
20	30	1
5	72	1
39	46	1
26	39	1
15	17	2
3	9	3
12	55	1
52	53	2
7	28	2
5	54	1
50	50	2
19	79	2
3	4	1
5	25	1
9	34	1
8	12	1
2	7	3
4	5	1
31	39	1
42	43	1
74	80	1
55	57	1
21	30	1
38	41	1
39	40	1
7	26	1
19	28	1
12	49	1
78	79	1
60	66	1
0	15	1
