101	101	18
91	91	10
18	19	5
121	121	13
17	23	3
25	25	13
19	19	13
55	59	3
2	2	17
85	86	6
71	71	25
15	16	8
70	70	10
76	77	4
9	9	17
117	117	22
99	118	2
12	12	21
115	116	13
49	49	33
19	26	3
54	54	10
38	38	6
33	33	25
24	24	9
48	48	29
39	39	9
30	30	13
73	74	1
107	107	15
47	47	18
122	122	23
98	98	10
105	105	21
18	18	7
61	61	3
46	46	14
65	65	5
104	106	1
32	32	24
83	83	6
93	94	6
84	84	22
12	20	2
13	13	23
108	108	17
133	133	9
125	125	3
45	47	11
104	105	6
112	112	27
43	44	5
123	123	15
42	42	17
6	7	12
113	113	31
69	69	19
1	1	16
100	100	13
106	106	12
17	18	5
41	41	10
63	65	1
89	89	11
10	11	1
114	114	18
2	7	3
39	73	1
40	40	8
20	20	24
101	102	18
45	45	6
65	67	3
3	4	5
57	57	8
8	8	21
0	0	12
7	8	8
3	3	18
79	79	18
51	51	35
6	6	13
90	92	8
99	103	5
28	29	5
67	68	10
124	124	28
27	28	7
0	1	5
72	76	7
42	43	6
102	102	14
60	60	2
72	72	20
112	115	3
27	27	15
55	56	10
100	118	6
118	119	3
16	17	4
76	76	47
29	29	4
110	110	14
55	55	15
94	94	16
86	86	9
121	124	4
63	63	16
82	82	7
43	43	10
96	96	12
14	14	7
15	126	3
129	129	11
75	78	8
93	93	23
114	116	2
80	98	4
118	118	11
114	115	3
121	122	12
103	126	3
49	50	10
96	105	4
59	63	9
88	88	4
64	64	12
120	121	4
90	90	4
46	47	14
126	126	10
0	129	3
72	73	10
47	48	8
75	75	6
11	11	12
14	20	2
6	117	4
48	49	6
111	112	3
11	31	3
128	128	18
0	122	10
52	52	30
42	44	8
110	111	5
76	79	1
56	57	13
95	95	17
7	7	9
105	109	4
114	129	2
54	55	6
20	21	3
92	92	11
62	63	4
112	113	15
124	125	3
44	44	5
87	89	8
13	14	5
92	94	4
70	71	6
50	51	10
109	109	15
31	32	11
123	124	9
68	68	7
127	128	3
19	20	1
85	85	12
84	85	2
31	31	10
76	78	9
21	24	2
58	58	22
110	112	2
55	60	4
33	39	1
103	103	10
73	73	7
127	127	8
28	28	11
66	66	9
104	131	4
75	76	4
115	115	4
111	111	18
92	93	1
13	23	7
78	78	2
56	56	6
95	96	11
131	131	7
32	33	5
28	30	3
62	62	9
50	50	20
5	5	10
15	18	2
86	87	6
129	130	6
4	4	6
44	46	2
13	22	3
104	104	7
97	98	5
12	13	6
75	77	5
61	62	1
120	120	30
86	89	3
87	88	7
64	65	3
45	46	11
15	15	11
63	64	3
96	98	8
13	19	15
15	17	11
102	104	1
27	29	9
38	40	2
72	74	2
31	76	2
115	118	1
92	98	3
94	95	1
77	108	3
40	41	6
23	23	8
27	31	2
126	127	5
6	8	2
32	64	3
66	67	2
109	111	2
52	53	6
118	120	2
69	85	2
10	10	27
72	75	1
3	16	2
132	132	8
53	53	12
80	81	4
121	125	2
80	80	9
47	105	2
58	60	1
117	128	4
13	125	1
88	89	11
108	118	5
127	130	3
103	104	2
58	62	3
82	84	1
66	97	1
105	123	1
98	102	9
40	46	4
72	84	1
68	69	4
78	81	5
67	67	6
125	129	5
14	39	2
97	97	5
130	130	10
2	132	5
104	123	1
80	96	1
53	54	5
21	21	3
38	41	3
22	22	4
117	120	5
8	105	3
79	80	7
17	17	10
77	77	4
19	21	6
20	26	2
125	130	5
57	58	1
6	119	2
34	34	2
107	108	2
128	130	3
114	117	3
2	6	2
96	104	2
125	127	2
76	105	2
45	71	1
22	23	3
32	40	1
5	6	5
113	114	3
98	103	2
100	103	1
105	106	3
113	116	2
44	45	2
9	10	4
77	78	3
131	132	1
87	94	2
71	72	2
1	12	1
6	54	3
112	121	4
93	96	2
124	131	2
34	76	1
85	88	3
94	102	4
85	87	1
92	99	6
16	16	10
51	53	5
101	103	1
65	79	1
112	124	2
49	123	1
67	73	3
78	79	3
48	104	4
26	120	2
78	80	8
69	70	2
59	59	2
125	126	3
97	99	2
27	111	2
119	119	8
66	68	2
25	26	3
97	108	4
5	55	1
104	115	1
70	74	1
4	6	3
117	118	3
55	61	2
17	58	5
2	14	1
100	114	1
90	91	4
116	116	6
8	125	1
106	107	2
5	107	2
113	132	1
109	110	4
80	125	1
46	105	1
114	118	3
26	27	4
21	23	4
61	72	3
4	16	2
60	61	2
4	5	2
83	88	1
105	113	2
81	82	2
4	55	1
0	13	1
121	123	1
38	39	1
48	115	2
128	129	3
116	118	1
94	114	1
12	29	1
51	52	6
37	37	1
83	95	1
107	117	1
100	102	3
102	103	5
105	124	1
92	102	1
99	99	7
40	42	1
3	15	1
81	81	5
106	109	7
4	127	3
8	9	1
80	82	2
32	115	3
41	42	3
13	27	2
124	133	2
81	86	2
106	110	1
33	65	2
73	75	1
91	92	1
74	74	4
62	72	1
15	19	1
12	31	4
60	70	1
122	123	1
21	26	1
91	118	1
59	61	1
9	29	2
73	76	1
59	60	1
12	125	2
16	24	1
56	85	1
12	32	1
119	127	2
118	128	1
2	5	1
106	111	1
54	59	1
113	133	1
15	20	1
86	88	2
57	72	1
13	18	1
77	79	1
117	131	1
106	116	2
3	5	1
26	26	1
11	12	2
33	72	2
47	104	1
74	75	1
99	100	2
93	124	2
75	79	1
60	63	1
5	119	1
89	91	1
15	22	1
89	90	3
58	59	1
63	105	1
38	65	1
9	105	2
69	94	1
23	25	1
90	102	2
13	24	1
122	125	1
54	56	1
23	24	1
2	3	1
44	74	1
119	126	1
