37	37	32
64	64	23
139	140	10
141	141	15
98	98	17
20	21	11
26	26	16
46	49	7
110	110	24
148	152	3
54	54	19
113	113	30
87	87	10
145	160	1
89	89	20
63	69	12
20	20	43
128	128	25
39	39	26
55	55	33
77	78	7
128	130	3
169	170	9
118	119	5
116	117	2
8	8	14
36	36	41
87	123	1
3	3	31
112	112	31
34	34	34
10	10	15
169	169	15
72	72	17
5	21	3
65	65	7
47	47	19
110	111	5
19	25	2
120	120	12
121	121	14
38	38	20
21	38	2
42	42	41
143	143	23
19	19	18
0	0	13
167	167	18
161	161	15
155	157	2
62	62	7
10	13	5
126	126	11
0	97	1
94	95	12
51	51	27
134	134	15
136	155	2
53	53	15
142	142	11
118	118	11
70	70	12
155	155	16
112	114	2
133	133	15
35	35	43
71	71	11
158	158	9
130	130	13
49	49	9
12	18	1
90	90	9
90	91	15
84	84	10
134	135	2
40	40	23
44	45	20
21	22	13
56	57	6
43	43	34
131	162	2
4	37	2
116	116	12
12	12	16
86	86	11
46	48	7
123	126	2
80	80	17
15	16	11
99	99	10
107	107	11
100	101	7
142	144	14
148	148	8
48	48	13
47	49	8
95	99	2
54	55	5
45	46	2
81	81	17
164	164	18
24	25	12
141	142	4
8	10	8
24	24	22
152	152	12
109	109	21
8	99	5
16	17	1
16	16	13
162	162	13
146	146	7
9	9	29
10	11	10
167	168	6
6	6	24
151	151	12
124	124	13
39	41	4
82	83	9
88	89	14
41	42	12
91	91	13
159	159	15
106	107	7
4	5	8
56	56	19
100	102	4
96	96	8
168	168	17
27	27	38
22	23	11
149	149	24
65	69	1
145	145	8
14	14	19
124	125	10
41	41	17
123	123	6
165	165	12
129	130	9
137	137	6
35	36	9
100	100	20
52	65	5
93	94	5
104	104	13
101	101	19
11	11	27
115	115	11
43	47	4
99	100	10
46	47	9
144	152	2
36	37	4
108	108	15
16	19	3
12	13	3
114	116	6
170	170	17
98	121	1
160	162	4
23	23	20
80	81	5
39	45	2
11	12	12
113	158	3
149	151	3
135	136	8
101	108	2
21	21	7
106	106	11
105	105	11
14	15	9
156	156	26
95	95	17
105	106	11
9	46	5
138	152	1
153	159	2
64	68	4
4	4	36
94	94	14
23	25	2
154	155	3
10	19	6
157	157	16
83	83	17
62	63	4
92	93	2
102	114	8
155	156	12
125	126	6
13	13	20
14	169	5
93	93	6
79	79	8
81	82	4
67	70	5
123	124	4
46	46	22
136	144	2
114	126	4
133	134	3
121	159	2
15	15	20
67	68	4
48	49	12
25	25	16
13	15	6
2	9	1
5	5	23
46	51	2
109	110	4
12	157	1
18	24	2
49	77	4
166	166	10
2	2	24
68	68	14
85	87	7
119	119	13
7	7	12
5	37	2
17	54	1
91	93	5
13	21	5
78	79	8
96	115	1
8	19	4
91	95	3
162	164	6
148	149	6
73	73	9
103	104	14
150	151	13
45	115	5
126	127	7
122	126	4
144	144	19
54	56	2
147	156	6
88	88	9
138	139	3
70	73	2
37	56	1
147	147	8
136	137	5
19	21	2
79	80	8
147	170	3
52	52	17
112	113	12
119	120	14
92	92	13
17	17	16
117	120	5
84	87	4
122	123	1
20	22	5
96	113	2
50	52	2
28	28	2
136	136	29
142	161	2
44	46	3
77	77	5
137	138	5
12	14	5
76	76	13
101	102	5
66	66	8
143	144	10
125	125	15
86	87	6
11	54	2
154	154	16
11	19	3
50	51	3
153	153	11
121	122	9
82	82	5
5	38	2
0	1	1
127	127	11
2	3	7
103	103	6
140	140	6
89	90	6
39	40	11
139	139	13
102	102	24
141	159	1
129	129	13
97	125	6
78	78	3
151	152	2
71	73	5
5	6	3
147	155	6
33	33	16
85	85	18
49	50	3
147	148	3
13	75	1
18	40	2
151	154	2
79	82	1
158	159	4
111	112	5
100	105	1
125	130	3
72	74	2
74	74	5
114	114	8
1	1	19
118	120	1
24	38	2
23	71	1
131	131	14
42	43	15
111	111	15
21	23	1
163	164	9
71	89	1
53	55	3
74	75	4
164	165	9
63	64	7
151	166	4
87	90	1
160	160	14
26	44	2
36	40	6
0	2	4
79	81	5
77	80	3
99	122	1
21	61	3
45	45	23
17	18	4
150	150	9
69	69	7
129	142	1
118	131	3
24	41	2
118	132	1
50	50	5
18	20	4
138	138	4
44	44	9
142	153	2
107	108	4
37	38	10
33	34	6
110	112	1
45	50	3
78	84	1
4	149	2
147	150	1
22	108	2
13	17	1
21	24	1
19	28	2
47	48	6
43	44	5
114	122	2
51	52	2
22	51	1
44	73	3
150	154	1
76	79	2
157	163	7
18	22	1
128	129	2
27	40	1
108	109	7
77	84	2
18	18	15
57	58	4
168	169	8
9	39	2
61	62	5
13	18	1
1	26	1
80	93	1
135	135	7
73	75	5
141	143	1
144	145	3
142	143	4
124	155	1
102	103	1
146	149	1
57	57	8
83	114	3
71	72	5
151	153	3
0	13	2
52	56	2
95	96	7
42	44	4
130	131	2
4	38	1
109	111	2
114	115	6
77	85	1
131	132	6
39	58	4
117	118	1
38	39	1
35	92	3
146	163	2
21	25	2
96	97	2
94	101	3
15	24	3
75	75	9
34	35	1
161	163	4
129	131	3
22	81	1
57	67	4
57	62	1
140	159	1
113	114	5
47	77	3
155	167	2
148	156	4
10	100	4
132	132	11
23	47	4
139	141	2
91	92	3
76	80	1
1	2	7
42	45	3
145	146	1
67	67	4
122	122	8
38	41	2
6	12	2
8	13	2
107	109	1
102	104	2
25	41	3
13	14	2
148	164	4
58	62	3
20	25	2
52	64	2
71	74	2
26	27	3
75	76	7
22	22	8
66	69	1
55	56	4
161	167	2
25	27	2
149	152	1
118	121	1
163	163	6
113	121	3
53	54	4
163	165	3
70	71	1
18	25	1
70	97	2
130	151	1
63	63	11
146	147	3
145	168	2
162	163	10
3	4	5
138	141	4
55	111	1
101	105	3
85	91	1
33	35	4
101	104	1
7	90	1
124	127	2
8	9	2
12	97	1
86	93	2
83	88	1
143	160	3
86	91	1
119	124	3
23	28	1
23	62	3
6	7	1
75	95	3
87	88	3
76	92	1
131	133	1
37	53	1
9	100	2
4	12	2
122	124	1
125	156	4
130	156	3
8	14	3
127	153	1
11	15	2
38	42	1
2	5	3
88	135	1
123	129	4
72	77	2
4	11	1
157	158	4
161	162	2
8	12	2
86	90	1
160	161	1
109	112	3
115	116	3
16	41	1
140	142	3
23	115	1
53	57	1
38	47	1
37	42	1
44	74	2
69	70	6
152	153	1
108	110	1
23	39	3
65	66	1
6	16	1
86	98	2
98	100	1
97	97	3
117	117	4
115	154	1
148	153	4
24	39	3
4	6	3
100	103	2
15	23	2
119	122	2
70	72	2
62	103	1
47	50	1
136	154	3
135	139	2
1	4	1
112	141	3
150	152	1
45	54	4
52	74	1
12	40	2
90	105	1
88	99	1
74	110	4
56	82	2
116	121	2
15	107	1
43	45	2
85	86	1
98	119	1
6	45	1
13	22	5
139	142	4
98	99	2
120	121	1
117	121	1
14	170	1
20	23	1
8	24	2
10	12	2
97	99	1
0	5	1
101	103	1
1	112	1
145	147	1
53	109	2
152	154	1
15	39	1
147	154	2
68	69	1
12	19	1
23	24	3
42	52	1
19	20	2
87	155	2
1	111	1
162	165	1
20	52	1
112	116	1
97	98	1
53	110	1
26	113	1
22	39	1
150	167	1
86	95	1
123	130	1
15	19	1
8	97	2
117	119	1
90	92	2
44	50	1
159	162	2
114	137	1
165	168	1
83	84	1
144	162	1
125	133	3
90	106	1
124	156	2
54	109	1
58	103	2
165	166	3
81	105	3
73	74	1
121	123	1
127	160	1
132	133	1
86	123	1
41	44	1
91	96	1
7	21	1
11	110	1
91	94	1
127	129	1
6	37	1
9	10	1
88	98	1
36	130	1
45	47	1
72	73	1
71	75	1
140	141	1
156	161	1
159	160	1
53	71	1
77	91	1
104	105	1
8	20	1
133	135	1
