19	21	2
104	104	3
114	114	4
73	74	1
109	109	2
12	15	4
111	112	2
13	15	1
96	96	1
50	77	2
100	100	4
129	129	2
58	90	6
19	20	2
106	106	8
128	129	3
102	102	7
126	127	1
76	76	5
77	77	12
55	56	5
55	62	3
26	26	7
97	97	6
67	67	4
112	119	2
108	111	2
60	61	2
45	45	3
64	65	3
117	117	6
36	36	1
20	20	4
88	101	6
75	75	1
87	87	9
114	117	1
15	15	1
31	31	5
18	117	1
118	118	3
14	76	2
110	111	9
72	79	5
123	129	6
6	6	1
79	106	2
32	32	1
83	84	5
78	78	3
86	87	6
65	68	2
120	120	4
31	32	2
25	26	1
18	19	6
35	38	2
83	83	4
125	130	2
126	126	4
48	48	3
101	105	7
57	107	2
52	52	8
72	73	3
89	89	3
106	108	4
97	98	2
9	9	7
87	88	3
67	131	1
94	95	2
1	2	4
51	110	3
84	84	9
56	62	1
27	32	2
64	96	1
73	73	3
110	110	5
13	34	3
39	44	2
62	64	1
79	79	1
70	127	2
127	128	3
3	3	1
70	70	1
64	64	5
50	62	5
103	104	2
82	82	2
8	8	2
22	22	5
29	29	7
57	57	5
122	122	2
37	37	2
129	131	3
71	132	2
98	98	2
134	134	2
99	100	1
61	61	4
68	68	6
33	48	3
121	121	3
86	88	1
15	33	5
94	94	2
95	96	1
16	16	5
112	112	4
25	56	1
131	131	3
50	60	1
74	74	4
120	121	2
75	115	2
19	19	3
34	35	3
12	13	3
7	7	3
4	4	1
81	81	2
128	128	1
103	111	1
23	23	2
89	102	2
116	116	5
34	34	5
10	10	2
91	91	4
74	75	1
6	7	1
135	135	3
18	18	1
57	78	3
47	54	2
113	115	2
17	17	4
61	62	3
102	103	1
31	72	2
3	27	1
58	58	3
25	25	1
49	50	4
33	33	1
18	21	1
22	23	2
36	49	1
57	61	3
90	127	1
105	105	2
119	119	2
7	24	1
78	106	2
10	44	1
64	66	1
15	63	1
8	14	1
12	33	2
47	47	1
82	96	3
20	44	1
14	14	1
54	54	4
50	64	2
115	115	4
74	79	1
63	63	3
63	110	1
69	69	1
111	118	1
26	36	1
74	103	1
85	85	2
133	134	1
2	4	1
3	4	1
86	86	2
52	61	3
9	11	2
118	119	1
101	101	2
43	84	1
53	53	1
127	127	1
14	15	1
96	107	1
125	126	1
112	113	1
13	16	1
96	97	1
44	78	1
55	98	1
93	98	1
99	118	2
10	43	2
132	132	1
50	50	1
89	90	2
77	81	1
114	115	2
101	114	1
130	130	1
47	110	1
43	45	1
123	124	1
1	1	1
111	113	1
79	109	1
70	128	1
54	61	1
80	80	1
124	125	1
56	56	1
111	111	1
113	114	1
42	45	1
92	93	1
2	2	1
