6	6	5
142	142	7
60	61	1
38	38	18
22	30	1
64	147	3
101	109	1
7	7	6
129	129	9
167	167	5
42	42	4
11	11	3
8	19	3
106	107	4
140	140	10
64	64	10
28	28	9
126	126	5
22	29	1
141	141	1
130	130	9
65	65	7
148	148	5
145	156	3
5	6	7
8	8	6
127	130	5
55	55	4
106	122	2
83	83	4
106	118	1
32	32	10
7	9	1
28	39	1
40	40	5
15	15	13
123	123	11
125	170	1
152	155	4
45	45	9
29	32	1
34	34	12
3	3	14
136	145	3
139	149	1
169	169	6
53	90	2
2	3	5
92	121	1
33	33	13
158	174	3
83	91	2
135	135	8
86	87	3
64	65	1
168	168	3
160	169	1
77	81	7
22	22	9
151	152	1
12	12	10
97	97	4
35	41	5
133	133	4
0	27	2
59	99	2
43	43	11
105	107	4
19	19	4
0	32	3
170	170	3
25	26	4
122	122	7
139	139	6
86	86	2
62	62	3
5	5	15
3	11	1
30	30	5
178	178	4
61	85	1
8	45	1
172	172	2
61	87	1
99	100	2
101	102	1
25	25	9
128	158	1
8	22	2
109	109	5
61	61	2
67	67	8
157	158	4
21	21	3
31	31	7
72	72	6
155	155	5
96	106	3
26	26	8
136	139	3
153	153	9
84	84	1
114	115	3
76	78	2
158	160	2
75	75	2
1	1	7
131	145	3
59	59	6
16	16	12
11	45	1
41	41	7
17	23	1
145	145	6
4	4	5
53	87	3
136	136	6
60	85	1
7	20	3
50	51	3
103	103	2
74	130	3
85	85	3
174	175	1
11	30	6
17	25	2
38	39	6
76	83	3
146	147	1
107	109	2
152	153	6
94	106	3
158	158	1
117	117	5
162	162	9
54	87	2
152	152	1
2	5	3
111	112	5
53	109	2
80	81	1
132	172	1
53	54	6
55	95	3
138	138	4
39	39	7
43	44	6
115	115	2
24	25	6
149	149	1
165	175	3
15	29	1
125	125	9
157	170	4
60	76	4
27	27	8
96	96	2
36	37	2
13	13	11
75	88	1
1	2	3
71	71	2
141	142	2
156	160	2
43	45	3
76	76	5
146	177	1
7	22	1
5	23	1
78	78	4
68	68	4
116	117	2
19	25	2
13	44	5
161	162	3
66	96	2
2	10	1
15	39	3
101	162	2
63	81	4
16	153	3
35	35	5
107	107	2
88	88	1
6	29	2
175	175	2
177	177	3
19	41	1
92	122	4
114	118	1
171	171	3
19	28	2
99	99	3
42	43	4
55	94	1
6	9	1
5	7	2
70	71	5
128	170	2
22	23	5
79	79	5
17	17	4
112	112	5
80	80	7
29	88	2
110	110	3
113	113	3
126	171	2
107	118	4
26	31	1
74	102	2
9	17	3
31	50	2
174	174	5
26	41	1
51	122	2
10	41	2
111	118	2
77	78	2
140	141	4
144	144	4
10	32	4
28	57	2
73	150	4
9	9	9
103	105	1
78	81	1
156	156	6
71	138	1
22	131	1
154	155	3
17	36	2
126	127	2
89	90	3
104	104	4
61	62	3
91	107	5
10	17	3
163	169	2
159	167	1
18	19	5
29	141	1
98	99	1
81	82	2
37	40	1
131	131	3
59	60	4
5	153	1
37	37	11
127	129	1
63	63	4
114	114	1
105	105	5
8	41	2
111	111	6
101	160	1
68	78	1
159	166	1
51	51	3
19	21	1
23	25	2
10	10	4
150	150	2
33	34	2
124	124	4
73	73	3
105	106	1
165	165	4
143	143	7
121	122	3
118	118	6
58	84	2
95	95	7
92	102	2
93	93	5
163	163	7
118	119	1
136	144	3
125	171	1
16	37	1
54	54	1
92	131	2
15	35	6
1	38	3
24	72	2
4	6	2
157	160	1
101	110	2
8	9	2
135	175	2
29	29	9
53	53	1
22	41	1
44	44	4
33	39	1
73	128	3
14	14	6
24	24	5
168	178	1
90	90	5
10	44	1
29	31	3
118	166	1
143	144	4
2	2	8
70	105	1
56	57	3
179	179	2
0	149	1
10	11	1
134	142	1
15	30	2
132	149	2
17	18	2
127	127	3
3	6	2
18	18	5
32	51	1
146	146	2
8	42	3
29	30	3
98	98	2
84	86	1
13	29	2
25	39	1
68	75	2
28	64	3
119	119	2
26	28	3
28	59	1
134	134	3
57	89	1
37	39	2
52	101	1
2	20	1
23	23	5
108	160	1
11	112	2
128	128	2
132	132	2
14	16	2
54	110	1
12	17	1
65	66	1
2	35	1
1	24	1
139	148	1
137	173	2
20	20	4
22	34	1
91	92	2
117	156	1
87	165	2
169	170	1
16	42	1
81	81	8
52	54	3
106	106	2
112	125	2
59	61	1
17	33	1
111	114	3
92	92	1
88	89	1
134	174	2
49	49	2
9	12	1
7	41	1
108	108	3
6	7	5
158	159	6
36	36	4
18	20	2
66	66	1
68	84	2
57	57	3
136	174	1
14	17	1
120	120	1
15	16	4
8	20	2
135	159	1
58	59	1
11	35	1
96	98	2
161	161	1
28	33	2
5	9	1
76	95	1
144	179	1
22	99	1
6	20	1
12	13	6
58	78	1
108	153	1
71	72	3
2	11	1
179	180	2
77	77	2
61	63	1
108	109	1
87	87	1
20	43	2
127	157	1
30	57	2
11	12	1
52	53	3
0	1	1
7	8	4
91	94	1
151	168	3
100	100	1
135	136	1
18	32	2
142	143	1
90	91	1
14	29	1
16	36	2
173	177	1
2	8	1
32	33	2
136	161	1
141	144	5
36	53	2
0	37	2
176	176	1
39	40	3
168	170	1
176	177	1
61	64	1
74	128	1
30	31	1
158	173	2
110	117	2
12	45	1
157	159	1
130	153	2
53	112	2
0	22	3
151	151	2
120	121	2
135	140	2
112	118	1
58	58	2
173	173	3
74	74	1
18	22	1
10	33	1
60	60	1
15	31	2
35	36	1
34	35	1
147	172	2
125	126	1
159	159	2
23	67	1
93	94	1
24	26	1
133	156	1
166	166	1
96	117	1
121	121	1
4	16	1
92	93	1
0	0	1
49	89	1
15	20	1
4	5	1
14	28	1
59	102	1
42	44	1
159	160	2
72	92	2
85	86	1
166	167	1
115	116	1
31	56	1
155	156	1
143	179	1
28	84	1
79	80	1
56	56	2
0	38	1
38	40	1
9	41	1
110	129	1
35	44	1
160	160	1
102	102	1
104	105	1
156	178	1
76	126	1
135	157	1
27	31	1
133	134	1
4	7	1
116	118	1
3	4	1
24	38	1
116	116	1
138	139	1
122	123	1
102	107	1
126	156	1
1	31	1
128	130	1
9	44	1
23	27	1
31	35	1
160	162	1
14	44	1
