50	92	4
72	72	15
108	110	2
20	20	1
60	60	6
97	97	9
21	21	3
78	85	1
94	98	1
86	87	8
57	58	2
96	97	3
101	102	2
67	86	1
33	33	9
96	96	4
20	21	1
81	81	4
22	22	8
94	94	17
108	108	9
75	75	2
47	47	4
73	73	7
63	71	3
100	100	12
80	80	1
62	71	2
43	43	6
31	32	1
27	27	2
71	71	4
105	105	5
86	91	3
91	94	5
74	75	4
50	50	2
65	65	5
67	67	4
73	76	3
56	56	12
44	44	3
55	56	5
99	100	2
99	99	4
55	58	8
82	82	2
87	87	9
29	29	1
113	115	3
109	109	6
32	32	11
45	46	1
102	102	7
46	48	1
64	64	6
84	84	14
92	92	4
78	79	4
39	60	4
103	106	3
35	35	7
42	42	9
40	40	2
82	85	3
69	69	4
35	36	3
81	83	4
78	78	6
72	75	3
66	66	13
112	112	6
79	83	5
43	44	6
58	61	1
70	70	4
88	88	5
63	63	2
46	46	6
104	105	3
106	106	3
64	66	1
111	111	7
83	85	2
95	95	7
52	52	4
108	109	2
27	28	5
38	38	8
42	43	2
110	110	9
41	47	2
103	103	4
78	82	3
110	112	5
36	48	4
26	27	2
37	42	1
86	86	7
90	91	1
32	33	1
56	57	3
101	101	6
62	63	8
68	68	6
30	30	3
64	69	7
63	64	2
28	29	2
87	91	2
103	104	3
64	67	2
26	26	3
102	106	2
64	65	1
60	61	2
80	82	2
41	41	5
54	58	3
62	69	2
57	57	3
78	81	3
48	49	2
45	45	2
98	98	3
35	38	1
28	28	5
84	95	3
80	81	1
90	98	5
81	82	2
79	80	4
94	109	2
37	37	5
104	107	2
26	28	4
37	39	2
51	51	1
77	77	6
105	106	1
114	114	4
81	85	1
49	49	2
84	85	2
111	113	2
90	112	2
65	69	2
90	90	4
79	81	2
104	104	3
93	97	2
56	58	4
53	59	1
89	89	3
36	36	2
36	37	4
109	110	2
89	97	2
102	103	3
72	73	2
62	94	1
107	108	2
63	65	4
68	70	1
76	77	2
74	86	1
61	64	1
91	111	1
91	91	2
91	93	2
23	24	3
70	71	1
34	60	1
71	75	1
40	60	1
92	94	2
91	96	2
113	113	4
88	91	1
79	86	1
63	69	3
39	61	3
39	39	3
98	100	1
62	62	3
34	35	1
59	59	8
52	56	3
40	41	3
76	76	1
107	107	3
59	63	2
106	107	1
29	30	4
85	85	4
95	97	1
70	72	1
94	108	1
40	42	1
110	111	1
53	96	1
41	42	3
58	58	2
98	99	3
82	86	1
94	95	1
64	68	1
71	72	3
114	115	1
34	34	2
68	69	1
70	75	2
71	73	1
69	108	1
85	86	1
40	48	1
23	23	1
58	62	1
98	101	1
111	112	1
52	66	1
102	108	1
83	83	1
19	20	1
