16	16	4
72	74	3
47	68	6
27	27	10
95	95	1
89	89	20
131	136	5
84	84	9
16	17	8
107	107	9
56	56	11
104	104	17
173	173	2
5	5	8
45	45	5
106	106	12
27	30	2
128	152	5
157	157	3
144	144	7
1	2	5
110	148	1
67	67	1
162	162	7
85	151	4
181	182	1
48	48	8
165	165	6
39	57	4
123	123	5
154	154	4
126	126	2
92	92	9
53	53	3
145	145	4
87	91	3
44	44	3
25	26	7
63	63	3
164	188	2
14	14	9
71	84	1
142	142	6
107	146	5
73	73	4
45	46	2
27	89	4
36	36	6
131	159	4
105	105	6
71	78	1
28	98	1
11	11	6
134	138	2
64	65	2
131	131	8
61	61	3
133	133	10
39	39	8
34	37	3
100	105	2
80	80	4
47	61	1
110	128	4
83	83	12
18	45	4
4	5	2
101	119	1
96	159	2
76	76	16
53	54	1
17	26	3
1	1	6
138	138	5
161	161	3
40	40	7
86	91	5
109	160	5
131	148	1
131	132	1
64	64	6
24	26	5
185	185	3
122	123	2
140	140	11
23	23	4
20	42	4
21	21	4
32	32	6
70	70	3
8	12	6
160	160	1
139	166	3
10	13	2
72	73	9
85	86	2
5	7	1
12	23	4
35	35	8
58	68	2
3	4	8
156	188	3
154	155	3
102	102	8
98	98	3
22	22	3
86	86	9
187	187	1
134	137	1
6	6	4
0	34	3
42	42	9
0	31	4
148	148	2
97	131	2
29	33	2
19	44	5
49	66	1
122	122	7
91	94	3
156	157	3
37	37	5
124	124	5
18	18	4
109	110	6
125	127	1
130	130	2
170	172	5
22	24	2
77	77	14
24	63	1
170	170	4
110	110	2
65	65	8
12	12	1
116	117	3
48	57	4
85	85	5
52	53	2
141	141	5
137	137	6
81	81	6
70	82	3
121	126	1
59	59	1
25	25	2
78	79	5
55	55	4
7	7	5
67	68	2
5	6	1
28	46	3
72	72	4
46	61	4
94	95	1
3	23	5
111	111	2
99	99	4
35	36	3
108	109	3
54	54	4
84	85	3
91	91	3
23	24	7
105	106	1
91	97	4
108	108	6
68	68	4
127	128	5
188	189	3
73	74	4
58	58	1
105	116	1
24	24	1
149	149	7
96	154	6
55	56	6
62	66	3
55	57	4
160	186	5
155	155	1
20	25	2
167	168	3
188	188	5
21	53	1
41	41	4
182	183	1
176	176	5
71	71	9
77	78	3
163	163	9
113	113	10
108	146	6
159	159	5
26	74	2
138	139	2
97	99	5
70	88	2
44	93	5
147	147	3
38	38	8
101	118	1
91	93	1
0	0	6
96	97	1
143	148	2
93	93	3
96	155	3
34	34	4
20	20	4
166	166	3
141	142	1
121	124	3
115	118	1
60	60	6
180	182	4
73	103	2
0	27	2
91	129	2
12	13	3
12	98	1
156	156	6
150	150	4
112	138	1
135	137	1
118	119	3
81	82	3
134	136	2
16	19	2
90	93	3
10	10	2
181	181	5
128	150	4
32	34	3
80	81	5
23	26	3
174	174	6
100	137	1
146	146	10
2	2	10
125	125	10
113	146	6
92	93	4
106	128	1
8	8	5
58	64	11
103	103	3
25	54	5
115	151	5
46	46	4
65	78	2
81	85	2
82	82	5
78	164	2
172	172	3
43	43	4
37	41	3
158	161	3
127	127	13
28	28	1
154	160	4
165	189	1
129	129	7
66	66	2
36	52	2
32	33	2
138	149	1
8	13	2
128	128	4
33	33	5
175	176	2
40	87	4
97	145	1
97	97	3
177	177	10
6	54	2
95	159	2
153	153	5
175	175	4
157	187	2
25	31	3
95	97	1
184	184	4
169	169	4
98	116	1
75	80	3
12	97	4
10	22	2
121	121	1
107	147	2
96	96	6
62	63	1
117	162	5
105	147	1
25	38	2
151	151	4
135	135	2
86	87	1
57	57	5
80	82	1
130	146	2
164	164	5
100	127	1
111	129	1
13	13	3
29	30	5
90	90	4
140	143	3
43	86	2
156	159	4
180	180	2
155	156	10
87	88	1
117	117	4
74	103	1
15	15	5
130	148	1
116	128	2
171	171	6
97	130	1
54	56	1
96	98	1
109	109	4
115	115	11
138	167	3
101	105	2
148	162	1
30	31	7
102	103	1
21	22	3
95	153	1
26	26	3
148	152	2
41	66	1
19	19	10
85	89	2
3	3	1
0	38	3
98	145	1
137	149	3
178	189	1
142	143	1
1	34	1
112	112	3
82	83	1
16	20	3
28	43	1
114	114	2
21	48	2
152	153	1
143	143	5
70	73	1
139	139	3
77	83	2
22	53	2
168	168	1
183	183	1
136	137	1
152	152	5
174	190	1
107	113	2
47	48	1
100	120	3
151	152	2
84	88	2
105	136	2
74	74	2
30	33	1
31	33	3
146	151	1
179	181	2
71	100	3
56	57	1
90	94	1
30	30	2
149	150	3
1	3	1
92	145	1
99	100	2
136	136	1
117	119	1
29	36	4
76	85	1
35	39	2
158	158	2
40	41	2
75	75	2
113	124	1
99	120	1
125	126	1
79	79	5
127	137	2
124	125	2
78	80	1
10	53	4
109	111	1
22	52	2
137	138	4
100	100	2
108	118	1
69	70	2
17	17	1
78	84	1
62	62	1
149	154	2
17	18	4
189	189	2
126	127	2
9	10	3
91	152	2
146	150	1
52	52	1
189	190	1
47	67	1
87	87	2
27	28	1
145	148	1
107	124	1
106	151	2
101	101	4
157	164	1
96	99	2
130	132	2
97	98	1
40	67	1
173	174	2
155	163	1
36	38	2
109	143	1
114	115	1
78	78	3
110	154	1
106	111	1
28	36	1
24	54	1
70	83	2
190	190	1
21	59	1
61	65	1
186	186	1
130	149	1
105	137	1
95	109	1
61	64	1
155	158	1
102	113	5
13	14	1
157	158	2
36	37	2
33	34	1
133	148	2
23	88	1
21	63	1
172	179	1
74	121	1
120	120	1
114	151	1
73	104	1
6	7	1
105	118	2
108	117	1
143	144	1
179	179	2
24	88	1
80	156	2
125	128	1
164	189	1
30	46	1
5	8	1
37	38	3
98	114	1
8	24	1
97	116	1
178	181	1
181	190	2
177	178	1
101	102	1
19	20	1
178	178	1
136	149	1
187	188	1
129	149	1
122	125	1
116	116	1
127	135	1
77	84	1
68	73	1
33	38	1
134	134	1
