87	88	10
111	111	35
12	12	10
59	59	15
69	69	20
84	84	15
92	92	10
110	110	14
111	117	3
96	96	10
120	120	17
27	27	18
33	33	3
52	53	7
54	54	18
39	55	7
117	117	12
90	90	34
121	121	23
56	56	30
112	112	12
113	125	3
0	1	8
114	114	1
129	130	17
109	110	1
126	126	18
10	10	13
116	118	2
5	5	22
106	106	13
102	102	15
101	129	1
131	131	10
10	12	2
57	57	13
109	117	3
105	107	3
108	110	3
97	97	13
69	77	2
15	18	3
113	123	4
13	13	19
7	9	4
103	103	15
46	109	5
71	72	11
93	93	7
81	81	8
81	83	1
66	66	4
132	132	8
105	105	12
89	92	5
131	132	10
119	119	14
2	14	3
96	97	6
47	48	3
95	95	10
47	47	11
23	23	6
6	6	16
118	118	17
10	11	6
23	25	3
87	87	1
28	28	17
80	81	3
116	120	1
22	22	18
1	1	6
29	29	8
74	74	18
109	109	11
104	121	7
113	113	4
83	83	8
40	42	4
18	21	4
51	51	19
20	20	5
85	85	23
16	18	3
46	64	1
108	118	5
18	19	14
118	119	9
108	109	9
46	47	19
7	7	9
8	8	11
10	30	6
123	124	10
84	87	5
122	122	23
19	19	14
49	49	24
116	116	6
65	66	8
13	16	1
68	68	9
114	116	6
79	80	10
70	70	15
130	130	7
48	48	14
89	90	11
80	80	11
68	112	6
61	61	11
95	108	2
84	85	2
65	65	14
11	30	1
76	99	2
77	77	18
3	3	1
28	31	6
86	86	14
44	44	6
9	9	19
113	115	2
31	31	8
14	16	6
73	73	7
101	101	13
42	96	4
80	85	5
45	45	10
53	53	15
125	125	8
124	124	19
94	94	5
110	111	15
112	124	6
16	16	8
115	116	6
63	72	2
27	28	3
56	69	1
3	4	2
16	17	7
16	20	3
49	50	1
52	52	21
101	102	3
2	2	9
59	74	4
104	106	3
62	63	4
63	63	2
53	54	7
0	0	14
102	112	2
113	114	9
76	76	11
13	14	8
3	10	8
89	91	7
88	93	3
46	53	1
124	125	5
89	89	6
50	50	21
43	43	2
104	109	3
46	50	5
112	117	8
46	54	1
113	129	2
113	120	7
78	78	3
32	32	7
98	99	2
23	24	2
5	13	7
116	117	5
72	72	10
129	131	2
133	133	3
50	52	5
19	20	7
12	15	2
101	114	4
21	21	16
106	107	4
86	88	5
43	47	4
0	10	1
48	55	4
28	32	1
71	79	5
40	63	2
74	96	6
107	107	9
51	52	9
112	113	4
2	6	2
55	55	9
102	103	4
115	115	17
74	75	5
105	106	3
98	100	2
11	11	5
49	54	3
104	108	4
28	43	2
114	118	4
75	75	13
26	26	13
59	60	3
105	109	1
6	12	3
45	54	2
14	14	5
48	57	3
98	98	16
76	80	1
2	3	3
104	112	2
71	78	2
100	100	2
11	18	3
114	115	4
125	126	1
50	56	3
63	64	4
68	72	2
38	38	4
82	84	2
99	99	18
25	25	2
12	93	1
43	44	8
79	79	11
126	127	4
120	121	7
118	126	2
98	105	3
49	122	2
30	30	10
23	26	7
127	127	8
25	26	5
84	97	1
60	60	8
123	123	6
68	69	3
103	108	4
58	59	2
76	79	3
82	82	4
58	58	10
89	93	2
56	57	8
99	100	9
2	5	1
99	108	2
109	119	2
12	63	6
1	2	2
29	56	2
31	49	2
9	10	7
32	40	1
110	125	1
15	15	6
12	27	4
121	122	1
128	131	4
104	120	2
21	22	2
48	50	7
19	21	4
27	58	3
85	88	5
113	131	2
64	64	3
8	11	5
29	32	1
97	105	2
112	116	2
112	115	3
91	91	1
46	46	10
67	68	2
20	42	2
11	31	1
38	55	1
72	73	3
75	97	2
42	42	3
44	45	8
73	74	8
28	29	8
129	129	9
119	126	3
114	125	1
49	65	1
108	108	1
59	63	2
116	125	2
29	57	4
86	89	2
75	77	4
57	58	3
97	98	2
29	30	5
28	30	2
120	123	2
21	23	2
107	109	5
5	12	1
12	20	2
13	43	2
93	94	4
84	102	1
10	50	2
41	41	4
107	108	2
18	18	4
79	87	1
76	81	1
101	108	2
1	6	3
18	42	3
88	89	4
31	32	3
26	27	4
104	104	4
33	40	2
20	21	2
88	88	5
72	74	5
10	81	1
124	131	1
0	6	4
75	79	1
12	13	3
13	26	2
108	111	4
91	92	3
49	53	1
44	54	2
117	126	2
6	8	1
4	19	1
24	25	2
88	92	2
118	131	1
56	105	4
30	39	2
46	66	1
75	99	1
107	110	1
119	123	1
29	31	3
128	128	2
106	131	2
76	78	1
110	120	1
17	18	4
109	126	1
41	43	1
5	19	1
70	120	1
43	74	1
59	79	1
8	9	2
45	47	1
96	99	3
101	104	5
126	128	3
19	50	3
59	98	2
91	93	1
45	46	2
48	49	2
50	51	4
109	111	1
64	66	2
88	90	3
71	71	2
76	96	2
69	70	2
51	54	1
42	62	2
82	86	1
42	43	3
40	41	1
105	131	1
11	29	1
66	68	2
117	119	2
5	6	2
30	43	1
5	18	1
42	55	1
103	107	1
6	7	1
45	63	1
95	96	4
38	39	3
45	57	1
68	131	3
41	55	1
106	108	1
51	56	1
115	117	1
110	114	1
32	48	1
7	8	1
3	5	1
79	84	1
61	62	1
46	48	1
30	31	2
127	129	1
46	62	3
113	130	1
76	77	1
39	39	1
66	67	1
29	58	1
77	78	1
55	56	2
103	113	1
17	17	1
123	125	1
14	26	2
101	130	1
66	109	1
86	87	1
11	92	1
77	99	1
26	58	1
100	101	1
13	42	1
81	118	1
44	51	1
114	120	1
114	117	1
