63	63	16
0	5	2
80	80	15
119	122	1
140	140	10
17	17	10
67	67	9
120	121	5
53	53	15
60	61	4
146	146	10
159	159	23
21	22	11
133	135	1
128	128	12
96	97	7
158	158	5
78	79	2
139	139	15
163	163	13
148	162	2
135	139	3
147	147	27
4	4	6
83	83	5
140	141	6
6	6	14
44	44	17
79	110	4
8	8	20
93	93	15
43	43	13
129	130	10
12	12	12
14	14	22
151	154	4
92	92	4
58	58	12
20	20	19
41	42	14
102	102	8
38	38	13
13	14	6
123	124	8
84	102	7
148	148	30
88	109	3
20	21	5
138	138	13
32	32	16
107	109	1
57	57	10
65	66	3
53	63	1
55	56	2
3	10	3
127	128	1
22	22	18
40	40	26
91	94	3
18	18	11
135	135	8
55	55	9
32	33	7
10	10	19
29	30	1
36	37	6
2	4	7
115	116	6
9	10	9
105	105	5
130	130	9
129	129	5
76	77	8
120	120	3
1	1	12
129	154	2
19	21	1
34	34	7
33	36	8
126	127	4
81	81	1
9	9	18
4	11	1
150	150	12
109	110	6
0	0	9
177	178	5
88	88	14
116	117	2
127	127	3
171	171	11
82	125	3
51	51	9
30	31	11
141	142	8
166	166	10
168	168	9
70	70	5
126	126	20
89	89	13
64	64	16
97	98	1
65	67	3
15	15	13
60	62	2
74	75	1
42	42	6
21	21	7
15	16	5
157	169	3
114	114	2
143	143	3
101	101	4
146	148	5
158	159	7
131	131	7
159	162	3
39	39	9
164	164	12
107	108	1
131	140	1
16	18	6
42	131	2
26	26	13
9	151	1
137	137	10
106	107	3
164	165	7
52	52	3
167	169	2
1	6	1
71	71	4
87	87	7
44	45	1
154	156	1
174	174	5
76	76	4
130	131	11
57	59	5
14	23	1
9	25	2
84	84	4
118	118	10
121	121	7
79	79	6
104	141	5
130	132	2
147	169	5
167	168	9
36	133	3
56	58	3
145	145	10
22	24	3
157	157	5
105	113	3
109	117	4
73	73	14
7	11	3
171	173	1
110	110	8
101	102	2
42	166	3
96	96	3
93	94	2
61	61	7
151	151	10
6	21	2
98	98	9
130	135	9
125	125	9
58	77	1
165	167	3
73	75	4
93	131	1
2	2	12
41	41	30
105	138	1
90	95	2
27	28	3
173	173	9
110	111	3
85	102	3
52	53	5
31	31	19
95	95	12
95	96	11
24	24	12
97	122	5
27	27	3
169	169	12
31	32	8
111	111	2
26	28	2
154	154	16
16	16	22
165	165	2
107	115	3
40	41	7
174	175	7
135	142	3
63	64	7
7	7	10
109	109	5
134	142	2
5	5	7
136	136	9
138	150	3
49	50	1
141	143	2
82	90	2
40	42	3
52	57	3
180	180	7
115	115	2
149	149	11
82	82	23
40	43	3
8	9	4
167	167	16
83	84	6
10	12	6
39	40	13
107	107	8
90	90	8
42	130	2
40	108	4
111	112	4
142	142	7
85	85	5
94	94	6
134	172	1
24	26	12
50	52	4
86	88	4
66	67	5
23	24	6
143	144	5
37	37	15
173	179	2
16	21	1
34	35	3
39	108	2
152	152	7
138	140	5
124	124	8
92	93	8
164	168	3
66	66	21
7	12	1
137	138	9
75	75	13
155	155	4
11	11	20
36	38	4
99	100	8
108	108	6
75	76	6
157	168	4
59	59	6
157	165	4
78	110	4
141	141	9
136	160	3
28	63	3
11	13	4
36	36	13
132	133	3
112	112	8
175	176	5
132	132	8
144	144	10
15	68	1
148	168	4
119	121	1
149	150	3
13	13	15
10	11	3
173	175	1
124	125	3
35	35	12
45	45	9
172	172	3
94	97	2
26	27	6
133	133	11
17	21	2
91	100	7
117	117	12
44	67	2
132	135	2
153	153	3
22	23	10
13	15	1
81	87	1
38	40	7
15	30	1
139	176	2
57	65	2
77	77	6
134	141	7
134	134	14
25	25	11
157	158	5
172	173	4
114	127	3
86	87	1
82	91	3
67	73	1
42	44	2
108	109	3
155	156	1
23	74	1
23	60	4
161	161	3
36	40	4
18	20	5
138	139	7
44	154	2
19	22	3
163	165	3
60	60	5
20	23	2
30	30	6
73	78	3
156	169	4
122	123	5
74	74	6
134	137	1
23	23	14
18	19	2
112	113	2
49	49	6
114	116	2
121	124	2
77	78	7
45	46	4
33	33	6
103	103	8
170	174	3
19	20	6
156	156	2
34	40	2
104	106	3
54	54	7
176	176	11
103	104	3
151	152	3
104	104	6
147	148	19
68	68	12
2	9	2
17	18	7
117	127	4
139	149	5
147	152	2
113	114	2
139	140	4
27	43	4
14	15	2
50	51	6
116	116	8
3	3	6
33	34	5
37	43	1
43	44	4
114	133	2
14	22	3
5	10	1
150	154	2
162	162	5
139	146	1
119	119	7
5	15	2
89	90	5
78	78	2
160	161	3
115	117	2
2	3	2
23	26	3
16	150	2
142	143	6
132	143	1
135	151	4
81	82	2
136	148	1
59	66	5
3	11	3
165	168	5
144	145	3
170	170	2
1	2	3
163	166	2
12	13	8
64	65	1
67	68	1
35	36	7
133	166	2
28	30	4
61	62	2
24	27	1
54	55	5
4	8	2
108	111	4
56	57	6
90	91	6
142	171	1
106	106	7
122	122	3
27	32	2
136	167	3
65	65	4
72	72	7
172	178	1
125	152	1
11	12	3
35	40	2
84	86	1
43	45	1
137	139	1
152	153	2
4	7	1
117	126	2
179	180	2
150	151	1
160	160	7
131	135	1
13	22	3
132	152	1
74	88	1
61	68	1
146	152	2
167	171	1
40	67	1
156	157	2
100	100	1
28	28	5
42	43	6
9	11	1
83	85	4
162	169	4
6	8	3
143	146	3
39	41	2
19	19	6
32	35	1
30	35	2
8	179	2
118	120	3
35	37	1
90	93	1
102	139	2
6	19	1
125	126	2
44	51	3
43	61	2
37	38	5
88	89	2
40	63	3
82	83	1
9	34	1
133	136	1
58	60	1
55	57	4
7	21	1
7	8	6
65	68	3
80	87	2
39	79	4
91	92	3
97	106	5
24	25	2
151	178	1
16	17	6
149	154	1
100	102	3
94	100	1
123	123	2
64	66	1
10	13	1
135	136	2
105	106	4
90	98	1
175	175	2
138	141	1
131	132	6
178	178	8
74	89	2
93	122	1
33	35	2
29	29	5
142	151	4
173	174	2
134	135	1
142	148	1
168	170	1
165	166	2
159	161	1
89	101	1
101	103	4
150	159	1
59	60	4
28	29	4
73	89	1
156	161	1
123	125	2
86	86	1
73	76	1
59	61	2
66	68	2
28	66	3
6	7	1
21	150	2
1	33	1
104	112	3
12	15	1
132	141	3
127	130	3
34	39	1
0	32	1
160	166	1
51	52	1
160	162	1
128	155	1
152	177	2
62	63	1
145	146	1
62	62	1
15	153	4
179	179	2
153	154	1
41	110	2
91	91	1
56	59	1
105	140	1
83	90	3
177	179	1
29	32	3
86	114	2
38	39	2
107	114	1
123	153	1
94	96	1
108	112	1
81	86	1
113	113	2
60	95	2
39	43	1
158	162	1
24	75	1
152	161	1
91	93	3
153	155	2
152	158	1
39	80	1
66	75	1
62	65	2
118	119	2
132	136	1
7	33	1
38	42	1
148	149	1
143	145	2
0	1	1
129	161	1
174	176	1
109	118	1
57	58	1
155	157	1
40	81	1
82	84	1
17	24	1
157	167	1
57	68	1
12	24	1
