0	0	4
18	74	3
124	124	13
3	3	9
119	119	15
13	14	5
32	32	16
20	20	13
95	101	2
8	14	2
72	72	12
25	25	9
121	121	6
66	66	12
33	47	9
113	116	1
37	37	6
83	106	4
84	92	3
35	36	9
106	106	5
44	113	2
13	40	2
96	98	4
14	15	4
7	7	15
19	19	11
92	98	4
35	35	21
81	82	3
77	77	17
22	58	3
33	34	3
11	58	3
101	102	3
104	105	7
31	31	3
13	13	17
26	79	4
81	81	15
75	75	17
78	78	11
47	47	12
33	62	2
42	42	2
110	110	5
83	83	6
61	61	16
6	7	6
17	44	1
98	101	5
45	45	10
14	44	1
60	60	7
19	20	4
93	93	28
34	34	16
69	69	16
126	126	10
63	63	11
73	73	6
64	100	1
32	33	4
27	74	6
107	133	1
6	6	13
6	10	1
62	62	4
95	96	6
22	31	3
26	26	8
26	27	10
105	105	7
8	9	2
37	40	2
90	90	2
85	85	6
63	64	1
23	23	7
122	122	9
20	75	2
111	111	7
125	126	7
26	49	2
129	130	1
7	11	4
36	36	4
69	121	2
90	92	5
80	80	17
29	32	1
18	18	8
115	115	2
46	46	7
33	33	9
72	75	3
112	112	11
85	86	3
27	82	5
20	22	5
123	123	7
58	84	1
113	114	6
87	88	3
2	2	14
102	102	1
23	97	2
27	27	9
23	24	3
103	104	8
38	39	9
8	94	3
44	117	2
84	85	3
79	80	5
97	100	1
40	40	11
67	67	8
84	84	3
83	84	7
120	120	4
98	99	1
133	133	7
107	107	5
25	26	1
11	95	5
68	69	3
31	76	2
96	97	9
68	68	15
58	58	9
17	111	3
11	13	2
40	41	7
47	73	2
106	127	3
110	111	2
45	57	5
55	56	2
82	107	3
8	57	3
118	118	3
12	13	1
17	102	1
80	81	3
30	30	14
86	86	6
99	99	3
71	75	3
85	92	2
70	70	15
29	30	4
101	101	4
65	66	3
36	40	4
15	15	15
83	95	3
40	51	2
92	92	10
82	82	7
40	42	7
16	16	15
9	29	3
75	76	3
15	42	2
96	96	8
41	41	3
31	59	1
65	65	16
81	84	3
11	69	1
116	116	8
74	74	11
20	30	2
21	21	4
39	39	7
43	43	10
19	36	2
98	98	9
103	103	3
11	93	2
69	70	8
34	35	6
32	81	1
79	79	8
97	97	4
25	27	3
59	59	4
11	11	7
48	49	5
49	49	4
117	134	3
24	25	4
10	10	10
21	60	4
32	48	2
28	97	2
127	128	4
76	76	11
36	38	3
93	94	3
11	14	5
49	55	2
12	46	2
26	28	6
9	10	5
100	101	4
130	130	10
98	104	3
3	9	2
89	89	6
77	101	3
79	81	5
48	48	7
108	116	2
94	94	5
22	22	4
5	96	5
88	88	5
29	48	1
81	114	1
107	118	3
6	94	4
14	14	8
134	134	2
64	64	12
70	122	6
14	38	4
58	71	2
128	128	7
128	129	5
73	74	3
15	39	2
4	36	4
131	133	3
4	45	4
39	55	1
104	119	2
38	62	3
114	114	2
76	119	5
50	95	5
131	131	6
100	100	8
131	132	1
10	17	2
25	59	1
82	83	1
44	44	7
98	100	6
4	43	2
4	6	1
26	69	1
25	32	1
8	43	4
91	92	9
44	81	4
97	101	1
108	108	5
46	65	2
104	106	1
56	56	7
97	99	4
31	32	2
26	48	1
81	83	1
108	110	3
17	76	1
41	42	5
24	24	7
7	8	1
93	96	1
11	94	5
117	127	2
49	56	2
7	29	1
28	91	3
129	129	4
104	104	5
9	9	3
5	100	3
16	42	1
37	69	2
19	60	2
29	29	7
65	71	2
57	57	2
4	4	3
95	113	1
8	59	5
16	75	4
45	117	1
117	117	4
86	90	1
20	38	4
123	124	1
10	74	3
55	55	1
119	122	2
46	72	1
11	12	2
91	91	5
34	74	1
13	35	6
72	73	1
71	71	5
111	112	3
34	64	3
15	16	3
95	95	12
18	65	3
70	120	3
26	70	2
10	13	3
59	60	3
28	28	4
78	80	2
24	26	1
73	75	1
92	95	2
20	60	2
90	91	2
84	94	2
129	133	2
28	80	2
46	47	4
17	17	4
66	86	1
9	13	2
63	74	1
95	97	3
17	19	2
130	134	2
95	100	3
34	125	1
11	70	4
16	76	2
28	48	1
33	117	2
9	76	2
27	29	1
20	21	2
122	123	2
36	41	1
92	93	2
8	8	4
31	48	1
86	91	4
45	74	2
14	16	2
9	12	1
86	87	1
6	36	2
19	32	4
112	113	1
30	56	1
29	62	1
5	101	1
27	80	1
127	127	1
26	47	2
15	58	3
80	83	1
34	76	3
67	68	1
88	90	3
81	124	1
38	38	4
9	45	1
27	92	1
24	29	1
124	125	1
16	17	1
8	101	1
109	109	1
41	44	1
25	28	2
17	80	1
19	21	1
132	132	1
61	63	2
116	118	1
125	125	4
20	31	2
77	80	1
45	75	1
18	19	2
116	117	1
14	124	3
131	134	2
28	82	1
75	93	1
18	37	1
43	44	2
30	47	1
77	78	1
103	121	2
38	42	1
31	58	1
127	130	1
13	36	1
113	113	2
99	100	2
17	75	2
21	22	2
12	12	1
94	99	1
26	92	1
39	40	2
41	82	1
28	93	1
39	50	1
28	29	1
107	120	1
14	20	3
114	125	3
74	92	2
11	74	1
89	98	1
83	93	1
114	131	1
17	18	1
9	32	1
78	79	1
5	95	3
22	50	2
90	102	1
34	120	1
113	134	1
114	126	1
47	86	1
17	121	1
44	49	1
34	44	1
49	50	1
94	95	1
21	31	1
27	48	1
15	85	1
4	5	1
38	40	1
22	29	1
44	112	1
7	60	1
