47	86	5
79	79	16
58	60	7
30	30	12
101	102	5
54	55	1
96	100	3
89	89	14
66	66	8
70	71	12
56	56	12
37	62	5
68	69	14
42	42	14
53	53	10
49	49	8
97	97	21
68	68	21
98	98	13
55	56	10
80	81	6
54	54	11
23	24	6
91	96	3
92	93	7
104	104	24
26	27	6
48	49	18
99	99	12
45	45	12
83	83	8
21	28	4
23	52	6
47	47	14
36	37	10
46	47	9
83	85	4
39	39	14
107	107	2
92	92	12
20	49	2
62	62	12
46	46	13
67	68	3
93	94	14
74	75	8
39	42	2
32	59	5
46	89	7
69	69	27
71	74	4
35	35	21
51	52	7
55	55	24
59	59	10
57	60	2
85	85	20
23	25	3
91	92	6
59	60	13
65	72	1
90	91	11
56	86	3
94	94	22
100	100	33
75	75	25
20	20	15
29	29	12
60	60	17
38	39	17
98	99	14
25	25	16
22	23	4
67	69	6
61	61	10
78	78	12
46	88	4
87	87	25
63	63	13
33	96	2
73	73	22
28	35	2
67	67	14
91	91	6
102	103	4
30	45	1
31	45	1
46	106	1
64	64	15
72	72	17
24	24	15
48	82	1
56	89	3
40	41	25
88	89	6
77	77	17
79	81	4
92	94	1
37	37	9
25	57	5
105	105	16
101	101	20
76	78	6
86	86	10
61	62	3
57	57	7
45	92	1
19	25	1
84	84	7
96	96	13
33	33	8
65	65	21
92	101	5
81	81	10
102	102	19
28	28	9
26	52	3
103	103	19
106	106	10
22	22	12
41	41	10
82	84	2
21	23	6
32	32	22
72	73	7
44	57	3
23	23	12
52	54	6
90	90	12
31	31	13
80	80	7
93	93	24
89	106	3
56	57	5
36	36	3
38	38	7
76	77	12
21	21	12
76	76	22
81	82	4
79	80	17
78	82	5
50	50	21
44	44	10
54	60	2
20	21	3
83	84	1
45	96	1
82	86	1
35	36	4
59	85	4
36	72	2
90	102	1
103	104	2
51	51	11
102	105	3
81	83	1
95	95	13
71	71	13
43	43	10
21	46	2
84	104	2
88	88	13
70	79	4
88	101	3
34	34	16
27	99	4
55	57	3
90	92	3
70	70	14
97	98	12
73	74	8
53	54	7
26	26	9
99	100	3
49	50	2
42	43	9
47	48	6
82	82	5
86	87	13
48	92	1
28	54	2
54	58	3
22	24	1
36	45	1
94	95	4
44	47	1
55	68	2
79	92	2
29	30	1
93	95	2
49	90	4
27	59	3
95	96	7
31	34	4
28	41	2
41	44	2
84	85	8
24	55	3
54	56	2
48	48	18
90	106	5
56	58	2
37	38	2
72	92	3
62	63	7
42	63	2
39	40	7
47	49	1
70	72	2
47	89	2
27	28	1
33	37	2
77	78	6
37	42	1
75	76	6
76	91	9
85	86	5
78	79	2
73	76	3
36	61	1
104	105	5
74	74	8
52	52	11
35	55	3
42	44	4
88	90	4
87	88	1
20	24	3
46	95	2
53	55	4
32	97	2
100	101	3
19	20	1
46	49	5
48	86	1
77	89	1
59	71	5
51	56	1
25	28	3
31	32	3
25	26	3
70	73	8
65	67	1
65	66	5
96	97	2
40	40	4
72	78	1
44	45	1
33	34	9
27	27	6
25	99	5
25	49	2
58	58	6
84	86	2
40	42	1
26	53	1
42	45	1
46	94	2
35	43	2
21	22	6
51	65	4
41	42	3
38	42	3
69	70	3
51	79	1
30	44	3
60	61	3
22	66	1
50	64	1
59	61	1
100	102	1
93	105	3
34	100	3
64	69	7
102	104	1
57	58	3
71	72	2
89	91	4
76	90	2
77	83	2
52	53	1
94	106	3
50	92	3
83	86	3
85	87	3
55	82	2
58	59	5
106	107	3
49	81	1
45	77	1
46	90	1
45	75	4
66	68	1
39	43	2
27	29	6
35	37	1
55	58	1
88	102	2
93	102	1
26	29	2
95	98	2
27	35	2
78	81	2
37	39	2
31	78	1
89	90	1
49	82	1
26	54	1
36	70	1
97	100	5
34	37	2
100	104	2
78	80	1
25	52	1
37	46	2
46	48	2
83	87	2
91	106	2
26	28	1
30	41	1
91	95	1
54	72	3
63	67	1
46	105	1
55	86	2
76	92	1
50	51	1
46	107	2
23	50	1
53	78	2
77	91	1
72	76	1
77	79	2
81	84	1
56	83	2
35	45	1
94	96	2
56	82	2
21	48	1
78	83	1
98	100	1
39	90	2
95	102	1
53	65	2
31	33	1
63	64	1
53	69	1
90	100	1
37	70	1
39	76	1
27	32	1
35	41	1
39	77	1
82	85	1
92	102	1
45	47	1
55	74	1
35	78	1
38	40	1
47	88	2
30	47	1
60	63	1
74	78	1
32	34	1
57	61	1
