13	22	1
168	168	5
3	3	3
118	118	5
182	182	10
102	102	2
98	104	1
139	139	8
56	56	5
61	61	6
181	181	2
91	91	3
180	180	2
10	12	3
41	41	6
124	124	5
111	111	6
77	77	3
175	175	4
134	134	3
48	48	2
43	43	5
74	75	3
53	65	1
55	55	10
78	103	2
68	68	6
80	83	1
88	88	3
27	27	6
25	44	2
42	43	1
23	23	4
28	29	5
136	136	4
129	129	4
143	144	2
24	25	2
137	138	1
120	120	3
35	35	9
67	68	3
171	172	1
159	159	2
185	186	3
165	165	1
114	114	3
5	5	2
112	112	7
169	169	3
155	155	2
143	150	1
135	189	1
4	4	5
91	95	2
26	26	4
171	171	3
95	102	3
39	39	7
21	21	4
133	134	1
95	104	3
45	45	1
40	40	4
18	19	1
57	57	1
178	178	3
144	144	2
47	47	2
95	97	1
66	67	1
135	135	4
93	93	8
72	82	2
104	104	1
109	190	3
83	95	2
90	110	2
169	170	1
113	113	9
32	32	2
8	14	2
186	186	3
11	63	2
53	54	1
45	46	1
127	127	4
46	46	3
63	65	2
9	10	2
150	151	3
37	37	2
167	168	2
70	107	1
167	167	2
66	66	2
117	118	4
42	44	1
44	45	1
5	27	2
131	136	3
97	98	3
172	172	4
10	104	1
107	108	5
183	183	9
28	28	4
161	161	3
37	38	4
78	78	2
110	111	4
110	110	1
108	108	5
44	44	4
5	6	1
20	21	2
53	53	5
145	146	4
175	176	5
121	122	2
30	30	2
71	73	1
97	97	4
14	15	2
174	174	2
105	124	2
89	89	3
83	83	2
56	57	3
103	103	3
89	99	1
100	100	5
149	149	4
129	131	1
62	62	2
63	63	5
14	14	3
142	143	1
163	163	3
58	58	2
30	38	2
157	157	5
16	19	2
156	156	2
176	177	1
134	136	1
138	139	2
147	149	1
119	119	3
65	68	1
24	38	1
107	107	1
19	19	3
151	151	2
22	22	5
59	59	3
25	26	1
20	29	1
123	123	3
125	130	1
26	120	1
154	154	5
146	146	2
179	179	4
137	137	1
64	155	1
115	116	2
80	81	1
16	18	1
134	135	3
29	76	1
81	81	1
147	147	4
138	140	2
89	151	1
54	119	1
52	104	1
36	37	5
127	128	3
138	165	1
184	184	2
158	158	1
42	42	6
121	121	2
90	119	1
29	29	4
101	101	2
85	85	1
71	71	5
80	80	2
20	20	2
99	99	3
164	179	3
27	34	1
165	190	2
86	154	2
146	148	2
11	28	1
142	170	2
90	93	3
164	164	2
72	72	2
174	185	1
36	36	1
84	162	1
73	156	1
55	119	2
142	151	4
106	106	3
16	23	1
126	127	2
160	160	1
118	119	2
35	36	2
19	20	1
94	94	4
109	110	1
155	157	1
65	65	1
156	158	1
123	180	1
190	190	1
92	93	3
146	147	1
29	42	1
53	118	2
72	78	3
131	155	1
26	85	1
57	119	2
117	117	2
189	189	1
140	142	1
143	149	1
2	2	2
15	15	1
92	92	2
70	70	3
150	150	1
133	133	1
85	86	1
11	67	1
126	177	1
79	94	2
183	184	4
69	70	1
53	128	1
94	95	1
77	119	1
64	64	1
125	125	1
12	12	2
6	8	1
33	35	1
173	173	1
11	11	1
90	90	1
145	145	2
166	166	2
143	170	1
84	84	2
156	157	1
98	98	1
32	34	1
105	105	1
13	13	2
187	187	1
7	7	1
141	141	1
30	31	2
161	162	1
104	126	1
65	66	2
84	121	1
54	54	1
57	128	1
43	44	1
72	73	1
97	185	1
58	118	1
162	162	1
10	36	1
59	60	1
