5	5	5
27	27	12
131	131	25
86	86	14
10	10	11
75	75	14
119	119	7
89	89	14
136	136	24
90	112	2
1	1	19
120	120	5
125	125	43
123	123	21
19	76	1
105	105	8
124	124	23
120	138	1
114	114	15
87	87	13
27	29	5
19	113	4
134	135	16
27	30	3
32	32	16
80	80	11
99	99	18
92	124	1
115	116	4
82	82	23
12	21	5
7	7	12
81	82	6
139	139	21
76	81	2
101	103	3
35	35	10
91	91	13
127	127	34
15	16	4
84	84	16
83	83	15
104	104	13
7	8	10
123	124	7
73	73	17
17	17	5
103	103	10
12	12	13
81	81	8
76	77	8
134	134	19
115	119	3
20	20	23
112	112	8
83	84	4
95	95	8
133	133	12
116	116	9
121	121	20
21	21	19
97	97	14
10	109	2
101	101	14
94	110	3
134	136	4
93	120	2
28	28	6
78	78	19
13	13	23
122	122	15
139	140	5
100	100	19
37	89	4
85	85	10
8	9	6
128	128	31
88	88	10
79	79	13
118	119	1
96	96	17
33	33	13
102	102	24
132	132	36
93	109	3
111	111	17
14	26	7
120	137	4
137	137	17
110	111	9
100	138	3
96	97	2
27	32	8
71	83	1
3	3	14
129	129	14
4	36	4
117	117	15
89	90	9
37	37	14
14	14	10
126	126	18
94	94	9
83	85	2
88	101	1
137	140	2
4	4	11
138	139	3
106	107	8
78	80	1
127	129	4
94	121	2
125	130	3
81	109	2
106	122	2
138	138	23
130	131	4
117	118	6
9	9	8
82	102	3
82	86	5
74	74	7
2	2	12
92	92	8
140	140	27
94	112	1
36	37	3
102	103	6
91	114	3
0	0	6
77	77	14
83	122	5
87	88	9
98	98	4
10	12	4
8	8	10
86	130	2
10	17	2
25	25	16
29	29	10
75	77	1
25	26	7
136	137	2
0	1	8
130	130	10
22	24	4
88	89	7
11	11	13
5	6	7
112	115	3
31	31	7
19	19	3
98	99	6
91	94	2
112	113	4
6	6	18
108	123	2
87	113	3
15	17	4
24	24	5
118	118	18
89	91	4
72	72	5
16	22	7
18	18	13
77	78	3
33	36	3
82	83	9
38	38	4
124	125	7
21	22	4
75	101	2
107	108	4
10	11	5
93	102	1
100	136	4
131	136	1
3	13	5
22	22	5
118	120	1
107	137	1
120	122	1
72	107	10
34	34	9
71	72	1
15	23	2
128	129	1
127	132	1
76	76	8
106	106	3
135	136	9
93	111	4
127	128	3
28	29	6
15	15	6
86	87	8
21	37	1
115	115	6
110	110	11
121	122	3
91	137	2
36	36	9
87	103	1
98	124	1
5	21	3
82	85	4
109	109	9
27	28	3
16	36	1
129	130	7
28	30	7
135	135	17
71	71	1
132	133	1
87	112	2
5	109	2
104	105	2
107	107	7
14	15	5
94	102	4
84	85	3
113	114	5
23	23	3
116	126	1
16	16	5
137	138	20
16	20	3
12	13	6
14	27	3
80	83	2
113	113	3
11	22	3
6	80	3
23	73	4
99	100	6
119	120	12
133	135	2
78	79	3
4	5	6
16	19	3
105	106	5
76	82	6
22	23	3
25	30	2
30	30	1
90	90	14
116	117	1
117	123	5
26	29	1
118	127	6
30	31	1
133	139	4
101	112	5
0	11	3
75	81	4
112	125	1
92	106	3
108	108	7
34	35	2
132	135	2
131	132	9
71	88	1
19	21	1
103	106	3
136	138	2
72	108	1
15	29	1
15	18	2
93	122	1
24	29	3
22	38	2
95	113	2
2	3	6
92	122	1
31	73	1
15	19	2
105	122	1
7	20	1
85	86	1
18	86	1
92	93	3
116	123	2
31	32	2
24	25	1
4	34	2
79	80	5
14	23	3
9	86	3
93	108	1
97	98	3
104	122	3
90	114	2
93	94	4
93	93	1
73	102	1
29	30	1
30	73	5
120	121	1
73	106	1
105	110	1
16	17	5
119	121	1
103	104	3
125	126	1
115	117	2
25	27	1
12	14	1
87	106	2
140	141	1
114	116	1
82	84	2
81	110	1
11	12	3
79	92	2
126	127	1
15	37	2
107	122	2
18	27	1
33	34	2
12	22	1
11	15	1
25	74	1
77	88	1
76	101	2
14	20	1
88	112	1
37	38	1
19	20	1
107	109	1
78	81	1
11	17	1
3	26	1
108	109	1
125	129	2
20	36	1
