36	36	2
105	105	6
93	93	3
87	87	13
33	33	9
115	124	2
63	63	15
116	117	5
35	35	4
45	45	6
78	80	6
32	34	3
80	80	5
26	28	4
64	65	9
107	107	7
94	94	9
70	70	6
88	98	13
131	131	9
110	110	12
58	59	3
82	110	1
113	113	12
106	106	18
133	133	9
30	31	4
57	57	4
76	89	1
68	68	11
82	82	13
112	112	5
83	85	4
102	103	9
20	20	3
126	126	7
67	67	3
91	95	6
2	3	5
117	117	17
102	102	7
8	8	9
74	75	2
69	70	1
74	74	10
122	122	15
59	59	10
66	85	6
89	90	3
85	85	3
99	114	4
107	109	2
98	98	4
53	53	6
46	46	1
26	26	4
61	61	7
96	97	3
122	123	4
55	55	2
24	24	3
96	96	8
17	18	4
19	19	9
128	130	2
14	19	6
1	1	2
131	132	3
77	78	8
32	32	4
44	44	4
105	114	4
129	129	4
73	127	6
128	128	7
118	121	1
99	99	17
21	21	6
79	80	5
85	99	1
21	23	4
42	42	1
99	101	7
111	112	7
127	127	11
53	54	6
116	116	9
16	16	8
91	91	7
49	49	4
133	134	1
118	118	8
78	78	6
104	104	6
92	92	6
114	114	12
52	52	2
123	123	9
84	84	10
55	56	3
130	130	13
67	108	4
95	96	4
29	30	2
29	29	6
131	134	2
96	99	2
88	88	5
72	72	10
101	102	3
111	113	1
61	62	6
91	92	4
100	114	3
1	2	2
79	82	4
97	98	3
92	110	3
0	6	6
119	120	3
89	89	3
85	108	1
62	81	2
62	63	10
84	108	2
69	69	9
22	22	9
60	64	3
47	47	1
3	4	5
66	86	3
12	13	5
67	84	5
76	76	7
15	15	7
50	63	2
112	114	2
85	98	4
117	118	1
10	10	3
77	127	2
101	101	4
79	79	6
127	128	3
95	116	3
132	132	3
81	81	6
110	111	2
113	115	2
108	108	7
27	34	1
3	3	10
62	62	10
70	73	3
97	97	9
109	110	1
125	125	3
95	95	9
38	38	2
12	34	2
6	7	3
114	124	3
129	130	3
8	9	2
3	5	3
83	84	5
123	124	5
113	116	3
65	68	5
2	2	5
20	21	1
97	100	3
30	64	2
25	25	2
18	18	1
35	53	2
30	69	2
83	83	4
103	103	2
78	79	2
60	60	3
78	88	3
52	58	1
50	50	3
105	113	1
115	116	2
112	124	2
95	100	2
94	95	11
34	54	4
71	71	7
101	114	1
58	58	4
100	116	4
126	127	3
49	50	4
100	102	4
4	5	2
90	90	6
82	95	3
100	100	4
81	82	3
27	27	1
66	108	3
73	73	2
131	133	2
120	120	4
111	111	8
58	60	2
34	34	2
115	120	3
111	122	3
75	112	1
16	18	1
54	64	2
16	19	2
44	48	4
121	121	1
66	66	3
30	30	3
86	86	8
73	75	2
99	100	1
113	128	1
71	72	6
64	64	6
4	27	1
9	9	1
8	11	1
51	75	3
130	131	1
90	93	2
108	109	1
65	65	2
31	31	1
98	104	1
50	52	2
27	28	2
13	33	3
12	12	4
119	119	3
16	17	1
100	115	1
77	77	4
85	95	2
22	90	2
86	87	4
66	68	3
68	77	2
18	19	2
82	83	3
114	115	1
59	60	1
82	109	1
33	53	3
113	123	2
125	126	2
98	99	1
129	132	1
7	17	1
63	77	2
45	52	1
11	11	4
63	65	1
111	127	1
93	95	1
54	57	3
93	109	1
115	115	4
62	66	1
104	105	1
107	108	2
66	67	4
88	89	1
132	135	1
33	34	1
61	99	1
118	119	1
100	101	2
6	115	1
107	117	2
6	114	1
44	45	2
52	53	1
75	75	1
62	64	3
106	107	1
28	28	1
23	25	1
95	97	3
78	81	1
54	54	2
31	32	1
135	135	1
124	124	1
19	22	1
7	8	1
14	14	1
10	113	1
115	118	1
134	134	3
49	72	1
96	98	1
114	121	1
23	24	1
94	98	1
105	106	1
60	61	1
22	24	1
58	61	1
80	81	2
54	55	1
31	33	1
78	110	1
15	25	1
