60	60	19
37	37	9
19	48	2
103	103	15
33	45	5
125	125	9
119	119	9
72	72	21
11	11	19
104	105	6
111	111	6
104	104	10
60	90	4
47	65	3
4	5	9
21	21	9
3	3	4
19	19	12
120	120	8
29	29	6
85	85	8
24	27	2
84	85	6
87	87	14
118	118	12
70	78	2
64	64	24
35	35	13
44	44	4
79	79	15
12	12	34
57	57	6
35	41	3
88	88	20
34	34	9
19	58	10
21	58	7
84	87	3
101	101	12
47	48	3
48	48	22
97	98	3
16	18	2
28	28	21
76	77	5
130	130	8
55	55	4
33	33	18
117	121	5
10	15	3
43	43	18
56	56	4
80	80	11
75	75	19
4	101	5
10	107	2
31	31	4
59	59	4
37	38	7
16	17	3
70	80	3
40	40	14
63	63	9
99	100	6
62	63	1
95	95	7
67	120	6
110	110	14
24	98	3
17	17	18
112	112	11
91	92	13
76	76	8
106	106	9
1	1	7
73	78	3
69	82	5
62	62	16
7	7	12
41	41	6
81	81	8
61	61	10
25	26	8
131	132	3
127	131	2
65	65	30
100	100	12
83	83	12
35	46	5
98	98	4
54	54	6
112	126	2
62	67	4
114	116	7
128	128	11
32	44	3
92	92	12
35	36	6
60	102	1
26	27	11
70	70	13
35	37	3
68	68	16
73	73	20
121	122	6
46	46	14
44	45	11
69	69	22
5	5	11
71	77	3
134	134	9
131	131	3
31	32	10
121	121	3
82	84	4
87	88	2
24	24	19
122	122	7
95	98	2
30	58	4
28	61	3
30	32	9
15	15	7
28	91	3
18	18	12
37	49	2
24	82	1
39	40	2
21	22	6
6	6	16
94	95	6
34	42	2
55	81	2
105	105	4
93	93	20
4	37	1
132	132	7
36	36	5
26	26	12
127	127	6
14	15	6
96	96	9
90	91	3
84	115	3
83	84	6
18	26	5
20	84	4
11	15	2
3	13	2
101	102	3
34	35	9
23	24	4
102	102	9
111	112	7
83	104	3
90	90	18
95	96	4
115	116	3
51	56	3
112	113	1
36	46	2
45	45	12
10	14	2
84	84	14
25	48	1
22	22	5
61	75	1
57	58	11
43	66	2
25	25	9
27	28	10
66	66	12
87	114	1
30	57	3
103	111	2
32	32	10
126	134	5
110	111	5
9	9	14
115	115	9
47	47	29
105	110	2
91	91	12
40	55	2
16	39	1
8	48	2
19	37	5
126	126	2
46	120	1
105	106	2
120	121	2
20	20	8
101	105	2
10	10	8
30	30	5
98	100	5
30	44	6
2	2	11
23	32	5
11	26	5
79	80	11
10	11	4
3	37	1
12	72	2
101	103	3
59	60	3
49	49	8
69	73	2
46	47	1
27	27	13
62	101	2
94	94	7
107	107	4
123	124	3
37	78	1
44	78	2
36	39	3
24	25	10
16	16	7
102	103	2
17	47	2
45	64	2
12	107	1
107	108	3
85	103	1
15	40	1
117	117	4
42	43	4
77	77	8
113	113	5
33	64	3
14	14	8
4	4	11
33	34	6
128	133	6
38	38	5
42	42	2
9	10	3
92	94	3
86	86	10
42	44	5
123	123	9
61	62	2
56	81	6
85	86	2
30	31	6
40	45	4
116	116	5
47	85	6
84	86	4
5	92	3
74	74	7
78	80	5
22	23	2
36	55	2
131	134	5
61	120	4
23	28	3
78	79	8
105	111	6
3	27	1
88	113	5
133	133	12
128	131	2
83	89	1
67	67	13
58	58	5
106	107	4
17	18	6
8	9	2
62	121	3
29	61	3
78	78	8
74	75	2
81	84	2
129	130	1
93	94	5
70	76	6
23	42	1
38	81	2
12	13	1
67	68	8
113	114	2
50	61	1
86	124	1
7	93	1
108	109	3
47	90	2
79	125	1
44	70	1
15	75	2
32	63	1
125	129	3
85	88	2
84	103	1
124	124	1
34	78	1
71	71	8
102	104	2
3	10	2
88	89	2
27	47	3
85	124	4
71	80	3
92	93	4
4	8	1
59	105	3
97	97	8
16	37	1
96	123	3
8	33	4
84	89	1
25	84	1
103	106	3
36	42	2
48	62	4
16	98	1
96	99	2
20	23	3
13	13	7
3	4	2
27	98	1
15	16	3
29	30	1
32	71	3
96	97	3
23	23	5
7	98	2
19	35	5
107	109	1
7	15	2
87	98	2
129	129	3
77	78	2
102	111	4
64	76	1
100	101	2
45	70	2
66	97	2
85	104	1
29	56	5
64	72	1
4	95	1
6	7	3
36	82	4
66	67	1
12	47	1
114	130	1
34	45	2
39	39	1
8	8	6
43	45	1
89	97	2
16	63	2
63	122	1
20	32	1
96	98	2
108	108	1
13	14	2
83	115	1
87	115	3
108	122	2
85	106	2
78	117	1
49	50	3
66	85	2
18	55	1
0	0	2
72	74	2
17	45	2
99	99	3
98	99	1
2	100	1
109	109	3
39	41	2
2	46	3
50	50	2
80	81	2
36	71	1
29	32	1
13	56	1
9	107	2
113	115	2
82	82	5
25	27	4
63	124	3
64	75	2
20	21	1
9	57	1
3	6	1
84	124	2
55	56	2
75	118	1
47	49	2
48	49	2
43	44	3
87	97	1
5	95	1
47	76	3
85	114	3
87	130	1
6	118	2
104	111	1
114	115	2
17	117	1
10	93	1
31	55	1
66	72	2
17	43	1
113	128	1
112	129	1
18	37	2
13	102	1
19	22	1
48	65	1
89	90	2
15	41	1
20	58	1
17	33	1
48	78	1
9	11	1
119	120	2
18	24	1
64	65	2
85	96	2
59	62	2
81	82	2
100	123	1
88	101	1
60	92	1
26	47	2
110	121	1
79	85	1
90	92	1
89	89	2
22	32	1
67	118	1
84	114	1
82	83	1
13	82	1
27	32	1
91	95	2
3	35	1
14	18	1
41	42	1
7	16	1
26	86	1
10	82	1
93	98	1
104	106	1
120	122	1
