42	42	10
129	129	18
98	98	12
71	72	5
100	101	3
148	148	16
25	34	6
10	11	7
27	27	8
25	25	14
53	53	11
116	116	3
39	51	7
15	16	1
111	111	8
62	63	3
142	142	12
166	166	8
12	12	19
82	82	2
13	13	5
76	76	10
167	167	3
67	67	1
56	57	2
4	4	6
44	45	2
153	153	5
130	146	3
152	152	6
9	10	9
159	160	7
35	35	18
3	24	2
17	36	2
0	65	2
99	99	13
150	150	8
89	89	10
43	43	9
24	93	1
1	3	1
108	139	2
39	41	3
98	99	8
96	96	6
155	156	12
1	1	9
47	47	12
168	168	1
163	163	12
22	87	5
125	126	2
107	107	5
83	83	5
86	89	1
158	159	2
100	100	2
153	165	1
113	118	2
105	106	4
147	147	3
113	158	3
88	88	10
104	105	3
137	137	6
75	75	10
147	149	3
64	64	8
101	102	5
73	74	5
120	120	10
81	81	10
160	162	3
97	97	6
85	85	3
86	86	17
11	18	1
90	110	1
97	101	2
111	112	3
123	123	6
133	134	3
15	15	10
35	36	5
57	57	9
3	3	11
131	153	5
12	13	9
22	22	13
54	54	11
62	62	1
82	89	2
135	135	10
48	48	8
97	98	3
80	81	6
4	6	2
17	18	2
45	45	9
37	89	1
8	42	2
50	51	3
23	23	8
16	43	2
105	105	10
38	52	2
89	108	3
142	143	6
109	109	2
72	72	1
160	160	4
18	19	4
70	70	8
87	88	7
99	102	3
54	55	2
130	130	8
13	28	1
37	37	6
91	94	5
112	112	11
53	54	3
38	109	3
52	52	8
144	144	14
127	127	7
101	101	7
39	40	6
113	113	9
22	24	1
169	169	4
149	149	6
5	5	12
79	80	4
137	138	6
10	10	6
93	94	2
145	145	10
158	158	13
90	91	1
75	80	2
34	34	10
104	104	2
128	128	5
72	73	7
108	109	2
91	91	3
56	56	9
141	141	4
50	50	8
92	93	1
124	124	4
139	140	1
93	93	3
9	9	8
120	122	2
126	136	2
17	39	1
36	37	6
164	164	4
132	132	1
4	5	6
52	53	7
91	92	1
151	151	15
24	25	2
156	157	4
129	131	3
24	24	11
170	170	4
122	122	1
55	55	8
40	52	2
123	125	3
90	108	1
39	54	3
91	95	1
81	82	3
85	88	1
85	89	1
121	122	4
27	28	5
84	89	3
66	66	2
138	139	5
105	138	4
33	33	2
100	105	5
6	6	1
44	117	1
18	18	12
73	77	3
10	23	1
11	11	8
117	166	3
4	7	1
107	166	2
84	86	1
108	108	5
91	96	2
14	15	3
115	115	9
119	121	1
15	18	3
46	50	1
64	68	2
142	145	3
23	24	1
20	20	7
46	46	3
39	39	2
155	155	11
51	51	7
112	114	3
102	103	3
103	103	5
17	88	2
153	156	2
14	19	2
44	44	5
0	1	6
57	58	4
106	106	5
69	79	4
1	55	3
106	138	2
110	167	2
117	118	1
74	74	3
55	56	2
140	140	3
12	17	2
68	68	3
78	78	1
101	104	3
40	41	1
47	48	4
99	110	2
19	19	4
47	49	5
49	49	3
71	71	2
114	114	6
150	151	6
67	68	1
125	125	4
84	84	5
14	14	2
21	21	6
139	139	3
16	16	2
83	85	2
97	99	2
129	148	1
74	75	4
162	163	2
166	167	4
82	98	7
159	159	4
65	81	1
143	143	2
13	19	2
41	42	2
17	40	2
146	146	2
8	10	1
41	52	3
88	89	2
73	78	4
39	87	2
19	20	2
144	145	5
133	133	4
134	135	2
145	147	1
129	130	3
86	95	4
79	79	4
41	51	1
143	144	4
85	104	1
43	44	1
126	126	7
7	8	2
22	23	3
26	27	2
36	36	1
25	27	2
64	67	3
40	40	3
12	16	1
48	49	6
87	87	7
103	104	1
161	164	1
141	166	2
95	95	2
70	71	3
69	69	6
78	80	4
148	149	1
106	139	1
157	157	3
18	23	2
1	2	4
65	65	2
48	70	1
132	140	2
19	23	1
136	136	2
51	57	1
27	35	1
134	134	1
138	166	2
132	133	1
73	73	2
161	161	3
118	119	3
99	100	1
125	139	3
0	0	2
112	113	2
6	7	1
106	109	2
5	18	4
7	7	3
63	63	1
25	28	3
49	50	2
12	20	2
71	73	4
16	19	5
102	102	5
115	116	1
131	131	2
156	156	1
118	118	5
144	147	1
6	106	1
8	35	2
72	74	1
8	12	1
139	141	1
88	110	4
8	9	3
66	67	2
77	78	2
146	147	1
106	107	2
2	4	1
169	170	1
7	11	1
99	138	1
41	41	1
14	16	1
142	144	2
46	48	1
161	162	3
99	101	1
37	38	1
47	69	1
9	13	1
155	158	1
8	86	3
17	24	3
10	14	2
119	120	4
18	21	2
119	119	2
7	38	3
162	162	4
146	161	1
21	24	2
98	102	2
67	108	1
112	125	2
92	94	1
17	22	2
94	94	2
86	100	2
84	85	2
110	111	1
102	105	2
33	35	1
135	140	1
45	47	1
12	21	2
89	94	1
138	141	1
124	125	3
10	21	1
13	18	1
80	82	2
87	90	1
34	35	1
79	83	1
107	108	1
81	98	1
45	70	1
81	127	3
11	94	1
66	68	1
138	138	1
135	136	1
114	115	1
3	4	1
2	2	1
24	36	2
165	165	2
48	53	1
21	22	2
70	72	3
86	88	1
153	154	1
39	84	2
20	22	1
113	114	1
127	130	1
38	38	1
57	87	1
17	17	2
81	90	1
80	80	1
8	19	1
110	110	2
40	68	1
63	67	1
49	119	1
13	24	1
121	121	1
120	121	1
7	10	1
116	118	1
