56	81	1
45	45	58
28	28	92
184	184	64
163	164	38
166	167	24
69	71	5
61	61	66
207	207	88
82	82	45
113	113	92
223	223	68
40	40	62
57	236	1
85	85	49
65	65	70
57	57	65
175	175	68
43	43	63
51	52	19
61	75	9
168	168	87
165	165	94
158	158	94
47	51	14
160	169	3
160	160	97
158	159	30
201	201	98
27	32	2
239	239	95
149	149	29
23	23	55
104	109	3
79	79	46
227	228	21
210	211	21
195	195	66
224	224	52
161	161	53
108	109	15
118	120	5
95	203	2
191	191	70
177	177	98
193	214	7
214	216	2
216	216	85
34	48	6
229	230	26
179	180	18
169	170	41
29	29	42
196	199	8
208	209	31
20	20	58
43	46	3
215	217	16
187	187	72
53	53	85
70	70	37
230	230	64
5	5	69
219	219	80
152	152	73
72	74	7
116	116	79
83	83	34
36	36	67
26	26	74
14	14	51
10	10	80
246	246	89
193	196	8
80	84	8
18	18	56
95	99	1
177	178	8
239	241	5
173	173	115
109	109	92
201	220	6
66	66	61
54	54	76
52	53	32
222	222	42
68	120	3
93	93	72
106	108	13
153	153	98
85	229	4
87	87	48
156	156	92
154	155	16
67	68	25
109	155	9
80	80	58
82	83	20
77	77	53
187	192	15
110	246	1
25	25	61
51	51	76
166	166	81
234	234	60
234	236	10
150	150	92
11	41	4
182	182	60
5	39	9
202	203	9
97	98	38
170	171	24
239	240	11
109	110	21
46	46	65
100	100	62
213	218	4
58	58	87
48	244	2
165	169	6
237	238	6
162	162	106
57	58	54
95	95	47
212	212	105
194	194	63
33	33	57
96	96	35
205	205	77
218	218	60
212	214	7
211	212	33
49	49	80
186	186	82
84	84	56
159	159	66
55	55	57
85	86	10
197	221	1
176	177	26
155	155	92
9	9	47
200	200	111
12	12	55
15	15	76
155	171	4
38	38	80
241	241	85
41	41	77
174	174	45
163	163	88
183	183	80
238	238	78
4	4	72
43	44	7
223	224	6
102	102	48
36	154	1
204	204	126
163	170	4
190	190	69
16	16	61
81	81	42
32	32	100
176	176	57
39	204	5
112	238	3
214	249	6
78	84	1
3	3	27
180	181	10
26	50	6
31	31	86
226	226	65
208	208	64
161	162	18
180	182	11
199	199	83
9	19	6
167	168	16
192	193	9
202	202	77
151	151	123
14	15	30
86	86	44
247	247	53
110	114	11
44	44	59
144	150	2
81	84	10
173	206	7
16	32	1
169	209	4
233	234	19
68	68	96
70	110	2
94	104	2
62	62	46
172	172	39
226	235	2
160	161	13
237	237	76
211	211	77
157	210	5
19	19	74
2	58	1
59	59	60
242	244	16
202	205	7
216	238	3
199	201	6
178	189	3
78	78	53
14	35	2
178	194	3
185	186	16
194	195	41
233	233	57
235	235	53
160	177	8
21	21	66
199	244	2
221	221	84
34	65	6
66	67	26
94	94	56
174	216	2
225	225	49
172	182	2
100	113	1
115	115	88
96	209	1
167	242	2
41	42	16
210	210	64
190	191	58
168	170	2
25	27	7
120	120	59
180	180	83
169	184	8
197	200	3
189	189	70
83	86	1
166	184	7
84	85	22
98	98	66
86	87	22
198	198	80
213	214	46
171	171	86
44	45	7
208	211	4
25	26	12
228	228	63
117	117	71
76	76	67
187	188	16
97	97	53
11	15	4
172	173	37
79	80	25
194	221	1
89	120	3
205	206	8
90	91	26
111	111	102
104	104	14
2	3	33
157	159	11
54	116	4
183	242	4
193	194	33
160	185	1
90	90	54
78	80	1
95	96	19
193	193	72
167	167	69
215	215	75
30	30	76
147	147	39
44	64	11
103	104	22
75	76	33
49	58	5
110	110	77
75	116	3
118	118	71
241	242	30
181	195	3
7	7	80
84	192	3
76	77	22
233	244	9
62	63	13
50	50	66
240	240	77
94	175	4
63	117	3
30	64	3
212	213	27
154	154	79
114	115	26
171	172	22
8	8	81
25	78	3
27	27	62
215	216	17
35	35	61
107	107	74
67	93	2
101	101	61
176	195	8
81	82	30
217	217	78
67	95	2
39	63	1
73	74	14
1	46	5
183	186	7
238	239	48
72	76	4
116	117	17
199	200	33
11	11	82
62	100	1
206	207	14
53	54	20
99	101	10
175	182	3
71	71	59
234	244	3
111	115	4
55	56	34
31	34	2
115	230	3
162	208	6
216	219	9
150	156	5
178	178	64
39	39	51
49	243	2
207	243	2
106	106	45
3	5	16
216	217	14
209	209	76
88	89	14
164	164	82
222	248	3
168	169	35
160	164	7
63	71	5
29	32	2
48	48	68
218	219	31
37	57	1
59	60	29
221	228	2
18	19	14
22	22	73
178	179	16
109	215	1
229	229	84
248	248	45
152	153	11
24	151	1
231	231	92
83	84	17
63	69	7
176	223	3
196	196	72
17	17	47
187	189	14
94	233	2
173	179	11
160	214	2
110	111	12
15	183	1
76	91	1
57	75	1
196	197	9
111	157	4
174	183	4
48	93	3
216	233	1
194	248	3
87	215	4
67	67	62
73	91	2
237	239	4
34	34	70
117	118	20
101	116	2
71	75	2
213	213	68
220	221	19
188	189	19
224	230	3
22	193	4
172	178	3
236	238	3
84	109	4
219	238	1
52	52	60
62	86	2
19	93	3
181	181	112
51	68	5
169	171	11
185	185	89
227	227	56
147	180	8
236	241	13
96	98	11
112	237	3
17	18	7
10	226	5
84	90	6
95	98	4
184	185	32
245	245	60
64	65	17
231	232	25
220	220	45
112	112	67
73	73	62
114	114	73
99	100	22
244	244	72
230	233	4
105	106	23
158	191	6
23	36	1
85	94	3
47	63	5
72	72	54
35	40	1
27	28	8
244	245	13
167	189	6
145	145	54
156	224	1
1	1	49
170	170	53
75	75	64
150	155	6
94	112	2
62	66	2
109	116	5
191	192	44
68	70	18
45	227	1
203	203	93
54	94	2
246	248	7
174	180	9
48	245	3
175	177	14
186	216	1
188	190	13
43	48	4
156	162	6
19	79	4
217	233	3
177	247	5
4	186	2
98	117	3
201	225	3
50	71	2
111	118	3
92	93	17
91	91	41
42	42	70
54	202	4
88	88	65
23	225	2
50	82	4
68	69	19
164	165	19
64	64	52
147	182	1
152	160	3
87	103	2
153	154	24
8	52	7
77	96	5
119	119	89
173	186	1
58	77	8
42	43	25
181	215	2
102	105	5
171	178	2
224	225	18
106	158	1
34	68	7
72	73	15
152	210	1
161	195	5
22	23	21
24	24	63
5	29	1
21	22	19
55	75	2
193	247	6
6	10	2
175	200	3
104	106	7
15	226	7
51	61	1
209	210	28
240	241	20
105	105	37
236	237	32
59	76	6
64	66	12
231	243	1
203	205	10
34	69	3
178	219	1
209	247	4
118	119	16
111	114	2
92	92	86
192	196	11
79	83	4
90	92	7
89	95	6
190	217	3
10	67	6
63	63	54
85	95	4
61	64	13
177	217	2
241	246	5
28	29	14
174	243	5
68	88	3
95	101	6
49	50	43
234	235	18
215	219	6
23	24	15
209	211	14
62	89	2
243	244	30
186	208	5
157	157	61
74	74	55
109	164	1
189	190	18
153	156	12
60	102	7
175	176	40
85	108	2
10	11	11
228	229	22
236	236	56
184	204	3
60	159	1
31	62	5
218	220	6
46	47	15
71	118	9
242	243	24
41	193	4
169	169	62
105	107	15
151	161	7
12	14	2
182	183	26
66	198	4
106	107	30
60	61	27
20	31	4
237	240	11
150	151	12
71	72	29
197	197	101
222	232	4
77	78	18
223	236	4
173	227	3
98	99	16
110	199	1
30	204	1
152	170	10
12	13	1
93	114	5
14	50	11
102	103	13
50	116	5
75	82	5
0	0	7
57	118	3
28	32	3
6	65	4
94	95	23
71	214	3
84	176	1
174	198	4
121	121	6
210	213	12
91	100	2
195	245	5
186	192	5
204	223	4
203	204	26
25	77	2
181	242	4
94	109	9
38	39	18
113	117	7
4	14	6
84	88	4
188	188	49
191	199	3
5	6	8
160	184	1
13	13	5
170	176	3
243	243	51
111	112	13
69	69	63
113	114	33
189	212	2
184	224	2
67	114	2
192	192	47
179	179	81
198	199	24
182	189	5
183	204	5
3	11	1
77	97	2
89	89	53
76	86	2
240	242	7
6	33	6
155	221	2
6	26	4
150	222	4
25	56	3
9	27	3
86	106	3
60	60	38
174	185	2
198	225	1
81	83	5
160	180	3
146	147	19
155	202	3
153	160	1
68	96	7
221	222	26
158	177	1
46	110	2
40	51	1
178	203	1
172	174	8
45	46	17
6	6	54
185	229	1
68	101	3
84	86	14
15	16	4
44	228	5
99	99	45
242	242	70
220	222	11
95	109	4
59	63	3
162	187	2
49	75	3
230	231	20
15	169	2
206	206	49
18	154	3
153	157	5
101	102	14
70	90	7
111	181	5
39	173	2
186	218	1
61	74	2
7	44	4
184	186	4
166	178	3
76	106	1
197	201	3
168	173	5
116	176	7
80	81	11
162	163	23
214	214	75
13	14	13
180	201	2
102	111	3
47	71	5
17	34	3
195	196	9
215	248	5
76	93	4
163	219	1
10	46	6
81	246	1
174	239	1
18	157	2
179	190	4
176	184	1
74	77	4
15	230	2
101	104	6
48	71	2
29	37	7
34	236	2
181	204	2
89	109	8
37	37	43
202	204	7
19	176	2
208	246	8
42	62	4
53	55	5
36	37	7
7	203	1
5	50	5
86	93	1
47	47	52
159	184	3
69	70	24
18	38	3
1	11	2
212	229	2
56	56	69
35	54	6
68	71	4
162	233	7
209	240	2
95	156	5
34	35	10
58	60	7
243	249	2
96	97	18
155	162	4
17	77	1
82	103	8
23	38	1
19	59	1
186	193	5
60	65	6
6	7	33
108	237	2
222	223	13
232	234	2
181	182	11
75	80	10
72	90	1
9	45	1
70	72	11
65	66	14
11	150	1
171	176	3
207	219	1
50	67	2
108	108	51
217	218	17
175	247	4
229	234	7
171	175	16
77	115	3
87	89	15
166	233	1
36	233	5
24	26	4
3	6	6
160	181	3
190	196	9
54	70	5
211	248	3
14	181	2
207	208	12
63	70	5
186	246	4
31	32	22
226	227	13
103	103	23
180	187	5
16	63	1
175	203	3
90	96	6
159	203	2
110	112	2
198	208	3
117	119	3
35	38	4
99	184	4
232	232	55
39	40	11
204	205	24
96	99	13
194	230	2
42	110	2
92	245	1
1	27	4
87	88	10
45	65	2
232	237	4
94	113	7
74	76	7
8	9	6
87	105	4
29	33	3
57	64	2
3	235	4
188	214	3
201	203	5
94	186	2
100	147	7
192	194	3
54	55	20
22	32	2
84	204	3
44	202	3
187	197	2
235	236	17
59	92	3
107	157	4
173	187	4
245	247	9
5	12	2
84	102	2
161	223	3
183	216	1
165	188	1
180	184	4
102	104	3
61	63	7
107	164	2
63	65	12
64	69	6
183	241	3
193	212	4
17	155	3
114	157	4
35	46	1
246	247	14
65	67	8
100	101	16
60	82	1
72	118	1
79	100	2
78	79	17
78	82	3
84	91	2
144	145	8
70	234	5
160	212	3
29	68	5
32	81	6
189	211	6
175	223	2
175	208	4
38	47	2
46	118	1
44	46	3
244	246	9
72	79	3
47	52	7
85	87	11
12	15	7
99	103	2
41	65	2
190	192	8
163	197	5
85	158	1
62	90	4
190	218	4
72	102	5
194	235	2
15	76	2
72	89	4
181	217	2
61	77	4
77	81	1
48	118	4
192	195	5
225	235	6
214	215	22
58	75	3
231	246	6
5	14	13
173	177	4
166	181	10
50	94	3
89	90	5
77	83	3
1	25	1
192	214	1
48	49	11
41	46	2
207	223	4
91	92	19
79	84	8
191	193	5
2	2	40
76	78	7
77	86	1
204	230	1
114	247	2
151	168	4
167	180	4
200	223	5
21	210	2
35	36	14
52	84	4
146	206	4
208	243	6
45	110	3
182	184	13
218	241	5
4	5	32
155	156	8
156	204	1
28	30	3
179	218	1
201	235	5
198	239	2
96	217	2
201	202	10
8	57	2
177	241	3
82	242	1
14	49	3
211	241	5
190	208	2
220	226	2
114	116	5
47	78	1
48	55	2
7	26	3
68	161	3
174	208	3
75	86	3
92	167	3
171	179	5
160	165	4
247	248	15
37	168	3
224	235	4
87	102	5
51	74	3
50	51	2
14	59	1
167	173	1
195	212	1
201	228	1
64	72	3
88	96	2
241	244	13
62	80	5
229	236	3
104	105	12
209	241	2
90	102	1
212	220	3
25	31	1
214	217	11
215	232	7
184	217	5
108	110	8
31	54	2
119	234	4
186	191	7
39	105	2
112	113	8
210	237	4
54	154	4
225	237	1
22	115	3
158	174	4
197	198	46
167	236	4
147	171	2
206	208	3
178	193	9
16	155	2
173	200	1
32	33	8
1	156	1
158	161	6
7	52	3
169	188	2
174	226	5
5	236	2
166	195	2
110	149	3
232	233	9
41	44	4
67	78	9
84	106	4
193	195	12
12	214	1
41	107	2
26	27	17
9	52	4
162	165	3
178	184	6
31	39	4
245	246	25
67	201	1
20	230	7
4	150	1
111	247	3
74	87	3
152	157	4
83	193	3
92	98	3
176	178	10
241	245	13
162	194	4
17	30	1
193	218	4
54	110	2
225	226	10
0	1	1
187	191	3
84	110	1
3	38	5
106	239	3
151	207	3
173	238	4
189	216	2
10	185	1
15	49	3
231	234	5
88	219	5
93	94	16
77	79	7
152	196	4
54	77	2
164	171	2
25	28	4
91	166	5
238	242	4
196	216	4
65	226	3
22	91	3
67	248	2
101	240	3
30	37	2
35	50	1
115	116	19
12	17	2
223	241	4
223	235	3
91	146	1
19	199	5
167	182	1
102	108	2
50	56	1
35	47	4
170	182	8
89	99	5
38	53	4
48	50	7
230	232	4
158	187	2
52	55	6
0	207	1
160	189	5
115	239	2
177	179	2
67	94	2
110	237	5
146	146	15
157	183	2
170	172	4
20	58	3
81	86	3
110	211	1
160	170	7
47	48	14
34	62	3
80	82	17
93	192	1
194	215	7
208	216	3
24	37	4
166	170	3
120	195	1
200	214	1
11	12	9
196	231	2
2	5	2
161	183	3
33	84	5
208	218	2
61	68	3
29	30	12
159	171	4
57	111	8
21	94	4
214	243	2
211	215	2
25	65	1
53	67	1
34	86	2
193	238	3
98	171	3
174	236	2
168	186	2
7	179	4
87	213	4
111	116	4
12	37	2
0	2	3
6	204	1
96	117	1
114	117	1
188	196	3
214	244	3
165	166	13
82	92	4
74	78	6
95	108	3
45	97	4
6	154	2
51	242	5
172	179	2
144	147	2
180	204	3
158	171	4
173	176	2
109	151	4
61	91	6
154	204	2
89	110	1
228	235	3
9	224	3
173	185	3
7	174	2
240	247	9
198	200	7
47	112	4
44	118	2
190	194	2
5	165	1
22	201	4
157	191	4
158	238	1
53	79	2
56	57	18
29	207	2
109	111	3
188	205	2
101	108	2
238	241	1
66	68	2
44	53	3
179	229	1
226	234	3
35	61	2
47	50	6
158	164	3
7	172	2
74	119	4
157	208	3
185	239	5
233	237	4
157	192	4
63	87	3
18	174	4
100	103	5
4	7	2
23	51	3
63	66	4
47	75	3
103	107	4
158	163	8
29	38	3
167	197	3
1	39	1
64	91	1
195	199	4
176	179	9
209	248	3
192	213	3
89	94	2
168	182	3
40	175	5
68	118	3
10	32	2
119	206	3
173	239	2
161	169	5
211	217	1
145	211	1
42	221	3
210	249	2
59	244	1
97	101	1
5	37	6
173	180	4
159	160	18
83	194	4
163	165	12
157	158	19
211	224	1
24	27	1
212	227	1
249	249	7
74	75	5
165	167	3
57	192	6
45	207	2
180	205	2
220	223	4
192	208	2
178	208	4
93	165	4
191	223	3
61	67	2
171	181	1
90	94	1
71	73	1
12	39	2
33	104	1
210	214	4
199	208	2
166	193	2
223	226	2
16	18	9
51	214	2
86	97	6
59	81	3
38	44	1
157	172	1
55	220	4
69	92	2
178	183	5
51	102	4
50	75	5
183	217	4
72	231	4
162	183	1
151	155	1
114	159	2
73	117	1
59	115	1
64	150	4
63	64	10
230	237	1
7	8	21
156	167	5
200	201	17
105	166	2
76	180	2
21	28	2
194	208	5
40	241	4
110	145	2
48	92	1
59	62	2
199	218	1
38	40	2
19	47	3
32	40	2
66	219	1
191	208	3
213	239	5
166	236	3
192	197	5
162	172	6
42	55	2
51	67	3
147	149	1
216	218	8
76	100	3
151	153	3
118	246	1
149	205	4
81	182	1
56	93	3
167	185	3
184	223	4
36	38	4
61	62	14
151	170	1
187	237	5
23	200	1
64	110	2
106	113	2
205	227	2
45	47	2
218	231	1
234	238	5
178	228	1
57	157	1
30	232	5
28	54	1
83	188	6
94	203	3
37	39	2
60	62	7
180	203	2
185	187	3
191	196	7
112	240	5
98	101	1
49	66	3
49	79	3
71	106	1
203	228	1
81	101	1
171	182	5
181	208	3
174	196	3
6	25	3
59	172	2
23	201	1
236	239	2
30	60	3
9	29	1
46	186	1
24	25	6
194	219	5
218	242	2
89	96	3
236	240	3
165	242	3
113	168	2
158	179	3
20	23	4
92	221	1
211	223	1
59	61	4
3	18	1
44	229	4
69	93	3
11	110	1
93	231	3
45	52	1
198	209	2
165	196	1
190	240	1
162	234	1
188	208	4
6	12	6
164	238	2
178	190	1
187	208	5
99	115	2
30	34	3
38	67	5
190	232	3
83	85	5
91	96	1
32	44	2
75	88	2
78	205	1
12	62	3
43	110	3
216	242	6
190	211	3
88	111	2
183	184	25
98	109	3
157	160	7
195	197	5
219	220	11
66	111	3
55	57	6
163	168	3
196	210	5
171	246	8
15	100	5
224	231	5
112	245	6
11	24	5
179	181	1
9	94	6
170	242	1
5	19	5
145	156	3
156	229	1
40	153	2
106	247	3
186	197	3
59	91	3
152	208	5
173	174	18
179	183	6
7	41	1
203	222	4
153	183	1
227	231	3
100	150	1
1	18	1
213	236	3
67	232	2
41	43	7
184	192	1
152	154	3
153	168	4
109	227	2
208	215	1
214	240	3
71	114	1
199	240	3
50	79	1
54	172	1
23	191	1
197	207	4
8	151	1
176	214	4
15	80	4
231	236	1
64	67	5
6	27	2
211	234	6
152	183	3
184	198	7
22	40	3
52	62	3
162	166	1
15	96	1
113	118	2
37	38	12
226	228	6
106	112	3
43	222	4
95	100	2
3	31	3
40	180	1
183	202	1
38	151	4
51	173	4
15	116	1
197	233	1
31	44	2
67	84	1
159	187	2
95	176	1
150	204	2
197	237	5
84	95	1
176	240	2
147	205	3
63	100	2
176	245	1
145	153	4
81	106	2
99	102	2
223	237	2
70	103	1
75	247	1
60	63	6
48	177	4
97	103	5
83	111	2
100	158	2
213	215	5
204	236	5
121	164	2
39	42	2
7	108	1
55	233	1
52	216	1
105	203	6
188	242	2
20	21	8
15	69	1
178	180	3
70	118	2
29	31	8
145	149	1
43	45	4
5	42	1
46	53	7
34	50	4
12	199	3
78	87	2
233	238	1
49	77	3
177	214	4
167	179	3
50	72	3
40	41	12
58	59	11
101	111	1
150	172	4
89	100	5
33	35	4
225	240	2
67	86	1
182	225	3
12	46	2
205	223	2
61	65	2
149	179	1
193	199	1
80	166	5
79	116	1
158	195	6
34	37	7
26	28	10
189	213	6
51	69	1
81	114	7
56	63	2
150	154	2
183	185	1
51	105	2
224	244	3
175	179	2
195	221	2
15	38	3
16	230	7
89	91	4
30	226	2
193	204	1
70	98	1
23	93	1
34	227	1
203	229	5
166	168	3
70	239	2
34	239	1
65	189	2
32	58	1
163	169	1
70	71	9
74	79	2
202	237	3
43	200	2
4	20	6
5	35	2
4	31	4
113	115	4
117	168	1
153	195	2
116	167	3
106	246	1
198	201	3
86	107	2
223	225	7
157	165	4
113	150	2
153	165	2
16	23	1
36	56	1
119	152	2
61	119	2
190	197	2
194	244	4
181	185	5
143	143	2
174	175	6
208	212	3
231	235	2
46	48	1
236	247	4
189	192	2
231	233	6
119	120	7
31	35	1
186	221	1
11	163	4
211	247	2
28	110	2
90	103	2
191	194	2
36	41	1
243	246	1
97	105	3
31	40	3
154	220	4
229	233	7
26	235	2
86	89	4
17	40	3
96	190	2
107	109	2
170	178	3
12	230	1
156	157	7
151	180	12
47	49	2
19	50	2
170	208	4
76	98	3
80	246	3
20	42	2
28	231	3
96	183	2
161	163	2
103	119	6
159	166	2
185	192	3
14	37	3
73	118	1
62	81	2
178	188	4
144	144	2
37	203	4
89	165	3
44	110	1
65	68	3
189	193	3
76	115	5
146	213	3
112	181	2
178	209	1
38	147	2
78	244	5
157	176	2
208	245	3
78	105	2
208	210	3
94	227	3
172	240	4
170	177	14
19	60	3
186	225	1
176	199	3
214	247	1
175	192	4
154	203	1
171	187	2
69	74	1
21	201	1
97	184	5
45	236	1
156	174	2
107	108	5
149	150	9
172	194	1
62	72	1
16	17	2
28	47	3
175	188	1
34	38	1
86	111	2
117	212	2
235	247	2
8	30	2
65	98	5
53	208	2
88	93	2
60	76	1
118	160	2
15	35	2
98	100	5
56	67	1
242	247	5
25	97	3
187	190	5
48	160	1
245	248	1
48	75	2
7	25	4
145	175	2
196	209	4
15	62	1
178	240	5
18	35	2
112	115	1
101	106	3
78	91	7
64	92	1
49	51	3
81	163	2
62	85	4
167	172	4
76	116	1
67	73	1
151	152	4
85	88	3
177	184	5
78	111	2
96	109	2
7	21	2
211	213	9
156	245	2
54	221	2
55	101	4
200	229	3
39	43	3
78	226	3
70	75	4
154	169	1
181	183	2
163	166	4
177	223	3
96	156	1
62	64	4
60	72	3
172	201	5
176	239	3
8	29	3
210	238	2
39	78	2
248	249	3
175	191	2
82	146	2
2	102	2
32	113	3
4	63	4
203	227	1
118	223	3
67	75	3
24	29	2
13	68	1
30	31	7
159	210	4
107	186	1
36	62	3
98	181	1
37	44	2
213	244	4
11	49	1
152	165	5
26	61	3
46	52	1
118	152	1
181	192	3
179	212	1
8	26	2
36	206	1
67	90	3
60	77	2
160	171	1
23	156	1
91	93	6
54	56	4
9	23	2
31	38	1
6	58	1
68	201	1
188	209	8
198	224	3
186	239	2
191	220	1
56	244	3
185	196	5
159	174	3
96	107	1
163	188	3
145	147	1
74	82	1
77	106	1
159	175	3
14	214	3
175	202	1
69	72	10
57	80	2
14	60	3
211	237	3
224	237	2
47	54	2
10	203	1
164	173	3
111	113	3
159	181	2
87	99	6
1	14	2
168	220	3
77	169	6
5	75	1
12	118	2
75	77	4
28	76	4
19	110	1
41	225	2
67	200	6
177	219	3
10	92	2
38	150	3
184	194	2
79	172	1
14	89	2
46	200	1
241	243	5
67	103	1
166	232	1
198	211	3
18	29	3
108	224	7
181	187	1
99	111	1
19	117	2
22	26	2
186	242	2
208	242	2
84	215	1
62	67	5
234	246	2
166	176	6
66	247	2
20	29	2
156	230	1
186	187	8
176	215	4
110	117	2
156	161	1
59	72	2
165	210	3
173	188	1
80	215	3
164	243	2
52	236	4
160	167	3
169	246	2
110	219	3
13	18	4
27	202	1
20	46	1
71	107	1
180	236	1
77	82	3
95	117	4
164	242	2
64	109	1
94	202	2
82	84	4
104	248	4
33	37	4
150	160	3
146	205	1
43	52	1
178	181	1
63	110	2
104	112	4
73	100	1
185	213	8
88	103	3
9	95	2
177	218	5
100	211	2
45	172	2
109	214	3
56	97	2
57	112	1
152	246	1
90	179	1
59	204	4
179	211	1
26	200	2
171	191	3
111	239	2
159	165	2
201	229	5
206	212	4
225	231	1
113	155	3
111	246	1
174	178	1
97	145	2
3	25	2
36	68	1
64	74	1
162	209	2
236	246	8
203	235	2
176	183	2
225	244	1
193	224	2
6	29	2
79	121	2
220	234	2
177	237	3
211	214	2
3	4	4
198	229	1
201	206	1
112	167	3
175	231	1
193	210	3
186	198	3
181	196	2
156	171	1
84	103	1
46	226	3
10	47	1
11	46	4
57	61	3
215	218	2
10	201	1
78	83	2
165	187	4
150	162	3
152	174	5
115	179	1
62	150	2
169	245	2
159	162	2
186	201	1
49	112	2
86	88	1
54	206	3
53	57	1
19	20	4
82	111	2
116	119	1
62	68	1
75	96	3
176	248	1
15	57	4
159	176	2
199	231	6
107	121	2
209	214	2
38	46	1
25	235	1
15	66	1
19	94	1
97	99	8
189	191	4
34	61	2
242	248	3
173	198	2
10	199	3
200	210	1
35	184	3
227	229	3
114	245	1
119	211	1
20	88	3
4	34	3
33	36	1
159	164	5
32	204	3
117	161	2
160	182	5
25	231	2
157	182	4
30	68	2
162	193	2
149	213	2
94	151	3
1	42	1
4	12	3
146	168	3
115	159	4
217	219	2
19	182	2
145	151	1
197	231	4
115	217	1
212	230	2
55	116	4
192	240	2
214	218	5
152	217	3
56	116	4
87	113	2
3	186	3
184	242	1
163	242	2
59	95	3
198	223	2
164	166	7
157	209	2
74	213	2
97	190	2
149	151	2
37	59	4
150	216	2
198	202	1
102	170	1
157	177	5
6	109	1
160	163	2
45	78	1
187	222	2
199	237	1
151	167	1
183	192	5
25	94	1
42	210	1
110	157	1
34	59	1
9	10	7
19	84	1
172	205	3
39	66	1
225	247	2
189	232	2
163	177	3
115	117	4
184	235	3
156	202	2
66	244	2
80	170	2
155	168	2
73	77	1
99	114	1
182	242	3
233	248	2
56	210	3
177	197	1
5	190	1
18	112	1
96	102	2
199	238	4
221	223	1
197	212	1
58	212	1
118	224	1
211	239	3
34	108	2
60	113	1
33	151	1
85	89	2
233	240	1
89	244	2
173	240	1
92	156	4
166	175	1
163	175	2
103	106	2
183	193	2
16	36	1
86	223	1
67	222	2
119	144	1
220	233	1
83	245	2
30	75	1
179	242	2
26	32	6
27	204	1
9	21	1
186	222	4
162	225	2
9	24	1
213	248	1
156	183	1
18	78	3
56	58	3
110	116	4
66	101	2
77	80	2
213	242	1
38	42	1
65	75	2
194	196	6
41	247	1
204	211	1
84	104	1
62	110	3
209	212	1
24	103	5
152	182	1
77	244	4
37	50	4
53	94	3
32	41	2
73	76	1
80	85	4
172	247	1
79	222	1
57	163	2
186	241	1
82	223	1
18	37	2
171	177	5
182	192	1
3	37	2
162	213	2
75	204	2
24	69	1
18	158	1
196	200	1
1	112	3
237	247	2
19	35	2
42	50	2
60	69	4
59	110	1
203	206	1
224	229	3
83	174	2
200	235	1
169	242	2
109	183	1
210	212	2
85	97	1
215	243	3
36	150	2
160	166	1
167	208	3
192	245	3
240	243	2
172	239	3
12	19	2
172	185	3
175	185	2
158	192	2
197	240	3
79	101	1
177	180	1
195	218	2
48	238	1
69	115	2
2	245	2
5	69	3
20	159	1
175	215	3
191	216	1
67	89	1
213	217	2
72	246	1
96	115	1
224	226	2
93	151	1
111	213	4
227	230	1
30	39	2
173	202	3
153	177	2
94	206	2
195	234	1
179	203	1
13	50	1
161	172	2
208	248	3
219	246	1
72	104	1
4	71	4
33	204	2
176	182	1
78	86	1
165	248	4
153	164	2
210	230	1
14	18	2
172	187	2
73	120	3
222	241	2
52	98	3
65	163	1
165	168	1
6	115	5
192	212	4
187	224	4
22	53	4
5	15	1
242	246	2
40	42	1
39	46	2
75	90	1
3	12	3
160	162	1
159	243	2
20	62	1
157	162	1
120	144	3
115	119	2
57	156	3
195	231	1
102	206	1
18	26	1
4	202	1
46	162	1
79	150	1
119	162	1
33	45	3
164	172	2
63	106	2
95	120	1
176	188	1
79	86	3
14	46	2
95	97	2
30	203	2
42	51	4
43	150	1
71	80	1
177	183	1
58	66	1
81	107	2
182	190	1
77	112	3
5	181	3
198	241	1
178	204	2
22	24	4
118	144	1
144	167	1
25	223	3
85	115	1
208	244	2
32	52	3
232	242	2
33	200	2
186	200	1
67	240	1
181	188	1
175	209	2
108	119	2
179	231	2
201	246	1
90	109	1
106	157	1
15	27	6
57	193	1
204	224	2
190	209	1
15	18	5
118	236	2
161	186	1
108	112	1
158	165	2
169	177	1
185	198	4
210	247	2
212	219	1
42	198	6
183	240	2
82	86	3
37	175	1
156	180	1
117	120	1
52	54	3
221	241	1
114	204	2
172	176	4
10	43	1
196	220	2
118	162	2
170	187	1
17	64	1
59	71	1
20	232	2
12	193	4
72	98	2
116	242	1
171	173	2
167	183	2
89	98	3
174	176	3
237	243	1
55	58	1
67	207	2
109	207	3
50	240	3
146	150	2
161	185	2
147	151	1
9	42	1
202	206	3
172	195	1
208	213	1
147	150	1
29	34	1
3	24	1
35	226	2
67	116	1
77	163	1
153	187	2
89	111	2
84	219	1
67	239	3
167	213	1
57	209	3
8	173	1
165	175	1
205	232	3
27	29	2
56	59	2
43	70	2
24	32	1
144	183	1
4	75	4
47	113	4
5	48	7
84	92	1
152	159	2
2	6	1
171	238	1
6	32	2
167	221	4
85	170	3
29	52	2
180	192	1
45	55	1
14	208	4
77	98	2
90	100	2
10	202	1
207	241	3
116	121	2
25	59	1
166	237	4
51	66	1
226	231	1
30	188	2
172	197	5
161	181	4
4	58	1
90	101	2
39	41	2
169	194	1
31	233	1
63	91	1
1	59	1
25	44	1
9	64	6
175	178	4
17	33	4
45	108	1
20	33	2
31	55	1
93	150	2
86	113	2
3	19	3
49	95	1
95	147	2
48	51	2
199	247	1
9	78	2
62	78	3
98	104	1
42	82	1
74	164	2
111	159	1
117	237	2
58	242	3
201	204	2
151	165	3
162	185	2
22	231	1
84	87	2
237	244	1
168	172	2
226	233	1
207	230	5
30	47	1
9	31	2
172	181	1
53	211	2
151	160	1
23	33	2
30	227	1
30	214	1
219	244	2
7	57	1
108	236	3
204	207	2
93	115	1
106	119	5
187	232	2
2	9	1
94	108	1
99	107	3
9	38	1
64	71	2
93	245	2
185	193	2
88	107	3
194	218	1
184	210	1
209	243	3
158	237	1
73	210	2
18	216	2
18	202	1
213	219	1
173	178	1
224	240	3
156	163	2
61	208	1
85	96	1
233	243	1
73	116	2
229	232	4
82	110	2
218	222	1
42	188	2
7	205	1
168	190	1
118	211	1
189	197	1
98	111	1
3	39	1
183	247	3
189	196	2
46	119	1
55	117	2
87	211	1
63	90	2
150	192	2
119	151	1
207	210	2
111	176	2
18	20	4
175	181	1
19	160	5
101	103	3
75	93	2
58	73	4
201	230	2
15	47	1
79	218	2
39	211	3
94	149	2
56	74	2
12	241	1
8	27	1
121	157	2
43	234	1
46	77	3
38	113	4
102	248	3
40	111	1
184	218	1
162	190	1
171	227	1
188	193	3
163	185	2
199	209	2
168	181	1
52	56	2
103	105	2
74	102	1
4	68	2
186	190	1
36	201	4
11	18	1
171	208	1
204	231	1
29	69	1
30	63	1
62	69	1
8	93	1
82	85	4
25	227	1
14	47	2
89	188	1
190	214	1
17	19	2
59	73	3
220	232	1
7	230	3
36	49	1
50	119	1
5	34	1
165	214	3
211	216	1
16	151	2
222	229	1
82	113	1
57	59	1
5	30	1
154	201	6
220	231	1
150	227	2
210	248	2
27	46	2
157	181	1
187	193	2
42	68	2
177	244	3
49	242	1
150	199	4
226	247	2
24	197	2
20	39	1
20	22	1
15	200	1
65	147	2
61	73	2
198	230	1
35	55	3
66	103	1
30	166	1
71	74	1
191	222	1
223	229	2
145	154	1
4	62	2
52	95	1
68	76	1
16	168	2
84	222	1
111	120	1
170	216	2
68	72	1
71	95	1
164	184	1
101	109	1
83	108	1
68	83	1
25	204	2
48	62	2
217	244	1
24	95	1
46	150	2
67	92	2
152	184	4
159	172	1
115	246	1
156	195	1
115	145	2
78	94	1
12	97	2
39	59	1
176	181	1
112	243	3
82	109	5
173	212	1
207	224	1
180	207	2
83	215	1
67	219	2
168	245	1
85	90	2
68	119	2
228	234	1
4	59	1
81	109	2
58	213	2
144	155	1
202	229	1
155	172	2
100	119	1
188	210	1
156	168	1
180	243	1
238	240	2
49	245	1
167	174	2
174	191	1
28	75	1
31	162	1
111	165	1
210	232	2
153	185	3
155	157	1
181	184	3
225	242	1
232	238	4
68	162	2
170	173	2
107	119	2
192	237	2
80	104	2
91	240	2
20	202	2
182	238	1
162	180	1
162	205	1
155	234	2
17	24	1
197	236	1
16	40	1
175	237	1
185	217	1
240	246	1
189	243	1
55	204	1
178	195	1
39	76	1
185	190	2
151	197	1
61	196	3
199	207	2
152	247	1
93	96	1
14	26	2
36	55	1
206	229	2
171	174	1
31	45	2
27	237	1
88	95	1
33	59	1
108	111	1
82	107	1
165	197	2
72	75	2
55	161	1
31	190	1
96	119	1
33	34	2
153	237	1
53	233	1
111	199	1
228	237	1
57	160	1
58	62	1
222	224	1
175	226	1
113	116	1
4	13	1
62	70	1
74	110	1
147	168	1
77	120	2
66	102	2
73	82	2
100	107	1
100	108	1
232	248	1
180	199	1
12	58	2
80	89	2
165	233	1
181	189	1
11	106	1
80	83	1
47	62	1
1	2	4
182	230	1
188	192	1
180	235	1
162	168	2
156	191	1
235	237	1
212	218	1
1	19	1
82	88	1
2	26	1
55	186	2
21	39	1
212	237	1
153	245	3
26	40	2
173	208	1
1	15	1
78	114	1
84	165	2
78	90	3
182	208	1
200	231	1
180	186	2
184	212	3
110	179	1
229	235	4
110	226	1
177	182	2
59	212	1
1	6	1
45	118	2
225	227	2
97	144	1
173	234	1
220	239	2
17	59	1
182	207	1
4	24	2
4	113	2
194	209	1
116	173	2
4	37	1
61	89	1
86	243	1
113	185	2
99	216	1
213	245	1
180	206	2
35	37	5
161	187	1
32	239	2
197	210	1
105	112	4
47	79	1
15	113	1
39	181	1
76	164	2
51	249	2
15	37	1
18	116	1
243	245	1
63	247	1
146	178	1
162	195	1
48	56	1
14	42	1
114	158	1
1	48	1
220	224	1
37	76	1
50	57	1
80	91	1
112	114	1
195	215	1
37	204	1
177	242	1
41	64	1
74	120	1
28	203	2
155	222	2
33	113	1
65	110	1
171	242	1
167	170	3
29	36	1
157	163	1
88	101	3
19	31	1
15	197	1
15	56	1
205	213	2
2	14	2
46	116	1
147	206	1
52	198	1
12	20	1
196	208	1
20	68	1
20	145	1
44	205	1
177	188	1
184	191	1
53	159	2
208	214	1
72	107	1
94	183	1
166	196	1
92	106	1
47	53	1
166	171	2
194	241	2
87	109	1
152	163	1
161	168	1
195	235	1
30	38	1
76	232	1
41	183	1
74	100	1
184	195	1
18	156	1
62	221	2
2	15	1
188	197	1
185	222	2
157	180	1
120	145	1
106	109	1
20	27	1
204	232	2
41	182	1
204	225	1
61	112	1
159	173	1
24	36	1
4	35	1
192	239	1
193	215	3
175	225	1
18	30	3
61	86	1
51	55	1
48	76	1
146	169	1
47	60	1
158	196	1
219	226	1
176	192	1
10	27	1
50	112	1
158	183	1
11	53	1
151	156	1
179	225	1
241	247	1
182	195	1
157	232	2
75	79	1
69	119	1
36	77	1
35	48	1
200	213	1
31	43	2
207	212	3
42	47	1
225	233	1
24	64	1
94	110	2
170	192	2
119	160	1
52	72	1
14	169	2
156	192	1
161	200	1
65	74	2
162	224	1
55	59	1
115	215	1
26	60	1
4	6	1
60	247	1
72	82	1
240	248	1
191	210	2
11	23	1
20	157	1
34	110	1
38	182	2
209	216	1
9	89	1
88	90	2
154	157	1
149	177	1
26	35	1
16	28	1
74	214	1
189	214	1
88	244	2
189	209	1
189	218	1
153	169	1
99	110	1
188	211	1
172	175	1
69	101	1
198	203	1
23	28	1
167	220	1
170	183	1
68	117	1
174	237	1
223	231	1
52	207	1
77	170	1
211	219	1
103	111	1
62	243	1
38	100	2
203	224	1
108	187	1
222	231	1
11	14	1
174	232	1
88	99	1
160	195	1
46	85	1
24	65	1
2	46	1
83	107	1
87	219	1
224	233	1
120	211	1
20	36	1
3	28	1
201	248	1
15	19	1
175	248	1
6	47	1
34	77	1
70	73	2
203	221	1
116	118	1
9	100	1
94	178	1
192	219	1
8	40	1
210	239	2
145	159	1
17	200	1
61	76	1
55	245	1
185	207	1
72	94	1
186	196	1
23	219	1
143	245	1
226	229	1
95	205	1
19	95	1
56	89	1
192	209	1
18	36	1
215	223	1
171	210	1
58	63	1
64	90	1
11	45	1
59	113	2
146	181	1
161	164	1
150	212	1
61	107	1
147	158	1
195	238	1
214	245	1
15	119	1
66	84	1
145	150	1
212	225	1
71	105	1
158	160	1
185	221	1
116	212	1
119	159	1
9	155	1
222	243	1
94	189	1
184	215	2
90	98	1
149	172	1
6	19	1
30	67	1
97	188	1
164	212	2
87	92	1
8	205	1
121	166	1
40	224	1
68	81	1
62	73	1
195	200	1
28	71	1
