71	71	6
23	23	7
151	151	10
65	65	1
89	89	6
31	52	2
94	95	6
161	162	4
106	107	2
11	12	4
132	132	5
39	39	11
148	149	4
130	130	8
105	107	4
134	134	7
38	39	2
91	92	3
63	63	2
7	7	18
167	168	9
122	122	4
146	146	11
95	95	3
37	37	10
16	16	4
31	38	1
11	11	8
31	31	10
150	150	9
26	39	3
141	141	6
77	78	11
21	22	8
169	170	4
182	182	13
19	19	6
28	35	2
110	120	3
105	105	8
75	76	2
26	37	2
133	133	3
32	32	10
47	47	8
26	26	16
40	40	12
57	57	9
13	13	16
144	144	5
24	30	3
27	34	2
42	42	7
56	56	11
124	124	21
38	38	8
177	177	18
55	55	11
25	25	7
139	140	1
26	36	3
4	5	4
99	99	6
112	112	19
93	93	6
64	64	5
88	88	6
157	158	3
56	66	2
120	181	3
68	85	5
126	126	11
185	185	15
73	73	4
20	23	2
55	56	6
90	90	8
174	185	4
93	112	3
152	170	1
158	159	1
172	182	5
173	174	2
64	67	3
183	183	11
104	109	2
128	133	2
1	1	7
3	3	5
114	114	4
136	137	5
157	157	9
103	103	13
79	79	14
110	110	8
169	169	8
150	155	1
33	34	5
13	14	6
181	181	9
38	54	1
91	91	15
74	74	8
115	118	2
30	31	3
157	163	5
142	142	8
72	72	4
162	163	2
60	61	2
99	103	5
77	83	4
180	180	3
161	161	5
152	154	2
186	186	13
21	35	2
21	21	7
36	36	7
171	172	5
163	163	2
179	179	3
167	167	8
27	29	1
146	147	3
188	189	5
34	34	2
67	67	7
170	170	8
141	143	6
83	83	4
170	175	4
178	178	17
78	78	14
97	136	2
78	79	6
14	14	6
190	190	2
120	120	7
172	174	3
108	109	4
123	123	15
22	22	7
48	53	1
95	106	1
140	140	4
140	141	10
96	97	5
12	12	3
0	0	7
112	119	1
60	67	4
17	17	8
85	85	5
17	74	2
96	99	5
6	6	7
92	93	4
27	30	3
62	92	2
59	59	13
165	169	6
10	10	6
107	107	5
152	152	5
20	21	3
95	96	1
0	4	6
109	109	4
186	187	3
166	170	3
64	70	2
18	19	2
86	87	2
139	139	19
66	93	5
22	27	4
135	136	1
100	100	3
41	41	7
183	189	6
183	184	1
157	165	2
128	130	1
8	23	7
71	72	3
53	53	9
164	164	8
106	124	3
187	187	2
23	24	2
24	24	11
79	80	2
73	80	1
114	119	3
87	88	2
134	135	2
111	112	3
76	76	6
68	68	4
66	66	12
2	2	5
44	44	7
78	80	2
116	117	2
35	35	6
164	170	4
10	22	2
156	157	1
120	123	3
166	166	4
127	139	6
130	138	2
12	13	6
35	58	1
145	145	9
116	116	2
175	175	2
42	46	3
130	131	4
25	41	2
5	6	5
110	111	1
106	106	10
18	18	9
119	120	2
170	184	3
129	129	12
160	160	6
13	27	1
156	156	5
95	104	3
127	127	2
147	148	4
34	61	2
101	101	5
154	154	5
184	184	13
9	24	2
30	30	5
128	128	5
88	91	2
77	77	2
104	111	1
118	118	7
92	92	1
72	82	3
57	62	3
187	188	1
184	186	5
94	94	10
90	134	1
58	58	9
174	176	5
127	138	2
19	20	1
12	32	1
75	75	7
151	152	1
54	54	6
120	121	3
115	115	3
53	54	3
171	171	1
43	90	3
37	39	1
150	151	2
10	36	3
109	111	6
60	60	5
143	144	2
178	181	3
102	102	4
1	5	4
176	176	10
59	61	3
8	9	2
155	156	3
10	11	2
108	118	3
80	82	1
26	27	3
137	137	4
172	172	6
113	119	1
17	18	2
148	151	5
43	44	1
172	183	4
57	66	1
83	95	4
174	184	5
126	133	2
184	185	3
127	129	2
29	30	2
31	32	8
56	57	10
117	118	1
176	177	4
174	175	4
143	143	6
20	27	2
8	8	6
37	48	2
48	48	11
175	176	1
83	94	1
88	89	3
148	148	4
125	125	5
76	77	1
94	96	1
109	125	1
24	26	2
100	119	3
87	87	2
125	148	1
15	15	5
174	174	2
155	155	1
149	149	3
173	177	1
189	189	5
5	5	2
148	150	1
165	166	1
35	36	3
136	136	2
111	111	1
24	36	2
153	168	1
64	65	1
3	4	2
183	186	2
103	188	1
84	84	3
147	147	4
182	183	3
33	35	2
122	123	6
89	90	3
71	79	3
129	138	2
102	103	1
117	117	4
188	188	4
183	185	3
149	155	1
141	142	1
80	80	1
185	186	4
61	61	3
66	68	2
128	150	4
146	152	1
137	138	1
149	151	2
39	40	5
54	56	2
98	101	1
172	173	5
168	168	3
32	53	3
138	138	2
121	121	4
165	183	1
33	33	3
36	47	2
13	34	1
79	82	2
58	59	2
65	66	2
35	38	3
10	21	1
162	162	3
95	124	2
27	27	1
149	150	1
13	20	2
165	165	2
153	153	3
145	148	1
182	188	1
57	58	2
88	104	1
54	55	1
164	165	2
6	7	3
2	3	2
107	125	1
98	107	1
182	190	1
125	127	1
28	63	2
68	84	1
112	117	2
112	113	1
158	158	1
133	136	2
140	144	1
96	96	1
59	64	1
110	119	1
133	138	1
24	37	1
159	160	1
121	178	1
133	134	1
141	144	2
95	100	2
107	124	2
152	166	2
170	171	1
131	131	2
91	134	1
36	42	1
81	82	1
106	111	2
19	54	1
37	38	1
63	65	1
28	30	1
131	132	2
97	118	1
185	188	1
173	173	1
136	149	1
100	101	1
102	126	1
63	64	1
125	126	1
183	188	2
86	86	1
41	42	1
104	186	1
34	58	1
144	145	1
73	81	1
98	99	3
54	66	2
130	132	1
54	57	1
1	3	1
80	81	1
96	98	1
99	125	1
23	37	1
69	69	2
165	171	1
45	46	1
38	56	1
