67	67	11
160	161	2
31	31	13
102	102	7
134	170	6
9	42	8
172	172	17
156	158	2
75	75	9
125	164	2
9	9	23
16	16	15
155	156	3
38	38	32
32	36	5
98	100	5
15	23	3
32	34	14
131	131	6
25	25	21
105	105	5
41	42	11
35	40	7
170	171	1
1	1	9
109	111	2
74	74	8
59	59	11
169	170	4
168	168	12
9	10	9
158	159	6
35	36	10
162	162	5
17	17	18
170	170	12
7	8	5
155	155	3
42	43	11
106	113	8
171	171	8
3	75	1
54	54	20
21	21	4
32	33	14
16	17	7
90	90	10
133	133	17
117	118	6
109	109	2
65	65	17
13	13	15
167	167	9
20	20	15
92	92	5
57	60	3
103	103	13
137	150	3
29	30	6
118	120	5
79	79	12
150	150	11
172	173	5
33	43	1
72	75	3
174	174	4
4	20	1
10	10	10
55	55	8
145	147	2
6	6	15
108	108	9
96	106	1
15	15	11
147	147	13
82	82	4
3	4	13
32	32	19
37	68	1
44	44	12
53	54	2
16	25	5
127	127	7
112	112	3
118	118	9
153	155	1
25	26	8
22	22	11
123	124	6
10	111	1
104	117	2
105	124	1
111	111	15
176	176	10
119	119	12
90	91	7
178	178	9
159	159	6
134	134	5
34	34	5
34	35	6
107	162	1
145	145	10
78	80	4
49	49	3
141	141	7
7	7	14
46	46	2
128	128	5
14	14	15
5	7	5
180	180	4
11	11	15
91	91	9
88	88	8
29	34	6
100	123	3
140	140	9
124	124	3
128	129	5
80	84	1
96	96	6
84	84	5
17	21	1
3	3	18
112	113	3
43	43	8
2	4	2
36	36	19
0	0	17
37	38	3
40	42	3
106	107	8
153	154	2
24	49	1
18	41	1
65	66	5
54	56	1
105	106	9
157	159	5
133	137	3
2	10	2
146	146	7
40	40	12
159	162	5
14	15	6
29	29	10
82	83	5
107	109	9
160	160	5
45	66	2
7	9	3
143	144	1
24	24	11
59	60	6
142	142	8
8	31	4
107	114	4
99	105	4
59	61	2
149	149	11
33	34	5
26	26	9
116	116	2
19	26	5
2	3	2
66	66	12
82	99	2
100	100	5
24	29	3
51	51	8
40	41	5
50	63	1
10	11	3
139	139	11
63	64	4
89	89	8
13	25	1
64	97	2
142	144	2
170	178	2
99	99	4
18	24	1
3	19	8
86	92	1
38	39	1
49	51	1
50	51	10
87	100	1
35	42	4
103	104	1
9	12	5
19	23	5
37	37	22
95	95	5
28	28	8
176	177	6
87	87	8
76	76	5
70	72	4
55	56	5
16	41	3
157	157	6
52	52	4
8	9	1
85	85	2
35	35	8
33	42	3
144	144	2
84	100	5
105	114	4
171	172	3
175	178	3
57	58	4
142	143	6
121	121	5
161	161	7
93	93	8
4	4	10
117	117	8
71	73	4
78	109	1
3	65	1
63	63	5
99	104	1
159	160	2
1	2	6
31	32	6
33	33	9
137	137	5
76	77	7
23	23	14
108	161	4
161	163	4
114	114	3
2	2	10
177	178	3
44	45	2
39	40	7
28	30	2
160	164	6
8	8	4
97	97	2
136	136	8
114	115	3
9	41	2
83	86	1
36	37	3
152	155	4
110	111	4
158	158	9
56	56	11
2	17	6
102	126	5
3	18	3
163	164	2
153	153	11
23	24	3
136	137	5
136	168	4
150	152	2
55	84	2
36	38	5
5	5	9
164	168	2
78	108	1
167	168	7
169	174	2
129	129	11
106	115	2
30	30	6
166	166	6
161	162	5
8	10	7
106	106	4
53	99	3
135	135	10
139	140	3
156	156	3
13	15	1
18	19	3
80	80	5
102	105	6
134	138	1
132	175	1
42	42	12
17	19	2
169	169	3
2	42	1
41	43	5
77	77	8
126	126	4
170	174	1
135	136	6
163	163	3
60	60	6
30	31	1
106	123	3
124	125	8
3	6	2
44	46	3
127	129	3
125	125	5
39	39	5
71	71	4
72	72	9
27	27	16
20	25	4
83	83	6
62	62	6
86	89	2
109	139	2
57	57	3
141	144	1
13	20	3
166	170	5
27	28	5
121	123	1
63	73	2
87	91	1
94	94	8
149	150	8
96	97	1
135	144	1
103	105	1
121	122	4
41	41	4
18	21	3
120	121	6
61	71	2
19	22	1
137	138	5
151	152	3
155	164	2
143	145	3
29	32	2
123	123	3
175	176	5
88	104	2
12	12	11
177	177	9
18	20	2
16	18	8
61	61	6
81	81	2
95	96	4
23	26	2
51	62	1
12	15	2
120	123	1
16	49	1
123	125	1
138	149	2
132	139	1
64	64	2
26	27	3
91	118	1
103	112	3
134	136	1
19	24	1
173	174	3
72	73	3
4	19	1
94	95	2
120	120	1
92	93	3
45	61	5
76	110	2
55	85	1
157	158	2
167	179	1
151	163	2
22	33	1
165	165	6
166	169	3
100	117	3
88	90	3
15	29	1
135	154	1
2	7	3
53	53	4
100	115	1
27	33	2
41	44	1
77	78	7
9	15	1
179	179	2
9	11	6
11	12	8
173	173	2
78	78	2
60	61	1
31	35	2
11	13	1
132	134	2
97	115	1
73	74	2
87	88	3
4	15	4
92	99	1
19	31	1
115	118	2
26	51	5
64	96	2
33	41	1
67	77	3
85	111	1
80	85	1
11	17	2
67	71	2
85	86	3
167	169	1
67	68	3
22	26	2
146	147	1
16	19	2
123	149	1
19	19	6
59	95	3
116	120	1
45	46	4
13	22	1
148	148	11
30	34	2
151	151	9
23	37	1
101	102	2
135	179	1
9	13	2
80	114	3
26	28	1
154	154	2
37	39	2
13	14	4
7	12	4
110	110	5
11	15	1
4	21	2
64	74	1
19	21	5
2	12	2
151	158	1
23	52	3
20	33	1
133	134	3
83	84	4
122	122	4
3	12	3
178	180	1
3	10	1
43	44	2
119	120	2
56	57	3
151	153	1
102	104	2
80	88	1
170	179	1
78	79	3
35	38	1
122	123	2
142	145	2
138	138	1
152	164	1
4	5	1
116	117	1
71	76	6
113	113	3
123	140	1
12	13	2
140	142	2
91	92	3
7	33	4
95	127	1
111	169	1
177	180	4
116	129	2
104	105	1
40	44	1
101	104	1
40	43	2
24	26	2
166	167	3
58	58	2
132	132	1
37	40	2
74	75	2
5	6	3
127	140	1
21	22	5
85	97	2
108	109	2
4	8	2
143	143	2
152	162	1
99	101	2
175	175	5
131	150	1
102	103	3
28	29	1
98	121	1
22	23	2
35	37	2
156	159	2
2	28	2
102	123	1
8	43	2
152	153	1
130	130	1
29	31	1
125	139	2
18	18	3
50	53	2
168	180	1
130	169	1
90	102	3
174	175	1
130	131	2
32	37	1
104	126	2
65	97	1
171	174	3
150	167	3
44	71	1
23	42	2
146	149	1
115	116	1
35	44	1
4	12	2
124	163	2
93	94	1
115	119	1
87	89	1
23	25	1
141	142	1
8	40	1
44	63	1
15	16	1
88	153	1
147	153	2
45	60	1
132	133	2
106	163	2
36	40	1
143	146	1
1	14	1
101	101	1
81	85	1
106	116	3
3	20	2
154	155	1
79	80	1
17	18	1
2	30	1
95	97	1
4	11	2
20	34	1
88	103	1
23	33	1
86	86	1
92	94	1
0	1	1
33	35	1
68	68	1
152	152	2
14	22	1
109	162	1
1	5	1
63	68	1
159	176	1
6	7	1
160	163	1
127	128	1
34	40	1
65	67	1
45	45	1
106	124	2
8	11	1
58	95	1
71	78	1
136	178	1
72	133	1
134	173	1
107	108	1
144	145	1
90	92	1
4	6	1
7	10	1
43	45	1
89	90	1
