37	37	24
169	169	13
183	183	7
209	209	8
48	48	5
42	48	2
43	43	24
81	83	4
121	122	4
14	14	9
126	128	2
33	67	4
54	201	3
22	22	13
20	20	25
219	219	13
66	67	9
80	84	8
100	100	20
115	118	1
127	131	4
88	88	5
62	85	2
83	83	12
203	206	5
34	36	4
50	50	6
4	170	2
220	220	8
25	37	1
166	166	7
21	23	4
66	68	7
77	77	5
84	84	18
113	113	10
216	235	5
193	194	2
170	170	14
184	188	3
89	89	7
39	49	7
7	7	10
116	117	2
0	0	13
190	190	6
49	49	7
81	81	9
148	148	3
144	153	4
103	167	1
201	201	9
9	9	22
127	127	2
184	184	5
137	140	4
233	233	14
158	158	12
82	83	8
4	5	14
213	215	6
235	235	4
33	33	8
36	36	20
24	194	2
85	85	21
65	68	2
0	1	4
73	73	23
164	218	3
173	202	3
213	213	4
227	227	18
70	70	43
226	227	4
62	62	17
6	7	4
119	119	16
63	64	2
22	184	4
33	50	1
125	125	10
45	46	8
38	46	5
224	230	1
40	40	15
47	48	7
69	197	5
201	204	1
55	55	19
196	196	9
80	82	4
106	106	8
55	63	7
133	133	20
162	162	20
26	26	28
13	130	1
62	63	5
47	50	2
103	105	2
11	11	9
210	228	3
173	174	7
10	10	33
78	126	1
73	74	4
219	237	4
24	30	2
82	82	6
141	142	5
3	221	2
102	102	7
208	208	17
181	181	10
37	38	8
81	82	7
28	65	3
51	51	13
36	37	8
208	233	2
210	210	8
56	56	22
109	109	15
145	145	20
142	142	2
123	124	7
198	198	7
43	44	3
13	17	2
164	164	13
70	85	2
28	28	30
215	215	6
58	60	2
116	118	5
44	45	8
229	229	17
12	89	1
152	152	12
51	52	8
153	155	6
73	108	1
140	140	13
22	31	3
224	224	23
69	69	13
55	56	3
128	129	3
47	47	25
153	166	1
5	5	14
41	88	4
101	101	18
173	173	24
72	72	24
12	12	16
228	229	2
212	224	2
174	174	9
42	111	1
29	29	22
120	121	6
96	96	6
182	190	8
1	3	3
72	73	9
60	60	20
85	86	8
214	218	4
29	30	2
38	190	3
242	242	11
124	124	7
136	136	16
13	14	3
78	78	10
52	59	1
85	236	2
20	23	4
128	128	17
1	1	20
4	78	4
59	60	10
26	64	2
79	79	10
192	195	2
38	38	18
57	67	1
35	35	12
211	212	2
17	17	6
12	31	3
139	139	14
188	188	9
97	172	5
178	178	8
170	219	3
219	235	2
3	3	13
163	163	6
203	232	5
66	66	12
195	195	6
53	53	16
208	209	4
56	82	3
32	35	2
25	25	13
31	95	2
64	64	15
134	239	3
221	229	4
14	68	2
14	17	2
188	209	1
58	59	7
57	58	4
214	216	1
212	213	3
174	218	2
32	32	13
177	177	13
27	70	1
160	161	5
208	242	2
181	187	3
214	214	10
73	126	1
8	29	3
79	81	3
150	150	17
41	41	11
215	223	1
197	198	11
114	117	1
60	124	3
21	21	13
6	18	1
77	78	3
143	143	9
39	57	1
30	56	4
50	59	3
167	169	4
2	2	27
86	86	26
122	125	3
155	155	23
38	44	4
38	39	11
151	151	6
205	205	13
24	24	9
108	135	1
157	168	4
223	224	2
97	98	3
159	160	3
149	149	6
170	171	1
61	61	12
198	201	1
105	105	5
74	74	29
15	61	1
98	102	1
174	175	5
124	127	6
45	45	20
78	79	10
144	144	3
14	79	4
225	225	9
204	204	10
142	143	5
102	103	11
217	217	2
36	202	4
121	121	15
35	36	3
153	153	6
54	69	5
63	63	13
193	193	1
70	71	5
23	23	11
3	15	2
156	157	14
191	191	16
165	165	1
131	131	10
122	122	19
239	239	16
128	130	2
45	70	2
1	2	3
236	236	11
30	30	16
99	99	15
200	212	1
109	110	3
82	84	3
200	200	10
122	153	2
179	224	2
204	237	1
211	211	18
140	141	13
20	24	1
2	113	1
18	18	8
228	228	14
137	137	7
135	135	10
208	232	3
136	139	5
5	23	2
206	206	11
213	223	1
76	76	10
114	114	2
5	6	10
194	195	9
3	14	1
34	235	2
34	34	16
199	204	2
4	192	2
24	25	7
203	231	4
103	153	1
72	86	1
241	241	4
36	66	2
148	149	2
234	234	20
21	22	6
19	20	3
189	189	11
29	57	1
194	194	1
213	222	3
199	199	9
103	103	8
34	81	3
232	232	13
189	197	5
203	203	7
159	159	25
17	18	8
114	132	2
199	229	1
21	31	4
156	156	5
116	116	4
10	11	5
132	134	3
180	182	4
160	197	3
200	208	1
124	125	1
23	42	2
19	19	7
49	58	9
157	191	1
179	179	13
192	193	9
52	52	7
44	44	13
238	240	3
185	200	1
48	53	3
28	69	2
27	27	26
146	146	5
123	123	13
224	225	4
146	147	3
129	130	6
96	97	2
211	224	4
54	54	14
216	216	13
23	31	2
135	161	2
64	65	5
141	143	4
56	57	9
186	186	5
238	238	10
176	196	1
24	84	3
71	71	14
22	23	5
192	192	8
31	31	15
137	185	4
15	16	9
8	11	1
46	46	10
3	21	2
23	105	1
95	126	1
42	42	13
129	129	3
71	88	1
154	154	21
40	42	2
156	188	4
232	238	2
158	179	3
114	133	1
187	187	9
171	171	6
205	222	3
62	67	6
75	86	1
100	102	5
197	197	18
13	16	1
152	161	1
100	101	5
31	78	2
162	163	4
175	175	6
106	127	1
237	237	13
42	43	1
57	57	9
9	14	2
61	63	2
221	221	7
23	24	6
145	184	2
52	53	4
146	150	1
230	230	20
190	191	10
105	106	4
219	233	1
41	111	2
198	200	4
163	165	4
218	218	8
29	67	1
168	228	3
30	33	3
147	148	5
30	85	3
176	179	1
16	131	4
48	109	1
220	234	5
59	59	10
7	22	1
1	127	3
2	3	5
84	85	4
69	202	1
74	161	5
13	15	5
39	39	13
49	50	3
114	126	3
71	72	15
108	134	3
63	65	2
203	230	4
145	146	7
4	80	1
200	201	6
233	234	7
154	156	11
65	65	16
209	210	9
119	129	1
138	138	12
150	152	2
176	176	10
169	217	4
6	6	10
46	47	5
75	75	7
25	26	4
226	226	4
4	4	12
7	18	1
116	125	2
203	219	5
149	150	4
104	104	18
32	33	4
222	229	2
82	88	2
150	151	1
219	232	4
133	134	4
166	171	1
41	42	9
110	110	6
36	232	1
9	96	2
160	160	11
240	240	16
126	129	2
9	48	2
16	16	8
8	9	4
88	105	1
134	134	16
195	197	2
86	88	2
52	124	3
146	148	3
112	113	1
169	195	3
234	235	3
34	35	5
197	201	2
74	75	7
119	124	1
130	130	6
13	79	3
7	8	4
54	200	1
117	117	6
161	161	10
137	138	10
107	107	11
65	67	3
58	58	4
76	77	3
56	74	2
75	85	3
220	221	5
211	234	2
171	219	3
78	100	1
6	82	2
8	97	2
227	228	6
67	67	16
138	142	4
115	115	9
77	104	8
167	168	4
32	69	1
195	196	3
50	82	4
30	58	3
30	96	1
128	187	1
154	155	3
49	60	6
209	230	2
11	128	2
33	34	2
70	87	4
213	236	4
74	97	1
154	164	1
108	133	2
223	223	11
39	61	1
32	66	3
182	182	8
156	171	2
185	185	7
172	174	2
111	111	1
119	125	2
81	103	2
11	16	3
7	49	4
55	74	1
40	41	3
125	143	1
8	23	2
117	147	1
15	15	6
171	172	1
7	31	3
16	17	6
107	108	2
76	102	7
8	8	10
157	157	7
14	16	3
8	15	1
21	225	2
98	99	4
222	222	2
48	57	2
172	173	2
61	68	6
51	124	5
143	145	3
52	60	1
125	129	2
206	237	1
12	60	1
213	224	2
132	132	1
53	56	1
186	187	2
61	71	1
121	125	3
241	242	3
50	51	4
11	13	1
124	167	2
99	199	2
181	182	10
30	79	2
25	64	2
172	228	1
180	180	3
198	211	3
219	220	2
153	156	1
174	211	1
67	73	1
27	29	2
239	240	5
39	56	3
179	181	1
101	102	3
168	218	4
76	84	2
76	78	1
207	208	3
41	227	4
172	172	6
220	242	1
204	205	1
196	217	6
36	57	4
72	100	3
5	8	1
193	196	2
24	186	1
87	111	1
14	48	3
82	153	1
235	236	2
184	221	4
5	58	1
126	127	4
101	105	2
69	70	5
139	153	3
86	87	3
91	106	2
4	6	6
68	68	7
231	231	1
206	231	3
108	108	3
24	65	1
9	52	1
80	88	2
145	148	3
36	85	1
212	212	5
72	88	2
63	71	2
155	171	3
188	189	1
1	14	1
18	36	1
8	30	1
61	85	1
8	31	3
0	21	3
141	141	1
13	13	3
26	65	1
84	86	1
80	103	1
4	36	5
225	232	1
53	54	4
207	207	3
171	223	1
184	187	2
181	183	2
98	100	1
85	237	5
182	183	2
138	141	1
143	231	1
168	182	1
108	109	2
164	165	3
8	14	1
136	155	4
104	106	2
192	219	3
81	122	6
153	173	3
4	193	1
138	153	1
49	76	1
219	234	1
8	59	2
62	70	3
97	97	10
184	186	3
117	125	2
106	121	2
149	153	1
219	236	1
216	236	1
173	224	2
168	195	1
20	70	1
3	220	3
168	168	5
155	215	2
58	69	2
209	214	2
202	202	2
120	120	5
214	215	4
77	116	1
121	129	2
98	162	2
114	115	3
219	225	1
48	49	1
51	60	1
217	232	1
225	226	2
54	55	6
161	226	4
147	149	2
80	80	8
11	36	3
31	76	1
160	201	4
173	205	1
200	209	1
196	206	3
136	200	1
41	65	1
198	207	1
111	112	2
82	86	2
163	166	2
184	190	1
42	68	1
103	104	2
3	127	1
211	213	1
48	71	1
71	73	2
212	222	1
119	130	1
83	88	1
27	28	3
8	122	2
12	35	1
118	118	3
44	139	2
136	137	1
158	159	1
45	47	2
5	59	1
107	124	2
80	81	5
0	234	1
147	185	1
38	201	2
112	112	3
205	231	1
225	228	1
205	206	2
96	128	2
142	190	2
114	116	2
75	106	1
76	81	1
49	108	2
46	58	2
83	84	2
169	170	2
167	196	1
122	124	1
22	185	3
194	196	1
29	37	1
37	47	3
155	156	1
173	238	1
39	199	1
149	209	1
46	196	3
221	222	3
19	23	1
107	134	2
3	4	1
166	167	1
210	211	1
98	98	1
98	116	1
77	80	3
44	48	1
85	96	1
17	38	1
39	42	3
71	108	1
74	79	1
152	228	3
201	202	2
216	218	1
3	129	1
60	79	1
7	51	1
9	65	3
76	114	1
147	147	4
40	44	1
65	66	1
217	218	2
18	19	3
20	105	2
158	160	3
8	18	3
120	135	1
49	59	1
61	73	1
192	194	2
102	133	1
121	124	1
19	25	2
136	138	1
23	192	2
53	200	1
189	190	1
174	197	3
4	13	2
138	139	4
114	134	1
171	222	1
39	40	1
125	126	1
134	135	1
75	80	1
85	105	3
5	14	1
58	61	2
3	5	1
66	97	1
33	49	1
159	218	1
137	221	2
3	10	1
16	36	1
99	100	1
231	232	4
167	174	1
232	234	2
123	126	1
153	154	1
75	79	1
29	31	1
54	105	1
185	186	2
29	97	1
39	48	1
140	142	1
187	188	1
232	233	1
157	163	1
105	130	1
34	39	1
7	80	1
53	69	1
133	143	1
111	114	2
239	241	1
85	153	1
102	145	1
182	184	1
185	187	1
61	178	1
27	64	1
6	13	1
44	62	1
227	229	2
0	12	1
1	35	2
117	119	1
124	168	1
18	49	1
73	85	1
81	84	1
9	10	1
8	83	2
192	196	1
190	197	1
83	103	1
47	110	2
98	117	1
77	82	1
2	127	1
177	200	3
225	237	1
83	122	1
18	20	2
155	157	2
119	120	1
234	236	1
11	37	2
209	229	2
52	54	1
0	100	1
102	104	1
207	220	1
209	215	1
46	62	1
198	199	1
117	133	1
42	127	2
202	206	1
218	219	3
58	85	1
102	121	1
15	21	1
86	96	1
151	227	1
211	214	1
55	57	1
127	128	2
134	160	1
9	17	1
167	167	5
30	60	1
115	116	1
47	57	1
126	126	1
210	223	1
184	222	1
15	17	3
52	58	1
47	62	1
61	65	1
5	78	2
7	35	1
1	21	1
88	106	1
11	19	1
203	205	1
33	36	1
41	107	2
92	92	1
171	224	2
145	147	1
194	201	1
184	185	1
184	223	1
81	133	1
41	127	1
30	95	1
40	101	1
149	151	1
39	41	1
236	237	1
177	190	3
139	140	1
157	171	1
57	59	1
6	49	1
42	69	1
7	123	1
163	167	1
146	200	1
42	65	1
180	181	1
28	37	1
199	200	1
102	115	1
67	68	1
158	163	1
122	151	1
116	132	1
37	39	1
95	95	1
153	232	1
141	147	1
32	82	1
3	20	1
140	147	1
115	132	1
177	178	1
168	217	1
177	197	1
61	66	1
39	50	1
1	68	1
230	233	1
42	70	1
43	180	1
136	143	1
