26	34	3
5	5	17
124	124	15
188	188	19
44	55	2
184	184	14
133	133	14
155	157	3
137	137	11
4	5	6
2	2	9
190	193	2
43	43	7
161	161	5
193	195	3
56	56	4
152	155	2
30	30	11
13	47	1
115	150	2
154	154	7
148	148	6
110	111	4
8	16	5
4	33	1
25	25	11
115	120	3
117	117	2
43	44	3
40	40	5
160	160	14
15	16	10
76	76	8
46	46	13
45	46	14
13	13	6
110	110	6
88	88	7
188	192	1
194	194	15
103	104	3
31	31	12
188	194	3
187	187	11
195	196	3
8	8	9
61	62	1
9	10	11
178	178	9
46	47	4
195	195	2
170	170	6
193	193	15
74	74	5
20	25	1
64	64	8
120	120	7
99	99	21
0	0	11
130	142	3
47	47	12
13	14	9
29	29	6
54	54	7
172	173	4
54	55	8
20	21	5
4	4	5
179	189	2
130	130	6
52	55	5
24	24	16
125	126	11
190	190	5
50	183	4
124	126	3
165	168	1
41	41	8
178	181	1
115	115	9
48	48	13
93	94	2
141	142	1
188	189	9
161	164	13
42	42	9
32	33	2
23	24	2
3	3	3
151	155	2
173	173	6
128	128	8
11	12	4
133	134	2
123	125	2
19	22	4
100	100	12
111	111	5
187	196	3
73	75	2
71	71	12
154	155	5
125	197	1
97	98	2
23	172	3
159	159	3
160	162	1
101	101	12
18	26	2
85	85	2
58	67	1
44	44	13
196	196	4
86	86	11
143	144	6
185	186	3
45	45	4
49	49	7
35	35	3
87	87	6
12	14	4
116	116	5
112	113	2
15	15	14
107	107	9
63	63	9
185	185	10
192	192	11
148	158	5
168	168	6
19	19	2
119	122	1
136	136	15
69	70	2
125	127	3
176	176	5
179	197	3
36	36	9
105	106	2
140	177	1
8	31	4
122	122	3
153	155	1
71	73	3
94	95	3
57	57	7
161	166	1
34	34	4
168	169	2
191	191	7
137	139	2
164	178	2
158	159	3
153	154	3
12	12	8
135	136	8
156	157	5
74	75	1
162	164	1
96	96	14
101	104	6
29	31	6
106	107	4
105	105	4
121	121	20
183	184	7
105	107	3
82	82	5
157	159	1
81	82	3
138	138	6
50	50	8
134	135	5
183	193	1
119	120	9
23	23	13
146	148	10
145	148	2
114	114	12
141	141	8
175	176	1
111	171	2
43	78	1
112	112	9
130	132	2
28	29	8
149	149	12
17	17	10
151	151	10
119	121	1
22	65	1
83	83	7
14	15	2
157	168	2
2	33	3
55	55	1
115	136	1
26	27	2
72	72	6
159	160	2
109	173	1
7	7	16
142	143	3
11	45	1
125	125	4
65	68	1
104	105	4
80	80	3
26	61	1
26	26	2
59	61	3
16	16	10
127	128	8
80	83	5
113	113	3
197	197	9
16	38	1
70	70	2
22	22	3
129	129	7
10	13	2
171	172	6
142	149	4
127	195	1
18	19	5
148	149	2
38	39	2
151	156	1
191	193	1
11	11	8
182	182	7
156	158	3
39	39	10
23	106	3
37	44	3
104	104	5
127	127	3
131	131	7
161	191	1
77	77	5
5	8	1
139	139	1
11	33	2
58	58	2
14	14	5
189	189	8
3	4	9
123	150	2
166	166	7
144	147	1
124	170	2
50	52	1
15	38	8
51	52	6
59	66	1
187	189	3
167	167	5
142	142	6
126	126	6
32	32	6
94	94	4
52	54	2
50	51	3
43	45	2
18	18	2
34	40	1
169	189	3
27	27	6
76	78	1
118	118	3
106	106	7
131	132	3
2	3	2
190	197	2
39	40	1
33	33	8
155	156	2
38	38	9
164	167	1
174	176	2
135	135	3
173	174	1
154	158	5
12	53	2
1	1	3
171	171	6
72	73	2
169	172	3
42	196	2
52	52	2
182	183	6
10	10	5
186	186	6
119	119	4
21	21	1
139	140	6
0	1	4
177	197	1
52	53	5
149	166	2
84	84	4
148	170	1
189	192	1
169	170	6
142	170	1
169	174	4
69	69	2
145	170	3
186	187	2
164	164	2
41	42	1
186	188	1
26	62	2
89	89	1
70	84	2
177	177	3
161	190	3
140	170	3
35	37	2
129	130	1
61	65	1
162	162	3
6	8	4
108	108	4
111	170	1
183	195	4
134	138	1
180	180	5
95	96	2
27	39	4
51	53	1
10	11	6
18	20	4
169	169	3
156	177	2
175	175	1
69	71	4
100	101	3
20	20	2
116	119	1
167	179	4
151	152	4
115	116	1
44	188	1
147	148	6
168	170	1
60	73	1
168	189	1
156	156	4
17	19	3
146	147	1
162	167	1
190	192	2
51	51	10
168	181	1
140	140	4
37	37	3
55	57	1
4	6	3
6	6	3
109	174	2
177	178	1
71	72	2
146	146	2
112	120	2
7	8	4
0	21	1
174	175	2
173	175	1
183	183	3
114	121	1
79	81	2
78	78	2
109	109	1
71	78	3
102	103	5
23	39	2
109	110	4
33	36	2
84	99	1
183	194	2
6	9	7
142	169	2
44	52	2
184	186	1
161	163	1
178	180	1
127	186	1
32	34	1
169	190	3
117	118	3
107	132	2
172	174	3
187	188	1
59	59	3
153	157	2
47	51	1
55	56	2
44	101	1
56	57	1
9	9	3
163	165	2
149	172	1
73	73	1
135	137	3
172	172	5
102	189	1
33	37	1
194	196	7
33	34	1
103	103	4
102	102	2
134	134	4
88	89	1
155	155	2
53	53	1
150	150	1
53	54	1
67	68	2
40	43	1
150	170	3
97	97	2
143	143	3
122	123	1
57	58	2
101	102	2
165	166	3
58	63	2
3	6	3
93	96	2
146	173	1
27	41	3
40	41	3
145	145	1
8	17	3
99	100	3
36	37	2
31	32	1
132	132	2
62	62	2
115	160	1
153	158	1
165	165	1
120	121	2
154	159	1
47	195	1
128	129	2
30	31	3
123	123	3
12	13	1
39	42	1
162	163	4
176	177	3
28	32	1
182	190	1
21	22	2
67	67	2
124	125	1
38	42	1
20	35	2
128	195	1
24	65	1
149	150	1
45	49	2
181	181	2
123	124	1
68	68	1
144	144	1
1	22	3
89	90	2
73	82	1
179	182	3
1	3	1
114	165	1
151	158	2
30	32	1
95	107	1
49	55	1
161	162	3
48	49	2
104	172	2
178	190	2
136	138	1
107	176	1
166	177	1
189	193	2
83	84	3
16	39	1
153	153	2
84	101	1
118	120	3
111	112	2
66	66	2
114	166	1
27	28	2
163	181	1
0	2	1
155	158	1
103	107	1
138	139	1
98	98	1
114	116	1
24	36	1
22	23	2
20	22	1
98	99	1
81	85	1
60	60	2
162	166	1
59	68	1
144	146	1
93	93	1
34	35	1
179	180	1
44	45	2
171	177	1
3	32	1
56	72	1
129	156	1
140	141	1
45	71	1
47	48	1
79	80	1
102	105	1
