39	40	9
14	14	26
55	55	19
65	157	1
7	11	4
10	11	7
126	126	9
44	44	18
137	137	7
159	159	17
131	131	13
30	30	23
25	33	3
17	21	1
89	89	10
106	106	6
135	140	2
156	160	3
120	120	9
122	122	5
29	29	24
57	57	28
24	41	4
142	144	1
87	89	6
10	44	1
102	136	2
113	113	10
39	39	32
32	32	33
3	4	15
40	40	19
6	6	25
116	117	4
13	14	4
26	26	15
41	45	2
42	45	2
62	74	4
92	92	6
133	133	14
156	156	9
81	81	12
22	22	23
23	24	12
115	115	12
59	102	1
178	178	12
4	4	24
143	143	4
169	169	13
132	133	9
153	153	9
31	38	2
141	141	11
154	154	10
138	138	10
24	26	1
25	25	23
145	180	1
15	15	25
138	139	2
107	107	11
31	31	35
123	123	20
167	176	8
5	6	15
129	131	4
1	1	8
104	104	2
43	44	1
156	157	7
9	9	24
71	71	17
142	145	1
68	178	3
2	2	18
9	30	4
112	112	10
19	20	9
129	130	7
0	0	6
18	19	11
38	39	5
163	163	15
6	32	2
37	149	2
13	13	29
92	125	4
113	128	1
65	162	1
155	157	3
56	57	2
38	38	14
76	179	2
90	91	7
92	93	5
3	3	21
19	33	4
117	117	7
105	107	3
9	136	3
86	145	2
9	10	6
23	23	27
8	26	3
37	158	7
136	136	8
158	158	17
41	44	1
150	179	4
43	43	13
100	100	3
22	40	4
8	22	2
25	111	5
27	28	5
45	45	4
130	130	7
67	151	4
128	128	10
22	39	2
13	45	5
173	173	14
45	98	1
120	122	4
8	9	7
157	160	2
93	143	2
103	104	7
93	93	9
31	32	5
38	115	4
63	66	2
17	17	23
105	115	5
75	82	1
16	35	1
102	103	1
27	36	4
60	126	1
36	37	3
94	97	1
177	180	1
177	177	7
11	11	16
107	109	3
168	168	12
71	122	5
115	116	5
108	109	4
97	98	3
140	140	8
109	126	6
1	7	2
100	107	1
37	38	13
7	10	8
6	7	13
104	105	1
24	84	4
66	66	7
36	38	7
91	93	5
94	96	4
20	20	31
124	125	6
132	132	14
73	74	6
34	34	10
3	30	5
27	27	32
59	59	6
34	37	1
146	172	7
171	171	4
61	62	5
96	96	13
99	99	9
5	14	5
125	125	14
16	16	9
27	31	2
64	64	2
151	151	14
11	16	2
35	36	7
12	12	11
6	27	7
23	143	2
63	63	7
20	30	2
111	113	3
174	174	12
157	157	1
110	110	11
1	33	5
8	14	2
82	82	7
102	107	3
4	8	5
38	40	5
74	81	3
163	164	4
152	164	12
152	152	3
23	32	1
163	165	1
41	64	1
87	87	11
145	145	14
93	142	4
95	95	7
140	144	1
101	101	11
14	21	5
36	36	16
83	141	3
83	83	20
29	30	10
37	37	21
179	179	14
175	180	4
1	4	3
102	116	1
87	102	3
3	21	2
106	107	9
91	125	1
135	136	6
53	53	9
85	85	6
2	3	5
160	160	5
53	167	4
10	168	2
44	45	6
7	8	10
76	77	10
2	4	4
61	126	8
6	11	5
33	82	3
56	56	14
8	8	26
137	170	3
78	180	1
41	41	23
91	91	13
88	89	9
180	180	6
75	91	1
60	60	11
103	138	5
149	179	2
62	62	3
164	164	10
23	25	5
12	15	4
140	143	4
65	73	3
11	174	3
96	97	5
127	127	14
5	31	4
21	44	2
33	61	2
159	175	1
109	109	12
31	174	4
21	23	5
25	60	4
67	68	10
26	157	2
93	140	4
18	18	15
143	180	1
129	129	5
21	21	11
19	19	9
107	137	5
31	42	8
73	98	2
36	175	1
79	80	4
85	149	3
86	87	2
11	36	4
24	25	13
134	143	5
35	39	2
138	174	4
176	176	16
83	84	5
88	88	11
102	138	4
8	12	3
50	147	2
79	79	10
0	13	2
22	30	4
16	17	7
77	77	10
22	23	13
8	30	1
35	35	20
90	90	10
161	161	13
50	50	3
24	24	18
102	106	3
119	121	3
86	140	4
144	144	9
20	21	4
21	37	2
87	112	2
0	19	2
155	155	5
74	74	8
61	108	5
3	9	4
25	34	3
28	28	12
171	176	2
139	139	5
130	135	3
22	86	3
5	30	2
10	10	19
89	90	3
18	22	4
154	156	1
97	97	11
3	20	2
5	10	1
131	132	1
30	31	13
61	134	7
20	23	4
165	165	3
170	170	14
5	24	4
104	106	5
88	180	1
42	42	21
4	16	4
41	42	7
146	146	3
58	78	8
56	132	2
55	136	2
142	142	10
39	53	2
77	121	2
90	94	1
59	60	3
99	150	3
149	149	2
5	5	18
6	40	1
147	147	4
79	145	3
78	78	5
139	140	3
4	6	6
172	172	5
3	11	10
33	33	19
61	109	2
116	118	2
35	174	1
23	36	3
40	72	2
80	168	4
0	8	3
162	162	6
73	73	15
86	86	4
166	167	4
62	98	2
136	137	5
108	108	14
147	167	2
127	128	2
5	22	2
159	165	8
75	75	7
71	72	3
33	98	2
29	33	2
42	65	1
26	32	2
135	135	9
14	17	7
27	34	1
64	151	1
35	41	5
164	169	2
12	13	6
14	20	5
8	11	1
116	116	8
51	64	5
10	32	1
175	175	4
96	126	1
19	22	3
119	120	3
23	92	2
19	37	2
130	161	2
10	23	4
97	129	3
21	22	3
102	102	5
37	40	2
16	23	1
56	108	5
111	111	5
117	153	4
57	176	2
96	151	2
105	105	19
32	33	9
27	38	1
16	28	2
102	104	4
1	16	4
40	121	4
51	51	11
15	26	1
4	15	4
87	104	2
17	18	6
136	151	2
35	73	3
134	135	2
74	126	1
34	35	1
76	128	1
18	31	1
91	92	5
118	118	5
22	43	3
28	31	5
34	92	2
72	73	5
113	151	6
76	76	12
52	130	3
41	115	4
103	103	3
6	15	3
42	167	3
6	31	1
11	49	2
111	138	2
5	174	5
91	99	1
27	83	1
62	75	3
34	36	1
62	87	5
142	143	13
162	164	5
58	58	3
51	62	4
14	36	8
84	84	11
74	75	9
22	132	2
61	61	3
165	166	6
29	162	2
81	143	2
9	45	2
25	90	2
81	179	6
104	116	2
10	29	3
65	139	1
0	114	4
120	121	2
2	15	6
53	95	2
92	135	2
72	72	3
11	35	3
54	74	2
90	172	1
152	153	3
25	29	1
29	32	2
125	175	3
30	164	2
58	59	2
77	123	2
2	46	3
33	99	2
2	33	3
2	9	1
1	17	2
101	136	3
77	93	2
158	159	5
107	108	5
125	176	2
4	5	1
114	114	11
14	15	6
77	135	1
84	87	1
4	7	1
126	127	4
122	123	3
154	157	1
15	22	1
95	126	1
100	108	2
119	122	2
112	147	2
31	43	2
64	171	6
128	144	3
25	26	3
114	115	1
1	155	2
148	148	3
84	115	2
65	65	6
34	118	1
52	52	8
29	37	2
61	94	2
130	131	6
162	163	1
7	7	18
15	16	3
103	106	4
153	178	3
114	178	3
77	120	3
137	180	1
8	43	1
99	115	2
21	32	2
90	169	4
85	135	3
136	138	3
86	90	1
19	21	3
88	107	4
25	30	3
153	163	1
98	98	9
93	123	6
21	42	1
84	178	1
27	35	1
55	131	1
66	97	1
67	75	3
18	20	3
4	22	3
156	164	2
76	94	1
150	150	15
141	171	1
80	81	3
10	14	2
101	102	3
109	162	3
127	157	3
98	116	2
42	44	1
19	87	2
11	12	2
12	46	1
65	124	1
106	167	2
100	101	4
2	10	1
25	158	2
44	129	1
161	162	3
0	14	1
0	45	2
90	95	1
26	28	4
9	20	2
75	172	3
5	7	2
167	167	5
10	43	2
100	111	2
32	35	3
85	107	3
3	8	1
15	46	3
102	137	3
131	133	1
160	161	2
80	180	4
145	146	1
31	167	3
179	180	1
77	139	3
9	13	2
110	115	3
156	175	1
50	51	4
68	147	5
110	111	2
5	33	1
11	13	2
23	28	1
22	36	1
115	122	1
1	126	3
129	161	2
155	158	3
81	180	2
11	23	1
44	167	2
14	25	2
42	74	2
34	40	2
42	98	3
61	74	1
28	41	1
75	90	4
98	151	2
14	179	1
27	172	3
0	1	3
33	78	1
103	137	3
147	148	3
3	14	4
6	121	2
79	107	1
29	164	1
103	126	3
174	175	4
4	25	1
30	157	1
17	27	3
54	54	4
111	115	3
23	141	2
95	173	1
65	101	2
28	111	3
134	145	1
95	172	2
7	13	3
33	45	3
55	56	2
86	137	1
71	78	1
128	129	1
99	111	1
114	119	2
143	145	2
124	124	3
66	67	3
31	117	2
17	19	1
6	43	1
30	176	2
78	86	1
166	166	4
11	133	2
4	129	4
129	155	3
35	44	3
45	116	1
60	111	1
79	143	1
90	146	1
138	173	1
9	11	5
152	154	5
87	174	5
52	54	1
53	59	1
71	178	1
151	154	1
54	55	1
19	44	1
97	151	2
17	23	1
39	113	1
98	118	1
82	103	1
21	144	2
83	95	2
134	134	3
153	154	1
2	45	2
13	42	1
28	30	3
55	104	1
143	146	2
51	169	1
111	112	5
5	35	1
81	82	1
43	45	2
6	42	1
74	90	2
11	21	1
146	147	1
86	136	1
34	41	1
67	67	3
23	29	1
5	26	1
157	158	4
1	3	1
0	32	1
98	161	1
34	116	3
10	21	1
26	33	1
109	180	1
172	179	1
7	154	2
68	68	3
14	43	1
123	140	1
151	174	1
61	98	2
98	101	2
31	59	1
93	94	3
143	144	4
61	75	1
26	29	1
103	107	1
10	87	1
84	85	5
25	125	1
100	109	2
22	98	1
169	170	1
139	142	1
23	91	1
61	127	4
73	75	2
158	173	2
121	121	2
65	156	1
87	90	2
56	58	1
27	122	2
108	171	2
61	101	2
170	171	2
75	96	1
17	38	1
73	114	1
98	99	1
78	97	1
26	58	1
67	179	2
160	166	1
38	113	2
25	28	1
51	168	1
28	34	1
70	70	1
54	166	2
120	177	1
35	119	2
41	43	1
135	179	1
26	60	1
16	27	1
136	174	1
95	159	1
76	149	1
28	29	1
15	42	1
77	119	1
5	43	1
43	166	1
14	18	1
33	34	2
94	126	1
108	175	2
62	165	1
119	119	1
49	49	1
3	5	2
30	33	1
87	132	1
31	99	1
117	118	1
12	44	1
5	17	1
6	9	2
33	35	1
11	131	2
32	34	3
40	41	1
111	150	2
7	12	1
40	43	1
11	27	1
24	34	3
15	36	1
3	42	1
78	134	1
12	45	1
133	137	3
10	36	1
65	95	1
37	39	2
5	15	1
24	40	1
21	45	1
10	12	1
14	130	1
173	174	1
95	103	1
38	89	1
101	107	1
73	113	1
35	37	1
175	176	1
71	80	1
140	142	1
26	27	1
7	9	1
130	157	1
121	122	1
53	166	1
15	20	1
10	31	1
41	65	2
87	88	1
122	135	1
5	12	1
1	14	1
51	101	1
95	118	1
115	174	3
41	152	2
77	132	1
23	44	1
162	178	1
53	66	1
117	155	1
57	107	1
15	45	1
126	171	1
4	17	1
100	104	1
5	16	1
38	41	1
157	177	1
89	108	1
