108	108	5
43	43	19
12	18	2
75	75	7
164	165	12
0	0	5
120	120	3
187	187	4
105	108	2
121	121	15
163	163	7
46	47	7
22	22	6
170	174	3
96	123	4
122	122	7
33	34	14
68	68	10
32	34	6
90	91	2
101	101	12
78	83	1
117	155	4
187	188	2
97	98	4
89	90	6
110	178	5
30	30	13
65	65	12
69	75	2
10	12	4
153	153	3
115	153	3
142	142	6
21	21	15
105	105	6
130	131	5
40	40	13
76	76	2
121	122	3
177	178	2
83	100	3
11	11	4
139	139	12
95	100	2
67	67	8
91	94	1
81	86	1
173	173	8
20	20	10
0	1	6
27	29	1
59	68	3
94	140	1
119	143	1
45	47	2
180	181	4
33	33	16
158	158	12
136	137	8
95	95	11
152	153	7
130	130	11
118	118	8
185	185	6
142	143	11
87	87	6
147	147	12
41	41	17
93	93	6
72	72	5
179	179	5
178	178	7
85	86	3
19	21	3
13	13	2
95	124	3
73	104	1
136	136	8
134	135	10
141	141	12
23	23	4
16	18	5
118	144	4
19	19	10
38	38	7
158	161	3
157	158	8
145	145	6
6	6	6
106	110	4
151	151	7
131	131	8
133	133	15
107	156	2
174	175	5
62	62	7
162	162	20
168	168	11
138	139	3
155	155	12
71	71	7
108	115	4
126	127	4
36	37	6
72	80	7
111	179	6
57	90	2
115	117	5
138	143	6
174	174	4
12	12	14
176	176	11
65	89	4
41	42	2
140	140	14
28	29	3
66	93	1
119	177	2
171	171	7
110	179	4
44	44	9
98	98	6
74	104	3
77	77	5
151	152	5
36	36	14
110	120	2
80	80	7
124	124	19
32	33	6
54	55	3
37	37	7
97	97	1
6	52	1
125	126	9
25	25	9
170	170	2
123	123	9
168	180	5
96	98	1
88	88	4
15	16	2
129	138	3
94	94	6
106	106	4
56	56	3
8	26	6
105	106	3
82	94	2
61	62	6
66	66	7
72	86	4
153	154	5
31	31	16
110	111	7
12	15	5
8	22	1
114	182	3
126	126	15
28	28	7
109	113	5
2	2	7
96	96	11
31	32	2
154	155	1
5	5	14
148	149	3
86	94	2
100	100	5
74	74	13
82	82	8
70	70	2
132	158	1
157	163	3
95	99	1
182	182	10
11	45	1
17	17	8
91	92	7
117	117	6
45	46	3
175	175	6
16	46	2
135	135	6
81	81	12
146	148	5
167	167	4
55	56	7
72	76	3
113	113	7
42	42	3
186	186	4
43	44	5
68	78	5
149	164	2
29	29	6
146	147	8
55	81	2
138	145	2
141	151	5
10	10	9
1	1	3
10	43	1
117	118	6
61	63	3
53	53	7
63	63	4
78	78	6
28	30	3
149	149	5
161	161	5
75	99	4
30	31	10
120	143	1
12	82	3
90	90	7
114	114	7
20	22	3
86	86	13
73	76	1
84	86	1
131	132	4
111	111	3
73	73	3
179	181	1
109	109	4
137	138	8
109	110	2
83	84	3
95	96	5
149	151	2
152	152	7
150	150	10
146	149	2
89	89	18
27	30	4
99	99	7
84	85	4
13	85	1
149	150	1
62	66	5
67	68	1
7	7	10
79	89	1
64	64	8
127	127	3
120	141	2
144	145	1
14	14	6
24	24	16
125	125	5
79	79	5
27	27	12
66	67	9
0	58	5
3	6	1
80	82	5
130	139	1
34	35	6
44	45	3
92	94	2
132	132	5
52	53	3
43	45	6
104	104	4
90	143	4
75	104	4
84	84	3
164	184	1
126	129	1
47	47	6
33	140	1
102	102	6
134	134	5
98	99	1
48	69	1
181	182	1
128	146	2
103	103	7
144	146	5
169	169	6
24	25	3
80	81	2
123	124	6
125	127	4
57	57	4
23	25	9
169	182	1
148	153	1
19	20	6
89	99	2
166	166	4
83	83	4
93	94	9
154	154	4
104	108	2
55	55	6
178	179	7
190	190	3
104	119	1
159	159	8
110	110	11
82	85	2
15	15	1
90	92	1
154	157	1
22	28	3
48	48	8
107	107	2
107	109	5
144	144	6
86	87	3
11	22	1
92	92	4
150	157	3
112	113	5
158	162	2
20	21	3
169	173	1
17	18	3
91	91	1
46	46	7
143	143	6
133	162	4
137	137	8
103	119	2
32	32	1
59	59	11
10	11	6
59	61	1
20	24	3
150	155	2
102	106	1
97	100	3
67	78	1
129	129	4
83	86	3
80	100	5
160	160	7
119	119	5
30	32	3
132	133	5
126	131	3
58	58	5
61	61	2
64	67	2
180	180	6
169	174	1
93	96	3
77	78	4
164	164	5
112	112	12
87	126	1
117	156	3
30	33	2
96	139	1
68	83	3
140	141	6
116	117	2
65	66	4
105	117	1
130	140	3
53	56	1
179	180	8
189	189	2
78	89	3
60	61	1
163	164	4
147	149	2
22	40	3
130	132	1
92	143	1
87	88	5
11	12	4
152	154	3
24	42	3
133	135	4
53	55	2
25	35	1
48	60	3
90	141	2
22	23	4
119	140	4
166	167	1
115	162	2
10	44	6
82	95	1
121	125	3
75	76	2
105	155	2
106	151	2
45	45	6
8	8	1
35	35	4
72	79	1
160	162	1
54	54	4
62	63	3
37	62	1
115	115	5
63	67	1
111	114	1
0	6	2
78	79	2
21	27	6
111	113	1
18	19	4
143	144	2
139	140	1
4	4	5
156	156	8
120	177	3
157	157	2
110	123	2
14	18	1
70	71	2
62	78	2
58	59	3
113	115	6
8	9	2
132	140	2
43	58	1
25	26	4
169	175	1
188	188	4
148	151	1
53	54	8
59	63	2
18	65	2
75	85	1
109	141	1
124	125	5
177	177	5
44	48	3
108	110	2
128	130	2
26	26	1
112	182	2
71	91	1
18	20	2
62	68	4
189	190	1
160	163	1
78	80	3
60	62	2
13	46	2
52	52	2
5	58	3
34	34	6
126	138	1
103	117	2
73	81	1
102	103	2
129	144	1
138	138	9
105	107	1
188	189	2
16	16	4
146	146	3
16	40	1
168	170	2
124	139	3
12	21	1
120	128	2
14	15	4
156	157	2
27	31	1
128	128	1
162	163	5
117	138	3
82	86	1
184	184	2
143	151	1
166	186	1
12	17	1
39	39	2
135	139	3
140	152	2
172	172	1
48	78	1
103	110	1
7	8	3
83	85	1
168	169	2
107	108	1
63	68	2
4	5	2
153	157	1
165	165	4
63	66	1
170	183	1
69	71	1
173	174	4
96	97	3
112	161	1
80	93	1
18	18	2
33	35	2
171	173	1
127	146	1
113	114	2
122	123	3
169	170	2
132	151	1
127	128	2
182	183	2
40	41	2
162	182	2
52	56	2
63	64	3
100	101	1
36	58	3
101	102	2
37	38	2
134	138	1
35	66	1
129	130	2
165	166	1
110	121	2
9	11	1
105	118	1
26	27	2
106	107	1
109	115	1
85	112	1
132	152	1
110	116	1
106	143	1
95	129	1
85	94	1
88	129	1
148	148	3
48	68	2
108	113	1
107	153	1
109	112	1
48	49	1
71	75	1
85	95	2
113	121	1
109	121	1
65	67	2
19	33	1
91	142	1
4	7	1
105	116	1
133	136	1
99	100	1
114	159	1
134	137	1
93	97	1
155	156	1
0	59	1
130	138	1
113	122	1
175	181	1
75	81	2
92	93	1
17	40	1
166	183	1
28	31	1
29	30	1
119	120	2
58	60	1
44	47	2
131	134	2
13	84	1
62	92	1
106	108	1
81	82	1
165	189	1
73	74	1
15	25	1
156	165	1
107	113	1
118	119	1
21	22	1
95	97	1
58	63	1
61	94	1
112	183	1
18	24	1
0	47	1
161	163	1
176	177	1
141	143	1
14	44	1
70	103	1
18	21	2
164	168	1
