76	83	2
5	5	4
49	49	5
104	105	5
99	102	2
96	96	3
93	93	2
7	8	2
11	11	7
99	125	3
52	53	2
1	1	6
42	42	7
131	131	11
29	29	3
104	104	4
113	115	1
114	114	8
103	103	4
63	63	3
58	73	3
18	18	3
32	34	2
100	129	1
37	37	8
32	32	7
127	127	2
56	56	2
60	60	6
88	107	2
78	79	5
92	93	1
7	7	5
69	70	2
59	59	4
6	6	5
94	94	4
49	71	2
53	53	4
106	106	3
2	6	1
79	81	3
56	57	2
4	12	4
126	126	2
34	34	3
112	113	1
8	9	1
111	111	4
16	18	2
47	61	2
39	40	3
115	115	2
57	57	3
77	79	2
13	55	1
120	120	4
66	67	3
10	10	8
124	124	2
79	79	8
109	124	2
17	17	4
86	95	3
102	102	1
83	97	1
71	71	4
25	25	2
119	120	2
0	0	2
79	80	3
91	91	4
85	86	3
18	68	3
50	50	3
100	100	3
15	15	5
24	27	2
29	31	3
93	95	1
21	21	3
38	47	1
4	5	3
99	100	2
2	5	3
87	100	1
16	17	3
80	80	1
29	54	3
66	78	2
69	69	4
68	68	5
44	44	3
9	9	3
75	82	1
46	46	5
126	127	1
122	122	3
107	130	2
93	94	1
40	40	4
82	82	3
54	54	1
65	65	3
130	131	2
13	14	1
121	121	1
38	40	1
85	85	3
66	66	5
72	72	3
76	76	4
82	85	1
3	4	1
23	25	1
41	42	3
5	6	1
12	12	2
130	130	2
67	67	3
15	24	2
72	73	2
8	8	2
88	88	2
11	121	3
41	61	2
84	84	3
84	90	4
72	75	6
14	14	1
116	116	1
31	31	5
45	45	1
62	62	2
83	83	4
105	105	1
43	43	3
122	123	3
26	26	2
101	101	1
58	58	1
46	60	1
86	86	2
111	113	1
116	117	1
78	80	2
22	22	1
113	113	3
30	54	2
133	133	1
128	128	1
86	102	4
38	41	1
50	51	1
48	48	2
117	118	3
33	34	1
110	110	2
54	56	1
105	106	1
99	99	1
85	110	1
121	123	1
77	77	1
47	47	2
44	45	2
107	107	1
40	45	1
17	22	1
51	51	1
123	123	2
2	11	1
111	112	1
78	78	1
81	81	2
124	125	1
97	97	1
41	41	3
38	42	1
0	1	2
27	27	1
72	130	2
80	81	1
106	107	2
30	55	1
119	119	1
113	118	1
87	88	1
129	129	1
98	98	1
40	41	1
109	109	1
28	28	1
108	130	1
54	64	1
82	84	1
14	15	1
106	125	2
76	78	1
61	61	1
14	40	1
110	113	1
21	34	1
