34	49	4
72	72	21
27	126	3
124	124	40
64	64	12
98	117	3
132	133	24
20	20	18
2	4	12
129	130	20
105	105	17
131	131	23
41	42	4
127	128	6
140	141	9
96	130	7
3	4	3
129	129	14
22	22	37
140	140	18
58	59	16
136	137	5
16	16	17
123	123	32
39	39	7
65	109	9
29	29	45
38	38	29
47	49	3
21	21	26
81	82	9
115	115	17
61	62	6
99	100	8
18	18	36
66	66	16
100	100	15
110	127	4
139	142	2
81	83	1
99	99	8
112	113	9
64	65	9
96	96	19
47	51	2
65	110	9
123	124	11
3	34	7
15	15	9
55	135	5
51	62	4
126	127	8
142	144	4
69	117	3
25	26	5
135	139	4
138	139	4
23	84	3
23	87	1
117	117	8
114	114	11
2	37	4
49	49	11
84	84	11
135	138	1
111	114	4
91	91	13
35	38	3
62	62	31
70	70	15
104	104	21
19	19	24
80	82	4
144	144	22
130	130	21
28	28	33
61	61	22
67	93	5
103	103	25
40	40	17
85	88	5
38	39	9
66	71	9
126	126	29
141	141	26
128	128	42
112	112	12
8	10	3
59	63	1
1	5	6
37	37	21
119	120	8
58	92	6
18	19	6
110	110	24
138	138	5
39	40	4
23	23	18
106	106	9
9	9	12
129	132	2
57	106	3
110	113	4
76	76	20
89	111	2
110	111	10
19	23	4
102	131	7
27	28	17
105	106	6
89	89	6
65	65	15
101	101	29
57	107	7
95	95	10
81	81	20
31	32	13
111	112	3
133	134	7
25	25	15
11	11	7
11	20	6
24	24	21
92	94	8
31	31	23
117	120	6
30	30	34
128	129	11
9	40	4
50	50	6
13	16	1
92	93	4
2	36	1
79	80	12
102	103	12
75	75	13
35	36	5
33	33	8
134	134	32
92	92	13
48	48	5
109	109	9
125	134	2
2	34	2
51	51	14
52	61	2
58	58	14
63	63	13
86	100	6
131	132	13
76	80	4
68	68	10
69	72	7
4	14	1
54	55	5
52	52	3
1	39	3
102	102	14
59	60	8
69	83	6
10	10	13
143	144	16
124	125	13
61	63	1
132	132	17
12	16	6
9	32	4
33	55	2
127	132	7
84	85	12
33	34	3
126	130	1
20	23	7
8	9	9
118	131	1
113	115	4
97	100	4
80	80	10
27	27	29
97	97	9
94	94	28
119	123	5
117	131	1
82	82	7
17	17	14
108	109	4
97	126	4
139	139	14
33	54	5
6	38	2
107	108	4
111	111	13
53	53	10
47	47	11
96	131	6
42	42	9
4	5	9
70	72	13
76	77	1
69	69	6
59	95	3
6	6	8
138	140	6
119	119	18
26	26	21
106	118	1
95	114	1
126	133	2
20	21	15
142	143	7
1	2	9
30	31	9
66	67	10
108	108	12
120	120	9
135	135	22
122	123	22
67	67	14
121	121	11
118	118	8
122	136	3
1	3	5
134	135	11
32	32	21
70	77	1
92	100	1
125	125	16
127	127	15
26	130	2
105	125	4
130	131	9
125	126	14
41	41	22
128	131	9
105	109	3
62	63	9
14	14	1
19	20	14
99	117	3
133	133	17
87	87	4
17	19	3
117	118	7
79	79	22
8	8	33
94	98	3
23	86	3
86	88	3
107	107	8
134	139	1
136	136	9
82	87	2
67	68	2
87	101	3
35	35	9
13	13	18
145	146	7
5	20	7
98	98	7
97	98	13
86	87	4
116	116	6
90	105	3
106	107	3
53	76	4
124	127	1
83	87	2
73	75	12
27	49	4
3	3	5
93	93	3
34	34	11
101	131	1
69	74	3
5	5	14
55	55	17
57	57	10
88	88	3
14	43	5
117	144	8
56	132	1
54	131	1
71	102	3
15	16	12
59	59	14
145	145	7
4	4	5
59	62	2
96	97	6
30	129	3
71	72	2
11	36	1
0	0	8
54	54	15
30	131	5
29	32	2
35	50	2
19	27	5
21	48	1
83	83	9
17	18	3
73	73	5
124	132	2
83	85	2
142	142	20
74	74	13
26	48	3
55	56	5
20	49	3
2	39	2
53	54	10
81	101	2
73	74	8
118	119	13
52	84	3
56	127	1
139	140	6
137	137	10
5	128	2
74	80	1
67	113	2
122	122	8
101	102	9
70	71	1
136	139	5
73	79	1
89	94	1
11	42	6
34	35	2
111	129	2
124	134	4
85	85	4
60	60	7
115	116	2
144	145	4
134	140	10
26	35	1
89	128	1
135	136	3
54	69	3
98	99	4
12	14	5
123	137	1
137	138	7
3	50	2
65	66	1
48	49	1
76	78	2
61	118	2
47	54	2
95	131	3
37	42	2
20	80	1
71	71	9
66	114	1
83	86	1
36	37	3
90	90	10
26	27	3
114	116	4
95	96	3
61	65	2
42	120	4
10	48	1
49	50	4
120	127	3
49	52	3
23	24	2
98	100	4
104	119	3
89	98	1
77	77	7
13	14	3
105	107	1
141	145	3
17	38	5
102	104	3
25	27	4
107	109	1
15	21	1
70	73	3
8	39	3
104	131	2
49	118	2
78	79	2
92	95	3
133	135	2
80	83	2
55	122	5
40	48	3
24	25	3
50	59	1
89	91	1
1	38	3
132	134	1
120	121	2
55	123	2
1	10	2
50	54	1
87	88	7
63	109	1
70	117	1
110	120	1
42	43	2
28	47	1
98	130	5
94	95	3
55	58	5
143	143	8
93	94	2
70	90	1
55	57	2
142	145	8
33	49	1
43	43	3
121	123	5
54	56	2
106	127	4
34	121	1
20	47	4
112	117	3
12	36	1
4	20	2
141	142	1
75	77	2
49	120	2
125	135	5
6	41	2
125	130	5
119	128	3
63	68	1
92	97	3
28	123	3
33	51	2
29	134	2
12	12	3
136	138	5
62	118	3
125	133	2
30	32	1
53	71	3
32	48	1
146	146	3
125	132	2
75	76	1
1	83	2
111	123	3
56	57	1
143	145	2
83	84	14
82	83	4
80	81	5
17	41	1
85	86	1
17	82	1
104	120	1
102	106	2
99	116	3
28	141	1
20	85	1
36	36	3
56	135	2
52	86	2
40	43	1
70	83	2
69	71	2
68	104	1
25	73	2
74	85	3
88	90	4
96	98	2
112	114	2
66	68	4
75	103	1
56	56	4
112	118	1
41	47	1
80	84	1
10	11	1
30	48	3
17	43	3
131	144	1
69	70	1
136	141	3
105	118	1
87	91	2
129	142	1
26	127	2
53	130	2
98	104	1
89	90	2
2	16	3
60	61	1
134	137	4
29	130	1
103	104	1
54	134	2
123	134	1
74	76	2
29	30	1
86	86	3
113	114	3
1	1	9
2	2	1
55	134	1
23	57	3
2	14	2
112	127	2
9	48	1
142	146	2
4	6	1
18	128	1
54	65	2
76	102	1
58	60	3
104	108	2
21	27	4
127	133	2
62	79	1
53	90	2
24	56	3
111	113	3
33	50	3
116	131	2
27	37	1
78	78	5
14	15	3
127	129	2
37	47	2
52	53	2
112	116	1
124	140	1
99	102	1
35	43	2
34	36	3
37	38	2
115	117	1
78	81	1
110	116	2
20	22	1
100	120	1
101	119	3
121	134	3
140	142	2
124	141	1
136	143	1
92	96	1
22	61	3
106	111	1
0	1	2
11	30	3
9	41	3
33	36	3
17	119	1
111	124	1
100	128	2
23	58	1
6	7	1
53	91	2
47	119	1
2	17	3
110	121	1
56	58	2
96	126	2
13	118	1
123	136	6
23	88	2
47	121	3
116	118	1
60	64	1
60	63	2
50	85	2
111	117	2
13	27	1
0	5	1
87	89	1
17	48	1
39	41	2
14	119	1
11	16	1
22	129	1
5	6	1
28	29	1
17	81	1
21	47	1
109	119	1
32	38	1
3	26	1
123	140	2
12	40	1
109	110	1
58	64	3
88	89	2
76	81	1
22	23	1
100	101	1
136	140	1
12	48	1
113	113	2
23	125	1
51	78	1
135	137	2
135	140	1
24	78	1
87	90	1
75	99	1
33	35	1
101	103	2
96	132	2
38	41	1
67	82	2
35	51	1
105	130	1
11	43	2
85	87	1
62	126	2
11	19	2
61	64	1
124	128	2
49	51	1
33	48	1
2	13	1
38	131	1
2	3	1
76	99	1
118	120	1
57	58	1
113	124	1
114	115	1
105	124	1
67	94	1
124	142	1
3	41	1
36	52	1
127	131	1
