60	60	7
3	4	4
158	158	4
226	228	1
103	103	1
2	3	1
47	48	6
203	203	3
105	108	1
135	135	1
95	129	2
10	10	6
75	75	9
182	182	4
116	117	8
240	240	5
109	109	11
15	45	1
56	57	3
4	4	3
4	5	7
72	72	3
16	16	3
176	178	4
197	197	7
159	159	5
59	60	7
42	42	8
55	56	1
95	95	6
20	20	11
231	232	3
134	135	3
104	124	1
166	166	6
242	242	2
195	196	2
18	18	11
137	138	2
85	85	2
165	166	2
49	49	8
13	13	4
104	130	2
234	234	5
46	46	10
66	69	3
57	58	4
33	34	2
48	49	2
119	119	4
2	2	23
126	126	4
58	60	7
79	79	3
27	27	9
31	31	7
189	189	11
13	15	7
67	68	4
205	206	5
123	137	3
8	8	9
38	38	6
26	26	6
223	223	6
25	26	3
29	29	5
121	121	2
170	170	2
19	20	1
136	138	5
235	236	2
157	157	1
188	188	6
51	52	5
65	67	3
154	154	5
118	119	3
36	83	7
191	196	3
114	114	3
131	131	4
239	242	2
47	47	7
72	74	2
198	198	8
66	67	1
33	33	4
173	174	7
155	156	4
137	142	1
121	122	6
24	32	8
48	48	5
191	204	7
149	175	2
45	64	1
71	71	12
211	211	1
121	123	4
156	156	3
138	138	2
152	157	3
141	142	2
18	30	1
187	207	1
80	80	9
20	21	1
219	220	3
153	153	4
227	230	2
125	126	3
187	187	8
224	226	5
35	38	2
224	224	3
86	86	4
193	194	1
219	219	5
64	64	5
105	105	12
149	149	5
152	152	5
1	19	1
19	19	6
111	111	4
62	72	2
7	12	6
35	35	2
32	36	2
88	195	2
216	225	2
10	64	1
145	145	3
46	55	2
117	117	1
66	66	7
0	0	1
209	211	3
30	33	1
12	13	2
47	55	1
56	156	1
109	110	1
233	233	7
52	52	7
159	160	1
140	140	2
231	231	12
123	125	3
17	30	2
220	220	5
50	81	3
51	51	7
184	187	3
181	182	9
63	156	3
61	161	4
140	143	1
62	207	3
138	145	2
150	152	4
34	34	3
39	39	4
227	227	2
122	123	3
96	96	4
44	44	4
7	13	3
159	175	1
63	63	1
7	7	3
27	29	1
219	230	3
172	172	5
3	75	1
104	104	9
139	140	4
53	53	12
4	34	7
9	28	1
64	65	3
234	235	2
21	22	5
77	77	2
195	199	1
164	164	3
152	154	1
175	178	8
102	102	5
23	23	3
236	237	5
139	139	2
3	3	7
43	43	5
169	169	8
89	118	3
7	9	3
17	18	7
230	230	6
176	176	5
130	131	3
143	145	6
151	151	2
28	42	1
136	136	5
4	12	4
228	230	5
22	22	2
201	202	1
171	172	2
184	185	4
8	223	3
7	8	3
199	200	2
67	67	1
123	124	2
101	101	3
226	226	7
36	80	3
99	100	4
108	109	2
144	144	1
155	209	2
164	165	3
22	63	3
116	118	2
70	84	1
46	47	2
74	75	2
4	6	1
154	156	4
20	36	1
16	34	1
16	33	1
76	76	3
128	128	3
40	40	3
23	152	1
213	213	6
215	215	5
120	120	4
169	170	1
102	103	2
69	69	3
78	78	2
179	191	2
225	226	2
70	70	5
202	202	1
106	106	9
237	237	4
55	57	3
11	14	1
55	55	2
120	123	2
174	174	2
97	97	6
61	162	1
123	129	2
200	200	4
192	192	2
181	181	5
187	188	3
28	28	3
126	145	2
156	157	3
4	78	2
88	88	4
194	194	2
190	216	1
204	204	2
11	11	2
99	128	2
62	62	3
75	77	1
28	32	1
171	171	5
45	65	2
239	239	1
30	30	4
6	15	1
226	229	3
88	117	3
201	201	3
28	29	1
145	146	1
161	161	2
71	72	1
62	208	1
132	132	2
180	180	3
15	15	3
24	24	7
232	233	2
59	59	2
81	83	1
162	170	3
186	186	6
37	37	1
48	84	1
192	193	2
184	186	2
160	160	3
220	221	2
80	83	3
229	229	4
43	46	2
193	196	1
25	25	4
139	143	6
191	192	3
180	186	1
21	21	7
186	187	3
167	167	4
221	223	2
0	2	2
222	223	2
61	61	9
4	7	1
135	138	1
222	222	2
127	130	4
58	59	10
163	165	4
68	219	4
144	145	2
125	125	2
148	150	1
11	37	6
106	107	5
160	161	1
108	108	2
173	201	4
183	196	1
233	234	1
145	152	1
235	235	3
146	147	4
101	118	2
0	1	1
122	125	1
139	150	2
178	178	2
8	12	1
117	118	1
43	55	2
37	38	1
119	123	2
89	89	5
154	155	1
81	81	2
84	84	3
103	114	2
14	14	2
58	58	2
232	232	5
39	42	4
61	62	1
168	183	1
101	111	1
123	139	3
127	127	1
6	6	1
73	73	2
122	122	6
32	33	1
199	199	3
202	203	2
59	168	2
28	49	1
0	74	1
124	126	1
25	32	2
103	105	2
21	36	1
6	8	3
221	221	4
46	74	2
65	65	2
22	23	3
99	127	4
1	1	3
73	82	1
3	5	4
36	48	3
112	131	2
41	41	3
53	54	5
36	59	1
88	114	2
29	30	2
152	155	1
191	191	5
161	231	1
12	12	1
105	106	1
227	229	2
195	195	2
130	130	6
24	68	1
79	80	1
119	125	2
70	71	1
178	188	1
45	45	3
74	191	3
62	63	3
125	130	1
112	119	2
36	82	1
10	219	3
56	60	1
210	211	2
133	133	1
114	119	1
88	92	2
240	242	1
215	216	1
146	146	2
225	225	1
26	65	1
163	166	1
81	82	1
5	5	2
120	121	2
77	78	2
26	27	1
216	216	1
207	207	1
22	51	2
54	54	4
29	31	3
148	148	1
205	205	3
1	16	1
129	129	4
9	9	1
18	53	1
10	37	1
143	143	1
46	85	1
137	137	1
40	42	2
68	68	1
7	11	2
100	100	3
66	68	1
77	80	1
76	77	2
134	134	1
39	40	1
163	176	1
16	17	2
240	241	2
57	60	3
7	35	1
122	131	1
155	158	2
165	165	1
4	31	1
16	25	1
184	184	1
30	31	1
223	224	3
114	118	2
74	74	2
111	113	1
54	81	1
80	84	1
215	226	1
182	209	1
102	116	1
238	238	3
75	78	1
196	204	1
75	85	1
162	220	1
116	116	2
83	85	1
9	13	1
155	157	1
45	217	1
5	12	1
14	31	2
86	112	1
214	215	1
218	232	3
196	196	2
35	41	1
179	179	1
54	212	1
72	73	1
223	226	1
31	32	1
127	135	1
173	173	1
151	155	1
133	134	1
50	54	2
45	71	1
35	37	1
3	33	1
62	65	1
122	129	2
83	83	1
197	198	1
31	77	1
124	125	1
80	82	1
52	53	2
44	45	1
168	168	3
51	54	2
225	227	1
17	77	1
107	108	1
209	209	1
143	146	2
78	83	1
101	102	1
177	178	1
144	176	1
19	22	1
61	76	1
0	83	1
211	212	1
126	130	1
105	107	1
50	214	1
118	118	1
219	231	1
217	218	1
125	133	1
142	143	1
56	56	1
4	33	1
10	11	1
110	110	1
73	119	1
50	56	1
15	16	1
