102	131	2
13	34	3
122	122	16
73	88	13
56	56	12
1	31	4
24	24	10
24	25	7
87	87	4
27	27	16
92	93	6
113	113	18
134	134	22
79	80	5
78	78	16
120	120	27
140	140	31
26	26	16
50	50	19
64	91	1
121	132	1
48	52	5
109	110	1
19	19	25
129	129	18
133	134	12
57	58	2
13	13	18
93	93	8
83	85	4
102	102	17
103	103	27
16	19	8
131	131	26
65	85	3
135	135	18
116	116	17
74	74	16
117	117	18
142	142	19
126	127	10
126	126	33
22	22	17
112	112	31
73	73	10
10	10	17
109	109	18
92	92	9
105	105	7
71	71	13
38	98	2
124	124	12
139	139	33
60	109	1
47	51	5
118	135	3
40	40	20
87	130	1
4	25	3
48	48	12
54	54	12
58	59	3
125	126	3
37	37	11
1	1	12
115	134	3
116	120	3
15	71	3
15	16	9
31	31	21
33	33	14
6	8	6
141	143	2
83	93	6
81	82	2
105	106	5
83	106	5
83	83	18
53	53	8
30	30	17
143	143	19
4	4	9
37	39	1
12	36	3
111	111	10
59	59	17
33	34	10
29	29	27
93	94	6
8	8	34
63	72	2
106	106	10
108	108	11
17	17	16
47	52	1
119	119	34
23	23	16
89	90	18
81	81	18
55	55	19
32	32	8
141	142	3
72	91	1
35	35	25
38	38	10
42	42	21
3	31	2
67	67	11
132	132	16
125	125	16
136	138	6
36	36	8
47	47	6
107	107	22
51	52	7
105	109	2
119	120	9
132	140	5
51	51	7
105	121	4
36	37	7
86	86	8
54	126	3
54	65	2
62	63	1
23	24	7
71	72	4
127	128	9
3	3	10
141	141	18
2	4	6
93	95	1
112	116	5
17	18	9
115	115	6
65	65	11
62	62	14
91	115	4
96	113	11
75	75	11
138	138	11
54	127	2
107	108	3
74	75	5
12	12	4
136	136	33
11	11	15
100	131	3
140	141	16
28	29	7
100	100	9
114	114	6
137	139	2
79	81	3
35	36	2
98	98	9
100	101	5
14	14	7
76	76	12
97	97	24
117	124	1
53	96	4
34	34	5
100	106	3
139	140	7
137	137	6
64	64	14
127	138	3
68	86	2
67	100	2
106	108	2
60	60	12
78	83	2
91	91	14
50	51	3
58	72	1
72	73	4
9	9	20
119	126	3
104	104	15
123	123	26
121	122	5
84	85	2
15	19	2
95	95	22
69	69	18
97	98	5
8	28	5
27	28	4
41	41	19
46	47	8
20	21	3
50	74	2
108	132	3
115	132	9
110	110	16
142	143	16
39	39	25
127	127	6
18	18	20
21	21	6
110	111	6
92	98	2
94	95	3
89	89	7
146	146	6
61	64	2
80	80	14
77	77	15
15	15	4
20	20	15
52	52	14
49	49	20
120	128	3
62	96	5
22	26	1
115	116	6
59	70	3
57	57	9
83	136	4
69	70	6
106	136	2
28	28	8
92	94	4
66	66	21
110	118	1
91	96	2
96	96	11
99	99	16
69	102	4
101	101	22
84	84	16
94	94	7
69	71	6
145	145	8
116	117	7
63	70	4
79	99	4
40	50	2
62	64	5
96	97	6
133	133	17
98	122	2
135	140	1
112	113	7
132	138	2
106	137	4
65	66	2
102	126	1
13	17	3
57	60	2
101	123	2
54	64	4
77	85	1
9	76	4
59	111	1
59	60	9
129	132	3
68	68	11
128	128	16
9	31	2
52	92	4
29	30	2
3	5	2
130	144	3
114	117	2
61	61	8
67	138	3
20	28	1
74	101	1
108	109	6
53	61	3
118	118	16
63	63	16
35	37	1
57	61	2
4	20	1
77	82	1
50	52	1
121	139	4
65	84	5
57	104	3
87	91	6
120	130	3
113	136	1
5	12	4
2	2	6
136	137	3
18	19	2
115	119	1
21	22	1
121	121	5
102	103	2
24	27	1
14	34	5
109	127	3
5	19	2
13	14	2
117	118	4
89	118	1
137	138	4
108	140	1
76	78	4
57	62	4
112	115	1
65	83	7
95	96	5
61	65	3
63	64	6
56	138	3
33	35	3
101	102	3
10	12	1
89	110	2
0	0	8
5	20	2
103	112	2
70	70	7
131	139	2
127	139	4
75	106	3
20	26	3
76	77	7
88	89	5
79	79	13
128	130	2
101	106	4
83	84	2
73	75	1
6	6	7
118	120	11
34	35	1
121	130	3
112	118	2
120	142	4
24	26	1
124	125	6
9	10	8
110	128	2
88	139	1
105	138	5
78	79	4
123	126	2
18	38	2
138	140	3
138	139	2
50	124	1
33	63	6
39	40	2
58	58	7
112	133	3
55	95	1
23	25	1
92	110	3
16	57	2
108	133	2
31	32	9
5	5	15
76	79	2
122	125	1
89	139	1
144	144	3
66	76	2
83	109	3
132	134	2
114	131	4
122	130	5
131	132	3
53	92	2
63	75	2
90	90	8
20	128	2
55	56	9
88	88	2
43	43	4
93	118	2
67	90	2
16	16	4
40	49	3
10	11	4
69	72	4
106	107	3
128	131	2
12	43	1
9	30	1
61	71	4
40	41	1
68	83	3
68	85	2
37	38	4
80	125	3
74	76	5
90	119	1
114	115	6
66	67	4
102	128	2
59	109	5
102	124	4
9	96	1
21	26	2
64	83	2
111	119	1
8	17	1
130	130	11
4	5	1
126	128	2
3	4	3
109	111	2
115	138	2
33	62	3
120	141	1
57	71	1
110	119	2
108	131	1
70	72	3
25	26	4
99	118	2
95	99	2
72	74	3
0	7	1
25	28	1
3	15	2
104	123	3
54	56	2
84	92	3
111	112	4
47	50	3
85	88	5
22	23	3
104	121	2
58	62	3
79	95	1
25	25	7
80	81	1
120	121	2
107	140	1
129	130	4
102	104	1
42	101	2
53	93	1
130	143	4
115	117	2
52	53	1
84	104	2
122	123	5
32	33	1
144	145	1
124	128	2
32	74	1
57	72	1
128	129	5
87	88	1
15	22	1
127	130	3
72	72	4
82	82	7
114	132	2
47	130	1
8	10	2
60	71	1
81	119	2
56	58	1
61	62	1
90	91	1
87	98	2
66	70	3
107	136	2
81	99	2
58	98	2
67	82	1
131	133	2
80	127	1
47	127	1
85	112	1
52	74	2
103	104	2
49	80	1
68	104	1
8	9	2
67	68	1
66	92	1
12	14	4
10	69	3
85	85	1
51	103	3
118	119	2
64	127	1
58	61	1
91	92	1
108	110	2
14	74	2
74	138	3
54	55	2
5	14	1
39	41	3
66	127	1
64	65	5
70	75	3
3	21	1
5	15	1
101	124	1
82	124	1
97	121	1
12	13	3
73	84	4
102	129	2
73	85	1
130	141	1
80	124	2
120	135	1
41	48	2
83	100	1
60	72	1
32	34	1
66	82	1
6	40	1
0	1	1
112	135	1
85	86	1
109	131	1
66	71	1
48	130	1
93	131	1
116	140	1
41	49	1
55	59	1
123	124	2
142	144	1
49	128	2
89	140	1
26	27	1
6	12	1
143	144	1
69	105	1
39	98	2
86	87	2
73	74	3
91	100	1
13	29	1
109	132	1
93	100	2
5	6	1
68	106	1
56	111	1
50	90	2
135	137	1
53	55	1
65	137	1
55	60	1
116	133	1
87	95	1
112	136	1
23	34	1
49	50	1
39	49	1
125	143	1
1	37	1
103	109	2
