66	66	8
75	76	5
12	12	12
53	55	5
85	85	11
14	14	14
82	83	7
72	72	12
77	79	5
24	24	20
34	79	3
26	26	16
58	59	7
82	82	24
9	85	4
70	70	12
20	27	1
46	46	7
55	56	11
75	75	18
5	9	3
68	69	3
6	6	8
78	79	8
67	67	10
57	58	11
84	84	26
73	75	1
83	84	11
56	81	2
55	58	3
86	87	6
74	74	16
55	55	17
8	8	8
15	74	1
68	68	15
73	74	3
86	86	9
81	82	3
52	67	2
81	85	6
50	50	15
17	17	23
3	3	17
75	84	4
30	30	5
48	74	3
81	81	30
3	4	7
5	5	11
83	83	8
76	76	11
31	31	13
49	50	10
59	59	4
69	69	17
86	88	8
54	54	10
74	75	6
50	82	5
2	5	1
58	66	3
0	0	3
89	89	21
34	34	7
77	77	11
48	79	1
47	47	14
85	86	2
7	7	5
52	52	7
57	57	14
52	53	6
27	27	5
47	86	1
61	66	3
80	80	15
80	88	2
4	4	15
24	25	3
1	1	4
47	48	5
25	26	7
58	58	8
53	54	2
52	55	5
57	68	3
10	10	17
78	80	4
6	8	4
33	33	1
54	55	2
66	67	2
56	56	15
0	11	3
11	11	6
6	65	1
21	21	5
13	13	16
51	57	2
25	25	8
51	51	6
0	4	1
57	62	2
80	85	2
71	71	6
4	8	1
22	22	20
77	78	3
23	23	7
47	49	4
49	49	12
13	17	1
7	10	1
52	59	1
51	72	1
13	15	4
62	62	2
60	60	2
6	13	1
47	74	1
27	28	5
34	65	4
0	29	3
19	75	2
49	77	2
47	73	4
57	76	1
3	21	1
26	50	1
72	73	1
68	70	1
29	30	1
61	61	4
81	84	4
61	62	5
12	17	3
64	66	5
1	2	2
56	73	3
19	19	6
29	29	6
3	25	1
73	73	6
7	76	4
87	89	2
2	2	6
76	77	6
15	15	4
53	71	1
63	63	3
28	28	6
12	13	5
9	10	5
18	18	2
9	9	3
53	53	10
87	87	5
46	48	3
64	64	7
34	35	1
79	79	9
49	78	1
65	65	3
69	71	1
7	26	2
88	88	9
71	72	3
10	19	1
74	80	1
80	81	6
24	27	2
20	20	7
0	1	2
79	84	1
10	25	1
17	20	3
22	23	2
19	74	1
46	47	3
9	27	2
20	21	2
63	65	2
19	21	1
88	89	3
11	20	3
9	19	2
4	5	2
59	82	1
8	9	3
10	12	1
62	63	2
54	57	2
48	48	3
28	31	1
70	75	3
18	66	2
19	20	2
50	52	1
84	86	4
79	80	2
72	74	3
53	81	1
30	74	2
7	8	2
30	31	4
50	74	1
20	22	1
52	54	1
84	87	2
19	47	2
27	84	2
5	8	1
47	76	2
16	17	3
5	7	1
11	66	4
0	17	2
21	23	2
47	81	1
69	70	4
12	16	2
62	65	2
14	28	1
66	90	1
20	23	1
85	88	2
21	22	1
81	87	2
78	78	1
87	88	1
9	14	2
20	46	1
50	85	1
52	82	2
13	14	1
14	53	1
5	6	1
10	75	1
21	27	1
66	87	1
10	21	2
19	29	1
58	60	1
10	11	1
1	3	1
83	85	1
6	7	1
48	84	1
46	83	1
28	29	1
77	81	1
57	66	1
61	64	3
77	87	2
3	5	1
60	62	1
65	66	1
23	25	1
5	15	1
9	28	1
8	25	1
23	24	1
