71	71	7
132	134	1
102	102	3
106	106	10
12	12	9
48	48	9
62	62	19
21	21	14
6	6	11
120	130	2
22	22	15
90	90	10
75	75	11
24	24	19
79	81	5
66	69	1
38	38	9
74	74	13
55	55	4
77	77	12
94	94	7
124	124	5
112	112	9
123	124	5
17	18	1
5	6	9
113	137	4
95	95	9
33	33	9
140	141	7
61	61	5
49	57	4
60	61	4
35	35	1
140	140	8
135	135	11
42	42	10
106	107	6
64	64	3
143	143	6
100	101	9
129	129	5
120	120	11
18	18	13
125	126	12
30	32	2
47	47	8
93	94	3
69	70	4
104	104	5
103	103	17
82	82	6
114	115	6
121	121	12
4	8	3
137	137	3
128	128	13
139	139	4
74	75	3
101	101	24
67	68	8
65	65	5
131	131	17
72	73	3
133	134	6
16	16	7
130	130	14
144	144	7
141	141	9
80	80	15
27	38	2
71	72	3
66	66	3
134	134	25
69	69	7
100	120	2
30	30	11
34	35	5
142	142	4
9	9	2
29	30	2
25	25	9
124	140	3
83	83	8
28	28	5
111	111	4
17	17	11
95	96	3
13	14	3
101	102	4
1	2	1
76	78	2
50	51	3
37	41	3
61	93	4
10	10	5
125	127	3
127	127	15
94	95	4
97	97	12
118	118	9
43	43	4
41	42	5
92	93	2
63	63	10
50	53	4
80	82	1
29	49	3
122	123	6
1	42	1
122	122	7
80	95	1
99	99	8
54	56	4
137	138	4
131	133	5
105	105	5
119	142	3
127	137	3
23	23	10
51	51	2
75	77	3
109	109	8
115	115	6
80	96	2
138	138	5
36	36	3
108	109	3
18	19	6
105	106	6
19	19	10
67	67	13
98	98	6
31	31	6
130	131	6
133	133	10
102	103	4
87	87	6
33	36	1
89	89	2
116	117	3
8	8	10
98	126	3
66	67	2
103	129	3
125	125	12
5	10	3
53	54	8
36	41	2
41	41	9
1	14	2
49	59	1
26	26	11
40	40	6
126	126	25
32	32	13
27	40	1
14	26	2
76	76	5
118	119	9
139	141	3
14	25	2
0	0	2
119	120	5
92	95	3
127	133	1
17	58	2
26	27	6
96	96	7
29	41	2
1	37	5
100	100	9
53	53	13
127	143	1
4	5	9
98	127	1
128	129	3
3	3	8
58	58	5
104	130	1
9	31	1
78	78	11
11	11	11
138	139	3
54	54	9
80	81	7
60	63	3
123	123	8
73	73	5
30	31	3
96	104	2
2	2	7
68	70	1
143	144	3
114	114	2
84	85	3
72	72	2
15	15	5
39	39	7
36	37	8
34	37	1
59	60	2
32	36	1
27	27	3
128	130	3
77	78	4
29	29	5
8	9	2
84	97	2
5	5	6
31	33	1
34	34	3
117	118	4
3	5	2
108	123	1
103	127	1
125	131	2
76	79	1
38	39	1
103	104	3
68	68	8
102	129	1
108	108	6
21	23	3
135	139	2
70	72	1
79	79	3
125	143	2
107	108	2
49	49	3
119	119	1
134	141	1
115	124	1
51	52	3
105	109	1
89	94	1
110	110	2
20	21	5
132	135	1
104	127	2
89	90	1
48	60	2
95	99	5
8	17	3
95	100	2
136	141	2
123	141	2
16	18	3
125	142	1
109	141	1
12	13	1
16	17	2
65	66	1
145	146	1
118	141	3
11	30	2
92	92	6
98	99	3
75	76	5
31	43	3
115	126	3
48	57	1
36	42	1
136	137	4
3	4	3
91	91	3
81	81	6
33	35	1
4	18	2
1	21	1
97	131	1
117	117	5
27	28	1
25	29	2
37	37	2
40	41	2
59	59	3
107	124	1
70	70	3
2	5	1
95	103	2
129	131	3
13	13	3
61	63	3
82	112	2
57	58	2
122	136	1
138	140	1
125	141	1
109	122	1
93	93	4
51	56	1
127	129	1
97	98	4
86	86	1
85	86	1
124	125	2
27	42	1
56	92	3
107	107	4
115	118	4
89	96	1
28	60	1
35	37	1
62	63	1
116	121	1
35	55	2
58	59	3
130	142	3
39	40	1
120	121	2
125	144	2
17	29	1
4	4	2
14	15	1
50	50	3
96	103	1
73	74	2
20	20	1
28	29	2
34	36	1
84	84	2
116	116	5
64	65	1
9	10	1
48	49	2
49	50	2
18	21	1
43	47	1
101	122	2
117	126	2
102	127	1
74	111	1
136	138	1
79	80	3
60	60	1
22	23	1
66	74	1
103	116	1
87	98	2
126	128	2
2	20	1
52	53	2
31	32	1
113	113	1
110	115	1
1	1	2
26	28	1
81	82	2
63	65	1
112	114	2
62	68	1
76	114	1
126	144	1
98	103	1
95	130	1
11	23	1
127	141	2
111	116	1
14	56	2
113	114	1
146	146	2
66	85	1
99	100	1
121	127	1
13	32	1
37	70	1
52	52	1
69	71	1
27	29	1
141	143	1
24	25	1
