87	120	3
168	168	9
17	17	6
218	218	14
180	180	8
14	14	5
5	5	7
77	77	7
205	205	14
213	233	3
114	114	8
39	39	14
96	96	2
70	70	12
61	61	19
6	19	3
174	179	2
92	92	7
210	210	16
167	188	1
42	42	9
174	174	14
44	44	14
50	69	4
188	188	20
43	43	10
222	226	1
33	58	1
155	155	13
230	231	3
15	15	9
46	46	16
205	230	3
87	88	11
154	186	4
229	230	5
180	186	2
64	64	4
168	169	4
187	188	4
208	209	13
42	43	1
188	189	7
88	145	1
208	208	9
179	179	2
223	224	6
202	202	19
170	170	10
89	89	12
195	196	2
51	52	5
157	157	9
188	191	1
81	81	8
15	198	1
205	206	3
240	242	2
161	161	8
233	233	6
239	241	7
167	184	1
213	214	5
110	110	11
231	231	9
43	44	4
151	151	17
200	201	5
49	49	13
157	160	6
192	192	18
1	1	2
212	212	9
32	32	17
242	243	11
241	242	6
113	115	7
96	97	3
79	80	4
160	161	4
119	119	9
216	216	6
116	116	8
178	227	1
45	45	14
190	218	3
155	156	2
93	93	5
178	178	14
219	220	1
164	164	14
181	181	6
91	91	3
27	28	4
3	3	5
242	242	4
156	156	19
201	223	2
221	221	4
199	200	4
186	187	1
172	173	4
169	169	9
211	211	5
170	171	5
232	232	2
75	75	3
76	76	7
37	37	13
59	60	1
65	66	4
217	217	8
84	85	8
166	166	9
154	154	12
1	11	4
191	191	9
61	77	6
1	2	4
176	213	8
190	190	16
99	99	7
182	182	15
100	100	14
235	236	1
28	28	8
185	185	8
73	73	3
90	90	7
52	57	1
119	120	2
147	147	5
150	150	9
90	156	3
178	220	2
181	182	4
26	26	6
209	209	10
217	248	3
180	194	2
167	167	14
194	194	11
244	244	15
226	227	3
63	63	12
35	35	9
177	177	13
60	61	6
19	99	4
233	240	2
163	163	6
54	55	2
195	195	6
11	19	3
87	98	2
189	189	2
84	88	3
21	21	9
29	30	2
66	66	7
184	184	15
230	230	4
117	117	3
34	34	7
111	111	10
167	168	4
247	247	8
168	186	4
94	95	2
69	185	4
59	59	7
56	56	5
226	226	12
112	112	11
181	184	4
88	95	4
173	173	9
223	223	5
203	203	9
101	101	3
207	207	7
162	162	9
55	56	7
121	121	2
245	246	3
7	7	10
41	41	11
104	105	4
182	183	6
165	165	7
233	234	3
75	76	8
45	57	1
84	84	9
69	181	2
153	153	6
195	247	3
240	240	13
57	57	9
179	180	6
18	19	1
50	50	6
221	236	2
177	191	5
152	153	3
198	199	9
57	59	4
115	115	16
238	238	10
86	87	2
80	83	3
163	178	3
242	244	5
176	176	5
220	221	6
71	71	5
7	17	2
242	247	3
229	229	6
164	176	1
98	98	7
227	228	1
34	58	2
113	113	8
228	230	3
4	22	1
162	201	3
9	11	2
196	197	1
85	86	7
241	241	11
76	77	4
10	11	6
39	55	1
212	213	3
172	172	10
95	95	9
199	199	11
217	218	4
16	20	1
55	58	6
247	248	10
118	118	9
176	191	3
244	246	2
227	227	7
212	218	2
171	172	4
48	49	3
62	62	5
52	53	6
214	214	15
110	111	3
69	69	12
216	217	3
48	48	8
23	24	1
204	204	8
38	38	8
20	208	4
36	36	8
47	76	2
158	184	3
33	33	5
30	31	2
214	215	4
23	26	1
191	192	4
203	228	2
12	12	9
219	219	6
6	17	3
20	20	6
246	247	2
108	177	3
109	109	15
81	84	1
224	224	2
198	198	5
228	228	4
9	9	5
112	113	4
6	6	3
113	114	3
47	47	2
202	203	5
218	237	3
108	108	5
194	207	2
49	50	2
179	183	3
34	65	3
115	197	2
107	107	9
75	78	2
60	60	9
213	213	11
248	248	6
243	247	4
157	158	1
67	67	7
78	78	6
37	57	2
145	145	5
18	18	1
193	209	2
225	225	3
51	51	6
158	158	7
36	37	2
4	4	3
236	236	6
77	78	1
162	190	2
19	212	3
74	74	2
177	192	3
203	204	3
165	184	2
152	152	7
95	98	3
163	187	3
33	38	2
19	20	1
212	232	4
16	16	12
120	120	5
210	217	2
212	245	1
71	72	3
10	10	8
173	174	3
174	181	1
25	26	4
88	88	8
167	170	2
244	245	4
224	225	1
107	108	3
114	115	6
5	7	1
9	27	1
200	200	11
20	204	2
185	186	2
85	85	4
197	197	6
187	190	1
58	62	1
171	171	9
104	108	1
234	234	5
146	150	1
162	171	2
14	15	3
237	238	8
190	191	7
169	170	2
95	96	4
103	103	4
116	117	1
112	119	4
162	163	4
159	159	4
31	60	2
4	12	1
26	28	1
30	30	8
174	175	1
11	12	1
210	211	9
79	79	4
197	198	6
190	227	2
151	168	4
34	37	2
40	40	4
9	10	6
89	112	2
154	155	2
57	58	6
8	8	3
164	183	1
82	82	1
97	97	8
5	18	3
17	18	6
162	189	2
8	20	1
220	220	3
106	106	2
72	72	1
193	195	3
175	175	6
69	77	1
183	184	2
58	58	4
5	234	2
216	218	2
4	5	4
24	27	3
197	199	2
167	194	1
97	98	6
235	235	8
15	21	1
108	109	4
53	54	2
239	239	7
232	233	8
193	224	1
219	222	2
194	209	1
222	222	5
144	147	2
65	65	4
61	62	6
184	185	6
177	208	1
236	237	1
117	118	2
45	53	2
44	45	5
53	53	1
174	225	1
214	217	3
79	85	2
206	206	2
46	53	1
38	40	3
99	100	2
21	204	1
27	27	6
237	237	2
33	54	4
211	241	1
78	79	1
159	160	1
33	35	2
215	215	7
20	21	2
20	202	1
245	247	3
222	223	3
245	245	5
24	24	2
173	181	2
17	198	1
9	116	2
120	144	1
101	102	1
31	31	3
22	22	8
201	201	5
79	81	2
212	220	1
55	156	1
52	52	1
238	242	2
93	94	1
160	181	1
41	42	1
74	75	5
62	183	1
228	229	2
35	38	1
24	25	3
34	35	1
239	240	2
158	159	4
37	38	1
3	205	1
221	225	3
90	91	1
223	225	4
6	7	2
165	171	2
193	194	6
162	197	2
26	27	2
213	220	1
174	182	3
44	109	2
246	246	1
92	93	2
150	151	1
202	204	1
5	22	1
84	103	2
62	70	1
203	212	3
178	179	1
172	174	1
183	183	2
218	244	2
175	225	1
46	63	1
44	150	1
28	31	1
204	205	3
181	197	2
39	40	1
8	10	4
165	166	2
68	68	3
203	232	1
161	162	1
80	80	1
23	113	1
55	55	1
211	231	1
62	63	3
108	115	2
100	107	2
13	14	1
101	103	1
57	60	1
27	201	1
80	81	1
233	235	4
166	167	3
200	228	1
118	119	1
196	196	8
11	11	5
155	204	2
16	75	1
115	116	2
109	110	1
96	107	3
48	52	1
200	223	1
185	187	3
193	193	4
231	233	4
19	19	1
112	120	4
107	116	1
201	202	1
243	243	4
21	22	3
47	64	1
21	206	2
160	160	3
238	239	4
211	212	1
45	203	1
167	186	2
76	185	1
168	189	1
91	112	1
34	64	1
154	157	2
244	247	3
54	54	2
193	221	5
52	68	1
7	228	1
149	149	1
23	23	6
219	224	1
22	23	1
35	232	1
47	48	2
209	218	1
102	102	1
164	195	1
164	165	2
53	232	1
87	93	1
176	177	1
91	96	3
98	99	2
4	212	2
218	219	1
175	190	1
102	109	1
165	172	2
218	222	1
34	48	1
221	222	2
64	65	1
89	98	1
40	54	1
151	152	1
59	62	1
165	174	1
44	85	1
216	219	1
103	107	3
202	226	1
194	195	2
184	193	1
72	73	1
232	248	1
35	77	2
186	186	2
233	248	1
162	200	1
25	25	1
203	205	1
153	184	1
91	92	1
231	232	1
153	244	2
21	23	1
186	190	1
12	17	1
101	145	2
105	106	1
234	235	1
77	79	1
248	249	1
35	56	1
86	86	1
220	222	1
103	105	1
187	187	2
29	29	1
175	176	1
236	238	1
68	70	1
179	202	1
18	210	1
163	166	1
214	223	1
37	39	1
169	171	1
73	74	1
66	201	2
215	219	1
209	248	1
206	207	1
48	50	1
