91	92	13
35	56	2
103	103	6
43	43	13
61	62	6
57	57	3
33	33	6
64	64	11
44	44	12
34	39	1
24	25	1
38	38	12
32	32	3
97	97	5
29	29	3
66	67	5
95	96	3
77	77	11
21	22	3
79	90	1
58	58	7
48	83	2
38	45	3
34	34	9
48	57	3
51	56	4
69	69	7
37	37	4
75	75	6
83	86	2
52	52	3
32	33	2
106	106	9
95	95	11
49	74	1
60	65	2
21	91	4
96	96	1
36	36	3
88	88	8
76	77	2
101	101	7
28	92	1
90	90	10
99	99	5
41	41	5
50	51	3
50	93	1
45	45	6
76	76	6
22	22	7
51	51	4
32	71	1
70	72	4
96	97	4
84	87	3
79	79	6
104	104	13
28	46	4
42	43	2
48	48	2
24	24	4
55	57	6
55	55	5
46	47	5
83	83	5
72	72	8
60	60	5
43	44	8
65	66	9
51	52	4
35	35	14
94	97	4
74	74	2
26	26	7
66	66	1
59	59	3
70	70	7
98	98	10
45	47	2
78	78	5
21	50	3
85	95	2
31	31	2
50	58	2
67	68	1
47	47	3
91	91	5
87	92	2
48	55	4
68	70	2
63	63	5
107	107	4
29	30	2
25	25	6
34	46	4
42	42	4
80	90	4
97	98	3
100	100	7
42	45	2
30	46	2
23	24	3
42	102	1
33	46	2
54	54	4
37	39	1
27	27	2
98	99	4
54	55	4
30	30	9
102	102	8
73	73	11
53	54	4
31	32	8
92	92	7
75	76	5
71	72	2
47	48	5
40	42	6
41	44	2
22	43	4
74	75	2
38	43	1
84	84	6
64	66	7
86	86	3
23	23	6
92	101	4
94	95	4
84	86	4
39	40	2
29	31	1
105	106	1
71	74	1
60	63	1
24	55	5
85	104	4
68	68	4
21	21	7
22	25	1
86	87	4
35	36	1
37	42	4
30	31	1
89	90	4
25	48	4
81	90	2
20	20	5
56	56	3
106	107	2
46	58	1
50	55	2
80	80	3
71	71	4
28	29	3
52	53	5
85	85	5
105	105	1
42	44	1
49	96	3
64	67	1
62	63	5
88	89	4
56	65	1
67	67	2
25	29	5
62	62	3
70	71	2
92	94	2
53	53	5
33	45	1
29	48	3
63	64	1
21	93	1
49	72	1
69	70	2
63	70	1
82	83	1
65	65	1
66	71	1
30	47	1
61	101	1
50	50	1
49	49	3
46	73	4
94	96	3
33	34	1
86	95	3
78	79	2
43	45	1
82	88	2
61	61	1
50	90	2
38	42	3
60	99	2
59	89	1
79	80	1
36	43	1
93	93	1
66	68	1
58	62	1
80	81	1
101	102	1
95	97	1
26	28	1
74	105	1
38	40	2
41	43	1
65	69	1
32	34	1
22	49	1
88	90	1
89	89	1
83	85	1
93	95	1
38	39	1
