112	127	2
131	131	20
118	119	5
17	18	17
115	115	17
126	126	5
90	90	13
2	2	14
99	99	7
114	114	11
7	8	16
123	124	5
10	58	4
1	2	5
133	134	4
37	47	1
105	108	7
51	51	7
34	91	1
135	136	4
53	54	11
93	93	14
136	153	3
112	113	7
120	120	11
102	107	2
80	81	2
23	23	17
25	25	16
48	86	2
115	116	20
12	47	2
15	15	13
97	97	13
17	17	19
81	82	6
45	94	3
88	88	17
87	88	5
2	3	22
104	104	7
86	86	13
102	102	10
13	39	1
106	107	4
88	90	4
83	83	26
67	67	12
133	133	17
71	71	21
145	150	2
84	86	4
66	67	3
155	156	3
6	6	8
24	24	16
31	32	10
121	121	3
103	103	9
39	39	10
36	37	10
140	140	8
108	109	2
53	53	6
128	128	20
73	73	7
139	139	12
124	125	5
117	117	12
9	10	6
100	100	25
130	137	1
23	24	22
138	139	5
151	152	8
158	158	6
133	150	4
98	98	13
132	132	5
11	14	1
52	52	8
150	150	27
8	10	5
139	140	1
33	33	14
92	92	13
91	136	3
154	154	12
137	138	7
38	38	14
109	109	5
122	122	7
101	101	13
21	21	21
50	50	18
7	7	16
40	40	4
68	68	10
151	151	8
49	51	2
1	5	2
14	137	1
41	41	4
5	24	5
145	147	8
36	36	6
14	15	11
138	138	15
79	79	10
153	153	16
148	148	18
32	32	13
9	9	16
128	129	7
89	89	5
85	86	2
129	129	22
6	23	3
10	10	7
146	147	7
30	30	4
137	137	9
31	31	21
80	80	17
12	15	3
42	42	18
27	27	9
39	67	3
24	25	15
87	87	19
45	93	1
43	43	18
44	44	18
46	94	2
92	93	7
106	106	5
49	61	1
155	157	3
86	118	1
115	126	1
37	37	9
131	135	1
19	19	4
30	42	2
45	45	12
113	114	8
26	26	15
111	112	16
26	27	6
145	145	5
13	13	6
116	117	4
116	128	1
20	22	2
18	20	1
35	35	11
95	96	3
12	151	2
54	54	5
118	118	13
28	29	3
87	135	1
128	154	3
112	114	6
147	147	9
111	111	9
4	5	9
85	96	2
146	146	2
18	18	15
90	94	1
123	123	10
5	6	2
93	101	2
152	152	6
125	126	4
129	130	3
24	138	4
152	156	1
63	63	4
109	110	8
112	112	9
24	139	7
10	20	2
5	5	12
12	12	10
50	51	9
75	75	20
0	0	9
80	87	1
34	34	11
1	1	15
13	14	5
48	48	10
114	123	1
41	43	2
140	141	1
65	65	16
117	124	4
108	108	13
142	152	2
19	22	3
35	36	3
150	151	3
33	91	3
111	123	1
50	93	5
107	108	1
156	156	5
3	3	8
145	146	8
47	48	4
64	64	4
102	103	4
30	39	2
132	134	7
135	135	4
152	153	8
81	81	7
35	92	2
100	102	2
82	84	2
105	105	9
110	112	1
7	29	1
49	49	4
81	84	1
156	157	3
119	120	7
16	16	13
53	150	2
110	111	7
29	29	13
91	91	12
73	100	3
41	51	2
35	91	2
36	51	1
95	95	22
108	110	1
92	131	2
39	40	4
15	16	3
155	155	7
32	34	5
125	125	5
21	22	5
63	116	2
146	148	4
54	55	1
4	19	2
142	142	3
82	82	12
72	72	5
136	137	4
134	134	19
31	141	2
4	4	6
118	122	2
27	28	10
34	35	6
91	92	11
8	30	3
76	91	3
109	111	6
78	86	3
136	136	9
134	142	4
93	95	3
150	154	1
153	154	1
33	34	4
6	33	1
3	4	3
127	127	9
107	107	12
135	137	2
84	85	7
13	51	3
111	115	6
144	145	5
14	47	3
141	156	2
110	110	7
51	52	3
134	137	4
14	17	2
14	16	6
8	9	2
57	57	1
34	52	2
3	21	2
114	115	3
38	39	6
43	79	1
100	105	2
99	100	7
55	56	3
8	16	4
25	26	7
103	105	2
7	41	4
127	142	5
132	133	2
116	116	7
32	82	2
118	121	2
157	158	4
131	132	3
40	41	5
16	17	7
20	20	8
39	41	1
63	64	2
13	17	3
18	19	5
93	94	1
55	55	4
78	80	2
14	142	4
79	82	3
9	12	2
34	53	1
8	8	9
45	88	5
6	12	1
8	19	1
66	66	5
82	83	7
87	93	7
62	62	3
98	101	1
94	94	12
8	14	1
7	36	3
96	97	7
48	50	2
156	158	3
65	71	1
12	13	5
105	143	3
107	113	1
25	28	6
124	124	7
128	130	3
83	84	2
65	69	1
69	70	4
117	118	9
36	42	1
118	120	3
46	46	4
130	130	11
22	56	5
32	50	1
104	105	2
54	56	1
88	89	3
14	14	4
79	87	1
77	78	4
42	43	4
2	5	3
67	69	1
151	158	2
73	75	2
107	109	2
4	23	2
92	94	3
48	49	2
22	22	5
64	69	2
153	155	3
141	141	5
134	135	1
122	125	2
82	86	1
38	50	3
44	45	2
117	156	2
29	31	1
98	99	5
43	44	1
0	1	1
35	42	2
47	49	1
45	73	1
36	38	3
70	70	5
113	115	4
157	157	6
47	95	2
79	83	1
12	41	3
29	34	3
70	71	1
50	70	1
141	142	1
68	70	3
72	73	1
96	96	1
89	91	2
94	120	1
41	42	4
83	85	1
11	17	3
63	69	3
14	53	1
14	37	1
109	112	2
97	103	1
27	29	2
31	68	3
97	98	2
159	159	1
50	130	2
91	119	3
73	129	1
46	47	4
64	67	1
76	76	3
79	84	3
144	148	2
122	123	2
104	107	2
145	152	1
47	94	1
130	131	1
142	153	1
24	29	1
52	61	1
142	143	1
152	157	2
8	12	2
9	11	2
14	141	1
128	156	1
48	51	1
52	55	1
153	156	3
152	155	1
92	138	2
154	155	1
120	121	2
45	50	1
38	42	2
87	91	1
56	56	1
11	11	1
14	51	1
131	133	4
131	134	3
147	149	3
87	92	2
44	47	1
127	143	1
15	38	1
79	88	2
94	95	1
77	80	1
99	107	1
34	51	2
84	84	2
6	7	1
82	85	1
34	36	1
90	115	1
43	91	1
10	42	2
87	89	1
72	129	1
149	149	1
4	6	2
86	98	1
140	155	1
88	95	2
88	91	1
154	156	1
119	132	1
50	52	1
11	12	2
78	78	1
46	78	2
128	155	1
28	28	3
75	80	1
119	119	3
32	33	2
33	50	1
19	20	1
10	11	1
79	80	1
77	98	1
90	95	1
49	119	1
56	57	1
44	94	1
75	76	2
43	77	1
100	101	2
49	70	1
78	79	2
115	133	2
134	136	1
122	124	1
77	77	1
67	70	1
76	77	1
79	81	1
8	92	1
14	139	2
37	53	1
20	21	1
91	93	1
