26	26	21
47	50	4
79	80	11
47	76	3
60	60	23
75	75	24
53	53	15
56	56	18
50	50	12
78	78	11
71	72	7
77	77	23
78	79	8
2	85	2
61	62	6
51	52	17
15	15	8
82	83	16
59	59	26
19	19	14
49	53	3
71	71	16
57	57	22
6	6	21
68	73	4
50	75	2
49	66	15
84	84	25
24	25	4
4	4	18
10	10	12
76	76	17
62	65	8
29	31	1
8	8	11
52	55	8
65	66	6
22	22	25
2	2	13
48	48	18
58	60	7
67	67	18
9	9	20
22	25	6
52	76	2
60	61	13
53	56	4
17	79	7
80	81	6
54	76	5
24	24	18
63	63	16
54	54	33
3	4	7
52	66	1
73	73	8
70	70	13
14	14	11
83	83	23
3	3	30
52	52	21
53	54	12
1	1	14
79	79	22
62	66	5
73	84	2
89	90	5
69	69	17
55	62	6
63	65	3
64	65	2
16	17	2
66	66	34
80	80	16
11	24	1
17	17	22
74	82	5
47	66	8
68	68	25
48	63	2
49	65	2
47	47	13
49	49	27
5	11	4
10	70	1
49	50	13
10	13	2
33	78	1
12	12	16
89	89	8
31	31	11
13	13	14
81	83	7
58	58	17
67	68	7
62	62	19
58	59	6
4	69	3
72	78	2
1	2	9
12	13	13
30	31	4
28	31	2
82	82	14
33	33	1
54	55	4
73	74	3
21	22	6
50	65	4
24	26	3
7	7	19
61	61	19
50	68	1
17	20	3
55	55	29
30	30	13
75	76	6
79	82	2
18	18	4
46	50	2
14	78	6
5	7	2
28	28	7
12	17	4
22	26	1
11	12	6
77	78	6
55	56	9
0	0	11
48	59	3
9	10	2
50	51	8
86	86	10
60	65	6
53	57	3
16	16	11
56	57	5
47	48	8
5	20	1
8	23	2
19	20	12
25	26	4
20	20	13
47	59	1
53	77	2
21	23	4
8	21	8
88	88	10
75	78	2
81	81	5
57	62	1
46	48	1
74	74	12
54	59	3
57	58	6
46	65	2
12	14	4
48	50	4
50	66	2
18	21	4
23	23	23
47	51	2
46	47	6
51	51	11
4	19	1
21	21	4
58	63	2
52	53	4
65	65	7
48	62	4
76	77	2
46	46	4
75	79	2
48	49	8
68	69	7
64	64	6
48	52	3
11	11	15
46	52	1
4	20	1
86	87	8
47	49	1
13	14	3
78	80	5
5	17	1
57	59	1
6	8	1
73	78	1
32	65	1
75	83	4
75	84	4
5	9	6
3	74	1
5	5	4
8	9	8
59	62	2
72	73	3
88	89	3
85	85	11
53	55	4
61	77	5
20	21	1
81	82	5
84	85	6
50	53	4
11	72	1
54	56	1
27	28	2
27	27	8
17	18	5
4	5	2
72	72	7
70	71	1
26	27	1
55	60	2
56	62	1
56	58	2
24	30	2
85	86	4
75	77	2
23	27	1
24	27	1
1	19	1
24	28	1
87	87	2
29	29	1
73	81	2
19	84	1
56	69	1
48	51	2
5	23	1
30	73	1
71	74	1
48	77	2
50	58	1
52	77	2
83	85	1
51	58	1
69	70	1
49	55	1
69	81	2
7	8	5
6	30	3
13	77	1
76	78	2
74	80	1
22	23	3
4	18	1
49	76	2
77	79	2
73	83	2
66	67	2
19	54	1
25	27	3
4	27	4
47	63	1
79	81	1
57	65	2
60	62	3
0	1	3
6	20	2
25	25	4
2	84	1
20	24	1
69	72	1
9	17	1
75	80	1
56	71	1
53	75	1
27	31	1
85	87	1
56	79	1
34	35	2
90	90	2
26	32	1
5	16	1
34	34	4
46	51	2
15	16	2
23	24	1
23	25	1
50	62	2
5	27	1
51	57	1
28	29	1
52	58	1
19	24	1
49	51	1
11	14	1
5	6	1
9	12	1
76	79	1
52	54	1
