32	32	15
12	13	6
39	40	2
74	75	6
5	6	7
69	69	23
13	14	12
8	8	15
41	43	1
41	41	11
26	26	21
17	17	18
13	13	5
3	4	6
51	72	1
11	11	7
21	21	7
59	59	11
73	73	12
66	67	8
63	63	19
53	53	2
74	74	19
62	62	5
6	6	10
52	52	15
16	16	19
73	76	3
10	10	10
80	80	14
42	42	15
7	49	10
8	46	7
57	57	10
65	65	15
1	2	10
78	78	6
48	66	2
38	38	10
0	0	6
47	47	15
26	80	2
50	50	9
35	35	8
29	29	8
65	67	4
55	56	1
60	61	14
10	30	3
60	60	8
63	71	6
61	61	7
15	15	10
9	9	12
27	28	2
73	74	2
18	18	8
39	39	15
51	51	12
9	11	3
7	7	15
62	63	6
49	49	15
10	11	5
75	75	8
19	19	9
45	45	10
48	48	9
16	17	6
52	70	3
55	55	8
14	59	1
36	36	9
71	72	13
0	29	3
76	76	4
27	27	5
63	64	3
28	28	9
72	72	9
71	71	4
59	60	3
69	72	1
34	63	2
54	54	4
75	76	3
64	64	6
58	58	4
25	60	2
68	69	4
30	72	2
1	41	1
49	51	12
1	1	6
37	37	13
25	26	4
34	38	2
38	73	5
46	46	8
18	48	1
36	60	2
0	81	2
6	39	4
15	19	2
55	64	4
12	22	4
55	58	1
3	3	4
26	28	1
14	15	1
49	50	2
25	30	3
29	40	2
68	71	1
38	40	1
5	5	10
64	65	4
31	31	5
34	34	7
67	67	11
11	12	4
78	79	3
13	15	1
40	40	25
68	68	8
50	52	4
58	59	2
20	21	3
4	4	13
79	80	4
47	48	5
6	7	1
15	61	2
28	29	5
14	14	5
8	27	2
31	34	3
10	12	2
49	66	1
66	73	3
20	31	4
25	25	9
56	57	4
40	41	5
0	80	1
77	77	12
36	37	4
33	72	2
9	10	2
14	29	1
56	56	5
10	13	3
51	52	3
20	42	4
65	71	2
22	22	1
12	12	8
70	71	5
3	10	2
51	53	2
67	68	2
70	70	4
63	67	3
50	51	5
8	26	5
34	64	3
8	50	1
30	55	1
1	80	3
16	33	1
58	61	1
66	68	2
29	35	1
46	64	2
33	33	4
15	16	9
2	78	1
0	1	1
5	31	2
53	54	2
7	8	1
26	74	1
43	43	4
66	66	7
21	32	2
56	59	3
39	41	1
21	52	1
52	66	5
57	62	1
79	79	2
2	2	11
27	61	1
28	58	1
59	62	1
27	37	1
12	61	1
33	53	1
36	79	1
33	49	2
45	54	2
15	20	1
53	71	4
54	67	2
67	69	1
64	67	1
8	11	2
25	67	2
33	71	1
69	71	1
69	70	1
70	72	3
31	53	1
28	36	1
44	55	1
30	32	1
29	30	3
11	32	1
17	18	1
62	64	2
2	3	1
19	20	1
37	38	1
11	51	1
42	61	2
30	54	1
30	30	1
31	32	1
45	47	1
17	60	1
44	46	1
34	49	1
44	44	1
46	47	1
