68	68	20
130	131	4
121	121	20
114	115	3
54	54	23
67	68	11
27	27	17
83	83	6
85	85	14
21	66	3
116	117	5
30	30	6
119	119	18
45	45	2
94	94	12
124	124	17
2	3	8
25	25	17
117	117	24
48	48	18
19	20	4
133	133	11
48	49	8
3	3	11
5	6	3
42	44	4
96	97	3
76	76	14
109	109	16
132	132	16
115	116	4
46	56	1
105	106	5
127	130	2
90	99	4
13	13	21
39	39	19
57	57	11
43	43	14
82	82	3
125	125	18
131	131	10
0	0	22
6	6	24
69	69	19
61	61	14
100	100	14
10	10	14
29	30	5
56	57	8
60	60	4
111	111	21
49	49	12
75	102	3
20	20	20
126	126	7
1	2	5
121	122	5
42	42	12
26	26	10
31	31	12
38	39	1
66	94	5
40	41	1
105	105	13
129	129	10
102	102	6
100	102	2
109	120	4
92	92	10
34	34	3
84	85	11
96	96	25
55	56	1
127	131	6
95	96	4
125	126	4
56	56	22
50	50	17
79	80	8
113	113	14
39	40	10
67	67	4
33	33	18
98	100	2
68	69	2
99	99	4
98	99	6
12	12	13
45	46	7
53	53	15
61	62	6
19	19	15
126	127	5
47	47	13
64	64	10
49	50	5
51	52	12
79	119	2
22	25	2
90	90	12
80	81	6
78	78	3
75	75	16
21	67	2
87	88	11
74	74	9
79	79	18
72	72	4
110	110	7
51	54	1
40	40	11
112	113	6
114	114	3
73	74	4
122	123	6
51	51	6
60	61	3
86	86	8
106	106	4
2	130	3
129	132	1
98	98	9
81	82	9
44	44	7
108	108	10
63	63	1
103	103	11
78	79	3
109	110	4
22	22	6
75	76	7
2	2	12
88	88	3
120	120	14
11	11	17
28	28	4
104	105	5
97	101	4
55	55	17
46	47	6
3	7	1
72	81	2
118	119	4
88	89	2
87	87	8
24	24	14
120	121	5
9	10	9
122	122	14
4	5	6
41	42	3
34	38	1
8	8	9
130	130	10
21	22	3
99	101	5
104	104	14
123	125	1
16	16	4
1	1	14
4	4	10
125	127	2
10	11	2
23	23	6
77	79	3
132	133	1
9	9	4
70	89	3
84	86	2
97	97	7
3	4	4
52	52	17
15	15	7
57	58	1
124	125	6
83	103	2
46	46	11
90	92	1
94	95	2
46	60	3
116	116	8
128	128	6
77	77	5
97	98	5
80	80	10
72	74	7
16	18	4
48	97	4
7	7	19
15	16	3
32	33	4
101	101	3
81	81	8
80	85	1
66	68	1
102	103	7
70	71	3
18	18	5
123	123	6
21	21	6
39	42	3
58	58	6
23	24	7
93	94	3
44	45	6
2	6	1
62	62	9
4	6	1
16	19	1
115	115	6
12	13	2
46	48	5
19	21	4
112	112	13
107	107	9
90	95	2
48	64	2
89	89	2
95	95	4
55	63	2
110	111	4
59	59	1
79	83	1
59	60	5
111	113	4
25	26	3
90	97	1
114	117	2
82	83	5
18	19	2
54	55	2
89	91	1
24	25	3
71	71	10
59	62	3
0	1	6
106	107	1
3	5	2
23	26	2
127	127	8
41	41	3
111	124	2
58	59	2
76	79	3
3	6	1
118	118	3
17	19	1
108	120	2
125	132	2
70	70	2
65	66	4
37	37	1
86	87	3
80	98	1
10	28	2
13	14	3
73	81	1
47	48	4
85	96	3
52	54	3
102	120	2
94	113	1
64	75	3
96	100	1
2	4	2
84	84	6
58	62	2
14	31	3
125	130	2
85	86	3
27	28	3
71	72	1
113	114	3
32	32	6
72	73	2
93	93	1
105	111	1
117	119	1
102	106	1
129	131	3
13	82	1
128	129	3
65	65	4
97	100	2
118	120	3
50	51	4
53	54	1
76	77	2
5	9	3
69	92	3
69	70	4
83	85	3
101	102	4
110	112	2
66	67	4
0	133	2
6	7	1
103	105	1
100	101	3
73	73	2
29	29	3
125	131	2
70	80	1
88	90	1
33	41	1
92	93	1
42	43	2
22	23	1
99	100	5
79	117	1
26	79	2
106	110	1
111	112	4
54	100	1
9	31	1
51	64	1
52	53	3
66	66	3
91	93	1
38	38	2
66	84	4
129	130	1
97	99	1
105	107	3
60	62	1
102	104	2
8	9	1
17	17	1
119	120	1
29	32	1
41	43	1
91	91	3
33	34	2
30	31	1
69	121	2
80	82	1
12	14	1
16	17	1
73	80	2
10	20	2
79	96	2
4	7	1
14	14	1
63	65	1
83	84	1
9	12	1
