26	26	12
46	46	24
19	19	2
37	37	25
11	12	2
67	67	10
70	70	13
69	69	20
64	66	4
8	25	2
47	47	14
76	77	3
80	80	18
58	60	3
4	5	5
35	47	1
1	2	1
45	45	16
31	32	14
55	55	19
18	18	4
69	71	6
71	71	18
51	52	5
3	4	4
40	40	10
36	36	16
54	55	4
56	72	5
52	52	9
63	64	6
76	76	23
50	50	9
50	51	5
11	50	1
27	60	5
7	38	3
13	13	9
25	28	2
41	41	25
34	34	11
52	64	3
67	68	4
54	54	7
48	48	13
10	21	5
78	78	11
7	36	4
28	28	14
68	69	4
19	48	4
14	14	17
49	52	3
0	0	26
32	50	3
60	61	8
10	12	4
72	72	9
6	6	16
11	14	3
66	69	7
21	21	11
61	61	15
7	7	10
73	73	29
33	33	11
15	15	12
53	54	8
58	58	8
74	75	5
12	12	8
58	59	10
2	2	4
3	17	1
50	52	3
20	31	2
74	74	12
20	28	4
75	75	7
58	66	1
8	8	18
59	59	13
32	32	21
38	79	1
57	59	2
31	51	11
27	28	3
5	33	1
53	53	17
50	66	5
29	41	3
55	62	4
65	65	8
9	21	2
28	29	2
17	21	2
27	27	9
63	63	11
31	50	2
68	68	9
64	64	13
57	60	4
77	77	10
64	65	1
66	70	2
3	3	3
21	30	6
43	43	1
59	60	4
79	79	13
48	61	4
1	4	3
4	4	5
10	10	9
36	37	3
65	68	4
66	66	10
12	13	1
26	27	2
38	39	5
17	17	8
62	62	9
38	38	12
50	53	1
16	16	17
49	50	5
1	1	10
42	42	8
8	22	4
5	6	3
28	59	3
35	35	11
17	46	2
51	63	2
4	47	1
34	56	5
62	64	3
51	51	6
11	11	3
28	65	3
9	10	7
4	6	1
34	35	1
8	15	2
60	60	5
79	80	2
46	47	1
27	65	1
57	65	3
54	64	2
56	62	1
53	62	3
8	31	2
55	56	1
25	26	3
0	10	1
66	67	1
10	11	6
5	5	6
49	49	10
8	9	3
70	71	8
47	48	1
20	20	4
53	64	1
51	67	1
19	20	2
35	48	2
9	9	8
51	53	2
57	57	7
30	41	4
33	34	3
4	79	2
65	66	5
26	53	2
18	19	2
20	48	2
30	71	5
18	30	2
35	36	4
33	64	2
30	68	1
69	70	6
71	72	3
56	56	10
8	32	2
31	31	4
51	64	2
49	68	1
47	61	2
27	29	1
39	39	5
2	11	2
8	26	4
14	49	1
3	10	3
6	7	2
21	32	2
6	8	1
25	25	4
34	47	1
2	3	1
76	78	5
25	33	2
67	70	3
37	39	2
49	64	1
48	49	4
3	16	1
62	65	3
37	38	4
32	33	1
40	41	1
31	62	1
75	76	1
26	31	2
67	69	1
56	57	3
41	78	2
26	30	2
26	34	3
6	35	1
11	18	1
45	46	3
2	30	1
11	30	1
2	10	2
30	30	4
29	29	4
52	53	1
36	60	2
39	40	1
13	14	2
48	65	1
0	12	1
34	36	1
7	8	1
1	46	1
9	26	1
10	17	1
53	65	2
26	37	1
10	25	1
17	27	1
57	71	1
18	36	1
50	69	1
54	56	1
30	51	1
16	28	1
0	8	1
49	66	1
72	73	1
48	60	1
30	35	1
2	5	1
30	59	1
44	73	1
73	76	1
2	35	1
70	72	1
34	45	1
