39	73	1
41	41	17
231	231	18
169	171	4
44	45	10
69	219	4
34	34	7
21	21	9
39	39	24
195	212	1
36	36	27
23	36	2
218	218	21
220	228	2
26	26	41
5	5	31
224	224	14
34	36	1
103	103	11
104	104	6
83	100	4
20	50	2
149	149	9
3	3	17
176	176	19
98	124	1
144	220	3
138	138	9
11	15	3
130	130	9
199	199	8
1	2	2
173	173	11
208	208	9
2	177	1
46	46	19
187	187	16
103	105	5
48	48	16
104	105	6
82	82	6
149	201	3
77	77	12
83	83	15
96	97	6
74	74	17
147	147	9
9	9	22
51	53	5
27	27	26
125	125	8
38	38	41
70	70	16
68	68	12
29	54	2
35	36	11
73	73	26
96	101	1
142	142	13
192	192	9
210	210	18
184	184	9
34	35	11
179	179	20
67	107	2
2	2	11
241	242	5
176	216	3
175	175	23
31	67	2
234	234	11
57	68	2
157	158	1
164	164	5
84	84	13
85	85	29
240	240	16
48	50	3
197	197	17
214	215	10
148	148	8
183	196	2
174	175	3
77	78	9
163	163	9
0	177	3
213	213	12
191	201	1
180	186	4
23	23	16
183	192	7
208	224	3
4	116	8
67	67	11
169	170	4
123	123	8
152	204	3
180	180	5
151	151	8
203	203	18
98	100	3
88	88	14
128	128	23
22	34	5
134	134	22
143	143	6
168	168	12
51	51	4
211	211	2
96	96	6
165	165	11
13	14	8
85	86	2
3	15	2
169	169	14
217	218	9
166	166	6
212	213	8
80	139	1
65	65	16
53	53	14
156	156	12
177	177	23
62	63	2
140	140	10
193	195	8
170	170	10
182	183	4
4	4	13
79	79	17
124	129	4
55	70	2
214	216	4
18	18	13
37	39	2
6	227	3
42	42	35
230	230	11
144	144	14
179	180	4
38	44	3
57	57	12
13	16	11
191	191	11
26	55	3
132	132	3
30	30	22
110	110	2
81	82	5
106	106	30
217	217	10
201	201	23
154	154	7
190	190	11
99	100	2
25	25	17
10	64	2
45	45	25
238	238	13
10	10	24
103	156	2
148	167	3
143	154	4
103	157	2
120	121	2
163	165	6
52	53	2
226	229	2
28	28	20
76	76	19
20	20	34
102	102	19
168	175	1
19	186	5
4	8	1
61	61	14
21	104	2
198	220	2
71	71	13
226	226	4
141	142	2
105	105	16
137	137	15
136	136	16
205	206	6
46	147	1
4	227	1
163	208	4
170	176	2
117	117	7
233	233	18
170	221	2
236	237	6
29	58	5
186	186	13
156	186	4
64	65	10
120	120	7
59	60	20
169	218	1
16	17	20
33	37	1
233	235	3
120	122	12
3	114	3
126	155	1
43	43	28
130	186	7
8	8	20
164	196	3
50	51	11
75	95	2
15	16	14
189	190	3
204	206	1
52	52	13
133	133	5
78	80	3
162	176	2
192	219	3
76	79	1
174	174	12
59	59	16
49	66	1
54	54	19
158	159	7
159	161	3
228	230	1
68	77	4
13	13	10
35	35	16
64	64	21
239	239	8
37	38	9
237	237	19
116	120	6
175	176	3
198	234	2
4	7	2
219	219	17
145	145	4
58	58	6
1	7	4
11	11	25
209	210	4
109	109	8
171	171	5
29	31	4
215	215	8
101	175	1
53	54	2
101	101	13
199	200	2
172	173	1
165	166	3
167	169	3
209	209	11
75	75	14
17	17	27
148	151	5
214	214	2
220	220	6
84	85	5
228	229	2
75	76	3
195	195	6
47	47	31
32	33	5
119	119	14
9	15	1
7	8	4
218	235	6
189	214	3
62	62	24
150	191	4
151	175	2
136	138	2
115	117	4
188	189	8
13	17	3
242	242	9
228	231	3
60	60	17
149	214	3
203	204	5
107	115	5
31	32	6
113	114	6
157	188	1
4	6	9
99	99	6
163	184	3
15	15	17
99	125	3
81	81	7
86	88	2
100	100	18
154	157	1
12	12	22
14	14	7
29	29	16
113	113	7
118	118	5
21	88	4
131	134	3
198	201	2
232	232	10
66	66	6
84	95	4
234	235	5
37	37	5
228	228	3
157	157	4
223	230	6
198	198	8
95	108	2
241	241	4
12	18	1
99	103	1
145	146	3
238	239	1
22	22	18
185	187	12
168	170	3
80	80	12
103	104	5
33	33	26
58	69	3
64	74	3
116	126	6
83	108	2
227	227	10
186	187	6
15	17	5
45	70	2
144	145	3
197	198	10
10	47	2
114	114	9
35	41	1
125	133	3
201	218	2
63	63	9
222	223	3
135	183	3
72	72	10
130	162	1
121	121	14
168	169	9
56	57	6
48	49	2
129	130	17
11	33	5
141	141	4
113	115	1
196	196	12
45	46	6
30	31	5
97	97	8
69	69	15
101	102	3
26	43	5
43	45	2
31	33	4
37	70	2
155	158	1
63	64	5
57	58	1
23	33	2
0	0	16
3	9	4
161	171	5
210	211	4
184	187	1
40	40	18
123	135	1
206	206	15
33	34	1
187	188	3
1	1	18
184	186	1
51	60	3
44	44	9
124	125	3
36	64	1
82	83	3
65	75	1
70	74	1
183	184	2
18	20	6
32	32	8
49	49	26
223	223	9
126	127	4
119	120	4
152	152	3
65	66	5
46	134	2
23	32	4
78	79	5
219	230	3
48	101	4
20	21	9
0	29	1
206	208	1
28	32	6
121	122	5
148	149	4
18	30	2
27	64	1
162	162	3
56	56	10
229	230	2
40	41	3
54	162	2
123	126	2
205	205	9
185	185	7
115	123	3
86	86	12
114	116	4
16	16	12
9	45	1
25	62	2
101	189	4
46	62	2
9	62	2
30	76	2
81	84	3
37	197	4
21	23	7
115	115	10
100	113	4
199	210	4
111	112	1
0	18	5
14	15	8
57	59	5
84	106	3
176	177	9
22	23	9
151	152	6
159	159	6
2	3	6
79	80	1
26	45	1
11	20	3
144	146	3
5	176	2
24	24	24
164	165	2
204	204	17
54	175	3
150	152	5
9	122	1
25	26	8
122	124	2
27	28	12
235	235	9
99	151	1
100	101	5
44	224	1
178	178	8
89	89	4
215	218	3
109	114	2
147	149	4
10	23	2
11	154	2
55	55	11
4	5	1
121	134	1
33	36	2
85	121	3
19	19	4
174	205	1
38	43	2
111	111	2
74	75	1
222	222	5
105	106	5
190	226	7
139	139	4
171	173	1
212	212	12
40	58	2
11	26	2
186	188	3
63	65	2
192	193	7
216	216	2
183	183	2
58	149	1
83	84	3
7	7	10
17	57	1
108	108	3
153	159	2
188	188	9
44	46	3
154	155	4
49	57	3
191	209	1
9	48	2
132	133	1
51	52	1
153	153	11
12	22	5
60	62	2
153	156	1
11	12	5
100	234	2
36	37	2
79	129	3
183	208	2
221	223	3
122	122	3
172	174	1
99	127	1
7	91	1
158	158	6
229	229	6
23	24	8
25	28	1
53	175	5
29	30	5
11	22	3
218	234	1
201	202	9
171	216	5
173	174	2
181	182	3
160	160	9
120	172	1
151	153	1
70	75	4
130	133	3
201	223	2
193	193	7
167	236	3
101	196	3
55	72	3
8	189	3
36	54	3
68	69	2
202	202	12
25	43	1
50	63	5
159	166	2
26	27	3
102	107	1
99	238	1
161	161	12
220	223	1
74	236	2
143	144	3
232	236	2
207	208	3
162	177	1
65	106	1
233	234	3
109	121	1
61	178	4
0	6	6
66	67	3
236	236	7
59	68	3
197	220	5
0	14	2
221	221	6
49	50	8
15	20	1
32	68	2
165	192	4
24	25	6
5	57	1
225	225	8
31	31	10
200	213	4
211	225	3
137	138	4
13	21	4
182	182	8
226	227	6
78	78	5
195	199	2
165	172	2
208	209	1
146	146	3
28	46	2
125	126	2
46	47	3
182	203	1
48	52	3
51	139	1
2	193	1
167	168	2
155	157	2
220	221	9
5	18	1
206	207	4
173	175	1
147	156	1
122	123	2
147	148	2
37	63	4
7	14	1
99	104	4
78	109	3
197	202	1
73	85	4
142	159	2
50	50	3
189	226	2
99	101	2
67	68	1
96	106	2
171	177	3
20	229	1
95	95	3
150	196	2
21	22	2
136	137	2
121	153	1
134	162	2
27	43	3
7	51	2
27	44	1
230	231	1
46	72	1
135	135	4
19	20	3
155	155	2
56	60	2
131	133	2
54	154	3
106	107	2
14	17	4
219	227	1
154	162	3
235	237	4
239	240	4
229	231	2
43	44	3
18	49	2
26	44	2
189	204	4
165	185	1
141	166	1
8	51	1
101	153	2
153	155	4
1	8	3
80	108	3
17	30	1
0	12	2
30	32	4
196	197	3
76	77	1
139	238	3
55	56	1
10	100	1
26	42	4
179	206	4
194	194	4
39	41	1
118	125	1
177	178	2
182	198	4
167	167	3
42	44	2
123	124	1
37	76	3
130	236	1
153	154	2
103	113	2
19	23	2
158	168	3
187	220	2
107	107	3
1	181	1
6	6	13
151	156	1
146	147	4
67	79	1
128	143	1
75	81	1
80	82	3
30	70	1
102	172	2
75	77	3
147	152	2
136	143	1
101	160	2
181	187	2
161	175	2
117	118	1
163	175	2
17	20	3
216	218	3
165	173	1
1	18	1
175	206	1
102	108	3
162	163	2
9	21	1
65	67	5
150	150	10
226	231	1
11	143	1
136	162	1
8	22	3
191	192	1
69	70	2
20	56	2
209	212	1
31	58	1
181	181	6
225	226	2
5	9	1
62	149	3
190	191	2
16	67	1
45	54	3
10	11	3
6	95	1
129	129	1
80	81	1
58	79	1
148	205	1
127	128	1
195	196	3
99	154	3
194	195	6
211	212	4
151	154	1
19	29	1
126	126	5
15	36	2
124	124	6
112	236	2
207	207	4
11	21	3
71	72	1
170	217	1
39	199	1
101	124	2
38	69	1
103	109	1
8	60	1
114	192	1
14	16	1
38	56	1
28	85	1
173	180	4
109	110	1
221	222	2
232	233	1
172	172	1
61	79	3
181	195	1
23	68	1
86	236	4
211	213	3
30	67	1
159	160	4
192	200	5
45	114	1
42	46	3
162	178	2
98	99	1
40	207	1
55	58	3
9	10	2
164	170	3
170	210	2
170	212	1
16	18	1
200	200	4
18	23	1
75	86	2
6	16	2
136	150	2
44	174	1
2	4	1
0	1	6
28	29	1
98	125	3
0	20	4
185	188	1
0	32	2
73	74	3
58	61	3
138	139	1
32	38	2
166	168	1
31	34	1
52	60	3
80	107	2
66	73	2
179	204	3
146	148	1
13	57	1
24	99	1
213	214	6
104	115	1
112	112	1
236	238	3
136	153	1
55	68	1
160	161	2
84	100	1
35	37	1
84	105	1
137	146	3
62	114	1
48	51	1
72	144	3
10	46	1
51	69	1
24	48	3
86	106	2
107	116	1
218	223	1
120	153	2
162	181	1
147	165	1
211	216	2
69	75	1
183	230	2
111	131	1
137	143	1
199	217	1
52	54	1
139	141	1
116	116	1
147	168	1
141	155	3
88	95	1
15	30	1
5	13	1
100	123	2
28	62	1
3	7	1
66	68	3
140	148	1
73	101	1
70	87	1
13	19	1
213	216	1
156	157	2
177	198	2
6	36	1
139	140	3
31	59	1
69	85	1
123	158	1
5	6	3
4	62	1
150	160	1
193	194	1
162	182	3
82	84	2
45	47	1
20	28	2
6	7	1
13	15	1
180	204	2
172	201	1
224	225	3
219	224	1
11	58	1
7	60	2
0	2	1
95	96	4
46	70	2
79	100	1
83	99	1
31	78	2
185	186	1
49	51	1
200	218	1
98	112	1
53	70	1
180	181	1
185	192	1
8	50	1
155	156	2
107	108	1
50	77	1
208	214	1
14	30	1
211	221	1
188	228	1
73	86	1
52	153	2
15	32	2
1	41	1
140	142	1
157	190	1
165	175	1
75	84	1
181	189	1
25	46	1
210	221	1
161	190	1
172	185	1
4	35	1
46	61	1
144	154	1
180	188	1
46	143	1
100	119	1
216	217	1
23	25	1
132	134	1
163	166	1
192	214	1
41	142	1
