25	26	11
68	68	11
83	83	14
78	78	22
6	6	8
5	6	14
46	47	1
123	123	32
3	9	6
101	108	1
42	42	17
137	137	11
16	16	34
107	107	14
44	45	4
96	96	23
81	83	7
128	128	10
38	39	11
63	63	16
17	17	38
134	134	17
23	30	4
32	33	12
121	126	2
49	52	3
81	81	9
103	104	3
73	73	8
109	134	4
55	55	5
54	54	5
29	30	4
26	26	5
71	71	21
44	44	14
14	15	5
133	133	30
53	53	44
86	86	10
57	57	11
35	35	27
122	123	5
2	17	2
121	149	5
126	128	3
37	39	3
83	94	4
65	65	9
96	97	4
76	76	31
77	78	7
84	84	14
16	79	1
22	23	5
124	124	7
85	88	1
121	121	9
14	14	15
64	75	5
65	98	3
95	98	7
78	79	7
11	11	9
53	54	15
32	34	6
123	126	4
24	24	24
53	56	6
16	17	3
30	30	7
74	74	8
13	13	41
125	125	19
93	93	13
43	87	6
113	113	2
56	56	13
138	144	1
66	66	18
129	130	2
16	23	8
130	137	1
41	41	24
139	139	10
10	10	15
109	109	10
36	36	17
125	129	1
110	110	8
23	24	2
95	99	2
23	23	14
87	91	7
34	34	20
10	11	7
117	118	3
48	48	32
146	146	11
16	19	6
114	114	3
65	66	3
130	130	21
75	78	2
90	93	3
34	35	5
27	27	7
85	85	8
66	85	3
130	133	3
21	22	21
142	142	10
50	51	7
24	28	3
31	31	17
5	5	19
12	12	15
67	67	14
15	30	2
49	49	16
138	138	9
83	84	9
148	148	8
6	10	2
18	18	10
118	119	4
46	46	24
65	74	2
17	20	3
132	133	4
8	8	14
98	103	2
141	141	17
21	21	7
25	25	5
98	98	4
76	80	2
100	100	28
64	65	5
109	110	7
112	119	6
57	58	3
47	47	49
19	19	14
145	147	4
74	76	1
138	139	7
98	100	3
128	129	6
51	57	2
7	7	9
77	77	10
40	40	17
33	34	2
94	94	4
39	39	28
13	17	3
118	120	1
147	147	8
98	99	1
12	18	3
80	81	8
11	12	8
22	22	32
87	94	2
37	37	8
69	69	11
36	69	2
108	108	19
152	153	8
133	134	5
122	122	5
107	131	4
87	88	6
154	154	7
9	9	19
131	132	7
135	135	6
144	145	2
150	150	3
72	89	2
87	87	13
138	142	2
82	83	6
137	138	2
79	83	1
79	79	9
38	38	9
100	102	3
26	27	11
153	153	11
65	67	2
150	151	4
102	102	7
136	136	18
96	99	2
149	149	11
29	29	11
88	88	1
95	95	8
20	21	12
51	51	12
11	16	5
54	56	1
145	145	10
91	96	2
62	62	9
3	48	3
95	96	5
115	116	3
111	112	4
43	43	11
97	97	18
113	114	2
21	23	1
27	28	12
120	121	5
39	92	1
4	11	1
45	46	8
92	94	1
101	101	1
131	131	16
119	125	1
10	12	7
3	3	2
107	114	2
37	38	6
84	85	5
20	67	1
7	8	2
132	132	7
8	9	10
23	39	1
55	56	8
52	84	1
104	105	8
94	97	6
78	85	2
106	106	7
117	117	14
13	14	5
2	12	1
31	32	5
13	15	12
32	32	9
29	113	6
64	64	9
144	144	13
82	82	12
68	92	2
64	67	2
151	151	5
28	29	11
36	37	4
66	68	1
50	55	3
103	103	5
123	130	2
115	115	8
116	116	3
70	70	4
77	79	3
75	76	4
5	7	5
62	93	4
124	127	5
97	99	2
127	128	6
101	113	2
97	98	10
130	136	4
75	75	4
85	86	3
106	107	5
124	128	3
54	55	7
88	90	2
108	130	2
66	86	1
81	82	5
39	41	1
46	53	2
56	85	3
105	106	4
102	103	5
49	50	3
100	133	1
94	95	3
113	117	2
50	50	5
142	143	6
15	15	7
72	72	5
123	125	3
6	7	5
65	76	1
66	67	4
74	75	5
51	58	3
46	79	2
12	15	1
12	13	5
15	29	3
122	128	3
99	99	11
34	36	2
49	55	4
92	92	2
126	126	7
136	138	2
16	20	5
39	40	5
137	146	1
69	77	2
101	103	2
37	91	1
65	68	5
99	104	2
75	77	2
33	33	12
84	87	2
107	133	1
118	118	3
4	10	3
109	114	1
25	29	3
30	31	3
10	16	3
63	64	6
119	121	3
65	77	2
121	122	5
146	148	5
80	80	10
127	127	4
64	98	2
108	112	1
71	72	3
2	11	3
110	113	4
129	142	3
11	15	1
129	129	12
3	10	3
103	105	2
127	130	1
90	91	1
40	70	3
133	135	4
40	41	3
78	95	1
140	141	4
23	37	2
41	43	4
48	106	1
125	126	2
92	95	3
145	148	1
28	28	3
124	125	1
131	134	3
111	111	2
42	73	1
125	127	3
8	20	1
45	45	7
2	9	3
140	143	6
130	131	3
67	87	1
23	34	4
42	78	3
140	140	8
89	92	2
42	43	8
95	97	7
111	115	7
135	136	1
99	100	1
147	148	3
24	25	2
3	4	5
116	117	2
13	88	2
43	44	6
137	150	1
108	111	1
66	74	1
76	77	1
109	113	6
91	92	2
132	134	1
86	87	5
131	133	1
26	29	3
102	108	5
120	120	4
22	24	2
109	111	1
152	154	2
121	146	2
20	22	1
9	67	2
20	20	8
16	30	3
73	74	2
100	101	1
69	72	2
143	143	3
112	112	5
101	102	4
77	82	1
82	86	1
108	114	1
17	18	6
105	105	7
50	53	2
110	111	3
15	16	4
47	48	5
48	105	2
16	18	1
102	106	3
143	145	2
76	93	3
135	138	3
53	55	3
120	122	1
67	85	4
16	29	5
112	113	1
23	33	1
138	150	1
41	76	2
6	8	2
41	42	4
52	85	1
106	109	1
35	52	1
41	47	2
30	32	2
72	73	1
36	38	4
66	98	3
31	100	3
62	63	1
9	17	1
108	109	4
95	104	2
76	82	1
84	90	3
9	10	1
10	81	5
102	105	1
112	127	1
100	109	1
75	96	1
26	30	1
119	119	1
146	147	3
21	25	1
47	104	2
79	92	1
39	50	2
24	32	2
137	140	2
50	71	2
41	46	1
26	28	2
21	33	1
125	128	1
78	92	1
121	130	2
48	49	3
123	124	2
47	98	1
111	124	2
52	55	1
8	10	1
18	19	5
84	86	3
141	142	2
7	9	2
100	107	2
90	96	1
92	93	2
136	137	2
107	134	1
71	73	1
122	129	1
38	52	1
125	149	1
8	48	1
109	115	2
57	89	2
52	57	1
24	27	1
119	149	2
122	134	1
91	91	2
35	37	3
101	110	5
23	26	1
20	36	2
109	116	1
16	38	1
111	128	1
120	130	1
75	97	1
152	152	3
51	52	2
77	93	1
63	98	1
93	95	1
22	30	1
118	134	1
87	92	1
28	110	1
11	17	2
68	85	1
39	68	1
2	2	2
63	65	1
23	36	1
44	46	2
69	70	1
83	86	1
79	80	1
136	139	1
108	110	1
123	127	1
121	125	1
61	63	1
13	80	1
110	112	1
76	78	1
8	47	1
23	31	1
38	92	1
65	72	1
