69	69	21
26	26	20
29	29	7
50	51	1
0	2	4
72	72	6
50	50	20
23	25	1
47	47	5
14	15	2
65	65	13
59	59	13
81	81	18
56	56	14
13	15	3
87	87	17
60	60	10
4	5	2
52	52	5
51	51	12
2	11	5
50	66	4
63	64	9
5	5	12
16	16	1
70	70	12
32	34	2
15	15	13
57	57	16
25	25	8
7	8	12
11	11	12
76	76	8
19	19	7
68	68	8
65	66	5
23	23	10
48	48	7
74	74	11
24	24	20
29	68	1
70	74	3
46	47	7
89	89	15
53	54	4
17	20	5
58	58	10
80	81	3
47	60	5
2	89	7
1	1	12
12	12	8
31	31	5
53	53	12
27	27	11
47	49	6
71	71	4
76	79	3
5	6	10
59	60	8
61	62	5
46	48	2
64	64	9
7	7	2
6	7	15
82	83	5
90	90	6
30	30	21
28	67	4
75	80	5
1	2	6
67	67	29
83	83	2
72	75	2
75	75	6
82	82	7
26	27	7
75	77	2
75	85	2
16	17	1
79	79	6
0	0	14
9	9	9
78	78	11
6	6	14
81	82	2
6	8	8
3	3	14
66	66	8
49	49	12
15	16	1
72	74	3
20	20	5
51	52	4
77	77	11
54	75	7
10	10	4
8	33	1
72	73	3
79	80	4
22	22	9
10	11	1
71	75	1
53	56	6
10	33	2
88	88	5
21	21	5
85	85	8
73	73	16
71	73	8
22	23	4
3	31	1
80	80	13
20	21	1
8	8	10
4	4	11
12	13	2
4	22	4
71	72	1
58	62	9
63	63	13
72	80	2
25	26	7
24	25	2
17	17	13
13	13	6
13	17	2
19	20	7
62	64	3
18	19	1
13	19	8
54	56	1
54	61	2
11	34	2
20	22	2
59	63	2
21	22	3
46	46	6
78	82	4
48	50	3
67	89	2
57	58	1
53	61	1
10	12	3
16	18	1
59	62	5
56	57	5
55	55	4
64	65	2
77	80	2
5	23	2
78	79	3
8	10	2
60	61	2
55	56	3
2	2	3
62	62	4
54	54	2
3	4	4
74	75	5
34	34	3
84	84	1
35	35	2
4	30	2
47	48	6
28	28	5
62	63	1
9	10	4
47	52	1
14	14	1
61	61	2
11	14	1
86	86	4
30	31	2
56	60	2
61	80	1
77	79	2
23	24	1
4	24	1
56	73	4
46	50	3
77	78	3
67	68	2
54	72	2
25	27	1
59	77	1
31	33	3
35	46	2
76	77	4
5	8	1
7	20	1
17	18	2
89	90	1
79	84	4
53	58	1
61	66	2
68	69	4
58	60	1
60	62	1
34	46	1
70	86	2
11	20	1
61	73	1
48	49	2
5	9	1
46	52	2
11	16	1
62	78	2
3	79	2
84	85	1
9	19	1
51	66	2
54	55	1
47	51	1
28	30	1
87	88	1
