162	162	5
160	160	3
211	211	12
23	23	12
53	53	2
231	231	10
7	7	8
42	42	4
63	69	2
170	229	3
0	0	5
111	111	4
67	67	10
102	102	9
236	236	8
52	159	1
227	227	9
208	209	4
201	201	7
51	51	6
15	16	3
229	231	3
81	84	5
62	62	5
168	176	2
147	151	4
101	136	3
150	224	4
7	209	1
15	32	5
128	128	5
138	138	2
116	125	2
25	25	6
33	33	9
95	114	2
134	135	3
114	118	2
172	172	4
58	58	12
98	101	2
29	29	5
74	111	5
148	148	1
207	235	5
239	239	5
227	231	5
129	129	1
235	235	10
184	187	4
1	1	9
61	62	1
5	5	5
220	221	1
188	188	7
180	182	6
1	36	3
198	198	3
165	166	2
13	15	2
48	48	2
12	22	5
173	175	3
175	175	2
109	109	6
20	33	2
79	80	6
78	78	2
231	232	6
57	62	2
139	139	3
60	100	3
43	43	4
75	75	2
7	34	2
99	99	3
72	72	5
95	106	3
75	82	3
211	213	4
146	146	8
25	28	2
176	176	5
104	126	3
49	58	1
83	84	6
171	171	6
105	105	7
241	241	2
58	60	2
181	205	3
228	228	17
2	31	4
49	49	4
108	109	3
115	115	7
78	80	3
11	11	5
17	34	6
159	161	4
146	182	5
32	32	6
147	152	4
83	83	6
39	39	11
26	26	1
118	132	6
180	180	11
234	234	11
42	43	7
144	147	5
74	74	10
161	161	3
63	63	4
54	55	1
80	80	8
39	48	2
187	187	1
55	55	1
31	32	4
146	151	1
158	160	5
104	104	7
62	63	5
47	47	5
24	25	6
85	85	9
207	217	1
26	230	1
98	98	1
118	118	4
40	40	8
113	113	6
166	166	5
101	106	1
142	143	3
126	126	7
48	50	4
0	2	3
233	240	3
158	161	2
8	218	3
70	70	8
184	216	3
130	130	2
3	5	2
204	205	6
0	1	3
204	207	8
64	65	5
178	178	5
13	13	6
154	154	6
232	233	6
19	19	2
9	9	12
19	32	4
206	214	4
14	88	2
66	66	4
54	54	5
150	152	2
52	52	9
100	100	2
45	47	2
149	149	6
76	76	2
152	152	3
4	6	1
6	16	2
153	154	5
134	134	9
190	191	6
15	18	7
140	140	1
169	216	4
126	140	2
56	56	5
158	162	4
44	47	1
31	31	10
2	18	3
101	101	10
47	48	1
22	22	5
189	189	1
3	3	7
75	76	5
75	77	3
166	167	1
165	165	6
86	86	3
173	173	10
38	38	5
151	151	7
21	21	4
96	97	4
28	42	3
66	67	12
10	10	3
219	219	4
238	238	2
175	176	6
71	73	5
81	81	18
104	113	3
173	174	4
186	186	1
44	44	5
188	189	4
69	69	8
125	127	3
116	116	1
45	70	2
123	124	1
57	57	6
8	8	8
16	18	3
145	145	5
116	118	1
104	123	7
167	167	4
10	23	2
159	159	7
187	221	3
136	136	7
41	85	2
65	65	12
118	127	4
78	79	3
77	78	1
18	18	4
214	214	2
145	160	3
179	179	1
100	101	3
179	198	2
43	85	5
13	116	3
241	242	1
63	64	4
170	218	4
97	97	5
157	157	9
130	136	1
6	21	4
176	177	3
82	82	1
46	48	1
45	45	10
27	27	8
209	209	2
129	137	4
181	182	2
167	168	3
14	15	6
224	225	3
26	70	4
21	22	2
86	228	2
5	6	3
196	197	2
135	135	4
225	225	5
44	53	2
35	49	2
10	25	3
116	127	5
18	83	3
209	221	3
226	226	5
123	168	3
71	71	3
59	59	7
202	202	3
64	66	4
9	24	1
177	216	1
107	107	10
24	24	2
20	20	4
204	204	1
155	155	1
153	156	2
12	12	9
222	223	2
185	186	7
122	169	2
60	60	6
118	125	3
102	130	2
128	135	8
194	195	1
147	148	5
68	69	6
119	120	5
77	77	5
91	102	1
236	238	3
240	240	2
119	119	5
99	100	4
169	169	2
200	200	1
233	233	5
156	156	1
173	211	1
17	36	4
197	197	2
205	207	3
217	218	6
225	226	3
115	133	3
205	218	5
84	237	5
143	182	1
164	165	3
184	185	5
121	121	8
46	46	3
147	150	5
202	221	1
210	211	5
15	15	3
169	175	5
0	11	3
7	8	4
73	73	4
75	121	3
69	70	2
0	3	2
65	66	3
84	84	4
3	208	4
88	88	2
3	30	2
203	203	2
215	215	5
12	13	1
36	88	5
34	34	5
208	208	4
133	135	1
148	149	9
62	67	2
36	38	1
53	55	5
85	86	4
134	142	3
79	79	8
148	150	3
184	186	2
207	234	2
162	164	1
140	148	1
229	229	1
50	51	1
74	135	1
122	122	6
181	181	9
144	144	4
240	241	1
16	22	4
202	203	1
140	143	6
33	52	2
155	156	2
174	174	5
103	105	2
193	194	3
194	194	1
29	30	4
237	237	1
9	175	2
226	227	1
137	137	6
184	184	1
196	196	3
31	33	4
61	61	3
17	31	6
145	165	2
32	33	4
153	158	2
199	199	1
183	183	4
6	6	2
117	117	2
141	141	1
0	17	1
85	88	1
150	151	4
49	51	2
140	142	1
72	146	2
99	118	1
33	34	3
226	231	3
242	242	6
199	200	1
30	31	3
106	106	4
14	14	3
181	214	3
223	224	3
99	101	1
179	224	2
13	31	5
80	89	1
16	20	2
3	220	2
150	150	2
195	196	1
30	30	8
170	208	1
167	169	1
0	219	2
73	233	5
177	177	3
39	42	2
193	193	4
98	105	1
187	213	2
210	210	7
186	216	2
164	195	1
120	128	2
166	188	2
41	77	1
197	198	1
64	64	9
20	31	2
7	210	1
221	221	1
133	134	3
212	212	3
238	239	1
44	45	4
64	71	1
202	232	2
133	149	1
171	180	1
74	75	1
59	99	1
88	89	1
127	127	2
133	133	1
131	135	3
12	14	1
138	142	3
26	28	1
71	88	3
47	156	1
210	212	1
147	147	1
76	77	2
14	16	1
209	230	3
2	218	1
139	140	1
123	167	2
185	189	2
105	107	4
178	184	1
6	17	2
140	141	1
179	180	1
68	151	3
113	122	2
67	68	3
136	137	3
142	226	2
4	5	1
181	218	1
105	118	1
113	114	1
58	59	2
153	198	1
7	218	2
203	236	1
191	197	3
28	69	1
53	77	2
99	119	1
184	204	1
18	21	1
120	120	5
198	200	1
233	236	1
143	146	1
95	115	3
4	7	1
173	190	2
33	50	1
3	7	1
190	201	1
220	220	2
121	122	2
72	225	3
187	188	2
131	132	1
141	227	3
169	217	1
183	187	1
150	166	1
60	88	1
57	58	2
119	122	1
104	132	1
57	61	1
104	127	2
198	199	1
128	130	2
152	221	1
54	79	2
3	6	1
143	150	1
228	229	1
45	106	2
14	29	1
81	106	1
144	145	1
104	125	1
143	148	1
142	142	1
1	17	1
30	33	1
18	23	1
73	86	2
17	30	2
230	230	1
61	160	1
68	68	2
160	161	2
18	20	1
37	37	2
50	50	1
206	206	2
146	147	1
205	206	1
144	148	1
25	73	1
4	4	2
157	158	1
35	35	2
178	185	2
13	14	1
129	130	1
171	234	1
22	23	2
112	112	1
