12	12	12
119	119	9
35	79	3
44	46	1
96	97	4
72	72	18
63	64	5
9	9	17
101	101	11
22	35	1
67	67	7
6	6	7
102	123	2
40	40	2
2	2	9
89	89	5
26	26	10
94	96	2
104	105	3
97	98	9
130	131	8
117	117	5
27	28	3
27	30	3
84	86	3
73	75	3
106	106	2
81	81	4
41	44	2
18	19	1
31	36	3
100	101	5
124	124	11
130	130	9
29	29	16
39	40	4
20	21	3
33	33	5
96	96	8
98	99	5
113	113	9
30	39	4
5	6	3
86	94	2
5	5	9
66	83	4
86	88	1
78	81	5
31	31	13
11	45	2
97	97	5
35	35	5
126	126	9
15	32	9
132	134	5
125	125	5
57	57	11
28	28	5
47	47	16
3	3	6
32	33	5
60	60	4
79	80	6
46	46	10
36	36	9
98	98	7
19	69	3
22	25	2
85	85	5
78	80	7
10	10	5
11	92	3
74	74	8
14	14	12
68	68	17
79	79	25
107	107	7
25	25	6
24	26	2
110	110	11
90	92	1
128	128	8
74	75	5
5	48	3
26	27	7
4	5	16
123	125	2
79	83	1
38	40	5
114	114	7
28	78	5
111	111	15
23	23	1
42	42	10
107	122	2
58	58	7
62	62	4
132	132	4
30	30	1
37	37	9
89	93	1
88	127	3
94	94	12
62	75	2
1	1	2
17	17	8
76	76	15
127	129	3
26	41	1
105	107	4
18	18	9
25	47	4
61	61	12
106	107	6
131	132	1
11	11	12
34	34	15
67	73	2
68	69	3
25	93	3
1	2	3
123	123	7
119	124	1
45	45	11
56	57	6
66	66	18
81	84	1
88	94	7
75	76	7
10	11	3
9	10	8
33	34	6
13	49	1
41	41	8
9	12	1
122	122	3
112	116	2
87	87	2
116	132	2
7	11	4
128	130	4
88	88	4
108	108	9
46	47	7
48	48	3
104	104	7
43	94	5
22	30	1
7	8	2
4	4	3
92	92	7
93	93	5
10	17	5
108	110	7
73	73	7
126	134	6
70	70	4
120	122	3
23	25	4
86	86	4
19	19	6
21	22	3
95	95	9
37	38	3
24	24	3
80	80	7
95	98	2
13	13	3
85	87	1
35	36	5
44	44	11
59	60	6
120	120	4
21	81	5
73	74	6
70	71	9
112	112	2
91	91	8
82	82	5
116	116	3
122	123	2
15	16	1
96	107	2
100	100	6
6	7	2
34	35	2
41	43	3
78	78	8
36	81	5
83	98	1
69	69	8
62	74	3
7	7	2
72	73	2
62	63	4
77	77	8
94	100	2
102	103	1
90	98	2
90	90	9
42	43	4
119	122	5
99	99	3
5	32	5
98	100	3
27	93	2
17	43	2
121	121	3
79	81	3
26	48	2
100	106	1
65	93	1
47	87	1
106	110	1
95	101	3
65	65	8
39	42	2
75	75	4
29	30	3
85	86	3
102	102	4
119	120	2
128	129	1
26	40	1
0	0	2
14	15	1
44	72	5
23	24	2
43	43	4
98	132	2
96	131	2
115	116	2
105	105	1
89	97	3
62	66	2
113	114	5
16	16	4
40	42	1
48	49	1
29	48	3
91	96	6
109	109	2
27	27	7
129	129	2
71	72	3
44	45	2
8	8	5
21	21	2
102	106	2
18	30	2
13	15	2
95	96	2
47	48	1
131	131	4
115	115	10
38	39	3
45	73	4
132	133	4
82	83	3
25	104	1
43	44	5
20	90	1
16	17	1
15	15	2
38	38	3
32	32	7
63	63	3
99	100	3
93	114	1
2	9	2
118	118	6
124	126	1
131	133	3
46	61	1
127	128	4
37	43	1
19	38	2
27	48	2
114	115	1
59	59	2
20	20	5
96	113	1
6	8	1
58	59	5
124	125	2
19	83	4
25	26	3
9	14	1
133	133	1
85	91	1
83	83	3
61	62	1
22	22	1
27	79	2
48	57	2
112	117	1
64	64	1
15	31	1
76	77	1
111	112	1
94	101	2
26	29	3
84	88	1
4	101	1
34	80	3
20	25	1
96	115	1
1	12	1
26	93	2
85	95	1
34	36	1
95	100	2
134	134	3
86	91	2
11	12	3
11	93	1
28	31	1
28	102	1
102	112	2
124	127	1
54	54	1
45	46	1
19	20	1
89	90	1
6	126	1
129	130	1
123	124	1
71	71	1
133	134	2
21	55	3
81	83	1
87	90	1
28	79	1
71	119	1
10	21	1
84	84	1
21	43	1
21	27	1
111	117	1
56	58	1
13	16	1
4	6	1
81	82	2
29	32	1
30	47	1
117	118	2
126	127	1
