12	12	6
26	27	4
9	9	10
114	114	4
5	6	4
0	0	10
26	26	10
33	33	12
7	7	12
29	29	4
29	30	5
8	8	10
133	133	3
123	124	4
5	60	2
77	77	13
69	121	3
29	31	5
68	68	8
29	32	8
58	58	5
63	70	3
29	49	2
66	83	1
11	112	3
46	70	4
16	16	6
86	86	2
72	107	1
21	85	1
30	42	2
2	8	1
101	107	1
38	81	3
113	113	2
47	80	2
82	82	3
47	48	1
88	88	7
24	79	2
12	17	6
111	133	2
65	65	7
35	43	7
13	13	7
38	55	2
67	67	7
18	44	1
9	12	7
105	105	11
21	81	5
95	97	1
11	41	2
26	47	1
122	130	1
20	20	5
19	19	6
75	75	9
50	50	2
17	17	8
123	129	2
89	94	2
90	91	5
30	33	1
27	92	1
124	124	5
121	122	2
30	30	3
4	5	4
9	44	2
90	90	11
96	96	6
29	66	1
15	15	6
44	46	1
23	23	4
46	46	7
10	10	14
40	41	3
64	64	5
108	116	3
70	70	7
107	108	2
90	98	2
111	129	1
62	62	5
34	45	2
75	76	3
94	95	3
16	22	1
83	83	7
66	66	4
108	109	1
126	126	2
58	60	4
118	124	4
82	83	1
74	74	8
72	72	6
4	4	7
125	126	2
78	79	1
89	92	4
91	91	18
41	41	5
93	93	4
99	99	12
127	127	1
76	76	1
19	112	1
100	100	19
47	77	3
69	69	12
128	128	5
12	59	2
45	64	4
18	18	4
27	28	4
11	45	3
37	37	8
99	103	2
84	85	2
28	28	8
42	42	4
25	26	5
25	25	14
83	93	3
91	92	5
80	81	8
43	43	4
79	79	6
3	3	4
131	131	2
29	48	3
2	101	5
96	98	1
117	126	1
49	99	2
47	47	9
73	101	2
17	20	1
37	40	2
67	122	2
68	69	4
79	84	1
59	59	11
85	85	10
106	106	2
38	39	4
129	129	3
47	124	3
11	44	2
61	75	1
79	81	1
80	80	8
27	45	5
60	60	16
63	71	4
63	63	8
26	100	1
26	93	2
22	36	1
9	43	2
58	59	6
35	35	9
35	75	1
108	108	1
45	63	1
55	55	4
9	22	3
61	61	4
73	73	15
92	93	4
34	34	6
124	125	1
98	98	11
20	24	1
5	5	8
77	108	1
11	11	6
14	26	3
37	38	3
1	1	6
45	76	8
31	31	8
81	81	12
97	102	1
45	46	3
31	74	1
40	40	3
32	32	3
117	120	2
30	41	2
24	24	6
42	46	2
61	77	1
28	91	1
88	92	1
88	95	2
47	101	1
57	57	4
62	95	1
30	36	1
88	97	2
130	130	2
61	62	1
94	94	9
15	19	1
97	97	5
102	102	2
44	44	1
71	71	3
87	88	2
132	133	6
117	117	2
56	56	6
112	115	3
17	74	1
122	122	5
46	47	6
27	27	7
37	39	2
39	40	1
36	38	5
96	99	1
81	84	3
45	113	1
6	6	7
36	36	1
45	45	11
7	25	2
24	25	1
79	108	5
20	36	2
45	62	1
95	95	4
127	133	2
41	42	3
30	31	3
16	17	2
132	132	2
28	29	2
64	68	3
90	101	2
11	32	2
1	2	2
61	83	2
102	103	4
49	78	1
9	10	3
126	127	1
24	26	4
23	35	2
134	134	1
59	69	3
31	32	1
111	111	1
37	43	3
113	114	3
43	78	2
46	62	1
28	79	2
6	8	1
14	14	8
3	94	3
28	34	2
19	22	1
78	78	1
118	119	3
97	98	4
101	101	4
28	36	1
11	93	1
14	17	2
12	62	1
128	132	4
10	17	1
89	93	2
109	109	2
9	25	2
17	67	1
127	128	1
71	86	1
60	120	1
99	100	2
11	21	1
7	10	2
107	107	1
110	112	2
3	6	2
59	83	2
80	130	1
34	35	4
73	78	2
39	39	2
11	26	2
22	23	2
86	93	1
0	1	1
59	60	1
23	24	1
8	14	2
8	41	1
19	45	2
71	72	1
120	120	2
38	77	2
100	101	4
125	125	1
118	118	1
25	28	1
28	57	2
7	93	1
21	21	2
81	87	1
112	113	2
94	101	3
121	121	2
40	82	1
22	44	1
88	90	1
93	98	1
27	84	1
29	78	1
27	34	1
44	45	1
36	68	1
89	89	2
31	42	1
103	107	1
110	110	1
86	102	1
20	85	1
32	79	1
63	120	2
25	32	1
45	71	2
120	121	1
38	41	1
40	84	1
29	37	1
92	92	1
27	90	1
127	132	2
119	120	1
57	61	1
12	14	1
32	35	2
27	79	1
8	66	1
81	110	1
3	4	1
15	16	3
49	89	1
24	73	1
82	113	1
67	68	1
90	100	1
11	27	1
78	109	1
