38	38	22
24	25	8
147	148	5
66	68	1
36	36	4
98	99	3
6	6	17
125	173	2
13	16	9
45	45	6
37	38	18
2	2	10
13	13	17
1	39	4
159	167	4
143	143	9
6	49	2
32	32	18
58	58	3
44	44	20
59	59	5
138	139	6
121	122	6
126	132	4
156	156	14
127	127	8
37	37	13
113	114	9
96	109	2
115	116	5
90	112	1
0	1	2
89	171	1
74	82	2
98	113	1
102	102	9
173	175	1
34	34	7
95	142	1
179	179	8
85	86	4
26	30	2
133	133	6
20	20	13
175	175	6
97	97	3
8	11	4
9	12	1
5	6	8
161	161	6
22	22	14
154	156	3
170	174	4
171	171	11
6	75	1
83	89	2
159	159	23
109	152	3
151	151	6
101	176	3
11	13	5
82	82	12
4	4	8
35	35	22
62	62	6
54	56	6
138	138	8
157	158	6
129	130	5
176	176	18
117	117	4
169	174	5
122	130	2
152	152	8
95	106	1
74	77	1
76	76	8
30	31	7
126	126	2
39	40	4
115	120	3
89	89	14
26	26	10
67	67	11
136	137	2
161	162	14
61	61	12
60	139	1
71	71	21
10	10	13
16	28	1
56	56	4
79	79	4
174	174	10
21	23	3
85	85	4
85	91	1
73	73	5
65	66	6
131	131	3
14	52	1
21	43	5
5	13	4
5	11	3
43	44	3
14	14	7
84	84	5
66	67	6
24	24	9
2	11	1
91	92	3
39	39	12
153	156	1
26	40	1
168	168	3
6	7	4
56	95	1
115	118	1
9	9	19
30	30	13
135	145	1
10	11	6
121	121	5
174	175	7
96	159	2
81	81	10
32	36	6
83	84	4
57	57	4
116	116	6
18	123	1
22	23	3
130	149	1
82	117	5
118	136	2
4	5	2
8	9	2
35	37	3
117	120	2
8	8	15
93	93	9
11	19	2
94	94	7
172	173	5
4	22	3
27	28	1
168	177	2
60	89	2
31	31	3
58	59	3
105	106	2
38	40	3
29	29	8
178	179	2
91	98	3
9	13	1
15	15	8
92	114	1
141	142	3
13	64	1
11	16	1
115	115	8
25	26	7
11	11	14
83	83	6
3	3	14
7	7	6
147	147	18
152	153	7
122	122	4
148	148	7
106	106	4
41	41	14
105	105	6
142	143	3
25	25	11
180	180	12
9	18	2
13	15	4
156	160	1
53	53	6
162	164	4
87	111	3
88	88	5
65	65	5
5	5	8
7	8	6
54	55	7
90	92	6
37	40	4
11	18	1
111	111	4
94	112	3
4	33	4
88	102	1
118	128	1
43	43	6
154	154	2
80	83	4
72	77	2
28	29	2
146	167	1
10	45	4
52	74	4
1	111	1
74	74	5
100	100	5
134	134	13
164	164	5
3	13	3
153	157	3
15	82	1
23	37	2
23	23	8
92	93	3
119	128	4
72	132	2
166	167	5
32	33	5
128	131	1
150	150	7
94	113	3
35	80	3
140	177	2
120	120	6
61	63	2
18	18	5
117	119	1
27	27	11
110	111	2
105	107	7
157	157	3
20	32	2
166	166	9
144	145	5
103	103	3
117	129	7
175	180	4
140	140	14
1	4	1
90	175	1
16	31	2
33	33	11
173	173	10
155	157	3
154	159	2
129	174	2
105	174	9
14	17	2
151	156	6
102	103	1
7	11	2
92	94	3
123	124	4
54	54	6
75	117	4
10	33	3
79	95	1
87	175	7
32	127	6
119	119	11
136	157	4
120	125	1
145	145	7
60	60	6
28	31	5
99	107	2
113	118	3
101	101	7
64	64	8
17	17	10
169	173	1
77	77	13
26	28	2
122	126	1
101	104	3
134	137	2
120	128	3
10	56	2
31	32	6
6	14	4
66	66	15
82	83	2
7	22	1
158	158	5
113	113	13
123	123	7
112	112	6
16	17	3
160	160	4
59	72	3
104	106	3
155	169	1
86	86	7
118	121	2
86	89	2
96	96	4
12	77	2
43	74	1
157	177	1
128	128	9
130	170	3
45	46	3
76	77	1
18	19	1
114	114	2
28	28	8
172	172	4
51	140	2
42	62	2
126	131	4
15	16	8
146	146	3
163	163	9
82	86	1
25	44	2
74	81	2
151	154	5
1	3	3
170	170	6
9	15	1
82	87	2
19	19	5
49	50	2
7	21	1
4	26	1
4	45	2
3	12	2
178	178	2
21	44	1
81	101	1
74	83	2
23	104	2
118	118	2
36	37	1
84	103	1
95	174	1
50	50	5
18	21	4
51	51	8
139	139	5
17	18	4
79	83	1
54	70	1
23	24	1
6	8	3
128	165	3
151	153	2
137	137	3
40	40	10
87	87	2
67	71	1
24	40	1
21	21	3
1	2	3
105	108	1
120	122	1
143	148	2
97	98	1
17	29	2
103	105	10
124	124	2
84	105	1
0	4	3
83	86	4
159	168	2
151	165	2
27	33	1
93	94	5
157	163	3
44	100	3
155	158	3
162	162	2
7	9	1
10	12	4
103	104	2
98	101	2
49	49	1
100	117	3
91	91	6
42	42	1
164	166	1
0	0	7
137	149	1
127	166	1
29	30	2
119	120	3
112	167	2
114	156	2
20	21	4
29	33	4
87	115	2
51	65	1
12	35	3
33	34	2
18	44	2
165	166	3
3	8	2
12	12	7
157	167	2
38	39	3
65	145	3
170	171	4
24	26	2
78	78	5
2	12	1
114	122	2
16	35	2
94	163	2
98	98	3
169	169	1
75	85	1
5	10	1
146	176	3
117	163	1
141	141	4
2	4	4
98	116	1
153	155	1
7	10	2
98	102	2
41	42	1
160	161	2
90	90	3
40	41	1
14	16	3
142	142	5
55	58	3
89	91	2
77	78	2
7	19	1
17	58	1
166	168	3
63	78	2
39	41	1
32	43	2
16	16	4
70	71	4
73	76	2
26	27	1
39	82	1
12	18	3
90	94	3
14	36	2
163	164	1
96	101	1
38	75	1
36	145	2
130	130	2
170	172	1
59	179	1
110	110	3
4	18	3
132	132	5
74	90	1
63	63	5
167	167	1
67	115	1
14	15	4
100	101	3
71	72	1
3	4	2
30	35	3
127	128	4
147	159	2
74	129	2
4	15	3
112	115	1
117	118	3
36	144	2
35	170	5
13	50	3
80	80	2
115	117	3
84	85	2
175	176	4
112	114	2
107	107	2
143	144	2
36	81	2
129	166	1
8	45	1
135	151	2
77	86	4
158	159	1
24	28	3
8	10	1
0	10	1
130	148	1
177	177	1
11	15	2
136	136	2
26	104	1
94	95	1
7	16	3
122	123	1
21	30	1
11	12	3
151	167	2
31	102	1
9	16	1
131	132	1
81	87	1
139	141	2
60	66	1
121	135	2
162	163	1
14	24	2
104	105	3
18	34	4
142	145	1
149	149	1
144	144	2
18	31	1
46	46	1
4	11	1
82	88	2
38	43	2
1	1	4
165	168	1
14	54	1
10	22	1
136	138	1
95	96	1
20	42	1
6	19	1
25	31	2
36	43	2
153	167	1
73	82	2
84	87	1
89	105	1
116	118	2
5	26	1
18	20	4
122	151	1
114	132	1
155	155	2
90	111	2
19	21	1
147	178	2
64	65	1
95	95	1
6	9	1
78	79	1
7	13	2
75	75	1
14	138	2
121	128	2
73	74	1
160	165	2
74	97	2
46	100	2
0	33	1
164	165	1
110	152	1
126	172	2
68	68	1
19	99	2
14	94	2
133	134	1
129	129	1
8	35	1
98	100	1
86	117	1
21	41	3
41	43	1
10	13	1
107	108	1
65	141	1
137	162	2
158	172	1
135	135	2
103	108	1
18	45	1
14	81	2
81	82	1
171	172	2
92	92	1
96	115	1
120	155	2
106	173	1
3	18	1
18	33	1
150	161	1
142	144	1
65	140	2
26	102	1
159	162	1
18	32	1
27	42	1
9	33	1
59	60	1
116	152	1
43	45	1
116	136	1
35	36	1
19	20	1
132	133	1
79	80	1
74	110	1
165	167	1
130	132	1
12	13	1
121	125	1
20	41	1
125	125	1
55	55	2
45	63	1
44	45	1
111	128	2
10	16	1
126	129	1
11	32	1
155	156	1
151	170	1
75	87	1
20	23	1
