69	69	5
100	100	7
14	14	2
54	54	3
62	63	6
106	106	6
2	2	7
70	70	11
90	90	6
95	102	2
112	113	4
32	32	6
21	21	6
20	20	8
22	22	4
118	119	3
116	116	7
104	104	22
118	122	3
111	111	10
59	59	9
127	127	6
116	118	3
101	113	2
75	75	14
102	102	17
102	109	5
103	103	15
64	64	12
125	126	2
80	80	8
1	2	5
125	125	5
71	75	2
120	129	5
29	29	4
115	121	1
126	127	3
132	132	14
14	15	4
8	8	3
78	78	7
110	110	4
130	130	9
111	117	3
35	35	13
106	107	7
105	106	4
27	91	3
71	71	8
71	72	2
89	90	7
89	89	6
60	82	3
73	73	19
108	110	8
13	13	1
99	99	8
18	18	2
99	107	2
117	117	9
122	123	4
113	113	17
120	120	9
115	117	4
18	20	5
55	56	3
88	88	11
77	77	5
105	105	13
28	28	8
31	31	4
114	114	2
109	109	4
114	115	2
101	118	1
35	36	5
10	11	4
63	64	9
68	68	10
27	69	2
35	78	3
25	35	3
8	11	2
123	129	2
64	65	4
14	108	4
84	84	2
119	119	5
4	5	4
49	54	2
19	19	8
38	38	1
63	63	4
111	119	2
93	107	4
95	95	4
52	53	4
101	101	16
24	24	10
54	55	5
38	39	3
46	46	6
115	119	1
79	80	3
44	45	5
108	125	1
97	108	2
61	61	6
81	81	3
135	135	2
49	86	3
82	82	9
30	31	7
55	55	4
4	4	3
21	91	2
56	61	3
98	111	3
98	99	6
57	58	2
99	101	8
129	129	8
16	16	4
99	102	3
21	98	5
7	7	5
36	36	6
95	96	13
28	29	3
107	109	4
123	123	2
128	128	7
112	112	11
112	114	4
66	66	5
124	125	8
17	17	1
74	74	4
6	6	7
88	97	3
115	115	9
68	69	1
38	110	1
113	115	3
58	58	12
129	131	2
107	108	3
108	108	5
83	83	1
57	57	5
66	67	5
92	92	4
66	92	1
5	5	11
1	1	3
25	97	1
65	66	3
132	133	2
65	91	1
56	59	2
91	92	1
99	100	2
100	101	1
102	112	3
43	45	1
82	85	2
3	4	1
15	15	2
19	20	3
25	25	7
69	70	3
97	97	4
8	10	2
101	128	3
51	52	4
21	22	3
56	58	2
44	44	7
10	10	5
62	62	3
25	26	1
131	133	2
126	126	5
85	85	6
0	0	1
131	131	5
129	134	7
27	98	3
90	91	2
111	115	4
45	45	2
45	46	3
65	92	2
53	53	4
72	72	4
104	105	2
115	116	1
121	121	10
65	65	2
51	84	2
11	107	1
49	49	3
113	116	1
67	68	3
59	60	1
11	11	8
91	91	1
109	131	1
107	107	1
114	118	2
121	132	2
124	124	1
106	109	3
127	128	3
68	109	1
18	116	2
77	78	3
26	26	3
76	76	9
119	120	3
105	111	1
108	111	1
52	52	4
111	112	2
70	71	2
64	67	1
112	126	1
81	82	4
130	131	3
56	56	1
71	73	2
58	59	2
47	52	1
43	43	3
60	88	1
90	92	2
110	111	1
19	111	1
27	101	1
112	115	1
87	87	1
42	42	1
50	50	4
102	103	1
28	33	2
86	87	1
133	134	1
30	30	2
96	97	1
24	44	1
94	95	3
110	118	2
10	38	1
23	23	2
12	12	1
130	132	2
21	92	2
109	128	1
121	130	1
3	3	2
50	87	1
75	76	1
127	133	1
33	34	1
130	134	2
50	86	1
66	68	1
115	123	2
96	96	1
109	111	1
55	59	1
114	125	1
