3	15	2
87	87	9
16	17	3
76	76	4
121	121	2
169	169	9
26	26	5
17	18	1
65	65	1
4	4	3
16	16	3
172	172	6
24	24	5
64	64	10
164	165	2
85	85	1
0	38	1
97	118	2
160	160	3
60	61	5
133	134	6
32	32	10
117	117	4
10	11	1
44	44	7
108	109	3
14	14	5
38	38	6
54	54	3
178	178	9
101	102	1
29	31	6
80	80	10
124	159	2
121	125	1
90	90	8
126	157	1
12	12	6
78	80	3
14	38	4
164	164	5
132	132	2
59	63	2
176	176	5
126	127	2
72	72	8
147	147	10
8	42	2
179	179	3
103	103	4
10	14	2
95	95	5
39	40	1
129	129	6
21	21	2
87	88	2
58	58	6
111	111	3
27	27	3
15	16	5
135	135	1
107	107	2
7	31	3
41	41	7
53	53	5
34	34	2
57	57	7
23	23	8
41	42	3
29	35	1
3	3	7
122	122	1
6	6	11
132	150	1
130	130	1
108	121	2
109	113	7
145	146	2
43	43	4
1	1	3
133	148	1
170	171	3
8	11	1
67	67	3
16	18	4
9	9	7
7	7	2
20	20	4
39	39	5
83	83	5
8	8	5
144	145	3
2	7	1
11	11	5
3	4	3
18	18	5
100	156	3
123	124	1
22	23	3
10	20	5
151	151	2
104	105	1
90	91	9
67	68	1
5	5	2
67	76	7
35	35	6
3	5	2
94	94	3
80	87	4
61	61	4
146	146	4
31	32	1
104	104	1
97	107	2
156	179	3
93	123	3
40	43	3
67	89	1
2	3	1
2	35	2
168	169	1
174	174	7
133	133	1
137	137	1
29	29	4
102	102	1
84	85	3
160	161	2
4	5	1
149	171	3
13	13	7
1	32	1
159	159	3
2	2	1
168	168	2
71	71	2
158	158	2
115	116	3
74	74	1
97	97	1
119	119	2
2	4	2
22	22	4
10	10	3
171	171	6
102	131	1
36	36	6
113	113	11
26	39	1
9	33	6
101	121	3
33	36	3
36	38	2
169	170	2
173	173	3
42	42	1
126	126	2
49	74	1
75	86	1
63	84	1
175	175	2
151	173	1
57	64	1
149	149	3
118	146	1
98	98	1
170	170	3
19	20	7
23	117	1
156	156	1
1	10	1
153	153	5
142	142	2
25	25	2
77	77	2
114	135	2
100	100	3
4	9	2
116	116	2
33	33	1
102	103	2
12	13	2
95	137	2
1	4	1
162	162	1
157	157	1
128	128	3
117	118	2
157	158	1
31	31	1
5	6	3
26	41	2
165	165	2
29	30	3
154	154	4
161	162	3
160	173	3
99	100	1
6	44	1
91	91	2
151	176	1
168	173	1
148	148	1
127	159	3
17	39	1
22	37	2
37	37	2
8	38	1
0	10	1
60	60	2
32	33	3
15	41	2
28	30	1
103	105	2
110	110	2
27	28	1
49	49	1
82	82	3
105	106	2
111	112	1
8	18	1
122	154	1
138	139	3
109	109	1
31	35	2
131	161	2
103	110	1
50	50	1
102	106	1
55	55	3
167	167	2
142	143	1
138	138	1
0	36	1
9	11	2
7	9	1
3	7	2
7	8	2
35	38	1
86	86	3
19	22	1
161	161	2
9	10	1
15	33	1
9	31	1
127	129	1
51	61	2
40	40	3
92	94	4
156	157	1
127	127	2
102	122	2
162	180	1
62	66	2
17	17	1
136	136	2
52	53	1
115	115	1
15	15	3
14	26	1
92	92	5
112	112	1
2	13	2
34	35	1
32	34	1
24	31	1
125	126	1
113	146	1
51	53	2
11	12	2
56	56	2
57	59	1
118	126	2
143	143	1
27	32	2
126	129	1
32	38	1
38	43	1
81	97	1
155	155	1
136	165	1
101	101	1
67	74	2
19	19	1
133	150	1
90	104	1
88	89	1
130	135	1
22	41	1
165	166	1
78	79	1
111	142	1
38	39	1
114	114	1
166	166	1
52	52	1
152	152	1
79	79	1
