105	105	11
137	137	4
98	98	7
14	69	2
45	45	14
22	23	6
135	135	13
7	7	14
69	69	9
88	88	6
0	1	1
18	18	1
46	49	1
14	15	5
147	148	2
48	48	5
134	136	2
4	52	1
125	125	1
47	47	2
150	150	5
9	10	10
132	132	2
54	54	12
21	23	2
149	152	10
70	70	6
84	84	4
124	156	5
41	48	2
22	22	8
66	66	11
8	9	5
87	88	5
18	23	4
11	11	10
86	92	1
44	44	12
114	114	2
49	49	17
139	140	4
139	139	4
90	90	6
150	152	5
80	81	3
76	126	1
96	97	3
73	73	6
71	71	4
10	10	5
35	35	4
36	36	5
11	12	7
76	79	3
22	41	2
99	99	3
97	97	7
132	141	3
138	138	2
27	27	6
91	125	3
108	108	7
163	167	4
162	167	3
73	86	4
87	123	3
94	95	4
0	25	3
23	23	8
92	93	7
91	122	2
100	101	6
103	121	2
57	112	1
119	119	3
83	83	9
37	37	6
116	117	3
93	94	1
157	158	1
0	0	7
95	95	3
55	55	6
114	115	4
74	74	3
52	127	1
100	100	1
40	40	8
90	97	1
12	26	1
43	43	10
144	144	5
160	164	2
9	9	6
110	111	4
78	79	3
72	72	2
130	130	6
72	140	1
68	69	4
4	5	2
19	19	8
21	21	2
92	92	4
123	124	7
5	53	5
85	88	1
166	166	2
41	42	7
82	83	2
87	89	1
6	7	3
3	56	2
101	101	5
2	2	2
129	131	4
136	137	3
8	8	2
106	106	4
77	77	6
102	102	1
39	39	2
85	85	6
55	106	2
109	126	2
16	16	2
148	148	8
100	104	3
15	23	2
143	143	2
161	161	5
32	55	2
116	116	4
21	51	2
3	5	2
65	65	3
136	136	4
2	54	3
52	126	1
12	12	3
28	55	3
162	162	3
35	55	1
57	57	1
131	131	3
120	120	7
84	85	3
38	75	1
56	113	4
145	145	9
12	13	3
20	21	6
163	163	3
159	159	2
58	62	3
75	76	1
168	168	2
140	140	2
105	106	1
34	35	3
93	93	1
42	42	10
74	110	2
67	67	2
158	158	4
36	37	2
3	73	3
154	156	2
64	64	1
46	46	6
123	125	2
18	20	4
121	121	1
169	169	2
15	45	2
10	11	2
101	102	1
130	146	3
52	52	3
82	88	4
33	34	1
5	5	3
93	95	2
34	34	2
141	141	3
24	24	6
20	24	1
65	68	1
127	127	1
40	90	2
3	4	2
20	23	7
102	103	2
83	84	1
104	104	3
96	98	1
79	79	2
103	103	4
38	110	1
145	155	2
161	164	2
111	111	4
149	150	2
96	96	4
146	146	3
55	56	5
72	73	3
44	45	4
35	138	1
15	16	1
52	53	1
100	114	5
51	51	4
58	58	2
111	122	1
137	139	2
92	94	2
4	53	1
108	109	1
35	137	2
112	113	3
33	33	1
84	99	3
26	26	2
52	107	2
75	75	1
145	154	1
112	112	5
101	110	1
13	13	2
104	141	3
80	80	6
147	149	2
66	67	1
36	107	3
81	82	2
76	84	1
168	169	1
38	38	1
54	142	2
28	28	1
103	124	2
138	140	2
167	168	5
17	19	1
162	165	7
57	70	1
86	87	1
22	24	3
50	50	2
5	8	1
54	146	1
110	110	2
165	165	1
124	125	1
114	164	3
160	160	3
165	166	1
103	141	1
17	17	1
54	55	3
167	167	2
92	96	2
37	110	1
53	57	2
6	6	1
56	107	1
142	143	1
142	142	1
113	113	1
128	129	4
18	24	1
86	86	2
45	154	1
91	93	1
129	130	1
58	63	2
3	3	2
126	127	2
65	66	3
67	68	3
119	123	1
79	80	1
119	121	1
83	85	1
164	164	2
4	56	1
121	122	2
124	124	2
155	155	1
152	152	2
109	110	3
37	74	2
115	116	1
87	91	1
71	76	1
148	149	1
45	105	1
25	25	6
61	70	1
119	122	1
118	118	1
133	134	1
126	126	1
135	136	1
112	121	1
57	63	1
87	87	2
146	147	2
56	56	2
56	57	2
90	91	3
156	157	1
117	148	2
81	81	1
12	79	1
47	158	1
67	70	4
91	95	1
53	53	1
159	161	1
108	110	1
96	124	1
123	123	3
85	86	1
41	41	3
132	146	1
50	83	2
50	51	1
16	17	1
20	20	2
44	157	1
39	40	2
120	121	4
84	93	1
17	18	2
107	107	1
83	89	2
103	138	1
25	106	1
107	110	1
70	77	2
115	115	2
154	154	1
13	50	1
12	81	1
0	2	1
170	170	1
49	51	1
117	117	1
100	128	1
86	114	1
11	80	1
117	118	1
101	103	1
91	91	2
128	128	1
14	14	1
119	120	1
37	121	1
7	76	1
26	27	1
34	36	1
17	57	1
134	135	1
73	87	1
72	74	1
