47	47	27
113	113	33
48	48	15
58	79	5
104	107	3
96	96	18
71	72	4
119	119	20
14	15	5
12	12	21
19	52	1
106	108	4
59	59	11
13	13	18
57	57	12
76	76	7
21	22	6
49	52	3
112	112	46
7	7	19
58	58	25
8	9	8
67	67	13
56	56	32
45	64	2
105	109	1
77	77	16
80	80	7
92	92	12
0	0	33
24	31	3
110	110	35
14	70	2
46	47	5
22	22	6
97	97	13
1	115	1
89	89	13
8	16	4
63	90	4
126	126	10
122	122	16
120	120	21
53	53	25
99	99	18
84	85	3
19	27	4
131	132	8
131	131	9
10	11	9
6	6	9
32	33	7
70	71	5
122	124	3
8	8	11
84	90	6
18	18	12
12	55	4
42	42	18
95	95	13
52	52	25
10	10	12
74	75	5
30	33	2
63	67	1
63	63	15
56	57	3
104	105	10
50	50	25
121	121	22
15	16	5
111	111	17
39	64	7
116	117	1
15	15	10
62	63	8
51	52	15
61	61	5
59	65	2
65	66	2
93	93	23
85	85	7
25	42	1
105	105	17
127	127	5
108	108	17
130	130	16
0	6	5
24	26	6
15	61	2
20	52	4
44	44	10
46	71	6
85	90	2
60	61	3
29	29	4
29	39	6
82	82	6
81	131	6
28	28	22
100	120	3
23	23	11
60	74	1
40	40	3
46	46	27
97	129	8
88	88	6
33	33	6
56	65	2
12	13	8
2	2	16
41	42	8
117	117	8
114	114	25
28	29	5
89	90	3
3	3	20
48	49	10
130	131	1
132	132	7
121	122	15
91	92	4
63	92	3
86	87	2
87	87	5
43	45	1
94	94	9
16	16	10
49	49	29
44	46	8
100	100	13
30	30	15
25	25	5
68	68	5
81	100	2
10	27	4
47	48	7
75	76	7
26	26	8
9	9	15
58	78	3
69	69	27
93	121	2
72	72	5
106	106	10
42	54	3
60	62	6
62	62	4
122	123	2
95	96	4
69	79	3
118	118	8
19	19	12
102	102	19
60	60	6
43	43	12
97	98	5
118	130	1
75	75	14
93	105	3
123	123	14
26	40	3
101	102	15
74	74	3
98	130	2
120	122	1
129	129	3
79	85	2
118	119	8
124	125	7
6	7	2
132	133	4
113	114	8
96	97	10
104	104	10
39	40	4
54	55	5
80	83	1
133	133	7
0	114	1
128	128	2
99	100	1
82	84	3
64	64	10
124	124	23
73	73	11
24	25	5
45	74	4
22	34	7
20	31	3
45	45	14
16	17	7
50	51	9
26	28	1
9	10	8
13	15	4
20	20	12
19	22	3
114	130	3
54	54	19
14	14	16
70	70	10
125	126	3
46	53	6
41	65	5
95	104	1
78	78	4
31	32	4
86	86	8
31	31	5
114	115	6
1	1	18
55	55	11
51	51	12
109	110	3
105	112	4
105	106	8
49	50	8
7	9	6
19	20	2
25	26	3
24	24	4
41	41	6
96	98	3
80	81	6
72	90	3
105	111	7
21	21	13
24	28	2
116	125	4
90	90	11
65	65	7
19	29	3
52	53	8
127	128	8
27	29	6
34	34	5
125	125	10
2	79	2
106	107	3
58	61	3
54	64	2
102	127	3
27	28	2
32	32	9
71	71	2
12	54	4
91	91	7
46	86	3
88	89	3
92	93	4
80	85	2
61	62	1
6	8	6
32	56	2
85	89	2
111	121	1
112	113	1
5	5	13
42	85	1
68	69	4
82	107	4
104	129	3
4	4	8
108	109	7
18	29	3
98	98	15
72	74	4
123	124	1
112	117	2
24	60	1
53	54	2
50	54	2
13	16	3
99	104	4
20	21	1
27	27	14
46	48	3
79	81	2
18	56	1
19	21	7
21	71	2
123	125	1
17	18	3
58	60	5
115	115	4
96	132	2
73	74	5
111	112	2
51	53	2
40	44	3
79	79	12
126	128	2
129	130	4
53	68	1
69	71	4
26	29	1
102	103	5
94	96	1
54	56	5
17	17	4
0	92	2
115	117	2
30	31	5
106	109	1
81	81	6
0	1	5
117	133	3
55	58	1
26	30	2
58	71	3
109	109	12
20	50	2
72	73	1
82	83	4
54	57	1
85	87	4
66	69	1
80	97	1
101	101	4
82	87	1
102	105	3
83	83	3
117	118	3
15	20	1
104	127	1
29	31	2
26	27	4
47	133	2
19	39	1
84	89	3
11	29	2
45	47	1
94	105	4
80	116	3
11	12	3
83	87	1
71	78	1
10	15	2
39	39	2
41	43	2
107	108	2
87	89	1
60	63	4
66	66	7
29	30	3
92	120	3
4	7	4
48	69	4
22	74	1
110	122	3
79	80	2
114	116	3
119	120	4
104	109	1
45	46	3
120	124	1
15	96	1
44	45	1
42	65	4
93	94	3
73	75	1
69	89	1
128	129	2
45	56	1
1	7	2
40	54	1
117	119	1
62	64	1
7	8	1
58	74	3
11	11	4
52	54	1
45	67	2
94	99	2
114	129	2
87	88	3
107	107	3
79	95	1
41	120	3
129	131	2
47	53	1
51	54	1
14	16	3
104	128	1
104	126	2
56	59	1
59	79	1
103	103	8
33	73	2
80	86	1
92	112	1
99	105	2
84	97	1
112	118	3
125	131	1
42	88	2
67	89	1
78	91	1
45	87	3
2	3	7
56	58	3
4	5	5
124	132	2
25	84	2
40	41	2
100	101	3
47	73	3
13	17	1
84	84	3
81	92	1
1	2	2
83	84	3
62	67	2
55	73	2
101	103	1
18	19	5
11	54	1
89	132	1
110	111	5
98	99	1
120	123	1
58	64	1
93	120	1
9	27	1
105	130	1
19	64	1
60	65	2
55	56	1
85	88	2
104	120	1
77	78	1
103	126	1
126	127	1
95	99	1
65	69	2
45	90	1
48	52	2
118	120	1
55	63	1
40	55	1
98	129	1
39	41	1
78	81	2
59	75	1
105	131	1
97	128	1
47	85	3
94	95	3
107	118	1
11	73	1
58	75	1
117	121	1
23	24	1
115	116	1
54	73	3
40	43	1
89	91	1
38	38	2
0	48	1
43	44	1
38	39	1
42	43	1
33	43	2
59	61	1
113	120	1
70	79	1
13	18	2
82	130	1
85	86	1
86	88	2
104	106	1
78	80	1
22	23	1
72	76	2
3	6	1
104	110	1
32	66	1
5	6	1
45	66	1
27	56	1
118	129	2
127	129	1
91	93	1
118	125	1
10	12	1
