29	29	11
61	68	1
61	62	6
72	74	6
4	5	5
11	11	7
62	62	17
41	59	1
72	72	15
35	50	1
50	58	3
48	50	1
56	56	12
38	38	12
5	8	2
25	25	16
46	46	12
47	71	2
28	28	8
0	1	7
45	65	3
69	73	2
61	67	3
50	50	18
67	71	5
24	24	18
5	5	14
5	59	2
65	66	8
36	64	2
25	26	7
13	19	1
26	26	9
73	73	16
51	52	4
20	20	24
53	54	3
66	67	4
74	74	9
49	52	4
7	8	5
12	12	12
25	29	4
10	60	3
54	55	7
26	39	2
21	21	15
57	60	2
28	47	1
64	65	9
33	63	3
59	59	16
45	57	1
2	2	14
55	55	13
8	11	4
70	73	1
58	58	16
61	64	4
71	71	7
76	77	5
7	12	2
26	27	7
68	70	3
10	10	5
11	12	10
36	37	7
65	65	8
44	44	11
63	63	17
28	74	3
48	49	3
27	27	5
54	54	7
77	78	2
43	58	1
77	77	22
52	53	2
7	7	6
32	34	6
53	53	8
26	38	1
33	33	16
55	56	3
38	39	9
13	13	17
0	0	9
4	6	3
19	19	28
41	41	11
62	66	5
18	19	2
41	42	6
25	28	2
28	31	2
39	43	1
64	64	12
57	71	2
43	43	16
35	37	3
1	4	1
30	30	2
0	74	1
6	6	12
67	67	13
3	3	10
35	74	2
53	73	1
76	76	7
68	68	14
39	77	2
60	60	17
1	2	2
45	45	13
22	48	7
4	4	8
32	32	3
52	52	7
61	61	17
4	43	1
59	64	4
75	75	6
60	63	1
14	70	2
31	32	8
52	54	3
8	8	2
31	31	8
37	43	2
51	69	2
49	56	2
23	23	8
42	42	13
40	73	1
10	11	5
57	57	7
48	48	12
70	75	2
50	51	3
23	24	5
50	54	2
39	42	2
10	12	1
35	36	2
57	58	3
35	35	20
43	47	1
22	22	4
1	1	14
22	29	2
10	23	1
40	40	13
37	57	2
38	49	2
25	51	1
49	51	4
51	51	19
25	40	1
36	36	4
69	69	8
40	42	3
27	34	3
58	68	1
27	29	1
5	6	5
40	71	1
40	77	2
3	4	1
52	65	2
54	61	4
28	30	2
62	63	2
49	49	9
68	69	4
30	64	2
34	34	6
37	55	1
24	28	5
45	46	5
23	30	1
28	29	1
74	76	2
60	61	2
66	72	1
51	70	1
22	24	4
6	58	1
38	59	1
64	66	1
70	70	3
22	74	2
47	47	13
51	77	1
26	75	1
5	13	1
66	66	4
20	22	4
4	58	2
0	11	4
5	44	1
37	37	6
38	62	2
40	72	3
42	43	2
1	30	3
30	32	1
39	39	7
5	58	1
18	70	2
25	64	1
46	47	2
6	59	1
3	56	1
62	64	1
21	22	1
34	42	1
42	64	2
73	74	2
32	36	1
63	64	3
14	24	1
56	57	3
69	70	2
43	74	2
49	50	8
5	73	1
22	23	2
53	68	2
27	41	1
12	19	2
43	48	2
34	39	2
0	13	1
37	38	3
70	71	8
39	40	8
58	64	1
53	71	1
5	38	1
51	58	1
32	33	1
71	76	1
55	77	1
21	31	1
6	13	4
25	36	1
3	61	1
28	33	1
2	52	1
27	46	2
49	58	1
34	35	1
39	48	1
27	30	1
7	11	1
54	74	1
26	28	2
35	64	2
44	64	1
13	14	1
20	61	1
56	72	1
13	50	2
53	67	1
34	44	2
55	72	1
48	57	1
38	64	2
22	33	1
53	61	2
49	53	1
4	41	4
36	43	1
51	53	1
67	68	3
55	57	1
26	76	1
50	76	1
53	70	1
47	51	2
13	44	1
69	74	2
2	8	2
75	76	2
2	12	1
9	11	3
31	42	1
27	28	1
23	47	1
41	50	1
27	50	1
36	40	1
48	76	3
33	56	1
34	40	1
8	9	1
33	43	3
47	52	1
58	76	1
3	21	3
24	27	2
27	31	1
47	48	4
29	60	1
19	77	1
21	25	2
56	71	2
40	41	3
29	30	1
51	56	1
20	21	1
72	75	1
6	50	1
74	75	1
42	61	2
23	28	1
57	67	1
26	29	1
2	3	1
68	73	1
41	76	1
27	68	1
0	2	1
57	66	1
5	26	2
62	67	1
40	76	1
13	59	1
40	70	1
1	11	1
12	13	1
61	63	1
39	73	1
69	71	1
5	68	1
63	67	1
58	59	1
45	58	1
42	50	1
66	71	1
50	52	1
25	44	1
53	74	1
