71	71	9
23	24	2
19	19	3
123	125	6
132	133	1
50	156	2
45	45	10
62	62	4
103	104	4
35	35	8
17	103	4
150	150	3
119	120	6
170	170	3
8	8	4
30	30	2
23	33	1
1	1	2
90	90	2
123	124	12
155	180	3
39	39	6
17	17	9
60	60	2
32	35	3
167	167	10
78	141	2
11	11	12
86	88	1
17	18	4
44	45	3
11	13	2
123	123	2
128	128	3
104	107	1
15	15	3
9	17	1
57	57	1
29	29	4
13	13	6
34	35	3
27	77	2
114	114	7
14	14	2
14	37	1
8	11	1
56	56	7
9	15	2
41	42	3
83	86	3
83	85	4
5	5	2
79	80	4
59	59	10
113	113	4
87	118	2
16	16	8
25	25	5
151	155	1
78	80	2
44	44	3
13	14	3
160	160	7
75	75	2
76	76	2
148	148	2
171	173	2
140	145	1
34	34	6
26	28	1
25	28	2
17	38	2
78	78	3
17	106	1
106	106	1
129	129	9
19	23	2
105	106	2
151	178	3
107	107	3
3	4	4
53	54	2
175	175	5
31	31	6
4	4	3
117	117	4
35	36	1
118	118	1
142	142	5
19	20	2
10	20	6
81	88	2
9	9	4
131	131	2
138	138	2
66	66	5
156	156	3
10	10	6
23	23	9
4	9	1
105	113	3
126	126	1
88	88	2
146	146	3
94	94	2
14	18	1
166	166	2
6	6	2
120	129	1
124	124	7
125	125	2
28	28	4
153	176	1
104	104	4
161	162	5
6	30	1
135	158	1
40	41	4
8	30	1
32	32	3
27	27	3
145	146	2
3	9	2
80	81	2
135	135	2
81	108	2
51	82	1
54	54	3
134	161	2
151	151	1
152	152	6
142	143	4
5	9	3
126	136	3
157	157	2
9	23	2
90	132	3
26	29	1
50	50	3
127	148	1
26	26	5
36	36	6
139	139	5
18	18	2
53	61	2
43	43	7
172	172	4
52	53	3
172	173	2
97	97	1
5	18	2
92	104	1
12	22	1
99	99	2
163	168	5
170	173	3
2	17	2
104	105	1
56	133	1
52	52	1
42	42	4
24	42	1
153	153	2
161	161	2
55	55	2
29	45	1
109	109	7
25	26	6
105	125	1
87	90	1
144	144	1
80	84	1
20	31	3
143	145	2
83	88	1
55	56	2
41	41	4
1	14	2
127	127	1
63	63	4
28	29	1
168	168	1
0	0	1
61	61	3
8	45	2
115	117	4
2	13	3
77	77	4
173	173	5
25	31	1
9	10	4
20	20	1
31	33	3
97	98	3
108	108	1
22	22	6
12	110	1
3	3	3
4	5	3
3	16	2
122	133	2
102	102	3
141	171	1
2	7	1
90	102	3
82	82	3
84	85	2
179	179	2
23	28	1
171	171	3
32	37	1
139	141	1
79	79	3
25	71	3
6	7	2
169	170	1
6	8	2
24	25	3
65	91	1
164	164	1
103	103	3
92	92	1
18	44	1
165	165	1
120	121	1
17	107	4
77	79	1
38	38	3
43	44	1
55	57	1
159	160	4
141	142	4
162	173	1
115	127	2
25	30	6
2	14	1
68	96	2
154	154	1
65	68	1
95	96	1
164	165	1
26	27	2
67	68	2
98	98	2
115	118	1
163	163	1
55	59	2
144	148	1
7	10	1
79	97	3
86	87	1
33	33	5
142	168	1
84	110	2
73	73	2
111	113	2
8	9	2
23	32	3
57	127	2
154	163	2
34	41	2
101	116	1
154	167	1
131	133	1
147	148	2
66	67	3
176	176	2
89	89	1
2	2	1
151	180	1
147	147	2
21	21	1
22	23	1
0	9	3
116	116	1
5	10	3
169	169	1
61	73	2
153	154	1
1	4	1
132	148	1
8	15	1
120	123	1
110	111	1
115	115	2
159	167	1
145	147	1
24	26	1
121	121	1
39	40	1
117	120	1
85	85	1
89	121	2
7	22	2
13	18	2
12	13	1
10	14	1
142	144	1
88	103	1
32	40	1
124	127	1
128	132	1
154	155	2
122	122	1
77	78	1
12	12	1
53	68	1
7	43	4
145	145	1
12	17	1
75	76	1
82	83	2
54	79	2
17	45	2
32	33	2
106	123	1
137	137	1
2	4	1
62	63	2
125	126	1
153	175	1
44	50	1
135	150	1
70	142	2
100	100	1
133	159	1
131	148	1
6	9	1
93	94	1
132	132	1
9	26	1
15	16	2
29	30	1
74	74	2
89	110	1
35	38	1
124	125	2
80	80	1
108	110	1
14	15	3
7	45	3
18	20	1
71	141	1
83	100	1
95	118	1
78	93	1
122	145	1
9	11	1
25	33	1
62	74	1
