9	9	12
101	101	11
86	86	15
39	39	5
120	121	2
199	199	5
201	201	14
61	61	16
141	142	7
22	24	2
213	213	7
120	120	6
222	222	6
14	14	11
40	40	10
16	95	7
68	70	2
220	222	1
119	119	11
179	179	11
4	5	7
77	77	12
234	234	5
128	130	1
79	82	5
203	203	19
155	158	2
168	168	11
69	69	12
35	35	7
123	230	1
24	64	3
10	10	18
176	176	8
98	98	10
56	57	1
5	6	7
45	47	3
123	125	1
85	86	2
11	11	13
104	115	4
111	112	5
188	191	3
164	164	8
113	113	6
83	83	6
173	174	4
99	100	4
2	2	8
45	54	3
103	104	6
5	5	8
58	58	11
84	84	8
31	39	6
223	223	6
227	227	13
197	197	12
78	78	8
74	74	5
225	225	3
124	131	1
33	34	10
137	138	11
7	7	12
88	88	8
65	65	6
235	235	16
178	187	3
221	226	2
22	23	4
15	15	7
17	17	15
42	42	10
179	221	3
104	119	2
150	150	7
5	7	2
102	102	16
155	155	14
186	187	10
137	137	8
81	84	2
24	25	1
4	13	1
83	84	11
237	237	4
73	73	11
12	13	6
104	104	14
236	236	6
226	227	2
56	56	13
226	226	13
181	181	8
68	71	3
99	99	17
36	36	8
177	229	2
115	115	11
78	80	4
47	48	3
54	54	14
214	215	5
3	7	2
213	214	7
22	22	3
52	52	6
29	29	22
118	119	1
62	62	6
47	47	17
216	216	10
13	41	6
33	33	13
149	150	1
31	31	2
46	46	12
172	219	3
182	182	16
239	239	8
9	87	2
95	97	1
160	160	8
143	144	5
127	164	1
166	166	11
200	201	1
206	206	6
21	57	2
64	66	3
49	50	6
163	163	8
169	176	2
3	4	2
123	123	14
117	119	2
19	45	1
57	57	13
116	220	4
17	21	4
99	219	3
48	49	1
109	109	11
122	122	4
127	127	3
187	187	6
224	224	7
190	231	2
212	213	4
8	17	3
6	13	2
218	218	15
88	180	4
106	106	10
43	45	4
242	242	8
215	215	11
64	65	3
135	135	7
178	178	4
11	71	2
183	183	8
19	19	11
100	100	9
129	131	1
121	137	3
57	88	2
83	170	1
75	75	16
104	106	6
50	50	6
64	64	5
78	88	3
30	80	2
31	59	4
97	99	4
45	48	2
46	47	2
188	188	2
207	207	8
160	161	2
221	221	8
27	27	7
18	18	10
155	159	2
225	226	1
230	230	7
105	105	9
156	191	4
38	38	20
28	28	11
194	198	2
72	72	12
194	194	8
228	229	1
49	49	10
145	155	6
211	211	15
116	117	4
4	7	3
192	205	2
220	226	2
37	37	9
4	14	1
96	96	5
104	105	5
71	71	12
44	44	13
122	127	3
0	0	20
199	221	3
142	142	4
147	147	17
238	238	3
66	66	25
124	124	7
98	100	2
129	130	6
12	88	5
138	139	11
75	76	5
110	110	2
158	158	7
188	198	3
65	68	1
80	82	7
122	129	1
81	81	12
205	206	3
8	107	5
43	239	3
162	163	6
134	138	2
41	41	12
46	48	2
34	35	3
141	144	1
45	45	8
209	223	1
173	175	1
19	20	2
180	180	3
95	96	3
228	228	12
189	189	3
167	167	8
153	155	3
21	21	5
0	1	1
166	167	2
103	103	6
240	240	12
108	109	2
227	228	2
127	129	2
150	193	2
229	230	2
16	79	2
170	208	3
56	58	3
196	196	4
140	140	4
121	121	9
67	68	1
51	52	5
36	37	7
58	59	3
117	117	1
7	14	1
241	241	11
212	214	4
126	127	2
142	151	4
138	138	3
190	190	2
15	29	1
45	127	1
233	233	11
76	76	7
153	175	5
188	199	1
67	107	3
113	181	1
97	97	11
75	83	3
11	102	1
8	8	19
68	68	3
15	16	3
241	242	3
191	192	4
107	133	1
18	21	4
113	126	1
198	198	4
149	149	6
166	178	2
173	173	9
79	83	2
156	156	4
126	126	5
128	165	4
215	216	3
170	209	2
1	1	16
72	73	5
128	128	12
176	177	4
170	170	8
197	198	4
51	51	6
221	222	4
151	178	2
16	18	3
197	210	4
172	172	4
6	7	6
145	145	14
140	141	2
131	131	1
212	212	7
209	213	1
145	146	1
29	56	1
59	59	10
62	63	4
2	15	1
7	8	10
231	231	6
0	3	4
213	216	1
13	14	14
38	43	2
204	204	9
130	130	3
177	205	1
182	183	4
26	28	2
20	20	20
159	159	3
6	6	7
175	175	5
97	233	1
148	149	6
204	206	6
104	159	4
205	205	5
103	122	3
35	36	8
56	59	3
210	210	8
18	104	5
82	82	6
195	195	3
151	151	4
202	203	1
83	85	3
73	74	3
217	217	7
103	119	2
135	219	3
70	70	9
75	79	1
133	133	3
26	26	14
3	3	2
174	174	4
186	186	3
134	207	1
200	200	9
38	39	1
13	13	6
173	189	3
114	115	1
7	13	1
136	152	3
16	16	6
119	130	3
30	31	5
163	174	1
10	20	1
165	165	7
119	120	1
53	54	4
129	141	5
12	12	13
116	116	7
31	75	3
45	46	3
199	200	2
162	162	3
108	115	5
32	32	6
63	63	3
44	45	4
40	41	7
23	60	1
67	67	5
108	108	3
169	170	3
168	169	3
48	57	2
9	73	4
34	82	2
24	54	1
232	232	7
152	152	2
194	196	1
46	68	1
51	57	5
208	209	4
24	24	6
176	205	2
133	134	2
201	209	4
152	153	1
76	77	2
184	184	3
3	17	2
217	219	3
127	128	2
155	156	1
69	70	3
3	6	1
102	145	1
34	34	6
141	141	9
134	183	1
1	2	2
20	36	1
14	15	3
23	53	1
4	4	13
156	165	1
209	222	2
136	137	3
3	21	3
16	41	1
141	143	2
26	63	1
166	169	5
203	204	2
191	231	1
36	59	1
50	75	2
226	236	3
17	32	1
4	29	3
107	107	5
178	179	1
50	63	3
199	229	1
168	177	2
86	203	3
153	153	3
220	220	7
32	33	3
86	218	1
148	150	2
79	186	3
55	55	8
111	113	1
202	202	1
43	192	6
104	118	2
203	205	1
60	60	3
17	77	2
147	148	2
169	169	11
50	52	3
61	62	10
27	119	1
151	152	1
79	79	13
31	61	1
71	161	1
23	23	4
42	239	1
78	135	1
161	161	7
47	54	1
215	221	4
231	232	2
157	208	2
125	127	3
30	30	8
53	53	2
148	151	1
58	81	3
195	196	2
68	144	3
106	147	3
177	177	4
112	112	4
163	188	3
209	211	4
153	176	1
125	125	4
171	177	2
217	218	3
87	110	2
33	41	1
164	165	6
134	154	2
167	171	2
48	48	4
192	196	2
82	100	1
9	42	3
161	189	2
135	136	1
3	5	4
76	170	1
12	41	4
5	12	1
46	192	1
40	95	2
0	53	1
239	240	2
167	170	1
139	140	2
114	114	3
31	40	1
128	129	2
154	154	7
185	185	9
153	154	1
5	19	2
2	5	1
95	95	5
31	36	3
181	182	1
53	57	2
21	22	5
50	51	5
136	136	4
78	79	1
39	40	2
68	69	5
135	139	1
2	40	4
7	19	1
75	174	2
71	183	4
8	49	1
15	74	2
129	133	2
50	58	2
80	80	4
223	224	4
126	163	1
214	214	2
125	126	2
133	139	2
47	192	2
32	41	3
102	159	2
32	61	1
76	79	1
149	160	4
197	202	1
228	230	2
102	122	1
143	143	3
142	154	3
11	31	6
219	219	4
194	195	3
146	147	3
7	15	2
62	81	2
74	84	2
202	204	1
148	178	1
190	191	1
220	221	1
178	205	2
18	19	1
25	25	5
172	181	3
49	52	5
71	101	1
234	235	1
74	191	3
51	53	1
6	49	4
120	134	2
186	189	3
207	212	1
120	125	1
168	223	1
134	134	8
2	13	1
1	3	1
16	51	1
175	222	1
144	146	2
28	70	2
0	2	1
47	75	2
158	159	7
184	185	1
189	190	3
196	220	1
52	77	2
8	19	2
13	22	4
238	239	1
191	206	2
77	132	3
0	11	3
109	130	1
194	224	1
24	28	2
153	183	1
139	143	1
47	67	2
124	160	1
139	183	2
201	202	2
59	60	1
34	40	2
13	153	1
10	32	2
180	181	1
38	98	1
96	102	1
186	188	3
211	221	1
77	79	2
125	161	1
80	100	2
26	85	1
85	85	7
3	96	1
48	56	1
65	67	1
144	144	1
29	33	1
10	54	1
37	86	1
124	126	1
209	209	3
169	178	2
163	172	3
127	159	3
2	3	4
42	102	1
133	217	2
20	84	2
230	231	2
146	146	4
69	140	1
157	157	3
156	157	1
169	198	1
107	177	2
193	195	1
115	162	3
37	233	1
100	101	1
49	56	2
139	139	2
29	32	3
24	63	1
58	61	1
143	153	1
47	240	3
11	88	1
118	145	1
215	218	1
103	120	2
131	132	1
44	70	2
155	182	2
140	143	2
101	102	1
171	171	2
118	118	3
8	9	1
129	129	2
198	199	2
169	175	1
193	224	1
208	208	2
24	81	1
69	85	1
46	113	2
135	217	1
142	210	2
0	19	2
38	68	1
21	41	1
91	91	2
100	127	1
201	212	1
85	182	2
167	169	1
140	181	1
20	43	1
135	156	1
2	60	4
26	48	1
236	238	1
142	153	2
74	85	1
62	75	2
76	81	1
198	207	1
111	111	1
37	88	1
132	133	1
1	4	2
57	58	1
129	138	2
2	24	3
123	134	1
29	37	1
210	211	1
25	32	1
80	189	2
122	123	1
9	98	1
211	212	2
188	189	2
43	47	1
161	164	1
58	83	2
68	177	1
172	173	1
171	172	2
41	42	1
3	22	1
72	85	1
179	212	1
229	229	1
197	204	2
61	63	1
9	86	1
235	236	1
3	20	1
36	55	1
107	108	1
138	143	2
207	208	1
27	28	1
179	229	1
53	55	1
0	38	2
123	124	2
75	90	1
188	200	1
199	228	1
89	108	1
5	13	1
153	179	1
36	57	1
161	162	1
167	168	2
194	227	1
48	62	1
201	208	1
105	121	1
105	139	1
44	237	1
27	37	1
2	22	1
190	192	1
131	134	1
50	56	1
81	85	1
82	83	1
66	68	1
6	17	1
23	24	1
4	6	1
124	125	1
173	181	1
54	55	1
234	238	1
106	179	1
54	84	1
220	223	1
