204	204	5
33	33	4
206	206	3
59	95	1
85	86	6
9	23	1
238	238	9
217	217	5
89	89	14
172	172	3
62	111	2
186	216	1
88	88	1
55	55	1
60	231	3
59	60	4
175	182	2
21	21	4
17	21	2
113	113	4
72	72	5
149	149	1
25	25	4
48	48	6
210	210	2
218	218	7
241	241	5
16	16	1
73	73	6
216	216	8
231	232	2
157	157	2
200	210	2
74	74	8
89	102	4
168	168	8
177	181	3
206	207	1
200	219	4
158	204	2
200	200	9
68	68	3
71	71	4
36	237	3
181	188	2
247	247	10
239	239	4
30	30	5
223	225	3
163	178	2
200	220	3
194	195	2
49	50	1
60	61	2
197	210	3
175	175	2
196	210	3
105	106	2
69	95	1
96	98	1
95	104	2
34	34	4
96	100	2
241	242	3
4	58	4
194	194	1
170	170	6
150	150	7
183	184	4
2	30	1
151	201	3
105	108	2
158	158	6
225	225	1
198	209	3
14	14	1
9	16	2
95	96	2
180	227	1
162	163	4
227	227	1
42	49	2
10	10	6
72	75	2
76	77	3
181	181	6
229	230	4
17	17	2
176	182	3
18	21	4
87	87	4
4	4	4
178	179	2
198	198	5
45	45	9
163	164	4
41	54	3
187	188	1
150	206	4
15	57	1
159	160	1
214	246	3
43	53	1
66	71	2
96	96	4
169	169	3
50	50	3
89	104	2
161	161	2
12	59	3
246	246	4
49	49	5
229	229	2
191	191	2
234	235	1
56	56	9
225	227	2
154	154	12
147	159	1
195	195	2
62	77	5
175	176	3
36	36	1
163	163	7
62	62	5
59	94	9
15	15	2
98	98	6
236	236	5
1	3	6
199	215	3
35	35	8
164	172	1
165	166	2
24	24	5
236	238	3
77	78	1
74	101	1
94	94	8
14	34	6
231	238	1
230	230	6
201	201	4
158	180	4
233	234	6
80	81	2
76	76	5
39	39	4
101	101	2
62	108	2
17	31	2
162	177	2
156	156	8
37	67	4
80	82	3
108	108	5
211	211	8
231	231	7
36	38	2
110	110	2
73	74	1
179	180	1
47	47	6
71	72	5
54	55	3
237	237	9
32	32	2
238	239	7
103	103	3
236	237	1
165	165	2
69	69	6
56	57	1
58	58	6
213	213	5
59	107	5
183	183	2
5	47	3
171	173	1
76	106	1
186	186	2
104	105	3
181	184	2
240	240	1
179	179	3
156	179	2
33	49	2
95	97	3
151	151	4
79	79	7
185	185	1
215	215	8
20	20	4
40	40	10
1	17	1
3	3	1
36	46	3
28	29	3
104	104	2
4	29	2
247	248	1
238	240	3
180	180	11
76	90	2
71	74	2
117	118	1
234	234	3
7	7	3
199	199	3
203	203	2
190	190	4
215	216	1
76	86	2
6	6	6
152	158	5
176	176	1
99	99	2
182	183	1
115	115	6
228	228	4
2	2	1
100	100	3
82	82	3
61	61	6
107	107	5
9	10	3
29	38	2
185	186	2
12	14	3
213	214	3
224	224	3
187	189	3
205	207	2
44	44	5
245	246	3
17	20	2
211	227	1
80	80	2
197	213	1
221	221	2
173	173	4
81	81	3
8	8	2
245	245	4
171	188	3
167	167	4
43	43	4
191	211	1
196	199	1
220	221	3
116	116	2
240	242	4
214	214	7
51	233	1
178	182	2
163	176	2
69	70	2
57	58	4
19	77	2
114	114	4
94	117	1
77	102	2
28	28	3
84	85	3
167	173	2
26	26	2
6	31	2
218	219	6
82	86	3
160	161	1
157	163	1
12	54	1
96	120	1
10	35	1
152	152	2
77	77	4
187	187	4
179	186	1
42	43	1
207	207	3
232	232	5
232	233	1
228	229	1
118	118	1
243	243	3
37	37	3
34	65	1
197	198	8
189	189	5
64	76	1
162	162	5
90	90	2
184	184	4
34	51	3
208	208	4
235	235	3
63	63	2
27	27	1
11	21	2
197	197	2
192	193	1
178	178	6
70	71	2
116	117	3
43	55	1
209	209	2
65	75	1
38	38	2
226	227	2
75	107	2
242	243	4
78	82	1
41	41	4
73	76	2
90	95	1
219	221	2
3	5	2
53	54	3
199	203	3
14	19	1
226	226	2
87	88	4
174	174	2
210	211	2
34	64	1
200	214	2
34	66	1
59	70	1
117	117	3
109	110	2
84	84	2
202	202	2
55	56	1
188	189	1
92	92	3
181	187	2
209	225	1
223	223	4
19	19	2
168	169	1
102	103	3
118	120	1
159	181	2
160	160	2
71	75	2
244	244	4
65	67	1
79	81	2
6	46	2
74	105	1
85	85	2
178	185	1
146	146	2
223	246	1
105	105	4
1	6	1
67	67	2
191	192	2
31	43	1
6	22	3
54	54	2
175	240	3
100	101	3
74	114	2
183	193	2
22	22	4
46	46	1
159	159	2
66	67	1
78	96	2
200	201	1
106	106	2
81	113	1
228	230	2
23	23	1
48	60	1
171	175	2
243	244	1
203	208	1
111	111	1
209	215	2
109	109	1
198	199	1
112	112	1
119	238	1
116	120	1
62	231	1
217	218	2
33	90	2
92	104	1
114	120	1
230	231	1
106	107	2
177	177	1
44	56	1
188	188	5
244	245	2
2	51	1
107	108	1
183	194	1
66	66	1
33	35	3
165	177	1
72	73	2
157	159	2
103	105	3
196	204	2
118	119	1
220	220	1
75	75	1
74	90	2
199	204	1
240	245	1
153	153	3
6	48	1
152	153	1
192	205	1
156	157	1
64	65	1
242	242	2
240	241	1
171	171	2
188	191	1
164	164	4
204	205	3
198	216	1
163	177	1
51	65	1
52	53	1
86	86	1
75	96	1
83	95	1
192	211	1
181	182	1
181	190	1
79	93	1
36	48	1
7	110	2
118	237	1
6	224	1
14	15	1
103	104	1
12	12	1
5	5	1
75	106	1
46	47	1
170	171	1
74	75	1
115	116	1
155	155	1
70	121	1
193	194	1
248	248	3
180	181	1
212	212	1
42	42	1
97	100	1
225	226	1
237	249	1
81	82	2
25	26	1
205	205	1
114	116	2
13	13	1
88	89	1
182	182	1
19	53	1
82	85	1
205	208	1
47	48	1
95	95	1
78	78	1
58	119	1
174	175	1
224	226	1
233	233	1
152	201	1
6	249	1
83	83	1
69	96	1
22	115	1
