9	9	3
193	193	7
33	33	9
114	114	9
20	21	2
149	149	3
181	182	4
180	180	13
163	163	10
40	40	6
128	129	8
182	182	11
158	182	4
145	146	1
59	59	10
99	100	4
137	169	2
178	178	8
127	127	10
30	30	8
191	191	12
166	166	6
26	27	9
173	176	6
129	159	3
158	160	2
37	37	10
125	125	6
130	142	4
145	165	9
195	195	2
4	4	2
184	187	1
33	136	1
141	142	7
192	192	11
152	152	9
182	184	3
161	161	5
8	8	9
135	135	6
185	185	6
146	169	1
163	179	6
0	0	2
88	88	4
172	172	7
130	133	4
139	139	11
137	137	8
48	48	2
125	127	1
147	147	7
11	177	3
141	141	12
192	193	3
184	184	4
183	184	6
28	28	5
41	150	2
146	149	3
133	167	1
72	72	8
53	55	2
109	109	6
16	29	1
81	96	4
149	150	8
96	98	2
140	140	23
179	180	3
47	48	7
118	118	7
10	42	3
66	66	4
63	63	5
0	2	2
34	134	4
159	161	3
122	122	12
134	134	9
76	76	2
186	186	10
99	99	9
27	27	5
107	107	5
174	175	13
84	84	6
168	168	8
17	18	8
179	192	1
43	48	3
121	121	10
152	153	5
42	184	1
148	148	8
191	192	3
189	189	9
124	124	5
159	159	20
190	192	4
3	37	1
145	145	14
146	165	5
184	185	3
183	183	9
188	189	6
170	170	3
177	177	7
194	194	5
58	58	4
3	3	12
129	129	5
41	41	9
187	195	4
135	140	3
22	22	2
157	157	10
162	163	6
21	21	2
103	103	4
190	190	13
9	24	1
178	179	5
149	168	2
24	31	1
116	116	3
132	132	12
122	123	3
182	183	5
111	112	2
165	165	2
58	59	3
169	169	8
56	56	12
6	7	6
115	115	10
103	104	5
134	135	2
29	30	4
30	32	3
1	1	4
179	179	8
102	103	5
151	168	1
130	130	5
34	34	6
12	12	7
2	154	2
173	174	6
70	80	2
49	49	8
70	70	2
168	169	5
17	17	1
162	162	4
23	23	5
101	102	2
169	192	2
55	56	6
57	58	3
35	36	6
132	133	4
193	194	14
136	136	13
101	101	11
42	42	10
151	151	7
72	73	1
42	43	1
165	166	4
10	11	4
188	188	9
153	155	1
98	98	8
3	17	2
83	84	4
100	100	2
54	54	15
67	67	3
33	49	1
2	2	5
68	68	17
187	187	4
15	16	7
31	31	7
39	39	5
122	126	3
38	39	4
138	139	2
62	62	2
142	142	9
4	177	2
29	29	10
150	155	1
32	129	4
105	105	2
26	26	14
64	78	5
53	53	8
119	120	2
137	140	1
171	171	7
14	14	10
148	149	2
155	156	9
11	44	1
20	20	9
25	25	3
173	177	3
63	68	4
116	117	6
34	35	5
18	18	10
136	140	2
156	156	4
102	102	1
158	158	14
18	19	3
175	185	1
194	195	2
10	14	1
19	22	3
180	190	1
129	135	1
189	190	5
45	45	7
1	2	4
146	146	3
109	110	6
171	172	6
187	188	9
112	112	9
106	107	1
159	160	2
165	193	2
25	29	2
175	175	7
46	54	1
12	13	6
68	79	1
160	160	8
28	29	2
143	143	5
47	47	5
149	172	1
35	35	1
97	97	4
181	181	3
119	119	8
169	172	1
139	140	3
110	110	4
10	126	6
69	69	7
120	120	7
10	162	1
22	23	2
176	177	5
9	10	2
11	11	1
123	124	3
85	85	5
0	1	9
175	193	2
111	125	3
94	118	1
162	177	2
123	123	7
58	82	1
149	169	2
118	119	2
54	55	1
96	96	1
165	167	2
51	52	3
88	89	2
10	10	8
148	150	2
153	153	3
86	86	2
163	176	1
19	19	4
176	178	2
133	133	3
105	106	5
136	137	1
138	138	3
101	103	6
173	173	7
36	36	6
113	115	2
106	106	3
126	126	2
108	108	5
117	123	1
94	114	1
114	115	4
70	71	3
183	190	2
65	65	3
163	164	1
134	138	4
3	5	1
154	154	5
104	104	2
180	181	3
63	79	2
113	114	3
7	7	4
58	73	1
121	122	2
39	156	3
147	150	4
111	111	6
32	33	3
150	150	5
144	167	3
38	38	5
139	158	1
64	64	2
164	164	2
147	148	2
140	157	1
73	73	5
118	166	4
39	40	2
8	40	1
61	62	1
49	50	2
15	127	1
93	94	1
5	6	1
25	26	3
171	185	2
166	167	6
146	147	1
3	4	2
176	176	1
196	196	3
10	13	1
175	178	1
16	16	5
150	174	2
50	187	3
177	178	3
104	105	2
65	76	1
23	24	4
116	118	1
141	147	1
13	23	1
29	31	1
28	32	1
170	171	2
140	150	3
12	125	1
13	13	2
48	49	2
32	32	6
15	15	1
16	18	2
50	56	3
24	24	3
118	120	1
148	158	2
119	121	2
1	3	1
17	112	3
137	139	1
175	176	3
52	52	1
9	11	2
98	152	2
135	137	2
127	128	1
167	167	4
132	156	1
35	45	1
35	135	1
146	148	3
162	170	1
5	5	6
41	42	2
158	173	1
74	74	1
9	40	1
185	186	3
94	95	2
77	78	3
157	162	4
174	174	7
40	177	1
13	14	2
165	174	2
135	168	1
110	111	1
39	155	2
96	127	1
2	8	1
81	82	2
65	78	1
150	151	1
87	87	1
177	194	1
94	94	2
157	158	2
150	153	1
43	43	1
130	131	1
16	17	3
137	138	3
37	147	1
80	81	1
44	46	1
117	122	1
169	170	2
116	122	1
30	149	1
15	17	1
114	124	1
161	166	2
149	165	1
180	192	1
161	162	1
33	37	1
154	155	1
196	197	1
72	99	1
4	5	2
151	152	1
166	176	1
174	181	1
72	78	1
66	77	1
42	149	1
80	80	3
44	44	1
68	82	2
160	161	1
142	183	1
79	84	1
107	108	2
131	133	1
52	57	1
132	167	1
174	194	1
150	152	1
143	144	1
197	197	1
58	62	1
128	128	1
129	136	1
190	191	2
179	182	1
186	188	1
4	17	1
69	80	1
159	168	1
112	119	1
112	113	1
146	166	1
83	83	2
10	12	2
57	57	1
9	13	1
