19	47	1
15	17	2
53	53	16
48	48	10
60	60	9
50	50	18
57	57	21
59	62	2
7	10	4
4	4	27
24	24	8
16	49	5
2	2	13
23	26	2
25	26	6
62	64	3
46	46	4
66	66	4
10	50	6
63	63	16
1	2	4
1	1	6
83	83	9
57	58	3
51	52	6
6	6	2
78	79	4
12	50	6
84	84	19
30	31	9
0	0	13
79	81	2
80	81	2
20	21	3
69	69	34
6	7	2
50	53	4
28	28	6
87	87	12
70	70	12
82	82	6
85	85	4
71	71	18
78	80	1
2	4	1
12	51	5
82	83	11
16	47	1
78	78	8
52	53	2
75	75	21
17	50	3
58	59	7
61	65	4
27	27	25
26	26	9
54	54	25
76	76	6
47	62	1
11	11	9
54	55	4
85	86	1
23	25	3
62	62	5
47	47	7
58	58	12
19	19	14
49	82	3
22	25	2
55	56	6
72	73	4
59	59	11
14	89	3
23	23	11
72	80	4
74	74	25
67	67	16
68	68	25
7	7	2
89	89	20
72	76	1
86	86	4
25	25	8
87	88	4
62	65	2
15	19	1
46	47	4
15	15	11
73	73	8
80	80	5
22	22	9
13	13	3
57	80	4
3	3	5
79	80	7
75	87	1
56	58	1
31	31	8
17	17	7
24	25	3
23	24	2
65	66	6
84	85	2
70	75	1
10	12	2
81	81	7
60	61	5
67	85	5
79	79	7
12	12	5
62	63	6
9	12	1
77	77	3
21	22	3
65	65	10
50	54	2
57	69	3
49	55	4
59	60	3
75	76	3
18	19	3
77	80	1
55	55	9
70	83	4
51	51	9
64	64	8
10	10	9
20	20	11
30	30	10
71	72	4
4	57	1
5	17	2
14	14	14
46	58	2
10	13	1
52	52	9
55	80	7
56	57	10
18	18	3
72	78	1
46	75	4
16	16	2
29	29	6
24	51	1
22	26	2
50	51	4
77	78	3
56	56	8
72	74	2
64	65	3
3	4	5
61	63	2
8	12	1
22	27	1
17	49	6
90	90	2
17	47	1
88	88	2
70	81	1
7	13	4
53	55	2
53	54	2
72	82	3
80	83	1
8	8	2
81	84	1
50	52	4
16	17	1
85	87	5
12	13	3
72	72	3
47	65	2
58	67	2
9	14	1
52	55	5
60	62	1
62	81	3
54	81	4
5	5	4
49	49	4
49	84	2
4	14	2
13	14	2
81	82	2
29	66	3
89	90	1
74	76	2
61	67	1
60	63	3
76	78	2
19	88	1
80	82	3
10	11	2
49	83	1
49	78	1
48	83	2
47	74	4
21	21	1
8	10	1
5	6	5
7	34	2
11	12	1
61	61	2
18	51	1
86	87	1
11	52	1
55	81	2
67	68	1
47	48	1
46	50	1
57	81	1
47	49	1
74	80	1
48	49	1
46	48	1
9	9	1
27	28	1
6	13	1
49	50	5
14	19	3
77	83	1
24	26	1
34	34	1
6	64	1
19	31	1
0	14	1
76	81	1
82	85	1
