5	5	19
125	126	10
66	66	4
37	37	29
141	142	10
137	137	15
21	22	8
77	77	27
93	93	9
58	59	5
8	17	2
18	18	11
0	0	14
21	23	19
111	111	6
43	43	33
7	7	20
156	156	12
67	77	1
73	73	12
96	108	3
4	7	5
159	164	3
29	31	5
130	155	3
15	16	14
68	83	2
10	12	10
61	62	5
33	34	7
159	159	27
22	26	2
97	97	5
123	125	3
91	91	12
42	42	22
29	29	16
2	2	3
87	107	2
174	174	8
126	126	21
26	27	2
117	117	8
73	74	2
170	170	9
13	13	17
68	68	7
97	100	2
16	16	21
78	78	10
136	156	5
143	143	14
177	178	2
11	11	21
6	7	6
88	88	10
7	9	5
36	40	1
134	149	6
14	14	32
75	76	7
22	31	1
60	96	3
71	71	16
68	73	2
176	176	28
134	134	15
19	20	8
38	41	4
6	37	3
139	139	26
95	96	13
119	120	7
21	30	2
99	100	3
19	19	10
171	171	26
153	153	27
119	119	9
73	94	2
173	173	30
88	89	5
57	59	6
158	158	32
40	41	2
52	54	3
43	45	10
145	162	2
118	118	29
60	60	11
84	84	7
36	36	28
131	131	8
150	151	8
65	159	1
22	23	11
27	27	11
54	54	16
9	9	22
6	11	2
50	51	8
5	6	9
95	95	28
121	121	11
63	64	5
106	106	8
124	125	5
21	21	11
178	179	7
8	9	6
76	76	15
175	175	9
112	112	7
15	15	27
127	127	11
94	95	16
161	161	19
122	122	13
8	10	5
90	90	32
10	11	14
163	166	4
4	6	3
137	138	14
132	132	17
141	141	14
10	10	33
23	25	6
72	72	21
60	142	1
125	139	5
9	20	5
89	101	1
64	64	11
152	152	2
172	172	13
38	38	45
41	42	10
43	44	13
145	146	5
34	34	3
32	32	24
0	8	2
65	66	6
38	39	15
113	114	2
172	173	5
89	91	1
79	79	10
167	168	17
149	150	5
12	12	6
169	169	13
127	128	3
92	92	20
2	5	2
56	57	5
131	137	4
7	10	4
96	98	5
96	97	7
157	157	17
92	93	2
62	100	3
146	146	30
17	18	16
108	110	6
82	82	4
140	140	14
52	53	10
39	40	13
94	96	5
11	12	10
79	80	4
167	167	18
44	44	10
149	149	13
167	175	3
145	145	11
35	43	6
97	98	6
124	124	4
131	147	4
31	32	14
142	142	43
128	129	7
150	150	15
25	26	10
68	74	2
180	180	6
166	166	5
22	29	2
118	119	4
168	177	1
125	125	20
141	147	4
115	118	2
55	56	14
134	136	3
15	33	6
59	62	2
14	15	11
77	78	8
24	24	10
173	174	4
77	91	1
85	89	2
40	40	30
147	147	20
114	115	4
154	174	4
132	159	1
71	72	8
116	116	21
130	159	5
22	32	1
77	103	1
10	14	10
133	133	23
115	116	5
174	175	2
67	81	2
57	57	13
11	13	9
163	163	14
4	19	2
16	17	7
110	110	9
22	36	2
34	35	6
41	41	25
16	31	3
136	136	12
70	72	1
83	84	3
160	165	3
147	148	6
155	157	3
3	3	14
91	94	3
59	59	18
30	31	5
126	127	4
59	65	2
84	85	3
111	116	4
58	58	23
13	22	8
138	138	26
87	88	1
121	122	9
60	61	4
6	6	15
144	144	6
123	124	11
78	80	7
33	33	23
164	165	4
165	165	10
163	164	1
68	85	5
96	96	16
129	129	11
168	169	7
14	36	1
160	161	8
155	158	2
106	107	5
17	20	3
35	35	12
74	74	8
61	89	2
105	105	7
30	30	21
148	149	4
14	16	9
168	168	22
104	104	8
151	151	6
81	81	12
146	161	1
130	157	4
101	101	8
6	23	1
22	30	1
113	119	2
3	12	6
102	102	10
12	20	1
138	139	18
155	174	2
4	4	8
103	103	3
118	121	1
31	31	19
13	23	3
13	14	9
9	11	3
108	109	2
135	135	12
88	152	4
12	19	3
63	63	4
43	50	4
49	50	3
65	135	2
28	28	23
1	1	9
17	17	18
67	67	8
145	166	2
158	159	11
13	15	2
67	68	3
22	22	6
16	32	2
106	111	4
128	145	3
15	18	3
29	30	14
23	23	9
39	39	19
130	130	3
127	130	6
143	145	4
58	102	1
4	5	5
75	81	1
57	58	4
161	162	10
23	24	10
42	43	4
65	65	11
59	60	3
77	106	5
54	55	6
17	34	1
52	52	9
25	27	2
3	19	1
6	18	1
86	87	3
138	150	5
97	109	4
127	151	4
21	26	1
160	160	5
139	154	3
95	100	3
2	4	6
172	175	1
4	12	4
27	31	1
161	178	2
1	2	10
105	113	4
162	162	7
24	27	1
148	148	24
76	77	5
78	81	3
15	42	2
132	162	3
108	150	2
125	140	1
56	59	3
19	21	4
109	109	5
98	98	2
89	89	8
3	4	6
38	42	1
101	105	3
61	61	12
26	43	3
115	134	2
94	94	17
86	106	6
3	5	2
140	149	1
0	1	5
7	8	6
5	8	1
117	118	3
5	9	2
26	26	9
151	153	3
143	146	2
19	27	1
42	44	6
23	29	3
114	114	3
170	172	2
6	10	2
38	44	1
74	93	1
66	72	2
88	102	1
90	94	3
114	126	1
25	25	16
5	11	2
55	80	3
19	24	3
113	113	12
104	105	5
154	155	5
106	119	4
8	8	14
146	147	1
56	58	2
63	89	2
17	19	3
67	83	6
123	123	13
123	126	4
72	73	5
134	151	1
20	21	1
164	164	7
28	34	1
157	158	8
111	128	1
65	134	4
134	135	3
9	29	1
81	82	4
25	43	2
62	62	3
77	87	1
62	105	4
45	45	5
36	37	8
55	55	15
27	28	6
116	117	4
144	145	3
157	170	1
12	13	3
50	52	3
141	172	1
179	179	14
136	155	4
148	161	3
154	154	5
93	94	11
59	61	4
145	163	6
110	111	4
129	130	7
87	87	11
103	104	2
75	112	2
112	114	3
131	159	3
61	64	4
26	29	1
120	124	2
83	105	1
74	100	2
11	16	2
98	99	2
84	105	1
100	105	6
76	96	2
106	108	2
166	168	1
168	176	1
144	159	2
5	7	5
59	64	2
59	132	1
32	33	2
108	108	2
157	175	2
113	118	4
37	39	4
81	88	2
8	11	4
93	134	1
141	149	3
34	40	1
155	155	5
152	153	3
59	131	1
24	25	2
86	86	3
71	133	2
165	167	1
119	121	3
165	166	1
4	10	1
28	32	2
113	126	2
156	157	1
106	109	1
8	20	1
178	178	1
132	133	8
1	6	2
171	172	2
114	125	6
72	77	1
115	115	4
166	167	4
51	52	2
51	51	3
59	103	1
70	70	4
127	129	3
111	119	3
33	35	3
4	17	1
154	156	1
171	176	2
28	30	1
8	16	2
133	134	4
96	105	3
175	176	3
177	179	1
73	95	2
109	111	1
64	136	4
18	19	3
143	149	2
77	97	1
107	107	2
35	44	3
4	9	3
99	99	7
84	103	3
170	175	2
102	104	1
14	32	2
142	143	7
86	88	2
16	22	2
13	20	3
157	160	4
20	22	1
75	75	6
20	20	7
77	92	1
8	14	1
122	145	3
35	65	3
72	92	2
2	3	2
10	13	3
24	26	2
66	85	1
49	49	2
1	7	1
74	75	2
96	102	1
62	103	2
2	11	2
6	8	4
64	65	2
34	43	1
85	85	7
110	112	3
6	17	1
133	142	2
83	104	1
162	164	5
20	29	1
130	131	2
76	81	2
25	29	3
124	154	1
128	128	1
21	24	1
44	45	3
143	144	2
7	23	2
164	166	2
23	37	2
173	175	2
138	148	2
107	108	1
103	106	3
56	56	3
83	83	1
9	21	1
1	33	2
45	46	2
65	131	1
159	160	2
41	43	1
5	16	1
53	53	3
122	134	2
9	30	4
36	87	1
4	14	1
59	96	2
130	153	1
16	33	1
83	103	1
87	89	1
12	15	2
88	153	1
135	162	3
10	16	2
35	37	2
132	143	1
85	87	1
15	32	1
89	109	2
122	123	1
111	125	2
163	180	2
14	27	1
14	41	1
163	176	3
140	156	1
105	112	1
135	136	2
153	154	3
67	84	2
9	17	1
36	43	1
80	80	4
65	68	1
137	149	2
169	177	2
111	151	2
14	22	1
111	112	1
148	154	1
65	77	1
100	100	2
7	19	1
162	178	1
36	38	1
35	45	1
125	151	1
150	166	1
89	113	1
1	5	1
1	34	4
80	90	1
74	112	1
92	94	2
90	91	1
68	70	1
136	137	4
68	86	1
3	15	1
70	71	2
13	18	1
85	86	1
89	104	4
89	90	3
39	44	1
10	17	1
4	15	1
40	65	1
125	144	1
83	106	2
37	38	3
74	81	1
10	35	1
28	29	3
16	18	2
118	126	1
9	10	1
170	174	1
15	35	1
78	79	1
11	17	1
140	152	2
64	68	2
129	148	1
32	39	1
0	6	1
161	163	1
128	130	1
121	137	1
15	31	1
90	96	1
80	81	1
120	120	1
109	110	1
132	134	1
141	173	1
140	141	1
65	67	1
