133	133	22
93	94	5
114	116	2
127	127	9
90	98	2
59	61	6
65	65	12
118	120	5
21	21	10
121	121	9
99	99	4
66	68	2
61	62	2
31	33	3
96	96	12
102	102	12
71	71	15
57	59	2
53	53	8
108	109	4
135	135	11
72	72	7
30	37	2
31	38	1
17	18	2
134	135	10
66	67	13
64	64	15
93	93	17
67	69	3
138	139	4
136	138	2
61	61	9
122	128	1
67	68	7
42	42	13
77	78	5
134	134	23
37	37	9
75	75	8
14	14	7
123	124	12
129	129	7
39	39	9
128	130	11
84	84	11
140	141	6
48	48	15
63	63	9
15	16	12
3	3	4
114	117	3
131	131	15
49	49	14
48	49	7
140	140	20
110	110	8
74	74	14
88	89	4
83	83	5
118	118	9
114	131	2
119	137	1
123	123	7
33	33	7
22	38	6
30	30	10
141	141	6
36	36	8
51	51	3
34	34	11
28	28	20
111	112	5
50	50	5
82	85	3
26	26	11
141	142	10
23	23	14
69	73	1
67	87	1
128	128	16
24	24	22
29	29	16
104	104	10
126	131	6
117	117	7
89	89	3
133	135	6
118	119	10
12	50	1
23	24	7
122	122	12
66	66	12
124	125	3
15	39	6
115	115	13
79	79	10
120	121	2
41	42	2
142	142	22
55	55	6
47	47	11
132	132	9
67	101	1
19	19	12
57	100	1
136	140	1
66	75	2
6	6	12
49	101	2
22	22	7
27	28	6
15	15	7
82	84	3
96	99	2
98	98	14
112	113	2
23	36	2
95	96	2
124	124	8
81	82	4
81	81	14
77	77	3
29	30	7
62	84	3
16	16	10
22	23	5
144	144	12
126	126	4
11	11	6
140	143	4
8	8	6
107	109	2
57	57	22
82	82	14
0	1	4
43	43	7
114	115	4
30	31	2
133	136	3
103	103	8
37	38	3
31	32	5
113	114	4
91	91	6
130	130	9
41	41	15
101	101	5
105	106	10
39	40	2
142	143	8
9	9	1
52	100	4
128	129	11
6	11	2
31	31	11
80	80	10
133	134	2
83	136	1
40	40	15
56	56	14
10	10	14
62	67	1
17	17	11
5	6	2
18	18	24
73	73	5
17	19	3
81	104	10
17	22	2
76	76	11
92	92	5
36	37	9
68	140	3
102	104	1
106	106	9
20	21	4
82	83	1
76	77	9
120	131	3
144	145	1
94	94	13
8	9	4
2	3	1
27	27	6
125	125	11
40	41	3
95	95	10
84	85	1
105	105	6
71	118	3
12	13	7
65	66	2
112	112	2
132	133	1
138	138	10
64	65	5
30	36	3
79	80	7
111	111	10
77	80	1
146	146	6
56	58	4
104	109	2
116	117	3
25	25	5
122	124	2
116	116	7
123	127	2
12	16	1
32	32	6
68	68	3
91	95	1
15	18	5
113	130	5
72	73	1
135	136	3
64	128	2
73	74	2
141	143	1
102	103	6
36	53	1
108	108	8
75	90	1
117	118	4
70	70	3
119	119	7
85	141	2
9	27	1
131	135	2
70	74	2
16	31	5
53	60	1
51	52	1
143	143	1
120	141	1
92	93	3
59	60	8
112	114	3
117	120	1
71	72	2
137	140	2
11	25	1
78	79	2
17	20	1
4	5	6
30	38	4
50	51	3
62	62	11
59	59	2
129	130	3
9	10	3
26	36	3
81	103	3
80	101	1
14	15	4
52	52	5
4	4	2
104	116	2
145	146	2
60	61	10
18	19	4
131	134	3
136	136	6
107	128	2
80	87	1
68	69	1
62	63	3
127	129	3
134	140	2
38	38	11
113	118	1
139	139	5
89	94	1
24	25	1
71	117	1
135	139	2
6	10	2
90	106	4
58	59	1
18	21	2
125	140	2
2	2	1
34	38	5
83	84	2
107	108	2
53	54	4
126	127	1
78	78	3
90	92	1
99	100	3
113	113	4
49	50	3
21	22	5
125	142	1
60	60	10
70	138	1
77	79	3
75	77	2
109	109	5
34	35	2
100	101	3
94	95	3
40	49	3
90	105	3
67	67	5
12	12	1
54	54	4
125	126	2
10	27	1
99	127	1
112	115	1
100	100	4
113	134	4
1	2	1
89	90	6
137	138	2
30	32	2
21	30	2
52	57	1
106	109	1
116	118	1
0	0	3
118	121	1
114	114	6
25	36	1
10	28	2
88	106	2
68	80	3
130	131	2
90	90	1
61	63	3
91	94	2
137	137	3
52	53	3
124	133	1
89	105	1
98	106	1
120	136	1
75	76	1
26	27	1
28	29	2
124	126	1
122	123	3
79	81	1
49	53	3
81	89	1
76	78	2
9	15	2
20	20	2
69	69	5
67	86	3
140	142	1
127	132	1
3	4	3
68	100	1
97	99	2
48	58	1
90	97	1
110	111	2
28	30	2
58	58	2
85	85	3
20	97	2
53	56	1
120	120	5
82	131	1
13	13	3
97	97	1
1	11	1
79	90	1
89	98	1
66	83	1
83	106	2
65	86	1
53	62	1
47	48	1
137	139	1
3	13	1
17	39	1
92	94	3
38	39	2
83	135	1
5	5	2
24	37	1
106	107	1
8	37	2
48	52	1
74	75	2
22	24	1
115	116	1
36	38	1
64	66	2
69	70	1
98	99	1
134	143	1
1	1	1
21	23	1
128	141	1
2	10	1
123	135	1
73	100	1
107	119	1
