88	89	2
94	95	14
12	12	3
12	13	6
116	116	18
11	11	8
157	157	18
114	162	1
76	106	1
55	55	9
115	117	4
64	102	3
31	31	20
58	58	5
58	63	3
13	13	17
76	82	8
162	163	7
0	0	14
20	20	12
59	60	4
21	21	21
66	82	5
68	98	4
7	7	11
73	82	3
75	75	15
147	147	12
140	140	4
10	10	9
30	48	2
19	21	1
60	61	8
41	41	9
15	15	4
158	178	5
161	171	1
45	47	6
39	39	4
104	108	2
160	166	1
154	154	14
186	186	7
36	36	11
28	28	6
135	138	4
174	174	6
29	29	5
79	97	5
55	97	3
175	176	1
47	47	6
71	84	5
66	67	7
40	40	15
90	90	12
107	107	11
184	185	2
92	92	3
52	53	1
109	109	10
23	33	5
20	24	1
68	95	1
89	89	10
158	158	2
67	67	14
153	154	3
17	17	10
181	181	5
38	67	2
46	56	1
6	8	4
183	183	5
14	41	2
41	153	3
123	123	6
136	139	1
137	137	7
18	19	3
8	8	8
61	61	2
100	100	13
71	71	6
137	182	1
150	150	9
25	25	4
113	114	5
113	130	14
125	125	10
8	13	3
76	98	3
34	62	5
163	163	8
111	112	2
179	179	10
140	144	2
77	77	2
23	144	1
156	156	16
48	48	6
6	7	2
73	99	2
21	22	10
168	168	6
153	153	10
66	66	8
133	134	5
58	103	7
47	48	1
158	161	5
112	112	7
115	118	3
179	180	5
119	163	2
120	120	13
82	134	4
5	20	2
127	127	15
114	115	3
9	9	1
91	91	5
35	63	1
115	115	3
2	2	15
134	137	2
119	119	11
157	158	1
115	120	4
8	10	4
16	16	14
124	124	3
108	109	4
85	85	11
133	139	2
27	27	4
8	27	3
185	185	4
59	108	6
64	95	1
83	83	4
178	180	1
3	3	16
79	81	3
93	93	11
119	122	1
35	37	4
87	87	11
119	120	4
4	5	9
31	32	3
79	79	5
131	131	7
19	19	5
92	93	3
65	97	7
165	166	2
65	65	7
138	138	8
22	28	1
45	45	6
117	117	10
102	104	8
178	178	4
166	166	5
136	137	2
28	48	2
4	145	1
114	114	13
170	174	4
82	109	3
155	155	8
117	119	3
150	167	3
150	155	3
130	135	5
102	102	1
105	105	12
94	94	6
25	26	3
43	43	5
68	68	7
42	42	6
130	130	5
26	138	2
173	173	7
157	166	12
155	180	2
80	80	5
74	75	3
80	81	6
6	6	11
62	62	2
56	91	6
188	190	2
82	94	1
162	162	15
75	101	4
128	129	1
46	61	1
68	107	1
44	47	3
72	72	16
66	101	3
44	60	4
108	108	10
32	42	6
161	181	3
115	116	2
142	143	6
23	54	6
65	102	2
8	14	6
42	59	5
147	148	4
131	133	2
142	167	4
16	24	4
99	103	4
133	138	2
2	3	5
40	152	3
170	171	2
169	169	6
140	141	6
26	26	12
148	148	9
161	167	2
160	162	4
26	32	8
33	150	1
129	129	2
73	96	2
134	134	4
120	122	3
130	132	1
33	35	4
118	118	14
110	110	12
3	7	4
44	61	1
117	164	1
8	9	5
64	94	1
125	130	1
151	151	3
137	139	5
141	143	3
18	18	7
32	103	1
59	59	10
152	152	10
31	35	6
110	114	4
18	22	2
106	106	9
29	36	4
145	145	9
76	76	5
78	84	4
53	53	18
78	79	7
70	71	5
34	34	4
63	106	1
70	144	1
64	65	5
0	13	1
73	100	1
33	33	7
132	132	4
69	95	3
120	127	3
176	176	2
170	170	3
12	26	4
44	45	2
55	90	1
143	143	5
23	23	14
47	49	1
31	45	3
90	94	2
103	103	7
19	151	1
96	96	2
161	162	9
102	103	6
19	33	3
39	40	4
187	187	3
5	6	5
145	147	5
54	91	1
54	55	1
78	80	5
63	63	2
24	151	3
35	35	5
74	82	3
67	101	4
104	106	1
93	94	7
39	140	2
169	174	4
136	177	5
76	89	2
83	89	4
149	149	4
132	134	2
155	162	1
127	128	2
34	36	3
57	61	2
71	144	2
187	190	1
104	104	3
159	176	1
85	88	3
43	44	3
171	173	5
27	35	4
120	126	4
113	136	2
98	106	1
76	99	1
124	138	1
97	102	1
30	32	1
33	34	2
123	124	3
18	57	4
34	39	1
97	97	10
73	73	3
93	116	1
117	118	6
86	87	5
23	151	2
27	29	7
175	175	2
59	62	4
79	102	2
68	102	6
139	157	1
122	122	16
28	29	2
61	62	8
27	43	2
6	17	4
139	139	6
0	12	6
54	83	7
53	54	2
57	117	1
3	20	2
96	102	1
86	142	1
121	121	3
101	102	3
59	63	1
105	106	3
142	142	13
113	113	6
93	117	1
133	136	4
71	92	2
70	97	1
112	130	3
86	86	2
66	102	2
165	165	3
73	76	3
41	42	1
10	21	3
54	54	1
128	128	4
88	88	6
33	149	2
182	182	4
145	146	1
70	92	4
91	94	4
156	182	3
184	184	3
7	23	3
105	107	11
161	163	2
98	101	1
34	35	3
161	180	3
1	1	8
11	42	6
45	46	10
12	43	5
82	82	1
24	24	11
159	159	4
48	49	2
37	37	7
46	47	3
94	97	2
79	101	2
109	117	5
56	56	1
67	68	2
10	28	2
109	112	2
6	16	1
33	36	2
98	98	5
39	88	3
53	67	4
103	104	3
77	83	1
162	175	1
5	19	2
137	180	4
90	92	1
71	83	4
46	46	6
38	38	3
27	30	3
41	66	2
119	132	2
146	146	1
30	31	4
3	8	2
58	118	4
76	83	3
167	167	4
141	152	3
81	136	3
1	16	2
70	70	1
112	131	2
180	182	2
141	141	4
52	52	2
72	81	2
27	28	2
28	42	1
143	144	1
100	102	6
78	78	1
126	138	2
111	111	4
17	24	2
106	107	4
139	140	2
32	34	2
84	84	6
74	74	3
154	155	1
48	58	2
15	56	3
64	69	2
154	177	3
139	164	2
63	64	1
5	5	4
82	121	2
66	104	3
124	129	2
133	137	2
112	139	3
59	66	2
19	20	2
84	90	1
96	98	1
186	187	4
110	115	1
89	90	4
64	64	3
54	56	1
5	145	1
17	21	2
19	57	3
116	118	3
3	6	1
132	137	3
178	181	3
42	111	1
136	136	2
115	162	4
168	174	3
101	101	4
161	161	3
17	23	1
96	97	2
19	44	1
70	72	1
93	118	4
15	42	2
58	59	1
155	189	2
62	63	3
78	102	1
42	46	1
15	16	2
115	121	2
82	135	1
32	138	2
171	172	1
73	95	2
139	152	1
14	29	1
76	77	1
98	102	1
14	15	1
151	164	1
114	119	2
0	148	2
70	142	1
16	17	3
58	60	1
4	4	1
166	177	5
111	132	2
1	2	2
126	129	3
30	30	2
166	169	1
22	54	1
42	43	5
32	36	4
177	180	3
26	139	3
27	60	3
88	109	1
81	81	4
178	179	2
124	132	2
64	107	2
28	35	2
114	117	2
22	22	3
99	102	1
99	104	2
52	97	1
70	95	1
144	147	1
77	109	1
5	8	1
20	21	1
30	36	1
130	131	4
158	179	1
115	122	1
111	113	3
38	88	1
144	144	3
14	14	5
64	72	1
135	137	8
63	108	2
38	42	2
76	105	1
76	88	1
112	113	1
5	143	1
10	11	2
167	168	1
42	135	1
112	127	1
83	84	3
141	142	1
156	158	2
84	95	1
91	92	3
8	15	1
18	20	1
38	39	1
164	181	1
162	168	1
121	125	4
4	6	2
55	56	2
41	67	1
164	164	1
143	151	1
177	177	3
75	77	1
154	164	1
11	43	1
34	59	1
36	37	3
125	126	1
110	112	1
40	41	1
65	67	2
29	63	1
27	32	2
110	141	1
22	34	2
25	29	1
29	30	3
182	183	3
31	46	2
187	189	3
64	106	1
30	42	1
157	167	1
41	140	1
119	164	1
72	73	2
22	23	1
149	151	1
158	184	1
34	44	1
136	156	1
161	168	1
95	96	1
32	32	2
57	59	1
64	100	1
157	169	1
11	12	2
23	24	1
8	54	1
21	53	1
119	162	1
180	181	1
124	126	1
106	108	2
134	135	3
58	117	1
82	132	1
43	46	1
110	111	1
124	125	2
107	109	1
92	118	1
120	123	1
53	97	1
154	161	1
83	90	1
160	176	1
61	63	1
124	128	1
83	85	1
187	188	1
31	36	1
6	19	1
2	7	1
30	141	1
1	15	1
75	109	2
140	157	1
123	127	1
22	29	1
74	137	1
75	110	1
131	136	1
32	105	1
72	103	2
71	91	2
56	57	1
52	94	1
159	182	1
111	163	1
83	100	1
80	85	1
164	165	1
183	186	1
79	85	3
23	25	1
100	103	1
135	136	2
74	134	1
158	162	1
155	182	1
113	163	1
97	103	1
52	61	1
22	35	1
15	57	1
57	57	1
104	105	1
95	95	1
71	90	1
