27	27	19
90	90	14
75	75	18
133	133	8
113	113	20
76	77	2
53	60	3
119	129	1
126	126	16
123	125	4
71	72	11
127	127	15
61	61	9
110	110	5
38	43	2
60	65	7
118	118	10
112	112	9
20	21	1
72	73	5
67	67	13
73	73	21
28	28	13
99	134	2
59	63	2
106	106	14
68	68	14
6	65	1
130	130	16
82	84	5
108	109	8
102	102	7
74	74	6
97	97	1
79	79	15
32	35	2
9	10	8
58	58	3
57	58	5
132	132	10
119	119	15
106	107	11
105	105	7
99	104	4
98	98	17
46	47	2
71	71	11
59	62	3
46	46	5
108	110	9
23	24	6
7	9	6
48	48	3
108	117	3
86	86	13
115	115	12
81	85	1
111	111	6
124	124	14
104	105	7
103	103	8
1	2	6
80	80	35
69	69	6
4	18	5
13	13	20
88	101	2
12	22	3
70	70	21
108	121	2
122	122	9
25	26	5
3	3	17
114	114	13
129	129	10
83	84	5
116	123	4
109	117	3
96	98	2
50	50	11
34	37	3
125	125	16
49	50	8
55	57	1
25	25	9
77	83	3
82	82	13
52	52	9
128	128	9
69	70	2
72	72	19
16	16	16
102	121	3
17	18	1
130	131	6
63	63	15
12	12	14
124	125	5
54	57	5
129	130	3
113	125	1
61	62	4
49	49	8
77	78	13
45	45	8
24	24	5
29	29	8
104	104	18
89	90	10
66	67	5
99	99	23
15	15	9
29	30	9
60	60	8
93	94	2
79	81	2
67	68	2
114	120	9
92	92	16
78	82	1
105	108	3
10	10	2
13	69	3
90	94	3
9	11	4
101	101	14
91	104	3
100	100	11
116	116	9
113	114	4
127	128	4
96	96	8
119	121	9
83	83	6
36	36	9
44	44	19
107	110	2
59	59	8
86	87	5
120	120	18
112	126	1
60	61	11
79	80	2
93	93	17
131	131	8
4	4	9
14	14	10
96	97	2
31	32	3
89	89	9
19	19	5
93	102	2
43	43	5
32	32	9
53	54	4
85	86	3
63	74	1
76	76	6
65	65	3
45	52	4
83	85	1
5	5	7
97	121	1
128	130	4
54	54	7
95	95	7
109	109	9
52	60	2
22	22	5
121	121	10
1	1	8
102	103	4
6	6	6
103	104	3
112	113	6
31	31	1
95	119	1
43	44	3
91	91	20
108	108	10
90	104	3
64	65	4
110	111	7
92	114	1
62	63	2
30	30	3
88	88	18
53	53	4
81	81	8
37	37	8
13	14	4
84	85	4
114	121	2
78	78	6
91	93	3
75	95	1
56	57	2
126	128	5
118	129	2
64	64	19
34	34	3
84	84	2
27	28	4
74	95	2
77	77	8
122	123	5
77	100	4
6	7	2
10	11	9
121	123	6
121	122	3
66	66	13
117	117	16
33	33	7
7	7	9
79	99	1
109	110	2
123	123	4
17	17	3
38	38	5
56	58	3
105	112	3
100	102	2
113	117	2
134	134	11
124	132	2
62	62	4
65	67	2
55	55	4
82	83	3
94	94	8
14	16	2
98	99	1
90	93	2
23	23	8
126	134	2
53	61	2
19	24	1
72	100	1
57	59	3
0	0	1
114	118	3
85	85	12
97	98	7
59	60	4
21	21	15
129	135	1
35	35	6
120	121	5
9	12	3
119	120	8
107	107	3
13	64	2
82	85	2
26	26	4
91	92	3
35	36	4
44	67	2
18	18	4
109	111	5
44	45	2
2	2	6
11	11	1
112	123	2
82	106	2
107	108	2
8	8	6
38	54	1
55	56	2
13	67	1
56	56	1
125	131	2
95	111	4
9	15	1
9	9	8
114	115	3
108	111	1
88	103	4
101	102	3
131	132	1
99	100	1
124	130	2
78	100	1
4	5	2
56	61	2
57	93	3
20	20	2
71	73	2
59	72	2
90	91	1
86	88	1
9	65	2
64	69	2
123	135	1
87	100	1
126	127	2
80	81	2
105	111	2
95	105	1
12	13	3
87	87	4
14	50	1
74	75	2
103	124	4
33	34	2
110	128	2
97	100	1
105	106	2
111	135	1
57	57	2
78	83	1
70	71	3
100	101	1
48	50	1
68	69	1
96	112	1
87	88	1
21	22	1
107	109	1
61	63	1
78	84	2
99	103	2
47	49	2
133	134	1
119	131	1
65	66	3
14	15	1
110	123	1
19	21	1
60	63	1
42	45	1
113	126	1
54	55	1
132	133	1
95	109	1
