91	91	28
137	137	21
78	91	9
71	71	17
79	79	11
109	110	14
101	101	39
1	1	23
33	33	32
98	99	7
11	12	9
38	38	12
117	118	8
73	74	9
72	73	10
16	16	25
1	8	4
3	4	18
77	79	8
124	124	36
23	24	8
118	118	31
100	100	25
139	139	35
123	123	39
115	115	41
112	112	33
19	19	21
89	94	2
0	0	18
32	33	10
3	3	14
81	82	12
5	37	3
97	97	32
131	131	52
91	92	12
37	38	20
14	16	9
76	78	7
21	22	24
86	86	13
15	15	26
25	25	14
86	88	8
81	81	34
138	139	9
80	92	16
140	140	35
120	120	22
28	29	26
102	102	16
19	20	11
21	21	24
87	124	4
32	32	11
106	106	5
135	135	39
85	90	4
127	129	8
94	95	10
124	125	27
122	122	44
1	14	6
75	76	12
36	36	28
8	8	9
99	99	11
14	14	37
18	20	4
107	107	22
78	78	19
24	25	9
130	130	43
127	127	38
5	5	27
88	90	2
18	18	27
0	2	7
119	119	25
37	37	26
89	91	4
71	72	16
132	132	48
14	15	6
22	26	3
81	83	7
17	17	25
80	80	28
71	80	6
136	136	31
124	129	3
17	19	19
125	125	42
75	75	25
133	133	24
135	137	4
125	127	1
31	33	10
23	23	17
13	13	24
136	138	4
111	111	19
72	72	34
121	121	36
128	128	58
11	11	13
30	32	3
38	79	2
20	21	5
27	27	37
30	30	23
83	83	22
138	138	14
76	76	27
31	31	39
87	87	5
129	130	10
98	98	16
121	122	7
91	96	3
126	126	50
109	109	32
27	28	10
116	116	19
95	95	30
98	110	8
35	37	3
92	92	12
113	115	11
105	105	11
96	108	5
124	127	3
82	82	14
89	89	29
71	73	9
26	26	24
22	37	1
129	129	37
127	130	3
73	76	5
5	18	2
111	116	3
111	113	10
111	112	5
15	16	14
128	129	15
74	74	30
90	91	5
74	110	3
12	12	17
103	103	27
2	12	4
115	117	1
119	123	7
117	119	5
110	111	27
134	134	24
104	104	25
13	14	11
2	2	13
22	23	14
134	135	12
17	34	5
108	110	3
109	111	8
116	123	1
33	34	12
110	110	31
6	39	3
16	17	5
125	129	9
24	24	9
6	7	3
85	85	6
114	115	21
35	35	25
112	113	14
88	117	3
101	127	2
1	2	5
15	27	8
92	110	5
102	115	4
37	113	3
78	79	6
29	31	2
98	100	2
20	20	17
80	90	3
80	94	1
113	113	14
75	78	1
37	81	1
104	118	5
120	122	10
125	126	18
29	29	15
4	5	9
135	136	12
71	77	4
83	84	2
110	112	16
93	93	26
138	140	15
84	84	5
101	102	13
3	7	1
101	109	6
89	102	3
1	13	4
17	18	12
26	27	2
94	101	3
130	131	6
21	25	4
97	113	1
90	90	17
12	13	3
103	104	10
82	83	7
7	12	2
127	128	6
75	77	3
27	32	7
2	5	2
93	96	1
119	120	6
114	127	2
6	6	8
123	125	6
34	34	16
7	10	3
2	14	2
77	77	19
30	31	11
16	21	4
71	81	2
107	111	1
93	95	4
118	119	13
104	107	3
7	7	17
111	118	7
120	121	18
8	9	6
115	123	2
121	123	3
84	85	6
116	117	4
104	105	6
116	124	8
79	93	4
87	116	4
32	110	3
28	28	9
22	22	20
108	109	11
80	81	4
4	13	4
117	117	18
97	112	3
107	108	6
34	35	15
108	108	27
123	124	6
12	20	1
126	128	4
103	106	4
35	89	2
99	132	2
91	112	6
4	4	15
4	34	1
89	101	7
79	80	5
134	138	1
137	138	9
103	115	3
88	88	10
122	123	9
99	100	12
26	29	2
88	89	3
16	34	2
9	9	20
102	108	2
114	117	4
0	9	3
94	94	15
73	73	13
123	134	1
100	134	3
100	124	1
113	114	4
93	94	8
27	31	3
103	117	1
114	114	12
15	19	8
8	10	5
97	98	6
0	113	5
9	10	9
37	85	13
14	20	1
100	126	3
132	133	13
76	77	2
91	100	1
10	10	11
17	27	3
99	101	2
128	136	1
72	76	2
34	36	6
19	21	1
127	133	1
98	101	3
131	132	16
100	101	7
133	134	6
12	14	1
31	32	10
126	127	18
5	6	3
102	106	2
139	140	10
15	21	1
10	12	2
111	114	2
87	88	1
18	19	8
25	26	6
102	117	2
21	28	6
4	17	1
2	4	1
77	78	5
98	126	2
124	126	5
28	30	1
79	87	1
28	35	1
7	9	8
2	3	6
82	85	4
3	5	3
17	22	2
130	134	2
10	11	3
105	106	7
2	114	2
78	87	4
114	116	2
79	92	1
37	80	4
113	121	4
95	96	7
5	16	1
102	103	2
89	90	5
7	8	1
106	109	2
88	102	1
136	137	7
16	72	2
104	119	2
102	123	1
97	126	2
128	135	2
17	29	1
4	11	1
18	33	3
91	95	3
74	77	3
110	113	3
27	29	3
35	36	2
33	89	1
27	35	1
112	117	3
16	32	2
20	30	3
104	116	2
115	116	2
112	120	2
25	27	3
97	107	2
105	107	2
81	101	2
3	6	3
97	127	1
30	100	2
15	28	1
80	89	2
86	87	7
71	79	2
23	26	4
100	133	1
123	126	1
16	35	1
35	38	2
100	127	1
112	114	2
90	92	3
38	74	1
3	11	2
93	97	5
86	123	6
66	71	2
92	95	2
92	94	1
106	107	2
74	75	3
28	110	3
36	37	3
126	129	3
130	136	3
128	130	1
97	99	4
101	104	3
85	88	1
5	33	1
19	74	1
118	120	1
2	13	1
135	139	1
15	32	1
81	85	4
117	121	1
102	111	1
108	127	1
93	101	1
117	123	2
102	122	2
99	102	2
134	136	4
129	135	3
14	17	3
29	30	3
78	95	1
107	109	1
1	6	1
96	96	4
92	93	1
76	109	1
78	113	2
93	108	2
19	22	3
26	31	1
12	15	2
22	25	2
89	95	2
116	118	1
93	107	1
38	87	1
0	1	3
0	13	5
80	102	3
87	123	2
71	83	2
100	129	1
26	30	3
80	93	5
112	119	4
38	77	2
17	33	1
4	14	1
14	28	2
1	10	2
119	122	1
32	34	1
74	90	1
21	30	2
71	78	1
2	113	1
21	27	1
96	98	1
15	31	1
6	28	1
78	86	1
10	15	2
124	128	2
104	109	1
130	133	1
120	123	1
91	99	1
73	75	1
77	87	1
19	73	1
103	109	2
88	124	1
16	37	1
15	17	1
125	128	1
112	115	1
102	127	1
84	88	1
21	33	2
74	79	1
108	111	1
27	36	1
23	25	2
4	6	1
96	97	1
