124	124	24
60	60	20
85	85	21
100	100	25
133	133	7
3	3	20
46	46	32
130	131	17
27	98	1
72	73	13
0	3	2
93	97	4
29	31	3
6	6	27
24	36	6
28	28	27
36	37	18
27	29	4
119	119	11
118	119	2
6	10	1
1	1	7
104	104	21
126	127	7
99	100	16
9	9	11
62	75	7
126	126	21
4	4	23
82	82	34
29	84	4
20	20	22
57	62	1
16	17	2
71	72	11
26	26	44
32	35	6
66	66	14
75	75	39
56	56	14
24	24	19
68	69	11
81	81	37
120	120	13
17	17	35
11	36	9
123	124	5
11	11	42
18	19	6
79	81	3
131	132	4
8	11	10
25	25	23
39	43	1
94	94	38
106	106	35
27	28	9
13	14	9
5	6	6
33	57	1
58	69	1
99	99	14
18	18	36
114	114	19
75	77	8
51	57	4
66	83	5
123	123	8
71	71	7
107	107	20
72	72	23
31	32	13
19	19	25
125	126	16
103	103	12
45	45	30
70	71	7
70	70	20
112	113	5
123	126	2
66	91	5
34	34	34
16	18	1
42	42	10
25	46	4
59	78	2
32	33	19
106	107	5
91	91	13
84	86	4
47	47	28
105	105	16
130	130	11
121	121	24
79	79	17
85	87	3
64	77	1
29	29	16
32	32	27
35	36	7
125	127	10
128	128	21
71	77	1
62	62	21
34	74	4
20	59	4
45	73	1
38	40	4
34	36	4
7	7	13
95	96	13
86	86	29
37	45	4
12	12	36
36	36	34
95	101	5
107	109	8
33	33	26
98	98	16
59	60	11
100	101	12
7	8	2
102	102	21
27	27	27
111	112	7
7	20	4
9	36	6
40	40	14
23	24	6
131	131	12
35	76	1
94	95	3
101	101	35
91	107	5
47	48	12
63	63	32
65	97	2
119	120	4
108	108	18
93	94	6
11	93	9
125	125	20
41	41	9
31	33	2
2	44	8
108	111	2
82	83	21
97	99	2
95	97	14
64	64	34
80	80	11
31	36	4
81	84	4
121	122	8
110	110	17
39	39	20
78	78	19
43	43	23
85	86	17
65	65	32
69	71	5
45	69	1
49	49	16
93	93	25
97	97	18
48	48	13
87	106	3
5	15	1
37	81	2
90	91	6
4	5	17
31	31	15
26	27	22
94	96	6
35	35	24
80	81	11
110	127	1
123	125	8
30	30	19
16	44	10
23	25	5
58	58	20
77	77	18
118	118	19
59	59	17
74	75	5
126	129	6
77	78	5
8	9	9
61	61	29
66	67	5
81	82	13
101	102	8
134	134	7
129	129	11
10	10	21
19	20	10
55	81	1
22	22	11
34	78	3
122	122	11
84	84	35
13	27	1
10	35	3
2	2	4
73	74	8
57	57	16
92	93	8
38	42	1
83	92	2
19	74	1
5	30	3
15	15	22
38	41	3
27	82	5
59	80	6
18	35	4
15	16	3
29	83	3
21	36	4
120	123	7
75	76	20
20	62	3
13	26	2
68	68	17
76	81	2
111	116	2
8	64	4
45	78	1
67	67	7
22	36	2
109	112	7
94	101	9
90	95	1
89	109	5
59	71	2
74	74	27
69	70	9
11	14	6
19	35	4
109	109	21
111	111	13
27	78	3
5	8	1
93	100	10
13	13	9
28	30	4
83	83	26
90	93	2
73	73	20
25	47	3
115	115	13
45	46	12
8	76	2
22	81	4
29	30	13
16	21	3
112	114	4
8	14	2
108	109	9
21	21	9
44	45	7
42	81	8
113	114	6
11	85	7
44	44	15
96	96	32
24	82	8
6	93	3
120	121	5
39	40	3
83	84	12
61	62	1
93	95	14
5	5	18
59	76	1
26	29	3
51	61	2
26	48	10
23	37	9
112	112	5
131	133	7
57	59	5
127	127	15
58	59	6
5	11	6
123	129	7
78	79	9
132	132	4
38	38	13
16	16	10
87	88	11
0	0	9
63	64	9
34	35	4
6	15	3
67	70	4
37	37	22
107	110	2
90	90	15
57	58	15
87	87	20
58	70	6
119	122	5
89	96	1
62	63	4
30	36	2
103	104	8
46	47	5
30	37	2
60	70	2
106	109	1
122	123	2
78	93	2
60	79	3
109	110	11
60	95	3
3	4	10
14	23	4
82	109	2
78	82	3
98	120	1
10	83	4
84	90	4
95	95	19
7	10	4
86	108	3
24	25	9
65	66	2
69	69	11
130	132	1
8	8	17
111	113	15
126	128	1
84	85	4
20	22	5
20	23	2
82	85	1
21	62	1
76	76	26
7	11	5
33	34	11
7	84	2
35	38	4
117	121	6
127	128	7
117	118	2
89	93	1
61	72	4
31	56	4
25	26	11
111	127	1
103	124	4
93	98	5
117	122	5
86	87	2
12	13	8
45	48	4
27	31	2
41	60	1
115	116	3
20	21	11
96	97	3
26	35	1
72	80	4
45	62	1
24	35	1
51	56	3
107	108	9
67	68	8
56	59	1
97	98	1
47	49	2
63	77	3
68	71	3
7	19	7
25	28	2
35	72	2
36	40	6
73	76	3
110	116	2
32	45	1
58	63	2
28	62	2
45	64	3
24	26	8
101	106	2
113	113	16
117	117	20
44	46	1
9	10	12
21	85	1
48	93	3
3	14	3
132	133	3
103	113	1
11	15	1
64	66	3
23	41	4
38	57	3
33	35	8
64	70	3
122	132	1
6	7	9
63	67	1
40	81	5
43	45	3
28	29	5
84	108	2
22	26	3
85	100	3
60	61	5
114	115	7
10	11	8
45	47	2
10	12	2
95	99	6
47	61	1
36	38	4
104	105	12
26	93	2
92	92	6
36	39	2
26	28	2
25	43	1
29	32	4
127	129	2
123	131	5
31	45	5
6	60	2
1	2	2
33	56	1
60	82	2
116	116	13
11	56	2
28	91	2
84	102	2
26	47	3
70	72	1
62	85	1
4	15	2
28	71	2
60	81	2
8	12	1
60	78	2
84	88	2
56	82	2
88	88	11
0	1	1
13	47	2
120	122	2
7	13	5
64	65	4
88	89	2
68	100	2
12	47	3
67	69	4
25	61	1
19	34	1
124	130	6
96	101	9
3	102	1
25	85	5
33	74	3
118	122	1
41	42	2
4	94	4
36	75	5
29	49	2
55	56	4
125	131	1
29	47	1
49	93	1
85	88	2
18	21	4
44	62	2
13	92	2
14	92	2
76	77	10
63	66	1
98	100	1
15	17	2
110	111	3
14	14	11
7	95	4
120	124	1
51	55	2
102	103	2
25	75	4
48	49	4
91	97	6
67	71	1
44	56	1
40	85	1
82	84	2
48	83	2
59	84	1
62	70	2
97	101	6
3	65	2
71	78	2
9	12	3
61	75	3
43	44	1
31	46	2
128	129	8
94	106	3
126	130	1
83	108	2
11	12	4
31	61	2
9	31	2
119	130	2
1	18	3
30	57	1
21	22	2
27	79	2
7	60	3
111	128	1
62	72	1
3	47	2
63	75	1
98	99	3
25	36	1
11	27	2
125	133	1
2	45	2
46	71	2
30	74	4
113	115	3
1	4	1
32	46	3
94	102	2
30	31	3
1	17	4
101	103	2
65	72	2
23	23	2
118	121	5
71	80	1
90	92	3
117	119	2
9	16	1
78	80	1
20	35	2
89	89	5
7	15	1
6	88	2
77	111	1
114	124	1
21	40	3
22	37	2
21	60	2
40	43	1
108	113	1
32	34	4
27	77	1
14	15	2
70	73	1
42	43	4
8	15	2
105	106	1
111	115	1
26	49	1
8	10	3
123	133	2
17	18	2
85	107	1
46	67	2
91	92	1
62	67	2
6	8	1
116	123	2
19	21	3
49	50	1
31	35	2
30	32	1
23	36	1
113	116	2
103	105	1
112	117	1
117	120	3
20	74	2
4	100	2
9	74	2
0	8	2
0	4	2
8	35	1
11	47	2
22	24	2
27	92	1
32	36	1
55	55	3
4	93	1
5	7	1
94	100	3
23	81	2
44	48	2
12	17	2
26	92	1
22	23	2
24	83	2
130	134	1
71	81	2
6	96	1
35	37	2
11	84	1
25	95	2
48	59	1
59	70	4
124	126	1
10	36	2
14	17	1
47	92	1
43	60	2
132	134	1
64	69	1
21	26	1
4	6	1
108	110	1
18	23	1
19	22	1
102	104	1
3	17	1
114	126	2
21	23	1
4	14	2
25	48	1
11	13	1
59	79	1
7	14	1
30	39	1
7	68	1
11	77	1
70	78	1
21	42	1
89	107	1
9	76	1
37	38	2
109	111	1
58	60	1
2	3	1
79	80	1
19	28	1
57	70	1
89	91	1
6	19	2
28	97	2
29	59	1
31	93	1
58	77	1
37	74	1
114	116	1
84	87	1
35	74	1
93	96	1
34	49	1
14	20	1
35	77	1
30	49	1
40	84	1
25	42	2
12	15	1
2	17	1
116	122	1
27	47	1
124	131	1
8	13	1
