21	22	2
58	70	6
23	23	4
77	78	1
108	109	10
20	20	8
110	111	2
107	107	1
67	83	1
72	72	2
86	86	6
104	104	6
50	51	7
63	65	2
71	72	3
49	50	1
62	62	3
46	48	2
51	51	10
89	89	10
79	79	5
81	85	4
27	28	5
96	97	1
99	99	7
91	91	8
78	79	1
30	30	4
21	23	1
43	43	4
98	98	3
43	44	5
102	103	3
53	57	1
108	108	3
45	45	5
49	49	18
39	43	1
90	91	2
41	41	6
109	109	5
76	76	3
59	68	3
44	44	4
68	69	4
78	98	2
74	74	9
81	81	2
105	110	1
97	108	1
52	74	1
32	32	1
105	107	3
33	37	3
25	27	6
50	50	4
73	73	16
84	84	5
111	111	7
59	59	4
103	107	3
66	66	1
65	66	4
28	29	2
90	90	2
96	109	2
27	29	2
46	46	3
109	110	3
38	38	3
81	82	4
35	38	3
44	45	2
38	39	3
113	113	3
83	83	5
24	24	1
96	99	3
94	94	6
65	67	1
59	93	2
80	80	4
61	62	6
31	31	11
78	86	2
63	63	6
73	74	1
48	48	5
53	72	1
69	69	5
106	106	8
36	36	5
76	77	2
66	67	2
35	36	2
28	28	1
42	42	2
82	85	3
96	96	2
26	26	3
27	27	9
97	97	2
29	29	4
54	55	2
104	105	4
53	55	2
32	33	3
39	39	2
96	108	1
58	58	2
77	89	2
69	70	1
78	78	3
63	64	1
109	111	1
95	95	1
71	71	1
79	98	1
82	82	3
40	40	2
53	53	1
92	92	1
52	52	4
75	75	1
47	47	2
114	114	4
61	61	3
93	109	1
51	52	1
40	41	1
21	21	2
113	114	2
74	75	2
65	65	1
105	105	4
56	56	3
22	23	1
29	30	2
34	38	1
34	34	1
97	99	1
34	35	3
107	108	2
72	73	2
110	110	1
57	68	1
57	69	1
37	37	2
87	87	1
71	75	1
54	57	1
93	94	1
101	103	1
106	111	2
50	74	1
73	92	2
79	97	1
57	76	1
25	25	2
103	103	1
33	34	2
48	49	1
94	95	3
85	85	2
21	24	1
67	68	2
88	88	1
82	84	1
100	100	2
68	70	1
57	61	1
69	71	1
94	106	2
91	95	2
47	48	1
33	33	1
91	105	2
28	46	1
62	70	1
75	88	1
87	88	1
30	31	1
55	70	1
