20	60	2
64	64	7
72	75	1
87	87	8
70	73	1
4	13	6
63	63	3
50	50	3
14	14	3
61	61	2
25	27	2
13	13	5
58	58	12
8	8	13
31	31	11
66	73	3
25	25	20
50	51	1
30	30	3
53	53	3
51	52	4
70	70	7
77	77	3
11	11	9
19	25	3
22	22	2
26	26	4
53	60	2
74	76	1
76	80	2
78	81	1
5	26	3
23	27	4
78	79	7
72	72	2
71	71	2
3	3	17
68	69	1
14	17	5
84	84	20
23	24	5
52	52	5
10	11	1
80	80	4
69	74	3
5	5	10
49	49	6
88	88	4
69	69	21
77	79	2
57	58	1
67	67	15
21	22	3
7	7	5
59	60	8
50	58	1
59	59	6
53	54	2
57	81	1
60	61	4
1	1	5
0	28	1
68	68	7
23	23	4
60	60	4
25	26	6
89	89	8
19	19	4
5	6	1
66	67	4
60	72	2
12	12	11
72	73	7
8	10	1
33	33	2
80	81	3
78	78	9
49	54	1
9	12	3
4	5	5
17	17	8
14	83	2
81	81	10
79	79	5
62	62	4
10	12	1
4	11	4
65	65	6
47	47	4
84	88	2
9	10	4
2	11	3
75	75	8
58	81	2
11	12	7
27	27	3
51	53	3
55	83	1
71	72	2
9	9	6
28	28	2
79	80	4
46	74	1
66	66	7
20	20	9
48	48	4
24	25	5
30	84	2
69	80	2
70	72	4
49	53	2
0	11	2
4	4	10
1	3	2
74	75	4
82	82	9
24	24	6
2	2	6
0	0	1
56	56	7
49	50	3
56	57	2
11	87	1
6	10	1
54	54	8
57	82	2
73	74	1
85	85	3
10	80	2
0	3	2
57	57	13
54	55	3
17	33	1
55	56	4
48	49	1
77	78	4
32	32	2
10	10	6
46	46	1
15	15	6
17	18	2
58	59	2
88	89	1
21	21	4
5	10	1
65	66	1
63	64	2
74	74	6
19	24	4
66	70	1
51	51	6
27	28	3
56	84	4
76	82	3
55	55	4
11	13	1
20	53	1
5	7	1
22	25	1
64	66	3
59	61	1
10	19	1
12	13	1
74	77	2
77	80	2
77	83	1
20	25	1
31	32	3
78	83	1
75	81	2
5	11	1
50	52	1
22	23	1
73	73	2
15	16	1
82	83	6
61	66	1
62	64	1
47	64	1
21	32	1
35	35	2
66	69	1
87	88	1
71	81	1
1	2	3
49	59	1
79	83	1
80	85	1
15	18	2
54	59	1
69	75	1
18	19	1
6	7	1
56	69	1
6	26	1
67	68	1
62	63	1
