155	161	3
167	167	12
135	136	3
116	117	9
215	215	13
130	130	16
65	65	13
1	1	14
27	27	22
38	118	6
38	38	17
181	181	14
231	240	5
75	122	2
0	0	14
183	200	4
67	67	34
143	143	5
32	210	3
25	25	25
47	47	20
138	138	4
157	157	19
100	102	4
220	220	13
118	118	16
199	199	13
29	31	3
172	172	7
55	55	22
13	13	11
177	177	8
197	198	3
109	109	12
29	30	6
212	212	5
54	55	11
139	139	14
198	198	21
162	210	4
221	224	4
121	121	11
204	204	4
176	176	5
48	48	24
65	67	5
193	194	3
168	169	6
144	147	9
102	103	9
4	4	7
9	10	1
75	83	4
239	239	11
223	224	6
29	33	2
36	36	24
75	79	3
149	149	12
66	66	16
201	201	8
211	213	4
77	77	17
209	209	10
3	207	1
122	122	11
134	134	6
74	74	15
162	162	15
168	168	13
183	184	5
242	242	10
114	115	3
101	102	1
28	32	4
165	165	7
237	237	8
22	23	6
4	208	4
153	170	1
62	62	12
43	43	11
233	236	4
25	26	5
121	127	3
12	12	23
172	195	2
179	179	11
9	44	3
121	128	4
211	212	4
56	60	5
186	187	6
113	113	15
230	230	7
16	16	7
19	21	6
102	102	17
30	30	19
198	201	3
109	111	8
78	78	25
32	35	5
84	84	19
43	73	1
202	202	20
193	193	9
85	85	14
68	68	17
231	231	11
56	56	20
166	166	13
237	238	5
230	241	2
50	76	3
42	42	24
17	37	4
69	69	4
46	46	14
221	221	9
160	160	14
35	163	2
15	15	11
63	63	9
153	153	9
182	182	8
218	218	10
58	58	11
2	2	13
29	47	1
101	101	8
4	36	2
218	221	2
235	235	17
109	110	4
105	106	9
17	17	10
50	50	12
115	116	3
26	26	27
136	136	8
75	82	3
7	22	3
177	178	3
76	76	19
229	229	22
184	185	10
50	51	7
19	19	12
152	237	5
9	9	16
84	85	4
82	84	2
236	236	5
121	122	6
13	48	5
161	213	2
61	61	22
212	213	4
161	172	4
151	151	10
27	28	5
174	174	18
21	21	18
33	34	7
160	196	1
103	104	5
106	106	22
23	24	1
226	226	7
113	114	5
191	191	16
136	137	2
232	232	6
89	89	5
184	184	13
46	47	3
102	135	1
40	40	22
217	218	6
127	127	7
49	57	5
80	80	20
162	194	4
191	212	3
205	205	7
21	22	6
170	196	3
164	165	4
217	217	3
95	95	5
61	65	1
53	53	13
72	85	1
152	153	3
29	32	4
211	211	13
73	73	9
76	78	2
226	227	14
110	110	6
159	159	14
102	105	2
105	105	21
81	88	1
185	185	11
234	235	7
190	190	20
169	169	14
164	164	8
216	216	4
66	67	13
97	101	4
158	158	17
33	33	12
67	105	8
39	41	1
141	141	9
56	57	3
67	68	2
75	75	13
64	65	8
21	49	4
70	70	8
83	83	18
29	29	23
188	188	13
15	16	7
85	86	2
28	28	10
100	103	2
30	31	5
57	59	8
50	52	6
170	170	11
173	230	1
145	145	5
202	203	4
165	166	4
174	228	1
20	20	8
39	137	1
218	219	3
31	31	17
98	98	16
163	163	8
115	115	8
241	241	12
1	4	3
113	121	1
23	23	13
230	240	1
39	98	4
183	183	9
166	169	1
195	196	4
35	37	4
225	225	7
47	48	4
240	240	5
129	130	7
3	3	12
150	152	4
205	206	6
30	36	1
140	140	6
49	49	10
88	99	1
76	123	1
207	207	7
198	199	1
156	197	1
223	223	6
219	219	9
219	220	4
6	36	2
97	97	10
44	44	9
39	203	2
125	125	5
112	112	4
99	100	4
169	170	4
152	155	1
200	202	1
35	36	10
215	230	5
196	196	9
147	148	5
1	35	3
41	41	12
201	209	3
53	54	2
156	157	6
137	137	7
191	196	2
194	211	5
131	131	6
228	228	15
224	224	7
45	46	3
10	27	1
71	71	10
231	232	4
169	197	1
52	55	1
171	195	2
97	99	3
159	170	2
64	69	4
178	178	12
122	125	1
39	39	15
234	234	8
24	25	8
213	213	9
11	11	14
126	126	7
144	145	5
39	40	6
86	86	10
10	11	5
233	234	2
10	10	15
128	128	11
148	148	6
200	200	10
62	63	10
34	35	8
60	70	1
119	119	8
158	159	2
188	193	7
210	210	2
207	208	8
107	107	3
227	228	2
34	34	11
161	161	7
171	171	9
28	29	3
166	167	2
186	186	8
6	17	3
77	79	2
45	45	11
32	32	8
20	21	7
51	51	12
153	199	3
108	108	12
18	31	5
167	168	7
5	34	8
20	30	4
163	164	3
81	82	5
122	123	3
64	64	12
120	120	6
72	72	15
3	8	3
74	85	2
162	212	2
116	116	3
57	58	11
74	75	7
15	33	1
43	45	4
214	214	15
159	203	5
175	175	7
15	37	4
160	172	7
133	133	11
236	237	1
100	159	6
163	211	2
145	146	5
100	100	4
104	104	8
69	70	3
18	18	24
173	174	2
140	142	5
22	22	11
139	142	2
52	53	2
114	114	5
174	195	5
118	120	1
38	72	2
162	211	1
5	5	6
138	144	2
100	101	3
57	57	13
0	1	6
187	187	8
24	24	34
130	132	1
8	9	4
124	125	3
59	59	6
225	226	2
148	149	4
81	81	5
80	81	5
141	142	9
1	2	3
180	180	11
59	61	1
88	88	4
9	36	10
6	7	3
192	193	3
173	193	4
14	15	2
118	119	8
194	194	2
149	150	16
194	210	1
233	233	9
40	41	10
159	192	4
108	111	2
238	238	8
82	83	3
222	225	1
232	233	2
149	152	1
4	206	2
195	195	7
77	78	2
70	101	4
65	68	5
103	103	12
227	227	3
206	206	4
208	209	3
52	52	25
2	33	1
146	147	1
44	73	1
144	144	5
31	33	9
50	53	2
47	51	1
208	210	2
13	14	7
60	60	11
142	143	2
219	223	1
139	140	2
154	156	1
171	194	7
138	139	2
61	62	4
38	39	8
62	70	1
142	142	6
120	122	1
199	211	5
214	216	1
123	123	7
122	171	2
157	158	7
76	77	3
159	195	1
22	48	5
0	204	2
79	79	6
60	61	4
196	197	3
6	6	8
11	72	1
179	180	1
127	129	2
120	121	10
30	33	4
173	173	6
8	8	7
65	66	2
144	146	8
3	206	3
144	148	2
152	152	3
15	30	1
3	4	2
7	7	9
171	172	3
108	109	3
224	225	1
28	37	2
26	28	1
195	197	2
21	23	3
14	14	2
230	231	3
55	56	1
74	80	2
114	118	2
146	179	2
236	238	4
12	49	1
141	143	5
12	14	2
7	8	6
197	197	2
124	124	2
75	77	2
11	44	1
71	74	1
131	132	1
112	120	3
66	68	3
43	44	5
35	35	2
60	69	1
12	18	8
126	127	7
155	155	6
135	135	9
0	203	1
19	30	1
205	208	2
182	183	7
42	74	1
48	62	1
176	225	5
186	217	1
54	54	12
112	113	2
158	197	2
64	67	1
114	170	3
204	205	3
58	101	1
83	113	1
12	15	2
180	181	8
64	71	1
125	126	4
15	31	1
189	189	9
99	99	7
37	37	8
78	79	3
48	51	2
96	96	6
31	34	5
44	47	1
63	71	1
150	150	2
47	49	3
228	229	2
175	224	2
152	154	3
203	204	1
10	13	3
108	127	1
5	6	4
55	62	2
2	203	2
10	20	1
104	105	2
146	180	2
154	154	3
49	50	1
165	191	1
200	201	1
208	208	4
159	160	3
98	101	1
116	118	2
117	118	4
216	217	2
78	117	4
149	151	1
187	218	1
155	158	3
205	207	1
222	223	1
22	54	2
147	147	5
220	221	3
84	88	1
78	80	3
146	146	6
146	148	1
210	211	1
106	107	1
70	71	2
105	109	3
71	98	2
38	40	2
79	80	6
64	66	1
156	159	2
96	97	2
2	3	1
10	24	1
97	100	3
115	119	1
45	47	1
44	45	6
75	97	1
52	54	3
81	95	1
0	205	2
86	160	2
133	242	2
192	192	1
9	40	2
70	98	2
3	16	1
19	20	2
137	139	2
12	228	1
27	29	1
170	171	3
157	201	2
238	239	1
191	214	3
171	196	2
2	36	1
77	122	1
20	26	1
79	108	2
1	33	1
42	82	2
38	114	1
3	30	3
129	129	3
225	227	2
39	42	3
60	62	2
51	52	1
19	48	1
0	2	1
180	197	2
39	71	1
173	175	2
3	31	2
146	159	3
99	101	1
214	215	4
8	23	1
188	189	3
67	80	3
11	29	1
113	128	2
206	207	1
3	9	1
57	60	1
25	29	1
74	96	4
194	196	2
13	30	2
3	41	1
24	37	2
189	190	2
199	228	2
240	241	1
137	138	1
191	192	2
76	165	2
173	196	1
198	211	2
99	102	2
231	241	1
91	91	1
153	155	2
25	161	1
96	99	2
45	227	2
21	207	1
176	177	2
67	78	1
169	216	1
98	99	5
209	213	1
42	113	1
107	126	1
154	155	2
4	34	1
74	77	1
72	74	1
4	35	2
191	216	2
7	9	1
72	73	2
140	141	1
15	32	1
65	70	2
132	135	1
11	15	2
79	81	1
8	10	1
165	213	2
119	120	1
170	194	1
223	225	1
46	173	1
17	40	1
8	36	1
10	29	1
32	36	1
31	41	2
180	182	1
214	229	1
37	40	1
85	109	1
209	211	1
58	60	1
236	239	1
146	149	2
2	31	1
16	36	3
220	223	1
161	173	1
77	95	1
114	117	1
9	25	1
71	72	1
203	203	1
42	43	2
38	218	1
59	60	2
67	75	2
134	136	1
30	32	1
235	236	1
95	96	1
10	19	2
0	24	1
232	235	1
59	105	1
181	182	3
153	175	1
178	179	1
176	191	3
35	165	2
7	23	1
199	229	1
8	11	1
123	124	1
156	158	1
41	43	1
117	117	1
154	185	1
75	95	1
221	222	1
239	240	1
215	216	1
36	37	1
60	63	1
68	105	1
209	210	1
58	59	1
76	79	1
11	13	2
109	126	1
4	17	1
5	7	1
13	15	1
153	154	1
102	104	1
136	138	1
130	133	1
172	173	2
37	57	1
12	19	1
140	143	1
14	30	1
111	112	1
77	80	1
20	25	1
127	130	1
3	36	1
