69	69	3
102	102	16
108	108	6
113	113	13
91	101	1
26	52	2
95	95	12
40	42	4
38	63	2
36	36	12
41	46	4
62	62	4
106	106	6
35	35	3
99	111	4
107	107	10
42	42	11
77	77	13
24	25	2
66	66	7
54	57	3
29	52	3
74	74	8
94	94	6
96	101	1
28	28	6
91	100	3
75	76	3
63	94	5
95	101	4
96	96	16
105	109	1
33	34	1
43	44	1
112	112	8
32	32	1
81	89	5
105	105	4
43	43	13
72	74	2
50	50	14
24	31	4
103	114	3
45	49	2
34	35	10
95	96	18
44	44	20
66	84	2
55	56	3
26	27	8
48	48	20
93	93	14
41	41	13
98	98	7
44	45	12
73	76	4
72	73	10
33	33	13
24	24	9
94	95	3
88	89	5
67	67	2
49	49	8
81	108	4
66	71	4
49	107	5
89	90	4
111	111	21
113	114	8
59	73	3
87	87	12
25	25	13
27	28	4
96	98	2
39	40	5
104	104	7
79	98	1
85	86	3
51	109	5
84	84	8
47	107	3
91	91	17
78	78	2
26	26	13
57	57	8
38	38	2
40	107	3
80	80	13
86	87	3
40	53	1
29	29	14
88	88	6
103	107	6
46	46	16
95	97	2
47	47	7
89	91	2
101	103	5
41	42	3
54	56	2
40	54	2
102	103	1
71	71	8
45	45	14
76	77	4
22	23	2
51	59	5
58	63	3
51	51	5
96	97	3
36	57	2
95	100	1
76	76	13
62	63	4
100	101	6
104	107	1
82	82	3
21	22	3
24	39	1
92	92	18
99	99	4
82	88	3
84	85	7
44	76	1
30	30	6
32	61	2
109	109	7
64	65	3
47	68	2
110	110	7
30	31	8
64	64	5
73	73	7
70	70	7
39	39	8
78	79	9
63	63	6
70	71	8
100	100	4
75	75	8
59	72	2
63	81	3
110	111	2
98	99	3
52	52	6
76	99	1
62	64	1
28	51	1
99	100	3
99	110	2
61	105	2
22	22	7
20	21	2
95	102	2
37	39	1
71	72	6
22	53	3
70	72	1
102	109	2
46	54	2
49	50	3
105	107	1
94	102	1
71	76	1
50	51	4
72	72	11
55	55	3
80	81	1
51	108	1
58	58	1
22	25	1
89	89	5
57	70	4
68	69	2
23	25	2
85	85	9
90	90	6
94	108	2
68	70	3
37	37	2
40	106	3
54	58	2
35	107	1
79	79	8
40	40	11
81	83	2
24	26	2
32	66	4
34	34	3
88	103	1
36	37	2
74	110	1
83	83	2
101	109	1
56	56	4
48	49	1
40	41	3
75	81	3
23	24	1
77	78	2
106	108	1
64	72	3
101	102	5
86	86	10
69	70	2
81	81	3
21	21	3
64	86	4
114	114	3
26	77	1
104	106	1
97	97	6
68	68	1
34	41	1
65	65	4
83	86	3
78	112	1
79	95	5
46	50	2
93	94	3
107	108	4
42	43	2
108	109	2
109	110	2
40	72	1
60	83	3
23	23	5
31	31	6
79	101	3
29	30	2
73	74	5
82	83	3
101	101	3
66	76	1
59	60	3
88	91	2
112	113	3
40	104	4
32	43	3
86	88	1
60	62	1
64	67	2
51	112	3
24	32	3
45	46	4
23	72	1
103	104	2
67	85	1
79	90	1
35	36	4
46	107	1
87	89	1
61	67	2
69	81	2
97	99	2
25	77	2
20	20	3
63	64	7
26	76	1
74	108	1
61	62	4
81	82	1
46	106	1
111	113	2
51	105	1
99	103	2
58	73	1
88	90	2
42	100	2
61	61	8
28	29	1
43	50	4
19	20	1
27	27	6
33	35	2
86	114	1
27	77	1
60	81	2
59	59	6
93	102	1
102	107	2
60	110	1
92	99	3
78	91	1
65	84	1
61	68	1
54	54	1
61	66	1
63	104	2
65	86	2
115	115	1
77	94	1
64	70	1
67	68	3
35	38	1
47	48	2
29	106	1
53	53	2
51	54	1
19	19	1
85	87	1
92	95	1
77	95	2
63	86	1
20	23	1
39	54	1
103	103	4
74	85	1
51	52	1
92	93	1
46	47	2
78	98	4
64	95	1
53	71	1
74	75	1
66	67	1
34	67	1
78	94	1
33	58	1
60	60	2
19	23	1
96	99	1
23	26	1
107	110	1
55	82	1
90	103	1
62	78	2
27	30	1
103	110	1
36	38	1
