220	221	4
27	27	11
101	102	6
152	154	5
221	221	5
83	84	8
28	28	13
213	214	8
231	231	9
100	100	12
2	2	10
234	234	6
46	46	22
71	71	15
20	20	14
201	201	11
36	44	2
17	17	18
238	239	3
11	11	32
127	127	11
12	12	11
162	162	5
86	86	21
55	55	19
36	36	13
233	233	6
81	81	15
15	23	3
2	3	2
148	189	3
145	145	3
225	225	8
38	38	15
171	171	11
47	47	23
129	129	9
16	16	13
9	9	14
154	154	9
103	104	3
51	51	7
207	207	6
117	118	4
239	239	8
195	195	8
68	69	6
37	37	10
66	66	9
66	67	4
20	23	4
188	188	11
41	41	16
170	171	3
157	157	14
15	15	11
215	215	3
36	51	4
34	39	1
58	58	6
32	32	10
63	64	8
242	242	8
78	79	3
63	63	5
178	178	6
183	183	12
72	72	9
28	29	6
89	89	2
229	229	2
232	232	20
200	231	1
74	74	16
40	40	22
224	225	5
34	34	11
206	206	7
0	3	1
118	122	3
150	150	3
59	59	5
25	25	14
230	230	8
21	22	7
202	213	6
37	38	2
102	102	5
165	183	2
187	187	9
26	26	23
51	53	13
8	14	1
199	200	4
73	73	19
106	106	7
182	182	21
174	196	1
43	43	23
60	60	17
77	78	2
100	102	3
9	10	3
54	54	21
144	144	13
7	7	9
4	4	8
149	151	3
172	221	5
147	196	1
53	53	12
39	39	23
163	163	4
37	58	2
82	82	4
3	7	1
49	60	2
24	55	2
42	42	21
223	225	4
161	161	10
162	163	4
143	143	10
36	37	4
123	123	3
236	236	11
224	224	6
228	228	16
29	29	12
227	227	14
48	48	2
107	107	9
4	31	2
84	84	20
202	202	10
109	109	2
238	238	4
144	145	8
47	61	3
120	120	4
10	43	4
76	128	1
172	172	9
112	134	4
190	190	6
108	108	2
141	142	7
10	10	8
77	77	13
33	36	2
1	2	4
24	96	1
85	85	15
200	201	5
154	155	3
19	19	13
240	240	10
83	160	9
2	21	2
102	103	7
177	177	5
117	117	5
46	47	9
217	217	7
9	84	3
114	114	5
181	181	2
158	158	1
65	65	15
196	197	2
12	15	3
133	133	13
5	7	8
169	170	3
178	183	4
3	6	5
219	219	15
51	52	8
218	218	5
178	182	2
171	173	4
194	194	4
2	4	3
138	140	2
70	70	11
80	82	6
153	153	11
5	78	7
76	78	1
188	189	5
159	159	6
135	135	5
30	30	8
1	1	6
104	104	4
83	83	7
71	73	2
8	9	5
123	124	2
11	75	1
99	133	2
198	198	9
23	23	7
156	157	5
235	235	5
82	83	1
202	217	3
164	166	1
103	103	8
15	16	4
47	48	4
55	56	5
61	61	12
118	118	6
54	55	4
194	196	1
130	130	3
173	173	6
3	30	1
43	44	4
67	67	6
20	21	4
52	52	1
100	103	4
180	181	15
211	211	11
35	35	9
203	204	6
101	103	2
131	131	4
195	196	4
158	161	2
214	216	2
14	14	2
81	85	1
151	152	2
237	237	8
57	57	3
167	169	5
197	198	3
86	110	2
140	140	4
81	82	4
86	91	3
122	126	2
208	208	4
137	137	2
98	98	12
52	54	10
133	134	13
21	21	10
5	6	5
11	43	2
80	83	4
45	45	21
120	122	4
29	31	1
184	186	2
0	0	14
137	139	7
223	223	11
149	149	5
142	142	9
69	70	7
212	213	4
210	210	6
197	197	8
76	77	3
73	74	4
31	33	2
214	214	3
124	124	3
49	49	4
68	68	3
49	50	9
17	24	2
225	226	6
169	169	8
160	234	4
78	80	1
122	122	4
121	121	4
218	219	2
3	3	3
67	68	1
0	36	5
50	50	8
50	52	1
22	56	8
110	111	2
24	24	11
164	164	3
185	185	4
171	222	1
3	8	2
111	111	7
6	7	6
122	124	1
196	196	19
114	115	4
136	137	4
18	19	2
100	133	1
176	177	2
88	88	2
191	191	7
179	206	8
28	32	5
29	56	3
138	138	3
99	99	7
30	31	1
228	229	3
17	22	2
156	156	3
28	30	1
182	197	1
163	166	2
70	71	2
79	80	5
69	69	10
0	24	4
179	219	4
99	100	1
232	233	4
231	233	2
31	34	1
138	139	5
208	209	4
138	141	2
13	13	5
170	170	5
58	59	4
16	17	7
11	25	1
184	184	6
210	211	2
105	106	3
45	46	7
237	238	2
8	16	2
165	169	1
76	127	2
141	141	2
153	154	1
56	56	8
168	170	3
163	165	1
116	116	3
204	210	1
31	31	8
51	56	4
211	212	3
223	227	1
35	39	4
11	15	3
26	74	3
12	31	2
236	239	3
122	127	3
53	56	4
32	39	2
8	40	3
22	22	5
222	222	3
62	62	8
23	82	1
104	108	4
72	73	3
120	123	2
61	62	1
157	231	3
70	86	2
112	112	5
18	18	4
6	6	6
207	220	1
151	151	6
34	36	2
125	126	6
239	240	5
24	25	5
216	216	7
56	57	2
105	105	11
102	124	4
175	176	1
152	155	1
3	4	3
21	23	6
104	107	4
129	137	3
85	86	4
160	161	7
38	46	3
103	109	4
204	208	2
155	155	8
4	6	5
158	159	4
2	30	2
124	125	3
8	8	11
160	160	5
58	70	2
36	54	1
165	165	3
169	177	1
89	122	4
167	167	5
76	76	14
234	235	4
44	44	6
173	202	2
147	147	3
22	23	2
174	174	5
9	41	2
2	17	3
200	200	8
61	74	4
75	79	1
173	182	1
27	28	7
22	82	3
77	190	1
136	136	6
48	49	3
75	162	4
75	83	4
66	68	4
64	64	3
159	174	3
177	183	2
77	79	3
196	211	1
207	208	4
15	19	1
176	176	4
53	54	2
19	20	5
211	214	2
204	218	1
240	241	1
107	108	7
62	63	2
167	168	3
6	8	5
12	74	2
167	170	1
127	128	5
12	17	2
80	81	2
42	43	2
113	144	2
117	119	2
144	147	1
188	197	3
15	73	1
134	134	4
157	233	2
230	231	1
96	96	2
95	101	1
38	39	2
13	78	2
185	186	3
179	179	3
16	24	1
172	201	2
163	164	7
168	168	1
51	54	2
155	156	3
98	99	3
148	151	2
197	219	1
189	189	4
75	75	1
220	220	6
241	242	1
200	210	1
87	87	1
34	35	5
133	138	2
207	209	2
31	41	1
235	239	1
113	113	5
129	131	1
183	184	2
62	72	1
79	83	2
192	193	6
161	174	6
135	155	4
160	232	2
84	86	2
9	86	1
18	30	1
81	84	2
25	86	1
115	115	2
153	155	4
80	84	2
149	150	5
192	192	3
217	218	3
61	73	1
107	121	1
202	203	1
25	55	3
75	76	2
164	165	5
88	89	4
117	120	2
23	24	3
56	217	1
170	229	3
2	9	1
135	136	4
71	72	1
119	120	1
35	36	1
135	154	1
29	30	3
154	156	2
231	232	2
44	45	1
7	127	2
150	151	2
108	122	1
89	128	1
151	233	1
200	217	1
212	212	1
181	182	1
229	231	1
201	202	1
50	53	2
166	166	4
100	131	3
145	146	3
58	60	3
115	119	1
65	66	3
101	101	3
233	234	1
10	11	5
95	96	1
20	24	2
12	84	1
128	128	3
0	1	3
205	222	2
11	12	5
44	46	3
80	85	2
166	167	1
241	241	1
235	236	3
152	152	2
146	150	3
129	176	4
104	105	3
0	35	1
189	190	2
20	82	3
82	84	1
32	37	1
40	41	1
0	159	3
182	184	1
137	138	1
52	55	1
80	80	4
124	126	2
102	123	1
8	128	1
99	134	1
175	175	1
204	204	1
199	204	2
14	75	1
7	8	3
8	69	2
140	143	1
5	5	1
102	129	1
209	218	1
116	117	1
140	142	1
128	129	1
42	66	1
129	130	1
108	126	4
157	159	1
6	9	3
126	126	1
56	117	1
100	203	1
0	48	1
13	15	1
198	210	3
16	18	1
118	119	1
116	118	1
229	230	1
168	178	1
203	203	2
179	180	1
213	213	1
36	38	1
36	50	2
119	119	1
236	238	1
121	127	1
34	37	1
46	64	1
97	147	1
11	42	2
145	175	1
97	97	2
33	33	1
60	64	1
37	61	1
47	49	2
106	120	1
12	13	1
14	17	1
226	226	1
148	148	1
79	95	1
86	97	1
128	131	2
23	84	1
123	127	2
74	75	1
168	169	3
171	229	1
129	138	1
104	106	1
172	173	1
11	74	1
23	36	1
84	143	1
128	188	1
174	175	1
206	207	1
100	106	2
10	75	1
96	175	1
235	237	1
197	201	1
52	53	1
33	34	1
23	56	1
209	217	1
10	36	1
55	122	1
123	125	1
159	160	1
