149	149	3
27	149	1
24	24	3
44	46	6
174	174	3
168	169	2
136	137	1
45	45	5
150	150	6
147	147	3
173	173	8
117	117	6
64	64	2
187	187	3
128	128	14
137	138	2
94	94	3
99	116	4
170	171	3
115	172	1
55	55	3
118	152	1
129	130	3
81	92	1
16	16	4
110	111	1
118	146	5
183	183	4
91	91	4
30	30	7
92	94	3
85	85	9
79	79	3
155	177	5
137	137	1
28	28	4
113	114	4
170	175	6
142	142	7
60	60	3
74	74	4
104	149	2
27	27	8
56	57	3
116	117	3
117	118	4
86	86	4
126	128	4
179	181	2
110	110	3
10	10	2
54	54	2
181	181	2
44	44	1
151	151	2
101	102	2
124	125	2
130	130	7
81	124	2
98	98	5
3	3	9
121	151	3
170	170	5
97	97	2
138	138	3
2	2	4
41	41	5
69	69	3
121	121	7
4	47	4
103	103	9
169	170	2
14	15	3
43	44	1
104	106	3
130	131	4
92	93	6
29	84	3
10	13	3
189	189	7
70	72	2
89	89	8
166	176	3
5	5	4
172	172	8
102	142	3
0	1	3
138	139	1
65	69	1
21	21	2
162	163	1
114	114	7
109	109	5
78	78	3
134	167	3
171	171	5
20	20	3
71	78	1
72	72	4
6	6	3
44	45	1
106	106	4
132	159	1
113	123	4
77	78	5
156	158	1
135	162	3
120	120	4
130	179	2
151	153	2
40	40	2
134	134	2
23	23	2
124	124	1
29	154	1
57	58	4
99	99	2
185	185	5
171	172	6
25	25	1
158	158	2
178	180	5
14	44	2
141	141	6
119	147	1
171	178	1
36	65	6
96	96	2
154	155	3
92	92	2
188	189	7
120	137	2
62	112	2
57	57	3
104	104	2
135	135	3
100	100	2
177	178	2
29	152	1
19	19	1
106	107	2
143	144	2
62	111	5
154	154	13
31	31	1
49	49	3
78	109	4
11	48	1
101	103	2
118	190	2
90	90	4
32	34	3
61	61	3
76	76	9
84	85	3
85	94	1
164	165	1
38	110	1
105	105	6
23	27	3
42	42	3
61	68	1
122	122	1
3	111	4
126	183	2
31	32	1
1	1	4
95	95	7
65	65	9
84	91	5
22	23	5
106	109	1
11	20	1
39	39	2
88	89	3
83	83	4
139	160	3
102	103	4
45	46	8
80	81	3
34	34	3
56	56	6
190	190	1
177	180	2
99	147	1
73	73	3
117	189	2
123	123	1
18	18	3
31	90	2
134	135	3
58	58	1
53	53	2
11	12	3
93	94	4
94	102	4
10	20	1
77	77	2
153	153	1
108	108	2
45	65	4
63	63	1
116	116	3
69	74	1
128	178	2
82	111	2
161	161	2
182	182	4
99	100	1
68	68	4
145	145	10
14	14	6
182	188	2
71	76	1
27	28	5
130	162	4
105	147	1
36	36	4
112	112	4
82	89	3
93	96	4
1	84	1
178	181	1
65	71	1
146	147	2
16	17	1
75	75	4
177	177	1
156	156	1
81	81	4
8	8	1
19	20	1
173	174	1
123	134	1
42	45	1
62	62	1
163	164	1
43	43	1
136	139	1
96	98	2
140	141	1
90	92	1
81	110	1
37	37	1
186	186	3
95	96	2
75	76	4
79	148	1
112	116	1
39	40	1
97	112	2
82	90	2
169	169	2
20	26	1
33	140	2
10	16	1
140	159	1
131	170	3
94	96	1
126	127	2
160	162	1
81	83	2
12	13	3
184	184	3
17	17	3
40	41	3
4	4	1
125	125	3
175	177	1
82	82	1
18	19	1
64	65	3
170	173	1
85	86	2
22	25	1
127	127	1
48	49	1
73	77	2
166	166	2
15	16	1
152	152	1
56	105	1
142	143	2
118	119	2
67	67	1
55	56	1
1	2	1
27	150	1
26	26	2
162	183	1
144	144	2
23	29	1
112	113	1
139	139	2
144	145	2
133	170	1
10	12	1
140	140	1
13	46	1
9	9	1
71	109	2
16	27	1
122	186	1
76	79	2
77	88	1
130	132	1
176	176	1
180	180	1
36	37	2
100	111	1
136	136	1
91	93	1
146	146	2
83	86	1
120	123	1
91	103	1
113	113	1
136	138	1
56	100	1
27	148	1
15	36	1
148	151	1
121	138	2
29	29	2
14	43	1
74	75	1
142	170	1
171	173	1
165	165	1
58	59	1
164	164	1
127	128	1
153	186	1
148	148	1
15	15	1
12	12	1
155	155	1
87	87	1
188	188	1
