52	52	16
28	28	7
64	65	6
27	60	3
38	39	4
59	59	13
67	67	14
8	8	18
26	26	10
80	80	6
14	14	12
43	43	5
65	66	3
56	56	8
11	11	4
74	76	7
68	69	5
40	40	2
7	19	4
28	29	5
1	1	17
38	38	12
46	46	4
66	67	9
54	64	3
9	19	7
64	64	38
41	41	21
76	76	12
70	70	9
49	50	4
20	20	3
17	18	4
8	19	4
21	21	3
74	74	12
65	65	10
49	49	14
55	55	15
42	42	8
42	43	2
38	42	2
31	32	3
9	9	10
58	58	9
78	78	12
63	64	3
29	29	9
47	47	11
2	2	10
10	10	12
9	10	2
32	32	6
7	34	4
73	74	4
17	17	17
61	62	4
66	66	9
33	33	13
5	6	4
2	28	4
18	18	8
19	19	10
26	27	1
71	71	6
48	48	3
72	72	7
39	43	4
2	27	1
25	25	13
37	37	9
27	27	9
8	9	2
58	71	4
61	61	15
53	53	9
75	75	14
55	65	3
7	57	1
7	7	10
50	52	1
29	30	1
70	71	6
0	0	7
57	69	1
54	54	9
64	66	7
41	42	3
57	57	26
27	61	1
3	46	2
35	39	1
12	12	5
35	35	7
3	3	14
45	45	10
4	48	5
51	51	2
80	81	6
60	61	6
12	13	4
4	74	2
55	72	4
59	60	4
7	20	3
16	17	3
70	72	4
39	40	4
52	53	4
75	77	1
9	20	2
78	79	3
3	4	4
5	5	4
79	80	3
79	79	5
44	45	2
48	49	1
30	30	4
56	57	3
46	48	1
12	15	1
63	63	3
8	58	2
10	15	3
73	73	7
9	21	1
1	2	3
10	11	2
27	28	2
6	7	1
50	50	6
68	70	2
41	77	1
77	77	4
36	36	5
16	16	6
62	62	3
46	47	1
4	4	7
31	31	4
32	34	1
72	73	1
65	68	1
0	1	1
3	9	1
65	71	1
44	44	3
56	61	1
59	61	2
34	35	1
60	60	5
45	75	1
13	14	2
67	68	2
32	33	3
2	68	1
34	34	2
40	47	2
25	28	2
75	76	1
5	31	1
77	78	2
6	6	6
5	45	1
71	72	3
15	16	1
36	37	2
27	29	1
76	78	1
62	64	2
18	19	2
33	35	1
15	21	1
43	57	1
68	68	2
74	75	2
2	3	1
33	34	1
20	21	2
4	73	1
47	48	2
11	12	1
6	30	1
74	78	2
58	59	2
39	42	1
42	79	1
40	42	1
50	51	1
7	8	1
39	39	1
51	52	1
40	43	1
25	26	1
30	32	1
31	34	1
