54	55	7
160	160	8
4	4	3
178	178	2
155	155	14
153	158	2
63	63	2
94	94	3
53	53	3
134	136	2
59	59	3
165	165	8
179	179	3
106	110	1
160	162	1
45	45	5
79	93	1
31	31	1
20	20	2
8	18	3
184	186	2
75	75	1
87	87	2
38	56	1
39	39	12
180	180	5
63	136	2
190	191	6
146	146	6
168	191	2
173	173	3
139	139	5
135	135	4
167	183	1
16	16	9
194	194	10
55	56	1
55	55	10
148	149	4
42	43	5
149	149	10
120	120	4
22	22	11
125	127	6
12	12	5
17	17	5
3	3	5
50	50	4
9	30	3
136	136	9
134	134	2
188	188	9
172	190	1
83	85	4
5	5	7
69	96	1
6	7	1
34	36	1
142	184	3
133	133	10
175	175	3
32	188	2
1	1	1
128	128	4
151	154	1
85	86	1
127	127	11
4	180	4
65	86	4
131	133	2
5	6	2
70	70	4
132	132	5
196	196	9
58	58	2
58	64	1
11	11	4
111	122	2
41	41	6
67	67	3
69	81	1
151	151	10
4	5	7
14	48	2
109	110	3
191	191	4
171	171	4
142	142	10
22	38	4
82	86	3
119	121	3
88	88	2
63	82	2
30	30	6
84	84	2
115	117	1
81	81	5
123	123	4
169	169	14
189	191	1
13	13	7
24	25	3
183	183	4
27	30	1
190	193	1
72	72	3
11	12	3
33	54	1
44	44	4
23	37	1
158	179	1
28	28	3
94	97	1
186	194	3
105	111	5
159	166	1
168	168	5
141	141	4
175	178	1
31	32	2
99	111	3
158	158	4
195	196	1
53	56	2
172	172	6
17	20	2
24	24	2
14	183	1
33	33	3
28	29	3
15	15	5
186	187	6
164	164	5
1	2	1
170	170	5
47	47	9
63	69	2
145	149	1
161	162	1
48	49	7
146	147	3
181	181	4
141	171	2
2	3	1
99	99	3
148	148	11
57	58	2
161	161	2
121	122	4
115	115	2
166	166	1
106	106	2
132	133	5
156	162	1
37	38	3
167	167	2
176	177	1
56	80	2
82	85	2
153	153	1
160	161	6
102	104	1
181	182	4
125	125	6
45	46	5
46	46	3
146	148	4
122	122	5
132	152	1
187	188	4
147	147	6
116	116	3
103	103	4
152	155	4
180	182	3
49	49	5
129	129	3
109	111	1
130	131	1
109	109	3
105	105	1
86	86	2
193	193	3
154	168	1
143	143	2
192	192	9
124	125	3
131	131	1
71	71	3
87	89	1
31	57	1
156	157	1
176	176	3
114	115	2
186	186	8
166	174	1
187	194	2
8	9	4
29	29	2
61	61	1
108	151	5
19	22	3
105	106	2
182	182	4
139	143	5
1	4	2
70	77	3
118	118	6
34	35	3
71	81	1
111	111	6
121	121	6
59	62	1
101	116	3
185	185	5
143	151	1
114	114	1
153	155	1
138	140	3
159	189	1
48	48	5
70	71	1
112	115	1
54	54	2
60	60	2
44	46	1
133	142	1
18	35	2
130	155	2
16	183	1
22	23	1
158	159	3
65	166	1
76	76	1
128	183	3
65	164	1
36	36	3
21	22	1
16	55	2
171	172	2
18	18	2
10	10	2
37	37	6
9	9	3
15	16	1
74	74	2
159	159	7
19	36	1
176	178	3
155	165	2
104	107	1
170	172	1
35	35	3
196	197	2
143	144	1
25	25	2
119	119	6
197	197	1
51	54	2
42	44	3
57	57	7
163	164	1
163	163	2
79	88	2
100	100	3
33	37	4
113	138	1
11	14	2
52	52	6
119	123	2
98	98	3
177	177	5
189	189	4
2	4	2
68	68	3
43	44	2
32	32	1
73	79	1
139	156	2
97	98	2
36	37	2
2	2	3
68	113	2
126	127	1
162	163	1
36	102	3
58	59	2
43	43	5
150	150	3
141	142	1
134	138	2
135	137	2
38	55	3
32	57	5
26	26	4
190	197	1
164	165	3
188	189	2
113	113	2
16	18	1
42	42	4
73	75	1
158	171	1
129	161	2
23	23	1
191	192	1
69	69	2
14	182	1
77	89	1
40	42	2
127	128	3
13	14	3
165	179	1
102	102	3
167	169	1
101	113	1
187	187	6
189	190	7
53	55	1
166	167	2
50	51	1
168	169	1
150	159	1
68	85	3
118	154	1
5	7	3
93	94	2
11	13	1
29	30	1
126	126	2
159	160	4
101	101	2
46	194	2
18	20	1
44	45	1
113	115	1
119	120	1
149	150	1
30	32	2
163	168	1
154	154	1
69	84	2
110	133	1
96	96	2
21	23	1
165	166	1
98	112	3
9	33	1
117	162	2
184	184	4
7	8	2
128	170	3
105	136	1
139	140	1
136	149	1
64	65	3
95	95	1
0	2	1
180	181	1
155	160	3
182	183	3
179	180	1
97	97	1
112	113	1
119	132	1
23	55	1
33	124	1
33	36	1
150	156	1
101	102	1
133	134	1
160	163	1
43	149	1
156	156	1
42	181	1
34	34	1
117	130	1
153	154	2
18	19	1
78	88	2
168	177	1
21	21	1
174	174	1
193	194	1
63	81	1
110	110	1
186	188	1
8	8	1
74	75	2
106	112	1
157	157	1
175	176	1
117	118	1
68	86	1
110	111	2
158	165	1
10	49	1
14	14	1
