39	43	15
42	95	4
96	96	31
82	82	26
95	95	28
38	133	1
15	16	17
146	147	28
128	128	15
75	79	3
6	7	17
3	4	12
20	20	35
16	17	13
117	117	28
102	104	4
108	108	15
148	148	17
69	149	3
13	23	5
137	137	19
24	24	48
7	10	3
116	116	13
43	44	20
85	86	7
133	135	3
72	76	2
24	25	6
44	44	28
25	33	5
26	27	19
39	40	30
12	13	13
75	85	1
140	140	25
83	84	16
128	130	6
84	84	30
136	136	8
33	33	33
62	62	7
79	94	2
97	127	3
122	122	20
63	63	26
3	3	16
121	130	2
31	31	43
38	38	20
62	121	1
45	46	6
44	70	2
85	94	4
119	119	21
70	70	24
26	26	26
120	138	5
124	125	19
83	83	26
87	98	11
80	82	7
86	86	30
29	81	4
28	31	2
17	27	5
19	19	31
80	99	7
113	113	31
81	88	2
82	120	1
48	70	3
66	66	21
80	80	27
32	32	18
16	16	31
79	127	1
51	56	1
82	98	7
77	77	20
20	23	4
106	106	16
9	9	25
33	147	5
97	98	8
151	151	34
42	43	29
33	34	17
115	117	3
29	29	25
87	87	36
35	35	26
115	115	12
18	18	32
83	96	1
8	8	29
127	127	20
31	56	3
28	28	31
131	142	3
129	129	16
56	57	15
118	118	17
145	146	6
67	68	11
30	30	35
51	78	2
17	36	6
17	20	2
13	13	30
6	6	31
88	100	3
99	112	9
88	88	4
12	12	38
126	126	12
48	48	19
47	47	24
112	112	19
21	24	4
149	149	24
136	137	6
98	98	19
35	121	2
130	144	5
142	142	26
66	94	4
144	144	18
94	95	21
48	54	1
73	83	2
95	96	7
46	47	8
130	130	24
43	43	33
21	21	34
78	124	4
87	88	7
127	128	3
67	67	29
99	99	13
38	39	21
143	143	16
34	35	22
110	110	11
51	51	13
152	152	14
141	142	8
39	39	31
81	82	15
22	23	11
76	95	4
22	30	2
22	22	36
65	65	25
69	69	19
81	81	17
65	90	2
68	83	1
132	132	23
128	144	2
21	23	13
49	50	15
78	97	1
138	146	2
113	114	7
43	45	11
30	32	7
129	130	9
121	121	20
41	41	22
96	115	4
119	128	2
49	70	1
57	72	6
14	15	31
33	36	8
131	131	20
79	80	11
95	97	8
4	4	48
133	133	13
140	142	6
87	90	7
47	53	2
5	5	35
84	85	15
92	93	4
15	15	30
22	32	1
4	7	3
80	83	6
26	29	5
42	42	22
42	85	1
136	138	4
109	110	21
125	125	23
53	53	26
47	49	3
139	139	18
103	103	15
62	63	11
51	67	2
27	27	44
135	135	22
7	7	22
6	8	9
94	94	24
63	121	3
148	149	3
119	121	10
91	92	4
17	17	30
73	74	14
48	56	2
82	97	6
153	153	12
8	10	5
5	6	13
81	83	3
10	14	2
109	116	2
34	36	24
5	31	3
110	111	7
75	75	12
10	10	30
135	136	6
40	40	34
10	16	5
138	139	8
93	93	26
71	71	36
29	30	19
39	85	3
139	142	7
72	73	16
36	36	13
17	24	11
36	84	2
36	37	6
57	57	13
6	28	5
40	41	4
68	68	21
74	74	13
110	113	6
14	14	30
110	114	10
36	118	3
44	138	3
126	128	1
48	53	4
74	78	3
20	21	30
54	82	5
80	86	2
68	84	3
89	90	9
55	136	1
64	67	4
104	117	1
21	22	17
114	114	16
92	116	2
14	17	2
40	50	3
79	79	17
13	35	1
41	44	1
49	49	27
20	22	10
28	30	12
92	92	7
69	71	3
46	46	21
150	150	13
141	150	1
37	38	4
109	112	2
138	140	6
35	36	16
40	44	2
101	101	24
35	120	3
125	126	4
101	127	3
98	103	2
146	146	12
14	45	5
84	86	5
102	102	19
55	135	4
85	85	17
64	64	20
97	97	24
7	19	1
149	150	6
154	154	14
138	138	25
42	44	1
41	62	4
107	107	31
109	109	21
88	94	4
99	105	1
11	14	2
10	11	13
53	122	2
11	37	5
83	123	2
142	149	2
139	146	4
104	104	14
84	103	2
75	122	1
4	8	1
25	25	23
66	67	8
37	37	20
124	124	19
123	123	19
120	120	18
29	31	6
65	72	1
23	25	6
140	144	6
75	77	2
147	147	16
56	56	23
79	125	2
34	34	52
64	69	3
129	141	1
54	54	24
30	31	6
4	6	6
82	103	1
32	37	2
140	141	8
80	81	16
86	90	4
105	105	17
70	71	5
4	5	9
148	150	7
66	86	1
107	110	2
128	131	4
18	19	24
86	105	3
88	97	8
85	87	1
82	85	1
7	8	15
128	132	2
100	102	3
73	77	2
23	24	3
7	17	3
3	19	4
82	86	2
65	71	4
81	90	7
38	40	7
18	20	3
43	96	2
78	78	22
141	148	2
103	114	3
69	79	7
92	123	2
23	23	30
134	134	13
24	30	3
95	98	7
11	11	42
100	103	3
11	15	4
78	82	3
77	80	3
51	75	1
141	141	17
53	117	2
62	75	2
142	143	3
107	109	7
9	65	1
100	100	19
94	98	6
11	17	5
55	64	3
96	110	2
66	68	3
14	16	4
64	71	4
83	128	4
142	147	2
73	73	28
41	42	8
11	16	2
71	73	4
126	127	4
120	121	5
62	64	8
25	26	13
53	54	8
145	145	16
31	32	7
132	138	9
144	145	12
76	76	14
62	90	1
55	55	15
65	66	7
13	15	3
12	46	2
33	37	2
45	45	27
15	17	6
19	20	13
106	110	4
108	113	6
150	151	9
68	69	7
79	83	4
10	13	1
71	79	5
72	72	24
71	74	7
69	70	4
93	115	2
125	127	4
66	88	5
48	49	13
71	76	3
79	84	1
26	28	12
13	14	9
40	48	1
22	31	2
104	110	3
97	111	7
98	99	10
131	138	6
18	26	7
44	46	2
57	62	5
19	31	7
16	32	3
121	122	14
27	28	4
76	79	1
101	117	1
82	93	4
104	113	4
90	114	2
122	130	6
97	112	2
91	95	3
69	72	3
109	111	7
8	9	22
94	114	3
32	34	3
5	9	3
57	77	4
131	132	8
74	77	1
103	110	2
74	79	4
106	107	3
41	89	1
50	52	4
50	50	18
20	27	2
16	27	1
151	152	2
9	40	3
32	143	4
27	31	5
62	65	4
62	72	5
45	48	2
87	93	12
64	66	1
74	75	5
139	141	5
94	99	7
53	55	8
107	141	3
58	62	1
115	125	2
2	2	1
81	147	4
57	129	2
71	96	2
5	7	1
84	94	4
126	130	1
69	82	3
88	93	8
111	111	12
3	8	5
117	118	6
132	146	1
76	78	5
22	24	2
100	101	8
71	72	4
51	52	1
13	33	1
42	45	4
104	112	7
10	30	7
103	104	8
17	18	14
104	114	1
43	46	3
51	65	2
34	133	6
137	138	7
75	76	14
110	131	3
78	83	6
124	128	4
27	30	2
45	51	2
5	11	2
87	92	3
33	35	3
17	34	2
63	64	13
6	9	2
75	78	4
115	116	13
124	127	3
49	51	3
71	97	2
80	98	1
32	33	15
52	53	5
52	63	1
146	148	4
73	76	4
99	102	1
23	30	4
80	84	1
78	99	1
134	136	6
51	122	1
105	128	3
111	113	4
75	81	2
123	124	4
50	51	13
54	55	9
100	111	2
94	124	1
128	129	6
10	15	1
86	87	13
34	134	1
114	115	2
18	34	1
71	78	2
44	45	14
88	101	1
65	94	2
122	129	2
12	17	2
41	43	14
82	84	5
35	133	2
109	115	5
72	129	1
147	148	9
101	102	9
112	113	1
53	64	2
139	140	4
139	147	1
108	114	1
73	75	3
48	51	1
77	97	2
40	150	1
77	133	2
130	136	1
58	58	12
132	145	4
32	35	2
19	22	1
58	61	1
34	37	7
76	77	5
52	141	3
57	136	5
20	24	2
98	117	3
95	110	2
118	140	4
104	105	1
33	146	3
99	113	4
139	144	3
129	144	1
77	78	3
81	93	8
39	151	2
12	29	1
25	31	2
32	92	2
104	111	3
92	95	1
55	63	3
50	57	1
125	130	2
55	56	4
94	97	4
48	63	2
133	134	3
34	84	2
2	3	5
82	83	8
47	51	1
6	15	2
78	119	5
6	11	2
39	41	6
34	145	1
12	31	4
79	122	2
4	16	1
76	93	2
36	76	3
84	93	4
80	123	2
75	83	1
51	121	1
133	136	5
23	38	1
62	88	2
102	126	2
38	42	6
91	116	1
83	88	1
108	109	12
18	35	1
58	137	4
76	100	1
94	125	1
12	30	1
64	100	1
19	30	3
98	114	1
79	81	3
39	44	1
99	101	1
116	117	2
35	84	3
132	134	2
84	104	1
130	137	2
88	90	1
80	111	2
118	119	8
64	65	10
126	131	1
111	125	1
96	97	3
83	85	5
106	116	2
127	136	3
78	81	2
53	56	3
74	84	2
132	133	5
85	105	2
85	108	3
18	33	2
69	74	1
79	97	2
81	87	3
76	98	2
30	36	4
62	93	2
23	31	5
116	123	3
72	118	2
32	147	1
21	25	6
134	135	5
16	19	3
58	63	1
24	40	1
147	151	2
131	136	2
116	124	2
65	95	1
72	74	4
121	136	1
38	151	1
111	112	2
57	58	7
36	80	2
89	93	4
147	149	3
141	145	1
13	28	1
118	123	1
78	79	7
107	112	1
86	114	3
55	96	2
25	30	1
81	96	2
97	99	3
12	38	1
85	95	4
113	135	6
112	116	3
72	97	1
35	81	2
84	89	1
100	128	3
132	136	1
26	82	1
56	63	1
120	122	2
36	38	1
19	23	4
79	126	3
82	96	1
76	114	1
143	152	2
9	15	2
5	8	3
9	10	3
74	81	1
149	151	3
51	123	2
136	139	3
131	139	1
143	144	5
107	114	2
61	64	2
11	13	5
52	52	5
13	17	1
57	64	3
7	11	2
85	127	7
107	115	2
17	37	1
95	126	6
47	48	5
100	126	2
84	97	1
10	32	2
74	94	3
129	133	2
107	108	5
45	67	2
19	25	2
40	68	4
38	85	1
63	67	2
65	70	2
50	117	2
105	115	1
96	125	2
91	93	4
7	9	5
118	149	2
90	90	1
30	58	1
53	119	3
47	54	2
124	130	2
36	83	2
112	114	3
74	98	1
141	151	1
152	153	4
86	111	1
62	74	1
105	106	2
32	36	3
53	73	1
99	114	1
13	26	2
12	45	1
66	79	2
4	10	2
109	117	3
84	100	1
144	146	1
81	149	4
83	122	2
102	109	1
142	144	3
44	96	3
108	110	2
25	32	1
79	82	1
14	30	2
9	12	1
38	150	4
2	7	4
103	113	1
82	123	3
64	124	3
39	48	1
144	147	5
114	117	3
106	108	3
56	58	4
105	110	2
28	55	2
3	7	3
102	107	1
129	132	3
67	73	1
17	21	1
11	31	2
95	111	2
75	97	1
35	37	1
138	145	2
7	26	1
84	87	3
112	140	1
61	62	3
97	104	1
111	114	2
8	66	1
130	133	2
39	42	1
85	97	1
12	36	2
13	31	3
15	28	2
67	87	1
36	131	1
140	150	1
83	127	1
150	152	5
31	36	1
68	99	1
122	132	1
79	88	3
140	149	1
112	125	2
122	123	1
33	38	2
83	93	1
92	94	1
124	126	1
62	92	1
61	78	1
78	94	1
11	30	1
58	65	3
66	87	1
137	139	3
24	26	1
122	138	1
78	80	1
26	30	2
110	115	1
13	18	1
54	135	3
8	15	1
74	144	1
56	62	1
81	84	1
35	71	1
79	95	1
115	129	1
17	32	1
69	73	3
85	138	2
55	58	1
36	77	2
90	94	2
76	96	1
23	29	1
131	144	3
70	74	1
65	75	2
134	145	1
34	39	4
118	152	1
12	19	1
39	51	1
62	124	1
86	127	3
141	143	2
117	149	3
38	41	1
132	135	3
78	93	1
83	119	1
8	12	2
75	117	2
39	154	1
15	31	1
9	14	1
34	136	2
130	131	4
24	34	4
25	35	1
127	137	2
54	92	1
136	140	1
103	111	2
77	117	2
13	22	2
73	79	1
127	131	1
4	62	2
103	112	1
74	96	1
87	94	2
103	117	1
57	135	3
63	96	1
83	94	1
44	53	1
97	126	2
117	119	1
97	103	2
50	119	1
102	106	1
74	104	3
5	61	1
25	29	1
13	46	1
75	114	1
105	109	2
80	149	1
96	113	2
6	18	1
9	11	1
95	114	1
78	85	1
38	43	1
99	104	1
129	145	1
11	12	1
101	105	3
77	90	1
81	143	1
73	149	1
43	134	1
96	114	1
78	87	1
106	114	1
101	116	1
143	151	2
93	94	3
141	144	1
16	18	2
95	117	1
22	35	1
42	97	1
12	23	1
28	29	4
122	127	1
51	66	1
65	67	2
129	142	1
38	76	1
132	137	1
85	90	1
83	98	1
18	25	3
100	104	1
90	95	1
121	124	1
20	25	1
75	96	1
65	93	1
98	100	2
146	149	1
10	37	2
67	92	1
3	10	1
25	28	1
62	147	1
66	92	1
86	94	1
77	95	1
131	145	1
55	57	1
110	117	1
97	114	1
63	65	2
52	54	1
37	119	2
50	58	1
24	37	1
37	149	1
125	135	1
83	97	2
45	54	1
68	70	1
58	74	1
101	108	1
72	131	1
16	20	1
32	44	1
66	123	1
78	95	1
40	54	1
80	112	1
74	109	1
49	120	1
76	104	1
8	57	1
36	85	1
36	81	1
17	22	1
68	74	1
30	81	1
