63	63	7
182	182	11
60	60	9
224	224	17
215	215	14
57	58	1
228	228	16
224	225	12
98	98	15
1	1	6
65	65	14
113	113	6
46	46	15
69	70	7
136	151	1
210	210	5
133	133	7
72	73	6
187	187	7
156	156	12
21	23	6
49	57	4
171	172	8
217	219	1
149	149	12
11	32	3
157	158	6
173	175	3
37	38	6
67	68	3
52	52	6
173	173	9
240	240	12
130	130	8
102	102	14
3	3	13
201	207	7
198	202	2
234	236	7
205	205	6
28	29	4
230	230	18
80	80	7
44	63	1
21	21	14
148	148	8
75	75	15
99	99	10
210	230	1
55	55	8
45	45	6
194	194	9
100	100	16
31	153	2
20	20	3
143	143	8
174	174	5
208	208	12
37	37	14
115	115	3
118	118	9
195	195	3
128	128	4
160	160	1
56	142	2
85	85	20
40	190	3
225	225	3
142	142	3
226	227	6
227	227	3
34	34	4
226	226	6
156	157	5
15	16	6
140	140	3
139	139	10
172	173	1
35	35	11
23	23	12
207	208	4
100	101	2
150	151	14
70	70	7
52	53	2
11	11	23
147	148	8
12	14	2
238	238	1
139	140	4
83	99	1
127	127	6
154	154	3
33	33	12
54	54	13
27	27	19
52	58	2
97	97	7
169	169	4
191	212	5
216	216	7
5	9	1
113	114	3
200	200	9
2	2	8
38	38	23
80	95	1
50	58	2
82	82	7
148	150	2
146	147	8
82	84	3
208	209	1
13	34	3
17	18	1
138	138	11
182	188	4
161	165	3
61	61	6
69	69	4
77	78	3
199	200	4
39	42	7
88	88	5
4	6	2
31	31	14
99	100	7
116	116	1
218	219	6
212	213	15
58	58	8
61	113	3
68	68	15
209	209	8
88	120	1
44	238	3
21	22	12
18	20	2
56	58	2
107	108	3
40	40	15
76	76	13
12	177	2
170	178	2
28	28	12
156	167	1
9	9	12
62	62	20
181	181	11
172	175	1
36	36	4
64	64	7
106	107	2
192	193	6
146	210	3
82	83	2
70	71	5
201	201	6
60	61	2
186	187	8
68	69	11
11	178	5
30	36	5
164	165	5
12	32	2
198	199	3
101	101	23
41	42	2
159	175	2
223	223	9
109	109	4
133	134	2
59	59	3
43	44	1
118	123	2
57	57	4
147	149	6
19	19	8
233	233	8
236	236	1
140	141	6
101	102	5
20	24	6
163	163	6
19	25	2
213	214	3
232	232	5
56	61	5
99	101	1
31	33	1
175	175	6
135	136	1
235	235	8
159	177	2
57	61	1
187	193	4
129	129	9
179	179	3
29	31	2
81	81	11
134	135	1
102	103	5
153	154	7
192	195	2
84	84	7
83	98	3
51	51	5
204	205	4
178	178	6
172	172	3
168	169	2
155	156	2
72	138	3
116	117	1
74	74	12
176	176	5
44	45	9
33	35	3
219	219	12
48	48	10
107	124	2
43	203	2
237	237	4
146	146	7
183	183	3
151	161	2
103	106	1
126	126	2
104	104	5
74	75	1
190	190	4
107	125	3
138	168	1
11	46	1
73	73	7
218	218	15
122	122	5
100	103	1
208	223	2
15	36	4
66	67	6
241	241	7
239	239	4
213	213	7
108	108	6
15	17	3
180	180	7
229	230	2
199	199	5
214	214	4
63	73	1
103	103	12
188	188	8
227	228	9
14	34	3
29	29	4
84	85	3
222	222	6
150	150	6
136	136	2
32	214	1
206	207	1
39	39	5
24	24	11
173	174	5
188	189	3
65	66	1
221	221	5
203	203	4
229	229	2
242	242	8
164	164	3
30	30	3
125	126	2
197	200	2
48	49	4
135	138	2
184	184	14
134	134	10
30	32	4
13	13	4
171	171	6
81	82	7
32	36	1
86	86	10
53	53	10
181	229	3
181	186	2
224	226	3
137	138	3
122	123	4
15	15	3
44	65	2
193	194	2
63	64	1
83	83	4
12	12	4
3	8	3
115	116	2
23	31	4
201	227	4
67	166	4
73	74	10
0	2	1
10	38	3
14	14	5
49	49	6
4	5	3
45	47	2
84	99	1
204	204	3
207	207	6
179	191	2
19	217	4
139	141	2
55	69	1
95	95	5
200	221	2
230	231	6
137	139	2
84	96	2
38	39	4
73	75	1
43	43	11
181	191	2
133	135	2
122	124	1
234	237	3
159	176	4
234	234	4
8	8	8
1	2	2
41	160	6
158	158	3
185	185	3
77	119	2
41	237	2
79	79	5
170	190	4
41	41	1
220	221	5
2	8	3
135	135	2
153	182	1
119	119	6
203	204	2
25	25	3
79	125	3
30	31	1
161	161	3
141	144	1
160	161	3
3	7	3
107	118	2
151	151	9
75	76	1
56	56	6
170	177	3
153	155	1
155	155	4
43	62	2
110	110	3
173	233	1
129	130	2
202	236	5
59	60	8
144	147	4
162	163	2
80	81	1
67	172	3
123	123	9
185	186	2
211	211	9
208	212	1
61	63	1
38	160	3
106	121	2
74	85	1
128	151	1
178	179	4
170	170	3
106	108	3
109	113	2
105	106	2
183	184	4
203	220	2
105	105	8
41	65	1
132	152	4
105	107	2
220	225	2
197	198	7
132	132	4
104	108	1
1	3	4
42	42	3
47	65	1
124	124	1
118	130	3
137	137	4
194	195	5
114	114	2
220	220	6
62	237	1
41	63	2
165	165	14
22	22	4
71	136	1
121	127	4
24	25	5
120	128	1
152	153	3
32	32	5
66	66	6
180	191	1
28	36	2
4	4	2
225	226	2
111	111	1
6	7	3
173	232	1
43	45	1
204	206	1
166	166	6
107	107	2
219	220	1
88	98	2
5	5	1
174	192	3
117	124	2
10	25	1
159	169	1
120	120	8
182	183	2
10	10	5
106	106	2
103	121	1
193	193	6
52	54	5
140	161	2
112	112	3
65	68	3
202	203	1
84	106	1
49	59	5
167	167	5
128	129	4
238	240	2
72	72	8
99	107	1
10	11	3
141	142	2
180	188	1
17	17	4
183	189	1
9	146	3
64	241	4
140	143	3
235	237	4
0	1	3
147	151	2
16	177	1
7	7	2
189	189	7
220	223	2
198	198	3
50	53	4
60	121	3
217	218	4
147	147	5
73	113	1
197	197	8
201	202	2
51	54	4
180	190	2
78	96	3
73	137	1
54	63	3
102	105	2
117	118	2
161	162	3
7	9	1
152	152	4
78	78	2
121	128	1
127	155	4
184	195	2
44	240	1
96	96	3
30	211	1
196	196	3
205	206	3
16	16	3
83	84	1
217	217	3
170	179	1
62	63	4
194	196	3
63	130	1
170	171	2
44	44	8
12	33	1
130	152	1
55	56	4
89	91	3
232	233	2
83	101	2
11	12	2
179	180	2
98	99	4
111	240	1
2	3	1
112	240	3
205	220	2
192	192	6
31	214	2
56	57	4
66	182	1
76	128	1
153	153	4
47	47	4
113	130	1
200	201	2
138	145	1
180	193	1
184	192	2
89	89	2
137	158	1
200	227	1
40	42	3
37	218	1
103	105	1
196	198	1
15	37	2
5	6	2
50	50	4
138	139	1
125	125	3
241	242	1
134	166	1
197	201	4
173	193	1
67	67	3
149	238	1
235	236	2
13	14	4
206	206	6
8	15	2
107	115	3
62	184	2
189	190	2
166	167	1
111	112	1
144	144	4
202	202	3
144	148	2
119	120	1
208	222	1
36	38	1
209	223	3
148	149	3
3	23	2
73	136	1
49	66	4
188	190	1
159	159	2
41	238	1
171	173	2
222	223	1
202	204	1
231	231	2
49	50	1
162	162	2
173	190	2
145	145	3
25	26	2
209	211	2
46	47	1
49	51	1
71	73	4
18	19	2
169	180	2
105	134	1
200	205	1
57	59	1
31	123	1
128	134	2
157	157	3
76	77	1
230	232	2
3	4	2
167	168	1
119	123	1
77	96	2
42	161	2
160	173	1
61	62	2
71	71	2
51	53	2
212	212	1
118	119	1
6	6	5
192	205	4
79	82	1
50	51	1
128	159	1
43	71	1
191	192	1
204	220	3
40	64	1
109	135	2
77	77	3
98	128	1
6	23	1
131	154	1
176	177	2
176	178	1
196	197	1
33	187	1
207	211	1
12	13	1
13	17	1
18	34	1
125	127	2
144	146	1
201	235	1
134	157	2
184	185	1
45	46	1
171	181	1
238	239	1
134	162	1
0	0	1
3	24	1
100	108	1
228	229	1
223	224	1
147	152	1
26	26	1
32	33	3
181	230	1
12	21	1
205	212	1
121	121	1
131	131	1
23	24	1
208	220	1
77	114	1
18	18	1
163	166	1
232	234	2
13	21	1
85	86	1
162	172	1
19	34	2
239	240	1
85	97	1
184	229	1
165	166	1
73	135	1
75	96	1
216	218	1
16	17	1
187	188	1
202	205	2
216	217	1
130	131	1
39	40	1
62	122	1
174	175	1
187	191	1
123	125	1
31	121	1
202	235	1
