7	7	11
42	61	3
52	52	8
102	102	4
49	49	19
71	71	10
115	115	4
38	38	4
132	132	2
40	40	1
57	57	7
80	102	2
83	83	2
126	126	10
15	15	6
23	23	8
43	43	3
44	48	2
85	101	2
29	29	2
109	118	9
66	66	8
125	131	4
3	4	5
61	86	3
37	39	6
39	76	4
111	111	8
103	103	2
81	81	5
45	45	2
34	34	3
33	116	1
17	17	4
113	128	6
63	63	5
81	82	1
105	105	3
125	125	3
113	113	6
33	77	1
69	69	7
76	76	5
86	97	2
63	85	2
76	90	2
42	42	21
21	120	3
128	128	9
102	103	1
66	100	5
55	55	1
99	100	2
39	39	6
88	88	6
113	115	5
84	85	3
98	99	4
94	96	3
104	127	1
24	24	7
9	9	4
84	84	8
115	119	1
123	123	6
3	5	1
30	30	7
48	48	3
108	108	2
114	114	5
31	31	6
109	117	1
58	58	2
131	131	4
22	22	4
114	115	9
100	100	6
112	112	1
74	74	7
3	3	8
97	97	2
62	63	2
17	18	7
120	120	6
129	129	3
46	68	4
38	75	5
67	67	6
56	56	5
101	102	5
33	33	7
64	65	4
50	50	3
90	90	1
44	101	2
11	13	2
5	5	5
96	100	2
10	10	5
54	56	3
89	89	2
48	65	2
44	44	6
73	73	2
16	17	5
28	28	4
48	49	3
112	113	1
112	130	2
92	93	2
88	89	5
4	43	1
18	18	3
34	97	3
106	106	2
44	127	1
101	101	2
54	116	4
98	115	3
60	86	1
113	132	3
86	86	1
65	65	4
54	58	1
92	92	1
79	79	5
6	64	1
4	4	3
93	93	4
42	43	3
49	94	1
2	3	1
41	41	8
4	5	1
110	110	6
19	19	12
70	70	1
60	60	6
118	118	7
82	103	3
38	98	3
11	79	2
44	45	5
94	94	5
19	20	5
2	22	2
61	61	10
9	10	1
109	120	2
62	62	8
1	1	6
62	91	2
59	59	6
17	19	2
97	98	2
16	29	1
2	13	3
96	96	2
13	16	2
120	121	1
5	79	1
20	20	3
66	98	2
99	108	5
27	28	2
6	7	1
99	99	7
41	66	1
119	119	3
89	107	1
127	129	1
130	130	1
76	104	1
8	8	1
56	69	2
23	24	2
87	108	1
42	45	3
92	112	4
10	16	2
23	29	1
107	125	2
14	14	4
54	54	5
27	27	1
58	60	1
25	25	1
117	118	1
68	68	1
109	110	2
72	72	3
126	128	1
52	125	2
107	107	3
76	77	2
55	60	1
78	78	2
32	33	2
95	96	1
50	51	1
87	87	1
72	103	1
46	46	1
125	128	2
26	26	10
38	130	1
54	65	1
113	131	2
91	91	2
59	85	1
44	77	2
17	21	1
13	13	6
1	2	3
51	51	4
63	64	1
44	46	1
95	95	1
116	117	1
24	30	2
6	6	2
75	75	3
26	27	1
111	118	1
98	118	1
103	126	1
60	62	2
124	124	1
47	47	4
64	64	2
115	116	4
116	116	1
97	101	1
104	104	2
64	67	1
1	102	3
58	59	1
18	23	1
86	100	2
105	106	2
121	121	2
126	130	1
2	2	1
12	12	2
19	21	1
20	31	1
24	29	1
78	81	2
20	21	2
38	82	1
75	76	1
94	95	1
128	129	1
56	66	1
115	120	2
117	120	1
78	114	1
21	21	1
40	41	2
117	119	1
53	53	1
68	69	2
72	102	1
20	25	1
39	80	1
117	117	1
11	55	1
112	120	1
63	86	3
63	68	1
87	99	1
8	9	1
59	60	1
48	95	1
65	66	1
49	57	1
132	133	1
122	122	1
48	131	1
22	121	1
11	11	1
