60	60	6
23	33	3
172	172	22
48	48	17
40	40	9
24	54	3
189	189	15
183	183	34
182	186	4
127	127	13
171	177	4
168	169	8
112	116	7
102	102	12
163	163	6
23	23	7
80	86	7
98	98	1
20	168	2
50	51	5
165	165	14
52	52	7
1	1	7
194	194	11
81	83	3
153	153	19
125	125	21
11	11	15
2	3	2
139	139	10
72	72	10
63	65	5
43	43	7
37	38	10
143	143	11
135	173	1
28	28	17
77	78	6
144	144	12
9	9	14
174	175	10
193	193	32
179	179	13
113	114	3
99	99	8
184	184	6
111	111	15
34	34	6
49	49	17
188	188	10
55	56	10
5	5	11
136	194	1
109	109	10
160	161	5
12	12	27
76	88	9
149	149	29
177	177	14
143	144	11
47	47	26
169	169	15
69	69	11
185	194	1
162	162	18
133	133	21
55	123	5
20	20	6
127	128	2
136	169	5
101	102	9
58	59	5
145	146	7
42	89	1
97	99	3
195	195	35
153	155	2
190	190	11
1	2	3
158	159	14
6	6	3
157	157	14
40	41	8
151	151	30
70	70	8
8	31	4
90	90	4
121	121	6
84	84	10
194	195	4
167	167	28
179	181	2
177	178	2
51	51	14
82	83	4
132	132	5
44	44	16
107	107	8
109	121	4
24	25	6
138	138	16
144	145	3
158	168	3
133	135	4
122	127	4
176	176	14
71	72	3
20	22	9
155	155	23
8	8	9
122	123	6
71	71	5
86	86	12
178	178	9
160	160	9
129	148	1
172	173	9
16	16	22
142	143	5
45	45	14
192	192	10
54	54	14
22	26	7
161	161	15
171	171	18
119	119	16
82	82	13
196	196	26
21	21	2
170	179	2
169	182	3
65	65	8
26	26	12
171	190	6
74	74	3
107	110	4
101	101	20
114	114	10
116	116	6
197	197	16
130	151	5
187	187	23
174	174	21
48	49	1
156	156	32
134	135	3
10	10	13
106	108	5
140	144	6
181	181	19
193	195	2
134	134	13
181	184	5
111	112	2
41	41	10
80	80	2
27	27	12
154	155	10
184	185	2
33	33	7
170	170	16
146	147	4
99	105	2
103	103	18
135	135	8
122	122	7
148	148	6
188	189	3
154	154	18
44	53	7
113	113	15
167	171	5
145	145	19
164	164	5
126	128	4
60	61	5
50	50	11
186	186	22
158	158	21
113	116	5
73	79	4
54	56	4
124	184	3
25	25	13
182	183	3
171	174	4
36	64	1
126	126	12
178	179	3
24	33	2
117	118	8
124	124	22
89	90	2
14	32	2
168	168	25
89	89	9
39	39	11
26	28	4
33	38	1
147	147	15
173	186	3
17	17	14
150	150	21
14	14	16
64	65	5
42	42	10
153	165	2
67	67	8
36	36	12
130	130	17
84	85	8
137	137	13
39	40	3
57	57	17
13	14	4
170	191	2
47	49	3
31	31	5
170	171	6
98	113	4
126	127	12
185	186	9
61	64	5
152	164	3
173	174	3
155	157	2
173	175	4
19	19	17
18	18	8
107	115	3
166	172	5
13	13	11
27	30	2
27	28	2
162	163	6
110	111	9
141	141	9
139	161	3
18	20	10
40	51	2
119	121	1
9	12	4
87	87	2
72	76	3
161	172	3
36	37	1
79	80	3
11	56	1
118	118	5
133	136	2
110	110	6
30	30	16
179	180	10
141	142	2
150	154	5
141	146	4
152	152	10
148	149	1
18	56	7
61	61	7
25	26	2
20	23	5
25	27	7
7	7	3
116	117	3
150	189	6
37	37	7
134	136	5
123	123	9
123	124	5
155	156	11
0	0	5
64	64	7
88	88	6
53	53	8
48	52	2
132	134	1
17	18	4
7	14	2
24	66	2
163	164	9
172	184	2
100	100	17
35	36	5
175	176	2
121	122	7
56	57	3
38	38	11
37	184	1
12	149	1
144	179	1
32	33	10
109	116	3
59	68	4
110	121	1
94	97	1
150	151	4
102	103	7
161	163	2
97	130	5
73	73	15
166	166	12
169	187	4
130	134	5
29	29	13
46	68	5
21	22	5
53	177	1
2	2	6
136	136	23
162	173	3
139	160	3
176	179	5
49	50	1
12	13	2
24	63	1
132	135	9
31	32	1
5	6	2
173	173	8
77	79	1
19	23	1
119	148	2
104	105	5
165	166	4
23	24	6
161	168	2
22	22	11
117	117	8
135	137	2
67	68	7
4	4	5
74	88	4
55	55	14
82	86	4
173	179	1
16	17	2
165	167	1
132	152	2
98	115	1
104	104	13
100	101	8
182	182	9
110	138	4
181	185	2
175	175	16
139	159	3
183	193	1
193	194	6
175	184	4
40	64	3
35	35	10
57	197	3
124	125	8
46	46	7
139	140	6
11	29	3
41	52	4
161	162	5
87	146	4
120	120	14
168	174	5
17	57	5
158	161	2
54	55	5
81	82	5
180	180	11
76	76	3
30	31	4
53	54	1
146	146	9
169	171	2
20	21	10
115	115	9
168	190	6
103	105	2
6	62	4
43	46	1
131	131	10
139	162	1
70	72	4
62	62	1
105	106	6
106	106	15
8	27	1
165	191	2
108	113	3
129	150	2
132	154	3
3	18	7
185	185	5
139	172	3
119	120	9
130	131	3
108	144	5
25	68	2
68	68	4
2	5	1
183	194	1
13	45	2
100	121	2
40	50	2
176	181	2
45	183	1
106	110	3
159	161	2
80	82	2
18	32	4
173	176	2
183	184	2
19	168	5
101	105	1
21	24	4
174	176	4
172	175	5
172	186	1
9	52	1
169	170	5
148	162	3
81	81	7
70	71	6
34	35	4
112	112	2
191	191	8
128	128	12
37	69	4
97	97	4
39	43	1
137	143	3
149	150	2
139	143	1
88	90	5
112	113	2
109	110	7
15	15	10
125	126	1
163	176	1
73	88	2
184	186	5
35	66	1
103	104	5
124	196	5
44	54	1
53	56	5
105	114	1
167	169	3
5	13	2
95	111	2
194	196	4
138	171	2
110	145	2
18	57	2
40	72	1
97	139	2
139	173	7
187	197	4
58	58	5
93	93	6
132	148	3
19	20	1
5	52	3
72	79	3
140	140	9
12	45	1
173	191	1
173	178	2
35	37	1
3	3	8
10	11	4
140	142	4
139	176	2
65	66	2
118	119	7
137	175	2
93	103	1
33	37	2
29	178	1
93	127	3
107	111	2
85	85	1
8	13	3
188	190	5
136	153	1
0	2	2
181	182	1
191	192	13
56	56	5
153	154	1
168	182	1
100	104	1
154	167	1
0	1	7
24	24	7
106	107	2
14	23	2
155	158	6
3	31	2
15	27	1
83	83	2
9	66	1
3	13	2
23	26	1
79	79	5
94	94	3
163	169	1
136	196	1
195	196	3
23	56	3
3	192	2
123	127	4
105	121	3
137	138	2
182	184	1
70	87	1
167	177	1
174	185	1
28	29	5
80	81	2
46	47	1
173	181	2
153	164	1
186	187	1
46	51	4
106	109	2
126	129	1
174	186	3
2	36	1
10	62	2
31	38	5
108	109	4
117	147	2
45	46	2
118	121	1
113	142	3
156	157	4
108	108	8
126	177	1
117	140	2
22	54	1
142	142	2
143	164	3
73	76	2
154	159	3
94	109	2
143	179	1
187	189	2
44	45	3
112	142	1
122	125	3
41	43	3
150	155	4
38	40	4
62	63	3
5	7	2
128	129	1
52	56	2
96	97	2
110	139	2
159	159	8
7	8	6
152	153	1
129	131	3
10	24	3
158	162	1
137	139	3
143	158	2
152	161	2
6	35	1
8	10	2
12	14	1
11	46	3
9	10	1
42	69	1
74	75	2
132	137	1
154	156	2
129	129	6
159	168	2
173	180	3
26	27	1
19	29	1
31	179	1
59	64	2
23	54	1
74	76	2
176	177	3
77	86	2
165	173	1
32	32	6
26	182	2
159	162	2
11	18	3
84	111	3
175	182	2
129	140	3
130	132	4
100	107	2
6	13	1
104	117	3
42	90	3
104	116	1
25	66	4
9	62	2
50	52	1
135	195	1
12	125	1
140	147	2
181	183	3
113	117	1
160	162	1
133	137	2
54	58	3
54	90	2
130	140	2
95	95	3
135	193	1
64	66	1
19	37	2
28	37	2
118	148	1
110	113	1
41	141	2
150	170	1
22	24	1
23	25	1
151	161	1
147	185	1
139	144	1
112	150	2
103	108	1
35	62	3
4	24	1
156	166	2
167	168	1
136	137	1
147	148	4
5	22	2
59	59	3
78	78	1
93	111	1
132	172	1
34	36	3
16	47	2
115	116	1
14	31	1
68	87	1
11	52	1
53	89	3
138	141	1
31	37	1
106	117	1
173	185	2
43	86	1
47	48	2
113	154	1
125	146	1
151	152	1
39	42	1
129	130	2
164	171	2
143	160	1
45	52	1
187	188	3
39	41	1
93	94	1
70	80	2
129	134	2
97	101	1
69	70	2
7	13	3
73	86	1
137	176	1
8	24	1
5	28	1
129	132	3
136	185	1
3	6	1
97	144	1
166	175	1
180	185	1
105	105	1
23	43	1
189	190	1
26	69	1
140	161	1
98	118	1
81	86	2
36	38	1
171	178	1
149	161	2
34	37	1
176	185	1
192	193	2
28	31	1
175	180	1
62	68	2
155	159	1
8	62	1
68	69	1
42	50	1
75	75	3
62	65	1
180	181	1
139	177	1
138	139	1
12	126	1
150	152	1
112	143	1
78	86	1
177	194	1
120	121	1
27	69	1
114	115	1
11	149	1
133	152	1
104	106	1
59	60	1
21	33	1
34	66	1
34	60	1
59	62	1
43	53	1
22	55	1
169	193	1
112	118	1
136	172	1
