87	87	6
193	193	21
94	109	2
176	178	4
112	112	6
140	141	3
80	102	1
104	104	3
7	8	3
14	14	5
111	111	7
105	105	6
29	29	14
35	36	5
1	1	4
123	123	18
29	33	2
127	128	5
170	170	23
114	114	11
32	32	15
124	126	5
169	169	16
179	179	16
54	54	20
59	59	10
40	40	17
137	152	1
184	185	6
182	183	8
24	24	8
179	181	3
134	193	2
142	174	1
51	51	18
58	58	14
37	39	3
5	5	9
8	8	21
168	170	1
110	110	3
160	160	17
122	122	10
48	48	16
190	190	8
122	128	3
128	128	20
7	22	5
187	188	7
151	151	13
57	57	17
143	145	1
84	84	4
122	123	1
19	21	4
15	15	13
194	194	14
145	149	1
140	140	8
113	113	8
2	2	9
181	182	7
183	183	14
121	122	8
100	100	11
121	121	9
125	126	12
132	132	6
72	73	5
13	13	13
108	109	2
99	99	5
115	118	3
159	160	10
184	184	25
101	101	11
55	56	4
102	102	9
129	129	15
23	23	19
16	17	6
185	185	15
117	117	12
23	83	2
74	74	2
174	176	3
171	171	15
12	125	1
10	10	11
154	154	12
159	161	3
89	89	6
38	39	3
22	22	5
79	83	3
185	186	7
28	29	5
139	147	3
147	147	10
157	158	5
68	68	12
95	95	9
44	44	32
9	16	2
110	114	1
5	19	2
50	50	2
126	196	3
124	125	9
9	10	7
181	181	11
56	59	1
12	12	15
45	46	3
172	172	13
9	9	8
98	99	3
182	182	10
82	82	4
152	152	10
135	136	5
168	168	12
180	181	4
46	47	6
50	51	7
160	161	4
192	192	18
45	45	11
188	188	12
34	34	5
47	48	3
35	38	5
43	43	13
177	177	8
116	117	3
37	38	6
152	153	5
53	55	6
72	72	8
61	61	3
165	166	13
178	179	5
124	124	12
70	70	8
30	126	2
150	150	12
187	196	1
139	140	7
135	135	8
27	139	1
138	139	5
56	86	2
31	31	17
79	79	2
118	119	6
125	125	13
80	80	2
191	191	10
8	17	3
27	27	16
106	106	11
149	193	3
15	17	3
188	189	4
67	67	12
77	77	6
176	176	10
113	115	3
14	15	4
100	101	4
52	52	9
16	16	7
71	71	7
136	196	4
126	126	6
128	129	6
47	47	13
134	134	8
169	170	14
41	42	5
192	193	13
180	180	9
161	161	8
127	127	12
53	69	5
148	148	22
157	162	1
157	157	15
191	194	1
37	37	16
123	124	5
154	155	5
154	190	2
149	149	17
33	33	18
53	54	2
189	190	8
161	165	5
53	53	8
52	53	3
93	93	5
148	150	2
13	14	10
196	196	9
174	174	5
3	4	9
107	109	1
171	172	8
141	141	10
138	138	16
7	7	4
153	153	6
108	108	9
14	32	3
120	121	5
93	108	1
25	26	5
30	30	6
129	131	1
157	159	2
118	144	1
81	85	3
22	25	2
167	167	10
130	130	6
162	162	3
136	138	3
179	180	4
69	69	16
11	11	16
169	182	2
191	193	3
115	119	1
45	113	2
76	77	5
145	145	4
32	36	1
137	148	2
18	18	4
186	186	12
167	169	1
118	118	11
27	29	2
100	105	2
72	77	3
156	156	19
19	20	2
129	130	3
38	38	10
5	37	1
29	31	1
78	78	5
67	68	4
123	126	3
120	120	6
156	159	1
159	165	3
44	57	2
112	113	7
138	188	2
120	141	1
151	170	1
32	33	2
81	81	9
132	159	2
71	120	1
76	85	2
106	107	3
22	24	2
34	35	1
151	167	3
75	76	4
159	162	3
107	107	3
187	187	11
123	128	1
115	147	2
165	165	6
125	128	5
105	106	2
116	116	5
143	143	6
11	12	10
173	173	5
192	194	2
189	189	14
116	118	1
20	21	3
16	22	1
197	197	6
157	172	3
42	43	1
171	190	1
23	24	1
98	98	4
159	159	6
85	88	1
3	3	10
39	39	7
155	155	2
62	64	4
127	129	1
42	42	16
10	14	7
156	164	2
62	63	4
28	28	5
171	173	1
15	20	4
47	124	3
9	14	1
120	140	3
71	72	3
121	123	4
129	149	1
119	120	6
94	94	8
129	187	4
36	36	15
43	44	6
9	101	1
130	138	1
193	194	9
22	23	3
152	168	3
73	73	8
33	34	2
136	189	2
23	31	2
194	195	1
101	102	2
56	58	2
9	11	2
138	189	2
88	89	2
56	57	7
76	78	2
29	30	3
184	186	2
65	66	2
10	15	1
30	31	3
147	148	4
177	179	1
26	26	3
169	171	2
126	127	3
5	6	8
137	137	10
4	36	1
46	46	5
95	97	2
25	25	8
44	85	1
4	139	1
12	43	1
134	135	4
90	147	1
139	139	5
168	169	8
56	87	3
185	187	1
103	103	1
176	184	1
55	55	9
153	190	3
142	143	4
84	85	2
153	154	1
0	3	3
105	111	1
133	133	15
79	80	3
110	121	3
152	191	2
26	27	2
6	6	5
73	80	2
154	161	1
114	140	3
54	108	1
173	174	3
188	190	5
136	195	4
136	143	1
97	97	2
98	103	2
101	110	2
4	33	3
51	52	4
102	104	2
170	171	7
52	122	2
148	149	2
6	25	1
71	84	4
56	69	3
163	165	3
136	191	3
175	176	3
14	56	5
0	164	1
70	72	1
173	175	2
191	192	4
156	165	3
112	122	2
18	24	1
10	11	3
140	176	1
40	41	5
47	49	3
34	37	2
195	196	5
1	2	4
43	85	1
65	65	1
176	179	3
148	177	1
117	118	6
104	105	2
31	32	4
78	79	1
96	97	6
196	197	2
195	195	11
156	157	1
147	168	1
103	104	5
64	64	1
115	115	2
142	177	2
102	105	1
114	119	2
56	56	4
52	112	1
133	143	1
165	167	2
95	108	1
135	193	4
150	194	2
152	192	1
54	56	2
109	110	2
8	25	2
173	180	2
4	38	1
99	100	6
129	172	1
120	122	1
24	25	4
145	146	3
52	69	7
163	164	1
146	147	1
3	160	1
55	59	1
26	28	2
130	139	1
163	163	2
70	87	2
48	49	1
46	123	2
73	74	5
141	142	6
120	150	1
98	104	1
35	35	5
155	158	5
58	59	4
119	119	11
49	49	6
0	1	3
57	59	2
24	26	1
60	60	2
24	74	2
43	83	1
27	39	1
146	146	9
34	158	1
27	28	3
23	29	2
164	164	5
171	181	1
154	160	1
168	172	4
130	140	2
90	146	1
111	114	1
142	178	2
68	69	1
7	16	2
81	82	2
156	160	4
31	84	1
150	151	3
41	41	9
30	40	2
172	177	1
156	174	3
155	156	2
77	78	2
153	191	2
86	87	1
166	166	3
3	36	4
15	18	2
101	111	1
9	46	1
76	76	2
184	195	2
178	178	1
178	180	1
43	63	1
184	188	1
119	141	2
133	155	1
1	4	2
57	58	4
111	112	3
21	21	6
112	123	1
26	29	1
156	161	1
190	194	2
17	18	3
166	168	1
155	160	1
190	191	7
121	142	1
49	50	5
77	101	1
136	136	7
132	136	1
63	63	5
119	123	1
28	34	2
18	21	1
75	75	3
149	150	4
150	170	1
42	80	1
192	195	1
150	177	2
157	174	1
109	109	1
158	158	3
142	144	1
175	175	3
20	24	2
148	184	1
134	152	1
102	103	3
174	175	3
167	168	1
132	133	2
164	165	2
138	151	1
59	61	1
112	115	3
24	31	3
125	195	1
35	37	4
80	82	2
66	66	1
44	45	4
110	111	1
142	142	4
96	96	2
155	159	4
4	20	1
36	37	2
172	173	1
40	42	2
133	172	1
133	151	2
95	96	1
3	34	3
183	184	4
4	4	1
2	140	6
175	178	1
18	40	2
160	166	1
165	168	1
137	188	1
80	83	2
37	58	1
74	79	2
94	95	2
181	183	3
1	161	1
4	5	2
0	163	1
83	83	2
151	153	1
158	165	2
159	163	2
93	97	1
129	197	1
0	0	3
64	66	1
15	16	2
162	166	1
17	24	1
6	8	1
184	196	3
8	16	2
133	134	1
186	187	3
143	144	1
54	59	2
182	193	1
69	70	1
183	187	1
151	152	1
59	60	1
115	120	1
28	30	3
5	9	1
114	115	4
18	19	1
132	145	1
33	41	1
129	148	2
5	73	1
125	151	1
43	71	2
113	119	1
147	176	2
118	121	2
47	69	3
172	176	1
25	29	2
147	170	2
9	47	1
4	6	3
189	191	2
118	120	3
171	187	1
161	162	1
176	180	1
128	171	1
52	123	2
53	57	1
17	17	1
4	140	1
131	132	1
143	169	1
24	30	1
174	177	1
169	176	1
25	74	1
148	193	1
140	172	1
169	172	2
34	49	1
10	13	1
51	69	2
115	116	1
33	37	1
20	23	1
5	25	1
126	185	1
167	170	1
50	59	1
86	86	1
126	128	1
0	73	1
134	136	1
51	68	2
126	137	1
182	188	1
131	131	1
74	75	1
186	188	2
21	22	1
24	41	1
158	166	1
172	181	1
9	15	1
176	177	1
38	40	1
70	119	1
144	145	1
33	36	1
17	22	1
111	116	1
2	3	1
0	2	1
