77	90	3
31	32	5
71	124	2
129	129	6
149	150	1
2	7	6
112	156	2
137	137	2
63	65	2
157	158	1
20	20	2
55	55	2
29	29	4
1	3	1
39	39	10
90	90	5
104	105	3
46	107	3
59	59	7
2	3	7
86	87	5
67	68	2
107	119	1
160	160	3
43	43	3
111	112	6
83	83	9
52	104	7
25	25	4
165	177	2
164	164	1
155	164	3
68	69	6
12	13	7
149	149	2
113	113	1
28	61	1
125	153	2
139	139	7
74	74	7
33	34	2
86	91	1
137	138	2
10	10	2
114	114	3
130	131	2
5	9	5
179	180	5
177	178	2
117	119	1
62	62	4
169	169	8
67	67	2
61	61	3
70	70	7
82	82	1
1	7	7
146	173	4
177	177	6
44	44	4
136	136	3
137	178	2
38	38	11
116	118	1
175	178	2
72	73	4
125	164	4
113	155	3
23	23	4
85	90	3
77	143	2
89	128	2
36	37	4
64	64	6
35	35	9
94	94	2
26	26	2
100	100	1
10	13	1
85	86	3
124	127	6
61	109	3
93	93	8
71	71	4
125	125	1
19	24	1
25	34	5
95	95	3
45	46	2
23	46	2
64	97	1
130	130	2
171	176	1
69	123	3
121	176	2
72	81	1
95	120	1
77	144	1
98	107	1
166	167	2
102	102	1
79	82	1
24	24	2
27	27	4
178	181	3
170	170	2
151	152	4
30	44	1
163	183	5
10	12	5
182	182	4
76	76	3
120	177	1
156	157	1
135	136	5
83	86	1
135	135	3
81	81	4
99	99	2
70	113	3
179	179	5
111	159	2
131	134	4
84	84	4
143	148	2
79	85	1
156	156	2
106	107	4
37	37	1
165	165	6
119	119	3
97	97	1
109	110	4
153	160	3
92	96	2
151	151	4
80	147	1
36	36	1
161	161	5
32	32	3
21	22	2
125	127	3
184	184	2
28	47	1
92	93	2
86	94	1
63	96	1
56	56	3
22	23	3
42	121	3
115	141	2
12	12	1
37	45	1
91	92	7
167	167	2
85	85	1
63	63	1
45	45	3
123	123	3
5	10	2
182	186	3
125	170	5
96	96	3
44	45	1
13	13	1
19	20	1
172	172	4
22	22	2
98	98	1
147	147	1
116	116	6
48	48	1
136	137	1
1	1	1
79	79	3
17	17	1
128	128	1
146	146	2
181	182	1
63	64	2
46	46	2
89	89	2
95	99	2
41	41	2
111	111	2
85	185	1
4	11	1
166	166	3
69	96	1
122	173	1
141	141	4
170	186	1
14	14	2
30	30	4
60	63	1
52	52	6
120	120	1
117	117	2
2	2	6
167	168	2
181	181	1
147	148	1
44	46	1
145	146	2
80	82	1
40	40	1
15	15	1
112	112	3
175	175	1
109	109	5
104	104	2
180	180	5
121	122	2
61	67	1
6	6	3
101	101	1
126	126	2
157	157	3
132	132	1
166	169	2
65	65	5
6	7	2
104	113	3
98	117	1
22	25	3
145	145	5
169	184	1
130	140	1
66	129	1
39	40	2
158	163	1
38	186	1
131	132	1
121	121	2
35	36	1
96	97	2
78	157	2
42	100	1
14	15	2
31	33	2
77	77	2
80	80	3
89	124	1
9	10	2
107	110	2
56	104	1
134	139	2
4	48	1
154	157	3
33	33	3
5	5	1
11	17	1
78	103	1
187	187	1
136	139	1
72	72	2
171	171	1
16	16	1
105	105	1
101	103	1
56	179	3
184	185	1
58	133	1
30	34	1
27	47	1
127	131	1
12	17	3
87	90	1
53	53	2
122	122	2
11	18	2
31	31	1
73	73	1
118	118	1
7	7	1
26	31	1
10	11	1
153	153	1
62	65	2
89	108	1
54	184	1
131	131	1
7	19	1
185	185	1
173	173	1
114	115	1
