90	90	7
77	77	10
97	143	3
79	80	1
85	86	6
108	112	3
14	15	4
39	39	10
9	40	3
15	15	7
20	21	12
71	71	10
21	21	2
75	77	5
92	93	3
119	119	6
37	37	15
62	70	5
148	149	7
102	102	10
89	89	2
7	7	6
22	22	7
138	139	1
140	142	3
156	156	9
139	139	14
125	125	4
141	141	9
15	19	6
118	120	2
37	52	4
36	36	12
54	55	2
47	47	10
30	30	8
101	102	2
17	18	6
110	111	3
114	114	16
14	19	2
135	135	3
152	154	1
46	46	5
131	132	6
116	119	2
2	3	3
120	120	8
70	70	1
40	40	5
62	71	1
8	9	6
121	121	11
49	52	2
40	42	3
96	123	3
99	100	10
150	150	12
126	127	11
9	10	8
123	123	14
75	75	6
5	5	8
119	144	4
92	120	2
128	135	4
11	11	11
137	137	13
143	143	8
98	98	13
8	15	3
106	106	14
142	142	4
29	51	2
129	129	9
148	148	13
25	41	2
26	26	6
90	91	2
38	39	3
118	118	11
153	154	6
109	115	3
103	103	7
43	43	17
123	124	5
109	113	2
50	51	10
33	33	10
65	66	8
65	65	1
73	73	13
72	73	3
24	27	3
127	127	14
36	38	4
78	78	6
83	84	4
4	4	4
117	118	5
149	149	6
112	125	1
157	158	3
131	131	11
9	30	2
103	104	1
136	136	10
97	104	2
29	29	10
81	81	23
109	109	9
149	150	4
106	107	10
27	28	3
3	3	9
105	105	5
115	115	8
17	17	11
27	27	5
20	20	6
116	127	3
0	0	4
124	125	3
110	110	11
121	123	2
133	133	2
151	151	3
130	131	1
153	153	6
93	94	6
116	117	2
129	132	2
35	35	12
100	100	5
23	23	1
73	133	2
121	122	7
45	47	6
122	122	7
84	84	4
154	154	5
24	24	12
123	125	2
93	93	8
144	144	6
44	46	2
49	49	5
111	111	3
25	25	8
142	145	3
82	82	10
68	68	6
0	3	5
50	50	6
95	95	10
130	130	3
145	145	16
22	23	2
140	140	8
131	153	1
112	112	12
32	34	3
117	153	4
44	44	10
30	31	10
108	108	5
33	34	1
48	48	4
12	12	12
19	21	2
48	49	1
137	139	5
157	157	3
115	117	1
51	86	1
155	155	7
108	111	3
38	38	3
10	11	3
42	42	10
41	43	3
113	113	5
147	147	9
14	14	8
83	85	1
54	54	4
91	91	12
132	134	2
135	136	9
113	119	7
84	85	8
44	47	2
76	84	1
114	120	1
86	86	13
83	83	3
39	75	3
97	97	4
53	53	8
134	134	4
1	1	8
67	67	3
87	87	3
92	92	6
82	83	4
124	124	7
11	14	4
147	154	4
98	99	3
112	117	4
33	52	1
144	145	6
139	140	1
71	72	3
63	63	7
69	69	12
109	110	6
101	101	15
68	71	1
19	20	2
67	68	2
107	116	1
3	4	1
66	66	5
5	7	1
51	84	1
152	153	7
16	19	2
53	54	8
34	35	3
10	34	3
24	25	1
115	116	2
18	20	1
50	55	3
128	128	4
109	111	2
98	105	2
8	8	4
145	153	2
69	70	1
145	146	3
79	79	5
112	126	1
41	41	1
78	97	1
53	57	1
138	138	3
108	141	2
78	110	4
93	95	4
67	69	2
37	40	3
5	6	4
126	126	3
94	94	18
21	22	3
128	129	4
95	107	3
25	26	2
95	96	2
31	31	2
141	142	4
16	16	1
137	138	3
132	154	5
84	87	1
99	137	4
114	115	2
43	48	3
23	50	1
32	33	10
152	152	3
51	53	3
46	55	1
51	51	5
42	49	3
34	34	3
101	105	2
7	27	2
30	35	2
45	45	4
142	144	2
114	123	3
104	122	1
81	82	2
107	107	4
92	94	2
118	121	3
75	92	1
132	132	5
49	130	1
13	16	3
51	52	2
10	10	1
30	32	2
57	67	1
99	99	5
11	12	2
140	141	1
55	55	1
30	43	1
116	116	5
40	43	3
64	64	2
34	88	1
127	128	1
26	29	1
80	119	1
52	52	3
0	1	1
120	121	3
32	32	1
136	139	2
36	88	1
96	96	7
80	80	3
108	109	1
18	18	1
144	147	1
33	37	1
29	30	4
44	45	3
16	21	3
25	31	2
7	8	2
46	47	4
72	72	2
4	5	2
104	123	1
108	117	1
13	13	5
146	147	2
43	52	1
16	17	3
106	120	1
42	48	1
2	2	2
31	55	1
97	107	3
150	154	1
9	9	1
87	88	2
111	113	2
109	114	3
28	28	4
94	95	4
66	67	1
89	91	1
40	66	2
23	24	2
144	146	4
7	10	1
158	158	1
151	154	1
2	4	4
15	18	2
154	155	3
49	85	1
85	85	3
119	120	3
22	41	2
12	13	1
105	106	1
1	3	2
107	111	2
19	19	1
3	5	1
132	133	2
111	112	2
52	54	1
148	150	1
117	117	1
13	15	2
103	116	1
113	114	2
43	51	3
125	126	1
155	156	1
90	92	2
10	41	2
1	2	1
104	104	1
106	108	1
122	123	1
135	137	1
32	37	1
20	22	1
46	69	1
33	35	1
35	36	1
25	27	1
30	42	1
16	18	1
26	27	2
