76	82	4
91	91	3
160	161	1
154	154	1
42	44	2
150	150	5
33	35	4
68	124	2
5	5	5
106	106	4
27	48	1
17	53	4
113	113	8
125	126	2
10	11	2
41	41	2
163	163	3
31	31	2
87	87	5
39	39	4
186	187	2
96	97	2
107	107	6
181	188	2
32	35	2
109	128	1
101	101	2
147	147	2
172	172	1
85	100	2
145	145	7
22	22	1
170	170	5
177	177	1
120	125	2
66	66	4
135	135	1
183	183	1
25	26	5
123	123	3
166	166	2
131	131	5
164	164	2
1	39	2
6	6	4
155	156	2
177	178	3
178	178	5
29	32	3
111	130	2
31	32	2
130	131	1
146	162	2
16	81	5
59	62	2
111	112	4
16	97	3
21	21	3
60	61	2
60	62	2
17	17	2
28	46	2
100	100	6
141	141	3
42	43	4
104	104	2
119	121	3
23	24	7
146	146	3
76	83	4
41	42	2
65	65	3
78	78	3
92	93	2
84	85	2
90	90	2
91	92	2
9	18	2
105	105	5
111	111	7
145	161	1
68	120	2
87	88	5
143	143	5
42	84	2
67	67	5
82	82	4
122	122	2
154	179	1
33	40	1
54	74	4
33	33	3
108	121	2
26	26	5
169	170	3
46	46	4
121	122	2
176	176	4
96	98	1
168	175	2
109	109	3
141	164	2
59	74	1
180	181	2
107	117	1
140	140	3
141	159	1
20	39	2
185	185	1
173	188	4
12	12	4
32	33	3
15	47	2
35	36	1
43	43	1
71	73	3
68	121	3
24	24	5
74	74	3
126	126	3
142	178	2
40	40	3
105	106	2
162	179	1
54	54	4
57	57	2
137	137	3
77	77	5
9	23	3
144	144	1
85	85	3
146	147	1
151	151	3
177	179	3
161	161	1
129	129	1
47	47	4
157	157	1
18	18	2
13	14	1
14	14	2
150	188	3
114	114	3
14	34	1
126	127	1
99	118	1
37	37	1
173	173	4
26	28	1
125	125	1
39	40	1
48	48	1
72	72	1
106	107	1
1	1	1
80	80	2
55	117	2
11	52	1
45	45	1
84	99	2
147	148	1
56	67	3
15	16	1
5	19	1
11	46	3
70	70	1
189	189	1
139	139	3
169	176	2
187	189	2
150	189	1
27	36	1
172	174	1
30	31	1
29	29	1
83	84	1
89	89	1
154	180	1
97	97	1
7	7	2
145	163	1
95	95	1
64	71	2
23	23	2
184	184	2
179	180	2
2	2	2
3	4	1
117	118	1
88	88	1
93	95	1
121	121	1
158	189	1
94	94	1
68	68	1
90	101	1
39	54	1
128	128	1
124	128	1
28	28	1
1	7	1
65	99	1
53	63	2
10	12	1
109	110	1
104	170	1
62	65	1
15	15	1
77	83	1
132	132	1
71	92	1
14	26	1
183	187	1
16	17	1
166	170	1
165	165	1
99	99	1
98	98	2
36	37	1
58	58	1
96	96	1
153	153	1
96	108	2
108	108	1
71	72	1
183	184	1
18	45	1
169	173	1
3	3	1
127	127	1
67	70	1
61	61	1
