74	75	6
3	4	7
70	71	1
14	20	2
166	166	8
84	84	3
26	139	3
112	130	2
150	150	7
74	89	2
167	167	6
37	38	4
109	120	3
139	139	5
143	143	4
94	105	2
16	25	3
73	73	13
24	24	9
136	139	1
7	34	2
109	109	5
37	37	13
117	117	6
38	39	9
145	145	6
52	54	2
155	156	5
125	126	2
18	18	16
97	98	1
89	89	6
112	113	6
111	112	1
80	80	4
89	99	2
18	19	3
41	41	6
9	9	13
107	107	5
128	128	7
167	168	1
11	11	4
75	75	4
3	3	14
120	120	9
44	44	4
35	43	2
8	8	6
4	4	6
95	98	2
6	6	6
36	36	12
110	110	16
42	42	5
146	146	3
118	118	10
127	127	4
144	146	1
46	46	9
50	50	8
119	137	3
86	86	4
55	55	11
126	127	3
140	140	3
111	111	3
159	159	9
74	132	2
6	7	6
19	20	5
170	170	4
58	58	1
69	69	6
49	49	16
6	8	2
81	81	9
168	168	2
22	22	3
54	56	1
157	157	9
135	136	1
165	165	2
35	35	14
95	95	6
113	115	2
142	142	1
47	48	1
43	43	13
65	67	2
15	16	6
1	2	2
152	152	5
63	70	5
39	40	3
159	166	4
28	111	1
120	121	5
160	160	5
2	2	16
47	50	7
87	95	1
20	26	4
78	101	1
14	14	10
135	135	6
76	78	3
125	125	12
97	97	1
15	20	2
47	47	3
110	117	2
159	161	1
138	139	2
7	7	7
74	94	1
34	34	8
55	56	3
13	13	6
124	131	4
63	63	2
25	25	2
104	104	1
44	45	5
3	17	2
120	152	2
76	77	1
33	34	1
42	43	2
160	163	2
107	111	1
138	138	1
137	138	6
36	74	2
72	73	2
137	137	1
124	125	1
134	135	4
73	116	3
156	162	1
13	14	4
146	147	2
52	52	3
64	64	3
122	122	3
130	148	1
158	158	8
53	53	4
91	91	1
39	39	1
16	17	2
48	48	2
88	90	2
130	131	2
17	18	3
134	134	6
16	16	6
14	15	1
114	115	3
17	17	2
71	71	4
156	156	4
21	24	1
167	170	1
24	25	1
54	54	3
5	5	1
161	162	3
154	156	3
85	86	6
26	117	3
158	159	3
124	124	6
46	49	1
130	130	3
111	113	4
129	129	4
143	144	1
139	142	2
99	99	2
50	58	1
22	26	4
33	33	5
4	10	2
124	130	1
41	42	3
86	87	2
20	21	1
27	139	1
76	108	1
45	45	1
2	3	3
77	77	4
62	63	2
133	134	6
101	101	3
98	98	1
0	0	5
149	165	1
48	58	1
1	1	4
36	55	2
26	136	2
9	10	1
165	166	1
93	94	2
36	75	3
40	40	3
116	116	1
100	100	1
48	49	1
109	110	1
163	163	2
153	153	3
125	130	1
43	52	1
114	114	2
8	9	1
87	87	1
38	38	4
10	10	4
49	50	2
14	17	1
102	102	3
51	51	2
113	113	1
57	57	2
79	79	2
0	1	1
34	36	2
8	12	2
132	132	3
106	106	3
65	66	5
46	47	1
81	96	1
12	25	2
87	90	1
19	22	3
166	167	1
10	11	2
87	88	4
107	108	3
141	142	2
164	164	3
7	36	2
76	76	3
68	68	2
40	43	1
28	138	4
169	170	1
94	104	1
17	25	2
56	56	7
6	17	1
19	19	1
56	64	1
154	154	1
85	85	2
108	115	1
82	98	1
74	74	3
92	93	2
13	19	2
89	90	1
6	20	2
70	70	3
161	161	1
12	12	1
44	48	1
5	7	1
66	66	1
148	149	1
116	117	1
78	78	1
145	146	1
126	126	2
141	151	1
105	106	1
155	162	1
20	20	1
133	133	1
23	24	1
103	103	1
23	23	1
19	23	1
8	10	1
16	24	1
121	121	1
3	5	2
26	27	1
136	136	1
63	69	1
151	152	1
131	131	1
39	41	1
83	85	1
28	136	1
127	128	1
162	162	1
140	141	1
