120	120	17
131	133	2
7	7	15
65	68	6
99	99	18
157	157	13
136	137	7
108	108	28
139	139	16
167	168	3
20	20	6
117	118	13
30	31	7
2	2	23
125	125	12
189	189	5
164	164	20
35	77	1
62	62	7
11	11	17
102	102	19
18	21	1
98	99	4
85	86	4
45	45	14
0	0	5
104	104	10
130	130	17
41	41	18
27	27	10
146	148	5
124	124	15
43	44	5
65	65	14
115	115	13
130	137	4
121	121	14
28	29	7
93	101	3
78	79	10
148	148	25
14	14	9
79	79	18
55	56	12
142	142	17
158	158	6
96	97	5
33	35	8
61	61	13
132	132	9
29	29	7
77	78	5
58	58	8
19	19	19
22	22	11
54	54	14
23	24	2
122	122	22
60	60	13
13	14	8
83	84	8
152	152	9
46	46	17
114	114	14
170	170	23
31	31	18
155	155	17
37	77	6
127	127	7
141	141	23
78	80	2
98	111	4
156	156	27
86	87	8
90	90	13
91	94	3
97	97	6
8	8	23
138	138	20
125	154	1
81	81	10
35	70	4
131	137	5
87	88	9
93	105	3
118	119	7
108	109	14
87	87	13
67	75	2
180	180	5
117	117	23
88	88	7
91	91	14
102	104	2
59	59	9
138	139	7
111	111	13
161	163	6
61	62	8
165	165	19
185	185	10
78	78	19
80	80	12
10	24	2
88	89	6
125	126	12
182	182	5
163	163	23
32	32	10
0	1	3
147	147	13
142	143	6
151	151	17
161	161	7
102	106	7
69	73	3
26	26	16
17	17	9
105	105	8
41	45	2
173	174	3
37	37	7
27	29	11
72	73	1
136	136	8
174	174	7
90	95	4
67	68	4
16	16	12
10	12	4
85	88	5
106	107	9
128	130	4
152	154	4
124	125	5
150	150	10
156	158	5
150	151	9
161	168	3
104	127	3
113	113	7
48	48	12
39	39	18
98	98	15
18	20	3
184	184	6
43	43	17
77	77	15
188	188	4
97	106	5
29	30	5
133	133	21
145	145	20
84	84	17
89	90	4
102	103	6
86	86	15
100	100	14
89	101	2
173	173	7
56	56	7
153	153	14
95	95	3
91	93	8
55	55	12
10	11	6
12	12	22
13	24	4
108	110	4
57	81	5
107	107	16
135	135	13
19	20	4
76	76	15
90	146	3
60	64	2
53	54	6
176	176	10
11	13	3
6	6	4
67	73	2
92	101	3
71	72	4
46	47	7
58	59	3
123	157	7
126	126	11
25	52	2
118	118	14
9	13	2
27	65	2
75	76	6
65	67	3
102	109	3
125	156	4
47	48	6
59	60	7
37	48	1
129	129	7
10	10	12
106	122	2
44	46	4
44	45	8
81	116	2
162	163	13
72	72	10
17	18	3
114	116	2
181	181	10
131	131	9
30	35	4
152	153	7
126	128	8
53	80	5
126	127	3
63	63	9
90	123	2
68	73	2
63	64	6
37	78	6
78	88	2
110	112	4
42	43	11
183	183	5
123	124	11
120	122	4
69	69	3
69	74	1
140	140	16
167	167	4
35	35	8
21	21	11
105	116	2
82	82	16
84	85	3
14	15	13
121	122	1
53	55	6
32	33	3
19	22	1
85	85	13
119	119	12
108	111	1
106	106	15
75	75	10
1	1	9
44	53	3
172	173	3
189	190	2
105	106	5
42	45	4
101	102	7
111	112	8
91	101	5
139	140	2
42	46	1
116	119	2
166	167	5
121	126	2
186	186	5
4	6	3
56	57	5
36	36	10
184	185	6
66	66	10
92	94	11
146	146	5
175	175	7
176	178	2
110	111	4
157	158	1
22	24	4
92	99	2
130	131	2
36	73	3
121	123	3
37	38	7
70	70	9
122	155	4
132	138	2
26	27	2
25	56	1
87	118	2
57	57	12
74	74	12
5	5	9
89	89	10
36	39	3
185	189	1
28	28	12
127	154	1
71	71	8
40	40	12
27	28	3
53	53	9
94	94	5
103	103	10
141	142	5
70	91	3
82	86	3
176	177	1
29	34	3
81	82	11
161	162	4
154	154	9
46	48	2
116	116	9
141	144	4
143	143	19
35	78	1
178	178	11
123	123	8
16	18	2
187	187	5
114	115	6
68	68	10
33	34	5
21	22	3
38	39	9
44	44	4
179	179	5
38	38	9
54	56	1
101	101	8
106	116	2
99	113	4
149	150	2
109	109	11
130	132	2
81	88	6
53	63	3
34	36	7
24	25	5
84	87	3
86	117	3
82	116	1
20	25	2
103	104	7
60	63	2
13	13	6
7	8	11
29	70	2
144	144	13
73	73	17
140	141	3
159	162	1
134	134	9
12	14	4
107	108	5
160	160	7
33	33	9
93	102	2
42	82	2
159	159	4
70	71	2
67	67	17
27	34	3
5	8	3
125	146	1
42	42	8
4	5	2
68	72	2
23	23	8
33	37	2
112	112	12
137	137	3
79	81	1
73	74	3
93	123	6
73	75	2
27	35	1
64	64	5
149	149	6
41	42	5
15	15	12
110	110	2
162	162	9
47	79	4
22	23	4
47	82	3
159	170	3
92	93	3
48	80	2
53	62	2
47	47	7
30	32	4
10	21	2
165	168	2
132	133	7
31	33	1
150	153	2
122	157	3
125	145	4
163	164	7
43	54	2
96	96	8
107	111	2
107	116	3
61	63	5
37	46	2
93	93	7
153	154	8
145	146	4
65	69	4
3	5	3
91	102	1
4	4	4
13	25	4
175	176	4
25	25	11
70	77	5
3	3	1
44	54	1
104	105	3
10	13	5
16	17	2
135	136	5
182	186	2
45	111	1
158	159	1
153	161	3
98	100	2
42	80	2
62	72	4
1	8	1
147	148	11
148	153	1
34	35	7
15	16	4
64	71	1
109	111	4
129	144	2
56	80	1
127	128	3
169	175	3
132	136	1
121	155	1
26	56	2
145	147	2
30	30	9
49	55	2
95	98	1
136	154	6
104	131	1
43	107	2
45	46	8
109	112	6
28	30	5
83	85	1
18	18	8
98	109	3
164	165	7
87	89	5
85	103	1
44	109	2
98	114	4
102	105	2
138	140	3
122	123	2
6	7	3
89	122	2
187	188	1
118	145	1
25	57	2
168	168	10
59	62	4
123	156	1
133	139	4
0	5	1
172	174	5
40	41	5
148	154	2
175	177	1
36	77	2
20	21	1
43	80	3
92	92	6
62	63	1
112	113	3
119	120	2
179	181	2
154	155	4
80	106	1
25	26	5
24	24	2
19	24	5
66	94	1
6	8	5
91	92	7
36	38	1
133	134	4
185	188	2
82	117	2
91	119	1
21	24	3
98	113	3
95	96	2
43	45	2
100	109	2
86	103	2
57	58	1
66	68	5
92	105	1
119	123	1
177	177	5
134	135	2
83	97	3
31	53	1
152	157	1
129	139	3
107	109	1
82	98	1
171	171	1
70	72	3
30	82	2
179	180	4
36	71	2
107	112	1
127	130	8
135	154	1
48	49	3
55	57	3
79	84	1
169	169	10
53	56	1
103	118	2
136	153	1
82	97	5
104	117	1
82	96	2
100	101	4
120	121	1
91	95	2
128	128	3
129	138	2
188	189	1
43	111	1
60	77	4
122	124	3
2	3	2
34	34	8
37	74	1
97	98	5
138	141	1
171	172	1
180	181	1
48	57	1
25	38	1
131	135	2
88	103	1
102	108	5
99	100	3
138	143	2
101	108	1
29	36	2
128	144	3
131	150	3
5	6	4
83	83	5
148	149	2
156	157	1
115	116	2
48	79	4
178	180	2
177	179	2
33	38	2
53	60	2
153	157	1
104	118	1
14	17	1
31	78	1
116	146	1
190	190	3
166	169	2
35	36	1
158	161	2
95	122	2
84	86	1
94	100	1
44	100	2
155	156	2
33	45	2
124	127	3
151	152	1
143	148	1
102	120	4
3	4	1
18	19	3
27	31	1
146	147	2
25	31	2
131	132	3
185	187	1
9	10	2
148	155	1
13	39	1
128	129	3
66	69	1
9	9	1
139	141	2
66	89	1
41	43	1
52	61	2
101	105	1
57	59	1
52	53	2
118	133	1
109	110	1
147	149	2
28	59	2
58	64	1
59	64	2
186	187	2
163	167	2
135	138	1
149	151	1
117	146	1
132	134	1
105	107	3
160	162	1
165	178	1
47	83	1
110	116	2
133	138	1
68	125	1
119	124	1
7	39	1
172	172	1
89	91	1
137	138	1
73	76	2
42	44	2
81	107	1
143	154	2
170	174	1
31	32	1
118	121	2
26	36	3
10	25	1
44	99	3
21	23	1
90	102	1
76	77	1
108	112	1
69	70	2
26	52	2
118	127	1
79	106	1
113	118	1
124	155	2
65	73	1
93	106	1
36	37	3
157	161	2
67	93	1
32	38	1
9	12	1
64	78	1
12	25	2
92	95	1
188	190	1
93	122	1
64	67	1
12	13	2
126	143	1
106	119	1
85	87	1
54	80	2
10	23	2
96	98	2
109	118	2
127	155	2
38	41	1
94	95	1
55	80	1
123	158	1
129	132	1
149	154	1
62	64	2
115	148	1
125	155	1
32	37	1
90	101	1
91	122	1
30	40	1
3	7	1
79	80	1
116	117	1
65	66	1
48	83	1
107	110	1
26	57	1
100	114	1
129	131	1
99	114	1
25	36	1
90	93	1
46	58	1
53	57	1
157	159	3
186	190	1
160	161	3
13	15	1
126	146	1
178	179	1
81	117	1
42	54	1
137	142	1
34	78	1
143	144	2
89	93	1
141	143	1
108	162	1
142	144	1
94	101	1
85	102	1
37	75	1
168	169	1
