24	27	2
108	108	6
98	98	6
22	22	5
106	117	2
56	57	3
97	98	5
5	5	5
115	115	7
12	35	4
9	9	8
76	76	3
53	56	2
128	128	9
84	84	8
124	126	3
83	84	2
96	96	6
45	45	2
93	93	10
105	105	6
24	26	3
65	70	2
126	126	10
92	92	7
18	18	2
24	24	5
10	10	1
4	29	3
33	33	12
50	50	10
81	83	1
69	69	9
3	3	5
105	125	2
10	11	4
108	115	3
122	125	1
64	65	3
64	64	7
55	55	4
112	113	3
55	67	1
86	86	3
88	88	5
15	15	4
99	99	3
52	52	4
1	12	2
85	85	7
102	104	1
35	35	3
81	81	3
104	105	4
77	77	10
111	114	2
75	75	3
100	100	9
18	25	1
90	90	17
66	66	6
5	6	3
120	124	3
97	97	11
0	3	1
130	131	2
32	32	6
124	124	2
125	125	4
67	67	7
83	83	10
27	27	4
31	32	2
53	53	7
16	25	1
62	64	2
85	86	1
106	116	2
95	95	2
86	87	4
87	87	6
12	12	1
91	91	4
122	123	5
68	69	1
88	90	4
127	127	12
73	73	4
80	80	3
88	123	1
70	70	5
122	122	4
7	7	3
129	130	1
118	118	2
21	21	5
117	117	1
106	118	1
24	25	1
130	130	1
8	23	1
105	106	1
103	103	2
73	74	5
94	94	4
31	31	4
62	62	7
17	17	6
1	1	4
55	56	8
22	23	2
82	83	3
112	112	9
56	56	3
81	86	2
63	65	4
7	9	1
102	102	1
100	101	3
68	68	9
96	97	1
95	98	2
125	131	1
85	98	3
96	123	1
29	30	2
59	68	3
102	103	1
42	44	2
84	85	1
32	33	1
63	63	4
121	121	3
79	79	3
107	107	6
113	114	3
124	125	1
33	38	3
61	61	4
20	24	3
53	54	8
95	96	6
104	104	3
131	131	9
47	47	1
47	52	1
132	132	1
30	32	2
123	123	4
100	129	3
92	113	2
114	115	4
18	19	1
87	88	1
127	128	6
115	116	3
23	24	1
90	91	1
114	114	1
106	106	1
23	23	5
101	101	4
118	119	5
79	80	2
110	110	5
121	122	3
128	129	2
89	89	4
71	71	3
27	28	1
36	36	1
108	111	2
77	100	2
135	135	1
56	122	1
43	121	1
77	78	3
20	21	6
8	19	3
117	119	2
49	50	2
65	65	3
83	117	3
127	133	1
112	114	1
61	62	2
13	13	3
74	74	5
122	124	1
19	19	2
58	58	1
81	82	1
4	4	1
54	54	3
107	108	3
43	43	1
120	121	1
6	6	2
61	63	1
130	132	1
34	34	2
50	51	2
20	20	2
35	36	1
101	132	1
71	101	1
59	59	1
45	46	1
82	82	2
30	30	1
113	113	3
8	8	4
134	134	1
60	60	1
106	107	1
21	22	4
119	119	2
4	5	1
129	129	1
88	120	1
72	72	1
26	26	1
31	33	1
80	130	1
25	25	1
11	14	1
128	133	1
37	37	1
65	66	1
76	124	3
93	94	2
125	128	1
71	100	1
131	132	1
69	81	1
98	99	1
49	49	1
2	2	1
120	120	2
19	20	1
70	77	1
