44	44	38
45	46	19
13	13	9
34	34	36
2	2	12
51	51	33
4	4	15
10	10	13
17	20	2
25	25	16
35	36	5
14	15	15
50	50	37
58	58	20
58	59	2
55	56	8
46	46	28
3	4	10
48	48	47
47	47	43
33	33	36
31	49	2
30	30	33
16	16	24
37	37	51
33	34	19
4	5	8
9	10	10
53	53	24
41	42	8
47	48	15
41	41	9
33	35	2
45	45	37
42	42	34
52	52	23
35	35	49
36	37	21
57	60	12
54	54	30
11	12	13
43	43	44
40	40	37
38	39	2
0	2	3
60	60	25
39	39	36
9	9	11
36	36	51
3	3	17
11	11	22
32	32	43
1	2	9
18	18	28
52	53	12
44	46	6
32	33	17
29	30	1
42	43	9
30	36	3
47	49	9
7	7	16
48	49	8
14	14	11
0	1	8
41	45	2
56	56	18
0	0	24
37	47	2
61	61	17
46	50	2
52	57	1
55	55	20
38	40	3
62	62	20
43	44	9
20	20	7
30	48	2
24	24	13
31	31	42
30	31	22
46	47	8
25	58	2
47	50	3
37	38	3
49	49	45
36	45	4
17	17	18
5	5	12
51	52	13
6	6	10
12	12	28
1	1	11
31	40	3
43	45	2
9	30	5
13	59	2
52	55	2
13	14	2
58	60	3
29	29	3
34	35	14
8	8	7
20	21	2
22	22	6
19	19	11
31	59	4
49	51	9
56	57	12
35	46	1
57	57	35
10	58	2
49	50	8
42	57	1
23	24	3
60	61	3
7	8	8
54	55	7
44	47	4
21	21	10
35	62	4
44	45	12
19	20	2
29	37	3
40	56	2
32	35	3
25	61	3
31	39	1
37	46	1
36	48	1
7	9	3
15	15	13
10	12	3
50	52	3
31	37	2
40	41	7
6	8	5
38	38	5
55	58	2
33	60	1
8	9	1
52	56	7
36	43	1
34	46	1
52	58	5
24	25	4
33	46	2
22	23	4
31	35	6
56	58	4
7	15	1
35	49	2
53	54	6
10	31	3
37	39	8
10	30	3
53	57	1
9	11	3
30	52	3
39	42	2
23	23	8
6	7	7
31	32	6
34	57	2
52	54	8
39	40	7
61	62	9
21	22	7
57	58	4
35	50	3
18	19	4
33	37	3
30	47	1
42	44	1
16	17	4
53	55	2
52	59	1
8	13	1
36	42	3
39	41	3
59	59	8
50	51	1
31	33	1
11	13	3
3	5	1
56	59	3
36	49	1
37	41	1
10	11	3
1	5	1
37	40	3
55	57	1
33	48	1
12	13	1
13	15	1
14	16	1
48	50	2
31	47	1
30	46	2
51	56	4
59	60	2
11	31	1
30	35	1
32	62	2
50	53	1
35	61	6
32	43	1
17	18	1
39	46	1
31	42	1
40	42	3
9	58	1
6	40	1
50	61	1
11	32	1
14	17	1
2	3	1
32	34	1
50	56	1
10	36	1
48	58	1
42	50	2
30	49	4
10	57	1
11	59	1
2	4	1
5	6	1
16	21	1
38	41	1
43	49	1
42	49	1
12	32	1
23	25	1
33	61	1
57	59	1
35	44	1
49	55	2
51	57	1
37	45	1
10	13	1
9	15	1
