3	3	10
19	20	3
45	45	8
131	131	4
54	55	6
47	47	4
139	140	2
105	115	1
103	115	3
133	134	7
114	114	11
9	10	3
96	120	3
126	126	2
136	168	2
164	168	1
90	90	4
58	104	1
75	75	6
95	95	3
96	96	4
13	13	3
52	62	3
0	13	1
109	109	4
36	36	7
2	2	6
38	39	4
69	69	2
1	1	14
139	139	5
110	114	1
45	55	2
58	127	1
164	164	10
162	162	13
37	44	1
112	112	8
108	108	6
38	38	13
43	43	5
103	103	3
63	63	5
118	118	3
47	48	4
168	168	10
97	97	9
132	132	5
106	106	3
81	81	10
101	126	3
34	34	7
45	111	8
0	0	6
6	6	1
137	137	2
0	15	4
48	48	1
155	160	3
158	158	4
16	16	11
90	98	5
44	44	8
115	115	4
49	49	4
83	92	2
14	14	1
161	162	4
96	146	2
101	103	4
69	70	3
5	72	3
65	108	4
76	76	12
62	83	5
48	49	4
131	143	1
86	87	2
144	145	7
152	153	4
102	102	10
162	164	1
0	72	5
154	154	6
117	118	2
56	56	1
153	154	1
8	11	2
40	40	5
162	163	4
115	127	2
4	5	4
7	15	4
54	54	3
111	111	5
163	163	3
35	35	4
17	17	4
76	116	3
151	152	1
149	149	1
13	14	1
111	112	1
84	86	3
55	55	7
19	19	2
77	77	2
62	63	3
57	57	3
151	151	2
131	167	3
151	154	1
130	131	2
147	148	5
167	167	2
0	1	8
42	42	4
116	116	1
140	141	1
15	15	6
151	153	3
107	107	3
18	18	5
98	98	7
50	51	1
4	4	1
45	46	1
67	68	1
18	19	1
156	156	1
132	148	2
56	57	1
101	101	2
160	160	2
82	82	3
93	93	1
64	64	8
7	7	3
52	52	1
36	56	1
73	73	2
143	149	1
22	22	1
23	49	4
133	133	2
170	170	1
113	113	5
87	88	6
91	91	1
37	38	2
110	110	4
124	147	2
67	67	2
51	51	2
9	9	4
104	105	2
86	100	1
138	138	1
84	84	1
159	159	2
2	104	2
6	74	1
70	70	3
12	12	7
57	110	1
153	155	5
110	111	4
125	127	1
124	124	3
99	126	1
135	135	1
116	118	1
85	85	3
24	165	3
10	10	2
155	155	2
168	169	2
87	87	1
33	33	1
128	128	2
90	91	2
39	39	1
70	108	3
98	99	1
123	164	4
107	119	1
100	100	3
25	25	3
144	144	1
150	150	1
46	46	1
67	124	2
27	27	1
21	22	2
145	145	2
47	49	2
134	134	1
105	105	1
102	103	2
138	166	2
78	79	2
156	160	1
62	62	1
21	21	1
95	98	2
123	124	3
92	92	1
129	130	3
41	41	2
23	23	1
25	52	1
123	123	2
53	53	1
120	120	1
149	157	1
99	111	1
109	114	3
66	125	1
137	138	1
67	69	1
21	24	2
68	68	1
130	130	1
20	23	1
94	94	1
12	14	1
157	158	1
132	136	1
20	22	1
28	28	1
8	9	1
125	125	1
147	147	1
150	153	1
86	86	1
