73	73	4
11	11	3
84	94	1
18	45	1
7	7	9
127	137	2
94	95	2
115	115	4
93	96	5
75	84	2
64	79	2
97	98	4
64	64	4
36	36	7
75	78	2
54	83	1
26	26	4
34	36	9
17	19	2
143	144	5
28	28	4
147	147	4
67	70	2
35	57	2
44	45	1
88	88	7
17	18	3
30	30	5
14	23	2
144	144	2
94	97	2
66	66	6
82	82	3
124	132	2
50	73	3
5	28	1
120	120	3
22	30	2
21	22	5
76	77	2
56	58	1
40	40	7
91	91	2
5	6	3
81	87	1
55	55	4
68	68	9
144	146	2
78	78	2
24	24	3
79	79	9
5	5	2
43	106	1
65	71	1
50	50	12
138	146	5
26	27	7
118	118	5
25	26	5
126	143	6
22	22	1
65	67	3
71	76	2
32	33	5
14	14	8
92	110	6
113	113	2
5	20	1
117	118	2
57	57	2
112	114	3
95	95	5
85	85	1
65	65	3
38	38	3
10	117	3
15	15	3
47	47	4
14	21	1
44	44	2
7	20	1
126	126	5
25	25	2
69	108	4
67	97	1
4	13	2
84	101	1
7	28	2
20	20	2
14	15	3
115	120	1
68	99	1
126	127	1
77	77	5
15	149	2
84	87	2
83	83	4
13	13	4
52	82	2
19	21	2
58	63	2
54	87	2
137	143	2
8	9	5
72	72	3
6	39	2
137	146	3
95	116	3
12	13	3
4	29	1
10	10	4
110	112	3
55	56	1
51	51	6
5	22	1
72	77	1
50	86	1
110	110	3
141	145	2
53	53	8
19	19	3
134	134	2
39	39	2
65	73	1
50	82	2
63	63	3
41	41	7
99	99	3
46	46	4
46	47	3
75	85	2
72	79	5
5	7	4
106	107	1
35	133	2
85	102	2
30	32	3
92	108	1
142	142	2
56	56	2
6	6	1
98	103	2
65	66	2
79	116	3
84	92	2
11	43	1
106	106	4
140	140	4
31	56	1
92	93	3
115	118	3
80	80	1
26	85	3
18	18	2
4	41	3
11	39	1
132	147	1
45	45	1
103	104	1
39	40	4
80	81	4
47	112	1
133	133	3
103	103	2
21	21	1
49	80	1
129	136	1
96	115	2
62	76	2
21	33	1
36	131	3
103	120	3
123	126	1
33	33	2
138	140	3
47	48	4
76	76	1
26	33	3
120	123	1
75	75	2
137	138	1
2	2	1
126	145	2
85	94	2
6	28	1
127	127	2
31	32	3
66	68	2
19	33	1
119	119	2
16	16	1
102	108	1
66	83	2
12	12	5
133	149	2
148	148	1
152	152	3
79	84	1
37	40	1
26	51	1
64	95	1
18	28	1
96	96	3
131	132	2
116	140	1
93	93	1
64	85	1
109	109	5
128	137	1
50	53	1
35	128	1
81	82	2
69	69	3
122	132	1
141	146	4
135	146	1
132	132	2
85	87	1
95	102	2
120	125	2
43	43	2
98	98	2
16	21	1
135	135	3
30	51	1
114	116	2
15	16	2
48	53	1
23	29	1
112	120	2
149	149	3
43	44	4
62	62	1
70	70	1
25	50	1
80	108	1
138	138	1
28	29	2
31	31	2
145	145	3
27	28	1
80	82	1
71	71	1
99	105	2
35	35	3
77	78	1
49	113	1
64	77	1
116	118	1
33	35	1
149	150	1
17	26	1
47	110	1
150	150	1
116	117	2
88	90	1
9	9	1
150	151	2
63	87	1
108	108	1
72	73	2
30	85	1
27	27	1
78	105	1
123	128	1
79	81	1
64	105	1
40	41	1
20	21	1
27	51	1
65	97	2
124	124	2
112	112	1
67	67	1
111	133	1
49	49	1
29	29	1
10	21	2
13	14	1
37	37	1
116	116	2
32	32	1
82	84	1
5	30	1
84	93	1
119	139	1
67	76	2
23	23	2
45	46	1
138	152	1
23	25	1
63	82	1
47	77	1
105	105	2
27	29	1
80	90	1
10	11	1
7	22	1
144	145	1
65	82	1
81	81	2
125	137	1
91	93	1
111	112	2
131	131	1
8	8	1
6	7	1
110	111	1
