57	57	37
31	31	30
10	30	3
56	56	19
12	12	11
55	55	19
52	52	13
32	32	25
51	51	11
42	50	5
21	21	7
44	44	32
0	55	6
48	48	37
50	50	32
42	44	10
33	36	6
22	23	6
47	49	5
33	33	30
7	23	1
37	37	36
39	40	1
6	6	14
45	45	28
44	46	6
35	36	3
38	58	3
0	1	11
59	59	17
34	34	27
33	37	1
61	62	1
8	9	1
5	11	5
23	24	2
46	56	11
46	52	4
56	57	18
42	42	18
2	5	4
51	58	1
0	0	9
45	61	2
5	5	11
18	18	20
38	39	1
35	35	17
36	36	26
5	30	5
43	43	31
14	14	11
47	47	33
46	46	12
30	32	3
62	62	15
33	35	10
58	58	20
61	61	12
53	61	2
0	38	2
1	11	5
3	13	5
48	49	14
3	3	10
30	42	2
40	40	7
39	39	17
37	40	3
30	30	26
60	60	10
38	38	9
49	49	11
0	42	3
34	35	3
42	43	18
40	51	1
12	29	3
31	32	4
11	12	12
33	34	1
45	55	1
1	1	9
37	45	2
40	41	3
50	57	3
30	54	10
29	39	1
30	41	4
53	53	5
54	54	9
37	39	6
56	58	1
2	2	8
13	37	2
44	50	1
32	36	5
32	35	2
0	40	3
1	13	5
43	61	2
52	53	4
14	15	1
25	25	7
45	60	1
19	19	1
43	44	7
29	29	8
15	16	15
34	36	3
54	56	1
7	7	2
55	56	4
32	34	3
58	59	8
53	59	5
49	50	7
44	45	7
30	31	5
6	12	2
9	9	2
4	4	12
45	46	7
39	45	1
40	42	5
6	25	1
47	48	5
20	20	2
47	50	1
18	19	1
60	61	7
32	37	1
42	52	1
58	62	2
9	24	1
45	50	3
22	22	1
0	54	1
13	13	9
43	51	3
12	13	3
2	4	1
37	38	2
35	38	1
0	14	6
52	61	1
56	59	2
1	52	1
46	60	1
19	22	3
22	25	2
37	51	1
43	46	1
2	3	2
41	41	4
42	45	2
37	41	2
7	8	8
36	37	5
8	8	3
40	53	2
46	47	8
15	15	2
51	53	1
54	59	3
35	37	1
41	59	1
43	62	1
1	2	3
31	33	1
31	36	1
14	16	2
16	18	1
32	39	1
57	58	1
16	17	3
8	24	4
46	50	1
46	51	2
4	5	2
29	30	2
44	47	1
23	23	3
6	11	1
24	24	1
6	14	3
30	39	2
43	60	1
1	37	1
32	33	1
19	20	1
24	25	1
6	17	1
45	47	2
51	59	2
6	10	2
3	37	1
50	58	1
51	52	1
39	46	2
52	54	1
