67	67	5
59	59	13
74	75	8
65	66	13
59	60	2
61	62	5
67	68	13
28	28	16
12	12	13
32	39	6
37	37	14
71	71	14
37	77	1
1	1	14
62	63	4
72	72	24
80	80	10
64	64	20
9	27	1
26	26	25
48	48	27
30	30	13
35	35	16
49	49	13
36	36	16
5	5	9
21	21	16
60	61	5
3	3	21
33	33	11
68	70	5
60	60	3
67	70	6
38	38	25
76	77	3
66	66	11
25	25	5
6	6	20
9	9	14
41	41	28
14	14	7
42	54	2
17	17	29
7	27	1
56	57	7
51	52	8
69	70	7
8	8	10
55	68	4
61	61	15
39	39	23
65	65	19
0	9	1
76	76	15
73	73	6
55	56	12
7	17	1
5	6	10
0	0	16
2	2	14
66	67	6
42	42	11
19	20	6
58	58	8
70	71	2
70	78	1
69	69	5
4	4	18
57	66	2
16	16	16
36	40	4
77	77	8
10	11	4
33	34	4
13	13	6
69	72	1
38	39	12
9	19	4
9	16	1
46	46	4
50	52	1
74	74	10
63	63	7
48	78	2
29	29	10
7	8	2
27	27	17
78	78	6
56	56	20
7	7	12
48	49	7
37	38	2
20	20	2
50	51	4
72	79	1
44	52	3
62	62	10
75	75	12
43	43	6
40	40	9
47	47	13
10	10	11
29	30	2
45	46	4
63	64	4
78	80	5
42	43	4
40	79	6
18	29	3
8	19	1
47	48	1
71	73	2
50	50	2
52	52	11
73	79	5
32	32	5
27	28	2
38	45	2
11	12	6
19	19	16
72	73	4
1	2	3
79	79	9
53	53	6
73	80	1
18	18	5
20	21	3
54	54	8
41	75	2
55	55	13
55	75	3
36	38	4
11	11	1
36	37	3
31	32	10
36	39	1
16	19	1
6	41	1
59	66	2
68	69	6
31	31	5
48	73	2
64	67	1
1	17	1
55	65	2
77	78	3
0	26	3
32	33	2
13	14	10
45	45	4
80	81	5
57	57	14
9	10	2
73	74	7
62	65	4
79	80	2
58	59	7
68	68	4
16	17	3
70	70	5
52	53	5
56	76	3
6	7	4
40	53	2
8	27	2
77	79	3
65	74	2
39	40	2
28	29	3
30	32	2
65	67	2
36	41	2
77	80	2
53	54	2
36	78	2
74	76	2
27	60	1
75	77	1
51	51	1
49	50	1
41	42	2
78	81	1
41	76	1
49	51	3
3	4	2
36	77	1
64	70	4
55	78	2
55	67	1
8	9	1
37	45	1
47	73	1
10	12	1
31	33	1
75	76	2
15	15	1
68	71	1
76	78	1
57	58	1
35	36	1
59	61	1
40	41	1
62	80	1
1	8	1
46	48	1
