12	23	5
1	1	26
33	33	16
11	13	1
58	58	14
8	9	5
54	54	11
11	11	26
39	39	21
29	29	7
31	32	2
16	17	7
20	37	7
51	57	3
38	38	8
35	35	15
17	17	21
34	54	4
45	45	10
57	57	8
5	5	28
12	12	20
2	2	22
16	34	2
9	9	15
55	56	5
22	51	1
37	37	10
51	51	16
41	41	6
34	34	9
33	54	6
20	21	6
14	14	17
49	49	13
16	16	25
40	53	2
35	36	3
0	0	5
22	23	2
4	55	2
32	32	15
52	57	5
30	31	15
21	23	11
57	58	15
39	40	9
36	37	3
21	21	11
4	40	8
3	54	2
42	44	9
19	37	3
52	52	10
4	4	15
18	18	19
30	30	8
36	36	13
10	10	20
28	28	14
18	34	1
31	31	12
9	31	4
19	19	11
52	53	2
17	30	2
40	42	3
34	36	2
18	24	2
28	29	4
3	4	7
33	34	4
32	34	2
56	56	10
7	17	1
50	50	16
44	44	9
29	31	2
20	20	8
12	54	2
37	38	8
1	11	1
13	14	12
34	40	2
1	2	3
0	21	2
36	38	1
42	42	9
7	7	16
53	54	7
15	30	2
13	13	8
8	8	6
3	3	30
48	48	9
6	6	13
52	58	2
27	42	4
31	33	2
14	15	12
15	15	17
35	38	1
15	16	15
17	18	8
44	45	3
7	16	1
23	31	3
45	46	3
40	40	9
56	57	1
52	56	3
40	41	7
48	49	3
54	57	2
31	34	6
23	23	7
22	22	2
12	21	2
39	42	2
11	12	3
4	5	3
1	3	1
32	35	2
34	38	2
51	54	1
55	55	6
3	10	2
50	52	1
47	47	9
40	47	1
8	10	2
49	50	7
32	33	2
24	24	1
21	31	3
41	56	3
46	46	5
6	47	1
46	47	2
38	58	1
9	15	7
41	42	5
20	31	3
51	52	2
43	45	1
11	23	6
27	28	1
12	34	4
12	24	2
6	17	2
53	53	2
55	58	3
45	53	2
20	34	3
24	36	2
24	51	1
40	50	1
11	40	4
10	11	3
28	38	2
50	51	2
22	28	1
36	48	2
4	49	2
33	50	2
36	40	2
12	42	3
20	22	2
38	48	4
9	12	1
42	43	1
20	35	1
9	23	1
31	50	2
41	57	1
9	13	2
19	20	3
0	23	2
33	36	3
0	19	1
57	59	1
35	56	1
34	35	1
31	35	1
43	44	2
11	22	3
6	7	1
9	14	1
36	56	1
2	3	3
19	21	2
1	12	2
14	16	1
0	51	3
12	39	1
55	57	3
30	41	1
11	35	1
2	8	1
0	1	1
5	6	2
10	14	2
17	34	1
13	15	2
0	20	1
14	17	1
23	50	1
40	55	1
12	14	1
18	37	1
31	36	1
7	8	1
6	12	1
