230	230	14
30	30	18
76	77	7
59	59	25
126	127	4
16	16	13
73	73	29
239	239	17
203	203	14
209	209	13
176	176	11
98	98	19
106	130	1
123	123	9
18	18	22
224	224	5
214	214	11
77	80	7
192	192	9
23	23	7
215	217	1
22	23	2
113	113	11
240	240	9
138	147	1
17	21	2
58	58	14
21	21	8
178	178	10
164	165	5
103	106	3
144	144	12
60	60	6
223	225	2
134	134	6
107	108	5
199	199	12
169	170	8
20	20	10
169	206	1
199	222	1
27	27	33
29	29	14
57	59	9
52	53	9
13	18	2
112	112	6
170	171	4
227	227	14
37	37	36
187	187	9
214	215	6
76	76	13
221	221	7
167	167	5
202	203	2
241	241	6
24	25	15
38	38	16
183	190	3
169	169	6
17	35	6
114	114	2
219	219	6
202	202	8
227	232	1
147	147	13
200	206	4
76	234	2
130	131	3
148	150	3
25	25	12
56	75	2
129	129	11
129	130	6
12	12	13
65	65	15
198	230	3
138	139	4
41	41	10
114	119	8
173	173	17
42	42	17
0	10	1
11	11	16
120	141	4
222	224	2
78	117	2
157	157	8
50	53	5
171	171	13
26	26	18
81	84	5
75	80	6
170	170	8
54	74	1
233	242	3
86	88	1
9	9	19
163	167	3
3	9	1
46	46	15
10	10	16
97	97	9
144	151	2
220	223	2
29	68	1
5	12	1
233	234	1
34	35	5
54	55	4
61	61	11
197	197	7
88	88	11
35	35	17
26	72	3
166	166	12
140	140	8
24	24	16
82	82	11
3	3	13
14	23	4
220	221	3
148	188	2
57	57	6
163	164	4
7	18	2
9	23	1
22	22	12
27	96	3
29	31	2
133	133	13
153	153	7
103	105	3
86	86	14
34	51	4
25	26	2
14	18	2
182	189	1
54	54	13
156	157	5
68	69	1
201	201	11
124	137	2
222	222	4
204	205	3
67	67	18
99	99	15
117	117	8
101	104	1
56	57	10
101	101	10
44	47	1
72	72	24
8	8	15
14	14	16
31	31	11
195	196	4
155	156	8
184	184	11
51	51	10
88	134	2
50	52	4
50	57	4
102	232	3
80	81	2
165	179	2
80	82	4
204	204	4
28	29	1
35	48	4
208	208	10
186	187	2
226	226	8
12	13	6
31	35	5
53	54	2
34	34	12
89	106	1
205	205	9
5	8	4
55	55	14
36	57	1
221	231	6
120	120	11
137	145	1
198	200	2
149	149	10
200	200	10
186	186	5
230	231	4
140	143	1
30	31	13
64	65	7
137	148	2
104	104	6
9	20	5
42	43	7
84	86	3
32	32	15
6	6	21
7	7	12
216	216	21
68	68	12
131	131	3
191	191	8
190	190	16
53	53	16
135	136	8
138	138	13
168	168	6
19	31	1
191	202	3
135	135	8
100	107	1
19	68	1
81	82	5
236	237	3
4	4	8
175	175	14
62	62	17
23	34	2
136	136	14
74	75	3
66	67	13
76	79	1
60	61	1
51	53	4
108	108	6
13	13	11
137	153	1
191	201	3
15	15	7
34	36	2
12	19	1
242	242	9
14	39	1
141	182	1
64	64	10
174	230	1
70	70	14
65	70	3
60	84	5
148	202	1
147	151	6
55	73	1
87	87	3
151	151	3
164	164	11
234	234	8
59	115	1
191	206	2
27	64	2
211	211	11
237	237	6
81	81	5
143	143	9
56	56	6
108	154	1
45	47	3
166	175	2
16	40	2
187	228	7
232	234	3
19	22	3
181	182	6
10	16	1
181	235	2
145	146	4
127	165	1
213	213	9
7	20	2
16	18	1
232	238	1
96	96	3
146	180	2
33	108	1
179	180	1
17	97	4
181	181	12
221	230	1
128	164	1
15	17	5
30	37	1
231	231	7
100	101	5
180	180	6
7	9	5
190	191	2
225	226	8
17	39	1
188	188	9
238	239	1
218	218	7
155	158	4
68	84	1
175	176	2
47	47	11
150	150	5
157	168	2
40	40	10
111	171	1
58	80	2
58	59	4
155	163	2
51	52	10
173	174	3
52	52	4
50	226	2
107	107	10
45	45	10
33	36	1
6	8	3
108	116	5
122	124	4
105	130	5
133	134	2
207	208	1
118	119	4
116	117	13
152	182	4
11	32	1
42	46	1
139	139	6
56	84	3
146	147	4
8	39	3
125	125	2
123	124	2
1	1	5
43	43	6
61	239	4
159	160	5
205	206	6
23	24	7
118	137	5
174	175	6
63	63	5
33	41	1
5	5	6
136	137	9
19	19	16
50	50	5
9	10	5
198	199	4
115	116	1
232	232	5
60	66	2
34	50	5
136	201	2
57	73	2
5	14	1
176	177	2
152	152	8
80	106	3
219	239	3
179	179	17
142	142	5
172	180	2
3	7	2
14	15	10
3	21	3
7	16	2
33	33	7
79	80	6
72	73	3
60	80	2
14	17	3
71	73	2
172	172	8
209	210	3
192	197	1
154	155	2
211	241	2
2	3	9
137	154	2
49	49	11
192	193	4
156	156	7
103	104	7
18	19	3
39	39	13
144	146	2
126	126	4
121	121	9
196	196	6
19	204	2
77	78	2
111	111	3
139	142	2
25	30	2
63	65	5
27	70	1
17	17	7
198	198	9
74	74	13
115	115	1
103	103	9
196	197	3
102	102	7
26	28	2
63	70	1
165	165	7
69	71	1
106	106	5
38	45	2
16	25	2
76	95	1
77	79	6
194	194	3
185	185	8
217	218	3
235	235	24
39	42	4
66	66	8
157	158	4
78	78	4
75	81	2
122	137	1
177	177	4
210	210	4
46	53	1
121	186	3
105	108	3
114	124	1
0	0	12
27	63	4
213	217	3
159	159	4
7	12	4
110	120	2
234	236	3
223	223	7
228	230	5
220	220	6
4	12	1
1	16	2
46	47	4
10	40	2
200	202	2
55	236	1
80	80	13
2	19	3
122	131	2
69	96	1
7	8	11
13	22	3
200	201	3
76	80	1
238	238	11
195	195	6
64	74	1
3	42	1
146	164	3
54	159	3
215	231	3
43	86	2
12	20	4
188	190	3
6	7	3
109	121	1
174	174	5
183	183	13
154	170	1
207	207	3
38	49	2
229	229	8
122	122	7
59	103	3
101	102	3
137	138	3
3	24	1
223	230	2
119	119	4
18	217	2
148	148	6
158	214	1
28	28	4
228	228	2
137	137	4
61	69	4
102	127	4
3	153	1
58	70	2
165	166	1
199	224	1
105	116	3
128	129	3
122	125	3
82	83	6
51	115	3
126	129	1
206	206	5
182	182	7
165	178	1
14	16	2
112	113	2
189	199	3
225	225	8
139	140	7
212	212	7
236	236	4
11	235	1
39	44	5
69	69	5
49	59	3
83	83	11
127	138	1
12	14	4
172	189	2
109	109	3
44	45	3
50	59	1
81	236	1
58	68	4
172	220	3
60	62	1
102	103	2
160	160	11
36	45	3
114	153	2
11	12	5
44	44	13
72	74	3
114	155	3
162	162	7
193	193	4
158	158	5
215	215	8
21	40	2
192	194	1
203	238	1
211	212	5
152	153	2
161	161	5
70	71	3
184	185	4
217	217	5
163	163	7
163	165	2
215	216	6
4	13	1
18	49	3
18	116	1
127	128	4
201	202	1
211	237	5
99	102	1
13	14	3
8	224	1
127	129	1
54	57	2
76	163	2
187	213	1
116	116	4
95	95	5
109	131	2
56	62	1
33	37	1
150	156	2
171	187	2
37	152	2
196	201	2
204	218	1
197	198	2
198	221	1
196	237	3
218	219	3
68	75	2
85	86	5
115	117	4
85	242	2
96	97	4
46	70	2
88	90	2
221	229	7
45	46	4
190	234	4
81	83	2
2	16	1
6	17	4
201	228	2
16	17	3
73	74	3
20	53	1
79	79	6
25	61	2
30	36	1
143	162	1
23	68	2
6	23	4
187	212	1
104	116	3
37	38	4
143	144	1
150	164	1
37	42	1
140	183	1
36	36	6
125	129	4
212	213	2
86	87	1
30	56	2
208	213	2
104	106	3
63	81	2
155	155	7
79	88	2
71	71	3
62	63	2
101	103	1
221	222	4
26	27	3
122	126	2
220	231	2
28	67	2
188	209	1
55	71	1
119	137	1
194	197	1
208	216	4
4	14	3
134	135	5
79	107	2
83	143	3
59	68	2
84	84	10
69	84	3
208	210	1
49	50	5
28	55	1
216	217	2
30	49	2
177	178	3
18	21	1
50	60	1
2	2	4
48	48	4
154	154	6
223	224	3
185	188	1
131	135	3
141	142	5
13	35	2
101	116	1
189	189	6
34	40	2
200	208	2
30	48	2
49	57	1
40	53	2
85	85	5
7	196	1
0	6	1
146	146	7
24	38	2
65	67	3
200	205	1
14	152	2
7	13	2
6	15	2
118	118	6
141	141	4
8	18	2
21	103	2
21	41	2
1	25	1
226	227	6
231	233	1
27	40	2
11	152	2
188	189	5
66	68	2
148	181	1
63	86	1
89	89	1
177	187	1
21	22	4
223	231	1
131	134	1
19	21	5
30	68	1
33	34	2
60	74	1
4	8	3
104	114	1
81	234	1
66	69	3
2	6	3
26	30	1
61	67	2
199	200	4
91	91	3
11	234	2
7	14	1
6	21	2
126	148	1
8	218	1
159	161	1
23	217	2
115	125	1
67	68	1
79	104	1
102	126	2
2	23	1
10	23	2
130	130	3
144	145	3
82	84	1
132	132	3
29	55	1
75	76	2
224	241	2
99	121	2
151	157	2
164	169	2
190	199	2
83	84	1
36	37	1
11	29	2
182	183	5
110	113	1
161	165	7
119	138	1
55	56	2
213	215	2
233	233	5
37	43	2
19	187	1
124	124	1
211	242	1
9	15	1
147	148	1
25	38	1
57	77	1
57	71	1
4	5	5
179	185	1
30	53	1
9	28	1
210	213	2
175	190	3
122	127	3
37	53	1
213	227	2
150	151	4
22	108	1
207	209	1
71	72	3
158	159	5
3	15	5
177	179	2
99	100	4
3	25	1
221	226	1
29	32	1
41	90	1
78	126	4
10	47	2
157	162	2
3	16	2
100	100	6
30	35	1
30	39	1
231	238	3
229	230	1
5	7	1
4	7	1
216	241	2
48	49	1
17	34	2
59	60	2
180	181	1
20	21	2
186	200	1
6	16	2
144	161	2
21	50	1
108	123	4
147	150	4
231	232	1
184	186	1
5	6	1
172	173	2
178	179	3
162	164	4
208	242	1
32	40	1
17	41	1
186	188	1
218	238	5
5	21	1
80	84	2
18	23	1
199	230	2
204	206	1
60	63	2
77	155	3
2	41	3
7	21	2
77	77	5
216	221	1
127	127	2
237	238	1
127	162	1
55	57	2
172	190	1
175	242	1
209	212	2
9	16	1
153	156	2
218	229	1
128	128	3
241	242	1
20	48	1
189	194	4
19	95	2
43	44	2
35	226	4
167	168	2
107	123	1
209	216	2
41	59	3
171	173	1
214	216	2
105	105	3
61	84	2
151	164	1
105	123	1
167	170	1
179	182	3
108	110	3
222	240	1
210	211	1
58	60	1
22	106	1
9	39	1
227	228	1
146	150	1
79	102	2
139	141	1
171	176	3
221	223	2
50	107	1
147	152	2
187	190	1
82	89	1
36	182	1
2	4	1
119	122	1
101	132	1
138	155	1
151	159	1
143	183	1
123	129	1
9	47	1
140	142	1
8	9	2
11	22	1
91	121	1
124	125	1
125	137	2
19	125	2
13	17	1
221	240	1
125	138	3
171	195	2
192	199	1
23	196	1
40	42	1
184	213	1
84	103	2
196	208	1
107	202	1
177	208	1
106	109	1
206	207	2
65	68	2
15	36	1
104	105	2
153	165	1
103	127	1
1	11	1
31	32	2
98	109	1
78	83	1
6	159	1
142	143	1
55	85	1
100	134	1
3	159	2
54	69	1
175	179	1
12	29	1
57	66	1
151	161	1
216	219	1
202	208	1
119	120	1
39	40	2
61	75	1
152	186	1
157	174	1
193	194	1
29	54	1
55	68	2
123	136	2
109	119	1
103	109	1
230	233	2
217	220	2
12	22	2
33	42	1
68	80	1
129	162	1
193	195	1
29	30	3
41	156	1
210	214	1
118	149	1
0	15	1
17	33	1
0	11	1
3	6	1
59	104	1
115	124	1
7	15	1
185	189	1
75	75	2
159	182	1
106	149	1
3	22	1
56	69	1
26	61	1
49	60	1
78	98	1
33	49	1
187	188	2
21	108	1
160	161	1
81	97	1
185	186	2
3	47	1
36	51	1
39	41	2
61	62	1
220	224	1
113	152	1
69	81	1
57	74	2
64	72	1
217	229	1
184	214	1
98	99	1
58	61	1
37	232	1
89	91	1
21	23	1
17	18	2
189	220	1
104	122	1
102	105	1
225	233	1
179	184	1
0	152	1
28	61	1
217	230	1
208	237	1
60	73	1
17	19	1
105	227	1
23	49	1
120	146	1
1	2	1
140	152	1
15	30	1
203	204	1
108	115	1
84	85	1
98	101	1
155	227	1
10	11	1
151	166	1
239	240	1
120	142	1
218	227	1
