122	130	2
149	181	2
96	96	2
78	78	3
173	175	3
191	191	10
194	194	6
22	22	4
188	189	1
196	196	5
118	118	2
134	134	7
99	99	5
124	126	1
19	19	5
1	1	1
42	42	4
82	85	6
7	21	2
57	58	1
133	133	1
73	74	1
130	158	1
177	177	5
123	123	4
132	133	1
178	178	8
94	94	1
196	197	4
111	137	2
174	177	3
10	11	2
120	120	6
151	151	3
187	187	9
14	14	7
187	188	2
168	168	1
164	165	1
9	9	5
173	178	2
151	152	4
183	183	2
161	166	4
114	114	1
100	100	13
181	181	2
64	65	2
146	146	2
129	150	4
147	149	2
99	104	3
5	5	3
182	182	6
148	148	3
139	139	3
24	24	3
186	186	4
56	63	5
139	140	2
27	27	1
56	56	3
46	46	2
108	162	4
93	93	1
36	36	8
4	19	2
160	160	5
165	167	1
144	144	3
197	197	2
68	68	6
172	182	3
138	155	4
100	101	2
97	97	3
128	128	3
50	50	3
117	117	2
88	88	1
176	176	4
149	149	7
151	174	3
150	150	5
155	156	3
49	49	4
6	7	2
36	38	1
165	165	5
157	159	2
122	123	2
142	142	5
10	10	2
89	89	1
156	156	4
2	3	1
25	25	2
167	167	4
189	189	4
4	27	3
57	57	1
81	81	3
124	124	8
113	113	5
106	106	2
189	191	3
173	173	10
109	110	2
116	117	1
30	31	2
101	101	5
146	148	2
161	162	4
70	71	1
39	39	4
179	179	8
154	159	3
152	174	1
104	110	1
41	41	2
97	125	3
71	72	2
155	155	8
102	102	5
141	141	4
38	38	6
39	40	4
157	158	3
77	78	4
133	173	1
169	185	1
160	165	2
168	169	3
103	103	3
30	30	1
43	43	3
129	129	7
147	148	1
117	118	4
26	26	4
11	11	3
192	192	4
0	23	1
162	162	4
69	190	1
109	133	4
106	107	3
167	168	1
69	179	3
168	182	2
169	169	2
179	190	4
153	153	5
136	136	1
139	159	1
145	146	2
126	126	5
110	111	2
95	95	2
13	13	5
34	34	8
103	105	6
176	177	2
80	80	2
38	40	2
78	87	2
108	108	4
183	186	1
100	110	2
184	184	5
186	188	1
65	69	3
107	156	2
145	145	2
24	42	1
66	66	1
16	32	1
181	182	2
188	188	2
178	179	3
157	157	2
113	116	2
23	23	7
2	2	4
161	164	2
86	90	2
139	141	1
2	24	2
15	33	1
130	130	1
18	42	3
53	53	3
192	194	1
132	132	2
165	179	3
170	170	3
51	51	3
182	195	3
68	70	3
127	128	1
48	48	4
3	3	1
33	53	2
12	31	2
8	38	1
113	125	2
158	162	1
28	28	2
193	194	3
147	150	3
105	105	2
148	149	1
166	167	1
47	48	1
33	63	1
126	127	3
107	129	1
77	77	1
52	52	3
135	135	1
150	159	1
158	159	2
67	70	2
179	180	6
32	32	3
15	15	1
105	106	2
168	173	1
84	84	2
141	149	2
141	160	2
143	144	3
167	175	1
36	71	1
159	159	2
61	63	2
125	125	1
152	157	2
125	138	4
150	181	1
155	157	1
22	28	1
116	118	1
185	185	3
120	121	2
111	111	1
67	67	3
127	127	2
121	121	2
122	122	1
96	160	3
104	104	3
159	160	1
18	44	1
166	166	1
33	36	2
128	161	2
5	9	1
166	168	1
12	39	1
51	54	2
131	132	1
126	128	1
166	179	1
107	111	2
35	35	2
162	163	1
125	126	1
138	153	1
165	168	1
111	133	1
142	146	1
175	177	1
137	137	2
76	76	1
128	164	1
138	138	2
152	152	1
168	181	1
138	152	1
152	154	1
17	35	1
53	54	3
169	190	2
12	51	1
115	117	1
41	42	1
130	134	1
47	47	3
67	73	1
18	18	4
44	44	1
138	140	1
178	180	1
179	181	1
96	100	2
18	19	2
0	0	3
146	182	1
58	58	1
77	80	1
82	84	3
142	159	1
184	196	1
116	116	3
180	180	2
141	151	1
59	59	1
107	107	1
110	166	1
101	103	1
0	4	1
120	122	2
20	20	2
112	112	1
76	80	1
172	172	1
87	88	2
164	164	1
117	120	1
50	51	1
106	120	1
119	119	1
179	182	1
127	150	1
15	16	1
158	158	1
70	70	2
98	98	2
34	35	1
21	22	1
11	13	1
72	72	1
194	195	1
71	71	1
82	83	1
186	187	1
76	77	1
4	4	1
55	55	1
