63	63	2
74	74	5
75	91	3
51	52	2
92	92	6
77	77	3
102	103	2
80	80	1
71	71	6
54	54	10
75	75	2
38	38	1
72	72	7
76	76	14
26	26	2
32	38	7
104	105	2
30	54	1
51	51	4
99	100	5
100	100	7
59	59	3
91	92	1
29	29	4
104	104	9
40	40	4
41	41	3
49	50	3
66	66	3
62	64	2
82	82	4
69	70	5
83	85	2
94	96	2
87	91	1
84	84	10
80	81	6
35	36	1
53	53	3
21	21	7
44	44	4
79	99	2
82	84	2
72	73	1
35	53	8
89	89	5
40	42	4
101	101	4
87	87	3
27	78	2
30	30	9
102	102	3
65	66	3
70	70	5
61	77	1
48	49	3
24	24	4
91	91	10
32	32	10
21	103	3
61	62	2
88	88	5
31	40	1
52	53	4
90	90	5
68	69	8
22	22	2
25	25	6
50	50	1
78	78	8
75	76	8
86	87	6
94	94	7
93	93	5
96	98	3
42	42	7
67	78	3
55	55	2
86	88	1
62	76	3
71	73	1
95	95	9
68	68	3
86	86	3
48	48	2
64	64	5
47	97	2
49	98	1
56	57	2
23	23	8
41	67	5
67	68	1
34	34	4
99	105	3
62	62	3
35	35	9
83	83	1
51	53	3
61	61	3
50	88	2
81	83	1
36	36	6
99	99	3
33	34	5
69	69	4
55	57	2
37	37	6
89	90	3
27	27	2
98	98	2
62	63	3
67	72	1
50	59	1
28	89	4
42	45	1
106	107	1
64	65	10
52	52	3
105	105	5
21	22	3
23	57	3
97	99	1
68	71	2
107	107	1
69	104	2
48	99	1
67	70	1
39	39	4
85	86	2
83	88	2
94	106	1
84	85	3
76	91	2
40	41	3
73	73	2
60	62	1
45	45	2
60	60	3
79	79	1
77	91	1
81	81	3
58	99	1
52	58	1
83	84	6
48	60	2
74	77	2
71	72	2
77	90	2
50	51	4
32	33	2
47	49	1
97	97	3
58	58	2
67	67	7
62	74	2
106	106	2
76	77	2
97	98	3
60	101	2
61	76	1
56	56	3
94	97	1
78	82	1
96	106	2
49	63	1
93	105	3
59	73	4
83	86	1
45	46	1
27	29	1
59	64	2
28	28	6
37	40	1
28	29	1
93	106	1
82	96	1
82	87	1
29	33	1
92	93	1
85	85	1
49	61	1
77	82	1
20	29	1
31	31	2
47	47	2
53	54	1
30	33	2
73	77	1
65	77	1
22	58	2
60	61	1
98	99	1
101	104	2
20	102	1
