74	80	2
148	148	7
106	106	7
1	44	4
137	137	5
43	43	1
119	120	1
77	77	1
91	91	1
69	69	3
45	46	2
167	170	3
87	88	1
14	20	3
55	55	4
18	25	2
45	45	3
153	153	1
134	135	1
53	53	3
151	151	3
101	103	2
163	163	8
20	24	1
37	37	12
64	66	3
14	14	5
154	162	2
35	35	2
47	47	2
153	163	3
14	15	3
38	38	2
41	42	2
48	48	5
118	127	1
122	122	1
22	23	1
14	100	1
56	56	6
112	112	4
9	9	5
7	113	2
33	33	2
42	42	3
53	64	2
34	34	1
117	118	4
8	8	6
51	51	2
50	50	3
156	156	2
16	17	1
149	152	1
143	143	4
88	88	5
110	111	3
142	142	1
1	2	5
34	35	1
71	132	1
2	126	2
62	62	3
8	81	1
96	96	2
38	42	2
9	13	2
167	167	1
76	76	1
71	72	1
132	132	4
81	81	4
91	92	2
46	46	3
38	40	3
53	81	2
134	134	3
49	123	1
39	120	2
15	16	2
79	79	9
10	10	1
35	42	1
40	41	3
128	129	2
47	48	2
39	40	2
93	93	2
77	79	3
7	7	1
27	27	1
98	98	3
52	53	2
111	111	5
121	121	1
48	57	1
139	139	3
43	45	3
2	2	3
69	72	1
155	155	3
91	115	2
26	26	2
90	90	2
131	131	2
89	121	2
104	108	2
65	69	2
138	138	1
137	155	4
48	52	1
135	135	3
11	11	2
160	160	1
87	87	5
84	122	1
37	99	2
111	112	1
139	159	1
50	51	3
41	41	1
2	28	1
129	129	1
36	36	3
85	86	1
101	101	2
19	19	3
114	115	2
22	22	1
37	38	3
103	104	1
83	83	2
70	70	1
63	63	2
12	12	2
6	7	4
1	1	3
152	152	2
132	133	1
113	113	2
15	45	1
2	158	1
4	4	1
86	122	2
154	154	1
118	162	1
149	149	1
125	125	1
120	122	2
15	15	1
10	11	1
75	78	1
65	67	1
121	122	1
37	111	2
116	116	1
153	156	1
89	91	1
150	150	1
54	54	3
94	94	2
55	80	1
93	94	1
80	80	1
40	51	1
39	50	1
128	128	1
117	117	1
148	153	1
52	52	3
99	99	1
113	114	1
149	153	1
70	81	1
21	21	1
143	145	1
119	119	1
110	122	1
