40	40	49
73	73	43
41	42	13
8	9	7
75	76	7
39	42	3
64	64	42
17	17	47
62	62	6
105	105	25
23	24	7
72	73	13
132	132	16
49	50	13
115	115	20
11	30	5
3	3	13
62	63	6
78	80	6
39	41	2
91	92	12
100	100	13
116	116	14
78	136	1
108	108	13
54	54	23
7	7	20
109	109	15
124	125	8
78	97	1
20	20	15
46	46	44
128	128	20
88	94	5
12	12	25
130	131	4
34	35	18
48	48	25
150	151	10
35	37	8
55	150	2
11	16	1
55	151	4
141	141	25
53	56	2
10	10	33
27	27	21
16	16	15
50	50	20
103	103	31
51	51	15
56	56	10
130	130	11
26	27	10
43	44	15
26	31	1
132	137	2
66	67	16
50	51	4
9	24	2
42	43	24
153	153	13
15	16	13
130	151	5
99	99	24
12	13	14
32	32	21
133	133	18
151	151	16
71	71	30
107	107	17
35	35	23
131	131	20
39	39	24
48	49	8
48	53	2
87	88	8
57	58	8
77	77	29
99	108	2
84	85	1
4	4	35
112	113	22
88	88	6
108	114	9
82	82	26
25	25	22
85	85	18
63	63	12
117	117	15
64	67	3
140	141	12
82	83	9
76	77	9
53	54	8
85	86	6
136	136	31
38	38	20
42	48	2
63	147	1
78	79	10
150	150	12
84	84	13
93	122	2
137	139	11
28	94	6
24	24	26
88	119	2
13	14	6
46	54	1
147	148	16
131	134	4
146	146	31
11	63	4
140	140	9
43	43	33
66	66	25
84	86	3
132	133	11
118	118	21
45	46	15
17	19	12
16	17	15
77	78	11
131	132	3
47	47	23
53	53	39
65	65	19
22	22	20
106	107	12
79	79	18
19	19	29
129	129	22
128	129	8
137	137	7
73	133	4
148	148	17
3	4	3
24	30	2
120	120	22
122	122	21
23	23	18
53	55	6
106	106	11
28	30	12
82	84	3
141	142	9
114	141	3
29	31	2
49	49	23
14	16	9
31	31	35
121	121	11
55	55	21
45	45	23
112	112	24
18	20	4
80	80	22
101	103	10
19	20	4
145	145	13
62	65	2
105	116	6
74	74	23
104	104	32
122	123	3
80	147	3
22	23	15
71	73	4
110	121	7
68	139	2
25	26	5
123	123	12
94	94	13
95	95	34
38	55	7
87	120	3
21	22	7
147	147	13
78	78	20
149	149	30
74	75	16
57	57	24
28	29	5
10	99	3
69	69	26
30	30	37
71	133	1
4	7	3
142	142	18
107	109	6
128	150	5
22	53	2
34	34	29
142	147	1
140	142	6
38	40	8
44	56	3
2	2	2
93	93	9
3	6	3
8	8	17
129	131	3
135	141	7
102	103	18
35	42	2
36	36	29
133	134	13
76	118	5
67	73	1
44	44	26
76	76	17
87	87	18
122	149	5
139	141	3
117	118	9
86	86	10
33	33	20
112	121	5
14	15	11
8	119	10
101	101	8
82	85	3
11	79	12
58	64	1
80	120	2
25	30	4
7	8	4
124	127	6
39	44	1
26	28	4
34	88	2
9	10	18
154	154	14
27	36	1
138	138	7
7	29	1
96	96	27
68	74	3
64	150	3
94	97	5
31	32	8
72	72	18
115	116	9
36	51	5
37	37	28
41	41	20
111	111	16
66	69	3
41	69	4
114	114	22
91	93	4
47	48	7
18	18	26
8	10	8
106	139	3
115	118	3
80	83	3
14	14	13
44	49	1
39	40	18
43	46	2
102	102	9
68	69	8
30	31	3
139	142	2
125	127	2
13	13	22
95	98	4
33	63	4
142	143	3
38	39	7
88	97	6
119	119	11
64	84	4
92	95	1
6	7	16
10	13	2
70	70	18
73	87	1
38	43	1
62	150	1
3	26	2
109	110	9
94	99	3
21	97	2
6	6	18
114	119	3
103	105	3
152	152	13
110	114	2
120	121	9
146	147	1
27	29	5
147	149	3
98	98	7
5	5	12
81	82	4
143	143	15
121	122	4
12	14	11
80	82	7
107	135	1
15	17	2
13	15	2
123	124	14
89	89	7
134	134	17
78	86	7
91	91	5
142	145	6
37	38	8
135	135	14
120	124	1
130	132	4
11	11	26
67	67	22
131	137	6
32	33	12
138	140	1
104	105	7
75	79	2
88	96	2
97	98	10
34	36	3
80	95	5
139	139	35
98	99	7
90	90	26
74	135	5
83	83	5
26	26	16
68	134	3
107	108	7
70	71	9
63	84	1
68	68	23
97	97	31
135	137	1
45	57	4
102	104	3
71	72	6
81	81	15
21	21	17
145	146	8
30	32	1
46	56	2
107	116	2
90	128	3
75	75	12
136	139	5
94	111	2
108	110	4
4	26	4
39	152	5
127	127	4
74	78	3
95	128	5
12	21	4
42	71	5
36	37	8
103	104	7
15	15	32
131	133	3
28	28	10
41	43	6
25	31	3
55	68	2
73	76	4
113	113	21
42	42	21
135	136	11
7	30	1
12	98	1
124	124	6
48	50	7
83	147	2
67	71	1
79	81	5
25	27	2
62	74	4
34	45	3
69	70	8
74	123	2
77	87	4
121	148	6
63	149	4
54	55	15
119	137	1
69	74	2
9	9	21
151	152	1
55	57	1
8	30	8
8	103	3
110	110	9
2	25	2
115	117	5
17	18	11
66	68	4
23	25	3
70	73	3
10	11	8
26	95	3
122	125	1
73	74	6
79	87	4
14	79	3
41	44	2
75	78	5
100	109	1
4	123	2
68	71	3
4	121	3
64	82	2
96	97	10
69	71	5
64	65	10
34	37	1
78	81	4
10	119	1
125	128	1
6	123	1
127	149	2
65	75	2
90	92	1
36	57	4
107	142	1
119	121	7
144	144	6
39	46	1
113	114	11
84	88	2
33	34	5
44	50	4
89	90	1
92	92	8
94	95	7
54	76	6
11	64	2
143	145	3
39	50	2
86	87	7
31	34	4
79	139	3
63	64	9
12	80	3
20	141	2
81	84	2
108	109	5
18	19	15
97	99	3
128	149	5
32	34	3
110	111	6
125	125	4
58	150	2
80	81	5
82	142	1
74	136	1
64	66	2
106	116	1
136	138	3
52	56	3
138	141	3
85	91	1
40	41	7
94	122	2
74	76	2
55	74	2
77	95	1
44	45	1
101	105	4
43	69	1
29	29	8
106	109	1
20	21	8
62	66	1
114	115	2
65	67	2
44	53	6
48	52	7
85	92	4
6	8	3
7	21	2
16	18	4
102	110	2
82	135	2
29	30	7
92	93	2
9	11	3
13	16	11
10	31	2
79	80	10
19	23	1
82	98	2
12	16	4
56	134	2
124	148	2
88	137	1
93	98	3
138	139	1
56	57	9
70	72	5
65	128	1
65	66	3
106	115	3
8	105	4
106	141	2
50	133	1
50	52	2
47	51	2
54	68	5
27	93	7
4	5	5
95	99	1
118	135	2
109	114	5
77	98	2
72	75	2
93	97	2
42	44	1
144	145	7
108	112	2
106	140	4
4	6	1
77	97	2
66	75	1
36	41	2
110	122	4
55	56	9
66	154	2
11	17	3
35	36	10
102	114	2
4	122	5
77	79	4
48	51	4
56	113	2
110	112	2
37	40	4
74	134	1
49	54	1
83	84	1
140	143	3
38	41	2
66	73	3
82	146	1
104	142	2
34	91	1
32	93	2
113	115	2
29	93	1
2	3	2
6	25	2
7	119	1
52	52	2
4	30	1
43	90	1
120	136	3
81	147	4
82	88	1
72	87	1
101	104	2
72	135	1
5	7	1
77	123	1
82	86	1
107	115	4
51	133	2
6	26	1
9	119	2
57	86	1
69	73	1
126	126	2
11	12	5
53	67	3
137	140	1
63	65	1
38	46	1
136	137	3
30	94	2
73	75	3
19	22	1
13	117	1
145	148	1
144	147	1
90	95	2
47	56	1
20	22	3
93	94	1
120	122	2
95	97	9
99	100	2
87	92	1
47	49	1
6	120	1
96	99	1
57	130	1
39	45	1
4	120	1
4	36	1
68	75	1
28	31	1
81	88	2
152	154	2
63	78	1
116	117	3
71	132	2
14	77	3
56	132	1
62	84	1
94	124	1
144	148	5
129	151	2
105	109	1
124	149	1
126	149	1
80	86	1
46	51	2
79	88	1
63	148	3
137	138	1
151	153	1
58	153	2
33	41	1
51	57	1
69	132	1
119	122	1
70	123	1
47	153	2
38	42	3
73	77	1
126	127	3
141	149	2
72	84	1
105	120	3
25	29	1
66	71	2
18	23	2
72	76	2
25	28	1
141	148	1
111	112	1
113	121	2
37	41	1
47	50	1
115	119	1
121	123	3
68	70	1
30	75	1
92	124	1
78	88	2
22	25	2
42	69	1
34	87	2
120	137	3
123	125	1
68	72	1
75	77	2
27	30	1
12	15	2
105	142	1
74	77	1
117	135	1
97	128	1
143	146	1
54	151	1
125	150	1
150	152	2
67	68	1
42	91	2
85	87	1
68	135	1
89	122	2
134	152	1
78	98	2
115	131	2
55	134	1
136	144	1
67	76	1
13	116	1
129	130	1
42	70	1
2	29	1
100	108	1
86	95	1
38	44	1
100	102	1
54	150	1
34	92	1
54	67	1
144	146	2
135	139	1
130	152	1
44	90	1
127	150	1
100	110	1
67	72	1
106	108	1
9	102	1
73	89	1
