54	58	2
56	57	6
103	107	9
38	40	5
91	94	8
71	86	2
26	26	14
110	110	23
24	25	2
21	21	17
31	31	21
59	59	23
67	67	5
95	96	11
93	93	9
41	41	8
110	111	13
71	75	2
28	29	3
92	96	5
69	69	15
114	114	11
35	35	14
84	84	3
74	74	9
81	85	2
22	68	1
82	82	5
33	46	2
40	74	2
45	45	12
56	56	17
39	71	3
68	71	4
86	89	1
55	92	4
72	74	6
38	38	4
33	33	12
69	70	2
65	67	1
100	105	6
110	112	2
78	78	8
83	83	19
89	97	2
109	109	22
114	115	3
70	70	8
96	96	10
98	102	1
61	61	15
105	107	4
20	20	6
22	22	11
80	80	16
99	100	6
29	31	6
75	75	16
79	79	6
25	25	2
79	92	2
40	40	11
72	75	5
65	65	9
109	110	4
82	85	5
97	97	23
81	104	1
108	108	16
36	36	11
91	91	17
53	53	4
105	106	7
20	21	7
79	80	4
101	101	14
55	65	2
72	84	4
106	106	8
48	48	10
32	32	10
109	111	1
58	58	12
99	99	21
89	92	9
73	73	19
67	69	5
49	49	12
39	40	1
107	108	13
29	29	8
66	90	2
105	105	18
19	19	3
26	27	2
112	113	6
89	89	3
107	107	10
81	81	10
83	85	4
113	113	20
68	68	8
54	54	16
64	64	8
36	38	5
111	111	20
53	65	5
43	43	15
89	91	3
55	55	7
101	102	5
92	92	13
98	98	13
72	72	20
53	55	2
81	82	9
98	106	3
55	62	2
94	94	13
94	97	6
96	97	2
27	27	9
66	67	5
34	35	4
103	104	8
112	112	7
53	54	8
23	24	8
76	76	11
43	44	3
37	38	3
73	74	10
23	23	5
86	87	4
47	49	4
102	102	21
77	77	15
44	44	4
61	62	12
95	97	3
50	50	11
109	113	3
71	71	6
87	87	5
45	46	6
98	99	3
83	103	1
42	42	7
34	34	11
103	103	7
85	86	11
55	56	4
94	104	3
90	91	7
37	37	11
70	74	2
60	61	8
24	24	4
59	61	1
100	100	2
71	72	2
75	76	3
68	69	3
89	90	2
102	103	9
79	96	2
95	95	11
106	107	10
57	63	6
57	58	7
94	95	3
58	59	3
47	48	2
56	81	3
49	99	1
63	63	5
69	87	2
82	101	2
60	63	1
70	111	2
39	39	8
51	51	7
64	70	2
85	85	7
40	41	6
55	57	2
104	104	6
59	63	4
85	105	4
22	23	1
88	88	9
88	90	4
51	52	4
97	98	4
113	114	5
33	34	8
101	103	2
52	52	4
42	111	2
104	110	1
29	32	3
103	105	5
48	50	3
59	60	6
79	81	2
98	100	2
59	62	4
90	90	11
63	65	2
94	99	1
81	101	1
34	42	3
42	44	3
79	94	1
90	93	6
46	47	3
83	84	3
88	89	6
30	60	2
76	77	2
60	62	4
107	110	1
81	84	1
52	88	6
41	44	1
65	66	2
92	93	3
73	75	4
90	92	3
60	60	5
88	91	3
64	65	3
28	28	8
25	29	1
74	75	1
102	108	1
87	91	2
19	23	2
86	88	3
54	56	8
94	106	2
33	112	3
74	82	2
93	95	1
53	57	6
88	93	2
78	79	3
54	55	2
99	108	4
32	34	4
62	63	7
34	37	2
48	52	1
55	58	4
93	94	2
91	92	5
100	101	2
29	30	4
22	24	2
80	81	6
111	112	3
66	66	3
76	78	3
77	78	2
70	78	2
46	46	2
30	30	1
82	97	2
51	91	2
85	92	2
56	83	5
60	68	3
80	84	2
70	75	1
30	31	2
60	74	2
87	88	1
108	109	5
68	75	3
70	72	1
104	107	1
53	56	1
100	108	2
99	110	1
76	80	2
57	59	3
74	87	1
51	99	1
71	74	2
73	76	1
83	104	4
104	105	1
84	86	1
31	33	3
39	77	2
35	37	1
70	71	1
49	50	3
31	32	1
66	69	2
29	34	1
87	106	2
27	29	2
39	72	1
41	42	3
67	70	1
55	69	1
38	39	3
80	97	1
19	20	1
61	64	1
94	98	1
63	64	3
111	113	1
61	63	1
63	68	1
64	66	3
43	67	1
83	87	1
55	68	2
105	108	1
62	62	2
72	89	1
70	73	2
58	61	1
47	47	1
80	96	1
52	76	3
67	88	1
46	48	1
108	111	1
107	109	1
66	68	1
36	37	2
83	102	1
100	107	1
78	95	1
58	62	1
100	114	1
84	85	1
98	107	1
55	85	1
91	93	1
109	114	1
