52	103	2
119	136	6
54	56	2
41	140	3
15	24	2
153	154	1
5	5	2
50	51	1
12	13	5
90	90	1
93	143	4
20	20	4
82	82	5
120	140	1
13	14	2
111	121	3
22	22	1
152	152	3
117	117	5
28	28	6
1	1	4
89	91	2
112	112	3
131	133	3
125	125	1
2	37	2
25	25	1
78	141	1
19	133	3
39	40	2
68	89	3
136	136	6
66	66	2
143	146	5
43	53	2
54	105	2
86	86	5
6	6	3
141	143	3
111	111	4
95	117	2
121	121	15
121	124	2
119	142	1
118	118	5
153	153	4
102	135	1
89	90	2
8	8	4
44	47	2
3	4	2
133	134	2
144	145	6
148	148	2
15	15	5
63	71	1
79	79	1
155	156	2
65	65	2
144	146	2
28	29	1
78	85	2
62	68	2
120	122	2
107	108	4
29	67	2
42	42	2
56	57	1
67	68	3
91	91	11
35	35	5
10	10	3
26	27	2
18	19	1
68	71	4
34	35	2
115	116	5
73	75	1
145	148	2
71	157	3
129	129	5
99	99	1
129	130	2
49	49	9
15	19	1
52	52	7
38	38	2
133	133	4
46	130	4
64	64	4
139	139	4
96	113	2
9	9	4
16	17	1
17	17	1
94	143	1
120	120	3
47	48	3
142	144	4
132	135	8
40	40	3
30	30	4
105	120	2
81	81	3
41	41	1
52	54	5
37	37	1
104	122	2
2	4	5
14	25	1
16	16	3
141	141	2
106	106	1
55	56	1
55	104	1
112	115	3
51	52	3
32	32	3
101	101	2
75	75	1
88	89	1
45	132	2
45	45	3
8	10	2
8	26	4
39	41	1
1	2	1
0	0	1
24	24	4
21	21	2
127	156	2
132	144	1
147	150	1
113	113	3
85	85	1
78	95	2
9	24	1
138	139	2
88	91	1
155	155	2
13	13	3
38	39	2
127	127	1
14	16	1
137	137	2
94	94	2
84	84	4
31	48	2
44	44	3
149	149	1
91	92	5
95	95	1
157	157	3
119	119	1
12	12	2
114	119	2
11	76	1
147	147	2
83	91	1
103	104	3
48	52	3
72	72	2
40	41	4
2	43	1
106	107	1
118	119	1
67	67	1
14	17	2
150	150	1
7	11	1
48	48	2
78	82	2
107	107	6
126	127	1
106	120	2
22	35	1
31	36	2
5	11	1
42	53	3
25	32	1
134	134	3
84	85	3
85	127	2
125	145	3
35	37	1
2	2	2
7	7	1
126	126	1
131	132	2
74	75	1
122	123	1
31	32	1
33	129	1
105	105	2
54	55	1
138	138	1
24	43	1
124	124	2
97	97	2
80	83	1
98	98	3
45	46	1
87	87	4
71	122	1
81	125	1
36	36	1
33	37	1
85	126	1
97	98	1
100	101	1
122	126	1
36	37	1
145	153	1
135	136	1
68	68	1
102	112	2
29	29	1
1	44	1
95	115	1
81	82	1
51	51	2
26	26	1
57	57	2
8	156	2
116	138	1
44	48	1
98	107	2
100	100	1
92	92	1
135	135	1
131	141	2
140	140	1
103	106	1
151	152	1
83	101	1
136	138	1
50	50	1
54	104	1
146	146	1
97	142	1
154	154	2
28	49	1
56	56	1
23	43	1
15	42	1
78	152	1
31	52	1
