207	211	2
232	232	3
213	227	1
224	243	3
245	246	4
92	119	1
73	73	4
184	184	5
218	219	1
51	83	1
200	200	8
12	13	4
168	168	16
91	120	3
155	155	11
216	218	1
234	234	4
207	216	2
57	119	2
88	95	1
218	218	6
189	189	7
225	225	11
162	197	1
115	116	4
35	35	8
162	162	7
231	231	2
66	66	8
47	47	6
48	48	3
7	26	1
48	57	2
30	37	4
111	112	6
168	183	2
7	19	3
110	110	18
79	80	4
221	222	2
116	116	2
17	19	2
166	171	1
152	152	7
178	178	7
195	195	8
116	118	5
56	56	4
54	54	4
238	242	1
115	227	2
146	158	1
2	20	3
190	192	4
60	120	4
197	197	2
243	243	7
112	245	1
193	194	4
90	190	3
204	204	6
1	1	4
28	28	7
34	34	3
193	195	1
224	224	6
85	85	3
194	197	3
223	224	6
213	237	3
206	228	3
188	188	3
86	86	4
226	226	4
28	29	1
102	103	2
221	221	3
237	246	6
23	201	2
2	2	2
92	93	2
108	117	1
158	158	1
153	153	5
7	21	2
105	107	1
199	210	1
237	237	5
144	173	2
145	192	1
59	74	1
84	85	3
26	26	4
37	57	3
5	5	2
24	39	1
6	6	7
145	196	3
39	39	6
206	206	3
106	108	1
222	222	3
33	35	3
76	76	10
97	98	3
208	209	2
188	189	5
32	32	1
182	183	3
61	61	6
87	88	7
101	101	3
192	192	8
246	246	6
10	11	4
82	100	2
193	193	3
94	94	4
45	45	4
38	38	3
229	230	4
164	164	2
56	59	2
107	113	1
113	113	6
52	52	8
90	90	7
154	154	2
18	19	2
41	92	2
201	201	12
99	104	2
210	221	2
85	86	4
156	157	1
21	21	3
44	44	6
44	45	5
176	183	5
17	20	4
28	230	3
1	223	2
40	40	7
65	66	3
2	244	3
67	70	2
180	203	2
105	105	3
33	47	1
180	223	3
32	33	1
214	214	4
60	60	4
77	77	2
48	62	1
15	23	2
14	15	2
2	17	2
99	99	10
45	46	5
82	82	1
233	233	6
219	219	13
35	102	5
5	6	1
240	242	1
209	209	4
185	185	10
150	150	3
162	165	1
104	104	6
144	183	2
165	165	5
175	175	7
5	15	3
9	54	2
203	203	5
166	167	2
36	65	1
53	53	12
208	210	1
208	237	1
69	69	4
68	68	3
158	160	1
119	119	1
67	68	1
212	212	4
171	171	3
210	210	3
177	197	2
206	207	3
65	65	6
30	34	2
170	239	1
151	151	6
190	190	1
18	91	1
208	208	4
109	109	4
90	100	1
194	195	3
187	194	2
3	25	3
84	84	4
191	191	1
168	177	1
193	198	2
109	110	1
13	64	1
161	225	1
73	74	4
212	213	4
76	96	6
11	11	1
176	176	2
172	172	3
31	152	2
69	194	2
202	202	1
167	167	4
31	69	1
52	94	3
6	67	3
106	107	2
30	30	4
173	187	3
232	240	2
15	37	2
232	244	3
111	111	7
228	228	6
223	223	3
43	43	5
67	193	2
98	99	7
170	170	5
29	29	5
159	159	4
3	3	1
156	156	3
83	100	3
181	181	5
98	98	1
211	211	7
209	240	1
90	91	4
6	7	3
22	26	2
237	238	2
22	22	2
39	62	2
210	240	4
4	214	2
190	191	1
196	198	3
99	102	2
11	29	4
91	91	6
1	51	3
97	97	1
199	199	3
53	55	1
78	95	2
24	25	1
120	120	3
203	204	2
58	58	1
229	236	1
71	71	2
42	42	7
37	60	1
56	60	3
205	205	3
151	161	1
247	247	5
117	247	3
49	106	1
215	215	3
80	81	2
227	227	4
196	196	2
70	70	5
145	228	2
209	213	4
105	106	4
184	223	2
49	50	2
227	228	1
248	248	4
199	200	2
9	10	1
177	232	3
180	180	1
238	239	3
217	217	7
7	7	8
199	239	2
64	64	2
94	114	2
235	235	5
45	110	3
230	230	3
42	106	2
90	160	1
208	213	1
37	213	3
157	157	5
31	202	1
173	173	3
217	218	1
236	236	3
183	192	1
193	221	1
24	26	2
230	231	2
35	59	2
220	225	2
16	203	1
72	72	2
12	12	2
178	184	1
67	67	1
9	9	2
160	160	3
191	192	4
193	196	1
169	169	3
37	37	2
191	199	1
173	196	1
52	53	2
27	199	2
183	185	2
144	241	1
70	72	2
23	23	3
10	10	5
176	177	2
96	97	3
207	207	3
78	78	3
212	216	2
104	120	1
201	202	1
147	147	1
15	17	1
246	247	2
46	46	1
179	180	8
43	92	3
79	79	2
33	36	1
51	51	2
178	180	2
75	75	4
118	118	1
233	235	1
177	177	3
55	56	1
112	112	2
59	59	2
161	161	4
114	115	5
219	221	1
197	201	1
89	89	2
179	185	1
2	31	1
81	81	2
18	18	2
41	44	2
31	73	1
169	211	2
213	239	4
82	83	1
229	229	3
239	239	2
15	24	3
88	89	3
180	182	1
90	106	2
43	44	4
24	24	4
88	88	1
19	19	3
169	170	2
57	57	4
162	173	1
8	8	6
63	63	2
38	59	2
24	201	2
27	27	2
194	194	2
74	74	3
231	234	2
167	168	3
187	190	3
162	208	1
34	64	1
121	121	1
95	110	3
19	47	1
192	223	3
67	187	1
145	145	1
179	181	1
16	16	1
38	50	1
244	246	1
166	209	2
238	238	2
13	14	1
237	239	2
172	173	3
106	106	1
53	54	1
92	92	6
112	239	1
51	62	1
168	169	1
164	165	4
229	234	1
102	102	1
70	164	2
5	100	1
107	107	3
23	186	1
4	4	4
76	77	3
242	242	4
213	217	1
180	242	1
217	248	2
5	34	1
74	174	1
158	159	1
80	80	3
219	233	1
181	182	1
42	58	1
44	59	1
60	77	1
151	173	1
241	243	2
15	15	1
163	164	3
15	35	1
92	120	1
224	226	3
32	110	1
146	164	3
51	66	1
182	225	2
81	82	1
6	33	4
58	61	2
51	64	2
196	197	1
245	245	3
36	36	1
46	47	3
173	174	2
144	144	1
76	78	2
22	25	1
175	176	2
86	214	1
216	237	1
148	207	1
116	117	1
197	199	1
4	16	1
183	183	3
86	89	1
235	245	1
244	244	1
5	67	1
46	97	1
65	70	1
32	182	2
31	32	1
46	112	1
90	92	2
111	113	1
160	164	3
114	121	3
2	14	1
232	237	1
211	214	1
18	22	1
179	229	1
236	243	1
173	189	1
244	247	2
7	25	1
110	112	1
165	239	2
186	206	1
100	100	1
210	232	1
163	163	1
179	179	1
159	181	1
49	84	1
62	62	1
41	54	3
218	236	1
59	60	1
108	110	1
185	188	1
176	181	1
177	183	1
41	90	1
5	243	1
186	193	1
112	160	1
108	214	1
218	232	1
188	190	1
179	228	1
