144	145	1
94	96	6
11	13	3
152	154	2
76	79	2
57	57	1
31	31	2
132	134	4
11	12	6
125	126	3
95	112	4
138	142	1
142	145	4
76	78	3
139	139	9
74	75	1
103	105	2
54	54	1
7	7	5
101	102	1
90	124	1
29	40	2
14	14	5
79	81	3
9	15	2
122	126	1
128	136	1
26	29	1
40	43	5
108	108	6
148	148	2
144	153	1
104	105	1
43	45	4
16	23	2
110	111	3
40	41	4
69	87	1
54	55	1
3	6	5
19	26	3
82	93	1
46	46	2
111	113	4
4	9	2
53	67	1
132	133	3
68	72	2
105	106	5
15	17	2
50	64	1
65	85	1
26	30	2
65	66	2
145	146	2
151	154	1
154	154	1
116	120	1
137	139	2
10	19	1
55	55	5
38	43	2
136	140	1
105	120	3
15	33	1
37	37	11
77	78	2
52	56	2
133	135	3
135	135	2
135	136	1
137	138	4
132	136	1
147	154	2
45	45	1
105	108	3
87	88	2
110	114	3
51	54	2
5	5	3
19	25	2
39	50	1
109	117	1
78	106	4
149	151	4
119	130	4
81	92	1
106	106	2
132	132	5
7	10	1
96	101	1
53	53	2
136	141	3
129	129	1
103	127	3
80	81	6
85	88	3
94	97	1
101	130	2
32	44	2
8	24	5
48	48	2
143	153	2
49	54	5
55	64	4
146	149	4
117	122	2
112	151	2
103	104	1
35	36	2
30	30	1
50	52	1
13	14	7
17	46	1
134	136	3
67	72	2
15	23	3
153	154	1
64	64	4
152	152	3
151	151	6
67	79	2
18	19	3
102	102	2
107	110	1
44	45	3
23	28	1
145	145	1
133	143	7
144	149	1
133	138	4
85	86	2
141	146	1
87	111	3
114	115	1
116	121	4
145	149	4
50	65	2
49	49	1
26	26	1
97	98	5
21	21	1
9	47	2
104	104	1
137	137	1
69	73	1
149	152	5
16	16	1
9	11	4
75	77	1
47	48	3
117	118	1
99	100	4
97	104	3
67	71	3
86	86	1
44	46	1
33	39	3
42	49	1
43	43	4
131	151	2
95	103	3
30	33	2
36	44	2
67	68	2
30	38	2
17	19	3
38	58	1
78	78	3
117	120	3
110	124	3
39	44	6
139	146	1
20	32	1
31	34	1
52	53	2
46	49	1
100	107	3
78	79	4
116	127	1
107	152	1
83	88	2
120	132	1
15	30	3
134	139	2
34	39	3
149	150	1
16	20	2
127	128	6
40	46	1
41	41	1
70	74	1
12	13	2
66	66	3
37	38	2
27	28	1
113	137	3
85	93	1
100	119	1
79	79	3
134	135	3
30	37	1
147	149	1
89	94	2
128	130	3
123	123	1
117	117	1
16	24	1
38	40	2
139	140	3
63	63	1
28	29	4
84	84	2
21	22	1
107	127	1
90	113	1
80	105	1
4	10	2
9	57	1
97	99	1
68	69	1
76	76	3
13	16	1
13	13	1
14	18	1
144	150	2
133	133	1
112	114	1
18	22	1
98	98	1
44	44	2
77	82	3
65	92	1
40	63	1
80	80	2
126	139	1
64	74	2
127	145	1
27	27	2
138	138	3
32	33	1
77	79	1
7	8	1
145	148	3
115	115	2
97	107	1
81	87	1
24	26	1
131	141	4
39	41	3
30	52	1
12	12	2
50	68	1
135	139	1
119	119	1
15	29	1
106	117	1
110	141	1
6	6	1
107	114	2
35	39	1
77	77	2
52	64	1
122	122	1
104	106	2
146	146	1
124	128	3
31	36	2
69	69	1
118	140	1
62	63	1
38	45	1
152	153	2
47	47	2
3	5	1
7	36	1
30	44	1
78	107	1
99	106	1
107	107	1
113	127	2
71	72	1
57	58	1
116	118	1
30	36	1
93	94	1
25	27	1
67	67	1
94	94	1
96	121	1
112	112	1
54	56	1
144	144	1
141	141	1
13	17	1
106	107	1
51	51	1
34	34	1
106	127	1
62	78	1
101	101	1
24	24	1
123	154	1
124	154	1
120	120	1
118	120	1
63	66	1
