43	43	12
217	217	15
210	214	11
20	29	4
165	165	31
36	36	19
50	195	6
215	217	6
183	184	8
114	114	34
16	16	19
39	40	6
27	27	11
109	120	3
211	212	11
190	205	4
65	65	19
244	244	22
50	50	6
9	9	19
23	26	4
181	181	16
178	180	2
183	183	28
51	51	39
180	180	25
105	107	3
211	213	9
185	186	6
187	189	2
160	160	21
86	100	3
169	179	4
153	166	1
231	232	5
57	161	2
55	56	11
162	162	26
17	17	13
247	248	1
224	224	20
204	204	27
105	106	5
96	96	15
189	189	10
80	82	2
169	175	2
8	17	1
216	217	4
163	163	14
18	19	15
240	240	20
159	159	14
146	153	5
157	189	5
227	228	4
10	10	24
65	66	6
12	12	31
19	26	2
112	113	13
45	45	7
15	15	15
109	110	8
152	152	22
79	79	25
6	6	16
158	158	9
11	11	8
187	187	12
176	179	2
9	26	3
168	168	46
237	237	12
31	31	11
48	48	18
20	20	40
63	64	4
93	94	11
113	113	13
155	155	33
154	154	30
191	192	6
52	162	2
118	119	15
44	45	11
192	192	5
30	30	10
203	203	33
170	171	3
178	178	9
182	183	10
218	218	11
86	87	2
51	54	3
40	40	21
28	28	18
32	33	5
29	29	16
215	216	4
164	164	13
37	37	29
201	201	17
33	33	31
19	19	31
165	175	3
153	153	28
214	214	16
90	90	14
243	243	10
163	164	2
171	171	7
109	109	23
109	117	2
77	77	19
166	166	11
248	248	14
27	28	2
170	170	17
214	215	2
169	192	3
198	199	7
21	21	15
177	177	6
92	93	4
156	156	28
52	52	16
47	48	8
46	47	6
234	235	8
182	213	3
115	115	24
213	214	6
34	35	13
19	20	7
81	82	10
174	202	2
14	14	13
99	99	9
173	192	3
67	67	9
167	183	1
59	59	18
23	23	28
2	3	3
194	219	3
234	234	22
51	52	8
163	165	6
169	169	23
112	112	14
78	78	14
38	38	26
203	225	2
92	92	13
36	37	4
91	91	7
180	214	2
71	73	5
145	209	6
229	229	17
71	74	7
2	2	11
209	209	13
155	156	4
52	53	15
194	194	12
57	58	6
71	75	2
119	119	8
200	200	10
185	192	2
163	183	3
186	188	1
145	145	7
53	154	3
64	64	16
94	94	18
44	44	43
202	202	21
229	230	8
228	229	4
190	190	10
239	239	9
168	169	11
222	223	2
146	150	1
197	197	16
106	107	6
196	196	11
236	236	10
30	228	3
16	228	1
48	49	7
24	25	2
76	76	9
233	233	11
217	218	1
241	241	16
199	199	9
208	208	13
90	91	4
224	225	7
193	193	7
70	70	5
46	46	26
223	224	8
232	234	4
161	161	14
117	117	7
238	238	12
233	234	5
89	90	6
151	151	37
216	216	4
101	101	5
31	232	3
174	174	3
37	64	1
182	182	8
19	21	4
8	202	1
56	56	8
179	179	16
150	151	8
24	24	20
195	195	14
159	160	2
104	105	5
181	209	3
66	67	8
55	55	18
72	72	8
26	26	17
49	50	7
12	178	2
160	209	3
152	153	3
149	149	8
164	166	1
22	22	15
230	230	15
97	97	5
76	91	6
9	10	5
95	98	2
184	185	9
31	229	3
97	108	4
103	103	5
235	235	6
192	217	2
151	234	2
172	172	14
212	213	2
186	207	2
77	79	1
203	204	10
204	205	10
114	116	2
35	36	5
207	207	22
68	68	11
44	90	3
56	58	3
48	180	1
246	248	2
23	27	2
7	230	1
29	30	5
191	191	29
194	195	3
62	62	13
185	185	10
223	223	11
1	3	1
35	35	20
169	170	5
43	44	4
227	227	6
184	207	1
93	229	3
225	226	5
199	237	4
220	221	6
174	179	4
55	67	1
175	176	8
189	190	10
186	186	13
10	44	3
110	110	16
186	201	1
35	169	4
157	167	2
111	112	8
86	86	9
83	83	7
11	12	6
246	246	5
242	243	4
181	185	5
34	34	14
225	225	26
59	62	7
3	3	4
46	55	2
88	91	7
31	200	3
95	108	1
157	159	2
8	8	14
31	32	5
107	109	1
73	73	7
199	200	6
53	53	20
1	1	13
158	186	5
100	100	2
161	181	1
18	18	16
156	178	3
241	242	10
99	108	3
239	240	8
63	63	8
210	210	8
240	241	7
34	61	1
157	157	18
116	116	6
71	71	9
19	165	1
20	21	6
209	210	6
156	161	3
91	92	4
236	237	4
14	178	2
0	0	2
79	80	7
172	174	4
12	32	2
157	183	3
215	218	4
208	209	9
240	244	2
8	9	8
206	206	3
193	196	3
8	27	1
61	62	15
29	201	4
167	167	13
191	193	3
5	5	12
31	47	2
21	22	3
72	74	8
150	150	30
22	23	6
160	187	2
55	57	3
213	213	6
39	39	25
49	49	11
176	176	7
41	42	8
87	88	4
95	95	7
192	193	2
242	242	16
198	198	9
180	181	2
41	41	29
102	106	6
211	211	13
111	111	20
59	61	2
245	245	8
62	63	2
232	232	3
85	107	7
32	32	12
98	99	4
230	231	2
210	211	2
158	184	3
159	170	2
55	59	1
202	203	7
197	198	3
89	89	9
47	47	10
68	69	2
54	54	15
83	90	1
173	173	19
38	39	9
186	187	6
74	74	6
82	83	7
12	65	3
87	87	10
114	115	12
45	46	2
165	166	5
26	27	4
166	173	3
212	214	4
207	208	6
36	40	2
67	68	4
190	208	3
81	107	2
17	37	2
146	146	4
24	26	5
25	25	15
60	60	13
98	98	8
88	88	19
7	7	17
176	177	11
40	100	5
76	77	9
176	178	2
208	214	1
226	226	15
69	69	11
237	240	3
237	238	5
161	162	3
212	212	21
161	211	3
167	168	10
220	220	17
175	175	9
222	222	18
70	71	1
42	42	14
245	246	2
85	85	15
72	73	1
33	35	2
157	182	3
72	161	3
157	160	4
219	243	3
243	245	2
48	50	3
56	57	2
200	201	2
234	236	2
95	96	4
215	215	5
193	220	3
74	75	3
45	92	1
62	79	3
31	44	2
106	106	2
104	106	6
153	154	4
120	120	4
27	156	1
201	203	3
99	100	2
67	82	2
150	152	7
176	182	1
184	184	11
12	66	1
46	92	1
35	45	2
7	8	4
205	206	5
71	72	3
169	200	5
157	184	3
97	98	2
151	212	3
6	7	11
206	207	8
157	158	2
229	231	3
144	145	3
37	85	2
196	199	6
33	36	3
53	232	3
174	201	1
94	157	1
68	70	4
157	162	2
175	177	1
221	221	10
58	195	4
212	236	3
220	233	4
238	239	6
57	57	5
115	199	2
188	188	6
6	153	1
116	117	2
7	228	2
162	168	5
31	198	3
102	102	1
178	181	6
93	93	10
175	196	1
4	4	8
25	26	5
169	213	2
182	184	4
187	188	9
240	242	1
98	119	3
177	196	3
72	165	2
64	65	4
68	97	2
8	156	1
231	233	2
15	32	2
190	194	2
17	18	1
57	195	2
64	70	4
225	235	3
77	78	2
50	196	2
1	2	5
118	118	4
48	196	2
70	73	2
11	17	1
29	31	5
86	108	3
109	236	1
231	231	6
149	150	4
244	245	2
209	215	1
205	205	19
108	109	2
30	31	6
75	75	3
76	92	1
68	94	1
108	108	6
80	80	4
29	169	6
171	172	4
239	242	1
166	167	2
149	212	3
44	224	1
158	159	8
3	165	1
242	247	2
102	103	1
34	60	2
164	178	1
14	15	5
176	239	1
33	34	1
38	179	2
65	167	1
48	61	1
59	64	3
53	54	2
69	70	2
85	86	1
207	214	2
146	214	1
151	163	2
15	16	7
86	107	3
5	6	1
228	228	4
12	179	1
177	181	1
208	210	5
92	94	1
65	67	1
179	180	7
4	6	2
221	223	2
2	4	1
246	247	3
84	85	3
161	182	2
28	30	2
195	198	4
162	164	1
218	219	1
159	182	2
11	33	1
16	32	2
70	80	1
182	186	2
221	222	3
14	177	2
10	11	4
175	189	2
20	23	3
73	74	5
190	192	4
189	192	2
76	85	1
206	230	2
218	220	2
238	240	1
18	36	3
47	109	3
197	245	1
68	156	1
61	61	4
33	169	3
167	173	2
113	114	8
14	48	3
95	100	1
157	185	1
227	229	2
232	233	1
67	69	2
225	229	3
97	119	2
56	68	1
165	167	3
69	82	1
79	84	2
32	187	1
24	27	1
54	55	6
29	37	5
165	176	2
188	190	1
14	34	2
55	156	1
157	176	3
151	159	2
107	107	4
79	81	1
151	164	1
178	179	3
66	66	1
29	170	2
179	200	1
167	180	1
44	63	1
161	202	2
243	244	5
75	159	4
56	83	1
9	204	1
87	212	3
159	169	2
35	94	2
104	107	2
120	145	3
65	72	2
31	241	1
173	215	2
101	104	1
195	197	1
33	53	2
58	58	1
247	247	3
16	247	1
221	225	3
84	84	6
67	76	1
72	82	1
4	5	1
42	43	1
56	67	1
121	121	1
168	172	1
157	164	2
10	205	1
174	175	2
36	169	1
0	1	2
98	109	2
55	220	2
247	249	3
201	202	6
196	207	1
159	161	2
239	241	3
161	180	1
60	61	2
174	178	1
78	82	1
7	12	1
107	111	2
81	94	2
44	223	1
165	242	2
201	205	1
54	233	2
38	64	2
162	183	1
190	207	1
219	220	2
115	116	1
32	65	1
222	225	2
18	223	2
44	46	2
87	238	2
28	151	1
180	182	1
152	163	2
183	230	1
63	65	2
226	227	2
197	199	2
182	201	1
26	246	1
158	169	1
18	37	2
33	235	2
169	171	1
22	108	1
15	63	1
168	186	2
248	249	2
167	169	1
58	218	4
81	81	9
82	82	1
233	235	2
156	167	3
175	231	2
19	25	1
182	216	2
39	73	2
104	104	1
147	147	2
59	246	1
85	90	1
19	35	2
100	101	1
44	93	3
78	87	2
176	181	1
236	243	1
146	195	1
59	60	2
18	34	1
41	222	1
78	79	1
173	178	1
198	208	1
187	190	1
12	14	1
13	69	1
151	162	2
109	149	2
78	180	2
41	44	2
96	98	1
70	79	1
75	76	3
77	92	1
229	234	1
9	11	1
79	85	1
160	245	1
40	41	3
33	172	1
81	91	1
56	62	1
174	177	1
23	24	4
162	163	2
37	39	1
74	158	2
27	29	1
91	93	1
70	159	1
156	168	1
28	29	1
236	240	3
195	196	1
19	118	1
18	24	1
95	99	1
58	59	1
219	219	2
226	235	2
203	233	1
160	181	1
103	105	1
80	84	2
33	231	1
110	111	1
20	22	1
90	99	1
73	165	1
91	111	1
47	50	1
211	215	1
77	91	1
152	171	1
177	178	1
11	32	2
111	118	1
216	218	2
206	247	1
119	120	1
188	191	1
86	92	2
94	226	1
163	215	1
179	182	1
45	204	1
53	115	1
74	76	1
82	87	1
198	200	1
147	155	1
98	108	1
178	230	1
46	84	2
162	179	1
235	239	1
98	100	2
172	173	1
71	158	1
94	95	1
20	24	1
151	155	1
225	227	1
193	195	2
17	220	1
51	193	1
10	47	1
160	186	1
