84	128	4
149	149	7
146	146	6
10	10	13
68	77	6
26	27	1
22	22	14
54	54	10
123	123	13
74	74	16
142	168	2
128	128	20
105	105	36
21	23	3
108	108	22
36	36	12
76	76	9
84	99	2
3	3	19
97	97	18
0	0	18
20	20	21
135	135	11
122	122	5
80	127	2
137	138	8
43	43	24
12	12	27
52	56	3
91	91	22
108	109	4
106	106	15
111	111	14
22	24	2
79	79	5
51	51	20
22	23	7
147	148	2
88	88	22
114	116	7
45	45	21
80	80	11
92	94	2
163	165	5
42	53	1
20	23	7
23	23	12
77	77	3
15	15	13
50	85	1
5	5	15
50	52	3
110	110	17
48	53	6
119	165	3
41	41	18
155	162	2
169	169	6
83	83	20
35	35	30
21	21	9
142	142	23
160	160	7
4	5	5
5	10	7
57	57	16
92	93	7
34	34	21
69	69	14
36	43	1
27	27	15
158	158	15
52	52	19
78	78	19
115	115	22
82	86	3
165	165	12
49	49	12
20	22	3
77	79	9
57	58	2
90	90	38
37	38	2
33	102	2
44	44	15
114	125	3
164	164	15
98	98	22
33	34	7
17	36	1
116	116	21
140	140	12
113	113	14
86	86	27
45	46	9
156	156	9
9	69	1
71	74	2
18	37	1
54	55	1
73	73	19
89	89	16
47	49	2
120	121	5
129	129	10
52	54	3
34	35	5
124	124	12
143	143	18
162	163	4
38	38	7
157	170	1
75	75	15
53	54	5
107	107	15
117	117	15
57	77	5
39	39	18
85	85	14
65	66	7
2	2	15
17	17	18
107	109	8
23	24	2
81	82	11
38	44	1
14	15	7
71	72	5
102	102	18
131	132	3
99	99	26
118	159	5
8	63	2
11	12	2
115	116	5
71	75	4
12	13	3
25	25	23
131	131	3
55	55	15
82	113	9
9	9	11
4	17	5
136	136	22
166	166	15
132	133	7
58	72	2
40	40	24
86	87	4
24	27	5
21	22	12
56	85	1
6	6	15
14	14	15
116	152	2
169	170	6
120	120	11
100	100	20
19	19	11
77	86	3
104	113	2
121	121	6
13	15	5
58	58	7
149	150	4
123	160	4
141	141	4
1	1	16
45	56	5
48	48	7
163	163	7
67	68	8
26	26	19
154	170	2
119	119	10
96	96	14
135	136	9
109	109	7
144	145	6
155	159	1
68	69	7
79	80	14
62	75	1
72	72	18
33	33	8
124	160	11
80	83	3
68	68	7
150	151	2
144	167	6
40	50	8
3	12	2
92	98	8
93	93	7
9	10	7
153	153	11
7	7	14
37	37	14
94	94	20
149	169	1
47	47	13
42	44	3
129	130	2
137	137	20
152	152	10
139	140	11
52	53	7
15	18	1
103	144	1
83	130	2
68	74	4
127	127	8
4	4	21
103	104	6
53	53	12
126	166	5
125	166	2
123	125	1
81	81	17
64	70	2
24	24	10
78	79	5
138	151	4
130	131	9
113	114	3
112	116	2
93	94	7
1	2	3
65	65	16
139	139	7
124	146	5
127	129	2
83	128	3
63	64	6
126	126	8
151	152	2
46	46	15
56	56	12
35	37	1
51	76	2
72	74	4
119	160	4
103	103	30
154	161	2
8	9	4
4	11	2
134	136	3
42	42	13
148	148	14
164	165	2
99	100	4
144	144	15
10	16	1
75	76	5
62	62	7
93	95	6
35	36	7
48	51	1
147	156	2
125	160	3
62	63	11
46	47	13
67	69	6
74	97	1
6	15	1
84	87	3
44	45	16
167	167	7
143	144	6
90	95	2
84	164	4
126	127	3
64	64	8
92	92	14
5	15	4
86	89	4
53	55	5
6	11	1
87	100	1
19	25	3
79	116	1
138	138	9
168	168	9
26	36	1
112	114	3
131	136	3
74	75	6
11	11	13
70	70	6
105	106	6
95	95	4
54	73	3
49	50	1
142	143	1
132	132	6
0	1	6
7	20	3
168	169	1
163	164	6
110	111	6
8	18	4
17	19	3
69	71	2
97	98	4
155	155	4
112	112	6
158	160	5
77	78	3
50	50	13
150	150	9
6	12	4
156	157	16
18	19	7
13	16	1
114	114	5
106	111	4
13	56	2
102	127	5
128	134	1
144	168	2
133	133	6
89	100	3
70	95	5
28	28	8
48	54	2
12	16	4
73	77	2
66	66	8
151	151	9
78	89	4
167	170	1
118	118	7
156	162	5
20	21	5
48	49	9
157	157	10
125	125	5
78	80	1
13	82	3
94	97	2
20	72	1
105	151	6
114	120	2
38	53	3
39	107	4
67	67	7
148	157	1
10	11	3
140	141	7
27	28	7
40	42	2
96	97	7
137	139	7
34	47	1
39	72	2
141	142	2
139	141	2
16	19	2
101	101	1
15	16	3
103	157	3
18	20	2
98	99	4
117	164	4
6	7	3
109	110	3
154	154	14
67	98	4
117	166	2
41	45	5
51	52	1
118	160	3
84	85	7
57	62	4
5	113	6
100	106	3
126	165	2
69	73	2
41	42	3
8	8	8
87	87	6
44	47	1
90	92	1
81	85	3
88	89	5
37	48	3
101	102	7
76	78	3
82	82	4
134	135	3
38	46	4
37	41	1
118	119	5
53	58	2
13	13	11
76	77	4
77	88	3
170	170	4
92	95	2
156	160	3
153	154	5
66	75	2
161	162	1
10	47	3
119	120	6
62	77	2
104	104	7
102	103	3
5	11	1
147	147	6
58	62	2
153	161	4
112	113	10
76	96	2
84	84	3
39	40	7
38	39	3
161	161	2
66	96	1
35	38	1
129	132	1
9	68	2
13	118	1
112	136	2
50	62	10
17	35	2
148	168	6
122	164	2
64	65	1
117	118	3
91	95	2
162	162	5
55	56	1
100	103	1
106	107	1
67	70	1
145	147	1
57	86	3
50	51	4
40	71	3
67	74	1
56	57	2
159	159	10
42	43	2
78	85	3
61	61	1
154	155	1
71	71	13
145	145	3
85	164	1
116	125	5
99	131	7
8	15	4
125	165	2
16	16	13
118	165	2
35	43	1
101	106	1
85	86	2
70	89	1
115	165	3
127	133	1
77	87	2
57	71	1
83	116	1
82	116	2
130	130	2
45	55	4
121	157	4
13	119	1
39	41	4
112	115	4
94	95	4
8	74	2
19	163	3
118	163	2
19	20	1
41	52	2
108	131	1
66	89	1
37	45	3
24	25	6
111	136	1
79	83	1
149	151	3
63	63	3
64	75	3
47	133	2
144	156	1
101	103	5
64	71	1
83	121	5
15	47	2
5	24	1
108	132	2
102	156	2
8	14	3
8	21	2
123	124	3
128	129	1
37	47	2
58	96	1
138	141	2
18	24	4
111	137	2
13	79	3
18	18	5
90	91	3
111	112	1
101	127	3
114	115	2
57	85	3
19	45	1
17	37	2
14	79	2
105	108	1
102	111	1
73	75	3
88	90	1
148	169	2
26	150	2
51	57	1
47	121	2
80	85	1
61	62	3
136	137	2
84	126	3
43	44	2
124	125	1
165	166	1
5	17	2
83	89	3
47	74	2
115	117	3
83	132	1
121	122	3
91	92	2
122	123	1
6	122	1
70	91	2
125	130	1
21	28	1
149	168	1
87	89	1
80	81	3
83	129	3
144	148	2
12	24	1
38	51	1
90	96	2
37	42	2
159	160	1
107	108	3
151	153	1
40	41	1
100	101	1
146	159	2
68	96	1
20	24	1
7	21	1
63	75	3
54	74	1
68	73	2
55	72	3
88	91	3
89	90	2
48	56	2
101	166	1
83	84	2
116	118	2
163	168	3
64	74	1
95	96	5
120	165	1
20	64	1
149	152	2
154	162	2
128	136	3
14	74	1
45	102	2
148	161	1
33	38	1
76	98	1
47	48	4
120	163	1
40	52	1
80	84	1
56	92	4
125	132	1
18	25	1
6	113	2
88	97	3
46	50	2
3	18	2
16	37	1
125	126	1
73	74	3
160	161	2
156	159	1
112	128	2
75	97	1
121	165	3
2	25	2
50	58	1
72	76	1
153	162	1
12	23	1
79	84	1
16	17	2
134	134	1
20	74	1
116	124	2
104	130	1
7	27	1
145	157	1
45	51	1
53	110	1
54	56	3
101	158	1
76	80	1
42	136	1
33	36	2
116	130	2
119	155	1
43	140	2
138	140	1
17	18	2
52	85	1
79	118	1
4	35	1
90	103	1
57	110	1
98	100	1
69	70	1
51	54	1
91	96	1
7	10	1
20	56	1
4	14	1
105	113	1
6	10	1
74	76	1
160	162	1
84	115	1
17	163	1
117	165	1
57	87	1
