53	71	3
81	81	12
55	107	3
1	1	15
28	32	2
97	98	5
45	45	12
104	105	8
132	133	3
10	81	9
10	11	4
134	134	8
123	128	6
54	54	9
169	169	9
27	27	10
82	82	9
28	28	4
18	19	1
128	128	12
80	82	4
126	126	5
9	9	11
109	109	12
118	118	5
158	158	12
122	125	10
6	7	10
12	12	15
85	85	7
68	76	1
22	22	14
6	52	1
68	68	8
155	155	3
20	24	4
6	6	13
102	103	8
155	156	4
47	49	12
62	62	8
120	120	8
125	126	3
133	133	2
99	99	18
92	92	5
151	160	1
13	14	3
135	135	9
9	10	13
65	66	3
79	80	2
161	161	3
108	108	5
73	73	14
73	74	4
103	103	2
112	114	8
0	0	12
34	34	5
49	49	6
37	37	4
36	36	15
15	72	1
118	128	2
132	132	8
52	52	12
116	116	6
39	40	8
18	18	9
33	33	4
70	82	1
147	149	2
43	43	12
76	76	14
156	157	13
76	80	3
25	25	22
143	143	7
146	146	8
75	75	19
112	112	9
41	44	6
91	91	2
69	70	4
100	101	6
130	130	16
73	79	2
36	160	1
11	11	24
12	105	3
124	124	17
156	156	7
20	20	8
125	125	8
69	69	5
41	41	13
115	116	6
24	24	6
77	77	7
84	84	8
25	80	3
150	152	2
129	164	5
34	43	1
14	50	4
157	168	5
5	6	9
96	96	3
95	119	2
157	157	6
38	38	7
87	87	23
153	154	6
111	145	4
1	142	2
64	92	2
54	55	5
86	87	6
46	47	3
89	89	9
98	99	10
64	64	4
82	83	4
9	35	5
90	99	3
24	25	7
163	163	5
1	6	6
94	94	11
71	71	9
23	24	8
74	74	9
167	169	4
90	91	5
159	170	1
166	166	7
84	85	4
137	161	5
13	81	1
18	22	7
107	110	3
2	4	1
98	100	4
130	131	7
15	50	2
118	156	3
73	75	2
5	5	11
112	113	4
90	90	10
13	15	2
1	2	10
92	98	7
1	137	5
86	86	8
151	165	1
75	76	6
74	75	12
24	55	3
53	56	2
49	58	1
39	39	7
54	71	3
170	170	9
115	130	5
84	116	3
2	2	10
74	76	6
136	136	6
91	92	6
41	42	3
142	143	2
105	105	3
55	56	2
10	12	3
19	48	4
123	129	2
88	88	6
139	139	7
77	78	8
93	94	2
93	107	1
117	118	4
141	151	2
53	53	12
112	117	1
16	20	3
47	47	14
144	149	3
129	130	1
53	55	8
117	117	4
41	45	4
76	77	1
44	44	7
7	7	3
26	26	7
84	88	1
4	4	15
87	91	4
76	78	3
159	160	5
115	115	6
102	111	2
149	149	7
121	122	5
81	83	5
16	18	4
71	79	4
120	121	8
62	63	4
124	125	6
56	56	5
106	106	13
99	156	2
52	53	3
165	168	1
58	58	1
122	127	2
70	76	3
40	73	4
37	44	3
107	107	4
83	84	1
94	95	2
150	151	3
72	81	1
15	49	2
56	104	2
165	167	2
42	42	8
16	17	1
123	124	5
113	113	10
55	55	20
158	159	6
86	89	1
17	18	6
164	164	2
147	147	6
13	13	8
26	27	2
111	111	8
19	23	4
95	96	2
43	44	2
103	111	6
72	72	7
48	48	2
128	130	1
134	135	2
139	159	1
139	150	5
89	102	5
0	1	3
51	51	9
167	167	6
108	109	1
56	57	4
131	133	2
127	127	6
17	17	10
107	108	2
105	113	2
87	89	3
141	141	1
4	5	9
88	102	1
81	82	4
98	153	1
40	40	6
109	110	4
16	16	11
52	56	4
159	159	3
144	144	4
67	67	1
152	153	4
17	46	2
134	165	3
65	65	3
1	35	1
129	129	4
131	142	1
103	105	1
4	143	5
137	137	4
10	10	1
42	45	2
1	9	1
50	50	6
95	95	1
104	104	2
76	135	2
79	110	1
7	8	1
22	23	4
20	23	1
161	167	2
77	79	3
46	46	10
160	160	5
148	148	2
151	153	1
134	136	2
14	19	3
3	4	1
63	64	8
71	90	1
96	152	4
8	8	7
1	3	3
70	70	8
34	37	1
105	106	1
165	165	8
107	137	3
66	87	4
139	142	2
102	112	1
35	35	4
141	143	2
45	74	1
48	49	4
82	139	1
64	108	1
19	19	7
35	36	4
110	111	4
35	136	2
71	80	1
67	68	2
168	168	5
65	67	3
54	56	2
149	154	4
14	14	5
45	46	1
114	114	5
101	101	3
72	73	1
0	9	1
91	108	2
64	91	1
126	132	1
68	94	1
44	47	1
37	38	5
154	154	1
102	102	1
114	115	2
21	23	5
155	162	1
40	41	6
144	158	3
79	98	4
19	20	6
80	80	3
2	107	1
122	122	2
54	70	2
55	83	1
3	3	2
96	100	1
15	16	2
165	166	5
140	142	2
25	27	3
117	119	3
97	102	1
70	71	1
94	105	2
73	76	4
15	15	2
93	93	3
150	150	1
21	22	1
133	139	1
152	152	2
111	112	5
20	21	1
138	159	1
21	21	3
42	43	2
89	115	2
63	63	3
138	140	1
96	98	1
80	84	1
113	114	5
107	150	2
126	134	1
162	164	2
34	35	2
77	80	1
130	165	1
146	148	2
143	145	1
54	57	2
142	142	1
84	94	1
49	52	1
14	15	2
147	148	2
4	145	3
34	38	1
53	96	2
41	53	3
11	12	5
127	129	2
91	135	2
20	79	1
127	130	1
83	83	2
87	88	3
35	107	2
101	104	1
135	136	1
71	72	1
41	43	3
143	144	1
33	37	1
58	62	2
106	108	1
168	169	2
38	108	2
165	169	1
79	79	1
94	96	2
153	153	1
4	11	1
109	146	1
140	140	1
164	167	1
43	49	1
123	161	2
34	39	2
82	158	3
145	145	1
138	143	1
121	121	2
99	100	2
65	68	1
57	57	2
154	157	2
119	119	3
26	49	1
25	64	1
103	104	2
44	45	2
70	75	1
138	139	1
45	53	1
33	36	2
10	80	1
9	72	1
131	131	2
102	104	1
72	74	1
92	93	2
120	138	1
62	69	1
18	44	1
126	127	2
136	137	1
65	69	1
147	151	1
35	51	1
128	135	1
133	134	1
18	20	1
22	77	1
128	165	2
109	113	1
13	19	1
8	11	1
71	81	1
14	23	1
95	97	1
33	34	1
138	158	1
26	34	1
4	16	1
159	161	1
73	133	1
