90	90	13
136	136	7
86	86	3
15	17	2
72	72	5
9	9	4
98	98	3
135	135	5
125	125	12
115	115	13
71	71	7
78	78	11
79	79	8
77	77	4
6	6	6
94	94	10
95	95	12
11	21	1
29	30	1
14	14	5
105	115	1
100	100	11
118	118	6
75	75	10
20	20	6
38	96	2
30	30	4
123	123	13
130	130	13
10	19	1
37	37	9
16	16	6
24	26	2
136	137	2
111	111	9
96	135	3
134	134	16
137	138	1
33	33	7
117	119	1
114	115	7
113	113	7
132	132	11
98	99	3
7	7	9
140	140	3
114	114	5
37	38	1
93	94	3
89	89	9
112	112	5
122	122	5
78	79	2
84	85	6
25	28	3
139	139	7
28	28	6
35	36	1
24	24	11
113	120	4
76	77	2
88	88	8
132	133	1
106	106	4
76	76	8
5	17	1
118	119	3
22	25	5
85	86	5
11	24	1
126	126	9
129	129	7
128	129	3
3	3	7
93	93	8
82	85	8
38	38	6
106	108	5
21	21	2
91	91	7
78	81	2
26	26	7
82	82	7
80	80	9
34	36	4
128	128	12
108	108	2
30	31	3
129	130	3
44	44	2
99	99	5
11	11	3
119	119	11
87	97	1
19	19	4
83	83	2
138	138	10
79	100	1
81	81	4
74	74	3
91	101	1
137	137	4
73	74	4
10	12	4
135	137	1
124	124	12
12	15	6
18	18	7
75	100	2
125	126	4
84	84	4
120	120	3
1	1	3
126	127	5
77	79	3
5	5	5
31	31	8
79	125	1
3	7	1
13	13	6
1	26	2
29	29	2
8	9	5
10	13	1
2	2	3
131	132	3
11	12	1
27	27	4
121	122	9
74	126	6
105	106	4
4	4	10
81	82	4
118	123	2
12	14	1
8	8	4
131	131	5
120	122	4
116	116	5
13	14	4
4	5	4
35	35	6
107	109	1
104	104	7
20	22	1
130	131	1
36	36	6
95	134	1
102	102	5
121	121	5
32	32	2
80	81	2
120	121	2
17	17	6
117	117	6
75	76	5
71	72	3
92	93	2
0	0	2
0	2	6
25	25	4
135	138	2
21	28	3
22	113	1
74	94	2
89	90	2
116	117	3
104	108	2
5	6	3
18	19	1
73	73	8
133	133	4
23	24	3
127	127	4
109	109	5
84	86	5
7	14	1
101	101	2
23	25	2
17	20	1
3	4	3
107	107	2
128	136	3
83	85	4
87	88	3
74	101	2
123	124	3
22	22	2
87	87	1
129	134	1
82	83	2
97	100	2
19	22	2
27	28	1
101	103	2
90	91	1
97	97	1
111	112	2
1	2	1
93	107	2
17	126	1
34	35	1
15	16	4
81	85	3
12	12	5
28	29	3
24	30	1
25	26	2
138	139	1
110	110	1
12	13	1
25	27	2
25	29	2
22	23	1
6	19	1
103	103	2
112	113	1
100	101	1
19	20	1
6	32	1
125	127	1
26	28	1
109	110	1
112	114	1
21	27	2
69	69	1
23	23	1
10	23	1
134	135	1
111	117	1
21	86	1
107	108	2
83	84	1
93	102	1
85	85	1
102	121	1
97	98	2
0	1	1
78	80	1
18	30	1
22	27	1
106	107	2
34	34	2
10	11	1
105	105	2
4	18	1
15	20	1
7	8	1
