97	97	5
84	84	6
28	28	8
132	132	8
15	15	5
48	48	6
85	85	7
57	106	2
12	99	1
131	131	2
76	77	6
101	101	3
110	121	4
121	121	11
50	50	7
55	60	1
30	30	8
62	63	6
7	7	5
67	68	3
18	26	7
104	104	7
65	66	3
80	80	10
66	78	1
113	113	6
44	45	8
84	85	6
112	112	6
79	79	6
62	62	3
24	24	13
3	3	4
95	109	1
8	8	11
102	102	4
68	69	3
133	134	3
33	35	2
32	64	2
134	134	3
86	86	7
37	37	2
73	73	3
45	45	4
78	79	5
27	28	3
119	119	5
110	118	4
53	53	5
76	76	9
45	119	2
21	25	1
129	129	15
114	114	4
50	87	1
64	64	6
108	108	4
12	22	1
63	65	3
61	61	15
54	124	3
107	110	2
113	118	1
71	71	7
126	126	6
105	105	9
35	35	8
82	82	6
107	131	1
8	57	2
117	117	10
120	121	2
129	131	3
29	29	10
127	127	9
87	87	10
91	91	3
109	109	8
57	57	5
83	83	7
91	92	4
42	98	1
3	4	11
98	98	4
68	68	5
74	74	3
96	96	1
81	81	7
74	76	1
69	69	11
133	133	4
12	13	3
107	108	2
33	33	2
125	127	5
17	17	3
130	130	8
90	90	6
121	122	3
108	111	2
75	75	3
118	118	13
103	104	3
131	133	3
22	23	1
59	59	2
102	105	2
44	44	7
106	107	2
80	107	2
125	126	1
131	134	1
2	12	2
60	82	1
135	135	1
117	118	2
70	70	5
44	110	6
7	12	5
104	111	2
31	38	4
74	105	3
9	9	5
108	110	1
110	110	5
43	43	4
50	52	2
82	98	2
57	105	3
53	54	1
25	25	4
106	111	3
30	63	3
27	30	3
120	120	4
93	93	11
72	72	3
33	34	1
14	15	2
57	60	2
37	45	2
26	27	1
43	122	1
106	106	1
11	11	1
31	32	3
10	47	1
10	11	5
99	99	5
118	119	1
87	119	3
6	6	3
132	134	2
67	67	1
2	2	5
105	112	4
20	25	2
66	79	2
123	124	2
90	92	2
13	102	2
31	66	3
28	30	4
94	94	4
107	107	6
79	110	1
1	1	9
70	102	1
49	54	2
87	91	4
8	9	4
64	100	1
38	38	1
94	95	1
123	123	2
128	128	11
111	112	2
20	21	3
77	77	2
76	114	1
92	92	2
78	78	5
7	14	3
103	121	3
128	133	1
0	0	2
26	35	2
63	63	6
110	129	1
101	102	1
52	53	2
120	131	1
103	103	7
47	47	2
56	57	4
37	100	1
57	65	2
53	88	3
55	82	1
100	100	4
9	10	1
58	59	1
128	129	1
22	22	2
60	79	1
24	25	2
115	115	6
95	104	1
89	89	2
66	67	5
5	5	3
121	132	1
19	19	3
66	68	5
55	55	3
34	62	1
31	31	6
88	88	2
12	14	1
23	24	1
1	2	1
124	124	4
93	98	1
124	129	4
121	133	2
50	92	4
3	103	2
123	127	1
77	112	1
111	111	1
45	99	3
61	65	1
0	1	2
98	115	2
99	112	2
63	64	1
60	81	4
130	131	1
49	50	3
107	132	2
15	20	1
20	20	4
32	32	2
64	66	1
16	18	1
0	31	1
52	52	1
109	129	2
102	112	1
27	27	5
66	66	4
110	111	1
109	111	1
81	83	1
43	53	1
11	47	1
78	80	1
54	58	3
33	66	1
63	69	2
72	129	4
95	95	6
92	93	2
86	107	1
88	91	1
119	120	1
79	80	1
30	35	1
43	121	1
5	103	1
54	54	3
59	64	1
57	107	1
64	69	1
50	82	1
108	109	1
26	26	1
109	120	1
20	24	1
99	105	1
23	23	2
21	23	2
53	55	1
92	131	1
56	56	1
129	130	1
57	58	3
98	99	1
82	83	1
82	88	1
8	130	1
58	109	1
94	112	2
89	90	1
47	105	1
43	44	1
116	116	1
37	44	1
17	18	1
78	96	1
72	74	1
86	87	2
13	13	1
62	65	1
64	65	1
7	15	1
60	61	1
43	120	1
