102	104	5
59	60	12
59	61	11
105	106	22
28	28	36
108	109	7
93	109	6
68	68	28
103	103	34
25	29	5
65	65	24
82	83	14
63	69	4
94	108	4
96	96	35
103	104	24
104	107	13
22	22	11
74	74	40
86	87	27
87	98	4
25	26	10
105	105	38
57	57	33
91	93	6
84	85	4
113	113	36
61	62	21
45	45	26
54	54	14
42	42	16
95	96	13
48	48	23
47	48	14
23	28	1
104	104	25
107	107	31
90	91	30
109	110	17
105	107	6
44	44	34
101	101	31
108	108	34
34	34	21
71	71	26
56	56	21
97	97	35
92	93	17
46	46	24
104	105	13
83	85	5
45	47	5
64	64	24
61	81	3
59	59	64
103	106	4
69	69	19
34	36	4
49	49	22
70	70	28
81	83	7
62	62	28
77	77	18
95	95	26
59	105	4
63	64	17
88	88	55
63	70	6
97	99	6
99	99	31
112	112	50
54	56	2
106	106	35
90	93	4
94	103	3
73	76	1
88	109	1
101	104	4
26	26	19
97	98	17
62	66	5
56	57	12
33	33	23
102	102	41
23	35	4
36	36	31
92	92	47
73	73	22
91	91	23
110	112	1
83	83	23
83	84	7
89	89	25
65	66	26
94	95	17
98	101	3
94	94	40
39	39	7
57	58	15
100	110	6
75	79	2
74	75	17
88	90	6
96	98	3
32	37	5
30	30	14
47	50	4
82	82	18
60	62	6
72	72	23
47	47	29
102	103	23
58	59	21
20	21	4
99	100	7
85	86	14
27	82	5
60	84	4
86	86	27
27	27	16
81	82	11
41	42	1
103	107	18
81	81	21
103	110	2
26	27	10
76	77	11
55	56	6
52	52	23
56	68	1
67	67	19
90	90	25
40	41	16
81	85	5
61	103	4
76	76	34
38	38	15
60	81	1
67	68	14
22	34	1
20	20	19
82	84	13
33	34	7
85	85	39
78	79	25
41	41	19
44	45	6
61	61	19
48	50	7
87	87	39
78	80	3
21	22	1
24	29	4
27	31	7
50	99	1
78	78	29
68	69	31
95	102	3
63	101	1
89	91	11
55	55	20
79	79	21
66	66	31
54	55	5
66	68	3
63	63	29
93	93	20
75	75	31
61	63	4
77	78	17
110	110	23
108	110	2
56	74	2
40	40	11
109	109	20
70	71	12
82	110	3
35	36	4
26	44	4
107	108	17
110	111	9
95	98	5
31	35	5
48	57	2
41	44	2
77	79	5
37	37	18
102	107	1
29	29	11
42	43	6
69	71	11
96	97	23
22	23	10
64	65	7
55	58	1
87	92	4
50	51	11
30	31	8
32	34	5
60	60	36
101	102	9
69	70	5
43	43	20
66	67	21
28	30	3
72	79	7
55	81	6
56	80	2
71	73	4
56	95	7
32	32	10
114	114	20
98	98	20
73	103	2
43	44	3
106	110	5
21	21	21
79	109	4
37	38	3
29	31	4
27	28	4
86	98	3
97	100	5
57	81	2
36	37	9
73	74	29
54	62	2
51	52	4
100	101	14
48	63	1
87	93	6
95	103	4
79	80	7
84	84	27
87	89	3
34	35	16
96	102	2
90	102	1
115	115	2
36	38	2
53	53	25
53	74	2
86	91	4
93	101	3
81	100	3
93	102	4
61	76	3
62	65	4
58	58	21
79	107	1
91	94	11
80	80	19
38	39	12
98	99	10
70	77	2
29	30	10
23	26	4
53	56	3
67	69	8
23	24	4
55	71	4
93	94	9
20	26	1
47	84	2
71	72	9
28	44	1
22	25	2
111	111	19
106	107	13
43	45	1
113	114	10
89	90	18
76	78	9
61	82	1
64	67	4
91	102	2
100	104	3
99	101	5
31	31	8
56	78	4
82	86	2
34	40	2
99	108	2
40	43	3
45	46	9
54	75	1
61	64	5
92	94	8
51	51	7
68	76	2
32	35	5
53	54	3
81	107	1
100	109	3
53	75	3
44	51	1
80	81	6
67	78	5
28	29	8
25	25	12
35	38	5
65	93	1
95	107	6
57	59	3
58	63	7
89	98	3
52	53	2
22	29	1
83	93	4
39	40	13
88	89	10
49	51	3
22	24	4
25	28	2
91	92	6
56	96	3
72	74	5
71	93	2
111	114	2
91	95	11
32	33	3
66	79	3
46	47	6
29	32	4
87	91	1
72	78	3
24	24	6
53	58	1
112	114	3
74	89	1
114	115	6
86	93	5
50	50	6
83	103	3
47	49	9
88	91	3
87	88	1
24	25	6
75	76	7
62	63	12
100	100	20
56	58	6
111	113	2
31	33	1
42	45	2
64	73	3
67	97	1
75	77	3
74	78	2
74	99	1
81	91	1
53	78	4
63	82	2
90	99	1
92	98	2
64	69	3
19	19	8
25	27	2
89	96	1
56	62	3
49	52	2
83	110	3
93	95	5
112	113	8
70	73	7
60	83	1
38	41	1
37	39	1
62	103	2
103	108	2
106	109	1
64	74	2
63	65	7
85	98	1
58	60	4
72	77	1
59	67	1
98	108	1
85	102	1
63	67	2
71	74	1
54	74	2
87	94	3
55	95	4
19	23	1
86	92	1
55	57	1
64	80	1
35	35	8
23	25	2
94	105	3
67	70	3
94	109	1
97	107	3
78	81	4
68	70	3
92	111	3
27	32	2
82	85	3
80	99	3
48	49	8
36	40	1
96	100	2
111	112	5
56	64	2
75	78	3
61	67	2
57	61	5
65	67	4
73	102	1
84	98	2
30	32	2
48	109	3
90	101	1
23	23	12
47	110	2
64	72	2
57	64	1
24	27	2
38	42	1
77	80	1
109	114	2
42	52	1
61	65	7
42	44	4
76	108	1
63	81	2
85	107	1
83	88	1
61	104	1
62	80	3
55	74	1
87	90	2
60	67	4
86	88	7
21	24	3
72	75	3
89	102	2
62	71	1
31	32	6
67	77	1
39	42	1
76	79	1
89	94	2
90	100	3
30	85	2
69	74	3
60	63	4
83	86	2
30	33	1
76	103	3
62	104	3
87	101	1
58	105	2
58	107	1
101	103	3
33	36	1
80	107	1
75	98	4
56	66	1
58	62	5
76	97	1
24	26	1
56	82	1
86	106	1
104	108	3
81	108	2
64	81	1
94	107	3
80	82	3
78	106	2
74	76	6
34	112	1
88	97	1
105	109	3
38	40	1
65	82	2
55	72	1
105	108	1
72	98	3
64	75	2
68	71	4
72	103	1
20	22	2
97	102	1
64	66	3
72	76	1
54	69	1
103	109	1
21	23	1
75	92	1
72	73	3
90	98	3
55	75	1
110	113	1
66	96	1
81	98	2
73	75	2
56	60	1
82	109	2
55	68	2
57	60	1
92	109	3
95	97	3
79	95	1
49	69	1
106	108	1
56	90	2
24	36	2
41	43	3
51	99	1
63	72	1
85	87	2
64	95	1
79	97	1
20	25	1
56	69	1
73	99	1
103	105	1
21	30	2
80	91	1
74	79	1
73	88	1
49	50	1
100	102	3
68	77	1
70	97	1
56	70	2
58	61	2
50	64	1
88	95	1
24	40	1
75	108	1
97	109	2
52	73	1
21	28	1
81	106	1
60	61	1
60	64	1
96	99	1
85	89	1
63	68	1
98	103	1
82	92	2
84	99	1
53	55	2
33	35	1
81	84	1
65	68	1
53	60	1
