23	27	4
60	60	25
69	69	18
44	44	14
49	51	3
89	89	10
72	72	8
92	92	7
83	86	3
46	97	5
41	43	4
26	27	15
72	73	1
56	56	7
46	46	12
65	65	6
32	32	7
64	64	11
38	38	13
52	52	18
39	39	11
51	53	3
87	87	8
50	50	14
48	48	15
58	59	7
33	33	5
99	99	7
43	102	6
49	49	8
80	81	11
24	24	3
49	59	2
94	96	4
71	72	6
36	94	2
83	83	6
80	80	15
35	96	1
90	90	13
86	86	8
34	34	13
53	54	3
79	79	15
66	66	18
63	75	1
92	93	9
69	70	5
37	101	4
77	78	7
96	96	11
90	91	1
74	74	14
64	75	2
68	68	16
102	102	4
95	97	1
95	95	14
71	71	5
26	96	1
66	73	5
38	39	4
81	81	7
55	82	2
67	69	7
88	88	15
43	66	3
63	64	4
78	97	3
36	46	1
73	73	10
75	75	11
46	73	2
54	55	5
91	92	6
83	84	6
63	65	2
25	101	4
53	55	4
62	62	1
100	100	9
50	87	4
68	72	1
41	42	6
77	77	11
65	66	2
91	91	6
96	98	3
101	101	15
70	70	9
29	30	3
57	57	14
63	67	2
100	101	7
70	71	3
78	78	9
49	50	4
63	63	26
93	93	5
33	72	2
43	44	5
76	76	5
31	31	7
33	34	3
88	89	3
48	80	3
28	60	5
47	48	2
41	41	6
85	85	13
35	101	2
42	90	5
47	73	3
51	51	6
92	94	3
40	41	5
22	23	3
89	90	3
26	26	8
99	101	1
57	61	1
80	88	1
40	40	9
85	86	2
59	59	15
36	38	1
50	51	2
47	99	2
94	94	4
37	37	6
54	86	2
27	28	5
84	84	3
93	94	5
56	91	1
55	102	2
81	82	4
58	58	7
87	88	4
70	73	3
41	65	1
86	87	4
76	77	3
77	86	2
56	102	2
59	63	3
98	98	1
96	97	4
52	86	4
42	42	4
45	71	3
27	27	3
61	61	5
97	97	5
62	78	2
35	35	3
91	93	3
42	69	1
23	91	2
35	94	1
24	26	3
25	25	2
35	38	3
61	88	1
93	102	1
79	80	2
99	100	2
46	48	4
61	93	1
98	101	1
26	29	1
45	45	3
86	89	1
61	62	2
54	54	3
25	26	5
28	97	3
95	98	4
50	60	1
46	81	1
47	80	2
58	78	2
62	68	1
32	102	2
31	54	2
40	56	2
55	98	4
41	90	1
36	36	2
75	76	3
37	82	1
58	98	2
67	67	2
68	83	2
43	43	5
95	96	1
33	78	3
79	93	1
37	81	5
37	38	1
73	74	2
53	53	3
81	88	2
35	97	2
89	91	2
27	96	1
93	98	1
28	36	1
97	98	1
34	98	2
78	89	2
58	100	1
60	79	1
62	79	2
93	95	1
23	97	1
39	43	1
67	89	1
83	101	1
93	100	1
84	98	1
29	48	1
56	85	1
43	74	2
74	75	3
35	56	1
37	83	1
28	94	1
61	91	1
55	55	1
