48	48	12
58	58	14
82	82	10
74	74	18
56	57	21
64	79	4
55	55	9
8	19	2
69	69	18
6	19	2
75	75	19
71	73	3
86	86	3
25	25	16
73	73	19
31	66	3
19	20	6
27	27	17
0	0	12
64	65	3
50	50	28
34	34	9
31	68	4
20	20	11
83	83	14
47	47	15
52	56	7
81	84	6
14	14	12
53	54	4
6	7	9
20	22	2
3	3	17
19	19	16
67	67	19
63	63	16
5	24	13
72	74	10
11	11	8
60	61	3
2	2	14
49	50	3
15	15	19
89	89	30
26	26	19
69	86	3
16	17	5
24	27	5
23	27	6
28	28	10
71	72	5
57	58	18
72	72	6
81	82	1
80	80	34
10	13	1
24	24	13
85	86	15
30	30	15
53	66	3
56	56	15
4	4	14
55	61	6
84	84	8
22	22	9
4	16	5
10	10	15
62	62	17
76	76	14
12	12	13
31	31	11
6	26	2
34	52	8
53	64	2
9	9	11
73	74	3
57	57	16
67	68	16
65	65	11
59	59	24
17	17	9
61	62	15
55	56	6
17	22	4
16	25	3
23	23	19
71	85	5
68	68	17
81	81	21
17	23	2
13	13	15
46	46	4
9	24	2
71	71	15
66	66	6
18	24	2
23	47	2
8	8	16
13	48	2
16	18	3
65	66	6
65	76	2
75	76	13
12	13	14
7	17	1
8	9	10
85	85	15
26	57	5
54	55	7
23	28	3
61	61	15
76	77	4
1	1	11
47	49	4
59	60	5
53	53	18
0	3	4
6	6	6
5	23	3
57	79	5
27	28	4
80	82	3
63	64	3
52	52	15
51	51	11
49	72	1
49	60	3
49	49	10
73	81	1
60	60	5
77	77	6
13	14	3
15	89	6
28	31	1
21	24	1
18	19	4
54	54	11
55	73	1
34	49	5
18	21	1
70	70	9
77	79	6
3	4	9
58	70	4
16	16	3
8	10	3
5	5	12
83	84	6
58	59	2
2	58	5
19	69	1
57	74	3
5	6	3
8	57	1
66	67	4
51	74	2
86	90	4
56	72	4
29	30	3
72	73	12
28	49	1
79	83	3
88	88	4
4	27	2
9	10	6
84	85	11
90	90	4
5	26	4
68	69	1
50	72	1
30	31	3
47	48	5
25	27	1
31	65	2
7	7	4
1	2	2
49	78	1
88	89	4
23	24	6
59	62	1
27	75	1
18	18	6
69	71	3
48	50	1
82	83	3
2	3	2
34	51	4
76	80	2
46	48	3
57	80	3
80	81	6
59	61	2
33	78	1
77	86	1
79	79	3
78	79	4
51	52	2
21	22	4
50	73	1
19	73	5
81	83	5
21	23	1
87	87	13
53	55	3
58	62	2
84	86	2
50	51	1
8	11	1
53	56	1
16	27	1
86	89	1
51	56	3
52	58	1
77	78	4
9	12	3
6	34	1
21	21	5
63	65	2
52	53	7
7	8	8
78	78	4
66	74	3
87	88	1
73	85	3
22	23	2
56	60	2
50	52	4
25	26	3
62	66	2
54	64	1
12	85	1
75	77	2
66	68	1
31	33	1
19	71	1
27	76	3
48	49	2
62	65	1
11	23	2
11	14	1
62	79	2
12	15	1
8	54	1
26	53	1
6	24	1
80	83	4
7	13	1
12	17	1
72	84	1
31	46	3
27	55	1
3	16	2
25	75	1
10	11	1
7	16	2
75	80	2
57	66	1
71	74	1
15	18	2
23	26	1
5	19	2
5	31	1
26	27	1
55	60	1
69	70	1
50	78	1
29	29	1
30	67	1
2	66	4
22	57	1
73	77	1
24	28	2
60	64	1
18	22	1
66	79	1
70	71	1
86	87	1
18	69	1
57	70	1
78	84	1
52	63	1
16	19	1
26	55	1
64	64	1
51	72	1
20	21	1
