151	151	10
183	184	3
75	75	3
185	186	13
133	133	10
149	189	2
142	142	5
25	25	22
187	189	2
22	22	11
186	186	17
14	66	1
152	152	7
167	168	9
129	129	8
15	15	7
17	17	6
125	125	8
189	189	36
108	108	12
149	186	2
35	35	8
175	175	9
122	122	21
144	145	5
72	76	1
195	195	6
134	173	1
105	105	14
7	38	3
58	147	1
190	190	10
179	179	15
57	57	11
51	51	10
167	179	3
147	178	4
178	178	12
25	73	5
147	194	8
138	172	1
78	81	1
111	111	11
186	187	4
29	29	18
26	26	16
157	190	2
64	158	4
139	139	6
164	164	7
48	49	1
3	19	3
21	21	14
93	139	3
39	40	9
148	148	9
27	27	8
196	196	25
9	9	8
100	100	9
31	31	5
163	164	5
187	188	6
183	183	20
135	182	1
158	159	6
6	6	8
194	194	8
141	141	1
5	5	10
168	168	7
36	36	10
177	177	10
83	83	5
12	12	12
106	106	7
185	185	7
116	116	6
139	140	6
52	52	18
113	113	15
44	44	11
171	173	3
56	56	2
8	8	5
55	56	1
188	188	11
98	145	1
122	185	2
45	45	16
112	112	11
110	110	5
104	105	7
160	160	11
103	147	3
100	108	5
22	74	5
118	130	1
107	144	2
90	118	3
111	112	1
62	62	11
143	143	10
30	39	8
157	157	17
72	72	3
153	153	22
149	149	11
170	170	12
155	155	9
175	177	1
127	127	10
39	39	1
4	55	1
108	145	4
34	34	6
68	68	9
119	121	3
161	161	7
20	20	7
116	143	3
118	118	8
78	79	1
8	75	6
82	82	11
162	163	5
139	180	1
23	23	24
126	128	2
166	166	5
147	147	14
137	176	2
101	101	3
47	47	7
172	172	9
71	93	5
109	110	8
191	192	8
167	167	12
182	182	7
141	194	2
112	114	6
143	145	3
140	140	6
123	123	13
88	88	4
165	166	6
109	193	1
128	128	11
48	48	19
104	104	10
118	156	6
170	171	3
79	84	2
152	153	12
165	165	14
102	113	1
137	138	2
2	154	3
100	188	2
102	102	17
38	41	4
162	162	8
77	77	7
107	141	2
99	99	9
154	155	8
159	159	5
180	180	12
10	10	7
59	84	3
69	69	6
130	131	7
132	132	11
31	37	1
164	188	2
38	65	3
34	41	4
33	33	12
174	175	7
168	173	5
169	169	11
53	53	7
136	136	12
23	100	1
50	50	4
103	105	1
138	193	1
59	59	6
121	121	6
19	19	4
11	12	2
146	146	3
99	115	7
168	185	1
173	175	2
98	99	5
109	109	5
4	4	10
5	6	6
80	80	5
96	97	1
100	105	1
150	150	8
197	197	8
191	191	16
29	56	3
37	39	4
53	184	5
145	145	7
46	46	6
171	171	10
32	33	2
181	181	11
16	16	14
67	70	3
52	184	2
88	90	3
121	187	1
85	85	8
163	163	6
1	1	8
43	43	8
183	191	2
43	44	6
69	99	1
172	173	9
140	156	2
145	156	1
181	182	3
40	41	1
99	145	2
45	69	2
3	3	1
94	94	3
144	156	8
135	135	7
54	54	9
178	179	1
9	52	2
60	61	2
135	153	1
45	50	1
163	174	4
22	24	3
154	154	5
115	115	9
103	103	15
3	76	2
168	169	4
37	37	7
154	191	1
96	183	3
193	193	6
114	115	4
15	16	3
137	137	11
184	184	4
96	96	5
134	134	3
168	184	6
42	72	2
155	156	5
49	49	7
130	130	2
54	56	4
134	178	5
41	41	8
34	111	1
43	70	2
98	98	5
176	176	10
181	191	1
188	190	6
187	187	4
80	83	2
14	14	5
68	69	1
38	38	3
18	76	1
5	55	1
7	7	17
33	96	1
19	86	1
10	11	1
22	76	1
29	40	2
144	144	4
4	8	2
150	152	2
107	107	5
89	90	1
152	193	1
58	58	10
143	146	1
167	172	4
55	55	2
54	55	6
17	84	2
26	28	2
10	13	6
134	140	3
179	190	1
149	190	1
32	32	4
34	67	1
34	35	2
119	119	8
24	24	9
78	78	4
124	124	6
131	131	3
162	193	3
68	158	1
105	106	4
183	190	1
64	64	7
97	97	4
67	67	5
118	119	2
160	174	2
24	79	3
30	30	6
182	192	2
76	90	1
116	132	4
159	160	4
96	99	1
120	121	2
43	72	1
120	120	11
173	173	8
138	138	5
57	150	2
61	65	1
28	29	1
119	141	2
69	115	3
172	174	4
175	176	3
131	132	2
21	59	1
167	192	4
83	84	3
37	65	2
19	87	2
0	0	6
56	169	1
182	191	1
136	137	3
114	114	6
59	63	2
116	117	3
103	113	1
139	176	2
115	117	1
131	135	1
2	3	2
111	194	3
42	42	7
137	146	4
125	127	3
81	83	3
176	178	4
161	162	2
30	79	3
47	48	2
4	23	1
65	154	1
25	63	1
40	43	1
140	175	1
193	194	2
25	66	3
95	154	2
17	23	2
20	21	1
76	76	3
152	161	1
101	170	1
162	188	1
87	87	5
23	24	1
119	120	2
18	18	5
158	158	8
56	57	2
101	172	2
190	191	3
61	68	2
163	189	2
5	52	1
177	179	4
168	179	1
161	163	6
100	103	1
150	151	3
180	182	4
89	89	5
93	93	5
11	11	6
176	177	2
195	196	2
59	66	4
150	154	2
59	61	1
117	118	3
115	116	1
184	185	7
151	152	4
179	180	1
45	70	2
40	40	5
139	141	2
143	144	3
32	35	1
28	62	3
108	135	1
126	126	4
108	138	2
9	16	2
99	108	1
103	148	6
26	63	3
26	62	1
117	117	7
135	144	2
149	150	2
109	182	1
26	61	2
21	22	6
66	66	5
74	74	3
107	149	1
1	2	1
173	177	1
66	67	2
172	182	1
108	109	2
66	158	1
31	42	3
61	143	4
160	161	1
46	50	4
72	73	7
88	111	2
156	156	8
58	59	2
38	64	1
28	28	3
116	190	1
17	18	3
143	154	2
145	157	1
25	74	2
150	159	2
66	73	1
149	196	4
131	138	3
151	161	2
47	96	1
24	67	1
95	96	2
71	72	5
70	71	4
31	32	1
33	36	1
0	154	1
3	4	4
17	20	1
132	177	1
19	20	2
191	193	2
164	166	3
47	49	1
35	88	1
81	84	1
0	1	2
181	192	2
192	192	5
14	15	2
99	100	2
9	184	2
100	107	1
95	97	3
52	53	2
167	185	2
174	174	3
192	193	2
109	118	1
125	132	1
173	174	4
126	133	2
112	183	1
2	7	3
166	191	1
4	5	1
47	53	1
61	145	3
79	79	1
157	158	1
160	193	5
141	189	1
22	23	3
140	171	3
4	171	1
172	177	2
189	190	2
124	125	1
167	169	2
143	148	1
96	115	2
3	74	1
8	38	1
125	197	3
106	107	2
14	74	3
187	194	2
5	16	1
142	144	1
177	178	1
126	127	2
163	190	5
37	42	1
147	148	4
73	75	1
115	188	2
38	39	1
88	89	1
46	63	1
142	152	3
28	36	1
38	43	1
51	52	2
117	157	2
34	60	1
141	180	1
127	128	5
149	184	1
101	102	4
32	68	2
130	176	4
137	140	1
58	64	2
83	85	1
4	20	2
115	191	2
125	126	4
71	71	4
39	43	1
5	172	3
137	139	1
161	188	2
73	73	1
167	183	1
110	178	1
12	15	1
15	166	3
61	144	1
22	68	3
157	159	4
128	129	1
118	173	1
184	194	1
2	116	2
2	2	3
116	134	1
144	155	1
84	85	1
177	180	2
26	35	1
112	171	1
79	80	3
28	30	1
86	86	2
27	29	2
1	4	2
146	147	2
116	140	1
52	56	1
50	51	2
23	115	1
122	123	1
84	84	1
18	87	1
52	170	1
0	156	2
134	135	1
58	160	1
29	30	2
93	119	1
170	176	1
141	142	1
95	95	2
54	57	1
110	111	1
34	36	1
112	188	1
140	141	1
183	193	1
119	175	1
63	63	1
118	192	1
24	157	1
174	177	1
67	68	1
169	171	1
116	138	1
4	16	1
150	167	1
135	178	1
53	54	1
35	61	1
66	75	2
41	58	1
24	27	1
136	189	1
120	174	1
39	42	1
162	164	1
169	180	1
81	81	1
25	59	1
135	177	1
129	170	2
135	140	1
74	75	1
76	78	1
54	172	1
171	172	1
102	103	1
178	180	1
30	33	1
151	153	1
112	113	1
5	9	1
26	27	1
27	28	1
179	185	1
129	130	1
126	129	1
72	79	1
