102	102	7
26	26	10
60	60	9
53	53	8
126	128	6
68	68	3
131	131	10
109	113	2
66	71	1
11	11	4
54	54	13
116	122	2
69	69	3
67	67	9
97	98	10
29	29	6
118	118	10
81	98	2
66	117	3
27	27	6
16	24	3
51	51	12
90	90	4
101	119	3
41	66	2
96	96	3
32	32	2
42	42	9
47	47	13
16	16	9
13	14	3
110	111	5
101	101	3
57	57	9
104	105	8
132	132	7
20	20	11
46	46	4
72	75	2
8	8	9
125	125	6
132	133	4
25	25	4
0	0	6
62	62	4
61	61	8
111	111	11
86	86	1
85	85	3
91	91	10
128	128	4
115	128	3
52	52	7
50	50	8
84	84	2
65	69	3
34	34	1
100	119	2
113	113	6
17	17	4
5	5	5
110	110	7
98	119	1
43	43	15
39	39	16
126	126	4
44	45	4
0	7	2
10	10	9
98	129	3
40	58	4
1	1	5
13	13	2
49	49	6
88	88	4
86	87	2
45	62	4
84	85	2
89	90	8
55	55	9
63	63	2
130	131	3
100	100	7
45	45	9
95	95	8
93	93	3
44	44	3
97	129	2
104	117	3
85	87	1
99	99	5
65	66	4
109	114	1
109	109	4
12	12	2
11	12	1
119	119	6
122	123	1
127	127	8
77	77	4
19	23	1
116	116	2
56	56	6
107	108	1
56	57	1
28	28	2
22	22	5
122	122	7
112	112	5
100	130	3
121	121	2
24	28	2
24	25	3
59	59	5
49	50	1
72	72	9
68	115	1
88	104	2
76	76	5
48	48	5
81	103	7
120	120	2
82	82	6
83	86	3
102	103	3
108	108	7
97	97	8
41	41	4
118	119	1
111	112	2
3	4	1
23	24	4
128	130	3
105	105	5
82	83	3
19	54	1
93	94	1
31	31	5
88	94	1
103	103	2
39	77	3
127	131	2
42	43	3
70	72	2
23	23	2
70	71	3
4	5	1
15	16	2
29	30	12
66	115	2
70	115	1
40	40	4
71	71	4
105	109	6
94	94	4
118	126	1
43	44	5
71	72	3
15	15	1
105	106	1
78	78	2
77	78	6
65	72	1
107	112	3
114	129	1
38	38	2
73	74	5
24	27	1
114	114	2
100	101	1
62	77	2
18	18	2
109	110	1
39	106	1
30	30	6
2	4	1
124	124	1
130	130	2
73	73	1
104	104	9
104	106	1
7	7	4
87	87	1
85	86	1
2	3	3
20	21	1
49	69	1
86	88	1
97	128	1
74	74	4
65	65	6
123	123	2
69	116	2
128	129	2
21	22	4
129	129	2
84	91	1
67	68	2
79	79	2
33	33	2
14	14	2
66	66	2
51	53	2
87	94	2
32	33	1
92	92	3
24	24	1
121	122	1
31	32	1
65	73	2
21	25	2
80	80	2
40	41	1
62	63	1
58	58	2
9	10	1
64	64	2
98	98	4
65	68	1
70	75	1
80	118	1
115	115	5
68	69	2
126	127	3
40	68	3
75	75	4
40	42	2
103	104	1
40	62	1
9	53	1
60	107	2
19	19	1
74	75	1
6	7	1
26	33	1
115	117	1
84	101	1
38	41	1
3	5	1
66	73	1
55	61	1
113	114	1
92	93	2
78	79	2
127	130	1
44	70	1
14	15	1
21	21	1
42	47	1
43	65	1
89	99	1
19	21	1
117	117	1
81	81	1
29	75	1
60	62	1
118	127	1
97	101	1
77	108	1
