52	52	34
75	81	2
23	23	20
68	69	7
16	17	3
27	28	8
88	88	9
6	24	4
8	12	4
83	83	7
76	76	16
61	61	19
80	80	21
6	7	5
46	47	5
17	18	2
80	81	11
54	54	25
12	51	5
56	65	2
62	63	3
58	58	28
51	51	18
67	67	12
77	80	6
59	66	2
55	55	16
21	24	1
8	10	4
84	86	2
53	55	8
4	4	3
47	47	21
12	12	6
51	52	10
56	75	2
83	84	4
19	19	20
50	50	34
24	24	12
60	61	10
50	51	6
5	5	9
59	61	6
62	62	9
25	26	9
11	11	11
63	64	11
82	82	7
89	89	9
79	79	8
9	9	8
72	73	8
56	57	2
52	53	4
3	3	15
57	57	13
69	69	12
13	20	3
34	46	2
86	86	14
65	65	20
75	75	10
79	81	7
58	59	4
66	66	13
59	59	15
53	53	14
78	78	10
56	56	16
77	77	9
21	21	6
46	46	6
35	63	1
20	72	2
75	76	2
53	54	8
34	34	12
56	83	3
8	8	2
81	81	20
71	71	7
20	20	7
73	73	12
51	65	1
33	33	3
79	83	2
52	65	3
49	51	4
68	68	11
54	57	3
7	13	3
48	85	3
25	25	16
9	10	3
67	68	8
22	22	9
46	83	2
59	60	5
47	48	4
30	30	9
49	49	11
15	15	7
62	65	3
5	11	3
84	84	9
77	79	4
27	27	11
64	64	7
70	70	5
19	20	1
12	74	5
17	82	6
26	26	5
10	10	5
90	90	2
75	77	1
2	2	10
7	7	8
59	75	4
58	65	1
60	62	3
73	74	2
46	74	1
21	22	5
74	74	3
13	13	11
14	57	3
53	56	2
6	6	9
81	82	2
17	27	2
50	58	3
8	53	2
71	72	1
5	7	1
52	55	3
60	60	12
71	74	4
54	56	5
52	60	3
14	14	9
54	55	2
72	72	7
0	0	6
18	24	1
78	79	2
50	65	3
26	27	5
10	77	1
57	58	1
51	55	4
48	48	9
10	11	1
25	27	5
63	63	4
71	73	1
51	61	1
56	80	1
61	62	5
22	23	4
88	89	6
8	80	2
17	17	19
12	47	2
48	51	2
12	13	2
55	78	2
87	87	7
18	19	5
28	28	1
31	31	4
79	82	1
86	87	6
87	88	1
64	65	6
19	22	2
82	83	2
8	9	2
24	26	2
57	73	1
5	12	1
11	12	3
58	66	3
18	18	2
0	1	1
67	69	4
6	78	1
64	83	2
22	54	1
7	10	1
82	84	3
48	49	2
10	19	1
79	80	5
52	66	2
85	86	2
4	5	2
11	74	1
51	53	1
47	49	5
13	18	1
65	66	4
53	58	1
10	13	1
69	86	1
5	27	1
13	34	1
48	77	1
16	34	1
77	78	2
49	83	1
56	81	1
84	85	1
76	77	2
66	76	2
30	31	1
14	31	2
17	61	2
15	16	1
67	85	1
66	67	1
14	59	2
69	87	1
9	19	3
14	15	1
14	27	1
19	24	1
60	83	1
74	76	1
7	8	1
12	55	1
14	16	1
14	67	1
