32	101	1
39	39	9
70	71	6
82	90	1
128	128	9
158	161	3
182	182	3
123	124	5
106	131	2
107	121	3
149	149	7
175	175	5
137	138	4
33	170	3
132	145	2
185	185	3
33	35	1
7	57	2
137	137	4
23	35	4
158	158	3
41	41	5
53	54	3
111	112	3
81	81	13
11	11	3
94	165	1
22	22	12
65	65	1
0	0	6
5	5	5
176	176	3
122	137	2
78	179	3
184	184	2
21	21	2
179	180	3
17	20	5
157	157	5
5	12	2
139	139	3
117	117	6
154	154	4
115	126	2
131	132	1
180	180	6
32	167	2
153	153	3
45	45	2
134	134	7
130	154	2
124	124	4
62	62	5
38	38	8
156	159	2
28	28	8
46	179	2
164	172	5
162	165	3
145	155	1
55	55	5
16	16	5
26	27	2
124	125	4
167	181	3
15	15	4
6	78	1
152	152	9
34	34	1
119	160	3
58	59	4
1	85	1
170	173	6
1	2	2
150	150	10
71	71	4
72	72	3
15	77	1
170	170	1
40	40	8
4	4	1
137	155	2
122	122	10
83	83	8
27	27	3
158	182	2
142	143	3
36	55	1
75	76	1
124	128	3
46	46	6
164	165	2
157	168	4
101	101	4
110	111	2
89	95	4
121	121	4
17	17	4
118	119	5
36	37	7
126	126	3
113	113	3
10	122	3
12	12	3
5	11	3
32	168	2
65	82	2
74	74	7
116	116	4
97	98	2
119	119	4
103	103	1
171	185	3
105	156	5
140	140	8
148	175	2
10	70	1
171	171	3
65	66	3
23	47	1
39	40	3
148	148	5
33	102	2
76	151	2
35	35	2
6	6	2
53	122	1
44	180	2
176	179	8
42	42	4
158	160	8
20	20	7
78	81	4
179	179	2
47	94	2
94	94	3
167	167	1
26	114	2
64	65	3
64	98	3
59	65	1
58	60	2
42	147	3
105	132	2
11	12	5
20	23	3
174	174	2
114	178	1
125	125	3
156	156	5
83	84	4
148	150	4
111	113	3
109	109	2
157	170	2
151	151	3
64	64	1
76	76	3
25	26	2
173	173	2
86	86	2
15	71	3
97	97	5
88	88	4
96	97	1
123	123	4
152	153	2
22	23	3
67	67	1
168	168	2
80	80	2
114	114	4
7	8	1
186	186	2
178	178	1
54	55	3
102	102	1
176	187	4
68	113	2
53	53	3
134	145	1
155	155	3
147	174	2
109	163	1
12	42	1
105	105	1
30	31	3
37	37	5
149	150	3
60	61	4
155	156	2
86	87	4
48	48	3
62	63	2
105	121	2
129	130	3
7	87	3
133	138	4
1	4	1
138	140	2
23	23	1
177	179	2
95	96	2
95	129	2
47	110	1
135	135	1
175	176	4
13	19	1
163	163	5
120	163	2
114	116	3
2	2	3
56	56	3
129	129	1
33	33	1
42	85	2
125	126	3
135	138	1
12	120	1
22	72	2
130	131	2
36	36	3
48	112	3
142	144	1
24	24	3
87	87	4
57	57	3
80	93	2
91	91	6
14	15	3
96	99	1
17	80	3
55	187	6
112	112	2
19	20	2
37	169	2
181	190	1
47	48	1
82	92	1
20	188	4
144	145	4
25	25	5
171	172	1
181	181	2
18	18	1
94	164	1
162	163	1
176	178	2
22	165	2
106	182	1
66	67	2
54	56	1
143	143	1
188	189	7
136	136	2
13	68	2
190	190	1
172	172	2
5	54	1
184	185	1
99	99	2
156	157	1
127	127	2
114	124	1
73	73	1
108	164	1
189	189	3
44	46	2
29	29	2
182	183	2
77	77	1
58	100	1
19	19	1
44	67	1
90	90	3
93	95	1
162	168	1
28	33	3
154	174	2
96	98	1
32	36	3
85	85	1
141	141	1
65	68	1
79	86	1
16	180	1
161	161	2
1	72	1
185	186	1
31	31	2
89	89	1
63	80	1
108	108	1
16	163	1
59	62	1
135	137	1
13	13	3
63	63	2
10	11	1
162	162	1
56	57	1
59	64	1
134	135	1
146	146	1
84	84	1
61	62	1
165	165	1
37	55	1
119	172	1
75	179	1
177	177	1
106	107	1
68	68	1
