205	205	6
39	39	10
3	3	11
39	141	3
47	55	6
95	95	1
61	61	6
96	98	1
133	133	4
217	217	4
105	105	10
29	30	4
234	234	8
66	66	7
149	149	4
192	192	12
22	41	6
124	124	3
64	136	2
179	180	1
98	104	2
72	72	4
175	176	3
20	37	1
88	129	1
175	175	3
47	62	1
202	203	1
120	120	7
35	59	8
17	17	13
142	142	5
119	119	7
209	210	1
20	28	2
224	224	2
16	16	8
25	25	2
85	85	9
103	104	9
63	63	8
57	57	2
174	174	5
221	222	2
228	228	5
81	81	6
11	11	13
166	166	18
231	231	9
214	215	1
235	235	6
184	186	1
147	149	1
46	55	4
62	62	4
19	136	4
40	40	3
210	210	6
29	29	7
170	170	14
231	232	3
221	221	10
61	76	6
168	168	10
100	100	5
72	73	3
17	18	2
64	65	2
187	187	10
134	134	6
177	178	4
83	84	6
24	226	1
27	27	11
198	198	5
138	139	6
65	175	3
194	195	3
70	70	3
211	211	4
105	117	4
162	163	3
222	223	1
130	133	1
115	115	7
199	200	8
99	149	1
13	14	7
17	19	1
60	60	3
26	26	5
51	224	2
66	151	1
83	83	3
39	40	2
123	123	11
31	31	5
3	23	4
33	33	6
121	121	4
167	169	5
58	59	5
102	107	6
37	37	4
28	28	6
10	10	6
69	69	5
205	222	6
75	89	4
68	218	2
22	23	1
23	23	1
82	82	6
21	227	3
207	209	1
19	20	15
80	80	2
16	17	1
19	179	2
158	158	5
191	191	7
159	159	7
178	179	1
68	136	3
146	148	4
21	23	5
79	125	1
212	218	5
66	67	4
157	157	5
122	127	2
61	62	6
58	82	2
14	76	1
140	140	10
18	18	6
190	191	5
15	32	5
195	205	4
227	227	7
192	193	1
112	134	1
48	49	3
64	64	4
50	52	1
0	3	1
97	97	1
109	110	2
44	44	5
115	126	1
154	154	5
6	6	5
241	242	1
226	227	1
181	182	4
118	120	4
154	161	3
101	101	6
148	148	3
65	65	1
111	122	5
13	13	5
42	42	9
58	58	1
194	198	2
216	216	5
155	155	1
19	19	8
14	33	3
108	109	3
67	68	8
215	215	1
217	220	2
68	228	3
188	188	6
150	150	3
89	89	3
156	156	4
56	77	1
160	160	4
130	130	5
32	76	2
197	197	7
198	199	4
23	41	6
0	11	2
135	135	3
145	145	2
107	107	2
141	141	5
131	135	2
102	102	7
12	35	3
172	203	5
70	197	1
176	178	1
176	186	1
213	213	3
219	219	6
108	170	7
36	36	6
152	179	6
76	76	1
186	186	2
229	230	1
43	43	5
151	151	7
65	230	1
82	83	3
37	42	5
84	84	4
62	63	4
43	45	3
13	15	2
128	128	5
83	138	6
21	21	4
68	68	7
234	235	4
223	224	2
207	207	7
206	220	2
0	0	10
50	50	7
109	145	1
190	190	4
122	122	2
155	158	1
114	118	2
15	37	2
12	12	4
98	98	3
136	136	6
81	82	2
30	30	6
76	78	5
241	241	6
228	229	2
21	226	5
229	229	2
227	228	6
4	7	3
49	49	3
144	144	3
2	62	5
43	232	1
211	212	3
47	60	1
182	210	2
38	38	4
107	129	1
74	74	5
82	90	2
153	155	3
216	217	1
127	127	5
218	219	2
144	145	3
163	163	1
184	222	1
242	242	3
121	122	1
240	241	5
58	61	2
139	139	3
196	196	6
33	36	1
71	110	6
161	161	2
41	41	4
40	41	5
180	180	5
99	99	3
194	194	4
166	196	2
15	15	2
195	197	1
66	68	4
5	5	1
137	137	2
126	126	2
20	23	4
47	47	4
155	179	2
1	85	1
54	54	3
107	108	2
24	24	4
29	74	1
43	200	1
8	9	1
70	71	2
21	39	1
146	146	1
151	235	3
184	184	3
102	106	1
4	4	2
3	4	3
199	201	2
125	126	2
71	71	1
238	239	4
55	55	1
173	174	2
67	67	2
37	38	2
198	204	1
56	56	5
99	100	2
158	160	2
240	240	3
172	173	5
172	175	2
142	143	1
29	66	2
213	215	2
43	207	2
106	106	2
118	152	3
16	32	1
88	88	3
188	202	1
10	37	1
53	53	6
44	45	1
29	65	4
151	234	1
158	159	2
14	15	3
20	20	2
3	42	1
78	78	5
7	7	4
209	209	5
59	59	2
86	86	1
56	57	3
9	16	1
134	147	1
116	125	2
75	75	1
164	164	1
200	201	2
193	194	3
51	51	2
122	126	2
200	224	3
101	109	2
46	46	2
158	185	1
203	203	1
214	216	1
65	80	1
133	147	2
178	178	2
119	128	2
176	177	5
175	208	2
182	182	2
56	68	1
3	37	1
222	222	3
188	190	1
0	1	3
173	184	1
98	103	2
139	170	3
58	60	1
45	198	2
101	102	3
109	111	2
146	183	1
52	52	1
64	85	1
145	148	1
153	153	1
108	129	1
172	172	2
5	6	2
76	77	2
24	43	1
138	138	1
148	149	1
212	213	1
23	206	2
168	169	3
139	224	3
148	192	3
14	14	2
8	8	4
7	8	1
230	230	1
97	237	2
202	202	3
25	202	1
50	57	2
44	69	1
79	122	1
117	117	1
103	103	5
129	132	2
200	200	2
86	88	2
32	32	2
2	2	2
83	139	2
225	226	1
232	232	2
51	200	2
126	127	2
18	34	3
9	9	2
109	112	2
170	171	1
171	171	2
9	10	2
198	206	1
195	195	1
84	136	1
9	34	1
15	38	2
10	42	2
133	134	2
118	118	1
201	201	2
125	125	2
13	16	2
52	53	2
79	79	1
239	239	1
182	187	1
84	106	2
111	121	1
202	211	1
32	33	1
112	113	2
193	193	2
159	161	1
85	231	1
152	176	1
218	218	1
25	42	1
165	165	3
101	188	1
26	43	1
3	8	2
7	36	1
107	118	1
160	188	1
5	77	1
102	109	1
75	123	1
226	230	1
102	115	1
73	73	1
92	92	1
27	85	1
26	233	1
12	13	1
223	223	1
78	127	1
226	226	1
135	217	1
225	225	1
158	167	1
26	27	1
136	138	1
31	32	1
77	78	1
131	131	1
204	220	1
122	123	1
208	208	1
183	183	1
116	126	1
123	125	1
115	117	1
24	25	1
154	157	1
77	79	1
