86	86	2
118	119	3
77	78	4
130	130	8
14	14	3
24	24	8
25	26	1
8	9	6
94	113	1
133	135	2
37	38	3
118	118	15
4	5	5
100	100	8
86	88	3
0	1	4
83	85	11
2	22	3
78	78	7
91	91	14
102	102	11
129	136	5
30	30	7
96	96	3
108	108	2
27	28	1
116	116	7
74	114	3
134	134	11
122	122	15
79	79	7
111	112	4
128	128	8
105	105	4
17	25	3
120	120	9
24	25	1
123	123	14
87	87	10
99	99	5
119	119	3
21	22	7
10	10	4
22	24	4
128	129	4
29	32	3
83	83	2
35	35	3
126	126	14
104	106	2
97	97	7
7	9	4
89	89	10
129	129	1
115	115	3
33	33	4
109	118	2
97	113	3
122	123	4
105	106	1
1	23	2
109	109	3
31	31	7
111	111	7
112	112	8
82	83	4
108	112	2
77	77	6
0	7	2
103	103	4
140	140	8
80	80	4
22	23	1
81	81	6
74	74	5
75	108	3
92	92	5
27	27	7
138	138	2
117	117	8
113	113	5
124	124	10
22	22	15
72	72	3
18	18	4
131	131	3
121	121	7
73	73	9
104	105	4
30	31	4
7	71	1
21	24	3
15	33	2
19	19	4
20	20	4
81	83	4
109	111	2
7	7	3
110	111	8
101	101	6
107	107	5
135	135	1
77	108	1
71	71	4
4	4	4
3	3	5
37	37	7
20	68	1
2	3	1
16	16	6
110	110	3
103	104	6
127	128	5
13	13	10
29	29	3
125	125	6
123	132	1
33	36	2
17	19	3
136	136	6
132	132	7
107	108	1
126	134	3
26	26	4
34	37	2
101	104	2
87	89	3
21	21	6
23	28	5
23	23	8
137	138	1
133	134	7
114	115	2
94	95	1
25	27	4
28	31	1
87	104	2
95	95	3
8	8	5
6	82	7
12	12	4
123	124	4
20	26	2
20	21	1
117	119	1
136	138	3
16	21	1
139	140	2
34	36	2
124	125	2
15	16	3
118	122	2
88	88	2
5	35	3
73	74	2
25	25	1
92	93	2
98	98	3
71	96	3
17	17	1
118	120	2
119	123	3
133	133	5
88	89	2
23	25	1
6	8	1
120	121	2
11	11	1
117	131	2
104	116	2
119	120	2
99	100	1
10	11	2
121	122	4
18	26	2
108	109	3
22	26	2
9	9	1
97	108	3
26	27	1
105	107	1
6	14	2
120	122	4
93	93	1
86	87	1
11	23	1
3	4	2
73	104	4
9	13	1
5	5	1
75	75	2
15	15	1
116	118	1
96	125	1
26	28	1
114	114	1
36	36	2
4	81	1
2	81	1
34	34	1
1	1	1
89	100	1
31	32	2
79	80	1
29	30	1
85	104	1
79	101	1
5	6	1
96	133	2
106	106	1
104	104	1
30	32	2
