55	55	17
119	119	25
67	68	3
121	121	13
113	113	21
105	106	15
58	60	6
98	99	7
123	123	31
5	6	11
120	120	27
101	102	7
62	62	22
36	36	16
110	110	19
42	43	8
87	87	26
1	1	21
64	65	8
84	92	8
74	74	26
126	126	18
127	128	22
85	85	29
81	81	9
124	124	19
32	34	6
75	77	3
61	61	12
121	127	1
108	108	19
106	106	30
114	116	6
74	90	2
130	130	20
97	98	6
118	118	3
104	105	6
92	93	7
53	54	3
58	61	3
44	44	30
99	99	19
59	61	2
97	106	3
114	114	14
87	88	4
105	107	11
122	122	26
85	92	2
119	120	3
89	89	8
106	108	9
76	76	19
38	44	3
28	28	20
7	18	1
134	134	18
93	93	14
2	3	8
21	21	18
135	135	11
129	129	29
96	97	14
133	133	15
88	88	15
72	78	4
91	91	25
44	54	1
46	50	2
52	52	16
132	132	19
16	16	12
95	95	41
62	64	3
106	109	4
94	105	3
43	43	20
118	129	4
94	94	24
95	106	2
73	74	8
109	110	10
116	116	19
44	45	16
32	33	4
104	104	23
53	53	29
32	32	18
86	86	16
121	122	8
115	130	1
25	25	6
129	130	7
73	73	26
20	24	1
81	82	2
98	98	29
30	30	31
115	116	15
80	80	18
122	123	13
29	30	7
11	11	18
14	14	10
92	108	6
61	62	7
83	83	5
102	103	2
86	87	4
36	45	5
117	130	4
33	33	10
75	75	15
103	104	6
5	5	10
89	91	6
100	100	19
80	81	3
56	57	10
72	74	6
54	62	9
118	119	3
66	78	1
13	13	11
68	68	26
64	69	2
93	94	7
126	127	12
25	27	4
30	35	2
128	134	2
66	66	5
81	96	3
19	19	6
54	54	21
24	26	11
78	78	19
0	0	14
83	84	6
82	124	3
131	132	4
49	49	7
81	127	4
97	97	14
112	112	18
69	70	13
110	111	6
7	7	7
82	82	12
88	90	4
123	124	8
63	63	17
20	21	10
36	53	3
6	6	9
90	90	15
31	32	2
117	117	24
65	77	2
124	128	2
96	111	2
133	134	9
77	77	13
101	101	13
66	77	7
105	105	30
117	118	3
70	70	11
71	71	17
100	117	1
72	79	5
25	26	4
47	50	3
94	95	6
97	101	9
77	86	2
58	67	5
24	24	10
92	92	17
21	24	4
38	38	4
50	64	2
82	125	3
96	96	15
128	128	19
52	53	6
105	108	6
14	15	5
59	59	12
101	107	2
26	26	12
72	73	2
13	15	3
50	50	14
47	49	1
10	11	11
120	123	4
64	64	22
20	20	11
79	79	11
49	51	4
29	37	2
107	107	13
107	110	1
83	85	1
76	79	2
108	110	5
82	83	3
72	76	4
107	108	9
115	121	3
111	111	28
9	10	4
116	117	7
33	34	4
45	45	11
31	34	2
121	124	6
106	107	11
91	92	5
3	16	3
67	77	3
129	134	3
111	118	3
102	116	8
60	60	23
86	100	5
55	64	5
60	93	1
78	79	8
103	105	4
31	31	20
8	8	4
99	101	1
37	37	6
68	78	4
60	69	1
79	80	3
107	112	3
117	119	3
70	77	2
57	61	5
70	74	2
84	121	2
72	72	12
5	11	2
85	86	3
99	100	23
8	9	2
73	79	2
3	4	8
58	69	2
111	112	9
134	135	5
55	56	10
24	28	4
91	107	2
15	16	4
114	115	5
95	96	9
29	29	14
83	123	1
68	94	2
34	34	8
4	4	12
128	129	6
131	131	8
95	108	3
47	65	2
98	109	3
13	14	2
84	84	10
124	125	3
15	15	19
71	72	5
117	125	1
112	113	9
132	134	3
1	2	4
126	129	1
87	101	3
2	2	7
29	32	1
90	91	2
125	126	9
27	28	3
120	121	6
92	94	1
35	37	1
59	62	3
23	23	12
116	126	2
82	123	2
115	119	1
69	78	3
103	103	18
98	100	8
12	12	6
66	69	3
119	124	2
67	76	5
71	78	2
10	10	3
120	124	2
77	78	4
25	28	2
85	95	4
81	126	2
123	129	1
54	64	2
17	17	4
62	63	6
125	125	11
102	102	11
127	127	13
18	18	4
111	120	1
69	76	5
74	75	6
21	23	8
132	135	1
70	71	2
30	31	2
31	33	5
4	5	2
45	46	3
67	97	2
119	122	2
125	129	1
47	47	4
124	126	7
83	115	3
92	107	1
65	78	7
84	85	7
66	67	1
115	115	13
65	65	13
66	93	1
89	90	8
50	52	7
65	69	5
56	58	3
60	61	2
45	51	2
22	25	4
18	19	6
130	131	1
113	115	4
28	35	4
81	123	2
71	82	5
95	109	2
19	20	1
114	129	2
69	71	1
3	3	4
47	48	1
20	23	3
75	76	8
21	22	12
122	124	9
112	120	3
48	48	3
115	120	4
90	92	2
116	118	2
124	129	1
58	59	7
118	130	2
35	35	7
109	111	4
67	72	5
57	57	6
110	114	2
107	119	3
61	93	2
8	11	4
112	129	2
66	71	1
33	36	2
122	125	4
57	65	1
23	26	4
107	123	2
59	60	1
68	70	3
35	36	2
132	133	1
96	106	2
115	133	2
8	15	3
27	27	4
85	91	1
63	64	11
34	50	1
106	126	1
47	125	3
67	67	1
36	37	2
97	109	1
113	118	4
66	68	3
60	63	1
93	98	1
56	56	2
35	48	1
46	49	2
65	86	7
104	128	1
79	104	1
98	110	2
77	80	2
116	128	2
128	130	1
51	51	6
82	86	1
68	69	1
22	22	4
34	35	1
64	78	5
6	7	1
80	105	7
98	105	1
57	67	2
100	101	2
58	58	2
110	117	2
69	69	6
82	126	4
96	101	3
94	96	2
96	98	1
93	110	1
57	58	3
66	72	1
124	130	2
123	125	1
43	44	2
57	63	2
76	78	2
1	63	1
57	66	3
127	131	1
47	88	1
2	5	1
128	135	3
86	96	1
5	8	2
18	20	1
95	97	1
114	120	1
93	95	1
104	108	1
84	91	1
28	29	1
98	107	1
87	90	2
75	103	2
55	86	3
38	45	1
61	65	1
6	8	1
119	121	3
106	111	1
49	50	1
116	119	1
43	46	3
23	25	1
54	55	1
46	47	1
49	52	1
0	2	3
71	76	1
88	89	2
61	63	2
1	3	1
79	105	1
112	134	2
111	113	1
66	83	1
78	80	2
61	92	1
3	5	1
34	36	1
57	76	1
56	59	1
82	105	2
62	76	2
82	97	1
113	135	1
109	109	3
55	58	1
32	36	1
23	27	2
61	66	1
25	44	1
118	120	1
98	135	2
85	88	1
7	9	1
79	128	1
80	127	1
83	125	1
92	111	2
121	126	3
74	77	1
85	121	1
82	85	1
92	110	1
19	23	1
102	117	1
81	109	1
81	93	1
0	3	1
71	77	1
