118	119	4
79	90	3
69	69	1
128	134	2
120	121	2
72	72	2
7	7	5
26	26	5
77	77	11
21	23	2
113	139	3
96	96	2
86	103	1
2	3	2
109	131	5
8	8	6
112	113	5
138	138	9
25	25	4
157	157	2
131	131	3
33	34	5
115	116	1
117	137	2
4	5	5
122	122	1
152	157	5
111	111	11
21	24	2
136	151	2
11	72	3
114	114	4
119	119	9
73	104	2
71	71	1
8	70	4
126	126	2
116	116	5
35	56	4
12	13	5
66	66	1
119	136	2
112	112	4
93	94	6
43	90	2
73	73	9
129	129	5
150	150	10
144	154	5
108	110	4
125	135	2
54	65	7
91	91	8
118	139	3
7	8	1
109	110	2
11	14	1
98	98	3
16	67	1
1	25	3
81	81	3
42	42	5
20	20	5
31	37	2
134	136	1
13	13	1
12	12	4
79	79	1
49	49	4
80	81	6
93	104	2
128	128	7
120	120	7
104	104	1
118	118	6
0	0	5
22	23	8
153	153	5
124	134	4
81	82	1
25	26	2
133	134	3
92	92	6
126	127	2
158	158	1
121	121	4
17	17	1
103	104	3
44	45	3
93	93	4
148	148	2
84	85	3
98	114	3
31	47	3
124	145	2
139	139	3
41	43	5
4	26	3
75	75	6
123	133	1
35	35	7
149	149	5
21	46	1
94	97	2
117	117	3
65	65	1
29	56	3
24	49	2
126	155	2
107	107	3
8	9	1
87	87	3
78	83	5
154	154	2
47	47	3
5	6	2
15	15	6
105	105	7
4	47	3
63	63	1
11	11	4
64	64	4
33	48	2
125	127	8
41	41	4
102	102	1
40	41	4
37	37	3
6	105	2
135	138	1
18	32	3
3	3	11
137	152	1
28	81	2
87	88	5
149	150	1
69	70	4
22	22	1
91	92	3
16	18	2
136	137	2
151	151	9
44	44	10
33	33	2
107	133	3
103	106	2
18	18	3
100	100	3
53	67	1
53	54	1
24	27	4
95	95	2
144	147	1
16	17	4
46	46	3
52	53	2
5	47	1
105	106	1
67	70	1
141	141	5
15	18	1
36	36	1
141	142	1
125	125	3
85	85	1
6	6	3
97	98	1
97	97	2
95	104	1
32	55	1
73	125	3
67	67	1
152	154	5
131	134	1
105	107	1
6	104	1
136	136	2
13	16	1
9	9	4
110	110	2
143	144	2
20	22	2
16	16	1
149	152	2
43	43	3
125	126	5
156	156	9
15	37	2
123	123	1
23	23	2
134	135	1
40	40	1
84	86	2
78	78	2
108	111	1
155	157	2
120	153	1
10	12	1
131	132	3
109	109	1
99	99	2
42	52	1
5	26	2
137	137	3
55	55	3
52	52	1
4	4	3
90	104	1
30	30	2
147	147	3
88	88	2
155	155	4
113	114	1
19	20	5
80	80	1
127	127	3
77	126	1
154	156	2
142	152	1
92	96	1
21	21	3
24	24	1
133	133	4
28	86	3
142	157	1
112	140	1
148	149	2
5	92	1
18	48	5
62	62	1
139	140	1
3	4	1
62	67	1
122	145	1
31	31	2
37	38	3
124	124	1
148	150	2
145	151	2
29	29	1
48	48	1
99	100	1
2	2	1
76	76	1
75	100	1
1	1	1
104	105	1
135	135	2
94	94	1
8	53	1
51	51	1
67	69	1
128	129	2
28	46	1
121	125	1
28	29	2
67	130	2
135	139	1
115	115	1
40	65	1
140	140	1
132	132	2
157	158	1
146	146	2
46	47	1
13	14	1
132	133	1
56	57	1
100	102	1
27	27	1
130	130	1
86	86	1
65	71	1
113	113	1
153	157	1
129	130	1
