53	53	17
55	55	25
32	32	10
78	81	2
51	52	5
66	66	8
103	103	18
92	92	14
20	21	8
31	31	5
57	79	4
36	54	2
96	97	4
69	69	9
97	97	4
52	52	13
34	34	9
38	38	11
45	50	2
28	28	25
74	74	16
72	73	7
74	75	1
61	61	9
49	51	5
70	71	4
35	35	17
27	103	2
58	58	8
67	67	18
62	62	16
44	44	7
100	100	12
87	94	3
21	21	6
36	47	1
46	52	5
78	78	4
29	30	4
20	36	1
77	78	3
77	77	7
45	45	5
84	84	5
104	104	6
54	79	4
99	99	9
100	101	5
50	50	17
68	68	8
37	38	2
47	52	3
68	69	5
87	87	11
101	101	14
91	101	1
95	95	11
79	79	9
60	64	2
85	85	5
30	31	6
81	82	1
51	92	4
59	59	11
58	59	4
81	81	22
26	28	2
26	27	12
51	51	2
54	59	3
61	62	6
90	92	2
60	61	6
92	93	7
94	94	8
90	91	4
71	71	9
74	103	2
54	60	3
102	103	6
84	85	2
49	52	2
78	79	3
40	42	2
49	49	5
60	60	9
38	39	5
60	94	3
42	42	7
56	56	12
84	87	4
88	88	5
58	73	2
82	82	3
95	99	4
37	37	3
102	104	2
75	75	6
79	95	1
102	102	2
29	29	2
91	92	6
39	40	2
22	22	9
65	65	5
83	84	5
106	106	8
41	41	6
54	54	14
91	91	5
53	55	5
80	81	12
93	93	8
20	20	4
40	43	3
105	105	6
75	102	2
23	24	3
63	63	5
56	57	4
62	63	5
54	56	1
63	64	3
101	102	7
33	38	1
26	26	7
25	25	10
101	103	2
36	36	1
24	24	4
70	72	1
52	73	1
73	73	6
31	33	4
40	41	6
56	59	1
61	94	1
25	26	6
85	86	3
62	92	3
31	32	3
89	89	6
57	58	3
98	98	4
71	72	3
24	25	3
72	74	1
72	72	2
48	48	4
30	32	2
104	105	2
52	53	2
22	23	3
27	28	3
37	47	3
63	65	2
86	88	5
37	40	1
54	94	2
25	27	1
56	58	1
40	40	4
35	67	2
32	65	2
61	66	1
82	83	4
27	27	1
76	76	2
50	77	1
64	64	2
25	28	1
53	93	1
61	73	4
55	56	3
37	39	1
97	98	2
86	86	1
95	100	1
71	73	2
64	68	1
80	80	5
46	46	2
30	30	2
33	33	5
62	65	1
61	99	1
96	99	1
64	65	3
81	88	1
85	87	1
35	64	2
103	104	1
76	77	2
96	96	2
70	70	4
73	74	2
56	60	2
65	104	2
94	98	1
29	31	1
73	75	2
100	103	1
53	103	2
59	60	3
39	39	1
45	46	4
105	106	2
58	72	1
75	76	1
33	34	1
24	47	1
43	43	1
79	82	3
41	46	1
65	67	3
30	39	1
53	74	1
36	37	1
98	107	1
83	98	3
94	95	3
24	45	1
78	82	1
48	49	1
62	93	1
63	66	1
94	96	2
88	89	1
87	98	1
45	49	1
85	100	1
93	95	1
23	23	1
81	95	1
83	85	1
48	105	1
61	74	1
79	80	1
78	83	1
