36	37	4
22	122	4
32	32	8
22	22	2
9	9	6
103	103	3
38	38	3
45	45	5
56	57	3
22	23	9
48	48	3
115	115	8
44	44	6
41	46	3
39	69	4
73	73	3
75	75	9
36	50	1
20	130	2
12	13	1
39	39	6
88	88	4
16	19	3
121	144	2
37	37	9
44	45	2
56	81	1
64	64	11
96	96	8
68	128	3
62	123	2
106	107	2
63	64	1
47	47	4
17	18	1
26	26	4
6	22	3
94	110	5
43	43	4
8	9	3
134	134	3
15	16	3
101	102	2
105	105	5
50	58	3
144	144	7
149	149	4
99	100	3
11	13	3
50	50	6
50	82	1
101	101	8
109	116	3
4	4	2
51	51	4
73	135	2
100	101	2
15	15	6
82	82	8
80	82	6
50	71	1
8	8	3
21	24	3
107	109	2
100	100	3
19	120	4
5	5	7
34	41	2
2	27	5
87	88	1
121	150	1
42	43	2
92	97	3
53	53	10
137	137	4
140	140	2
126	126	1
107	107	7
20	25	1
13	13	13
153	153	3
136	137	4
105	154	3
4	14	2
14	14	8
86	90	1
28	29	3
53	64	1
108	110	1
20	24	1
33	34	2
104	136	2
80	80	2
76	86	4
61	61	2
28	123	4
80	131	2
4	22	3
35	35	2
28	30	2
36	36	3
42	42	6
68	74	5
123	127	7
98	99	3
102	110	5
6	7	6
45	46	2
14	23	2
4	21	1
19	19	6
109	109	9
67	84	5
96	132	3
128	129	2
61	84	2
69	69	4
66	68	1
64	131	3
136	136	1
7	8	1
138	138	6
48	73	5
11	12	1
129	130	3
24	25	2
118	119	2
106	118	1
66	66	5
57	58	5
142	142	3
139	139	2
152	152	7
40	67	4
32	36	1
82	88	3
123	124	1
150	151	4
50	64	2
86	86	3
132	134	4
83	84	2
76	76	6
72	84	2
135	135	7
30	31	1
13	64	2
133	133	3
26	27	4
78	84	3
125	128	3
144	145	1
55	147	4
70	70	4
12	12	4
78	79	3
21	21	4
7	22	3
131	132	3
113	115	2
35	36	4
145	146	2
33	51	2
39	45	2
133	135	2
31	31	1
99	99	5
32	35	1
132	136	2
109	114	1
154	154	3
92	93	4
18	18	6
141	141	1
122	138	2
150	150	4
25	32	1
68	69	2
33	33	3
49	49	3
93	93	1
144	148	1
6	24	2
70	135	2
143	146	2
71	73	1
98	136	5
21	26	1
78	95	4
26	32	2
46	47	1
145	145	1
37	38	2
17	17	1
107	118	3
46	46	2
58	147	1
62	124	1
93	94	2
94	95	3
114	114	2
54	54	1
29	30	2
7	51	1
16	149	3
29	125	1
132	132	1
28	28	4
111	111	3
127	128	2
87	87	2
6	27	1
74	74	2
116	116	2
72	72	1
72	73	1
122	122	4
17	19	2
79	82	2
41	41	2
65	65	2
75	76	2
21	23	3
120	122	2
150	154	3
112	112	1
13	15	1
95	95	2
34	34	3
97	135	1
20	150	3
106	106	1
81	81	1
63	78	3
54	65	1
7	32	1
6	28	1
129	129	1
56	56	2
97	133	1
63	71	2
127	127	2
37	45	3
25	25	1
149	151	2
64	126	1
64	124	1
62	62	1
118	118	1
24	24	1
25	122	1
32	34	1
130	132	1
128	128	1
57	57	2
31	51	1
43	44	2
115	116	1
63	70	1
69	98	1
68	68	1
122	145	1
74	136	2
55	63	1
32	37	3
103	106	1
30	54	1
64	68	2
90	96	1
81	83	1
70	71	1
85	85	1
25	27	1
49	129	1
112	113	1
125	125	1
117	118	1
17	53	1
39	40	2
120	149	1
98	126	1
65	98	1
80	85	2
7	7	1
104	104	1
65	133	1
96	97	1
151	152	1
19	98	1
