75	75	8
83	84	3
22	24	2
79	79	8
41	41	8
64	64	1
106	107	3
83	83	5
94	94	2
84	85	5
108	108	6
25	25	3
106	106	6
81	82	5
36	36	2
44	44	7
103	104	3
74	75	5
33	33	4
35	35	3
91	92	1
92	94	5
101	101	8
91	91	5
22	22	7
89	90	3
74	74	7
90	90	5
87	87	4
81	103	6
23	81	2
65	90	4
98	99	11
45	52	1
59	59	8
83	112	1
76	76	4
77	77	8
65	65	4
114	114	5
43	44	1
22	23	1
95	95	6
85	85	5
93	93	1
29	29	8
46	46	4
81	81	4
89	89	4
31	31	4
69	69	4
30	30	7
60	60	3
49	49	1
24	24	7
42	59	2
111	111	7
88	88	10
88	89	1
28	49	2
58	59	3
105	105	12
63	63	3
85	86	5
100	100	14
37	37	10
76	78	5
71	75	1
56	56	4
42	53	1
99	99	5
98	105	2
23	55	2
39	39	1
54	54	2
92	112	3
82	92	1
32	33	1
47	47	2
32	32	6
62	63	9
32	40	3
68	68	1
72	75	1
75	77	3
69	70	2
40	40	1
80	81	1
80	86	2
70	80	2
113	113	1
71	71	4
55	55	4
107	108	1
102	102	9
80	80	3
66	67	4
49	50	4
53	53	2
96	97	6
28	35	2
29	35	3
54	55	3
110	110	2
78	78	4
67	67	2
33	58	1
62	69	1
53	57	1
72	72	4
40	46	1
61	61	1
21	21	7
63	65	1
108	109	2
55	56	2
56	57	1
75	76	1
100	101	2
20	25	1
109	109	5
63	64	1
71	91	2
56	68	1
66	66	2
73	73	6
26	26	6
64	66	3
31	35	1
46	47	2
97	97	2
93	94	2
76	77	2
87	88	4
68	69	1
70	70	1
101	106	1
83	87	2
103	110	1
78	92	2
105	106	3
45	45	1
54	58	1
49	56	1
70	71	2
51	52	1
58	94	1
23	23	2
98	98	1
100	102	2
101	104	2
42	42	4
38	38	1
97	106	1
50	57	1
23	100	3
112	112	4
78	79	4
43	45	1
52	52	1
103	103	1
39	40	1
48	49	1
103	105	2
20	20	1
88	91	1
30	49	1
110	112	1
42	43	1
70	90	1
43	46	1
101	102	1
40	58	2
67	82	1
74	99	1
73	74	1
44	45	2
84	84	1
35	36	1
96	96	1
107	107	1
54	57	1
19	19	1
86	86	1
65	86	1
