37	54	4
33	35	4
40	41	7
54	54	24
53	55	1
8	8	19
41	59	6
36	36	22
53	59	2
21	21	11
0	3	3
48	48	44
45	45	16
52	52	18
37	37	17
7	8	5
58	58	16
34	34	16
46	46	22
15	15	18
50	50	27
19	19	10
39	41	4
6	6	6
31	31	19
53	54	9
20	20	9
15	16	8
38	40	7
33	33	23
4	6	2
16	16	15
59	59	16
56	56	24
47	47	16
51	53	4
50	52	3
57	57	31
45	51	3
39	51	2
23	23	8
49	49	27
43	43	26
30	30	41
38	41	10
11	11	10
21	44	1
61	61	16
7	7	14
47	60	3
31	32	2
45	46	5
4	5	12
10	11	13
10	12	6
3	3	15
38	38	31
54	55	4
21	22	3
51	51	30
24	25	7
39	54	2
59	60	8
34	35	3
9	10	6
18	18	13
5	5	15
21	45	8
32	32	13
20	21	1
44	44	15
40	40	14
38	39	4
32	33	11
30	35	2
35	35	33
37	40	7
44	51	2
9	9	25
43	60	3
42	42	19
11	13	5
4	4	12
39	40	8
37	39	3
49	60	1
25	25	13
56	57	14
1	1	7
30	32	5
55	55	15
49	50	16
36	37	2
0	0	21
6	48	1
60	60	27
48	49	11
19	52	1
55	57	1
22	22	6
55	56	5
45	58	3
26	40	1
37	38	6
3	4	3
41	41	20
1	14	2
21	39	3
39	39	14
62	62	20
33	34	6
47	51	3
17	17	7
12	12	11
14	14	5
50	51	10
13	14	2
56	58	1
30	36	1
2	2	10
61	62	5
50	56	2
13	13	13
5	11	4
46	47	13
22	54	4
58	59	2
10	10	13
3	5	4
45	53	4
6	8	4
16	17	2
31	36	3
20	40	1
44	45	6
12	13	5
40	52	2
42	44	3
52	53	5
19	44	2
30	33	1
24	41	2
26	29	2
0	21	5
52	54	9
49	51	2
30	31	6
21	38	3
0	1	4
47	48	4
1	18	1
6	7	5
18	19	3
7	9	4
14	15	3
24	40	1
53	53	6
46	60	1
51	52	6
42	58	2
39	49	3
0	13	1
23	29	1
22	38	2
18	21	2
2	3	2
42	43	5
56	59	6
6	10	2
11	12	1
44	58	2
36	47	4
19	20	4
49	52	4
43	44	2
0	49	2
9	12	2
8	9	5
24	42	2
60	61	1
1	21	2
0	17	3
40	51	2
41	42	4
24	24	3
55	59	1
44	47	2
20	49	4
45	47	3
19	55	2
22	23	5
30	37	2
57	58	2
5	7	2
42	46	2
41	58	1
44	46	3
51	60	3
42	45	1
39	42	2
24	53	3
20	39	1
46	55	1
18	22	1
37	47	4
20	44	1
45	49	1
14	16	1
39	53	1
29	29	1
44	57	2
19	53	1
21	51	1
40	59	2
41	60	2
32	36	1
18	51	1
35	37	1
37	55	1
23	24	1
52	55	2
1	11	1
42	57	1
2	16	1
42	61	1
10	13	1
37	51	1
13	16	2
50	54	1
21	40	1
1	15	1
1	2	2
35	46	1
55	58	1
