14	32	2
119	119	14
113	113	8
47	47	12
17	17	6
53	53	18
70	70	7
91	91	2
38	38	4
108	108	9
50	50	9
103	103	19
22	22	10
86	87	4
40	40	8
63	63	15
30	30	11
90	90	5
58	58	19
25	25	16
59	60	4
28	28	9
48	48	17
41	41	17
70	71	6
8	8	9
89	89	15
43	43	21
7	7	6
75	76	7
40	41	5
107	107	15
52	52	15
124	125	5
131	132	6
100	101	5
115	123	1
81	81	11
106	106	9
76	76	8
3	34	4
3	33	5
131	131	13
94	95	2
44	44	23
46	63	2
14	14	7
15	15	8
60	60	13
119	120	3
29	30	12
71	71	22
26	26	21
95	120	5
42	42	6
80	80	12
45	45	18
95	95	12
130	131	4
62	64	4
57	93	2
114	116	2
115	115	11
112	113	2
120	121	3
27	27	11
101	101	6
110	110	9
99	100	3
31	32	2
111	113	4
80	83	1
116	117	7
75	75	4
62	84	2
43	44	2
6	6	6
84	85	8
74	74	9
64	64	9
59	59	11
84	84	7
29	29	10
70	89	3
72	72	11
69	76	5
62	62	4
125	125	19
124	124	16
81	115	1
42	43	1
73	74	2
21	21	8
12	12	10
3	32	5
49	50	2
63	85	3
120	120	5
130	130	7
74	80	1
13	81	2
19	56	4
5	5	8
2	2	6
98	98	19
114	114	24
54	54	18
46	47	8
97	98	7
130	132	1
58	59	8
99	99	14
97	97	14
13	13	18
4	4	4
109	110	1
62	63	10
91	93	4
34	34	2
81	114	3
96	96	10
121	121	15
97	117	1
60	61	6
21	22	8
53	54	1
94	125	3
16	16	3
122	122	10
18	18	8
73	73	9
56	56	11
48	49	3
107	108	2
65	65	16
11	29	1
99	116	2
109	109	13
77	79	3
26	28	2
15	17	4
94	113	2
94	130	3
105	106	3
86	86	8
111	111	7
25	44	6
6	7	6
10	11	4
1	1	15
11	11	11
44	45	6
79	82	2
51	51	6
9	10	6
0	1	3
88	88	13
127	128	6
78	78	6
70	88	3
67	68	3
25	27	1
123	125	2
113	114	5
20	20	8
112	112	5
46	46	14
0	0	11
57	57	11
83	83	8
69	69	6
64	65	3
129	129	5
52	53	3
32	32	4
15	16	12
96	119	1
16	33	5
26	27	5
94	94	7
11	12	3
116	116	10
67	67	7
2	58	1
92	92	10
102	103	7
18	21	9
87	87	12
45	47	2
74	75	1
39	39	9
5	6	7
105	107	4
51	52	1
132	132	10
123	123	9
89	90	3
85	85	10
85	86	3
110	111	8
24	24	6
96	130	6
2	5	3
126	126	11
57	65	2
86	88	2
63	67	3
26	44	2
12	70	1
23	24	6
77	77	9
84	113	1
56	57	3
129	130	5
37	38	1
79	79	4
23	25	2
96	120	3
117	117	13
39	62	3
95	121	2
105	105	8
9	9	4
31	31	6
123	124	2
28	40	2
46	53	1
93	94	5
118	118	6
66	66	9
38	39	1
40	62	2
114	117	2
68	68	5
115	116	3
98	99	1
97	129	3
18	68	2
25	26	5
10	10	9
68	94	3
18	43	1
68	69	7
102	102	9
61	82	3
100	100	5
80	90	2
83	84	1
20	65	1
104	104	9
8	31	1
4	5	3
19	20	8
84	88	3
85	90	2
94	131	2
45	63	3
2	34	1
94	122	2
46	48	1
49	49	6
65	66	4
39	41	1
12	13	4
3	3	9
89	91	2
120	123	1
79	81	3
19	25	1
16	19	3
47	49	1
9	58	1
91	92	6
27	28	3
29	31	5
12	14	1
96	118	3
42	102	1
31	41	1
19	27	1
132	133	2
93	93	5
3	4	7
30	32	2
31	89	2
55	55	6
118	119	3
50	51	1
103	104	2
41	42	2
122	123	1
117	118	1
19	19	7
96	97	3
76	110	1
79	80	2
28	46	3
15	19	1
17	18	1
92	93	5
69	70	6
44	47	1
53	120	2
115	127	1
29	58	1
54	55	1
88	89	6
79	98	2
39	40	4
97	99	2
108	109	3
111	112	2
60	83	2
25	133	1
33	33	1
125	126	3
16	17	4
114	115	3
128	129	7
69	85	2
14	15	2
12	80	2
30	40	1
133	133	4
63	84	1
71	72	2
1	5	1
7	54	2
18	45	1
16	31	1
126	128	2
86	112	3
65	67	1
96	98	1
79	117	1
101	102	2
33	34	3
28	29	1
113	118	1
82	105	1
70	72	1
29	32	3
107	112	2
38	62	1
111	114	3
70	76	1
1	2	1
54	61	2
1	39	1
58	105	1
46	65	3
49	121	1
45	65	1
19	21	2
107	111	1
43	65	1
10	91	1
90	91	1
77	78	1
82	82	3
25	43	1
121	122	1
85	87	1
14	92	1
55	56	2
18	19	1
11	59	1
61	61	2
10	92	1
111	117	1
13	14	2
18	44	1
17	67	3
99	129	1
118	120	1
1	7	1
23	26	1
41	63	1
63	64	1
117	121	1
75	101	1
18	42	1
74	77	1
13	90	2
69	84	1
7	8	1
127	127	2
15	24	1
49	56	1
104	105	2
78	79	2
45	46	1
59	62	1
