92	92	4
14	35	2
68	68	7
30	30	4
45	45	7
91	91	5
63	63	3
71	134	1
69	70	4
11	11	12
7	7	2
47	47	6
56	56	3
131	133	1
114	115	4
82	84	7
65	65	4
73	73	4
77	77	8
57	60	1
81	81	7
116	117	5
21	21	3
2	78	1
60	61	1
23	24	1
115	116	1
112	117	2
74	119	4
79	80	2
59	59	2
81	82	4
10	57	2
31	31	2
89	89	3
109	109	1
26	49	1
44	44	10
126	127	3
65	66	3
100	100	4
43	43	2
9	11	2
126	126	4
67	122	1
9	10	7
129	130	1
36	37	1
47	48	2
85	88	2
108	108	3
75	75	3
36	36	4
4	4	2
97	97	6
9	47	2
64	73	1
106	106	1
107	126	2
84	88	2
34	34	4
38	81	1
85	85	2
41	43	2
82	108	2
78	78	1
41	42	1
101	103	2
114	131	3
34	65	2
55	55	4
26	26	6
46	71	2
20	21	2
94	94	1
47	70	1
71	71	1
107	107	1
43	59	4
40	81	1
92	93	1
12	12	6
66	66	2
32	60	3
35	35	2
76	77	2
103	103	1
60	93	4
125	125	3
9	9	1
85	86	2
93	93	3
10	10	3
7	39	1
112	124	1
29	78	1
84	84	1
81	83	1
82	82	1
12	25	1
27	93	1
93	95	4
94	95	3
17	17	1
94	96	1
17	19	1
128	128	1
118	125	1
72	73	3
84	90	1
81	92	1
68	69	3
73	83	2
28	28	1
29	29	3
76	76	1
118	118	1
96	98	3
105	105	2
74	74	1
112	113	2
27	31	2
38	38	1
119	119	1
117	117	2
20	20	2
39	41	1
6	93	3
33	34	1
34	35	2
16	16	1
110	122	3
57	57	1
61	61	3
120	121	2
27	97	2
60	60	4
19	79	1
46	46	1
5	22	2
109	112	1
40	84	1
111	123	1
69	69	3
78	80	2
84	85	2
18	61	1
6	6	1
22	22	2
94	97	1
45	46	2
49	49	3
1	2	1
101	101	1
70	70	1
111	112	1
33	33	1
68	76	1
113	113	4
48	49	2
5	13	2
95	104	1
102	102	4
61	71	1
95	95	3
20	27	1
29	30	1
79	79	2
32	32	1
80	80	3
80	116	1
1	10	1
127	127	1
49	50	1
87	87	1
10	37	1
113	128	1
73	112	1
39	39	1
67	68	1
113	117	1
48	48	1
129	129	1
5	5	1
27	27	1
47	61	1
99	99	2
42	42	1
83	83	1
91	93	1
8	8	1
64	64	1
98	98	1
84	108	1
102	107	1
6	7	1
49	100	1
4	93	1
122	123	1
124	125	1
78	79	1
87	89	1
