8	8	44
8	9	6
4	5	11
5	5	26
35	35	20
25	25	17
38	39	15
33	61	3
43	43	59
5	6	14
70	70	19
19	20	14
37	37	16
9	9	65
73	73	26
46	46	46
64	64	5
72	74	1
13	13	20
33	33	34
30	30	23
23	48	1
34	35	3
47	47	31
12	12	36
76	77	5
2	2	60
19	19	23
45	45	58
29	29	20
76	76	16
29	30	6
44	44	21
40	43	5
55	55	29
18	19	13
5	7	6
41	41	15
33	34	15
6	6	22
39	39	15
54	54	30
63	63	21
13	14	2
69	69	16
3	65	1
35	51	4
68	70	3
25	27	4
59	59	14
48	50	6
52	52	18
34	34	23
71	71	28
45	46	12
49	51	4
63	64	3
20	21	20
3	3	35
48	48	28
26	29	10
62	63	9
67	69	2
27	27	8
42	43	12
11	11	28
40	40	26
8	10	7
7	8	21
0	0	6
59	60	11
57	57	30
72	72	16
36	36	12
22	22	38
37	38	14
62	64	7
45	47	2
49	64	1
43	44	10
6	61	2
49	49	11
21	21	47
6	13	5
1	1	17
41	42	20
20	20	39
70	71	18
69	70	6
28	28	30
24	25	4
26	37	3
30	31	10
24	24	32
60	60	63
70	73	4
53	53	23
4	4	69
68	68	15
22	23	9
3	6	4
43	60	1
49	50	16
73	74	5
68	71	3
41	51	4
20	34	2
23	24	17
61	62	13
10	11	13
29	31	6
6	7	12
35	36	8
23	23	20
61	61	31
63	66	4
53	54	5
3	7	5
24	26	8
35	58	4
44	49	3
28	45	5
40	53	4
42	42	28
39	40	4
47	51	5
11	12	9
66	66	20
31	32	15
66	67	11
72	73	18
51	51	17
38	38	13
46	54	1
2	6	6
1	2	5
66	68	2
56	60	4
25	40	2
62	62	19
24	42	1
27	29	6
3	4	13
10	10	36
55	56	11
42	74	2
31	31	11
14	14	6
67	67	34
24	41	2
18	18	12
9	10	18
61	68	5
32	32	19
74	75	7
43	46	3
41	43	7
35	37	5
47	50	2
77	77	21
48	68	5
51	52	6
0	33	1
58	59	13
32	33	6
5	54	4
54	56	5
52	55	12
40	41	2
52	54	2
52	64	5
65	65	16
25	26	9
26	26	14
65	66	10
75	75	10
21	22	9
31	34	4
56	59	2
31	40	3
6	9	3
75	77	1
35	42	2
56	56	14
21	24	2
68	69	2
71	72	9
39	45	2
43	66	1
7	7	14
63	68	1
9	11	6
4	10	2
58	62	3
28	30	1
51	53	8
71	73	4
53	57	5
51	68	1
0	2	5
60	61	8
58	58	15
74	74	14
32	34	6
26	54	4
0	1	8
2	5	1
39	57	2
59	61	3
44	45	6
2	3	6
15	15	1
67	68	11
43	54	4
24	29	1
29	38	2
50	69	2
71	74	4
4	6	1
13	21	3
55	67	2
31	52	1
11	60	1
28	35	3
64	71	3
39	50	2
24	33	1
68	73	1
59	62	1
64	66	4
50	50	10
48	72	2
36	37	1
40	49	1
35	38	3
68	72	5
48	49	5
33	43	3
14	67	2
59	63	1
47	48	6
34	36	3
34	37	5
62	76	4
46	47	6
38	43	2
21	34	1
25	28	4
75	76	11
63	75	3
54	55	8
72	75	5
64	67	3
22	29	1
29	49	2
2	59	4
35	39	3
43	67	2
29	74	2
29	32	2
5	55	2
7	33	1
26	28	6
39	41	3
7	9	4
2	8	2
57	58	5
40	69	1
43	48	2
26	27	3
37	42	1
49	70	3
51	54	1
32	45	3
12	13	9
33	47	2
37	41	3
56	57	5
12	20	5
36	38	4
22	24	2
32	62	2
0	6	1
11	54	1
33	37	2
42	72	2
14	15	3
28	44	3
22	60	4
42	48	1
27	28	5
8	59	1
49	72	2
37	64	2
31	57	1
12	44	1
36	48	1
7	56	2
27	48	2
69	71	3
32	56	2
54	67	1
28	33	1
26	35	3
32	35	2
3	11	1
34	42	2
33	54	1
20	22	1
64	65	2
55	66	2
53	59	1
67	70	2
57	65	5
74	77	3
21	43	2
44	51	1
29	34	2
57	59	4
50	51	3
33	55	2
46	48	2
30	49	1
8	47	3
23	33	1
29	54	1
33	38	1
3	18	1
62	69	1
51	67	1
20	43	2
52	53	1
13	37	1
29	43	1
4	38	1
54	57	2
1	3	2
29	64	1
70	74	1
3	9	3
32	36	1
21	23	1
29	53	1
10	33	1
2	4	1
65	67	1
55	65	2
50	72	2
66	70	3
50	53	1
45	61	1
22	61	1
23	26	2
60	66	1
31	53	1
4	64	2
23	29	1
4	8	1
69	72	2
39	42	1
41	73	1
25	34	1
61	65	1
46	57	1
35	41	1
25	44	1
24	28	1
