139	139	15
90	90	7
28	28	14
114	114	11
106	106	8
119	119	6
107	107	5
7	8	8
91	95	2
130	130	25
121	122	8
77	77	4
26	26	8
140	141	2
19	19	10
105	107	9
93	93	1
110	110	10
131	131	23
124	124	20
20	20	9
140	140	12
36	36	9
26	27	3
34	34	9
22	22	4
10	10	6
126	126	18
132	132	18
86	87	4
0	19	2
123	123	5
31	31	3
122	122	14
17	17	12
11	12	1
121	121	10
12	12	3
25	25	8
76	76	10
27	28	3
104	104	9
119	120	2
135	135	10
81	83	5
3	33	2
90	91	2
88	91	1
13	14	10
84	107	2
7	12	2
0	0	11
105	105	4
109	126	2
88	88	9
118	119	7
25	26	12
97	98	5
91	91	6
115	121	4
14	14	8
24	24	13
125	126	8
136	136	6
3	4	4
105	113	7
18	18	7
117	117	18
6	6	14
100	100	7
78	117	6
1	5	2
129	129	18
94	94	18
82	84	2
85	116	2
7	7	14
103	103	10
137	138	2
13	32	8
87	87	10
80	80	12
112	112	12
118	118	13
73	78	3
89	90	3
134	134	9
111	112	4
13	13	13
23	23	13
9	11	4
84	106	3
137	137	6
74	74	9
28	29	3
113	119	1
101	101	6
132	133	2
107	128	1
35	35	9
97	97	10
2	23	4
128	128	14
32	32	6
126	139	3
108	109	1
127	127	12
33	33	18
30	30	5
37	37	7
93	94	3
130	131	1
106	107	3
18	19	1
96	96	7
1	22	1
7	9	2
21	22	14
1	15	2
98	98	17
111	111	6
134	135	5
89	89	13
38	38	2
138	138	14
4	37	3
29	30	4
23	30	7
74	116	3
126	127	3
116	122	1
120	125	1
2	3	7
73	76	1
0	4	3
30	31	6
23	24	5
75	75	11
80	112	3
120	122	4
104	106	1
113	113	10
99	99	11
11	11	7
115	115	10
125	128	3
135	137	3
87	88	2
95	134	2
84	84	7
95	96	1
4	6	2
4	4	10
6	111	3
81	120	2
81	81	7
121	123	3
1	2	8
71	72	5
86	86	5
126	137	1
103	104	5
125	125	12
29	36	2
1	1	9
31	32	9
83	116	2
74	81	3
8	8	8
83	83	18
20	25	5
2	2	10
133	133	10
19	22	3
102	103	7
14	16	2
73	73	8
95	95	1
71	71	12
16	16	12
119	123	1
101	102	9
9	23	3
5	5	5
3	15	1
19	32	5
103	118	3
78	92	3
114	119	4
5	15	1
78	78	8
23	31	3
81	104	1
0	7	2
120	120	3
120	121	2
128	129	8
113	114	2
122	123	5
79	79	5
74	122	3
37	38	1
102	102	8
12	27	3
82	82	3
21	21	3
92	117	3
116	116	12
115	123	1
124	134	1
33	34	3
108	119	3
82	83	8
81	85	3
124	125	3
133	136	1
17	30	3
8	23	3
139	140	2
87	103	3
109	109	4
79	114	3
135	138	1
16	36	2
10	12	3
86	104	3
3	5	1
22	23	3
118	121	2
94	109	3
95	101	1
98	133	1
34	35	10
19	20	5
91	124	2
20	21	1
112	113	1
110	111	6
79	88	2
0	1	2
133	134	5
96	97	5
13	27	2
35	36	3
121	125	3
29	29	3
74	123	1
108	111	4
114	120	3
82	105	1
27	27	11
107	108	2
129	130	2
71	108	1
5	6	1
87	104	2
95	100	1
131	132	2
15	15	6
4	5	3
107	116	1
4	15	1
78	79	4
77	92	1
124	132	3
74	82	2
92	92	4
85	85	4
75	104	1
109	110	1
111	134	1
92	107	1
91	125	2
108	138	1
16	32	1
10	24	1
73	74	3
78	93	1
90	124	4
80	84	1
85	86	2
72	72	4
8	9	6
94	95	1
3	19	1
88	100	1
116	119	1
9	9	1
80	113	1
23	26	1
95	99	2
22	24	2
16	17	1
130	135	2
89	116	2
75	76	4
6	7	2
95	110	2
83	84	1
71	109	1
7	15	1
75	116	1
95	124	1
132	139	4
16	24	1
3	104	2
81	82	2
27	29	1
71	79	1
94	129	1
123	124	4
125	136	2
13	16	1
79	82	1
75	77	2
87	105	2
92	128	2
3	3	1
103	116	1
8	11	2
27	31	2
124	130	1
5	33	1
107	112	2
10	14	1
74	76	1
109	121	2
80	101	2
106	108	1
29	31	1
101	117	1
90	102	1
109	111	2
0	24	1
98	99	2
128	133	3
95	97	2
36	37	2
91	92	1
114	115	1
83	85	1
109	118	1
136	137	1
15	28	1
127	137	1
80	116	2
92	93	3
17	29	1
0	18	1
106	119	1
75	91	1
21	29	1
80	111	1
30	38	1
127	130	1
14	32	1
18	24	1
71	87	1
108	117	1
0	5	1
