77	83	6
72	136	3
24	24	18
48	95	2
35	35	7
125	125	14
82	82	5
89	89	7
104	104	14
47	47	11
131	131	11
110	110	7
18	18	24
35	36	7
65	66	7
113	113	9
117	117	4
188	188	7
87	120	5
23	24	10
118	125	4
154	154	23
122	122	16
172	172	3
170	170	10
75	76	3
57	57	7
77	77	14
67	68	11
16	16	19
13	14	5
40	40	5
119	119	5
128	129	6
134	134	5
2	2	11
142	142	4
37	37	7
98	98	3
187	188	4
153	160	2
31	31	6
151	151	12
135	135	7
176	176	6
10	11	3
83	86	4
123	128	1
95	95	20
174	174	2
160	160	9
93	93	14
15	15	15
105	134	2
102	103	7
82	83	5
155	171	4
78	78	11
68	68	8
145	145	11
46	47	5
156	156	9
90	90	10
11	11	10
13	13	10
102	102	6
127	127	12
72	74	1
76	76	9
42	43	10
29	29	14
44	45	4
166	168	2
124	125	3
6	6	11
26	26	8
69	70	1
25	25	11
84	84	16
59	60	1
76	103	1
15	16	9
99	99	17
44	44	18
133	133	6
121	121	8
61	61	5
13	19	1
53	66	2
87	87	11
100	100	11
88	89	5
39	39	8
23	23	8
112	112	8
150	152	2
1	2	2
189	189	5
33	34	8
21	21	9
30	41	3
114	114	10
83	83	5
149	149	5
164	167	1
150	150	8
143	143	6
79	79	13
10	22	2
108	108	3
174	175	2
41	41	7
107	107	6
3	3	3
55	55	3
167	170	3
115	115	10
38	38	6
164	165	2
63	63	5
93	94	5
153	154	9
10	10	5
145	148	7
152	152	14
169	169	8
168	168	7
103	106	4
101	104	2
122	123	2
34	59	1
131	132	1
45	45	3
137	138	3
13	144	1
129	129	15
136	136	7
39	40	7
101	101	3
13	25	2
163	163	9
0	0	10
28	28	5
37	38	5
155	155	9
42	42	12
14	14	8
21	137	2
4	6	2
68	113	4
33	33	6
9	12	2
74	74	13
21	116	2
82	84	7
7	8	1
78	83	4
10	29	3
186	186	3
126	188	1
12	12	12
127	128	2
184	184	3
139	139	6
103	103	7
43	43	4
111	111	7
96	101	2
144	144	4
123	123	3
25	26	5
142	143	6
130	131	3
41	43	1
161	162	2
115	116	2
85	85	11
81	83	4
175	176	2
106	106	8
91	91	11
56	57	9
130	143	3
66	66	2
179	179	7
31	150	1
1	1	11
73	73	4
77	78	3
85	86	2
19	20	5
148	148	19
73	74	5
48	48	9
181	181	2
27	27	3
59	59	4
96	96	8
173	173	5
129	130	2
128	128	3
21	22	3
162	182	2
72	72	7
177	177	7
19	19	4
171	171	6
109	113	1
120	120	10
8	8	4
113	115	3
121	122	6
116	116	7
138	138	8
142	153	2
32	33	8
64	64	5
146	146	3
15	19	1
123	124	2
56	56	5
83	84	3
147	161	3
102	120	1
7	7	9
79	121	1
16	17	3
132	133	1
105	105	5
141	142	6
75	75	4
183	183	8
34	34	5
113	114	7
80	80	6
164	168	7
159	159	9
168	188	2
147	147	6
166	166	3
130	130	7
13	15	6
140	140	1
88	88	6
107	109	2
116	117	3
61	63	5
109	109	3
120	121	1
125	128	2
78	79	4
148	164	1
55	56	2
53	53	9
24	46	3
71	72	1
135	142	2
62	63	2
186	189	3
103	110	1
145	146	2
142	167	2
96	114	2
187	187	6
114	115	5
17	83	1
125	134	3
169	184	1
71	71	2
20	20	4
90	91	1
124	124	4
67	67	1
182	183	4
54	54	5
92	92	2
81	81	6
167	167	6
60	60	8
121	123	1
99	101	2
142	151	2
36	36	3
153	153	8
11	12	1
111	124	2
119	120	4
76	112	1
140	141	1
18	25	1
84	119	1
32	35	1
96	97	1
79	80	2
36	37	1
83	87	3
97	97	5
152	166	2
126	126	4
166	169	1
14	155	1
63	64	2
155	188	1
155	165	1
136	143	5
31	55	1
154	177	2
16	86	2
81	94	1
45	46	3
125	126	7
24	26	3
72	73	2
164	164	5
90	110	2
134	141	1
138	139	5
126	127	1
89	93	4
16	22	2
92	97	1
112	114	1
125	127	1
104	105	4
74	75	1
62	102	1
188	189	2
56	76	1
52	53	2
32	32	3
22	22	11
46	46	7
34	54	3
114	120	1
6	42	3
32	64	1
18	189	1
0	3	1
103	123	1
6	7	3
89	90	3
162	162	3
95	98	2
17	17	9
86	86	2
76	79	1
94	94	5
150	155	2
148	165	2
136	146	1
148	149	3
62	62	2
161	167	1
22	25	2
4	4	2
135	137	1
16	29	2
12	19	4
115	119	3
118	118	5
80	115	2
182	182	3
162	183	1
92	93	6
141	141	5
99	162	1
185	185	6
95	148	1
165	165	3
101	103	3
63	66	1
76	77	2
41	95	3
33	67	2
65	67	2
106	107	1
8	39	1
14	15	1
157	158	1
82	105	1
106	108	1
98	99	2
108	109	2
24	25	3
138	144	4
48	49	2
76	107	1
81	93	2
30	31	1
100	101	1
126	130	2
170	178	2
31	32	2
60	114	1
157	157	5
172	173	3
103	104	2
58	59	1
149	150	2
57	58	1
54	55	1
36	41	2
83	95	2
158	159	1
152	153	1
9	9	1
143	144	1
168	169	1
69	69	3
17	19	1
11	13	1
86	116	1
32	34	2
61	62	1
122	127	1
9	10	1
53	54	2
21	23	2
109	110	1
95	96	2
154	186	1
169	170	2
81	86	1
98	164	1
85	87	1
190	190	1
161	161	1
180	180	1
48	68	1
44	48	1
82	142	1
150	151	1
183	184	2
146	147	1
113	116	1
47	48	1
151	155	1
58	58	1
186	187	1
28	151	1
4	8	1
70	71	1
49	49	1
22	28	1
134	135	1
86	102	1
122	130	1
158	161	2
147	148	1
26	57	1
17	38	1
59	62	1
32	37	1
11	90	2
189	190	1
131	134	1
132	132	1
151	152	1
84	88	1
173	174	1
70	70	1
