88	88	19
27	40	2
47	47	12
124	126	4
85	87	6
36	41	2
119	120	24
93	93	17
97	97	11
158	158	7
3	5	2
42	42	7
82	82	17
154	154	18
140	141	8
21	22	12
117	117	11
8	25	1
20	25	2
15	16	4
112	112	12
33	33	7
63	63	10
115	115	12
14	38	4
8	10	4
79	80	4
22	22	13
103	103	10
8	8	21
65	65	10
139	139	14
29	29	14
80	81	2
117	118	4
89	89	13
99	99	15
9	10	2
19	19	10
155	157	2
121	121	28
81	81	15
49	49	8
87	87	18
141	147	7
21	21	36
124	125	15
15	15	21
14	14	10
55	55	27
109	116	2
31	32	2
56	56	8
109	110	9
78	78	16
131	131	18
122	123	4
22	23	6
150	150	11
2	2	10
55	56	3
110	110	14
77	77	21
47	55	6
20	20	16
5	6	2
49	53	3
85	85	9
144	144	11
48	95	4
44	44	17
156	157	2
104	104	13
138	138	25
133	133	22
30	30	14
107	108	5
122	122	14
63	69	3
26	28	2
20	22	1
116	116	14
7	7	17
90	90	10
50	51	8
141	141	11
115	116	5
40	40	6
80	87	2
69	69	10
124	152	2
48	48	16
92	92	7
71	71	6
124	154	4
6	6	8
94	94	23
52	52	18
7	64	1
24	24	12
27	27	23
153	154	3
127	127	10
117	120	2
7	106	1
148	149	5
31	62	4
109	109	10
108	108	9
152	153	8
12	12	11
106	106	9
118	119	5
17	17	5
139	140	2
144	145	5
48	51	3
24	26	2
27	31	5
16	16	6
138	143	2
142	143	3
37	38	4
53	54	6
41	41	16
137	144	9
40	41	4
8	9	3
18	18	11
53	53	16
45	46	9
66	66	6
118	118	8
64	64	11
63	64	5
4	4	10
119	119	11
67	70	3
34	37	3
136	137	4
96	96	11
90	91	1
9	157	3
95	95	10
7	85	2
49	52	2
145	146	6
111	111	11
140	142	3
33	34	12
156	156	1
127	151	3
91	91	17
11	13	5
36	36	23
102	102	4
142	142	6
38	39	5
69	70	6
104	107	8
23	23	8
151	151	6
41	42	1
20	21	8
140	140	13
113	113	11
36	38	4
75	80	7
86	86	15
138	139	3
67	67	17
35	35	15
39	39	10
47	48	1
43	43	19
13	13	26
0	0	15
125	125	12
158	159	1
34	34	12
26	26	18
84	87	3
11	11	13
101	101	26
19	20	7
73	73	12
134	134	13
105	105	17
28	28	11
128	128	15
71	72	1
52	54	2
87	88	5
35	36	4
94	114	7
45	45	10
25	25	15
123	123	20
80	80	16
143	143	7
103	123	1
16	17	1
49	50	4
28	29	2
12	13	6
136	136	9
3	3	13
39	40	2
1	2	3
114	115	9
123	124	7
27	28	4
149	149	8
123	126	4
136	145	1
92	93	3
135	135	9
37	37	19
150	155	2
148	148	16
33	39	4
25	28	1
123	142	1
134	135	1
108	111	5
132	132	6
79	79	11
56	96	8
9	9	7
63	118	3
104	108	1
17	19	4
98	98	11
120	120	14
46	46	11
66	70	1
112	145	2
150	156	4
126	127	8
129	129	12
75	75	13
133	157	1
125	126	2
54	55	11
10	11	1
25	26	1
24	73	2
131	132	5
121	138	1
157	158	4
1	1	15
68	68	3
111	112	9
87	108	2
24	25	7
111	113	6
37	39	3
83	84	11
104	105	6
90	112	1
31	41	2
5	5	5
126	126	15
7	28	1
56	83	6
31	31	9
57	57	4
82	87	2
42	136	3
50	50	14
100	100	7
142	147	5
51	51	5
109	147	2
5	46	1
78	80	4
85	93	1
131	133	6
146	146	5
150	151	7
115	119	1
76	76	2
18	50	2
23	77	5
6	7	1
126	142	2
126	153	2
7	8	7
35	55	2
107	107	10
64	65	2
147	147	15
46	47	1
106	107	8
104	114	3
32	36	1
28	67	2
137	139	8
78	86	5
24	65	2
70	70	6
10	10	6
20	35	2
117	141	1
79	82	2
13	14	7
88	89	5
11	55	2
44	47	1
124	124	8
45	92	5
145	153	1
87	127	1
26	32	1
47	49	1
129	130	4
34	89	3
130	130	1
89	108	4
157	157	6
31	42	6
8	31	2
11	12	2
28	30	3
43	44	1
148	151	1
92	97	2
128	129	2
78	88	1
0	5	1
45	47	5
83	83	2
21	35	2
152	154	2
31	34	5
32	33	5
92	94	2
127	153	3
67	71	1
38	38	4
30	31	7
76	77	1
112	113	6
29	36	1
25	100	2
52	53	8
127	154	3
78	104	3
136	146	3
68	69	4
42	67	1
70	71	2
18	19	1
49	108	4
146	147	3
50	68	2
64	70	3
17	18	6
51	55	1
155	155	6
105	106	3
97	98	2
77	79	1
155	156	4
115	140	2
72	72	6
132	134	3
103	106	3
3	4	2
52	57	2
57	62	2
54	54	5
32	32	10
114	114	11
78	79	2
81	82	6
37	42	3
108	110	2
101	102	2
16	50	1
107	109	5
154	156	2
147	152	1
17	37	5
154	155	3
56	68	2
135	136	3
145	147	1
55	70	2
151	152	1
45	93	2
62	62	4
7	39	1
145	145	5
113	148	3
77	86	1
28	135	2
18	20	3
64	97	1
84	84	6
27	34	1
48	72	1
35	40	1
108	109	3
93	94	5
7	54	1
23	24	3
112	115	2
76	83	1
86	87	3
28	156	2
16	18	5
95	96	4
149	152	1
48	67	1
29	72	2
112	118	1
67	68	3
9	32	2
135	139	1
51	54	2
147	148	4
3	10	1
74	74	3
2	5	2
9	11	2
57	70	2
36	37	2
120	121	1
90	120	3
47	50	1
135	148	1
137	137	3
108	118	1
68	97	1
87	94	1
13	66	1
28	138	1
106	113	1
19	22	2
61	70	1
79	81	1
98	99	2
37	40	1
85	126	1
51	52	1
32	38	1
110	114	3
120	122	1
85	86	2
103	104	2
11	44	3
8	11	3
99	100	3
141	142	1
11	108	2
13	15	2
56	57	2
3	63	3
57	67	1
114	125	1
112	119	2
49	67	1
67	69	1
26	29	1
10	14	6
89	97	1
153	153	1
28	51	1
43	109	1
92	112	1
102	103	2
41	71	1
37	51	1
119	121	1
36	42	2
114	142	1
134	137	1
136	138	3
132	133	3
72	90	1
18	22	2
94	136	1
36	44	1
135	138	1
150	158	1
7	38	1
40	42	2
30	40	1
27	86	1
151	153	1
39	41	4
133	153	1
4	32	2
7	31	1
106	108	1
116	140	1
135	137	2
120	144	1
126	154	1
40	43	2
116	117	2
137	138	2
83	123	1
48	49	1
11	39	1
69	71	1
111	115	2
79	88	2
42	46	2
142	148	1
78	89	2
7	43	1
54	84	1
8	53	1
122	142	1
112	144	1
79	105	1
86	124	1
27	32	1
113	114	1
72	73	1
87	95	1
28	50	1
127	128	1
94	110	1
96	104	1
27	38	2
100	101	1
91	92	1
26	31	1
