113	113	9
58	59	7
14	16	1
34	38	1
52	52	9
47	47	11
12	52	7
127	127	6
65	66	4
77	77	9
94	94	7
113	114	5
16	17	9
18	18	9
54	54	12
126	126	13
102	103	9
102	102	12
62	62	7
115	129	3
108	108	12
122	122	13
71	92	2
67	67	10
88	88	4
131	131	12
114	114	15
7	7	13
54	72	1
117	130	4
16	16	13
71	71	10
22	22	10
81	81	12
18	21	5
88	91	4
88	89	5
118	119	3
95	95	14
132	133	3
29	30	6
8	8	14
101	101	5
115	120	2
92	92	23
44	61	2
121	121	18
97	97	12
3	3	12
46	48	1
12	12	15
95	96	1
90	90	8
41	42	20
51	51	17
63	63	14
25	25	6
111	111	15
117	117	11
115	130	4
103	103	20
66	69	1
73	73	6
28	29	6
38	38	12
112	112	11
132	132	5
129	129	6
118	118	13
102	104	4
33	33	12
96	96	9
124	124	11
21	22	4
107	107	10
43	44	8
59	59	9
82	82	9
78	78	9
109	109	10
14	14	18
19	21	2
13	18	3
87	87	12
1	1	15
70	70	5
39	39	13
55	55	21
75	75	2
30	30	7
73	118	2
34	34	5
89	89	15
0	0	11
100	100	4
5	74	1
43	45	6
27	27	16
116	116	13
43	43	11
84	88	1
130	130	13
48	49	2
44	44	14
125	125	8
62	63	5
85	89	1
46	47	12
21	21	8
89	90	5
66	67	5
108	117	7
45	45	5
109	110	5
45	46	8
102	127	7
60	62	1
15	16	1
115	115	4
46	46	8
85	85	9
118	130	8
23	23	6
80	87	3
51	52	4
29	29	7
33	45	1
79	79	10
24	62	1
28	28	2
110	110	11
98	98	15
106	107	3
89	92	2
26	26	12
72	75	3
53	53	19
91	92	3
30	69	2
42	72	1
119	119	10
74	74	10
18	63	3
39	41	4
65	65	7
19	20	5
76	76	7
115	116	3
50	50	10
125	126	7
6	6	9
80	80	9
90	91	5
49	50	2
100	101	5
81	82	1
11	71	1
0	117	3
20	20	5
22	29	5
119	120	3
20	21	2
81	87	3
50	51	6
84	85	7
94	95	6
128	130	2
39	69	1
121	122	2
44	129	2
48	86	5
71	72	2
47	48	5
66	66	10
113	130	1
91	91	13
78	79	1
22	23	3
13	14	3
127	128	4
5	5	6
119	129	6
2	2	14
27	62	3
33	43	6
32	32	8
92	96	4
42	43	8
11	12	4
69	69	10
74	79	2
62	69	1
13	74	1
41	43	2
13	13	9
8	34	3
104	104	10
10	10	1
124	125	8
108	112	3
103	114	2
74	123	2
44	45	7
14	15	10
60	60	6
123	123	7
4	6	4
24	28	2
58	66	1
89	94	1
65	67	6
106	129	3
10	11	1
85	86	3
83	85	5
107	108	1
73	107	2
72	72	6
84	86	4
54	76	2
64	64	3
25	26	3
60	61	2
13	58	1
96	97	6
6	56	3
40	42	3
61	63	2
128	129	6
38	42	1
30	54	1
100	118	1
30	31	2
40	40	12
44	62	3
49	49	4
120	120	6
52	53	6
107	109	3
58	68	3
99	103	2
56	56	6
32	33	5
13	59	3
117	125	4
24	24	7
22	24	3
56	64	3
43	49	1
9	9	3
83	83	7
117	127	3
12	51	3
108	109	3
48	48	2
52	85	3
19	19	3
0	1	1
61	61	6
34	43	2
103	126	1
29	99	2
8	9	3
26	27	1
126	127	9
128	128	3
43	74	2
80	81	4
20	71	3
99	99	4
50	56	3
43	132	2
86	88	4
99	100	3
4	5	3
50	53	2
73	74	2
70	71	1
58	58	10
7	8	2
126	130	1
71	118	1
120	121	1
41	41	13
96	98	1
75	83	1
114	130	3
72	73	2
86	86	5
57	57	3
53	57	2
97	103	1
83	87	2
15	15	6
11	11	9
105	107	2
64	65	3
63	64	2
71	74	1
1	2	1
127	129	1
14	58	1
49	85	2
79	80	2
19	64	3
6	49	1
68	68	5
126	128	1
17	18	4
118	120	2
55	56	2
54	56	5
11	13	1
31	31	4
118	129	1
13	16	1
17	17	2
31	32	6
83	84	4
51	88	1
121	123	1
105	105	2
7	15	1
42	44	1
123	124	1
106	128	2
21	23	2
38	39	8
106	106	2
120	128	2
129	130	5
50	82	1
98	100	2
104	105	2
27	29	2
27	70	1
4	55	1
103	127	2
29	69	2
33	41	1
97	99	1
84	84	5
70	118	4
114	115	3
41	73	3
7	14	1
131	132	3
23	62	1
47	94	2
42	45	1
15	25	3
68	69	1
77	78	4
97	98	1
59	63	1
44	72	4
86	87	1
120	129	3
10	73	2
57	58	1
79	82	1
18	24	1
107	117	1
28	52	1
1	93	1
25	64	1
122	124	1
39	40	2
40	41	4
114	116	1
74	75	1
83	88	2
81	83	1
33	52	2
52	88	2
93	93	3
65	84	1
105	106	2
58	62	2
117	118	1
87	88	2
12	54	1
59	74	1
6	7	2
39	86	1
48	71	1
101	120	1
124	128	2
114	127	1
7	56	1
125	127	1
97	100	2
133	133	1
55	72	1
117	131	1
1	118	1
41	93	1
42	75	1
59	60	2
101	102	1
69	88	1
116	117	1
117	129	1
104	130	1
4	4	1
114	118	1
78	86	1
15	51	1
28	67	1
9	10	1
111	112	1
27	52	1
122	123	1
