52	52	8
110	110	28
95	95	12
24	25	11
23	23	9
20	48	3
72	72	11
49	49	26
27	27	18
44	44	6
113	113	16
102	102	15
104	106	12
108	109	4
21	21	9
68	83	4
20	20	12
45	45	7
94	95	7
37	37	13
43	43	13
82	82	16
74	75	2
85	86	2
83	84	6
108	108	23
76	76	4
105	105	9
77	77	10
23	38	4
48	48	5
64	65	1
87	89	1
103	106	6
109	110	5
29	29	8
100	101	7
107	108	6
21	34	3
71	73	4
89	89	9
107	107	18
28	28	12
96	96	12
55	55	13
60	61	4
23	46	3
26	32	3
82	84	8
99	100	8
100	100	5
23	40	5
98	98	11
98	103	8
89	101	2
65	66	9
106	106	8
87	88	5
25	25	13
75	75	5
88	88	5
102	103	6
80	80	6
97	98	10
48	49	14
66	89	2
27	29	1
54	54	6
72	76	2
24	24	4
73	73	8
114	114	17
103	104	3
72	75	6
53	53	4
92	94	1
66	66	6
52	54	2
95	101	2
79	79	9
85	92	3
71	71	12
95	96	2
93	94	8
20	21	5
26	35	2
91	91	6
47	47	10
92	92	8
34	35	13
32	32	12
62	78	2
88	90	4
86	86	7
70	70	2
47	48	9
50	51	14
76	77	2
67	67	13
63	64	3
39	39	9
32	34	8
65	67	10
41	61	5
84	84	8
59	59	9
78	78	11
90	90	6
105	106	6
46	46	6
69	69	8
102	106	1
64	64	2
30	30	9
72	100	3
26	36	2
67	109	1
58	58	17
22	23	3
21	22	5
66	87	3
20	47	2
19	19	2
36	36	6
51	51	14
111	111	14
53	54	2
90	103	5
77	104	1
41	44	3
23	24	3
31	31	4
23	25	4
21	46	2
37	38	6
27	28	8
61	61	6
106	107	3
26	29	8
74	80	3
65	65	10
35	35	5
74	74	15
71	72	3
94	94	12
60	60	10
82	85	4
97	97	9
49	50	4
65	70	3
82	93	7
84	85	6
20	90	1
85	85	8
30	31	4
86	87	6
105	107	1
96	99	8
78	80	1
67	68	1
84	93	3
62	62	4
71	93	2
33	35	2
61	62	3
91	93	4
62	65	3
40	41	4
37	72	3
70	71	3
29	46	4
66	69	2
87	87	4
110	111	3
111	113	4
22	37	1
66	68	2
83	83	12
75	100	3
22	87	1
45	46	1
103	107	5
38	38	11
68	69	4
110	113	3
41	41	9
115	115	3
81	81	10
57	61	2
62	63	3
43	49	2
37	39	6
33	33	4
75	78	3
101	101	6
68	68	4
82	83	5
82	95	5
38	39	9
89	93	3
66	67	2
83	92	2
112	112	7
28	29	3
99	99	8
96	97	4
26	27	3
34	36	2
30	33	1
22	22	2
104	104	8
32	35	2
63	63	4
51	60	1
74	81	2
71	92	2
86	88	3
77	79	1
42	45	1
89	90	4
23	31	1
32	33	2
64	71	1
41	42	3
81	83	3
24	32	4
98	99	2
73	75	2
35	36	1
71	107	2
74	78	4
90	91	2
21	36	2
50	50	4
67	69	4
22	38	1
104	107	5
29	32	1
21	37	1
56	56	2
51	62	4
39	63	1
30	35	4
62	68	2
59	68	4
64	68	1
69	70	9
43	44	4
73	84	2
33	34	4
52	59	1
71	75	1
25	27	1
73	76	2
98	102	5
55	65	1
22	36	1
103	103	5
58	59	2
32	36	2
83	85	3
68	87	2
111	112	3
113	114	2
70	100	2
40	58	1
78	88	1
28	30	1
60	65	1
64	70	4
55	59	1
77	78	5
103	108	2
83	93	1
26	26	3
25	26	1
76	104	1
100	102	1
67	70	1
19	28	1
28	31	1
27	33	2
72	78	2
76	79	1
50	52	1
109	109	3
63	70	4
61	70	1
36	37	3
75	77	1
85	87	2
69	71	1
79	81	1
50	61	2
89	91	4
67	71	1
82	99	2
92	93	3
19	20	1
62	69	1
41	43	1
40	40	4
19	47	1
82	94	1
57	57	1
22	40	2
79	83	1
51	65	1
71	78	1
91	102	1
59	76	1
88	101	1
101	102	1
98	101	1
49	60	1
93	93	1
27	30	1
37	42	1
