6	9	3
47	47	9
142	143	11
42	42	29
89	89	9
39	100	3
18	18	9
144	156	4
86	86	11
38	38	23
67	70	3
69	71	4
113	113	6
33	33	20
6	6	33
133	134	1
111	111	37
14	16	3
155	155	4
144	146	1
23	23	17
93	164	5
21	22	10
153	154	9
107	134	1
109	109	8
87	88	7
55	117	2
160	161	12
79	79	18
129	134	6
126	127	5
68	68	8
34	34	18
102	102	7
127	127	8
44	44	22
136	136	11
15	15	23
24	24	28
36	36	24
109	136	2
57	72	3
51	51	15
53	53	9
115	115	6
64	69	4
117	121	2
37	37	31
13	27	3
68	72	2
71	71	5
55	55	14
134	134	17
167	168	1
137	137	13
64	111	1
9	9	11
10	44	3
4	4	16
13	13	7
21	21	12
121	128	4
74	74	9
40	40	8
41	41	29
163	163	9
69	115	2
145	158	4
147	148	5
126	126	28
124	128	2
44	64	3
120	120	9
156	157	4
72	73	2
135	135	19
69	69	13
153	153	3
91	93	3
89	94	3
116	116	10
96	96	11
107	113	3
37	58	1
90	90	16
10	10	11
153	166	3
111	113	5
75	75	12
114	164	3
78	78	17
105	105	10
65	65	11
124	125	6
133	133	15
150	150	14
18	19	13
41	73	1
83	83	11
8	10	7
148	148	17
11	108	1
48	49	13
156	156	16
66	66	4
150	151	6
72	72	5
52	53	11
16	17	11
113	114	3
124	124	3
166	166	17
116	156	1
10	11	7
24	25	6
1	1	21
25	25	28
152	152	8
155	161	2
52	52	18
154	154	6
132	150	4
38	41	8
64	64	11
129	130	6
45	45	6
84	148	1
40	41	2
39	40	4
4	7	1
91	94	6
68	69	9
70	70	11
14	14	6
77	93	1
141	141	5
40	84	3
8	8	8
56	56	21
94	164	3
46	46	13
168	169	5
139	144	1
130	130	14
149	149	24
123	124	3
146	147	2
82	148	3
58	69	2
20	20	10
40	46	2
100	100	3
3	3	18
109	110	4
110	112	5
52	55	5
5	6	9
114	114	11
50	50	5
111	121	1
9	15	2
99	100	2
13	23	4
146	146	22
11	11	14
0	1	4
1	2	11
35	42	4
26	26	5
3	34	1
50	96	4
125	145	3
8	11	4
22	22	9
95	95	12
145	145	8
108	108	13
63	63	1
137	138	2
16	16	12
92	92	3
83	84	1
18	21	3
103	109	3
47	49	4
112	113	16
5	7	4
158	158	5
108	161	1
0	34	2
132	132	13
101	102	5
101	101	15
50	51	3
38	73	2
136	137	15
84	126	2
166	167	3
74	76	4
130	154	2
138	138	12
41	136	2
65	69	6
99	99	3
67	94	1
140	140	11
103	105	3
161	161	5
49	49	26
75	76	1
38	45	2
19	19	12
91	95	5
69	70	1
5	5	8
55	56	8
17	17	15
159	159	8
58	66	5
94	94	11
20	52	1
44	46	4
0	74	3
164	164	3
98	144	1
34	35	9
38	111	1
157	158	5
160	160	15
144	145	5
2	4	4
139	139	24
152	153	3
35	36	8
125	125	5
5	13	1
167	167	7
123	123	7
5	21	1
158	159	7
135	150	1
68	73	2
74	80	1
28	42	3
98	122	4
130	144	1
77	85	1
144	144	17
95	96	4
27	27	9
44	54	2
6	11	2
117	124	3
106	106	4
19	24	4
151	151	13
6	35	4
119	119	18
149	158	4
65	126	2
98	165	2
132	149	2
38	118	2
75	137	3
85	85	7
41	113	3
11	12	3
129	133	1
90	91	7
96	99	7
12	13	2
7	20	1
6	14	2
25	41	5
6	12	1
97	98	3
108	139	3
0	0	15
21	49	4
63	124	1
47	48	6
77	78	4
12	12	17
41	42	6
55	73	6
7	8	3
63	75	2
93	93	2
82	84	1
114	115	5
86	153	1
44	45	4
110	111	6
76	80	2
155	156	4
39	39	9
49	50	4
133	147	1
132	147	1
97	97	5
4	6	4
112	112	13
80	80	2
62	62	5
77	81	7
35	135	1
53	54	9
73	73	9
113	126	1
84	84	10
107	107	3
7	7	17
159	160	3
21	55	1
78	91	2
155	158	2
87	87	6
57	57	4
91	92	5
67	68	1
165	165	11
116	123	2
168	170	2
40	62	1
37	41	2
35	35	9
33	34	3
53	99	1
117	117	3
76	102	1
61	62	4
130	131	10
157	157	8
6	7	5
162	162	9
43	43	20
47	158	3
2	2	10
8	15	4
39	76	5
142	142	10
77	79	3
26	139	4
163	164	6
22	23	3
164	165	3
45	46	5
14	15	6
100	101	2
119	120	2
94	120	2
89	158	2
8	9	4
86	98	1
44	52	2
37	111	2
98	98	4
88	88	9
129	129	9
23	40	2
77	80	6
6	18	5
79	80	5
117	118	6
139	140	1
110	110	12
56	100	3
118	118	9
48	48	7
84	94	3
97	162	1
39	56	4
56	57	1
18	23	2
139	141	3
94	124	2
42	112	1
38	39	2
41	56	1
116	117	3
148	168	2
125	130	2
51	53	2
109	141	2
143	143	7
44	138	1
34	52	1
43	44	3
87	95	3
121	122	5
101	116	2
98	99	1
102	160	3
143	144	3
162	168	2
77	77	3
62	63	3
26	27	3
128	129	1
144	149	1
28	28	8
143	151	2
111	112	3
119	121	3
162	163	2
44	49	2
108	109	4
93	97	1
4	27	5
44	55	2
54	55	3
51	52	2
168	168	4
116	127	4
0	51	3
74	101	4
135	136	2
110	141	2
53	55	3
58	62	2
24	41	2
131	163	2
138	142	2
70	169	1
1	115	1
119	137	2
98	162	1
18	47	3
99	123	2
122	123	2
27	158	2
76	76	6
154	162	1
67	98	3
132	133	2
140	141	4
54	54	13
23	58	1
125	126	2
96	97	3
88	97	1
74	75	3
37	72	1
126	129	3
131	132	4
63	161	3
145	148	1
160	169	1
46	67	3
12	15	3
81	81	2
19	20	5
50	79	1
88	89	2
79	90	1
107	112	3
11	67	1
107	133	1
149	150	1
45	137	3
133	135	1
22	51	3
20	40	2
13	15	1
107	108	3
135	141	1
38	53	1
131	131	3
46	47	4
42	135	1
22	116	1
122	122	1
108	136	2
120	121	2
101	105	1
95	162	7
66	108	4
114	126	1
74	85	1
137	142	1
140	167	1
0	35	1
9	19	1
147	147	4
51	117	3
98	112	1
22	147	2
13	14	2
86	111	4
67	108	1
42	43	2
125	154	3
62	70	1
46	58	1
47	139	1
10	75	1
39	41	1
17	18	5
3	46	3
37	44	3
9	10	3
155	170	1
63	118	1
27	28	2
141	142	3
78	79	1
139	158	1
6	34	1
4	109	1
74	84	2
113	120	2
9	13	1
104	104	2
65	102	2
47	166	2
152	155	1
36	39	1
38	100	4
37	53	1
58	115	1
143	166	1
169	170	2
91	91	4
94	96	2
2	16	3
10	13	3
34	53	1
89	155	2
97	160	1
123	156	3
37	38	3
15	22	2
6	27	2
68	126	2
54	56	1
39	79	1
87	91	2
86	124	2
17	25	1
64	119	1
89	90	1
68	78	1
129	131	1
101	106	1
12	26	1
112	120	1
116	119	2
15	24	1
108	158	1
0	54	2
38	47	1
64	77	1
155	162	2
47	53	2
113	136	2
15	16	1
78	81	1
135	140	2
98	164	1
57	63	2
169	169	5
54	64	2
151	152	1
63	168	1
69	100	1
117	123	1
6	16	2
104	105	2
161	164	1
43	79	1
144	147	1
77	82	2
113	127	3
20	21	1
33	136	1
40	102	2
82	82	2
86	94	1
18	48	3
7	43	1
84	85	2
72	103	1
151	166	1
20	25	2
64	68	1
40	71	4
63	110	1
115	119	1
7	11	1
155	163	1
134	135	1
102	103	1
38	81	1
0	116	1
26	50	1
76	77	1
15	23	1
10	23	1
45	62	1
42	133	1
24	38	1
42	136	1
40	50	4
118	119	2
95	100	1
34	44	1
69	77	2
9	11	1
42	108	2
80	102	1
43	55	1
62	123	2
2	3	2
24	52	1
20	24	2
117	156	1
115	116	2
6	24	1
90	92	1
3	4	1
143	145	1
18	20	1
20	22	1
82	83	1
0	134	1
7	25	1
45	109	1
76	79	1
154	155	1
102	105	1
124	164	1
92	93	1
67	67	1
159	170	1
103	104	1
93	122	1
108	134	1
140	142	1
93	94	1
149	153	1
93	102	1
45	127	1
