128	128	15
72	72	15
102	103	4
90	91	7
119	119	12
11	12	2
114	133	1
96	96	12
81	81	17
71	71	20
92	92	12
121	121	30
89	91	3
131	132	5
28	28	3
76	77	11
90	124	2
21	21	8
80	80	13
25	25	5
135	135	31
82	83	8
128	129	8
30	30	5
114	115	2
118	118	17
6	6	6
25	26	13
133	133	15
98	98	11
123	123	17
103	103	24
4	4	11
113	113	16
15	24	3
36	36	10
125	125	20
134	134	31
71	74	1
15	32	4
26	26	2
89	89	7
93	93	18
99	99	6
130	130	28
131	131	9
27	27	10
101	102	10
73	73	11
124	125	2
72	73	4
137	138	6
123	139	4
112	112	8
111	111	11
81	82	4
91	91	3
78	78	12
114	114	13
90	90	8
11	27	1
110	115	1
110	110	14
127	128	8
121	122	7
36	37	2
84	84	2
87	87	16
13	13	3
107	107	16
13	19	3
138	138	18
136	139	3
88	88	6
35	35	9
90	92	6
21	37	3
79	79	9
115	115	8
82	82	6
23	23	10
24	24	10
31	31	11
102	118	4
20	20	9
126	127	6
30	31	1
86	86	10
101	101	3
97	98	2
6	9	1
139	139	18
37	37	9
5	136	2
117	117	6
116	116	4
131	139	3
129	140	1
77	77	4
0	0	10
8	8	5
104	107	1
136	137	5
102	102	10
96	119	2
105	106	5
74	75	3
34	34	5
132	132	17
7	7	11
4	12	2
84	85	6
101	138	3
100	100	6
77	78	2
123	124	2
77	79	2
124	124	20
14	15	6
5	5	6
36	98	2
97	104	5
97	97	15
32	32	6
15	15	3
80	86	2
27	32	2
16	16	11
104	105	11
95	96	4
112	113	1
107	108	3
103	107	2
4	5	1
100	130	1
138	139	2
81	121	3
97	100	2
128	130	1
73	88	1
87	94	2
140	140	14
126	126	11
79	120	1
8	9	3
95	101	2
91	92	5
102	119	5
71	72	1
22	22	10
2	2	5
80	119	3
77	127	5
21	22	3
125	131	1
105	107	2
100	101	2
101	132	1
12	15	1
91	111	2
72	91	2
10	13	2
104	104	4
85	121	4
122	122	12
18	18	7
17	31	4
122	123	1
5	6	2
95	120	1
17	17	10
10	11	5
19	19	4
100	133	1
88	90	1
107	118	3
9	13	1
35	37	5
103	108	5
137	137	8
105	105	7
22	30	2
26	27	2
12	13	3
29	29	3
10	10	3
83	83	5
94	95	3
132	133	7
74	74	9
79	80	3
102	134	4
76	76	2
92	112	1
11	11	6
120	121	4
9	9	2
80	81	1
94	94	5
29	30	2
91	126	3
140	141	1
28	29	4
96	97	2
29	31	1
22	23	8
1	1	6
18	29	3
134	135	4
81	84	3
108	108	7
11	17	2
83	95	1
125	126	5
89	90	3
93	110	1
78	79	1
74	87	2
73	74	1
85	86	3
14	14	5
17	30	1
79	82	3
95	95	4
135	136	4
119	120	4
106	106	4
92	124	1
129	129	13
135	138	1
98	99	2
80	83	3
127	127	5
12	23	2
78	122	3
136	136	5
108	110	2
11	18	4
101	135	5
127	129	4
103	104	4
109	109	7
9	14	3
120	120	1
110	111	3
82	85	2
27	33	2
89	129	3
11	19	1
96	130	2
17	18	2
115	116	2
97	127	2
13	14	4
73	120	4
87	93	2
71	73	4
88	89	3
2	4	1
90	123	2
85	103	2
123	125	6
80	133	1
18	21	2
23	24	2
86	93	2
105	117	1
72	75	3
87	123	2
95	127	1
87	122	1
37	71	4
117	122	3
94	140	3
130	131	2
99	103	1
85	85	2
15	16	2
3	3	6
0	1	3
74	109	2
84	90	1
129	130	1
75	76	1
79	83	1
93	94	2
124	126	1
113	114	1
117	120	1
24	32	2
117	121	2
122	136	1
98	100	2
108	115	1
92	94	2
98	132	1
12	30	1
95	97	1
119	121	1
78	81	1
16	31	1
81	118	1
117	135	1
116	134	1
33	33	1
110	133	2
22	27	1
100	106	1
118	119	1
80	104	1
75	118	2
92	125	1
88	123	1
94	128	1
75	75	1
25	28	1
82	139	2
109	117	1
100	110	1
91	100	1
82	124	1
82	84	1
86	87	1
80	120	1
120	123	1
78	100	1
16	32	1
84	100	1
101	123	1
96	104	1
111	112	1
12	12	1
