46	73	4
9	9	11
83	83	7
114	114	12
126	126	7
60	60	7
13	14	10
121	121	22
20	20	20
43	44	3
8	9	8
92	93	2
57	102	3
125	130	4
18	39	7
29	30	14
73	73	22
46	46	19
74	74	12
26	26	16
1	63	2
104	105	8
56	57	12
97	98	9
119	119	8
102	102	20
91	91	12
55	55	8
79	80	5
10	10	28
30	31	3
61	61	20
32	33	8
99	99	18
80	80	20
64	70	4
65	65	22
114	116	3
44	45	9
27	28	11
87	87	11
75	75	11
45	45	28
41	41	7
5	5	20
76	76	8
29	29	26
84	84	9
23	23	15
2	2	9
11	17	5
19	19	12
132	132	10
69	69	14
95	95	11
107	108	7
77	77	12
37	37	14
7	7	11
34	34	13
63	63	15
90	92	8
45	63	10
82	82	17
28	28	18
46	47	17
98	98	14
44	44	12
25	25	8
76	130	3
91	98	4
36	36	14
79	79	10
12	46	1
101	109	2
129	129	17
14	14	15
41	82	1
13	13	16
111	111	13
95	110	3
84	98	2
90	104	3
85	85	11
8	18	2
21	22	8
33	33	14
29	44	5
0	1	5
21	21	12
108	108	8
101	101	24
19	34	1
100	100	16
85	86	2
40	41	12
24	24	18
43	43	11
36	61	3
31	31	12
103	103	7
60	76	3
90	91	8
78	126	4
118	120	3
35	35	13
64	65	4
20	21	7
123	123	20
21	99	1
72	72	17
33	34	6
21	40	4
60	64	1
113	114	3
42	42	9
125	129	8
76	123	2
46	64	1
67	70	2
68	68	6
42	95	2
106	106	7
73	74	11
15	15	10
6	6	11
17	17	14
4	4	10
80	108	2
13	15	7
70	70	11
30	76	6
11	86	2
119	121	4
28	29	6
56	56	3
93	93	15
62	62	6
113	113	7
5	6	3
20	27	2
88	88	10
47	47	19
21	38	1
64	64	27
83	133	2
14	33	4
38	41	8
107	107	6
23	25	4
12	13	4
68	70	3
3	100	2
89	89	3
27	27	12
94	94	31
75	123	1
16	35	2
30	30	18
35	73	1
122	122	11
31	32	8
128	129	8
51	55	1
97	97	13
26	80	2
57	58	7
36	44	2
82	112	8
36	37	8
110	110	5
0	0	6
11	11	13
67	67	20
27	29	3
15	30	5
40	75	3
62	64	1
93	94	4
19	21	1
23	24	4
40	42	3
90	90	15
78	79	6
24	83	3
6	94	2
29	48	5
108	109	2
76	77	2
81	81	16
104	121	1
96	97	5
115	116	4
12	12	6
4	105	6
118	118	6
85	132	1
87	88	5
117	117	16
108	110	3
59	60	13
94	99	2
130	130	13
0	63	3
57	57	10
128	130	2
93	98	7
78	78	10
6	12	1
8	8	8
127	127	1
4	7	7
123	125	2
1	1	4
12	15	6
68	71	1
96	99	3
89	93	4
100	102	1
65	101	1
69	70	1
11	33	6
6	95	2
26	94	2
63	64	5
74	118	1
82	84	4
46	77	4
11	47	3
49	77	1
71	122	1
80	81	2
86	86	4
40	40	8
94	96	4
70	71	7
13	17	1
7	40	5
11	12	3
115	115	19
10	11	2
9	61	4
17	34	1
60	91	4
128	131	3
49	76	3
47	72	2
3	64	1
131	131	6
112	115	1
62	72	3
96	96	13
41	61	1
14	34	1
14	16	2
96	98	3
26	27	3
58	58	11
22	30	3
6	18	3
92	92	10
9	17	1
35	68	1
10	18	1
48	50	3
5	100	2
124	124	5
25	92	1
48	48	4
20	30	3
57	104	3
71	72	3
84	85	5
2	3	5
31	49	1
14	20	3
32	32	7
81	82	4
101	108	1
112	112	6
40	43	3
51	84	1
76	122	2
123	126	4
8	19	1
38	40	5
28	93	1
125	125	5
88	90	1
42	43	2
47	61	3
86	128	2
16	61	2
25	26	6
92	98	1
29	60	3
91	97	2
66	66	11
60	90	3
126	129	3
26	47	2
101	102	6
107	127	3
39	42	3
28	91	2
117	119	2
10	61	1
18	18	11
112	114	2
11	13	2
4	5	5
46	66	1
83	97	4
94	108	2
94	95	7
98	107	1
22	27	3
41	60	2
75	80	2
124	129	7
59	59	2
131	133	2
128	128	6
5	99	1
61	72	2
9	10	9
75	76	5
126	128	3
42	60	1
60	88	1
4	60	2
14	15	2
90	133	1
134	134	6
71	85	2
16	19	2
100	101	3
8	27	1
110	111	3
46	62	2
1	2	2
5	58	3
84	126	2
99	125	1
35	36	3
18	33	3
36	39	2
11	25	2
117	118	2
87	89	7
79	81	7
66	101	5
117	121	3
39	40	3
33	92	2
17	43	2
76	126	2
15	21	2
116	117	3
35	71	4
21	39	7
45	46	2
127	129	4
12	34	3
116	116	8
23	27	5
35	37	1
27	46	2
8	92	2
95	107	3
18	75	2
56	95	2
28	80	1
91	92	1
72	73	3
36	101	1
49	97	1
25	59	2
32	78	2
75	122	7
35	46	1
77	78	2
113	115	1
90	127	1
99	100	8
124	125	4
33	93	4
58	101	5
45	70	3
86	112	1
47	95	2
38	80	2
83	96	1
79	131	2
103	130	2
22	60	1
88	92	3
13	20	2
28	59	2
29	49	1
104	104	3
131	132	7
32	77	3
9	94	4
54	55	1
20	40	2
88	89	1
65	68	5
2	121	2
6	14	2
83	85	1
18	49	3
33	47	2
127	133	4
20	31	6
13	89	4
13	35	2
60	61	2
6	17	2
12	19	1
13	26	4
9	12	1
62	63	2
19	42	1
47	79	1
20	22	2
85	93	2
103	104	2
47	102	2
64	66	1
8	93	3
57	66	3
7	38	2
133	134	1
78	132	3
102	103	1
65	100	3
21	32	2
34	35	1
20	129	1
11	14	5
29	31	1
1	74	2
3	3	7
46	71	1
25	56	1
57	100	2
58	86	1
2	122	2
16	29	2
10	134	1
133	133	4
92	127	2
112	122	1
33	73	2
12	26	1
27	78	3
22	22	1
103	123	2
36	47	3
12	17	2
12	42	1
37	38	6
58	81	1
23	26	1
4	94	1
62	74	2
15	19	2
102	104	1
111	113	1
68	69	2
7	83	1
93	97	2
48	49	2
39	41	2
27	63	1
71	71	2
0	2	2
38	39	4
90	98	1
82	93	1
49	63	1
87	90	1
25	49	1
83	107	5
120	120	4
81	83	1
26	33	1
28	79	2
64	87	1
27	80	1
8	101	4
12	14	1
32	47	1
41	80	1
17	19	2
87	92	1
78	83	2
59	87	1
39	39	1
19	20	2
3	70	1
49	49	5
18	128	1
54	57	2
119	120	3
118	119	4
28	81	1
8	100	1
57	59	1
27	30	3
83	95	2
17	61	1
20	41	1
79	86	2
109	109	2
3	111	1
11	93	1
57	62	1
98	100	1
34	76	1
97	112	1
93	96	1
112	113	1
75	119	1
21	31	1
131	134	1
6	15	1
119	122	2
89	92	1
6	13	3
11	16	2
86	88	2
3	61	1
59	64	2
96	130	1
66	68	1
96	100	2
4	99	1
16	16	3
24	59	1
84	106	1
36	46	1
79	84	1
12	16	1
35	62	1
31	78	3
15	16	1
27	90	1
47	73	1
105	105	1
8	12	1
65	67	2
86	126	1
9	47	1
132	133	1
91	133	1
125	134	1
8	96	1
6	99	1
127	132	1
22	44	1
47	92	2
126	134	1
46	63	1
55	58	1
125	133	2
19	27	1
125	126	1
43	48	1
91	105	1
89	90	1
35	74	1
42	94	1
7	8	2
27	31	1
110	113	1
19	46	1
98	99	1
6	97	1
98	124	1
3	73	1
