39	60	6
242	242	3
29	30	1
199	199	2
182	184	4
182	183	2
161	166	2
78	92	1
202	202	2
232	234	5
134	134	1
129	133	2
190	225	3
233	233	3
15	15	3
145	152	2
203	203	8
136	137	4
4	46	5
0	6	1
195	196	4
70	75	2
143	145	6
228	235	3
14	14	1
134	135	2
176	226	2
215	220	5
210	220	3
5	5	3
9	23	4
237	240	5
16	25	2
213	219	3
184	191	3
101	102	1
226	226	3
30	30	5
65	70	2
226	227	3
150	153	3
76	96	5
30	63	3
170	174	4
12	21	1
112	116	5
177	177	3
39	55	5
130	130	2
8	8	2
30	32	2
197	197	2
42	42	3
195	195	2
122	154	3
194	194	3
79	79	2
171	174	2
240	240	8
13	37	2
232	237	1
177	182	2
55	63	1
158	158	1
68	68	2
173	176	2
179	182	1
67	72	3
208	208	2
177	180	3
60	77	4
45	54	2
79	82	4
37	41	5
241	241	3
51	54	5
139	139	2
6	12	1
175	186	2
221	221	8
16	18	4
82	84	3
145	145	6
12	18	2
13	13	8
85	88	2
181	181	3
3	14	5
32	36	3
231	239	3
0	0	3
238	241	4
70	84	2
69	153	1
50	50	1
157	193	1
203	221	1
49	53	3
2	3	7
159	163	4
55	58	2
23	27	2
27	31	3
17	18	3
45	51	3
121	122	3
82	82	1
191	191	8
57	60	3
12	25	1
54	54	1
116	129	2
86	86	1
228	229	5
103	103	3
98	101	3
78	85	3
216	218	4
57	57	2
1	2	5
6	6	7
33	33	2
170	170	5
36	48	3
74	74	7
162	182	1
206	209	1
48	48	8
82	86	3
156	156	2
78	78	5
101	117	3
157	157	2
53	53	2
46	48	4
133	136	5
143	143	2
161	161	1
169	176	2
0	3	3
3	4	1
17	17	3
118	140	2
233	235	9
211	226	5
175	177	2
169	169	2
147	152	4
216	242	1
228	232	5
7	7	9
172	174	2
56	58	3
173	174	2
119	119	3
153	156	1
175	220	4
154	155	9
229	230	3
33	39	4
51	51	2
116	117	6
3	6	2
4	4	2
26	34	1
239	240	1
15	19	6
137	138	2
213	216	1
129	138	1
15	17	1
45	45	3
211	215	2
68	86	4
22	22	3
1	7	1
73	74	5
136	166	4
148	157	4
138	138	2
126	154	2
205	208	3
129	131	4
214	222	1
28	28	5
134	174	2
66	66	2
40	65	1
237	238	4
229	229	6
178	188	1
181	183	3
72	72	1
185	220	3
155	156	5
229	236	2
185	207	1
76	76	3
205	205	1
133	135	1
216	221	4
208	240	4
150	152	6
88	88	2
187	190	1
62	69	3
197	198	1
214	237	2
220	221	6
64	64	3
183	215	1
65	66	1
25	27	5
24	24	6
3	48	1
36	36	3
9	15	1
2	2	3
211	213	3
28	46	3
51	53	1
71	73	1
80	81	4
179	223	2
83	83	4
186	186	2
137	159	4
183	189	1
84	85	5
6	13	3
169	170	2
48	49	2
79	105	3
57	69	1
231	233	1
47	48	1
121	123	3
34	64	1
58	78	2
210	212	2
19	19	3
144	146	4
122	129	1
30	33	1
83	85	3
146	146	3
219	231	1
101	101	1
177	181	3
69	73	5
58	60	7
204	218	1
43	43	2
16	16	3
210	222	2
183	195	1
212	218	2
62	63	2
26	27	4
143	171	2
85	85	1
100	103	1
80	100	2
49	49	4
56	59	1
102	128	2
56	56	3
240	242	1
236	236	4
169	174	5
221	222	4
187	214	1
106	107	2
162	164	1
156	157	4
196	199	2
82	88	3
32	33	2
230	231	2
15	16	2
220	229	1
70	187	1
125	143	2
30	31	6
74	75	2
66	67	1
172	175	1
34	67	1
207	209	4
10	16	1
172	177	2
49	70	2
204	204	5
24	29	2
239	239	1
106	108	5
3	5	1
119	187	3
215	215	2
12	12	4
64	66	2
216	220	3
107	108	2
202	203	1
25	25	3
148	150	2
109	112	2
16	58	1
127	128	2
20	35	1
91	92	1
14	15	4
131	152	1
189	194	2
116	116	2
45	46	1
231	231	3
111	112	1
233	234	2
129	134	1
130	132	2
28	31	3
222	224	2
223	242	1
2	21	2
44	52	2
38	39	2
23	40	2
103	104	3
156	159	1
207	239	1
115	116	2
31	31	5
57	82	1
59	61	1
13	25	1
142	156	1
237	242	1
185	189	1
0	2	2
70	74	3
10	43	1
8	12	2
4	6	3
6	59	2
208	239	4
64	69	1
14	16	2
213	214	2
220	228	1
197	211	2
180	180	2
9	11	1
113	118	1
181	182	2
168	168	3
206	206	4
105	126	2
83	84	1
106	106	6
219	220	1
4	7	3
115	131	2
232	232	1
218	219	1
46	49	2
46	53	1
135	137	1
225	227	4
31	69	2
80	89	1
222	222	1
39	39	1
141	189	4
237	241	3
171	172	3
123	162	4
211	234	1
65	172	1
237	237	4
135	149	1
229	232	3
67	67	4
106	109	1
105	105	1
210	240	1
217	218	3
176	178	2
58	58	2
130	133	1
51	52	1
184	187	1
220	226	1
53	56	2
200	207	1
61	63	3
186	187	1
54	55	1
194	197	1
152	155	1
189	189	2
28	29	3
75	76	1
180	190	2
3	3	1
204	216	1
44	57	3
112	123	1
8	9	1
44	44	3
212	216	2
215	217	3
2	16	2
222	225	1
212	214	2
201	202	3
127	127	2
29	29	1
156	158	1
230	237	1
154	157	2
49	50	1
184	189	1
56	61	1
212	213	1
60	67	2
162	175	4
113	115	1
48	53	1
52	55	1
16	28	1
136	141	1
43	55	3
188	192	1
103	105	2
155	193	1
84	86	1
62	62	1
35	35	1
227	228	1
200	201	1
7	12	2
203	219	1
181	184	2
124	126	1
6	15	1
22	35	1
23	24	1
5	7	3
18	19	1
144	147	1
230	235	1
193	208	2
25	39	1
223	223	1
5	12	4
10	12	3
230	233	1
119	121	2
28	32	1
29	38	2
97	97	1
18	18	3
36	39	1
37	38	1
128	130	1
184	184	1
235	238	1
47	47	2
22	28	1
32	39	1
201	201	1
29	40	3
147	151	1
141	141	1
236	237	3
228	238	1
188	198	1
39	46	1
148	151	2
27	27	1
213	215	2
226	231	1
4	9	1
117	117	3
177	178	2
198	204	1
220	224	1
236	242	3
33	34	1
236	239	3
178	221	2
2	7	3
75	75	1
198	215	1
120	160	2
24	28	1
208	218	1
209	209	1
67	68	1
176	211	2
25	26	1
14	17	1
14	33	1
167	169	2
42	43	2
217	222	1
206	208	1
164	164	1
6	7	1
228	240	1
139	140	1
128	128	1
117	122	1
165	167	1
223	229	1
26	38	1
18	21	2
219	222	1
16	17	1
24	26	1
44	49	2
179	180	1
12	20	1
55	60	2
184	185	1
39	44	1
161	163	2
231	232	1
136	136	2
138	184	1
1	3	1
75	77	1
141	142	1
95	95	1
105	107	1
125	128	1
102	106	1
7	13	1
170	172	1
196	206	1
7	20	1
22	43	1
33	36	2
6	37	1
175	178	2
57	59	2
238	240	1
214	229	1
42	49	1
182	182	2
13	19	1
177	197	1
104	108	1
68	73	1
235	235	1
198	203	1
203	213	1
123	165	1
42	52	1
67	70	1
6	8	1
33	77	1
228	228	1
232	236	1
20	27	2
187	189	1
44	50	1
110	122	1
3	7	1
221	226	1
42	47	1
225	239	1
7	8	1
195	197	1
223	225	1
