67	68	5
92	100	5
85	90	3
37	37	2
48	48	9
81	101	4
70	70	8
32	32	7
72	72	3
55	65	4
69	69	15
82	82	8
27	27	7
86	86	5
86	94	2
46	92	1
95	95	4
92	93	2
95	98	6
65	66	4
80	83	2
76	77	3
31	32	5
85	85	10
56	88	1
56	56	7
60	60	10
56	57	3
99	99	15
35	39	2
31	31	6
101	102	2
94	96	6
80	80	6
66	66	9
34	34	12
42	42	8
26	70	1
95	96	8
59	59	10
84	84	6
91	91	6
28	53	1
86	87	4
25	94	3
78	78	9
93	93	8
49	49	6
77	78	4
80	98	1
83	83	6
62	62	6
44	44	8
43	43	3
99	101	2
85	86	3
51	91	1
50	50	14
76	80	8
82	83	9
77	77	13
54	54	7
29	47	2
53	53	3
39	101	2
57	57	14
35	36	3
53	54	5
75	75	5
40	40	10
49	50	5
52	52	4
94	94	6
100	100	8
34	35	2
57	64	2
80	81	8
23	25	2
73	73	5
52	86	2
37	95	1
58	58	5
62	90	3
97	97	16
58	86	2
51	51	3
35	35	7
73	74	4
94	98	1
64	64	8
96	101	2
62	63	1
30	33	1
72	75	3
37	101	1
96	97	2
45	46	2
57	58	5
86	88	3
22	32	2
46	46	10
55	68	3
90	90	9
37	84	3
87	87	7
76	76	5
51	85	3
79	80	4
38	100	7
29	29	6
57	92	3
74	74	8
83	84	2
44	75	2
40	97	3
97	98	3
69	70	5
57	62	1
100	102	2
36	36	4
25	27	2
30	73	3
36	102	3
46	83	3
87	88	5
67	67	4
41	41	8
60	62	1
45	45	7
99	100	1
85	93	2
61	61	6
93	99	1
90	91	4
97	102	1
59	85	4
59	91	1
39	39	2
101	101	1
71	72	2
96	96	3
51	64	1
55	55	5
33	34	5
29	73	3
91	93	1
71	71	4
22	22	3
43	74	3
26	47	1
64	65	1
33	33	2
69	71	2
92	92	3
46	69	2
51	59	2
88	88	4
89	89	1
62	68	1
24	27	2
81	84	1
83	89	1
47	47	5
60	70	3
53	94	2
48	49	4
81	81	3
53	87	2
33	41	1
82	84	2
24	25	2
68	68	4
63	64	4
47	48	2
89	98	1
45	48	2
56	59	1
31	53	1
45	71	2
39	96	1
46	94	1
69	81	1
55	69	1
23	26	1
98	98	2
79	79	2
82	94	1
32	33	1
102	102	2
89	90	2
51	52	1
91	100	1
24	24	1
87	98	3
39	97	1
38	39	2
23	28	1
41	42	1
58	59	1
100	101	2
32	81	1
39	40	1
26	26	2
50	51	1
90	93	1
63	63	1
55	61	1
37	38	1
74	77	1
71	77	3
34	65	1
25	73	2
30	31	1
58	61	1
95	97	1
65	65	2
45	47	1
36	37	1
44	69	2
65	68	1
86	97	1
34	85	1
52	99	1
43	45	1
38	40	1
