239	240	3
188	188	3
2	3	4
214	219	3
213	213	2
163	169	5
57	57	5
207	220	3
4	4	4
0	209	5
83	83	1
178	178	1
55	55	2
125	125	3
1	209	2
70	70	4
100	100	3
149	149	4
193	193	2
147	147	2
203	211	2
126	127	3
7	14	11
54	60	2
52	52	8
15	15	3
144	144	8
232	232	6
3	9	7
179	179	12
199	215	4
60	60	4
171	180	3
51	52	1
103	106	3
16	16	4
117	117	4
6	6	3
73	73	2
136	170	2
242	243	3
135	139	1
173	173	2
10	11	1
238	239	2
47	53	3
148	148	4
48	119	3
42	42	3
215	215	2
79	84	2
198	199	1
61	61	6
47	47	1
55	109	3
154	154	6
118	120	2
231	232	2
235	235	2
140	140	5
223	223	5
97	97	2
25	25	3
238	238	4
144	145	1
167	180	2
9	9	5
58	58	4
119	121	3
199	199	3
223	224	2
51	54	2
165	187	1
67	67	4
164	164	2
13	22	3
36	59	1
45	45	2
226	226	1
25	32	1
176	176	1
118	118	2
31	32	2
71	72	1
29	74	5
202	203	1
178	180	2
219	220	2
180	180	1
194	194	1
123	147	1
182	182	6
39	39	2
111	161	2
81	84	4
237	237	5
10	10	6
22	22	1
134	134	8
31	31	5
168	168	2
13	16	1
72	73	1
37	37	3
214	215	1
233	233	2
23	23	4
138	138	11
136	171	1
171	171	3
149	150	7
101	101	2
4	5	3
197	198	4
84	84	4
17	133	1
112	164	1
44	44	2
99	100	4
182	187	2
81	82	2
48	48	1
135	135	8
231	235	5
9	204	2
40	40	2
151	151	2
64	74	1
205	205	3
4	79	2
115	115	1
58	59	2
196	196	3
19	19	7
206	206	2
139	140	2
32	32	3
68	68	1
14	14	4
104	105	4
201	201	3
198	198	6
184	185	2
137	137	2
44	45	1
65	66	4
60	61	1
4	8	3
21	33	1
123	150	2
242	242	2
80	81	3
152	152	4
69	69	2
14	16	4
136	136	1
170	180	2
235	241	1
15	16	2
185	185	2
110	110	3
133	134	1
151	152	3
197	197	1
51	51	2
101	102	1
144	146	1
78	79	4
38	38	2
240	242	1
143	143	1
232	235	1
71	71	3
226	227	5
217	218	3
159	187	1
173	177	2
199	214	1
220	223	1
202	202	2
103	103	2
165	166	4
222	222	3
148	150	1
127	127	4
75	75	1
88	88	3
1	3	2
153	153	1
32	75	1
227	227	1
207	207	1
218	218	2
69	70	2
80	83	1
142	142	1
231	231	1
123	124	2
161	161	3
198	221	1
54	54	1
35	35	1
36	36	2
66	68	1
156	157	3
172	173	1
21	22	3
188	199	1
119	119	2
228	228	1
188	189	4
96	96	3
187	189	2
1	1	1
18	19	3
2	2	3
157	157	3
79	79	3
139	139	1
98	98	2
208	208	1
9	10	1
102	102	2
77	77	3
190	190	5
162	167	1
76	76	4
213	215	1
146	147	1
239	239	4
214	214	1
109	145	2
34	34	2
3	3	2
18	239	1
56	56	2
12	12	2
17	17	2
6	34	1
4	17	1
7	11	3
71	73	2
126	126	1
234	234	2
107	107	1
78	78	1
104	104	1
3	209	1
129	130	1
148	149	1
169	169	1
46	46	1
231	237	1
44	54	1
200	221	2
117	125	1
47	128	1
16	22	2
237	238	1
43	43	1
20	20	1
230	230	1
85	85	1
49	122	1
102	103	1
39	40	1
191	191	2
6	13	1
18	241	1
0	198	1
143	144	2
52	54	1
37	58	1
66	66	1
