134	134	43
8	8	25
14	14	32
126	126	41
91	91	20
12	12	22
83	83	17
77	84	4
111	111	42
136	136	38
115	115	19
124	124	37
27	29	4
32	32	40
101	101	35
71	71	32
102	102	16
11	11	29
138	138	31
4	5	4
90	91	8
125	125	49
131	131	42
35	35	38
78	78	21
72	72	28
36	36	23
11	123	1
30	30	32
129	129	49
84	84	13
104	104	5
128	128	51
98	98	10
79	79	19
20	20	16
118	118	20
16	16	44
27	27	26
106	108	8
137	137	40
109	116	2
6	12	4
90	90	19
94	111	4
7	25	4
111	124	7
1	8	6
137	139	4
88	88	22
83	85	19
119	120	12
93	93	20
95	95	24
37	37	12
114	114	13
125	126	8
96	96	24
19	19	29
135	136	8
117	119	6
71	74	8
6	6	24
86	86	31
101	102	18
108	108	16
83	109	2
112	112	29
124	125	4
23	23	26
71	77	6
2	2	24
100	100	17
17	18	6
38	38	15
97	97	6
11	12	4
127	127	25
112	134	3
100	112	2
132	139	3
1	20	2
120	120	8
82	87	7
1	106	3
75	75	19
3	3	19
7	7	29
7	8	16
9	11	7
31	31	27
33	33	19
125	128	2
109	110	7
123	126	2
4	4	20
76	76	26
103	104	11
89	90	9
37	38	1
74	74	20
18	19	5
132	132	29
34	34	26
79	106	1
105	106	10
22	37	2
113	128	4
5	5	28
103	103	15
81	86	2
1	2	11
89	89	21
0	28	2
87	87	28
5	10	6
129	130	7
21	21	29
73	79	2
76	87	1
3	4	9
103	115	4
140	140	42
82	82	21
2	7	4
104	118	3
7	12	5
82	83	7
2	6	2
97	98	4
104	105	16
18	18	52
81	82	5
73	119	1
107	108	11
0	0	18
73	75	2
2	4	3
78	79	6
72	76	1
97	115	5
73	102	4
80	80	27
88	89	4
12	13	13
90	93	2
10	11	18
110	111	9
130	130	50
131	138	1
106	106	23
137	138	4
99	99	7
36	106	1
17	19	2
135	135	19
8	14	5
132	136	1
110	110	36
133	133	40
1	10	3
92	92	20
81	81	14
20	27	1
23	24	13
122	122	50
25	25	22
80	93	4
109	109	16
9	9	11
10	10	18
15	15	14
86	91	3
123	124	12
139	139	12
27	28	16
77	90	3
79	102	1
93	94	4
22	23	16
30	31	13
14	24	1
82	84	2
32	37	3
73	73	24
108	111	3
100	101	3
33	35	2
15	17	5
17	17	27
24	24	18
0	1	10
80	81	5
28	28	18
87	88	6
110	112	2
96	97	5
93	100	5
13	13	20
107	120	2
37	80	1
74	78	3
105	108	2
83	118	3
13	20	2
6	7	3
26	79	2
5	24	3
93	117	1
130	131	8
7	27	1
29	29	29
105	105	17
2	3	7
16	20	2
22	22	25
128	129	10
73	105	4
105	109	3
80	85	9
82	96	3
15	16	16
16	17	12
126	127	12
73	103	5
73	84	1
126	130	4
31	33	1
85	86	4
21	22	5
20	34	1
1	1	23
78	91	2
77	77	18
76	77	9
94	112	4
119	122	1
1	13	3
44	44	3
110	121	1
98	99	6
91	112	2
113	114	3
12	23	5
72	103	2
123	123	20
80	89	2
110	118	4
0	7	2
78	103	1
8	9	2
117	117	14
138	140	2
121	122	15
119	119	16
26	26	14
114	123	4
110	116	1
118	120	8
28	29	5
76	78	4
79	93	6
74	85	4
103	109	4
78	93	3
94	94	10
101	103	3
34	104	4
113	113	7
28	30	2
24	25	9
112	116	1
18	28	7
73	104	1
107	109	2
12	21	4
92	93	3
73	78	7
95	137	2
0	11	2
4	72	3
19	122	2
112	118	4
25	29	1
1	43	2
83	84	8
111	112	2
86	87	3
67	78	3
12	26	3
14	15	1
29	30	9
91	99	5
120	121	13
125	127	3
19	27	1
73	83	1
20	21	2
106	109	1
97	132	5
5	21	4
86	88	2
74	76	4
85	90	2
123	127	5
95	127	2
15	36	3
1	9	2
26	27	3
4	19	5
115	116	7
132	134	3
71	72	3
27	30	9
5	28	1
2	33	1
121	121	32
19	20	11
119	121	6
99	100	4
116	118	2
11	21	1
118	122	4
103	105	3
5	6	12
95	136	2
116	123	1
116	117	3
2	5	3
116	116	18
109	118	1
104	122	4
7	13	4
4	20	3
102	109	4
107	107	19
33	34	9
95	113	2
13	14	8
100	102	3
4	79	3
90	116	1
2	34	1
134	135	5
13	15	3
114	115	3
77	78	4
25	26	4
80	90	1
93	128	2
129	134	5
94	95	5
4	71	3
23	26	2
106	122	1
6	9	2
85	87	2
71	84	3
115	122	3
88	96	3
5	7	2
19	23	4
34	35	2
91	115	3
78	104	1
29	31	7
117	120	1
13	21	2
5	15	1
116	134	1
136	137	4
104	109	1
73	117	2
21	26	2
127	131	1
98	126	3
8	12	4
75	76	4
85	85	4
141	141	2
4	8	1
108	109	8
31	32	6
4	24	3
2	19	2
75	109	2
14	22	4
128	130	1
85	88	2
10	20	2
79	80	5
12	15	2
36	37	2
8	42	3
6	13	2
120	122	10
77	100	1
1	6	4
30	33	4
79	96	2
109	111	2
127	128	6
107	128	6
18	20	2
11	20	4
23	25	7
37	94	1
133	134	3
115	126	2
85	106	3
12	14	4
15	23	2
84	108	2
110	119	1
73	77	7
78	92	2
101	111	5
86	94	3
6	34	3
84	85	5
86	101	3
6	17	1
113	115	2
18	22	2
100	115	3
20	30	1
86	97	3
91	113	3
38	93	2
4	29	2
102	103	5
11	23	3
5	80	1
118	119	3
2	11	1
90	98	2
10	12	4
33	36	1
74	77	1
128	133	1
80	83	3
16	29	2
72	73	4
81	84	1
25	104	1
75	117	4
24	29	1
24	26	2
111	113	1
22	26	6
93	129	5
134	136	2
87	101	2
12	19	1
7	19	1
31	38	1
34	37	1
22	24	4
117	118	4
5	27	1
112	115	1
103	122	2
80	101	1
1	21	1
82	85	3
79	100	1
18	23	1
94	129	1
25	31	3
112	113	2
4	77	1
72	106	2
2	9	2
3	106	1
95	140	1
8	15	3
103	120	1
21	27	1
14	27	1
92	114	1
24	28	2
95	96	7
21	24	1
96	98	2
99	116	1
93	109	1
131	132	3
122	123	2
97	131	1
84	104	2
79	84	3
3	66	1
88	100	1
79	85	1
127	130	1
23	119	1
15	38	1
68	68	1
35	36	1
111	118	6
26	124	1
4	109	1
95	99	2
4	38	2
125	129	2
118	121	3
35	37	1
101	112	1
26	38	2
74	84	1
78	87	1
75	85	2
124	128	1
123	125	1
9	13	6
104	107	4
84	106	2
107	122	2
7	9	4
2	79	1
92	129	1
13	38	1
10	13	1
6	26	1
72	77	1
91	102	2
81	100	2
0	8	2
11	19	1
77	79	2
30	38	3
81	85	3
27	32	1
110	135	3
111	134	4
88	101	1
74	90	1
1	3	2
115	123	1
22	25	2
9	12	2
32	36	1
19	24	2
97	114	1
15	133	1
5	19	1
14	17	2
109	117	1
133	135	1
30	32	1
92	104	2
6	8	1
108	115	2
71	78	2
10	15	1
76	88	1
24	37	1
28	78	2
109	120	1
78	86	1
29	33	1
4	112	1
25	28	1
106	107	1
86	108	3
75	77	1
92	108	1
72	84	1
17	21	1
84	100	1
95	125	1
26	104	1
102	108	1
80	108	1
79	92	1
109	122	1
73	85	1
5	29	1
129	138	1
17	133	1
104	106	1
9	125	1
90	103	1
129	133	1
81	83	1
87	102	1
89	91	1
111	117	1
2	28	1
88	111	1
22	101	1
110	134	1
19	22	1
123	128	1
3	23	1
11	13	1
22	66	1
4	36	1
9	10	1
77	103	1
28	103	1
24	27	1
18	36	1
