21	21	16
17	17	11
38	38	7
50	124	1
49	50	3
67	67	7
96	96	8
67	81	1
100	100	11
33	33	4
122	122	15
158	158	12
16	20	5
72	82	1
156	156	12
6	8	3
113	113	12
107	107	9
85	85	11
127	127	14
76	77	7
88	88	3
114	123	1
4	76	2
57	164	1
144	145	4
68	68	5
143	143	6
119	119	12
92	92	6
123	124	4
5	43	5
25	25	11
132	150	3
8	51	4
79	93	3
75	76	2
91	125	1
6	6	14
20	24	7
130	132	4
81	81	8
137	137	6
53	53	3
122	123	1
125	126	4
69	69	7
111	111	5
73	73	4
163	163	5
49	49	8
14	14	9
5	5	6
36	36	17
42	43	8
76	78	3
101	101	10
167	167	6
0	2	2
157	157	5
126	129	3
41	41	6
110	110	17
81	82	1
87	87	6
43	43	6
105	123	5
163	164	3
96	98	2
20	23	3
126	126	16
42	42	7
150	151	1
56	62	4
147	147	11
93	107	4
56	149	5
8	8	7
117	118	11
108	136	3
97	97	18
167	170	3
168	170	1
103	104	3
66	66	7
102	127	1
104	104	16
87	88	1
108	108	16
37	37	10
153	153	13
10	10	10
109	109	7
79	79	4
90	90	12
72	72	11
11	11	11
149	150	4
79	80	6
166	168	3
64	65	1
70	131	1
77	77	6
128	128	16
7	7	16
86	88	4
22	23	3
75	75	11
76	134	7
8	49	2
86	90	1
77	78	8
6	83	3
83	84	3
14	15	10
160	160	2
99	103	2
110	146	5
80	105	4
12	13	11
46	46	11
96	105	2
99	99	13
111	112	7
19	19	10
97	99	7
71	73	4
12	38	4
78	162	5
95	95	14
103	126	2
154	157	3
70	114	6
94	94	6
65	66	2
169	170	4
92	93	2
98	98	15
123	123	7
86	86	4
115	115	14
83	83	7
134	135	5
17	44	1
100	106	2
52	52	12
26	27	1
35	35	13
1	1	8
2	2	8
95	117	4
97	106	1
58	58	6
89	89	5
67	79	2
86	130	3
44	44	5
48	90	1
121	121	6
133	133	11
8	9	5
118	118	15
95	99	1
1	2	6
22	90	3
93	127	2
144	146	4
124	124	3
0	1	7
70	120	2
106	106	17
101	120	3
129	129	6
144	144	12
56	56	7
8	42	6
5	45	3
3	46	4
6	44	4
40	48	6
134	134	2
102	102	6
54	55	3
15	39	5
153	155	1
39	39	5
170	170	4
112	112	9
132	132	12
55	55	6
28	28	1
90	114	1
105	163	3
24	24	11
134	155	3
100	119	2
133	146	4
39	56	3
62	87	3
39	41	4
95	101	5
92	127	7
15	15	4
139	141	4
96	97	5
101	102	11
145	145	8
91	91	4
45	57	2
8	10	4
127	129	1
111	144	1
16	16	7
73	102	9
124	163	3
62	62	7
92	94	3
76	76	3
4	4	10
73	115	1
13	13	9
88	136	1
164	164	1
160	161	1
131	131	9
138	138	8
158	159	4
169	169	10
46	47	2
159	159	11
48	49	3
71	71	7
94	95	6
102	104	4
166	166	13
110	112	2
105	106	6
128	129	4
130	130	5
113	123	3
23	23	3
69	70	5
63	136	2
93	94	6
47	47	4
12	12	8
84	86	5
105	170	1
141	142	1
86	89	1
162	167	2
82	82	6
123	125	6
155	155	5
26	26	5
114	119	2
154	154	3
124	165	1
165	165	12
116	117	4
91	124	1
17	18	2
112	121	1
109	112	2
95	102	2
6	7	4
114	114	8
39	40	5
40	132	1
75	147	3
46	166	6
145	146	1
48	48	4
150	150	11
50	50	11
65	65	5
61	62	1
117	117	5
63	63	4
78	78	4
165	166	1
79	157	1
74	74	4
111	116	1
35	36	1
45	45	2
84	84	6
103	103	7
116	116	3
71	74	2
34	34	1
0	0	5
166	167	3
57	62	2
70	96	1
85	86	2
134	157	1
5	127	2
112	146	2
69	122	1
35	41	4
21	114	3
56	158	6
44	46	2
143	144	1
100	120	2
100	102	1
125	125	4
146	146	1
119	120	2
148	148	6
3	3	2
135	135	2
141	141	6
154	156	2
82	83	2
90	140	1
35	45	1
136	136	2
135	153	4
56	136	3
127	128	1
6	128	1
9	9	7
84	85	4
20	26	2
16	18	1
119	127	2
119	150	2
57	57	2
21	89	2
20	56	1
93	129	1
22	24	1
40	52	1
98	118	1
77	93	2
11	12	4
80	170	2
156	157	3
27	27	3
54	54	5
71	81	2
40	40	7
22	22	8
41	68	3
139	145	2
80	80	15
3	45	3
17	90	1
95	96	2
45	70	1
52	168	3
104	105	4
72	127	1
91	120	2
62	63	5
78	117	1
56	57	2
142	143	4
40	51	3
41	103	5
99	127	2
155	160	4
17	163	2
18	19	4
22	26	2
151	151	5
126	149	1
149	149	3
91	105	1
138	141	2
18	18	2
45	48	1
13	86	2
100	104	2
98	99	4
65	68	1
112	114	1
24	54	1
164	165	1
97	98	4
162	162	2
51	84	1
106	107	1
65	80	2
70	85	4
69	125	2
71	131	1
92	125	1
159	161	1
148	149	2
20	39	1
55	56	4
101	103	1
134	153	1
58	134	1
100	105	2
104	128	2
72	119	1
70	70	5
139	139	2
39	51	1
40	41	1
93	93	3
140	140	4
49	84	1
130	131	2
132	133	3
73	127	2
37	56	3
83	97	5
68	69	1
49	166	1
64	64	5
17	26	1
147	159	1
74	148	1
67	98	1
4	27	2
85	115	1
161	161	1
90	91	2
113	114	3
148	159	2
18	20	2
67	75	2
35	38	2
51	51	4
11	40	1
118	119	2
58	63	1
136	138	1
75	82	1
47	49	1
122	124	1
14	21	3
41	101	2
97	105	1
7	38	1
55	158	3
112	113	3
95	113	1
19	48	1
74	113	1
82	95	1
149	155	1
116	118	1
142	144	4
132	151	2
168	169	1
124	125	1
103	112	1
40	49	1
37	38	2
44	45	1
152	153	3
155	156	2
39	50	1
49	56	3
124	130	1
20	34	1
112	131	2
14	16	1
151	152	2
105	105	2
74	75	1
88	160	1
19	22	1
83	131	2
15	91	1
49	168	1
18	110	1
23	26	2
34	39	1
110	111	1
36	38	1
14	25	1
36	53	1
115	116	1
20	20	3
4	5	1
74	80	1
127	164	2
62	130	1
28	57	1
89	93	1
21	22	1
75	114	1
130	133	1
114	120	1
92	128	1
56	155	1
20	89	1
75	117	1
168	168	1
57	58	1
114	115	1
36	40	1
148	160	1
142	142	1
108	109	1
85	116	1
114	117	1
