19	19	18
28	28	21
118	118	10
114	114	26
141	167	6
152	152	34
49	50	14
47	47	16
137	137	12
131	170	2
178	179	3
183	183	35
57	57	15
149	149	14
51	51	22
32	32	13
37	109	1
187	187	21
179	193	2
68	68	7
149	170	4
22	25	4
12	39	1
109	109	15
158	158	24
22	22	25
184	184	8
105	105	19
123	187	2
124	124	14
187	190	3
31	77	3
16	16	21
80	80	5
103	118	3
66	66	4
101	101	14
38	38	13
72	72	7
1	2	6
128	128	18
129	129	15
171	171	13
7	7	13
134	143	3
73	73	10
155	155	12
181	182	10
135	135	8
55	86	1
160	163	5
10	10	17
163	164	7
176	183	4
40	57	1
166	166	14
113	113	13
43	43	7
23	23	19
174	175	15
158	159	12
37	37	11
147	147	21
82	83	10
143	172	1
8	8	13
49	55	3
176	177	8
56	57	2
136	137	2
148	155	2
138	138	13
133	133	10
9	9	12
130	170	10
32	69	1
44	44	15
26	130	3
9	10	4
43	44	12
19	54	2
103	103	17
161	161	22
2	182	2
119	119	15
189	189	18
100	100	25
27	62	1
170	177	3
167	167	17
71	80	3
37	150	2
123	123	16
12	13	2
131	131	12
99	116	5
5	8	3
112	112	19
165	167	2
123	124	10
36	36	17
54	54	14
115	116	4
108	108	16
151	151	21
175	175	16
11	11	17
122	122	6
128	129	3
4	6	4
129	152	2
109	118	3
112	140	6
170	175	2
161	163	3
58	58	11
53	53	16
144	145	5
61	63	3
24	24	21
189	190	5
190	190	8
143	159	1
2	3	8
142	143	8
150	150	13
151	154	1
107	108	8
30	30	16
145	145	12
13	14	4
32	33	4
143	143	10
182	186	1
21	21	10
172	172	19
15	15	8
59	60	1
115	115	22
48	48	11
72	73	5
195	196	3
139	139	13
99	102	2
97	97	6
73	80	3
146	168	2
143	144	6
25	25	17
102	136	6
112	130	3
134	134	13
6	6	7
193	193	13
165	180	6
81	81	8
110	110	16
94	95	2
187	195	5
142	142	12
34	37	4
125	125	11
46	46	10
62	64	10
74	74	8
156	156	21
148	148	2
2	2	6
180	185	2
137	138	7
84	85	4
179	180	5
171	172	13
33	33	9
179	197	1
178	178	18
166	169	3
143	166	6
59	59	16
104	105	4
11	12	2
165	166	16
34	34	8
120	121	7
196	197	10
77	78	6
5	182	1
15	17	3
186	187	9
164	164	12
153	153	20
179	179	18
6	19	3
191	191	15
180	180	10
71	72	4
88	88	6
42	43	4
160	160	18
159	159	21
153	180	4
181	181	18
17	17	7
88	97	3
149	160	4
99	189	3
130	131	7
186	186	11
188	188	9
167	168	5
138	186	2
184	185	11
0	58	1
145	159	3
120	120	18
143	193	4
125	126	6
94	94	12
13	13	9
182	182	12
4	4	11
109	150	2
46	47	5
192	192	17
6	7	19
1	1	22
43	194	4
12	56	8
29	29	13
31	31	14
160	168	3
157	157	17
31	43	15
59	191	3
107	107	17
125	127	2
5	29	2
132	132	13
22	74	1
174	178	5
99	194	1
156	157	4
144	144	12
3	4	8
185	185	14
26	73	2
0	170	6
146	146	15
186	190	4
114	115	5
34	95	1
108	110	6
108	111	1
153	154	9
184	186	3
169	196	2
112	115	1
156	159	1
22	23	6
101	133	1
16	17	8
126	126	14
27	30	1
133	134	11
93	93	7
86	176	2
177	178	11
140	140	8
112	139	4
197	197	20
13	23	3
150	155	2
169	169	17
19	74	1
23	25	2
57	58	2
152	153	6
34	159	4
190	192	8
40	192	2
111	141	1
176	176	13
59	61	10
8	9	4
173	174	3
182	185	7
40	48	1
79	80	4
26	26	9
152	168	1
144	162	7
167	181	5
69	69	13
116	118	6
133	155	7
105	106	6
170	172	3
106	106	13
173	173	16
5	156	2
93	94	1
139	140	8
2	4	4
82	82	5
147	156	2
52	52	20
129	130	2
73	74	5
194	194	17
158	161	2
65	76	1
37	193	3
195	195	9
191	193	4
142	158	2
78	79	4
28	158	2
14	14	13
149	150	10
43	53	3
117	117	6
71	71	8
152	179	1
168	169	9
17	18	8
154	154	15
194	195	8
39	40	5
27	27	10
36	37	7
9	43	5
45	45	8
141	164	2
69	100	2
83	84	5
179	181	2
42	58	3
146	148	2
164	165	4
128	136	3
142	145	3
34	170	1
24	67	1
55	55	7
9	42	3
148	149	2
86	88	4
69	71	3
104	104	8
90	90	2
40	59	2
176	178	9
64	65	2
116	116	16
117	118	4
67	68	2
42	190	1
111	112	8
99	101	2
64	64	5
196	196	13
40	60	3
20	20	11
130	154	3
32	40	2
0	1	4
40	41	8
143	168	1
151	177	3
113	173	3
154	159	2
50	50	9
121	122	5
4	5	5
42	73	3
162	167	3
12	12	6
38	88	2
147	148	14
27	28	7
107	117	4
132	136	4
102	104	6
65	66	1
98	98	2
101	135	1
35	35	9
127	128	4
143	145	4
102	158	3
35	36	3
56	56	5
112	113	3
0	21	3
127	127	10
172	176	1
22	38	3
3	17	1
98	103	1
111	111	2
137	139	3
40	40	4
168	168	12
39	39	5
5	7	4
128	141	2
190	191	3
150	151	2
122	187	1
93	97	2
95	126	1
109	110	10
3	3	7
103	171	1
98	99	4
94	96	2
20	35	1
60	76	1
18	26	1
51	52	3
105	162	3
20	27	3
5	5	4
192	197	1
147	181	1
162	164	4
58	64	3
157	158	8
129	131	5
61	69	1
123	126	2
149	168	4
70	70	5
99	99	8
177	177	15
61	62	5
96	97	5
193	194	7
134	139	1
18	18	10
105	118	4
170	171	6
8	140	5
150	152	4
152	155	3
145	160	8
156	158	2
8	39	3
89	89	8
155	157	2
19	35	4
8	182	2
12	43	3
163	163	5
99	100	3
130	130	7
26	27	3
41	74	1
102	178	7
160	162	1
65	68	3
170	170	13
141	141	8
20	51	2
133	142	1
140	142	5
155	158	3
51	53	2
102	103	2
138	170	2
121	121	12
172	178	2
106	141	1
187	188	3
38	99	1
41	41	4
4	78	2
170	178	1
101	183	1
132	138	2
142	144	1
175	176	6
5	6	4
10	32	4
42	42	8
41	62	2
162	163	5
114	138	4
31	32	2
4	50	2
13	38	2
142	172	2
95	95	1
8	38	2
154	155	1
182	183	2
25	28	1
104	106	3
113	145	2
61	61	1
49	49	9
174	174	5
186	188	3
139	177	2
50	51	2
27	59	2
78	78	7
165	165	17
10	14	1
42	195	1
0	0	5
6	28	1
67	67	3
173	175	5
17	24	2
101	102	2
62	62	4
33	35	3
161	162	4
94	97	2
151	185	2
179	182	4
107	110	3
3	182	1
162	162	17
60	60	3
11	13	2
39	96	4
55	57	2
76	77	4
34	35	8
96	96	8
83	83	2
33	37	4
172	192	2
159	161	3
151	152	3
7	8	2
113	114	7
61	64	4
70	71	6
180	181	3
149	152	3
53	56	3
45	71	1
44	53	2
135	136	8
20	77	1
9	14	3
11	44	3
173	181	3
17	31	3
194	197	1
4	183	1
6	8	5
111	122	2
79	79	5
153	177	1
131	147	1
136	136	6
135	137	5
80	81	2
148	150	1
150	171	2
19	22	4
58	60	5
15	16	5
74	76	2
103	105	1
29	99	3
130	132	4
171	182	1
67	71	7
188	193	1
143	154	2
54	55	2
190	193	5
108	157	1
81	82	2
37	94	1
58	59	1
180	182	1
181	197	2
103	136	3
45	46	1
129	137	1
159	160	4
20	23	1
26	28	1
170	174	2
105	149	3
10	16	2
134	136	5
62	63	4
166	167	6
46	72	1
111	113	2
160	161	3
12	29	3
162	189	1
15	36	3
192	193	1
114	127	1
28	29	2
46	49	2
41	42	2
86	86	3
23	69	2
111	140	2
101	105	2
173	196	1
21	29	1
109	111	1
3	73	1
131	163	1
90	99	1
109	151	1
4	169	2
22	75	2
4	73	2
22	24	2
60	61	2
134	140	1
126	127	1
101	168	2
161	165	1
55	56	2
168	177	2
19	34	1
99	171	1
112	121	3
16	157	4
25	26	6
31	140	2
164	174	3
76	76	5
29	146	1
24	74	2
174	176	1
52	53	2
88	90	2
155	160	1
167	178	2
88	98	2
116	138	1
40	42	1
29	149	1
103	169	2
4	182	2
149	167	1
132	134	3
104	135	3
19	55	2
191	192	4
44	194	2
118	135	2
70	94	4
71	73	1
131	134	2
77	77	5
133	147	2
151	171	1
35	193	1
184	189	2
10	30	2
102	102	5
145	154	2
169	170	4
189	194	1
54	56	3
32	72	2
174	177	2
25	66	1
56	66	3
164	172	1
124	125	3
10	31	1
116	119	2
42	60	1
0	2	1
30	57	3
95	96	1
20	34	3
130	166	1
22	40	1
155	156	4
113	121	1
163	165	2
93	121	1
112	146	1
127	129	2
150	169	3
63	65	1
132	133	4
164	166	4
186	193	3
115	119	3
53	54	1
101	142	1
24	69	2
18	19	4
70	72	1
148	183	1
121	126	1
110	153	1
119	129	1
23	38	2
185	190	1
20	28	1
18	61	3
165	175	1
4	8	1
172	173	6
133	170	1
145	146	3
63	63	1
184	188	1
151	153	1
143	161	2
24	71	1
88	93	3
104	157	1
50	54	1
87	88	1
171	183	1
106	139	1
9	188	1
4	181	1
10	13	1
10	11	1
113	140	1
112	116	1
53	70	3
24	72	2
134	137	2
103	178	2
170	182	1
108	109	2
153	168	3
150	183	1
87	87	2
19	21	1
145	152	1
26	40	1
116	117	1
29	42	1
188	189	2
98	105	1
39	192	2
88	89	1
118	154	2
189	192	1
153	155	1
154	171	1
58	61	1
38	39	3
132	147	2
144	151	1
33	42	1
147	155	1
34	131	1
142	167	1
164	167	3
35	152	1
9	183	1
167	179	1
41	46	1
54	86	1
185	187	2
120	126	1
146	147	2
75	75	1
119	120	5
28	62	1
103	104	3
183	184	4
7	132	1
147	169	1
161	180	1
24	25	1
84	84	1
85	86	1
37	38	1
111	115	1
20	21	1
107	128	1
25	67	1
23	24	1
176	188	1
19	20	1
151	179	1
171	192	1
48	50	1
12	14	1
145	148	1
172	175	1
113	116	1
45	58	1
151	155	1
121	123	2
40	73	1
143	179	1
116	131	1
173	176	1
29	31	2
124	183	1
28	67	1
113	181	1
148	152	1
25	74	1
41	48	1
149	151	1
33	128	2
96	112	1
0	4	1
98	135	2
110	111	1
122	125	1
87	100	1
134	135	4
107	111	1
66	67	2
182	196	1
15	38	1
27	51	1
10	38	1
43	45	1
34	67	1
47	52	1
80	85	1
142	157	2
102	144	1
5	140	1
37	44	1
171	173	1
102	108	1
37	96	1
94	114	2
84	179	1
27	63	1
113	115	1
23	30	1
169	182	1
173	195	1
24	140	1
131	132	1
119	128	1
150	158	1
113	120	1
87	174	1
