34	34	7
60	60	15
135	135	5
99	106	2
235	237	4
76	77	5
106	107	7
16	16	6
76	81	4
55	56	2
9	9	7
241	241	8
38	38	14
224	225	3
152	155	1
21	21	10
57	57	10
7	8	6
34	105	2
11	11	7
78	84	5
157	157	2
104	104	17
33	33	11
54	54	28
156	158	4
182	183	3
164	164	6
30	96	4
53	53	10
35	35	13
137	158	6
237	237	15
141	141	9
0	2	11
210	211	2
37	57	5
29	30	10
218	218	15
221	225	7
13	49	4
120	120	11
51	51	12
76	76	7
28	28	12
213	213	10
43	55	1
13	14	2
171	171	17
219	219	8
214	215	4
55	55	8
102	102	3
180	181	3
98	98	4
0	0	6
118	118	11
14	17	6
62	62	12
49	49	14
13	13	10
30	87	3
150	151	9
14	14	10
241	242	1
175	177	1
100	100	16
161	161	15
20	20	26
219	222	3
45	62	2
22	23	6
173	173	7
66	67	5
52	54	3
141	142	3
47	48	1
44	44	15
197	197	7
58	58	6
21	23	7
86	86	15
40	41	3
65	65	10
221	221	2
33	34	5
111	111	5
81	119	2
77	79	5
34	84	2
150	155	1
147	148	1
198	198	9
75	75	14
151	152	2
154	155	5
101	101	8
59	60	9
88	88	3
188	188	9
103	103	5
70	70	17
180	180	5
175	176	3
3	3	12
45	174	1
50	50	11
34	35	12
3	4	2
143	143	10
232	233	1
4	4	11
206	206	5
1	2	2
214	224	1
194	194	6
29	29	7
165	166	13
209	212	2
67	235	3
136	136	13
10	10	6
36	48	2
69	70	5
225	226	4
184	185	2
74	74	12
67	67	8
184	186	2
25	26	5
46	47	3
72	72	11
152	152	9
135	143	2
107	107	2
68	68	12
22	22	15
48	48	2
63	66	5
195	199	4
59	59	11
222	222	12
138	148	1
8	8	8
68	119	2
42	42	7
23	23	10
4	7	2
214	217	1
67	69	2
229	230	4
57	59	2
121	121	6
153	154	3
176	181	1
145	145	4
79	119	1
175	175	7
56	62	5
138	140	4
228	231	2
122	122	10
164	194	8
179	180	2
45	45	11
138	138	7
205	206	5
152	159	3
187	187	4
103	104	4
9	12	2
18	19	9
27	27	5
202	242	1
142	144	2
45	46	8
124	124	4
117	118	3
125	125	5
133	134	2
239	240	4
160	161	3
200	200	7
60	61	6
22	36	4
6	13	9
61	61	14
225	225	7
36	37	5
195	195	8
236	237	2
51	52	7
222	230	3
42	62	6
208	209	3
63	63	11
144	144	3
97	97	1
70	239	1
153	198	3
84	84	5
15	16	3
185	185	5
24	24	10
213	214	1
212	212	7
240	240	7
11	12	3
57	58	2
96	96	7
239	239	9
78	79	2
154	166	2
79	79	8
123	125	1
68	69	1
32	35	1
153	153	10
153	158	1
88	95	1
56	56	10
31	31	6
14	16	1
130	133	1
81	83	5
8	35	4
12	12	8
39	39	10
223	223	6
85	85	9
156	156	5
115	116	6
19	19	21
11	16	2
7	7	4
170	170	4
84	103	4
57	60	5
224	224	8
107	116	2
205	205	10
9	10	4
30	30	5
81	84	2
85	86	5
37	37	4
130	130	4
116	116	7
177	192	1
143	145	4
51	53	2
95	96	3
117	117	3
234	234	6
200	201	3
186	186	8
214	214	4
227	227	8
100	105	1
7	35	2
48	134	2
113	114	1
52	52	1
66	66	9
128	133	1
88	102	1
158	158	7
167	167	5
208	226	2
196	211	3
32	32	4
79	96	2
77	81	3
82	82	2
242	242	7
81	81	2
113	135	1
106	106	5
210	210	1
77	77	12
72	237	3
5	5	3
80	80	12
41	41	10
15	15	3
194	199	1
215	215	2
235	235	3
197	199	2
162	162	14
145	146	3
61	62	3
58	60	2
196	196	6
44	45	2
146	146	5
137	137	5
43	43	12
47	47	13
183	183	6
128	128	6
233	233	8
217	217	8
178	178	6
25	70	4
201	201	4
134	134	5
222	231	1
20	50	3
220	220	3
196	209	3
169	170	5
38	39	1
162	163	15
202	202	7
82	84	5
73	85	2
73	73	4
6	17	1
10	11	4
133	133	3
77	78	6
40	40	7
129	130	1
142	143	1
17	17	5
208	215	2
122	127	1
237	238	3
1	1	4
23	25	1
182	182	4
202	203	3
186	188	3
192	197	2
103	105	3
119	119	8
85	95	2
68	118	1
133	152	2
42	226	1
176	176	5
6	6	12
172	190	5
8	9	3
69	69	9
80	81	8
11	15	3
173	192	1
108	109	4
114	119	4
75	84	5
56	58	2
150	164	3
40	211	1
39	40	3
179	179	3
129	134	3
40	59	5
217	218	8
167	168	6
207	215	2
190	190	4
149	150	1
211	211	10
46	46	9
8	16	4
203	206	2
170	177	5
150	150	4
102	104	4
103	107	2
4	6	2
214	218	3
223	225	4
73	122	1
79	80	3
187	188	3
161	162	1
80	113	1
192	193	2
209	209	1
50	134	1
19	47	1
27	29	3
142	142	6
37	38	4
116	141	1
2	2	11
36	36	5
22	24	3
13	33	3
230	230	2
6	7	2
105	107	1
151	151	10
80	82	1
99	99	5
168	168	2
37	102	1
27	28	2
26	26	11
172	172	3
34	104	4
99	128	2
64	64	5
102	103	2
105	105	4
24	26	3
100	103	3
175	178	1
18	18	2
71	72	3
115	115	4
173	174	4
32	33	4
108	108	2
168	169	4
195	198	1
70	237	1
45	61	2
139	139	6
157	158	2
166	166	2
51	109	2
3	24	3
149	149	1
186	227	2
111	112	1
41	225	2
1	8	2
64	65	4
78	80	2
193	193	2
109	109	4
91	99	5
17	20	6
163	163	3
107	108	2
27	232	3
20	21	1
204	207	2
203	242	2
219	223	1
237	240	1
232	232	3
207	207	4
20	133	2
13	34	1
80	84	3
215	216	2
163	168	1
65	66	2
135	141	2
230	231	2
176	178	1
13	16	1
133	135	2
159	160	2
199	199	3
112	112	3
236	236	4
134	139	1
135	136	3
19	134	1
178	179	3
62	63	2
145	147	2
7	17	4
137	138	2
112	113	3
63	64	1
14	18	1
92	92	1
134	136	1
158	159	2
175	201	2
4	5	3
42	187	4
208	208	1
58	61	1
104	107	2
83	84	1
163	165	1
184	187	1
16	31	2
192	192	2
33	36	2
172	173	3
216	216	1
146	148	2
70	71	4
177	177	2
148	149	1
111	120	1
96	114	2
86	89	1
81	82	3
86	98	1
67	160	2
120	128	4
56	57	4
193	195	5
209	210	1
153	155	3
113	113	2
0	229	4
134	236	4
159	159	6
148	155	1
121	128	5
149	162	3
143	144	2
65	70	1
170	209	1
169	169	8
200	216	2
50	52	1
26	27	1
35	36	2
160	160	2
71	121	2
147	147	4
5	6	4
200	203	1
113	120	1
165	165	1
32	36	3
64	67	2
181	184	3
155	155	1
32	102	3
75	76	1
118	119	1
3	5	1
126	127	3
25	69	1
170	171	1
181	181	1
60	212	3
9	32	1
42	168	1
97	99	1
165	192	1
228	229	1
78	98	1
220	221	1
235	238	1
7	31	1
229	229	2
5	7	1
72	73	4
132	133	1
25	25	1
154	154	4
189	189	3
129	129	2
73	74	1
126	126	1
121	122	1
1	3	3
160	190	2
226	228	3
78	85	3
120	129	1
43	150	1
152	162	1
203	207	1
181	182	4
98	99	1
75	77	2
140	140	1
234	238	1
36	81	1
154	159	2
138	149	1
83	83	1
164	189	1
98	100	1
78	78	1
9	11	2
155	165	1
231	231	2
43	151	2
197	223	1
132	136	2
15	48	2
21	22	1
43	45	1
90	90	1
234	235	2
82	85	3
185	190	1
169	209	1
12	13	1
136	139	1
143	146	3
5	16	1
28	29	2
71	71	2
175	197	2
157	169	1
184	184	2
66	68	1
14	15	2
17	48	1
174	202	1
221	222	2
40	224	2
54	55	1
125	126	1
15	39	2
175	200	1
203	203	1
156	157	1
147	162	1
10	20	1
181	213	1
18	49	1
193	196	2
39	56	2
89	89	1
31	32	2
34	83	1
165	168	1
176	213	1
194	196	1
1	6	1
69	236	1
153	171	1
49	50	2
133	137	1
74	86	1
116	117	1
6	49	1
82	83	3
84	119	1
139	143	1
193	194	1
105	106	1
38	58	1
108	133	1
148	148	2
219	232	1
131	132	1
23	36	1
43	44	1
144	146	1
204	204	1
60	62	1
