107	107	6
105	105	2
83	84	1
23	23	8
123	123	20
96	96	14
109	111	5
4	6	1
95	95	4
98	99	2
126	126	19
17	18	6
109	109	9
98	98	4
35	35	11
76	76	3
121	122	6
116	116	7
102	102	5
121	121	13
130	130	13
129	129	20
21	133	2
71	71	13
25	26	8
140	140	14
134	134	25
26	26	10
99	99	10
126	127	3
130	131	8
37	37	8
13	13	14
128	128	14
102	109	1
132	132	15
127	128	6
101	101	13
101	102	11
18	18	3
30	30	4
22	23	1
11	108	3
131	131	15
136	136	6
118	120	2
117	128	5
77	77	2
139	139	12
78	105	5
72	78	6
5	12	2
122	122	20
93	100	1
10	30	4
120	121	5
88	108	1
29	30	5
31	32	2
119	122	1
13	15	4
75	77	6
108	108	8
19	20	6
23	26	4
93	93	5
76	77	10
33	33	14
82	82	5
83	83	6
21	21	9
120	120	9
74	74	12
33	34	9
124	125	8
37	38	2
97	99	2
114	115	4
113	113	9
88	88	8
73	73	6
127	135	3
138	138	4
16	28	3
78	79	3
100	100	3
25	25	2
90	90	8
1	30	3
85	86	4
104	104	4
117	117	9
0	109	5
15	17	1
115	115	3
4	4	2
3	4	7
128	130	2
105	107	2
92	103	2
127	127	10
3	5	5
8	8	2
111	111	11
12	15	2
12	36	1
105	119	6
71	109	3
123	124	4
1	5	2
28	29	10
1	9	2
103	103	4
79	130	2
118	118	4
93	105	3
10	12	1
73	119	3
3	3	7
94	94	6
122	123	6
78	104	4
16	16	5
100	125	2
98	126	1
81	81	4
96	133	2
31	31	7
127	130	2
133	134	4
19	19	10
119	119	3
133	133	15
120	122	2
80	104	2
73	74	6
12	12	16
9	30	2
5	5	6
131	132	4
127	129	2
95	96	4
2	2	7
128	129	6
88	102	1
100	108	1
129	130	2
110	111	9
114	114	8
95	97	2
90	125	1
27	81	3
115	126	4
109	110	1
124	128	4
84	85	1
24	24	2
118	119	2
94	112	3
7	8	1
94	132	3
75	75	8
111	116	3
71	111	2
94	101	1
4	16	1
38	38	8
20	20	6
27	27	11
86	86	5
35	36	1
23	24	4
97	98	2
125	125	9
29	29	8
7	7	8
36	136	2
80	80	5
8	9	2
104	106	4
89	90	1
14	14	5
110	110	10
85	85	6
72	72	12
137	137	8
125	136	1
135	136	3
36	36	5
110	113	4
17	17	9
10	10	5
9	9	8
74	75	2
24	30	3
35	80	1
6	7	3
106	106	5
109	120	1
116	130	3
17	20	3
34	34	6
79	129	1
135	135	6
11	12	5
20	27	1
27	33	1
109	113	2
137	138	4
3	37	2
10	11	4
136	138	2
2	30	2
15	15	4
5	16	1
93	94	1
73	77	2
88	90	1
69	108	2
91	91	8
124	124	8
89	89	12
15	96	4
88	92	1
10	32	1
10	31	2
93	112	1
13	14	2
79	101	3
21	23	1
15	104	1
1	1	2
104	105	4
31	38	3
6	6	7
14	103	1
97	97	6
132	133	3
132	135	8
106	121	2
12	22	2
20	21	5
21	22	1
17	32	4
79	80	2
125	126	3
78	108	1
1	2	2
0	38	1
25	81	1
105	108	2
0	1	2
11	11	2
14	15	2
93	101	1
91	111	2
110	125	1
94	129	4
78	78	1
13	38	1
78	101	1
136	137	2
80	103	1
75	76	1
116	117	1
90	91	6
103	104	4
82	103	2
103	129	2
135	140	1
0	113	2
87	102	1
108	109	2
10	89	2
81	82	4
16	20	1
71	72	1
131	133	1
84	84	3
101	125	1
2	29	3
87	87	1
101	104	2
138	139	1
92	106	2
88	134	1
28	28	2
26	118	1
113	115	1
84	118	2
71	75	1
5	11	1
7	9	1
117	119	2
83	85	2
107	109	1
100	101	1
17	19	1
75	106	1
79	116	1
84	102	1
88	139	2
22	22	1
79	104	1
38	65	1
120	124	1
111	113	2
11	23	1
12	17	1
24	32	1
15	103	1
3	36	1
127	137	2
110	138	1
119	120	1
92	95	4
74	77	1
13	37	1
108	115	1
68	119	1
112	113	1
12	13	2
130	133	1
31	106	2
86	117	2
9	31	1
90	110	1
71	113	1
80	82	2
14	37	1
111	133	1
96	128	1
104	107	2
2	3	1
14	93	1
94	104	1
