74	75	3
52	52	5
106	107	5
69	70	7
29	29	13
90	90	15
45	45	6
49	49	6
84	84	4
43	43	11
75	75	2
25	31	2
81	82	4
94	94	6
46	46	8
62	63	2
67	67	8
106	106	9
64	65	3
41	41	12
64	67	3
31	31	13
21	21	7
87	102	3
109	110	13
63	70	3
22	25	1
39	40	1
57	57	4
74	76	3
85	111	4
82	84	3
90	92	6
80	80	6
21	22	1
82	83	2
71	71	6
109	109	4
78	78	4
88	91	4
106	109	1
54	54	8
31	59	4
74	74	10
96	96	8
110	111	5
44	45	1
88	88	3
26	28	2
80	106	1
79	82	4
53	54	1
72	72	3
68	70	2
30	30	8
27	27	8
101	101	7
105	106	4
50	50	7
36	39	5
85	86	7
55	55	7
110	110	12
21	25	2
55	70	5
27	29	2
87	105	2
97	98	4
36	36	4
81	81	5
51	52	1
114	114	4
90	109	4
62	73	2
62	62	2
26	26	8
73	73	6
37	38	2
85	85	5
40	40	3
43	45	3
20	20	8
77	77	13
75	97	6
108	108	8
107	108	2
88	90	2
30	61	1
63	63	3
65	66	5
113	114	2
61	61	3
76	76	8
34	34	3
92	92	5
28	28	5
80	81	2
68	69	3
70	70	10
42	43	1
86	87	5
32	33	3
86	86	5
103	105	1
66	66	5
95	99	4
47	47	4
99	100	3
113	113	2
30	31	4
29	59	2
53	53	4
72	73	5
90	91	3
58	58	2
93	93	7
79	79	4
92	93	10
44	44	5
79	80	4
39	39	6
79	108	2
32	32	1
76	77	4
59	66	5
56	56	8
59	63	1
69	71	1
92	112	3
53	69	2
36	37	5
102	104	2
38	38	6
48	48	3
64	66	3
33	35	3
55	56	3
54	70	2
60	60	5
71	73	4
71	72	2
53	57	2
105	105	6
29	30	2
75	76	3
35	35	3
107	107	5
50	51	3
72	96	2
91	91	7
20	21	2
101	107	2
51	75	5
92	99	4
51	51	6
59	84	2
24	25	2
89	89	3
83	83	9
112	113	1
65	65	3
58	59	2
94	95	2
53	62	1
82	85	2
57	58	2
111	111	2
77	100	1
103	103	5
23	23	1
95	95	3
101	102	4
112	112	5
95	101	1
69	69	4
83	87	1
60	61	2
101	103	5
24	24	3
27	28	3
60	77	1
100	100	2
22	22	5
35	37	2
104	106	1
47	49	1
60	83	1
32	59	1
102	103	2
99	99	2
33	34	1
85	88	4
66	68	3
115	115	2
98	99	1
22	23	2
77	78	5
96	97	2
66	67	1
81	104	1
86	89	2
38	39	4
64	64	2
102	102	4
65	67	1
28	39	1
78	79	4
47	48	2
77	84	1
83	84	2
77	92	2
25	25	1
30	42	1
59	82	1
29	31	3
67	74	1
104	105	1
89	90	1
61	65	2
95	96	1
97	97	2
25	35	1
42	42	1
55	57	1
84	100	1
89	91	3
105	107	1
92	98	1
106	108	1
87	87	2
61	62	1
36	38	1
60	82	1
49	50	1
33	33	1
89	105	1
37	37	1
60	68	1
81	83	1
