70	71	4
106	107	5
13	67	6
14	26	2
125	126	3
130	130	4
53	88	2
80	80	3
21	21	9
112	112	11
26	26	3
101	101	9
84	85	3
110	111	4
121	121	4
127	129	5
9	9	8
70	70	12
124	124	6
104	112	3
122	122	4
39	40	4
7	7	13
20	44	2
131	131	3
40	42	2
115	116	2
48	48	8
4	5	5
1	8	3
2	5	1
33	34	3
2	2	7
75	75	6
76	88	4
84	84	5
12	14	1
28	30	2
4	4	9
87	88	2
78	78	3
11	12	9
105	105	8
18	19	4
27	27	12
128	130	5
45	47	1
99	117	2
39	39	10
65	65	4
127	127	7
108	130	5
0	1	1
97	98	7
102	103	2
19	19	8
40	61	1
17	29	4
81	81	13
59	59	11
45	45	3
52	52	32
60	60	6
99	99	8
96	96	5
68	68	10
12	81	1
32	34	2
117	118	8
81	92	4
63	63	5
72	72	10
54	54	10
0	9	2
68	73	2
6	7	1
113	114	1
44	44	10
25	25	15
85	85	9
104	104	13
0	0	7
56	62	4
89	89	2
18	22	1
51	52	2
128	128	5
99	114	6
123	123	5
104	111	9
118	118	1
32	32	6
16	16	3
47	48	8
14	68	2
15	15	5
20	20	2
49	49	13
76	76	11
41	41	6
108	111	4
99	100	1
109	109	6
19	20	4
47	47	12
25	59	2
12	78	3
61	61	3
75	130	1
15	18	3
3	3	3
94	94	7
126	126	5
72	74	10
112	113	2
38	38	9
50	50	5
58	58	8
100	102	3
117	117	9
120	120	13
126	127	5
8	8	7
58	59	5
93	93	1
2	6	2
42	43	2
79	81	1
114	114	3
56	56	11
43	43	7
4	12	1
101	114	2
76	79	2
77	78	2
4	11	5
29	29	3
14	15	4
111	111	9
28	28	2
33	33	5
57	57	5
13	14	2
22	22	3
60	61	4
27	57	1
80	81	3
64	65	2
40	46	5
97	115	1
0	22	2
2	8	3
66	128	1
121	122	3
98	125	1
86	88	2
119	119	4
102	104	1
29	32	2
95	95	8
100	112	3
132	133	3
106	106	6
12	12	5
55	55	4
69	69	5
29	30	4
48	75	1
67	126	3
74	74	10
72	102	2
26	27	2
34	44	1
18	18	3
14	14	5
17	19	2
15	68	1
113	113	5
15	32	4
94	95	2
133	133	6
40	40	6
53	53	11
77	77	5
4	7	3
129	129	6
67	67	3
91	91	4
6	6	9
98	98	1
14	130	2
1	5	4
103	108	1
13	13	8
25	26	7
96	114	4
97	103	2
82	82	7
125	129	2
103	104	3
19	21	3
116	116	5
62	67	1
66	66	3
13	65	3
27	28	3
110	113	4
92	123	1
34	55	1
110	110	3
108	116	1
53	54	1
130	131	3
13	68	1
14	78	3
101	115	1
100	100	9
41	42	5
65	94	1
87	87	5
90	90	6
33	42	1
108	108	3
1	1	7
106	111	5
73	85	3
52	53	4
115	115	2
15	67	1
129	132	1
125	125	8
13	15	4
42	42	2
17	17	5
18	68	1
67	68	4
79	82	1
65	66	7
11	11	6
113	115	1
46	47	3
72	73	5
79	89	2
125	130	3
98	116	1
15	16	1
132	132	5
81	85	7
98	117	1
79	79	3
76	119	2
14	75	2
25	33	2
5	24	2
30	30	7
46	46	5
64	64	4
98	119	3
69	70	1
67	73	2
1	20	1
66	96	1
3	4	1
23	30	2
71	71	5
9	27	3
2	3	3
5	6	1
73	73	4
7	29	1
102	115	1
18	100	1
12	13	3
49	50	1
0	50	1
1	32	1
16	18	2
19	112	1
71	72	1
104	119	4
66	125	1
111	115	1
42	44	3
54	64	2
5	5	2
86	86	2
23	23	4
131	132	2
78	87	1
11	78	1
60	62	5
14	69	2
101	103	2
98	101	1
51	51	3
3	7	3
70	80	1
107	133	1
90	91	3
79	126	1
89	90	1
47	65	2
97	118	1
46	63	1
93	96	1
92	92	1
83	83	1
105	117	1
10	10	3
16	17	1
40	43	2
73	101	1
16	129	2
91	93	2
44	93	2
128	129	2
8	9	2
73	74	1
66	72	2
16	21	3
118	119	1
127	128	2
69	90	2
102	102	1
85	86	1
9	10	2
82	83	1
80	92	1
24	24	1
94	110	3
76	89	2
103	105	2
88	88	2
89	91	1
3	77	1
66	129	1
83	84	1
54	56	1
129	130	2
1	64	1
109	125	1
80	90	1
61	62	1
68	69	1
39	44	1
66	68	1
3	6	1
54	63	1
118	120	1
11	13	1
22	28	1
63	65	1
70	89	1
28	29	1
64	126	1
