99	101	1
171	171	23
90	90	5
25	25	50
37	38	6
64	64	11
7	9	12
53	53	14
101	101	25
166	166	17
11	12	16
133	173	7
3	3	42
139	151	6
23	25	16
58	58	23
9	13	3
63	63	19
18	18	40
150	151	4
35	35	28
14	15	11
33	34	9
95	104	3
37	37	64
9	9	26
121	127	10
144	145	10
59	59	16
15	15	42
149	149	40
29	29	43
10	13	15
147	147	32
141	141	17
145	154	3
21	32	5
160	160	15
6	6	46
109	116	4
1	1	30
4	5	16
72	73	7
17	17	44
20	20	36
16	75	5
165	165	10
170	173	4
64	80	2
21	21	18
10	10	51
36	36	25
66	67	11
61	62	2
60	60	20
98	98	13
3	103	2
100	100	9
5	5	64
155	156	6
150	150	20
120	121	12
7	7	33
77	77	9
104	104	28
12	12	25
14	34	1
52	53	16
176	176	24
27	27	34
5	14	2
2	6	6
25	28	10
171	173	2
43	44	19
125	125	22
131	131	30
15	16	40
169	170	10
86	97	9
134	134	23
116	116	12
13	13	35
57	57	16
71	71	20
78	78	33
133	150	3
159	159	21
52	52	33
161	161	18
106	106	28
94	95	10
5	6	30
23	23	39
105	105	18
87	89	7
11	11	42
37	41	2
114	127	2
63	64	8
88	119	1
7	8	19
127	128	6
157	157	29
156	156	13
0	0	19
124	124	17
15	66	2
14	14	59
40	41	10
123	124	10
31	31	36
22	22	20
160	162	5
137	137	21
122	123	6
26	40	1
16	22	3
41	63	2
13	16	2
128	128	11
33	33	25
72	72	22
81	81	12
152	160	1
26	26	19
119	127	4
53	54	4
37	39	3
28	28	40
126	128	8
177	177	11
36	37	13
144	144	9
164	164	25
36	41	3
3	13	5
27	29	4
158	159	12
124	125	16
6	11	7
20	23	4
167	167	20
138	138	14
8	13	4
1	2	18
112	114	2
88	88	18
139	139	29
39	39	39
54	55	3
114	114	22
8	8	24
34	34	22
153	160	4
5	7	12
91	91	14
63	71	3
7	29	4
90	92	4
40	40	23
140	147	1
124	126	6
42	50	3
65	66	16
130	130	9
109	109	12
2	2	44
11	15	7
50	50	15
44	44	21
112	112	22
129	129	24
4	13	1
128	129	9
42	42	45
102	102	30
158	158	27
144	159	2
21	23	13
5	8	12
44	46	1
96	107	4
140	140	17
21	26	8
19	20	12
135	151	3
84	84	8
57	58	4
41	41	28
170	170	15
75	75	16
32	33	31
82	82	12
133	134	7
171	172	9
121	122	8
30	125	1
111	112	8
59	60	6
66	66	10
121	121	26
41	42	20
145	145	16
76	76	9
92	94	2
99	100	14
15	20	3
8	9	14
28	29	16
169	169	13
170	171	7
87	87	16
31	43	6
178	178	9
93	94	1
112	113	7
127	127	16
80	81	9
50	51	29
148	148	18
16	17	28
12	16	3
20	21	20
167	168	8
10	31	1
26	28	20
67	67	19
95	95	22
111	111	17
27	28	13
165	175	1
45	62	4
92	92	12
142	142	9
5	11	4
136	136	11
87	99	4
113	117	5
17	18	16
92	93	7
155	155	17
117	117	20
41	60	3
82	85	2
103	105	1
24	24	33
141	143	3
24	26	5
74	74	8
28	100	5
118	168	2
108	109	12
96	114	1
107	112	3
70	71	6
12	38	2
74	76	3
51	51	13
19	19	8
102	103	5
162	162	15
27	30	10
38	38	22
24	41	6
179	179	19
172	173	7
43	43	32
61	61	13
54	61	7
133	164	4
97	97	5
23	26	4
51	62	2
39	40	15
31	32	15
167	178	5
110	111	18
30	30	30
30	33	3
15	17	4
83	83	18
4	6	10
134	137	1
38	39	16
153	169	1
2	3	20
24	25	26
6	7	23
41	64	3
14	24	1
20	22	9
119	128	5
5	26	4
133	133	9
131	132	10
152	152	13
42	43	21
122	125	1
22	23	15
2	4	6
75	87	3
129	157	3
64	71	1
61	73	1
14	18	1
79	79	12
113	115	2
112	129	2
26	27	18
110	112	2
16	16	44
26	83	2
58	70	6
9	12	4
77	81	4
116	118	3
169	174	1
36	42	2
31	81	3
50	58	3
0	3	2
8	11	3
19	40	2
110	130	5
35	36	12
77	78	5
96	97	3
8	43	3
143	145	11
103	103	11
135	161	2
134	136	4
19	23	4
143	144	12
55	61	4
25	26	17
67	73	5
74	79	8
174	174	16
111	113	5
96	96	22
168	169	10
116	117	3
72	74	1
154	154	17
33	35	11
108	108	20
148	152	2
167	169	1
94	94	13
119	119	7
84	85	7
55	55	13
137	149	1
8	26	7
156	163	2
132	132	4
93	93	9
4	4	33
177	179	7
0	13	4
146	146	24
81	82	5
68	68	10
28	30	15
174	175	8
159	160	3
81	88	1
121	126	3
30	122	2
157	158	11
117	118	6
134	149	9
126	126	7
21	29	2
83	84	2
38	40	4
163	164	4
39	41	4
152	154	5
51	60	3
76	123	2
89	90	11
90	98	4
151	154	2
17	27	4
173	173	13
15	24	3
89	98	1
84	86	5
58	59	6
152	153	15
124	128	2
4	9	6
127	129	1
101	103	3
114	117	1
12	13	13
107	108	6
154	156	7
123	123	13
0	1	5
121	134	1
81	89	2
133	135	7
163	163	12
54	54	14
18	19	14
172	172	16
17	34	2
40	50	1
45	45	13
71	74	2
18	26	7
142	143	10
89	97	3
18	34	1
153	159	3
32	34	3
162	163	3
148	149	15
125	126	3
118	118	13
70	70	3
142	144	3
118	128	5
0	14	5
73	75	8
8	10	6
178	180	3
56	59	3
21	22	3
7	31	1
114	115	9
146	147	4
154	159	5
33	36	1
120	120	7
32	32	25
151	151	13
35	37	1
16	19	1
115	115	20
51	52	2
146	154	3
104	112	2
161	162	11
7	41	1
143	143	14
98	101	4
165	169	1
85	85	9
65	73	4
55	56	5
103	104	13
14	25	2
135	135	23
23	24	11
3	16	4
165	167	2
3	4	8
68	101	3
127	153	3
4	42	1
135	136	5
30	31	19
68	72	2
0	39	1
25	85	3
14	19	5
103	107	8
3	36	1
2	33	3
163	166	1
135	160	2
11	18	1
168	168	21
34	36	5
4	34	1
13	15	2
57	59	3
63	65	4
58	95	1
153	153	19
157	159	4
61	72	6
86	86	9
99	99	9
43	45	6
148	150	4
163	171	2
171	174	6
74	75	3
153	162	1
176	179	2
11	63	1
154	155	3
104	105	5
1	37	3
16	18	8
56	57	10
40	45	2
13	14	8
89	89	13
38	90	2
109	119	1
50	61	3
91	93	4
41	43	8
113	120	3
124	132	1
1	36	1
142	145	2
174	177	2
38	144	1
33	40	2
170	172	3
29	63	1
65	67	3
113	113	13
159	163	2
76	80	1
110	110	10
134	150	4
9	62	5
171	176	2
44	45	1
109	110	2
1	7	2
141	142	2
100	101	9
45	64	5
23	38	3
107	107	12
56	56	8
11	35	2
17	23	5
54	58	2
28	81	1
32	39	4
95	96	4
79	80	9
157	161	2
77	80	3
70	93	4
145	166	1
9	11	11
151	153	4
105	107	4
151	156	4
4	44	2
21	42	4
140	141	9
98	143	12
140	142	3
12	14	6
58	60	1
109	111	2
125	128	2
67	92	2
115	126	2
76	78	1
115	116	1
139	143	3
132	133	2
5	44	6
85	86	6
165	171	1
19	44	2
13	66	4
124	129	2
25	81	2
153	154	6
9	16	1
20	31	3
55	57	4
28	83	2
58	71	1
157	163	2
25	27	2
31	100	2
53	59	1
35	41	2
74	78	2
32	37	3
40	42	4
21	28	5
165	166	6
54	56	2
62	62	13
19	36	1
49	57	2
7	16	1
46	46	3
73	73	12
19	30	4
76	77	4
105	106	10
83	85	3
133	172	3
173	179	3
128	147	4
96	102	1
29	30	18
147	152	6
121	123	1
72	94	3
10	61	1
98	144	2
75	76	2
44	64	1
67	75	2
66	74	1
10	11	13
147	148	4
21	41	1
110	131	2
172	174	4
24	27	1
72	104	3
108	113	1
75	79	1
88	100	2
54	57	6
78	124	2
76	178	3
9	18	2
1	3	3
79	82	2
91	118	1
149	151	1
66	75	5
105	121	1
88	89	3
53	60	3
7	45	1
76	79	4
3	9	5
172	179	2
16	23	2
20	33	2
14	16	3
52	61	1
18	23	3
130	131	3
107	109	2
4	63	2
153	155	3
51	61	3
43	53	3
104	113	1
16	24	2
28	82	1
68	71	5
108	131	2
49	49	6
31	33	5
65	65	4
174	176	3
173	174	1
132	158	1
174	178	2
18	20	3
91	92	8
24	32	4
19	38	3
4	21	3
166	167	6
78	80	2
135	148	1
113	114	3
8	18	2
162	164	3
175	175	8
127	152	4
78	79	4
132	168	3
79	81	1
132	150	3
68	74	2
106	107	4
94	104	2
176	178	2
117	165	7
12	63	1
12	44	1
81	87	10
141	144	2
22	28	2
22	25	1
80	80	13
144	147	2
95	114	1
151	179	3
1	5	1
44	57	3
139	140	4
65	74	1
6	31	2
120	125	3
42	44	4
128	156	2
159	164	1
70	89	2
23	28	3
32	35	1
35	38	4
52	62	2
179	180	2
108	130	2
21	40	6
117	119	3
2	7	1
52	57	2
29	33	3
136	160	3
1	33	1
13	26	3
17	19	3
82	86	3
9	63	1
29	73	1
164	166	3
125	127	2
4	7	2
64	65	2
24	38	6
115	142	2
122	122	8
12	15	2
56	68	3
91	94	2
149	150	5
31	88	2
75	78	1
154	158	2
121	125	2
53	93	4
101	102	5
137	173	4
116	144	2
173	180	1
128	130	4
130	135	1
145	146	7
41	45	4
15	19	5
21	25	2
78	138	1
42	51	2
17	41	1
2	11	3
141	166	1
180	180	2
20	40	3
20	39	2
29	31	2
96	105	1
119	121	3
26	41	1
2	10	2
83	86	2
19	35	2
114	130	2
137	138	2
130	159	1
172	175	2
123	127	2
105	112	1
97	136	4
32	36	3
62	63	4
64	74	1
13	49	2
176	177	4
13	22	2
31	82	2
93	104	1
133	138	3
138	159	1
96	108	1
68	145	1
79	114	2
42	45	1
53	57	1
95	126	1
15	18	4
19	22	1
93	110	1
34	35	4
9	15	1
17	21	1
153	158	3
94	131	2
107	172	2
164	167	4
56	58	2
82	87	2
11	16	2
93	102	1
95	105	3
3	6	3
10	35	1
97	98	2
175	179	1
97	108	2
108	161	1
89	93	1
26	29	1
23	103	1
95	98	1
117	163	1
108	110	1
86	87	1
68	92	1
6	66	1
175	178	3
28	31	2
169	175	1
109	113	3
91	95	1
87	88	2
159	166	1
135	137	2
112	130	3
153	156	2
57	60	2
157	160	4
18	45	2
177	178	6
17	28	2
95	131	1
30	34	1
3	31	1
162	165	1
87	100	2
3	34	4
35	103	1
10	15	1
177	180	1
77	84	1
115	117	3
31	41	3
151	152	3
154	164	2
157	164	2
135	158	1
114	126	3
25	143	1
9	19	2
29	32	2
23	27	2
3	58	2
148	151	2
16	20	2
120	129	1
101	122	1
169	172	1
132	174	1
6	13	1
24	30	3
150	154	2
108	160	2
3	5	2
144	146	1
22	29	2
4	8	1
14	38	1
23	44	1
132	135	1
3	10	2
103	106	1
80	123	1
113	159	1
119	129	2
18	28	2
138	139	2
2	9	1
129	135	1
141	147	1
11	13	2
6	10	1
23	31	2
136	154	2
78	118	1
26	30	1
97	113	1
164	171	1
20	35	1
104	107	1
18	101	1
62	65	1
6	30	1
77	96	1
139	142	1
35	45	2
171	175	1
7	11	1
170	176	2
6	8	1
88	98	2
115	118	2
23	33	1
29	36	1
122	126	1
118	127	1
71	72	3
101	108	1
141	164	1
46	62	2
13	50	3
122	124	1
134	159	1
77	123	1
7	23	2
9	10	1
138	171	2
113	123	1
107	113	1
133	168	2
39	49	1
55	59	1
57	61	1
80	114	1
7	12	1
153	161	1
10	12	2
98	141	1
134	160	2
88	96	1
19	26	3
133	162	1
79	97	1
19	21	2
118	119	2
33	37	1
12	23	1
78	115	1
2	20	1
45	46	2
6	14	1
79	83	1
22	63	1
51	53	2
24	34	1
11	14	1
150	152	1
11	34	1
49	50	1
60	61	1
107	127	2
63	66	1
147	150	2
100	145	1
13	35	1
168	173	1
21	37	1
129	130	1
18	24	1
31	99	1
97	109	1
78	83	1
134	176	1
6	9	1
91	96	1
2	45	1
140	151	1
138	174	1
14	27	1
