155	156	3
134	149	1
168	168	10
129	129	3
2	31	2
50	51	1
140	140	5
157	157	5
114	114	15
72	72	5
56	56	10
125	132	1
123	124	7
1	1	10
8	9	9
138	138	11
67	68	3
126	153	1
86	89	2
18	18	8
136	136	1
58	58	2
172	173	1
7	8	5
103	104	4
26	29	2
72	74	2
154	174	2
87	87	2
20	20	5
40	40	3
31	31	12
51	51	4
14	14	21
7	7	4
0	1	4
120	120	10
57	57	7
35	35	8
6	7	15
63	63	3
12	12	16
133	133	4
38	38	12
8	41	3
26	26	4
138	139	3
166	166	3
16	16	6
134	134	6
25	43	3
73	73	6
12	13	8
65	66	2
121	121	2
62	62	4
116	117	6
155	160	1
137	137	12
25	25	12
159	166	4
153	153	4
168	169	12
5	5	11
115	116	5
133	134	4
156	158	2
19	19	9
171	171	6
33	33	4
3	3	3
4	4	7
24	24	8
146	146	6
13	13	3
6	6	9
85	85	1
28	28	1
43	43	15
147	147	6
33	34	11
22	43	2
39	40	3
109	109	7
11	12	3
95	118	1
134	136	2
64	65	2
1	31	8
8	8	9
33	36	5
177	178	2
165	166	3
45	45	2
97	97	1
135	135	1
112	112	8
164	165	2
53	53	11
80	80	1
57	94	3
155	155	7
30	30	8
100	101	5
22	23	2
18	19	5
24	25	3
4	15	4
174	174	2
76	96	1
136	172	7
49	49	1
5	7	5
110	110	4
102	106	2
10	10	6
138	153	1
2	2	6
50	50	7
25	32	2
156	159	1
32	32	3
36	36	7
73	86	1
116	119	2
171	172	2
2	7	6
108	109	2
53	66	1
28	29	4
128	128	4
78	78	2
20	42	2
2	10	1
74	74	1
2	3	4
126	148	2
83	84	2
137	139	1
158	158	7
41	41	9
178	178	7
31	35	3
165	165	4
70	70	1
144	145	8
9	9	7
32	33	5
61	61	1
13	14	2
17	42	1
13	18	3
11	13	2
86	86	1
4	6	1
30	31	2
17	18	7
124	132	1
27	28	2
149	149	10
10	11	3
125	125	1
39	45	2
94	94	6
104	104	1
15	15	10
154	154	4
33	35	2
77	79	5
153	154	4
82	99	2
166	169	4
147	149	3
74	75	1
72	84	1
16	41	2
131	131	1
44	44	4
160	166	6
150	151	3
142	144	2
50	94	1
8	40	3
148	148	3
51	53	1
19	22	4
11	14	3
39	39	2
2	4	2
159	170	1
3	9	4
176	176	2
62	110	1
99	100	4
155	174	3
3	6	1
119	119	6
26	28	2
36	58	1
56	57	2
124	124	3
160	160	1
67	67	4
155	161	2
75	95	2
15	16	2
66	66	5
107	107	3
1	2	1
37	37	9
107	111	1
151	151	6
95	95	5
166	167	2
173	173	3
1	34	3
123	133	1
8	19	3
50	63	1
29	31	2
92	92	3
129	130	3
16	17	1
31	42	1
152	153	1
133	147	2
22	22	6
21	21	2
23	40	1
167	167	3
58	75	2
23	24	3
70	71	3
14	15	1
142	142	5
29	29	6
8	22	1
52	52	2
55	55	3
41	45	1
151	162	1
106	107	1
105	105	1
102	104	2
25	51	2
101	102	1
146	147	1
180	180	1
140	173	2
147	159	1
96	98	5
177	177	1
163	164	1
122	122	2
18	46	2
123	123	1
37	38	2
143	143	3
170	170	3
59	59	1
137	138	1
17	31	3
51	88	3
67	127	1
1	10	1
23	23	3
103	103	2
63	73	2
137	176	1
27	27	5
88	88	1
41	42	1
51	99	1
68	68	1
82	82	1
8	17	2
34	34	4
172	179	1
96	129	1
127	127	4
135	136	2
3	7	2
59	60	1
91	91	1
145	145	2
27	45	1
78	79	2
145	157	2
172	172	1
156	156	1
164	164	2
104	105	2
7	24	2
108	111	2
9	10	2
43	45	1
132	149	1
65	67	1
109	114	1
145	146	1
76	76	1
91	104	1
131	133	2
38	43	1
42	42	3
134	151	1
111	111	1
91	107	2
111	112	1
176	178	1
135	154	1
169	169	1
161	161	1
162	162	2
175	178	1
81	81	2
124	125	2
156	165	1
126	126	1
139	139	1
44	45	1
54	54	1
27	29	1
1	6	1
10	42	1
39	42	1
17	17	1
139	140	1
73	85	1
64	64	1
