104	104	17
56	57	4
97	97	2
121	131	1
10	44	2
62	63	3
79	96	1
80	109	2
86	86	7
50	50	2
12	12	6
76	93	1
117	133	3
106	131	3
43	43	2
119	120	2
100	100	3
78	80	3
18	19	2
126	127	2
79	80	6
116	116	4
3	4	4
44	45	1
75	75	4
77	100	4
127	127	9
122	131	2
70	70	3
92	96	2
21	61	2
23	23	2
71	72	4
69	69	4
29	29	2
119	119	11
115	116	3
72	73	3
66	66	4
32	33	4
93	93	6
81	92	6
68	69	1
81	81	5
102	102	6
30	31	3
49	50	5
63	63	10
10	34	2
125	125	6
14	14	2
26	26	3
125	126	3
13	13	4
101	101	5
5	6	2
75	76	3
44	44	4
47	47	2
129	130	3
21	22	3
33	33	3
122	123	2
93	94	1
57	58	2
85	86	2
97	99	5
28	31	3
135	135	3
54	54	5
121	121	9
65	65	5
12	13	2
50	80	1
66	68	4
113	114	1
87	92	2
126	126	6
116	117	1
5	5	5
46	47	2
106	118	3
79	79	3
84	84	4
82	82	5
117	118	7
55	61	4
113	113	9
36	36	3
61	63	1
99	114	2
15	15	1
80	80	7
0	0	1
112	112	4
87	91	2
118	118	2
77	77	6
133	133	2
94	101	3
94	94	2
124	128	1
71	71	2
64	86	5
74	74	5
88	88	5
134	134	1
106	106	1
90	90	4
76	76	1
93	101	5
107	107	2
3	3	2
77	95	2
130	131	1
0	1	5
9	10	2
36	37	3
92	133	2
11	11	3
121	123	3
129	129	1
59	59	5
117	117	2
55	55	3
55	56	7
10	10	1
6	7	1
58	58	1
24	24	2
72	72	3
58	66	1
103	103	3
8	8	3
21	21	1
64	64	1
95	95	1
6	129	1
114	114	5
87	87	1
122	122	1
84	85	2
108	108	2
78	78	2
107	125	3
124	126	3
59	60	1
52	53	1
68	68	4
53	53	6
106	107	5
127	128	5
121	122	1
7	7	2
8	9	1
31	31	6
128	128	1
11	34	1
24	25	3
123	124	3
83	83	1
106	108	2
14	47	1
98	99	2
107	120	3
19	20	1
28	28	1
91	91	1
102	103	1
60	60	2
123	125	2
131	131	4
102	104	1
53	101	1
108	110	2
99	99	1
112	115	1
85	85	2
7	11	2
86	87	2
130	130	2
61	61	3
77	97	1
107	116	1
29	31	1
102	115	1
105	105	1
58	59	4
65	91	1
67	118	1
16	16	1
30	30	2
50	52	2
22	23	1
56	56	3
10	37	1
17	18	1
7	8	1
35	35	1
110	111	1
83	98	1
82	135	1
69	70	1
70	71	1
25	26	1
63	65	1
83	106	1
