71	72	3
32	32	9
37	41	1
56	56	9
0	1	1
12	14	5
79	79	5
48	73	1
0	0	9
34	34	7
68	68	9
30	30	15
27	27	14
75	75	16
8	9	10
7	16	3
1	1	14
2	2	16
59	59	19
67	67	17
73	73	7
38	39	4
74	75	10
64	72	5
6	8	1
74	74	29
56	57	6
46	47	6
18	30	3
54	55	9
50	53	2
42	45	2
33	33	12
66	66	22
29	30	6
62	63	2
6	9	5
7	7	19
42	42	13
10	10	11
58	60	4
17	28	2
29	29	7
10	14	3
55	55	9
65	72	2
18	26	2
14	15	6
50	50	10
64	64	9
47	78	2
55	56	5
21	21	4
61	61	18
59	60	1
47	48	3
18	18	2
41	41	14
31	31	15
79	80	3
62	62	11
17	17	6
26	27	7
46	54	1
1	2	4
45	45	11
47	47	7
33	34	3
25	25	11
35	36	2
41	45	3
26	26	10
60	60	10
65	65	9
16	16	5
58	61	1
39	39	22
9	9	7
19	19	17
64	68	5
14	22	3
3	3	8
3	4	14
44	45	4
6	6	26
14	14	4
5	5	15
55	72	2
76	76	21
70	70	9
58	59	2
35	35	6
8	14	1
36	45	1
37	37	17
28	29	5
57	57	4
63	63	5
13	13	3
58	58	17
28	28	6
45	74	4
80	80	13
49	49	14
8	15	1
77	78	5
53	66	3
69	69	4
49	54	5
12	32	4
38	38	10
60	61	4
36	37	5
4	6	4
5	7	4
63	64	2
36	36	3
17	26	3
3	42	1
73	74	4
27	28	3
51	52	9
75	78	2
48	48	7
43	43	7
9	10	2
31	32	5
65	66	4
59	78	2
72	72	9
70	72	1
67	70	1
7	8	5
74	77	1
78	78	19
48	49	2
53	53	8
30	31	2
73	76	1
32	33	4
54	59	1
2	39	1
4	4	10
36	48	2
27	46	1
19	30	2
35	49	4
74	78	2
19	20	4
75	77	5
13	15	1
67	68	2
12	12	5
46	46	5
45	46	2
71	71	5
68	70	5
77	77	4
5	6	5
63	66	2
66	68	2
42	43	2
74	76	1
54	54	7
33	50	3
76	80	2
41	42	2
26	40	2
8	8	9
25	26	1
52	52	3
49	50	4
64	67	3
59	62	2
72	73	3
40	40	3
34	36	1
50	51	4
49	53	3
49	51	1
59	61	2
76	77	2
55	71	1
40	43	3
20	20	1
65	73	1
34	41	1
51	51	1
5	9	1
10	12	1
64	65	2
38	43	1
61	62	1
15	16	2
37	43	2
53	54	2
8	10	1
75	79	1
0	9	1
66	70	1
2	3	1
8	17	2
16	18	1
53	70	1
4	5	1
13	14	2
2	6	1
55	65	1
12	30	1
6	7	1
54	70	1
28	38	1
