55	55	7
98	99	12
51	52	5
39	40	5
63	85	5
102	105	1
50	50	7
65	67	4
59	59	9
61	61	7
96	99	5
102	102	9
89	91	3
77	105	1
66	66	11
28	30	1
59	61	3
33	33	14
78	80	6
29	29	14
104	104	4
34	34	18
81	81	6
97	97	18
23	24	4
97	99	5
72	73	6
67	67	6
87	89	8
46	46	2
30	30	12
47	47	4
29	30	14
51	74	3
35	35	8
66	67	9
88	89	6
86	87	8
31	31	10
95	95	7
31	32	2
52	52	5
37	38	8
22	23	6
82	83	5
70	70	12
90	90	4
96	98	2
54	54	7
92	93	11
87	87	10
61	62	10
94	95	4
73	73	9
74	74	16
58	59	4
58	66	5
93	93	6
68	68	13
26	30	7
101	106	3
69	69	13
53	92	1
70	71	4
40	40	7
48	48	4
46	49	5
54	55	3
65	65	20
47	49	4
49	49	6
89	89	9
43	45	1
56	56	4
22	22	7
53	53	11
75	97	1
38	39	6
75	75	17
57	59	1
71	72	6
85	87	3
50	54	7
40	62	2
103	103	10
60	92	1
101	101	10
37	37	11
72	72	7
44	44	2
42	42	6
77	77	11
98	98	17
60	60	4
46	47	3
83	83	8
68	69	10
27	27	3
39	45	1
96	96	8
32	33	4
95	106	6
23	23	5
59	84	1
57	58	3
89	90	9
36	42	2
65	69	6
76	76	7
92	92	7
106	107	1
80	81	4
94	94	12
51	51	11
99	99	5
105	105	9
96	97	5
64	65	3
71	71	2
45	45	2
64	64	3
24	24	19
106	106	1
38	38	3
103	104	1
84	85	9
78	78	2
48	56	2
46	48	2
26	26	7
100	100	13
52	53	2
69	77	3
25	25	7
56	66	3
100	101	10
84	95	3
67	97	1
85	85	6
38	84	3
85	88	2
56	57	9
28	28	4
88	88	2
78	81	2
26	28	3
83	84	1
24	47	5
90	91	5
82	82	6
86	86	4
58	58	8
70	77	3
95	96	1
80	80	1
48	49	5
66	78	1
95	102	4
25	26	8
65	66	2
77	94	1
41	82	2
37	42	1
94	106	5
31	33	3
43	44	3
43	43	6
41	41	6
62	62	3
26	29	3
91	100	1
96	102	2
32	32	4
72	77	1
40	41	2
39	84	2
46	95	2
79	79	4
63	63	3
29	40	2
71	100	2
87	88	2
36	36	3
31	34	1
63	81	5
66	82	2
57	88	1
27	28	1
33	34	1
84	84	4
20	20	2
65	77	1
77	98	1
57	57	4
41	42	1
93	94	2
47	48	2
39	39	1
52	54	4
34	54	2
48	58	1
55	61	2
30	44	1
93	99	1
37	91	1
69	73	1
31	104	1
47	51	2
79	80	3
28	43	1
70	76	3
104	105	4
85	86	1
61	94	1
59	60	2
25	31	1
78	82	2
78	79	3
99	100	1
62	79	4
50	53	1
74	75	1
37	39	1
101	102	1
48	74	1
30	33	1
69	71	1
68	80	1
56	60	1
31	35	1
72	100	1
60	61	1
20	22	1
53	54	1
21	21	1
73	106	1
22	32	1
