37	37	5
32	32	4
95	96	3
43	43	5
69	69	7
91	91	12
97	97	16
21	23	2
101	101	9
47	47	10
100	101	4
58	59	1
42	42	26
113	113	11
31	41	1
111	112	2
98	98	10
29	29	12
20	31	1
52	100	4
26	26	16
108	109	14
83	100	1
107	107	13
103	103	6
29	30	3
68	69	3
94	94	3
43	44	6
20	20	12
27	27	10
99	99	3
104	104	11
65	66	2
44	44	10
30	31	4
65	96	2
63	65	3
41	45	2
88	101	1
20	24	4
21	21	8
34	46	1
109	110	5
106	106	6
87	87	3
79	79	3
28	28	6
70	70	4
59	59	14
111	111	8
47	92	1
41	44	3
31	31	5
92	92	8
93	93	3
89	90	8
45	45	14
112	113	3
85	86	3
52	52	12
70	71	2
52	53	3
48	49	4
34	34	14
22	24	3
72	73	8
108	108	3
67	69	2
105	105	4
54	54	4
46	47	1
75	75	7
35	36	1
23	36	1
34	35	2
83	102	3
22	57	2
97	98	2
50	50	16
81	82	1
64	64	2
86	87	1
85	85	4
89	89	6
90	90	4
77	77	3
60	60	5
51	52	8
44	45	2
75	76	2
74	83	2
22	22	9
78	86	2
30	92	5
83	99	2
61	61	7
74	78	1
42	44	3
63	63	3
96	96	2
93	94	3
46	46	9
82	101	1
103	104	3
51	51	6
50	52	3
40	40	4
65	65	1
33	34	1
26	46	2
100	100	5
78	78	7
83	83	2
41	41	11
73	74	5
68	68	1
25	25	1
55	55	1
28	29	1
109	109	6
76	77	3
32	33	1
84	84	4
48	48	2
44	111	2
89	109	2
44	49	4
21	24	1
105	108	3
31	50	4
110	111	4
41	111	1
41	43	2
42	110	1
100	109	2
95	97	1
71	71	4
72	72	11
114	114	3
57	57	2
81	84	1
82	82	3
102	102	4
102	103	3
61	62	2
42	43	1
50	65	2
88	88	1
66	66	3
73	78	2
35	35	2
74	74	9
49	49	3
95	95	3
73	73	9
56	57	2
115	115	1
67	68	2
112	112	3
40	42	1
47	91	1
27	46	3
60	100	1
55	56	2
98	99	3
37	50	1
91	93	2
56	58	1
47	48	4
26	27	1
69	71	3
24	24	1
58	58	1
110	110	3
68	101	1
107	108	1
33	50	2
101	103	2
30	48	1
88	89	1
58	60	1
94	95	2
32	39	3
51	93	2
64	96	2
55	58	2
45	46	1
41	113	1
89	92	1
80	80	1
87	88	1
31	45	1
28	31	1
42	111	1
90	91	1
52	96	1
27	28	1
80	83	2
78	79	1
73	98	1
62	70	1
104	105	1
49	51	1
40	41	1
45	50	2
87	106	1
29	88	1
21	30	1
