230	230	6
3	3	5
184	215	6
231	244	2
20	20	16
155	155	10
214	214	8
201	201	14
196	196	8
109	109	10
166	166	11
238	239	9
31	31	8
150	151	2
160	160	6
18	18	9
57	57	3
181	181	2
35	35	10
178	204	1
93	108	4
197	198	8
65	65	7
11	12	2
90	92	1
172	172	10
43	43	5
83	83	2
19	22	2
45	52	4
164	164	9
55	55	4
69	69	9
153	154	6
214	241	2
6	9	4
226	227	2
2	118	2
56	57	7
184	184	11
176	178	2
111	111	7
50	63	2
56	56	7
87	87	5
94	94	13
84	85	3
198	208	1
202	202	15
77	87	2
158	190	1
99	99	8
167	167	5
192	192	4
242	243	3
216	217	5
193	193	12
156	201	1
200	200	7
60	60	3
80	80	6
182	182	3
207	207	11
219	219	8
232	232	7
84	91	2
154	154	13
47	47	3
25	25	4
19	19	10
62	62	11
243	243	3
194	194	10
164	165	2
206	206	12
227	245	1
10	10	9
57	58	3
210	211	4
170	170	14
157	157	3
106	106	4
81	81	6
190	190	5
117	117	13
39	39	11
211	211	4
179	185	2
54	54	6
214	215	3
15	15	6
9	9	6
27	27	4
61	61	2
247	247	8
80	81	2
112	157	4
211	219	4
151	151	8
198	215	2
212	241	3
71	71	6
145	145	8
64	112	1
37	39	2
114	244	2
3	47	3
111	114	3
184	185	3
74	74	6
237	237	9
34	34	4
212	212	9
199	207	2
16	16	9
117	146	2
7	8	1
242	242	12
37	38	1
176	176	14
98	98	7
161	161	11
97	97	4
72	77	7
90	90	12
186	188	4
171	171	5
71	74	1
80	101	2
23	23	9
173	173	11
169	169	8
121	121	1
204	204	3
153	229	2
58	58	10
220	220	6
156	156	8
191	192	4
166	232	3
2	3	1
23	31	6
48	48	1
158	172	2
5	5	12
239	239	4
210	210	10
248	248	2
43	44	1
112	112	14
178	178	9
157	165	1
178	179	4
41	41	4
105	105	6
221	221	10
76	76	8
199	199	4
120	120	4
12	16	1
185	185	7
44	44	8
18	30	3
191	191	6
36	47	1
15	16	1
68	68	6
217	217	3
183	183	8
38	71	1
240	240	11
116	116	19
225	225	3
174	174	8
189	194	1
200	211	1
32	32	2
209	209	5
46	46	8
39	87	3
153	153	4
163	163	4
0	1	1
211	213	1
206	207	4
169	171	1
112	113	5
189	189	3
198	198	2
70	151	1
201	207	2
96	97	2
79	79	2
60	90	5
174	194	2
180	204	1
100	101	4
37	37	9
225	226	4
5	243	1
246	246	10
22	22	9
14	234	1
66	66	3
7	7	6
229	230	1
104	104	2
236	241	1
10	14	1
25	26	3
205	205	10
113	114	7
214	217	2
239	241	3
63	63	7
62	75	1
49	49	4
53	109	1
233	235	1
84	84	7
1	1	3
203	203	14
28	28	8
75	77	2
178	182	1
157	158	5
65	66	2
187	190	2
82	83	5
51	94	4
50	50	7
152	152	13
205	206	2
218	218	5
109	117	3
115	115	3
50	62	1
159	163	2
29	29	4
13	14	1
159	159	3
226	226	3
101	106	1
245	246	6
79	80	3
14	15	1
14	14	2
157	210	2
203	207	1
182	183	2
223	245	1
75	75	7
8	8	7
238	238	8
180	181	3
113	113	13
186	187	3
24	24	9
204	205	5
175	175	9
208	208	4
221	222	7
199	200	1
63	185	1
59	65	4
47	48	1
77	77	8
160	161	2
168	168	3
222	222	10
178	234	2
221	225	2
232	238	1
19	20	4
119	119	7
30	30	6
83	84	1
103	103	5
106	108	1
237	238	1
107	107	6
176	191	1
4	34	3
86	93	1
93	93	7
7	223	1
28	29	3
176	228	2
102	102	7
51	51	2
71	90	4
197	200	1
236	236	15
49	58	4
211	212	7
188	189	4
197	197	8
7	11	1
118	157	3
5	72	2
193	198	2
220	221	3
186	186	4
162	193	1
185	186	3
85	85	7
91	91	7
6	6	3
95	96	1
159	171	1
219	231	2
47	214	1
32	40	1
86	86	3
152	165	8
44	45	3
223	223	3
234	234	4
17	162	1
95	98	4
197	204	2
37	62	1
145	146	1
244	244	7
101	101	14
100	100	11
48	75	9
96	101	1
82	82	3
229	229	4
42	42	3
77	78	1
2	2	2
193	194	4
184	190	1
165	192	3
21	21	3
175	181	2
249	249	2
158	158	3
36	172	2
213	214	6
179	232	1
190	194	2
150	150	7
196	197	3
190	191	7
17	17	7
92	92	10
179	179	4
200	201	1
160	234	2
8	9	2
26	26	4
213	213	11
41	146	1
115	149	2
97	98	3
243	244	3
17	55	2
165	165	10
94	95	1
175	226	2
228	229	3
188	188	7
180	180	10
4	4	3
176	177	3
167	198	3
15	109	1
241	241	5
149	170	4
163	166	2
245	245	3
182	208	2
89	108	2
56	94	1
173	211	2
35	44	1
165	166	2
69	70	2
78	79	2
171	191	1
45	45	3
67	69	1
231	231	2
114	114	2
88	89	5
209	210	3
51	73	1
194	213	2
217	218	3
114	115	1
36	36	7
95	95	3
66	67	2
61	71	1
17	227	1
109	110	2
10	164	2
110	110	4
226	228	1
76	247	1
39	53	1
152	153	2
16	43	1
245	247	1
175	178	3
182	184	1
113	115	1
172	173	5
165	186	2
208	209	2
12	38	1
109	111	3
145	166	2
201	202	2
59	60	1
115	145	2
38	39	2
24	225	3
167	200	1
3	48	1
217	241	5
210	213	2
227	227	2
225	244	1
19	76	3
75	86	1
70	70	2
167	168	2
175	195	1
30	34	2
58	63	2
114	245	4
181	183	3
13	152	1
5	14	2
55	57	3
194	203	2
106	107	2
72	90	3
78	78	8
174	197	4
38	38	5
227	228	1
191	210	2
120	176	1
59	237	1
146	146	2
67	68	1
231	232	1
51	52	1
59	59	7
151	152	1
230	231	4
202	207	2
39	72	1
187	187	2
96	96	4
163	248	2
248	249	2
171	173	1
162	163	1
151	207	1
119	187	1
105	107	2
216	216	3
189	191	3
162	162	6
151	153	1
218	219	2
171	181	1
182	234	1
63	65	1
116	117	4
203	204	1
88	88	5
118	120	2
170	189	3
70	224	1
47	51	2
163	180	2
65	71	2
160	163	1
72	72	4
170	220	1
52	53	1
145	169	1
108	108	2
37	241	2
188	190	3
223	224	1
70	77	1
72	92	1
240	241	2
174	184	1
108	109	3
199	222	1
37	58	1
228	228	1
193	207	1
20	22	1
81	93	1
181	196	1
75	83	1
194	211	1
90	91	5
68	69	1
38	73	1
219	225	2
173	197	1
1	78	2
219	237	1
63	71	1
213	241	2
93	94	1
19	155	1
53	94	1
33	33	3
102	103	1
158	171	2
78	87	1
163	165	4
169	170	1
73	73	3
208	215	2
195	196	1
220	239	1
164	166	2
89	89	3
99	100	2
147	147	1
26	226	3
66	90	1
10	46	2
246	249	1
193	197	1
177	177	2
165	171	1
54	55	2
45	150	1
193	224	1
108	237	1
164	194	2
15	204	1
206	211	4
58	59	1
6	19	1
84	110	1
2	13	1
224	224	4
40	44	1
25	53	2
94	178	2
87	107	1
13	13	1
172	192	2
166	228	1
56	59	1
50	91	2
192	193	1
29	30	2
95	103	1
11	11	2
66	91	3
147	163	1
163	171	1
105	119	3
70	81	2
11	33	1
176	182	1
18	77	1
171	172	1
177	183	2
73	102	1
4	76	1
30	48	1
215	242	1
150	229	1
118	119	1
189	190	1
188	221	1
25	79	2
158	211	2
48	60	1
50	51	2
26	27	1
208	211	2
152	175	1
176	181	2
72	212	3
93	110	1
160	162	1
22	25	1
216	218	2
224	226	1
120	210	1
159	166	1
197	215	1
71	72	1
177	182	1
3	6	1
232	248	1
163	164	1
93	98	1
161	163	1
51	72	1
4	5	1
42	43	2
233	233	2
194	195	1
93	115	1
35	62	1
98	99	2
181	197	2
62	63	1
241	242	1
235	235	2
73	90	1
182	193	1
85	174	1
67	234	1
112	228	1
223	229	1
223	225	2
40	40	2
114	147	1
166	167	2
107	108	2
115	117	1
166	169	1
175	176	1
107	119	2
161	166	1
161	169	1
218	245	1
159	172	1
4	112	2
166	168	1
80	92	1
109	113	1
156	179	1
50	78	1
222	224	1
76	77	3
232	233	1
20	115	1
45	46	1
180	198	1
115	116	1
46	48	1
74	80	1
71	80	1
120	237	1
67	67	2
63	64	1
27	150	1
37	47	1
154	155	1
159	160	1
118	118	1
60	61	1
74	103	1
46	53	1
59	61	1
160	166	1
10	19	1
219	245	1
70	72	1
35	57	1
198	199	1
188	191	1
144	145	1
181	208	2
195	195	1
34	35	1
104	105	1
30	62	1
19	31	1
160	169	1
159	209	1
33	58	1
