71	71	16
42	42	16
75	75	26
38	38	12
91	97	3
96	98	10
65	66	26
40	40	15
84	88	5
88	88	28
65	65	25
51	51	22
66	66	29
76	76	21
69	69	16
52	52	32
100	100	15
49	50	7
80	83	4
49	49	20
39	46	3
91	91	21
99	99	26
73	73	11
70	70	16
67	70	5
56	56	21
35	35	17
82	82	9
62	62	12
67	67	12
59	59	17
100	101	6
42	43	23
97	97	14
48	62	2
66	67	10
83	96	2
51	52	4
45	45	9
86	87	8
75	76	5
96	97	6
68	68	13
96	96	11
79	80	9
48	49	5
48	50	4
47	47	10
43	43	13
57	57	6
32	32	4
86	92	3
46	47	18
73	74	3
84	84	10
74	74	12
41	41	5
85	85	24
79	79	21
33	34	4
78	78	17
58	58	14
87	88	21
77	77	15
40	41	4
47	61	4
53	53	24
63	64	9
81	93	2
90	90	10
95	99	1
64	64	22
61	61	25
77	78	11
98	99	7
76	77	7
69	71	6
87	87	20
60	60	26
56	57	9
67	68	8
99	100	8
48	48	21
92	92	24
33	45	1
81	81	22
95	98	1
83	83	15
47	92	2
93	93	25
47	51	2
91	92	8
95	95	25
94	94	17
88	98	3
81	100	1
52	56	3
47	48	7
44	44	22
72	72	13
54	54	8
24	25	5
68	69	3
48	52	2
38	39	3
43	44	5
101	101	20
86	101	3
87	93	2
63	63	15
89	89	14
33	33	3
74	76	3
56	62	1
22	22	4
86	86	18
66	74	2
99	101	6
26	26	3
36	38	1
59	99	2
64	65	3
73	78	6
80	80	16
30	30	3
83	89	4
82	101	2
47	49	7
46	46	11
34	34	9
58	59	4
39	39	12
57	62	2
83	84	3
65	68	3
98	98	12
44	45	3
31	31	5
74	75	2
50	50	22
63	75	1
86	100	1
97	98	5
85	86	3
45	46	1
94	98	2
88	96	1
51	93	2
27	27	7
90	91	2
94	95	5
72	99	2
36	48	3
86	88	4
69	70	6
88	95	1
34	35	3
94	96	2
39	40	6
56	88	3
23	24	3
89	100	1
24	26	3
70	71	5
81	85	3
41	42	2
101	102	2
56	59	3
58	60	2
26	27	2
28	29	2
55	55	18
71	72	1
42	71	1
59	65	1
64	71	2
66	70	2
54	55	6
29	29	2
30	52	3
39	56	1
67	78	1
90	99	1
25	25	3
57	58	7
46	68	1
60	63	4
50	51	1
92	93	10
80	95	2
46	53	2
81	82	5
29	32	1
61	81	1
95	100	1
80	81	6
64	66	1
36	37	1
40	52	2
29	52	2
23	27	1
35	36	1
72	73	3
37	37	2
60	61	2
98	100	2
36	36	2
61	62	2
44	55	2
29	53	1
88	99	2
24	24	1
83	88	1
53	54	2
29	30	3
72	74	1
84	92	2
94	97	5
76	78	2
25	26	1
55	57	2
50	52	1
55	56	1
46	56	2
46	97	2
27	28	3
81	84	1
102	102	1
26	28	1
57	66	1
80	100	1
96	99	1
81	99	1
41	50	1
83	101	1
51	58	2
49	56	1
69	72	1
93	100	1
37	38	1
93	94	2
83	90	1
87	92	1
63	80	1
96	100	1
88	92	1
30	82	1
78	90	1
63	85	1
23	23	2
42	65	1
22	23	1
48	68	3
66	85	1
36	56	1
62	63	1
65	81	1
59	60	1
79	91	1
