17	23	2
106	107	7
69	85	6
101	101	24
103	103	5
15	20	1
99	99	7
88	97	3
67	85	6
134	134	12
103	104	1
43	43	3
64	64	15
23	26	7
121	121	14
45	54	2
128	128	11
58	58	14
68	125	4
73	74	5
1	1	12
82	92	2
73	124	2
15	15	2
63	63	8
28	35	4
132	132	13
126	126	9
10	10	4
43	105	1
54	65	3
126	130	6
94	94	10
89	90	5
56	56	14
57	57	6
67	67	5
85	85	9
45	45	3
107	107	9
87	97	4
20	20	3
131	131	18
100	100	9
59	59	11
114	114	13
35	35	9
28	28	11
123	124	4
59	68	7
131	132	2
127	127	6
59	90	2
2	2	6
31	31	7
71	71	7
134	135	3
97	97	8
27	27	6
104	104	4
46	119	2
91	107	2
63	64	4
52	53	8
1	2	3
93	104	1
9	38	1
112	112	11
60	131	3
130	131	20
70	70	9
74	92	2
72	72	11
130	130	16
107	108	4
19	20	4
24	24	4
78	78	12
64	122	2
107	117	3
83	86	3
90	90	12
29	29	13
21	21	10
116	116	4
133	133	7
24	32	2
17	17	7
90	126	1
36	36	12
0	0	6
97	115	1
95	95	13
74	74	10
54	54	8
76	83	8
4	4	8
75	75	11
18	18	5
11	11	3
86	116	2
64	72	8
82	82	7
72	124	1
54	58	6
68	69	3
118	118	4
105	105	6
110	116	3
84	116	2
112	114	2
8	8	1
84	113	4
95	96	5
26	26	5
44	122	1
102	102	7
22	97	2
65	65	11
46	51	1
62	62	5
122	122	11
106	113	2
52	81	1
84	84	6
92	92	13
83	85	2
112	115	5
124	124	2
96	96	6
8	9	1
49	119	4
120	120	4
50	65	2
18	19	6
108	108	5
46	46	7
56	72	9
76	76	7
77	77	15
67	83	2
108	110	1
50	50	4
127	128	3
20	21	2
62	63	9
23	23	5
49	61	2
117	118	7
106	106	10
14	14	6
113	113	3
22	22	6
55	55	6
72	108	1
93	102	2
127	135	1
87	88	2
73	73	2
61	63	6
87	87	4
60	60	8
98	98	7
6	6	2
79	82	1
99	107	3
87	90	2
47	47	1
118	119	4
14	25	2
76	81	2
106	109	2
33	37	1
48	117	2
119	119	11
93	93	11
48	48	9
124	125	3
110	110	6
67	84	1
102	120	1
102	104	1
12	13	1
124	126	1
60	61	4
35	37	1
63	75	4
85	123	2
125	125	2
32	32	4
89	89	5
97	98	2
93	94	5
9	16	2
80	80	17
86	86	3
113	114	4
80	99	2
112	120	1
92	107	1
92	112	4
129	129	5
5	5	4
3	3	16
54	57	4
52	52	6
106	111	1
68	68	5
7	7	6
83	84	10
109	117	2
119	120	1
78	107	1
52	71	2
71	72	3
127	129	6
123	123	3
68	86	2
67	68	3
43	64	1
116	118	1
117	117	4
37	37	3
9	10	2
53	53	5
64	73	2
59	91	2
12	119	2
86	122	2
15	37	2
96	97	2
106	115	2
19	19	7
43	80	1
135	135	4
16	17	1
37	38	1
86	111	2
66	67	1
25	32	1
78	84	1
89	91	2
69	78	4
72	99	1
107	111	1
108	112	2
83	122	1
33	36	5
97	116	1
2	132	2
22	24	1
61	61	4
63	69	2
69	69	1
82	84	1
65	122	1
104	105	1
33	33	3
107	109	3
108	118	2
83	83	3
57	116	1
100	101	1
25	37	3
111	116	2
128	129	2
65	67	2
9	9	4
25	33	1
55	107	2
49	50	3
70	91	3
5	31	1
62	105	1
15	23	1
73	125	1
103	106	2
99	100	1
115	115	4
34	36	1
36	37	3
13	16	1
80	82	1
50	51	2
61	105	2
88	88	3
78	79	2
54	66	2
44	44	3
10	11	4
50	57	1
81	81	2
84	111	1
50	100	1
126	127	2
50	63	2
111	112	2
132	134	2
55	105	1
23	24	2
16	16	2
65	68	1
111	120	3
128	131	2
49	49	1
47	120	2
91	95	2
13	13	1
6	7	2
67	123	1
82	86	1
77	131	2
12	28	2
53	121	3
43	73	1
69	70	3
115	117	1
5	34	1
62	80	1
45	122	1
71	73	1
87	110	1
91	91	1
126	132	1
20	22	1
93	112	1
94	96	1
114	115	2
50	84	1
54	55	2
13	26	1
76	134	2
61	62	1
45	55	1
73	132	2
86	87	2
33	34	1
7	9	2
21	22	1
108	117	1
82	107	1
66	69	1
68	100	1
77	79	1
68	107	1
70	71	1
38	38	1
61	68	1
79	79	1
14	20	1
76	78	1
42	42	1
24	25	1
78	125	1
98	99	1
82	83	1
85	86	1
132	133	1
