113	113	26
100	101	11
53	53	8
83	83	4
38	38	6
76	76	6
93	93	15
65	65	12
107	109	6
105	108	3
84	84	13
71	71	22
125	131	2
55	55	6
65	66	7
43	48	2
7	10	1
130	130	13
115	116	5
94	94	9
57	57	12
60	60	13
78	79	4
115	134	2
107	107	15
124	124	8
105	106	7
94	95	7
59	60	7
122	122	2
57	58	9
58	58	6
3	3	11
8	8	13
42	42	4
86	88	1
98	98	9
104	104	8
1	1	11
68	68	8
45	45	5
9	12	2
108	108	4
68	69	3
113	127	3
110	111	15
96	97	5
122	123	2
63	78	3
2	2	9
6	47	4
12	47	4
122	129	2
112	112	16
21	21	11
114	115	4
115	128	1
69	69	16
35	35	5
6	7	7
106	106	7
100	100	4
97	106	7
91	91	17
60	62	3
35	36	3
118	118	12
65	70	4
59	59	13
101	102	7
13	14	4
16	16	5
124	131	2
116	116	17
43	85	3
116	130	4
59	61	4
71	72	13
74	74	11
55	57	3
52	52	6
73	73	17
126	127	10
82	85	1
90	90	23
80	80	16
114	121	5
117	118	14
32	34	4
115	115	16
128	128	5
121	125	1
97	98	4
75	75	7
119	119	17
92	92	11
95	114	2
29	29	9
125	126	3
131	132	9
32	32	7
62	62	15
129	129	17
10	11	6
30	30	9
120	121	6
8	11	1
68	83	2
132	132	6
61	61	6
70	70	19
22	23	9
83	84	8
134	134	6
101	101	20
66	66	6
6	9	1
106	107	7
78	78	17
99	99	16
21	22	4
118	119	10
91	93	1
110	110	10
38	59	2
123	124	4
50	111	4
33	33	3
58	59	4
66	67	2
77	77	17
115	118	3
55	56	5
63	67	3
50	50	10
109	109	10
114	114	20
12	26	2
47	49	8
29	30	5
4	5	3
1	2	5
126	126	20
63	96	3
50	110	5
20	24	4
51	51	2
62	63	8
45	49	1
52	111	2
133	133	13
25	25	14
129	131	7
47	47	5
9	9	16
111	114	1
44	44	17
93	94	8
64	66	1
103	104	4
125	125	20
95	113	2
49	49	9
61	76	1
64	64	6
111	111	14
74	75	5
18	18	8
56	106	2
25	27	2
117	117	15
10	10	10
8	15	2
67	67	9
73	75	2
37	37	8
99	103	1
79	80	7
104	105	2
121	122	5
113	128	2
27	27	15
18	19	3
23	38	2
120	120	13
31	31	7
16	18	5
10	18	3
28	29	5
11	37	2
87	87	10
6	8	4
131	131	14
86	87	4
56	56	3
108	110	5
105	111	2
7	7	4
42	44	2
42	54	3
44	53	8
107	110	3
100	105	3
89	89	6
133	134	3
21	23	3
117	124	3
60	70	3
56	58	3
53	106	2
19	19	3
34	34	13
63	63	12
46	46	2
44	45	4
106	108	7
95	95	14
71	90	5
123	123	12
96	96	8
31	33	1
120	125	2
49	108	5
61	69	2
111	112	2
52	54	1
107	108	11
91	92	1
125	129	4
127	127	10
45	55	2
21	33	1
83	86	3
82	87	3
58	61	2
25	26	5
103	103	10
4	4	7
16	17	5
77	96	1
30	31	4
96	114	2
43	84	3
75	76	2
87	88	6
130	131	12
54	55	2
81	81	7
102	103	2
47	77	2
80	81	2
94	96	6
127	129	1
82	82	7
43	96	1
0	0	6
7	99	1
14	14	8
11	11	4
121	121	9
82	83	1
72	72	4
11	14	2
66	86	1
68	82	1
110	131	4
96	108	2
109	110	2
46	47	3
99	101	1
56	83	2
26	26	6
54	56	2
49	50	12
1	3	1
113	115	5
13	45	1
49	55	4
98	113	1
109	133	1
85	85	5
102	102	18
135	135	3
95	96	10
27	28	6
26	53	2
9	10	6
36	68	1
48	48	4
28	28	2
63	65	4
46	50	2
118	130	1
132	133	2
128	129	4
52	53	6
99	100	3
14	23	1
6	6	6
15	16	9
43	43	7
92	96	1
70	73	2
20	23	2
54	54	8
54	82	2
43	45	2
55	80	2
10	58	1
49	52	1
20	22	1
105	105	4
82	86	4
73	89	2
43	53	3
67	68	1
61	63	1
59	71	1
20	20	4
96	119	2
103	112	1
86	86	5
10	57	1
31	32	3
2	12	3
70	71	4
88	88	3
112	115	1
57	61	2
80	91	2
5	5	7
111	121	2
12	28	1
11	15	2
23	37	1
43	44	2
112	113	5
33	34	4
64	65	4
25	37	4
121	124	1
60	61	2
13	13	4
13	26	1
96	113	2
77	78	1
10	45	2
99	111	1
12	12	3
111	113	1
11	12	1
34	35	5
5	6	1
43	50	1
79	79	7
111	115	2
54	67	1
74	97	2
133	135	2
91	95	1
60	68	3
23	24	2
75	77	2
97	97	3
2	3	1
33	36	2
44	49	1
61	64	3
12	45	3
111	117	2
7	77	2
69	70	2
17	17	10
15	15	5
81	92	1
89	90	2
36	37	1
71	73	2
62	64	4
76	97	1
108	109	2
10	20	1
119	121	1
90	91	2
23	32	1
61	66	1
2	24	1
119	120	5
98	99	1
59	79	3
0	2	3
58	78	4
72	81	1
45	50	1
14	15	1
34	66	2
50	54	2
9	17	1
26	44	2
55	58	1
44	55	4
110	133	1
122	128	3
53	54	1
0	103	1
12	44	1
113	119	2
115	135	1
4	30	1
31	34	4
105	110	2
121	131	1
10	14	2
50	53	2
22	22	3
92	94	2
67	69	1
134	135	2
56	86	2
38	45	1
84	85	2
23	23	1
7	16	3
109	111	1
20	25	1
48	107	1
89	91	1
82	84	1
28	43	2
132	135	2
77	79	1
12	75	1
123	125	3
12	46	1
45	78	1
57	77	1
94	101	2
118	120	1
46	51	2
48	106	1
28	30	2
88	89	1
24	24	1
126	134	1
111	130	1
5	9	2
42	43	2
21	32	1
53	66	1
108	113	1
55	84	1
24	25	1
120	122	1
45	86	1
112	114	2
114	127	1
85	86	1
20	21	1
47	56	2
76	77	1
79	97	1
56	57	1
36	36	1
55	59	3
109	132	2
48	108	1
10	86	2
109	123	1
34	37	1
61	68	1
112	129	1
72	73	1
32	33	1
53	68	1
15	17	1
44	56	1
47	51	1
112	118	1
10	47	1
131	133	1
