30	30	3
138	139	1
21	21	2
85	85	9
75	77	4
204	224	3
71	73	2
15	16	3
79	79	1
133	133	7
206	214	3
113	113	4
46	136	3
38	170	1
112	112	1
8	9	1
133	136	2
203	203	2
239	239	4
138	138	3
232	232	3
6	6	4
43	81	3
114	146	2
45	45	5
26	26	2
86	86	4
52	54	9
17	17	3
74	74	5
204	204	3
130	130	5
44	44	2
25	25	8
43	43	3
185	185	4
2	2	2
63	63	2
95	96	2
140	141	4
29	30	3
123	123	3
173	173	3
39	39	5
67	67	7
190	190	2
68	68	4
224	224	5
56	56	9
95	95	2
184	187	1
50	51	2
194	242	1
33	33	1
51	229	1
108	229	4
131	131	2
142	142	2
203	204	2
146	146	3
202	202	4
105	105	4
81	81	7
164	186	3
123	126	1
37	69	2
209	210	1
164	164	4
144	196	3
119	167	2
140	153	4
157	157	2
102	131	1
65	65	4
181	181	3
104	105	2
159	166	2
122	124	1
171	171	3
180	180	1
40	40	4
181	182	4
28	81	3
178	178	1
124	126	2
232	241	1
62	62	3
213	214	3
205	205	6
98	98	3
138	170	1
27	71	1
73	73	2
138	165	1
89	89	2
0	0	2
206	206	1
15	15	2
4	18	2
14	14	1
28	29	3
137	137	1
213	213	2
64	64	1
143	144	2
208	209	2
25	144	2
102	109	2
201	201	3
96	96	1
7	7	3
13	13	3
15	37	1
152	180	2
177	209	3
107	107	1
132	133	3
32	43	2
27	27	6
195	195	1
122	137	3
205	223	1
226	227	1
116	186	1
44	54	1
30	60	1
160	161	2
3	3	3
235	235	1
136	170	2
154	154	2
107	108	1
62	70	1
117	117	1
16	78	3
159	159	1
183	183	1
58	58	1
147	149	2
58	64	1
101	101	2
51	78	1
96	97	3
158	185	2
223	225	1
147	188	1
153	153	2
204	223	3
42	42	3
137	138	2
36	36	1
219	219	1
214	215	3
19	19	2
13	77	1
139	139	1
218	218	2
158	166	2
97	97	1
15	48	1
0	1	1
12	12	3
78	78	3
155	155	1
18	18	1
193	194	2
158	158	2
32	32	3
22	22	1
134	134	3
49	49	3
158	159	1
38	191	4
190	193	2
201	209	1
42	230	1
47	47	3
225	228	6
217	217	4
44	45	2
103	103	1
37	37	4
160	225	3
216	216	2
8	8	1
186	187	1
88	88	1
51	51	1
20	20	2
20	21	1
50	50	1
72	72	1
118	119	2
191	191	1
54	55	1
241	241	1
100	134	1
144	144	1
69	69	1
9	9	1
200	200	2
9	89	2
44	226	1
226	226	2
155	157	2
64	198	1
74	75	1
109	109	2
60	60	3
106	106	1
21	22	1
239	241	1
148	154	2
196	196	1
191	193	2
1	1	2
119	119	1
63	64	2
66	66	1
202	204	1
153	154	1
50	206	1
53	53	1
135	136	3
125	127	1
199	199	1
125	125	1
81	83	1
190	191	1
24	25	1
22	23	2
198	198	4
75	101	1
70	70	1
136	136	3
146	147	1
24	24	2
170	170	1
76	76	1
63	70	1
155	156	1
27	47	2
175	176	2
76	77	1
4	5	1
41	42	1
49	50	1
9	28	1
49	80	1
6	14	1
11	11	3
169	169	2
120	128	1
82	83	1
4	4	1
41	84	1
122	167	2
107	229	2
64	65	1
148	148	1
228	228	1
48	66	1
119	124	1
3	31	1
31	31	1
204	206	1
123	127	1
80	80	2
71	72	1
64	223	1
103	104	1
118	124	1
102	102	1
149	153	1
116	116	1
67	69	1
230	230	1
120	120	1
100	116	1
198	207	1
