8	8	6
65	65	8
120	120	10
11	11	4
109	110	9
14	14	2
22	23	5
97	98	12
37	42	3
16	32	1
107	113	4
69	69	16
121	121	6
131	132	2
102	102	5
127	127	17
42	42	13
28	28	8
110	111	5
114	118	1
115	115	2
9	10	1
10	11	2
6	21	5
113	114	6
48	49	7
32	32	6
75	76	2
110	110	21
94	118	3
111	111	17
41	73	3
64	64	3
117	120	4
53	53	8
41	98	6
3	3	11
33	33	3
105	109	3
8	79	1
81	86	5
57	57	10
89	89	11
91	91	3
68	69	2
1	20	1
108	108	9
92	93	4
59	61	4
44	61	6
13	13	13
55	59	8
81	82	2
101	102	6
78	89	1
60	62	2
128	128	6
28	30	4
88	91	3
10	10	9
54	54	18
105	106	1
50	50	14
123	124	5
25	25	3
51	52	3
66	66	12
41	41	4
74	90	3
80	80	9
116	116	16
90	91	2
126	127	4
61	61	6
45	45	14
101	103	5
121	122	6
117	117	3
75	75	3
96	99	2
81	89	2
96	96	11
6	9	1
74	74	21
43	43	7
29	30	7
104	105	2
15	15	4
77	90	6
107	107	10
27	27	7
2	16	7
106	106	12
132	133	2
119	119	10
71	71	5
41	43	2
29	29	6
52	52	17
111	117	1
105	105	8
113	113	6
103	103	6
52	71	8
46	46	14
73	78	1
104	104	5
73	73	3
115	116	7
10	18	1
83	98	3
51	51	8
47	54	3
118	120	7
30	30	4
54	59	2
99	126	2
68	68	5
126	128	2
3	23	3
126	126	12
111	112	4
82	128	2
60	60	4
17	17	4
72	75	1
97	97	7
124	124	14
114	114	9
84	84	14
78	78	2
7	7	3
7	10	1
82	87	2
71	76	5
92	92	3
47	60	3
101	101	16
3	18	5
129	129	3
11	51	3
24	24	2
5	5	2
48	48	8
124	125	2
86	86	2
88	88	4
133	133	7
20	20	16
43	44	4
21	21	7
27	40	2
23	23	16
102	103	7
83	83	3
25	32	1
46	95	3
5	16	7
95	95	3
30	31	8
125	125	13
38	40	4
122	122	7
109	109	5
39	40	2
127	128	2
44	45	6
6	6	5
129	132	3
65	66	2
49	49	6
129	133	3
62	68	2
90	90	5
78	81	2
54	72	4
103	131	3
111	114	2
131	131	1
67	67	6
58	58	1
79	79	4
24	28	3
79	80	3
47	47	11
73	74	2
77	78	4
112	112	4
108	119	2
46	96	2
81	128	4
59	63	4
102	129	2
125	127	1
27	30	2
16	77	3
26	26	1
76	77	4
39	39	2
89	94	1
12	12	4
82	82	7
60	61	2
110	112	2
100	101	6
58	59	1
92	94	1
100	100	4
54	56	3
83	84	5
2	2	7
62	63	1
55	55	6
130	130	1
94	95	3
125	126	6
129	130	2
85	86	4
72	73	4
44	44	4
81	90	6
1	2	1
63	64	1
40	40	7
59	59	3
41	42	1
48	94	2
1	22	1
80	87	2
55	58	2
97	99	2
102	130	3
17	18	1
74	75	4
25	38	2
75	77	1
4	5	1
55	74	4
67	68	3
99	127	2
16	16	4
26	40	5
52	53	3
72	72	6
39	41	2
30	80	2
4	6	1
91	92	6
21	32	1
98	99	3
123	123	6
130	131	3
41	97	2
128	130	1
112	117	1
94	94	1
22	22	8
18	26	3
56	56	2
63	93	1
47	52	3
62	62	2
34	34	1
38	39	1
56	57	4
72	74	2
60	63	5
124	133	1
114	116	1
81	81	3
19	19	1
38	38	1
20	22	1
32	33	2
76	76	3
122	123	2
85	97	1
5	13	3
68	74	3
132	132	4
13	14	2
120	121	7
88	96	1
26	90	1
87	87	1
86	87	2
82	84	2
38	73	2
98	98	4
2	22	1
41	61	1
118	118	2
109	111	1
31	32	2
83	90	1
25	40	2
84	86	1
17	25	2
84	85	1
24	25	2
0	0	2
77	77	5
3	31	1
104	130	1
12	52	2
26	30	1
126	132	1
8	29	3
120	125	1
45	47	2
18	19	1
104	106	6
114	117	1
25	26	1
116	117	4
58	60	1
55	56	2
58	98	1
28	38	1
3	16	1
42	43	1
94	113	2
48	51	1
18	18	1
11	12	1
95	96	1
113	118	1
24	33	1
78	80	2
16	19	2
33	34	2
108	109	1
8	14	1
19	20	1
104	115	1
99	101	1
4	18	1
1	1	1
74	77	1
19	21	1
70	70	1
118	119	1
29	57	1
107	110	1
95	114	1
15	33	1
53	54	1
28	39	1
109	121	1
40	41	1
29	70	1
41	44	1
127	129	1
40	45	1
