17	28	1
6	33	4
247	247	2
21	27	2
117	117	9
186	186	6
54	54	9
245	247	3
63	96	4
231	234	1
193	193	15
51	195	1
234	235	3
223	223	8
78	113	6
75	106	1
2	178	4
182	182	5
200	200	11
21	21	12
152	189	3
188	188	10
192	192	11
78	78	9
153	153	5
46	46	8
64	64	14
21	22	6
81	87	2
5	18	1
156	175	3
172	244	5
4	48	2
205	205	13
35	35	7
188	189	6
65	65	5
81	81	6
189	189	9
116	117	3
70	94	4
233	233	2
191	192	10
172	172	8
15	17	2
181	210	3
66	91	4
147	147	4
120	120	3
96	96	6
70	70	11
99	99	6
149	171	3
152	157	1
217	217	6
197	197	3
184	184	3
8	9	4
44	44	14
92	92	9
169	171	5
80	81	4
229	229	2
31	31	5
38	38	9
105	107	6
26	26	3
87	87	3
187	244	2
152	152	10
209	209	8
150	150	6
15	175	1
195	195	4
181	181	4
53	53	4
110	110	2
9	11	1
225	225	1
160	160	9
48	48	3
168	224	2
94	94	5
170	170	12
154	154	8
59	90	4
81	83	3
161	173	6
194	208	3
121	121	1
168	189	3
163	217	2
154	166	1
46	53	4
224	224	11
33	33	7
10	10	7
102	102	1
163	163	1
36	152	1
207	207	7
5	5	3
155	155	9
166	167	2
63	63	10
202	202	6
228	228	6
34	58	3
17	17	1
19	29	3
145	145	4
67	111	3
163	164	1
167	167	5
73	73	2
175	175	11
208	209	2
248	248	4
151	153	6
178	178	5
164	164	3
113	219	1
52	53	8
236	236	2
226	229	2
22	22	9
4	34	6
180	199	2
204	204	3
41	41	6
166	166	9
158	158	5
158	248	3
112	112	8
29	29	3
86	96	6
77	77	2
7	7	14
169	169	7
76	76	5
12	12	3
199	207	1
197	198	3
184	185	3
19	19	6
187	187	4
194	195	5
6	7	3
57	59	2
162	162	9
49	49	5
74	74	3
103	103	8
61	61	10
78	112	1
219	220	4
221	221	8
246	247	1
209	213	7
232	232	7
165	165	5
83	84	8
245	245	5
163	165	2
200	202	1
112	113	4
76	98	2
118	118	8
47	110	1
234	234	9
91	92	1
215	215	7
180	180	3
171	183	1
178	208	3
212	212	2
219	219	5
208	208	4
59	60	2
14	19	1
97	98	4
89	147	2
98	99	3
114	115	2
111	111	4
156	156	7
235	235	6
187	188	11
56	56	3
25	25	3
203	203	12
95	96	6
210	210	5
11	11	6
206	229	3
91	91	7
56	159	2
241	241	9
101	101	8
110	227	3
36	48	3
80	80	4
206	207	3
55	55	11
182	183	2
71	71	2
21	36	1
60	60	3
173	174	4
4	4	2
3	3	2
191	191	3
33	109	1
195	211	4
236	240	2
108	108	3
20	29	3
18	18	5
190	190	3
15	15	7
117	119	4
174	174	5
194	241	2
214	215	3
68	68	3
95	101	3
95	95	7
109	109	9
68	71	4
229	230	4
227	228	1
198	198	3
144	145	2
230	231	4
198	230	3
202	203	8
27	27	6
58	58	7
110	209	1
218	218	5
55	57	5
240	240	6
171	171	3
57	89	2
174	175	3
194	194	4
5	30	1
182	190	2
230	230	4
217	239	2
203	206	1
65	67	1
70	82	1
159	209	1
167	179	1
164	189	6
245	246	3
72	88	1
160	163	3
169	170	1
168	168	6
42	71	2
83	83	1
9	159	2
28	28	4
100	100	1
33	108	2
68	69	3
216	216	3
243	247	1
175	176	1
244	244	4
6	6	6
196	196	6
231	241	1
119	121	2
178	213	1
217	237	1
150	236	1
36	91	1
147	155	2
111	114	1
181	182	1
175	183	2
115	118	2
89	89	2
236	237	3
177	179	3
210	211	4
34	34	4
199	218	2
161	184	2
14	14	7
59	59	10
1	2	1
199	199	6
42	42	1
116	116	6
211	212	3
43	43	7
157	159	6
66	66	11
109	110	3
151	151	9
10	24	1
88	107	1
43	44	1
239	239	9
36	39	4
104	107	3
84	84	6
71	104	1
7	9	3
84	85	1
50	194	1
231	232	2
169	186	2
8	8	8
51	144	2
222	222	3
167	174	1
16	16	2
195	247	4
14	15	4
60	61	5
160	165	3
157	157	7
82	100	3
204	205	4
106	112	3
107	107	11
64	113	1
93	93	5
73	107	2
160	161	3
5	6	2
160	178	1
158	172	1
185	185	6
74	82	2
49	119	2
11	39	3
193	194	5
242	242	6
242	243	3
161	165	1
216	217	3
47	48	4
176	177	1
227	227	3
23	23	9
119	119	4
79	81	1
18	19	2
228	229	5
158	169	2
165	167	1
171	173	1
246	246	2
213	213	5
72	72	3
67	67	11
62	62	4
14	17	1
186	187	2
162	220	2
165	183	2
4	59	1
74	76	3
75	75	2
120	145	4
248	249	3
247	248	3
40	53	3
146	155	3
176	190	2
55	56	2
240	241	3
91	159	1
23	26	2
32	33	2
211	211	3
30	37	1
15	30	2
85	85	2
159	160	3
51	51	4
48	50	2
155	235	1
187	192	3
166	173	3
38	47	2
177	182	1
56	160	2
50	50	3
40	40	5
75	76	4
161	161	2
48	106	1
213	216	1
207	230	1
79	79	2
39	59	1
238	238	6
188	196	1
199	200	2
114	114	4
206	206	6
189	219	3
231	231	4
165	209	1
117	144	1
179	179	3
97	97	6
73	112	1
68	80	1
20	20	4
49	51	1
57	57	1
183	183	4
115	115	5
75	80	2
233	234	2
178	212	2
9	10	1
230	233	2
171	176	2
226	231	2
189	216	3
113	114	2
88	89	2
229	236	2
31	42	2
74	106	1
180	183	1
90	91	1
110	242	1
2	2	6
204	212	1
165	190	3
237	237	3
76	99	2
207	208	1
47	111	1
150	155	1
220	220	4
37	37	1
177	177	3
155	156	1
69	104	2
147	181	1
37	41	2
201	201	4
120	247	1
238	240	1
108	236	1
172	221	2
4	5	1
238	239	1
169	180	1
45	45	3
153	166	2
162	163	2
226	247	1
96	97	1
100	103	2
32	32	2
39	73	2
243	243	4
59	95	1
77	78	1
14	37	1
72	74	1
199	230	2
158	168	2
212	213	1
99	100	2
38	73	2
162	214	2
36	38	1
106	106	1
89	107	2
174	189	1
56	92	2
164	218	1
113	113	2
179	181	1
72	105	1
178	182	1
152	181	2
47	47	1
210	244	1
160	168	1
215	237	1
62	100	1
200	201	2
50	193	3
16	28	2
226	226	3
213	243	1
174	230	7
184	214	1
39	39	1
198	199	1
176	183	1
214	230	3
76	78	4
53	55	2
52	52	3
188	247	1
219	230	2
93	108	1
93	113	1
10	12	1
157	161	1
8	15	2
57	58	1
73	75	1
159	159	2
72	73	1
100	113	4
24	24	3
203	212	1
79	80	1
164	217	1
152	155	2
15	16	1
107	111	3
65	91	1
1	1	1
92	93	2
171	172	2
110	111	1
152	153	2
93	94	1
249	249	1
34	50	1
77	84	2
193	214	1
149	149	1
70	72	2
176	176	1
41	107	1
86	87	1
186	225	1
152	166	1
5	19	1
158	159	1
168	169	1
243	244	1
162	169	1
158	160	1
185	236	1
159	180	1
223	245	1
215	217	1
213	214	1
26	27	1
182	212	1
28	156	1
58	60	1
90	157	1
33	208	1
36	36	1
173	173	1
167	169	1
66	68	1
205	207	1
29	184	1
15	47	1
195	196	1
74	88	1
177	180	1
161	183	1
185	191	1
111	113	1
217	218	1
118	119	1
146	152	1
162	247	1
87	88	1
9	9	1
119	247	1
170	171	1
213	215	1
175	179	1
22	23	1
171	220	1
17	71	1
216	238	1
169	190	1
1	110	1
157	184	1
