99	101	4
98	98	22
97	99	3
25	26	16
79	80	13
57	57	20
97	97	10
64	78	3
81	89	2
73	73	25
79	79	13
69	69	22
68	68	32
71	72	14
99	99	17
46	47	12
97	98	11
100	100	17
38	38	12
78	78	35
40	40	22
52	59	1
66	68	2
62	82	1
63	63	31
89	89	35
23	23	4
88	88	29
87	87	25
31	31	22
75	75	34
76	76	31
70	71	9
65	66	14
72	73	12
92	93	11
52	52	58
37	37	13
76	77	11
96	97	5
63	68	1
100	101	7
70	72	3
50	52	2
34	35	6
33	33	36
95	95	17
93	96	3
94	94	28
46	46	17
28	40	6
67	68	7
49	49	16
95	96	19
86	86	20
54	62	2
49	55	1
59	59	27
64	64	18
60	77	7
92	92	26
42	42	50
56	56	23
58	58	23
69	70	14
93	95	5
91	91	29
48	48	18
47	100	2
68	69	10
32	32	8
83	83	28
39	97	2
45	45	20
74	76	3
90	91	5
93	94	17
62	63	5
90	90	23
82	82	9
85	86	21
60	60	26
37	38	6
63	79	2
23	24	2
90	101	1
44	44	20
25	25	5
37	39	6
57	58	4
45	46	11
20	20	4
29	29	9
61	73	3
31	54	5
51	52	14
26	26	9
72	72	33
66	66	22
77	78	4
34	34	12
38	39	6
56	57	8
48	50	3
51	51	30
49	57	3
54	54	18
52	53	8
50	50	28
49	50	5
35	35	9
37	53	6
85	85	24
31	33	3
29	33	2
52	63	2
64	65	7
91	93	7
62	62	32
81	96	1
81	81	17
67	67	37
84	84	25
70	70	31
50	51	11
87	88	15
58	61	2
95	97	7
92	94	10
60	82	3
60	61	15
36	36	13
93	93	14
86	87	8
96	98	5
74	75	8
22	42	1
68	73	2
85	89	3
39	39	20
86	93	4
89	90	3
54	55	8
24	28	2
71	71	17
46	48	2
24	24	7
40	76	3
91	92	8
65	65	34
61	61	29
47	48	6
96	96	21
41	51	3
52	54	3
53	53	27
44	45	5
101	101	19
88	89	1
81	83	7
77	77	22
74	74	20
22	22	3
86	88	2
95	100	1
59	62	1
60	94	2
43	43	18
31	32	1
39	46	3
73	74	6
79	83	1
29	30	1
40	50	2
101	102	10
52	64	2
55	76	1
90	99	1
80	82	6
83	84	6
78	86	2
84	85	5
46	52	3
35	36	10
58	59	7
79	81	7
89	99	1
37	40	1
32	49	1
55	61	4
62	66	2
33	36	1
99	100	5
30	45	2
87	102	4
28	28	1
33	34	6
75	76	6
43	49	1
93	98	1
67	69	2
55	69	1
69	73	1
43	58	2
25	27	7
66	69	3
34	55	2
87	89	2
96	100	1
33	45	2
29	87	1
74	77	1
66	67	6
93	99	2
47	47	7
26	33	3
24	27	5
63	64	2
48	49	5
26	32	2
43	44	10
80	81	14
30	31	2
41	41	15
84	87	3
20	95	1
26	27	3
87	95	3
20	28	3
55	55	17
96	99	1
38	87	4
64	72	1
53	54	8
59	64	1
45	48	2
82	87	3
54	80	2
41	44	4
79	82	1
27	27	5
86	96	3
78	79	10
81	84	5
46	50	2
30	73	1
80	80	7
97	100	2
81	87	3
43	50	4
62	77	2
47	52	3
77	98	1
36	38	3
73	76	5
84	97	3
88	97	3
55	57	5
84	95	3
54	61	1
48	52	2
39	40	2
80	83	1
55	56	2
76	92	1
28	33	2
36	37	3
60	86	2
35	37	4
46	61	1
59	63	2
59	77	3
94	95	4
91	94	1
82	97	5
89	92	1
32	33	1
95	98	2
62	91	2
49	51	5
63	77	3
52	61	1
42	43	1
59	60	2
53	94	2
81	85	3
54	58	4
24	25	1
35	41	2
94	97	1
30	30	3
98	99	3
96	101	2
41	42	1
53	79	1
81	82	8
22	23	1
47	49	1
65	75	1
24	55	1
36	77	1
79	89	3
24	26	1
51	80	1
67	70	1
86	101	2
61	88	1
55	68	1
89	91	3
39	69	2
78	92	2
61	63	1
88	100	1
61	62	3
51	77	1
98	100	2
27	28	2
39	89	1
58	60	1
60	83	2
38	46	1
70	73	1
21	23	1
73	75	2
40	41	1
37	52	1
45	50	2
20	22	1
30	95	1
53	55	1
44	52	2
47	51	2
61	66	1
88	92	1
47	69	1
26	95	1
35	40	1
32	35	1
65	67	1
38	40	1
45	47	1
57	80	2
53	80	1
57	59	3
29	31	2
64	71	2
73	85	1
83	95	1
45	51	1
87	101	1
68	75	1
55	83	1
78	81	1
31	88	1
