2	45	5
138	139	6
33	33	17
158	158	8
120	174	4
90	103	2
100	101	2
3	4	13
157	178	5
96	99	6
170	170	9
168	168	11
40	41	11
107	111	2
34	34	7
21	21	20
124	124	11
44	44	11
19	148	2
18	20	5
11	31	3
130	130	5
144	144	7
54	54	9
147	147	4
65	65	10
2	4	10
31	32	7
15	16	10
99	100	4
173	174	4
27	27	22
20	63	7
125	125	6
21	45	4
11	11	16
42	44	4
169	169	7
167	169	2
105	105	18
38	38	21
163	163	7
23	23	14
39	40	5
99	99	5
152	152	10
139	140	3
136	139	2
14	14	16
171	172	2
1	1	11
18	18	12
160	163	3
13	15	4
88	88	9
132	149	3
36	36	19
162	168	3
80	80	10
173	173	12
72	72	10
22	24	2
6	45	6
5	5	5
30	30	14
90	93	7
14	16	6
25	26	9
160	160	12
61	62	7
78	78	4
28	28	14
16	16	24
17	50	1
25	63	2
122	123	4
20	24	1
123	136	3
115	173	1
24	25	11
107	115	1
131	131	8
94	122	5
10	10	18
29	30	10
86	86	2
108	109	4
27	28	10
6	10	3
32	32	16
146	146	2
35	35	13
87	88	2
166	168	2
171	171	10
82	82	6
132	132	5
15	15	12
100	100	10
19	20	8
55	55	11
146	155	1
6	43	4
41	41	11
83	84	1
13	13	18
122	122	7
176	176	14
9	9	21
17	17	11
2	2	21
42	43	8
158	161	5
104	107	1
131	150	2
39	84	2
134	134	5
162	172	3
112	112	9
7	7	9
151	151	6
24	29	2
167	167	6
6	6	11
57	57	8
29	29	12
140	179	5
95	95	9
45	45	6
119	119	8
113	115	3
7	9	6
147	150	1
103	104	6
178	180	2
25	29	2
23	27	1
61	63	1
127	127	7
8	11	1
52	52	3
6	42	3
133	133	8
88	97	1
102	131	2
141	141	7
32	36	3
109	109	3
154	154	6
37	44	1
160	170	2
150	150	7
23	60	4
97	97	10
126	126	10
132	133	5
140	146	2
157	157	10
42	42	7
7	72	3
39	41	5
11	60	2
179	179	4
95	98	2
19	19	13
39	39	17
175	175	3
19	45	1
76	76	9
12	13	13
94	125	1
143	143	9
49	62	2
2	15	3
91	91	3
96	97	6
50	50	12
28	29	5
112	113	1
168	169	9
31	31	24
1	99	3
127	128	6
8	8	8
8	9	12
36	42	4
49	49	2
149	149	7
0	110	1
145	145	10
111	111	3
16	17	5
17	18	2
25	27	3
92	92	7
116	123	3
9	33	4
118	119	4
60	61	3
148	148	5
123	123	8
71	71	5
37	37	14
157	165	3
124	125	3
22	22	16
137	137	4
4	4	12
121	122	4
18	113	2
172	172	13
20	23	4
90	90	7
13	38	3
153	156	2
136	137	1
72	99	1
63	89	2
101	101	2
120	125	3
166	166	9
87	89	4
3	3	14
95	107	1
118	152	5
75	75	9
20	20	13
83	85	1
71	72	4
85	85	2
62	76	2
9	10	4
120	132	2
88	89	3
4	6	2
23	45	3
2	3	4
121	121	5
40	40	9
12	12	6
155	158	2
13	14	5
174	175	3
162	162	6
142	143	5
26	80	5
107	108	6
120	149	1
171	173	4
73	73	9
4	12	1
5	23	1
103	105	2
138	138	6
89	107	2
81	82	5
32	33	10
20	22	6
7	42	2
54	76	2
40	43	3
0	0	9
1	4	1
115	115	5
5	45	4
165	165	3
7	8	11
72	73	4
86	89	1
87	87	6
118	121	3
1	2	1
159	159	19
56	56	2
59	59	6
72	80	1
99	126	2
2	7	2
22	60	3
5	8	1
35	36	3
77	77	5
113	113	4
43	43	12
102	102	3
28	31	2
26	28	4
50	52	1
161	161	6
24	44	1
25	25	13
172	174	1
80	81	3
8	12	4
108	108	3
135	142	1
129	129	8
12	14	3
174	174	2
165	166	3
66	66	3
161	162	1
136	155	3
126	128	1
115	151	3
38	39	2
114	115	2
164	165	1
76	104	1
88	111	3
98	119	2
109	177	2
61	61	14
3	19	8
7	12	2
74	74	8
20	25	1
110	110	3
117	117	4
155	155	5
118	118	4
164	164	8
5	6	10
63	75	4
107	112	1
92	93	1
26	26	5
164	172	4
77	78	1
134	135	3
22	23	5
153	155	1
79	79	5
1	7	3
23	31	2
135	135	3
63	74	2
156	156	5
68	68	3
17	28	1
9	71	1
94	121	2
156	157	6
89	109	3
26	27	4
94	94	12
61	79	1
166	167	5
33	34	4
107	178	3
79	110	6
139	176	1
168	174	3
101	114	4
159	162	6
16	31	2
151	153	1
11	13	5
79	95	2
43	44	5
25	42	3
58	58	4
58	67	3
150	151	2
3	9	2
14	15	3
3	11	3
102	106	2
96	96	2
97	127	2
67	77	1
51	53	4
148	180	1
7	15	1
81	83	1
66	75	3
25	43	2
81	81	3
8	15	2
131	134	1
153	153	3
76	77	4
141	142	3
120	120	5
103	103	6
21	46	2
11	12	2
103	107	5
6	7	1
9	34	4
150	153	1
134	140	1
14	42	2
148	156	1
128	129	3
17	20	2
62	114	1
29	36	3
133	149	1
19	25	2
164	167	3
10	71	2
6	9	2
1	5	2
91	92	3
31	41	4
56	57	2
37	51	1
98	99	3
23	26	3
84	112	2
9	11	2
9	15	2
123	125	6
71	73	3
14	18	3
8	16	4
67	68	1
66	68	1
160	161	3
154	155	2
120	123	2
63	109	5
89	90	3
60	60	2
101	102	4
136	163	2
177	177	3
41	42	1
37	38	3
143	145	1
14	31	1
24	33	2
136	144	1
127	150	2
55	56	3
84	85	3
10	11	3
136	143	2
18	19	6
55	57	1
158	177	1
30	31	6
52	54	3
136	136	2
24	24	3
32	37	2
8	35	3
10	15	2
10	86	1
140	167	2
51	52	4
60	62	1
12	25	1
78	95	2
129	153	3
152	153	4
44	45	2
6	17	1
0	2	1
75	76	3
7	100	2
100	115	1
169	170	1
142	142	3
96	100	1
159	169	1
152	164	3
147	148	5
130	166	1
178	178	2
103	113	1
20	21	3
104	105	2
3	15	1
56	58	3
116	117	6
142	169	2
11	16	1
63	63	1
67	78	2
107	109	2
39	44	1
106	106	2
7	11	3
124	128	2
125	128	1
128	128	4
64	64	2
0	1	3
52	53	3
138	155	1
98	101	2
159	167	1
2	43	2
133	134	3
105	115	1
11	18	1
104	132	1
9	22	1
18	27	2
27	172	2
83	112	4
22	26	1
50	60	1
169	172	1
7	13	1
121	123	2
67	67	4
51	144	1
74	79	1
94	95	2
89	110	3
120	121	2
62	62	2
162	170	1
140	140	1
26	64	2
79	108	1
143	144	2
4	19	2
67	94	1
95	100	2
160	174	2
9	35	1
13	31	1
133	157	1
39	42	2
34	35	1
148	151	1
103	131	1
149	150	1
4	20	1
23	109	1
7	14	3
90	94	1
51	51	2
88	110	2
18	42	2
113	114	2
79	94	1
5	36	1
37	40	3
1	95	2
4	5	3
72	97	1
135	136	1
63	73	1
133	136	1
145	146	2
60	114	2
17	123	1
130	131	2
76	78	2
3	14	2
45	46	1
65	66	2
103	112	1
163	164	3
91	98	2
1	6	2
137	138	2
9	29	1
103	106	2
41	43	2
109	110	1
61	111	1
41	45	1
53	53	1
33	59	1
10	17	1
98	98	1
135	143	1
104	115	1
125	154	1
82	86	1
29	31	2
33	103	1
97	98	1
63	64	1
159	160	1
133	138	2
5	7	2
136	150	2
172	173	2
9	42	2
129	131	2
27	32	2
8	42	2
84	86	1
113	117	1
158	160	2
64	65	1
115	116	2
42	45	1
50	76	2
120	159	1
168	175	1
95	99	1
17	121	1
83	83	1
111	113	1
0	37	1
18	87	1
155	159	1
9	165	1
30	32	1
18	39	1
118	123	1
67	73	1
78	79	1
107	107	1
17	22	1
92	94	1
49	63	1
10	55	2
23	61	2
117	118	1
93	93	1
12	31	1
89	95	1
118	125	2
154	159	1
159	173	1
25	45	1
160	169	1
136	164	2
8	34	1
103	128	1
114	114	1
117	130	1
50	57	1
148	150	1
134	156	1
