49	49	12
76	114	1
61	100	5
52	52	12
40	40	4
102	103	5
85	87	4
63	63	7
108	108	3
23	39	3
82	82	9
20	20	5
104	104	5
7	7	2
17	17	6
9	10	1
101	127	3
70	70	9
2	14	5
44	86	5
81	81	5
117	117	12
39	39	7
1	1	4
58	58	3
78	108	3
111	111	4
110	132	1
119	119	6
14	30	2
54	54	10
47	47	6
54	55	8
10	10	9
23	33	1
109	109	2
85	85	7
115	115	5
88	91	2
75	75	3
132	132	10
126	127	7
102	102	10
23	30	3
34	34	4
127	127	7
95	96	4
90	90	4
76	100	3
94	94	4
31	31	8
67	114	1
87	87	3
62	62	1
77	77	12
3	4	6
120	120	9
48	48	6
2	5	1
98	98	5
65	65	9
55	72	2
62	79	3
118	118	10
124	124	9
41	44	1
89	89	5
30	67	4
91	91	6
123	123	10
63	64	2
100	100	5
97	97	3
74	75	2
53	53	4
67	68	6
114	128	1
15	15	8
32	67	1
94	95	2
52	53	8
42	42	5
44	44	5
25	25	5
40	72	4
101	101	7
83	83	4
32	32	3
63	96	4
68	68	7
72	73	4
38	39	3
11	11	4
120	125	1
4	4	7
14	14	6
41	43	3
82	102	3
34	101	2
83	128	1
1	2	2
42	72	1
122	122	1
116	117	1
25	26	3
91	93	3
120	133	1
5	5	3
29	29	4
29	30	5
9	9	4
13	43	3
64	64	8
103	118	1
22	39	4
86	94	2
42	43	1
21	21	5
33	33	3
61	61	12
93	95	1
58	71	2
117	118	3
71	71	4
128	129	3
58	59	1
44	45	8
30	30	6
59	64	3
113	113	2
39	50	3
23	23	1
58	61	9
107	108	5
91	92	1
8	9	1
110	110	4
81	103	3
39	75	5
75	77	6
86	86	11
99	100	1
46	53	1
93	94	4
28	28	11
12	12	13
57	57	9
80	80	2
23	24	3
77	107	2
40	74	1
46	46	2
78	81	1
90	107	4
128	128	3
65	100	1
79	79	7
121	121	8
103	125	3
46	47	3
50	50	6
101	125	1
76	76	6
41	41	7
113	124	1
2	12	3
25	40	3
19	19	1
117	119	3
24	24	6
50	51	2
131	131	11
41	42	2
100	102	2
130	130	7
103	103	5
20	88	1
125	128	3
13	13	5
97	108	3
85	101	3
15	23	2
67	67	3
115	117	1
78	99	2
92	92	3
34	38	1
78	79	1
113	131	1
0	1	1
66	66	5
33	38	2
125	126	3
45	46	1
29	31	1
64	107	1
96	112	1
58	60	3
6	7	1
72	72	5
73	74	7
118	119	2
16	74	3
78	85	2
107	107	4
8	8	1
49	71	2
15	30	2
114	116	2
24	39	6
14	22	1
26	26	2
68	69	2
66	67	2
59	79	2
9	15	1
15	17	1
57	85	2
100	101	1
2	2	1
59	61	6
112	120	1
82	83	2
40	41	2
126	126	4
116	116	5
129	129	2
94	96	2
120	126	2
33	34	1
102	114	2
71	76	1
60	60	6
59	62	4
59	78	1
101	102	1
106	107	2
109	111	2
65	66	2
87	96	2
109	121	1
64	67	3
30	31	2
65	104	1
114	119	1
19	20	1
88	88	5
2	3	4
70	104	3
113	121	1
46	48	2
83	132	1
0	42	1
82	128	2
83	87	2
74	74	1
93	93	2
84	84	1
55	55	1
43	128	2
0	6	1
22	22	3
120	121	4
55	56	1
112	112	1
82	84	1
16	16	2
8	43	1
51	51	6
114	127	1
56	57	1
6	6	2
24	25	1
56	86	1
80	102	1
100	129	1
8	15	1
16	98	1
7	41	3
57	117	1
77	78	1
9	27	3
1	12	2
18	22	1
32	65	1
2	10	1
1	5	1
43	84	2
67	100	1
56	56	1
68	105	1
104	105	2
111	114	1
99	99	2
90	112	2
117	127	1
64	104	1
21	72	1
106	106	3
67	101	1
81	116	2
19	30	2
126	128	2
80	81	1
38	38	1
109	118	1
121	125	1
18	19	1
59	76	1
39	44	1
92	93	1
115	127	1
7	48	1
114	117	1
125	125	4
58	64	1
17	19	1
95	95	1
95	97	2
103	116	1
77	82	1
67	103	1
0	0	2
90	93	1
22	25	1
29	41	1
25	79	1
129	132	1
73	73	1
68	114	1
72	74	1
109	113	1
1	6	1
26	70	1
110	111	1
126	133	1
