83	84	2
89	89	4
82	82	5
50	50	5
53	54	6
97	98	12
20	82	3
70	70	3
30	30	8
21	73	2
76	76	1
97	97	4
64	64	9
38	38	17
103	103	18
31	31	7
75	75	3
76	77	3
105	105	5
37	38	2
24	24	8
80	80	5
89	90	4
61	62	3
88	88	8
59	60	2
62	69	4
24	27	2
95	97	5
54	54	4
78	78	4
98	98	4
90	96	1
71	73	2
28	28	5
72	72	12
22	75	1
84	85	2
58	58	3
64	65	2
67	71	4
91	102	3
104	104	10
69	75	1
63	63	3
27	27	2
29	29	7
106	106	2
48	48	1
37	70	3
84	84	4
23	23	5
68	69	5
56	56	7
51	51	6
34	58	2
81	81	4
62	63	6
60	60	6
73	80	1
28	47	3
49	50	1
95	98	2
33	83	2
101	102	5
39	39	5
41	48	5
22	65	4
66	66	7
90	90	7
49	49	7
71	72	4
31	47	3
25	27	6
71	71	7
26	46	2
95	96	2
46	93	2
27	46	2
67	67	7
98	99	6
88	89	2
91	104	2
101	101	4
22	22	3
79	80	1
69	69	3
33	33	4
82	84	1
55	57	1
26	26	2
43	70	1
37	37	4
34	100	2
32	32	10
56	59	3
69	77	3
91	91	2
93	93	4
86	87	4
70	71	3
54	55	2
73	73	2
96	96	3
27	47	1
63	64	1
62	62	1
45	45	3
86	86	2
78	80	1
24	77	2
65	65	6
27	94	2
82	89	1
33	34	2
33	98	4
68	68	5
40	40	4
85	88	2
56	61	2
32	89	1
77	78	1
85	86	4
102	103	1
102	102	4
92	92	3
83	83	1
82	88	1
66	67	1
42	42	3
24	76	1
41	44	3
41	42	1
31	59	1
92	102	5
69	73	2
96	99	3
47	94	2
57	67	3
85	85	2
60	62	3
83	104	2
92	100	1
69	70	2
34	34	2
72	79	3
25	25	2
55	55	2
44	107	2
30	78	1
46	78	1
32	33	1
90	91	1
30	88	2
44	48	1
31	34	1
27	92	1
74	74	2
107	107	2
27	60	1
47	47	1
77	77	1
25	106	1
41	41	1
44	44	1
82	87	1
31	86	1
78	93	1
47	60	1
24	51	1
94	95	1
31	32	1
48	49	1
29	30	1
61	61	1
87	87	1
73	74	1
47	77	1
34	69	1
47	79	1
64	67	1
90	106	1
20	20	1
75	76	1
