29	29	10
63	63	4
95	95	12
134	137	4
102	102	10
154	154	13
113	136	3
130	131	8
89	145	3
133	133	12
123	145	3
96	96	8
55	55	9
67	68	4
101	101	11
4	4	7
9	9	6
104	104	14
8	10	2
105	105	17
86	114	3
87	87	1
125	147	4
80	80	10
86	138	6
148	151	4
143	144	2
71	88	1
47	47	13
158	159	5
110	111	4
50	50	4
53	53	7
49	50	4
23	23	9
159	159	3
102	103	1
40	40	3
0	29	6
66	66	8
151	152	1
92	97	2
87	88	6
44	44	21
52	52	8
15	19	2
93	94	9
86	88	3
157	157	10
117	119	2
90	91	9
100	158	2
98	123	4
139	139	8
11	12	5
145	147	5
37	37	7
100	102	6
81	81	13
98	108	5
79	80	5
25	25	11
29	30	9
82	108	4
56	130	6
124	126	7
65	65	6
99	111	2
27	27	10
29	49	1
36	50	1
38	38	4
49	49	3
133	134	3
54	55	1
118	144	4
152	153	3
44	45	9
97	97	6
145	145	12
108	110	7
148	148	2
9	10	5
45	47	1
30	30	13
147	147	10
71	71	7
112	112	6
100	106	2
2	11	4
85	86	2
51	52	4
63	64	2
108	108	2
98	98	14
46	47	7
114	114	5
117	118	2
1	75	2
81	82	6
135	135	7
106	106	11
31	48	5
0	0	9
93	95	4
126	127	5
6	6	8
38	47	6
24	139	3
136	144	5
28	28	5
104	105	6
1	6	4
66	99	4
40	41	4
1	1	20
18	19	7
97	98	3
31	70	1
143	143	3
81	98	3
35	35	2
79	85	3
156	156	10
126	126	8
89	102	5
83	98	3
84	85	10
134	134	7
85	111	3
41	42	4
67	67	14
32	32	11
122	126	7
22	34	4
141	141	15
21	32	4
12	13	4
15	18	3
155	156	9
127	128	6
123	127	4
0	41	3
125	126	1
94	94	10
144	145	11
98	148	1
3	35	3
32	48	5
137	137	8
88	88	8
14	15	6
16	56	3
75	99	3
119	119	12
69	69	8
3	22	12
49	67	4
6	8	3
72	72	3
134	140	1
64	65	4
131	131	14
63	79	1
145	146	5
94	95	4
117	117	4
42	64	5
11	30	3
16	16	5
51	51	9
48	67	2
19	114	3
3	4	3
102	106	1
16	55	1
33	33	5
101	102	6
43	43	7
116	116	15
34	34	14
31	32	5
84	96	1
19	19	11
56	113	3
137	138	5
39	39	6
10	11	4
129	157	1
142	142	7
90	90	9
124	125	1
52	55	1
86	96	7
92	92	5
15	114	2
107	108	3
122	123	4
64	79	2
79	79	12
18	46	1
77	78	2
13	14	6
36	36	5
98	99	3
3	3	12
119	121	4
41	51	3
1	24	4
155	155	12
68	71	1
70	157	6
91	101	4
91	141	1
28	34	4
116	144	4
13	49	3
120	120	3
13	114	1
158	158	7
80	82	5
30	41	2
113	113	1
77	77	9
68	68	9
118	119	5
38	61	2
69	86	1
8	8	4
53	54	2
131	149	4
93	93	2
5	5	19
31	31	9
78	78	6
7	8	3
128	128	5
83	84	4
104	120	2
26	44	2
82	82	5
49	145	1
35	80	2
128	139	4
120	122	5
118	121	2
144	152	1
54	54	8
92	95	1
14	14	4
127	127	8
36	42	3
17	18	2
12	34	1
17	130	4
114	115	2
136	137	8
122	122	8
83	83	9
132	132	8
3	78	1
26	26	10
151	151	1
90	97	5
123	124	3
91	91	7
69	153	3
124	124	3
19	61	2
68	89	1
66	69	4
64	147	2
110	112	6
116	118	4
20	20	4
67	153	5
2	7	1
70	70	5
32	33	3
45	46	1
76	117	3
56	56	5
135	140	4
54	56	6
120	127	4
140	140	11
62	62	8
21	38	1
118	118	6
132	133	3
122	142	3
123	123	3
131	132	5
54	97	2
47	65	2
19	20	9
149	149	9
17	29	1
92	103	2
75	77	1
18	18	10
8	57	3
25	52	5
36	37	5
122	141	2
7	15	1
105	106	7
76	76	6
113	141	2
124	156	2
25	140	1
0	24	2
141	142	8
86	86	3
2	2	7
123	135	3
149	151	3
117	144	4
46	46	5
33	41	5
56	155	1
113	117	1
22	23	6
88	142	3
87	123	1
41	41	6
139	140	4
50	55	2
42	42	6
150	150	3
10	18	1
135	136	1
114	129	2
45	45	6
129	129	7
17	17	5
84	86	2
13	13	1
29	53	1
100	115	2
50	140	1
127	141	2
20	127	3
12	12	4
52	96	4
42	43	1
115	115	5
33	46	1
8	9	2
26	136	1
27	28	1
33	35	4
144	148	5
77	105	3
90	103	2
7	10	1
121	121	4
156	158	2
123	140	1
82	83	1
84	84	2
5	23	1
108	109	10
110	110	3
21	35	2
130	130	1
35	43	2
25	142	2
136	136	4
19	49	2
92	94	4
10	31	2
68	69	2
118	120	1
54	137	1
66	68	3
144	146	2
73	73	7
40	87	2
55	130	1
99	101	1
29	41	1
144	144	5
91	93	4
127	131	4
120	126	1
91	128	2
100	116	1
63	70	3
67	70	1
135	150	1
85	85	4
111	123	1
7	7	7
33	34	5
109	115	1
32	142	2
130	156	3
4	22	2
4	33	1
94	103	1
109	109	5
109	116	1
10	10	2
99	102	1
113	147	1
16	18	4
109	110	5
15	35	1
97	104	4
85	139	1
91	92	1
78	79	3
128	129	1
1	8	2
0	35	1
83	97	2
77	79	2
26	55	3
92	124	4
67	71	1
92	99	3
125	125	2
95	96	4
121	122	1
116	117	1
67	69	3
121	125	1
88	89	2
25	51	3
13	56	1
0	8	1
150	151	1
89	89	1
75	75	4
26	127	3
37	61	3
27	48	1
16	116	3
109	118	1
130	133	3
143	145	2
95	103	2
153	153	1
118	137	1
48	49	2
18	20	1
111	112	2
24	25	2
116	127	3
146	147	2
76	109	1
0	64	2
7	9	2
127	150	1
37	38	2
14	49	1
146	146	2
49	126	1
131	159	1
4	35	2
144	147	2
100	100	1
29	125	1
78	158	5
21	21	2
4	5	1
128	149	1
126	141	1
54	57	1
88	123	1
14	50	4
112	144	2
101	106	1
4	57	2
110	114	1
116	119	4
80	98	1
16	17	1
27	49	1
15	15	5
32	67	1
29	127	1
21	33	1
2	13	2
122	150	1
7	32	1
22	38	2
152	152	3
29	37	1
48	48	2
47	48	1
79	140	1
7	116	1
83	99	1
3	36	1
32	50	1
1	2	1
27	31	1
27	36	1
150	152	1
40	157	1
19	32	1
38	43	1
28	53	1
154	157	1
0	40	1
30	31	1
15	36	2
135	137	1
130	132	2
115	147	1
36	41	1
123	150	1
128	130	1
36	53	1
68	70	1
66	71	1
150	153	1
