80	80	7
207	208	6
167	167	5
197	197	9
59	59	7
25	26	4
194	195	4
173	212	2
22	29	2
135	135	7
104	104	4
168	178	2
221	223	4
241	241	2
85	85	27
117	117	5
67	68	7
211	224	1
1	216	3
98	98	7
7	7	7
121	121	3
70	71	4
70	70	19
205	206	1
157	157	4
75	75	7
79	155	1
10	10	16
27	27	16
16	147	1
62	80	1
139	142	4
103	105	10
231	231	13
99	99	10
203	204	6
9	9	7
209	211	2
96	96	5
194	196	5
172	173	4
39	39	10
136	136	8
71	71	10
0	2	3
195	195	14
197	198	1
202	202	11
68	68	15
3	3	6
153	153	4
144	144	3
29	29	7
86	86	4
147	147	5
82	83	7
216	216	5
226	226	8
226	227	5
58	60	6
46	46	7
2	4	4
53	53	5
100	100	10
209	210	5
74	74	10
238	238	12
125	127	1
147	175	6
11	22	1
65	69	1
56	57	5
69	154	2
169	169	2
3	217	7
78	78	9
202	216	2
36	45	2
193	193	2
214	214	4
99	101	2
188	189	5
239	239	10
138	138	6
60	60	15
48	48	9
134	137	3
191	191	15
20	20	16
227	228	3
209	209	9
219	219	8
76	180	4
48	79	5
57	60	3
215	215	6
206	206	7
191	192	8
105	106	1
240	241	1
136	139	3
178	178	8
162	164	5
17	24	2
2	217	5
156	156	1
26	27	11
53	156	2
186	186	19
44	45	3
36	36	5
11	11	1
154	154	4
114	126	3
161	161	7
55	56	3
43	43	9
182	182	3
81	181	1
158	158	5
79	124	1
207	209	6
131	140	2
115	115	9
63	234	1
95	105	2
162	162	7
125	129	2
139	139	7
98	99	7
198	198	7
192	192	5
230	230	3
33	36	5
57	83	4
62	69	4
8	22	1
123	125	1
37	37	6
234	234	17
73	74	4
59	60	4
163	163	12
30	33	1
214	225	1
66	66	4
66	71	3
7	18	1
171	173	3
48	50	5
22	22	7
56	91	2
98	127	3
154	158	5
231	232	2
213	213	8
21	54	4
134	135	7
237	237	10
76	156	2
6	7	7
28	32	3
134	134	4
207	207	4
69	69	5
77	77	4
232	232	10
145	146	1
221	221	3
34	35	2
211	212	6
36	42	9
13	13	4
188	188	6
130	130	5
64	65	3
32	32	7
31	33	3
189	189	5
8	8	16
201	201	11
175	176	1
107	124	4
180	180	1
121	122	4
7	14	7
88	88	10
51	51	5
29	36	5
6	6	7
105	105	4
204	204	8
133	133	4
125	125	10
35	80	3
67	67	4
54	55	5
211	211	3
44	44	5
15	15	8
205	212	1
107	107	3
143	143	9
78	80	3
189	191	3
20	51	5
49	49	12
183	183	1
169	170	2
217	217	10
17	17	10
39	144	2
76	79	2
31	31	3
42	42	11
190	190	7
217	220	3
107	108	2
102	102	7
157	159	1
47	47	4
5	7	1
12	12	9
45	45	8
236	236	4
137	175	2
147	148	2
165	166	2
138	139	2
80	81	1
174	175	2
224	224	5
203	207	2
55	66	2
97	97	5
136	137	1
219	223	4
1	1	6
224	228	1
196	196	6
109	110	5
49	158	1
118	118	2
80	84	1
23	23	6
66	68	3
108	118	2
233	233	9
166	166	3
194	197	1
108	109	2
137	137	4
40	40	16
57	59	1
52	73	2
106	113	1
2	216	4
50	51	4
201	202	2
102	103	3
48	114	4
29	33	4
46	47	5
8	16	3
163	168	2
22	31	6
30	104	1
59	82	1
227	230	1
75	102	3
30	79	1
26	26	10
115	116	1
58	95	1
17	18	9
129	129	2
49	103	4
76	80	2
61	61	11
56	60	3
184	185	1
186	187	2
172	172	2
47	135	1
27	28	7
155	155	2
9	10	5
122	122	4
35	35	5
21	22	2
81	180	1
211	213	3
2	3	4
5	5	3
132	134	4
33	33	8
49	104	2
4	5	5
16	17	3
17	142	2
19	19	2
144	145	6
72	72	6
3	189	3
81	81	3
7	17	1
50	57	2
63	63	3
48	80	3
144	174	1
166	184	2
12	40	4
18	18	2
79	79	6
76	76	11
22	34	2
173	174	1
167	168	2
1	2	5
28	28	6
148	173	2
21	29	2
129	169	5
49	82	8
215	216	5
19	20	4
179	182	2
92	130	2
233	234	3
186	188	4
69	70	2
0	0	4
231	233	2
181	183	3
36	41	2
240	240	10
83	84	3
17	104	2
119	119	5
0	215	2
96	97	3
166	167	1
171	181	1
165	165	3
180	182	2
6	17	1
85	86	2
26	46	3
133	136	1
41	41	3
114	114	1
120	120	9
199	199	8
140	143	2
166	192	2
52	52	7
71	72	2
18	21	2
109	112	2
25	25	4
156	157	9
18	169	6
215	222	1
227	227	3
20	21	5
55	60	2
200	201	2
142	242	3
75	127	2
2	2	4
157	158	2
84	180	1
141	141	2
24	24	4
146	168	2
149	149	6
178	179	1
53	135	3
159	160	2
195	196	2
179	179	5
225	225	1
40	41	3
174	174	2
34	45	4
7	23	3
152	164	3
55	157	1
142	143	1
3	4	1
45	47	1
111	111	5
104	106	2
36	38	1
48	54	1
88	126	1
36	40	1
235	236	2
133	137	2
66	67	1
63	64	1
9	44	2
180	181	2
57	57	8
73	73	1
114	129	4
173	175	1
177	180	1
59	78	1
139	140	2
31	34	5
29	35	1
77	78	2
21	21	6
7	16	1
224	237	2
101	102	2
184	192	2
176	178	3
62	62	4
218	219	4
45	46	2
184	184	3
16	104	2
46	61	1
38	38	7
201	216	2
80	168	1
242	242	3
14	14	5
159	159	2
106	106	3
39	105	3
71	73	1
144	146	3
205	207	3
127	127	1
22	180	2
50	50	2
157	237	1
30	30	3
142	142	5
204	223	2
54	54	3
144	147	1
176	176	2
150	150	1
172	224	1
33	35	1
204	220	1
56	56	2
56	59	1
74	75	1
30	32	2
7	12	2
163	164	1
214	216	1
170	170	2
187	189	1
49	50	2
10	220	1
3	36	2
75	100	2
234	237	4
148	149	3
168	168	2
32	143	3
230	231	3
150	151	5
63	70	2
238	239	1
229	231	3
133	134	4
223	225	2
55	57	3
55	55	2
73	180	2
18	105	1
167	171	2
77	79	1
72	80	1
137	138	3
23	34	2
100	102	1
200	200	3
198	199	3
42	120	1
7	8	2
34	36	1
218	218	1
161	163	2
64	71	2
193	201	1
139	146	2
117	118	1
142	147	1
20	76	5
100	101	1
154	155	3
106	107	3
47	48	1
29	30	1
187	193	1
110	110	5
113	113	4
81	88	2
101	105	2
4	205	3
168	180	1
65	65	1
229	229	1
34	57	2
235	235	1
4	6	1
27	29	1
60	61	2
62	71	1
0	15	3
223	224	1
220	220	1
50	79	2
108	108	1
95	95	1
75	77	1
12	14	2
202	217	2
236	242	2
235	237	1
122	125	1
203	203	2
103	104	1
7	11	2
16	105	1
24	25	3
238	241	2
178	205	1
64	64	1
115	129	1
64	77	1
74	180	2
84	84	1
84	85	2
19	103	1
42	51	2
41	50	2
27	55	1
87	87	1
146	146	1
131	131	2
42	104	1
39	51	1
205	214	1
99	114	2
13	15	2
151	151	5
75	155	1
104	105	2
43	112	3
177	205	1
13	14	1
187	187	2
0	1	2
203	222	1
238	240	1
177	177	1
164	164	1
81	83	1
228	228	1
108	117	1
132	140	2
34	37	2
206	220	1
228	229	2
51	79	1
109	109	1
20	102	1
212	213	1
3	9	2
152	152	2
12	15	2
91	127	1
232	233	1
83	83	2
58	58	1
221	222	1
128	128	2
60	103	1
109	129	2
30	77	1
28	82	3
64	68	1
131	158	1
76	77	1
77	84	1
166	187	1
153	154	1
49	88	1
205	205	1
30	31	1
45	233	1
223	223	1
110	111	1
38	39	1
62	70	1
46	48	1
4	4	2
101	101	1
33	34	1
8	9	1
171	171	1
58	59	1
7	35	1
61	62	3
81	84	1
79	80	1
164	174	1
112	113	1
54	85	1
15	22	1
129	139	1
99	100	1
124	125	1
182	203	1
89	89	1
16	148	2
204	205	1
108	123	1
