35	129	1
78	82	6
31	36	5
37	37	17
103	106	3
30	32	3
4	20	2
114	115	13
35	35	6
119	120	3
2	3	5
145	147	6
77	82	5
52	52	5
12	19	1
91	92	4
150	151	5
16	18	2
138	138	12
131	131	7
5	7	2
8	8	13
26	26	6
103	104	6
83	83	8
123	126	3
26	69	2
89	89	3
136	136	3
88	89	7
82	82	14
121	123	4
151	151	11
64	69	3
29	29	8
84	84	8
2	4	1
9	9	10
24	24	12
141	141	7
51	51	9
12	12	3
137	137	19
14	14	11
144	144	7
100	100	16
120	147	1
55	55	6
117	135	3
62	67	1
24	25	2
81	81	7
15	120	2
104	104	9
112	115	4
65	65	4
49	51	2
44	44	9
78	81	1
126	126	9
32	33	4
99	99	15
136	145	5
13	31	1
18	27	8
132	132	4
136	147	5
129	129	13
110	117	1
108	109	7
0	2	5
92	92	6
99	102	1
9	11	2
97	100	1
136	144	2
116	117	3
150	158	3
116	116	8
11	12	2
96	96	4
77	77	6
85	85	4
65	86	3
17	86	1
95	95	12
131	138	3
70	71	8
125	125	8
102	102	5
145	146	3
57	57	5
46	46	7
67	67	6
82	86	2
98	98	13
47	47	4
39	40	5
79	82	2
16	16	6
90	91	9
145	145	7
67	71	6
44	45	7
146	147	6
140	140	8
141	156	4
95	101	2
158	158	12
114	114	7
38	38	6
75	129	2
11	11	4
122	122	10
87	112	3
62	63	1
109	111	5
73	73	5
113	114	2
156	158	7
120	120	8
144	150	1
33	38	1
80	83	5
9	113	5
133	133	9
102	104	1
5	10	4
131	134	1
16	17	5
13	15	4
107	107	4
25	25	6
130	130	5
121	132	4
70	70	5
110	110	6
107	111	1
140	152	1
48	48	4
137	142	6
22	76	3
115	116	2
95	108	1
81	115	4
23	23	2
21	21	3
10	10	1
68	70	2
149	149	3
20	21	5
103	112	5
21	50	3
48	49	3
63	63	4
121	121	4
9	12	3
154	157	2
93	93	4
1	1	6
3	3	3
119	153	4
47	53	1
1	8	3
134	134	5
113	115	1
54	54	2
33	33	8
144	145	4
123	123	8
113	137	4
50	50	6
116	119	3
50	62	1
135	145	2
66	71	3
127	157	2
13	66	5
124	125	3
16	23	3
31	33	1
41	91	1
31	31	6
66	66	6
1	56	2
40	41	2
154	154	5
2	2	4
147	147	8
87	87	3
36	36	2
87	132	1
70	78	4
30	36	3
63	65	3
113	113	4
23	24	6
73	80	4
67	76	3
152	152	7
85	136	1
62	70	1
17	32	2
43	86	2
128	128	3
132	157	3
140	142	6
153	153	2
138	139	2
38	45	1
0	0	9
118	118	5
121	127	1
127	148	4
156	156	2
34	34	9
153	158	5
43	111	4
15	32	3
91	98	3
6	6	6
157	157	2
144	146	2
111	112	8
27	27	1
18	21	1
32	43	2
5	5	1
32	32	4
109	113	1
158	159	4
50	56	4
117	117	7
106	106	3
88	88	5
69	121	2
18	20	3
17	19	2
105	105	4
154	156	2
50	51	3
42	42	1
20	20	2
135	137	1
64	71	2
70	140	4
30	30	8
87	88	3
4	4	13
28	28	2
93	96	1
89	108	3
123	135	1
13	13	6
116	137	1
24	77	2
24	50	1
132	134	3
46	47	2
125	145	2
73	75	1
49	49	6
64	64	1
132	142	2
96	104	2
40	40	5
131	135	1
118	119	4
75	84	1
3	31	2
38	56	2
47	71	1
53	53	4
41	43	2
108	119	4
80	81	3
107	108	3
75	128	1
131	132	4
64	131	3
92	118	4
103	103	7
116	132	1
117	140	2
18	19	1
38	43	1
111	111	9
54	57	2
119	119	6
105	116	3
148	148	4
147	148	1
41	41	11
94	94	4
127	146	4
17	17	6
49	54	2
94	95	2
126	127	1
70	141	1
101	101	6
108	115	4
49	55	2
91	119	3
13	17	3
15	16	3
89	96	3
41	42	2
49	50	1
19	21	4
37	38	4
32	42	1
51	52	2
4	5	1
71	71	5
123	133	1
119	140	2
44	46	3
3	56	1
25	28	1
34	55	1
124	124	3
147	150	2
15	25	2
13	14	1
137	138	3
7	8	4
135	136	4
108	108	1
81	83	1
128	129	2
99	100	1
125	126	1
126	144	1
105	113	1
124	132	2
122	146	2
104	119	2
3	5	3
32	34	1
91	91	3
8	21	1
120	121	4
107	112	1
123	124	3
69	69	3
16	32	1
34	38	1
17	65	2
28	37	1
20	25	1
92	93	3
127	156	1
80	80	2
67	70	4
42	54	2
139	139	4
82	135	3
104	107	1
39	39	1
100	130	2
51	53	2
56	57	1
68	68	1
118	142	4
70	72	1
25	77	3
95	96	3
85	94	1
19	19	3
141	144	1
150	150	4
127	127	9
83	86	3
84	85	2
19	20	1
130	140	2
51	57	2
7	7	2
72	72	3
71	79	1
111	114	2
71	72	2
38	41	2
17	33	2
79	140	2
124	126	2
84	86	1
94	101	2
119	121	2
144	147	2
133	139	1
49	53	2
123	125	1
105	106	1
115	121	2
106	107	1
130	131	3
155	156	3
3	70	3
22	22	4
33	34	1
129	130	4
86	86	3
149	152	1
109	110	1
29	35	2
17	18	1
146	146	4
74	74	1
71	78	1
113	117	2
8	10	3
37	52	1
62	68	3
90	90	3
28	139	1
155	155	2
83	85	1
81	129	1
57	62	1
52	69	1
14	68	2
97	104	1
29	39	1
38	46	1
106	112	2
124	135	1
144	152	1
34	46	2
143	152	1
6	155	1
4	7	1
145	153	1
33	86	2
112	112	2
34	37	2
36	37	3
117	128	1
46	54	1
126	141	3
109	109	2
83	87	2
9	10	2
157	158	2
10	14	1
2	7	1
21	23	1
55	77	1
150	156	1
55	56	2
72	77	1
40	51	1
43	45	1
19	31	1
31	37	2
86	87	1
97	97	2
111	119	1
38	42	1
78	79	1
11	13	2
109	115	1
42	43	4
66	141	1
148	154	2
28	42	1
15	15	2
70	115	1
38	49	1
67	69	2
18	34	2
69	141	1
75	130	1
100	104	1
18	39	1
109	117	2
146	153	1
103	105	1
131	139	1
119	123	1
36	129	1
103	133	1
43	43	3
108	112	1
30	43	1
78	141	2
8	12	2
121	146	1
14	15	1
124	130	2
101	104	1
84	133	1
33	43	1
88	111	1
83	136	3
8	9	1
134	154	1
45	46	1
34	42	1
84	93	1
88	110	1
141	143	1
123	141	2
4	28	1
113	120	1
95	104	2
149	150	1
95	105	1
65	73	1
112	113	1
133	135	1
134	136	1
33	35	1
39	83	1
49	52	1
29	30	1
86	121	1
31	32	2
126	137	1
17	22	1
34	56	1
120	142	1
39	77	1
118	120	1
142	142	1
14	69	1
62	62	1
76	77	1
73	81	1
102	133	1
94	100	1
