97	97	12
12	12	2
23	23	2
73	73	12
75	75	12
33	34	5
102	102	1
112	112	3
61	61	4
79	79	16
87	87	9
37	37	5
134	134	7
135	135	5
84	85	7
125	125	8
15	16	6
106	119	5
106	106	4
13	14	4
29	29	7
95	95	6
128	129	1
93	94	1
22	22	10
111	121	3
53	53	1
121	122	5
18	24	3
51	51	2
71	71	5
57	57	5
115	115	4
124	124	6
54	54	2
48	50	2
27	27	7
76	76	8
122	122	5
74	74	4
20	20	6
66	67	6
82	84	1
104	104	8
118	120	2
88	88	6
90	90	8
86	87	2
65	65	6
70	70	11
117	117	8
70	93	2
62	62	3
119	119	11
60	60	5
114	114	3
68	69	8
109	111	4
68	68	5
89	90	2
69	69	4
33	33	13
105	105	5
101	101	7
126	133	1
95	99	2
3	4	5
59	59	8
77	77	4
111	111	3
132	132	2
94	94	5
130	130	5
115	120	1
6	15	2
97	106	11
131	131	2
120	121	2
47	51	1
117	118	6
50	50	5
32	32	1
119	120	2
107	107	2
132	133	7
64	86	1
106	108	1
22	30	1
122	125	2
24	24	6
8	8	1
85	88	4
44	45	3
49	49	1
98	98	5
11	11	1
62	70	5
91	97	1
89	89	1
91	91	7
129	132	3
127	127	4
52	54	1
2	2	3
64	64	7
68	79	1
102	103	3
19	19	2
100	101	2
126	127	4
131	132	2
9	39	1
113	113	1
121	129	1
96	96	8
93	93	5
36	36	4
50	51	3
114	115	1
111	112	1
111	132	1
122	124	2
103	103	11
99	99	4
85	85	3
15	26	3
52	52	3
124	125	1
34	34	1
100	100	6
129	129	6
82	83	5
107	119	1
109	110	3
60	62	4
73	74	4
21	26	5
56	56	2
63	63	6
104	112	1
92	92	1
121	121	3
13	17	1
10	10	2
60	86	3
74	75	2
7	7	5
133	133	4
26	26	1
85	99	3
58	58	3
87	88	3
12	17	2
13	13	1
28	28	7
72	72	5
115	130	2
66	68	1
0	76	1
7	56	2
4	4	1
8	9	2
115	128	1
21	21	1
55	55	3
107	108	1
18	18	1
47	49	2
109	109	1
31	31	1
120	120	1
125	126	1
108	108	3
0	1	1
3	3	6
18	35	1
25	25	2
126	126	3
116	116	1
25	50	1
84	86	1
65	67	2
53	59	2
35	36	1
106	111	1
56	57	2
128	128	4
101	122	1
110	111	1
7	10	3
103	104	1
52	53	2
95	96	1
60	61	1
78	79	1
6	6	1
48	49	1
92	93	2
118	129	3
114	130	1
20	23	1
90	93	1
55	56	1
25	26	1
48	48	1
26	27	2
120	126	1
2	5	1
127	128	1
45	47	1
19	38	1
84	84	1
16	16	2
77	78	1
123	123	2
96	104	1
96	98	1
72	73	1
35	43	1
5	33	1
5	5	1
82	82	1
114	129	1
115	116	1
131	133	1
77	80	1
