103	103	22
65	97	1
97	97	5
85	85	17
65	65	10
88	88	12
91	91	2
73	76	1
79	79	9
35	35	7
101	101	21
80	81	2
36	36	17
53	55	6
46	47	12
26	26	5
93	93	13
51	51	5
69	69	10
41	107	2
75	79	1
32	55	1
58	58	16
39	39	10
102	103	3
37	38	5
82	82	14
50	50	12
102	102	10
31	31	9
33	33	6
50	76	1
46	46	8
96	96	15
50	51	2
82	90	4
37	37	4
29	30	3
61	61	15
71	71	11
106	106	4
38	67	4
88	89	4
35	95	2
65	66	4
68	68	13
78	78	20
77	78	4
70	70	9
25	25	1
25	28	2
101	102	8
92	92	2
72	77	4
67	67	6
79	80	10
75	75	17
55	55	17
70	77	1
42	43	15
43	43	22
88	90	7
57	59	2
35	61	3
47	48	3
41	80	1
51	55	5
73	73	10
71	73	3
33	36	1
40	40	4
56	57	6
40	46	1
83	83	10
90	90	7
94	98	6
34	34	6
95	95	6
86	86	7
64	64	9
22	22	5
60	60	9
42	44	1
77	77	6
94	96	2
74	76	6
45	45	6
77	101	1
96	97	3
28	48	2
93	94	7
42	42	10
38	39	4
41	42	2
38	38	7
72	72	2
66	67	5
98	99	4
89	90	6
21	21	9
76	76	9
53	53	3
99	99	14
47	47	8
84	85	4
28	54	1
69	70	2
26	27	9
57	57	9
40	82	2
88	91	2
68	69	2
31	95	6
82	83	3
46	104	3
70	72	1
54	54	4
98	98	9
56	56	6
34	36	2
31	32	2
20	20	5
96	100	1
91	97	2
22	35	2
84	84	1
52	54	2
50	105	2
59	80	5
44	47	1
82	86	5
32	94	4
49	52	4
83	86	8
52	53	1
20	21	5
32	32	7
23	23	2
29	29	2
92	97	2
63	65	5
66	69	1
81	81	5
67	68	2
66	68	1
83	88	1
100	100	14
33	106	5
31	92	3
44	45	3
94	94	5
97	98	11
65	92	3
66	79	4
100	101	2
47	53	1
55	106	3
63	63	11
62	63	3
82	91	2
60	61	1
27	28	4
93	95	2
41	78	1
74	74	5
64	78	1
26	29	1
59	79	1
68	83	2
43	80	4
31	33	3
81	90	4
49	51	1
49	49	2
68	77	2
62	65	1
104	104	3
28	57	2
67	86	2
24	24	3
66	66	1
41	41	5
25	98	2
48	49	5
52	73	2
45	46	2
36	62	1
30	56	1
73	75	1
89	89	4
86	88	6
84	86	4
59	59	7
79	81	1
63	64	1
51	52	1
27	27	2
78	79	1
64	66	2
48	57	1
29	43	1
85	94	1
30	34	1
29	58	1
72	76	1
50	71	1
61	62	1
89	99	1
87	87	2
52	52	3
32	97	1
48	48	1
38	77	1
83	84	1
88	98	1
53	54	1
28	28	1
80	80	2
60	63	2
74	75	1
30	92	1
30	55	1
67	84	2
65	76	2
59	60	2
86	87	2
62	62	2
39	95	1
64	65	2
97	99	1
70	76	2
30	30	1
104	105	1
58	59	1
27	29	1
60	94	1
32	33	1
94	95	1
40	41	1
37	71	1
105	105	3
73	74	1
34	35	2
66	76	2
72	78	2
62	64	2
31	94	1
46	48	1
65	77	1
66	72	2
25	26	1
