69	69	8
65	65	5
74	74	10
21	21	12
43	44	2
51	51	5
55	75	3
49	98	2
65	66	5
91	91	5
46	98	3
62	63	6
39	39	3
63	66	2
39	40	3
102	105	1
27	27	2
100	105	4
36	37	9
36	36	11
77	95	2
51	52	2
22	22	2
81	81	9
63	67	2
56	74	2
46	50	4
44	44	1
52	52	3
103	103	3
94	95	4
88	88	3
62	65	5
38	38	8
80	83	3
97	97	3
80	80	3
40	41	4
21	22	5
55	55	11
76	76	7
50	50	6
26	66	3
61	78	2
70	70	6
75	75	4
67	67	13
61	62	6
100	106	1
46	46	4
23	24	2
66	83	2
87	87	16
60	82	2
82	82	9
91	93	5
64	69	4
49	58	1
95	95	3
52	54	1
89	90	6
36	41	5
88	96	4
85	87	1
47	61	4
57	57	6
28	28	4
58	106	5
77	79	8
26	26	10
58	60	3
53	53	3
63	65	4
84	85	6
41	44	2
88	89	7
53	54	7
80	94	2
98	106	3
72	80	1
43	43	4
101	102	6
45	45	3
46	47	5
72	72	3
33	42	1
52	53	2
29	29	3
86	87	9
58	59	6
20	20	4
93	93	8
92	100	3
46	49	4
64	65	1
68	68	2
89	89	4
30	30	8
71	71	5
105	106	6
104	104	9
87	88	2
83	84	6
54	76	2
86	86	7
85	85	5
32	35	1
53	104	2
59	60	2
56	58	3
64	64	2
83	83	7
88	94	1
94	97	1
39	42	3
60	65	1
46	99	4
55	77	1
102	103	1
62	62	7
72	102	1
60	66	1
31	32	5
32	32	4
105	105	4
46	48	2
91	92	4
85	86	1
68	69	4
38	40	1
106	107	1
99	99	4
58	58	5
100	100	4
82	85	5
41	45	2
24	24	5
55	56	3
101	101	3
78	78	2
88	95	3
56	56	7
86	95	2
56	69	1
71	72	3
97	98	1
67	83	3
58	77	1
93	97	1
48	49	3
34	35	1
89	95	3
44	45	3
25	28	2
78	92	1
27	95	2
82	83	3
47	47	4
44	106	1
63	63	8
49	59	1
56	78	1
92	94	2
84	97	3
25	66	2
35	92	2
49	82	1
93	103	1
83	87	1
79	83	2
90	94	1
95	96	1
71	83	4
63	64	1
54	55	3
61	61	6
25	25	5
78	94	5
80	81	5
90	90	6
56	102	2
104	105	2
50	58	2
87	95	3
96	96	4
84	84	5
106	106	3
31	34	1
33	33	4
33	34	2
35	35	1
103	104	3
78	79	3
79	79	5
24	95	2
56	57	1
73	73	7
52	76	1
49	60	5
49	84	1
23	23	6
24	27	2
55	78	2
66	84	2
33	37	3
48	59	1
22	23	2
31	31	3
77	77	1
31	33	4
83	85	3
29	41	2
60	61	3
47	48	2
73	76	2
39	48	2
40	40	2
59	59	1
97	99	4
87	90	2
94	96	2
56	77	3
65	73	2
36	40	1
70	76	1
34	34	1
60	60	2
54	54	4
53	103	2
27	28	2
82	95	1
61	63	1
84	90	1
42	42	4
34	36	1
37	37	2
32	45	1
74	101	1
50	51	1
24	101	1
82	93	1
35	69	2
98	98	1
88	97	1
34	99	1
25	26	1
86	90	2
42	44	1
67	95	1
79	80	1
79	81	1
77	93	1
42	46	1
73	91	1
64	87	1
66	66	1
55	60	1
