55	89	3
73	73	10
63	63	7
90	91	1
50	50	10
54	54	8
52	52	6
22	23	2
23	24	1
34	34	8
56	67	2
65	100	6
76	77	4
89	90	6
103	103	10
57	57	8
46	66	4
43	43	1
79	80	1
26	29	4
105	105	9
42	42	6
26	27	2
96	99	1
89	89	9
68	69	2
42	50	2
26	28	5
86	87	4
25	25	6
37	37	5
48	48	8
84	85	5
27	28	1
78	80	3
97	99	4
35	36	7
21	21	8
42	91	1
32	32	10
33	92	4
23	23	19
46	46	5
102	102	2
31	31	3
66	66	6
91	92	5
48	58	3
41	78	1
71	71	6
80	81	1
22	90	1
44	44	9
70	71	4
85	85	6
51	68	2
47	47	5
67	67	7
86	86	4
88	88	6
79	88	1
63	64	2
27	39	3
100	100	4
58	58	2
76	76	8
56	56	10
23	65	2
94	94	8
72	72	2
70	94	2
49	50	5
46	98	1
97	97	12
70	70	2
71	72	1
39	96	3
40	40	5
36	70	1
99	99	7
49	49	4
25	26	3
29	29	4
51	62	2
28	28	2
59	59	11
98	98	5
35	35	8
25	29	4
75	76	2
33	72	3
53	106	2
53	53	7
74	74	6
83	83	1
91	91	2
41	41	5
80	80	4
27	30	2
22	22	2
106	106	4
55	55	6
90	90	4
70	96	4
31	37	1
82	86	1
95	99	2
84	92	4
107	107	2
45	45	2
75	75	7
27	27	5
60	63	2
38	66	1
43	66	1
29	40	1
94	95	3
104	104	1
95	95	1
54	55	3
44	75	3
77	77	4
70	95	1
93	96	3
78	79	2
79	86	2
24	85	1
67	103	4
96	96	3
58	60	1
50	103	3
93	93	2
62	62	1
87	88	2
20	29	2
42	43	4
37	67	1
28	48	1
34	37	4
36	64	5
38	38	4
20	52	1
69	69	2
31	54	1
72	73	2
38	46	4
101	101	3
72	78	1
40	41	3
28	38	1
79	79	1
92	92	2
43	45	1
62	63	3
29	88	5
37	38	4
20	28	1
36	80	4
53	54	3
47	48	3
64	64	1
29	30	2
61	64	2
28	56	2
78	78	6
49	101	1
41	42	2
97	98	3
79	82	2
59	99	1
38	104	1
33	33	2
81	81	2
25	27	1
58	66	2
79	83	2
87	87	1
58	61	2
23	57	1
68	68	1
73	86	1
38	48	2
55	56	3
74	77	2
33	94	1
42	84	1
66	68	1
25	28	1
44	45	1
60	86	1
29	39	2
61	61	1
56	93	1
39	39	3
33	45	2
40	42	1
96	97	1
65	69	1
20	72	1
36	36	2
43	83	1
105	106	2
38	39	1
82	82	5
47	107	1
67	107	1
40	72	1
60	60	1
31	66	1
73	79	1
62	80	1
36	67	1
46	65	1
83	86	1
