76	76	9
64	64	4
135	135	7
157	157	7
19	25	2
73	73	20
138	138	6
19	20	8
77	78	1
115	142	4
66	68	2
139	140	3
111	112	4
122	124	4
19	19	5
147	147	8
10	10	23
180	180	9
15	15	17
107	108	7
11	11	23
16	16	31
43	44	10
166	166	10
39	39	28
179	180	11
58	59	3
1	1	15
115	116	5
92	93	6
178	178	18
79	140	2
118	151	5
27	27	12
36	46	1
2	4	2
39	40	13
7	8	4
59	60	5
164	165	7
102	102	12
9	9	12
36	36	14
5	5	15
132	132	12
96	96	10
107	110	6
106	106	5
55	55	5
61	102	1
158	158	9
9	10	5
22	22	15
60	60	14
132	133	13
33	38	1
104	104	3
97	97	4
152	153	8
65	65	5
31	31	11
134	136	2
90	90	13
56	56	8
79	79	4
167	167	10
91	93	2
174	174	10
23	23	9
79	88	2
122	122	4
3	3	12
123	123	7
140	145	2
152	152	9
36	37	3
89	90	4
42	42	16
130	131	8
168	180	2
44	121	4
137	137	5
94	94	5
30	38	2
6	6	14
17	17	8
83	83	9
78	78	11
163	163	13
143	143	15
101	102	3
134	134	4
5	105	2
141	141	7
178	179	1
105	105	3
123	124	3
56	57	4
124	124	9
82	119	7
21	21	10
0	1	6
103	103	3
158	160	2
4	19	2
141	142	2
74	74	5
164	164	4
149	159	2
76	97	3
37	38	7
149	149	5
24	24	25
14	57	5
2	2	16
32	39	4
53	53	10
124	125	9
40	40	30
66	66	6
41	41	18
99	100	2
28	40	2
42	43	12
148	148	17
126	126	5
123	142	3
67	67	9
83	84	2
26	26	1
150	150	19
17	19	4
121	122	1
65	108	3
168	168	11
172	172	13
1	8	3
171	172	4
112	112	9
63	67	1
116	143	4
131	132	5
51	78	1
169	169	10
138	139	3
20	20	11
77	77	10
158	159	6
145	145	7
80	114	4
3	4	7
95	95	12
4	4	9
114	118	2
170	172	5
32	32	22
84	84	1
122	154	5
172	173	8
149	156	2
26	27	4
7	7	13
173	173	12
72	72	13
107	107	7
13	13	12
14	15	5
157	167	1
143	144	6
144	144	2
5	6	7
35	35	13
131	131	15
29	29	11
177	177	11
14	14	26
80	80	1
80	84	1
120	120	5
52	58	1
16	17	7
171	171	12
113	113	4
139	139	14
140	140	17
93	94	1
27	28	2
4	5	13
126	136	1
120	124	2
13	15	16
165	168	2
58	58	1
111	111	9
18	18	11
51	53	3
134	138	1
155	155	3
38	38	15
33	33	27
9	26	3
54	54	8
13	25	2
159	159	2
134	142	2
78	79	3
85	86	2
10	16	1
91	92	3
28	29	3
44	44	20
169	170	4
30	31	3
10	22	1
125	125	6
59	59	13
127	151	1
40	41	8
75	75	6
131	142	4
151	152	1
146	146	12
13	106	2
81	150	2
71	72	8
176	176	7
13	14	5
15	18	2
87	87	1
12	13	9
176	177	1
33	41	4
1	31	7
127	129	3
129	130	4
33	34	2
175	176	4
72	73	6
121	121	8
13	101	2
42	44	2
100	100	1
43	43	24
97	112	2
93	95	2
133	135	4
35	36	3
65	78	1
168	169	6
155	156	4
113	119	2
63	63	16
147	148	7
4	31	2
119	119	9
135	136	7
10	11	17
154	176	1
160	160	11
152	160	1
108	110	3
22	27	7
81	81	7
6	7	5
76	95	1
140	169	1
154	164	4
125	126	1
30	30	8
171	176	1
11	12	6
8	8	3
3	23	3
28	28	14
3	45	1
116	118	2
4	100	1
142	143	9
6	8	2
104	114	1
81	82	6
151	151	5
71	71	8
163	167	1
162	165	1
45	45	4
23	24	1
109	109	3
130	130	3
117	117	5
110	110	6
25	26	2
127	152	3
57	58	2
59	66	5
15	16	1
149	154	2
84	107	1
10	12	8
111	117	1
37	37	11
166	167	3
32	33	7
133	134	5
99	110	3
128	128	2
94	148	1
61	65	8
88	100	1
82	118	1
65	68	2
34	34	10
94	96	4
114	114	4
161	161	1
104	105	2
127	128	1
39	112	2
38	40	2
14	16	3
20	30	2
0	18	2
52	52	5
68	68	2
89	120	1
7	15	5
89	89	10
129	151	2
13	21	2
16	25	2
117	118	2
156	160	2
0	0	2
179	179	5
82	179	6
37	39	4
44	45	9
161	162	1
40	42	2
80	81	4
170	170	11
3	8	1
127	127	8
133	133	10
118	118	7
95	96	2
125	153	1
102	113	2
109	110	2
77	106	1
110	111	2
115	115	2
33	123	2
75	81	1
73	75	3
141	176	2
55	56	4
153	153	5
107	118	1
57	90	2
173	174	1
127	146	1
12	12	4
144	147	2
173	176	1
88	89	2
83	86	3
88	88	7
174	177	2
101	105	2
97	119	1
119	120	2
66	67	2
109	117	1
65	125	2
98	99	2
17	25	3
13	107	4
38	39	6
164	166	4
113	116	1
5	43	3
5	26	2
140	168	1
43	45	3
74	75	2
120	121	3
144	145	4
50	51	3
52	53	1
176	179	1
40	43	3
54	93	2
129	129	8
122	123	1
137	138	3
156	168	1
96	113	1
162	162	6
21	23	1
31	32	6
158	165	3
62	66	1
62	62	3
65	67	1
25	31	3
160	162	2
11	16	4
146	147	1
25	25	6
126	153	3
97	99	1
163	164	4
132	139	2
177	178	3
55	58	3
55	70	1
30	41	2
97	98	2
121	138	2
44	56	2
104	108	2
142	159	4
149	150	3
134	135	2
140	155	1
51	52	2
83	148	1
142	144	1
136	136	4
122	145	1
155	157	1
67	93	1
141	167	1
72	111	1
41	112	2
106	107	2
14	17	2
31	36	6
18	19	3
175	175	4
70	71	1
20	21	1
151	160	2
53	54	3
6	13	3
150	151	2
108	109	1
10	17	2
76	93	2
145	146	1
153	154	1
80	111	1
57	59	2
39	42	3
91	94	5
135	147	1
19	23	1
140	141	1
150	159	1
31	34	1
162	170	1
153	174	1
148	149	2
17	27	2
15	17	1
7	9	2
26	29	1
18	23	2
61	62	2
60	61	3
92	92	1
141	149	1
31	38	1
76	77	1
22	23	1
31	41	2
18	20	2
121	146	1
139	172	1
8	9	1
29	39	1
22	40	1
160	161	1
24	25	1
5	17	1
44	96	3
57	57	1
82	82	3
97	102	3
135	139	1
2	31	1
132	134	1
142	142	1
81	83	1
8	11	1
33	37	1
51	51	1
126	127	1
167	168	1
166	168	1
148	158	1
77	80	1
79	80	2
154	154	1
93	93	1
125	130	1
63	71	1
70	74	1
156	157	1
64	76	1
91	91	1
99	99	1
44	61	1
131	141	1
1	2	1
140	167	1
