111	111	5
91	91	11
114	126	4
26	30	2
5	5	10
13	19	3
6	48	1
48	120	6
110	111	8
10	12	1
45	45	11
128	128	4
27	35	6
15	16	7
97	97	4
92	132	4
18	35	1
68	68	12
29	59	5
10	10	9
118	119	7
8	8	7
64	65	2
44	88	1
30	40	5
32	32	8
75	75	17
44	45	10
43	43	2
46	100	1
41	83	3
39	39	3
32	59	4
117	117	2
78	78	17
73	73	11
4	5	9
23	23	7
16	34	2
59	59	20
120	120	7
100	100	11
98	98	8
65	65	9
126	126	6
92	92	7
11	11	18
57	57	16
103	122	4
41	58	2
3	76	7
55	55	2
106	106	2
19	19	5
58	59	6
46	46	13
62	63	2
43	60	4
42	42	9
95	126	4
98	99	2
61	78	3
90	90	4
27	98	3
22	22	10
126	127	5
31	101	1
35	36	5
119	119	8
93	100	3
34	70	1
10	11	6
88	88	2
60	60	10
79	79	9
82	82	1
9	9	7
121	122	3
3	102	6
25	25	18
68	69	3
59	88	5
56	57	2
63	63	3
71	102	4
32	48	1
72	72	9
31	31	10
48	48	9
48	51	3
71	71	6
121	121	3
84	84	4
40	55	3
88	106	5
30	30	17
78	92	5
5	39	2
132	132	6
95	95	9
37	37	4
33	33	11
20	84	1
86	86	4
99	100	9
21	22	16
67	68	2
26	26	10
84	85	1
44	44	7
83	95	2
14	14	5
34	34	6
13	14	5
101	102	4
30	31	3
13	13	10
102	102	14
29	31	3
9	10	3
17	17	13
56	56	8
6	6	6
83	97	3
5	36	1
79	129	2
82	83	1
81	81	7
21	21	4
101	104	5
124	124	4
91	92	9
112	112	11
80	80	10
74	74	4
77	130	2
97	98	7
24	24	3
113	113	2
40	42	3
14	34	1
37	38	3
3	3	3
94	95	4
76	76	7
26	47	3
96	110	3
73	74	2
29	29	12
74	75	3
79	91	1
29	40	2
47	47	11
34	71	1
50	50	1
75	76	3
58	58	3
11	134	4
26	78	2
127	133	4
108	108	3
100	101	1
48	70	6
83	83	5
69	69	5
64	64	13
127	127	3
11	12	2
16	16	8
79	81	1
101	101	4
35	35	8
116	116	6
4	15	1
96	96	9
103	105	2
62	72	9
112	113	7
8	26	1
77	77	6
131	131	2
77	117	5
34	35	3
25	26	4
62	62	4
88	89	3
114	125	1
40	45	2
45	97	2
11	112	3
3	62	1
107	110	3
78	113	7
66	83	3
23	25	4
16	101	2
31	32	3
20	20	3
27	27	2
19	43	1
101	123	1
7	7	5
114	117	1
99	99	3
122	122	7
115	133	1
89	89	5
84	128	1
6	83	2
62	75	7
86	87	4
66	66	5
48	49	3
90	92	3
126	133	4
5	40	3
57	59	3
3	118	3
0	0	4
33	34	3
120	121	2
36	85	2
71	72	1
98	108	3
19	69	1
91	95	4
104	104	1
10	46	2
78	79	9
131	132	5
18	41	2
108	109	1
67	67	6
118	118	4
78	80	5
94	94	10
113	130	1
126	128	1
109	124	2
117	120	1
17	71	3
34	61	2
16	17	7
133	133	4
37	43	3
103	103	6
69	74	2
38	38	2
79	80	2
96	100	3
12	12	4
134	134	1
45	93	1
80	84	1
61	61	2
91	93	1
46	72	1
90	91	1
96	111	2
15	15	3
92	93	1
102	122	2
103	106	3
44	61	1
41	43	5
7	25	1
85	95	1
36	42	2
60	61	2
57	58	3
20	22	1
103	104	4
34	76	2
131	133	2
47	98	1
88	91	2
83	84	4
96	98	1
12	61	2
78	120	3
129	129	4
123	124	1
91	94	1
25	47	1
117	118	1
6	34	2
11	25	1
11	99	1
8	9	2
109	109	1
27	78	2
80	82	3
45	46	1
9	27	2
11	26	1
46	47	1
93	93	2
10	85	1
85	85	1
10	14	1
130	131	1
44	94	2
24	25	2
63	64	1
82	90	4
43	45	1
5	94	2
90	95	2
26	28	1
96	97	1
2	2	2
32	49	2
89	125	1
115	115	1
18	18	4
114	115	2
50	58	2
39	40	4
112	116	1
88	92	3
34	48	1
10	113	1
7	8	1
88	107	1
28	28	1
48	99	2
41	41	2
44	57	1
20	97	1
6	102	2
82	95	1
113	114	2
4	4	3
16	134	3
81	90	2
24	26	1
104	105	1
17	34	2
26	59	2
87	87	3
44	93	2
9	16	2
46	97	1
5	76	1
87	115	1
84	90	3
42	43	2
80	81	2
4	16	1
49	55	1
107	108	2
107	107	3
37	76	1
31	103	1
94	100	2
20	55	1
88	93	1
34	47	2
19	44	1
93	94	2
64	68	1
115	132	1
95	116	1
46	61	1
13	35	1
31	82	1
115	131	1
123	129	1
42	54	1
55	56	1
36	36	1
85	134	1
130	130	1
127	134	1
59	60	1
24	83	1
17	102	1
68	71	2
72	73	1
3	10	2
56	62	1
57	60	1
125	125	1
77	78	3
110	124	1
112	114	1
87	89	1
99	101	1
11	48	1
12	48	1
35	57	1
