137	138	8
23	23	8
85	87	3
75	76	2
93	93	1
73	74	4
89	89	1
2	3	9
18	18	4
110	115	2
100	100	4
130	130	9
95	95	7
25	93	2
115	115	7
133	133	7
97	99	1
30	30	5
17	17	3
28	118	5
34	36	1
23	31	2
112	112	5
132	133	3
139	139	12
4	5	12
132	132	8
74	74	6
117	117	5
78	78	3
80	98	2
120	121	4
1	83	1
15	15	2
128	128	12
119	119	1
105	106	2
110	111	2
76	78	1
100	132	4
116	116	4
17	19	1
140	140	6
124	124	4
94	94	6
126	126	13
136	136	10
37	37	3
119	120	3
32	32	8
22	22	2
71	71	7
87	87	8
102	102	5
102	105	3
110	110	3
130	132	1
80	80	6
114	114	4
10	10	2
3	3	7
97	136	3
105	109	3
88	95	2
84	84	6
138	138	3
13	13	5
135	136	3
29	94	1
134	137	4
115	129	3
117	118	9
85	85	4
127	128	5
13	14	5
79	81	2
2	2	2
28	28	4
131	131	6
134	135	2
101	101	1
9	9	2
18	36	2
72	72	2
75	75	3
25	26	2
14	20	3
108	108	2
72	73	2
79	79	5
17	27	1
99	99	3
6	6	5
104	104	7
128	130	1
120	120	4
119	123	1
92	92	2
123	126	2
16	17	1
86	87	1
120	122	3
9	83	1
122	122	8
111	111	2
117	119	2
107	107	5
127	127	1
24	24	3
136	137	1
5	118	3
88	88	6
16	16	3
103	104	2
87	88	7
5	6	4
129	129	8
12	12	1
9	10	1
137	137	2
30	93	1
107	108	5
21	21	3
73	73	5
123	123	2
138	139	2
86	92	3
134	134	5
83	103	2
90	90	1
91	132	1
76	98	2
78	79	3
36	36	5
35	35	8
95	96	2
126	127	1
31	78	2
7	7	3
135	135	3
103	106	1
17	21	2
131	132	1
5	7	3
9	20	1
104	105	2
83	84	9
125	125	4
10	19	3
26	26	1
34	34	5
28	98	1
77	77	2
28	99	3
31	31	4
121	121	3
27	82	2
138	140	1
105	105	7
80	87	2
79	80	3
1	1	6
33	33	5
30	31	2
5	5	3
20	21	2
129	130	2
103	103	3
25	25	2
89	90	3
77	93	2
85	107	3
118	118	3
127	129	2
96	96	6
84	85	1
87	93	1
74	75	3
97	98	2
135	140	1
111	113	3
88	89	5
18	125	1
27	32	2
8	84	1
108	111	1
77	78	3
109	109	6
77	79	1
100	102	1
8	9	2
118	119	1
20	20	2
99	100	1
91	91	4
8	15	1
27	35	1
84	86	1
4	4	1
106	106	1
103	107	2
13	36	2
82	82	2
0	2	1
29	29	1
85	103	1
11	12	1
86	86	1
28	29	1
8	8	1
30	32	1
22	23	1
81	81	1
139	140	1
135	137	1
1	11	1
19	19	2
113	114	1
31	32	1
133	136	1
5	86	1
121	122	1
21	24	1
101	103	1
107	109	1
83	83	1
4	18	1
