42	42	35
14	14	58
33	34	28
31	31	54
41	41	71
34	34	64
15	15	81
50	50	65
52	52	38
30	31	19
31	32	24
30	30	64
21	21	19
58	58	40
18	18	60
40	41	9
11	11	63
46	47	17
38	38	16
52	53	18
37	37	47
56	56	41
37	38	15
16	16	70
33	33	43
10	10	68
19	19	38
29	35	4
13	13	61
32	33	14
49	49	70
7	7	23
5	5	72
48	48	60
30	32	7
12	12	51
31	33	4
8	9	9
3	3	62
6	6	32
19	52	1
35	35	66
57	57	44
40	40	81
34	56	2
47	47	42
32	32	40
36	36	30
30	33	5
17	51	3
55	55	47
18	19	13
43	43	7
29	38	5
32	35	4
29	30	10
39	39	51
53	53	25
14	15	18
0	0	22
28	28	13
13	40	5
57	58	10
42	53	3
20	21	18
12	46	3
38	43	5
0	1	9
2	2	41
45	45	55
14	48	1
6	7	12
30	38	5
4	5	20
8	8	23
35	36	16
52	57	5
28	31	10
29	29	30
37	44	1
44	44	27
1	2	10
2	4	3
4	4	46
21	23	10
13	14	11
14	42	2
52	55	4
34	35	5
36	38	4
1	1	48
49	50	5
11	12	16
51	51	46
23	23	16
18	39	2
35	54	5
39	40	14
15	16	29
16	17	14
22	22	17
9	10	6
17	17	64
54	55	7
20	20	19
38	39	15
1	15	3
17	34	2
55	56	11
29	32	9
15	19	2
46	46	33
35	44	4
24	24	13
18	50	1
41	42	8
11	30	4
34	40	3
28	29	12
21	55	1
36	37	17
1	13	4
13	24	1
10	11	18
17	47	2
20	22	8
17	18	21
39	46	3
35	42	4
3	14	2
54	54	25
19	24	4
10	16	4
1	10	2
23	24	4
35	45	2
10	35	2
33	35	7
44	45	7
52	54	5
4	6	3
9	9	43
30	58	2
7	8	8
21	40	4
15	31	3
23	31	3
53	54	10
36	44	2
0	12	7
51	52	15
0	3	2
12	35	1
31	35	7
40	42	4
55	59	2
2	40	2
56	57	8
0	17	4
38	53	5
47	48	8
12	13	11
1	55	2
22	24	3
34	55	1
21	37	3
58	59	2
12	36	2
56	58	3
19	20	13
33	58	3
42	43	5
19	51	1
52	58	6
13	43	2
3	40	4
21	22	5
0	2	3
48	49	4
13	30	1
36	57	2
34	44	1
50	54	4
13	29	1
1	3	2
15	47	1
10	33	2
8	49	1
5	7	1
32	37	8
34	38	6
18	51	3
48	51	2
15	45	1
20	30	4
43	49	1
2	3	7
19	21	4
46	55	2
14	16	1
3	4	4
35	38	2
29	31	11
17	46	1
18	40	3
1	39	1
20	37	1
39	41	1
53	57	5
43	45	5
34	43	1
18	36	1
15	17	1
5	18	9
4	49	2
11	48	1
11	16	4
2	48	1
11	14	4
34	39	5
10	14	2
14	18	2
35	43	4
35	51	1
15	33	3
32	40	3
27	27	2
45	46	1
6	14	2
14	17	1
46	51	6
20	23	11
52	56	2
57	59	2
1	59	2
16	51	2
7	13	4
51	57	1
12	18	1
13	35	4
42	44	2
19	55	2
4	51	2
1	14	3
28	53	1
11	55	1
16	46	4
22	23	12
59	59	5
24	51	2
18	45	3
8	53	3
6	10	2
13	46	2
39	50	2
55	58	4
51	55	2
53	58	1
32	38	2
19	40	1
9	23	1
23	37	1
16	40	4
40	46	2
23	28	1
48	50	2
7	17	4
15	48	3
14	50	1
10	55	2
35	41	2
34	36	1
50	51	1
2	41	1
0	19	2
6	49	2
50	55	3
32	51	1
23	51	3
33	59	2
32	56	2
13	48	1
15	18	1
4	19	2
53	56	1
21	24	2
0	20	2
31	37	1
4	7	2
42	48	1
31	58	2
23	39	1
30	51	1
19	39	2
13	15	3
42	49	2
6	17	1
4	14	1
38	47	3
12	37	1
44	58	1
19	36	2
4	55	1
7	40	2
12	56	1
37	45	2
34	53	1
19	22	1
23	50	2
43	51	2
54	56	2
11	24	1
6	59	1
28	57	1
44	56	1
19	35	1
8	10	1
22	37	1
28	34	1
21	50	1
0	14	1
3	59	1
34	58	1
18	47	1
10	13	1
16	31	2
0	13	1
43	44	1
20	31	2
33	40	1
13	21	1
14	49	1
17	38	1
5	6	1
36	42	1
19	58	1
1	20	1
29	33	1
10	15	1
