48	48	8
30	125	4
83	92	3
74	74	13
84	101	2
63	63	14
130	130	5
33	34	1
38	38	2
42	42	8
62	62	19
23	63	3
50	50	1
85	85	16
114	114	7
11	11	30
75	76	3
66	66	25
36	39	3
46	46	12
29	29	15
64	65	3
22	31	1
7	7	4
10	10	20
80	80	12
25	62	4
26	47	3
82	82	15
12	12	11
30	30	16
72	73	2
92	92	9
133	133	2
26	83	1
75	75	7
45	45	23
72	72	11
101	101	13
17	62	1
87	87	7
65	65	15
61	61	13
73	73	19
71	71	10
89	130	1
114	115	1
107	108	4
44	60	1
82	85	1
19	19	4
74	75	3
4	4	2
78	78	10
14	15	1
91	91	2
113	129	3
93	93	7
91	92	5
55	56	6
108	108	3
86	98	1
8	8	10
57	57	3
27	80	3
48	50	2
8	32	4
5	56	3
24	82	1
88	89	2
108	117	8
34	36	5
125	125	6
2	2	6
1	1	3
9	9	13
10	21	2
116	117	2
4	49	5
34	34	10
60	60	8
16	16	3
33	33	9
31	31	11
6	6	10
12	15	1
64	64	30
25	25	10
14	14	8
23	23	11
22	27	4
95	95	14
27	98	3
99	99	20
71	72	6
41	42	3
68	68	6
24	25	3
113	113	3
97	97	18
132	132	2
86	86	22
25	26	4
128	128	8
47	47	30
37	40	4
27	28	1
111	114	2
32	32	4
20	27	2
7	56	1
58	58	4
20	20	10
76	76	2
67	67	3
19	41	3
37	38	2
16	61	2
99	100	6
115	116	1
61	62	3
36	36	7
6	17	1
11	63	1
33	45	5
0	0	8
123	124	1
67	68	13
98	99	2
12	63	3
3	3	5
7	8	5
43	43	7
8	40	2
55	55	10
119	119	4
28	28	4
120	121	2
28	59	3
118	118	6
127	127	5
9	10	8
24	24	7
21	22	2
131	132	2
79	79	9
11	41	1
17	73	3
89	90	2
103	103	1
30	40	4
40	40	1
4	6	1
109	109	6
29	32	2
5	5	1
117	117	9
116	116	10
105	106	4
26	77	2
100	100	6
27	49	1
69	69	9
77	77	3
69	70	2
19	35	3
7	16	4
7	26	1
87	97	1
15	15	14
115	115	4
37	80	1
84	84	3
101	130	3
59	59	2
58	59	4
30	31	6
100	101	6
81	81	6
6	8	1
31	38	2
83	83	8
10	11	2
11	16	1
97	98	3
88	95	3
70	70	8
116	126	2
94	94	11
38	82	2
60	61	2
58	78	2
93	94	8
112	112	6
35	35	13
48	92	7
49	49	4
20	21	1
10	14	4
78	82	1
134	134	2
29	33	1
93	98	5
75	78	2
22	83	1
66	96	2
62	63	2
15	23	1
112	128	1
8	9	2
32	36	1
45	125	1
102	124	1
106	106	4
10	20	1
8	25	1
108	118	2
39	39	2
43	49	2
111	112	1
33	61	1
63	64	3
45	54	4
123	125	2
90	90	5
121	121	4
27	38	1
13	13	2
3	61	2
123	123	8
80	111	3
106	107	2
47	82	1
15	20	2
9	18	1
81	82	4
21	84	2
111	111	6
3	76	1
129	129	2
38	56	1
120	120	5
99	101	1
108	109	1
19	20	2
44	44	7
124	125	3
27	27	2
61	72	1
9	17	1
3	57	1
110	110	3
20	43	1
56	56	5
97	134	4
26	84	4
8	10	1
28	36	1
6	83	1
5	19	2
57	100	1
79	81	1
26	26	9
40	41	2
124	124	2
11	93	4
102	104	3
110	111	3
29	94	3
67	72	1
45	46	2
47	123	1
46	61	1
38	81	1
47	93	1
34	45	3
26	62	1
104	104	3
12	13	1
19	43	2
62	66	1
24	26	3
12	85	4
61	71	1
28	33	1
5	11	1
48	56	2
17	18	2
88	91	1
101	102	1
126	126	2
63	68	1
8	22	3
117	119	4
119	123	1
130	131	1
18	19	1
21	21	4
78	80	2
92	132	1
42	43	3
98	98	2
92	116	2
121	125	1
55	93	1
18	18	1
82	111	4
73	74	2
127	128	2
8	83	3
41	41	1
18	62	1
30	60	1
10	61	1
7	100	1
27	83	1
105	105	2
97	100	1
132	134	1
104	106	1
102	102	1
85	88	1
46	125	2
122	125	1
7	58	2
79	80	1
122	122	2
23	24	1
13	61	1
80	81	2
73	102	1
6	93	1
85	94	1
81	84	1
83	85	1
95	96	1
38	40	1
118	119	1
11	12	1
89	89	2
17	17	2
73	82	1
29	62	1
77	78	1
16	36	1
88	92	1
68	69	1
15	32	1
1	64	1
26	79	1
