34	36	4
61	61	7
10	32	2
38	38	5
106	108	2
177	190	2
144	144	5
81	81	5
176	177	6
185	186	7
25	36	2
13	13	7
146	146	4
154	155	3
147	147	3
178	178	4
37	64	2
105	135	1
33	33	5
70	77	7
26	34	3
13	14	4
184	186	7
74	74	5
132	190	2
146	170	2
89	100	1
191	191	3
143	143	5
90	90	1
104	106	6
30	30	5
118	139	2
57	57	11
67	67	4
0	0	9
103	103	3
181	190	1
18	19	1
179	179	4
69	69	4
110	132	1
54	55	3
25	25	6
26	26	4
55	55	5
161	162	5
12	12	2
40	41	4
129	143	1
11	18	1
176	176	2
96	148	2
153	180	2
53	53	3
147	149	1
34	35	3
7	12	2
67	68	2
96	113	3
175	178	3
19	19	1
5	5	12
194	194	4
111	111	2
76	76	2
112	112	7
174	174	10
100	102	1
109	109	8
119	136	1
23	23	2
137	137	5
77	78	1
141	141	2
152	153	5
157	192	4
158	158	8
181	181	2
132	132	2
142	162	3
95	95	5
186	186	7
171	171	3
148	149	3
63	63	2
24	28	4
190	190	1
64	74	2
39	76	1
55	150	2
59	59	6
44	46	3
180	180	6
7	35	1
170	171	1
177	178	4
43	52	7
88	142	1
35	35	2
121	121	2
123	123	8
131	131	2
101	101	4
192	192	1
116	116	1
159	182	8
21	22	4
19	22	3
44	54	2
170	170	11
180	182	3
150	150	10
165	165	3
106	106	9
8	8	1
127	128	1
174	190	5
16	16	2
105	110	2
183	191	2
182	182	2
12	40	1
177	177	3
34	34	2
156	170	4
151	151	2
151	152	3
54	97	3
39	79	6
107	109	1
187	187	5
47	47	3
29	29	5
64	80	3
144	145	3
189	190	1
175	175	4
43	44	3
23	25	2
3	52	4
60	60	5
135	137	3
113	119	1
196	196	5
169	169	6
140	153	1
105	105	1
192	193	2
172	172	3
102	103	2
10	31	3
109	174	1
54	54	8
100	100	8
134	134	4
98	114	2
1	1	2
139	139	7
10	10	2
98	98	3
146	147	2
59	61	1
110	110	8
138	138	2
130	155	4
82	82	3
141	148	2
98	99	2
59	150	2
35	37	1
185	194	1
142	168	1
82	88	1
34	39	1
157	158	1
145	146	4
6	7	2
126	167	2
114	197	1
169	171	2
152	155	3
176	186	2
10	11	2
148	164	2
69	78	4
24	54	4
189	189	4
65	65	3
166	167	1
114	114	7
37	37	2
44	44	1
88	89	2
107	107	5
130	130	1
46	47	1
42	42	2
28	31	1
63	69	2
171	190	3
144	146	2
4	4	1
106	110	1
104	138	2
94	95	6
18	18	2
7	11	3
46	46	2
127	127	3
21	39	2
36	36	3
140	140	4
77	77	1
9	9	2
3	4	1
164	164	1
171	172	2
147	160	1
37	38	2
71	71	3
42	64	1
178	179	1
160	160	1
174	175	4
6	6	3
40	40	1
66	66	1
180	192	4
66	74	2
72	72	5
97	97	3
102	102	1
136	136	3
131	176	3
12	37	2
95	96	1
156	157	3
14	15	2
135	135	5
115	116	2
113	113	1
129	129	1
187	188	1
154	154	3
45	45	1
36	54	2
157	157	3
56	56	1
4	25	1
30	31	1
163	163	5
8	27	1
68	68	1
22	22	5
138	151	2
133	133	4
58	59	1
187	189	3
102	110	1
112	114	2
67	73	1
3	9	2
114	134	4
60	80	2
113	130	1
104	118	3
28	32	4
156	159	1
50	51	1
115	115	3
139	143	1
156	158	1
139	140	1
117	117	2
133	134	4
179	180	1
117	140	1
8	24	1
161	163	2
99	116	1
106	134	1
74	144	3
158	181	2
144	169	1
99	99	1
17	17	5
168	186	2
59	74	2
43	70	1
0	61	1
33	42	1
27	27	2
187	192	1
10	27	1
54	58	1
187	194	1
20	23	2
27	28	1
195	195	1
145	145	2
129	169	3
184	184	1
122	124	1
118	150	1
186	193	3
130	154	1
4	5	2
187	195	1
39	39	1
84	85	2
41	41	1
8	9	1
160	161	1
2	63	1
50	50	2
191	195	1
82	96	1
168	168	1
123	124	1
10	25	1
84	114	1
82	83	1
53	56	1
20	39	1
129	152	1
59	66	1
110	111	1
162	163	1
5	27	1
173	173	1
183	183	2
143	144	1
118	118	2
158	159	1
157	189	1
36	99	1
166	166	1
