23	23	17
35	106	4
50	50	2
154	154	4
156	156	5
12	16	2
116	149	1
76	76	10
159	159	2
19	19	16
63	66	1
112	112	2
64	64	8
41	41	14
22	23	7
67	67	7
165	167	2
152	164	4
175	175	9
15	15	13
4	45	1
135	136	3
13	15	2
95	95	3
150	152	2
145	146	2
179	179	2
77	77	9
158	158	6
136	155	1
2	4	8
97	97	11
168	168	6
43	43	11
90	90	7
108	108	3
4	4	16
14	14	5
56	56	6
55	56	6
65	66	2
27	27	5
1	5	3
103	104	8
174	177	5
101	101	6
14	15	7
6	6	14
118	122	3
119	146	1
43	44	2
26	28	1
58	58	3
107	114	3
68	81	5
153	153	4
20	21	2
151	165	3
122	122	4
40	41	6
92	92	5
159	177	7
45	46	6
104	105	3
158	168	4
110	110	4
65	79	2
4	8	2
87	98	3
10	81	1
94	138	1
167	167	8
11	12	4
53	53	7
131	133	3
109	109	3
172	172	4
164	165	3
116	117	1
98	99	2
17	18	6
87	87	3
111	112	7
106	106	3
34	35	3
98	98	9
16	16	2
60	81	2
146	151	1
52	52	11
3	3	9
81	82	2
24	24	7
66	68	5
123	123	2
129	130	3
120	120	4
163	163	8
127	128	3
27	28	15
50	61	7
36	36	4
52	53	4
8	15	3
65	65	3
156	158	1
59	59	6
170	171	7
26	27	1
82	83	3
176	176	8
26	30	1
87	160	3
70	71	2
12	12	9
137	139	1
136	136	4
124	124	5
133	133	15
10	11	1
95	96	2
87	89	3
32	35	1
102	151	2
113	113	4
139	139	6
7	20	1
142	142	10
23	27	3
125	125	8
6	13	3
111	111	9
13	13	9
37	94	2
164	164	4
87	147	7
148	179	2
35	35	2
61	83	1
8	9	4
134	134	7
174	176	2
60	102	3
39	39	3
78	78	5
31	101	4
89	98	3
43	45	1
61	61	1
89	89	6
25	25	3
118	118	9
34	34	1
90	94	2
174	175	2
100	104	4
19	20	2
10	15	3
29	29	5
38	40	3
143	144	1
89	109	3
84	120	2
149	149	9
75	76	2
15	16	4
7	44	1
1	28	1
81	81	4
74	121	3
146	146	3
79	79	2
37	37	7
10	10	14
130	140	2
28	39	5
54	60	1
134	135	3
100	112	1
67	82	4
152	152	3
66	66	4
112	114	3
36	176	5
4	5	4
2	3	7
63	63	6
20	20	4
101	108	2
55	55	6
112	113	2
18	19	9
8	20	3
103	103	3
73	75	2
17	17	3
148	148	8
6	7	2
57	102	1
174	174	1
166	169	3
30	30	5
28	28	3
80	80	6
72	72	4
119	119	1
115	128	1
131	159	1
135	137	2
171	171	2
50	51	4
117	118	1
103	107	6
8	12	2
30	31	3
93	95	3
132	137	1
18	18	3
34	84	5
146	154	3
21	33	2
25	30	2
120	144	1
22	22	6
42	44	3
24	26	4
10	22	2
37	92	1
83	85	4
83	161	3
130	130	1
148	178	1
153	178	3
32	32	4
37	38	3
0	1	3
116	116	4
138	139	1
173	173	2
94	122	3
10	43	3
149	150	3
137	137	3
163	164	2
80	81	6
74	74	5
0	0	2
38	38	3
5	39	3
73	73	4
154	158	2
33	43	2
50	62	3
154	155	4
103	132	2
90	149	1
86	87	2
107	107	2
40	40	1
113	161	5
161	162	1
30	39	1
110	111	3
178	178	6
28	42	2
123	124	2
33	33	9
28	38	2
117	117	6
105	105	3
121	126	2
96	96	3
115	169	1
157	157	3
3	40	1
177	177	4
6	42	1
109	110	1
114	114	3
131	131	2
14	16	1
42	43	3
140	140	6
8	8	5
129	129	1
126	136	2
165	165	2
110	145	2
61	64	1
32	33	7
14	23	2
97	110	1
136	137	2
23	39	1
13	33	3
145	145	8
31	31	5
77	78	3
160	160	1
4	6	1
64	65	4
101	107	4
0	44	1
117	148	1
14	28	1
24	33	1
130	131	4
11	11	4
138	138	4
106	107	1
54	55	4
56	57	2
25	26	1
119	133	4
128	155	2
36	38	2
1	96	1
115	148	1
99	112	1
19	32	3
45	45	1
80	180	2
61	122	2
25	44	2
5	5	6
22	28	3
60	61	3
7	7	2
7	8	1
27	30	2
32	102	1
102	103	2
141	141	4
146	150	2
119	152	1
117	157	3
80	173	1
29	86	1
100	101	1
118	154	1
103	106	2
2	2	3
32	101	1
88	88	3
64	68	1
164	169	2
62	71	2
79	174	2
24	30	1
26	26	2
100	100	1
132	132	1
170	176	2
145	179	1
166	166	1
114	161	1
8	17	1
91	92	2
126	126	1
54	54	1
150	150	1
82	84	2
16	41	1
147	149	5
52	61	2
6	15	1
52	92	2
1	41	1
124	132	1
1	4	1
58	170	1
152	159	1
8	28	1
133	134	1
97	111	2
155	156	1
11	15	2
87	119	1
175	176	1
44	44	1
57	79	1
127	127	1
9	9	1
91	110	1
104	107	1
21	21	3
23	26	2
78	81	1
94	94	1
75	75	1
82	82	1
37	40	1
0	41	1
0	10	2
37	72	1
17	23	1
102	102	1
1	1	2
51	51	1
149	154	1
38	59	1
42	42	2
61	82	1
123	125	1
115	131	1
78	79	2
126	173	1
107	116	1
85	166	1
41	89	1
167	168	1
22	45	1
29	30	1
162	167	1
52	93	1
57	57	1
16	17	1
105	106	1
8	10	1
31	73	1
