11	11	28
57	57	24
10	86	4
23	29	2
80	80	21
23	23	28
25	25	19
30	31	4
71	72	16
24	24	31
0	3	6
54	55	8
76	76	13
0	1	5
12	12	21
10	11	3
48	48	26
9	10	10
26	26	13
23	31	3
13	27	7
7	7	26
75	76	14
70	72	2
73	73	27
56	60	3
15	15	21
6	17	3
62	62	22
29	30	3
51	51	12
81	81	16
13	13	38
65	65	18
15	24	5
9	25	4
31	31	37
67	67	18
86	87	19
77	77	24
86	89	6
59	60	10
50	50	31
22	22	33
69	70	3
72	72	11
87	87	15
17	18	17
30	30	27
10	10	26
53	53	15
1	2	8
84	84	29
25	27	4
2	2	15
81	82	8
51	52	5
67	72	2
56	57	12
69	69	22
66	76	1
3	3	15
63	65	5
0	0	23
23	28	5
21	21	15
9	11	5
46	48	11
76	79	6
67	68	11
20	20	18
83	84	7
55	55	25
47	47	22
79	79	16
24	26	4
23	24	4
27	27	26
83	83	22
53	55	6
28	28	28
58	62	3
49	49	28
54	54	7
68	69	6
88	89	8
59	59	13
23	25	5
68	68	12
48	50	1
25	31	8
1	1	22
68	81	2
89	89	6
75	75	15
71	71	13
5	5	14
22	23	7
66	66	19
57	58	6
19	19	27
78	79	7
7	8	18
73	74	4
53	75	6
63	63	16
64	64	16
47	49	5
68	73	3
9	9	21
56	56	14
8	8	37
55	62	3
50	51	2
87	88	4
78	78	6
49	50	9
66	68	1
71	84	5
70	70	8
65	66	9
77	78	7
62	65	4
8	22	1
17	17	11
4	12	2
4	5	5
60	64	5
5	6	9
32	32	8
8	10	1
64	65	2
11	12	4
79	80	7
6	7	2
6	6	9
15	16	2
80	81	14
60	62	4
82	83	8
81	83	8
66	67	6
16	17	4
52	52	8
74	74	11
0	2	2
58	61	9
53	54	7
4	4	12
86	86	19
68	70	2
56	58	2
74	75	6
25	63	2
82	82	12
60	63	1
59	61	3
8	27	2
8	15	1
58	58	25
18	19	8
28	29	4
47	54	5
0	6	1
90	90	2
80	82	4
31	46	2
27	29	2
29	29	10
60	61	4
24	25	13
85	86	4
34	35	5
22	25	4
55	56	8
14	14	10
72	73	3
14	17	1
25	26	5
52	53	6
46	46	4
47	48	8
76	77	4
11	14	4
14	16	4
61	76	2
75	77	3
8	11	1
21	26	4
58	71	4
62	63	7
26	31	2
34	34	5
47	50	1
63	78	2
12	26	1
62	75	2
13	21	1
48	53	1
88	88	17
3	4	7
21	22	4
82	84	4
72	75	1
18	18	2
7	19	1
14	20	4
16	25	4
60	60	10
15	25	4
47	65	2
67	69	2
58	76	1
20	21	6
10	12	2
59	62	1
51	54	6
14	15	6
58	63	2
49	53	6
87	89	2
16	16	2
85	87	1
19	20	6
63	64	4
66	80	3
13	28	2
16	28	1
80	83	5
56	61	3
68	74	5
13	17	3
6	8	2
72	84	2
61	61	3
89	90	1
53	64	3
46	47	1
16	19	2
51	65	4
5	7	2
77	79	1
50	52	1
61	62	2
76	78	3
74	76	2
9	29	3
22	26	2
12	13	2
16	27	2
85	85	6
7	20	1
74	81	6
21	23	1
26	28	2
33	33	2
9	13	1
62	76	2
26	27	1
5	13	1
28	31	1
64	66	2
73	86	2
55	60	1
77	81	2
72	74	6
13	14	1
84	85	2
22	24	1
52	66	2
15	26	2
54	75	2
6	19	2
54	56	1
8	24	1
71	74	1
79	82	3
14	21	2
60	76	1
10	26	1
79	81	1
83	85	1
74	84	1
79	84	1
5	8	1
48	49	3
50	53	1
67	70	1
4	22	1
52	55	1
2	4	1
13	26	1
49	51	1
63	76	1
20	22	1
61	65	1
