84	84	11
14	14	4
87	87	4
15	25	1
66	80	1
77	80	1
67	67	10
79	79	12
24	26	4
70	71	6
2	2	15
61	81	5
25	54	3
7	8	3
6	14	2
31	78	1
66	66	10
18	19	1
80	80	6
16	26	4
64	64	6
16	17	3
50	51	7
57	58	1
48	48	10
26	26	7
17	17	3
58	84	2
47	47	3
73	73	10
85	85	5
49	49	4
55	55	1
12	12	5
30	81	1
51	51	5
4	4	1
12	13	1
47	51	4
76	76	13
70	70	5
57	85	3
80	81	7
61	61	12
22	27	1
74	81	1
13	48	2
10	10	9
9	10	2
21	22	1
6	13	2
7	25	1
11	15	3
6	7	2
6	6	7
4	5	3
78	78	6
88	88	6
5	50	3
68	68	3
5	5	3
54	54	8
57	57	4
15	15	2
31	64	4
18	18	3
75	75	3
82	82	9
31	31	6
64	65	7
9	9	3
30	30	3
58	66	1
81	81	7
66	75	3
54	55	3
50	50	4
65	65	6
69	69	4
63	65	3
62	62	2
54	62	5
62	64	2
46	46	4
72	72	8
63	64	4
34	65	1
7	50	4
57	66	1
59	59	5
75	76	1
48	49	3
25	27	2
47	50	1
47	48	3
0	0	2
72	73	4
30	72	1
33	82	1
76	79	2
7	7	3
19	19	8
81	82	4
26	27	3
6	50	2
82	83	2
23	51	1
22	22	1
31	61	1
24	24	5
23	24	4
69	70	1
20	20	4
8	8	2
65	66	2
62	66	3
75	80	4
50	52	3
20	21	1
59	62	1
55	61	1
0	69	1
51	52	1
59	60	1
29	29	2
60	78	1
60	62	5
10	12	1
25	25	2
89	89	3
77	78	3
53	56	2
28	28	2
55	62	1
5	6	1
65	77	1
50	58	1
19	21	1
83	83	4
49	52	1
32	64	3
55	59	2
27	27	7
78	80	2
50	53	1
81	83	1
58	58	3
19	20	2
29	72	2
50	54	2
13	13	6
63	63	2
59	76	1
84	89	1
54	89	1
31	66	2
28	29	2
23	84	4
81	84	1
32	82	1
31	67	1
86	86	1
14	27	1
24	27	1
77	77	1
23	23	2
74	75	3
68	69	2
34	34	1
53	82	1
51	58	2
71	87	1
8	13	1
3	3	3
27	28	1
61	77	1
69	72	2
56	56	2
11	11	2
71	71	3
79	80	2
47	80	1
53	81	1
28	82	2
52	52	3
49	77	1
10	85	1
1	1	1
8	9	1
48	52	1
5	7	1
13	50	1
6	8	1
57	75	1
21	21	1
10	11	1
46	64	1
5	12	1
14	20	1
25	26	1
