68	77	1
123	123	7
13	13	3
87	88	3
84	84	6
38	39	3
22	22	4
35	35	3
81	81	1
72	72	5
46	47	2
68	68	3
46	46	4
26	60	3
62	93	1
34	46	1
131	131	2
21	21	11
70	70	8
13	40	2
84	85	3
82	82	6
59	59	1
26	26	4
123	126	1
14	14	5
130	130	5
8	8	1
64	85	2
104	105	3
120	121	3
20	20	8
38	43	1
113	116	1
92	93	2
64	64	7
31	42	5
100	101	2
71	71	5
7	7	4
128	129	4
36	36	3
13	41	2
79	80	3
74	100	3
90	91	4
108	108	5
6	7	1
55	132	1
5	5	4
68	76	5
87	87	1
2	2	1
36	60	2
122	122	2
79	79	5
37	38	2
28	28	7
15	15	3
33	33	1
73	73	1
99	125	1
82	84	6
44	76	1
91	93	2
26	94	1
26	32	2
5	93	1
44	67	1
78	81	1
86	87	5
109	109	2
27	27	5
24	25	3
76	121	4
134	134	6
74	75	1
124	125	1
83	84	3
68	74	1
5	22	1
5	6	2
106	116	1
9	9	5
74	125	1
96	96	2
89	89	4
92	92	6
81	82	5
30	79	5
9	10	3
45	69	2
28	90	2
62	69	1
60	60	3
102	102	3
24	26	1
58	60	1
32	33	1
48	80	1
125	132	2
34	34	3
18	18	4
97	97	2
58	62	5
58	69	2
93	128	1
78	84	1
35	36	1
67	67	2
62	68	3
8	9	2
63	63	2
26	93	4
132	132	6
55	97	4
0	0	5
113	113	2
8	36	1
78	78	6
74	74	4
58	77	2
49	93	2
44	44	2
115	116	4
4	11	1
19	19	4
18	81	1
87	103	2
12	12	6
33	45	1
19	20	2
10	10	2
98	98	1
69	69	1
31	31	2
110	111	1
88	88	5
61	61	1
76	133	1
14	86	3
110	110	2
74	121	1
66	66	5
89	94	3
46	71	2
91	92	2
90	93	1
4	98	2
94	94	4
77	77	3
56	133	2
3	3	3
93	94	1
99	100	1
124	132	2
111	111	4
32	38	1
114	114	1
45	45	1
33	83	2
95	99	1
117	118	2
49	114	1
124	133	2
62	62	3
45	46	1
40	40	1
64	65	3
8	11	2
88	106	1
39	39	1
32	48	4
70	115	1
23	23	3
104	104	3
13	21	3
60	75	1
103	109	1
17	17	2
47	47	1
11	31	2
30	30	3
25	25	1
36	39	1
4	23	1
124	124	1
93	93	2
7	22	1
127	127	4
71	134	1
97	98	1
57	57	2
80	82	1
88	112	1
69	134	1
57	58	1
48	97	2
133	133	1
19	34	1
100	100	1
3	4	1
68	69	1
91	91	2
48	48	3
16	16	2
23	25	1
69	70	1
73	74	1
18	32	1
2	3	1
28	29	1
7	85	1
116	116	1
64	68	1
84	98	1
13	14	1
48	49	1
114	131	1
121	121	1
86	86	1
95	100	1
