40	40	6
16	16	8
154	162	1
25	28	4
119	119	7
13	13	7
190	191	4
38	40	1
151	180	1
171	171	11
142	142	5
9	9	12
14	14	11
70	70	3
63	63	2
136	137	6
3	5	3
132	133	6
50	50	6
46	47	2
140	140	6
127	128	2
54	54	3
164	167	4
133	136	3
53	53	12
5	5	11
126	194	3
32	32	3
176	176	6
52	53	2
13	14	7
45	45	6
104	104	8
147	172	4
151	159	7
155	155	2
56	56	12
50	54	1
134	157	2
184	188	3
144	165	4
147	147	14
0	0	1
65	66	1
109	112	4
183	183	4
145	145	1
181	181	3
114	115	5
169	172	2
189	189	9
62	62	5
135	135	6
138	138	5
47	47	9
9	10	6
125	125	9
45	46	4
28	29	3
152	153	4
128	129	2
47	49	6
195	195	2
146	146	7
37	37	5
51	51	11
194	194	19
156	156	4
151	152	1
144	144	3
190	193	1
147	149	5
121	122	2
141	141	13
148	148	8
1	1	2
150	150	6
170	171	10
57	58	7
96	96	5
194	196	4
95	95	5
11	12	4
171	185	1
161	161	7
152	152	5
173	173	4
55	55	7
35	35	4
57	57	5
173	174	3
44	45	6
24	26	3
15	15	3
48	48	15
4	5	20
113	113	4
31	31	4
56	57	6
12	45	1
16	17	4
188	189	3
72	72	2
157	158	1
183	184	8
191	192	5
42	42	3
45	53	4
27	28	4
168	168	9
33	34	1
2	2	3
69	69	8
130	132	1
38	38	5
124	125	4
167	173	6
8	9	2
137	140	5
63	67	5
124	124	7
134	145	7
193	195	2
54	57	5
30	30	4
191	191	6
44	44	5
193	193	4
27	27	2
109	110	2
7	20	2
112	119	3
61	61	3
84	84	3
183	187	2
25	26	8
178	178	8
128	128	4
33	33	2
147	148	2
172	189	4
100	101	1
114	114	5
186	186	5
9	170	3
116	118	5
143	143	8
149	150	8
159	159	5
114	135	1
179	181	4
12	32	2
57	84	2
117	117	3
24	24	3
165	165	15
170	172	4
110	110	3
22	27	1
169	190	1
157	157	4
46	46	13
115	139	1
67	117	5
182	183	5
180	180	5
23	48	2
153	157	3
123	123	11
17	17	2
46	57	1
172	173	2
36	39	1
149	167	4
155	157	1
174	174	6
59	59	2
81	82	1
80	80	2
85	86	5
8	8	4
29	30	5
112	112	3
165	166	3
30	32	3
149	149	8
84	89	1
23	23	4
40	42	1
7	8	3
96	97	3
166	166	1
139	139	1
196	196	16
78	79	1
119	122	1
11	11	7
153	153	5
29	35	1
122	123	1
157	174	2
56	58	1
133	133	9
100	100	1
101	102	3
10	10	6
48	49	8
136	136	11
154	155	3
185	186	3
145	146	2
137	137	3
159	160	4
154	154	3
150	183	1
170	170	2
17	18	3
134	134	3
77	79	1
161	163	2
185	185	3
106	108	1
132	132	10
195	196	2
62	77	3
194	195	1
19	20	3
127	127	3
58	58	5
179	179	7
172	172	5
5	8	1
6	6	6
38	41	1
133	140	4
182	185	5
26	26	4
3	4	7
24	25	1
146	167	3
148	152	3
56	69	2
134	143	2
12	12	4
144	161	1
49	49	2
115	115	5
123	124	1
151	151	2
189	194	2
111	112	2
86	86	3
59	63	1
97	97	1
50	51	4
188	188	6
34	38	4
187	188	4
14	15	1
146	147	2
131	133	1
156	157	2
9	23	1
142	150	3
55	56	2
176	177	3
22	23	1
143	148	1
184	184	2
196	197	3
68	69	3
197	197	3
124	127	3
105	105	1
116	116	2
90	90	5
49	187	1
169	169	1
133	134	3
121	123	1
112	117	1
138	139	5
57	100	1
118	118	4
25	25	4
130	131	1
101	103	2
42	43	2
178	182	1
141	142	1
78	80	2
119	123	1
182	193	3
155	156	1
152	187	1
143	161	2
31	32	1
143	145	3
20	20	2
165	167	1
130	130	2
23	24	1
122	122	1
22	22	1
113	118	3
132	134	4
168	182	1
33	38	1
17	51	2
66	66	2
66	73	1
190	190	2
112	120	1
192	192	2
2	7	1
117	126	1
158	158	2
43	43	1
5	6	2
8	19	2
45	47	2
150	159	1
192	193	3
164	164	1
120	121	1
137	143	2
8	16	2
6	25	1
28	34	1
162	164	1
22	26	3
140	141	3
134	136	2
177	178	2
184	185	2
187	187	2
3	3	1
142	149	3
107	119	1
40	41	1
147	177	1
39	39	2
80	93	2
15	186	1
88	89	1
150	161	1
104	105	1
179	180	2
24	185	1
16	25	1
160	160	1
99	101	1
36	36	1
163	163	1
79	79	1
18	18	1
171	172	1
147	164	1
107	139	1
168	172	1
182	182	1
67	67	1
109	109	1
187	194	1
82	84	1
8	10	1
138	141	1
152	155	1
152	162	1
41	42	1
152	156	1
