43	43	7
72	72	6
77	86	3
93	95	4
98	98	8
123	134	1
13	13	9
3	3	5
53	53	1
84	84	11
56	95	2
104	105	4
1	1	9
129	129	13
75	76	5
103	103	7
16	16	3
63	63	2
9	43	2
71	71	8
130	131	11
14	14	3
104	121	1
61	61	3
99	99	4
5	70	1
46	130	2
22	34	4
78	88	3
92	92	3
57	57	3
20	133	2
118	118	8
79	124	3
98	100	5
53	115	6
56	56	3
54	105	1
63	65	1
61	133	2
93	93	17
44	61	1
114	114	5
11	11	5
72	74	2
88	113	4
116	116	12
48	48	11
57	94	3
124	125	2
78	84	3
76	76	14
90	134	5
17	135	2
49	51	7
60	98	2
36	36	10
113	114	4
68	78	1
92	104	1
66	67	3
31	31	5
134	134	3
132	132	8
120	120	7
32	33	2
113	115	7
30	30	8
125	125	13
77	77	4
47	47	3
93	94	1
119	120	4
69	70	3
83	83	3
106	106	9
73	73	8
121	122	1
83	86	6
82	82	5
68	68	7
22	23	3
73	74	6
44	44	5
35	35	4
55	58	1
25	25	7
64	64	8
94	94	10
60	60	2
89	90	4
86	87	6
101	101	6
90	119	3
68	91	4
6	7	1
79	79	4
107	120	2
77	133	1
126	126	6
131	131	4
113	113	9
64	91	3
68	77	1
84	85	4
30	31	4
91	102	1
54	56	3
91	91	6
77	99	5
59	95	1
129	131	3
11	36	3
132	134	4
90	90	7
34	83	4
17	17	1
66	66	2
115	115	4
72	73	4
62	94	2
86	86	3
55	66	2
44	109	1
2	2	4
14	15	1
52	52	6
63	66	1
110	121	1
28	28	2
26	27	3
15	15	9
38	38	1
12	13	3
84	114	2
60	61	4
20	21	5
117	117	3
97	109	3
9	10	2
19	19	4
0	1	2
108	108	14
85	86	2
4	4	4
68	69	3
52	53	3
109	109	6
110	111	4
8	64	1
48	128	6
64	66	2
85	119	2
84	125	2
71	72	1
76	99	1
132	133	3
26	26	3
78	133	1
102	103	3
30	119	3
110	110	10
108	115	2
49	52	4
109	115	2
82	111	2
44	119	1
34	35	2
36	84	1
71	134	1
58	66	4
8	8	4
45	45	5
107	107	2
66	77	1
56	57	5
89	118	2
67	69	1
127	127	7
16	30	1
67	92	5
119	119	11
70	70	2
70	95	1
98	101	1
14	35	1
56	67	2
75	75	4
32	32	2
33	33	9
97	99	2
34	84	3
65	65	1
117	130	5
16	17	3
79	88	3
63	71	2
31	32	2
105	105	1
96	96	3
33	34	7
95	95	2
7	7	4
21	21	5
3	4	3
19	23	3
5	64	1
81	81	2
80	122	1
64	92	1
62	62	4
54	115	3
45	132	2
123	123	6
61	62	2
60	134	2
29	29	3
88	93	2
97	98	2
24	24	5
56	66	2
104	104	2
34	34	5
85	115	1
108	111	1
54	78	2
101	102	1
92	93	2
15	21	2
44	45	2
67	110	4
6	6	1
50	50	3
121	121	3
122	124	2
100	100	4
30	32	1
62	63	3
74	74	3
123	124	2
110	113	1
18	18	1
10	10	2
12	135	1
133	133	1
3	5	2
112	112	4
122	123	2
126	127	1
122	126	1
77	100	1
121	126	2
59	65	2
86	114	2
0	18	1
97	123	1
88	88	3
85	85	4
64	87	3
92	123	2
23	24	2
27	29	3
46	57	2
86	89	1
54	54	4
78	78	2
92	96	1
56	106	1
97	111	2
78	80	3
50	78	1
127	128	2
65	107	2
98	107	1
69	69	1
110	117	1
62	101	1
33	83	1
45	130	1
51	131	1
116	117	4
131	132	1
21	22	1
54	55	1
64	85	1
0	124	2
18	27	2
55	56	2
0	2	1
67	67	6
103	104	1
95	122	2
109	110	1
56	68	1
97	110	1
17	28	3
81	109	2
87	88	2
37	38	1
111	111	2
102	123	1
117	118	1
111	112	2
25	26	1
61	75	1
50	80	4
124	124	5
12	12	2
126	128	1
125	127	1
59	60	3
35	38	1
102	102	1
82	109	2
5	5	3
53	54	1
9	27	1
43	85	2
121	123	1
128	129	1
54	118	3
80	134	1
112	113	1
80	80	2
87	87	2
78	120	1
44	54	2
117	119	1
109	113	1
70	72	2
97	133	1
45	46	1
97	135	1
56	84	2
111	113	1
89	91	1
81	135	1
66	107	1
82	96	2
74	75	1
7	9	1
15	17	1
91	92	2
131	133	1
54	59	2
38	45	1
57	58	1
80	113	1
50	70	1
69	128	1
58	58	1
50	79	1
81	120	1
95	96	1
120	121	2
24	25	1
69	74	1
26	37	1
108	120	1
61	87	1
97	97	1
27	28	1
99	101	1
49	77	1
54	57	1
64	78	1
123	129	1
113	134	1
10	81	1
