63	64	3
108	108	4
79	80	2
77	77	15
119	119	4
152	152	10
20	25	2
14	15	6
19	19	3
124	126	2
117	117	6
18	158	1
53	53	11
103	106	3
100	100	19
93	94	9
127	127	11
116	117	4
35	35	5
113	113	9
19	27	1
17	18	4
27	117	2
23	23	13
95	95	6
46	46	11
129	129	10
9	9	8
8	11	4
151	151	8
4	4	4
126	126	10
124	124	4
31	56	6
155	155	5
66	99	2
25	29	3
153	153	14
1	2	3
51	51	8
145	147	2
83	84	3
142	155	4
53	55	1
146	147	4
30	45	2
48	68	5
8	8	2
21	21	12
5	7	1
147	158	1
29	49	3
81	82	6
70	70	14
32	32	13
46	47	4
110	111	10
64	64	12
56	61	3
109	109	8
29	116	2
143	143	5
155	156	4
150	155	2
157	158	2
49	50	4
67	68	1
117	119	2
40	48	1
96	96	14
25	25	16
81	81	7
138	139	1
43	43	13
100	140	2
75	76	3
78	78	17
31	31	14
142	143	3
90	91	6
14	134	1
117	121	1
145	155	5
66	68	1
10	10	1
118	118	4
26	26	7
30	30	6
76	143	3
33	35	3
49	49	10
65	66	3
122	122	6
151	156	5
48	50	1
83	126	2
24	24	6
144	147	3
105	105	13
91	91	1
90	90	7
138	138	5
145	145	6
71	125	1
101	101	11
7	55	1
34	43	2
97	97	6
120	120	7
18	18	7
2	3	1
84	84	12
38	39	5
92	92	13
30	32	7
139	139	9
82	82	6
115	115	7
150	150	6
135	135	10
81	89	2
36	36	12
85	86	12
141	141	9
79	79	3
29	29	6
114	114	11
62	63	2
69	69	3
28	48	3
121	121	6
156	156	5
1	5	4
148	148	9
102	139	2
107	107	6
104	108	2
56	63	1
84	103	1
39	39	7
153	156	2
70	71	4
20	21	4
44	67	1
41	49	3
18	19	3
74	74	1
116	116	3
15	52	2
16	16	9
129	133	1
38	99	1
16	54	5
38	38	6
16	43	1
36	37	5
83	83	9
89	89	13
6	6	10
109	110	1
108	110	4
123	123	5
20	20	5
75	82	2
39	40	3
140	140	5
15	90	3
34	34	2
94	95	2
85	85	5
37	37	12
2	2	1
102	127	1
89	159	2
50	50	13
141	147	2
98	98	2
15	15	5
86	106	2
146	146	7
16	41	2
63	63	1
81	116	2
104	104	4
135	136	5
38	51	1
87	87	6
71	71	5
15	18	6
75	75	4
132	132	10
53	113	2
80	80	3
147	147	3
40	53	4
16	17	4
93	93	5
45	47	1
27	119	2
94	94	6
112	112	6
48	48	4
42	42	14
77	80	4
103	103	7
92	95	2
23	27	1
84	104	1
82	86	1
55	55	3
51	52	4
157	157	5
77	79	2
12	16	1
9	57	3
7	120	1
90	97	1
69	103	3
65	65	5
45	51	3
76	76	4
87	98	4
45	45	8
47	49	1
144	144	8
80	92	2
16	134	2
67	140	2
124	125	1
21	30	5
7	7	15
7	9	1
41	41	9
121	122	1
133	133	1
104	138	7
115	122	4
66	109	1
53	77	6
54	54	2
14	14	2
145	149	1
90	149	1
115	118	1
86	86	4
73	87	5
47	48	2
125	125	4
142	142	3
13	52	3
99	99	7
133	147	1
111	111	4
102	102	3
10	13	4
0	0	6
3	3	5
47	47	7
145	158	1
109	118	2
73	73	7
132	133	3
68	70	7
20	45	2
20	64	1
22	22	5
147	148	2
39	41	2
35	36	3
108	113	3
110	113	1
45	50	3
67	129	2
144	145	6
71	105	3
67	108	1
77	78	1
149	149	2
152	157	2
5	5	3
68	68	6
40	40	2
128	128	4
44	44	4
65	98	1
106	106	3
64	137	2
53	54	1
100	101	2
52	52	6
10	142	4
151	153	3
1	1	9
106	107	5
10	11	3
5	21	4
8	35	2
88	88	2
133	146	4
29	123	1
42	48	2
40	41	5
118	121	1
79	98	1
92	98	1
9	63	4
152	153	2
131	131	7
118	122	3
111	114	2
55	120	1
39	90	1
43	50	1
32	81	5
17	17	1
134	134	3
62	62	4
36	38	1
118	119	2
145	146	2
114	115	2
118	120	1
123	131	4
11	11	3
137	147	1
83	96	1
29	111	3
24	25	2
51	70	4
151	157	1
92	94	3
46	69	1
25	26	5
130	130	3
12	55	1
149	157	4
46	122	1
117	155	1
85	88	3
111	112	3
155	157	1
46	52	2
10	31	1
9	10	1
48	120	1
86	87	1
70	107	2
79	119	3
80	93	2
48	49	3
154	156	3
39	114	2
33	34	3
53	106	2
70	96	1
131	154	1
33	33	6
110	110	3
68	79	2
31	110	1
7	8	4
104	121	2
28	49	1
27	113	1
67	67	2
3	5	1
80	81	1
80	82	4
51	53	2
154	154	6
50	51	1
132	146	1
40	54	1
62	156	2
37	38	6
17	47	1
8	21	1
106	128	1
40	68	1
48	140	2
93	95	1
119	120	1
123	124	1
82	83	1
97	99	1
73	74	2
118	157	1
13	14	1
44	45	1
32	33	2
158	158	1
113	122	1
103	104	1
92	93	1
3	4	1
123	126	1
139	142	1
91	155	3
135	137	1
93	150	3
89	97	2
46	51	1
0	2	2
69	70	1
29	35	3
18	147	1
133	150	1
51	54	1
4	5	2
82	108	1
33	45	1
46	121	1
13	13	2
77	107	1
8	9	3
104	105	2
49	52	1
8	64	1
68	107	2
57	57	2
28	28	3
98	101	1
17	19	1
27	27	1
15	16	1
137	138	4
10	34	2
72	72	1
54	134	1
77	86	1
31	57	1
86	125	1
8	12	2
27	118	1
28	55	1
11	51	1
82	85	1
140	146	1
129	137	1
151	152	1
21	46	1
84	85	1
95	104	1
16	120	1
151	155	1
8	19	1
25	153	1
13	15	1
144	149	1
90	92	1
12	12	2
49	69	2
110	112	1
69	71	1
68	71	1
6	7	1
96	154	2
28	29	1
42	52	1
26	109	2
96	103	1
136	136	1
153	154	2
47	50	1
54	55	1
97	103	1
142	154	1
38	41	1
71	104	1
85	104	1
79	87	1
19	20	1
105	148	1
105	121	2
134	136	1
9	11	2
107	119	1
135	155	2
33	73	2
48	51	1
120	121	4
43	44	1
140	147	1
155	158	1
5	6	1
85	91	1
21	32	1
81	97	1
96	97	1
