34	35	2
5	7	3
32	32	2
28	28	3
148	148	3
120	120	3
125	125	13
35	35	3
92	92	4
46	46	1
90	90	15
17	17	4
77	77	4
51	51	3
104	105	2
110	110	3
47	47	2
150	150	4
29	29	3
141	143	2
142	142	1
65	65	7
76	82	1
79	97	3
62	68	1
94	99	2
16	19	3
43	43	7
40	153	1
95	125	1
75	75	5
26	51	2
125	130	1
45	45	5
85	85	8
105	111	3
22	22	3
79	79	4
41	50	3
151	151	2
45	46	3
135	135	1
94	94	4
150	152	3
68	85	1
147	147	3
78	78	6
56	58	2
41	49	3
14	14	4
84	86	1
27	30	2
62	66	3
72	72	1
37	37	6
42	42	6
113	114	1
100	116	2
62	63	3
6	7	4
25	51	5
125	141	2
141	141	7
144	144	4
70	70	1
26	27	2
28	29	4
39	40	3
19	19	2
8	8	1
116	122	2
131	132	1
153	153	3
50	81	2
143	143	2
18	18	4
95	98	1
17	19	1
31	31	4
50	50	2
68	68	1
57	57	1
4	4	1
97	97	3
83	83	5
87	87	7
31	32	1
68	71	1
133	133	2
106	122	3
81	83	4
54	54	3
107	107	1
135	151	3
23	23	4
103	103	1
13	13	4
6	6	5
145	145	7
121	121	4
128	128	4
130	130	3
51	55	1
27	54	1
41	41	2
10	42	2
24	24	4
109	109	7
98	98	2
112	112	2
53	53	1
125	126	2
33	33	1
12	12	10
37	63	3
103	115	2
152	153	2
112	113	2
30	30	2
34	34	2
73	73	2
29	42	1
80	80	1
87	88	1
43	44	3
44	44	3
120	121	2
119	120	1
45	51	2
83	84	3
80	104	3
43	117	1
108	108	3
20	20	2
136	139	2
116	116	1
88	105	3
88	90	1
20	85	1
118	118	1
74	74	3
49	52	1
39	39	4
102	102	1
10	17	3
89	89	1
111	127	1
29	39	2
70	77	2
85	89	2
11	77	2
137	138	4
41	48	2
50	56	1
29	30	2
115	151	2
131	145	1
66	66	1
32	37	1
28	62	2
67	67	3
147	148	1
149	149	1
28	64	1
26	26	1
77	79	6
88	121	1
9	10	1
16	78	1
97	98	2
72	73	2
49	49	1
56	56	4
139	147	2
99	126	2
38	39	1
66	67	1
21	21	1
30	40	1
122	149	3
81	81	1
88	88	1
5	103	3
50	78	1
115	150	1
131	131	1
76	86	2
63	64	1
151	152	1
14	108	1
21	22	3
84	98	2
76	76	3
106	108	3
110	111	5
5	81	1
96	97	4
7	8	2
106	107	2
138	151	1
3	130	1
16	68	1
7	77	2
95	96	1
3	100	1
109	113	1
48	76	2
76	80	1
38	40	1
31	34	1
129	129	2
49	50	1
5	6	2
73	74	1
117	117	2
19	20	2
100	115	1
21	129	2
11	11	2
26	33	1
143	145	1
78	80	1
8	81	1
100	101	1
42	43	1
50	53	2
30	31	1
31	39	1
10	89	1
47	48	1
114	116	1
42	54	1
108	114	1
96	96	1
52	58	1
106	106	1
111	111	1
145	147	1
