31	32	4
72	111	2
3	3	5
2	32	3
117	135	2
89	89	4
131	131	9
69	70	2
130	130	10
125	130	6
93	139	5
25	25	2
14	14	4
40	40	4
54	54	4
59	119	6
52	53	3
107	108	5
95	104	3
99	99	2
38	39	2
99	101	6
105	105	4
118	140	6
37	55	1
67	127	2
58	58	2
18	103	4
34	34	2
103	140	1
139	139	11
5	36	4
63	63	6
77	77	2
86	87	7
4	4	7
60	60	3
56	87	2
21	23	5
19	19	9
78	79	9
56	56	3
82	117	2
131	135	1
144	144	4
72	73	2
4	31	5
74	134	2
33	33	3
128	128	4
114	114	2
109	109	7
53	53	5
93	93	3
27	27	6
126	126	8
143	143	8
97	118	3
21	31	3
133	134	5
107	127	3
56	93	4
75	75	6
136	138	2
77	113	1
136	136	4
55	62	5
133	135	5
64	65	7
134	134	5
120	120	4
79	79	1
102	103	2
138	139	2
98	117	1
36	39	3
127	127	2
80	80	2
35	39	3
101	101	3
117	137	5
96	109	1
136	137	4
129	132	2
146	146	1
50	51	2
127	130	4
1	1	3
12	13	3
85	87	1
133	133	4
129	129	2
10	19	4
74	87	3
53	54	6
67	108	2
17	30	1
98	98	4
93	133	1
49	49	3
73	74	1
145	146	1
64	123	5
48	114	1
140	140	6
85	85	4
136	139	1
75	124	3
87	87	3
102	125	1
22	25	3
30	30	5
94	99	1
29	29	2
124	125	1
81	81	2
47	47	2
137	137	4
125	125	1
123	123	6
10	40	2
28	28	1
70	70	4
100	100	3
51	52	4
41	41	2
96	96	5
84	84	2
58	93	3
76	134	1
32	32	1
92	93	2
113	115	1
0	1	2
2	35	1
102	102	3
59	142	2
118	119	2
94	94	1
18	18	1
139	140	2
65	136	3
28	29	1
48	133	1
73	109	3
0	31	1
17	29	4
17	32	1
8	9	3
132	132	3
10	11	1
104	107	1
48	48	5
104	104	2
122	136	1
118	118	4
122	122	2
66	66	3
111	112	3
81	93	1
38	62	2
64	64	2
86	114	1
142	142	2
30	42	1
101	102	3
76	78	2
42	42	2
61	105	5
134	135	3
33	35	2
96	117	4
26	26	4
54	119	1
71	146	2
13	13	2
22	22	2
4	28	1
79	80	3
110	110	4
99	100	1
78	78	1
1	90	1
81	89	2
21	37	1
112	121	1
56	74	1
61	61	1
30	31	1
22	39	1
11	11	1
67	67	2
37	99	1
106	106	3
18	37	4
9	40	2
111	113	1
79	97	2
115	117	1
55	55	2
62	62	2
111	111	1
33	34	1
23	30	1
83	84	2
111	120	1
75	81	1
85	112	2
70	109	1
52	54	1
103	103	2
8	8	1
108	108	1
134	139	1
69	69	2
126	127	3
4	9	1
138	138	1
35	36	2
72	107	1
58	119	1
36	37	2
17	17	2
43	43	1
38	38	3
83	85	1
21	24	1
37	54	1
33	47	1
127	131	2
77	78	1
17	24	1
12	32	1
65	135	1
116	116	2
14	16	1
57	141	1
54	56	1
91	91	1
57	57	1
87	88	1
83	104	1
0	0	1
121	121	1
66	128	1
30	32	2
4	20	1
105	139	1
75	76	1
131	132	1
75	77	1
59	118	2
141	141	1
90	94	1
64	121	1
121	122	1
77	114	1
129	135	1
124	124	1
137	140	1
93	96	1
120	121	1
84	98	1
20	23	1
