43	43	5
87	88	10
118	118	15
19	29	1
69	70	12
85	85	13
22	22	9
13	13	13
69	69	19
49	56	6
76	76	25
104	104	11
128	128	11
36	36	16
64	93	1
133	133	9
82	83	12
45	64	2
65	65	21
15	23	4
95	101	7
35	35	23
35	43	1
100	101	3
18	18	6
99	103	2
123	123	13
29	62	3
90	90	13
32	33	4
109	109	2
27	29	6
17	18	3
93	94	8
21	84	1
42	42	4
96	98	4
31	32	17
79	81	6
98	105	3
47	47	34
98	100	2
33	34	1
96	97	10
77	78	3
97	97	22
119	119	9
11	11	26
12	13	1
106	106	7
12	12	19
6	6	5
3	3	7
38	38	12
33	33	28
66	73	3
122	123	10
34	34	25
7	7	13
59	59	11
77	77	9
40	41	2
79	79	18
83	85	1
89	90	7
92	93	8
41	41	7
100	100	32
33	35	1
23	23	5
120	120	6
70	70	4
75	76	13
98	98	24
72	72	13
64	64	13
99	100	7
26	26	26
4	4	13
82	102	1
30	30	14
126	127	9
45	45	24
72	73	2
32	32	12
57	58	5
25	79	3
131	131	7
28	98	5
127	127	3
66	66	18
75	75	11
48	50	2
14	14	9
91	99	4
25	78	2
134	134	3
65	66	4
28	80	2
37	43	2
58	58	4
121	123	4
34	35	3
93	93	20
101	102	4
125	125	3
9	30	1
29	85	1
21	27	3
83	101	7
99	99	12
87	95	4
96	96	15
63	68	2
50	51	6
76	77	6
113	113	13
27	97	1
9	9	15
40	40	12
11	92	6
21	59	5
46	46	22
88	88	10
84	93	4
107	107	2
128	129	3
61	61	10
50	56	2
42	45	1
91	91	9
19	37	2
74	75	3
130	130	4
3	4	5
41	50	10
19	19	4
29	29	11
95	95	13
58	59	5
16	17	6
10	11	8
66	90	3
116	116	10
27	93	4
57	57	7
10	27	4
28	65	1
90	91	6
44	75	1
107	120	2
83	97	1
41	48	4
61	75	2
116	123	2
2	2	5
85	87	2
73	73	11
125	128	4
79	90	2
56	88	2
5	5	10
78	78	10
124	125	2
44	44	6
38	39	3
25	25	9
28	29	5
38	40	2
117	118	11
89	96	5
55	81	3
2	90	1
122	122	5
57	59	6
14	15	4
112	112	4
68	70	2
115	115	4
37	37	5
85	95	2
108	108	8
1	2	4
67	67	4
66	96	1
92	92	18
119	121	1
59	62	1
4	97	1
25	26	8
129	134	1
23	26	3
26	78	2
94	94	9
12	46	2
39	39	9
42	43	2
101	124	1
7	96	3
16	16	2
48	49	2
17	17	13
44	83	2
21	21	11
106	116	4
48	48	8
62	63	3
123	124	1
110	111	3
35	75	2
129	129	7
28	90	3
119	120	3
8	8	9
106	114	5
66	72	3
123	125	5
7	45	5
113	131	1
110	110	6
56	56	6
60	62	1
10	12	1
28	28	8
37	40	4
60	60	31
24	79	1
4	6	2
46	47	10
80	80	2
81	81	9
14	47	3
18	20	1
103	103	9
121	121	10
31	31	13
120	121	1
15	18	2
99	101	7
132	132	5
19	32	1
4	12	3
74	74	16
111	112	2
8	37	4
83	83	14
33	47	1
11	13	7
62	62	9
63	63	12
80	81	8
12	95	1
86	86	7
85	86	3
78	80	2
106	134	1
34	75	1
20	60	3
27	27	10
42	83	4
82	85	1
34	83	3
55	56	5
5	6	11
5	26	3
90	95	1
47	48	2
84	85	2
35	36	3
86	96	4
25	49	3
9	93	2
15	15	10
86	101	3
117	122	5
71	72	3
124	124	5
21	22	7
94	101	4
117	117	2
8	9	14
26	27	4
89	91	2
38	42	3
102	102	12
87	87	6
9	10	6
101	101	8
114	114	8
84	84	14
94	95	5
4	93	4
58	82	1
6	93	1
20	20	9
78	83	2
102	103	2
78	79	9
112	118	1
24	25	3
127	133	5
9	27	1
18	19	3
26	80	1
16	62	4
118	119	2
21	85	1
126	126	2
62	74	4
67	68	2
105	105	6
40	42	2
63	70	1
105	117	1
4	5	1
12	18	2
115	117	1
55	55	4
25	83	3
3	102	4
71	92	2
82	82	3
54	78	1
97	98	5
19	20	4
62	67	5
2	78	1
73	74	4
94	100	1
68	68	5
19	25	2
84	89	1
44	58	7
94	97	1
10	33	4
77	79	1
15	74	6
20	21	4
7	8	1
2	91	2
131	132	1
12	32	1
3	74	1
128	131	1
88	89	1
55	59	4
6	7	1
109	110	4
29	30	4
117	121	5
63	75	2
27	90	1
15	16	5
129	131	3
0	0	4
45	46	1
117	119	1
129	130	1
91	92	4
37	38	4
6	94	2
26	79	2
88	90	2
27	28	1
20	29	1
10	94	1
86	88	2
20	38	2
90	100	2
8	13	1
133	134	3
1	16	3
8	30	4
20	58	1
66	97	1
24	82	1
50	50	4
82	84	1
104	105	2
27	80	2
4	21	1
72	82	2
98	99	2
62	75	1
38	72	1
89	97	1
95	100	2
66	67	3
3	6	3
44	60	1
34	78	2
73	75	1
71	71	5
56	82	1
116	121	5
79	80	2
127	130	1
39	42	2
24	24	4
125	126	2
6	45	3
15	21	3
70	75	1
48	60	1
10	17	1
93	96	1
111	111	2
26	49	3
3	15	1
6	14	1
121	122	3
25	82	1
10	10	2
38	84	1
126	131	1
19	21	2
20	30	1
63	64	1
46	62	2
24	26	1
33	74	1
76	80	2
127	131	1
13	14	1
27	78	1
124	126	1
11	93	1
13	20	1
130	131	3
51	55	1
107	108	1
48	93	1
112	113	1
10	21	1
47	91	1
31	48	1
80	83	1
90	94	1
68	69	1
90	92	1
84	91	1
66	83	1
30	91	1
84	96	1
44	45	1
62	69	1
93	101	1
19	33	1
11	19	1
4	19	1
92	94	1
