9	9	17
35	35	17
75	75	26
70	70	21
43	43	11
127	129	1
103	105	2
12	12	36
107	107	12
13	15	2
107	110	3
7	7	17
37	38	10
6	83	1
63	63	17
100	100	10
114	116	5
35	36	17
76	76	38
84	105	4
77	77	16
113	113	19
20	21	15
93	93	21
33	34	16
27	27	20
98	98	8
126	126	24
23	39	3
58	58	11
72	72	22
111	111	20
110	110	12
25	75	5
115	115	7
31	33	2
29	29	19
15	15	16
60	133	4
18	71	3
29	59	6
85	85	21
119	132	2
57	57	15
49	49	8
12	31	1
55	80	4
91	92	8
120	120	15
26	26	27
113	124	6
28	77	2
88	98	4
71	71	20
79	80	15
21	21	17
57	58	3
51	51	2
34	34	27
36	44	6
11	11	36
128	128	10
6	8	4
75	76	7
42	42	11
46	46	21
90	90	14
36	36	24
112	113	4
30	30	2
70	74	3
65	68	2
61	62	13
31	31	9
14	38	3
115	123	3
109	110	9
6	6	19
66	66	33
44	44	11
27	28	8
37	37	18
4	17	6
22	23	5
29	49	1
76	123	4
87	87	19
130	130	20
89	101	4
83	84	13
119	119	16
84	117	9
10	11	16
74	74	17
29	31	2
36	40	4
39	39	11
118	118	11
94	94	22
121	122	9
57	63	4
127	127	13
105	106	2
18	28	2
7	27	1
4	4	14
33	35	4
83	83	30
119	120	9
65	65	28
43	73	2
117	117	14
14	14	10
91	91	23
6	51	1
78	79	3
84	84	31
134	134	16
54	54	1
19	19	26
61	61	40
68	69	4
131	132	1
90	96	6
57	71	7
82	83	11
32	32	12
7	97	3
73	73	23
114	114	8
22	22	13
18	18	20
108	108	11
68	68	35
8	36	2
125	125	12
33	33	45
7	83	1
94	97	3
4	18	1
46	47	3
17	18	1
1	1	6
0	1	1
86	87	7
78	85	3
81	115	1
39	40	7
3	3	18
19	20	9
86	86	23
93	109	3
37	42	5
20	37	4
69	69	10
20	59	3
82	82	29
82	84	3
25	25	11
126	130	3
58	60	3
92	92	8
23	23	5
96	96	6
104	134	2
101	101	7
45	49	2
9	74	1
123	123	18
129	129	18
64	64	49
50	56	2
2	3	4
64	65	10
10	10	28
85	86	13
96	111	3
12	28	1
45	45	22
25	93	7
107	108	5
108	109	3
32	33	8
93	98	4
99	99	6
121	121	12
48	48	24
41	42	6
0	0	8
94	99	1
4	5	5
120	121	5
19	41	6
51	55	3
19	30	3
25	58	1
59	59	14
102	102	8
95	96	5
105	105	5
8	8	20
109	109	12
104	104	12
89	91	2
28	28	4
26	92	5
47	47	22
99	107	3
7	98	1
124	125	1
97	98	9
15	40	3
116	116	17
67	67	15
103	123	1
12	13	7
38	38	6
0	64	4
36	93	1
46	72	3
113	114	4
112	112	9
5	6	8
85	127	4
7	13	3
12	46	3
78	78	15
5	5	11
11	25	9
59	67	2
59	78	1
7	63	2
78	81	3
15	128	3
17	31	1
29	84	2
56	56	11
86	93	3
49	50	4
103	134	3
90	97	2
55	56	6
2	75	7
79	79	12
62	74	4
71	72	3
132	132	2
83	88	3
39	93	1
27	47	3
15	16	8
95	108	6
67	68	7
117	118	3
99	100	11
18	57	1
104	107	5
88	88	3
100	101	2
21	78	1
3	102	2
19	43	1
94	95	3
69	71	3
126	128	7
45	74	1
14	46	1
60	61	3
17	17	17
48	65	2
62	62	24
21	83	2
89	93	5
8	102	2
118	129	4
8	12	3
31	93	1
58	59	6
50	82	3
13	13	20
6	45	2
5	86	4
67	77	2
46	71	1
131	131	6
15	31	2
86	122	3
97	97	13
103	103	8
5	88	1
25	47	3
14	75	1
125	130	1
14	76	4
8	10	2
39	43	1
36	46	3
15	44	3
26	93	2
20	50	2
112	116	3
125	126	2
125	131	3
27	58	2
90	115	4
11	80	3
39	41	2
104	131	4
85	101	6
46	68	1
5	14	5
18	19	6
95	106	2
7	17	1
101	102	4
20	39	1
26	27	8
88	89	2
40	42	5
45	72	1
25	82	3
45	64	3
73	76	2
11	85	1
101	129	4
70	112	3
122	122	10
79	131	2
11	93	14
8	65	1
7	21	2
27	29	5
87	88	7
16	16	19
6	93	2
88	93	1
89	90	4
36	45	1
95	95	20
42	43	2
31	59	2
39	49	4
27	92	3
60	123	1
99	101	7
44	91	1
47	48	6
107	109	6
93	94	4
36	38	2
11	12	5
58	126	1
106	106	8
70	76	1
29	61	5
62	127	2
2	32	6
82	115	1
37	60	3
25	63	1
23	24	1
47	59	3
13	35	1
12	36	4
41	41	6
102	103	4
76	77	9
81	82	2
8	40	4
13	32	1
2	21	1
60	60	11
16	17	5
2	2	7
22	59	1
77	78	7
4	26	1
74	75	4
120	134	1
59	63	1
116	131	2
13	16	5
92	98	2
60	84	2
89	129	4
9	102	1
25	26	10
90	91	2
38	80	2
8	16	3
63	74	4
95	97	1
95	98	1
12	14	1
4	101	4
79	86	4
94	96	1
0	63	2
40	40	8
133	133	4
132	133	1
48	49	4
21	25	6
56	95	2
123	124	4
28	91	1
81	81	10
59	82	4
27	91	7
70	71	3
28	29	6
12	85	4
14	33	1
48	77	2
45	46	3
80	80	10
8	9	4
21	58	1
26	28	1
59	119	2
38	91	2
69	70	3
28	61	3
64	72	2
4	6	3
36	37	4
73	74	5
83	111	1
81	90	2
11	56	3
55	55	3
44	45	6
127	128	6
34	59	2
9	101	1
20	75	3
20	24	2
61	73	1
37	45	1
92	93	3
30	84	3
66	67	2
8	13	5
66	94	1
75	128	2
65	66	2
82	93	4
3	18	1
5	49	3
28	97	4
68	71	3
130	131	3
125	127	6
91	98	2
5	99	2
112	117	1
124	124	3
44	59	3
42	57	1
92	115	1
20	93	1
2	7	2
84	101	1
34	75	1
38	39	4
97	100	2
40	41	6
45	61	1
122	123	8
92	128	3
27	60	1
117	125	1
20	68	2
16	73	3
7	8	1
5	7	2
12	78	1
102	124	2
36	60	1
21	56	2
58	63	1
61	117	2
113	119	1
43	44	5
19	36	4
102	123	2
83	93	2
18	80	1
86	102	2
57	126	1
46	77	1
10	14	2
37	82	1
56	78	1
47	70	4
45	89	1
27	83	1
4	98	1
116	124	2
34	74	1
18	59	3
4	58	1
20	46	1
32	85	2
27	93	1
41	43	4
0	71	2
88	101	2
6	18	5
78	80	4
14	15	1
35	130	2
32	93	1
63	125	1
120	123	1
86	101	3
68	70	1
26	47	3
126	127	3
63	64	4
29	30	3
114	117	1
129	132	1
13	34	1
101	108	1
6	7	1
10	63	2
19	24	1
22	54	2
4	23	1
103	104	2
44	47	1
126	131	3
4	56	1
5	27	1
3	6	3
2	33	2
83	102	2
6	26	1
43	68	1
32	61	3
111	112	2
30	31	1
60	62	1
61	75	3
104	105	3
22	55	2
9	12	1
57	127	2
37	41	2
11	82	1
39	90	1
89	123	3
27	77	1
118	119	1
8	74	1
110	111	1
114	115	1
48	81	2
11	17	1
9	65	1
5	85	1
9	10	2
11	14	1
26	78	1
37	58	1
5	19	2
84	89	1
35	74	1
17	39	1
59	60	1
38	43	2
37	43	1
66	68	1
5	36	1
5	17	1
84	85	3
105	120	2
47	65	1
12	112	1
50	50	1
80	91	1
75	129	1
66	83	1
95	101	1
104	106	1
79	83	1
11	27	1
85	105	1
26	49	2
46	93	1
24	93	2
46	61	5
18	27	1
112	126	2
34	47	1
37	83	1
90	126	1
21	82	1
33	48	1
38	50	1
64	66	1
111	123	1
27	90	1
118	122	1
63	65	1
6	24	1
60	83	1
60	101	2
61	77	1
61	72	1
79	84	1
129	130	2
62	64	1
46	48	1
119	130	2
35	83	1
55	116	1
80	85	2
101	123	1
19	22	1
63	131	1
44	61	1
5	13	1
116	129	1
30	32	1
79	114	1
43	59	1
47	61	1
90	110	1
118	123	1
19	81	1
100	114	1
20	20	1
13	46	1
115	116	1
29	60	1
