76	77	4
59	60	4
66	66	14
60	60	15
39	39	7
81	89	4
81	81	21
63	63	9
26	27	6
58	96	4
101	101	12
94	94	13
52	56	5
76	76	10
70	70	10
83	83	6
84	93	9
86	101	1
24	24	5
56	59	1
22	22	3
57	57	16
54	56	3
69	70	3
34	35	4
61	61	9
31	31	3
64	101	2
67	78	1
47	47	7
35	36	11
52	52	13
61	62	3
54	99	2
64	65	3
59	59	11
90	90	11
34	34	9
54	61	4
33	38	1
65	65	5
44	44	5
98	98	7
88	88	14
56	56	7
81	84	1
42	42	10
102	102	3
80	80	12
84	84	9
84	94	1
90	91	4
65	78	2
49	50	5
41	42	5
53	53	17
95	95	14
67	67	6
100	100	8
51	77	7
23	26	2
48	48	10
61	86	1
69	69	8
101	102	2
60	62	6
64	64	4
68	68	9
76	89	3
43	43	18
89	93	4
86	89	3
25	27	8
71	72	3
50	50	10
26	26	1
89	89	1
49	49	5
71	71	8
60	61	2
59	63	1
75	75	14
77	77	8
99	99	9
25	25	1
85	85	5
97	97	11
74	74	8
29	46	4
96	96	2
38	38	3
38	39	2
44	52	5
87	87	8
73	74	5
58	58	9
43	44	3
93	93	9
55	57	6
45	45	5
51	51	10
52	69	2
70	71	1
95	97	6
54	54	9
39	91	2
79	80	6
29	79	1
23	33	2
35	35	6
80	81	7
45	46	5
24	33	2
62	62	9
53	57	1
72	74	2
32	32	3
71	74	3
23	27	2
58	72	3
79	97	2
22	29	3
48	58	1
40	40	1
88	89	1
84	102	3
72	72	8
62	64	2
50	66	1
32	55	3
23	25	4
86	94	2
91	91	7
64	99	5
37	37	1
22	28	3
86	97	4
22	85	3
79	86	3
58	68	2
92	92	2
82	99	3
65	75	1
46	47	1
86	87	4
95	99	2
79	79	15
24	27	3
53	54	3
89	90	3
63	66	3
72	73	2
37	38	1
61	95	1
53	97	1
96	97	3
86	86	7
40	91	1
87	88	1
60	95	3
81	82	3
46	53	1
79	82	1
58	60	3
86	88	2
87	98	2
41	41	4
68	99	1
46	46	6
36	36	3
80	102	1
27	81	2
58	75	3
58	94	1
75	76	2
85	86	1
27	27	1
64	89	2
72	90	1
42	43	5
55	56	2
47	58	2
79	84	2
33	33	7
83	84	1
37	39	1
29	38	3
65	67	2
82	82	5
28	33	2
47	92	3
73	73	2
61	88	3
44	80	1
48	99	1
55	55	2
99	100	1
97	98	1
59	68	2
31	39	1
23	23	1
30	30	1
93	94	1
45	53	1
92	100	2
58	92	2
68	69	1
25	34	1
51	52	2
28	28	2
48	49	2
46	93	3
25	86	1
33	34	1
20	20	1
23	97	1
40	43	1
33	35	1
74	77	2
53	98	1
50	65	1
98	99	1
36	37	1
49	51	1
77	78	1
63	64	2
71	76	1
66	70	1
81	86	1
47	69	1
42	101	1
37	101	1
95	98	1
42	75	1
84	87	1
60	77	1
47	59	1
74	75	1
41	49	1
48	100	1
52	99	1
36	38	1
