112	112	7
146	153	1
139	140	6
108	108	8
110	112	2
19	20	5
67	68	5
27	28	2
56	56	4
2	13	4
148	149	2
80	84	2
131	131	4
83	86	2
75	75	4
90	90	3
14	15	2
50	50	5
142	147	5
36	43	3
97	97	12
7	8	3
33	33	7
30	30	2
64	65	4
106	106	10
142	143	8
81	81	4
95	97	1
103	103	14
108	110	2
24	24	5
4	4	5
20	20	8
23	23	7
25	25	2
45	45	16
91	91	13
73	73	5
122	123	3
86	131	3
41	42	3
8	10	1
46	46	9
3	10	2
3	5	6
31	31	3
107	110	3
3	14	3
111	124	3
15	15	5
71	148	2
123	136	2
94	95	4
7	7	11
22	50	3
146	146	3
113	114	2
63	63	1
149	155	3
90	91	4
113	113	2
49	49	8
94	94	9
47	47	7
104	107	2
69	112	3
12	13	2
127	127	9
116	135	5
132	150	3
100	100	6
80	87	4
45	117	1
125	125	11
95	143	1
132	132	1
95	96	3
133	133	8
19	29	1
144	149	1
106	114	2
80	80	4
35	35	8
155	155	6
68	70	3
47	79	5
88	89	1
119	119	5
12	12	2
72	72	3
32	38	4
67	145	1
51	51	5
114	114	4
123	123	3
2	8	3
34	35	4
51	52	5
110	118	3
92	92	4
77	77	3
52	52	5
152	153	4
99	99	4
78	121	1
118	119	2
48	73	1
102	102	3
118	138	7
84	86	4
128	128	1
134	137	1
95	95	2
11	15	2
2	2	5
39	39	5
70	71	2
50	51	3
11	11	2
64	72	1
84	84	1
138	138	4
64	71	2
124	127	1
118	133	3
43	43	4
9	13	1
55	86	3
80	92	3
64	64	6
103	112	1
105	105	3
83	89	4
68	69	4
31	32	1
148	155	1
50	142	1
86	86	6
3	3	7
79	79	3
106	126	3
157	157	4
142	142	1
117	117	5
145	145	3
40	40	2
141	141	5
99	150	2
148	148	5
6	6	6
38	38	6
93	93	1
48	49	3
70	70	3
129	129	3
144	144	7
119	124	2
33	34	6
108	109	1
8	8	9
50	150	1
18	121	3
4	52	4
54	54	1
78	109	2
44	44	4
79	80	4
47	48	2
135	135	7
96	98	1
67	67	3
137	137	1
73	74	1
29	30	5
109	112	2
22	22	2
109	109	3
150	150	2
42	43	1
134	139	3
88	88	2
3	16	1
55	81	1
48	48	8
155	157	1
100	127	3
103	104	1
94	104	1
1	1	3
72	93	3
5	5	2
45	54	1
118	118	3
69	150	1
26	26	7
37	38	2
22	24	1
98	98	3
137	138	3
65	65	2
155	156	3
89	89	1
34	34	4
82	82	7
93	94	1
9	9	2
41	41	5
125	126	2
45	46	1
94	134	3
117	120	4
18	18	2
97	134	2
153	154	2
130	130	4
140	140	2
139	139	3
28	32	1
92	107	1
108	113	1
154	154	1
5	44	2
103	126	3
11	48	2
105	106	2
2	4	4
136	137	4
17	17	5
115	115	4
69	70	1
29	29	6
97	98	1
71	71	2
10	10	5
0	0	4
1	2	2
149	149	1
82	83	2
28	45	1
158	158	2
70	75	2
27	27	3
133	137	1
1	3	2
119	137	1
149	150	1
37	156	1
21	35	1
3	51	2
83	84	2
57	57	2
78	143	1
126	126	3
77	86	3
122	122	2
79	82	3
104	106	1
144	146	1
41	43	2
88	111	1
90	98	1
14	16	1
36	36	1
120	120	4
4	31	2
69	69	2
92	93	1
83	88	1
123	125	2
96	96	3
111	111	2
42	42	1
141	145	2
113	120	1
139	141	1
116	117	2
107	107	3
86	133	2
54	87	1
121	121	3
26	49	1
7	16	2
111	156	1
114	115	3
24	39	1
47	156	2
107	128	1
153	153	6
121	142	1
97	137	1
116	116	1
127	129	1
66	66	1
101	101	2
135	136	1
112	113	1
134	134	1
73	148	1
28	28	1
4	5	1
17	18	1
6	30	1
37	37	1
126	127	1
152	154	1
77	78	1
77	156	1
66	70	1
56	62	1
67	69	1
68	68	1
152	152	1
35	38	1
156	156	1
104	117	1
116	128	1
81	82	2
85	109	1
80	81	1
21	22	1
3	4	1
109	113	1
13	13	1
53	53	1
64	104	1
93	106	1
