83	93	1
48	49	5
46	80	1
71	71	6
89	91	7
86	86	11
41	41	8
40	40	9
79	81	3
69	69	7
44	44	5
98	98	9
79	83	1
94	96	2
57	60	2
88	97	1
24	25	5
81	82	2
34	77	2
37	37	7
43	44	3
90	91	3
64	65	3
50	50	9
65	65	8
92	92	11
60	60	14
76	76	9
95	98	2
57	57	8
66	66	7
46	46	7
74	74	4
89	92	2
29	53	1
88	88	8
69	74	6
57	69	2
52	52	4
72	72	3
35	70	4
100	100	7
63	63	7
49	50	8
53	81	3
44	82	6
95	96	3
67	67	18
55	55	9
99	99	8
58	59	6
26	26	5
86	90	1
82	82	2
67	79	2
81	86	3
34	34	5
33	33	10
81	81	3
84	84	10
23	53	8
33	38	2
76	89	1
77	77	7
74	75	5
24	24	9
62	74	1
60	74	2
96	96	6
76	77	6
79	79	7
22	71	2
45	45	4
29	29	4
31	34	1
45	46	3
91	91	5
58	58	7
62	70	1
89	89	6
88	93	1
63	64	4
79	96	1
43	43	1
71	72	2
38	86	2
61	77	3
51	51	13
75	75	12
23	39	3
27	28	1
48	48	6
100	101	4
46	48	3
85	85	4
31	32	6
68	68	6
70	70	9
42	42	6
60	83	5
42	72	3
51	91	1
87	87	5
63	102	4
80	81	2
85	89	3
86	87	2
58	68	2
41	59	1
95	95	9
78	95	2
54	83	1
94	98	1
62	62	9
30	30	3
33	34	2
59	60	2
80	80	3
37	57	2
78	99	1
46	52	1
46	53	4
78	78	4
73	74	3
52	57	4
83	88	2
61	68	6
35	84	2
64	64	3
94	95	1
92	97	1
66	68	1
36	37	1
83	83	4
38	38	2
29	44	1
33	39	1
93	93	6
25	26	2
41	44	2
75	101	1
29	37	1
53	54	1
40	101	3
39	45	2
97	97	2
90	90	10
83	91	1
80	83	1
89	90	2
23	28	1
49	49	6
23	24	2
20	27	2
55	92	3
66	90	1
43	64	1
93	94	1
87	88	2
76	85	2
28	28	2
23	52	3
23	33	1
25	27	1
101	101	2
22	72	2
79	84	1
68	69	1
91	93	4
52	56	2
69	70	1
35	35	3
31	31	1
41	42	1
38	53	1
61	61	5
40	69	2
84	87	1
72	73	3
87	97	1
20	22	1
55	56	1
36	36	1
81	96	1
27	44	2
63	74	1
35	40	1
67	68	1
101	102	1
56	56	1
59	59	2
59	68	1
92	93	1
50	51	2
51	92	1
52	86	2
36	55	1
37	45	1
32	32	1
73	73	1
24	27	1
33	52	1
63	66	1
56	57	1
62	63	1
36	84	1
36	47	1
49	83	1
