36	36	17
111	111	18
247	247	16
220	220	9
56	56	15
3	15	5
184	192	3
105	107	2
229	229	12
55	55	10
4	36	2
4	6	1
242	242	7
197	198	2
155	155	23
67	67	15
31	31	4
157	157	11
109	109	6
245	245	10
15	51	3
82	82	1
104	105	3
116	116	12
164	165	3
8	8	12
174	175	1
184	184	7
208	211	3
9	40	12
25	114	1
153	154	8
30	30	7
101	101	9
162	163	3
206	206	1
51	51	6
214	214	13
182	182	12
197	197	12
162	162	5
160	160	5
113	113	15
43	44	7
239	240	5
26	28	1
207	207	5
200	200	19
161	161	16
41	41	11
110	110	5
195	195	6
157	159	1
165	165	14
33	33	18
47	47	8
81	86	4
109	110	1
91	91	9
228	228	3
78	79	5
246	247	2
26	26	10
185	185	15
213	225	2
156	173	1
15	50	3
38	38	10
99	156	1
188	188	4
220	230	5
45	46	11
17	17	7
154	154	8
191	191	6
61	61	5
193	226	6
29	29	7
86	86	10
236	237	4
74	74	9
157	160	2
95	97	2
173	173	7
240	241	1
95	95	10
60	60	15
106	113	4
202	202	14
204	204	13
151	151	16
176	176	3
226	226	22
100	100	12
222	222	12
177	178	2
58	59	2
19	19	7
57	57	12
201	201	11
164	168	4
112	113	4
223	224	5
147	147	8
7	29	1
186	186	10
243	243	6
235	235	3
183	183	7
19	41	1
175	175	9
80	81	3
14	14	8
12	37	1
87	87	11
199	199	6
91	92	3
107	107	4
167	168	1
16	17	2
172	173	6
168	169	8
22	22	9
212	213	5
180	180	20
163	163	12
95	151	3
168	168	12
58	63	2
210	210	8
27	27	17
178	178	15
193	193	4
40	40	13
85	163	2
59	61	6
241	246	5
153	153	9
117	117	18
61	62	4
57	70	1
171	171	9
155	156	7
66	66	3
159	159	6
190	190	5
64	109	2
208	209	6
94	94	3
160	161	2
196	196	8
219	219	4
48	151	3
170	170	13
97	97	8
152	152	15
238	238	11
114	114	12
242	245	1
203	203	8
89	89	10
56	57	3
169	169	8
16	46	11
90	90	6
156	156	9
16	16	3
71	77	7
172	172	7
119	119	12
51	52	5
176	177	3
7	7	8
212	240	1
74	98	2
229	230	10
111	112	4
185	194	3
154	155	7
1	1	2
59	59	14
210	216	1
209	209	13
46	46	8
56	78	5
198	224	1
95	152	2
205	205	14
23	25	2
5	5	6
79	79	3
81	82	2
156	162	4
12	12	13
224	224	8
54	54	11
15	49	4
74	75	2
2	2	4
213	236	3
151	161	4
37	37	8
70	70	5
75	76	1
35	35	3
223	223	5
18	18	5
20	20	5
4	5	3
190	191	2
205	206	3
227	228	8
84	85	5
84	96	1
62	62	9
241	241	7
120	120	7
88	88	8
227	227	12
150	150	6
15	46	1
192	231	2
88	89	10
219	222	1
45	45	6
12	179	4
71	85	1
196	197	2
25	25	3
68	69	4
166	166	7
8	9	3
15	15	5
78	78	3
23	24	2
1	44	1
115	225	2
108	109	2
107	108	5
71	72	2
104	104	4
71	75	4
78	86	3
118	118	3
208	208	10
234	234	6
93	93	9
80	80	4
83	83	2
44	44	6
61	185	1
179	179	7
151	154	1
4	4	2
90	99	1
215	215	5
32	32	5
218	218	9
169	170	2
90	107	4
192	192	11
227	229	3
158	158	5
105	106	3
212	212	15
246	248	3
219	244	2
162	164	1
99	99	4
174	179	1
85	85	4
213	213	3
29	30	1
9	10	2
51	154	5
42	42	11
181	181	15
84	84	1
71	71	9
65	65	5
58	58	8
90	91	3
65	66	2
165	166	2
225	225	2
3	3	3
79	101	3
97	99	5
231	231	3
187	188	2
39	39	1
78	103	2
221	221	7
86	103	1
64	64	4
57	62	2
111	120	3
237	237	6
232	233	6
246	246	7
95	165	1
23	23	5
11	11	6
233	234	1
9	205	2
226	227	4
233	233	4
28	28	5
96	96	7
164	164	2
37	179	1
211	211	8
174	178	4
209	213	1
167	167	12
187	187	8
226	235	2
27	28	4
174	174	8
157	170	3
149	167	2
115	115	10
152	183	2
7	17	1
68	172	2
94	95	4
36	37	2
152	178	2
163	164	4
216	225	2
81	81	5
238	239	6
108	108	2
92	156	2
146	147	2
236	236	6
76	76	4
22	45	1
1	2	4
234	235	1
185	186	6
18	19	1
112	115	1
84	87	5
152	153	1
168	173	1
10	10	4
10	205	1
156	157	3
241	245	2
32	33	3
95	117	3
237	239	1
47	145	2
73	74	2
3	28	1
32	57	3
77	81	2
219	234	1
94	185	1
159	183	1
95	96	4
9	9	4
69	119	1
86	87	1
108	113	1
161	198	2
217	217	1
53	53	1
95	161	2
30	31	1
160	183	3
18	25	1
213	214	5
11	12	1
110	217	3
182	183	1
18	204	1
120	144	2
144	144	2
34	34	5
198	238	4
20	24	2
203	223	1
101	109	2
221	229	1
17	18	2
114	115	2
96	97	3
77	78	2
10	11	4
235	236	3
56	61	1
220	221	3
203	204	2
27	45	2
21	22	4
76	77	8
225	244	2
149	149	2
90	214	2
115	116	6
224	238	1
170	195	2
52	52	3
219	226	1
180	186	2
113	114	4
179	180	5
112	112	4
194	196	2
193	203	1
168	193	1
198	198	4
93	94	2
43	43	8
72	72	7
239	239	7
150	165	1
163	165	2
6	19	4
173	180	3
6	6	3
79	85	2
236	238	3
145	145	5
146	146	1
159	160	1
68	68	4
192	193	3
170	181	2
249	249	3
8	40	1
212	218	1
56	168	1
20	204	2
2	19	1
177	177	4
164	166	2
65	67	1
157	165	3
184	185	3
102	102	3
66	172	2
93	97	1
76	187	1
68	173	1
231	232	2
92	92	9
6	29	3
40	54	1
63	64	3
153	183	3
34	35	1
242	243	1
110	113	2
18	42	1
146	186	2
92	161	1
36	179	2
98	98	2
180	185	1
84	95	1
97	108	2
52	53	2
244	244	9
221	222	2
226	228	1
110	120	1
223	244	1
12	47	1
66	88	2
106	106	1
32	58	2
199	200	2
64	65	2
78	80	1
28	31	1
24	24	4
117	121	1
181	182	1
49	50	4
180	181	2
56	67	1
204	205	2
220	228	1
20	22	1
184	186	2
91	157	1
73	73	2
156	160	1
57	71	3
15	16	2
186	201	4
118	119	2
77	77	3
31	32	1
226	237	1
87	90	2
55	62	1
70	85	1
223	240	1
21	23	1
178	181	1
46	156	1
32	88	1
239	242	1
91	118	1
57	108	2
37	38	4
35	36	3
187	189	2
232	232	1
120	149	2
242	247	1
105	105	1
15	34	1
88	167	1
55	101	1
67	172	1
211	212	2
49	49	1
218	219	4
66	67	1
14	15	2
3	205	1
240	240	1
99	157	2
112	117	1
29	31	2
58	61	2
7	11	2
31	46	1
45	110	3
103	103	2
228	229	1
1	10	4
108	120	3
5	6	1
44	53	2
218	233	1
63	167	1
48	48	2
90	157	1
224	241	1
163	195	4
8	107	1
28	29	1
199	236	2
97	98	1
169	193	1
99	155	3
20	27	1
57	217	2
110	111	2
87	88	1
62	63	1
170	171	1
161	162	1
166	167	2
201	224	2
157	158	2
64	167	2
50	50	1
57	103	1
172	198	1
100	103	1
204	214	2
216	217	1
53	54	1
118	120	1
89	99	1
25	110	1
119	153	1
241	242	1
44	45	2
241	249	1
71	171	1
174	193	1
247	248	1
206	220	1
18	20	2
121	121	2
97	100	1
32	54	3
85	86	1
210	211	1
213	218	1
238	240	1
183	192	1
15	52	1
66	68	1
118	152	1
175	177	1
229	234	1
66	75	1
15	176	1
42	43	1
109	118	1
226	231	1
86	91	2
147	153	1
65	72	1
58	101	1
209	210	1
54	55	1
175	180	1
11	151	1
225	247	1
228	232	1
69	69	1
