22	22	18
6	6	19
14	14	22
43	43	5
15	16	14
57	57	5
4	4	34
28	28	19
13	13	32
20	22	11
9	15	1
58	58	8
50	50	27
44	44	32
18	18	32
23	29	4
2	2	26
17	18	10
18	30	3
47	47	24
9	9	12
30	30	31
39	39	19
20	20	18
51	51	26
48	48	20
34	36	2
11	11	14
5	5	18
36	36	28
23	23	14
17	17	46
15	15	30
45	46	8
51	52	4
10	10	34
53	54	8
8	28	1
32	32	18
1	1	29
40	41	10
21	22	5
38	38	17
19	21	6
33	34	22
20	21	1
12	53	1
40	40	19
29	31	5
10	14	3
33	33	26
36	38	1
19	19	24
53	53	9
3	4	11
31	33	5
34	34	33
54	54	16
35	39	5
46	46	21
35	36	3
30	36	2
55	58	2
12	12	24
29	29	25
2	3	11
24	24	5
45	45	24
31	32	5
39	40	12
42	42	15
0	0	27
55	55	8
28	29	5
3	3	28
52	56	1
21	21	9
7	7	11
32	33	4
21	24	3
16	16	30
36	37	6
19	20	3
37	38	15
49	49	32
22	55	1
55	56	10
41	41	9
35	35	16
36	40	4
9	28	5
8	8	11
7	8	2
31	31	10
16	17	13
56	57	7
21	28	6
9	10	6
9	14	1
1	2	7
38	39	2
41	42	11
29	32	2
43	44	2
8	9	7
8	10	3
10	11	5
23	28	1
52	53	7
37	37	26
49	50	5
7	33	7
11	12	4
24	51	1
54	57	2
13	14	15
34	38	1
11	58	3
6	7	5
23	24	3
47	48	9
17	34	3
22	23	4
21	29	4
36	39	4
32	38	2
15	30	5
57	58	6
12	56	2
44	45	3
0	1	3
51	58	4
29	37	3
15	49	2
30	31	5
4	5	4
51	53	4
18	19	3
56	56	12
18	39	1
14	15	15
23	54	1
48	49	3
22	28	2
52	52	7
34	35	8
40	42	2
30	33	1
16	32	1
37	45	3
16	18	4
52	54	3
19	55	2
54	56	2
29	38	1
9	29	1
33	35	3
46	47	7
21	51	1
53	56	3
5	6	1
15	17	1
8	29	2
22	32	1
20	31	1
8	18	1
8	40	3
16	34	1
41	44	1
21	32	2
53	57	1
8	11	2
38	45	3
16	40	2
42	45	1
37	39	2
42	43	2
13	15	1
14	58	1
5	7	1
15	31	1
11	14	1
11	57	3
17	40	1
8	13	2
31	35	1
14	16	1
50	51	1
0	32	1
45	47	1
20	23	1
42	55	1
36	44	1
20	58	1
32	35	1
51	56	1
27	28	1
30	32	1
16	29	1
48	51	1
10	15	1
13	58	1
18	34	1
