11	11	7
85	85	13
11	93	2
49	50	5
133	133	4
2	2	7
13	14	3
0	0	3
22	36	2
63	63	14
7	48	1
98	98	6
6	94	4
61	72	2
61	61	3
132	132	2
48	48	3
97	97	4
11	60	3
27	93	3
77	86	3
102	123	1
23	26	1
94	94	4
49	49	3
4	4	10
107	107	1
92	92	5
118	118	5
64	64	9
91	91	9
7	66	5
67	68	3
100	101	3
6	6	5
34	34	7
31	71	1
79	79	8
108	126	2
21	48	5
83	93	2
71	71	6
56	75	2
7	25	2
8	8	3
16	18	3
57	57	4
8	11	3
37	38	2
116	116	2
104	105	3
9	16	4
24	24	8
19	19	8
67	67	2
93	132	1
35	69	2
70	70	5
66	66	9
119	119	2
93	94	2
123	124	1
51	55	1
12	12	5
43	84	3
113	117	3
102	103	4
22	22	1
33	34	2
78	78	5
81	82	2
55	55	2
55	81	4
21	21	5
74	74	3
10	10	4
11	48	2
62	62	6
26	26	7
28	30	2
39	40	1
31	32	2
47	47	8
104	119	2
83	83	7
86	86	5
3	3	6
126	126	2
82	82	4
83	101	2
45	45	14
14	24	1
128	128	3
28	91	1
32	32	5
17	17	2
26	81	4
87	87	5
3	70	3
109	133	5
5	5	5
65	65	8
114	114	5
68	69	2
105	105	4
5	6	2
75	75	3
115	115	2
68	68	7
71	75	5
41	42	2
101	101	2
99	99	3
20	20	7
33	35	1
91	92	1
100	100	5
78	102	3
5	95	2
12	30	1
36	36	6
4	5	2
48	50	1
56	56	3
130	130	6
59	130	1
26	93	4
23	23	3
8	117	1
20	22	2
10	12	1
95	95	5
113	113	2
29	29	3
112	128	3
33	33	2
98	102	1
35	35	5
43	43	9
4	37	2
68	130	4
14	83	1
38	41	3
77	77	5
70	71	3
81	81	5
21	37	1
115	116	3
12	73	1
22	34	1
24	26	2
60	132	1
30	30	5
25	26	6
117	117	7
17	94	3
67	70	3
120	120	4
61	107	1
11	34	1
20	48	3
88	89	2
93	93	6
30	31	1
10	77	1
14	14	5
15	15	7
109	109	5
110	110	6
35	86	1
39	42	2
125	125	7
21	22	2
23	46	1
128	129	1
59	102	1
92	95	1
46	46	5
30	74	4
50	50	2
7	7	2
20	21	3
26	48	1
98	99	3
83	85	1
65	66	2
76	76	2
12	13	1
123	123	2
28	28	6
130	134	2
11	71	1
20	93	3
26	100	1
84	85	5
40	85	1
94	95	2
45	120	3
34	35	2
4	28	1
18	18	1
31	31	3
12	95	2
15	83	2
69	69	4
38	39	1
41	43	2
124	124	3
57	58	2
103	118	2
127	127	1
101	107	1
26	27	5
46	61	2
27	27	6
59	122	2
45	71	2
78	79	2
15	59	3
78	81	4
4	6	2
54	55	2
37	37	2
63	105	2
0	1	3
26	47	2
13	79	1
7	11	1
66	75	1
131	131	6
104	114	1
9	9	2
13	13	3
72	72	2
73	123	1
5	28	1
19	20	1
75	76	4
86	96	1
112	113	1
7	90	1
103	103	1
105	107	2
87	107	1
72	108	1
33	99	1
41	86	2
40	42	1
60	134	1
40	40	2
111	111	1
6	95	1
26	37	2
79	82	1
58	107	2
96	96	4
63	76	1
30	59	1
12	68	1
77	78	3
130	133	2
11	83	1
55	88	1
9	71	3
55	94	1
11	26	1
113	116	1
29	49	2
90	90	1
65	100	1
16	44	1
8	18	1
23	24	1
80	80	3
62	84	1
108	108	1
27	29	1
14	32	1
43	44	1
28	29	1
126	134	1
61	69	2
81	94	1
25	38	2
41	84	1
44	44	1
121	121	1
10	76	1
83	107	1
46	47	2
29	30	3
4	70	1
34	44	1
67	69	1
25	25	2
5	11	1
47	63	1
17	18	1
42	43	1
60	69	1
59	70	1
93	98	1
14	61	1
13	19	1
16	16	1
111	113	1
30	69	1
46	63	1
58	58	1
112	112	1
90	113	1
