123	123	13
139	139	17
91	112	1
128	129	3
23	26	1
131	131	7
19	19	4
89	89	6
134	134	16
138	138	6
27	27	13
38	86	2
81	81	13
6	6	13
118	118	9
92	92	2
7	7	4
91	91	19
91	113	2
1	4	2
121	121	7
91	115	2
111	112	2
108	108	5
132	132	13
103	103	8
93	93	4
121	123	2
80	80	4
36	36	6
34	100	1
99	99	1
2	2	9
17	17	7
12	71	1
130	131	3
104	104	16
30	30	4
25	25	4
34	34	4
116	117	3
2	19	3
76	76	15
129	129	18
116	118	3
116	116	5
87	89	2
101	101	1
86	86	7
118	119	6
28	29	2
119	119	8
95	95	4
31	31	3
124	124	4
95	96	6
122	122	12
78	78	5
119	120	3
72	72	7
27	32	1
89	106	3
13	14	2
82	82	10
110	110	5
87	88	1
114	114	7
89	90	2
131	133	2
125	125	7
5	13	4
10	10	4
104	107	2
37	38	1
115	121	1
134	135	1
113	113	10
37	37	7
0	3	5
90	90	3
10	25	1
99	100	2
117	117	9
7	10	3
19	20	5
29	30	5
140	140	6
132	136	1
116	126	2
11	11	6
96	96	11
107	115	4
107	107	3
8	9	4
78	79	2
77	77	5
135	135	2
3	4	1
73	73	6
91	125	1
92	93	4
110	111	1
133	133	13
82	104	4
10	12	3
26	28	2
35	35	13
98	98	6
25	26	7
119	140	2
130	130	9
13	13	11
114	115	4
126	126	7
22	28	3
137	137	8
15	17	1
84	98	2
33	33	4
120	120	1
24	31	3
85	91	2
120	121	2
1	1	6
134	139	3
83	83	2
112	112	2
115	115	3
18	31	3
11	122	2
135	138	1
104	105	2
83	85	6
106	106	4
88	90	2
6	14	2
136	136	4
108	109	1
4	4	8
28	30	1
92	96	1
128	128	11
16	16	5
11	12	2
131	136	4
4	5	2
74	100	1
22	22	4
86	94	1
36	37	2
23	23	4
109	110	1
123	124	4
79	84	1
0	14	3
79	80	4
122	123	2
0	0	1
76	100	2
97	97	1
133	134	2
20	20	2
93	94	1
26	26	4
80	109	4
79	83	1
80	84	1
18	18	1
71	71	1
22	31	1
75	97	3
38	83	1
95	111	1
87	87	4
127	127	8
84	84	3
105	105	3
95	100	2
23	24	2
73	78	1
6	15	3
38	38	6
127	128	2
117	118	2
28	32	2
140	141	2
137	138	1
124	125	3
115	124	4
102	102	3
79	79	1
75	75	3
81	82	2
74	74	3
103	104	1
109	109	2
137	139	1
81	84	1
120	122	3
131	132	1
3	3	3
6	7	1
139	140	1
105	106	1
33	34	3
7	12	1
24	26	3
24	24	1
91	114	1
75	90	2
15	16	1
136	137	1
95	99	1
9	9	1
3	87	1
132	133	1
9	24	2
29	29	1
130	137	1
81	107	1
100	100	2
8	30	2
102	103	2
30	31	1
111	111	2
73	79	1
8	8	1
28	28	3
86	112	1
14	14	1
99	124	2
78	82	1
20	22	1
102	108	1
135	136	1
72	73	1
21	22	1
82	102	1
74	78	1
17	18	1
