151	151	10
170	170	7
157	157	5
21	21	8
24	24	9
31	167	2
114	115	9
50	51	2
28	28	12
145	145	5
64	98	6
23	23	2
175	175	5
18	23	2
161	161	12
65	65	2
224	224	6
79	80	7
226	227	6
11	11	7
180	180	5
44	45	4
87	87	1
169	169	6
28	50	1
114	114	8
223	223	3
153	153	7
201	201	5
184	184	1
207	207	5
99	104	3
232	233	1
88	88	6
10	10	14
45	45	15
42	42	8
227	227	8
208	208	8
228	229	3
212	212	8
119	153	3
50	50	7
46	46	5
194	196	3
220	220	10
49	49	1
200	201	2
32	32	10
91	151	1
198	199	2
104	104	2
2	2	3
44	44	13
70	70	2
54	54	9
77	78	1
0	43	2
47	48	8
184	185	7
164	164	2
8	9	4
51	51	6
93	93	7
195	195	5
205	205	19
189	191	5
62	98	3
16	16	14
31	31	4
97	98	9
101	102	1
79	81	4
26	26	4
240	240	7
206	206	1
239	239	4
5	168	1
55	59	1
159	159	3
103	103	4
168	168	3
203	203	3
29	29	7
37	39	1
43	43	7
47	50	1
60	70	2
244	246	4
40	40	4
91	92	4
218	218	7
53	53	4
154	155	1
196	196	6
67	67	4
9	9	6
43	44	4
201	221	2
62	62	15
158	159	3
33	37	4
113	113	11
121	121	2
232	232	6
155	155	11
10	11	3
243	243	9
15	15	6
34	34	7
61	61	11
163	165	2
189	190	2
194	195	4
171	186	2
75	75	3
221	221	2
146	146	5
150	150	9
72	72	3
202	203	7
36	37	2
20	158	3
152	152	6
115	116	1
6	162	2
154	154	13
3	4	3
187	189	4
156	156	17
204	204	3
60	73	4
212	223	1
109	109	16
193	194	2
245	247	2
110	111	5
60	60	2
41	41	9
80	81	6
113	114	4
111	111	5
6	6	9
178	179	8
219	236	4
29	30	2
8	8	4
210	210	9
213	214	4
183	183	3
229	230	2
247	248	2
199	199	4
237	237	2
81	81	4
74	74	7
214	214	5
178	178	6
162	162	6
117	117	7
183	184	10
214	223	3
160	170	4
26	43	1
203	205	1
210	211	8
64	65	3
241	243	2
27	27	3
4	5	2
211	211	10
228	234	1
191	191	5
115	115	5
238	239	4
163	163	2
14	14	5
198	198	2
15	64	2
173	185	2
213	242	2
55	55	5
158	167	7
77	80	4
233	240	4
165	165	3
181	182	2
217	217	2
34	217	5
64	64	8
208	212	3
51	55	2
17	18	2
5	5	2
59	59	3
87	88	2
172	172	6
6	165	4
42	44	1
165	169	6
118	118	1
182	183	5
203	212	2
74	77	1
149	149	1
27	46	2
98	98	4
17	17	2
202	202	5
76	77	1
238	238	6
33	34	3
236	236	6
226	226	1
249	249	2
12	33	1
161	170	2
12	15	2
157	158	2
37	37	4
239	240	2
19	23	2
48	49	5
85	85	5
168	169	1
25	26	1
18	221	3
38	38	9
211	236	1
172	180	2
243	246	6
60	214	4
209	209	1
230	230	3
112	112	3
30	30	8
200	206	2
233	233	3
33	33	7
171	173	3
101	101	1
187	187	4
156	157	1
19	19	10
108	108	3
39	39	3
100	100	5
248	248	1
89	89	1
58	58	6
244	247	4
169	170	5
68	70	6
48	48	5
160	160	2
22	46	1
105	105	2
204	221	3
120	120	4
69	69	1
212	213	3
21	22	1
107	108	2
169	208	1
36	36	1
216	216	5
76	76	1
110	110	2
53	55	1
92	92	6
106	106	5
19	20	2
200	200	4
171	171	4
38	39	2
236	237	2
35	36	1
12	222	1
190	191	3
175	176	1
61	89	3
84	84	5
162	198	3
56	57	4
92	93	3
98	106	4
196	236	2
66	66	2
164	165	2
201	202	2
100	101	2
49	50	3
188	188	2
97	99	1
195	235	1
234	234	4
174	174	1
94	96	2
235	235	2
225	226	3
12	169	1
81	82	2
151	152	1
31	246	1
230	231	1
164	196	1
174	175	2
159	160	1
153	200	3
228	228	3
77	81	2
99	100	1
186	192	1
20	20	8
38	59	1
99	99	2
7	7	3
162	163	1
217	218	2
233	234	5
166	167	2
37	38	2
94	95	1
101	103	3
90	91	2
96	97	1
229	229	3
47	65	1
17	22	1
221	222	2
173	173	1
85	89	2
117	247	1
78	79	1
31	32	1
65	66	2
184	188	1
102	114	1
177	177	3
2	4	3
54	55	1
94	94	2
165	167	2
210	238	3
199	200	1
188	196	1
1	1	1
215	215	1
186	186	2
176	177	4
5	30	2
214	215	1
222	223	1
198	200	1
208	225	1
146	147	2
28	29	1
116	116	1
180	231	3
102	102	1
116	117	3
53	85	2
247	247	2
213	213	1
67	85	1
150	154	2
207	208	1
210	214	1
166	166	2
240	241	2
179	179	2
45	46	3
14	15	2
1	2	1
206	207	1
222	222	2
22	22	1
119	119	1
3	40	1
150	165	1
244	244	1
189	235	1
73	86	1
87	89	1
69	70	1
71	71	1
237	239	2
115	151	1
181	181	1
117	120	1
197	197	2
208	209	2
227	228	3
179	192	1
208	238	1
91	105	1
107	111	1
73	73	1
198	211	1
244	245	1
184	189	1
203	204	2
205	206	1
29	66	1
97	103	1
28	46	1
189	189	1
17	25	1
105	106	1
220	221	1
197	198	1
9	206	1
12	12	1
186	197	1
3	3	1
163	164	1
103	104	1
219	219	1
