44	45	3
26	27	8
3	37	2
19	19	11
17	17	21
133	133	9
8	8	12
107	154	3
40	40	8
110	110	8
6	7	2
143	145	3
67	69	7
20	23	2
77	77	16
5	6	3
51	51	12
86	87	3
6	6	20
103	103	6
55	55	12
149	151	4
151	151	14
36	36	8
2	45	5
78	129	2
129	129	13
13	13	4
73	73	9
21	21	3
97	98	7
46	127	3
65	65	6
43	43	8
153	153	4
117	120	1
41	41	10
89	92	2
79	79	7
12	12	16
7	11	6
146	147	3
130	131	13
2	2	15
20	33	6
32	33	6
118	145	2
38	49	3
27	27	5
139	139	2
53	53	6
56	56	5
0	0	13
85	85	7
104	105	2
81	81	7
93	93	5
28	28	9
7	7	6
51	72	2
65	66	4
4	4	12
54	54	5
115	115	7
3	3	9
47	47	4
123	123	13
86	86	12
20	40	4
144	145	1
46	46	5
81	82	4
24	24	6
106	127	3
113	115	1
29	30	4
77	149	1
14	14	4
28	50	1
45	49	5
104	104	18
32	43	1
79	80	1
113	131	1
102	102	5
130	130	5
101	101	9
45	54	5
140	140	10
32	39	1
52	52	6
97	157	3
143	153	2
88	119	1
70	71	5
17	20	3
52	53	4
157	158	5
40	41	3
55	91	2
106	112	2
110	111	3
32	32	12
1	1	13
6	8	3
148	149	4
99	100	4
108	109	7
15	15	11
125	126	4
158	159	5
56	57	1
64	67	2
17	47	5
153	154	5
36	46	3
149	150	1
156	156	9
150	150	11
69	69	3
134	135	3
128	128	3
29	29	12
87	87	8
158	158	7
26	28	3
65	67	1
94	97	5
105	106	4
104	157	3
20	20	11
147	148	5
152	152	4
137	138	3
130	137	1
100	100	11
23	24	9
46	47	11
88	90	2
134	134	6
111	112	8
120	120	7
25	88	3
126	126	9
132	132	6
1	2	7
48	49	5
122	122	11
84	84	2
88	88	7
18	18	8
99	99	11
66	95	2
33	33	7
30	88	3
92	93	3
106	106	10
15	16	5
118	119	4
25	26	3
125	125	3
120	141	2
50	50	10
93	95	3
133	136	1
116	116	11
62	63	2
127	127	9
90	90	7
84	85	2
30	30	13
31	31	5
71	71	5
154	155	1
146	148	2
16	17	3
148	155	6
105	105	5
104	129	4
22	22	5
111	128	1
27	79	3
29	88	3
14	15	3
116	117	3
96	97	1
140	141	1
10	22	1
31	120	2
19	33	3
159	159	2
92	92	8
18	19	1
44	44	7
86	92	5
16	16	1
34	34	2
77	78	1
2	152	2
67	71	3
87	88	1
91	91	9
93	94	1
124	124	1
155	156	4
0	99	1
132	133	7
37	150	2
50	51	6
14	45	2
140	154	2
43	44	3
28	54	2
141	143	1
2	4	4
113	113	3
94	94	7
69	71	1
76	76	1
95	97	3
94	115	1
79	148	3
68	68	6
43	46	3
55	56	2
135	136	4
108	111	5
138	139	1
21	22	1
56	91	6
67	67	2
88	89	2
155	155	2
7	128	1
86	120	2
48	48	2
6	13	1
121	121	1
136	136	2
111	113	1
80	150	2
118	118	2
42	42	4
112	112	6
46	54	2
142	153	3
66	66	2
138	138	4
36	37	2
95	95	8
30	81	1
24	25	3
39	39	3
149	149	4
16	42	4
116	156	1
131	131	1
42	43	1
7	8	6
129	130	1
37	37	3
150	151	1
114	123	2
117	122	2
49	50	2
83	84	2
25	29	3
140	152	1
83	83	2
41	73	3
64	66	3
111	111	2
117	118	1
35	35	7
36	43	2
148	148	3
133	134	2
126	127	1
144	151	1
112	113	2
156	157	1
145	146	1
157	157	6
115	127	1
10	35	1
64	64	4
94	117	2
75	75	5
115	116	1
63	63	1
72	72	1
154	154	1
7	10	3
105	116	1
35	36	3
27	49	1
96	96	4
106	119	1
75	98	1
30	31	1
23	45	1
18	36	1
121	127	1
103	157	1
38	48	2
95	96	2
120	143	3
73	74	1
7	87	1
39	40	2
95	98	3
145	145	1
63	64	1
49	49	4
32	77	1
26	26	6
40	94	2
78	78	1
70	70	2
77	79	3
97	97	6
2	3	1
0	1	1
141	141	6
136	137	1
78	93	1
117	117	1
98	98	3
142	142	2
38	38	1
88	145	3
116	130	1
121	123	2
85	91	2
135	135	2
88	138	1
25	25	1
23	23	2
98	99	2
9	9	1
109	109	3
135	138	1
27	28	2
9	11	3
82	82	1
50	52	1
82	85	1
107	111	1
22	87	2
29	39	1
107	107	4
46	80	1
123	144	1
45	76	1
119	120	1
148	151	1
22	23	4
17	18	2
38	152	1
124	126	1
5	5	2
143	143	1
80	80	2
38	39	1
94	95	1
106	107	2
31	39	1
26	82	1
110	135	1
114	114	1
35	52	1
119	142	2
108	108	1
97	158	2
36	45	1
45	45	3
62	67	2
149	156	1
7	117	1
36	56	1
51	56	1
127	143	1
115	117	1
74	75	1
137	139	1
9	34	1
46	84	2
69	70	1
2	16	1
55	71	1
28	45	1
142	144	1
147	147	3
24	81	1
35	39	1
119	119	1
137	137	1
2	77	1
128	129	1
41	42	1
