122	141	4
162	162	15
115	116	8
102	102	10
104	104	11
153	160	1
148	149	4
28	41	2
69	69	17
48	72	3
117	118	6
22	123	4
146	148	8
15	15	9
14	21	1
163	163	18
34	34	4
20	25	4
50	50	8
7	65	2
118	118	4
72	72	3
100	103	2
33	33	2
139	141	2
53	55	3
48	93	9
134	145	5
37	38	4
17	17	10
45	45	12
97	98	8
39	39	10
40	41	8
84	87	5
2	3	1
1	2	5
36	36	14
74	74	14
85	85	5
42	43	1
42	42	4
88	88	7
82	82	17
116	116	12
25	25	12
68	68	10
57	98	3
20	24	1
11	11	9
139	139	7
125	145	5
1	48	4
89	89	11
109	109	11
52	52	1
71	71	13
38	40	4
152	152	5
7	11	1
6	6	6
126	127	13
16	16	4
93	113	3
79	79	3
93	97	2
34	111	2
18	18	4
95	96	6
147	147	17
33	34	3
134	134	10
77	77	4
70	70	8
88	89	12
14	15	5
55	55	4
92	92	12
103	103	11
89	96	4
121	124	2
146	146	8
57	57	12
101	101	7
165	166	1
76	79	1
126	126	6
105	105	1
92	94	1
87	89	4
66	66	13
89	90	8
81	82	8
44	44	4
140	140	3
111	111	17
41	41	10
161	165	1
43	43	12
155	155	9
46	46	15
140	141	6
51	72	1
113	114	3
0	0	4
63	65	1
166	166	4
23	23	6
37	37	7
96	96	6
145	145	10
167	169	1
112	119	2
158	159	2
133	133	5
52	73	7
3	3	4
46	49	2
159	159	4
4	4	7
91	92	5
91	151	3
26	26	17
3	4	4
105	106	5
13	14	2
8	8	8
2	2	9
95	99	7
54	55	1
68	69	3
83	83	10
137	137	12
154	155	9
125	126	10
112	113	7
144	144	9
135	135	8
97	99	3
115	115	4
0	2	4
144	145	2
21	21	10
51	73	4
130	130	3
132	133	1
74	75	5
11	12	5
47	47	11
15	16	3
135	137	2
107	108	4
35	35	6
164	165	2
22	23	4
19	19	3
21	22	4
99	101	2
156	156	5
77	79	8
45	46	3
163	164	6
161	163	2
169	169	3
98	98	3
99	99	6
114	115	6
138	139	7
4	10	1
158	158	4
156	157	4
103	104	3
10	11	6
7	8	7
38	38	2
122	123	3
161	161	4
142	142	10
86	86	5
91	141	4
58	58	1
96	99	2
149	149	5
12	14	6
6	8	1
128	128	2
138	138	12
132	132	4
7	7	9
14	14	9
95	95	4
85	95	1
56	57	4
80	80	4
138	142	5
169	170	5
140	143	3
109	110	7
40	40	6
27	27	23
13	13	9
9	9	9
27	28	5
26	27	4
131	131	6
120	120	6
116	117	4
110	110	1
94	99	4
148	148	1
7	10	5
55	63	3
58	98	4
168	168	6
119	120	4
54	54	2
56	56	6
145	148	4
120	154	1
103	115	2
84	85	3
86	90	5
10	16	3
90	90	2
48	48	4
34	35	7
8	11	4
108	108	7
87	87	4
47	49	9
12	12	2
100	100	5
167	167	4
101	104	2
6	20	2
91	99	1
112	112	7
128	143	2
6	7	5
110	111	4
100	101	1
94	94	4
64	66	4
121	121	5
37	39	3
123	123	4
15	19	3
78	82	4
1	1	5
8	10	1
24	25	3
49	49	3
76	76	7
162	163	1
24	24	3
21	156	6
61	71	1
113	113	5
147	164	1
17	18	3
5	5	8
44	45	2
125	127	4
130	133	3
13	16	1
134	135	2
165	165	2
101	102	5
20	21	7
161	168	2
116	118	5
122	124	1
53	54	3
50	73	2
76	77	4
44	46	2
75	91	1
137	139	2
83	144	2
64	64	3
46	52	1
51	51	3
157	158	2
82	83	2
86	87	1
47	48	5
62	69	5
75	76	2
151	151	2
38	39	1
67	67	1
52	99	2
3	48	1
78	80	1
53	53	2
10	12	3
71	72	4
57	62	3
10	160	2
123	124	3
6	43	1
4	5	1
51	56	3
80	82	1
43	44	3
19	20	3
95	98	1
124	127	4
152	153	3
0	24	2
161	162	2
22	22	2
114	114	2
87	88	1
87	91	2
124	126	1
97	97	1
127	142	4
26	44	1
116	122	3
63	63	2
145	146	1
117	122	3
81	96	2
70	74	1
141	141	4
162	166	2
127	129	1
36	37	1
164	164	3
1	45	2
65	65	1
67	68	1
134	169	1
104	116	4
128	129	1
94	100	3
92	93	1
125	125	3
18	130	2
25	26	1
77	78	1
12	23	1
90	91	4
157	157	1
80	81	2
63	64	1
15	17	3
8	69	2
124	124	5
129	129	3
77	80	3
21	25	5
75	75	2
111	112	1
123	125	1
81	81	1
121	122	1
162	164	2
50	51	1
5	7	1
103	135	1
143	143	1
154	154	6
101	103	1
149	150	1
95	97	1
46	47	1
49	52	3
62	62	2
78	78	2
111	114	2
51	98	1
28	28	2
24	26	1
7	20	2
104	105	2
57	58	1
109	111	1
85	114	1
0	1	2
127	155	1
106	106	1
168	170	1
12	13	2
14	39	1
147	148	1
19	24	2
49	50	1
40	47	1
85	138	1
91	157	1
130	131	1
62	68	1
73	82	2
151	152	1
34	109	1
91	91	1
35	36	1
106	112	1
127	127	1
109	112	1
126	128	1
130	132	1
83	84	1
39	41	1
23	25	1
119	119	1
51	52	1
48	49	1
