14	23	2
145	145	3
16	28	3
29	30	7
143	143	3
74	74	15
103	119	2
11	12	5
8	30	3
33	43	7
27	30	5
113	113	8
139	139	7
137	137	2
175	175	3
22	36	8
72	82	3
131	132	4
30	33	3
176	177	2
22	24	1
38	38	14
172	172	8
20	23	7
143	144	3
32	32	3
36	37	1
28	31	1
2	4	1
30	30	10
54	59	4
159	159	11
9	11	5
35	35	5
68	68	8
115	118	4
8	9	5
42	42	4
40	40	2
119	119	6
50	50	5
147	147	3
16	16	8
22	22	5
167	167	5
39	39	5
154	154	4
91	94	2
21	21	9
179	179	6
14	27	3
52	52	1
124	125	4
1	1	2
2	3	5
10	10	3
41	43	2
67	67	3
50	51	3
44	44	5
91	93	3
146	146	6
115	115	3
32	33	2
4	10	3
52	57	2
100	100	4
39	41	5
76	78	2
6	6	10
103	103	3
104	104	3
151	151	5
103	104	4
9	9	5
24	52	4
144	146	4
7	19	4
125	125	2
59	59	4
170	170	4
157	158	2
31	31	11
135	135	4
166	166	4
36	36	16
64	66	1
173	174	4
72	108	2
12	12	3
149	164	2
16	18	7
28	29	3
170	171	5
1	2	3
65	65	8
0	0	6
77	77	7
56	56	1
146	152	3
180	180	2
111	111	3
90	90	3
145	146	4
177	177	9
108	109	4
113	115	3
56	59	2
174	174	4
10	11	2
4	4	4
23	24	4
178	178	2
27	27	4
88	89	2
4	7	3
148	148	6
45	45	6
136	137	2
34	102	3
123	123	5
18	18	2
74	109	5
172	173	2
101	101	4
165	166	2
122	153	1
11	11	5
29	32	4
152	167	1
66	68	2
33	33	7
8	10	5
41	41	4
61	110	1
117	118	5
10	14	1
64	64	7
25	27	4
29	29	4
17	17	7
142	143	3
82	82	4
171	171	2
175	176	3
104	107	1
7	7	1
150	150	5
103	107	1
13	13	7
133	134	1
157	157	4
83	85	2
108	108	1
5	5	3
156	157	1
39	43	3
2	9	2
81	82	1
111	130	3
4	5	3
5	9	1
86	86	5
13	14	4
99	99	4
6	31	1
156	168	2
149	149	2
126	126	1
116	117	3
167	168	3
76	77	3
101	103	1
24	78	1
161	165	1
11	15	2
95	95	5
127	127	1
3	5	4
40	41	2
173	173	3
97	97	2
150	151	4
75	75	3
2	2	2
15	18	2
94	94	2
83	83	1
84	85	3
176	176	2
19	19	2
43	43	1
87	87	4
102	115	2
10	35	1
169	170	1
151	161	1
72	73	3
12	28	1
19	20	3
138	139	1
3	35	2
161	162	1
53	53	2
120	120	1
121	123	1
158	158	2
27	28	3
15	15	7
90	91	1
21	31	1
59	108	1
160	160	3
38	39	1
12	13	2
134	134	2
18	19	6
61	61	2
74	81	1
55	55	1
37	37	2
37	38	2
3	20	2
117	117	1
165	165	2
56	58	1
155	155	1
116	118	1
95	97	1
107	107	1
174	177	1
131	170	3
169	169	2
109	109	1
88	88	2
43	44	1
136	136	1
33	37	2
57	57	1
120	121	1
104	126	1
28	28	1
68	106	1
60	60	1
0	40	1
174	175	1
26	26	2
3	8	1
18	20	1
100	101	1
17	18	1
29	31	1
141	146	2
149	150	1
89	90	1
72	72	1
13	18	1
16	17	1
109	110	1
20	80	1
110	110	1
51	51	1
30	31	1
121	126	3
44	45	1
23	26	1
50	85	1
80	81	1
114	155	1
39	44	2
152	161	1
