82	82	6
120	122	5
75	75	7
63	63	11
87	88	7
124	124	8
0	1	3
13	13	19
72	72	8
56	56	9
68	69	6
75	76	8
78	97	1
100	100	10
37	37	2
5	5	5
84	85	3
76	76	10
50	59	1
2	74	3
91	92	3
80	80	9
108	118	6
112	113	14
71	72	10
62	64	10
119	122	1
82	85	2
34	34	7
102	102	15
73	134	2
117	118	3
50	50	8
33	33	11
43	45	3
73	73	10
130	130	7
92	92	6
125	126	6
91	91	12
125	125	9
18	18	4
85	85	26
123	123	10
11	11	13
106	107	5
8	53	4
11	34	2
3	3	7
12	28	3
113	113	11
61	61	7
4	7	3
76	79	2
103	103	15
105	105	13
119	119	7
113	118	3
30	30	4
123	124	4
4	24	3
131	133	6
97	122	3
99	99	7
18	23	4
65	67	4
1	1	6
84	87	1
77	77	8
107	107	4
121	122	2
64	65	8
128	128	17
93	94	6
59	68	1
7	26	1
24	24	4
108	110	1
27	28	8
111	116	1
65	65	14
67	68	5
82	83	3
16	19	3
126	127	3
31	31	6
126	126	8
9	10	3
44	45	5
104	105	4
112	116	3
23	25	4
35	35	11
86	87	5
94	120	2
130	131	7
79	99	1
131	134	4
28	28	11
121	121	8
94	95	4
80	81	5
15	16	8
126	128	3
79	80	7
94	94	9
89	90	4
116	118	3
107	115	2
107	112	5
90	95	5
83	87	1
90	91	6
91	122	4
116	116	14
114	114	7
64	64	5
61	70	3
103	104	3
106	106	2
25	37	2
44	91	2
71	71	10
95	95	6
135	135	2
4	14	2
43	43	7
60	60	7
57	58	2
89	89	8
63	81	3
74	76	3
70	70	7
69	81	2
59	60	1
127	127	3
97	97	3
104	104	7
68	68	3
36	36	1
74	74	11
25	25	9
30	31	1
57	63	1
54	54	7
91	93	1
88	88	15
90	90	21
115	115	9
112	112	8
42	42	3
81	81	6
84	84	9
115	116	1
101	116	5
6	25	1
81	86	1
23	23	8
98	99	6
6	12	2
15	19	2
47	47	5
38	55	3
2	2	7
72	73	4
15	34	2
100	101	3
44	44	11
29	29	6
52	53	1
54	55	2
83	85	1
10	20	1
111	112	1
133	133	2
129	130	4
20	20	5
49	50	3
71	127	1
118	121	4
131	131	4
46	46	2
23	24	3
77	78	5
78	78	3
116	117	2
64	68	2
82	84	4
91	120	2
76	81	2
130	132	1
52	52	7
119	121	3
69	70	4
104	115	1
12	12	5
73	74	5
65	68	2
32	32	2
11	53	1
96	96	1
22	22	6
62	62	9
45	85	2
109	109	4
8	127	1
81	82	3
17	18	2
15	15	5
132	132	5
129	131	1
122	122	4
62	69	1
93	93	8
1	4	2
82	129	1
77	121	1
7	8	3
101	101	5
8	8	2
98	98	4
109	110	3
59	62	3
108	111	4
110	110	1
14	15	3
107	108	1
27	29	2
38	38	4
12	13	4
58	58	4
107	110	1
120	120	6
26	26	5
89	96	4
63	65	1
105	121	2
50	52	2
79	98	2
74	75	1
105	120	4
60	61	3
134	134	5
4	4	5
79	79	1
101	106	1
120	121	3
48	48	3
50	51	1
114	132	1
35	52	2
94	115	1
132	133	3
59	59	1
84	86	3
66	67	3
77	97	3
17	17	1
111	111	2
86	86	3
13	14	3
53	66	1
127	128	3
77	119	1
129	129	1
38	82	2
46	47	1
70	71	5
102	114	1
21	21	8
59	69	2
99	101	3
62	63	1
54	56	1
69	69	3
105	106	1
108	108	1
92	93	3
45	47	1
88	93	2
106	120	2
16	17	3
12	34	1
91	103	1
38	68	2
7	7	2
6	28	3
77	79	2
87	94	2
35	36	1
45	45	5
87	90	2
113	115	1
59	64	2
19	19	1
6	7	3
0	2	5
75	79	2
69	76	2
79	82	1
107	118	1
95	97	3
63	64	1
10	11	2
97	119	1
99	105	3
64	66	2
87	87	1
118	119	3
2	3	3
99	100	3
71	133	1
0	0	2
22	23	1
32	33	1
101	102	2
83	84	1
28	29	2
98	120	1
44	82	1
18	19	1
13	33	1
15	18	1
80	102	1
21	23	2
119	120	3
56	57	1
114	115	1
5	60	1
78	92	1
57	57	1
109	111	1
44	48	2
44	47	1
37	38	1
76	93	1
83	83	1
71	75	1
72	132	1
26	27	1
