97	97	6
29	30	3
13	14	3
130	131	4
136	136	4
3	4	5
88	88	2
96	96	5
130	130	12
139	139	8
86	86	8
31	31	3
85	125	2
20	20	5
81	81	3
115	115	6
140	140	6
34	34	8
111	116	3
19	19	2
0	23	5
81	127	3
93	97	2
32	32	1
83	84	2
126	126	14
26	26	8
119	119	11
137	138	3
124	125	4
74	74	7
6	6	6
36	37	5
120	120	5
108	108	4
81	82	4
77	77	7
128	128	9
1	1	7
110	110	8
84	87	3
101	101	5
91	91	7
73	74	1
91	110	2
95	95	1
25	25	4
132	132	5
129	129	13
35	35	10
82	84	3
83	83	1
131	131	5
5	6	4
80	92	1
120	121	12
118	119	3
122	122	6
3	3	6
94	134	1
123	123	6
27	28	1
84	120	2
109	109	3
82	82	2
33	33	5
33	34	3
101	123	2
10	11	3
114	114	5
110	114	2
82	105	1
37	37	10
98	99	1
131	133	4
110	121	6
120	122	2
137	137	4
27	27	2
89	89	1
72	72	6
138	138	8
12	12	2
0	14	7
103	104	3
0	0	2
1	10	3
83	88	3
103	103	4
104	104	2
89	117	2
113	113	4
114	115	3
134	134	3
124	124	9
21	21	4
104	105	1
7	8	4
10	12	1
135	135	5
76	77	2
85	86	2
106	106	4
99	100	1
124	126	4
28	29	2
93	93	3
11	38	1
100	100	1
128	129	4
82	83	3
117	139	2
121	123	4
78	79	2
98	98	6
84	84	1
79	79	2
71	72	2
27	32	1
97	130	1
82	119	2
4	4	1
30	103	1
30	30	3
75	75	1
74	78	1
97	123	3
14	14	6
8	8	1
133	133	4
129	130	1
118	121	2
1	4	2
97	98	2
29	29	1
116	116	4
103	105	2
118	118	2
112	119	1
72	84	1
76	76	1
127	128	1
110	111	1
2	3	3
92	92	3
25	32	2
77	78	1
101	103	3
38	38	3
11	11	1
71	82	1
79	107	2
121	122	1
105	107	2
74	75	5
100	101	1
17	19	1
72	73	2
1	13	1
105	106	1
81	84	2
108	118	6
87	87	1
86	126	2
125	127	1
21	22	2
13	13	1
16	16	3
98	105	4
89	90	3
111	111	2
1	2	1
117	121	3
17	18	1
17	17	2
110	124	2
37	38	1
2	2	1
35	36	1
78	78	1
28	32	1
20	24	1
22	136	1
105	105	1
85	126	3
99	99	2
12	13	1
121	121	1
107	107	1
101	108	1
116	117	1
