61	113	2
134	134	14
80	133	1
72	73	2
117	118	7
79	80	6
121	121	10
117	117	18
74	74	15
67	97	1
102	102	24
91	92	6
96	96	5
115	115	9
37	44	2
107	107	11
66	66	14
28	28	6
28	29	6
6	6	12
67	67	14
42	42	4
64	67	3
130	131	7
17	17	6
133	133	4
53	53	12
11	11	7
37	37	12
3	20	2
107	111	4
61	61	22
105	105	11
83	83	15
118	118	24
123	123	11
7	7	9
56	59	4
94	94	14
29	29	19
64	64	17
114	134	2
81	86	3
14	17	1
76	76	13
130	133	1
95	106	1
93	95	5
70	70	10
98	98	14
33	34	4
72	72	6
19	20	8
54	54	11
124	133	2
36	36	12
101	101	8
65	65	10
56	83	6
10	36	2
120	122	3
87	87	17
30	31	1
14	25	1
43	43	7
3	3	13
112	112	10
30	30	16
16	17	7
57	59	5
66	110	2
117	131	6
71	71	26
45	45	10
103	115	5
18	21	5
90	90	17
53	54	9
14	14	26
128	129	12
90	96	1
116	116	15
80	80	13
24	24	3
67	68	1
131	132	4
31	31	10
79	79	12
119	119	16
3	4	7
60	61	9
17	18	3
133	134	2
61	69	1
50	50	8
69	71	2
130	130	7
23	24	5
54	58	7
86	86	14
22	35	2
20	28	5
120	120	13
97	97	16
46	49	1
26	26	6
84	110	1
7	11	2
26	49	4
122	130	3
125	126	4
91	96	2
126	126	22
29	30	7
106	106	8
117	119	3
125	125	24
92	92	8
75	76	6
103	104	9
69	70	2
118	122	2
76	105	1
58	58	5
91	91	8
43	57	2
26	33	3
62	62	12
55	56	12
115	116	9
47	59	3
110	110	8
82	82	8
7	19	7
49	49	5
84	85	4
63	63	8
12	12	10
97	110	5
91	122	1
78	78	13
73	73	19
95	95	7
68	96	3
10	10	4
115	121	2
1	2	5
55	55	18
69	69	12
17	23	1
23	31	2
57	57	3
89	120	4
90	94	2
111	122	2
81	81	4
10	11	7
38	38	3
35	36	6
71	72	5
32	32	4
26	55	4
0	105	1
66	84	5
10	78	1
124	124	7
33	33	18
103	103	3
122	133	3
82	85	7
131	133	1
79	92	3
7	14	1
99	99	16
9	47	5
43	56	1
118	119	4
95	118	2
8	19	5
132	132	6
61	112	3
120	121	5
86	92	2
124	125	1
3	5	5
44	44	7
116	119	2
25	26	7
16	16	8
111	111	4
37	43	1
83	118	1
88	88	22
68	69	1
56	57	8
117	123	1
114	114	13
128	128	11
78	129	3
60	60	15
101	120	3
59	59	4
101	102	1
53	60	2
48	48	4
4	5	2
76	77	6
8	8	7
23	34	6
100	100	7
129	130	3
27	28	5
122	123	2
77	134	4
102	103	1
100	133	2
64	90	1
119	120	7
20	20	9
74	119	3
44	61	4
9	24	2
25	56	3
86	90	2
82	106	4
35	35	7
75	105	4
122	122	5
19	19	17
63	112	3
86	134	1
131	131	18
85	85	10
56	58	7
104	104	6
108	109	11
74	123	5
45	51	1
82	132	3
92	96	1
56	56	18
16	18	2
0	0	7
63	64	3
37	55	8
107	108	3
26	27	2
86	87	5
106	107	3
66	69	1
99	100	1
98	99	2
108	108	11
92	98	2
23	23	9
127	128	10
34	34	4
93	121	3
101	110	3
82	107	1
98	122	5
54	55	1
88	90	4
4	27	5
113	117	4
116	117	1
93	93	5
97	98	1
67	69	6
42	78	5
9	10	3
68	68	9
75	75	12
75	126	4
66	95	3
83	84	7
70	74	5
118	130	1
94	132	2
95	96	3
15	15	4
89	105	4
8	9	3
43	45	5
20	23	1
54	57	2
113	113	5
7	12	1
21	21	5
126	134	3
52	67	2
1	1	6
65	118	3
21	30	2
64	69	5
125	128	4
65	66	1
33	37	3
53	84	4
83	85	4
6	22	2
31	34	1
67	135	2
109	109	8
4	4	5
57	58	4
77	77	2
111	114	4
57	130	2
0	32	2
121	124	1
75	85	1
47	51	1
91	123	2
87	92	4
101	103	1
127	127	3
89	89	10
52	53	3
44	115	2
90	92	2
54	66	1
24	36	1
112	114	3
58	59	2
14	22	2
66	67	1
111	112	2
27	27	3
86	100	3
77	78	3
106	117	1
1	20	2
116	131	1
44	51	3
38	43	2
109	117	2
94	97	2
86	96	2
106	108	3
69	116	2
9	9	1
111	123	2
50	52	1
50	53	2
42	43	2
69	79	3
58	60	4
104	107	1
14	43	2
13	13	4
90	91	2
93	97	2
98	105	3
114	123	1
78	79	4
65	69	3
62	63	4
66	68	7
96	111	1
38	78	3
43	44	3
94	127	2
11	22	2
61	98	3
98	121	1
68	84	2
94	117	3
109	125	1
129	129	7
106	115	2
15	19	2
60	78	2
97	109	3
55	131	3
115	123	2
78	120	1
25	27	2
100	109	3
85	121	5
56	130	3
43	115	1
31	32	1
55	58	2
33	36	1
44	120	1
70	71	1
55	59	2
54	59	2
76	135	1
43	50	1
109	111	5
84	84	4
79	87	1
85	86	2
89	119	1
66	90	2
98	111	2
70	75	3
82	84	5
1	6	1
128	132	2
44	132	1
64	65	2
61	63	2
100	116	2
87	109	2
36	48	3
102	105	3
111	116	1
104	123	3
13	34	1
60	97	1
13	15	1
87	118	2
81	106	2
37	38	1
95	98	1
94	114	2
124	131	2
111	113	1
109	110	1
74	120	1
97	112	2
14	15	2
54	65	2
108	110	2
32	38	2
97	135	2
8	36	1
7	20	3
110	111	1
80	134	1
79	121	3
8	25	3
22	22	5
16	67	1
27	71	1
9	11	1
112	125	2
0	1	2
21	43	1
31	127	1
61	62	4
99	125	2
124	129	1
2	2	2
74	103	1
49	50	5
64	131	1
44	45	2
93	94	1
81	120	1
82	86	2
32	33	1
52	57	1
122	125	2
46	47	1
81	84	1
12	13	2
67	91	1
82	108	3
10	24	2
99	124	3
80	84	1
7	8	1
65	68	1
27	73	2
9	15	1
10	14	2
15	16	1
61	97	1
121	122	1
9	66	2
10	66	1
44	46	2
116	123	1
78	80	1
87	88	1
100	107	1
71	74	1
79	122	1
96	133	2
52	66	2
88	96	1
82	83	3
28	34	1
7	9	1
27	31	1
67	88	1
19	21	1
126	128	1
84	132	1
109	113	1
95	97	1
45	98	1
79	83	1
11	78	1
5	6	1
96	97	1
45	54	1
81	82	1
22	23	1
69	109	1
29	32	2
53	90	1
43	79	1
22	24	1
89	90	1
112	113	2
83	116	1
28	105	1
89	113	1
98	123	1
134	135	1
100	108	2
113	114	1
5	5	1
132	133	1
54	60	1
111	125	1
92	111	2
110	132	1
52	52	1
123	124	1
23	26	1
111	115	1
21	22	1
2	6	1
74	114	1
15	23	1
81	88	1
56	69	1
88	112	1
9	14	1
10	58	1
65	78	1
124	126	1
