31	31	9
173	185	3
215	216	5
1	1	6
22	23	3
245	246	3
55	55	12
242	242	11
52	55	2
244	244	17
44	44	8
90	92	2
201	201	22
184	184	14
195	195	4
181	196	2
178	178	9
165	179	2
208	208	21
68	68	11
226	226	10
217	217	8
238	238	11
33	33	5
177	177	11
178	179	1
214	215	5
20	20	6
191	191	13
5	5	9
153	153	12
94	94	11
170	170	8
93	93	11
2	2	15
147	147	2
161	161	10
107	107	11
53	54	3
99	99	3
153	159	4
29	31	4
70	89	5
34	34	3
69	69	8
174	174	7
237	238	8
242	243	5
19	78	3
205	205	7
212	212	18
58	58	13
109	178	2
48	49	4
63	106	2
167	167	18
10	10	12
39	39	13
106	106	10
35	35	9
158	179	1
66	66	8
243	244	8
43	62	3
69	87	3
109	109	20
157	157	9
79	79	7
76	106	3
64	105	2
78	106	2
219	240	3
173	173	6
72	72	12
190	190	5
186	186	10
71	71	6
79	80	5
91	91	10
4	4	10
239	239	10
47	47	4
26	26	20
240	240	19
32	32	12
171	171	18
204	206	1
98	98	16
53	53	10
54	54	7
247	247	3
171	193	6
67	111	2
68	84	3
30	39	5
183	183	9
50	87	2
18	29	1
151	151	19
60	75	3
78	79	9
40	40	10
166	167	8
64	231	2
110	114	3
9	10	7
210	210	9
12	12	14
3	3	3
176	176	6
74	74	9
68	76	3
236	236	6
147	163	1
47	48	2
69	70	7
18	19	3
160	160	8
3	38	2
245	245	22
174	195	3
44	120	1
209	209	5
100	101	5
42	42	15
181	205	4
219	219	11
55	56	9
117	117	18
225	225	14
113	114	4
101	101	14
180	182	1
160	185	1
24	24	9
164	164	5
196	196	11
82	85	4
73	73	7
11	11	7
177	192	7
46	62	2
248	248	8
227	228	4
87	87	5
162	162	13
46	46	10
62	94	2
41	41	5
246	248	2
112	112	10
187	187	3
200	200	10
233	233	8
1	17	1
205	206	2
118	118	21
197	197	11
100	100	6
27	40	1
105	170	4
158	208	1
48	61	3
161	184	8
54	56	1
108	108	15
154	154	10
187	188	8
163	164	8
43	43	5
21	62	1
189	189	15
74	94	1
4	65	3
200	201	3
153	194	1
110	110	22
223	223	12
230	230	10
75	75	7
103	103	13
103	106	2
168	168	12
166	166	23
85	85	10
199	199	13
110	202	1
177	178	2
90	91	3
175	192	5
220	220	5
153	165	1
185	185	14
75	76	5
102	102	2
231	231	9
204	204	7
28	28	11
169	169	23
146	148	1
163	163	2
181	204	3
89	91	1
104	169	1
46	52	1
112	113	1
27	27	6
78	92	5
104	105	3
64	222	2
174	184	1
29	29	11
188	188	7
82	83	6
185	188	2
111	116	10
241	241	12
180	184	2
44	45	1
18	30	2
30	30	20
202	202	7
237	237	13
160	182	4
185	186	5
67	67	6
61	61	15
52	52	3
236	237	4
236	239	4
62	62	5
14	15	1
84	86	4
161	194	2
216	220	2
198	199	6
187	189	2
37	37	3
84	84	8
200	219	1
175	175	6
81	81	8
88	88	11
23	24	3
57	60	3
246	246	5
38	38	5
156	156	19
221	221	4
38	47	1
161	202	2
45	45	8
52	53	1
194	195	4
97	97	12
3	30	2
51	51	6
31	32	4
99	102	7
71	170	2
211	211	18
115	115	8
113	113	23
165	165	22
239	240	2
110	179	7
181	181	7
99	222	3
45	90	2
179	197	2
21	21	12
25	76	1
8	113	3
82	82	4
76	76	6
207	215	1
198	198	6
119	239	5
215	217	4
57	57	10
213	213	11
41	182	2
168	179	4
162	164	5
29	43	4
96	96	1
26	27	1
187	190	2
35	198	1
116	116	8
92	93	5
221	231	4
55	57	3
12	15	1
21	58	1
212	224	3
59	59	14
71	172	1
188	191	2
168	185	1
235	235	13
6	9	3
116	151	1
77	84	3
114	114	7
115	116	1
19	66	1
169	170	9
48	54	1
96	98	3
39	64	2
228	228	5
145	227	2
80	80	9
172	173	2
84	85	6
22	22	8
154	185	3
203	204	5
179	179	13
36	52	2
152	152	5
198	200	6
193	194	3
4	14	3
5	65	3
19	19	7
25	26	5
7	7	19
75	85	2
53	66	2
88	166	1
41	43	4
175	176	4
196	210	4
146	146	3
117	159	2
63	63	3
232	232	10
153	160	1
83	83	6
57	58	3
49	49	16
64	64	8
101	102	1
95	105	1
96	111	1
117	118	10
244	245	4
214	214	14
68	102	2
21	44	4
108	233	2
51	52	3
65	68	6
80	81	1
211	242	1
203	203	12
17	17	10
243	243	3
8	8	4
238	241	4
170	171	5
78	80	1
240	246	5
180	180	8
93	94	7
190	219	4
32	230	2
161	191	1
184	204	1
116	117	1
188	189	7
166	181	3
210	211	10
113	246	2
189	190	3
200	215	3
62	95	1
155	155	8
152	160	6
95	95	7
222	223	3
180	183	4
40	41	3
89	166	1
94	96	6
1	6	2
179	180	4
222	222	6
78	78	5
145	145	3
14	14	7
65	65	7
173	174	4
38	65	6
32	240	3
224	224	4
235	238	2
172	172	11
104	170	2
89	89	7
184	209	1
58	119	2
195	197	2
226	245	1
107	108	2
182	182	10
70	93	1
72	73	5
46	50	3
234	234	4
184	208	2
28	46	5
247	248	7
3	37	1
6	6	9
207	220	2
88	92	5
228	247	2
166	193	3
197	209	3
235	236	2
110	181	1
202	226	2
37	49	3
92	92	5
100	117	3
224	225	8
198	214	1
238	247	2
45	204	1
10	24	3
100	168	3
76	77	9
75	78	3
150	150	4
174	194	5
215	215	7
206	206	8
46	113	1
232	233	2
86	86	2
23	23	3
159	190	3
114	115	2
207	208	1
192	192	8
159	167	2
3	33	1
30	237	1
233	243	4
158	166	1
158	209	1
45	203	3
46	109	4
111	241	1
27	28	2
236	238	5
99	100	3
0	1	2
88	89	3
187	192	1
221	222	5
152	194	2
96	115	1
87	88	5
85	86	2
77	117	3
212	232	1
182	183	3
36	36	7
16	16	6
70	85	1
19	67	1
171	173	1
168	211	3
66	113	1
50	50	6
50	175	2
175	193	2
46	53	3
182	212	1
193	193	7
41	58	1
158	159	6
59	65	4
2	37	1
2	4	2
95	96	5
5	18	2
105	105	3
207	207	4
220	235	2
153	154	1
70	70	3
160	161	2
79	104	2
99	107	2
35	199	1
167	168	3
206	207	3
49	50	4
39	65	1
178	196	3
189	192	5
18	18	7
52	68	1
218	218	9
47	51	2
112	114	1
91	92	3
91	104	1
229	229	5
116	119	1
159	164	3
109	176	1
3	34	2
120	120	4
88	171	3
226	227	3
189	191	2
162	174	3
18	79	2
39	49	3
70	71	2
39	87	2
2	20	2
11	12	2
157	163	1
218	219	1
156	212	2
77	77	2
82	90	1
65	95	1
22	40	2
241	242	2
95	97	3
146	147	3
5	17	1
240	241	5
14	49	1
46	47	1
68	69	1
19	37	1
120	145	1
102	103	2
56	120	5
15	15	3
110	221	2
164	201	2
47	176	1
62	63	5
67	78	4
199	200	3
172	175	2
111	120	1
67	68	2
7	8	2
38	87	4
175	177	4
14	34	1
216	217	3
233	234	1
39	76	2
238	239	2
178	193	2
232	244	1
118	119	8
203	226	3
231	234	2
69	101	1
47	84	1
169	174	2
106	118	1
175	178	2
153	190	1
223	225	1
113	245	1
197	198	3
61	63	1
192	209	2
190	214	1
60	60	5
2	219	1
176	205	1
96	103	2
82	84	1
216	239	1
41	42	1
111	153	2
152	161	5
189	212	2
195	196	4
16	76	1
186	192	5
213	214	2
74	75	3
48	51	3
52	117	2
119	152	2
4	37	1
161	162	2
29	65	1
223	224	1
64	107	2
77	109	2
92	105	1
55	182	1
9	9	3
173	183	1
28	44	1
33	47	1
207	222	1
111	244	2
6	8	2
229	240	1
89	108	2
60	95	2
36	54	1
35	54	1
119	119	2
58	182	1
56	56	11
83	86	1
74	96	1
105	106	1
175	181	1
183	209	1
97	98	2
242	247	1
157	159	1
49	86	3
197	213	1
149	149	2
227	227	1
180	196	1
47	60	2
73	92	3
174	181	4
75	107	1
4	5	4
165	193	1
110	111	1
47	109	1
53	56	1
151	158	1
111	111	3
211	212	3
221	230	1
53	81	2
205	230	1
90	90	7
20	21	2
59	88	2
9	32	2
153	205	1
159	159	3
186	187	4
77	78	1
153	156	2
112	241	1
38	39	4
157	164	1
183	184	2
62	64	1
11	34	1
106	107	1
224	226	1
48	48	4
57	120	2
190	212	1
218	220	1
83	84	1
188	197	1
37	78	1
7	9	2
63	64	4
102	104	1
152	181	1
103	104	3
12	18	2
17	40	1
96	116	2
239	241	2
218	230	1
60	61	2
150	221	1
229	230	1
96	105	2
16	17	1
37	39	1
46	86	1
179	202	2
113	115	2
182	211	1
86	112	1
36	39	1
204	205	2
20	42	1
14	18	1
195	210	1
50	86	1
47	85	2
240	247	1
228	246	1
64	65	1
98	110	1
202	227	2
225	226	1
53	55	1
43	93	1
79	83	2
102	118	1
20	63	3
242	244	3
34	37	1
228	229	1
72	75	1
158	158	1
68	106	3
62	68	1
232	242	1
35	178	1
157	212	1
43	58	1
90	240	1
12	38	1
39	40	1
165	188	1
208	232	1
219	239	1
111	113	1
237	239	1
22	24	1
178	184	2
17	30	1
67	94	3
197	212	1
111	112	1
166	168	1
167	195	1
179	209	1
78	102	1
17	79	1
22	25	1
160	180	1
104	104	3
162	163	1
114	120	1
6	7	1
62	112	2
6	10	1
220	230	1
25	47	1
61	112	1
25	25	1
66	67	1
152	153	1
88	90	1
220	236	1
65	237	1
147	168	1
69	102	1
54	55	2
113	243	1
73	74	1
40	42	1
59	66	1
144	207	1
174	176	1
83	90	2
94	117	1
190	191	1
104	231	1
66	98	1
76	92	1
52	54	1
