72	72	11
58	58	16
35	36	2
36	36	9
40	40	25
67	67	9
65	65	18
55	57	1
26	38	2
70	71	12
89	89	13
42	42	33
49	50	17
42	76	2
72	73	17
60	62	9
25	27	2
63	63	29
95	95	14
66	66	7
41	41	31
48	92	6
81	81	31
29	29	11
86	89	6
68	68	15
70	70	23
96	96	16
45	45	12
33	33	25
50	50	19
69	70	5
44	44	26
60	61	17
60	60	17
55	56	10
92	93	10
99	99	21
65	66	13
49	49	14
64	64	22
33	34	1
35	35	9
47	48	10
93	100	1
74	74	9
92	96	10
57	57	15
53	87	4
40	41	7
61	61	25
94	94	9
90	90	13
53	53	23
71	71	18
82	82	8
62	62	20
92	92	9
69	69	12
77	77	15
93	94	3
84	88	3
51	51	16
73	73	28
65	75	4
24	26	11
38	38	15
48	49	11
71	93	2
89	99	1
92	94	7
31	31	6
48	48	31
43	43	21
27	47	6
25	25	5
37	37	9
76	76	10
87	88	17
94	100	2
80	81	9
71	73	5
102	102	3
30	31	1
85	86	13
78	79	4
23	30	4
76	77	6
35	37	5
98	98	10
88	88	13
73	74	6
47	47	17
26	27	4
52	52	8
86	99	2
51	85	3
46	46	22
95	97	13
72	74	6
100	100	13
46	47	7
79	79	15
84	84	11
59	80	1
78	78	17
56	56	17
24	25	3
100	101	5
34	34	13
24	27	5
97	98	9
26	79	9
65	67	2
71	72	5
75	75	25
101	101	12
91	92	3
92	95	6
59	85	6
94	97	3
55	88	2
68	69	10
96	97	14
34	35	6
97	97	16
85	85	15
54	54	10
85	89	4
46	48	3
55	55	8
86	86	17
39	40	10
37	38	2
57	58	7
43	50	1
52	53	6
44	45	4
63	64	7
54	55	7
80	88	2
44	50	4
47	51	2
56	58	6
80	80	11
45	49	5
83	83	13
58	59	12
91	98	7
59	59	18
96	99	2
61	93	3
26	26	4
43	75	2
67	68	8
25	54	1
51	52	6
41	42	6
23	23	2
84	86	2
21	27	1
101	102	3
22	22	5
56	57	8
46	49	2
42	43	5
90	91	2
45	46	4
62	63	5
50	51	6
66	67	6
91	91	10
90	93	1
95	100	1
36	37	8
90	99	2
39	39	6
29	30	1
28	32	1
77	78	7
61	62	3
46	92	1
89	100	4
64	76	1
43	44	4
87	94	2
40	75	1
67	70	2
24	94	1
30	32	3
53	88	1
38	39	4
64	65	5
87	87	6
73	76	1
64	77	3
93	93	16
42	65	1
81	82	5
28	28	5
89	93	2
36	38	4
48	76	1
53	54	1
69	71	3
53	56	1
99	102	1
81	87	1
47	76	1
74	75	7
59	79	3
58	77	5
83	84	5
80	100	2
35	38	1
43	51	1
79	81	3
48	94	2
45	48	3
81	83	3
25	26	5
63	65	1
80	99	1
59	60	1
100	102	6
94	95	3
58	70	2
30	99	2
36	102	3
88	89	3
48	51	2
58	69	1
56	59	2
54	88	1
55	61	1
48	91	2
40	42	1
77	79	3
92	97	1
98	99	1
93	101	1
34	36	2
57	69	2
80	83	1
84	87	1
46	95	1
43	77	2
27	78	1
95	96	4
67	80	1
44	72	1
60	63	1
61	92	2
37	102	1
68	77	1
47	91	1
86	88	2
58	85	1
99	100	3
42	44	1
84	85	1
84	92	2
20	20	1
47	52	1
24	54	1
89	90	1
95	98	1
35	40	2
94	96	1
86	87	1
77	90	1
62	92	1
