34	35	2
76	76	5
102	102	11
106	106	9
136	136	8
108	109	7
137	137	13
132	132	11
5	5	13
6	6	8
127	127	15
110	110	6
106	117	3
30	77	2
73	100	3
129	129	19
72	72	7
9	23	2
128	129	9
18	18	8
140	140	11
117	117	5
122	122	15
7	7	8
2	4	3
131	131	27
81	81	5
121	123	2
14	18	1
113	113	7
73	73	8
107	112	2
112	112	5
15	15	7
75	76	3
130	130	14
126	131	4
73	78	14
32	32	7
32	37	4
103	103	4
125	129	4
72	73	4
78	78	10
139	139	8
130	131	3
37	37	4
80	81	6
93	93	9
92	94	5
96	96	11
114	116	2
95	95	1
102	116	2
138	138	9
121	122	9
89	89	14
101	101	12
34	34	10
128	128	21
120	121	7
79	79	3
17	18	7
33	35	3
137	138	2
107	110	1
98	99	2
27	27	6
124	124	11
31	32	4
84	84	4
30	30	4
99	132	2
126	127	12
106	107	7
0	2	4
79	82	1
126	126	21
111	111	6
74	74	7
22	23	8
82	83	6
97	99	2
2	2	3
13	13	4
134	134	12
123	123	17
75	75	6
103	106	3
27	31	1
123	124	3
91	91	11
22	22	9
124	127	5
7	8	2
8	8	4
104	105	3
92	92	3
139	140	1
38	38	6
36	36	8
102	117	2
129	130	2
109	109	11
11	11	2
90	90	8
33	33	7
83	83	3
28	29	5
27	34	1
133	136	1
129	132	5
13	14	4
18	19	1
20	20	11
82	82	4
19	20	2
95	96	3
98	98	7
97	98	1
93	113	1
119	123	2
125	126	6
131	133	1
10	11	6
116	116	10
18	27	2
131	132	1
19	21	1
133	133	5
76	77	4
75	78	2
120	120	6
124	125	1
81	84	1
88	88	1
14	16	1
104	108	2
114	114	4
110	111	3
81	82	2
119	122	1
138	139	4
17	17	2
29	29	2
86	86	3
1	8	2
121	121	3
3	3	2
4	4	6
125	125	5
133	134	3
104	104	3
22	130	2
25	25	3
31	31	2
103	116	1
9	24	1
1	1	5
100	100	6
1	3	4
71	71	5
16	16	3
100	101	4
136	138	3
76	79	2
132	138	2
105	106	2
77	77	2
12	12	1
134	135	2
85	87	2
114	123	4
97	126	1
135	135	4
133	139	3
4	37	1
4	22	2
95	128	1
107	108	1
0	0	1
89	90	2
132	133	1
14	14	2
19	19	4
106	116	1
99	99	5
118	118	3
130	132	1
127	129	1
129	140	2
93	94	2
26	27	4
68	71	3
117	124	1
113	138	1
97	97	3
115	115	2
25	26	1
101	126	1
1	2	1
0	1	1
5	6	2
87	87	8
4	5	3
28	28	1
28	31	2
104	107	2
24	24	2
78	79	1
130	140	1
9	9	1
117	118	1
80	80	2
10	10	1
14	23	3
89	93	1
107	107	5
130	139	1
96	98	1
107	109	1
77	81	1
117	128	1
74	75	2
17	19	2
11	23	2
107	115	1
94	112	1
99	124	1
25	38	1
30	32	2
27	32	1
3	4	2
33	34	1
92	100	1
15	124	1
11	129	4
99	100	2
134	139	1
101	139	1
114	139	1
21	21	2
80	82	2
18	21	1
126	132	1
16	34	2
90	91	1
114	115	1
29	73	1
32	136	1
35	35	1
15	118	1
17	31	1
110	114	1
36	37	1
100	126	1
117	119	1
77	78	1
33	36	2
121	129	1
18	118	1
120	122	1
103	110	1
0	4	1
115	118	1
