77	77	8
119	120	1
135	135	4
175	175	3
123	190	4
183	183	4
47	48	2
119	183	1
149	155	4
48	48	5
141	141	1
121	121	3
109	109	10
116	116	3
38	38	7
157	157	5
163	164	4
6	6	3
80	81	1
58	105	1
106	108	1
13	25	2
170	173	2
12	12	2
62	62	6
145	145	2
70	70	2
105	108	7
137	137	9
37	38	3
63	63	11
130	134	2
111	111	12
33	35	2
57	57	3
125	126	2
70	72	3
177	177	5
21	21	8
66	67	3
55	55	5
127	127	1
136	136	3
56	56	9
89	89	6
73	73	7
11	11	3
69	74	1
44	44	3
155	156	1
106	106	4
86	113	6
137	152	1
17	17	3
156	156	13
169	169	3
35	46	1
25	25	4
18	18	7
53	58	8
140	140	6
108	108	3
10	10	7
133	133	5
17	22	1
154	162	3
84	84	12
173	174	1
121	122	1
90	90	3
139	139	7
26	26	2
151	170	6
190	190	1
27	29	4
57	110	3
42	87	1
138	138	2
87	88	2
126	126	2
158	158	3
61	61	4
34	34	2
152	152	5
82	83	4
129	134	2
43	43	1
36	36	3
57	107	2
7	8	5
149	150	2
97	97	5
182	182	7
112	131	1
85	85	1
21	26	6
181	181	4
137	139	2
95	95	6
170	170	1
94	99	5
148	148	2
61	62	2
79	79	1
140	141	2
153	154	1
123	123	1
143	143	1
25	26	1
76	76	4
187	187	8
77	78	2
67	67	3
21	27	1
75	75	2
150	155	4
138	140	2
32	59	2
154	154	3
32	32	4
53	62	4
101	101	2
158	165	1
21	22	1
4	6	5
155	163	1
129	129	7
6	17	2
102	102	3
124	124	2
179	182	1
104	104	9
81	81	2
33	34	2
60	65	1
0	0	3
93	93	2
119	119	5
186	186	5
171	171	1
19	21	3
33	33	2
25	27	3
10	14	3
34	80	1
34	35	2
166	166	3
27	27	5
158	159	1
119	142	2
159	159	8
101	104	2
90	91	1
42	56	1
98	98	5
176	190	3
30	31	1
122	123	1
125	125	2
163	163	4
16	16	4
150	156	1
99	130	3
94	94	4
54	54	2
23	23	5
120	178	2
20	20	3
40	40	3
59	100	2
141	148	1
150	168	1
41	41	3
17	29	1
157	159	2
99	112	2
4	5	2
150	151	2
99	122	1
144	146	2
57	58	3
92	92	3
120	120	1
93	102	3
2	2	3
68	101	1
91	95	4
43	86	1
18	30	2
18	27	2
36	37	4
53	53	4
52	65	1
122	122	5
47	47	4
161	161	2
149	151	1
6	7	5
142	148	3
41	57	1
178	178	1
74	74	3
66	66	2
95	98	3
147	147	5
87	87	3
73	74	2
0	1	2
58	59	1
68	68	3
153	153	1
100	100	4
56	59	2
104	105	2
159	160	2
83	83	1
157	176	2
176	176	5
110	111	2
39	39	2
117	151	1
114	114	2
131	131	2
27	30	4
151	152	1
1	1	4
37	79	1
7	7	1
101	102	1
45	45	2
162	162	1
164	165	1
88	102	1
144	144	1
78	79	1
60	60	2
3	3	1
45	46	5
8	8	2
71	71	4
136	137	1
124	125	1
168	172	2
31	33	3
82	82	3
13	13	3
107	107	3
115	115	1
10	12	1
118	119	3
134	134	2
178	181	2
155	155	1
4	4	1
157	162	2
20	24	1
147	148	1
19	23	2
185	187	1
158	161	2
37	37	2
29	29	2
168	168	1
184	184	1
180	181	3
161	162	1
156	161	1
136	150	1
115	143	1
55	64	1
13	14	1
68	71	3
91	101	1
105	105	1
86	88	1
72	94	1
146	152	1
112	112	2
172	174	1
67	68	1
115	116	1
161	165	1
93	94	3
59	65	1
55	57	1
64	92	1
103	127	1
46	46	2
78	78	1
128	129	1
42	43	1
15	15	1
67	107	1
13	37	1
89	90	1
90	107	1
64	102	1
110	114	1
100	133	3
66	94	1
19	20	1
113	135	1
146	146	1
84	85	1
65	65	1
21	24	2
176	180	1
34	37	1
114	143	1
12	46	1
19	19	1
