108	108	7
122	122	10
1	1	7
19	19	1
112	123	1
27	27	9
120	120	16
76	76	12
114	114	6
83	83	6
49	49	3
97	97	7
111	111	10
95	111	2
78	78	15
92	124	4
77	77	12
64	64	5
105	105	10
23	23	3
20	20	4
116	116	8
86	86	17
115	115	6
80	80	15
22	22	11
102	102	7
52	57	6
123	124	2
32	32	3
98	98	6
102	103	1
134	134	8
89	89	7
123	131	4
33	134	2
31	31	3
130	131	5
129	130	3
118	118	12
56	56	14
106	106	10
38	38	6
35	35	10
53	62	2
91	91	8
107	107	12
30	30	7
111	125	2
65	65	13
105	126	2
67	68	6
76	99	3
123	123	8
37	130	3
119	119	13
71	71	8
73	74	8
108	109	6
10	10	6
57	57	9
99	99	18
112	132	2
7	7	2
76	90	3
84	84	11
16	17	2
64	65	6
52	70	3
36	36	7
82	82	14
95	97	1
54	55	6
69	69	4
90	99	2
77	79	2
61	61	10
25	25	6
85	85	14
57	59	1
111	129	2
70	70	6
5	5	5
125	126	2
45	45	10
132	132	11
119	120	14
28	30	3
67	80	1
127	128	6
24	24	13
9	9	5
18	30	3
100	101	2
45	55	3
109	109	6
79	79	15
111	127	2
62	62	6
99	101	3
54	54	6
82	83	6
117	117	6
53	53	2
95	132	3
96	101	3
52	52	4
103	103	3
122	131	3
30	31	3
59	99	1
22	26	4
126	129	1
90	91	4
86	110	1
21	21	8
44	45	2
33	33	8
82	129	2
113	123	6
68	68	7
26	26	7
85	131	1
46	46	5
119	135	5
17	18	2
95	96	8
122	133	2
66	66	5
73	93	2
107	110	3
14	14	4
69	70	2
110	110	12
67	69	1
132	135	8
78	92	1
107	123	1
100	100	10
60	69	2
79	80	5
14	31	4
129	129	10
72	72	5
37	37	3
54	111	1
117	123	3
133	133	3
15	16	4
133	135	1
50	50	6
60	60	6
35	37	2
8	91	3
117	131	2
87	87	12
127	127	10
54	56	3
128	128	9
110	111	8
111	124	1
82	111	3
5	8	2
130	130	11
16	16	11
88	90	3
2	2	7
118	122	1
108	111	2
58	58	6
43	69	6
113	125	6
74	74	9
44	44	13
81	81	2
96	96	7
109	111	5
73	101	1
23	24	3
91	98	3
9	10	1
72	73	5
64	78	3
55	55	5
75	75	6
125	129	5
132	133	8
13	76	1
116	118	1
43	93	1
118	120	2
13	13	6
82	84	2
81	84	1
69	78	1
28	28	3
83	112	1
63	63	7
65	81	2
65	68	2
98	124	2
78	82	2
92	92	6
121	121	7
72	95	1
86	89	3
112	112	11
17	17	15
4	4	6
6	8	1
106	107	2
13	27	1
71	96	1
60	61	6
12	12	4
96	97	3
85	91	3
63	74	6
61	79	2
82	86	1
15	15	5
4	7	4
37	38	3
115	124	1
73	73	2
99	100	2
94	94	10
122	130	2
80	81	8
11	58	1
77	78	3
119	132	2
12	71	3
98	99	7
104	104	11
122	126	1
43	43	11
72	101	3
122	123	7
46	100	3
6	7	3
48	48	2
35	36	1
113	113	12
87	109	2
63	77	2
112	114	3
75	76	1
95	95	5
59	115	3
64	66	1
89	92	2
111	135	3
34	34	6
3	4	4
125	125	2
47	72	1
83	86	2
97	106	1
14	16	2
97	100	2
47	47	4
38	54	1
0	0	5
77	81	1
49	50	2
133	134	1
82	87	1
106	108	1
52	53	3
22	103	2
95	118	3
124	124	3
115	132	2
93	101	2
55	68	1
16	18	2
25	71	3
75	85	3
63	64	3
81	130	1
20	23	1
62	89	1
12	13	4
74	75	1
56	112	3
6	6	1
79	82	1
126	133	3
84	89	1
57	58	2
107	109	1
66	69	3
12	105	1
29	29	5
117	118	2
56	57	4
55	56	3
58	101	3
42	124	2
117	121	1
131	131	1
109	129	1
18	21	3
33	34	5
62	63	4
43	94	1
121	122	1
92	93	1
31	32	2
126	126	3
62	77	1
11	15	1
60	83	3
97	124	2
32	120	1
125	128	3
59	59	3
1	2	5
86	87	2
89	99	3
97	107	2
107	111	2
55	125	1
112	134	1
98	128	1
8	8	6
91	100	1
13	72	2
63	65	1
56	58	2
105	134	1
101	101	5
53	119	3
44	50	1
116	126	3
104	105	2
88	88	3
111	112	2
68	69	1
0	1	3
52	54	1
7	8	2
38	113	1
25	26	3
94	105	1
22	23	1
112	115	1
94	95	1
18	18	2
106	131	1
5	7	2
53	55	3
83	88	1
84	85	1
61	62	3
58	59	1
67	67	3
124	125	2
64	69	1
129	131	2
113	131	1
4	5	1
82	92	2
120	121	1
72	78	1
96	106	1
0	3	2
1	3	2
50	51	1
8	9	2
100	116	1
97	99	2
108	110	1
6	65	1
69	84	2
87	95	1
49	57	1
43	107	1
90	90	1
83	106	1
24	25	1
36	37	1
93	93	1
54	110	1
64	77	1
98	135	1
113	114	1
27	30	1
55	66	1
