22	42	2
117	117	6
12	12	10
167	167	5
151	151	3
123	125	3
143	143	9
6	7	5
31	31	11
72	103	1
71	71	1
163	166	3
98	98	6
86	86	1
90	90	6
29	29	11
157	157	8
128	128	5
89	89	5
76	76	4
43	67	2
13	13	11
82	113	2
88	88	8
133	133	7
65	65	3
26	26	6
33	33	11
137	137	7
22	30	8
38	38	7
24	26	6
104	104	2
71	120	3
3	4	4
1	1	18
46	46	1
41	41	9
82	99	4
40	41	3
55	56	4
110	110	11
81	85	2
165	166	3
36	38	1
172	172	5
1	32	4
9	9	3
61	62	2
16	17	8
50	50	7
30	31	7
6	6	9
9	10	11
35	35	9
152	158	5
102	102	8
90	142	5
128	174	1
146	146	5
75	75	2
62	63	1
81	82	3
6	10	5
55	55	5
5	6	7
127	127	4
62	62	4
144	145	2
130	131	2
10	10	9
132	133	1
53	54	1
59	81	1
116	119	5
45	45	3
18	21	2
139	179	3
115	146	3
79	79	3
8	8	9
129	129	8
34	34	3
35	67	6
175	175	4
154	154	6
121	121	4
63	63	3
165	165	4
49	57	1
29	30	3
109	109	7
57	57	3
142	149	1
54	56	4
40	40	7
2	2	1
24	24	10
141	141	7
169	169	3
180	180	4
144	144	4
18	18	6
56	56	1
108	109	5
113	115	1
145	145	5
148	148	1
7	10	2
102	103	2
10	12	2
100	100	3
158	159	2
84	84	1
99	102	2
123	153	2
125	125	5
5	7	4
120	121	4
176	176	6
159	159	4
136	136	4
149	149	3
73	78	2
118	143	4
101	101	7
162	170	1
2	8	2
10	13	4
131	131	4
14	14	6
4	4	11
66	67	6
130	147	1
39	40	11
67	72	2
81	81	6
147	147	2
163	163	4
8	9	10
26	28	6
2	9	3
25	26	2
173	174	5
99	99	4
11	12	4
8	45	5
142	142	6
92	93	1
174	174	3
85	86	1
135	136	1
87	88	1
9	11	7
139	139	3
142	148	1
8	22	5
59	60	1
109	110	4
138	142	6
157	158	4
107	107	4
91	91	1
98	99	1
162	162	3
78	79	3
53	53	3
17	132	2
19	19	3
2	3	4
119	121	3
19	20	1
22	22	1
73	73	3
0	0	7
83	83	6
143	144	2
80	80	11
4	7	2
16	16	5
138	138	2
67	67	6
29	31	2
136	157	1
111	112	1
7	7	6
73	74	6
74	74	2
81	118	2
5	16	4
96	98	3
116	116	2
166	167	1
32	33	1
173	173	2
82	82	5
17	32	2
92	92	4
84	85	1
52	52	9
44	44	3
104	105	1
42	42	1
130	173	5
91	105	2
105	105	5
140	140	5
161	161	7
25	25	4
134	138	3
126	126	2
60	76	4
12	13	1
77	77	3
95	96	4
91	93	1
143	148	1
22	33	2
7	22	1
67	71	2
153	154	3
2	7	3
170	170	2
165	167	2
56	74	1
50	51	2
154	157	1
114	119	1
28	28	1
5	5	2
118	119	2
80	81	3
153	153	2
13	15	1
148	149	2
114	114	2
152	160	1
61	86	2
25	27	4
102	106	2
171	172	2
122	153	1
142	143	3
163	167	2
20	21	2
7	9	5
146	154	1
37	37	4
158	158	2
28	31	1
151	169	1
99	100	3
1	17	1
21	21	1
64	64	1
115	115	1
158	168	1
150	150	1
113	113	2
32	32	1
15	15	1
39	39	1
100	101	1
21	22	2
119	119	2
168	169	3
1	6	3
135	135	2
87	87	2
115	117	1
93	93	1
44	64	1
122	154	2
101	102	1
116	130	2
129	157	1
112	112	4
118	118	1
46	68	1
45	46	1
2	5	1
114	120	2
31	42	1
86	87	1
179	180	1
82	127	1
15	16	2
3	3	4
115	116	1
155	156	1
66	66	1
33	35	1
52	59	1
37	38	1
94	94	2
166	166	3
116	117	2
20	22	1
86	88	1
14	15	2
85	85	1
44	51	2
4	9	1
134	176	1
25	31	1
63	64	1
22	23	2
122	122	1
96	96	2
130	130	2
120	120	1
72	72	1
161	162	2
68	68	1
8	15	1
11	11	3
160	161	2
155	155	1
13	16	1
30	30	1
150	151	1
174	177	1
60	60	1
161	171	1
110	111	1
151	152	1
81	102	1
126	153	1
36	36	1
28	29	1
82	83	1
131	148	1
