20	23	2
110	110	10
12	12	12
103	104	9
47	47	18
49	56	3
21	21	12
121	122	7
94	94	13
10	15	4
161	161	8
77	85	7
143	143	15
39	40	7
11	11	11
148	149	2
57	57	7
27	27	17
151	151	10
7	26	2
53	53	22
83	83	14
65	67	1
71	71	20
101	101	16
91	91	9
7	7	17
16	16	8
74	74	17
34	34	26
4	4	12
109	110	6
112	114	4
86	88	2
131	132	2
102	103	8
75	76	1
107	107	11
10	14	5
143	144	8
114	114	19
18	19	8
42	43	2
20	55	2
97	124	5
124	124	4
8	8	9
108	108	20
139	152	3
146	163	3
167	167	6
100	101	1
84	84	17
167	168	5
5	5	4
14	14	10
84	85	4
91	139	7
128	129	13
118	118	4
85	85	11
69	72	3
72	73	11
82	90	6
90	90	16
134	134	13
114	115	2
146	146	11
137	137	10
10	10	20
55	55	9
136	143	3
55	56	13
44	50	7
144	144	7
83	84	13
90	139	4
94	98	6
56	58	1
90	91	4
115	115	11
165	167	3
72	72	15
27	37	1
37	37	18
24	24	8
150	154	5
89	89	15
71	72	11
106	106	13
52	52	20
140	140	11
154	154	12
45	45	12
99	114	4
131	131	10
73	97	2
105	105	8
96	96	19
162	162	7
39	39	7
74	76	4
113	115	3
22	23	7
84	130	1
94	95	1
166	166	18
132	132	11
82	82	12
3	3	16
163	169	5
148	152	4
133	134	4
160	160	12
169	169	7
18	18	22
126	127	8
140	141	12
0	0	9
65	116	4
23	23	16
121	121	9
97	100	2
135	135	4
13	13	23
137	150	2
142	142	7
109	109	21
69	82	4
40	51	8
137	152	3
57	63	4
144	150	1
2	2	17
40	40	6
49	49	18
81	81	17
11	13	1
41	41	13
50	51	7
164	164	7
3	27	3
159	159	2
33	33	8
97	97	11
92	93	5
147	148	2
119	120	5
1	1	16
8	13	4
150	152	5
10	11	3
57	58	3
44	44	13
152	153	7
36	37	1
17	17	5
68	72	3
118	119	1
130	130	6
16	18	5
161	163	2
8	12	7
52	107	3
112	112	9
92	92	14
86	87	2
56	57	3
104	121	3
74	79	1
36	36	5
66	67	1
19	22	3
133	133	10
129	130	3
153	153	11
50	85	4
3	111	1
24	85	2
154	155	11
77	77	9
152	152	12
76	76	10
67	100	1
100	125	2
115	116	1
134	137	3
100	100	14
79	132	1
101	116	1
94	141	3
67	68	4
165	166	6
136	136	17
149	158	3
132	140	4
79	82	7
78	78	6
41	43	2
99	166	3
148	155	3
93	140	2
111	116	2
141	141	1
46	46	8
135	136	6
93	93	11
6	6	13
36	128	2
150	151	3
15	15	15
101	102	4
113	113	6
135	150	2
21	23	8
157	158	4
123	123	4
111	127	2
75	75	13
17	40	4
20	21	10
87	88	3
127	129	7
145	145	3
65	66	2
4	38	8
86	86	11
101	104	6
141	145	1
57	62	4
43	43	17
51	56	7
0	1	5
120	120	5
113	127	3
19	19	6
138	138	8
139	139	14
35	35	13
56	56	13
64	64	6
155	155	3
58	58	4
119	119	4
48	49	3
104	104	7
93	94	2
62	62	3
148	148	9
68	69	3
39	47	3
98	98	15
54	54	4
76	95	3
65	65	6
88	89	4
161	162	1
99	99	4
86	89	5
97	164	3
96	124	2
61	63	3
69	81	4
38	38	12
132	133	4
108	109	3
146	164	2
77	78	3
3	4	5
44	51	3
57	91	6
54	55	5
96	99	9
26	26	6
168	168	5
129	129	4
51	57	1
111	112	6
48	48	5
79	79	11
21	22	3
78	145	2
76	77	2
51	84	5
10	25	3
9	9	8
50	50	7
14	15	6
39	50	1
117	118	3
170	170	3
80	80	15
68	68	9
76	94	1
107	109	2
12	16	7
104	105	3
133	137	4
23	50	2
158	158	5
22	22	8
11	12	7
5	33	1
51	51	3
146	148	5
131	134	3
101	103	3
39	41	3
62	69	2
82	109	1
166	167	2
63	70	3
23	56	3
163	164	1
106	126	3
61	61	1
46	49	2
106	127	3
74	75	3
156	156	3
168	169	1
165	165	2
49	54	1
91	92	3
103	103	4
45	46	7
22	67	1
8	14	3
21	55	1
149	149	5
125	125	6
34	35	2
117	117	9
36	42	2
81	90	2
64	100	1
47	49	4
83	88	1
28	37	2
142	144	2
43	44	2
62	64	1
147	147	9
49	58	1
25	25	6
139	140	2
111	126	1
16	38	2
97	98	2
146	151	1
104	130	4
167	169	3
75	79	1
107	108	1
78	79	2
27	36	2
105	129	3
49	50	3
37	38	2
109	111	1
95	95	5
53	111	4
6	7	6
40	41	3
153	154	1
102	104	1
70	70	11
88	88	2
79	159	1
20	20	6
142	143	3
161	164	1
104	122	4
126	126	4
64	86	1
66	66	7
150	150	4
116	118	1
73	96	7
5	108	1
91	94	1
98	124	1
64	67	3
53	55	2
58	71	1
157	157	5
16	19	2
132	135	2
134	135	1
6	27	1
137	139	2
113	126	1
37	40	1
73	73	5
13	15	3
86	136	3
1	75	1
111	111	9
18	24	1
9	10	3
3	5	4
16	20	1
50	52	1
47	48	1
8	16	2
25	106	1
101	105	2
84	96	1
99	164	1
100	114	3
83	90	1
42	42	4
35	36	3
163	163	2
1	2	1
162	163	2
20	85	1
155	156	1
85	146	1
110	111	2
122	122	3
94	97	2
70	71	1
141	142	1
69	69	3
161	167	2
95	98	1
80	82	1
137	148	1
124	125	1
153	157	3
5	38	1
69	70	1
70	80	1
63	64	1
57	89	1
69	71	1
7	8	1
16	105	1
92	141	3
53	54	1
67	103	1
113	114	2
24	25	3
50	57	3
6	34	2
72	74	1
87	89	1
96	97	2
55	114	1
85	86	2
67	67	1
128	128	4
62	63	1
7	25	1
151	154	1
138	139	1
76	82	1
11	42	1
64	99	1
83	87	2
63	68	1
24	53	1
106	107	1
22	55	1
144	151	2
63	63	2
135	137	1
74	131	2
12	13	1
122	123	1
68	96	1
46	47	1
51	85	1
16	17	1
96	159	1
73	84	1
17	18	1
135	143	1
76	91	1
7	10	1
87	87	2
53	109	1
22	66	1
61	62	1
124	159	1
73	89	1
103	114	1
20	22	1
41	46	1
95	130	1
165	169	1
1	37	1
