178	178	8
31	31	11
143	145	4
170	170	11
131	131	4
161	162	1
162	162	1
107	138	1
124	124	8
38	38	8
126	126	4
116	155	1
45	45	13
96	140	2
85	86	2
71	71	4
17	17	16
29	29	8
84	86	2
19	42	8
63	63	4
111	111	7
106	107	2
148	148	3
28	31	2
60	61	3
27	27	12
8	20	1
72	156	5
121	121	7
2	45	3
91	91	5
18	43	3
78	78	5
141	142	1
177	178	2
100	100	10
110	110	3
2	66	2
153	170	4
33	33	11
12	13	6
19	30	2
118	118	3
127	166	5
13	37	1
85	113	5
11	13	2
132	132	7
108	108	6
19	21	1
116	116	4
32	32	6
152	164	3
116	117	4
77	77	2
37	108	3
127	167	2
150	150	5
3	135	2
20	41	2
65	65	7
27	28	2
27	29	4
67	67	3
111	114	1
37	38	5
80	81	2
73	151	4
166	166	9
135	136	2
3	3	3
156	166	4
13	13	12
140	140	8
25	25	12
87	88	6
17	21	1
169	169	12
22	41	1
15	20	3
78	114	1
74	80	4
87	114	3
7	8	3
43	43	11
83	83	5
74	74	8
76	80	2
160	160	7
163	163	13
163	165	3
44	44	5
11	11	16
36	36	5
167	169	2
7	7	6
157	157	5
128	129	3
106	106	1
76	78	3
16	31	2
123	124	2
73	88	2
93	93	14
50	65	3
21	21	6
15	15	7
83	84	4
25	26	3
1	4	4
11	14	3
89	89	7
99	100	8
5	113	3
92	93	3
83	85	1
23	23	11
18	18	4
66	174	1
115	115	4
2	3	3
112	113	1
98	98	4
39	39	4
93	123	4
94	94	1
11	12	15
146	147	3
171	171	9
96	110	4
135	135	6
14	14	10
153	153	6
62	63	4
91	93	2
55	55	2
58	58	9
113	114	5
134	135	4
95	120	2
34	44	1
136	136	7
49	56	3
37	37	10
73	73	4
2	4	5
32	37	2
7	9	5
8	8	2
101	143	3
107	108	3
101	156	1
144	145	1
18	42	4
86	87	1
155	158	5
26	77	1
53	53	6
73	74	3
26	26	5
79	79	4
109	109	3
2	5	2
14	16	2
99	99	1
152	152	4
39	107	2
85	85	3
13	15	1
114	114	1
38	105	3
162	165	2
170	174	6
138	138	6
150	151	1
83	97	5
2	7	3
122	122	6
61	61	9
28	28	4
81	81	6
91	96	1
31	32	1
160	161	2
104	104	7
62	65	1
143	143	5
0	0	7
156	156	4
42	42	3
142	142	9
4	153	1
118	122	2
54	55	3
57	64	1
87	87	4
110	111	6
113	113	3
168	168	9
14	24	5
104	110	3
34	34	4
159	159	2
63	64	2
75	75	6
137	137	1
80	80	4
12	31	2
153	174	1
130	157	3
180	180	1
101	140	2
2	2	2
22	23	3
29	79	1
165	177	2
117	117	3
59	62	1
6	6	15
107	107	6
30	30	9
115	116	5
10	10	3
158	158	5
46	46	2
17	19	3
139	154	9
9	9	2
4	4	10
120	120	5
165	166	1
77	88	1
123	157	1
26	28	7
73	178	1
131	168	4
97	98	5
16	23	1
174	174	4
167	167	8
62	62	1
89	99	2
133	133	10
15	35	2
35	61	3
147	147	3
50	118	1
143	144	2
119	119	7
13	35	2
104	106	2
44	45	2
131	132	1
84	84	3
72	72	4
29	30	1
20	20	4
134	134	1
95	180	1
14	43	1
16	16	9
66	66	4
90	90	8
108	109	2
116	154	1
66	87	2
40	40	4
14	15	3
170	177	2
155	156	1
24	24	11
123	123	2
20	21	1
76	76	3
153	154	2
33	35	1
19	20	5
103	103	3
155	155	1
7	13	1
158	161	1
102	102	7
76	77	2
154	170	3
63	85	1
1	14	2
101	101	5
135	145	2
86	89	2
0	82	3
2	42	1
28	44	2
94	95	1
6	9	3
173	173	4
35	35	5
130	130	4
161	161	4
148	149	4
4	31	3
5	67	1
43	44	4
10	96	2
56	63	2
59	59	2
92	92	3
30	31	2
39	40	5
60	60	1
177	177	1
120	144	1
36	41	1
19	19	5
88	163	3
118	119	2
173	176	2
10	33	1
52	52	4
76	82	2
124	139	1
90	125	2
1	32	3
37	41	1
1	1	5
16	17	4
115	151	3
130	146	1
149	149	3
9	10	1
62	83	1
152	157	4
13	109	3
84	87	2
118	127	2
24	25	1
16	42	4
73	163	2
102	106	1
77	78	2
179	180	1
96	96	1
101	122	3
5	6	2
102	103	3
96	107	1
160	167	1
151	157	1
154	154	2
172	172	4
92	122	1
168	180	1
124	125	4
113	117	1
169	170	3
52	54	2
67	166	1
95	95	3
18	20	1
9	11	1
132	133	2
82	177	1
71	72	3
54	54	1
129	164	1
42	43	1
6	7	1
98	154	1
10	11	1
170	173	1
30	33	3
3	5	2
172	173	3
18	67	1
94	142	2
79	80	1
179	179	2
65	85	1
145	145	2
4	9	2
63	159	2
41	64	2
113	146	1
95	123	1
124	134	1
39	97	1
86	86	5
74	92	1
148	179	1
77	82	3
51	53	1
33	88	1
56	56	2
16	20	2
16	18	2
33	44	1
97	97	2
3	4	1
85	153	2
164	164	3
104	105	1
125	134	2
12	12	1
22	24	2
144	144	2
7	10	3
103	104	2
50	50	1
1	179	1
163	166	1
51	75	1
114	122	1
42	65	1
45	118	1
127	127	2
32	44	1
71	140	1
125	135	2
34	35	1
23	25	1
162	174	2
78	81	2
29	31	1
82	82	1
72	134	1
10	153	1
2	9	1
173	174	3
6	16	1
150	176	2
22	22	2
151	160	3
8	10	2
99	156	2
11	32	1
62	100	2
91	92	1
71	74	1
143	146	1
163	167	1
108	145	1
18	30	1
64	65	1
52	55	1
170	176	1
114	115	1
41	41	1
100	161	1
127	131	1
10	12	1
36	37	1
15	17	1
12	21	1
82	86	1
17	39	1
82	105	2
10	34	1
127	128	2
165	167	1
15	43	1
55	72	1
168	169	1
129	129	1
15	19	2
18	19	1
64	64	1
33	37	1
58	59	1
6	45	1
38	92	3
31	33	2
24	59	1
112	118	1
131	133	1
3	92	1
153	166	1
24	28	1
99	104	1
92	139	1
73	152	1
141	141	1
23	24	1
27	30	1
50	61	1
137	138	2
37	54	1
70	70	1
175	175	1
90	102	1
11	107	1
