42	50	4
50	50	4
2	3	1
49	49	3
30	30	7
35	36	2
126	141	3
14	15	1
125	126	3
27	27	11
76	76	2
124	124	11
145	145	7
132	132	8
129	130	3
125	125	9
59	60	4
22	22	2
26	26	7
134	135	6
129	129	1
141	141	10
96	97	2
8	8	10
21	22	4
100	101	2
68	68	12
19	19	13
138	138	7
123	123	7
126	127	6
90	91	5
122	123	3
85	106	3
54	54	4
95	95	6
98	107	6
126	126	5
133	134	7
39	39	4
96	96	9
137	137	8
111	112	4
24	24	3
82	82	6
33	33	2
70	70	1
123	124	4
110	134	5
97	97	10
9	10	3
78	85	1
104	105	4
64	65	11
31	32	2
127	127	3
79	79	2
53	53	3
41	41	2
16	16	3
109	122	2
73	73	9
101	101	2
142	142	7
111	118	2
114	117	1
93	98	3
9	9	3
107	110	3
25	26	4
136	136	5
66	66	3
121	123	2
58	92	2
127	131	3
135	137	3
21	21	1
94	94	3
20	21	4
97	117	1
133	133	4
32	41	1
131	134	3
12	30	2
23	23	7
139	139	7
117	117	8
19	22	2
92	94	4
36	36	8
57	60	4
96	98	2
110	110	9
106	106	7
82	83	7
63	65	4
126	140	1
37	37	8
47	47	1
96	142	1
3	88	2
80	81	4
111	135	2
52	52	3
18	18	6
79	80	2
31	31	4
65	65	4
121	121	6
122	140	4
131	132	3
77	77	2
140	140	9
143	143	7
116	119	1
33	35	4
103	103	9
83	110	4
20	20	3
14	14	3
126	144	1
95	117	1
143	144	3
118	118	1
27	37	2
94	105	1
108	108	4
122	124	3
141	142	1
73	74	2
19	103	1
113	113	5
120	120	3
111	133	1
122	122	3
28	28	7
8	19	2
67	70	2
10	93	4
102	102	3
91	91	1
64	68	1
87	104	3
108	120	1
16	17	2
3	3	3
131	131	7
120	121	1
5	5	5
94	106	2
80	103	1
92	106	1
4	5	1
1	1	5
15	15	7
40	40	6
114	115	3
118	119	4
140	141	3
61	78	4
124	125	2
63	63	7
92	92	7
4	4	5
68	70	5
121	122	3
43	43	1
123	132	2
54	56	3
34	36	5
42	56	2
60	60	8
10	11	1
91	92	3
101	102	1
78	79	2
56	56	5
144	145	2
2	2	2
9	90	1
34	34	1
59	59	1
97	107	3
117	119	2
83	88	1
27	28	1
67	67	6
43	50	3
60	61	3
101	125	1
99	99	3
53	68	2
65	69	2
15	16	2
18	19	5
34	35	4
128	128	2
19	38	3
15	17	4
51	52	3
115	116	1
134	143	2
128	129	1
105	106	1
117	121	2
48	48	5
13	13	1
114	114	4
53	98	2
33	34	2
25	25	5
0	1	1
104	104	3
17	17	4
102	103	1
75	75	1
117	144	2
89	90	3
8	103	2
29	29	1
68	69	1
87	112	1
23	59	2
81	82	2
53	55	3
108	109	4
100	100	1
135	136	2
112	115	3
92	93	1
42	43	2
97	98	3
109	109	4
134	134	1
136	138	1
130	130	4
138	139	2
135	139	1
135	135	2
142	143	2
32	32	3
114	116	2
13	32	3
69	75	2
81	87	2
65	66	1
64	98	1
94	95	2
137	138	1
54	70	1
68	71	1
58	61	1
70	71	2
126	142	1
78	78	2
105	105	1
30	31	1
28	30	1
121	137	1
123	125	1
51	51	2
35	35	1
2	9	1
144	144	2
48	57	1
62	65	1
8	9	1
131	138	1
56	58	2
72	72	1
52	58	1
57	57	1
113	126	1
110	119	1
98	98	1
90	90	2
136	137	1
58	58	1
107	107	2
112	113	1
117	118	1
9	16	1
