6	6	24
10	10	39
27	27	33
20	20	24
100	101	12
132	132	5
13	25	1
118	124	3
47	47	57
114	115	6
9	9	41
16	16	17
58	58	13
11	11	64
115	115	26
56	59	7
100	100	26
66	66	42
41	41	8
81	121	2
120	120	10
45	45	59
29	90	1
37	42	2
26	26	39
123	124	4
80	80	26
96	97	10
76	76	38
42	57	2
21	42	3
59	59	25
7	7	30
8	8	24
124	124	12
127	128	8
39	39	6
34	34	40
11	18	2
74	85	4
134	134	34
111	112	1
72	72	42
86	86	39
73	73	28
43	48	3
36	36	25
61	61	39
5	11	4
44	73	1
98	99	6
103	103	18
109	109	16
40	40	26
79	79	38
13	13	21
28	83	1
10	17	4
32	82	2
94	99	2
114	114	20
80	84	1
10	18	4
117	117	18
38	42	6
124	126	5
3	3	16
92	93	8
32	32	20
59	90	5
133	133	24
78	92	5
77	77	51
51	55	3
43	43	15
130	130	12
68	68	54
46	46	27
60	60	21
44	44	19
21	21	44
104	105	15
105	105	13
32	93	3
35	36	11
98	98	20
101	101	31
14	14	28
85	85	27
65	65	43
107	107	4
92	99	7
17	19	2
95	100	3
76	77	14
112	113	9
66	67	6
78	80	5
58	60	2
78	78	22
89	90	2
78	93	4
83	83	35
118	120	4
75	77	5
15	15	33
41	81	2
25	81	1
25	25	23
116	116	9
21	50	1
102	102	28
55	55	9
17	18	7
84	85	4
14	64	2
13	14	12
59	61	4
57	57	16
23	86	4
16	72	2
75	75	14
69	69	14
63	111	1
78	79	17
5	13	3
95	101	3
64	64	42
97	97	33
71	72	11
87	95	2
79	82	2
107	126	2
39	40	17
11	66	1
89	89	6
23	24	5
113	113	10
38	38	33
21	85	6
16	17	7
6	7	2
4	4	24
95	95	27
120	122	3
67	67	23
18	18	15
5	5	46
11	12	9
63	79	2
70	70	32
28	28	18
126	127	3
99	100	14
49	49	4
92	95	1
8	76	3
43	55	7
121	121	22
11	27	5
7	38	2
11	80	5
99	99	14
48	48	21
96	96	20
41	42	7
27	79	4
76	121	2
82	83	3
12	46	1
81	81	23
94	94	30
45	62	10
9	47	3
110	110	18
44	89	10
90	90	18
82	95	2
121	122	3
59	95	2
42	43	4
5	6	3
92	94	4
20	21	17
70	76	3
84	88	2
4	5	7
86	100	3
33	33	21
30	30	20
90	127	6
97	98	2
63	63	26
124	127	8
15	69	10
87	87	15
11	79	6
62	62	10
77	124	2
6	91	1
132	133	4
7	55	6
90	92	3
22	22	10
11	63	1
92	92	25
17	20	5
127	127	17
79	80	13
84	84	22
23	23	8
101	102	8
108	125	6
41	57	3
11	77	1
35	74	7
6	94	4
55	56	6
27	49	5
72	73	3
42	42	7
26	47	2
8	36	2
7	64	2
50	50	7
0	0	6
12	12	22
71	71	16
22	36	6
24	24	11
88	100	4
91	91	13
17	17	16
125	125	20
29	38	2
35	35	26
34	75	3
6	38	2
104	104	7
4	88	2
119	121	4
26	83	5
116	118	2
82	82	26
60	95	4
5	101	2
78	81	1
27	80	6
91	92	17
4	83	6
128	129	7
31	32	7
83	87	3
102	125	2
26	48	4
15	70	1
79	106	4
112	112	12
15	45	1
15	72	5
62	108	1
3	99	2
123	123	15
62	70	2
32	78	4
77	78	16
20	43	2
1	1	6
66	71	1
40	57	4
66	83	2
45	80	3
131	131	6
58	70	2
11	93	9
29	49	3
93	93	12
106	106	17
65	66	3
45	64	7
116	121	3
83	84	9
110	111	10
25	74	2
48	49	3
39	82	1
30	39	6
6	100	3
17	71	4
24	87	7
29	31	1
57	111	2
102	122	3
31	31	23
46	60	1
105	109	2
98	101	4
38	39	13
13	99	3
118	118	10
33	43	9
14	58	3
39	43	2
107	123	3
119	119	23
29	48	3
99	101	4
75	76	6
29	29	32
86	88	1
45	71	2
70	71	6
8	9	6
44	74	1
27	81	4
26	27	1
113	114	4
31	81	1
3	4	2
65	68	2
7	101	4
37	37	20
114	126	3
76	120	3
129	129	6
127	129	1
48	80	2
124	125	4
15	16	7
21	36	3
13	23	2
5	84	1
43	44	4
2	2	3
83	92	3
27	97	3
46	78	5
15	43	3
103	121	1
18	19	2
20	74	1
86	87	4
33	47	2
42	58	6
111	111	20
126	126	7
25	84	2
59	85	1
3	86	1
56	56	20
131	132	3
4	10	5
106	121	2
61	72	2
12	17	4
32	36	6
59	60	11
98	100	5
27	92	4
35	75	2
40	43	2
30	74	2
94	95	10
90	91	7
107	108	2
57	58	8
108	109	8
89	116	2
95	96	10
95	97	5
66	111	2
20	26	2
88	93	2
37	38	1
77	111	3
63	113	1
24	25	7
45	46	6
82	93	1
19	20	7
3	101	2
69	70	3
111	113	1
84	89	4
36	37	13
44	47	2
35	47	1
115	116	8
49	82	4
83	91	2
122	123	2
21	22	9
32	76	2
103	104	8
73	75	2
40	41	8
109	110	2
30	31	6
122	122	8
64	73	5
76	107	1
3	10	2
106	127	1
32	81	3
68	120	5
22	81	1
30	43	3
44	45	7
111	114	3
81	94	1
67	68	1
61	76	1
117	118	3
35	77	4
19	19	22
15	19	2
102	114	2
45	91	1
77	82	2
129	130	3
71	117	2
90	109	1
24	92	2
28	98	2
23	74	3
65	69	1
5	96	4
95	99	4
51	84	1
26	79	4
57	121	3
15	20	4
36	60	4
97	101	2
57	90	3
63	123	2
57	59	4
20	84	3
74	75	3
39	56	2
44	71	1
74	76	2
74	74	17
12	13	3
56	79	2
27	28	9
30	81	2
58	61	1
114	116	4
12	25	2
0	130	2
61	113	3
28	45	1
22	23	3
71	76	3
38	49	6
117	120	1
28	91	1
11	26	3
7	85	1
119	120	5
47	93	7
24	43	1
16	61	4
26	90	2
105	111	3
33	45	4
6	92	3
40	49	3
12	29	6
81	93	2
44	72	1
84	98	4
90	126	1
39	41	3
83	90	4
57	84	4
95	104	1
85	86	3
65	82	2
45	81	1
51	51	3
26	78	7
45	70	1
101	103	1
28	29	2
77	79	3
28	80	1
99	106	3
2	3	2
116	119	3
27	91	2
94	100	3
24	88	5
102	103	3
47	48	7
33	34	1
7	29	6
60	108	2
30	41	1
4	6	2
83	85	9
85	89	2
63	128	2
48	83	1
26	62	1
5	94	1
5	95	2
76	117	2
6	97	1
25	51	1
80	81	3
63	64	1
21	41	1
24	84	2
61	73	2
16	20	1
63	78	3
88	91	1
47	86	1
8	21	2
34	35	4
82	96	4
7	48	1
29	30	4
91	96	1
8	73	1
93	95	2
130	132	2
25	26	1
71	73	2
73	74	4
113	131	2
88	89	2
109	114	4
58	59	4
39	51	1
49	90	1
124	129	4
63	74	4
15	85	3
84	107	1
9	23	1
27	29	2
6	48	1
44	87	2
91	93	2
6	93	3
49	50	1
9	44	2
115	127	2
34	78	2
76	118	1
37	55	3
36	38	2
10	14	1
93	94	7
128	128	12
4	97	2
94	111	1
46	72	3
42	49	6
25	83	3
32	42	1
11	20	2
24	83	3
120	121	1
4	7	4
85	110	4
111	121	1
5	20	3
28	79	3
34	45	4
12	99	1
46	94	2
97	99	5
30	55	2
89	92	5
87	88	2
5	99	3
73	116	2
77	127	2
35	44	3
1	2	4
45	89	5
18	85	1
77	98	2
24	27	3
4	101	7
108	108	9
12	57	1
25	48	2
117	123	1
78	108	2
89	91	1
3	100	2
4	92	2
101	115	1
25	61	3
21	62	1
57	85	2
81	97	4
41	43	3
77	120	2
126	133	2
10	26	1
64	65	1
87	101	3
76	134	3
50	81	4
31	47	1
88	94	4
12	76	2
92	127	2
86	90	1
6	99	4
5	100	4
3	59	2
130	131	2
34	69	2
45	63	5
27	93	4
88	96	3
14	50	1
7	12	1
28	37	2
49	78	2
89	107	2
83	89	2
45	85	1
60	94	2
2	12	1
116	120	1
100	127	1
10	19	1
96	102	2
48	81	1
87	116	1
34	74	1
85	94	3
11	30	1
107	109	1
10	61	1
69	98	2
65	73	1
100	115	1
17	73	3
85	95	2
106	107	2
42	50	3
62	63	3
16	73	1
68	69	1
80	91	1
11	13	1
34	59	1
32	33	1
61	75	2
63	75	1
58	64	4
96	98	1
69	71	1
6	15	1
77	85	3
35	71	3
8	20	1
18	74	1
20	36	4
45	82	2
115	121	3
67	72	2
31	36	4
28	99	1
86	103	3
67	79	1
83	100	1
40	55	1
92	101	2
76	114	2
93	98	3
113	129	2
104	106	3
87	96	1
29	61	1
56	58	1
10	11	3
6	26	1
36	74	1
88	99	3
13	116	2
102	105	3
105	123	1
6	13	2
8	102	1
96	101	1
12	63	1
46	73	1
101	110	2
41	82	1
83	93	1
88	88	5
56	57	3
33	73	2
15	74	1
116	117	2
25	97	2
105	129	2
47	82	2
20	79	2
28	74	1
5	22	1
21	26	2
37	60	2
118	123	1
45	76	4
102	119	2
67	69	3
102	118	2
61	62	1
27	56	1
67	71	1
68	98	4
12	14	2
33	76	1
24	78	3
11	17	2
13	26	1
15	75	1
34	77	1
30	32	1
37	41	2
123	128	3
60	62	2
97	100	4
15	42	2
111	127	2
80	83	3
51	56	2
57	97	2
68	129	2
113	134	1
14	61	1
6	95	1
5	97	1
32	41	1
20	37	1
3	65	1
77	129	1
50	84	1
26	82	3
77	86	1
106	131	2
19	48	1
29	36	1
83	99	1
70	109	1
106	108	1
34	46	1
34	47	1
25	44	1
83	98	1
64	123	1
72	116	1
66	94	1
92	97	1
124	133	1
118	119	1
94	101	1
95	102	1
57	65	1
112	122	2
111	120	2
118	125	1
26	86	1
89	96	1
58	74	1
46	47	1
26	29	1
91	97	1
85	97	2
30	40	1
7	20	1
25	27	2
1	111	1
49	81	2
89	95	1
73	76	1
32	74	1
81	122	1
14	15	1
10	13	1
76	132	1
79	92	1
64	71	1
23	87	1
21	56	1
75	85	1
34	62	1
9	10	1
12	58	2
5	91	1
108	110	1
33	44	1
45	86	1
114	122	1
87	93	1
62	64	1
120	124	1
33	35	1
112	118	1
78	107	1
6	84	2
26	100	1
123	126	1
130	134	1
100	102	1
101	119	1
27	82	1
