117	117	16
69	69	32
32	32	21
99	99	17
76	76	19
102	102	16
84	84	26
5	8	3
68	68	5
44	44	6
11	11	11
85	90	7
36	36	14
72	72	18
74	74	35
115	118	2
123	123	22
4	4	22
78	78	26
64	64	11
60	60	21
30	30	6
110	111	3
106	106	4
50	55	5
114	114	15
61	62	3
83	88	4
79	79	15
126	128	5
127	127	28
112	112	31
57	58	7
122	131	4
120	120	16
92	92	20
25	25	3
12	12	17
118	118	17
18	18	9
35	35	9
91	92	8
108	110	7
63	64	11
121	122	5
31	31	7
103	126	2
71	71	13
88	91	4
85	92	4
66	67	17
60	81	5
43	43	12
10	10	8
84	85	10
69	70	2
121	121	17
128	129	4
16	19	4
125	130	5
45	45	16
129	129	9
133	133	12
109	122	3
102	113	2
89	94	4
105	105	25
82	83	10
77	77	17
53	54	30
33	33	10
44	51	4
50	50	30
101	101	23
112	114	11
56	56	17
122	122	13
92	94	9
103	103	35
3	3	16
95	96	5
80	80	21
97	97	15
128	128	11
95	97	3
118	119	5
36	37	5
67	67	21
63	63	14
111	111	23
100	100	10
12	13	9
66	68	6
34	34	17
108	108	10
99	121	4
89	90	11
126	126	21
99	120	4
132	132	25
59	59	19
45	56	4
60	78	10
24	24	32
55	56	9
110	122	1
22	76	5
106	131	6
71	72	8
71	75	2
10	11	6
18	19	9
83	83	15
95	95	24
57	57	17
53	53	13
70	70	33
42	45	3
72	73	3
134	134	14
44	52	1
113	113	17
29	30	4
94	95	12
110	120	4
26	52	3
107	110	2
106	107	7
133	134	1
90	90	24
112	120	3
91	93	3
124	124	20
3	4	5
52	52	19
13	13	14
59	60	10
107	107	21
115	115	19
97	98	7
131	131	10
71	80	8
45	46	1
98	98	12
96	96	8
5	74	1
33	34	5
80	82	6
117	120	2
82	82	5
19	19	12
102	103	12
93	93	16
9	14	3
21	21	13
124	125	5
64	65	10
28	34	1
85	110	8
82	98	5
68	85	2
88	105	2
58	58	7
79	80	15
26	120	3
130	130	8
77	78	7
4	11	5
35	74	2
2	2	27
106	118	3
68	89	3
119	119	17
56	59	1
77	96	3
50	53	2
38	38	4
87	87	27
73	79	2
16	16	7
62	64	7
77	98	1
104	104	37
109	111	6
105	111	6
73	74	12
62	94	3
83	90	3
32	33	1
15	15	15
76	78	4
126	134	3
29	29	20
43	44	7
36	45	6
122	123	7
94	94	21
111	124	3
23	23	25
119	120	11
1	2	5
32	103	2
107	108	12
73	73	19
76	94	3
30	33	1
91	106	3
17	18	2
11	13	4
66	72	4
72	74	3
92	93	5
62	62	18
29	102	5
116	116	23
125	128	2
65	65	8
5	95	1
117	119	4
73	75	4
109	109	11
5	5	13
110	110	14
97	122	2
5	97	4
61	61	15
58	102	2
86	86	13
57	59	2
129	131	3
47	47	6
75	75	9
74	101	2
58	59	4
53	60	1
94	106	4
1	1	14
52	56	4
71	74	2
93	99	1
65	68	7
75	76	4
18	72	2
91	91	7
127	129	9
113	116	4
14	26	2
30	31	6
45	51	3
90	94	2
62	63	10
120	121	6
105	123	1
104	105	6
74	75	3
43	52	2
112	113	4
48	48	15
28	99	1
114	135	1
27	28	3
93	94	5
31	50	6
115	117	2
23	24	7
49	49	2
106	111	4
29	74	2
80	86	2
14	14	9
112	119	1
71	77	3
8	16	2
49	50	2
3	5	9
83	85	4
85	85	11
52	53	6
25	59	1
55	55	6
21	22	1
37	58	2
24	25	9
90	91	6
28	28	11
0	0	11
78	79	11
111	120	2
6	8	4
108	111	1
112	116	1
117	118	23
6	27	2
7	8	10
82	87	1
97	100	1
115	132	2
0	2	9
127	130	1
73	90	3
37	38	4
119	122	3
5	6	4
68	69	4
7	7	4
67	68	12
8	14	3
89	89	5
62	87	1
88	88	5
109	121	1
123	124	8
105	119	4
61	78	2
99	100	4
100	122	3
85	101	6
114	119	3
26	53	1
100	129	4
20	20	5
54	57	2
106	108	4
61	69	7
94	96	4
21	101	2
67	91	1
66	66	12
125	127	3
56	58	2
96	97	7
87	95	5
8	8	8
118	121	7
100	133	3
73	76	1
82	88	1
100	132	3
86	87	10
115	116	2
44	48	1
63	86	4
118	122	4
74	76	3
31	32	7
56	57	3
22	23	10
61	63	2
62	69	2
123	132	1
107	122	4
20	21	2
86	101	3
63	65	5
61	80	1
78	85	1
54	54	3
107	125	7
80	94	2
26	26	5
98	115	1
67	79	2
82	90	4
17	26	5
87	88	1
64	66	5
27	121	4
54	55	5
88	101	3
53	59	6
0	1	4
110	125	2
105	106	7
105	129	2
3	21	1
106	109	1
61	76	1
111	112	3
86	91	2
122	133	3
30	73	1
110	124	4
109	112	2
70	75	2
126	129	5
125	126	8
44	45	3
131	134	3
4	5	3
122	125	2
34	85	2
16	23	2
85	86	3
113	119	1
95	107	2
18	108	1
50	54	1
94	98	2
123	126	2
130	131	5
73	94	1
31	73	2
25	53	4
81	81	8
49	53	1
127	128	3
30	74	5
16	17	1
125	125	6
98	99	3
3	10	2
26	44	4
131	133	3
6	6	3
78	97	2
17	25	1
32	75	1
114	115	2
61	85	3
69	91	1
73	95	1
90	98	1
135	135	4
100	130	2
69	86	3
43	47	1
124	130	1
60	77	1
100	125	2
116	117	2
85	102	1
27	27	2
9	10	3
47	48	3
48	56	1
100	123	3
55	60	1
72	90	1
12	29	1
111	122	2
102	122	3
113	114	2
71	94	2
54	60	1
129	133	1
35	36	2
28	29	2
18	20	1
38	43	1
77	79	1
97	127	1
115	119	3
125	132	3
22	22	5
116	118	3
99	102	2
13	15	2
100	121	2
6	7	5
109	110	1
7	15	2
9	11	2
108	122	1
8	9	1
80	81	2
1	50	1
97	101	1
28	30	2
66	116	1
111	119	2
79	82	1
19	22	2
96	98	1
78	80	1
95	98	3
0	4	2
108	109	2
101	102	2
105	132	1
110	115	1
76	77	3
10	122	1
86	90	1
118	120	1
125	135	1
124	126	1
65	67	1
81	89	2
80	91	2
102	104	1
13	28	1
113	115	1
43	56	1
64	81	1
9	9	2
64	71	2
16	20	1
111	117	2
55	100	1
34	63	1
103	104	3
34	35	3
87	91	2
27	33	1
130	134	2
49	55	2
34	37	1
89	103	1
21	100	1
54	58	2
21	23	1
66	69	1
120	122	1
77	82	1
64	69	3
44	55	1
22	97	2
72	77	2
52	57	1
67	119	1
106	130	2
65	69	3
102	125	1
51	56	2
72	78	2
92	96	1
129	130	2
12	32	1
68	70	2
70	71	1
17	17	1
51	52	1
23	56	1
93	105	1
78	87	1
13	14	1
93	110	1
110	117	2
86	120	1
67	69	1
112	115	1
79	104	1
7	28	1
84	86	1
132	133	1
114	116	1
115	120	1
62	88	1
88	104	1
