13	13	22
95	95	15
42	42	24
10	10	20
17	17	15
146	146	25
126	126	19
130	131	9
173	174	5
9	12	6
73	73	5
26	26	15
125	125	14
112	112	8
31	31	34
10	14	5
94	94	9
99	114	2
178	178	16
104	105	2
145	145	31
22	22	9
2	37	1
17	18	2
38	38	27
110	110	9
52	53	8
68	68	12
72	72	6
24	24	9
39	40	7
172	172	14
159	162	5
87	87	8
166	166	6
71	81	2
32	32	14
59	59	21
32	33	17
97	98	1
43	43	24
168	168	7
24	25	5
65	65	12
35	39	3
115	125	4
42	43	12
110	111	10
5	41	3
80	91	2
93	95	1
82	82	12
80	81	3
129	134	1
145	148	1
141	141	6
36	36	18
79	80	3
56	93	1
4	5	5
65	70	3
30	30	21
39	39	15
0	14	1
11	13	8
164	165	3
37	37	17
36	45	1
132	132	13
132	138	6
16	16	14
179	180	6
152	153	12
165	165	5
121	122	9
142	162	2
155	157	2
153	153	4
2	6	3
2	19	2
171	172	2
101	101	4
81	82	2
158	158	11
9	9	21
133	134	2
159	159	13
150	151	2
5	14	1
117	117	4
147	147	15
5	16	6
169	172	3
4	8	3
72	73	5
160	161	9
51	51	13
16	18	3
44	45	17
103	104	5
109	110	7
79	81	5
143	144	1
171	171	6
19	20	12
66	66	7
155	155	9
57	57	8
90	90	5
22	23	3
103	105	2
6	6	11
71	71	15
64	64	12
136	136	3
53	88	1
117	118	7
31	33	3
0	0	12
8	8	8
127	127	13
37	38	8
114	114	5
28	94	3
142	143	4
15	20	2
55	55	4
150	150	11
74	74	24
96	111	2
11	14	3
159	160	5
156	160	6
118	118	8
52	58	2
140	140	7
154	158	4
45	45	2
121	123	3
134	136	3
24	59	3
10	11	13
138	138	17
68	81	1
77	77	5
143	143	2
4	41	2
26	28	3
40	41	4
50	51	4
51	52	5
113	114	4
96	126	3
128	131	5
5	6	7
150	156	1
100	102	3
139	140	9
40	40	11
70	70	7
115	116	7
129	130	6
7	7	7
114	116	2
170	170	11
15	16	19
22	24	4
18	19	10
94	131	3
54	56	4
134	134	8
170	171	3
141	143	5
168	171	3
125	156	3
79	79	5
67	71	1
142	149	5
139	139	7
11	11	15
14	14	20
142	142	15
25	26	4
41	43	6
157	157	8
176	176	13
82	97	1
131	157	3
154	154	6
144	144	5
173	173	12
161	161	4
75	89	5
64	65	7
89	89	4
67	67	5
89	94	5
53	53	8
2	2	6
0	1	5
167	168	3
6	21	3
3	3	16
62	63	7
100	100	4
109	109	13
4	4	19
157	161	3
86	86	5
124	124	8
3	7	2
44	44	16
58	58	5
35	36	7
130	130	5
166	167	2
16	20	4
162	163	6
16	51	5
122	122	2
68	112	3
57	58	2
50	50	4
172	180	1
159	170	2
107	108	6
127	129	3
179	179	6
27	28	3
149	149	2
1	6	3
103	103	10
54	54	18
5	5	12
114	125	7
33	34	2
18	73	3
29	38	2
108	111	2
80	80	9
34	34	5
31	32	3
129	156	5
96	133	4
161	162	6
88	101	2
23	63	3
57	78	11
16	17	6
118	119	6
180	180	7
128	129	2
125	128	3
5	18	2
33	33	15
129	131	3
17	23	2
174	174	6
137	159	2
55	56	5
23	23	15
5	7	6
88	88	12
109	123	2
111	112	4
62	64	2
123	124	1
98	98	6
133	133	8
117	135	3
56	57	1
116	116	4
3	4	5
81	81	3
42	45	4
24	28	4
21	22	10
111	111	11
29	36	4
14	15	7
57	59	7
87	89	2
66	67	4
99	99	4
21	21	9
37	41	3
145	146	4
148	148	9
140	141	5
64	75	4
54	55	6
8	21	2
131	133	1
136	173	5
35	35	9
131	131	8
7	8	2
135	136	1
1	23	1
22	36	1
41	41	5
10	18	1
25	25	13
126	128	7
9	30	1
156	162	1
80	92	2
12	14	1
23	24	2
15	18	1
172	173	4
115	115	9
107	112	3
2	4	1
72	75	4
7	15	3
56	56	3
81	96	3
119	119	15
163	163	2
124	125	3
79	103	1
62	62	6
15	15	13
19	19	10
6	43	1
6	12	2
35	37	1
6	14	4
83	84	2
74	75	3
57	94	1
28	28	8
100	101	1
93	131	2
38	40	4
10	15	1
97	97	6
167	169	1
98	99	4
75	75	10
60	60	3
74	91	2
6	7	5
18	18	7
66	68	1
90	92	1
167	167	3
60	61	2
16	31	3
17	52	2
38	39	3
128	132	2
8	9	8
158	159	4
30	31	11
36	39	1
4	38	1
154	155	2
78	79	3
61	64	5
160	162	2
13	16	3
116	117	3
123	123	6
20	20	6
79	85	1
141	163	1
96	96	3
34	109	3
140	146	2
43	44	13
21	71	1
40	81	2
102	118	1
108	134	3
89	96	2
58	85	2
9	10	1
175	175	2
119	125	2
105	106	4
177	177	10
146	151	2
128	128	4
168	176	1
12	12	4
151	151	8
29	34	2
101	104	2
82	83	3
9	31	2
152	154	1
3	9	3
136	166	3
38	82	5
3	5	3
104	104	6
6	10	3
35	38	6
5	15	3
61	61	4
162	162	3
92	92	1
71	72	2
119	120	1
108	108	10
54	94	1
84	85	1
162	172	2
143	145	2
63	63	6
80	96	1
91	91	2
27	27	1
132	133	2
110	123	4
115	135	1
137	138	1
1	1	8
155	162	3
79	90	2
159	161	1
154	157	1
94	96	1
84	84	3
39	41	2
113	113	5
76	90	1
30	35	1
63	64	3
78	78	6
72	74	4
41	42	4
132	134	3
29	29	5
163	167	1
160	160	5
163	166	2
121	121	7
111	113	6
163	164	2
52	54	1
122	127	3
29	51	1
17	140	2
151	156	1
2	7	3
2	3	5
88	89	2
147	148	6
148	149	2
76	109	1
113	121	2
139	176	1
177	180	1
136	163	3
130	151	1
8	29	3
24	45	2
74	76	3
102	115	2
107	109	1
14	37	2
72	76	4
101	107	2
156	156	3
10	16	3
119	121	3
106	106	2
7	12	1
129	129	2
102	102	3
74	93	1
14	17	2
163	172	1
7	24	1
82	92	1
17	24	1
105	105	2
87	88	1
101	106	1
52	61	3
22	32	4
37	43	1
22	71	1
77	92	1
160	165	1
32	73	1
7	14	2
54	65	1
102	103	1
126	131	2
70	71	1
7	9	1
94	95	2
86	96	4
67	68	2
14	16	1
64	66	1
20	21	2
135	135	3
22	63	2
161	178	1
99	102	1
99	100	1
73	74	5
157	158	1
19	21	1
83	83	1
1	2	2
137	137	2
159	163	2
22	31	1
36	37	5
4	22	2
108	132	1
67	75	1
156	157	1
35	41	1
31	44	1
1	141	1
110	130	1
109	133	2
152	152	1
76	76	3
102	106	1
141	144	1
169	169	2
143	146	1
149	154	1
125	129	2
50	62	2
52	52	5
2	5	1
42	44	2
107	140	2
90	91	3
151	153	2
177	178	2
158	160	1
129	158	1
77	78	1
112	121	1
0	142	1
104	106	1
82	86	1
11	37	1
173	178	1
136	154	1
120	120	1
133	149	1
114	127	1
135	144	1
28	31	1
44	46	1
3	19	2
76	108	1
57	60	1
4	25	1
127	131	2
100	107	1
105	107	3
134	153	1
10	40	1
132	143	2
10	37	1
85	85	2
0	27	1
95	97	1
107	125	1
14	43	1
33	35	1
15	30	1
30	37	3
151	154	2
59	61	2
106	110	1
85	87	1
29	30	1
165	166	1
40	84	1
18	38	1
141	142	1
34	36	1
1	30	1
79	95	1
168	169	1
66	121	1
79	82	1
140	161	1
177	179	1
4	6	1
171	174	2
6	8	1
11	19	1
125	126	1
91	93	1
162	165	1
93	93	2
73	76	1
18	42	1
83	87	1
138	139	1
8	45	1
107	107	1
76	94	2
82	90	1
154	160	1
1	5	1
25	55	1
18	20	1
15	17	1
172	174	1
124	126	1
120	121	1
14	19	1
0	41	1
145	154	1
