80	81	6
42	43	5
4	90	5
21	96	2
65	65	4
127	128	7
3	4	1
28	29	1
52	52	7
94	94	5
66	66	7
9	9	3
2	19	5
67	68	1
92	92	8
116	116	7
51	53	1
28	28	5
19	19	1
73	73	5
72	84	3
89	89	6
90	91	4
47	47	2
57	75	2
124	132	5
112	112	4
5	5	2
40	40	7
126	126	11
30	30	4
32	32	12
75	77	2
127	130	4
99	99	6
128	129	4
69	70	3
125	129	4
80	85	4
99	100	1
76	77	2
119	119	4
91	91	4
73	74	4
11	11	2
78	79	5
81	81	3
13	13	5
55	55	7
94	95	2
102	115	3
41	42	3
74	83	2
102	117	3
105	105	2
88	88	6
3	23	1
103	103	3
64	64	4
68	68	3
75	76	3
34	34	2
114	114	17
118	118	2
98	98	3
109	110	1
125	125	4
124	124	5
7	8	3
131	131	8
8	8	3
113	117	1
15	17	1
2	2	4
122	133	1
21	22	6
10	10	3
69	69	6
14	14	11
87	87	2
95	96	3
85	132	1
131	132	1
2	4	4
3	6	4
67	67	6
61	61	6
7	7	4
70	71	4
62	63	4
113	113	5
127	127	3
24	41	9
23	24	3
57	69	2
101	102	3
1	1	3
70	70	4
50	50	5
23	23	4
56	56	7
31	31	4
6	19	2
58	58	3
91	92	3
79	79	1
7	16	7
107	111	2
21	21	8
64	74	2
22	22	2
114	116	2
62	62	3
79	127	1
39	39	6
86	86	5
93	93	6
12	12	2
102	114	3
118	128	6
33	33	1
2	3	2
102	102	3
101	113	3
101	101	2
51	54	2
51	52	1
44	44	5
82	82	4
32	33	1
117	117	2
132	132	4
120	120	5
60	60	4
128	128	1
75	75	3
77	77	5
109	109	5
106	106	6
107	108	4
115	115	4
55	103	1
31	32	3
85	85	1
0	2	1
19	104	1
68	69	3
46	46	1
48	48	5
17	17	3
61	62	2
25	26	5
130	130	2
31	96	1
43	44	4
124	125	2
63	63	6
26	40	1
70	109	2
74	75	3
81	82	4
22	23	1
4	5	2
122	122	3
129	129	3
23	33	1
105	124	2
29	54	2
72	75	2
76	76	2
64	70	2
51	51	2
45	46	2
57	57	5
8	29	3
76	132	3
84	84	3
14	16	1
96	96	1
32	102	1
45	78	2
95	95	4
71	71	4
129	130	1
19	20	1
54	54	4
46	47	3
42	42	1
125	126	4
69	98	2
49	49	2
11	47	2
43	43	2
72	72	2
18	18	1
93	94	2
0	1	1
53	53	1
83	83	2
105	112	3
95	109	1
0	0	2
77	127	1
26	26	2
6	55	2
90	90	1
80	80	1
83	86	1
78	78	1
3	3	1
88	95	1
16	16	2
44	45	2
68	97	2
97	98	1
27	27	2
118	120	1
26	29	1
24	65	1
114	119	1
17	18	1
15	15	2
111	111	1
86	87	1
21	70	1
7	9	1
82	99	1
17	21	1
24	25	1
61	65	1
24	24	1
50	51	1
