1	40	2
153	154	13
12	12	12
26	28	3
7	8	2
78	83	1
191	215	2
45	45	14
83	111	1
220	220	3
11	11	12
211	211	15
110	110	12
52	52	6
67	67	14
53	54	1
83	84	2
231	232	3
232	232	8
50	52	1
16	52	1
192	194	2
179	179	11
38	38	16
94	109	4
115	187	2
210	213	1
208	208	12
57	58	1
243	245	1
182	183	7
5	5	9
23	155	1
41	54	1
166	166	8
244	245	11
231	231	5
77	77	10
145	145	5
169	169	10
176	176	4
114	115	5
180	180	15
242	242	12
235	235	4
40	51	1
70	70	7
153	153	9
107	108	1
48	48	8
157	157	13
204	204	12
40	201	2
89	89	5
62	62	17
78	78	16
156	157	1
96	96	5
239	240	1
179	181	4
175	176	5
2	2	2
35	35	9
219	224	2
51	52	2
25	25	2
94	100	5
118	151	5
82	83	10
193	193	6
88	88	8
205	206	7
187	189	4
45	178	1
228	228	10
214	234	4
17	17	7
74	74	3
82	82	4
107	107	2
44	44	15
27	28	4
77	78	1
161	161	15
161	162	2
15	229	1
9	9	7
212	213	4
219	226	1
117	149	5
181	181	22
147	152	4
191	216	1
69	69	8
68	69	8
170	171	3
31	37	1
27	27	10
30	30	13
226	226	5
157	158	1
200	201	4
168	168	5
223	223	3
94	94	4
43	43	8
215	215	7
101	112	2
190	190	3
8	8	8
7	7	10
213	213	26
237	238	2
202	202	16
11	12	2
95	95	3
72	73	2
227	227	1
34	34	9
181	183	4
238	238	12
228	229	2
157	175	4
173	174	5
240	241	6
87	88	5
241	241	14
12	14	4
151	151	14
74	76	2
3	6	2
201	201	18
16	204	1
54	54	2
155	172	1
54	55	3
233	245	2
68	68	8
20	20	7
45	46	2
226	227	3
189	190	4
158	160	5
183	185	1
97	98	6
234	234	18
108	236	1
210	211	4
153	159	3
98	98	12
225	227	1
175	175	16
1	28	3
51	77	2
197	213	4
102	102	8
119	119	14
158	159	1
44	46	5
116	185	2
41	41	9
90	90	21
191	193	4
116	120	1
87	87	9
97	113	6
11	17	3
199	200	8
195	196	4
168	169	6
206	206	8
112	150	2
152	152	10
70	71	3
20	31	1
76	79	3
109	109	12
105	105	10
152	160	2
33	33	8
198	198	11
221	221	2
221	235	3
37	37	7
152	153	7
208	209	2
189	189	3
23	32	2
73	95	1
97	175	1
29	29	7
110	111	5
248	248	5
204	205	5
11	26	1
244	244	14
38	39	2
237	237	10
209	209	4
20	115	3
188	188	3
116	186	2
248	249	6
171	171	5
197	197	5
63	64	1
29	36	5
236	236	2
33	100	5
32	32	8
113	113	9
21	22	5
187	188	3
15	15	6
181	182	1
203	203	14
114	114	5
52	53	3
104	104	3
212	212	12
90	92	5
95	98	1
81	81	10
193	234	4
81	82	4
206	207	3
150	150	3
193	197	2
155	167	1
118	118	9
172	172	10
182	182	4
34	76	2
22	22	16
241	242	3
10	10	16
44	45	1
188	189	5
192	200	1
222	222	10
177	177	4
240	240	7
151	152	2
200	202	1
24	24	3
4	4	1
11	15	3
67	68	2
111	241	1
66	78	1
10	27	2
151	162	3
65	65	8
163	180	2
161	176	1
53	53	10
227	228	3
92	92	11
172	173	2
184	195	3
174	174	6
184	184	6
90	91	7
149	152	3
112	112	10
225	225	9
184	213	3
186	223	1
91	91	6
195	195	4
197	212	1
86	86	4
97	97	6
76	77	4
207	207	11
108	108	5
167	167	12
96	97	3
52	59	1
221	222	3
188	237	3
146	146	4
33	35	4
51	62	2
159	182	5
42	230	2
67	158	2
156	156	11
224	224	6
149	150	3
11	21	5
114	118	1
73	73	3
229	229	8
226	233	1
26	26	4
178	178	7
9	10	4
155	156	1
183	184	2
47	47	5
23	24	1
210	210	9
172	176	3
88	94	1
214	214	7
42	42	9
166	167	2
167	168	2
170	170	12
18	19	2
147	147	2
112	114	1
154	154	9
65	66	2
51	51	5
203	204	1
196	196	8
237	239	1
186	186	7
66	66	11
41	43	2
102	104	1
165	170	2
118	119	1
14	14	7
55	55	4
191	191	5
106	111	3
93	93	8
50	50	14
16	246	1
154	155	3
98	100	2
69	179	1
6	6	6
45	98	3
21	26	6
6	7	4
180	197	2
242	244	4
74	75	1
58	58	3
111	111	5
44	51	1
164	164	8
173	173	5
94	101	1
147	151	1
31	31	11
58	74	1
185	185	3
22	23	4
245	246	2
44	94	3
178	183	3
64	64	9
210	212	1
89	90	5
91	92	6
163	165	5
203	206	1
207	208	4
71	91	2
56	56	3
42	51	1
115	201	1
212	225	1
118	172	3
222	230	4
79	81	1
159	174	1
3	3	2
80	81	4
18	18	2
158	158	5
154	156	2
63	63	3
83	86	1
116	116	9
2	15	1
114	175	1
102	107	1
229	230	4
80	80	2
64	65	4
180	200	2
55	56	3
217	217	10
172	177	1
75	75	2
217	225	2
56	57	3
226	231	1
68	70	1
232	233	4
194	194	6
14	15	7
230	230	3
245	245	10
57	57	3
112	238	1
182	193	1
243	244	2
190	199	1
165	166	5
115	179	3
160	174	3
59	59	2
164	165	4
206	230	2
37	38	5
115	115	7
76	78	7
227	231	1
219	219	3
186	187	3
199	199	5
169	170	4
117	117	5
13	14	1
61	69	1
213	215	3
9	16	2
47	76	2
173	214	1
81	85	1
198	221	1
234	245	1
164	167	1
32	33	3
156	161	1
84	95	1
225	241	2
238	239	1
101	101	3
240	244	1
172	175	1
163	167	1
197	203	1
31	32	2
46	46	13
75	76	2
159	159	3
217	223	1
243	243	2
144	206	1
93	94	1
96	98	4
39	39	2
37	47	1
60	60	4
36	218	1
98	168	2
155	155	6
4	5	3
66	67	6
95	168	2
28	28	2
37	39	1
213	241	3
80	94	3
52	197	1
51	73	3
115	117	2
84	84	1
64	67	3
79	110	3
71	71	5
223	241	2
59	66	3
117	188	2
26	30	1
34	35	1
180	181	4
171	180	1
162	163	1
247	247	1
184	189	1
56	241	5
39	40	1
10	11	1
22	31	1
183	183	3
196	200	2
198	199	3
16	16	11
67	69	3
191	192	2
21	21	6
202	224	1
47	75	1
73	74	2
61	61	2
152	158	3
109	110	2
72	72	2
11	20	1
36	78	3
205	205	6
93	95	1
30	31	1
96	170	1
224	225	1
161	163	1
98	101	1
35	36	3
172	181	1
200	200	5
59	220	3
184	185	1
34	49	1
60	61	2
117	144	1
22	156	1
147	150	1
99	103	1
100	101	1
113	115	2
162	162	4
173	178	2
115	116	2
69	71	3
31	65	1
91	243	1
27	92	4
198	200	1
216	216	2
43	52	1
150	155	1
35	218	1
233	233	1
104	113	2
184	197	4
61	62	1
50	73	4
186	212	1
112	244	2
181	198	2
85	85	1
100	202	1
218	219	1
33	51	4
41	42	3
230	231	1
19	19	1
64	97	2
185	186	2
158	176	2
231	233	1
159	171	1
175	177	1
86	87	2
99	100	1
145	150	1
17	19	2
101	103	1
163	163	2
40	41	4
47	175	2
56	233	1
188	190	3
190	195	2
117	118	1
209	210	2
249	249	1
117	150	1
214	215	1
16	17	1
94	95	1
120	120	3
76	76	2
226	229	1
21	25	1
180	212	1
165	165	2
47	52	2
234	236	2
164	166	1
187	187	1
28	29	1
100	100	3
201	202	3
218	218	1
100	169	1
112	113	1
215	217	1
79	95	2
108	109	1
247	248	1
202	203	1
176	177	1
234	235	3
3	43	1
40	40	1
203	229	1
82	92	1
113	150	2
156	160	1
71	73	1
154	201	1
88	89	1
2	162	1
189	194	1
113	114	3
163	164	1
23	23	1
150	151	1
49	243	1
40	43	1
226	235	1
205	245	1
9	26	1
49	50	1
109	156	1
1	1	2
49	49	1
119	120	2
196	197	2
225	239	3
43	47	1
62	64	1
244	248	2
5	6	1
108	157	1
206	211	1
215	225	1
204	208	1
102	103	2
193	207	1
14	18	1
236	237	1
219	225	1
238	240	1
84	85	1
69	92	1
79	80	1
23	26	1
10	32	1
246	248	1
208	223	1
155	208	1
32	151	1
24	25	1
69	178	1
186	188	1
62	72	1
81	84	1
239	239	1
229	231	1
63	76	1
177	179	1
