93	94	2
146	146	2
4	4	4
92	92	5
86	150	2
119	148	5
93	93	6
157	157	8
42	43	5
45	46	5
85	86	6
90	91	1
97	97	4
151	151	16
101	101	18
5	5	9
155	156	5
95	95	8
26	26	3
147	147	8
23	24	3
35	35	7
149	158	4
86	86	7
146	148	2
152	158	6
10	11	6
89	89	3
79	79	6
54	55	3
74	74	2
7	7	3
88	88	5
151	153	1
29	36	5
17	17	5
135	136	6
43	43	5
56	112	2
117	117	2
3	42	4
49	49	1
155	155	11
149	157	2
83	83	12
104	105	6
119	120	3
6	6	7
142	142	4
51	51	5
143	145	4
49	50	6
18	18	9
96	98	7
116	129	1
131	147	5
105	105	13
25	42	3
39	39	4
0	0	3
112	112	1
53	53	3
40	41	8
42	42	5
9	9	2
147	149	2
137	138	2
107	107	7
119	121	1
20	20	6
154	154	6
63	67	2
111	134	2
102	102	2
150	151	1
151	152	1
118	126	4
12	12	7
129	130	4
90	90	7
132	133	2
65	66	1
123	136	2
44	44	6
94	94	10
106	107	4
78	83	4
135	135	3
108	110	2
125	125	4
126	128	2
113	113	8
148	149	1
84	84	6
78	78	3
147	152	2
128	128	7
85	85	3
5	17	3
94	95	5
25	26	2
4	43	2
108	108	3
24	24	5
153	157	3
68	85	3
91	115	5
30	31	3
123	124	5
8	55	2
33	33	2
70	70	1
50	50	7
107	124	2
3	3	7
71	71	4
14	15	5
138	138	1
62	62	6
69	69	1
137	137	6
11	11	5
158	158	2
48	48	6
156	156	2
72	97	1
25	28	1
104	104	5
146	154	4
28	28	5
16	16	3
34	34	11
111	111	5
0	99	2
8	8	2
130	130	7
136	136	4
2	2	3
114	115	4
118	121	2
153	153	4
152	154	2
120	127	1
31	32	5
80	81	1
119	119	4
118	118	3
36	36	2
145	154	1
31	52	3
45	65	1
116	124	1
51	54	1
99	99	2
11	19	1
105	135	2
56	69	1
47	91	4
75	75	5
45	45	8
44	45	4
10	10	5
133	147	2
138	139	3
40	40	4
134	134	3
20	21	1
76	76	2
1	1	5
77	78	7
112	113	1
148	148	4
47	47	3
64	67	3
28	39	1
53	63	3
20	43	1
117	118	1
139	139	5
22	23	5
82	88	3
57	112	1
150	153	1
119	131	1
140	140	1
124	126	1
153	154	2
65	65	2
2	82	1
152	155	1
104	158	1
31	94	6
52	53	4
19	20	2
115	116	1
27	27	1
127	127	3
68	71	4
18	21	1
18	24	2
121	126	1
126	126	1
146	147	2
110	110	1
126	127	2
2	5	3
145	145	2
46	46	1
131	144	1
79	81	2
9	19	1
41	44	1
5	77	2
152	152	5
38	56	2
64	64	3
77	77	4
123	123	1
24	134	2
44	66	1
144	144	2
116	131	1
69	70	3
116	128	4
53	54	2
19	19	2
96	96	2
141	141	5
116	116	3
41	41	1
31	31	1
129	129	4
98	98	2
92	94	2
113	114	1
17	18	2
1	101	1
140	141	2
18	19	1
55	56	2
126	134	1
109	133	3
146	149	2
80	80	3
29	29	3
37	37	2
21	22	2
127	130	2
68	68	1
133	133	4
102	103	1
4	5	2
147	148	1
1	2	3
21	21	1
115	115	3
119	128	1
14	61	1
18	23	1
111	112	3
73	73	2
87	89	1
127	138	4
31	136	1
67	67	6
3	85	1
39	49	1
54	54	1
36	37	3
40	51	1
53	64	1
149	149	1
145	156	2
87	88	1
12	34	2
95	96	1
32	51	1
69	85	1
124	124	4
130	138	1
91	91	2
79	86	2
14	14	2
22	22	1
29	42	2
38	46	1
131	131	1
114	114	2
15	15	1
142	150	1
9	11	1
20	48	1
19	30	2
87	151	2
81	82	1
99	100	1
108	134	1
55	61	1
70	71	1
145	147	1
52	57	1
30	30	1
89	91	1
69	131	1
88	89	1
105	106	1
143	143	1
106	106	1
98	99	1
3	4	3
56	64	2
132	132	2
103	103	1
108	112	1
17	24	1
7	45	1
150	152	1
24	25	1
79	103	1
66	67	1
126	151	1
91	120	1
31	55	2
52	54	2
46	47	1
100	100	1
82	82	1
122	122	2
156	157	1
90	92	1
8	9	1
50	51	1
