61	63	5
13	13	8
21	21	56
2	2	28
33	33	20
43	44	9
44	44	10
9	9	35
60	61	12
63	64	7
20	20	23
35	35	4
54	54	18
6	6	17
7	8	13
58	60	2
55	56	11
11	11	5
4	4	15
12	20	8
76	77	4
26	28	4
49	50	10
25	27	2
19	19	10
12	13	20
56	56	9
22	23	1
5	5	13
30	68	1
44	56	3
3	4	2
55	55	19
62	66	2
34	41	3
57	58	1
70	70	4
43	61	4
57	57	11
3	3	19
38	39	9
50	51	8
42	44	5
61	61	16
59	60	4
26	26	9
18	52	12
38	38	14
22	22	12
9	10	3
6	9	3
42	45	8
67	73	4
54	57	5
11	12	6
46	46	7
1	1	15
51	51	10
40	40	4
59	59	5
75	75	7
68	68	10
56	57	2
24	26	2
12	12	13
6	7	5
65	65	5
52	52	5
25	26	6
24	24	6
35	40	3
1	9	2
36	38	3
26	27	9
67	68	8
29	30	6
65	67	3
26	51	2
41	44	1
46	47	3
25	25	10
20	21	8
60	60	15
76	76	10
45	56	3
8	8	9
10	11	10
47	47	5
49	75	3
64	65	11
68	70	5
43	43	8
19	20	3
37	38	1
40	43	1
25	28	2
24	32	2
53	63	5
10	10	11
25	52	4
36	36	6
20	54	5
39	70	3
30	30	4
50	50	8
70	74	4
35	37	4
66	67	11
4	5	7
23	24	1
65	66	3
5	6	5
72	74	3
49	70	1
27	27	3
73	73	7
58	58	2
7	13	2
54	56	2
47	63	3
8	9	8
0	0	5
34	35	4
52	53	3
74	74	3
2	3	4
48	48	10
34	34	7
45	45	17
62	62	5
66	66	11
42	42	3
67	67	8
51	61	2
69	70	5
39	40	2
42	64	2
24	31	3
22	39	3
53	62	5
28	28	2
7	7	9
68	69	7
49	51	3
19	21	4
77	77	2
8	10	9
18	23	1
32	32	4
49	49	8
72	72	1
41	42	7
22	31	4
1	2	11
30	32	5
21	22	4
14	14	3
20	37	3
75	76	3
52	54	2
12	21	1
6	22	2
63	63	6
11	20	4
13	36	3
44	45	4
53	53	10
42	61	2
24	34	1
61	64	1
22	24	4
49	62	2
40	44	1
28	32	3
24	25	3
36	37	1
62	63	5
40	41	2
41	51	2
8	13	4
74	75	2
29	31	2
27	29	4
66	68	1
65	68	1
0	1	7
63	66	3
12	19	1
4	28	2
72	73	4
33	34	3
42	43	2
41	41	4
30	31	1
31	31	6
69	69	1
29	29	2
68	71	4
3	6	1
6	8	2
21	31	5
47	75	4
57	59	2
28	29	2
21	24	2
47	49	1
31	32	1
41	57	6
41	56	1
35	38	1
39	39	1
42	66	1
71	71	1
23	29	3
21	43	1
48	63	1
64	64	1
67	69	1
27	28	1
62	64	1
21	44	1
2	43	1
73	74	1
54	60	1
37	37	1
