52	53	5
22	22	11
60	60	20
24	24	11
50	50	11
39	39	7
12	12	6
22	23	2
53	58	4
67	67	15
70	70	12
59	62	1
0	0	10
35	48	3
64	66	11
42	42	12
20	20	15
52	58	3
73	73	15
62	64	5
72	72	14
63	64	8
36	36	12
48	54	2
6	8	3
8	9	4
31	35	2
28	28	4
42	60	1
6	6	6
25	29	6
40	40	8
23	23	2
69	69	4
50	51	7
27	60	4
29	30	6
4	7	4
47	47	14
33	33	10
45	46	2
71	71	6
74	74	4
28	29	7
21	21	6
43	70	1
66	66	6
47	48	3
61	61	8
7	8	6
63	63	10
37	37	13
3	4	2
64	64	12
1	1	5
1	5	2
30	31	4
27	28	4
13	19	1
64	65	1
47	51	1
32	32	5
13	20	2
21	24	5
4	31	5
44	44	12
30	30	7
4	5	4
13	22	6
36	39	4
33	35	6
53	59	3
53	55	2
32	34	6
37	39	3
8	8	2
19	19	3
59	59	8
41	42	3
2	2	7
65	65	11
38	47	2
25	25	8
69	70	2
49	50	2
44	56	1
55	55	5
2	3	4
58	58	3
43	45	2
33	34	1
29	29	9
31	31	3
34	35	7
35	35	7
57	57	1
10	10	1
13	14	2
36	37	4
51	54	2
25	26	4
54	54	7
49	49	3
8	10	1
59	60	5
42	70	7
27	27	7
43	44	10
34	34	2
73	74	1
9	10	2
45	47	2
32	33	3
54	59	5
5	5	6
57	58	4
24	27	1
45	45	7
1	2	1
23	27	2
40	76	1
65	67	3
43	43	3
51	52	9
59	61	1
4	4	5
36	38	4
23	24	3
50	52	2
20	21	8
9	9	6
19	20	2
54	55	2
52	56	2
41	41	8
58	59	5
37	38	6
28	30	3
77	77	5
11	11	2
51	51	6
48	49	2
52	52	2
75	75	1
44	45	4
26	26	2
1	4	2
48	48	9
68	68	5
46	46	3
3	34	3
42	43	3
70	71	3
75	77	2
20	53	1
74	75	2
40	41	2
35	37	3
72	73	2
61	62	3
47	49	2
22	26	3
49	52	1
71	72	2
53	53	1
29	34	1
42	71	2
67	68	2
23	31	1
6	7	2
46	48	1
1	3	3
67	71	2
38	38	1
41	60	1
10	11	1
69	71	2
3	3	1
55	56	2
66	67	1
39	75	2
53	54	1
5	6	2
38	39	2
22	24	1
26	28	2
0	5	1
0	1	1
30	53	2
49	51	1
24	28	1
21	29	1
61	63	1
60	61	1
37	46	1
