148	148	15
36	36	14
128	128	9
49	57	2
41	41	16
135	136	15
41	42	5
136	136	15
118	120	7
39	40	6
122	134	2
132	146	2
0	0	10
3	3	8
113	113	15
102	104	3
12	13	17
73	73	14
91	92	9
145	145	18
112	112	22
43	43	20
67	67	7
104	104	24
135	137	6
63	63	7
119	119	29
154	157	2
15	16	12
21	22	10
64	64	7
140	141	13
53	54	9
135	141	3
14	19	2
114	114	19
87	92	1
46	46	17
136	137	12
22	22	13
92	101	3
124	124	19
104	105	11
120	121	19
33	33	28
30	30	19
89	89	19
97	97	11
78	82	2
80	81	8
135	135	15
12	12	19
83	84	14
24	25	4
36	37	11
78	79	5
88	89	14
7	7	12
96	97	2
25	25	19
114	116	9
31	32	12
108	112	8
117	118	15
143	143	7
111	111	6
117	117	11
53	53	9
108	138	6
152	153	7
9	9	13
151	151	16
129	130	17
4	5	12
89	153	3
19	19	13
118	118	13
138	138	9
79	80	6
10	11	9
31	95	5
155	156	13
32	33	14
100	100	28
157	158	7
93	110	6
1	1	20
27	28	5
47	47	15
69	119	2
105	106	9
122	123	4
132	138	2
103	112	3
88	88	21
13	49	9
6	6	12
137	141	10
119	154	3
82	86	4
124	134	1
12	15	4
91	91	27
29	30	9
48	50	1
111	112	11
40	41	11
123	123	20
32	34	5
29	29	19
150	150	6
35	35	11
38	40	5
92	93	8
38	38	20
4	7	1
39	39	14
142	142	26
153	153	13
132	132	24
17	18	8
125	126	16
94	94	28
132	133	12
132	134	10
131	133	4
11	11	14
25	27	2
67	68	5
19	20	12
52	54	4
74	74	6
78	78	12
3	152	4
141	141	26
154	156	4
11	12	5
69	69	6
128	157	5
105	105	22
123	131	1
154	154	9
155	157	3
46	47	4
119	131	3
149	149	8
86	86	14
122	122	6
68	68	10
142	143	6
120	120	17
108	108	9
139	139	16
17	17	21
31	31	15
14	15	6
125	125	18
82	82	13
131	152	3
113	114	11
70	70	25
45	45	22
90	124	2
157	157	9
121	122	15
145	146	4
152	154	5
137	137	16
150	154	1
156	156	10
11	13	7
79	95	2
45	46	12
42	42	12
106	107	14
101	101	13
30	98	3
116	116	20
103	107	1
48	48	9
134	150	1
131	131	27
144	144	29
28	99	2
138	145	1
132	141	3
65	65	14
118	150	4
2	2	12
121	121	14
13	19	1
13	13	18
78	85	1
16	17	5
40	40	13
103	104	7
83	85	2
5	5	10
155	155	23
75	75	16
66	66	6
71	71	23
94	126	1
20	20	22
116	117	6
33	51	4
42	43	3
67	119	4
24	24	15
98	99	5
99	99	9
76	76	5
116	120	2
85	85	10
109	138	4
130	131	10
122	124	1
28	29	5
95	95	11
85	86	7
47	65	3
8	36	10
81	81	11
81	82	6
49	49	15
79	79	10
140	140	15
150	152	1
46	49	2
33	34	6
25	26	13
118	123	10
113	115	4
79	81	3
134	134	16
56	69	3
107	107	10
28	28	11
9	57	4
115	115	16
146	147	5
87	95	1
54	55	2
1	26	2
137	144	4
119	120	6
8	8	14
158	158	6
103	103	7
3	26	2
4	4	14
38	43	5
126	126	9
83	83	11
148	150	2
63	69	1
110	110	8
104	152	1
62	63	3
146	146	13
44	45	4
136	140	3
48	49	4
90	90	17
84	84	3
51	51	7
8	9	7
11	46	3
86	124	2
104	151	1
133	138	1
93	93	16
77	77	12
149	154	2
127	127	14
34	34	6
54	65	1
68	69	3
69	70	5
57	57	5
90	91	9
9	11	7
103	115	3
81	83	7
15	15	9
127	132	2
84	92	4
109	109	9
87	123	8
126	127	5
110	130	2
86	118	5
133	145	3
61	82	2
30	94	1
8	51	1
132	143	1
136	147	2
147	147	10
129	129	20
137	140	6
130	130	10
36	77	1
63	68	2
102	102	8
85	87	6
27	81	3
1	2	4
50	67	5
44	44	14
52	52	9
21	21	13
92	92	13
133	134	1
131	132	10
100	130	2
49	53	6
97	98	8
139	140	9
63	64	10
98	98	12
122	144	2
118	119	9
18	18	15
123	127	4
16	16	10
115	127	2
128	141	3
23	24	7
94	95	6
89	90	3
105	110	6
50	51	8
33	35	2
14	14	9
147	148	5
76	78	2
11	14	1
102	105	2
72	90	7
56	56	5
133	133	6
154	155	2
116	118	1
66	67	1
18	21	4
114	115	7
51	52	4
118	132	5
8	10	6
27	90	4
137	138	7
110	115	6
82	83	3
18	19	7
104	111	1
55	55	4
103	152	2
128	129	4
66	71	1
140	155	6
13	15	3
94	151	1
37	37	18
26	26	17
16	19	6
35	37	2
32	32	5
49	50	2
138	140	3
109	112	4
76	77	3
146	148	2
90	93	7
115	116	4
10	10	4
50	50	13
138	139	4
22	23	3
10	57	2
141	142	2
135	150	2
107	124	1
80	80	20
63	66	5
44	50	4
98	152	2
87	88	5
106	106	8
77	78	4
106	126	2
118	131	4
86	87	3
3	12	2
54	54	10
90	92	4
85	112	3
16	18	6
77	82	1
36	51	4
26	95	4
131	144	7
5	6	4
53	55	8
102	106	1
75	87	2
28	93	2
57	69	4
107	108	10
107	158	1
92	94	1
18	22	2
110	112	2
86	90	1
87	87	10
110	111	3
108	114	3
36	39	4
131	153	1
82	87	2
141	143	1
102	103	1
93	96	3
107	112	6
71	116	2
109	110	2
38	39	6
122	127	3
105	152	3
123	150	1
147	149	4
56	63	1
17	28	2
45	47	4
128	133	1
9	10	6
136	138	1
22	24	1
120	141	2
26	27	2
126	133	2
95	96	5
131	134	4
55	145	1
27	30	2
103	105	1
87	90	5
149	150	2
68	75	1
54	64	1
29	81	1
5	23	4
93	95	3
134	135	1
131	143	1
103	137	2
27	47	1
119	121	1
20	21	1
43	75	2
151	158	3
24	116	3
104	157	1
96	96	10
124	125	9
88	96	2
134	137	1
22	78	2
12	50	2
0	1	2
7	17	4
22	26	2
108	124	1
28	30	8
77	87	2
31	97	4
14	78	2
18	28	1
16	30	1
32	68	3
75	80	2
143	144	2
84	91	1
49	54	3
39	41	2
72	73	1
27	27	7
14	56	1
82	85	2
90	95	3
108	109	4
11	48	2
116	140	2
86	89	2
30	50	2
7	8	7
123	124	2
70	75	3
84	86	1
114	156	1
77	79	6
128	140	3
109	129	2
67	69	3
67	75	4
67	71	1
72	72	2
45	50	2
36	52	2
48	57	2
105	107	4
89	95	3
23	23	2
140	142	1
2	4	1
29	31	2
33	36	1
48	67	2
123	125	4
78	86	1
121	127	2
86	88	1
89	91	2
129	131	2
159	159	3
107	111	3
83	114	1
153	154	9
134	151	4
47	48	3
26	28	3
102	129	1
63	71	1
78	88	1
97	127	2
10	48	4
62	62	3
115	119	3
109	115	1
17	20	1
94	152	2
102	107	1
87	89	2
110	124	1
79	93	4
75	116	3
133	155	4
118	149	2
75	106	2
93	94	3
104	112	1
106	153	3
30	32	1
125	147	1
135	147	1
103	157	1
104	129	2
51	66	1
124	126	1
76	85	1
131	142	1
21	25	3
2	3	2
44	47	1
95	151	2
50	55	1
92	98	1
16	20	2
139	150	1
158	159	1
91	106	2
76	82	1
114	119	2
100	108	2
80	82	2
126	145	2
33	53	4
64	70	1
70	71	2
136	150	1
130	151	1
37	43	1
32	65	1
76	118	3
122	125	1
111	114	1
34	53	3
112	113	4
8	55	1
122	126	2
135	145	1
19	88	1
19	21	2
64	66	2
75	78	1
86	120	3
48	51	4
4	6	2
18	20	3
134	152	1
86	107	1
54	57	3
100	101	1
95	97	2
87	127	2
135	138	1
34	35	3
110	116	2
23	28	1
65	66	1
115	117	3
97	117	1
35	77	1
1	3	1
10	12	2
13	31	1
84	94	1
130	139	1
47	55	3
29	92	1
2	23	1
97	119	1
79	82	2
88	120	1
122	142	1
35	36	2
15	22	1
135	140	1
79	94	1
3	4	1
150	151	1
8	11	1
15	18	1
54	66	1
76	117	1
108	110	2
119	158	1
95	152	1
93	98	1
3	22	1
104	149	1
42	66	1
55	56	2
122	133	1
71	72	1
110	129	2
156	157	2
148	154	2
97	157	1
108	126	1
105	108	1
127	133	1
44	46	1
89	96	2
92	106	1
133	156	1
7	10	1
152	152	2
61	66	1
46	67	1
118	141	1
61	70	3
30	93	1
64	65	2
80	114	1
6	7	1
117	120	1
86	119	1
104	109	1
32	137	1
41	62	2
103	110	1
46	55	1
113	126	1
32	70	1
40	42	1
28	32	1
12	124	1
4	12	1
13	35	1
64	68	1
139	142	1
71	152	1
57	80	1
8	17	1
146	150	1
0	2	1
62	69	1
2	5	1
78	87	1
40	43	1
