17	17	11
48	48	29
91	91	11
119	120	3
75	75	14
34	35	4
100	101	2
67	67	9
64	64	7
5	51	5
145	145	16
43	43	2
80	80	15
58	58	17
113	114	2
29	29	24
97	97	21
27	27	12
114	114	17
70	71	6
23	23	11
129	129	17
110	110	11
97	106	8
62	63	10
38	39	4
26	26	17
124	136	2
64	65	3
142	142	11
69	69	8
116	116	9
118	119	11
34	34	11
93	94	16
90	106	3
71	71	16
40	41	5
23	24	3
5	93	1
83	83	9
131	131	15
6	6	10
21	21	8
55	55	7
47	48	1
69	70	17
123	129	2
50	85	3
65	66	8
112	112	9
133	133	9
22	22	14
68	68	14
103	103	11
82	84	2
38	38	31
122	122	23
73	73	11
123	123	9
124	127	2
102	106	3
68	73	9
81	81	11
68	97	1
15	16	10
86	87	6
17	143	1
71	86	4
145	146	4
86	86	13
49	49	11
60	60	19
18	19	3
105	105	12
74	74	17
54	54	7
93	93	8
126	131	3
65	65	4
5	5	2
16	30	2
111	111	8
61	61	8
125	126	10
109	109	9
61	63	3
49	52	1
117	117	6
41	57	4
115	115	14
3	3	9
136	139	1
107	108	7
50	50	17
41	41	15
130	130	14
120	121	5
71	91	2
133	136	4
32	33	7
124	125	5
57	57	19
131	133	11
125	125	11
104	104	16
121	130	2
134	136	4
84	85	6
3	139	1
99	99	6
28	29	5
89	89	9
64	80	6
30	30	8
136	136	19
0	6	5
77	78	10
10	10	14
33	33	16
134	134	14
115	116	7
142	143	8
4	4	9
141	141	23
139	139	20
0	48	2
24	73	1
53	53	17
70	109	5
54	137	1
8	13	3
71	72	1
18	21	3
83	84	9
79	80	4
85	85	8
99	100	7
53	54	13
96	98	4
106	108	6
135	139	1
39	39	9
33	36	3
76	91	4
62	62	19
141	142	7
62	79	1
87	87	16
119	119	8
76	78	5
112	131	1
25	116	1
124	124	15
115	119	2
100	100	15
134	139	6
31	31	6
126	126	14
37	37	13
51	130	2
98	98	16
75	121	1
11	11	6
47	121	8
117	144	5
19	19	8
87	88	1
76	76	9
11	19	6
22	39	3
2	3	9
140	140	21
97	104	2
36	52	1
108	108	13
117	118	13
52	52	6
35	36	10
79	79	10
130	132	6
102	102	8
114	115	16
50	53	1
136	138	3
99	111	3
133	140	1
95	96	5
106	107	13
135	135	3
126	127	2
13	13	6
118	120	1
34	53	1
123	124	5
40	40	15
79	82	1
56	57	2
87	107	5
24	31	3
53	124	2
14	47	3
128	128	16
81	85	4
49	50	4
9	9	13
128	129	5
101	102	2
66	66	6
108	109	3
136	140	3
92	93	3
59	59	8
60	61	2
131	132	9
103	107	3
72	72	1
15	15	3
132	132	7
126	130	4
54	55	6
50	51	12
49	51	4
65	129	3
66	67	3
82	82	12
92	92	6
64	83	2
20	21	1
24	25	3
81	86	2
27	30	3
16	16	4
96	96	8
2	95	1
113	113	8
25	25	7
32	83	4
107	107	12
8	90	2
91	92	1
2	4	3
8	9	3
63	63	5
118	118	11
107	110	5
18	18	12
85	106	2
49	122	2
90	90	6
70	70	10
146	146	9
134	135	9
31	77	2
13	14	3
137	137	7
56	56	12
25	26	9
3	4	9
78	82	1
13	34	3
137	138	6
101	101	13
120	122	5
77	77	14
128	135	2
47	47	8
99	103	3
62	65	2
21	22	2
0	1	2
98	100	3
117	119	4
138	138	10
51	54	1
32	37	6
2	2	5
56	138	2
51	51	6
59	138	3
28	28	11
50	52	3
22	30	2
109	110	6
105	114	4
57	63	3
0	0	3
105	106	7
90	91	4
97	98	11
138	139	4
76	77	3
144	144	8
10	21	2
15	20	3
48	49	2
78	79	1
124	131	4
32	32	7
116	117	5
37	38	2
24	24	6
68	96	3
80	81	1
42	48	1
84	84	4
43	50	3
89	90	1
59	61	1
14	14	9
14	15	3
127	130	1
121	121	9
79	81	1
126	129	2
69	71	1
82	86	1
98	104	1
132	140	4
1	1	2
3	70	3
110	111	3
36	36	7
104	105	9
60	145	3
132	142	3
122	123	5
74	75	2
76	82	5
69	96	2
33	48	3
90	92	2
3	51	2
102	103	6
22	74	1
51	125	2
58	61	2
94	94	8
19	22	2
35	35	4
42	42	4
13	118	2
134	143	7
121	124	1
6	143	2
3	111	1
77	79	4
57	58	7
52	125	1
18	20	2
12	14	2
95	101	3
88	88	2
57	135	4
98	99	2
15	17	1
20	20	6
53	58	2
140	142	2
72	73	4
55	56	1
100	103	1
83	85	1
121	123	1
71	83	3
12	13	2
95	95	3
93	97	1
12	15	1
95	139	1
58	62	3
102	104	1
23	82	1
144	145	1
113	127	2
3	6	4
117	141	1
88	89	4
8	29	2
120	120	6
109	111	2
95	98	1
123	130	7
72	83	2
74	120	1
105	107	2
118	121	1
101	104	4
41	42	3
67	131	1
53	122	2
88	106	2
70	91	3
14	16	1
16	17	2
21	142	3
132	133	2
81	82	4
73	74	2
140	143	1
52	123	1
96	97	5
92	109	2
34	50	2
57	61	2
88	90	1
51	58	1
95	109	1
23	30	1
3	131	3
39	40	3
119	122	1
58	60	2
106	106	3
23	116	6
133	135	2
125	130	2
35	37	6
128	138	2
4	5	3
2	138	3
133	134	5
96	104	1
56	139	2
6	141	1
94	98	1
22	86	2
92	108	1
80	86	1
24	26	2
24	27	2
127	127	7
99	101	1
95	99	2
23	26	2
8	12	1
26	73	1
105	109	1
124	128	3
100	105	2
67	68	1
119	121	4
59	60	2
8	8	1
128	131	1
27	29	2
25	30	1
54	62	1
55	135	1
135	140	1
96	106	1
17	19	1
82	85	1
67	69	2
92	95	1
39	41	2
113	115	2
70	72	2
112	113	3
61	62	1
26	118	3
106	109	1
123	127	1
36	37	2
143	143	2
23	32	1
87	89	1
110	112	1
55	140	2
111	112	3
74	87	1
90	103	1
70	110	2
71	84	2
129	130	2
133	137	2
9	10	1
134	137	1
40	42	1
58	65	1
1	2	1
141	144	2
6	11	1
29	30	1
75	86	2
2	93	1
5	52	2
12	47	1
25	73	1
114	116	1
30	75	1
12	12	1
130	133	1
101	110	1
143	144	1
78	78	1
13	120	1
117	122	1
42	43	2
142	144	1
111	115	1
0	2	1
122	124	1
3	69	1
85	88	1
