164	164	21
108	108	18
4	6	2
190	190	4
41	45	3
19	20	4
72	72	11
59	59	20
159	159	3
41	41	21
233	233	19
193	193	5
167	167	10
200	200	15
154	155	5
172	172	12
49	65	1
64	64	8
43	53	3
168	169	12
32	32	6
206	206	13
46	47	7
39	59	2
65	65	16
21	23	3
225	225	15
17	17	30
8	9	5
24	24	14
182	182	20
215	215	9
26	27	5
157	160	5
244	246	4
10	10	7
117	117	10
7	7	14
21	21	18
8	11	3
4	12	8
158	159	3
175	187	5
95	95	6
113	114	9
180	181	9
105	106	5
217	236	3
23	23	13
112	113	2
41	42	2
208	208	37
42	43	5
12	12	25
175	175	15
214	214	8
27	27	14
81	91	1
31	31	8
66	67	3
38	58	6
66	66	19
3	4	1
233	234	9
113	117	3
69	69	9
118	119	7
160	160	22
171	171	17
37	37	16
37	168	1
203	204	7
88	89	8
245	246	3
59	74	1
44	44	19
47	47	8
76	77	5
235	236	2
48	48	7
174	174	4
4	4	14
46	46	8
98	100	3
77	78	2
151	165	4
88	88	10
42	42	19
51	51	11
9	9	21
174	225	4
86	86	8
201	201	14
180	180	8
199	200	6
185	200	3
32	34	3
93	93	25
62	62	5
200	201	4
242	242	8
201	202	9
115	116	3
152	164	4
45	45	8
217	217	6
111	111	10
236	236	3
33	33	16
23	24	7
184	185	4
57	57	4
85	85	23
52	52	10
213	214	5
14	15	6
8	8	17
21	22	4
174	175	2
93	94	5
154	154	5
73	74	7
78	78	9
29	29	32
87	94	2
94	94	22
75	75	4
70	71	6
87	87	24
150	150	14
63	63	5
170	171	5
79	80	2
20	21	2
31	32	10
151	152	7
18	19	8
236	238	6
112	112	19
242	243	3
85	86	2
173	173	18
91	92	6
89	90	5
219	219	7
26	31	2
192	192	6
67	67	14
188	209	1
45	115	5
229	230	2
153	154	5
188	188	8
198	199	3
186	186	13
37	225	6
114	116	4
226	226	19
177	181	3
120	248	3
248	248	13
232	235	1
162	162	19
5	6	5
161	181	7
241	241	12
115	115	12
68	69	14
22	22	14
80	81	10
177	177	7
182	183	3
50	51	2
120	166	3
100	100	7
97	97	9
94	95	9
48	49	4
147	147	6
209	209	9
18	18	15
110	110	10
44	112	2
44	45	4
220	220	4
165	165	17
197	198	12
203	206	2
226	227	8
74	74	18
103	104	4
185	185	17
186	237	2
208	212	5
15	15	23
1	39	2
58	58	7
68	70	4
198	198	20
32	89	3
213	213	23
240	240	3
224	228	1
200	222	2
85	109	2
10	11	6
89	89	20
169	169	12
86	87	5
221	221	10
245	245	6
244	245	3
57	58	10
6	6	8
41	53	2
163	163	9
211	211	10
212	213	8
96	97	4
235	235	2
11	11	15
4	5	2
79	79	11
28	28	10
202	202	14
174	197	1
38	38	9
49	59	1
119	146	3
77	77	4
172	224	7
242	244	6
16	16	14
111	121	2
54	54	11
39	40	5
183	186	1
197	237	2
218	245	1
95	96	1
107	107	3
207	207	15
36	36	16
116	117	5
1	1	5
37	39	4
92	92	12
204	207	9
116	116	3
7	30	2
158	160	2
241	242	11
234	234	6
159	178	1
35	35	8
99	100	4
211	212	6
20	22	2
185	240	3
166	166	5
5	5	4
87	88	8
19	19	19
176	176	11
237	239	1
6	9	2
56	171	2
178	179	5
30	30	6
223	226	3
81	93	1
229	229	16
153	153	9
100	101	2
212	214	2
178	178	12
221	222	4
197	197	19
238	239	4
146	146	2
113	113	16
40	40	15
78	79	6
236	241	5
65	66	3
80	80	2
45	110	3
105	105	5
231	236	1
53	53	14
217	218	1
247	247	6
202	203	8
225	232	2
25	25	11
199	199	11
101	101	6
38	54	2
187	187	10
26	26	6
34	34	9
174	193	4
145	145	5
98	98	6
56	56	5
159	160	1
151	151	11
160	161	4
157	157	16
145	147	1
109	109	13
114	114	6
104	105	2
156	156	9
80	89	8
223	223	7
206	207	4
81	83	1
203	205	3
72	73	3
208	209	7
189	190	4
219	220	3
111	113	1
46	62	3
49	64	2
198	200	1
177	178	2
237	237	6
228	246	2
236	237	6
184	184	8
119	247	6
37	38	6
207	212	2
196	196	3
240	241	1
18	20	6
246	246	15
22	229	2
50	59	3
172	225	2
165	167	2
27	28	6
175	183	3
98	101	5
163	164	5
159	241	1
108	109	5
217	244	1
101	102	3
71	71	10
231	232	4
29	43	6
183	193	1
239	239	4
205	207	1
11	15	3
228	229	4
14	14	5
65	70	2
170	170	5
155	155	4
9	10	2
28	29	6
47	48	4
60	60	4
3	8	2
61	62	4
168	168	5
216	216	7
194	194	3
205	205	9
186	188	1
146	147	4
203	203	9
54	55	5
20	20	12
43	43	11
198	237	3
110	166	1
181	182	5
50	50	7
224	224	6
181	181	5
78	90	2
149	149	3
215	244	3
198	214	1
15	16	5
173	227	1
228	228	2
33	172	3
222	222	9
220	231	7
193	195	2
99	99	16
6	43	2
96	96	7
91	93	3
218	218	4
6	7	2
62	77	2
187	188	2
6	30	2
41	43	1
35	36	5
205	206	8
243	243	2
25	26	5
48	52	1
231	231	10
75	76	1
243	245	1
111	114	3
218	219	4
49	50	5
233	235	6
183	184	3
225	233	2
60	61	5
157	161	2
58	172	1
59	67	2
185	249	1
102	102	1
70	70	9
31	41	3
168	225	4
29	30	2
61	61	15
55	55	5
175	176	3
59	60	5
119	119	11
164	174	1
48	50	1
5	8	2
16	20	1
39	39	11
226	235	4
176	177	5
49	49	10
187	189	2
149	150	2
193	194	1
47	62	2
3	5	2
249	249	2
95	100	2
79	86	2
70	73	4
38	221	2
54	57	1
165	166	1
110	111	2
36	38	3
57	158	1
246	247	8
38	40	2
40	41	2
55	57	5
228	230	4
58	76	1
53	90	5
84	97	2
192	193	3
172	174	5
81	95	3
33	35	2
103	105	1
214	215	1
167	211	3
74	169	2
111	149	4
183	187	4
204	205	1
51	52	3
161	161	5
51	61	1
194	196	3
104	104	5
206	212	2
85	97	4
210	211	8
54	65	2
112	114	3
192	196	1
168	197	3
72	74	2
110	114	1
12	15	2
185	186	3
191	191	2
39	42	1
54	58	3
183	183	4
63	89	1
212	231	1
155	156	2
84	86	1
49	56	2
214	244	1
0	3	1
24	35	4
60	77	3
58	157	2
4	30	3
3	14	2
213	234	1
230	230	4
158	209	4
233	236	2
64	66	2
224	225	1
82	82	2
226	228	1
116	118	4
198	211	2
81	81	2
196	197	1
43	44	3
162	163	1
3	3	9
91	91	3
201	226	1
64	65	6
33	34	3
97	98	1
69	71	3
117	118	1
234	235	1
144	144	1
61	89	2
161	162	3
169	170	3
223	224	6
158	158	3
9	54	1
13	13	2
59	176	1
195	195	1
184	200	2
52	53	2
214	223	1
185	231	2
34	172	2
210	213	1
179	179	3
212	212	6
191	208	3
1	2	1
183	206	1
21	24	1
209	210	2
7	8	1
90	90	3
222	223	4
234	236	2
243	244	5
240	242	1
152	152	15
65	67	1
169	172	4
190	209	1
195	200	1
234	241	3
5	204	2
0	1	2
227	227	8
204	204	5
32	33	2
58	63	2
4	32	1
172	173	3
56	57	3
63	77	1
216	218	3
175	177	1
70	74	2
78	84	2
11	20	1
222	227	1
40	65	1
88	109	2
232	233	3
106	107	2
89	97	1
194	195	2
29	31	1
49	82	3
237	238	3
59	65	1
77	79	2
8	185	1
198	208	1
106	115	2
54	67	1
18	25	1
8	212	2
185	241	2
10	150	1
72	83	2
186	215	1
118	118	2
88	95	2
10	16	1
201	203	2
193	203	1
22	24	2
208	211	2
202	204	1
44	113	1
197	212	1
15	26	1
11	14	1
144	145	1
157	158	2
152	153	3
173	192	1
173	174	2
184	190	1
51	62	2
17	24	1
244	248	1
109	110	1
102	103	3
162	165	2
23	33	1
147	248	1
71	73	1
205	208	1
38	39	3
173	223	1
68	68	1
17	18	2
59	75	2
101	104	1
109	113	2
204	206	1
12	13	1
218	220	1
62	63	1
46	61	1
239	241	2
232	232	1
71	74	3
114	115	1
50	81	2
83	83	2
218	233	2
2	3	1
39	58	1
247	248	1
150	151	1
49	81	1
22	23	1
108	110	1
210	210	2
103	108	1
92	93	1
186	187	1
63	82	1
152	171	1
23	25	1
53	54	1
60	75	1
238	238	2
41	52	1
3	12	1
220	222	1
191	209	1
195	197	1
111	115	1
55	171	1
63	64	2
174	177	1
180	183	1
2	37	1
2	2	1
216	217	1
184	186	1
200	213	1
185	187	2
184	210	1
90	91	1
160	165	1
9	42	1
43	45	1
222	228	1
175	191	1
106	106	1
45	46	1
103	103	1
18	22	1
96	98	2
234	237	1
95	110	1
55	56	2
116	148	1
38	169	1
51	53	1
42	54	1
25	30	1
