155	155	1
82	149	5
132	135	8
61	63	1
76	76	7
67	68	4
183	183	21
56	56	12
140	140	9
58	58	5
16	40	2
28	29	2
157	157	4
138	139	12
97	98	4
143	143	14
124	124	17
75	107	4
106	120	7
173	174	7
72	72	13
77	107	1
11	11	14
14	14	12
16	16	7
86	86	13
105	105	21
84	84	16
151	152	3
120	122	3
88	88	9
25	26	12
12	12	10
160	160	2
57	57	13
177	178	7
146	147	7
107	108	3
18	18	16
45	46	9
46	46	8
182	187	6
17	17	7
74	76	1
29	29	8
54	54	6
63	66	2
129	133	1
43	43	3
173	173	9
53	55	9
76	79	2
55	55	8
23	23	11
153	153	21
69	74	1
84	143	5
142	142	10
99	100	5
19	21	1
157	162	9
106	108	5
82	82	5
174	175	3
126	153	6
25	25	13
186	186	11
99	99	11
120	120	11
75	75	7
109	109	15
101	101	7
131	131	6
84	110	3
66	67	4
104	104	14
180	181	4
41	41	7
22	24	9
126	126	8
177	180	2
187	187	21
53	53	15
20	20	5
45	45	9
22	22	13
154	158	4
19	20	13
20	21	10
124	127	11
132	132	3
111	113	7
71	72	8
182	182	11
129	129	15
165	165	6
172	173	9
38	38	14
77	178	4
7	8	5
143	185	5
109	110	10
124	125	2
58	62	3
24	24	13
92	93	4
175	188	3
137	137	4
161	162	6
190	190	8
110	110	5
189	190	7
135	161	1
181	182	1
16	17	4
65	65	6
188	189	6
102	126	2
0	63	3
148	151	3
170	170	5
92	112	4
76	112	2
115	116	5
74	75	2
183	184	18
29	36	3
171	172	7
37	37	6
94	94	6
162	164	5
15	15	6
114	114	5
131	132	2
83	174	4
150	152	6
130	131	5
146	146	5
166	166	10
178	178	10
33	34	14
76	157	2
159	159	7
106	122	5
117	118	4
101	102	6
31	31	5
77	78	14
33	33	7
113	113	5
175	175	8
103	104	2
177	177	13
48	48	9
116	116	12
145	145	5
34	36	4
73	73	5
156	157	2
136	136	8
110	111	5
3	3	13
151	151	6
23	24	8
186	187	2
171	171	13
56	68	7
148	148	12
32	32	6
95	95	3
189	189	1
4	4	5
1	61	9
40	40	15
163	164	1
140	141	10
136	158	2
167	168	3
47	47	6
166	167	11
98	98	12
124	126	5
118	119	9
134	134	7
66	66	14
182	183	6
26	26	7
134	135	4
105	138	11
58	61	1
79	79	7
147	147	18
122	124	4
2	2	10
6	13	2
21	37	2
93	93	1
125	127	1
169	170	6
128	141	3
34	34	9
111	112	10
65	67	3
102	102	8
152	152	1
149	150	8
98	130	3
115	115	12
187	188	3
140	142	1
150	150	12
164	164	8
147	148	2
70	71	1
90	90	11
39	39	9
44	44	11
112	112	8
89	90	1
5	65	2
13	13	9
117	117	5
2	4	4
84	102	1
11	12	4
135	135	7
73	79	3
27	28	2
83	84	6
59	62	1
43	54	3
23	35	9
100	128	2
93	116	3
141	143	2
9	10	8
161	161	3
98	106	1
10	12	2
56	57	4
10	13	4
111	111	10
158	158	6
82	84	5
156	162	4
169	169	10
116	119	7
156	168	1
104	137	1
1	1	6
31	34	1
115	117	1
93	94	4
6	7	5
63	63	8
87	88	4
83	83	5
121	122	4
145	155	5
7	7	6
108	108	3
116	117	10
90	91	6
187	189	3
62	65	1
127	127	2
136	137	6
168	168	9
175	189	2
36	36	6
184	187	8
53	60	2
130	130	4
181	189	1
20	36	4
154	155	3
68	68	6
72	182	2
185	186	3
103	103	3
65	68	5
87	87	2
63	64	2
85	85	4
184	184	11
10	10	2
69	70	1
13	14	5
163	167	2
98	123	2
41	42	2
58	64	2
141	141	5
88	89	2
162	162	7
62	62	8
16	21	2
127	128	1
167	170	6
163	163	3
13	18	2
18	19	2
8	8	2
85	86	10
129	139	2
30	30	4
55	56	4
76	159	2
47	48	3
4	8	6
178	179	9
82	180	2
135	136	1
12	58	1
58	65	2
96	98	1
19	19	4
44	47	4
42	42	5
160	162	1
170	189	3
176	178	1
6	8	7
122	122	8
117	140	1
44	48	5
82	83	6
16	19	1
78	78	12
71	73	3
149	149	10
21	21	7
28	30	1
60	70	1
27	36	3
17	20	6
119	120	3
188	190	1
59	59	2
138	138	4
45	47	5
144	144	4
9	9	8
167	167	6
77	77	6
28	28	4
100	100	7
111	123	4
162	163	1
78	181	1
0	43	2
100	125	5
180	180	9
31	32	5
81	171	2
172	172	1
114	119	1
176	176	10
144	145	1
75	81	1
71	74	1
13	16	1
125	125	5
26	29	3
77	111	2
82	181	2
1	58	4
0	0	6
147	149	9
133	160	5
188	188	6
100	101	3
80	80	1
133	159	1
89	89	4
14	15	3
67	67	8
132	175	2
58	59	2
106	106	7
80	156	4
181	181	4
107	126	1
6	9	2
80	157	1
83	149	4
142	143	10
61	64	2
118	118	3
64	65	3
156	156	3
6	6	6
54	60	2
102	123	1
30	34	2
154	154	5
7	10	5
84	85	5
71	102	2
185	185	3
74	74	3
35	37	1
4	5	2
27	27	6
70	70	4
107	112	2
42	44	2
8	9	2
106	107	5
84	142	1
73	176	3
29	30	3
95	124	1
123	123	4
5	12	1
174	174	3
76	77	3
61	62	4
91	94	2
173	189	4
137	155	4
25	33	2
158	159	1
97	125	1
37	44	6
92	121	1
5	5	2
15	16	3
61	61	2
109	112	3
102	103	2
74	79	1
133	133	8
145	152	4
165	166	2
74	132	2
71	71	2
44	45	1
181	188	2
60	60	5
39	40	1
18	21	4
75	108	1
15	39	1
66	68	1
157	158	2
128	128	7
3	4	3
1	2	3
36	37	1
108	128	2
141	142	5
97	97	3
176	177	1
124	130	1
22	23	2
175	187	3
19	39	2
135	163	1
111	120	1
68	69	2
64	68	1
90	112	1
139	139	2
60	61	2
153	154	1
64	67	3
12	13	2
126	130	1
96	96	2
107	107	2
59	61	2
32	35	2
164	182	3
180	182	2
35	36	1
178	180	3
105	137	1
82	108	1
181	187	1
163	165	3
83	159	1
148	149	2
180	188	2
166	179	2
36	44	1
24	25	2
35	35	6
10	11	6
97	100	4
86	87	1
152	153	1
179	179	3
170	171	4
92	106	1
81	81	4
171	173	2
182	189	2
157	163	1
22	25	4
92	92	1
118	154	1
145	146	4
98	122	3
7	13	2
77	86	2
66	87	2
162	165	1
146	149	1
27	30	1
97	126	1
84	86	2
145	153	2
96	102	3
21	22	1
4	6	3
85	87	1
38	42	1
91	122	3
135	137	3
106	111	1
117	119	2
57	68	1
134	136	2
142	144	1
81	180	1
38	44	2
22	26	1
152	154	1
165	167	1
91	106	1
12	65	1
130	133	1
68	183	2
92	94	1
59	64	3
158	161	1
63	65	1
184	185	1
146	155	3
74	104	2
78	79	1
180	183	3
166	168	2
110	128	1
9	12	1
69	69	1
96	124	1
88	90	1
39	41	1
24	26	2
104	159	1
130	139	2
38	39	2
114	117	1
90	92	1
125	126	3
133	134	1
86	113	1
65	66	1
36	47	1
78	81	1
97	129	1
146	148	2
101	103	1
91	91	2
150	151	1
79	86	3
146	156	1
99	101	1
52	53	1
153	164	1
5	7	1
95	115	1
181	190	1
119	119	2
75	109	1
159	160	1
128	132	1
91	92	2
74	107	1
110	122	1
145	147	1
85	108	1
107	109	1
83	130	1
73	178	1
143	144	1
109	111	1
30	31	1
105	106	1
107	125	1
