29	29	3
115	115	8
95	164	1
177	177	13
66	68	6
69	70	4
197	197	12
110	110	13
28	28	4
96	96	13
215	215	12
79	79	5
203	203	7
99	99	7
207	207	9
99	103	1
201	201	17
161	162	3
243	243	12
244	244	21
10	10	10
186	186	16
109	109	14
42	42	21
103	164	3
198	198	13
214	215	6
233	237	3
78	80	2
108	158	1
150	150	6
154	154	17
37	37	7
210	214	3
202	202	5
22	22	15
199	199	6
112	114	3
30	30	14
183	185	1
44	44	15
176	181	2
209	209	14
155	156	3
86	93	4
204	205	4
183	184	7
51	51	22
144	206	1
68	68	11
183	183	24
85	85	8
219	232	2
202	212	1
58	58	9
108	109	3
24	24	7
98	98	19
239	243	5
197	198	7
235	237	3
200	200	10
204	204	25
64	64	12
147	147	4
87	88	1
179	179	7
184	185	2
165	187	1
87	87	2
171	171	3
109	110	3
62	247	2
152	152	20
246	248	5
174	175	3
230	230	8
210	210	17
158	205	3
75	75	9
45	46	11
47	47	2
151	151	10
69	69	8
20	21	8
21	22	5
234	234	14
162	163	7
244	246	2
80	80	8
38	38	12
192	192	7
117	117	8
57	71	1
227	227	13
18	34	2
59	59	8
35	35	14
22	34	1
167	167	4
164	192	3
49	49	5
77	77	11
66	66	2
229	229	14
4	4	11
18	18	7
198	199	9
61	61	8
173	173	20
181	181	7
218	221	4
14	14	9
118	119	6
222	223	2
97	97	13
169	169	6
64	77	4
217	218	5
156	156	9
160	164	2
170	170	12
95	95	4
63	63	16
113	114	7
9	9	7
164	164	6
185	185	17
53	53	11
223	225	3
175	193	2
221	221	21
76	77	4
65	65	14
218	219	9
237	237	12
100	100	16
5	5	2
236	236	14
50	87	1
144	145	5
107	114	3
185	186	2
8	8	8
91	110	4
147	154	2
169	173	2
91	91	14
117	118	5
71	71	9
12	12	9
213	213	6
238	238	4
224	231	1
228	228	11
229	230	2
245	245	6
191	192	7
233	235	1
211	211	4
175	177	3
53	54	4
233	233	12
23	23	8
172	172	4
20	224	3
213	214	5
231	231	11
106	106	4
78	78	10
180	180	3
167	168	5
83	85	4
45	45	3
46	47	2
41	41	14
232	237	2
54	54	9
100	241	2
220	220	6
196	196	3
105	105	7
119	119	8
101	104	2
216	216	6
44	45	11
47	89	2
86	86	6
97	98	2
3	3	5
182	182	6
184	184	10
87	91	2
235	235	8
205	205	10
15	15	8
232	240	7
189	191	8
70	70	2
194	194	11
104	117	1
112	112	12
78	84	1
73	74	4
199	200	2
1	1	4
89	90	3
84	85	4
157	204	3
180	181	3
176	176	8
239	240	6
157	157	8
113	113	10
109	155	2
234	235	2
88	88	4
17	20	2
166	168	3
72	72	6
195	196	4
47	150	3
149	149	5
17	17	4
82	83	2
114	115	2
48	68	1
51	52	4
92	95	7
194	195	1
111	112	4
48	48	11
49	50	7
104	106	6
31	39	1
74	74	4
74	116	3
40	41	1
94	94	4
188	188	13
49	71	2
26	26	13
50	50	6
187	189	2
232	233	2
237	240	1
218	218	7
223	223	17
20	20	12
107	107	3
226	226	10
158	160	4
52	52	9
58	87	4
92	92	7
84	86	6
96	243	4
11	11	4
246	246	8
25	25	7
20	26	1
73	73	5
102	103	6
43	228	1
36	36	16
40	40	6
33	34	1
38	41	1
32	32	4
56	79	1
145	145	6
33	33	8
15	33	2
97	120	3
187	187	4
170	194	3
189	189	4
174	174	6
71	88	5
118	118	3
208	209	2
4	5	1
116	116	2
153	153	10
161	161	3
62	62	5
190	192	1
169	184	1
28	38	3
209	210	4
170	189	3
21	21	2
2	3	3
77	82	2
83	219	3
246	247	1
226	227	4
48	157	1
48	49	7
68	69	3
111	111	7
178	178	3
92	93	1
76	76	3
10	12	2
166	166	11
34	39	4
189	190	7
81	82	6
104	104	1
238	243	4
59	60	3
215	218	1
23	39	1
208	208	1
216	217	3
56	80	4
181	183	1
30	223	4
175	175	5
181	182	7
33	210	2
240	240	3
241	241	3
60	61	5
64	66	1
155	155	5
84	84	10
34	34	8
90	90	2
101	101	17
173	208	2
72	115	3
224	224	14
159	159	5
97	163	2
206	206	10
78	79	5
232	232	3
179	181	2
22	35	2
236	245	3
214	214	7
173	174	4
56	73	1
54	55	2
19	224	2
57	57	6
190	190	3
154	155	1
195	195	8
58	60	1
110	111	3
99	101	2
67	81	1
247	247	5
86	97	3
77	79	3
58	210	2
101	108	3
172	173	2
75	87	3
71	104	1
103	103	2
213	215	1
31	31	8
12	17	1
168	168	1
27	27	4
98	102	2
63	74	3
231	241	2
163	164	3
56	56	2
16	16	5
38	39	4
200	201	1
191	191	1
110	116	2
158	159	2
238	242	1
187	190	1
97	102	1
219	220	2
46	231	2
107	108	3
1	2	1
217	217	2
55	55	9
82	82	5
43	43	6
242	242	4
86	87	3
60	60	1
79	81	2
154	222	1
212	212	9
91	103	1
63	88	1
39	39	3
74	115	4
222	222	2
15	18	1
96	103	1
57	58	1
146	153	2
68	86	2
64	65	1
220	221	2
158	158	5
67	67	5
225	225	6
15	16	1
65	66	1
193	193	8
166	170	1
233	234	2
13	13	2
238	239	2
182	183	1
112	113	3
89	89	4
6	6	3
150	157	2
179	180	4
223	224	1
96	99	3
201	202	2
90	91	3
72	78	2
211	212	1
16	227	2
245	246	2
187	188	3
37	183	2
103	107	1
102	102	5
83	83	3
204	235	1
222	233	1
91	93	2
85	92	1
175	176	1
17	33	1
91	152	1
105	117	3
194	196	2
162	162	4
184	199	3
12	18	1
43	226	2
40	52	1
186	188	2
163	166	1
219	219	2
95	163	2
177	184	1
79	80	3
219	240	1
168	169	1
56	57	2
30	224	1
13	18	2
75	77	3
48	98	1
30	31	1
102	105	4
166	198	1
170	171	1
108	108	4
108	159	3
81	81	1
38	40	2
240	241	1
93	93	3
100	164	3
231	232	3
177	178	2
67	68	2
6	8	1
97	100	2
76	78	1
31	38	2
47	113	1
4	30	2
149	150	1
58	79	1
6	31	1
245	247	1
174	205	1
9	223	1
201	204	1
219	243	1
51	62	1
102	104	4
178	192	2
14	18	3
46	52	1
223	233	1
199	202	1
158	204	2
12	229	1
33	36	2
66	80	1
191	195	2
19	22	1
50	68	1
198	200	2
2	5	1
88	106	1
9	10	4
35	36	2
243	244	1
224	232	1
7	7	3
239	248	1
45	186	1
19	19	3
222	224	1
88	116	1
72	114	2
221	225	1
175	192	2
146	147	1
239	239	3
211	215	1
88	95	2
89	117	2
235	236	1
31	53	2
59	87	1
99	100	2
18	19	1
2	2	1
187	194	1
102	107	2
4	35	1
24	110	1
248	248	2
71	72	3
22	23	2
2	28	1
69	80	1
27	223	2
77	78	1
190	191	1
114	114	1
94	95	1
193	194	1
236	242	1
160	160	2
221	222	2
101	106	1
169	171	2
47	107	1
59	116	1
231	233	1
31	32	1
182	187	1
62	63	1
77	84	1
153	184	1
182	184	1
101	102	1
3	5	2
72	73	1
116	117	1
95	167	1
51	68	2
11	12	1
176	177	1
163	163	1
43	44	2
207	229	2
3	33	1
236	237	1
79	86	2
78	86	1
17	34	1
35	39	1
104	105	1
217	219	1
73	114	1
93	95	1
177	190	1
27	28	2
9	221	1
26	193	1
169	170	1
75	79	1
201	212	1
160	161	1
56	58	1
185	204	1
210	211	1
10	11	1
95	162	1
