229	230	1
12	27	1
237	237	15
240	241	1
199	205	5
170	171	7
41	41	1
22	22	4
49	49	5
146	146	1
97	97	6
47	47	2
159	159	3
179	197	4
27	27	2
57	57	7
195	195	2
212	212	4
193	194	8
32	51	3
187	188	4
89	89	2
184	184	4
179	179	2
162	180	3
172	172	4
200	200	2
178	196	1
178	179	2
209	209	10
64	65	2
153	154	2
181	181	4
93	93	3
247	247	4
35	35	8
31	32	1
192	192	3
221	222	2
156	156	1
174	175	1
216	218	3
38	39	3
201	201	10
30	31	3
164	164	10
238	238	10
86	86	6
170	170	2
100	100	2
218	218	9
112	112	4
93	94	2
24	93	3
169	178	1
85	85	4
206	207	2
81	81	3
171	216	5
28	28	2
213	214	3
185	185	1
68	68	3
165	168	2
77	77	2
175	176	2
60	60	4
9	9	2
101	117	1
168	168	4
44	44	1
109	109	3
114	114	10
246	247	1
180	181	3
153	153	4
43	92	1
161	161	5
21	22	3
72	72	3
13	37	1
5	61	1
191	191	3
99	99	2
164	184	3
61	61	1
119	119	5
204	204	3
79	79	5
215	215	8
152	152	1
243	245	3
62	68	2
183	183	7
241	241	8
202	203	1
42	43	3
60	84	2
91	91	5
43	43	6
111	111	6
184	187	2
216	219	2
31	31	4
94	94	4
117	117	2
240	240	5
243	243	3
244	245	3
154	155	1
169	169	7
214	220	3
44	45	2
158	163	1
230	230	4
175	175	3
7	7	3
82	115	1
66	66	3
87	88	3
105	107	4
38	38	1
153	160	1
63	64	2
225	226	1
8	23	2
55	55	1
120	120	2
33	33	5
50	55	1
183	199	1
181	184	3
85	87	1
157	159	1
160	160	7
232	232	5
248	248	4
19	39	1
91	92	5
82	84	3
198	234	1
160	161	1
174	174	2
36	36	2
110	116	2
199	224	1
199	199	3
177	177	2
69	69	1
244	244	6
74	74	1
44	155	4
78	121	1
116	116	1
165	171	2
65	65	1
150	150	3
173	247	3
196	196	3
23	23	2
238	239	2
115	115	1
203	203	2
186	187	3
205	205	4
51	161	1
242	243	2
62	62	1
217	218	5
217	217	1
167	167	3
6	31	2
58	58	2
176	177	2
197	198	3
6	6	4
165	166	2
47	59	1
156	167	2
165	165	2
234	245	1
17	17	4
81	82	3
51	65	3
118	119	1
9	32	1
49	68	2
230	231	2
80	80	3
104	119	2
59	59	3
162	165	1
233	242	2
46	62	1
107	107	1
26	26	3
92	92	2
245	247	2
19	21	3
112	243	2
194	194	2
40	40	2
198	198	3
118	118	1
10	10	3
95	244	2
50	184	2
90	90	2
73	73	1
35	62	1
82	116	1
14	14	1
106	106	1
214	214	3
239	244	2
15	15	1
11	144	1
157	162	2
226	226	2
116	117	1
234	234	4
190	190	1
78	78	1
210	211	1
232	233	4
18	18	2
150	151	1
11	11	1
157	158	1
33	100	2
103	226	2
48	48	2
112	114	1
203	220	1
157	157	3
192	193	4
80	84	2
16	17	2
60	62	2
2	18	1
42	42	5
216	217	2
208	209	3
218	219	1
50	82	1
188	189	2
144	144	1
12	12	1
242	242	1
220	220	3
166	166	1
196	199	3
114	115	1
72	73	1
232	242	1
155	155	1
4	238	1
40	47	3
25	25	3
88	88	1
74	83	1
95	95	2
217	248	1
225	225	1
29	29	1
49	50	3
105	105	1
63	63	1
1	1	1
178	178	6
196	208	3
228	229	2
145	160	2
8	8	2
229	229	1
54	54	1
45	45	1
233	233	1
96	96	2
171	172	2
207	207	2
223	223	2
20	20	1
72	166	2
236	236	1
108	108	2
37	37	1
235	235	3
30	30	2
20	35	1
222	229	1
50	58	2
220	230	1
26	27	1
186	189	1
177	178	1
68	78	1
38	239	1
173	173	2
12	241	1
94	99	1
170	176	1
245	246	2
162	162	2
217	232	1
85	86	1
71	71	2
92	93	1
34	242	1
191	192	1
50	50	1
11	21	2
111	112	1
19	19	1
189	192	1
15	16	1
49	51	1
99	118	1
64	64	1
106	145	2
110	110	1
58	62	1
76	76	1
176	176	1
231	233	1
86	87	1
60	245	1
