24	25	5
29	29	9
24	24	14
34	34	9
60	60	20
19	19	33
68	70	10
40	74	11
18	18	14
9	9	17
7	7	43
1	1	23
47	48	12
67	67	14
74	76	4
58	58	7
6	6	25
46	47	6
25	25	3
63	66	14
52	54	3
48	48	9
56	57	10
42	42	9
31	32	5
45	45	15
12	12	22
74	74	8
22	30	4
41	41	5
59	60	6
56	56	22
5	5	16
70	70	4
35	40	3
66	66	7
44	44	13
60	61	14
75	75	2
27	28	10
33	33	12
69	69	11
65	65	18
73	74	2
28	28	11
18	19	5
21	21	16
57	60	3
29	30	6
20	20	13
68	68	7
50	51	2
45	46	2
0	0	11
3	3	26
57	57	14
46	46	24
38	39	4
24	27	4
2	26	4
23	25	10
26	26	13
54	55	11
35	41	3
57	61	2
70	71	2
8	9	6
2	2	11
46	54	5
23	23	8
52	52	12
10	10	22
49	50	5
11	11	11
10	11	5
30	30	16
14	14	4
64	66	4
32	42	3
35	35	13
48	67	1
21	22	12
55	55	18
36	36	10
7	9	3
43	43	16
44	45	4
40	59	1
46	67	2
47	47	5
1	2	15
11	12	7
8	10	4
23	24	5
70	72	5
43	54	2
4	4	9
41	42	5
37	37	8
48	49	5
50	50	8
5	6	1
31	31	6
8	8	10
51	51	3
7	8	4
73	76	1
1	8	3
39	42	4
25	29	6
38	43	5
28	29	6
9	10	12
72	72	3
13	13	13
76	76	4
20	21	5
59	59	2
3	4	10
40	43	1
26	28	4
19	27	2
19	20	19
72	73	3
37	44	1
73	73	6
29	32	1
28	30	2
77	77	8
59	71	2
0	4	3
54	56	4
34	45	2
2	3	6
22	22	19
43	44	3
52	53	4
30	31	2
2	19	2
55	56	10
67	68	1
71	74	3
39	44	1
18	21	5
6	42	2
53	54	4
43	57	3
12	43	3
33	34	3
26	31	2
63	64	3
58	59	2
4	9	2
24	68	3
37	47	1
45	56	5
48	53	1
62	62	6
5	8	2
40	41	4
71	73	3
46	55	1
36	48	6
28	32	1
66	67	3
58	60	1
27	27	5
23	42	1
5	42	1
2	25	2
65	66	5
0	43	2
22	26	2
44	58	3
9	11	1
53	53	3
58	69	1
1	4	6
7	11	3
69	71	7
39	39	4
4	44	2
3	6	1
62	67	1
49	49	4
29	31	3
71	71	4
61	61	7
21	45	1
52	55	1
37	45	3
62	63	2
12	42	1
40	40	8
6	41	1
35	37	5
4	5	1
49	52	2
42	43	2
69	70	4
47	50	1
12	19	4
21	33	3
8	11	1
3	45	2
30	41	1
39	41	2
72	74	1
26	27	1
74	75	2
34	40	2
45	57	1
68	69	1
36	44	1
47	53	1
36	37	1
45	54	1
8	12	1
62	64	2
66	70	1
7	10	1
14	15	1
43	77	2
33	45	2
51	52	1
40	71	1
59	68	1
22	23	2
35	47	1
13	41	1
11	26	1
49	53	2
65	67	1
34	35	1
49	51	1
21	37	1
54	54	2
46	56	1
12	14	1
