124	124	10
45	45	24
103	105	7
17	40	2
8	8	14
100	134	2
27	27	15
92	92	6
62	95	3
6	12	2
81	81	10
3	3	20
78	79	7
27	93	3
128	128	13
125	126	4
113	114	6
84	98	3
69	69	30
21	40	2
14	14	15
80	80	20
87	91	2
25	38	3
106	109	2
26	26	40
118	118	18
75	76	8
75	75	14
101	101	13
123	123	15
43	43	9
49	50	3
1	2	1
76	76	8
63	63	13
84	122	2
130	130	12
31	32	5
126	126	23
32	32	10
70	70	17
4	4	12
4	18	1
57	57	11
17	17	21
28	90	1
85	87	2
12	46	2
58	69	2
34	54	1
129	129	6
41	43	9
15	15	21
5	27	1
80	81	1
14	15	12
96	96	15
47	47	24
37	38	1
84	101	1
95	95	20
83	94	1
100	101	16
110	110	9
83	122	4
57	72	5
6	8	2
106	107	5
120	120	13
16	16	5
78	78	12
20	21	8
20	45	4
65	65	24
8	9	6
35	35	19
29	29	19
27	28	3
46	46	14
90	90	21
24	43	5
21	21	10
44	44	12
41	41	14
19	19	12
101	102	3
61	61	13
84	87	4
48	89	2
108	108	5
20	39	7
46	95	3
47	95	3
48	50	3
28	28	16
103	103	14
61	63	4
20	20	8
93	93	17
112	112	9
23	80	2
40	42	2
6	7	7
13	13	6
5	26	3
76	82	4
10	10	7
127	131	3
99	99	5
61	72	1
32	33	7
104	104	7
11	11	25
104	105	8
95	102	3
56	56	13
12	12	26
71	71	5
23	24	6
81	103	4
56	57	4
18	18	5
78	87	3
81	99	4
112	113	5
119	119	14
31	31	16
32	59	1
25	25	15
24	24	11
27	98	3
25	95	6
79	79	11
87	87	14
113	113	15
86	113	3
102	102	19
125	132	4
77	79	1
42	43	6
30	32	3
104	116	4
89	90	3
24	99	4
86	86	10
9	9	15
49	49	5
17	18	9
36	36	6
74	74	19
82	82	20
72	72	12
11	12	10
81	109	3
96	98	3
25	62	4
91	91	9
114	114	7
92	93	7
87	116	4
30	90	3
26	27	9
25	47	2
33	69	3
59	59	16
9	25	4
29	31	3
121	121	14
87	89	2
82	95	13
4	38	5
38	38	8
132	132	10
25	94	7
127	129	2
7	7	13
73	74	6
30	48	2
97	97	9
3	92	2
62	62	13
39	80	3
120	124	6
85	86	2
87	94	4
107	107	8
112	114	1
115	115	8
99	100	11
22	22	7
82	83	9
117	119	4
96	100	6
34	72	2
39	40	5
62	67	1
10	60	2
120	121	6
41	42	9
103	109	3
24	25	2
8	21	4
68	68	12
16	44	2
6	15	1
98	100	9
23	98	4
85	85	10
65	93	3
88	88	17
84	123	4
58	58	9
46	96	6
100	100	6
108	109	2
48	48	14
110	111	4
63	64	4
73	73	14
40	41	8
101	134	1
5	45	2
2	2	2
23	26	4
124	128	4
28	29	2
94	94	21
79	80	10
16	101	3
67	67	9
117	117	7
62	63	5
58	59	8
86	90	2
26	31	3
133	133	9
5	79	1
55	56	3
22	40	1
3	65	2
34	102	2
5	5	14
106	106	11
125	130	2
9	23	1
33	33	3
77	78	9
46	47	6
63	72	3
86	87	3
82	121	4
3	63	6
25	77	1
6	6	12
131	132	10
6	94	5
14	23	3
66	66	4
27	47	3
11	81	2
57	59	1
98	98	5
4	5	8
10	13	1
66	68	5
21	80	2
12	14	3
23	23	14
134	134	10
4	6	2
61	70	3
77	114	1
82	86	1
90	91	5
5	6	3
93	98	1
83	84	2
8	76	3
4	45	2
10	30	2
124	125	1
77	77	2
11	20	1
115	116	8
116	116	7
89	89	4
42	42	8
97	102	2
34	34	15
98	99	3
60	60	4
7	11	2
79	81	5
96	97	1
85	104	3
62	64	5
116	117	5
32	60	4
13	32	1
48	49	1
81	120	4
29	62	2
91	115	3
5	74	1
101	103	2
69	70	3
41	61	1
64	64	12
19	20	2
22	47	1
132	133	6
50	50	8
88	89	3
61	68	7
36	37	1
45	66	2
25	29	1
76	77	5
4	56	1
7	93	1
86	105	3
81	106	4
91	113	2
6	40	1
91	114	6
71	75	5
57	58	5
30	30	7
4	11	1
5	7	4
83	83	7
127	127	2
90	112	1
15	33	2
29	37	1
104	106	6
85	90	2
20	47	1
27	92	2
28	78	1
6	41	3
4	7	4
34	57	2
77	85	3
93	94	8
82	96	5
27	80	2
13	111	1
40	40	3
10	12	2
16	17	1
77	93	2
109	109	8
11	93	3
97	98	6
47	86	2
124	126	2
84	85	2
37	37	6
67	68	1
19	41	1
5	48	4
61	62	2
5	44	3
111	111	2
78	81	3
68	72	1
94	95	4
35	36	1
80	82	1
36	76	3
10	58	1
103	107	7
76	85	1
29	30	3
81	95	2
45	48	2
27	79	2
54	55	3
8	101	1
131	131	3
87	88	2
30	36	1
4	17	1
11	26	2
63	73	1
83	87	2
72	96	2
48	84	2
82	85	3
22	23	1
125	127	1
111	112	10
48	98	2
82	106	2
26	32	3
30	37	4
107	108	4
21	41	1
6	20	1
111	117	1
25	26	2
88	90	1
105	105	8
78	95	1
66	67	2
128	129	2
38	49	1
37	39	2
3	4	3
46	66	1
122	122	6
68	69	2
46	61	1
10	11	1
41	56	2
28	48	5
44	45	3
28	98	1
91	92	1
79	93	2
21	43	5
90	114	4
36	93	2
84	84	9
27	86	2
120	129	1
51	56	1
126	131	1
114	115	3
38	56	2
29	47	1
29	38	2
48	54	1
22	94	2
31	123	1
26	70	1
97	119	1
17	36	1
105	106	3
39	39	4
25	75	1
0	0	2
44	48	2
5	11	1
97	101	1
81	107	2
64	68	2
45	63	1
25	27	1
21	22	1
3	8	1
125	134	1
9	41	4
14	28	1
7	101	2
96	99	1
38	39	5
45	89	1
48	94	3
59	60	2
105	115	2
39	41	1
118	119	1
36	77	1
4	27	2
8	22	1
76	94	1
71	72	4
72	73	4
8	36	1
37	48	1
75	78	3
43	46	1
15	37	2
82	103	1
8	26	1
21	38	2
123	124	2
8	23	3
20	76	2
94	97	1
28	80	1
34	35	3
54	56	1
11	75	1
105	108	2
21	42	1
101	108	1
35	75	1
82	120	2
51	51	1
47	48	1
29	59	2
92	115	2
103	108	1
83	88	1
9	10	8
86	94	2
124	129	1
81	96	2
62	68	2
118	123	2
126	134	1
36	75	1
45	68	1
21	81	2
70	78	2
6	100	1
3	6	2
17	57	1
15	16	1
40	62	1
24	29	1
26	46	1
81	115	1
65	67	1
13	14	1
69	72	1
112	115	1
119	125	1
123	128	1
29	84	1
43	44	3
60	62	1
61	101	1
95	118	2
131	133	3
7	23	1
58	118	1
25	72	1
34	60	2
28	97	1
11	60	1
110	122	1
55	55	2
45	64	2
16	18	1
33	78	1
29	39	1
20	43	1
8	96	1
24	28	2
10	29	1
95	96	1
3	11	1
5	94	1
124	130	2
17	103	1
7	92	1
26	93	1
48	85	1
129	130	1
11	78	1
84	88	1
33	102	1
92	114	1
89	91	1
121	128	1
26	80	1
35	74	1
19	46	1
108	111	1
122	123	1
34	73	1
119	120	1
5	18	1
56	97	1
23	42	1
7	98	1
22	36	1
20	25	1
12	47	1
87	114	1
13	19	1
