115	116	11
52	53	2
2	2	4
114	115	9
40	40	17
156	156	19
1	2	5
108	108	12
14	14	4
107	108	14
98	98	5
69	69	13
168	168	25
200	200	21
168	171	2
149	149	10
13	13	5
113	113	13
177	177	36
151	151	35
40	240	2
173	173	14
145	145	9
32	32	24
229	229	18
177	178	9
3	3	14
167	167	27
208	234	4
46	46	20
163	164	9
236	237	9
102	102	15
70	70	27
71	71	12
221	222	6
67	67	22
34	37	14
33	34	6
27	27	19
178	178	25
214	214	22
190	190	13
30	31	8
68	71	2
175	176	16
21	21	14
185	201	7
165	165	22
67	68	4
102	104	6
8	8	16
43	43	25
159	159	30
187	197	2
189	190	12
216	216	18
75	75	11
186	187	7
10	10	21
160	160	23
185	185	27
204	204	25
166	166	15
104	105	4
118	119	15
1	1	16
39	39	9
200	201	12
199	200	6
66	167	3
149	164	1
57	57	15
33	33	21
65	66	7
14	15	8
196	197	5
208	236	7
118	118	31
202	203	1
114	180	3
194	199	2
193	195	7
152	152	22
110	110	29
146	146	13
56	59	2
92	92	15
60	61	14
241	241	19
117	117	26
88	88	16
47	48	5
220	220	17
89	89	32
45	183	3
237	238	5
33	35	2
37	37	20
104	104	16
222	222	25
106	106	16
225	225	20
237	247	7
210	210	36
226	227	12
230	231	7
97	97	12
12	12	13
167	169	1
224	225	5
172	172	24
205	205	34
176	177	12
169	170	17
164	164	28
245	245	15
107	107	15
88	107	2
22	22	25
188	188	8
48	48	12
187	188	20
170	170	24
209	221	3
176	176	20
119	120	4
161	170	5
238	240	4
201	201	26
236	236	25
154	154	28
81	89	1
207	207	38
235	247	1
163	204	3
23	28	1
93	93	11
77	77	27
111	202	3
156	202	1
216	238	5
232	232	21
224	224	4
79	80	13
72	74	12
42	43	5
215	234	1
18	19	2
171	220	2
168	174	4
3	89	1
214	215	10
154	155	9
195	208	7
202	227	6
175	178	1
196	196	13
226	226	13
248	248	8
157	157	17
120	120	27
7	7	21
177	184	12
71	72	4
209	220	2
86	86	17
155	155	22
35	36	5
18	18	21
211	211	18
191	191	14
11	20	5
51	51	23
41	41	22
6	6	21
91	91	11
31	31	30
27	39	2
8	88	5
206	230	2
153	153	30
163	165	4
20	20	18
76	77	8
217	217	16
150	221	1
74	75	8
238	238	21
74	76	10
221	221	19
177	193	6
233	234	2
177	183	6
163	163	20
186	186	28
243	244	6
153	156	6
114	114	21
25	25	8
185	186	8
78	78	16
28	28	12
110	111	3
24	27	5
80	80	8
175	215	1
179	179	14
45	45	24
245	246	20
81	81	17
76	108	2
56	56	23
100	100	17
180	180	25
193	193	20
208	208	29
74	74	7
197	197	23
170	177	2
175	181	8
182	182	28
85	85	8
240	240	32
197	198	18
60	64	2
82	82	16
183	183	11
223	223	16
36	39	4
16	16	13
97	103	1
64	64	13
205	206	3
96	96	14
52	52	4
216	240	1
231	239	2
169	183	2
95	95	30
59	59	33
172	173	11
218	219	13
186	189	4
97	98	3
44	204	3
152	163	1
24	24	11
202	202	18
115	115	24
169	176	1
170	215	1
11	11	15
198	242	1
121	121	10
209	209	29
15	15	11
162	162	25
87	96	3
181	181	22
55	55	9
159	215	2
154	237	3
237	237	18
157	163	4
198	199	11
213	213	15
193	194	5
9	9	22
233	239	1
203	204	8
212	214	6
26	26	27
49	50	12
184	191	5
182	183	4
158	159	8
68	68	16
13	14	5
156	157	7
51	60	1
157	158	15
189	192	4
247	247	35
69	70	5
157	159	3
81	85	7
168	220	8
163	182	2
66	66	19
49	59	2
247	249	8
197	201	3
48	95	1
150	150	28
59	60	3
194	194	8
224	226	5
25	47	1
234	235	2
85	88	9
76	78	2
211	229	2
36	36	10
211	212	6
244	244	18
152	153	13
157	160	12
152	158	2
151	207	5
94	94	13
234	234	18
162	233	2
228	228	16
53	53	17
44	110	2
54	54	13
246	247	2
192	192	19
171	171	28
215	215	17
194	196	5
61	100	1
155	219	1
72	72	13
88	89	10
63	100	1
58	58	11
231	231	21
81	82	7
173	188	4
239	239	11
230	230	18
170	187	3
47	47	13
180	183	4
101	101	12
168	169	14
172	196	4
65	65	26
227	245	4
206	206	20
6	12	3
66	67	3
219	219	17
176	184	4
76	88	3
116	116	19
29	29	8
117	119	3
199	199	13
95	105	6
161	229	1
184	184	25
212	212	14
173	174	5
203	203	8
180	223	3
88	185	2
158	158	10
181	182	6
210	211	9
106	107	7
102	103	7
57	99	5
17	17	9
87	97	2
188	189	2
60	60	11
231	234	3
171	178	8
19	29	8
64	65	8
229	246	1
241	242	7
34	35	16
43	49	6
158	170	2
95	102	2
50	50	21
216	219	1
178	179	9
68	69	6
34	34	19
2	3	7
104	106	8
41	42	3
200	206	2
176	197	7
70	74	3
231	244	4
184	185	1
49	193	5
66	89	2
170	182	6
175	175	17
238	239	4
31	32	3
4	4	2
94	99	1
151	156	3
72	73	4
111	112	2
177	179	8
56	58	3
56	57	6
30	30	6
76	76	16
193	212	3
176	181	2
29	44	2
158	199	5
146	164	1
145	188	1
165	166	9
244	246	2
189	197	4
22	23	5
50	61	3
209	214	2
67	69	1
22	226	4
42	42	19
98	183	2
112	112	22
93	98	2
51	52	6
213	215	2
47	63	2
69	76	2
146	147	5
96	106	2
51	174	1
94	95	7
162	212	4
77	78	6
21	22	6
190	191	6
204	205	1
233	233	9
180	202	4
109	109	8
246	246	17
62	63	2
161	211	3
216	217	11
90	91	3
110	237	1
18	41	2
89	96	2
201	202	9
171	172	1
216	218	2
111	111	13
60	66	3
99	99	14
160	161	3
62	81	1
38	38	9
169	215	5
186	193	5
174	174	10
191	194	2
111	121	1
85	86	1
158	234	2
153	159	4
54	55	3
16	45	6
26	38	3
71	83	2
89	97	1
227	227	16
67	110	4
163	188	3
237	248	1
221	229	2
3	4	2
47	67	4
46	114	1
155	228	5
169	202	1
44	44	15
63	71	1
162	186	1
185	216	2
9	10	10
149	185	1
58	98	6
151	198	4
49	91	2
155	156	7
225	226	5
161	161	10
215	232	1
198	198	6
90	90	11
240	241	6
181	183	1
187	190	3
62	62	13
4	5	3
150	151	1
63	63	21
83	83	10
6	7	3
56	99	5
23	23	12
75	76	4
22	42	3
112	113	6
55	100	3
208	214	1
18	42	5
157	232	3
19	19	17
235	236	2
64	94	1
57	58	10
43	44	1
187	187	12
111	204	3
26	85	1
160	198	2
158	160	2
95	97	5
45	110	4
87	87	7
243	243	5
38	40	2
69	74	6
29	30	10
9	25	3
35	35	15
60	93	4
79	95	1
201	223	2
178	182	1
157	197	2
194	209	4
119	119	14
176	183	3
68	70	3
60	87	5
9	45	1
55	56	2
61	63	1
42	78	5
68	73	3
158	198	1
195	195	11
167	178	1
71	73	12
103	103	3
105	107	4
146	217	3
189	191	4
235	235	14
183	184	3
147	210	2
164	214	4
146	190	4
187	203	4
215	238	4
20	26	4
71	215	1
171	177	3
78	85	3
183	209	1
5	5	4
84	84	10
80	81	5
43	176	2
79	81	6
61	61	7
226	228	2
53	109	1
103	104	2
43	175	2
189	194	5
48	50	1
203	205	2
37	82	3
22	24	3
187	189	4
50	176	1
241	243	6
201	206	1
40	41	3
218	238	4
49	49	24
237	239	2
64	112	1
14	20	3
46	57	3
166	170	3
223	224	2
49	97	3
69	75	2
86	97	3
167	218	1
37	38	5
218	218	11
213	214	6
174	179	4
237	244	2
184	219	2
71	214	3
159	160	5
60	167	2
47	65	2
73	73	4
44	45	4
82	83	3
74	91	1
61	64	1
113	114	1
211	218	2
161	205	2
152	240	4
109	110	8
23	41	3
55	92	2
169	211	2
48	110	4
232	240	2
16	85	1
61	95	2
200	229	1
147	147	2
67	71	1
154	207	5
206	226	2
208	209	4
86	96	4
25	29	2
166	177	1
8	32	1
225	227	1
197	200	2
80	107	7
50	90	2
232	233	1
158	208	1
144	234	3
236	247	3
178	180	3
168	179	2
3	88	2
236	245	1
67	88	1
110	225	3
218	223	2
33	38	2
231	237	4
77	84	1
212	217	3
102	212	1
189	189	18
5	10	2
218	236	3
112	114	4
155	165	1
22	53	3
10	11	2
217	241	3
161	197	4
50	174	6
209	236	2
62	101	1
75	78	2
152	164	3
179	181	6
197	231	4
61	90	1
94	98	1
156	185	3
209	210	1
209	212	1
6	42	2
50	107	2
61	62	5
63	92	7
165	170	2
89	90	3
159	214	1
26	31	1
72	75	3
49	174	1
239	248	1
20	40	2
143	212	2
154	162	2
147	231	1
72	76	2
57	60	2
87	107	2
242	247	3
176	182	1
66	99	2
1	32	2
28	53	1
157	239	1
169	169	10
55	61	1
53	55	1
223	229	4
48	103	4
159	165	3
60	103	1
186	219	2
151	222	1
38	39	5
171	192	3
26	29	1
146	215	3
74	108	1
163	167	1
39	40	1
220	236	1
24	25	4
238	244	1
80	83	5
36	44	2
158	166	1
51	176	3
89	98	2
3	11	1
200	205	1
117	118	3
179	180	3
78	79	4
32	41	2
108	109	3
165	169	2
85	92	1
77	82	5
232	244	3
24	38	2
158	167	1
184	186	2
105	106	3
6	8	1
17	18	6
102	106	2
190	192	3
205	229	4
23	33	2
99	100	5
168	211	5
21	29	1
48	97	2
70	112	1
198	201	3
238	241	6
245	247	1
4	14	3
150	183	3
98	103	1
154	201	4
221	223	4
43	228	1
167	168	4
169	185	8
177	182	2
201	228	1
178	185	2
49	90	1
47	49	2
224	229	4
19	25	1
20	21	1
49	85	1
34	244	4
189	196	2
236	248	2
172	174	3
149	150	4
242	242	2
47	51	1
193	199	1
173	217	2
35	75	2
22	222	1
234	236	2
73	74	2
150	212	2
231	236	1
84	85	3
163	233	2
92	99	2
28	29	2
185	211	1
10	18	2
171	190	1
44	227	1
207	237	2
171	184	4
231	245	1
36	37	2
53	56	1
174	180	1
42	172	3
4	33	1
229	230	5
3	10	2
161	162	3
6	13	1
59	165	1
14	38	1
61	73	2
4	37	1
158	236	2
177	192	1
95	106	2
45	46	3
181	184	4
177	201	1
89	93	1
47	60	2
28	61	4
241	247	2
160	170	1
158	184	1
219	240	1
219	231	2
92	213	1
236	242	4
74	173	1
169	175	1
11	12	1
211	213	6
58	101	3
61	101	3
147	164	2
63	67	2
158	171	2
48	62	1
48	49	4
30	110	2
21	36	2
232	243	2
51	100	2
170	171	3
70	71	2
69	111	1
150	217	1
18	20	1
75	77	3
203	225	1
197	230	1
213	219	1
102	105	5
95	100	1
188	190	1
202	226	1
162	163	2
63	64	1
86	87	1
36	75	1
32	46	2
171	176	1
100	101	2
80	82	2
144	144	1
185	196	3
48	174	3
79	85	1
40	46	1
169	177	1
151	206	3
174	177	1
239	242	1
232	246	2
209	218	1
22	34	2
50	51	1
40	247	3
79	79	2
75	86	2
158	189	1
190	210	2
222	223	2
212	245	2
48	101	1
53	169	1
15	20	1
187	196	2
42	226	1
10	39	1
55	57	2
161	171	1
171	208	1
239	240	1
230	232	3
56	100	1
80	87	1
15	37	1
240	247	2
151	165	1
60	67	1
194	195	1
182	194	1
32	33	1
15	23	1
187	191	1
159	198	1
150	160	1
209	230	1
84	86	2
87	93	2
61	79	2
17	24	1
175	216	1
31	47	3
162	164	1
91	92	1
52	58	1
249	249	1
67	171	1
35	45	1
27	28	3
231	240	1
232	245	2
0	0	1
218	242	3
198	207	1
61	97	1
197	199	1
191	192	3
47	106	1
188	196	1
57	67	2
103	143	1
152	190	1
225	229	2
153	229	2
110	240	1
231	232	3
171	182	1
41	220	3
199	209	1
209	211	2
227	228	1
192	211	1
235	246	3
94	100	1
96	103	1
105	186	1
166	199	1
223	228	1
28	93	1
192	216	1
151	169	1
26	27	1
234	237	1
205	230	1
49	92	1
9	11	1
17	28	1
13	15	1
150	180	2
174	176	1
182	197	1
163	170	2
26	28	2
50	97	1
152	165	1
83	84	2
175	184	1
171	187	1
52	220	1
66	166	1
105	105	1
191	216	1
176	178	1
30	58	2
242	243	1
30	47	1
42	53	1
95	98	1
71	111	1
206	207	1
52	225	1
190	217	1
150	178	1
213	216	1
16	17	2
223	236	1
241	248	1
77	83	1
163	187	1
220	234	1
109	111	1
17	41	1
151	197	2
76	81	1
173	216	1
208	210	1
158	215	1
35	109	1
166	167	1
5	18	1
58	59	1
151	153	1
64	118	1
152	156	1
116	117	1
149	212	1
28	33	1
31	221	1
161	168	1
109	222	1
29	31	1
209	234	1
186	212	1
96	108	1
12	15	1
48	92	1
185	192	1
217	218	1
156	171	1
