15	15	2
160	160	1
86	89	1
47	47	7
84	84	6
1	1	6
94	94	2
63	63	7
111	112	4
71	81	2
90	128	2
113	113	3
141	142	4
44	44	3
114	114	3
6	6	4
108	110	4
96	96	3
156	156	2
144	144	1
85	90	1
40	40	11
44	45	5
153	153	7
90	90	7
64	64	3
125	125	3
49	49	2
57	57	5
167	167	3
44	48	1
56	56	6
116	116	8
146	147	2
47	64	5
155	155	1
141	141	1
93	93	3
5	5	7
1	12	2
90	92	3
130	130	2
105	105	7
77	79	2
18	24	1
18	19	1
43	43	5
46	64	3
24	24	5
13	14	1
164	165	6
5	7	1
70	115	3
113	114	4
52	74	5
99	100	1
71	96	4
93	94	6
110	127	2
19	40	1
21	24	2
143	144	4
23	23	6
42	42	2
119	119	6
131	160	1
46	46	9
80	80	7
53	54	4
163	163	3
38	38	5
25	25	5
131	162	2
36	36	3
83	83	6
85	85	1
98	99	1
65	66	2
119	149	1
145	145	7
128	129	1
140	141	2
123	123	1
131	131	3
135	135	5
73	98	3
16	20	1
52	52	5
27	27	1
34	34	9
9	9	3
93	95	2
22	22	4
132	132	3
54	55	3
15	22	5
101	104	3
152	152	2
170	170	2
142	142	4
69	70	2
114	115	4
62	62	6
40	90	3
2	35	4
51	51	3
3	3	2
106	106	2
108	113	1
166	166	6
19	39	2
77	78	2
162	162	1
88	95	2
8	8	6
54	64	1
34	47	2
119	125	1
86	86	2
141	143	2
109	112	2
136	136	2
100	115	1
48	49	5
92	94	4
14	15	1
70	70	6
10	10	4
74	74	4
1	2	2
108	132	2
55	55	4
99	99	6
92	93	2
147	147	1
112	112	7
70	71	1
2	2	2
65	144	1
161	161	3
37	38	1
39	40	4
127	159	2
117	148	1
7	7	2
73	73	3
47	49	2
83	155	2
91	97	1
46	47	2
107	107	2
90	91	2
110	110	2
165	166	1
92	92	6
45	96	3
144	145	2
88	89	1
25	37	1
81	81	5
70	73	2
18	18	3
17	17	4
97	98	2
56	136	1
8	12	1
169	169	2
75	75	4
21	21	2
44	49	1
15	79	2
140	140	2
119	120	1
8	9	2
103	105	3
9	10	2
19	19	4
162	163	1
25	38	2
41	41	1
72	99	2
167	170	4
20	20	3
48	48	1
35	35	4
122	148	3
77	77	1
7	12	6
125	162	5
6	7	1
71	72	5
83	84	1
18	26	2
33	33	3
78	78	1
8	78	3
116	159	1
18	20	2
4	4	3
5	17	3
14	16	1
54	54	3
13	118	1
50	50	3
129	129	4
169	170	1
101	101	2
70	76	2
0	0	2
62	63	2
86	125	3
84	85	3
14	14	3
98	98	1
126	126	1
12	13	1
149	149	4
103	104	2
73	147	2
110	111	3
73	99	2
55	56	2
8	10	1
117	117	1
79	79	3
53	55	1
118	159	1
164	164	2
44	98	1
11	11	2
81	82	2
47	48	2
133	134	1
127	127	2
66	68	2
78	79	1
118	123	2
89	157	1
109	109	3
91	91	1
136	150	1
75	76	1
80	82	1
128	128	1
55	136	1
148	149	2
49	50	2
16	138	3
100	100	5
137	138	1
71	71	2
39	69	2
87	87	1
166	167	1
112	113	1
22	23	1
52	53	1
27	41	1
20	79	2
69	80	1
71	144	1
70	95	1
124	124	1
4	24	1
89	89	3
15	76	1
33	34	2
138	138	2
95	95	3
72	117	1
37	37	1
109	110	1
100	101	1
134	135	1
67	67	2
21	23	1
34	36	1
139	139	3
99	117	1
97	99	1
125	160	2
26	26	1
26	27	2
64	67	2
0	1	2
64	76	1
41	42	1
80	144	1
160	161	1
12	12	1
104	104	1
20	23	1
107	133	1
35	36	1
