47	47	15
27	27	15
137	137	17
105	133	3
79	110	1
96	96	8
68	68	17
156	157	2
138	138	14
7	43	2
73	73	19
48	51	6
154	154	6
68	69	7
115	115	4
38	39	9
85	85	12
121	121	7
122	122	9
41	41	14
82	118	4
20	20	12
130	130	22
126	141	1
150	151	3
28	28	20
53	53	16
132	132	28
111	111	13
139	139	12
82	82	10
94	95	1
45	45	14
39	47	1
33	34	15
147	148	10
122	154	1
114	114	9
30	30	14
93	109	5
98	99	1
14	14	7
18	18	10
40	41	10
151	152	2
2	2	15
51	51	7
29	29	11
117	117	11
69	69	9
11	25	3
120	120	19
23	24	4
109	109	12
141	152	1
32	86	6
78	78	8
115	116	7
25	25	7
104	105	8
14	22	2
151	151	16
28	29	11
142	154	6
140	145	2
36	36	10
100	100	15
134	134	22
136	136	6
46	46	17
17	17	22
158	158	24
108	108	18
43	43	15
66	69	3
153	154	7
94	94	13
92	93	7
108	109	7
22	45	2
98	98	17
131	131	16
145	145	20
56	56	9
129	129	18
136	157	3
102	103	3
15	31	2
106	106	9
56	67	1
143	144	1
95	95	6
38	68	3
56	79	1
38	38	14
74	106	2
12	14	3
37	37	30
22	30	9
16	87	2
80	81	16
64	90	2
32	32	14
119	123	1
101	101	16
39	43	2
8	9	6
122	123	1
8	8	22
15	15	11
83	85	3
44	99	1
134	141	3
144	145	4
65	65	9
125	149	1
70	89	4
118	118	6
9	9	7
52	52	12
136	141	2
69	88	1
24	24	12
125	125	6
78	79	4
127	155	4
156	158	3
31	39	8
96	97	1
7	11	1
66	67	6
18	19	7
87	87	12
116	116	9
3	3	7
3	4	9
73	101	3
70	70	14
66	73	2
133	133	10
45	46	4
73	129	2
17	18	3
91	92	6
89	89	6
148	148	13
13	45	3
82	117	5
104	104	8
140	141	1
7	7	22
145	146	1
77	77	16
150	150	13
102	115	5
72	72	7
105	106	2
62	63	8
37	67	1
110	110	8
23	134	3
55	55	12
128	128	5
132	133	6
99	99	11
21	32	5
37	39	1
90	91	3
123	123	8
153	153	7
35	35	11
82	83	5
39	53	1
128	129	7
41	42	3
108	143	11
50	50	10
67	68	17
103	117	3
135	138	4
74	155	1
92	94	5
36	41	7
63	63	6
141	141	7
66	155	1
95	96	9
70	71	8
62	136	4
44	44	17
90	135	1
92	92	24
93	112	3
106	107	8
140	140	3
149	149	14
56	70	3
105	105	15
101	119	7
0	5	3
54	76	1
145	154	1
72	78	5
15	37	1
86	86	9
80	80	8
63	106	4
146	147	12
113	113	11
37	38	2
97	97	1
35	36	3
135	136	2
71	87	3
144	144	9
127	127	17
126	126	11
147	147	24
48	48	16
26	26	16
21	21	9
113	143	3
42	42	14
133	135	1
82	86	1
71	71	9
112	112	7
127	128	5
93	94	4
24	25	2
157	157	5
20	116	1
13	13	12
79	79	9
136	137	3
83	119	3
121	122	1
20	21	5
75	76	2
33	33	15
41	43	3
49	49	8
74	74	2
112	113	12
82	99	3
71	76	4
156	156	9
1	1	13
83	84	5
66	66	9
31	31	15
0	2	2
13	14	8
40	40	7
157	158	3
19	19	6
67	67	19
54	54	17
138	157	1
48	49	3
5	5	16
100	101	3
16	43	1
46	47	5
130	133	1
21	22	3
119	120	2
152	153	3
90	99	5
101	102	1
15	34	4
131	132	7
91	91	6
101	105	2
75	75	6
123	124	11
0	0	11
127	154	7
84	87	2
119	154	3
133	139	3
79	112	8
152	155	2
84	84	9
35	95	2
109	110	3
120	138	5
118	139	2
1	2	1
155	155	14
90	120	3
141	142	4
15	16	5
22	22	10
55	157	3
81	81	13
12	12	5
90	90	7
88	88	7
152	152	4
133	134	5
52	53	4
16	16	11
135	135	2
50	105	3
138	158	1
66	99	4
64	64	4
73	100	2
124	124	1
49	50	3
39	39	6
2	7	6
139	152	2
3	8	3
87	88	4
143	143	6
16	39	2
12	13	5
34	34	6
5	115	5
100	131	1
108	142	2
50	52	3
146	146	13
107	107	4
42	81	2
13	43	1
9	14	2
77	84	2
93	93	4
48	50	4
19	68	2
117	118	4
57	57	2
115	133	2
65	89	2
23	23	8
28	41	3
50	63	1
145	147	6
116	117	2
83	83	8
16	22	4
52	54	2
125	135	4
128	139	4
101	151	4
57	106	3
19	45	3
105	131	2
21	30	4
50	51	1
17	23	1
100	130	3
78	111	2
19	47	1
109	123	4
74	108	8
55	56	1
43	50	3
123	151	1
57	61	2
119	119	7
114	115	7
141	144	4
32	85	1
75	110	2
54	83	4
5	11	2
17	39	4
9	32	2
63	64	1
7	46	1
90	97	2
67	147	2
147	149	3
141	149	2
90	94	1
85	89	3
44	45	3
122	143	3
81	83	3
143	149	1
152	154	4
42	85	2
4	4	9
129	130	1
118	157	2
18	46	4
130	131	1
82	135	3
88	89	4
105	123	2
131	133	4
37	54	3
15	53	6
11	12	4
29	30	5
89	144	1
51	53	1
155	156	4
2	3	3
9	10	3
62	62	4
28	34	2
108	113	3
148	157	1
91	134	2
142	148	2
135	137	3
35	96	2
139	151	2
10	10	2
13	47	1
96	106	1
70	121	1
101	129	2
110	111	3
3	50	4
68	89	3
117	147	2
56	136	2
142	143	4
55	91	2
63	70	1
26	27	3
95	97	2
99	100	1
7	8	3
36	37	4
110	112	3
20	118	1
66	95	3
32	45	1
7	10	1
25	26	4
23	41	1
6	6	10
120	129	3
70	79	1
103	137	3
63	136	2
41	50	1
144	146	5
91	93	2
69	89	1
154	155	2
132	139	3
119	126	3
45	84	2
55	99	1
91	97	2
30	33	1
93	111	3
95	106	1
103	103	3
56	107	1
30	31	1
140	152	2
35	40	3
64	87	2
118	119	1
147	153	1
91	120	1
16	37	2
43	76	1
103	104	2
8	10	2
107	113	1
123	126	1
108	141	1
106	133	2
12	18	1
5	6	1
21	34	2
81	82	2
142	142	3
69	70	1
64	89	2
108	110	1
13	18	1
10	11	3
34	35	1
113	151	1
90	146	1
6	41	1
103	145	1
104	140	3
107	134	1
67	104	1
31	36	1
93	132	1
118	156	1
78	113	3
49	57	1
137	141	1
78	112	4
86	88	1
142	144	1
50	54	2
7	21	2
102	142	1
16	20	1
76	76	1
15	38	1
64	91	3
95	100	2
2	5	1
16	17	2
54	55	2
106	110	1
42	45	1
98	128	1
22	23	1
97	98	1
102	102	1
23	31	1
76	77	1
6	20	2
126	143	1
42	86	1
102	124	1
43	48	1
41	48	1
92	134	1
17	56	1
101	128	1
42	50	1
63	85	1
138	139	1
42	53	1
