171	174	1
1	1	9
25	26	8
107	157	1
50	50	8
82	82	7
14	14	6
108	109	1
54	57	3
25	25	12
10	11	4
18	18	2
115	115	2
170	171	7
50	51	4
170	170	2
157	157	2
63	64	2
74	74	7
103	120	5
39	40	7
67	67	13
120	124	3
63	63	5
168	168	11
114	114	5
13	32	3
71	71	6
125	125	4
38	38	7
102	105	2
176	176	7
132	132	4
166	166	13
127	129	3
37	37	17
3	4	3
178	179	2
108	137	2
161	162	4
101	102	12
150	150	12
27	27	6
141	141	7
146	146	6
55	55	10
4	35	2
123	123	6
6	6	6
4	4	10
123	125	4
57	81	2
131	132	3
119	120	3
139	139	10
98	98	2
126	126	1
148	148	4
154	154	10
164	166	1
17	25	1
54	54	4
5	18	3
66	66	6
59	61	3
37	38	3
95	95	8
127	127	5
57	57	18
156	156	5
138	139	7
136	136	10
51	52	1
11	11	11
33	33	9
106	106	8
105	107	3
7	7	6
78	79	4
2	2	3
21	22	4
113	113	5
111	111	4
149	149	7
121	123	2
147	147	9
32	32	21
164	164	2
143	143	1
0	0	4
147	160	2
169	170	1
160	162	5
36	36	9
11	12	5
7	11	1
142	142	8
116	120	2
122	122	5
120	120	6
118	118	4
177	177	3
72	72	3
64	65	6
164	167	4
42	43	1
30	30	14
165	165	5
83	86	1
91	91	5
19	19	6
110	118	2
24	24	12
143	146	3
61	63	2
154	158	1
81	81	1
21	23	2
4	16	4
58	81	3
123	163	4
164	165	2
15	15	10
73	73	4
94	94	3
8	9	4
24	29	6
60	60	8
112	114	1
140	140	3
23	23	4
112	112	5
80	80	9
83	84	2
34	34	1
105	106	2
115	117	1
27	28	5
17	18	1
112	127	1
83	83	8
35	36	2
39	39	8
145	145	7
20	20	3
97	98	1
41	41	18
79	79	14
152	153	6
7	9	1
163	163	4
26	28	3
40	40	3
117	117	3
147	148	4
78	78	6
99	106	4
160	161	5
84	85	2
91	92	2
104	104	4
158	158	11
5	5	3
75	75	2
45	46	3
23	26	2
158	159	4
172	172	7
55	109	1
103	114	1
133	133	5
123	133	1
61	61	4
26	26	4
92	92	6
53	53	6
90	91	2
84	86	3
129	130	3
88	89	2
109	116	1
79	80	2
155	156	5
13	13	7
29	29	9
73	74	2
174	174	7
52	94	6
8	8	7
179	179	3
85	95	6
162	162	4
146	147	2
118	119	4
9	9	7
102	102	5
166	174	1
22	22	11
24	26	6
105	105	2
116	117	3
28	28	12
7	41	3
113	116	4
167	167	3
14	39	1
100	121	1
84	151	2
131	131	6
10	10	13
93	94	1
161	163	2
130	131	1
121	122	5
103	106	1
43	43	2
128	128	5
144	145	5
135	135	6
5	43	3
90	93	3
72	73	1
3	3	5
44	46	1
62	63	1
118	120	2
35	66	2
159	160	1
23	24	2
98	99	2
10	12	2
59	59	3
68	68	4
78	81	1
17	50	2
42	42	8
62	62	6
13	14	2
12	13	6
169	173	3
110	111	1
73	76	1
45	45	4
8	10	3
128	136	2
173	173	9
124	124	3
16	16	5
87	89	1
153	153	3
97	107	1
31	31	6
180	180	5
52	53	2
117	118	2
77	77	2
132	143	6
58	73	2
101	101	1
80	87	1
64	64	3
5	6	9
153	154	3
24	31	3
20	21	1
15	20	2
6	9	4
43	45	6
31	32	4
86	88	3
121	179	1
125	138	2
12	12	6
35	35	4
27	29	1
116	125	2
97	97	3
101	119	1
32	33	1
156	159	1
59	60	1
17	26	1
135	136	2
5	10	4
171	171	5
81	87	2
19	117	1
7	8	1
163	167	1
2	4	4
126	135	1
90	90	1
128	129	1
116	116	2
9	10	2
65	70	1
89	89	2
56	135	2
0	1	2
14	38	1
92	94	5
175	175	1
76	76	4
144	146	3
37	51	2
75	87	1
7	14	2
55	56	1
14	42	1
132	133	1
49	49	2
171	178	2
96	100	2
63	65	2
139	140	1
43	94	1
138	138	6
18	32	4
172	173	4
122	123	2
134	134	4
160	160	3
31	33	2
102	169	1
165	167	6
26	27	5
133	141	1
3	5	2
17	17	3
133	139	1
124	136	1
22	24	1
79	82	1
131	141	1
34	35	2
46	46	1
84	84	2
162	163	2
151	157	1
18	21	1
17	33	2
126	134	1
117	120	3
24	25	1
10	14	2
56	56	1
22	23	1
161	161	1
44	44	3
80	82	1
93	93	1
13	17	1
166	172	2
104	105	1
167	169	2
2	19	3
26	32	1
6	14	1
165	168	2
156	158	1
38	93	3
126	127	1
121	121	3
19	115	1
66	67	2
51	51	3
95	96	2
109	109	2
40	41	1
2	12	1
62	64	1
155	158	1
55	62	2
168	169	1
57	58	1
95	102	1
124	125	2
58	68	1
86	86	1
110	110	1
43	44	1
3	7	1
107	169	2
40	90	2
16	34	1
6	36	1
115	118	6
30	31	1
163	166	1
117	124	2
38	39	4
11	14	1
95	108	2
86	97	1
98	101	2
15	35	1
22	32	1
166	167	1
167	176	2
111	112	3
25	27	2
53	71	2
3	45	1
86	87	1
152	152	1
19	116	1
16	116	1
49	51	1
58	75	1
16	18	1
137	138	1
6	15	1
5	45	3
16	165	3
154	169	1
102	103	1
159	159	4
41	109	3
63	126	1
85	151	1
96	96	1
170	174	2
13	16	1
52	68	2
10	16	1
178	178	1
103	121	2
60	64	1
86	99	1
124	163	1
119	119	1
127	128	2
151	152	1
10	13	1
170	175	1
82	87	2
41	42	1
111	113	1
4	19	1
169	179	1
126	128	2
113	114	1
70	71	1
167	168	1
125	126	1
29	30	2
171	175	1
94	100	1
140	180	1
13	21	1
30	33	2
19	21	1
84	104	1
14	16	1
37	53	2
154	157	1
31	34	1
157	158	1
18	19	1
31	35	1
11	15	1
1	35	1
92	93	1
