115	115	14
45	45	8
97	97	28
6	15	1
81	88	8
3	65	4
77	77	21
106	134	5
100	101	5
19	20	9
120	120	21
14	120	2
105	105	9
113	113	28
35	35	16
86	87	3
78	78	15
108	110	8
44	44	8
51	52	3
122	132	1
25	127	1
104	105	5
95	95	8
3	3	9
112	112	21
103	103	9
30	30	9
10	16	4
109	110	10
105	120	5
32	34	4
120	128	2
55	65	1
100	100	9
85	87	5
82	82	12
5	6	1
93	105	4
119	119	19
106	106	13
98	98	8
114	115	6
76	76	12
109	135	1
133	133	7
114	114	6
52	54	3
19	21	2
122	122	10
22	22	9
130	130	8
92	92	7
79	79	14
90	94	1
87	87	4
85	85	32
71	71	20
94	94	15
3	4	17
114	126	2
7	15	3
63	63	17
127	127	12
60	60	7
21	21	12
22	118	1
58	87	2
5	5	6
21	23	5
107	109	5
66	66	11
83	83	7
92	93	2
44	45	7
118	118	15
91	91	9
122	131	1
13	13	4
131	131	11
53	56	3
29	30	5
60	64	3
91	92	2
58	58	11
37	37	5
33	33	10
111	111	17
124	124	13
36	37	5
56	57	3
107	111	1
43	99	1
22	23	5
126	126	11
24	24	8
106	122	1
72	72	8
78	95	2
9	10	3
57	85	4
50	50	13
121	122	3
119	120	10
125	125	17
96	96	8
124	126	1
17	17	4
4	5	6
98	115	5
101	114	5
110	110	12
134	135	3
7	7	7
62	116	1
52	101	9
15	15	13
62	99	1
3	31	1
58	60	3
34	34	7
128	128	8
61	87	1
52	52	9
64	64	12
26	28	6
129	129	6
90	90	12
57	92	1
74	74	14
84	84	10
74	120	2
86	86	10
54	54	21
80	95	5
20	20	9
65	77	3
72	109	2
54	68	1
9	9	6
123	128	2
118	123	2
59	59	12
34	35	7
135	135	2
25	129	3
120	123	2
67	67	15
104	104	17
66	67	8
118	122	6
18	34	1
65	65	9
79	80	6
0	0	6
120	122	6
4	4	14
28	32	2
72	77	2
2	2	8
110	117	3
78	87	5
124	125	5
61	67	2
99	101	1
59	60	4
19	19	3
1	2	4
123	123	7
73	110	4
69	86	1
6	7	1
10	11	2
14	14	10
117	117	3
67	73	12
11	35	4
23	23	16
89	89	6
128	129	6
80	84	6
111	135	2
110	111	5
29	32	4
99	99	7
96	98	2
56	56	7
82	96	2
96	97	11
24	129	1
118	129	1
52	78	1
109	109	15
37	115	2
45	84	2
17	18	2
75	75	7
109	129	3
128	131	5
10	10	10
12	12	10
11	18	1
59	63	2
102	102	10
38	38	8
8	15	3
29	29	14
71	72	2
123	124	1
77	125	2
91	103	3
123	133	3
112	122	3
68	100	5
14	15	2
82	83	4
121	121	14
62	62	16
16	16	8
106	109	1
113	120	1
1	28	1
53	53	14
77	133	1
72	89	3
81	81	6
72	79	2
32	32	6
25	25	9
99	106	2
47	50	1
63	70	2
79	99	5
57	57	6
98	105	4
13	14	3
26	27	1
80	134	2
7	9	4
121	128	2
32	33	6
20	23	1
43	43	15
107	132	2
48	48	4
36	36	9
18	18	4
78	86	2
49	50	3
62	115	5
74	76	1
76	77	5
70	70	5
111	115	2
25	26	2
31	31	7
101	101	7
106	110	8
108	108	11
38	83	9
69	69	8
70	103	2
122	123	8
43	127	4
75	76	1
73	73	12
69	70	5
65	67	1
100	115	3
57	97	2
69	88	1
116	116	10
63	64	6
66	85	2
116	133	1
0	53	1
127	132	1
67	83	3
36	49	3
1	4	2
118	119	4
113	114	4
8	8	11
24	25	2
50	79	3
93	94	2
69	74	3
55	84	1
93	93	10
57	58	7
64	67	2
89	90	7
50	100	3
62	85	7
126	128	3
26	26	8
68	69	3
58	85	1
25	27	2
98	134	1
132	132	8
66	77	2
28	28	4
61	61	5
38	64	2
1	3	4
0	1	3
113	130	1
76	133	3
80	80	12
107	108	2
11	34	3
91	104	2
80	94	2
61	116	2
83	85	2
61	77	3
90	91	1
108	109	4
79	100	2
98	119	2
6	13	1
42	42	1
55	56	1
126	127	1
62	63	5
27	27	6
32	96	1
80	96	2
44	95	1
55	55	8
71	75	3
112	117	1
1	5	2
42	43	1
71	76	2
78	100	2
62	91	1
58	68	4
31	33	3
130	131	2
72	110	2
69	78	1
116	120	3
52	53	3
59	68	3
48	64	3
112	126	2
43	95	2
20	22	4
50	56	1
73	76	2
108	134	2
69	82	2
90	105	5
68	78	2
117	118	1
71	73	3
21	28	1
35	88	3
71	77	2
84	95	1
6	6	5
119	122	1
77	78	5
102	103	3
113	124	1
24	48	1
49	85	1
111	112	1
123	125	1
106	107	3
84	85	4
58	117	1
103	105	4
33	34	5
109	111	3
97	99	3
97	105	2
81	90	2
88	94	2
129	132	2
98	106	3
11	11	4
125	133	1
73	74	5
82	87	1
66	78	1
103	104	2
67	86	1
116	117	4
134	134	5
119	131	3
86	88	2
27	28	1
47	47	4
43	50	3
2	3	2
120	132	1
47	65	1
7	8	1
16	17	2
49	49	6
83	88	1
24	45	1
31	32	1
56	84	1
124	133	1
110	132	1
79	81	1
112	128	1
27	32	3
98	99	2
19	32	2
22	129	1
73	77	3
52	100	1
18	32	2
80	81	1
75	105	2
87	88	3
106	113	1
97	108	1
81	96	2
60	113	1
9	13	1
101	102	2
53	60	2
70	102	2
115	117	1
65	73	1
74	94	3
73	79	2
6	12	3
97	98	2
45	65	2
113	119	1
99	133	1
98	133	3
55	57	3
70	71	2
79	88	1
37	38	3
38	49	3
105	106	1
117	132	3
24	46	1
100	107	1
65	68	4
5	88	2
24	115	3
53	58	2
68	70	1
106	132	1
55	68	2
58	84	1
24	27	1
26	130	1
119	123	1
88	88	4
126	133	3
1	1	5
99	100	2
26	127	2
80	101	2
27	31	1
102	104	1
110	134	1
104	115	1
61	69	1
11	17	1
120	121	2
70	74	1
43	57	1
50	78	2
112	113	2
100	134	1
66	100	1
85	95	1
106	111	3
129	131	1
68	68	3
105	118	2
67	100	1
47	53	1
68	73	1
108	121	1
62	69	1
62	70	1
61	88	1
126	130	1
13	80	1
132	134	1
80	98	1
72	99	2
111	129	1
70	124	2
83	84	1
35	81	1
82	84	1
98	111	1
127	131	1
99	114	1
129	130	3
74	75	3
107	107	1
54	55	1
72	76	1
64	65	1
68	72	1
21	29	1
44	82	1
8	9	1
95	96	2
46	46	1
61	62	2
77	109	1
26	53	1
23	118	1
74	116	1
117	121	1
66	69	2
0	3	1
72	111	1
107	113	2
47	48	1
50	115	1
56	86	1
115	133	2
89	92	1
2	65	3
118	132	1
3	64	1
108	120	1
126	131	1
76	124	1
72	92	1
50	71	1
72	78	1
80	135	1
10	12	1
53	54	1
52	61	1
6	106	1
24	131	1
80	88	1
96	135	1
13	79	1
