92	92	4
81	81	5
103	103	9
152	154	2
145	145	6
147	147	7
21	23	1
43	43	12
14	14	16
52	52	15
71	72	7
119	121	10
2	2	13
48	49	16
156	156	2
38	38	17
98	114	2
135	135	15
71	71	9
165	166	4
119	120	3
152	152	5
42	42	20
161	164	6
155	155	14
3	3	18
142	142	8
11	13	6
39	41	5
35	35	13
95	99	2
80	80	7
135	136	5
47	47	6
89	90	13
139	143	6
121	122	6
36	36	13
107	107	8
55	55	13
101	101	8
57	57	7
3	5	8
7	8	8
100	101	6
108	108	15
49	49	12
78	78	6
49	58	5
53	53	6
7	11	3
1	1	18
67	67	2
82	82	5
13	14	6
76	76	6
100	100	14
145	153	10
130	130	11
48	48	6
7	7	11
33	33	12
0	0	6
129	129	11
37	37	13
2	3	4
77	77	8
117	117	7
99	100	6
159	159	11
46	47	15
128	128	10
43	46	4
19	19	29
109	109	6
24	24	8
101	105	2
20	20	15
69	69	7
5	6	6
129	130	7
26	26	11
47	48	3
127	127	5
151	151	7
54	56	4
128	129	2
114	114	15
68	68	9
62	62	10
122	122	12
44	45	14
115	117	3
50	50	15
116	116	10
65	66	5
84	89	1
154	154	3
9	27	4
165	165	3
3	9	5
35	42	2
133	133	9
41	42	4
45	46	3
133	134	4
116	118	4
90	90	6
108	144	1
109	111	5
131	134	2
76	90	2
24	25	5
146	147	4
113	114	2
1	2	9
39	40	15
64	67	3
88	88	3
3	4	13
143	143	8
136	137	3
105	105	8
104	105	2
109	110	7
20	21	7
44	44	23
83	84	4
142	143	4
50	51	3
8	8	9
16	17	5
39	42	3
55	56	5
119	119	3
36	37	2
17	17	22
66	67	7
108	112	3
76	77	8
87	87	7
154	155	4
132	132	8
52	58	4
86	86	12
126	127	5
145	146	1
14	107	2
45	45	14
129	131	4
120	120	4
112	113	5
112	137	3
79	102	2
90	91	1
27	27	13
35	36	5
13	13	13
15	16	6
158	162	2
11	11	9
168	170	4
169	169	7
54	57	4
102	102	5
15	18	3
121	121	6
41	41	7
40	41	6
136	136	15
114	116	4
52	55	2
40	40	12
134	135	9
162	168	1
44	46	6
153	154	10
1	4	3
89	89	2
51	51	14
84	84	6
160	162	3
16	16	3
134	141	1
125	125	3
35	38	7
98	147	5
113	159	4
109	113	3
77	78	4
74	74	9
155	159	4
95	98	2
42	43	7
79	80	7
147	148	4
156	161	2
20	22	2
36	42	3
112	112	7
8	20	3
46	46	5
6	9	4
161	162	5
4	5	10
110	110	4
120	121	7
54	54	7
98	98	1
112	114	3
111	112	13
96	100	1
79	79	5
167	167	9
138	138	11
65	65	3
34	34	5
5	5	9
161	163	2
164	164	3
58	62	1
119	122	2
26	28	6
166	167	3
141	141	5
144	144	10
124	152	1
39	39	17
12	18	1
144	145	3
148	148	10
11	12	5
85	88	2
57	58	1
139	141	1
116	117	3
34	35	4
73	73	2
15	15	17
56	57	6
137	158	6
104	104	7
69	70	2
23	23	10
97	116	1
78	82	3
92	114	2
166	166	7
4	4	19
123	123	3
0	1	9
52	53	2
161	161	7
10	10	3
33	35	2
63	153	1
19	20	4
10	11	8
164	166	1
106	106	6
133	135	1
138	139	7
61	61	1
55	58	1
13	18	6
131	133	1
77	79	3
152	166	4
21	21	6
49	51	3
118	119	5
139	140	5
37	38	5
98	99	5
6	6	14
140	141	2
6	10	2
91	94	1
18	20	4
115	116	5
96	96	6
111	116	3
45	48	4
154	156	1
19	21	1
153	153	8
99	99	3
18	18	1
56	56	12
37	52	3
9	9	6
78	79	5
131	148	3
168	168	1
163	164	3
91	95	1
169	170	1
126	126	12
113	113	5
149	157	2
38	40	2
108	109	5
127	129	1
55	69	8
111	111	5
127	148	2
137	137	1
12	12	13
62	108	1
68	69	6
150	150	9
53	54	2
43	77	1
159	160	3
8	10	3
12	15	1
22	22	7
1	9	4
125	154	1
95	142	2
124	135	2
24	133	4
7	10	3
6	8	1
143	145	1
25	25	4
117	122	4
113	121	4
48	50	3
85	85	4
83	83	4
93	93	4
150	151	3
47	49	1
139	139	2
147	154	1
91	93	5
23	24	6
36	44	2
8	9	7
97	98	4
162	163	1
93	94	2
4	6	2
33	34	3
94	104	1
6	26	2
137	138	4
66	66	4
70	70	1
12	16	1
80	81	7
62	63	3
155	156	2
159	161	1
103	104	3
102	103	2
75	78	4
151	152	2
39	49	1
21	22	4
64	69	4
132	133	1
3	6	2
50	52	1
110	111	1
124	124	5
41	52	2
23	25	3
49	53	1
160	160	3
58	58	6
115	115	2
13	15	5
81	82	2
162	162	2
164	165	5
49	54	2
128	132	4
140	140	2
6	7	4
49	50	1
96	115	1
130	131	2
64	64	6
92	112	3
75	75	1
92	93	3
166	168	2
71	73	4
168	169	1
26	27	2
40	45	2
112	155	2
52	54	4
21	27	1
2	4	2
43	45	1
130	165	1
8	110	2
86	87	1
2	7	1
40	47	2
34	43	2
18	19	1
72	72	2
85	86	3
64	66	2
54	58	1
94	94	3
22	23	3
154	158	1
117	118	1
132	146	2
63	63	2
9	11	2
134	143	1
26	134	1
50	58	1
135	150	1
22	24	2
114	123	2
114	115	1
113	125	2
17	19	1
12	19	2
107	109	1
47	54	1
155	157	1
38	42	4
158	158	1
94	96	1
146	146	1
69	71	1
79	82	2
109	116	1
55	72	1
130	148	1
156	157	1
74	75	1
152	155	1
129	149	3
96	97	2
139	155	1
14	15	1
91	91	1
70	71	1
93	112	1
100	105	1
155	158	1
131	131	1
111	156	1
118	118	1
154	166	1
126	130	1
156	160	2
170	170	1
12	13	1
160	161	1
144	146	1
98	116	1
97	97	1
138	142	1
8	12	2
39	50	1
43	47	1
120	123	1
82	83	1
18	22	1
131	151	2
113	136	1
73	74	1
106	107	1
110	112	1
103	105	1
127	128	1
