78	78	25
4	28	2
16	32	1
33	34	13
84	84	8
59	59	18
29	29	39
79	79	18
41	42	5
78	80	2
86	86	17
14	14	13
4	5	13
94	100	8
57	57	16
32	32	36
36	36	37
73	74	5
39	39	6
94	99	2
2	3	8
26	26	15
93	93	24
41	41	6
104	105	4
96	97	12
9	10	10
7	8	2
108	108	16
5	5	30
33	33	16
126	126	10
8	11	2
81	82	9
65	65	19
27	27	31
61	62	4
56	56	16
77	77	22
113	117	3
17	17	22
69	69	21
17	18	5
63	63	19
40	40	6
130	130	16
13	13	17
112	112	19
94	121	1
66	66	23
43	43	9
23	74	4
97	97	10
90	90	10
2	2	12
98	99	11
113	113	17
4	4	28
78	87	2
57	58	10
122	122	11
120	120	12
76	76	12
45	45	26
88	88	8
6	6	19
28	28	13
8	9	9
22	22	3
27	28	12
80	81	7
83	83	14
94	95	15
44	73	4
12	12	19
72	73	3
90	91	6
21	62	4
18	18	36
61	61	18
10	10	19
87	87	13
11	11	43
11	101	1
28	29	4
75	76	6
75	75	22
125	125	13
7	25	5
11	100	3
72	72	23
47	47	38
66	67	5
60	61	9
70	70	22
48	48	14
121	121	9
45	71	3
64	64	15
124	134	3
9	9	25
34	34	34
27	80	3
114	115	9
99	99	8
35	35	22
99	101	5
35	82	2
65	66	5
85	86	5
78	79	9
35	38	3
28	59	4
106	107	5
58	59	4
94	94	16
100	100	11
26	80	3
123	124	12
131	132	2
8	8	23
82	82	15
3	3	12
24	83	1
5	95	4
57	83	1
20	22	2
7	7	13
106	106	3
40	41	7
29	32	2
111	112	2
6	16	2
107	108	1
33	35	1
62	62	7
125	126	10
71	71	13
31	31	16
6	31	2
8	12	1
128	128	12
38	38	4
46	46	28
26	27	10
113	114	2
115	115	6
89	91	5
91	91	5
73	73	24
68	69	6
76	77	12
96	96	14
118	118	10
109	110	6
24	24	11
46	47	23
17	73	1
16	16	23
11	13	6
131	131	11
6	10	2
82	83	2
127	127	15
103	103	7
95	95	18
71	72	4
58	58	10
44	44	16
33	60	3
26	31	5
49	49	6
29	30	10
12	37	4
36	38	2
64	70	5
120	121	4
23	24	4
8	34	3
32	33	10
133	133	7
27	98	2
96	98	4
7	60	1
107	107	6
60	60	13
18	33	3
119	120	4
91	94	3
19	20	10
130	131	2
25	48	1
18	19	2
21	22	6
15	16	6
32	100	3
1	2	4
60	93	2
134	134	4
108	110	2
119	119	13
79	80	3
93	103	1
101	102	3
20	61	2
116	116	4
81	81	20
132	132	2
123	123	7
9	36	1
10	12	2
12	46	2
44	45	3
56	57	5
3	12	2
23	23	9
74	74	8
127	133	2
111	111	7
1	1	2
37	37	11
18	35	3
11	93	5
27	100	3
68	73	1
78	107	4
5	6	9
66	84	3
47	93	5
110	111	2
98	98	10
44	70	2
16	17	6
15	15	9
46	86	1
80	82	4
42	42	5
102	103	5
47	48	4
68	68	18
19	19	14
13	21	3
19	31	7
27	29	3
4	43	4
43	69	1
21	21	14
21	84	5
4	7	2
18	44	1
17	43	1
78	86	2
30	30	8
124	124	5
80	80	6
22	23	6
101	101	16
25	33	3
26	48	3
3	5	3
39	81	2
35	37	3
31	36	2
12	13	5
3	99	1
20	21	3
11	12	8
61	72	4
3	25	2
45	46	2
79	122	1
19	43	1
43	44	8
109	109	5
62	63	6
103	104	4
99	100	3
46	76	2
129	129	5
35	36	18
83	86	3
69	70	3
46	88	1
89	90	4
85	87	5
48	88	2
61	75	6
26	30	2
11	23	2
82	85	1
25	25	6
80	84	1
22	36	2
126	127	6
28	97	2
28	60	1
31	32	3
117	118	4
76	83	4
36	37	4
127	129	4
55	55	4
66	83	3
19	33	1
118	119	1
45	91	2
116	117	3
106	131	1
17	48	1
26	47	1
103	105	4
25	82	2
3	116	3
55	56	2
91	92	1
85	128	5
4	6	2
66	85	1
48	90	3
77	78	4
71	74	1
34	35	8
67	67	7
0	0	9
7	65	3
102	102	8
90	93	2
63	64	9
10	11	7
8	14	2
25	26	5
63	74	3
27	71	4
47	80	3
95	96	6
20	20	4
46	102	1
43	55	1
127	128	3
14	15	3
20	23	2
104	104	9
24	32	3
113	116	1
109	111	1
114	114	6
78	83	2
68	70	1
28	30	2
48	80	1
27	93	3
132	133	6
17	44	3
61	65	1
27	30	3
7	98	1
85	88	3
29	47	2
10	23	1
38	41	1
8	30	3
26	73	1
34	74	1
67	68	3
82	84	1
95	98	1
31	61	1
93	95	1
12	78	3
20	62	3
28	96	1
6	8	3
3	98	3
126	134	1
14	18	1
46	62	1
84	85	4
7	28	2
42	43	5
74	96	2
6	101	1
26	29	1
25	46	1
74	102	1
62	77	2
70	71	4
2	101	2
5	32	2
80	93	2
8	83	5
92	93	3
85	94	1
43	83	2
30	82	1
11	27	1
30	78	1
74	75	3
28	91	4
95	101	2
19	30	4
23	100	2
26	46	1
17	46	1
8	27	1
57	82	1
20	24	1
13	102	2
44	47	1
105	105	3
85	85	3
21	35	2
60	84	2
43	74	1
15	97	4
11	26	1
115	116	2
29	49	1
39	44	1
13	47	2
12	35	2
55	83	2
62	64	2
24	82	3
45	48	1
30	31	2
23	25	4
20	35	1
34	36	1
101	131	1
12	23	2
5	88	2
22	25	1
3	43	1
43	48	1
40	42	2
37	38	3
43	47	1
51	55	1
96	100	1
22	35	2
62	94	1
37	43	2
91	93	1
4	25	2
6	96	1
62	95	2
24	37	2
117	117	2
27	70	1
40	49	1
21	85	1
57	59	1
5	11	1
32	76	1
6	89	2
107	109	1
66	88	1
61	77	2
37	41	1
128	129	1
92	92	4
7	97	1
96	101	2
36	48	2
25	47	1
76	78	1
80	106	1
6	95	2
27	91	2
62	93	1
55	82	1
39	40	1
36	47	3
93	94	1
34	73	1
60	101	1
25	49	1
38	82	2
14	33	1
63	77	1
29	31	1
112	113	1
48	49	1
83	85	1
35	78	1
9	11	1
15	28	1
84	87	1
26	88	1
129	130	3
87	88	1
8	36	1
67	69	1
18	43	1
48	73	1
95	124	1
108	111	1
83	84	1
38	51	1
25	60	1
24	25	2
110	110	1
44	72	1
93	123	1
75	77	1
122	123	1
15	27	1
11	29	3
96	102	2
27	92	1
27	69	1
34	86	1
50	50	1
38	81	1
132	134	1
11	31	1
7	89	1
47	85	1
15	115	1
113	118	1
13	14	1
10	28	1
37	39	1
