92	92	7
64	64	3
72	73	8
109	110	3
113	114	2
106	107	4
69	72	4
21	21	4
80	80	10
76	76	15
87	88	3
75	75	11
104	104	1
90	91	3
28	29	3
32	34	4
26	26	11
66	66	7
102	102	6
83	84	3
96	96	8
100	101	6
92	100	3
99	99	8
51	51	13
105	105	6
95	101	2
42	42	8
93	93	2
94	94	10
85	104	1
105	106	3
32	32	5
38	38	4
28	28	5
49	50	3
81	81	2
109	109	7
77	78	2
80	81	1
73	74	8
40	40	9
95	109	1
114	115	3
79	82	2
27	27	7
89	91	2
53	54	8
110	110	10
51	62	1
113	113	11
89	90	3
88	89	8
45	45	7
65	65	13
108	108	9
77	77	4
86	86	1
85	85	3
24	25	4
41	41	3
62	62	10
79	81	2
111	111	10
44	45	3
19	41	5
70	70	4
71	71	18
58	59	3
43	44	7
49	49	4
81	82	2
34	35	1
74	74	3
36	37	4
33	33	7
73	73	8
50	50	8
87	87	1
76	77	6
19	20	4
103	103	11
80	95	1
52	53	1
86	89	3
59	59	6
87	89	5
41	42	4
54	54	3
47	47	4
37	38	8
82	84	7
84	84	8
35	36	2
110	111	2
61	61	4
22	32	1
97	97	5
115	115	4
22	23	1
76	80	5
104	109	1
71	73	1
31	31	4
99	102	1
98	98	4
101	101	5
89	89	1
31	40	1
85	102	2
42	44	2
60	60	9
100	100	2
88	92	1
79	79	7
89	93	2
48	48	5
29	31	3
55	55	3
64	69	3
90	90	6
33	34	6
72	72	6
60	72	9
75	77	6
50	51	2
59	79	1
114	114	7
20	20	3
69	69	3
37	37	6
79	93	2
106	106	6
56	57	3
67	67	5
85	105	2
79	80	2
66	70	1
112	112	3
68	68	4
39	39	4
113	115	3
78	78	3
25	25	3
54	56	1
107	107	8
91	91	7
63	63	3
44	44	1
35	35	3
33	35	1
77	94	1
30	30	3
60	61	3
24	26	1
108	110	4
57	57	2
67	68	2
59	60	1
92	93	2
60	78	3
107	109	2
103	105	3
55	57	3
90	104	3
34	34	2
80	97	1
85	86	1
56	56	1
59	61	2
59	66	1
58	58	3
105	107	2
54	76	1
82	85	2
84	85	3
23	37	2
97	104	1
64	65	2
38	39	2
57	58	1
27	28	1
46	46	2
95	95	2
82	82	1
29	29	4
83	85	1
42	43	2
23	32	2
96	98	3
36	39	1
88	88	1
99	100	1
19	19	1
78	95	2
72	75	1
83	102	2
101	102	1
71	72	1
78	79	2
58	67	5
50	77	1
94	95	1
102	105	1
73	75	2
96	104	2
104	106	2
83	83	2
50	61	2
46	47	3
69	78	1
45	48	1
22	39	1
24	24	1
66	87	1
106	109	1
98	99	1
104	105	2
30	31	3
94	101	1
104	108	2
56	61	1
65	66	1
53	53	3
38	40	1
61	62	3
64	66	1
80	83	1
91	94	2
54	55	1
54	57	1
98	104	1
51	52	1
79	95	1
26	32	1
107	108	1
70	71	1
64	85	1
46	48	1
