5	37	1
95	95	11
78	78	18
98	98	5
108	108	19
115	115	8
137	137	16
114	114	20
109	119	4
74	75	5
74	74	4
94	95	11
75	76	6
30	31	5
116	118	3
1	1	21
109	109	17
7	23	4
125	126	8
22	23	4
34	34	12
113	114	8
28	29	10
73	73	5
35	36	2
118	119	4
28	37	3
117	117	9
28	28	6
36	36	18
77	78	7
131	131	28
119	120	5
110	110	10
16	16	14
113	113	15
108	110	2
106	106	17
129	130	8
72	73	3
97	97	10
91	91	13
94	94	7
87	87	9
116	116	6
72	72	15
4	4	18
30	30	20
93	93	14
119	119	12
2	2	10
27	29	2
16	108	2
134	135	4
138	138	13
121	121	19
110	111	9
3	3	17
111	111	10
129	129	6
118	118	15
84	85	13
100	102	2
0	0	8
134	134	18
25	26	5
9	23	4
88	88	10
81	81	7
89	89	13
111	115	3
33	33	16
107	107	5
18	100	1
25	25	3
88	120	1
124	125	6
22	22	12
73	74	1
19	21	3
8	8	13
19	20	3
106	107	3
135	135	9
112	112	7
121	122	3
79	79	11
16	126	3
83	89	5
127	127	12
37	37	17
27	27	7
87	103	2
7	7	18
126	126	17
17	21	1
100	100	10
6	6	6
3	5	1
11	11	13
140	140	9
95	96	6
125	125	16
13	13	1
109	110	5
71	71	8
105	105	6
80	80	9
122	122	17
5	5	15
9	10	3
13	16	1
88	91	3
18	18	6
79	80	7
36	37	3
81	82	3
97	127	3
110	112	1
122	123	9
120	120	13
96	98	6
29	31	3
76	77	3
116	117	5
78	79	2
12	103	2
130	130	19
19	19	8
96	96	6
93	94	6
84	84	5
21	22	3
72	116	4
112	113	5
104	104	3
136	137	5
21	23	1
17	19	4
128	128	6
26	26	6
85	86	4
104	109	1
21	21	10
131	133	2
86	86	7
133	133	10
31	31	8
3	6	3
37	38	8
10	11	4
15	15	10
6	20	1
92	92	14
102	102	12
103	122	2
12	12	3
38	38	6
132	132	8
139	139	9
35	35	10
24	24	15
103	105	2
4	112	1
104	113	6
23	23	8
111	112	2
120	121	3
119	122	3
90	91	2
126	127	1
132	133	3
135	136	1
29	29	7
136	136	9
8	26	5
32	125	1
78	117	3
82	86	3
104	106	6
108	109	5
75	75	16
4	5	2
13	14	6
87	112	2
83	83	6
85	87	2
6	19	6
115	116	3
76	76	4
26	27	1
77	80	1
73	77	1
20	21	5
75	79	1
4	111	6
82	83	2
18	107	2
105	106	2
114	115	4
124	124	11
91	92	2
104	122	1
14	14	3
14	15	3
106	118	5
123	123	9
32	123	6
1	2	2
120	122	1
8	13	1
85	85	5
114	116	3
140	141	1
93	101	3
30	82	3
17	17	5
28	31	1
85	114	1
11	12	3
93	96	1
98	99	2
82	82	5
106	123	3
133	134	2
74	115	1
20	20	3
79	120	2
112	124	1
71	124	1
12	109	1
97	115	1
30	32	5
23	120	1
101	101	3
115	118	3
100	101	2
134	140	1
2	4	1
103	103	4
20	26	2
108	119	2
86	87	5
79	117	2
98	117	1
29	30	4
105	122	1
90	90	4
22	25	1
89	90	3
107	108	4
27	32	2
24	25	1
99	101	2
117	118	4
10	10	4
86	101	1
138	139	2
7	8	1
34	35	2
128	129	1
32	37	1
123	124	5
110	117	2
18	19	3
32	124	1
135	137	1
17	18	1
81	93	1
99	99	3
19	123	1
94	103	4
4	6	1
112	114	1
111	122	1
2	3	1
13	15	1
102	105	1
6	10	1
74	118	2
77	77	1
34	89	2
18	20	3
105	124	1
21	27	1
15	16	1
84	87	1
10	101	1
99	100	2
1	8	1
93	103	1
72	115	1
134	138	1
110	121	1
101	102	1
102	111	1
102	103	1
16	18	1
32	32	1
139	140	1
