65	65	4
68	68	5
74	74	10
50	104	1
39	45	6
69	69	2
86	86	8
46	90	2
20	21	2
102	102	10
36	36	11
24	26	4
30	30	8
70	73	4
42	42	12
33	34	5
87	87	2
73	74	4
105	105	7
39	39	7
50	51	3
40	77	2
31	31	7
94	94	5
78	78	6
48	49	5
51	51	13
57	72	4
70	100	4
82	84	6
42	43	5
56	56	9
103	103	4
92	92	12
30	33	3
68	69	9
72	72	4
36	72	1
53	53	15
61	61	15
26	27	7
55	61	2
88	88	8
26	26	8
69	70	6
84	84	4
20	34	2
91	91	7
65	98	1
50	50	6
64	104	2
43	43	4
76	76	8
48	48	4
37	37	8
55	55	4
21	21	11
99	102	6
77	77	6
20	20	2
22	22	3
40	87	5
56	59	3
25	38	4
62	62	2
58	58	6
75	75	3
82	83	1
37	48	5
70	70	7
38	52	4
40	40	5
73	78	5
36	87	1
27	43	7
54	54	7
67	100	2
44	44	4
41	87	3
98	98	7
58	60	7
106	106	2
95	99	6
63	64	1
95	106	4
80	80	4
82	82	7
47	47	4
61	62	1
67	81	1
41	45	1
66	66	5
52	52	7
28	29	1
35	35	9
27	27	7
93	93	7
79	94	1
83	84	2
81	81	6
59	59	3
67	67	4
38	38	5
27	39	2
70	71	3
51	52	1
85	88	1
45	46	2
88	89	2
23	23	13
99	99	3
97	97	4
60	97	1
96	96	4
90	90	2
52	69	2
78	82	1
28	28	3
81	90	2
95	95	1
66	67	4
66	95	6
37	38	3
64	86	1
89	90	9
68	81	3
31	32	2
64	64	16
32	32	3
57	79	4
57	59	1
65	68	3
78	95	1
26	33	2
60	65	2
78	94	1
100	100	14
46	48	1
65	66	1
33	33	6
59	66	1
62	63	2
45	93	3
51	75	3
73	73	3
73	102	2
60	60	1
94	96	1
92	96	1
25	29	2
35	47	1
57	57	2
103	104	6
46	88	2
91	94	5
34	34	1
79	85	2
57	82	1
21	22	1
94	95	2
50	77	2
63	63	3
85	86	2
72	97	5
50	78	4
72	78	3
24	24	2
72	73	1
100	101	1
37	68	1
57	58	1
41	88	3
90	91	1
91	93	1
71	71	2
35	37	1
97	101	1
41	41	1
98	99	2
104	104	1
104	105	3
46	46	4
52	63	1
55	56	1
101	101	3
56	58	2
21	30	1
82	87	2
94	98	1
51	63	1
39	43	1
89	89	1
60	92	4
38	39	1
65	94	1
83	83	1
62	64	1
72	98	1
93	94	1
97	106	2
97	98	1
64	80	1
44	78	2
85	85	1
79	79	1
46	78	1
53	80	1
47	49	1
79	80	2
32	33	1
61	95	1
60	94	1
40	42	1
41	90	1
