65	77	4
101	101	8
190	193	1
119	119	5
151	151	14
158	184	3
168	168	5
26	26	14
58	58	16
69	73	8
25	25	12
236	236	21
79	79	2
4	14	3
7	7	1
76	80	2
42	42	8
176	191	3
65	66	5
65	76	1
191	192	3
185	185	5
187	188	4
31	32	4
117	117	3
0	0	5
25	26	6
98	98	6
46	46	11
82	83	6
3	6	2
243	243	5
163	163	3
193	194	3
152	237	5
106	106	10
213	213	9
102	105	1
240	244	4
153	153	12
61	61	4
77	77	4
212	212	12
240	240	6
245	245	3
40	41	5
191	196	7
172	241	1
36	37	3
200	200	16
27	27	13
156	156	13
97	97	3
174	179	4
84	90	3
72	86	1
155	155	11
203	203	12
9	144	1
11	32	4
171	171	1
10	12	1
75	75	7
30	76	1
244	246	7
96	96	4
150	154	2
212	228	12
242	242	4
177	177	11
248	248	4
75	77	2
208	209	8
115	115	13
86	102	2
32	32	13
179	196	2
203	205	4
240	241	2
191	191	6
45	167	4
174	187	3
156	167	4
219	219	7
68	68	3
182	182	1
169	191	2
35	35	11
237	237	7
217	217	12
227	227	3
67	67	10
16	16	8
109	110	1
230	231	2
30	37	1
229	229	5
63	64	2
163	166	6
195	195	11
60	60	4
238	239	3
7	18	4
230	233	4
7	41	3
157	157	8
53	54	3
224	224	5
236	237	5
221	221	8
159	160	6
8	10	2
198	198	4
107	107	5
176	176	2
160	160	9
54	54	4
51	56	5
238	240	2
14	48	1
19	19	8
41	42	4
77	78	3
107	108	2
89	89	9
23	45	4
11	47	1
166	170	1
156	245	3
47	48	1
36	36	7
180	186	2
197	197	6
175	176	5
58	60	4
118	119	4
178	178	8
71	71	4
43	43	8
207	207	13
222	222	3
64	88	5
159	159	8
26	155	3
240	242	3
177	191	1
220	221	3
64	64	7
196	196	6
19	30	1
214	237	5
87	87	4
104	104	5
45	241	3
103	103	3
17	17	7
109	109	8
153	156	3
199	240	1
62	75	1
175	175	2
179	179	15
214	214	10
2	17	1
9	9	3
53	53	6
33	94	6
178	179	2
171	172	4
34	75	2
205	205	6
219	220	6
244	244	9
241	242	3
72	84	2
71	73	2
20	30	2
232	232	2
95	96	2
90	92	1
187	190	5
161	197	3
165	165	12
162	163	3
201	201	11
92	92	9
231	232	1
113	113	2
30	30	3
143	143	2
214	215	1
80	81	4
7	20	2
197	208	4
157	161	1
197	201	1
153	161	4
210	233	1
2	18	2
60	90	4
217	233	2
80	83	1
90	90	3
187	189	5
204	204	12
158	159	2
146	146	2
62	68	2
74	76	2
45	45	5
182	196	5
15	49	2
199	199	2
57	61	4
229	230	4
183	189	2
100	100	2
118	118	2
171	178	1
33	33	3
11	12	2
69	87	2
46	52	2
78	79	3
50	50	4
112	113	5
28	29	5
190	190	5
170	170	10
233	238	5
69	70	3
238	238	2
39	247	2
226	226	4
175	190	4
57	57	5
112	112	5
165	167	2
216	218	4
184	209	3
167	169	1
223	225	3
18	30	4
102	102	8
55	55	5
162	210	2
18	20	3
218	218	2
186	186	8
63	63	3
48	48	7
18	25	2
239	239	3
85	86	1
162	162	6
175	177	1
67	73	1
181	182	2
55	59	1
2	5	1
202	203	6
154	154	5
72	72	3
202	202	4
241	241	1
80	80	3
230	230	7
174	182	2
91	91	3
33	36	2
102	103	7
71	75	1
17	18	2
216	217	5
93	93	3
246	248	2
176	185	3
51	93	4
0	1	1
47	90	3
61	69	3
247	247	2
145	145	2
98	112	1
22	26	2
49	49	10
197	198	2
231	245	1
171	174	2
13	34	2
11	11	12
163	209	5
186	199	3
1	31	2
87	102	1
3	3	2
224	235	2
181	181	9
225	225	2
94	94	2
85	85	9
66	66	5
67	76	4
111	111	8
215	215	8
63	79	1
186	187	2
63	76	2
28	28	2
208	208	3
66	93	4
59	59	1
246	246	6
64	65	5
64	67	4
62	62	2
176	190	2
26	47	1
164	218	8
223	224	2
105	105	6
95	95	3
61	90	1
163	184	2
52	54	2
88	88	5
210	210	5
73	74	1
188	188	3
190	223	2
51	51	3
203	226	2
188	190	3
241	244	1
242	247	1
203	230	1
41	43	1
180	180	6
39	39	7
77	80	2
223	223	3
184	198	2
209	225	2
159	247	4
180	181	1
215	238	1
171	173	3
89	91	3
38	38	4
163	172	1
70	73	1
17	47	3
71	84	4
238	241	1
74	74	3
74	75	1
193	195	6
34	34	7
64	70	4
110	111	2
15	35	1
185	197	1
29	32	1
225	231	2
28	228	3
50	175	2
116	116	6
22	23	1
167	218	2
182	188	1
193	193	4
66	67	1
235	235	6
61	92	1
14	15	1
70	70	7
170	191	2
189	191	2
35	41	1
174	174	2
233	234	1
88	89	4
227	231	2
229	235	1
176	187	1
247	248	2
120	120	3
160	183	3
205	212	1
169	169	2
52	52	5
110	110	3
161	161	2
41	41	8
218	219	3
178	210	5
46	62	3
152	153	3
56	56	4
52	55	2
173	173	4
40	40	2
83	83	1
212	225	4
82	82	3
6	6	4
173	179	1
150	150	3
29	29	1
69	69	5
108	121	2
18	19	2
228	228	2
33	52	1
74	90	5
42	43	3
18	33	2
43	44	1
44	45	1
1	25	2
64	81	3
15	33	3
21	21	3
229	231	2
35	52	2
223	232	1
77	79	1
230	234	2
66	74	3
62	63	2
50	69	4
37	37	4
34	49	1
10	10	1
17	53	1
23	23	6
211	212	2
5	5	2
99	103	1
76	76	7
163	165	3
179	183	1
33	77	2
121	121	2
196	247	3
195	231	1
182	183	1
193	212	2
184	185	3
52	82	3
114	114	6
73	75	2
30	31	1
2	53	2
161	163	2
223	233	2
234	235	1
6	9	4
19	32	1
34	241	1
24	47	3
209	209	4
159	167	1
208	211	2
164	165	3
203	229	1
38	39	1
174	178	2
158	166	3
81	81	2
46	156	3
206	206	7
23	47	1
91	92	2
167	167	2
2	2	6
22	31	1
26	27	1
7	9	2
192	224	1
72	74	4
24	24	3
189	190	2
117	118	2
89	90	1
42	208	1
20	20	3
84	84	1
22	227	1
58	241	1
65	65	2
59	60	4
63	66	1
97	98	3
195	211	3
160	232	1
150	199	1
35	151	1
169	176	2
48	175	3
8	8	4
164	164	1
189	189	1
194	194	1
216	216	1
196	197	2
231	233	1
161	167	3
18	18	1
54	70	3
245	246	3
192	192	3
9	10	1
46	93	1
218	237	2
219	233	1
84	85	1
169	229	1
21	22	1
243	244	1
199	200	2
240	246	3
172	173	1
197	202	1
43	45	1
191	209	1
233	233	2
44	44	2
237	238	2
49	51	1
21	23	1
164	167	2
237	239	1
176	177	1
19	24	1
29	30	2
152	152	2
213	214	1
157	158	1
15	16	1
22	22	2
164	185	1
166	166	3
194	204	1
35	39	1
74	88	1
183	183	2
149	149	1
167	185	2
7	8	1
209	224	1
227	228	1
193	210	1
60	61	1
96	114	2
117	119	1
159	242	1
172	205	2
163	174	1
231	236	1
192	225	1
32	33	1
4	5	1
216	221	1
9	27	2
99	99	2
64	77	2
6	7	1
151	236	1
167	168	1
191	200	1
3	119	1
15	47	1
225	226	1
52	68	1
166	174	2
86	86	1
13	50	1
170	171	1
72	75	1
206	207	1
243	246	1
