5	6	4
21	22	2
169	169	6
85	100	1
172	172	15
39	39	7
71	71	8
123	125	7
167	175	3
138	138	17
98	117	5
16	17	14
172	173	2
77	77	12
34	34	6
130	151	3
6	36	3
27	28	5
22	22	17
30	30	12
7	19	3
167	167	16
122	122	7
108	108	8
59	61	6
24	24	20
25	25	14
131	131	10
180	180	6
125	130	2
100	100	5
12	13	9
122	126	4
50	50	6
4	4	5
61	65	3
12	12	3
80	80	15
135	135	4
43	43	5
5	7	3
10	11	5
90	90	7
10	10	8
145	145	19
29	29	13
31	32	8
2	3	6
55	56	5
75	76	3
13	13	8
158	158	5
79	79	3
177	178	3
86	86	1
22	173	1
148	148	10
19	19	7
44	45	4
37	37	11
16	20	1
101	102	3
134	134	8
161	170	4
171	171	15
149	149	2
26	26	12
96	113	1
90	93	2
81	81	12
28	28	16
156	177	2
18	19	7
20	20	6
65	66	1
75	75	7
9	9	3
18	18	10
41	42	4
62	62	3
15	18	4
44	44	22
5	5	9
53	54	7
133	133	6
95	95	10
41	41	6
64	64	9
179	179	4
146	146	5
74	74	10
176	176	7
29	30	5
120	128	4
128	128	2
104	107	5
109	109	9
26	29	4
147	147	4
15	15	5
80	82	4
116	117	2
159	159	14
7	9	2
81	85	4
175	175	4
40	135	3
160	161	2
135	136	2
91	91	2
2	2	9
78	79	3
83	83	5
8	8	5
19	20	4
9	11	1
141	144	2
40	41	4
26	27	1
6	6	5
155	156	3
85	101	2
33	33	6
8	36	9
105	107	4
0	0	11
8	15	1
0	11	5
59	59	7
142	143	7
93	93	10
38	38	11
8	26	4
11	11	16
102	103	4
124	125	2
120	120	4
170	170	3
31	31	12
123	123	6
13	14	1
19	31	3
142	142	4
13	30	2
8	13	3
32	32	2
104	104	2
45	45	1
115	116	3
27	27	3
56	124	3
107	116	4
169	179	2
4	19	9
73	73	9
87	88	2
97	97	5
75	85	4
122	149	2
90	94	4
96	96	4
11	13	1
55	58	1
40	40	5
157	160	2
23	26	6
153	153	7
177	177	8
91	92	5
5	10	5
42	42	10
38	40	1
74	105	2
130	143	2
0	2	2
115	115	6
178	178	7
21	31	3
118	118	4
3	8	2
137	138	3
99	102	7
141	152	2
94	95	4
87	87	5
42	43	5
103	103	3
102	121	1
89	89	5
154	154	6
17	150	1
28	29	7
87	89	8
144	146	2
126	126	11
101	104	2
149	167	2
35	35	10
63	64	4
103	113	3
12	14	1
52	66	2
127	127	7
77	78	4
11	15	3
132	165	3
41	43	2
63	65	5
141	143	2
98	99	2
27	39	4
141	151	2
57	57	5
92	92	3
17	17	5
140	141	2
63	63	5
130	150	2
74	108	1
173	173	8
164	165	1
8	12	4
113	114	3
151	151	3
33	34	7
19	22	5
23	27	5
137	159	5
21	38	2
34	35	3
16	16	6
111	111	3
66	66	5
6	7	5
25	40	1
19	30	2
3	3	7
153	156	2
142	144	3
36	37	5
132	132	6
65	65	2
7	7	8
147	148	2
129	129	8
161	161	4
92	93	3
43	44	5
163	163	9
73	74	4
121	121	6
56	56	5
132	133	2
12	29	1
2	17	2
11	12	1
28	33	3
117	119	3
144	156	1
109	110	5
111	112	1
155	155	1
144	144	3
36	36	6
98	100	1
49	87	2
137	137	2
110	111	3
30	31	5
4	13	2
93	94	2
140	140	5
8	9	1
104	105	1
151	159	2
15	16	6
6	22	2
119	120	1
79	81	2
65	95	1
168	169	1
20	43	1
168	168	5
64	66	1
151	152	1
37	38	4
33	35	4
21	21	6
108	109	1
127	129	2
113	113	3
165	165	7
174	174	1
102	122	3
37	39	1
158	159	4
115	126	4
1	10	3
5	179	1
64	65	3
134	135	1
132	167	3
54	54	2
105	106	1
130	130	4
53	53	5
17	34	3
12	15	4
4	8	4
32	33	8
139	140	1
161	162	2
131	175	3
14	14	8
148	149	2
22	23	3
152	154	4
59	60	1
23	24	2
34	139	1
32	34	2
128	129	2
149	150	6
50	51	4
0	27	1
106	106	3
80	81	3
66	97	1
150	150	3
98	98	2
58	123	2
131	139	1
24	25	4
130	176	2
107	107	3
68	73	4
143	151	1
78	95	1
0	1	5
35	36	2
61	61	3
22	37	1
124	124	2
146	152	1
89	92	1
129	150	3
116	120	1
136	137	1
67	67	3
7	8	1
71	72	2
139	139	3
21	26	1
83	84	1
130	132	1
3	7	1
91	101	3
178	179	4
114	115	6
1	4	4
1	5	3
89	99	3
169	173	1
55	55	3
141	141	2
62	99	1
121	123	1
6	37	2
125	125	5
131	133	3
76	76	4
99	100	2
32	35	1
82	82	4
9	37	1
19	21	2
43	45	2
103	107	3
164	164	2
12	33	3
150	164	1
52	53	3
130	140	1
171	172	2
103	106	3
118	119	1
127	128	4
173	174	1
24	26	5
31	36	2
25	42	1
168	170	2
106	109	1
15	32	1
132	150	2
60	61	2
165	174	1
68	68	2
5	34	3
21	51	5
18	22	2
46	46	2
118	122	1
99	99	3
117	117	2
118	121	1
111	128	1
56	57	2
16	50	2
18	20	1
61	62	3
78	78	1
112	148	2
17	18	2
106	116	1
126	129	3
15	41	1
93	118	1
62	98	1
102	102	2
119	126	1
42	44	1
64	96	2
73	75	2
1	1	4
166	166	1
162	162	1
3	18	1
18	41	1
132	171	1
79	80	4
102	106	1
112	112	2
97	98	2
156	156	3
162	163	3
116	116	1
120	126	1
6	45	2
90	97	1
25	26	2
130	156	2
153	154	2
15	33	3
9	45	1
175	178	1
160	166	1
54	58	1
92	94	1
112	117	1
35	136	1
113	117	1
67	81	1
117	120	1
106	107	1
114	114	1
41	46	1
155	160	1
135	143	4
157	157	1
84	84	1
4	5	1
159	177	1
161	167	1
156	178	1
72	72	1
16	41	1
9	10	1
42	45	1
62	102	1
131	154	1
115	119	1
8	10	2
63	81	1
133	173	1
15	23	1
165	166	1
