134	134	14
117	150	6
141	141	5
156	156	6
68	68	3
100	100	13
20	23	8
69	85	4
110	111	1
151	151	4
163	163	11
38	39	7
69	69	9
47	74	2
18	19	6
44	44	9
143	145	2
10	10	13
124	124	4
51	51	8
27	28	5
105	105	8
132	132	3
41	43	3
91	94	3
121	122	1
10	13	4
51	62	5
43	43	8
64	64	18
19	19	11
51	58	2
133	136	3
113	113	7
38	38	6
160	160	13
55	55	14
26	26	7
86	88	1
68	69	2
168	169	4
143	144	3
8	8	5
84	84	7
47	49	3
144	144	6
38	86	1
94	94	11
133	147	2
0	1	4
69	70	5
141	142	5
77	78	2
68	70	3
21	26	3
108	109	7
108	108	12
158	158	5
87	87	5
72	74	1
6	6	23
5	6	4
56	56	10
142	142	5
15	15	15
77	77	9
137	137	9
109	110	7
126	126	9
28	109	3
98	98	6
21	23	3
5	5	10
143	143	5
40	40	7
9	9	7
157	167	4
122	122	5
36	36	18
68	143	3
37	37	3
153	153	3
86	95	2
11	25	4
34	34	5
62	62	2
161	162	4
97	100	3
116	116	8
84	85	2
131	131	12
104	107	1
126	127	3
37	38	4
89	89	9
73	73	11
140	140	5
41	41	6
112	112	8
27	27	9
100	103	7
46	46	13
82	82	5
18	18	8
97	98	3
83	83	8
166	166	9
71	78	1
163	164	6
119	151	5
74	74	6
48	74	6
99	99	10
66	68	4
84	100	2
40	43	2
67	124	3
16	16	3
3	3	12
81	81	5
89	90	4
11	12	2
50	102	3
165	166	3
161	161	5
157	157	5
55	141	1
133	133	9
110	114	4
79	79	6
11	16	1
134	136	2
36	37	3
25	25	9
22	23	2
117	117	9
91	148	3
133	134	4
71	71	3
43	44	9
97	97	7
150	150	8
13	14	5
72	72	8
12	19	2
81	82	9
90	90	9
109	123	1
111	116	3
9	25	1
22	27	2
136	136	20
91	93	3
125	125	2
22	22	4
54	54	8
4	4	13
119	121	3
19	24	4
43	123	1
135	135	6
5	8	4
11	11	8
80	80	7
6	18	1
24	24	3
159	159	4
148	148	7
162	162	5
47	47	5
88	88	6
115	115	6
40	122	3
86	86	1
52	57	3
1	125	2
28	28	11
153	154	1
130	131	5
39	39	11
139	139	8
42	43	1
85	85	2
3	4	3
167	168	4
167	167	4
84	86	3
92	93	2
11	106	5
154	154	11
110	110	9
130	130	2
47	159	3
101	101	10
125	153	5
112	113	3
149	166	3
0	0	3
36	39	4
19	20	2
123	123	3
43	143	2
132	134	1
128	128	3
113	114	3
21	21	3
96	96	10
85	88	3
73	74	4
44	45	3
10	11	5
71	80	3
53	53	6
76	76	5
45	46	2
112	114	1
119	123	3
109	114	1
35	35	19
82	83	2
44	52	1
132	137	1
62	63	4
40	41	5
94	95	2
35	36	8
33	33	7
118	118	4
105	106	3
9	10	3
169	170	2
93	93	10
1	1	11
36	44	3
70	70	11
74	77	7
78	78	4
63	63	7
155	155	6
137	142	1
3	13	1
109	109	2
121	155	3
90	132	2
111	112	6
17	17	7
152	152	6
50	50	6
53	54	4
104	104	4
48	48	11
98	99	4
91	91	10
129	129	4
149	149	6
23	24	4
78	79	1
7	9	1
34	35	3
145	145	7
48	49	9
111	111	8
49	49	13
125	126	4
55	100	2
53	55	4
47	48	6
157	158	1
114	114	8
102	102	2
96	97	3
12	16	3
142	143	2
48	159	4
27	38	3
92	94	3
65	65	4
105	148	1
7	7	10
14	14	5
41	42	5
57	57	14
61	63	4
123	124	2
48	50	3
7	108	2
72	73	5
155	165	2
52	52	4
168	168	3
121	121	1
8	103	1
45	45	5
107	114	5
53	56	3
54	55	2
162	165	2
7	10	3
15	19	4
8	11	1
151	152	2
107	107	6
14	15	2
110	115	2
50	161	1
44	143	1
147	147	2
164	164	2
127	128	3
118	119	1
127	127	9
162	163	1
135	136	2
155	157	2
9	16	1
26	27	3
136	137	1
83	85	3
80	81	1
58	67	2
13	13	2
154	155	4
152	153	2
12	13	3
23	23	2
64	125	2
89	91	1
43	56	1
12	12	9
95	95	1
106	106	3
39	40	6
146	146	1
55	101	2
114	122	2
120	120	2
2	2	3
3	7	2
71	73	4
12	15	1
43	105	1
47	51	3
100	104	2
88	89	4
20	20	5
54	56	1
119	120	3
149	158	1
115	116	4
66	66	2
132	133	2
37	39	3
117	125	2
43	142	1
28	110	2
170	170	4
51	56	4
117	143	1
6	8	2
76	77	1
114	125	1
63	66	2
42	42	6
69	142	2
79	87	2
166	167	1
79	82	1
103	105	2
70	71	2
39	45	1
6	7	2
8	9	1
50	51	4
67	145	2
44	53	3
136	138	2
128	129	2
73	76	1
129	130	2
46	51	1
169	169	1
50	57	1
37	89	1
10	16	1
8	105	1
123	126	2
52	160	2
139	140	4
94	105	1
65	123	1
160	161	1
51	52	1
2	4	3
24	26	1
47	62	1
63	64	1
134	135	3
47	160	1
2	3	4
5	7	1
84	88	1
127	129	2
26	28	1
124	125	3
103	103	1
38	42	1
114	118	1
50	52	1
36	43	1
144	145	2
119	119	2
75	75	1
92	92	1
56	62	2
98	113	1
40	52	3
15	16	1
55	70	2
164	165	2
131	139	1
138	139	1
67	68	1
21	22	1
17	105	1
57	69	1
1	18	1
8	101	1
57	62	1
165	165	1
107	108	1
144	146	2
153	156	1
49	159	1
12	25	1
3	12	1
131	132	1
90	91	1
132	143	2
21	71	1
159	160	1
75	76	3
124	154	1
134	138	1
37	105	1
42	122	1
147	148	1
110	112	2
80	82	1
36	41	1
146	147	1
107	150	1
106	107	1
101	102	1
102	104	2
120	153	1
144	151	1
129	140	1
52	53	2
64	65	1
108	150	1
49	52	1
137	138	1
120	121	1
88	94	1
107	118	1
7	11	1
67	67	1
