71	111	1
97	98	4
103	103	5
73	73	7
110	110	2
72	115	4
81	112	3
83	83	5
11	11	8
14	20	3
14	14	5
84	85	4
35	89	1
13	13	8
12	12	6
18	18	7
80	80	2
76	76	3
19	29	2
84	84	2
15	16	4
114	114	2
29	31	4
120	120	4
26	32	3
119	119	7
2	2	7
31	31	8
105	105	5
109	109	8
97	97	6
88	88	5
123	124	2
19	19	3
82	82	5
80	82	2
87	87	7
7	7	7
121	122	1
24	25	2
92	112	3
75	75	7
129	129	6
127	127	6
106	106	5
14	22	3
102	102	2
29	30	2
130	133	2
108	108	2
19	20	2
4	4	2
3	4	3
133	133	11
8	8	5
121	121	9
103	111	2
72	72	6
20	21	1
0	1	4
130	132	3
88	93	1
128	128	5
11	37	3
36	36	10
124	125	5
136	139	1
35	35	6
118	119	5
122	123	4
27	27	5
119	123	2
110	116	5
126	126	7
14	15	4
3	3	3
72	106	2
101	101	2
105	106	1
95	97	4
137	138	2
123	123	6
138	138	9
110	111	1
82	103	1
81	82	2
73	75	1
17	18	1
95	95	5
84	86	3
0	73	2
136	136	9
112	112	3
122	122	10
37	37	3
129	140	1
75	101	1
140	140	4
104	106	3
27	28	3
113	133	1
72	73	3
6	6	4
126	129	1
126	128	1
115	115	2
131	132	5
106	111	3
90	115	2
125	125	14
132	132	8
71	71	2
135	135	3
98	101	2
113	113	5
0	0	5
80	115	1
120	121	4
17	17	3
1	2	3
74	75	2
7	8	2
121	125	3
28	30	7
77	77	4
20	20	3
88	91	3
15	114	1
11	23	3
118	120	2
80	112	1
111	111	10
73	103	1
77	105	1
126	140	1
86	92	3
127	128	1
78	78	5
18	29	2
116	117	4
88	92	1
81	81	3
9	9	4
81	94	2
124	124	7
102	111	2
5	5	2
21	21	1
85	87	4
85	85	6
25	37	2
130	130	3
93	94	4
107	109	3
23	25	1
2	4	2
137	137	2
92	93	2
74	74	2
138	139	3
38	38	2
107	116	2
75	98	1
131	131	5
23	37	5
7	23	2
74	110	2
35	36	1
98	99	1
74	77	2
79	83	1
129	130	1
21	30	1
15	15	1
100	100	1
75	76	2
137	139	1
107	108	1
103	107	2
116	116	4
99	99	1
134	135	2
93	93	1
33	33	3
96	96	2
120	122	1
84	109	1
19	21	1
125	126	4
91	91	1
2	82	1
99	100	1
1	1	1
123	130	1
111	112	1
100	136	1
89	89	1
77	78	1
29	29	3
134	134	1
92	92	1
106	108	1
26	31	1
83	102	1
81	116	2
37	38	1
108	119	2
139	139	1
97	117	1
4	13	1
18	19	1
13	14	1
82	122	1
80	81	1
12	22	1
