79	79	9
82	82	16
47	56	1
13	13	11
49	50	1
22	58	1
125	126	2
36	37	4
146	165	2
0	0	5
143	143	11
46	46	15
21	22	3
158	165	3
43	43	9
66	125	4
125	125	14
26	26	13
138	140	4
10	10	5
147	147	6
132	132	11
77	78	9
119	120	5
39	40	7
34	37	2
45	45	20
57	57	7
140	140	4
42	42	7
102	102	3
133	134	4
114	130	3
124	124	9
17	17	16
99	99	11
39	69	7
64	64	4
81	82	2
96	96	12
63	63	4
18	18	10
18	26	3
129	167	2
141	141	6
103	103	5
45	51	4
130	130	4
46	47	4
63	70	4
52	52	10
5	5	17
46	69	6
2	2	16
21	23	4
110	111	3
118	118	5
14	15	6
158	158	6
20	24	8
68	69	3
47	48	4
20	20	8
162	165	1
19	26	3
20	64	3
18	83	3
53	54	3
21	21	17
74	75	2
102	122	2
18	23	9
36	36	16
10	12	2
55	56	3
74	74	3
111	111	4
151	152	1
10	44	1
127	128	5
117	117	10
113	113	17
86	87	3
61	114	1
139	139	5
169	169	2
80	80	2
167	167	5
40	40	2
110	110	20
67	67	17
154	155	3
138	138	16
19	22	6
108	108	8
8	56	6
41	112	1
19	19	4
6	6	7
67	68	7
73	85	2
146	146	12
151	151	3
162	163	5
127	127	5
104	104	11
27	27	2
112	112	8
17	18	11
37	38	3
12	12	8
142	142	3
24	41	2
4	7	3
167	169	3
23	23	5
53	53	8
155	156	6
3	5	4
154	166	1
105	106	6
50	55	5
145	145	4
48	49	14
9	9	9
83	83	8
22	22	8
3	3	12
13	114	2
149	150	4
83	97	3
111	135	1
15	15	7
25	25	7
115	115	13
108	109	3
14	14	5
98	98	4
126	129	1
101	122	2
136	137	5
46	57	1
49	56	2
55	55	10
22	64	1
15	51	5
101	101	3
168	169	4
133	133	7
47	49	4
62	62	5
88	136	4
91	91	1
83	91	4
80	82	3
122	122	10
41	44	2
169	170	5
94	124	8
149	149	8
62	120	4
38	123	4
39	39	3
94	94	4
47	47	6
78	115	5
144	144	4
74	106	2
34	36	3
139	140	2
3	4	7
137	137	11
89	135	1
15	39	4
84	85	2
120	121	2
91	93	2
5	6	1
121	121	5
130	153	2
101	102	5
155	155	7
0	4	2
0	5	2
95	127	4
51	62	2
92	92	2
8	8	10
78	78	5
95	96	2
137	144	1
147	148	3
69	116	4
5	169	4
148	160	3
71	71	8
164	164	4
170	170	4
163	163	2
93	93	6
114	114	8
86	88	1
51	51	5
1	1	4
144	147	4
144	148	1
156	156	2
4	4	9
115	119	2
115	131	1
84	84	4
151	153	1
156	159	5
64	134	1
38	38	12
134	134	5
94	131	1
97	97	1
41	41	4
116	117	2
100	100	4
166	168	2
48	48	3
64	66	1
3	20	3
147	160	1
68	68	2
62	75	1
148	148	6
24	34	2
131	131	2
155	166	4
127	133	1
20	23	1
164	165	1
150	152	2
162	162	2
85	90	3
119	119	3
12	38	3
167	168	2
81	96	2
63	64	4
168	168	3
116	116	4
131	132	3
92	151	1
96	127	1
33	33	4
11	13	1
77	77	6
26	27	1
155	159	2
155	167	1
40	45	1
65	66	4
157	157	2
22	134	1
136	136	1
90	90	7
44	71	5
89	89	1
48	57	1
95	95	1
128	128	2
23	110	1
131	133	3
69	70	7
71	107	3
88	88	9
160	160	4
17	20	1
92	132	1
11	11	5
126	126	9
118	122	4
119	123	1
24	24	6
15	69	4
162	168	7
153	160	3
88	92	3
18	52	1
150	150	2
128	130	5
66	69	3
42	43	5
16	39	2
150	151	3
7	7	3
124	126	2
166	169	2
0	3	3
163	169	1
98	100	1
107	115	5
92	125	3
70	70	5
24	44	2
132	133	1
23	24	3
72	72	1
71	72	3
154	164	1
120	125	1
165	165	1
166	170	3
37	37	2
56	56	6
14	39	4
143	145	1
69	123	1
12	41	3
50	54	1
128	152	6
77	79	2
130	131	3
97	98	3
18	37	2
16	17	3
106	107	6
105	105	2
159	159	4
0	1	1
5	131	4
62	115	1
18	22	1
153	153	1
27	28	1
124	159	1
161	165	1
87	87	3
40	41	2
8	12	3
154	156	1
41	42	4
81	81	5
17	21	1
87	91	1
6	8	1
34	34	6
2	3	4
49	49	6
36	55	1
16	16	3
83	95	2
1	2	3
18	35	2
114	118	1
125	132	1
10	11	2
154	160	1
44	44	6
117	118	3
116	119	2
54	54	1
154	154	1
123	124	3
5	7	3
44	46	2
129	131	4
87	88	1
99	123	1
126	127	2
28	28	3
148	149	1
50	50	5
48	53	2
35	35	2
146	149	1
57	58	1
144	145	1
150	153	1
135	135	1
143	164	4
152	152	2
161	161	2
50	69	1
102	103	1
91	133	1
39	53	3
94	96	2
141	142	1
4	56	2
103	107	3
113	114	3
25	28	1
12	43	1
103	105	1
47	52	1
58	119	1
93	125	1
11	41	1
96	97	4
79	82	2
134	135	2
100	101	3
113	129	2
34	35	2
14	51	2
146	153	1
11	12	1
10	13	1
157	158	1
16	50	2
153	154	2
123	123	1
155	161	1
76	76	1
42	154	1
120	120	3
100	102	2
66	70	2
101	121	1
27	37	1
7	8	1
129	130	2
58	95	1
41	63	1
12	16	2
143	160	1
118	142	1
66	66	1
93	126	1
39	58	1
48	54	4
19	27	2
145	147	3
156	157	2
58	62	3
58	58	1
10	41	1
25	42	1
111	112	1
39	41	3
146	147	1
76	77	2
79	80	1
8	38	1
92	152	1
6	7	1
20	25	1
99	105	1
131	167	1
8	9	1
2	4	1
83	108	1
146	148	1
109	109	1
129	129	3
19	110	1
99	102	1
127	132	1
138	139	1
69	72	1
112	113	1
1	7	1
11	54	1
107	108	1
111	119	1
99	100	2
112	121	1
9	54	1
15	52	1
56	75	1
131	151	1
142	143	1
65	65	1
85	99	1
43	47	1
85	123	1
83	86	1
