131	131	9
100	100	3
116	116	5
94	94	7
132	133	1
33	33	3
74	74	1
68	68	2
27	28	3
12	14	1
31	32	3
53	54	5
76	76	5
106	107	4
130	131	1
9	9	3
102	102	4
41	41	2
80	81	5
117	117	3
91	93	1
8	66	2
18	18	4
13	15	2
70	72	3
84	87	3
120	120	4
109	109	5
88	88	6
14	14	2
93	93	2
132	132	6
80	80	3
58	59	4
3	5	1
124	124	3
110	110	8
46	51	1
113	133	2
99	100	5
8	9	2
51	51	4
90	90	7
97	97	8
129	130	2
24	24	1
63	64	2
101	101	3
72	72	2
42	42	10
47	47	6
10	11	1
67	79	1
53	53	14
66	66	1
67	67	3
55	63	1
40	41	2
6	13	4
42	44	7
108	108	8
19	39	2
47	54	7
0	0	4
52	52	4
111	112	2
65	67	3
59	61	1
127	127	5
13	27	3
96	96	4
4	13	3
46	46	10
17	18	11
103	103	7
112	112	3
38	41	2
26	26	3
50	50	13
68	69	6
99	116	2
63	73	2
6	6	5
73	73	8
73	74	3
105	106	5
90	91	2
63	63	7
107	107	2
10	10	3
76	77	2
22	41	1
54	54	9
69	70	1
30	30	5
40	40	2
29	32	1
11	11	6
5	6	4
85	85	4
49	49	4
113	132	1
5	7	3
94	125	1
69	69	1
121	122	2
43	43	4
78	79	2
122	122	5
133	133	1
106	109	1
81	81	2
42	51	1
110	111	1
0	1	2
114	116	2
56	56	7
58	58	3
114	131	1
81	85	5
114	115	2
6	76	2
111	111	4
11	12	2
95	95	2
123	123	3
13	13	4
72	74	4
98	98	1
34	34	1
128	128	2
88	102	1
1	1	7
94	95	4
87	87	1
117	118	1
115	115	3
16	16	3
74	75	4
38	61	1
116	117	2
57	88	2
19	19	1
86	86	3
56	57	1
104	105	1
12	13	1
76	79	2
27	27	1
83	86	1
82	87	1
20	75	1
62	62	1
104	104	5
15	19	1
79	79	4
113	113	2
106	106	2
107	108	2
18	45	3
100	131	1
38	39	2
59	59	2
54	120	1
33	76	1
88	89	1
26	32	4
7	8	2
101	103	1
97	98	1
114	114	3
53	110	1
60	60	1
52	53	6
65	71	1
61	100	3
128	133	3
122	132	1
57	57	2
126	126	1
3	13	1
13	14	1
77	77	1
25	26	3
57	80	2
122	131	1
62	74	1
17	17	4
60	61	1
39	40	1
15	15	3
6	46	1
29	30	1
99	105	1
68	109	1
83	83	1
21	21	3
12	12	1
45	64	1
122	123	3
103	107	1
7	28	1
39	39	1
7	7	1
126	127	1
2	4	1
7	22	1
108	109	2
19	20	1
121	125	1
32	32	2
38	38	3
48	49	1
5	5	6
105	105	1
59	60	2
6	7	1
96	97	1
124	125	1
2	50	1
31	31	2
119	119	2
77	78	1
83	84	1
86	87	1
57	67	1
115	116	2
51	52	1
50	52	1
81	82	1
116	125	1
73	75	1
28	31	1
42	43	1
3	3	1
48	113	1
98	101	1
82	84	1
13	59	1
118	118	2
68	118	2
107	123	1
76	99	1
50	51	1
4	9	1
22	23	1
44	44	2
29	29	1
55	55	1
6	51	1
65	66	1
99	101	1
28	28	1
91	91	1
94	100	1
2	2	1
46	47	1
