78	79	3
55	55	24
51	51	5
81	81	29
61	76	6
57	57	20
81	82	5
52	53	3
47	51	4
66	66	16
48	81	2
6	6	19
10	10	25
4	30	1
4	4	29
30	74	3
59	59	17
89	89	24
30	30	18
65	65	10
25	25	17
62	63	10
75	75	47
65	79	1
3	3	17
19	23	3
0	0	18
56	67	5
54	54	22
19	20	8
24	24	33
82	83	4
23	24	6
18	19	5
28	28	9
0	16	2
14	14	25
20	21	2
11	67	3
58	58	20
23	23	26
78	80	7
85	85	12
71	72	7
83	83	12
64	64	17
6	7	5
47	66	3
81	84	1
31	31	5
27	27	13
50	66	2
9	10	7
86	86	20
5	19	1
22	22	17
14	15	3
67	67	17
61	62	4
56	56	11
84	85	8
25	27	1
7	8	5
58	65	5
68	68	23
79	79	8
65	66	9
87	87	18
85	86	3
12	17	7
24	25	12
77	77	14
67	68	9
48	48	16
79	82	1
59	76	6
17	17	18
49	66	4
72	72	9
46	46	10
77	79	1
19	19	28
62	62	22
11	11	23
3	75	1
9	9	8
6	20	1
60	61	6
10	70	1
55	77	2
48	50	4
5	5	10
70	70	11
8	13	2
23	25	4
12	12	9
10	47	3
80	80	15
60	60	9
75	76	3
4	5	4
59	61	3
73	73	12
84	84	21
64	66	3
8	9	4
20	20	15
56	57	6
47	47	12
5	31	5
8	55	1
2	2	4
74	75	3
15	15	8
47	48	1
52	52	5
69	69	15
0	11	4
28	30	1
74	74	35
5	46	1
0	18	1
8	8	12
63	65	3
26	26	8
48	85	1
64	65	6
79	88	4
16	17	2
86	87	6
78	78	14
74	80	1
60	77	3
49	49	7
57	68	1
29	29	5
70	83	2
47	80	6
53	53	10
89	90	1
13	13	22
1	1	15
88	88	8
88	89	11
11	66	4
5	9	1
63	63	5
61	61	11
51	52	7
18	20	1
9	12	1
30	46	1
60	62	2
72	81	1
4	8	2
13	14	5
46	85	3
4	15	4
12	13	5
56	58	2
58	77	1
63	77	7
73	74	2
49	78	2
6	12	2
7	7	8
57	58	7
76	76	5
58	60	2
59	60	3
47	79	3
61	65	3
34	34	2
69	85	2
10	27	3
15	16	2
29	75	1
81	83	1
11	75	1
68	69	1
66	67	4
80	81	6
25	26	2
66	73	2
0	1	5
13	83	4
9	18	2
8	10	1
7	10	3
8	17	2
9	52	2
29	30	2
59	65	1
5	18	2
10	11	3
48	78	2
10	18	1
6	10	1
58	62	4
1	2	3
54	72	1
58	70	3
59	62	3
79	81	1
10	17	3
3	4	7
75	77	1
79	80	2
70	85	2
31	71	1
71	71	4
26	27	1
79	83	2
48	49	6
7	26	5
82	82	8
75	80	5
13	54	1
16	16	5
68	86	1
76	83	3
21	22	4
90	90	1
61	63	3
27	28	1
60	63	3
34	78	1
11	31	1
72	73	9
5	6	4
7	25	1
49	50	2
3	69	4
66	80	1
50	55	1
3	30	1
65	81	3
21	27	1
12	31	1
62	78	3
57	86	2
51	82	1
50	50	5
84	88	1
51	55	1
17	19	1
63	76	2
85	87	1
22	23	3
54	55	1
0	33	2
5	12	1
28	29	2
14	75	1
50	51	1
75	84	4
53	55	2
69	70	1
72	80	2
7	32	1
49	54	2
52	76	1
57	72	1
5	10	2
87	89	1
27	86	1
9	14	1
58	67	1
21	21	2
51	56	2
58	59	1
53	54	2
20	32	1
46	79	1
11	12	2
55	56	1
48	80	1
20	23	1
5	75	1
68	87	1
54	56	1
6	8	1
48	55	1
66	81	1
4	14	1
87	88	1
47	61	1
25	72	1
18	18	1
13	26	1
