105	105	4
83	84	7
103	103	7
116	116	12
87	87	8
57	58	5
113	120	1
95	96	2
27	27	6
84	88	2
96	96	12
71	72	7
83	129	1
90	126	3
53	83	2
11	11	5
108	109	4
58	58	14
63	63	15
60	61	9
85	85	8
73	73	5
32	33	1
60	60	19
122	122	8
80	80	6
56	61	5
125	132	3
5	28	3
129	129	7
82	84	8
110	110	6
127	128	2
84	84	3
0	0	3
83	130	6
16	16	7
70	70	8
86	86	12
98	98	14
19	19	1
64	64	11
102	103	4
43	43	9
3	3	3
112	112	9
20	20	4
130	130	13
108	110	5
109	109	11
79	81	3
66	68	4
59	59	10
110	125	3
115	115	11
109	110	5
88	130	1
45	45	5
99	99	9
69	98	3
75	75	7
36	37	3
76	76	3
52	113	5
54	54	9
54	77	5
7	7	3
113	113	13
60	86	7
33	33	4
93	135	1
25	25	2
37	38	4
89	90	5
121	122	4
124	124	6
69	70	3
99	129	3
106	106	11
44	45	2
81	122	3
44	44	5
78	79	3
71	71	10
77	78	5
21	21	8
88	131	2
61	128	2
82	133	5
132	132	19
24	26	5
8	11	4
81	82	2
82	85	3
44	122	3
111	112	3
88	119	3
22	22	4
110	111	6
127	127	12
9	10	5
83	83	6
66	66	2
65	65	11
5	5	4
100	100	10
90	90	8
124	125	5
15	15	3
72	72	4
62	67	3
52	53	4
72	134	2
23	23	3
64	65	3
91	91	3
117	130	1
9	11	1
28	128	2
84	85	4
23	25	2
128	128	6
126	126	5
97	129	1
115	120	6
88	88	7
78	78	5
47	47	1
123	123	7
115	128	1
35	35	1
38	38	4
68	108	2
58	59	1
114	114	3
14	15	4
131	131	4
122	123	1
81	81	12
30	30	7
56	57	2
50	50	4
2	2	1
49	49	2
54	65	2
107	119	1
95	95	5
42	44	4
68	69	6
63	76	1
61	61	15
120	120	8
82	111	1
66	67	3
134	134	7
86	87	4
10	11	1
115	116	2
84	129	1
101	101	9
64	105	5
89	89	5
34	34	3
1	131	1
104	104	2
8	8	3
119	119	5
47	51	3
59	123	1
107	107	3
94	94	5
47	48	1
111	111	7
57	57	6
55	56	4
36	36	11
82	82	5
20	21	1
125	125	3
85	130	2
56	56	2
102	102	7
97	98	5
93	93	4
92	94	2
128	129	1
62	62	7
109	122	3
96	97	4
79	80	2
91	92	6
74	74	5
28	28	7
63	71	2
57	59	1
10	23	3
46	46	1
81	132	2
52	52	2
10	10	1
117	118	3
24	24	1
127	129	5
76	78	2
68	68	9
76	80	4
97	97	5
130	131	4
63	64	2
120	124	1
92	92	5
87	131	2
135	135	2
62	63	4
67	67	3
113	132	1
26	26	3
125	126	1
108	108	12
121	121	2
21	22	1
65	85	2
103	134	1
3	4	3
25	26	1
52	111	2
105	106	1
98	99	2
44	114	1
132	133	2
125	134	2
97	106	2
35	37	4
0	35	2
13	14	2
61	64	2
88	133	1
57	84	1
29	29	3
68	77	2
116	128	1
96	106	1
101	102	1
114	116	1
55	85	1
79	94	1
55	55	5
55	77	2
106	107	4
108	131	2
33	36	1
75	88	2
23	26	2
56	83	1
118	118	3
117	117	6
34	61	3
65	66	2
10	21	1
43	58	2
46	112	2
26	27	1
69	69	2
64	66	1
97	99	1
69	76	2
55	68	2
126	127	1
130	132	1
77	79	3
98	129	1
80	86	1
33	59	2
60	62	1
94	122	2
11	24	3
53	59	1
88	134	1
67	69	2
85	134	2
23	42	2
131	132	1
102	133	1
88	124	1
96	107	2
94	131	1
45	112	2
1	1	1
114	115	2
93	121	1
18	18	1
6	22	1
37	37	3
107	108	1
79	79	1
9	9	1
6	6	1
69	95	1
129	130	1
67	68	1
45	56	1
95	106	1
100	101	1
69	134	1
94	124	1
61	63	1
