73	73	15
77	102	5
118	118	4
35	35	7
23	28	5
104	106	3
153	153	11
34	34	18
20	32	5
72	106	2
80	80	12
75	142	2
124	129	2
83	84	7
4	7	2
70	71	6
107	107	10
38	54	2
137	138	5
34	38	2
49	50	10
84	85	5
28	150	2
7	158	5
48	48	13
115	115	1
132	132	5
2	150	1
126	126	12
145	145	10
123	150	2
143	143	4
6	6	10
67	67	5
81	141	1
3	3	6
23	65	1
3	40	3
68	69	4
68	68	9
140	140	14
73	74	2
102	134	3
49	49	15
15	16	4
57	57	7
126	127	4
28	28	23
129	129	9
152	153	2
113	115	3
16	16	14
19	19	7
1	2	1
38	38	20
84	142	2
111	132	6
7	46	4
101	101	25
144	146	2
4	4	17
18	19	14
146	146	11
9	9	17
123	123	7
44	44	16
150	150	2
76	85	1
47	47	2
10	19	5
118	120	3
11	32	2
105	105	6
127	127	12
123	124	6
106	106	7
120	125	3
42	43	7
133	134	3
98	98	17
133	133	8
7	7	16
117	117	22
158	158	11
100	100	14
73	151	5
2	149	3
55	55	4
26	27	1
112	112	5
14	14	9
109	109	6
154	154	14
148	148	15
75	75	17
18	29	3
117	118	3
73	99	6
88	88	7
71	89	1
34	46	3
120	120	7
1	1	16
155	155	14
50	104	4
112	132	1
125	125	23
38	39	5
16	20	1
22	32	2
35	158	3
153	155	3
71	132	1
105	107	3
117	119	4
15	18	4
32	32	9
41	42	4
67	70	2
26	26	8
86	87	3
103	103	10
46	46	13
98	99	3
116	116	6
4	148	3
79	79	5
8	14	4
10	22	5
75	144	1
5	5	13
75	77	5
156	156	4
30	31	2
82	82	10
35	157	1
88	89	4
137	137	10
139	139	12
48	49	8
32	64	4
40	40	7
40	41	3
32	34	5
63	155	1
104	107	2
109	110	6
144	144	9
128	128	9
93	94	16
151	151	6
136	136	6
67	122	3
157	157	11
10	10	2
16	17	3
78	84	6
14	37	4
82	83	4
51	52	4
86	86	11
20	20	12
22	47	2
138	138	9
112	131	5
115	116	5
106	119	4
33	34	4
69	69	9
43	43	11
50	50	11
73	148	1
64	64	6
148	149	1
87	139	3
37	38	6
46	47	4
18	36	3
108	113	2
96	97	1
55	141	4
119	122	4
97	97	12
72	73	4
12	36	2
141	141	8
132	133	3
152	154	5
122	122	9
25	25	13
22	22	13
39	39	13
32	158	2
110	110	7
55	64	3
6	128	3
48	50	4
72	115	1
151	156	6
23	23	11
16	19	2
131	131	10
148	154	1
82	84	1
50	121	2
124	156	1
130	130	8
36	36	8
6	15	2
121	121	7
13	14	10
111	133	2
11	148	5
8	157	1
51	77	2
92	92	10
3	4	8
144	145	5
85	89	1
79	80	5
1	6	3
42	42	9
54	54	7
33	49	2
33	33	12
140	141	6
134	135	8
113	113	8
105	115	3
134	134	5
114	115	3
99	99	6
87	87	9
77	144	1
112	113	1
14	26	2
66	68	1
119	119	5
106	111	10
139	140	3
141	142	2
108	109	3
77	145	1
41	41	5
13	146	3
77	114	3
21	21	5
124	125	4
45	49	4
27	27	8
90	91	7
100	101	1
81	81	5
91	92	1
10	11	7
52	52	1
34	39	3
104	104	7
8	8	1
8	9	2
113	114	2
86	138	2
136	137	4
30	54	2
93	93	9
124	150	2
63	63	6
52	54	9
30	30	4
110	111	4
10	13	2
40	43	1
108	108	5
90	90	5
113	122	2
72	149	2
153	156	3
130	131	3
27	46	2
11	12	1
13	13	4
84	84	2
126	141	3
21	22	1
106	107	2
149	149	7
146	147	2
141	148	1
31	31	5
18	18	5
41	43	3
32	35	3
103	121	2
24	24	3
37	37	3
35	38	1
94	114	3
10	129	3
147	147	7
94	95	8
89	89	5
157	158	5
123	125	2
76	76	6
7	8	4
18	45	1
13	22	1
18	99	1
145	146	4
94	94	5
13	36	1
10	45	1
45	45	4
50	51	3
153	154	1
31	32	10
82	136	2
152	155	2
29	29	5
13	147	3
62	69	3
116	117	1
96	96	5
36	37	1
8	21	3
84	136	2
2	41	3
62	63	2
14	15	1
0	0	6
5	125	1
120	122	2
12	12	7
80	81	2
142	142	1
77	79	2
15	15	6
152	152	7
53	104	1
40	42	1
150	151	3
33	47	2
103	127	2
17	17	6
69	70	1
50	120	4
49	54	3
131	133	1
128	130	1
20	117	1
85	85	4
66	66	2
23	138	2
5	120	2
51	51	3
66	72	2
78	121	1
114	114	6
67	78	1
27	66	3
95	96	1
97	98	1
81	104	1
3	55	3
120	121	5
62	68	1
80	84	1
45	158	1
121	123	2
18	120	2
118	119	1
71	71	5
67	147	4
79	81	2
22	36	1
3	148	1
107	109	1
9	35	2
90	139	3
81	82	1
62	64	1
6	102	3
7	124	2
78	79	1
30	44	1
101	102	1
135	136	1
87	111	2
72	72	1
105	106	3
41	48	1
24	29	1
20	21	3
63	70	6
105	116	1
83	122	1
135	135	7
11	13	1
76	107	2
95	95	2
91	96	2
9	36	1
6	20	1
21	31	1
65	100	1
144	147	4
119	120	2
100	149	1
16	34	1
82	85	1
86	108	7
50	52	3
83	97	1
65	65	6
80	156	1
103	120	4
23	24	1
124	124	1
80	94	2
14	25	1
112	114	1
46	48	1
102	102	2
110	112	1
71	131	1
53	53	3
16	65	1
34	54	2
45	46	4
24	28	1
26	100	1
13	40	1
12	116	1
31	144	1
11	11	1
124	126	2
47	49	1
31	156	1
74	74	2
129	130	2
92	93	1
128	129	2
135	142	2
56	56	1
67	71	3
45	48	1
4	8	1
50	152	1
17	29	2
19	20	2
2	2	1
11	14	1
40	54	1
45	47	1
12	44	2
65	128	2
142	144	1
12	18	1
22	23	2
126	137	1
67	135	2
3	52	1
96	98	3
125	126	2
113	142	1
87	91	1
103	117	1
131	132	1
106	110	1
26	109	1
49	69	1
141	146	1
134	137	1
12	13	1
70	70	1
8	11	3
62	141	1
55	140	1
111	111	1
1	149	2
2	5	1
145	151	1
68	104	1
123	131	1
47	48	1
80	109	1
77	136	1
120	126	2
87	140	1
70	112	1
35	54	1
50	54	1
19	34	1
77	106	1
106	114	1
115	117	1
138	140	1
77	83	1
25	26	1
51	55	1
103	111	1
38	53	1
27	154	1
2	18	1
