23	23	10
80	80	13
102	102	20
36	36	2
34	34	8
63	64	8
73	73	16
85	85	16
32	32	13
91	91	6
54	54	13
31	33	3
62	85	2
96	96	15
83	83	9
81	81	21
71	73	4
72	73	3
75	75	10
76	76	11
39	40	2
44	44	10
39	39	8
49	50	2
82	89	2
86	94	4
90	91	5
55	55	9
104	105	1
105	105	11
42	42	7
58	59	11
92	92	10
104	104	5
65	65	6
60	62	1
43	43	10
43	81	6
61	62	7
30	30	8
37	37	8
49	49	5
47	48	2
97	97	8
71	72	5
61	80	2
45	45	9
81	94	4
35	35	11
33	72	4
72	72	6
24	32	3
84	85	12
24	24	11
38	38	12
46	46	6
59	81	3
89	89	5
94	94	10
66	66	9
41	42	2
59	59	12
70	71	2
86	91	1
69	69	20
36	37	4
77	77	5
81	82	3
60	60	3
100	100	6
62	62	12
49	66	6
38	59	1
84	84	10
89	90	12
76	99	3
78	78	9
65	66	9
98	98	11
33	33	2
82	82	11
40	40	5
99	99	19
73	74	4
22	23	5
38	60	2
26	30	2
77	86	2
65	68	3
87	94	3
91	92	5
27	28	2
98	99	3
63	66	3
38	39	4
25	32	1
21	21	12
76	85	1
67	67	10
37	56	5
28	28	5
43	78	3
79	80	1
79	79	4
56	56	10
78	83	1
60	74	1
32	33	2
20	20	7
21	22	6
86	86	11
93	93	7
26	28	1
70	70	11
31	31	8
78	98	2
99	100	4
50	50	9
86	87	4
35	36	2
74	74	8
41	41	2
50	51	4
59	60	6
58	58	7
47	49	3
57	57	2
107	107	2
54	57	1
48	48	5
33	34	6
74	75	2
22	22	2
61	61	13
90	90	4
27	27	8
76	83	1
76	102	1
46	47	2
75	76	3
66	67	5
64	64	5
71	71	7
30	31	2
94	95	1
95	96	2
61	64	1
88	89	1
94	96	4
25	25	6
61	63	4
97	98	3
88	90	1
31	32	1
47	47	4
80	81	2
51	51	5
43	44	3
21	31	3
76	78	2
29	29	9
87	87	5
55	56	7
95	95	3
84	87	1
29	30	4
85	86	3
44	45	3
88	88	1
26	26	2
36	38	3
70	72	1
53	53	6
78	87	1
25	34	3
63	80	2
20	25	1
63	63	5
21	33	1
68	68	3
101	102	3
22	25	2
56	73	3
34	35	6
60	85	3
92	93	1
52	52	6
26	27	2
66	81	3
100	102	1
80	82	3
87	88	2
54	73	1
40	58	4
92	95	1
103	104	1
101	101	3
26	29	2
40	41	4
64	72	1
78	94	1
69	70	5
77	100	1
42	43	2
48	98	3
40	42	2
24	25	1
28	30	2
59	80	2
53	54	5
64	74	2
77	78	4
52	53	4
81	93	2
73	75	1
78	99	2
62	63	1
78	79	1
106	106	3
45	89	3
77	96	2
25	26	1
76	77	3
58	60	1
61	65	1
44	86	1
61	81	3
86	88	1
60	61	2
20	21	1
43	61	1
69	72	1
56	75	1
60	63	1
102	103	4
68	69	4
93	94	4
92	97	1
93	96	1
103	103	2
40	49	2
79	97	1
86	96	1
37	57	1
70	73	1
54	55	3
79	81	1
104	106	1
91	94	1
44	50	2
45	46	1
62	64	1
30	32	2
74	80	1
20	33	1
78	85	1
51	52	1
54	67	1
37	58	2
96	98	1
76	101	1
60	83	1
82	87	1
41	44	1
