28	28	8
33	54	3
105	105	8
36	36	8
88	88	22
112	112	22
121	121	8
69	69	14
79	79	39
126	126	20
104	104	10
101	101	7
106	108	4
100	106	1
134	134	28
75	88	2
66	77	12
24	25	3
94	94	10
23	25	3
110	110	17
33	33	9
43	43	10
103	103	17
127	128	12
96	96	5
91	91	16
93	109	1
75	75	13
113	130	2
70	70	18
65	67	3
118	118	11
81	84	3
92	116	1
130	130	9
53	53	4
92	93	3
77	79	5
82	82	5
131	131	7
123	123	6
101	102	4
26	26	9
115	115	12
5	62	1
129	129	11
112	123	1
11	13	3
89	90	5
95	95	9
52	52	4
62	64	4
61	61	4
92	92	8
64	64	12
12	12	7
47	125	1
122	122	16
69	70	8
30	30	20
127	129	6
132	132	7
82	88	2
9	10	4
83	83	6
36	54	2
85	85	7
66	66	1
80	85	2
15	15	10
118	119	6
111	129	2
82	84	2
106	106	29
114	114	12
55	55	7
54	54	21
10	11	6
81	81	11
50	50	9
124	126	8
14	15	2
113	115	4
19	19	5
73	73	20
127	127	6
67	67	10
9	36	9
76	77	3
74	74	11
77	77	10
102	102	7
7	12	4
120	120	12
14	14	15
125	125	10
119	121	6
21	22	7
63	63	8
22	22	13
5	5	4
48	49	3
28	90	3
99	99	8
98	98	16
13	24	3
35	35	16
106	107	4
12	33	7
65	65	7
1	5	3
21	23	3
35	55	2
91	92	5
96	125	2
119	123	2
3	4	9
96	97	7
59	59	11
49	50	4
128	128	7
66	78	1
52	53	4
100	100	7
24	37	3
120	122	1
97	97	8
31	32	4
126	127	8
0	0	13
121	124	1
81	121	6
72	72	8
44	45	8
76	76	13
104	105	9
24	24	9
133	133	18
68	69	2
124	124	17
13	14	8
31	31	6
100	116	3
15	16	10
49	49	8
83	86	5
17	18	1
70	88	2
44	44	6
4	4	8
65	80	2
65	68	5
2	2	9
90	93	2
117	117	5
45	69	1
8	9	7
29	29	3
88	92	3
71	71	14
23	23	10
121	122	3
87	87	7
86	92	2
68	68	13
37	37	4
134	135	9
112	113	6
93	132	3
45	51	1
115	116	11
107	107	7
60	73	1
62	62	18
84	108	2
18	18	5
94	133	9
67	77	2
109	122	2
22	23	8
111	133	3
34	35	3
47	48	3
8	8	2
3	3	7
77	78	12
93	93	6
105	114	4
18	43	1
34	70	3
87	92	2
86	87	4
78	79	3
89	89	7
113	113	9
23	24	6
63	64	8
135	135	5
130	131	10
111	111	13
16	16	7
35	36	2
65	70	1
114	115	5
56	57	2
107	129	2
116	116	9
20	21	2
60	61	3
72	73	4
32	33	8
93	133	3
105	133	5
108	108	3
59	77	1
58	58	16
103	105	2
1	1	5
80	89	2
80	80	6
38	38	4
51	51	2
90	124	2
112	132	1
13	13	8
67	68	2
12	13	2
107	110	4
32	32	2
5	74	1
86	86	2
57	57	5
58	59	1
60	60	6
102	103	4
98	99	4
99	100	8
92	132	1
124	125	6
119	120	3
95	105	3
109	110	6
90	91	3
25	25	5
34	34	6
54	55	2
87	95	2
57	59	3
79	80	3
71	89	2
93	134	3
75	77	2
8	10	3
59	76	1
84	85	4
90	90	9
128	129	8
53	54	4
81	91	2
2	3	1
87	88	4
90	92	2
45	45	4
28	30	5
107	108	2
6	6	10
71	72	5
70	71	3
94	95	6
129	130	2
1	3	1
6	7	3
21	21	5
85	86	2
30	31	6
107	112	5
102	104	1
19	22	1
82	86	1
83	84	2
70	72	3
109	109	4
17	17	3
65	66	3
48	48	3
66	67	2
28	29	6
119	122	3
25	26	1
98	119	1
110	111	6
7	7	4
17	20	1
56	56	1
7	34	3
62	63	7
84	84	3
74	76	1
105	106	3
105	126	1
73	74	3
6	33	2
86	105	2
120	121	2
14	45	2
9	35	4
88	104	4
93	94	4
7	53	1
20	20	4
6	77	1
69	80	2
27	27	5
116	117	2
108	111	1
59	63	2
132	133	4
97	98	2
78	78	3
55	56	1
19	20	1
96	107	1
122	123	1
88	89	3
71	73	1
45	63	3
33	34	4
119	119	4
45	55	2
5	63	1
6	75	1
117	119	2
68	70	1
87	129	1
57	58	1
46	54	2
116	124	1
105	113	1
95	96	2
12	14	2
37	38	2
12	61	1
27	28	2
5	6	1
92	106	1
81	82	1
113	129	1
108	109	2
11	11	5
18	19	2
96	106	3
55	57	1
61	74	2
43	44	1
10	10	1
26	68	1
46	47	1
83	91	1
113	133	1
91	94	1
93	115	1
80	82	1
95	126	1
89	114	1
8	11	1
60	62	1
93	100	1
99	106	1
118	123	1
8	12	2
15	80	1
106	127	2
64	65	1
101	135	1
82	83	1
103	104	2
59	62	1
0	1	1
71	80	1
35	53	1
131	132	1
122	124	2
109	111	1
28	89	1
