34	35	5
168	168	9
178	191	4
150	151	2
12	12	11
161	162	2
138	145	2
189	189	15
99	99	2
154	154	5
165	165	2
97	97	8
11	12	5
109	118	2
134	137	2
139	139	2
16	16	5
83	84	3
96	96	1
57	57	6
3	3	5
165	167	2
19	19	4
14	14	5
74	74	3
0	58	4
50	51	4
30	77	2
88	93	1
38	38	9
146	147	7
122	122	12
0	22	2
76	77	3
51	51	1
104	106	1
165	168	7
123	123	1
173	176	10
133	133	10
64	73	5
115	115	3
18	19	2
193	193	7
142	154	4
173	174	3
188	188	15
0	4	3
23	23	6
120	121	5
158	160	6
41	41	3
180	182	1
35	65	2
130	130	5
192	192	8
156	169	1
180	180	8
42	42	8
33	33	3
169	169	4
79	79	4
157	157	5
155	155	4
148	148	6
185	186	5
18	36	5
151	151	12
108	108	4
36	36	4
160	160	7
176	178	2
41	148	1
79	85	2
155	178	1
132	134	2
64	64	6
42	66	2
94	94	4
86	86	1
118	118	15
35	35	5
152	153	7
83	86	3
197	197	8
79	81	2
154	155	1
3	20	1
100	100	5
25	29	1
194	194	1
191	191	7
38	39	1
144	152	3
7	7	1
39	39	6
21	43	3
72	72	3
71	73	2
177	177	5
55	114	2
187	187	17
111	111	11
170	170	10
3	59	2
80	81	3
43	44	5
25	26	4
141	141	25
107	108	7
116	116	1
141	151	5
178	178	12
110	110	13
182	183	2
30	30	8
23	24	3
139	141	2
83	87	2
8	8	13
17	117	1
17	68	3
102	102	2
43	57	1
173	173	17
21	22	2
24	24	5
137	173	5
58	58	5
25	25	1
29	29	2
50	50	2
15	15	8
119	119	5
77	78	3
20	21	4
67	67	1
143	143	7
80	82	1
114	115	6
43	43	2
171	171	7
118	156	2
70	71	3
88	88	4
36	37	2
76	76	1
1	3	1
130	143	3
38	42	1
159	160	3
121	130	3
87	87	4
190	190	13
74	128	7
9	9	4
102	124	2
149	160	2
167	167	4
148	153	1
20	20	9
131	145	8
77	79	5
166	181	3
164	164	10
15	16	1
139	140	4
172	172	3
126	126	7
44	44	7
172	173	2
48	48	6
107	107	5
144	145	2
6	7	2
105	105	1
172	175	1
159	159	9
135	138	2
121	121	8
2	2	3
6	64	6
81	82	4
107	109	2
4	8	1
113	113	3
185	187	1
183	183	1
66	66	1
149	149	4
186	186	4
93	93	2
117	117	2
135	135	14
120	144	2
11	11	5
71	72	8
156	164	3
69	72	4
90	98	8
70	70	1
140	142	7
135	136	1
47	47	6
140	179	3
108	142	1
1	1	9
119	130	1
22	23	1
151	160	2
196	196	4
136	136	3
98	99	6
61	61	3
0	1	1
194	195	1
6	8	2
142	172	1
136	152	3
182	182	5
1	16	5
103	103	4
10	51	1
6	6	1
153	156	3
68	74	3
186	187	1
161	163	1
82	83	2
56	56	4
54	133	2
53	56	1
196	197	5
114	114	6
182	193	1
50	52	1
41	147	7
110	111	2
17	17	2
53	53	3
5	7	3
37	37	3
54	56	2
39	128	4
156	156	5
112	131	3
4	4	2
11	56	2
54	54	5
121	147	2
185	188	2
162	162	2
158	158	2
124	124	2
171	172	3
112	112	2
122	144	1
18	68	1
40	42	2
33	36	3
154	168	1
109	109	4
166	174	2
120	120	8
6	67	2
176	191	2
69	69	2
69	128	1
140	140	2
28	31	2
49	49	6
42	59	1
34	34	5
0	41	4
56	57	2
65	75	3
161	171	2
152	152	7
180	181	3
7	64	3
81	81	3
184	184	6
145	154	5
153	153	1
95	95	2
127	127	3
162	163	1
68	68	6
7	60	2
193	194	1
169	173	2
175	175	3
108	116	2
163	164	1
82	84	3
122	128	4
60	60	3
138	138	3
63	63	1
17	18	1
78	79	1
7	8	2
131	134	3
62	62	1
88	90	2
149	185	3
3	4	2
166	166	3
40	40	3
190	191	1
59	59	1
131	132	1
0	0	1
132	135	4
62	63	1
19	21	1
81	83	1
137	138	2
40	76	2
89	110	2
138	140	2
149	150	1
101	103	2
132	132	2
59	65	1
9	41	2
125	125	1
134	134	2
134	138	1
105	106	2
22	22	2
138	143	2
172	180	3
173	177	1
104	107	1
7	98	6
52	52	1
71	71	2
83	85	2
10	10	1
32	32	1
51	106	1
183	184	2
187	188	2
87	88	1
42	43	2
85	85	1
136	146	2
6	68	2
179	179	3
88	196	2
169	170	3
121	122	2
126	129	1
13	15	1
67	68	1
152	155	1
181	182	2
144	144	2
70	110	1
161	161	2
55	55	2
26	26	1
152	154	1
37	56	1
164	168	2
65	70	3
183	190	1
163	168	2
9	10	1
74	76	1
45	46	1
131	131	2
59	61	1
147	147	1
46	70	2
78	98	1
113	143	2
140	178	1
80	80	1
181	193	1
133	134	1
149	184	2
106	106	1
83	83	1
162	170	1
77	80	2
119	120	1
148	160	1
104	104	1
172	176	1
170	172	1
188	189	1
101	102	1
164	165	1
122	124	1
73	75	1
176	177	1
177	182	1
