6	6	5
4	4	1
69	70	5
113	113	8
173	173	6
187	189	2
153	153	18
154	154	6
152	153	4
100	100	6
88	88	2
208	211	3
157	163	2
30	30	9
233	233	2
202	202	10
220	220	6
31	31	21
247	248	7
167	167	10
208	208	6
246	246	5
179	179	6
52	52	5
186	186	4
245	245	6
87	87	7
220	222	3
156	156	23
151	151	17
15	15	7
18	19	5
94	94	9
226	227	5
81	82	4
229	229	10
152	152	7
166	166	4
2	2	5
160	160	6
76	77	1
22	22	5
200	207	3
46	46	8
12	12	9
66	67	3
159	159	11
1	1	4
161	162	4
212	212	6
21	21	9
36	36	3
90	90	12
47	175	8
71	71	2
7	7	7
145	145	5
84	86	6
242	242	6
26	26	7
192	192	5
67	67	11
246	248	1
208	209	1
172	172	7
55	56	3
86	101	2
205	205	12
184	184	3
1	27	1
149	149	3
91	91	6
98	98	6
108	108	10
181	197	1
107	107	3
221	221	12
51	51	9
150	151	5
18	18	6
43	43	9
201	201	13
228	228	6
82	82	5
117	117	6
111	112	2
84	103	4
155	156	2
32	32	9
219	219	9
201	202	5
199	200	1
63	64	5
146	146	2
196	196	13
70	70	10
180	198	1
203	205	1
167	183	1
49	49	2
95	95	4
45	54	2
188	188	4
120	120	3
209	215	1
226	226	9
48	171	2
66	66	11
14	14	7
206	221	1
8	16	3
188	193	1
34	37	3
20	20	7
92	147	3
190	192	4
57	58	3
58	59	1
233	240	1
33	33	15
58	58	4
155	155	12
177	178	3
223	223	6
102	104	4
210	210	5
64	64	1
211	211	3
47	47	12
18	38	3
115	115	5
149	150	11
38	63	1
248	248	1
169	169	1
35	35	7
38	40	1
192	193	2
150	186	2
52	53	8
213	213	7
150	150	7
240	240	4
182	185	1
241	241	13
8	8	11
203	203	11
168	168	3
117	118	5
176	177	1
197	197	8
105	106	3
97	97	1
95	100	1
57	57	4
9	11	3
9	9	5
96	97	1
157	158	1
76	78	1
28	28	11
246	247	3
27	27	12
158	158	5
237	237	4
188	189	3
59	59	2
164	165	4
170	170	10
13	13	1
244	244	9
235	235	9
25	25	8
109	109	5
47	171	2
185	185	4
3	3	3
54	54	9
74	74	8
23	23	1
79	79	1
99	99	7
85	85	3
152	167	2
175	178	1
84	84	1
175	176	6
111	111	5
15	16	4
68	74	2
214	214	9
195	196	10
41	41	13
183	184	3
232	234	3
78	96	1
220	221	1
50	173	5
84	85	2
209	209	2
5	5	8
48	49	2
180	180	1
22	23	1
194	194	3
26	27	1
247	247	6
221	222	3
72	72	3
235	236	2
87	88	5
153	173	1
146	179	4
176	179	4
59	69	1
110	110	4
178	179	3
49	166	1
168	169	2
109	110	1
153	154	4
39	39	3
45	45	4
83	83	6
78	78	2
116	116	3
11	11	4
195	215	1
163	163	4
89	89	5
69	69	7
28	53	2
102	103	5
34	34	4
113	114	2
199	199	5
108	109	3
78	121	1
24	24	6
9	10	1
95	110	2
164	164	7
176	176	5
70	75	1
10	10	1
159	160	2
158	180	3
55	55	9
165	166	2
194	195	1
77	77	7
171	172	6
19	19	8
38	38	7
175	175	3
162	163	1
53	53	5
30	32	1
198	199	3
38	64	1
218	218	4
230	230	3
50	50	9
80	80	5
168	195	2
119	119	5
197	198	1
44	44	6
210	211	2
169	170	2
173	182	5
118	118	8
147	147	2
224	224	1
36	37	5
50	182	1
76	76	6
20	26	3
67	68	2
182	182	2
238	240	5
216	216	4
186	193	2
51	168	1
207	207	7
144	206	5
174	174	11
204	204	8
177	177	2
23	24	1
73	74	3
218	219	2
84	88	2
98	100	6
114	115	1
24	25	3
30	31	2
193	194	5
51	117	1
236	237	6
151	159	4
203	204	5
94	108	2
1	6	2
207	239	1
217	217	5
54	55	4
211	212	2
93	94	6
92	92	7
111	117	3
232	233	2
105	105	4
174	176	1
14	33	1
167	168	5
195	195	5
201	222	2
159	197	1
168	201	2
33	34	2
222	222	2
100	104	1
40	41	1
210	215	4
51	173	3
243	243	1
10	17	2
45	46	2
4	37	2
181	181	6
204	206	1
6	101	2
162	162	7
118	167	2
209	210	1
107	108	1
180	195	2
238	238	2
231	234	1
215	218	1
204	205	2
81	81	3
16	16	1
32	33	2
71	76	1
60	61	3
95	97	3
68	70	1
192	211	2
93	93	4
179	214	2
83	84	1
112	112	5
157	157	6
48	170	1
26	28	3
13	14	2
206	206	2
92	107	1
156	207	1
172	173	2
53	121	1
189	189	2
164	169	1
57	61	1
157	183	1
49	186	1
99	100	1
233	234	2
37	37	2
163	170	1
101	101	3
6	7	4
162	196	1
40	40	1
106	106	5
198	198	1
235	246	1
204	221	1
2	3	3
62	62	1
177	179	2
224	231	1
15	33	2
225	226	1
184	185	1
29	94	2
94	95	1
170	171	3
116	243	1
234	240	1
42	42	1
171	188	2
151	152	1
98	99	1
172	182	4
68	68	3
63	63	2
207	234	1
207	232	2
31	32	1
249	249	1
190	191	3
159	165	3
35	212	1
21	22	1
242	244	1
26	45	1
78	91	1
236	239	1
35	36	3
61	61	1
71	74	1
29	29	1
91	103	1
153	172	1
193	197	1
97	99	1
5	13	1
180	181	2
239	239	2
63	66	2
200	200	3
86	86	4
218	245	1
39	40	1
235	245	1
91	102	2
48	48	1
40	207	1
48	182	1
73	89	1
190	190	2
56	211	1
225	225	1
72	73	2
154	155	1
38	39	1
49	92	2
160	161	1
179	180	2
3	11	1
201	223	1
81	95	1
222	235	1
8	24	1
59	61	1
165	171	1
60	60	1
19	38	1
104	104	1
34	38	1
183	183	1
71	186	1
53	54	2
232	232	1
42	43	1
163	164	2
186	187	1
65	65	1
114	244	1
206	207	1
103	103	1
202	207	1
95	98	1
177	183	1
92	109	1
218	232	1
208	219	1
173	183	2
158	176	1
215	215	1
113	243	1
204	227	1
