173	173	22
24	32	5
24	25	4
190	190	13
111	111	9
188	188	9
68	68	8
196	197	7
80	80	4
83	84	2
135	135	7
187	187	29
173	174	5
132	132	10
182	182	22
9	9	15
25	25	19
29	41	1
47	48	7
51	56	3
189	189	16
29	54	2
137	137	24
186	187	22
171	171	18
42	42	11
2	8	5
186	186	14
10	10	6
31	32	12
103	103	11
179	181	6
10	12	6
38	38	7
71	71	13
151	152	17
54	59	4
4	5	7
46	46	6
100	100	20
51	51	13
23	69	2
26	26	8
56	57	1
183	183	13
112	112	13
25	29	3
32	32	21
58	58	8
2	2	4
146	147	5
36	36	12
134	134	10
61	63	1
175	178	2
85	87	12
6	6	6
151	151	20
79	103	3
120	120	13
53	54	12
124	124	21
45	45	10
14	15	8
185	185	17
136	136	18
100	101	6
10	13	5
17	17	9
164	165	4
75	77	4
147	147	11
177	189	2
139	139	26
97	97	2
156	156	12
50	51	2
5	39	3
38	141	4
3	36	4
167	195	2
17	37	2
99	112	2
121	121	8
55	55	14
119	119	10
102	103	12
2	3	3
157	157	16
27	27	5
33	33	8
130	130	11
150	150	18
24	24	18
168	168	19
194	194	16
143	145	1
41	44	1
133	145	1
173	180	3
170	170	6
180	180	11
170	171	7
39	41	1
69	88	8
106	107	5
24	43	1
45	46	7
31	31	8
35	35	9
169	169	14
70	76	2
138	138	9
135	136	1
70	70	6
154	167	5
141	141	13
1	1	6
65	65	5
110	110	21
131	132	5
42	54	2
169	173	4
114	114	28
160	160	7
84	84	6
148	148	13
28	28	2
93	93	6
112	168	4
69	69	9
102	102	7
25	27	3
164	164	5
40	42	3
22	22	11
158	158	10
11	12	11
133	133	7
125	151	1
187	188	12
23	40	1
4	4	6
26	29	1
195	196	4
119	120	2
33	38	6
142	143	8
39	39	6
113	113	12
59	60	2
145	146	8
143	143	6
100	115	5
109	109	8
17	38	2
176	176	6
73	73	7
181	181	7
168	181	1
117	130	4
153	153	12
125	126	10
196	196	7
42	51	2
195	195	18
42	45	2
166	178	4
168	183	3
5	6	2
118	129	1
184	184	17
16	17	3
59	59	17
139	140	8
143	144	2
66	66	3
171	174	2
126	126	14
172	172	12
4	6	4
144	144	2
30	31	2
191	191	10
100	112	2
185	186	5
34	34	9
0	22	3
148	153	1
163	168	2
40	159	2
160	182	3
161	161	12
118	126	2
13	13	12
38	39	1
154	154	16
152	152	18
197	197	7
147	148	3
59	96	4
15	17	2
177	178	3
37	38	13
44	44	3
115	115	8
168	169	11
37	37	1
99	99	2
76	78	2
88	88	7
111	113	3
190	191	2
114	116	1
159	159	14
33	36	3
140	140	8
8	20	4
20	20	4
176	177	1
167	167	12
128	128	8
136	137	4
93	95	3
14	14	6
141	179	2
82	85	3
134	150	3
172	188	6
3	4	1
18	21	4
9	12	3
142	146	5
5	5	10
17	32	2
5	8	6
178	178	4
53	100	2
23	23	16
35	37	3
169	183	1
86	86	8
148	158	2
7	8	3
86	87	7
177	177	2
189	192	1
133	149	7
61	61	2
61	65	3
123	123	9
68	69	6
53	53	11
147	149	1
121	127	2
3	5	2
171	173	7
69	72	1
56	184	8
180	181	7
178	182	2
40	40	4
142	169	7
39	44	3
121	124	1
134	136	3
18	20	3
140	142	2
48	48	5
164	166	4
162	164	4
134	153	2
87	87	3
36	37	1
0	1	1
129	129	16
108	108	4
122	122	9
186	188	3
56	56	4
32	33	3
101	101	3
165	166	8
16	101	4
82	83	3
15	16	3
193	193	14
95	130	2
150	186	2
117	117	14
3	3	3
161	162	1
149	149	10
1	2	2
143	180	3
163	164	7
49	49	6
104	104	3
13	38	3
171	184	7
54	55	7
56	72	2
54	54	13
183	184	4
118	156	2
172	173	3
11	13	3
89	89	3
122	125	3
110	111	4
113	116	2
33	37	5
7	7	3
124	125	7
6	7	4
8	9	3
6	16	3
148	149	11
83	85	3
174	174	5
8	8	6
41	41	4
15	15	7
192	193	3
15	23	3
78	78	3
31	124	1
50	52	1
167	168	6
143	149	1
140	143	6
127	128	3
57	57	9
114	138	2
114	115	2
59	61	4
140	141	5
106	114	2
142	142	2
155	156	8
136	142	3
189	190	4
171	190	3
3	27	1
153	155	4
170	172	2
135	148	1
150	183	1
99	100	3
52	52	7
157	158	5
42	49	1
163	169	4
116	116	10
0	0	4
38	42	1
11	11	7
67	73	2
97	131	1
192	192	9
28	29	14
43	43	6
67	74	3
26	27	3
50	56	2
95	95	2
149	151	5
76	76	3
6	8	2
105	105	1
25	26	6
74	74	3
127	127	8
23	25	2
43	46	1
133	136	1
38	111	1
151	187	3
152	153	4
2	26	1
63	65	1
0	34	1
147	158	1
44	47	2
8	36	3
118	118	1
125	125	2
111	112	2
73	75	4
70	79	3
45	51	1
47	47	5
145	145	6
17	18	2
2	29	2
171	172	7
137	150	6
110	113	6
14	16	1
56	151	3
168	175	4
163	163	2
156	157	4
105	106	3
43	45	1
179	194	4
140	144	4
51	52	8
72	73	5
123	124	4
89	97	1
4	27	3
149	150	4
143	146	4
180	192	4
193	194	2
148	152	1
16	16	4
49	135	3
122	123	3
67	67	4
9	11	3
119	121	1
135	137	5
130	131	4
144	178	3
132	133	3
18	18	4
12	36	1
117	118	7
17	19	4
21	25	6
44	55	1
36	84	2
115	116	7
9	15	1
188	189	3
29	30	4
64	64	3
120	122	3
42	142	1
104	105	3
15	53	1
98	98	1
70	71	3
150	152	1
137	156	5
3	6	5
131	131	6
17	24	2
106	106	4
139	144	1
150	151	5
121	135	3
118	154	1
96	154	2
40	44	1
134	135	3
143	158	1
137	155	1
179	182	2
116	117	5
153	154	5
118	119	3
166	167	4
169	170	3
55	57	1
19	21	1
107	108	2
105	107	1
0	8	1
51	53	3
27	28	2
9	19	2
184	185	6
123	127	1
13	14	1
125	127	3
114	155	1
125	156	2
141	167	1
67	68	1
50	57	3
119	150	2
155	155	3
29	29	3
49	52	1
5	7	1
175	176	1
57	58	1
79	80	2
139	142	1
67	70	4
145	148	2
50	50	7
42	143	2
48	49	4
180	183	2
62	94	1
161	165	2
176	178	1
138	140	3
132	136	1
194	195	2
137	142	2
152	186	1
33	34	1
167	193	2
99	119	2
16	36	2
162	162	5
113	114	2
44	45	1
21	21	1
63	64	2
39	43	2
41	42	2
147	157	1
18	19	1
133	134	1
11	45	2
178	181	1
155	157	2
169	171	1
120	121	1
59	152	1
191	192	4
179	179	5
53	55	1
113	115	1
121	158	3
166	166	2
157	162	2
60	61	2
85	86	2
17	33	1
114	151	2
166	181	1
117	156	1
14	136	2
25	32	1
34	35	3
174	192	1
139	152	1
126	127	2
58	59	2
60	94	1
11	14	1
70	72	2
25	30	1
178	179	1
81	82	1
160	163	4
167	169	2
11	32	1
101	120	1
115	118	2
69	78	2
36	38	1
156	163	1
122	124	2
23	32	1
140	146	2
9	10	3
69	70	1
128	129	1
137	170	1
116	119	1
38	44	3
181	182	1
6	39	1
19	19	1
109	132	3
4	33	1
121	128	1
27	45	1
23	37	1
121	139	1
118	153	2
12	12	1
141	146	1
98	100	1
56	59	1
39	40	1
99	113	1
40	41	1
33	141	1
22	24	1
99	101	2
25	33	1
142	144	1
71	75	1
40	43	1
116	118	1
165	176	1
146	146	1
143	178	1
