68	68	3
172	172	11
164	164	3
215	215	5
74	74	4
17	40	3
157	157	4
25	26	1
235	235	3
168	168	14
228	228	6
18	18	8
115	115	14
189	189	6
170	170	11
161	161	2
178	178	8
115	116	5
200	201	6
165	165	3
96	96	14
241	242	1
176	177	10
249	249	1
34	34	3
90	91	2
117	117	2
103	103	8
197	198	4
223	223	14
234	234	3
181	182	3
199	199	5
96	112	3
112	144	2
192	192	1
242	247	3
67	67	6
209	209	4
114	114	7
70	70	7
61	61	11
194	194	9
155	155	8
183	183	6
55	85	3
4	4	2
152	152	3
17	17	10
26	66	2
163	163	6
45	45	5
230	230	7
80	80	5
33	33	6
199	200	4
91	91	5
69	69	2
5	5	4
169	169	3
190	192	3
92	92	6
7	199	3
7	24	7
59	59	4
237	238	4
212	212	12
116	117	5
36	222	2
248	248	3
244	244	14
153	153	7
232	232	13
35	35	6
146	163	8
6	31	1
58	58	7
243	243	5
79	82	6
147	147	3
241	249	2
201	201	4
68	69	1
154	154	10
214	214	4
245	245	3
85	85	2
171	172	3
104	106	1
46	200	4
238	248	1
57	58	2
212	213	1
72	72	5
226	226	6
175	175	6
195	213	2
84	84	9
204	204	2
203	203	17
217	217	7
210	211	2
85	100	1
60	60	4
106	106	3
168	169	7
58	72	4
37	39	3
242	242	13
113	113	6
110	110	5
43	77	2
18	88	2
229	229	5
227	227	3
24	24	13
20	54	2
52	200	2
43	43	10
167	167	9
104	119	2
39	39	2
59	178	2
220	220	4
207	207	5
26	27	2
2	204	1
237	241	2
239	240	2
28	28	5
211	211	2
42	42	7
54	117	4
70	75	2
186	186	5
23	46	1
75	75	5
166	167	1
8	8	1
81	81	3
164	210	2
237	237	5
231	231	6
110	111	5
216	216	8
101	101	8
116	116	14
63	63	4
77	77	5
71	75	6
245	247	3
109	110	2
15	15	5
6	6	4
156	157	4
15	113	2
12	114	4
168	174	2
196	197	1
167	186	3
104	117	1
218	229	3
73	73	2
245	246	1
38	38	2
111	111	4
179	180	3
177	177	14
236	236	4
183	208	1
40	40	6
27	45	2
65	66	7
193	193	10
54	54	2
149	149	2
59	96	4
198	203	3
239	239	4
22	23	1
53	53	2
44	44	15
185	227	5
119	119	9
51	51	6
64	64	7
120	153	1
194	196	3
202	203	2
210	210	3
233	233	2
197	199	3
83	83	2
158	158	3
159	159	4
200	200	4
201	203	3
195	196	3
150	150	4
92	95	2
213	214	4
240	240	2
61	90	2
14	15	2
6	8	6
37	37	10
88	89	3
237	239	2
70	82	6
99	99	10
183	235	2
33	51	3
218	218	2
160	160	7
225	225	4
88	88	3
247	247	1
210	215	3
32	32	2
147	152	2
153	159	3
173	174	1
173	173	2
92	93	3
79	79	1
145	197	2
59	92	1
166	166	4
248	249	1
178	214	3
5	13	1
23	23	4
44	45	1
224	227	2
110	118	1
222	223	5
218	226	2
189	191	3
41	43	2
4	5	4
18	19	8
162	162	6
150	151	2
50	50	2
24	41	3
221	221	3
194	215	3
59	67	3
152	165	2
113	114	2
55	55	2
68	100	2
97	97	2
99	158	1
29	29	6
11	21	4
41	41	3
97	121	3
221	223	1
228	231	4
78	149	1
38	39	1
46	47	3
81	82	3
175	195	1
76	76	3
9	9	4
182	182	9
176	176	6
166	209	3
52	53	3
120	161	1
187	187	6
99	101	4
109	112	4
111	112	2
31	36	3
213	213	1
189	190	1
153	247	1
238	238	2
184	184	5
59	76	2
151	153	1
29	34	3
118	119	2
13	14	3
87	154	1
66	66	5
1	29	1
190	191	2
178	179	2
160	163	1
74	99	6
194	195	2
3	3	2
150	180	1
89	89	5
169	227	3
205	205	5
166	169	1
30	30	1
47	47	4
2	2	5
165	168	3
87	87	2
53	66	4
170	177	5
171	171	4
72	201	1
48	48	1
102	102	2
195	195	3
177	187	3
209	239	2
219	219	4
156	156	4
98	98	5
105	114	1
235	236	1
185	185	1
108	108	2
95	98	1
84	106	3
180	188	1
163	165	1
162	163	1
72	73	1
27	27	4
57	57	3
192	196	4
60	95	2
160	161	1
222	222	5
155	171	1
82	82	1
178	196	1
16	16	4
182	183	3
106	107	1
62	62	5
70	79	2
190	190	3
179	207	3
149	150	1
183	184	2
178	180	2
158	166	1
192	236	3
181	181	3
12	22	2
86	93	2
71	71	2
107	107	4
208	208	1
242	243	2
210	239	2
31	31	1
34	49	1
73	85	3
180	180	2
151	151	2
112	112	2
10	10	4
78	78	2
184	192	3
96	97	1
184	185	1
1	1	2
102	103	1
233	246	2
241	241	4
57	100	2
11	28	1
51	63	1
207	208	1
70	99	1
100	109	2
226	247	1
179	179	3
231	233	3
218	219	1
166	184	1
174	194	1
102	106	1
211	214	2
186	194	1
214	234	2
35	38	1
216	217	2
166	177	2
205	206	1
94	94	3
84	85	1
91	96	1
188	188	2
120	120	2
193	194	3
156	163	1
182	208	1
22	63	2
174	211	2
195	236	1
14	14	3
208	210	1
20	20	2
58	81	3
56	57	1
0	246	1
202	202	2
230	233	3
206	207	1
30	54	2
196	245	1
229	230	1
76	77	1
54	55	2
175	192	1
205	241	3
82	91	1
74	95	1
36	38	1
90	98	1
185	237	1
155	156	1
246	247	1
101	110	1
3	4	2
68	91	1
211	212	1
11	11	3
106	111	2
20	63	2
231	232	1
12	12	1
214	215	1
238	241	1
102	105	1
169	176	1
12	16	1
243	244	1
244	245	1
39	44	1
33	38	1
71	72	1
85	90	1
7	7	1
157	158	1
162	171	1
22	22	1
201	235	1
12	13	1
97	98	1
