165	168	2
2	2	15
136	136	11
21	21	13
166	166	17
116	117	4
89	100	2
5	6	5
55	55	9
80	80	3
76	76	6
15	15	9
33	35	4
169	169	15
43	44	3
12	15	3
108	108	10
46	47	7
82	82	4
44	44	8
167	168	1
52	52	6
7	7	10
152	152	11
55	133	4
7	16	3
93	93	8
0	0	15
47	47	13
123	124	3
57	57	5
143	143	8
129	130	6
78	80	4
56	57	4
75	75	9
100	100	8
159	165	3
22	24	2
39	56	4
49	49	5
13	19	3
150	156	8
49	57	3
164	164	6
87	87	3
71	72	11
125	149	11
91	91	10
115	115	5
106	106	7
132	132	6
90	90	6
53	53	6
142	163	1
37	37	11
7	8	3
170	170	2
18	18	16
62	62	5
132	151	2
24	24	11
126	127	9
8	11	2
112	112	9
165	167	4
5	8	4
3	4	6
160	160	10
34	34	16
22	122	2
36	42	1
87	102	3
92	93	2
159	159	4
8	8	9
115	116	5
134	134	6
130	130	1
76	77	3
51	51	11
37	38	5
146	146	12
146	147	2
6	6	6
55	109	4
133	150	4
33	36	6
11	11	13
150	150	13
58	58	5
69	69	5
69	70	3
107	107	15
81	81	9
110	110	22
130	156	4
144	144	3
114	114	5
34	36	2
41	41	6
134	136	4
74	75	7
9	78	1
160	162	3
124	124	10
33	34	7
48	48	7
51	52	8
27	27	12
13	14	2
45	45	5
98	98	5
109	109	9
156	157	4
34	35	6
96	154	2
33	33	9
163	163	5
128	168	10
1	1	8
113	113	4
1	102	2
9	10	4
89	89	7
111	111	14
125	126	2
132	133	2
13	13	9
39	39	10
70	71	4
116	116	16
4	4	12
6	14	3
50	50	6
0	104	3
91	92	1
41	57	2
63	64	4
118	118	8
137	140	3
72	73	3
55	57	3
95	95	9
10	12	1
126	126	7
136	139	4
161	161	4
3	3	10
64	65	3
134	135	12
165	165	6
43	43	5
42	42	7
71	71	1
101	101	5
40	115	1
141	141	13
14	14	8
39	40	1
165	169	3
54	54	6
88	89	9
117	117	8
99	99	8
155	156	12
121	121	4
20	20	7
36	36	25
88	116	6
168	168	1
16	45	1
10	10	21
147	147	3
121	123	3
85	85	5
28	34	5
6	7	10
38	115	1
131	131	5
27	106	2
16	16	5
88	101	4
168	169	1
129	166	2
154	159	3
68	68	5
64	64	5
162	162	3
97	97	10
28	28	1
132	150	1
15	100	1
42	55	2
13	15	3
166	167	3
144	145	6
84	85	5
145	145	6
133	133	1
5	5	9
42	43	2
154	155	5
1	106	1
110	111	13
37	42	5
63	63	11
12	13	1
56	56	4
86	86	4
153	153	6
25	25	5
130	152	4
136	137	2
87	88	4
40	41	9
164	167	1
127	127	7
145	146	5
4	7	6
26	26	5
87	89	2
21	143	3
129	129	2
125	127	2
46	48	6
135	136	5
149	149	13
167	170	1
35	35	5
78	78	1
15	17	9
62	63	1
81	82	5
55	56	4
142	161	2
90	91	9
166	170	1
37	41	7
79	84	3
41	44	3
167	167	6
104	104	10
120	120	7
132	140	1
49	50	4
154	154	12
112	117	2
64	67	10
8	9	3
54	126	5
69	107	4
38	38	8
148	148	8
129	165	4
105	105	8
10	74	1
1	36	3
143	170	6
4	5	3
44	45	2
52	53	6
141	148	1
107	151	3
8	10	3
78	79	3
66	66	3
124	130	1
135	135	8
77	77	1
139	140	4
143	166	3
19	20	6
50	51	5
124	127	1
151	155	1
63	69	5
72	72	4
27	28	3
18	20	9
139	139	3
24	106	3
116	126	2
97	98	3
35	36	2
135	137	1
79	79	1
17	23	1
144	152	3
2	12	2
22	22	6
46	46	8
129	131	2
122	122	2
137	137	10
27	152	4
8	45	2
83	83	7
112	113	5
9	11	1
111	116	1
142	142	2
47	52	1
48	49	1
108	109	7
158	165	2
107	152	8
169	170	5
85	86	1
122	140	1
149	160	6
155	155	4
157	157	2
141	146	3
123	123	1
159	160	2
25	104	1
47	57	3
122	123	4
16	84	1
28	44	2
102	102	4
15	16	1
2	36	1
20	22	2
108	112	1
47	48	4
0	2	4
148	149	6
111	112	4
63	118	2
45	46	2
12	12	9
105	106	1
26	107	1
71	73	1
75	76	1
106	109	2
98	99	6
44	46	1
157	158	4
58	72	1
19	19	1
94	95	1
1	2	1
126	143	4
132	148	2
138	138	3
56	62	1
16	17	1
38	39	1
160	161	1
88	88	1
57	58	1
150	151	1
17	100	2
140	146	3
63	65	1
26	109	1
156	156	1
53	108	1
87	93	1
156	164	1
40	45	1
18	19	2
160	163	5
44	50	1
37	40	1
125	125	6
133	134	1
79	80	1
164	165	1
128	128	3
127	128	1
119	129	1
0	1	2
19	24	1
63	71	2
91	155	1
135	138	2
34	44	1
44	47	1
138	147	1
40	58	2
3	5	3
84	84	2
41	47	1
20	23	1
4	42	1
141	165	2
20	21	2
165	166	2
113	114	2
26	27	2
96	96	2
10	11	3
127	130	3
111	114	1
63	116	2
5	17	1
111	117	2
70	70	3
51	57	1
162	163	2
84	86	2
109	110	2
7	90	1
124	125	1
107	108	1
158	158	2
41	45	1
92	115	3
14	15	2
18	142	1
40	40	1
80	83	1
49	51	1
26	106	3
74	74	2
91	93	1
1	25	1
92	150	1
88	115	1
54	55	1
121	122	1
12	19	1
73	73	1
26	28	2
151	151	1
65	119	2
53	54	1
101	102	2
91	162	1
138	146	1
19	21	1
21	23	1
96	97	1
11	73	1
23	24	1
