153	153	9
61	67	1
6	7	4
104	104	5
12	13	2
47	52	2
6	12	1
14	18	3
66	74	1
85	85	15
77	77	6
136	136	14
69	113	3
26	27	2
13	13	20
17	17	10
97	98	4
111	113	3
57	57	7
138	149	8
24	38	3
120	120	5
49	55	3
11	14	4
45	45	10
36	36	11
68	133	2
123	123	3
91	103	2
134	134	9
20	21	8
66	71	3
12	57	2
112	112	14
82	82	8
17	21	3
43	43	6
21	21	13
42	42	7
39	39	10
48	48	8
14	15	5
51	85	2
11	11	3
29	29	5
127	147	2
54	54	5
18	18	16
110	110	3
117	117	5
10	10	9
16	16	4
5	5	9
82	93	1
143	144	3
113	113	5
125	125	5
95	97	2
37	40	1
68	74	3
49	51	3
96	97	8
44	44	5
49	49	7
143	143	8
49	99	4
126	126	3
45	46	2
48	54	6
66	68	4
21	23	1
75	77	2
135	136	1
4	4	6
38	41	2
121	125	7
119	138	3
95	98	4
114	114	6
58	58	1
14	14	6
132	132	7
141	141	4
112	120	1
106	107	5
121	122	3
16	19	2
81	82	2
98	98	2
115	141	4
17	20	2
66	85	1
63	82	1
138	139	5
81	81	10
19	31	2
100	101	1
22	22	3
17	18	1
145	147	4
131	131	4
78	78	3
27	27	1
8	9	6
107	109	4
152	152	6
125	128	2
92	92	9
124	125	3
71	71	8
123	125	2
121	121	3
6	32	4
38	51	3
76	76	1
110	114	2
31	31	22
41	42	3
96	106	2
8	36	2
20	20	8
28	28	7
64	65	4
24	24	10
56	56	1
139	139	2
16	37	4
111	112	6
94	94	4
26	28	3
23	26	2
126	127	6
52	56	4
47	47	4
102	108	1
75	105	2
7	7	7
14	32	2
86	99	4
30	30	5
150	151	4
8	8	2
34	34	3
28	30	1
69	103	1
40	40	5
69	69	10
144	146	3
146	146	4
119	119	9
9	15	4
111	111	3
103	108	1
86	86	1
73	73	4
75	78	1
24	39	1
94	95	4
78	82	4
24	42	1
68	131	1
128	129	4
5	8	3
129	131	2
145	150	1
34	35	3
36	149	2
18	20	3
37	37	4
128	128	10
22	23	6
6	23	1
43	44	6
68	85	1
38	38	7
136	148	1
104	106	1
82	113	1
130	130	4
99	100	4
66	84	3
72	122	3
56	57	4
30	34	3
15	15	2
124	127	2
9	35	1
112	134	4
10	146	1
138	146	1
93	93	4
16	87	1
102	102	4
129	129	7
110	111	2
145	146	1
31	35	4
145	145	2
135	135	5
49	50	1
112	119	2
82	109	3
85	86	3
132	139	1
76	77	1
101	102	1
62	78	2
78	79	3
66	66	5
23	35	3
106	108	1
53	53	3
34	129	2
68	68	3
106	106	5
127	127	1
13	14	5
11	28	2
78	85	2
46	46	10
112	113	7
82	94	2
41	41	3
117	135	1
92	110	2
103	105	4
50	51	1
51	51	5
147	148	6
92	113	2
6	6	11
141	144	3
73	85	3
72	82	3
63	81	3
131	144	3
144	149	2
42	45	1
30	37	1
99	99	1
67	67	3
115	116	3
23	36	4
137	137	3
39	51	1
65	65	2
29	30	4
64	64	3
27	38	4
95	95	5
116	117	3
16	17	6
142	142	1
73	77	1
86	97	3
9	9	9
23	23	3
11	27	2
80	81	2
75	75	2
33	34	2
14	31	1
83	83	2
87	88	1
153	154	5
63	76	1
64	89	2
18	19	1
24	92	1
145	149	2
4	5	7
50	50	4
45	65	1
66	91	2
97	97	5
136	137	2
108	108	1
128	149	1
7	8	1
25	28	2
124	124	1
132	140	2
22	38	1
26	26	3
5	11	2
77	78	3
25	32	1
90	114	2
90	90	1
12	25	3
38	40	5
127	139	3
98	99	6
80	83	1
74	75	3
51	86	1
74	77	3
7	11	1
35	37	1
127	136	2
55	55	3
19	19	2
148	148	4
4	7	1
12	86	1
85	94	3
100	100	1
86	88	3
9	11	2
57	75	1
82	83	4
23	37	7
111	135	1
41	43	2
115	115	1
35	86	1
86	125	1
20	31	2
53	55	3
142	144	1
67	76	1
80	80	4
144	144	1
73	74	5
69	78	1
94	97	3
84	84	3
69	74	2
124	130	5
125	137	1
15	17	3
89	89	1
4	12	3
118	118	2
33	33	2
133	138	2
8	29	1
134	135	3
23	28	1
6	27	1
12	12	2
7	12	1
134	138	3
150	150	1
131	140	3
30	36	2
56	63	2
69	72	1
84	87	1
54	73	2
77	79	1
124	143	1
102	103	4
103	103	1
50	101	1
137	138	2
79	79	1
10	29	1
109	109	3
32	63	1
5	6	1
74	74	3
66	67	1
88	88	2
151	151	6
16	32	2
65	66	1
96	96	1
139	146	2
10	149	2
4	11	1
45	73	2
6	26	2
125	130	1
129	133	1
50	54	1
30	31	1
123	147	1
78	94	1
72	72	1
7	20	3
13	16	1
52	52	1
9	20	1
73	104	1
82	88	1
154	154	1
141	142	1
45	64	1
110	113	1
29	34	1
19	21	1
142	150	1
5	29	1
12	29	1
52	55	1
25	25	1
107	107	2
102	107	1
77	80	1
83	134	1
118	149	1
61	64	1
63	66	1
