77	77	9
36	36	17
12	12	13
75	75	19
30	46	1
50	50	28
29	29	15
6	6	15
15	15	18
31	33	5
16	17	8
75	76	3
38	38	29
60	60	22
80	80	36
31	32	10
39	40	5
41	41	36
16	16	20
19	19	14
11	11	23
78	79	15
60	61	5
45	45	25
62	65	5
79	79	14
55	65	4
49	50	9
0	0	22
52	53	5
73	73	27
32	33	10
57	57	11
30	30	20
39	39	21
13	13	30
70	70	33
63	63	21
26	79	3
37	37	19
50	52	3
27	30	2
18	18	6
33	34	5
32	32	8
10	10	12
65	65	17
55	55	14
48	48	32
6	20	7
66	66	27
47	47	22
77	78	12
42	42	33
35	35	22
55	56	14
54	62	4
56	56	23
4	58	1
33	33	13
5	5	18
52	54	4
71	71	20
1	1	17
64	65	1
58	59	10
65	66	12
28	30	9
67	68	8
59	59	10
27	27	19
9	9	13
28	28	26
2	3	11
15	20	1
6	75	2
74	75	12
7	7	24
8	8	10
67	67	18
7	8	4
34	35	3
5	6	4
63	64	9
74	77	4
47	49	3
51	52	2
11	14	3
31	31	24
53	53	38
5	63	5
27	28	3
61	61	16
13	14	16
64	64	31
58	58	25
68	68	23
7	47	3
78	81	2
63	65	1
9	11	4
48	53	1
26	26	9
78	78	21
72	72	18
66	67	7
76	76	15
10	12	6
51	51	12
38	39	10
50	54	1
71	72	11
8	9	8
62	62	10
40	40	20
38	41	2
43	43	4
15	51	1
21	21	6
41	42	9
49	49	16
74	74	33
8	13	2
69	69	11
42	43	11
26	47	6
4	4	26
62	64	5
34	34	9
17	17	16
2	2	17
54	67	3
46	46	23
51	53	3
54	68	1
48	49	5
34	64	1
37	38	3
25	25	10
69	70	10
19	27	4
10	11	3
6	35	5
56	57	5
34	61	3
53	54	4
28	29	4
50	51	4
10	68	2
30	31	2
47	48	1
3	3	12
7	16	2
11	32	1
36	39	3
35	36	4
0	2	1
54	54	12
52	52	17
76	77	4
45	80	4
8	10	3
70	71	9
61	62	7
17	18	8
57	58	5
62	75	1
33	35	2
76	79	1
21	73	4
6	7	7
58	61	3
30	32	2
7	73	2
61	66	4
0	7	3
15	16	4
14	14	10
16	32	2
1	2	5
29	30	3
25	55	3
7	11	1
14	15	3
54	55	5
62	63	3
25	46	2
31	34	2
3	4	7
72	73	3
20	20	8
40	41	4
59	60	6
46	47	8
53	68	3
79	80	4
48	61	2
80	81	3
18	47	3
46	59	2
46	50	1
16	33	2
17	33	1
33	49	3
54	64	1
73	74	2
26	56	1
72	77	2
4	35	1
13	15	2
75	78	1
44	44	3
75	77	1
65	69	3
9	72	1
64	67	3
36	38	3
65	68	3
1	19	3
45	46	3
57	62	2
11	12	3
49	68	2
11	69	1
17	41	1
52	69	1
9	10	2
12	19	2
54	65	1
48	50	2
67	70	4
28	47	1
11	70	1
38	40	1
36	37	1
39	41	1
29	51	1
30	61	1
68	69	3
31	73	2
46	61	1
9	65	1
7	72	1
11	21	1
55	63	4
74	78	1
42	80	1
47	58	1
43	48	2
19	20	2
4	5	1
74	76	1
68	70	1
36	60	1
10	72	2
15	21	1
50	63	1
59	63	2
67	69	1
21	31	1
7	35	1
15	30	1
22	22	1
26	71	1
11	71	1
62	78	2
39	42	1
50	64	1
56	65	1
27	35	1
4	8	1
