94	99	2
84	90	2
45	49	4
69	69	10
23	24	3
86	86	9
47	51	1
57	57	15
54	54	5
83	83	2
89	89	5
74	74	16
48	48	9
45	46	2
80	94	4
88	88	7
89	99	1
62	63	2
37	38	2
56	85	2
34	34	7
86	87	3
37	37	1
36	51	4
56	57	6
102	102	2
88	89	2
27	27	6
44	45	6
75	77	2
72	72	2
65	66	7
79	88	1
45	45	7
33	88	3
22	22	2
91	91	8
93	97	2
63	64	5
78	78	5
92	94	1
35	53	3
33	92	2
67	67	7
44	44	3
75	75	10
94	96	2
80	80	4
93	98	2
31	31	1
70	72	7
79	84	2
42	42	5
56	56	15
65	68	3
59	59	9
42	43	2
80	81	3
73	80	1
68	69	2
79	79	5
82	82	5
71	71	4
73	73	3
81	81	3
85	88	1
54	55	9
97	99	2
49	49	12
100	101	2
76	76	8
62	86	3
93	93	9
57	100	2
55	55	9
63	63	3
53	53	11
57	59	4
97	98	8
78	79	4
69	72	3
92	92	9
20	52	1
38	38	9
66	66	10
67	68	4
99	99	15
47	47	4
99	100	6
96	96	1
95	95	7
36	37	13
36	36	6
100	100	13
62	62	5
49	50	6
58	59	6
70	70	14
96	97	5
65	65	6
52	52	4
69	70	4
38	57	4
76	78	3
74	75	3
87	87	5
87	88	2
64	64	8
75	76	3
24	25	5
46	46	4
85	86	4
101	101	10
96	100	2
21	22	2
40	40	1
98	99	2
54	56	3
58	60	1
61	61	2
52	60	2
66	68	4
94	94	5
79	80	6
84	84	2
60	60	11
51	51	10
95	98	2
81	88	3
81	82	3
25	25	5
58	58	15
62	64	2
89	90	1
95	96	1
98	98	3
76	77	4
80	84	6
55	88	1
35	36	3
66	67	4
59	62	1
22	23	2
35	35	6
90	90	4
96	98	4
30	31	2
68	68	6
23	23	4
82	88	2
94	95	3
93	99	2
60	61	3
88	92	1
86	89	2
43	43	4
72	73	4
91	92	9
79	94	1
77	77	3
54	97	1
43	67	1
34	95	1
71	72	2
30	30	1
53	90	1
55	99	4
57	58	4
39	56	1
54	99	2
54	89	1
63	97	1
61	62	2
97	97	2
58	62	3
28	77	2
53	54	3
80	85	3
36	39	1
53	98	1
31	79	1
52	53	3
50	50	2
41	41	2
56	58	1
40	41	2
33	34	2
26	26	1
35	37	1
63	65	1
26	27	1
89	91	2
60	64	1
46	48	1
29	54	1
73	74	4
23	100	1
20	49	2
56	99	1
33	33	1
98	101	1
28	47	2
82	84	1
85	85	1
32	86	1
65	98	2
29	31	1
93	100	3
62	74	1
53	87	1
54	57	3
89	101	1
81	84	2
59	85	1
37	47	1
38	39	1
64	65	1
40	95	1
32	32	1
26	78	1
78	80	1
