20	22	1
25	25	15
65	66	5
59	60	3
64	64	16
60	62	2
69	69	29
24	47	3
76	77	14
22	22	19
59	59	25
71	71	14
29	30	4
103	104	18
47	48	3
49	49	17
37	42	3
35	39	2
55	55	19
66	66	22
96	98	3
75	75	24
92	93	7
68	76	4
95	96	7
28	29	2
69	90	2
54	54	33
62	62	22
99	99	14
61	61	26
104	104	30
40	41	13
67	67	15
37	37	8
68	69	13
101	101	24
93	93	13
78	79	7
22	73	2
102	102	23
95	98	2
80	80	28
105	105	23
51	58	4
38	39	8
50	51	8
34	34	24
89	89	33
65	79	4
57	57	12
73	73	21
76	76	24
72	92	6
74	74	22
65	89	4
83	85	2
21	21	15
53	54	2
78	86	3
26	26	19
32	33	1
48	48	15
100	101	2
52	53	9
38	38	14
43	44	5
30	79	7
66	69	3
24	24	24
82	82	17
36	56	6
55	56	1
65	65	20
103	103	24
88	89	9
66	67	11
21	22	3
50	50	20
101	102	2
43	43	14
95	105	5
68	68	12
52	54	8
31	31	21
96	96	14
51	52	4
46	46	10
60	60	10
83	83	4
52	52	15
53	53	29
91	91	23
26	27	6
94	95	1
79	83	2
63	63	19
70	70	24
62	63	8
70	71	7
79	79	22
86	91	2
44	44	16
58	58	12
83	84	11
23	23	22
30	30	26
47	47	8
27	27	10
73	74	15
56	89	2
56	58	7
40	40	19
41	46	4
104	105	5
81	87	3
81	85	1
45	45	16
63	64	8
87	88	2
80	81	6
102	103	4
100	100	11
32	32	23
91	99	1
67	68	3
71	92	4
101	105	4
66	81	5
50	54	1
38	71	2
32	78	3
50	52	4
51	51	21
66	68	2
25	26	11
68	91	2
40	48	1
84	84	15
73	77	3
56	56	20
94	94	35
58	59	9
36	37	6
72	72	13
96	105	10
58	63	3
39	39	21
50	53	1
92	92	15
31	37	4
48	52	1
87	87	13
64	65	3
97	97	11
37	75	5
60	61	12
40	42	1
33	33	17
30	78	2
106	106	9
94	96	2
97	99	12
41	42	6
44	45	5
24	25	5
88	88	21
97	98	9
85	85	15
26	77	3
86	87	9
68	70	4
83	86	4
92	105	3
34	35	8
22	24	3
49	55	2
41	41	16
42	43	8
46	47	7
41	43	4
97	107	1
86	86	2
81	81	14
91	92	7
77	77	9
47	49	6
28	34	3
35	36	10
94	98	5
93	98	6
95	104	2
49	50	5
95	95	11
24	26	3
82	85	4
77	92	2
49	77	2
76	78	4
57	58	6
81	82	5
77	90	1
65	69	2
40	49	4
32	69	3
95	107	4
77	78	4
90	90	15
23	24	1
70	102	5
40	50	1
25	79	4
46	49	3
93	94	7
84	85	14
28	28	16
43	50	1
44	52	1
67	91	3
37	38	4
23	37	6
67	69	3
33	34	6
29	29	9
53	61	2
98	99	6
49	90	2
93	99	5
45	46	3
35	35	14
51	53	2
67	92	4
61	63	3
82	90	3
19	22	2
71	72	3
78	87	2
69	70	5
24	31	5
99	106	6
95	99	3
45	55	2
20	20	5
84	86	3
65	91	7
93	97	1
88	90	3
25	30	1
48	49	4
56	77	4
31	69	2
30	31	1
81	92	3
55	77	1
79	80	8
85	90	1
36	36	9
98	98	11
100	102	3
88	98	1
63	88	3
68	101	1
87	93	2
22	34	2
61	72	1
49	59	2
99	101	2
31	67	1
57	95	3
84	92	3
68	92	2
78	106	2
40	45	1
30	41	2
75	76	8
106	107	4
78	78	7
102	104	1
37	72	4
65	67	2
79	88	4
22	23	4
79	81	1
39	40	1
42	44	2
61	65	3
82	88	2
37	74	2
27	34	1
36	50	2
32	36	1
42	42	5
95	106	1
66	94	1
34	53	3
25	29	3
49	60	1
39	55	5
45	79	4
30	53	1
22	28	1
90	91	2
56	59	3
72	73	3
25	81	2
88	97	1
36	74	4
42	48	1
65	90	2
71	77	1
73	92	1
25	77	1
95	97	4
33	72	3
92	97	2
75	104	2
94	97	1
70	72	3
53	64	3
90	94	1
58	60	2
41	44	2
85	91	2
55	62	1
70	92	1
31	32	1
37	39	1
78	85	1
54	59	2
96	97	3
61	64	1
58	78	1
30	35	1
23	36	4
107	107	1
80	86	1
82	98	2
65	82	6
69	76	1
81	83	1
76	79	1
51	105	1
63	67	1
77	96	1
82	87	2
24	39	3
51	64	1
34	73	2
33	75	1
27	28	2
83	90	1
54	56	2
31	78	1
66	103	1
49	53	2
38	40	1
80	96	1
87	89	1
21	23	1
69	104	1
53	60	2
60	63	1
22	36	2
21	31	2
70	73	1
31	70	1
24	28	2
53	57	1
39	70	2
61	62	2
92	98	1
23	53	1
25	80	1
54	58	1
59	61	1
81	90	1
69	91	1
72	76	1
89	98	1
54	55	1
100	104	1
