30	30	10
102	102	10
77	91	1
8	8	8
72	72	5
42	60	1
77	98	2
71	78	3
87	92	4
58	58	7
77	78	2
117	117	16
38	38	1
88	89	5
20	27	3
13	85	2
43	92	4
37	37	2
91	91	14
82	84	3
98	123	8
130	130	6
118	118	5
111	111	3
5	5	11
62	62	12
85	85	11
26	26	8
53	115	4
71	118	2
75	75	8
60	60	8
84	84	10
70	70	21
9	9	4
121	121	12
98	121	6
95	95	14
31	32	3
109	112	3
114	114	18
63	63	12
95	112	1
61	71	2
93	94	3
13	13	9
123	123	21
70	98	5
131	131	4
106	118	4
62	91	1
74	74	15
56	83	3
80	84	8
33	34	6
43	57	8
45	86	3
126	130	2
4	5	4
45	54	3
89	90	14
29	29	11
34	80	2
99	99	12
19	19	3
85	86	5
100	100	8
4	43	1
133	134	2
78	78	5
88	96	1
127	127	8
55	55	8
54	54	8
129	130	7
80	80	14
28	28	4
23	23	2
102	103	6
72	73	3
20	20	9
117	118	4
88	97	2
103	121	5
17	17	2
73	73	7
18	18	4
58	83	1
128	129	3
54	55	7
12	12	9
118	120	2
119	119	3
126	126	8
54	68	4
24	32	1
14	14	5
104	105	4
56	67	4
101	101	6
65	65	2
95	98	1
31	31	14
109	109	11
68	68	5
26	34	6
106	106	7
79	79	14
33	33	3
105	107	2
7	7	2
102	129	3
92	92	6
61	65	2
78	80	2
44	44	9
105	105	14
27	27	2
25	25	7
44	49	1
129	129	11
86	92	5
97	99	2
76	121	3
47	51	2
115	115	8
102	122	1
49	50	9
33	86	3
111	116	5
27	32	5
33	36	5
43	67	4
134	134	9
70	91	3
53	53	2
102	121	1
66	68	4
62	81	1
79	80	7
19	21	7
107	118	8
15	80	1
50	50	6
94	96	4
119	120	6
114	115	4
21	21	15
71	82	2
79	103	1
113	131	2
100	112	4
12	13	2
127	129	1
6	7	2
99	100	2
94	110	3
20	34	2
122	123	2
29	30	3
30	35	5
76	76	8
94	95	3
118	131	5
55	63	2
77	77	8
64	78	5
68	85	2
71	84	2
110	110	5
63	65	4
70	88	4
63	72	3
96	96	10
82	114	2
61	64	2
131	132	5
2	2	7
96	97	4
24	24	9
128	134	2
108	108	9
124	124	12
59	64	2
125	125	13
108	116	2
29	73	2
26	35	2
133	133	6
79	132	1
43	43	2
93	93	4
52	52	3
0	3	2
106	122	3
65	93	2
82	86	4
127	128	4
122	122	4
109	110	1
116	116	10
0	5	3
27	29	2
43	45	3
100	113	3
90	93	3
89	89	8
112	113	2
97	97	9
83	84	1
43	66	4
60	63	2
116	118	5
50	53	2
79	107	1
69	69	3
60	61	6
6	80	2
108	110	3
90	90	8
79	84	3
29	99	2
16	16	4
19	28	3
103	130	2
107	117	5
5	14	1
7	36	1
55	67	4
56	58	2
7	43	3
22	22	8
97	133	2
87	87	8
120	120	7
65	111	1
73	74	2
71	71	2
78	86	4
107	115	3
124	128	2
73	102	2
86	86	7
56	56	6
104	104	11
64	64	4
61	61	4
52	53	6
25	64	1
67	67	4
71	113	2
80	95	1
7	13	1
57	67	1
0	0	4
7	9	2
57	84	1
108	111	3
80	85	3
6	6	1
53	86	2
78	84	6
10	10	2
92	93	3
45	60	2
46	47	3
72	84	2
48	57	1
55	61	3
120	126	1
56	66	7
23	26	2
72	85	2
27	28	2
82	82	3
119	127	5
57	87	2
113	113	11
14	85	2
71	85	1
120	122	4
48	71	1
19	20	2
71	96	1
61	67	2
112	112	6
35	35	2
86	91	3
3	4	4
103	120	2
128	128	1
116	117	3
18	19	2
1	1	1
42	51	1
123	124	3
88	88	4
113	115	2
53	91	2
108	117	1
44	66	3
15	15	2
78	81	1
98	98	6
43	54	2
24	25	1
58	59	3
102	126	1
81	107	6
74	75	3
45	67	1
78	113	3
4	4	4
125	127	8
119	132	1
83	83	4
78	82	3
81	111	1
101	102	2
34	34	3
56	86	2
43	48	1
106	110	1
84	85	1
1	2	6
122	128	1
15	85	1
70	133	2
101	121	1
106	108	2
48	48	3
22	23	3
97	116	2
45	66	1
21	27	1
118	125	3
78	83	4
77	113	2
113	123	1
72	97	1
61	63	1
46	46	1
69	121	1
57	57	3
119	128	2
7	14	1
50	108	3
32	37	1
4	8	1
2	28	3
78	130	1
98	105	2
77	86	2
3	3	2
132	132	3
21	29	1
57	58	2
52	115	2
36	36	6
120	121	1
101	120	1
57	64	1
32	32	1
42	43	2
120	134	2
128	130	2
95	110	2
11	11	1
106	107	1
78	95	2
71	121	1
59	59	2
100	130	1
91	93	1
19	34	1
43	64	2
70	134	1
53	54	2
47	72	1
81	108	2
3	6	1
62	63	1
107	119	2
33	35	2
125	126	3
53	114	2
43	49	1
68	77	1
12	14	5
45	69	4
49	49	1
65	66	2
67	117	1
34	71	1
129	131	2
69	117	1
24	26	2
81	81	1
103	104	1
115	116	1
78	100	2
69	75	1
47	50	1
108	113	2
20	21	1
66	86	1
83	115	1
9	84	1
14	18	1
107	107	3
44	67	1
44	55	2
80	110	1
119	130	1
60	64	1
103	103	2
44	69	1
6	27	1
45	46	1
9	82	1
94	94	1
125	129	1
30	31	1
66	66	1
109	111	1
55	56	1
119	123	1
70	116	1
77	115	1
99	113	1
18	34	1
25	26	1
14	15	1
121	122	1
122	125	1
5	29	1
