38	38	4
165	165	8
156	156	13
39	69	3
52	52	17
141	142	3
51	68	6
140	141	3
162	162	3
34	34	17
6	6	10
8	8	22
128	129	2
24	24	9
98	98	11
7	9	7
126	127	7
167	167	7
132	132	4
86	86	12
18	19	2
77	78	2
110	110	9
25	25	10
119	119	2
54	54	11
139	139	10
158	169	1
96	96	6
57	57	7
136	136	20
50	50	8
67	69	1
22	22	3
120	120	5
58	81	4
113	113	11
11	12	5
142	142	9
157	158	4
112	112	6
1	1	17
21	64	2
80	80	8
137	137	23
16	17	3
7	75	2
20	20	11
1	3	8
159	159	3
37	37	22
77	77	4
119	129	3
154	154	5
84	84	7
19	19	5
9	10	5
3	3	12
47	47	9
9	9	8
144	145	12
158	158	10
134	135	6
105	105	2
108	108	15
6	76	5
0	34	1
149	149	8
4	4	19
90	90	11
158	167	1
100	101	5
117	117	6
128	131	2
6	7	8
146	147	4
108	109	5
0	97	4
75	75	5
40	40	12
37	38	4
70	80	4
14	46	1
101	101	7
97	97	1
10	126	2
131	142	3
163	164	1
16	16	10
13	14	4
156	157	7
74	74	7
28	28	5
27	27	3
128	128	5
123	124	1
13	130	3
166	166	6
67	71	4
39	41	4
64	115	2
135	135	3
129	130	4
42	42	9
68	69	6
55	76	4
5	5	15
53	54	4
99	100	3
56	56	10
157	157	11
10	47	1
118	129	2
145	149	3
11	11	13
69	69	9
35	36	5
35	35	9
53	53	6
85	85	1
151	157	2
17	17	8
92	92	4
0	0	1
44	44	6
109	109	18
63	66	1
43	55	1
0	1	5
43	44	3
7	7	19
63	63	6
15	16	10
51	69	2
115	115	4
104	104	7
89	90	2
12	13	1
111	112	6
18	18	7
14	14	3
27	28	5
116	116	10
160	160	7
52	108	4
107	107	6
138	138	3
111	151	2
104	106	3
56	74	2
137	138	2
0	25	3
24	149	4
44	45	6
131	132	1
55	134	1
51	51	9
72	72	8
122	122	9
62	63	6
15	19	5
81	81	8
45	45	11
155	156	2
55	108	6
125	125	11
111	111	10
56	57	10
147	147	1
2	3	2
92	103	2
87	93	1
165	166	3
164	164	6
69	70	5
163	163	5
64	114	1
132	133	1
13	13	9
48	48	7
103	104	6
21	21	12
99	99	3
10	10	7
47	48	5
124	124	7
57	58	5
22	64	3
159	160	2
12	12	10
55	55	11
100	100	7
64	79	2
17	44	3
36	36	9
39	85	2
134	134	12
57	112	4
50	66	2
158	159	1
70	70	2
18	21	2
148	148	4
155	155	3
103	103	1
6	125	1
4	5	3
118	118	9
126	126	3
147	153	2
109	110	3
58	58	2
23	24	3
140	140	5
64	64	4
67	67	6
20	21	5
53	137	1
49	49	4
84	85	3
10	13	1
22	24	4
82	82	6
161	161	6
23	126	5
52	53	5
51	61	4
36	57	1
106	106	5
33	33	2
170	170	3
46	46	15
14	15	2
76	77	1
123	123	2
50	51	2
117	118	1
46	47	2
127	129	3
149	150	4
101	103	1
38	52	3
169	169	8
127	127	2
87	88	3
168	168	2
125	126	1
26	36	2
112	135	2
165	167	2
55	56	10
17	25	2
2	2	6
15	15	2
54	74	1
21	23	1
5	6	4
78	79	3
107	149	1
88	95	1
83	84	2
36	42	1
148	155	1
27	90	2
159	161	1
41	42	6
24	138	3
149	152	2
90	91	3
58	78	3
162	163	5
5	23	1
133	133	5
88	89	3
108	165	1
43	43	2
142	143	2
5	22	1
144	149	1
53	166	1
76	76	4
62	62	2
144	144	4
87	87	3
107	108	1
57	62	2
39	50	2
83	85	1
130	130	6
116	151	3
63	116	3
41	41	6
15	46	6
49	163	3
131	131	7
6	20	2
50	94	1
64	116	3
3	82	1
66	66	2
21	24	1
153	153	3
73	73	3
143	144	1
148	165	1
151	151	6
83	83	2
117	143	2
63	77	2
7	8	1
130	143	3
52	145	1
53	138	4
143	143	3
37	56	1
26	26	4
42	43	4
1	53	1
156	169	3
49	166	2
71	71	6
69	76	1
1	74	1
55	133	3
7	125	1
57	80	2
146	148	2
135	136	2
17	41	2
121	122	2
19	131	2
56	64	2
38	39	2
113	114	2
114	114	3
4	27	1
67	68	2
97	98	2
154	159	5
116	125	1
17	135	2
49	50	1
42	85	2
122	151	1
65	79	1
17	18	1
138	139	1
36	115	1
162	168	1
118	130	1
16	18	1
38	41	1
91	92	2
108	110	1
61	113	2
27	82	1
129	129	3
150	150	3
79	79	5
130	142	2
22	23	4
151	152	1
71	72	2
150	151	1
129	131	2
133	134	2
101	102	1
118	119	3
114	126	1
78	78	2
147	149	3
20	67	3
135	137	1
76	78	2
54	55	1
93	95	2
130	131	1
7	10	3
10	11	2
64	75	2
19	20	1
104	105	3
7	122	1
63	64	1
131	145	1
5	45	1
94	95	2
80	81	1
47	49	1
117	122	1
141	141	2
73	74	1
47	72	3
8	10	1
51	63	1
24	117	1
62	114	1
121	125	1
121	121	2
48	71	1
1	2	1
155	157	3
25	126	2
93	94	2
39	86	2
75	79	1
139	140	1
68	68	2
164	165	1
38	53	1
91	93	1
53	76	3
3	4	2
45	52	1
98	99	1
167	169	1
40	53	1
88	93	2
92	93	1
24	25	1
9	128	1
110	111	1
96	99	1
115	126	1
9	20	1
44	82	1
64	76	1
146	163	1
18	20	1
24	155	1
58	61	1
145	145	1
148	151	1
112	133	2
6	8	1
