25	26	1
55	55	30
130	130	12
140	140	14
49	49	33
37	41	4
139	142	5
18	19	12
105	105	15
72	72	13
42	42	31
147	151	2
133	134	10
45	45	28
164	164	19
110	110	43
161	161	20
57	62	8
146	146	30
108	108	39
98	98	25
22	23	8
138	140	7
17	17	27
143	143	30
71	73	5
132	132	31
42	113	3
78	78	15
16	43	1
157	164	3
19	19	28
152	152	27
64	64	9
149	151	3
154	162	15
101	102	16
77	77	19
145	145	22
121	131	2
82	87	3
36	37	1
156	165	1
24	24	30
124	124	50
122	125	5
106	106	13
38	38	37
83	83	14
25	45	2
142	142	17
46	49	3
14	142	2
147	147	28
0	0	17
7	7	33
4	7	5
133	147	3
4	4	36
26	26	26
122	122	10
35	35	20
96	96	9
160	160	9
128	128	14
53	53	23
125	125	19
72	73	5
138	138	28
0	1	22
65	67	4
115	124	3
152	153	8
5	5	25
62	89	5
123	128	4
108	124	2
119	119	33
90	90	12
113	114	9
111	111	37
39	39	18
107	107	23
165	165	28
99	99	11
70	70	15
9	151	2
123	123	12
21	21	23
108	109	6
151	151	18
63	63	31
45	73	1
51	52	3
126	130	4
121	121	24
121	126	2
39	40	29
14	55	2
8	10	21
109	109	27
1	1	35
74	98	3
36	36	35
129	159	2
101	103	4
20	20	15
91	94	1
68	115	8
169	169	24
142	165	2
119	120	12
40	40	25
84	95	2
11	11	17
85	85	21
34	133	4
139	139	17
123	153	1
163	164	8
52	80	1
127	145	3
56	56	28
6	7	12
153	154	4
118	118	22
150	170	1
13	13	23
34	37	2
102	116	1
73	73	21
153	153	23
48	48	26
79	79	7
8	9	5
34	34	46
140	141	9
61	61	3
76	76	4
50	50	33
136	136	14
85	95	4
149	158	5
155	157	8
14	15	14
121	122	3
64	66	7
156	156	28
23	23	28
1	5	4
167	167	12
71	71	13
149	149	32
40	53	3
104	104	14
72	74	2
135	135	14
85	96	6
2	2	14
10	10	23
38	39	10
33	34	13
151	152	12
1	2	10
113	129	3
122	123	15
156	160	5
126	136	3
6	6	27
97	104	3
128	129	6
46	46	36
66	69	5
161	163	5
14	14	25
64	65	4
54	62	5
61	62	4
44	128	3
37	37	22
69	124	1
143	144	7
147	149	3
47	49	6
150	151	4
57	57	23
112	112	31
138	165	2
103	104	1
12	12	54
8	8	18
0	16	3
95	95	9
15	15	15
93	93	10
8	21	1
132	152	5
86	86	12
113	113	21
65	65	19
84	92	2
138	146	4
19	38	2
44	44	30
116	116	34
159	159	20
49	159	4
49	50	11
80	80	17
51	51	34
37	112	4
131	165	2
62	62	22
150	150	12
55	56	10
43	43	33
137	138	8
160	163	4
62	82	1
35	54	2
169	170	5
10	11	16
38	128	4
146	147	7
161	164	3
40	116	4
81	101	6
119	151	3
168	168	20
54	54	16
162	165	11
89	90	10
120	121	10
131	131	21
16	16	31
120	120	20
115	115	32
125	169	2
11	12	8
45	82	1
112	128	1
66	66	28
106	114	1
44	62	3
94	94	7
16	106	1
112	113	12
145	165	2
55	142	4
131	160	1
162	164	3
137	137	14
99	148	3
126	126	22
81	81	14
67	68	11
78	146	2
127	127	24
155	156	6
163	163	19
133	138	2
114	114	18
68	69	3
39	57	4
168	170	4
39	41	3
126	145	6
64	83	2
111	148	4
7	8	9
157	157	16
51	58	3
25	25	28
86	88	10
65	66	13
47	47	31
154	154	28
125	127	7
57	66	3
54	83	3
0	40	1
109	110	14
51	63	4
89	89	2
107	111	3
79	89	2
129	165	4
102	102	12
84	87	3
92	93	7
159	167	2
58	58	2
116	130	2
144	145	6
162	162	10
120	152	4
9	9	16
117	119	4
126	127	14
134	134	21
52	53	8
146	149	3
75	76	2
67	110	2
66	67	5
135	141	3
3	11	1
138	141	4
44	58	1
25	27	2
54	58	1
15	20	8
110	125	2
21	23	1
135	150	1
84	94	4
125	126	2
2	22	5
5	9	2
130	147	2
14	92	6
86	87	11
142	147	2
153	160	6
23	24	10
164	165	5
100	100	7
129	130	5
147	148	9
62	67	1
109	112	3
82	82	9
141	141	17
80	114	4
53	54	12
69	107	2
93	94	14
130	156	1
2	3	4
22	22	24
117	117	15
110	111	10
136	145	6
103	105	2
132	168	3
26	36	2
118	165	5
4	8	5
166	169	2
43	44	6
24	25	15
47	48	14
79	80	12
167	169	2
146	148	5
111	170	1
18	80	1
38	40	6
99	103	4
41	67	2
150	167	2
83	93	3
54	129	1
13	147	7
101	105	2
18	18	35
9	25	2
162	163	14
1	24	2
35	36	9
113	166	8
27	27	33
69	121	4
92	92	12
78	79	9
22	80	2
37	38	2
76	77	1
133	150	1
132	133	1
70	71	1
166	167	2
45	58	4
101	101	11
167	168	2
154	163	5
67	67	3
4	9	4
138	142	5
85	86	3
87	87	11
160	161	3
119	152	1
158	158	31
76	84	7
17	18	3
14	27	2
80	89	3
115	116	7
5	11	3
80	81	7
69	69	11
56	57	15
124	126	3
118	123	2
119	123	6
153	162	2
138	144	1
75	75	8
95	96	7
134	135	10
10	14	2
52	52	15
88	106	2
65	153	5
68	68	22
139	145	1
5	7	2
5	6	14
77	79	3
56	89	2
130	153	4
57	58	1
112	166	3
16	48	3
16	19	4
54	137	3
1	109	2
19	94	2
74	74	23
114	135	3
42	43	10
35	38	3
0	2	1
71	72	4
103	103	1
38	132	1
21	22	5
22	105	1
114	115	9
132	141	1
117	136	1
112	118	1
21	25	2
118	125	2
6	27	1
73	75	3
166	166	9
145	149	1
3	9	1
38	110	3
44	46	9
5	90	2
84	97	2
19	20	1
21	53	2
27	35	1
14	18	2
154	164	7
119	125	6
150	168	6
91	91	14
94	162	2
2	93	1
3	4	2
48	50	3
139	140	3
55	57	1
35	37	3
135	136	8
33	36	1
124	162	1
118	124	2
148	149	5
41	41	19
52	54	6
92	118	2
69	72	4
48	53	2
3	3	27
13	106	2
13	16	5
52	64	1
70	107	5
137	145	3
33	33	5
48	49	4
14	140	3
28	28	13
20	114	1
144	144	16
142	144	4
50	155	5
119	130	1
53	55	8
168	169	2
123	135	4
87	89	1
26	28	4
163	165	1
64	109	2
70	104	4
138	145	3
50	131	1
128	138	3
131	132	6
64	116	2
130	132	5
18	65	1
125	145	2
75	91	3
34	35	12
72	114	1
39	46	1
66	68	2
157	158	2
123	124	6
63	120	3
127	150	4
23	40	4
116	117	5
19	21	2
127	166	3
15	16	9
126	129	3
98	99	7
20	22	4
140	170	1
40	65	1
19	23	5
13	22	3
36	38	2
33	35	1
9	12	3
109	111	7
148	148	15
88	88	20
51	62	4
46	170	5
69	116	2
123	127	8
76	79	1
138	139	2
144	147	5
140	143	3
130	131	7
71	77	1
40	114	1
102	103	1
9	20	1
57	64	3
84	84	5
147	166	1
88	89	3
16	17	3
7	10	7
115	125	3
47	52	4
155	158	4
155	155	19
13	149	1
132	144	1
38	57	3
17	20	5
104	116	6
119	121	2
27	28	3
47	61	1
20	39	2
170	170	7
49	51	3
6	20	1
99	101	6
141	142	2
67	116	5
58	62	1
110	131	1
8	11	3
110	114	2
58	81	1
69	108	2
154	155	3
117	153	1
92	98	1
43	65	2
67	117	3
45	46	3
39	131	1
150	152	2
126	144	2
67	69	3
112	135	1
38	56	3
14	90	3
14	19	1
44	48	3
51	53	2
129	131	8
20	21	12
63	64	5
74	76	1
161	162	1
9	10	7
88	91	2
93	99	1
111	112	6
8	13	1
118	119	1
44	69	5
39	58	2
119	122	1
66	164	1
102	105	2
26	27	2
112	114	1
21	107	2
54	55	1
130	133	1
147	154	2
86	97	2
50	51	5
51	163	2
154	156	6
152	160	1
18	21	2
52	86	1
25	28	3
94	98	6
40	130	2
84	85	2
140	142	3
144	146	1
79	113	1
84	86	3
128	130	1
70	76	3
45	62	1
117	118	9
126	157	4
110	130	2
145	146	5
131	156	2
25	34	1
24	26	1
108	116	4
163	166	2
129	129	4
94	124	1
127	133	5
153	163	3
127	131	1
125	149	4
79	81	3
114	116	6
74	75	4
5	16	3
58	137	2
73	74	4
113	135	2
99	100	6
54	56	8
118	121	1
91	92	7
121	129	1
16	37	2
15	84	1
97	97	6
74	144	2
2	5	1
133	139	2
136	150	2
69	85	1
136	146	2
20	27	2
129	154	3
49	163	1
18	20	4
23	63	1
38	109	2
27	36	1
132	136	1
70	72	1
143	146	2
63	85	1
25	35	2
166	170	2
37	43	3
71	87	1
107	108	2
92	116	3
95	97	1
66	115	3
81	82	5
159	160	2
2	154	1
69	78	3
124	150	1
155	164	3
114	132	2
50	153	1
81	87	2
1	108	2
12	13	2
45	167	2
11	150	1
133	133	7
148	156	1
41	53	1
42	44	1
63	65	2
82	92	2
25	43	1
100	102	1
44	66	1
75	106	1
153	161	3
97	98	3
149	150	5
80	82	2
129	144	2
136	137	1
135	143	2
82	83	1
46	58	4
87	88	1
112	126	1
50	85	2
62	63	3
16	83	1
15	89	1
111	116	2
125	163	2
124	125	4
12	22	2
142	146	3
45	47	3
18	79	1
104	105	4
121	125	2
55	77	1
4	5	3
39	130	1
157	161	1
91	98	1
21	24	2
128	131	1
21	79	2
48	159	2
38	45	1
54	132	2
154	165	1
123	130	3
3	8	1
58	61	1
7	22	1
11	89	3
132	151	2
113	125	3
105	106	2
157	159	2
155	168	3
136	142	1
91	93	2
51	64	1
16	36	1
132	140	1
0	109	2
64	69	1
165	166	2
4	106	1
115	135	1
90	95	1
22	77	1
127	144	2
37	56	1
121	136	1
56	58	2
131	135	1
71	85	1
109	114	2
111	113	2
14	53	1
5	15	1
54	149	1
41	159	1
17	53	2
6	15	1
71	81	1
41	52	1
140	149	1
73	88	2
133	136	2
47	86	1
91	97	2
61	87	1
63	66	1
114	117	1
120	123	1
47	57	4
88	90	3
46	168	2
47	56	2
137	141	2
35	129	2
53	132	2
142	148	1
148	151	1
62	118	2
126	152	2
131	138	1
121	134	1
111	149	1
158	166	3
122	165	1
63	118	2
72	106	1
85	94	1
141	148	1
26	42	2
135	138	1
1	18	1
116	125	1
131	146	2
153	165	1
52	56	1
152	167	1
12	17	1
158	159	3
97	99	1
149	166	1
19	22	1
39	110	1
1	153	1
47	50	1
70	84	1
117	120	1
83	86	1
45	64	2
129	136	1
137	146	1
127	128	1
12	14	2
126	167	2
63	88	1
74	97	1
128	136	1
44	45	2
134	143	2
1	3	1
106	107	1
93	95	1
87	97	1
153	155	1
80	83	1
139	143	1
109	115	1
113	136	1
93	116	1
1	165	1
20	24	1
1	166	2
127	169	1
33	42	1
44	56	1
81	86	1
123	131	1
12	15	2
24	74	1
7	25	1
118	154	1
20	23	3
149	169	1
53	56	1
108	121	1
66	165	1
86	94	1
55	141	1
37	128	1
131	152	1
49	52	1
68	121	1
56	133	2
128	155	1
108	115	1
70	83	1
98	103	1
38	41	1
52	163	1
14	54	1
151	153	1
98	136	1
68	110	1
140	165	2
49	57	1
130	144	1
19	73	1
137	143	1
41	42	1
67	124	1
46	48	1
49	56	1
133	137	1
62	158	1
109	128	1
15	140	1
127	157	1
119	141	1
11	13	1
131	145	1
