158	158	17
127	128	1
20	20	8
111	111	14
15	125	3
92	92	10
93	93	15
28	34	1
132	132	16
65	66	5
17	17	18
11	12	9
70	70	9
106	106	19
41	41	16
124	125	10
120	136	1
11	11	11
82	82	16
99	100	3
90	140	3
148	149	4
133	156	1
52	54	4
37	107	5
65	65	7
150	151	6
138	140	2
67	69	9
127	127	23
66	66	14
126	126	11
9	121	1
54	54	8
124	124	15
118	119	3
95	96	13
12	27	2
37	37	20
23	24	7
99	101	6
101	101	18
80	80	19
104	104	10
6	6	17
68	69	3
12	12	24
89	89	15
113	113	19
139	139	16
153	153	23
16	18	8
99	99	12
128	128	20
144	144	31
147	147	11
16	16	21
35	36	6
2	2	22
86	86	27
118	118	12
21	21	29
44	44	20
136	136	7
11	110	6
52	52	19
10	15	1
53	53	12
135	135	10
38	38	20
3	4	18
22	43	2
145	145	4
3	3	13
110	111	1
38	107	3
80	81	8
25	41	5
134	134	10
78	78	22
129	129	10
48	48	17
31	31	25
36	40	2
55	56	3
15	15	13
33	33	20
49	50	6
19	19	8
96	96	16
69	69	9
76	76	6
32	32	6
109	111	5
90	103	5
123	124	7
157	157	4
103	104	8
42	44	3
113	114	9
39	55	1
108	108	23
41	42	6
4	25	3
7	7	7
25	27	1
117	118	6
23	23	8
88	89	6
121	126	1
87	87	15
5	5	14
126	127	9
85	86	5
94	103	7
106	107	22
67	67	11
151	151	23
12	13	13
131	131	11
68	68	9
24	24	9
117	117	15
15	16	3
81	81	13
122	122	25
13	13	13
42	42	11
49	49	20
90	91	6
23	25	1
29	29	12
4	41	2
132	133	7
137	138	11
115	120	3
134	136	2
116	117	7
94	142	3
155	155	14
87	88	7
22	23	2
38	143	4
123	123	18
5	6	3
22	22	27
72	72	2
107	108	13
140	140	11
97	97	17
114	116	3
44	82	2
9	9	9
28	29	2
64	69	1
38	39	7
11	108	2
137	137	19
50	52	5
149	151	2
138	139	10
51	52	11
121	125	4
90	90	22
33	34	7
114	114	13
102	103	4
43	46	2
51	54	3
34	34	15
133	133	10
82	86	6
13	14	4
13	125	4
47	47	11
30	30	18
152	152	15
98	101	2
71	71	10
109	110	11
50	50	7
115	116	6
18	18	19
77	77	11
105	106	16
54	55	4
135	136	10
15	126	4
115	115	8
41	56	2
90	104	4
14	127	2
149	150	5
34	35	2
64	64	13
90	92	5
9	10	10
42	43	9
6	7	3
55	55	19
140	141	6
138	138	11
39	41	8
148	155	3
62	64	3
57	68	1
52	53	7
25	158	1
114	115	22
25	26	3
145	153	2
112	112	14
105	105	17
40	107	5
140	145	1
73	73	10
119	120	4
43	43	17
28	30	5
132	158	1
88	88	18
66	71	5
27	29	7
25	25	11
147	153	4
71	73	1
135	137	2
108	109	8
100	101	5
156	156	10
141	141	16
12	105	2
54	71	3
28	158	2
116	116	24
130	131	9
19	20	3
78	79	2
26	26	14
120	121	11
107	107	19
40	40	10
88	97	1
148	148	15
119	121	2
98	98	28
142	154	1
87	89	2
2	3	2
36	36	20
13	123	2
51	51	8
81	85	4
111	112	4
20	21	8
100	100	14
129	130	14
27	35	1
39	39	29
7	8	12
155	157	7
138	155	2
130	130	10
104	105	2
36	106	4
32	34	3
10	11	8
0	2	5
28	28	15
150	150	12
151	152	1
91	91	12
143	143	2
109	109	10
90	98	3
30	154	1
112	113	2
134	137	4
89	91	4
131	132	5
74	138	4
155	158	1
8	8	8
133	158	1
96	98	3
141	142	10
11	125	3
108	111	7
77	94	2
0	0	9
125	128	1
91	92	7
102	118	1
83	84	11
155	156	5
84	85	2
1	2	3
37	38	3
115	124	2
46	46	16
69	70	1
14	14	6
14	31	1
56	71	2
130	132	3
96	103	3
95	95	6
108	117	5
144	145	5
125	125	7
75	111	1
14	15	7
32	33	6
120	130	1
142	142	6
77	79	5
95	103	1
138	142	1
41	43	4
84	116	3
26	28	1
137	139	3
140	152	3
75	75	8
122	136	3
82	83	6
7	10	2
4	4	3
91	94	2
44	45	4
79	79	16
84	84	9
46	47	5
50	54	1
93	158	2
35	35	9
119	137	2
29	32	1
121	121	11
119	119	8
89	90	6
10	10	15
63	63	5
53	55	2
97	110	1
110	113	4
44	47	2
94	94	9
83	83	4
86	87	12
120	120	3
17	18	5
8	9	8
6	99	2
12	16	2
20	22	1
13	101	3
131	137	1
92	93	5
115	117	5
134	135	5
85	85	13
142	143	9
56	69	4
27	43	1
40	41	5
77	78	3
94	95	2
8	10	5
79	97	1
150	154	1
46	48	12
56	56	11
18	38	3
13	31	2
37	48	1
93	94	8
27	27	5
110	110	8
105	107	3
123	132	1
133	141	5
113	117	2
4	5	5
18	19	4
1	1	6
121	122	1
154	154	11
22	40	3
29	34	3
29	154	2
80	82	1
83	117	8
30	102	2
145	146	7
7	43	1
144	146	2
83	116	4
45	45	9
101	134	2
29	30	5
28	156	1
50	51	8
28	39	2
81	97	1
15	28	3
36	37	4
48	49	2
33	81	1
153	154	2
8	125	1
53	54	4
27	130	3
62	62	2
92	98	1
132	156	2
110	117	2
69	71	1
84	89	1
40	106	2
136	137	1
77	95	7
27	30	1
93	95	1
31	32	2
135	141	2
17	34	1
118	142	2
2	24	1
146	146	5
154	155	1
144	148	3
115	118	1
123	125	2
32	84	2
9	11	3
87	95	4
137	141	3
32	103	2
35	41	1
152	153	2
139	140	6
88	91	3
100	102	3
142	148	1
3	25	3
27	39	1
139	149	1
128	129	3
16	17	2
146	147	1
13	24	3
20	148	2
79	81	1
108	112	6
125	126	10
1	3	1
139	141	3
4	35	1
131	133	3
128	130	2
104	119	1
132	157	2
27	28	7
94	96	1
103	105	2
72	73	4
121	132	1
71	76	1
18	39	3
77	87	1
90	106	3
78	81	1
14	126	1
145	152	1
81	83	2
81	82	7
7	37	2
131	158	2
103	103	4
136	144	1
131	136	2
110	112	3
57	64	1
40	121	1
70	71	2
12	125	1
117	119	4
39	43	2
141	144	2
35	37	1
39	40	1
125	127	1
45	47	1
18	34	1
46	73	1
38	82	1
46	122	2
4	26	3
120	123	4
132	134	3
22	25	3
78	80	3
5	7	2
24	25	9
75	93	1
134	138	2
88	98	2
76	85	1
86	98	2
7	9	4
131	138	2
29	31	1
93	97	1
62	63	1
80	93	2
137	155	1
10	125	1
12	109	1
93	96	1
35	49	1
2	43	1
104	138	1
77	85	3
16	35	1
47	48	3
91	97	2
35	157	1
157	158	4
8	13	1
102	106	2
108	113	1
111	114	1
57	61	1
124	126	2
71	72	2
49	54	1
63	64	5
81	95	1
138	156	2
35	40	1
16	20	1
147	148	3
118	141	2
37	50	1
149	155	2
140	144	1
98	102	1
79	80	1
26	27	2
127	156	2
23	110	1
98	110	2
30	31	2
89	104	2
87	145	2
131	155	1
111	124	2
119	143	1
45	46	4
122	124	1
77	96	1
34	37	2
6	43	1
131	140	1
110	114	1
1	4	1
38	106	1
57	57	1
103	106	1
30	155	1
117	143	1
139	158	1
148	154	1
28	43	3
8	121	1
90	96	1
86	88	2
48	83	1
111	116	1
46	51	1
142	144	1
119	142	1
131	134	2
76	86	1
156	157	1
141	155	1
91	98	1
114	117	1
107	111	1
8	120	1
114	141	1
7	40	1
120	140	1
122	125	1
56	63	1
115	119	1
64	68	1
61	61	1
107	151	1
11	109	2
6	122	1
141	152	1
12	127	1
0	99	1
14	29	1
75	113	1
130	133	1
123	126	1
139	142	1
149	149	1
79	95	1
135	138	1
