79	80	1
117	117	9
87	87	4
21	87	5
132	132	27
31	31	2
3	3	6
93	108	3
91	92	5
31	32	6
102	103	5
122	122	21
35	36	3
5	5	4
72	72	8
130	130	6
116	116	13
35	35	12
127	129	1
108	110	3
103	103	6
104	104	11
3	4	12
7	8	4
135	137	2
27	27	11
24	24	1
21	21	12
129	129	9
96	99	3
102	102	15
15	16	3
77	77	6
131	131	18
126	127	7
11	11	6
76	76	4
34	34	7
74	74	12
80	81	4
131	132	3
95	95	9
86	88	4
36	96	5
21	22	4
96	96	5
36	94	4
107	113	1
123	123	12
137	137	3
73	76	1
107	138	1
133	133	4
24	26	1
138	138	17
71	71	13
134	135	13
76	93	4
126	126	10
34	36	2
94	95	7
119	120	6
134	134	19
34	35	4
124	128	1
134	136	2
98	99	5
93	93	6
101	101	9
22	24	3
4	4	7
73	73	2
138	139	8
0	5	2
13	13	8
17	21	5
73	74	9
115	124	1
23	24	4
125	125	14
22	23	1
32	32	5
71	72	2
118	118	2
2	73	6
20	20	15
79	83	1
94	94	11
110	125	1
113	118	1
83	83	4
128	128	11
127	127	8
28	28	2
137	138	6
139	140	3
108	124	2
122	123	7
85	85	5
110	112	2
90	91	4
5	6	4
26	27	2
104	105	4
17	17	9
97	97	15
12	13	1
118	119	3
130	131	1
103	105	10
113	113	9
16	19	2
117	123	1
34	90	1
77	79	4
124	125	6
88	88	3
95	108	3
19	19	9
92	106	1
90	90	5
136	136	6
15	15	6
100	100	11
19	31	1
110	110	3
33	33	3
129	132	2
7	10	2
104	106	4
79	81	1
75	75	10
94	96	6
139	139	4
91	91	9
18	18	6
80	80	3
4	85	5
124	124	15
33	34	6
106	107	1
2	2	5
112	112	7
0	74	2
16	16	4
81	81	4
75	119	2
110	111	8
115	116	1
108	108	3
77	91	1
28	87	1
36	36	8
107	107	2
117	118	3
26	26	5
105	105	14
135	136	4
114	118	2
114	114	4
12	12	9
111	111	6
133	135	2
4	86	2
6	13	1
135	135	9
20	21	4
120	120	3
86	90	1
88	89	3
89	89	8
140	140	5
116	117	3
98	98	6
117	119	2
3	26	1
123	124	3
1	9	5
85	86	1
101	102	5
30	30	3
14	16	1
74	90	1
120	123	3
22	22	2
18	21	1
76	77	2
13	14	4
133	134	1
17	19	3
84	84	7
100	126	2
75	76	4
86	86	8
107	108	4
76	117	1
72	79	2
116	123	2
37	37	5
111	112	3
7	9	1
14	15	2
119	119	1
26	113	2
121	123	3
113	121	4
74	100	1
37	38	3
18	19	3
120	121	1
113	117	2
129	131	1
130	134	2
17	18	3
14	14	3
74	103	1
85	88	2
93	117	1
6	9	1
113	114	5
108	109	1
89	90	3
93	105	2
81	82	1
96	97	2
28	31	1
38	38	4
89	116	2
92	92	1
80	122	2
93	102	2
25	26	2
77	78	3
112	123	1
103	106	2
0	0	2
100	101	2
36	37	3
128	129	2
87	88	2
121	122	1
92	93	3
99	99	4
121	121	1
33	35	1
109	109	4
3	21	1
114	115	2
7	7	3
17	22	2
93	94	1
97	99	1
118	120	1
108	122	1
75	117	2
74	75	1
112	113	2
103	104	1
9	9	2
82	82	1
79	119	1
132	133	1
115	115	1
8	8	1
79	79	1
120	122	1
8	9	1
29	29	1
18	123	1
111	126	1
82	83	1
111	117	1
106	106	1
75	106	1
23	83	1
112	120	1
