120	123	4
18	18	8
73	78	4
112	112	11
75	75	9
120	120	5
111	111	8
15	15	5
73	74	6
94	94	19
84	84	17
101	103	4
116	116	16
9	27	5
74	74	9
123	123	14
99	100	5
13	19	3
25	26	5
79	79	11
86	86	5
37	38	6
15	18	2
112	113	10
132	132	19
72	72	5
110	110	21
99	99	6
79	112	8
81	112	1
126	127	7
88	89	7
106	106	10
15	81	1
114	114	10
23	24	10
102	105	4
28	28	16
8	32	5
75	118	5
81	103	5
116	121	4
84	120	3
104	104	10
38	38	16
78	109	1
108	112	1
6	6	9
119	119	8
9	9	12
102	102	6
36	92	2
71	76	3
129	129	16
21	21	7
95	95	1
78	113	5
78	78	3
140	140	13
81	81	21
133	135	4
105	106	2
125	125	13
136	139	1
125	128	5
106	111	4
82	84	4
11	12	6
71	116	1
79	96	3
133	133	11
131	131	21
77	77	8
20	24	2
124	125	2
80	113	2
3	3	8
135	136	8
6	18	5
113	120	3
86	129	3
72	116	2
37	37	5
107	107	10
93	130	4
0	0	17
20	20	12
1	5	4
100	100	17
122	123	4
127	127	14
34	34	19
135	135	12
12	12	4
7	8	5
137	138	3
139	139	8
117	117	9
122	122	16
83	85	1
124	124	12
8	31	5
90	90	5
8	8	5
24	25	2
36	36	7
1	1	12
81	85	2
32	32	7
28	29	5
134	134	23
32	33	6
72	77	4
72	122	4
77	115	1
87	87	7
105	105	3
130	130	18
25	25	6
93	93	4
93	95	6
19	90	4
96	96	5
76	108	2
128	140	3
112	120	4
102	107	1
99	136	1
2	2	12
96	99	4
86	106	1
11	11	3
88	90	3
81	111	6
5	5	7
73	73	8
82	85	4
84	85	2
33	34	3
92	92	4
24	24	3
120	122	3
121	122	1
16	21	1
15	30	1
71	71	5
126	139	3
15	19	1
106	107	2
109	109	15
136	136	6
127	130	3
101	101	14
79	117	2
95	129	1
96	97	2
134	135	2
10	87	2
27	28	4
117	121	5
15	28	2
17	17	13
79	119	3
11	68	3
93	111	4
130	136	5
26	26	3
4	5	8
72	86	2
33	33	6
118	118	9
31	130	5
21	22	3
75	76	2
1	12	2
20	27	1
104	106	2
91	91	11
132	133	3
16	106	3
104	105	6
97	100	1
113	121	2
130	131	5
123	124	5
128	128	19
136	138	2
138	138	10
13	31	3
1	24	1
7	19	1
22	22	2
135	138	5
100	101	2
8	27	4
76	77	7
89	127	3
30	33	4
97	97	5
0	9	2
114	115	1
115	115	8
74	89	1
103	103	4
17	36	4
124	127	1
80	80	7
79	94	1
35	35	4
77	110	2
85	119	1
131	132	3
119	122	3
16	18	1
22	23	3
23	23	7
102	103	1
89	89	3
110	114	4
15	26	4
85	85	6
110	111	1
19	25	2
86	93	1
31	32	1
30	30	9
16	16	8
113	113	4
31	31	6
7	9	3
79	87	2
13	13	1
129	130	1
96	102	5
109	125	2
74	78	4
71	72	3
29	29	6
96	98	1
10	23	2
108	108	2
20	28	6
83	86	1
10	24	3
103	107	1
102	125	1
121	123	1
11	29	3
97	125	2
101	140	4
8	9	1
93	94	5
133	136	2
111	114	2
89	98	3
111	123	2
76	116	2
127	128	3
117	118	1
0	7	4
14	14	1
27	27	3
9	20	2
115	117	1
120	124	1
83	107	1
98	126	6
81	114	1
112	115	4
8	14	1
121	121	3
12	13	1
7	7	6
83	83	10
82	82	7
123	125	4
137	137	4
10	10	2
128	136	1
0	11	3
133	134	3
128	130	1
73	109	2
14	22	1
77	78	3
92	93	2
94	128	3
126	126	5
69	69	2
80	85	3
137	139	2
78	79	1
86	88	1
11	23	2
5	6	2
122	127	3
81	82	1
122	124	1
82	103	1
6	33	2
130	132	3
98	98	2
123	127	1
99	117	1
71	127	1
94	95	1
81	120	2
95	96	3
91	98	2
19	19	3
26	32	1
15	20	1
17	90	2
72	78	1
76	76	5
103	116	1
14	28	1
80	84	1
116	118	3
11	22	2
124	126	2
81	104	1
12	21	3
72	127	2
35	97	1
105	114	1
38	44	2
83	84	2
16	20	1
86	121	1
123	131	1
84	118	3
74	75	3
3	4	1
136	137	2
79	85	2
19	33	1
79	80	1
19	23	1
96	112	2
72	76	1
22	106	1
0	1	1
3	6	1
112	122	1
16	97	1
76	93	1
72	79	1
79	86	1
85	86	1
116	117	1
132	136	1
107	113	1
92	94	2
77	121	1
98	101	1
72	93	1
10	22	2
28	30	1
92	107	1
77	123	3
29	32	2
22	24	1
17	18	1
9	11	1
139	140	1
103	104	1
112	114	1
9	13	1
118	119	1
36	97	1
