72	72	19
37	37	7
59	59	20
70	71	2
17	17	12
62	62	3
29	30	6
57	57	17
6	6	9
21	25	4
60	61	6
2	6	1
40	42	4
58	59	7
30	37	1
69	69	9
53	54	4
50	50	9
4	4	7
76	76	8
57	58	12
36	36	10
28	28	10
62	64	1
51	51	6
45	56	3
68	69	3
40	40	13
78	78	14
64	64	21
7	9	4
34	35	7
6	7	4
36	37	5
45	48	2
0	0	5
29	29	10
1	1	7
32	33	5
66	66	6
56	57	4
13	13	4
38	40	4
1	4	3
74	74	12
49	50	15
49	53	6
16	17	6
41	42	7
27	27	7
30	30	3
56	56	3
64	66	3
33	33	10
41	41	14
51	52	2
63	63	7
42	48	2
72	79	2
45	46	4
34	34	20
35	36	7
35	35	14
75	75	4
66	67	3
16	18	2
73	73	10
42	47	2
33	34	7
3	6	6
10	20	1
74	76	4
37	39	2
7	7	10
54	54	13
47	48	3
2	16	3
19	21	1
14	14	9
6	8	1
5	5	14
52	53	1
3	4	6
38	38	3
71	71	8
49	52	4
55	55	12
11	12	5
66	73	1
16	26	1
18	18	2
4	10	3
9	9	11
11	21	5
58	58	6
42	42	11
26	29	3
63	65	4
8	8	9
71	72	4
68	68	7
55	56	4
5	18	1
47	47	10
26	26	4
19	19	4
48	55	1
10	10	5
30	66	1
6	17	3
54	55	3
48	48	16
0	16	1
8	10	1
37	38	5
39	39	5
60	60	8
3	5	2
49	49	11
9	10	4
51	53	2
25	26	5
15	25	2
29	73	1
77	77	6
2	9	3
42	43	3
63	66	2
79	79	5
6	9	1
78	81	1
67	67	1
20	21	3
30	67	3
16	16	2
21	21	8
64	65	3
28	29	6
34	48	2
48	49	5
1	14	4
2	2	10
33	35	2
63	75	4
74	75	3
46	46	5
38	39	3
76	77	16
71	73	1
39	40	1
8	9	4
29	45	2
2	8	1
25	25	5
13	15	1
1	2	9
5	11	2
14	15	1
16	19	1
26	47	3
62	75	3
70	70	10
47	79	1
55	57	1
26	59	2
27	28	3
26	27	2
59	60	3
61	61	5
49	55	2
45	58	1
70	72	4
5	8	5
52	54	1
5	6	5
79	80	1
63	74	1
15	15	7
12	13	3
80	80	5
3	3	2
65	67	2
45	45	1
32	32	3
20	46	1
10	11	2
19	20	1
15	29	3
58	60	3
50	70	3
28	45	4
63	64	2
61	62	2
67	68	2
62	73	2
7	8	1
12	12	4
2	4	2
69	71	1
70	73	3
53	53	1
53	72	1
15	20	1
43	63	1
64	76	1
1	7	1
72	73	1
19	64	2
69	70	1
28	59	1
2	15	1
25	29	1
73	74	1
32	65	1
31	32	1
9	14	1
14	70	2
20	20	1
28	72	1
