109	173	1
30	30	13
18	19	6
184	184	8
227	229	4
22	23	4
75	75	16
6	79	2
22	22	6
19	19	12
165	169	2
3	3	14
145	148	1
133	133	10
47	53	3
163	163	10
242	242	6
81	82	6
84	84	16
236	237	3
201	202	4
23	23	4
164	164	5
35	35	8
59	59	15
56	56	10
119	167	1
111	111	9
20	21	5
39	40	2
83	83	9
98	180	2
76	76	8
131	131	3
174	174	7
59	99	3
197	198	1
203	203	7
221	222	6
46	47	8
223	223	7
158	158	10
72	109	1
18	18	12
73	73	16
3	14	1
237	237	4
205	205	4
64	65	9
78	78	6
26	45	4
29	29	13
2	3	4
209	209	8
63	75	1
223	230	1
7	8	8
231	231	14
150	151	5
156	156	5
114	114	3
97	97	13
99	171	1
195	221	1
96	97	4
202	202	12
50	57	3
212	213	6
86	86	13
74	85	2
1	79	3
5	5	8
191	193	3
150	150	8
68	68	7
21	23	1
102	102	10
0	0	10
74	74	11
52	52	11
34	41	2
104	127	5
226	227	4
48	48	6
213	213	2
116	116	8
14	14	2
210	210	11
227	227	10
76	77	8
212	212	6
159	159	13
49	57	2
196	200	2
229	229	17
85	85	13
10	10	19
47	47	8
59	78	1
51	58	3
63	64	3
213	222	2
70	71	2
235	235	9
225	227	2
11	11	15
203	204	9
30	32	3
228	230	2
38	38	7
3	11	2
42	42	13
109	110	3
28	136	1
177	178	5
197	197	8
190	191	2
54	55	7
200	200	9
28	28	7
191	201	2
226	228	1
220	222	3
167	169	4
136	136	9
81	83	4
105	106	1
104	104	5
13	14	5
199	201	2
69	69	18
66	68	4
191	191	7
49	49	10
155	155	6
199	199	10
106	128	1
239	239	9
51	51	8
9	9	8
55	55	11
191	192	5
220	221	4
207	207	7
141	141	9
15	19	2
99	100	1
188	189	7
205	206	3
24	24	3
129	129	3
31	31	9
179	180	11
142	143	11
178	179	1
61	61	7
78	84	3
77	77	10
19	62	1
194	194	8
211	226	2
113	113	7
60	60	11
184	187	4
15	15	10
54	54	16
187	187	3
103	117	2
186	188	2
187	188	9
103	103	7
189	189	7
158	181	3
103	129	1
67	67	2
20	20	10
188	196	1
20	22	3
161	186	3
38	39	3
73	74	6
64	69	1
114	115	3
161	161	5
168	168	6
96	96	8
36	36	13
5	8	5
137	137	5
172	172	8
237	238	5
54	64	7
117	126	1
100	100	5
167	195	1
140	140	4
196	196	4
142	142	9
146	147	2
27	37	4
70	70	17
217	218	8
45	45	20
19	38	2
120	120	14
32	33	4
57	57	8
64	64	7
88	88	13
146	149	2
183	183	5
234	236	1
193	193	15
37	53	2
8	8	9
177	177	4
184	186	2
34	59	4
175	177	4
165	165	10
182	182	18
229	230	2
122	122	8
105	130	1
11	12	12
192	197	5
241	241	1
70	73	1
65	65	9
106	124	1
127	128	3
123	123	3
2	2	13
213	223	2
107	118	2
118	119	5
0	5	3
44	44	2
33	34	3
217	243	1
152	152	6
6	124	5
98	98	8
181	182	2
19	31	4
17	35	4
17	17	8
185	187	2
118	118	4
140	163	6
175	175	10
34	79	1
2	107	1
109	109	4
178	178	10
101	102	11
19	60	3
124	124	6
151	151	9
96	104	2
58	70	4
201	207	1
0	1	1
38	61	2
234	234	9
173	173	6
33	33	8
228	228	7
50	51	6
146	153	1
44	45	3
34	141	2
1	1	11
62	62	9
32	36	4
7	88	5
47	49	4
10	14	1
21	21	7
106	107	2
97	99	3
117	127	2
2	4	6
84	85	6
77	79	3
139	157	1
138	139	4
220	220	9
227	228	4
76	83	2
129	168	1
167	167	9
211	211	4
159	160	2
37	37	10
108	109	1
40	61	2
229	231	2
6	6	8
6	9	2
195	197	3
9	24	1
157	157	3
95	95	4
154	156	3
71	72	3
236	236	6
155	168	2
124	167	1
82	83	1
104	125	1
223	226	3
214	215	4
58	60	2
226	231	1
148	148	7
219	219	5
225	225	7
139	139	6
71	71	10
213	229	1
29	30	4
104	105	6
192	192	10
103	121	2
80	80	8
232	232	7
156	166	2
127	129	1
114	128	4
81	81	5
188	188	3
40	40	7
29	33	6
80	81	4
103	130	3
158	222	6
127	132	1
102	119	2
207	208	7
225	226	1
146	146	2
6	171	3
14	19	1
103	106	1
41	42	4
221	221	11
186	195	1
126	126	11
180	183	5
48	62	2
68	69	2
5	7	3
80	119	1
157	158	4
199	200	7
139	144	1
224	225	2
24	37	1
218	229	2
54	61	2
107	119	5
164	165	10
2	108	3
127	127	6
99	155	3
46	46	12
59	107	1
121	121	7
55	58	2
78	83	2
203	206	2
133	134	11
31	32	3
40	73	3
223	224	1
31	33	6
140	144	1
235	236	1
156	157	7
102	126	3
53	53	13
140	171	3
17	36	2
8	25	5
66	66	11
147	147	3
189	190	1
179	179	7
79	80	3
213	221	1
240	241	1
49	60	4
57	60	3
113	119	3
77	78	8
170	185	1
57	124	1
144	146	3
34	34	10
145	146	1
159	187	2
176	176	6
198	198	10
3	6	1
190	202	3
193	194	6
77	102	1
5	6	2
32	32	9
115	119	1
12	13	2
162	162	11
31	36	2
195	220	1
13	13	11
214	214	1
119	119	3
115	126	2
6	7	3
106	106	13
190	190	3
51	52	5
137	138	5
185	210	4
3	89	1
224	224	3
32	59	2
97	140	1
2	79	2
200	201	3
189	195	1
102	118	3
14	16	2
34	35	2
99	99	7
26	26	8
215	224	2
233	233	5
139	140	1
53	58	1
84	91	2
43	44	1
145	149	3
114	118	1
52	53	2
62	63	3
24	25	9
172	173	3
12	12	10
85	103	1
10	11	5
75	82	2
52	57	1
120	235	2
125	126	3
192	194	2
213	218	3
149	149	6
140	141	1
59	108	4
240	240	6
34	60	1
63	63	3
31	41	3
160	186	3
45	47	3
154	154	6
131	135	1
167	168	1
138	140	1
126	131	1
133	139	1
180	180	9
91	91	3
133	137	1
106	115	1
22	136	4
4	8	4
26	27	5
105	129	10
117	117	4
196	210	1
27	27	6
39	39	6
41	43	1
115	118	1
100	124	1
7	7	7
105	120	2
6	13	1
170	170	3
65	66	3
144	144	3
51	59	1
24	62	2
128	128	6
59	76	2
128	129	2
144	186	2
4	4	6
186	209	3
131	140	3
7	152	1
180	182	3
101	101	4
78	79	1
219	220	1
141	142	1
19	40	1
222	222	3
188	190	4
222	223	1
160	161	4
200	205	1
122	130	2
232	233	3
39	42	4
101	119	2
60	77	2
69	70	4
208	208	3
213	216	2
147	148	3
136	137	4
99	169	1
147	156	1
72	115	1
100	168	2
25	37	1
109	115	2
145	145	3
226	226	5
168	169	1
179	236	2
2	6	5
11	15	4
158	195	1
214	219	1
130	130	6
208	209	1
25	191	2
52	64	1
205	212	2
55	56	3
77	81	1
28	33	2
16	37	2
19	37	3
13	15	2
186	191	1
23	30	3
116	167	1
123	156	2
3	77	2
195	195	3
12	40	1
124	127	1
187	190	3
56	57	6
16	16	8
107	128	1
147	154	1
161	242	1
40	60	1
115	122	1
138	138	2
29	34	1
161	162	3
82	82	3
117	125	2
8	23	1
163	195	1
163	164	1
67	68	7
71	73	1
17	18	4
103	119	1
15	16	2
211	212	5
66	67	6
137	139	1
43	43	6
172	185	2
238	239	1
169	169	4
124	144	2
135	136	2
169	171	3
131	137	1
217	223	1
107	123	2
30	35	1
209	210	4
185	185	3
215	215	5
68	79	2
65	86	2
85	86	1
5	78	1
97	123	2
41	72	2
201	201	6
30	31	4
145	186	1
25	25	6
9	17	1
152	153	1
105	105	5
37	38	1
55	85	1
14	15	9
230	230	6
218	219	3
125	125	5
233	238	1
226	229	4
182	183	3
135	135	3
89	89	2
68	78	1
137	140	1
39	41	1
21	22	2
58	74	2
186	210	4
47	48	2
181	183	1
154	241	1
139	141	1
16	17	4
160	178	2
98	151	2
26	97	1
214	216	3
99	105	1
33	58	1
238	240	4
10	32	1
79	84	2
159	163	2
104	106	1
211	213	1
37	39	1
118	120	1
6	95	2
146	156	2
37	61	1
153	153	3
154	238	1
230	231	3
198	199	1
181	181	3
8	9	1
6	109	2
14	18	2
33	59	1
41	60	1
190	238	4
171	171	3
115	115	3
11	13	1
213	214	4
166	169	2
103	170	1
146	154	2
147	153	1
166	167	2
101	120	2
206	208	3
134	134	4
215	223	2
50	52	2
49	59	1
21	28	2
228	229	1
34	135	1
1	16	1
9	10	2
238	238	4
50	50	6
102	120	1
41	41	4
42	43	2
224	226	1
98	99	1
204	229	1
0	63	3
97	98	3
159	196	1
159	162	1
12	95	1
143	145	1
145	159	1
101	103	1
49	51	2
73	128	2
197	200	1
215	221	1
82	85	1
118	127	2
125	144	1
152	241	1
25	153	1
219	224	2
103	152	1
160	160	2
113	114	1
51	53	1
77	80	3
137	141	3
134	135	1
97	170	1
206	206	2
136	140	1
213	215	1
57	59	1
40	41	3
231	232	2
140	143	1
139	143	1
145	160	1
6	107	1
12	61	1
200	204	1
120	121	1
100	153	1
75	83	2
174	175	2
108	108	1
76	101	1
76	92	1
201	203	1
33	36	2
173	182	2
70	77	1
191	198	2
76	102	2
124	125	1
217	217	1
223	225	1
117	167	1
175	176	2
112	112	2
32	51	1
70	75	1
12	14	1
99	196	2
211	236	1
175	183	1
159	164	2
140	161	1
131	133	1
16	60	2
37	50	1
72	81	1
100	154	1
30	55	1
166	166	2
41	63	2
104	130	1
59	60	2
207	210	1
107	108	1
177	179	1
99	173	1
42	55	1
7	48	1
80	84	1
4	12	1
152	168	1
156	164	1
98	122	1
80	102	1
184	185	1
217	231	1
9	21	2
215	216	1
205	229	1
75	80	1
76	120	1
33	35	2
72	128	1
100	123	1
129	130	1
4	5	2
62	69	1
204	236	1
143	143	1
58	59	1
55	88	1
186	186	1
103	105	2
71	112	1
147	150	1
12	21	2
165	167	2
192	193	1
117	124	2
57	58	1
169	187	1
216	216	1
69	76	2
160	242	1
102	116	1
142	164	1
204	205	2
13	40	1
49	50	1
65	70	1
197	206	1
5	118	1
195	196	3
235	237	1
70	72	1
72	110	1
115	123	1
118	167	1
22	135	1
1	75	1
132	141	1
134	165	1
82	237	1
100	102	1
104	116	1
21	24	1
45	46	1
194	196	1
4	6	1
217	226	1
4	36	1
49	52	1
82	84	1
175	182	1
150	191	1
202	211	1
66	69	1
