95	95	7
145	145	9
36	37	4
79	122	2
121	121	9
20	20	12
52	99	2
62	104	2
90	95	5
13	13	3
39	39	9
28	28	4
36	36	9
17	17	14
69	69	9
94	102	2
24	24	11
118	119	9
93	93	6
67	87	1
64	65	1
116	116	8
43	43	4
104	105	6
58	108	3
122	122	7
25	25	11
114	116	4
77	77	7
83	85	4
51	51	10
49	50	6
117	117	5
18	26	1
109	123	6
22	60	2
1	1	3
23	23	7
106	106	8
107	107	6
89	89	4
0	0	11
136	136	6
97	98	5
35	39	3
130	130	9
34	34	2
5	5	10
105	105	9
26	26	11
65	65	11
62	116	2
58	96	3
14	15	3
3	3	8
2	2	11
100	110	3
134	134	16
92	111	2
83	96	3
78	78	4
53	58	2
53	118	2
110	120	6
3	6	1
54	54	17
40	40	14
66	94	2
134	135	4
128	128	8
62	62	5
4	4	6
120	135	1
24	25	1
0	35	5
82	82	13
21	21	5
64	86	2
103	104	4
64	64	8
63	63	9
143	144	3
99	100	2
62	63	6
21	127	2
60	60	14
41	82	2
55	55	15
31	32	1
137	137	8
68	98	2
67	67	14
109	109	1
112	118	3
71	72	9
9	9	22
97	97	4
124	124	3
56	56	11
32	32	8
8	8	11
92	93	8
73	97	1
103	128	1
134	138	1
93	107	4
5	10	2
29	101	2
29	29	9
71	71	11
75	134	6
58	58	4
102	146	3
125	125	6
133	133	11
35	41	1
80	80	10
129	130	5
117	141	1
118	134	1
90	90	4
18	42	2
140	141	4
107	127	4
96	96	11
50	57	2
108	108	6
90	93	1
58	88	3
78	89	2
99	99	6
28	29	4
115	116	2
27	27	15
119	133	4
92	92	18
119	119	12
68	70	4
141	141	7
59	88	1
118	118	16
54	138	9
8	40	3
126	126	8
10	35	1
111	111	4
33	33	7
32	51	3
42	42	5
101	101	12
121	123	2
100	108	1
3	4	3
3	36	2
49	49	3
78	96	1
6	38	2
131	131	14
112	113	3
69	71	9
123	123	3
30	30	9
19	22	2
5	39	3
42	43	4
53	55	1
77	78	1
55	110	3
79	79	21
81	144	2
16	16	10
23	61	2
50	51	4
39	40	2
8	9	9
75	109	2
142	143	4
94	94	1
143	143	6
59	76	4
114	114	3
51	54	2
122	129	4
83	104	5
85	85	11
71	117	4
38	38	11
83	83	8
15	15	5
30	32	3
104	104	6
6	6	5
11	11	11
103	134	4
73	73	2
79	98	2
102	120	2
75	97	2
64	66	8
60	62	1
107	126	5
35	36	8
131	133	4
60	61	5
68	68	12
53	54	9
133	134	1
138	139	3
136	137	3
140	140	7
37	37	8
19	20	4
142	142	8
127	127	10
70	70	10
122	132	6
67	72	3
22	23	4
49	134	2
88	94	2
96	140	5
139	139	8
61	61	9
30	31	6
93	129	2
52	52	4
88	88	3
132	132	9
17	61	1
110	110	1
72	108	4
12	12	3
0	1	4
93	94	2
18	18	11
113	117	5
87	97	2
9	10	3
25	31	4
13	25	4
139	140	6
115	115	5
109	110	1
57	81	1
108	127	4
78	139	1
91	91	6
120	141	1
10	10	6
135	135	8
117	120	1
41	41	4
23	49	2
73	126	3
16	41	2
85	86	3
59	122	2
53	53	14
15	16	1
111	112	4
76	137	5
94	95	1
123	129	1
75	75	11
102	103	2
125	135	1
100	100	3
64	75	1
135	136	2
19	19	3
62	105	2
113	114	4
51	52	2
121	131	2
50	52	1
37	113	1
35	35	3
76	77	1
19	42	1
120	120	9
138	138	11
103	103	1
117	139	1
92	138	6
118	143	2
10	18	2
40	94	1
34	35	2
4	5	4
84	85	4
10	20	2
125	134	2
72	72	8
131	132	3
118	140	1
81	81	5
88	89	6
69	70	2
40	42	2
5	26	3
41	96	3
2	21	1
104	140	2
34	36	2
73	135	4
34	126	2
68	72	2
23	117	1
6	32	2
38	41	2
129	144	2
124	142	3
106	127	1
96	97	2
89	96	3
71	106	5
97	139	1
25	47	1
15	25	2
127	128	1
3	19	2
65	66	1
121	122	1
91	98	3
110	130	2
0	58	2
102	102	8
128	129	2
102	134	6
72	109	3
88	110	2
13	15	3
120	121	8
10	11	3
24	117	1
98	99	1
26	34	2
91	95	2
58	98	5
82	83	1
121	124	1
139	143	4
83	126	2
3	34	2
137	139	3
57	57	7
56	96	3
120	128	1
84	110	2
115	137	2
83	84	7
57	58	1
24	26	1
98	98	3
42	55	1
0	41	1
58	106	2
87	87	4
57	96	4
21	48	4
19	49	2
66	66	1
47	47	5
130	143	1
68	96	1
26	32	2
138	144	1
23	24	2
87	89	1
74	75	1
25	27	1
106	125	2
70	72	1
18	39	2
76	85	2
123	127	3
119	134	2
13	14	2
62	64	1
41	123	2
49	118	1
17	24	1
24	88	1
117	134	2
78	104	1
22	22	3
50	50	1
125	141	1
67	71	1
33	38	1
59	61	1
59	59	2
74	74	4
90	97	2
144	144	2
84	84	6
57	82	1
48	48	2
5	32	2
17	60	1
2	3	4
119	120	2
104	106	1
70	71	1
52	53	1
99	118	2
60	77	2
128	142	1
133	136	2
104	127	2
41	42	1
98	110	2
10	16	2
60	98	2
50	56	2
114	115	1
107	122	2
112	112	2
141	142	2
3	5	1
80	99	1
17	18	1
137	138	2
76	76	2
91	96	2
13	36	1
110	140	1
50	98	1
93	138	1
113	116	1
37	106	1
98	101	1
50	97	1
31	31	5
56	58	3
80	81	1
68	95	1
66	138	1
33	39	1
76	139	2
91	92	2
113	113	2
10	17	1
136	144	2
73	89	1
102	145	1
14	33	1
105	134	1
61	115	2
110	144	1
0	55	1
74	100	1
56	57	2
146	146	2
132	133	1
70	83	1
116	129	2
51	53	2
62	66	1
26	30	1
69	98	1
25	117	1
120	132	1
105	106	1
66	67	1
64	96	1
98	137	1
66	92	1
79	132	1
61	126	1
81	129	1
97	137	1
28	30	1
91	137	1
59	126	1
