81	82	4
132	132	15
115	115	5
139	139	17
17	17	6
114	114	13
118	119	3
3	3	11
89	91	3
125	125	20
130	130	17
101	101	3
129	129	14
9	85	1
116	116	17
25	25	3
32	32	7
20	22	2
90	91	12
82	82	14
120	120	2
15	19	11
99	99	12
77	77	9
77	93	4
28	28	17
84	85	9
138	139	7
121	121	18
92	93	6
23	23	14
117	119	1
94	94	7
1	3	1
8	9	11
105	108	5
120	123	4
123	123	27
12	22	5
33	33	13
90	90	6
35	35	5
19	21	6
72	82	2
112	112	8
21	21	5
122	122	28
92	92	7
5	5	8
104	108	5
21	22	4
136	137	7
102	102	11
31	68	4
75	76	6
134	135	4
1	1	29
80	105	2
19	19	8
37	37	20
96	96	4
34	34	10
108	108	3
131	131	21
136	136	8
95	95	4
12	12	10
15	15	6
35	36	2
87	89	2
27	31	4
73	82	1
2	2	4
101	123	2
71	114	4
137	137	4
109	109	8
72	73	3
135	135	3
11	11	2
76	77	4
113	121	4
31	31	12
98	98	4
23	24	7
119	119	14
94	95	13
132	133	5
79	121	2
134	134	12
26	27	5
11	15	2
13	13	3
87	92	2
9	10	8
20	21	8
139	140	2
84	93	1
85	85	6
128	129	6
18	21	1
124	124	22
127	127	10
73	73	5
120	121	13
124	125	2
18	18	21
83	84	9
140	140	21
105	112	1
116	117	1
12	99	2
31	107	2
22	23	7
97	97	10
79	120	2
27	28	9
16	16	8
5	125	2
133	133	6
112	122	1
108	109	4
103	103	6
8	8	8
75	75	5
71	73	1
104	104	3
128	128	2
34	35	4
84	86	3
4	4	6
119	123	1
11	21	1
95	97	1
30	30	12
91	91	6
84	84	6
93	93	8
93	94	4
89	89	11
76	76	6
38	38	13
6	7	6
105	113	3
81	81	6
83	83	5
20	20	9
101	102	1
88	89	7
29	30	2
105	107	6
24	26	1
75	77	3
110	110	9
25	27	2
1	2	2
87	88	4
82	83	7
138	138	16
74	74	2
12	14	2
24	27	3
85	86	5
113	119	3
66	68	3
121	122	2
105	105	3
99	100	3
19	20	1
113	117	3
126	126	10
109	114	1
80	80	15
108	123	7
74	97	2
72	72	12
13	14	2
73	75	8
3	4	4
95	130	5
118	118	4
117	117	10
83	93	1
0	0	3
91	92	2
86	86	8
29	29	8
25	26	4
126	127	1
72	114	3
86	88	3
111	111	2
135	136	2
26	26	3
111	112	2
17	18	10
14	15	1
100	100	4
36	36	4
15	28	1
79	79	4
10	14	2
2	3	2
28	31	5
129	130	4
109	115	2
4	5	6
120	122	3
116	124	1
111	124	1
8	12	2
82	104	4
81	104	1
132	134	1
125	127	2
7	8	2
107	107	5
6	6	5
74	76	2
18	19	2
95	96	3
76	90	1
37	38	7
8	10	1
127	128	3
7	119	1
109	110	1
137	138	5
22	22	1
125	126	1
79	102	4
78	78	3
73	74	2
104	105	3
114	118	2
9	12	3
7	14	1
115	119	2
131	132	4
113	114	2
71	80	1
5	126	1
71	113	4
118	122	1
100	121	3
7	26	1
106	106	3
133	134	1
123	124	5
78	93	1
12	13	1
92	94	1
8	11	1
102	103	4
130	131	2
103	104	1
81	102	1
94	96	1
106	107	3
79	103	1
92	98	1
121	123	1
110	111	6
28	32	1
115	116	1
97	99	1
86	87	2
112	114	2
79	80	4
112	113	3
126	128	1
7	7	2
74	75	1
24	24	3
87	87	8
88	88	5
132	139	2
116	118	1
109	111	1
71	72	3
15	17	1
24	25	3
105	106	3
26	28	1
72	103	2
14	78	1
32	128	2
102	112	1
28	29	2
27	27	3
89	92	1
27	30	2
0	22	1
7	9	1
110	114	1
22	126	1
107	114	1
10	21	2
34	36	1
100	102	1
118	121	1
115	118	2
36	38	2
5	10	1
117	118	1
113	113	2
96	98	1
79	108	1
109	120	2
37	126	1
71	71	1
31	32	1
88	92	1
38	122	1
