50	50	9
34	84	2
91	91	8
83	84	2
98	99	3
107	108	2
66	68	3
110	110	4
93	95	1
34	35	2
25	41	5
105	109	2
79	95	5
94	99	1
92	92	6
43	43	4
89	89	3
40	40	4
114	114	1
87	87	4
42	42	5
25	60	4
104	104	3
79	79	4
56	56	6
89	91	6
49	49	10
54	54	2
48	48	4
96	99	2
103	104	3
111	112	2
73	73	5
38	38	1
28	28	1
110	111	9
29	29	8
111	111	9
53	53	3
21	21	6
80	80	3
74	74	1
100	100	3
82	83	8
45	45	8
74	75	1
43	45	2
53	55	2
68	68	1
52	63	2
101	101	2
101	102	3
71	71	3
103	103	1
76	76	2
37	37	4
49	50	4
61	62	4
42	44	6
77	77	3
108	108	5
29	50	1
51	51	7
96	96	8
35	59	1
35	69	1
30	30	5
101	103	3
42	73	1
92	94	2
78	79	1
27	27	4
31	31	10
25	25	3
113	114	1
64	65	1
32	32	6
72	73	2
97	97	2
110	114	2
42	43	3
95	95	5
97	107	4
65	65	2
24	27	3
113	115	2
82	82	1
31	87	1
39	95	2
27	44	3
61	67	2
43	44	1
112	112	11
44	45	3
69	69	2
102	102	1
99	99	3
30	31	3
38	39	2
23	25	1
38	40	4
109	109	3
58	61	2
43	95	2
48	49	1
81	81	2
31	33	2
51	53	3
70	70	2
96	98	2
98	98	1
104	107	2
62	66	1
103	105	1
23	36	1
41	41	2
44	44	2
59	59	3
27	28	1
85	85	6
93	93	2
35	35	2
23	23	4
59	62	1
36	36	4
79	94	1
37	38	1
66	67	1
24	24	1
63	64	2
39	40	3
97	98	1
64	64	2
67	67	2
46	52	1
111	114	3
62	62	5
40	41	2
74	98	3
60	63	2
72	77	1
105	105	1
62	63	1
112	113	1
113	113	6
73	77	1
74	110	1
55	84	1
106	106	3
26	26	2
74	97	1
33	34	1
81	83	1
55	56	2
108	109	1
104	105	3
63	63	3
76	79	1
110	113	1
46	46	2
57	57	4
72	72	2
23	40	2
92	93	1
105	107	1
88	88	1
79	80	1
107	107	2
109	110	1
41	43	1
45	46	1
39	39	2
86	87	1
20	61	1
75	78	1
87	88	1
42	95	1
59	81	1
26	28	1
94	94	1
88	89	1
60	60	1
41	64	1
84	114	1
