73	75	2
180	182	2
127	128	5
179	179	1
131	132	1
186	187	6
56	100	2
120	142	3
92	96	2
147	147	4
182	182	3
173	184	1
137	138	2
57	57	3
30	37	3
119	145	1
7	8	2
10	16	5
65	65	3
89	90	1
76	76	5
90	104	1
95	95	4
117	119	2
89	89	4
171	171	2
141	141	5
85	86	3
40	40	3
15	15	6
124	124	2
123	141	1
107	109	1
108	108	1
190	190	2
93	127	1
88	88	6
172	172	9
100	106	4
70	71	1
155	155	5
186	186	8
134	177	2
17	115	5
126	168	2
91	95	3
98	98	5
129	132	1
86	87	5
53	53	4
149	149	3
159	159	9
89	96	2
145	145	8
86	130	2
35	35	2
170	172	2
92	94	9
81	82	3
142	142	3
160	160	3
23	24	3
181	182	6
106	110	2
187	187	2
140	140	1
164	164	3
111	111	5
130	130	1
42	48	3
75	75	3
101	101	3
9	20	4
94	94	7
96	96	12
107	107	1
80	80	2
105	112	2
79	80	1
116	116	4
6	7	2
67	68	1
62	182	5
177	178	4
115	115	12
8	20	2
176	181	4
72	83	3
2	2	5
92	99	4
97	99	5
103	103	3
55	55	1
96	124	2
152	152	11
162	162	3
172	173	2
158	158	5
175	175	3
176	177	3
1	1	4
168	177	1
106	106	4
71	79	3
166	167	4
151	151	2
123	123	5
44	188	1
112	112	2
54	54	2
4	4	1
75	90	2
30	31	5
178	178	1
5	8	3
126	126	3
146	146	8
3	3	3
114	115	8
148	149	3
102	103	1
173	173	1
13	53	3
27	27	3
47	47	4
61	61	3
148	148	5
21	22	1
129	129	9
42	46	1
68	68	3
45	45	1
180	181	1
147	148	2
17	18	8
24	24	2
155	156	2
149	150	4
13	114	1
119	119	2
90	98	1
82	82	9
163	164	2
134	135	2
100	100	1
109	109	1
116	144	1
101	102	2
188	188	2
167	167	2
56	102	1
41	42	2
10	17	2
189	190	2
96	98	1
177	181	1
160	182	2
121	121	2
174	174	4
102	102	5
164	166	4
136	137	2
157	158	2
104	104	3
8	14	1
57	61	4
85	85	3
136	136	3
168	169	1
10	10	1
176	187	2
122	123	3
125	128	1
119	129	1
13	13	3
90	91	3
13	15	3
93	126	3
70	70	1
43	46	2
170	170	3
11	20	1
183	183	3
160	176	1
125	125	2
11	11	2
118	118	2
150	150	1
136	181	2
108	110	1
97	97	5
164	179	1
46	46	1
101	103	2
19	19	1
74	79	2
36	38	2
107	139	2
26	32	1
19	20	1
89	125	1
90	90	2
84	87	1
157	178	4
76	77	1
26	26	5
31	40	3
176	176	2
119	128	1
90	92	1
73	83	2
75	76	3
91	112	1
105	105	2
185	187	1
144	144	3
74	74	1
35	45	1
171	172	2
166	166	1
81	81	3
89	126	1
138	138	4
99	100	1
139	139	1
113	116	1
143	143	2
135	190	1
0	0	2
126	138	1
20	23	2
55	100	1
21	21	2
163	163	5
14	14	1
78	79	1
156	165	1
44	44	2
72	72	5
132	133	4
113	113	2
33	33	1
21	24	3
30	30	2
183	184	1
43	44	1
181	183	1
90	93	1
167	168	1
134	134	2
4	33	2
38	41	1
189	189	1
74	77	1
137	137	4
48	48	1
32	33	1
95	113	3
28	169	1
5	5	2
107	110	1
85	107	1
23	25	2
104	106	1
91	91	1
25	32	1
141	155	1
110	110	2
184	184	4
20	20	1
66	66	1
4	26	1
92	93	1
136	177	1
156	156	1
31	31	3
157	157	1
187	188	1
140	142	1
23	27	1
67	67	1
128	128	1
131	133	1
125	138	1
127	127	1
165	168	1
108	111	1
111	112	1
169	169	2
80	87	1
142	149	1
106	118	1
106	108	1
55	56	1
77	77	1
6	8	1
87	87	1
74	75	1
187	190	1
71	84	1
56	56	1
92	95	1
125	126	1
159	163	1
126	127	1
