18	19	18
42	42	56
18	18	51
119	120	12
131	131	69
71	73	4
37	37	41
33	39	10
100	102	5
128	128	54
96	96	34
105	107	4
68	70	11
113	115	3
35	36	18
142	143	13
114	115	4
91	91	29
76	76	17
51	52	4
53	94	6
17	17	54
99	99	19
15	15	17
66	66	22
115	115	17
72	72	26
110	110	16
145	146	13
122	122	39
129	130	16
87	87	23
89	90	16
50	50	43
103	105	3
113	116	9
124	142	2
144	144	50
36	37	6
43	86	3
114	114	16
80	80	37
103	128	3
109	141	3
130	131	22
80	95	5
93	93	17
43	43	12
126	134	2
54	55	7
110	111	6
126	126	65
111	112	17
141	141	75
30	31	25
31	31	21
40	40	25
66	74	2
20	20	20
33	34	6
140	141	10
70	70	34
89	89	21
33	33	22
123	123	69
94	94	26
77	77	9
117	128	2
6	6	45
108	108	23
101	101	65
70	73	3
27	66	2
67	67	30
62	63	13
129	129	31
122	123	18
60	60	21
130	135	7
5	5	24
104	104	19
68	68	16
4	4	20
95	95	21
136	137	9
130	130	46
143	143	40
145	145	30
135	136	6
23	23	42
21	95	6
62	62	29
103	114	1
69	69	29
117	126	2
41	46	2
132	132	34
139	139	21
64	106	6
129	136	2
69	70	17
22	37	5
19	20	4
32	32	38
100	100	40
55	55	27
103	104	15
113	120	2
127	127	35
81	82	9
92	92	27
8	8	31
58	59	7
65	80	3
109	109	27
105	105	20
13	15	1
138	138	31
121	123	12
124	124	64
38	38	40
8	9	16
103	103	40
29	30	8
23	70	5
27	27	43
9	10	4
116	118	1
5	42	1
118	118	34
56	56	15
73	73	21
32	41	4
16	16	31
113	113	20
42	47	1
0	0	6
19	19	42
28	28	42
32	39	2
66	68	5
77	81	4
133	133	17
60	61	11
49	49	23
99	100	13
16	17	5
137	143	8
30	42	4
66	77	2
61	61	11
9	9	32
83	85	15
111	111	10
67	121	4
127	128	8
75	77	4
119	119	56
53	53	16
116	117	1
10	10	19
83	83	13
71	71	14
128	129	26
54	54	34
13	14	9
47	81	4
88	90	5
22	69	3
75	76	5
26	26	30
55	66	2
108	109	13
58	58	21
136	138	11
141	143	4
132	133	11
22	22	63
64	64	28
21	21	24
61	115	4
120	124	7
88	98	6
55	56	10
59	59	16
35	35	18
111	114	8
13	13	18
20	102	2
125	128	1
1	1	26
76	81	3
90	90	30
125	125	31
5	6	4
29	29	41
78	79	16
140	140	29
91	92	5
22	70	4
66	70	3
120	120	38
41	41	26
107	107	21
60	74	3
50	53	6
131	133	3
12	12	5
139	141	3
17	80	2
74	74	43
101	102	20
61	109	2
135	135	33
51	51	11
0	1	3
98	98	23
68	69	10
102	103	4
134	141	1
133	134	5
19	23	1
64	77	2
14	14	26
135	140	1
87	88	6
58	70	7
101	124	1
23	24	25
81	81	33
99	101	11
19	101	4
21	24	1
126	127	20
57	58	7
64	65	23
136	136	15
11	42	1
37	41	1
134	139	1
4	5	24
95	124	1
47	47	10
20	21	10
17	29	3
52	59	2
65	65	13
65	73	3
90	120	4
106	106	24
81	105	4
38	39	10
50	51	9
24	27	1
85	85	12
97	98	18
137	139	6
146	146	6
106	113	1
49	71	3
71	92	9
24	25	5
63	63	28
54	105	3
71	72	5
48	48	41
43	47	2
139	142	8
55	93	2
47	82	1
102	117	1
112	118	3
83	86	3
62	99	3
18	59	4
114	116	7
49	51	1
82	83	3
24	24	16
60	77	3
43	83	2
127	129	8
34	34	12
72	73	2
13	16	1
102	104	8
117	120	1
104	107	6
62	68	5
102	125	2
76	79	2
82	85	7
97	97	5
16	54	1
104	105	4
95	96	5
17	24	1
104	106	9
0	8	5
31	32	12
14	17	6
120	121	3
22	25	4
134	134	25
65	66	6
32	33	10
126	139	3
0	2	4
121	121	37
67	75	2
123	124	16
15	87	6
3	3	22
36	36	26
52	53	4
56	57	7
30	32	2
72	75	3
82	84	1
3	6	6
112	116	4
95	98	1
112	112	15
8	12	2
66	79	1
66	73	1
40	74	3
61	62	10
131	134	6
74	75	5
16	48	8
135	139	3
80	81	15
73	74	12
102	102	23
18	54	1
75	75	16
50	70	3
59	60	15
21	90	3
56	81	1
2	3	4
79	80	6
39	39	33
138	139	10
27	29	1
88	88	15
70	71	4
114	117	1
90	124	5
64	71	3
53	54	11
88	89	12
143	144	5
133	137	3
72	93	3
11	11	7
5	39	3
107	109	1
30	30	20
114	123	6
75	82	2
31	34	3
59	64	4
105	106	16
84	84	17
82	82	21
9	13	3
18	32	1
53	55	5
14	18	3
142	142	32
2	4	6
47	85	6
16	24	3
31	57	1
41	67	2
112	113	11
57	57	10
37	38	10
79	79	20
26	27	5
21	22	12
60	80	7
52	124	2
93	94	15
12	27	3
52	52	14
18	22	4
50	52	10
125	126	10
99	144	2
135	142	1
96	110	4
61	78	4
121	122	8
15	16	12
91	98	2
42	80	2
78	82	1
117	144	4
110	119	1
84	96	1
120	137	1
92	94	8
127	140	4
47	53	2
95	118	1
77	78	15
84	85	12
87	90	4
27	28	10
29	128	1
42	49	2
63	64	10
1	10	1
90	111	3
92	93	8
116	116	23
11	14	3
14	87	1
5	13	2
141	142	13
95	97	10
75	133	5
66	75	4
117	117	23
129	131	3
115	128	3
17	53	4
59	117	3
104	110	4
2	2	8
104	109	2
57	80	4
25	25	17
64	90	4
110	113	2
89	91	1
76	77	10
60	114	4
86	88	2
41	42	6
48	79	2
56	80	3
21	71	1
137	138	4
28	29	9
17	90	2
39	40	6
42	82	1
14	85	2
41	79	3
112	114	4
16	38	3
19	24	1
126	143	1
20	69	1
125	142	2
88	110	2
114	118	2
28	42	6
91	94	3
127	144	2
67	68	9
78	84	1
76	78	5
119	137	3
77	82	6
90	95	2
59	133	2
70	76	3
22	23	14
58	80	4
48	56	3
52	62	5
6	30	1
131	143	5
134	135	8
86	86	10
32	35	4
130	145	2
22	67	1
21	38	2
5	9	1
33	35	1
115	116	8
22	91	4
103	119	1
120	123	2
55	59	2
53	58	5
98	111	1
119	122	2
72	94	2
27	30	1
131	132	6
136	139	5
82	143	2
30	38	2
74	100	3
12	13	9
25	126	3
55	114	2
48	53	1
39	48	3
123	141	3
47	48	5
83	84	14
105	124	2
94	98	8
68	75	7
118	119	15
13	35	3
142	144	8
108	110	1
42	57	1
30	121	1
129	138	1
8	121	3
88	111	1
81	84	1
100	124	1
21	69	1
32	56	2
34	52	3
88	91	1
62	64	2
47	83	2
101	119	2
16	53	5
15	136	2
36	38	2
25	26	5
92	97	2
143	145	2
29	48	5
8	15	1
18	58	2
80	125	1
17	18	7
111	116	1
7	12	1
63	80	2
57	59	3
38	41	1
130	141	2
70	75	2
110	124	2
90	100	1
43	59	3
136	140	1
104	141	1
111	113	5
104	117	3
48	49	5
144	145	3
58	62	5
124	125	15
2	94	4
76	82	4
3	4	8
125	133	5
109	110	8
66	92	1
40	41	1
75	125	3
117	118	11
59	80	2
126	128	7
73	75	3
50	91	1
91	95	3
119	136	7
61	79	1
11	36	2
82	86	3
32	37	1
116	122	1
17	25	2
82	104	2
109	123	3
100	107	1
17	19	1
57	93	2
17	54	1
90	91	4
131	142	3
34	40	3
113	114	6
61	66	2
107	111	5
59	73	2
131	137	1
48	125	1
32	55	1
87	96	1
95	119	3
105	118	2
119	121	1
1	6	1
110	112	1
74	93	1
10	11	2
12	15	3
65	75	2
137	137	5
39	68	1
112	115	2
110	123	1
74	86	2
90	131	1
26	33	1
90	98	1
49	50	3
31	55	2
14	16	7
6	86	1
33	49	1
57	71	2
133	135	3
84	87	2
14	15	8
100	122	2
94	95	2
17	102	2
34	36	3
107	130	1
34	35	6
43	85	1
55	100	1
96	97	5
53	93	3
119	140	1
56	61	1
88	92	2
8	10	3
3	5	6
64	80	3
66	67	4
78	78	6
11	40	1
102	110	2
50	94	2
117	136	3
38	120	1
39	115	2
49	80	2
110	115	2
42	43	1
95	117	1
33	36	1
8	101	2
100	101	3
9	35	1
89	113	3
115	130	3
53	56	5
122	140	2
14	48	2
48	81	2
88	112	1
91	96	1
19	32	5
21	94	3
28	37	1
27	77	1
85	86	2
31	33	1
12	14	2
39	41	1
64	75	5
96	108	2
132	134	3
51	53	1
124	140	1
14	88	2
4	6	1
54	67	2
26	78	1
23	26	2
2	5	5
120	144	1
112	117	3
135	137	2
49	52	1
128	130	2
100	103	1
58	77	1
130	137	2
118	137	2
11	33	1
108	112	3
30	81	1
94	97	1
53	144	2
131	139	1
133	139	5
105	130	3
101	141	1
62	65	3
9	15	3
104	130	1
3	11	2
1	2	3
94	117	2
26	30	2
0	9	1
123	125	2
2	14	1
107	112	3
33	38	1
27	71	2
23	71	1
57	68	1
63	95	1
104	122	1
38	40	3
106	117	1
119	144	2
42	48	1
39	93	2
28	128	1
120	130	2
97	99	1
6	11	1
107	108	1
135	141	1
118	123	2
90	115	1
57	81	1
47	69	1
22	90	1
105	108	3
3	36	3
16	18	3
97	122	2
126	136	1
40	54	1
130	140	1
63	73	1
40	85	2
141	144	2
60	63	1
24	119	3
89	92	3
33	37	2
62	117	1
105	139	1
1	3	1
99	108	1
59	61	1
118	120	1
85	96	3
100	121	2
41	69	1
67	73	1
3	33	1
71	93	1
20	59	1
56	60	1
133	140	5
34	55	1
52	58	2
29	42	2
51	62	1
107	117	2
100	138	3
18	20	1
107	122	2
51	76	1
41	49	2
89	110	1
74	82	1
92	96	2
87	89	2
26	38	1
139	140	4
40	51	2
66	108	1
57	69	1
54	143	1
108	140	1
21	59	1
58	60	2
10	37	1
59	115	1
3	34	1
27	38	2
89	103	1
40	114	1
15	17	1
127	134	1
39	95	1
95	103	2
59	65	1
104	114	1
14	37	1
112	119	1
66	94	1
3	13	1
109	130	2
41	75	2
62	73	2
124	126	1
144	146	2
117	122	2
90	107	1
4	13	1
60	95	1
125	129	1
16	39	1
56	126	2
112	130	1
48	62	1
137	140	1
54	56	1
30	87	1
118	121	1
90	96	1
130	132	1
29	57	1
52	54	2
63	96	1
28	127	2
69	119	1
20	60	1
20	96	1
77	80	1
23	25	1
111	115	1
113	133	1
68	72	1
119	126	1
120	136	1
78	83	1
115	117	1
41	146	1
125	127	1
86	96	1
130	134	1
96	98	1
56	73	1
88	102	1
124	127	1
113	128	1
17	81	1
49	57	1
120	140	1
