36	37	2
26	26	15
72	72	21
71	71	8
74	76	4
28	28	10
96	96	20
107	107	11
113	113	22
66	67	8
91	91	16
54	54	13
83	84	11
55	55	9
49	70	4
31	32	5
108	108	27
47	47	15
79	80	13
21	21	20
100	102	1
107	108	10
60	60	24
51	51	28
84	85	8
104	104	17
27	27	9
99	99	25
32	74	3
41	41	8
98	98	22
64	67	8
112	113	12
68	68	8
77	95	4
42	42	15
76	77	5
105	105	21
84	89	3
35	36	7
100	101	22
111	111	12
22	22	5
89	89	19
45	45	21
70	70	19
93	94	7
63	64	10
36	36	7
84	84	31
48	49	2
28	38	4
29	29	15
69	69	20
82	93	3
70	76	4
59	60	20
78	103	1
34	35	9
58	59	9
49	50	6
43	44	3
23	24	4
90	98	2
88	90	9
87	87	11
56	57	3
46	46	11
56	68	1
44	46	10
52	52	15
44	44	15
73	76	1
92	93	4
87	89	9
37	38	5
43	43	19
88	88	20
108	111	3
97	98	10
96	97	15
110	110	26
74	74	16
93	93	10
86	87	11
64	64	12
78	78	8
58	58	19
34	34	19
113	114	5
61	61	10
105	106	7
82	82	19
24	25	10
92	92	13
62	62	9
46	50	4
72	73	10
98	99	4
32	32	5
73	75	3
35	35	14
24	40	1
87	91	7
73	73	17
85	87	2
57	67	2
57	57	14
30	30	14
20	20	6
60	61	3
40	41	10
23	53	4
95	95	4
49	49	8
104	105	7
103	103	12
68	74	1
45	46	10
74	75	4
85	85	15
48	48	10
112	112	18
25	53	3
67	67	16
33	33	16
95	96	10
56	78	2
31	35	1
33	34	8
77	77	13
29	30	5
106	106	10
91	93	3
80	80	19
68	70	1
110	111	11
108	110	3
62	79	1
31	31	15
107	109	3
79	79	13
21	22	6
80	81	8
63	63	12
55	56	6
65	65	9
73	74	7
54	104	4
19	19	5
40	40	11
30	31	7
54	55	8
38	39	3
42	44	6
62	67	2
59	59	7
93	95	6
60	81	1
96	98	4
34	36	4
114	114	13
24	24	9
91	108	4
73	77	2
109	110	10
94	97	3
75	78	5
61	62	4
85	89	4
38	38	8
34	40	2
46	47	6
67	71	2
44	45	8
39	39	15
53	101	5
97	97	20
89	93	2
30	52	3
77	78	10
55	102	2
60	63	1
59	66	4
54	58	1
50	51	12
94	95	10
72	74	10
47	48	9
83	88	2
33	40	3
83	85	5
88	89	1
108	109	6
50	50	8
34	39	2
111	113	4
23	23	7
52	103	2
109	109	2
90	91	10
20	22	1
41	77	3
102	102	14
75	75	12
100	100	9
22	23	1
78	79	3
92	94	9
61	78	3
52	64	1
101	101	15
99	100	2
25	25	17
79	81	4
77	86	1
64	66	7
36	42	3
54	101	1
70	80	2
82	92	2
56	56	10
68	69	9
65	68	7
66	68	6
53	53	9
97	104	3
47	113	1
84	90	3
65	69	2
22	98	3
19	22	1
39	40	5
61	79	1
90	90	9
76	76	5
82	83	5
91	94	2
36	39	7
81	81	4
103	104	5
89	91	3
45	80	3
99	103	1
66	78	1
66	97	1
102	103	5
23	25	3
83	83	10
87	93	1
97	102	5
26	29	4
81	87	3
71	75	5
69	70	8
56	59	1
73	96	1
52	53	2
69	71	3
103	106	2
20	24	4
79	95	2
52	63	3
25	41	1
49	63	2
67	99	2
42	45	4
42	47	2
81	95	3
20	21	3
86	86	5
37	37	6
36	41	1
77	110	1
62	63	8
111	112	2
21	24	5
48	50	2
41	42	2
87	90	2
67	97	1
66	100	3
32	35	3
75	76	3
115	115	3
78	86	3
32	77	1
103	105	2
69	91	1
87	88	3
59	61	4
37	45	2
81	82	2
33	41	3
31	39	2
28	83	2
62	64	3
39	47	2
78	94	1
73	93	2
76	79	2
87	94	2
22	53	2
53	102	1
58	67	2
89	94	1
36	38	2
80	87	2
34	45	2
57	58	5
62	89	1
76	90	1
97	99	1
106	107	2
54	57	2
65	67	3
91	106	1
43	50	1
76	78	1
22	40	3
66	66	4
19	40	3
60	88	3
63	83	2
69	75	1
41	87	3
31	34	1
32	34	1
94	94	6
27	28	2
38	44	2
29	37	2
96	110	1
58	62	2
22	24	3
60	62	2
77	94	2
83	89	2
100	103	1
28	30	4
80	96	1
29	36	2
54	56	1
69	96	3
85	86	4
25	28	1
68	73	1
53	54	3
78	81	3
71	72	2
32	36	1
63	65	1
65	66	3
39	41	1
63	86	5
60	80	1
42	43	1
23	35	1
75	77	1
62	83	2
103	109	2
62	68	2
59	71	2
89	90	1
19	61	1
25	26	1
58	61	3
105	107	2
100	109	1
91	92	1
84	92	1
24	42	1
53	99	1
69	76	2
31	53	1
29	43	1
80	93	1
43	46	1
67	69	1
49	109	1
99	101	1
92	98	1
83	90	1
80	86	1
62	80	1
70	71	2
81	89	1
34	37	2
66	70	1
24	53	1
50	52	1
30	32	1
47	49	1
64	65	1
42	46	1
