104	104	9
168	168	28
145	145	5
57	73	5
152	163	2
183	183	18
128	128	10
138	139	2
134	134	13
114	115	3
2	6	1
127	127	20
71	71	6
15	15	11
142	174	1
50	72	4
156	156	14
108	108	9
10	10	10
73	76	2
107	107	20
14	14	4
6	9	2
113	113	7
45	45	9
0	0	6
193	193	20
165	167	2
42	193	4
118	121	2
188	189	11
114	114	11
137	138	2
192	192	21
13	14	4
150	150	7
94	122	1
178	178	20
147	148	1
111	111	14
46	46	6
26	39	3
71	72	2
154	154	9
23	23	9
139	139	5
155	175	1
93	94	2
19	38	5
44	44	13
44	58	2
30	31	2
132	132	17
43	46	1
28	31	1
29	29	8
190	193	3
4	4	2
96	158	3
101	103	1
157	157	16
20	23	8
49	50	5
37	37	10
58	68	2
172	177	8
146	146	19
123	123	16
25	25	25
5	23	1
44	59	2
15	43	1
101	101	4
100	100	9
149	149	10
144	144	4
116	116	5
145	147	4
135	135	6
123	169	2
40	40	4
27	27	5
53	53	7
161	162	12
124	132	2
123	137	5
125	125	4
130	153	3
94	94	10
43	193	2
170	171	10
151	151	15
115	115	10
43	43	15
35	35	10
156	193	3
136	136	4
153	153	17
130	135	3
174	174	6
187	187	12
178	179	3
1	30	3
177	181	1
156	192	2
34	34	12
189	189	25
164	164	11
189	192	3
174	176	8
147	147	15
71	73	1
140	140	14
161	164	5
187	188	9
169	169	3
2	2	10
136	150	2
181	189	2
48	48	13
74	74	4
165	165	10
196	196	8
123	196	3
25	28	6
162	170	3
98	99	5
184	184	12
18	18	4
45	47	6
149	150	7
167	176	2
80	80	2
33	33	8
142	177	1
16	30	3
41	130	3
172	172	16
31	31	6
52	52	8
139	140	8
85	86	3
96	96	4
179	179	7
18	19	5
46	50	6
51	51	11
39	39	4
80	81	6
49	49	12
110	110	13
21	21	8
122	165	5
5	19	5
38	38	10
135	180	3
124	124	7
12	152	2
126	126	14
36	37	6
1	2	5
174	188	1
0	2	1
69	69	4
122	150	3
112	112	8
61	67	1
104	106	2
156	161	2
137	158	2
115	116	10
122	122	9
37	38	2
54	114	1
44	185	3
78	79	5
107	126	2
159	159	7
143	144	5
95	96	2
173	173	2
118	118	4
132	133	2
4	15	5
167	167	11
57	57	11
158	173	2
171	171	4
152	155	5
49	105	1
120	120	8
142	143	4
59	59	6
155	166	2
4	8	2
168	176	2
181	181	15
111	125	4
24	25	3
163	163	5
143	187	6
70	71	5
184	185	3
62	68	1
12	12	11
50	50	12
72	72	19
158	192	1
141	141	8
54	54	9
190	190	16
140	141	5
177	177	9
16	17	8
19	20	10
58	58	7
150	153	4
191	191	3
105	105	8
54	55	13
5	16	4
183	187	2
35	38	3
106	106	17
176	177	4
79	80	3
26	145	4
130	132	5
90	90	9
64	67	2
162	163	2
17	18	6
103	103	4
5	6	9
83	83	2
122	124	2
20	21	9
154	167	3
160	167	4
45	141	6
95	95	11
27	30	3
18	175	5
16	57	1
13	13	4
55	55	5
179	180	8
129	130	2
26	27	6
3	3	4
70	70	3
47	47	7
118	119	6
194	194	4
22	40	7
169	172	7
5	5	7
28	28	8
145	179	1
50	52	1
170	170	14
181	182	6
163	164	7
99	99	3
182	187	1
34	35	3
125	133	2
162	162	4
20	20	8
133	133	14
117	118	5
152	154	1
34	40	2
182	182	5
133	134	1
148	149	3
189	190	2
24	24	6
159	160	2
155	159	2
170	172	2
62	64	5
119	120	2
21	26	2
10	11	5
49	184	5
186	186	10
130	131	3
61	62	1
153	178	2
41	42	8
148	148	16
99	156	2
175	175	10
189	191	1
6	6	11
99	108	1
42	42	7
40	41	6
186	188	1
47	50	1
88	88	5
166	166	10
79	79	6
185	186	9
20	43	3
152	153	12
158	158	15
129	189	1
144	146	5
122	166	3
158	191	5
73	73	5
175	187	3
154	169	2
0	1	2
109	123	3
27	28	6
31	33	5
69	71	6
161	166	2
60	60	4
23	36	1
124	149	1
32	32	10
76	77	3
175	190	4
129	129	3
3	19	2
1	1	13
190	191	4
7	7	7
107	111	3
27	39	3
53	88	2
113	115	1
89	90	6
3	4	7
102	102	7
188	191	9
176	176	11
37	73	2
156	157	4
195	195	12
47	48	1
66	67	3
60	77	2
113	114	6
109	110	3
182	183	2
20	38	5
193	194	2
44	70	2
111	172	2
40	43	1
18	38	2
146	152	2
156	158	1
65	65	1
151	152	3
17	17	3
33	41	3
163	174	2
107	153	1
114	159	2
21	22	5
138	138	7
76	76	3
159	175	2
117	139	3
16	16	13
133	159	4
68	77	4
141	173	4
139	161	1
22	184	3
168	173	2
114	164	2
30	30	1
93	93	12
165	166	1
86	86	4
145	178	2
153	158	2
6	38	3
11	11	6
8	8	4
14	15	1
160	166	1
13	170	1
52	149	2
141	146	1
52	53	3
34	38	1
33	42	6
54	58	1
100	101	6
166	167	2
48	187	1
110	114	1
137	175	1
43	190	2
50	73	3
154	156	1
160	160	7
181	191	3
110	130	4
9	9	3
172	173	5
19	19	2
46	76	3
89	132	2
170	182	1
1	17	6
123	170	4
167	177	1
42	109	2
6	7	3
111	173	1
35	37	4
44	62	2
187	194	1
50	54	1
63	63	4
108	109	3
41	41	5
185	185	6
81	81	8
155	167	4
25	26	5
99	110	1
28	29	2
134	135	2
146	159	1
150	151	6
164	165	2
102	103	5
124	125	3
134	180	6
152	152	7
178	191	3
182	194	1
111	127	2
167	173	4
36	45	1
7	29	1
183	184	5
174	175	8
87	103	1
33	37	1
38	63	5
161	161	8
142	168	1
112	151	2
157	158	2
120	121	3
38	39	3
5	30	2
57	58	1
142	142	2
23	176	2
136	138	4
152	193	1
15	31	3
110	113	1
117	176	1
95	157	1
136	137	2
112	113	2
127	128	3
8	9	3
169	170	1
143	145	2
22	109	2
184	196	1
180	180	2
122	123	2
100	107	7
17	19	2
189	193	1
94	96	1
117	117	3
51	77	3
169	190	1
155	156	2
145	146	3
144	193	1
18	152	1
180	184	1
171	172	1
83	84	3
152	169	1
110	126	3
172	190	1
0	3	4
108	115	1
48	101	2
131	131	4
56	74	1
121	134	1
42	59	2
137	137	6
45	54	1
191	192	1
86	100	1
174	186	1
135	136	2
124	151	2
133	179	1
142	169	1
158	161	1
32	39	2
31	32	4
141	155	3
148	179	2
83	85	1
158	159	1
12	15	3
5	29	3
177	183	2
182	185	3
119	122	1
40	42	2
110	111	5
10	12	2
100	155	3
121	122	3
47	184	1
154	179	2
188	188	4
137	139	2
177	192	1
154	155	1
6	19	2
124	169	1
33	34	1
188	192	2
66	66	5
46	75	1
103	105	1
122	134	2
83	100	2
97	97	2
76	78	2
125	134	1
6	18	3
172	174	1
122	160	2
109	109	3
58	71	5
4	24	2
81	82	1
53	89	1
22	26	1
113	128	1
177	193	1
168	169	3
174	177	4
3	27	1
155	155	3
188	190	1
7	8	2
88	89	2
7	26	1
175	185	1
161	163	2
45	55	1
1	31	1
22	185	1
8	191	1
56	64	2
11	12	4
159	168	1
68	68	1
194	195	1
128	129	1
158	193	1
2	4	1
103	104	1
137	182	1
144	192	1
1	15	1
157	193	1
137	164	1
186	189	1
23	186	2
138	161	2
112	118	2
155	160	2
82	83	6
4	5	1
65	88	1
84	86	3
113	161	2
150	182	3
116	119	1
2	18	2
72	73	1
104	105	1
28	30	1
55	56	1
39	63	3
87	87	1
56	56	1
176	184	1
15	57	1
19	153	2
59	62	1
22	22	2
4	23	1
78	78	2
12	173	1
180	182	1
133	136	2
21	44	1
11	16	1
86	102	1
22	72	1
116	118	1
1	19	1
43	44	2
197	197	1
84	84	2
187	190	1
46	68	1
166	168	1
105	130	1
12	14	1
167	168	2
123	124	1
56	105	2
184	189	1
159	182	1
148	158	2
153	156	1
177	184	1
5	175	1
85	85	2
67	68	1
173	176	1
58	67	1
138	168	1
4	20	1
77	77	1
89	89	1
170	194	1
101	102	1
80	85	2
46	142	1
161	167	1
36	36	1
