62	63	5
98	99	3
47	47	3
134	134	11
47	66	1
38	38	4
27	27	10
34	35	2
136	136	2
31	31	8
23	23	2
70	70	9
80	82	1
74	74	6
37	48	5
32	32	3
73	74	6
87	122	1
87	87	4
16	16	4
56	57	1
24	25	3
27	28	3
137	137	5
18	19	2
69	70	7
33	143	1
6	6	3
15	16	1
29	29	4
9	13	2
52	68	4
33	35	3
89	94	2
146	146	3
132	136	2
12	12	3
31	33	4
23	27	4
11	12	2
94	94	7
44	44	3
41	41	3
118	118	2
21	22	1
141	141	6
102	114	1
63	65	10
8	18	1
145	145	2
49	51	4
13	14	2
149	150	2
9	84	3
125	125	2
110	115	3
129	130	2
134	135	1
67	68	2
152	152	2
30	30	2
140	143	4
83	83	2
42	43	1
123	124	4
64	65	2
20	20	4
14	14	6
107	107	5
45	45	5
144	146	4
141	144	2
45	123	1
32	33	1
147	147	6
32	34	4
57	57	2
84	84	6
106	106	3
76	76	1
82	83	2
43	44	3
121	122	2
45	46	3
121	121	1
112	113	2
48	49	3
31	32	1
86	86	3
14	15	1
100	100	3
40	40	2
148	148	5
4	4	1
64	77	3
120	120	5
128	128	4
25	25	3
117	117	2
101	103	2
76	77	6
127	127	3
74	76	1
65	82	1
25	151	1
87	123	1
10	11	1
118	119	3
85	86	5
10	10	2
66	66	4
149	149	4
110	110	5
139	139	4
33	33	4
111	111	2
120	122	1
113	113	2
112	112	3
97	98	7
33	127	2
5	24	3
139	143	2
92	92	4
107	109	2
128	153	2
103	103	2
66	78	1
130	136	1
131	133	3
151	151	1
140	140	2
64	78	5
61	63	1
150	150	3
40	41	2
90	90	5
78	78	3
34	36	2
67	67	8
21	21	5
126	143	3
95	95	2
40	42	4
38	40	6
36	36	3
133	134	4
39	39	3
96	96	3
9	9	2
117	154	1
52	53	2
28	30	2
133	133	1
13	24	2
71	74	1
58	58	1
18	18	2
130	141	2
56	58	2
131	139	2
99	99	7
150	152	4
20	21	2
30	54	3
15	15	2
144	144	1
85	85	4
147	148	3
19	20	1
17	17	4
54	57	1
109	109	3
34	34	1
38	39	3
48	48	5
81	84	1
13	13	2
37	39	2
2	3	1
80	98	1
19	19	5
28	68	1
46	46	2
80	80	2
53	53	3
29	30	3
30	32	1
28	28	5
3	3	1
153	153	3
14	136	1
114	114	1
124	144	1
4	20	1
41	43	2
88	115	3
7	7	3
146	147	2
11	11	8
101	106	3
57	58	1
100	101	1
137	138	3
51	68	2
13	26	1
119	119	2
9	17	1
54	54	1
77	112	1
25	26	1
137	139	2
32	138	1
34	130	2
116	117	1
51	65	2
62	66	2
63	85	2
142	142	1
82	82	1
126	128	1
55	56	3
107	111	1
22	22	2
24	153	1
115	115	1
132	133	1
95	98	2
9	15	1
22	26	1
53	54	1
81	81	1
122	122	2
88	88	2
14	27	1
90	92	1
72	72	1
54	70	1
28	132	2
73	73	1
41	64	1
10	12	1
5	26	1
136	144	1
91	91	1
8	130	1
24	27	1
16	17	1
12	13	1
66	83	1
104	104	2
6	8	1
