112	113	13
105	105	12
78	79	9
5	5	15
18	18	16
96	96	30
24	24	19
117	117	10
10	10	21
94	95	13
105	107	4
31	31	24
92	92	21
100	114	1
75	75	11
18	21	4
7	7	21
4	8	2
139	140	7
120	122	10
33	74	3
121	121	30
113	113	6
118	118	16
138	138	34
133	133	47
7	8	2
2	3	15
129	130	15
91	91	17
115	115	17
82	82	12
38	38	7
137	137	29
81	96	4
126	129	6
79	79	16
14	15	5
81	81	20
30	30	5
139	139	17
114	116	1
36	36	12
123	123	34
130	130	43
22	23	7
114	114	16
1	8	3
75	77	9
8	8	20
126	126	30
90	91	7
85	85	25
89	89	39
12	34	1
131	131	39
127	127	22
28	28	7
3	4	15
11	11	13
80	81	2
119	119	23
108	109	20
78	94	1
132	132	39
83	83	12
32	77	9
104	105	5
30	32	1
99	100	4
12	12	7
140	140	25
9	9	8
74	75	6
124	125	18
76	76	18
121	122	16
2	2	18
28	29	6
17	17	21
98	99	14
134	135	13
101	112	2
135	135	33
86	86	28
16	17	5
20	21	11
122	122	31
124	124	32
108	108	14
137	138	13
25	26	18
92	104	1
79	133	3
78	78	27
92	93	16
4	5	16
79	95	3
129	129	18
0	1	5
136	138	10
96	106	3
126	130	3
125	125	47
4	4	29
31	35	2
10	24	4
107	107	14
10	12	9
106	106	14
109	125	2
92	114	1
76	77	11
80	80	21
126	127	23
32	32	21
109	109	11
14	28	4
90	90	12
22	24	2
13	14	13
102	112	3
121	123	4
105	120	6
129	136	2
100	101	6
27	27	7
101	101	24
122	124	2
34	34	29
15	17	7
110	110	17
1	3	5
131	132	15
111	111	12
112	121	2
80	91	1
111	112	4
71	71	7
23	26	7
12	13	18
127	129	5
21	21	17
22	22	19
87	87	30
72	73	6
101	102	9
73	74	10
112	112	25
15	18	6
85	86	5
81	82	7
23	23	17
12	21	3
15	15	10
105	121	2
30	31	5
93	94	3
1	18	3
3	3	14
17	19	3
116	116	15
29	29	15
120	121	17
108	140	1
11	110	1
112	122	3
113	115	2
8	9	4
119	120	6
93	93	12
31	32	4
123	124	8
20	20	13
106	107	12
85	87	5
120	120	16
33	35	3
133	134	6
129	132	1
19	19	19
81	110	2
33	33	11
27	30	5
132	133	13
10	110	1
35	35	38
17	18	14
26	27	15
73	73	19
6	9	5
87	88	3
10	25	3
118	122	3
14	14	14
1	1	27
0	3	5
102	116	3
117	118	4
81	90	8
11	16	2
20	30	1
105	117	1
123	125	2
89	90	16
77	77	11
11	12	8
2	25	3
93	113	3
32	34	2
93	120	2
95	103	3
130	131	5
23	24	3
118	119	11
116	117	5
90	100	1
26	26	11
128	129	11
77	79	3
136	136	13
2	73	3
83	84	12
114	115	14
36	72	2
113	123	2
0	0	14
134	134	23
96	100	7
38	128	1
9	11	5
92	96	7
81	83	4
13	13	13
10	22	3
137	139	4
109	111	6
108	130	1
103	103	21
106	108	7
119	127	4
104	106	3
3	5	2
19	73	2
6	6	19
122	123	5
74	92	3
25	25	12
33	34	7
37	37	20
37	38	7
74	74	16
5	6	6
93	101	5
16	16	20
97	97	12
119	121	3
129	135	1
107	108	9
88	88	5
136	137	6
80	84	1
79	80	5
99	99	8
106	113	3
118	121	8
3	34	4
19	28	1
94	94	9
28	36	6
34	36	1
71	72	3
113	118	3
5	15	4
6	76	2
86	87	3
7	10	5
128	128	19
6	7	4
89	123	1
12	16	5
11	21	5
82	85	2
97	117	1
18	19	2
115	116	5
8	68	2
104	104	18
128	131	1
73	92	1
80	85	7
119	122	1
125	126	8
84	84	16
23	27	1
77	78	7
106	114	3
12	14	9
123	138	2
74	77	1
100	103	2
141	141	2
1	26	1
125	135	2
102	102	3
128	135	1
80	104	2
71	77	2
22	29	2
2	71	2
112	124	2
86	88	3
12	79	2
110	111	12
127	128	8
112	114	2
13	30	4
82	103	2
1	2	2
27	29	3
83	134	2
102	103	5
89	91	3
131	134	2
24	25	2
119	126	2
23	29	2
125	127	4
72	72	9
77	92	1
19	20	16
134	136	2
124	129	3
80	96	3
19	27	2
94	102	9
122	126	2
98	98	9
126	138	2
120	123	1
126	135	2
29	33	2
115	124	2
94	101	3
38	71	2
124	136	4
77	104	3
83	85	2
19	21	2
94	100	2
1	30	1
9	16	4
82	104	1
100	100	7
80	82	1
79	82	5
0	20	4
116	120	1
95	95	10
101	110	3
130	140	1
135	136	2
81	84	1
129	140	1
26	76	2
7	9	4
13	29	3
84	85	6
14	32	4
112	123	4
11	111	2
38	72	1
101	117	3
118	124	2
21	22	4
2	114	3
31	38	1
81	103	1
91	94	1
107	112	1
111	113	1
95	101	3
34	35	3
82	83	2
124	137	1
109	124	1
113	137	1
90	113	1
15	29	1
115	123	4
23	30	3
33	89	4
104	126	1
6	75	1
6	111	2
2	5	3
95	105	2
36	37	3
123	128	1
105	126	4
119	124	1
16	19	1
93	102	2
24	29	3
97	101	2
98	101	1
6	74	2
98	100	2
117	119	2
82	84	1
121	125	2
97	98	4
3	8	3
124	126	4
16	21	3
21	23	1
31	78	1
110	112	1
35	73	1
104	122	4
33	36	1
13	31	3
113	114	1
10	11	3
129	137	4
104	118	1
92	105	1
119	123	2
135	139	2
16	18	1
25	29	1
128	134	1
5	17	1
110	113	1
109	110	1
93	112	1
81	91	2
100	102	1
93	96	2
25	32	1
83	88	1
92	94	1
26	28	1
70	71	2
94	112	3
6	8	1
7	110	2
108	112	1
72	77	1
130	133	1
83	91	1
95	96	1
80	106	1
103	104	3
32	38	1
100	111	1
133	136	1
2	88	1
94	103	1
114	127	1
126	128	1
96	124	1
31	130	1
118	127	2
117	123	1
109	112	1
27	28	1
128	136	1
14	23	1
118	120	1
80	92	1
71	93	1
92	139	1
29	36	1
107	113	1
