125	127	6
94	95	5
119	119	15
97	97	23
25	25	5
38	43	4
96	105	1
114	114	16
53	53	18
26	90	2
102	102	18
101	101	17
65	65	4
14	14	15
82	85	1
91	91	26
24	28	2
63	63	10
119	132	2
78	78	12
26	55	2
36	62	1
67	69	1
100	117	2
7	7	2
13	20	3
112	112	11
91	92	10
33	33	9
50	52	2
37	91	2
64	64	20
110	111	7
60	60	17
77	77	16
115	133	1
124	125	4
26	26	12
6	7	6
123	129	3
48	56	2
10	11	8
84	84	17
121	122	1
88	121	1
80	80	15
45	45	5
54	54	16
123	123	14
109	109	12
23	25	2
90	90	8
37	37	7
7	8	4
2	2	15
131	131	9
51	68	1
88	133	6
69	69	11
85	85	8
29	33	3
17	17	3
120	120	20
108	110	8
122	133	3
116	116	24
8	15	3
127	134	2
73	73	12
107	117	1
16	16	6
113	114	2
23	27	1
1	2	4
62	104	1
117	118	3
0	1	4
67	68	6
76	76	18
5	5	7
92	92	17
1	1	2
123	127	2
106	107	9
57	58	5
102	126	2
115	115	15
127	127	20
15	27	2
113	113	15
77	78	3
9	10	6
36	92	5
108	109	7
68	68	15
74	74	13
27	27	5
78	79	3
19	22	4
84	96	2
132	132	12
43	44	4
84	92	6
123	124	7
77	104	1
43	43	9
93	93	11
94	116	3
117	117	25
47	49	1
88	88	19
134	135	6
75	75	13
100	100	13
82	83	2
62	111	1
12	12	16
10	10	7
46	46	1
86	86	11
66	66	15
107	130	1
72	72	26
125	125	7
45	101	2
83	120	3
78	110	2
62	62	24
81	82	3
122	134	2
23	23	6
106	130	5
27	63	2
121	121	15
20	20	15
120	122	4
22	22	20
81	84	5
55	56	8
87	87	11
108	108	19
50	66	2
115	116	5
31	31	13
24	24	7
56	57	6
60	68	1
83	84	10
94	94	6
135	135	5
111	111	25
32	33	1
89	90	5
29	37	4
113	130	4
128	128	21
84	85	11
111	116	2
42	82	2
96	98	4
15	15	12
10	13	2
56	56	19
119	135	2
130	130	13
28	29	3
103	103	8
21	21	8
92	130	1
6	9	1
13	22	2
54	92	4
48	50	4
11	11	12
31	33	4
36	87	2
72	73	3
34	34	12
27	28	5
125	132	4
122	122	14
95	112	5
97	116	1
4	4	11
2	128	3
70	70	17
105	105	12
131	132	7
79	79	5
6	6	12
14	54	1
100	106	2
49	60	1
118	122	5
69	111	2
119	122	6
130	131	5
95	95	8
114	115	7
52	53	8
71	72	4
62	63	6
113	115	4
50	51	3
43	65	2
106	114	2
120	131	1
130	132	3
65	108	2
57	57	14
3	3	15
102	103	6
111	122	3
18	19	3
98	98	5
95	108	5
60	82	1
82	87	1
71	71	11
82	82	11
126	126	14
88	114	3
81	86	3
13	134	2
42	67	2
61	61	11
92	97	4
117	129	4
28	28	7
107	132	1
103	104	6
95	96	4
118	118	7
132	133	3
60	61	5
104	105	2
3	4	7
96	96	19
0	14	1
125	126	7
134	134	11
83	83	11
36	36	4
43	87	2
10	86	6
58	59	5
106	125	1
127	128	6
55	55	5
35	35	12
58	58	10
76	82	3
133	133	12
17	33	4
76	78	2
23	24	4
108	133	1
4	132	5
99	103	1
60	69	3
45	93	1
49	49	2
108	112	2
100	101	4
89	94	2
30	30	4
68	76	2
83	85	5
0	13	1
112	133	1
50	50	15
74	90	1
14	25	1
9	20	6
43	79	1
116	121	2
69	98	1
24	56	1
99	99	9
91	101	2
0	128	1
97	113	1
111	123	2
10	15	1
22	23	5
23	79	4
99	127	2
102	104	2
104	104	10
66	67	6
70	71	4
29	29	10
44	47	2
7	25	2
107	107	13
90	112	4
54	58	1
1	71	2
29	31	1
65	66	6
117	125	3
52	52	15
64	94	1
93	94	4
124	134	1
79	109	2
14	52	1
50	69	9
106	106	17
14	86	3
17	18	4
79	80	4
124	133	3
69	76	5
8	8	9
19	19	4
43	82	1
10	25	1
82	107	5
66	68	2
94	128	1
15	16	3
68	83	1
104	123	2
49	50	4
8	11	1
63	67	2
59	59	15
13	86	1
96	111	2
63	64	3
78	117	3
92	93	3
19	20	8
33	35	2
38	60	1
10	20	2
10	115	2
117	132	4
48	80	2
13	13	4
97	125	6
110	122	6
81	81	8
21	57	2
73	78	4
124	132	2
92	94	1
93	98	1
35	96	2
99	132	3
28	31	1
63	68	4
44	44	6
9	9	4
84	97	1
110	110	8
91	97	2
107	121	1
89	89	6
34	37	4
126	134	6
23	35	2
97	98	4
98	135	2
126	127	2
67	110	2
102	105	1
92	96	2
92	117	1
2	129	2
86	92	1
14	27	1
113	117	1
44	46	2
82	119	2
44	45	4
111	112	1
109	110	1
100	129	2
53	64	2
10	120	1
56	60	3
101	118	1
122	123	3
0	0	4
129	129	4
38	38	2
119	131	1
5	22	3
33	34	12
81	90	1
47	50	2
46	51	2
14	134	1
71	73	1
98	116	1
61	63	1
14	26	1
56	86	3
44	50	1
15	20	3
62	64	5
72	74	1
53	59	1
57	62	1
86	91	1
65	127	1
32	70	1
8	24	1
120	121	2
128	134	5
27	29	1
43	84	2
80	84	1
47	47	1
4	5	7
33	43	1
25	27	1
13	15	1
54	91	1
24	25	2
73	74	5
54	55	3
105	106	4
66	77	1
8	9	7
59	61	2
124	124	4
99	101	2
53	54	2
107	110	1
50	65	4
120	130	2
83	86	1
61	62	1
86	110	1
23	77	1
56	58	3
55	82	3
96	97	2
106	113	2
49	68	1
117	130	3
17	43	1
82	96	3
83	110	2
61	64	1
98	111	1
53	55	1
11	25	2
1	3	4
96	131	1
87	92	2
86	88	2
57	93	1
30	112	1
63	111	2
2	3	1
48	48	2
12	35	2
58	61	2
69	78	1
2	55	2
95	120	2
11	61	2
107	113	1
117	126	1
32	35	1
67	67	2
21	22	1
123	131	1
89	93	2
88	98	2
11	16	1
61	67	3
64	65	2
20	21	2
19	25	5
18	18	1
112	132	1
26	34	1
30	31	5
33	44	1
26	32	2
29	30	5
32	32	3
105	110	4
38	51	1
68	93	2
26	36	1
29	95	2
96	124	1
65	114	1
85	109	2
58	68	1
96	128	1
25	89	1
24	47	1
54	56	3
85	121	1
95	105	2
78	85	2
60	81	1
115	122	2
24	44	2
17	22	3
122	130	1
9	24	1
46	50	1
117	133	1
78	91	1
33	113	1
119	130	1
68	69	3
3	6	1
103	114	2
37	61	1
30	37	1
107	109	3
115	129	2
66	69	4
124	130	1
80	88	1
95	106	2
105	134	1
97	130	1
7	52	2
100	109	1
84	90	1
10	118	1
121	129	4
77	80	3
93	96	2
107	118	1
114	116	1
118	130	2
121	124	1
91	117	1
65	94	1
28	34	1
95	132	1
99	130	1
79	93	1
100	115	1
10	24	1
119	129	2
75	76	1
14	120	2
14	49	3
81	118	1
52	64	1
119	120	3
71	112	1
44	69	1
107	108	1
99	100	3
9	11	1
37	48	1
113	132	2
28	30	2
24	53	2
116	120	1
112	113	1
82	84	3
50	130	1
111	129	2
45	46	1
63	76	2
118	129	4
106	110	1
82	109	2
30	32	1
119	123	2
95	134	2
50	131	1
7	17	1
88	95	2
87	91	1
51	51	4
7	10	1
112	130	1
61	99	1
118	119	2
11	24	2
84	111	1
14	56	2
7	18	1
103	105	1
125	129	1
47	101	1
59	60	1
128	129	1
123	128	2
115	124	1
79	87	2
106	117	2
49	69	1
46	47	2
105	112	1
28	36	1
7	11	1
106	122	1
89	112	1
38	55	1
98	109	1
14	15	1
13	47	1
100	112	2
28	32	2
26	68	1
121	130	1
57	60	1
116	119	1
116	129	1
0	86	1
21	91	1
106	132	1
25	55	1
88	91	1
78	92	2
92	106	1
112	126	1
15	86	2
97	100	1
129	132	1
7	16	2
90	111	1
20	123	1
49	55	1
53	56	2
53	57	1
26	37	1
100	130	1
109	129	2
129	134	1
130	133	1
23	43	1
7	9	1
10	85	1
13	43	1
25	38	1
13	125	1
43	49	1
21	80	1
44	68	1
83	135	1
82	88	1
111	117	1
72	114	1
45	130	1
86	134	1
101	111	1
80	81	1
35	36	1
34	46	1
16	63	1
