185	191	1
197	197	8
26	26	1
44	44	5
207	207	11
243	244	2
164	164	5
24	24	5
175	176	2
66	68	2
42	42	10
201	222	2
53	53	5
36	36	4
27	27	2
241	242	4
4	4	2
223	223	4
25	25	1
107	107	9
171	171	5
209	209	5
244	245	1
173	173	8
91	91	1
28	236	5
212	212	4
66	66	4
78	83	1
177	177	7
28	28	6
182	182	5
68	68	9
227	227	1
156	156	12
84	84	4
46	46	10
119	120	5
158	158	7
108	108	2
43	151	3
9	11	1
49	49	3
16	16	11
73	74	2
32	32	3
28	44	5
210	210	2
185	185	4
64	66	1
176	176	5
181	182	4
183	198	3
198	198	2
229	229	3
117	117	1
157	171	3
77	77	1
238	239	2
50	51	2
93	93	4
219	219	5
167	167	3
45	45	5
188	189	3
96	98	1
14	14	4
174	226	1
114	115	3
211	212	1
23	23	2
227	228	1
228	228	2
189	193	5
246	246	9
203	205	3
9	9	6
30	30	4
81	81	1
71	74	2
231	231	4
15	15	2
168	168	8
203	204	4
180	186	5
245	245	5
194	194	2
211	211	4
175	175	3
58	76	2
212	226	2
242	242	5
221	222	1
116	116	5
204	204	3
191	192	1
196	196	2
200	200	1
215	215	6
103	104	2
194	196	4
37	38	2
72	73	1
162	163	1
58	58	4
171	188	2
214	241	3
198	236	2
90	90	2
82	83	2
102	102	4
91	104	3
100	100	6
48	48	3
153	153	5
197	199	1
155	155	1
75	75	3
166	166	2
50	50	3
114	114	7
96	96	5
65	65	2
10	10	4
38	38	3
17	17	6
84	86	3
88	95	2
90	109	1
163	248	5
163	163	2
186	189	4
193	194	4
37	37	1
51	56	2
66	69	1
33	33	3
62	64	3
235	236	2
150	150	1
104	104	3
62	63	2
201	234	3
241	241	4
63	117	3
67	67	2
9	45	1
41	45	2
243	243	2
154	154	4
76	76	2
95	111	3
55	61	2
112	112	2
29	29	2
191	193	1
186	186	3
208	208	9
151	151	2
27	28	2
183	183	3
87	87	4
86	86	1
185	188	1
206	213	1
220	220	3
115	146	1
229	230	1
238	238	2
5	5	2
205	205	2
56	56	2
184	185	1
92	93	5
194	195	1
179	179	2
244	244	2
222	222	3
230	237	1
158	170	1
235	235	7
19	19	4
177	214	1
206	206	1
203	203	2
42	43	2
7	7	1
19	20	1
199	199	2
174	174	1
204	234	2
169	170	5
47	110	1
99	116	1
85	85	2
214	214	2
86	96	1
183	185	1
234	241	1
186	187	1
163	164	1
187	190	1
108	113	1
64	64	3
162	162	3
181	181	2
16	41	2
161	161	2
198	199	1
160	160	3
12	12	2
160	162	1
6	6	1
110	158	2
181	189	2
177	189	1
157	158	1
28	34	1
171	219	1
81	116	2
217	235	2
147	147	3
73	73	3
0	29	2
60	60	2
52	64	1
214	215	3
213	213	2
88	99	1
195	195	4
218	219	4
224	224	3
10	33	3
54	54	1
199	200	3
114	116	5
101	101	1
238	240	1
71	71	3
12	34	1
82	104	1
59	59	1
208	209	5
48	245	1
165	165	2
191	208	1
92	92	1
193	201	2
79	80	1
2	2	2
111	118	1
195	198	2
22	23	2
71	75	1
186	193	2
226	227	1
97	108	1
31	37	2
233	233	1
170	170	1
155	182	1
59	60	3
180	181	1
178	178	1
205	207	2
195	196	1
171	175	2
62	62	3
89	90	1
202	202	1
164	247	1
20	20	3
225	226	2
242	244	1
206	207	1
157	170	1
239	239	2
207	208	2
163	166	1
52	52	1
72	80	1
67	176	1
230	232	1
181	188	2
192	194	1
201	201	2
236	245	1
79	79	2
7	8	1
110	110	1
152	226	1
109	109	2
221	221	2
222	231	1
228	229	1
109	110	1
162	167	4
97	116	1
30	114	1
11	11	4
146	147	2
57	113	1
48	69	1
185	189	1
163	165	2
35	35	1
168	222	1
7	31	1
205	213	1
42	78	1
22	22	1
169	169	1
152	152	1
95	95	1
245	246	2
172	174	1
216	216	1
190	191	2
200	240	1
93	95	1
33	35	1
187	187	1
38	91	2
247	248	1
234	246	1
5	30	1
105	106	2
55	55	1
92	104	1
144	144	1
249	249	1
190	190	1
218	218	1
82	219	1
40	41	1
28	29	1
