128	141	1
13	13	8
141	141	9
123	125	2
2	15	2
81	81	19
90	90	2
19	19	5
6	10	3
5	54	3
98	98	9
94	94	9
69	69	3
50	50	5
118	118	7
113	139	2
71	72	2
48	81	1
12	14	2
111	132	8
131	141	1
87	90	4
11	32	2
120	120	8
89	89	11
114	114	7
56	57	2
116	118	3
131	132	8
58	58	9
88	90	4
14	48	1
72	73	9
66	67	4
74	75	5
34	56	1
136	137	5
23	24	5
14	16	2
143	145	2
115	115	8
78	79	1
30	30	7
117	144	1
142	142	1
14	14	6
123	124	6
106	106	3
120	134	4
42	48	2
117	117	14
108	108	4
108	132	3
76	76	3
135	135	15
82	82	1
52	53	2
83	85	1
118	121	1
20	20	5
62	62	2
72	75	3
137	139	1
116	116	8
79	99	2
10	20	2
33	33	4
113	113	3
85	85	4
88	88	7
132	132	7
31	31	2
99	107	2
29	29	8
124	124	9
109	130	5
95	97	3
97	97	5
136	139	1
92	94	7
55	57	1
143	143	8
115	122	2
28	28	3
119	120	3
4	20	3
21	30	3
60	67	1
27	41	2
62	66	1
94	118	2
146	146	1
97	98	3
131	131	6
0	1	4
118	119	4
134	134	9
28	134	3
114	116	4
31	32	6
37	38	3
13	14	3
126	126	12
33	50	1
107	107	3
109	111	2
129	130	12
4	47	1
73	73	5
139	140	1
22	22	6
142	143	6
99	105	1
99	100	3
2	49	2
121	139	1
99	99	1
140	140	5
61	62	5
66	66	9
51	51	6
112	132	2
129	129	4
120	145	2
133	133	10
113	126	1
13	15	5
21	21	6
74	74	6
127	127	5
58	93	4
65	65	11
9	9	4
86	114	2
3	3	2
23	28	1
122	141	4
95	95	11
122	123	5
79	79	12
41	50	2
51	68	1
118	123	4
144	144	9
59	94	3
41	42	2
108	111	1
82	97	3
37	74	4
10	10	5
104	104	2
101	113	1
136	138	6
55	55	4
138	138	4
86	135	1
63	64	1
16	16	8
59	59	1
26	26	3
22	23	1
115	116	7
36	70	1
49	49	3
75	75	5
118	120	2
133	136	4
52	57	5
105	114	1
113	114	3
1	64	7
60	91	3
76	78	1
61	61	9
128	128	6
79	80	3
24	24	3
21	98	1
2	2	5
80	80	1
15	17	5
67	67	6
123	123	4
125	127	1
121	122	2
102	102	3
84	140	1
3	22	1
36	76	3
137	137	2
105	106	2
66	91	6
32	32	6
92	92	2
26	27	2
62	98	1
130	133	2
6	13	1
27	27	4
121	121	8
21	50	2
49	50	8
93	93	6
91	91	6
8	10	2
41	41	3
55	129	4
33	56	2
107	108	2
52	52	4
77	77	4
131	138	2
30	31	1
105	139	2
28	126	4
139	139	6
110	110	9
66	73	2
113	121	2
85	137	1
119	119	6
60	126	4
91	137	1
54	54	3
15	15	1
33	55	4
136	136	3
138	139	3
115	117	2
100	118	1
11	54	1
63	63	4
51	64	4
133	134	1
139	141	1
14	15	6
18	130	2
125	126	2
37	37	5
4	4	2
14	50	1
5	5	2
124	125	5
103	103	6
81	84	2
131	133	1
2	5	1
9	48	1
55	141	1
39	50	1
70	74	3
88	89	1
121	126	2
42	56	3
135	140	1
9	10	3
25	25	6
80	83	1
35	56	3
133	138	2
73	74	1
72	72	3
0	0	1
80	81	1
98	108	2
84	84	2
68	91	2
67	91	3
36	37	3
76	89	2
52	65	2
60	60	5
88	94	1
34	34	2
53	99	2
62	137	3
105	118	1
143	144	1
100	100	5
65	86	2
70	71	1
70	73	1
26	111	1
14	17	1
37	43	1
64	69	1
111	111	3
84	120	4
38	57	1
112	112	2
93	110	2
66	69	2
23	25	2
68	110	2
71	71	3
32	33	4
131	134	1
108	135	1
16	17	2
53	53	1
124	145	1
126	127	3
80	104	1
21	57	2
37	40	1
108	123	2
86	112	1
82	96	1
110	131	1
71	92	1
56	140	1
5	20	2
6	6	3
112	136	2
31	33	2
20	21	1
47	47	1
32	37	1
1	13	3
70	70	1
4	65	1
101	101	3
112	116	1
108	109	2
19	29	4
117	118	1
42	42	1
51	53	1
70	139	1
119	123	1
57	57	2
17	104	1
134	140	3
50	51	2
6	9	2
18	18	3
86	136	4
105	105	1
83	83	3
76	77	1
140	141	1
117	140	2
77	78	1
107	120	3
93	94	1
122	122	3
24	34	1
100	119	1
12	15	1
74	85	2
123	138	3
63	87	1
2	9	1
131	139	2
56	56	1
133	139	2
125	125	2
33	35	2
121	137	1
5	6	1
23	23	2
76	88	1
118	132	1
72	84	1
113	116	1
18	127	1
110	111	3
76	85	1
27	133	1
25	110	1
21	53	1
130	130	1
13	80	1
35	70	1
82	85	2
78	82	1
25	31	1
95	100	1
121	141	1
43	47	1
4	5	1
30	33	1
47	49	2
99	120	1
55	142	1
130	131	1
20	33	1
57	58	1
68	68	1
90	114	1
118	139	1
106	138	1
27	28	2
32	36	1
53	54	1
35	43	1
64	138	1
124	134	1
50	52	2
56	129	1
114	115	1
36	36	1
134	135	1
43	43	1
81	82	1
92	132	1
1	1	1
65	138	1
128	130	1
104	105	1
127	130	1
35	35	1
16	104	1
36	41	1
51	52	1
105	108	1
