32	77	2
106	106	3
34	38	3
16	22	1
119	120	8
67	67	4
135	136	3
7	8	4
5	5	12
75	75	11
133	133	21
147	147	8
3	26	1
44	45	4
34	35	1
70	135	1
150	152	5
95	96	3
6	76	3
6	6	12
21	21	15
130	131	2
29	30	5
115	115	9
88	88	4
108	117	1
23	24	5
143	145	3
39	39	11
82	82	9
23	23	10
7	7	11
10	10	15
33	33	10
156	156	7
139	139	9
104	105	4
136	136	9
77	77	9
82	87	5
122	136	6
46	54	2
131	131	9
101	101	10
53	54	2
124	124	10
128	128	9
81	82	5
78	82	1
115	116	12
144	145	15
44	44	6
144	146	9
138	138	9
125	126	2
38	39	4
92	92	3
97	100	2
127	127	25
113	113	11
155	155	7
96	97	6
12	15	2
21	31	4
90	90	9
78	79	8
120	120	5
106	107	7
96	96	8
142	142	19
19	19	5
112	112	8
11	12	2
43	45	3
38	38	5
143	143	11
88	89	4
64	64	3
110	110	5
137	138	2
129	130	5
53	53	3
24	25	3
1	1	4
104	104	9
132	133	2
80	80	3
27	28	4
158	158	16
98	99	4
13	15	3
126	126	9
50	50	7
42	42	16
49	49	4
157	157	5
135	135	7
133	134	2
0	0	3
131	132	6
24	24	8
15	15	9
36	37	5
147	153	4
81	81	12
131	133	3
68	68	3
132	135	2
43	43	4
70	96	2
54	56	2
116	116	14
107	107	12
116	117	5
136	141	3
8	9	3
83	83	3
52	52	4
0	11	11
16	18	2
86	92	5
132	132	8
30	34	3
123	123	14
39	40	4
114	115	4
134	134	4
78	80	4
93	93	5
148	148	3
152	152	7
46	46	11
85	88	1
6	128	1
87	89	2
16	16	13
94	95	4
138	139	12
134	140	1
109	110	4
73	73	4
83	84	4
84	112	3
4	4	13
121	121	2
64	65	4
17	17	7
75	76	4
148	154	1
63	67	3
140	140	6
16	17	1
41	45	2
111	111	1
110	112	2
70	70	6
63	63	1
99	99	5
86	86	7
54	55	4
144	144	9
145	147	3
29	31	6
15	28	1
39	51	1
113	114	4
113	118	1
69	69	7
50	51	8
32	32	2
18	18	10
54	54	16
40	40	2
109	109	4
131	135	5
85	85	6
67	68	11
83	86	2
64	83	1
125	146	2
71	71	5
82	84	2
62	66	2
65	66	1
41	48	2
10	11	2
100	100	7
113	122	1
108	111	8
84	84	1
72	110	2
156	157	9
14	27	5
116	122	3
2	5	2
109	126	1
89	92	1
66	67	2
37	37	9
36	36	1
117	118	4
29	29	10
114	114	3
30	30	5
142	145	1
11	11	2
26	26	13
42	43	2
115	122	2
25	31	2
70	71	7
97	97	2
103	103	6
124	125	4
117	119	1
106	118	1
45	45	4
52	53	5
13	14	3
91	92	2
25	26	1
20	24	2
8	8	4
3	4	1
13	109	1
26	28	3
122	123	1
4	29	2
55	55	1
17	18	1
0	1	3
50	54	2
51	51	9
132	156	3
35	35	2
87	87	7
142	143	3
129	129	5
145	146	4
22	22	3
26	100	1
150	150	5
47	47	2
123	125	1
64	81	1
155	156	3
77	107	2
153	153	6
93	95	4
96	101	1
19	21	2
145	145	4
1	2	2
91	91	5
131	156	1
12	14	1
25	25	6
82	85	4
34	34	2
49	50	1
142	146	2
78	78	2
137	141	1
3	3	4
4	5	6
39	42	1
24	26	3
18	20	1
151	151	7
56	56	1
21	30	3
146	147	2
110	114	5
106	112	2
28	28	4
153	155	1
69	70	2
35	37	4
137	148	1
102	103	3
12	13	2
17	29	2
85	103	2
117	117	2
8	11	1
95	95	4
121	122	2
148	152	2
6	7	2
31	31	3
4	26	1
76	76	1
20	20	3
117	146	2
123	127	1
43	79	5
108	109	2
32	34	1
91	94	3
137	137	4
109	111	4
41	41	5
84	89	3
33	34	4
154	155	4
22	23	5
141	142	2
17	31	1
154	154	3
137	139	1
141	141	1
126	127	2
149	150	1
86	87	2
109	112	1
125	125	6
73	94	3
119	119	1
17	22	4
62	62	2
132	140	1
125	152	2
35	47	3
140	156	4
118	118	1
83	85	3
112	113	2
41	42	4
91	111	2
124	126	5
157	158	1
45	48	2
134	135	2
87	92	3
146	146	2
46	112	1
37	38	1
40	41	2
66	66	3
12	12	1
44	54	1
44	50	1
89	89	2
71	72	1
118	120	1
3	27	2
123	126	2
65	65	8
46	70	1
9	9	1
7	11	2
123	124	3
147	148	3
148	149	1
61	71	1
50	53	1
80	81	3
99	100	3
48	48	2
147	149	1
22	100	1
62	64	1
52	54	1
63	84	1
75	118	2
9	34	1
56	57	1
15	29	1
121	123	1
139	140	2
130	132	1
61	72	1
125	154	2
27	27	1
107	115	2
46	47	1
87	88	1
82	109	1
68	70	2
107	119	1
142	148	1
7	34	1
100	101	3
86	88	1
122	141	1
136	139	1
66	75	1
130	130	2
43	89	1
108	124	3
2	3	1
120	121	1
119	121	1
32	42	1
79	82	2
105	105	1
139	154	1
13	117	1
86	89	1
108	108	1
79	80	1
130	133	1
