63	64	8
54	54	18
57	58	8
4	4	4
2	2	10
53	53	12
20	48	2
12	14	2
80	81	3
6	7	5
28	28	3
53	55	5
3	3	5
25	27	5
14	16	1
46	46	4
25	25	18
4	82	3
22	22	12
50	50	7
72	72	10
81	82	3
82	83	7
63	66	4
57	81	1
4	5	1
10	10	8
5	5	4
73	73	7
87	87	10
9	11	3
20	20	9
67	67	12
89	89	4
23	25	5
52	52	12
8	17	2
71	72	1
85	85	3
13	23	3
60	60	8
13	14	1
78	78	9
54	55	5
68	68	10
65	65	1
46	48	3
72	73	3
19	19	10
22	84	5
9	9	5
71	71	5
11	11	4
77	77	4
70	70	13
76	77	8
80	80	10
85	86	2
30	31	3
21	22	1
1	1	2
47	47	8
24	24	7
55	55	4
82	82	6
83	83	3
84	84	5
23	23	4
5	56	3
88	89	5
17	24	1
78	79	2
76	76	8
75	75	15
74	74	8
63	63	7
61	61	1
23	24	1
17	17	5
57	80	1
30	30	3
72	76	2
59	59	3
73	74	3
48	48	9
49	49	5
68	69	2
25	26	1
15	15	3
56	56	4
59	61	2
77	87	3
66	69	1
77	78	4
5	10	4
58	58	4
51	51	5
19	47	2
55	56	2
6	6	3
58	73	2
3	88	1
51	53	1
61	62	2
30	69	1
79	79	1
28	29	2
69	69	10
26	26	3
27	31	1
87	89	2
72	74	2
74	75	3
68	70	2
87	88	1
51	54	1
75	79	3
28	31	1
31	31	9
75	84	2
54	56	1
11	54	4
16	16	2
60	61	3
20	22	5
48	52	2
59	62	2
34	35	2
61	66	3
18	18	1
20	21	8
3	4	3
29	29	3
66	66	7
14	14	6
8	8	5
78	80	5
62	62	2
0	1	3
14	15	2
64	64	2
90	90	2
33	34	1
55	57	3
62	63	2
0	0	2
63	65	3
53	54	1
7	79	1
21	23	2
9	47	1
56	65	1
13	13	6
27	27	1
57	57	5
27	30	1
51	82	2
6	25	1
65	66	3
69	72	3
81	81	2
70	73	2
12	12	2
4	30	2
7	7	2
22	24	1
9	12	1
54	81	2
58	59	3
0	88	2
50	51	2
75	76	1
17	20	2
70	71	1
52	54	1
48	49	3
5	6	2
64	65	1
7	8	2
47	49	2
86	87	1
11	14	3
49	50	3
67	68	1
9	10	1
56	57	2
15	16	1
86	88	1
74	84	2
19	20	1
29	30	3
85	87	1
83	84	1
21	21	1
61	65	2
15	24	1
24	25	1
82	84	1
61	63	1
10	20	1
9	19	1
5	55	1
69	74	1
31	46	1
86	86	2
3	27	1
34	34	1
