141	141	6
105	105	4
45	45	7
46	46	2
31	31	9
149	178	3
143	143	5
42	42	5
140	140	1
157	157	6
15	16	1
98	98	4
24	24	16
138	138	3
154	154	2
62	62	4
12	13	2
54	56	6
12	43	2
118	118	2
113	113	7
164	164	2
115	115	7
150	151	3
76	76	1
122	123	3
67	67	6
136	136	2
127	127	2
91	94	3
148	162	1
107	108	5
53	82	1
103	103	6
134	135	1
169	169	12
143	144	1
90	90	5
7	7	9
26	26	1
94	94	2
105	107	1
185	185	8
84	84	6
104	104	10
125	125	3
100	101	3
21	21	5
52	53	6
175	175	4
23	119	5
139	139	5
56	56	1
178	183	2
189	190	2
77	78	1
152	153	1
110	111	2
111	112	9
33	34	3
17	18	5
176	176	3
89	95	2
119	119	1
188	188	2
190	190	8
22	22	5
4	4	9
108	115	1
104	105	1
123	123	3
12	12	4
93	94	1
152	164	1
22	37	6
146	146	7
184	184	3
95	103	2
9	10	3
20	148	1
95	95	3
66	66	5
23	23	5
54	54	3
41	41	8
52	52	7
121	143	3
72	72	1
71	71	4
109	112	2
55	55	12
185	186	2
11	13	2
1	1	3
109	109	5
188	190	3
37	37	5
29	29	5
108	114	3
108	109	3
107	107	3
81	125	1
73	73	5
30	39	1
83	86	1
58	62	1
108	108	8
166	166	8
68	69	1
130	130	3
180	182	2
134	142	2
131	144	2
170	174	3
20	20	3
150	190	2
77	77	7
105	126	3
155	155	6
85	85	2
13	13	6
29	46	1
175	178	4
170	186	1
167	168	2
32	32	6
76	98	4
33	33	1
167	167	3
6	6	3
15	17	4
137	137	8
61	62	1
55	67	1
40	183	1
153	153	2
148	148	3
80	81	1
152	152	2
61	61	1
164	165	2
123	129	2
26	71	2
22	26	2
158	158	3
154	171	1
110	110	5
86	86	4
43	43	3
92	117	2
10	10	6
156	165	2
18	47	2
157	158	4
105	127	1
19	20	3
58	68	1
11	11	4
48	74	3
124	124	4
106	107	4
144	144	2
176	179	3
36	44	2
156	162	1
97	98	5
114	114	3
71	72	1
124	125	2
89	89	8
34	34	8
170	170	2
28	29	5
75	75	8
59	60	1
178	178	5
19	19	6
25	102	1
66	73	1
149	162	1
18	19	1
186	186	4
88	88	3
151	151	6
28	28	3
158	161	3
117	118	1
72	125	1
151	173	3
106	106	3
41	42	1
53	53	1
183	184	2
122	122	7
35	99	1
184	186	1
107	128	2
146	148	1
112	112	3
91	92	1
133	144	2
44	44	2
35	36	3
144	145	1
24	71	3
111	111	3
125	126	1
182	182	6
149	149	4
30	34	1
177	177	9
162	162	3
150	179	2
98	99	2
150	178	1
101	101	2
57	57	1
72	117	3
14	14	2
90	110	1
22	162	1
74	76	9
140	141	1
73	118	1
99	99	4
150	150	2
32	33	3
147	147	4
2	2	3
187	188	3
172	172	2
6	7	2
61	63	2
84	85	1
169	170	2
9	13	2
168	168	1
141	142	2
131	131	3
148	160	1
180	180	9
68	72	1
173	173	1
102	103	1
33	99	1
8	14	1
121	121	1
64	64	2
105	106	1
141	145	1
107	114	3
124	126	1
156	156	2
40	40	1
81	111	2
7	8	1
172	190	1
129	129	1
74	75	1
60	60	2
10	12	1
27	28	5
56	78	1
112	113	1
133	133	2
91	91	3
166	167	4
70	70	2
147	148	1
80	80	3
18	18	6
66	81	1
27	27	6
165	165	2
125	141	2
133	135	1
165	181	2
139	169	1
96	109	1
179	182	1
154	155	3
92	93	3
132	132	2
164	183	1
133	136	2
74	74	2
108	113	3
25	129	1
24	25	2
181	181	2
149	155	1
91	96	1
158	164	1
32	70	1
178	179	5
13	16	1
92	94	1
174	175	2
139	153	1
8	13	1
72	73	1
187	187	4
23	24	1
58	79	1
161	161	3
122	144	1
65	65	2
189	189	2
58	94	1
158	162	1
75	76	1
31	32	1
175	176	1
113	132	1
20	21	1
24	116	1
101	184	4
128	128	2
129	130	2
149	150	2
131	135	1
53	54	2
78	78	3
119	143	1
154	157	1
134	134	2
145	146	1
8	8	1
15	15	1
27	29	1
179	180	1
36	36	2
30	174	1
88	89	1
3	3	3
39	39	1
46	64	1
175	183	1
171	173	1
14	16	1
109	110	1
94	95	1
56	77	1
60	61	2
152	169	1
165	183	1
100	100	1
9	9	1
132	133	1
180	181	2
97	97	3
24	26	1
37	40	1
163	163	3
55	61	1
4	5	1
142	142	1
32	36	1
28	40	1
182	183	2
120	120	1
171	181	1
33	46	1
84	88	1
0	0	1
92	92	1
136	139	1
48	48	2
55	83	1
26	183	2
138	139	2
128	129	1
165	166	1
11	12	1
113	117	1
19	33	3
65	81	1
33	35	1
87	88	1
127	128	1
22	149	1
155	170	1
83	83	1
156	158	1
184	185	1
35	35	1
39	98	1
60	62	1
82	82	1
63	63	3
28	70	1
20	45	1
118	119	1
130	143	2
