217	217	11
236	236	14
119	120	10
230	230	6
197	197	8
71	72	1
85	85	2
100	100	7
97	98	9
154	154	6
157	158	3
232	237	1
187	187	7
4	4	5
34	35	1
197	215	1
12	12	1
62	97	2
161	162	6
171	171	16
199	199	10
10	22	2
14	48	3
86	86	1
28	28	7
113	115	2
115	115	9
63	63	6
205	205	15
11	22	1
182	182	3
172	175	2
44	44	7
208	209	6
152	154	4
179	184	4
31	32	3
80	86	2
97	97	8
145	147	3
238	238	7
245	246	2
237	241	5
218	237	1
69	69	8
180	180	8
46	46	9
35	36	5
155	156	6
210	210	10
53	54	1
150	150	7
53	53	14
94	94	11
48	48	6
1	227	4
177	177	18
152	152	6
172	174	3
82	82	9
183	210	2
241	241	10
186	186	9
75	76	4
62	63	3
165	166	12
159	159	4
167	169	1
192	195	3
110	110	5
213	213	8
223	223	7
51	66	3
6	6	6
238	239	6
195	200	2
207	212	1
7	7	1
172	172	9
211	213	1
203	203	13
174	174	11
166	166	15
116	116	5
158	158	10
74	104	1
82	86	7
70	70	9
111	112	2
201	201	12
25	25	9
63	68	3
37	38	6
24	24	3
176	176	5
20	22	2
163	163	2
52	52	6
198	207	2
101	118	1
101	115	2
198	211	4
57	60	3
178	178	8
103	103	6
51	51	6
167	168	8
56	56	21
62	62	7
176	192	4
85	218	2
9	9	8
85	86	5
190	195	2
200	200	8
78	104	1
17	17	12
117	117	18
87	87	7
215	218	2
31	31	9
157	157	6
73	74	7
94	219	2
245	245	4
47	48	11
189	190	1
9	17	3
38	38	3
165	167	1
194	195	3
116	120	3
41	41	15
113	114	6
211	211	5
68	70	2
235	235	11
114	114	9
207	207	10
204	204	17
218	218	5
99	99	4
187	188	2
208	208	7
39	41	6
209	244	2
149	164	2
20	20	6
197	198	4
4	20	3
92	92	16
189	189	9
168	168	10
162	201	4
153	153	7
62	203	5
164	169	6
233	233	18
36	36	4
72	72	1
47	47	8
30	30	4
79	79	5
82	117	3
113	113	7
60	62	2
16	16	4
78	83	2
226	228	4
105	107	5
191	192	1
193	194	10
114	116	1
167	170	2
193	196	4
86	112	3
75	83	1
210	216	2
55	55	5
237	237	8
109	109	15
120	144	2
100	101	8
175	191	7
183	183	9
44	45	3
172	173	9
60	87	4
54	54	11
173	175	2
240	240	23
167	177	3
77	77	5
201	202	4
94	218	3
58	58	7
200	209	1
195	199	3
164	164	8
218	219	2
232	232	7
80	80	6
77	85	4
178	200	1
105	113	2
49	50	9
28	157	5
37	37	6
221	221	8
191	191	6
93	93	1
212	212	4
73	75	6
49	49	9
216	216	9
88	97	1
101	101	2
91	92	4
247	247	4
176	178	2
71	71	15
59	68	6
14	14	4
18	19	3
177	233	1
19	19	2
229	230	5
18	18	8
111	111	3
168	170	1
35	35	7
27	27	3
49	66	5
91	91	5
61	61	5
179	188	6
202	202	4
96	100	2
107	107	3
231	239	3
151	151	11
176	182	4
155	155	10
213	215	3
42	43	2
48	50	2
73	76	2
96	96	8
83	83	3
160	161	3
221	222	4
156	156	14
227	227	2
96	99	2
169	169	7
37	54	1
101	103	2
168	174	3
11	21	1
168	181	2
20	21	1
64	100	3
75	107	1
195	195	11
239	240	1
161	161	2
21	21	9
70	73	1
97	100	3
74	76	4
48	49	2
217	218	7
40	42	6
246	246	5
14	17	2
236	240	2
118	118	5
145	152	1
2	34	7
81	81	4
38	51	2
184	184	11
49	88	1
184	190	1
239	239	3
215	215	5
198	198	8
173	174	2
51	53	1
71	107	2
60	79	2
198	200	1
163	165	5
27	28	4
78	78	2
55	67	3
39	40	2
114	115	1
94	95	6
76	116	2
33	33	7
66	81	2
145	145	1
2	3	2
59	60	7
209	209	9
108	108	7
243	244	2
57	57	6
201	203	1
175	177	3
17	20	1
73	73	4
191	195	2
54	55	1
75	75	6
175	176	1
21	32	1
169	182	1
205	206	1
167	167	10
170	174	4
69	70	2
59	67	1
78	79	2
5	34	5
157	160	1
1	1	5
79	118	2
8	50	1
174	189	3
15	18	1
78	217	2
170	170	10
227	229	1
234	234	4
182	184	1
101	102	8
3	4	2
11	20	3
168	175	3
180	186	3
40	40	7
89	89	5
165	165	7
52	53	4
43	44	2
195	198	1
96	98	4
202	204	3
213	214	3
214	214	6
111	237	3
5	5	2
38	39	5
74	74	5
112	112	6
160	160	8
181	181	7
216	217	2
69	71	5
227	228	4
160	212	1
66	66	2
188	188	4
163	164	2
212	213	4
50	65	1
145	153	2
174	191	2
10	10	7
71	106	1
28	158	1
206	213	1
216	218	1
152	153	6
95	95	3
85	91	1
184	188	2
24	25	3
190	194	3
107	108	3
77	82	2
76	84	2
105	105	5
6	7	4
189	191	1
19	20	3
102	102	4
33	34	1
80	82	3
106	107	2
67	67	10
67	75	2
159	160	2
64	64	2
175	183	2
149	149	1
86	95	4
109	113	4
11	11	1
161	226	1
117	120	2
95	96	2
190	191	2
14	119	4
29	29	6
231	231	3
77	109	2
45	45	7
224	224	5
222	225	4
63	64	2
144	144	4
87	89	1
69	247	1
217	242	1
147	147	5
66	82	3
68	92	1
179	181	2
98	98	3
10	21	2
71	214	4
182	183	4
236	244	2
219	219	6
209	210	2
69	74	2
171	173	1
170	171	2
8	10	3
45	53	1
60	60	8
156	157	2
230	236	1
220	220	8
231	243	2
185	185	4
248	248	3
119	119	4
166	177	2
198	199	4
78	82	5
179	179	7
90	90	10
175	175	5
79	120	1
92	93	3
61	64	2
188	200	2
46	52	4
57	61	3
234	235	2
196	196	2
193	193	2
242	242	2
181	184	4
179	180	2
65	65	3
81	82	3
22	22	2
173	173	2
55	57	4
160	230	2
68	68	4
115	242	1
219	247	1
26	26	6
8	8	2
109	110	2
83	119	1
23	23	4
228	229	5
53	113	2
102	106	1
169	171	2
3	3	2
115	144	1
146	153	3
71	248	1
68	84	1
56	66	2
79	119	1
179	190	1
43	43	6
25	27	2
102	111	1
78	91	1
154	155	4
3	7	1
37	240	1
171	181	1
178	184	4
105	152	1
170	176	1
169	181	1
116	117	4
34	60	2
214	215	1
188	189	3
194	199	1
222	222	2
203	206	1
151	152	1
15	16	2
117	118	1
235	236	1
207	208	1
51	52	1
67	68	1
110	111	2
22	23	1
113	116	3
178	182	1
229	229	3
63	70	1
233	237	3
111	244	1
203	204	2
106	106	2
194	196	2
246	248	2
50	66	1
10	11	1
28	201	1
58	59	2
151	154	2
75	217	1
211	243	1
206	207	3
87	88	3
45	46	1
32	32	8
223	224	2
118	119	2
104	104	2
226	226	2
186	219	2
92	94	1
90	91	1
70	92	1
218	220	1
4	18	1
192	210	2
146	152	2
120	120	1
3	20	1
57	58	3
84	84	2
57	64	1
71	247	1
81	109	1
244	244	3
210	244	2
88	88	1
18	20	3
53	55	3
29	30	1
244	245	2
11	12	2
182	188	5
187	191	1
243	243	2
65	82	2
171	175	2
32	35	1
26	27	1
41	55	2
189	192	2
220	224	1
169	175	2
77	78	2
187	194	2
173	182	1
166	167	2
30	199	1
170	199	2
199	200	1
191	193	1
208	245	2
177	183	1
61	78	1
199	229	1
61	62	1
52	89	1
236	239	1
118	120	2
88	89	2
239	243	1
190	190	2
226	227	1
64	65	1
153	154	1
164	165	1
47	50	1
238	241	1
168	169	1
176	177	1
150	151	1
116	239	1
66	78	1
219	236	1
5	12	1
30	35	1
240	241	1
40	41	1
218	233	1
221	223	1
178	183	1
95	98	1
247	248	1
68	69	1
76	78	1
63	89	1
67	69	1
39	39	1
197	207	1
225	225	1
13	50	1
205	207	1
238	240	1
37	249	1
196	200	1
59	59	1
42	42	1
216	234	1
49	51	1
