99	99	13
23	23	9
32	32	19
4	5	5
2	2	9
25	86	6
12	12	18
16	18	6
85	85	19
73	73	27
98	99	6
100	101	4
25	48	3
29	29	18
46	46	29
122	124	2
126	126	17
77	77	18
82	82	19
37	37	11
64	64	18
119	119	15
69	69	7
46	47	16
86	91	2
78	78	17
26	81	2
81	81	22
62	63	2
89	89	4
10	10	17
20	59	5
111	129	2
34	34	10
28	91	3
47	47	23
125	125	6
20	20	17
21	21	13
90	90	10
60	60	17
21	38	3
108	108	7
0	3	2
31	35	2
111	112	6
92	92	16
71	71	11
77	82	2
61	61	16
33	34	7
129	130	17
31	32	8
4	4	21
49	49	15
107	130	5
86	86	17
68	72	8
29	49	3
96	98	2
35	68	4
5	91	1
13	13	14
70	70	18
36	36	17
130	131	6
31	31	17
16	16	24
128	128	12
83	83	15
23	26	8
6	6	33
101	102	4
75	75	20
35	35	19
35	47	3
103	104	7
20	21	14
76	76	15
64	65	2
74	74	13
5	5	21
13	14	8
27	32	2
115	116	5
35	36	9
94	94	44
20	22	4
41	116	4
100	100	18
1	1	7
23	25	6
125	132	3
90	92	4
26	78	2
12	14	8
76	78	2
5	6	9
1	2	7
93	93	21
95	95	16
96	99	6
24	82	5
44	45	5
68	68	16
44	44	8
24	26	5
105	105	8
101	101	36
108	121	4
38	38	7
120	120	6
65	65	7
111	111	12
112	112	14
14	14	25
62	62	27
79	79	20
9	10	13
19	19	18
107	110	1
118	118	13
72	72	29
107	107	10
11	13	4
79	80	6
6	7	18
27	27	40
68	69	5
120	121	4
24	25	12
34	35	6
76	77	5
113	115	1
97	99	9
73	74	7
57	57	12
84	84	23
27	93	1
110	129	1
86	87	3
102	102	8
84	86	3
22	24	4
7	27	2
45	71	1
48	48	6
103	105	6
39	39	12
25	25	21
35	74	2
60	63	1
42	42	8
20	134	5
76	86	1
32	33	5
13	44	4
22	36	1
56	57	3
87	100	4
99	100	4
7	31	1
18	32	4
22	23	4
28	98	2
47	48	4
61	62	6
124	124	11
27	29	4
88	88	7
17	34	6
23	122	1
8	8	13
26	47	4
3	3	13
24	24	7
19	60	9
46	62	1
67	67	6
121	121	8
11	11	29
9	9	25
56	56	16
4	13	3
104	133	2
95	96	15
36	37	6
24	110	1
63	63	15
32	81	5
10	117	1
67	68	6
84	85	9
19	117	3
98	98	12
70	71	7
91	95	1
108	109	5
30	30	15
18	33	6
69	72	2
24	120	2
18	18	9
82	83	6
71	72	4
66	66	30
27	28	15
26	82	4
19	23	2
77	116	1
8	19	1
17	17	6
82	84	3
26	26	30
69	70	7
117	117	10
48	58	2
6	91	1
114	114	14
15	41	1
38	39	7
85	86	2
94	95	6
21	59	2
117	118	6
17	18	6
25	87	1
39	40	4
97	98	4
115	115	14
123	123	16
104	107	2
43	43	6
80	81	4
45	45	13
61	75	4
13	45	1
26	92	6
16	42	9
112	113	3
7	8	4
26	94	1
29	60	4
7	7	25
80	80	14
111	126	2
8	35	2
16	17	8
74	125	2
97	97	6
104	105	3
11	93	7
125	126	8
3	33	1
39	41	3
18	21	3
25	26	7
9	116	2
45	89	1
36	38	3
124	126	2
15	16	12
14	15	4
41	57	3
15	15	17
129	129	13
36	81	3
6	85	2
57	58	7
122	123	7
59	59	10
37	82	1
18	19	11
29	30	8
116	116	19
26	27	9
20	33	3
4	78	2
107	109	2
14	44	2
50	50	2
113	113	7
37	42	1
133	133	6
96	97	5
93	98	2
49	51	5
74	124	4
8	9	6
65	66	7
106	106	6
66	67	4
131	131	9
36	41	2
91	91	9
64	68	1
106	107	3
33	33	15
117	119	4
93	95	3
0	0	1
80	82	5
33	35	2
20	112	2
28	28	12
126	129	1
28	29	6
18	61	1
109	110	2
109	125	6
3	4	2
55	55	2
93	113	3
75	85	1
32	47	3
35	45	3
66	83	2
124	125	5
61	76	1
11	67	3
48	49	3
17	19	1
88	95	1
92	93	5
86	122	2
49	58	4
96	96	13
21	35	1
45	46	6
87	87	8
58	59	3
8	11	1
13	118	3
94	96	1
103	103	7
58	58	10
4	32	2
10	11	3
107	129	2
24	58	3
20	74	2
6	86	1
11	116	3
62	72	8
123	124	7
37	60	7
93	99	1
27	92	2
60	81	3
81	82	5
26	48	1
11	117	1
132	132	8
62	70	1
67	69	4
74	75	10
32	45	1
19	36	2
93	94	1
86	100	1
110	111	2
77	81	2
12	13	8
4	26	3
130	130	5
14	16	1
58	60	1
110	112	4
20	120	1
92	94	2
8	36	2
60	82	2
66	85	4
25	121	1
4	31	2
41	42	2
72	73	4
122	122	11
82	102	2
34	77	1
22	30	1
119	120	2
63	64	5
24	101	1
47	99	1
27	30	1
10	12	4
45	70	1
126	127	3
83	84	4
6	18	4
112	126	3
27	37	2
37	81	1
118	120	3
26	93	1
21	44	1
95	100	4
11	114	2
45	54	2
78	82	1
88	91	2
28	79	1
23	24	4
29	62	3
114	130	2
7	90	1
68	71	2
15	43	3
87	95	5
37	57	3
22	22	6
21	22	2
105	107	3
88	89	4
41	115	3
7	131	3
45	62	1
94	99	4
102	104	2
40	56	1
19	32	2
5	30	1
27	97	3
102	103	4
8	10	4
11	62	1
13	47	1
127	127	4
121	123	1
32	35	1
87	93	2
39	84	3
95	101	3
112	125	1
100	127	3
14	74	3
90	91	6
77	78	6
27	96	3
18	36	2
104	104	10
32	34	1
25	44	2
56	58	3
8	114	2
113	116	2
114	115	2
94	100	2
15	24	1
75	76	7
42	43	2
6	30	1
36	77	1
6	83	1
123	125	2
24	27	3
60	61	4
87	88	1
96	100	1
83	101	1
109	109	4
42	56	2
97	102	1
127	132	1
110	110	7
79	81	4
48	62	1
104	132	1
94	101	1
5	16	1
6	16	1
106	131	2
109	126	2
127	133	1
43	44	5
85	121	1
40	40	2
11	45	3
131	134	1
36	42	1
103	107	1
55	56	3
3	66	2
6	9	1
23	74	1
25	34	1
4	79	1
128	129	1
26	31	2
0	123	1
107	111	1
82	126	2
38	115	1
82	128	1
63	65	3
42	59	2
11	112	1
1	102	1
84	101	2
26	119	1
48	93	1
5	99	1
24	86	2
17	32	1
33	77	2
40	43	1
27	79	1
10	61	2
85	98	1
2	102	2
75	77	1
27	78	1
36	48	1
22	25	2
21	80	2
41	43	1
70	72	3
113	114	1
25	93	2
25	28	1
25	80	2
27	47	2
103	108	1
2	24	1
78	81	1
110	126	1
21	58	1
8	39	2
81	127	1
125	128	1
38	41	1
13	46	1
28	82	1
102	106	1
15	34	2
42	58	1
20	62	2
62	69	1
28	68	1
7	13	1
20	118	1
15	36	1
134	134	1
9	70	2
12	69	1
47	94	1
61	72	1
45	72	3
21	57	1
46	49	1
47	93	1
97	101	1
81	83	2
57	59	1
16	59	1
128	130	2
47	61	1
128	134	1
37	48	1
22	35	1
35	75	1
20	42	1
42	60	1
78	80	1
3	77	1
126	134	2
45	49	1
109	127	1
4	29	1
8	20	1
5	13	1
25	47	1
56	60	1
19	20	1
38	40	1
11	32	1
13	99	1
2	120	1
54	57	1
