47	47	22
199	199	23
71	71	34
197	197	14
4	5	8
14	69	3
183	183	19
169	236	4
200	202	2
73	73	13
157	158	11
178	178	29
178	179	12
167	173	2
85	85	21
9	9	30
239	239	21
15	15	19
28	28	31
50	50	16
11	11	39
225	226	2
194	194	19
66	66	25
230	230	12
193	194	10
47	48	17
25	25	7
221	221	44
63	221	1
238	239	9
159	159	25
7	7	24
177	233	1
79	79	13
220	220	24
157	159	2
63	63	29
87	87	7
54	54	39
190	191	16
209	210	2
59	59	25
75	77	4
153	179	1
65	105	7
196	196	35
244	244	39
199	201	2
173	173	23
8	8	25
180	180	39
175	175	26
214	215	20
217	243	3
179	180	5
54	55	18
205	206	3
119	119	30
77	77	42
74	74	20
243	243	21
212	212	38
195	195	42
160	160	40
57	58	13
49	72	4
108	236	2
200	200	45
187	187	22
167	167	25
75	75	21
16	17	4
99	100	11
26	26	23
35	35	38
232	234	6
222	229	3
198	198	29
169	170	18
86	92	4
39	39	25
27	27	40
100	101	6
150	150	19
90	94	3
72	86	3
229	230	8
81	81	25
168	169	12
10	10	20
89	89	31
34	35	6
172	172	27
176	176	19
215	216	6
49	49	39
166	166	19
38	38	23
44	44	29
104	105	10
120	120	22
171	172	8
69	70	13
174	174	31
32	32	35
12	54	2
111	111	17
114	115	19
113	114	7
25	26	18
108	108	14
22	22	20
39	40	11
79	80	6
62	62	22
68	208	1
58	59	7
199	200	7
92	92	22
224	224	34
13	13	5
228	228	25
48	48	38
236	236	37
71	76	1
50	244	2
51	51	27
180	190	1
201	201	35
102	102	14
150	209	3
170	170	32
77	78	19
101	112	1
209	209	31
239	240	17
64	64	29
180	183	1
190	190	17
73	74	5
234	234	14
233	233	30
152	153	5
147	147	8
219	219	36
72	72	11
113	113	29
240	240	24
67	72	4
159	160	15
205	208	2
237	237	17
57	63	12
106	107	7
76	76	37
63	64	4
42	42	25
45	45	26
177	232	2
42	53	3
55	59	8
78	78	18
70	70	23
55	55	17
171	171	33
156	156	40
58	62	9
47	50	6
97	97	26
222	223	14
69	225	4
20	35	3
177	178	10
61	63	4
242	243	7
72	73	20
114	114	15
16	16	29
164	164	23
105	106	3
37	37	22
184	184	18
165	189	2
231	231	19
26	41	2
96	96	26
2	2	13
52	53	13
41	41	20
100	176	2
186	188	1
151	151	49
18	18	17
52	52	15
5	6	11
192	193	8
230	231	6
2	23	3
214	214	28
182	182	35
15	49	1
215	215	11
206	206	12
69	69	20
185	189	3
112	112	40
86	87	6
210	212	3
247	247	21
101	101	20
28	29	13
226	228	8
187	188	8
17	17	23
94	195	2
168	168	23
197	198	6
210	210	18
108	109	9
220	221	14
241	241	30
177	177	21
217	217	31
204	204	28
166	170	1
14	15	21
1	2	8
6	31	2
90	90	22
227	227	26
15	68	7
234	235	5
157	157	23
110	110	19
21	81	3
17	28	7
64	73	3
99	99	9
180	182	3
46	46	17
242	242	24
59	246	5
200	201	18
4	4	8
158	160	2
87	98	1
193	193	21
172	173	9
31	31	33
78	79	6
56	57	16
62	77	7
186	189	6
181	182	6
37	225	1
94	95	13
186	186	29
165	165	24
67	67	18
94	94	20
109	110	16
24	24	14
110	240	4
64	65	4
202	205	5
33	36	6
22	23	13
152	180	1
228	229	10
5	5	13
33	34	11
157	172	3
86	86	22
30	31	8
80	82	3
57	57	27
36	36	23
223	223	11
98	99	9
232	233	10
84	85	5
232	232	16
49	50	16
246	246	34
2	8	3
248	248	17
205	205	30
100	100	26
229	229	25
189	190	22
65	65	26
115	115	27
210	211	13
156	206	1
84	92	2
221	222	9
105	105	9
43	43	21
208	208	34
156	157	7
21	21	21
169	238	2
185	185	36
148	149	3
223	225	8
202	202	33
30	30	21
96	181	1
222	222	13
175	191	5
48	49	13
155	155	34
144	144	2
35	40	2
188	188	10
231	232	5
154	154	17
63	78	4
240	241	14
236	238	10
146	146	12
184	216	3
171	193	4
189	192	6
70	71	3
235	235	23
93	93	23
34	37	3
96	97	7
237	242	2
195	196	9
163	164	14
161	163	1
23	35	3
44	45	15
213	213	17
47	49	4
236	237	17
181	181	27
165	167	7
247	248	10
204	205	10
53	53	23
97	99	6
112	113	6
214	238	4
188	190	6
119	120	5
74	231	5
162	162	23
107	107	13
166	169	7
54	57	3
226	226	21
211	211	17
6	6	22
68	68	17
81	83	8
76	77	15
40	41	7
99	101	2
232	236	4
186	187	5
194	197	3
238	247	4
88	90	1
42	44	2
20	214	5
95	95	28
172	182	1
150	207	2
117	117	20
116	116	39
34	67	6
48	50	5
3	3	8
182	184	3
225	225	16
207	207	38
199	215	1
91	91	21
3	4	7
163	166	3
83	86	7
119	195	1
149	149	6
12	12	16
58	58	23
14	14	27
65	67	2
179	184	1
62	78	4
183	184	8
34	34	13
88	88	18
181	208	3
179	179	28
61	80	1
60	60	24
84	84	24
153	153	23
159	166	3
33	33	13
103	103	7
58	64	3
245	245	24
212	213	9
219	220	3
62	223	1
166	167	7
187	190	2
152	152	11
47	51	3
40	40	13
83	83	8
85	86	9
115	116	13
158	158	11
221	229	2
37	247	2
197	219	1
157	173	1
185	223	2
167	168	5
197	199	7
121	145	1
82	84	1
43	57	3
8	52	1
19	19	25
41	63	3
74	77	2
64	67	3
111	152	1
11	12	5
95	96	6
116	118	6
109	109	15
43	44	11
168	211	2
54	56	1
236	242	2
69	98	2
182	183	18
193	195	1
206	207	19
194	195	26
165	184	4
176	177	8
217	218	11
108	240	2
118	119	11
203	203	21
192	197	3
191	196	3
26	27	13
120	164	1
245	246	25
235	236	5
6	7	7
149	178	1
43	51	3
216	216	13
21	22	12
120	145	1
218	218	14
20	23	3
93	94	10
162	163	9
169	169	18
243	244	8
238	238	23
51	52	16
207	235	1
153	154	6
153	196	1
117	118	6
90	93	1
249	249	3
187	192	3
23	23	30
117	248	1
185	186	2
168	170	1
201	230	4
98	98	14
179	241	3
46	47	5
189	191	2
248	249	3
80	95	4
18	19	12
153	158	1
191	192	5
145	145	14
172	186	2
97	98	10
80	80	9
203	220	1
58	76	1
203	205	7
208	209	17
18	39	2
178	235	2
236	240	1
202	204	4
87	88	10
91	93	2
91	92	5
175	179	4
49	74	1
32	33	8
59	60	4
20	20	15
180	184	1
39	57	2
163	163	12
153	160	1
82	82	18
191	191	13
4	245	1
81	162	4
12	16	2
189	189	14
111	236	1
161	161	15
21	74	2
192	192	22
237	241	1
214	217	2
163	165	4
198	200	2
224	225	3
204	206	3
188	189	11
51	53	5
1	1	18
81	84	2
79	81	5
60	76	2
33	50	1
223	224	8
24	33	5
203	204	4
167	169	2
164	166	2
118	118	21
173	174	12
61	61	19
64	66	2
4	216	2
226	227	10
207	212	1
12	33	3
233	238	1
161	162	6
56	56	22
29	30	7
199	202	3
90	91	10
213	214	13
29	29	26
22	26	3
20	213	5
47	58	1
29	244	4
38	39	10
244	247	3
36	46	4
167	226	1
5	20	3
165	183	4
173	183	3
89	90	15
164	188	3
80	81	11
152	176	3
66	67	5
104	104	4
35	48	2
35	36	5
112	118	1
222	230	7
111	209	1
11	41	1
216	222	3
182	185	2
183	215	1
147	152	1
200	243	2
103	104	2
246	247	7
82	162	2
175	176	8
144	145	3
82	83	3
16	230	1
230	243	4
106	106	11
41	42	6
222	225	1
239	242	1
192	196	6
33	69	2
182	219	1
114	116	5
10	213	4
29	32	2
6	8	2
193	209	3
203	228	1
213	215	10
68	70	6
7	229	3
67	68	10
14	16	1
153	157	2
62	93	1
152	166	2
155	156	7
161	179	2
83	84	9
237	238	13
150	155	1
55	57	4
164	187	1
202	203	10
244	245	16
0	7	4
168	172	4
34	39	1
29	53	1
88	107	2
53	198	2
213	242	2
163	168	2
176	190	1
170	171	4
47	53	2
241	243	2
119	157	2
45	46	10
57	77	3
10	19	2
19	41	3
172	174	8
170	227	5
206	209	2
36	39	2
50	52	4
215	239	2
75	76	4
8	9	2
26	203	2
8	37	2
120	144	1
190	192	7
23	31	2
244	246	3
154	179	4
4	38	5
69	239	2
167	185	3
47	57	3
243	245	9
1	5	2
145	153	2
203	212	1
193	199	2
146	147	2
69	96	1
165	166	6
117	119	2
14	34	2
72	74	5
158	168	1
234	244	3
3	30	5
10	11	7
196	210	1
180	200	1
10	29	1
0	0	2
110	112	2
159	176	4
56	65	3
10	173	2
179	243	1
24	25	8
43	45	9
3	57	4
62	63	9
220	222	4
172	178	2
201	202	2
89	95	4
3	244	3
233	234	4
65	66	7
224	233	2
107	108	7
225	235	2
109	221	2
60	62	5
92	104	1
45	53	2
60	78	4
28	201	1
116	117	1
236	248	1
178	185	2
4	19	3
211	237	1
59	64	2
214	218	3
181	238	2
159	165	1
155	196	3
34	49	2
42	43	4
88	167	1
65	72	2
35	38	3
64	70	1
19	35	3
185	203	1
198	199	5
227	228	7
32	237	1
88	95	2
157	168	3
42	159	1
173	178	2
21	23	3
9	10	6
31	32	4
31	72	2
55	81	2
17	18	3
216	218	2
10	15	4
61	85	1
8	235	2
66	71	8
188	198	1
89	99	1
90	167	5
160	208	4
187	189	6
207	222	2
207	244	3
47	246	4
23	25	1
19	20	6
231	234	4
206	208	2
82	156	3
210	213	2
59	63	1
60	173	1
39	197	4
177	180	6
165	173	1
36	44	3
187	219	2
61	62	6
55	56	10
147	170	5
27	28	5
97	109	2
177	192	1
153	172	1
164	169	2
77	149	1
36	37	3
28	165	1
61	64	3
13	14	2
209	211	4
72	84	1
34	56	2
187	191	1
40	54	2
3	5	2
195	199	2
238	245	7
59	61	1
218	231	2
6	11	1
222	238	2
73	75	4
13	15	1
164	165	3
95	98	3
109	240	2
57	60	1
56	73	2
67	155	1
170	179	3
192	198	1
240	243	1
173	185	2
20	22	1
58	71	3
113	116	1
186	222	6
38	40	7
52	57	1
15	16	4
32	54	2
34	48	2
67	71	2
185	221	4
153	225	1
77	82	1
111	112	4
78	81	4
157	170	2
184	223	1
85	96	2
86	110	5
2	3	4
82	91	2
164	168	1
227	230	3
70	72	1
58	60	1
154	156	7
214	219	1
216	217	3
231	235	1
229	233	2
24	214	2
82	100	2
71	84	4
152	177	3
152	165	2
233	240	2
60	64	1
212	234	5
48	56	6
211	214	1
20	44	2
160	209	3
26	85	2
86	94	2
11	14	2
205	207	3
70	239	2
121	121	2
167	186	4
34	62	2
53	54	3
86	88	3
233	235	1
70	107	1
186	193	2
95	108	1
42	45	1
168	194	2
158	177	1
77	167	3
15	59	4
152	160	4
7	8	1
71	72	3
181	184	3
28	200	2
156	159	1
159	177	6
209	214	2
227	229	1
30	71	3
56	94	3
198	219	2
194	199	3
29	246	1
30	48	1
10	17	4
207	220	1
74	79	1
5	7	1
76	170	2
241	242	6
86	90	4
42	204	1
4	239	3
10	33	2
149	151	1
22	24	5
202	209	2
180	208	1
101	102	5
76	78	4
229	246	3
37	38	5
203	206	1
18	212	3
34	239	2
160	163	1
59	62	1
242	246	2
41	227	1
18	20	1
106	118	2
77	81	3
146	157	4
184	197	2
211	212	7
48	114	1
179	181	2
79	105	4
17	19	2
5	22	1
63	73	1
73	92	2
102	106	3
66	77	4
29	31	2
212	215	1
168	199	3
119	213	1
68	69	1
40	52	1
215	217	2
158	172	1
75	84	2
198	212	3
40	63	1
117	221	2
25	29	2
49	51	1
212	220	2
12	13	6
187	197	1
40	93	2
183	192	2
15	240	1
234	240	3
34	58	1
185	222	1
166	168	1
69	94	2
169	205	1
205	209	1
175	210	3
146	170	3
68	79	2
40	47	1
99	150	3
196	197	3
235	240	1
218	244	1
118	120	2
240	248	4
180	181	4
218	219	5
89	107	1
164	167	2
177	181	2
201	214	3
213	216	1
109	162	1
240	242	1
90	156	1
5	29	1
90	92	1
26	33	1
29	54	1
74	78	1
190	195	3
42	55	2
221	225	4
192	211	1
165	186	1
5	30	2
241	245	3
200	205	3
166	184	1
74	199	1
239	244	3
81	152	1
33	46	2
93	193	1
239	247	1
5	69	2
216	224	1
4	6	2
207	208	3
5	242	2
51	54	2
22	42	1
69	71	2
77	85	1
22	154	2
74	76	2
175	177	1
184	189	1
181	185	1
55	72	2
37	39	1
109	112	2
183	194	2
242	244	3
35	49	2
214	220	2
165	188	2
188	200	3
167	234	1
26	92	1
247	249	4
30	70	1
166	177	3
108	110	1
159	234	1
175	178	2
58	61	2
31	48	1
20	21	5
165	168	1
150	186	2
85	95	2
147	168	1
96	99	2
36	45	1
4	25	1
81	100	1
81	102	1
59	169	2
187	193	1
171	173	2
239	245	1
4	18	1
3	15	1
173	189	1
174	175	2
22	46	1
240	245	1
53	168	2
209	217	1
78	80	1
74	75	3
213	244	1
120	156	2
196	199	1
208	212	1
119	192	1
77	79	2
51	59	1
35	51	1
65	73	2
181	192	2
239	241	1
51	55	1
211	217	1
46	180	1
79	83	1
39	47	2
110	111	1
158	159	1
151	152	3
153	171	1
156	167	1
60	61	3
114	118	3
194	198	2
198	202	2
157	177	1
96	105	2
177	247	2
208	236	2
207	211	1
2	30	2
22	232	1
51	56	1
162	164	1
220	223	2
102	103	1
46	165	1
39	97	2
162	165	1
99	181	1
154	155	1
16	20	1
23	43	4
4	17	1
45	55	2
107	120	1
118	157	2
32	206	1
211	213	1
42	174	1
30	47	1
175	190	1
82	85	2
152	170	1
106	108	2
87	97	1
8	227	1
183	211	1
37	47	2
9	15	1
211	236	1
0	1	3
212	235	2
205	210	1
234	246	1
180	191	1
71	73	1
62	82	1
115	144	1
2	5	3
98	109	1
37	216	1
79	85	1
176	178	1
110	234	2
66	81	1
183	203	1
194	242	1
41	55	1
41	58	1
28	52	2
160	161	1
35	238	1
111	244	1
81	88	1
228	231	1
155	213	1
152	210	1
1	4	1
210	221	1
174	185	1
172	175	1
218	241	1
15	244	1
201	205	1
86	96	2
220	231	1
147	153	1
44	54	1
18	184	1
80	162	1
36	183	1
216	240	1
10	12	2
81	82	2
2	38	1
224	229	1
223	228	1
212	216	1
184	210	1
56	71	1
98	107	1
15	78	1
17	225	1
111	245	1
47	61	1
238	240	1
236	247	1
109	111	1
72	200	1
120	158	1
57	59	4
221	223	1
87	99	1
169	228	1
92	93	1
76	166	1
177	182	1
5	182	1
246	248	1
203	225	1
188	192	1
155	198	1
