13	37	4
109	109	16
26	34	1
73	102	10
95	95	23
108	109	15
61	61	32
100	100	28
123	123	16
13	14	8
50	50	29
94	95	11
98	99	12
127	128	20
78	79	12
6	7	8
62	64	18
62	82	6
7	7	20
112	114	6
55	55	28
16	16	20
89	89	17
125	125	18
9	9	20
124	124	30
73	74	20
116	118	6
4	4	15
43	43	24
3	4	19
26	26	20
130	131	4
71	124	3
20	20	11
5	5	12
97	97	11
24	24	22
133	133	37
54	54	28
118	119	6
123	124	11
62	62	19
126	128	10
7	8	10
60	60	43
114	124	4
53	54	9
44	44	26
19	66	2
89	101	3
27	65	2
91	91	19
69	82	5
104	104	22
28	123	1
23	23	19
127	127	23
13	13	36
81	81	18
77	77	14
84	84	14
11	13	3
115	115	24
90	90	16
57	59	6
43	45	6
76	76	37
57	57	11
74	74	25
31	34	14
111	112	14
70	70	32
128	129	9
75	76	10
131	131	16
105	105	39
111	111	40
125	127	7
47	48	2
117	117	36
99	99	15
77	80	7
79	79	8
53	53	31
108	108	9
91	92	13
103	103	39
79	80	9
2	2	22
64	64	28
101	102	2
27	27	22
112	113	11
33	33	14
49	50	12
113	113	29
63	63	26
45	45	14
80	80	37
63	69	1
72	72	12
116	116	38
61	91	3
105	106	12
116	117	9
88	88	15
93	94	14
22	23	15
86	86	21
120	121	11
107	111	1
105	120	6
112	112	31
65	69	3
82	82	22
29	29	9
20	21	6
97	99	6
35	35	17
65	65	18
38	38	4
64	65	20
2	4	3
66	68	7
122	122	21
34	34	13
89	99	2
134	135	6
73	73	42
76	78	7
66	66	24
106	106	26
96	96	19
129	130	17
79	81	1
130	132	5
124	129	1
72	133	8
130	130	27
32	34	1
106	108	3
60	62	3
77	78	10
0	5	5
44	45	8
36	36	10
30	30	12
59	64	1
103	104	15
69	69	21
107	107	14
101	101	26
29	30	3
93	93	21
111	116	3
102	102	27
87	88	9
113	115	6
56	68	1
84	91	4
52	52	27
14	15	11
73	93	1
97	98	6
23	28	2
61	62	10
12	12	6
98	102	7
75	79	6
31	31	19
59	59	22
127	129	10
83	84	7
67	68	9
14	14	28
128	128	14
89	90	13
125	128	2
114	115	11
58	58	13
5	34	1
30	129	3
134	134	10
107	108	15
113	114	7
109	110	9
18	18	15
53	61	4
15	15	20
6	6	6
120	120	32
72	73	12
35	36	7
92	121	5
87	87	20
85	85	15
1	128	1
118	118	10
82	92	9
27	28	9
19	19	6
28	28	14
16	36	3
49	49	17
80	81	6
96	120	6
78	80	1
92	92	27
124	125	7
50	53	5
71	71	16
64	121	5
104	111	6
18	19	3
32	32	12
126	127	7
82	85	5
24	25	9
129	132	4
46	47	1
79	82	3
69	101	2
68	68	10
85	86	6
81	105	2
4	6	7
71	102	7
17	34	2
19	65	6
33	34	23
65	66	14
85	88	1
86	101	1
114	114	15
1	1	6
72	75	4
104	124	2
133	134	9
21	21	14
106	107	10
121	122	7
121	121	11
54	56	15
72	90	4
42	42	1
44	69	7
125	129	10
115	116	14
119	119	25
9	10	2
17	18	9
76	80	5
8	8	15
5	6	5
31	32	4
56	58	5
129	129	10
71	125	7
84	85	1
10	11	4
56	56	9
132	133	10
98	98	28
118	120	6
3	5	3
10	10	6
75	75	7
67	69	2
125	126	7
68	69	13
63	65	4
132	132	7
57	67	5
55	56	13
107	109	6
100	101	1
94	94	9
73	133	8
58	59	2
107	123	2
1	2	4
59	60	3
102	112	4
79	87	1
77	79	4
102	104	2
15	16	2
3	6	4
14	47	3
62	66	3
71	89	1
91	93	6
12	14	3
22	22	13
104	105	9
97	101	3
21	22	2
63	94	1
23	26	4
11	12	3
98	119	2
11	11	5
62	68	3
65	68	7
30	31	9
110	110	9
70	72	7
61	64	1
66	67	2
63	68	6
91	94	2
9	44	3
71	72	2
7	35	4
71	73	11
132	134	2
112	116	3
23	25	3
99	100	5
126	126	15
17	17	16
0	1	6
47	47	8
12	13	5
78	78	10
86	106	1
102	103	13
124	126	3
86	87	10
14	36	1
8	9	8
60	61	3
0	4	3
98	114	3
25	25	13
21	52	3
0	2	3
21	23	3
83	94	1
104	120	2
135	135	8
55	60	1
81	92	1
11	43	2
16	17	3
107	115	3
88	89	9
34	35	3
110	117	2
37	37	6
93	120	1
122	123	7
115	117	2
77	92	7
18	123	1
62	91	7
16	35	3
67	96	3
76	90	2
28	29	5
43	65	1
16	18	5
13	36	4
38	44	3
18	65	2
110	113	6
69	70	21
90	91	11
62	77	3
83	85	5
96	97	6
74	75	12
95	97	1
60	67	1
94	96	2
128	130	3
36	38	4
45	53	1
23	24	10
73	75	2
69	85	4
70	71	6
2	3	1
98	120	3
0	0	12
76	91	6
97	124	4
111	118	1
99	116	3
56	57	2
55	83	1
21	122	1
54	55	4
43	47	3
16	33	1
129	131	4
83	83	4
82	83	3
60	65	2
42	43	1
63	64	4
80	82	2
110	111	1
42	45	1
119	120	5
64	77	2
29	31	1
127	133	2
36	66	6
99	117	1
12	32	1
63	76	1
6	13	1
113	118	2
36	37	3
90	94	1
115	123	5
84	97	2
87	121	3
25	26	3
43	44	3
131	134	2
5	12	2
6	12	5
90	100	2
47	57	1
131	132	4
108	119	3
64	66	1
6	8	3
105	115	2
48	48	1
119	122	2
52	53	1
90	99	1
71	133	2
101	104	3
19	20	5
110	118	2
36	43	1
51	52	3
37	66	3
12	60	2
77	121	3
61	92	1
120	122	1
58	64	1
99	112	2
79	100	4
92	93	3
62	93	2
8	11	2
114	116	2
50	52	2
26	27	1
18	22	1
111	121	1
61	69	1
72	134	2
84	86	4
6	33	2
10	35	2
2	128	4
81	82	1
117	118	3
16	34	1
1	129	5
102	105	2
128	131	2
70	81	1
25	32	2
62	63	5
108	110	2
6	35	3
44	47	3
98	101	4
129	134	1
9	11	4
85	92	1
79	85	1
44	65	3
97	120	1
72	125	1
112	123	1
111	114	1
133	135	4
17	35	3
21	95	3
110	112	3
64	79	1
18	20	1
19	21	2
4	5	5
92	94	1
32	36	1
106	111	1
27	90	1
118	122	1
3	3	4
125	132	2
119	121	1
111	113	2
44	59	1
55	57	1
90	98	1
33	90	2
72	74	1
109	123	2
49	52	1
7	16	2
59	68	1
48	49	1
59	61	3
67	82	2
70	124	1
96	100	1
97	121	1
50	51	2
72	101	1
108	118	1
86	100	1
117	122	1
125	130	1
124	128	1
117	121	1
67	100	1
105	112	1
70	125	1
53	60	1
60	93	2
100	114	1
4	34	1
99	119	1
30	32	2
132	135	2
32	96	1
8	15	1
20	26	1
87	92	1
5	33	1
32	33	1
62	74	1
75	102	1
104	121	1
19	26	1
10	36	1
52	59	1
