49	62	1
33	39	4
46	46	10
73	73	16
80	80	17
60	83	3
43	43	19
79	81	5
95	95	12
59	62	1
25	61	1
88	88	13
50	62	3
91	101	1
59	59	13
79	79	8
45	45	12
61	62	8
98	98	25
52	52	15
42	42	17
35	35	11
93	102	2
100	100	14
45	47	2
43	70	1
92	92	20
67	67	12
81	81	6
22	24	1
55	55	8
60	61	4
77	78	2
58	59	7
66	66	7
46	49	2
84	84	11
41	74	2
25	27	2
33	33	12
60	60	25
56	57	4
51	51	10
38	38	10
23	30	2
64	64	13
41	41	8
80	81	5
46	47	5
85	86	6
81	82	7
82	83	3
36	37	4
91	92	6
63	63	9
48	49	8
99	99	14
27	29	2
47	48	8
58	58	13
92	93	14
57	58	5
85	85	10
41	42	8
83	84	2
65	65	12
62	63	4
77	77	20
69	70	7
41	78	4
43	67	3
71	71	13
97	97	3
74	75	7
47	47	9
67	68	4
31	42	3
74	74	15
92	95	1
48	48	9
86	86	14
49	50	5
72	76	3
87	88	4
76	76	10
96	97	1
28	32	1
75	75	28
44	44	10
101	101	17
51	55	2
53	53	13
45	48	1
78	78	18
68	68	11
95	100	4
34	34	9
90	91	1
29	30	2
50	66	2
100	101	1
69	69	13
49	85	2
83	83	13
75	76	6
63	75	3
90	90	12
92	99	2
24	26	1
36	36	11
56	56	3
99	100	10
59	60	7
97	98	9
42	73	1
57	57	12
77	90	1
81	96	1
59	83	3
72	72	5
56	60	2
54	54	7
39	39	12
40	40	12
25	25	5
91	99	2
91	91	18
94	94	8
52	53	3
83	92	2
65	68	3
64	65	6
62	62	18
60	62	1
97	99	5
29	36	1
93	94	2
93	93	7
36	39	4
70	70	14
65	66	5
49	69	3
87	87	2
44	58	5
31	31	7
34	35	3
24	24	6
70	72	5
39	40	1
26	27	3
79	80	6
98	101	2
51	52	3
54	55	4
91	93	3
44	59	2
47	50	2
90	99	4
42	63	2
48	58	2
37	37	2
27	28	5
71	72	7
63	64	4
86	89	1
88	89	1
64	71	1
94	95	4
53	54	5
50	50	3
70	71	1
76	77	7
61	61	6
68	71	3
86	87	5
69	74	4
66	73	1
28	28	1
52	63	2
37	39	4
67	69	2
67	71	4
41	65	2
101	102	4
89	89	5
71	75	3
48	51	2
74	90	1
89	97	2
71	74	2
54	56	2
70	76	2
57	64	2
43	79	1
79	99	2
84	86	1
91	94	2
55	57	1
52	58	1
48	50	4
57	75	1
68	69	7
52	67	2
102	102	4
82	82	4
61	63	2
66	68	3
42	44	1
81	84	2
96	98	2
25	26	1
78	90	2
68	74	2
31	57	2
30	30	4
89	90	4
64	72	2
42	43	1
65	72	2
30	44	2
52	56	1
56	58	1
45	56	1
27	54	1
31	32	2
51	65	1
45	78	1
52	57	1
46	85	1
27	27	2
49	49	1
100	102	2
43	90	1
63	98	1
56	62	2
96	100	1
96	96	1
66	72	3
24	46	1
80	86	1
62	78	1
95	96	2
56	66	1
90	101	1
45	52	1
41	43	1
37	52	1
86	101	1
73	74	1
