162	162	8
30	30	11
115	115	22
213	215	3
43	46	1
52	52	12
218	222	1
99	99	14
177	177	17
176	176	23
109	109	13
65	65	2
57	58	5
201	201	14
219	246	1
184	184	31
202	203	3
78	78	15
154	154	21
173	173	24
4	37	3
176	194	4
161	165	4
167	167	20
169	169	16
175	175	19
210	215	2
40	40	18
46	103	3
192	196	2
64	64	16
203	203	25
94	94	12
100	100	14
151	151	20
55	55	16
245	245	9
42	42	8
47	47	11
156	156	15
238	247	4
187	188	13
48	96	3
65	66	9
9	10	2
205	206	5
224	224	9
185	188	7
186	189	5
102	102	10
90	90	10
172	172	15
73	73	19
20	20	14
67	67	9
191	191	15
43	43	12
78	94	1
23	24	5
58	58	9
197	197	27
93	93	11
187	187	12
55	57	3
198	198	15
161	162	7
117	117	8
38	39	2
95	100	2
178	225	1
162	163	4
215	215	6
211	214	3
241	246	2
225	225	20
78	79	4
76	111	4
185	186	4
208	210	4
165	165	18
165	166	4
30	73	2
157	157	19
6	41	1
26	101	2
170	170	11
87	118	1
174	174	7
115	116	12
192	192	16
19	20	5
8	8	19
185	185	17
146	173	1
186	186	23
44	109	2
158	158	18
171	171	9
215	218	9
111	111	12
159	159	32
84	109	1
47	101	4
220	246	4
216	242	2
161	161	12
83	83	2
28	28	10
190	191	9
6	82	1
166	166	21
199	199	22
209	214	6
35	35	9
217	218	4
159	165	3
16	16	9
57	114	2
240	240	13
24	25	1
213	214	4
11	11	19
194	238	2
94	115	1
21	101	3
171	181	2
104	104	18
91	91	9
202	220	4
156	157	2
213	213	13
183	183	17
211	211	6
155	229	4
189	193	1
47	100	1
214	214	11
80	80	9
181	181	17
26	54	1
210	224	4
180	180	20
151	171	1
113	113	14
39	39	13
75	77	4
221	222	7
74	75	5
117	118	5
79	95	1
10	61	3
23	23	19
104	105	7
192	198	2
41	41	6
158	161	2
145	145	20
202	202	15
239	241	2
247	247	21
215	224	3
88	88	18
28	31	1
210	240	3
32	95	7
146	146	4
61	65	1
237	237	21
36	36	8
31	31	11
39	40	6
104	106	4
200	241	1
47	62	1
69	73	1
77	77	9
84	84	15
114	115	5
190	193	1
178	178	16
87	87	10
155	155	21
119	119	12
104	244	2
111	117	2
15	21	1
198	199	11
232	233	3
105	105	6
56	56	13
45	45	25
170	195	5
190	198	1
164	197	1
225	226	3
193	194	6
113	114	10
115	118	2
2	3	3
50	80	5
26	27	6
19	59	7
175	184	3
16	18	1
63	63	13
97	97	4
183	230	3
59	62	3
158	165	3
218	219	13
107	108	12
174	176	3
5	5	6
160	164	4
196	197	5
5	34	2
73	99	2
62	62	13
175	178	4
241	241	6
22	22	15
40	41	4
170	203	2
101	113	3
2	2	6
208	246	2
75	75	10
241	243	4
208	208	22
18	37	3
72	72	14
220	220	14
25	25	13
65	76	2
53	54	2
152	164	1
74	96	2
204	204	12
233	246	2
219	219	5
48	82	1
150	150	17
164	207	2
85	86	5
34	37	3
61	61	6
207	207	22
238	241	4
178	179	5
195	195	13
173	174	2
110	110	9
238	238	23
87	88	8
190	209	4
17	17	6
179	180	3
71	71	17
157	231	2
12	117	2
46	85	4
164	164	15
229	229	17
209	210	4
70	70	16
16	45	3
96	96	4
33	33	7
90	91	11
95	95	7
181	209	1
190	194	6
223	223	14
212	212	9
211	212	10
16	25	3
68	68	8
4	5	10
226	226	10
213	233	1
98	117	6
73	74	7
10	10	15
48	48	13
243	244	8
3	3	9
114	114	8
153	175	1
98	101	1
233	234	14
10	15	4
208	211	1
81	81	11
118	118	12
236	236	8
46	55	4
242	242	13
175	183	4
149	191	4
209	242	11
240	241	3
190	214	3
60	60	11
70	91	3
20	61	2
200	201	3
163	163	13
234	234	4
9	9	13
12	77	2
167	168	12
214	239	2
191	195	3
6	45	2
6	6	3
239	239	7
154	164	3
161	179	4
15	17	1
178	182	5
176	178	2
194	195	4
7	7	13
59	59	14
150	207	1
107	107	7
84	93	2
146	147	6
193	193	6
216	217	4
159	169	2
235	236	3
88	89	4
82	82	3
69	71	1
230	231	2
152	167	3
214	215	11
79	105	1
3	22	3
172	173	6
55	88	3
68	116	6
1	114	1
166	167	3
82	243	1
243	243	5
179	179	10
76	76	11
24	33	2
39	42	1
111	116	4
38	38	13
59	60	4
209	209	17
182	182	15
70	71	5
42	43	3
181	235	1
244	244	24
96	97	2
95	101	3
210	219	1
5	13	1
152	152	19
195	196	14
98	115	1
48	71	3
69	69	13
37	37	6
176	231	1
49	120	3
145	147	1
164	167	3
227	227	3
176	177	7
246	248	1
20	114	3
236	237	4
226	227	4
51	89	1
51	120	2
170	171	10
160	160	13
216	216	8
1	2	8
6	21	2
21	21	10
52	57	2
29	30	10
153	153	10
209	213	2
176	245	3
46	46	4
89	89	10
72	91	4
66	67	4
147	147	9
189	191	4
185	249	3
93	94	4
78	202	2
221	221	9
110	112	2
152	171	2
172	230	2
198	200	1
159	160	2
118	120	2
106	106	8
210	210	8
171	173	1
160	167	3
82	119	2
152	166	1
48	49	1
191	209	4
205	205	5
85	120	2
218	218	12
103	103	4
30	65	7
230	230	13
191	199	3
97	98	2
219	235	2
179	213	1
228	228	9
175	234	4
72	77	1
50	73	2
185	233	2
42	154	2
85	105	2
49	50	13
46	54	1
55	56	3
91	144	2
218	221	2
186	188	4
189	189	7
108	240	1
232	232	19
12	12	6
116	116	17
152	248	4
168	168	11
217	217	5
153	154	3
151	152	2
60	76	2
171	230	5
53	53	6
111	223	3
222	222	7
55	109	2
233	233	6
242	245	3
71	72	4
21	26	2
95	96	4
106	107	6
176	242	2
47	113	2
161	163	1
112	112	19
212	214	1
23	25	1
18	18	15
174	187	3
20	49	3
204	205	1
76	77	6
203	206	3
208	209	2
20	60	1
215	219	5
14	14	7
11	117	5
207	208	1
184	214	2
246	247	3
96	101	3
238	239	7
92	92	9
190	190	12
180	183	2
175	245	5
19	35	5
152	153	1
18	20	6
199	238	3
32	32	11
98	98	9
69	91	2
34	34	7
51	51	12
26	45	3
144	173	1
37	39	4
46	102	3
173	193	1
188	189	4
24	24	8
235	235	12
4	79	1
188	188	13
180	195	3
15	43	2
27	27	2
154	165	4
62	117	1
102	103	2
78	93	1
110	150	1
48	97	1
80	81	2
56	57	2
209	216	5
16	31	1
188	195	3
194	210	3
22	37	2
149	186	3
22	38	1
77	174	6
227	232	1
180	211	1
175	176	5
248	249	3
44	44	7
35	36	1
30	57	2
201	228	3
2	42	3
155	156	1
96	117	2
88	98	3
83	101	4
66	66	8
83	103	1
18	19	5
240	242	5
192	211	2
80	110	2
15	15	5
37	38	4
109	110	4
160	165	1
247	248	5
192	195	1
214	219	4
29	29	6
94	110	2
144	144	2
15	16	1
26	61	1
158	160	2
193	212	1
68	69	5
20	118	2
120	120	11
50	50	12
85	117	6
85	85	10
6	20	4
30	31	3
46	47	3
57	57	8
152	249	6
65	67	1
64	72	3
219	221	1
206	207	3
228	230	6
177	213	4
211	213	1
79	80	9
63	64	1
14	23	2
87	120	2
223	224	3
108	108	9
222	223	1
27	32	1
197	198	4
64	65	2
62	77	5
16	78	1
85	92	2
11	14	2
179	242	4
5	23	1
210	239	1
14	22	2
231	232	4
228	229	4
173	176	2
63	186	5
173	188	2
116	117	3
83	102	4
62	114	2
216	225	2
196	218	2
64	69	1
25	109	1
42	74	3
71	101	3
103	244	1
153	184	1
194	194	8
87	180	3
89	91	4
87	109	3
248	248	3
210	225	3
172	174	4
52	53	5
73	88	2
231	235	2
169	170	6
120	212	1
154	213	1
236	239	2
15	29	5
199	200	5
158	159	4
32	33	2
47	115	2
28	29	2
9	113	1
111	113	7
4	4	8
83	84	4
44	46	2
60	66	4
249	249	1
152	179	7
81	82	1
166	175	2
174	178	1
240	243	1
101	101	9
15	24	2
54	99	3
54	54	11
52	87	1
115	117	1
71	75	1
67	68	4
48	60	3
24	29	2
67	80	2
12	39	2
29	33	1
51	118	4
86	90	2
86	86	6
193	195	2
112	118	5
226	234	1
94	95	6
153	167	3
244	245	1
215	248	3
226	235	1
162	179	1
90	93	4
224	226	2
57	59	1
182	183	4
198	235	1
19	19	5
103	243	2
188	197	1
209	241	3
178	180	1
10	108	1
5	14	1
61	100	2
10	38	2
50	76	2
246	246	4
179	228	1
31	37	2
103	108	3
100	113	2
5	15	1
239	240	4
30	34	2
148	166	4
236	240	3
202	217	2
46	80	2
237	242	2
53	57	2
190	192	3
179	218	3
25	28	1
79	79	5
191	201	1
53	109	3
32	94	1
82	83	2
214	245	2
160	249	3
5	107	2
56	203	1
62	106	3
237	248	1
48	117	2
97	112	3
179	181	2
156	160	1
189	190	6
181	182	11
113	118	6
27	28	4
84	86	1
60	145	1
26	26	14
2	4	2
81	203	1
183	231	1
4	14	2
239	243	2
19	77	2
71	73	1
212	213	2
0	0	1
66	68	5
29	31	2
6	9	1
58	61	1
55	89	2
181	184	1
75	76	7
171	248	1
10	37	3
191	218	1
89	112	3
196	239	1
7	9	1
165	167	2
98	99	3
200	200	4
155	177	3
213	246	2
208	240	2
22	23	3
194	202	4
62	63	5
183	184	3
34	35	5
20	40	2
189	197	2
25	244	1
52	56	2
188	190	4
218	247	1
192	236	4
74	74	5
79	203	2
155	183	2
177	183	3
237	240	5
12	69	2
194	212	1
203	204	4
211	239	2
210	211	5
60	62	2
23	34	3
191	240	1
234	235	4
2	44	1
221	226	1
13	15	3
103	119	1
58	59	1
14	15	4
169	200	2
25	121	2
102	115	2
184	213	1
52	55	2
17	29	3
224	235	1
229	234	5
29	65	2
15	74	2
151	153	1
105	108	1
121	165	1
157	235	3
231	231	4
234	248	1
168	201	1
118	119	2
12	33	1
15	22	3
243	248	2
19	78	2
6	7	4
31	32	1
237	238	1
171	172	1
49	49	7
186	197	2
41	42	2
111	245	2
35	113	1
237	239	1
64	68	1
162	168	2
193	200	1
191	192	2
11	62	3
55	87	2
1	44	2
75	86	2
22	97	1
115	121	1
89	94	1
88	90	1
158	170	1
62	105	1
1	1	5
191	215	1
144	206	1
185	201	1
214	227	1
68	98	3
2	115	1
220	221	1
154	180	2
109	112	1
164	210	1
80	102	1
173	175	2
95	111	1
210	213	3
95	118	2
4	34	1
34	112	1
175	232	2
192	212	1
11	15	1
149	149	1
70	107	1
10	113	1
149	150	2
47	61	2
115	145	3
20	82	1
25	26	2
168	169	1
215	216	3
92	118	1
209	212	1
175	181	1
100	107	1
61	97	2
194	200	2
112	113	2
9	38	1
199	235	2
164	179	1
71	191	1
91	92	1
210	214	3
238	240	3
210	229	1
212	222	2
196	196	6
192	209	3
241	242	3
197	199	2
165	168	1
153	171	3
174	213	1
111	244	1
158	162	2
164	180	2
181	191	1
80	93	2
86	117	2
54	55	4
161	184	1
217	248	2
46	104	1
19	26	1
4	36	2
59	115	1
163	164	2
96	118	1
154	230	1
72	73	1
11	29	1
187	233	1
42	68	1
17	18	2
209	211	1
157	161	3
50	75	1
186	233	1
111	115	2
169	173	2
208	220	1
109	196	3
91	93	2
214	218	3
61	62	1
247	249	1
240	246	3
186	187	1
114	144	1
84	85	2
150	167	1
12	112	1
147	170	1
209	217	1
106	119	2
153	161	1
119	165	1
154	163	1
72	112	1
77	78	1
3	44	1
10	22	1
10	101	2
76	90	2
211	240	2
61	64	1
20	62	1
174	218	2
15	38	1
92	94	1
60	64	1
219	220	2
143	149	1
225	237	2
60	71	1
43	44	1
79	81	1
63	246	1
50	103	1
0	18	1
12	32	1
226	228	1
159	164	1
95	153	2
149	151	1
229	233	1
95	120	1
92	93	2
105	115	1
26	33	1
83	203	1
62	233	1
10	11	1
61	71	1
5	208	1
68	70	1
3	5	1
196	248	1
45	62	2
73	91	2
35	114	2
48	111	1
160	161	1
103	145	1
1	23	1
191	193	1
3	4	2
44	88	1
20	50	3
152	184	1
245	246	1
80	83	1
172	183	1
239	247	1
51	54	1
108	246	1
24	26	1
26	32	1
35	112	1
61	79	1
72	74	2
85	93	2
14	34	1
5	114	1
48	50	1
157	184	2
55	241	1
191	208	1
242	248	1
158	168	1
17	20	1
11	41	1
198	234	1
16	59	1
147	159	1
171	183	1
49	72	1
241	244	1
1	24	1
185	248	1
119	120	1
209	215	1
102	243	2
29	67	1
3	74	1
160	163	1
203	207	1
118	175	1
16	27	1
218	220	1
78	244	1
4	74	1
216	235	1
60	77	1
175	177	1
181	183	1
117	121	1
61	116	1
112	220	1
201	204	1
