30	30	14
104	104	13
9	9	19
100	101	5
3	3	13
90	130	5
35	82	2
48	48	16
10	10	12
68	69	7
131	131	14
29	30	8
75	75	25
26	86	9
35	36	29
62	63	6
45	107	3
39	60	2
95	96	7
121	121	14
102	105	8
4	17	3
101	101	23
26	26	32
13	30	3
77	77	24
67	78	1
80	80	15
118	119	3
80	81	6
14	14	11
66	66	29
93	93	6
87	87	6
55	100	3
78	78	30
47	47	15
12	12	24
6	6	22
21	21	12
81	81	12
76	76	13
27	27	12
108	108	17
92	93	3
101	102	4
84	84	31
35	35	13
40	40	15
62	62	9
18	18	11
105	105	20
75	76	9
87	88	9
33	33	39
19	36	4
27	38	1
45	45	27
59	59	11
101	116	10
79	80	16
41	42	8
5	17	4
100	100	16
13	14	14
10	17	1
61	61	16
30	31	10
109	109	23
29	48	5
71	71	11
4	6	6
25	25	13
110	111	8
79	79	23
5	5	23
57	57	20
72	73	5
26	85	1
97	97	13
69	70	1
89	93	1
68	68	3
81	84	1
125	125	5
106	109	4
11	44	6
118	118	18
23	24	5
99	99	13
30	78	3
32	33	3
69	69	12
126	127	7
2	2	6
28	32	2
17	75	2
5	20	2
46	123	3
89	89	2
85	88	2
32	32	20
60	106	3
78	105	4
126	126	16
60	60	23
107	107	1
20	20	15
83	84	5
91	127	3
65	65	17
95	95	17
83	83	20
88	88	12
56	56	20
46	122	4
70	70	18
82	83	3
74	74	20
59	61	1
115	115	20
29	29	13
86	101	2
7	7	14
22	22	5
8	8	26
131	132	7
24	24	12
56	57	4
15	84	7
5	6	4
40	49	3
119	119	15
64	64	13
12	14	1
98	100	3
117	117	2
122	122	3
6	95	4
46	46	20
127	134	3
108	109	5
58	58	13
23	23	7
21	79	5
98	101	3
12	35	8
13	13	9
67	67	8
86	86	18
64	70	2
65	75	1
41	41	7
55	98	2
8	14	5
119	120	8
102	104	3
105	107	6
1	1	12
78	115	3
36	37	3
94	95	4
100	106	1
28	28	9
128	128	11
85	85	20
16	16	11
15	15	11
90	90	10
123	123	14
92	92	14
15	16	12
125	126	14
93	94	5
102	128	1
0	2	1
11	11	36
31	31	19
72	72	29
63	64	2
86	93	4
96	96	13
87	93	2
96	97	7
131	133	1
45	46	2
4	4	4
34	35	4
17	17	12
58	59	4
40	41	8
10	34	1
82	82	19
4	5	4
111	111	7
55	57	7
30	38	1
125	134	1
93	112	2
7	8	2
45	71	1
38	81	2
20	22	6
49	49	1
111	117	1
130	130	4
48	78	2
27	31	8
3	4	6
25	32	3
114	114	9
97	101	4
124	124	6
126	133	4
93	98	4
82	95	1
113	113	9
84	87	1
11	12	4
44	44	11
28	33	3
98	98	5
105	111	1
120	120	14
63	63	2
130	133	1
102	102	4
8	36	5
13	18	2
0	1	2
85	86	1
7	45	2
117	119	1
2	3	5
89	90	3
37	37	8
23	109	3
116	116	8
127	127	12
47	48	2
14	16	3
116	117	3
31	32	9
55	56	7
112	112	4
15	92	1
34	34	12
90	93	1
84	99	4
98	99	2
94	94	11
130	131	6
7	31	1
132	132	7
19	19	9
73	73	9
78	80	4
68	71	2
42	42	7
113	114	5
25	26	5
39	39	6
25	93	4
33	46	2
96	101	3
106	106	6
18	76	9
123	124	5
7	110	1
26	92	3
11	20	2
36	36	10
97	99	4
80	106	1
97	98	1
25	82	2
48	49	1
20	24	2
77	78	6
28	90	2
35	37	6
73	74	4
11	26	2
78	79	6
99	100	5
109	110	2
16	40	3
60	104	1
81	82	7
44	45	2
22	40	3
50	51	3
50	50	4
28	29	1
92	125	2
40	42	4
46	47	3
104	106	5
91	92	4
70	71	3
104	105	3
62	75	1
35	93	3
71	72	6
32	79	5
34	78	5
41	44	1
41	81	2
11	93	1
41	43	4
112	113	7
106	128	2
54	55	2
56	85	1
35	74	1
91	91	9
13	36	2
3	101	1
35	116	3
113	117	1
126	134	3
31	106	3
133	133	11
36	93	5
77	103	1
76	78	1
16	82	1
113	122	1
60	61	3
105	106	2
16	84	1
86	88	5
128	134	4
94	96	4
26	47	2
29	32	3
27	92	2
35	63	3
7	78	1
0	0	5
61	62	2
2	121	2
27	93	4
11	15	7
8	9	2
93	126	1
8	10	1
93	133	1
49	51	1
129	129	8
63	66	1
90	133	2
25	83	2
114	122	1
37	107	1
11	13	1
57	83	1
6	7	4
80	85	2
103	103	3
15	128	2
38	40	2
76	77	4
15	23	5
23	26	2
76	104	1
17	18	1
62	74	1
83	86	2
2	85	1
27	90	2
56	99	2
18	19	3
15	75	1
44	75	1
29	31	3
0	11	1
55	55	1
110	110	4
63	111	1
36	78	2
94	99	3
103	114	1
31	77	4
107	109	4
78	81	3
13	16	4
39	40	1
61	104	1
3	13	1
28	91	3
98	103	3
29	60	1
68	72	1
54	54	2
95	112	2
70	89	2
11	128	1
16	125	3
83	87	2
31	36	2
121	122	2
78	95	2
65	71	2
36	38	1
3	16	2
29	95	2
83	109	1
20	21	4
120	122	1
27	82	1
91	95	3
96	98	1
27	28	3
60	113	1
35	80	1
19	20	2
18	42	3
88	89	1
85	111	2
92	94	1
16	81	1
134	134	2
126	128	1
103	104	2
65	67	1
59	73	2
84	85	1
50	57	1
16	123	1
93	95	1
69	120	2
69	71	1
14	15	1
79	93	1
98	102	1
127	129	1
30	60	2
27	29	1
26	27	2
74	75	2
95	98	1
72	76	1
47	61	1
77	80	1
45	70	1
50	58	1
57	102	1
16	32	1
15	82	1
15	31	1
57	58	2
133	134	1
43	43	2
48	57	2
42	43	1
127	128	1
31	55	1
31	54	1
11	82	2
3	19	1
47	99	1
61	63	1
15	83	1
73	123	1
120	121	2
78	93	1
56	59	1
33	34	1
22	36	2
23	82	1
4	18	1
11	35	1
84	100	1
66	67	1
4	7	1
70	120	1
37	40	2
7	14	1
59	87	1
48	56	1
111	113	1
83	106	1
88	127	1
66	72	1
80	91	1
59	106	1
14	23	1
