127	127	61
37	37	35
35	35	60
112	112	36
102	102	40
73	73	13
137	137	30
97	97	36
103	104	15
71	72	9
71	93	4
16	16	22
132	132	58
21	21	47
76	76	30
92	92	13
21	73	1
123	123	47
32	32	27
20	22	3
110	110	15
6	6	27
13	13	30
31	31	23
93	93	16
99	99	35
9	11	8
79	79	20
122	122	35
136	136	20
116	119	6
135	135	45
113	113	32
133	133	37
85	85	20
109	110	8
7	7	22
131	131	52
17	17	33
21	36	3
12	12	18
126	126	45
130	134	7
15	15	18
11	11	12
124	124	35
36	36	37
1	8	10
114	114	32
96	97	7
134	135	13
140	140	36
94	95	11
108	108	19
134	134	73
129	129	37
106	106	7
4	28	4
117	117	28
88	90	2
35	126	2
111	111	36
88	88	13
20	20	30
91	91	12
103	103	19
117	118	12
120	120	5
12	23	1
75	75	22
115	115	27
107	108	17
26	26	24
16	17	13
80	80	7
90	111	2
31	34	2
94	138	3
0	0	21
1	1	23
7	12	5
28	28	12
74	75	7
119	119	21
89	89	21
27	33	3
74	74	48
8	9	12
119	120	13
81	82	7
22	26	5
36	37	3
73	74	5
101	101	30
138	139	11
135	138	2
34	34	31
118	118	22
6	16	1
72	72	28
26	32	6
29	29	10
73	76	9
110	111	13
20	74	2
103	138	4
27	30	2
128	128	26
19	20	7
17	18	9
124	126	8
27	31	1
2	4	2
129	130	25
82	83	2
82	82	8
33	33	55
22	23	11
121	122	11
83	83	25
28	29	20
82	85	8
105	105	17
78	79	8
116	116	28
111	112	12
114	115	14
95	95	51
8	8	25
102	112	6
97	98	9
4	38	2
18	18	19
16	21	9
4	4	26
84	84	2
109	109	26
81	123	1
86	86	27
19	19	20
35	37	3
3	3	14
25	25	8
98	100	1
121	121	18
38	38	10
124	125	20
98	98	45
77	78	9
105	106	9
24	25	13
134	137	8
6	7	9
33	34	18
9	9	14
131	132	15
78	78	14
93	94	4
106	107	8
71	71	9
139	139	36
14	14	15
108	109	3
100	100	25
24	24	10
23	24	6
23	28	1
21	29	1
85	86	10
130	130	35
0	10	1
22	74	5
109	111	6
128	129	5
132	134	4
96	96	18
14	15	4
22	22	17
120	121	10
138	138	27
27	27	27
75	87	4
77	77	19
74	96	3
136	139	1
10	10	14
75	76	4
5	5	29
81	81	15
6	18	4
118	120	3
9	10	7
140	141	4
136	137	3
23	23	18
99	100	12
116	117	4
33	130	5
1	2	6
125	126	6
11	28	4
73	77	5
90	126	2
18	19	10
82	87	4
106	119	1
4	5	10
31	32	3
116	118	3
123	124	1
104	105	10
105	107	5
30	30	9
89	101	1
3	5	1
107	107	20
119	123	4
87	88	3
15	73	1
10	11	10
101	123	1
4	6	2
117	119	3
0	2	10
116	124	2
7	83	2
115	116	4
15	16	3
101	102	2
104	110	3
93	107	2
84	85	10
18	20	5
12	17	3
8	11	2
102	103	4
72	74	2
5	6	5
90	90	16
96	129	4
25	26	6
87	120	1
24	26	2
101	103	4
9	15	2
17	25	5
26	33	4
26	27	7
71	78	3
1	110	4
86	119	3
103	106	3
111	114	4
74	77	5
104	106	4
77	92	5
21	35	1
94	111	4
132	137	1
81	88	3
21	22	15
106	109	4
30	31	6
21	26	2
106	122	3
125	128	3
89	90	3
77	79	4
19	21	6
10	12	3
132	133	11
87	87	14
95	130	1
32	33	8
87	102	3
78	80	6
95	96	8
2	2	16
87	107	3
6	85	4
13	14	5
92	93	4
102	108	2
0	1	4
103	105	2
127	128	14
130	132	1
103	110	1
139	140	5
92	102	1
79	85	2
89	92	2
104	108	1
4	32	3
14	20	3
74	80	1
136	138	5
32	34	2
80	86	4
29	31	2
72	76	6
130	133	4
105	112	3
81	116	1
27	32	1
89	100	3
132	135	3
104	112	1
126	128	2
121	123	4
123	125	4
90	135	1
26	28	2
2	3	5
4	17	4
94	94	15
129	134	4
112	125	3
126	127	7
115	124	2
118	119	4
79	127	1
106	108	4
125	125	12
90	91	7
12	16	2
133	134	3
3	7	1
33	77	1
27	28	4
98	99	4
30	36	1
137	138	10
112	113	6
104	104	14
91	98	1
21	74	1
75	77	1
111	115	5
108	111	1
87	89	1
105	110	2
36	126	2
18	22	1
14	36	3
16	18	5
72	73	10
15	18	1
128	138	1
101	112	1
117	127	2
91	112	1
105	108	1
21	27	2
20	21	14
27	96	2
37	81	4
86	94	5
120	122	7
78	89	2
119	121	4
21	75	1
139	141	4
34	35	7
18	21	3
76	77	2
15	104	2
85	120	3
86	87	2
136	140	1
0	8	1
33	36	4
79	80	4
7	29	2
135	136	2
81	84	3
92	109	2
35	36	5
22	25	3
17	26	3
82	84	2
78	87	2
27	29	3
95	100	2
76	79	3
0	6	1
21	124	1
112	114	3
74	76	3
86	117	1
89	111	1
15	33	1
88	92	1
5	36	1
76	80	1
119	124	4
95	97	3
102	109	2
3	4	5
12	13	1
128	132	2
23	25	4
21	25	3
91	92	1
14	96	2
8	107	1
93	95	4
14	30	1
119	122	2
77	81	2
78	85	2
31	78	3
83	85	5
32	35	2
74	89	1
34	125	1
9	12	2
102	111	1
135	137	2
86	116	1
86	93	2
2	20	1
73	78	2
7	10	2
18	35	2
15	21	2
0	15	2
97	126	2
88	96	1
110	113	1
92	94	1
74	138	1
90	127	2
90	92	2
1	10	6
10	16	1
37	38	3
16	22	1
91	126	2
34	36	2
4	16	1
113	114	2
110	112	2
7	8	6
97	101	1
88	93	1
81	87	3
135	139	1
77	82	2
98	114	1
130	131	2
83	84	1
23	30	1
17	35	1
14	26	1
111	113	2
23	26	3
9	13	3
82	109	1
114	116	2
116	122	2
36	38	2
102	104	1
14	18	1
6	17	3
127	129	2
2	5	1
6	37	1
9	108	1
94	99	1
132	140	3
87	103	1
2	135	1
100	101	1
18	25	1
74	91	1
86	102	1
125	127	1
81	85	3
124	138	1
128	133	1
103	108	1
127	130	1
80	83	1
104	120	1
6	8	2
22	29	1
12	14	1
133	138	1
35	125	2
96	130	1
84	86	3
44	68	1
88	112	1
76	88	1
36	85	1
95	98	1
104	107	1
95	99	1
88	111	1
3	11	1
44	44	1
13	20	2
13	15	1
5	11	1
132	139	1
130	137	1
118	123	1
90	94	1
89	117	2
121	124	1
15	35	1
90	93	1
79	86	1
