95	95	8
131	131	2
71	92	2
65	65	3
99	100	3
41	82	4
13	29	1
91	92	5
94	94	8
161	162	1
149	150	3
18	18	15
11	13	4
129	168	2
61	62	2
11	11	16
111	113	3
108	108	8
120	125	2
62	75	2
120	170	1
77	77	2
19	32	2
43	44	4
164	164	2
159	161	4
77	135	6
6	6	15
131	171	2
2	2	19
80	80	2
12	14	3
132	150	3
16	16	7
91	97	1
102	102	6
102	113	3
119	119	9
21	21	1
14	18	2
71	71	4
28	39	1
161	161	8
110	110	8
7	8	6
23	24	6
126	126	10
135	157	3
128	143	2
106	106	4
117	117	6
61	109	1
20	20	5
89	90	1
136	137	5
100	102	3
145	180	2
130	130	4
3	3	10
74	165	1
178	178	10
23	23	8
75	110	4
115	115	5
34	122	2
14	16	7
32	34	2
42	42	9
120	120	9
71	72	2
59	170	1
15	15	14
55	55	5
52	53	9
173	173	12
91	128	5
57	57	2
22	164	2
33	41	1
1	5	1
83	83	4
13	13	20
153	154	3
27	28	9
9	10	8
9	22	2
3	15	3
162	166	3
110	145	2
150	150	2
5	5	19
84	85	2
53	53	3
8	20	2
88	109	2
97	97	2
63	63	7
22	36	1
33	33	8
103	103	3
19	19	4
86	88	5
44	44	12
56	56	5
14	44	4
24	24	10
28	28	6
176	176	8
14	14	2
113	113	7
101	101	4
125	138	1
109	109	2
49	50	2
57	58	4
140	140	13
8	35	1
177	177	3
4	4	8
26	26	13
43	43	15
15	16	15
35	61	1
8	9	6
4	42	1
66	66	8
30	30	8
144	144	7
44	45	2
9	9	7
169	169	10
18	20	3
41	41	12
34	36	4
24	25	6
146	146	2
37	37	12
36	40	2
3	4	7
22	28	1
154	154	2
25	25	13
81	136	1
66	67	3
154	160	5
1	1	9
87	87	8
107	107	3
27	27	9
26	29	1
7	9	5
113	152	3
37	44	2
5	6	5
24	31	3
96	98	1
132	133	5
127	127	6
20	31	2
74	75	1
166	167	3
142	142	10
0	0	10
29	31	5
17	18	5
82	82	2
91	91	2
4	41	3
163	163	4
166	179	2
114	140	2
155	160	4
7	38	2
49	67	4
86	86	2
178	179	1
43	45	2
105	105	8
156	156	3
90	91	4
19	29	2
115	116	3
29	29	5
35	36	2
15	36	1
135	136	3
34	35	3
81	81	2
179	179	1
154	162	6
29	39	3
137	138	4
35	35	9
7	7	2
27	29	3
174	174	8
96	97	1
104	104	5
127	128	1
143	143	2
55	148	1
162	165	1
4	8	2
16	19	4
6	37	2
163	167	1
40	40	9
112	118	1
151	180	1
64	64	4
39	39	6
102	147	7
162	170	2
36	36	8
23	32	1
103	105	3
26	28	7
167	174	5
13	74	2
26	35	1
154	161	2
4	25	1
173	174	4
101	102	3
134	135	1
2	9	3
90	90	7
114	129	2
148	148	7
141	141	3
36	139	1
8	8	6
133	134	1
15	22	2
104	123	1
59	73	1
20	21	1
67	68	4
152	153	1
161	174	1
117	151	2
170	170	4
22	23	4
98	98	3
75	75	5
158	159	2
49	51	2
168	169	3
78	168	2
21	39	1
44	46	1
155	156	5
18	27	2
123	124	5
51	51	2
95	179	1
88	88	3
5	25	1
10	13	2
100	145	1
132	167	1
93	93	1
71	76	2
7	10	1
32	32	8
135	147	1
160	160	1
17	37	1
30	41	3
7	31	1
34	34	3
21	31	2
76	78	4
22	45	3
64	111	3
73	73	4
89	89	4
152	152	11
54	149	1
114	168	1
157	158	1
41	42	1
116	116	5
165	165	4
72	80	2
14	150	2
149	149	4
145	162	4
10	10	11
22	22	8
52	52	5
19	20	4
3	98	2
133	133	2
113	116	3
4	7	2
128	128	1
18	19	3
80	81	3
147	147	4
83	84	1
45	45	3
84	89	1
31	32	3
74	74	6
175	175	1
112	139	1
96	113	1
153	153	1
155	155	1
89	128	2
9	44	2
119	120	3
125	125	3
12	12	2
78	122	2
50	51	4
6	9	1
33	34	2
112	112	2
116	151	3
50	52	2
145	145	2
111	111	3
5	42	3
50	50	2
139	139	1
145	146	2
118	136	2
154	163	2
6	7	11
100	173	2
18	29	1
2	3	3
113	117	2
32	33	2
28	29	2
171	172	1
30	31	2
38	38	3
3	6	1
85	85	1
89	127	1
3	35	2
1	4	3
36	75	1
95	100	1
59	59	2
56	58	2
13	72	1
166	166	3
132	142	2
135	135	2
4	16	2
154	157	1
2	19	1
127	134	1
177	178	3
114	115	2
100	100	3
17	17	1
65	90	2
33	35	1
23	25	3
162	173	1
11	14	4
79	79	2
15	44	1
10	84	1
34	43	2
130	134	3
144	153	1
88	89	1
4	5	2
159	159	2
155	157	2
139	140	5
119	121	1
65	66	1
15	41	3
78	78	1
32	36	2
127	135	4
71	93	1
31	31	1
15	35	1
99	99	2
172	172	2
65	99	2
19	177	1
167	167	1
129	129	3
122	122	2
41	45	1
121	121	2
159	170	2
12	13	2
129	144	1
99	112	2
167	175	2
124	125	2
102	160	2
67	67	1
134	134	1
115	145	1
111	150	1
5	151	1
96	96	2
92	94	1
111	147	1
60	60	1
43	151	2
28	42	1
40	41	1
23	42	3
59	80	1
59	60	1
113	114	2
61	61	1
25	30	2
44	83	1
40	44	1
38	39	1
63	99	1
81	82	2
14	24	1
154	155	1
17	38	1
100	113	2
110	111	1
32	35	1
60	61	1
24	29	1
14	43	2
26	27	1
103	104	1
117	129	1
101	175	1
20	152	1
36	136	1
132	132	2
2	41	1
95	102	2
81	85	2
154	156	1
49	49	1
112	127	1
68	68	2
90	105	1
75	76	1
129	130	2
72	81	1
121	122	1
141	149	1
17	21	1
41	97	1
54	58	1
107	168	2
128	137	1
134	172	1
79	81	1
105	106	1
127	137	1
84	106	1
35	136	1
100	147	2
63	97	1
30	53	1
66	98	1
28	30	1
137	137	3
116	117	1
92	92	1
164	166	1
64	159	1
175	178	1
35	84	1
165	166	1
9	19	1
123	123	1
118	118	1
