39	39	4
33	33	13
73	73	13
59	59	20
32	32	13
75	76	9
94	95	6
34	34	16
78	79	2
106	106	13
97	97	15
92	93	3
102	104	4
78	78	17
69	69	9
28	28	22
59	60	6
101	101	15
71	71	13
83	85	4
62	72	1
62	63	7
51	51	15
36	37	7
46	46	10
26	27	4
73	92	2
25	54	1
63	64	5
72	73	7
38	38	24
64	73	3
65	65	21
100	102	10
87	87	24
40	40	11
24	45	5
53	53	15
27	27	3
60	74	3
28	33	7
93	93	6
44	44	13
67	68	2
74	74	15
73	76	4
77	77	10
48	48	4
79	79	5
32	33	9
76	76	18
67	67	4
66	66	15
56	56	2
103	103	22
41	62	3
55	55	16
24	25	4
64	64	16
73	74	4
21	21	12
50	51	2
38	39	5
60	84	5
81	81	11
104	105	2
36	46	5
82	82	7
52	53	15
95	95	30
35	43	3
91	92	2
69	70	1
34	36	2
58	59	5
28	29	9
39	40	5
104	106	3
59	63	6
62	68	2
83	83	11
92	92	16
61	61	11
24	28	1
31	31	18
72	72	8
36	36	16
25	49	2
63	63	12
21	22	5
62	82	5
31	32	3
105	105	6
89	89	19
20	22	1
43	43	5
50	50	10
75	75	18
68	68	9
29	29	8
25	27	3
61	62	2
45	45	11
80	92	6
94	94	8
38	43	1
25	25	9
96	104	2
80	81	4
78	94	6
80	80	13
22	99	1
53	66	5
92	99	1
25	35	3
102	102	13
45	47	1
91	91	11
23	23	14
90	92	4
70	71	7
58	73	2
64	65	2
71	72	4
58	58	6
52	52	17
54	54	9
62	62	3
51	52	5
48	88	3
65	66	12
32	34	3
77	78	1
48	49	1
35	83	1
88	88	6
37	37	10
100	104	4
90	91	2
74	75	6
43	44	5
60	60	10
41	42	4
25	66	2
81	82	8
54	55	4
68	69	8
84	84	2
88	90	3
35	50	5
36	45	2
31	33	2
73	101	2
63	72	4
82	83	5
49	49	8
98	98	4
45	46	5
62	73	1
82	84	1
87	91	4
89	91	1
35	35	6
29	30	4
61	63	1
56	59	1
81	92	1
71	100	1
89	90	3
104	104	3
48	86	4
22	22	10
24	24	9
81	83	4
86	88	2
76	101	1
61	64	1
96	97	4
20	20	4
56	57	1
52	56	3
100	100	7
46	48	2
34	37	4
47	47	4
70	74	4
85	86	4
78	88	4
89	97	2
68	70	2
29	47	1
62	64	3
92	94	1
86	87	3
79	98	2
55	56	6
47	90	4
40	79	2
76	77	3
93	94	10
27	28	2
22	23	3
29	33	3
64	72	1
71	77	4
101	104	1
58	60	4
99	99	10
86	86	3
85	85	4
44	45	3
42	91	1
42	42	3
40	44	1
83	84	1
33	43	1
56	62	1
21	106	1
20	30	1
84	85	2
62	79	1
77	79	1
62	65	1
79	90	1
96	96	4
54	67	3
30	30	9
33	34	3
35	46	1
78	90	3
37	38	1
54	65	5
24	46	1
47	48	1
70	70	2
57	57	1
96	105	3
101	102	2
95	96	2
90	90	2
23	24	2
66	67	1
23	50	1
42	43	2
63	81	1
35	36	3
52	54	1
81	90	2
35	85	1
105	106	1
55	71	1
92	100	1
71	73	1
72	97	2
51	54	1
39	41	1
40	81	1
52	65	1
53	60	1
59	64	1
102	103	1
97	98	1
25	48	1
70	97	1
53	54	1
60	62	1
73	77	1
64	67	1
25	55	1
32	43	1
