62	62	10
24	50	2
111	112	7
120	120	13
135	139	4
60	65	1
134	135	10
108	116	2
70	70	11
75	75	22
96	96	2
35	50	1
103	103	8
140	140	4
106	106	4
60	87	2
127	132	3
11	21	4
97	98	1
33	123	7
118	119	8
118	140	3
89	89	4
23	23	9
97	139	4
8	42	3
83	83	12
89	90	7
122	123	3
39	40	7
94	119	1
67	67	5
131	132	5
135	135	6
59	60	7
112	112	3
73	74	3
77	78	2
114	118	1
35	35	7
117	117	11
100	100	17
141	141	7
142	142	4
68	68	8
61	61	10
11	11	7
132	137	5
5	5	7
75	80	5
35	43	1
116	122	3
133	133	4
86	130	1
9	14	2
125	125	25
38	38	14
48	48	11
47	47	7
37	37	5
31	34	1
57	57	10
72	72	8
130	130	11
88	110	1
32	94	3
14	16	6
108	108	11
76	78	1
88	88	8
13	13	11
6	6	9
131	131	12
116	118	4
139	139	7
144	144	15
21	21	4
113	133	1
70	128	1
104	104	10
1	2	5
67	68	10
132	132	12
128	129	7
96	128	1
60	60	13
77	77	8
17	19	4
50	52	2
13	56	4
105	119	2
36	36	10
114	115	6
32	32	11
26	31	3
29	29	14
114	114	3
116	116	10
73	73	10
84	84	5
31	32	3
127	127	8
59	61	1
15	99	1
111	141	1
53	53	3
18	18	7
98	98	5
76	76	9
101	101	3
129	129	15
121	122	3
137	137	8
32	126	2
71	71	8
93	93	12
41	41	8
139	140	6
4	43	1
79	80	2
123	123	10
24	24	13
117	118	1
77	128	1
125	135	2
109	109	10
97	97	6
85	93	2
49	50	11
118	130	2
105	118	1
110	110	9
2	2	7
102	102	14
122	122	12
58	66	3
121	121	7
87	89	5
95	95	4
76	77	6
55	55	6
10	10	6
118	122	1
90	91	5
124	124	6
39	135	5
77	79	2
52	53	4
145	145	6
113	113	3
86	96	3
50	53	1
79	79	6
0	56	1
70	96	2
26	26	6
134	134	10
40	40	5
116	117	4
13	14	5
97	102	1
0	25	1
56	56	9
58	59	3
102	103	11
135	136	1
81	81	6
33	34	6
65	65	5
125	129	2
129	130	6
79	128	1
126	127	6
64	64	5
118	118	10
79	93	1
144	145	1
30	30	8
76	128	2
29	30	2
42	42	10
38	40	1
50	50	8
20	20	9
59	59	10
90	90	6
115	115	8
6	63	3
92	120	3
8	8	10
32	33	3
25	25	5
115	117	3
3	4	3
74	74	3
80	80	12
58	58	14
113	117	2
97	99	3
15	15	5
101	102	1
88	89	3
36	41	2
136	136	3
48	69	3
21	48	1
115	116	11
19	105	1
63	63	6
30	33	4
80	81	4
143	143	4
87	87	3
43	97	2
74	75	3
127	128	4
83	85	3
105	106	3
71	72	4
68	69	5
52	52	8
127	142	3
76	79	3
19	22	1
16	99	2
92	92	4
54	54	2
128	128	9
13	43	2
12	13	2
64	65	2
96	142	1
65	72	1
133	134	5
93	95	4
123	140	1
137	141	1
15	16	5
118	127	2
83	118	4
1	56	1
19	20	5
85	88	3
127	130	3
126	126	9
34	34	5
19	19	9
82	82	7
94	95	5
14	14	4
11	20	3
1	1	6
124	140	5
127	133	1
25	26	3
112	117	2
124	125	3
46	47	2
48	70	3
49	53	2
91	91	6
94	107	8
37	40	2
69	69	5
51	52	3
54	55	1
125	136	1
136	137	5
32	40	4
17	18	3
121	135	3
27	27	4
138	138	4
28	28	8
34	35	7
136	138	3
28	69	1
33	33	7
37	111	2
32	36	2
6	31	2
17	17	7
22	25	2
106	108	3
94	118	2
35	36	9
35	77	3
107	107	3
4	62	1
22	23	4
22	22	8
31	31	8
10	11	1
7	14	3
111	111	3
38	143	3
60	61	5
25	82	2
107	119	2
66	69	6
9	10	4
16	16	3
106	119	1
0	0	2
126	132	6
125	137	5
96	125	2
125	138	1
132	138	2
85	85	5
142	143	1
72	84	2
114	116	2
100	138	2
86	86	5
123	124	2
88	91	1
86	132	2
27	86	3
24	51	2
75	76	1
117	124	1
53	55	2
124	144	2
66	68	2
69	71	2
12	15	1
18	23	2
50	51	5
41	42	2
99	99	3
0	68	1
39	39	2
78	79	1
23	101	2
27	33	2
13	62	3
119	120	2
74	81	2
4	5	3
75	78	1
135	137	4
74	84	1
87	110	1
40	131	2
125	140	1
9	9	9
121	136	2
77	110	4
132	133	5
59	100	1
123	131	1
66	66	3
9	12	1
84	91	2
123	127	1
76	87	3
12	105	2
25	144	1
33	122	5
4	4	1
125	142	3
99	100	4
93	94	2
11	38	1
25	27	2
41	112	1
124	126	3
65	67	1
5	65	1
109	142	1
14	55	4
95	96	4
39	41	1
6	17	2
32	115	2
13	18	2
119	119	3
69	131	1
134	136	1
55	67	2
22	59	2
131	137	4
125	126	1
105	105	1
133	137	2
43	43	3
27	69	2
111	142	1
94	94	4
34	73	1
48	67	1
23	57	2
47	48	2
49	49	2
4	58	1
123	134	1
37	51	1
8	31	1
41	131	1
102	104	2
10	13	1
3	13	2
66	141	1
33	117	1
137	138	5
2	6	1
84	93	1
4	63	1
98	140	1
125	139	1
2	43	1
73	85	1
8	59	1
23	24	2
26	95	1
35	41	1
98	107	1
18	20	2
8	17	2
27	48	1
24	88	1
25	83	1
123	139	1
62	64	2
37	136	2
9	96	1
113	114	2
86	88	1
129	131	1
140	141	1
37	38	2
36	37	2
128	144	1
133	135	2
26	82	2
105	109	1
131	134	1
80	91	1
35	51	1
15	18	1
14	65	2
18	19	1
65	69	1
5	15	1
69	85	1
40	42	1
125	132	1
111	131	1
36	40	1
75	87	2
25	85	1
112	116	1
76	98	1
121	123	1
84	104	1
3	3	1
141	143	1
10	12	1
12	12	1
55	56	2
26	39	1
95	97	1
58	89	1
63	139	1
64	133	1
65	70	1
