18	18	41
33	33	61
35	35	20
32	32	28
6	7	16
11	12	14
30	30	37
13	13	56
9	57	1
49	49	40
45	45	43
6	6	34
3	3	35
31	32	8
31	31	37
50	50	49
50	51	15
48	48	31
19	19	54
54	54	29
1	1	35
4	4	44
36	36	28
21	21	21
14	14	44
9	9	21
36	51	2
58	58	33
20	21	15
46	47	6
5	5	53
12	14	8
7	7	39
36	37	17
8	10	15
2	2	47
18	19	9
33	34	14
38	38	30
15	15	52
44	44	28
47	52	3
8	15	3
46	46	44
15	30	1
1	33	2
38	42	2
0	0	19
4	5	5
14	49	2
11	11	55
20	22	2
17	17	44
10	10	33
42	43	9
20	28	2
27	28	5
22	22	23
51	56	3
5	6	15
29	31	6
16	16	34
51	51	44
9	29	2
29	29	18
40	42	2
21	54	2
34	34	52
13	15	4
5	15	3
52	52	18
8	9	5
12	12	21
40	41	17
21	22	6
40	40	33
41	41	31
5	11	1
10	14	3
22	27	3
15	16	6
56	56	28
34	38	11
39	51	1
10	11	6
28	28	19
28	29	11
16	49	5
37	47	3
45	46	3
18	55	1
38	39	8
28	30	8
17	18	34
31	40	6
23	23	20
30	32	9
13	14	15
12	15	2
15	17	4
11	20	3
18	39	3
32	46	1
12	28	1
12	32	1
30	31	6
2	3	10
20	20	22
2	5	4
45	48	1
29	37	4
55	56	7
20	23	7
22	56	1
33	39	3
52	56	4
36	46	7
22	24	3
33	46	2
22	38	2
29	32	5
22	32	2
14	16	3
33	57	2
42	42	26
37	37	17
0	1	8
6	17	1
53	54	4
8	8	17
32	33	7
9	11	4
14	15	16
9	10	2
35	36	10
39	39	45
46	55	1
53	53	18
34	35	9
39	40	5
6	13	6
10	36	1
7	8	6
1	4	3
47	47	20
6	8	3
2	14	3
6	45	1
57	58	21
41	55	1
59	59	5
10	13	2
4	6	4
4	58	1
20	32	2
0	55	2
38	56	3
48	50	3
13	31	1
6	49	2
6	33	1
21	32	1
19	23	2
45	53	3
22	23	8
53	56	3
14	17	4
51	55	3
19	20	4
56	57	5
48	49	7
34	40	2
18	42	1
13	17	1
16	17	6
6	40	3
21	24	2
7	10	3
22	36	1
43	47	2
43	43	10
41	44	4
55	55	31
21	29	3
5	7	2
3	4	4
54	55	4
36	40	1
1	14	3
8	40	2
52	53	9
7	11	3
1	13	2
58	59	2
21	31	3
36	38	1
36	48	2
15	52	2
55	57	2
48	55	4
23	32	1
34	39	1
29	30	8
0	12	5
13	50	1
50	56	1
27	29	4
33	47	1
2	44	2
51	52	4
22	28	2
13	16	5
4	34	1
52	58	2
57	57	6
45	58	2
1	2	10
40	51	1
20	55	4
41	42	4
6	10	2
21	23	2
5	9	2
35	39	4
41	46	4
7	40	1
29	33	4
33	35	4
35	37	2
38	40	4
23	24	6
16	20	4
37	38	9
30	33	9
4	18	1
54	56	4
44	45	5
24	24	4
3	11	2
0	40	2
17	20	3
13	19	2
35	51	3
19	34	1
36	43	4
33	52	2
4	14	2
49	50	3
9	39	2
41	57	2
3	46	2
40	48	3
15	51	1
6	57	1
24	57	1
10	17	1
35	55	1
20	24	1
0	13	2
45	47	2
32	35	2
15	18	1
48	51	3
21	33	1
42	44	1
51	54	2
29	35	3
7	39	2
39	42	3
15	55	2
29	41	2
44	54	2
8	41	2
2	4	1
0	9	1
17	37	1
9	12	4
41	58	1
21	36	2
31	51	1
39	50	3
22	31	1
0	39	1
18	40	1
43	46	1
14	32	3
16	31	1
39	44	1
10	15	1
4	40	1
7	34	1
11	49	2
40	58	2
11	29	1
47	56	1
8	16	1
20	35	1
31	36	4
24	34	1
18	35	1
14	56	2
37	39	1
7	41	4
15	56	2
31	34	1
6	50	1
34	36	1
52	54	2
19	54	1
9	19	2
13	18	2
51	58	1
19	39	2
19	36	2
37	50	1
47	48	2
0	11	2
15	50	1
16	46	2
43	44	2
12	17	1
12	24	1
33	40	1
4	7	1
6	18	1
38	51	2
42	48	1
47	49	1
1	50	1
40	44	1
35	46	2
36	54	1
28	31	1
0	15	1
9	21	1
46	50	1
32	51	1
7	50	2
31	33	2
38	41	1
0	29	1
20	56	1
