39	43	3
3	23	4
25	25	9
38	38	10
75	75	32
99	100	8
6	129	3
4	4	12
100	100	7
18	35	4
65	65	37
61	61	15
74	74	42
63	63	25
29	30	8
6	6	6
24	77	8
96	98	1
45	49	2
49	97	2
117	118	1
8	8	27
85	85	28
133	133	4
43	44	3
116	116	14
68	68	34
20	20	11
41	42	6
66	66	30
77	77	29
83	84	4
26	33	4
27	80	7
107	107	8
28	28	6
59	59	14
101	101	36
32	32	26
55	56	11
35	36	24
32	48	2
89	89	3
8	9	11
18	18	22
106	106	12
16	20	1
81	81	14
45	45	42
67	68	3
33	33	47
16	102	3
79	79	20
84	84	9
115	116	10
63	66	3
93	93	27
114	114	15
3	7	1
119	120	3
10	13	5
2	3	8
46	46	34
38	40	12
14	15	4
9	10	10
7	7	25
82	83	15
48	48	11
100	107	1
44	44	14
36	37	7
88	89	2
10	16	5
111	111	25
97	98	8
5	5	20
92	93	3
7	30	2
80	81	7
12	13	4
24	25	18
122	122	6
87	87	6
76	76	41
74	83	1
27	36	1
95	107	5
111	113	2
44	49	2
1	3	1
47	47	53
26	26	29
67	67	13
81	82	11
77	78	10
1	1	12
12	12	48
102	102	21
45	60	12
61	63	5
29	29	19
14	14	20
57	57	18
61	62	4
21	21	26
17	18	6
89	92	1
3	3	15
123	123	22
15	16	2
96	96	17
40	40	4
64	64	38
20	21	5
130	131	5
3	14	1
48	49	8
55	55	3
107	116	2
128	128	7
69	70	7
3	4	7
33	46	1
11	12	8
35	35	28
36	36	25
17	19	5
37	37	6
100	117	5
94	94	24
97	97	13
13	13	23
121	126	1
2	2	12
46	61	2
12	46	3
102	103	2
73	73	33
125	125	16
45	70	5
128	130	8
110	110	24
78	78	28
10	76	8
90	91	9
47	57	1
96	97	12
33	34	14
29	47	4
69	69	14
67	69	12
17	17	17
39	39	11
21	85	2
34	34	35
20	30	1
62	62	36
104	104	20
103	104	7
60	60	26
86	86	13
2	72	5
25	26	11
11	11	36
5	7	3
111	112	4
84	94	5
76	77	4
16	101	2
49	56	8
19	19	21
33	35	9
110	111	2
95	95	18
12	35	4
72	72	33
18	127	2
10	10	27
27	28	9
23	25	4
42	42	9
49	49	5
91	92	3
123	124	10
98	98	7
99	107	2
56	58	3
14	24	3
84	85	3
72	77	2
103	103	13
18	47	1
104	112	1
94	95	6
26	63	4
15	15	17
95	117	1
27	47	1
86	88	4
43	43	13
26	27	7
38	58	1
95	101	4
10	14	8
4	7	5
63	67	2
27	32	3
0	1	5
78	79	9
108	109	12
2	5	2
72	73	5
28	36	4
6	7	11
16	16	15
100	101	6
132	132	6
0	0	14
27	94	1
98	99	8
86	125	3
18	85	1
119	119	10
3	65	5
1	2	5
122	123	3
117	117	10
91	100	2
88	91	4
124	125	2
83	83	19
16	17	4
113	113	6
2	70	1
63	77	2
44	61	2
78	82	3
10	61	3
124	124	4
30	31	3
3	101	2
80	80	8
34	46	1
66	83	4
90	92	3
15	43	3
92	92	7
85	89	2
76	125	1
48	99	4
131	132	3
130	130	13
58	59	4
26	36	7
46	47	8
15	42	3
36	39	1
55	57	3
32	34	1
28	91	6
71	71	12
129	129	14
99	99	7
25	28	4
70	70	12
46	60	6
31	34	3
31	31	11
40	41	8
21	50	4
105	108	2
28	32	1
19	30	4
27	27	15
34	35	4
114	116	3
68	69	3
58	60	4
49	98	4
90	90	3
41	80	5
56	91	4
79	80	8
9	9	31
114	115	1
132	133	4
82	82	14
26	83	3
23	24	5
61	64	3
60	62	2
126	126	2
104	105	5
14	22	1
127	127	4
4	98	2
59	60	3
121	122	2
112	117	6
47	48	9
73	74	7
73	77	2
120	120	14
109	109	6
11	93	8
94	100	5
30	60	3
51	51	1
30	30	3
13	14	1
18	121	2
87	88	1
11	48	3
62	82	1
85	86	3
24	78	1
18	19	1
80	83	2
27	78	1
83	95	1
45	71	3
16	29	2
18	36	6
115	115	4
26	32	4
129	130	3
66	67	4
46	73	2
12	71	1
62	63	5
39	42	2
71	72	4
119	129	2
21	81	3
75	76	3
8	36	7
41	45	4
60	76	5
96	99	2
85	95	1
79	82	1
113	114	4
65	68	1
50	50	3
18	28	2
56	93	1
105	105	12
105	107	1
8	10	1
128	129	4
106	129	1
72	75	2
130	133	1
112	112	10
17	24	2
24	24	6
112	113	3
62	77	4
81	83	2
42	99	3
16	19	2
45	64	4
12	72	5
87	92	1
112	119	1
85	125	3
38	39	3
103	115	2
19	21	4
14	41	1
7	65	4
17	46	1
93	100	1
19	60	2
23	23	4
65	66	4
15	41	1
63	64	1
45	46	5
109	111	2
46	72	2
41	41	2
35	77	2
45	83	1
77	125	3
117	119	5
92	128	2
101	102	8
47	75	2
66	98	3
89	93	4
99	115	6
93	94	2
7	99	1
79	132	3
134	134	4
87	99	1
56	90	2
19	29	2
54	55	2
79	133	2
37	50	3
12	93	2
11	41	2
91	91	7
62	64	1
51	56	1
5	102	2
14	30	1
11	26	1
101	107	1
56	56	4
6	8	1
20	81	1
22	28	2
37	39	3
44	81	2
13	46	2
120	121	1
26	77	1
11	76	2
96	100	1
39	48	2
80	133	3
24	28	3
54	56	1
88	92	1
6	66	1
49	50	2
27	62	1
126	127	2
96	102	1
62	68	2
90	133	2
58	58	4
81	84	7
127	133	3
5	6	1
78	80	2
29	49	2
23	27	4
71	73	5
7	25	1
118	118	1
18	20	1
11	77	1
58	75	2
101	120	2
28	90	1
95	97	2
71	76	1
33	47	2
63	78	3
86	92	4
28	95	1
36	60	2
120	129	2
23	100	4
100	121	1
31	32	10
119	130	1
76	124	2
9	31	2
109	110	1
32	33	3
12	45	2
97	99	2
5	94	3
34	73	1
105	106	1
4	5	1
77	82	3
73	78	2
90	95	2
11	70	1
70	71	1
12	73	1
16	43	3
26	46	2
7	127	2
41	43	1
122	126	2
20	23	1
25	76	3
89	91	2
34	71	1
10	11	1
103	105	1
125	126	1
25	46	1
21	101	2
122	125	1
91	132	1
118	119	1
98	117	2
21	84	1
93	95	1
95	105	1
20	25	1
85	132	1
112	118	1
18	22	3
27	29	1
85	87	2
99	121	1
14	31	1
18	86	1
29	39	1
80	82	1
22	22	2
92	132	5
85	94	1
19	22	2
13	23	2
45	62	2
112	114	1
71	75	1
86	94	1
49	54	1
45	61	1
73	75	2
129	131	1
131	131	2
39	98	1
0	70	1
30	48	1
27	92	2
109	113	1
28	29	1
61	71	2
78	84	1
35	37	1
46	48	1
11	13	1
27	77	1
83	85	3
21	30	1
3	6	1
123	125	1
19	127	1
33	61	1
24	47	1
87	93	1
104	119	1
106	107	1
90	100	1
41	59	1
19	20	1
20	35	1
35	64	1
120	134	1
43	60	1
39	82	1
105	119	1
83	97	1
90	125	1
29	59	1
35	75	1
121	121	1
2	46	1
48	50	1
26	28	1
47	92	1
