207	208	1
109	109	30
7	7	13
53	54	8
35	36	2
14	35	2
183	184	13
20	20	6
48	50	3
112	113	6
32	32	28
116	116	31
3	5	7
116	117	2
112	112	36
68	68	19
200	200	14
183	183	10
185	185	22
61	61	14
191	191	7
72	73	4
46	46	11
74	74	8
51	51	22
216	237	2
76	76	17
213	213	14
240	240	21
206	207	3
41	53	2
18	18	13
199	201	2
174	195	1
73	73	22
4	4	24
170	170	19
209	209	14
119	119	19
236	237	6
214	215	3
208	209	10
173	173	18
92	92	7
184	184	9
91	91	4
159	159	28
75	75	15
182	182	20
208	214	3
89	89	6
227	227	15
7	8	3
179	179	18
156	159	5
238	240	13
234	234	10
48	53	2
230	230	15
220	220	11
215	215	6
111	120	1
55	55	13
59	59	27
44	45	8
158	159	3
237	237	14
229	230	8
206	206	4
108	109	7
95	95	17
177	178	5
208	208	16
83	83	4
170	171	4
186	186	12
63	63	9
210	211	4
64	65	9
150	150	23
59	60	3
165	166	8
195	195	9
187	187	16
102	102	23
6	9	3
77	79	3
199	199	22
198	233	1
153	153	6
72	75	6
232	233	3
160	160	17
228	228	18
117	118	19
114	115	10
179	180	10
155	167	2
79	79	11
162	180	2
225	233	6
210	210	24
218	218	14
108	110	1
213	214	6
113	114	9
212	212	23
41	41	17
118	118	23
43	43	10
239	240	6
21	22	12
165	167	3
225	226	3
205	205	16
44	44	12
156	156	24
86	86	20
155	155	24
214	214	18
154	155	5
71	71	15
49	49	14
14	63	6
207	207	8
226	232	1
203	203	17
55	113	4
145	145	15
32	33	5
5	67	8
117	117	23
111	244	2
50	64	3
145	201	2
180	197	2
47	48	14
55	56	7
14	15	4
238	239	11
36	36	22
10	10	18
114	114	9
106	106	7
102	103	3
66	66	17
239	239	9
236	243	1
196	196	15
57	58	16
216	217	5
56	59	2
84	85	1
202	202	22
81	81	16
169	169	15
17	17	10
87	87	14
231	231	13
171	171	13
248	248	16
173	211	4
82	82	18
23	23	16
80	80	21
162	162	18
82	83	4
189	214	2
18	20	4
173	174	4
36	45	1
24	24	9
153	222	3
229	229	14
54	55	9
177	185	3
154	156	2
34	34	13
220	245	3
28	28	9
221	223	5
47	49	3
49	50	7
238	238	18
202	203	7
64	64	9
181	181	17
107	107	17
176	176	9
146	176	5
60	60	6
219	248	3
103	105	12
57	57	8
110	110	26
42	42	19
220	235	1
233	233	11
187	208	2
163	163	12
146	146	9
243	243	12
187	190	2
11	11	21
217	217	1
30	31	6
191	192	6
3	61	1
167	168	5
175	175	10
74	88	1
160	161	2
27	27	8
54	54	15
22	22	5
201	229	4
120	120	10
59	68	4
89	90	6
53	53	9
198	198	17
233	234	6
196	207	1
204	204	24
246	246	24
35	35	11
161	161	8
172	172	10
196	197	2
115	115	8
15	15	28
6	7	16
227	228	5
17	18	5
163	164	4
76	77	14
237	246	6
167	167	16
113	113	8
8	246	1
150	192	1
15	17	5
169	197	2
119	120	4
113	115	3
117	119	4
45	45	23
190	213	5
77	77	12
11	12	2
93	95	1
168	169	8
4	5	8
194	194	7
194	196	7
15	16	3
110	237	3
203	204	16
20	21	2
1	1	15
100	100	12
30	30	9
40	40	12
190	190	7
201	201	13
33	33	22
173	212	4
146	162	4
173	175	3
81	82	5
112	114	2
76	78	3
221	235	2
231	232	4
164	164	14
65	65	11
235	239	3
180	181	10
191	211	1
25	25	13
69	69	8
71	72	4
65	66	8
14	244	1
88	88	11
154	154	17
201	204	2
118	119	4
79	80	18
193	193	10
197	197	17
223	224	4
227	232	3
30	34	3
215	238	3
150	151	5
58	60	1
156	181	3
1	9	2
152	153	9
183	193	3
232	232	10
38	38	11
158	158	9
96	96	8
78	78	7
70	70	11
74	89	6
76	82	3
192	197	1
235	235	18
38	57	3
14	14	7
26	26	15
87	91	3
69	70	6
31	31	11
176	179	1
182	183	3
194	195	8
97	97	12
108	108	17
242	243	4
70	72	8
230	231	9
73	74	4
62	73	5
247	247	10
166	166	9
2	26	3
157	157	19
219	220	4
98	98	7
84	112	4
240	241	5
9	10	9
115	116	6
223	223	14
43	191	4
149	149	1
239	246	4
56	56	10
147	147	7
72	72	7
15	19	1
48	60	1
8	8	35
52	244	3
115	119	6
176	177	20
153	176	2
241	242	12
165	179	4
204	207	2
239	245	1
233	235	4
108	240	2
202	205	1
10	11	8
187	189	2
67	67	11
237	245	2
38	45	3
247	248	3
166	171	2
30	55	3
240	244	2
177	177	11
85	103	1
39	39	13
182	189	3
176	191	7
19	19	8
19	20	6
157	158	3
196	198	5
149	226	2
6	6	10
94	94	15
183	185	3
84	84	16
87	88	4
104	106	2
192	192	11
35	58	1
168	207	1
39	40	7
212	213	8
61	63	2
93	93	8
7	226	3
42	43	5
184	185	10
32	35	2
197	234	3
189	194	1
218	219	2
190	210	6
211	218	2
221	221	7
3	3	6
37	39	3
14	56	2
48	48	5
168	168	12
20	48	2
95	96	2
175	176	6
11	16	4
37	37	15
211	211	9
70	71	1
176	180	4
106	107	10
25	26	9
227	229	3
86	92	5
176	186	1
165	165	9
75	76	2
110	182	1
48	68	2
199	200	4
20	22	3
50	63	2
163	165	5
28	32	6
239	241	2
164	177	2
75	78	4
152	158	3
96	97	5
9	9	16
216	219	6
188	188	14
189	193	2
13	13	1
177	181	7
196	206	1
11	46	4
3	4	4
104	105	6
4	6	2
112	117	1
161	169	2
188	249	1
164	214	2
245	245	1
12	80	1
171	215	4
168	193	1
97	98	10
218	236	1
36	47	2
228	229	3
213	217	3
175	177	1
110	111	2
217	219	4
193	195	3
58	58	12
47	47	8
151	151	11
226	226	8
166	181	5
177	189	4
172	173	4
62	62	4
212	214	1
200	201	4
244	245	6
90	90	9
183	208	1
16	35	1
101	102	7
155	156	5
109	153	1
198	199	8
36	38	2
69	72	1
100	101	1
191	215	3
243	244	2
50	50	7
175	181	2
205	207	2
172	185	1
157	159	4
31	57	2
190	191	1
172	193	2
169	196	2
56	82	4
152	152	11
85	147	5
193	194	8
188	239	2
58	76	1
1	2	3
242	242	10
166	167	3
11	15	3
237	248	3
29	30	6
108	238	3
101	101	6
3	31	1
79	83	4
41	93	2
47	52	2
57	60	2
211	214	3
236	236	9
87	94	1
179	182	1
219	219	6
96	98	9
87	92	3
61	76	3
107	108	6
30	56	1
1	45	2
152	164	1
201	202	1
104	104	3
197	198	7
96	116	4
217	248	4
70	74	6
70	76	3
31	56	2
95	114	1
178	178	7
145	206	3
193	211	1
10	203	1
106	108	5
12	12	7
29	29	7
41	42	3
40	42	1
151	207	1
45	46	2
156	178	4
69	71	6
15	28	2
180	180	5
107	144	4
186	237	1
193	196	1
85	101	1
103	104	4
37	38	3
60	61	3
51	52	5
85	86	10
225	234	1
167	194	2
43	44	6
172	192	2
42	87	1
161	162	2
227	231	1
218	220	7
197	209	3
220	222	4
4	48	1
84	86	2
202	204	1
108	114	1
48	63	1
22	23	2
16	31	2
199	233	2
34	47	1
98	100	5
0	1	2
186	209	1
3	6	2
169	171	3
105	105	3
185	211	1
245	246	7
172	203	5
174	177	1
167	169	3
38	212	2
21	21	6
17	20	2
63	64	2
28	29	4
150	222	1
80	82	3
0	62	1
24	25	3
217	218	2
168	172	1
164	168	2
179	199	5
6	21	1
109	110	2
222	224	1
5	53	3
12	14	2
221	222	3
234	235	8
151	202	1
83	84	5
38	44	1
28	64	4
30	37	3
68	70	1
16	27	4
49	60	3
80	81	3
52	53	1
165	203	2
46	47	5
225	225	7
61	62	5
177	188	2
212	225	1
6	52	1
246	247	1
153	154	2
198	200	2
90	91	3
175	178	3
8	18	1
230	232	3
209	210	2
227	234	1
168	200	1
111	118	1
168	171	4
2	3	1
14	30	3
4	69	2
28	30	1
179	181	1
109	164	1
92	93	2
94	95	5
33	36	2
88	94	2
178	179	2
111	111	6
215	216	2
86	88	3
115	120	2
213	216	8
78	81	1
215	248	3
97	99	1
193	198	1
10	24	3
62	63	1
187	188	1
97	101	3
4	68	1
54	58	2
238	241	1
118	120	1
68	69	3
53	56	1
89	99	2
205	206	1
189	196	1
147	175	2
58	59	1
111	145	2
33	46	2
16	16	6
15	30	2
99	101	1
163	178	2
95	98	2
12	29	2
156	158	2
219	222	1
165	181	2
47	75	2
150	198	1
151	197	2
174	175	4
189	192	5
224	225	2
11	45	4
114	119	3
170	196	2
162	168	2
44	78	3
35	47	1
153	159	3
197	201	2
101	107	1
9	231	1
186	187	3
67	68	3
17	27	1
231	233	1
144	201	1
180	185	2
121	121	1
8	17	1
165	182	3
33	37	3
224	224	2
93	94	6
81	84	2
188	209	4
68	88	2
23	24	2
59	70	1
34	67	4
165	168	1
60	77	2
36	37	2
37	44	1
40	58	2
150	155	1
180	206	2
214	219	1
53	70	2
197	200	3
162	172	1
93	113	1
231	234	2
85	85	8
173	207	1
49	242	3
52	52	3
152	177	1
110	113	3
47	63	1
72	74	1
18	19	4
3	30	5
181	182	3
185	213	3
146	161	2
68	87	1
8	232	1
155	162	1
2	2	5
144	147	1
19	38	1
84	105	2
42	61	2
240	245	1
170	192	2
51	65	3
51	62	1
34	173	3
51	71	1
91	93	1
238	246	3
162	163	1
233	236	2
39	41	1
1	65	1
2	14	1
103	103	1
96	111	1
77	78	2
152	178	1
101	110	2
235	236	3
192	193	1
211	224	3
56	92	1
51	57	2
226	229	1
52	56	2
61	65	1
0	0	1
211	247	1
19	67	1
222	222	4
188	191	2
174	174	3
216	216	5
53	55	1
221	224	1
111	240	1
57	59	1
198	209	3
198	201	3
56	76	1
163	196	4
0	7	2
187	235	1
48	49	1
51	64	3
159	161	1
36	46	1
99	99	3
197	199	3
241	241	2
226	227	1
149	151	1
111	116	1
244	244	2
6	11	1
51	76	3
29	32	2
178	180	3
161	163	3
71	75	1
73	90	1
15	54	1
186	219	1
6	8	1
52	55	1
195	197	2
240	242	1
61	64	2
236	239	1
49	51	1
65	67	1
74	75	1
237	239	1
107	119	1
1	52	1
27	29	1
68	71	2
182	191	1
39	74	2
88	98	1
5	5	2
110	236	1
31	32	1
195	196	1
232	236	1
164	165	2
204	205	3
236	241	1
197	203	1
62	70	1
34	37	1
212	215	1
41	52	1
2	29	1
21	43	1
187	191	1
78	82	1
66	67	1
52	231	1
100	111	1
204	228	2
51	53	1
50	62	1
185	215	1
92	113	1
153	224	1
9	24	1
163	176	1
13	14	1
96	114	1
220	221	1
178	185	1
2	56	1
151	154	1
83	86	1
169	170	1
51	61	1
99	110	1
6	27	1
96	113	1
248	249	1
50	60	1
