1	4	2
3	34	1
179	179	6
115	116	3
152	152	6
168	168	8
124	124	21
1	8	1
6	6	2
172	176	2
170	170	14
161	161	9
11	11	9
163	165	9
172	172	10
119	119	8
177	177	7
110	110	2
52	52	7
153	181	2
108	108	10
126	126	2
36	36	7
50	50	6
1	1	6
169	195	3
171	171	8
186	186	5
150	150	5
185	185	8
7	8	3
63	63	2
109	109	4
55	56	1
17	17	6
127	127	6
183	183	13
125	125	1
133	133	7
141	142	5
17	179	6
5	5	2
37	37	8
169	169	6
93	115	2
138	138	6
155	155	10
27	27	2
137	137	2
191	191	6
26	26	3
135	135	8
155	156	2
55	55	15
33	34	5
190	190	7
27	28	5
129	129	3
42	42	9
153	153	3
165	165	10
90	90	1
54	60	2
72	73	1
162	164	2
136	136	8
128	128	9
25	44	1
171	172	1
3	7	3
175	175	8
61	124	1
159	179	1
180	180	11
18	64	1
33	33	6
42	43	4
56	62	3
122	122	20
8	8	3
53	53	18
25	25	5
31	31	9
88	90	3
7	9	3
16	56	5
181	193	2
149	150	3
18	19	5
0	2	2
139	142	4
195	195	8
9	9	11
100	100	2
172	173	2
123	123	10
135	139	2
112	118	2
79	81	1
142	143	2
32	43	1
24	24	6
185	187	2
12	12	9
111	111	3
72	72	3
166	166	4
13	13	7
48	48	6
64	66	1
140	142	3
176	176	7
188	188	8
8	150	1
156	157	10
116	116	2
148	149	5
104	105	2
184	184	5
18	18	6
182	185	4
58	58	3
46	47	7
131	131	12
154	158	2
126	127	8
68	68	8
145	145	2
5	6	4
167	167	4
146	180	2
196	196	11
45	45	2
120	120	4
112	112	8
180	181	6
117	117	12
147	148	2
1	2	1
142	142	1
67	68	8
28	38	3
12	38	1
117	118	1
74	124	2
28	29	5
65	65	3
130	130	5
83	84	3
178	178	3
129	134	1
7	7	8
181	181	9
193	193	11
123	124	2
57	57	11
27	30	4
179	190	1
151	151	8
98	98	3
2	2	4
17	18	5
70	70	3
160	160	9
116	117	2
93	95	3
65	67	1
14	14	7
49	50	3
115	115	2
56	56	2
38	38	7
51	51	2
56	61	2
62	63	1
81	81	1
102	102	6
10	11	1
141	148	1
157	158	1
127	128	4
187	187	9
47	47	4
4	4	5
157	157	9
11	46	2
77	77	2
141	141	4
41	42	2
51	52	2
149	149	5
44	44	8
152	166	1
14	51	5
105	107	1
79	109	1
107	107	2
67	67	5
159	159	6
148	148	4
143	144	4
149	169	1
35	35	1
10	10	6
134	134	4
89	89	5
1	3	1
71	72	1
100	101	2
164	164	8
101	102	2
65	66	1
164	166	3
147	147	7
135	136	1
146	146	2
83	83	3
194	194	5
196	197	4
175	176	2
160	163	2
127	129	1
49	49	3
7	25	3
190	191	5
179	180	5
95	95	3
21	22	3
4	9	2
178	179	1
57	58	3
40	40	3
29	29	4
142	144	1
94	94	2
22	22	2
86	86	3
11	13	2
81	161	3
168	169	2
32	32	4
161	164	5
173	173	6
114	114	1
2	4	1
154	191	1
140	140	2
36	38	4
173	174	2
181	182	1
54	55	3
88	89	2
75	89	1
103	103	3
113	113	3
101	101	1
176	177	4
12	13	3
46	46	5
32	33	3
4	24	1
130	131	3
14	126	3
158	190	2
109	110	3
0	0	6
60	61	1
182	182	1
43	43	3
132	132	3
155	159	2
19	19	4
108	135	1
128	129	1
19	21	1
10	12	2
197	197	4
163	163	1
111	112	3
161	162	6
103	108	1
84	84	1
140	157	1
34	34	2
78	78	2
20	24	1
143	143	2
51	197	3
139	139	3
174	174	2
69	69	1
156	156	3
189	189	3
104	104	1
73	88	1
139	140	1
166	167	1
16	16	4
61	61	2
38	39	1
169	180	3
120	127	1
15	15	3
192	192	4
146	147	2
105	106	2
106	107	1
39	41	4
149	162	1
60	60	2
110	111	2
11	32	2
167	169	1
180	182	1
122	123	1
59	59	4
153	156	1
23	23	1
170	171	2
7	26	2
162	163	1
111	141	1
54	57	2
22	56	1
163	167	1
173	175	2
46	52	2
109	113	1
7	166	1
121	121	2
187	189	1
45	46	1
170	187	1
114	115	3
62	62	1
149	170	1
4	149	1
87	87	1
121	123	1
11	12	2
54	56	2
39	39	2
20	20	2
143	157	2
2	3	2
166	187	2
155	157	1
48	49	1
20	21	3
124	125	3
64	65	2
47	48	1
9	10	3
50	51	2
158	160	2
88	88	2
29	31	2
150	184	2
79	80	1
30	30	2
86	87	1
180	183	1
146	159	1
82	83	3
134	141	2
63	99	1
138	142	1
76	78	1
102	103	1
138	182	1
107	108	1
154	155	1
16	18	1
25	27	1
76	76	1
171	173	1
160	161	1
27	31	1
162	172	1
158	158	1
100	120	1
38	41	1
144	146	1
52	54	1
140	182	1
187	188	1
177	178	1
130	174	1
140	147	1
41	41	1
29	34	1
104	107	1
9	12	1
144	144	1
8	163	1
3	36	1
