169	187	4
209	209	47
99	99	41
156	156	67
224	224	30
210	210	33
78	78	35
114	115	27
102	104	9
192	199	4
217	217	28
76	81	1
104	104	21
112	115	4
100	101	5
27	28	9
68	71	7
107	107	43
208	208	45
66	72	1
68	68	42
200	222	2
216	242	3
151	151	57
103	103	11
239	243	5
183	183	27
216	217	19
88	88	45
238	238	39
240	240	45
115	115	58
66	66	56
52	52	26
188	188	51
95	98	3
166	166	57
73	73	21
70	70	40
119	119	41
49	49	41
192	192	33
247	248	7
8	9	13
93	94	18
181	208	7
218	218	32
57	57	34
179	213	3
158	159	15
181	181	44
59	248	2
232	237	4
229	230	18
246	247	14
81	104	4
219	219	47
26	26	35
217	218	7
115	244	10
5	5	32
75	76	11
203	203	48
87	87	30
104	120	5
40	40	25
7	7	23
77	80	4
187	213	7
105	106	17
171	171	42
176	176	52
190	190	22
85	87	4
63	67	10
25	26	7
244	244	46
193	193	29
110	110	38
198	229	1
213	214	21
172	174	6
59	59	24
186	186	31
240	243	5
18	18	31
215	219	5
64	210	4
52	205	3
168	168	35
157	157	45
165	166	18
189	190	18
116	116	41
76	76	39
38	38	32
100	100	40
34	49	1
53	53	39
61	62	18
167	167	51
3	4	1
4	4	16
92	92	41
81	81	49
69	192	6
89	89	19
242	243	8
152	152	31
231	232	10
53	54	18
106	107	11
223	224	17
145	145	34
89	91	6
114	146	4
197	198	26
184	184	76
246	246	35
24	24	31
206	206	26
245	245	33
158	158	23
210	238	6
187	188	10
15	15	42
213	213	23
109	110	8
54	55	10
154	155	14
55	56	24
45	45	49
39	39	29
51	74	1
84	84	24
235	235	25
173	174	5
113	116	7
62	62	39
108	108	34
214	214	66
63	63	36
81	82	13
33	33	45
118	118	58
231	233	1
221	222	10
36	36	26
233	234	17
37	37	30
97	98	17
17	17	8
87	88	12
47	74	5
96	96	32
63	64	9
23	23	23
248	248	17
102	102	34
9	11	2
64	65	8
96	167	4
48	48	27
72	73	16
194	194	24
236	236	30
54	54	34
69	69	47
210	211	32
101	102	13
161	162	14
227	228	40
71	77	3
203	204	16
181	245	2
175	175	46
204	206	8
31	31	15
175	176	19
150	156	3
185	194	3
164	164	34
205	205	27
111	112	22
43	44	7
32	32	34
55	207	1
179	179	28
59	83	1
96	97	5
40	41	7
185	185	38
195	195	24
241	242	9
180	203	3
86	117	3
109	109	49
174	174	35
60	61	16
240	241	13
115	116	21
184	199	3
29	29	31
167	168	13
6	6	29
12	14	5
93	93	21
159	160	21
199	199	53
72	76	4
37	38	7
6	7	6
112	112	52
192	194	9
97	97	21
57	58	26
101	119	4
61	61	41
120	120	15
38	39	14
8	8	31
59	60	14
48	81	6
44	44	48
95	95	33
247	247	28
239	240	24
213	215	5
155	155	37
205	206	6
196	196	35
241	241	64
119	120	4
51	81	2
168	211	8
24	25	12
97	167	2
150	150	62
46	46	29
48	51	2
187	187	24
97	99	16
202	202	30
183	185	7
79	79	34
201	201	79
194	195	18
163	163	56
71	191	5
231	231	41
60	60	31
177	177	66
202	205	8
114	114	31
2	3	16
164	165	17
208	214	4
208	210	9
169	171	14
71	71	26
20	20	29
182	183	22
64	64	21
102	106	5
197	211	1
225	226	8
86	86	29
222	222	25
160	161	7
172	172	31
238	239	14
163	165	21
28	28	23
168	210	5
10	10	25
228	228	20
26	27	6
38	41	4
51	51	29
228	229	15
27	27	39
40	227	4
183	184	11
116	244	3
199	218	2
217	233	3
111	146	4
65	65	32
192	195	1
155	156	3
58	58	32
196	199	7
7	8	2
44	45	11
223	235	2
147	147	17
233	233	25
78	79	21
34	34	33
242	242	30
69	191	2
50	192	1
193	194	17
12	12	22
43	43	35
236	237	25
105	105	22
151	152	3
75	77	6
204	204	42
56	56	39
74	74	16
11	11	31
153	153	26
201	223	5
16	16	28
94	111	2
76	78	3
94	94	22
66	78	3
171	186	2
70	186	7
49	247	10
198	200	8
98	98	33
75	75	22
193	213	6
168	170	2
242	247	7
52	56	1
221	223	4
82	82	36
212	212	64
177	210	2
94	95	9
181	232	9
178	193	6
111	111	40
23	39	5
108	109	4
14	14	19
117	118	25
166	175	1
174	176	2
165	165	40
216	216	59
4	34	7
149	150	4
112	113	14
118	120	1
225	225	22
198	198	23
177	178	14
217	219	1
170	170	36
178	178	27
85	85	26
188	192	8
79	80	11
116	243	1
237	237	56
44	89	4
3	3	24
25	25	23
1	1	13
197	197	44
106	106	19
215	215	33
9	9	46
166	167	5
52	62	3
1	2	8
31	32	16
57	247	4
212	220	3
69	71	19
115	117	2
182	182	37
207	207	46
71	74	4
20	21	13
199	200	11
153	154	8
66	67	14
181	199	5
85	108	3
184	185	17
229	229	46
200	200	59
173	173	52
209	245	7
60	244	2
214	235	3
204	205	19
110	111	10
196	221	1
99	100	10
4	19	2
65	197	1
58	247	6
210	239	3
220	220	41
159	159	45
67	67	32
80	81	14
170	171	20
61	197	2
179	180	14
65	67	5
245	246	31
112	237	1
234	234	29
154	154	52
18	19	14
80	80	34
17	19	5
186	188	8
162	162	17
119	243	3
23	222	4
178	185	5
208	211	5
19	19	26
214	215	16
20	22	6
73	74	15
31	35	7
27	29	5
226	227	15
201	202	5
81	86	3
41	204	4
169	169	36
53	56	1
220	221	8
115	146	6
41	41	43
85	86	9
186	187	17
112	146	2
89	120	7
113	113	20
168	171	2
189	189	18
55	61	7
4	15	2
42	42	34
107	108	5
203	206	1
160	160	26
163	166	9
185	186	20
47	47	12
111	243	1
221	221	19
195	196	11
89	90	16
119	144	6
198	199	18
226	230	3
75	78	5
41	44	2
69	70	23
116	117	4
0	1	5
243	243	38
30	31	7
146	147	6
49	85	3
37	39	7
209	214	11
66	117	4
226	226	29
245	247	5
21	21	40
230	231	13
208	209	18
88	89	7
5	38	6
162	163	16
91	92	13
35	36	3
207	213	2
89	144	2
67	68	13
230	230	20
118	119	18
56	57	11
90	90	26
218	219	29
151	153	2
97	100	2
35	35	20
93	100	1
180	234	1
173	176	5
92	93	8
231	245	3
69	75	5
4	14	10
172	173	11
77	77	26
94	120	2
48	77	1
62	249	1
55	55	35
219	233	2
91	91	20
193	196	2
223	226	6
36	69	3
163	164	20
108	166	3
60	242	1
171	173	3
4	24	7
245	249	4
50	50	32
93	95	3
181	182	7
10	11	9
22	23	9
28	29	10
232	232	32
32	33	8
180	180	30
48	50	6
82	84	6
180	181	9
80	187	3
209	211	3
158	160	11
22	22	28
212	213	11
157	170	12
194	196	7
183	195	6
55	62	6
206	207	15
214	216	2
224	225	10
247	249	6
211	213	4
117	117	41
196	197	11
239	241	3
42	87	5
242	244	4
78	83	2
102	119	9
209	244	1
155	194	1
121	121	2
79	84	6
25	33	4
150	151	12
231	234	4
246	249	2
221	229	3
203	212	4
151	154	1
72	72	32
101	101	30
167	196	1
105	107	4
242	246	4
69	198	2
227	227	15
52	53	2
169	170	21
222	223	13
23	35	7
49	210	2
223	229	7
174	180	2
59	145	1
187	232	3
191	217	1
69	72	3
111	113	2
3	5	2
223	223	10
65	66	8
28	31	2
91	98	6
177	209	5
187	212	3
178	208	3
111	247	3
238	241	8
203	224	1
2	2	21
171	172	14
89	100	2
118	145	1
73	76	10
77	79	8
170	187	3
24	26	5
4	35	2
90	92	1
193	206	3
200	201	7
77	78	9
144	145	4
5	19	4
68	70	7
190	197	5
79	83	2
60	248	3
72	199	2
244	245	6
180	187	1
100	103	2
50	51	5
231	237	1
78	114	4
220	244	1
178	189	2
69	188	6
62	63	4
19	20	5
104	105	10
95	105	2
89	106	5
29	30	7
189	196	3
41	201	4
45	46	12
178	211	3
227	229	4
78	117	4
49	50	23
190	192	2
248	249	2
16	17	7
181	186	4
112	147	5
211	211	20
226	228	3
70	72	2
165	192	3
3	35	7
168	169	11
156	185	6
162	172	1
109	120	1
11	12	9
147	152	2
146	146	5
161	161	20
184	191	5
144	144	1
42	43	11
42	203	2
191	194	2
114	147	3
233	235	2
208	238	2
94	109	6
208	247	4
198	212	2
176	182	2
3	37	2
213	236	7
186	196	5
196	211	4
199	219	3
157	158	19
218	233	3
50	75	1
57	59	5
54	57	2
95	96	4
67	195	3
178	179	5
241	248	3
182	195	2
214	236	3
51	210	4
111	114	1
77	84	1
237	241	9
237	238	18
189	191	12
210	213	5
112	114	5
41	203	4
175	208	3
238	240	5
171	185	2
218	220	7
60	73	2
209	248	1
29	31	6
148	161	1
33	34	3
237	242	1
214	219	2
239	239	27
77	119	1
35	52	1
162	164	6
47	68	1
242	249	1
71	76	9
60	119	3
199	236	3
244	247	2
184	186	4
48	49	7
167	177	6
62	244	1
150	152	6
13	13	3
152	153	3
238	242	6
193	243	3
108	120	1
86	87	5
90	99	5
113	114	18
191	192	17
58	59	7
64	247	1
42	86	4
149	149	4
217	232	2
207	208	4
29	33	1
79	116	2
211	222	3
190	194	4
86	116	1
30	30	11
212	222	3
157	164	1
87	104	4
182	184	3
175	185	9
165	167	4
234	235	9
103	104	3
175	184	6
30	45	2
193	232	2
62	78	1
102	103	5
209	210	11
60	83	1
96	98	1
180	198	2
70	229	1
67	72	4
82	104	2
118	149	3
172	246	3
173	178	1
86	111	3
90	91	9
204	222	2
97	110	5
34	38	2
4	5	6
235	236	5
159	184	2
241	243	3
157	160	16
66	195	4
222	224	5
42	202	4
23	40	4
29	32	1
186	192	1
205	240	1
84	85	8
62	73	3
165	178	3
169	178	2
62	95	2
85	88	2
226	229	2
156	168	2
187	197	2
77	81	4
19	38	5
215	216	4
71	73	6
197	199	5
117	119	4
209	247	4
120	121	3
220	245	1
211	238	2
175	232	2
95	166	5
223	225	3
176	177	9
156	186	1
213	219	2
199	201	2
185	200	1
201	224	1
64	75	2
61	72	3
41	42	9
186	230	12
52	212	1
111	245	3
112	116	1
59	61	1
202	203	9
21	23	4
59	62	2
2	36	4
2	38	3
235	237	4
50	98	2
12	13	3
207	209	2
70	74	3
178	188	1
111	115	4
224	226	2
74	76	3
65	76	3
229	231	1
232	236	2
69	197	4
90	98	2
1	3	3
187	210	2
77	83	2
224	230	3
49	197	1
176	193	1
51	52	9
9	10	10
83	84	5
213	217	1
70	187	4
246	248	2
249	249	7
179	231	5
220	222	1
188	194	3
72	74	5
110	112	1
88	155	2
180	232	2
43	87	3
62	94	1
167	175	1
202	204	3
186	193	2
5	39	1
171	179	6
88	103	3
188	189	3
74	75	4
34	35	9
91	93	2
190	191	1
47	67	6
82	85	1
83	83	7
7	9	1
166	176	5
160	162	1
44	46	2
70	71	2
99	103	3
164	178	1
210	212	3
94	112	2
31	33	3
211	212	7
39	162	1
15	21	1
21	22	8
8	17	1
49	67	4
174	184	3
67	78	1
46	70	1
166	177	5
64	209	2
203	221	1
50	96	3
214	218	5
90	93	2
47	48	4
202	222	1
87	89	2
178	182	1
193	195	12
120	145	3
50	66	2
167	193	3
163	167	5
192	193	6
149	151	3
47	49	5
173	229	1
200	224	4
201	203	2
42	44	1
175	182	5
82	83	3
98	99	2
66	76	2
157	186	1
34	37	2
48	52	3
174	207	3
191	191	12
144	146	1
61	246	3
145	152	2
36	48	2
14	15	6
159	166	3
178	230	5
188	191	4
84	119	1
203	220	3
18	20	2
97	166	2
61	73	2
107	120	2
156	163	3
99	101	3
15	17	2
183	191	2
203	205	3
213	220	1
74	199	1
192	217	6
81	88	2
174	175	2
96	166	3
44	202	3
181	184	1
38	40	1
232	233	5
225	228	3
151	197	1
60	62	1
215	217	2
169	211	1
180	185	3
243	244	6
69	76	1
27	147	1
51	80	2
42	201	2
63	68	4
143	240	2
34	36	3
149	157	1
161	163	3
187	189	2
8	215	1
19	21	3
201	207	2
91	184	1
78	81	1
39	40	4
71	192	1
175	191	1
225	227	3
196	232	2
182	232	2
210	242	2
98	164	2
109	112	1
55	57	3
101	103	2
117	120	2
84	111	1
55	58	2
222	231	1
146	226	2
223	245	3
17	18	6
208	242	2
192	197	1
112	240	1
102	117	1
231	236	1
7	16	1
146	152	5
56	218	2
215	218	1
210	243	2
50	56	1
157	162	2
5	6	4
11	199	2
200	219	1
180	196	1
219	220	2
63	198	4
177	182	3
73	75	2
25	29	2
56	100	1
78	84	3
82	86	1
0	0	2
169	198	1
179	181	2
103	120	2
174	206	2
159	183	2
58	248	2
5	23	2
241	245	3
68	76	2
15	16	3
179	203	2
98	101	1
221	245	1
181	183	1
51	247	1
72	75	2
203	222	5
224	227	1
92	98	3
110	246	3
182	206	1
5	14	3
19	23	3
209	239	1
173	179	4
203	225	3
193	208	1
221	231	1
6	11	2
174	235	1
179	188	2
89	93	2
215	236	2
157	167	1
14	18	2
185	193	1
85	109	2
184	209	1
230	236	2
68	69	3
42	204	1
80	101	1
37	41	1
176	195	1
180	212	1
96	101	1
62	246	1
25	204	1
61	98	2
170	179	2
109	119	1
238	248	1
178	210	2
193	215	1
164	176	2
194	214	2
187	211	3
78	184	2
167	169	1
75	102	3
191	233	1
2	4	4
56	59	2
171	187	1
213	218	2
177	232	4
65	216	1
4	6	2
95	108	2
105	108	3
180	201	4
194	198	1
219	243	2
51	53	3
10	19	2
187	190	3
208	246	1
62	82	1
67	77	1
61	74	1
157	163	2
56	242	1
182	196	1
95	109	2
84	116	1
67	75	2
50	95	1
41	229	3
40	228	2
172	185	2
18	24	1
95	106	1
88	104	1
205	207	1
175	226	1
223	246	2
54	82	2
176	178	2
12	18	1
58	60	2
50	57	1
212	247	1
53	55	2
71	199	1
49	55	2
15	150	1
73	192	1
208	244	1
212	214	3
54	56	1
5	12	1
163	182	1
165	177	2
79	86	1
187	194	1
69	229	1
237	240	3
91	101	1
157	171	1
222	246	1
51	209	2
64	67	1
210	245	2
49	51	1
51	200	1
183	201	3
165	176	4
200	235	1
65	117	1
50	97	2
69	74	2
76	82	1
54	168	2
164	167	1
178	183	2
69	78	1
107	121	2
144	205	2
213	216	1
174	178	1
177	247	1
92	99	1
104	119	4
146	151	1
3	6	1
158	166	1
46	90	1
87	94	2
156	162	3
170	184	1
60	247	1
182	207	1
49	64	1
11	18	1
13	14	3
186	194	1
22	226	2
26	47	1
199	234	1
52	94	1
17	22	1
177	181	1
61	95	1
71	195	2
29	46	1
23	27	1
173	185	2
189	195	1
218	231	1
164	166	1
68	118	1
240	242	1
180	186	1
76	79	1
79	85	1
33	58	1
199	231	1
97	109	1
178	197	1
23	24	2
56	62	1
44	204	1
244	246	1
25	38	1
184	198	1
180	229	1
180	189	2
59	243	1
96	99	1
119	145	1
166	196	1
11	14	1
199	220	1
