39	39	13
27	27	10
42	43	17
69	69	8
58	58	17
44	44	6
96	96	3
90	101	3
51	51	19
54	80	5
58	74	2
80	81	5
81	81	3
41	41	25
77	77	13
66	67	2
64	64	15
43	43	7
87	87	8
48	55	2
56	60	1
54	96	3
50	50	9
54	83	4
30	30	14
74	74	11
32	45	2
85	86	8
85	85	26
59	60	3
60	60	14
31	31	7
65	65	13
67	68	4
48	48	13
52	52	18
27	33	1
82	95	1
101	101	21
97	97	8
53	57	1
63	64	3
22	22	5
34	34	4
51	76	2
37	37	2
45	45	8
93	101	1
33	33	8
73	73	13
58	73	5
79	79	11
46	46	9
28	28	3
84	93	2
89	89	17
59	73	5
91	91	10
61	61	3
68	68	16
68	69	6
99	99	20
79	92	7
51	52	6
92	98	2
63	63	5
38	46	3
57	57	12
36	37	5
70	70	14
26	35	3
53	78	7
34	35	4
43	77	3
37	53	6
83	83	13
24	24	4
42	42	5
53	98	2
91	101	2
28	29	1
84	84	7
36	36	7
87	92	1
59	59	10
40	40	11
86	86	7
100	100	24
54	54	9
75	75	19
67	67	14
24	25	3
61	82	1
93	93	4
23	33	5
95	95	5
98	98	8
35	74	3
53	82	6
47	47	8
23	23	3
25	25	8
87	88	5
27	94	2
32	32	10
39	44	2
52	80	2
76	77	4
88	88	4
72	72	4
93	95	5
38	38	9
90	90	11
55	55	9
85	102	2
60	62	2
34	93	2
54	55	2
22	29	4
33	37	3
89	95	2
80	80	12
53	53	6
77	78	2
34	46	1
50	52	2
101	102	7
71	71	7
61	62	4
49	49	12
44	45	1
50	51	2
50	95	2
59	65	5
64	65	3
94	94	6
47	48	3
65	66	1
95	96	1
25	33	1
20	92	3
78	79	2
102	102	3
73	74	3
45	77	3
35	35	8
76	76	5
51	77	1
89	92	1
23	94	2
66	66	8
89	90	2
78	78	5
96	97	3
32	33	1
65	99	1
56	56	9
81	82	4
62	62	6
93	94	4
60	61	1
48	52	3
53	54	6
34	57	3
92	92	2
46	47	4
29	32	3
87	94	5
57	58	1
87	89	1
83	84	5
44	77	2
44	79	4
33	47	2
94	95	2
20	20	2
27	28	2
37	75	2
72	73	4
38	57	1
79	80	2
56	57	9
53	83	1
64	67	1
58	59	2
94	98	1
20	23	2
98	99	2
37	57	1
29	30	3
87	91	1
35	94	1
64	68	7
51	58	2
60	81	1
26	26	4
95	97	1
90	91	1
56	61	2
69	73	1
35	50	1
25	77	2
69	70	1
87	95	2
59	74	2
71	73	1
61	92	1
35	89	1
46	57	2
35	63	2
88	89	3
57	68	1
86	88	1
26	27	1
29	29	1
55	89	3
78	85	1
23	29	1
38	61	1
49	66	2
27	97	1
56	59	2
93	96	1
33	58	2
56	65	1
58	78	1
61	72	1
49	76	1
58	61	2
96	98	2
52	82	1
59	64	1
35	86	1
80	97	1
35	44	1
92	93	1
20	22	1
86	92	1
68	70	1
50	64	3
63	89	1
91	92	1
49	52	1
62	63	1
55	83	1
62	68	1
88	94	1
