88	100	2
60	60	7
36	160	3
234	234	8
71	75	1
39	48	4
84	90	3
81	83	1
14	14	2
50	60	2
77	77	12
99	101	3
91	169	4
80	81	4
48	49	3
152	163	8
245	246	3
183	183	6
157	209	1
112	112	10
21	86	1
19	40	3
115	115	8
241	241	10
110	110	6
249	249	3
89	175	5
111	111	4
154	180	3
193	193	3
32	32	9
192	192	1
42	42	2
58	58	3
173	173	10
35	48	3
22	29	3
31	33	4
103	170	2
31	31	7
64	64	7
18	20	5
93	93	9
49	54	2
17	18	1
56	56	5
86	86	5
29	29	4
88	88	7
44	44	3
4	5	6
27	27	9
150	151	3
225	225	2
207	207	6
47	84	4
166	198	7
57	76	1
200	200	4
184	184	3
240	240	3
217	217	8
163	166	2
55	55	8
79	79	4
8	113	1
107	107	6
12	12	8
72	77	1
158	215	5
244	244	4
75	182	4
66	66	9
161	164	1
18	18	8
103	103	2
36	113	3
5	5	5
96	96	9
40	41	2
94	94	2
49	49	13
159	159	7
114	114	8
51	51	10
106	107	5
16	19	1
239	240	4
165	165	3
230	230	8
214	215	7
102	170	4
52	66	3
21	35	3
14	15	6
163	167	2
46	48	1
97	98	5
147	147	4
117	117	8
28	28	6
201	201	7
42	226	5
44	235	2
146	153	3
10	10	4
31	44	4
95	95	13
166	166	13
82	82	6
158	189	2
72	72	4
232	233	2
84	84	6
43	44	4
15	15	3
182	182	6
150	150	13
85	85	7
29	37	1
213	214	2
90	90	2
55	57	1
169	209	1
213	213	14
197	198	7
63	64	3
45	45	4
48	71	3
78	84	3
56	57	4
161	162	1
4	14	5
2	15	2
220	220	10
32	45	7
163	163	3
226	228	3
6	33	1
215	239	2
155	155	5
167	176	2
179	180	3
74	74	7
36	47	6
98	98	2
50	50	4
233	233	3
163	176	2
23	27	3
216	219	1
65	65	6
25	222	3
115	116	1
178	179	4
235	235	3
53	53	5
164	164	4
146	160	5
175	175	7
91	91	10
25	26	2
166	167	2
191	191	4
187	191	4
50	66	4
24	24	5
117	120	2
0	242	2
157	157	3
190	190	3
49	71	3
216	217	1
47	64	4
195	196	1
208	210	4
62	150	1
154	162	1
101	101	6
76	80	3
102	103	4
49	73	2
28	44	1
99	99	9
228	229	3
64	102	1
22	36	3
221	222	7
229	229	6
49	74	1
41	41	10
243	243	3
219	219	2
71	171	4
6	18	4
204	205	4
158	158	2
7	9	1
108	108	2
68	76	1
54	98	1
11	11	4
61	62	4
194	212	3
68	68	1
246	246	3
236	236	3
198	199	3
75	76	1
73	76	3
119	144	4
160	160	3
76	77	5
116	116	3
3	22	1
32	34	1
38	38	3
118	118	4
85	86	1
24	27	1
25	25	11
162	163	2
81	81	8
214	214	4
162	195	1
30	30	9
240	243	3
29	30	5
32	47	1
153	219	3
185	185	1
114	115	1
68	90	1
204	204	1
93	109	2
204	228	2
7	35	1
217	247	4
76	96	3
232	232	1
62	71	2
4	19	2
39	71	4
40	42	2
92	92	4
36	36	7
198	198	4
227	227	2
178	178	2
177	177	3
203	203	4
5	14	3
112	118	3
90	94	2
63	69	4
201	209	2
102	102	5
25	27	3
89	89	11
196	246	1
80	82	3
199	200	1
193	194	5
170	170	5
48	74	4
25	28	2
17	17	11
237	239	4
9	9	13
50	110	3
32	33	3
167	167	3
208	208	3
215	217	3
245	245	9
93	94	3
44	46	1
22	23	3
242	246	4
89	118	2
72	75	3
57	59	5
46	47	5
151	173	1
212	233	2
51	52	1
47	59	3
69	69	1
183	184	4
89	92	3
4	13	1
211	211	2
202	202	5
154	154	2
29	35	1
47	47	2
20	33	4
155	156	1
223	224	1
220	234	3
63	119	1
15	16	1
23	23	4
40	43	3
46	46	2
23	45	2
59	59	5
212	213	3
200	201	1
35	42	3
94	95	2
82	83	3
48	50	4
152	157	1
179	179	4
118	172	1
228	228	4
151	151	9
215	215	5
150	247	3
172	172	4
73	74	1
84	118	4
76	97	3
240	247	2
203	211	4
96	97	1
36	37	3
168	208	1
112	169	2
189	189	3
53	60	2
26	26	12
6	7	4
62	90	1
110	116	3
9	10	3
75	75	2
26	52	2
188	188	4
26	27	2
206	207	2
226	226	3
49	60	1
36	60	2
37	37	8
47	55	1
3	15	1
217	218	2
177	181	1
162	162	2
6	6	2
168	176	2
86	103	1
62	62	6
159	160	2
185	191	2
12	24	3
172	200	4
4	4	13
50	75	1
79	80	3
156	156	5
79	81	6
24	25	4
30	37	3
165	180	2
78	78	4
57	57	3
121	178	1
159	195	2
165	199	3
109	109	5
7	10	2
163	164	1
85	96	2
2	14	1
212	212	5
102	107	2
41	42	1
69	107	1
238	238	1
163	193	1
216	216	7
22	22	9
169	169	5
48	48	5
146	151	2
31	50	3
39	39	4
3	3	4
45	46	4
188	191	2
205	205	2
69	71	1
33	33	3
21	21	6
227	236	2
197	200	1
87	87	3
163	181	2
43	46	4
46	65	1
188	190	3
205	206	1
71	168	1
168	209	1
246	247	3
187	187	2
52	52	6
210	210	4
247	247	6
8	8	3
154	156	2
107	108	1
221	221	3
16	16	1
88	89	1
35	35	2
105	105	3
231	232	3
90	91	2
38	39	2
68	69	1
43	235	1
96	99	1
1	1	1
12	15	1
218	218	2
22	32	2
23	33	1
6	22	2
92	107	2
40	40	2
188	210	1
232	238	4
48	72	1
29	44	2
66	67	1
181	181	3
193	195	2
111	118	2
87	91	2
119	119	1
243	244	2
169	172	1
80	83	1
91	102	2
14	23	1
76	76	2
80	86	2
72	74	1
113	113	2
231	231	2
80	80	2
229	230	4
114	116	4
165	198	1
203	204	1
197	199	1
238	239	2
209	209	2
98	99	2
113	116	1
61	63	2
215	216	2
152	158	2
41	241	1
171	171	1
175	184	2
100	117	1
62	68	4
32	46	1
67	70	3
34	38	1
58	182	1
58	83	1
177	180	1
43	226	2
3	5	1
70	70	2
77	78	2
118	119	1
190	195	1
170	176	1
43	43	3
90	103	4
32	68	3
56	182	1
88	91	1
1	9	1
163	215	1
77	99	2
186	197	1
35	37	1
21	22	1
169	204	1
43	103	1
52	54	2
57	68	2
107	116	1
185	186	1
169	190	2
68	179	1
88	109	1
58	86	1
214	235	4
82	88	1
109	167	1
30	33	1
57	58	1
218	219	1
6	20	1
58	75	3
146	149	1
175	176	2
82	178	1
74	78	1
170	181	1
108	110	1
241	243	1
195	195	1
111	170	2
20	39	2
162	164	1
20	34	1
186	190	3
158	248	1
220	221	3
51	180	1
232	239	1
108	109	1
8	9	1
216	218	1
4	18	2
226	227	1
153	156	1
97	97	1
33	35	1
33	93	1
62	70	1
85	95	1
237	248	1
28	52	1
101	103	1
48	66	1
68	70	1
37	75	1
150	153	1
7	7	3
218	246	1
61	61	2
174	174	1
20	20	1
34	34	2
171	201	1
33	43	1
201	206	1
51	53	1
209	214	1
197	197	1
180	182	1
171	198	1
46	50	1
215	218	1
63	75	1
3	112	1
54	54	1
79	82	1
173	205	1
57	105	3
194	194	1
242	242	1
168	168	1
73	82	1
83	84	3
54	79	3
105	106	1
157	158	1
145	145	1
118	120	2
64	67	1
72	76	1
10	12	1
2	2	1
30	35	1
237	237	2
13	13	1
196	199	2
18	19	1
47	67	1
75	87	1
46	74	1
147	161	1
95	102	1
109	158	1
70	117	1
107	117	1
173	174	1
82	118	1
38	54	1
236	237	1
176	181	1
