139	139	5
77	77	4
181	182	3
107	107	15
17	17	2
12	12	10
30	30	3
4	4	15
176	178	13
39	39	6
146	147	1
50	50	7
94	94	4
195	195	8
69	69	6
194	194	8
127	127	5
10	10	13
188	195	2
151	151	7
9	10	8
163	165	2
161	162	2
184	184	14
126	147	1
132	135	9
135	144	2
7	7	12
2	18	2
181	181	7
32	32	5
3	4	3
197	197	17
193	193	7
154	157	3
48	48	9
169	170	1
22	22	1
131	144	4
113	113	4
46	55	1
9	9	7
166	175	4
133	133	16
166	189	1
182	183	7
135	135	5
37	38	7
115	132	1
150	150	8
165	173	2
40	42	3
178	178	13
164	191	3
124	124	8
141	142	3
189	189	12
75	84	1
148	184	3
116	116	7
26	59	4
165	191	2
4	21	5
172	197	4
185	185	15
112	113	4
169	169	8
153	153	11
143	143	1
29	73	4
160	160	4
34	34	14
15	15	13
90	90	2
187	193	2
45	45	17
192	194	2
30	31	4
101	106	2
53	53	8
122	127	2
185	186	18
102	144	3
43	43	4
164	172	2
24	27	2
31	31	11
0	2	7
102	106	4
109	111	2
186	186	10
140	143	3
6	21	1
58	58	5
28	72	1
72	72	5
14	14	2
175	180	1
157	163	2
175	175	15
68	69	3
25	26	6
5	22	6
33	33	6
167	168	3
45	46	4
5	5	12
158	190	1
10	11	1
35	65	1
61	62	2
170	170	15
107	108	3
143	151	4
2	3	4
2	2	9
168	169	9
64	84	1
19	19	6
14	54	3
58	64	1
101	101	7
158	159	9
109	109	11
181	183	2
131	132	1
14	24	3
157	158	3
0	0	10
55	55	3
103	103	7
150	154	4
21	21	7
58	73	2
170	171	3
130	141	2
5	17	2
172	172	5
135	137	4
134	134	10
168	168	7
82	82	4
108	108	6
98	107	3
8	8	6
122	122	5
127	128	4
125	125	16
42	44	4
164	164	2
173	173	8
138	138	4
3	19	3
67	67	4
103	105	1
89	90	3
23	23	5
137	137	7
23	24	2
0	4	4
50	62	5
132	132	2
118	118	8
187	188	11
116	177	2
146	146	4
109	110	7
42	42	5
119	120	7
27	28	4
68	68	4
41	193	3
128	128	7
174	176	3
10	13	3
123	123	8
149	149	8
26	33	2
4	17	3
70	71	10
24	24	11
87	87	4
158	158	5
59	59	9
129	168	3
128	129	5
46	47	2
183	183	8
37	69	1
166	166	9
60	74	3
105	118	1
36	37	5
48	142	2
6	6	3
99	99	16
189	190	3
171	172	2
152	152	5
49	49	6
176	176	3
196	196	12
33	34	3
161	163	1
80	80	8
162	169	4
152	153	3
9	58	3
61	61	7
100	102	4
180	181	7
2	55	6
13	49	4
163	180	1
140	140	4
17	33	4
81	129	1
77	86	2
100	100	5
176	181	2
45	122	2
154	154	9
25	27	2
193	197	2
159	159	6
151	177	4
160	169	2
124	125	3
154	158	2
111	111	7
57	57	2
47	128	2
174	174	5
16	17	2
171	171	9
35	35	17
109	162	2
178	182	2
114	114	4
123	124	2
25	25	2
149	184	2
117	140	1
20	22	5
7	194	1
10	69	2
157	160	3
96	110	1
36	36	6
104	105	4
26	26	8
148	148	3
188	189	5
176	177	1
137	174	1
55	63	1
41	41	1
188	188	5
145	145	5
130	130	8
115	153	3
3	7	2
156	156	17
3	3	8
17	20	1
180	180	6
159	160	5
130	131	3
193	194	3
194	195	5
105	105	4
107	178	1
155	155	6
21	61	1
9	40	1
123	127	4
121	121	6
110	115	2
44	44	9
136	137	1
155	158	2
86	87	1
36	38	2
11	11	2
8	60	1
13	43	2
54	54	11
38	162	2
42	59	1
64	64	3
54	56	5
9	11	3
161	165	2
131	135	3
78	79	1
47	51	2
156	157	2
114	149	1
131	138	2
58	59	3
141	151	6
163	164	3
144	145	3
157	196	1
147	147	14
51	51	10
99	179	2
115	115	5
190	191	5
177	178	1
11	57	4
146	148	3
5	41	1
6	27	2
0	1	1
158	179	2
131	133	4
162	192	1
83	85	3
183	184	5
192	192	7
37	37	8
188	190	2
18	18	3
70	70	4
134	138	1
22	23	2
135	136	2
120	123	2
99	178	1
165	167	1
106	170	2
182	182	4
13	13	7
151	164	1
49	50	2
118	164	2
20	20	13
98	98	5
157	157	6
26	35	5
29	170	1
133	134	1
29	32	1
130	155	1
75	75	4
141	143	2
145	185	4
150	167	1
29	30	5
134	140	1
175	176	2
40	41	6
76	87	3
171	174	2
106	107	2
42	46	1
134	135	5
129	130	2
137	138	1
163	163	3
161	164	5
162	164	1
173	175	1
167	167	6
120	120	3
162	162	3
51	129	1
151	152	7
46	46	5
117	118	4
116	118	2
41	47	4
165	166	2
84	85	1
189	193	3
136	136	4
20	25	4
39	40	2
18	24	2
47	47	8
74	75	4
184	187	1
4	5	1
149	158	1
187	187	4
16	16	5
191	191	11
170	176	3
126	127	4
142	142	4
24	25	2
97	115	4
47	183	1
160	165	4
182	188	2
33	53	2
78	105	1
145	147	2
56	56	5
77	79	3
27	27	2
27	30	1
117	117	2
180	187	1
18	21	2
78	78	2
184	185	1
173	191	3
97	98	3
61	64	2
8	9	1
146	159	1
147	184	3
185	194	4
149	151	1
50	129	1
129	129	6
104	106	4
144	163	2
172	177	1
120	121	2
10	16	2
102	103	2
126	126	3
119	180	3
133	136	1
63	63	8
179	179	4
1	1	5
105	117	4
184	186	1
186	189	2
150	152	1
161	161	6
99	102	2
177	177	2
174	175	8
115	116	4
131	131	4
167	177	1
179	185	1
22	24	1
73	73	1
72	73	2
5	37	3
2	26	2
44	45	3
148	149	3
119	119	5
147	148	1
103	118	1
38	39	1
4	57	2
158	182	1
95	110	3
115	185	2
114	115	4
105	106	6
55	56	3
8	16	3
122	125	1
123	130	4
36	39	2
45	94	1
149	150	5
145	187	3
179	180	3
110	110	4
49	78	3
52	52	5
79	80	4
119	121	1
115	180	1
94	95	1
88	88	2
48	49	2
46	58	1
18	100	5
156	177	1
149	171	1
96	115	1
72	75	3
143	144	2
16	42	2
168	191	2
171	188	2
52	53	4
116	117	1
157	168	2
99	100	2
165	165	2
85	127	2
161	173	3
163	174	6
27	64	1
196	197	5
5	24	2
158	162	3
76	77	3
111	121	2
29	47	2
144	144	6
29	29	1
8	14	1
43	171	1
153	168	4
35	36	2
145	180	2
96	96	4
171	195	2
103	104	2
62	63	3
13	14	1
123	188	1
54	184	2
19	20	2
27	127	1
43	44	2
53	60	1
28	28	3
102	102	3
9	30	2
13	55	1
60	62	1
106	106	4
31	73	2
192	193	7
35	118	1
104	104	5
65	67	2
7	19	1
112	163	1
10	12	1
38	125	1
100	101	1
86	125	2
120	181	1
31	32	1
15	54	3
172	175	1
178	180	2
97	97	4
24	30	1
134	139	2
65	65	1
65	73	2
103	182	1
149	194	1
110	137	1
153	160	1
154	155	3
43	46	1
141	141	1
34	64	2
3	39	1
89	124	1
175	178	1
116	159	2
172	194	1
190	190	2
191	192	2
76	76	2
183	189	3
38	38	3
119	179	2
41	42	1
64	66	1
115	158	1
115	186	2
86	86	2
74	76	1
155	157	1
95	109	2
1	4	1
173	174	1
154	156	1
122	123	1
100	119	1
1	2	1
108	109	2
105	107	1
155	177	1
132	180	1
143	153	2
145	146	1
57	60	1
87	128	1
53	73	1
112	112	2
87	88	1
41	182	1
4	8	1
139	140	1
156	184	2
153	154	1
6	81	2
24	26	1
61	63	1
99	184	1
28	34	1
158	161	1
150	177	1
118	119	1
141	146	1
54	77	1
74	74	1
140	165	1
152	158	2
155	156	2
133	140	1
116	144	1
169	179	1
18	64	2
82	97	1
152	176	1
108	115	1
154	185	1
191	193	1
23	68	1
34	38	1
99	101	1
28	30	1
93	94	1
5	18	1
47	48	1
121	126	1
82	126	1
54	69	2
169	178	1
31	45	1
35	37	1
128	149	1
