9	49	3
161	161	40
26	26	58
58	69	5
72	72	72
54	55	25
157	157	32
44	50	3
145	145	40
10	10	59
116	116	30
85	85	71
153	154	9
62	63	11
165	165	15
108	108	59
99	99	69
63	63	30
124	124	44
117	118	9
82	83	18
37	37	50
101	117	1
168	168	27
50	50	35
104	121	1
39	39	28
89	89	55
49	49	43
93	93	39
162	164	12
94	94	49
15	15	42
18	18	31
81	82	19
101	101	50
144	144	34
66	66	43
20	39	3
120	120	43
25	25	43
113	113	78
134	134	41
107	107	52
91	91	58
84	87	28
25	51	2
78	78	47
44	44	59
40	41	15
43	43	78
0	0	35
152	152	39
167	167	47
57	57	42
38	38	56
165	167	13
129	131	14
97	97	69
27	41	6
150	151	20
68	75	1
81	81	52
146	147	14
5	5	58
46	46	39
35	35	51
156	167	7
103	104	21
13	13	72
136	136	51
4	4	74
3	3	47
91	96	2
42	43	20
115	124	2
57	61	4
151	157	3
47	48	27
160	160	40
76	76	68
77	77	47
79	79	55
62	70	5
19	22	6
2	14	2
56	56	50
27	27	53
100	100	59
132	132	50
100	104	8
12	13	24
81	93	4
118	118	11
24	24	46
39	40	22
130	131	7
137	137	54
93	94	21
42	42	84
28	28	32
154	154	46
85	106	1
71	71	61
64	113	3
22	23	27
105	106	27
108	109	24
150	150	43
73	73	72
69	69	56
133	134	20
115	116	17
129	139	2
64	64	37
90	96	8
159	159	47
67	68	14
13	41	4
0	1	20
161	162	17
127	127	54
95	149	5
84	84	39
65	67	5
67	67	51
41	42	15
11	12	21
129	137	1
74	74	48
106	106	67
73	110	3
39	51	8
114	114	59
13	15	16
129	165	2
51	51	57
75	75	67
129	129	27
56	57	14
41	41	37
23	85	1
54	54	49
105	105	49
83	83	57
112	112	47
66	69	5
137	138	13
80	80	39
34	34	33
6	34	2
37	108	2
110	111	15
126	126	51
51	57	2
96	97	20
160	162	6
121	123	3
47	47	51
148	148	46
133	133	52
161	163	7
115	115	47
98	98	63
17	18	19
68	94	2
123	123	27
53	76	5
167	168	10
55	55	49
139	160	1
9	83	3
20	24	10
26	27	18
69	152	1
45	46	16
109	109	43
163	165	8
14	14	31
113	114	29
8	8	50
151	166	2
65	68	4
20	20	44
88	88	45
86	95	3
91	130	1
107	108	15
0	65	2
9	9	53
36	36	75
18	50	3
70	71	18
141	141	40
48	48	46
19	19	47
45	153	4
63	72	2
147	148	33
35	43	6
18	19	16
100	102	5
90	90	42
2	2	54
163	163	54
162	165	4
52	52	49
128	128	36
138	138	42
46	73	1
64	65	10
69	70	34
46	49	15
57	80	1
38	41	9
87	115	3
84	85	30
1	168	3
162	163	16
108	114	7
71	72	31
169	169	40
131	131	40
78	79	25
21	21	55
157	158	17
40	40	53
135	138	2
35	36	12
120	124	8
93	143	8
76	77	7
49	50	21
45	45	76
75	85	4
94	95	19
1	1	66
86	86	50
50	51	13
43	44	10
63	64	11
70	100	5
164	164	25
100	101	13
33	76	3
158	158	59
86	93	1
70	70	43
142	142	20
12	16	5
153	153	27
11	11	53
85	86	23
95	121	5
136	137	8
73	80	3
72	73	8
6	7	36
106	107	18
111	112	14
139	139	19
50	58	1
121	122	11
76	78	12
110	110	53
45	49	3
119	121	9
28	64	6
1	2	25
49	104	1
133	135	7
2	10	2
20	21	8
96	96	47
84	86	5
88	153	2
168	169	16
6	19	2
159	166	4
163	164	18
71	75	6
68	68	43
162	162	30
58	58	17
142	144	5
116	117	4
126	127	30
65	151	3
14	38	2
113	154	3
106	139	1
109	160	3
2	3	19
7	7	65
87	88	21
14	40	2
117	117	11
115	165	1
61	62	3
39	44	2
81	126	3
46	47	11
159	161	3
146	148	4
146	152	4
86	91	1
103	146	8
53	53	53
7	37	2
87	87	35
122	122	31
111	111	49
136	149	3
84	96	2
132	141	1
26	52	3
16	16	38
42	63	1
168	170	5
26	153	2
67	127	1
63	69	19
4	38	3
21	57	5
83	85	9
123	124	5
0	25	5
125	125	40
65	65	28
147	150	3
138	139	17
119	120	16
107	123	4
44	46	11
7	24	5
152	153	21
77	137	3
103	103	28
38	39	8
142	143	24
20	56	6
27	82	4
130	130	31
144	146	7
55	56	23
22	22	51
80	81	34
91	128	3
113	116	8
4	84	5
123	169	1
92	92	43
151	152	19
156	156	51
110	118	2
73	155	2
6	68	2
120	126	1
102	105	5
94	107	1
82	82	37
4	6	3
134	135	13
102	166	3
135	140	2
98	99	38
58	105	1
88	89	22
92	93	18
6	41	1
8	21	1
99	100	6
47	52	3
120	122	8
146	146	40
3	4	13
109	110	14
90	114	4
109	119	1
23	23	61
62	62	25
65	66	8
49	51	3
83	168	5
91	92	27
34	35	12
62	65	3
164	170	5
104	104	43
151	151	32
143	143	37
100	121	2
147	147	19
18	23	9
48	102	3
141	142	6
107	109	5
116	126	8
96	99	5
37	64	3
90	143	3
17	17	30
80	85	3
78	80	5
147	151	1
85	129	2
27	34	3
130	132	5
113	118	7
1	44	1
46	103	6
23	57	7
151	154	8
45	47	7
77	79	9
72	79	4
139	141	3
142	149	2
14	16	8
3	56	4
112	113	8
71	126	3
41	45	5
83	84	11
90	91	20
95	131	1
47	153	4
155	159	4
88	99	12
122	131	3
64	67	9
119	119	20
19	90	3
89	97	3
95	95	19
152	154	3
86	87	28
136	148	2
102	156	1
14	15	36
123	125	1
6	6	37
125	126	5
114	116	4
103	105	3
101	103	13
68	69	23
89	99	2
39	41	12
58	62	6
39	101	5
13	36	3
70	99	3
82	136	9
115	117	6
33	34	9
8	27	2
102	103	39
24	25	15
5	43	3
101	144	1
91	93	8
49	52	8
101	102	32
44	45	27
16	17	26
97	99	3
167	170	1
118	124	8
13	14	15
143	144	11
52	53	14
33	33	31
101	104	9
78	81	3
140	140	46
91	95	12
51	52	6
62	115	7
77	78	22
14	45	3
5	6	29
5	16	2
144	145	13
57	62	11
5	53	2
23	39	5
69	85	2
131	158	4
28	48	7
20	64	1
15	122	4
3	5	3
19	20	8
48	49	18
35	75	2
37	40	1
154	155	11
97	98	17
134	136	4
79	138	3
152	156	5
20	146	3
13	20	2
6	13	2
170	170	21
126	165	3
46	113	3
24	85	3
65	78	4
104	141	1
42	55	1
160	161	7
47	49	14
35	92	2
89	96	5
166	166	32
75	121	8
114	129	4
7	10	5
36	44	2
48	153	3
8	11	5
14	42	3
25	26	6
44	52	4
8	10	12
71	160	3
57	58	13
126	154	6
46	50	6
75	76	3
3	6	3
70	74	1
12	12	54
5	19	1
110	144	2
46	71	2
128	129	4
164	165	25
90	126	4
109	113	4
151	153	2
15	18	6
99	170	3
112	131	2
86	135	3
135	136	9
132	158	5
25	28	5
106	131	5
75	102	1
128	130	7
51	54	1
155	155	19
93	166	1
161	167	8
77	80	1
19	38	4
165	166	2
26	37	6
39	170	1
124	127	5
22	72	2
2	25	4
108	158	1
126	158	1
75	80	2
22	50	1
95	96	8
6	45	4
120	123	9
80	82	13
87	90	7
83	90	4
147	169	2
99	118	2
55	74	1
12	35	1
138	146	1
92	142	3
121	121	8
55	66	2
67	69	7
83	109	1
151	155	8
2	5	12
5	15	3
131	132	10
64	66	5
92	167	2
48	50	3
4	7	5
38	108	1
14	84	3
87	89	13
122	158	3
126	152	5
48	57	1
151	162	3
21	22	12
123	153	4
142	161	3
143	147	3
10	11	12
24	41	5
99	105	2
1	11	4
23	64	1
104	105	13
36	94	1
86	88	6
51	101	1
131	136	3
127	133	2
51	62	5
125	162	3
134	147	1
98	100	9
18	20	7
163	167	1
98	102	2
15	16	9
86	150	2
149	149	31
16	107	1
90	166	2
117	120	2
74	97	3
73	74	9
104	148	1
46	169	2
76	107	6
34	118	2
35	38	1
89	116	4
124	125	20
112	151	3
106	126	5
125	159	1
130	148	5
6	22	2
0	9	3
68	70	2
19	26	4
6	11	1
74	75	23
76	80	5
92	95	5
19	41	3
6	57	2
71	74	4
38	40	9
6	44	2
95	124	2
8	9	19
36	37	10
65	69	2
45	111	1
76	98	1
87	153	4
91	94	5
69	82	1
135	135	27
155	156	12
3	38	2
111	158	1
0	54	3
127	134	1
150	155	6
114	115	16
44	51	2
157	159	2
116	153	2
131	150	4
8	79	1
90	142	1
89	153	2
20	25	1
71	123	2
4	62	3
3	54	4
18	57	1
7	8	4
129	166	1
49	72	4
157	161	4
127	130	2
53	64	2
154	157	1
94	105	2
119	126	3
143	151	6
34	36	2
148	151	1
165	168	1
84	108	5
75	151	3
88	90	8
142	145	3
62	69	2
45	155	1
107	143	3
53	54	12
93	128	3
139	142	1
23	68	1
161	164	2
18	64	2
58	64	2
7	12	2
13	16	6
37	44	5
69	71	1
1	52	2
15	20	1
16	64	2
25	70	4
84	101	2
52	93	2
27	89	2
9	10	12
27	53	2
150	156	3
13	49	1
140	141	17
80	89	3
126	153	2
72	74	5
61	61	4
122	137	3
54	62	1
107	110	4
102	102	33
39	159	5
20	26	4
89	90	6
121	128	2
133	160	3
137	149	8
169	170	8
96	121	1
108	163	1
52	54	1
149	150	11
39	50	2
73	77	5
97	122	2
167	169	6
54	144	4
132	136	1
72	114	1
44	113	3
67	113	1
35	56	2
127	129	4
116	119	1
133	144	1
81	117	2
42	45	5
65	98	1
33	169	2
139	140	6
113	117	4
57	72	1
36	151	2
87	123	1
117	126	2
86	89	3
24	70	4
53	55	3
86	108	3
145	155	1
103	112	1
105	112	1
48	89	3
50	52	2
25	110	2
47	50	5
2	11	1
87	91	2
38	92	2
161	170	3
75	77	3
42	53	1
155	157	1
107	145	5
53	82	2
74	153	2
124	162	10
145	147	2
37	41	10
161	168	1
87	133	2
74	116	2
106	143	2
53	90	1
93	95	10
81	88	1
63	105	3
47	91	3
68	72	1
99	101	4
112	162	2
102	109	2
3	7	3
9	81	2
158	165	4
53	74	1
66	68	4
43	107	2
81	83	5
95	98	2
127	148	2
114	118	2
92	113	1
88	154	3
5	8	4
69	73	2
20	80	6
43	108	2
72	170	2
73	84	5
79	82	1
62	97	2
18	58	3
79	80	25
120	162	3
11	13	3
23	24	16
7	167	2
41	52	5
128	152	2
90	152	4
98	123	3
106	133	2
110	113	5
19	23	2
101	106	3
105	110	3
117	123	4
138	165	2
71	73	8
58	72	1
0	28	2
115	168	1
163	166	3
76	88	5
165	169	1
153	155	4
86	96	4
98	150	3
20	22	4
66	98	1
4	64	3
41	50	1
86	154	2
74	76	6
82	141	3
90	127	3
99	117	2
73	104	1
21	50	1
146	151	3
10	13	3
113	122	3
97	169	1
82	157	3
4	15	1
127	158	3
25	49	3
18	55	3
165	170	5
40	62	1
71	154	1
3	18	2
108	124	3
112	158	1
62	71	2
25	39	2
37	47	2
102	149	4
77	108	2
95	97	2
130	139	1
145	146	7
92	96	2
42	62	3
3	86	2
71	112	1
75	83	4
40	115	2
99	149	2
2	7	5
7	89	2
44	49	4
1	111	1
10	37	1
46	114	1
109	135	1
54	153	1
70	73	3
118	120	4
87	165	1
54	56	5
105	120	1
13	73	4
2	9	2
12	17	1
42	150	1
125	130	1
58	99	4
71	102	2
76	83	1
83	93	4
132	139	3
57	115	1
25	64	2
74	79	3
23	73	3
5	51	1
95	140	3
71	153	1
129	130	9
19	63	1
121	154	2
142	147	1
159	160	9
87	105	2
109	151	7
0	48	3
99	156	5
108	137	2
21	24	15
112	114	5
145	148	1
76	81	1
109	162	1
156	163	3
75	106	4
66	67	5
12	89	1
100	148	1
88	155	7
88	103	1
89	170	2
100	105	2
120	121	10
8	43	3
155	165	2
55	78	2
34	38	2
99	120	1
83	104	1
55	57	2
19	21	3
92	98	2
18	42	2
53	86	2
79	93	1
129	168	2
20	28	3
75	138	2
126	147	1
72	85	2
10	88	2
93	169	9
79	112	1
118	119	9
25	27	7
7	90	1
129	132	2
52	62	1
81	84	5
10	72	2
101	105	3
75	170	2
62	67	2
40	51	2
126	128	2
9	72	5
102	104	9
37	79	2
74	85	5
21	23	7
61	67	2
91	97	2
16	22	4
58	159	2
132	133	13
90	92	4
123	131	2
4	63	1
47	106	3
37	144	1
103	154	6
3	47	1
98	122	1
62	85	1
142	150	2
125	127	5
157	167	1
52	58	1
115	147	4
124	129	2
74	77	1
64	112	3
145	150	4
108	111	1
4	17	4
124	161	5
112	116	6
67	79	1
63	120	3
2	26	3
62	86	1
101	153	3
50	155	2
88	170	2
6	9	2
7	19	2
39	143	1
13	87	1
67	152	1
55	72	4
86	90	1
51	58	4
116	155	2
119	151	2
104	137	1
0	24	6
106	113	1
26	38	2
158	159	6
106	120	4
68	137	2
85	87	1
107	170	2
23	71	1
54	111	1
81	114	1
85	127	2
37	77	2
95	162	3
13	17	1
0	22	2
108	110	1
64	70	6
143	145	4
105	108	2
92	94	6
156	157	2
41	74	2
19	24	2
65	97	1
108	170	1
73	163	1
5	7	5
145	154	1
112	123	1
57	118	1
7	14	3
46	48	4
17	22	2
33	35	7
70	89	2
4	5	6
14	63	3
80	126	1
11	53	1
99	103	3
166	168	2
16	108	3
5	84	1
96	165	1
47	141	3
116	161	5
9	80	2
14	49	2
114	165	1
80	100	1
57	63	5
131	151	1
105	111	2
76	79	4
16	56	2
102	129	2
37	145	2
103	153	1
122	125	1
104	152	2
147	160	2
15	76	2
0	2	6
71	162	2
24	65	2
125	139	4
25	139	1
110	165	4
128	134	1
84	162	2
23	89	2
136	145	1
18	26	4
4	34	2
58	122	3
163	170	3
121	131	1
138	141	4
136	147	1
57	149	2
79	133	3
26	51	3
82	84	3
64	163	1
140	142	2
91	169	1
97	100	2
113	142	1
90	170	1
70	151	1
35	120	1
148	158	1
45	53	1
21	25	4
159	170	1
46	52	3
94	162	1
116	158	3
35	42	4
116	170	1
35	49	4
96	122	1
139	143	6
16	46	2
124	160	1
48	81	1
88	98	2
41	46	6
1	7	2
71	97	4
96	98	1
4	24	1
77	91	3
54	122	1
24	64	3
164	169	2
129	160	1
47	102	2
71	144	2
159	165	3
22	114	4
18	70	2
109	122	1
93	123	1
99	114	1
66	70	1
137	143	1
4	22	5
58	149	2
57	67	1
123	162	1
110	138	2
27	42	1
34	116	3
125	161	2
122	123	11
2	15	1
40	57	1
67	70	3
70	72	4
101	132	1
130	163	2
20	50	1
42	108	1
110	114	1
84	88	2
141	144	2
63	101	1
76	91	1
23	50	3
132	135	2
131	137	3
91	124	2
35	151	2
96	140	1
9	15	1
72	82	1
100	103	2
134	158	1
17	36	1
42	56	1
63	70	2
15	36	1
17	20	1
70	86	4
10	12	2
35	124	3
5	22	2
17	25	4
18	24	5
19	54	2
90	98	1
23	86	4
128	132	1
115	123	1
40	45	1
16	21	1
69	146	2
7	9	1
87	98	3
107	158	1
134	170	2
18	49	2
39	87	1
106	111	2
132	134	2
45	50	1
146	150	4
93	168	2
37	38	9
16	83	4
123	130	1
120	163	1
43	111	1
70	123	1
2	103	1
140	143	2
62	130	1
49	81	1
14	73	1
75	78	1
83	110	2
11	21	2
115	161	1
2	17	3
99	115	2
64	76	1
38	42	1
45	48	3
5	23	3
106	114	1
148	169	3
3	53	1
89	127	2
72	146	2
57	87	1
83	161	1
68	147	2
72	147	2
126	137	2
12	15	2
83	163	1
67	90	2
66	81	1
63	131	1
34	39	3
72	99	1
147	167	1
4	9	3
25	63	1
8	20	2
58	160	1
25	161	1
54	57	2
17	45	1
71	84	1
157	160	2
93	129	2
149	152	1
104	111	1
64	72	2
48	73	4
38	46	2
64	69	1
166	170	2
58	74	1
128	131	2
2	27	2
45	152	1
148	157	3
24	76	1
1	9	2
84	89	2
65	122	1
129	143	2
89	94	1
164	166	2
98	113	1
138	140	3
76	87	1
27	28	6
82	120	1
83	111	1
14	18	2
40	58	1
84	107	1
91	100	1
144	150	2
55	64	2
68	103	3
48	87	2
17	81	2
87	169	1
48	90	2
45	51	1
44	77	2
42	81	1
116	118	2
21	71	2
7	15	1
131	153	1
140	147	2
25	75	2
115	118	2
107	156	1
67	106	2
74	151	1
80	105	3
42	116	1
16	54	1
97	124	2
16	39	1
24	84	3
94	157	1
63	161	1
65	128	1
135	139	1
92	114	1
8	39	2
110	137	1
112	121	2
48	113	3
156	158	1
75	79	2
127	128	4
113	146	1
131	133	1
72	81	2
99	143	1
130	133	2
15	41	2
114	163	2
63	68	1
57	114	1
12	14	2
75	111	2
34	37	1
77	168	2
67	83	1
53	57	1
64	138	1
2	42	3
91	99	1
39	82	1
7	11	2
86	121	1
57	64	2
119	122	2
72	148	3
96	148	1
46	62	3
15	63	2
72	89	3
10	64	1
86	113	1
114	146	3
13	27	1
108	143	1
78	82	1
52	55	2
20	42	2
37	169	1
21	66	1
17	26	2
149	158	1
117	154	1
146	169	1
164	168	1
97	146	2
5	10	3
5	20	1
64	71	1
13	54	1
87	127	2
135	137	2
54	75	1
76	89	2
69	86	2
131	168	1
110	121	1
82	86	3
153	167	1
131	162	2
6	12	1
123	165	1
16	76	1
53	56	1
27	52	1
103	119	2
86	92	1
13	18	2
84	123	1
73	108	1
61	72	1
15	22	1
18	25	1
101	114	1
69	72	3
20	23	2
64	68	1
24	53	1
25	46	1
62	161	1
63	79	1
43	81	1
126	129	1
89	156	1
108	112	1
129	144	1
124	131	1
107	122	2
81	121	1
3	34	1
61	161	1
83	91	1
1	16	3
55	84	2
137	159	2
73	79	1
166	169	2
62	82	1
138	168	1
148	149	2
67	71	1
33	75	1
13	68	1
51	61	1
8	23	1
34	85	5
129	133	1
6	23	1
154	158	1
14	19	1
109	138	2
106	135	1
121	133	1
120	133	2
23	83	2
141	143	1
122	153	2
55	70	1
56	58	1
23	63	1
16	38	1
41	61	1
93	110	1
14	27	1
159	169	1
22	68	1
24	42	1
103	106	2
63	87	1
40	44	1
16	35	1
114	130	1
109	133	1
83	138	2
36	43	1
89	92	1
33	126	1
94	100	1
101	138	1
10	50	1
72	156	1
104	120	1
68	71	1
39	152	1
24	71	1
83	160	1
87	92	1
74	78	1
70	98	1
58	63	1
69	77	1
42	52	1
97	123	1
112	161	1
15	55	1
52	82	1
2	128	1
96	101	1
70	103	1
15	24	1
144	147	1
68	116	1
69	96	1
101	112	1
35	119	1
146	170	1
51	81	1
133	143	1
6	15	1
69	74	1
63	115	1
90	95	1
107	139	1
109	111	1
90	115	1
11	52	1
115	167	1
