12	13	20
75	77	3
74	75	6
10	11	6
100	100	11
102	102	23
177	177	3
4	7	3
106	106	7
18	23	4
13	14	8
91	92	7
90	91	3
40	41	5
25	26	11
29	29	22
68	68	8
61	62	5
27	32	4
126	127	6
40	40	19
104	105	4
159	162	9
60	61	8
101	101	10
151	151	9
33	33	20
4	9	3
6	6	11
95	95	19
9	9	10
146	146	7
143	143	7
31	31	11
2	10	1
5	6	10
78	80	3
139	140	2
20	21	7
15	15	16
138	138	6
138	139	1
64	179	1
30	30	20
116	117	6
2	2	19
100	121	1
165	165	6
50	50	14
10	13	10
164	166	4
115	115	7
164	164	6
105	106	3
132	133	5
107	107	8
19	19	5
58	58	3
39	40	7
43	43	23
22	24	6
45	45	16
108	109	4
14	15	3
18	21	1
14	32	1
84	84	9
3	3	23
169	169	4
9	10	4
39	39	30
108	108	3
10	10	28
14	17	5
137	139	4
85	85	4
126	126	6
56	56	11
4	4	16
161	161	9
175	176	3
7	7	10
121	122	6
79	79	19
117	117	5
25	28	4
18	19	2
35	38	4
38	71	1
144	144	5
96	99	5
0	109	2
147	148	9
127	127	8
6	7	11
21	25	1
95	96	7
131	162	4
72	72	8
3	4	11
105	107	2
18	18	15
142	142	15
51	51	12
150	150	16
92	95	9
103	103	7
1	1	15
109	109	8
160	160	8
87	89	4
24	29	2
89	89	5
11	11	13
34	34	11
84	87	6
92	94	2
76	76	2
7	8	7
115	116	14
16	17	12
24	27	5
131	166	2
12	12	13
160	161	2
22	23	8
34	35	8
97	97	9
29	31	2
160	162	5
113	113	7
42	42	22
147	147	2
8	11	3
53	53	5
52	53	5
44	45	6
83	83	3
103	125	4
15	16	3
20	20	9
23	25	5
60	60	5
81	86	2
113	114	6
41	41	24
17	17	24
1	41	2
167	167	22
5	5	15
50	52	2
129	131	4
132	132	8
140	140	11
21	21	9
34	51	1
7	19	2
78	78	14
137	147	5
28	28	21
7	10	3
92	92	7
174	174	12
178	178	12
29	30	7
25	37	4
37	37	9
119	119	6
158	158	8
131	131	5
175	175	5
81	81	14
38	39	3
106	107	3
99	121	2
152	152	3
179	179	17
124	124	9
26	26	19
77	77	7
142	167	2
22	22	12
5	15	4
76	83	1
27	31	2
97	98	4
154	154	7
38	38	7
13	13	11
3	16	3
19	33	5
112	112	9
159	160	5
3	15	1
9	13	6
33	35	2
128	128	8
66	66	15
44	44	10
16	16	10
106	108	4
168	168	9
14	14	21
166	166	8
54	61	1
135	135	6
163	163	8
26	27	9
110	110	5
2	7	2
35	36	3
80	81	5
34	38	2
1	2	7
55	55	7
7	9	7
83	84	6
5	7	5
98	98	3
154	158	1
4	15	2
87	87	2
2	42	3
16	33	1
148	149	1
2	8	3
34	41	2
155	155	14
17	18	6
27	33	1
0	0	13
148	148	7
77	78	3
65	65	4
6	15	7
143	158	2
158	172	2
139	139	4
75	109	7
77	80	2
100	103	4
36	36	17
63	85	1
1	24	1
116	116	7
111	114	3
57	57	5
81	87	1
21	22	7
34	42	2
24	24	11
143	144	3
151	155	2
23	23	9
130	130	5
99	118	1
24	44	1
6	16	3
71	71	10
134	134	2
38	44	2
111	111	5
173	173	6
74	81	3
33	34	7
145	146	3
173	174	1
36	37	6
65	67	3
1	4	2
123	123	5
33	36	3
2	13	1
88	89	1
99	100	3
88	88	9
20	44	2
146	148	3
36	179	1
74	74	10
42	73	1
42	43	5
0	34	2
35	35	10
61	84	1
61	85	4
90	90	4
100	161	7
151	154	1
167	168	3
73	73	2
122	122	5
43	44	5
125	126	1
171	171	11
112	125	1
180	180	1
169	177	6
58	123	6
41	72	5
130	131	4
128	140	1
31	40	5
145	158	2
11	13	2
153	153	13
24	26	2
5	23	1
172	173	2
11	12	2
170	171	4
16	23	1
141	149	5
8	8	9
25	25	7
41	42	1
120	136	5
103	104	7
92	96	2
156	173	2
146	147	4
146	174	6
74	80	1
8	9	9
32	33	7
7	20	3
159	159	11
16	34	5
147	160	1
37	38	8
84	88	6
40	45	4
80	80	5
134	163	1
4	43	3
28	29	6
15	22	5
111	112	1
61	61	10
157	157	11
24	33	2
122	124	3
169	176	1
17	29	4
86	86	1
39	138	5
174	175	4
156	157	2
50	51	4
8	15	4
108	110	2
96	96	2
121	126	2
144	163	1
136	154	4
142	143	6
81	82	2
19	20	2
176	177	1
51	52	1
147	169	3
56	89	2
131	168	6
24	30	2
96	98	3
19	45	1
114	114	8
114	126	1
59	59	6
152	157	5
82	171	2
50	73	2
140	155	1
5	16	1
140	154	2
83	86	2
78	94	3
100	118	1
117	118	2
155	172	3
21	23	2
170	170	5
141	141	6
144	158	2
136	160	1
82	82	6
19	21	1
118	127	2
23	26	3
112	113	2
126	162	3
82	87	3
149	149	2
94	120	2
56	80	3
30	31	5
158	163	2
87	88	3
141	145	2
163	164	2
24	32	3
44	106	1
93	96	5
93	118	1
63	74	2
91	91	3
27	27	4
4	179	1
129	129	3
54	54	1
64	64	5
100	120	1
133	166	1
61	63	1
36	44	1
54	55	2
154	155	1
9	12	2
27	28	11
157	174	1
120	120	6
132	167	1
90	126	2
60	85	2
17	22	4
104	104	8
17	23	5
89	92	1
101	102	3
39	43	1
100	101	2
57	58	5
4	45	1
12	16	4
162	163	3
55	56	2
126	130	2
144	161	2
32	32	7
45	106	1
5	41	4
72	78	1
176	176	2
10	14	1
129	130	4
20	35	5
169	175	4
53	124	3
20	33	1
156	156	1
118	119	2
27	29	2
11	15	1
8	10	2
86	90	2
29	38	3
127	128	4
94	94	1
177	178	2
81	84	1
5	30	2
88	123	2
75	75	3
57	91	2
163	165	1
95	99	2
102	118	3
20	26	1
41	43	6
17	35	1
121	121	2
2	3	2
166	168	2
135	163	1
12	43	2
154	172	1
135	158	1
134	167	3
152	164	1
151	156	3
45	105	5
174	178	1
99	99	3
21	26	1
40	46	2
135	136	4
3	9	3
71	74	2
11	43	2
56	57	2
83	85	3
6	29	3
54	64	1
93	94	3
136	167	2
58	59	1
29	37	2
10	12	2
0	33	1
61	96	5
148	174	1
5	21	2
133	133	2
65	73	2
136	159	1
116	120	1
8	41	1
136	136	3
169	174	3
139	149	4
133	134	2
161	162	1
27	37	4
32	137	1
67	68	3
119	120	3
153	154	1
71	72	1
84	85	2
36	38	1
61	127	2
107	108	1
154	157	4
2	9	2
6	26	1
23	32	2
52	52	1
9	42	1
12	18	1
6	8	3
134	135	1
123	124	2
17	20	2
40	44	3
100	124	1
32	34	4
172	172	4
101	105	2
5	19	3
134	173	1
43	123	2
5	18	2
23	37	2
59	74	1
158	159	3
92	171	2
62	62	2
144	151	1
13	15	1
158	173	1
11	16	1
162	162	2
61	75	1
132	159	2
4	11	2
11	22	1
23	31	1
57	94	1
3	5	2
102	103	1
118	118	1
157	175	1
131	150	1
62	86	1
110	111	3
172	176	1
99	170	1
107	113	1
149	150	1
65	66	1
73	79	1
66	67	1
24	25	2
137	137	5
136	157	1
75	76	1
165	167	1
126	128	2
144	145	2
5	11	1
19	31	1
92	97	1
107	109	2
18	75	1
79	80	1
73	74	1
53	56	1
50	65	1
152	153	1
16	20	1
114	115	2
169	170	1
63	64	1
175	177	2
59	60	1
82	85	5
2	44	2
10	36	2
76	77	2
95	119	1
11	14	2
135	160	1
89	128	1
9	11	1
59	89	1
74	132	1
60	76	1
2	67	1
135	137	1
140	150	1
62	63	1
109	122	1
125	125	2
37	43	1
54	73	1
24	31	1
147	159	1
56	77	1
132	168	1
153	177	1
105	105	1
156	158	1
165	166	1
50	92	1
111	113	1
121	127	1
24	28	1
146	158	1
93	93	1
15	33	1
5	8	1
104	112	1
122	126	1
147	158	1
36	54	1
26	28	1
97	101	1
