28	29	6
109	112	4
121	139	4
125	127	5
46	46	11
108	108	37
31	31	11
99	99	26
152	152	23
79	82	6
13	14	3
29	29	6
104	105	15
111	112	15
79	83	2
36	36	13
119	119	9
124	127	3
153	154	12
24	26	10
141	141	16
156	156	15
56	64	1
151	151	16
93	93	11
121	122	17
104	115	5
90	90	12
8	8	16
128	128	21
39	40	10
66	66	9
25	25	10
86	86	4
122	141	7
112	112	12
21	21	13
132	132	14
31	33	3
20	112	1
116	116	16
130	134	2
25	157	1
126	126	17
130	130	12
132	133	16
44	45	4
79	81	7
28	28	9
130	133	3
83	83	5
18	20	3
158	158	7
103	104	12
142	142	7
18	19	8
94	95	4
105	105	13
131	131	16
28	139	1
57	70	1
81	81	7
17	18	10
30	32	1
150	158	4
18	18	13
77	80	2
17	17	6
123	139	4
44	44	6
150	150	7
120	121	13
141	153	2
149	149	8
129	130	7
45	47	6
38	38	11
129	129	25
78	78	14
21	111	1
10	11	4
98	98	12
77	78	8
68	68	19
42	42	8
145	145	15
37	55	1
87	88	7
10	10	11
122	123	11
134	136	8
82	91	4
33	34	4
110	110	10
124	128	3
134	137	2
41	42	4
53	53	14
31	32	4
125	126	10
146	147	4
2	2	19
85	85	11
138	138	9
78	79	9
136	150	1
145	147	3
69	70	5
124	124	23
97	97	20
55	55	7
38	39	3
52	52	7
113	115	1
123	123	17
144	144	19
32	45	6
11	35	2
35	35	11
82	84	1
111	111	9
122	149	1
47	47	6
52	54	4
9	11	4
113	119	7
75	75	12
120	120	7
67	67	15
44	117	4
29	30	2
40	40	10
117	117	17
26	27	6
122	122	10
40	43	2
88	89	7
144	146	3
16	16	14
156	158	7
13	13	12
101	101	29
75	77	9
87	87	19
64	64	2
139	139	14
118	118	15
125	125	11
105	150	2
3	3	9
154	155	12
112	113	8
64	68	3
102	102	5
146	146	10
71	71	15
34	45	1
50	50	7
76	76	5
114	114	23
20	20	16
123	140	1
122	142	1
15	15	17
117	140	2
148	148	20
72	75	1
15	16	7
21	110	1
27	27	14
132	134	5
101	102	3
82	82	17
79	79	5
19	21	1
88	88	7
122	147	1
24	24	10
42	56	2
12	12	17
4	4	5
37	37	6
91	92	3
119	121	5
103	111	1
91	91	11
109	109	11
124	146	1
154	154	13
114	119	4
21	22	3
132	135	2
9	10	2
137	137	14
74	74	1
135	136	13
8	9	10
72	99	1
130	131	4
93	94	5
49	68	4
93	95	1
81	82	6
113	114	8
109	111	8
142	146	2
36	37	6
73	73	10
7	7	9
46	47	1
151	158	3
150	151	5
34	34	17
11	12	2
33	33	12
87	89	8
107	107	11
85	97	2
141	146	1
145	150	1
135	135	20
39	39	7
92	92	11
106	107	6
152	155	2
115	116	14
98	115	1
153	153	8
31	70	3
77	79	5
83	84	5
144	145	10
121	126	4
152	153	6
49	71	4
91	96	1
126	127	4
104	104	16
94	94	10
95	96	1
54	55	2
140	140	10
113	113	12
156	157	5
140	154	4
45	46	11
84	84	14
134	135	6
118	122	2
152	158	3
95	95	6
3	4	4
127	127	10
136	136	9
103	103	14
155	157	5
109	110	12
94	111	4
89	90	2
80	80	11
105	107	2
95	98	4
124	125	11
119	120	17
23	24	4
100	100	16
27	28	3
78	82	2
98	138	1
99	128	4
157	158	4
134	134	14
151	152	5
40	41	4
16	20	6
52	71	5
23	23	9
7	11	1
109	117	1
108	119	3
148	149	4
131	132	3
123	125	3
97	98	2
51	51	14
147	148	3
16	19	1
77	77	10
121	121	8
98	99	1
154	156	4
151	155	4
115	123	1
92	93	5
121	123	1
91	95	1
143	143	1
13	33	2
30	30	8
49	49	7
133	133	9
26	26	13
97	103	1
107	108	14
144	147	4
76	84	3
96	96	4
55	71	2
22	22	6
152	154	8
127	146	2
12	14	3
122	146	2
102	155	1
62	68	7
95	131	4
157	157	7
56	56	6
79	80	4
63	67	2
19	34	2
48	48	5
155	155	11
110	111	4
142	144	1
77	89	2
131	133	15
117	119	4
94	129	1
118	120	2
6	6	8
61	70	4
33	36	2
38	42	3
89	89	10
35	36	1
81	92	4
147	152	4
92	133	1
9	106	3
106	106	9
34	46	4
97	130	1
37	57	1
6	7	2
158	159	6
107	113	3
41	41	9
68	70	1
65	65	1
29	139	1
149	154	1
98	118	1
9	9	3
128	130	2
11	38	3
122	127	1
49	50	1
142	145	4
16	17	9
19	19	7
138	156	3
47	48	4
150	155	3
95	132	2
11	11	4
7	105	2
133	134	2
99	100	1
90	92	2
26	28	1
33	43	3
64	79	2
122	125	3
116	139	1
14	14	6
47	50	3
151	153	1
92	94	1
61	69	1
80	82	6
63	63	1
14	15	7
69	69	4
136	137	5
140	141	1
146	151	1
8	17	2
81	91	1
113	118	2
70	71	4
149	150	4
105	128	2
24	138	2
38	41	1
128	150	2
32	32	5
93	117	1
114	117	1
37	38	2
68	69	2
140	150	3
145	146	2
132	137	4
10	12	2
67	71	1
65	66	3
45	45	6
72	72	5
35	37	1
102	103	5
126	140	1
108	113	2
50	51	3
42	49	1
36	40	1
51	71	2
118	119	2
48	64	4
106	116	2
54	54	3
17	19	1
2	3	2
51	53	1
43	43	5
83	88	3
114	115	5
139	140	3
28	88	1
142	143	4
123	158	4
79	84	2
127	157	2
64	70	1
137	138	4
105	106	3
86	88	1
103	105	1
123	124	1
86	87	2
20	86	1
1	2	3
27	128	1
51	52	3
145	154	3
128	129	2
38	72	1
150	152	1
10	36	2
123	143	2
0	0	2
48	53	3
115	115	3
66	68	1
73	74	3
36	38	1
83	85	3
35	50	1
8	10	2
12	13	2
23	27	1
103	107	1
26	94	1
84	97	2
19	152	1
112	115	2
24	27	1
66	70	3
118	121	3
19	20	3
80	136	2
100	101	1
102	138	2
55	56	1
54	56	1
12	38	2
138	139	2
140	144	1
102	109	1
70	70	4
24	25	1
71	72	1
56	69	2
103	119	3
81	87	1
57	69	2
19	22	2
4	98	2
22	87	2
141	159	2
84	93	1
13	44	1
16	24	2
30	52	1
53	70	1
104	111	1
31	37	1
37	43	4
139	148	2
72	73	2
121	148	1
35	55	1
4	97	2
92	102	2
113	117	2
150	154	4
118	127	1
108	144	1
123	129	2
5	5	3
22	89	1
117	118	2
8	11	2
17	20	1
110	121	1
111	130	1
50	69	2
135	137	1
43	46	1
20	114	1
147	147	1
62	62	2
15	18	1
61	62	1
129	131	1
96	98	2
105	148	3
103	112	1
88	99	2
93	116	3
116	117	3
116	119	2
110	122	2
80	81	1
63	64	1
20	22	2
108	109	2
95	102	1
64	65	1
76	77	1
62	63	1
132	152	1
20	89	1
23	89	1
122	144	1
131	138	1
146	152	1
27	140	1
42	43	1
143	144	1
1	4	1
153	156	2
39	42	2
117	148	1
32	37	1
44	47	1
144	149	1
21	88	1
104	110	1
140	147	1
90	91	1
102	112	1
42	69	1
159	159	1
122	126	1
16	18	1
126	157	1
107	145	1
104	112	1
112	116	1
86	103	1
5	6	1
129	148	1
39	41	1
11	108	1
107	112	1
9	19	1
10	14	1
96	118	1
123	127	1
8	107	1
7	12	1
