54	55	5
71	72	8
32	52	1
206	206	4
49	49	5
85	85	6
106	106	5
19	20	1
48	48	4
81	81	5
200	207	3
137	137	3
7	7	3
66	67	1
179	220	1
77	77	4
178	179	3
46	47	8
230	232	2
203	204	1
82	89	3
78	78	9
118	173	6
134	134	1
70	70	5
27	27	2
0	15	1
147	149	3
66	91	1
216	216	2
12	12	5
25	100	1
192	192	2
151	151	2
238	238	3
15	15	10
23	112	1
106	108	1
153	153	7
83	83	1
149	181	1
39	39	6
31	31	3
213	215	2
98	98	4
29	29	10
119	138	6
207	228	1
42	42	4
194	194	1
142	143	1
25	25	7
8	9	3
34	34	4
25	150	2
12	13	3
58	58	7
218	218	6
84	85	3
105	105	4
96	115	1
28	28	10
17	222	3
151	152	2
70	211	1
8	155	1
221	221	1
200	200	4
100	100	9
206	207	2
122	122	1
44	44	1
64	85	2
154	155	2
234	234	3
44	63	1
147	147	5
99	99	5
0	0	6
148	148	7
40	57	3
33	34	2
57	73	1
2	2	4
81	84	1
180	180	8
225	225	3
76	143	1
16	16	6
66	66	9
32	32	6
239	239	2
77	79	3
133	133	4
201	201	3
52	52	3
6	16	4
20	21	1
32	33	2
51	51	3
154	154	5
208	209	1
164	167	1
83	101	1
40	40	4
6	6	3
123	124	6
69	69	5
123	123	1
35	35	4
80	129	3
9	9	7
56	57	2
67	67	5
113	113	1
84	84	4
24	24	3
184	210	2
115	118	1
106	114	1
71	71	3
120	120	2
238	239	2
52	68	1
80	84	2
178	178	1
8	8	4
227	227	11
235	235	3
175	176	1
163	179	6
124	130	2
44	74	1
128	170	4
146	146	1
231	231	6
28	29	3
43	43	7
200	201	3
101	101	4
55	55	5
80	80	7
74	74	10
76	76	5
74	75	3
128	128	5
155	156	1
42	43	2
31	32	1
105	108	2
31	104	2
188	188	2
222	229	1
118	132	3
21	55	1
53	111	1
20	104	2
226	227	6
199	199	1
68	68	6
40	55	2
80	98	3
3	3	4
56	58	2
197	197	2
64	64	7
54	67	1
219	220	2
182	182	4
207	207	1
58	61	4
139	139	2
163	163	3
102	103	1
158	159	2
18	31	2
39	40	2
122	123	2
165	166	2
45	45	3
116	119	2
14	14	9
124	125	1
7	8	3
167	196	1
115	115	4
224	224	4
179	179	2
37	56	1
53	53	7
57	57	2
19	19	2
171	172	5
66	72	1
104	104	2
114	117	2
88	88	1
194	230	2
75	75	5
179	196	2
120	178	3
117	117	2
153	154	5
104	107	3
82	82	4
46	46	9
7	9	3
206	214	3
135	135	5
2	222	3
222	222	1
67	72	1
13	14	2
214	214	1
23	23	2
36	36	6
29	58	1
209	209	5
151	219	2
208	208	2
203	203	1
4	4	6
240	240	3
6	7	1
105	106	2
54	54	2
46	51	3
50	50	8
37	37	5
150	151	2
89	89	2
139	142	2
212	212	2
130	130	2
148	174	1
223	223	2
138	138	1
155	155	4
195	195	4
25	101	4
224	228	3
65	66	1
63	63	4
166	167	2
198	198	1
36	37	1
38	38	2
22	22	7
2	3	5
53	59	2
194	195	2
17	17	1
232	233	1
47	48	1
219	219	3
37	39	5
18	19	3
190	190	3
30	31	5
72	72	3
220	220	1
20	23	2
186	186	5
85	234	3
65	65	2
211	211	1
160	160	1
210	210	2
2	104	2
24	29	1
188	189	2
41	58	1
4	31	1
25	61	3
118	118	2
176	176	5
202	202	2
159	169	2
26	26	3
138	139	3
196	231	2
70	71	3
63	64	2
162	202	1
5	16	2
3	11	1
233	233	3
228	228	3
120	135	2
77	78	1
34	36	1
175	183	1
24	241	2
124	124	3
10	10	3
136	136	3
97	99	2
62	62	2
177	189	1
79	79	5
21	22	2
228	229	2
119	119	2
157	158	2
11	11	2
173	174	2
30	30	7
67	71	2
67	68	4
136	177	5
241	241	2
116	116	3
186	187	1
205	205	2
116	118	2
3	55	3
5	6	7
19	22	1
229	229	2
211	212	1
230	230	1
167	167	2
144	145	1
187	191	1
120	121	2
215	217	2
217	230	1
79	80	2
16	17	2
132	132	3
162	165	1
12	57	1
195	196	1
180	184	4
51	53	2
5	5	2
198	199	1
30	105	1
67	88	1
165	165	4
47	74	1
193	196	2
184	184	1
155	158	2
103	103	1
141	141	5
60	60	1
196	196	3
237	237	1
1	1	3
166	166	1
183	183	2
21	202	1
171	171	2
121	121	1
31	49	1
192	195	1
141	142	1
148	175	1
34	35	3
220	232	1
25	27	1
226	226	1
21	21	3
177	177	2
111	111	5
214	238	1
182	185	2
2	16	1
150	150	1
163	166	1
192	194	3
207	213	1
58	59	1
192	196	1
201	202	1
81	82	1
190	192	1
117	119	1
61	61	2
22	23	4
185	185	2
217	217	1
159	159	3
73	73	1
3	18	1
230	231	1
12	14	1
139	140	1
20	56	1
5	14	1
125	126	1
177	192	2
33	40	1
9	102	1
146	147	1
34	57	3
191	191	1
6	108	2
115	139	2
3	12	1
41	41	1
80	106	1
234	235	1
199	200	1
44	62	2
73	76	3
75	78	1
86	86	1
213	213	2
33	33	2
130	133	1
221	222	1
10	33	2
125	125	1
69	234	1
126	126	1
82	83	2
82	84	2
193	193	1
56	56	1
20	20	2
172	172	2
174	174	1
36	72	2
73	75	1
109	109	2
60	61	1
183	232	1
164	164	1
14	16	1
36	42	2
118	119	1
49	80	1
117	118	1
3	221	2
181	185	1
105	130	1
172	173	1
175	175	1
205	214	1
215	215	1
201	208	1
55	56	1
52	53	1
148	233	1
