111	111	26
133	134	4
101	102	4
131	132	2
93	93	6
95	117	1
165	165	6
151	152	7
128	128	12
107	158	2
46	46	6
9	9	15
147	148	7
1	1	6
41	41	15
40	45	2
132	132	10
126	128	10
83	84	4
68	101	3
146	148	2
115	121	2
62	62	6
26	26	5
98	98	5
138	138	16
64	64	8
168	168	5
144	145	4
23	23	8
112	114	6
56	56	24
44	46	3
6	11	2
51	51	10
120	120	11
37	37	13
122	160	2
76	76	5
166	166	11
10	10	8
1	4	5
139	141	4
117	117	3
108	108	12
115	132	2
64	127	1
2	2	13
97	97	15
70	70	9
145	146	4
157	157	13
168	169	4
143	143	6
6	7	13
3	4	3
18	23	3
17	17	8
3	3	16
6	6	12
39	50	3
82	82	10
8	8	12
8	47	2
99	99	15
68	68	12
90	90	5
154	155	1
75	75	19
88	88	9
35	36	5
109	109	4
110	110	4
107	107	5
123	124	5
100	100	15
18	19	3
45	45	17
16	16	27
96	99	1
35	35	15
81	95	5
37	38	7
124	167	3
52	52	11
93	94	4
78	78	11
95	95	6
96	97	2
119	122	7
42	43	2
4	4	17
109	111	1
40	40	7
76	78	1
20	20	12
54	55	3
122	123	3
97	98	8
170	170	10
152	152	3
71	71	19
105	105	14
9	45	3
112	112	10
18	18	10
11	13	2
80	80	11
114	117	2
137	143	4
22	23	2
142	142	8
21	149	1
77	99	2
140	140	7
110	130	3
10	20	4
89	89	10
36	36	14
140	141	7
80	82	4
103	103	4
67	67	5
16	19	3
134	134	13
116	125	1
146	146	11
72	72	6
137	137	12
5	5	6
161	161	10
114	116	1
89	166	3
67	68	5
14	14	17
19	48	1
38	38	15
66	66	5
63	64	2
57	71	3
104	104	5
141	142	7
69	99	2
90	91	4
150	150	12
152	159	3
73	73	5
110	111	5
115	116	4
69	69	11
169	169	11
130	130	1
136	136	4
77	78	6
47	47	13
21	21	9
125	126	10
41	42	2
98	107	3
153	153	3
55	56	7
10	46	4
94	95	7
155	155	5
71	90	1
119	119	2
158	159	3
86	86	9
28	28	2
126	126	21
26	28	4
44	166	3
126	127	13
12	12	13
57	62	2
116	116	13
115	115	13
124	124	23
114	114	19
123	123	10
70	71	1
106	107	4
42	42	15
40	51	3
14	15	11
151	151	11
166	167	1
81	81	5
69	77	1
15	16	2
7	8	6
37	167	3
129	129	16
138	139	2
65	65	1
56	110	4
81	82	2
127	131	1
50	50	3
160	161	2
164	164	3
54	96	2
134	148	2
34	34	11
21	23	2
11	11	8
159	159	9
23	53	2
111	128	3
6	8	6
84	89	7
43	43	18
46	47	1
135	135	8
120	122	5
47	48	7
142	143	3
38	44	3
162	162	8
153	156	2
58	61	2
24	24	9
74	74	9
81	158	2
20	23	1
2	149	2
118	118	11
20	50	1
2	24	2
39	46	1
34	43	2
9	46	1
36	37	2
20	21	4
103	104	7
19	19	13
83	83	7
161	163	7
66	84	4
57	57	8
110	129	1
11	12	1
22	22	9
1	2	4
113	113	6
102	102	4
39	40	1
48	48	5
108	111	1
50	51	3
154	154	6
37	159	3
163	163	10
147	147	6
27	28	1
25	25	5
69	130	2
52	135	3
13	43	2
91	92	4
128	148	1
162	163	5
15	15	3
21	22	2
98	99	2
8	46	1
128	139	1
8	48	1
148	148	5
133	158	2
163	164	2
70	101	1
54	54	6
145	145	12
48	79	3
69	76	2
63	130	6
2	7	2
6	137	6
37	45	2
73	74	5
7	7	14
70	88	1
133	133	4
87	87	2
96	96	11
20	77	2
156	156	6
148	169	5
70	75	4
0	1	1
27	27	5
158	158	15
79	79	2
5	6	6
127	141	3
77	77	2
35	53	3
164	166	4
63	63	5
88	90	3
94	94	6
47	49	3
0	0	3
12	48	4
152	161	1
58	131	2
147	154	5
151	159	3
73	101	1
113	154	2
75	101	1
161	164	1
55	55	5
39	47	3
79	82	3
143	144	6
76	135	1
116	117	3
64	69	3
107	108	4
44	44	4
63	160	2
136	152	1
167	168	3
55	57	1
160	160	7
114	115	1
108	119	1
125	125	6
14	93	1
10	11	1
18	20	4
57	162	4
26	27	3
134	135	4
92	93	1
53	54	3
113	115	2
85	85	7
2	52	2
74	75	1
76	87	3
97	155	2
20	149	1
105	108	1
67	69	1
49	49	7
2	44	2
141	141	3
108	109	3
13	14	10
49	51	2
3	143	1
16	18	2
18	24	2
25	43	2
150	151	1
131	131	2
13	13	3
77	79	1
8	45	1
121	165	2
58	162	1
116	127	2
17	18	1
70	72	1
149	149	7
161	162	3
0	18	1
10	45	3
155	158	1
108	165	3
129	148	1
26	37	1
5	137	1
159	160	2
70	87	3
148	150	2
117	118	3
121	123	1
157	158	6
66	67	2
164	165	2
64	156	1
12	15	1
67	119	1
153	154	2
98	100	2
4	144	1
121	122	2
92	94	2
11	154	4
115	131	2
123	125	1
139	140	3
137	139	2
64	159	2
2	3	1
137	138	3
127	127	1
136	137	1
155	157	2
48	52	1
65	66	3
119	120	2
34	35	1
127	157	2
45	46	2
169	170	3
121	121	3
53	53	5
80	89	3
109	116	1
76	97	2
20	25	1
61	61	2
24	96	3
108	131	1
85	86	1
62	63	1
68	69	2
78	79	2
48	50	2
40	44	2
102	104	1
64	65	1
121	162	1
96	98	2
92	92	1
103	105	1
165	166	1
127	128	2
37	47	2
119	128	1
35	64	2
154	163	1
82	90	1
135	136	3
10	138	1
138	147	3
135	137	2
122	122	2
69	101	1
132	133	1
113	114	3
42	56	1
14	99	1
112	113	2
27	108	1
46	48	1
167	167	2
36	38	1
91	91	2
8	23	2
81	83	1
79	80	1
77	93	1
127	129	1
101	101	1
112	115	1
2	77	1
6	9	1
52	77	1
80	92	1
114	163	1
4	147	2
125	138	1
125	127	1
100	103	2
166	169	1
155	156	1
88	89	1
84	84	2
0	16	1
162	164	1
111	149	1
74	77	1
147	167	1
62	115	1
84	85	1
20	24	1
13	15	1
0	51	1
38	39	1
129	149	1
118	120	1
64	134	1
5	27	1
20	98	1
122	165	1
22	147	1
71	72	1
2	89	1
129	130	1
126	165	1
23	138	1
72	73	1
91	93	1
22	102	1
90	128	1
106	106	1
76	88	1
121	124	1
1	52	1
