19	19	9
102	102	6
202	202	14
153	154	8
154	164	8
156	157	3
69	69	16
179	187	1
143	143	13
149	150	6
161	161	15
144	147	2
110	141	2
27	28	2
133	133	7
27	27	16
114	127	1
169	169	21
176	189	3
164	164	13
225	225	11
8	30	3
165	175	5
149	156	3
155	155	12
13	14	8
60	60	22
2	2	29
25	26	6
229	230	7
1	1	24
101	101	14
105	105	12
160	160	9
31	31	20
45	46	9
20	20	16
55	86	1
158	159	3
227	227	16
38	38	18
2	21	3
58	59	1
238	238	14
80	81	6
103	104	19
175	178	3
119	119	11
177	177	13
195	197	3
232	233	5
46	47	7
124	124	7
190	190	13
34	34	5
210	210	16
75	76	4
47	47	9
68	68	10
64	64	18
145	145	8
135	143	2
124	125	3
4	22	3
188	188	5
178	178	7
231	232	6
8	8	17
74	74	28
207	208	7
101	102	8
11	24	1
86	86	6
47	48	8
99	99	6
151	151	10
205	206	6
162	227	2
220	221	9
129	129	4
229	229	12
212	212	17
209	209	15
29	30	10
194	196	3
218	218	14
53	63	1
6	16	3
173	173	7
58	60	5
15	18	2
180	180	10
0	0	31
83	83	7
45	45	23
163	163	7
219	219	5
36	36	28
58	58	13
62	62	15
73	73	14
78	105	4
48	48	15
24	24	12
28	28	11
42	43	3
43	67	5
25	237	1
181	181	11
21	21	25
108	108	10
68	69	6
70	70	13
62	133	2
223	223	14
48	49	3
15	15	10
115	115	7
73	74	14
150	150	19
4	4	15
9	11	1
122	125	1
184	184	11
7	19	2
192	202	2
118	118	2
25	25	18
67	67	18
169	171	3
182	182	14
146	146	16
134	136	1
34	37	2
135	136	21
55	119	4
18	18	11
67	68	8
134	135	6
3	3	22
80	82	7
119	156	1
176	178	5
201	201	4
137	138	5
78	78	7
54	68	2
46	46	10
140	143	5
132	132	6
241	242	8
155	156	6
154	158	2
235	235	18
195	195	3
97	97	9
233	234	7
217	217	15
222	222	3
191	191	12
56	56	29
200	200	11
142	159	1
141	143	6
16	16	9
67	230	2
42	45	2
175	175	8
183	183	3
166	167	2
236	236	10
205	207	4
66	67	19
179	179	8
156	156	7
14	14	6
10	10	11
142	142	13
40	40	19
114	114	4
65	68	6
9	45	1
218	219	6
186	186	12
54	54	17
40	58	2
226	226	15
15	38	2
30	30	8
160	161	5
7	16	1
95	96	4
124	127	3
81	81	5
230	230	10
71	71	5
61	62	9
11	11	8
66	112	6
37	37	4
57	59	1
220	220	11
174	174	13
215	215	18
35	49	2
228	228	14
118	122	2
67	73	2
144	146	3
56	57	6
206	206	9
228	229	7
242	242	7
100	100	17
178	182	3
14	33	2
208	208	7
26	26	11
171	171	17
11	12	4
42	44	3
193	196	12
182	183	8
149	149	16
226	227	11
106	106	11
159	159	11
84	84	11
16	17	5
197	197	11
95	95	9
212	216	5
220	222	2
73	105	2
33	33	14
130	131	3
138	138	4
44	44	17
115	149	1
89	152	3
84	85	6
23	24	5
214	214	7
45	62	6
234	236	2
211	213	3
155	162	2
15	20	1
71	72	7
50	51	9
152	153	3
80	80	8
135	135	11
7	7	3
116	116	16
197	198	9
20	59	2
25	52	2
79	84	3
66	66	16
198	198	9
51	52	1
49	49	10
73	99	1
213	213	9
216	216	2
12	13	2
173	174	10
161	162	4
180	181	4
73	84	2
211	211	9
1	2	10
235	242	2
103	103	5
167	167	10
191	192	1
43	43	20
61	61	22
59	141	1
164	165	4
126	127	9
21	29	1
234	234	10
47	86	5
46	63	2
98	98	5
133	134	5
141	159	2
98	99	10
239	239	9
141	145	1
83	84	2
23	23	10
153	153	9
37	38	10
9	9	15
26	27	11
54	55	4
75	75	15
64	65	7
0	1	7
202	217	1
192	192	5
19	21	8
122	123	6
69	70	1
59	59	10
110	112	1
138	139	3
136	136	15
166	166	9
154	163	2
109	109	2
22	51	5
187	188	4
120	121	7
215	216	2
194	194	8
152	152	8
128	146	2
225	226	4
12	12	10
74	76	4
32	32	10
109	149	2
50	71	3
14	22	2
110	121	2
22	22	13
107	122	3
193	193	5
53	53	7
52	55	1
78	150	1
62	64	1
132	157	1
158	158	5
34	36	1
42	88	3
185	185	7
195	196	5
237	237	12
76	103	1
9	231	4
64	69	2
7	8	5
207	207	21
181	182	9
121	122	1
190	191	4
99	236	2
49	50	9
82	82	9
78	80	1
119	120	1
44	45	4
74	100	1
183	196	2
14	17	2
102	237	2
57	57	16
47	240	1
140	142	3
239	241	1
30	31	5
8	9	5
134	134	4
224	224	5
190	192	2
144	144	6
15	16	3
77	79	2
60	88	2
65	65	10
43	45	1
171	205	1
100	101	9
5	6	4
85	85	11
172	173	3
9	10	3
172	172	16
72	72	11
205	205	11
35	37	2
207	228	5
219	220	1
221	221	1
141	141	4
106	122	2
241	241	4
108	122	2
199	199	1
189	190	3
88	131	2
113	114	5
52	52	5
63	63	7
45	55	1
117	118	2
104	104	2
29	29	15
189	199	2
145	146	3
42	56	2
5	5	4
157	159	3
60	61	4
140	140	7
32	37	4
113	113	11
11	38	1
70	97	4
76	76	8
39	39	9
171	180	4
142	143	3
51	51	2
234	237	4
208	209	2
159	183	2
139	139	8
27	183	2
171	172	2
38	39	8
4	7	1
123	123	6
3	4	4
201	220	1
69	71	1
82	122	1
39	40	3
105	106	4
116	117	1
151	152	2
62	135	1
202	228	1
60	131	4
51	232	4
154	154	9
152	156	1
19	218	8
89	89	1
46	95	2
62	63	1
169	182	1
156	158	3
41	42	3
201	202	6
221	222	5
183	184	2
96	97	3
206	207	1
1	32	4
165	166	3
64	128	3
121	121	12
213	214	2
42	42	13
71	73	1
188	189	2
141	142	5
189	189	7
106	107	2
72	73	4
204	204	14
201	203	1
57	58	6
50	50	3
6	7	3
199	200	3
53	55	1
155	157	1
17	17	8
217	218	4
48	55	1
41	41	7
5	8	2
213	218	2
48	64	2
176	176	4
0	23	2
22	24	5
112	112	1
162	162	5
133	136	2
87	88	3
134	144	1
154	155	1
226	228	6
79	80	5
177	178	2
14	15	2
66	111	1
188	197	1
223	224	4
78	106	2
180	183	4
170	179	1
203	203	5
32	35	1
240	240	5
155	161	1
22	23	2
128	128	2
140	141	2
21	23	2
0	2	6
107	107	3
24	53	2
44	51	3
123	124	3
201	209	1
181	199	1
140	144	1
25	47	1
28	29	4
13	13	5
29	173	1
186	200	3
179	180	7
66	68	1
157	157	5
141	144	1
121	127	5
225	227	4
2	3	5
127	130	2
109	147	2
35	35	5
194	195	3
7	18	2
23	103	5
122	122	6
234	235	5
6	6	1
210	218	4
153	156	2
166	176	2
137	139	2
27	48	2
237	238	1
235	237	1
207	229	1
165	165	6
184	193	3
203	207	1
111	111	6
86	96	1
148	149	1
137	137	10
108	117	2
224	231	5
197	201	3
190	201	1
56	97	2
204	205	5
181	183	2
106	128	1
3	21	3
11	15	1
169	170	2
110	110	2
5	9	1
42	52	2
52	54	1
170	170	4
29	31	1
209	221	1
163	174	2
88	89	4
170	171	3
233	233	5
185	193	1
174	175	3
214	215	4
19	20	3
114	115	2
167	168	3
200	201	3
20	47	1
115	194	2
148	148	3
177	185	2
136	139	1
207	209	1
177	189	1
236	240	4
115	127	1
201	208	3
43	44	3
118	119	3
40	54	1
169	178	1
17	18	3
147	147	5
1	24	1
175	176	1
145	148	1
11	20	1
111	112	2
128	131	3
65	67	1
159	160	1
88	88	6
212	213	2
77	77	2
18	19	3
4	5	1
3	5	1
168	168	3
192	193	2
113	128	3
9	24	2
37	48	2
24	101	2
47	63	1
13	15	2
167	169	1
55	55	4
127	127	5
1	12	2
175	177	1
8	219	2
62	65	3
32	33	3
120	120	3
196	196	3
104	105	1
15	17	1
30	32	3
66	105	1
159	162	2
10	220	1
208	220	1
143	174	3
112	174	1
80	85	1
38	40	1
235	238	2
70	71	6
79	105	1
227	228	2
123	127	1
85	97	2
65	66	1
136	137	8
144	145	2
43	54	2
21	31	1
135	138	2
141	160	3
117	120	3
8	220	1
65	70	1
63	64	2
14	34	1
131	131	3
20	21	1
137	144	1
4	8	1
107	124	2
81	82	3
160	227	1
128	129	2
160	162	1
8	67	1
103	237	1
232	232	1
163	164	3
37	39	2
187	189	2
239	240	2
117	150	3
146	147	5
167	176	1
8	106	1
185	186	3
114	157	1
74	122	1
189	201	1
184	199	1
57	176	1
211	212	1
193	217	1
108	109	1
202	203	3
85	86	1
238	240	3
107	108	1
148	150	1
183	225	1
23	49	1
9	224	2
172	174	2
130	130	1
215	217	1
53	64	1
99	100	1
35	46	1
139	140	1
47	85	1
165	242	1
187	187	2
20	27	1
18	31	1
68	106	1
12	39	1
33	34	1
113	148	1
198	199	1
31	38	1
76	78	1
22	58	1
74	85	1
162	163	1
10	219	2
190	206	1
52	63	1
232	234	2
51	53	1
150	151	2
21	22	1
146	149	1
238	239	1
15	31	2
235	236	1
60	133	2
171	204	1
18	20	1
231	231	1
157	158	1
79	85	2
48	50	1
75	79	1
182	201	2
207	212	1
82	83	2
113	149	1
86	87	1
96	98	1
80	84	1
10	11	1
235	240	1
184	186	1
40	41	1
109	122	1
27	197	1
76	77	1
56	58	1
145	147	1
179	181	1
8	16	1
143	144	1
