120	121	9
80	91	1
13	14	2
71	71	5
135	135	4
173	175	4
39	40	7
73	75	3
115	165	2
15	15	5
152	153	3
14	14	6
157	160	1
152	152	3
66	66	2
82	83	3
28	30	2
59	59	5
97	98	1
11	12	2
18	19	1
3	9	3
0	0	5
123	166	3
22	31	1
80	80	2
120	120	7
53	53	3
39	39	5
120	130	2
117	162	1
119	120	2
109	109	6
10	10	5
59	76	5
130	131	2
36	36	7
93	93	7
37	43	3
32	141	1
92	96	1
116	116	2
26	27	3
21	21	1
51	54	4
35	174	2
6	7	1
133	133	2
2	8	1
25	25	5
101	101	2
71	87	1
21	22	4
164	166	1
134	134	5
149	149	8
15	16	5
12	12	7
116	117	3
117	117	3
19	20	1
5	5	3
111	111	5
70	71	2
66	115	2
3	3	4
23	23	2
38	38	6
55	56	3
120	131	2
171	172	1
104	110	2
18	24	1
39	44	1
157	157	2
28	28	2
138	138	2
58	139	2
13	13	7
144	151	3
51	62	2
70	70	1
54	54	4
5	6	4
169	170	2
7	7	8
125	166	3
51	64	2
128	128	2
74	74	7
129	129	1
64	64	6
134	135	1
107	108	2
12	13	4
148	148	4
164	164	2
139	139	2
27	61	5
2	2	6
50	51	2
86	86	1
176	176	1
10	11	3
42	45	1
1	1	5
32	33	1
35	175	3
119	126	1
54	70	1
173	173	3
62	107	2
82	152	2
30	30	6
146	146	4
131	131	1
135	141	2
35	35	8
160	173	2
3	41	1
161	161	1
137	137	3
45	45	4
158	158	2
169	169	1
33	136	2
90	93	3
88	88	3
76	76	5
17	44	1
175	175	1
161	178	3
55	55	3
141	164	3
27	27	5
16	16	7
38	143	2
125	125	6
163	166	1
71	89	2
114	164	1
93	94	1
144	144	5
11	11	8
9	9	1
42	42	3
79	79	1
139	147	1
107	107	5
22	101	2
112	114	1
161	174	2
74	76	1
20	24	1
90	92	2
127	127	3
150	150	7
23	31	5
18	22	2
121	124	1
4	4	2
142	164	2
43	43	8
140	140	4
117	119	2
16	18	3
137	138	3
165	166	3
34	35	1
22	22	5
53	62	1
126	126	3
102	103	2
44	165	3
129	136	1
167	167	1
156	156	1
160	178	1
83	83	3
87	87	2
29	29	7
40	40	4
143	143	5
75	137	4
88	89	2
38	40	3
160	160	3
153	153	1
33	33	3
31	33	2
101	108	2
120	156	2
63	65	1
99	99	1
72	73	2
22	44	1
16	42	2
108	109	4
165	165	4
0	137	2
95	95	4
61	114	1
141	141	3
52	52	2
167	168	1
92	149	3
9	13	1
113	113	1
61	61	3
27	28	2
159	162	3
178	178	3
147	147	3
52	57	2
6	6	2
136	136	3
155	155	3
31	32	1
17	17	1
146	147	2
44	119	1
147	164	1
82	82	3
41	42	2
84	153	1
4	5	1
74	75	1
51	51	1
8	9	4
138	139	1
42	43	2
8	8	3
160	177	1
73	73	2
171	171	1
31	31	1
23	26	1
66	109	1
44	44	2
23	37	2
61	62	1
83	85	1
98	98	3
7	10	1
5	7	1
53	75	1
49	62	2
4	37	1
66	146	1
30	43	1
151	152	1
160	163	1
160	174	1
80	81	1
102	102	1
10	12	1
24	24	1
5	10	1
121	125	1
172	173	1
130	130	3
127	133	1
6	13	1
149	171	1
123	123	4
38	41	1
112	112	2
50	68	1
122	171	1
59	61	1
78	78	1
57	57	1
12	15	1
17	18	2
31	37	1
83	86	1
118	119	1
34	45	1
142	142	1
25	30	1
20	41	1
122	122	2
129	156	1
179	179	1
168	168	1
91	92	3
108	115	2
127	173	2
5	33	2
25	28	1
52	53	1
118	120	1
59	83	1
156	170	1
107	122	1
29	30	1
1	22	2
130	154	1
16	40	1
103	103	1
73	81	1
142	173	1
93	96	1
13	42	1
79	107	1
2	9	1
114	159	1
59	108	1
110	110	2
114	114	1
98	101	1
174	174	1
18	18	1
115	115	1
84	90	1
168	169	1
157	158	1
33	36	1
43	45	1
148	163	1
