52	79	7
64	64	20
14	14	10
88	88	27
34	35	5
13	13	8
83	84	20
15	15	5
100	101	6
103	103	25
130	130	22
3	3	9
101	101	20
78	78	16
17	17	3
10	10	16
27	27	17
12	23	4
77	96	4
88	89	2
30	30	27
89	89	8
66	67	8
69	69	18
6	29	3
53	53	13
62	76	8
18	25	3
111	111	10
63	63	23
95	95	19
77	77	3
120	121	10
33	33	19
3	4	12
70	70	29
2	2	27
131	132	11
98	98	12
114	124	1
42	44	1
94	94	18
98	101	1
91	91	10
49	49	13
59	60	4
64	65	8
67	68	9
55	55	17
119	127	6
90	92	1
119	120	9
102	102	13
50	84	3
5	5	12
119	121	3
127	127	9
54	56	11
114	114	11
73	73	35
60	61	25
79	80	11
56	98	1
71	72	12
30	31	10
5	6	5
66	66	9
85	92	8
123	123	23
43	43	22
24	24	19
18	18	7
95	96	7
93	93	19
133	133	28
31	31	19
68	68	6
7	7	12
9	9	12
65	65	15
12	24	1
113	125	3
36	124	3
15	16	7
84	84	25
59	59	22
115	115	20
79	79	10
20	20	14
105	105	43
13	14	9
38	38	7
112	112	20
65	66	5
118	118	36
25	25	9
86	86	15
108	108	7
97	97	14
57	57	10
130	132	4
50	50	11
96	122	4
87	87	23
78	79	7
119	119	16
90	90	24
45	45	9
126	126	30
81	82	10
129	130	4
4	5	6
100	119	3
64	67	6
124	126	5
28	28	3
70	71	13
72	72	25
0	0	12
104	105	6
87	88	2
108	110	1
131	131	12
85	85	10
113	113	26
110	110	8
99	100	4
107	107	7
12	12	11
82	91	3
56	56	4
121	121	8
22	22	12
8	8	5
125	126	6
37	37	5
99	101	4
92	92	11
54	54	15
120	120	19
21	22	4
99	99	6
57	59	8
134	135	5
37	109	2
34	34	15
31	32	6
51	79	4
56	78	1
82	82	11
84	85	16
133	134	9
115	116	5
90	91	9
109	113	5
92	117	1
104	104	13
23	24	9
55	58	8
16	17	7
116	116	3
71	71	18
43	76	2
25	31	2
44	45	3
127	129	1
112	113	4
132	133	12
96	96	12
83	83	15
52	53	11
12	13	3
61	61	10
108	111	6
122	122	11
92	95	9
125	125	19
102	104	3
75	75	19
110	129	3
19	19	13
24	26	1
42	42	8
103	104	4
92	93	3
28	29	7
79	81	2
128	128	16
23	23	8
97	98	12
62	64	4
129	129	15
71	88	5
109	109	6
85	86	7
36	36	8
13	74	1
93	94	5
134	134	13
29	29	12
101	102	8
20	24	6
60	60	13
82	84	2
47	78	1
114	115	3
130	133	2
58	58	4
80	80	16
98	99	6
89	90	5
74	74	16
1	1	13
122	123	2
55	77	5
130	135	2
21	23	4
117	117	7
116	117	8
47	47	6
66	69	3
57	58	7
81	81	3
32	32	9
76	77	4
89	93	2
106	107	6
58	59	6
61	65	3
29	30	9
111	116	2
84	92	1
125	127	4
66	82	1
126	127	4
76	76	17
12	16	2
65	68	2
120	126	3
16	16	7
83	85	4
109	110	3
43	45	3
77	87	2
1	3	1
12	99	2
49	79	3
62	62	8
69	70	4
54	61	3
130	131	10
50	66	1
111	112	2
78	93	1
19	23	4
72	73	6
14	24	2
113	124	4
38	108	4
82	83	11
54	60	4
106	106	3
106	111	1
96	97	6
63	64	10
4	4	9
53	55	7
65	71	3
124	124	5
64	71	2
100	102	4
58	72	2
128	129	4
68	81	1
65	70	2
22	23	3
49	50	4
91	92	9
35	35	8
91	93	1
35	125	3
6	7	5
9	37	2
50	68	1
55	56	6
48	48	5
54	55	4
96	99	5
26	26	7
61	62	11
44	44	7
1	2	3
21	21	10
6	8	3
62	63	3
36	115	1
84	93	2
123	124	7
17	24	1
106	128	4
50	52	3
127	128	7
124	125	4
107	127	4
47	53	1
74	75	4
14	72	3
28	31	1
8	111	1
108	116	2
108	109	7
52	52	8
82	85	1
38	110	1
82	92	1
50	85	7
106	109	2
53	79	5
132	132	15
119	122	1
100	100	7
7	28	1
32	33	2
98	100	1
13	15	2
7	32	1
15	73	5
132	134	2
113	114	1
43	64	5
29	101	3
18	19	4
49	80	4
5	29	1
118	119	4
125	130	1
35	38	2
123	126	1
50	79	1
17	18	1
5	35	3
69	72	1
11	12	1
9	10	7
64	87	2
26	27	3
117	118	3
110	111	3
117	123	2
11	99	6
20	23	6
102	103	1
95	97	3
99	120	1
135	135	2
25	32	2
105	110	2
45	50	2
6	6	3
67	67	6
105	111	1
21	24	2
95	98	1
7	34	1
38	42	2
113	122	2
88	90	1
25	26	2
109	114	1
106	127	1
112	115	3
79	95	1
85	89	1
106	135	1
106	130	3
131	133	4
59	72	2
106	108	3
68	69	4
64	86	1
6	101	1
107	118	1
0	134	3
89	116	1
112	120	1
118	123	1
122	125	3
118	124	1
32	34	1
11	11	1
68	87	3
51	51	1
23	25	1
21	25	1
108	124	3
108	118	1
47	54	1
8	36	1
0	1	3
105	106	3
48	80	2
108	114	1
87	90	2
65	69	2
96	98	1
54	79	1
45	76	1
95	119	1
84	86	1
33	34	1
42	43	2
80	81	1
47	80	1
62	85	1
78	80	1
86	87	1
119	123	1
47	50	1
128	130	1
77	80	1
72	89	1
16	19	1
67	69	2
35	112	1
14	15	1
7	31	1
77	95	1
51	66	1
58	60	1
16	24	1
82	89	2
27	28	2
63	65	2
127	130	1
2	3	1
10	11	1
31	34	2
94	95	1
75	76	1
8	37	1
112	122	1
46	78	1
120	129	1
2	73	1
3	5	1
50	83	1
19	24	1
8	11	1
