101	101	10
24	64	2
80	80	21
71	71	24
109	110	12
82	83	6
83	83	19
94	94	21
113	113	13
134	134	28
21	21	34
75	75	27
87	88	8
62	62	24
34	35	13
107	108	6
97	97	27
85	85	9
78	79	30
59	59	25
49	49	10
26	26	46
47	47	62
4	4	20
108	108	6
29	29	43
37	37	13
106	125	4
1	1	12
13	13	34
77	78	4
90	92	10
9	75	3
35	74	7
125	125	24
107	107	10
109	109	16
48	78	3
65	67	2
25	26	8
90	113	3
44	45	7
45	45	55
71	72	3
33	79	2
11	45	4
111	118	3
31	32	18
77	77	31
132	132	19
69	69	20
92	93	6
34	34	18
126	131	3
106	127	4
104	104	15
29	30	3
17	17	26
88	93	1
101	116	3
132	134	3
100	100	30
26	93	10
108	109	9
9	9	27
27	28	11
128	129	4
84	109	4
12	13	12
21	85	4
78	78	25
3	10	2
74	74	19
30	30	25
82	82	22
5	89	3
98	99	16
60	60	27
90	90	20
26	35	11
28	28	15
83	84	12
4	5	19
128	128	27
20	42	1
8	8	41
58	59	4
86	92	3
66	66	54
6	6	33
23	25	9
75	76	21
44	44	22
110	110	17
7	7	32
81	81	17
61	61	47
6	7	9
19	19	14
99	99	20
18	18	21
106	106	21
10	10	34
105	105	5
33	99	4
76	77	8
11	93	10
127	128	1
17	18	9
24	25	9
11	12	1
76	76	31
80	116	4
5	14	4
126	126	18
70	71	5
20	20	25
97	98	21
79	79	34
92	92	19
31	92	1
35	35	32
88	94	2
64	64	36
95	95	27
88	88	11
5	5	28
84	84	32
22	25	6
114	117	1
3	3	14
37	79	5
124	124	15
91	92	13
65	65	46
104	126	2
91	91	23
94	130	6
19	20	23
57	58	9
66	95	1
95	111	3
56	56	20
32	33	10
85	93	4
11	11	63
116	117	7
33	77	6
26	47	6
33	57	1
29	33	2
95	100	5
72	72	31
89	89	14
91	134	5
65	110	1
31	31	19
55	55	20
30	102	2
8	88	7
96	100	12
93	98	1
48	48	17
32	32	14
121	122	5
115	115	9
57	57	23
46	46	24
49	55	3
131	132	13
80	81	4
50	54	3
102	102	29
43	44	7
100	102	1
21	50	3
22	39	3
19	60	4
35	36	15
41	42	6
70	70	23
98	98	18
61	75	5
41	41	21
103	104	11
120	120	4
27	32	1
35	120	3
99	100	11
37	55	1
89	92	2
131	131	22
28	29	5
12	12	26
15	31	9
22	23	3
42	42	16
67	67	17
63	63	23
23	23	7
37	48	2
93	94	9
22	81	4
127	127	10
58	58	36
21	39	2
84	86	3
36	36	32
95	98	2
3	5	5
22	22	11
11	44	4
51	51	5
93	100	1
34	36	1
84	114	3
87	87	25
32	84	6
73	73	19
39	49	1
85	87	4
116	133	2
37	38	6
46	82	6
19	22	1
117	117	4
27	27	40
9	18	3
81	82	14
8	9	7
15	16	12
104	105	9
119	120	4
97	99	6
93	93	29
15	32	4
7	98	2
96	96	14
118	118	15
123	125	6
20	43	5
63	65	1
63	64	6
102	103	3
123	124	5
20	25	4
119	119	5
117	119	3
67	68	10
79	80	16
16	16	23
111	125	3
82	113	6
11	27	4
37	82	3
62	73	1
114	114	8
96	97	16
2	17	1
110	111	6
26	98	3
124	125	10
0	1	2
122	123	3
26	29	5
4	88	3
129	129	12
5	27	7
63	69	1
38	38	16
116	116	33
22	38	7
27	41	22
113	129	1
33	34	13
122	122	11
30	93	4
96	101	2
12	48	1
117	118	3
82	84	3
21	22	3
130	131	4
89	90	4
15	15	22
4	25	1
62	63	5
65	66	2
20	21	4
117	122	2
35	37	2
59	60	7
33	33	27
74	121	3
46	95	4
98	100	1
7	19	2
21	83	6
39	48	1
14	14	9
61	82	3
44	75	5
67	98	2
108	122	1
46	48	1
98	106	3
39	39	20
129	130	1
7	8	4
123	123	7
8	46	2
35	122	3
48	49	6
5	6	6
13	14	8
61	62	5
38	40	3
69	70	12
68	68	25
40	42	2
132	133	8
45	96	3
106	129	4
111	112	3
20	24	2
27	30	2
90	91	9
121	121	13
130	130	22
50	50	5
101	102	9
96	98	3
14	16	1
110	123	2
87	130	1
17	122	2
88	132	3
68	70	5
100	101	9
6	15	2
45	76	6
10	19	1
84	113	5
13	31	2
25	25	13
133	133	20
62	75	2
95	102	1
81	133	2
74	76	1
108	123	4
39	40	3
95	97	3
114	115	2
36	37	7
41	43	4
25	62	10
6	98	2
38	78	1
45	62	4
14	31	2
21	84	2
30	62	2
113	114	7
23	24	3
86	86	11
65	68	5
127	131	7
120	123	1
38	39	3
2	2	11
34	73	1
43	43	11
68	69	8
127	133	2
103	103	15
18	24	4
14	17	2
23	26	2
45	48	1
19	23	4
7	65	7
26	27	8
105	132	2
21	41	5
21	38	4
104	106	1
62	70	7
82	114	2
9	10	20
61	74	3
72	73	5
61	77	3
45	57	1
19	61	3
45	90	1
85	86	12
32	102	4
44	55	2
25	82	3
30	78	2
81	116	4
27	91	3
25	99	2
46	61	4
21	76	3
28	96	2
112	113	5
32	34	2
107	125	1
22	44	3
12	18	3
93	99	1
115	116	6
95	96	2
27	29	2
40	40	10
91	114	1
0	0	5
12	64	2
4	76	7
3	24	5
32	79	1
1	2	11
46	62	1
11	48	4
99	101	3
112	112	8
7	99	3
11	101	4
84	93	4
34	77	6
30	32	1
66	98	3
37	50	2
43	45	4
80	83	2
115	117	1
40	50	3
40	41	3
4	9	2
37	42	2
48	50	4
76	117	2
94	95	11
69	71	2
59	78	1
6	89	2
19	65	1
45	46	6
87	108	2
61	83	4
105	126	2
10	85	1
3	6	1
82	112	2
7	97	1
31	58	3
25	93	1
30	49	1
2	106	4
45	49	1
21	81	1
45	64	1
130	132	4
12	14	6
7	84	2
111	113	1
27	87	5
47	82	2
10	13	7
12	61	1
65	84	2
118	119	4
55	56	3
28	33	1
45	60	2
22	30	1
65	70	3
81	84	5
35	87	1
123	126	5
80	114	3
77	116	3
4	101	1
24	24	7
46	47	6
93	132	1
93	95	2
18	76	1
7	20	1
66	67	4
23	27	4
10	44	1
26	125	2
22	35	1
105	106	3
120	121	3
129	132	2
34	78	7
27	47	4
11	46	5
90	93	1
49	50	6
36	42	1
6	8	10
106	107	9
8	10	4
44	48	1
26	80	2
11	50	1
111	117	4
43	62	4
3	103	3
29	49	3
4	30	5
51	56	3
78	80	4
39	81	3
27	100	1
108	110	1
97	100	4
91	133	2
86	99	3
84	94	6
8	18	2
87	89	3
127	134	3
2	3	1
6	96	1
37	60	1
16	17	1
87	94	2
86	94	1
14	32	1
64	67	2
6	11	1
133	134	1
62	67	2
47	48	6
2	11	1
38	42	1
61	76	2
56	57	2
29	31	2
84	85	3
91	96	2
93	130	1
114	131	2
103	106	6
59	83	1
125	126	6
103	131	1
60	61	2
94	97	1
99	102	1
19	43	2
45	94	1
90	95	2
78	91	3
79	82	1
66	88	2
11	29	1
6	19	1
3	18	1
19	40	2
32	78	3
25	78	2
26	124	1
21	55	1
29	32	1
25	76	1
4	6	3
63	70	5
20	61	1
115	118	2
66	84	1
11	92	3
92	132	2
88	89	2
30	91	2
6	14	1
84	112	2
12	17	2
83	93	2
37	81	3
29	77	2
109	111	3
34	74	1
14	83	1
11	30	1
27	40	2
34	87	3
79	81	4
26	88	2
116	134	1
128	132	2
30	33	1
105	125	3
45	74	4
64	65	1
96	117	2
66	97	1
83	112	1
116	118	1
2	101	1
10	46	1
83	86	1
7	86	1
20	40	2
39	56	4
73	74	1
44	62	2
81	86	3
26	31	1
61	71	2
32	59	2
91	97	1
21	45	1
29	48	1
83	94	1
18	19	5
59	62	1
119	121	2
25	27	1
107	123	1
15	22	3
31	35	2
43	82	2
86	87	5
78	116	2
46	63	1
4	7	1
20	39	1
19	76	2
11	47	1
23	82	2
63	73	1
25	81	2
21	49	1
117	120	1
96	99	1
92	114	2
95	110	1
35	75	1
20	22	2
31	36	2
111	111	4
39	41	2
35	64	1
24	27	2
33	47	1
44	50	1
45	71	2
109	112	1
30	111	1
128	131	3
42	43	1
44	60	3
27	46	1
66	86	1
107	109	2
1	17	2
37	45	2
109	121	1
32	49	1
27	83	1
28	91	1
107	119	1
29	42	1
24	36	1
59	77	1
24	82	2
39	44	1
13	36	1
35	84	1
47	78	1
10	11	2
3	4	1
107	110	1
12	23	1
81	92	1
91	128	1
27	98	1
114	126	2
110	118	1
77	117	1
88	99	1
9	14	1
83	85	1
64	97	1
90	97	1
21	40	1
27	80	1
76	119	1
103	105	1
9	12	1
60	77	1
22	49	1
27	61	1
9	44	1
13	122	1
92	113	1
48	55	1
49	79	1
