86	87	5
67	67	18
9	10	12
24	25	5
30	30	16
88	88	13
66	66	15
52	52	7
69	69	14
89	89	10
20	20	2
4	4	22
53	53	13
15	16	5
50	51	5
54	54	10
76	77	1
84	84	13
10	20	3
64	64	8
70	70	8
87	87	22
26	26	8
2	2	5
80	80	17
78	78	11
83	83	6
85	85	8
25	26	3
68	69	5
2	29	3
19	20	7
19	19	12
74	74	13
31	31	16
12	12	12
73	74	8
88	89	7
4	46	4
56	56	36
9	9	10
76	76	6
28	28	12
63	63	1
34	34	3
75	75	12
7	7	6
11	11	19
47	48	4
14	14	9
53	55	8
23	27	2
55	55	6
83	84	8
17	17	12
0	1	1
50	50	14
48	52	3
50	52	7
58	58	11
47	47	9
75	85	2
71	71	18
3	3	13
7	8	6
23	23	6
25	27	2
82	83	8
25	25	10
25	28	3
80	81	2
16	17	3
51	51	4
10	10	5
66	67	2
87	88	3
57	57	13
59	60	3
86	86	13
73	73	11
11	16	6
58	75	2
16	16	3
61	64	1
1	1	6
1	2	6
87	89	3
51	52	3
59	59	5
59	61	7
24	24	19
0	0	3
5	10	1
49	50	1
8	8	17
6	6	7
81	81	21
22	23	2
27	27	1
84	85	8
63	65	5
78	81	2
13	22	3
21	24	4
49	49	4
46	47	2
77	79	3
62	64	3
79	80	3
35	35	5
48	49	6
77	77	6
60	63	3
26	27	2
15	15	13
58	77	4
5	5	6
52	55	1
77	78	2
5	9	2
54	55	2
53	54	3
89	90	5
62	63	5
49	51	1
1	88	1
23	24	6
63	64	4
25	56	1
7	22	2
12	13	1
53	56	1
79	79	6
47	49	3
69	70	1
22	22	16
82	82	6
72	72	6
56	67	1
33	62	1
27	28	2
49	60	1
25	68	2
46	46	2
65	65	3
19	22	2
14	16	1
6	23	1
69	73	4
68	75	3
31	65	2
58	80	1
48	48	2
72	74	2
11	14	2
60	62	1
13	13	9
29	29	3
68	68	5
18	19	2
79	81	2
60	61	2
21	21	5
74	75	1
50	60	3
55	56	3
32	76	2
53	66	2
72	73	4
65	66	2
3	4	1
59	65	2
17	20	1
31	75	1
17	19	2
30	75	1
49	64	3
23	25	1
77	81	3
34	35	1
8	21	6
6	10	1
64	74	1
52	53	1
28	29	1
31	55	2
13	19	1
34	52	1
75	79	1
28	85	1
6	7	1
10	19	1
49	56	1
67	68	1
49	59	1
50	58	2
13	15	1
30	85	2
60	64	1
31	54	1
29	30	1
33	33	1
10	17	1
3	57	1
75	77	1
4	16	1
54	66	1
56	57	1
0	58	1
12	67	1
61	61	1
10	14	1
32	46	1
1	87	1
52	54	1
14	15	1
