14	16	2
12	12	4
42	42	17
142	150	1
9	11	3
156	157	2
76	76	10
140	161	4
170	170	4
61	63	1
95	96	5
123	124	4
65	87	2
150	150	3
121	124	2
11	11	17
36	36	8
150	151	1
45	45	8
25	25	4
60	60	6
97	97	5
95	95	3
15	16	4
112	124	2
71	71	14
159	160	6
144	175	3
96	97	2
32	33	7
131	131	4
155	155	3
176	176	6
134	134	14
6	6	2
29	30	3
138	138	7
16	16	5
49	50	3
157	158	6
24	25	5
38	38	20
145	145	4
159	169	1
124	124	5
3	15	3
6	7	9
111	111	4
35	36	4
63	85	3
24	57	3
9	12	3
131	133	1
82	82	3
135	149	3
31	31	3
142	143	2
133	133	10
149	149	11
144	145	6
32	32	4
17	17	9
17	18	4
4	9	1
179	179	16
35	35	3
56	56	11
81	82	4
78	78	6
36	37	2
158	158	1
33	33	12
40	41	9
12	13	2
151	151	4
58	58	9
77	79	4
91	91	4
75	75	8
18	18	8
5	5	7
128	128	3
2	2	2
153	156	2
145	147	2
76	78	1
4	4	10
119	119	5
22	23	4
107	107	7
112	112	3
166	172	3
170	171	2
119	120	4
129	153	4
37	38	2
80	80	6
102	102	1
29	29	3
106	106	3
24	24	3
25	26	5
87	87	1
83	85	2
8	16	1
14	14	9
143	143	7
11	13	3
155	156	2
62	100	3
8	8	5
44	45	5
136	136	4
1	1	6
134	149	5
19	21	5
13	13	9
104	107	1
22	22	7
151	153	2
168	168	3
65	65	5
66	66	5
50	50	3
96	96	7
135	135	4
98	99	2
108	108	1
59	59	6
16	118	1
7	7	3
146	146	5
29	31	1
79	80	4
147	151	3
55	56	4
24	26	3
4	53	1
117	117	4
17	35	1
85	88	2
80	82	2
25	41	2
4	8	2
58	77	3
18	35	1
20	20	8
52	52	5
5	6	1
172	172	2
171	171	10
144	144	4
92	125	1
173	173	3
93	94	2
114	164	1
117	121	3
29	43	2
68	101	2
63	63	3
140	157	2
165	166	3
178	179	3
71	72	5
89	89	3
153	159	3
107	111	1
60	134	2
39	39	5
93	93	7
3	3	2
147	147	2
174	174	6
120	147	1
56	105	4
153	167	1
153	153	3
42	43	3
156	156	4
92	92	11
43	44	3
174	175	3
28	29	5
33	34	4
67	81	2
114	115	1
10	10	17
127	130	2
129	129	6
172	173	3
92	94	1
167	168	1
172	176	2
78	90	2
41	42	1
175	176	3
28	28	2
15	15	1
110	110	1
9	9	4
113	113	2
101	101	4
20	21	2
10	11	3
160	160	1
162	164	1
73	73	3
86	87	2
24	44	1
28	44	2
90	90	2
26	28	1
2	4	2
55	133	3
23	24	3
1	14	2
5	25	2
83	83	3
169	169	5
142	142	6
96	102	2
107	108	3
26	29	6
28	42	1
145	146	2
100	101	6
141	143	1
166	168	1
162	162	2
131	132	2
62	63	2
11	33	1
60	98	4
81	89	3
74	74	1
1	2	1
132	132	2
119	121	3
123	123	4
178	178	2
52	90	2
73	74	3
41	41	6
33	42	2
30	31	1
114	114	3
90	92	3
110	111	3
12	17	2
157	157	1
137	138	1
113	118	1
95	101	3
126	158	2
22	24	2
116	117	1
75	76	3
4	54	1
43	43	8
127	127	3
6	29	1
77	77	1
168	169	1
177	177	2
28	30	2
160	163	1
165	167	3
34	34	3
55	55	4
115	118	1
164	165	1
80	83	2
16	19	3
54	54	1
6	26	2
118	118	1
173	174	3
21	21	4
0	0	2
23	23	4
40	42	2
122	123	2
19	44	2
104	111	1
79	79	4
27	28	3
68	68	2
139	140	1
16	41	1
30	30	2
115	117	1
0	2	2
10	18	3
57	57	1
116	116	2
3	4	5
41	43	2
140	180	1
135	136	2
57	58	1
84	85	2
40	40	2
103	107	1
125	125	1
152	164	1
2	53	2
166	166	1
35	43	1
166	171	1
138	142	1
63	67	1
11	30	2
141	141	3
39	61	1
90	93	1
79	104	3
142	159	3
67	67	1
27	31	1
155	159	1
6	18	1
180	180	1
13	14	1
84	84	2
81	81	2
134	135	2
72	72	1
90	91	1
88	89	1
147	152	1
27	27	3
82	86	1
109	109	2
7	10	2
115	115	1
108	113	3
148	149	1
161	161	2
38	39	1
12	177	1
170	175	2
154	156	1
139	139	1
140	140	1
137	137	1
18	19	1
8	9	2
61	62	1
76	77	1
105	107	1
27	30	1
10	30	1
72	73	1
100	100	1
80	81	1
121	121	1
105	106	1
89	100	1
138	141	1
15	173	1
26	31	1
