128	130	1
10	39	4
12	29	2
10	29	1
83	100	5
114	115	1
53	53	41
19	19	24
103	103	20
68	68	27
2	2	30
46	47	8
107	110	1
44	44	27
98	98	17
85	85	25
115	117	2
20	20	15
102	102	32
14	15	3
56	56	26
6	6	44
125	125	18
56	115	1
71	71	19
124	125	10
58	58	28
38	40	5
95	95	21
14	14	6
59	60	8
107	109	5
29	29	12
87	89	4
101	125	2
7	11	3
52	52	42
6	9	4
39	39	30
80	81	7
104	104	39
15	69	5
123	123	29
49	49	33
133	133	5
24	25	7
41	41	15
99	99	36
100	100	10
50	50	37
64	64	10
78	78	17
40	40	12
100	101	11
75	76	13
10	11	17
61	75	2
60	60	17
32	33	1
126	126	21
21	21	17
74	74	12
107	107	21
32	32	29
88	88	17
111	111	30
97	97	21
47	47	31
86	87	9
52	53	16
25	32	2
96	99	2
116	116	4
112	121	2
79	81	6
72	72	3
16	19	5
84	84	15
79	82	4
16	18	4
43	44	14
114	114	25
20	25	1
51	51	37
122	123	13
45	45	18
70	70	16
93	94	13
1	1	26
16	17	12
122	122	32
83	83	14
57	57	30
24	24	12
54	55	8
77	77	21
60	102	2
55	55	42
10	10	22
121	121	29
17	18	12
9	9	11
63	63	22
76	76	25
46	46	46
33	33	13
42	42	24
127	128	5
120	120	44
94	95	21
120	121	15
81	81	20
90	91	11
21	23	4
86	86	13
72	74	6
105	105	22
101	101	30
6	44	1
119	119	20
41	45	2
42	45	2
4	6	3
117	117	18
34	34	7
132	132	34
93	93	30
108	108	18
13	28	3
49	90	2
50	94	10
102	125	2
54	54	41
88	89	3
25	26	8
96	96	19
18	18	15
27	27	17
38	38	14
65	65	10
118	118	8
31	31	16
53	54	6
48	48	31
33	34	6
61	61	8
14	27	1
109	109	42
38	41	3
11	43	4
28	28	13
44	46	2
40	41	10
9	10	4
110	110	29
13	15	2
19	22	3
28	30	4
65	68	4
127	129	2
32	34	4
75	75	6
44	45	3
15	23	1
127	127	12
55	56	16
26	26	25
115	115	13
80	80	10
52	117	9
2	3	6
79	79	22
69	69	17
11	16	3
112	122	3
73	76	6
12	39	3
4	4	16
39	40	8
110	111	11
116	117	2
10	12	2
22	25	7
49	89	2
3	3	21
113	113	29
70	72	2
15	15	12
117	118	14
91	92	4
94	94	19
56	57	6
9	11	6
12	13	1
112	112	30
89	90	4
39	42	3
128	129	7
131	131	11
62	62	2
67	69	1
85	86	17
83	84	9
48	49	10
80	102	4
130	131	10
19	20	8
114	118	3
52	55	4
62	63	5
68	69	3
77	78	16
65	78	4
12	12	15
26	29	4
126	130	2
8	8	8
65	66	3
86	115	2
45	46	8
92	93	5
112	120	1
11	54	3
6	11	1
17	22	2
86	88	3
82	82	19
18	30	3
89	89	14
17	17	6
22	22	13
127	130	1
5	5	15
96	124	3
129	129	13
90	90	18
82	84	1
60	91	2
64	76	8
54	57	3
124	124	20
1	2	8
11	12	5
7	7	39
76	85	1
104	112	1
53	113	2
72	73	7
13	74	3
56	86	1
23	23	7
66	101	2
73	74	6
68	77	2
5	6	3
111	113	8
45	47	4
61	64	6
23	24	6
87	87	7
63	74	1
31	33	2
112	123	2
106	106	2
80	103	5
66	66	8
22	23	2
117	130	1
15	25	1
87	92	4
31	32	5
26	31	5
118	120	2
12	79	2
5	7	6
48	63	1
32	55	1
98	100	3
78	79	6
106	107	4
60	62	3
84	85	12
95	124	2
128	128	7
0	4	2
97	98	4
87	88	1
86	102	7
16	24	3
103	104	10
126	127	6
130	130	17
56	62	2
12	32	1
99	100	4
19	21	7
118	122	1
67	120	5
41	46	1
76	79	1
1	46	2
23	32	3
25	48	6
13	13	6
58	59	4
103	124	2
62	71	2
21	22	2
39	41	6
79	101	5
107	115	3
16	28	1
94	96	7
11	11	9
29	30	14
104	105	11
2	4	1
6	39	4
0	2	2
94	123	1
102	107	3
19	46	3
42	43	9
88	93	2
2	48	2
16	16	14
28	29	3
13	42	2
129	130	4
65	67	7
0	1	6
71	72	4
125	126	6
41	44	1
102	103	11
101	102	4
114	116	3
121	123	3
79	94	6
115	118	5
79	80	9
131	132	4
96	97	3
40	45	4
30	30	5
89	93	4
109	110	4
59	59	11
91	91	5
47	48	6
96	98	1
59	62	1
3	4	11
41	42	1
98	99	9
18	21	3
58	69	2
102	104	1
105	113	1
20	21	4
69	70	6
69	71	1
38	61	2
101	103	3
57	58	3
31	40	1
67	68	7
121	122	3
74	75	5
13	32	2
104	114	2
43	86	4
64	65	5
43	43	6
123	124	2
38	39	4
92	92	7
38	42	1
64	66	1
32	39	1
71	92	2
44	57	1
107	125	3
71	73	3
81	97	2
29	55	3
96	123	1
57	115	1
15	16	1
102	113	3
61	62	6
105	106	1
7	54	1
66	67	2
26	32	1
70	71	5
1	3	3
104	107	2
81	84	1
23	25	3
63	66	2
25	25	2
73	73	6
51	52	8
50	51	3
55	59	3
74	80	3
40	75	2
107	108	7
3	5	5
63	102	2
12	25	3
14	32	1
118	119	2
49	50	4
37	37	1
11	81	1
76	86	1
65	69	4
100	130	1
63	64	3
73	75	3
46	48	2
41	43	4
44	86	2
67	67	4
61	63	1
107	114	5
27	28	4
7	8	3
0	0	9
110	112	2
114	126	2
57	59	1
95	96	1
119	131	2
18	19	2
21	25	2
1	89	3
76	77	2
50	56	2
77	80	1
59	61	2
15	27	1
43	49	1
43	47	3
50	57	1
40	62	1
60	61	1
9	19	1
19	45	2
43	48	5
6	8	1
22	26	3
72	76	1
12	43	1
89	94	2
97	126	1
64	71	2
108	109	1
100	102	2
88	94	1
3	46	1
111	112	2
0	7	4
112	113	1
106	130	2
13	40	1
132	133	1
104	120	1
14	71	2
115	116	1
15	24	1
119	123	1
117	119	1
92	133	1
79	95	2
9	12	1
131	133	2
15	20	1
13	14	2
106	113	1
81	98	1
109	111	2
4	5	2
104	121	1
9	20	1
118	132	2
125	129	1
33	118	1
107	130	1
25	27	1
54	63	1
82	85	3
17	25	1
64	78	1
71	89	1
85	102	1
77	89	3
7	85	1
109	125	1
2	7	1
66	102	1
3	6	1
66	68	2
97	103	1
32	56	1
17	24	1
7	55	1
