173	174	3
84	85	3
25	25	6
60	60	2
85	86	1
36	36	2
88	88	2
79	79	7
123	125	2
174	174	4
31	32	1
36	37	10
10	32	1
171	171	1
160	160	5
39	39	2
11	11	2
18	20	5
168	168	3
117	117	4
80	80	2
1	5	1
104	167	2
6	16	2
4	4	1
110	110	5
100	100	3
9	9	5
70	71	3
126	127	2
22	22	5
90	90	4
169	169	7
74	74	6
42	42	9
172	172	2
126	130	1
37	38	3
8	8	9
31	31	4
137	138	3
33	33	5
139	139	3
41	41	1
112	112	5
27	28	4
21	21	5
151	151	4
23	24	2
120	120	6
34	42	4
19	19	13
77	78	4
14	14	7
158	159	3
44	44	1
157	157	5
91	111	3
43	43	5
0	0	7
2	3	2
5	109	3
105	175	3
23	23	4
23	34	1
1	1	3
17	17	3
55	56	2
133	133	2
15	16	2
5	6	3
41	42	7
45	45	6
92	122	1
22	23	1
166	166	2
167	167	5
122	122	2
63	63	3
131	153	2
54	57	1
154	155	1
153	153	1
149	149	4
18	18	4
126	126	5
108	108	2
97	98	1
87	115	3
146	146	4
162	162	5
14	15	2
112	115	1
49	49	4
40	40	2
6	6	3
94	94	4
151	153	1
3	4	6
138	138	8
30	30	5
132	132	3
176	176	1
35	35	1
158	166	1
25	45	4
86	87	1
145	145	4
123	127	1
106	106	5
84	84	3
135	136	5
112	113	2
114	114	2
68	68	1
101	159	1
7	9	4
79	86	1
86	86	1
89	89	2
3	3	10
32	32	1
62	63	2
109	109	1
165	165	3
111	111	3
16	16	3
144	145	1
150	151	3
140	140	3
16	30	1
27	27	6
15	15	3
88	89	3
136	136	1
96	97	3
91	92	1
170	170	4
159	164	2
146	147	1
16	17	1
26	26	2
97	110	3
179	179	1
53	53	3
89	149	2
6	7	1
76	77	1
59	60	1
49	54	4
96	96	3
72	173	2
128	129	1
143	157	2
166	167	1
117	136	1
4	12	2
16	35	2
94	98	1
98	100	5
177	178	1
128	128	1
111	123	1
95	108	1
142	145	1
105	105	2
172	173	1
6	15	1
116	136	3
0	10	1
60	61	4
157	158	2
125	129	1
13	14	2
10	40	2
119	124	2
0	42	1
141	141	3
18	43	2
11	32	1
1	2	2
125	125	1
13	43	1
14	21	3
12	33	2
6	8	2
161	162	2
71	71	1
164	164	1
18	19	1
39	40	2
143	144	1
0	31	1
50	50	3
132	139	1
3	10	1
108	120	1
51	51	2
161	161	3
177	177	1
95	100	1
16	23	3
168	169	4
49	50	1
10	25	1
65	67	1
75	76	3
44	45	2
61	61	2
5	5	2
82	82	2
158	158	2
56	56	1
65	66	1
54	54	3
98	98	3
136	146	1
10	11	1
26	27	1
147	151	1
10	10	3
136	137	1
105	107	1
64	76	1
12	13	2
85	85	3
2	16	1
132	133	2
41	50	1
154	156	1
101	118	1
50	52	1
17	18	2
144	144	2
109	111	1
34	34	2
66	66	2
22	37	2
24	24	1
155	155	1
62	64	1
29	30	1
152	153	1
103	167	1
38	38	2
91	138	1
24	25	2
4	6	1
37	37	1
19	20	1
32	33	2
162	163	1
102	102	2
127	127	1
156	156	1
137	137	1
169	170	1
64	64	1
5	7	1
137	149	1
80	81	1
163	163	1
33	35	1
127	164	1
124	124	1
100	110	1
93	93	2
31	35	1
8	15	2
127	128	1
123	133	1
144	174	1
95	120	1
29	29	1
7	7	1
9	10	1
147	147	1
20	20	1
142	142	1
65	68	1
12	12	1
95	95	1
121	131	1
173	173	1
119	119	1
17	35	1
50	51	1
133	134	1
167	169	1
