5	5	1
32	33	1
79	80	2
126	126	9
101	117	1
20	24	1
75	75	4
119	119	8
99	127	4
28	28	1
115	115	3
75	76	1
71	71	2
114	114	3
136	137	2
18	18	5
19	19	4
14	15	3
130	130	11
121	123	3
84	84	7
123	123	7
28	29	3
17	116	4
73	73	8
138	140	1
138	138	5
95	96	4
105	105	4
27	28	1
108	122	1
124	138	1
6	6	9
17	19	3
139	139	5
0	0	3
88	134	1
35	35	1
37	38	5
86	86	2
31	31	2
96	96	5
136	138	2
21	37	1
92	92	3
111	111	3
15	15	9
82	116	3
4	9	1
82	82	4
21	21	8
16	17	1
7	11	2
114	115	2
124	125	1
140	140	4
20	20	2
128	128	4
72	72	7
134	134	7
1	23	2
133	133	3
104	104	2
110	111	2
112	112	7
95	95	4
12	12	2
130	132	7
134	135	4
108	120	4
87	87	5
129	129	4
128	130	1
11	11	4
2	2	1
100	100	2
118	118	3
82	118	1
1	1	3
89	90	1
9	9	2
79	113	3
29	30	6
79	79	3
1	3	1
110	110	3
12	13	1
0	2	1
124	124	2
20	21	2
82	83	2
97	97	7
127	127	2
90	91	1
98	98	5
116	118	1
5	95	1
21	22	1
131	131	4
120	122	1
76	76	2
93	102	1
72	79	2
120	121	4
25	26	1
36	37	1
27	27	1
5	8	2
139	140	2
83	86	3
135	135	2
4	22	1
132	132	3
125	136	1
38	38	5
88	88	2
92	113	1
16	16	2
25	25	2
106	106	1
0	1	1
101	101	1
81	118	4
97	98	1
29	37	2
121	122	2
105	106	2
3	3	2
85	85	1
86	87	2
10	10	1
108	108	1
27	30	3
118	121	1
86	116	1
109	109	1
0	123	1
135	138	1
80	80	1
19	20	1
83	116	1
132	134	1
30	30	4
90	94	2
101	102	2
128	129	2
37	37	1
90	90	2
6	75	1
107	108	1
96	138	1
99	99	4
125	125	1
2	3	2
17	17	1
88	89	1
89	89	2
94	94	2
7	7	1
93	93	1
103	108	3
136	136	2
127	128	1
116	116	1
78	78	1
36	36	2
22	26	1
103	119	1
86	92	1
92	93	1
118	119	1
100	134	1
79	127	1
72	73	1
122	122	3
3	19	1
1	20	1
12	80	1
111	112	1
21	25	1
80	91	1
13	13	1
121	121	1
20	26	1
102	102	1
117	117	1
22	25	1
