78	78	35
69	69	6
41	41	13
80	80	10
63	63	16
15	15	6
52	69	2
57	57	11
57	58	2
65	71	5
42	42	9
32	32	10
39	39	19
25	25	5
48	48	16
72	72	22
19	19	15
59	61	1
55	55	9
40	40	14
45	45	14
61	61	9
73	73	16
37	37	25
38	38	21
21	21	15
31	31	17
38	80	3
27	27	18
70	71	13
37	38	15
16	16	7
35	35	13
77	77	15
58	58	6
56	64	1
42	60	3
6	6	24
34	34	9
15	16	2
29	29	11
12	12	21
8	59	3
71	72	8
54	54	13
68	69	5
46	46	21
0	0	8
5	6	12
5	5	19
3	3	15
4	4	9
7	7	20
9	9	11
47	47	17
13	14	4
40	79	4
37	40	3
63	64	9
56	56	19
8	8	11
61	62	3
53	54	3
26	26	13
42	80	3
49	49	15
20	20	12
31	32	14
76	77	5
74	74	15
1	1	11
65	65	6
59	60	5
10	10	10
70	70	6
6	16	2
18	18	5
50	50	9
75	78	1
0	60	2
11	12	6
28	28	11
36	36	10
52	52	11
17	17	6
27	28	2
67	67	15
79	79	11
0	1	1
76	76	20
19	20	6
42	61	2
53	53	10
49	51	4
75	75	11
1	76	4
15	17	4
70	72	1
51	52	4
11	11	9
13	13	3
45	79	1
33	33	15
20	21	1
8	9	9
45	46	4
68	68	9
29	30	4
32	33	11
74	75	8
31	34	3
55	66	3
14	14	18
1	2	2
70	79	1
47	66	1
46	47	2
71	71	18
59	59	6
21	33	1
67	68	5
0	3	2
6	17	3
56	57	3
2	2	10
42	43	4
4	42	2
26	27	3
40	41	2
64	64	14
9	10	1
46	73	1
56	63	4
5	11	4
50	71	3
16	17	2
51	51	3
62	66	1
47	48	4
35	36	3
62	62	8
78	80	1
15	25	1
43	60	1
30	36	2
30	30	3
79	80	4
20	26	4
62	65	1
10	13	2
43	43	5
54	55	3
65	66	1
60	60	10
5	21	2
64	76	3
8	57	1
1	57	3
75	77	6
57	75	1
2	3	5
19	25	1
3	5	3
69	70	3
66	66	5
52	60	2
3	4	4
51	54	1
35	37	1
9	21	1
64	77	2
48	60	1
20	22	3
77	78	1
58	59	2
31	33	2
55	59	1
49	50	3
73	74	1
25	26	1
58	61	3
46	62	1
13	25	1
75	76	1
26	30	1
39	40	1
64	65	5
29	31	2
4	6	2
15	21	2
66	67	2
44	46	1
8	21	1
2	38	2
55	56	1
6	7	3
22	22	2
10	12	2
58	67	1
30	31	2
36	37	1
20	25	1
46	77	1
44	53	1
10	11	2
34	35	1
62	80	1
61	79	1
59	62	1
44	59	1
12	13	1
72	74	1
