59	64	2
36	37	3
75	75	3
169	170	6
37	37	5
133	142	1
96	96	2
124	124	3
139	139	7
141	141	2
167	167	9
87	155	4
51	51	5
137	137	7
12	63	5
18	43	2
15	40	4
90	97	4
65	65	4
95	95	5
15	15	4
140	140	2
160	160	4
114	114	5
127	142	2
41	41	2
36	36	3
13	13	6
140	155	3
81	83	5
169	169	4
92	92	3
66	67	5
38	38	7
125	125	2
27	27	5
0	1	1
23	28	3
30	31	6
25	25	9
153	153	4
121	121	1
9	12	4
2	45	4
150	151	1
146	146	3
37	39	3
8	8	7
19	19	4
106	106	2
12	12	8
84	85	1
20	20	1
29	29	1
29	32	4
15	16	3
124	125	6
68	68	1
76	76	3
43	44	7
30	30	5
86	86	9
75	88	2
4	22	5
8	88	1
152	152	2
16	16	11
126	138	4
33	33	3
42	43	9
111	122	3
72	86	2
168	168	7
113	113	2
60	60	3
39	40	5
148	168	1
131	131	2
134	134	2
56	57	4
59	61	4
130	145	4
144	144	1
9	88	1
6	14	2
93	93	5
32	40	3
115	115	5
18	18	3
62	63	1
2	3	2
26	26	6
11	11	5
16	17	3
94	94	1
143	143	2
19	44	2
135	135	1
133	149	1
25	26	1
91	108	6
111	140	2
142	143	1
61	61	1
6	6	8
173	173	2
85	85	6
40	40	4
6	105	2
176	176	6
112	142	1
9	9	2
29	30	5
10	10	4
130	130	3
4	4	2
13	15	3
56	58	1
73	73	1
3	3	5
90	90	5
109	109	4
130	169	1
156	164	2
160	162	4
114	115	3
8	9	2
87	87	2
149	149	2
111	129	1
31	31	6
22	22	3
5	5	11
55	55	1
72	72	2
174	176	2
129	144	2
3	26	1
125	153	1
24	24	1
96	97	3
9	37	1
95	147	2
110	112	1
71	72	4
8	65	1
4	11	1
169	171	3
151	153	2
98	98	3
2	2	2
107	115	2
41	42	3
120	121	1
42	42	2
150	180	1
63	63	1
90	171	1
7	8	5
168	169	1
77	77	5
52	52	1
90	107	1
39	41	3
179	179	2
152	171	1
97	97	4
32	32	3
88	88	3
71	89	1
82	86	1
7	7	1
10	64	1
23	23	2
67	67	2
155	164	3
81	84	2
29	37	1
152	155	2
163	179	2
33	42	3
14	15	3
89	89	2
78	78	1
88	174	1
62	62	2
39	39	1
133	133	1
55	56	1
43	43	4
51	87	1
154	154	5
27	28	1
110	110	2
33	44	1
20	25	2
155	165	1
100	100	3
112	112	2
49	49	2
119	119	1
87	99	2
12	13	1
151	152	2
14	14	3
86	143	1
49	87	1
125	127	1
3	8	1
146	147	2
64	64	1
12	20	1
166	166	3
153	178	1
9	18	1
56	56	1
109	110	3
45	45	2
22	24	1
3	9	1
150	150	1
15	63	2
118	118	1
102	124	3
79	79	1
17	21	1
71	83	1
175	177	1
170	170	1
17	17	1
53	55	2
120	120	1
3	5	1
13	34	1
29	34	1
1	1	1
67	102	1
103	115	2
109	144	2
8	10	1
83	84	1
167	176	2
7	15	1
7	50	1
96	98	1
93	127	1
28	31	2
35	37	1
103	103	1
5	8	1
177	178	1
24	27	1
122	122	1
6	11	1
157	158	2
0	33	2
127	135	1
9	10	1
21	22	1
116	117	1
100	115	1
95	157	1
152	153	1
73	74	1
152	154	1
