4	6	4
13	14	2
143	146	3
164	167	3
6	6	8
124	124	12
77	79	2
61	62	3
64	147	1
107	107	10
6	155	1
130	131	16
58	58	11
45	45	8
23	23	19
37	37	15
103	105	2
36	36	17
169	169	14
128	136	2
146	146	11
134	136	5
163	168	3
182	183	10
194	194	22
70	73	2
174	175	13
158	158	19
104	105	3
17	18	8
27	27	9
134	137	2
13	13	18
151	152	16
110	110	15
0	2	10
194	195	2
142	142	6
108	108	9
24	24	13
62	76	2
81	84	2
168	169	11
11	12	15
49	49	21
154	159	1
156	172	6
181	183	5
25	25	16
81	83	9
165	166	12
150	150	39
40	41	5
191	191	13
152	152	12
103	106	2
178	191	3
71	72	3
165	165	27
196	196	12
149	149	19
184	184	29
99	99	9
111	179	2
12	12	15
48	48	12
33	35	2
55	56	1
151	151	21
5	5	7
146	171	6
20	20	11
35	36	9
25	36	2
9	9	13
130	172	3
7	8	20
8	8	2
79	80	4
64	119	2
40	40	19
161	163	4
29	29	14
185	185	32
74	75	2
191	193	4
135	137	11
1	3	1
157	157	2
161	161	14
67	67	6
47	47	23
167	167	23
3	4	8
55	55	14
70	82	2
101	121	5
148	148	21
69	69	12
177	177	16
190	190	11
130	132	7
152	157	2
65	68	4
120	121	4
195	195	10
55	72	1
151	153	3
2	2	14
138	140	3
129	129	17
63	63	4
120	120	17
173	173	18
145	146	7
62	64	2
134	147	3
133	133	6
187	187	28
102	120	1
117	117	4
108	117	3
16	17	14
176	176	9
50	51	5
56	136	2
135	136	6
39	39	24
166	171	1
111	111	18
19	20	18
31	31	14
73	74	3
162	162	14
154	155	10
136	136	13
2	3	3
161	165	3
14	44	3
145	145	17
26	26	12
5	22	1
58	61	5
124	126	5
84	85	5
105	106	3
137	139	6
45	46	7
64	64	12
19	19	18
113	113	15
179	180	6
41	41	17
156	156	22
156	181	2
162	181	2
159	159	11
189	189	26
83	127	2
142	149	3
7	7	20
82	82	7
177	178	11
51	51	17
153	153	10
6	23	4
143	182	1
175	175	15
132	132	8
4	5	5
117	118	7
179	179	14
17	19	7
186	186	15
160	164	5
76	76	7
15	15	12
73	115	2
136	137	6
95	95	2
172	172	21
2	21	4
181	181	31
162	164	7
167	169	5
60	60	4
96	115	2
170	193	1
100	101	4
161	164	3
104	104	15
42	42	11
195	197	1
161	162	8
150	168	1
182	182	27
108	110	1
7	21	1
170	170	26
23	27	5
16	27	1
68	68	6
10	11	1
94	95	3
160	160	17
25	26	9
70	72	1
53	53	11
0	3	5
59	62	4
44	44	7
134	134	10
160	176	3
172	176	1
105	117	3
72	72	10
185	186	10
124	125	7
192	196	1
34	62	2
146	147	5
121	121	15
183	183	24
165	177	4
59	68	1
103	112	3
195	196	4
126	128	5
27	39	4
126	127	6
39	44	2
134	140	6
143	143	13
38	38	8
2	4	1
34	37	3
43	43	18
129	147	6
73	123	3
106	106	18
153	157	5
109	109	11
148	149	3
14	14	23
84	84	3
152	154	10
17	17	9
78	78	8
192	193	13
138	147	1
61	74	2
136	138	2
166	166	14
20	21	8
150	158	1
39	40	3
41	43	7
59	60	5
127	127	16
95	121	1
107	165	2
116	116	6
112	167	2
155	155	15
154	154	11
139	139	10
108	165	6
10	10	19
18	18	11
130	130	19
184	186	10
118	119	5
96	96	8
193	193	11
98	98	15
144	144	9
180	180	17
155	156	7
184	185	3
115	115	7
159	179	1
164	164	6
156	157	7
40	42	7
114	114	16
179	191	1
5	7	7
167	168	5
163	163	6
30	38	1
22	22	11
122	122	9
139	140	4
178	178	14
83	84	5
110	114	2
71	71	10
171	177	2
97	99	5
65	66	2
152	153	6
173	175	8
149	150	13
112	114	5
1	2	6
131	131	4
100	100	7
140	140	15
130	135	2
16	16	15
21	21	17
160	163	1
109	110	2
25	31	1
116	117	7
11	13	8
144	159	4
166	167	1
43	44	15
32	32	7
41	44	1
112	122	1
6	7	6
161	166	4
16	19	6
108	111	5
70	70	6
122	136	7
35	62	2
151	154	6
7	19	1
59	61	7
168	168	21
20	23	4
163	164	7
18	19	4
56	57	7
15	29	6
157	158	14
106	107	6
46	47	2
20	22	3
76	77	10
78	79	4
34	38	1
6	8	5
148	177	5
100	108	2
59	59	9
80	80	11
59	65	2
161	167	1
102	112	3
37	38	5
160	179	1
79	82	5
104	106	4
151	155	5
15	17	1
118	118	6
83	83	7
83	88	4
70	71	5
158	180	2
189	190	4
178	190	1
169	170	10
61	61	8
153	165	4
170	171	7
160	161	2
30	30	9
8	9	5
93	94	3
64	67	1
137	137	14
147	148	6
140	165	1
98	99	3
87	87	12
146	148	6
101	102	7
155	158	2
120	140	3
11	107	2
141	141	24
28	34	3
126	170	1
54	55	1
169	171	1
42	44	3
174	174	8
114	115	4
99	115	1
190	191	9
133	194	2
197	197	3
1	20	1
108	109	1
125	125	9
172	177	1
135	135	12
89	89	11
27	66	3
75	76	2
88	89	2
74	76	2
6	154	1
164	166	3
154	172	3
37	39	1
147	147	11
72	73	3
77	95	4
173	174	7
150	160	1
147	174	1
24	25	5
38	39	4
175	176	4
187	188	10
12	13	1
114	171	5
38	64	1
1	19	1
100	103	2
1	1	14
132	145	2
171	187	1
126	126	12
51	58	3
3	5	1
82	127	2
34	34	7
28	28	17
113	114	3
107	113	3
48	49	3
152	178	2
78	114	3
12	103	2
74	82	1
11	11	15
142	147	2
186	187	5
173	176	3
155	193	5
122	123	5
4	17	3
58	66	1
101	106	2
132	133	4
2	18	2
105	105	3
33	33	7
31	39	1
3	3	8
183	184	2
128	128	6
102	104	1
171	171	9
0	0	2
104	107	3
75	75	2
123	123	15
94	94	2
111	117	1
98	102	2
196	197	3
2	30	3
34	68	2
95	117	2
31	181	4
50	50	12
51	52	2
35	35	7
30	31	7
173	188	1
155	157	1
36	37	1
31	32	1
81	82	3
151	159	3
104	116	1
189	191	1
46	46	11
61	73	3
57	57	6
25	35	1
146	175	3
52	57	2
134	139	3
102	102	5
121	122	2
80	82	2
85	85	5
144	181	2
88	88	7
107	125	2
144	147	7
112	112	7
94	99	4
150	165	2
54	54	6
34	77	3
77	78	2
149	171	2
152	169	2
4	4	9
112	172	3
6	19	3
111	115	2
102	103	6
133	134	5
22	24	2
46	54	2
119	121	1
4	153	3
9	21	1
19	24	2
21	23	5
86	87	5
194	197	1
123	124	4
18	24	2
67	68	1
143	150	2
143	164	2
8	193	1
162	163	1
22	25	1
86	86	3
59	119	3
153	158	2
166	177	2
145	148	2
81	85	1
134	135	2
103	117	5
131	133	1
112	190	4
98	118	1
28	29	2
103	116	4
168	192	2
110	176	3
135	138	3
159	162	3
188	188	8
94	116	2
125	127	1
15	24	4
147	172	1
34	35	8
10	13	4
25	27	2
150	153	4
95	96	3
169	175	5
61	67	2
39	68	2
27	28	2
70	136	3
66	66	1
169	196	1
97	97	3
141	143	2
41	42	4
111	191	2
163	181	1
2	20	1
140	144	3
147	171	2
8	192	1
125	128	1
143	148	2
4	9	2
143	144	4
122	134	1
107	109	1
162	167	3
192	192	5
94	123	1
59	74	1
154	156	1
85	89	1
0	1	3
187	189	1
56	56	3
62	62	3
109	113	1
99	100	4
159	160	1
70	90	1
116	118	2
191	192	3
185	189	3
165	167	2
96	98	3
28	39	2
161	179	2
66	139	1
132	134	1
21	28	2
138	139	2
154	173	1
74	74	4
52	52	5
182	191	2
101	101	5
1	32	2
12	30	1
57	58	1
47	48	1
59	118	1
101	103	1
144	164	2
62	68	2
80	81	14
5	6	9
26	27	3
7	9	2
52	53	3
71	127	2
28	30	1
108	118	2
163	167	2
123	135	5
138	138	8
93	100	2
62	65	2
66	158	1
125	126	2
168	179	5
66	137	1
132	139	2
103	111	3
180	183	1
73	73	4
66	138	1
110	125	1
141	142	2
76	95	3
176	177	7
60	76	1
188	192	1
88	131	1
172	173	1
171	172	4
166	185	1
152	168	1
63	64	5
113	115	2
109	111	2
114	141	1
177	182	5
190	193	1
138	155	1
144	145	3
119	119	6
172	189	3
175	178	2
106	109	2
142	144	2
42	43	8
97	106	2
23	24	3
31	38	1
14	15	1
9	10	4
5	8	2
157	180	1
172	174	2
158	181	2
180	192	1
88	90	1
129	149	3
148	164	3
1	5	1
131	156	1
111	112	3
78	80	1
131	158	1
137	140	1
82	84	1
34	36	1
46	49	1
52	54	1
62	63	3
102	106	2
53	55	5
32	38	1
82	83	1
67	159	3
77	77	1
115	190	2
18	26	2
54	56	2
77	80	2
96	102	1
3	31	2
12	14	1
0	18	1
180	181	1
15	16	2
71	73	2
73	76	1
60	61	1
176	178	1
132	150	1
160	166	1
36	79	4
68	89	1
112	113	1
103	103	1
97	98	1
158	159	2
148	175	1
152	171	1
144	161	3
78	95	1
94	115	3
188	189	1
21	22	3
131	132	2
168	171	3
101	118	1
155	172	1
78	86	3
153	156	3
29	30	1
40	43	1
31	35	2
13	45	1
88	130	2
165	169	2
16	18	1
97	117	2
80	95	1
33	37	1
28	63	1
101	141	1
36	80	1
106	108	1
33	39	2
144	146	1
188	195	1
23	31	2
156	159	1
141	166	3
181	182	3
36	38	2
119	120	2
157	160	1
147	164	2
135	139	2
129	136	3
20	196	1
159	172	1
32	33	3
97	119	2
127	128	2
108	163	1
27	33	2
70	76	2
129	134	1
16	29	2
188	194	1
48	115	2
122	124	1
79	81	1
102	165	1
142	150	3
123	127	3
150	161	1
172	175	1
173	192	1
142	143	2
26	29	1
93	93	2
28	44	1
97	105	1
3	21	1
193	194	4
168	172	1
82	85	1
161	168	1
85	127	1
60	75	1
160	162	1
65	65	3
44	58	1
103	104	1
96	107	1
59	96	1
89	90	1
96	105	1
5	9	1
61	70	1
150	151	2
131	135	1
9	23	1
9	155	2
79	79	1
99	106	1
147	170	1
169	185	1
24	38	1
143	166	1
87	88	1
145	147	2
148	150	1
188	190	2
16	42	2
20	25	1
142	146	1
136	140	1
170	177	1
178	189	1
49	50	1
166	170	1
138	141	1
0	4	1
105	108	1
166	175	1
