99	100	2
72	72	5
91	91	1
67	67	10
33	50	2
82	82	14
68	68	4
61	61	5
69	69	7
52	56	2
46	46	10
41	42	5
39	39	7
47	47	8
31	31	10
86	87	2
50	51	1
57	57	5
24	24	10
69	87	1
45	45	9
36	36	3
38	39	5
44	45	3
89	89	4
42	43	11
61	62	5
70	75	2
59	59	11
30	30	8
71	100	2
27	27	13
90	93	2
63	63	4
71	71	11
58	77	4
72	73	3
53	54	5
96	96	9
103	103	12
50	50	6
20	21	8
58	58	10
24	25	3
21	21	11
76	77	1
60	60	10
103	104	3
75	76	5
42	46	2
73	73	5
104	104	18
95	95	6
25	26	4
78	78	6
56	56	10
25	30	2
81	81	4
84	84	4
84	85	2
74	74	9
64	64	8
79	80	5
55	56	2
39	44	7
71	72	4
97	97	4
49	49	14
75	75	16
31	58	3
33	45	6
63	64	1
37	38	1
36	44	1
25	25	11
93	96	3
51	52	6
77	77	4
46	61	2
28	32	3
76	76	11
26	26	10
79	79	6
71	73	3
31	32	2
51	51	4
24	27	2
99	99	7
33	52	6
47	48	8
39	43	2
65	66	2
42	42	4
90	91	5
90	106	1
92	93	4
43	45	5
98	98	6
22	22	5
70	70	3
40	40	6
46	47	1
35	35	7
65	65	3
34	34	5
73	74	6
43	43	7
36	37	3
74	75	3
32	66	2
93	93	5
48	49	3
58	59	2
100	100	14
26	27	5
102	102	3
64	65	1
44	44	5
101	102	7
55	57	7
40	41	1
37	37	3
52	52	3
51	53	2
70	86	1
69	75	3
93	94	1
23	24	4
101	103	4
80	93	1
89	99	1
91	92	4
69	70	1
26	59	2
90	90	6
94	94	3
54	54	2
34	43	1
80	80	6
55	55	6
66	67	5
88	90	1
70	76	2
38	40	1
54	83	2
35	36	1
33	33	5
70	87	1
88	94	2
37	50	2
20	27	2
92	92	5
41	41	2
101	101	1
32	32	4
83	84	2
38	38	2
45	60	1
104	105	2
65	67	1
89	90	1
70	72	3
69	93	1
105	105	2
70	71	3
23	23	5
64	66	2
54	55	2
78	79	1
106	106	2
68	69	2
55	60	1
85	85	5
45	61	1
36	45	1
67	68	3
21	31	1
88	93	1
98	99	3
28	31	1
97	98	2
53	53	4
74	103	1
55	58	2
88	88	3
45	46	1
57	58	1
102	103	1
84	88	1
22	23	1
86	86	1
91	93	1
70	93	1
84	92	1
60	61	1
90	103	2
85	93	1
87	88	1
47	63	1
62	62	1
99	101	1
