33	33	10
44	45	7
24	24	9
38	39	12
35	43	1
48	48	23
34	34	35
45	45	27
37	37	24
12	12	5
60	60	8
38	38	17
43	43	29
42	43	6
3	3	4
54	55	9
5	5	12
5	6	6
40	40	23
56	57	9
29	53	2
32	32	10
48	58	4
30	31	9
59	60	6
11	11	9
52	52	14
30	30	18
57	57	21
45	46	15
38	41	9
2	3	6
62	62	15
48	56	4
16	16	9
47	48	4
58	58	29
31	31	29
57	58	15
2	2	8
22	22	15
35	35	31
44	48	2
50	50	18
10	10	6
18	18	12
21	21	5
56	56	34
47	47	18
6	52	3
14	14	9
53	55	1
42	42	18
13	13	10
54	59	3
1	3	4
37	41	5
48	49	2
36	61	8
9	10	5
46	46	8
44	44	23
24	57	2
37	39	10
23	36	2
53	54	9
23	24	4
20	40	2
43	44	8
49	49	6
41	41	6
39	39	17
54	54	20
12	13	2
1	1	12
13	30	3
7	7	17
35	36	8
45	47	8
0	3	3
19	19	6
4	14	1
4	4	6
19	20	4
23	23	6
20	20	10
32	33	6
19	40	4
46	47	2
37	55	3
1	2	7
36	37	7
49	50	2
55	55	8
19	25	1
22	35	2
61	61	5
29	29	4
51	51	20
55	60	2
42	56	3
15	15	2
34	59	3
59	59	14
40	41	7
17	17	7
52	53	5
15	16	3
51	55	2
16	23	1
9	9	6
48	57	4
43	45	3
2	5	2
11	13	5
19	58	1
3	5	2
50	53	7
51	52	4
44	47	3
39	41	2
8	10	2
25	25	10
43	48	3
14	15	5
37	42	1
6	6	6
16	58	4
31	60	1
6	7	2
20	21	1
8	8	3
60	61	8
13	23	1
24	25	6
4	5	3
55	56	7
36	36	6
15	56	3
9	25	1
17	24	2
51	53	5
39	56	1
37	40	3
42	50	1
53	53	3
33	34	1
8	17	1
31	43	1
16	57	1
16	18	1
37	43	1
16	17	2
43	57	2
39	52	1
31	32	5
39	59	3
33	35	1
61	62	2
13	15	2
11	16	3
13	14	3
40	42	2
34	46	1
50	52	5
41	51	2
0	0	1
50	51	6
17	18	4
41	43	3
39	40	1
57	60	1
40	52	1
54	60	1
19	59	1
32	34	2
19	29	4
56	60	1
22	23	1
44	46	2
48	50	1
34	35	1
20	37	1
30	41	2
36	42	2
30	33	1
58	59	1
0	34	1
18	58	1
34	47	1
23	58	2
7	8	1
11	24	1
15	34	1
60	62	1
42	60	1
35	62	1
10	11	1
37	38	1
