104	104	28
90	90	6
89	107	3
54	55	3
77	85	3
75	75	33
43	44	10
25	25	19
53	53	37
72	76	3
72	72	16
24	26	3
92	93	4
102	102	36
83	86	9
49	49	14
61	61	27
86	86	5
99	99	15
77	78	4
87	89	4
87	87	12
51	51	15
74	74	24
31	56	3
32	32	22
25	28	2
79	79	7
23	24	11
52	52	23
95	96	6
21	21	11
34	34	25
64	65	19
71	76	2
91	91	7
69	102	4
35	35	41
97	97	13
65	65	26
78	86	4
64	69	3
86	100	6
63	63	29
92	92	16
89	89	7
50	50	20
40	40	9
79	88	6
76	76	20
40	60	3
70	70	30
68	68	45
22	22	21
36	36	12
22	23	4
103	103	28
91	92	7
100	100	22
84	100	3
83	83	8
31	32	9
63	64	4
71	71	25
31	31	32
27	29	2
64	64	35
26	27	4
23	23	15
72	77	10
27	40	5
76	77	3
100	101	25
25	44	1
54	54	7
27	27	6
41	41	7
81	81	12
84	84	3
77	77	8
56	57	5
101	102	7
84	87	2
50	94	1
42	42	5
78	81	2
37	38	10
80	88	4
67	87	5
105	105	18
73	74	13
57	60	4
43	43	24
27	46	2
72	78	3
87	88	2
93	93	27
67	67	21
79	81	5
76	105	1
97	98	4
65	85	5
101	101	25
61	62	14
59	59	8
62	62	20
51	56	8
28	28	4
64	66	1
60	60	8
94	94	14
74	75	9
73	73	21
55	55	25
84	85	2
101	105	2
95	95	17
69	69	17
30	39	1
82	82	8
99	100	2
20	21	3
80	80	5
44	44	3
49	50	3
98	98	5
38	39	5
93	100	3
101	104	6
67	68	3
96	96	13
76	97	1
66	66	13
87	90	1
106	107	3
79	85	2
93	94	16
82	83	4
48	48	3
81	106	1
33	33	11
57	57	14
37	37	17
94	99	5
47	47	8
104	105	4
78	87	4
65	66	5
77	81	3
93	106	6
24	24	21
80	100	1
66	67	3
76	106	2
30	30	7
73	75	15
88	88	2
99	107	4
69	74	3
48	49	4
66	99	5
52	53	11
88	89	3
85	85	15
59	60	6
83	85	1
100	102	3
92	99	2
91	97	1
88	106	13
64	70	3
64	74	4
78	79	7
67	94	1
71	72	13
41	42	4
76	101	2
29	29	4
25	26	3
92	94	9
51	53	3
78	78	14
47	48	3
85	105	2
84	97	4
96	97	6
105	106	5
46	46	4
73	77	6
82	84	3
102	103	3
98	99	3
89	90	9
36	46	1
63	71	1
85	86	2
88	91	2
76	100	4
77	106	2
63	65	2
21	39	3
56	65	3
42	43	8
55	56	6
88	97	3
56	56	5
69	73	1
86	105	3
33	34	3
30	32	2
53	58	2
101	106	1
22	29	5
93	105	1
26	26	6
46	47	6
70	71	8
26	28	3
83	97	7
75	76	9
93	99	1
23	31	4
38	38	13
63	92	4
76	78	1
39	45	6
21	22	1
106	106	7
53	69	3
24	25	3
39	39	5
68	75	1
21	24	2
82	86	1
67	71	3
67	69	10
55	69	1
78	80	1
68	72	3
22	27	5
50	51	6
54	77	2
91	93	1
79	82	7
36	59	2
69	101	1
67	93	2
58	59	6
60	63	1
86	87	1
107	107	1
27	41	2
79	98	1
50	93	1
22	31	5
83	87	1
85	100	1
57	58	2
53	54	3
88	90	4
77	87	2
96	106	1
82	98	1
58	58	3
103	104	3
65	99	5
71	96	2
34	36	2
31	34	1
40	41	3
73	76	1
75	102	2
71	85	1
55	64	2
76	81	1
51	52	5
60	64	2
60	62	1
90	91	1
61	73	3
72	73	1
84	99	4
100	103	1
89	98	1
53	56	2
97	99	5
93	95	1
69	84	1
98	106	1
50	75	1
78	85	2
32	34	1
94	95	2
51	54	2
72	92	2
89	96	2
68	69	4
91	100	1
25	29	1
56	60	1
39	40	1
76	96	1
34	35	1
98	107	1
31	54	2
94	98	1
77	100	1
40	50	1
76	99	2
95	98	1
62	63	1
68	87	1
37	45	1
67	76	1
29	30	2
61	63	1
84	88	1
52	54	1
29	44	1
