84	84	11
18	19	9
102	103	4
76	76	40
64	64	35
4	4	10
48	48	18
120	120	8
86	91	2
16	16	32
46	73	5
30	30	9
126	126	25
75	76	9
22	22	22
65	65	39
17	18	3
46	60	6
113	113	15
73	73	44
67	67	34
10	83	4
29	29	28
100	101	4
5	6	4
132	133	12
34	34	23
47	47	47
115	116	8
36	44	4
118	118	29
77	78	9
17	17	33
32	32	31
85	102	3
90	90	23
27	93	4
12	13	7
48	74	1
81	81	18
117	117	11
35	45	3
6	13	2
85	85	19
33	33	47
26	27	7
21	21	26
14	23	2
119	119	19
27	27	31
82	82	14
46	46	35
49	95	5
101	101	11
60	60	14
80	80	23
8	8	26
92	92	13
78	121	2
99	101	3
79	79	13
134	134	3
86	86	27
68	68	32
72	73	16
111	111	37
12	12	33
63	64	6
46	62	4
7	15	1
15	15	16
72	72	39
124	124	13
10	16	3
60	63	5
74	74	14
6	7	5
121	132	3
22	24	2
107	107	21
101	106	3
45	45	37
10	85	2
28	29	10
92	115	2
3	86	10
31	80	4
10	10	26
81	83	4
5	5	16
8	9	8
77	77	24
38	38	6
95	98	8
123	134	3
20	20	22
27	32	2
70	70	14
8	36	6
0	0	9
29	49	3
78	78	14
87	88	2
131	131	9
82	101	3
98	98	17
94	106	3
83	84	7
118	121	2
9	9	27
76	80	2
59	59	12
85	132	2
66	66	18
25	58	2
25	25	24
90	113	2
71	71	22
94	95	9
41	42	3
59	70	2
89	90	7
59	108	1
24	24	4
81	82	7
94	94	30
121	121	8
7	7	24
105	105	7
75	75	36
67	68	10
72	82	6
123	124	3
62	62	45
124	125	13
82	92	6
2	2	17
9	46	5
23	23	11
90	91	8
115	115	6
67	70	5
32	48	4
35	35	19
29	31	7
13	20	3
59	60	8
110	110	14
30	31	10
109	110	12
55	56	7
47	48	7
23	24	8
123	123	14
61	75	3
7	56	1
63	75	3
39	45	5
108	108	8
5	60	9
71	72	10
97	97	9
63	63	30
79	80	6
27	45	8
116	120	4
100	100	22
31	31	11
31	78	1
46	61	5
70	78	1
126	127	11
60	61	4
102	102	10
99	100	7
29	55	3
36	37	5
38	42	7
117	120	5
3	12	2
98	99	20
114	115	2
118	119	9
57	62	3
3	3	24
103	103	18
11	81	4
61	65	4
11	29	3
66	67	13
98	102	7
119	120	6
78	79	5
77	121	4
30	34	1
131	133	3
29	30	15
9	10	13
61	61	16
37	38	4
96	109	2
14	15	6
47	68	7
66	72	4
37	44	8
46	75	3
68	71	7
91	94	4
43	43	17
27	48	1
25	72	5
93	101	4
86	114	4
103	110	3
108	131	5
21	55	3
83	83	16
102	111	3
112	116	1
92	94	2
62	63	6
31	32	6
6	59	1
102	110	2
26	26	22
57	57	9
95	95	12
19	95	2
82	93	2
3	4	4
96	102	1
43	47	4
88	88	6
97	98	13
127	127	7
89	115	6
7	11	1
36	36	9
10	11	3
16	17	3
22	26	1
14	14	13
124	126	3
91	102	4
61	63	4
11	93	8
65	66	3
43	45	2
86	119	1
18	96	1
23	26	2
79	82	3
45	62	8
93	93	22
64	65	10
14	74	2
28	28	7
25	47	7
37	37	7
37	39	6
106	106	10
35	89	2
112	112	14
129	129	14
56	57	2
73	74	8
104	105	7
33	47	10
45	64	4
1	2	3
127	128	2
56	56	18
74	76	5
49	49	3
87	89	4
49	100	2
64	69	1
96	96	10
46	47	9
112	113	6
78	122	2
89	89	1
48	50	3
20	24	2
105	107	4
45	48	4
131	132	5
38	43	3
79	120	2
25	26	4
83	101	1
99	99	16
127	133	2
25	27	4
62	74	6
44	44	14
132	132	6
18	18	21
22	27	4
12	46	2
48	77	1
34	35	4
39	41	1
28	80	4
63	80	1
91	115	3
48	78	4
39	42	3
94	127	2
5	14	1
93	94	4
125	125	5
35	67	4
96	97	8
114	114	9
109	109	3
113	117	6
11	82	7
13	13	12
11	11	6
12	100	3
47	63	5
25	93	2
98	100	4
20	22	5
91	91	4
16	18	1
22	76	1
57	58	4
61	72	7
7	58	1
116	116	5
18	93	2
5	7	4
28	91	3
24	26	5
41	41	2
11	22	1
45	58	9
42	42	8
16	23	6
91	92	7
86	88	2
111	112	6
130	130	4
29	35	1
28	76	1
79	85	6
10	29	2
11	26	4
12	47	4
77	80	7
24	94	1
82	83	7
1	1	14
55	55	4
11	12	10
128	128	11
58	70	1
75	77	3
26	48	5
35	73	4
76	77	5
27	47	1
19	49	1
87	87	4
60	108	1
62	76	3
116	117	3
44	75	4
133	133	4
88	122	4
122	122	3
69	69	5
0	1	3
67	72	4
31	79	2
8	106	2
93	98	3
57	68	3
36	96	1
61	62	9
104	104	3
39	43	2
29	32	1
63	73	5
118	120	3
37	42	4
85	88	2
131	134	2
27	92	1
32	33	9
6	6	7
125	129	2
21	22	2
27	28	4
101	102	3
32	92	4
95	97	1
39	39	4
6	14	1
37	45	4
60	71	2
11	92	3
19	19	21
39	44	1
33	34	5
3	87	2
27	29	5
42	43	3
9	83	1
4	13	2
90	120	1
67	69	4
32	82	5
84	113	1
45	46	7
37	43	2
85	86	3
31	43	1
70	71	6
8	105	2
122	134	3
18	125	1
50	109	3
49	50	1
91	96	4
104	111	1
44	84	2
59	107	2
57	60	2
20	43	1
39	56	1
6	9	2
91	97	2
38	40	2
27	96	2
50	50	2
122	123	3
42	82	2
4	5	4
36	41	3
58	58	3
48	49	2
4	7	3
22	67	3
13	94	1
108	109	2
50	57	3
28	47	2
41	43	4
90	94	2
8	71	2
10	12	3
124	127	1
39	61	1
36	76	2
96	98	1
60	70	2
14	19	3
110	111	2
39	80	1
4	56	3
29	59	1
59	106	2
33	36	3
78	80	1
11	16	1
4	127	1
31	35	2
10	101	3
7	8	1
13	97	3
25	81	2
34	45	1
19	32	3
5	8	2
68	69	2
30	111	1
105	108	2
8	12	2
76	79	1
63	65	1
94	99	1
94	101	1
83	85	1
15	21	1
70	80	2
33	46	1
96	128	2
15	16	2
47	66	1
2	3	3
93	96	1
42	81	1
13	48	1
88	114	1
119	122	1
84	110	2
44	82	3
40	40	6
40	41	2
125	126	3
51	56	2
44	45	2
33	43	3
106	107	2
0	9	1
13	46	1
64	70	2
100	120	1
36	39	3
13	100	4
91	99	1
103	105	2
25	28	1
8	76	2
89	119	1
103	104	5
7	25	4
35	75	2
92	97	1
8	72	2
32	81	1
6	8	1
94	123	2
89	121	2
130	134	1
7	14	2
73	75	2
43	44	1
81	133	1
10	30	1
46	66	2
86	87	3
45	61	4
17	19	1
6	41	1
120	133	1
47	74	1
48	100	1
69	79	1
25	57	2
87	112	1
18	20	1
56	58	1
20	33	1
111	113	1
18	21	1
10	46	1
56	62	1
13	29	1
129	130	1
35	78	1
93	100	2
86	90	2
84	85	2
48	90	1
90	127	1
63	78	1
44	46	1
17	99	4
23	25	1
40	43	1
63	71	2
7	81	3
67	73	1
3	10	1
72	84	2
47	61	1
28	99	1
41	45	4
89	104	1
123	126	1
21	41	1
11	100	1
6	11	1
61	76	1
80	81	1
108	110	1
29	48	1
111	120	1
10	18	1
36	49	1
47	69	1
39	40	1
5	56	1
