167	167	7
5	5	9
15	16	3
228	229	9
9	9	14
0	0	18
80	82	8
183	185	1
86	86	7
35	43	2
20	20	25
101	111	2
51	219	1
41	41	4
140	140	10
223	223	6
39	40	5
28	28	24
166	166	7
226	226	14
140	196	1
238	239	2
5	6	2
190	190	10
53	53	8
158	163	2
33	40	1
65	66	3
126	126	11
46	46	29
70	71	13
39	61	7
202	202	23
82	85	3
161	225	1
210	210	10
35	35	8
224	224	10
187	189	4
111	111	2
62	63	1
15	15	6
134	135	3
65	65	28
225	225	3
55	55	16
8	8	18
223	224	1
235	235	7
210	216	2
126	127	1
36	36	26
45	45	10
146	156	2
127	130	1
195	195	6
17	20	1
37	43	2
107	109	4
128	128	9
45	46	2
178	178	9
28	63	2
128	136	2
139	142	2
26	26	11
76	77	1
164	164	10
118	118	10
147	183	2
96	96	8
228	228	22
146	146	7
107	108	5
15	30	1
153	182	2
232	238	2
166	223	1
192	192	6
33	33	13
78	78	6
177	177	8
135	136	3
6	6	6
75	76	4
21	21	10
217	218	5
231	231	6
31	60	4
211	230	3
28	64	3
237	237	9
6	7	5
149	149	7
184	208	2
98	99	1
56	57	4
42	42	12
124	127	1
48	49	2
72	72	9
134	134	8
137	137	7
137	138	5
37	70	3
155	225	1
27	27	21
48	56	3
18	20	4
139	140	1
203	203	9
8	29	4
74	74	13
6	17	1
66	148	1
140	141	4
212	213	6
100	101	4
88	88	5
2	2	18
158	158	10
97	101	6
119	127	5
13	13	2
144	145	8
28	29	1
52	53	3
150	150	11
0	22	4
101	101	13
169	169	8
34	34	6
167	169	6
199	200	10
159	159	10
39	39	5
142	142	7
171	171	8
179	179	7
47	47	5
173	173	9
100	104	6
80	80	3
24	25	5
120	120	3
49	50	4
24	134	1
85	86	8
232	232	8
192	201	2
197	197	9
2	3	3
81	82	11
137	218	2
85	85	7
103	103	5
193	193	5
133	133	6
33	35	4
117	117	9
43	44	5
69	70	2
67	150	2
171	177	4
163	163	8
217	217	5
82	82	9
160	160	6
104	108	5
29	29	9
38	38	8
242	242	7
229	229	4
18	36	1
181	181	3
54	54	14
29	30	9
114	117	2
168	168	19
46	47	2
19	19	20
3	3	5
107	107	4
49	49	16
141	141	10
144	144	7
79	80	1
22	22	11
34	36	7
5	13	1
147	147	4
10	10	11
113	113	10
66	67	7
21	22	8
208	228	4
57	59	1
160	164	2
200	201	8
17	17	18
240	240	7
1	18	2
159	160	3
21	135	3
153	153	7
30	31	2
48	48	7
11	12	2
23	139	2
216	216	9
214	214	6
60	62	4
177	178	1
158	167	2
151	231	1
158	159	1
31	49	2
51	51	16
184	184	5
112	112	2
114	121	2
67	172	4
75	77	2
201	201	16
125	126	3
43	43	23
97	97	10
18	138	2
180	180	6
183	183	6
219	223	3
76	76	10
172	237	2
121	121	6
161	161	2
3	34	1
89	89	3
186	187	4
154	154	4
191	191	4
23	23	7
11	23	3
188	188	4
4	4	8
102	102	6
37	37	13
160	225	1
113	175	2
160	161	5
105	106	3
151	151	8
218	218	4
132	133	1
134	177	2
127	128	2
71	73	2
176	176	1
6	8	4
194	194	5
7	7	5
181	200	3
125	125	3
216	217	3
84	85	4
219	219	6
204	220	2
163	168	2
138	138	10
59	75	1
144	146	3
34	50	1
239	239	1
53	105	2
230	231	2
192	194	2
67	68	2
40	41	6
24	24	6
171	184	1
40	62	4
226	227	3
62	62	5
115	130	2
19	23	1
16	16	5
38	40	3
162	163	6
182	182	5
122	122	4
231	232	4
18	18	9
50	53	4
129	129	7
209	210	4
70	70	10
205	205	8
58	69	1
220	220	4
159	164	2
221	221	6
12	29	6
8	9	2
83	83	13
32	32	16
84	84	9
210	211	8
142	196	5
118	119	3
52	52	7
26	27	8
101	102	1
238	238	3
116	116	6
95	95	5
212	212	4
28	30	2
207	207	12
221	225	1
194	200	3
57	58	3
98	98	4
219	220	5
55	56	2
156	157	5
208	208	11
44	44	17
234	234	8
236	237	2
182	184	1
152	152	2
134	175	1
14	29	1
68	68	8
155	156	1
104	104	9
220	222	2
222	222	9
164	165	1
170	171	3
40	43	4
65	69	5
115	118	1
73	73	7
79	79	5
198	198	4
159	163	1
81	81	13
60	60	6
38	70	1
157	158	6
54	55	3
148	148	11
195	196	5
37	46	4
110	110	3
223	226	1
57	98	1
175	175	6
11	11	13
136	136	8
37	38	2
1	1	17
163	167	3
174	174	3
50	55	1
12	12	9
28	70	3
125	148	3
181	183	2
204	223	4
133	138	1
30	30	8
12	19	2
120	126	2
60	64	1
229	230	5
89	95	3
14	14	6
157	157	4
143	157	3
32	40	1
99	99	4
205	206	4
208	231	3
50	51	2
195	198	1
77	77	5
135	135	6
170	170	4
27	28	7
71	72	4
176	177	5
11	21	4
13	14	8
79	81	1
197	199	1
41	62	2
90	90	3
114	116	3
189	208	2
162	162	9
27	44	2
141	142	1
99	101	3
214	215	6
3	35	4
48	52	2
101	103	1
154	197	1
227	227	6
165	226	3
208	220	1
200	200	4
61	61	8
180	183	1
132	134	2
9	10	1
209	209	4
63	186	1
215	216	3
112	122	2
78	108	2
185	199	2
179	181	1
168	186	1
32	51	2
135	137	1
7	8	1
225	227	2
194	195	1
31	32	4
37	60	1
187	187	8
49	53	4
47	59	1
58	68	1
170	178	2
40	40	8
215	215	4
4	6	1
182	183	1
189	189	3
224	225	1
19	20	2
222	226	1
152	183	2
152	223	1
145	146	10
68	150	2
117	126	1
185	186	1
64	65	2
58	58	11
73	74	2
143	143	5
56	56	4
117	124	1
130	130	1
153	154	3
133	134	2
25	26	2
28	32	5
100	100	5
77	81	1
218	225	2
10	11	1
31	31	3
178	180	3
114	114	3
16	17	3
230	230	7
34	35	2
26	44	2
69	75	1
213	214	2
124	222	4
188	204	1
119	119	2
77	79	2
35	36	5
33	61	1
135	138	2
139	139	9
207	208	2
69	69	14
51	53	2
143	144	1
204	204	4
0	1	4
233	233	4
225	226	1
31	36	2
186	186	6
25	25	14
11	25	1
234	235	3
20	45	1
204	222	2
57	57	4
175	178	3
22	57	2
108	109	2
170	184	1
197	198	2
36	44	2
188	218	2
63	63	2
36	37	1
59	60	6
221	222	8
182	201	1
11	24	1
13	17	4
128	129	4
119	131	3
204	208	1
39	53	3
192	229	4
124	124	3
71	71	4
20	21	2
29	31	2
4	21	1
79	83	1
193	194	2
156	156	2
188	217	5
168	187	1
31	34	1
32	42	1
113	119	3
149	150	1
206	233	1
12	13	2
105	105	2
241	241	5
36	54	1
153	225	1
77	78	3
5	12	1
0	11	1
166	167	2
127	127	4
67	67	4
65	75	2
115	117	2
13	15	5
117	119	2
213	213	3
37	44	1
38	50	1
96	97	1
80	83	4
7	13	1
68	69	4
40	63	2
169	186	1
65	230	2
217	224	1
76	82	3
5	7	4
0	10	1
11	20	2
211	211	1
155	171	1
39	60	1
115	115	4
157	199	2
12	14	1
121	122	2
146	193	1
4	14	2
24	74	3
29	35	2
63	64	1
206	236	1
33	41	1
121	124	1
120	131	1
141	197	1
59	59	5
44	46	2
125	151	1
188	208	2
20	23	2
135	165	1
217	225	1
148	149	4
132	176	2
5	17	1
180	199	1
50	50	2
180	200	1
171	180	2
206	206	2
209	212	1
131	131	2
1	2	1
128	138	1
109	110	1
20	56	1
75	83	2
240	241	1
151	152	1
86	101	1
120	121	2
14	15	1
187	188	1
23	52	2
228	240	1
5	14	1
72	84	1
33	34	2
220	221	2
7	9	1
145	145	4
21	23	1
113	115	2
109	109	1
8	15	3
30	36	2
11	13	2
203	206	1
72	73	1
82	83	1
42	43	1
227	228	3
37	42	2
134	137	1
182	198	2
55	100	2
213	228	2
170	228	1
18	19	1
47	48	8
40	42	2
1	11	1
17	19	5
115	120	2
38	39	4
208	221	1
171	173	2
138	139	1
36	42	1
71	105	1
161	219	1
104	107	1
172	172	5
64	64	3
24	144	1
118	126	1
158	171	4
113	131	1
155	180	2
41	42	1
123	123	3
32	34	1
74	75	1
181	182	3
196	197	1
190	192	4
147	155	1
191	192	4
33	39	1
67	138	1
214	228	2
152	228	1
169	170	3
66	66	3
39	62	2
22	162	1
6	143	1
75	78	1
10	19	1
123	139	1
86	146	1
178	183	1
189	217	1
49	52	2
18	134	1
33	54	1
28	171	1
65	71	1
36	43	2
170	175	3
167	168	2
20	204	1
65	68	1
24	45	2
42	46	2
116	124	1
74	83	2
24	131	1
217	219	1
125	143	1
114	118	1
102	103	1
23	135	1
199	199	2
39	42	1
171	172	1
80	85	1
29	36	1
184	200	3
131	132	1
4	5	2
150	151	1
50	54	1
127	129	1
163	165	1
10	28	1
106	106	1
51	52	4
185	187	1
0	2	1
185	185	1
154	181	1
158	170	1
99	100	3
2	33	1
132	132	1
61	62	1
184	185	1
77	80	1
48	51	1
13	16	2
185	216	1
146	147	3
165	165	1
3	4	1
188	203	1
73	86	1
207	209	1
140	142	1
118	123	1
165	167	1
22	25	1
204	224	1
123	124	3
216	218	1
228	230	1
218	219	1
192	230	1
234	237	2
104	105	1
72	76	1
64	75	1
80	90	1
182	197	1
230	239	1
151	230	1
3	7	1
156	198	1
155	155	1
