38	38	10
29	29	8
7	8	4
130	136	3
121	121	5
79	79	14
40	40	11
3	3	1
73	93	2
36	36	14
75	87	2
37	40	2
83	84	4
130	130	9
24	24	3
91	92	6
133	134	1
50	51	1
136	139	4
32	34	3
33	33	10
96	125	4
68	85	4
10	25	2
45	45	1
4	26	1
39	39	6
32	32	3
31	31	4
86	87	6
38	40	1
123	142	2
127	128	3
151	151	5
73	76	3
55	55	5
129	129	10
128	135	1
16	17	1
8	8	5
78	79	5
120	120	4
11	19	5
115	117	4
102	108	1
76	87	2
38	39	5
131	132	1
3	6	1
5	5	5
58	58	1
92	92	9
8	9	3
99	99	4
17	17	10
88	88	5
68	68	24
75	80	5
97	98	4
101	102	8
12	12	8
62	67	2
81	81	18
135	135	4
70	85	4
152	152	4
109	115	3
104	107	1
77	77	3
153	153	2
11	92	1
81	84	2
94	103	3
143	143	3
136	144	3
50	61	2
77	79	3
137	137	10
124	126	6
65	65	4
103	112	1
85	85	6
141	141	1
20	22	1
125	125	5
67	67	4
16	30	1
47	47	8
6	7	4
138	138	4
83	83	8
11	11	7
98	99	5
81	82	4
35	36	8
49	50	2
123	126	4
78	83	8
19	21	2
63	65	4
84	84	3
22	22	7
36	37	5
63	66	5
124	127	3
48	48	11
98	125	1
132	132	5
135	138	2
76	85	2
5	6	4
76	77	8
26	27	2
128	128	2
50	50	4
103	103	6
94	95	7
64	65	4
112	112	14
4	5	3
76	78	2
131	131	5
82	82	4
42	43	7
105	106	4
104	104	12
71	72	5
153	154	2
17	57	3
149	149	5
3	4	2
80	80	1
20	45	1
26	26	5
69	70	4
97	97	13
112	116	1
103	108	3
51	52	6
75	76	2
6	8	5
27	28	2
130	131	1
26	28	6
71	73	4
48	57	1
106	107	2
53	54	1
62	62	5
44	45	2
66	66	7
15	15	17
119	120	7
126	126	6
107	107	5
133	133	6
30	30	14
80	108	1
74	74	8
15	16	7
114	115	1
110	114	1
21	21	6
17	18	2
10	10	8
106	110	2
69	85	1
5	33	1
25	28	5
34	35	3
69	69	9
4	6	3
96	96	8
73	74	8
138	148	1
13	16	1
50	52	1
65	67	3
129	130	4
127	136	4
33	35	1
148	148	2
98	98	5
115	143	1
70	70	4
28	29	11
114	114	9
71	71	4
9	10	2
119	119	4
126	127	5
106	108	2
56	57	7
6	41	3
16	55	2
106	106	7
99	100	3
34	72	2
105	105	5
101	103	1
100	100	4
78	78	5
93	93	4
51	55	6
13	13	13
56	56	6
18	18	3
115	116	3
121	122	1
136	150	5
122	147	4
124	148	1
97	120	2
142	142	3
127	127	3
28	28	5
33	51	1
14	14	4
35	37	3
72	74	1
92	93	1
132	141	2
55	76	1
29	30	4
29	105	2
14	15	6
87	88	6
85	101	1
16	16	3
13	20	2
28	32	2
43	44	4
109	110	7
94	94	8
83	95	2
117	148	1
87	89	1
106	109	1
120	121	4
117	117	5
77	78	2
39	41	3
136	137	2
147	148	5
131	134	2
16	19	1
9	9	2
30	32	1
136	138	2
41	41	3
121	125	1
96	97	2
113	113	4
53	55	1
105	107	1
73	73	2
110	144	3
117	118	4
67	71	2
116	116	4
102	105	1
19	19	11
51	51	3
111	111	2
115	126	3
91	93	1
96	139	1
32	33	3
16	113	2
13	15	2
86	93	2
27	27	7
18	19	3
79	86	2
10	13	1
12	13	1
44	44	4
139	141	3
54	55	1
97	148	2
41	42	6
31	32	2
37	38	1
41	44	2
111	113	2
25	50	2
123	128	1
66	68	4
57	57	2
74	75	3
118	123	1
144	144	3
72	72	6
38	41	4
142	143	1
139	139	1
29	32	3
127	137	1
118	118	3
20	21	2
28	30	1
85	86	1
34	34	3
111	148	3
38	57	4
108	108	4
6	6	3
140	140	4
53	53	3
116	148	1
81	83	2
25	25	3
23	33	2
95	95	3
50	62	3
102	107	1
110	111	3
12	14	1
120	144	1
76	76	4
100	106	1
33	63	1
69	84	2
138	143	1
116	137	1
125	126	2
140	143	1
47	54	1
75	79	1
130	135	2
67	69	1
67	68	1
130	132	1
46	46	2
34	37	3
61	62	2
8	10	3
84	85	2
79	80	1
15	57	1
50	55	3
24	25	3
62	65	1
115	115	1
100	102	1
122	125	1
134	134	2
13	14	3
75	75	4
72	73	1
49	54	1
145	145	4
74	86	2
96	114	1
23	51	1
90	98	1
62	63	1
132	133	2
43	45	1
92	116	1
65	71	1
110	110	1
68	70	1
96	119	1
54	54	1
128	129	2
124	125	2
119	128	1
35	57	1
140	145	1
109	109	1
49	55	1
124	136	1
47	49	1
35	38	3
86	86	1
79	84	1
42	42	1
94	99	1
62	69	2
68	69	1
39	52	1
101	101	1
75	93	1
6	23	1
122	142	1
145	146	1
150	150	2
95	97	1
94	111	1
136	136	1
37	37	2
31	36	1
35	35	1
15	113	1
75	78	2
20	20	1
22	23	1
122	122	1
131	141	1
74	106	1
