151	151	5
156	156	12
165	165	12
56	56	38
35	36	10
42	42	14
48	49	19
120	132	20
19	20	7
112	112	29
82	82	32
8	8	33
46	46	28
13	142	2
124	124	6
63	63	16
11	11	22
108	108	35
153	153	15
2	2	29
46	47	20
52	52	22
156	158	3
155	155	24
142	144	1
5	5	17
3	3	38
55	55	16
57	57	5
90	115	2
35	35	23
170	170	5
74	74	23
136	137	12
138	138	24
88	89	9
37	37	22
76	76	26
169	169	9
16	17	9
0	0	13
49	50	7
56	57	2
10	10	20
136	136	18
111	111	30
8	9	10
104	104	13
82	90	2
33	35	1
38	38	31
97	98	6
95	95	7
54	54	16
163	164	4
17	17	33
139	140	7
115	115	10
9	11	5
1	1	27
9	18	1
12	12	31
87	87	15
115	124	1
125	140	1
137	137	20
16	16	32
54	55	16
158	167	1
27	27	14
167	170	5
116	124	2
99	101	1
51	71	2
50	57	1
133	135	14
122	123	6
151	155	1
105	105	14
44	45	11
37	38	17
26	26	18
110	110	21
65	65	3
107	108	4
140	140	15
122	124	5
125	126	8
165	166	8
79	80	8
80	80	12
133	133	11
23	24	7
51	51	34
33	34	8
125	125	19
5	7	2
94	94	11
166	167	5
156	157	12
18	18	16
47	149	6
86	86	8
36	36	31
43	43	20
147	147	17
14	15	4
136	144	2
149	157	3
14	16	2
34	34	30
101	105	7
6	7	9
126	126	28
98	98	8
45	45	16
4	8	3
92	103	1
92	93	6
41	44	8
116	116	39
102	102	10
9	10	13
92	92	9
163	165	1
8	12	5
25	25	37
9	9	29
114	116	7
87	89	8
109	109	19
88	88	14
39	39	23
24	151	3
71	71	17
108	109	8
114	114	11
139	139	8
160	160	13
53	72	1
148	148	11
168	168	8
23	23	22
13	17	3
50	52	2
116	126	5
47	47	36
13	13	12
120	120	16
6	6	27
145	146	4
90	96	4
161	161	4
142	142	8
131	138	6
81	83	4
144	144	24
149	149	19
123	123	9
99	99	18
69	70	4
48	70	8
4	4	17
107	107	6
63	65	6
100	100	9
119	124	1
22	22	19
46	111	3
76	89	1
72	72	18
37	54	6
167	167	6
44	44	22
129	130	9
41	41	15
49	49	22
73	73	21
48	48	10
120	122	3
20	128	2
83	89	1
113	113	18
72	74	4
130	130	15
117	117	17
24	24	24
119	120	1
3	4	9
67	68	9
150	150	21
116	117	3
13	25	3
42	43	7
34	35	6
152	153	6
36	88	1
117	118	8
154	154	8
117	155	10
166	166	12
141	141	4
108	110	2
64	64	13
33	33	14
169	170	11
5	141	1
98	100	1
91	91	11
90	91	10
17	167	1
114	120	2
69	69	9
112	116	4
130	131	3
0	2	4
138	143	2
130	133	3
112	114	10
47	49	5
123	124	2
75	90	4
143	147	7
55	57	5
150	160	2
149	150	10
148	165	2
158	158	13
112	141	2
162	162	5
0	1	8
90	90	16
134	135	7
96	96	6
159	159	12
53	53	21
132	133	2
35	73	1
24	129	3
102	103	2
7	18	5
100	101	5
11	12	10
161	162	5
108	127	2
89	89	16
147	148	8
2	3	5
14	17	1
133	134	2
4	6	8
38	40	2
114	144	1
10	16	3
83	83	5
14	23	1
163	163	9
119	119	4
62	62	10
22	110	4
55	56	14
134	134	17
158	166	3
137	143	1
91	94	5
135	136	9
125	147	3
1	2	8
39	40	10
132	132	7
111	112	6
15	143	6
2	18	1
152	154	3
129	129	12
121	132	3
118	152	5
157	157	15
69	71	1
20	20	13
107	111	8
75	95	6
91	105	5
136	138	4
3	136	3
94	95	1
101	101	11
131	131	11
147	149	1
66	67	6
159	160	6
38	42	1
64	66	2
118	118	14
87	88	8
124	125	6
43	44	3
12	13	7
126	133	1
151	160	2
5	6	8
107	125	1
116	119	4
7	42	4
119	121	3
22	23	5
82	96	1
18	25	1
40	40	11
80	82	4
164	164	7
51	52	8
137	138	6
76	83	2
112	131	3
47	50	3
21	23	1
126	166	4
82	108	1
50	50	14
78	78	7
18	19	14
120	121	2
135	135	16
18	27	2
21	130	2
7	7	16
102	105	4
97	97	5
24	138	3
114	115	9
112	142	3
128	128	10
82	91	1
48	69	2
98	99	5
16	24	3
155	156	4
143	143	6
28	46	1
81	81	13
0	149	2
10	11	11
76	77	6
35	72	2
11	147	2
17	18	7
85	85	6
147	165	2
84	84	4
12	125	2
45	71	2
18	20	5
71	72	4
55	64	2
126	129	3
50	51	10
122	122	5
128	129	3
122	147	3
52	53	4
126	132	2
99	104	1
14	14	10
22	138	1
19	19	11
44	47	2
62	63	13
162	164	7
129	132	1
11	13	1
90	97	2
73	74	3
84	89	1
137	148	3
110	114	3
76	88	1
73	76	3
51	72	1
141	142	3
20	22	3
26	27	1
16	22	3
147	150	2
93	94	1
120	142	3
15	22	3
110	112	4
12	147	1
90	109	1
112	113	3
103	103	6
19	43	2
93	93	10
115	120	4
102	126	4
75	75	12
97	99	1
78	79	5
112	134	3
61	62	3
84	86	6
82	84	1
121	148	2
158	159	7
161	164	3
95	97	1
137	141	1
16	18	1
5	8	3
69	131	2
24	25	5
133	137	1
4	5	5
48	55	3
157	158	11
11	126	1
12	166	1
77	79	1
110	111	7
18	134	2
153	155	4
75	76	4
106	106	10
90	108	2
16	167	1
7	11	1
67	67	6
65	129	1
127	127	6
36	37	5
101	102	1
144	166	3
34	36	5
151	152	3
100	106	2
151	153	4
61	63	1
48	51	7
129	131	1
131	132	5
117	152	7
41	42	3
19	28	1
142	147	3
24	139	6
83	84	6
113	116	1
20	23	2
113	144	2
110	140	4
37	44	1
164	165	5
145	145	18
26	43	1
120	130	1
107	109	1
16	21	2
109	110	4
93	128	1
0	3	1
126	127	8
146	146	7
86	87	4
91	102	2
129	137	2
8	18	6
98	116	1
150	153	1
144	146	5
101	127	3
148	149	3
116	118	1
160	161	4
12	26	2
49	52	1
159	161	1
133	151	2
91	92	5
107	112	2
49	54	1
56	63	1
80	87	2
65	131	1
7	137	4
63	64	2
2	5	2
87	94	1
157	164	5
72	73	3
64	108	4
106	109	1
20	21	11
117	151	2
75	80	2
89	98	2
35	38	1
12	144	1
149	154	3
132	135	4
58	62	4
44	46	1
3	7	1
108	131	1
81	82	9
75	83	1
2	166	1
57	62	4
75	78	5
47	48	3
1	4	3
155	157	3
100	128	6
45	72	3
65	66	3
37	58	1
75	89	6
125	143	1
15	15	9
130	150	1
79	84	1
89	95	1
121	134	2
140	142	2
111	116	3
133	136	3
130	151	1
86	88	3
67	69	3
74	96	1
70	70	4
12	23	1
89	90	7
143	144	2
127	128	2
99	100	3
115	118	1
152	152	3
24	136	2
10	12	2
166	168	1
148	158	3
9	136	1
22	137	2
57	58	3
84	88	1
66	66	5
95	96	2
4	45	1
13	15	2
68	68	4
154	155	5
70	71	2
45	137	1
131	133	2
52	156	3
69	129	1
21	22	4
81	90	1
35	76	2
108	126	1
65	130	2
17	24	1
119	141	3
77	77	8
47	117	1
9	16	3
148	153	1
134	136	1
8	13	4
1	167	1
167	169	3
5	9	1
105	106	3
57	64	2
4	7	2
144	145	2
128	138	3
2	4	1
104	105	1
146	147	2
47	55	1
57	63	4
23	112	2
121	122	4
103	105	4
16	25	1
49	51	1
3	6	2
83	90	1
24	130	1
17	133	2
39	45	1
68	70	3
135	165	1
37	40	2
149	159	1
167	168	2
74	75	2
90	95	1
121	123	2
85	86	3
17	137	2
103	104	2
19	75	3
23	111	1
134	137	1
108	112	5
99	112	1
79	79	1
115	121	4
125	129	2
80	90	1
1	12	4
80	81	3
91	95	2
111	126	3
149	161	1
96	97	2
120	135	1
51	53	3
115	122	1
2	149	1
101	112	1
77	82	1
47	56	2
21	21	4
108	137	1
21	110	1
64	133	2
2	111	2
160	162	3
99	108	2
168	169	4
12	126	1
161	163	1
97	107	1
121	121	2
126	138	1
108	130	3
77	78	2
118	119	2
19	74	1
128	132	3
45	46	2
45	138	2
84	85	2
16	20	1
113	118	1
12	25	1
18	99	1
115	119	1
65	67	3
8	11	2
162	163	6
108	116	2
82	111	1
58	63	2
68	131	1
46	48	1
146	148	3
47	51	1
121	124	1
27	99	1
58	58	1
47	71	1
8	19	1
142	143	1
106	111	1
66	130	1
113	134	1
69	130	1
111	137	1
102	128	1
82	83	1
35	75	2
120	152	1
135	138	1
76	80	1
108	114	2
81	95	1
113	135	3
15	16	1
28	28	1
68	69	2
11	143	1
19	22	1
46	110	1
2	167	2
99	116	1
40	41	1
7	8	1
5	10	2
161	165	1
47	111	1
113	141	1
12	14	1
109	138	1
132	134	1
152	155	1
106	107	1
1	3	1
136	143	1
109	111	1
27	28	1
25	134	1
34	76	1
148	151	1
42	45	1
116	120	1
3	10	1
150	151	1
79	88	1
39	41	1
74	79	1
153	154	1
1	6	1
113	114	1
81	87	1
114	119	1
64	65	1
125	130	1
117	122	1
135	137	1
