62	66	2
37	37	2
81	81	29
56	56	21
53	53	16
75	75	19
100	101	5
60	60	24
76	77	17
68	68	9
70	70	16
78	79	7
33	33	17
54	56	2
89	89	14
80	80	20
47	49	2
72	73	10
65	65	13
22	22	8
73	73	20
86	86	11
52	54	8
55	56	6
59	59	11
64	64	18
51	51	22
26	27	7
48	48	21
24	24	2
79	80	5
46	49	1
60	61	11
67	69	3
88	88	13
55	55	11
27	27	19
98	98	24
87	87	20
94	94	6
92	93	3
67	67	29
101	101	17
58	61	3
34	58	9
73	74	5
59	75	3
41	41	16
46	47	3
36	37	5
25	26	9
42	42	22
78	78	10
90	91	1
51	58	2
95	95	11
74	74	11
73	95	1
85	85	8
93	93	15
43	43	11
91	91	17
79	83	2
100	100	13
34	57	2
50	50	19
56	90	1
20	20	1
69	69	9
49	49	24
85	87	4
36	38	6
61	61	16
57	57	17
36	36	10
53	54	7
38	39	1
56	57	7
54	54	12
45	63	2
58	59	11
46	46	17
39	39	14
83	83	6
34	34	13
37	38	4
35	35	20
99	99	20
97	100	2
26	26	7
77	77	10
79	79	14
46	101	3
72	72	9
25	27	4
82	82	7
74	75	4
47	62	5
52	52	14
40	40	14
38	38	13
33	34	2
95	96	3
41	42	9
99	100	6
79	90	2
57	101	4
55	60	3
38	40	3
31	31	5
91	93	6
43	44	8
96	96	2
68	69	2
69	72	1
63	63	13
88	93	1
37	39	2
82	83	1
67	68	9
92	92	11
91	92	5
32	39	1
32	32	1
35	36	1
80	81	19
66	66	15
76	82	1
44	44	6
76	76	11
63	64	16
71	72	3
87	88	1
62	63	5
45	45	7
84	86	1
86	87	3
69	70	8
65	66	2
53	62	1
62	62	21
52	53	6
97	97	10
29	52	1
47	51	5
30	58	2
71	71	15
49	50	4
44	47	3
101	102	2
75	76	3
42	43	1
82	84	3
84	84	10
30	59	1
51	97	4
66	81	1
54	55	6
28	32	3
77	78	9
37	46	2
83	84	5
90	90	8
48	60	1
59	63	2
83	93	1
66	68	3
85	98	2
58	58	7
40	41	3
77	79	4
59	62	2
57	58	4
61	83	4
48	51	1
45	50	1
47	47	10
62	70	1
31	41	2
85	91	1
80	91	3
40	61	2
27	28	3
52	57	2
47	48	4
34	35	5
94	101	3
29	30	1
46	60	1
53	57	2
45	64	1
89	90	10
66	67	1
25	25	7
28	29	2
64	90	1
44	45	3
29	29	9
84	91	2
81	84	3
45	101	1
32	33	2
34	69	1
55	58	2
79	89	1
83	90	1
102	102	3
81	82	2
31	32	1
55	57	1
20	71	5
96	98	4
53	60	2
32	81	1
37	40	1
46	55	1
80	82	2
36	60	2
89	92	1
87	93	2
21	22	1
27	29	2
23	23	1
85	86	2
50	51	4
52	79	2
62	83	2
32	53	1
43	78	2
30	52	1
62	78	1
49	51	1
51	52	1
88	89	5
44	77	1
92	94	1
52	82	1
50	62	1
70	71	1
39	40	1
49	67	1
23	24	1
83	89	1
28	28	1
98	99	1
52	64	1
70	78	2
83	94	1
23	49	1
22	40	1
93	94	1
29	51	1
81	85	1
61	86	3
52	62	1
33	53	1
40	65	1
