87	114	3
120	120	2
56	56	2
86	86	3
95	96	4
117	117	7
73	73	8
125	129	3
88	88	2
90	94	1
94	94	4
23	23	3
71	71	5
85	85	6
12	13	3
125	125	1
86	87	2
6	74	3
103	103	9
33	34	2
111	111	5
55	58	7
117	125	2
52	119	3
32	32	2
66	66	2
114	114	2
12	12	1
81	117	1
122	123	4
53	53	5
120	133	2
6	7	5
100	119	1
82	83	2
134	134	5
81	81	2
25	25	3
56	83	1
128	129	4
47	47	2
76	112	1
115	115	5
132	133	2
99	99	6
91	92	2
130	130	6
87	87	2
78	79	8
80	80	1
59	59	4
76	76	6
15	16	2
116	116	5
123	123	6
79	79	3
21	22	3
102	102	2
82	110	2
60	61	1
13	13	1
122	131	2
64	68	2
29	29	1
91	96	1
10	10	1
58	58	2
77	78	4
122	122	2
4	4	4
62	62	2
31	31	1
23	43	2
124	124	3
55	117	2
60	60	3
113	114	3
131	131	2
3	4	2
130	131	1
15	15	3
78	108	2
84	84	6
132	132	4
101	101	5
20	20	4
36	38	1
98	98	4
110	111	3
83	85	1
112	112	2
114	115	3
45	130	2
112	113	1
24	24	1
55	55	4
38	38	1
121	121	1
22	23	2
47	96	1
55	57	3
80	118	1
97	98	1
61	61	4
109	109	1
96	129	1
123	124	2
133	133	2
18	24	1
124	125	4
55	85	2
108	108	1
44	44	2
98	134	1
58	84	1
70	71	2
110	110	3
49	49	3
6	18	3
77	77	2
105	105	1
18	18	1
92	106	1
113	113	2
33	33	5
97	97	1
106	107	1
86	111	2
64	64	1
93	126	3
18	25	2
34	34	1
104	112	1
9	19	6
8	9	2
12	14	1
63	64	3
69	69	1
116	122	1
16	18	1
53	66	1
73	74	1
66	67	1
59	60	4
72	74	2
74	74	1
92	92	3
66	108	1
87	111	2
71	127	1
106	122	1
128	128	1
105	123	2
111	124	2
126	127	1
10	11	1
78	78	2
28	28	1
53	54	1
1	1	3
90	90	1
4	5	1
100	100	1
129	129	2
67	123	1
83	113	2
87	100	1
1	3	1
70	88	1
10	24	1
77	124	2
6	6	1
91	132	1
95	95	1
9	9	1
63	63	1
51	92	2
72	72	1
54	54	2
91	91	1
62	63	1
27	27	1
58	110	1
