129	129	31
133	133	26
16	16	17
37	37	9
142	142	20
63	63	23
62	62	14
121	121	20
33	34	11
116	116	17
23	23	14
114	114	15
8	42	3
82	83	5
143	144	11
65	66	5
46	47	4
79	80	7
112	116	9
23	36	9
39	39	8
106	108	4
140	141	11
85	85	13
87	87	8
122	122	26
137	137	12
103	103	22
59	59	24
117	117	25
22	42	6
3	4	14
120	128	3
119	120	4
10	10	7
113	113	26
64	85	5
65	68	4
139	139	7
62	105	6
32	32	14
8	8	22
14	14	22
80	81	12
78	78	24
107	112	2
18	18	17
55	56	3
42	42	14
49	49	15
104	104	13
80	80	13
75	76	10
94	94	17
21	25	3
2	2	9
110	111	15
70	73	8
56	56	7
15	15	28
17	17	4
55	86	2
143	143	17
103	110	4
18	28	1
131	131	21
93	93	10
76	76	14
120	120	21
94	97	3
127	127	9
6	6	12
54	87	1
123	123	38
122	123	7
106	106	19
63	106	2
135	136	8
88	127	1
124	124	19
126	126	35
138	139	3
8	9	7
2	4	7
132	132	29
109	110	4
121	131	4
6	37	3
91	91	17
95	95	6
53	53	18
14	16	6
128	128	23
98	98	16
56	74	2
12	33	1
104	123	7
144	144	23
27	27	11
36	36	12
55	57	7
26	26	11
125	125	27
13	14	19
4	5	4
11	11	13
19	19	22
54	84	3
115	115	10
13	25	5
35	35	6
86	86	11
89	89	13
119	119	20
69	85	1
131	133	10
132	133	8
87	92	5
93	94	8
131	132	8
34	34	11
82	82	8
74	74	14
99	99	10
9	28	2
134	139	3
64	64	7
13	20	7
15	16	14
14	19	3
1	1	13
121	123	5
19	20	2
121	124	4
136	136	12
138	138	21
109	117	3
136	138	10
42	71	11
91	92	10
60	104	4
121	132	2
108	108	8
95	100	5
140	140	6
139	140	8
105	118	7
68	78	6
58	63	5
47	47	7
72	73	3
40	70	5
118	118	19
27	59	3
27	68	2
97	98	7
60	60	12
55	55	13
118	135	3
41	42	6
26	68	4
146	146	8
58	58	28
14	43	2
121	122	5
131	138	2
128	131	5
97	102	2
102	127	3
20	20	19
6	41	6
33	33	13
91	120	4
138	140	2
0	34	4
55	67	2
115	118	8
20	34	2
141	141	19
0	0	7
56	57	4
13	42	1
75	75	13
40	40	15
92	94	5
35	55	4
114	119	4
107	107	10
68	95	4
130	130	15
71	83	6
84	84	9
5	5	12
40	67	1
105	105	12
56	86	4
15	57	1
61	61	12
106	110	4
48	50	1
99	121	3
55	68	1
81	81	10
0	32	4
57	57	13
101	101	20
135	135	11
13	36	5
126	130	3
17	27	2
104	117	9
39	41	4
88	89	13
33	52	2
92	92	15
83	85	4
107	108	8
24	54	6
111	111	5
22	23	14
27	58	5
133	135	3
56	91	2
73	74	9
134	134	21
63	86	3
90	122	1
70	70	17
125	130	3
27	28	5
69	69	14
25	63	2
102	103	7
58	69	3
113	114	4
11	13	6
10	11	8
128	129	13
47	48	5
58	59	7
10	37	8
30	30	20
43	43	6
110	117	5
68	68	8
41	41	7
65	77	3
130	138	1
22	22	9
67	68	2
55	98	2
97	97	18
83	83	5
136	137	5
64	66	5
50	51	8
67	67	19
103	117	2
38	38	11
129	130	7
18	30	1
37	42	3
51	51	9
64	83	3
21	32	3
48	82	2
29	29	18
50	50	15
104	141	1
123	126	3
39	68	5
31	31	14
87	89	5
9	10	6
96	110	3
15	127	1
100	100	9
87	88	15
28	28	19
21	24	1
99	101	2
20	36	3
72	72	17
25	25	11
58	62	2
13	34	3
112	112	10
58	107	2
25	26	4
88	88	6
119	139	1
118	133	1
68	70	1
100	102	3
31	32	8
90	90	16
14	66	1
122	128	4
105	106	7
14	25	3
73	73	14
21	21	12
114	117	5
58	85	4
39	40	6
23	26	4
141	146	4
96	117	5
119	140	1
34	52	2
9	16	5
83	84	5
1	3	5
121	136	3
54	54	7
17	18	11
64	75	3
134	135	10
52	54	6
48	48	7
65	72	4
106	107	10
97	117	3
102	102	9
63	113	3
70	84	1
38	39	7
4	4	19
12	13	4
1	2	8
76	78	6
123	124	2
94	96	5
119	121	4
11	12	1
18	19	2
38	69	3
11	17	4
54	56	1
2	6	1
86	135	1
142	144	1
127	129	5
86	97	1
57	59	4
64	77	2
127	128	7
71	72	1
77	78	4
74	92	1
4	31	1
120	121	8
67	84	2
116	117	4
53	54	5
127	138	1
142	143	19
88	113	3
118	139	2
75	124	1
109	109	15
24	24	4
61	85	1
102	112	1
22	24	4
20	42	2
17	31	2
0	4	7
145	145	7
81	119	2
9	42	3
96	137	1
95	119	1
8	28	1
118	121	2
56	69	3
74	89	3
16	40	3
136	141	2
60	61	5
0	1	3
60	90	3
66	72	1
80	90	1
13	40	2
52	52	11
3	6	3
126	127	2
62	91	4
64	65	6
108	109	9
34	39	5
91	93	3
133	140	2
84	85	2
8	18	3
3	3	9
9	9	12
96	96	10
89	112	3
53	102	3
53	83	1
6	10	1
26	32	5
98	107	2
40	41	1
2	3	4
66	67	3
70	75	2
131	136	2
35	36	3
61	63	2
75	85	2
53	82	3
96	144	1
100	124	3
87	90	4
90	113	2
15	41	4
81	82	5
0	33	2
3	43	1
95	98	1
12	34	1
62	63	8
115	116	1
2	5	2
81	87	2
112	115	3
100	142	2
77	79	3
40	66	5
29	30	2
60	107	1
70	71	8
46	46	3
47	66	2
21	56	3
90	91	3
34	36	1
80	132	3
69	70	8
136	139	2
48	100	1
63	84	2
37	78	1
118	119	4
66	66	14
41	128	1
144	145	2
2	43	1
124	125	9
66	69	5
88	102	1
96	112	1
38	41	3
103	119	1
108	140	1
120	133	4
41	71	1
14	31	2
21	31	1
36	67	8
52	53	5
117	136	2
8	17	3
113	132	1
105	107	5
21	39	1
141	142	5
130	143	2
92	110	3
16	30	1
89	92	4
65	65	9
104	105	6
77	77	7
51	52	5
66	110	2
110	110	7
76	79	1
74	131	2
64	86	2
88	115	1
48	52	2
87	105	1
137	138	1
119	123	1
17	67	4
16	25	1
120	122	1
135	137	3
95	97	1
41	74	1
135	140	4
24	56	3
61	62	1
129	132	2
9	41	1
88	90	2
93	97	1
89	90	3
37	38	5
38	71	1
14	40	5
79	79	6
120	130	2
57	69	4
96	97	7
69	71	3
62	106	1
2	35	2
96	98	3
87	91	2
134	140	1
50	52	2
92	93	1
64	76	1
111	112	3
38	68	2
57	58	2
129	131	2
61	102	3
76	83	1
38	40	1
61	94	1
92	120	1
19	72	2
4	39	1
123	131	6
4	68	2
92	97	1
62	114	1
99	123	2
58	84	2
0	11	3
19	37	3
13	13	4
137	140	1
80	123	3
130	134	2
41	91	1
125	126	3
111	117	4
117	134	4
39	43	1
96	106	3
94	142	1
97	119	2
78	79	1
60	123	1
86	87	4
114	128	2
21	22	2
23	24	2
130	137	3
115	117	2
11	19	2
100	101	2
72	91	3
67	92	2
96	99	1
36	37	2
88	112	3
129	134	1
20	35	1
97	116	2
66	85	4
33	36	4
12	127	1
98	111	1
6	38	2
5	67	4
103	104	2
95	102	1
49	50	2
8	49	3
55	74	3
87	102	1
17	70	2
2	37	1
42	43	4
16	123	1
69	84	2
61	89	1
87	111	1
107	109	1
76	77	5
108	138	1
15	25	2
71	71	1
76	80	1
5	6	2
83	105	2
12	67	1
80	89	2
90	115	2
139	141	1
61	106	1
56	97	1
137	139	1
12	12	3
130	135	2
60	102	2
16	59	1
59	60	1
89	121	1
72	117	1
63	83	2
89	115	1
27	78	1
66	83	2
64	105	1
104	106	1
15	28	2
50	83	1
49	125	1
72	78	1
62	83	2
117	120	1
62	85	3
112	114	1
117	141	1
19	28	1
35	47	1
4	32	2
18	68	2
32	53	1
19	29	1
5	31	1
26	34	1
26	27	1
20	39	1
28	29	1
90	110	1
84	86	2
72	74	1
14	15	1
133	137	1
119	122	1
94	95	2
20	21	2
112	113	1
72	83	1
10	40	1
37	70	1
41	72	1
6	18	1
129	133	1
95	99	1
38	49	1
128	146	1
84	97	1
74	77	1
26	141	1
136	140	2
5	13	1
66	103	1
117	118	1
50	81	1
24	25	1
38	78	1
33	40	1
32	34	1
105	108	1
83	86	1
126	134	1
113	118	1
74	79	1
71	79	1
132	137	1
59	108	1
112	117	1
26	72	1
98	106	1
65	83	1
