110	117	3
33	34	2
75	75	5
11	36	2
131	131	4
1	1	2
91	125	1
17	18	1
108	110	3
95	96	10
30	43	3
95	95	3
122	122	4
79	79	5
52	105	5
26	26	7
109	109	5
2	4	1
133	133	7
14	14	7
104	105	1
91	100	1
33	33	7
89	89	10
0	0	5
92	92	6
84	84	3
86	86	2
90	90	5
125	125	4
71	71	3
13	13	7
97	97	6
100	130	2
57	58	1
77	79	1
35	35	6
112	112	4
113	114	2
64	64	8
31	31	2
16	92	4
56	78	1
115	116	3
117	125	4
52	52	4
73	85	2
92	93	2
58	58	10
120	120	7
118	118	4
106	106	4
99	100	3
86	91	5
62	62	5
1	2	7
98	98	11
100	104	2
116	116	4
124	124	2
60	61	2
91	93	4
67	67	2
24	25	3
76	78	1
74	74	9
93	93	9
8	8	10
121	121	3
79	80	2
72	73	2
125	134	1
74	75	3
83	116	5
70	70	5
25	25	5
71	75	3
111	111	2
73	73	6
95	125	1
30	30	2
17	31	1
94	94	5
58	59	4
100	105	2
3	4	6
20	22	5
110	135	1
53	82	3
2	2	2
54	64	2
78	80	2
43	43	6
44	53	3
107	107	1
7	7	3
103	103	2
97	122	1
104	104	6
55	58	2
18	18	3
117	117	5
129	129	4
108	108	4
102	103	2
63	63	1
94	95	3
101	104	2
44	56	1
66	67	2
49	63	1
100	101	5
37	38	2
78	78	6
52	61	1
77	77	6
127	127	5
5	32	1
96	127	2
86	87	3
80	80	6
83	85	3
76	77	1
53	54	3
91	91	6
42	66	1
19	19	3
29	30	3
88	94	1
15	15	3
17	17	2
48	83	2
22	22	5
87	87	5
108	112	1
96	125	1
35	93	5
38	73	1
3	89	1
61	66	4
23	24	4
67	114	2
38	38	3
66	66	1
96	97	1
115	115	4
21	22	3
20	122	1
46	46	2
130	130	4
57	115	1
5	13	1
134	134	2
56	115	1
66	68	2
64	65	1
54	59	1
102	102	5
16	94	1
81	98	2
121	131	2
107	109	1
83	83	2
19	25	1
109	110	1
118	133	1
93	94	3
26	33	6
7	8	1
114	115	2
95	126	2
77	110	2
61	61	3
24	24	2
62	66	2
77	78	2
30	31	3
78	110	1
91	92	3
130	131	2
56	72	2
56	57	2
109	111	4
132	132	1
113	113	3
101	103	2
44	50	1
106	109	2
69	69	2
130	133	1
23	25	1
118	123	1
60	60	1
108	109	2
54	55	3
13	93	1
126	126	1
106	118	1
72	72	4
70	71	3
44	84	1
2	100	6
96	96	1
20	20	1
56	58	1
24	28	1
50	50	2
10	37	2
96	132	5
47	52	1
132	133	1
44	64	2
59	59	4
5	5	5
65	65	3
82	84	1
106	124	1
89	126	2
43	44	1
43	48	2
3	3	1
56	56	2
91	96	1
21	79	1
6	6	1
98	122	1
16	16	3
112	115	2
76	76	1
75	76	1
80	81	1
134	135	1
16	90	1
85	85	1
27	27	1
64	69	1
86	88	1
17	90	1
66	69	1
18	22	1
28	28	1
5	9	1
100	100	3
34	34	1
0	48	1
82	83	1
63	69	1
34	35	1
123	124	1
61	65	1
81	81	1
36	37	1
99	126	2
83	125	1
35	91	1
71	108	1
30	90	1
121	122	1
29	29	1
83	84	1
18	30	1
101	101	1
84	107	2
68	69	1
55	66	1
48	49	1
66	83	1
128	128	1
115	126	1
