37	37	56
34	34	22
5	9	10
8	9	6
52	52	21
32	32	35
20	20	21
13	37	1
50	50	25
10	15	8
11	11	14
53	54	12
3	3	8
51	51	24
12	36	6
30	42	12
51	54	5
54	55	9
30	32	3
59	59	13
44	44	22
18	18	10
0	2	4
52	54	3
30	30	38
6	6	12
33	33	38
9	9	26
2	2	5
48	48	24
40	40	29
53	53	6
35	35	35
9	11	1
1	1	15
22	22	13
17	17	14
61	61	22
14	20	2
25	25	10
44	45	17
33	35	8
41	41	35
3	4	7
7	7	28
30	49	5
4	35	1
42	42	33
60	60	31
60	61	4
23	23	17
55	55	26
57	58	9
43	43	36
12	14	3
58	58	25
38	38	24
33	34	6
19	22	2
37	39	6
21	21	15
47	47	32
56	56	45
24	41	1
35	57	3
49	50	12
50	54	9
31	31	40
62	62	32
46	46	17
14	15	9
50	52	11
36	47	3
45	58	5
31	32	22
4	4	29
17	18	6
35	45	1
36	37	17
13	13	12
38	41	2
36	36	21
50	51	3
2	3	1
34	35	24
8	8	6
5	5	7
49	49	7
17	38	3
30	36	2
13	16	5
39	39	33
48	49	9
42	55	3
19	19	25
43	44	11
19	37	2
12	13	17
51	53	16
34	37	1
14	14	11
5	8	1
17	35	5
6	7	13
1	2	12
10	11	14
57	57	38
40	42	4
49	51	1
10	10	6
32	45	1
45	46	11
45	45	26
18	19	5
46	47	15
22	23	5
40	50	6
45	48	4
20	29	1
38	39	20
23	30	1
52	53	9
42	43	13
16	16	5
44	46	7
30	44	3
58	59	3
16	17	8
38	50	5
4	11	3
35	36	7
16	19	5
46	55	8
15	16	4
54	54	20
30	31	15
24	24	20
12	12	26
55	56	10
37	41	4
40	41	12
13	20	2
17	32	2
15	17	5
11	36	2
15	15	11
6	8	1
10	12	8
16	18	2
47	48	6
30	50	4
42	44	2
31	36	2
56	58	2
23	31	3
39	41	3
19	20	3
57	59	3
0	0	9
31	45	3
32	33	3
36	43	4
29	30	2
11	15	4
49	52	6
30	37	3
5	6	5
39	49	4
43	47	2
29	40	1
47	59	1
56	57	5
20	37	3
22	24	2
32	44	1
4	5	2
37	38	9
57	61	1
59	62	1
10	14	2
11	12	8
47	57	3
41	44	1
30	40	3
9	12	2
20	23	2
46	59	2
50	53	3
46	49	5
61	62	4
38	40	2
16	23	2
47	50	2
41	42	1
49	57	3
20	38	2
43	45	3
37	42	2
50	57	2
20	21	1
19	32	3
29	29	4
30	43	1
55	60	1
45	59	1
3	9	1
12	35	1
51	55	2
24	25	2
39	42	3
11	13	3
30	41	2
14	17	1
39	51	1
39	40	1
13	17	1
0	1	3
46	52	3
18	20	1
5	7	1
48	50	1
31	44	1
51	52	1
13	15	1
30	58	1
4	6	1
7	9	1
21	30	1
3	11	1
39	48	1
