212	213	15
45	45	15
163	169	6
64	70	3
28	29	18
102	102	19
164	165	3
112	112	14
189	193	5
97	97	15
48	51	9
111	112	4
9	9	39
211	211	4
29	29	20
68	68	5
30	32	5
14	15	3
237	237	13
124	124	8
72	72	9
76	106	4
217	222	4
17	17	12
51	51	9
209	217	7
5	7	8
157	157	8
162	163	2
19	19	16
99	99	14
159	159	6
114	114	10
28	28	37
45	54	1
46	47	8
122	122	6
80	117	4
43	43	19
20	22	2
10	10	24
201	202	8
24	24	15
188	188	12
201	201	15
161	161	9
204	209	5
217	218	4
215	215	19
172	173	1
26	37	3
19	166	1
127	127	4
121	127	3
193	195	3
43	46	9
151	152	5
162	162	9
238	238	11
170	175	6
42	43	12
33	33	12
177	177	29
76	76	8
220	220	7
27	28	2
173	173	12
154	155	5
79	80	4
71	71	12
70	70	21
113	114	1
59	59	3
42	46	4
52	52	5
157	161	4
22	22	13
203	203	27
3	3	15
185	186	2
66	66	9
23	23	5
184	184	7
129	129	9
35	35	14
40	40	17
25	25	16
139	140	9
238	239	6
56	57	4
134	134	16
168	168	15
135	135	16
128	128	21
239	239	17
154	154	12
18	19	10
127	130	7
221	221	18
219	219	13
230	230	14
201	227	9
46	46	34
30	88	1
168	169	4
5	5	15
240	241	3
1	2	5
227	227	9
223	223	10
232	232	32
98	98	27
218	218	8
205	205	6
210	211	9
209	218	1
113	113	13
13	13	12
7	8	6
242	242	18
89	89	7
197	197	12
25	26	3
155	155	6
55	57	4
197	198	11
47	50	3
0	1	6
19	22	3
26	29	9
71	72	7
62	63	7
184	186	5
150	151	14
190	190	5
123	123	6
67	68	6
64	64	18
19	21	2
41	41	24
149	152	1
189	194	3
33	34	11
133	134	9
84	84	13
86	87	2
12	15	7
200	200	15
180	180	4
204	204	13
80	84	4
183	184	3
53	54	4
141	142	12
221	222	9
1	8	4
6	16	4
240	240	7
144	146	5
74	74	26
140	142	2
160	160	17
43	61	3
172	172	25
12	12	27
76	77	3
67	86	5
166	170	5
41	51	4
8	8	24
202	202	21
62	62	6
167	168	1
214	214	7
120	120	8
111	122	3
25	35	2
34	35	13
23	25	5
127	132	2
37	39	3
27	27	33
104	104	7
192	192	7
228	228	5
9	32	4
187	200	5
189	189	2
166	166	14
38	38	6
42	42	18
58	58	5
77	104	1
231	232	9
54	55	6
122	127	4
40	52	1
58	84	2
81	83	2
37	62	2
3	6	1
174	174	21
50	50	10
107	108	4
64	86	3
51	52	13
233	233	18
48	48	13
171	172	6
26	26	15
156	156	10
26	39	2
73	73	6
103	103	7
32	32	16
54	54	3
69	69	26
16	17	6
164	172	1
30	31	9
231	231	8
49	49	23
153	159	8
67	67	33
14	14	9
164	166	2
47	56	2
195	196	6
0	0	8
178	178	21
175	176	5
8	179	6
30	98	6
16	20	3
138	139	4
109	109	12
147	147	6
226	227	3
207	207	6
173	175	4
60	60	11
85	122	2
156	157	5
9	230	7
7	9	3
81	81	11
105	105	4
58	59	6
57	57	28
170	170	8
173	174	4
174	175	3
226	230	1
116	117	2
214	215	3
18	144	2
25	29	3
145	145	8
85	85	20
183	183	8
79	79	11
15	15	6
85	86	14
30	30	13
24	25	5
134	135	4
107	115	4
31	31	8
2	2	11
185	192	10
69	70	4
123	130	1
37	37	18
165	183	5
95	96	5
101	110	2
186	186	5
113	118	8
160	161	3
145	152	5
181	182	3
47	47	20
216	216	10
125	126	7
236	236	3
40	41	4
84	85	6
58	65	6
61	70	4
194	195	5
16	16	11
182	183	11
78	78	4
131	132	1
153	168	3
76	78	6
20	20	27
137	137	12
122	124	3
185	185	6
18	18	22
101	101	20
118	119	6
185	191	2
220	221	7
61	62	3
142	142	5
84	110	2
169	169	19
100	100	8
102	103	4
115	115	11
166	168	5
46	74	4
230	231	5
77	77	11
11	11	11
217	221	4
53	61	2
65	65	14
123	137	5
130	132	5
36	36	14
125	125	4
98	99	4
31	149	2
6	6	8
80	81	3
194	196	10
23	30	1
123	127	3
140	140	7
3	4	5
66	67	3
44	45	3
184	201	5
236	238	3
143	143	14
135	136	5
170	176	5
28	36	1
6	177	1
229	229	6
13	14	5
99	101	7
111	111	7
77	78	8
123	143	1
156	180	4
158	183	2
39	39	4
9	147	2
199	207	3
163	165	3
121	122	2
145	147	4
61	61	23
176	178	3
123	125	2
216	217	7
122	126	4
70	86	3
20	25	4
8	16	1
105	106	8
55	55	23
5	8	11
224	224	11
32	151	5
8	177	3
106	106	9
137	139	1
22	23	1
141	141	10
16	22	1
211	212	3
82	99	3
212	218	1
183	224	1
200	201	2
19	178	1
195	195	14
58	80	1
79	103	4
147	158	1
165	166	2
45	47	2
79	107	6
118	118	10
21	21	5
4	176	4
191	191	16
217	217	13
136	136	5
103	104	5
152	152	4
78	79	2
48	49	4
234	234	7
117	117	12
162	230	3
234	235	9
82	86	3
53	60	10
63	64	2
162	167	3
241	241	12
64	65	3
29	30	5
109	114	3
44	44	8
81	82	4
227	228	2
213	213	8
206	206	7
86	86	23
75	75	16
167	167	5
26	55	2
187	187	12
101	103	2
41	43	2
98	110	3
157	182	3
161	173	3
9	12	2
1	1	10
208	208	5
59	62	3
188	223	4
198	198	5
9	143	5
12	13	11
118	224	2
205	206	6
83	83	6
39	45	3
181	181	1
31	32	1
6	176	4
8	14	1
144	147	6
38	103	9
129	139	2
21	22	6
170	172	1
161	231	6
228	229	1
39	56	2
150	150	13
133	133	15
63	85	4
105	109	3
159	173	2
16	24	4
175	175	5
97	105	2
105	107	1
4	4	12
32	41	5
203	218	3
4	6	1
210	210	10
87	88	1
155	167	3
151	153	4
185	221	2
135	141	2
163	163	4
12	150	5
57	60	5
212	216	3
147	202	1
182	182	8
39	42	3
73	119	5
155	166	1
89	98	1
72	73	3
194	194	3
29	232	4
26	27	1
20	21	2
73	74	3
19	20	4
224	225	10
220	234	4
188	208	2
189	196	3
91	91	1
27	38	3
88	88	1
192	193	8
33	88	2
67	69	4
60	66	1
113	117	5
39	49	3
78	108	4
0	3	3
80	104	1
21	96	2
27	29	2
2	3	19
48	50	3
150	180	1
144	144	2
23	24	9
119	119	9
176	192	2
112	113	5
219	240	1
199	199	7
199	200	4
80	80	7
49	50	5
37	38	12
173	226	2
80	82	2
233	234	4
45	46	2
21	32	2
140	141	6
6	14	4
225	226	4
103	106	4
31	36	8
174	182	2
7	13	2
88	98	3
7	7	4
159	168	1
220	223	2
180	182	4
32	33	3
190	191	3
159	160	6
156	165	2
187	190	4
63	65	2
121	121	8
25	37	4
149	149	3
12	14	1
75	77	1
163	179	1
33	35	5
71	75	1
78	101	8
7	14	4
158	158	9
180	181	4
184	185	6
126	138	2
200	202	2
176	176	1
199	208	1
129	131	2
191	201	4
171	171	5
6	7	2
235	235	8
82	82	6
74	75	5
199	223	2
149	150	2
223	224	8
84	108	1
100	117	1
208	224	5
56	56	6
165	165	8
192	196	2
17	18	1
107	107	3
63	63	3
50	52	4
188	189	5
85	113	7
54	58	4
46	55	2
62	88	2
142	143	5
86	113	4
15	17	3
155	158	3
146	146	2
9	71	3
63	89	1
102	105	2
143	144	1
5	6	5
135	139	1
211	214	4
203	205	2
104	105	7
218	219	1
31	35	5
4	14	3
144	145	5
82	83	2
158	182	2
170	171	3
176	177	9
9	10	5
174	177	1
86	128	1
83	91	3
124	126	1
232	233	4
198	231	5
219	221	2
116	116	1
139	139	1
58	61	2
202	208	2
164	221	4
122	140	1
30	151	2
204	205	2
109	235	4
147	152	3
49	51	4
4	145	2
51	59	1
29	35	3
45	57	2
20	29	4
166	167	4
152	233	1
21	143	2
127	128	2
149	164	1
161	232	2
130	130	2
46	53	3
77	131	2
32	54	4
193	194	3
196	196	1
45	55	1
239	242	1
71	96	1
222	222	5
139	141	2
4	146	3
34	34	2
29	34	1
212	214	1
151	151	3
110	113	1
138	145	3
88	96	1
204	206	1
189	190	3
102	104	3
9	153	1
239	240	4
20	36	3
52	54	4
153	238	3
39	40	1
179	179	4
138	138	3
127	129	5
31	88	2
193	193	4
242	243	1
82	85	3
148	149	2
148	148	1
157	239	1
78	80	1
55	86	1
21	99	2
20	23	1
34	37	3
220	222	3
44	86	1
199	226	1
41	42	6
154	160	1
53	53	5
55	58	1
198	201	1
225	225	2
70	83	2
132	133	4
177	179	1
202	226	4
59	60	2
8	35	1
84	86	3
189	201	1
10	11	3
199	225	2
81	84	6
89	96	4
68	69	6
8	37	2
135	146	3
1	9	1
164	184	1
75	76	2
39	46	3
80	83	1
21	25	2
167	176	1
21	30	2
26	28	3
145	146	1
129	141	2
169	193	1
10	150	1
91	96	2
95	95	4
52	62	1
6	179	1
70	72	1
15	19	1
18	30	3
190	201	1
97	102	2
153	153	2
75	131	1
158	159	1
105	117	1
186	187	3
80	108	1
212	217	1
42	45	2
51	53	3
83	99	1
142	159	1
70	85	2
76	85	2
178	179	2
187	195	1
7	175	1
156	181	3
29	36	6
47	48	1
238	241	1
28	233	1
20	24	1
20	26	1
82	88	1
74	134	1
72	75	1
0	2	2
189	226	1
73	103	1
88	91	1
210	216	2
111	121	1
183	192	1
44	46	1
136	143	1
154	156	2
18	20	1
149	151	1
155	157	3
56	83	1
197	231	3
7	177	1
202	230	1
26	46	1
26	154	1
198	199	2
76	88	1
187	188	5
5	139	1
50	51	1
43	44	1
101	102	2
172	241	1
10	100	2
89	91	2
141	147	1
141	144	1
151	165	2
219	239	1
159	180	1
18	33	1
65	67	2
127	142	2
82	138	1
20	27	1
118	120	1
18	34	2
60	62	1
187	203	2
52	53	2
131	133	2
173	227	1
185	205	1
196	225	1
218	223	1
19	35	1
180	183	1
100	103	2
84	99	1
117	118	1
6	142	2
184	188	1
124	129	1
101	106	2
157	183	1
123	126	1
198	208	1
235	236	1
131	134	1
199	216	1
105	108	1
39	50	1
2	138	1
164	164	2
140	232	1
108	115	1
74	103	1
75	107	1
6	8	1
192	206	1
20	97	1
4	7	1
197	201	1
75	81	1
58	85	1
162	169	1
137	138	1
0	6	1
9	42	1
188	197	1
25	42	1
131	131	2
161	163	1
24	39	1
36	38	2
101	105	1
8	143	2
26	32	1
8	9	1
99	117	2
47	54	1
123	140	1
129	147	1
173	177	1
15	16	2
188	203	1
123	124	1
114	115	1
47	55	1
161	162	1
226	226	1
74	97	1
