37	57	4
58	58	26
45	45	8
40	40	16
19	20	11
49	49	16
21	21	23
51	51	23
12	15	3
4	4	13
19	52	2
7	7	20
15	40	2
10	39	3
48	49	1
50	50	12
37	37	20
22	24	3
17	17	17
34	34	6
2	49	4
22	28	1
54	54	10
18	18	26
47	47	8
52	57	4
8	12	2
50	55	7
21	22	13
11	50	3
56	56	11
20	31	1
6	6	8
19	19	11
28	28	25
30	30	17
23	24	2
5	5	9
16	16	24
22	29	3
34	38	3
32	32	9
15	15	13
8	8	12
39	39	13
6	41	2
14	14	16
9	9	16
18	47	3
33	33	23
29	29	12
55	55	10
10	33	3
42	42	12
12	12	9
21	23	4
10	10	10
0	12	1
15	30	5
1	4	1
41	41	18
28	30	8
2	2	24
1	1	16
3	48	3
36	37	3
11	59	1
15	16	4
43	43	4
5	7	1
36	38	4
53	57	5
31	32	6
11	12	3
48	48	13
11	11	14
44	44	10
31	52	3
13	13	13
6	19	4
57	57	6
46	47	5
3	3	16
46	46	13
31	31	13
39	42	5
3	4	3
41	42	2
40	42	3
0	0	10
14	42	2
38	38	7
35	35	16
52	56	2
53	54	2
30	31	2
20	23	2
36	36	11
10	11	1
20	21	1
37	54	1
17	54	3
22	58	2
32	58	2
20	20	6
15	31	3
1	49	1
21	24	5
31	35	3
18	36	5
11	14	5
17	18	1
20	53	3
14	15	3
6	7	2
33	36	2
9	17	2
2	3	2
10	44	1
8	9	2
15	29	1
11	57	1
43	50	1
19	39	2
5	48	3
23	23	4
29	30	4
19	37	3
19	36	1
35	57	2
38	53	3
53	58	2
10	15	5
15	48	1
33	34	3
40	41	1
19	57	4
16	17	4
4	47	2
15	42	2
4	6	1
8	17	1
7	8	1
9	12	2
2	45	2
42	48	1
52	58	3
32	35	5
21	58	1
19	21	1
29	53	1
22	23	2
20	29	1
10	37	1
19	38	3
19	42	2
32	52	1
28	52	2
8	49	1
9	10	2
52	52	4
24	24	2
50	51	1
4	46	1
4	5	2
18	34	1
10	50	1
45	49	1
55	56	1
36	40	3
6	8	2
6	23	1
53	56	1
16	19	2
21	37	1
12	41	2
39	49	1
6	13	2
38	57	1
43	44	2
19	50	2
9	11	1
22	22	1
28	57	4
42	50	1
34	54	1
53	53	2
28	56	1
30	58	2
0	1	1
21	51	2
13	14	2
17	39	1
15	44	1
20	37	1
39	40	1
27	27	1
35	51	1
14	40	1
6	14	1
52	53	1
21	29	1
16	18	1
35	58	1
20	22	1
7	58	1
4	7	1
13	34	1
