109	122	2
114	114	5
126	126	4
69	69	2
118	118	1
26	27	3
14	15	6
74	75	2
71	71	7
122	124	2
96	104	3
0	6	1
55	55	14
88	91	5
65	66	2
137	139	8
128	128	15
89	90	3
52	52	1
21	21	3
50	51	5
136	136	7
96	114	2
112	112	1
3	3	7
119	131	10
125	125	11
69	71	1
82	131	1
97	97	6
119	121	2
26	29	2
40	40	5
127	127	3
69	72	1
18	18	3
118	119	6
137	137	8
87	87	6
122	122	3
96	96	3
16	16	8
91	91	3
70	78	3
108	109	11
63	64	3
79	79	5
113	113	3
121	121	13
87	90	4
20	62	1
47	68	1
144	144	5
104	106	2
29	29	14
11	11	4
5	5	8
130	130	8
69	133	6
124	125	3
86	86	1
47	47	2
92	94	2
29	41	3
22	22	23
25	25	11
26	26	3
138	138	9
124	124	3
74	74	5
13	14	3
137	138	2
10	10	5
14	14	7
107	108	2
133	134	1
135	135	12
54	54	5
119	119	5
104	104	9
98	109	5
28	30	1
61	61	6
31	32	1
103	103	1
134	135	4
133	133	2
80	80	9
90	90	2
61	62	3
75	75	3
88	88	2
16	37	1
128	130	4
141	141	9
123	124	6
53	53	5
59	59	4
132	132	18
117	117	10
82	82	4
115	119	1
4	4	9
23	23	7
31	85	3
115	116	2
0	0	8
107	123	2
119	120	2
113	117	8
107	107	9
20	21	1
20	20	3
81	81	3
32	53	4
140	140	1
97	103	1
143	143	8
113	116	5
89	89	5
136	138	3
15	15	3
135	137	1
67	71	2
58	59	3
1	20	5
112	113	1
22	24	2
9	9	3
75	78	1
76	76	2
6	6	2
119	130	1
105	105	4
118	133	2
60	60	5
134	134	4
77	78	2
139	139	3
138	139	4
56	56	2
95	95	3
97	98	1
145	145	6
95	96	2
4	5	4
70	70	2
106	106	6
60	106	3
108	108	2
131	143	1
0	5	4
62	63	5
37	37	1
49	49	4
93	94	1
113	114	1
120	121	3
86	90	3
98	98	11
64	85	2
32	32	2
84	84	1
36	36	3
2	5	5
83	84	3
41	41	1
57	57	2
41	42	2
110	110	2
84	103	6
125	128	1
67	67	4
99	99	4
19	19	8
72	96	3
105	107	3
78	78	2
60	61	3
123	123	4
85	86	1
81	82	3
1	1	9
109	110	1
57	60	1
64	64	4
17	17	2
13	13	1
128	131	2
34	34	5
91	92	5
48	48	4
62	62	3
37	39	4
68	68	2
100	101	1
35	35	2
21	26	1
69	70	3
99	100	3
82	83	1
4	20	1
85	97	2
94	94	3
32	33	1
115	115	4
132	133	2
71	94	1
50	52	2
125	137	3
52	54	2
109	123	4
120	129	1
111	111	2
80	81	1
108	110	2
49	51	3
122	123	4
54	56	2
88	90	1
3	5	2
55	63	2
141	143	3
20	24	4
81	105	1
57	75	1
102	104	2
117	131	2
109	109	2
19	22	1
83	83	2
42	42	1
5	6	1
74	79	3
38	38	2
58	58	1
72	72	1
92	92	2
100	110	1
125	129	2
55	56	2
65	65	4
111	112	2
0	1	1
92	95	1
8	8	3
13	17	2
54	55	1
76	79	1
25	26	2
94	95	1
49	53	1
139	140	1
12	12	1
142	143	3
101	101	2
0	20	1
93	95	1
33	33	1
112	116	1
43	47	1
9	10	1
128	129	2
117	118	2
120	120	1
28	28	1
136	140	1
103	105	1
2	2	1
37	40	1
46	48	1
30	39	1
102	103	2
49	52	2
98	107	1
51	56	2
42	43	1
8	11	1
47	49	2
102	102	1
88	92	1
71	132	1
