132	139	3
118	118	10
126	126	21
161	162	5
153	164	3
123	123	14
97	111	2
3	4	6
11	11	17
96	135	2
27	33	2
158	158	16
159	159	6
90	91	4
14	15	5
0	32	5
122	123	1
4	9	8
160	160	13
147	147	15
93	128	4
2	5	8
131	131	15
176	176	13
38	38	28
97	113	2
132	132	18
32	32	13
109	109	16
74	75	4
18	20	2
91	97	3
117	117	14
2	3	8
120	121	10
63	66	6
18	144	1
9	10	3
30	42	4
154	154	8
110	110	11
99	113	4
35	42	3
8	8	41
34	61	1
162	167	6
68	68	2
15	15	25
94	100	7
174	174	6
112	112	21
10	27	3
146	146	6
65	65	3
38	39	8
5	5	29
39	39	24
135	135	11
67	67	11
3	15	2
11	28	6
131	169	5
167	167	7
43	43	33
84	84	10
95	98	3
19	23	7
142	143	1
152	152	3
85	85	7
42	42	27
80	83	3
33	33	19
102	109	1
45	45	8
25	25	33
61	61	12
21	147	2
57	58	11
111	111	9
163	163	14
180	180	5
6	29	7
29	29	11
73	73	12
20	21	10
110	114	2
52	53	6
112	114	5
27	31	2
57	57	18
90	92	2
4	15	9
24	26	5
107	145	6
10	12	1
36	36	25
164	164	8
117	118	4
115	115	12
156	156	1
27	27	17
10	11	14
163	167	6
55	56	2
147	148	5
6	6	22
96	97	3
80	80	13
25	26	10
30	30	9
21	21	18
37	38	9
162	162	16
98	100	5
153	153	3
124	124	15
91	98	2
1	15	4
169	169	15
2	2	19
83	83	8
92	92	5
88	91	2
131	162	4
64	82	2
90	90	13
26	26	12
9	17	1
63	63	20
155	158	1
8	9	11
7	12	6
75	75	3
5	9	3
82	82	18
14	14	17
100	100	3
10	10	14
12	12	17
52	81	5
155	157	2
138	138	6
144	144	7
173	174	8
175	176	1
72	72	12
143	143	16
87	87	6
105	106	1
132	150	1
7	20	6
54	57	9
178	178	9
31	31	12
55	92	2
124	131	2
148	148	7
149	149	10
77	78	4
16	45	3
81	85	4
161	168	1
165	165	10
99	99	9
37	37	25
161	161	2
14	60	3
166	166	10
6	41	4
64	64	5
133	133	8
107	107	21
4	4	12
101	102	1
24	24	12
68	79	5
40	40	17
111	112	3
128	164	2
58	59	3
76	76	10
101	101	11
4	42	3
31	40	4
62	62	9
113	113	4
7	7	8
95	163	2
126	135	2
25	29	1
50	50	6
138	139	3
16	20	4
96	96	10
10	15	5
177	177	5
171	171	10
40	41	3
32	33	7
36	37	3
22	23	13
1	1	17
175	175	6
18	18	11
130	130	11
120	120	4
25	28	6
14	27	2
170	170	7
116	116	7
82	85	2
50	51	6
1	6	2
114	114	15
108	109	2
60	61	4
118	119	3
28	28	18
44	44	11
0	4	2
148	150	3
121	150	2
140	140	6
91	91	3
129	129	4
52	52	10
35	35	12
16	16	9
5	12	4
139	141	2
53	59	1
148	149	3
9	9	17
71	71	13
57	103	4
164	169	3
99	112	6
145	145	7
155	168	1
104	105	1
43	66	3
55	55	7
59	59	6
143	144	4
22	22	18
93	93	5
66	67	6
25	84	1
39	41	1
137	147	3
123	124	6
54	54	10
123	125	4
14	33	4
106	106	5
15	16	4
129	130	10
126	146	1
8	16	2
167	169	2
119	119	3
16	19	5
13	13	26
152	153	8
142	142	5
88	89	9
55	88	4
179	180	2
145	146	7
33	45	3
109	113	3
88	88	6
19	19	11
34	36	1
19	151	5
43	44	6
33	34	3
0	0	15
7	11	2
156	158	2
5	6	8
63	64	6
13	44	2
172	172	7
100	130	4
104	104	6
145	151	3
21	144	3
30	35	3
12	13	9
12	37	2
23	23	8
77	77	3
41	42	4
86	101	4
17	17	12
39	40	10
107	109	7
26	40	3
95	95	6
10	17	4
98	120	3
11	13	1
5	14	2
1	92	3
51	52	2
127	127	6
138	170	4
119	121	2
1	53	3
9	16	1
17	25	3
26	64	5
144	160	3
169	170	4
114	115	6
154	167	2
74	74	14
142	148	1
129	154	1
165	166	2
92	97	1
89	89	4
152	157	1
29	178	1
28	30	1
132	133	2
168	168	11
78	85	1
104	107	2
96	130	2
122	122	4
179	179	4
6	9	1
78	78	4
16	117	1
164	166	3
44	45	3
148	161	3
10	37	7
177	178	1
9	25	1
25	27	4
87	99	2
109	114	2
98	101	5
29	30	4
2	16	3
134	142	2
119	120	6
101	103	3
115	116	2
108	108	8
151	152	4
17	24	2
60	60	1
12	21	1
127	128	2
0	116	1
99	130	5
21	22	3
34	34	7
13	14	3
160	170	1
11	60	1
18	26	1
33	35	5
173	173	6
121	121	4
97	99	3
10	35	2
49	49	5
11	19	2
176	177	6
79	79	6
7	8	2
126	128	4
166	169	2
16	30	3
3	3	17
3	9	3
7	33	3
97	97	2
5	37	1
76	77	4
139	139	7
20	20	5
10	61	4
3	29	3
3	12	3
32	43	3
85	86	3
137	139	3
171	173	1
170	171	7
134	134	1
100	112	1
154	180	1
89	122	3
151	159	2
45	62	1
58	114	3
93	127	1
134	168	1
102	126	1
24	25	4
72	149	1
9	14	3
110	111	3
31	32	5
18	19	5
51	82	1
92	127	3
71	81	3
133	139	1
16	169	1
87	89	3
133	149	1
64	132	1
81	82	5
67	68	2
22	88	1
101	129	3
28	29	1
3	16	3
61	62	3
100	125	2
64	65	3
43	67	1
87	107	1
23	24	1
66	66	11
147	171	1
172	173	3
103	168	2
65	68	3
41	41	14
30	31	1
89	90	1
152	165	2
113	114	4
109	134	1
18	28	2
105	108	1
40	42	2
51	51	6
19	22	2
61	87	3
98	126	1
25	117	2
2	8	1
22	117	2
66	79	4
17	123	2
103	103	5
106	107	1
151	151	2
0	16	1
24	115	4
1	39	2
54	103	2
5	34	4
35	163	1
17	19	2
12	14	3
109	143	1
25	41	3
70	70	2
156	164	4
24	28	3
150	177	3
80	103	1
150	150	5
2	6	1
17	18	2
64	72	3
63	83	2
2	18	2
1	9	2
89	106	1
62	63	2
106	130	1
168	180	2
102	102	2
74	77	1
157	169	1
11	20	1
40	180	2
50	157	2
70	71	2
23	115	2
128	128	3
167	168	1
132	149	1
56	56	2
6	38	1
124	125	3
157	168	2
83	84	1
89	91	1
104	126	2
84	85	3
39	42	1
3	11	2
56	57	3
39	43	1
125	125	1
101	131	2
89	94	1
132	140	3
135	136	2
20	62	1
71	72	3
158	159	2
121	131	1
86	114	1
117	162	3
94	95	2
141	158	1
58	58	1
126	154	1
6	8	2
55	172	2
5	41	1
32	36	1
94	94	4
46	46	3
81	81	1
29	31	2
3	33	1
37	42	1
3	7	1
72	76	2
11	38	3
124	148	1
17	167	3
144	145	1
16	35	1
4	11	1
5	7	2
132	138	1
115	160	2
156	163	1
57	96	2
92	93	3
11	61	2
163	168	1
141	141	3
8	13	3
74	124	2
26	39	1
97	115	1
101	156	1
163	164	1
26	27	2
155	161	1
0	10	1
158	163	1
27	28	1
98	130	1
18	151	2
53	53	4
89	97	3
1	3	1
24	27	2
61	67	3
41	45	1
63	75	1
133	173	1
93	94	1
0	1	2
17	169	1
92	129	1
97	116	1
162	166	1
19	20	2
53	58	3
73	114	2
101	126	1
110	163	2
7	14	1
136	136	2
15	20	4
116	117	1
99	114	1
166	170	1
15	41	1
74	170	1
18	35	1
43	45	1
93	163	1
17	23	1
90	94	2
140	141	1
153	170	1
59	60	1
63	86	2
107	108	2
1	2	2
16	18	2
150	156	1
173	175	1
90	93	2
16	43	3
122	128	1
25	63	1
1	7	1
6	7	1
89	131	1
99	101	2
11	16	2
83	85	1
76	106	2
86	86	1
137	137	1
109	119	1
80	82	1
95	134	1
133	140	2
0	38	1
38	91	1
101	109	2
152	166	1
9	37	1
60	119	1
0	37	1
157	158	1
24	63	1
107	112	1
35	61	3
44	61	1
78	80	1
5	28	1
90	128	2
14	16	2
46	50	1
105	105	1
156	157	2
15	30	1
25	118	1
95	96	1
38	41	1
150	151	3
171	172	1
15	29	1
11	12	2
138	179	2
99	100	1
146	147	3
15	40	1
4	26	1
32	56	1
160	168	1
10	13	1
12	30	1
81	84	1
74	85	2
73	107	1
131	167	1
14	24	1
36	41	1
110	113	1
155	156	1
26	28	2
23	26	1
18	24	1
25	116	1
65	83	1
102	154	1
4	5	1
105	131	1
13	27	1
11	18	1
89	93	1
165	169	1
7	25	1
65	71	1
53	140	1
60	65	1
32	35	1
4	8	1
142	150	1
