131	131	49
155	155	30
107	107	52
180	180	39
21	56	2
149	181	5
64	64	32
120	121	10
88	88	33
33	106	5
169	169	34
7	7	39
33	34	22
4	8	3
176	177	9
55	56	25
137	137	40
91	91	19
48	54	3
149	149	40
89	89	29
57	57	72
92	92	72
141	141	45
101	103	9
6	85	1
82	111	1
99	99	39
115	154	9
108	114	4
65	66	8
79	79	40
135	136	19
44	44	42
29	30	13
151	183	4
174	174	46
62	63	25
127	127	45
124	124	31
74	74	54
41	41	48
59	59	50
77	77	60
173	175	7
66	93	2
75	77	6
0	0	31
86	132	2
133	133	44
143	143	46
61	157	1
48	48	42
142	142	35
94	94	37
63	63	43
98	98	20
29	29	41
97	98	19
121	121	40
64	65	4
188	188	27
18	18	59
187	187	38
120	145	3
128	128	33
13	64	3
111	133	2
134	134	45
37	37	32
44	93	1
178	178	43
16	36	2
101	101	40
54	54	36
65	65	43
40	40	57
130	133	12
164	164	40
109	139	3
140	140	64
122	122	44
95	95	55
147	147	58
169	182	3
81	94	4
147	148	17
92	94	8
62	62	23
129	130	9
72	72	36
73	75	6
104	104	37
106	106	20
175	176	18
13	46	3
19	19	35
115	115	45
114	114	34
172	190	3
21	21	22
171	171	30
48	154	1
181	181	14
12	12	29
118	118	47
24	53	2
28	32	8
27	27	25
40	41	11
157	157	58
37	38	15
156	156	41
26	26	15
35	35	45
188	189	15
119	123	5
16	16	73
111	111	48
114	117	2
111	119	7
91	92	16
111	118	5
153	153	41
160	162	10
146	172	2
123	123	77
58	59	21
87	87	50
96	97	31
146	146	27
186	186	26
10	10	50
167	167	30
132	133	19
60	63	10
15	15	33
159	159	17
55	58	7
28	28	55
25	57	1
89	110	6
11	11	35
122	123	22
70	70	25
126	128	5
161	161	21
163	163	29
116	116	42
129	148	1
65	102	3
30	35	6
154	161	4
71	71	26
120	155	1
70	73	3
148	149	6
45	45	41
76	148	3
165	165	44
159	164	3
36	36	51
4	5	9
169	170	10
11	22	3
121	122	14
29	32	11
140	141	8
169	183	2
172	172	16
86	86	41
6	7	12
89	107	2
108	108	49
126	126	40
5	5	27
4	130	1
1	55	1
68	68	33
96	96	46
176	176	30
123	124	7
171	174	21
89	112	1
55	130	2
161	162	14
142	151	1
34	71	4
124	125	14
125	126	8
177	181	3
24	24	33
85	85	36
27	48	3
168	168	24
37	43	12
67	67	43
18	42	4
66	68	5
22	22	38
25	26	13
69	70	5
177	177	46
103	103	32
84	85	21
83	175	1
15	41	2
58	61	13
80	80	50
47	47	31
57	76	2
56	69	5
132	157	3
97	97	50
179	179	32
7	15	5
136	137	28
81	81	56
126	145	3
22	68	3
27	28	14
120	147	3
112	112	28
164	165	17
158	158	34
0	151	1
5	49	2
150	151	12
37	42	3
31	33	7
98	109	4
174	175	13
38	38	48
56	56	45
113	113	55
75	76	15
138	138	44
43	43	43
100	100	24
42	54	1
98	107	1
24	91	3
179	180	8
91	177	4
78	163	4
14	32	2
101	102	12
125	171	6
131	132	16
152	152	49
137	140	5
74	75	17
77	78	11
172	173	13
2	2	47
54	128	7
86	131	2
96	141	4
8	24	6
102	102	22
45	46	19
165	172	2
97	104	2
187	190	11
36	37	15
150	150	38
109	109	35
66	66	23
124	126	2
69	69	5
148	178	2
148	148	61
14	15	17
128	139	4
182	183	18
69	73	7
99	139	1
87	88	8
81	86	2
102	159	2
83	85	3
66	67	16
88	151	2
95	96	12
116	119	12
82	83	14
159	161	1
151	151	63
173	173	28
57	78	3
84	84	35
155	156	7
185	186	5
57	60	2
31	41	1
13	13	38
61	134	3
76	77	10
42	42	33
101	106	1
61	61	55
93	93	32
110	157	3
168	169	8
1	1	30
116	136	1
166	166	53
14	14	46
125	162	1
110	110	46
156	157	9
183	183	14
131	162	2
30	32	15
55	59	4
122	147	3
43	44	29
7	25	1
31	31	26
11	12	11
189	190	8
4	6	9
74	76	4
27	29	18
46	46	34
17	17	33
141	143	12
115	129	5
34	36	6
44	71	2
86	87	13
186	188	2
20	21	22
25	25	49
30	31	16
55	55	40
143	144	11
33	33	28
56	115	7
27	116	6
16	26	4
66	75	5
16	17	20
90	91	18
160	160	22
68	70	2
114	115	13
98	100	8
22	57	2
22	178	5
42	43	6
118	165	1
58	58	26
139	139	41
105	107	10
161	163	6
32	37	3
43	45	6
28	29	20
34	85	3
148	169	3
154	182	5
60	61	11
32	35	5
149	150	21
73	104	4
103	105	2
41	88	14
6	6	31
72	171	4
3	3	19
101	104	4
144	144	35
129	129	37
131	181	2
23	23	28
142	146	5
76	78	4
77	162	2
56	57	20
30	124	3
20	22	5
115	153	7
122	150	3
146	147	14
83	86	1
153	154	9
90	90	54
117	132	6
5	45	3
18	20	2
38	39	13
18	121	2
59	61	13
55	87	2
166	167	8
189	189	25
120	120	41
92	93	30
32	32	30
128	129	4
82	82	44
12	47	1
171	172	19
187	188	19
104	155	2
30	30	33
154	155	19
150	181	4
184	184	31
126	127	17
105	105	45
180	181	16
116	130	5
66	185	3
117	117	46
93	95	2
170	170	16
29	31	8
12	82	6
27	31	5
74	151	3
48	49	5
108	113	4
60	60	30
113	114	4
3	182	4
107	110	2
124	127	6
62	87	1
28	115	4
148	186	2
97	99	10
107	168	2
117	163	1
119	147	2
181	182	6
17	57	3
119	119	22
12	13	9
117	162	3
53	53	32
86	107	3
77	169	7
4	4	21
16	40	3
136	136	28
110	111	9
21	32	4
117	119	8
24	25	16
10	17	1
8	19	7
79	90	3
185	185	30
111	115	15
177	179	5
111	154	6
9	10	13
65	75	2
75	75	33
182	182	24
70	71	28
39	39	34
167	181	5
188	190	10
99	136	1
122	125	3
45	100	3
121	144	7
86	93	7
68	69	8
42	95	2
48	52	3
147	182	4
133	136	4
7	8	7
148	157	2
115	132	3
8	23	7
72	87	1
60	62	12
157	158	22
10	35	1
101	116	6
153	155	10
123	127	2
46	82	4
173	174	12
125	127	7
48	70	3
142	143	3
130	136	1
130	131	27
22	26	7
124	152	1
35	48	7
34	120	2
10	11	23
54	61	4
180	183	7
93	94	25
154	154	53
176	189	2
22	23	21
102	124	2
157	161	9
20	20	46
106	107	8
135	143	2
89	151	1
108	109	10
88	101	4
97	146	1
109	113	8
55	85	3
115	119	7
14	23	4
110	179	6
125	125	22
77	79	7
132	136	6
71	74	4
83	83	29
34	34	30
67	70	4
26	176	1
116	123	1
190	190	20
121	141	2
76	76	23
94	104	1
90	92	13
47	149	6
147	177	5
57	70	1
125	129	2
84	123	4
63	89	3
126	138	6
72	94	3
117	118	20
3	140	2
45	47	9
99	151	1
47	111	6
100	134	6
113	146	2
107	183	4
105	113	1
131	163	1
149	173	3
139	140	5
146	180	3
134	163	2
39	40	8
18	19	11
106	167	2
76	158	1
148	150	1
23	27	3
117	121	2
108	125	1
177	178	15
17	184	1
163	165	3
45	48	6
27	30	2
150	176	1
57	173	3
163	164	13
17	18	16
36	41	2
32	84	7
161	165	7
97	168	5
75	114	1
79	141	3
8	22	5
18	23	8
53	54	11
32	33	5
138	139	11
26	41	1
29	35	7
97	130	1
30	63	3
13	14	19
102	140	4
72	95	2
26	175	2
110	112	1
5	6	5
132	153	4
84	87	3
82	94	1
78	79	9
35	36	21
44	45	3
20	44	8
81	82	5
44	46	12
23	25	8
178	180	4
77	88	2
23	159	1
109	129	5
179	190	2
74	89	1
91	109	2
175	175	8
30	39	5
49	58	8
162	162	48
115	116	15
145	145	26
38	118	1
145	146	5
35	44	1
42	62	2
144	146	4
44	84	2
16	18	3
8	9	1
133	134	2
28	30	10
8	154	3
101	108	3
34	114	3
22	27	5
118	130	5
29	115	4
121	163	2
153	186	1
148	181	2
5	10	3
14	64	3
147	149	3
126	156	3
104	106	5
150	185	1
111	113	4
11	21	7
136	143	7
58	71	4
82	101	5
16	35	3
128	132	2
149	151	3
79	80	13
100	104	1
26	184	5
56	60	3
181	188	5
78	78	37
90	124	6
60	64	1
156	163	1
85	86	4
9	9	15
84	108	1
150	158	3
42	48	1
63	66	4
112	116	4
33	36	2
13	90	4
175	181	1
57	58	8
42	44	8
11	19	1
151	159	2
130	130	6
1	40	2
141	142	7
21	165	3
109	115	3
21	22	12
182	184	2
104	105	5
78	81	4
93	99	6
166	182	2
152	171	2
119	124	1
59	60	4
139	183	4
21	73	3
6	137	4
122	157	3
185	190	3
8	122	1
65	67	10
170	171	2
59	62	3
3	19	2
169	175	2
79	82	4
10	12	13
68	77	5
1	2	16
52	57	5
73	93	3
21	162	2
156	158	10
18	119	3
112	155	2
145	147	5
24	47	3
118	156	1
80	147	4
92	95	3
15	122	2
154	166	1
35	37	2
20	55	9
125	135	2
173	177	3
166	168	5
82	90	1
2	3	8
168	181	3
58	104	2
12	61	3
43	100	1
61	62	16
82	84	1
84	131	1
100	113	1
67	68	11
170	174	7
24	58	4
60	71	2
15	17	4
168	187	1
57	62	1
72	133	2
178	181	7
102	103	16
6	11	2
9	22	5
134	135	7
134	137	2
58	161	1
99	110	1
14	34	4
160	163	1
132	132	15
105	106	10
6	97	2
172	177	2
166	176	5
63	151	2
107	108	7
73	74	6
44	94	5
43	55	1
104	112	3
54	55	12
140	151	5
182	187	8
6	89	3
155	164	3
127	162	1
62	67	2
41	66	1
15	75	4
65	91	2
44	109	1
71	83	5
73	73	32
152	153	11
105	112	2
136	139	4
130	132	10
156	161	1
114	130	4
3	4	3
96	98	6
137	144	3
113	120	2
62	137	1
77	183	3
72	73	13
28	63	4
164	174	6
1	54	4
36	53	1
127	128	13
41	42	6
111	127	5
120	156	2
163	190	3
114	183	2
17	19	4
14	165	1
133	139	1
84	106	1
133	152	4
178	179	9
166	188	1
53	148	2
165	177	1
122	124	2
13	15	4
12	57	2
74	121	1
162	163	18
79	81	5
103	146	1
134	156	3
31	32	3
118	119	5
19	20	14
160	161	5
150	155	1
92	120	1
100	112	2
96	105	1
116	120	2
135	135	23
115	127	3
14	16	3
149	156	3
84	86	5
142	169	2
58	63	4
116	117	9
29	47	2
127	133	1
174	176	8
149	165	3
26	85	5
112	149	1
23	66	1
119	120	11
8	74	1
91	178	5
71	96	5
4	187	1
19	54	3
7	19	3
74	139	4
152	154	1
91	119	2
78	126	3
32	102	4
100	187	2
53	55	2
31	35	1
8	8	20
99	149	5
20	157	1
111	112	6
7	36	4
95	98	6
27	54	2
107	133	2
8	123	5
94	95	5
124	178	2
31	133	2
151	163	5
19	25	4
148	183	4
43	110	5
149	155	1
136	149	5
16	37	1
106	113	1
70	72	3
83	87	1
131	135	3
48	128	4
42	46	3
23	31	4
27	36	3
2	154	1
154	180	3
74	88	3
71	101	2
137	139	12
31	37	4
26	34	1
135	139	2
48	67	2
8	177	1
47	66	5
103	109	1
140	142	1
3	24	1
65	68	7
99	100	12
31	113	2
45	134	1
84	90	1
65	163	3
25	48	1
74	77	4
63	64	7
46	71	2
82	109	2
89	133	1
55	105	5
92	159	4
95	152	2
83	84	9
181	183	2
19	117	3
158	162	6
16	49	6
144	164	2
57	61	2
112	156	2
146	169	2
135	141	4
86	94	2
65	133	3
38	42	2
37	47	3
140	143	9
162	164	4
170	180	6
55	72	1
123	128	2
58	60	1
4	154	2
24	34	1
109	116	1
52	52	6
20	23	4
150	156	6
99	179	1
6	20	1
12	14	8
7	101	3
56	126	1
63	65	5
62	64	9
59	67	3
94	98	2
79	96	5
79	84	1
24	99	3
59	64	6
74	83	2
21	23	5
149	154	3
114	152	3
79	123	4
122	128	1
92	104	2
159	160	5
124	188	2
14	21	1
11	37	4
159	163	1
88	139	2
23	24	9
10	155	3
75	152	5
85	87	2
138	175	6
107	187	2
147	165	3
148	182	7
149	179	2
82	122	4
53	172	2
143	145	3
26	27	3
177	188	3
69	97	2
155	180	2
5	24	3
150	173	1
16	20	3
9	23	3
61	73	1
11	33	1
140	175	1
26	89	3
55	74	2
49	155	1
94	130	4
77	134	2
78	110	2
30	99	3
69	127	5
62	151	1
137	138	12
113	147	2
92	158	1
108	116	5
71	120	6
134	155	3
37	113	3
164	190	3
98	147	2
6	28	1
124	158	2
119	159	1
180	188	2
80	123	2
100	136	2
120	124	7
10	73	1
91	137	2
117	124	3
167	168	6
105	122	2
102	104	2
166	169	4
27	57	4
180	182	1
98	99	3
36	38	4
90	117	5
24	33	1
110	177	1
68	91	1
80	121	3
46	47	5
148	160	1
7	24	2
47	48	9
99	158	2
155	158	9
118	163	5
138	167	2
13	65	5
18	148	2
26	42	1
81	161	2
93	98	1
151	152	5
91	95	1
105	190	2
114	122	3
72	104	3
180	189	3
115	165	2
134	144	3
106	182	2
106	108	2
128	141	3
80	130	5
168	183	2
32	34	4
168	178	2
117	188	5
89	137	1
63	132	1
23	26	1
123	129	6
24	138	1
113	115	3
161	174	3
2	77	3
100	150	2
105	109	1
8	52	2
129	133	3
102	153	2
156	165	2
32	36	3
88	89	4
170	173	5
71	170	3
6	123	2
25	32	5
158	159	4
34	38	3
128	142	5
136	175	2
87	139	2
142	171	3
134	165	4
62	176	1
62	113	3
107	113	1
99	130	1
15	39	1
74	138	2
184	186	8
12	72	1
108	128	2
74	143	2
118	186	3
141	144	6
179	182	2
17	21	7
77	103	5
98	150	3
8	139	2
22	55	1
144	181	1
60	93	1
109	114	1
4	131	1
144	159	3
131	133	7
89	136	3
1	78	3
89	153	3
151	155	2
158	165	3
58	72	4
111	130	2
100	139	1
73	76	2
130	162	2
159	178	1
122	158	1
115	118	1
109	155	1
14	90	2
48	79	3
38	152	2
72	116	4
11	149	4
100	152	2
20	29	2
157	178	3
54	58	2
67	78	4
57	102	3
174	177	3
114	116	3
41	48	2
110	128	5
106	110	4
94	100	2
131	134	3
135	151	2
86	115	2
170	183	1
96	109	1
55	61	3
60	91	1
36	153	2
184	185	16
152	188	1
118	124	1
82	85	1
79	94	1
137	142	1
7	123	1
61	64	1
33	93	2
32	48	1
91	112	2
76	115	1
4	47	3
108	129	1
52	86	3
10	19	6
116	118	6
6	8	4
40	89	3
75	81	4
12	44	5
164	179	2
28	31	4
112	115	2
118	151	1
12	60	1
61	90	5
84	89	3
150	180	1
71	103	3
2	89	3
11	44	1
34	35	7
118	143	3
45	85	1
30	113	2
138	145	3
31	125	1
86	138	1
18	22	1
21	68	1
14	29	1
98	111	1
109	110	8
101	147	2
54	57	1
26	52	1
14	31	1
87	183	2
44	110	3
109	164	5
139	157	1
16	88	2
99	119	4
37	74	2
75	83	1
147	179	3
13	34	2
73	115	3
102	160	1
19	138	3
10	16	2
92	119	1
80	81	15
23	115	3
72	101	1
61	91	1
16	42	2
76	84	2
38	142	3
16	22	1
114	139	1
44	100	3
121	124	2
75	115	3
182	186	1
145	155	2
62	115	4
76	87	2
112	157	3
142	145	2
6	15	1
95	145	2
109	111	1
1	6	4
106	168	2
37	72	1
87	97	2
40	44	3
41	113	2
123	173	1
87	95	2
56	129	1
89	94	2
137	150	1
44	78	5
105	114	1
113	121	2
73	189	2
87	92	2
155	165	4
79	121	2
166	170	1
64	132	1
76	109	1
88	120	1
115	120	1
136	138	2
105	108	2
115	117	2
121	137	1
90	135	2
55	126	2
168	176	4
73	101	1
14	17	4
16	48	3
145	149	2
109	117	1
19	29	1
119	166	2
85	132	2
132	177	1
124	128	5
10	14	3
16	27	1
107	149	1
154	176	3
107	116	3
22	84	2
130	145	2
154	156	3
76	140	3
90	183	1
144	187	1
18	46	6
161	171	2
79	122	2
106	183	7
100	144	2
183	184	1
75	106	2
31	89	2
175	187	1
77	81	1
46	66	2
92	110	3
16	122	1
17	36	2
183	185	3
6	24	5
155	183	1
24	26	3
85	126	2
17	48	3
67	103	1
22	24	3
158	161	7
157	176	3
68	113	1
28	47	3
158	164	2
140	147	2
13	150	2
1	5	1
84	92	2
119	158	2
133	135	4
35	57	2
175	185	1
100	153	1
18	21	3
76	88	2
40	42	1
0	10	2
6	84	2
41	54	1
103	104	3
175	177	4
88	116	1
63	98	4
130	138	2
8	17	1
90	96	3
14	35	1
73	126	3
47	116	3
78	121	2
61	65	1
20	48	1
155	166	3
73	82	1
166	178	2
26	54	1
12	121	2
10	36	1
9	16	2
150	172	1
73	95	2
128	140	1
38	40	4
10	25	1
113	133	1
145	156	1
79	138	2
142	144	3
11	32	2
42	101	2
157	166	1
12	21	2
114	140	2
0	84	2
77	109	2
71	99	1
20	26	2
95	97	1
88	138	1
173	183	3
143	153	1
56	105	3
185	187	2
82	92	1
122	138	3
65	134	2
157	162	3
68	87	3
108	130	1
58	105	4
59	63	2
146	150	3
168	182	3
110	129	2
40	91	2
71	97	3
95	120	2
18	44	2
168	175	2
148	151	4
15	25	1
17	20	3
110	156	3
129	135	1
132	135	1
88	111	1
183	189	1
119	153	2
59	65	3
29	43	3
113	116	1
91	93	3
105	150	4
57	89	1
127	134	1
122	170	2
28	37	1
66	70	1
40	143	1
40	54	3
96	99	2
60	66	2
186	187	5
80	83	1
72	126	2
80	96	2
82	87	1
17	24	2
21	76	1
64	68	2
107	114	1
150	164	1
117	126	2
88	102	2
169	171	2
22	111	1
108	135	3
79	163	3
6	21	1
43	54	1
171	173	3
88	114	3
124	170	3
127	172	2
53	167	2
45	82	1
28	99	2
177	182	3
112	113	2
79	110	1
0	53	1
23	100	4
175	184	1
11	112	1
99	106	4
167	169	2
0	14	3
170	175	1
187	189	3
62	89	1
141	159	1
48	121	1
26	114	2
81	133	1
3	5	3
29	164	2
150	182	2
100	118	1
144	147	2
134	179	1
106	147	3
106	140	1
20	24	2
104	115	1
55	129	1
90	125	2
99	103	1
13	48	1
103	115	1
95	139	2
124	138	3
108	164	3
56	72	2
130	137	2
164	181	1
147	190	2
145	166	1
166	187	2
132	162	1
170	179	2
93	110	1
5	30	2
138	140	1
26	120	1
63	67	1
2	88	1
157	159	1
91	139	1
20	35	1
72	76	2
87	98	1
5	20	1
56	77	1
4	83	3
44	185	1
147	168	1
134	136	2
121	139	2
14	41	2
0	11	1
112	162	1
147	151	1
106	142	1
106	151	1
11	70	1
176	179	1
11	16	6
14	46	1
77	80	3
25	129	1
31	114	1
119	141	1
108	112	1
71	72	4
160	183	1
120	170	1
167	182	1
63	84	1
100	107	3
67	74	1
110	175	8
72	74	1
112	140	1
120	146	1
89	90	1
11	14	1
67	137	1
68	72	1
108	110	2
5	75	2
1	43	1
61	63	1
111	149	1
89	101	1
5	165	1
33	35	3
21	33	2
18	49	1
107	154	1
78	129	2
10	22	2
83	123	1
23	95	2
42	53	1
59	149	1
0	1	6
4	60	1
25	151	1
16	46	1
155	157	2
22	179	2
102	168	1
131	143	1
31	49	1
34	43	1
4	20	1
57	123	1
87	102	1
144	150	1
137	141	2
26	36	1
2	39	2
14	22	1
6	75	1
6	96	1
127	140	1
73	108	1
156	164	2
110	163	2
6	22	2
55	84	1
58	62	1
154	189	1
36	168	1
121	169	1
89	139	1
41	101	2
163	182	1
1	82	1
110	164	1
54	84	1
22	45	3
11	113	2
55	60	2
44	53	1
84	91	3
101	184	1
121	146	1
13	18	1
45	84	1
97	107	1
23	129	1
22	28	1
129	138	1
133	137	1
68	75	1
34	167	1
110	125	1
84	93	1
169	186	1
84	124	2
104	131	2
125	137	1
14	38	1
26	31	1
176	178	2
121	136	2
64	86	2
136	144	2
169	174	1
109	173	3
19	122	1
117	149	1
74	150	1
146	151	1
1	3	1
64	80	1
93	118	3
11	17	1
58	113	2
166	173	1
53	171	1
55	57	1
10	56	1
58	114	1
129	140	1
64	72	1
116	163	1
100	106	2
73	188	1
29	46	1
85	106	1
12	141	2
48	123	1
48	115	1
130	169	1
144	148	2
98	103	2
96	106	1
66	89	1
5	109	2
150	152	1
53	118	2
11	111	1
138	144	1
157	163	1
107	126	3
137	148	2
19	102	1
103	110	1
35	46	1
79	105	3
88	90	1
89	105	1
116	167	1
59	92	1
6	58	1
24	43	2
76	80	1
47	67	1
22	43	1
123	140	1
112	130	1
64	142	1
48	120	1
82	129	2
138	153	1
113	141	2
68	130	1
129	165	1
120	126	2
116	153	1
113	187	1
33	126	1
94	109	1
134	139	2
75	86	1
62	163	1
175	182	1
116	121	1
57	68	1
111	116	1
111	159	1
106	109	1
62	142	1
84	140	1
86	113	2
142	152	1
64	169	1
165	166	1
3	187	1
108	117	1
4	55	2
161	164	1
15	70	1
126	162	3
56	87	1
126	154	1
108	149	1
101	110	1
68	95	1
46	70	1
16	70	1
95	158	1
87	89	1
114	119	2
145	160	1
70	149	1
99	108	1
99	105	1
7	23	1
80	85	1
8	16	1
169	188	1
106	116	1
25	54	1
166	189	1
29	65	1
31	38	1
148	153	1
97	145	1
145	161	1
11	171	1
20	60	1
175	178	1
144	188	2
30	104	1
64	71	1
109	163	1
25	42	1
130	140	1
74	130	1
38	47	1
7	56	1
24	39	1
66	76	1
48	55	1
19	24	1
21	26	1
95	104	1
64	89	1
33	37	1
4	162	1
