6	7	6
98	98	28
89	89	15
107	107	35
87	87	4
37	38	3
41	145	2
126	126	19
185	189	1
6	70	4
157	173	4
149	149	39
120	120	15
15	15	39
17	17	20
10	17	2
154	154	21
168	168	17
168	169	10
170	170	21
158	172	1
134	134	21
86	87	4
158	173	1
146	146	12
99	99	20
101	107	6
44	44	23
163	163	6
19	19	16
80	80	16
183	183	43
11	11	14
175	175	12
76	76	19
60	60	4
75	76	3
43	44	7
124	180	1
194	194	46
133	133	20
166	166	9
41	41	18
163	165	8
151	152	9
16	16	18
131	147	3
36	36	41
81	82	3
165	166	12
152	152	21
63	89	2
181	181	25
114	114	21
116	140	3
140	140	16
181	191	10
102	107	12
147	147	37
38	38	13
103	104	9
66	67	5
47	47	23
61	61	13
47	48	5
138	140	5
9	43	1
176	176	26
18	18	23
156	160	4
145	145	10
71	71	11
173	173	21
159	159	29
72	72	17
160	160	22
88	89	7
23	73	4
149	151	5
30	30	16
52	53	2
124	124	23
52	57	4
123	123	5
136	136	28
172	172	13
196	196	27
95	96	5
141	141	20
144	145	5
0	0	15
121	161	3
1	21	3
111	129	4
135	151	5
27	28	5
97	109	4
65	69	3
54	54	28
148	148	24
127	128	8
164	164	12
32	33	15
118	118	17
150	150	16
180	180	26
164	191	4
197	197	16
110	110	11
85	86	5
117	118	9
14	14	17
55	55	14
147	148	14
170	172	5
21	70	2
117	117	29
162	162	14
118	145	6
102	102	26
17	55	2
1	3	15
132	132	19
37	37	14
2	2	19
8	8	9
3	4	10
29	29	10
79	79	10
122	122	22
96	96	6
191	191	16
1	4	2
161	169	1
28	29	10
81	81	15
161	162	7
86	86	10
165	173	2
169	169	20
178	178	27
184	184	30
49	49	25
115	116	1
10	20	4
143	143	17
144	154	6
35	40	4
1	1	25
7	7	26
85	85	16
9	9	17
187	187	19
103	103	19
164	177	2
31	32	10
167	168	9
173	185	4
129	139	2
114	140	1
45	45	19
183	184	4
84	84	15
21	21	17
95	95	15
32	32	18
144	158	1
94	95	4
110	130	2
176	177	9
65	66	4
151	153	1
106	127	1
56	56	14
186	186	18
83	83	15
97	97	17
50	50	10
135	135	25
108	109	3
140	154	5
146	150	3
126	134	3
158	158	26
94	94	34
139	140	6
78	78	3
95	119	2
115	115	20
62	67	4
53	53	16
121	121	22
3	22	3
141	142	6
126	196	2
36	43	2
63	65	5
98	119	2
156	156	16
161	161	16
177	177	14
182	192	1
99	157	6
49	50	1
127	134	5
63	63	9
182	182	15
146	148	3
25	26	9
65	65	11
12	12	17
8	65	2
109	110	12
192	193	4
57	57	3
166	175	2
39	40	5
156	157	14
109	109	16
155	155	25
18	21	10
160	171	1
43	43	18
52	52	18
7	19	2
104	105	10
13	48	1
100	193	3
131	131	17
100	195	1
130	130	23
69	71	4
104	112	4
20	69	2
115	150	4
146	153	4
140	162	2
169	175	2
167	167	21
142	142	21
16	19	2
25	25	21
113	113	12
157	159	4
160	189	4
64	69	6
82	86	2
180	192	1
41	176	1
169	186	2
70	70	13
192	192	14
137	153	1
27	127	3
157	182	5
139	139	14
181	182	4
157	181	8
1	5	1
4	4	11
117	143	3
183	185	1
29	170	4
34	34	18
25	175	4
8	191	4
80	81	10
193	193	25
40	40	19
48	48	17
42	42	14
179	179	28
119	119	23
78	79	7
106	140	5
34	36	4
8	70	4
66	66	4
143	144	13
23	25	4
1	7	2
130	164	2
58	58	18
191	193	6
108	157	6
79	146	3
20	40	5
35	35	6
18	42	3
172	174	6
102	106	4
112	112	26
144	187	1
39	39	19
182	183	7
152	154	9
153	153	15
6	6	7
185	185	25
137	154	3
122	176	4
185	187	4
10	10	26
7	8	8
187	190	4
142	173	3
138	141	3
149	189	2
185	186	10
144	144	16
119	120	9
171	171	29
19	35	1
75	75	7
7	20	3
102	115	4
185	196	6
125	125	14
24	43	2
134	168	6
165	165	11
115	139	3
152	155	8
189	189	8
5	14	2
171	172	3
43	45	1
151	151	29
62	62	6
132	147	5
103	106	2
109	143	3
30	33	4
161	170	2
59	90	8
1	2	24
2	73	1
190	190	24
111	111	20
106	106	26
57	77	1
96	97	2
162	163	7
0	1	9
165	169	1
188	188	19
69	69	11
68	74	3
81	88	2
157	194	2
105	105	18
104	104	18
10	11	8
107	119	5
179	180	12
109	115	2
14	25	4
174	174	20
121	125	2
186	194	1
106	111	2
28	34	3
83	86	3
137	139	4
125	126	6
130	132	5
105	106	10
195	196	1
3	8	1
132	133	10
46	47	2
143	145	7
98	110	2
48	52	1
153	158	3
4	72	1
130	137	2
172	173	6
128	128	9
99	119	3
134	135	8
184	186	2
66	74	1
84	85	1
56	71	2
44	45	7
40	45	2
188	189	1
137	137	15
161	164	2
22	22	17
182	184	4
99	100	3
46	46	21
116	116	11
116	118	5
34	35	18
133	134	4
149	150	9
45	53	1
129	187	4
109	118	2
175	176	17
10	16	4
22	27	7
59	59	15
116	119	2
113	141	4
77	77	11
138	142	1
31	31	20
195	195	18
100	100	12
173	175	6
97	98	3
130	167	1
23	39	1
138	138	2
64	68	3
23	23	17
170	171	21
173	181	2
53	57	4
186	189	5
125	171	1
6	8	4
157	157	20
195	197	1
64	64	11
19	20	3
98	99	3
166	167	7
108	116	1
93	127	2
81	86	2
186	187	7
96	108	2
47	89	4
135	136	6
63	66	2
121	122	2
142	185	2
179	193	2
125	127	2
9	172	1
0	7	1
77	78	11
97	116	1
5	5	10
101	104	2
41	42	1
181	184	1
74	75	4
61	62	6
141	193	1
108	139	4
88	88	6
143	158	1
157	158	15
29	39	1
82	84	4
63	67	4
155	159	3
152	153	4
168	174	3
28	28	7
27	27	12
76	88	2
51	51	12
109	132	6
24	24	13
174	175	9
23	26	1
161	186	1
96	124	1
19	22	2
103	110	1
124	164	2
14	24	2
74	80	5
77	87	3
193	194	9
42	43	1
127	127	23
116	152	2
164	167	3
68	68	4
101	171	3
140	149	1
63	68	3
132	137	2
82	82	5
14	50	3
11	17	2
27	103	2
25	56	2
71	72	5
22	23	3
9	52	2
146	147	2
83	85	6
59	60	2
76	77	2
125	134	2
172	176	4
134	153	6
186	190	4
159	172	3
123	124	6
22	24	4
125	159	4
2	19	4
43	46	4
48	90	5
153	155	2
11	12	5
111	112	8
59	63	4
67	67	9
140	144	3
107	158	2
50	51	9
142	183	5
24	73	1
123	176	2
176	178	2
179	194	3
0	9	1
15	16	6
150	151	6
130	168	3
179	182	6
9	10	4
70	71	5
160	161	4
57	123	2
182	193	2
20	20	10
26	26	17
142	163	2
162	182	6
97	108	3
157	192	1
90	90	6
0	75	1
6	73	5
7	70	5
39	43	2
125	130	2
108	108	11
113	115	2
103	115	1
98	137	1
42	46	4
20	41	3
154	155	8
101	101	9
59	61	3
16	17	6
11	16	4
169	179	2
93	93	6
14	49	2
27	29	3
129	189	2
148	151	3
148	196	2
17	18	2
118	119	2
97	124	1
14	70	2
126	174	3
10	66	1
175	178	3
16	20	1
107	159	4
164	165	6
34	41	1
33	36	3
93	94	1
68	70	2
17	53	2
73	73	5
155	172	1
116	132	2
38	43	2
187	188	4
72	74	5
55	56	3
142	193	7
101	173	2
115	119	2
80	83	2
133	139	2
146	180	1
94	96	7
67	68	1
60	61	4
100	119	2
69	76	1
112	113	8
21	22	3
103	105	3
59	89	1
142	184	1
73	75	1
185	197	1
13	13	9
66	73	10
25	29	2
160	193	1
118	144	3
3	3	7
168	172	1
97	141	2
126	130	4
40	41	5
169	183	2
68	72	1
73	74	4
40	51	1
30	31	4
97	132	3
33	39	1
138	139	1
54	56	3
125	172	2
10	19	4
35	39	4
135	144	2
124	170	1
194	195	3
71	73	5
31	58	4
122	171	1
129	130	2
6	66	2
26	27	7
116	117	2
156	159	1
130	166	7
169	177	1
69	77	3
131	132	5
45	46	1
4	8	2
121	165	2
160	168	5
71	172	1
99	130	4
37	93	2
4	10	1
178	193	5
136	155	2
78	85	2
100	118	2
124	128	3
134	137	1
142	143	4
102	129	4
9	41	2
140	145	2
114	150	1
108	132	2
166	191	3
100	101	4
187	189	5
127	163	1
127	138	2
51	52	1
17	21	2
110	143	1
134	144	1
29	54	1
31	39	2
105	120	2
59	76	1
180	181	3
160	169	2
126	127	4
189	190	2
9	48	4
68	79	2
133	135	2
159	193	4
58	71	2
18	36	4
99	103	2
126	132	2
20	21	5
83	87	1
182	190	1
8	173	1
54	55	3
160	174	1
74	74	3
162	164	3
123	161	3
20	66	2
36	63	2
122	177	1
65	88	2
102	103	1
144	146	3
109	117	2
29	30	6
83	84	3
4	17	3
143	175	3
159	167	1
22	40	3
176	181	1
68	75	1
136	137	1
151	167	2
146	151	2
73	76	4
94	120	1
89	158	1
53	56	1
34	61	2
67	73	1
115	153	1
27	40	1
130	151	1
123	174	2
187	193	2
163	164	8
114	115	5
8	19	2
93	130	1
113	114	5
25	27	2
0	2	2
136	174	1
3	73	2
125	169	2
129	129	3
104	107	2
93	126	1
143	159	1
6	71	2
30	32	1
27	34	5
161	177	2
77	80	2
174	177	2
165	168	3
101	105	2
46	52	1
127	171	2
30	39	3
2	44	1
33	34	1
36	39	2
83	113	2
4	20	2
173	192	3
21	35	1
184	185	2
5	8	5
110	111	1
158	159	3
124	125	3
20	73	1
27	58	1
98	107	4
145	170	1
136	151	1
110	115	2
18	22	2
141	185	2
36	37	2
15	28	1
50	61	1
38	39	3
65	87	1
137	175	5
112	115	1
143	192	2
134	171	2
161	171	1
17	54	1
145	146	2
79	80	1
76	79	1
3	17	2
62	64	3
76	87	1
0	5	2
115	146	1
155	158	1
60	63	1
180	182	1
123	180	2
33	33	3
167	173	1
70	72	1
99	162	1
145	153	2
51	80	2
143	176	3
190	192	1
68	73	1
191	192	2
24	25	3
177	178	1
169	171	2
48	49	1
56	68	1
27	125	2
4	24	1
26	34	1
9	11	1
178	181	1
118	146	2
27	35	3
95	109	2
51	76	3
99	107	2
37	44	1
96	98	1
52	56	1
112	146	2
178	182	1
179	184	1
163	175	1
142	146	1
103	111	1
25	28	3
39	42	1
129	194	2
15	42	1
146	152	3
53	54	2
134	138	1
160	186	3
57	58	1
25	41	1
87	88	2
120	124	1
37	39	2
19	21	2
121	183	1
61	64	1
169	188	1
15	57	1
135	139	1
23	72	1
14	15	2
42	105	1
190	191	2
120	121	1
173	174	2
107	157	1
68	71	1
99	132	1
28	124	1
61	66	1
137	138	1
101	102	1
110	119	1
96	111	1
168	179	1
23	30	1
76	78	1
175	181	1
140	143	1
13	21	2
126	185	1
70	82	1
122	170	1
185	193	1
153	154	1
20	43	1
137	140	1
184	187	1
153	175	1
153	156	1
112	164	1
11	39	1
97	161	2
183	188	1
40	61	2
132	134	1
62	68	1
174	176	1
62	63	1
2	3	1
32	58	1
169	170	1
185	188	1
120	127	1
4	18	1
135	140	1
110	129	1
179	181	1
140	141	1
2	7	1
20	45	1
3	18	1
99	137	1
139	189	1
36	55	1
43	127	1
55	62	1
142	154	1
