66	66	13
46	47	5
64	64	15
5	5	16
79	80	12
47	47	21
70	72	5
9	10	11
1	1	15
31	31	27
81	84	3
24	24	15
82	82	23
49	51	5
25	25	23
88	88	18
12	14	3
85	86	6
27	27	22
79	82	6
68	68	22
11	11	21
65	77	4
4	4	44
61	63	1
48	48	21
87	87	39
57	57	25
74	74	34
7	17	11
8	8	19
76	76	18
30	30	20
5	6	8
14	15	7
21	21	14
51	51	34
72	82	1
84	84	17
19	19	29
59	59	18
51	58	3
79	84	4
8	27	2
66	67	18
71	72	5
89	90	9
78	79	7
77	77	15
61	61	17
84	85	5
23	86	2
5	13	2
3	3	11
22	23	5
75	75	30
61	76	1
72	72	16
14	14	10
9	9	22
67	68	14
30	31	9
33	33	4
69	70	13
17	18	3
27	31	4
81	82	11
72	75	5
60	61	3
76	83	1
20	22	7
16	17	2
50	50	21
61	62	7
17	17	13
4	5	7
69	69	21
71	71	16
77	78	10
0	1	4
20	25	4
54	54	17
52	53	8
85	85	15
16	28	2
34	34	8
10	10	24
80	80	19
46	46	4
2	2	17
48	50	2
53	54	9
55	55	33
23	25	1
26	26	6
12	12	14
70	70	20
35	35	2
0	0	11
20	20	7
50	77	2
49	49	14
15	16	10
26	31	2
55	74	2
78	78	11
11	22	3
8	17	2
47	49	2
5	12	6
62	62	8
83	83	19
67	67	21
57	58	5
2	3	4
75	76	6
26	27	3
19	20	2
7	7	17
74	87	4
8	9	4
14	67	1
51	74	2
86	86	28
72	73	4
6	7	7
15	15	7
10	20	3
51	62	1
64	65	4
68	69	8
53	53	9
22	28	1
8	12	2
56	56	22
24	25	4
10	13	5
67	70	3
48	54	5
17	20	1
47	56	4
60	80	3
65	65	8
28	28	18
58	66	4
76	77	14
11	47	3
63	77	1
6	12	1
49	78	1
10	12	8
25	26	5
61	75	4
72	80	4
79	79	14
56	57	7
58	60	1
48	51	7
71	80	1
49	76	5
19	32	3
73	75	3
81	81	16
29	30	2
72	81	4
27	28	4
22	22	11
11	13	1
56	65	2
57	70	7
60	63	2
48	59	1
82	83	2
56	72	2
58	58	9
46	49	2
89	89	15
86	87	3
16	19	3
52	60	3
48	75	3
30	75	1
53	55	2
47	77	1
12	13	9
21	25	2
13	25	3
59	60	4
49	52	3
51	52	3
23	24	11
8	16	2
20	78	2
54	55	6
34	62	1
61	78	2
55	63	3
62	63	3
53	77	4
12	21	1
34	35	4
48	49	2
48	66	4
58	68	1
23	23	9
64	66	5
9	16	2
55	56	2
6	6	13
63	63	8
28	29	1
47	48	4
73	73	6
50	51	10
63	64	9
22	25	1
73	74	1
50	55	4
9	17	2
5	20	2
74	75	1
52	52	4
2	81	2
8	13	2
23	34	2
51	53	4
17	24	2
62	64	3
10	11	3
13	13	14
71	74	1
58	59	2
4	22	3
21	22	1
5	7	3
47	57	2
67	73	2
80	85	1
50	53	5
88	89	1
66	75	1
53	56	2
51	59	4
20	26	2
55	71	1
46	48	3
72	77	2
73	76	1
5	33	4
56	66	2
7	13	3
6	25	3
15	27	1
52	59	2
13	14	1
60	62	1
27	29	2
60	60	7
49	66	3
80	82	2
49	54	4
77	82	2
24	27	1
1	2	3
61	66	1
7	8	3
67	69	1
11	23	4
16	18	1
72	76	1
16	47	2
73	77	1
53	57	3
49	50	4
69	89	3
49	73	1
9	11	1
5	8	1
59	64	1
25	27	1
3	21	1
9	20	1
9	12	1
81	85	1
29	29	1
65	66	1
58	61	1
59	61	1
47	50	1
78	81	1
48	56	1
72	74	1
53	60	1
50	56	1
66	86	1
78	80	3
52	55	2
22	27	1
9	25	2
57	66	1
62	66	1
46	87	1
10	26	1
16	68	1
12	17	1
71	82	1
83	84	1
90	90	1
20	21	1
8	11	1
26	32	1
80	84	1
