48	49	3
45	57	4
51	55	3
54	55	3
17	24	2
3	3	12
51	52	10
53	53	6
50	50	9
2	2	2
14	17	7
21	21	1
55	60	1
39	58	4
13	14	4
38	58	4
44	44	28
30	31	14
33	33	19
43	43	19
62	62	4
37	37	11
0	0	11
43	44	5
25	25	16
32	32	17
17	18	4
38	47	6
31	32	7
50	51	8
22	22	9
18	57	2
56	56	15
42	42	26
38	38	10
34	34	22
23	46	3
50	53	2
54	54	7
15	57	3
34	53	3
51	54	4
4	4	13
45	45	4
21	23	3
20	57	3
45	47	3
53	59	2
51	51	10
40	40	6
50	54	3
36	37	5
39	39	21
5	5	3
60	60	5
30	30	19
48	48	6
15	15	7
40	41	13
58	58	8
41	41	11
18	18	9
9	12	1
14	40	3
14	59	2
38	57	1
46	46	7
14	14	6
23	24	6
45	46	5
41	58	3
47	47	15
49	49	5
56	58	4
29	39	1
11	11	1
55	58	6
49	51	2
59	59	8
21	24	3
61	61	11
1	1	9
55	57	6
35	62	1
55	55	2
1	2	4
35	35	5
53	54	8
31	55	5
35	44	3
7	7	7
41	44	3
16	17	1
47	48	4
15	17	2
46	52	4
46	50	4
38	40	3
40	46	4
17	19	7
23	23	2
5	7	3
24	25	3
15	16	6
31	31	7
57	57	7
10	10	3
32	33	3
57	58	8
46	47	7
9	9	9
8	8	7
40	60	2
6	6	7
1	3	1
46	57	1
36	36	8
2	3	1
59	60	2
4	5	2
18	19	5
20	21	4
41	42	2
6	13	2
19	40	3
39	60	5
9	10	2
19	19	6
45	53	1
14	15	1
51	60	3
39	40	2
58	59	2
17	17	6
29	30	1
34	35	1
29	29	3
24	24	5
6	7	2
10	11	2
21	39	1
58	60	1
16	16	3
61	62	2
4	6	1
49	50	6
21	26	1
38	59	3
21	25	2
53	60	2
12	12	6
36	61	1
37	57	3
12	13	1
9	13	1
40	59	1
56	59	1
44	45	3
51	53	1
35	39	1
38	41	1
13	13	4
52	52	2
19	59	1
20	20	1
50	56	1
14	39	1
30	36	1
3	4	1
51	59	2
24	40	1
7	9	1
37	38	2
45	55	1
54	58	1
38	60	1
45	56	1
37	45	1
55	56	2
22	55	1
17	22	1
52	53	1
38	56	1
20	39	1
37	47	1
23	56	1
37	58	1
22	23	2
42	44	1
12	14	1
42	58	1
54	56	1
34	44	1
56	60	1
