121	121	5
61	62	1
9	9	5
146	170	2
15	15	4
65	65	4
16	27	1
31	31	7
71	71	1
10	14	4
84	85	2
41	41	10
140	140	4
54	125	3
96	98	5
126	126	2
102	109	1
63	109	1
157	157	5
13	13	8
71	73	2
76	76	3
146	147	3
80	80	1
109	116	4
86	122	7
52	53	3
85	97	1
163	166	2
106	106	5
156	174	3
107	108	4
98	99	2
40	45	4
120	120	6
107	107	7
38	38	7
129	168	4
167	168	6
131	131	2
147	147	3
0	31	2
151	167	2
15	40	1
166	170	3
70	72	2
154	157	2
10	16	1
21	22	3
22	23	1
6	7	5
24	24	6
15	42	3
84	180	4
45	45	5
140	147	2
6	36	4
59	59	4
21	21	2
85	85	1
61	73	2
103	104	4
153	180	5
18	23	4
40	40	3
42	42	8
57	57	4
151	151	3
105	106	2
102	102	1
27	27	3
75	88	1
44	44	5
26	28	1
49	111	3
32	32	6
39	40	2
10	10	7
38	43	3
94	94	2
118	122	2
18	26	3
155	156	2
165	165	4
104	105	1
57	180	1
75	112	4
77	77	5
83	107	1
29	39	1
14	14	7
127	128	2
89	128	1
56	56	2
25	26	3
136	179	3
5	5	9
169	169	1
159	160	3
2	17	1
134	135	1
105	105	6
88	88	5
17	39	4
175	175	1
176	176	8
90	90	5
30	31	3
173	175	5
97	97	4
132	132	3
32	112	1
18	19	4
74	74	3
68	68	8
118	119	2
87	102	1
101	121	2
113	113	3
112	112	1
137	137	4
1	1	1
16	43	2
100	120	1
16	17	2
163	164	4
26	26	5
136	152	3
79	99	2
12	13	3
18	18	4
171	173	3
159	159	2
113	141	3
78	122	2
117	117	1
17	18	7
104	104	4
78	78	1
35	44	2
12	14	3
72	72	5
112	114	1
173	173	10
43	44	3
115	180	1
56	57	4
17	17	4
120	168	2
154	156	1
94	97	2
71	120	2
93	93	1
104	106	1
7	12	2
28	28	2
25	27	5
113	117	2
135	177	2
74	75	1
9	44	2
65	68	1
141	141	2
30	30	9
134	134	5
133	133	2
94	103	4
145	172	1
156	156	6
135	135	6
22	22	6
103	107	5
60	60	1
150	151	2
136	136	8
153	153	5
118	118	7
95	95	2
13	37	1
99	99	1
15	17	1
122	122	2
0	7	1
7	9	1
3	3	4
128	128	1
61	61	1
114	114	1
81	81	1
12	12	2
59	60	1
150	150	3
154	163	8
141	142	4
108	116	3
143	144	2
25	25	4
9	10	2
24	31	1
9	11	3
73	73	5
89	89	2
19	21	1
146	146	1
50	51	4
160	161	2
39	39	8
2	16	1
89	120	1
168	169	3
124	125	1
35	37	2
3	4	5
91	92	3
33	34	3
62	79	1
143	145	1
160	160	1
83	84	1
64	80	2
168	168	6
27	35	1
172	173	2
16	28	3
135	157	4
73	74	4
20	31	1
29	35	2
84	84	1
129	146	1
81	83	2
55	55	3
96	96	6
108	108	2
99	101	1
2	5	2
49	49	2
109	132	1
33	41	3
8	15	2
93	94	2
142	144	1
13	28	1
2	10	1
0	0	5
137	149	2
5	7	5
160	163	1
115	115	1
155	158	1
129	151	1
147	169	3
175	177	1
66	68	1
33	90	1
4	9	2
92	92	4
15	45	2
106	159	4
92	94	1
116	129	2
179	179	5
66	66	2
144	145	1
125	125	4
30	42	3
13	105	2
137	178	2
23	23	5
93	95	1
135	152	3
158	159	2
21	24	2
113	115	1
88	101	1
152	163	1
8	42	1
85	98	2
152	152	1
27	42	2
29	29	2
64	64	2
66	67	3
49	65	1
71	72	1
27	28	3
4	42	1
58	90	1
104	111	1
94	122	2
0	1	2
163	163	2
6	6	1
27	72	1
18	88	1
14	16	2
108	118	2
154	158	1
24	26	1
103	103	1
25	42	1
2	24	1
55	57	1
87	123	1
54	114	2
67	67	2
154	154	3
136	160	1
63	66	1
139	139	1
4	4	1
40	113	3
126	127	1
34	34	1
18	28	2
165	170	2
0	6	1
128	130	1
138	149	1
37	38	3
177	178	1
86	86	1
86	88	1
23	24	1
3	62	1
87	87	2
145	145	3
27	43	1
142	145	1
11	11	1
29	30	2
144	144	2
174	174	3
162	162	1
152	174	3
107	180	1
134	139	1
10	12	2
157	174	1
150	158	3
25	41	2
67	115	2
123	123	4
109	109	2
98	101	2
33	36	1
138	138	1
17	33	1
16	16	3
156	158	1
37	37	1
12	16	2
1	2	2
146	152	1
82	82	2
129	129	2
55	71	1
63	63	3
4	12	1
65	75	2
90	130	1
147	148	2
5	15	2
131	132	1
35	35	3
51	51	3
137	144	2
149	176	1
165	166	2
8	8	2
158	174	1
53	53	1
2	45	1
19	19	1
132	133	1
8	21	1
35	42	1
23	25	1
7	31	1
150	170	1
82	85	1
134	174	1
172	179	1
121	168	1
120	170	1
4	20	1
166	166	2
51	99	1
7	7	2
142	143	1
33	35	1
28	29	2
40	41	1
62	74	1
3	28	1
9	20	1
132	161	1
154	165	1
62	62	1
113	120	1
28	33	1
4	8	1
12	28	1
148	149	2
101	101	2
135	165	1
42	46	1
166	167	1
18	22	1
149	149	1
41	45	1
129	152	1
79	79	1
18	34	1
36	36	1
78	79	1
3	7	1
110	110	1
127	127	1
