209	232	3
226	226	11
2	12	8
183	198	3
6	67	3
236	236	6
70	70	19
171	171	9
187	187	4
237	246	2
208	215	2
167	194	2
237	238	2
161	161	10
211	246	2
150	212	2
72	73	7
19	85	4
202	202	17
114	117	1
5	37	2
177	177	8
26	27	4
41	41	7
163	166	3
110	110	7
208	208	7
22	22	6
197	197	17
44	44	8
163	163	3
162	162	10
232	232	10
67	67	8
223	223	6
32	33	2
172	172	7
83	96	1
215	242	2
146	146	2
189	189	7
244	244	6
24	24	4
12	12	4
92	92	12
195	195	17
77	77	6
118	118	5
31	31	6
42	181	2
229	229	8
102	144	2
173	173	9
91	91	6
94	94	13
212	212	8
208	210	2
152	153	6
12	34	7
77	78	2
61	61	5
23	23	9
116	117	2
107	107	8
61	95	3
79	79	15
14	15	3
4	14	4
187	216	3
24	52	7
194	194	6
66	67	1
188	188	15
21	23	3
80	83	3
112	112	8
62	62	5
24	28	1
176	176	9
151	153	4
72	72	5
76	99	3
238	242	7
236	244	4
100	100	6
111	239	1
218	218	7
32	32	2
76	77	4
48	48	6
96	96	12
164	164	9
8	8	10
34	35	2
26	26	11
238	245	1
180	180	18
59	59	8
180	181	1
99	104	1
53	54	2
200	200	8
115	116	5
54	54	3
184	185	2
158	159	1
241	241	15
209	215	2
221	222	6
5	5	11
195	197	2
42	43	3
201	202	8
14	34	2
157	157	6
72	74	1
79	90	4
221	221	3
95	228	1
243	243	7
21	21	1
116	116	4
69	69	10
120	120	4
52	52	6
19	23	3
184	184	11
154	155	2
73	73	4
193	193	6
50	74	3
194	195	6
50	67	3
194	217	5
62	113	3
43	43	4
115	115	9
173	186	1
63	65	2
53	53	8
90	94	2
114	115	1
234	234	7
40	93	2
186	186	9
55	55	3
237	237	12
105	105	6
184	188	3
183	183	7
200	224	1
245	246	6
158	158	4
212	228	3
218	219	12
18	18	13
1	2	1
181	181	22
95	107	1
30	30	2
166	171	4
99	99	5
155	206	2
236	238	4
58	113	1
157	214	3
211	211	10
68	68	10
37	181	2
190	196	4
24	26	1
50	51	6
168	169	8
222	230	4
184	220	2
51	66	1
60	60	6
172	173	5
116	217	4
37	37	3
15	15	11
180	182	4
15	37	9
216	225	1
63	231	4
98	98	10
189	190	6
166	166	4
217	217	10
51	55	3
58	58	10
28	28	10
166	167	3
88	88	4
27	27	5
61	117	3
17	17	6
99	100	3
25	25	2
74	107	1
46	46	2
216	218	4
56	163	1
111	242	1
186	187	7
231	232	2
165	169	1
71	71	4
36	36	6
11	11	7
64	109	2
7	46	2
50	50	4
205	205	5
154	154	19
103	107	2
155	156	4
225	225	8
60	108	3
155	155	4
213	214	3
65	65	11
151	158	4
220	230	3
216	217	1
120	207	1
26	29	5
192	192	2
6	7	3
64	64	8
89	89	7
108	108	3
1	5	3
214	215	3
185	186	4
171	183	2
105	106	4
45	51	7
153	153	7
51	51	5
150	150	5
215	216	4
210	210	3
220	220	6
4	4	2
203	203	3
55	58	2
160	162	3
161	162	4
93	94	8
57	57	6
32	44	1
119	120	4
238	247	1
42	42	5
207	207	4
170	170	6
69	75	7
33	33	3
217	218	2
211	214	2
9	10	4
19	60	1
57	58	7
3	3	5
119	119	4
210	246	2
173	174	3
40	91	1
222	222	5
209	246	1
2	2	2
238	238	10
201	201	7
111	111	14
190	191	10
173	182	5
238	239	6
216	224	5
151	173	4
45	45	6
45	89	1
98	99	8
156	156	9
156	182	1
84	84	4
93	93	4
14	14	11
44	45	5
56	56	7
206	220	2
191	191	3
213	213	4
183	192	1
56	57	5
74	75	2
165	165	4
22	33	3
178	178	6
182	182	6
51	52	4
225	247	2
4	34	1
163	171	1
10	10	8
152	163	4
197	232	4
179	179	2
25	83	1
190	192	4
205	206	2
97	177	1
105	121	2
112	116	6
159	170	2
71	73	1
160	192	4
160	238	2
77	79	3
182	183	3
172	174	2
115	231	2
85	85	2
159	159	6
152	152	9
208	247	3
104	104	3
227	227	3
231	231	9
240	240	9
162	196	3
4	6	2
90	91	1
175	177	1
220	229	4
239	239	17
224	224	4
213	216	1
79	80	3
74	74	4
185	185	4
5	57	1
247	248	1
115	118	2
54	92	3
214	214	8
30	64	1
219	241	1
248	248	3
168	174	3
81	208	2
209	245	2
29	29	9
168	170	1
146	160	2
153	174	7
78	78	5
0	0	3
215	215	2
234	235	2
177	196	1
6	6	6
225	226	2
29	42	1
38	38	3
54	55	1
213	225	2
31	33	3
92	110	3
92	115	2
102	121	2
244	247	4
120	145	5
160	237	2
144	144	1
117	224	1
68	71	1
200	201	4
90	90	2
91	112	1
82	82	9
151	151	12
159	160	2
169	177	4
245	245	4
97	193	2
58	108	4
211	213	2
203	204	2
94	174	1
49	58	3
96	104	1
219	219	5
181	189	1
210	211	1
149	181	4
109	109	3
109	110	1
220	231	3
157	158	7
230	230	4
58	59	3
198	198	4
167	167	5
172	244	2
161	214	1
206	206	1
145	145	4
29	37	3
48	51	3
19	19	7
204	206	1
200	225	2
17	228	1
14	50	1
197	198	6
168	168	7
188	225	2
156	157	5
47	47	2
49	50	4
160	193	1
209	242	1
156	162	5
198	200	4
16	16	9
79	83	2
111	116	1
20	21	1
102	102	2
55	56	4
228	228	2
191	216	4
149	207	3
186	247	3
46	52	1
40	40	6
190	190	1
150	152	2
108	109	2
238	240	1
44	59	1
23	25	3
187	192	2
91	95	2
174	177	1
187	219	1
89	108	4
242	242	5
164	165	2
153	201	2
97	98	1
76	76	1
174	174	5
12	55	1
218	244	1
69	76	4
161	165	1
97	97	2
192	193	2
196	196	6
196	197	1
30	76	2
19	113	4
14	68	1
106	107	2
37	71	1
90	92	3
154	227	3
37	94	2
170	196	1
240	243	1
208	209	1
146	151	2
104	105	3
48	50	1
114	114	5
199	199	3
4	35	2
61	232	1
156	202	1
39	65	2
167	196	2
2	73	1
205	207	1
214	242	2
221	223	1
25	29	1
18	19	1
245	248	2
227	228	3
151	226	1
82	84	2
24	25	1
159	171	2
176	228	2
47	204	3
118	213	3
95	95	6
233	248	1
80	80	2
78	79	2
169	171	1
56	62	3
172	197	3
69	101	2
51	200	1
73	74	5
162	207	1
81	81	6
159	190	4
166	206	1
48	49	1
166	197	2
69	70	2
174	179	1
59	209	1
217	223	3
246	246	4
58	112	1
172	188	2
4	11	1
191	245	2
208	219	1
172	178	1
101	101	2
182	184	1
13	14	1
98	176	2
119	242	2
158	160	2
160	207	3
55	57	2
63	120	3
38	94	3
18	113	3
60	111	2
169	170	2
194	232	2
157	195	2
86	86	1
1	12	1
222	225	3
70	73	1
2	3	1
83	84	4
239	242	2
9	9	3
206	219	1
210	213	2
237	240	1
211	212	3
63	63	6
4	5	2
191	192	5
175	193	1
71	102	1
216	242	1
65	115	2
115	117	3
23	55	3
209	209	4
209	228	3
49	101	2
5	6	1
106	108	1
69	104	1
41	56	3
117	118	2
64	65	2
240	242	1
39	39	1
60	62	3
247	247	4
67	68	1
56	58	1
202	204	2
235	235	2
149	157	1
216	216	1
160	170	1
189	223	1
81	82	2
40	47	1
233	233	3
76	84	2
88	227	3
49	65	1
46	84	1
157	238	1
40	59	1
186	224	1
218	243	1
64	69	3
198	199	2
112	120	1
4	33	1
76	98	1
238	246	1
209	210	1
218	224	1
201	211	1
165	166	1
68	73	1
162	167	1
6	38	1
202	203	3
113	117	2
213	226	1
64	72	1
15	202	1
104	106	1
48	56	1
103	103	3
60	67	3
153	154	3
204	204	1
162	214	3
96	97	1
93	117	1
161	206	1
37	72	1
149	158	1
161	201	1
188	192	1
86	87	1
19	78	1
75	76	1
219	242	1
149	213	3
215	241	1
154	181	1
17	22	1
221	229	1
188	189	1
244	246	2
145	201	1
33	42	1
108	237	1
212	213	1
14	49	1
80	82	2
84	101	1
171	179	2
117	117	3
194	248	1
34	34	1
180	191	1
173	233	1
193	245	2
229	236	1
11	23	1
41	46	1
172	176	1
29	30	1
56	117	2
230	231	1
118	218	1
213	240	1
89	102	1
106	106	1
39	40	2
175	175	2
197	200	1
243	244	1
159	181	1
35	36	1
197	244	1
29	31	2
86	88	2
200	212	1
14	48	1
179	192	1
70	76	1
249	249	1
175	176	1
112	218	1
206	207	2
162	163	2
238	248	1
1	38	1
187	189	1
5	15	1
82	83	1
47	61	1
220	226	1
63	171	1
234	248	3
119	231	1
20	20	1
112	113	1
113	114	1
76	104	1
169	176	3
57	110	1
110	111	1
60	107	1
47	60	1
188	193	1
165	172	1
213	247	1
40	46	1
7	9	1
16	29	1
111	118	1
114	218	1
214	231	1
188	223	1
193	195	2
10	54	1
93	100	1
192	216	1
156	158	1
199	233	1
12	15	1
153	168	1
235	236	1
190	246	1
144	164	1
27	227	1
215	217	1
87	88	3
61	246	1
68	69	1
219	248	1
223	243	1
64	93	1
8	9	1
185	187	1
66	66	1
