37	42	3
24	24	17
4	4	4
31	31	23
18	18	5
55	55	18
49	49	13
62	62	19
47	48	9
6	21	3
58	58	9
3	36	3
20	20	10
52	53	7
9	10	3
6	6	7
53	53	20
48	48	16
9	9	12
33	33	21
7	8	8
39	39	34
1	5	4
37	37	19
36	36	21
13	15	3
7	7	6
17	17	15
45	46	18
37	40	1
34	34	24
46	46	9
35	35	27
44	44	30
30	55	1
32	32	31
44	47	5
47	47	19
2	2	6
31	47	3
48	49	5
38	38	26
10	10	8
30	31	5
35	42	2
57	58	10
41	41	16
56	56	15
31	62	3
36	37	11
11	11	3
43	43	17
1	1	5
52	52	15
3	12	2
49	50	4
51	51	26
4	5	4
2	19	2
61	61	7
16	17	5
3	3	5
33	39	3
50	58	3
60	61	3
38	40	2
31	32	2
5	5	7
15	16	4
15	15	11
41	59	1
58	60	2
1	2	4
22	22	7
40	41	7
40	40	10
51	59	1
31	42	4
42	42	17
10	11	7
30	30	9
54	54	15
44	46	3
14	15	4
13	21	3
49	52	6
11	42	1
6	7	7
36	52	4
50	50	2
43	44	6
46	51	2
18	59	2
38	54	2
3	6	4
37	43	2
45	45	11
34	35	5
32	33	1
30	48	2
57	57	6
46	47	7
0	1	3
19	19	1
18	19	1
16	16	4
39	51	1
0	0	6
8	8	2
39	40	6
11	12	4
21	22	2
50	52	2
60	60	6
44	57	4
24	41	1
23	46	4
6	22	1
36	44	3
41	53	2
57	59	2
12	19	1
45	47	1
33	43	2
30	36	2
31	33	3
51	52	2
23	23	10
47	58	2
55	56	2
1	18	2
44	56	6
59	59	12
20	22	5
32	48	1
3	4	4
40	51	2
25	26	3
53	54	5
20	21	5
50	51	3
30	47	1
23	59	3
52	58	2
45	57	1
7	12	2
12	12	2
9	41	1
38	59	4
37	59	1
57	60	1
42	43	1
42	53	2
23	24	1
8	9	6
44	45	4
55	57	2
14	47	2
32	35	1
54	59	2
40	53	2
17	19	1
42	44	2
37	38	2
6	12	1
9	17	1
24	54	5
22	23	3
5	42	2
25	25	4
47	52	2
51	53	1
47	49	1
19	21	1
29	29	1
43	61	2
33	56	2
24	56	1
32	58	2
8	59	3
42	52	2
17	18	2
45	56	1
24	29	3
39	52	2
42	47	1
17	38	1
50	57	1
2	31	1
35	36	2
29	55	1
58	59	4
1	30	1
23	42	2
32	42	1
17	58	1
50	55	1
24	25	1
