71	71	2
66	66	1
73	76	2
0	1	5
12	77	5
72	72	13
38	40	4
10	10	6
77	77	7
116	116	2
78	78	4
84	84	2
47	47	14
8	35	5
5	5	10
45	46	2
60	60	4
81	82	1
47	111	1
17	17	6
75	75	5
74	74	3
93	98	2
86	89	2
4	26	1
96	97	5
6	88	2
0	0	9
25	46	2
115	116	2
67	67	4
38	38	5
125	125	5
68	68	8
73	73	3
14	18	2
56	56	11
60	66	2
59	59	4
62	68	5
78	93	2
120	120	1
35	35	3
28	28	5
123	123	4
88	93	2
9	9	6
68	102	2
108	108	2
98	99	1
36	45	2
131	132	1
122	124	1
62	62	6
99	99	2
44	44	4
2	2	6
86	86	4
62	63	1
132	132	1
83	83	5
85	85	12
113	113	4
63	63	4
33	34	4
37	61	3
98	98	1
3	3	5
100	100	4
56	58	4
64	64	10
56	71	1
103	103	2
78	79	7
9	29	2
58	94	2
71	73	1
105	105	1
61	72	4
119	134	1
122	123	2
8	14	1
75	76	7
1	2	1
117	124	3
115	115	1
79	79	5
96	96	1
99	102	3
35	36	1
18	18	4
114	125	1
46	46	2
31	31	3
49	50	4
34	34	4
33	33	9
41	42	7
112	112	4
37	37	2
120	131	1
95	95	3
27	27	7
29	30	2
28	97	2
4	5	2
18	77	2
99	113	2
32	32	1
123	127	5
103	105	2
11	11	2
130	131	3
26	26	3
24	25	2
28	79	2
46	47	5
97	97	8
17	18	2
117	117	2
13	20	3
86	88	3
23	74	1
87	87	5
88	88	1
69	69	1
43	45	2
64	73	2
93	93	1
19	20	3
65	65	4
7	8	1
85	86	3
58	69	2
106	107	2
34	35	1
19	19	2
64	65	1
81	83	2
43	44	1
41	41	1
48	48	2
39	40	2
111	111	2
7	7	1
68	76	1
66	68	2
74	75	1
119	123	1
38	81	2
9	10	2
20	20	4
118	118	2
24	24	1
110	110	1
15	15	2
44	45	2
80	80	2
13	13	3
80	102	1
14	14	4
30	30	1
15	16	3
90	90	2
40	40	2
45	45	2
59	61	1
95	97	1
133	134	1
27	80	2
70	70	2
128	128	1
23	23	4
37	84	2
22	23	1
11	76	1
131	131	1
124	128	2
114	119	1
108	109	1
61	74	1
39	39	1
22	22	1
8	9	1
27	55	1
25	49	1
30	31	1
