63	63	7
107	108	2
102	103	1
18	20	2
153	153	1
12	13	1
40	41	2
74	74	5
122	148	1
164	164	3
90	90	6
10	136	1
149	149	9
8	8	17
51	51	9
119	121	5
8	131	2
85	167	2
92	94	2
24	137	1
83	83	6
148	149	2
154	154	9
113	113	6
22	23	2
117	117	13
100	101	6
156	156	15
88	90	5
14	83	5
126	127	1
39	39	4
36	36	13
23	23	8
140	141	9
118	152	2
24	24	4
151	151	3
122	122	5
15	17	4
117	151	2
100	100	6
119	119	3
136	136	10
101	101	3
35	44	1
37	42	4
93	94	4
3	5	2
66	66	5
123	123	8
86	88	1
4	4	8
52	52	11
19	169	2
17	17	9
128	130	2
53	53	15
1	1	3
159	159	4
20	22	2
161	161	7
16	16	3
72	72	9
130	131	8
112	112	10
109	112	3
8	10	2
91	99	3
105	106	2
11	17	2
111	112	2
99	100	1
9	10	7
121	121	7
118	119	1
6	6	4
115	169	1
64	108	2
36	37	3
44	63	2
16	18	2
34	34	5
110	110	18
13	13	11
50	50	4
166	166	7
14	15	1
142	163	1
110	113	2
140	140	4
10	10	10
93	93	4
137	137	7
135	135	2
47	47	10
168	169	1
128	128	9
33	33	1
87	89	2
41	41	6
95	95	15
69	70	2
2	2	9
99	99	6
130	130	6
2	3	2
19	19	8
97	98	2
157	157	4
80	88	3
45	49	2
147	147	4
15	15	10
168	170	1
39	66	1
143	144	4
112	113	2
48	49	6
22	22	9
26	110	6
95	96	4
108	108	10
49	49	12
1	2	2
54	54	9
14	14	12
27	27	13
114	114	3
139	139	8
57	57	3
152	153	5
40	45	1
137	138	1
10	11	1
104	105	4
124	140	1
40	40	5
7	7	3
141	141	2
20	23	3
26	26	2
11	11	14
64	74	2
121	122	3
21	127	1
55	55	4
120	121	2
37	44	3
116	116	2
17	18	3
76	76	9
19	20	1
160	160	7
123	167	3
150	150	8
122	167	6
147	149	2
58	58	1
38	38	2
155	156	2
34	35	1
24	25	5
133	133	9
45	69	1
36	53	1
44	45	2
85	85	4
10	12	4
81	112	1
18	129	2
125	125	5
3	20	2
25	25	6
158	159	3
78	78	5
107	107	4
103	103	2
1	21	2
21	21	4
68	71	2
45	45	8
153	160	3
51	52	4
26	52	2
98	98	5
101	102	2
79	80	1
0	2	1
56	63	1
4	116	3
113	114	2
69	69	2
108	109	4
69	72	2
138	156	2
56	56	5
66	69	2
71	72	3
72	73	3
109	109	6
150	151	4
87	88	6
4	14	2
110	138	2
142	142	6
27	54	4
112	114	3
23	116	1
142	143	1
12	12	3
44	44	3
144	145	4
144	144	1
132	133	3
5	5	5
130	143	1
63	65	2
9	81	3
103	104	3
123	125	2
20	21	4
18	19	1
138	138	7
102	102	3
42	42	2
28	28	3
22	137	2
139	158	1
98	99	3
35	43	2
35	37	1
122	144	2
6	7	4
63	71	1
27	28	2
81	124	7
10	17	1
43	43	10
128	129	2
161	162	4
131	131	4
49	50	2
56	64	1
62	70	2
120	142	2
13	15	1
152	152	5
120	153	3
106	106	7
80	80	1
64	64	6
18	18	5
15	16	1
127	127	4
35	92	1
21	24	1
145	145	2
155	155	3
34	53	2
78	79	2
136	137	1
70	70	4
134	134	8
130	132	2
47	48	4
145	146	3
35	35	2
128	147	4
147	159	5
104	104	4
141	166	2
86	86	2
117	118	2
114	116	1
134	135	3
17	20	2
46	47	1
84	84	1
127	128	2
73	73	4
23	24	2
111	111	6
105	105	1
8	9	1
112	126	1
138	139	1
94	94	6
55	56	4
20	20	6
144	146	4
91	93	1
126	126	4
0	0	7
42	44	1
11	12	4
25	26	1
87	87	1
41	42	2
9	9	4
66	139	2
113	125	1
3	34	1
14	17	2
64	107	1
155	157	4
110	112	2
147	164	1
2	11	1
72	90	1
9	11	4
48	48	1
122	160	1
3	3	4
78	97	2
139	141	1
156	158	2
57	62	2
35	38	1
164	165	1
46	46	5
111	137	1
45	46	1
70	71	2
23	137	1
90	91	2
7	103	2
79	85	1
169	169	1
27	53	1
67	67	1
37	37	1
82	83	1
94	95	1
54	55	1
158	158	3
165	165	1
154	157	1
149	151	1
0	1	3
170	170	1
3	4	1
143	153	1
26	27	1
27	158	1
78	93	1
156	157	2
79	79	2
149	150	1
35	86	1
147	148	1
163	163	3
40	63	1
18	22	1
6	135	1
26	117	1
115	116	2
45	139	1
125	126	1
163	164	1
43	44	1
71	90	1
159	160	1
65	108	1
129	129	1
168	168	1
121	166	1
89	89	1
50	51	1
146	146	1
83	85	1
99	102	1
62	63	1
81	89	1
122	158	1
75	84	1
5	115	1
40	70	1
95	97	1
151	152	1
