75	75	2
110	110	4
106	106	7
70	105	1
75	85	6
26	26	2
110	111	7
72	74	4
33	33	3
31	31	4
109	110	4
31	60	3
100	101	3
50	50	2
24	25	4
94	94	10
61	61	8
54	54	8
80	81	4
33	49	2
63	69	2
64	65	3
36	62	2
34	37	1
104	106	2
44	44	2
34	34	2
85	86	1
37	39	5
21	21	2
27	27	4
105	107	7
49	49	3
71	71	4
22	26	2
68	70	3
113	113	6
40	40	5
101	112	3
60	60	2
53	55	5
41	43	8
77	77	3
30	30	6
56	60	3
111	113	2
107	107	5
59	59	3
27	31	2
95	95	6
60	84	2
58	60	4
40	41	2
68	69	2
57	58	2
93	95	1
71	106	1
39	40	2
37	37	4
56	56	3
23	25	1
48	48	2
93	93	6
58	59	3
61	107	1
34	36	3
53	61	2
35	35	2
76	78	2
87	87	5
38	38	7
92	114	1
93	94	4
81	81	5
114	115	4
54	56	1
42	42	3
58	58	2
42	43	5
103	103	2
38	44	6
72	75	4
30	32	4
94	107	2
73	74	2
51	52	5
47	48	1
41	83	1
51	51	5
34	35	2
45	50	1
93	96	1
32	33	1
73	73	3
91	91	7
86	89	1
70	82	2
37	38	3
88	88	1
52	53	2
75	76	2
100	100	8
41	63	2
58	68	1
111	111	1
85	85	4
44	65	1
61	109	1
43	43	3
103	105	3
78	78	5
68	68	3
69	69	3
94	99	4
29	29	4
46	60	6
27	66	1
70	108	2
101	104	4
63	89	5
75	86	1
71	75	3
104	112	1
110	114	4
32	32	2
101	107	2
47	49	7
70	75	2
72	106	2
38	39	1
67	67	1
76	76	3
24	24	2
29	59	2
88	89	3
61	62	1
44	45	1
97	98	1
47	47	6
60	83	4
101	102	2
79	79	1
105	106	3
74	81	1
40	63	1
44	84	1
90	90	5
69	71	2
65	66	2
92	92	2
50	52	2
70	83	2
89	102	2
105	105	2
38	40	2
56	59	2
77	78	2
30	31	1
104	105	1
96	98	1
70	71	1
65	65	2
102	102	2
66	66	1
78	79	1
53	54	2
84	84	2
31	32	1
90	102	1
86	109	2
41	41	1
43	44	1
80	80	2
39	69	1
53	53	1
89	94	1
39	39	1
39	70	1
76	77	1
74	74	2
67	68	1
62	89	1
35	36	1
52	52	2
21	24	1
98	113	1
62	91	1
76	79	2
48	49	1
74	79	1
36	36	1
37	40	1
