61	64	2
45	46	2
77	77	8
21	21	6
49	50	6
64	67	4
67	68	7
40	41	6
3	3	1
26	26	6
0	1	4
38	38	8
8	8	11
42	42	4
69	71	3
52	52	7
4	4	7
72	72	5
34	60	1
34	36	2
12	20	3
61	61	13
46	46	4
34	35	5
57	57	8
29	29	6
18	19	3
38	39	2
39	42	4
71	73	2
30	30	2
62	62	12
64	64	6
31	32	3
48	48	8
59	59	3
64	68	2
13	13	4
52	54	3
48	49	4
24	24	5
6	67	1
9	11	2
69	69	4
45	45	9
63	63	14
58	58	5
20	20	4
11	11	5
47	48	2
1	5	1
47	47	9
60	61	3
9	9	8
76	76	8
37	38	6
33	33	6
68	70	4
27	28	2
65	66	4
0	0	8
50	50	8
19	19	6
32	32	6
4	41	1
13	14	4
41	41	10
26	27	5
72	74	2
25	25	2
35	41	5
39	53	7
49	49	5
23	23	10
43	44	2
66	71	3
27	27	2
54	55	8
51	53	4
10	10	11
71	71	4
49	51	1
39	39	4
2	2	3
42	43	3
3	4	2
28	29	1
56	56	4
62	63	5
65	67	1
22	24	1
22	23	2
5	5	9
45	47	3
47	49	6
43	43	4
67	67	5
28	28	10
46	47	3
10	11	4
22	25	2
45	60	3
33	34	3
5	6	3
34	39	4
57	58	2
47	61	4
0	21	3
7	7	2
73	73	5
14	14	1
68	68	1
7	12	1
35	37	1
7	10	3
41	43	2
55	56	3
12	46	2
19	43	4
36	37	1
29	34	2
31	31	7
51	54	2
30	34	1
20	21	2
58	71	1
60	60	12
41	75	1
26	29	3
18	18	8
13	41	2
54	54	4
52	55	1
54	73	2
44	47	1
3	29	3
33	35	1
40	42	1
24	27	1
1	22	1
40	40	1
54	56	1
44	44	3
72	73	1
37	37	1
54	76	3
6	7	3
8	20	3
7	42	2
35	35	3
1	2	1
39	40	1
66	67	3
55	55	3
70	72	1
44	45	3
28	50	1
65	65	5
51	52	2
60	73	1
52	53	1
38	44	1
31	35	1
7	43	2
58	59	1
64	65	1
38	40	2
25	26	1
70	70	2
67	72	1
36	39	1
32	33	1
1	1	1
22	22	3
59	72	2
12	12	1
54	59	1
53	53	2
61	63	1
75	75	1
12	19	1
40	43	1
0	2	1
21	22	2
74	77	1
59	62	1
57	66	1
74	76	1
68	69	1
23	26	1
40	54	1
74	74	1
58	73	1
