112	113	9
20	20	2
34	53	4
85	85	6
103	103	3
39	42	2
104	104	1
91	97	6
73	73	12
81	81	7
45	63	9
100	100	3
46	90	2
25	26	4
81	82	5
76	79	2
26	27	9
75	75	4
109	109	2
46	89	2
22	22	3
75	91	2
29	29	3
55	55	3
48	49	3
53	55	1
61	61	10
45	45	5
102	102	9
76	76	5
36	37	3
78	79	8
43	43	7
59	61	2
21	21	7
105	106	3
101	101	4
45	46	3
104	105	2
75	78	4
25	31	1
86	86	3
107	109	2
92	92	14
64	71	2
113	114	5
50	50	4
56	57	2
49	49	4
63	64	3
67	67	3
27	27	1
75	93	1
45	76	4
78	78	2
37	38	4
105	105	8
41	41	5
76	78	1
75	76	4
59	72	1
92	112	3
87	88	2
58	60	4
101	102	3
55	56	6
112	112	9
74	74	4
27	28	3
96	96	1
92	97	3
100	101	3
42	42	10
50	75	1
30	30	9
78	81	10
51	51	5
97	97	5
60	75	1
71	72	4
99	99	7
66	69	1
44	45	5
83	98	4
110	110	7
28	30	3
33	33	5
58	58	2
72	72	6
44	44	5
77	77	5
108	108	2
91	91	1
54	54	3
82	83	2
28	29	4
111	112	1
26	26	7
48	50	3
94	95	1
41	42	2
42	44	3
59	59	3
111	111	5
47	47	1
23	23	1
73	75	1
113	113	5
50	51	6
61	83	2
58	61	5
28	28	1
61	63	2
82	84	2
94	94	6
106	106	7
63	63	2
55	57	3
89	89	1
83	83	7
98	98	1
98	99	1
75	99	3
57	57	3
40	40	1
39	39	1
51	52	2
33	35	2
48	48	4
32	35	1
44	46	4
48	75	3
75	95	2
42	43	4
92	94	3
35	35	1
84	84	1
71	75	1
30	31	4
71	71	2
65	66	4
44	49	3
22	23	4
52	90	1
75	77	1
25	28	4
74	91	2
86	87	1
46	47	1
67	73	3
101	103	2
28	36	1
62	67	1
64	65	1
53	53	2
19	22	1
35	36	4
24	49	1
87	97	2
110	111	2
108	109	2
80	82	1
56	71	3
61	73	3
58	85	2
68	69	3
90	91	2
69	69	1
103	105	1
40	41	1
63	70	1
68	68	4
60	89	2
52	52	1
43	44	1
31	31	3
38	38	1
97	98	2
110	114	2
25	113	1
32	59	1
68	71	2
90	90	1
101	109	1
45	91	1
91	109	1
43	110	1
84	87	1
54	55	1
34	34	1
46	46	3
65	80	1
103	108	2
70	78	1
91	112	1
85	86	2
82	86	1
109	110	1
19	19	1
91	96	1
58	59	1
108	110	1
102	112	1
43	109	1
54	58	3
52	91	1
