113	127	1
76	115	4
44	44	9
113	131	3
23	24	11
24	99	1
86	86	8
0	0	4
46	47	5
102	112	1
38	38	4
102	102	11
88	94	2
39	75	2
53	53	18
42	79	3
25	25	5
48	124	5
59	63	4
2	10	2
85	85	11
16	23	5
108	108	3
60	61	13
114	114	5
32	96	3
73	74	7
42	43	1
113	114	2
20	20	11
101	126	4
97	100	3
95	95	4
78	79	3
30	30	9
64	64	6
39	39	12
92	92	4
97	97	4
54	54	7
27	31	1
71	71	4
124	129	2
61	62	1
112	114	4
78	78	6
81	84	1
12	12	12
4	4	6
120	120	12
48	48	11
127	127	8
115	115	6
109	121	2
24	25	4
22	22	7
99	99	5
77	77	5
116	116	8
88	88	2
132	133	3
54	55	2
79	79	2
107	108	4
51	53	2
62	62	5
16	19	1
70	71	8
22	71	2
41	41	13
44	67	2
102	103	2
65	65	8
10	10	4
49	49	10
40	40	8
85	86	4
7	8	2
40	83	1
7	7	5
45	46	4
103	103	8
2	17	2
29	74	2
6	6	6
104	104	9
120	125	2
23	23	12
42	42	1
100	132	2
46	57	2
14	34	7
25	26	13
55	55	11
125	127	5
2	2	3
104	105	6
63	65	2
57	57	8
13	17	3
68	70	5
72	72	3
71	125	2
90	91	1
81	82	6
85	94	2
76	80	1
126	126	8
21	21	7
100	100	6
132	132	8
131	131	6
10	69	2
78	130	3
41	45	5
94	94	15
112	112	7
16	30	6
112	113	3
68	68	6
61	94	2
15	15	1
8	8	4
19	96	1
81	81	5
75	98	4
61	61	10
70	70	3
118	119	3
11	11	3
4	96	1
108	133	1
26	30	1
74	99	2
55	104	1
101	102	1
40	119	2
26	26	9
38	79	1
43	43	12
52	53	3
115	117	1
15	23	5
109	109	9
1	1	4
80	80	7
113	113	3
121	121	7
73	73	2
21	24	2
60	86	1
18	83	2
59	108	1
84	84	4
91	92	7
89	89	4
72	74	1
124	124	6
107	107	3
92	93	6
17	17	3
125	125	5
19	113	1
116	131	2
72	127	6
74	75	2
42	77	1
58	62	4
93	93	12
105	106	2
11	82	4
29	29	10
11	12	5
105	105	2
59	81	1
96	96	3
59	66	2
56	120	1
101	101	2
96	97	1
114	118	1
60	60	4
3	3	4
28	29	1
90	90	8
53	56	2
11	66	2
38	39	1
122	122	2
109	110	4
27	27	5
15	57	3
67	68	6
10	11	1
24	24	4
59	59	4
44	45	2
16	16	1
50	50	3
41	44	3
76	78	1
87	88	4
58	59	4
55	118	2
65	66	2
41	63	1
2	30	1
106	122	1
2	8	2
73	128	1
3	9	3
106	106	3
57	125	1
23	88	1
58	58	5
52	52	2
114	116	2
49	116	1
115	120	1
96	124	2
12	31	4
73	99	1
111	111	5
80	82	3
78	82	1
78	119	3
82	82	2
62	98	1
11	92	2
9	9	2
29	31	4
41	42	6
23	97	1
63	63	8
119	119	6
110	111	1
38	85	1
41	118	1
88	89	4
31	31	5
6	7	2
56	56	5
86	87	6
28	28	1
66	67	8
19	20	1
98	99	4
103	114	1
31	84	2
103	108	3
97	128	1
82	83	3
44	119	1
27	93	1
72	98	3
15	16	2
64	65	2
63	125	1
69	69	4
103	126	2
17	18	1
96	112	1
91	91	2
100	124	2
103	125	1
124	125	2
18	18	1
29	34	3
51	51	2
24	81	3
75	102	1
127	129	1
87	87	1
7	10	1
94	95	1
59	95	1
50	53	1
48	131	1
5	5	1
14	15	1
101	114	2
13	13	3
3	4	2
17	22	1
78	114	1
110	110	1
128	128	3
13	21	1
123	123	3
18	22	1
19	19	1
67	67	3
74	90	4
16	28	1
47	47	1
130	130	2
101	103	1
33	98	1
20	21	1
78	101	1
53	54	1
117	117	4
71	72	1
22	82	2
16	26	1
90	92	1
76	117	1
111	114	1
128	129	3
49	114	1
31	32	1
125	132	2
9	13	1
38	98	2
83	84	1
84	97	2
119	120	1
11	31	1
13	18	2
18	19	1
43	118	1
78	98	1
123	124	2
46	69	1
19	26	1
33	94	1
59	60	1
76	133	1
113	126	1
111	113	1
59	64	1
66	66	1
49	52	1
114	115	1
10	14	1
122	123	1
26	27	2
42	61	2
30	31	1
49	50	2
77	116	1
48	109	1
43	46	1
106	107	1
64	86	2
114	130	1
59	65	1
97	116	2
14	21	2
46	48	1
98	98	1
19	21	1
93	95	1
103	129	1
29	30	1
103	127	1
55	69	1
5	119	1
43	45	1
12	27	1
49	53	1
100	116	1
7	9	1
48	51	2
101	129	1
84	88	1
60	88	1
45	45	1
70	78	1
33	33	1
