28	29	5
49	50	6
49	49	27
42	42	10
15	16	14
10	10	24
58	58	20
40	40	49
19	19	23
3	3	24
40	42	4
16	16	29
21	22	3
34	34	24
47	47	24
2	3	10
1	14	1
48	48	11
38	39	8
40	41	3
11	11	22
46	47	1
14	14	23
1	2	5
48	50	5
15	15	20
38	38	21
43	46	3
36	36	6
55	56	9
29	29	11
14	40	6
30	31	8
4	5	6
50	50	19
7	7	23
51	51	28
32	32	10
12	12	31
2	2	17
52	52	13
8	41	1
54	58	3
45	45	17
52	53	7
35	51	2
1	1	8
8	9	7
21	21	8
5	5	10
31	31	9
17	17	20
35	36	10
41	41	31
19	20	2
23	27	3
37	37	7
16	17	7
46	49	4
33	36	5
33	35	3
32	36	2
35	35	30
0	0	13
54	54	17
9	9	12
0	1	5
13	13	21
7	8	7
22	22	6
49	51	5
46	53	1
51	55	3
6	6	22
28	28	4
48	49	6
19	55	1
51	52	17
8	8	8
18	18	16
39	39	21
4	4	19
8	55	1
56	57	7
43	43	8
9	33	1
44	44	18
56	56	22
13	14	8
45	46	7
43	47	5
23	23	8
39	41	5
4	10	2
44	46	2
31	32	7
36	37	7
8	12	5
55	55	8
46	46	14
14	15	5
33	34	13
33	33	12
36	38	2
12	13	5
44	45	3
6	7	8
7	28	1
17	18	3
42	43	2
37	38	3
10	14	6
9	37	7
30	33	6
4	6	5
43	44	1
34	38	1
55	58	2
51	54	2
12	15	3
39	40	4
8	38	1
57	58	1
20	20	6
54	56	7
34	53	1
30	32	5
53	53	5
18	36	2
17	38	2
9	14	1
7	21	3
20	31	1
34	35	6
34	56	3
46	51	1
52	55	1
20	21	1
8	40	3
57	57	2
38	45	1
38	40	3
47	51	2
5	7	2
9	40	2
24	38	1
18	19	2
54	55	4
58	59	1
53	57	3
30	30	3
56	58	4
32	35	1
23	24	2
10	32	2
50	52	1
36	56	3
10	40	1
48	51	2
0	12	3
54	57	2
10	58	3
11	14	3
53	56	3
50	56	2
32	33	1
11	12	3
13	16	2
21	28	1
51	53	2
24	51	2
18	55	1
13	15	1
41	42	3
19	35	1
0	5	2
41	47	1
50	51	2
4	14	1
11	13	3
19	33	2
3	4	2
47	48	4
20	37	3
47	50	1
44	47	2
48	55	1
23	36	1
19	29	1
47	49	1
20	35	1
30	36	2
20	36	1
24	24	1
2	11	1
10	11	1
1	3	2
21	36	1
35	56	2
9	12	3
27	29	2
30	35	1
50	58	1
5	6	1
12	14	1
22	23	1
4	7	1
11	16	1
