96	96	6
77	90	6
130	130	6
120	120	2
74	75	3
24	24	4
101	101	4
166	166	3
75	75	5
16	37	2
165	165	7
76	77	1
14	15	6
155	156	3
114	114	8
92	92	3
77	143	3
19	31	2
167	168	4
84	84	5
108	117	2
28	28	5
147	147	14
80	80	5
36	38	1
43	43	3
121	121	7
16	16	3
76	76	7
85	85	4
146	146	4
82	82	4
53	56	2
175	175	8
178	178	8
152	152	10
98	99	1
7	8	7
26	27	1
57	57	7
105	105	3
132	132	6
87	87	7
141	141	7
89	90	4
183	183	4
39	40	5
148	148	5
79	79	4
23	123	4
117	118	2
116	116	2
100	111	1
24	56	1
135	135	2
75	83	2
123	124	4
10	13	2
164	164	7
129	129	11
61	68	4
185	185	2
159	160	3
184	187	2
55	57	2
108	108	5
163	164	5
3	3	2
85	86	2
95	95	3
91	92	5
23	23	7
118	118	4
33	35	2
105	143	3
150	150	3
64	64	2
122	129	2
75	94	1
25	25	13
186	186	2
127	128	2
78	78	5
61	61	2
112	112	7
13	13	7
8	8	3
90	90	8
126	126	6
53	54	5
162	162	3
176	176	2
138	138	1
15	17	1
25	122	2
26	32	1
46	48	1
180	180	4
77	77	5
13	139	1
26	85	1
34	34	5
173	173	2
150	151	5
1	2	3
166	169	3
27	30	2
62	62	2
139	139	4
152	154	3
67	67	3
174	174	2
145	146	1
60	60	1
122	122	2
119	119	2
113	144	1
105	149	1
143	143	4
140	140	2
159	159	2
70	107	2
6	8	3
154	154	2
33	48	1
16	43	3
27	27	2
15	42	1
88	88	3
184	184	4
151	152	4
89	89	2
104	104	6
148	152	1
4	5	1
46	47	5
29	126	1
39	39	3
38	42	2
104	105	7
40	40	5
119	122	3
140	141	1
95	96	1
169	170	2
122	124	3
156	156	1
100	100	7
177	177	1
7	7	6
130	137	1
84	85	3
118	119	3
94	94	6
20	20	4
21	21	7
158	158	3
131	131	4
56	56	4
23	124	1
96	97	2
147	148	1
14	14	5
155	155	5
128	129	2
6	9	1
41	41	5
141	143	1
3	7	2
66	66	1
40	41	1
21	22	3
80	104	2
55	55	2
71	71	5
110	111	3
77	106	2
2	2	3
125	125	5
11	13	2
124	124	1
56	57	3
10	46	2
158	162	1
153	153	4
137	138	3
6	7	2
137	137	4
36	36	3
37	37	1
123	123	4
84	95	2
157	158	1
6	6	6
161	161	3
17	18	2
58	58	2
116	144	2
5	5	3
16	41	1
33	36	4
152	153	2
150	154	1
183	184	1
90	109	2
121	122	1
105	147	3
77	79	2
26	28	1
111	111	6
106	106	2
45	45	1
83	86	3
77	78	2
149	149	4
142	142	2
103	103	3
26	26	2
12	12	4
12	18	1
38	40	1
107	131	1
122	123	1
89	91	1
103	104	2
48	48	3
128	141	2
59	64	3
47	47	1
99	99	2
154	159	3
147	149	1
101	103	1
91	91	2
188	188	2
32	32	2
4	4	1
171	188	1
47	48	2
17	17	6
30	31	1
149	150	2
78	79	1
170	170	3
46	46	1
2	8	1
181	181	1
69	70	1
121	125	2
178	183	1
116	117	3
71	99	1
61	62	1
36	37	1
164	165	2
72	73	2
13	14	1
128	128	2
63	63	3
111	112	1
166	168	2
190	190	1
129	130	2
107	111	2
54	140	1
71	130	1
111	127	3
86	86	2
53	83	1
160	162	1
100	130	1
127	129	1
97	97	2
5	6	1
18	19	1
151	151	3
113	113	1
60	64	1
105	106	1
179	183	1
2	3	1
82	83	1
106	108	2
42	42	1
58	69	1
38	38	2
23	122	2
102	103	1
33	34	1
109	109	1
154	155	1
168	168	3
71	107	1
102	102	2
22	41	1
1	1	1
166	176	1
1	123	1
114	142	1
143	144	3
155	172	1
102	143	1
90	92	1
77	83	1
107	107	1
59	62	1
182	182	1
175	178	1
27	29	1
22	126	1
33	33	1
100	101	1
125	126	1
87	88	1
110	110	1
29	29	1
27	53	1
30	36	1
114	116	1
136	137	1
181	182	1
151	155	1
97	105	1
74	74	1
