175	176	2
100	151	6
110	110	12
176	176	21
4	4	9
14	14	18
135	136	8
127	127	18
57	57	6
164	164	7
188	188	10
172	172	18
6	6	14
94	95	7
189	189	10
181	182	13
29	87	2
101	101	5
44	44	8
42	42	3
72	72	9
190	190	17
41	42	2
33	33	13
157	157	14
11	11	12
96	96	5
93	94	2
69	69	5
153	153	17
152	153	3
130	130	3
16	72	1
6	60	2
131	131	5
28	28	7
194	195	6
151	151	19
123	173	4
149	149	11
96	97	8
119	119	18
156	157	6
122	148	2
98	98	10
34	90	1
100	100	16
191	192	2
21	21	10
114	114	11
17	17	12
117	118	2
137	137	5
24	24	11
116	146	2
173	174	20
187	187	22
37	37	4
142	143	2
127	155	4
10	10	5
35	35	14
3	3	7
1	1	9
27	30	2
127	128	7
167	167	5
159	159	17
169	169	14
105	105	8
147	152	2
126	126	16
186	186	13
47	47	17
75	75	4
192	192	14
114	115	4
174	174	18
183	183	32
18	20	4
197	197	6
34	34	8
178	178	6
2	2	11
157	158	5
12	12	7
187	188	7
55	55	11
119	143	4
111	111	20
108	160	5
180	180	16
43	43	3
52	52	7
121	121	6
16	17	5
73	74	5
182	183	6
48	48	8
83	86	3
53	54	3
183	184	3
128	128	8
30	30	13
177	177	6
168	169	3
46	46	9
78	80	4
86	86	6
160	164	3
196	197	2
132	150	1
138	138	10
7	7	6
5	6	7
17	18	2
35	36	1
133	192	1
174	175	7
181	194	3
15	15	14
196	196	20
115	115	3
84	85	3
112	112	6
19	19	8
134	134	12
114	172	6
5	5	6
83	83	7
36	57	2
146	148	2
89	89	5
50	50	6
195	195	3
18	21	2
133	133	17
193	193	18
8	33	3
105	106	9
18	18	6
104	105	2
150	150	15
23	23	12
186	187	8
146	147	6
158	158	3
159	187	1
156	156	10
128	161	5
58	58	5
6	58	3
4	84	2
27	65	1
118	183	2
181	181	3
7	65	4
132	132	4
68	142	2
93	93	6
7	8	8
124	124	12
70	70	8
111	132	1
175	175	12
16	30	3
127	185	2
118	118	8
64	65	2
162	162	7
26	26	13
148	148	5
18	58	3
71	71	11
19	60	4
42	43	7
182	182	7
1	36	3
163	163	11
123	136	2
27	27	15
139	140	3
85	85	1
154	154	16
141	141	7
61	61	3
173	173	5
113	113	8
49	49	10
16	16	4
98	102	3
78	78	11
53	53	13
123	123	4
59	59	5
117	117	5
31	31	13
110	147	4
104	104	8
163	164	8
131	192	4
143	176	1
103	103	11
116	116	4
166	166	14
102	102	16
106	106	17
43	44	3
112	133	4
147	148	6
141	184	1
176	177	10
153	154	5
160	181	1
165	193	1
126	194	2
159	160	3
13	13	5
0	2	1
106	107	6
155	155	12
23	24	2
123	124	5
9	9	13
169	170	6
130	150	2
56	56	9
17	19	1
38	38	9
137	155	1
139	139	3
122	123	3
125	125	6
186	188	2
152	156	1
6	39	1
176	178	4
96	126	1
102	103	2
179	180	6
43	163	1
171	171	15
3	14	2
152	152	6
65	155	2
9	10	6
113	118	2
36	82	1
0	1	7
63	63	8
159	173	2
142	142	10
185	185	16
80	118	1
24	25	1
154	175	5
119	120	2
160	160	6
22	22	13
161	164	2
132	140	5
12	42	3
12	13	1
68	68	5
67	68	6
95	95	6
116	117	6
165	166	3
120	120	18
185	186	5
119	145	1
67	158	1
8	8	12
79	79	7
33	34	3
79	85	1
30	146	1
149	172	3
66	67	3
47	48	2
107	107	6
3	36	2
170	171	9
140	140	7
181	185	1
84	84	11
129	129	2
40	41	3
18	19	5
122	122	6
44	45	5
125	126	3
99	125	1
99	102	2
96	169	2
161	161	9
136	136	8
71	94	2
62	62	9
150	197	2
51	51	4
17	70	1
67	157	2
108	110	2
168	168	10
41	41	7
170	170	9
40	40	9
125	194	1
43	86	1
38	39	5
27	28	3
151	153	1
134	136	1
32	70	3
191	191	6
169	183	2
140	143	2
115	192	2
184	184	11
4	9	2
62	63	3
13	14	1
112	113	5
149	150	3
123	138	1
135	135	9
189	193	1
129	135	2
136	191	2
86	89	5
32	32	8
138	166	2
77	79	1
103	108	4
89	90	3
64	74	1
110	111	4
1	51	2
179	179	6
190	191	7
113	149	2
136	137	6
55	56	4
66	85	1
59	77	1
11	12	3
132	138	2
66	66	3
171	172	4
45	45	10
67	67	8
117	119	1
27	64	1
88	89	4
22	28	1
37	56	2
74	74	1
76	87	1
49	50	2
195	197	4
62	74	1
39	39	11
145	145	6
58	79	2
100	109	1
109	110	2
75	76	1
95	97	2
151	155	1
64	108	3
146	146	6
99	130	1
30	31	5
109	114	3
119	165	3
164	165	1
117	174	3
50	51	3
154	155	1
130	131	2
36	36	9
114	128	1
16	160	3
162	163	2
25	25	3
182	186	1
51	55	1
80	80	8
173	179	3
36	37	8
83	84	4
13	28	2
83	146	1
65	65	2
101	105	4
165	167	4
160	166	1
140	153	1
21	25	1
4	8	1
6	24	2
184	185	2
155	157	3
43	53	3
23	27	2
22	23	4
98	99	3
166	193	1
120	122	2
30	33	2
101	102	8
169	188	1
26	68	2
41	82	1
165	165	6
60	60	3
8	26	2
111	114	2
94	94	3
14	57	1
75	155	1
21	22	3
109	109	12
166	167	3
147	147	6
153	155	2
147	156	2
62	108	2
20	20	3
6	38	1
105	109	1
7	62	2
193	194	4
165	192	1
160	163	1
64	64	4
4	5	1
22	40	1
172	173	1
127	131	1
89	135	1
20	51	2
188	189	2
138	142	1
112	170	2
5	75	1
107	110	1
108	111	2
135	154	1
130	137	3
124	187	1
35	90	2
145	176	3
3	65	1
6	8	1
149	196	1
144	167	1
1	2	6
122	125	1
81	81	3
14	76	1
148	156	1
69	74	1
150	151	1
146	179	1
130	143	1
151	152	1
97	99	1
13	74	2
138	172	4
6	22	1
76	77	1
109	142	3
165	168	1
25	27	1
108	108	1
82	82	5
102	147	1
43	162	2
144	173	3
66	68	1
129	180	2
60	61	1
20	73	2
20	21	1
116	127	2
121	159	2
159	174	4
16	190	1
26	28	1
73	76	1
163	166	2
3	13	4
144	146	1
112	132	2
17	58	1
160	185	1
97	97	3
10	12	1
123	145	2
177	178	4
48	186	2
174	185	1
74	75	1
54	54	2
99	99	2
100	102	2
66	159	3
127	160	1
129	162	2
87	88	2
154	173	2
142	180	2
154	174	3
97	98	1
15	69	2
52	55	1
135	140	3
140	169	2
40	42	1
71	192	1
127	184	2
9	51	1
131	132	2
128	182	1
173	176	1
4	86	2
161	162	3
105	113	2
101	112	4
108	117	1
9	187	1
119	172	1
8	10	1
110	112	2
123	168	1
3	37	1
28	29	1
178	179	2
138	168	1
149	156	1
167	168	2
109	158	1
79	178	1
25	124	1
95	96	2
59	87	2
21	27	3
34	89	1
78	79	1
138	170	2
126	127	4
190	196	2
120	193	1
194	194	4
122	149	1
139	141	1
88	88	1
104	152	2
135	137	2
67	130	2
89	131	1
46	57	1
39	41	1
0	0	1
143	145	1
132	134	1
37	38	2
12	14	1
119	121	2
87	118	2
104	106	1
88	118	2
108	167	1
59	65	3
107	108	1
52	197	1
107	192	2
47	83	2
58	107	1
73	73	1
183	188	1
32	196	2
119	141	2
82	83	1
119	192	1
63	65	1
31	32	2
66	69	3
117	129	1
10	20	2
110	180	2
115	121	1
121	153	1
61	66	1
21	26	1
118	152	1
128	177	2
29	29	1
63	108	1
119	160	1
131	133	1
173	180	1
158	159	1
161	165	1
63	66	1
50	52	1
126	153	3
129	139	1
5	86	1
140	166	1
13	75	1
6	65	1
134	135	2
66	74	2
7	63	1
144	145	1
63	75	1
88	90	1
10	42	1
143	143	1
129	142	1
130	152	1
183	195	1
19	20	1
104	109	1
19	97	2
144	193	1
114	132	2
146	186	1
100	101	1
62	67	1
171	186	1
132	133	1
15	16	1
88	173	1
113	182	1
86	192	1
9	63	1
73	86	1
96	131	1
26	27	1
107	109	1
185	187	1
174	177	3
59	60	1
155	156	1
179	183	1
144	164	1
78	139	1
78	85	2
153	174	1
133	134	1
119	129	1
137	139	1
148	192	1
129	143	1
134	137	1
130	142	2
141	197	2
160	182	1
7	27	1
101	125	1
170	188	1
8	9	1
141	149	1
54	55	1
158	160	1
171	183	1
86	87	1
140	141	1
2	28	1
20	65	1
21	40	1
98	126	1
124	125	1
108	155	1
33	66	1
