73	80	2
123	123	16
46	76	6
88	88	3
26	42	3
106	106	6
67	67	12
83	84	3
63	74	4
95	116	4
79	79	7
3	5	3
59	78	2
2	2	20
53	53	29
76	76	11
90	91	5
27	27	13
114	114	7
46	47	5
20	20	17
62	62	6
86	94	7
129	129	10
65	65	6
119	119	24
64	65	2
125	126	12
81	81	17
92	92	18
38	39	6
48	48	29
0	42	1
71	71	11
52	53	11
60	60	20
102	103	5
25	26	1
42	42	16
23	32	3
46	46	10
46	48	5
57	57	16
115	115	13
30	30	9
39	39	16
32	33	5
27	29	1
3	4	13
130	130	6
43	85	2
64	64	9
11	11	17
86	86	13
5	7	4
54	54	26
103	103	26
100	100	15
1	1	13
31	55	1
73	73	11
124	131	3
49	50	5
24	24	17
105	105	8
47	47	21
24	44	5
9	10	2
21	25	2
29	48	1
86	91	1
83	83	6
132	132	13
39	44	1
62	63	4
74	74	9
43	43	16
89	89	21
107	125	3
25	25	7
102	130	6
3	3	11
93	93	5
95	95	8
26	26	13
120	120	15
50	68	3
1	8	1
115	130	1
13	13	23
51	69	3
51	52	21
8	10	1
131	133	1
108	108	13
127	127	15
118	118	8
111	112	6
128	128	10
106	107	2
58	58	17
21	21	16
24	26	1
109	109	20
115	118	7
52	52	28
15	15	12
43	44	5
104	104	15
67	68	11
16	17	4
23	25	6
45	45	25
117	118	8
111	111	15
128	131	1
50	50	44
104	105	5
10	10	9
105	106	5
17	18	3
40	40	16
57	67	2
115	131	1
69	69	12
48	49	9
112	113	8
68	68	9
38	38	8
131	131	5
94	95	8
0	39	7
6	7	4
41	42	6
1	2	3
131	132	1
96	97	6
86	96	1
31	31	14
55	55	15
19	19	3
14	15	9
79	81	5
23	23	14
49	54	2
49	49	22
66	66	14
80	80	2
60	61	3
8	8	9
78	79	2
126	130	2
12	12	15
78	78	3
113	113	8
44	44	10
94	94	18
82	82	10
29	51	2
51	94	9
70	71	13
83	85	5
100	101	7
98	118	3
124	124	14
50	51	17
59	60	7
72	72	4
24	45	5
68	70	3
28	29	4
84	84	4
69	70	8
51	51	16
72	82	2
91	91	13
44	45	16
4	12	1
44	81	1
122	122	12
129	130	3
28	28	17
26	27	3
4	23	2
56	56	14
68	69	4
111	113	4
5	5	10
112	112	7
85	93	4
126	126	7
97	97	12
31	32	6
61	62	5
33	56	8
86	88	3
55	56	3
108	128	2
116	117	9
4	90	1
110	110	21
80	81	7
84	85	8
0	0	3
1	60	3
42	43	3
113	114	6
125	125	10
6	6	10
116	116	10
54	56	4
4	58	3
24	79	3
82	83	13
86	117	2
117	117	10
107	108	2
8	9	2
123	124	3
121	121	12
30	55	4
126	127	3
85	126	2
29	30	14
65	66	8
22	22	5
29	29	13
21	44	1
66	67	1
90	90	5
6	49	1
100	102	1
89	91	5
4	45	1
121	124	3
77	77	12
117	120	2
50	94	1
100	109	2
27	30	1
42	44	2
17	17	9
2	5	6
50	52	2
99	99	8
91	95	3
14	14	5
88	89	4
89	90	17
34	34	16
9	94	7
30	31	3
100	115	2
59	59	5
100	107	4
7	7	9
4	4	5
99	115	3
97	98	4
19	21	3
51	93	2
22	23	3
74	76	1
71	72	8
66	68	7
109	110	5
59	61	1
58	64	4
4	11	1
61	63	5
52	69	4
16	18	3
4	6	1
20	50	2
3	32	3
84	87	2
18	20	3
10	12	5
53	54	6
58	59	9
2	10	1
25	62	1
83	87	4
59	65	2
98	98	14
28	30	2
33	34	10
117	119	5
23	24	3
99	100	3
89	116	1
22	26	1
84	97	1
20	21	3
124	132	2
54	55	5
107	126	3
92	115	4
101	101	4
70	70	6
113	120	1
14	16	3
57	65	3
15	16	6
0	1	5
44	47	2
90	116	1
100	129	1
76	80	1
92	93	1
109	111	2
87	87	9
75	75	2
27	48	1
15	18	3
96	96	12
88	91	2
128	129	3
8	11	3
21	22	2
0	40	3
93	94	5
130	131	4
109	112	1
18	22	2
94	116	1
80	82	3
128	130	5
39	40	7
114	116	4
4	5	4
13	15	5
63	63	9
34	75	1
22	75	1
54	73	5
42	83	1
85	88	4
91	98	8
32	32	7
100	103	1
104	118	1
101	102	2
33	33	5
76	83	3
72	81	1
9	11	2
16	21	1
27	28	5
11	12	3
115	116	4
6	52	2
61	61	5
21	28	3
63	64	4
12	13	3
87	97	1
40	41	4
129	132	2
81	82	4
91	92	5
88	98	2
5	6	1
102	102	4
51	53	1
94	122	1
90	92	4
94	106	1
87	88	1
4	92	3
124	125	4
14	18	1
72	79	1
25	27	3
18	18	4
107	107	8
73	75	2
73	77	1
133	133	1
82	90	1
67	82	1
23	75	1
62	66	2
47	76	4
76	77	5
9	9	6
85	89	3
22	25	1
114	115	1
22	27	1
100	120	2
24	25	2
88	116	1
13	14	6
116	121	2
29	31	3
103	107	1
26	41	3
19	42	3
19	20	3
95	96	1
83	89	4
127	128	4
91	93	3
13	58	1
29	55	4
72	80	4
56	57	2
61	67	2
2	4	1
101	107	1
31	40	1
0	2	4
72	74	2
120	121	1
17	22	1
41	41	3
101	103	2
70	92	1
19	78	2
16	16	3
109	128	2
38	40	1
64	74	1
88	99	1
2	6	1
64	128	1
60	65	3
19	25	2
13	16	1
40	44	3
125	128	1
2	3	2
62	64	1
100	105	1
74	75	2
64	73	1
41	43	1
75	77	2
49	132	2
85	87	2
70	123	1
81	90	3
61	64	1
128	132	1
100	116	1
32	34	1
103	118	1
52	76	2
99	101	1
62	65	2
57	58	1
79	80	2
100	104	1
26	44	1
69	71	1
13	28	1
18	60	1
84	86	1
78	81	1
28	55	2
4	7	1
30	53	1
15	17	1
17	60	1
124	128	1
14	74	2
58	60	1
110	111	1
85	85	1
96	104	1
83	86	2
45	46	1
57	76	1
113	125	2
111	132	2
54	76	1
96	99	1
110	132	1
77	79	1
20	58	1
25	28	1
53	68	1
45	47	1
60	63	1
125	131	1
100	117	1
6	58	1
97	116	1
118	119	1
65	97	1
