100	100	6
4	5	1
33	33	7
81	82	3
91	92	5
99	101	7
92	92	7
108	108	3
86	93	2
7	7	9
121	121	2
45	45	12
90	91	6
98	98	8
27	27	9
80	111	1
80	80	22
27	28	6
12	12	8
132	132	3
61	61	9
26	26	19
108	109	4
47	47	10
24	25	2
72	72	5
3	4	2
25	25	7
79	80	6
87	88	9
4	4	2
113	113	1
62	62	14
130	130	3
83	94	2
10	17	2
31	31	13
63	63	4
105	106	2
74	99	3
74	75	2
86	90	3
43	44	2
71	72	8
27	92	6
74	101	7
126	126	4
94	94	7
114	114	5
63	64	2
84	84	3
57	57	11
70	71	4
103	103	4
32	32	15
79	79	20
76	121	2
102	102	7
58	58	10
69	78	2
125	125	7
84	86	4
8	8	11
36	44	3
28	28	6
31	33	2
7	79	1
117	117	9
103	104	3
73	74	6
107	116	1
3	9	2
105	105	12
121	122	4
48	48	5
106	106	3
13	13	8
107	110	2
29	29	12
109	109	9
30	42	1
8	9	2
64	64	14
46	123	2
128	128	4
78	79	10
46	46	10
41	43	8
76	123	4
56	56	11
64	76	2
67	67	11
27	56	1
37	37	10
26	47	4
104	104	7
115	116	11
111	111	3
37	42	1
21	21	12
30	30	11
60	60	18
11	93	1
90	90	14
73	73	4
62	75	2
6	6	5
82	82	19
56	91	3
93	93	10
76	76	7
65	65	10
14	14	8
66	121	2
93	94	5
0	0	8
14	48	3
35	35	4
5	6	4
1	1	2
56	121	1
74	104	4
124	124	7
50	50	4
68	70	2
14	15	3
92	93	2
15	15	5
40	43	1
34	35	3
5	7	1
59	62	1
65	66	2
11	11	9
38	38	10
40	41	2
45	61	1
75	102	1
31	49	1
74	74	1
85	105	4
66	79	1
101	101	4
75	75	9
78	80	1
68	68	6
51	55	4
13	14	4
10	10	8
17	20	2
85	85	8
9	73	1
62	63	7
17	17	12
9	9	11
90	97	5
99	99	3
81	81	4
10	35	1
43	43	3
77	77	6
45	75	1
39	81	2
5	5	9
74	102	1
26	27	2
39	40	5
11	91	2
77	79	2
38	39	5
40	42	4
90	93	2
87	87	4
66	67	2
44	45	6
20	21	5
79	117	1
25	42	1
4	6	1
20	20	5
91	91	11
81	84	1
69	69	2
82	83	3
81	131	3
120	120	2
86	86	2
66	66	3
38	42	4
118	118	5
120	121	2
3	3	3
76	77	6
127	127	3
12	13	4
36	36	3
59	59	2
68	77	3
83	98	1
122	133	1
6	7	2
3	36	2
123	123	5
15	48	3
46	73	1
12	49	2
83	87	1
133	133	6
58	59	5
106	108	1
23	23	3
83	83	5
24	24	4
55	56	3
49	49	1
13	57	1
69	110	4
78	78	3
4	21	2
16	16	2
6	95	4
30	31	1
44	44	3
42	43	2
41	42	3
84	85	1
74	119	1
93	107	3
132	133	3
74	82	1
31	32	3
2	2	1
28	80	2
26	101	2
84	109	3
97	97	4
131	132	1
49	55	2
125	126	2
80	110	1
8	97	1
129	129	2
61	62	2
74	76	2
119	121	2
15	57	1
119	119	5
114	116	3
43	63	1
4	77	3
81	127	3
61	69	1
35	100	2
29	47	2
7	11	3
11	60	1
8	93	2
13	49	1
12	61	1
39	39	1
116	116	4
82	98	1
47	48	2
107	107	5
88	90	1
10	43	1
122	130	4
40	40	3
120	122	6
84	94	1
34	34	2
110	111	2
34	69	1
12	73	3
21	22	3
88	88	4
30	49	1
32	33	1
5	8	2
85	88	3
79	81	1
19	19	2
38	82	4
112	114	2
39	41	3
15	16	1
38	40	1
36	37	2
122	128	1
57	90	1
85	94	2
30	48	1
32	80	1
11	15	1
68	69	1
9	102	3
91	97	2
32	130	3
26	48	1
114	115	1
83	84	1
95	96	1
99	100	2
18	73	1
33	34	1
45	59	1
95	95	1
15	80	1
63	77	2
80	126	1
44	76	2
28	96	1
16	48	2
96	100	2
81	114	1
34	44	2
119	123	1
29	30	1
98	99	1
126	127	1
110	110	1
115	115	2
20	33	1
86	91	1
113	128	1
35	37	1
71	71	2
18	18	1
19	20	1
10	56	1
10	95	1
56	108	1
44	46	1
19	35	1
112	112	1
112	132	1
120	123	1
0	60	1
35	73	1
88	92	1
39	82	1
3	17	1
