31	31	15
99	99	28
37	37	17
34	34	22
36	36	5
102	102	29
63	63	14
124	125	16
69	69	18
47	47	4
80	81	7
23	23	36
18	19	11
39	39	12
106	106	17
30	30	23
78	78	17
90	90	11
74	74	23
92	94	11
133	134	12
113	113	14
142	143	4
87	87	15
70	70	12
118	137	1
91	94	3
27	27	24
124	124	34
16	33	2
118	120	7
62	62	17
42	141	5
52	52	9
9	9	6
133	133	18
92	92	11
48	50	7
83	83	31
57	57	8
120	121	9
97	97	14
49	50	3
3	3	7
16	16	7
41	41	20
53	53	16
138	138	6
49	49	10
42	42	20
88	89	9
22	22	34
118	118	9
35	35	12
128	128	34
84	85	5
127	127	18
137	137	10
19	19	38
50	51	6
11	11	7
73	73	13
119	120	12
32	32	14
2	3	7
121	121	34
35	140	1
144	144	19
61	61	3
134	134	33
85	85	12
38	39	6
59	83	7
100	100	16
17	17	15
101	103	5
91	91	9
117	117	18
90	92	2
24	24	20
41	119	3
79	80	6
99	125	7
111	111	16
5	5	10
41	144	3
39	140	4
67	67	11
97	137	2
28	28	31
16	17	8
40	41	4
40	40	10
142	142	30
99	102	4
25	25	27
123	123	25
96	114	2
31	32	4
106	120	3
39	40	7
59	61	11
72	73	8
87	89	9
42	43	6
105	105	11
11	39	3
134	135	10
20	20	24
21	22	8
54	60	4
125	130	3
16	19	4
127	128	6
10	82	1
110	110	10
96	119	5
37	38	10
141	141	27
38	38	36
66	66	19
29	29	37
145	145	8
135	138	2
81	81	14
64	65	12
85	134	1
32	33	6
13	13	7
120	120	31
101	101	25
96	117	6
95	95	20
109	110	9
13	14	8
59	82	4
126	126	19
95	134	2
2	14	3
15	121	1
140	141	8
54	59	5
115	115	12
123	124	5
20	74	1
18	18	20
57	58	6
62	63	6
26	26	16
93	93	21
112	113	2
25	26	9
54	63	1
104	120	4
58	58	6
97	98	5
82	82	7
103	107	4
110	115	2
126	127	5
6	6	8
132	132	26
8	8	8
92	93	11
28	29	5
82	135	2
99	100	7
15	15	9
125	125	30
67	68	7
48	48	12
132	133	16
58	59	1
79	79	11
114	116	2
55	55	20
137	139	5
14	15	9
127	130	12
118	123	1
51	52	8
117	118	10
113	117	3
100	101	10
1	1	4
72	72	10
54	54	12
35	37	2
59	62	2
76	76	4
91	93	3
125	126	6
25	28	3
68	68	4
83	84	3
60	60	17
54	86	2
119	119	11
35	38	1
87	117	3
48	144	3
4	4	7
33	33	12
80	80	16
114	114	19
58	75	1
77	79	2
60	61	12
96	97	8
20	21	6
20	142	4
41	42	5
116	116	7
41	139	2
74	77	3
55	74	5
53	56	2
13	75	5
102	103	14
63	66	6
88	90	6
68	139	1
37	101	4
40	54	2
10	13	3
103	103	26
127	131	3
131	131	21
76	97	5
14	16	6
131	134	5
145	146	4
21	21	9
16	74	4
15	16	8
118	136	2
51	53	5
33	34	8
136	138	8
140	140	9
89	89	3
24	142	1
74	75	9
135	135	20
50	50	12
10	10	11
143	144	10
15	17	1
121	122	7
66	67	2
141	143	1
71	81	5
141	142	12
17	107	1
17	18	2
41	63	3
130	130	19
48	51	4
139	139	15
107	109	1
42	52	2
54	56	3
136	136	10
56	58	2
21	23	1
59	59	14
19	80	2
62	139	3
122	123	11
74	79	2
104	104	21
70	71	1
75	78	8
109	109	16
35	36	7
96	136	5
127	129	15
0	1	6
26	28	3
12	12	2
62	81	1
54	73	8
74	98	4
110	111	2
85	95	5
76	78	11
49	144	1
125	131	2
113	114	7
99	141	5
118	135	8
81	85	5
18	142	4
75	76	11
61	63	2
113	119	2
125	129	3
122	122	6
34	36	2
116	117	4
96	104	4
68	69	3
92	95	2
89	90	9
132	134	3
86	118	2
64	64	3
88	119	2
31	33	3
37	141	3
56	57	1
73	74	10
0	0	1
116	118	1
24	26	5
38	99	6
85	86	5
113	115	1
103	141	1
17	105	1
108	109	2
66	96	3
3	5	3
34	35	7
112	112	6
59	60	5
82	84	7
108	110	7
27	38	1
80	100	5
12	13	3
73	75	3
110	112	6
0	16	1
94	97	3
53	55	1
71	82	1
129	129	10
56	56	13
88	88	1
96	96	3
123	125	6
18	38	4
67	138	2
81	144	1
106	108	5
118	119	8
55	56	7
107	108	6
69	70	2
8	79	3
80	82	2
54	62	1
40	83	4
11	16	1
87	103	1
81	82	1
104	143	1
113	120	4
122	124	1
13	16	2
66	71	5
121	136	3
8	14	5
105	113	1
101	102	4
105	107	4
66	139	1
119	138	1
97	104	2
35	49	2
1	17	2
65	67	5
111	112	8
71	72	6
39	53	3
49	52	1
54	55	3
66	70	3
98	98	7
137	138	8
95	96	7
143	143	21
11	12	2
123	134	2
42	123	5
27	28	2
50	52	2
93	95	1
102	143	3
125	127	3
107	107	2
61	74	2
5	6	3
10	11	4
33	38	3
53	63	4
18	29	3
39	82	4
84	136	1
61	62	4
0	136	3
26	27	5
76	77	5
57	59	1
115	116	1
69	74	2
116	122	2
82	138	1
77	78	2
24	29	3
78	79	7
48	146	2
128	129	5
8	9	11
104	106	1
95	142	1
94	94	5
103	104	1
51	51	4
118	122	1
136	137	4
76	81	1
2	2	8
4	5	3
80	99	1
57	75	1
54	92	2
58	94	3
29	101	1
37	131	3
91	92	1
85	90	2
55	57	4
15	120	1
65	65	6
75	75	4
39	56	1
23	24	8
138	139	7
86	86	4
52	53	1
38	142	3
94	95	2
135	136	2
35	59	2
22	23	1
85	94	1
29	30	7
135	139	4
128	131	3
14	21	1
120	143	2
84	84	8
21	142	1
13	103	1
14	14	3
122	141	4
90	113	1
76	79	2
27	56	2
27	39	5
15	134	1
0	3	2
6	11	2
134	140	4
12	14	2
122	143	3
116	119	1
70	72	2
121	134	3
140	144	1
17	37	3
95	106	1
40	65	1
90	133	2
97	105	1
3	4	6
19	20	2
33	49	1
33	35	1
129	130	5
71	71	2
76	117	1
75	80	5
112	114	1
59	85	1
40	90	2
97	135	1
130	135	2
30	35	5
129	135	1
33	140	1
126	129	1
36	43	1
78	83	2
119	136	2
17	19	2
19	143	1
21	74	3
39	136	2
88	91	1
0	2	1
16	119	1
136	139	2
99	101	1
104	105	1
138	140	1
62	64	2
57	80	1
106	107	3
120	122	1
66	73	1
63	64	2
72	104	1
94	135	1
120	139	1
110	113	1
97	140	1
104	107	1
81	84	1
96	106	1
117	119	1
71	140	2
65	139	1
122	126	1
82	83	1
54	71	1
39	54	2
103	113	2
31	49	2
71	73	1
96	98	1
55	60	1
17	21	1
53	65	1
102	104	2
6	10	1
90	127	2
31	37	2
19	29	2
90	91	2
78	82	2
107	121	2
128	134	2
41	140	2
41	141	3
79	98	1
32	101	1
114	117	4
29	143	1
8	136	2
40	104	1
82	118	1
21	73	2
95	97	1
16	71	2
66	72	1
130	131	1
114	115	1
86	94	1
119	137	2
87	105	1
54	74	1
9	10	1
108	108	1
131	141	1
119	141	1
30	51	1
38	81	1
77	114	1
76	95	1
121	123	1
131	132	1
133	143	2
24	25	1
88	92	1
59	138	1
16	34	1
126	141	1
78	113	2
58	60	1
77	80	1
136	140	1
62	65	1
23	25	1
26	55	1
47	48	1
77	77	1
135	140	1
