64	65	3
86	87	12
19	19	18
49	50	4
50	50	22
52	52	21
68	68	14
57	57	12
9	9	21
83	83	22
89	89	17
65	65	4
1	77	2
52	55	2
73	73	6
60	61	4
50	51	4
23	24	3
77	78	3
47	48	5
77	80	2
12	12	14
64	64	9
72	73	8
63	65	6
29	29	12
74	77	1
78	80	10
21	22	4
23	61	2
75	75	8
17	18	5
69	69	27
55	55	10
17	17	27
10	10	17
52	53	2
79	79	7
9	11	2
18	18	4
23	23	27
58	58	10
61	61	5
25	25	15
73	74	5
82	82	7
9	13	3
81	81	9
27	27	10
47	47	7
51	51	6
82	83	6
71	71	2
13	13	20
24	24	13
80	80	3
86	86	3
8	11	2
71	76	3
5	27	2
11	13	3
54	54	14
5	6	11
7	7	6
1	1	3
85	85	11
67	67	16
47	86	1
55	71	1
5	5	12
84	84	15
26	26	15
73	80	2
85	87	1
80	85	2
59	59	8
75	76	1
5	26	3
66	76	4
22	22	7
49	63	1
3	3	8
56	56	6
0	0	10
49	65	1
8	8	7
4	4	6
30	30	11
6	6	13
74	74	10
5	10	2
77	79	1
6	7	2
3	4	4
7	8	10
11	11	1
54	55	10
62	62	6
81	84	1
63	64	1
51	53	3
70	70	6
4	67	6
76	76	5
63	63	3
24	29	5
20	20	5
79	80	5
47	53	2
14	15	3
10	13	3
54	66	5
87	87	4
50	86	1
28	29	3
21	21	2
2	3	3
84	85	2
90	90	1
48	49	8
49	84	4
9	10	8
4	57	1
12	14	2
10	11	1
77	77	7
54	82	3
30	31	1
60	63	3
60	60	3
24	25	1
57	75	4
58	70	1
71	81	6
34	34	1
11	51	1
15	15	4
77	85	3
10	61	4
58	59	3
55	65	2
27	54	3
46	46	2
19	20	8
88	89	6
66	66	4
66	67	2
48	63	1
16	17	4
13	14	2
68	84	2
13	50	1
2	2	8
65	81	1
7	55	1
11	15	1
67	87	3
51	52	2
15	83	3
48	84	2
53	53	4
11	58	3
57	61	2
68	69	2
5	23	2
58	60	1
0	15	5
7	82	1
8	54	1
8	9	2
75	84	4
75	77	2
80	81	2
6	55	2
12	13	5
75	80	1
14	14	4
51	64	2
47	54	1
9	50	5
4	6	2
10	62	1
1	2	2
9	12	2
1	89	1
55	56	1
20	26	4
4	28	4
53	66	1
5	7	1
31	46	2
46	47	1
53	54	1
6	26	1
6	13	1
88	88	4
72	72	3
49	55	1
14	22	1
59	69	1
12	25	1
78	79	1
55	70	2
56	73	1
2	88	1
31	31	1
50	54	1
54	62	2
89	90	1
19	30	1
6	9	1
74	79	1
53	58	1
31	32	1
75	85	1
20	21	1
25	26	1
50	52	1
78	78	1
