123	123	19
131	131	8
11	11	8
41	42	3
86	88	6
125	125	8
73	73	24
55	71	3
107	107	16
44	44	26
114	118	3
12	41	3
42	42	11
72	103	3
83	84	15
38	38	13
72	106	6
116	116	23
28	29	5
25	28	5
127	127	19
74	74	9
48	48	8
111	111	6
16	16	11
109	109	19
46	46	16
45	46	6
30	30	22
17	97	5
66	67	3
60	60	16
25	26	4
7	25	2
73	74	9
72	72	4
23	66	2
55	55	12
53	53	24
108	108	21
80	81	11
51	53	7
39	39	15
130	130	12
43	51	1
114	115	3
68	68	11
27	50	4
54	125	6
54	55	1
89	90	8
55	56	2
67	67	17
48	51	3
42	43	1
102	102	15
113	125	1
119	119	18
114	119	13
1	1	14
39	57	1
27	27	10
45	45	15
49	49	22
70	70	17
126	126	15
50	50	14
47	47	37
125	126	3
97	97	13
2	2	14
8	9	10
102	103	2
60	61	5
107	108	2
23	34	1
71	71	8
11	12	12
121	121	19
12	12	5
43	54	3
41	41	20
51	51	27
123	125	3
110	110	16
88	119	1
72	77	5
116	118	7
109	110	2
58	58	13
40	44	2
73	103	1
106	109	7
52	55	3
52	52	25
54	113	2
10	79	2
57	58	7
2	52	3
104	105	12
122	122	10
32	32	8
126	131	1
113	114	9
117	118	4
105	105	11
74	96	3
91	91	14
9	9	8
25	25	5
21	21	17
96	96	6
133	133	6
6	6	14
118	118	20
3	6	5
117	117	20
119	128	2
15	15	15
64	64	10
100	101	6
78	96	2
28	28	11
53	57	4
104	127	2
29	62	4
120	120	15
20	20	2
56	62	5
7	49	5
59	59	8
101	101	4
99	99	17
84	84	8
120	122	1
55	103	2
124	124	11
100	108	2
44	62	2
99	102	1
106	131	6
78	99	5
79	80	5
13	13	15
46	47	8
14	23	3
84	85	7
26	26	16
52	53	8
90	91	1
29	30	8
97	115	1
108	109	3
23	23	5
14	14	7
98	98	8
7	7	22
52	57	2
17	115	3
56	56	15
114	114	23
87	91	2
57	57	10
53	55	1
86	86	2
16	17	3
69	96	2
110	111	5
88	100	7
10	10	16
18	19	5
0	1	1
111	113	3
103	103	9
92	92	14
13	101	2
68	69	5
85	92	4
53	105	1
94	94	10
115	116	12
24	24	10
100	100	7
1	2	2
19	19	13
83	83	16
3	3	9
18	18	5
65	66	8
127	129	9
89	115	4
90	90	11
65	65	10
22	22	21
40	41	3
16	18	1
70	71	16
9	26	2
12	61	1
38	39	6
57	60	1
75	76	5
96	98	1
32	33	7
102	104	3
104	104	13
60	62	1
68	79	4
122	123	2
61	61	5
99	104	3
80	80	11
28	71	1
0	0	9
115	115	13
94	118	3
75	75	14
46	57	2
1	52	2
26	47	2
95	124	1
44	56	4
14	24	2
4	4	13
47	49	2
106	106	6
8	27	3
89	89	9
52	54	3
73	96	3
98	103	4
87	88	6
51	52	5
126	127	3
38	40	11
26	27	2
43	67	5
113	113	14
25	27	2
43	43	4
69	80	1
95	95	9
67	68	6
23	45	2
128	128	10
33	51	7
122	124	2
6	7	1
85	85	11
91	92	4
1	57	2
118	128	4
98	99	4
88	88	7
28	133	1
126	130	2
81	98	1
61	104	3
12	26	2
77	77	9
40	40	11
88	90	3
43	62	1
79	79	13
31	32	3
10	22	3
45	49	3
17	18	3
57	64	2
82	82	8
11	22	1
78	79	13
4	42	1
71	72	2
99	113	1
114	129	5
47	62	1
93	93	20
76	76	16
105	106	6
66	66	11
47	57	1
62	102	6
88	89	9
29	44	2
109	111	5
27	52	3
69	110	1
48	74	2
129	130	3
48	52	1
113	126	1
82	83	1
104	126	2
61	67	1
85	87	3
94	129	2
112	112	10
56	98	2
3	40	2
33	33	7
99	114	2
104	113	2
109	131	1
99	100	5
21	22	5
95	123	6
54	54	8
63	63	12
40	42	6
18	21	3
90	94	3
53	54	4
5	5	5
68	78	4
117	129	2
82	87	1
41	45	3
68	97	1
29	29	7
22	72	3
84	87	1
48	97	1
44	45	1
87	87	2
10	11	2
116	117	2
118	119	4
13	77	1
68	77	3
76	106	3
20	69	1
81	81	9
52	106	2
20	21	2
97	101	8
77	82	4
43	60	3
112	125	2
4	40	1
85	86	4
73	75	6
69	69	4
8	8	13
10	28	2
17	17	3
73	78	1
34	37	1
110	112	1
91	95	1
12	71	1
30	34	3
9	10	2
46	48	1
9	29	3
78	78	9
92	119	5
67	79	2
124	125	4
15	18	4
33	34	1
20	96	4
46	54	3
71	76	3
91	115	1
51	57	1
50	59	1
59	60	3
62	62	5
76	77	5
63	64	3
70	95	3
11	54	4
31	31	1
99	101	3
123	124	4
126	128	3
113	129	4
92	106	2
110	131	1
45	68	3
127	130	2
83	86	6
42	97	1
19	21	1
40	73	6
100	128	1
4	5	5
22	29	3
49	105	2
49	104	3
132	132	7
100	105	1
69	71	3
31	46	2
100	130	3
99	103	1
107	109	2
88	117	1
58	59	2
3	4	7
106	107	3
41	43	1
64	70	1
41	47	1
85	88	2
86	92	2
97	98	3
49	132	1
95	96	1
97	116	2
15	86	1
66	68	1
55	72	2
88	92	1
131	132	4
12	13	1
70	72	3
34	38	3
50	133	2
11	46	3
40	74	1
0	99	3
58	61	1
43	55	1
4	7	1
43	44	1
10	26	4
77	78	3
8	45	1
48	73	3
43	66	2
126	129	1
114	116	2
119	120	1
101	105	1
76	81	1
109	112	1
11	95	1
22	23	2
15	21	1
38	47	3
27	34	1
117	119	2
19	65	1
93	118	3
64	65	3
34	34	2
50	51	3
30	31	4
21	78	3
1	51	1
23	24	3
57	63	1
93	94	1
56	66	1
53	118	1
80	85	3
63	73	2
83	89	2
46	56	1
99	130	2
41	73	1
10	12	2
118	126	3
105	119	1
47	67	1
32	51	2
117	125	1
83	88	1
25	32	1
88	127	1
43	68	1
39	49	1
29	34	3
92	105	2
86	87	4
31	44	2
69	93	2
98	101	1
34	44	2
1	56	2
60	75	1
102	127	2
81	99	1
100	129	1
96	97	2
111	112	2
13	23	1
13	105	2
27	29	2
91	116	1
14	15	1
12	106	1
28	32	1
43	63	1
101	102	1
33	39	1
39	64	1
92	93	1
56	64	1
5	17	1
125	129	1
127	128	1
31	45	1
68	98	1
18	96	1
55	67	3
48	49	1
81	82	1
65	68	1
67	77	1
22	24	1
29	31	2
82	89	1
78	81	1
125	127	1
45	54	1
59	66	1
92	95	2
101	104	1
3	5	2
50	53	1
7	8	1
83	91	1
28	48	1
97	118	1
3	42	1
78	115	1
12	45	1
45	47	1
119	126	1
2	3	2
72	107	1
86	91	1
105	125	1
