31	31	3
173	207	7
209	210	3
92	92	3
198	199	1
120	167	1
113	113	5
44	45	1
155	185	2
191	191	7
240	240	5
161	168	2
71	71	4
206	211	2
40	40	4
75	76	2
189	243	2
1	1	3
64	104	2
21	21	13
153	156	4
58	58	3
244	244	4
20	20	5
109	109	5
35	36	4
63	99	4
118	119	2
85	85	4
214	232	3
188	189	6
224	224	11
38	38	8
189	189	4
45	45	4
195	217	2
236	236	7
220	220	3
153	157	2
25	25	5
153	160	6
9	10	5
219	220	1
193	194	4
88	89	8
177	177	4
15	210	1
4	225	1
80	81	1
241	241	7
34	80	1
69	76	1
88	88	3
208	208	4
151	164	1
170	170	2
215	232	3
77	77	4
191	205	2
47	47	4
36	40	2
53	53	3
60	85	3
60	62	5
52	240	1
158	158	3
12	210	6
104	108	1
216	232	2
10	11	1
158	160	1
63	63	7
156	156	3
47	244	6
164	164	1
49	74	2
6	6	9
200	200	3
167	167	2
192	192	6
238	239	3
74	75	3
169	169	8
176	177	1
153	236	1
159	159	11
114	114	2
204	205	2
240	242	7
197	197	5
201	201	2
163	165	6
37	45	4
235	235	1
42	42	9
9	9	1
181	184	2
119	186	1
207	207	1
34	37	3
85	86	2
38	40	1
242	243	2
84	209	4
147	157	2
176	195	1
36	36	2
211	211	6
97	98	4
10	10	4
7	8	1
216	216	6
60	70	1
52	86	6
96	96	6
95	95	6
76	97	3
64	64	3
6	7	1
15	15	4
186	186	3
35	95	1
19	19	2
112	112	3
176	238	1
162	181	1
99	100	3
51	84	2
52	52	5
217	217	4
54	54	3
73	73	3
196	238	1
166	166	4
149	150	1
31	32	2
150	150	4
219	219	4
153	153	4
214	215	3
161	161	5
223	223	1
248	248	3
163	163	3
116	118	3
52	53	1
201	205	3
78	78	3
33	95	1
29	93	1
5	241	3
229	229	2
203	203	6
184	195	2
36	49	1
111	245	1
82	244	1
158	191	2
155	155	2
37	37	3
34	35	2
219	222	3
155	178	1
175	191	4
146	157	2
193	193	3
211	213	1
65	93	5
87	101	2
182	182	3
70	86	1
65	81	1
218	219	2
62	62	4
200	226	1
208	246	2
176	184	2
48	48	3
173	173	7
5	117	2
205	205	2
36	99	4
195	195	7
8	52	2
191	192	3
66	111	1
48	98	4
69	75	3
32	32	1
101	101	1
111	223	1
161	162	3
74	78	1
84	85	2
51	52	1
234	234	2
70	70	1
66	67	3
61	61	2
113	115	1
92	93	2
51	61	2
210	211	2
64	99	1
96	97	4
227	234	2
160	160	4
30	117	4
172	172	2
166	195	2
176	187	3
154	154	2
91	92	1
44	44	1
213	213	4
111	112	2
153	208	2
67	68	1
174	174	2
108	169	2
17	19	4
76	77	1
178	192	1
111	114	3
63	64	2
66	223	1
25	187	4
232	242	1
197	198	1
51	63	2
202	227	1
57	112	2
49	49	5
24	68	6
83	83	1
18	50	1
110	110	3
74	77	4
23	23	3
232	232	1
194	194	1
161	179	1
100	100	1
155	156	4
24	24	2
41	41	2
55	62	3
18	58	1
4	216	1
239	247	2
58	61	1
28	40	2
8	8	3
93	93	7
199	206	3
23	24	2
117	217	1
59	60	3
24	116	1
45	115	1
218	218	2
94	95	3
5	10	3
178	178	2
108	118	2
152	152	4
182	183	4
118	196	1
204	208	2
164	166	1
221	221	1
79	79	3
13	14	1
30	37	2
5	5	2
180	181	1
204	204	1
64	69	2
98	98	3
102	104	2
27	27	1
74	74	1
220	231	1
1	22	4
145	145	2
72	115	1
152	170	1
59	59	1
196	196	1
4	4	3
96	98	1
112	116	1
174	190	1
162	163	2
57	57	1
230	231	1
153	169	1
233	233	1
163	164	2
69	69	1
51	209	2
202	202	1
245	245	1
8	9	1
169	181	1
243	244	1
171	171	2
55	64	2
99	99	1
187	188	2
118	158	3
116	116	2
60	60	1
50	50	1
108	113	1
143	143	1
87	91	2
108	223	1
35	35	1
146	146	3
168	169	1
211	223	1
179	179	1
239	242	1
212	212	3
228	228	1
65	111	1
20	29	1
180	182	1
117	117	1
192	214	1
83	84	1
62	87	2
108	222	1
40	94	1
71	79	1
230	230	1
237	237	1
57	58	1
215	215	1
180	183	1
152	186	1
87	87	1
190	190	1
39	39	1
152	160	1
108	108	1
22	23	1
185	191	1
12	19	1
190	194	1
232	240	1
242	242	1
183	183	1
43	43	1
65	65	1
90	110	1
180	180	1
119	119	1
194	232	1
175	187	1
157	158	1
78	79	1
166	192	1
51	208	1
156	207	1
63	102	1
99	233	1
176	176	1
57	61	1
78	113	1
