83	83	4
95	96	6
93	93	25
40	40	18
76	78	2
92	92	14
68	73	3
62	63	5
31	31	10
62	62	5
27	27	4
39	39	9
53	53	17
42	42	15
39	55	4
41	42	13
91	91	12
75	75	11
100	100	12
60	60	9
56	56	5
90	90	17
91	92	8
48	48	5
43	43	4
42	43	10
59	59	13
61	61	30
35	35	15
49	49	12
68	69	3
29	29	11
49	50	15
98	98	15
69	71	1
72	72	6
96	96	5
60	61	2
67	67	16
47	47	12
99	99	3
32	34	2
46	48	10
70	70	15
52	52	20
94	95	2
69	69	13
52	53	4
32	32	9
68	68	16
66	67	3
44	44	13
88	88	6
85	88	2
71	72	12
96	98	5
79	80	4
101	101	12
93	102	3
44	46	6
64	64	11
89	89	7
51	71	2
70	71	15
63	63	14
44	66	3
58	58	7
79	79	12
58	60	4
80	80	13
47	95	3
85	85	16
34	40	2
50	51	5
55	56	5
54	54	1
48	51	1
66	66	12
78	78	6
43	67	3
93	94	8
65	66	6
73	73	12
60	84	1
49	51	2
47	50	3
90	91	6
34	35	9
51	51	6
41	41	10
100	101	5
57	58	6
97	97	3
67	72	1
38	38	3
58	59	2
83	84	1
41	89	4
33	33	17
99	100	2
63	64	4
57	57	16
45	45	8
77	78	3
60	63	3
69	70	5
89	90	4
68	70	4
39	40	3
67	68	6
81	81	9
76	76	7
45	46	1
82	84	1
84	86	14
89	92	4
86	87	2
75	76	2
63	86	1
74	74	8
47	51	2
42	100	2
34	44	1
70	72	3
92	93	6
47	48	7
45	95	3
61	62	3
71	71	10
44	65	4
95	95	4
57	59	1
44	85	2
65	65	5
55	55	8
47	49	1
34	62	1
39	62	3
92	98	3
43	44	2
56	58	3
72	73	3
79	81	3
36	36	6
38	41	2
56	57	6
26	27	3
40	41	3
53	54	6
46	47	4
87	88	1
34	34	7
64	85	2
46	46	3
98	99	4
67	69	2
94	94	3
56	59	5
35	46	2
38	60	2
60	62	3
49	83	2
25	25	2
79	89	2
74	75	3
53	57	2
96	97	1
86	86	10
47	89	2
28	28	3
86	88	1
77	77	6
56	61	2
78	89	1
61	63	1
43	66	3
76	77	2
35	36	4
89	91	4
98	100	1
25	26	1
38	51	2
86	89	1
64	65	2
51	52	1
45	97	1
71	73	2
85	86	1
95	98	2
56	62	2
79	84	1
45	51	1
48	50	2
45	96	3
84	84	1
100	102	2
23	23	2
72	77	1
29	30	1
80	83	2
44	45	2
88	92	3
87	87	1
30	30	1
40	62	1
97	98	1
98	101	1
26	26	5
93	99	1
32	42	1
101	102	2
24	24	2
36	37	2
59	61	1
47	84	1
76	79	1
102	102	1
78	79	1
59	60	1
66	81	1
