111	112	6
134	134	21
110	117	8
74	74	13
72	72	21
80	81	4
94	94	12
6	7	4
103	103	10
5	5	4
132	133	7
71	82	3
85	85	13
2	2	16
87	92	2
72	74	5
86	86	17
132	132	35
126	127	4
131	131	45
38	38	14
17	17	13
137	137	17
6	6	7
75	75	15
10	11	8
117	117	16
78	78	9
95	95	14
108	110	3
30	30	12
127	127	32
121	121	15
25	25	12
83	85	4
29	32	2
128	129	5
32	32	10
100	100	16
99	99	25
115	115	18
129	129	14
101	101	19
87	87	16
89	90	5
35	35	15
17	18	6
108	108	15
88	92	2
117	119	5
105	106	6
28	28	14
16	27	3
36	36	5
93	94	10
139	139	15
34	34	11
118	124	1
89	89	17
82	83	4
112	112	17
83	83	10
93	93	3
126	126	18
116	117	2
27	29	8
136	136	35
20	20	9
117	124	4
4	4	32
3	18	3
123	123	7
80	112	4
107	116	2
106	106	8
16	16	5
29	29	22
110	110	21
140	140	17
76	78	3
119	119	5
128	128	20
12	14	5
74	75	9
81	88	1
15	109	3
100	102	3
14	14	5
96	96	12
97	98	10
109	109	10
25	27	5
124	125	10
2	105	4
5	74	3
122	122	21
7	7	8
21	22	5
21	21	11
0	100	3
3	4	8
88	88	12
119	120	10
86	88	2
84	84	14
127	130	2
114	114	7
130	130	29
91	91	13
134	135	7
116	116	16
8	9	1
90	91	7
121	122	12
80	80	7
124	124	13
71	74	1
92	92	6
135	136	7
103	125	2
107	107	14
120	122	7
99	113	2
108	109	9
12	33	1
78	82	1
136	137	4
127	128	9
12	12	16
102	103	4
133	133	19
7	8	7
123	124	1
29	30	3
104	104	6
100	107	1
105	105	17
20	115	2
138	138	21
27	28	2
101	123	6
79	104	4
95	97	2
22	23	3
138	139	9
9	9	3
10	10	9
115	116	1
129	130	11
23	26	5
77	78	5
24	25	4
15	110	2
102	102	16
82	84	4
97	97	11
110	127	1
2	3	1
20	102	5
92	93	3
81	81	13
125	125	11
76	76	9
137	138	11
31	31	7
15	15	5
98	98	17
82	87	3
68	86	1
125	126	3
13	22	4
118	118	11
22	22	10
111	111	15
95	113	1
19	19	4
95	96	11
16	17	4
33	33	15
34	133	4
90	92	1
135	135	9
23	25	4
27	27	10
25	26	9
26	26	11
112	114	2
107	108	5
73	73	13
94	97	1
96	97	5
79	79	8
113	113	15
79	80	4
12	19	3
108	118	5
1	5	3
23	23	2
11	20	5
21	27	1
88	124	2
85	127	3
135	137	5
2	103	1
116	118	2
18	19	2
13	14	4
86	87	5
0	1	1
75	76	6
8	38	3
30	31	7
123	125	1
18	18	5
80	106	4
111	116	4
102	114	2
81	83	2
3	74	4
15	19	4
6	8	3
1	1	4
73	74	6
0	0	2
71	71	6
133	134	1
96	99	1
19	21	5
80	107	2
95	100	2
123	127	1
16	21	2
100	125	3
75	77	2
130	132	2
117	118	1
109	110	3
120	120	7
81	94	2
26	27	4
0	7	1
36	37	4
33	34	1
82	82	7
73	79	1
122	123	1
80	93	1
101	102	3
140	141	2
34	36	1
12	17	3
19	37	1
66	78	2
113	140	2
130	131	3
81	85	3
3	3	5
91	92	3
100	123	2
119	125	3
13	13	3
75	105	4
104	105	3
127	131	5
77	95	2
77	81	2
110	111	3
82	121	2
92	94	3
37	37	2
104	107	4
34	35	4
130	140	1
112	115	1
128	132	3
74	105	2
71	77	3
26	28	3
37	38	3
20	21	2
100	101	8
91	122	1
71	72	1
11	11	1
12	13	3
118	119	1
14	32	1
73	108	1
118	123	1
37	95	2
3	12	1
82	85	1
128	130	3
77	77	2
99	100	1
70	71	2
25	28	4
6	103	2
16	36	2
16	75	2
80	123	1
73	76	1
106	107	1
93	101	1
134	136	1
15	17	1
15	20	2
88	126	1
76	79	1
15	21	1
134	137	2
134	139	1
18	21	1
88	123	1
6	117	1
78	79	2
90	90	4
135	138	1
99	112	1
1	32	1
0	99	1
90	95	3
130	139	1
95	112	1
103	104	1
20	87	1
102	113	1
77	123	2
7	9	2
11	14	1
21	23	2
71	81	2
14	23	1
28	29	1
24	26	1
10	37	2
87	88	1
77	104	1
