39	39	7
64	65	1
101	101	10
29	44	1
46	46	6
49	49	11
90	91	6
75	75	6
96	107	2
30	33	4
86	86	7
33	40	4
56	56	5
66	66	9
28	28	3
35	35	6
69	71	2
71	71	7
65	66	5
59	67	2
58	89	2
23	24	2
42	43	9
31	32	9
61	61	8
62	62	11
29	40	3
24	24	6
63	63	3
98	98	6
100	100	1
106	106	6
38	38	11
79	79	6
32	32	11
92	95	3
84	84	4
81	94	2
34	41	2
31	37	1
78	100	1
37	37	8
95	95	4
101	105	5
29	29	5
41	42	5
51	52	5
27	27	3
72	72	7
52	52	8
97	97	6
97	98	5
99	99	6
87	88	2
82	86	3
40	40	5
96	96	8
89	90	4
37	39	5
51	51	9
73	80	2
54	54	3
92	92	4
82	83	4
31	31	9
55	91	3
64	64	17
44	44	6
46	47	1
45	81	4
79	80	8
53	99	2
28	30	1
41	41	10
66	83	1
21	100	1
40	43	2
98	99	3
74	74	2
25	28	2
53	53	8
53	60	3
93	100	2
74	99	2
105	105	4
102	102	4
56	57	1
72	73	12
77	77	5
59	59	11
47	47	3
81	82	1
89	89	2
94	98	1
60	62	1
46	49	1
48	95	2
88	88	10
102	104	1
36	36	20
23	23	6
26	88	1
67	68	2
94	94	8
58	59	3
43	59	2
33	34	3
103	103	4
83	83	7
20	20	7
78	78	3
77	100	1
42	48	2
78	87	3
83	84	4
103	104	1
76	76	6
68	68	7
28	29	1
24	30	1
70	70	13
42	42	3
44	59	3
80	80	7
102	105	1
50	50	9
76	101	6
43	43	1
107	107	1
67	67	4
42	79	2
57	57	5
104	104	5
73	73	6
81	81	2
69	69	4
26	40	2
19	22	2
26	26	4
82	82	8
23	74	2
46	97	1
27	83	2
71	74	1
47	48	3
82	87	1
100	101	4
27	66	1
49	97	1
58	80	2
96	106	3
26	27	1
94	95	4
79	82	2
21	32	1
37	61	2
23	25	2
45	45	2
30	37	1
84	85	2
73	88	3
45	46	1
63	85	2
23	90	2
22	22	3
32	34	1
39	41	4
30	30	5
51	103	1
55	56	1
82	92	4
31	103	1
37	43	1
78	96	1
86	87	4
100	106	2
44	67	1
83	88	3
41	44	2
22	94	1
55	75	1
69	73	2
61	62	2
61	65	1
60	60	1
55	72	1
77	106	2
45	99	1
48	48	1
33	33	2
96	105	3
34	34	6
25	31	2
33	39	2
71	72	1
42	45	1
43	44	1
55	55	6
45	56	1
62	63	2
21	91	2
71	96	3
30	101	1
58	60	1
93	93	2
82	88	1
85	86	1
66	68	1
98	105	1
30	40	1
22	25	2
55	92	1
68	69	1
19	19	1
92	96	2
27	29	2
23	30	1
30	49	2
58	58	2
22	107	1
66	78	1
44	45	1
23	92	1
27	28	2
85	85	1
57	105	1
58	77	1
99	107	2
31	33	2
78	79	2
84	86	1
57	91	1
23	50	1
78	80	1
36	39	1
76	93	1
57	59	1
77	92	1
25	29	1
50	51	1
77	102	1
90	90	1
30	43	1
77	78	1
40	41	1
22	26	1
50	56	1
21	94	1
45	79	1
94	97	1
47	49	1
