55	55	18
95	100	3
72	75	3
214	214	23
168	168	27
119	119	13
71	71	11
181	181	16
9	37	1
61	89	3
68	68	36
198	198	12
96	96	13
45	45	8
171	171	20
19	20	9
86	86	7
88	88	17
34	34	25
194	194	15
92	92	21
169	170	4
233	246	1
248	248	21
102	102	12
203	203	46
101	102	5
7	7	14
202	202	23
31	31	21
22	26	1
54	54	18
184	184	13
198	199	12
14	30	1
10	10	24
197	198	6
46	46	24
197	199	7
14	14	17
106	106	7
110	245	5
247	248	4
156	179	1
169	171	2
114	114	31
102	104	5
117	117	25
90	90	18
192	192	8
245	245	16
33	35	6
84	103	4
198	200	5
115	162	1
115	115	14
16	16	17
176	177	15
199	199	8
229	230	13
236	239	2
185	187	3
243	245	5
221	221	14
174	174	11
241	241	15
4	4	5
180	180	17
193	194	28
244	245	8
164	174	3
241	247	7
47	48	8
222	222	21
23	23	35
157	157	28
216	216	14
73	75	5
42	42	14
224	224	24
229	231	2
184	185	12
230	231	16
112	120	1
237	237	40
186	186	27
162	162	17
183	183	18
206	206	6
243	248	5
95	95	16
228	228	13
96	102	3
156	156	20
179	180	4
155	155	35
154	170	4
26	27	8
77	77	14
206	207	18
104	104	7
70	70	21
208	218	2
99	99	17
85	86	7
57	71	4
211	211	23
107	107	13
2	5	4
109	109	16
32	32	19
1	2	11
53	55	5
34	35	2
235	235	21
82	84	3
61	61	32
216	217	13
86	87	3
155	168	2
188	190	4
9	27	5
175	175	35
72	97	4
74	74	20
1	168	1
240	241	6
170	170	5
117	118	12
185	185	15
160	160	27
110	110	21
175	176	4
110	242	4
60	61	16
150	150	15
204	228	5
178	178	13
218	218	8
210	210	26
240	240	6
39	39	9
79	82	7
157	158	6
94	95	10
247	247	23
226	226	11
66	66	17
204	204	30
172	172	22
113	115	10
237	241	2
45	46	4
76	93	4
195	210	4
179	182	9
166	166	12
194	195	14
114	115	3
30	31	8
199	200	14
196	196	21
56	56	7
82	82	18
238	239	5
3	4	4
166	185	2
208	208	18
54	57	2
59	59	12
97	99	5
5	5	18
242	243	5
106	107	4
158	158	16
173	174	17
244	244	19
22	22	18
21	196	3
232	234	1
152	152	23
44	44	10
108	108	6
112	112	24
52	54	15
9	9	22
76	94	2
74	75	13
45	220	2
6	7	9
105	106	16
47	81	3
209	209	19
230	232	4
57	58	8
27	27	11
72	73	9
59	60	6
154	154	21
102	107	4
172	175	6
5	15	7
4	5	7
200	201	6
52	52	16
14	18	3
159	160	16
65	73	2
194	196	14
35	35	14
213	213	16
19	19	20
24	25	4
64	64	7
181	182	6
186	187	6
69	69	12
197	197	22
190	190	4
48	77	3
212	232	1
163	163	11
14	15	6
29	29	8
179	179	14
111	111	22
90	91	11
78	78	9
66	67	8
96	97	2
116	116	25
12	14	10
239	242	1
91	96	3
91	95	2
33	33	22
15	15	27
243	243	12
2	2	9
195	195	13
57	62	5
236	236	15
190	216	1
244	246	7
221	222	11
113	114	11
233	234	9
239	239	20
207	207	23
29	32	1
165	166	10
38	38	27
49	49	14
3	3	24
179	181	2
40	40	10
101	101	21
76	76	12
92	93	6
36	36	13
100	100	13
220	220	25
92	221	3
30	30	12
73	73	12
205	205	12
151	151	27
69	70	10
51	78	6
28	29	3
8	8	25
94	94	17
153	153	10
6	6	10
82	91	6
165	165	20
220	222	2
20	20	12
223	223	14
46	51	2
159	159	20
43	43	24
65	66	9
9	10	9
80	80	10
47	47	18
87	217	6
49	58	4
212	212	25
157	162	1
55	56	7
67	70	4
118	118	18
162	165	2
67	67	10
187	190	1
27	35	4
3	5	5
4	6	1
189	191	8
202	203	8
113	113	22
11	11	11
215	239	6
208	209	33
221	223	5
77	79	1
114	118	4
17	19	2
210	212	6
28	28	17
62	62	9
68	69	7
176	176	13
193	195	8
243	244	8
100	101	7
245	248	6
37	37	12
168	169	4
167	167	14
152	153	5
158	163	1
144	206	1
172	173	8
213	218	4
60	60	12
12	12	6
234	235	1
221	224	2
111	114	2
158	159	7
63	64	13
152	169	1
51	52	14
18	18	7
177	179	2
88	100	7
1	12	3
237	239	2
177	177	14
19	51	3
171	187	1
29	30	5
93	93	14
20	21	6
119	120	5
84	84	11
24	26	2
26	26	13
98	98	11
153	154	10
163	165	4
226	227	4
24	24	14
25	25	9
32	33	3
234	234	15
48	48	11
166	167	8
174	176	2
186	188	1
182	183	7
162	172	1
68	78	2
213	215	3
8	10	3
215	217	4
41	41	18
113	116	3
193	193	8
50	50	10
44	45	8
106	109	5
81	81	13
193	197	3
231	231	17
95	97	4
88	108	2
31	32	11
6	37	1
173	173	15
191	194	6
168	192	2
188	189	5
17	17	2
147	147	5
118	119	10
210	211	7
1	1	9
187	189	5
42	43	2
62	63	5
30	32	6
61	62	7
77	78	4
91	92	1
84	218	1
51	51	5
163	164	2
18	19	3
110	111	6
71	97	4
112	113	4
200	200	9
175	181	2
187	187	17
57	69	1
223	224	4
79	79	18
161	161	8
209	214	3
19	115	2
105	105	11
6	12	6
93	109	2
2	3	5
70	71	9
225	225	4
94	100	2
71	73	7
63	74	4
89	89	5
37	38	17
160	167	1
217	239	1
192	193	5
97	98	13
3	13	5
219	219	8
154	156	5
188	188	11
46	86	2
196	246	3
205	206	7
225	230	3
112	115	2
49	50	9
172	231	4
238	242	2
63	63	9
84	85	5
188	196	4
55	57	7
53	58	2
75	76	5
224	225	2
53	53	12
34	97	3
54	58	2
178	179	8
4	14	8
120	120	5
65	65	18
44	169	2
145	145	10
228	229	7
76	78	3
170	171	4
169	169	13
48	61	1
168	234	3
0	169	4
52	53	7
57	63	2
178	180	1
156	160	9
34	37	1
245	246	6
180	183	1
171	185	5
17	18	2
171	172	9
212	214	1
15	16	8
111	112	13
76	77	5
81	82	6
154	155	2
79	81	2
107	108	11
232	232	12
75	75	10
161	167	4
166	191	3
162	163	2
229	229	10
182	182	13
217	217	11
227	227	10
58	87	1
84	86	1
93	94	9
114	172	1
155	156	2
56	58	4
171	174	2
227	228	3
183	184	11
164	165	3
10	28	1
214	217	3
118	120	1
167	187	1
181	184	2
242	242	12
20	52	1
164	203	2
215	215	8
216	219	1
234	245	2
16	17	3
52	78	3
95	96	3
38	39	12
29	38	3
211	212	3
6	8	3
220	234	1
169	186	3
18	55	4
54	55	12
230	230	5
206	208	4
232	242	4
215	237	6
191	191	5
189	189	3
190	209	2
35	36	6
226	228	3
21	21	9
164	164	13
44	220	3
48	53	3
190	196	2
186	189	3
146	198	3
108	238	2
156	157	8
104	105	3
41	42	4
35	73	1
8	9	6
152	161	3
78	84	1
45	111	1
27	151	3
214	215	8
241	242	8
208	211	3
233	233	7
196	210	2
78	82	5
174	175	7
167	168	1
91	99	5
53	54	1
223	230	5
85	85	10
239	240	5
3	14	1
2	8	1
157	167	7
16	42	3
7	8	2
187	191	3
79	83	7
237	240	3
83	105	2
99	100	4
177	178	4
201	201	23
214	241	2
216	218	2
56	60	1
97	97	12
190	191	5
56	73	3
152	171	2
96	100	3
197	202	1
95	101	3
34	36	3
204	205	4
46	80	2
46	47	2
150	151	9
82	83	4
195	196	4
87	88	6
53	57	1
91	91	2
56	57	4
64	73	2
58	58	8
184	192	1
170	232	4
151	154	4
194	248	3
162	169	2
161	162	2
169	172	1
157	175	3
108	109	2
88	89	2
112	245	3
4	16	1
40	119	2
238	238	12
57	57	8
187	228	2
217	219	4
111	246	1
84	237	3
109	110	6
210	213	4
241	244	2
177	191	1
87	89	2
177	182	1
33	36	8
198	202	1
20	37	1
1	204	2
190	217	2
162	167	3
21	25	2
214	240	5
48	49	8
83	83	10
60	62	3
190	192	3
232	233	5
86	199	2
62	65	1
116	165	1
81	88	2
69	78	2
196	197	6
180	181	8
162	174	1
219	221	2
19	34	1
82	90	1
201	202	4
238	240	10
240	244	5
198	201	5
120	121	3
246	246	8
94	114	1
14	34	4
103	105	3
48	50	2
197	200	2
23	24	6
225	232	2
236	237	3
203	204	3
151	181	1
34	75	5
10	57	2
0	1	1
156	230	1
116	117	7
235	236	5
43	52	1
72	72	6
168	189	2
237	238	2
38	40	1
83	86	2
47	80	2
40	42	1
64	246	1
188	191	4
179	183	1
162	164	3
17	23	3
9	35	1
102	103	4
64	242	2
165	246	1
52	57	1
206	244	1
117	224	1
14	115	3
186	205	1
186	190	1
243	246	5
224	233	1
163	174	1
112	117	2
11	205	2
64	65	3
193	203	1
236	240	2
100	119	1
111	118	1
105	107	5
27	33	5
110	246	5
97	100	2
77	80	1
35	40	3
7	19	1
208	234	1
5	18	1
55	64	1
47	76	2
83	84	4
13	15	1
228	230	3
151	153	2
21	22	5
73	89	3
89	90	4
184	187	2
45	55	4
99	101	3
40	45	2
211	213	2
66	70	3
222	224	2
213	214	3
11	12	4
14	29	1
50	80	1
210	248	1
81	83	1
111	245	2
76	92	1
115	230	1
20	22	2
83	88	1
71	99	2
164	199	2
65	67	4
80	81	1
108	239	3
58	61	1
181	194	1
36	38	1
29	31	3
46	54	1
39	40	3
213	238	1
117	119	4
76	87	2
103	107	1
167	170	1
26	109	1
231	234	1
67	68	2
214	237	2
9	235	1
103	103	3
62	113	1
167	188	2
12	38	2
55	61	2
47	77	2
76	96	3
63	73	1
238	241	1
50	88	1
165	199	1
203	235	1
72	74	1
82	88	2
64	66	2
211	233	1
169	189	2
63	65	3
34	73	1
176	178	1
87	87	4
235	242	1
165	232	1
217	220	1
158	174	1
73	97	1
246	247	1
115	116	2
213	217	1
112	119	1
30	37	1
160	202	1
68	160	2
241	245	1
192	197	2
172	174	1
232	248	2
224	226	1
187	193	2
1	7	1
231	233	2
176	189	1
50	87	1
166	236	2
248	249	1
96	101	1
75	90	1
166	168	1
10	206	2
42	114	2
165	167	2
18	20	2
149	200	1
171	192	1
218	220	1
40	41	1
31	37	1
189	196	2
172	186	2
3	12	1
190	195	1
162	170	3
69	71	2
171	173	1
112	118	1
212	215	1
45	51	1
57	61	1
18	34	1
212	213	1
176	187	1
79	80	1
160	162	1
21	23	1
2	12	1
218	219	1
49	59	1
179	184	1
14	38	1
22	23	1
85	164	1
46	50	1
