53	54	13
28	28	14
24	31	4
51	52	4
100	100	7
71	71	2
43	43	8
22	22	13
78	79	4
101	101	3
65	65	13
26	26	8
52	53	7
23	23	10
49	79	4
91	91	13
93	97	1
59	59	14
94	94	14
25	27	7
62	62	10
99	99	14
71	72	2
56	56	8
54	54	15
55	55	12
79	79	10
57	58	1
50	50	19
82	83	4
77	77	11
42	42	4
52	72	3
81	81	17
104	104	20
51	53	2
84	86	1
47	48	3
81	94	3
31	31	12
26	27	8
49	49	8
67	67	20
90	90	3
38	39	4
93	93	7
59	60	3
61	61	12
74	74	11
90	91	4
96	96	7
29	33	2
106	106	10
20	20	8
64	65	8
75	75	9
54	57	3
43	44	6
76	77	9
24	24	20
86	87	5
79	104	7
60	60	8
64	64	16
70	70	9
70	74	3
45	45	6
100	102	3
53	53	15
70	72	3
85	85	9
88	88	15
32	32	4
25	25	4
95	98	5
63	63	10
56	58	3
67	68	4
29	29	5
21	26	4
80	80	6
27	28	4
98	98	5
46	49	4
76	76	18
105	105	6
44	44	5
100	101	6
33	33	15
58	58	6
75	77	2
37	37	3
31	32	10
52	52	13
95	97	3
62	63	4
46	46	2
34	34	15
78	78	10
61	89	2
51	51	4
55	56	7
82	88	6
24	33	3
68	69	6
59	82	3
84	84	2
65	93	3
59	81	2
41	41	6
87	87	4
81	82	3
75	76	9
82	82	15
21	21	15
45	46	3
61	62	4
89	104	3
92	92	10
96	97	8
102	102	16
40	40	12
44	78	2
85	87	2
94	95	6
58	59	1
33	34	3
97	97	12
55	67	2
91	92	1
25	29	1
48	48	4
21	22	2
35	36	6
39	39	8
47	47	4
32	33	4
77	78	2
103	104	3
48	49	2
43	57	3
83	83	4
66	82	5
69	69	8
73	73	7
30	31	7
57	57	7
27	27	2
66	67	4
69	70	4
94	106	4
72	72	4
97	98	1
51	69	1
49	61	2
50	51	1
45	85	3
102	103	1
89	89	7
97	99	3
28	29	6
74	75	3
73	74	2
103	103	6
62	68	4
57	87	2
24	25	3
68	92	2
101	102	6
57	59	1
24	50	2
80	81	6
104	105	2
86	86	2
88	89	1
63	91	1
23	24	1
71	73	2
47	79	3
68	68	4
99	100	2
23	50	1
37	38	3
86	88	1
32	34	3
46	73	2
40	42	1
50	73	1
38	38	3
101	104	1
72	78	3
77	92	1
29	30	3
95	95	4
41	44	2
52	58	2
42	43	1
65	68	1
36	36	1
79	80	2
66	66	1
71	91	1
57	67	2
39	42	1
67	93	1
94	98	1
48	66	1
45	49	1
70	78	1
56	57	3
55	68	1
97	103	1
65	66	2
50	91	1
27	30	1
72	75	1
47	107	1
21	55	1
63	69	1
47	78	1
68	70	1
45	73	1
93	99	1
89	90	1
85	89	1
28	30	2
70	71	1
93	94	1
70	91	1
27	29	1
22	23	2
73	75	1
21	34	1
84	85	1
82	97	1
48	61	1
53	58	1
