7	84	5
37	48	1
105	105	6
109	109	7
99	100	6
64	102	6
107	107	3
88	88	8
27	59	2
27	27	27
86	86	18
30	32	1
47	47	16
65	86	2
86	90	3
48	48	12
15	15	6
45	45	15
118	122	1
15	16	8
65	67	2
112	112	12
66	70	1
32	33	8
74	75	3
80	80	4
9	10	1
56	56	2
133	134	3
14	14	15
107	110	3
62	62	7
84	85	12
33	33	10
60	61	1
26	92	4
74	74	9
7	7	12
75	75	16
100	101	2
70	70	11
132	132	7
96	96	5
90	90	5
24	24	15
59	87	2
87	88	6
42	42	6
35	36	3
23	24	6
119	119	7
21	21	14
3	102	5
41	41	10
110	110	6
11	11	30
68	68	19
32	32	10
89	89	7
28	80	3
61	61	18
6	7	3
19	19	8
68	69	7
110	111	2
101	101	17
8	10	4
34	35	3
121	121	13
111	111	14
12	26	3
13	13	12
33	78	2
47	48	4
31	31	15
100	100	18
28	91	4
29	43	3
25	47	2
29	29	14
98	101	3
85	85	10
37	37	5
126	128	3
129	129	5
20	20	9
8	16	1
12	46	3
34	34	14
77	121	1
85	92	1
73	74	9
39	40	1
73	102	4
4	27	3
85	86	9
22	22	4
25	26	7
73	100	4
26	26	25
69	70	8
83	93	1
17	17	8
4	4	2
34	76	2
104	105	3
72	73	2
82	83	11
10	83	2
84	84	12
72	74	3
12	12	13
116	121	1
101	102	6
73	73	4
97	97	7
10	10	4
33	47	2
15	77	3
123	123	6
63	64	2
92	92	19
126	127	6
15	47	3
76	76	11
82	82	11
47	93	5
8	13	1
63	63	8
18	19	3
1	1	4
6	28	3
117	120	1
59	59	16
78	79	15
76	77	11
86	117	1
8	9	8
3	10	4
57	57	11
49	55	3
28	28	13
112	115	2
14	23	1
117	123	2
76	78	1
130	130	16
28	29	5
95	96	4
64	72	1
51	51	3
28	93	6
96	103	2
27	46	1
113	114	7
66	66	20
70	71	2
114	114	8
103	105	4
81	82	3
127	127	5
38	39	4
44	44	7
94	94	18
93	93	20
12	41	1
78	78	12
66	67	4
87	87	7
35	35	5
95	95	6
91	91	9
63	71	1
108	115	3
41	42	4
71	71	10
64	70	2
16	16	12
26	27	7
123	124	4
134	134	4
30	70	4
108	108	6
94	96	5
120	120	1
8	44	1
45	70	2
108	109	1
27	92	1
122	124	3
48	49	3
17	21	5
62	63	3
47	76	1
72	72	5
101	129	1
75	82	2
103	103	4
3	3	6
131	134	3
96	122	3
15	23	4
66	95	3
93	94	5
33	34	4
126	134	5
60	60	6
8	8	10
67	67	7
6	6	3
23	23	4
102	103	4
11	27	5
90	91	7
39	39	6
68	71	3
29	30	6
115	116	3
58	59	1
119	122	1
38	40	3
46	46	6
89	96	2
17	18	3
122	122	6
83	85	5
26	80	1
0	0	2
83	83	6
80	81	1
128	129	2
117	117	4
81	81	6
69	69	11
30	30	4
79	79	3
98	99	7
110	113	1
36	36	4
38	38	7
6	8	1
24	25	1
33	68	2
110	114	1
11	38	2
96	101	2
21	22	1
64	64	9
25	32	1
102	102	6
10	26	1
9	9	6
82	84	2
93	95	4
83	84	5
54	54	1
59	62	4
47	92	4
31	32	3
65	66	3
106	106	3
109	132	2
77	78	4
35	76	1
68	70	2
64	74	2
18	18	8
9	37	1
18	20	2
65	69	1
113	113	3
3	5	4
32	82	1
8	47	2
25	25	3
21	85	2
94	131	1
8	35	2
107	108	6
5	5	2
107	124	1
94	95	6
2	2	6
65	65	4
99	101	4
80	83	2
133	133	5
10	46	1
91	97	1
40	41	1
126	126	7
130	131	3
117	119	2
76	86	3
19	20	4
63	90	1
81	83	4
125	125	4
131	131	5
6	29	5
127	128	1
99	99	7
116	116	3
44	45	4
31	35	1
14	15	2
124	124	2
111	112	5
61	62	1
19	39	1
10	22	1
33	43	4
10	11	7
66	83	1
43	44	1
105	121	2
100	102	3
77	77	6
34	73	1
86	108	2
11	18	2
12	13	1
77	80	1
27	31	2
14	32	3
97	122	5
119	121	1
43	43	6
103	104	3
96	123	1
26	47	2
33	36	1
115	115	2
30	110	1
112	113	1
17	19	3
58	73	2
26	33	2
29	31	1
66	101	2
59	72	2
31	60	2
11	93	1
21	35	2
94	128	1
129	130	1
10	43	1
30	33	2
25	62	3
11	82	3
7	99	4
98	98	3
24	32	1
121	122	3
38	81	1
8	68	2
47	49	1
111	113	2
56	57	2
84	95	1
48	55	1
3	36	1
40	40	2
5	6	2
6	94	1
33	76	1
13	41	1
5	49	3
96	121	1
11	22	1
75	76	1
74	118	1
46	47	2
55	56	1
68	72	1
58	58	1
80	104	1
55	55	3
26	93	1
48	58	1
118	121	1
12	27	2
45	71	1
49	49	1
4	26	1
3	101	1
3	46	1
79	82	3
11	12	1
29	47	2
83	90	2
84	93	1
59	60	2
97	101	1
131	132	3
56	58	2
122	128	2
13	14	1
87	107	1
34	71	1
7	8	1
124	125	1
23	93	2
14	18	1
75	108	2
122	123	1
7	27	1
16	17	1
13	61	1
77	95	1
34	36	1
128	128	1
62	66	1
34	46	1
87	104	1
95	129	1
10	12	1
60	63	1
108	110	1
8	36	1
9	61	1
25	75	1
61	97	1
114	115	1
9	44	1
112	114	1
48	93	1
11	37	1
57	58	1
