38	39	2
175	177	4
57	57	6
168	168	12
78	79	2
13	13	7
44	44	7
9	10	3
181	181	9
33	37	1
7	7	8
128	128	4
183	183	8
99	99	8
187	187	13
154	184	4
71	71	10
137	137	12
0	1	3
127	127	19
1	1	6
153	153	9
98	98	2
17	23	1
24	36	2
173	173	15
169	185	2
189	189	10
166	167	4
101	102	1
48	48	12
107	107	6
29	29	7
30	30	5
65	65	4
53	54	3
85	86	2
81	81	3
170	172	3
109	142	4
195	195	2
123	126	2
100	100	8
95	97	3
193	193	8
12	14	3
161	167	4
37	37	6
115	116	3
65	66	1
39	39	5
181	182	13
54	55	1
134	134	12
135	135	2
148	148	21
171	171	20
15	15	10
192	193	7
140	140	13
131	131	6
40	40	4
55	56	4
115	115	11
35	35	7
29	30	4
32	143	2
10	10	5
176	177	3
172	172	12
65	68	4
5	5	7
151	151	4
165	165	11
178	178	8
177	177	10
52	52	12
112	113	2
161	161	9
155	155	18
170	171	5
24	24	10
53	53	10
102	107	4
56	56	5
139	139	4
49	49	15
170	170	9
38	38	4
133	191	2
187	188	5
121	122	2
134	135	2
18	19	2
73	74	3
16	17	1
0	0	14
34	34	7
154	154	7
166	173	2
60	61	6
180	180	9
157	157	10
63	63	2
169	180	2
68	68	10
16	16	3
109	111	4
149	176	1
20	21	1
33	33	7
160	160	7
31	31	7
125	125	7
167	167	8
63	69	4
161	175	1
18	18	3
56	57	4
12	12	15
176	176	10
84	84	2
43	43	10
42	42	2
14	15	1
193	194	5
82	84	1
155	156	7
72	74	2
120	121	4
26	26	10
60	63	2
88	88	4
163	169	1
144	145	1
86	86	3
14	14	5
169	169	2
111	111	11
2	2	2
3	16	2
5	30	2
3	4	4
188	189	1
22	22	1
34	35	1
182	192	2
186	188	4
58	58	3
141	163	5
109	112	6
9	9	8
161	163	5
132	132	5
163	163	2
80	80	7
18	22	2
72	72	8
8	21	1
104	104	10
133	133	8
113	113	7
110	112	5
118	118	4
112	112	2
191	191	9
169	170	1
4	15	2
184	184	8
194	194	10
111	113	3
10	42	5
179	179	16
159	159	1
103	104	4
138	138	4
60	60	4
58	59	3
180	181	4
129	129	4
151	152	1
97	97	1
150	150	12
196	197	1
119	119	7
122	125	1
118	119	2
157	158	1
1	2	7
114	115	3
161	169	1
93	93	1
143	144	2
17	17	1
50	53	2
156	156	3
175	176	2
17	20	3
4	4	6
70	70	8
188	188	4
149	149	9
102	102	5
47	51	2
32	32	4
182	182	8
159	160	1
74	74	4
45	45	6
14	17	4
45	46	4
79	79	2
23	38	1
2	3	2
85	85	1
158	158	5
163	164	2
42	43	1
55	55	8
28	144	1
32	183	1
23	23	1
101	125	2
141	141	10
70	71	5
124	124	7
36	36	4
152	152	1
71	72	3
59	59	1
196	196	3
133	134	5
47	48	6
194	196	1
107	108	3
86	89	3
94	94	5
79	80	2
190	191	5
187	189	1
101	101	8
7	9	3
122	122	4
70	155	1
165	166	2
153	154	1
42	60	3
41	41	3
173	175	1
49	51	1
19	19	4
48	51	2
11	11	3
121	121	3
111	112	2
46	46	3
179	180	2
171	194	4
59	66	3
146	147	3
142	143	4
174	175	1
195	197	1
54	54	4
116	116	5
105	106	2
151	153	2
3	15	2
62	62	3
19	20	2
186	187	2
174	174	5
145	146	7
101	132	1
108	108	4
148	149	2
6	6	3
11	12	3
129	160	3
59	61	2
132	191	2
166	166	6
181	192	1
6	8	7
106	109	1
186	186	2
109	110	1
94	96	3
124	129	3
48	50	1
100	117	1
27	27	1
197	197	1
136	136	4
143	145	2
23	33	1
146	146	2
124	134	1
153	178	1
170	173	4
10	11	6
120	136	1
149	150	1
66	68	1
138	139	1
119	120	3
132	133	2
130	130	2
61	109	2
20	20	4
115	119	2
136	137	2
0	73	3
143	143	5
21	24	2
11	41	1
6	9	3
142	142	3
20	38	1
161	164	2
157	159	1
130	143	2
100	101	2
161	174	2
70	76	1
177	179	1
43	44	2
139	140	3
78	81	1
27	31	1
173	174	3
159	165	1
180	188	2
15	16	1
97	119	1
70	86	1
150	194	1
4	5	5
106	106	2
64	64	1
78	78	1
120	120	2
132	136	2
165	174	2
152	153	4
61	70	2
181	185	2
21	38	2
30	33	1
5	8	1
106	140	1
135	136	3
141	146	1
182	183	5
130	132	3
107	124	3
51	51	1
25	25	5
124	125	1
19	25	1
47	47	1
108	112	1
50	50	2
27	30	3
73	73	1
64	65	1
118	120	1
75	75	2
167	168	2
4	8	2
102	159	1
113	114	1
107	138	1
165	193	1
5	13	1
34	36	1
145	145	1
137	154	1
123	123	2
90	90	2
96	97	1
103	107	1
139	175	1
172	174	1
21	21	1
150	154	1
53	57	2
82	83	1
85	88	1
114	114	1
81	82	2
61	61	2
126	127	1
40	143	1
66	67	1
56	58	1
117	117	2
110	110	1
195	196	2
8	8	1
42	70	1
107	123	1
64	66	2
5	7	1
189	196	1
42	77	1
1	62	1
121	151	1
33	42	1
175	175	2
192	192	2
144	148	1
43	45	1
66	66	1
28	143	1
147	148	1
105	105	1
83	83	1
105	115	1
