28	33	4
78	78	13
88	89	5
108	108	14
106	106	8
143	154	2
8	8	15
143	143	7
124	126	9
134	138	1
146	154	2
142	152	2
81	81	17
40	41	4
68	68	28
141	149	5
102	105	3
33	33	12
158	158	11
21	21	5
6	6	21
20	20	9
90	96	3
134	134	9
39	39	9
107	108	6
64	157	2
52	52	18
9	10	4
110	110	8
101	101	12
92	92	10
26	26	10
146	146	17
132	133	8
111	111	7
139	140	3
109	109	8
117	117	4
46	46	8
90	91	11
115	115	19
13	13	9
39	41	4
106	107	19
6	25	4
114	114	12
129	129	11
114	132	3
115	116	5
89	89	5
91	91	6
105	106	12
24	29	3
116	117	17
36	36	30
112	113	4
157	157	10
105	108	1
133	133	9
140	140	29
96	96	15
32	32	9
92	93	4
147	154	3
61	61	4
116	116	15
90	97	2
10	39	3
87	88	2
30	30	18
18	18	14
149	154	4
89	94	2
122	122	15
36	40	5
20	21	9
9	9	16
138	138	8
14	14	20
52	53	6
97	97	9
102	102	3
10	16	2
75	81	2
13	14	8
130	130	3
32	78	2
42	42	10
145	146	1
120	147	2
54	86	1
129	130	6
109	153	2
18	19	3
48	49	8
50	116	3
127	127	12
34	119	1
148	148	10
83	83	9
90	90	21
25	25	14
81	82	9
46	67	1
134	141	3
63	66	1
103	138	1
4	4	17
122	123	4
113	113	26
87	92	2
144	144	14
152	152	20
83	84	11
7	8	8
119	119	11
41	41	20
134	135	5
88	88	11
80	90	2
106	114	5
98	98	8
94	94	15
86	86	16
112	117	1
55	83	1
35	102	2
155	155	12
10	10	17
103	104	8
49	49	9
29	30	1
103	136	2
53	55	3
139	139	14
2	3	1
3	4	5
121	121	10
3	3	7
99	99	9
128	128	13
7	7	15
96	97	2
100	101	3
108	110	3
67	68	8
15	38	3
89	91	3
88	113	3
16	16	5
10	14	1
15	16	4
12	12	9
89	90	1
50	119	5
90	113	1
70	71	4
29	29	12
38	52	2
137	137	13
49	53	2
134	136	1
150	150	10
153	153	5
10	41	5
71	71	5
95	95	11
27	65	1
68	69	6
147	147	20
88	150	4
157	158	6
143	144	1
93	94	6
140	142	5
82	90	1
104	107	1
97	100	6
105	105	13
39	40	9
77	77	7
32	33	3
24	24	12
69	71	2
64	64	7
93	93	6
133	134	2
37	87	1
44	45	6
11	11	10
87	87	23
110	111	6
4	5	3
73	73	8
34	35	9
144	148	1
10	11	1
82	82	6
94	144	1
46	47	2
100	100	10
136	136	6
135	135	11
37	37	4
141	141	13
35	35	9
52	69	1
107	107	6
79	79	6
9	14	3
34	34	15
24	26	2
23	23	11
17	35	2
111	118	6
13	15	8
45	50	5
125	125	6
77	88	5
86	87	7
76	76	9
80	80	17
48	50	3
25	28	3
121	122	3
9	11	1
21	39	5
10	12	1
122	141	10
119	120	2
53	54	7
109	142	2
26	27	5
144	149	1
80	81	4
153	154	5
19	19	2
42	43	2
66	66	14
118	153	1
47	47	11
126	154	1
1	2	2
91	97	2
112	112	16
4	45	3
19	38	2
156	156	8
95	96	6
91	115	4
93	95	6
53	118	2
75	99	3
104	105	2
144	145	2
31	31	8
37	38	2
2	2	5
85	86	4
20	25	5
147	148	3
125	126	7
33	34	5
73	80	2
63	63	3
131	132	6
147	153	1
33	41	4
120	124	2
38	39	6
48	48	7
136	137	5
55	56	1
31	78	5
124	125	3
0	0	11
115	120	3
56	56	5
8	10	2
84	84	9
53	53	1
51	51	11
45	47	10
22	22	7
45	45	8
113	114	4
108	109	3
132	132	13
70	70	5
148	150	4
3	5	3
90	152	2
130	131	9
36	37	6
123	123	6
91	98	2
81	155	1
1	1	9
122	124	2
84	85	2
103	103	6
142	142	7
112	149	2
8	9	9
140	141	5
75	75	2
36	47	4
145	145	9
66	98	3
111	112	6
74	74	1
107	120	3
43	43	7
28	28	7
82	147	5
121	125	4
104	116	2
125	127	4
118	146	3
28	29	4
20	22	2
4	43	4
126	152	4
67	70	2
120	120	6
129	134	1
50	52	1
63	65	2
15	15	3
154	157	2
23	25	3
50	50	4
155	156	12
63	64	5
18	83	3
151	152	7
155	159	2
118	126	1
5	5	7
104	131	1
8	12	2
41	42	3
92	95	5
149	152	2
146	147	10
67	67	4
44	44	10
139	141	2
118	142	5
72	72	12
104	104	10
79	80	1
118	118	6
55	55	5
92	114	4
67	69	6
124	124	9
37	50	1
18	21	3
131	133	2
12	13	3
5	40	2
14	17	4
154	154	5
17	17	3
126	126	4
112	118	3
32	83	3
142	146	1
72	73	2
17	155	2
7	10	3
109	146	4
77	79	2
121	145	3
149	149	6
34	41	1
115	139	2
69	69	2
3	44	1
151	151	8
18	118	2
31	32	5
19	20	2
11	12	3
6	7	6
91	93	2
21	86	1
75	80	2
16	17	1
17	18	1
24	25	2
11	15	2
78	79	5
142	143	2
81	110	3
7	11	2
7	12	2
65	65	5
50	120	3
40	40	2
5	42	1
62	62	2
27	27	7
6	127	1
68	71	6
31	34	3
135	136	3
86	93	1
128	129	4
131	131	3
87	89	1
88	92	1
27	28	5
85	85	2
79	112	1
114	115	1
136	139	4
56	63	2
117	118	2
138	139	1
107	117	1
102	115	1
102	103	1
136	138	2
82	85	4
86	90	1
87	151	1
91	92	3
32	37	2
18	20	2
93	148	3
103	107	1
36	50	2
30	31	2
140	149	2
91	114	2
98	99	1
77	78	5
51	52	2
137	151	1
98	158	1
3	45	3
18	39	3
62	64	1
132	134	1
125	144	1
77	117	1
141	154	2
105	109	1
149	153	6
113	142	3
22	23	4
75	100	1
148	149	3
156	157	3
51	151	1
38	38	2
9	13	1
79	88	2
79	81	1
34	85	2
57	57	3
101	102	1
23	24	2
69	70	4
15	19	1
54	55	2
75	77	1
25	27	2
145	148	1
109	118	1
94	95	1
154	155	3
86	89	1
48	121	1
121	141	1
65	66	1
127	150	1
53	85	1
21	38	1
47	48	1
137	138	3
108	117	2
97	98	1
150	151	1
35	36	1
24	33	1
23	34	1
40	42	1
48	119	1
16	40	1
127	135	3
54	84	1
142	155	1
