81	118	3
139	139	20
175	175	9
161	161	9
20	20	9
117	149	4
76	76	9
43	43	5
15	15	10
134	141	1
77	77	23
10	43	3
101	101	10
110	110	13
14	14	8
142	142	13
83	83	11
2	2	14
82	83	5
122	122	21
113	114	2
160	161	3
151	151	6
129	129	14
185	185	4
56	57	3
176	177	3
90	123	1
22	24	1
82	82	3
153	153	10
12	25	2
73	76	2
58	63	7
117	117	6
0	0	11
94	95	9
140	140	19
57	70	4
64	71	1
89	89	12
70	70	2
169	169	7
150	151	3
137	144	4
47	47	8
148	148	4
190	190	3
113	113	4
72	72	7
112	112	8
44	61	4
146	156	7
114	115	8
28	28	11
55	55	15
171	171	5
136	136	12
186	186	3
108	138	1
36	36	3
19	20	10
80	81	1
18	174	10
38	38	8
84	85	6
40	41	4
182	182	11
177	178	4
60	60	10
27	59	1
165	165	10
181	182	1
118	118	7
94	122	8
137	137	20
156	156	10
162	163	2
35	35	14
24	152	2
89	90	6
19	19	7
123	142	1
38	39	7
61	62	4
155	156	6
108	108	5
22	22	12
77	82	3
75	75	16
143	143	8
46	46	8
134	135	4
189	190	5
95	106	1
79	79	9
0	1	2
45	46	3
58	59	3
31	32	4
44	44	15
134	142	3
93	107	8
29	43	3
158	158	9
172	172	1
150	157	5
33	33	4
11	26	2
103	103	11
101	102	2
27	131	4
163	163	11
160	162	5
92	94	3
146	146	11
173	174	1
94	94	4
35	36	6
81	81	7
38	41	3
153	154	1
74	74	4
157	157	5
65	66	5
54	128	2
25	26	2
109	110	3
145	145	12
40	40	10
96	96	7
22	46	1
72	73	5
109	111	3
92	92	6
7	41	1
79	120	3
5	6	4
6	6	7
45	45	8
21	21	7
67	68	1
3	6	2
131	143	1
167	168	4
90	90	26
55	57	3
114	114	11
99	99	1
155	155	7
140	142	1
41	41	6
115	117	2
125	125	5
39	39	5
103	115	4
154	155	3
93	150	5
18	31	5
17	35	1
4	8	3
27	28	2
70	91	2
80	107	5
86	86	7
161	162	3
39	40	7
27	60	2
1	2	6
65	65	6
65	67	3
178	179	3
121	121	11
59	61	1
11	25	2
187	189	2
98	99	7
87	117	1
16	90	5
159	159	4
24	24	10
77	90	1
174	175	2
30	30	6
105	105	12
10	13	3
107	107	3
54	56	4
104	114	1
88	96	2
97	97	8
181	181	6
42	42	9
68	68	10
109	109	10
71	72	2
164	165	2
170	170	3
100	100	14
90	94	2
154	154	5
16	17	5
18	19	2
104	104	4
4	4	6
34	34	8
81	109	3
131	131	9
139	141	1
81	82	2
42	43	2
26	26	2
67	78	1
93	93	6
139	143	3
128	128	12
85	85	15
78	79	2
163	165	2
135	135	4
156	157	2
124	125	2
96	97	4
74	76	2
101	138	2
13	13	6
172	173	1
111	111	13
17	186	1
58	58	5
127	127	8
147	157	2
152	170	3
28	29	1
61	61	9
130	131	3
52	52	3
6	18	2
117	118	1
3	3	5
187	187	5
102	153	3
146	147	6
71	71	5
177	177	2
10	31	2
88	88	11
1	1	13
162	162	6
160	160	7
46	60	6
83	85	2
57	57	11
23	23	5
149	150	4
127	147	5
90	124	2
10	25	1
67	90	3
183	183	5
94	97	4
95	95	15
29	29	4
116	117	3
76	82	2
95	99	3
2	7	3
16	16	3
115	116	2
164	164	3
39	129	2
7	7	6
48	48	6
140	143	4
2	6	4
84	87	2
13	14	4
184	186	2
105	106	6
0	12	4
156	161	1
53	55	5
67	88	1
6	25	2
123	123	2
149	149	8
63	63	6
10	11	3
174	185	1
99	100	3
188	188	7
145	155	1
98	98	2
106	107	1
76	77	4
53	54	4
120	120	6
153	170	1
7	16	1
162	165	1
37	37	9
87	87	3
84	84	7
118	119	4
44	55	2
180	182	5
78	78	3
131	151	2
52	53	2
60	61	1
5	5	3
18	18	1
104	157	2
58	62	1
24	90	2
147	147	4
14	57	8
131	133	1
30	31	2
20	22	3
72	74	2
39	74	2
102	103	5
31	31	6
36	37	3
32	32	2
79	97	1
44	59	2
126	126	2
32	135	2
112	113	3
145	152	2
41	57	3
170	184	1
97	137	2
126	127	6
59	59	5
54	54	4
87	88	3
168	168	2
151	152	2
89	126	4
157	158	2
10	19	1
66	67	2
82	108	3
119	119	1
62	63	2
115	115	4
25	28	1
53	53	4
2	186	3
104	117	1
166	167	1
24	45	1
86	125	1
64	64	4
96	122	3
12	12	6
80	80	6
13	27	1
124	124	8
42	53	5
66	66	5
141	141	2
84	103	4
42	44	1
150	150	4
134	134	6
16	173	3
108	142	1
111	112	3
44	45	2
75	106	1
97	122	5
132	132	1
6	8	2
25	143	5
141	142	5
26	46	2
135	136	2
23	24	2
73	81	4
127	139	1
96	98	2
41	42	1
25	25	2
91	91	6
24	25	5
116	116	6
70	71	1
144	156	1
46	56	2
97	98	5
85	147	2
3	185	2
18	21	3
146	148	2
102	102	3
120	130	2
88	89	1
61	141	2
173	183	2
85	119	2
10	14	2
67	67	2
29	30	2
72	79	2
10	12	2
67	135	3
189	189	1
33	34	4
4	16	1
11	11	2
176	176	7
117	119	1
147	158	1
54	55	1
17	19	2
8	8	4
136	137	3
131	142	1
106	106	1
32	34	2
78	126	1
83	84	1
24	41	2
88	124	2
125	126	3
19	23	1
108	148	2
97	117	1
89	91	3
55	56	1
142	144	1
15	40	2
38	70	3
91	93	1
101	108	1
20	43	1
122	126	1
28	132	2
16	91	2
126	128	2
161	166	1
11	32	1
56	56	5
4	6	2
0	15	3
101	154	3
152	152	3
86	87	5
10	22	1
133	133	2
121	122	2
48	66	1
116	118	1
133	135	4
102	162	3
49	56	1
61	64	1
83	108	1
172	178	1
61	63	3
91	94	5
84	124	1
37	128	1
2	3	1
137	138	1
142	152	2
130	130	1
23	170	1
118	149	1
22	170	2
88	122	1
5	9	1
146	163	1
165	166	2
13	93	2
184	185	2
19	174	1
139	140	1
85	89	2
7	8	1
17	17	3
69	69	2
76	127	2
90	109	1
148	150	3
32	138	2
18	32	1
128	129	1
174	174	1
30	32	1
10	21	3
13	30	2
8	43	1
166	166	1
152	153	1
46	61	2
27	27	2
159	161	1
160	163	1
102	104	2
104	113	1
130	142	1
138	138	4
78	81	2
123	130	1
108	112	1
16	20	1
15	35	2
78	106	1
73	73	3
59	63	2
181	188	1
10	10	1
58	61	1
8	23	1
78	83	1
185	186	1
48	49	1
74	75	2
43	59	1
159	162	1
98	116	1
21	22	1
183	184	1
3	13	1
132	142	1
139	159	1
11	21	1
184	184	2
100	106	1
154	180	1
4	5	1
8	44	1
83	120	1
79	83	1
57	58	1
47	48	1
7	15	1
102	154	1
62	65	1
144	158	1
120	121	1
