139	139	8
17	17	8
120	121	7
117	117	10
23	23	4
80	80	14
104	104	8
107	110	2
109	109	2
91	122	1
71	71	11
81	119	2
72	77	4
16	16	19
31	31	6
25	25	11
116	117	2
121	121	13
122	122	12
14	14	5
113	130	4
118	118	9
35	36	8
10	24	1
105	106	8
107	107	5
101	101	9
32	32	14
113	113	12
108	112	1
86	118	3
123	123	11
28	111	1
9	9	8
128	135	2
82	86	2
14	15	5
140	140	22
125	125	12
27	99	3
21	21	9
89	89	10
95	96	3
126	126	26
83	107	7
34	34	10
114	114	20
94	94	4
131	131	23
115	115	18
88	88	3
2	5	6
24	24	12
136	136	7
121	123	2
22	37	1
96	96	6
78	78	8
16	27	1
138	138	4
87	92	1
114	118	1
19	20	3
102	102	15
80	81	8
38	38	7
7	7	9
81	82	7
4	5	5
119	120	10
18	18	12
28	28	7
112	112	19
84	84	6
11	11	8
127	136	7
29	29	12
93	93	9
123	124	11
30	31	3
124	124	23
73	122	2
73	73	6
29	101	3
116	116	3
74	75	4
133	133	12
101	104	2
108	126	3
87	87	6
128	129	7
135	136	6
131	132	7
22	27	3
99	99	9
37	37	14
91	91	12
4	4	13
120	120	18
12	12	8
26	26	7
31	99	1
6	6	3
130	130	17
36	36	11
75	75	6
79	79	8
118	119	13
22	23	5
1	2	3
10	13	1
27	27	6
83	83	12
128	128	13
82	82	7
10	11	8
22	22	19
3	5	1
81	83	1
117	119	6
29	105	3
98	98	17
10	10	10
110	116	2
82	124	1
81	81	7
86	86	6
134	135	12
137	137	9
25	26	6
8	9	3
2	2	23
8	8	3
86	88	4
86	124	2
89	93	2
92	92	3
101	124	2
89	90	3
127	127	9
100	100	5
85	85	4
73	123	1
110	110	9
129	130	6
5	20	1
33	33	9
36	37	4
5	5	22
126	136	3
134	134	17
129	129	10
71	79	3
6	12	1
73	75	2
8	10	2
3	3	4
126	128	2
95	124	2
10	12	2
15	24	3
74	74	8
119	119	10
1	7	2
17	31	2
94	95	1
93	94	5
11	12	8
1	83	3
75	76	3
124	125	8
77	77	8
22	25	6
84	109	1
135	135	9
4	38	3
27	105	2
88	93	2
111	118	2
10	39	1
84	85	7
134	136	3
136	137	1
15	15	4
108	108	9
91	110	1
122	123	3
72	72	3
103	103	5
106	106	4
86	94	4
20	20	9
111	111	2
26	27	5
71	109	2
84	86	2
101	110	3
88	90	3
37	88	1
93	102	1
28	31	1
72	89	1
132	132	7
7	13	7
2	8	3
86	108	3
104	106	1
2	101	1
103	107	4
90	90	6
13	13	4
104	121	1
30	30	3
28	29	3
76	76	3
23	30	1
24	25	3
3	9	1
34	100	1
135	137	4
79	80	1
9	11	1
23	24	6
80	111	2
7	8	2
23	25	2
97	98	3
79	84	2
105	105	5
110	111	2
121	122	4
11	38	2
27	44	1
113	116	1
37	38	4
1	69	2
13	28	1
107	121	3
79	102	3
9	23	4
0	1	3
88	108	1
1	3	2
100	101	4
86	107	2
108	110	1
117	118	3
105	107	5
98	99	4
29	31	2
1	1	2
3	4	3
102	103	4
90	91	3
87	112	2
18	20	3
24	26	1
14	44	1
20	21	4
74	91	1
77	78	3
16	17	2
138	139	5
33	88	1
97	110	1
0	0	1
71	72	1
137	138	6
109	111	2
124	132	1
28	99	1
104	105	3
107	111	1
114	115	2
5	8	3
12	14	1
0	8	1
81	84	1
96	108	3
19	19	2
95	95	4
125	133	1
34	37	2
85	94	1
127	128	2
89	133	1
1	4	2
12	19	3
115	116	1
130	132	2
19	116	1
4	7	2
75	77	2
15	25	1
2	3	3
134	138	1
107	109	1
13	14	3
6	23	1
92	102	1
78	79	2
127	134	2
101	125	1
7	23	1
28	30	2
111	112	1
98	100	1
12	17	1
139	140	1
116	118	1
31	93	1
85	112	1
102	104	1
99	100	1
31	32	4
72	73	1
82	83	1
27	29	2
108	109	1
114	139	1
29	30	2
27	31	1
7	9	1
33	34	1
87	105	1
27	28	2
85	86	1
101	102	2
85	87	1
0	4	1
127	129	1
35	35	1
2	125	2
76	77	1
113	115	1
12	13	1
133	134	1
22	24	1
21	126	1
109	110	1
124	126	1
83	85	1
21	37	1
132	133	1
113	114	2
95	97	2
86	101	1
30	104	2
87	88	1
24	30	1
6	22	1
35	140	1
