55	107	3
37	37	10
131	149	4
144	151	3
66	66	3
53	53	2
137	137	13
6	27	2
61	62	2
101	101	2
93	93	2
140	140	7
105	105	5
159	159	4
31	31	14
15	15	9
115	129	2
29	29	4
143	144	4
2	4	20
12	12	10
88	88	11
5	6	3
31	35	6
92	93	7
166	170	4
4	4	8
28	38	1
92	94	3
45	45	6
75	76	5
89	89	4
123	126	3
6	6	18
79	107	2
43	43	18
13	13	8
64	64	4
62	82	3
35	35	5
64	67	4
153	153	9
95	95	12
116	117	1
9	33	1
125	125	7
168	168	9
124	129	4
96	139	5
102	102	1
138	138	13
23	24	2
42	42	12
39	39	20
32	32	10
150	150	8
68	70	1
41	41	5
38	39	5
131	131	4
27	28	2
50	61	2
35	36	4
109	109	4
145	145	12
31	43	2
27	27	2
24	24	8
26	26	13
1	2	4
54	54	7
10	10	12
148	148	2
13	40	2
113	113	5
62	62	3
2	3	3
65	67	3
54	55	2
16	16	7
59	59	5
25	38	1
33	33	14
38	43	3
50	50	8
24	25	5
75	75	3
3	4	8
55	55	5
160	162	3
92	92	10
0	0	5
126	126	11
173	173	4
149	149	4
18	18	5
30	30	5
115	116	4
107	111	1
74	143	3
117	119	4
130	131	3
171	172	9
146	146	4
104	104	5
163	164	2
34	34	8
11	11	23
89	91	2
7	7	2
15	16	3
165	166	4
44	44	2
36	36	9
28	28	11
32	40	2
37	38	3
84	84	4
52	118	2
85	85	4
23	23	7
100	104	6
123	123	6
112	120	2
112	112	2
98	102	2
40	41	4
1	1	3
136	137	3
97	97	4
18	19	3
40	40	11
24	40	3
115	117	4
176	176	5
153	171	1
30	31	6
58	58	2
58	59	1
97	98	3
120	121	2
17	71	1
22	23	3
38	38	14
133	135	2
85	86	4
9	9	7
17	18	3
10	45	1
12	13	6
83	83	5
56	56	14
20	20	5
14	15	9
21	22	5
80	81	4
124	124	6
172	172	3
151	156	1
29	30	1
134	134	3
52	53	2
8	9	4
68	68	6
129	129	4
17	17	8
38	40	5
156	156	4
21	21	7
53	54	8
84	86	3
174	175	2
94	94	6
11	13	1
81	90	1
101	121	1
100	100	4
164	166	2
50	51	4
162	162	2
6	30	1
112	122	1
7	8	2
167	168	2
10	13	2
163	163	2
96	102	1
121	121	7
78	98	1
119	119	4
179	179	4
128	147	1
179	180	2
2	2	5
63	63	3
114	114	5
16	17	2
160	160	2
13	14	3
158	158	3
169	172	2
176	177	3
99	100	3
94	96	6
142	142	3
14	16	1
3	8	3
25	26	1
25	28	4
145	146	4
171	171	4
19	19	3
94	95	3
65	65	4
80	80	1
91	93	2
161	162	3
6	10	1
82	82	6
72	74	1
67	67	2
82	99	3
21	24	1
116	116	1
154	154	2
115	115	4
96	97	7
17	31	1
60	61	4
66	67	2
143	143	4
61	64	1
10	11	6
132	132	5
170	171	1
173	174	2
106	109	2
18	33	1
86	86	5
71	72	1
46	46	3
100	146	2
102	108	2
31	38	2
83	84	2
76	76	2
107	108	3
107	107	1
32	37	2
7	44	1
70	71	1
91	91	6
145	150	1
119	120	1
31	32	7
2	10	1
100	126	3
14	34	1
122	122	2
17	26	4
143	145	2
29	31	1
178	178	5
161	161	2
10	44	2
150	156	1
22	22	6
19	20	2
133	159	1
81	82	5
111	111	2
77	77	4
137	167	1
152	153	1
100	101	2
128	129	2
3	3	1
5	7	1
168	169	1
127	130	2
44	46	1
0	14	2
61	61	6
142	143	1
105	107	1
71	71	5
105	143	2
41	42	1
147	147	4
133	133	2
170	170	1
108	109	1
20	21	2
117	117	2
118	118	1
52	52	5
144	144	1
14	14	4
113	117	2
19	21	2
72	73	1
3	5	1
107	110	1
55	56	2
41	43	1
77	78	1
178	179	1
135	135	2
55	95	1
32	33	3
90	98	1
99	99	1
139	139	2
166	166	1
90	99	1
94	98	1
5	5	3
137	138	3
105	110	1
26	27	4
153	155	1
21	23	1
16	73	1
103	143	1
167	167	6
148	160	2
155	155	1
16	71	2
39	40	1
22	30	1
26	28	2
57	57	2
106	106	3
142	144	2
98	99	2
28	29	2
20	43	2
84	85	4
72	72	1
148	162	2
80	89	2
110	110	2
135	136	1
142	151	1
77	105	1
141	141	2
141	142	2
91	98	1
154	163	1
28	31	2
32	35	2
8	8	2
166	167	2
144	146	1
118	120	1
15	78	1
149	176	1
136	136	2
90	139	1
107	109	2
112	176	1
67	73	2
87	89	1
167	169	2
121	123	1
159	162	3
103	103	3
9	10	2
56	61	1
15	31	1
99	112	1
157	157	2
87	87	2
173	175	1
159	161	1
17	37	1
111	119	2
18	30	4
95	96	1
45	46	1
169	169	1
42	43	1
19	43	3
4	25	3
3	46	2
84	90	1
120	133	1
167	170	1
18	20	2
56	57	1
24	30	1
4	8	1
98	125	3
51	51	1
161	164	1
128	128	1
32	42	1
123	124	1
81	81	1
79	79	3
90	103	1
115	119	2
95	103	1
112	174	2
98	101	1
4	45	1
111	112	1
33	34	1
158	159	1
122	133	1
51	172	1
153	154	2
25	25	1
49	49	1
77	98	1
100	113	1
154	164	1
79	80	1
22	35	1
113	141	1
7	10	1
122	123	1
158	163	1
122	124	1
127	128	1
156	168	1
129	130	1
90	91	1
166	176	1
24	38	1
78	79	1
127	127	1
