21	43	10
108	108	4
143	143	3
119	121	4
44	45	6
4	4	5
25	25	9
60	60	11
73	73	1
25	26	5
81	84	11
30	31	7
32	32	6
55	55	8
31	31	24
62	62	6
124	125	4
154	170	2
76	102	2
112	115	7
43	45	1
154	161	1
177	180	1
142	142	9
40	40	9
3	5	2
41	41	16
176	176	16
10	43	1
16	16	10
103	103	9
3	3	11
142	143	2
128	128	12
75	75	9
153	153	5
92	92	11
42	44	7
164	165	3
127	127	3
13	41	4
35	36	2
5	6	4
102	102	14
19	20	4
27	31	3
10	26	3
117	150	6
27	27	10
24	29	3
140	140	6
93	93	9
149	149	7
23	25	3
1	1	10
9	10	2
113	117	4
16	41	2
56	56	11
44	44	16
103	104	9
76	77	4
34	35	5
148	148	3
35	35	10
12	14	4
67	68	13
97	97	4
2	3	9
7	65	3
0	0	17
107	107	11
30	30	13
50	51	1
13	13	23
43	44	1
12	12	10
26	27	5
95	95	5
103	106	5
3	15	6
88	88	11
54	54	6
146	146	13
133	162	2
42	42	14
105	105	6
34	34	17
98	125	1
170	170	4
117	119	4
141	141	14
7	8	8
53	53	4
63	63	7
143	144	3
86	86	5
163	166	3
135	154	8
99	100	4
60	67	4
18	18	10
112	118	3
36	36	14
117	118	11
96	96	8
167	167	5
2	2	18
7	9	6
50	85	2
33	33	12
74	97	5
111	111	2
129	130	2
36	38	2
21	21	12
39	40	5
11	82	3
126	128	2
20	21	2
94	140	6
127	128	3
7	7	12
32	36	1
11	15	4
71	71	6
24	24	12
123	125	6
152	152	9
1	2	3
155	155	10
33	45	2
118	150	5
137	137	3
158	177	2
18	23	6
15	16	8
118	154	1
136	136	10
20	44	1
90	90	5
116	119	4
107	109	2
10	10	18
171	171	7
110	180	1
165	165	4
38	38	9
27	29	7
121	121	3
85	85	8
20	37	1
1	5	4
151	151	9
37	37	18
113	113	6
107	108	3
45	45	2
22	22	17
54	55	2
50	50	7
59	141	1
159	159	6
147	147	5
29	29	10
132	134	9
89	89	7
168	168	7
74	75	3
20	20	13
123	123	3
24	40	5
77	140	5
65	65	12
136	168	2
166	166	8
12	30	7
9	45	1
10	11	9
14	41	5
1	41	1
8	8	6
12	13	9
9	9	13
64	105	3
17	17	8
15	15	17
126	126	7
13	44	3
59	59	2
63	113	2
56	76	3
28	29	3
98	100	1
125	125	9
36	44	1
118	118	5
63	81	1
139	148	1
16	17	8
4	5	3
21	52	3
55	57	4
161	161	5
179	179	6
78	78	2
38	39	7
133	134	5
26	26	9
132	132	3
18	19	14
118	145	2
17	18	4
77	78	4
145	145	5
160	162	7
164	164	5
6	63	1
161	164	7
28	28	11
20	26	1
131	178	3
2	67	2
40	43	3
24	43	2
61	61	5
29	42	2
135	168	1
66	81	5
135	143	6
11	11	14
39	39	16
133	133	2
150	150	9
169	169	4
178	178	9
19	26	4
11	45	2
149	153	1
6	10	3
98	99	5
6	43	2
92	122	4
33	34	7
14	14	3
25	29	1
138	138	5
29	32	5
130	130	4
2	7	2
43	43	5
57	166	2
119	120	3
129	131	4
5	36	3
89	90	3
119	119	5
157	157	2
5	33	1
89	91	5
14	15	10
14	35	1
65	95	5
120	120	10
116	116	4
23	23	7
99	112	2
25	37	1
28	30	5
76	158	1
16	33	3
8	9	7
55	56	4
158	176	1
101	101	5
0	5	2
154	154	1
72	72	5
16	42	1
170	171	4
62	65	1
26	37	1
2	4	2
79	79	2
19	19	9
134	141	3
22	23	3
173	173	8
10	13	5
11	12	5
75	99	2
14	42	2
57	57	8
117	117	7
174	174	4
142	157	1
10	28	1
114	115	3
167	168	5
112	112	10
132	142	1
18	50	4
126	127	3
12	62	1
139	141	3
122	175	1
36	42	1
161	162	3
133	158	1
63	86	1
68	68	5
114	118	2
118	122	1
37	38	3
171	172	5
79	80	1
88	91	2
24	25	2
18	43	1
61	98	2
19	57	6
168	169	4
36	39	4
106	106	6
30	33	2
131	131	5
61	97	2
102	104	2
120	144	1
6	41	2
145	146	2
10	14	3
56	57	2
17	42	2
163	163	7
12	22	5
80	81	1
18	41	2
56	171	3
18	38	1
13	14	7
135	135	2
19	38	1
122	125	1
109	151	2
8	26	3
84	85	2
60	97	2
25	46	2
19	50	2
78	89	2
98	144	2
17	19	2
81	81	2
53	56	2
51	51	5
114	114	11
31	33	3
111	127	1
87	97	4
5	5	4
5	11	3
175	176	2
74	98	1
162	180	1
157	163	2
27	38	2
109	115	7
147	150	1
32	35	5
33	42	1
157	158	1
84	102	1
40	41	1
91	92	2
22	46	2
109	109	1
160	178	1
57	59	2
166	167	2
149	150	2
54	56	1
51	98	2
6	6	6
135	155	1
136	147	1
4	12	2
60	148	1
124	124	6
13	15	4
97	100	1
86	101	2
24	147	2
173	174	1
98	114	1
100	101	3
174	175	3
109	168	1
10	44	1
147	153	2
105	106	2
40	42	1
45	62	1
94	94	3
91	108	3
19	23	1
136	137	1
141	149	2
3	33	2
37	40	3
134	144	3
5	42	5
65	67	1
110	111	1
21	39	2
108	159	2
81	86	1
80	95	1
10	38	1
106	108	2
81	85	1
117	176	1
158	158	6
30	35	3
27	28	1
60	61	2
106	107	5
129	129	3
25	41	2
64	64	1
76	159	1
93	95	4
6	8	1
180	180	2
31	36	2
58	58	2
135	136	1
2	5	1
27	67	1
110	116	1
71	72	1
2	33	2
99	115	1
160	160	5
28	41	1
15	17	1
66	135	3
29	41	1
87	115	1
144	144	3
31	35	3
16	19	2
92	107	1
12	35	1
88	93	3
22	40	2
45	46	4
133	135	2
134	134	3
41	42	2
17	51	1
92	93	3
3	45	1
24	39	5
36	37	4
145	160	2
21	32	1
84	86	4
123	124	5
74	92	1
1	3	2
53	175	1
17	38	2
109	113	1
0	28	1
44	46	1
29	37	2
81	90	2
98	146	2
90	91	1
62	96	2
154	156	1
133	155	3
176	177	1
28	42	2
66	66	6
88	122	3
161	163	2
23	40	1
118	137	1
45	63	1
74	74	2
4	6	2
22	41	1
117	128	1
8	35	2
105	107	2
129	174	2
79	81	3
68	71	1
73	87	1
67	72	1
10	12	4
21	44	1
51	59	1
32	68	1
74	154	2
24	26	1
77	79	1
179	180	1
109	116	1
142	152	1
139	140	1
74	87	2
112	119	1
26	30	1
62	66	1
18	21	1
156	156	2
27	105	2
51	83	1
62	63	1
129	135	2
84	113	1
61	105	1
6	7	1
6	14	2
36	43	2
113	119	1
32	33	1
9	44	1
86	116	1
168	170	3
175	175	2
83	102	2
102	106	1
107	153	1
110	110	1
28	35	1
2	6	1
35	67	1
28	44	1
49	49	1
59	60	2
6	29	1
99	101	2
113	155	1
76	76	4
81	95	1
84	84	2
159	161	1
26	46	1
136	145	1
26	38	1
67	67	1
56	58	1
134	135	1
113	116	1
172	172	1
0	1	1
63	67	1
110	128	1
137	139	1
98	106	1
91	94	1
130	131	1
63	85	1
129	155	2
102	111	1
177	177	1
90	98	1
52	52	1
14	33	1
101	104	1
11	13	1
94	100	1
55	167	1
8	39	1
172	176	1
19	39	1
0	44	1
55	58	1
29	44	2
29	31	1
135	163	1
81	83	1
