133	133	7
90	90	15
43	43	4
70	81	3
102	102	6
35	35	9
63	63	2
5	5	2
82	93	3
85	85	7
108	113	5
61	62	3
88	90	4
87	87	4
51	51	1
122	123	4
67	67	7
130	130	2
134	135	2
79	80	1
121	121	2
126	134	7
80	80	3
125	129	5
96	122	2
85	86	4
106	117	3
129	129	4
3	4	2
92	92	5
97	113	5
79	79	8
6	6	4
84	85	6
82	83	2
54	54	6
61	61	1
131	131	3
45	45	4
107	111	6
90	91	1
125	125	9
54	56	2
32	47	3
34	48	2
94	95	4
112	112	6
119	129	4
4	5	3
105	105	8
25	25	2
99	99	5
101	102	2
113	113	3
119	119	3
97	98	1
100	100	2
57	57	2
124	130	4
38	38	4
38	67	2
2	3	2
98	99	2
92	127	2
93	104	5
93	93	3
84	129	5
86	87	5
106	107	3
77	77	2
106	132	5
74	74	6
68	69	1
89	90	1
113	114	1
98	98	4
101	101	7
116	116	7
128	128	1
32	32	4
114	114	3
53	53	3
65	105	2
12	12	1
126	126	3
117	130	3
91	91	2
53	58	1
34	97	2
43	50	1
124	129	4
82	82	1
30	30	2
60	68	3
31	32	1
83	110	4
110	110	2
115	115	2
58	59	2
114	129	1
44	44	2
76	94	1
118	118	1
31	31	2
59	59	3
12	13	2
75	75	3
91	129	2
19	19	1
28	28	2
96	97	5
104	104	5
17	17	2
93	94	1
3	3	1
5	29	2
71	71	3
115	118	2
56	58	3
129	131	3
70	70	2
95	123	1
55	55	1
0	12	3
66	66	2
76	99	1
56	57	2
64	64	2
49	50	1
32	33	2
23	24	2
75	76	2
118	120	1
71	72	2
13	13	2
13	14	1
66	77	3
4	4	3
116	120	2
29	29	1
37	37	2
127	127	3
78	78	1
55	58	1
115	116	1
33	33	3
2	2	5
110	111	1
76	76	4
134	134	1
108	109	3
86	95	1
84	84	1
117	117	1
77	79	3
34	38	1
111	111	2
114	115	1
50	50	2
96	121	2
16	16	1
69	113	1
95	95	1
90	103	1
49	49	1
103	103	1
26	78	1
64	123	1
86	86	2
49	53	1
91	92	1
120	120	2
68	68	1
54	58	1
1	3	1
97	105	1
94	123	1
24	24	2
92	101	2
57	58	1
54	55	1
56	56	1
52	52	1
72	73	1
81	81	1
7	7	1
132	132	1
