123	123	12
129	129	10
133	134	10
124	124	9
125	126	4
27	27	5
89	89	15
3	4	7
48	71	3
41	92	1
106	107	2
87	87	18
122	122	9
53	95	3
133	133	5
36	50	5
91	91	16
77	79	6
2	6	1
9	9	8
134	134	9
70	72	4
23	74	3
136	138	6
90	91	4
8	9	6
61	62	3
138	138	9
55	82	5
39	39	8
5	5	6
101	101	12
57	57	3
116	116	5
20	20	5
140	140	9
72	73	6
34	34	2
20	31	7
99	99	8
76	76	3
52	52	8
35	36	2
86	86	6
123	125	6
30	30	21
110	110	11
100	100	7
121	121	5
106	106	7
90	90	5
41	41	8
116	117	6
131	135	4
36	43	8
15	16	2
22	145	3
104	104	9
15	15	4
54	56	2
118	139	1
76	99	1
36	38	1
1	1	1
70	73	1
136	137	8
40	40	5
74	88	3
37	40	1
102	102	8
88	91	4
129	140	5
47	47	2
86	88	2
31	31	11
12	33	1
114	114	11
61	91	4
11	11	9
36	37	4
62	62	17
36	36	15
69	70	4
137	138	8
101	102	5
54	54	11
63	63	9
77	87	2
119	136	1
104	105	2
66	68	1
123	124	4
105	140	2
118	118	7
35	37	5
74	90	4
102	103	2
36	39	3
12	13	2
127	127	10
49	51	3
120	123	5
22	22	2
131	131	11
142	144	1
96	96	11
31	33	1
25	25	10
4	5	8
17	17	8
115	115	5
23	25	2
18	19	4
93	93	3
52	54	1
114	135	5
18	114	2
51	52	17
104	145	1
56	56	22
121	127	1
13	13	11
132	132	21
94	128	2
26	26	3
20	21	3
68	68	3
26	47	4
59	59	14
64	64	3
70	71	1
112	113	3
64	65	9
14	14	3
65	67	1
37	37	7
128	128	9
116	130	2
144	144	4
48	48	6
133	135	2
49	49	5
90	99	1
141	141	9
55	71	3
3	3	4
119	120	2
21	21	6
100	101	5
94	94	13
29	76	3
67	67	8
107	107	3
28	28	7
0	15	1
18	18	5
77	103	2
83	83	6
122	135	2
12	12	1
15	33	3
37	42	3
103	103	4
29	37	3
118	120	4
78	79	3
65	76	3
61	61	12
64	73	2
120	122	2
130	130	11
88	88	7
37	39	2
139	139	9
120	120	9
34	35	3
115	133	2
126	126	10
79	79	5
78	78	5
97	98	5
87	98	4
55	59	2
20	91	2
16	16	4
98	98	4
92	93	3
109	115	4
33	39	3
81	81	8
91	92	1
23	23	11
132	133	1
105	106	6
75	75	7
104	117	2
55	83	1
27	74	2
113	118	2
120	128	1
79	82	3
105	105	9
86	92	6
128	143	2
73	73	4
51	51	6
123	130	1
83	85	5
2	2	3
97	97	1
13	14	2
65	65	2
76	78	2
17	124	2
117	117	7
64	102	2
119	119	7
5	6	5
69	69	5
3	64	1
72	88	1
114	115	3
113	127	3
145	145	3
135	135	5
70	70	4
6	6	1
73	87	1
114	130	2
100	127	1
91	105	3
113	114	1
10	10	9
85	85	1
31	51	5
121	130	5
137	137	6
89	90	4
9	16	2
107	138	2
5	9	2
105	112	4
58	59	2
118	129	5
77	78	7
53	63	1
117	118	3
126	127	3
92	94	7
138	139	1
113	113	3
36	52	3
57	83	3
119	121	1
90	98	1
19	19	7
59	83	2
135	137	3
55	72	4
92	92	3
99	101	2
67	68	1
114	118	2
38	38	3
127	130	3
134	135	5
125	125	3
84	85	4
8	8	9
116	123	2
134	139	1
36	51	2
62	64	2
122	125	5
21	102	1
74	76	2
76	129	1
74	75	4
50	51	4
120	142	1
53	53	6
90	92	3
128	131	3
42	42	7
112	117	1
76	77	2
0	1	1
58	58	2
13	18	2
18	62	2
80	80	8
26	34	2
32	50	1
29	29	3
41	63	1
109	121	2
111	128	1
134	137	3
48	49	2
145	146	1
112	114	4
8	91	2
33	33	5
84	84	1
56	57	2
99	104	1
4	4	3
42	43	2
79	81	1
93	94	6
132	135	1
83	84	1
67	69	1
52	53	2
3	16	2
58	85	1
136	136	1
17	38	4
73	74	1
143	143	4
66	66	1
62	65	2
111	111	3
131	139	3
122	123	1
115	118	1
31	32	1
114	132	1
55	56	2
18	25	2
2	3	1
118	128	1
30	32	4
99	100	3
57	59	2
106	120	2
117	144	2
9	50	1
64	74	1
94	99	1
142	142	3
108	126	2
68	88	1
119	124	2
121	123	3
118	119	1
6	10	2
71	75	1
12	14	1
117	122	1
32	38	4
25	26	2
109	109	2
43	43	1
82	92	2
33	112	1
103	138	1
26	27	3
123	126	1
111	116	1
58	84	1
77	77	2
108	131	2
86	93	1
91	99	2
112	135	2
102	133	1
104	138	4
121	122	2
25	47	1
63	83	1
143	144	1
30	41	1
5	8	2
16	32	1
60	84	1
54	75	1
6	11	1
93	110	2
94	95	1
1	32	1
76	83	2
132	140	3
83	86	2
55	55	1
56	83	2
109	111	3
140	141	2
132	137	1
59	66	1
14	15	2
35	35	3
2	33	1
58	83	1
9	11	1
39	40	3
111	114	1
27	37	1
87	97	1
123	127	2
66	98	1
70	87	1
104	110	2
79	95	1
57	58	1
118	123	1
37	41	1
109	110	1
124	125	1
75	96	1
141	142	1
15	32	2
8	37	1
31	43	1
68	69	1
49	50	1
66	67	1
71	87	2
32	32	2
48	64	1
101	141	1
54	63	1
0	0	1
48	74	1
72	72	1
60	68	1
32	41	1
21	62	1
65	70	1
65	71	1
49	52	1
108	108	2
82	82	1
128	129	1
63	64	1
61	65	1
84	109	1
