15	15	8
113	113	20
114	116	4
85	88	4
121	121	6
85	85	7
57	57	10
20	20	11
64	64	10
53	53	4
28	29	1
60	61	4
115	118	1
42	42	6
14	30	6
2	2	8
14	14	12
126	127	6
87	88	2
29	29	16
129	129	10
45	46	1
18	18	1
94	94	11
77	80	3
130	132	3
10	10	9
54	54	5
26	26	16
116	117	4
124	124	9
77	77	4
20	21	2
2	3	1
101	101	10
4	4	9
128	129	3
78	79	6
63	83	1
102	102	11
18	33	2
0	0	10
124	125	5
58	58	6
129	133	1
82	82	15
22	22	6
8	8	8
75	75	6
32	32	4
73	73	4
91	91	10
66	66	11
50	51	6
86	90	5
40	41	5
21	39	1
48	49	2
103	103	8
16	17	7
16	55	3
40	40	20
19	19	9
125	125	6
60	60	3
112	112	10
41	45	2
43	44	6
115	115	9
6	13	3
44	44	4
41	41	3
76	76	10
123	123	12
105	105	7
61	61	3
72	72	7
59	60	8
102	103	3
115	116	4
81	81	4
76	78	2
45	45	4
108	108	8
16	59	2
80	80	13
130	130	5
127	127	5
47	47	14
80	86	3
62	62	6
25	26	3
7	42	2
50	50	7
116	116	11
74	77	1
16	41	2
34	67	2
6	6	6
67	67	3
66	68	4
34	34	6
71	72	3
12	12	27
51	51	14
84	84	5
97	98	2
89	92	2
106	106	15
75	114	2
65	80	2
117	125	1
99	101	5
1	1	6
18	19	2
100	101	5
74	75	2
3	3	5
30	30	1
93	94	5
67	114	3
43	45	3
88	88	6
91	94	6
92	92	2
68	68	6
6	7	1
11	11	2
78	78	11
87	87	9
118	118	4
65	67	2
26	49	1
113	130	1
95	95	5
97	97	6
45	83	1
39	40	4
48	48	10
86	107	2
99	99	7
22	41	4
38	47	4
110	113	1
68	115	2
48	53	4
75	76	4
72	74	5
2	29	2
16	16	9
13	13	1
89	98	2
17	17	10
49	49	6
83	83	10
114	120	1
60	85	3
65	65	5
84	85	1
90	90	5
107	107	6
21	21	3
63	64	1
19	20	1
77	78	1
55	55	5
96	96	7
9	12	1
59	62	1
130	131	4
89	90	4
46	46	10
17	23	6
38	38	2
3	5	3
120	120	8
78	94	1
23	23	5
72	119	1
49	50	1
10	12	7
43	43	10
11	40	1
73	74	5
17	22	2
90	91	1
117	127	3
27	27	3
96	105	1
10	11	3
81	86	2
30	31	2
110	110	6
84	88	1
15	16	2
123	124	2
65	68	2
104	104	3
29	30	4
7	7	9
41	42	2
11	12	4
114	114	5
109	109	4
122	123	5
44	45	8
100	100	4
6	8	2
74	74	2
65	71	2
54	58	2
16	20	1
59	59	3
111	112	1
67	68	4
69	69	4
86	86	5
86	132	3
13	30	1
46	47	2
114	119	4
75	117	2
77	79	2
52	52	4
90	98	1
29	32	1
70	71	5
98	99	5
56	57	8
75	77	2
21	40	2
51	92	1
79	79	1
99	103	1
99	114	5
109	116	1
126	128	3
84	106	1
16	33	2
112	120	1
9	9	7
63	63	8
119	119	3
30	32	1
31	31	2
80	82	1
8	9	1
101	103	5
129	130	1
130	133	1
98	118	1
56	56	4
70	70	3
101	114	1
122	122	11
131	131	5
132	132	3
19	33	1
32	33	2
67	115	1
91	97	2
98	98	3
128	128	5
84	87	2
119	120	3
59	61	1
24	24	6
15	17	2
113	118	1
16	26	1
69	95	1
85	89	1
65	66	2
133	133	3
37	38	1
95	105	1
85	87	5
62	63	1
78	133	1
94	95	5
31	52	1
1	27	1
96	102	1
24	41	1
61	62	1
14	15	1
114	117	3
11	13	2
83	84	1
95	112	1
4	5	1
37	40	1
80	81	2
39	39	2
72	73	1
23	47	2
93	93	3
71	71	3
91	98	1
5	14	1
101	107	1
106	109	1
68	96	1
98	106	2
96	97	1
57	58	3
12	29	1
68	122	1
86	87	3
69	89	1
71	103	3
41	43	1
104	115	1
9	43	1
79	80	1
89	89	2
81	82	1
109	130	2
5	6	1
55	56	1
86	88	2
60	62	1
22	42	1
75	79	3
71	82	2
111	121	1
76	80	2
32	64	1
91	92	2
97	101	1
16	58	1
5	5	2
68	117	1
67	108	2
65	87	1
19	119	3
109	114	1
125	129	1
109	110	3
4	7	1
25	28	1
8	22	1
93	96	1
86	89	1
120	122	2
68	104	1
88	89	4
27	28	1
23	24	1
26	27	1
89	93	1
118	128	1
10	67	1
28	28	1
21	24	1
52	53	1
67	74	2
99	100	2
53	60	1
23	38	1
48	50	1
22	24	1
113	117	1
5	13	1
18	26	1
94	109	1
25	25	1
