110	112	3
116	117	6
114	131	3
115	119	2
9	12	4
101	102	4
70	71	13
112	120	11
80	80	11
12	12	5
39	52	1
10	10	16
70	70	18
117	117	13
29	29	8
117	120	2
123	123	15
33	55	3
121	124	5
116	116	15
90	92	5
91	92	2
126	130	11
95	95	10
83	83	4
106	106	6
129	129	14
32	94	4
127	128	10
67	99	8
109	113	1
39	39	5
121	121	5
133	133	12
28	28	2
76	76	7
19	21	5
20	20	9
75	77	2
1	1	9
78	78	8
13	130	1
52	121	5
120	120	13
92	93	4
14	14	9
8	8	6
96	96	6
78	79	4
92	92	7
69	69	15
63	65	1
85	88	8
84	84	12
14	15	2
52	52	16
49	49	16
18	19	11
41	42	7
88	88	4
32	33	2
54	54	19
112	112	15
66	97	1
27	28	1
15	15	14
116	118	3
100	100	6
48	48	7
19	65	3
65	65	11
88	91	2
32	32	6
103	103	11
125	125	15
2	12	1
67	67	11
128	128	9
47	48	4
48	49	3
126	126	7
101	108	1
91	91	11
5	5	11
118	118	10
16	16	10
41	52	4
9	10	3
51	104	1
6	6	17
18	21	7
127	127	4
132	132	9
125	128	7
14	99	4
8	9	3
109	112	5
108	108	11
27	27	12
115	116	7
41	41	13
15	53	1
23	26	3
13	13	5
39	44	3
71	71	13
77	77	7
74	82	4
47	47	5
53	53	16
82	84	2
63	63	13
68	68	3
95	96	3
5	22	2
3	28	6
42	43	4
50	50	21
97	100	2
84	85	3
72	73	7
97	97	14
42	42	12
82	91	4
105	125	1
122	123	1
113	115	6
19	84	2
27	91	3
55	57	4
75	79	1
15	16	3
70	81	1
101	103	3
93	94	5
54	85	1
111	111	9
99	101	5
77	99	3
13	14	1
14	52	3
131	131	15
64	64	8
38	39	5
61	100	2
46	93	4
98	98	14
100	108	1
82	82	11
94	94	12
89	89	8
46	46	11
43	46	1
59	60	2
17	41	2
13	52	1
108	119	1
39	55	1
105	106	5
75	76	3
78	103	5
10	117	4
79	79	16
7	75	1
111	112	4
46	47	6
29	30	9
12	14	4
97	98	5
44	65	4
58	58	5
97	108	2
43	43	17
27	92	2
43	55	4
67	127	1
90	90	3
105	110	3
28	45	2
72	72	15
118	120	4
125	126	6
78	100	2
113	113	7
58	59	2
30	64	3
102	102	5
85	85	10
51	130	3
101	101	17
21	24	6
20	94	1
18	101	2
4	4	5
81	82	4
18	18	9
90	91	4
106	107	2
113	114	1
30	40	3
82	83	4
60	63	3
126	127	10
88	92	4
62	64	3
7	112	2
99	99	7
7	7	12
31	32	1
73	73	9
114	119	6
61	61	6
34	38	2
66	66	7
107	107	6
115	115	8
28	92	1
93	93	5
130	130	12
89	94	3
34	34	5
86	87	4
94	96	1
114	114	4
83	84	3
11	59	1
71	78	2
77	78	4
11	11	3
7	127	2
114	126	1
11	126	1
124	125	3
67	80	1
57	133	8
2	2	5
33	33	8
21	21	15
52	53	4
119	119	5
117	118	6
113	118	1
62	62	4
45	51	1
15	99	2
76	77	1
44	45	4
56	56	5
12	65	1
38	38	2
63	115	5
104	107	2
16	99	1
11	17	4
19	19	11
6	45	3
30	30	8
27	89	1
34	44	2
97	130	3
9	9	3
104	105	7
45	45	7
96	114	5
44	47	1
13	118	2
51	51	6
49	50	5
86	94	2
75	99	3
19	20	8
18	33	3
31	31	2
74	74	2
24	24	7
38	50	1
109	129	2
17	17	4
87	90	1
11	12	1
51	54	3
109	111	5
75	88	3
87	89	1
26	27	1
8	105	4
4	5	1
40	40	12
22	22	3
27	46	5
124	124	6
83	88	2
79	100	1
57	57	11
25	26	4
60	60	4
44	44	8
110	110	11
87	87	7
23	23	5
102	103	3
77	83	2
80	82	5
46	48	3
16	40	2
63	64	5
23	25	3
126	128	2
132	133	2
111	113	7
16	47	4
131	132	1
15	68	2
104	104	5
105	105	6
109	109	15
102	108	1
49	69	1
70	93	1
27	48	2
27	40	2
83	101	1
75	95	4
56	84	1
67	69	4
85	95	1
25	25	1
118	119	3
41	66	2
6	25	2
62	77	1
105	115	4
61	62	5
33	34	1
64	114	2
45	46	1
73	74	3
42	59	2
54	80	1
33	96	1
127	131	1
55	55	8
107	133	1
56	57	1
110	115	1
15	113	2
18	42	1
86	88	2
64	108	2
0	0	2
26	26	6
13	132	2
5	23	2
10	12	1
40	62	1
81	95	1
67	68	3
79	82	2
75	75	3
50	51	5
5	14	2
27	70	2
65	72	2
9	11	1
110	111	2
30	69	3
91	93	4
11	82	2
40	41	4
4	33	3
11	14	2
15	98	1
3	5	1
22	23	3
59	59	4
13	119	1
18	72	1
129	130	5
21	23	5
55	56	2
75	82	3
17	66	3
18	108	3
22	25	1
129	132	3
12	13	2
1	92	2
83	102	1
114	116	1
20	43	2
83	87	1
71	80	3
71	79	3
47	71	5
13	16	1
3	119	3
13	18	2
65	97	2
19	33	2
41	54	1
79	80	2
108	133	2
55	82	2
73	102	3
40	58	1
38	41	1
108	113	3
3	4	1
38	45	1
32	49	2
5	27	1
79	81	1
28	47	3
39	40	1
2	24	1
77	98	2
27	93	1
16	45	2
104	125	2
67	73	1
128	129	2
77	85	2
37	38	1
51	129	1
80	81	1
122	122	2
16	113	1
30	59	4
40	46	1
43	44	1
120	123	1
68	105	1
47	92	1
85	109	1
65	66	2
76	97	2
31	34	2
105	109	1
66	84	1
89	93	1
28	62	1
86	86	1
94	95	2
23	24	2
75	130	1
55	93	1
99	100	1
40	131	1
57	58	1
5	25	1
69	90	2
108	115	1
21	22	1
41	55	1
72	126	2
110	124	1
9	13	1
100	103	2
68	69	1
77	100	1
