72	72	13
113	113	7
14	14	14
54	54	9
9	9	8
45	45	9
29	29	9
71	71	5
11	13	6
64	64	7
88	88	11
69	69	9
78	79	3
119	119	13
100	100	17
70	70	19
98	98	12
118	118	11
103	103	6
89	101	1
116	116	8
5	5	6
80	80	10
13	13	6
125	126	4
111	111	12
105	105	14
50	50	20
3	3	10
60	60	9
77	114	3
99	99	22
121	121	14
93	93	8
76	76	15
64	69	2
44	44	7
93	94	10
65	65	13
129	129	11
91	91	6
109	109	4
18	28	4
82	85	2
90	93	4
130	130	6
120	120	10
104	104	15
65	67	3
117	118	3
61	62	8
24	25	2
85	85	16
127	127	13
109	112	1
0	1	6
65	66	4
80	92	2
43	43	11
133	133	6
128	128	6
27	27	6
10	36	1
24	26	2
85	86	2
85	96	4
4	4	9
25	25	2
32	32	10
8	10	2
134	134	10
100	106	3
94	94	14
28	29	1
69	96	3
122	122	11
64	68	3
74	112	1
0	0	21
126	129	3
3	4	5
90	91	4
24	24	6
102	103	7
131	131	8
108	108	8
79	81	1
79	80	5
52	54	5
46	48	8
123	124	5
77	77	9
35	35	9
59	60	5
82	82	10
101	101	11
53	53	14
129	130	4
92	92	4
34	34	7
55	56	4
21	21	8
35	36	8
14	16	1
84	84	5
50	51	3
123	123	6
1	1	13
105	106	4
63	63	9
122	123	10
87	87	16
15	15	8
33	35	1
126	126	10
115	116	4
97	97	8
4	5	3
114	124	6
76	78	3
72	76	5
78	78	11
33	33	9
82	84	5
127	129	5
48	48	1
42	43	3
71	73	3
6	6	5
96	106	4
99	120	6
115	115	6
43	44	4
83	130	2
1	2	2
124	124	6
64	65	5
81	81	4
68	68	9
32	33	2
114	114	9
77	91	2
35	43	3
19	129	6
86	88	3
7	7	3
112	123	3
98	99	1
91	93	3
120	121	3
133	134	6
62	63	5
8	8	2
70	71	5
112	113	4
86	87	6
7	8	3
67	68	3
66	66	7
90	90	5
89	89	7
106	106	12
16	17	4
36	38	1
107	108	3
77	98	2
106	107	8
47	47	4
95	106	1
128	130	3
130	133	2
68	87	1
111	119	6
83	86	4
69	88	2
44	55	1
114	115	5
91	92	4
30	31	3
76	79	1
131	133	3
22	33	1
94	96	2
64	122	2
54	59	4
75	94	2
77	79	3
80	115	3
86	86	12
2	2	7
132	133	5
83	84	8
79	92	3
104	105	6
56	56	2
36	37	3
125	125	11
105	112	4
27	28	3
3	6	3
57	57	4
124	128	2
26	26	11
6	7	2
110	110	10
119	120	8
49	50	6
81	91	1
14	15	5
46	51	1
95	95	7
23	23	3
12	13	1
67	67	8
55	57	2
113	115	2
74	74	9
111	113	3
74	76	1
68	125	3
79	79	11
97	101	2
80	81	3
2	3	1
119	122	2
80	95	2
18	34	2
78	80	4
132	132	5
60	122	1
103	104	1
74	75	2
92	93	2
71	72	2
20	21	3
107	107	6
17	18	1
19	19	6
26	27	7
102	102	8
61	61	4
79	98	2
31	31	6
52	52	5
10	42	1
68	93	4
52	53	6
95	96	4
62	62	7
80	127	2
26	32	2
28	34	2
128	129	5
30	30	8
63	65	1
45	46	4
72	91	2
21	105	4
75	75	10
16	16	4
56	58	2
72	73	3
120	126	1
13	34	1
112	117	1
57	58	4
69	70	4
10	10	3
68	122	1
58	58	4
117	117	4
50	52	1
43	49	1
63	64	3
29	30	2
126	127	1
131	132	3
70	74	1
109	110	1
73	73	6
2	30	1
123	127	1
48	50	3
63	77	1
110	114	1
10	11	2
112	120	1
68	73	2
48	52	2
112	112	1
25	26	3
15	27	1
71	74	3
22	22	4
38	39	1
66	68	1
127	128	4
88	89	1
96	96	3
12	12	3
19	22	1
20	20	2
59	59	4
32	34	1
121	122	1
23	85	3
18	18	2
79	99	1
113	116	1
77	78	6
24	35	1
11	11	3
78	98	2
61	64	6
100	105	2
128	133	2
118	126	1
81	134	1
76	94	2
32	74	1
44	47	2
110	111	1
68	97	2
15	34	1
22	23	2
44	45	1
21	22	1
5	7	1
78	127	3
13	36	1
100	102	1
108	109	2
21	106	1
32	35	1
72	79	1
60	121	1
88	92	2
96	97	2
111	114	2
111	112	1
60	61	1
81	85	1
77	97	1
37	37	2
7	54	3
116	117	1
126	130	1
124	129	1
115	117	1
135	135	1
58	59	1
87	88	2
71	79	1
19	20	1
28	31	1
63	73	1
18	81	1
14	33	1
130	131	1
89	102	1
69	100	1
81	94	1
49	49	1
92	99	1
78	96	1
98	102	1
83	83	1
69	99	1
8	44	1
28	28	1
18	22	1
12	43	1
68	70	1
67	96	1
