150	150	8
100	100	15
187	187	10
64	65	2
120	120	10
20	20	3
18	18	6
139	139	12
80	80	1
19	19	8
109	173	7
85	85	7
181	182	6
83	136	1
20	113	1
5	21	10
93	93	3
149	153	3
76	77	8
124	136	1
79	134	2
74	154	2
21	21	2
55	113	1
168	168	4
135	176	2
72	72	13
64	64	4
162	162	9
169	169	10
156	188	1
60	60	3
63	73	4
44	44	4
38	40	5
10	10	11
137	140	1
29	29	3
176	176	5
165	165	4
56	56	13
155	166	1
77	77	3
105	105	5
70	71	1
108	136	2
178	180	2
101	174	1
108	111	1
82	82	10
136	136	11
35	35	4
127	128	2
172	173	3
10	12	3
161	161	12
125	125	3
85	86	3
56	87	6
74	155	2
145	145	2
170	170	6
103	106	1
91	91	4
89	89	9
3	7	3
157	157	2
105	106	8
12	14	9
172	172	8
38	38	6
42	42	8
32	32	4
143	144	3
88	88	5
74	74	13
181	181	5
5	5	5
169	182	7
6	6	3
10	11	6
13	13	2
53	53	7
28	28	2
75	75	3
66	66	7
111	111	4
57	57	5
48	48	2
106	106	11
42	90	5
155	163	4
186	186	8
146	146	1
177	180	4
94	94	14
130	133	3
102	103	3
69	70	1
62	63	5
166	166	9
142	142	8
175	176	6
184	184	9
5	6	3
152	152	6
98	98	4
23	24	10
183	187	4
41	41	17
133	133	5
102	102	9
22	33	2
14	46	4
59	71	2
104	134	3
95	111	1
0	2	2
101	101	4
4	4	9
136	137	1
163	167	1
164	164	14
116	116	4
37	37	9
61	63	5
58	58	5
153	153	4
62	64	2
131	131	5
0	44	5
27	27	3
147	147	6
171	171	1
7	7	7
13	14	7
84	84	4
167	168	6
61	65	1
71	71	4
90	90	2
86	86	3
117	118	2
16	16	8
37	41	1
32	57	1
174	180	2
73	103	3
171	173	3
136	138	5
57	72	5
127	127	8
169	181	4
126	126	5
1	7	3
159	159	2
70	70	6
45	46	3
96	97	1
47	48	2
187	189	2
87	87	10
25	25	9
9	12	3
63	104	2
137	138	4
113	113	3
109	110	2
117	117	6
32	33	1
18	21	2
77	79	3
159	160	1
114	114	11
48	89	4
59	59	10
0	4	4
188	188	1
137	137	6
60	62	2
153	154	1
109	109	4
10	17	5
156	165	2
108	181	3
95	95	3
123	123	2
57	61	2
34	34	4
130	131	1
24	25	7
0	0	2
117	136	4
182	182	4
141	143	3
66	67	6
164	166	3
124	144	1
84	177	7
16	22	1
63	63	3
83	83	5
36	36	13
9	9	1
33	34	5
44	45	2
84	86	1
55	58	1
123	145	1
91	158	2
41	42	3
103	103	3
79	103	1
111	112	2
35	38	1
82	174	3
21	34	2
134	134	1
157	161	1
154	154	6
144	144	3
118	119	5
18	19	8
148	148	6
185	186	2
163	164	3
62	62	6
28	31	3
178	178	3
179	179	2
28	48	3
54	54	9
54	55	3
141	170	2
96	96	4
186	187	1
91	161	3
166	172	4
38	47	1
98	105	1
129	129	1
22	36	5
179	180	1
152	153	1
33	58	2
90	91	3
135	136	2
26	26	2
45	45	2
64	70	3
110	110	1
74	75	5
55	55	7
63	115	1
121	122	1
83	176	3
100	118	4
57	68	1
110	177	1
30	30	4
183	183	3
72	100	3
75	133	2
22	23	2
2	40	3
55	73	1
12	12	2
151	151	2
102	133	3
18	20	1
81	81	2
73	73	3
68	104	1
96	98	1
97	117	5
12	13	1
25	62	2
167	167	4
78	78	8
68	68	5
108	108	4
81	146	3
11	14	3
104	152	1
141	141	4
184	185	3
33	33	4
124	124	6
71	86	1
37	38	1
121	135	3
180	181	6
15	15	6
158	158	5
98	99	6
156	156	1
121	121	1
168	169	2
4	6	2
145	147	3
17	17	7
161	162	1
8	8	1
60	70	1
92	92	6
115	115	1
156	157	1
150	154	3
53	54	1
24	65	2
148	151	2
47	47	2
149	149	2
158	161	1
102	122	2
0	36	1
183	184	3
79	79	1
108	180	1
174	174	3
19	20	5
167	187	1
124	135	1
93	95	2
22	34	3
116	181	3
42	46	2
9	44	2
0	6	2
55	56	2
31	176	1
118	118	1
85	90	1
175	175	2
125	129	1
122	122	5
107	112	2
40	40	1
135	135	2
163	163	2
61	61	2
45	47	2
96	106	1
3	39	1
115	119	1
180	180	2
84	180	1
106	121	1
34	41	5
60	114	1
2	2	2
29	39	1
115	177	1
34	48	4
166	167	1
189	189	1
52	72	1
139	144	1
21	62	1
1	5	3
25	61	2
59	60	2
83	177	2
83	184	4
26	27	5
167	189	3
5	10	1
107	108	2
91	95	2
69	104	1
148	161	2
70	116	1
126	127	4
99	103	1
167	188	1
36	49	3
11	13	1
120	157	1
133	134	2
68	74	1
138	139	3
79	81	1
99	99	2
3	3	2
105	151	1
31	32	1
28	40	1
119	161	1
159	161	3
4	5	1
120	176	2
84	85	2
19	42	3
164	165	1
89	91	1
65	65	2
76	103	1
99	100	1
106	107	1
103	111	2
134	177	1
182	188	1
52	55	1
100	101	1
187	188	1
37	47	2
85	176	1
15	17	1
58	96	2
185	185	2
155	155	2
87	110	1
114	115	1
53	62	1
86	116	1
154	155	1
82	181	1
28	30	2
101	127	1
69	73	1
79	80	1
130	154	1
110	111	1
57	58	1
138	138	1
74	112	2
188	189	1
84	173	1
84	172	1
1	10	3
17	18	1
128	128	2
170	173	1
173	173	1
143	143	1
40	41	1
36	48	1
110	138	1
8	46	1
119	119	1
46	46	1
171	172	1
137	139	1
176	177	1
71	79	1
67	68	1
30	32	1
61	136	1
28	29	1
106	124	1
96	111	1
11	16	1
134	136	1
