14	14	18
17	17	9
29	29	8
150	150	9
57	57	3
170	170	5
126	126	13
51	51	9
7	7	7
95	122	2
62	62	5
72	72	9
27	27	23
141	153	2
13	14	9
16	18	3
174	174	10
179	179	10
104	105	6
3	3	19
23	23	9
88	89	5
84	86	2
35	35	17
6	9	2
81	81	11
7	19	4
100	103	3
163	163	7
144	145	2
71	71	3
105	105	9
19	19	13
67	86	1
166	166	7
4	19	2
148	148	7
14	45	3
98	99	3
30	30	12
36	37	3
3	41	4
71	74	2
20	20	6
161	161	4
18	24	3
61	66	2
10	10	19
110	110	12
15	16	6
165	165	6
22	22	7
9	12	3
36	39	2
114	114	8
92	93	4
94	95	2
82	95	2
114	115	7
19	20	4
36	36	18
6	7	8
107	108	10
26	29	3
112	112	5
24	24	10
127	127	7
20	21	5
32	32	22
99	99	9
11	12	6
161	167	4
60	60	3
110	117	3
141	141	9
157	160	1
95	95	14
106	107	2
62	114	3
41	42	4
89	89	5
20	25	1
56	57	4
93	104	4
49	163	1
58	59	2
122	123	2
107	107	6
6	6	15
118	127	2
143	146	5
17	24	7
133	133	5
37	38	3
59	59	10
12	17	5
146	146	7
44	44	3
68	79	2
96	96	5
134	135	5
173	173	6
59	60	4
70	79	3
21	22	5
8	8	10
155	155	13
78	78	3
134	134	7
176	176	10
140	141	1
159	160	5
159	159	6
151	151	5
15	19	4
138	139	1
119	119	3
6	15	5
41	41	9
137	138	4
4	5	4
162	162	2
22	23	2
22	26	6
16	17	2
38	39	6
30	32	1
171	171	6
9	31	3
9	9	8
89	90	3
116	117	6
111	111	10
25	25	18
33	33	8
0	0	7
53	53	5
11	17	4
153	153	7
26	26	10
167	168	6
2	41	2
65	141	2
123	125	1
118	130	3
21	21	5
31	31	8
9	11	12
142	142	7
27	32	3
57	58	2
18	18	6
126	148	3
88	88	8
118	118	4
91	92	5
96	115	4
131	131	2
74	74	8
58	71	1
21	36	3
139	139	4
177	177	2
42	42	12
95	96	1
67	67	5
35	36	6
38	41	1
83	83	3
158	167	3
5	7	7
83	85	2
123	124	7
92	106	1
163	168	2
150	151	6
97	97	8
11	11	9
32	36	2
135	143	3
152	174	3
164	164	5
4	8	6
58	159	1
55	58	1
78	79	4
116	116	2
128	128	2
78	162	2
124	124	5
122	122	14
85	86	2
84	85	5
105	106	5
39	41	2
178	180	1
17	18	3
93	93	5
132	132	6
15	15	11
18	19	1
94	94	6
28	28	2
63	64	2
173	174	2
65	65	3
143	151	2
104	104	2
166	167	5
170	172	5
37	37	11
159	162	2
38	38	8
73	177	2
39	39	5
178	178	5
73	89	3
161	162	2
26	27	4
23	30	1
178	179	2
43	45	4
121	121	4
43	44	2
129	130	5
46	46	3
71	75	3
35	39	2
84	84	1
106	106	5
4	6	1
106	143	2
112	117	1
50	51	3
75	75	2
130	131	2
8	20	1
168	173	2
135	135	5
27	29	6
165	167	4
12	12	4
170	171	5
144	170	2
16	16	6
11	25	2
109	112	4
27	28	3
156	173	1
7	9	8
157	157	3
115	115	2
117	117	2
80	80	3
11	30	2
146	147	1
64	65	4
20	24	2
2	3	8
45	45	7
168	169	4
2	4	5
126	146	2
140	142	1
123	123	5
97	98	6
76	77	2
89	94	1
40	40	7
156	156	3
5	6	5
172	172	1
73	73	6
13	13	3
8	9	6
70	71	3
129	129	2
101	146	4
136	136	2
119	120	2
3	4	4
175	176	2
144	144	3
180	180	2
44	45	4
65	115	2
155	156	3
66	86	3
6	93	4
168	168	2
3	19	3
26	31	2
68	68	1
120	120	4
99	101	3
28	31	1
27	31	2
108	118	1
52	52	6
12	14	2
86	86	3
54	82	1
108	108	3
61	61	3
146	148	1
64	64	1
2	2	4
9	15	1
11	22	1
117	118	4
29	31	3
15	30	4
93	105	4
169	170	1
98	98	3
21	38	1
28	29	2
110	115	1
1	1	2
32	33	2
136	137	1
163	164	6
138	138	6
175	179	1
10	23	3
34	34	5
160	161	1
167	167	5
11	15	3
0	1	1
79	79	3
22	45	4
159	161	2
5	14	1
144	157	5
125	126	1
63	63	1
137	137	1
156	160	3
132	154	2
4	40	2
96	98	2
76	76	3
43	43	6
11	16	2
31	32	3
3	9	6
9	20	1
149	149	4
23	28	1
18	43	1
141	142	2
19	24	2
77	79	1
8	23	1
84	91	1
59	78	1
1	3	2
12	13	8
52	85	1
75	140	2
142	143	1
118	120	1
22	42	1
113	114	4
143	172	1
113	113	5
103	104	2
91	91	2
110	111	1
64	71	2
19	22	1
155	158	4
56	56	4
123	147	2
37	39	1
155	167	1
73	74	2
40	41	1
5	68	3
150	173	1
31	36	3
5	5	3
157	158	4
71	111	1
19	29	1
73	140	1
154	157	2
9	33	1
70	172	2
128	129	3
16	38	1
112	115	1
142	144	2
99	103	2
135	136	1
8	43	1
82	82	1
39	40	2
159	172	1
24	25	2
140	140	2
80	81	2
97	136	2
7	31	1
3	5	1
109	109	1
53	108	3
143	148	1
4	38	2
20	34	1
60	61	1
143	143	2
11	14	2
53	54	1
72	122	2
81	85	2
4	26	1
87	105	2
27	30	1
73	75	1
92	164	1
26	30	1
157	164	1
172	173	2
34	36	3
152	153	3
145	145	3
34	35	2
37	108	1
87	88	1
25	29	1
151	155	1
75	153	1
84	87	1
57	61	1
23	32	1
124	125	1
6	36	1
70	70	1
146	171	1
175	175	1
169	172	1
123	179	1
9	45	2
4	7	1
5	29	2
63	114	1
101	101	2
112	114	1
42	43	1
95	100	1
23	24	1
29	30	2
121	122	1
61	74	1
9	16	1
14	17	1
0	5	1
77	78	1
0	7	1
87	87	2
165	166	2
85	85	1
85	105	1
90	90	1
122	133	1
3	18	1
93	131	1
5	9	1
154	154	1
