23	23	3
4	4	8
141	141	15
15	16	4
117	117	1
108	110	5
125	125	5
109	109	9
23	36	2
1	3	3
134	135	6
103	103	13
146	146	7
94	94	3
163	163	8
102	103	9
105	106	5
39	40	4
54	54	10
0	1	4
115	115	6
135	135	2
111	143	4
88	88	13
120	124	1
116	116	6
146	163	6
63	65	2
22	32	2
3	4	3
113	113	10
186	186	1
178	179	7
3	3	10
176	182	6
148	148	11
149	149	7
72	74	1
79	79	9
18	19	4
47	47	5
170	170	4
46	46	9
44	62	7
139	139	6
60	61	2
42	44	8
113	154	2
86	86	9
13	13	9
90	90	18
17	17	11
122	122	14
91	91	6
2	2	8
138	138	14
162	163	4
109	111	3
142	142	9
107	107	6
81	81	7
104	121	2
16	16	15
1	1	7
145	145	5
94	99	1
185	185	8
14	14	17
97	102	3
166	166	7
90	91	11
77	78	9
36	36	7
119	123	3
106	106	8
43	62	2
112	112	13
146	148	2
153	153	11
141	142	2
38	38	5
30	31	5
12	12	10
112	113	11
87	87	9
154	154	10
139	140	1
135	136	2
97	100	4
71	71	4
182	182	1
78	78	14
76	86	3
6	42	1
118	119	3
151	151	8
136	143	2
48	48	7
128	128	3
133	133	10
171	171	3
123	123	7
10	27	2
45	46	1
120	120	11
121	140	3
37	37	6
36	42	3
188	189	7
67	74	3
42	43	2
116	117	4
85	86	2
58	58	10
103	129	5
143	143	6
106	107	3
121	121	9
84	84	11
39	39	10
60	60	11
85	94	3
42	42	13
29	29	4
86	91	2
103	123	2
41	41	18
184	185	6
141	144	2
21	22	4
111	111	10
38	48	4
175	181	2
54	56	2
183	183	6
53	53	4
131	131	6
173	173	5
28	29	3
93	94	3
5	6	3
23	24	5
41	42	6
118	118	2
33	33	2
69	69	1
114	114	1
129	135	3
137	137	7
159	159	6
99	99	5
46	47	2
21	21	7
92	97	3
102	130	5
33	34	1
15	15	5
42	85	5
43	63	3
74	74	8
6	9	5
76	76	5
108	108	6
89	89	15
65	85	2
40	40	5
10	10	7
55	56	5
153	154	4
103	130	2
57	57	8
67	67	4
172	174	3
160	160	2
1	2	8
44	45	7
54	55	3
8	8	10
156	156	11
35	37	5
87	89	1
58	62	2
169	169	2
158	158	2
40	41	4
146	150	1
55	55	4
78	79	2
95	95	12
134	142	1
24	37	1
144	145	1
6	6	13
70	70	3
70	75	1
168	168	3
161	161	3
147	147	8
35	41	2
119	119	1
57	58	2
35	36	3
84	109	4
71	72	9
153	159	2
185	186	3
0	0	12
77	77	4
168	170	1
123	124	2
136	137	3
48	49	1
28	30	3
127	128	5
125	151	7
62	62	3
7	7	20
56	56	8
27	27	4
104	105	1
25	25	4
172	172	4
96	105	2
177	177	6
62	63	3
168	178	2
38	39	1
81	83	2
150	151	2
19	19	4
24	24	3
184	184	9
25	173	7
59	80	3
114	115	3
20	22	2
78	80	2
121	122	10
11	11	3
19	20	9
116	118	3
101	102	4
176	180	2
83	83	3
22	22	3
153	173	1
140	184	3
9	10	2
187	188	2
73	73	4
156	157	2
84	110	1
142	144	2
17	18	2
6	10	7
32	32	4
187	187	1
57	68	2
159	186	3
147	148	5
66	84	1
80	80	4
85	85	5
156	158	2
106	108	1
35	35	1
83	84	6
178	178	4
132	145	1
87	95	2
16	17	1
124	124	6
6	7	4
136	139	3
23	32	3
12	28	1
125	140	4
139	141	2
31	31	7
183	184	2
121	123	2
123	129	3
137	138	2
154	159	1
124	169	2
59	66	1
11	12	2
75	93	1
68	76	2
72	72	1
37	45	3
102	102	5
132	133	1
152	152	6
124	125	2
8	24	2
156	167	2
162	162	1
52	52	3
18	18	3
136	136	2
110	110	1
61	65	1
136	164	2
97	98	2
59	61	2
160	161	2
84	86	1
125	126	1
58	68	1
86	170	1
182	183	2
111	112	4
101	101	10
7	8	1
174	174	1
26	29	3
64	85	3
3	7	2
131	132	2
97	103	2
165	177	2
77	91	2
58	80	1
10	11	2
30	30	2
129	129	5
190	190	2
96	97	1
63	63	4
45	45	1
102	104	1
90	92	1
14	15	4
7	27	1
99	103	1
13	14	1
120	122	1
59	59	1
20	20	3
158	161	3
97	97	4
24	33	3
93	93	1
155	155	1
95	96	1
32	33	1
87	88	1
154	156	1
66	107	2
77	86	1
171	173	1
80	81	1
117	118	1
78	117	1
155	156	1
148	149	1
10	12	1
154	155	1
126	126	1
169	170	2
148	150	1
120	123	1
140	140	4
154	157	1
167	167	1
13	23	2
164	164	1
98	98	1
75	75	1
5	5	3
110	141	1
103	104	1
24	38	1
100	118	2
27	29	1
2	47	2
188	188	1
83	86	1
91	92	2
22	25	2
2	3	3
24	25	1
166	167	1
82	82	3
113	114	1
63	64	1
56	57	2
109	153	1
65	65	1
135	164	1
104	104	1
161	186	1
92	92	1
137	146	1
100	104	1
142	151	1
180	180	1
132	149	1
140	185	1
4	5	2
87	119	1
128	134	1
109	165	1
88	89	1
158	187	1
134	134	1
77	79	1
99	100	1
105	111	1
15	23	1
104	106	1
157	158	1
