14	14	81
27	27	62
170	171	14
28	33	1
3	3	55
119	119	20
4	10	4
57	58	3
18	20	7
22	27	2
12	12	44
39	39	48
106	106	22
87	88	4
81	82	12
123	124	8
10	10	71
12	13	29
7	8	26
33	33	61
65	65	14
98	98	4
142	142	17
144	144	30
52	53	9
86	86	17
20	20	39
151	151	20
79	79	19
139	142	4
44	44	53
55	55	29
17	17	39
23	23	40
157	157	33
103	104	4
55	56	14
63	68	4
20	28	2
0	1	9
25	28	5
19	45	4
22	22	58
129	136	3
3	7	8
24	28	4
8	8	46
16	29	1
43	45	10
1	1	21
41	41	31
130	130	16
6	6	47
0	0	29
4	4	45
18	18	47
102	102	17
40	40	48
113	113	31
62	62	11
35	35	46
165	165	13
125	125	11
77	77	17
94	94	17
88	88	20
138	138	29
25	26	10
132	132	20
151	152	11
108	108	35
122	122	17
24	27	10
72	72	23
95	95	12
118	119	5
38	38	46
42	42	27
23	28	4
33	34	10
59	83	8
19	19	49
24	35	2
5	5	50
26	27	12
36	39	4
158	160	2
128	136	5
25	25	52
23	24	8
170	170	15
160	160	21
80	83	4
32	32	66
99	100	7
26	29	4
0	58	1
67	67	8
80	81	6
83	85	5
11	11	42
111	111	23
27	28	14
136	137	4
35	37	6
28	28	34
59	59	19
19	31	4
8	39	2
10	11	15
58	61	2
24	25	41
94	95	8
120	122	2
141	151	6
107	107	18
179	179	18
84	88	4
92	93	7
83	83	17
6	16	2
140	140	10
60	60	20
142	143	18
9	9	51
151	166	7
115	115	11
90	90	16
53	53	19
26	26	61
148	148	21
103	103	15
92	92	23
5	10	2
144	145	3
150	150	21
28	30	19
134	136	2
36	36	24
17	18	15
134	134	15
152	155	2
133	133	18
167	167	32
76	76	18
50	51	14
7	7	32
137	137	25
31	37	7
159	159	29
62	63	7
21	21	22
19	20	10
129	129	27
29	39	2
66	67	8
27	29	8
161	162	12
13	13	82
26	30	10
39	40	27
28	44	4
56	56	16
21	27	4
123	125	3
149	149	34
34	34	35
16	17	14
14	37	3
43	44	16
32	35	2
127	127	22
81	81	13
0	2	1
6	12	4
68	68	10
79	80	7
16	16	33
29	29	33
15	15	49
4	7	12
37	40	6
120	120	14
2	2	29
176	176	22
8	11	6
119	121	3
1	14	4
84	103	8
105	107	5
25	32	5
116	117	8
10	16	5
176	177	2
131	131	31
98	99	6
9	19	2
30	30	46
81	83	7
164	165	2
86	88	5
6	14	6
158	158	18
28	29	24
79	82	1
172	176	3
124	124	11
136	174	2
154	154	13
63	73	5
88	111	1
110	118	3
126	126	28
29	33	1
168	169	8
78	89	8
35	36	5
3	12	2
172	172	19
31	33	3
175	175	11
98	101	2
56	58	2
21	22	18
114	117	2
71	75	2
75	76	9
164	166	2
87	102	4
171	171	18
157	170	1
32	44	1
3	111	1
29	32	2
31	31	46
8	41	1
6	7	13
110	110	16
136	136	26
128	128	16
8	9	14
173	173	32
179	180	8
87	89	9
149	150	6
173	174	10
64	64	21
30	31	16
156	160	4
169	169	19
118	118	19
163	163	14
140	141	8
139	139	32
101	178	1
63	85	2
150	164	2
174	174	22
105	109	8
31	32	16
1	2	5
101	101	10
13	14	22
146	146	14
110	113	3
145	145	14
92	101	1
151	153	5
24	24	61
87	100	3
18	29	2
38	39	11
121	121	15
18	24	6
82	84	1
36	41	2
37	38	12
143	143	13
177	177	9
163	165	8
41	44	3
104	104	6
119	130	5
142	144	6
55	57	3
45	45	33
61	61	22
152	152	25
11	12	18
123	123	22
79	142	1
5	6	25
16	23	5
89	89	15
75	75	19
124	125	13
21	42	1
156	158	2
44	45	5
156	178	2
32	33	20
112	170	3
4	5	12
21	23	5
34	35	12
29	37	2
32	43	2
52	55	3
115	120	2
165	168	2
93	94	6
22	23	11
97	114	4
85	88	10
8	10	7
91	91	18
127	136	3
150	152	5
20	21	14
57	57	2
159	171	4
12	92	2
15	17	8
16	18	19
161	161	5
3	15	2
52	52	19
123	127	2
93	93	11
36	37	5
63	63	22
154	155	10
96	101	1
4	6	6
65	68	4
151	158	1
119	156	4
78	78	12
12	14	6
22	33	7
108	134	1
121	128	3
138	147	3
132	133	8
161	165	1
40	41	7
151	160	2
147	147	20
15	16	12
24	26	7
2	9	2
163	169	4
14	36	3
36	40	1
50	50	11
133	173	4
81	86	5
5	14	4
135	135	28
147	149	1
120	127	2
124	158	2
23	25	12
17	31	1
6	24	3
56	57	5
65	84	2
138	148	1
79	102	2
73	73	12
76	78	4
126	128	3
20	22	5
54	56	2
120	126	2
117	119	9
9	12	12
11	38	6
123	173	2
157	158	9
2	6	4
28	31	7
165	167	2
4	8	4
95	96	7
110	111	6
150	178	3
101	102	9
171	172	5
54	55	1
168	168	26
30	45	3
155	156	6
125	126	7
66	66	14
121	123	4
29	34	2
116	119	1
136	139	4
8	42	7
26	31	2
141	146	1
60	89	1
84	85	2
113	114	2
97	109	2
9	26	2
29	30	26
6	13	6
43	43	21
127	128	16
18	19	7
51	52	1
111	112	6
42	44	3
5	11	3
128	131	1
54	54	12
74	76	3
49	49	10
80	84	3
3	4	20
156	165	1
120	121	5
64	68	1
23	27	6
3	9	14
60	61	6
9	11	18
156	156	20
152	153	10
16	22	3
123	126	3
91	92	4
136	140	6
80	80	19
155	155	10
1	6	7
121	136	3
35	43	2
152	160	3
18	22	1
153	158	2
84	84	13
42	45	2
180	180	24
97	97	9
173	176	1
4	18	6
166	166	7
62	73	7
130	131	7
141	141	13
121	124	1
77	78	6
126	127	7
115	116	10
118	171	2
156	169	1
156	168	2
82	141	3
18	36	1
45	46	5
154	156	1
116	170	1
64	65	4
163	166	5
158	167	2
49	51	1
58	59	3
71	71	14
175	176	2
156	161	2
153	153	15
2	10	4
8	12	6
114	116	7
7	12	2
37	37	37
3	24	4
110	117	3
8	13	5
63	71	2
23	29	1
87	87	12
19	25	1
74	75	3
40	42	4
151	168	1
85	85	7
158	171	4
10	40	2
43	46	4
59	60	6
2	3	4
65	74	3
21	28	5
41	43	9
27	30	6
177	178	10
127	144	4
8	59	1
71	72	6
19	44	3
41	42	14
46	46	3
5	15	1
63	67	5
3	11	4
25	30	2
42	43	6
90	91	5
122	131	2
88	106	1
5	9	4
22	25	2
25	29	5
27	31	9
96	96	14
5	7	9
70	70	7
5	8	3
158	159	8
30	40	3
100	101	2
112	112	13
30	39	3
163	164	8
63	81	1
117	117	10
39	41	9
117	170	1
129	130	7
126	155	6
26	44	2
120	168	3
13	17	4
106	109	1
127	173	2
114	114	17
82	86	1
127	143	2
166	167	10
113	120	4
137	138	5
9	10	9
4	15	4
82	82	8
23	26	14
29	31	3
131	142	3
98	109	2
3	113	3
61	62	2
38	83	1
100	100	10
146	147	4
67	68	1
12	45	1
21	29	4
22	26	7
12	26	5
17	40	4
121	122	9
53	54	3
28	39	3
164	164	15
150	151	4
11	43	1
94	102	3
80	89	2
116	116	14
64	66	2
25	33	4
2	22	1
3	18	2
178	178	17
82	83	1
13	16	2
76	77	8
121	132	2
113	115	3
105	140	1
89	90	1
139	140	10
7	16	2
29	43	4
152	154	2
13	92	1
4	12	3
4	9	5
90	111	1
66	73	1
24	31	2
54	93	3
24	30	1
169	170	1
12	25	1
21	25	7
131	132	2
61	80	2
26	28	17
21	44	1
152	156	1
176	178	3
14	17	4
78	79	7
19	22	4
151	164	3
139	179	5
124	142	3
119	120	1
5	45	4
83	84	7
9	42	2
17	27	8
160	161	6
2	4	1
98	100	4
51	51	9
13	15	5
9	15	2
127	135	1
3	114	3
24	33	1
140	175	1
7	10	10
104	106	2
109	109	10
6	40	2
10	18	6
10	43	3
36	55	3
5	111	3
77	97	1
10	44	1
79	81	2
134	139	2
132	137	2
2	12	3
13	24	4
136	143	1
99	107	1
15	23	4
96	97	6
107	108	4
93	106	4
25	43	3
117	129	1
136	142	1
150	166	1
5	13	4
84	87	5
30	44	4
3	5	6
65	66	7
150	154	2
74	74	6
28	42	4
131	136	5
2	17	2
14	15	6
106	107	6
135	136	7
57	59	8
23	40	1
114	115	4
83	104	1
10	41	1
143	144	8
19	28	2
167	171	2
124	145	1
36	43	3
87	104	4
107	109	12
160	178	5
63	64	1
119	168	3
148	149	1
76	86	1
94	96	5
108	114	5
127	145	5
99	99	2
36	38	5
105	105	6
24	36	1
12	16	3
35	40	2
1	60	2
19	46	2
141	142	2
14	16	3
2	14	2
122	136	1
159	167	4
19	21	5
132	134	4
162	167	1
153	154	4
146	148	1
114	120	1
58	58	2
7	9	4
105	106	4
30	42	4
108	109	7
80	88	3
174	175	4
77	99	1
32	37	3
137	139	2
98	114	4
157	165	2
162	162	5
19	41	2
26	41	2
53	55	3
37	42	2
33	43	1
63	66	1
142	145	2
90	103	2
129	141	1
4	13	2
160	162	4
50	52	3
100	108	1
128	144	2
120	124	1
20	44	1
103	107	1
9	13	1
92	94	1
20	42	3
59	62	1
91	94	2
63	86	1
87	99	3
115	170	1
17	19	3
28	40	1
3	6	1
132	136	1
31	40	1
118	168	2
176	179	1
6	25	1
158	165	2
128	133	5
126	158	1
95	103	1
26	32	2
24	43	1
156	157	2
1	5	2
102	103	4
7	45	1
143	145	6
89	104	5
158	174	1
1	16	1
71	74	1
29	42	2
2	8	1
153	179	3
65	67	2
25	44	5
93	95	1
161	174	1
38	41	2
13	18	1
140	174	2
97	100	2
83	102	2
9	35	1
170	174	4
16	39	1
17	34	1
109	116	3
136	171	1
170	172	3
51	54	3
68	83	2
121	156	4
138	179	2
151	154	1
129	135	1
36	70	1
133	149	2
100	102	1
147	148	3
159	161	2
96	98	1
6	44	1
89	94	1
4	11	3
87	103	2
161	168	4
14	24	2
8	14	2
10	42	1
145	146	4
20	26	1
5	12	4
109	117	3
138	139	3
131	133	1
99	101	4
57	77	4
72	87	2
1	4	2
17	26	2
3	10	3
74	103	2
17	24	3
119	129	1
85	87	2
57	60	1
130	151	5
6	10	2
31	34	3
89	111	2
65	73	2
38	42	3
105	144	1
133	138	1
81	141	2
35	45	2
55	59	1
29	44	1
72	73	2
7	15	1
5	112	4
6	113	1
7	13	2
101	129	2
117	130	2
167	168	4
10	39	2
29	45	2
24	45	1
2	11	1
157	169	2
137	146	1
120	125	1
132	138	1
164	169	1
117	118	2
11	15	5
85	89	2
73	74	3
22	30	1
109	118	1
118	170	1
2	15	2
83	86	2
172	174	1
154	177	1
16	19	2
83	105	2
87	106	2
3	16	2
13	127	1
100	109	1
19	34	1
164	167	1
112	113	1
126	157	4
16	37	1
156	159	1
21	43	1
82	89	1
169	174	2
117	121	1
3	37	1
118	172	2
21	31	2
126	136	2
117	128	1
128	134	1
150	159	1
82	90	1
159	168	1
40	45	1
75	88	1
38	40	2
80	85	1
44	46	2
102	175	1
89	102	1
107	121	3
9	16	1
133	134	4
56	61	3
155	160	1
9	18	1
130	164	1
106	143	1
11	37	1
131	134	1
34	43	1
50	53	2
108	171	1
28	36	1
34	42	1
2	18	2
122	132	1
25	34	2
159	163	2
5	18	1
13	22	1
38	43	3
82	142	1
88	89	2
4	16	3
140	173	1
59	74	1
161	163	1
1	17	1
88	102	5
85	86	2
12	24	2
159	160	2
7	11	1
41	45	1
61	86	2
151	156	1
118	169	1
157	159	2
116	120	1
94	106	1
83	136	1
25	31	1
128	130	1
99	109	1
29	36	1
54	61	1
10	37	1
142	150	1
137	145	1
61	81	1
109	120	1
76	93	1
136	141	1
2	111	1
120	128	3
172	173	2
68	72	2
133	142	1
21	39	1
151	178	1
154	168	2
129	150	2
175	179	1
11	13	2
37	39	1
151	155	1
32	36	2
5	24	1
23	35	1
32	34	1
82	85	2
123	134	1
105	108	1
147	153	1
134	147	1
12	23	1
131	143	1
22	70	1
19	30	1
16	31	1
140	142	1
55	58	1
28	41	1
3	14	1
61	79	4
31	43	1
22	31	1
159	162	1
65	71	1
26	33	1
17	20	1
149	173	1
83	88	1
64	71	1
9	40	1
115	119	1
118	129	1
12	17	1
59	136	1
20	41	1
5	44	1
171	174	1
21	33	1
19	24	1
11	16	1
18	21	1
36	58	1
167	169	1
118	120	1
150	163	1
