18	18	18
88	100	2
65	65	14
203	203	6
211	212	2
156	163	3
212	212	6
39	39	9
20	20	10
190	190	17
78	83	3
210	211	5
119	119	20
148	148	15
44	44	7
162	208	3
62	74	9
54	54	11
175	175	9
149	149	9
242	242	3
230	230	13
123	125	4
114	114	11
11	15	9
125	126	4
64	64	9
108	108	4
59	60	11
192	195	3
78	79	6
9	122	1
206	207	4
121	128	1
50	77	5
174	174	5
79	85	3
42	42	25
141	156	4
99	99	17
78	78	9
161	161	7
6	17	11
98	98	10
194	196	1
142	147	2
56	56	11
45	45	16
186	186	4
187	231	4
182	182	4
67	68	3
22	28	3
47	47	15
104	104	11
30	30	11
79	79	20
49	50	4
63	63	5
230	231	3
137	137	5
1	1	14
158	158	4
44	45	6
173	202	7
204	205	4
73	73	8
201	227	3
78	85	1
67	67	6
86	86	18
199	200	7
75	129	1
2	49	5
160	160	10
62	62	9
231	231	3
33	33	9
187	187	5
8	8	4
160	161	4
115	115	12
120	121	7
140	174	2
3	3	16
2	66	3
88	105	1
25	27	2
82	82	7
237	237	10
124	126	3
57	60	4
155	155	4
82	84	4
54	55	4
198	199	3
37	38	3
16	16	12
57	154	2
215	216	8
17	17	14
147	147	4
185	187	1
21	22	5
103	103	11
4	4	14
79	80	1
48	48	13
85	85	10
76	76	8
141	143	4
188	188	3
45	152	1
14	15	1
241	242	4
194	194	7
9	73	2
34	34	13
99	100	5
157	157	8
125	125	3
12	12	8
25	25	13
53	54	2
210	210	6
84	84	15
37	37	6
212	213	9
38	38	18
224	225	4
128	128	8
151	151	3
25	26	2
159	178	2
70	70	4
20	23	2
169	169	11
21	21	10
16	17	7
139	140	2
63	73	3
97	97	5
117	129	1
141	160	1
32	44	1
177	177	6
89	89	2
30	31	14
75	77	4
76	77	7
56	58	1
13	13	10
46	54	3
22	24	2
192	193	7
140	143	2
84	85	5
41	41	9
178	209	2
66	66	11
174	181	7
51	51	2
14	14	8
9	9	8
19	19	18
113	131	1
196	225	6
58	58	14
82	137	4
10	10	5
158	159	2
52	53	2
83	84	13
50	50	6
150	150	5
23	158	6
184	185	5
178	178	7
225	225	9
191	191	15
21	23	5
4	108	2
209	209	7
10	120	3
226	227	6
40	40	9
68	68	13
239	239	8
15	15	3
209	210	2
178	212	1
52	54	2
1	3	5
100	100	9
35	36	8
31	31	16
222	222	2
53	53	6
6	6	13
187	188	3
107	107	4
127	165	3
4	5	3
60	61	3
24	24	7
149	150	2
5	6	9
183	183	13
189	189	2
189	190	8
48	49	2
37	65	2
34	36	1
104	105	8
71	71	10
198	211	1
217	225	2
229	229	8
112	112	6
7	7	14
218	226	9
29	29	9
216	218	6
80	80	15
11	11	17
46	48	1
219	226	2
57	57	11
216	216	4
34	80	1
206	208	2
185	185	16
32	32	9
52	52	7
103	104	11
13	81	2
40	41	4
47	167	2
227	231	1
112	113	4
179	232	4
140	140	4
85	86	3
26	26	18
61	97	3
219	219	8
107	126	2
7	78	3
35	35	4
5	29	6
45	46	4
13	16	4
3	8	3
25	200	1
61	65	2
49	49	9
173	173	2
69	69	13
192	223	3
122	122	5
236	236	8
65	66	2
59	89	2
78	99	1
180	182	4
144	145	1
44	66	3
178	199	1
127	127	5
19	20	4
177	199	3
28	128	3
75	75	11
119	133	2
186	187	3
137	152	1
194	195	3
211	211	4
95	95	7
39	63	7
83	83	5
60	60	13
172	173	1
77	78	1
43	43	7
166	166	11
141	141	5
61	61	12
140	142	5
88	99	1
42	44	1
217	217	10
0	0	11
1	49	1
74	74	13
8	77	2
46	46	15
138	139	9
188	190	1
163	163	4
68	69	3
116	116	4
33	49	3
217	218	7
134	134	7
200	200	5
113	134	3
173	174	4
40	46	2
179	179	12
8	126	5
101	105	8
107	108	4
7	8	2
28	29	2
80	118	2
206	219	3
179	180	1
179	209	3
109	128	3
102	102	8
77	77	3
193	193	6
33	65	4
43	86	4
139	141	6
23	172	4
23	23	8
22	22	11
55	72	1
196	224	1
240	240	7
115	117	1
54	71	1
204	204	8
180	180	12
165	165	2
161	236	1
15	48	3
56	57	4
146	146	5
206	237	5
220	220	6
31	32	5
151	178	3
224	224	4
28	39	4
28	28	8
3	5	3
17	18	1
141	148	1
21	66	1
199	199	8
81	82	6
182	228	1
56	88	1
102	103	5
106	108	3
204	210	2
42	138	2
201	201	4
0	47	1
77	79	1
182	187	5
234	234	9
156	156	6
65	72	3
228	228	7
46	61	1
139	174	1
236	237	2
51	53	2
165	175	2
113	113	5
170	170	5
174	175	4
141	151	1
9	85	5
111	133	1
19	28	2
55	100	1
57	58	3
13	223	2
64	68	10
214	214	1
162	165	1
183	232	1
15	32	1
216	227	1
77	118	2
88	88	7
42	43	6
228	231	2
59	59	8
39	54	1
235	236	2
28	37	2
184	184	3
81	83	1
142	233	3
26	27	1
178	201	2
192	192	6
22	23	3
213	229	3
215	215	7
55	56	1
1	168	1
76	121	1
142	144	1
177	220	1
117	117	5
203	236	1
13	14	2
173	221	1
6	7	5
218	218	2
207	208	2
24	173	3
66	67	6
182	183	1
141	234	1
221	221	5
219	220	3
46	47	6
24	25	1
4	6	3
233	234	3
117	130	2
63	74	1
32	47	6
181	181	2
190	191	2
16	30	1
184	188	1
139	152	1
0	169	3
43	143	4
139	139	1
55	55	4
238	238	5
206	206	2
136	137	1
1	48	2
27	27	2
12	13	2
72	72	8
120	120	2
120	133	2
156	165	3
216	217	1
234	235	2
214	230	1
11	52	3
20	32	2
7	35	2
201	202	1
121	121	4
11	12	1
128	129	1
111	112	1
176	176	5
154	154	3
6	28	2
143	143	2
33	54	2
167	167	1
142	152	4
213	213	1
159	159	3
2	75	1
2	2	10
241	241	5
154	155	1
71	73	1
102	105	2
14	223	2
4	36	2
145	145	4
4	107	2
114	119	2
198	198	3
69	70	1
144	144	3
164	164	8
223	223	1
233	233	1
156	158	3
30	96	2
101	101	8
58	59	5
113	114	1
173	181	1
76	128	1
202	202	1
117	125	1
235	235	3
173	227	1
35	80	4
121	122	2
15	16	3
51	52	3
128	130	2
205	206	2
201	219	1
23	179	2
20	24	1
179	231	2
32	33	2
3	78	1
201	226	3
15	85	3
105	105	4
109	109	3
147	148	3
41	152	2
122	123	1
221	222	2
75	120	3
160	162	3
55	64	2
8	78	1
15	66	1
55	88	4
91	129	2
126	126	4
193	195	2
203	235	1
71	72	3
138	138	6
13	15	1
232	232	1
17	19	4
39	135	1
68	109	1
63	71	3
185	231	2
212	229	1
141	174	2
15	193	1
38	39	2
164	165	1
29	68	1
228	230	1
18	19	2
21	32	1
24	29	2
37	101	1
55	101	1
218	224	1
8	123	1
34	102	2
65	67	2
172	227	1
46	154	2
144	146	1
5	5	2
40	42	2
76	114	2
200	201	2
45	170	4
20	21	1
207	207	3
196	196	3
63	65	2
195	196	1
88	122	2
17	51	1
200	220	1
160	208	2
63	88	1
159	221	5
2	76	2
106	106	3
96	97	1
150	151	4
193	197	2
189	223	2
123	123	2
133	133	1
142	145	1
86	188	1
169	170	2
120	129	1
62	63	1
121	219	1
227	227	2
3	29	1
82	83	5
158	221	1
143	146	1
153	154	1
192	194	1
43	70	1
218	230	2
105	106	1
41	153	1
0	170	1
14	19	5
155	169	2
143	152	1
44	67	1
130	132	1
72	73	1
119	130	2
0	49	2
36	36	1
48	72	1
182	231	1
20	171	1
184	187	1
45	138	2
81	132	1
40	152	1
215	229	1
34	35	1
102	104	1
143	173	1
71	137	1
109	110	1
92	92	2
75	78	1
20	70	1
175	208	2
101	106	1
140	173	2
182	227	1
3	6	1
45	47	3
161	162	1
214	229	1
138	152	1
73	171	1
162	163	1
27	28	1
12	15	1
200	224	1
1	30	1
36	38	1
156	157	1
56	59	1
238	239	1
135	135	1
8	124	1
236	238	1
58	60	1
61	62	1
47	48	1
186	215	1
111	130	1
14	49	2
167	168	1
34	97	1
115	126	1
