11	17	6
63	63	14
14	14	1
15	15	8
182	182	11
204	204	3
41	42	2
20	20	4
50	50	5
242	242	2
180	180	2
49	49	8
200	200	4
75	76	2
18	18	5
66	66	5
163	163	4
111	111	4
17	17	3
176	177	2
165	166	5
163	198	2
57	114	4
57	58	5
208	209	9
72	74	5
99	100	1
235	236	2
26	26	13
156	156	6
215	223	2
53	53	3
76	76	2
244	244	16
243	243	5
181	181	5
183	183	6
62	62	6
42	43	5
98	98	5
6	30	1
118	118	3
90	90	3
82	82	3
68	69	2
43	43	7
16	16	1
40	44	4
62	71	4
45	45	2
189	191	3
44	44	6
112	112	9
157	157	3
42	42	5
114	114	6
245	246	3
217	218	4
187	192	2
226	227	3
39	39	4
213	214	5
96	98	2
247	248	5
193	193	4
174	174	8
211	211	13
22	22	3
249	249	2
222	222	3
187	188	1
187	187	3
173	173	7
191	192	1
226	226	3
188	188	10
47	176	4
195	196	3
95	221	1
34	34	8
155	155	3
190	192	2
171	219	1
183	184	5
206	207	3
168	168	6
31	31	1
97	97	2
245	245	4
162	169	4
32	32	3
92	92	3
30	30	3
236	237	2
233	233	6
103	104	2
208	210	3
46	46	5
172	172	5
106	107	2
101	101	7
29	29	4
169	169	1
190	191	6
83	83	8
165	168	1
67	67	3
52	52	5
51	51	4
106	106	2
41	45	2
53	115	1
105	200	1
200	207	4
241	241	5
158	158	1
23	24	2
172	194	2
64	66	5
45	212	1
40	40	3
81	81	2
176	176	4
35	35	1
219	219	4
237	238	4
150	150	2
240	241	9
20	21	3
19	19	2
210	210	2
48	49	2
224	224	2
69	71	2
198	198	9
188	189	2
9	9	4
164	170	1
160	168	2
210	211	2
240	240	1
238	238	7
103	103	2
31	32	3
73	73	2
227	229	2
117	118	4
161	161	3
117	119	3
235	235	1
239	239	1
152	152	6
101	118	2
245	247	5
6	6	4
179	183	3
21	61	1
3	3	3
199	200	2
202	202	6
195	195	1
151	224	3
203	203	5
50	51	6
197	197	2
220	220	3
99	120	1
2	6	1
232	236	1
151	151	2
59	59	4
23	23	1
113	113	1
245	248	1
7	16	1
19	36	5
164	164	2
23	30	2
169	172	2
190	190	6
159	159	1
189	189	8
177	185	2
172	173	5
214	214	3
166	166	5
12	12	4
172	177	4
175	209	4
25	26	4
185	185	5
27	27	1
99	99	1
205	205	8
11	11	2
183	215	1
65	65	3
162	230	2
181	182	2
7	7	2
69	117	1
116	116	4
208	208	4
195	197	3
90	91	2
112	113	2
233	234	3
238	241	1
236	236	1
238	239	2
58	69	3
36	37	2
218	219	1
184	191	1
5	5	4
19	20	1
4	5	3
203	204	3
191	191	2
163	165	1
33	33	1
84	84	1
159	161	2
158	177	2
64	65	3
61	62	1
78	86	2
37	37	1
29	31	4
175	175	2
178	179	2
4	4	4
234	234	2
78	78	5
154	154	1
213	217	1
107	108	1
87	114	1
54	54	3
107	111	3
201	201	6
179	247	1
209	209	4
146	146	5
186	191	2
110	110	2
225	225	2
79	79	2
199	199	2
104	105	2
173	174	3
167	167	4
97	111	1
93	93	1
59	60	3
185	213	1
110	111	1
14	15	1
227	227	1
109	109	4
154	155	3
207	208	2
184	185	1
82	86	1
41	41	3
18	19	1
108	248	1
186	187	2
207	207	2
55	55	2
108	108	1
185	188	1
47	47	2
53	54	2
4	6	2
117	117	1
28	28	1
116	118	1
119	119	5
169	170	2
39	44	1
165	230	1
217	217	1
202	203	1
24	24	4
234	239	2
178	244	3
164	199	1
221	221	2
194	195	1
188	190	1
197	198	1
61	71	2
107	107	2
172	174	1
78	81	2
89	89	2
184	184	1
108	109	1
118	119	1
223	223	3
88	89	2
87	87	1
96	97	1
3	6	1
223	224	1
70	70	5
69	69	2
38	38	4
1	1	1
115	115	1
89	220	1
153	153	2
213	213	1
165	165	1
205	223	1
192	192	2
25	25	1
74	246	1
156	157	1
186	190	1
196	196	2
241	242	1
212	212	1
145	151	1
80	80	1
165	178	1
216	218	1
161	162	1
182	183	1
13	13	1
178	178	2
174	183	1
4	30	1
185	192	1
56	56	1
237	243	3
88	88	1
