11	12	6
29	29	15
76	76	21
77	78	4
101	101	10
98	99	5
72	72	3
56	56	6
10	11	2
71	71	9
107	109	4
33	34	6
77	77	10
100	119	5
69	69	11
79	114	3
116	116	9
0	0	8
62	87	1
77	94	3
112	113	9
89	89	8
119	119	10
52	53	3
11	11	4
128	128	8
95	105	1
105	106	5
21	21	7
125	125	11
28	28	13
95	95	6
102	102	14
64	65	2
118	120	1
118	118	16
91	93	3
94	94	5
94	112	4
109	113	2
116	127	5
105	105	15
8	8	7
88	88	5
79	80	9
131	133	3
44	47	3
127	128	3
105	133	2
73	73	7
30	30	9
134	134	16
78	113	6
2	2	9
121	121	16
96	97	1
42	42	4
106	106	11
120	120	12
38	44	4
45	45	1
68	69	1
130	130	7
50	51	6
25	25	13
76	94	2
18	18	5
67	67	6
125	132	6
104	104	6
75	75	12
95	118	3
6	6	2
86	87	7
63	70	1
132	133	4
90	90	23
100	124	1
74	74	9
127	127	6
97	97	7
22	22	4
62	79	4
66	67	10
122	123	3
58	58	7
107	110	5
94	117	4
60	60	3
24	25	11
131	132	3
31	31	10
73	74	4
15	105	2
108	108	6
111	124	1
111	111	5
38	38	3
54	54	3
27	47	4
44	44	10
80	80	6
93	93	6
54	56	2
115	115	9
107	122	2
72	75	4
102	103	1
79	79	10
34	116	3
76	80	3
104	105	8
50	50	7
133	133	10
64	64	1
84	84	9
75	79	2
124	124	3
16	16	6
117	118	1
99	100	4
100	100	5
123	123	5
21	22	2
113	113	7
20	67	2
61	61	5
7	7	4
94	115	6
85	85	8
66	66	3
99	101	1
33	33	9
63	63	3
112	112	6
36	43	1
23	24	3
68	112	1
45	61	2
131	131	5
7	11	3
121	122	3
135	135	3
121	129	2
4	4	4
104	115	3
14	20	1
117	120	2
78	78	10
13	15	2
62	62	3
34	34	1
124	125	5
52	52	3
82	82	7
120	121	5
126	126	8
9	9	4
27	28	4
111	112	3
14	16	2
93	98	1
112	115	4
91	91	8
117	119	4
55	57	5
89	90	3
30	47	2
78	120	3
72	90	2
99	110	1
23	23	2
107	107	2
69	112	2
125	130	1
92	108	2
12	12	3
49	50	2
96	96	2
70	73	2
61	62	2
61	63	2
35	35	8
83	84	5
12	17	1
106	110	2
34	35	1
126	127	3
91	92	2
43	43	5
20	20	3
44	60	5
47	51	1
55	55	2
17	47	1
10	17	2
1	1	6
76	81	3
65	65	1
118	124	1
98	101	1
33	52	1
123	124	1
3	3	5
8	95	4
36	37	7
102	127	1
13	13	8
15	15	5
49	49	1
107	108	5
92	92	6
133	134	1
67	68	4
126	128	4
87	87	9
103	103	13
68	68	2
58	67	2
42	66	1
47	49	1
132	132	5
70	71	2
122	122	2
1	3	2
3	4	3
14	14	5
105	111	5
58	60	2
22	23	3
108	109	2
70	107	2
29	30	3
1	99	2
69	70	1
128	129	3
76	85	1
79	83	1
16	20	3
74	79	5
101	103	1
53	54	2
37	38	2
47	54	1
106	108	4
114	114	3
60	78	1
63	64	1
32	32	1
117	117	1
36	36	2
132	134	1
116	125	3
117	123	2
95	100	1
24	24	1
129	130	2
1	2	2
84	90	2
98	98	9
52	64	2
12	28	2
23	37	1
116	117	3
109	110	1
99	99	10
10	10	1
129	129	2
86	92	2
80	81	1
55	60	3
18	21	2
35	49	1
81	97	1
88	89	1
70	70	2
47	47	2
34	70	1
0	2	2
33	116	4
70	72	1
90	91	1
111	118	2
5	6	2
65	66	2
86	118	2
106	107	1
83	83	1
42	43	1
6	7	1
58	89	1
86	86	1
101	102	1
88	104	3
66	69	2
84	87	1
53	53	2
31	32	1
94	95	1
57	58	2
75	96	1
67	70	2
4	7	1
121	127	2
48	52	3
108	110	1
23	26	1
78	79	1
43	45	1
17	17	1
111	128	1
25	30	1
103	104	1
113	115	1
32	33	1
71	83	1
27	27	3
30	71	1
118	119	1
15	16	1
88	114	1
113	120	2
115	118	1
85	101	1
82	83	1
57	57	1
96	132	1
14	15	1
46	46	1
