124	124	8
112	112	1
84	84	6
9	11	2
101	102	4
2	2	6
102	102	7
90	133	1
20	22	1
114	114	11
23	23	7
80	80	4
43	43	8
113	113	15
13	13	6
102	103	2
77	80	6
87	87	3
165	166	5
52	53	1
26	27	4
7	7	5
53	53	4
116	116	2
39	39	8
128	128	6
15	16	2
21	23	1
55	55	5
80	81	6
128	129	4
144	144	5
44	44	3
154	154	2
164	165	1
115	116	10
3	4	1
112	113	2
143	143	4
99	99	3
78	78	5
68	90	2
88	88	6
101	103	1
52	55	3
162	165	3
49	49	3
106	106	10
144	145	4
75	128	1
76	77	3
15	15	12
101	101	3
119	145	1
83	83	1
70	90	3
4	4	3
126	126	4
135	135	6
160	160	4
105	106	5
86	86	5
27	27	5
94	94	1
86	100	1
127	128	3
9	9	6
45	51	2
90	90	2
145	145	4
45	45	11
95	95	4
166	166	2
26	26	2
122	154	1
61	61	1
14	14	2
48	49	4
19	19	2
36	36	1
154	155	2
112	119	3
66	66	3
77	77	3
130	130	3
152	152	2
92	142	1
105	105	6
103	104	5
148	148	2
164	167	5
97	97	1
46	46	3
17	17	4
79	79	9
89	97	2
71	71	5
87	89	2
76	76	3
143	160	4
131	131	6
48	161	3
122	153	1
91	92	1
85	85	4
24	24	4
64	64	7
68	68	3
91	91	5
40	40	9
81	81	4
66	69	2
69	69	6
103	103	6
90	91	4
100	103	2
35	35	3
92	92	5
163	164	2
161	162	1
151	151	4
69	71	4
98	98	1
10	10	2
0	0	2
52	52	3
56	56	2
5	17	1
107	108	4
84	132	3
130	131	3
22	22	4
139	140	3
45	46	2
142	143	1
17	18	2
18	19	1
54	54	3
70	70	5
58	98	5
93	93	4
21	22	3
121	146	1
98	99	1
134	136	1
48	48	2
126	127	2
102	106	3
57	57	2
118	131	2
50	51	3
4	9	4
119	119	1
16	16	4
102	152	2
68	83	1
127	127	3
7	8	2
21	26	2
25	25	3
140	140	8
118	118	2
1	1	1
163	165	2
162	162	4
47	47	2
53	54	1
9	26	3
123	123	6
46	47	3
47	48	1
51	53	2
93	95	1
51	51	2
52	132	1
99	100	3
38	93	1
85	86	1
19	20	5
35	36	3
104	104	3
163	169	2
51	148	1
97	99	1
109	109	8
74	74	2
1	2	3
21	21	2
75	83	1
38	38	5
100	100	4
75	75	4
39	41	3
11	11	2
141	141	1
63	90	1
89	116	1
110	110	3
90	93	1
109	133	1
111	111	3
50	50	3
161	161	1
96	96	2
143	144	2
55	56	1
115	123	2
130	148	2
21	25	2
164	164	1
14	15	1
79	80	2
51	147	3
2	4	1
114	115	3
69	79	2
8	42	2
76	80	1
88	89	2
118	119	2
20	20	1
70	71	1
143	157	2
136	136	2
81	86	1
8	9	1
86	89	1
146	147	3
13	15	1
163	163	1
146	146	5
110	158	1
118	120	2
159	159	1
132	132	2
21	54	2
129	144	1
42	42	3
64	88	1
82	82	2
37	51	2
44	77	1
135	136	1
83	84	1
9	10	1
121	122	1
64	135	1
24	25	1
76	81	1
54	142	1
108	108	1
157	157	1
53	55	1
10	11	1
133	133	1
153	153	4
22	24	1
67	67	1
67	68	1
6	6	1
158	158	3
155	155	1
166	167	1
91	138	1
35	76	1
41	41	1
67	76	1
158	159	1
12	12	2
164	168	1
51	153	1
133	134	1
165	165	1
157	158	2
107	107	1
106	136	1
18	18	1
27	68	1
44	45	1
7	27	1
