67	174	7
115	117	4
172	172	22
56	56	22
175	175	21
151	151	31
38	38	24
53	53	5
47	47	24
93	93	21
105	106	20
152	152	17
111	112	4
235	235	24
183	183	9
98	99	5
206	206	11
23	23	22
194	195	6
234	234	7
32	32	29
100	100	22
94	94	23
27	27	17
110	110	18
3	18	2
62	62	20
110	111	6
106	106	16
111	111	19
201	201	32
169	173	7
57	64	2
219	219	18
54	54	15
28	28	24
77	77	10
31	31	16
174	175	7
150	150	25
181	211	3
167	167	17
55	55	16
34	34	18
233	241	2
199	215	4
58	58	12
157	159	4
217	219	3
88	144	3
193	194	6
60	60	14
86	118	1
18	18	12
66	66	12
64	65	7
191	242	3
248	248	15
37	38	4
29	68	6
175	176	17
244	244	21
109	110	11
78	112	2
121	236	2
97	97	16
186	189	2
202	202	16
184	185	6
90	99	1
62	63	7
48	48	14
51	51	1
220	220	13
82	82	7
79	81	9
42	42	14
61	62	8
7	7	17
80	80	9
204	204	34
200	200	20
199	199	16
236	236	17
29	30	6
3	3	16
158	176	4
193	193	9
214	235	5
117	117	19
166	166	13
164	164	20
192	194	5
181	181	20
60	62	5
80	81	5
64	64	22
156	156	31
73	73	6
177	177	17
26	26	10
72	83	3
67	111	1
72	73	3
75	77	5
205	205	15
233	234	6
6	6	24
86	86	16
190	190	12
52	52	15
213	213	24
67	67	13
98	118	4
210	210	17
221	221	19
168	168	6
117	239	3
177	178	6
14	14	21
103	119	5
22	22	20
85	85	8
225	230	2
105	105	16
98	98	32
207	207	26
182	182	9
158	158	18
209	210	6
61	214	2
6	36	3
70	113	4
155	155	29
235	236	1
245	245	13
208	208	29
8	8	21
172	178	6
229	229	12
89	95	3
195	196	4
183	226	3
56	88	1
150	167	3
187	223	2
101	101	11
104	104	3
218	218	18
13	13	1
48	57	1
63	63	20
189	196	1
41	42	9
50	50	9
178	178	16
185	190	4
73	74	4
20	20	13
191	191	17
96	97	1
74	74	11
187	187	16
45	46	2
33	33	10
114	114	7
6	51	1
167	172	2
55	94	2
187	192	4
68	68	15
155	199	2
163	167	2
208	209	9
197	200	6
10	10	20
44	45	2
36	36	17
171	171	18
35	35	11
101	103	6
115	116	9
166	190	2
245	246	11
51	52	2
17	18	5
243	243	19
240	240	22
154	154	17
30	30	14
113	113	22
47	48	10
161	161	5
209	209	22
228	228	9
102	102	13
71	96	3
78	78	15
204	212	2
104	106	2
95	118	1
79	111	4
192	196	3
87	101	4
45	45	7
157	158	3
214	214	18
116	117	5
70	75	13
233	233	11
12	12	7
160	160	20
48	49	5
222	222	9
70	96	1
215	215	8
246	246	14
153	153	20
106	107	11
54	55	3
46	69	2
159	159	13
225	225	10
19	20	4
162	163	3
89	89	18
194	194	16
118	118	28
31	32	7
109	109	16
191	192	6
95	100	2
234	235	4
220	221	7
46	46	23
242	242	8
28	29	3
230	230	9
41	43	5
11	11	23
14	98	6
179	179	11
58	61	9
5	5	16
169	171	5
197	197	12
15	15	3
91	91	10
35	111	1
95	95	9
82	83	3
219	245	2
161	162	7
189	189	13
166	215	4
182	191	2
165	165	2
77	169	1
26	235	3
80	102	1
158	159	4
112	112	11
87	87	14
12	14	3
185	196	2
183	184	12
42	53	3
203	220	1
110	113	3
85	87	3
2	17	3
151	152	4
162	162	21
240	242	5
85	110	2
35	37	2
210	211	7
239	239	12
166	170	7
158	160	6
87	117	2
79	80	4
70	70	13
196	197	4
55	62	6
7	8	2
61	63	2
241	241	14
198	198	24
76	77	12
212	212	18
169	169	18
197	199	5
41	41	14
14	35	1
85	86	3
2	2	7
192	192	17
43	54	5
99	99	19
214	216	2
9	9	19
4	4	15
71	219	1
203	204	4
232	232	12
190	191	2
7	10	1
147	147	11
78	79	8
237	238	11
88	88	17
108	109	9
181	182	6
231	231	10
173	173	12
186	186	7
167	170	8
16	16	6
163	177	2
21	21	10
244	248	2
67	197	3
71	71	9
63	100	3
172	173	5
8	10	2
6	8	2
118	245	5
29	114	1
202	222	2
90	91	4
57	57	23
195	195	12
200	218	3
164	177	3
208	228	3
75	75	6
71	73	2
39	39	10
240	246	3
59	59	9
87	88	4
39	40	2
174	174	17
57	66	1
115	118	1
23	24	2
75	83	2
18	19	4
220	229	4
108	108	6
55	56	1
203	227	2
97	98	7
86	108	2
47	60	4
157	157	21
81	81	9
204	205	4
199	217	2
199	200	6
188	188	10
10	20	6
40	40	14
170	170	18
49	54	4
98	119	4
60	61	7
84	89	4
64	100	2
198	199	1
189	193	2
56	62	3
244	246	3
79	79	13
218	221	2
174	178	2
120	120	4
92	92	11
58	88	2
19	19	14
17	51	4
48	50	1
66	70	3
223	224	2
180	194	3
14	34	2
175	177	3
226	226	6
237	239	1
29	36	4
191	195	3
243	245	2
180	180	10
163	175	1
166	176	1
187	188	1
169	170	2
144	145	2
105	107	3
102	103	2
205	230	2
211	212	7
64	88	2
77	112	4
59	61	4
182	184	5
7	31	1
76	109	1
84	84	5
108	111	2
60	69	3
111	114	1
217	217	16
221	222	16
229	230	3
176	176	8
171	181	2
180	184	1
115	115	9
216	219	1
2	3	2
59	69	1
110	112	1
193	241	1
37	37	14
218	220	2
185	186	9
34	50	4
219	230	2
216	217	2
237	237	8
54	94	3
238	241	3
17	17	10
199	202	1
203	203	13
65	67	7
103	167	1
3	28	3
43	52	4
213	218	3
66	67	6
107	107	6
197	217	5
145	147	1
206	207	3
112	116	4
239	246	2
172	174	3
112	244	2
86	102	2
238	239	5
180	181	3
212	221	2
83	83	2
63	156	2
25	26	4
246	248	1
48	60	5
221	235	1
37	48	2
72	77	3
152	153	4
167	171	1
71	147	1
44	44	10
116	118	7
99	100	5
165	170	3
161	203	1
17	44	1
201	202	5
24	24	17
208	246	4
176	181	4
82	171	2
25	25	12
34	108	2
208	210	6
29	29	8
223	227	4
218	219	16
104	115	1
119	119	18
196	196	11
78	114	3
83	84	4
199	211	3
65	65	8
240	241	5
239	240	2
101	102	3
68	70	3
180	204	2
71	146	1
110	151	1
32	33	3
15	31	1
225	226	1
69	69	7
71	74	3
2	19	2
64	71	1
35	52	1
166	171	2
159	177	2
208	211	1
45	49	2
193	209	3
49	60	3
171	176	2
26	55	1
216	216	7
157	176	2
24	28	3
43	43	7
213	240	1
163	165	5
82	84	1
117	244	2
187	230	1
162	183	3
118	120	1
88	89	3
69	70	1
27	235	3
193	216	1
223	223	8
192	211	3
147	149	1
235	243	3
228	229	1
116	116	10
218	245	5
212	214	2
156	162	2
96	99	1
192	193	4
104	176	2
242	243	5
185	195	4
147	157	1
118	119	4
84	85	8
181	243	1
90	90	4
194	210	2
47	51	2
195	214	2
145	145	4
152	159	4
93	107	4
198	212	2
145	151	1
203	205	1
189	190	2
166	211	1
216	218	5
190	194	3
209	241	1
6	39	2
184	184	15
224	230	2
21	22	4
8	9	2
74	82	1
114	115	4
90	106	1
59	87	4
207	241	7
214	215	2
236	237	4
244	245	1
95	97	5
236	238	1
159	160	2
163	164	7
4	5	11
0	0	4
46	47	4
198	230	1
3	19	1
74	78	4
161	178	4
1	1	1
245	247	2
247	247	11
43	51	2
213	222	3
197	198	2
100	101	3
113	145	1
11	26	1
211	211	3
101	104	1
165	166	2
207	245	1
205	206	2
78	84	6
53	150	2
218	236	1
198	244	3
176	178	2
146	146	4
107	109	1
215	217	1
96	96	5
54	56	3
247	248	3
193	195	3
209	239	1
58	60	2
170	177	5
187	248	2
209	211	2
13	14	4
94	95	2
7	201	1
241	242	3
186	197	5
223	226	1
118	153	2
31	46	7
49	49	5
221	225	1
38	39	4
202	204	1
30	64	2
224	225	1
181	189	2
47	58	3
34	35	1
72	79	2
227	227	4
249	249	2
71	72	2
73	217	1
102	175	2
103	117	3
77	78	1
104	167	1
89	105	1
94	115	3
59	95	1
32	224	1
61	61	4
164	208	2
1	8	1
189	191	2
210	242	4
201	203	2
183	216	1
51	71	1
30	112	2
73	81	1
91	106	3
202	228	6
49	50	3
181	184	5
238	238	4
15	40	1
31	113	1
182	183	5
71	217	2
157	162	1
71	75	2
173	174	5
217	218	2
29	49	1
163	163	9
27	47	1
20	23	1
117	243	2
186	188	2
152	158	1
246	247	3
14	15	4
187	222	3
39	79	3
94	111	1
36	103	2
96	111	2
222	223	4
181	206	3
72	74	1
179	182	2
33	38	3
243	244	2
224	224	5
170	175	1
225	232	2
232	233	2
153	154	1
93	94	3
88	106	2
189	242	1
50	84	1
75	79	3
42	43	3
161	165	2
179	180	2
154	176	1
35	46	2
48	56	1
34	37	1
84	87	1
76	76	2
239	243	1
78	80	1
5	38	1
16	23	3
94	113	1
34	38	2
168	193	3
96	176	1
182	199	2
10	24	1
242	245	2
193	214	1
164	165	4
165	210	1
59	60	4
115	242	2
219	236	2
180	196	1
21	25	1
171	172	1
237	242	1
179	184	2
150	154	2
168	169	3
162	181	3
160	161	3
66	86	1
52	53	1
217	224	2
146	147	2
185	192	1
205	235	1
4	33	1
186	242	1
15	16	1
26	27	2
185	185	3
111	242	1
96	101	2
213	215	3
66	200	3
92	95	1
2	5	1
59	100	2
93	113	1
185	197	2
57	62	1
35	36	2
188	223	2
162	178	1
219	240	1
152	183	1
57	59	4
63	72	2
165	208	1
171	173	2
232	241	1
218	225	3
88	120	1
187	191	2
80	103	1
208	224	1
220	226	1
207	240	1
12	26	2
156	164	1
104	111	1
215	238	3
91	167	2
149	149	1
72	72	1
56	57	3
50	60	3
226	227	1
151	160	1
114	116	3
198	200	1
89	207	2
16	17	2
149	150	2
47	112	1
56	89	1
188	190	1
248	249	1
76	92	1
111	244	2
221	226	3
208	248	2
29	31	3
192	209	1
229	231	1
219	239	2
149	167	1
186	224	1
58	87	1
230	237	1
68	96	1
192	238	2
156	161	1
233	235	3
119	120	1
182	239	2
57	63	1
50	213	1
50	59	1
200	217	1
199	218	1
26	56	1
6	247	1
183	185	1
95	96	1
162	173	1
177	179	1
230	231	1
186	187	2
157	169	1
94	114	1
184	199	1
161	167	1
215	216	1
170	176	2
163	170	1
161	199	1
112	118	1
176	177	1
6	14	1
12	15	1
9	11	1
9	32	1
209	213	1
237	245	1
70	74	1
239	241	2
186	207	1
208	230	1
