135	136	8
139	144	3
57	57	17
100	122	4
48	48	16
74	74	11
109	109	12
78	78	16
38	38	19
33	34	6
21	21	28
108	108	10
22	23	10
25	30	6
49	49	11
23	23	15
35	86	2
148	151	3
52	53	1
44	70	4
54	55	12
138	145	2
133	133	3
5	8	5
122	122	7
42	42	11
96	96	11
13	13	9
14	14	20
27	28	5
80	80	11
97	97	13
21	31	8
13	16	5
53	53	12
6	7	15
56	56	12
94	94	10
134	135	11
79	79	13
114	114	8
131	131	15
63	63	9
54	54	8
110	111	1
29	29	6
42	43	7
83	83	19
58	58	7
30	31	15
137	137	2
32	32	8
25	49	4
36	36	12
82	83	4
37	113	2
35	35	20
99	99	12
117	117	9
102	112	2
39	39	21
116	116	17
112	113	3
22	49	1
77	78	3
102	102	13
16	16	24
71	71	9
82	82	9
64	68	5
21	22	5
50	50	16
63	64	6
72	72	10
18	18	20
70	70	19
24	31	2
113	113	12
54	86	3
80	81	8
131	139	2
75	76	6
20	21	6
19	23	2
119	119	7
128	128	7
46	47	4
66	66	22
147	149	1
64	64	16
57	64	3
71	136	2
31	70	2
24	49	4
7	7	8
141	143	4
84	85	2
49	50	13
104	104	9
84	84	5
12	12	18
124	124	3
76	78	4
44	44	20
34	34	14
41	41	10
40	40	8
2	2	2
86	86	24
22	22	23
111	111	13
132	133	2
79	80	1
9	9	9
142	142	8
105	105	15
76	76	23
78	79	5
108	109	4
33	33	11
7	20	2
4	8	2
106	106	10
17	17	13
132	132	18
123	124	5
30	30	16
128	147	1
38	93	1
135	135	10
11	12	4
5	5	4
66	96	5
98	98	8
25	25	12
76	77	13
151	151	4
121	121	10
150	150	11
13	18	6
11	11	15
89	89	3
36	37	8
122	133	1
37	37	13
106	114	6
141	142	3
28	28	12
41	42	8
19	20	3
85	86	5
39	40	6
5	6	3
45	46	4
87	87	9
144	145	5
65	68	1
69	69	10
68	68	11
136	137	2
124	125	4
77	77	14
66	68	2
139	139	8
15	15	9
107	108	2
65	69	2
57	65	4
106	107	7
103	103	3
115	116	13
35	36	8
99	100	1
9	10	2
50	53	1
17	18	7
64	85	1
47	47	5
19	19	18
112	112	4
18	19	9
86	87	3
79	90	1
128	134	2
7	8	7
67	90	1
55	55	7
49	53	1
147	148	5
13	14	3
149	149	7
4	5	7
94	95	5
100	100	10
129	129	5
31	36	2
30	32	4
102	110	11
74	146	3
118	118	11
8	8	7
146	147	11
33	39	1
148	148	7
89	92	1
24	24	12
138	138	10
107	107	4
142	143	6
95	95	10
43	43	11
29	30	2
82	89	3
85	85	6
53	67	6
71	148	2
38	39	1
128	142	4
64	65	7
58	63	3
111	112	2
47	48	10
105	106	2
44	45	4
144	144	5
20	20	23
110	110	21
31	31	7
73	73	12
136	136	5
10	10	7
38	40	3
14	15	4
67	71	5
141	141	14
8	9	6
146	146	5
127	127	8
45	45	22
50	55	1
46	46	13
115	118	2
115	115	3
42	45	1
69	71	1
7	11	1
3	3	4
12	13	17
142	146	1
148	149	6
104	105	2
17	19	3
51	51	1
65	66	10
8	17	1
11	14	4
140	140	3
151	154	1
8	11	4
69	70	7
93	94	3
129	142	2
75	77	2
51	57	1
56	57	4
66	67	4
96	97	2
132	139	2
23	38	1
104	112	2
145	145	9
3	5	5
56	67	1
14	16	2
25	27	4
67	67	8
150	151	3
112	115	1
51	52	5
31	69	3
4	7	1
102	133	3
147	151	2
31	54	2
89	91	1
65	67	7
79	82	3
122	123	2
92	92	3
67	68	5
109	114	2
24	30	3
69	74	2
120	120	1
10	17	4
41	45	1
21	52	2
43	44	13
109	112	1
32	35	2
101	112	3
140	141	2
28	29	1
36	93	7
24	93	1
75	75	3
130	130	4
21	23	2
6	6	10
74	75	2
34	35	4
121	122	4
16	22	3
11	30	7
39	97	2
103	105	2
127	128	4
121	136	4
68	99	3
130	133	2
41	43	1
53	54	3
120	122	2
16	17	3
31	35	3
126	144	1
133	134	3
68	69	7
47	53	5
107	110	1
143	143	6
76	82	3
140	147	2
49	92	3
70	71	2
41	151	1
90	92	3
40	45	1
110	114	3
11	17	1
93	93	12
109	118	2
44	90	2
110	119	3
149	150	5
132	135	4
27	61	1
26	26	6
83	84	2
103	133	3
39	92	4
6	11	3
32	34	1
65	65	4
133	136	1
57	58	3
102	109	3
15	16	7
21	50	3
82	92	1
94	96	1
23	52	1
81	81	3
140	144	2
3	9	1
39	41	3
4	4	7
110	117	1
147	147	3
66	73	1
24	25	1
43	47	2
23	24	2
117	118	5
70	74	1
34	38	3
104	108	2
78	80	2
115	117	2
154	154	3
27	27	2
90	90	2
141	144	2
124	134	2
74	78	1
81	82	2
40	41	1
10	13	3
131	133	2
68	73	1
34	37	1
47	52	2
12	14	3
134	134	2
40	49	2
153	154	1
152	153	2
27	29	6
37	38	1
2	3	1
128	129	2
67	72	1
116	117	2
26	29	2
123	132	1
50	62	1
104	106	4
7	27	2
57	63	1
94	98	5
80	82	1
4	6	1
126	134	1
140	143	1
50	51	1
82	91	1
142	149	1
129	130	3
98	99	2
76	83	1
37	93	3
69	136	2
139	140	1
125	128	2
43	45	1
37	57	2
5	7	1
49	52	1
5	11	1
137	148	1
88	88	1
101	111	1
100	101	3
11	13	1
137	138	2
14	25	3
22	24	1
106	108	1
101	102	1
67	70	1
63	83	1
48	67	1
24	26	2
77	82	2
15	25	1
113	114	1
54	66	1
100	136	1
144	146	1
25	26	1
44	46	2
52	54	1
95	96	1
4	9	2
68	98	2
153	153	2
69	131	1
32	37	1
136	138	2
6	12	1
64	74	2
81	143	1
46	48	1
12	15	2
36	87	1
53	55	2
73	74	1
48	49	1
78	95	1
101	132	1
11	16	1
48	53	1
69	100	1
152	152	1
52	52	1
2	13	1
101	135	1
107	113	1
10	11	1
139	146	1
16	30	2
89	90	1
8	18	1
124	148	1
13	21	1
58	71	1
69	99	1
