49	49	5
109	110	1
116	117	4
73	73	13
113	113	8
16	16	14
85	119	2
65	65	6
14	18	9
8	20	6
118	119	9
114	114	3
26	29	4
67	67	1
105	105	5
56	108	1
89	89	7
114	131	1
110	110	3
6	6	5
70	71	4
48	96	3
26	26	4
23	23	7
55	55	4
46	46	7
128	128	8
95	132	1
18	18	7
104	104	3
16	18	2
91	91	1
47	47	1
17	17	3
50	50	12
104	105	5
60	60	6
30	30	8
29	30	3
11	15	5
75	79	1
75	81	2
25	25	4
19	20	7
124	124	7
60	81	1
78	79	4
61	61	5
26	27	1
0	0	5
106	106	4
119	119	3
13	13	13
90	90	8
40	41	2
60	65	3
41	44	5
12	12	11
62	62	3
86	87	2
121	121	1
94	95	5
88	88	4
20	20	9
51	51	4
72	72	9
93	93	4
63	63	13
56	109	1
131	131	2
33	33	4
31	31	6
48	48	9
18	19	2
40	40	3
83	83	6
75	77	1
79	80	3
84	84	8
62	65	2
72	73	2
54	55	5
116	116	4
104	106	2
52	53	2
4	4	1
10	11	1
8	93	1
74	74	5
28	28	1
111	111	4
94	94	2
56	56	3
64	132	2
65	66	9
98	128	3
114	115	1
54	69	1
129	130	2
87	88	2
49	124	2
64	69	1
90	123	4
117	117	5
102	102	4
57	57	4
33	34	6
38	39	4
53	53	3
87	94	4
16	17	6
75	75	5
107	107	9
2	2	3
32	32	4
47	48	2
11	11	4
100	100	1
109	109	3
125	125	3
98	119	1
42	44	4
44	44	6
70	70	1
79	79	2
103	103	5
68	68	1
80	80	2
115	115	4
10	110	2
38	38	4
112	113	2
19	19	3
42	42	5
21	21	6
75	82	7
1	48	2
127	129	3
71	72	11
57	63	3
108	108	5
7	9	1
27	27	3
129	131	2
97	98	9
59	59	1
127	127	2
97	119	2
40	42	1
97	99	1
12	46	2
25	26	2
10	13	1
62	78	2
82	84	5
96	96	3
101	101	2
108	109	2
16	20	1
9	10	3
39	39	3
99	100	2
71	75	1
21	25	3
71	95	1
8	54	1
43	43	3
32	54	1
29	31	5
10	10	3
24	24	3
87	87	1
67	68	2
99	99	2
91	92	2
107	108	1
52	52	1
31	32	3
126	127	4
114	130	1
115	116	3
69	69	5
28	42	1
1	1	1
53	54	1
83	84	1
120	120	2
63	80	1
12	52	1
22	22	3
71	108	1
82	83	2
63	104	1
130	130	3
15	16	2
118	128	4
66	75	1
27	32	2
25	46	1
70	92	2
83	85	2
81	81	2
5	34	2
18	77	1
26	50	4
29	29	1
54	54	3
127	128	3
118	118	4
32	71	3
4	96	2
76	76	4
96	112	2
126	126	1
65	71	2
112	112	6
66	66	2
51	94	1
122	122	2
98	100	1
55	102	1
93	94	1
24	44	2
77	80	1
86	88	1
22	28	1
82	124	1
101	114	2
122	123	3
75	99	1
15	15	1
39	40	1
14	14	1
92	92	3
13	24	3
105	106	2
85	88	1
92	93	3
15	20	1
3	4	1
18	70	2
121	122	3
85	85	1
19	25	1
81	82	1
10	14	1
75	80	1
59	62	2
9	9	1
58	58	2
94	109	2
13	23	1
9	46	1
91	93	1
25	42	1
41	43	1
66	101	1
50	51	1
53	123	1
99	101	1
