33	33	16
75	75	20
40	45	1
59	59	37
36	36	27
89	89	19
29	29	4
44	44	18
48	84	4
22	22	5
51	65	2
45	46	6
69	69	30
53	54	7
56	56	24
22	31	2
62	62	22
46	47	10
47	47	22
69	70	8
78	78	44
50	50	32
47	48	9
40	40	36
100	100	27
47	52	2
61	61	24
25	25	19
36	37	4
74	74	22
87	88	15
34	47	1
83	83	16
34	76	4
67	68	10
93	93	22
79	80	6
51	51	20
58	59	23
37	38	10
22	23	1
71	71	31
66	67	4
24	27	4
86	86	19
70	70	33
85	85	38
48	48	22
81	82	7
94	94	25
55	56	8
27	36	1
25	27	4
96	98	5
54	54	29
96	96	13
65	65	27
79	79	31
81	81	27
85	86	3
33	49	3
61	64	1
87	94	3
98	99	7
68	72	2
36	38	7
53	53	21
38	38	21
49	49	21
96	97	12
81	89	3
76	76	19
30	86	4
67	99	4
27	28	13
56	90	2
50	67	1
46	48	2
60	81	5
43	43	20
46	54	4
77	77	30
31	31	18
84	84	30
88	88	27
26	26	6
75	76	10
63	63	22
57	57	25
27	91	2
54	55	7
59	63	6
58	58	28
22	46	2
29	45	2
26	27	5
90	90	27
56	62	5
38	96	4
93	94	18
55	55	11
64	64	23
92	92	31
42	42	14
51	54	2
37	37	7
87	87	15
60	60	11
70	72	6
68	68	33
29	89	4
48	93	4
102	102	7
24	24	4
42	43	11
95	95	17
28	28	6
98	98	27
33	62	1
34	34	7
20	20	14
34	45	2
80	80	20
35	35	10
39	39	12
65	66	2
84	88	1
34	35	4
56	67	3
80	88	2
71	73	1
72	72	20
61	75	2
84	85	3
27	27	10
55	94	2
86	92	1
68	69	4
59	90	2
51	55	1
59	60	5
46	46	17
89	92	3
67	72	3
97	98	6
86	87	10
80	81	6
20	91	3
62	63	2
69	73	3
65	85	2
89	96	2
52	56	6
31	84	2
23	99	3
73	73	23
67	67	13
83	84	7
63	73	1
95	97	12
53	56	3
42	75	1
41	58	4
47	53	4
61	92	5
50	56	1
99	99	15
83	85	3
41	41	16
37	92	3
34	77	4
86	88	2
35	36	8
91	91	21
27	37	1
77	78	4
60	75	5
45	45	8
48	50	2
52	52	15
75	77	3
91	92	12
47	55	1
101	101	14
60	62	9
29	38	2
89	95	4
46	101	2
88	97	1
48	49	10
61	93	5
55	59	2
23	33	2
20	66	6
51	96	3
76	77	6
60	79	6
62	67	1
57	58	5
48	91	2
27	78	2
66	66	15
88	94	2
49	50	8
44	66	3
93	95	5
41	42	4
70	89	1
52	80	1
95	96	6
20	22	3
73	74	1
56	57	5
98	100	2
24	26	1
96	100	1
26	38	4
64	72	5
97	97	6
98	101	3
69	77	1
31	51	2
29	86	2
86	100	3
36	46	8
52	53	2
34	38	1
21	92	2
59	78	4
56	66	4
80	86	2
32	33	4
50	51	3
61	91	3
22	26	1
45	49	4
35	96	4
70	71	3
82	87	3
58	67	4
68	77	3
39	48	2
49	94	2
59	75	2
90	91	2
78	79	2
82	85	2
82	82	3
43	59	1
48	92	2
25	33	3
79	81	3
29	95	2
91	98	3
62	90	3
41	65	1
88	98	3
20	29	3
35	46	1
33	38	1
93	97	1
24	30	1
24	95	4
62	83	1
64	75	2
53	80	3
37	47	1
30	30	7
72	73	8
68	71	1
53	99	1
100	101	3
79	99	3
86	95	2
74	75	3
46	97	3
27	52	2
46	92	1
58	73	3
85	99	2
38	53	1
83	87	1
23	27	3
70	90	1
23	28	1
79	82	2
66	91	2
86	97	6
25	45	2
28	47	1
84	86	2
86	99	1
96	99	1
24	25	3
39	92	1
30	96	1
31	32	1
68	74	1
95	98	2
23	24	5
26	92	1
51	99	1
71	72	2
42	69	3
39	91	2
45	77	2
80	97	3
89	97	1
33	37	3
94	95	1
23	23	4
67	69	1
61	80	1
64	68	1
68	70	1
67	90	1
29	94	1
47	100	1
99	100	3
63	66	1
33	51	1
63	72	2
42	66	1
42	62	1
40	41	1
99	101	3
22	24	2
58	60	1
25	26	2
53	84	1
77	85	1
54	94	1
52	79	2
83	86	1
32	51	1
95	100	1
22	95	1
68	85	1
70	76	2
36	92	1
55	84	2
29	51	2
59	62	1
54	61	1
35	41	1
30	89	1
86	89	1
29	37	1
31	34	1
34	37	1
70	74	1
52	86	1
35	77	1
61	62	1
84	93	1
42	64	1
