9	10	8
76	77	4
19	19	9
78	80	2
8	18	3
53	65	1
71	72	2
76	79	2
12	14	2
73	73	13
0	0	10
35	35	4
48	48	7
22	69	1
46	46	3
22	22	8
11	11	2
6	6	6
75	76	1
73	77	4
14	14	7
67	68	7
74	74	9
9	9	22
24	26	4
63	65	2
3	3	8
64	64	10
55	62	4
46	47	1
6	7	1
8	10	4
63	78	1
5	23	3
65	65	7
52	52	11
51	51	8
56	56	4
12	12	9
60	60	8
25	25	7
72	73	3
72	83	2
29	29	5
24	24	12
58	58	10
83	83	4
75	75	12
87	87	11
68	69	5
55	55	7
65	79	3
50	50	12
89	89	16
57	57	12
27	27	5
56	82	4
71	71	4
22	35	3
31	31	6
6	33	4
69	69	5
7	7	3
23	23	3
63	63	12
80	80	4
65	76	2
85	85	5
53	80	1
58	81	2
72	81	2
11	82	2
82	82	2
67	67	3
24	29	1
70	70	7
81	81	9
48	49	3
84	85	1
64	76	2
22	34	1
2	2	3
49	50	2
22	23	3
13	13	12
79	79	13
20	21	4
53	55	2
1	1	8
78	79	2
46	50	3
86	86	12
17	26	1
59	59	9
88	88	6
5	6	5
47	71	1
30	30	3
61	81	1
17	22	1
15	15	3
11	65	1
59	62	2
90	90	1
73	84	3
54	54	6
5	55	1
51	52	7
4	23	1
26	27	5
64	82	2
13	14	2
71	73	1
59	60	4
64	65	1
68	68	10
4	4	5
52	72	4
62	79	2
61	63	2
53	79	3
53	54	6
10	30	4
10	10	7
66	81	3
77	77	6
20	31	1
51	76	1
70	75	1
64	78	6
17	17	5
72	82	1
5	13	1
26	26	5
58	79	2
53	53	3
9	22	3
11	13	3
19	71	3
20	72	1
27	28	1
75	77	2
20	20	5
15	16	2
21	21	1
49	49	6
7	56	1
77	78	1
46	52	1
52	65	2
21	22	4
48	66	3
60	81	2
78	78	3
47	47	5
25	27	4
15	23	2
72	85	1
5	5	6
66	66	7
67	74	1
7	31	2
54	55	4
16	24	1
72	72	1
51	67	1
8	9	2
79	80	3
5	12	1
13	62	1
6	31	2
8	8	1
62	63	1
3	4	1
58	60	1
24	25	2
14	83	1
61	79	3
15	57	2
52	55	1
53	73	1
27	55	1
32	32	1
19	20	1
6	35	1
18	19	2
63	64	2
4	12	1
9	25	1
60	61	1
10	81	1
15	26	1
65	78	1
75	84	1
62	80	2
72	76	1
82	83	1
88	89	1
30	71	1
31	81	1
67	69	1
49	56	1
