104	108	4
74	74	5
13	13	8
175	176	2
179	179	10
109	109	5
81	81	2
175	175	4
3	21	1
2	2	6
165	166	8
102	103	2
182	183	1
39	53	1
73	73	3
165	165	2
18	28	4
124	124	5
76	76	2
181	181	3
17	30	3
139	144	1
144	144	5
142	142	2
104	106	3
103	103	2
4	4	3
101	101	5
129	129	6
151	162	2
114	114	7
185	185	3
194	194	3
108	108	7
36	36	10
144	145	1
70	70	1
79	104	7
189	189	3
33	57	1
160	167	3
9	9	1
158	158	2
40	40	8
106	106	2
50	53	2
107	107	3
2	35	1
89	89	4
141	141	4
31	31	2
126	127	4
173	173	6
174	176	1
84	86	1
21	21	3
39	39	4
107	109	3
62	62	1
84	84	1
15	16	1
65	65	2
173	177	2
15	32	2
157	180	1
32	32	4
54	54	3
143	154	2
95	115	1
123	123	6
102	102	3
25	64	2
187	187	9
57	57	4
197	197	2
173	174	4
18	18	2
95	95	5
99	99	11
123	124	3
120	122	1
146	147	3
161	161	3
105	105	1
28	28	2
193	194	2
68	94	2
138	138	2
176	176	4
68	68	5
6	6	2
178	178	5
78	78	1
25	25	1
1	73	2
152	152	3
114	118	2
24	24	5
157	173	3
18	22	1
186	186	2
38	38	3
64	64	3
179	190	2
133	133	3
142	174	2
180	181	1
34	34	1
20	22	4
101	102	2
76	77	2
190	191	4
24	125	3
2	3	1
158	159	1
141	142	5
14	28	1
149	167	1
63	63	1
180	180	5
181	182	2
0	46	3
125	126	3
20	21	1
6	129	1
107	108	1
49	49	1
81	82	1
66	82	2
69	78	2
188	188	1
41	41	4
100	100	4
37	128	4
58	62	3
179	180	2
113	118	1
19	28	1
185	186	2
0	8	2
172	172	2
78	81	1
146	146	3
171	193	3
52	55	2
28	64	2
192	192	4
94	96	3
55	55	4
168	168	1
15	15	6
3	9	3
139	139	6
110	111	1
0	1	3
124	125	3
113	114	1
2	64	4
12	12	4
109	182	1
82	82	1
55	126	3
127	127	5
69	69	2
182	189	1
109	110	2
27	33	1
154	154	2
25	56	2
135	137	1
19	19	2
120	149	1
34	80	3
152	162	1
5	5	2
184	184	2
46	46	1
26	63	1
8	8	1
56	56	4
41	83	2
153	175	5
131	131	2
16	32	1
149	149	5
176	177	2
121	121	3
69	73	3
40	41	1
133	134	1
26	74	1
104	104	2
52	52	1
50	124	5
159	165	1
20	74	2
12	46	4
79	82	1
132	133	5
156	197	1
113	113	2
11	175	6
169	170	1
6	94	1
156	156	3
3	34	1
27	30	2
191	192	1
71	71	1
186	189	2
175	184	1
39	40	2
159	160	1
30	30	3
0	0	3
18	82	1
155	158	1
21	22	1
85	85	2
164	164	4
9	24	1
40	42	5
151	164	1
183	183	2
164	165	1
119	126	1
176	192	2
21	27	2
119	119	3
129	136	1
98	98	2
163	166	1
190	190	4
120	120	1
151	151	2
55	82	1
10	11	2
30	31	1
100	101	1
43	43	1
18	39	1
173	178	1
59	64	1
42	42	1
165	167	3
114	120	2
65	75	1
44	187	1
0	2	1
106	107	1
89	90	1
169	169	2
5	130	1
33	33	1
111	150	1
58	60	3
166	166	3
134	134	2
97	98	1
157	158	2
170	191	1
79	79	1
154	157	1
195	196	2
11	11	1
182	182	1
58	58	1
67	68	1
182	197	1
159	161	1
97	107	2
1	4	1
191	191	1
16	16	2
48	48	1
95	99	2
112	113	1
115	115	1
3	3	1
9	45	1
33	50	1
47	47	1
136	188	1
119	130	1
35	38	1
23	24	1
94	95	1
38	39	1
169	171	1
170	170	1
7	65	1
