20	20	7
31	37	1
88	88	11
130	133	3
0	1	2
9	9	9
43	43	10
84	85	6
136	136	6
148	148	16
155	156	10
122	126	4
92	128	4
96	96	7
131	132	7
2	2	7
109	111	10
107	107	5
75	131	1
12	12	3
90	90	4
54	54	4
25	25	10
132	133	3
111	112	1
20	21	7
106	106	5
152	152	9
21	22	9
1	1	6
4	4	4
87	88	8
97	97	17
17	17	7
50	50	17
142	142	5
30	30	14
82	88	2
118	144	1
25	27	5
140	141	4
81	86	2
125	127	2
52	52	12
64	64	2
97	99	5
140	142	3
96	104	1
12	30	2
4	16	4
19	19	2
16	16	11
68	68	11
150	150	11
14	14	7
78	78	12
38	38	12
26	26	15
91	118	2
40	40	11
103	104	7
8	18	1
0	75	4
127	128	3
3	3	15
129	129	8
5	5	12
113	114	3
47	47	7
54	55	12
118	123	2
93	133	2
13	22	1
0	0	14
33	33	11
67	67	9
133	133	7
42	43	4
6	8	3
116	117	10
137	137	1
133	134	8
48	54	4
105	105	16
111	113	1
34	34	10
66	67	2
23	23	11
51	52	2
44	45	2
137	138	5
6	6	4
104	104	12
117	117	12
120	120	7
1	30	1
77	77	8
125	125	8
46	46	11
37	38	3
29	29	4
38	50	3
144	144	7
103	103	3
114	115	5
75	75	12
139	139	10
121	121	10
100	100	8
23	25	3
45	45	9
130	131	4
37	37	8
141	142	4
80	80	6
15	16	2
147	147	17
152	155	2
28	29	4
39	128	3
8	8	9
82	82	7
146	154	4
41	41	5
69	70	2
123	123	2
22	22	11
91	92	3
98	98	4
128	128	7
134	135	2
145	147	3
140	140	14
79	79	13
44	44	7
21	21	1
65	66	6
102	103	4
112	112	11
151	151	11
118	118	7
9	10	5
13	13	7
136	137	2
93	93	12
131	134	3
30	31	3
10	10	7
56	56	3
147	150	3
116	116	4
119	120	2
96	97	7
24	24	19
88	89	3
122	124	5
76	80	1
152	154	4
39	41	2
39	39	5
28	28	10
49	49	7
87	128	2
123	124	5
3	127	4
111	111	17
128	130	1
126	126	5
156	156	5
106	115	2
130	130	12
80	81	4
127	127	13
131	131	6
30	55	3
153	154	11
87	87	3
69	69	3
101	101	2
22	28	2
65	65	10
81	81	6
109	109	3
68	72	3
103	105	3
9	31	1
150	157	9
18	36	2
73	73	10
114	114	4
95	95	12
84	87	2
9	15	7
134	134	8
112	118	6
79	81	1
130	143	3
145	145	3
110	110	10
136	150	1
27	28	4
46	47	5
32	32	15
57	57	8
85	86	7
117	143	1
7	12	1
46	156	2
53	53	8
154	154	6
31	33	2
1	2	8
24	25	3
153	153	9
87	89	5
122	122	8
82	83	1
105	106	2
41	128	3
11	13	4
106	107	11
50	51	7
115	115	3
11	11	13
158	158	1
27	27	4
126	127	9
95	104	2
48	49	3
86	86	9
92	92	4
18	18	6
128	129	2
74	74	2
119	119	5
69	71	1
47	53	1
43	47	6
33	41	5
72	72	3
97	98	3
47	55	2
26	27	2
134	136	2
55	55	4
90	91	4
127	148	2
71	72	2
99	99	15
51	51	3
115	143	2
101	102	12
144	145	3
9	13	2
74	93	3
74	121	1
104	117	2
7	7	9
129	143	1
158	159	3
12	156	6
82	85	3
144	158	3
102	117	1
92	93	3
23	24	3
91	137	1
104	105	4
155	155	3
107	114	1
109	110	6
3	4	1
107	126	1
18	19	4
138	139	1
132	132	2
17	19	5
22	23	4
32	47	2
84	84	3
63	63	2
107	113	2
46	80	3
143	147	4
53	54	2
146	150	1
38	49	3
17	18	6
157	158	4
99	100	1
42	42	1
149	156	3
144	148	4
28	45	3
92	113	1
135	136	3
29	46	1
120	121	3
83	89	1
55	65	2
89	90	1
93	110	4
118	120	2
85	85	5
122	125	1
36	36	4
39	51	2
84	86	2
31	31	2
117	136	3
77	79	1
139	154	1
15	15	2
157	157	4
100	101	3
71	71	11
31	43	8
42	82	4
38	39	6
112	134	1
133	154	2
125	126	2
39	127	3
32	71	1
121	141	1
91	91	2
48	48	3
81	127	3
51	53	2
56	65	1
138	138	4
116	135	2
156	157	1
98	99	2
4	153	3
52	53	6
11	14	1
36	117	3
45	79	3
40	41	5
150	158	1
117	118	1
98	110	1
123	125	1
118	136	2
56	62	2
77	78	2
124	158	1
139	141	1
87	93	3
80	82	1
94	94	2
112	115	1
127	133	2
121	122	3
89	92	1
41	65	1
68	70	4
43	44	2
151	158	2
39	42	1
73	74	2
95	116	1
74	75	1
36	37	1
44	47	1
141	141	3
146	146	1
36	48	1
91	117	1
36	39	1
11	12	2
123	137	2
33	47	1
148	152	2
2	126	3
14	19	1
110	111	2
35	35	4
66	66	1
11	15	2
143	143	1
21	31	1
155	158	1
52	56	2
15	123	1
146	147	2
22	24	1
88	142	3
83	83	2
88	91	1
3	26	1
129	152	2
95	96	5
68	69	1
88	128	2
108	108	1
129	130	1
33	34	1
125	148	1
115	127	3
139	140	1
119	135	1
10	11	2
8	152	1
56	57	1
2	4	1
66	69	1
151	154	1
89	89	1
90	92	1
34	35	1
132	135	1
93	94	3
89	91	2
102	102	1
45	46	1
112	113	1
127	139	1
16	36	1
118	119	1
75	92	1
96	152	1
42	79	1
131	133	1
148	149	1
133	137	1
123	126	1
136	142	1
11	16	1
150	154	1
135	135	1
38	127	1
75	93	1
