53	53	10
70	72	1
102	103	3
33	52	1
103	103	16
62	62	12
69	70	4
39	39	6
55	61	5
61	61	22
84	84	6
99	99	9
59	71	3
28	28	5
72	72	8
92	92	8
95	95	8
80	80	12
73	76	4
33	33	5
51	52	4
96	96	5
69	69	9
60	79	2
105	105	5
43	44	2
42	42	2
77	77	8
48	49	6
56	60	2
94	94	7
76	77	4
31	31	9
20	20	2
55	55	9
34	34	17
59	60	2
51	51	14
55	56	1
54	54	10
100	100	13
72	92	3
49	49	14
60	60	8
23	23	12
45	45	6
95	96	9
32	32	7
62	63	2
64	64	3
92	93	3
39	40	3
59	59	7
21	22	7
30	45	3
37	37	5
74	74	9
24	24	4
21	21	17
93	93	3
35	35	10
82	82	3
65	71	3
98	98	2
102	102	7
50	70	1
87	87	2
78	84	2
40	40	3
76	76	10
40	43	2
75	75	8
97	98	7
25	25	6
81	97	2
26	26	6
67	67	9
91	91	10
73	73	3
29	47	2
82	83	5
53	55	1
33	34	10
68	68	6
79	80	3
96	97	2
64	65	4
40	41	3
90	90	3
31	32	3
77	92	1
50	84	2
77	78	2
48	48	3
83	87	4
73	77	2
98	99	1
47	47	4
52	52	6
40	84	1
83	83	1
63	64	1
50	50	7
78	79	3
94	106	1
80	92	1
88	88	3
84	87	1
35	36	4
22	56	2
60	78	1
35	50	1
30	30	10
71	71	3
25	28	2
58	58	3
22	22	11
38	38	2
101	101	4
81	96	1
70	70	9
46	46	2
49	60	2
66	66	5
65	65	5
94	96	3
104	105	2
22	54	3
89	90	7
68	70	1
23	24	1
25	88	2
97	97	3
29	29	2
82	87	1
38	66	1
44	44	1
55	57	2
36	36	2
46	48	1
83	84	4
24	25	1
81	81	2
66	74	1
45	56	1
91	92	4
78	78	6
63	63	4
78	92	2
46	77	1
70	71	1
60	61	4
30	96	3
104	104	4
41	42	2
55	62	1
65	66	2
47	49	1
26	27	3
74	75	2
25	26	4
20	89	1
21	51	1
61	62	3
87	88	3
53	54	3
72	76	1
20	21	1
94	95	2
32	34	3
85	85	1
33	51	1
27	29	3
56	61	2
85	86	1
60	71	1
81	82	2
39	90	1
86	96	2
100	101	1
82	84	1
56	56	2
38	54	1
66	67	1
50	51	1
88	89	1
27	28	1
72	73	1
