58	59	2
54	54	2
75	76	3
105	105	5
101	109	1
4	77	2
104	104	9
44	98	2
91	91	6
96	96	9
40	82	3
97	98	2
99	99	7
1	2	1
21	21	2
16	16	1
116	116	11
14	106	1
10	10	4
83	83	4
107	107	10
5	5	3
120	120	6
69	69	5
55	55	6
31	32	1
86	86	10
100	100	5
62	62	4
128	128	1
7	8	5
8	8	2
3	3	6
132	132	6
77	110	1
83	84	2
11	11	3
9	10	1
29	29	9
102	109	3
88	88	12
118	118	4
9	77	1
113	128	1
85	85	3
102	102	5
46	47	5
13	14	3
107	118	3
103	103	4
87	87	6
95	105	4
5	34	1
60	62	3
6	6	2
70	74	2
125	125	13
65	65	1
76	116	2
115	115	4
133	133	3
33	74	1
30	30	4
4	33	2
7	7	4
66	66	3
78	78	7
73	89	2
29	30	4
46	46	6
18	18	4
95	95	8
93	94	2
93	93	2
14	14	5
39	39	5
57	57	4
44	44	6
89	89	3
63	63	4
28	28	3
122	122	4
101	101	1
17	17	4
59	101	2
84	84	4
58	110	1
67	67	1
117	117	3
94	94	1
74	74	5
71	71	2
110	111	1
76	76	2
113	114	2
72	77	2
123	123	3
57	111	3
108	108	5
65	66	1
73	84	2
11	12	4
119	119	4
56	56	7
82	88	2
113	113	4
43	43	2
15	15	6
4	4	7
12	12	7
1	68	3
123	124	2
25	26	2
31	31	1
115	116	2
79	79	3
19	99	3
81	84	2
25	25	3
129	129	2
127	131	3
114	114	4
40	61	2
73	73	2
38	72	3
106	107	3
126	126	2
121	121	3
51	51	4
108	114	3
68	69	1
6	73	1
100	107	1
126	128	2
11	16	1
75	75	4
47	47	3
94	107	3
79	106	3
60	60	2
125	129	2
109	110	2
34	34	2
22	22	2
96	124	2
65	75	1
39	43	4
124	124	2
77	77	2
59	59	1
23	23	2
32	32	4
27	33	1
101	103	2
109	109	1
78	79	1
121	122	2
127	128	2
107	122	2
98	99	1
100	103	1
11	21	1
132	133	1
90	90	2
5	6	1
67	68	1
0	0	2
99	103	1
42	42	2
49	49	1
1	1	3
80	105	1
93	106	2
45	45	1
50	50	1
53	53	2
104	105	1
85	87	1
7	28	2
15	16	2
130	130	2
79	80	1
84	86	2
98	98	2
59	60	2
56	57	1
100	102	1
2	2	1
20	20	4
40	97	1
54	115	1
4	32	2
100	106	1
41	41	1
27	28	1
40	62	2
55	113	1
91	92	1
104	106	1
54	113	2
111	132	1
83	119	1
112	113	1
41	55	1
83	85	2
95	123	2
56	74	1
28	30	1
58	58	1
45	55	1
97	97	2
116	118	1
18	19	1
131	131	1
28	29	1
111	111	2
129	130	1
83	87	1
79	90	2
51	53	1
64	64	1
33	71	1
