90	90	7
73	74	2
97	97	4
108	109	5
34	34	16
44	45	5
42	43	11
40	41	6
144	144	8
114	115	3
19	20	2
73	73	7
6	6	6
166	166	10
133	133	11
17	116	4
7	7	9
38	142	2
114	116	7
5	5	8
27	28	2
74	74	5
16	16	10
165	165	3
67	67	12
149	149	9
22	24	1
17	19	6
82	82	28
2	2	13
43	43	9
57	57	5
111	111	13
111	116	6
110	110	10
81	81	4
80	80	8
0	0	7
37	37	11
125	159	2
15	15	9
93	94	2
46	47	2
124	124	5
147	147	6
5	13	4
53	53	12
9	131	3
120	121	4
19	23	2
17	18	7
155	155	7
18	133	2
69	70	2
152	152	1
11	11	12
140	141	4
14	16	2
55	55	7
155	156	2
139	139	3
19	19	8
52	52	4
48	49	2
35	44	4
38	144	4
128	128	1
158	158	8
107	107	4
119	119	5
137	137	14
106	106	11
87	87	5
123	123	5
110	111	2
27	27	6
25	25	21
144	145	3
14	14	13
159	159	19
70	75	1
99	99	2
10	10	11
165	166	2
102	155	5
41	42	5
109	109	7
41	41	10
64	64	8
42	42	8
78	78	2
0	166	1
39	40	5
170	170	8
37	38	2
106	110	2
107	108	4
55	56	4
50	51	1
130	130	2
56	56	9
39	39	11
22	22	7
168	169	4
116	117	7
125	126	3
125	140	5
145	146	5
94	94	7
133	134	4
7	17	1
157	157	7
1	1	6
92	92	2
88	88	9
151	151	10
89	89	8
138	142	1
128	129	8
105	105	3
4	4	10
143	143	7
63	64	5
169	170	4
56	144	2
142	144	3
38	38	11
106	109	3
85	86	1
157	170	1
18	18	4
159	160	3
120	120	7
146	152	2
45	112	1
167	167	10
2	3	3
134	135	3
164	165	8
26	27	3
121	126	2
154	155	1
3	137	4
45	45	7
41	88	4
63	63	3
94	95	2
127	127	1
57	91	2
28	28	1
0	1	3
136	137	5
115	115	4
156	156	10
85	85	2
167	170	4
90	91	3
91	92	5
18	19	1
21	22	3
144	149	2
147	151	2
132	132	2
36	36	7
134	134	4
13	14	3
99	160	3
6	16	3
49	49	3
66	110	3
72	72	3
46	46	10
23	23	7
161	161	2
8	112	2
112	120	2
104	104	5
24	24	2
13	13	9
26	26	2
136	136	4
43	44	6
70	70	3
44	44	5
108	110	1
122	122	5
117	118	3
154	154	6
108	108	9
24	25	2
66	66	6
86	86	4
116	116	4
37	42	1
35	35	1
150	158	1
14	15	4
75	80	2
150	150	6
167	168	1
103	104	3
124	125	2
8	10	1
50	52	3
109	110	4
15	16	1
93	93	4
33	34	4
64	65	2
148	149	2
3	3	4
156	157	2
141	141	5
138	139	4
114	114	5
154	163	1
1	140	5
98	98	3
8	8	2
145	161	2
16	17	2
54	54	4
113	116	2
153	153	3
161	162	4
147	149	1
95	95	2
158	161	5
17	17	7
118	118	3
139	140	4
117	117	1
6	7	4
35	36	2
69	83	1
163	163	2
146	151	2
101	101	5
80	81	1
131	131	1
76	76	7
145	145	2
69	69	2
93	145	1
112	112	6
91	91	5
20	20	6
65	65	2
84	85	2
160	160	5
7	16	2
121	122	2
97	99	3
47	47	1
113	113	1
112	144	1
142	143	3
94	96	4
119	120	1
21	21	2
48	48	4
42	114	1
162	163	1
76	78	3
153	164	1
70	72	4
148	148	2
102	102	1
62	63	1
74	75	3
130	132	2
22	40	2
36	37	1
103	103	1
46	110	2
49	98	1
57	63	1
33	33	1
169	169	4
71	71	1
135	136	1
162	164	1
126	126	1
65	67	2
89	90	2
77	77	2
146	147	1
150	151	1
51	65	1
57	62	2
132	133	1
34	134	1
72	74	2
137	139	2
51	51	6
100	100	2
51	58	1
123	124	1
71	83	1
42	133	1
10	11	1
135	135	1
155	157	1
15	17	1
140	140	1
37	109	1
163	164	1
152	161	1
9	9	2
129	129	1
54	55	1
97	98	1
9	10	2
147	157	3
157	158	1
12	13	1
105	125	2
68	68	1
46	49	1
77	78	1
51	52	3
21	24	1
111	112	1
86	87	1
101	146	1
61	69	1
3	4	1
47	54	1
