52	52	16
65	66	3
96	97	5
59	59	7
49	49	6
87	88	4
88	88	7
27	27	9
79	79	4
89	89	7
94	94	4
63	63	7
80	80	9
78	78	4
79	80	3
34	34	2
33	33	3
58	58	6
36	36	10
84	84	7
69	69	6
99	99	4
85	100	5
68	81	2
45	46	4
55	84	2
68	68	7
94	98	5
74	74	7
73	74	6
52	76	1
59	76	1
95	97	1
48	48	10
90	90	2
37	37	2
97	98	4
42	42	5
75	75	4
98	98	4
52	81	1
24	24	1
93	95	3
29	53	4
86	86	4
41	41	4
53	55	3
91	91	6
54	54	4
92	93	1
51	83	1
29	87	4
25	25	5
67	81	1
30	41	2
80	92	1
27	48	2
101	102	3
87	87	8
39	84	1
47	47	3
50	50	3
50	90	4
60	60	12
50	85	1
73	73	4
86	94	1
48	57	3
89	90	2
23	23	1
72	72	4
69	70	6
46	46	6
57	58	3
56	56	7
22	96	2
45	45	4
47	57	1
51	51	6
76	76	2
41	59	2
54	60	2
23	24	1
23	28	2
81	81	3
27	40	1
57	83	2
51	52	2
67	67	6
29	81	3
27	28	3
97	97	6
40	40	3
87	94	3
49	50	2
93	93	5
95	95	5
58	59	5
92	92	4
35	35	3
61	61	3
22	23	2
62	62	4
55	56	3
71	71	6
72	90	1
70	70	3
42	43	3
85	87	4
37	38	3
76	79	4
44	44	10
46	85	1
26	26	1
85	86	3
74	75	3
64	64	7
93	94	2
70	72	1
50	51	1
93	98	1
58	81	3
100	100	6
31	31	1
81	95	2
66	66	4
96	96	3
75	77	1
31	32	1
101	101	7
53	54	1
99	100	1
51	86	2
59	60	1
85	85	4
52	55	1
47	48	1
53	53	4
65	65	3
38	39	1
38	38	7
73	76	2
69	72	2
29	31	1
64	66	1
24	25	2
26	61	2
46	55	1
27	53	2
36	62	1
100	101	1
47	77	2
52	100	1
86	87	2
38	67	1
96	100	2
87	92	1
77	77	1
86	88	4
43	91	1
55	55	1
89	91	2
56	83	2
65	67	1
53	94	2
46	95	1
94	96	4
90	93	1
25	52	1
35	36	1
39	39	1
60	69	2
66	67	1
70	71	1
33	51	1
89	93	1
28	28	1
88	94	2
82	82	2
24	88	1
64	65	1
77	78	2
51	85	1
91	92	2
35	39	1
29	29	2
71	72	1
49	59	2
95	96	2
54	98	1
28	40	2
53	81	1
102	102	1
51	89	1
74	90	1
31	65	1
41	42	1
67	68	1
69	85	1
62	65	1
22	71	1
25	31	1
40	48	1
67	69	1
34	35	2
95	98	1
42	49	1
30	30	1
25	26	1
43	43	1
47	67	3
86	89	1
71	85	2
84	86	2
48	71	1
54	97	1
59	81	1
59	65	1
75	76	1
44	48	1
57	90	1
94	95	1
