76	76	8
98	98	11
135	135	14
110	110	27
106	106	4
116	116	7
101	101	9
100	100	14
90	90	9
96	129	5
17	89	1
128	128	21
23	23	3
125	125	9
117	118	4
93	93	6
102	102	11
5	5	11
118	127	2
75	75	17
27	27	13
21	27	7
95	95	8
123	123	16
4	4	9
137	139	3
30	31	6
115	115	5
132	133	2
112	112	11
13	13	11
95	96	8
118	119	4
98	127	2
17	17	4
37	37	16
126	127	4
29	29	7
100	101	1
132	132	14
133	133	13
16	17	4
107	108	2
127	127	9
83	85	3
137	137	7
86	86	6
71	71	3
119	119	10
129	129	15
121	122	8
132	134	3
117	117	9
126	126	15
72	72	9
124	124	13
28	28	1
74	74	16
75	78	2
119	122	3
137	138	2
73	73	9
94	94	4
2	2	6
112	114	8
134	134	15
21	21	4
136	136	15
126	128	4
71	72	5
104	109	3
89	89	10
4	5	3
140	140	21
127	128	6
135	136	4
87	87	11
31	32	5
21	30	2
9	9	2
122	122	16
15	15	5
124	126	5
12	14	1
118	118	6
114	115	2
1	1	2
131	131	13
97	98	1
36	122	3
116	119	3
80	80	7
18	19	2
93	94	3
116	126	1
79	85	1
113	113	4
99	99	10
96	98	1
138	138	7
92	92	6
22	24	4
18	18	8
81	81	8
3	3	2
28	29	7
33	33	4
19	19	3
130	130	17
74	96	5
134	135	5
116	125	3
129	130	3
9	11	1
6	27	3
32	32	3
26	26	10
103	103	6
102	103	1
117	123	3
71	73	1
107	118	1
5	13	3
19	91	5
111	113	1
96	102	3
80	81	2
90	101	1
0	2	2
121	121	8
21	99	1
128	129	3
6	6	6
35	36	1
103	104	3
124	125	4
89	111	3
131	132	3
120	120	7
38	38	2
101	102	6
31	31	1
109	109	5
5	33	1
87	93	3
107	107	5
35	35	2
81	85	1
7	7	2
20	33	1
99	100	5
133	134	2
139	139	5
22	22	1
105	106	6
31	33	4
21	38	2
84	84	4
16	21	1
104	104	4
72	100	1
120	121	4
80	85	8
20	20	1
34	34	7
115	116	1
85	86	7
125	126	1
14	16	1
38	100	1
77	77	5
79	79	6
14	14	2
119	126	1
97	99	3
105	105	2
33	34	1
12	12	1
115	119	2
90	91	4
78	78	4
76	77	2
96	107	1
96	96	2
89	91	1
117	124	1
76	78	1
108	121	1
27	28	2
114	114	1
110	111	2
17	21	2
3	6	5
77	78	2
22	114	3
37	100	1
14	19	1
76	125	1
108	109	1
6	33	1
23	25	2
116	117	5
85	85	2
90	113	1
5	93	2
122	125	2
97	127	3
0	0	3
88	88	3
97	97	3
11	11	3
73	75	1
96	97	1
19	92	4
118	126	2
93	100	1
13	27	1
24	25	1
71	74	1
10	10	5
21	22	1
129	133	2
14	15	1
26	33	1
75	87	1
8	9	4
3	4	1
111	111	6
113	140	1
107	123	2
20	93	3
88	90	2
9	10	2
25	26	2
71	76	1
123	125	2
111	127	1
104	105	3
16	16	1
36	37	2
91	91	1
17	18	2
75	76	2
89	90	2
3	14	1
138	139	1
108	108	2
117	120	3
21	77	1
13	14	1
6	12	1
79	80	2
112	113	1
36	36	3
8	8	1
36	135	1
136	138	1
93	95	2
123	124	2
102	106	1
83	84	2
22	23	1
21	37	1
102	104	1
78	79	1
115	123	1
103	105	1
4	95	1
136	137	1
113	114	1
121	123	1
108	110	2
87	88	1
119	120	1
83	83	1
115	118	1
95	127	1
74	75	1
34	35	1
