89	89	4
118	119	8
90	90	5
118	118	12
0	0	6
79	85	4
91	91	4
3	90	1
121	122	12
13	13	7
86	86	8
74	74	7
122	122	16
81	115	3
10	11	7
6	6	5
123	123	17
127	127	11
33	33	9
71	73	7
130	131	1
31	31	2
129	130	9
75	75	7
126	126	12
5	78	2
105	105	2
82	84	7
135	135	17
128	128	12
83	84	5
107	107	6
81	81	12
97	98	6
140	140	9
79	82	5
112	112	11
124	124	18
93	93	7
32	32	14
139	139	11
137	137	12
125	128	4
128	129	8
133	133	7
21	21	8
104	107	1
73	73	9
131	131	2
71	71	12
84	84	4
1	1	7
129	129	11
12	12	5
131	132	5
96	96	4
36	36	1
13	21	2
89	90	8
113	113	8
13	14	2
103	103	12
110	111	5
100	127	3
80	80	3
4	4	2
136	137	3
119	120	9
77	77	8
3	4	15
29	29	9
16	16	11
20	20	13
95	95	4
136	136	3
14	14	6
76	76	3
121	121	15
34	35	3
79	79	7
94	101	3
88	88	10
119	119	10
4	6	1
8	9	4
110	110	11
99	99	8
22	24	1
85	115	1
24	26	3
117	117	6
35	35	16
2	3	19
14	21	4
11	11	3
37	37	13
81	82	2
85	91	5
100	119	2
107	109	2
31	32	5
74	75	12
139	140	6
98	98	4
104	104	2
87	88	8
125	125	8
114	114	5
102	102	2
29	140	1
94	94	2
7	7	5
13	20	2
101	101	6
120	120	11
130	130	8
130	132	3
20	21	10
104	106	6
132	133	5
72	72	7
89	93	3
7	8	8
98	100	3
99	123	6
134	135	7
9	20	3
123	130	2
26	26	6
9	9	5
5	5	11
34	34	10
86	116	2
107	111	1
132	132	9
85	85	3
82	82	2
28	31	2
112	114	4
97	97	2
8	8	7
120	122	3
87	113	1
80	94	1
10	10	2
4	21	3
138	138	4
17	18	2
25	26	1
78	79	4
23	24	3
108	108	5
75	77	2
109	109	5
116	116	14
125	127	1
133	134	2
11	12	1
30	31	1
126	134	1
25	25	8
15	17	5
106	106	5
18	18	5
84	93	2
107	108	3
7	20	1
115	116	1
103	104	3
123	124	5
96	97	3
80	86	1
72	76	2
27	30	3
99	117	3
126	127	3
111	111	3
38	38	1
27	31	1
113	115	2
78	122	2
138	139	2
137	138	5
66	81	2
28	29	4
102	103	7
13	25	1
28	28	1
7	22	2
101	140	1
21	25	2
72	74	4
10	12	7
124	135	3
24	24	4
73	76	5
14	19	4
27	27	4
74	76	4
116	117	2
117	120	2
111	112	1
115	115	8
124	128	2
15	15	4
86	109	1
15	16	2
75	76	3
89	97	2
126	128	1
91	92	2
82	113	2
22	22	4
102	108	2
17	17	4
100	100	7
5	79	1
14	23	1
129	134	1
72	73	2
89	95	1
124	125	1
94	95	1
124	138	2
119	123	3
84	85	1
85	93	2
15	18	1
133	135	3
12	13	2
86	87	3
119	122	7
8	10	1
111	114	2
133	139	2
129	138	3
89	114	1
21	24	2
136	139	5
101	113	1
127	128	2
82	85	1
14	22	2
83	91	1
116	126	1
0	2	1
3	86	2
6	13	2
80	92	2
88	91	2
0	1	2
7	137	1
134	134	8
36	126	1
136	138	2
99	100	2
125	126	1
137	139	1
16	34	1
90	95	1
95	140	3
117	118	2
76	77	1
14	18	1
73	74	1
26	30	1
1	90	1
84	115	2
110	116	1
101	109	1
88	116	2
96	99	1
15	20	1
91	95	1
83	83	2
34	36	1
15	19	2
113	122	1
81	114	1
100	129	2
112	118	1
82	83	2
116	122	1
87	87	1
110	117	1
92	93	1
6	15	1
114	115	2
87	103	2
106	112	1
21	26	1
3	91	1
5	6	1
113	123	1
79	108	1
83	87	1
126	129	1
3	3	1
98	99	1
