69	105	1
38	39	5
76	76	8
34	123	3
39	50	3
77	93	3
153	154	3
151	157	1
17	17	19
143	143	11
90	93	2
76	77	2
18	18	8
120	124	3
0	0	5
1	1	13
11	12	2
22	22	8
12	166	2
149	149	7
133	133	1
84	84	6
142	142	6
101	102	6
13	13	16
4	4	17
3	3	9
116	119	4
21	21	13
48	48	7
112	130	2
66	67	4
39	39	9
35	36	5
96	99	3
21	141	8
9	9	18
17	19	9
126	126	6
19	19	1
155	155	4
27	27	4
141	141	6
124	124	7
57	58	2
23	23	8
101	101	9
152	155	1
12	13	2
93	93	7
20	27	2
36	36	19
118	119	12
34	34	15
112	112	6
42	73	3
114	116	4
7	64	4
111	111	11
146	160	3
79	79	4
6	6	8
125	125	7
162	169	1
83	83	5
8	19	4
38	41	3
16	16	7
113	113	4
130	142	7
53	55	4
70	99	4
43	43	22
137	137	7
116	153	3
14	15	5
46	46	6
8	9	5
45	45	6
81	96	5
13	14	9
54	54	8
7	7	6
83	87	2
102	103	3
48	49	6
159	159	2
69	70	5
35	39	3
43	44	7
122	122	9
74	75	7
64	68	2
35	35	7
131	131	5
8	8	16
97	97	6
10	10	4
65	67	2
166	167	2
7	8	2
152	152	8
15	15	7
73	74	1
91	91	11
139	139	10
169	169	4
140	141	4
112	116	1
119	120	6
82	82	4
42	42	14
85	85	2
115	116	3
83	85	5
121	152	1
24	24	8
120	120	2
161	161	9
112	153	2
109	110	5
81	81	6
14	14	9
127	130	2
121	121	7
51	51	3
115	115	6
14	17	1
47	47	7
100	100	10
128	128	4
12	14	7
108	126	3
9	16	4
40	40	9
105	105	3
134	135	3
168	168	7
72	76	4
109	109	6
132	132	5
49	49	8
116	116	6
130	153	3
2	2	5
92	93	1
69	69	9
4	167	3
92	92	6
157	158	2
37	38	2
82	139	2
86	86	4
162	163	5
6	45	1
94	95	3
146	146	9
107	108	4
160	160	8
150	166	4
88	88	11
90	90	6
17	18	3
107	107	5
12	12	6
96	96	7
18	21	3
162	162	4
77	77	9
150	150	9
130	163	2
5	45	3
140	140	2
170	170	4
135	137	4
151	159	1
72	72	4
54	55	3
78	78	7
50	51	7
136	137	2
15	17	1
18	23	2
67	69	4
102	102	1
37	37	9
20	22	4
158	158	6
71	71	13
19	23	2
112	113	1
63	63	8
91	96	1
3	11	3
41	41	7
118	118	3
159	160	2
117	117	3
5	143	1
70	71	2
33	108	1
157	157	6
161	169	1
114	114	7
80	93	2
76	78	4
150	168	2
123	123	4
116	154	1
126	152	2
127	127	3
98	98	2
38	40	1
13	34	1
77	78	2
25	101	5
89	89	4
111	112	3
142	154	1
94	94	3
129	142	1
20	23	5
8	12	2
98	99	7
64	64	4
71	77	2
28	28	1
41	52	4
50	50	5
134	134	4
106	106	3
38	38	4
159	169	6
149	150	3
124	125	1
124	144	2
64	65	4
75	75	4
56	56	3
67	67	5
114	124	3
147	148	2
119	122	3
86	90	1
17	113	1
35	87	2
25	25	8
16	17	2
22	23	2
109	158	1
86	109	2
46	55	1
25	114	2
155	156	3
5	5	7
44	44	5
12	18	3
8	45	2
139	141	2
1	2	4
52	52	5
131	132	3
102	104	2
11	11	8
149	169	2
139	140	2
44	45	2
79	105	1
10	11	3
158	159	4
38	49	5
108	109	1
134	137	1
94	156	1
49	50	6
47	48	3
24	104	4
39	40	5
90	97	1
112	115	2
130	156	2
108	108	8
116	122	2
39	44	1
130	130	4
44	46	1
26	84	1
15	19	2
130	132	2
161	163	1
20	20	6
168	170	2
17	114	2
110	110	3
44	47	2
34	120	1
20	21	2
84	88	2
87	88	3
103	103	4
5	168	2
91	97	2
164	164	4
39	41	1
129	133	4
115	156	2
27	28	2
47	52	1
147	147	1
58	137	1
53	53	3
97	98	2
144	144	9
69	89	2
151	151	6
100	101	3
165	165	1
6	163	2
121	149	1
74	74	3
130	154	1
145	170	2
154	154	4
79	93	1
114	155	3
49	54	2
100	104	1
114	166	1
65	65	5
73	73	5
65	66	2
36	52	3
166	166	3
165	166	2
143	144	3
127	128	2
70	92	1
19	27	2
9	10	1
55	55	1
24	25	2
47	67	2
154	157	2
138	138	2
26	26	11
153	153	5
6	7	3
156	156	1
114	156	1
107	156	1
120	121	1
34	88	3
61	68	1
111	133	1
37	39	1
163	163	1
99	100	3
168	169	1
68	68	1
133	134	3
117	118	1
38	87	2
129	129	4
78	79	2
26	53	1
135	135	3
85	127	1
41	46	2
164	165	1
120	126	1
81	82	1
106	108	2
48	54	1
126	154	1
84	85	2
87	89	1
114	115	1
22	117	2
120	155	2
99	99	1
38	46	2
25	131	2
167	168	2
14	27	3
145	168	1
40	58	3
38	57	2
118	121	2
6	170	2
118	120	2
22	101	1
136	136	1
92	94	1
48	67	1
13	15	3
36	42	1
148	161	1
147	149	1
123	124	1
90	91	1
99	104	1
22	25	1
130	131	1
48	69	2
106	107	1
112	124	1
151	158	1
56	128	1
55	56	1
33	33	1
41	42	1
25	140	2
1	3	2
0	14	3
121	126	1
161	162	1
147	162	1
26	27	1
153	156	1
108	110	1
58	58	2
34	86	1
133	138	1
16	128	1
1	13	2
112	128	1
72	77	1
7	24	2
5	44	1
26	127	1
151	160	1
117	122	1
5	24	1
47	50	2
117	156	1
104	105	1
70	70	2
4	21	1
47	101	1
150	167	1
39	51	1
2	3	1
90	155	1
80	82	1
5	74	1
128	130	1
154	155	1
6	23	1
