4	4	3
19	19	9
17	17	11
152	152	8
84	84	2
168	168	5
6	7	5
144	144	8
118	143	2
67	67	8
26	26	7
155	155	3
5	124	1
165	165	5
79	80	2
43	54	1
159	159	3
109	152	1
50	51	3
110	110	5
38	38	5
166	166	4
0	0	4
160	160	3
49	49	3
83	83	8
70	70	7
23	23	10
64	64	2
112	113	5
93	94	1
81	81	12
71	71	4
109	110	3
13	17	1
108	108	2
51	51	7
111	121	4
156	156	6
39	40	2
145	152	1
103	103	6
3	3	13
5	5	8
116	117	2
77	77	2
169	170	4
67	93	3
121	122	6
4	79	3
4	72	1
143	143	6
20	46	5
78	78	2
65	66	4
126	127	2
149	149	3
157	157	5
145	145	8
11	11	3
44	44	5
120	121	1
63	85	3
107	107	6
92	92	14
162	162	4
33	35	3
134	134	4
54	56	2
45	51	2
94	94	2
43	43	5
36	36	14
124	124	9
88	88	4
72	72	2
68	77	1
153	154	4
120	120	2
140	140	5
10	11	6
1	2	7
139	139	1
53	53	12
76	77	2
116	122	1
12	13	6
116	116	1
100	100	3
153	153	4
27	27	7
46	46	5
18	18	12
45	46	6
2	2	9
91	92	1
37	134	1
54	54	8
85	87	1
130	130	1
138	138	1
25	25	10
105	105	4
152	155	3
69	70	4
132	132	5
49	54	4
12	12	5
148	148	13
87	88	5
9	10	3
9	9	3
18	20	1
118	118	4
51	108	2
83	84	4
112	126	3
36	41	7
115	116	1
170	170	5
86	103	3
167	167	7
54	135	1
49	50	5
123	123	6
119	119	2
89	89	5
39	39	14
141	142	1
114	115	1
76	76	8
15	17	1
56	56	9
117	117	4
111	111	6
47	47	7
115	145	1
10	10	5
73	73	2
33	33	3
128	128	11
22	23	4
164	164	7
11	12	3
8	9	7
50	50	4
127	127	5
114	114	3
119	120	1
35	36	5
84	85	6
4	5	2
100	101	3
6	12	3
47	56	1
159	160	2
114	117	7
122	126	2
161	164	5
20	20	5
7	7	10
76	78	2
91	91	14
20	21	3
4	124	1
1	1	5
45	45	8
57	57	6
46	50	1
48	49	2
136	136	2
89	90	3
87	87	8
106	106	3
8	15	4
63	64	1
13	15	1
102	103	4
169	169	4
34	34	3
123	127	3
133	133	2
5	14	2
16	27	1
14	14	9
103	104	2
90	91	4
52	53	1
49	55	3
23	24	2
14	15	1
48	48	1
113	113	6
134	135	2
47	48	1
148	160	3
72	74	1
131	131	2
24	24	4
8	8	9
98	99	1
122	122	1
68	69	2
42	42	12
71	72	1
142	142	7
112	112	4
58	119	4
153	164	3
83	85	1
17	89	5
13	13	5
89	112	1
83	90	1
110	160	2
85	86	2
27	82	2
7	8	1
6	28	2
126	132	1
107	108	1
37	39	1
5	6	3
151	161	3
88	89	3
128	129	1
34	42	3
166	167	3
10	12	2
41	41	6
146	147	5
111	152	1
35	35	6
86	86	1
110	111	2
153	162	2
123	125	3
68	82	1
19	20	1
135	135	2
132	143	1
6	6	6
153	155	1
19	24	1
8	14	2
6	14	3
150	150	4
100	102	2
126	126	1
7	75	2
154	165	2
57	62	1
101	102	1
125	125	2
101	101	2
10	49	2
5	22	1
15	15	2
95	95	1
26	89	2
37	37	3
108	141	1
123	124	2
22	22	2
74	75	1
90	90	4
3	42	2
21	21	2
86	88	2
108	109	2
10	21	1
164	165	5
94	95	2
108	147	2
152	153	2
110	112	1
121	157	1
161	163	2
52	52	4
21	23	1
154	154	1
130	132	1
70	80	1
147	148	3
61	61	2
54	102	2
91	95	1
2	3	1
133	134	2
146	148	2
54	55	1
45	52	1
62	63	2
65	65	1
56	57	1
78	96	1
158	159	2
155	156	1
48	56	1
74	74	5
77	78	2
16	16	3
137	137	1
13	20	1
51	55	1
99	99	1
68	68	1
144	146	2
119	121	4
27	28	1
115	115	1
86	89	1
96	115	1
112	116	1
0	1	2
62	62	1
161	165	2
55	55	2
146	146	2
163	163	2
94	101	2
129	129	1
104	104	1
0	5	1
54	107	2
124	125	2
47	49	2
91	93	2
44	107	1
132	133	1
116	118	1
44	45	2
149	150	2
34	35	1
145	146	1
158	158	2
70	81	1
43	44	1
8	10	1
1	3	1
18	19	1
75	75	1
104	146	1
41	42	1
137	138	1
