1	76	3
126	126	4
110	111	3
78	110	4
98	98	4
7	59	2
102	106	2
96	96	2
58	60	1
79	80	1
132	134	1
53	54	2
108	120	4
31	31	3
55	55	4
33	34	6
69	95	5
115	131	3
86	86	11
33	33	7
78	94	1
55	84	1
53	81	2
118	118	4
107	107	3
62	64	1
53	53	2
72	72	5
93	93	3
67	67	1
75	101	1
82	82	5
77	111	4
36	36	4
54	54	2
44	44	4
102	102	6
66	66	3
2	2	4
22	52	3
108	108	1
44	45	4
80	85	6
127	127	9
122	122	4
13	15	1
125	125	3
35	84	3
32	32	3
96	122	3
98	125	1
90	90	12
22	22	5
123	123	3
129	129	7
89	90	5
62	62	5
78	78	6
67	85	2
80	80	8
100	101	4
69	70	1
108	109	5
100	100	4
56	84	5
65	65	9
52	52	4
124	124	5
93	94	3
71	71	2
26	26	7
15	15	5
113	113	4
128	129	4
117	117	5
23	25	1
7	7	2
68	68	6
23	26	1
101	101	8
67	68	2
114	118	3
83	83	1
111	111	8
79	110	1
116	122	1
97	107	1
21	21	1
104	104	3
56	56	1
106	106	6
3	3	3
49	50	2
119	119	5
79	79	5
47	47	4
76	76	6
4	65	1
94	94	7
115	125	3
60	66	2
45	54	2
6	6	5
118	119	2
38	38	1
4	4	2
105	105	6
8	8	1
112	112	7
48	85	1
103	103	5
68	84	4
9	10	1
48	67	3
51	126	3
64	68	4
62	65	1
55	56	5
32	33	3
44	54	5
97	97	7
9	9	1
135	135	5
89	89	3
116	116	8
84	84	2
11	23	1
68	124	5
37	108	3
7	60	2
102	103	5
7	16	1
131	131	1
91	98	3
92	92	5
134	134	6
131	133	3
80	102	2
115	116	3
132	132	2
1	1	2
24	24	2
43	43	1
127	128	3
54	56	3
0	0	4
97	126	3
115	120	2
53	99	2
77	77	2
100	106	2
74	89	1
27	28	4
54	55	1
70	70	5
0	65	1
119	120	4
86	92	4
75	75	4
114	117	1
132	133	2
102	105	2
70	77	1
64	65	1
60	60	6
48	48	1
58	58	4
11	11	6
94	98	2
116	119	4
46	65	3
35	37	3
92	93	5
111	116	2
91	92	2
35	120	1
126	127	1
87	87	3
83	84	4
95	95	3
86	87	3
12	12	4
109	120	1
71	103	1
52	76	1
24	52	1
74	74	2
97	98	3
99	99	2
46	87	1
59	59	2
9	14	1
115	117	1
72	74	1
120	120	2
107	119	1
48	55	1
16	43	1
34	77	2
23	23	3
56	66	2
121	121	5
114	114	1
84	101	1
106	107	1
133	133	2
70	82	1
69	126	1
64	64	1
14	14	2
117	120	1
35	36	1
29	29	2
79	117	1
69	78	2
16	31	2
77	94	1
79	94	1
38	100	1
111	122	1
13	20	1
111	120	1
38	47	1
23	49	1
8	25	1
12	13	1
106	115	1
63	63	2
28	29	1
29	30	1
0	7	1
28	28	1
99	135	1
57	57	4
95	107	1
0	50	1
16	16	1
48	50	2
75	88	1
84	85	1
133	134	1
16	24	1
57	83	2
47	53	1
69	131	1
73	74	1
6	7	2
99	115	1
50	51	1
0	57	1
91	91	2
84	122	2
114	116	1
83	86	2
64	73	3
73	73	5
95	110	1
37	37	1
49	104	2
38	45	1
128	128	1
10	10	2
115	115	6
11	20	1
77	84	1
5	6	1
66	67	1
109	118	1
106	134	1
17	78	2
5	5	1
68	69	1
20	22	2
28	73	1
130	133	2
113	116	1
36	37	2
34	34	4
47	87	1
44	56	1
55	83	1
80	88	1
45	45	2
54	61	1
61	61	2
69	69	1
110	110	1
25	25	1
66	68	1
99	100	2
66	86	1
14	22	2
109	109	1
108	118	2
4	62	1
44	106	1
130	131	2
63	64	1
129	130	2
30	71	1
91	122	1
130	130	2
27	30	1
55	61	2
71	84	1
27	27	1
5	78	1
10	22	1
66	96	1
39	39	1
