72	73	14
11	11	19
65	65	27
32	48	6
101	101	25
57	72	3
27	48	1
6	6	15
14	14	17
97	102	1
97	97	16
27	27	12
84	84	17
106	106	4
92	93	7
82	84	7
26	47	7
96	96	16
9	9	36
109	111	1
76	76	9
110	111	1
64	64	31
8	36	1
103	105	8
75	75	26
26	27	7
93	95	2
34	34	20
67	71	8
58	58	14
3	3	3
12	13	6
100	125	3
48	78	6
24	74	8
33	33	17
26	26	8
35	75	3
57	57	12
107	107	10
12	81	5
59	59	3
95	105	3
66	66	20
100	101	7
130	130	9
21	77	1
17	18	4
86	104	3
25	25	16
28	29	7
3	8	1
47	47	21
11	36	3
112	112	6
90	90	2
82	82	22
74	74	20
122	123	2
17	23	3
28	80	6
78	79	15
98	98	10
77	77	8
71	72	6
44	82	1
39	40	3
35	35	20
56	59	6
27	83	2
68	68	31
99	100	7
113	115	2
45	45	20
48	65	1
70	71	5
110	110	11
113	113	11
61	61	13
32	32	11
97	123	3
7	8	2
48	48	18
62	62	30
103	103	23
36	36	18
117	117	10
86	86	14
93	94	5
120	120	10
128	128	10
4	4	8
29	30	10
17	17	6
12	12	9
24	24	9
119	119	12
42	73	1
114	129	3
131	132	8
12	61	4
122	122	7
14	15	6
4	36	1
15	15	6
82	83	13
37	38	5
20	44	1
92	95	1
72	74	7
67	68	10
22	22	6
10	11	5
30	31	1
93	93	12
32	84	4
69	75	2
64	67	3
6	59	2
41	41	2
59	60	8
27	92	3
71	71	9
36	37	2
45	70	3
0	0	8
18	18	11
28	82	7
10	10	8
21	21	4
14	18	3
123	123	7
132	132	10
105	105	8
7	44	3
93	124	1
125	125	8
27	28	3
49	50	3
71	74	1
76	77	3
12	74	5
55	56	2
95	96	11
64	65	4
95	95	18
28	48	2
13	13	2
95	97	8
120	123	3
56	56	7
103	104	3
4	6	6
99	99	7
16	16	4
47	48	3
33	34	6
63	71	4
71	73	3
91	91	7
23	73	2
78	78	20
23	23	5
70	75	5
11	72	1
8	11	3
111	111	13
29	29	16
83	83	19
73	74	6
72	72	7
61	62	4
55	57	5
10	70	1
116	130	5
124	124	10
35	36	8
46	73	1
78	81	2
19	19	11
35	67	2
32	76	3
25	26	9
2	3	6
34	35	4
11	12	2
87	88	6
60	61	5
90	91	7
78	82	2
118	118	13
59	70	1
8	9	10
108	109	2
46	64	1
94	94	9
91	92	4
88	94	1
112	113	6
68	69	9
46	48	2
90	92	3
7	7	9
13	79	1
21	84	8
26	46	2
15	16	9
12	72	3
123	124	1
70	70	10
16	29	1
13	18	4
131	133	7
8	8	15
81	82	1
94	124	1
2	2	3
78	80	1
48	79	2
62	70	1
27	93	4
17	119	1
21	22	1
108	108	10
4	11	5
2	101	2
31	32	4
56	76	2
37	72	3
96	103	2
92	92	8
121	122	11
129	130	5
60	60	5
100	100	5
29	33	1
17	64	5
62	63	5
46	47	5
28	91	2
60	68	1
28	28	9
73	73	15
49	90	8
4	69	2
88	90	8
39	73	4
34	36	1
94	96	4
9	13	2
33	48	1
15	20	2
4	15	3
9	10	3
77	78	1
6	34	4
61	74	5
46	46	9
5	5	5
5	6	6
27	91	3
16	17	4
11	69	1
27	100	3
13	24	2
37	37	1
126	127	2
17	70	3
44	44	11
87	87	5
109	109	6
114	114	3
80	80	2
104	105	6
63	63	11
27	29	3
116	116	5
4	35	1
45	119	1
86	87	2
62	66	4
63	68	3
31	76	1
85	86	2
63	64	3
33	74	3
55	55	4
83	96	8
106	133	5
18	28	3
127	127	3
110	112	2
12	14	1
66	67	2
109	110	1
105	123	2
49	49	1
10	12	1
69	69	9
45	46	4
42	84	2
57	95	1
67	67	3
84	85	5
15	18	1
25	33	3
70	73	2
56	58	1
32	36	1
69	71	2
6	13	2
64	71	2
27	36	1
97	124	2
128	129	2
19	83	2
20	20	3
17	81	1
45	73	1
56	72	1
88	88	3
103	107	2
43	43	14
134	134	5
63	77	1
45	64	3
66	79	2
79	80	2
26	82	2
26	93	1
0	1	3
16	20	1
117	122	2
118	119	7
64	66	3
113	116	1
27	80	4
74	76	1
105	121	3
27	95	3
38	39	3
13	81	4
4	5	6
7	83	1
4	101	4
102	102	6
94	97	3
30	30	2
48	83	4
133	133	2
59	78	4
1	1	4
19	23	1
124	125	5
69	72	1
57	58	3
63	70	7
68	70	1
38	42	2
104	104	9
27	130	2
119	120	1
55	58	2
64	72	5
17	20	1
101	102	1
95	109	1
73	77	3
69	70	6
11	13	3
3	13	2
3	12	2
38	38	1
117	123	2
19	20	10
115	127	3
130	131	1
8	29	2
62	73	1
47	49	1
40	41	2
115	124	1
113	114	3
12	45	4
111	112	6
29	32	1
94	95	2
87	90	4
107	109	2
41	43	1
14	23	1
22	83	1
16	37	1
42	42	2
25	27	2
29	62	1
121	121	4
58	76	1
31	31	8
57	76	1
103	110	2
99	101	2
25	46	1
69	73	1
116	129	1
23	25	1
19	24	1
11	64	1
50	59	1
47	82	2
28	83	2
20	21	2
124	126	1
14	20	2
42	43	3
70	74	1
91	93	2
8	12	2
41	42	2
90	95	1
59	61	1
81	81	2
20	62	1
62	75	2
49	80	1
116	128	3
39	39	2
129	129	1
101	125	1
32	33	5
45	62	1
31	78	1
21	36	1
15	28	1
27	79	1
20	27	1
20	29	1
23	74	1
16	27	1
33	77	1
0	72	1
122	124	1
19	38	1
38	45	2
27	77	1
115	116	2
45	75	1
47	65	1
44	45	1
109	117	1
90	93	2
4	37	1
72	97	1
63	66	1
65	100	1
86	88	1
29	31	1
56	57	1
41	73	1
18	20	1
11	17	1
85	85	1
120	122	1
10	13	1
11	80	1
108	113	1
89	90	1
61	72	1
86	91	1
45	48	1
61	76	1
74	75	1
15	19	1
89	92	1
47	64	1
