41	42	1
56	56	8
100	101	5
22	22	5
47	47	9
49	77	6
87	97	2
145	146	2
94	98	3
28	28	1
62	62	6
152	152	5
142	142	8
21	21	10
36	36	9
53	53	7
144	144	8
40	41	3
5	5	5
7	11	5
16	35	1
12	12	2
68	68	8
108	109	2
48	48	13
77	77	12
126	127	5
20	20	11
113	154	1
84	95	2
35	36	9
20	22	5
18	18	7
27	27	8
4	4	4
76	76	19
93	93	7
41	41	12
103	103	3
127	127	4
73	73	2
95	95	10
90	93	3
105	105	1
72	72	4
79	79	5
26	26	7
98	102	1
39	39	12
132	132	12
143	144	2
45	45	7
25	25	7
51	55	7
141	144	2
72	103	2
51	54	4
143	143	8
13	21	4
80	81	3
85	85	6
9	17	1
57	57	2
113	113	3
69	70	1
106	106	7
114	114	5
75	75	5
147	147	5
34	34	5
14	15	2
38	40	4
46	46	10
140	142	2
15	35	3
57	65	6
129	129	1
19	20	2
33	34	6
120	120	10
81	81	13
141	141	6
90	90	3
120	122	1
123	123	8
25	26	4
112	113	5
134	137	1
147	151	2
15	15	8
124	124	5
125	125	5
107	108	4
147	148	3
144	145	10
62	63	4
108	108	7
75	83	2
80	82	10
137	137	4
99	109	2
87	109	2
75	97	3
153	153	2
54	74	1
77	92	5
29	29	8
110	111	4
154	154	5
57	58	2
125	126	4
109	109	1
96	97	4
20	21	6
3	3	2
10	43	2
8	9	2
135	136	2
8	36	2
148	148	2
58	65	1
9	43	3
112	112	4
121	121	5
14	14	6
150	150	5
50	50	13
51	51	4
71	100	2
23	23	5
86	95	2
4	5	4
63	80	2
58	58	1
66	67	2
26	27	4
132	133	2
115	115	1
105	107	3
76	99	1
37	37	1
78	78	8
6	13	3
66	66	8
45	53	1
98	99	8
145	145	7
76	83	4
31	53	1
121	146	1
9	9	7
121	122	2
67	68	2
138	138	4
128	130	2
65	67	6
52	52	3
117	153	1
87	87	9
70	91	2
4	7	3
49	49	5
72	73	4
84	85	3
85	86	2
9	26	2
106	118	2
138	139	2
11	11	5
17	17	7
42	42	4
16	16	4
80	80	3
32	33	1
81	82	3
77	95	1
92	92	2
33	33	2
100	102	1
83	83	2
24	44	3
27	28	2
99	99	6
48	49	1
85	96	1
42	43	4
65	65	1
17	18	3
147	149	1
123	129	3
139	139	2
143	154	1
86	86	5
71	72	3
28	29	1
106	110	1
30	30	1
32	32	2
31	50	1
148	149	3
130	130	9
10	37	3
126	143	2
84	92	2
10	11	1
53	69	3
11	12	1
117	118	3
58	61	1
19	19	7
37	38	2
47	78	1
122	122	4
9	36	3
55	56	3
54	54	7
38	38	4
2	2	1
140	141	3
97	97	3
6	6	3
23	25	5
36	37	3
74	75	6
150	151	2
104	109	1
10	10	2
129	147	1
11	13	1
105	116	1
135	135	2
17	19	1
141	142	1
77	91	2
14	29	1
43	44	1
9	24	3
4	35	2
104	105	2
35	35	3
70	103	1
41	52	1
100	100	1
9	31	1
10	12	2
97	114	1
74	74	3
43	62	3
23	63	3
87	88	1
44	44	4
24	24	2
54	55	3
69	69	3
5	29	1
34	35	1
31	31	1
97	111	1
131	131	2
6	7	3
43	43	4
117	117	4
71	73	2
39	41	3
118	118	5
116	117	3
126	128	1
43	46	1
96	98	3
7	45	2
13	13	1
13	14	1
18	20	2
74	78	2
54	71	1
41	43	3
108	130	1
98	98	7
116	116	3
110	110	2
54	73	1
64	106	1
93	95	3
85	98	1
30	31	3
63	64	1
14	43	4
102	102	1
29	31	1
22	26	1
140	140	5
64	65	1
47	49	1
71	101	2
102	110	1
71	71	1
134	134	1
126	126	6
16	20	1
4	6	1
139	141	2
4	22	4
64	67	2
33	35	1
69	71	1
149	149	2
94	94	1
127	133	1
131	141	1
3	29	2
67	67	3
54	69	1
26	58	1
62	64	1
49	71	1
7	7	3
119	119	1
6	8	1
94	108	1
134	138	3
133	133	3
140	149	2
31	33	2
51	52	1
97	98	2
92	93	1
70	70	3
91	96	1
15	28	2
77	90	2
84	84	3
101	101	1
49	50	1
63	63	1
82	82	2
109	118	1
123	131	1
9	10	2
128	128	1
149	152	1
149	151	1
151	151	1
31	32	1
44	46	1
78	80	1
55	55	1
113	114	2
82	83	1
104	104	1
6	33	1
79	80	1
141	143	1
130	134	1
48	53	1
40	40	1
111	140	1
100	121	1
64	64	2
136	143	1
76	77	1
6	12	1
27	34	1
23	27	1
13	28	1
75	79	1
