120	124	5
72	102	3
41	42	4
81	82	10
42	43	19
37	37	26
57	57	18
29	58	2
141	141	17
53	53	20
108	108	14
77	78	5
107	107	8
39	40	10
18	18	12
112	140	1
78	78	10
42	42	14
9	9	15
110	111	9
45	45	17
50	79	4
96	96	36
23	30	5
146	146	7
47	47	13
118	118	10
121	126	1
5	5	13
40	46	1
26	30	2
48	48	10
149	149	17
10	10	20
84	87	3
127	136	7
130	130	11
55	55	20
19	19	15
33	36	9
122	122	10
50	51	11
71	71	7
15	15	12
12	12	20
24	24	16
69	70	1
7	7	12
41	41	15
74	82	3
10	11	5
89	122	2
78	98	1
46	46	13
40	41	6
68	68	12
41	43	2
3	7	5
14	14	14
49	80	8
123	123	4
31	31	14
115	116	5
77	80	5
102	126	2
5	79	5
72	83	2
34	37	4
4	4	15
93	93	13
8	13	3
148	149	3
63	63	16
18	25	1
110	112	8
116	116	23
54	63	3
88	88	19
130	131	1
56	56	11
101	102	3
136	144	1
5	32	5
20	46	2
39	39	7
72	86	3
73	74	11
85	85	11
114	151	2
76	76	14
140	140	1
132	132	10
110	110	9
52	52	8
112	154	2
44	80	4
49	49	5
83	86	3
123	125	2
133	133	19
26	26	9
68	82	1
82	82	16
74	95	4
15	17	3
74	74	14
141	142	11
18	19	11
54	54	10
95	95	14
39	51	4
103	150	2
21	21	6
34	34	15
142	142	7
23	23	8
152	153	2
32	32	10
28	30	2
44	44	13
23	24	2
145	146	4
90	90	9
33	95	5
113	113	6
124	124	12
46	52	6
137	146	2
36	36	8
64	64	6
40	40	7
65	65	6
69	154	1
29	29	13
8	8	10
3	6	1
66	66	6
132	145	6
34	49	3
3	3	5
110	115	2
70	90	4
96	97	6
6	7	1
42	55	2
98	98	16
34	77	5
153	153	6
121	125	1
125	125	8
130	146	6
76	78	1
138	139	9
89	97	2
152	152	3
8	78	2
51	68	6
4	28	2
43	44	3
79	79	4
108	109	6
72	84	1
65	66	7
131	131	3
83	83	10
29	30	3
34	36	1
79	94	3
104	151	6
99	101	7
100	100	3
9	13	3
145	145	3
104	104	6
62	62	6
75	75	6
67	67	14
115	136	3
14	15	2
74	81	2
136	136	9
80	80	11
11	36	4
112	114	5
7	30	7
108	111	5
107	152	3
33	33	8
27	28	8
143	146	1
81	81	9
129	131	1
147	147	3
129	141	1
109	109	10
5	25	2
8	9	3
85	86	2
132	136	1
35	71	2
75	83	5
51	51	6
68	75	2
71	75	4
41	44	2
116	135	5
91	115	1
32	55	2
72	72	3
15	23	1
135	135	8
90	119	1
4	25	2
87	99	3
82	90	2
20	20	8
43	43	7
41	73	6
43	54	2
148	148	9
114	114	7
116	140	4
26	32	1
90	124	3
103	151	2
28	28	8
131	132	3
128	134	3
139	140	4
146	147	6
123	127	5
77	77	6
22	23	1
35	35	6
104	150	2
117	129	2
49	50	5
30	30	8
13	13	5
32	51	3
132	144	5
74	97	1
68	83	2
70	70	5
128	139	1
12	13	4
119	119	4
63	64	2
92	93	3
94	94	5
68	69	4
136	147	1
8	81	1
88	96	2
50	86	3
47	49	3
50	67	1
22	22	8
94	98	4
25	26	6
34	35	2
69	71	3
150	150	12
106	106	6
87	96	2
113	135	2
11	11	5
111	112	2
49	64	2
7	31	2
17	17	10
2	2	1
25	25	16
82	85	3
23	31	3
64	65	5
91	91	3
122	123	5
117	117	7
35	70	1
76	77	2
66	68	4
69	69	4
140	141	2
9	10	7
86	86	4
49	68	1
14	27	4
125	137	2
25	27	1
128	129	5
131	146	3
119	138	2
98	103	4
33	50	2
82	86	2
38	39	1
102	105	1
120	126	2
22	32	3
120	146	2
54	56	2
12	25	1
107	109	1
5	6	1
103	103	2
8	74	3
13	21	2
126	127	5
106	113	2
85	87	3
144	144	6
80	81	7
137	138	1
130	142	12
75	94	2
22	24	3
112	112	11
119	152	2
56	63	3
61	62	1
67	68	1
151	151	4
51	63	2
35	36	4
84	84	2
83	98	2
9	11	4
36	94	1
17	18	1
115	135	1
4	32	3
120	128	1
69	84	1
130	133	2
49	53	1
14	30	1
143	143	6
28	29	9
68	70	2
50	50	2
109	111	3
104	149	3
130	143	4
16	16	5
73	77	2
139	141	4
107	108	2
54	65	3
70	89	1
65	67	3
89	89	2
131	135	2
83	99	2
118	119	2
30	34	1
40	67	3
34	69	2
139	139	3
69	82	2
69	74	2
20	21	6
113	136	2
42	80	2
87	124	2
6	6	4
105	106	2
46	55	1
5	26	1
106	152	1
71	100	3
47	48	3
123	138	1
12	37	3
121	145	1
110	151	1
12	34	2
73	73	4
63	68	2
84	133	3
121	128	1
55	65	1
46	47	5
121	127	2
111	114	1
38	69	1
94	95	3
56	57	1
33	34	1
102	102	2
112	113	4
124	126	1
72	95	1
11	14	1
121	121	2
105	108	1
16	20	1
127	127	2
134	135	1
16	17	2
129	150	3
21	23	1
6	80	1
92	92	1
141	144	2
26	27	2
105	105	2
26	55	3
120	121	2
15	63	1
38	38	2
118	125	3
17	19	2
78	79	2
47	53	2
93	94	1
126	126	1
124	136	1
134	134	2
38	67	1
145	147	5
7	15	2
84	88	2
129	129	4
75	76	2
106	107	3
12	14	2
53	54	1
35	37	1
3	80	1
84	103	1
38	53	1
69	88	1
16	49	1
39	43	1
129	130	3
45	46	1
94	106	1
93	97	2
25	28	1
16	54	1
103	126	2
143	144	1
10	76	1
24	29	1
108	110	1
64	79	1
109	114	1
49	81	1
79	81	1
24	25	1
12	30	1
82	93	1
51	57	2
111	111	3
120	139	1
94	99	1
121	137	1
44	55	2
126	138	1
97	97	1
27	32	1
78	84	1
57	58	2
79	80	1
115	115	1
97	98	2
111	150	1
113	147	1
63	67	1
38	45	1
138	138	1
74	94	1
102	103	3
128	145	3
8	77	1
123	124	1
117	127	1
43	56	1
44	70	1
83	87	1
137	137	1
51	54	1
120	120	1
112	141	1
62	72	1
33	78	1
99	99	1
132	134	1
31	55	1
65	95	1
13	15	1
117	138	1
36	65	1
95	97	1
147	154	1
9	46	1
7	82	1
56	58	1
53	63	1
48	50	1
104	105	1
121	136	1
61	61	1
