110	110	12
106	106	7
167	191	2
89	90	9
21	22	4
190	190	7
111	111	8
122	122	15
118	118	13
46	46	6
188	189	9
131	132	5
20	55	3
180	180	10
61	61	6
99	99	3
125	126	11
3	7	3
133	133	8
159	160	1
139	140	3
135	135	12
104	104	5
117	176	2
74	74	4
9	9	8
100	101	2
177	177	6
20	103	3
188	188	11
113	113	12
193	194	4
171	172	7
113	124	3
28	28	8
168	168	5
181	181	4
153	153	3
169	185	2
23	68	2
7	8	2
171	171	17
164	164	10
117	161	2
197	197	2
18	21	1
103	106	4
178	178	11
137	137	10
103	144	1
45	45	12
101	101	7
53	53	6
111	142	2
157	157	12
49	188	6
155	160	2
165	166	4
65	65	9
77	77	5
175	182	3
6	147	2
52	52	8
48	48	13
185	185	6
153	154	2
2	2	5
136	136	3
9	56	6
167	181	5
89	89	11
174	177	2
136	156	3
38	40	1
35	36	2
23	83	2
148	148	3
32	32	8
187	187	7
12	54	2
28	31	3
169	169	9
170	191	1
44	44	3
51	52	1
117	134	4
121	124	5
156	158	4
98	112	5
108	108	10
22	22	9
23	67	5
93	116	4
34	69	3
130	133	2
7	70	2
163	163	4
31	31	12
113	115	2
138	138	11
54	54	6
140	145	3
39	40	5
140	140	9
134	134	6
105	105	8
153	168	1
8	15	2
23	23	7
158	159	2
123	171	1
179	197	3
66	68	2
40	40	9
185	186	13
15	15	6
59	62	1
30	31	5
43	43	18
99	100	4
192	192	8
20	20	4
50	50	3
3	3	5
61	65	2
14	14	6
62	63	3
53	122	3
176	176	6
115	154	3
128	178	1
182	182	4
6	7	2
46	55	3
109	110	4
191	191	5
98	98	4
72	72	4
141	141	20
67	72	3
143	143	5
155	155	4
145	145	4
19	19	11
162	169	1
148	150	3
124	125	1
140	180	1
164	168	2
156	192	2
1	1	1
7	35	3
5	5	12
120	122	1
42	42	6
27	79	2
172	172	12
5	6	4
26	27	1
161	162	2
158	177	1
19	79	3
64	64	4
160	160	5
24	24	7
173	176	2
145	146	3
155	163	2
1	59	2
4	4	4
51	53	3
24	26	1
34	34	2
27	31	2
20	27	1
6	6	8
167	167	3
12	13	1
127	127	8
73	75	2
175	176	7
193	193	5
136	169	2
147	147	5
150	150	8
61	74	7
26	26	7
84	85	7
41	42	2
191	193	3
16	16	8
105	110	6
187	188	5
194	197	3
63	63	6
158	176	1
131	131	4
51	83	2
29	31	2
13	14	3
39	39	7
129	129	5
29	29	2
167	180	4
119	155	2
159	159	8
194	194	5
161	161	5
170	170	8
93	117	2
119	119	4
171	183	2
166	166	5
114	114	12
1	22	1
130	130	3
93	124	3
167	168	8
9	129	1
27	27	8
155	156	2
22	64	5
194	195	4
41	41	6
132	132	4
7	7	7
80	80	4
3	5	3
47	47	10
116	116	5
111	188	1
154	162	6
152	189	7
0	36	5
16	19	2
37	38	5
151	151	18
95	155	1
16	25	2
61	63	4
173	173	7
121	127	2
186	186	6
29	44	3
35	35	17
62	64	5
9	11	2
116	117	1
36	65	2
186	188	2
154	157	5
112	112	7
78	78	4
96	97	2
166	180	3
184	186	4
109	109	8
133	177	2
104	105	1
62	62	1
60	60	5
11	11	2
108	146	2
157	166	3
130	131	3
124	124	3
111	185	2
107	107	9
115	115	5
123	124	9
33	33	7
179	179	7
173	177	1
50	51	2
143	175	1
147	151	3
104	144	2
163	164	3
162	186	2
186	191	3
1	103	2
138	149	1
88	88	2
174	175	1
62	74	3
117	133	4
116	145	2
189	189	7
128	128	8
177	178	2
124	126	3
122	186	5
179	180	2
174	174	11
67	67	6
8	16	1
25	25	4
122	123	2
134	180	1
37	37	4
68	68	2
102	102	8
36	36	8
176	177	1
25	36	1
23	27	3
168	182	5
13	55	1
16	36	3
119	120	1
195	196	3
76	76	2
51	80	2
105	106	1
37	63	1
3	58	3
85	86	1
66	67	4
10	11	3
96	96	4
70	71	3
101	118	2
100	113	3
140	143	1
53	142	1
141	178	1
57	57	5
102	107	1
12	12	7
10	127	1
29	79	2
116	139	2
9	43	3
69	69	6
127	142	1
0	1	1
52	53	2
126	127	4
41	69	2
160	161	2
132	178	1
174	176	2
73	74	4
100	115	1
181	193	1
28	44	1
183	183	7
49	49	5
114	183	1
22	23	4
136	138	2
151	152	2
161	168	2
158	162	1
8	8	4
156	156	5
165	165	3
49	50	2
142	142	3
190	191	2
176	179	1
39	63	1
114	116	3
84	84	2
117	132	1
83	84	1
120	127	2
149	151	2
56	56	1
93	93	1
154	154	6
79	80	1
65	73	3
175	175	2
168	184	4
145	173	2
150	151	1
10	123	1
157	158	3
13	38	1
120	123	2
136	137	2
56	62	2
102	147	1
101	175	2
119	171	1
93	137	2
53	186	1
121	121	1
51	51	2
40	41	3
152	152	5
7	22	1
173	175	2
100	151	1
175	178	1
162	162	4
74	75	2
22	76	1
66	66	4
0	35	2
168	180	1
62	75	2
182	183	1
57	190	2
6	21	3
27	83	2
95	95	3
19	37	2
6	8	1
147	148	2
30	52	2
79	116	1
103	135	1
139	139	4
22	27	1
116	119	1
140	181	1
20	21	1
3	23	2
54	56	1
83	148	1
59	60	1
121	122	4
191	192	3
160	170	2
10	10	2
117	117	4
53	54	2
144	144	4
70	70	2
50	83	1
192	193	1
178	180	2
13	13	2
56	57	2
160	163	1
158	160	3
82	89	1
112	113	2
11	12	2
49	187	1
100	100	2
120	121	1
47	48	2
4	23	1
187	195	1
145	183	1
25	64	1
20	78	5
195	195	1
120	120	1
112	128	1
25	26	2
184	184	2
126	126	3
168	169	1
99	153	2
95	114	1
73	73	1
18	29	3
45	49	1
24	67	1
162	163	1
4	103	1
11	129	2
119	168	1
146	183	2
93	94	1
1	2	1
15	23	2
87	151	1
111	112	2
115	164	1
124	160	1
8	22	1
116	133	1
86	146	1
49	54	2
93	110	1
13	39	1
152	153	1
117	181	1
109	111	1
143	145	1
95	127	2
112	150	1
9	139	1
46	47	2
189	190	2
122	129	1
143	144	1
38	38	4
0	23	1
130	132	1
155	157	2
30	30	1
2	3	1
103	104	1
154	158	4
117	139	1
159	175	1
94	94	3
30	191	1
152	161	2
18	27	2
17	17	1
159	179	1
10	49	1
144	145	1
97	138	2
184	196	1
114	115	1
114	141	3
11	131	2
19	58	1
163	167	2
101	102	1
154	160	1
155	172	1
117	137	1
183	184	1
196	196	2
12	56	1
58	58	1
87	87	1
149	150	1
21	107	1
13	33	1
172	190	1
17	18	1
148	149	1
170	171	2
6	103	2
93	164	1
105	128	1
12	133	1
71	72	1
87	88	2
112	116	1
141	179	1
88	145	1
96	127	1
166	182	1
45	46	1
169	170	1
55	57	1
155	159	1
180	184	1
72	73	2
9	49	1
53	140	1
164	167	1
178	181	1
4	102	1
159	169	1
123	123	1
121	157	1
172	174	1
29	84	1
140	149	1
18	39	1
