64	64	9
132	133	5
151	151	3
6	9	3
64	65	13
17	17	16
141	141	2
26	26	2
102	103	8
12	13	11
106	107	2
145	145	4
47	47	21
14	95	2
69	70	12
31	31	16
129	131	2
73	73	8
17	54	4
79	79	4
46	46	12
22	22	20
36	36	4
31	32	4
109	109	3
66	66	17
70	70	19
54	54	10
75	77	1
75	76	8
46	47	7
98	98	7
139	139	5
40	40	11
123	123	4
38	42	1
100	101	2
72	73	4
150	151	6
21	21	6
104	104	1
16	22	2
68	68	18
51	54	2
34	34	6
45	45	13
23	25	1
44	44	12
100	100	5
80	81	2
23	50	4
118	118	12
138	141	4
21	96	2
10	11	3
100	109	7
84	84	5
68	74	3
27	27	7
14	14	13
14	16	2
72	72	6
97	98	2
105	109	3
12	12	11
43	46	2
18	30	6
6	14	3
121	121	3
11	11	10
15	15	11
37	37	5
94	95	6
95	95	21
124	124	2
94	94	6
122	123	3
144	144	6
10	17	2
96	99	5
24	24	35
150	150	6
129	129	7
25	25	4
102	102	8
81	82	7
93	94	3
54	64	5
99	99	16
28	29	3
24	27	5
19	20	6
82	83	1
107	109	5
58	58	2
2	2	2
8	8	6
19	28	1
55	55	9
42	43	3
6	84	1
26	29	3
72	94	1
26	28	2
82	82	1
57	57	5
114	114	3
76	76	6
41	41	24
103	103	8
39	39	11
116	116	9
32	114	3
42	42	8
49	49	6
78	98	1
24	46	1
152	152	6
53	53	3
18	18	3
145	147	1
28	30	1
77	77	11
96	97	4
5	8	1
45	46	9
20	38	4
70	71	4
132	148	2
131	136	1
56	56	4
131	132	1
32	35	1
154	154	1
65	76	5
19	19	11
95	96	4
67	69	3
19	22	1
77	78	6
130	131	2
78	78	8
43	45	4
29	94	1
10	10	7
56	86	5
14	15	2
39	40	3
53	54	6
8	95	6
38	38	14
64	94	1
48	48	6
19	56	2
43	43	11
23	52	2
40	90	2
2	3	4
12	20	1
85	86	2
23	23	7
61	62	1
9	9	7
12	16	1
93	93	4
117	117	7
97	99	5
13	13	2
115	118	8
103	108	1
33	33	4
24	47	1
24	43	1
49	81	4
16	57	5
142	142	4
107	114	1
119	119	8
102	109	1
67	67	3
8	71	2
63	63	3
7	7	8
13	95	3
67	68	6
13	14	4
37	38	7
129	130	5
131	133	1
46	54	2
39	42	8
29	29	5
15	23	1
125	125	2
108	111	1
96	98	1
30	30	10
96	96	6
49	50	1
17	18	5
86	86	7
107	110	2
20	20	5
69	69	9
39	90	2
111	112	3
115	119	3
112	112	4
71	71	8
101	101	7
3	8	2
5	7	3
87	87	1
111	111	5
149	149	2
31	33	1
13	16	1
67	71	4
142	151	2
47	48	2
83	84	4
147	147	2
134	134	4
140	141	2
36	115	2
137	148	1
61	70	2
144	146	1
105	105	2
63	64	4
4	5	5
128	128	5
11	12	1
21	37	1
28	28	3
33	34	2
24	29	1
32	32	1
14	25	2
81	81	8
83	83	2
76	77	5
14	96	4
66	68	2
3	3	2
19	21	1
97	97	2
16	18	4
104	105	1
88	88	3
146	148	3
20	21	5
152	153	1
65	65	5
44	45	4
131	131	6
4	4	2
15	25	1
18	96	1
24	97	1
71	75	1
68	69	2
72	74	1
118	119	1
143	143	1
109	115	1
103	120	1
120	120	2
6	96	2
129	133	1
108	110	1
9	18	1
80	84	5
40	70	3
18	54	2
26	38	1
36	44	1
64	76	1
132	149	2
54	55	2
80	80	2
31	96	1
62	62	2
102	107	1
106	106	1
6	6	1
75	93	3
68	72	1
28	35	2
5	29	1
39	41	1
13	71	2
115	115	2
16	97	1
140	140	1
24	25	2
98	99	1
80	82	1
20	27	1
15	96	1
92	92	2
37	42	1
101	102	1
52	52	1
116	117	1
65	94	2
62	63	3
138	139	1
41	42	4
3	4	1
7	19	1
110	112	1
67	76	1
62	93	1
153	153	2
122	122	1
51	52	2
128	130	1
4	24	1
40	50	1
66	67	1
88	90	2
116	120	2
21	52	1
6	10	2
124	125	2
111	113	1
69	82	2
125	126	1
36	43	3
129	132	2
108	109	1
15	16	1
135	135	1
10	12	2
2	40	1
9	36	1
120	125	1
23	71	3
92	93	1
133	141	1
113	114	1
86	87	1
9	153	1
93	95	1
108	115	1
36	37	1
79	96	2
18	19	1
139	140	1
49	82	1
107	108	1
116	118	2
45	53	1
5	24	1
99	104	1
9	71	1
24	26	1
148	148	1
78	95	1
34	36	1
57	58	1
22	23	1
31	37	1
37	53	1
16	99	1
25	26	1
41	43	1
115	117	1
100	108	1
87	88	1
103	105	1
11	16	1
16	17	1
126	126	1
74	75	1
74	74	1
4	9	1
136	136	1
