138	138	21
34	34	11
78	79	6
103	104	7
33	37	1
18	18	13
82	105	5
115	115	3
129	129	18
16	16	5
114	114	12
103	103	7
80	101	8
109	109	7
25	25	7
102	102	15
135	136	1
74	96	2
130	132	1
28	29	10
101	101	4
101	102	5
116	117	5
23	23	6
88	97	2
88	88	8
7	7	8
91	94	3
95	95	11
89	89	5
1	2	2
131	131	11
133	133	18
80	106	1
107	107	13
15	15	7
81	82	7
77	78	7
128	129	3
84	84	14
73	73	17
87	124	1
116	116	9
36	36	7
134	134	12
8	9	8
122	122	16
35	35	11
125	125	6
32	32	12
12	12	8
16	18	3
74	93	1
123	123	15
1	1	11
91	124	4
22	23	8
71	72	4
97	97	6
9	25	1
22	27	3
117	117	11
137	137	22
21	22	3
92	92	6
75	76	6
92	94	3
76	76	14
135	138	2
90	98	3
86	86	4
38	38	2
94	94	11
112	113	12
30	31	3
4	4	9
88	124	2
93	116	4
24	26	5
99	99	3
83	83	7
22	30	3
124	124	7
135	135	18
108	109	1
105	105	7
28	28	5
27	29	4
104	128	1
26	26	6
106	106	4
120	122	4
96	96	7
136	136	17
19	23	2
0	0	4
80	80	15
130	130	2
21	34	2
98	98	12
13	14	1
121	121	12
15	18	4
93	93	7
117	123	7
84	105	2
112	112	3
37	37	16
71	73	3
127	127	3
111	111	16
82	82	4
6	6	4
98	140	1
15	20	4
137	138	2
23	26	2
7	12	6
78	103	1
87	97	5
90	99	1
24	85	2
2	3	4
81	81	15
107	110	2
28	34	3
14	27	1
71	71	9
29	82	4
134	135	4
106	108	2
80	102	14
88	132	1
23	85	3
7	15	1
113	113	11
78	78	4
89	90	2
13	19	2
17	17	5
104	106	5
86	87	1
121	122	5
7	9	3
110	110	1
3	4	3
96	140	3
17	18	3
33	33	6
108	108	9
30	30	6
116	119	5
19	22	1
11	11	2
3	3	7
114	115	8
24	92	2
109	110	1
118	119	2
3	127	2
22	22	11
110	111	8
84	86	2
90	97	4
20	21	4
5	6	5
132	132	8
126	126	9
119	119	7
107	108	1
88	129	2
74	74	5
87	87	3
100	100	5
124	125	2
24	25	4
94	109	1
10	10	7
71	78	1
123	125	1
116	120	1
27	28	1
20	20	8
139	140	4
127	128	2
140	140	2
91	91	2
108	110	4
33	34	5
72	72	4
86	102	1
31	72	4
1	8	1
75	75	6
7	8	4
11	26	2
136	137	3
120	120	11
87	129	1
79	79	3
104	104	6
77	77	7
19	21	2
99	100	1
8	25	1
29	84	1
26	31	1
5	5	4
27	27	3
74	78	1
29	29	6
24	24	5
111	120	2
22	29	1
132	133	1
102	103	2
8	28	4
30	84	3
97	98	6
118	118	8
76	77	1
80	83	1
87	88	1
12	14	1
19	25	2
113	114	1
11	32	3
85	86	2
128	128	12
102	104	2
82	85	2
86	96	1
104	105	2
19	19	3
85	85	3
77	95	1
80	95	1
2	2	2
33	36	1
36	37	2
76	78	5
106	107	2
30	32	4
23	24	4
33	35	1
4	5	1
29	73	1
86	117	1
29	32	3
83	105	2
107	109	2
108	120	2
18	19	2
92	93	2
15	23	2
13	13	1
77	92	5
12	13	2
28	84	3
4	7	1
84	85	3
125	128	1
119	123	1
17	19	1
14	15	2
6	7	1
109	116	1
96	98	2
93	94	1
82	83	1
34	35	1
122	123	1
112	114	1
71	100	1
128	130	2
81	101	3
106	122	1
100	101	1
37	38	1
88	89	1
23	84	1
30	72	1
119	122	1
89	115	1
105	112	1
103	105	1
31	31	3
1	27	1
25	26	4
129	130	1
80	105	1
28	124	1
126	129	2
105	107	1
14	14	1
29	30	3
138	139	1
80	109	1
111	112	1
73	78	1
126	128	1
139	139	1
8	32	1
87	103	1
113	118	1
122	128	2
94	95	1
81	86	1
111	114	1
27	31	1
100	102	1
118	121	1
95	102	1
26	84	1
123	124	1
73	74	1
105	128	1
78	102	1
7	72	1
127	129	1
73	77	1
80	122	1
