187	187	3
47	47	6
147	147	9
107	160	6
98	98	7
104	104	13
101	101	10
152	152	10
14	14	10
114	123	4
25	47	2
39	40	1
114	125	4
125	125	7
96	99	4
55	83	4
20	20	9
11	15	5
37	37	7
138	138	11
65	65	6
140	155	1
4	24	2
111	118	8
36	36	12
145	145	16
11	13	2
171	171	3
88	88	13
92	92	7
37	38	3
104	105	3
8	48	2
45	45	11
133	133	6
167	168	3
144	144	3
170	171	3
61	62	3
92	94	1
43	81	3
117	118	3
35	43	3
101	121	5
119	119	2
76	77	3
153	153	4
81	97	3
45	47	1
83	83	12
25	25	4
109	109	7
82	82	8
158	158	8
172	173	4
146	146	7
16	16	20
14	54	1
76	76	5
60	60	9
75	88	2
36	37	1
122	158	5
70	71	10
13	13	3
88	89	1
179	180	5
136	142	4
17	17	16
121	122	3
150	151	5
77	153	1
178	178	13
155	156	5
161	161	15
74	78	1
122	182	1
90	90	11
29	30	3
103	111	5
13	15	3
1	1	9
72	72	6
19	20	4
97	97	6
188	188	18
150	150	8
186	186	8
99	100	5
137	138	2
32	32	8
26	27	3
74	74	13
127	138	7
108	114	6
91	92	2
54	60	5
2	70	1
164	164	17
93	93	2
91	91	5
59	60	7
149	149	11
42	81	2
141	142	5
34	34	1
59	59	2
46	47	2
106	118	1
33	33	7
27	27	6
139	145	3
40	40	6
169	169	7
124	124	13
123	125	2
46	46	7
105	121	5
58	62	4
123	140	3
177	178	2
121	173	1
80	80	7
19	32	2
54	55	5
17	18	7
123	123	10
152	153	6
69	70	4
122	179	1
134	135	6
137	139	2
42	42	4
130	131	9
154	154	8
126	128	3
106	119	4
165	170	2
121	121	3
73	76	6
115	115	5
148	148	2
5	5	7
66	66	2
13	17	2
168	168	2
123	154	2
73	73	3
120	142	1
44	55	2
173	173	7
134	134	8
20	21	1
56	56	15
114	114	13
130	130	6
35	35	3
142	142	3
166	166	6
189	189	2
6	6	9
140	140	8
61	61	1
63	64	5
40	41	8
66	68	4
21	22	2
91	93	4
0	0	1
78	80	1
79	82	1
108	184	2
24	24	8
11	48	1
7	8	3
157	157	8
96	97	6
137	137	9
3	3	6
7	48	1
129	151	2
59	64	1
53	54	1
120	125	2
94	100	1
24	40	1
135	135	6
39	39	17
123	150	3
2	2	5
20	31	1
112	112	7
36	44	2
18	25	1
136	136	5
138	141	3
21	21	2
41	41	16
1	6	2
0	61	1
67	67	9
96	96	5
141	141	3
18	19	2
175	175	1
28	28	2
42	93	1
122	156	2
164	165	1
22	22	12
107	170	2
114	119	1
22	56	2
107	114	2
58	58	4
30	31	6
84	84	6
55	55	4
38	79	3
6	10	1
28	29	2
132	133	2
29	29	4
43	43	8
68	69	1
126	126	4
85	85	7
4	6	1
28	47	5
23	24	4
11	11	1
127	139	5
96	98	1
11	12	4
99	99	5
108	108	6
182	182	2
124	138	1
128	128	1
162	163	6
44	45	8
129	149	4
21	23	3
33	34	5
131	149	3
78	78	8
84	85	2
101	104	2
94	101	1
125	142	1
83	84	3
134	136	5
5	24	3
113	113	13
63	68	2
55	56	4
15	15	8
75	115	1
38	39	3
83	115	2
77	77	9
155	155	2
131	131	4
102	122	3
143	143	6
9	12	2
63	63	3
122	122	6
136	137	2
174	185	3
118	118	3
120	127	1
5	6	2
22	25	4
35	36	3
2	76	3
120	121	8
106	106	8
7	7	1
159	159	1
57	57	8
8	8	3
129	129	8
151	154	1
47	56	2
169	183	6
154	155	6
111	112	4
167	169	1
105	105	3
187	188	1
81	81	9
103	113	3
7	110	3
44	44	2
93	94	5
147	164	1
64	64	8
1	3	2
65	68	2
140	141	5
177	177	2
81	82	2
79	80	3
106	108	1
168	171	1
101	103	2
101	102	2
170	170	4
99	104	1
62	62	9
29	48	1
127	127	15
87	115	2
98	104	4
181	181	2
107	107	12
103	103	8
98	105	5
31	31	2
71	72	1
139	147	2
30	30	1
90	95	1
129	148	3
120	139	2
86	86	12
109	111	1
96	104	2
22	23	2
42	44	2
69	71	1
161	164	1
38	38	7
21	47	1
82	87	4
54	54	2
34	36	2
2	39	1
110	110	2
87	87	4
95	104	2
165	165	6
119	121	1
184	184	5
42	43	1
89	89	2
95	100	2
106	107	6
127	149	2
66	71	2
174	174	6
146	147	2
38	40	1
139	139	3
37	81	2
26	45	1
118	127	1
173	174	4
110	131	2
105	112	4
128	137	4
153	154	1
111	119	3
53	63	2
95	103	1
102	102	9
173	175	2
75	75	2
80	85	2
39	41	2
4	31	3
12	12	1
100	104	1
149	150	2
77	78	1
64	68	1
3	8	2
32	35	1
55	73	1
148	162	3
71	71	3
46	58	2
89	90	1
9	13	1
23	23	4
138	139	2
190	190	2
124	137	1
151	152	3
82	83	2
98	100	1
66	67	2
75	87	1
58	61	1
176	177	2
53	53	2
69	69	3
108	130	1
118	119	1
4	4	4
14	15	2
79	79	4
115	120	1
131	132	3
25	26	3
151	157	3
119	120	3
99	124	1
129	130	2
116	117	2
5	12	1
48	48	2
95	95	3
9	10	2
57	74	2
142	143	2
100	100	4
100	146	1
88	115	2
131	142	3
126	127	2
108	109	3
172	172	2
116	116	1
112	117	2
42	94	2
130	144	1
108	112	1
109	110	1
89	115	1
6	7	1
144	145	1
117	117	3
75	77	1
2	38	1
53	73	1
68	68	4
96	109	1
156	158	5
15	48	1
10	10	4
176	186	3
72	73	1
167	167	1
0	82	3
100	101	2
125	148	1
120	126	1
135	137	2
182	183	3
61	64	1
32	41	1
111	111	2
172	174	1
82	86	1
188	190	1
163	163	2
37	43	3
57	62	1
179	179	1
4	10	1
121	159	2
100	124	2
22	28	1
100	145	1
125	147	2
58	63	2
1	7	3
114	115	2
56	76	2
159	183	2
19	31	2
171	175	2
141	143	2
65	67	1
55	75	1
113	114	1
74	75	3
6	8	1
102	103	2
99	119	2
153	157	1
37	83	2
42	92	1
76	86	1
109	126	3
168	170	1
19	19	2
32	39	2
83	85	1
26	55	2
10	14	1
179	182	1
132	132	1
103	120	1
107	108	2
63	72	1
128	142	1
162	162	1
160	169	1
58	59	2
163	165	1
16	17	1
126	138	1
178	179	1
0	79	1
113	120	1
145	146	2
6	9	1
103	104	1
57	61	1
127	128	1
70	70	1
78	79	1
96	100	2
163	164	1
130	132	1
112	114	2
112	113	1
128	149	2
160	168	1
161	162	2
183	184	1
137	142	1
29	47	1
93	95	1
74	106	1
155	158	1
108	171	1
97	98	1
52	71	1
105	119	1
106	115	1
124	125	1
156	156	1
176	176	1
74	88	1
44	57	1
