87	87	5
101	101	7
2	23	4
111	112	8
142	153	5
23	23	1
132	134	4
95	96	3
99	99	4
132	132	6
109	111	3
86	86	3
129	129	2
121	122	4
106	106	7
127	127	15
28	28	9
57	67	4
131	133	1
154	154	4
91	91	1
70	70	3
41	67	9
52	54	4
40	40	7
77	97	2
15	15	4
147	153	5
105	105	6
104	119	1
100	100	12
126	150	3
115	115	2
40	41	5
76	77	4
95	95	3
65	65	4
33	33	4
93	107	4
55	55	7
21	51	2
140	143	1
146	152	3
56	57	4
16	16	7
22	82	2
122	122	9
44	44	5
86	87	4
96	96	5
26	26	11
46	46	5
32	34	5
152	152	6
97	97	8
150	150	5
24	24	5
144	147	4
94	94	3
20	51	2
49	49	5
130	130	4
22	22	3
105	115	2
20	20	4
7	7	5
37	37	5
41	41	8
135	158	2
27	27	7
146	148	2
6	6	4
152	155	3
131	131	5
125	125	1
137	137	10
83	98	5
23	25	2
92	93	4
79	80	2
9	54	2
13	13	5
32	32	5
131	132	5
52	141	1
107	113	5
69	70	5
144	148	3
85	85	5
18	18	5
81	82	2
35	35	1
28	42	6
90	121	6
34	48	1
78	79	2
134	134	2
45	45	7
140	140	8
56	56	5
151	151	6
107	111	2
31	31	2
96	97	1
3	4	1
36	37	3
141	141	5
21	22	3
145	145	4
25	26	2
73	73	10
85	98	1
109	110	1
13	15	6
34	34	9
17	17	11
14	14	3
1	2	2
2	29	1
144	144	1
53	53	5
139	139	11
103	103	3
108	109	4
6	129	1
42	43	3
38	38	2
80	80	2
1	1	3
75	76	4
25	25	5
48	48	1
34	49	4
108	108	2
35	36	2
124	125	2
86	104	1
29	42	2
90	90	6
18	22	2
86	139	3
10	32	1
81	94	2
7	158	2
10	11	4
66	70	1
68	68	6
36	39	4
8	8	2
88	89	2
42	42	2
131	155	4
104	104	5
32	33	2
146	153	2
120	148	1
134	158	3
52	52	2
47	77	3
91	92	4
69	69	2
71	152	1
96	111	2
36	48	3
77	78	1
43	85	1
115	127	4
16	17	1
19	84	6
63	63	1
90	91	4
53	141	2
2	6	1
19	19	4
25	81	3
66	66	7
36	36	2
44	72	3
21	29	5
88	88	3
43	43	5
51	51	4
23	24	5
75	75	2
118	118	5
148	149	1
136	137	1
3	28	4
12	12	3
81	81	3
3	20	1
148	151	3
65	75	3
10	10	2
153	153	4
131	152	5
155	156	2
123	126	2
83	84	1
98	98	1
71	71	2
3	8	1
67	67	2
2	7	1
136	136	1
106	135	1
138	138	4
9	9	4
48	71	1
152	153	1
48	49	2
68	69	1
131	142	2
89	133	1
134	135	2
72	72	5
4	19	2
26	102	1
103	105	2
10	114	2
4	20	1
135	135	1
124	124	5
4	4	3
97	98	1
29	157	2
2	43	2
107	107	4
29	55	2
93	93	2
13	19	2
22	71	1
148	148	3
139	140	1
78	78	4
149	149	2
127	140	1
139	151	1
118	144	1
132	142	1
63	88	1
65	66	2
8	10	2
52	154	1
14	69	2
123	123	1
19	28	1
9	11	2
112	112	1
116	116	2
133	151	2
35	48	1
115	116	1
64	115	1
82	94	2
64	64	2
141	143	1
46	47	1
147	147	2
122	132	1
139	152	2
33	37	1
57	57	1
6	8	1
135	136	1
20	83	1
11	11	1
82	95	1
123	127	3
120	120	1
11	12	3
121	126	1
121	121	1
67	69	1
56	90	1
30	38	1
19	50	1
6	98	2
89	89	1
26	95	2
134	152	2
4	5	1
80	90	1
119	122	1
131	144	1
123	124	1
114	114	1
82	83	1
21	43	1
108	110	1
125	126	4
54	67	1
36	38	1
125	156	1
39	40	1
64	145	1
102	102	2
118	121	1
12	17	1
2	17	1
142	147	1
108	111	1
7	13	2
30	30	3
118	154	2
2	19	1
54	54	1
43	84	1
84	128	1
62	62	1
144	145	1
108	113	1
40	86	2
89	116	1
1	29	1
113	114	1
119	121	1
