31	31	7
70	70	18
86	86	26
58	58	10
54	54	23
82	82	6
83	83	7
65	65	11
80	81	5
67	68	13
36	37	2
36	36	10
73	73	8
50	65	1
81	85	6
79	79	5
95	97	6
52	52	17
30	30	6
40	40	17
53	54	9
101	101	21
48	48	8
96	96	3
78	78	17
35	35	11
29	29	3
92	93	6
54	55	20
57	59	3
55	56	3
93	99	4
27	28	2
25	28	7
74	74	26
88	88	5
96	98	4
44	44	14
43	43	13
47	48	5
27	27	5
81	81	10
98	98	9
93	93	7
92	92	18
42	57	2
75	75	25
53	53	15
49	49	3
26	26	5
63	63	22
37	37	12
87	87	11
66	66	9
23	23	2
56	56	10
77	77	13
39	39	10
69	69	8
42	42	21
94	97	4
84	84	7
51	51	11
59	60	2
99	99	10
67	67	15
56	57	10
79	95	1
76	79	1
34	34	3
42	77	1
96	97	6
65	66	7
41	43	2
81	84	2
59	59	13
34	35	1
38	38	2
62	62	11
91	91	6
76	76	8
64	65	3
29	36	3
76	77	3
72	73	3
64	64	17
69	71	6
69	70	7
55	55	12
46	47	7
71	71	12
89	89	11
71	72	1
70	71	4
41	41	17
52	85	1
55	89	1
33	33	9
60	65	3
99	100	12
94	94	14
61	61	12
23	26	1
60	60	12
54	78	2
25	25	9
40	41	1
47	47	14
58	62	6
80	80	11
24	25	2
79	80	2
52	64	2
49	50	8
95	95	7
57	65	1
57	57	9
45	45	12
87	88	6
68	68	5
87	89	3
64	66	1
84	87	1
85	85	1
90	90	15
45	48	5
39	49	2
26	27	3
65	67	1
25	26	2
68	71	3
46	46	1
77	81	3
92	99	2
23	24	5
20	100	2
50	51	3
61	92	3
89	97	1
95	96	3
22	26	1
50	50	10
80	82	5
34	67	1
51	90	8
89	94	1
39	40	5
22	22	5
100	100	8
29	41	3
66	67	4
93	97	1
44	72	2
60	61	5
73	74	4
102	102	3
58	64	3
57	66	3
50	52	2
48	49	2
41	45	1
61	62	4
61	76	2
43	44	2
63	64	2
81	83	4
44	68	3
88	90	2
29	30	2
54	89	1
84	85	1
33	51	1
28	28	2
33	34	1
39	72	1
68	72	3
37	38	1
22	24	1
72	72	2
88	89	1
81	82	2
65	77	1
42	50	1
52	55	3
64	67	1
51	52	1
31	39	2
32	32	2
68	69	1
68	73	1
53	55	1
79	96	1
32	33	2
42	65	1
20	20	1
32	39	2
29	31	1
45	50	1
97	97	1
93	94	1
67	74	1
77	78	3
59	63	1
42	43	1
74	75	1
27	49	1
67	73	1
20	26	1
