134	134	45
97	97	16
136	136	35
139	140	8
1	25	2
71	77	7
76	76	13
124	125	23
94	94	12
34	34	17
9	11	3
81	85	2
85	86	10
35	35	23
90	90	25
89	89	22
122	123	10
33	110	3
136	137	6
80	84	2
129	129	50
106	108	6
1	3	2
138	140	8
24	24	16
74	74	11
111	111	29
86	86	10
105	106	4
29	29	12
74	75	7
120	122	8
140	140	35
122	122	35
125	126	11
131	131	41
109	109	20
98	98	18
78	78	22
106	106	16
82	82	11
98	132	3
128	128	19
100	100	21
77	77	21
123	123	52
112	112	28
131	140	2
120	120	18
106	107	17
130	130	35
32	118	1
32	119	4
3	3	6
110	110	27
135	135	39
95	97	4
73	80	4
30	30	10
113	113	16
101	103	11
11	11	17
73	73	19
4	4	14
134	135	12
88	88	17
129	130	15
139	139	22
95	114	4
81	81	15
83	83	19
121	122	24
78	92	1
94	102	1
104	104	20
102	107	1
96	98	1
128	129	23
107	108	9
26	26	18
18	18	10
7	11	4
97	98	6
127	129	15
16	16	21
121	121	17
7	8	5
24	27	3
124	124	26
17	17	21
118	118	8
27	27	13
91	91	23
137	137	41
93	96	3
119	121	3
73	75	1
80	80	10
118	119	12
25	25	14
33	33	11
100	103	7
110	127	2
127	127	24
10	10	5
20	20	15
88	104	3
118	120	1
126	127	20
83	84	19
81	91	3
0	1	4
96	96	12
110	111	20
71	79	8
23	23	11
133	133	24
26	27	3
27	30	3
135	138	5
125	125	34
22	22	16
71	71	17
99	104	1
8	9	2
126	126	26
115	116	4
123	124	5
28	29	5
108	108	10
127	128	3
103	103	20
79	79	23
28	31	2
107	107	27
72	72	14
87	87	13
84	84	14
81	87	5
102	102	27
107	109	4
2	2	12
28	28	10
99	99	17
32	32	14
8	8	12
89	99	2
17	18	3
93	93	14
125	127	1
117	117	29
38	38	8
16	17	5
135	136	6
118	123	1
102	103	4
120	121	3
101	101	22
16	18	2
95	95	27
31	32	4
102	104	5
132	132	41
109	111	3
81	82	17
102	108	3
89	113	2
5	6	2
114	114	16
10	12	4
92	92	6
23	24	6
15	15	12
94	95	1
33	118	1
36	130	1
93	94	15
21	21	5
3	4	4
7	7	22
115	115	13
22	23	3
91	98	4
76	101	1
105	105	14
75	103	3
138	139	4
84	85	7
133	134	4
79	81	3
74	109	1
137	138	19
28	30	1
12	12	6
83	86	11
84	129	2
11	12	7
36	36	13
73	74	2
113	114	8
34	35	14
100	101	8
13	13	8
114	115	15
88	90	2
19	20	6
92	93	8
116	116	31
10	15	4
28	36	2
27	28	17
104	108	3
5	5	6
1	1	13
72	73	13
138	138	22
79	102	3
123	126	7
95	96	9
85	87	4
79	80	7
0	11	4
37	37	10
77	80	2
98	99	5
117	118	7
73	77	1
82	84	4
135	137	8
8	11	3
17	35	3
80	82	2
15	31	1
81	120	2
2	4	7
76	78	3
80	86	2
31	31	7
0	0	4
119	120	7
83	85	3
19	30	1
130	131	6
15	18	2
9	9	12
137	140	4
133	135	4
10	20	1
30	31	1
121	123	1
27	29	5
81	88	2
78	96	2
81	83	7
19	19	9
131	132	14
35	36	6
12	22	1
101	112	2
103	107	2
108	109	4
96	114	1
9	10	2
119	119	9
137	139	5
0	25	7
87	88	2
6	6	5
14	14	12
108	124	4
11	14	2
85	85	12
76	77	14
112	113	5
14	15	9
78	79	3
76	104	2
84	86	1
135	140	5
72	74	2
132	133	7
75	75	11
27	32	3
117	119	2
6	7	2
91	92	12
93	102	3
120	123	1
0	12	1
5	8	3
8	10	1
77	79	1
106	124	2
88	94	2
27	31	2
95	100	4
77	78	6
12	13	3
72	126	2
75	76	1
117	124	1
76	79	2
116	117	4
83	117	3
37	38	3
3	6	6
24	25	8
108	111	1
103	105	2
136	138	3
13	26	3
13	31	5
78	80	2
79	94	1
121	124	1
1	11	1
111	121	1
37	74	2
81	110	2
89	114	1
136	139	4
105	121	2
126	128	2
81	100	3
1	23	2
105	109	1
124	126	4
89	90	6
111	112	4
96	97	1
33	34	1
2	3	13
84	120	2
83	120	1
88	93	1
33	85	2
79	95	3
77	81	2
102	116	2
92	94	6
128	130	1
0	7	1
119	122	1
88	105	1
13	14	3
71	78	2
95	115	1
88	92	2
2	12	1
113	115	3
80	94	2
108	117	3
136	140	1
110	112	2
83	87	1
19	21	3
99	100	3
92	96	3
122	124	2
21	26	3
82	85	1
10	17	1
107	124	1
25	26	1
132	134	2
92	95	2
90	91	2
111	127	2
74	105	1
79	87	1
0	5	3
4	5	1
131	133	2
71	72	5
87	105	1
75	106	1
1	4	2
73	102	2
15	17	2
87	97	1
96	100	1
140	141	1
20	31	1
32	33	4
90	99	2
2	8	1
78	87	1
84	122	2
11	15	1
138	141	1
80	102	2
104	105	3
81	84	1
27	35	1
10	11	2
32	121	2
9	26	1
90	113	1
73	78	1
91	96	3
134	140	1
75	124	2
1	19	1
101	102	1
100	102	2
73	79	1
12	30	2
105	119	1
72	79	1
120	124	1
1	2	1
103	104	1
130	132	1
134	136	1
88	107	1
119	123	1
75	104	1
82	90	2
82	83	1
79	86	1
83	119	1
3	5	1
80	83	1
12	25	1
