84	84	3
55	55	4
95	125	1
71	93	5
123	123	9
96	96	10
113	113	7
62	63	3
3	25	4
129	130	1
108	108	5
121	121	8
62	113	3
47	53	1
11	11	4
112	112	7
98	126	3
47	52	4
92	92	6
14	14	7
65	65	6
129	131	1
73	73	7
25	101	3
120	120	8
75	75	5
17	18	8
47	47	8
124	124	3
3	3	7
108	111	6
114	114	3
46	46	6
29	33	6
105	107	6
106	106	11
7	56	2
5	5	3
95	117	1
31	34	1
62	62	8
104	106	2
78	78	3
126	127	3
42	43	4
119	130	4
133	133	6
128	128	9
15	15	6
77	77	8
60	63	4
89	89	3
57	57	6
31	33	2
104	104	3
87	87	1
22	22	7
106	107	3
59	120	7
48	48	9
69	69	9
42	42	3
53	55	4
39	39	15
119	119	5
54	58	1
61	61	2
110	112	1
85	100	2
110	111	4
98	127	2
117	119	3
94	95	3
24	99	4
85	88	2
75	77	1
126	126	2
122	122	3
40	115	1
83	85	4
9	10	4
132	132	6
53	53	5
22	23	2
94	94	2
4	33	3
40	66	4
89	90	3
19	20	2
7	9	1
16	100	1
0	1	1
99	99	3
114	118	1
86	86	7
83	83	6
32	32	6
29	29	4
30	30	11
27	99	1
47	64	1
99	104	1
2	45	2
95	95	10
43	60	3
50	50	3
116	132	2
52	52	7
114	116	2
39	66	3
17	19	1
54	54	8
87	93	2
48	52	1
21	21	2
42	113	3
82	82	4
10	10	9
80	98	1
103	103	7
59	60	4
104	114	1
17	17	3
57	59	2
33	34	1
89	91	1
96	104	1
107	107	6
55	81	1
64	64	4
23	23	7
5	22	2
8	9	2
40	40	2
118	120	3
51	55	4
45	45	4
20	20	1
27	27	2
40	42	2
107	114	1
116	116	6
14	17	4
78	129	2
2	117	1
4	4	7
32	46	1
93	93	1
128	129	2
41	41	3
115	115	2
108	112	1
0	0	3
17	39	5
33	33	6
43	43	6
31	31	4
73	75	2
12	85	2
84	103	3
110	110	2
19	21	5
100	100	7
12	12	4
58	58	11
25	25	4
101	101	5
87	88	1
81	81	5
80	97	3
82	98	1
56	57	1
5	38	1
119	120	1
16	16	2
63	63	5
29	30	4
70	71	4
79	79	2
6	6	4
13	13	9
91	91	1
68	117	2
32	33	2
58	133	2
125	126	2
126	129	1
55	113	1
72	86	1
114	124	2
6	53	1
90	91	1
15	20	2
23	30	2
5	12	4
39	40	2
105	105	4
24	24	7
112	118	2
21	30	1
71	71	2
92	93	2
99	100	3
59	59	2
78	81	1
57	64	1
81	128	1
76	76	2
72	72	4
41	42	3
71	72	1
97	100	1
44	44	1
104	105	1
15	19	4
76	103	1
69	72	2
93	94	2
3	131	2
82	101	2
67	68	1
67	75	3
24	100	1
113	117	2
18	19	2
81	82	2
10	11	1
1	1	2
43	117	1
102	102	8
18	18	3
58	59	3
85	87	1
5	60	2
103	104	2
5	120	3
18	40	2
68	68	3
118	118	2
82	103	2
114	115	2
39	120	2
2	38	1
97	97	2
84	85	1
37	38	1
75	76	2
58	62	2
131	131	1
73	77	1
51	51	2
11	89	1
72	73	5
118	127	1
100	101	2
4	7	3
101	103	1
125	125	1
130	132	2
106	109	2
21	38	1
38	39	1
126	128	2
109	111	1
43	44	1
106	108	1
14	85	1
130	131	1
60	64	1
38	41	2
4	122	1
73	74	2
9	9	1
119	132	1
68	130	1
127	127	1
70	70	2
26	26	1
88	89	2
131	132	2
117	117	1
21	22	1
15	16	1
19	131	1
94	124	1
40	41	1
49	49	1
84	89	2
60	115	1
74	74	2
46	47	1
7	7	1
101	102	1
83	84	1
121	123	1
12	19	1
2	32	1
89	113	1
19	19	1
60	62	1
85	85	3
110	113	1
74	75	2
5	18	1
18	67	1
91	92	1
56	56	1
12	18	1
