28	28	9
62	62	14
103	109	3
119	119	15
55	55	19
52	52	4
30	30	9
115	117	5
50	51	1
57	84	2
88	90	2
134	134	20
132	132	12
29	29	11
65	65	10
98	144	2
133	136	5
0	0	12
33	33	4
20	21	7
69	69	11
46	75	6
3	3	8
102	102	15
107	115	7
64	64	8
91	91	14
32	34	1
81	81	10
85	85	9
101	101	7
72	72	7
63	63	5
86	86	6
4	5	5
131	132	5
115	115	19
65	66	6
113	113	6
20	20	7
87	92	1
56	64	7
25	30	3
117	117	9
104	104	6
71	71	9
77	101	1
68	71	2
64	72	3
49	50	4
70	74	4
108	109	4
10	10	11
138	138	10
83	83	8
110	110	6
42	42	9
20	71	5
36	36	5
43	75	3
35	35	11
116	116	10
19	28	1
35	140	1
116	126	1
2	4	3
47	75	3
60	60	7
129	129	14
58	60	12
109	109	9
2	61	1
94	94	7
34	35	5
25	25	8
92	92	3
16	17	1
12	31	1
101	102	3
145	145	9
47	47	5
34	34	12
81	82	6
139	139	8
123	126	1
64	65	6
49	49	7
74	84	2
74	74	21
25	26	6
2	3	6
13	14	6
37	60	6
16	68	1
29	42	3
136	138	6
79	127	2
11	11	4
96	96	9
61	61	4
5	6	8
20	35	2
6	6	5
131	131	15
77	77	11
11	12	1
38	38	20
133	138	1
78	78	6
92	101	5
2	2	4
119	120	13
54	55	5
75	89	1
55	56	8
22	22	6
133	134	8
40	59	1
2	58	4
103	103	8
0	92	2
101	128	7
107	107	8
99	100	8
114	114	6
39	64	2
31	32	2
144	144	6
120	120	8
122	123	7
15	38	3
136	137	7
53	66	1
31	31	12
54	69	6
97	97	16
50	50	8
18	18	12
17	38	3
92	107	3
37	38	3
36	40	1
105	105	12
123	123	15
122	122	10
99	99	7
108	108	12
16	16	10
54	54	10
62	64	4
21	35	3
15	15	5
74	75	4
127	127	14
82	85	3
89	90	5
124	132	2
146	146	4
117	126	3
126	126	5
133	133	2
3	139	3
70	70	7
92	110	2
18	19	8
35	59	1
121	121	9
102	131	6
53	54	6
32	43	2
57	60	3
15	66	3
93	93	7
29	126	3
120	123	1
27	27	8
104	106	3
124	124	13
139	142	4
106	106	3
135	136	6
66	67	3
140	140	12
126	128	2
86	138	1
52	55	2
53	53	5
135	135	6
126	129	1
112	115	2
142	142	10
26	26	7
99	143	2
88	88	9
40	65	2
136	141	3
118	119	2
20	138	1
2	94	6
80	80	8
73	73	3
125	125	16
76	84	2
130	130	6
12	28	4
75	91	1
56	56	6
53	80	3
20	30	2
35	36	6
40	57	2
96	97	4
21	21	7
70	133	1
30	59	1
116	130	4
32	86	8
118	138	3
76	76	7
117	119	3
128	128	9
75	75	14
50	52	5
48	48	8
53	70	2
37	57	6
121	122	3
19	19	10
136	136	10
4	40	1
109	122	7
63	140	1
17	18	5
87	90	5
89	89	5
59	59	7
16	61	1
35	139	2
96	98	1
79	128	3
58	59	5
117	118	7
10	13	3
131	143	3
118	133	2
143	143	4
60	121	2
61	62	5
112	114	2
84	86	3
105	107	4
14	14	4
3	6	3
37	50	2
133	144	2
14	65	2
96	139	4
66	66	8
9	24	3
113	117	1
117	120	2
105	131	1
116	118	2
137	139	2
68	68	19
10	19	2
57	57	9
33	40	2
58	58	10
77	79	6
68	72	7
9	10	5
40	41	2
20	23	3
9	23	1
65	67	1
12	12	4
76	83	2
81	85	4
129	130	1
71	72	1
2	83	1
71	134	1
140	143	2
21	41	2
46	96	1
95	95	10
37	139	1
41	74	1
125	132	5
103	121	6
100	101	1
9	9	2
76	77	5
90	90	5
92	135	2
111	112	6
10	11	2
5	15	1
67	68	3
95	115	1
52	87	4
134	140	3
73	136	1
82	84	2
79	80	8
140	141	5
78	79	3
85	98	2
8	8	6
87	104	1
37	37	5
118	118	3
6	28	2
139	140	4
135	140	2
82	130	3
5	5	6
41	66	3
76	78	5
59	83	1
123	136	1
107	117	2
33	36	2
49	53	5
32	32	5
36	39	2
137	137	4
5	37	3
15	17	1
4	65	1
130	131	3
13	17	2
114	115	1
120	141	4
79	79	9
93	114	1
30	117	2
96	103	1
1	4	1
92	105	2
82	83	2
84	85	3
87	87	2
24	24	8
13	13	4
113	114	3
107	132	3
51	51	8
14	16	5
106	107	1
80	94	1
24	40	1
13	58	1
70	92	1
77	83	1
12	17	3
141	142	4
114	123	4
82	82	2
63	72	1
58	62	1
114	116	2
112	113	1
19	20	3
52	53	2
57	82	1
39	39	5
24	27	3
42	55	2
28	42	2
11	54	1
37	39	3
17	17	11
75	129	1
56	79	4
50	57	1
33	34	3
31	37	1
5	31	2
67	67	5
108	110	2
4	6	2
42	43	2
104	118	1
141	141	6
6	15	1
40	40	6
117	138	3
38	39	1
75	87	2
102	130	3
141	146	1
19	29	4
139	143	1
102	103	3
107	137	3
87	94	3
98	98	7
104	120	2
95	97	1
120	128	2
78	128	1
123	124	2
28	29	2
92	109	1
3	87	2
73	96	1
48	53	2
60	61	4
19	67	1
47	67	1
70	72	1
84	84	2
15	16	8
76	79	2
97	101	2
36	60	2
110	114	1
69	70	3
133	137	1
124	131	3
51	52	3
102	129	1
31	68	1
51	57	1
52	69	1
4	4	6
19	35	1
1	1	4
3	5	1
142	143	1
144	145	1
17	30	2
49	66	2
98	100	4
1	2	4
133	143	2
69	107	2
75	98	1
120	121	3
135	137	1
116	117	3
92	112	1
68	69	1
126	127	4
128	141	5
48	49	3
107	108	5
72	133	2
57	72	1
73	135	1
43	64	2
137	138	2
112	112	6
118	129	1
6	33	1
111	111	1
36	37	2
33	42	1
37	49	1
33	35	4
22	23	2
59	68	1
134	137	1
100	100	2
24	26	1
23	24	1
4	15	1
33	68	1
125	129	1
59	74	2
41	42	2
88	89	1
34	139	2
56	63	1
5	36	1
32	71	1
1	93	3
76	101	2
80	81	2
125	128	1
20	63	1
77	89	1
102	127	2
4	112	1
10	42	2
20	139	1
22	95	2
136	142	2
93	96	1
32	33	3
13	59	2
12	13	1
106	131	1
128	129	1
53	69	1
29	89	2
21	141	2
109	115	1
75	76	3
18	42	1
34	62	2
99	128	1
2	59	1
120	139	2
6	16	1
75	84	1
127	130	1
27	28	1
104	137	1
29	30	1
80	91	3
92	98	1
94	103	1
97	135	1
124	127	1
56	66	1
39	40	2
96	132	1
114	121	1
26	102	2
55	74	2
47	85	1
64	68	1
70	71	1
138	142	1
3	32	1
85	136	1
41	41	2
98	99	2
71	73	1
93	105	1
16	62	1
31	34	3
83	84	1
14	15	3
30	33	1
101	103	3
54	80	1
43	43	2
18	20	1
59	60	1
120	140	1
136	139	1
104	119	2
8	12	1
109	130	1
50	89	1
83	85	1
68	139	1
94	107	1
62	63	1
92	95	2
34	36	1
115	116	1
125	126	1
50	53	1
50	71	1
56	61	1
39	82	1
117	135	1
95	101	1
103	104	1
29	117	1
27	32	1
127	129	1
134	142	1
101	130	1
99	144	1
132	133	1
73	141	1
105	116	1
12	26	1
56	57	1
11	15	1
140	142	1
77	78	1
3	64	1
96	121	1
40	84	1
34	68	1
