179	179	22
152	152	10
2	2	6
112	151	4
189	189	15
141	156	3
197	197	16
55	56	10
193	193	16
191	191	14
9	9	6
159	159	10
196	197	9
30	30	4
194	194	6
118	118	11
187	187	19
26	26	9
175	178	5
186	187	4
14	194	9
110	110	5
100	100	11
32	32	6
34	34	13
33	33	1
124	124	10
172	173	7
149	149	7
46	46	19
167	167	6
175	175	8
118	178	3
135	135	13
126	126	11
161	161	9
56	183	3
154	154	11
51	51	17
109	111	6
32	184	7
140	158	1
43	43	10
26	28	3
59	59	12
161	163	2
59	61	4
152	153	4
137	148	3
116	117	5
97	130	6
20	20	10
102	156	1
169	178	1
26	64	1
96	182	2
24	25	6
9	18	3
31	48	1
45	45	5
40	50	2
120	120	10
145	145	5
194	195	5
132	132	5
122	126	4
185	187	3
49	187	7
93	93	3
158	158	9
119	120	5
62	87	1
178	179	4
188	188	21
112	119	3
8	8	9
174	174	9
98	98	6
30	31	6
145	146	4
86	149	4
115	115	10
156	156	7
10	10	6
142	150	4
147	147	7
109	110	3
99	99	12
120	121	1
178	178	6
163	163	6
148	148	12
191	192	6
50	55	2
23	23	3
141	141	9
173	173	7
52	52	10
12	12	23
35	35	11
163	164	7
33	37	3
169	177	3
23	52	3
48	48	4
61	61	2
8	73	2
72	72	9
134	134	4
159	197	3
143	146	4
102	177	4
38	58	2
7	21	2
181	182	3
20	77	1
146	154	2
40	40	7
19	19	11
67	94	1
114	114	6
153	153	5
43	46	2
71	73	3
4	4	5
14	14	17
152	166	2
162	165	2
108	108	3
172	172	19
58	58	7
74	74	2
55	100	2
57	57	11
38	38	7
186	186	18
168	179	5
15	184	4
89	89	3
11	11	9
136	136	9
99	110	5
28	29	2
168	168	16
69	195	2
24	24	5
70	149	3
97	182	3
127	127	8
95	193	3
50	50	4
48	50	4
40	41	6
45	46	7
157	160	3
130	131	8
86	86	7
195	196	2
185	185	18
150	150	9
146	146	8
34	38	1
25	27	1
19	179	3
46	47	8
94	94	7
9	68	8
83	83	2
102	102	13
76	76	5
105	155	3
126	127	3
100	179	3
42	101	2
111	130	1
26	35	5
5	6	5
160	160	5
180	181	11
196	196	9
83	85	6
180	180	7
13	13	12
56	56	11
137	137	5
117	119	3
183	184	3
55	55	7
102	103	3
140	143	3
106	117	4
49	53	2
130	130	1
85	85	7
165	165	7
51	103	2
177	177	15
113	115	2
35	37	2
47	50	2
49	183	2
34	35	6
134	172	4
184	184	13
186	188	3
21	21	8
137	139	2
150	156	5
116	131	2
7	7	7
84	84	6
144	144	2
60	60	6
147	152	2
36	43	3
45	52	3
76	180	3
71	71	5
105	105	6
43	44	4
81	81	4
42	42	18
138	138	3
2	5	9
90	90	3
40	42	1
141	142	2
47	47	8
176	176	6
145	185	2
130	138	2
133	133	11
122	122	13
73	74	3
154	155	1
41	41	5
75	89	2
8	29	5
37	147	4
17	18	2
137	157	1
5	8	7
120	123	2
21	61	4
5	7	3
78	78	8
151	151	4
65	65	2
104	104	3
27	27	8
107	107	3
72	155	3
116	116	3
38	43	3
99	151	2
152	165	2
41	42	2
140	151	3
72	98	7
144	145	2
140	140	6
10	13	4
22	22	4
50	52	1
31	52	1
121	121	3
98	99	5
157	157	6
29	30	6
113	113	3
123	129	2
171	171	5
88	88	5
101	183	1
147	182	1
155	156	4
111	119	1
23	24	1
142	143	4
183	183	15
49	50	1
42	44	3
181	181	3
146	148	6
162	162	9
115	125	2
102	106	2
128	128	8
68	68	2
112	112	9
164	167	2
123	123	4
117	117	1
31	31	5
20	98	3
177	178	2
18	38	5
17	17	4
181	183	1
127	142	2
73	73	8
98	111	1
190	190	6
15	182	3
22	39	2
97	97	2
53	53	10
47	52	1
21	22	2
138	174	2
36	36	4
93	97	4
15	15	4
18	18	10
15	16	4
122	124	4
130	169	3
33	107	1
170	170	11
2	44	2
119	124	2
63	192	4
190	193	3
40	179	2
113	124	1
96	127	1
146	147	3
72	149	1
144	161	3
165	166	8
4	9	2
193	194	4
87	87	6
36	85	5
105	107	1
191	193	2
80	80	1
170	171	1
96	183	4
54	54	6
4	182	4
99	146	5
153	155	2
160	192	1
0	44	1
64	64	9
29	31	1
109	109	8
179	180	4
33	106	2
60	64	3
165	172	1
180	182	2
44	54	1
185	186	3
135	164	4
31	32	3
16	16	5
79	80	3
139	186	2
162	164	2
158	171	1
150	155	2
129	129	2
37	37	8
164	164	11
103	104	1
117	173	3
166	166	8
62	71	2
39	40	3
145	191	1
117	151	2
27	33	1
58	65	3
80	86	3
156	158	3
192	192	3
63	64	1
41	81	1
39	39	7
101	129	2
30	36	2
2	28	2
25	64	1
14	37	4
126	160	3
134	135	6
139	139	7
62	62	1
98	108	1
18	19	3
8	10	1
195	195	2
129	155	3
76	98	1
107	108	3
159	166	1
79	79	6
80	81	1
142	157	1
13	37	1
69	69	6
56	57	1
70	70	6
49	49	3
141	172	1
12	151	2
0	51	2
82	83	3
36	37	2
128	137	1
8	19	2
110	134	1
7	182	4
37	38	3
120	141	3
113	119	3
5	5	6
66	66	3
120	127	2
175	176	3
131	131	5
23	100	1
96	96	3
138	168	1
169	169	2
7	19	1
4	30	1
174	176	3
96	114	2
170	172	2
30	42	2
169	170	2
173	175	4
97	179	1
132	187	1
134	136	2
179	191	1
143	144	2
153	154	1
47	48	4
101	101	1
69	70	1
21	74	1
82	82	1
75	75	2
39	180	2
44	44	4
135	137	2
171	186	2
155	164	1
25	34	1
67	67	1
152	154	2
187	188	2
11	12	1
78	79	2
88	89	6
63	63	2
5	9	2
25	26	3
192	193	3
125	126	3
132	133	1
48	54	1
121	174	1
7	8	2
54	55	2
95	95	1
18	39	1
153	181	4
22	89	2
31	187	4
9	19	2
13	21	2
139	140	1
114	116	1
1	132	2
25	44	5
117	178	1
8	39	1
119	193	1
182	183	6
136	171	3
168	180	1
159	163	2
93	94	1
65	66	3
71	188	2
100	129	2
110	111	2
156	197	2
81	82	1
19	94	1
27	186	1
6	6	3
3	4	1
0	5	2
51	105	2
39	51	1
149	151	5
101	102	1
41	179	2
27	28	4
51	104	1
105	106	1
143	143	2
16	185	1
160	171	1
3	3	3
25	25	2
33	34	2
135	156	3
35	36	2
30	33	2
147	148	1
28	28	1
182	182	2
113	123	1
0	0	3
17	173	1
129	149	2
166	176	2
111	111	1
4	12	2
104	170	1
64	65	1
21	98	1
14	16	1
117	118	4
40	81	3
53	54	1
138	149	2
153	168	1
121	187	1
0	23	1
119	175	1
150	177	1
102	178	1
135	155	1
137	146	2
23	111	1
106	106	1
46	52	1
145	157	1
97	114	2
10	11	2
3	5	1
114	119	1
104	107	1
54	56	1
123	124	1
168	177	1
20	94	1
151	156	1
119	121	1
58	60	1
8	9	1
40	80	1
20	78	1
187	192	2
41	84	1
152	162	1
52	77	1
1	68	1
3	8	1
146	157	1
95	96	1
2	3	1
17	183	1
121	123	1
176	177	1
66	191	1
8	182	1
89	109	1
94	114	1
49	57	1
102	197	1
57	194	1
67	68	1
144	183	1
27	37	1
115	119	1
