133	133	5
118	118	3
138	138	4
54	54	2
119	120	4
65	65	4
144	144	2
150	151	2
103	103	5
142	156	3
36	123	2
1	2	5
146	147	2
156	156	3
124	125	3
46	46	6
25	132	1
149	150	2
100	101	7
19	90	2
155	156	4
13	14	4
93	93	4
67	70	1
122	141	2
122	123	1
15	15	4
98	98	2
23	157	3
31	31	3
94	95	1
50	54	1
91	137	1
71	71	2
112	146	2
34	34	2
55	112	2
154	154	4
27	27	2
42	43	1
90	94	1
119	119	4
117	145	2
37	38	1
39	39	4
108	108	5
19	24	2
7	11	1
89	89	1
135	136	3
25	26	2
45	48	1
16	129	1
125	125	6
158	158	1
111	145	1
114	115	2
33	35	3
148	148	1
35	37	1
96	96	1
110	110	2
88	150	1
1	1	4
22	22	4
144	145	3
50	52	1
114	135	1
145	146	4
137	137	1
55	87	1
143	144	4
40	41	4
99	99	8
118	145	1
149	149	1
113	113	2
105	106	3
29	29	3
52	52	3
94	94	3
80	81	2
44	44	5
4	4	4
126	127	1
137	139	2
132	132	4
37	124	1
30	31	2
17	17	5
109	117	1
39	112	1
15	26	3
38	38	3
67	68	2
152	153	2
131	132	5
26	26	4
9	14	1
47	47	2
57	57	3
68	69	3
56	56	3
16	27	1
19	19	4
111	113	5
52	88	3
53	54	2
134	134	2
123	123	2
66	66	1
68	68	1
33	33	4
130	131	3
155	155	5
107	134	6
5	5	3
57	87	1
8	8	2
9	13	2
127	127	1
45	45	2
132	134	2
139	139	4
73	104	1
99	100	4
65	66	2
94	149	3
154	155	1
20	95	1
32	32	2
112	112	6
116	117	4
143	143	2
7	7	3
84	84	1
110	138	1
25	25	1
43	87	1
49	50	7
116	116	2
54	69	2
89	137	1
90	92	1
12	12	1
92	92	3
11	14	2
16	16	1
22	156	1
17	27	2
153	153	2
129	129	2
23	23	1
63	91	3
61	68	1
126	155	3
11	11	1
0	0	1
40	40	2
92	132	2
6	6	2
66	104	1
30	32	1
103	105	1
128	128	1
12	80	1
92	94	1
80	80	1
62	69	1
146	146	3
18	18	1
64	64	1
51	52	1
83	83	2
114	114	1
27	129	2
106	116	1
135	137	2
13	13	2
132	150	1
24	30	2
26	27	2
88	89	1
14	33	2
25	46	1
135	135	4
90	90	1
21	21	3
73	73	1
93	94	2
30	30	1
12	25	1
36	36	1
154	157	1
19	43	2
117	119	1
8	11	1
134	135	1
55	56	1
117	118	1
101	101	1
9	10	1
104	120	2
52	69	2
39	118	2
5	6	1
107	108	2
104	108	1
124	153	1
11	155	1
85	86	1
14	48	1
14	14	2
15	79	1
82	82	1
4	149	1
109	109	1
3	3	2
30	35	1
53	53	1
132	133	1
103	121	2
39	113	1
28	147	2
44	130	1
87	89	1
100	100	1
117	125	1
124	124	1
136	136	1
52	53	1
107	132	1
141	141	4
16	33	1
36	154	1
136	137	1
31	32	1
67	71	1
131	131	1
120	120	1
104	119	1
44	47	1
140	154	1
