183	183	9
72	72	3
160	160	13
2	2	5
16	16	6
180	181	2
217	218	13
20	21	5
147	147	15
221	222	3
171	171	16
22	22	14
81	81	7
188	188	6
166	167	5
233	234	2
186	189	6
119	120	4
83	83	25
158	159	4
183	184	7
72	73	1
193	193	3
56	56	8
77	77	17
208	211	4
209	210	2
17	22	1
86	86	11
200	201	9
191	191	7
110	110	1
185	185	6
165	169	1
196	197	4
55	72	1
218	218	4
200	200	12
111	111	4
156	157	8
124	124	13
150	152	2
101	102	6
138	206	3
73	73	10
63	63	6
34	36	10
224	229	3
230	230	8
217	217	16
168	170	2
85	85	15
75	75	3
18	19	4
211	211	9
34	35	7
107	108	4
161	173	3
33	35	1
4	7	7
35	35	5
138	182	5
172	173	2
194	196	2
162	162	6
141	142	2
57	59	8
203	203	17
152	153	3
27	27	11
225	225	7
136	137	2
60	60	7
79	79	9
207	208	1
17	17	15
132	133	1
223	223	16
135	135	3
129	130	4
5	5	13
52	212	1
223	224	5
166	169	7
30	30	23
214	214	8
139	141	3
204	204	10
5	6	3
187	187	8
175	177	4
58	58	11
3	3	10
212	212	15
66	67	5
205	205	2
99	99	9
154	155	5
150	151	10
159	160	1
231	232	6
4	6	3
12	12	14
196	196	1
128	128	1
69	69	4
18	21	5
103	103	8
157	157	5
71	71	6
58	60	7
48	48	8
159	161	4
234	235	3
18	57	3
31	31	6
185	189	1
29	29	5
34	34	9
18	18	8
14	14	5
118	118	3
171	173	2
183	186	3
17	18	10
50	50	11
199	199	8
19	25	5
73	118	4
228	229	2
166	166	7
179	179	7
170	170	4
113	117	2
231	231	6
0	0	3
68	68	8
76	79	5
168	168	8
197	197	4
206	211	2
153	155	2
52	53	5
106	106	5
105	106	10
151	152	2
60	61	3
36	36	6
129	129	3
204	205	6
10	10	2
20	113	2
55	57	4
49	49	9
154	154	9
65	66	2
137	139	4
117	117	8
103	159	1
43	43	8
43	44	5
59	59	17
145	148	4
4	5	4
51	52	3
23	23	5
80	80	11
46	46	8
165	165	2
23	24	4
238	238	4
7	7	7
211	212	1
25	25	4
175	175	6
125	126	5
207	218	2
33	33	13
155	156	4
205	207	4
239	239	3
76	78	3
179	191	3
103	104	5
174	174	6
99	100	8
44	44	8
19	21	2
71	72	5
76	77	1
176	176	7
21	22	6
107	107	5
49	50	2
85	86	5
64	65	5
184	184	1
214	228	2
224	227	2
82	82	4
9	9	8
15	23	2
15	25	4
28	28	9
219	219	6
48	54	2
40	40	11
215	216	5
142	142	2
150	150	6
192	192	8
32	32	6
41	42	1
1	2	8
163	163	4
208	208	5
69	70	5
180	180	5
216	216	6
88	88	5
169	169	7
122	122	1
106	109	5
79	80	7
77	79	5
230	231	2
137	138	1
73	74	2
10	15	4
158	158	5
61	61	14
158	178	2
202	202	12
15	17	4
215	215	2
84	84	14
109	109	2
212	213	4
137	137	1
199	200	8
234	234	7
156	156	3
157	159	1
197	198	5
56	57	5
78	78	9
242	242	7
112	112	5
171	172	6
102	102	3
224	224	9
81	84	1
97	99	1
72	118	2
13	13	4
57	57	4
14	15	3
1	1	2
96	97	1
221	221	3
15	15	6
35	37	2
27	28	3
0	1	8
127	127	7
134	138	1
2	12	5
126	126	8
101	101	1
105	107	1
12	13	6
205	206	2
216	217	3
213	213	7
167	167	10
177	177	7
65	145	2
155	155	4
39	39	12
123	123	3
98	98	8
121	121	6
113	113	5
151	174	5
153	153	5
133	133	6
180	191	1
159	159	7
204	207	3
114	115	2
232	232	3
8	8	6
235	235	3
80	89	3
209	211	5
208	218	1
118	119	5
227	227	5
175	178	6
195	196	3
172	172	7
189	190	3
81	82	3
42	42	11
62	62	4
152	152	3
131	131	7
235	238	3
227	228	5
146	146	2
62	63	4
184	185	2
117	122	1
186	186	5
116	116	2
100	100	6
42	47	3
49	52	1
236	236	4
142	146	2
16	18	3
11	13	2
47	47	5
15	24	1
165	199	2
21	21	4
145	147	3
228	230	2
125	125	5
74	74	8
134	134	5
19	24	3
222	225	1
24	24	2
49	164	1
147	148	3
3	5	1
65	65	3
11	11	9
56	59	1
175	176	8
14	24	1
37	38	2
50	163	1
185	216	1
180	206	1
163	165	4
67	67	2
161	161	4
108	109	2
227	231	3
55	55	7
57	58	1
182	182	4
145	145	3
55	56	2
2	3	2
213	229	3
204	206	4
54	54	8
39	46	3
127	128	4
169	170	5
35	36	4
38	47	3
153	154	1
164	165	2
30	208	1
29	30	2
105	105	5
139	140	2
99	109	2
39	50	3
22	23	2
4	4	5
38	39	2
169	173	2
75	76	2
33	207	1
181	184	1
178	179	1
48	171	4
114	114	2
240	240	5
206	208	1
225	226	2
137	143	2
49	56	2
59	166	1
40	41	4
32	38	2
33	209	1
194	194	2
31	33	7
185	193	2
20	23	4
222	226	1
154	156	1
157	160	2
79	88	4
102	107	1
48	55	2
8	9	3
145	146	1
7	8	2
70	70	3
37	173	3
75	77	3
184	188	2
176	177	1
59	104	4
148	148	5
34	53	1
178	203	3
224	225	2
11	12	1
135	136	2
210	210	4
13	22	1
82	83	1
15	16	2
26	26	4
137	141	1
160	172	3
85	172	3
149	149	5
37	37	4
9	10	2
130	130	3
47	49	2
98	103	1
153	156	1
218	219	1
220	223	5
131	132	1
207	207	7
84	171	2
146	147	1
13	17	1
133	134	4
108	108	4
104	105	1
66	143	2
14	18	1
130	134	3
68	151	2
8	204	4
83	84	5
208	214	3
31	202	2
12	211	1
38	38	2
193	196	2
157	158	2
54	55	1
41	41	6
148	149	2
208	217	1
106	115	1
127	129	1
220	226	2
104	104	7
138	139	2
102	103	1
51	51	1
70	71	1
202	204	1
160	173	3
144	145	3
173	173	3
198	198	2
74	75	2
66	66	1
179	192	2
203	204	1
149	151	2
206	206	5
3	4	2
162	197	1
228	228	2
78	167	1
209	209	3
112	113	2
59	60	3
115	116	1
24	25	3
32	208	2
51	54	3
100	101	2
229	229	1
6	7	1
28	29	1
115	115	1
198	199	2
36	164	1
189	189	1
103	105	2
42	43	2
140	141	1
213	215	2
187	189	1
12	14	2
65	67	3
233	233	1
52	52	4
226	227	1
167	168	4
146	148	2
80	83	1
226	226	1
190	190	1
97	100	1
137	140	2
180	182	1
78	79	1
206	207	2
6	6	2
195	195	2
75	95	1
201	201	1
220	220	2
130	141	1
21	49	1
211	215	1
185	211	1
39	55	2
98	126	1
119	119	2
5	9	2
82	173	1
221	228	2
46	64	1
143	143	1
236	237	1
53	55	1
47	61	4
39	42	2
181	181	1
192	193	2
28	32	1
81	170	1
195	197	1
185	186	1
20	211	1
60	169	1
129	156	1
19	23	1
91	91	1
106	129	1
97	97	3
12	34	1
143	146	2
166	200	1
229	230	1
106	130	1
126	127	2
14	16	1
48	49	1
116	117	1
214	216	1
123	126	2
136	144	1
161	163	1
45	46	1
44	45	1
20	20	1
61	62	2
110	111	1
30	32	1
63	146	1
186	193	1
75	79	1
212	217	1
194	197	1
84	85	1
34	76	1
221	227	1
178	178	1
134	142	1
26	113	1
151	151	1
183	189	1
80	168	1
41	48	1
214	218	1
185	205	1
214	215	1
216	218	1
232	233	2
76	76	1
102	114	1
84	89	1
