103	103	9
78	79	6
44	56	1
102	103	6
17	17	13
49	49	6
75	75	6
105	106	3
0	0	11
128	128	6
159	159	11
115	118	5
79	79	17
98	98	13
18	45	1
25	25	12
97	98	10
154	155	5
128	130	7
74	74	8
51	51	18
80	84	3
11	11	21
83	132	1
77	77	11
9	9	13
96	120	1
73	73	15
86	123	3
65	65	6
138	142	2
120	120	8
109	110	3
20	50	1
102	104	8
166	166	9
52	52	17
19	21	1
74	87	2
37	42	2
15	15	14
99	99	10
167	168	9
71	71	22
148	148	12
13	13	17
105	121	1
76	86	3
17	18	8
62	62	15
85	90	2
93	114	1
55	55	6
19	19	16
44	44	15
126	131	2
27	144	1
12	12	12
71	72	4
10	10	29
156	169	3
76	76	8
5	6	2
50	50	26
52	53	4
149	149	8
131	131	16
100	104	2
95	96	7
142	142	9
53	78	4
132	132	1
14	15	8
138	138	13
91	91	13
104	104	21
87	87	9
37	82	4
58	58	2
157	157	13
126	127	4
108	108	7
12	26	3
5	5	10
18	18	15
107	107	17
119	120	18
54	64	2
160	160	4
54	65	2
112	112	7
3	3	16
92	105	3
35	35	15
21	52	3
39	82	5
110	110	11
88	88	9
55	56	15
0	1	9
40	85	1
38	82	6
94	95	1
151	153	5
5	144	1
64	64	14
78	78	5
46	46	11
47	49	10
24	25	11
140	141	11
111	112	2
34	34	4
51	52	4
121	121	8
119	121	3
27	27	11
139	139	10
118	118	17
154	154	9
106	107	6
82	82	13
163	165	3
37	37	11
57	57	13
124	125	7
88	90	2
45	46	5
52	57	4
102	102	14
48	48	17
40	40	19
136	136	8
83	83	8
123	124	3
126	126	10
140	142	2
10	11	3
114	114	14
21	21	17
68	68	4
103	104	10
20	21	3
156	157	1
22	22	14
95	95	9
164	166	2
2	2	13
38	39	4
123	125	3
20	22	8
142	143	4
52	75	1
162	162	12
28	28	7
160	161	2
84	93	2
137	139	3
36	36	8
24	24	13
170	170	10
127	130	1
158	158	8
65	66	2
81	81	6
120	121	4
147	147	10
100	100	10
47	151	2
38	38	9
70	72	9
91	93	3
12	147	2
64	69	1
140	140	6
41	42	5
138	139	6
12	46	2
97	99	2
119	119	5
41	41	12
46	51	6
124	124	14
27	81	4
81	97	3
100	102	3
73	98	1
1	1	8
107	108	4
45	45	20
92	95	1
17	72	4
164	164	4
35	36	3
121	130	2
11	12	6
117	118	4
34	36	2
89	113	1
80	86	3
47	73	2
84	85	6
118	124	1
63	63	4
130	131	4
104	105	5
54	54	17
87	89	4
74	86	4
151	151	4
46	47	4
12	13	1
92	93	3
76	77	7
114	115	4
86	87	3
169	170	3
128	129	2
146	147	5
93	113	2
159	161	1
121	122	6
16	16	10
39	40	7
83	85	1
58	94	1
57	90	1
97	97	8
168	168	11
113	113	6
119	122	2
7	7	8
15	16	3
77	78	12
54	70	2
79	80	3
137	138	2
4	5	11
156	156	5
86	124	1
145	145	12
64	68	3
19	20	7
56	84	2
150	157	2
129	129	4
5	8	1
56	56	11
85	94	1
110	111	6
11	136	1
89	90	5
36	37	3
47	47	7
93	96	2
93	106	1
101	101	10
136	137	1
111	113	2
152	153	7
44	45	4
4	4	12
131	132	9
23	24	2
135	135	8
94	94	18
153	153	2
8	9	7
84	84	15
132	133	4
106	122	1
33	33	6
73	99	3
67	68	4
112	114	3
150	151	3
89	89	8
66	66	2
42	42	7
144	144	8
150	150	4
152	152	7
91	92	2
162	167	1
144	148	3
83	84	4
37	38	8
143	143	3
50	51	4
24	44	5
100	118	1
90	126	2
96	96	12
10	136	1
80	80	17
27	28	3
111	111	15
117	119	3
115	115	6
98	99	2
143	144	5
116	116	8
36	79	1
8	8	11
55	83	1
105	105	9
26	26	19
156	159	1
14	14	4
6	7	4
134	134	4
70	71	3
109	109	7
110	119	3
73	74	3
155	156	7
160	168	3
18	19	6
4	147	2
90	93	1
115	116	9
91	96	4
14	16	1
42	83	2
163	164	12
2	146	3
69	69	8
19	23	2
42	43	6
4	6	1
23	23	6
103	105	6
21	24	1
25	51	5
1	2	10
22	24	3
85	167	2
48	49	6
96	97	1
45	75	2
108	109	4
163	163	3
20	20	12
121	124	1
86	86	6
88	168	2
11	13	3
103	106	1
108	156	2
148	149	6
54	55	4
63	88	1
127	127	8
93	93	17
39	83	1
53	53	10
19	49	2
112	113	3
53	76	4
44	47	4
17	28	1
146	146	5
57	92	2
112	147	1
58	86	3
19	50	1
10	12	1
16	18	3
161	163	1
133	133	11
20	23	3
68	69	6
159	160	2
100	103	2
88	91	4
130	130	3
8	10	2
69	70	2
158	164	2
161	162	3
57	67	4
53	54	2
22	25	3
54	94	3
34	35	2
106	112	7
4	7	2
112	115	1
159	162	4
85	85	13
140	151	3
161	161	2
53	55	1
56	93	3
119	125	1
93	112	2
72	72	22
141	141	10
48	57	2
152	154	2
35	37	1
44	46	1
38	40	1
139	141	8
77	79	4
54	78	1
146	148	3
107	109	1
5	9	1
156	162	2
47	48	2
147	149	1
68	93	1
118	120	2
5	27	3
50	77	1
6	6	10
54	85	2
134	135	1
12	15	1
90	90	8
83	89	1
12	143	1
117	117	1
55	79	2
25	26	2
92	122	2
165	166	1
122	122	3
90	127	1
80	82	2
22	23	7
93	94	4
79	82	1
7	8	4
21	51	1
3	4	11
162	163	4
68	92	1
120	122	3
165	165	9
77	83	2
125	125	4
82	85	2
89	91	2
23	71	2
103	110	4
67	69	2
127	131	1
35	79	1
43	43	5
127	134	1
81	131	1
106	106	8
151	152	4
21	23	2
64	65	1
52	56	3
77	98	3
39	90	1
118	123	2
167	167	2
19	22	1
123	123	1
109	117	2
107	134	1
105	108	1
64	67	3
78	81	2
9	10	2
138	141	1
75	76	1
56	83	2
110	144	1
90	91	4
106	113	2
58	92	4
44	63	1
21	25	4
125	126	2
76	78	1
92	92	4
51	76	1
78	80	3
25	166	1
17	21	2
84	87	1
82	83	1
57	58	1
81	82	2
45	76	1
13	160	5
36	139	2
16	17	3
112	134	1
125	135	1
63	64	2
18	72	1
17	144	1
44	58	1
118	119	1
110	131	1
110	115	1
44	75	2
106	109	1
108	119	1
141	157	2
23	50	3
19	27	1
101	103	3
61	62	1
82	100	2
144	145	3
164	169	2
106	108	2
49	57	1
15	87	1
54	56	1
48	68	1
126	167	4
90	125	1
51	86	1
98	114	2
48	163	1
20	47	1
44	108	1
155	159	1
5	7	1
75	78	2
54	82	2
42	44	1
6	8	1
41	82	1
129	130	1
42	80	1
10	14	1
85	86	1
39	39	3
127	153	1
70	70	4
110	148	1
18	136	1
15	75	2
52	85	1
62	63	2
87	88	1
101	132	1
114	119	3
105	115	2
24	157	1
99	118	1
155	157	1
99	100	2
81	83	1
86	90	2
13	14	5
166	167	2
73	77	1
77	80	2
74	75	2
75	89	1
2	149	1
155	155	3
168	169	1
18	50	1
67	67	1
110	114	2
125	127	1
2	3	1
4	74	1
98	115	1
49	50	1
96	98	1
76	79	1
102	133	2
55	63	1
51	57	2
111	147	1
107	119	2
84	86	1
10	144	1
115	117	1
46	50	1
154	157	1
140	144	1
137	137	1
38	89	1
139	140	2
75	133	2
57	63	1
157	164	1
15	89	1
22	28	1
8	15	1
77	99	1
74	79	1
125	153	1
24	160	1
4	27	1
129	131	1
7	12	1
88	125	1
50	63	1
