75	78	1
15	18	2
65	85	3
95	105	4
18	19	7
73	73	20
66	66	7
46	68	4
110	110	2
67	67	19
103	104	4
36	36	8
57	79	2
39	39	10
41	41	10
4	4	5
138	146	10
149	149	6
28	28	4
117	117	7
151	151	4
135	135	17
39	40	7
67	78	2
131	132	2
109	110	3
124	124	10
136	148	1
48	49	6
129	130	3
95	104	3
146	146	3
5	5	16
12	12	4
135	139	9
122	122	3
11	12	8
53	53	10
119	122	2
80	82	5
81	83	9
108	108	5
125	126	2
18	18	7
105	105	7
99	134	4
84	104	3
80	108	2
80	80	9
154	154	7
143	143	2
87	87	5
50	50	7
71	94	6
43	43	8
22	23	11
99	115	1
68	68	3
79	80	3
44	44	9
14	41	3
81	82	5
130	135	4
72	138	1
139	143	3
63	64	14
84	107	2
46	46	13
83	84	8
67	75	2
35	37	3
96	106	2
137	146	3
45	69	3
76	76	4
141	141	10
62	63	4
5	8	3
132	133	7
105	112	7
74	74	7
136	138	7
115	115	9
93	94	11
30	31	1
44	52	2
86	86	5
95	144	1
16	17	2
13	41	2
65	65	13
139	139	5
17	17	19
33	33	13
108	113	2
70	70	19
47	47	6
48	48	19
23	23	14
116	116	8
32	33	2
42	55	6
37	37	4
80	83	2
130	130	9
101	101	8
111	111	5
134	134	6
55	55	5
82	82	12
86	94	2
27	27	2
75	111	4
20	20	11
126	127	3
54	146	2
57	97	3
103	106	3
84	84	8
38	69	2
6	10	2
71	71	13
97	105	1
15	16	2
6	6	8
81	81	9
79	79	8
98	98	4
32	32	7
123	123	16
110	111	4
55	56	5
98	99	4
102	130	1
68	69	4
85	88	4
54	58	3
40	69	8
9	11	2
8	9	5
153	153	7
20	22	2
100	100	11
35	38	3
15	69	3
38	38	3
144	146	3
134	152	2
93	93	9
85	85	5
56	56	4
114	114	6
9	9	6
45	45	6
38	39	3
78	78	8
129	133	4
75	75	4
41	42	5
87	96	4
42	42	7
14	17	2
97	98	3
26	27	2
13	13	9
85	106	3
7	7	2
102	102	5
25	27	6
95	95	11
24	29	4
17	18	10
106	106	9
30	30	5
22	22	2
28	30	6
75	110	1
3	3	3
32	34	1
123	125	2
45	47	5
96	96	14
37	80	2
14	15	1
27	28	12
111	116	3
108	114	4
93	114	2
36	56	2
43	69	1
4	5	5
75	97	1
73	74	6
133	133	5
141	142	6
88	103	1
86	88	2
54	54	7
34	51	2
62	62	9
5	20	2
67	74	3
26	26	6
33	79	4
75	76	1
144	145	1
57	62	3
34	34	3
133	134	5
65	66	1
77	77	13
113	113	2
103	103	4
57	57	13
49	50	2
16	16	9
45	51	4
147	149	2
22	76	1
129	129	13
67	85	1
96	105	4
10	10	13
13	16	3
141	146	2
40	40	8
103	105	1
21	21	10
143	146	2
47	50	2
141	153	3
54	57	2
137	138	5
25	25	3
108	110	3
38	50	2
121	132	3
116	117	1
12	13	2
6	7	2
4	8	5
112	116	1
49	56	2
145	145	6
35	35	6
116	120	6
36	49	2
64	64	8
107	107	6
23	78	4
14	34	1
127	127	2
20	21	1
67	83	5
14	14	1
36	70	3
87	95	3
87	104	2
7	9	6
104	104	3
117	122	1
41	45	3
13	18	2
78	79	4
73	90	1
65	80	1
31	32	4
84	85	5
55	57	1
108	111	2
150	151	2
69	87	1
67	103	1
99	104	3
71	113	1
136	136	5
15	35	2
144	144	2
24	24	8
137	137	8
94	94	3
121	121	6
91	103	1
51	54	3
125	127	3
111	114	3
83	83	7
63	80	2
13	39	1
63	63	7
119	119	5
87	90	2
64	79	1
63	81	1
26	29	1
77	92	1
120	120	2
125	125	3
93	104	2
86	95	1
72	73	2
44	67	1
72	131	2
8	8	4
132	132	1
148	149	1
29	29	1
69	70	1
70	71	2
94	95	4
41	46	2
43	46	2
96	97	10
43	67	1
138	141	1
33	34	5
35	78	1
101	102	1
84	86	2
99	102	1
103	108	2
90	90	4
143	144	1
142	142	3
35	79	4
142	144	2
147	151	4
152	152	2
96	113	2
141	143	1
29	30	6
128	130	3
110	113	1
92	92	4
5	7	3
4	7	3
22	77	1
74	97	1
43	44	2
28	29	1
85	86	1
136	137	4
128	128	1
68	70	2
118	123	1
11	21	1
46	49	2
57	82	3
78	80	2
19	19	6
34	36	2
116	130	2
46	53	4
15	40	2
119	120	3
125	129	1
13	17	3
150	150	6
49	51	7
23	24	2
64	65	1
54	63	5
51	56	1
117	118	6
148	148	2
99	99	4
93	97	2
25	33	1
72	75	1
98	101	1
34	69	3
40	57	1
6	33	2
88	88	2
73	75	3
66	85	2
16	38	1
75	90	1
149	150	1
139	141	2
42	45	1
145	146	1
26	32	1
102	105	1
123	124	2
93	95	4
11	32	3
130	154	1
44	53	1
37	53	1
77	78	1
21	22	3
49	49	2
95	99	1
119	125	1
82	87	2
119	126	1
12	21	1
91	95	1
7	8	1
86	90	1
50	51	2
129	154	1
106	107	1
103	110	1
138	138	4
14	24	1
71	78	1
11	11	4
14	25	3
2	2	1
74	136	2
17	24	2
108	112	1
78	81	2
118	125	1
95	98	6
136	146	1
122	125	3
34	35	1
140	142	1
80	81	1
11	25	2
96	108	1
42	46	2
141	145	1
115	116	1
115	119	1
3	12	1
118	118	4
87	97	1
76	92	1
58	62	1
126	128	1
44	46	1
74	90	1
112	112	3
132	135	1
45	48	1
87	92	1
21	63	1
4	6	1
76	77	2
109	122	1
124	126	1
72	72	1
83	85	1
140	141	2
99	105	2
109	109	2
71	79	1
146	147	2
9	10	3
145	147	1
107	108	1
41	69	1
3	8	1
109	114	1
153	154	1
137	145	1
36	37	1
43	45	1
71	114	1
112	113	1
51	51	1
66	67	1
11	34	2
35	36	1
22	35	1
75	136	1
75	89	1
16	24	1
127	128	1
94	97	1
