51	51	15
21	21	14
24	24	7
72	72	9
90	90	9
36	36	17
77	77	4
31	45	1
104	104	24
39	39	12
67	67	19
86	88	2
98	98	7
47	48	3
34	34	10
63	64	2
44	45	8
40	40	8
82	86	4
95	96	7
79	81	1
79	79	17
43	45	1
61	62	5
68	68	18
106	107	2
75	75	11
74	74	14
97	98	5
92	92	5
95	95	8
89	89	9
59	59	14
30	30	4
83	88	6
36	37	5
35	35	6
59	64	1
83	83	3
62	62	7
103	103	12
66	66	13
20	30	4
31	31	12
52	52	14
54	54	6
28	54	3
93	94	4
51	55	1
73	73	8
39	40	6
66	67	4
67	68	1
43	44	2
61	61	15
21	22	3
71	71	9
28	28	5
73	74	3
34	35	10
70	70	7
65	67	5
25	25	5
23	43	2
96	100	2
42	42	9
23	23	9
58	58	3
55	56	2
79	80	4
53	53	13
54	59	3
86	86	8
42	47	1
68	69	4
102	102	18
56	56	4
47	47	3
101	101	8
63	63	4
87	88	3
32	41	1
35	36	1
62	63	2
36	66	2
101	105	1
82	82	3
24	27	1
32	35	3
97	99	2
100	105	1
60	60	3
88	88	8
22	22	5
41	41	7
94	94	4
96	96	8
64	64	7
32	32	5
50	50	7
61	64	4
76	76	5
50	51	8
55	55	6
86	87	4
72	73	1
97	97	2
101	102	8
96	99	2
25	29	1
89	91	1
69	73	3
100	100	4
84	84	7
43	43	4
105	105	4
38	38	5
65	65	4
50	64	1
74	75	5
94	97	2
31	35	1
59	74	1
49	49	1
22	39	3
46	47	1
24	54	5
20	20	6
53	54	3
89	90	1
61	63	3
91	92	2
82	98	3
54	56	1
87	87	3
55	59	1
26	26	1
38	39	5
69	69	5
78	79	2
92	93	4
55	67	3
32	33	3
91	91	1
51	53	3
45	47	2
98	99	2
66	75	2
70	71	3
94	96	1
57	57	2
45	45	1
77	96	5
55	94	1
87	91	2
79	98	2
82	83	4
57	58	6
25	31	2
90	98	3
64	65	1
27	27	2
35	66	1
99	99	8
53	64	2
22	23	1
86	100	2
37	37	5
37	38	4
78	78	2
36	38	1
31	32	2
35	37	3
71	72	1
23	24	2
88	91	2
46	59	3
60	61	1
102	103	3
58	61	2
62	81	1
25	27	2
48	63	4
52	54	1
84	85	1
48	48	1
91	97	1
88	96	2
57	78	4
43	104	1
52	53	2
25	48	1
97	100	1
93	93	3
93	102	3
65	68	1
86	89	1
100	101	5
44	44	1
56	58	1
77	79	1
69	70	1
70	73	1
74	93	1
83	87	1
70	72	1
65	66	3
90	91	1
92	96	1
29	30	2
23	55	2
19	19	1
33	33	1
33	34	2
81	81	1
44	46	1
96	97	1
94	95	3
42	43	2
81	82	1
24	50	1
99	100	1
34	36	1
28	29	1
29	31	2
27	29	2
84	86	1
82	97	1
41	42	1
104	105	1
