78	78	9
21	22	2
108	110	5
109	109	4
15	47	2
95	95	2
10	11	3
115	115	25
118	118	3
31	32	2
126	126	1
9	52	2
82	117	2
88	124	5
13	15	10
108	109	10
4	4	9
102	103	1
44	50	6
102	104	7
66	66	7
84	84	8
96	97	3
111	123	2
11	11	7
89	91	2
117	117	8
69	69	12
123	124	4
101	102	7
71	71	5
98	98	9
36	36	8
95	98	4
98	99	7
66	67	2
28	29	1
91	92	3
51	52	2
89	90	5
120	120	6
116	117	7
73	73	4
8	9	3
110	111	4
105	128	1
90	90	9
34	34	11
12	12	6
75	75	6
44	72	5
45	45	1
92	95	3
84	85	3
122	122	10
122	123	2
72	72	11
9	9	3
35	35	7
99	99	2
77	77	7
68	91	1
64	65	2
8	53	3
60	60	3
112	117	2
99	112	2
52	52	4
134	134	6
123	123	2
26	26	5
42	42	7
25	25	2
133	133	3
91	91	5
106	106	11
70	70	7
62	63	2
22	22	5
96	96	2
62	62	3
56	57	1
80	80	7
126	127	2
43	48	9
32	32	5
45	56	2
94	94	7
30	30	6
14	15	1
79	79	11
78	79	7
112	112	2
37	37	2
16	16	5
20	20	5
125	134	2
85	93	5
59	60	1
105	111	4
124	125	6
15	21	2
30	49	2
68	68	3
100	105	2
83	84	3
104	105	2
107	107	12
5	5	1
86	108	3
114	121	2
87	87	1
49	50	4
89	89	3
110	110	15
105	105	3
38	38	7
82	82	2
7	7	5
52	53	6
64	64	6
67	67	2
80	82	2
125	127	4
8	52	3
63	63	7
133	135	1
116	126	2
110	120	5
103	103	3
56	56	1
24	25	2
86	86	3
129	129	2
13	13	4
27	28	3
92	92	4
0	2	1
43	50	1
9	10	6
135	135	2
102	102	1
112	113	6
12	18	3
61	64	1
90	104	3
76	88	1
37	72	1
21	21	3
120	121	1
27	27	1
119	122	1
113	114	1
43	72	1
33	35	1
86	89	1
92	93	1
106	126	2
118	130	3
48	49	3
77	78	4
115	124	1
37	38	2
132	133	1
63	69	4
131	131	5
117	118	5
81	81	2
83	85	3
129	131	1
1	1	1
122	134	2
128	128	1
48	48	2
95	96	2
80	85	1
93	93	5
125	129	1
37	45	2
88	88	1
125	125	3
59	59	5
50	79	4
12	13	1
106	110	3
110	122	2
100	100	3
55	58	1
24	24	2
18	18	2
111	111	2
33	33	2
4	5	2
62	64	1
82	83	4
6	6	1
49	49	5
25	26	2
116	116	4
46	68	1
44	70	1
129	130	1
104	104	3
11	19	3
132	132	5
124	124	2
96	99	3
96	131	2
64	66	2
93	112	1
127	127	4
34	74	1
71	74	2
71	102	1
101	101	4
63	64	1
17	99	1
54	55	1
18	20	1
102	134	1
54	54	1
85	85	2
130	131	3
121	121	2
37	46	1
107	131	1
13	32	2
118	119	1
43	54	1
0	70	1
108	121	1
93	127	1
106	107	2
97	97	1
10	10	2
50	50	1
115	116	2
86	87	1
85	92	1
87	130	2
65	66	1
64	90	2
127	128	1
122	124	1
29	30	1
45	49	1
44	46	1
63	68	1
130	130	1
17	32	1
105	109	1
38	56	2
113	113	1
14	14	2
131	133	1
17	17	1
22	29	1
109	110	1
74	74	1
29	29	1
80	81	1
82	115	1
90	101	1
