102	103	8
37	38	21
165	166	12
36	36	35
164	164	4
96	96	7
3	3	50
47	50	6
10	11	6
124	124	6
1	1	27
100	127	7
17	17	14
150	150	20
8	9	11
113	113	17
24	25	21
76	76	12
138	138	13
47	47	16
159	159	18
110	110	21
127	127	10
126	140	3
62	62	16
88	88	30
70	70	5
154	154	8
5	5	18
12	12	20
145	146	3
133	134	12
58	58	6
107	140	7
64	64	12
77	77	4
12	15	2
67	67	4
38	38	26
140	144	5
156	156	2
72	72	13
20	20	13
136	136	11
44	47	5
42	42	37
51	51	10
160	160	12
40	40	12
90	91	6
144	155	6
108	112	7
102	105	2
18	24	4
129	129	15
53	53	20
115	115	10
8	10	1
2	2	18
125	125	14
46	47	10
51	55	3
144	144	25
121	142	1
7	7	47
44	54	3
54	54	18
36	37	6
4	5	4
44	44	17
87	87	17
118	118	16
11	11	14
111	111	17
2	3	10
163	163	10
151	151	9
43	43	28
65	65	7
49	57	4
14	14	14
2	135	4
169	169	5
89	89	27
5	17	1
4	134	3
14	15	16
136	137	4
75	75	14
120	164	3
22	22	5
122	140	5
98	98	3
1	2	25
110	111	9
102	116	2
130	164	1
86	106	8
126	126	10
67	116	1
34	34	25
64	82	2
79	79	6
90	90	13
103	103	3
101	102	12
71	84	4
153	154	6
108	108	17
35	35	20
132	132	6
83	85	6
73	131	1
35	36	7
45	46	10
150	151	2
5	6	8
81	82	13
132	134	2
92	95	3
109	109	23
33	33	11
91	94	4
57	57	15
6	34	2
9	9	16
68	116	4
137	137	18
130	132	5
157	157	22
106	106	35
70	71	1
105	105	18
2	33	2
66	68	1
86	87	3
34	35	11
95	96	3
37	37	46
18	19	5
48	48	8
166	166	13
82	82	18
148	149	11
117	118	1
15	15	15
116	122	4
93	113	1
128	128	12
39	39	15
56	82	4
151	152	1
89	90	4
46	50	3
154	155	6
81	81	1
149	149	34
101	101	19
130	131	8
7	8	11
93	95	5
57	62	3
49	50	10
140	140	4
0	0	18
48	58	3
10	10	24
50	50	24
54	57	2
134	167	2
27	27	9
80	80	18
21	24	5
52	53	4
108	109	1
3	4	2
97	99	2
23	23	12
162	165	7
99	113	1
20	24	2
90	99	4
90	94	3
4	4	14
64	71	1
85	85	11
69	69	16
87	88	13
39	77	1
6	7	18
48	63	2
169	170	2
91	91	11
112	114	1
112	158	5
152	152	10
145	145	10
72	73	5
104	105	3
22	23	16
137	138	6
94	146	2
43	44	7
44	45	3
73	76	4
116	128	3
157	159	1
94	96	4
56	57	9
138	139	3
123	124	5
45	45	13
42	43	9
131	132	12
153	153	17
79	80	5
135	135	7
91	92	6
75	76	4
41	41	24
114	130	4
118	165	1
8	8	31
66	67	2
123	123	19
146	147	8
107	107	23
131	131	11
76	83	1
95	95	5
87	97	1
128	129	3
74	74	16
47	64	1
25	25	21
93	93	4
116	117	3
152	153	5
6	6	26
51	62	3
0	1	7
94	94	13
162	162	4
86	97	4
78	79	6
146	155	2
155	155	16
89	91	2
39	40	3
69	83	2
18	20	2
47	63	1
143	144	2
139	139	13
98	146	3
159	167	5
24	24	12
77	80	5
143	165	3
120	120	8
158	158	24
16	16	5
144	145	3
159	161	4
142	143	2
96	99	1
140	165	2
44	46	5
131	168	1
167	169	2
122	122	8
72	84	2
63	63	19
97	98	3
167	168	2
113	116	6
142	142	9
25	26	7
85	103	2
48	50	5
20	21	3
26	26	16
69	70	17
130	130	7
80	81	4
84	84	13
115	117	1
90	106	9
50	51	6
6	110	1
17	20	4
40	82	1
47	57	2
92	94	3
143	169	3
96	97	6
126	130	1
136	158	4
111	133	4
93	96	6
22	24	10
133	133	14
22	52	1
165	165	5
137	166	4
39	41	13
15	40	1
16	92	4
76	78	7
134	135	6
120	124	2
155	158	2
162	163	1
26	147	4
18	23	2
121	140	5
15	16	4
100	100	6
88	89	4
52	52	3
105	127	1
141	141	16
20	22	12
138	140	2
87	101	2
105	128	3
135	136	1
135	137	3
21	21	8
54	56	7
155	156	6
108	141	6
38	39	12
13	13	11
92	105	6
147	147	8
167	167	6
116	126	4
85	87	1
87	102	1
5	11	3
46	48	2
86	86	8
5	165	2
119	119	2
123	125	3
121	121	3
93	94	4
146	146	10
62	77	2
149	150	5
46	58	3
7	11	4
121	122	5
117	127	2
137	159	3
4	109	1
18	18	7
136	138	3
160	165	3
142	144	1
68	68	10
56	56	14
92	92	5
11	12	2
19	19	8
10	12	1
115	126	1
129	130	2
87	106	5
2	4	7
55	56	5
160	163	4
107	111	2
71	71	4
133	135	3
168	169	2
52	55	2
83	84	3
19	23	4
38	42	1
106	107	6
114	114	6
168	168	1
16	25	4
74	75	2
141	166	2
129	160	2
49	49	11
66	66	3
98	99	2
116	116	1
69	85	2
132	133	1
146	165	3
69	102	1
163	164	6
47	67	2
115	127	2
4	135	3
54	55	2
97	97	4
91	97	1
102	102	2
112	112	4
68	69	3
62	75	4
113	114	2
162	169	2
21	23	5
6	37	2
46	46	7
13	63	3
164	165	3
124	125	3
120	121	3
67	68	7
7	111	3
170	170	7
166	167	1
134	134	3
136	159	2
12	13	2
122	156	1
4	35	2
8	12	2
20	81	6
33	35	1
64	86	2
86	89	2
109	110	1
102	104	1
5	109	2
101	104	3
11	13	2
92	93	8
63	69	5
156	157	3
48	49	3
87	100	1
112	122	4
6	35	3
159	164	3
44	64	6
36	108	1
107	108	5
83	83	5
33	34	1
74	79	8
77	78	2
47	48	5
117	117	14
89	93	3
118	119	3
94	95	2
143	143	14
41	43	2
104	104	2
121	123	3
64	69	1
151	159	6
14	43	3
85	97	1
122	123	1
37	107	2
141	148	2
8	11	2
99	111	1
158	159	5
71	86	2
108	133	3
126	141	1
161	161	2
55	55	7
4	7	3
117	119	1
15	43	3
139	144	1
119	121	3
105	106	7
82	84	1
119	122	1
52	75	3
92	97	3
88	92	3
41	42	3
118	120	1
120	122	2
12	95	1
40	81	4
99	99	3
153	155	1
134	137	1
73	73	1
88	93	3
64	65	3
4	6	1
115	116	2
49	51	1
1	3	1
56	88	2
40	80	5
38	107	1
104	128	1
63	71	4
123	126	3
3	34	1
113	121	1
93	100	5
135	159	3
3	133	2
148	152	2
58	62	4
57	58	1
37	42	2
3	33	3
40	44	2
12	14	1
129	132	2
74	80	2
140	143	2
90	93	2
125	126	2
25	111	4
153	156	2
88	91	3
86	88	1
124	127	3
14	16	5
159	160	2
37	41	1
15	41	1
130	159	2
148	148	2
85	86	2
44	52	1
86	113	3
147	154	5
139	140	3
107	133	1
24	48	1
8	16	1
24	51	1
159	170	1
16	17	2
65	66	1
6	43	1
126	128	1
40	43	2
26	27	1
146	153	1
56	106	2
102	113	1
157	158	1
76	79	2
105	129	1
7	9	1
147	152	1
15	17	1
11	25	1
64	67	1
70	74	3
122	139	1
16	20	1
73	74	1
111	112	2
76	77	2
97	100	1
19	20	1
28	28	1
165	167	1
106	111	1
14	44	3
7	34	2
6	108	1
21	51	1
74	77	2
37	111	2
87	89	1
23	24	1
112	126	2
7	110	1
9	10	1
48	56	1
104	113	1
136	157	1
34	157	2
72	129	1
163	166	1
161	165	1
131	161	1
127	132	1
85	104	1
114	115	1
106	129	1
67	103	1
6	36	2
23	51	1
144	147	2
23	48	1
56	58	1
107	109	1
