73	73	3
50	50	7
71	71	5
76	76	3
21	21	3
127	127	3
54	56	1
26	27	2
15	135	2
93	93	4
81	82	2
18	19	3
148	152	3
54	54	2
45	45	10
17	17	7
96	99	1
42	43	4
11	11	7
153	153	4
72	72	3
128	128	5
64	64	6
128	146	2
94	94	2
66	66	4
65	66	1
10	11	3
13	15	8
15	20	3
46	47	2
129	136	2
85	86	2
113	113	5
44	44	3
86	86	3
43	43	4
96	96	2
95	97	7
75	75	1
53	53	2
139	140	3
48	54	3
87	100	2
34	36	1
90	90	3
5	34	3
8	8	6
73	74	3
36	36	5
99	99	5
4	4	2
136	137	5
46	46	11
13	13	4
112	112	1
138	138	5
105	105	2
64	68	5
42	42	3
12	12	4
47	47	3
134	134	1
84	87	2
66	86	3
146	147	3
106	106	1
74	74	5
16	23	5
15	15	6
36	37	1
124	124	2
24	24	3
107	108	7
93	94	2
143	144	7
120	143	2
120	120	4
151	151	7
27	28	2
29	30	1
100	100	2
118	121	1
65	81	1
83	83	2
2	3	4
14	14	9
6	32	2
51	81	5
51	51	4
63	63	4
52	52	3
110	110	1
77	78	1
127	137	5
19	19	7
133	133	2
116	116	5
37	41	1
9	10	2
6	7	4
140	141	1
147	147	3
14	19	1
8	12	1
80	80	2
34	57	2
95	96	2
53	55	1
4	32	1
65	65	6
64	65	2
144	144	1
45	46	1
101	101	3
141	141	3
29	29	1
129	129	3
111	111	1
57	57	3
108	108	2
14	15	2
122	122	3
39	39	1
111	112	4
129	130	2
114	114	1
5	9	1
95	95	2
121	121	2
40	40	1
135	135	5
152	152	1
97	98	3
34	34	2
91	91	2
118	118	3
137	138	1
6	6	3
22	22	1
30	30	2
67	73	1
124	128	2
82	82	2
64	77	3
136	136	1
3	3	3
19	33	1
25	25	1
75	76	1
98	99	1
65	75	1
4	6	1
62	62	1
62	81	1
88	89	1
53	54	1
67	67	3
25	62	1
149	150	1
76	83	1
125	125	1
13	34	2
131	131	1
13	14	2
67	98	1
48	48	3
11	12	3
38	38	3
140	140	1
65	151	1
63	65	2
12	31	2
117	117	2
150	150	3
101	110	1
77	148	1
9	9	1
31	50	1
20	21	2
26	26	1
33	33	4
69	69	2
35	35	1
139	141	2
149	149	1
131	132	1
12	140	1
64	76	1
130	131	1
65	67	1
65	79	2
16	16	2
92	93	4
68	75	1
104	105	2
70	70	1
27	40	1
98	98	3
33	56	1
35	36	2
128	150	1
7	18	1
32	32	1
5	6	1
13	17	2
8	10	1
106	118	1
80	83	1
31	31	2
130	130	1
125	126	1
102	110	1
18	18	1
148	148	2
146	146	2
132	137	1
65	69	1
104	104	2
123	131	1
23	23	1
142	144	2
20	20	2
69	74	1
51	52	1
8	9	2
25	26	1
145	145	1
47	48	1
17	19	1
10	10	1
106	107	1
144	152	1
102	106	1
81	81	1
5	5	1
72	73	1
30	33	1
142	142	1
14	73	1
51	55	1
68	68	1
67	69	1
