143	143	7
90	90	5
77	77	3
122	147	2
163	165	1
127	127	8
63	63	1
38	41	1
109	109	6
144	145	2
111	113	4
7	7	6
95	95	2
160	160	4
9	10	3
170	170	7
1	1	3
111	120	1
22	22	13
164	164	2
115	116	4
128	129	2
140	140	5
73	73	2
44	44	8
129	129	7
13	15	4
23	38	6
156	157	3
52	127	3
138	138	6
53	53	5
41	41	4
119	120	1
14	14	8
103	105	4
28	64	2
158	158	2
18	19	9
12	51	1
36	37	5
153	153	2
11	11	6
136	136	3
108	109	3
138	139	4
57	57	1
110	125	2
155	167	2
69	69	1
66	120	4
159	159	2
82	82	5
42	42	3
54	54	2
85	91	1
18	20	1
167	167	1
121	121	7
146	146	3
24	26	5
51	51	2
169	169	3
40	40	12
4	9	2
141	145	4
79	93	6
3	3	3
23	23	1
78	79	2
146	147	2
63	64	1
0	148	5
118	123	3
20	20	1
85	85	1
109	110	1
43	43	4
151	152	1
2	2	10
47	47	5
106	107	3
74	74	1
45	45	2
21	23	5
4	4	7
13	14	2
65	65	3
15	49	4
152	152	2
151	151	4
97	97	2
149	149	2
110	110	3
159	160	1
123	154	1
155	156	3
14	15	5
113	113	8
124	124	5
50	51	2
143	144	1
142	152	1
112	167	4
71	71	3
52	52	3
48	48	6
2	55	1
130	130	3
25	25	11
157	157	3
118	118	2
117	117	4
104	104	1
39	63	1
96	97	1
35	37	1
83	83	1
27	34	1
112	112	4
47	48	1
5	5	5
79	79	1
98	98	2
38	38	2
105	105	2
55	55	3
69	70	2
9	9	2
134	134	1
123	123	4
55	56	1
39	45	3
72	141	1
8	8	4
13	40	2
56	56	1
67	67	1
99	109	2
116	116	1
68	108	2
115	115	3
1	55	1
46	47	2
40	46	2
127	150	2
28	57	1
34	34	3
101	101	4
134	157	2
92	92	3
8	49	2
68	68	3
100	100	5
10	10	2
41	46	2
21	21	2
70	71	1
113	114	1
139	139	2
85	89	1
128	128	2
6	36	1
75	98	3
13	13	1
66	169	1
21	56	2
155	166	1
72	75	2
19	19	6
24	24	1
165	165	4
89	89	2
0	17	1
35	35	2
87	87	1
42	43	1
27	27	2
141	141	1
150	150	2
0	0	1
129	130	5
108	108	1
166	166	5
125	125	1
155	155	2
17	111	1
0	1	1
33	33	1
6	6	2
45	46	3
40	41	1
101	102	2
36	36	3
10	170	1
26	26	1
14	124	3
111	111	3
160	166	2
62	62	1
8	10	2
168	168	1
18	18	1
89	131	1
6	12	1
97	98	1
103	103	1
66	67	2
4	35	2
4	140	1
50	50	2
52	55	1
72	72	1
74	75	1
26	35	1
154	154	1
46	46	2
73	139	1
41	52	2
26	27	1
41	50	1
162	162	1
15	40	1
88	89	1
33	34	1
12	14	1
10	11	1
63	120	1
16	17	1
82	83	1
122	123	1
135	135	2
22	23	1
102	102	1
120	120	1
86	86	1
119	119	1
80	81	2
1	130	1
38	42	1
5	96	1
91	91	1
92	94	1
113	118	1
