113	131	1
70	70	14
74	74	14
72	72	11
74	76	2
44	44	10
101	101	11
65	65	11
103	103	10
2	2	4
25	25	17
76	76	19
91	93	2
30	33	3
68	68	4
124	125	2
103	104	10
53	82	3
102	103	7
68	91	1
19	19	5
107	109	5
122	130	4
6	6	4
59	61	7
68	69	5
80	96	1
19	21	4
93	94	7
112	113	7
63	63	13
99	100	2
62	63	5
33	35	1
88	88	12
119	120	5
73	73	8
30	30	11
79	80	9
59	60	2
135	135	2
115	115	14
55	58	1
124	124	10
111	111	14
127	127	18
97	98	4
72	76	2
99	99	10
45	45	5
90	91	9
48	48	1
23	23	13
3	3	10
91	91	6
75	75	8
49	50	2
31	32	1
13	16	3
123	123	9
61	61	12
69	69	9
122	122	6
78	82	4
65	68	1
82	83	6
98	122	2
104	104	22
117	117	10
106	106	8
100	100	21
45	51	3
121	121	11
11	12	3
78	78	14
59	59	6
24	25	2
97	97	18
12	12	7
95	95	8
126	126	25
49	49	6
25	38	2
29	29	14
36	36	1
33	33	10
60	60	12
76	101	7
114	114	23
71	72	9
126	127	8
71	71	10
28	28	10
114	123	2
6	7	11
70	71	5
80	105	3
14	33	3
6	22	2
0	0	10
134	134	10
76	78	4
26	26	9
6	8	1
62	62	14
67	67	4
14	15	9
21	78	3
64	69	2
29	30	6
23	24	4
14	14	3
0	2	4
116	117	3
57	60	1
32	33	4
86	87	4
11	11	9
35	35	6
21	63	1
79	81	3
55	56	1
1	1	7
132	133	7
17	17	5
110	111	6
87	87	18
0	3	3
63	64	3
61	69	2
79	79	15
15	15	3
50	80	5
110	110	4
95	112	1
109	109	6
58	59	3
128	129	4
7	8	1
112	131	3
66	67	9
4	4	10
105	105	17
82	85	2
102	102	13
77	77	20
27	28	4
115	127	2
9	43	3
73	77	1
101	112	2
78	79	6
86	86	2
33	34	4
80	80	8
99	101	1
89	90	6
7	7	5
31	31	8
81	82	3
75	85	2
64	64	11
16	48	1
108	108	10
45	58	3
8	8	4
27	27	11
57	58	8
10	11	1
18	18	11
14	79	2
60	61	6
54	54	14
1	2	3
73	74	5
52	52	7
65	91	2
50	52	2
83	84	3
94	97	3
95	96	5
94	94	7
52	53	2
80	84	1
54	55	6
55	55	5
114	115	3
85	85	1
125	126	6
8	9	2
115	116	3
87	88	4
121	123	2
115	125	3
21	22	5
112	112	10
92	94	3
93	93	10
13	14	5
122	123	8
56	56	1
96	97	5
50	50	9
130	132	1
130	134	3
42	42	3
77	78	3
10	45	2
109	131	3
123	124	7
5	5	3
129	130	6
93	98	2
5	31	1
89	97	2
84	84	5
131	131	3
53	53	6
10	44	1
125	125	8
75	101	1
131	132	3
92	92	9
74	75	2
104	106	5
119	119	7
30	31	2
24	24	17
62	64	2
79	98	4
62	70	2
15	18	1
95	115	4
55	59	1
81	83	5
12	13	1
113	113	5
101	102	6
60	62	5
116	116	7
119	122	1
49	51	2
96	96	5
28	29	5
64	65	3
118	118	4
120	120	6
82	82	14
80	106	1
87	91	1
128	128	10
92	93	10
115	119	2
15	77	1
21	21	11
132	132	5
63	69	2
65	67	1
15	48	2
92	97	1
9	45	1
81	81	8
22	49	2
71	73	1
52	66	2
16	16	3
15	78	2
82	118	2
21	52	1
48	60	1
128	133	5
134	135	2
96	99	1
78	84	1
32	34	1
79	126	2
105	113	2
50	51	2
113	133	3
18	19	2
74	94	2
85	87	2
90	90	9
113	116	1
104	105	4
11	25	1
82	84	3
36	38	2
17	18	1
133	133	7
25	26	3
53	54	3
112	114	1
56	57	1
17	21	2
75	77	2
65	78	2
127	128	4
89	89	6
107	107	1
8	57	1
42	44	3
3	4	3
77	99	1
124	127	1
17	102	1
73	75	2
20	20	1
5	28	2
6	12	3
14	34	4
133	134	1
94	95	2
78	92	2
95	99	1
22	52	1
121	122	3
96	112	2
43	43	2
87	100	1
45	56	1
69	89	1
9	10	3
20	21	1
117	118	1
32	32	6
108	117	2
16	17	2
20	89	1
35	36	2
13	13	1
110	119	3
127	129	1
130	130	2
80	81	1
110	130	4
85	95	1
23	49	1
79	97	2
118	119	1
66	66	1
127	134	3
18	20	2
25	36	1
111	112	1
21	80	1
65	66	3
68	85	1
114	128	1
16	59	1
117	124	1
66	69	1
63	71	1
123	129	1
64	67	2
46	46	3
47	48	1
72	73	1
58	61	1
91	92	1
36	37	1
35	46	1
113	129	1
98	98	2
60	63	1
14	77	1
74	77	1
130	131	2
83	85	1
108	109	2
25	28	1
115	128	1
61	62	1
22	22	3
10	10	1
107	108	1
44	52	1
100	106	2
47	49	1
37	37	1
106	132	1
62	69	1
31	33	1
107	130	1
21	64	1
34	35	2
76	99	1
84	85	1
5	14	1
66	68	1
88	89	1
17	78	1
79	101	2
54	57	1
73	101	1
112	129	1
114	118	1
9	9	3
53	60	1
13	15	2
18	58	1
58	60	1
111	118	1
47	47	1
52	54	1
50	56	1
102	104	1
38	38	1
13	73	1
25	34	1
83	95	1
105	106	1
35	38	1
58	58	1
76	102	1
77	91	1
44	45	1
113	127	1
75	76	1
22	64	1
69	70	1
57	57	1
129	131	1
63	66	1
113	115	1
77	92	1
115	120	1
