12	12	10
116	119	1
114	114	30
61	62	6
90	90	20
53	69	3
50	50	12
123	123	24
49	49	11
104	104	9
12	13	5
28	28	28
90	103	10
88	88	8
117	117	10
121	121	25
124	124	19
103	103	12
129	129	8
103	104	6
11	11	15
115	116	7
95	95	24
106	106	6
111	123	5
99	100	1
111	122	1
22	123	1
56	56	3
1	1	15
127	127	20
43	43	6
105	105	18
132	132	3
93	94	8
102	103	9
52	52	5
115	115	9
97	98	7
104	105	9
30	34	4
3	4	12
96	96	15
71	71	26
62	68	9
82	87	6
113	114	10
86	86	12
59	66	1
97	97	12
9	23	2
133	133	4
114	133	2
86	87	7
83	83	13
76	76	7
92	93	4
87	88	6
27	28	7
94	94	12
59	105	3
107	107	7
32	33	8
109	110	3
17	17	7
77	120	10
47	47	2
95	96	4
63	63	22
8	11	2
45	45	15
99	99	27
28	29	7
91	92	3
116	116	14
121	122	3
44	67	1
66	66	9
110	110	6
93	97	3
51	51	2
24	26	2
22	22	1
70	70	7
3	3	14
76	77	4
92	92	12
24	24	7
48	48	3
98	99	5
84	87	2
73	73	9
72	73	14
7	7	5
94	97	3
122	123	5
33	33	11
64	64	7
92	115	2
24	25	5
98	98	12
75	78	3
4	4	9
61	61	23
102	102	16
32	32	15
62	62	13
80	80	28
100	100	15
127	128	6
79	79	13
119	119	13
35	37	2
87	87	11
82	82	13
64	65	16
91	91	13
16	16	3
59	61	1
89	90	6
109	109	5
108	108	4
5	6	7
116	126	4
15	16	3
101	123	1
73	86	3
112	112	13
69	69	12
43	44	11
116	117	12
14	14	10
74	77	5
60	60	6
85	85	8
72	72	17
44	45	7
7	11	3
9	10	4
1	2	2
27	27	10
71	72	3
59	62	1
131	131	5
57	126	1
126	127	11
46	46	1
78	78	8
101	111	3
118	120	5
117	123	1
111	111	11
74	74	11
63	64	1
75	76	9
25	25	9
105	131	8
75	75	9
77	77	14
106	122	5
122	122	5
19	19	5
21	21	8
22	23	7
0	1	2
59	68	1
82	84	3
108	111	2
112	114	5
55	57	1
33	34	13
11	38	2
102	128	2
47	72	2
53	111	9
68	68	9
120	123	8
58	59	3
67	67	8
107	124	1
20	20	8
9	9	4
59	59	7
23	23	6
56	59	9
82	83	9
36	43	2
91	103	2
108	109	5
105	108	2
6	6	7
101	101	13
121	132	3
76	118	2
81	83	4
113	113	18
93	116	2
124	128	2
93	93	20
71	73	4
16	20	2
125	129	3
15	15	5
115	120	2
134	134	9
128	129	2
124	125	6
125	125	3
120	124	4
34	35	3
133	134	5
18	18	4
120	120	11
90	93	1
88	89	6
83	84	2
13	14	1
2	6	3
129	130	3
44	44	8
54	56	5
57	57	2
80	106	1
56	57	5
78	85	3
53	56	1
5	5	13
89	89	8
65	65	13
7	9	3
11	12	3
111	112	3
113	115	8
84	85	4
88	104	4
7	22	3
52	60	2
31	32	3
73	87	2
106	108	4
29	29	5
20	21	3
92	94	2
135	135	2
61	124	7
96	118	2
56	68	1
37	38	4
35	105	3
52	113	1
108	131	4
48	128	4
0	0	1
3	5	2
74	75	3
101	122	5
0	3	4
127	134	2
34	104	1
62	63	2
95	133	1
80	81	2
34	34	4
81	81	10
57	127	5
33	38	1
54	54	3
70	74	4
55	55	5
59	67	1
62	66	2
130	131	2
30	30	9
120	130	5
112	113	2
37	37	3
73	74	5
110	111	2
120	131	3
52	53	2
26	26	3
53	127	2
53	55	2
85	86	1
47	127	1
119	131	1
78	83	2
52	68	2
7	12	3
69	70	3
2	2	3
78	123	2
54	55	14
68	69	2
117	120	1
49	73	3
49	50	2
108	110	3
77	78	5
13	13	2
56	82	1
6	27	3
53	53	6
104	114	2
120	132	3
126	128	4
70	71	2
31	31	5
81	87	2
126	126	4
62	99	2
93	100	2
127	129	1
36	37	1
50	128	1
81	82	5
93	129	3
25	26	5
26	35	2
2	29	2
46	125	2
50	69	3
60	61	3
57	59	1
116	129	1
21	22	2
45	46	1
74	104	2
92	113	3
6	8	1
115	117	1
14	24	2
130	132	3
53	60	2
106	107	6
18	19	1
114	115	8
77	79	2
84	84	5
90	91	3
128	128	1
106	118	1
63	70	2
11	36	3
62	64	2
93	113	2
65	69	2
82	117	4
95	100	2
132	133	2
89	91	1
10	10	3
93	101	2
8	9	2
119	120	2
110	130	1
17	124	1
53	54	2
92	112	1
122	124	5
55	56	4
52	69	1
52	77	1
112	134	2
102	131	1
2	10	1
6	11	2
106	124	1
102	104	1
77	121	1
85	87	1
73	88	1
69	119	1
94	96	1
114	131	1
95	131	1
9	11	1
82	86	1
94	131	1
70	119	2
60	123	1
131	133	1
65	67	2
130	130	2
94	95	3
107	108	1
105	106	1
56	127	2
91	93	1
42	42	2
96	97	2
123	124	1
105	114	2
76	105	1
118	118	2
82	85	2
100	130	1
50	52	3
74	86	1
36	36	2
50	53	1
2	7	1
92	95	1
17	18	1
7	8	2
8	8	1
117	118	1
132	134	1
129	131	2
130	133	1
57	58	1
81	112	1
18	120	1
60	102	1
30	31	1
93	99	1
72	82	1
17	120	1
118	119	1
28	30	1
115	126	1
112	115	1
33	127	1
117	119	1
78	87	1
1	3	1
100	101	1
114	132	1
92	96	1
124	129	1
