75	75	8
132	135	3
54	54	3
91	91	12
2	2	11
124	133	2
151	151	18
115	115	4
73	73	24
11	11	8
152	152	9
45	46	5
86	87	4
128	128	7
65	65	7
105	110	1
62	62	4
66	66	16
39	39	3
26	26	2
134	134	20
51	53	4
27	27	17
97	97	6
77	91	3
42	42	5
96	96	5
7	8	15
104	127	1
44	44	16
46	46	11
43	43	12
53	53	18
112	113	5
117	120	2
40	41	6
62	63	3
10	11	3
21	21	10
88	89	9
137	138	3
99	99	16
9	10	2
36	36	12
38	38	6
41	43	5
105	105	14
98	98	13
11	40	3
102	102	5
49	69	3
18	18	4
48	48	3
137	137	6
133	133	12
10	10	8
107	107	14
125	126	15
120	121	7
141	141	3
124	126	4
81	114	6
86	86	11
84	84	16
85	85	5
130	130	4
131	131	12
6	6	17
72	72	1
51	71	3
119	119	2
67	70	2
51	51	10
2	4	2
70	84	1
157	157	6
15	35	4
7	7	7
87	87	8
70	70	4
144	144	13
131	132	5
4	4	16
1	2	2
155	155	7
24	24	14
40	145	2
14	25	1
105	106	1
45	45	4
112	112	5
115	116	2
140	149	2
49	51	2
29	29	8
136	136	3
127	157	4
129	129	10
107	111	2
0	1	13
22	143	3
41	41	14
123	131	4
25	25	14
94	95	11
12	12	6
93	93	12
90	90	6
11	39	3
111	111	4
63	64	4
28	33	2
6	24	2
31	31	4
0	0	12
87	90	2
154	155	3
24	26	1
148	149	1
149	149	4
1	1	5
40	40	15
130	139	2
54	69	2
123	133	2
7	47	7
143	150	4
142	148	5
99	128	3
17	17	2
105	109	1
11	13	1
148	148	9
77	148	1
106	107	7
110	111	3
5	5	18
94	96	6
44	45	12
86	94	2
154	154	9
146	146	8
156	156	8
126	127	4
73	90	1
126	126	4
95	97	6
5	158	4
49	49	5
15	15	4
33	34	3
135	135	5
47	47	13
47	48	2
112	115	2
123	126	4
124	124	3
40	42	3
101	101	11
119	121	1
88	88	2
32	33	1
52	52	2
100	100	13
110	112	9
115	118	3
80	80	6
64	64	3
100	139	2
95	96	6
18	109	1
106	106	1
70	71	5
37	37	5
139	139	2
3	4	1
141	149	3
121	121	5
51	54	3
39	40	4
28	28	6
1	151	6
68	70	2
109	121	1
30	30	6
66	69	2
158	158	3
19	20	8
79	112	4
28	31	3
114	114	8
8	8	7
1	100	5
104	105	5
2	3	3
85	89	1
34	34	4
3	3	8
14	48	1
28	29	1
117	117	3
64	69	1
138	139	3
55	55	7
40	147	2
117	121	1
116	116	19
46	47	4
138	138	10
48	49	2
139	140	1
109	122	1
38	65	3
56	56	1
109	109	3
20	20	3
155	156	5
68	68	4
111	117	3
122	122	7
76	76	1
118	118	1
153	153	1
123	123	3
103	103	8
24	33	3
50	51	3
23	23	12
32	140	9
24	40	4
83	84	1
9	9	6
140	141	7
41	42	3
151	152	5
82	82	3
16	26	3
3	147	2
55	67	2
129	131	3
127	127	8
8	10	2
119	120	2
33	36	2
91	92	1
87	88	3
136	142	1
82	85	3
110	110	4
69	71	3
19	19	5
5	157	2
89	89	3
19	22	2
78	78	3
92	92	1
104	104	4
6	158	2
77	77	4
81	81	10
77	78	2
101	102	2
4	21	3
108	112	2
33	33	3
112	119	2
22	142	4
67	67	1
123	125	2
125	127	2
7	67	1
77	79	7
83	87	8
62	67	3
99	100	1
107	109	2
90	91	1
117	123	1
114	115	1
125	125	6
52	55	2
100	120	3
133	134	1
116	117	2
22	22	3
65	73	1
61	63	2
81	82	1
85	86	2
50	50	5
42	43	2
31	37	6
2	5	1
63	66	1
95	95	4
28	30	4
53	69	1
7	46	1
82	86	2
24	147	1
82	101	3
83	128	1
66	67	3
92	129	4
53	54	1
81	94	2
150	151	2
113	119	2
145	145	2
37	65	1
26	27	2
143	143	1
132	132	2
65	66	1
84	85	2
87	92	3
80	82	2
31	32	2
106	127	1
110	116	3
13	14	2
6	7	2
135	136	1
121	137	2
139	148	3
97	98	1
39	42	3
117	131	2
84	86	1
115	117	1
149	150	1
16	18	3
57	61	2
104	106	3
158	159	1
128	129	1
80	128	1
33	37	1
128	158	1
75	76	1
79	79	2
30	130	1
14	49	3
134	152	1
36	38	1
78	79	3
52	54	1
89	93	2
66	70	2
13	13	2
113	115	2
55	66	1
11	12	2
5	6	1
141	142	1
5	156	1
38	39	1
61	61	1
130	131	1
130	137	2
122	123	1
7	27	2
98	101	1
114	117	1
72	73	2
51	55	2
43	44	1
54	67	1
140	140	1
27	28	1
90	92	1
36	37	1
92	131	3
14	14	1
110	137	1
34	35	1
15	21	1
31	38	2
75	138	1
137	144	1
97	100	1
120	120	1
11	53	2
157	158	1
131	134	1
48	50	1
104	113	2
55	57	1
93	94	1
123	127	1
117	118	1
16	24	1
123	124	1
26	38	1
148	157	1
16	16	1
22	73	1
34	139	1
21	22	1
35	35	1
136	137	1
55	71	1
153	155	1
92	93	1
26	137	2
23	24	2
