148	148	18
165	165	13
123	123	4
4	5	1
54	54	9
157	157	14
101	115	1
113	113	10
8	25	1
160	160	18
177	177	18
145	166	5
45	45	13
159	189	1
111	127	1
31	35	2
128	129	5
109	110	8
34	34	5
196	196	19
16	16	15
74	74	6
41	41	9
162	163	3
118	119	5
30	33	2
106	124	1
8	73	3
121	121	15
86	86	10
60	60	15
170	170	16
159	159	15
178	181	3
195	195	6
54	63	3
197	197	9
34	36	4
8	8	7
114	173	2
47	47	13
96	167	1
5	5	10
69	69	17
21	21	10
193	193	20
59	59	4
130	186	2
145	165	8
135	179	2
17	17	14
119	119	11
150	152	2
129	130	5
190	194	1
106	106	8
112	112	6
99	101	2
78	78	12
180	180	9
132	168	1
25	64	12
4	4	2
24	24	10
58	58	5
172	172	19
130	174	1
186	187	9
11	11	14
136	136	9
179	179	4
110	127	1
79	80	2
82	85	1
165	166	8
145	145	6
72	72	19
105	105	11
100	101	8
36	36	8
158	158	9
194	194	8
120	121	1
169	169	19
46	47	1
105	106	2
151	152	6
40	40	12
161	165	6
192	193	4
188	188	9
81	82	3
56	56	26
81	81	3
128	128	8
71	83	2
32	33	3
101	108	3
1	1	7
167	168	2
153	153	7
146	189	5
22	23	2
171	171	13
9	9	23
126	126	9
189	189	9
124	124	6
2	3	2
44	44	12
108	113	6
72	73	1
11	13	5
171	172	2
29	29	5
19	62	3
98	153	2
159	178	3
11	19	3
19	20	11
35	35	7
194	195	4
94	94	5
191	191	11
118	133	9
184	184	6
156	156	8
17	18	5
158	160	3
26	35	1
20	34	5
129	129	3
82	83	1
20	23	7
51	52	2
154	191	3
138	138	7
164	167	2
152	152	5
111	111	8
183	183	13
25	25	5
149	149	18
117	173	2
148	149	6
176	177	6
93	93	2
139	140	3
25	112	2
134	134	17
133	135	2
109	111	1
13	13	7
190	190	9
43	43	12
132	132	13
143	143	5
164	164	7
195	197	1
100	179	4
156	190	1
134	137	4
151	166	3
48	48	10
99	100	2
54	55	1
146	146	7
2	4	2
109	123	4
163	163	6
117	133	4
166	166	9
181	181	9
178	178	17
136	137	2
12	12	10
86	151	1
67	67	5
0	0	10
28	33	2
38	38	11
127	127	11
15	16	3
42	44	6
158	190	5
134	152	2
3	4	1
36	37	6
18	18	15
186	186	17
110	110	3
46	46	9
30	45	6
1	103	2
52	53	4
131	131	7
147	148	2
103	173	1
87	87	8
12	14	4
22	22	6
14	14	11
143	179	2
147	147	21
119	120	1
185	187	1
143	181	1
129	186	1
173	175	4
150	150	12
107	107	7
73	73	5
156	163	3
3	53	2
155	156	11
79	145	2
20	20	10
135	136	5
112	172	1
135	152	5
102	102	5
37	37	6
90	90	2
142	142	3
33	33	11
30	31	5
89	89	2
154	154	12
108	177	1
19	19	6
135	135	9
152	154	5
116	116	7
161	161	4
39	39	12
108	144	3
168	169	18
6	31	1
0	2	8
101	143	3
134	135	1
83	85	3
120	120	9
96	165	4
42	42	4
104	104	7
172	173	3
36	38	2
125	159	1
137	146	1
131	165	5
103	106	5
141	141	10
187	192	2
106	107	5
187	188	8
104	105	6
173	174	2
152	173	5
182	182	4
144	144	7
38	54	5
65	65	2
19	26	2
108	111	3
137	192	1
3	40	3
32	32	2
2	77	1
131	133	2
163	164	3
28	29	1
34	35	4
158	159	5
105	125	4
10	10	3
8	29	6
127	128	4
2	53	3
16	53	1
39	40	3
70	71	3
125	125	8
101	101	5
123	183	1
51	51	8
3	3	6
38	42	2
63	68	2
49	49	7
159	160	6
52	52	6
24	25	1
63	67	1
66	66	3
186	188	7
15	15	7
149	150	2
55	59	4
173	173	7
164	166	3
116	117	3
6	21	2
20	62	2
64	64	1
114	114	8
97	167	1
181	182	3
116	118	1
160	161	2
113	178	2
139	139	11
155	158	5
43	81	1
75	76	3
30	37	4
29	30	4
133	133	5
27	63	5
137	137	5
111	116	2
161	163	6
50	51	6
117	117	5
192	192	11
132	135	3
55	55	9
151	151	12
7	25	1
96	97	3
34	64	2
107	108	1
61	79	1
53	53	8
138	139	3
20	33	1
26	26	2
23	23	7
23	24	1
83	83	2
41	73	2
38	39	3
28	31	1
141	172	1
66	76	1
30	30	10
39	74	3
10	11	4
57	57	9
7	7	2
71	90	2
183	184	7
52	61	1
154	190	4
6	7	2
9	10	4
27	27	4
40	41	3
99	150	5
31	31	10
191	193	1
113	140	3
28	66	2
115	115	4
100	144	2
162	162	10
185	185	7
56	58	1
62	74	2
153	175	4
147	153	4
165	167	3
130	130	6
122	122	6
29	33	1
43	80	3
118	118	1
33	64	2
125	126	2
16	17	7
150	166	1
153	191	3
35	36	1
50	50	4
109	109	7
158	161	1
113	115	1
101	114	1
126	127	2
180	183	2
107	144	1
132	134	2
101	104	1
175	175	10
141	174	3
105	117	1
1	113	2
105	107	2
4	79	3
83	84	1
22	69	1
104	115	2
131	137	3
63	63	2
70	70	6
55	57	1
106	112	1
173	191	1
66	67	2
132	179	2
143	144	1
105	124	2
100	115	3
105	122	5
150	164	1
182	183	3
15	17	1
103	108	2
137	139	1
97	97	1
62	62	1
50	96	2
146	150	2
94	95	1
31	32	3
179	180	2
104	110	2
162	168	1
146	148	2
133	134	4
67	76	2
176	176	2
135	182	2
116	122	1
28	30	5
145	146	3
13	16	1
95	190	1
187	187	14
140	140	4
117	118	3
168	168	9
19	21	1
88	88	2
62	66	1
189	190	3
110	111	3
93	145	3
106	113	2
45	46	1
26	28	1
8	19	2
56	63	1
68	73	3
145	150	2
189	195	2
96	96	5
0	106	1
100	100	6
103	103	2
123	124	5
9	69	1
21	34	1
41	74	2
68	68	3
80	80	1
77	83	4
155	155	1
21	22	1
5	6	1
60	61	2
71	72	2
47	48	2
5	25	1
3	76	1
71	71	6
167	167	7
107	170	2
153	154	2
138	158	3
116	176	1
43	44	2
0	1	2
58	59	1
108	143	2
174	174	2
178	180	1
187	194	1
43	46	1
34	42	1
13	14	1
7	26	1
40	74	1
8	21	1
27	36	1
102	153	1
31	38	2
111	144	2
41	44	1
27	28	2
67	68	1
105	115	2
125	127	1
159	194	1
36	66	1
35	64	1
176	178	1
118	193	3
104	107	1
191	194	3
139	142	1
101	102	1
112	126	1
108	108	2
7	40	3
95	95	4
8	38	1
171	187	2
114	115	2
101	118	2
48	49	1
168	170	1
104	124	1
99	99	2
20	63	1
80	81	1
101	103	1
185	188	1
34	65	1
83	86	1
148	185	2
0	94	1
27	31	1
17	54	1
155	157	2
61	61	1
40	42	1
25	44	1
124	125	2
87	89	1
107	154	1
6	32	1
4	8	1
4	63	1
77	78	1
161	162	1
159	190	1
79	79	2
98	145	1
146	153	2
191	192	1
99	119	2
1	2	2
84	84	1
4	25	1
46	52	1
139	190	1
142	146	1
6	25	2
156	157	1
78	94	1
94	165	1
95	191	1
79	82	1
175	176	1
137	140	1
98	154	1
25	45	1
75	77	1
5	10	1
149	151	1
112	121	1
26	27	1
0	3	1
42	59	2
137	189	1
56	59	1
44	51	1
100	145	1
35	42	1
159	161	1
63	74	1
143	150	1
118	120	2
24	54	1
169	176	2
101	150	1
169	189	1
186	189	1
154	159	1
137	186	1
157	158	1
20	37	4
134	181	1
111	122	1
136	182	1
153	159	1
98	165	1
66	68	1
84	85	3
130	132	2
179	182	1
98	190	1
11	12	1
64	67	1
137	148	1
146	147	2
23	69	2
9	39	1
103	121	1
190	191	1
64	68	1
12	13	1
152	157	1
5	65	2
167	186	1
77	77	1
89	90	1
141	170	1
146	149	1
88	89	2
73	78	1
190	192	1
171	188	1
38	40	1
142	174	1
69	76	1
34	69	1
1	181	1
145	188	1
85	85	1
134	136	1
93	106	1
141	192	1
0	104	1
87	168	1
30	69	1
