29	29	3
117	117	4
188	189	1
223	223	12
26	32	6
105	106	6
150	191	3
168	168	4
113	113	7
29	30	8
58	60	3
67	67	5
51	52	3
185	223	3
164	164	5
68	68	9
135	206	5
149	149	3
213	213	2
160	160	5
155	155	3
193	193	4
30	30	4
202	202	3
219	219	6
119	120	5
215	215	3
219	234	2
190	191	4
99	116	2
146	146	1
72	158	1
237	237	6
40	41	2
30	31	8
157	157	4
0	0	4
173	174	7
26	65	2
6	6	4
204	204	14
29	193	2
10	10	8
199	199	5
26	26	13
176	176	6
34	34	10
95	96	5
174	193	4
180	224	1
202	203	1
229	229	4
48	49	9
195	239	4
47	190	4
128	137	1
43	46	1
205	205	4
33	48	1
16	16	10
181	198	3
21	66	1
80	80	19
242	242	5
74	74	13
56	57	5
69	69	3
212	212	3
48	76	4
40	102	5
4	6	7
47	200	1
31	31	10
43	43	3
45	46	4
85	85	3
13	13	4
64	64	2
125	127	2
211	211	3
145	145	6
128	128	4
88	88	5
125	125	2
79	79	15
110	120	1
197	198	3
17	17	5
82	84	5
51	51	7
7	8	1
104	104	7
29	82	4
45	45	4
35	35	5
37	38	5
24	24	6
123	123	10
46	190	2
120	120	7
69	76	4
171	172	5
114	114	2
103	104	1
15	15	5
182	183	1
76	76	2
1	1	3
208	224	7
162	162	3
142	142	4
111	151	2
158	158	4
52	71	3
202	218	1
34	49	3
226	227	3
70	70	2
75	75	9
203	203	2
187	187	2
3	4	3
78	78	5
220	223	2
119	119	4
105	115	2
95	188	4
43	71	1
48	52	2
136	138	2
39	39	4
130	130	3
227	227	3
163	163	4
231	231	3
220	220	2
28	28	7
47	203	4
105	114	3
97	145	1
5	5	9
178	178	5
32	69	3
192	193	3
84	84	4
173	173	4
83	84	3
21	65	2
82	125	2
126	127	1
116	116	3
27	27	4
36	75	3
228	228	3
55	55	4
71	72	4
27	28	1
229	230	4
138	138	4
210	211	1
216	216	8
144	145	2
17	200	1
230	230	6
20	20	1
182	202	1
22	22	8
109	109	5
61	61	5
139	139	3
28	212	2
183	184	3
9	20	2
47	47	4
19	20	1
75	227	2
3	3	1
234	235	1
46	189	1
153	176	1
224	224	4
36	55	2
23	23	5
134	137	3
8	8	6
37	37	3
141	141	2
72	72	4
177	195	1
240	240	3
153	153	4
225	225	1
65	65	3
135	135	6
220	225	1
25	55	4
107	108	1
171	171	3
17	18	6
207	207	1
21	22	3
71	71	2
22	26	3
9	10	4
200	201	6
146	189	1
96	96	5
18	18	2
11	56	1
126	187	4
197	197	2
42	50	3
50	74	2
236	237	5
98	98	6
98	99	1
163	167	3
181	181	1
167	170	6
64	65	2
86	86	1
213	217	1
124	125	2
181	182	1
127	133	2
104	115	1
120	122	1
241	241	4
11	43	1
179	179	6
186	188	1
52	52	4
12	12	9
147	148	3
194	239	3
154	155	3
80	81	2
122	122	1
59	60	2
13	15	2
112	113	1
118	122	1
123	124	4
174	174	1
234	234	2
83	190	3
131	219	2
218	218	5
194	195	1
99	99	4
44	44	4
209	213	2
29	240	2
130	211	1
50	50	1
97	97	3
81	82	2
146	147	3
59	61	4
152	152	2
39	43	2
9	9	2
95	123	3
150	150	1
233	236	3
20	213	2
127	127	1
131	157	2
203	204	3
11	15	1
101	114	1
112	112	1
217	218	1
188	197	2
189	190	1
26	27	1
39	48	1
46	73	2
99	109	2
193	195	2
170	199	2
159	160	1
53	53	1
207	208	3
143	144	1
161	161	7
82	83	1
154	189	3
26	63	2
60	60	7
43	147	5
42	42	2
159	159	2
70	71	2
4	7	1
75	78	2
48	48	2
178	180	1
11	11	3
39	241	2
199	206	3
214	214	1
41	49	2
235	235	1
151	192	1
195	206	1
137	137	2
223	229	3
187	188	2
230	241	1
102	104	1
210	212	3
26	73	1
146	219	1
122	123	1
5	16	1
145	205	1
42	140	1
32	32	5
143	143	3
57	57	3
190	190	1
26	28	1
220	222	2
145	147	1
81	81	1
117	119	1
25	25	4
134	135	2
118	118	1
128	185	1
162	182	2
133	133	1
73	73	3
128	153	1
17	207	2
33	34	1
33	33	1
21	21	4
97	106	1
99	100	3
38	39	2
99	117	2
54	225	1
175	190	1
70	157	1
32	50	1
40	40	3
226	226	1
37	51	2
17	32	2
200	205	1
228	229	1
169	170	1
46	46	2
61	71	1
210	210	1
27	32	1
185	185	3
221	221	2
193	197	1
38	38	1
138	210	1
208	208	1
4	205	1
148	178	2
19	19	2
89	89	1
216	217	1
28	36	2
166	169	2
95	95	1
2	13	1
167	167	1
11	12	1
28	31	2
143	226	2
150	151	1
54	61	1
137	138	1
215	217	1
134	161	2
178	179	1
7	12	1
18	231	1
238	238	1
206	206	1
100	101	1
21	50	1
7	20	1
217	217	1
84	102	1
20	21	1
12	14	1
166	166	1
102	102	1
74	75	1
3	6	1
130	210	1
32	38	1
120	121	1
34	35	1
