123	123	9
66	66	2
62	63	9
62	64	3
58	58	1
114	114	11
8	8	6
65	65	5
19	19	3
15	16	2
119	144	1
41	41	5
73	73	3
96	111	1
133	134	3
39	39	6
145	145	1
55	55	1
62	110	3
119	119	2
131	143	2
59	60	4
107	107	1
67	70	1
88	88	1
30	30	4
102	103	2
33	36	1
134	136	1
68	68	8
63	63	6
91	91	3
71	72	4
18	18	2
97	112	3
31	31	1
122	122	7
76	78	6
38	38	3
27	28	1
96	104	1
27	27	2
112	112	3
130	130	6
59	83	1
3	4	1
59	59	1
62	62	2
36	37	3
10	10	6
35	35	2
113	116	2
13	13	1
129	129	2
128	128	3
67	67	6
135	141	3
134	134	2
138	138	4
90	90	4
126	127	4
93	95	1
91	92	1
117	122	3
48	48	3
14	14	5
124	125	1
86	86	1
116	116	2
83	84	1
125	125	1
37	41	2
132	132	6
50	50	1
57	58	3
86	87	1
137	137	2
56	56	2
31	51	3
114	139	2
94	95	3
34	35	1
53	110	3
72	94	2
117	118	1
135	136	1
143	143	3
37	37	4
40	40	3
100	100	2
23	23	4
95	95	5
95	106	2
30	36	1
126	134	1
53	53	6
94	94	3
86	97	1
32	32	2
118	118	1
21	21	1
121	121	2
30	38	1
10	30	2
113	114	1
61	61	3
64	64	1
12	12	1
108	108	2
92	133	1
109	109	5
85	97	3
123	143	1
2	14	1
91	98	1
97	97	1
132	133	3
74	74	7
91	99	1
134	135	1
17	17	2
69	77	1
89	90	5
130	133	1
3	3	2
57	57	4
22	22	2
124	134	1
83	83	1
106	107	2
34	34	2
117	117	4
92	92	1
136	138	1
130	131	1
136	136	1
58	59	1
88	92	2
36	36	3
28	101	1
30	33	1
137	138	1
124	124	1
106	108	1
120	136	2
52	110	2
48	90	1
51	52	1
69	69	1
135	135	3
49	50	5
57	71	2
139	139	2
26	26	3
93	94	1
11	30	1
52	52	1
59	61	2
115	115	1
98	98	1
140	140	1
97	98	1
11	11	1
0	0	2
77	79	1
53	71	1
136	137	1
29	29	2
20	20	1
15	15	1
135	140	1
78	78	1
54	71	1
18	19	1
49	49	1
131	139	1
