13	13	8
92	92	35
3	3	14
45	45	9
103	103	10
46	46	21
60	60	17
83	83	23
40	45	3
115	115	6
48	48	13
32	32	21
128	128	2
77	77	9
126	128	3
89	89	10
11	11	23
16	32	2
126	133	3
61	61	16
47	48	6
18	18	12
116	116	9
113	116	3
60	61	4
111	111	7
109	109	7
99	99	20
112	113	5
5	5	14
85	87	2
128	131	6
31	31	14
4	7	1
30	30	23
29	29	21
27	31	2
82	83	19
22	22	12
74	74	34
65	65	24
99	120	2
37	38	7
46	47	3
28	28	14
62	62	33
9	9	21
86	86	15
125	126	1
79	79	14
64	65	5
21	21	10
90	103	3
124	124	8
105	105	9
69	69	15
79	80	2
4	5	5
59	59	21
31	70	1
35	35	23
28	29	4
30	31	5
104	106	2
98	98	7
34	34	15
100	100	15
66	66	22
75	76	11
129	130	5
1	1	21
29	59	5
114	114	5
29	30	11
41	42	15
72	72	10
119	119	12
83	89	3
45	89	2
64	64	28
35	36	10
80	80	24
8	8	22
120	120	8
131	131	25
81	81	29
33	33	29
96	97	4
26	29	5
93	94	7
103	104	4
27	92	4
19	19	5
85	85	10
25	25	11
117	117	4
26	82	2
63	64	6
73	74	6
20	20	8
20	21	2
87	87	9
91	91	14
107	107	9
75	75	16
128	130	1
122	122	15
128	129	1
0	1	4
91	92	7
94	94	9
46	64	1
6	7	9
63	63	17
95	125	1
76	92	1
24	99	2
12	13	3
68	69	3
56	56	13
69	70	5
94	95	5
57	57	15
15	16	8
42	42	13
24	31	1
27	27	24
98	99	6
19	32	3
1	2	5
73	77	1
45	71	2
62	63	2
134	134	6
49	113	2
90	90	17
68	68	10
6	6	25
8	9	5
73	73	16
76	77	7
34	35	15
50	79	2
94	97	1
48	49	6
90	93	1
112	112	9
78	78	13
85	88	2
123	124	10
28	91	2
133	133	7
124	126	2
21	78	2
47	74	1
8	16	5
119	120	4
99	100	13
43	45	4
41	41	8
95	95	22
26	26	14
10	10	17
36	36	11
39	40	2
12	92	3
57	83	4
127	127	6
12	12	20
118	118	11
62	69	4
93	93	13
47	47	11
17	18	4
7	60	1
16	74	2
20	66	3
84	84	16
43	43	9
8	15	2
123	123	7
126	126	16
130	130	10
115	123	3
76	76	11
7	21	1
41	49	3
44	44	8
99	116	5
86	88	2
31	32	3
24	25	7
26	27	8
17	37	3
16	47	5
58	58	8
102	102	15
25	26	6
83	87	2
57	58	5
118	122	4
37	37	12
72	77	5
90	91	2
8	45	4
27	32	3
40	40	9
130	131	10
90	92	4
7	50	1
80	105	4
67	114	3
54	55	2
58	59	5
45	46	2
82	84	7
96	120	4
45	100	2
7	7	18
121	134	2
27	93	3
0	0	17
99	101	4
25	48	3
97	98	10
71	71	3
132	132	2
24	24	2
12	61	2
11	27	6
20	59	3
109	113	1
70	70	5
10	20	2
98	115	3
87	88	5
87	104	2
30	60	5
33	34	1
43	44	2
22	30	1
29	47	3
120	134	1
77	78	1
74	111	6
70	71	1
50	50	2
25	31	2
3	63	1
65	67	3
101	101	8
131	132	6
27	30	2
100	101	7
14	74	1
79	81	3
22	36	1
16	16	1
79	93	1
82	119	1
5	23	2
10	73	2
44	45	5
97	100	3
21	80	2
25	80	4
123	125	2
42	43	5
95	96	3
95	98	1
72	95	1
49	49	9
78	81	4
104	105	1
97	97	8
83	84	5
120	121	3
64	73	1
2	2	8
127	128	5
56	58	2
15	15	15
5	7	3
64	72	5
17	36	2
109	110	6
89	90	5
70	120	2
38	38	6
10	17	3
29	46	3
62	70	1
4	4	4
25	32	4
82	82	13
101	123	2
9	10	8
8	10	9
17	33	2
125	125	6
22	24	3
21	84	3
103	105	7
89	103	1
88	88	3
3	18	1
18	19	1
58	60	1
96	101	5
1	35	3
111	112	6
71	111	4
29	48	1
47	102	2
121	121	6
19	31	6
36	43	4
109	111	2
72	73	13
13	32	1
13	93	1
86	108	1
104	104	7
44	48	2
69	118	2
3	100	3
82	86	2
108	108	4
59	70	1
80	97	2
74	75	1
11	17	1
17	34	1
29	37	2
19	20	2
16	17	8
108	110	3
111	116	1
39	39	2
81	82	6
14	61	3
9	11	7
54	54	1
21	85	2
47	76	5
93	100	2
55	81	2
3	99	1
31	71	1
3	117	3
10	11	2
101	102	5
78	79	6
75	79	2
91	97	1
3	90	1
124	125	3
105	106	2
71	72	6
2	101	1
96	96	7
79	113	2
26	93	1
55	55	10
28	79	3
88	92	2
78	80	6
14	14	5
9	36	2
39	55	1
97	99	1
124	133	9
110	121	2
3	126	2
115	116	4
28	45	2
129	129	1
67	67	6
20	87	2
27	97	2
10	75	2
27	79	3
83	107	1
6	78	1
24	28	3
93	123	2
43	49	2
7	20	2
83	103	1
7	8	1
6	36	1
6	8	1
102	103	1
121	122	1
11	12	2
83	86	3
66	70	2
67	120	2
107	108	2
17	46	1
88	105	4
36	37	3
35	61	2
113	115	1
29	60	9
10	12	1
98	114	1
94	110	1
110	110	3
23	26	3
66	87	1
108	109	1
11	46	2
40	41	1
9	46	5
115	134	1
59	60	3
12	27	2
102	123	3
0	16	1
33	83	1
65	66	1
27	28	1
6	114	1
81	109	1
117	134	1
62	75	1
23	24	1
113	114	1
23	23	2
13	14	3
66	67	1
59	88	1
35	93	2
85	86	2
118	119	1
18	20	1
88	93	1
23	74	1
122	123	3
106	106	2
46	61	1
4	6	3
125	127	2
2	3	3
88	89	1
116	117	2
42	82	2
7	26	1
86	87	1
6	113	1
110	111	2
61	62	1
12	76	1
126	127	6
11	19	2
12	93	1
2	64	3
84	85	2
0	15	1
97	109	1
85	106	2
117	121	1
60	89	2
80	98	1
32	33	1
26	79	2
33	70	4
3	4	1
21	88	1
43	97	2
12	36	1
91	94	1
96	99	2
104	107	1
85	89	2
17	17	2
5	94	2
5	22	1
96	98	2
2	55	2
2	90	1
111	122	1
37	80	1
5	35	1
91	93	1
17	73	2
80	81	3
10	18	1
48	56	1
42	81	1
11	93	2
20	44	1
40	43	1
30	134	1
35	72	2
25	79	1
10	14	1
68	70	1
29	49	1
94	111	1
11	28	1
32	70	1
20	77	1
98	101	3
111	114	1
16	34	1
100	107	1
75	111	1
7	9	1
93	95	1
28	78	1
103	106	1
73	75	1
81	94	1
116	118	1
83	119	1
112	115	1
60	69	1
49	76	1
7	83	1
38	41	1
23	99	1
