65	65	32
99	99	35
56	56	18
103	103	22
115	115	20
114	114	39
1	1	14
111	131	3
12	12	32
23	23	22
85	85	30
29	29	34
55	55	10
33	33	30
108	117	1
4	5	12
86	87	10
92	92	24
108	113	2
14	14	25
71	72	11
90	90	35
129	129	26
63	63	25
44	44	21
108	108	9
64	64	25
128	129	7
62	63	13
82	94	8
105	105	35
35	35	29
71	71	34
11	29	1
33	72	2
24	30	4
5	6	14
28	28	22
121	121	19
18	18	19
107	107	13
48	48	8
21	23	4
85	87	6
61	63	8
82	82	25
57	59	6
17	18	16
10	10	16
98	99	7
123	123	17
129	133	3
74	75	14
122	122	12
27	28	12
54	54	40
7	27	3
70	70	19
116	116	22
16	60	6
97	105	4
104	104	39
93	93	24
117	131	4
30	31	12
30	30	19
1	2	10
119	119	20
75	76	16
6	7	11
2	2	22
25	25	18
78	81	1
16	16	42
73	73	31
120	129	3
133	133	21
75	94	7
89	89	22
62	86	8
80	80	37
83	84	9
62	62	17
36	36	15
19	19	17
9	9	16
11	46	2
57	58	11
79	79	33
102	103	5
8	8	13
63	88	9
37	37	10
79	85	2
91	91	16
92	93	8
120	121	9
13	13	17
78	79	5
43	43	5
21	21	18
105	106	14
13	24	2
99	103	1
2	3	8
3	3	36
11	11	20
124	124	26
25	70	2
7	35	2
25	26	2
59	59	8
69	69	14
86	86	14
112	133	3
121	122	14
26	26	11
98	105	3
60	60	24
22	22	13
68	68	5
26	33	3
112	112	22
91	92	6
131	131	13
5	5	19
76	76	36
109	109	6
114	115	11
94	95	8
44	49	7
96	96	24
47	47	9
10	37	2
16	17	14
121	123	8
84	84	24
15	55	3
58	58	5
111	111	14
45	45	22
120	120	29
84	85	8
122	130	2
95	95	37
57	57	5
99	100	12
11	25	3
32	33	8
29	30	8
126	127	12
63	85	3
55	56	2
33	34	14
124	133	1
88	89	3
108	119	5
113	113	21
100	101	6
3	4	10
13	14	11
112	131	2
26	27	3
111	122	3
23	75	5
38	38	5
87	87	17
0	0	13
69	71	3
45	59	7
110	110	13
89	93	3
6	6	13
34	35	20
74	74	23
64	65	13
81	81	12
6	72	3
101	101	36
7	7	19
31	31	11
17	17	18
102	102	29
78	80	2
9	11	7
50	51	7
23	24	4
13	23	6
28	60	3
96	97	4
17	71	2
130	130	27
32	54	3
116	128	2
125	126	8
24	29	5
67	67	11
35	88	1
31	35	3
93	94	4
133	134	6
11	12	3
113	114	7
82	85	3
127	127	16
69	70	5
72	91	3
80	81	16
7	8	10
73	90	8
25	34	2
34	34	25
15	15	18
32	32	13
94	99	2
134	134	13
6	14	2
126	126	20
89	90	4
50	53	1
101	102	12
100	100	9
72	76	3
52	53	8
61	61	26
123	124	5
81	85	1
60	63	2
130	131	6
72	73	4
63	71	4
72	72	38
74	76	6
24	24	23
54	59	2
35	36	3
20	23	4
6	8	1
59	60	8
27	27	34
125	125	21
116	127	3
27	30	1
78	78	11
36	37	2
47	55	1
15	57	5
9	45	2
24	25	6
43	64	1
102	104	5
8	45	1
129	130	11
56	57	5
90	91	9
69	72	5
4	7	7
111	115	3
53	53	24
94	98	4
6	28	3
77	79	6
1	123	5
97	98	9
4	4	25
62	65	6
123	127	2
125	133	3
24	27	2
8	11	4
28	30	10
5	7	1
51	54	7
7	11	2
44	45	4
110	111	5
66	66	10
8	26	3
78	92	1
31	32	6
50	50	17
6	26	1
88	88	20
115	120	3
8	109	2
29	104	1
28	29	18
116	118	7
37	45	1
22	23	20
99	105	5
129	131	10
82	84	6
30	33	5
14	32	8
68	69	7
67	68	5
10	25	3
5	13	3
52	54	10
7	98	1
130	132	4
94	94	15
106	118	3
1	3	11
21	33	2
14	60	8
69	90	5
71	74	2
102	105	1
53	54	3
135	135	1
118	118	15
108	110	5
52	52	19
112	114	6
63	64	6
19	20	5
85	86	7
98	98	7
50	52	6
16	18	1
100	103	1
100	116	5
5	105	1
78	82	3
121	124	2
79	80	22
33	36	2
95	96	11
14	75	3
77	80	8
30	32	7
48	53	2
62	64	5
112	113	9
46	59	2
65	72	3
78	84	2
7	32	2
97	99	1
63	87	2
97	107	1
16	23	1
28	33	1
97	97	13
128	128	13
0	1	2
123	131	1
51	60	5
21	22	3
43	52	4
108	109	4
42	43	2
49	49	7
91	96	2
25	59	1
12	13	9
34	61	5
45	60	3
77	77	20
70	71	4
118	119	2
52	64	1
33	35	6
46	60	4
26	29	4
84	87	3
128	133	4
134	135	6
69	88	1
2	65	2
8	50	1
106	106	13
103	104	6
51	59	1
25	27	2
4	64	2
124	132	2
70	85	1
125	127	2
109	113	3
25	60	6
115	119	2
27	29	1
12	31	3
29	31	7
86	90	1
115	121	2
83	83	6
82	83	3
101	109	5
13	70	1
11	36	2
13	58	1
91	93	1
12	32	2
119	120	2
0	2	2
120	122	2
37	38	2
6	12	5
30	62	3
26	75	3
6	32	5
8	9	5
27	74	2
111	112	3
44	50	1
8	36	2
95	97	4
92	94	2
105	118	1
74	88	1
46	46	1
127	134	3
94	104	1
11	27	1
73	91	1
3	5	2
115	123	1
117	118	3
73	88	5
58	59	2
108	115	2
35	37	5
73	74	6
127	128	3
15	18	1
85	93	2
3	65	2
74	94	3
15	33	5
89	91	4
10	11	4
1	5	3
10	26	2
70	74	2
25	29	3
122	123	2
23	28	2
94	96	3
132	132	10
63	78	2
69	91	3
13	72	4
69	89	1
111	114	2
116	129	2
95	99	1
78	83	3
126	135	2
82	100	5
113	122	3
73	76	1
1	4	2
87	93	3
66	94	1
45	49	2
14	15	6
106	108	1
19	27	2
72	77	1
107	110	1
9	10	2
18	105	2
108	120	1
124	134	3
104	105	5
63	84	1
83	86	1
68	85	1
117	119	2
75	75	4
94	100	1
43	46	5
122	129	2
76	94	1
101	120	1
23	74	3
106	117	4
29	62	2
106	107	4
49	53	3
7	12	3
124	128	3
9	52	3
11	37	2
81	82	1
56	58	3
13	36	1
10	110	1
18	20	2
43	45	1
26	31	3
89	94	1
112	116	4
77	78	1
33	62	1
109	110	6
74	91	2
76	79	3
65	71	2
37	43	1
113	130	1
112	115	1
33	60	1
6	13	2
107	117	4
2	4	3
11	106	1
13	15	1
132	133	4
43	110	1
115	122	2
44	64	1
6	125	2
18	55	2
17	55	3
7	14	1
70	87	1
106	120	2
7	25	1
7	9	3
19	25	2
12	14	4
18	21	4
7	71	2
51	51	1
75	104	3
90	104	2
9	110	3
131	132	3
65	66	4
10	38	2
15	60	3
14	23	2
45	46	1
25	28	2
68	72	4
20	20	2
117	117	1
30	34	1
20	21	2
8	10	1
68	87	1
68	83	1
81	84	1
76	82	2
22	24	2
70	75	2
112	129	3
58	61	2
3	12	1
14	61	3
36	54	1
32	34	2
66	67	1
7	33	1
101	103	2
73	89	1
116	117	4
10	111	1
37	44	1
61	62	1
101	105	1
29	33	1
49	50	1
94	105	5
11	13	1
37	61	2
29	63	1
11	49	1
63	70	2
14	28	1
82	88	1
4	12	1
79	89	1
13	22	1
110	118	1
115	124	1
12	114	1
119	130	1
33	91	2
83	85	1
123	129	1
67	69	2
124	126	1
43	50	3
129	132	1
66	86	1
11	47	2
111	113	1
95	106	1
43	51	1
75	81	1
32	91	3
34	62	2
0	5	1
107	108	1
110	116	1
75	103	1
65	70	1
7	28	1
62	70	1
110	115	1
63	65	1
16	30	1
8	27	1
64	75	1
76	88	1
25	30	1
12	29	1
