114	114	3
116	117	4
16	16	5
100	100	13
21	22	5
4	22	7
235	235	6
13	15	3
45	45	11
65	65	14
170	183	6
39	40	4
1	1	14
54	54	8
164	165	7
55	55	29
6	13	6
193	193	8
27	173	8
80	80	14
206	206	15
42	45	12
218	218	16
191	226	2
181	182	10
58	58	13
38	44	5
122	122	9
74	74	12
141	142	4
19	177	3
98	98	11
61	61	13
107	109	4
154	154	13
37	43	1
160	160	10
5	177	3
53	53	19
166	166	5
105	105	25
99	100	2
238	238	17
52	53	7
7	7	13
234	234	6
219	219	7
140	140	10
103	103	6
139	140	8
121	121	11
210	223	4
128	128	3
230	231	2
137	138	4
5	5	8
47	47	25
112	113	2
23	23	12
51	141	3
6	6	5
101	101	19
189	189	29
153	154	1
241	241	4
172	172	16
107	107	5
185	185	17
239	239	14
31	31	15
26	97	3
148	148	5
11	15	7
57	58	2
85	86	2
12	12	23
36	36	7
145	145	14
199	200	14
209	209	4
75	75	17
154	156	3
58	60	2
142	142	11
83	84	6
172	173	1
70	70	16
221	222	9
163	163	15
190	190	16
200	200	7
19	19	35
23	30	2
149	149	10
113	119	1
129	129	6
79	80	5
23	24	7
106	106	7
56	57	6
30	30	14
9	9	17
4	13	4
134	134	11
74	75	1
153	153	9
232	232	10
85	85	14
25	46	5
63	64	6
17	41	4
110	110	1
22	23	12
78	84	4
187	190	2
59	88	1
89	117	3
120	120	7
59	59	11
175	175	3
159	159	6
48	48	19
64	64	8
55	85	3
161	161	11
152	152	5
162	162	10
120	121	2
13	13	9
171	172	8
30	33	4
60	60	26
178	178	4
38	41	2
141	141	2
136	137	3
53	55	1
197	197	15
88	88	12
71	73	6
5	6	9
99	101	8
196	196	4
79	79	19
20	20	10
25	26	3
123	125	6
211	212	2
38	58	1
150	150	13
18	151	3
21	21	4
129	130	7
20	188	2
20	29	3
67	68	16
31	49	10
17	18	12
115	127	5
17	17	12
168	168	19
117	120	3
27	27	19
139	139	3
14	14	17
103	149	5
196	197	2
63	66	2
11	137	5
136	136	13
6	18	4
135	135	13
217	217	18
113	113	8
9	30	3
64	69	1
227	228	3
19	21	4
84	84	18
20	39	6
134	165	2
137	137	18
74	167	2
33	45	2
226	227	11
36	37	8
39	45	4
10	10	7
20	61	1
103	104	7
52	58	2
139	160	1
80	98	2
27	28	2
24	25	12
67	67	4
25	37	6
8	8	9
52	55	3
6	23	2
39	39	26
15	17	3
118	119	7
0	199	5
76	80	4
32	32	11
175	189	4
236	237	5
157	157	3
98	104	5
0	49	3
121	129	3
70	101	1
83	83	17
119	119	4
0	3	2
66	68	5
142	143	4
3	29	2
233	233	3
37	37	17
34	118	1
35	48	5
48	55	1
44	44	6
3	147	2
191	227	2
201	201	14
122	129	3
224	224	12
63	63	3
15	34	5
112	112	5
115	115	11
194	194	7
44	45	4
70	71	5
115	125	1
180	180	10
21	33	8
237	237	8
28	28	15
134	143	1
57	57	11
69	70	7
169	169	13
192	192	4
31	32	3
28	145	9
73	73	10
77	77	5
24	24	9
78	78	17
49	49	18
104	105	1
15	15	10
186	188	4
16	17	4
214	216	2
159	173	2
178	191	4
188	190	1
5	16	9
146	146	5
240	240	10
183	184	2
18	18	10
26	37	2
144	146	2
0	8	4
46	46	12
186	187	4
82	82	11
131	131	3
127	127	10
102	102	14
23	187	1
6	14	6
178	189	4
225	225	15
140	143	11
152	170	1
139	142	4
184	220	4
220	234	1
231	231	17
29	29	14
100	101	1
51	52	8
38	38	5
180	181	3
130	130	1
40	40	9
12	13	6
14	21	1
175	179	6
203	203	4
76	77	3
115	116	5
164	192	7
173	173	16
22	22	15
68	68	14
33	74	1
63	76	5
42	42	16
104	104	12
91	123	5
214	215	4
204	212	3
211	213	4
85	111	3
13	14	5
96	97	2
2	66	3
30	39	9
143	143	9
34	34	4
68	69	2
19	23	4
184	184	9
173	174	3
167	167	9
71	71	15
10	11	5
3	3	10
4	4	9
141	143	1
143	145	4
205	206	2
98	100	4
208	208	3
179	215	3
60	61	3
20	190	3
71	98	2
179	179	4
2	14	2
0	7	2
81	82	3
95	148	2
81	139	2
6	16	1
51	51	6
71	72	5
77	80	1
214	218	3
222	222	4
156	156	8
209	210	1
82	84	4
18	55	2
228	228	5
50	78	1
0	13	1
5	13	2
15	19	4
42	159	2
217	218	5
200	240	1
86	118	4
233	236	3
169	170	6
35	35	5
224	225	1
0	0	7
76	136	4
31	79	2
158	163	5
52	52	10
79	81	1
27	73	1
120	149	3
43	43	5
162	198	2
2	2	10
190	219	2
241	242	4
136	138	2
2	3	7
171	171	5
68	130	2
188	188	6
42	69	2
164	164	12
171	184	2
65	66	8
17	29	3
96	96	1
152	171	2
195	195	6
231	232	1
7	8	7
202	202	7
204	204	11
183	183	5
108	109	7
107	126	4
157	175	1
84	103	1
36	64	2
11	11	14
99	99	13
33	33	13
11	14	4
165	191	2
86	86	13
6	7	9
163	167	4
35	36	2
170	171	1
235	238	2
76	76	3
17	43	1
242	242	6
187	187	4
229	229	5
83	143	2
176	179	4
80	84	6
90	114	2
148	149	2
10	25	3
84	97	2
104	125	2
75	95	2
12	15	2
176	186	1
25	151	2
2	21	1
2	36	6
55	57	2
77	78	7
66	66	3
99	116	4
25	25	12
0	9	5
174	182	6
78	79	5
16	21	1
4	7	3
184	185	3
72	72	7
133	134	4
199	217	5
158	158	10
54	55	3
125	155	5
226	226	6
145	155	2
43	170	1
127	130	2
6	8	2
186	186	4
132	132	7
1	18	1
133	133	8
210	216	5
148	152	4
181	181	5
116	118	2
10	197	1
46	47	6
20	57	2
86	87	2
205	205	4
153	156	2
240	242	2
2	19	7
56	56	2
19	30	2
51	53	6
81	84	4
227	227	13
37	53	1
207	207	5
54	146	3
95	96	1
179	184	3
80	118	2
179	202	3
220	223	4
29	230	1
206	209	3
50	53	3
81	81	8
123	124	8
62	62	5
174	174	2
34	50	2
206	207	2
220	220	4
59	60	8
194	197	1
59	81	1
155	155	2
193	194	1
98	128	2
34	35	3
139	161	1
42	234	1
224	228	1
183	185	2
64	65	8
77	79	1
75	148	3
145	152	2
11	12	5
210	210	3
144	144	7
55	56	2
175	176	2
62	63	2
124	124	1
135	136	3
109	109	2
138	138	9
104	106	2
106	109	2
101	102	4
109	138	2
214	214	3
149	150	2
158	171	3
197	201	1
24	151	5
115	120	2
119	131	2
18	21	2
50	50	7
71	114	1
73	74	2
65	68	5
10	13	3
202	203	3
18	22	5
24	36	1
151	151	6
76	79	2
189	192	3
10	129	2
69	69	9
236	236	6
85	98	3
6	51	2
23	186	2
154	155	3
81	85	3
176	189	4
40	51	3
47	64	2
227	236	2
21	186	3
0	1	4
95	95	1
212	213	3
103	118	2
127	128	2
40	41	1
28	46	3
147	160	3
181	184	2
52	56	5
39	62	4
13	17	2
177	177	4
146	147	2
175	226	2
230	230	5
32	33	1
228	232	2
203	208	1
108	108	3
223	223	3
213	214	2
37	44	1
213	213	3
177	190	1
24	133	1
21	24	2
118	118	4
229	231	2
138	139	1
5	166	3
4	6	5
40	50	4
117	117	3
100	107	3
233	234	5
89	101	2
211	211	4
234	237	4
212	212	10
47	54	1
33	35	2
22	41	1
147	200	7
122	130	1
191	238	3
162	164	2
52	105	2
0	44	2
11	18	3
110	145	1
111	190	3
31	143	4
13	16	3
167	169	4
145	148	3
75	78	3
116	116	3
38	51	1
18	25	3
168	196	1
23	56	2
25	131	2
74	173	1
167	168	2
124	147	3
132	135	1
126	126	3
8	30	1
80	100	1
20	21	3
169	196	2
26	26	4
12	14	1
126	129	4
194	195	2
33	224	1
198	198	2
80	104	2
121	122	1
66	67	4
185	186	4
18	19	4
158	169	3
75	98	7
198	200	1
123	126	1
203	204	1
24	131	1
4	5	3
129	131	2
49	50	1
174	175	4
75	76	3
175	203	5
58	59	1
9	160	1
190	191	1
192	193	1
2	4	6
190	194	1
39	42	1
179	180	3
79	104	2
84	101	3
24	203	1
153	157	5
201	202	2
176	176	2
191	191	7
215	216	1
218	234	1
147	149	1
7	19	3
175	178	2
165	167	1
110	137	2
116	123	2
234	235	2
160	162	2
228	230	1
115	119	2
8	49	1
7	14	1
7	50	3
147	148	2
5	156	1
171	183	1
95	105	2
194	201	2
80	91	2
177	178	1
159	160	2
3	13	2
169	186	4
3	7	2
144	147	4
189	190	1
28	157	1
16	49	2
25	29	1
83	140	1
9	10	2
53	56	2
12	31	1
43	72	1
14	60	2
219	227	1
197	198	2
3	6	4
127	147	2
70	178	1
72	76	1
19	20	3
46	151	3
2	48	2
33	34	1
102	103	2
88	139	2
3	59	3
42	47	2
165	166	1
178	218	1
40	237	1
24	32	3
126	127	3
80	81	1
171	181	1
80	99	1
37	38	8
170	170	3
160	161	1
137	140	1
105	112	3
178	205	1
68	129	1
207	208	2
12	29	1
16	51	1
10	42	2
62	70	1
14	16	1
182	183	2
199	199	4
201	207	1
29	32	2
48	61	1
239	240	1
163	166	3
156	173	1
158	165	2
139	143	1
103	105	1
172	200	2
83	85	1
64	67	1
111	111	1
220	221	1
188	189	2
8	78	1
117	123	2
206	210	1
225	226	1
1	48	1
124	127	2
15	30	1
122	123	1
109	111	1
118	120	1
193	200	1
60	66	1
110	135	2
9	157	1
5	7	1
160	174	1
9	29	1
80	107	1
28	74	2
151	152	1
125	125	2
138	182	1
17	49	1
215	215	2
46	150	1
146	154	1
30	32	1
20	23	1
2	33	1
144	162	1
182	182	2
88	117	1
17	34	1
0	34	1
136	174	1
43	73	1
192	195	2
96	131	1
42	58	1
26	160	1
156	158	1
84	85	1
173	175	1
81	99	1
224	231	1
136	140	1
216	216	1
14	18	1
