51	51	17
46	46	6
94	94	16
56	56	14
50	50	11
61	61	11
46	47	2
71	74	2
88	88	10
79	79	8
42	42	6
34	34	8
92	92	11
70	70	10
70	71	9
91	91	11
101	101	8
93	93	19
60	61	4
100	100	9
77	77	11
93	94	2
94	95	3
29	29	8
89	89	23
52	92	2
67	67	31
87	88	10
95	97	7
72	72	7
49	49	7
52	52	13
76	76	12
65	65	7
85	85	17
90	91	2
59	59	6
64	64	16
71	71	7
62	62	7
41	41	10
89	97	7
87	87	6
47	47	8
73	74	4
48	48	21
23	56	2
90	90	15
24	24	10
97	98	9
34	35	3
63	63	13
78	78	9
25	26	5
95	95	8
74	85	3
91	92	5
42	65	1
42	74	1
27	27	2
68	73	4
55	55	5
53	54	4
40	40	10
58	59	1
33	33	9
31	31	12
74	74	6
34	39	2
51	52	5
43	43	5
75	75	5
53	53	19
95	96	4
44	63	1
65	78	2
26	27	1
48	49	3
51	55	2
76	77	2
67	68	10
44	44	13
24	25	4
42	43	7
80	83	1
85	101	2
60	60	14
68	68	5
85	86	1
52	53	3
81	81	1
63	89	1
72	74	2
55	83	3
37	38	5
41	42	5
99	99	9
23	24	5
26	26	8
97	97	3
83	83	1
54	55	3
57	68	1
78	79	1
73	73	11
35	35	7
82	82	4
65	66	2
61	62	3
86	86	16
86	89	3
57	58	2
46	48	2
58	58	6
45	46	4
98	98	4
84	84	1
52	60	3
36	37	2
56	57	4
57	57	9
57	80	2
43	51	1
67	74	3
25	25	1
35	36	1
89	90	1
66	66	5
55	86	3
81	82	2
61	63	1
64	78	1
69	70	2
32	32	2
80	80	7
88	89	6
45	45	4
74	78	3
65	76	1
58	60	1
89	101	1
33	34	1
62	63	2
63	99	2
33	76	2
95	98	3
55	60	1
80	81	1
64	99	2
86	87	1
67	76	1
83	85	1
31	32	3
81	96	3
100	101	2
79	96	1
76	83	1
50	51	1
48	50	1
101	102	5
79	80	3
57	59	2
44	76	2
39	39	3
96	97	2
99	100	1
25	53	1
44	64	1
72	73	1
38	38	6
62	100	1
29	30	3
35	51	1
98	99	1
40	64	2
49	50	2
41	44	2
56	64	2
54	54	2
93	95	2
62	64	3
96	96	1
69	69	3
92	93	1
81	86	1
55	56	2
73	76	1
37	37	1
61	86	1
44	50	1
79	88	2
22	23	1
50	59	1
20	22	1
22	34	1
75	90	1
