102	112	1
10	10	9
20	20	4
119	129	2
36	36	13
18	18	14
136	137	6
29	29	15
141	142	3
83	83	13
17	18	8
105	105	6
139	139	17
125	125	5
71	71	16
93	93	18
98	98	22
124	124	7
54	56	4
40	70	6
39	51	3
25	25	9
78	78	9
93	95	1
81	82	11
54	54	17
86	86	7
92	92	12
118	118	14
88	93	2
17	17	16
72	79	1
88	88	5
7	9	2
118	145	6
15	37	6
122	122	8
76	76	5
41	41	18
65	65	6
23	23	21
35	36	6
5	5	13
131	131	9
145	147	1
117	145	1
149	149	7
20	22	3
153	153	8
65	68	5
19	19	15
4	7	2
96	99	2
75	78	3
66	67	5
64	66	7
81	81	12
69	69	6
50	57	1
127	127	8
97	97	8
36	113	1
55	95	2
99	100	2
77	77	7
22	22	18
9	9	12
86	93	2
78	79	1
21	21	10
110	114	2
45	45	15
105	110	4
70	71	3
47	47	23
119	119	4
79	79	8
37	39	2
50	50	6
63	63	9
108	108	7
110	113	2
30	31	6
41	46	6
116	116	2
10	28	4
4	4	10
77	78	9
24	25	5
8	8	12
35	35	14
117	117	5
24	24	18
135	135	9
121	121	12
141	141	9
16	16	30
139	140	3
25	30	1
53	53	10
63	115	2
71	73	6
38	63	1
46	47	4
141	144	1
120	120	4
45	48	3
116	117	4
106	106	5
95	95	7
30	36	3
152	152	3
11	11	11
64	64	12
47	49	5
8	9	4
131	136	2
150	150	8
85	86	3
42	42	9
39	39	13
27	27	15
49	50	9
143	145	1
30	32	2
32	33	6
12	12	11
107	107	3
34	34	9
99	99	10
25	26	11
95	96	8
52	52	4
74	74	4
57	73	2
133	134	8
6	6	18
43	43	7
9	20	3
70	70	22
144	146	4
18	19	6
134	147	2
9	10	3
7	8	3
33	33	16
104	126	4
96	96	4
74	75	3
56	74	4
103	110	2
30	30	13
109	109	10
39	40	6
154	154	10
18	115	3
123	125	2
57	57	11
108	109	3
34	35	5
13	13	7
134	134	5
72	72	4
120	132	2
82	84	1
49	54	1
14	14	16
67	70	1
129	129	9
67	68	7
11	27	1
22	23	5
78	94	2
104	110	4
83	93	2
40	42	3
111	111	5
11	12	7
30	37	1
39	47	5
34	36	6
46	46	12
13	15	4
146	146	7
144	144	10
31	31	15
21	22	2
124	146	4
112	112	3
28	28	8
129	133	3
49	49	7
110	111	6
32	94	1
7	56	2
82	82	9
87	87	14
4	5	2
11	20	1
48	50	3
83	86	2
67	67	12
138	139	7
102	106	2
136	145	1
128	130	6
40	40	11
75	76	4
32	32	10
47	48	3
76	78	2
6	7	4
72	73	3
97	98	6
75	83	4
152	153	6
80	98	1
26	27	6
147	147	7
26	39	1
27	28	5
108	117	1
38	41	1
5	6	10
44	44	13
98	100	3
14	16	1
85	85	9
145	145	15
79	94	1
53	54	3
6	9	2
37	38	3
68	69	3
100	100	7
4	6	2
7	7	10
111	115	1
55	55	9
130	130	9
120	121	1
45	46	11
99	101	1
62	62	6
16	27	2
68	68	7
31	35	1
114	114	2
138	138	9
128	129	5
41	43	2
78	82	6
8	10	4
13	18	3
7	21	2
53	55	1
61	61	3
70	151	1
136	136	4
109	120	1
103	104	2
58	62	1
82	85	1
56	56	10
38	39	3
139	149	3
26	26	8
130	131	2
74	81	3
66	66	11
73	73	8
40	41	5
62	63	2
23	24	2
21	26	4
96	97	2
55	58	1
139	142	3
42	43	4
86	92	1
73	74	6
81	85	2
137	141	2
50	56	2
2	22	4
38	43	4
101	101	6
110	110	2
144	145	5
104	104	9
9	19	1
113	113	4
3	8	1
53	70	2
19	20	4
127	128	3
106	107	3
37	37	10
52	54	3
147	148	5
124	144	2
5	21	2
75	80	2
151	151	2
44	106	2
89	98	1
33	34	7
66	85	1
104	115	3
76	77	3
115	116	3
79	83	4
133	133	3
150	151	3
29	30	4
31	37	1
81	84	3
31	32	4
124	145	1
12	13	3
137	137	14
22	128	2
104	106	3
97	99	2
132	133	3
80	81	6
94	98	1
50	53	2
15	15	4
145	146	2
44	45	2
65	122	2
40	49	1
108	114	3
135	136	2
41	42	1
31	42	7
74	77	1
127	129	1
105	111	4
94	94	4
38	38	7
108	112	1
30	38	2
40	63	1
142	145	1
34	98	1
12	14	6
110	121	2
8	20	1
123	123	4
63	67	2
14	15	2
106	116	2
39	41	3
15	30	7
69	70	3
86	88	2
85	87	1
77	82	2
148	148	7
94	97	1
77	79	2
76	80	3
13	37	1
44	47	2
34	99	1
64	70	2
53	56	2
102	102	2
4	8	1
128	128	2
133	135	1
41	52	1
63	79	3
122	123	3
107	114	2
126	126	3
10	11	1
80	97	1
9	18	1
29	33	2
87	93	3
74	117	2
80	80	2
67	83	1
92	93	3
22	24	2
110	122	1
117	123	1
102	110	3
132	134	3
65	66	5
53	99	2
142	143	2
54	62	1
142	142	4
100	105	1
5	10	1
48	48	6
112	114	1
90	90	2
149	150	2
115	126	1
122	136	1
78	97	3
51	71	1
74	76	2
138	149	2
12	28	1
8	21	1
111	112	6
17	19	1
51	56	1
119	122	2
129	136	2
93	97	1
33	36	1
123	138	1
103	114	1
75	85	1
40	96	2
64	69	1
13	14	1
109	114	2
134	135	1
153	154	1
132	132	3
146	147	5
7	100	1
130	132	3
87	88	5
64	68	1
34	37	2
15	16	1
51	57	1
57	74	2
46	49	1
64	65	3
32	36	1
128	136	5
129	130	1
106	108	1
118	126	1
99	102	2
96	98	3
38	40	1
42	44	1
37	100	1
75	75	1
68	74	2
98	102	3
85	99	1
105	112	1
4	17	1
104	135	1
66	80	1
29	51	1
48	49	1
148	149	2
3	3	1
62	116	2
55	56	3
6	12	1
65	86	1
99	103	1
117	118	1
38	100	1
78	80	1
47	51	1
62	76	1
36	107	1
105	106	1
13	21	1
125	127	1
126	136	1
106	126	2
122	137	1
10	13	1
98	99	2
124	125	2
51	51	1
66	79	1
84	84	5
113	114	1
84	85	5
78	83	3
58	63	1
78	96	1
7	22	1
105	120	1
20	26	1
68	75	1
133	149	1
5	8	1
64	82	2
13	22	1
117	126	2
143	143	2
30	33	2
41	44	1
3	4	2
64	67	2
35	40	2
69	73	1
91	91	2
44	46	2
87	90	1
77	96	2
86	87	1
58	58	2
84	92	2
80	82	1
62	65	1
29	36	1
13	28	2
17	21	1
131	132	2
12	26	1
43	44	3
16	17	1
81	83	1
33	37	2
95	97	1
5	12	2
109	113	1
28	36	1
100	119	1
118	124	1
28	66	1
104	107	2
14	31	1
84	86	1
82	83	1
24	114	2
40	47	1
14	29	1
35	54	2
42	50	1
107	108	1
38	42	1
74	78	1
127	136	1
140	140	1
35	55	1
43	51	2
139	154	1
32	38	1
6	8	1
106	112	1
107	113	1
84	94	1
121	122	1
103	120	1
54	108	1
3	45	1
118	144	1
125	126	1
48	54	1
23	104	1
102	104	1
134	136	1
109	115	1
104	111	1
42	49	1
29	45	1
3	5	1
31	33	1
50	54	1
115	115	1
72	75	1
65	83	1
91	92	1
63	78	1
50	55	1
