64	64	21
72	72	23
19	19	7
46	46	18
10	10	16
69	69	27
45	45	16
40	40	16
27	27	13
52	52	7
11	11	5
53	53	10
77	77	12
29	30	4
38	38	29
70	70	9
66	66	14
42	42	22
9	9	31
40	41	3
60	60	7
59	59	19
62	62	8
55	56	3
64	65	4
68	70	4
6	6	18
34	34	13
74	75	4
30	35	4
5	6	6
75	77	6
38	39	2
4	4	24
2	2	31
73	73	18
26	26	17
74	74	14
49	52	2
17	27	1
2	9	1
37	37	20
78	78	20
13	13	7
0	0	18
65	66	1
55	55	27
28	28	17
3	3	14
1	1	22
6	7	6
5	5	14
76	76	28
16	16	12
58	59	11
43	78	6
65	65	10
47	78	2
36	36	11
14	15	7
44	46	1
8	8	19
58	58	17
19	20	2
48	48	26
49	49	8
21	25	2
57	58	5
47	75	3
43	43	6
25	25	3
27	28	25
67	69	3
41	42	1
7	8	5
57	57	19
19	48	1
12	15	6
63	63	24
53	54	8
39	39	29
31	31	15
22	22	3
42	43	5
17	17	15
49	50	5
68	68	11
41	41	11
80	81	4
54	54	30
51	51	5
60	61	15
33	33	17
18	18	6
63	64	6
71	72	3
39	40	4
35	36	5
79	79	17
50	51	5
20	21	2
78	79	2
25	26	6
75	75	11
7	7	16
47	47	18
29	29	10
3	4	14
68	69	3
47	48	1
10	25	5
67	68	9
61	74	1
80	80	22
32	32	8
78	80	3
53	63	2
56	57	5
65	73	1
1	2	9
72	75	3
33	34	2
21	26	2
46	77	2
30	30	6
39	60	5
50	50	3
44	44	5
42	55	1
46	48	2
61	61	10
59	60	4
66	67	5
51	52	4
20	20	6
56	56	9
35	35	8
14	14	5
65	70	1
2	10	3
62	63	2
79	80	4
0	80	4
36	37	2
9	10	6
49	64	7
9	43	1
72	76	4
30	32	3
18	42	5
7	27	2
32	34	6
4	7	3
1	80	4
56	65	1
4	5	2
45	47	3
2	7	2
2	3	1
6	10	2
15	15	6
54	55	5
58	61	4
4	6	2
21	21	5
12	13	1
71	71	6
16	19	1
27	29	1
17	28	2
72	73	2
26	27	3
15	16	5
12	12	5
39	59	1
48	49	5
44	47	1
17	19	2
70	71	1
6	8	2
34	35	2
28	38	2
17	18	1
73	74	3
18	20	1
47	56	1
47	55	5
31	32	2
0	1	1
77	78	1
48	55	2
16	17	2
67	67	1
26	28	1
13	14	1
70	72	1
37	38	3
28	29	3
8	55	1
12	14	3
3	15	1
81	81	3
12	29	1
8	9	2
28	30	1
72	74	1
76	77	1
10	17	1
53	64	1
50	53	1
11	13	1
58	60	2
43	76	1
