83	88	1
82	82	14
74	74	24
81	81	33
22	22	27
85	88	4
78	78	25
33	33	7
29	30	14
31	31	18
48	48	17
62	62	49
76	94	4
89	89	21
29	58	3
54	55	6
55	55	16
77	77	18
95	95	29
21	21	28
84	85	15
73	83	2
49	49	16
106	107	6
27	27	16
76	76	22
50	50	20
21	28	9
56	56	11
101	101	16
66	67	17
76	77	11
45	94	1
51	52	21
78	82	3
47	86	2
46	46	16
92	92	19
29	29	17
89	90	12
87	87	23
40	40	20
93	93	16
85	85	8
38	38	19
24	24	27
71	72	17
56	57	7
102	102	26
83	85	6
64	67	1
67	67	12
53	53	34
74	77	7
72	72	19
43	43	15
86	87	21
76	95	7
57	57	22
52	53	4
73	73	21
62	63	9
51	51	35
59	59	22
57	64	3
89	97	1
32	33	6
80	80	23
61	61	21
37	39	8
84	84	40
85	96	4
20	62	2
47	49	4
103	103	27
61	62	9
42	45	4
64	90	8
39	39	14
98	98	11
88	88	12
40	43	2
70	92	3
86	86	25
25	27	4
42	42	14
67	86	9
92	98	5
68	69	14
83	84	6
93	94	3
69	69	12
35	35	14
91	91	17
26	26	14
66	66	21
94	94	16
21	59	1
21	22	3
63	63	21
45	45	10
71	71	18
25	72	4
90	90	14
105	105	13
23	23	25
92	93	3
62	64	2
64	64	33
44	44	16
75	75	23
32	32	9
68	68	29
72	73	13
35	36	5
94	96	2
103	105	2
73	76	2
79	81	13
37	37	13
34	34	28
96	96	12
25	30	4
52	75	2
78	79	20
100	100	17
28	29	7
70	71	8
84	93	8
87	97	4
37	38	3
56	92	1
26	27	5
54	54	18
41	41	11
52	76	3
29	66	2
28	28	17
46	63	1
20	20	25
38	39	6
34	35	7
104	104	13
39	56	2
34	75	3
84	92	4
97	97	9
23	89	4
79	79	21
89	107	2
100	102	4
102	103	10
60	60	22
56	75	2
22	72	2
20	22	5
48	49	13
40	67	3
65	72	2
65	66	8
58	58	12
33	36	3
42	44	17
74	81	4
97	99	2
30	30	13
71	77	8
36	36	12
47	48	5
57	77	3
94	95	2
41	44	5
83	83	15
78	80	7
65	65	18
65	67	3
52	52	15
23	72	4
46	47	4
40	60	3
34	40	6
80	81	3
25	37	3
41	42	4
21	35	2
106	106	18
60	61	5
33	76	5
79	80	3
85	86	3
55	56	3
67	69	4
78	88	4
99	99	15
56	61	4
77	96	1
64	95	3
54	90	4
69	70	7
47	47	9
57	58	2
70	70	14
31	32	2
53	54	12
98	99	21
90	105	2
53	74	3
66	68	3
34	76	1
29	50	2
73	77	1
39	68	1
50	101	1
73	75	6
85	92	1
94	105	5
82	88	6
27	28	10
79	92	2
23	92	2
56	59	4
78	83	2
58	96	2
97	98	2
25	25	10
25	46	1
20	66	3
38	43	1
93	96	1
64	65	4
46	49	3
26	28	2
93	105	5
21	46	1
31	34	1
53	102	2
73	74	4
90	91	3
58	59	7
42	43	7
31	54	2
84	86	2
95	96	4
31	61	2
30	46	5
45	68	2
31	35	4
43	45	1
57	95	1
92	99	3
80	93	1
69	78	5
42	68	5
50	51	2
23	102	5
20	46	1
21	62	1
25	26	1
61	63	4
24	55	2
24	26	3
76	90	1
82	86	1
21	66	6
61	64	6
20	30	2
22	29	2
41	43	3
33	71	1
36	37	3
83	96	4
100	101	3
74	100	1
33	72	2
31	36	2
58	60	6
31	55	2
53	73	1
58	92	2
101	102	6
23	24	15
82	83	6
70	87	2
22	30	2
27	29	1
36	51	4
69	80	2
56	99	2
54	82	2
28	34	3
25	29	2
39	58	2
91	97	1
20	25	3
36	50	1
22	23	4
40	41	1
24	25	2
79	95	1
84	96	1
87	88	6
91	92	5
33	34	3
58	61	1
72	87	1
46	50	4
39	49	2
33	41	1
33	77	1
41	57	2
58	89	1
38	47	1
45	71	3
76	92	1
39	45	2
56	58	5
72	75	1
44	45	1
45	70	3
52	77	1
61	91	2
44	56	2
57	66	2
42	46	3
67	68	1
41	58	1
58	79	1
37	45	2
24	27	1
55	58	1
20	26	2
57	94	2
68	80	1
32	34	1
63	64	1
88	97	3
74	75	1
70	72	2
21	30	2
31	40	2
83	87	1
52	104	1
59	68	1
70	88	2
43	44	3
50	65	1
60	65	2
76	78	1
31	73	1
87	96	1
82	85	1
31	74	1
55	74	1
59	60	2
39	44	2
35	65	1
76	79	1
83	89	2
81	84	2
49	66	2
85	87	3
23	71	2
26	50	1
45	47	1
60	66	2
55	100	1
65	68	1
79	91	2
45	46	1
53	92	1
47	93	1
72	104	1
20	21	1
50	54	1
78	92	1
45	93	2
55	89	1
90	97	1
97	106	1
28	30	2
65	89	1
20	61	2
53	78	2
50	61	1
36	39	1
86	96	1
64	76	1
25	45	2
30	41	1
86	88	1
42	57	1
50	100	1
49	50	1
71	74	1
22	25	1
29	49	1
26	61	1
25	62	1
99	100	1
25	81	1
