28	28	9
17	17	18
93	93	13
45	45	23
49	91	8
98	100	3
32	32	13
119	121	1
117	117	9
105	105	7
116	116	10
81	81	7
6	7	6
86	86	11
101	101	7
76	76	19
33	36	3
45	62	2
63	63	27
82	83	8
37	37	5
95	103	5
122	122	10
10	10	7
72	73	6
21	21	9
107	116	2
5	6	7
134	134	5
37	38	3
22	22	3
16	26	3
121	122	4
67	67	9
103	103	14
35	35	13
44	45	2
46	47	6
62	74	2
29	29	26
66	72	1
65	67	3
4	4	15
19	20	7
74	75	5
113	113	11
73	73	15
90	90	8
29	30	5
47	48	1
31	31	13
61	63	2
109	109	5
21	36	3
58	59	6
17	125	2
44	55	2
26	83	1
65	66	3
64	64	11
75	75	15
12	12	20
13	13	5
98	98	7
114	114	2
43	43	6
101	102	5
25	48	5
65	65	20
3	3	11
26	47	3
7	48	2
130	130	7
97	97	4
9	10	7
128	130	2
80	80	4
11	11	22
65	68	6
107	117	2
64	65	1
49	50	3
31	57	5
26	26	24
69	69	12
77	77	5
40	41	5
78	79	4
66	69	4
99	99	10
125	125	2
75	76	3
104	104	4
11	75	2
107	107	7
20	20	10
7	7	12
34	34	19
47	47	23
70	71	7
58	58	14
118	118	9
21	22	4
110	111	10
59	59	12
23	23	10
27	27	13
47	89	2
56	72	1
68	68	13
14	15	3
61	61	8
70	76	2
62	62	19
83	84	5
108	108	11
42	42	13
30	60	2
19	102	2
11	27	2
9	9	5
113	117	1
38	38	2
86	87	5
0	2	1
66	83	4
36	36	8
67	68	7
32	59	1
46	46	25
39	81	2
34	35	5
18	43	6
118	119	1
10	11	10
48	49	1
94	94	23
82	84	3
16	16	6
27	35	2
41	41	7
12	13	11
28	29	2
48	96	4
60	60	14
74	74	7
40	57	1
19	19	15
18	28	1
33	34	5
41	56	2
38	81	3
71	71	8
125	126	5
45	75	2
72	72	15
112	118	2
57	57	6
62	63	7
128	128	3
73	74	4
112	113	5
87	88	5
102	102	3
44	44	4
29	94	2
28	80	2
61	62	1
85	86	1
123	124	4
70	75	5
57	80	1
82	82	5
25	25	7
81	82	3
42	43	4
123	123	11
14	14	10
111	119	3
4	94	6
132	132	11
113	114	2
62	69	6
32	33	6
60	61	1
13	14	6
96	97	3
26	29	2
107	124	2
3	47	1
43	57	2
40	40	4
112	112	3
109	120	2
84	84	3
3	4	4
110	110	8
40	84	2
93	99	2
111	113	1
106	106	6
111	111	8
15	16	7
66	66	12
35	100	2
119	119	6
1	1	9
128	129	4
34	74	2
2	2	8
47	91	4
11	45	4
29	31	3
71	73	3
44	60	3
131	132	6
8	10	1
47	111	1
23	26	3
15	15	2
45	74	2
8	9	7
30	92	2
77	78	2
66	68	2
63	64	8
20	21	3
126	126	5
96	98	4
121	121	4
87	87	5
120	120	5
116	117	3
55	55	5
133	133	4
36	60	5
79	79	3
35	36	4
93	98	3
39	40	1
61	74	1
8	8	10
8	95	3
85	85	5
33	33	22
104	108	1
26	28	5
4	6	2
27	28	4
55	92	1
30	30	4
105	106	2
100	100	1
107	108	1
82	95	1
45	65	2
33	65	4
6	6	3
98	99	4
92	92	11
28	95	1
15	94	3
129	129	7
37	41	2
120	122	3
17	18	3
28	94	2
13	16	1
131	131	3
69	72	4
70	77	2
23	74	2
48	48	10
51	56	2
55	56	1
5	5	1
16	27	1
83	85	1
130	131	2
5	7	1
11	73	1
96	96	7
18	18	4
92	93	6
48	50	1
3	9	2
28	79	6
29	95	4
94	95	3
35	74	3
91	91	3
6	88	2
73	83	3
34	77	2
26	27	2
89	89	3
111	112	1
27	29	3
100	101	3
41	42	8
37	98	5
25	26	4
95	95	4
38	43	2
25	75	2
34	36	1
40	42	4
124	124	3
82	85	2
113	116	1
6	87	1
105	129	2
74	82	2
114	117	2
21	58	2
10	13	2
13	98	4
9	77	1
3	44	1
93	94	3
18	45	1
103	104	2
23	24	2
33	35	4
28	34	3
97	98	2
133	134	2
95	96	3
12	45	1
119	120	4
20	62	1
6	45	2
111	120	1
47	113	2
109	124	1
99	100	1
7	12	2
26	94	1
25	27	2
115	116	3
56	56	1
102	103	3
8	29	1
83	83	2
8	14	2
24	24	1
94	101	2
61	76	1
30	31	1
35	77	3
78	78	3
18	22	1
90	91	4
19	28	1
70	70	2
27	96	1
46	61	1
66	67	2
27	67	2
57	58	4
91	97	1
50	54	1
27	93	1
11	62	1
44	61	1
122	123	1
12	98	1
58	75	1
8	32	1
39	39	1
76	82	2
31	32	2
35	80	1
94	98	1
111	117	1
45	64	1
50	58	1
38	56	2
34	73	1
104	105	1
20	99	1
18	19	1
60	76	1
24	79	1
69	74	1
11	25	1
73	77	1
48	83	1
24	26	1
63	108	1
63	75	1
120	121	1
50	81	1
126	128	1
33	79	1
12	14	1
10	98	1
109	112	1
49	100	1
