123	124	1
81	81	7
53	53	15
54	54	5
112	112	7
114	114	3
12	12	15
16	17	4
16	16	2
30	30	6
93	93	8
82	86	4
76	77	2
90	96	2
96	96	8
11	15	1
79	79	4
27	69	4
50	50	9
56	56	5
25	25	5
122	122	6
2	3	2
53	109	3
132	133	1
108	109	4
12	13	1
76	76	4
129	129	3
46	48	4
42	42	6
40	45	1
71	71	9
8	9	2
81	82	3
110	110	14
74	88	2
128	129	7
52	52	10
118	122	1
91	92	3
45	45	8
106	106	4
2	117	1
82	133	5
32	86	2
83	85	4
47	47	4
3	4	4
11	11	2
121	121	8
75	75	11
113	124	4
44	112	1
46	46	7
39	78	2
14	14	4
23	24	5
63	63	10
39	39	12
100	100	2
125	125	1
92	92	2
69	69	7
113	113	2
108	108	14
125	126	7
77	77	10
53	58	1
101	108	2
129	130	2
59	59	6
108	130	1
4	4	4
66	66	8
44	44	1
49	49	3
3	97	4
13	14	1
67	67	3
5	5	2
86	86	4
118	118	9
1	1	6
130	130	3
15	19	1
12	39	2
17	17	5
27	32	3
86	88	4
12	16	1
40	117	3
100	102	2
60	123	5
114	127	2
69	132	2
123	123	8
90	90	6
32	56	1
6	7	2
18	21	3
7	7	4
27	27	2
82	88	6
126	130	2
95	95	5
64	65	3
106	107	2
53	110	2
43	70	5
34	34	7
20	20	4
105	106	1
99	99	2
133	133	5
119	119	2
109	109	5
56	133	1
73	74	8
120	120	5
102	104	4
60	60	1
32	85	1
114	115	1
97	99	1
14	77	5
22	22	3
103	103	4
132	132	5
3	3	4
85	85	2
55	56	1
41	41	1
80	80	2
46	93	4
94	95	2
62	62	2
33	66	2
34	115	2
45	75	1
89	90	5
0	0	4
107	107	9
51	51	3
48	49	2
6	91	1
75	92	5
34	119	2
48	48	5
34	60	1
31	32	1
78	78	6
18	47	1
26	105	2
7	18	1
101	103	1
64	64	5
46	47	4
89	89	5
10	10	3
84	85	5
56	57	3
6	6	4
57	57	2
43	43	3
45	58	1
57	58	1
98	98	2
127	128	3
90	99	4
9	9	3
117	117	4
92	96	1
19	19	3
73	75	2
87	87	2
101	101	5
105	109	1
54	112	1
1	48	4
5	119	2
64	74	1
103	108	4
49	110	2
86	87	2
71	72	3
104	104	1
29	31	1
105	108	1
109	110	2
29	29	3
18	78	2
96	109	1
113	114	3
124	125	3
68	68	2
107	108	2
86	107	2
76	101	2
33	68	1
100	128	1
115	115	2
27	65	1
59	61	1
72	102	2
22	23	2
74	78	1
37	74	1
88	88	6
100	101	2
116	133	4
48	52	1
66	78	1
19	22	2
85	120	1
100	129	2
97	97	3
94	94	3
127	127	7
105	125	1
26	27	1
20	92	4
61	61	2
20	26	2
129	132	1
85	89	2
34	99	1
39	42	1
60	62	1
102	103	1
102	102	2
4	126	1
98	99	1
74	75	2
96	124	2
80	95	2
42	79	1
14	18	1
116	116	1
103	104	1
29	32	1
23	23	1
41	67	1
126	128	1
43	88	2
113	125	1
55	55	3
13	77	2
118	120	1
2	2	4
24	24	3
70	70	1
44	69	1
90	91	1
105	105	2
124	124	4
24	25	2
60	63	2
14	21	1
72	72	4
5	132	2
54	57	1
98	102	2
38	72	1
47	50	1
7	11	1
74	74	2
40	82	1
65	69	1
31	31	3
15	15	1
30	54	1
30	69	4
32	33	1
62	64	1
58	66	1
83	84	2
72	113	1
128	128	1
75	78	1
44	103	1
114	126	1
26	96	1
59	64	1
61	62	1
10	11	1
100	113	1
117	123	1
21	21	1
97	126	1
18	19	1
72	88	1
131	131	1
112	113	1
45	77	1
50	51	1
38	38	1
14	17	1
