98	98	17
100	100	10
148	152	4
9	9	8
38	41	1
20	20	10
120	123	2
40	41	3
48	48	14
88	88	3
52	52	7
143	143	3
82	91	2
97	97	8
30	47	3
65	65	2
78	78	6
120	120	5
0	0	5
13	53	1
64	65	1
135	143	3
97	98	3
135	135	12
73	73	10
76	77	4
91	135	2
11	12	3
37	37	16
124	125	6
67	68	11
62	68	5
70	70	4
5	150	3
51	54	4
101	101	2
2	3	4
82	122	2
5	149	6
68	69	6
149	150	3
75	77	2
105	105	3
24	24	5
128	128	16
143	144	3
42	42	7
116	138	3
136	136	2
110	111	4
130	130	4
95	96	4
103	156	1
145	145	8
32	32	4
43	43	12
93	104	1
113	132	2
131	131	8
90	91	6
28	28	10
33	33	8
50	50	7
66	78	1
131	132	7
30	46	1
81	82	1
146	146	10
118	119	2
126	142	3
3	25	3
4	150	4
116	116	9
34	34	3
140	142	2
106	106	2
46	54	1
151	151	13
128	129	2
46	46	6
84	86	5
155	155	6
63	63	3
39	39	5
154	155	4
109	109	1
154	154	5
152	152	3
156	156	7
54	54	9
119	119	9
123	124	5
13	13	3
99	99	6
94	96	3
147	147	9
152	153	1
125	125	15
4	4	7
117	144	1
51	51	3
17	20	1
34	52	5
103	153	3
80	80	3
132	132	4
5	96	1
127	145	1
21	51	1
141	144	2
142	142	6
33	34	1
19	19	1
110	110	4
66	66	2
65	66	2
101	102	1
27	27	4
133	133	4
49	49	7
141	141	7
87	87	7
2	2	5
119	120	1
67	69	4
140	140	7
91	91	8
70	71	3
94	94	4
44	44	10
112	112	6
5	5	5
139	157	3
45	49	2
31	31	9
149	157	2
64	64	3
17	21	1
41	43	6
39	40	1
67	67	10
108	108	3
16	16	4
92	92	5
25	25	10
104	112	3
84	85	3
47	47	4
26	27	7
94	148	2
3	96	1
139	151	1
85	86	3
41	41	9
20	57	2
114	114	16
10	10	2
118	118	9
64	128	2
89	127	3
78	84	1
104	105	2
40	40	5
7	8	3
66	140	4
113	115	3
103	103	8
55	134	1
62	69	4
93	93	3
76	76	5
55	136	2
111	111	6
104	104	11
124	124	10
136	141	3
102	102	8
30	30	10
117	119	3
53	53	9
87	140	2
126	136	2
71	71	4
90	92	1
88	89	1
16	18	4
107	107	6
41	42	2
23	23	4
77	93	1
8	9	4
50	51	2
86	86	7
6	41	5
126	126	1
85	85	3
11	32	1
86	132	3
50	65	2
54	136	1
8	8	5
126	137	2
21	27	1
81	81	4
8	21	2
7	12	2
116	133	2
111	138	3
11	37	1
4	42	1
125	127	7
0	2	1
105	106	6
19	38	1
112	114	1
122	122	11
69	79	2
72	149	2
115	115	2
73	100	4
67	154	2
129	129	3
18	30	5
131	156	1
100	102	1
16	21	1
50	57	1
115	144	2
142	143	2
134	134	7
27	28	4
158	158	3
141	142	4
71	79	1
29	42	1
38	39	3
17	29	2
62	70	1
57	57	2
156	157	2
79	121	1
148	148	3
53	54	4
26	28	1
111	133	1
123	123	7
37	42	2
38	151	3
19	20	3
45	47	1
79	79	2
55	55	3
144	145	6
27	104	2
101	103	3
137	137	7
0	3	1
58	62	2
146	147	1
56	56	1
83	83	1
80	81	2
63	64	1
113	113	1
104	106	3
78	79	1
29	43	2
22	22	5
89	90	1
22	23	3
137	138	3
139	139	2
127	127	2
1	1	2
118	146	1
149	149	2
45	45	4
38	45	1
4	43	1
116	148	1
77	77	5
140	150	1
90	90	2
92	94	3
35	35	3
136	137	1
34	38	1
11	11	3
116	117	1
11	29	1
38	49	1
51	97	1
143	145	2
107	147	2
79	81	1
31	39	1
93	110	2
125	126	5
145	155	2
34	53	2
72	81	1
65	73	1
145	146	2
69	136	1
76	78	2
15	18	1
32	36	1
12	13	2
71	72	1
33	38	3
108	109	1
126	127	1
92	138	1
30	105	2
6	6	3
22	31	2
119	155	1
115	138	4
108	111	2
92	135	1
15	15	2
138	138	4
56	70	1
68	106	1
51	53	1
98	99	1
89	89	2
10	32	3
68	68	1
66	77	1
84	84	2
7	7	3
11	34	2
107	127	1
122	124	2
33	54	2
105	114	1
33	46	1
157	157	3
3	40	4
140	141	2
8	36	1
36	37	3
29	29	2
150	151	1
151	152	1
27	31	1
148	150	2
94	95	1
28	30	1
38	38	1
23	25	1
23	24	1
18	19	1
30	94	2
67	78	2
18	18	5
17	17	5
45	54	2
48	52	1
30	43	2
16	56	1
64	71	2
85	88	1
111	117	2
108	112	1
122	123	1
120	124	2
11	36	1
128	130	3
69	69	2
12	12	3
52	54	2
3	97	1
83	85	4
118	147	1
139	155	1
52	53	1
50	54	2
35	36	1
31	43	2
153	154	1
53	56	2
39	44	1
120	143	2
131	134	1
99	100	1
121	123	1
16	17	3
43	44	1
126	155	1
77	124	2
32	33	1
8	12	1
80	120	1
35	103	1
131	153	1
14	15	1
127	129	1
27	35	1
119	146	2
75	75	1
153	153	1
34	45	1
70	78	1
73	74	1
78	121	2
55	137	2
103	143	1
24	123	1
85	133	3
96	97	1
132	133	2
141	147	1
71	150	1
151	157	1
15	20	1
105	123	1
12	55	1
114	115	2
26	26	1
33	53	1
44	45	1
67	70	1
