80	80	11
44	44	3
38	38	18
59	59	14
72	72	6
25	32	4
52	52	10
64	65	3
21	50	3
42	42	22
10	11	6
58	58	13
27	27	13
68	68	12
53	54	6
54	54	16
76	76	8
49	56	3
1	2	9
3	4	2
42	43	8
55	55	8
64	64	15
55	56	6
48	49	5
2	2	7
17	37	5
41	41	17
36	37	1
66	66	30
1	1	16
61	61	14
63	63	19
9	9	23
48	65	2
67	67	18
7	7	21
50	50	7
26	26	13
7	35	2
39	40	2
27	35	4
6	6	28
15	15	11
77	77	17
71	71	5
79	79	4
45	45	15
48	48	12
40	40	9
8	8	12
65	65	12
29	29	6
75	77	3
60	61	5
61	67	4
10	10	3
51	65	5
73	73	12
3	3	12
18	21	1
35	35	20
78	78	8
62	64	4
46	80	3
71	72	9
36	36	6
54	56	7
58	59	12
46	46	16
37	37	7
17	35	5
17	27	4
14	15	3
67	68	2
31	71	3
31	31	3
47	47	11
30	30	9
7	8	1
30	62	3
5	6	8
57	57	13
62	62	7
36	71	6
21	26	1
70	70	7
25	25	4
12	12	9
20	21	3
59	61	2
49	55	2
49	51	3
75	75	19
33	33	14
19	19	4
16	16	5
17	17	7
28	28	5
10	13	4
56	56	4
60	60	3
0	0	12
5	5	7
2	3	4
53	53	12
32	50	4
75	78	3
40	45	1
11	11	3
64	66	2
46	76	1
49	49	19
15	49	5
51	51	6
69	69	8
13	14	4
17	34	4
27	28	4
11	12	7
13	13	2
14	14	12
34	34	5
37	40	2
58	61	2
27	55	2
49	54	2
37	71	2
63	68	4
4	4	6
30	31	4
21	21	1
10	32	6
8	9	1
0	1	3
7	48	1
26	48	1
70	71	6
62	63	1
80	81	3
7	74	3
46	47	4
16	34	1
15	21	4
28	35	1
77	78	1
45	46	3
14	51	2
18	19	7
63	64	4
16	79	1
26	27	2
20	36	3
65	66	3
30	71	2
29	30	4
38	39	5
31	32	1
50	52	1
5	78	1
75	76	2
27	48	1
48	64	2
39	39	6
18	18	2
32	33	3
7	75	1
7	36	1
13	15	1
54	55	1
57	58	3
47	80	3
78	79	2
21	33	1
50	51	3
2	4	1
6	7	2
37	41	2
66	67	5
54	61	2
32	32	2
76	77	3
64	68	1
53	56	1
12	14	2
8	16	1
16	18	2
43	43	2
11	15	1
64	67	1
47	48	1
16	35	1
74	74	4
25	31	1
40	41	2
63	65	4
69	70	1
16	38	1
5	77	1
38	40	1
16	29	1
54	60	1
59	60	2
55	59	1
22	31	1
5	36	1
21	31	1
25	26	1
34	35	1
21	63	1
65	67	1
