68	68	15
12	12	23
46	47	29
90	90	36
106	106	39
13	13	20
88	88	18
66	68	6
67	68	17
17	18	13
41	43	9
19	20	11
90	93	3
105	105	18
111	113	3
2	3	12
112	112	25
95	95	28
115	115	46
20	38	1
87	88	13
93	93	41
14	14	27
54	54	60
131	131	28
77	77	36
63	64	10
27	30	2
6	101	2
50	52	2
55	56	4
89	89	22
11	108	4
38	59	4
7	7	31
14	82	4
55	55	19
125	125	28
126	126	17
76	76	27
60	60	22
33	75	7
11	17	7
109	110	2
97	99	4
99	117	6
101	101	35
67	67	24
46	46	46
108	109	4
121	122	7
29	29	9
25	25	28
9	9	12
127	129	8
124	125	13
98	98	30
133	133	19
113	113	51
57	57	29
96	96	35
42	42	57
1	2	18
1	8	4
30	38	4
53	124	3
60	61	10
94	94	40
52	53	5
130	131	7
66	66	13
71	72	5
101	103	14
38	39	10
44	44	17
19	19	24
91	91	24
119	119	26
4	5	12
45	46	13
22	22	15
18	24	3
103	103	25
30	103	2
121	121	34
49	49	55
75	76	17
30	30	24
69	71	6
107	107	26
72	73	9
15	15	24
53	53	33
14	15	14
83	83	14
100	118	3
50	50	40
28	55	4
91	92	15
40	40	19
129	130	11
45	45	10
100	100	22
110	113	5
64	66	9
3	3	25
109	114	3
4	4	29
13	20	2
127	128	12
69	69	35
39	39	23
21	22	8
75	75	31
24	24	19
29	31	2
92	92	33
116	116	20
49	51	3
120	120	28
92	93	12
72	72	31
65	65	23
31	32	7
84	85	2
40	73	2
85	101	2
1	1	29
68	100	2
29	76	1
56	56	54
10	10	35
30	31	3
95	96	7
109	130	3
41	41	30
114	114	16
2	2	29
2	6	13
5	5	29
16	16	26
58	58	31
93	105	2
12	13	2
11	12	13
78	78	10
15	65	2
58	61	4
86	87	8
71	71	8
32	32	40
81	81	28
110	129	3
103	105	11
20	20	30
111	111	26
62	62	29
82	82	21
104	105	12
17	17	14
47	48	13
32	33	7
90	91	10
48	48	39
64	64	30
24	25	2
39	106	3
130	132	4
6	6	24
109	109	32
126	129	5
122	122	27
41	42	9
70	70	22
3	4	10
87	87	25
89	90	16
102	103	5
27	28	10
124	124	34
13	14	15
47	56	2
33	60	4
108	108	36
108	117	2
108	111	1
34	66	2
78	96	1
47	47	33
59	59	31
105	107	2
24	59	7
58	59	13
80	96	2
20	91	4
104	104	33
38	38	25
85	88	9
107	111	3
21	21	17
56	57	11
51	51	26
51	55	3
26	27	5
79	79	27
21	103	4
43	43	42
34	34	20
84	84	28
14	72	3
0	42	1
27	27	23
83	84	8
25	26	8
112	114	1
13	15	3
29	30	18
70	71	12
77	103	3
75	77	2
33	33	30
56	65	8
27	29	2
19	23	6
120	128	3
0	0	24
97	98	23
100	128	8
57	122	3
22	24	6
49	121	5
105	106	7
53	54	10
65	66	10
19	87	2
57	58	9
127	127	19
45	57	3
85	87	4
126	128	11
111	130	1
26	26	22
66	72	4
17	30	1
66	67	2
22	81	1
25	27	4
48	49	14
23	25	4
63	63	13
43	45	4
124	127	1
0	1	10
110	110	24
99	114	1
9	10	4
126	131	5
31	31	25
123	124	5
120	126	4
16	17	11
123	123	20
129	129	17
85	85	20
6	102	7
20	21	3
50	67	2
11	11	24
80	87	1
114	115	3
101	102	4
42	44	4
23	23	25
95	106	1
74	126	8
50	51	8
17	72	2
80	80	31
85	86	8
28	28	14
6	7	14
115	117	2
22	23	8
41	72	2
93	94	11
99	99	24
117	117	32
102	104	3
68	80	3
80	82	2
97	97	22
73	98	5
74	75	3
51	52	11
17	97	2
130	130	18
43	59	3
16	39	6
99	100	13
59	60	12
1	40	3
128	129	8
33	68	9
45	84	2
117	118	13
40	41	11
118	131	8
22	40	4
109	124	1
54	130	2
3	6	7
10	11	6
24	29	3
0	6	6
99	107	2
58	68	2
118	119	7
61	69	2
51	66	2
8	40	1
90	92	9
98	99	8
60	100	2
81	87	4
85	89	1
61	70	2
46	51	2
131	132	25
112	113	3
38	43	5
132	132	14
66	78	1
23	24	5
73	128	3
125	126	6
109	118	3
53	62	2
101	126	3
47	49	2
47	50	5
33	44	2
102	105	4
47	114	1
42	74	2
18	19	5
44	46	2
1	12	4
42	43	13
18	18	17
89	99	5
71	73	5
118	118	12
51	123	1
73	73	12
32	76	2
79	96	7
7	8	13
86	86	17
107	108	11
43	44	8
88	125	1
102	107	2
7	20	1
94	95	14
46	48	4
61	61	9
73	74	4
65	67	9
2	4	2
65	118	3
48	51	3
16	21	2
82	83	3
68	97	4
102	119	2
2	5	2
74	102	2
42	46	1
14	16	3
15	16	5
119	130	1
15	83	2
78	79	5
82	86	1
15	17	5
73	75	4
62	63	5
46	49	2
16	28	3
79	86	2
106	107	2
103	106	1
82	85	2
10	17	1
120	122	2
74	74	11
72	75	2
111	112	4
20	39	2
47	88	4
52	52	35
77	78	9
4	34	2
122	123	6
74	78	2
81	95	2
76	81	1
27	77	1
12	87	3
62	133	1
56	69	2
88	90	1
51	53	4
46	88	4
125	130	4
33	34	8
44	45	6
119	120	8
47	69	1
107	114	3
55	125	3
16	18	10
18	20	1
5	13	1
114	116	11
91	94	4
4	12	2
17	19	2
120	121	7
112	115	2
79	98	3
95	97	6
81	82	2
59	61	3
100	102	3
113	125	3
113	114	5
38	96	4
17	91	1
100	117	1
116	117	5
102	126	1
22	74	5
18	34	4
125	131	7
11	47	3
128	128	13
64	79	1
88	89	9
100	101	6
54	55	4
57	90	4
8	9	5
67	69	3
113	118	1
14	34	1
79	80	5
98	100	5
5	12	2
30	32	2
20	22	4
16	40	1
33	43	2
110	116	2
16	83	2
94	96	3
8	91	1
86	90	3
31	86	2
99	101	2
117	126	3
110	111	2
12	80	1
86	88	5
100	121	2
61	62	10
93	95	1
7	14	1
120	124	2
102	102	29
22	83	3
100	116	2
18	21	3
67	130	1
116	125	3
10	57	4
19	24	2
126	127	5
54	57	1
98	104	2
16	24	5
7	15	9
58	109	4
27	87	2
99	125	4
116	118	4
42	45	3
25	30	1
127	130	7
62	120	1
72	97	3
56	64	1
26	93	4
83	85	3
82	84	6
45	115	2
79	117	6
80	81	8
76	77	4
16	33	1
32	72	1
16	19	2
56	58	3
117	120	2
1	59	2
52	68	1
72	78	3
63	80	1
42	63	3
88	92	3
40	99	2
8	8	7
104	133	3
15	34	1
69	70	4
8	103	1
8	13	2
25	119	1
107	113	1
59	62	1
0	4	3
99	115	4
102	113	2
16	73	1
122	124	1
6	96	4
76	78	2
27	83	2
132	133	4
19	21	9
41	117	2
81	108	1
49	50	2
19	25	2
66	74	5
57	59	1
115	116	6
49	69	3
32	39	1
34	44	1
25	98	1
63	73	3
50	122	4
6	104	1
23	40	2
88	94	2
45	55	1
125	128	4
5	101	1
14	33	1
96	97	1
25	32	1
52	122	1
0	124	1
120	123	4
17	25	3
10	19	2
31	49	2
105	108	1
54	65	1
9	96	2
65	129	1
95	105	1
86	91	2
7	11	2
46	115	2
103	104	2
12	15	1
129	131	1
114	118	1
41	80	2
74	118	1
29	39	1
37	37	2
1	3	1
12	14	1
34	42	1
5	97	2
64	65	2
108	131	1
103	119	2
5	23	2
18	28	1
94	106	1
69	74	1
0	2	2
50	53	1
59	63	2
55	128	1
54	58	1
2	46	1
7	97	1
77	82	1
37	38	1
87	96	1
116	127	1
18	22	2
99	127	2
51	67	4
63	67	2
28	29	3
101	104	2
118	130	1
23	42	2
87	89	5
3	14	1
10	20	1
103	130	1
19	28	4
40	80	1
91	93	1
57	123	1
38	98	2
31	88	1
113	119	1
78	80	2
26	30	2
3	7	1
50	54	1
62	69	2
10	12	4
4	7	1
63	77	1
5	15	3
16	27	3
45	87	1
64	73	1
14	21	1
45	68	2
78	117	1
39	40	1
0	107	3
108	129	1
69	98	1
40	45	2
108	114	1
41	59	1
55	89	1
28	90	1
39	72	4
106	114	1
107	110	1
27	55	1
42	80	2
116	121	1
115	127	2
40	42	2
28	84	2
80	105	1
54	111	1
26	58	1
5	11	1
104	118	1
60	62	1
113	121	1
17	33	1
120	125	2
98	101	1
2	40	1
47	112	1
3	15	3
81	116	1
57	69	1
104	132	1
81	101	1
78	126	1
125	127	1
109	113	1
83	88	1
100	108	1
3	20	1
6	16	2
93	104	1
3	101	1
7	12	1
108	119	1
19	26	1
68	69	1
1	106	1
63	85	2
4	15	1
111	118	2
6	8	1
121	124	1
17	27	1
122	125	1
12	25	1
108	115	2
27	76	2
114	130	1
15	19	1
0	66	1
20	31	1
12	57	1
23	43	1
114	117	2
109	120	1
11	43	1
68	115	1
65	68	1
31	108	1
104	109	1
45	54	2
72	91	1
100	120	1
72	79	1
108	130	1
61	82	2
