100	100	6
29	32	4
122	122	18
108	108	5
88	89	9
64	65	2
2	3	2
148	158	2
110	111	2
121	121	7
75	75	1
17	17	8
36	36	5
33	133	1
131	131	7
1	2	1
137	137	4
48	48	3
146	146	3
132	136	3
114	115	4
91	91	1
8	8	8
135	136	3
151	151	6
109	109	4
36	95	2
143	143	1
28	157	4
142	142	2
138	138	7
80	81	5
5	5	3
71	72	1
129	129	8
38	38	4
101	101	17
24	24	1
53	68	11
127	127	4
23	23	4
86	86	1
105	105	5
134	134	4
157	157	4
40	40	7
99	99	15
15	52	2
19	19	1
116	129	4
27	27	5
68	70	2
135	135	4
79	79	8
7	7	8
37	37	2
107	107	2
156	156	3
125	125	8
102	127	1
50	52	1
28	37	1
111	111	2
96	97	1
119	119	6
51	53	1
1	1	7
149	149	3
115	115	2
13	14	1
21	21	1
105	109	2
14	15	8
23	46	5
148	154	3
111	112	5
4	4	5
25	25	1
72	72	4
2	2	7
27	28	6
63	64	4
100	130	2
94	94	7
13	19	3
54	55	2
158	158	3
117	117	1
39	40	4
87	87	3
102	111	3
96	138	3
54	54	3
103	139	1
15	16	1
154	154	2
67	70	1
100	101	2
123	158	3
29	30	1
126	127	3
124	124	5
150	150	5
9	9	4
42	43	5
111	158	1
134	135	3
66	66	3
46	51	3
120	126	1
70	70	4
26	28	1
114	127	4
65	90	1
24	53	2
136	139	3
101	102	3
2	6	2
88	88	3
31	31	1
86	89	3
129	151	5
116	116	3
20	20	3
14	14	2
112	117	3
98	98	3
41	41	3
147	147	1
148	148	3
28	28	5
82	82	5
41	42	3
6	24	5
12	14	1
111	147	2
3	3	4
113	117	4
78	79	3
144	144	2
32	38	4
96	96	1
10	10	3
112	112	1
90	90	2
26	27	1
19	21	1
47	47	3
51	52	3
156	157	2
51	51	2
35	35	1
31	32	3
33	33	2
140	140	3
94	98	1
113	113	4
153	153	1
132	132	2
46	109	1
15	19	4
55	108	1
130	143	1
123	123	1
68	69	3
97	98	1
90	91	1
139	139	1
32	32	1
34	34	1
65	69	1
105	115	1
25	31	1
133	133	2
146	147	1
128	128	1
14	52	1
12	15	2
8	9	2
125	126	2
62	62	2
80	80	1
64	64	1
6	7	1
106	108	1
149	150	1
103	114	1
11	13	1
116	132	1
108	110	1
29	29	1
77	85	1
