118	118	5
100	100	21
36	36	25
137	137	9
130	130	11
115	115	18
32	32	4
103	103	5
28	28	7
128	128	13
95	96	3
134	134	20
114	114	17
129	129	22
133	133	10
105	107	4
119	122	5
88	140	2
136	136	8
75	76	5
78	79	4
72	73	7
28	31	3
85	85	13
132	132	15
139	139	19
121	121	6
5	7	2
33	33	7
129	130	4
7	7	8
84	85	3
126	126	22
8	8	4
139	140	5
90	90	8
91	92	6
116	117	4
27	27	16
6	6	10
25	26	4
37	37	23
101	101	9
28	29	8
106	106	7
91	91	11
85	86	6
74	74	20
5	27	1
21	26	4
95	95	11
11	12	2
34	34	12
86	87	6
117	117	6
17	17	7
113	113	5
83	83	3
76	76	5
108	108	8
84	84	5
35	35	22
20	22	5
112	112	8
38	38	3
18	18	13
93	93	6
22	23	2
131	131	19
20	20	4
137	138	2
4	4	7
102	102	10
122	123	12
86	86	5
5	6	2
0	1	2
121	122	14
14	16	1
105	105	6
104	104	7
31	31	4
87	87	4
71	71	13
3	4	6
7	22	2
125	125	9
88	88	1
24	24	2
0	0	3
99	99	6
92	92	8
97	97	4
135	135	15
81	81	12
77	77	9
2	3	4
138	138	14
19	19	7
96	96	2
123	123	14
129	134	1
29	30	5
127	128	1
94	94	2
109	109	3
23	23	3
29	29	2
101	102	5
104	105	6
76	77	3
26	27	3
126	140	2
73	73	3
122	122	17
21	120	3
81	82	6
124	124	8
111	111	12
2	2	9
133	134	9
94	95	4
30	31	4
28	32	3
18	105	4
97	98	4
138	139	4
15	19	1
11	11	1
104	107	6
89	89	8
14	15	2
15	15	2
2	4	4
130	131	3
16	16	5
30	32	3
31	32	7
140	140	17
112	113	2
18	21	2
74	75	2
116	129	3
80	93	3
23	24	3
78	78	2
72	72	11
82	83	1
129	131	1
111	114	2
128	139	1
74	98	1
84	86	1
81	85	1
22	25	2
123	124	1
118	125	3
27	29	7
77	79	1
1	1	3
120	121	6
114	115	6
98	98	7
82	82	4
109	110	5
8	13	2
110	110	10
81	83	2
71	84	1
117	125	4
130	139	3
7	8	1
19	37	2
81	84	3
100	112	6
90	91	3
22	123	1
13	14	4
80	80	5
3	3	2
13	15	1
80	81	1
32	33	2
104	108	2
5	5	3
36	37	3
132	133	6
125	126	3
125	137	1
92	95	1
107	108	2
127	127	12
78	81	1
17	21	4
16	20	3
13	13	6
134	135	5
33	35	1
25	25	5
4	6	3
18	20	1
4	5	4
4	34	1
27	31	1
107	107	4
131	132	6
15	16	1
6	37	1
9	23	2
136	137	7
14	14	4
116	124	1
10	10	3
135	136	2
134	137	1
100	101	4
21	21	1
103	105	2
22	22	11
105	108	1
116	123	1
3	33	1
26	26	2
130	133	1
19	21	1
113	114	1
30	30	3
87	91	2
3	5	2
4	33	3
3	15	2
105	121	1
12	12	3
118	120	2
119	119	4
81	86	1
83	84	1
23	107	1
0	10	1
27	28	2
15	20	1
33	34	1
77	78	1
115	116	1
6	27	1
128	129	1
21	37	1
4	21	1
17	33	1
9	9	2
118	119	1
10	11	1
90	95	1
87	88	1
132	134	1
1	68	1
136	138	2
117	122	1
120	120	1
116	128	1
16	17	1
9	13	1
