139	140	2
9	9	6
45	45	4
23	23	5
156	164	4
15	135	2
140	141	5
43	43	5
40	40	5
130	131	6
14	14	4
64	66	7
113	143	5
43	139	3
35	35	3
42	48	2
85	85	4
120	120	2
56	56	3
12	13	2
113	116	4
109	142	2
102	102	4
106	106	3
78	79	3
71	71	3
50	51	4
52	62	1
37	38	2
119	125	1
66	66	9
99	99	1
36	36	4
40	51	1
63	63	14
86	86	7
89	90	4
121	121	2
155	155	5
42	43	5
109	109	6
131	161	2
155	156	1
64	64	5
166	166	3
48	49	4
169	169	9
111	111	3
103	156	3
136	136	4
38	38	3
112	144	4
25	27	2
17	17	4
162	162	6
118	146	1
114	114	2
162	163	3
80	80	1
47	48	3
117	117	4
91	122	1
155	166	3
111	112	2
65	118	3
8	37	2
87	87	5
16	38	3
112	117	2
146	146	6
8	8	8
125	155	4
151	151	5
52	53	3
116	116	3
109	110	6
132	132	8
18	20	1
101	104	3
141	141	2
170	170	5
38	47	3
57	62	1
145	145	2
125	125	6
7	7	3
126	127	1
5	16	3
84	85	3
111	115	4
5	5	2
6	6	3
131	159	1
75	113	2
131	131	1
47	47	9
140	140	6
33	34	6
51	51	8
49	49	3
135	135	1
62	62	5
163	163	5
124	125	3
15	130	1
21	21	1
73	73	1
27	58	4
147	147	3
92	93	5
41	49	4
26	26	3
115	116	2
66	147	3
22	22	3
11	12	4
1	1	4
122	122	6
88	90	1
103	103	3
100	100	4
113	113	4
143	143	4
14	128	3
105	105	2
127	127	3
19	24	2
21	26	2
18	19	2
88	91	7
74	77	3
53	53	5
15	170	3
55	55	4
98	162	1
115	115	8
50	50	4
112	112	4
6	19	1
90	90	4
124	130	5
148	148	2
156	156	7
6	7	3
39	46	3
125	160	2
80	119	7
4	5	3
69	116	1
160	170	3
66	68	2
74	74	4
38	41	1
165	165	1
91	91	3
121	125	1
95	96	2
133	133	1
127	133	1
25	25	8
165	167	2
68	70	2
46	49	1
39	51	2
133	170	1
34	34	2
117	119	1
2	2	3
87	132	2
37	37	1
0	0	2
90	91	1
44	45	1
168	168	2
101	110	1
128	128	2
54	54	2
137	137	6
18	18	1
5	6	1
68	148	1
132	136	2
164	169	2
24	24	1
87	128	1
27	72	3
42	42	2
158	158	2
41	46	1
159	159	3
24	25	2
88	88	2
111	141	3
117	118	1
119	119	1
98	99	2
127	129	2
119	121	2
41	42	1
24	52	1
0	1	2
108	152	1
120	153	2
12	12	4
64	93	1
10	10	1
123	123	3
130	130	2
41	41	1
93	96	2
160	161	1
11	11	3
109	138	1
138	139	1
104	104	1
55	56	3
169	170	1
121	122	1
21	27	1
119	120	1
67	153	1
19	58	1
129	129	2
49	50	1
81	82	1
150	150	1
164	164	2
136	157	1
78	80	1
105	110	1
15	138	1
33	33	1
119	124	1
44	44	2
139	139	1
69	69	2
39	40	2
129	130	1
57	57	1
22	23	1
68	68	3
153	154	1
64	65	1
15	139	1
14	133	1
133	134	1
20	20	1
129	136	3
84	84	2
144	144	2
148	153	1
46	47	1
94	94	1
15	15	1
44	150	1
126	129	1
123	160	1
0	77	1
164	165	1
42	142	1
111	114	1
