222	222	5
220	220	9
167	167	4
75	75	7
0	0	4
96	96	2
232	232	5
14	14	8
186	186	9
193	196	4
207	235	3
117	117	9
189	190	2
59	59	10
113	243	3
48	48	8
105	105	10
152	161	5
224	224	12
107	107	3
5	93	1
145	167	1
45	45	9
80	81	9
182	183	6
78	81	4
64	64	7
104	104	3
248	248	9
25	25	6
8	8	15
178	178	10
109	109	9
193	195	2
219	221	1
159	159	9
97	98	1
42	42	7
115	115	9
28	28	8
151	151	11
197	198	13
190	191	3
167	247	3
236	237	1
242	243	8
73	75	3
36	36	11
184	184	9
22	22	5
59	60	3
205	205	15
5	91	4
220	221	2
182	187	2
206	206	2
245	245	9
223	223	10
192	193	5
246	246	11
31	31	6
26	27	7
102	102	4
164	164	14
202	202	18
105	106	3
58	118	2
194	195	7
149	149	7
55	55	8
114	114	8
96	103	5
15	57	2
160	167	1
90	90	5
14	101	4
12	12	6
9	9	8
243	243	2
86	86	12
209	209	13
184	242	2
183	184	6
41	41	12
144	161	2
228	228	15
84	84	10
10	10	12
101	101	7
30	30	9
84	86	1
156	242	3
75	120	4
12	14	2
72	211	1
73	73	6
66	67	4
180	180	2
21	21	2
90	91	6
230	231	1
83	118	2
221	221	4
29	29	6
71	72	4
162	209	2
55	116	1
178	179	1
56	115	2
19	19	13
49	49	3
240	243	4
17	19	2
191	191	3
204	204	12
183	183	10
75	76	5
86	118	4
16	48	4
229	230	2
118	118	5
27	27	11
67	67	5
243	245	2
177	177	4
100	100	2
156	156	16
29	30	10
160	160	17
76	108	10
74	74	13
210	210	9
111	112	4
71	71	3
162	211	2
174	184	2
236	236	3
17	29	5
57	57	7
47	49	4
238	238	8
110	110	14
23	23	6
88	101	1
62	95	3
99	99	15
155	155	7
18	18	6
7	7	1
69	70	4
63	63	2
5	95	3
165	169	1
97	99	2
26	26	9
216	216	6
215	216	3
78	90	1
173	173	6
39	40	5
146	146	4
203	203	10
73	181	2
40	41	13
65	109	3
166	166	7
38	38	5
31	100	2
187	188	6
197	197	4
108	109	2
45	117	2
158	158	14
186	198	2
57	59	1
58	61	1
15	16	3
216	217	4
210	211	2
161	161	14
87	230	1
170	191	2
234	234	8
87	87	9
150	156	7
12	92	7
153	201	1
82	82	4
169	247	2
94	94	5
164	165	3
35	35	1
241	241	14
63	109	2
19	35	1
19	41	2
112	112	14
149	162	2
1	1	7
177	178	1
153	153	5
105	107	2
200	205	3
206	207	3
185	185	8
116	116	10
169	170	7
46	47	4
242	248	5
226	226	7
187	187	11
42	224	4
196	196	11
43	44	7
150	150	15
57	71	2
106	106	1
56	56	7
24	25	5
113	231	2
213	213	6
17	22	1
37	38	2
66	66	6
17	37	1
79	82	1
168	168	12
171	171	11
80	80	4
5	14	1
172	172	4
154	154	11
61	71	1
165	214	2
164	210	1
83	85	3
239	248	4
6	6	11
38	39	5
108	108	11
103	103	2
231	231	6
193	193	4
227	228	2
60	60	4
17	51	1
23	28	1
150	151	6
226	227	15
96	102	1
8	16	1
22	23	2
40	40	9
221	222	5
115	116	2
162	162	15
163	164	1
171	173	4
240	240	5
58	58	3
175	175	4
214	216	2
56	112	4
144	168	1
184	185	5
159	161	2
192	197	2
194	194	13
59	200	2
50	50	7
111	111	9
201	201	13
229	229	6
91	91	11
146	147	2
233	233	2
4	5	5
188	193	4
157	158	6
78	79	5
53	55	6
26	54	2
16	16	2
232	233	6
96	97	2
5	5	6
182	182	2
29	203	3
101	105	2
163	163	7
3	19	1
57	60	4
200	201	1
80	82	4
235	235	5
199	199	9
217	217	6
218	219	6
152	157	2
207	212	1
114	247	1
227	227	9
211	212	3
65	65	4
12	16	2
171	174	2
20	20	10
34	48	2
33	33	2
246	247	3
180	181	2
171	178	1
43	43	5
193	194	1
3	3	2
244	244	7
93	94	4
225	226	6
168	219	4
167	225	1
204	206	1
162	164	3
169	169	5
153	157	3
184	186	4
47	102	2
157	177	1
14	196	2
95	95	6
153	182	1
152	152	5
170	170	5
53	53	8
69	69	9
113	113	6
199	200	5
111	243	1
24	37	2
27	28	2
6	7	4
144	144	4
102	103	3
71	213	2
237	237	12
173	207	1
84	117	1
157	157	2
62	62	4
166	167	2
97	97	2
209	242	2
38	40	2
155	156	5
20	34	1
93	93	6
46	46	3
16	65	1
208	209	1
183	243	3
106	107	3
70	70	5
240	242	2
57	144	1
170	190	4
14	96	5
47	47	3
94	97	2
174	174	4
163	165	1
219	220	2
81	81	6
203	204	2
145	145	3
180	183	5
74	75	3
202	204	1
182	195	5
72	74	1
241	242	4
176	176	6
188	189	2
68	79	3
240	241	2
170	192	2
181	212	2
243	244	1
111	232	2
202	203	2
58	109	4
152	153	1
84	85	2
220	222	2
207	207	6
62	98	2
111	237	2
87	246	1
190	190	1
24	24	1
81	82	3
74	181	2
119	145	1
227	233	1
239	239	9
147	156	2
19	22	3
182	240	1
179	179	6
12	62	1
175	181	2
3	112	1
11	11	7
37	37	2
239	240	3
116	117	2
3	34	4
61	97	1
54	54	2
68	73	1
188	191	2
181	181	9
117	118	2
214	214	3
146	156	1
182	214	1
176	184	1
68	68	3
176	179	2
49	50	2
225	225	1
208	211	1
97	104	3
145	225	2
158	159	2
62	246	2
37	69	1
159	187	1
61	67	1
188	190	4
87	89	1
109	110	1
223	224	2
17	17	7
230	230	1
168	185	2
205	206	1
92	93	2
186	210	3
77	77	4
200	200	3
51	51	2
98	98	3
91	92	1
17	18	3
73	97	3
87	120	2
183	186	2
47	51	4
192	192	8
89	89	4
14	15	3
4	4	7
85	86	1
188	188	1
61	90	5
106	114	2
17	35	1
7	8	2
78	78	1
35	47	1
68	203	4
185	191	1
73	74	2
234	235	7
219	219	4
15	15	5
85	90	3
68	72	2
238	240	1
75	115	2
183	185	1
189	189	2
60	72	1
52	52	3
92	92	3
159	160	1
14	89	2
169	188	1
73	93	1
153	181	1
5	94	1
20	21	2
57	61	1
24	33	2
188	211	1
91	93	2
48	50	1
62	94	1
223	227	4
60	119	1
155	185	2
185	186	1
155	233	2
118	119	2
20	29	1
212	212	2
17	114	3
4	144	3
48	49	1
215	215	3
8	15	1
218	218	2
59	109	2
186	215	2
185	204	1
99	100	1
3	245	3
25	33	1
152	176	1
144	230	1
33	111	1
192	212	3
96	196	2
195	195	2
198	199	2
42	43	2
32	33	1
158	166	1
76	76	8
4	62	1
19	32	1
30	102	4
207	209	1
82	83	1
28	109	1
99	101	1
91	100	1
46	77	1
179	184	2
71	75	2
181	248	1
216	243	3
51	52	2
185	226	1
66	201	1
11	16	3
147	147	1
198	198	2
113	117	1
175	177	2
24	42	1
41	42	2
62	91	1
170	188	1
191	240	1
117	213	2
111	233	1
79	80	1
6	109	1
47	48	1
176	177	2
228	229	2
89	144	1
32	44	1
103	107	1
68	76	1
28	29	2
156	160	1
104	105	1
172	232	1
173	174	1
34	49	3
69	73	2
61	61	1
111	244	2
8	10	3
183	191	2
225	235	1
161	164	1
109	113	1
244	249	1
217	219	1
158	173	1
73	143	1
98	114	2
32	32	3
39	39	3
207	233	1
42	223	1
162	248	1
151	160	1
69	193	1
90	100	1
31	103	1
90	97	1
165	166	1
87	113	1
190	239	1
2	10	1
167	178	3
178	200	1
112	113	2
76	176	3
184	191	1
213	218	2
18	19	1
78	226	1
214	215	1
152	171	1
156	161	1
78	91	1
68	108	2
2	101	1
19	34	1
109	111	1
22	30	1
247	247	1
72	72	2
22	87	2
157	242	1
32	113	1
79	81	2
7	63	1
104	108	1
161	169	1
208	208	1
190	196	1
81	84	1
76	77	1
11	44	1
188	213	1
193	212	1
4	14	1
158	165	1
2	104	1
175	183	1
115	117	1
85	85	1
20	30	1
185	208	1
5	96	1
21	221	1
204	205	2
202	213	2
57	58	1
88	90	1
171	175	1
110	111	1
196	197	1
151	171	1
154	155	1
43	54	1
151	153	1
165	165	1
29	178	1
69	75	1
242	245	1
88	88	1
237	238	1
211	211	1
