47	47	14
128	129	1
96	96	3
117	117	7
113	113	2
8	8	9
49	49	6
16	75	3
69	69	13
43	43	2
48	48	5
77	77	6
125	126	2
68	68	13
94	94	14
26	26	11
39	39	4
4	4	4
14	14	4
7	35	1
40	41	2
40	40	4
108	108	3
47	112	4
85	86	5
10	10	14
57	57	14
42	42	10
123	123	4
63	63	10
111	111	7
99	99	13
74	74	13
4	15	5
17	17	3
6	14	1
9	9	10
23	23	9
72	72	14
41	41	1
100	100	11
62	62	6
112	113	7
21	37	1
23	25	1
27	27	3
36	37	3
19	19	9
20	74	1
119	129	3
67	67	4
115	115	7
32	32	3
82	82	6
18	18	6
3	13	1
83	83	11
48	49	4
22	22	5
21	74	2
29	29	11
42	43	1
55	133	2
103	103	3
69	74	5
77	129	1
3	3	6
104	104	6
80	100	2
124	124	6
14	23	3
7	7	8
28	62	3
96	123	1
75	75	9
31	31	6
24	127	1
92	92	7
15	22	2
79	99	1
4	26	3
29	47	3
6	6	9
25	25	10
90	92	3
38	80	2
134	134	1
59	59	6
104	105	4
50	93	2
95	95	8
35	76	1
11	11	13
106	106	8
12	44	2
39	42	1
94	129	3
2	2	3
114	115	6
50	50	7
37	37	4
57	58	3
85	85	10
5	6	2
8	17	1
45	45	6
92	102	1
81	81	5
93	94	1
124	125	2
126	126	3
101	102	4
82	106	1
61	61	3
77	122	3
7	87	2
131	132	2
15	15	8
58	108	1
9	14	2
82	100	1
119	119	5
81	82	3
29	30	4
38	38	2
5	5	10
10	14	1
9	63	2
90	90	2
82	130	2
1	122	2
98	98	5
79	79	7
12	12	3
65	65	12
109	109	10
103	111	2
12	94	2
97	97	10
13	13	3
25	26	2
8	12	1
102	102	5
60	60	2
11	12	3
79	80	2
51	55	2
10	94	1
20	22	2
32	33	1
93	98	3
77	83	1
7	11	2
91	91	4
41	42	3
4	60	7
87	88	2
29	31	4
99	100	3
12	33	1
11	60	4
129	129	5
67	68	1
112	112	2
78	78	6
110	112	5
130	130	4
94	95	1
3	4	1
89	90	2
56	131	1
20	20	10
103	107	4
125	125	9
98	107	2
126	131	3
55	55	2
51	54	2
64	64	6
110	110	2
110	111	2
12	13	6
43	48	1
78	80	5
46	46	4
44	45	6
39	40	3
24	25	3
81	84	1
118	118	5
38	81	1
7	14	1
35	35	5
116	116	2
32	37	2
17	18	4
21	21	3
75	76	2
26	27	7
26	46	3
20	21	7
73	73	3
31	81	2
40	49	5
132	132	1
24	26	2
25	33	2
103	104	3
127	128	2
6	27	2
121	122	1
84	84	4
3	46	1
47	80	1
56	56	6
8	14	1
78	99	1
34	35	1
47	113	1
65	66	3
29	48	2
89	114	4
27	28	1
7	20	6
11	13	4
66	66	6
26	30	1
93	93	6
58	59	4
132	133	4
26	29	2
39	82	1
46	47	3
63	64	1
22	30	1
34	34	6
16	16	7
128	128	4
91	92	5
43	44	1
4	28	2
86	113	1
31	32	3
101	101	3
18	19	1
120	122	1
80	80	1
7	28	2
97	98	3
28	28	4
81	107	3
106	107	1
87	100	1
76	76	7
28	29	1
121	121	1
29	49	1
6	7	2
58	58	2
4	100	2
44	98	1
4	5	2
9	10	2
2	3	1
40	43	1
101	106	1
18	129	1
10	11	4
105	105	1
20	128	1
69	70	1
107	107	3
33	33	3
37	38	2
104	110	1
131	131	1
126	132	1
82	102	3
3	17	1
70	71	3
133	134	1
92	113	1
24	24	6
13	14	1
133	133	1
90	96	1
25	47	1
94	133	1
57	67	1
35	36	1
96	122	1
120	121	2
8	35	2
3	95	1
75	122	2
105	110	2
21	36	2
86	86	1
130	131	2
30	31	3
27	54	1
64	126	1
83	84	1
19	129	3
5	21	1
84	103	2
66	67	1
23	60	1
20	129	3
15	16	1
57	94	1
75	79	1
5	43	1
29	43	2
45	91	1
87	115	2
108	109	1
19	128	2
100	101	1
46	85	1
87	87	1
94	96	1
6	44	1
49	50	1
130	132	1
91	96	1
12	76	1
27	29	1
60	83	1
25	82	1
22	26	1
63	68	1
39	41	1
19	31	1
77	80	1
127	127	2
50	91	1
41	43	1
71	71	1
15	26	1
99	101	1
45	64	1
86	116	1
85	111	1
90	109	1
79	81	1
27	94	1
47	48	1
83	133	1
