78	81	8
127	134	2
90	93	11
28	28	50
117	118	8
124	127	7
127	128	31
76	77	10
119	119	40
8	9	33
97	99	7
132	132	44
47	47	70
31	31	60
105	110	6
38	88	2
12	15	1
22	22	46
20	20	60
69	69	35
82	82	46
100	119	5
24	24	60
93	93	33
19	19	60
133	133	46
16	16	47
5	30	2
48	48	64
64	64	45
141	146	2
6	6	70
129	129	26
148	148	28
26	28	10
5	117	3
25	31	4
35	35	73
23	23	47
118	118	40
121	121	34
50	50	62
21	22	27
111	120	3
111	114	4
124	124	36
35	36	16
81	98	7
97	97	30
153	153	40
128	128	23
12	13	16
27	28	19
65	65	54
6	40	4
104	104	43
45	45	71
96	96	63
43	43	40
26	27	19
38	38	63
83	83	55
23	24	11
94	94	33
17	17	46
30	30	53
86	86	58
147	148	19
11	13	11
15	15	66
46	47	11
69	83	4
40	40	57
131	131	41
9	13	2
29	29	40
65	111	3
76	76	42
46	51	4
49	108	2
144	145	17
25	25	57
84	84	47
132	133	10
115	115	26
62	62	28
64	68	4
39	39	51
63	74	6
82	83	9
90	90	9
7	7	48
107	110	7
124	125	8
14	14	70
50	51	40
36	36	64
11	11	63
65	67	16
41	44	2
7	8	8
116	116	15
25	27	11
21	21	59
81	82	25
34	35	7
151	151	33
94	95	23
98	102	3
21	26	3
99	110	4
141	141	34
26	26	53
92	130	1
31	32	25
102	106	3
66	66	43
95	135	5
9	9	79
145	145	18
44	44	74
56	56	40
139	139	20
4	5	29
49	49	29
5	17	4
27	27	49
103	129	4
85	85	55
46	67	6
95	97	10
65	66	22
130	130	51
31	40	8
26	82	2
129	146	2
66	67	41
17	18	18
99	99	39
126	136	4
102	102	19
93	109	3
7	83	2
55	55	65
56	90	3
122	123	15
105	105	43
112	112	27
124	135	2
126	128	16
88	100	5
37	37	57
152	152	38
71	71	38
30	106	3
114	114	23
126	126	38
77	78	25
104	105	5
69	94	4
15	69	3
147	147	34
95	110	3
13	57	3
23	53	5
24	25	12
81	81	34
65	72	2
57	57	60
80	80	52
98	98	43
76	99	6
67	102	5
137	137	40
25	46	4
34	34	46
119	120	9
106	106	19
63	63	43
41	42	27
75	75	45
13	13	60
22	23	20
63	138	2
62	66	2
146	146	27
4	18	3
33	33	74
93	94	14
123	124	14
74	74	38
20	22	16
121	122	17
122	122	45
96	117	4
95	95	19
22	31	11
81	90	2
89	90	9
154	154	19
8	8	45
137	138	17
19	57	1
51	52	9
77	86	2
152	153	9
78	78	56
145	146	18
107	107	45
10	10	46
134	135	5
150	150	28
98	112	7
42	43	39
130	148	2
41	41	49
34	69	3
106	129	4
57	58	10
18	18	63
144	144	38
87	88	19
64	66	7
115	117	10
20	21	29
37	39	11
75	76	13
68	69	23
32	32	39
11	20	6
138	138	35
125	125	27
122	143	2
5	126	3
96	99	5
112	114	5
42	45	7
36	38	4
63	82	5
42	42	54
132	137	2
43	44	23
79	87	2
86	115	4
119	124	3
95	119	5
127	137	7
52	52	14
75	77	6
73	73	54
40	41	13
48	50	14
53	53	42
70	70	48
93	97	4
17	38	8
87	87	47
77	77	53
109	110	12
39	40	27
84	86	8
83	94	4
123	123	28
79	80	8
64	75	1
113	114	30
12	71	6
38	120	5
126	137	4
30	100	1
69	70	20
143	145	4
63	65	8
72	111	2
99	113	2
54	55	15
104	112	2
129	133	4
4	4	24
18	26	3
34	70	2
136	138	7
31	55	3
27	29	10
46	55	5
58	125	3
51	51	21
48	55	2
38	63	3
110	110	30
111	111	23
7	33	2
27	38	4
103	106	8
10	11	23
61	61	12
134	134	30
45	46	23
102	103	6
81	85	3
136	137	22
103	103	52
100	100	39
25	26	19
45	50	2
5	5	48
104	115	4
5	7	5
113	113	27
46	46	60
117	117	37
29	114	1
93	96	4
18	46	1
23	32	4
7	28	1
28	30	2
143	144	10
72	75	9
38	67	4
32	120	3
104	118	5
149	150	10
72	72	47
70	71	5
2	4	5
131	147	8
133	140	2
135	135	29
12	125	6
83	95	2
86	94	2
30	32	9
100	114	8
51	73	3
18	19	16
33	38	2
73	76	10
39	41	3
24	43	1
32	41	2
28	29	36
106	107	10
143	146	6
30	113	3
10	26	4
120	124	2
71	82	4
81	107	1
89	89	11
11	28	8
26	33	8
123	129	4
93	141	6
58	63	3
150	151	12
44	45	18
66	80	6
93	103	3
64	65	19
54	54	70
143	143	22
80	128	7
136	136	29
98	99	23
40	47	2
26	29	15
29	30	11
22	28	1
139	141	2
105	147	3
7	11	6
75	100	3
111	137	1
13	14	5
113	132	3
41	116	3
50	75	1
63	66	16
127	127	28
116	117	11
19	51	2
138	141	3
15	16	10
69	71	1
74	75	22
115	116	6
130	132	7
106	109	3
48	53	15
119	150	4
76	85	5
135	141	3
103	105	5
30	99	2
142	144	8
6	7	18
148	151	1
87	103	3
84	85	11
110	111	11
53	54	23
63	80	1
78	79	28
55	56	9
112	113	20
120	125	2
62	64	3
72	73	14
19	20	8
32	36	9
94	98	3
67	67	46
78	82	1
144	147	5
64	77	2
7	41	1
141	142	25
4	10	1
75	78	11
26	30	6
91	91	6
102	115	3
14	16	3
85	125	3
69	92	1
73	77	8
28	94	2
76	82	7
90	144	2
110	113	6
38	39	14
123	136	3
75	79	5
109	109	55
103	113	5
88	88	8
68	75	6
39	96	5
135	149	4
3	3	15
79	79	40
4	25	2
92	93	8
58	58	23
5	12	4
123	125	5
10	14	1
15	29	4
62	99	6
120	121	16
99	100	4
93	146	5
108	109	5
97	101	3
32	61	3
105	109	1
72	77	4
123	150	4
100	120	2
3	6	5
47	71	1
2	2	3
101	101	18
65	103	6
97	98	10
74	84	5
29	62	2
92	96	4
80	83	9
98	121	5
21	23	9
108	108	26
92	92	14
12	12	44
108	115	4
9	23	3
149	152	5
125	134	1
45	57	2
140	141	5
96	111	3
33	34	23
8	10	6
123	130	3
111	134	5
5	10	4
142	151	1
130	145	5
7	119	1
143	147	4
36	37	11
11	144	3
140	140	19
68	68	38
99	101	3
14	15	23
77	85	2
149	149	29
50	81	2
34	36	18
66	73	2
85	88	8
19	96	4
115	119	7
48	51	3
139	149	2
22	63	1
137	139	2
80	81	3
66	77	4
145	147	3
5	58	3
18	25	8
26	34	3
30	31	5
77	83	3
65	105	1
90	96	5
16	18	6
126	132	4
94	112	3
142	146	9
81	96	2
27	127	2
125	126	11
17	22	2
23	30	6
88	90	3
112	118	6
109	111	5
80	82	14
129	130	5
100	110	1
81	145	3
43	53	1
102	113	3
120	120	20
57	95	1
39	42	1
90	92	13
4	7	3
47	49	9
26	32	3
19	23	5
129	138	1
51	66	2
128	139	2
125	145	9
67	79	8
76	79	3
5	62	5
25	36	1
102	112	4
4	27	2
95	96	18
129	152	3
99	103	4
104	116	2
58	121	1
41	53	6
142	142	29
3	5	4
38	40	12
79	89	2
68	78	4
18	38	2
134	147	3
26	46	1
132	147	3
92	94	4
86	93	2
83	136	5
121	124	2
87	93	7
67	78	3
74	76	5
110	126	1
2	9	2
39	48	4
105	106	5
19	37	3
131	133	4
14	25	1
32	122	6
31	35	3
32	54	1
48	49	20
67	151	2
11	31	5
30	62	3
69	103	1
85	93	5
8	73	1
93	110	3
113	122	1
35	40	3
131	150	2
111	138	1
119	121	2
13	69	2
19	35	2
119	123	6
95	107	3
15	22	3
37	38	9
87	90	2
9	16	3
78	80	4
32	34	3
137	143	4
114	135	2
146	148	5
51	65	1
111	115	2
23	26	2
81	127	1
102	131	1
118	119	5
21	49	1
34	52	1
56	79	1
108	113	5
93	95	10
11	12	25
4	6	7
26	70	3
122	124	5
33	37	2
96	102	2
13	15	8
69	98	2
130	140	2
14	50	1
69	86	5
105	107	5
63	133	2
86	97	1
16	17	20
73	78	4
50	66	3
33	41	1
100	101	6
70	125	2
22	25	5
71	126	2
43	131	3
144	146	9
18	93	2
104	106	7
120	139	1
141	143	7
18	34	5
66	83	5
124	136	3
16	36	4
137	144	6
32	35	3
100	122	7
24	114	3
103	104	3
115	118	2
105	113	5
141	144	3
110	114	2
119	122	2
84	98	1
75	120	3
78	101	1
22	30	2
84	145	2
107	152	2
31	38	5
14	27	2
31	37	1
13	63	1
62	71	2
49	50	16
86	90	3
7	9	6
67	76	5
16	20	1
64	79	4
104	109	2
31	34	3
46	53	3
109	114	4
62	75	4
62	88	1
21	31	2
97	105	17
85	114	3
32	33	27
153	154	8
5	6	24
81	86	3
99	121	3
76	78	5
106	114	3
107	113	2
127	139	2
62	82	2
6	8	4
48	54	2
125	127	6
22	26	1
99	112	13
145	148	3
148	149	8
87	127	1
68	71	4
144	148	4
2	3	10
22	51	2
113	133	2
74	125	4
92	111	3
33	71	4
146	147	2
63	99	2
85	87	5
16	32	4
34	37	2
104	122	3
44	53	4
9	39	3
100	103	2
46	48	4
7	30	2
63	64	8
110	112	4
73	84	2
54	63	2
131	138	1
86	112	1
62	133	1
14	45	2
8	106	1
110	141	1
6	35	2
111	126	2
16	21	1
68	82	6
106	123	1
137	146	4
75	97	1
148	150	5
128	144	4
95	98	5
10	12	1
57	87	2
75	84	1
80	122	2
41	43	9
86	87	10
69	78	1
124	126	7
126	127	11
66	78	3
105	146	1
73	135	1
56	57	17
56	62	2
11	61	4
101	102	2
111	112	4
138	139	4
109	138	1
14	29	2
17	19	14
28	38	1
4	8	3
9	11	3
19	22	5
71	83	4
64	67	2
133	136	6
107	114	2
140	144	4
12	30	1
12	27	5
72	78	1
12	55	2
65	68	3
135	136	7
100	109	1
33	127	3
147	149	6
75	125	3
92	101	1
83	86	1
20	34	4
53	55	3
81	121	1
14	54	3
85	86	5
27	79	1
48	70	1
19	108	1
131	135	6
132	152	2
87	123	1
29	46	1
123	135	4
128	136	2
71	103	1
42	69	1
45	53	1
95	144	1
14	119	2
87	97	3
22	50	4
38	46	3
10	18	3
24	57	4
70	144	1
63	67	2
95	99	6
7	16	4
93	99	3
73	103	1
117	151	2
15	27	3
29	44	2
82	87	3
106	149	4
87	98	2
102	104	1
123	145	1
29	33	2
96	97	19
123	128	4
64	99	3
56	66	4
100	118	2
5	33	5
77	88	3
133	147	8
100	141	12
106	153	3
66	86	4
135	138	1
66	68	1
76	98	2
21	96	2
106	113	1
78	96	2
53	70	3
19	40	3
97	150	1
11	14	8
118	131	1
48	71	3
135	150	2
65	86	4
107	108	9
57	66	1
136	140	1
25	82	9
25	48	1
68	76	2
137	141	2
13	38	4
6	33	1
79	82	6
26	63	1
116	118	1
30	128	3
43	46	1
71	98	1
63	79	2
61	62	3
20	23	9
34	120	3
42	134	2
85	111	1
14	64	1
85	121	2
106	126	2
81	87	5
22	29	3
69	77	1
50	74	3
83	84	12
117	122	1
125	130	2
79	131	3
51	74	1
39	50	4
85	94	3
10	80	1
94	97	8
25	37	1
15	34	2
33	35	5
30	126	1
15	17	5
87	92	1
92	103	3
126	139	2
67	84	1
39	49	4
93	143	4
132	134	2
107	149	4
82	85	3
81	84	3
110	148	3
11	41	2
13	18	1
11	33	3
118	124	2
79	81	2
131	132	4
68	70	2
10	13	1
69	85	3
97	147	2
24	29	3
11	30	1
120	134	1
139	142	3
73	75	3
70	73	1
130	131	5
110	125	1
150	152	4
46	122	1
4	13	4
89	93	1
74	88	2
76	94	3
85	96	2
84	87	1
10	23	2
39	112	3
54	64	3
78	84	4
94	111	7
66	70	3
88	92	3
147	152	3
19	63	2
47	48	6
47	54	3
73	80	1
105	108	5
82	84	1
75	83	2
55	57	2
50	52	8
134	136	3
125	138	1
21	25	1
94	99	7
67	100	4
67	68	8
83	97	3
24	107	1
68	77	2
85	118	3
49	51	8
35	38	4
50	57	2
16	23	1
28	75	2
93	111	2
109	113	3
9	19	4
127	136	2
22	62	2
151	152	1
9	68	1
65	77	4
97	102	3
108	147	1
22	27	1
80	95	5
64	69	2
94	103	3
74	145	1
138	142	1
16	29	2
42	132	3
104	111	3
140	142	3
86	104	1
24	30	1
13	61	1
69	73	2
32	91	2
12	32	3
16	28	3
49	71	2
9	44	4
12	14	2
99	111	4
18	36	1
41	54	2
125	154	2
5	8	2
80	109	2
131	149	4
42	56	1
136	146	3
82	95	3
102	105	1
79	135	4
76	154	4
63	85	4
30	50	1
28	33	4
133	135	2
51	146	3
101	150	1
94	96	5
84	146	2
44	46	6
25	72	1
10	21	4
19	95	4
128	151	5
39	43	6
131	145	1
32	88	5
93	98	1
90	94	2
76	109	3
110	129	4
51	67	1
129	150	2
123	126	3
122	139	3
69	117	4
88	94	3
130	137	2
56	65	3
94	102	2
17	31	1
56	89	2
53	69	2
24	45	3
129	137	2
32	127	1
33	62	3
5	27	5
57	80	2
142	143	9
27	34	2
135	139	1
48	102	1
118	127	1
132	141	2
133	152	4
94	113	2
64	80	2
27	30	3
113	145	2
46	56	2
142	154	1
77	82	6
26	65	1
101	131	2
84	112	1
94	114	2
83	146	2
92	105	3
48	52	1
20	49	1
68	73	1
13	17	3
136	150	2
25	32	3
63	130	1
24	38	1
69	96	1
10	128	1
13	20	3
57	71	1
104	113	1
37	125	2
106	147	2
85	127	3
128	130	2
87	112	2
97	109	1
64	71	1
19	47	5
108	141	1
67	69	4
141	147	3
4	20	1
29	50	1
65	80	1
50	70	2
107	118	1
44	52	2
37	40	2
111	113	1
133	134	6
6	57	2
105	114	1
81	83	1
10	25	4
40	54	5
78	86	4
111	146	1
132	146	2
11	21	2
117	119	2
120	122	12
99	122	1
47	50	1
63	70	1
19	36	1
86	92	1
6	80	1
51	53	3
63	95	1
22	32	5
99	104	1
71	73	5
13	64	2
65	84	1
73	74	2
63	81	1
28	129	1
24	44	1
20	109	2
72	126	2
47	52	1
18	74	1
135	152	2
10	123	1
42	131	1
91	92	1
24	28	1
102	132	1
101	103	2
82	103	2
114	115	2
11	42	1
27	32	4
130	141	2
18	39	2
4	26	2
75	85	3
8	11	2
33	145	1
92	109	2
86	95	5
94	120	1
82	101	1
138	148	2
5	28	3
5	64	1
125	128	2
44	95	1
84	136	1
14	26	1
67	72	2
11	125	3
41	49	3
84	93	1
88	93	2
91	98	1
139	140	5
95	104	2
65	81	1
7	12	4
37	42	2
100	132	1
83	93	1
79	83	3
68	93	1
8	25	2
65	76	1
138	149	1
29	32	1
139	143	3
10	139	2
111	121	1
62	63	2
68	113	1
80	131	2
80	94	3
118	123	1
66	76	2
143	148	1
32	37	2
79	86	1
95	115	2
64	76	1
86	88	1
19	38	2
36	47	1
3	4	2
9	67	4
31	114	1
50	56	1
85	90	1
38	136	1
76	136	1
48	57	1
49	68	1
78	128	2
29	43	1
27	39	3
9	10	4
55	67	1
99	124	2
128	129	5
135	151	1
11	62	1
77	84	2
87	142	2
107	130	1
65	120	1
87	94	1
95	120	3
99	108	1
113	123	1
71	72	2
49	52	1
44	47	1
97	103	3
7	56	2
34	117	3
24	46	1
18	62	2
9	49	1
57	105	1
88	112	3
80	84	1
54	56	1
94	110	3
108	111	3
63	83	3
72	129	1
86	107	1
62	69	1
16	76	1
71	81	1
21	29	1
122	131	1
129	135	1
32	38	2
9	45	1
101	104	2
80	126	1
102	138	1
84	95	2
76	127	2
85	109	1
68	125	1
83	85	1
5	26	2
36	52	1
35	37	1
80	87	2
38	93	2
85	97	2
18	29	1
119	138	1
18	20	1
5	120	1
30	56	1
84	109	2
6	82	1
27	31	2
25	71	2
98	120	3
33	79	1
46	50	1
121	128	1
8	117	1
28	114	2
78	144	2
24	103	1
119	127	1
30	37	2
75	80	1
134	146	1
15	21	1
120	146	1
99	102	1
17	36	2
109	115	1
14	28	2
77	154	1
81	125	1
36	41	2
54	130	1
118	129	1
37	93	2
19	97	2
108	112	1
44	74	3
11	18	1
5	125	2
10	51	1
68	123	2
101	109	1
113	115	1
125	133	1
86	116	1
13	37	1
50	87	1
40	53	2
20	45	1
10	85	1
43	123	1
47	53	1
8	54	1
52	56	1
129	149	1
45	49	1
46	57	1
20	110	1
96	114	1
3	124	1
37	43	2
94	136	1
96	119	1
131	141	3
121	127	1
65	69	1
30	61	1
110	122	1
87	91	1
70	149	1
33	92	1
95	125	1
72	154	1
12	17	1
56	61	1
66	75	1
32	104	1
29	98	1
24	98	2
77	151	1
48	78	1
12	64	1
11	29	1
100	139	1
4	29	1
89	123	2
76	96	1
49	77	2
28	98	1
147	151	1
7	55	1
6	51	1
13	26	1
3	9	1
29	105	1
79	154	1
99	107	1
42	51	1
7	22	1
6	122	1
48	73	1
38	64	1
125	135	2
28	62	1
118	122	1
43	96	1
15	31	1
56	58	1
126	130	1
106	108	1
84	132	1
100	102	1
102	150	1
82	137	1
63	68	1
56	92	1
5	34	1
5	31	1
20	67	1
99	144	1
49	73	1
107	134	1
14	70	1
