161	161	6
145	179	3
166	166	9
143	143	11
86	86	17
137	139	2
24	24	11
114	114	7
41	41	15
58	58	8
29	29	17
104	107	3
58	73	5
152	167	2
107	107	8
141	141	6
62	63	7
75	75	3
3	3	4
169	169	11
158	159	10
76	99	1
64	64	6
112	117	3
76	77	4
182	183	5
113	115	8
155	155	8
52	52	10
121	121	7
117	117	9
194	194	9
137	137	13
172	172	9
50	51	9
150	150	18
126	126	9
168	168	8
28	28	9
5	36	1
30	30	9
145	145	9
181	190	1
157	188	3
192	193	5
93	94	2
118	119	5
120	121	2
112	112	14
184	184	14
52	54	3
196	196	18
8	34	1
56	57	6
42	42	9
111	111	18
96	96	5
156	158	2
10	10	11
18	21	2
47	51	1
15	36	4
189	189	16
44	71	4
105	107	1
167	167	13
128	128	17
67	69	3
109	109	6
28	58	3
144	144	15
16	16	7
5	6	8
70	70	1
94	95	3
157	158	6
140	140	7
146	147	10
161	196	4
183	183	34
35	35	10
18	18	9
133	144	3
160	175	3
156	170	4
79	89	2
39	39	9
31	31	9
87	87	4
8	8	10
89	89	8
15	32	5
117	137	3
109	110	4
161	176	2
140	141	5
126	127	5
18	19	5
162	162	7
149	149	14
158	161	5
84	85	4
176	182	2
27	192	2
30	32	2
39	40	9
152	152	1
109	111	2
3	8	2
106	166	2
59	59	5
110	116	3
9	186	1
125	166	3
1	2	3
132	132	6
38	38	11
3	4	2
55	55	11
104	104	9
161	162	8
134	134	6
112	113	4
50	50	2
2	2	9
82	82	3
156	190	4
46	46	8
97	97	5
37	37	9
44	70	2
103	103	7
184	185	1
9	38	1
158	197	3
16	23	1
175	175	15
154	162	2
113	113	11
9	10	7
175	190	6
181	181	11
84	84	5
192	192	14
9	9	14
134	135	4
141	164	2
193	193	19
107	119	5
153	153	7
125	126	5
188	188	10
111	151	2
167	173	1
128	141	3
159	159	13
187	187	12
34	37	3
165	165	12
161	180	2
45	45	9
16	17	1
185	185	12
57	57	9
191	191	15
154	155	6
6	6	15
67	67	8
127	127	9
38	58	1
20	21	2
148	148	16
142	167	1
88	88	1
40	180	8
1	26	2
105	184	2
5	7	5
139	140	3
104	118	6
23	23	10
27	28	7
111	166	3
139	139	3
105	105	14
162	179	1
179	179	7
103	107	3
111	128	2
175	180	7
9	35	4
24	26	2
180	181	3
40	42	2
15	15	10
100	120	2
195	195	5
85	85	1
7	7	13
20	36	4
160	191	3
0	0	5
25	25	9
69	69	8
100	115	2
101	102	4
26	26	8
182	182	13
130	130	12
28	29	8
190	190	16
35	37	12
3	18	4
147	147	13
0	1	4
33	33	8
7	8	4
38	186	4
3	34	2
65	65	5
81	82	2
9	14	1
165	166	5
154	154	10
11	11	8
156	156	15
100	114	5
186	186	9
158	177	1
34	35	9
61	63	1
190	191	6
0	34	3
123	137	6
177	177	13
134	197	1
142	142	9
8	37	1
189	190	3
19	19	11
150	151	4
107	108	2
118	130	4
154	159	4
77	187	2
83	83	6
99	134	8
60	75	2
133	139	3
185	186	4
174	175	3
132	133	2
174	174	12
117	133	1
122	132	3
143	158	3
62	62	4
79	80	4
54	54	18
49	50	2
177	181	2
0	14	3
114	159	3
29	159	2
131	131	12
99	99	10
77	79	3
98	98	1
55	56	4
190	192	3
34	34	9
107	132	5
143	144	7
114	115	2
47	47	8
165	167	2
117	130	2
131	157	3
37	39	2
157	157	13
106	172	2
48	48	15
163	182	2
47	49	2
63	69	1
59	85	1
6	8	5
94	94	8
170	171	3
180	180	16
156	172	2
178	191	4
144	146	3
40	40	5
178	178	8
9	11	2
138	138	8
172	173	4
6	7	3
27	37	2
50	55	2
49	49	8
146	152	1
149	150	5
116	118	8
167	168	8
53	54	2
90	110	2
60	60	5
128	151	1
115	115	1
71	72	6
43	44	8
66	67	4
97	99	4
42	43	3
12	12	4
145	158	1
44	44	4
43	52	3
112	115	3
197	197	8
136	136	7
115	117	4
160	174	2
58	67	1
70	71	10
21	21	14
191	192	1
4	7	1
133	133	5
164	172	3
135	135	8
176	193	1
142	143	2
101	101	3
72	72	15
164	164	13
18	36	2
20	20	5
103	108	1
106	148	4
127	160	3
148	149	3
0	21	2
1	1	9
81	81	11
51	98	2
10	11	2
196	197	6
143	145	2
173	177	5
156	175	3
195	196	5
155	172	1
0	46	10
105	106	2
150	152	3
66	66	5
16	18	2
194	196	2
138	139	7
155	157	2
56	56	3
44	45	1
145	150	5
129	132	2
17	17	2
6	20	6
57	58	3
43	43	5
160	169	2
152	153	2
106	168	1
79	79	4
164	179	3
121	122	2
128	136	2
53	53	6
41	148	3
12	17	3
183	184	3
105	110	4
165	190	4
156	171	3
29	30	2
104	116	1
133	145	2
83	84	6
3	22	1
113	148	2
171	171	5
24	41	2
163	166	2
129	129	4
30	31	1
147	156	4
80	119	1
101	104	2
1	34	2
58	59	4
8	40	2
49	51	2
119	121	3
161	192	1
36	36	16
173	175	4
51	51	5
186	187	2
18	38	2
131	132	5
83	85	2
121	133	1
11	13	1
80	80	3
107	109	4
100	100	3
78	87	2
68	72	2
19	21	1
160	160	4
18	20	1
153	154	6
179	180	4
68	68	3
172	186	2
0	12	1
161	164	5
13	36	4
27	59	2
116	116	4
120	120	2
139	145	1
60	68	1
63	63	2
146	146	1
151	151	8
22	23	3
133	134	1
106	106	5
165	175	4
139	144	1
2	25	1
78	86	1
74	75	3
129	149	2
106	112	1
111	120	2
114	148	1
50	52	2
156	167	3
162	163	2
176	176	7
98	110	3
168	169	2
135	136	3
152	166	3
10	14	2
104	109	2
170	170	6
140	153	2
8	9	2
84	100	2
129	130	1
119	119	8
155	156	4
25	176	1
28	189	1
88	89	8
144	145	1
44	186	2
142	158	2
123	124	3
16	32	1
19	25	1
2	3	4
156	161	2
115	139	1
123	135	3
55	57	1
130	132	4
116	117	3
182	193	1
102	102	4
158	158	4
47	48	4
176	191	2
77	77	2
105	171	1
176	180	1
9	43	1
145	146	4
181	182	4
4	18	4
151	152	3
97	110	5
142	173	2
163	165	1
45	63	1
97	98	3
173	173	7
103	191	1
176	177	3
27	193	1
74	74	2
186	194	1
78	79	4
102	113	2
80	81	2
114	117	5
147	148	2
125	125	2
17	20	2
149	171	1
134	140	3
143	177	1
164	181	3
4	17	1
106	107	1
14	14	2
67	68	2
95	96	3
155	166	1
123	123	2
182	184	1
171	182	4
45	188	2
77	83	3
121	134	2
177	178	1
118	135	1
41	171	1
93	96	1
174	177	1
17	18	1
13	14	1
64	75	1
110	110	6
116	147	2
4	4	4
118	118	6
14	37	1
5	5	3
100	101	2
178	181	2
172	176	3
39	58	1
76	76	2
58	171	1
149	156	2
23	182	1
32	36	3
138	140	1
4	187	1
186	188	2
172	174	1
133	148	1
132	146	1
160	167	1
48	49	1
183	189	1
34	36	1
53	183	1
56	58	1
147	150	1
124	141	1
157	190	1
169	184	2
157	182	1
61	64	2
69	89	2
108	108	4
177	197	1
104	110	1
22	25	2
132	145	2
115	116	1
15	44	2
17	44	2
170	186	1
149	161	1
11	45	2
174	176	2
173	174	3
93	93	2
130	139	1
32	32	2
149	184	1
85	87	2
45	56	1
163	179	1
94	97	2
4	19	2
27	190	2
127	128	1
108	165	2
178	197	1
44	68	1
108	190	1
105	156	1
54	182	2
95	95	3
78	78	3
23	32	3
109	132	1
109	179	1
3	20	2
137	138	1
39	59	1
123	134	1
33	37	2
28	180	1
82	83	1
42	56	1
132	181	1
166	190	1
104	105	2
17	40	1
74	77	1
121	168	1
3	9	1
2	60	2
163	168	1
86	88	1
56	86	1
125	171	1
159	176	1
84	93	1
23	47	2
108	118	2
8	43	1
14	15	5
187	188	4
20	22	1
63	66	1
26	27	1
15	186	1
124	124	1
50	57	2
129	138	2
152	157	1
115	168	1
25	28	1
115	130	2
24	25	1
82	84	4
159	162	1
122	122	2
178	179	1
119	122	2
143	161	1
38	39	1
142	168	1
74	89	1
44	73	1
23	24	1
112	114	1
101	114	1
76	79	2
111	114	2
130	131	1
29	196	1
1	25	1
167	174	1
90	90	2
53	55	1
5	9	1
153	165	1
154	175	1
22	22	2
187	189	2
194	195	1
102	106	1
14	17	1
175	176	1
27	58	1
1	4	1
4	23	1
151	156	2
125	127	1
146	149	2
171	172	2
105	114	3
25	196	1
5	8	1
29	37	1
29	190	1
161	172	1
62	64	2
132	182	1
128	130	1
32	33	2
61	62	2
38	41	1
37	38	1
136	192	1
148	155	1
104	165	2
106	114	1
75	76	1
153	168	1
3	7	2
76	83	1
118	132	1
59	61	2
158	170	1
11	76	1
108	163	1
97	100	1
160	165	1
154	163	1
143	178	1
49	57	1
174	182	1
36	37	1
124	134	1
20	33	1
13	13	1
40	43	1
65	66	1
108	131	1
50	169	1
118	131	1
174	180	1
111	112	1
179	181	1
140	167	1
140	142	1
16	37	1
