36	39	3
162	166	4
88	118	1
93	93	4
169	173	3
22	23	7
151	153	3
151	151	7
12	12	20
24	24	10
176	176	12
86	86	2
120	120	3
87	89	5
36	52	8
78	85	1
87	87	15
78	92	1
60	60	1
81	81	5
24	26	2
31	31	19
0	24	1
86	88	2
123	136	3
166	166	6
0	1	18
126	126	11
144	144	8
71	101	3
151	168	1
19	19	12
100	100	8
37	37	9
130	175	1
21	29	1
106	120	5
50	50	5
32	32	15
42	42	17
119	119	4
143	144	5
105	105	3
4	30	1
6	6	12
129	129	11
124	124	13
19	20	4
156	158	2
72	72	12
3	9	6
0	0	6
110	147	5
160	162	8
83	84	4
8	9	8
16	16	11
155	155	18
134	136	5
88	89	2
14	14	22
30	30	11
138	139	7
142	142	12
167	167	19
25	26	13
147	147	10
34	44	4
25	34	1
33	33	10
78	135	3
14	15	4
30	31	12
35	36	3
87	109	1
148	148	7
173	174	6
17	17	10
7	30	5
157	157	16
179	179	8
174	174	6
111	111	2
133	133	12
152	152	4
52	52	2
23	23	14
78	89	1
101	101	4
63	91	1
65	65	14
4	45	1
21	21	15
61	66	4
160	170	2
39	40	9
80	132	3
5	7	15
6	9	2
1	37	2
18	18	11
92	92	12
84	84	5
7	7	4
132	132	3
78	100	3
165	165	5
180	180	6
162	162	4
21	37	2
109	109	8
40	43	4
58	84	1
17	18	7
143	143	4
94	121	2
26	27	3
156	156	8
165	166	9
61	61	2
21	23	11
120	126	2
67	67	5
20	21	7
90	95	3
108	173	3
26	30	1
19	23	3
13	45	4
19	38	2
119	128	3
75	75	10
1	41	2
13	13	10
112	113	1
108	109	3
175	176	1
7	10	2
7	49	1
112	112	4
28	29	14
154	154	8
10	11	3
122	122	6
76	76	6
99	100	3
2	42	3
29	29	24
56	56	9
80	80	9
74	100	6
125	125	15
156	179	6
3	3	12
130	168	5
8	12	2
151	166	3
70	71	5
44	44	19
40	41	8
64	64	10
164	177	4
9	9	22
13	14	7
177	178	2
44	169	4
178	178	2
22	22	15
41	41	16
137	137	10
16	17	2
4	4	15
158	178	1
173	175	1
2	2	8
71	98	3
154	155	5
11	11	13
88	88	4
78	79	7
130	131	3
10	17	7
27	27	5
18	23	6
22	35	2
73	73	4
146	168	1
14	29	2
164	166	2
36	36	9
163	173	3
131	131	11
52	53	3
105	111	6
38	38	14
55	56	3
51	52	2
64	65	6
4	8	2
158	158	11
82	82	7
53	53	9
29	31	1
116	118	1
12	29	4
115	117	1
58	59	1
11	23	3
172	172	6
146	146	5
149	150	6
10	14	6
139	140	1
23	24	6
45	45	5
116	116	9
26	29	3
26	26	12
12	31	1
29	179	3
25	25	19
34	34	8
141	141	2
117	117	5
127	128	8
37	38	3
31	32	2
132	138	1
171	171	7
28	28	5
162	163	6
170	171	3
20	20	7
175	175	6
40	40	11
16	18	5
8	45	5
19	42	6
85	85	6
115	115	6
7	35	3
83	85	2
97	97	5
51	51	6
59	90	1
2	3	4
5	5	10
100	112	4
18	19	1
15	15	7
135	135	11
147	148	2
114	115	1
164	165	4
82	102	1
35	35	8
176	177	1
99	99	4
159	159	9
136	136	6
154	156	1
43	43	13
134	134	2
23	29	1
9	52	2
143	145	2
159	178	2
8	8	3
107	113	4
79	79	2
137	139	3
121	123	2
50	57	7
85	117	1
10	16	1
156	180	1
91	91	2
157	165	4
1	2	1
3	15	2
27	28	6
10	10	11
24	25	2
104	106	11
4	5	5
168	168	8
30	35	4
61	117	1
59	59	4
98	101	1
39	39	9
4	9	2
158	163	1
151	152	2
166	167	6
113	114	1
173	177	3
68	68	5
8	19	5
173	173	8
6	7	1
3	4	6
104	104	7
58	60	8
153	153	1
133	139	2
132	177	2
160	161	3
29	30	11
53	54	4
90	90	2
159	162	4
104	105	7
79	80	1
98	98	4
91	94	1
170	170	4
153	174	3
17	33	1
95	96	2
55	81	2
57	57	8
73	74	4
150	153	2
55	55	4
77	77	2
38	41	1
93	105	1
42	45	2
135	136	7
4	44	2
20	37	4
55	64	3
73	87	4
21	138	2
118	127	2
1	6	1
33	35	1
123	124	3
4	7	1
53	57	1
164	164	7
174	179	1
145	146	5
113	174	2
58	58	4
86	90	3
26	176	2
163	163	13
11	34	1
131	138	1
59	118	3
61	63	4
144	145	8
152	153	2
159	176	4
16	44	1
32	33	7
21	25	4
17	40	3
73	75	2
22	30	2
19	44	1
149	149	3
16	42	2
145	145	7
84	90	3
125	142	1
169	169	1
126	128	5
12	13	10
102	102	9
102	136	2
138	138	11
84	111	2
160	160	2
7	12	2
14	32	2
103	121	1
139	139	10
8	178	1
105	121	2
7	34	1
62	62	3
122	124	3
9	10	1
101	104	1
36	45	3
79	137	1
24	35	2
143	161	1
143	162	2
89	89	3
91	92	5
18	31	1
128	128	2
71	88	2
8	32	1
152	155	3
37	42	2
121	126	2
3	25	1
37	40	2
103	147	2
118	118	5
5	8	1
113	113	2
131	172	1
12	45	1
81	100	2
108	114	4
6	21	2
36	50	3
104	114	2
50	53	1
109	133	4
152	174	2
95	95	9
3	44	1
27	32	1
5	42	1
169	171	1
40	136	2
110	173	1
65	100	1
3	23	1
110	127	1
112	115	2
124	125	4
170	174	2
60	61	4
3	7	1
31	33	2
107	107	1
109	131	1
23	31	1
114	114	2
155	171	1
155	180	1
157	171	2
123	123	4
85	116	1
2	6	3
121	122	2
129	170	1
71	71	4
140	140	3
7	31	3
103	106	1
24	163	5
49	49	1
42	43	2
81	111	2
19	41	4
153	173	1
0	31	1
6	36	3
81	82	3
108	108	1
21	24	1
77	78	4
66	112	2
142	145	1
141	142	1
76	79	1
44	45	3
78	82	2
13	30	3
7	37	2
130	130	1
14	24	3
76	87	1
129	156	1
16	21	1
79	100	2
102	126	1
140	149	2
161	161	3
74	74	2
62	99	2
165	167	1
168	169	1
7	23	2
62	67	1
57	58	1
79	81	2
87	97	2
35	37	1
84	101	1
6	29	2
157	158	1
1	1	2
16	169	2
46	46	1
2	51	2
30	179	1
101	112	3
2	4	1
132	133	2
43	44	4
105	106	1
15	32	2
94	94	2
83	83	1
123	142	2
110	110	2
11	12	2
103	105	2
153	165	2
58	114	3
2	18	1
99	110	2
94	98	1
5	6	2
18	20	1
154	168	2
111	136	1
41	42	1
103	108	2
22	25	1
15	31	1
15	45	1
8	34	1
85	86	1
106	107	1
1	16	1
115	116	2
59	176	1
60	62	1
10	13	1
106	106	1
12	30	1
103	110	1
36	43	2
122	126	1
158	171	3
0	32	1
8	44	1
87	105	1
121	121	3
63	63	2
159	160	2
115	144	1
4	51	1
155	157	1
131	157	1
98	100	1
74	76	1
53	63	1
15	29	1
90	91	2
109	179	1
107	108	1
64	68	2
63	94	1
44	173	1
147	163	1
156	175	1
3	5	1
16	43	1
150	150	2
66	67	1
11	13	1
16	30	1
31	44	1
62	80	1
2	5	1
38	53	2
23	28	1
90	92	1
4	20	1
142	143	2
3	21	1
56	57	1
18	24	1
131	146	1
24	40	1
13	44	1
41	43	1
15	16	1
71	80	1
12	25	2
102	108	1
140	152	1
4	15	1
109	174	1
153	168	1
17	43	1
140	142	1
