139	140	2
19	19	27
44	44	16
168	168	9
50	50	12
41	41	34
14	14	24
96	114	2
110	111	8
147	148	11
143	144	8
6	14	6
112	112	6
75	78	1
25	26	9
148	148	21
134	134	10
92	92	8
0	0	9
31	31	22
81	93	1
21	24	12
95	95	6
37	91	1
102	102	19
3	11	4
171	171	8
1	1	12
55	55	24
126	126	8
77	78	6
177	180	1
124	124	6
24	24	16
13	13	22
177	177	13
63	67	8
123	123	22
146	147	1
157	158	11
150	177	2
7	7	24
83	83	12
9	11	11
60	76	1
160	168	2
31	76	1
35	35	21
37	37	12
158	165	1
29	31	2
27	27	18
60	60	9
88	89	7
11	59	4
153	154	6
146	146	11
113	113	31
86	111	3
135	135	15
127	127	25
16	16	30
3	3	19
100	101	2
116	116	11
137	137	18
9	9	25
55	56	6
136	137	6
142	142	7
129	129	10
51	87	1
59	59	12
117	117	15
29	29	34
4	5	9
128	128	10
128	129	2
15	20	2
140	140	24
102	105	1
76	76	10
168	169	8
0	1	8
5	5	34
164	164	10
42	42	30
169	176	4
40	41	16
141	141	16
74	75	4
15	16	17
97	97	12
45	45	18
109	110	4
111	111	7
43	110	4
32	32	21
170	174	1
4	18	5
25	25	26
71	71	11
151	154	1
34	34	13
26	27	17
172	172	10
22	23	4
106	106	19
44	45	22
72	73	4
110	110	8
107	109	7
1	2	13
20	20	21
36	36	42
157	157	16
8	8	15
33	33	25
11	17	2
22	144	3
150	150	9
108	108	16
88	88	12
32	33	7
24	25	8
164	165	2
96	102	6
130	152	3
131	148	5
136	136	3
73	74	2
68	68	10
10	10	26
6	17	1
81	82	7
93	94	6
147	147	7
89	89	13
143	143	21
78	78	12
5	6	11
154	154	4
102	106	1
149	149	16
85	86	3
82	82	6
139	139	11
5	8	2
43	43	30
53	54	5
171	176	3
42	43	13
158	158	12
45	49	4
8	15	5
49	50	3
11	11	13
54	56	2
22	22	30
9	10	7
62	64	3
74	74	11
28	28	23
103	121	1
8	18	4
39	145	2
101	101	15
39	39	22
91	120	1
71	76	1
17	17	18
21	21	7
33	34	5
62	113	2
153	153	9
176	176	13
121	121	10
13	44	5
12	12	15
161	162	15
126	127	3
129	130	18
130	130	12
50	88	8
4	7	8
19	20	10
129	152	1
161	161	13
15	19	7
26	26	29
21	22	16
166	169	1
13	16	1
118	118	6
110	148	3
109	111	2
153	167	3
96	96	9
133	133	11
109	109	11
143	145	5
115	115	7
2	66	6
15	15	35
27	29	1
31	33	4
63	63	5
80	81	3
32	76	2
180	180	13
103	105	6
38	39	12
27	28	6
29	30	12
138	138	18
87	88	4
104	104	7
131	131	15
29	33	5
94	95	4
113	114	4
114	115	5
75	75	5
17	21	6
6	7	4
140	141	5
3	4	14
28	29	6
116	120	3
106	107	2
122	123	4
24	80	1
173	173	10
64	64	14
96	97	9
150	162	2
79	79	13
162	162	6
156	159	3
64	67	5
63	64	8
17	26	5
99	99	10
136	139	2
112	146	1
156	161	1
120	120	8
174	174	11
82	83	4
75	76	2
100	128	2
11	15	3
99	106	3
2	67	3
160	161	4
125	125	6
89	90	4
77	77	7
80	82	1
90	122	3
30	31	18
26	51	1
9	12	10
151	151	7
2	59	5
62	75	1
145	145	11
165	165	13
71	72	4
54	123	2
70	70	3
87	87	15
8	11	6
125	137	4
18	21	3
36	37	8
30	30	11
103	103	9
22	45	1
23	43	2
38	82	1
14	15	7
135	149	5
80	80	8
122	137	2
103	115	1
99	100	11
4	11	2
90	94	2
3	8	1
43	44	4
58	58	4
163	163	9
12	13	10
152	152	17
144	144	9
41	42	6
4	12	3
159	159	9
114	114	13
72	96	1
115	124	3
105	105	18
12	30	1
95	97	1
28	30	12
156	156	5
2	2	22
4	4	22
83	84	3
65	66	3
158	160	2
122	122	12
6	6	16
170	172	1
84	84	7
149	150	3
18	18	25
108	109	6
72	72	13
61	61	9
103	104	1
113	121	3
86	86	5
119	121	1
58	59	1
62	62	12
67	67	17
10	11	11
60	61	3
67	68	4
123	125	6
25	28	8
170	171	6
57	57	11
73	73	14
23	23	15
52	53	5
155	155	7
71	73	2
28	31	1
93	93	20
22	43	2
39	40	7
4	17	1
5	13	3
50	51	9
167	167	8
5	7	17
16	59	1
170	170	12
67	179	2
152	154	5
131	132	4
105	109	6
91	91	12
42	45	2
19	21	1
52	92	2
66	68	5
11	13	6
0	2	3
65	65	14
45	46	5
134	135	4
56	57	11
65	75	2
61	111	5
152	156	1
36	38	1
127	128	4
142	145	2
160	163	5
151	152	9
23	31	2
18	20	4
5	9	3
8	12	1
169	169	5
132	132	10
44	109	2
17	41	3
16	21	3
53	53	6
20	24	2
90	90	9
29	40	1
35	93	1
55	57	1
37	38	8
20	61	3
65	98	2
22	42	1
63	65	2
105	106	1
112	114	2
154	155	4
56	58	4
7	13	1
99	128	4
116	118	2
18	19	4
129	154	2
3	6	3
98	98	2
162	170	1
39	41	2
157	161	3
65	179	1
145	146	2
51	86	1
170	175	1
27	112	4
166	167	7
151	155	1
61	62	2
79	80	4
114	126	2
102	103	6
102	104	2
150	156	2
38	92	2
102	109	3
12	14	1
121	122	3
31	32	11
142	144	2
43	45	6
23	24	6
3	5	4
142	148	2
118	120	2
2	18	4
54	55	9
100	147	2
107	107	5
90	91	4
2	6	4
8	9	6
179	180	1
142	143	5
40	40	12
85	87	1
150	155	1
113	116	2
117	118	7
2	7	4
68	178	3
94	96	3
52	52	11
98	100	2
94	108	1
66	67	7
26	28	8
10	12	4
8	10	1
130	131	6
6	16	1
98	101	1
123	124	4
7	8	5
90	93	6
100	100	4
5	27	5
51	51	6
26	30	1
34	36	4
13	14	1
62	63	2
14	93	2
2	54	3
20	21	6
7	15	1
178	180	3
99	148	2
53	60	6
127	135	2
25	81	1
22	44	1
132	136	1
24	26	3
2	16	7
74	108	1
17	18	8
116	117	4
42	106	1
15	21	1
49	88	1
110	144	3
145	149	1
5	14	2
71	149	2
66	66	9
27	40	2
37	92	2
6	73	1
67	71	2
20	30	1
158	159	6
111	112	6
130	153	1
114	124	1
119	119	7
141	142	3
150	151	3
12	19	3
6	28	3
16	19	1
56	56	12
57	58	4
167	168	4
23	76	3
61	108	1
24	42	2
62	67	2
41	144	6
43	77	2
5	15	4
38	38	13
86	91	3
41	106	3
178	178	2
126	128	1
105	107	4
112	147	3
162	168	1
125	126	3
88	111	1
139	141	2
23	25	4
154	156	1
176	178	1
36	95	2
85	91	1
65	122	1
107	108	3
144	159	2
133	141	2
96	99	2
103	106	2
63	112	1
7	9	3
2	3	4
104	111	1
13	15	3
160	160	16
112	118	4
72	75	3
93	141	1
71	95	3
85	85	3
73	76	6
53	88	1
161	173	3
60	77	3
179	179	6
81	83	1
57	60	1
73	75	1
62	86	2
130	149	1
61	64	2
124	154	1
134	136	3
26	58	2
53	91	2
59	60	1
86	87	2
11	12	10
9	16	2
78	80	3
14	44	1
117	119	5
101	118	3
79	81	2
132	147	1
4	15	3
156	157	3
46	53	1
65	147	2
165	168	1
113	122	1
135	136	6
173	174	1
76	77	3
160	162	2
72	76	1
3	7	2
38	80	3
42	44	1
101	103	4
27	33	2
25	80	3
32	35	1
86	90	3
166	166	4
121	128	1
64	65	1
58	76	1
25	36	2
1	8	1
33	35	4
25	82	2
19	41	3
10	133	1
98	99	3
23	60	1
103	116	1
151	157	2
84	88	2
165	180	1
173	180	1
163	164	5
104	109	1
144	146	5
164	172	2
6	18	1
96	98	6
102	107	2
2	15	1
57	75	1
16	17	1
10	80	2
14	16	1
115	123	3
22	24	4
1	7	2
21	25	2
174	175	1
51	52	2
157	175	1
5	10	1
101	102	4
95	96	1
153	155	3
120	121	1
53	56	1
6	13	3
172	173	2
114	121	1
115	125	1
126	130	4
85	89	2
2	13	1
110	146	1
38	40	1
103	107	2
62	76	1
8	28	1
16	20	2
25	34	2
162	163	1
89	114	1
3	31	2
34	35	2
150	153	1
94	94	2
10	40	1
4	8	2
169	170	3
124	125	2
27	59	3
162	173	1
91	92	3
24	27	3
2	26	1
150	154	1
41	43	1
163	166	1
87	90	1
178	179	1
21	30	2
103	114	1
1	14	2
55	58	1
88	96	2
10	15	1
119	120	4
51	85	1
164	167	3
1	6	3
166	168	3
98	104	3
72	95	1
175	175	3
58	75	1
87	98	2
7	12	1
52	95	1
88	97	1
25	27	3
118	119	1
12	15	1
1	11	1
156	160	2
46	116	1
9	28	1
98	106	1
135	137	2
4	16	2
148	153	1
101	112	1
88	144	1
175	176	1
3	12	1
3	10	1
108	110	2
52	88	1
159	160	1
21	23	1
137	138	2
54	54	3
83	93	1
35	36	2
157	159	1
164	168	2
107	111	1
172	174	2
3	74	1
70	71	1
3	20	1
14	54	2
23	42	2
41	44	3
2	19	1
99	102	2
124	157	2
84	85	1
6	8	1
54	94	1
59	112	1
89	145	1
49	53	1
22	46	2
97	104	1
81	81	3
14	29	2
2	11	1
87	89	1
104	117	1
80	84	1
87	111	1
89	94	1
118	121	1
10	17	2
26	59	1
49	49	1
93	143	1
144	145	2
41	107	1
23	45	1
123	136	1
154	157	1
37	39	1
10	32	1
138	139	1
1	5	1
52	89	3
139	150	1
156	173	1
114	119	1
25	42	1
94	103	1
112	116	1
27	51	1
80	83	1
84	86	1
90	92	3
68	74	1
19	31	2
8	16	1
2	4	1
53	55	2
72	77	2
123	126	1
110	112	1
152	153	1
130	133	1
152	155	1
150	152	1
149	153	1
168	173	1
163	169	2
134	150	1
45	109	1
65	97	1
164	166	1
57	59	1
3	30	1
133	134	1
157	160	1
50	89	1
25	30	1
129	148	1
101	105	1
152	159	1
36	41	1
30	32	1
