49	51	3
92	93	9
91	91	9
101	101	5
4	4	32
133	133	9
16	17	2
69	70	5
14	15	4
86	88	18
119	119	18
122	123	16
77	82	7
66	66	13
84	85	14
97	97	11
81	82	5
97	98	16
38	39	13
129	130	12
65	66	5
112	112	19
122	122	14
131	132	12
98	115	3
107	107	12
24	32	3
127	127	13
22	22	23
102	102	19
17	17	20
99	99	14
77	78	9
132	132	22
9	10	6
62	101	4
83	83	17
25	118	3
76	115	2
76	76	9
105	106	7
2	2	13
59	61	8
104	104	16
129	133	4
24	24	20
96	114	4
51	52	8
48	50	2
44	44	32
58	58	15
23	129	2
87	87	11
88	88	27
10	10	24
41	45	1
29	30	28
81	81	12
94	98	2
18	18	19
107	108	6
30	30	26
84	86	1
57	118	2
60	60	16
73	73	24
68	68	7
48	48	21
84	84	14
89	94	4
46	48	4
89	89	13
26	26	12
46	47	10
65	65	17
46	113	2
43	44	17
49	120	3
90	90	5
109	109	15
113	113	17
2	3	10
75	81	4
85	86	6
41	44	5
12	20	5
55	127	3
11	12	14
117	118	16
33	41	1
59	72	7
23	23	16
93	93	10
108	108	16
49	49	23
20	20	7
18	19	9
7	7	3
13	13	26
38	38	10
81	84	4
82	82	13
96	96	14
107	109	5
71	72	6
54	113	5
113	120	8
126	127	11
3	3	38
46	46	14
121	121	18
127	128	15
126	126	31
17	23	1
124	124	9
73	75	5
110	110	27
75	75	9
100	100	23
90	91	7
16	18	1
123	123	16
86	87	4
6	6	5
16	16	5
19	19	12
101	130	8
17	38	5
53	53	30
118	123	6
56	109	1
29	29	21
79	79	11
57	61	5
79	80	3
130	131	10
105	105	20
64	64	6
0	0	14
95	95	15
60	88	3
80	80	11
17	18	19
44	45	19
50	50	18
56	56	12
89	90	5
78	79	9
58	62	1
41	42	8
82	83	1
1	83	1
41	41	21
97	99	3
31	31	16
103	103	16
12	13	7
59	60	4
90	97	5
13	70	2
54	107	2
33	33	19
88	91	9
7	8	2
10	11	8
80	93	4
45	62	3
61	73	3
49	130	4
91	96	1
74	75	9
49	133	1
92	92	11
64	65	3
57	57	16
115	117	4
87	93	1
47	47	19
115	115	15
63	63	28
1	1	12
16	19	8
32	32	5
25	25	6
13	14	4
19	20	5
40	40	24
54	54	18
32	130	2
109	111	6
97	115	2
130	132	2
116	116	22
20	39	3
128	130	6
17	127	3
106	107	3
47	48	10
117	117	15
87	88	6
5	5	6
100	101	14
40	41	2
97	118	2
69	69	9
45	45	18
55	55	7
48	49	5
98	100	3
55	122	2
88	90	3
42	42	10
125	126	5
129	129	10
9	9	8
45	46	13
61	87	2
18	24	5
60	61	7
25	26	10
50	122	6
51	51	21
111	111	24
27	27	16
64	106	1
53	109	6
56	102	3
45	47	3
78	80	8
46	120	2
71	71	13
22	24	2
43	43	15
124	125	11
95	112	1
41	43	9
83	84	8
67	68	9
54	56	4
44	59	2
96	128	2
24	43	5
118	120	2
73	74	8
131	131	14
78	78	11
72	72	24
60	76	1
17	102	1
86	91	2
58	61	9
114	115	7
81	83	3
32	34	3
53	54	2
114	114	18
68	70	2
48	53	3
22	23	3
39	39	20
14	14	14
28	29	5
45	55	2
116	117	3
99	100	5
83	85	7
21	25	1
59	59	6
42	43	19
15	15	16
67	67	22
79	81	3
27	28	3
108	109	6
126	131	2
76	79	3
28	28	17
62	62	8
84	87	2
20	21	3
39	43	6
23	47	1
103	104	1
4	6	6
71	80	2
86	86	8
6	112	1
124	127	2
54	101	5
82	85	2
119	130	1
104	112	1
116	118	5
102	104	1
51	109	4
125	128	6
73	84	2
5	58	3
119	121	1
32	40	4
61	61	8
52	52	17
21	21	13
28	119	1
0	2	4
38	40	4
101	102	6
37	38	2
48	52	1
93	94	2
99	112	1
106	106	8
31	32	9
106	109	3
74	80	5
34	34	7
12	12	15
19	40	3
22	25	3
123	124	3
128	128	7
57	94	3
8	107	3
30	31	4
64	93	2
77	96	2
115	116	4
56	125	6
88	89	3
99	129	5
23	40	2
128	129	5
96	98	4
124	126	4
64	88	1
90	92	5
106	108	2
18	20	2
44	46	2
61	62	10
120	124	4
118	119	9
97	112	1
4	5	6
27	30	4
74	74	15
43	126	3
63	64	2
33	34	3
88	93	1
11	11	11
18	22	2
98	98	8
101	105	2
23	25	2
92	94	3
94	94	8
50	51	2
5	93	3
77	80	2
44	47	1
24	39	4
125	127	2
3	43	5
17	22	3
25	119	3
58	73	1
15	19	2
28	30	4
94	95	3
46	55	1
45	49	2
129	131	1
2	31	2
58	60	1
0	32	2
56	70	1
23	24	6
85	96	2
75	79	1
89	91	3
3	4	5
88	92	1
83	90	2
64	66	2
57	108	3
54	105	1
67	78	6
109	110	1
99	128	4
95	121	1
120	129	3
18	21	5
55	56	1
3	5	1
100	103	8
24	25	3
68	77	1
96	112	2
22	51	1
6	7	1
85	87	9
102	103	5
8	8	10
43	45	3
130	130	5
98	103	1
6	22	1
17	24	3
10	55	3
38	41	1
85	85	9
58	101	5
58	72	2
66	74	5
67	79	1
70	71	1
52	53	3
60	128	1
42	50	2
39	41	2
96	97	3
70	70	5
98	119	2
4	33	1
103	130	2
80	81	3
90	96	1
50	67	1
118	118	3
58	63	2
6	14	2
120	120	12
0	1	1
7	11	3
15	16	1
7	28	2
129	132	2
87	127	2
59	68	1
119	122	3
91	92	4
25	38	2
2	5	1
61	74	2
66	67	1
113	114	2
104	105	3
27	29	6
91	93	4
92	95	1
15	23	1
56	126	1
82	92	3
60	71	2
100	102	1
74	84	1
114	119	1
112	113	1
52	122	1
77	77	8
121	122	5
2	32	1
64	100	3
75	76	3
59	67	1
83	92	1
91	104	2
125	125	6
55	68	1
26	29	1
72	78	3
85	92	1
26	27	3
33	40	3
61	68	3
90	99	3
126	133	2
27	117	2
43	47	1
13	76	2
87	90	4
19	21	2
62	85	2
29	118	1
29	131	4
25	27	2
18	40	1
55	103	1
115	118	1
94	107	1
71	74	6
54	102	2
49	76	1
24	26	1
15	78	2
62	68	3
62	63	3
67	74	1
60	100	4
24	34	2
5	23	1
68	80	1
73	81	1
57	58	1
54	115	1
76	77	3
73	76	2
61	76	1
8	9	2
78	82	3
126	129	2
74	81	2
3	45	1
57	67	1
5	97	1
7	12	2
22	43	2
18	23	2
8	20	1
92	133	1
95	96	5
50	76	2
22	26	1
98	102	1
111	112	2
15	17	1
71	73	2
63	84	1
4	39	1
23	128	1
54	97	2
63	67	1
100	132	1
31	130	1
67	80	1
6	16	1
100	131	3
74	76	1
21	22	1
31	105	1
88	97	1
127	129	1
17	21	2
99	114	1
39	40	2
120	121	2
82	94	1
15	18	1
56	86	1
57	102	1
73	78	1
77	94	1
63	65	1
105	107	1
72	74	1
90	100	1
132	133	1
25	40	1
80	114	1
59	74	1
130	133	1
65	68	1
62	64	1
100	105	1
51	130	1
59	62	1
96	131	1
82	84	1
100	119	1
0	41	1
93	95	1
68	69	1
17	19	1
28	31	1
98	99	1
