23	23	6
77	77	14
92	113	4
133	133	10
58	58	3
119	123	2
19	19	8
20	20	11
8	8	7
53	53	15
128	129	6
13	13	9
60	60	19
54	82	7
30	30	8
125	125	25
71	80	2
34	35	2
6	6	2
12	12	3
71	72	4
28	28	14
64	64	8
16	16	9
89	90	7
55	55	9
97	107	3
105	106	5
103	103	9
105	107	2
102	102	6
15	26	4
29	29	6
79	79	12
97	129	1
91	91	6
60	61	2
80	85	3
107	108	11
53	78	2
89	89	4
83	83	7
107	107	13
62	63	7
1	2	2
68	87	1
68	68	5
54	54	6
100	100	25
5	5	13
112	112	8
101	101	12
97	106	1
90	90	6
35	35	21
113	113	13
113	121	2
13	112	2
85	85	3
92	93	3
94	111	1
67	68	3
76	76	9
32	32	5
21	100	3
10	10	5
90	106	2
82	82	8
106	107	7
123	123	9
33	34	2
54	55	4
37	38	4
66	66	9
71	71	12
100	101	4
94	95	4
119	119	5
43	44	2
92	92	8
65	65	7
11	106	2
98	98	17
80	80	7
30	77	2
93	94	2
96	97	2
11	11	11
103	124	3
24	28	3
15	15	6
50	50	12
42	42	3
8	9	1
100	125	1
84	84	15
127	127	9
99	103	1
126	126	9
117	117	10
113	120	1
23	25	1
69	85	1
95	95	7
9	9	6
131	131	7
97	97	12
95	113	4
67	67	9
81	102	2
118	121	1
119	120	3
57	59	3
55	57	3
103	120	2
18	18	6
119	122	1
25	25	3
55	56	2
78	79	5
12	13	3
2	3	4
14	34	4
25	26	2
79	110	2
112	121	2
130	131	2
57	57	10
81	81	4
103	127	2
109	110	12
67	99	1
78	78	10
104	104	14
53	54	7
86	91	1
32	42	1
37	37	5
122	122	10
122	125	1
128	130	2
110	111	6
6	7	1
114	115	5
108	110	2
11	36	3
43	43	17
99	99	8
75	82	4
2	71	5
100	122	1
129	129	15
130	133	2
73	73	20
133	134	7
21	21	3
115	115	14
123	124	2
98	111	2
26	60	1
84	85	6
130	130	14
7	7	3
52	52	10
61	61	8
8	15	1
35	36	6
69	69	5
75	76	4
55	59	5
67	69	1
77	79	4
108	108	10
14	24	2
79	86	1
33	33	8
27	27	5
93	99	1
9	11	4
111	113	1
52	78	3
64	67	3
69	94	1
60	83	5
11	86	1
71	102	2
9	10	2
8	11	1
93	105	2
32	33	1
67	120	1
115	118	7
72	78	6
0	0	2
0	27	2
103	110	2
121	128	5
59	60	3
22	22	3
1	1	7
25	43	2
88	88	8
59	59	8
132	132	7
83	100	4
38	38	8
105	112	3
116	121	3
94	109	1
115	127	2
99	105	1
70	70	6
80	81	6
27	28	3
29	30	2
93	93	4
19	105	4
120	122	3
1	29	1
124	125	4
14	14	2
75	75	6
53	70	2
91	134	1
7	25	3
56	58	4
96	98	3
44	44	8
127	128	4
117	131	4
21	22	2
123	127	3
96	118	3
81	103	4
107	131	4
71	101	2
11	15	1
53	77	2
24	25	3
90	91	6
13	98	1
30	31	4
74	74	8
15	24	1
10	36	1
120	120	6
86	88	1
124	128	1
126	127	2
94	94	4
53	57	1
79	84	1
4	5	2
17	17	8
116	129	4
71	100	1
14	26	4
114	114	3
112	113	2
96	107	3
116	116	5
109	109	7
116	127	2
116	128	4
129	132	1
54	59	5
45	45	5
4	4	4
118	119	2
115	126	2
56	56	6
121	121	9
116	131	2
34	34	3
124	124	8
101	102	2
76	85	2
87	87	8
102	103	1
111	111	10
88	112	5
48	48	3
2	11	1
120	129	1
118	125	2
107	111	2
105	105	4
86	86	3
91	95	2
113	117	3
3	3	8
7	16	1
44	47	1
68	99	1
116	123	1
100	129	2
96	96	4
26	43	2
99	104	3
77	78	1
119	130	1
98	112	2
44	45	1
26	26	2
1	3	3
70	121	1
14	15	2
49	50	1
61	65	2
129	130	5
77	87	1
3	12	2
104	105	1
95	96	1
108	111	3
129	133	1
123	129	2
122	124	1
69	96	1
119	125	3
113	114	1
79	80	2
83	86	1
7	10	3
83	85	1
90	94	1
54	65	3
72	72	5
119	128	1
43	53	3
132	133	2
43	45	1
44	61	1
63	63	1
19	21	2
15	34	1
108	109	3
122	123	3
12	14	2
121	133	3
94	104	1
86	87	4
118	118	6
102	111	1
62	62	1
7	96	2
55	58	1
73	74	3
69	70	1
69	89	3
74	86	2
0	11	2
109	124	1
113	115	1
31	31	1
134	134	4
19	99	1
98	135	1
130	132	1
99	118	1
86	134	1
27	35	2
45	47	1
83	84	2
128	128	2
23	24	1
77	103	1
90	97	1
56	57	1
121	122	1
126	128	1
52	128	1
42	43	1
125	126	1
16	20	1
105	125	1
88	90	1
94	122	2
57	66	2
54	78	1
97	122	1
65	100	1
36	36	1
19	101	1
24	24	1
56	77	1
65	66	1
12	98	4
71	78	1
25	31	1
13	18	1
111	117	2
115	117	1
128	132	1
99	102	1
91	92	1
12	96	1
59	101	1
69	84	1
45	46	2
19	20	1
116	126	1
54	83	1
22	23	1
