14	125	3
106	107	3
99	107	2
148	148	16
7	7	4
9	9	10
138	138	13
106	106	7
133	150	3
145	145	7
141	141	8
145	154	1
156	159	1
32	32	8
164	164	8
58	58	18
132	132	10
140	143	5
192	192	13
156	156	13
155	174	1
166	166	12
161	161	9
146	174	4
99	101	5
4	4	13
56	57	4
188	188	12
6	7	4
30	30	10
115	168	1
5	6	2
188	190	1
28	28	6
160	160	21
105	158	3
169	170	7
41	41	11
37	38	7
123	125	3
0	0	6
9	10	2
153	180	1
45	45	11
170	171	10
104	108	3
98	98	4
47	47	14
21	21	7
131	131	10
172	172	8
142	182	2
134	134	17
133	133	15
50	51	8
8	8	12
165	166	6
28	41	1
5	5	21
115	116	1
17	18	10
184	184	12
17	17	8
179	182	4
54	54	11
178	179	2
56	56	7
26	68	3
135	136	3
162	162	15
196	196	12
23	23	15
159	159	23
191	191	5
194	194	8
62	77	3
185	185	13
113	114	4
95	133	4
18	18	5
96	97	4
183	184	5
89	89	5
54	56	4
38	62	2
165	165	6
138	139	4
167	167	9
87	88	7
109	116	1
181	181	9
123	149	1
63	75	4
139	139	13
124	124	7
50	52	3
25	25	4
157	158	4
24	24	13
25	84	6
187	188	10
195	196	3
94	100	2
6	6	19
116	117	3
123	123	17
168	168	9
70	71	4
117	117	8
173	173	16
81	82	4
151	152	2
104	105	3
14	14	7
35	35	8
47	171	2
158	159	8
35	39	2
104	136	1
193	193	18
137	139	3
130	130	4
42	42	8
144	154	3
157	157	12
29	29	7
121	121	5
135	135	5
149	149	18
5	86	2
186	187	4
33	41	3
2	3	1
35	36	1
172	175	3
175	184	6
94	94	6
112	113	1
79	80	6
38	38	11
112	112	12
102	104	5
41	44	3
11	11	31
107	134	4
142	142	4
136	136	9
153	171	1
19	61	2
104	104	3
52	53	5
183	183	20
2	2	8
155	158	3
146	153	1
94	108	1
190	190	15
43	43	20
3	3	11
96	96	8
114	115	4
39	40	4
137	138	5
148	167	2
39	54	2
133	134	2
21	86	3
13	32	3
21	24	7
150	150	12
24	25	5
122	131	1
95	95	1
159	160	10
81	81	4
63	63	5
34	35	6
150	184	3
38	39	2
147	147	5
175	176	6
106	108	2
15	15	4
110	110	8
87	113	1
196	197	3
112	130	2
115	115	7
102	108	3
13	43	1
158	175	1
36	37	6
67	67	5
187	187	6
7	8	5
181	191	2
80	80	3
20	21	4
140	153	4
95	153	1
61	61	5
0	1	2
33	33	4
40	41	5
119	119	5
22	23	4
173	174	3
26	26	10
162	163	9
191	192	1
55	55	12
103	103	4
4	43	1
118	118	3
75	75	3
118	181	1
146	148	1
100	100	4
77	77	5
156	158	3
16	16	9
25	32	4
118	119	3
176	176	17
130	131	2
102	106	1
147	173	2
16	19	11
20	20	9
19	20	9
45	46	5
53	53	5
111	116	3
177	178	5
170	170	12
29	68	2
175	175	15
5	78	2
77	87	1
34	40	2
121	131	3
142	143	2
143	144	1
146	146	5
152	153	5
171	171	8
34	41	1
143	145	6
12	12	7
120	120	15
109	110	9
108	109	4
51	51	6
94	96	2
155	155	11
0	51	1
23	24	3
147	148	3
74	76	2
90	144	2
49	49	1
154	154	14
5	43	4
173	182	5
101	101	8
79	90	2
72	72	2
184	185	3
151	157	3
156	170	2
156	173	1
143	143	3
148	153	3
64	69	2
37	37	2
52	52	6
182	182	5
162	165	1
105	106	5
27	77	1
71	71	6
10	56	1
40	40	4
107	107	10
13	13	7
140	145	1
83	84	3
93	94	6
21	22	4
99	100	3
97	98	4
114	114	8
179	179	14
46	46	11
174	174	8
118	175	5
69	69	8
82	82	2
86	88	4
156	160	2
125	125	5
177	179	3
29	35	1
188	189	4
158	158	15
74	74	1
129	129	3
180	181	2
145	174	1
153	169	3
68	68	4
162	167	4
148	152	2
146	147	7
19	19	9
163	163	5
157	159	1
12	43	1
67	69	3
57	57	3
100	111	1
146	173	3
101	114	5
186	188	1
178	178	8
113	113	14
15	18	1
135	144	4
21	80	2
1	1	11
110	111	6
108	108	7
88	144	1
128	128	6
99	117	2
189	190	5
137	137	9
114	116	2
5	44	1
128	129	1
48	48	5
195	195	8
84	85	1
141	142	3
165	167	3
147	155	2
77	161	3
72	73	3
27	28	13
125	126	2
101	115	2
42	43	5
51	52	1
120	186	3
153	153	8
197	197	8
14	52	1
0	15	2
145	151	7
128	133	2
121	122	4
129	132	1
55	56	5
187	193	2
82	177	1
69	172	1
22	22	12
94	170	2
63	142	1
127	127	7
110	145	1
133	140	2
14	30	3
167	170	1
156	157	4
67	68	3
102	193	1
98	99	6
62	74	1
180	191	1
178	186	2
35	68	1
13	36	2
155	164	2
38	60	3
30	32	5
5	8	1
194	195	1
146	185	1
192	193	10
99	99	7
27	67	1
44	44	9
100	101	2
106	118	1
190	191	3
153	157	2
31	31	8
105	105	3
174	175	9
160	162	3
85	85	2
4	5	1
74	106	1
173	180	2
26	28	3
182	191	1
122	122	10
79	79	6
68	192	1
3	22	2
54	55	3
151	151	10
181	182	2
76	76	1
111	154	3
126	127	3
154	156	1
147	154	1
59	59	2
13	14	3
189	189	8
89	145	2
4	17	1
70	70	12
134	137	5
172	184	2
10	12	1
22	174	2
175	185	1
26	35	1
119	134	1
106	137	1
52	80	2
20	67	2
127	128	3
163	166	2
193	194	3
8	9	3
27	34	2
140	140	13
160	164	1
43	51	1
97	161	1
36	40	1
149	150	1
60	60	3
28	34	1
154	174	2
135	139	4
58	59	1
95	142	2
78	78	4
162	166	4
180	180	5
150	151	4
145	172	1
5	17	1
41	61	1
120	183	2
177	177	9
88	89	7
109	109	3
105	107	1
154	169	3
105	155	2
94	184	4
82	176	3
35	42	1
6	73	2
31	32	2
56	63	1
65	68	1
146	154	2
3	7	2
154	155	9
4	8	1
101	102	2
59	62	1
36	75	1
46	47	4
144	144	3
27	27	7
27	33	4
66	67	1
5	10	4
11	15	2
132	133	1
147	151	1
48	49	2
119	120	3
20	86	2
175	178	3
93	93	2
78	79	1
181	183	2
176	177	1
47	49	1
187	192	1
86	86	6
5	7	3
26	27	5
107	109	3
158	193	2
187	189	1
135	140	3
144	153	1
186	186	5
57	58	4
187	191	1
121	182	2
160	161	2
44	73	3
95	110	2
111	111	4
28	66	2
23	25	2
8	71	2
155	156	3
41	42	2
79	85	1
94	95	1
130	136	1
66	69	1
39	39	2
150	179	3
90	90	2
6	19	1
21	27	2
17	67	2
167	169	2
62	62	6
105	193	1
109	111	2
15	62	1
27	75	1
162	181	1
3	4	3
31	183	1
21	25	1
117	143	3
166	167	2
173	175	1
163	164	3
8	44	1
117	118	1
153	154	1
136	149	2
62	192	1
147	153	3
65	65	3
172	173	2
164	165	2
43	44	2
64	73	2
29	31	1
158	160	2
12	52	3
130	134	2
148	166	2
18	66	2
34	34	2
83	83	1
25	26	5
186	189	1
103	193	1
176	180	2
73	73	1
121	191	1
103	106	3
169	169	5
102	102	3
12	49	1
16	20	1
0	58	1
27	74	2
96	159	1
30	31	1
178	182	4
108	151	2
25	174	1
33	58	2
39	55	2
1	2	2
70	72	1
50	50	3
44	45	2
100	142	1
116	165	1
132	149	1
137	144	1
162	164	4
148	165	1
13	31	2
161	162	1
104	117	2
119	137	1
14	33	1
150	153	1
167	168	2
113	116	1
28	68	1
62	63	2
60	62	1
87	89	1
28	29	1
79	139	1
94	157	2
88	90	2
120	182	2
59	73	1
110	133	2
171	174	2
83	177	2
29	39	1
27	38	1
26	36	3
45	55	1
1	4	1
144	145	2
29	174	1
116	116	4
141	143	1
99	168	2
33	35	2
170	172	2
107	108	3
116	146	1
149	184	1
101	136	1
154	158	1
124	126	1
34	39	1
124	125	3
93	133	3
97	145	6
182	186	2
111	113	2
19	21	2
73	81	1
36	36	1
63	76	1
172	185	1
114	142	1
106	152	1
10	11	3
3	18	3
126	126	2
154	157	1
103	104	2
108	135	1
118	135	3
180	189	1
19	25	1
2	8	1
15	66	1
186	193	1
113	119	1
99	102	1
97	118	1
121	132	2
187	194	1
159	178	1
184	186	2
7	19	1
107	149	1
64	64	1
86	87	1
95	97	2
118	180	1
105	110	1
174	185	1
95	96	2
17	25	1
10	10	2
71	72	1
42	73	1
140	144	2
1	14	1
112	132	1
146	160	1
118	121	1
4	9	1
89	144	1
103	160	1
117	168	1
111	146	2
151	153	1
14	63	1
53	81	1
80	82	1
98	164	1
161	164	1
13	23	1
22	25	2
1	58	1
182	185	1
89	90	1
104	118	1
61	72	1
59	74	1
33	42	1
155	172	1
102	156	1
106	143	1
60	61	1
4	58	1
86	89	1
8	21	1
11	12	1
154	170	1
120	130	1
132	180	1
161	163	1
145	169	1
156	191	1
16	17	1
23	86	1
13	29	2
155	157	1
158	161	1
7	78	1
136	144	1
173	176	1
101	117	1
14	26	1
152	157	1
6	87	1
