123	125	3
62	63	4
7	7	9
132	132	1
47	47	4
89	89	2
36	36	7
136	136	6
134	134	3
161	165	1
161	161	3
12	12	9
78	78	8
54	54	6
10	10	6
123	123	2
11	37	2
122	125	1
90	119	1
25	25	12
97	129	4
5	5	3
118	119	3
5	86	10
157	158	4
95	95	5
120	120	2
12	63	4
38	38	10
71	71	2
15	15	6
2	2	4
8	8	3
4	4	2
21	22	4
116	116	2
64	67	2
164	164	3
167	167	3
105	105	3
49	49	4
6	6	3
137	138	1
166	166	5
52	118	7
109	109	4
76	76	2
16	16	3
103	103	5
9	10	4
11	12	6
75	76	3
42	42	6
85	85	4
3	3	4
1	139	1
79	79	6
160	160	2
156	156	4
57	58	1
141	141	4
162	162	3
50	50	8
146	147	1
5	108	2
63	63	5
96	96	5
101	103	5
1	2	5
74	103	2
55	55	6
115	115	5
34	34	3
48	49	1
86	86	3
154	154	4
87	88	3
80	80	5
81	81	5
57	57	4
57	63	1
44	44	3
17	34	1
137	137	2
88	146	2
71	103	2
126	129	1
88	88	2
126	127	3
128	128	4
5	112	2
40	78	3
77	77	2
25	38	3
147	148	1
97	97	3
6	16	3
8	74	1
98	116	1
133	135	3
33	33	2
69	69	3
135	135	3
146	146	6
83	86	4
68	69	4
126	126	5
144	146	2
70	70	5
52	52	3
90	90	2
20	21	2
148	148	3
72	72	6
113	113	8
77	162	1
123	124	2
106	106	2
77	117	4
65	100	5
56	56	6
43	43	1
124	124	2
84	85	1
141	142	4
153	154	4
163	165	2
119	161	2
155	156	4
97	116	2
87	87	5
35	35	3
99	120	1
129	129	2
46	46	3
144	145	3
145	145	3
151	151	7
117	118	5
152	153	3
141	145	2
44	45	3
20	20	3
101	101	3
158	159	2
75	75	2
41	42	3
64	116	2
84	89	2
108	108	4
72	73	1
55	56	1
3	48	3
147	164	1
114	114	4
22	23	2
51	51	2
83	83	4
13	14	5
129	145	2
38	42	2
76	93	3
94	95	1
13	21	2
48	48	1
71	72	2
24	24	2
64	112	1
37	37	1
158	158	2
13	18	1
134	135	4
73	73	3
91	91	1
159	159	4
116	163	3
82	82	1
72	98	1
18	18	2
67	67	3
11	11	3
91	92	3
170	170	2
43	44	1
46	47	2
13	13	3
10	11	1
139	140	3
139	139	2
138	139	2
62	62	1
20	24	2
156	157	3
41	41	4
14	14	2
152	152	3
104	104	4
40	40	2
24	53	1
24	25	1
76	77	2
4	108	1
68	111	2
133	133	3
121	122	1
90	91	1
130	130	1
53	54	2
19	20	1
96	105	1
66	98	2
125	140	1
138	138	2
160	161	1
17	36	1
98	99	1
80	102	2
129	130	1
140	141	1
164	165	1
17	18	2
45	46	1
111	111	1
77	79	1
75	135	1
103	104	2
74	136	2
27	27	1
147	147	1
131	131	1
13	15	3
51	52	2
40	41	2
64	64	2
169	169	1
58	103	1
148	154	1
93	95	1
8	9	1
28	28	1
83	84	1
148	153	1
35	36	1
70	76	1
112	112	1
13	155	1
104	115	1
26	26	1
