93	96	2
55	55	10
72	72	6
74	74	9
39	55	1
40	41	13
65	66	10
82	88	4
29	31	8
64	64	6
75	75	14
84	86	2
82	83	13
52	52	19
96	99	5
76	77	7
77	77	9
22	24	5
104	104	11
42	42	7
94	94	13
53	54	13
68	69	6
36	68	6
47	47	4
35	67	2
51	52	3
31	31	10
70	70	25
32	32	6
25	30	2
21	21	7
39	42	6
103	103	11
106	106	12
38	38	6
53	53	9
98	98	15
92	101	2
97	99	10
67	67	26
80	81	11
85	85	12
76	76	28
49	50	1
79	80	1
22	66	1
103	104	3
50	52	4
51	51	9
64	65	2
40	40	12
99	99	4
72	74	5
25	25	15
48	52	3
52	53	2
61	62	6
30	30	11
69	69	17
24	24	8
65	65	10
62	62	10
43	43	5
23	96	3
97	97	10
41	41	12
58	58	15
50	50	14
35	104	3
85	86	5
33	33	7
80	92	2
20	20	10
22	23	8
63	99	4
33	34	10
66	66	9
72	73	2
82	86	2
61	61	8
101	101	17
56	56	11
102	103	2
39	39	12
47	49	3
82	87	11
54	54	7
104	105	3
35	35	24
75	77	2
93	94	2
81	83	3
101	105	1
83	88	3
32	42	1
25	29	1
67	84	1
36	36	9
63	64	2
70	77	3
47	50	1
73	73	3
40	42	1
101	102	2
48	48	12
41	43	2
96	96	12
79	79	6
71	81	3
78	78	11
89	89	6
44	44	2
47	88	4
55	57	2
28	28	12
27	29	2
46	46	6
56	58	2
49	87	1
49	49	5
46	59	1
90	90	6
73	74	1
53	56	2
95	95	4
45	45	2
88	88	3
60	61	3
57	57	6
45	50	1
60	60	7
26	27	4
83	83	4
23	24	1
95	96	1
78	80	3
58	59	5
71	72	7
26	30	1
106	107	10
71	71	12
92	92	3
49	88	2
107	107	2
39	45	2
59	59	16
64	67	2
41	46	5
43	44	7
77	98	2
100	100	10
93	93	17
76	96	2
51	56	2
50	51	1
20	21	1
37	37	10
38	39	1
26	26	6
29	29	3
75	76	10
81	81	9
62	63	6
45	51	3
41	42	4
86	86	1
23	23	9
45	88	5
46	47	2
48	87	5
77	97	2
69	70	3
105	105	2
46	49	2
66	67	4
32	34	2
52	56	3
42	43	3
97	98	4
46	57	1
96	97	1
63	63	4
27	28	1
98	99	6
24	96	4
68	68	9
81	85	2
91	100	5
71	79	2
50	73	1
30	31	3
102	102	5
91	91	8
48	50	2
81	90	1
39	41	3
91	92	4
39	87	2
36	37	4
51	54	2
50	68	2
81	89	1
52	54	1
86	87	3
31	32	2
73	78	1
88	89	3
68	73	3
35	36	1
38	43	1
41	88	1
37	39	1
24	34	1
34	34	5
41	44	2
50	98	1
74	100	1
67	68	1
32	35	1
70	73	1
45	87	1
84	85	5
50	56	1
45	48	1
59	67	1
100	101	4
80	80	7
21	22	1
48	106	4
46	48	1
19	20	1
25	107	3
87	87	1
26	29	2
75	100	3
28	29	4
78	79	6
42	45	1
94	95	1
40	46	1
65	67	1
87	88	1
38	86	1
98	107	1
37	68	4
57	58	1
84	84	7
58	63	2
24	98	1
27	27	3
79	82	1
60	74	1
29	30	1
100	102	1
37	92	1
83	89	1
42	44	2
53	55	1
85	90	2
102	105	1
39	58	1
60	69	1
50	92	1
52	61	1
82	82	1
55	56	1
48	49	2
40	87	1
71	76	1
38	85	1
53	72	1
34	38	1
26	50	1
