76	76	6
67	67	24
51	51	23
70	70	35
74	74	15
26	94	2
91	99	1
43	59	1
44	44	20
25	26	4
54	98	2
52	59	4
72	72	22
26	26	9
41	41	28
34	45	2
58	58	17
55	55	16
101	102	9
34	34	9
99	99	46
71	71	20
87	87	16
85	87	2
53	53	23
42	42	20
66	74	3
77	77	13
38	38	16
67	74	7
91	92	6
70	75	6
57	57	26
85	92	1
91	91	27
36	43	3
100	100	12
85	85	16
90	91	10
45	46	9
86	86	18
52	52	33
50	50	11
93	93	24
59	63	1
75	75	24
94	94	4
83	83	10
25	27	2
79	97	13
42	51	2
31	31	22
80	80	21
100	101	12
40	40	19
60	86	2
56	56	16
54	54	9
24	26	5
62	63	12
61	61	23
101	101	24
40	42	4
60	61	24
67	68	6
65	65	37
66	66	17
47	47	12
48	48	23
87	94	1
63	64	16
20	22	5
49	49	19
36	36	9
28	28	1
46	46	19
46	47	8
85	90	1
59	59	18
84	89	4
47	48	5
39	54	2
36	37	5
63	63	18
27	46	3
55	100	1
73	73	19
96	97	5
64	64	37
99	100	8
76	77	7
42	43	8
44	74	1
50	51	6
72	73	2
43	43	24
35	35	10
32	32	15
49	50	12
69	91	2
45	45	12
91	93	6
81	81	19
86	94	3
63	75	1
38	49	4
26	27	4
95	98	8
61	97	3
40	41	6
78	78	24
51	80	3
73	74	5
68	69	6
69	69	19
88	88	5
89	89	12
65	66	4
61	87	3
40	52	1
90	90	24
92	92	25
38	40	1
60	60	18
69	76	6
93	94	2
37	37	4
80	83	1
39	39	12
23	24	2
52	95	1
44	73	1
53	54	14
97	98	7
68	68	11
59	60	3
60	67	6
85	86	6
98	98	13
48	83	5
46	66	3
86	92	2
35	38	1
58	96	1
98	99	3
79	79	8
34	86	5
48	49	7
92	93	5
65	67	7
81	82	3
41	42	15
95	95	9
56	60	3
97	100	2
40	73	6
78	79	7
55	57	6
50	81	7
41	90	4
30	35	4
36	38	8
25	25	7
86	88	2
33	34	3
69	70	10
58	59	6
96	96	14
62	62	10
30	30	5
37	38	9
94	97	5
79	80	6
82	84	1
41	55	4
52	53	9
97	97	3
28	29	3
52	55	5
86	87	3
61	62	4
27	27	4
46	50	2
102	102	5
71	76	1
20	24	5
39	40	5
57	64	1
47	59	1
22	22	5
30	49	3
84	84	4
87	89	3
80	84	1
71	72	6
64	74	2
51	52	5
94	95	2
81	94	2
33	33	7
38	39	1
29	30	4
83	93	4
55	56	2
80	81	7
62	99	1
64	65	1
56	58	1
74	75	3
44	45	3
53	55	2
38	43	2
49	51	2
89	90	1
66	73	1
83	84	10
66	67	4
44	48	2
32	78	1
43	44	1
65	77	2
94	98	3
45	51	1
94	96	1
42	44	1
20	20	1
89	93	2
87	88	3
29	34	1
74	77	1
73	76	5
68	70	2
64	67	1
75	76	6
47	68	1
70	71	4
61	88	1
54	102	4
46	70	3
60	66	3
21	71	2
80	82	2
77	78	1
31	78	1
92	95	1
54	55	3
95	96	2
46	49	1
71	73	1
33	38	1
62	89	1
72	93	1
95	97	1
84	92	1
24	25	1
67	71	1
59	99	1
60	81	2
68	71	2
39	43	2
86	89	2
94	99	3
50	52	1
62	79	1
30	41	1
82	82	1
75	90	1
57	58	1
97	101	1
61	64	1
47	88	1
70	74	1
38	54	1
78	99	1
32	53	1
45	48	1
65	72	1
34	35	1
