35	36	1
37	37	4
18	33	2
82	82	1
38	38	5
162	163	3
42	47	1
195	195	4
163	163	2
223	223	4
53	54	3
135	135	1
216	216	1
190	198	3
19	34	2
209	209	7
191	191	3
208	208	5
49	49	2
153	153	2
44	137	3
61	61	3
150	150	2
76	76	6
190	190	5
136	136	4
214	214	1
22	22	2
115	115	5
36	39	4
24	24	8
174	174	7
65	65	4
148	149	1
52	52	5
221	225	2
79	79	1
171	171	3
159	159	4
10	153	3
172	172	4
211	211	6
80	80	6
54	63	3
27	27	4
84	84	7
80	81	2
182	182	9
41	42	2
220	221	7
82	83	1
35	35	5
226	227	1
102	102	6
141	141	3
59	60	4
66	66	2
174	192	1
64	64	5
228	228	1
179	184	1
2	4	1
102	110	1
114	115	4
11	16	3
188	189	5
178	178	4
11	12	2
236	236	1
109	109	5
127	127	1
181	186	5
74	74	5
51	56	2
116	117	2
21	21	3
223	224	4
57	75	2
205	205	4
17	34	1
212	212	8
78	78	1
130	130	5
156	156	4
207	228	2
162	165	1
68	68	6
60	75	2
26	26	7
204	224	1
237	237	3
79	80	4
189	189	9
116	116	3
28	192	1
96	96	1
36	122	3
101	102	3
20	20	2
34	35	1
1	114	1
108	142	1
45	45	1
113	113	1
62	62	1
11	11	9
206	206	1
89	89	4
195	197	3
160	160	5
58	60	1
164	164	2
230	230	5
123	123	4
10	10	5
5	5	2
225	226	3
151	151	4
31	32	3
235	235	1
8	8	6
22	33	1
161	161	3
57	60	2
232	232	2
85	86	2
40	48	4
170	173	2
146	146	2
137	138	7
19	19	5
56	56	2
197	197	1
183	185	1
16	16	1
152	152	3
175	176	1
29	29	2
198	199	1
213	213	6
179	179	2
106	106	4
21	22	5
83	83	4
128	128	1
32	33	1
175	175	2
184	200	1
100	100	1
145	145	2
199	230	1
210	210	4
173	173	4
27	46	1
153	154	2
176	177	2
174	175	3
134	134	2
49	50	2
0	0	2
135	136	2
81	82	6
50	50	2
180	186	3
229	229	4
66	68	2
231	231	1
160	183	1
157	157	2
140	140	1
103	104	5
6	125	1
180	185	2
170	170	2
50	78	2
15	15	3
136	137	5
241	242	3
48	50	7
80	83	1
203	204	1
123	125	2
32	32	2
95	95	2
156	157	2
154	154	2
197	209	1
97	97	3
169	172	2
68	69	2
1	1	3
27	28	1
2	13	3
41	106	2
2	6	3
56	57	2
126	127	3
9	102	2
224	224	4
175	177	2
0	102	2
103	103	1
125	125	3
29	39	2
41	41	2
110	110	2
167	167	3
133	133	1
31	33	1
152	153	2
172	173	1
70	70	2
67	67	2
198	198	2
115	116	3
189	190	3
4	7	2
25	25	3
45	46	1
57	57	2
207	209	1
88	89	2
69	69	2
143	143	3
39	39	3
74	78	1
129	130	1
86	86	1
201	201	1
77	77	1
177	188	1
210	211	3
179	183	2
196	196	2
25	26	1
80	82	1
17	17	1
51	52	1
169	169	2
135	145	1
192	192	3
99	99	2
23	48	1
180	180	3
16	17	2
201	202	2
8	11	1
126	129	1
0	122	1
40	40	5
162	162	1
109	143	1
79	88	1
43	44	2
28	28	2
202	202	2
30	35	1
224	225	4
212	227	1
91	95	3
9	9	2
30	32	1
104	104	2
8	28	2
38	39	1
133	134	2
40	42	1
220	220	1
88	91	1
63	63	1
14	15	2
12	13	1
171	172	1
188	188	1
169	173	1
135	143	1
200	200	2
119	119	1
198	225	1
129	133	2
37	42	1
101	101	1
66	67	1
6	154	1
126	126	1
137	137	1
47	62	1
37	61	2
83	84	1
169	174	1
234	235	2
181	181	3
213	227	3
214	219	1
161	171	1
19	21	1
27	47	1
48	52	1
86	101	1
131	131	1
98	100	1
46	46	1
169	170	1
128	131	1
98	99	1
20	44	1
43	43	2
207	207	1
187	187	1
174	178	1
3	5	1
226	226	1
177	178	1
36	36	1
236	238	1
3	9	1
147	151	1
47	47	1
67	74	1
148	148	1
