32	32	12
85	125	4
157	157	3
52	88	1
10	17	8
141	159	1
23	23	7
65	65	7
79	126	4
19	20	10
8	9	6
60	60	1
64	64	10
99	118	4
142	160	4
15	16	8
118	118	14
180	180	6
143	143	10
26	45	4
163	163	8
154	154	5
39	39	11
29	29	6
140	140	4
75	78	3
6	6	17
90	180	3
98	98	4
77	77	9
24	25	2
105	106	8
0	0	3
75	82	3
44	44	6
129	130	5
110	111	1
78	174	2
5	6	8
161	161	4
2	3	6
3	3	10
24	31	1
159	159	1
75	81	2
23	40	1
107	107	11
9	9	17
104	104	7
128	155	5
136	155	3
53	139	1
27	27	7
15	15	15
18	18	2
19	23	1
18	44	1
79	79	1
108	111	1
26	27	5
151	151	7
50	136	4
10	11	8
57	57	4
61	141	3
86	92	4
68	68	7
11	11	16
97	171	2
156	156	8
73	75	1
150	150	6
169	170	2
141	141	4
119	120	6
36	36	9
136	136	4
139	139	4
30	33	1
102	103	6
24	24	7
40	40	7
52	52	9
27	29	1
131	131	8
101	102	2
41	44	1
22	36	1
51	51	9
121	121	9
22	23	7
20	20	6
23	28	1
76	76	8
7	7	5
55	55	2
127	127	5
130	130	4
81	81	6
116	117	1
4	4	13
37	38	5
96	163	3
76	77	5
12	12	5
61	98	2
57	122	3
151	173	2
33	33	8
145	145	3
73	73	10
18	19	5
25	26	3
113	169	2
17	18	4
26	26	8
35	35	21
134	176	2
36	44	1
110	110	4
25	25	21
2	2	2
31	31	6
6	9	1
95	140	1
71	72	3
138	172	4
35	36	5
125	125	3
115	138	4
43	43	8
57	133	4
148	149	1
147	147	4
28	28	6
109	120	3
122	179	3
3	41	4
166	166	11
104	105	2
142	142	7
176	176	6
38	38	8
2	6	3
9	11	3
10	10	10
177	177	2
14	14	9
8	8	6
9	10	4
99	100	3
101	101	9
41	41	7
17	35	4
41	42	5
179	179	2
95	96	1
141	142	2
86	86	2
58	58	11
5	5	12
70	86	4
5	7	1
22	22	7
106	107	1
175	176	2
128	128	2
37	37	9
67	111	5
160	162	5
13	16	2
13	31	5
82	82	6
112	138	2
7	11	4
108	109	18
135	135	2
53	53	11
164	164	4
126	127	2
17	44	1
137	171	2
91	91	2
106	106	8
158	158	3
87	87	8
9	44	2
149	149	10
170	170	4
31	33	1
168	168	7
71	71	8
11	12	4
6	22	1
109	109	8
146	147	1
146	174	2
6	15	1
119	153	3
30	30	9
16	18	1
13	13	7
56	58	1
135	137	1
93	127	4
166	167	3
19	19	1
112	113	4
115	115	2
3	4	3
129	129	3
77	103	1
141	150	3
63	164	3
173	174	1
172	172	4
38	39	3
83	151	1
54	54	2
137	137	5
138	138	5
54	56	1
96	98	4
132	132	7
163	164	2
65	156	6
80	126	2
22	42	3
61	61	6
75	75	5
123	131	5
147	148	1
6	7	4
67	67	6
62	113	3
88	88	1
36	37	3
4	9	2
159	164	2
158	161	1
127	130	3
34	36	2
56	56	16
152	152	4
50	50	4
157	166	3
123	123	8
73	83	1
15	44	3
61	62	6
19	40	2
40	41	1
80	118	1
169	178	1
56	156	2
63	115	1
1	1	5
143	168	8
52	53	4
92	92	4
66	67	4
34	34	10
82	139	1
85	85	1
133	133	6
117	138	1
67	68	3
39	40	2
45	45	2
7	8	4
16	16	4
35	138	1
4	140	1
174	180	2
17	17	9
166	170	7
144	144	5
164	173	2
60	86	1
159	162	2
27	28	5
70	78	3
143	144	1
43	44	2
89	124	2
50	117	3
64	65	1
145	147	2
63	63	3
22	38	2
32	33	6
95	95	8
50	87	1
62	136	4
70	71	3
175	175	9
73	74	1
42	43	3
154	155	1
78	81	2
93	93	2
21	21	5
174	174	3
108	113	1
12	14	2
14	23	1
42	44	6
105	105	3
155	155	1
103	168	2
120	121	6
5	27	4
113	115	1
61	136	1
8	16	3
163	178	1
123	125	3
115	117	1
62	62	3
78	79	1
133	143	2
173	173	2
84	120	3
0	1	3
24	30	1
75	94	2
125	144	1
103	103	2
46	46	1
80	136	2
96	96	5
2	4	2
94	176	5
13	17	2
160	160	2
115	168	4
123	162	1
151	152	2
20	23	1
23	31	1
2	45	2
67	73	1
126	126	3
103	137	1
18	22	3
4	16	2
124	124	3
64	79	2
100	141	1
116	116	5
19	21	2
13	32	1
171	171	1
16	17	5
3	8	1
134	134	4
20	21	3
38	44	1
117	168	1
91	130	3
42	42	2
87	117	2
74	74	2
38	112	1
74	75	2
177	180	3
167	167	4
154	156	2
60	90	2
72	139	1
138	168	1
122	122	4
80	80	6
2	31	3
28	29	5
167	168	4
122	124	2
83	83	3
81	82	1
7	9	1
61	110	6
127	135	1
169	169	5
164	167	3
12	13	5
121	122	1
19	22	1
148	159	1
55	81	1
14	40	1
40	170	1
10	18	1
7	15	1
79	80	2
40	82	1
83	88	1
51	165	1
174	175	2
7	140	1
114	114	2
164	165	1
67	155	1
10	19	1
5	22	3
156	162	1
2	21	1
21	23	2
56	57	1
94	94	4
73	123	3
64	152	1
99	99	2
11	31	2
58	59	2
142	180	1
155	159	1
114	115	1
5	11	1
28	33	1
10	35	3
32	134	1
54	74	1
129	161	1
102	102	2
91	92	2
75	76	1
153	153	1
127	128	1
11	140	1
23	30	2
121	179	1
80	120	2
63	113	1
76	126	2
40	43	2
66	66	1
60	133	1
29	34	2
50	51	1
18	45	1
96	171	1
119	119	1
142	143	1
23	38	1
25	35	1
106	122	1
18	65	1
165	167	1
7	35	1
170	171	1
146	146	1
132	133	1
90	165	1
43	45	2
121	125	1
158	168	1
37	172	1
13	41	1
12	20	1
132	148	1
55	56	1
55	122	1
99	101	1
90	90	1
128	129	1
159	161	1
66	130	1
120	128	1
24	27	1
152	153	1
33	34	1
170	177	1
21	31	1
22	33	1
87	169	1
73	152	1
100	145	1
