85	93	3
63	79	3
26	26	13
68	68	6
105	105	15
150	151	3
79	79	3
45	46	7
64	64	7
130	130	13
17	18	5
112	113	3
95	132	2
14	14	14
147	147	6
111	111	12
25	27	3
46	46	11
23	23	12
97	97	3
8	8	9
40	40	8
125	125	5
138	138	2
45	45	18
18	18	11
20	21	1
13	13	24
31	32	9
68	69	1
13	14	1
118	118	5
126	137	2
51	56	3
122	145	2
48	53	1
47	47	10
49	50	7
57	57	5
37	48	4
4	6	2
52	54	2
56	65	1
136	136	4
24	37	2
33	33	16
93	93	9
24	25	7
139	149	2
49	49	4
74	74	4
77	78	6
33	35	2
39	47	5
43	44	8
55	64	2
85	85	8
77	79	1
129	129	5
67	67	8
57	58	2
142	142	11
141	141	6
95	135	4
11	11	15
21	93	7
67	80	3
143	144	4
36	36	8
82	95	2
94	94	10
139	139	14
62	64	4
109	109	3
43	43	11
69	69	7
6	97	3
65	66	1
25	26	5
28	28	17
129	130	3
24	30	3
81	81	2
42	43	4
102	102	12
127	127	3
30	69	1
7	7	4
54	54	11
148	148	3
41	119	3
137	137	9
93	94	4
55	56	1
145	146	4
37	37	8
93	98	1
100	100	6
128	128	7
82	139	1
4	4	3
122	144	3
93	97	3
74	77	1
5	30	1
121	122	5
53	53	10
84	86	8
116	116	5
124	124	4
50	56	2
86	86	7
31	31	11
44	45	10
53	54	7
14	15	8
35	35	9
117	117	4
129	154	4
123	134	2
66	95	2
122	122	5
115	115	1
120	120	9
39	51	1
41	41	4
78	78	3
104	110	2
54	55	4
131	134	4
24	24	13
62	63	7
95	139	1
26	63	2
16	16	8
51	51	4
34	34	8
10	10	9
108	108	6
27	28	2
42	42	9
134	135	2
3	3	2
3	28	3
119	119	4
83	86	7
44	44	5
92	93	6
77	77	11
101	149	1
28	34	5
118	123	1
100	101	6
65	65	6
90	90	3
11	14	1
145	145	6
73	121	4
102	108	1
30	35	4
144	154	2
35	57	2
29	29	13
129	133	2
117	153	1
113	113	6
22	22	2
75	75	10
28	36	2
76	77	6
91	91	4
83	83	8
79	80	1
32	106	2
15	21	1
133	133	11
98	98	9
84	85	2
24	31	2
84	143	1
4	5	4
38	50	1
34	36	4
131	133	4
109	112	1
35	36	9
28	139	1
67	89	1
95	95	3
132	132	10
25	25	4
82	82	9
66	66	7
14	56	1
103	103	1
26	78	2
115	116	1
5	6	5
27	27	10
63	67	3
134	134	6
152	152	2
153	153	2
51	74	3
54	56	2
49	52	2
73	73	4
150	152	2
9	10	1
130	131	1
98	99	3
40	71	3
24	122	1
154	154	6
13	15	6
127	128	12
48	48	2
92	92	4
110	110	4
117	130	1
19	25	1
46	96	2
30	30	6
125	137	4
110	131	2
51	55	3
8	36	1
21	26	1
84	84	5
64	87	1
106	113	3
14	22	2
94	137	1
136	137	4
146	147	2
105	108	2
75	78	1
132	133	2
151	152	4
21	22	6
24	27	1
64	73	1
112	112	4
86	87	3
12	12	5
74	94	2
5	5	3
71	71	3
87	87	2
83	84	1
7	8	7
133	134	3
128	134	2
63	63	8
65	95	1
124	125	1
8	9	4
78	79	5
63	82	6
41	43	4
144	150	3
97	98	6
39	40	3
143	143	2
146	146	2
123	124	4
85	86	3
138	139	4
6	34	3
11	29	1
9	9	6
37	49	3
32	33	8
109	111	5
70	70	13
38	38	7
51	52	1
2	36	1
13	57	1
84	144	1
67	69	1
75	76	7
26	33	2
135	135	4
106	106	2
94	98	3
26	27	3
66	114	2
126	128	1
21	21	5
131	131	8
26	28	1
94	95	1
64	76	2
144	144	2
96	99	2
150	150	4
66	67	2
34	37	2
96	96	3
63	86	3
36	38	1
38	51	1
19	19	5
111	119	1
12	17	1
149	149	3
71	73	3
95	99	7
32	73	1
106	131	1
77	96	1
103	105	2
62	78	5
30	31	2
8	41	2
30	32	1
61	62	1
38	39	6
2	2	3
47	100	3
15	15	9
110	130	1
117	118	1
63	64	4
119	120	3
111	114	2
73	98	1
22	23	2
129	137	2
39	39	12
41	42	1
57	66	2
50	84	3
55	55	1
50	52	4
106	149	1
64	132	1
94	99	1
56	132	3
72	72	4
47	48	6
64	66	2
106	107	1
16	17	2
20	20	8
6	83	1
6	15	1
147	154	1
65	74	1
58	58	2
4	66	2
68	82	1
126	142	1
128	140	1
80	83	2
50	50	2
8	42	1
95	98	3
32	32	3
149	150	1
80	80	4
12	26	1
95	97	4
41	47	1
115	129	3
65	75	3
101	150	1
126	127	1
135	138	1
80	88	1
24	38	1
76	76	3
15	23	1
6	6	3
49	119	2
33	69	3
24	35	1
37	38	1
10	96	2
51	75	1
34	35	2
20	119	2
13	16	1
108	109	2
65	78	2
55	66	1
13	17	2
144	147	1
114	114	2
21	23	1
25	35	1
66	77	2
92	143	2
88	97	1
80	82	1
46	47	1
126	126	4
69	84	1
18	19	1
128	138	2
76	152	1
98	102	2
10	16	2
130	136	1
77	80	1
82	149	1
123	125	1
74	98	2
110	112	1
19	20	1
66	131	2
99	121	1
123	123	3
50	51	2
142	143	1
90	122	1
38	40	1
40	52	1
110	114	1
138	146	1
148	151	3
32	34	1
33	56	1
44	46	4
125	127	3
102	129	1
35	40	1
99	99	1
66	68	2
39	92	2
58	62	1
89	90	1
10	13	1
15	16	1
37	43	3
72	73	2
64	79	1
39	71	1
63	111	1
63	84	1
85	130	2
92	98	2
66	79	1
31	34	1
68	131	1
12	94	1
52	53	1
131	137	2
140	141	1
139	141	1
25	29	1
110	146	3
81	86	2
145	147	1
105	111	1
61	82	1
11	96	1
8	98	1
49	54	1
19	21	1
100	106	1
139	150	1
94	121	1
9	129	1
56	56	3
107	107	1
33	34	1
124	128	2
17	17	1
3	26	1
143	146	1
68	76	1
41	142	1
94	96	1
8	12	1
70	80	1
45	115	1
50	83	1
38	49	1
115	130	1
46	56	1
34	71	1
6	25	1
27	29	1
81	82	1
