26	26	23
56	56	16
46	46	20
25	25	6
16	17	13
7	8	7
76	76	14
41	41	21
27	28	11
78	78	26
36	36	6
0	33	2
29	29	11
11	13	3
11	11	20
47	47	16
60	60	12
79	79	11
12	12	18
66	67	11
31	32	4
53	61	1
33	33	16
38	38	25
31	54	2
44	45	5
19	19	18
63	63	11
31	31	12
54	54	14
14	14	13
11	12	5
77	78	12
35	36	5
58	58	16
57	58	4
1	2	8
54	61	3
2	5	1
31	55	8
48	48	9
39	39	20
52	52	10
22	32	6
49	49	15
8	9	3
64	65	7
2	3	2
8	20	4
72	72	10
36	39	4
5	5	15
80	80	15
13	13	11
74	74	15
1	1	28
5	6	11
64	64	11
17	17	12
49	52	7
46	47	7
30	32	4
61	61	18
48	54	3
15	16	10
70	71	12
58	59	6
21	21	9
13	14	7
37	38	6
3	3	14
30	54	3
62	62	15
56	57	8
43	43	7
9	9	6
50	51	4
75	76	4
52	65	4
17	60	3
52	53	3
69	70	5
45	45	9
32	32	12
59	59	14
16	16	4
0	2	2
55	59	4
4	4	7
66	66	13
75	75	14
26	50	4
32	33	9
70	72	1
61	62	5
11	28	2
30	30	6
67	67	11
49	54	2
15	15	5
53	53	11
17	56	4
75	77	3
41	42	7
66	70	6
63	64	6
35	35	16
37	37	12
1	80	2
0	0	1
71	71	13
9	10	3
10	10	5
47	48	8
12	13	19
51	52	1
13	21	2
65	65	10
40	41	8
3	46	7
55	55	19
28	29	5
30	49	1
10	12	7
7	7	11
67	68	4
50	50	10
44	44	5
48	49	1
42	42	16
53	54	2
65	66	4
40	40	10
51	65	8
20	21	4
73	73	6
11	14	2
70	70	8
41	46	10
45	46	4
49	53	2
27	27	11
32	35	1
0	73	5
74	75	5
32	34	2
6	7	3
33	50	4
10	20	2
32	80	4
10	14	2
69	69	6
20	20	11
42	43	5
4	5	5
68	70	4
30	55	7
3	5	1
78	80	1
28	28	5
2	65	1
51	64	1
45	47	1
49	50	5
31	51	2
32	52	3
41	45	2
31	53	2
34	35	3
55	56	2
77	77	6
33	34	2
79	80	5
68	68	9
71	75	2
8	18	1
71	72	6
36	37	1
32	50	2
33	48	3
50	52	1
3	47	3
2	2	8
16	19	1
30	31	1
34	34	2
26	32	1
13	15	3
4	64	2
17	61	2
38	39	4
56	71	3
78	79	4
3	6	1
68	69	2
52	64	2
28	30	1
72	73	1
9	11	2
26	48	1
30	59	1
57	57	5
2	4	2
29	55	1
17	26	1
6	6	4
59	60	1
73	74	1
1	66	1
11	29	1
8	8	5
18	18	2
18	56	1
32	53	3
21	26	1
62	63	1
25	62	2
2	80	1
76	78	1
8	19	1
29	30	1
36	45	1
3	4	2
26	27	1
31	63	1
20	26	1
12	14	1
27	58	1
0	1	1
