99	99	7
24	28	1
82	121	2
105	106	1
87	87	2
7	7	3
3	3	5
116	124	2
135	135	5
133	133	6
130	130	14
117	117	2
86	86	3
85	120	3
134	134	7
102	102	3
26	26	11
80	107	4
72	72	6
80	80	3
128	128	6
127	127	4
124	124	6
110	110	2
82	82	4
24	87	3
3	4	3
1	1	4
89	89	22
75	76	7
16	16	6
124	125	3
19	19	5
110	111	2
120	121	4
27	32	5
101	101	6
14	94	2
2	2	7
5	5	3
36	36	5
129	129	7
7	10	5
131	131	10
9	9	1
139	139	1
21	29	2
23	23	2
34	36	1
77	77	3
134	135	3
84	84	2
119	119	4
78	78	4
81	81	3
121	121	3
101	102	2
25	25	6
95	95	9
22	22	9
104	106	1
137	137	9
12	15	2
8	27	4
90	94	3
136	136	4
93	140	2
103	104	1
101	110	2
91	92	5
74	74	4
126	126	12
31	31	1
126	127	2
136	137	3
88	89	4
123	123	2
116	116	10
97	97	6
8	10	1
72	78	1
19	21	8
103	103	4
106	106	6
26	27	5
10	11	5
10	10	6
35	35	1
0	1	2
84	119	1
113	114	3
13	13	1
100	100	7
113	113	6
24	84	2
118	118	3
93	93	3
107	108	1
11	12	1
131	138	4
11	84	3
33	33	3
10	13	4
138	138	5
35	88	4
24	27	2
91	91	6
140	140	7
95	124	1
104	104	7
17	19	2
74	75	1
138	141	1
37	38	1
28	90	1
18	18	2
20	20	6
109	109	4
38	38	2
6	6	1
127	128	2
36	138	2
80	103	4
21	21	3
131	132	1
132	132	6
97	124	1
115	138	1
100	101	2
114	114	1
37	79	4
12	12	2
79	79	1
8	9	2
114	125	2
91	93	1
88	88	1
10	26	1
117	118	1
10	24	3
17	17	1
3	92	1
105	122	1
115	115	3
14	93	2
37	82	2
14	14	1
98	98	2
15	15	1
11	11	2
135	136	3
122	122	3
120	122	2
102	112	2
34	34	2
112	112	3
103	105	2
105	108	2
105	105	2
22	25	2
99	114	1
132	133	1
33	96	2
75	77	1
24	24	1
1	10	3
14	98	1
5	20	1
18	21	1
112	126	3
121	122	3
108	108	2
2	5	2
20	21	2
10	27	1
91	102	2
0	0	1
99	124	1
37	37	2
125	128	2
85	109	1
121	123	1
73	73	1
90	90	2
113	136	2
126	129	1
30	30	1
17	29	1
104	109	1
114	127	1
84	85	1
109	110	1
131	137	1
120	120	1
8	8	2
4	4	1
12	20	1
38	120	1
