238	238	9
223	223	8
15	169	3
224	227	2
180	180	11
50	50	11
50	65	3
62	78	2
154	154	23
20	20	14
4	4	8
88	89	10
172	172	10
153	168	1
114	114	9
160	160	22
22	23	3
237	238	7
37	37	7
8	8	10
64	64	20
163	164	8
118	118	13
10	11	1
197	197	11
16	16	8
226	226	12
85	85	9
65	68	4
205	205	16
30	110	2
212	212	18
199	200	9
47	47	11
73	91	2
76	77	1
158	158	12
120	120	4
44	205	3
17	18	6
164	164	16
28	28	20
240	241	9
231	231	8
176	176	8
242	242	8
28	205	7
237	237	15
15	15	16
162	163	11
157	157	10
111	111	10
193	202	5
182	182	9
55	55	9
150	153	2
96	96	10
10	10	11
29	29	7
236	237	7
232	232	7
78	78	9
177	177	14
246	246	21
236	242	4
30	31	2
88	88	13
52	53	1
171	172	10
87	93	3
209	236	8
247	247	6
161	161	17
82	82	10
97	98	6
237	247	3
159	159	11
162	165	3
220	220	8
101	105	3
80	82	1
97	97	6
151	152	3
45	45	15
188	188	12
241	241	14
208	208	17
208	209	7
105	108	5
42	42	6
19	19	14
63	63	6
9	9	11
168	173	5
184	185	3
163	163	14
171	171	6
34	34	9
70	94	3
80	80	12
21	21	16
173	173	3
167	167	16
200	200	14
166	167	3
33	33	21
117	118	6
58	58	10
57	58	4
53	106	3
156	156	21
26	27	2
61	62	11
240	240	8
46	46	11
170	170	14
166	166	9
193	194	5
18	18	3
72	92	1
27	27	11
215	215	11
17	17	17
106	107	3
94	101	3
47	48	4
210	219	5
227	228	2
147	147	12
56	58	1
61	79	6
59	59	12
12	48	2
30	30	16
116	116	11
106	106	6
24	25	9
167	169	9
79	83	4
64	65	8
217	217	5
65	65	11
204	204	19
0	1	5
31	32	4
113	113	5
89	89	4
66	67	1
214	244	2
238	242	4
36	36	12
102	102	8
70	70	23
196	197	4
244	244	17
41	41	13
68	156	2
208	210	6
244	246	2
221	221	12
239	240	9
4	18	2
173	190	2
178	178	10
59	81	3
7	8	9
24	24	10
219	220	5
54	54	9
93	96	2
43	44	9
183	184	6
67	76	1
62	64	4
115	116	2
210	211	7
175	177	3
55	79	4
144	145	3
53	53	9
49	49	12
114	115	7
236	246	2
192	193	5
94	109	2
187	189	6
95	102	3
154	219	5
225	234	2
165	166	12
203	203	12
110	110	12
210	210	19
229	230	8
35	37	9
169	169	5
51	51	8
165	165	3
44	45	1
52	52	11
151	151	15
95	95	10
44	87	1
18	204	4
42	218	2
190	190	12
198	199	6
56	57	2
5	38	4
187	188	3
214	214	13
77	77	11
201	202	10
3	3	4
45	110	3
73	73	11
65	67	5
84	84	8
29	30	6
56	56	4
170	191	6
248	248	5
33	34	4
197	198	7
191	192	1
43	43	20
179	181	3
111	112	6
230	230	12
100	101	11
69	70	4
23	23	5
62	62	6
5	5	3
105	105	9
73	74	2
192	192	3
66	74	2
174	191	2
173	204	3
86	86	7
42	43	7
229	229	7
212	219	5
5	99	3
38	39	3
185	186	11
150	150	11
50	62	4
224	232	3
46	47	7
175	176	8
185	185	16
85	99	2
176	177	5
184	184	10
189	189	3
209	209	4
190	191	7
68	71	5
225	225	8
207	207	12
80	85	2
232	233	20
202	203	8
73	75	5
86	95	5
94	94	6
4	26	1
39	40	4
58	60	4
158	159	4
235	235	8
217	218	1
154	186	3
175	175	7
227	227	8
152	167	8
67	67	5
116	117	5
65	66	4
103	104	3
210	241	1
10	54	2
202	202	4
153	153	8
26	150	2
69	69	3
7	7	17
102	104	9
179	183	4
218	218	6
78	105	2
12	12	12
211	211	9
22	22	7
154	244	3
180	186	1
13	13	1
54	55	6
238	239	11
79	79	7
186	189	3
31	31	5
58	78	2
99	99	2
185	189	1
191	191	7
179	180	8
79	104	2
195	196	5
18	19	5
189	190	8
210	212	1
235	236	4
179	179	4
50	63	3
210	214	3
108	168	4
183	183	8
189	198	3
82	88	3
206	207	6
11	11	8
25	25	6
100	100	15
203	204	2
55	56	6
211	213	5
198	198	8
245	245	13
58	82	2
107	107	9
61	61	6
90	102	4
23	24	2
245	246	12
43	93	1
34	35	3
233	234	6
58	59	2
81	88	6
193	193	8
76	76	6
167	171	2
84	90	1
26	26	5
170	171	3
167	229	2
217	219	3
72	72	3
199	239	2
84	85	4
54	83	1
186	186	4
109	109	3
209	210	2
216	217	2
174	174	8
156	201	1
119	119	10
218	244	1
155	203	6
110	112	2
87	87	3
14	14	13
91	91	13
163	196	4
144	149	1
34	200	2
199	209	1
5	16	1
218	220	1
85	86	2
3	37	2
93	93	4
41	42	5
247	248	1
152	152	8
157	158	7
52	78	5
67	69	4
38	38	8
59	60	3
59	169	4
5	40	2
70	153	3
28	38	1
234	234	7
197	201	5
178	179	4
168	168	7
91	92	6
2	30	1
78	79	4
233	246	1
187	187	11
83	83	3
163	176	2
48	48	9
32	53	3
71	79	1
31	62	4
174	190	1
6	6	5
32	32	6
20	114	1
111	149	2
205	206	3
6	7	3
234	248	1
212	213	1
35	178	2
105	107	3
201	204	2
48	49	2
241	242	9
202	207	3
103	119	1
99	100	7
98	98	7
225	226	4
72	73	3
30	149	1
75	75	4
92	107	1
48	50	5
192	195	3
66	66	7
174	183	2
219	219	2
83	88	2
112	244	1
176	184	2
213	214	7
172	173	4
80	170	2
3	4	6
214	215	3
90	91	6
92	93	5
101	102	1
12	153	3
68	68	8
1	1	15
90	90	9
16	156	1
224	224	8
49	66	3
112	112	5
25	26	2
53	57	1
164	196	2
20	39	3
154	203	2
234	235	5
44	235	2
248	249	2
102	112	3
47	240	3
220	221	4
77	81	2
201	201	4
233	235	4
62	168	2
57	57	6
119	163	1
14	15	2
35	218	2
225	232	5
117	117	11
73	90	1
71	71	3
181	181	4
155	155	10
60	61	3
103	103	5
118	119	4
212	231	5
243	243	2
216	216	6
204	205	1
86	88	2
215	242	2
95	164	1
180	181	3
94	97	3
145	209	1
213	213	8
51	182	3
175	184	2
204	231	5
187	202	4
35	35	8
213	215	1
4	5	2
171	184	1
74	88	1
37	53	2
101	101	9
11	48	1
47	51	3
2	2	3
205	236	8
102	103	2
42	45	1
152	153	2
184	186	6
97	103	5
199	199	5
36	183	1
108	109	2
214	245	2
177	184	1
169	170	6
221	222	2
102	105	1
115	115	7
200	201	5
211	212	1
162	166	3
172	191	2
3	25	1
150	151	4
187	190	7
194	194	4
60	175	1
71	73	2
110	237	1
239	239	4
68	69	2
236	236	2
104	104	1
104	105	1
198	200	1
162	162	10
28	31	1
239	242	3
156	157	2
230	233	1
37	39	3
2	25	2
95	96	1
177	198	1
19	204	2
21	108	3
210	234	1
53	59	1
121	144	1
48	189	2
93	94	4
85	95	3
151	224	1
27	28	1
146	153	1
167	170	1
172	231	1
53	93	1
237	242	3
114	116	2
66	76	4
20	22	1
36	39	1
19	21	1
159	166	4
48	51	1
83	104	1
52	156	1
170	172	2
29	31	4
95	98	2
87	89	4
107	108	3
66	79	1
33	61	1
49	50	2
19	203	3
81	83	5
245	247	2
41	229	2
232	234	1
101	112	1
69	72	2
98	99	1
179	200	3
87	88	3
76	79	3
74	82	1
101	104	2
73	87	2
163	167	1
163	166	3
68	73	3
8	9	4
244	247	3
90	92	1
83	84	3
206	206	1
44	44	3
197	234	2
28	180	1
45	227	1
207	208	5
120	168	2
18	202	2
171	176	1
39	39	1
110	144	1
190	194	2
111	246	1
62	63	4
89	93	2
28	29	1
113	115	3
53	60	2
78	84	1
89	90	1
117	119	3
145	145	1
75	107	2
5	77	1
67	74	1
237	244	2
191	208	1
66	71	2
12	14	1
81	93	1
35	200	2
185	190	2
118	243	1
8	10	4
224	226	4
192	202	1
173	174	3
40	40	2
45	221	1
7	11	1
194	196	2
74	74	3
168	180	1
189	191	1
81	82	2
237	246	2
216	221	3
155	156	3
210	243	1
160	161	1
201	212	1
197	199	1
46	52	1
112	114	1
189	213	1
192	199	1
14	170	2
158	161	1
66	107	1
228	228	1
101	107	1
225	228	3
170	190	2
95	99	1
7	70	3
215	216	4
184	209	1
56	82	2
108	237	3
60	60	1
113	116	1
159	160	1
106	108	2
25	27	1
144	144	1
160	177	1
59	62	3
195	195	1
116	118	2
30	114	1
61	170	1
87	92	1
57	82	1
243	245	1
44	110	1
20	203	1
218	219	2
196	196	1
196	199	3
218	221	1
160	194	1
55	61	1
238	240	1
160	167	2
76	83	1
51	52	1
71	72	3
180	182	2
83	85	2
15	181	1
92	92	1
181	182	1
50	51	1
115	118	1
63	64	1
172	187	1
40	234	1
231	234	1
177	183	3
118	248	1
211	235	1
31	35	2
202	204	1
224	225	1
149	151	1
96	99	2
223	226	1
72	74	1
119	167	1
213	237	1
233	233	1
21	22	1
161	192	1
173	203	1
32	33	1
96	98	2
170	186	1
55	85	1
92	145	1
20	205	1
239	241	1
52	57	1
52	89	1
35	177	2
67	68	1
13	48	1
71	164	1
158	166	1
168	229	1
66	72	3
120	208	1
9	23	1
64	245	1
36	40	1
220	223	1
64	84	1
246	247	1
41	64	1
47	49	1
105	114	1
193	239	1
2	3	1
55	57	1
173	200	1
74	75	1
210	217	1
159	168	1
106	114	1
67	188	1
