20	26	4
111	114	6
143	144	1
85	85	9
106	106	6
64	64	4
83	83	4
27	27	2
34	35	2
6	6	7
124	127	2
46	46	11
85	115	4
19	20	2
104	113	6
92	94	7
144	144	3
127	127	5
64	76	3
8	8	2
40	40	6
111	115	2
66	66	6
34	51	3
112	113	4
13	13	5
98	129	2
74	125	1
9	43	6
118	118	8
69	69	6
131	131	5
137	143	3
87	87	5
151	152	2
42	54	2
135	135	5
149	150	4
70	70	8
149	154	1
71	71	5
143	143	4
42	42	3
139	139	9
45	45	8
65	65	2
27	28	4
154	154	6
99	99	5
136	138	1
79	79	4
124	145	4
17	17	8
136	136	11
38	40	2
139	144	1
67	68	3
14	14	6
68	68	4
77	92	3
121	123	3
11	11	8
109	109	4
25	25	3
42	43	4
10	29	3
63	63	5
95	95	9
56	56	5
36	36	4
68	75	3
39	39	13
22	22	10
19	46	2
24	24	15
18	18	5
28	29	1
67	74	1
85	119	2
77	78	5
5	8	1
110	113	8
12	13	3
81	82	3
146	147	4
110	114	2
24	26	3
119	119	3
148	148	2
139	150	2
47	47	2
21	30	1
39	54	2
103	103	9
146	146	3
150	150	5
80	80	6
153	153	3
111	111	5
57	64	4
30	30	6
70	107	5
137	147	1
66	78	4
67	100	5
76	76	4
110	110	3
29	30	1
96	101	1
23	47	2
93	93	2
22	30	1
35	35	4
123	128	2
73	73	11
21	50	2
88	90	1
72	124	1
78	85	2
5	5	10
123	146	2
116	116	1
31	32	2
11	34	5
34	34	10
23	25	2
138	141	2
38	38	10
126	128	3
9	10	1
102	102	11
35	36	1
29	31	1
33	33	3
66	69	2
45	46	1
137	140	5
49	57	1
14	15	1
145	145	2
10	11	2
41	41	4
48	48	2
55	55	3
120	121	2
151	151	4
77	77	3
37	37	8
97	97	8
23	29	2
67	67	5
117	117	2
105	113	4
6	7	1
128	129	2
82	82	3
125	126	4
43	43	4
115	115	2
52	64	5
29	32	4
123	134	4
12	18	2
32	33	2
51	52	1
29	67	2
114	114	7
21	21	3
123	123	2
128	128	7
96	103	2
91	111	1
111	113	2
96	96	5
31	31	1
42	55	2
149	151	2
66	67	2
135	136	3
63	64	5
130	131	5
149	149	1
97	99	1
12	27	4
132	133	3
47	48	1
17	27	2
26	26	9
129	129	5
28	28	2
4	11	3
85	100	1
56	58	1
72	72	4
71	73	4
28	82	2
12	34	3
64	78	1
27	36	3
55	56	1
129	130	2
110	112	1
26	30	2
75	125	1
101	101	3
38	45	1
19	19	3
51	51	3
105	105	2
18	33	3
10	10	3
65	74	3
58	58	1
104	104	2
128	132	1
50	50	4
56	57	2
70	73	1
17	18	3
84	84	1
24	81	1
135	138	3
44	45	4
105	106	5
83	90	1
95	102	1
65	67	1
73	128	2
94	114	1
44	44	3
20	53	1
29	29	4
65	78	2
12	12	2
53	54	1
130	133	1
7	17	1
124	126	4
133	133	4
99	100	1
92	154	2
79	96	1
3	3	3
22	48	1
20	20	2
49	67	2
32	34	1
137	137	1
4	27	3
7	55	1
112	112	2
16	23	1
98	99	2
25	27	3
126	127	3
116	119	1
43	44	1
17	25	1
94	94	1
23	23	2
66	102	2
107	107	2
9	13	1
13	16	1
137	146	1
135	152	1
64	65	1
121	121	1
74	74	2
142	142	4
67	71	1
57	57	1
78	78	1
41	42	1
94	98	2
152	153	1
7	7	1
81	81	1
57	61	1
91	101	1
31	75	1
57	93	1
130	132	1
86	86	1
51	56	3
97	101	1
27	30	1
11	12	1
38	56	1
68	69	1
41	43	1
62	63	1
147	147	1
99	112	1
100	100	1
49	50	1
