33	92	4
48	48	14
39	47	1
15	15	7
7	7	18
73	73	4
101	101	4
132	132	7
43	45	3
70	70	12
72	72	7
21	23	6
48	49	1
5	5	8
150	150	4
13	13	17
112	112	5
73	81	3
96	96	6
14	14	14
131	132	4
7	10	1
15	16	8
112	114	2
139	143	2
22	22	10
119	146	2
30	30	7
5	8	4
142	146	2
23	23	9
88	88	3
19	20	7
84	86	2
69	71	2
11	11	8
13	15	4
17	18	5
51	51	5
56	56	3
103	128	1
10	10	7
63	63	6
99	111	3
33	33	10
99	99	7
66	68	4
100	118	4
52	52	1
98	125	4
9	9	13
10	24	5
148	148	2
64	66	4
46	46	14
107	107	9
66	121	2
38	38	11
22	24	2
94	127	10
32	32	24
39	39	9
12	22	2
31	31	10
6	26	3
131	131	7
54	55	6
116	117	8
133	133	10
6	6	6
17	17	15
116	116	7
33	66	2
36	36	16
138	145	1
74	74	10
111	111	2
91	141	3
78	81	1
42	42	6
57	63	3
43	43	14
95	98	5
88	94	4
78	78	17
85	85	11
123	150	1
56	57	6
77	77	6
44	45	7
129	135	5
122	134	3
26	26	7
35	35	7
84	85	3
50	53	4
98	98	3
95	96	12
128	128	3
123	126	3
97	97	7
29	29	11
28	28	14
3	3	3
71	72	4
70	71	1
125	125	6
97	120	3
45	46	4
22	23	3
58	58	5
38	40	10
11	22	1
78	90	1
94	94	4
115	116	5
98	112	5
105	108	4
44	44	13
53	53	13
27	28	7
105	105	4
144	144	7
102	103	3
81	82	3
129	129	12
85	86	4
49	50	7
40	40	7
111	113	7
67	67	6
76	77	4
4	5	4
41	41	8
83	86	3
145	145	4
12	26	2
50	50	14
71	71	4
95	97	1
33	53	2
6	27	6
78	84	4
27	29	4
127	127	7
65	68	2
16	17	4
106	106	9
19	19	12
64	65	5
82	82	10
16	16	6
21	21	6
109	114	3
69	69	2
67	84	1
39	40	14
66	66	5
3	7	2
140	140	6
21	22	12
84	84	4
34	34	8
17	21	4
152	152	6
18	18	7
7	29	3
54	54	5
86	87	3
123	123	1
49	80	4
110	111	2
134	134	2
87	87	13
63	64	5
41	45	4
98	127	1
40	44	2
26	62	3
121	126	3
119	119	6
93	98	1
94	95	3
4	24	3
79	94	1
142	142	15
149	149	6
37	37	14
7	55	4
5	30	2
115	117	3
63	76	3
86	86	14
139	139	9
32	34	3
68	68	6
117	117	9
32	33	3
87	92	1
98	105	7
5	27	1
25	25	10
43	44	3
35	36	6
116	120	4
139	141	4
64	94	2
4	4	9
117	118	4
47	49	5
23	24	8
24	25	3
130	130	5
69	70	2
115	115	1
14	64	2
28	30	8
124	126	5
125	129	2
14	15	7
98	99	2
38	39	4
7	54	2
112	115	1
26	79	1
144	145	6
68	87	2
128	130	3
28	29	4
118	118	8
68	82	2
82	83	2
81	81	12
93	93	4
50	51	3
66	80	1
122	122	2
62	127	1
96	97	3
74	85	2
96	99	3
47	48	2
74	79	2
139	144	2
108	108	6
132	146	2
11	12	10
47	47	3
33	64	3
151	151	6
42	44	3
56	64	1
103	110	1
36	37	3
74	75	2
4	29	4
49	79	2
122	124	3
12	12	4
76	76	5
5	7	4
51	56	1
24	24	8
63	87	1
100	100	6
55	69	3
63	65	1
10	12	4
92	92	3
31	58	2
27	27	11
61	63	4
128	129	4
122	150	1
27	32	4
125	128	1
8	8	10
32	37	3
37	38	3
138	138	6
62	75	5
84	87	2
22	29	1
81	85	1
20	20	6
83	83	3
5	128	5
141	149	1
153	153	2
26	52	3
62	65	2
75	82	2
13	16	3
119	122	1
129	131	4
85	142	4
74	77	1
102	105	3
114	115	1
74	76	1
45	45	6
78	99	2
71	80	2
96	100	2
14	20	1
24	55	1
6	9	2
27	30	5
46	48	3
23	25	1
55	88	1
122	130	2
147	147	4
91	92	3
12	13	2
108	109	3
4	8	1
17	19	1
80	82	1
79	79	2
58	85	3
124	147	3
120	124	2
113	113	1
65	79	1
80	80	6
65	65	5
12	24	2
87	95	1
57	57	5
28	32	3
88	93	1
135	136	5
95	95	4
111	117	1
68	70	3
14	65	1
34	35	4
68	122	3
71	83	2
145	146	2
89	92	2
31	56	3
154	154	5
2	2	1
28	79	2
120	120	8
55	65	2
2	29	1
138	146	2
6	10	3
9	10	7
20	21	4
67	85	2
123	124	3
112	116	2
55	55	5
121	132	1
41	119	2
66	67	4
119	120	1
26	51	1
102	107	2
122	137	3
13	14	2
18	19	3
90	90	4
135	135	4
50	65	3
86	94	3
110	110	7
143	145	1
62	76	1
8	29	3
62	77	1
118	119	4
6	11	2
78	88	3
98	102	1
28	83	1
75	87	3
96	112	1
70	129	1
102	119	3
127	128	1
72	78	1
31	32	3
93	94	4
108	114	1
14	84	1
133	154	1
109	119	1
146	150	1
35	38	1
42	45	1
118	135	1
64	87	1
71	73	3
51	53	4
68	69	1
14	63	1
6	7	1
62	64	1
98	108	1
104	104	3
106	107	1
6	25	2
27	80	2
63	75	1
78	94	1
99	105	5
94	126	1
97	98	1
105	125	1
139	145	1
26	97	1
34	38	5
18	23	1
49	51	1
23	83	1
49	49	4
34	36	4
76	79	1
77	78	1
63	67	1
86	90	2
7	57	1
67	81	2
29	33	3
20	32	2
121	127	2
27	83	1
98	130	3
3	5	1
67	70	1
20	23	3
8	9	2
11	13	2
41	42	1
124	130	2
101	128	4
122	129	2
56	58	1
43	51	4
87	137	2
126	127	3
91	128	1
92	128	1
39	43	2
81	84	2
106	115	1
141	142	1
122	135	1
65	67	1
79	80	1
20	27	2
88	127	1
68	85	1
64	125	5
69	84	1
25	26	3
26	63	2
42	51	3
10	11	4
114	114	2
62	63	3
125	137	1
146	146	2
124	127	1
35	53	1
85	126	3
32	51	1
141	141	2
127	145	2
40	43	2
90	128	1
75	80	1
46	47	4
120	137	1
77	83	1
30	56	1
50	81	4
112	113	1
127	137	2
42	56	1
12	14	3
103	103	3
7	9	1
13	24	1
100	146	1
64	64	4
101	102	1
50	54	3
109	109	3
132	148	1
76	82	1
104	105	1
30	84	2
11	21	1
35	92	1
52	57	1
58	127	1
70	73	1
123	128	1
133	146	1
72	85	1
113	115	1
73	74	2
14	66	1
123	145	1
42	70	2
94	125	1
102	109	1
104	125	1
75	78	1
124	124	1
48	57	1
81	83	1
69	83	1
152	154	2
94	144	1
26	28	1
66	125	1
5	6	2
25	28	2
67	80	1
120	121	1
33	34	1
121	121	1
86	93	2
80	81	1
62	82	1
5	28	1
96	110	1
132	133	2
41	43	1
43	56	1
117	129	1
42	50	2
87	94	1
73	75	1
3	6	1
35	37	1
71	79	1
11	14	1
16	23	2
40	53	2
12	15	1
126	126	1
39	53	1
20	89	2
72	75	1
122	123	1
143	151	1
136	138	1
104	123	1
17	22	1
28	84	1
96	115	1
30	51	1
102	108	1
25	27	1
76	85	1
33	57	1
55	63	1
7	25	3
86	88	1
37	40	1
62	62	1
85	94	2
102	102	1
77	80	1
137	137	1
55	93	1
76	99	1
123	135	2
35	54	1
100	106	1
102	118	1
111	115	1
102	106	1
79	81	1
41	48	1
138	144	1
78	100	1
94	98	1
121	124	1
102	114	1
107	108	1
75	75	1
104	124	1
4	30	1
97	99	1
