73	88	1
82	82	10
140	140	3
134	134	11
230	230	8
220	220	8
175	175	5
225	225	9
181	211	4
16	16	8
84	84	12
231	232	3
59	59	12
209	209	11
9	36	5
36	36	9
201	201	6
196	196	8
146	146	4
22	23	3
49	49	8
79	223	4
162	162	10
26	27	7
177	177	7
52	53	5
82	83	3
198	198	18
44	218	1
34	34	4
17	22	1
23	23	4
199	199	9
10	10	7
1	1	9
11	11	12
229	229	14
216	216	8
160	161	5
98	116	2
26	26	10
100	100	12
150	173	3
31	31	10
85	85	10
142	143	2
83	83	5
1	11	2
101	101	11
12	12	12
186	186	7
211	212	5
103	192	4
63	63	6
173	173	9
210	210	4
75	240	4
158	159	7
62	62	4
207	207	6
107	107	8
32	223	4
188	196	3
236	236	12
2	2	8
133	133	9
218	218	13
61	61	13
109	146	2
54	59	7
17	31	3
79	79	8
27	27	9
174	174	5
164	164	3
237	237	7
240	240	5
20	20	12
42	42	14
224	224	11
176	176	10
165	165	4
184	185	2
7	7	10
58	58	15
40	40	11
17	23	3
53	53	8
170	170	3
234	234	10
104	105	2
66	66	4
104	104	6
102	102	21
114	117	1
78	79	4
138	139	1
13	14	2
150	150	4
46	46	14
189	189	7
54	54	6
80	80	5
113	113	5
37	38	2
46	208	1
75	75	7
53	59	1
231	231	13
19	19	10
30	30	12
212	212	10
15	78	7
74	74	10
201	236	1
51	55	4
152	152	7
105	138	1
188	188	8
181	212	2
184	209	1
21	48	7
50	50	10
128	171	1
0	150	4
190	190	4
86	86	4
107	213	3
169	180	2
193	193	4
213	213	8
27	28	4
0	191	2
17	17	3
51	51	8
56	61	4
206	206	5
73	73	10
68	68	6
17	18	3
30	31	4
106	106	8
191	191	11
15	15	7
205	205	6
135	135	8
109	109	8
29	29	15
241	241	4
6	6	6
47	47	17
192	192	11
129	179	3
70	70	8
223	223	3
99	99	6
5	223	1
217	217	1
226	227	3
18	22	1
172	172	4
7	8	5
175	176	2
118	118	10
45	46	2
176	191	3
174	178	4
33	33	3
77	78	3
153	153	1
85	86	2
22	22	10
29	61	6
32	32	9
66	68	1
11	13	3
79	80	2
187	188	3
28	28	11
218	224	1
141	141	16
57	58	3
156	158	4
58	59	4
200	200	2
21	35	6
187	200	4
45	45	8
129	129	3
9	9	7
139	152	2
80	81	6
0	2	4
103	104	2
188	189	4
203	203	9
124	180	1
52	111	2
105	237	4
61	62	6
238	238	8
223	224	2
210	211	5
145	147	3
7	13	8
149	149	4
193	194	4
57	57	3
143	143	8
174	175	1
185	185	7
217	218	6
78	78	6
118	119	4
8	78	1
105	106	4
162	163	3
138	143	3
198	232	2
21	33	1
141	142	1
125	126	1
105	105	5
48	48	5
28	67	3
176	177	4
127	127	3
221	221	1
192	194	2
43	47	5
123	134	3
169	169	9
35	224	2
182	183	2
64	69	2
77	77	8
135	139	4
28	113	2
142	160	1
16	31	2
81	81	9
96	98	5
97	97	5
41	42	6
27	69	1
103	103	5
40	83	3
202	233	2
102	238	3
22	115	3
133	209	4
171	171	7
89	89	5
143	144	2
77	79	6
5	5	7
8	8	7
41	41	3
32	36	3
125	125	5
239	239	2
228	228	6
64	64	12
83	84	4
158	158	3
204	214	2
144	146	6
80	83	3
70	71	5
178	184	2
116	116	6
101	191	4
37	60	1
6	22	5
242	242	6
133	134	6
123	153	3
167	169	7
157	157	4
108	108	3
34	35	3
65	66	3
181	181	1
145	145	2
15	130	3
139	139	4
2	8	1
8	11	3
115	199	1
139	140	1
128	130	1
182	182	3
113	172	4
24	24	5
31	49	5
3	3	10
121	121	9
8	76	3
104	188	2
221	222	3
60	60	7
135	136	4
54	55	2
10	23	2
55	55	8
32	225	2
121	122	2
0	130	2
121	209	1
166	166	6
105	115	2
14	14	7
16	184	1
208	209	1
232	233	1
153	161	1
184	184	4
25	70	1
161	161	6
202	202	4
159	159	7
235	235	8
64	65	2
67	67	3
167	167	2
29	48	10
145	146	5
55	63	2
187	192	2
144	144	10
204	216	1
96	99	3
7	79	3
128	128	8
60	81	1
17	199	1
21	21	5
201	219	2
147	148	1
215	216	4
44	44	9
194	194	6
148	149	6
65	67	3
120	120	1
163	173	2
58	60	3
156	156	4
22	35	3
17	32	2
205	215	1
76	85	3
56	56	2
220	221	2
168	189	1
131	166	2
152	154	1
15	20	1
183	183	2
35	36	1
240	241	1
167	168	1
39	39	1
124	124	2
225	226	4
232	232	4
138	152	4
108	193	1
135	152	3
96	96	3
179	179	3
192	193	2
35	35	5
62	63	7
23	48	2
224	225	1
4	6	3
156	157	1
72	73	5
194	195	6
45	174	5
235	236	3
134	231	2
66	67	5
38	234	1
188	194	1
236	237	2
180	209	1
57	68	2
228	230	1
123	123	6
126	126	3
101	196	2
14	49	1
101	102	2
9	20	2
68	70	3
28	29	4
121	200	5
52	143	2
72	72	1
56	57	4
148	148	5
30	41	2
9	10	2
140	141	4
55	66	3
76	195	2
71	71	5
37	69	3
104	192	3
12	17	7
12	49	4
33	184	1
118	120	3
115	115	4
118	201	2
154	157	1
201	202	4
160	160	3
115	120	2
190	191	6
52	52	10
161	164	2
122	122	3
9	203	1
233	233	9
213	214	9
2	19	2
128	129	1
25	26	4
170	224	3
195	195	1
95	96	1
46	47	5
219	219	3
214	214	4
104	174	1
10	54	2
204	213	2
39	43	2
17	103	2
163	163	8
11	29	2
15	105	2
176	179	1
39	146	1
203	234	1
9	56	2
14	16	4
126	178	1
151	173	4
11	41	1
169	200	1
101	235	1
26	47	2
180	182	5
18	23	1
46	237	4
219	223	1
64	74	1
30	47	1
15	24	3
207	208	3
1	32	3
187	187	4
109	198	2
205	206	6
69	69	5
53	54	2
226	226	1
86	112	1
204	206	1
83	88	1
126	227	1
131	131	5
131	133	2
88	88	2
137	138	2
136	136	3
133	180	1
27	71	2
98	99	2
65	65	3
111	111	1
164	172	3
37	37	3
215	215	5
171	172	5
10	11	1
69	74	1
222	223	3
2	3	4
231	237	1
138	140	2
142	156	1
139	148	3
34	225	2
9	48	5
147	147	1
155	161	1
189	191	1
202	203	2
127	128	1
198	200	2
54	80	3
61	65	4
21	31	3
18	18	1
0	0	2
23	37	1
1	9	1
11	49	1
190	201	2
0	1	2
76	77	1
76	76	4
168	169	3
150	154	2
59	60	2
40	42	2
227	227	2
214	223	1
18	32	1
13	36	1
84	85	1
12	13	1
83	239	2
121	165	1
171	178	2
73	153	2
230	231	2
15	82	3
191	192	4
24	25	2
107	166	1
4	4	1
5	6	2
96	114	2
27	53	1
4	14	2
51	53	2
98	100	1
218	231	1
142	142	2
185	194	3
128	131	1
62	72	1
10	49	1
107	185	1
40	114	1
191	193	3
11	27	1
176	178	1
14	80	2
172	207	2
20	21	2
209	210	1
115	186	2
180	181	1
168	180	1
138	155	1
137	198	1
153	155	1
196	204	1
103	236	1
185	186	1
0	168	2
200	201	1
33	34	1
203	204	2
21	30	1
234	235	2
155	155	1
18	104	1
169	213	1
168	168	1
125	167	1
208	208	2
173	174	2
50	51	1
162	164	1
2	49	1
105	120	2
40	98	1
17	105	2
175	179	1
55	56	1
114	115	1
38	38	1
24	47	1
34	141	1
18	19	1
114	114	2
103	105	1
28	203	1
134	201	1
16	17	1
17	104	1
211	211	1
15	17	2
115	116	1
103	107	1
38	73	1
141	196	1
69	70	1
6	222	1
117	118	1
42	236	1
164	208	1
10	202	1
74	240	1
151	172	1
149	150	1
142	232	1
3	15	1
204	204	1
54	61	1
183	197	1
127	130	1
104	187	1
21	22	1
130	130	1
4	101	1
98	98	1
45	239	1
214	215	1
25	44	1
19	20	1
15	48	1
44	146	1
121	179	1
154	154	1
