80	131	2
57	57	5
86	86	6
102	102	9
14	15	4
89	92	3
120	127	3
95	95	2
80	80	2
89	89	3
38	39	4
74	74	1
13	100	2
27	27	2
9	9	4
98	108	2
84	84	9
61	62	6
123	123	6
30	30	5
41	43	1
131	133	3
11	11	8
92	95	2
88	88	5
94	95	2
30	31	2
40	85	1
11	76	3
73	73	5
58	58	3
26	91	1
116	116	1
66	66	4
87	87	2
129	129	2
9	10	7
71	71	3
131	132	4
12	91	1
55	55	5
34	34	3
96	97	2
11	27	1
111	111	3
20	20	6
132	133	1
119	133	4
4	4	1
63	75	1
8	34	4
47	47	12
4	13	2
73	74	1
40	41	1
36	38	1
115	120	4
86	90	2
123	125	2
67	67	1
10	10	2
92	92	1
26	45	1
6	6	2
24	42	1
13	28	2
82	82	1
19	19	5
110	111	2
25	42	1
11	12	1
125	131	2
114	114	3
35	35	10
18	43	2
69	69	3
25	25	3
28	28	3
91	91	3
17	43	2
51	51	2
30	45	2
28	91	2
100	100	6
94	96	3
130	130	2
26	49	3
82	84	2
75	76	5
31	32	1
79	79	1
122	122	4
94	102	1
62	67	1
103	103	3
17	17	2
104	105	1
125	125	3
42	42	2
113	125	3
49	50	3
59	59	4
90	90	2
85	90	4
13	13	1
78	78	7
12	12	3
18	73	1
133	133	4
70	70	2
37	38	2
31	31	3
100	101	1
65	65	3
93	107	2
34	74	3
7	39	3
46	105	2
42	91	3
7	7	1
60	60	3
76	77	2
21	21	1
120	120	3
96	99	1
24	92	1
33	47	1
4	6	1
127	127	6
93	93	3
12	13	1
106	107	2
45	45	1
115	115	6
32	82	3
130	131	1
88	90	1
48	48	1
15	16	2
90	91	1
56	56	2
32	47	1
72	72	2
14	14	3
62	129	1
10	76	1
43	43	3
79	82	1
20	48	2
28	90	3
28	31	3
49	49	1
60	61	1
6	95	1
130	134	1
47	77	1
24	24	4
112	113	2
77	78	1
72	73	1
33	33	2
2	3	1
101	101	1
36	69	1
126	126	1
37	82	1
128	134	1
89	90	1
76	76	1
16	23	1
95	96	2
113	113	1
23	23	1
94	94	1
91	94	1
17	20	1
77	77	2
112	112	1
29	31	1
31	48	1
85	85	1
29	49	2
75	75	1
107	107	1
