96	96	12
72	72	10
81	84	2
118	118	10
107	107	4
125	125	3
19	19	4
78	80	3
130	130	5
116	135	5
1	1	5
123	123	16
123	124	1
126	126	8
134	135	7
101	101	8
122	122	21
85	86	2
30	31	3
113	120	2
84	84	8
72	101	1
92	103	1
115	115	8
134	134	10
88	91	2
136	136	4
14	14	2
129	129	7
5	38	4
22	85	1
0	1	2
87	87	7
105	105	6
82	82	4
33	33	3
19	20	3
31	31	2
25	25	5
121	121	7
135	135	4
97	99	2
103	103	1
98	98	6
15	15	4
85	85	4
14	29	3
11	11	5
91	91	8
81	81	12
94	101	4
34	34	3
17	17	5
22	130	1
71	83	5
132	132	11
124	124	13
139	139	12
37	38	2
114	114	8
104	104	3
86	86	8
28	29	6
109	109	3
22	86	3
82	85	3
6	6	1
80	80	3
79	85	4
102	103	1
131	131	11
8	8	1
117	118	3
133	133	8
84	85	2
15	21	1
3	7	3
126	138	1
13	13	10
122	123	3
0	13	2
123	125	3
13	26	2
74	74	3
36	36	5
93	93	10
22	25	4
94	94	4
16	16	7
136	137	4
80	102	2
99	99	1
30	30	4
98	128	2
97	97	4
33	34	1
98	99	1
71	78	2
10	10	2
108	108	2
83	85	2
137	137	7
131	132	2
29	31	4
93	94	4
95	95	10
109	110	4
17	37	2
79	79	3
105	107	1
1	12	1
140	140	9
103	104	3
79	80	1
112	112	1
113	113	2
116	125	3
113	117	1
101	108	1
110	110	7
84	119	2
4	4	2
22	22	1
17	18	3
106	106	2
28	28	1
25	29	3
126	127	2
102	102	6
103	134	5
119	119	1
35	36	1
96	126	3
116	134	1
76	76	4
23	23	5
127	127	4
72	113	1
100	127	2
88	88	3
104	107	2
78	78	9
80	103	1
25	85	2
132	133	2
71	72	3
12	12	2
125	126	3
81	82	3
111	111	2
26	26	9
27	28	2
120	122	1
83	86	2
130	133	1
100	100	2
77	77	4
114	116	1
5	5	1
26	31	3
9	16	1
74	112	1
93	103	1
73	73	1
32	32	2
25	26	1
19	26	1
80	85	1
120	121	5
89	89	1
121	130	2
102	107	1
112	119	2
24	27	1
135	136	2
35	35	3
116	117	1
117	121	1
29	32	2
15	23	1
108	109	3
26	88	3
74	88	1
5	76	1
128	129	1
2	3	2
36	96	1
23	26	2
21	22	2
27	29	1
2	2	3
83	83	1
81	105	3
38	38	2
104	122	1
103	123	2
126	134	1
10	12	1
3	3	2
74	110	1
21	21	1
135	137	1
33	38	1
117	117	2
24	24	2
116	116	2
20	20	1
139	140	1
95	128	1
128	128	2
1	10	1
76	93	1
89	90	1
9	9	2
138	138	2
8	9	3
83	84	1
112	113	1
130	132	1
29	75	1
121	122	1
18	18	1
32	110	1
23	86	2
124	125	1
91	134	1
74	118	1
26	32	1
9	10	2
2	7	1
