109	109	15
35	47	5
134	135	4
42	42	2
69	98	3
106	106	3
75	75	5
82	129	6
50	52	1
3	3	14
37	37	5
53	53	12
102	102	10
90	90	3
74	74	7
93	93	6
12	12	1
17	36	6
137	137	11
77	77	7
91	92	6
31	34	1
135	136	3
140	141	2
90	103	6
126	126	14
73	73	6
125	125	9
85	85	7
30	30	7
134	137	9
59	59	9
119	119	8
80	94	4
40	40	9
75	129	4
14	14	6
65	65	4
140	140	15
118	118	6
133	134	5
92	93	1
95	96	3
26	26	5
111	111	5
97	97	7
81	82	3
34	38	1
117	117	4
62	63	4
24	26	5
89	89	4
131	131	14
53	54	6
125	126	4
98	98	5
84	84	5
105	105	8
89	90	2
72	72	6
51	52	4
133	133	7
123	123	10
103	103	5
29	29	1
104	104	1
88	88	4
28	28	5
62	66	1
58	59	4
57	118	4
28	29	5
113	114	3
121	127	3
109	110	2
50	50	10
4	5	1
13	13	5
9	9	3
135	135	15
130	130	8
32	32	10
18	18	4
52	54	1
82	116	3
34	34	2
92	94	3
95	98	1
13	14	2
120	120	8
141	141	7
20	20	12
128	130	1
17	17	7
63	63	5
2	53	2
96	96	14
146	146	3
99	99	9
78	78	2
69	69	3
115	115	10
70	73	4
38	39	3
128	128	8
16	16	3
1	1	2
94	94	6
64	65	5
60	60	12
100	100	10
75	116	5
11	20	3
2	2	2
31	32	3
38	42	2
63	128	4
127	127	8
57	57	14
48	54	2
129	129	13
36	36	7
139	139	11
67	68	3
79	80	2
108	109	3
55	55	14
91	91	5
134	139	1
58	58	10
121	121	5
95	118	2
6	11	3
112	113	4
83	83	2
86	86	9
68	69	2
48	49	1
24	24	11
49	50	2
132	132	7
111	112	4
41	41	7
56	56	8
12	13	3
0	1	4
56	68	2
74	77	1
109	119	1
87	88	6
53	55	3
48	48	11
54	54	5
68	68	4
134	134	6
127	132	3
138	138	7
142	142	6
99	117	2
105	108	1
18	19	1
11	11	2
10	11	2
104	107	1
104	109	5
82	82	9
39	39	8
131	132	3
104	105	2
66	66	7
19	19	3
55	68	2
60	115	1
129	130	5
20	36	1
6	19	3
110	111	3
61	99	5
33	33	2
10	10	10
49	49	5
4	4	2
133	136	3
136	137	7
84	122	1
127	128	5
143	144	2
78	79	3
126	142	2
116	116	2
110	110	7
116	117	4
3	4	4
118	130	1
132	140	3
79	79	2
82	130	3
82	83	3
122	122	2
56	71	1
107	107	2
35	36	7
65	66	2
111	114	1
65	135	4
19	42	1
94	120	2
22	22	8
27	29	1
19	20	2
70	70	1
9	10	2
35	35	3
52	53	5
77	130	1
80	80	2
31	31	4
47	47	3
73	76	1
138	140	5
65	69	3
14	15	1
82	128	1
68	70	1
134	136	3
72	73	2
33	34	2
118	119	4
34	132	2
52	52	2
112	112	2
81	81	2
61	80	1
8	8	1
96	108	1
63	127	4
30	41	1
27	27	2
49	89	1
80	115	3
92	92	3
23	23	6
37	42	1
87	87	4
76	76	3
82	97	1
102	111	2
21	21	4
114	115	3
64	85	1
50	106	2
66	109	1
63	85	3
49	106	2
64	64	3
66	103	1
116	119	1
101	101	2
25	25	6
108	108	3
18	126	1
50	87	4
49	88	1
124	124	7
59	122	1
78	134	1
106	107	1
96	97	1
21	22	3
94	98	3
40	123	1
15	17	1
34	36	1
132	137	1
82	95	2
145	145	3
74	114	3
92	97	1
34	54	2
63	98	3
84	136	1
38	88	1
143	143	6
136	136	1
38	38	4
78	100	3
32	33	2
0	0	1
61	61	1
94	111	3
62	64	1
76	82	2
69	70	2
102	103	1
80	81	1
95	115	1
2	3	1
27	42	2
141	142	4
113	113	2
114	114	3
66	69	2
76	77	5
17	122	1
144	144	1
99	100	2
95	95	1
67	67	2
14	41	4
35	54	1
139	140	2
42	43	1
121	123	2
50	51	1
92	115	1
54	55	1
117	118	1
23	24	1
90	95	1
120	121	1
62	80	1
43	43	1
6	25	1
60	128	1
133	139	2
16	122	2
50	111	3
77	78	1
25	27	3
79	98	1
65	73	3
6	6	3
5	5	2
122	123	1
71	71	1
13	31	1
24	25	1
64	93	1
62	128	1
111	113	2
115	118	2
97	110	1
97	98	1
120	130	3
145	146	3
69	110	2
62	65	1
22	42	1
110	112	2
77	82	1
127	129	1
64	71	2
80	141	1
133	135	1
20	21	1
54	123	1
101	117	1
60	144	1
81	102	1
77	129	1
4	6	1
70	71	1
12	24	1
135	137	1
81	115	1
62	62	1
71	72	1
