14	14	15
57	57	6
152	152	9
149	149	8
40	40	20
106	106	4
19	19	9
6	8	5
113	113	5
84	85	2
68	68	16
35	35	10
77	77	12
107	108	10
73	75	5
9	9	17
56	57	3
123	123	9
41	44	7
117	117	11
49	49	7
76	78	3
127	128	5
138	139	5
11	11	10
15	16	4
83	83	4
10	10	21
64	77	3
3	3	7
32	69	5
33	34	2
32	32	4
134	134	6
103	104	1
112	113	4
67	67	15
102	106	4
136	136	6
109	117	4
115	115	8
7	14	7
46	46	8
74	74	24
132	134	1
64	65	3
130	131	2
25	42	4
85	85	9
111	129	2
90	90	5
102	103	3
100	107	2
94	94	10
95	95	12
121	122	9
119	119	8
80	80	6
130	136	2
40	41	7
27	27	1
80	81	7
76	76	8
25	26	4
144	144	4
31	31	10
50	51	4
124	124	8
104	110	1
67	69	2
25	25	10
114	114	14
54	54	8
38	38	5
29	30	1
55	55	9
81	81	7
56	56	2
17	17	18
141	141	1
70	76	5
71	71	8
47	50	3
81	82	3
83	84	3
29	29	6
108	108	12
63	63	8
130	133	1
42	43	3
132	132	16
139	139	6
54	63	1
25	41	8
41	41	7
42	119	2
86	87	1
33	36	3
47	47	5
5	8	2
49	100	3
20	21	5
126	127	3
123	148	1
24	26	3
131	131	7
91	91	1
24	24	5
87	87	2
12	12	12
53	54	2
117	120	3
122	122	7
24	42	2
72	72	4
23	23	20
43	127	4
82	82	6
42	42	13
78	78	12
147	148	4
37	37	3
21	21	14
28	28	6
50	50	6
70	70	8
2	3	1
39	42	3
92	97	3
151	151	6
28	29	7
44	45	1
36	36	5
139	140	4
97	97	3
39	39	6
41	42	5
24	25	4
37	38	1
16	17	3
75	78	3
135	135	3
102	115	2
107	107	11
35	37	1
118	118	12
127	148	2
67	68	3
45	45	10
140	140	3
38	39	2
16	16	11
17	19	5
79	79	1
64	64	7
104	105	2
69	69	6
153	153	3
51	55	5
100	100	5
38	40	7
116	117	2
12	13	3
101	102	3
34	34	9
65	66	1
133	154	2
154	154	8
13	20	2
106	109	6
23	34	4
133	133	7
103	107	2
15	21	2
135	136	6
141	142	5
123	138	1
103	103	1
28	30	2
26	29	7
85	87	3
23	24	1
44	44	5
68	69	3
104	104	3
109	109	7
50	54	2
127	145	1
112	112	4
3	4	1
66	66	4
128	128	7
20	20	9
85	86	13
111	111	3
137	137	1
105	105	5
15	18	3
66	68	6
121	121	11
54	57	1
14	20	2
123	124	3
102	109	1
130	130	4
73	81	3
24	67	3
120	120	13
4	4	10
92	92	1
10	18	1
49	52	1
26	31	3
25	120	2
65	65	1
12	38	2
42	123	1
150	150	5
21	41	3
143	144	5
129	150	2
98	98	2
18	18	3
30	77	2
46	57	4
94	95	6
20	42	2
75	75	5
96	96	5
153	154	3
110	110	6
90	92	2
128	130	2
15	15	6
48	48	5
13	14	3
120	133	3
26	26	3
70	71	2
50	102	1
101	101	6
146	146	2
56	114	2
11	12	2
19	20	2
77	78	1
43	43	2
131	134	2
55	103	1
26	30	5
102	102	8
12	37	1
23	35	1
109	129	8
36	38	3
9	20	2
92	93	6
21	22	3
44	46	6
17	22	2
53	53	2
4	5	3
145	145	5
22	22	9
118	119	3
102	116	2
65	98	2
110	114	4
7	7	3
51	51	8
13	13	6
33	38	1
39	43	1
58	58	2
45	57	3
67	75	1
22	23	4
27	28	2
71	72	4
14	15	2
39	40	1
128	129	3
74	78	1
13	16	1
21	32	1
77	79	2
99	99	7
146	148	1
69	70	3
30	30	5
73	74	2
80	82	1
97	98	3
52	52	4
113	114	1
57	62	1
138	138	2
124	127	2
9	18	4
110	113	3
45	46	4
14	39	3
117	118	1
26	27	2
52	53	1
109	118	1
133	134	1
111	115	1
47	57	1
75	79	2
40	44	2
49	50	1
11	38	1
8	17	1
122	123	2
29	34	2
72	73	3
69	77	1
35	36	3
12	42	1
120	121	1
69	76	2
62	62	2
122	151	2
107	109	1
6	6	3
30	31	1
129	130	5
86	86	2
54	56	1
148	148	1
93	93	1
31	69	2
31	32	1
122	124	1
55	56	1
110	111	1
144	145	1
99	106	1
10	17	1
119	123	2
137	138	1
110	117	1
83	87	3
66	69	2
95	96	3
70	74	1
67	85	1
57	58	2
22	67	1
80	86	1
51	53	1
11	37	1
71	77	1
86	101	1
40	53	1
17	21	2
103	105	3
62	63	1
66	67	3
32	33	1
73	73	1
100	106	1
116	116	2
41	49	2
69	74	1
98	99	2
16	18	1
75	81	1
74	75	2
8	8	1
21	67	2
136	145	1
14	16	1
114	115	1
24	37	1
8	9	1
26	34	1
84	84	2
84	87	1
63	64	1
142	143	1
70	77	1
19	45	1
110	118	1
25	32	1
45	129	1
47	54	1
