0	0	13
56	78	4
55	72	3
89	89	17
56	57	9
14	14	18
73	73	15
26	27	2
12	12	19
82	82	26
81	84	12
70	75	4
80	80	25
2	2	21
52	52	17
59	59	20
86	86	33
63	63	8
4	18	4
27	27	9
67	85	1
75	75	37
22	22	28
56	70	2
9	73	4
76	76	17
64	65	13
24	25	4
64	66	10
83	84	6
81	81	27
72	72	17
21	23	2
28	28	13
67	67	26
54	54	20
58	58	19
72	80	5
24	24	22
69	69	32
7	8	16
51	51	24
9	19	2
79	79	17
21	26	7
50	56	9
65	65	23
49	49	26
3	3	35
7	26	1
50	50	17
13	13	39
65	66	5
84	84	21
8	9	8
86	87	12
84	87	4
56	56	21
58	84	2
27	28	5
50	52	6
47	48	14
9	10	11
35	35	5
82	83	12
88	88	9
27	29	4
31	56	4
46	47	5
7	7	22
53	76	1
60	60	21
17	17	22
74	74	25
60	62	8
8	16	4
9	9	14
55	55	15
85	87	4
66	66	29
21	31	1
23	23	21
25	25	11
51	52	13
78	79	10
5	8	3
11	11	22
81	82	5
19	22	3
87	88	7
30	30	13
19	77	4
78	80	7
9	23	2
53	53	15
64	64	13
47	47	25
69	86	2
4	4	21
87	87	21
61	61	18
21	21	6
49	55	7
4	5	5
53	80	1
83	87	1
12	13	4
85	85	10
23	26	5
78	83	3
7	25	9
71	71	14
8	8	8
71	72	2
5	5	19
5	13	2
56	85	7
34	34	7
77	77	27
78	78	12
26	26	12
68	68	10
3	4	11
1	1	20
49	50	9
18	19	2
83	83	16
58	59	1
56	79	5
68	69	11
59	60	3
8	13	3
22	23	8
18	21	3
14	54	7
61	62	7
6	8	2
54	55	14
29	29	4
31	31	16
77	79	3
8	10	1
22	24	2
2	3	1
19	19	29
76	77	11
49	52	10
20	21	5
73	74	2
88	89	13
48	48	16
57	58	4
13	54	1
56	82	3
79	80	8
23	24	9
7	61	2
52	53	2
33	33	4
79	83	2
50	51	11
66	67	10
16	16	7
50	78	5
53	54	17
81	85	3
59	62	4
28	31	1
12	77	3
13	14	2
78	82	5
8	26	1
84	86	3
16	19	2
47	49	7
53	73	5
15	53	3
19	20	4
46	46	9
62	62	14
10	10	27
14	28	3
55	79	2
59	79	1
8	25	4
46	48	2
82	84	3
20	20	19
6	73	1
12	14	3
57	57	16
6	7	3
16	68	1
57	79	1
72	78	2
31	63	2
18	22	2
32	65	3
80	81	4
6	6	9
54	71	2
28	29	2
30	67	2
70	70	5
10	11	7
70	74	2
77	82	1
81	83	1
7	33	1
63	66	3
62	66	3
72	73	6
85	86	1
7	9	4
71	73	2
84	88	2
8	12	2
25	28	2
58	64	1
75	84	2
5	6	7
14	58	5
53	56	1
63	64	6
51	56	2
18	18	5
74	75	3
55	77	1
47	58	3
0	2	5
74	78	6
56	59	1
79	84	1
10	27	1
9	27	1
4	7	2
89	90	2
12	54	3
31	64	1
11	27	4
90	90	2
61	63	1
6	14	1
56	86	2
9	79	2
84	85	5
22	26	2
15	16	2
34	35	1
72	74	2
69	80	2
5	7	1
25	31	2
23	27	1
8	61	2
5	11	1
62	63	5
14	69	1
17	18	5
59	64	3
72	82	2
67	68	3
10	12	1
15	15	4
4	11	1
53	86	1
33	35	2
1	2	2
77	83	2
4	16	5
77	78	2
49	54	5
21	22	6
25	26	2
60	78	2
20	22	2
53	79	2
7	14	1
34	63	1
48	63	2
62	64	3
31	66	2
48	76	1
9	26	2
46	58	2
56	58	2
24	28	1
21	33	1
58	61	1
71	75	3
80	82	4
7	13	1
31	65	1
80	85	2
68	80	1
49	59	3
75	77	1
19	21	1
55	57	1
13	59	1
80	84	1
57	89	2
77	80	2
55	80	1
7	17	1
9	59	1
79	88	1
70	71	2
78	87	2
15	46	1
71	77	1
13	16	2
79	87	1
11	12	1
57	78	1
52	55	1
9	62	1
34	66	1
10	77	1
31	70	1
22	25	1
48	58	1
49	77	1
