54	66	2
67	67	5
60	60	5
116	116	3
12	12	4
102	102	2
116	117	4
58	115	1
117	118	4
97	97	2
81	81	2
112	112	8
132	132	7
114	115	3
114	114	3
87	117	1
34	35	3
88	116	2
121	121	10
93	134	1
63	63	4
65	81	3
61	61	4
107	110	1
115	115	4
0	1	5
124	129	1
109	119	4
13	13	3
117	117	5
130	132	1
125	125	8
17	18	2
98	98	5
86	86	2
108	122	3
106	106	2
84	116	1
80	130	1
44	45	8
112	114	3
79	79	3
60	68	2
134	134	5
125	126	3
26	26	1
15	19	2
27	27	4
58	83	1
127	128	2
85	116	1
19	20	3
75	75	1
96	96	2
91	132	1
114	123	2
99	101	3
110	111	5
113	113	2
22	22	2
55	56	3
34	34	1
109	109	1
3	4	1
91	91	2
97	98	5
80	88	3
77	79	1
107	107	1
100	100	1
30	73	1
86	121	1
57	57	2
24	24	2
100	130	2
10	10	1
57	76	1
65	67	1
130	130	2
16	20	1
93	93	8
55	55	1
129	129	1
108	112	1
1	1	3
72	75	3
80	81	2
60	116	2
7	36	1
82	95	1
131	132	4
80	80	8
42	49	2
88	88	2
21	21	3
43	134	2
59	61	4
124	124	3
106	125	4
90	90	1
105	105	1
108	108	2
62	80	1
67	97	1
104	104	3
133	133	4
64	68	1
65	66	3
130	131	4
11	11	2
55	63	2
75	126	2
62	62	1
44	44	3
126	126	1
10	35	3
81	129	1
53	53	1
45	133	1
38	38	1
2	2	2
69	69	2
98	99	1
64	64	2
33	33	5
94	94	4
71	71	1
21	23	1
17	134	3
118	118	1
5	5	1
4	4	1
56	56	2
70	70	1
19	21	2
32	33	3
65	65	1
83	85	1
12	13	1
19	19	1
8	9	1
23	24	4
8	8	1
92	121	1
7	7	2
121	122	1
119	119	4
85	85	1
15	15	1
83	87	1
50	50	2
8	37	1
63	70	2
33	34	1
82	87	2
106	108	1
131	131	1
108	129	1
52	132	1
9	48	1
81	130	1
9	9	2
112	119	1
54	54	1
9	10	2
7	13	1
111	111	1
49	49	1
30	31	2
78	78	1
128	129	1
53	63	2
45	52	1
67	68	1
116	133	1
7	8	1
56	70	1
123	123	1
58	61	1
87	87	1
102	103	1
58	84	1
63	90	1
0	0	1
74	105	1
109	121	1
31	31	1
