91	91	6
100	102	3
63	63	9
75	75	26
80	80	9
80	82	2
54	54	16
96	100	3
51	51	17
69	69	18
73	74	7
58	59	4
20	47	4
49	49	10
104	105	4
102	102	21
57	57	14
43	44	7
83	83	11
61	61	12
58	58	12
92	92	29
73	73	9
79	80	5
96	107	2
23	23	9
106	106	7
60	60	11
37	37	8
98	98	17
30	33	1
94	98	4
36	42	1
68	69	7
40	40	17
97	98	1
72	100	1
22	22	10
58	65	3
97	97	29
78	105	5
51	52	13
23	24	3
68	68	16
56	57	4
72	72	6
43	43	6
104	104	13
83	84	6
35	35	23
77	78	1
89	89	18
93	95	7
85	86	3
90	90	16
95	95	27
44	44	10
78	79	8
22	55	2
100	100	22
21	21	9
65	66	2
34	34	17
20	20	9
35	61	1
87	87	8
86	87	5
54	55	5
93	93	19
25	25	11
51	55	1
65	94	4
93	96	2
39	45	2
29	30	12
38	38	7
60	62	7
60	61	2
65	65	12
62	62	11
80	90	4
99	99	7
58	85	3
85	85	10
30	30	2
70	70	8
73	101	1
76	76	18
60	74	3
42	42	8
96	96	6
82	83	3
86	86	5
78	94	7
103	104	2
47	47	10
29	29	6
94	94	20
52	52	9
64	65	2
55	56	4
57	58	3
70	92	2
50	50	15
33	33	12
48	48	16
51	53	3
22	40	3
87	88	4
22	33	3
28	28	4
73	98	1
66	66	9
59	74	4
59	59	11
48	54	3
38	76	1
63	64	4
56	86	2
100	101	1
105	105	23
21	81	2
84	84	7
37	42	1
36	37	3
93	98	5
39	39	7
60	101	2
88	88	4
52	53	11
93	94	5
71	72	2
77	77	8
55	77	1
32	37	3
75	91	4
23	51	2
74	74	10
71	77	1
91	92	2
74	102	4
47	49	3
45	45	4
103	103	15
79	79	16
26	28	9
34	38	2
71	71	8
40	49	5
62	104	6
41	46	1
22	46	1
26	29	4
44	45	4
80	81	4
59	60	8
53	53	7
46	49	2
72	89	1
22	44	2
46	46	5
46	80	2
37	52	2
72	73	4
56	56	7
100	105	2
55	78	2
55	55	5
65	78	3
82	82	10
73	90	1
84	85	4
61	62	4
41	42	1
64	64	9
24	24	5
92	100	1
20	21	6
79	94	4
81	91	4
21	50	4
78	78	9
98	99	4
25	26	5
26	30	2
74	101	1
58	61	4
82	84	2
101	101	9
46	48	2
35	36	3
24	32	1
76	77	1
38	40	3
31	31	6
36	59	5
67	67	8
59	63	2
107	107	9
36	50	1
50	94	1
62	63	3
101	102	7
49	81	1
81	81	7
102	103	2
77	81	3
77	91	2
90	91	4
40	47	2
40	41	2
73	89	1
52	105	1
35	37	2
29	47	2
73	100	3
39	41	1
57	60	1
83	86	1
87	106	1
85	91	4
57	82	4
36	56	5
32	34	2
106	107	1
62	64	4
42	43	1
47	90	1
32	32	3
36	36	3
22	54	1
37	59	1
38	39	2
27	28	2
56	105	2
56	58	2
30	31	1
67	90	1
21	22	1
101	105	1
24	30	2
36	39	2
69	70	1
53	54	2
25	29	1
90	93	1
60	77	1
28	30	2
28	33	2
57	105	1
83	88	2
33	46	2
37	48	1
61	63	3
84	86	4
77	102	1
88	90	4
27	29	2
89	90	2
46	78	1
53	55	1
55	57	2
75	76	1
37	43	1
95	96	1
45	55	1
50	53	1
80	83	1
57	64	1
21	80	1
65	74	1
46	47	1
22	50	2
50	51	1
26	26	1
32	49	1
56	106	1
90	100	1
55	58	1
94	99	1
65	67	1
55	65	1
