39	39	31
55	57	7
95	96	12
98	98	38
97	97	21
63	63	42
50	56	3
92	92	28
32	32	10
75	76	20
70	70	29
68	75	3
101	101	32
38	38	9
41	41	31
44	44	23
57	57	21
74	74	42
50	51	9
64	64	24
74	75	12
52	52	43
25	26	26
47	47	19
82	82	8
65	67	4
95	95	36
73	74	11
38	46	7
26	26	10
67	67	26
79	79	25
88	89	10
56	56	24
75	75	48
69	69	32
34	40	1
55	59	2
59	59	26
91	92	8
55	55	25
84	84	24
99	99	51
63	64	17
86	86	24
61	63	6
37	37	18
43	43	12
72	76	2
93	99	1
42	42	37
42	43	18
58	69	7
60	60	14
71	72	10
34	34	23
25	25	7
74	76	4
80	91	4
70	72	4
61	61	40
101	102	6
67	68	18
76	78	6
35	36	21
90	92	5
34	35	8
53	69	2
88	88	49
76	77	9
70	71	14
93	93	43
28	68	4
76	76	40
60	61	18
83	83	13
93	94	8
57	93	3
31	31	15
62	62	27
58	62	2
87	87	25
66	66	24
76	79	2
68	68	42
49	49	20
29	29	19
28	28	13
80	81	7
26	27	18
58	58	36
94	96	2
91	93	3
92	93	20
80	83	5
74	93	2
57	58	10
61	88	1
72	72	19
80	82	9
56	58	9
90	90	24
46	47	10
87	88	17
35	35	20
78	78	26
29	70	1
89	89	37
85	85	28
27	27	29
33	34	5
77	78	10
85	86	23
20	22	9
86	89	4
61	62	12
22	22	11
55	56	22
45	45	24
86	87	10
40	40	25
33	33	22
60	62	10
27	28	7
68	70	11
81	81	37
44	75	4
65	77	4
80	80	30
82	83	2
80	90	3
46	46	38
48	49	7
71	76	2
91	91	32
63	75	4
79	92	7
44	67	4
44	45	5
62	71	4
61	83	5
99	101	10
53	54	11
72	81	5
100	101	8
49	50	10
53	53	19
84	86	1
94	94	12
62	66	3
80	99	1
80	89	12
38	39	20
57	59	3
51	51	24
98	99	10
47	48	10
26	28	3
65	65	25
60	63	7
79	80	11
72	73	8
32	48	6
40	41	9
71	71	22
23	23	9
69	70	13
63	71	4
89	91	2
54	62	2
79	81	1
79	82	3
46	48	7
83	84	12
39	40	10
45	48	1
52	53	20
86	88	3
77	77	16
100	102	4
66	76	4
48	52	4
70	77	3
69	76	1
71	73	2
41	42	7
36	36	13
100	100	23
36	38	4
81	91	5
36	37	10
29	30	6
62	64	4
92	94	4
52	55	2
60	66	3
65	66	11
97	98	14
24	25	2
51	54	5
48	48	28
99	100	5
70	91	3
45	52	4
80	98	2
64	67	6
98	100	3
66	81	3
21	54	1
66	82	2
95	98	1
102	102	1
59	85	5
29	69	3
73	73	11
60	84	5
41	101	5
65	75	5
31	32	5
55	58	1
50	50	18
30	43	1
86	99	2
79	91	4
42	69	2
61	90	1
82	86	1
43	44	2
79	88	1
87	89	4
48	51	1
63	66	4
78	80	2
39	46	3
42	92	2
70	76	1
42	64	1
59	60	8
92	100	2
82	89	2
82	101	3
73	79	2
51	52	4
78	79	8
42	75	2
66	68	5
94	95	12
58	60	8
96	96	6
59	63	1
46	51	7
32	33	2
54	55	6
58	93	1
81	82	6
77	79	1
68	77	3
58	59	7
28	29	3
62	63	4
66	78	2
96	97	8
64	77	3
80	100	1
47	55	2
73	75	5
54	54	22
47	49	2
69	71	6
37	38	5
92	95	2
33	35	3
64	65	8
47	60	1
81	101	3
23	24	1
58	83	1
60	70	2
30	30	7
57	60	3
38	40	1
70	78	2
61	73	2
59	83	2
81	92	4
90	91	6
61	86	3
45	51	5
75	78	3
38	41	1
62	83	1
40	100	4
40	65	2
69	72	2
25	28	3
55	60	1
60	95	3
73	93	4
23	25	1
78	86	2
49	98	2
45	46	3
63	67	1
37	39	2
84	85	3
65	69	3
57	66	1
93	95	1
62	65	2
56	57	3
77	91	1
57	62	2
87	95	1
22	53	2
44	56	2
63	68	3
78	89	2
66	67	2
57	98	2
79	90	1
63	69	1
92	97	1
48	50	1
31	39	3
84	88	1
41	43	1
58	61	1
24	27	2
51	53	1
61	66	2
91	94	1
51	55	1
66	77	1
53	55	1
59	64	1
60	85	1
79	89	2
34	39	1
66	69	2
91	96	1
59	86	1
75	93	1
47	50	1
61	92	1
96	99	2
64	66	1
77	80	1
89	90	1
75	91	1
46	50	1
41	44	1
57	69	1
50	69	1
