71	71	8
243	243	13
199	199	18
36	38	6
193	193	20
73	73	14
200	201	8
217	217	18
189	190	9
178	179	1
220	220	10
169	169	15
52	53	9
48	48	15
232	234	2
172	173	17
49	50	9
172	172	17
157	157	18
180	181	11
213	213	13
205	206	4
178	178	10
241	241	29
58	58	8
112	113	10
110	246	3
162	164	1
163	163	4
44	45	6
150	150	12
15	15	12
50	50	8
59	60	9
102	102	20
68	68	21
188	188	22
154	156	3
210	210	16
187	188	13
114	114	16
115	115	14
185	185	11
192	192	16
231	231	9
177	177	26
196	196	11
179	179	18
34	34	12
70	71	8
165	165	18
10	11	4
198	198	15
14	18	1
154	154	21
163	164	8
109	110	3
235	235	14
96	96	8
164	181	2
169	170	9
7	7	12
94	94	17
206	207	7
74	74	11
92	93	6
158	165	3
16	16	15
230	231	3
90	90	7
197	197	10
228	229	5
153	153	26
178	196	6
172	215	3
87	87	13
86	86	9
56	57	8
91	98	1
218	247	5
41	41	11
222	222	8
200	200	11
206	206	8
182	184	1
177	178	8
182	182	23
8	8	10
156	156	23
159	183	6
103	103	11
204	204	14
99	99	13
32	32	20
152	152	32
80	82	4
3	5	2
203	204	5
191	192	5
176	177	9
27	27	10
165	179	5
182	183	8
62	193	3
29	29	10
76	77	14
175	176	7
58	62	2
60	61	11
248	248	3
117	117	16
198	199	5
237	237	10
89	89	12
219	219	24
159	159	10
118	170	1
95	96	6
9	9	8
211	211	14
247	247	17
4	5	13
214	214	11
225	225	7
52	58	1
62	62	16
2	3	1
17	85	2
63	65	4
113	114	12
25	34	1
244	245	7
158	158	14
104	105	5
227	227	8
209	209	15
87	88	11
40	40	23
236	236	14
61	61	11
167	167	24
114	149	2
171	177	4
97	97	10
22	25	1
216	236	1
114	115	11
172	213	3
21	21	10
116	116	7
108	109	8
207	221	4
81	86	2
234	234	20
166	166	10
241	245	1
64	67	5
43	43	19
99	102	1
67	67	13
14	14	8
81	81	11
174	175	3
1	4	1
185	186	4
120	120	2
84	84	17
238	238	9
201	201	20
82	84	4
195	196	9
61	70	2
70	70	10
14	84	4
34	186	2
95	95	6
216	217	4
25	25	17
220	221	2
172	184	11
230	230	9
182	217	2
168	187	1
12	20	2
36	36	12
75	99	7
100	109	1
10	32	3
149	150	9
104	104	6
69	70	6
187	187	19
7	16	4
226	245	1
50	71	1
159	160	3
57	57	9
38	38	22
241	242	10
82	82	6
35	35	7
72	72	4
7	228	3
145	145	9
30	30	6
75	75	8
193	194	8
93	94	3
39	39	5
184	184	22
158	159	7
67	68	4
51	52	7
195	195	20
81	82	6
113	115	6
225	226	4
77	121	1
26	26	10
233	233	12
60	60	5
151	151	23
234	235	4
19	19	11
75	98	5
80	80	11
245	246	6
162	162	15
106	106	7
59	62	4
210	213	6
22	22	10
239	239	28
110	110	22
203	203	7
49	63	6
108	108	13
176	176	8
190	193	4
80	81	7
152	153	10
76	76	9
181	190	1
86	87	5
31	31	8
245	245	12
119	119	14
236	237	2
163	165	7
212	212	15
155	156	5
32	33	8
77	112	1
63	63	7
173	173	14
153	154	4
208	239	1
183	183	20
91	100	4
8	9	4
77	78	6
204	221	2
53	53	15
184	185	12
100	100	12
169	193	1
174	174	8
196	219	3
150	151	5
70	72	1
200	204	5
1	1	5
23	23	10
65	66	3
214	215	3
85	85	15
120	121	1
109	109	12
190	190	6
224	225	6
96	190	1
49	72	4
219	236	1
170	170	15
56	56	10
208	214	1
220	222	2
11	75	1
79	79	5
241	246	6
95	146	1
84	87	3
79	81	6
207	207	18
186	186	21
10	116	5
204	205	5
171	217	3
155	155	15
194	194	22
174	208	3
53	55	1
79	83	3
164	167	2
187	190	4
25	26	4
218	218	6
191	196	2
90	91	3
239	240	13
6	113	4
102	103	4
36	41	3
190	191	9
158	160	3
208	209	10
169	179	4
46	46	19
17	29	2
156	185	2
112	112	26
236	238	3
107	117	1
232	232	8
78	78	14
17	18	1
161	161	11
246	246	11
118	119	3
175	175	21
24	24	7
112	115	1
205	205	10
51	51	6
88	89	6
20	21	3
71	72	2
37	39	3
54	54	17
37	37	11
120	145	3
240	240	15
88	88	10
18	19	2
59	59	10
192	195	10
6	117	1
150	160	4
167	177	2
91	91	9
14	15	6
119	120	4
147	147	2
112	152	1
226	226	6
215	216	7
171	171	27
3	3	7
56	185	1
55	55	3
42	42	8
41	42	1
48	56	1
213	216	1
179	180	7
98	98	15
170	171	5
11	18	2
20	20	13
71	73	4
31	41	1
180	180	7
231	232	9
110	115	3
105	106	4
154	155	3
210	215	1
238	239	6
201	202	2
48	49	6
170	172	1
17	17	10
97	98	2
21	41	3
159	182	2
166	167	3
69	98	2
116	117	5
245	247	5
91	180	1
24	25	1
18	18	6
19	22	2
218	223	3
178	221	2
33	33	10
168	177	3
161	162	4
211	213	3
59	231	3
84	85	5
208	208	7
194	196	6
48	64	1
118	118	13
160	217	2
192	196	4
243	244	9
111	112	4
77	104	1
201	203	2
91	92	6
178	180	4
82	152	1
97	109	3
218	219	5
25	31	1
66	171	2
54	55	4
196	197	5
10	10	15
96	104	1
32	35	2
242	242	11
234	237	3
173	174	6
200	224	3
33	35	2
113	113	9
39	40	1
31	32	1
210	214	5
186	199	1
66	66	6
45	45	14
223	223	9
146	146	8
187	189	7
94	95	8
188	189	7
228	244	1
156	177	1
168	195	1
164	164	19
163	182	3
88	106	2
162	186	3
216	216	9
63	93	1
49	49	8
52	52	13
237	238	4
93	109	2
57	58	7
172	217	3
114	171	2
188	199	1
181	189	4
237	239	2
55	57	1
218	235	1
229	229	8
16	17	1
65	68	1
18	34	2
160	160	19
34	188	1
60	63	1
181	182	9
236	240	1
196	203	1
207	222	1
77	77	18
91	97	1
107	119	4
6	7	2
172	197	3
77	79	2
225	227	4
173	184	2
167	175	2
219	220	7
100	206	4
100	101	4
47	47	6
34	35	4
181	181	15
229	241	1
188	190	1
78	106	2
81	154	3
200	203	2
96	97	2
194	195	2
45	151	2
64	64	6
76	99	4
191	191	3
106	157	2
25	30	2
9	10	3
180	183	1
63	232	1
28	28	9
199	241	1
172	174	1
68	69	1
149	173	2
58	60	1
199	201	4
64	65	7
62	68	3
225	245	2
54	56	1
6	20	1
86	88	2
77	81	1
193	195	1
117	174	2
92	92	3
175	178	1
217	218	4
48	67	1
247	249	1
97	207	1
233	235	1
171	174	2
111	245	1
90	92	1
156	158	1
188	213	4
22	24	1
223	224	6
71	75	1
187	196	2
15	31	3
69	197	1
164	182	2
233	234	2
22	23	5
47	48	7
228	228	1
201	223	2
212	213	3
58	238	2
156	168	3
79	105	3
61	62	3
202	205	4
197	218	3
49	60	1
113	116	1
23	24	2
244	244	3
78	79	3
202	204	3
94	98	2
48	50	5
19	109	1
84	86	1
44	44	8
78	103	3
198	219	1
69	97	3
35	185	3
93	93	6
221	222	4
115	116	1
3	4	2
155	202	1
100	232	1
14	111	1
77	86	1
85	88	1
37	38	6
11	31	1
152	156	2
105	105	5
8	227	1
159	184	1
166	177	4
58	192	1
239	243	1
20	29	2
181	217	1
152	158	1
57	191	2
168	168	5
192	193	3
65	74	1
46	47	1
81	90	1
174	176	2
55	56	9
99	100	3
226	227	1
24	31	4
185	189	2
78	101	5
53	54	2
52	55	2
87	89	3
61	169	1
115	120	1
226	229	2
209	210	1
189	189	5
224	224	9
221	221	8
25	28	1
191	193	1
210	211	4
216	237	2
220	223	2
22	30	2
49	74	5
49	59	2
93	100	1
76	101	3
89	90	7
208	215	1
54	61	3
110	112	2
177	189	1
51	65	1
7	8	1
160	161	1
25	29	1
12	12	4
83	83	6
111	153	4
179	220	1
11	115	1
1	5	1
23	33	1
36	37	1
202	202	3
240	241	4
155	180	2
206	209	1
242	243	3
76	78	3
232	242	3
187	194	1
50	58	1
50	51	3
215	246	3
111	244	2
168	182	2
211	214	2
114	116	4
6	31	2
82	154	2
168	181	6
11	11	6
50	57	2
247	248	4
65	65	5
164	179	1
102	105	1
229	230	4
95	97	2
201	225	2
58	194	1
78	81	5
90	104	1
168	179	2
154	203	2
82	85	2
209	236	1
199	200	3
69	69	4
40	45	2
118	120	1
230	232	1
92	198	1
9	12	2
67	72	2
49	58	1
203	222	1
73	75	5
30	31	3
226	231	1
154	202	1
50	87	1
50	74	1
4	4	3
48	187	1
111	111	5
170	191	4
206	208	1
117	118	2
13	19	1
113	117	4
121	121	1
242	245	2
11	13	3
18	20	3
246	247	2
45	46	1
153	226	1
54	66	3
154	204	3
72	92	1
15	111	3
14	31	1
199	220	1
197	200	1
28	40	1
5	5	8
165	173	3
165	166	2
192	194	2
6	110	3
59	242	1
60	62	1
110	236	1
89	92	1
163	184	1
64	66	3
79	80	2
86	100	2
166	170	3
211	215	3
13	15	1
156	160	1
66	74	1
12	18	5
202	203	4
34	36	3
190	192	1
221	223	1
167	169	3
186	190	1
71	74	1
174	177	2
240	246	1
168	169	6
218	220	1
58	59	2
94	201	1
211	212	1
160	183	3
230	233	1
107	107	4
215	215	4
207	208	2
151	154	1
20	30	1
150	152	1
75	77	1
191	239	1
85	115	1
168	170	2
248	249	2
69	99	1
107	109	1
8	226	1
66	67	2
44	51	1
99	146	2
216	218	1
235	236	2
222	241	2
199	224	3
11	47	1
42	43	3
88	91	1
84	153	2
223	236	1
2	2	4
81	83	1
188	193	1
165	174	2
51	53	2
101	101	7
8	88	1
161	163	1
38	202	2
208	235	1
55	64	1
2	4	1
165	180	2
38	80	2
232	233	2
237	240	1
167	194	1
147	152	2
191	194	3
172	175	1
82	83	3
171	186	1
74	75	1
142	142	1
56	58	2
160	165	2
96	146	2
154	205	2
20	34	1
6	6	2
85	86	1
62	63	3
90	97	1
121	144	1
166	173	2
212	247	1
26	39	1
40	42	1
35	189	2
45	51	1
168	176	1
44	88	1
222	227	2
197	198	1
59	61	1
34	190	1
103	104	2
67	170	1
166	195	1
119	239	1
158	180	2
183	184	1
40	41	1
115	151	3
186	187	4
185	187	1
38	39	2
49	54	1
92	146	1
188	225	1
214	216	1
83	84	1
172	176	1
197	199	1
181	184	2
181	195	1
18	30	1
6	108	1
36	40	1
115	172	2
78	193	1
92	200	2
65	215	1
196	240	1
116	120	2
158	183	1
58	193	1
112	120	2
160	164	1
63	231	1
112	151	1
10	17	1
51	63	5
21	23	1
11	116	1
102	195	2
76	81	1
151	205	1
96	102	1
95	98	1
51	207	1
182	185	1
78	114	1
149	149	1
21	22	1
72	75	1
5	19	4
78	85	2
72	73	1
112	118	1
151	153	1
93	95	1
88	107	1
2	91	1
159	164	1
101	103	1
96	99	1
221	226	1
112	244	1
168	190	2
194	200	1
14	19	1
171	172	2
5	30	1
165	183	1
94	109	1
110	111	1
201	220	1
35	36	1
185	188	1
96	222	1
15	29	1
197	221	1
15	28	1
19	20	1
25	27	1
156	157	1
151	152	1
151	155	1
227	228	1
75	76	1
41	45	1
191	195	1
47	248	1
229	231	1
58	195	1
15	16	1
4	19	1
14	35	2
108	117	1
23	229	1
6	8	1
119	149	1
15	86	1
56	243	1
152	160	1
114	117	1
82	151	1
56	193	1
62	230	1
164	188	1
