140	141	8
111	112	2
147	148	4
37	37	3
96	96	7
20	20	5
22	23	3
87	88	6
130	130	6
81	81	8
43	43	4
35	47	1
35	35	4
42	43	4
6	6	3
76	76	3
72	73	4
90	90	5
78	80	5
12	12	4
88	88	7
88	115	5
97	97	3
9	11	3
147	147	3
74	95	2
129	129	7
95	96	3
15	15	2
104	104	4
79	79	3
134	134	6
99	99	2
126	126	2
13	18	1
87	87	4
135	135	1
17	17	5
76	77	1
150	154	3
169	169	1
39	39	2
148	150	5
36	36	9
48	48	1
162	163	2
9	9	1
82	82	1
151	151	3
71	71	1
80	82	1
155	155	5
18	18	2
5	5	4
57	63	1
10	10	3
55	56	3
74	74	3
109	111	4
2	2	5
75	155	2
19	19	2
21	22	4
128	128	4
54	57	2
65	67	1
38	47	2
120	122	4
5	11	1
55	55	3
140	140	2
91	91	1
150	150	2
152	162	4
118	118	6
108	108	5
14	15	1
146	148	1
14	16	1
48	49	1
0	1	4
85	85	3
163	165	1
157	158	2
16	17	1
101	101	4
76	78	3
92	92	4
103	105	2
131	131	4
62	63	2
73	73	1
161	161	1
8	8	5
11	16	2
98	98	3
50	62	2
95	95	1
114	118	1
49	51	2
150	151	3
16	16	5
100	100	2
45	45	3
39	40	4
89	91	1
162	162	2
64	64	3
167	167	2
110	111	2
71	72	1
115	115	1
26	45	1
54	54	4
116	118	5
54	56	4
127	127	3
50	51	3
23	45	1
160	160	2
40	40	2
145	146	1
77	80	3
123	123	1
57	69	1
160	166	1
153	153	3
139	139	4
124	137	3
50	57	1
67	67	2
53	54	3
145	145	6
21	21	2
23	23	2
105	105	5
24	46	3
63	63	1
129	131	2
57	57	2
131	133	1
7	8	1
15	16	1
86	87	2
130	131	2
28	28	1
102	115	1
85	86	1
24	24	5
103	103	1
79	84	2
93	95	1
165	165	2
13	13	4
83	83	1
126	127	1
146	146	2
51	51	2
95	136	2
149	149	1
20	21	1
158	158	2
80	80	2
141	141	2
86	86	1
89	90	1
1	1	1
144	144	1
41	41	1
166	166	1
42	42	1
38	39	3
101	103	1
7	7	2
26	26	1
159	159	1
80	81	1
80	84	1
138	140	2
14	14	1
