99	100	9
112	112	10
113	123	1
57	57	11
110	110	16
17	36	2
106	108	2
53	68	2
101	103	4
53	54	6
66	68	7
18	36	3
28	28	18
105	134	2
93	93	16
69	69	15
113	113	12
62	63	5
71	71	15
83	83	21
7	53	2
86	88	2
89	90	6
93	94	6
5	5	5
50	52	4
82	84	5
84	85	7
8	11	6
130	131	14
66	67	9
68	90	1
92	92	18
118	122	2
63	63	7
77	82	1
49	50	10
7	9	9
21	22	5
3	4	6
78	78	9
58	59	5
115	117	6
52	52	15
77	86	5
62	93	2
127	128	15
120	120	7
103	103	9
37	37	9
107	110	2
76	76	19
55	56	2
22	22	9
70	70	18
99	102	1
29	29	7
86	86	12
77	77	8
95	95	18
101	102	9
125	126	9
36	36	11
104	104	6
85	89	1
50	50	10
105	105	9
45	45	11
126	127	11
16	16	9
32	33	9
107	109	5
33	33	8
123	123	22
89	104	1
130	130	8
113	114	3
59	61	5
49	126	1
125	129	4
112	114	3
107	107	12
112	113	7
27	27	7
122	130	2
68	68	26
3	3	5
81	99	5
116	123	3
72	72	13
21	21	21
76	94	3
74	101	3
127	129	4
36	37	3
10	10	10
122	122	7
58	58	7
95	97	6
25	25	16
102	102	13
96	96	13
131	131	8
23	23	8
59	73	5
54	54	13
117	117	13
109	109	12
65	65	13
84	84	18
124	124	13
74	75	5
9	9	6
129	129	6
111	111	12
45	50	1
91	91	17
87	87	12
84	106	4
28	29	7
125	125	11
66	66	12
82	101	1
79	102	3
50	71	1
116	116	18
32	32	10
86	87	6
23	78	2
8	10	4
20	20	4
80	80	12
134	134	8
83	107	7
62	66	7
64	64	8
59	60	12
89	89	9
65	66	3
81	81	9
64	65	9
84	92	1
119	120	10
132	133	6
35	37	3
72	73	4
56	56	13
60	100	2
0	0	10
7	8	7
45	46	4
90	90	16
100	100	4
59	69	4
12	12	6
93	95	9
121	122	4
132	132	8
69	102	1
54	70	1
33	34	5
65	88	1
106	106	14
133	135	2
1	1	2
19	19	2
73	73	13
83	84	6
47	47	3
17	20	2
7	7	13
85	86	3
109	110	8
71	72	2
8	9	4
35	35	5
107	111	2
97	98	4
118	118	9
67	67	14
52	56	1
123	132	1
84	87	1
43	43	14
46	110	2
14	14	3
14	16	5
10	11	3
128	129	5
49	49	5
69	89	6
0	4	2
64	91	1
80	81	2
24	76	1
114	114	11
108	108	8
6	7	2
116	117	6
15	16	5
103	105	4
11	11	10
129	130	1
101	101	10
22	23	4
26	27	7
31	32	4
79	79	6
4	34	3
55	69	2
63	67	4
61	61	5
98	98	12
120	121	11
27	28	5
8	8	6
101	105	1
77	78	3
57	88	3
78	108	2
65	96	1
44	45	2
5	12	5
30	30	8
83	110	2
23	24	1
62	62	7
34	34	1
109	111	1
97	97	5
53	53	12
43	44	6
27	32	1
44	88	2
56	95	1
125	130	4
44	44	8
114	115	6
115	115	5
35	93	1
122	123	4
82	86	1
1	2	5
78	107	1
4	4	6
119	121	3
70	100	3
67	69	3
126	126	11
92	93	2
110	111	2
106	107	2
0	3	6
57	58	2
49	56	1
53	65	1
87	88	3
113	115	2
61	65	1
130	132	8
64	92	1
88	90	1
13	16	3
6	6	8
131	133	2
94	95	7
19	20	5
84	86	4
94	94	9
68	88	1
77	81	1
76	77	9
26	26	4
103	104	1
83	97	1
59	59	3
128	128	3
91	92	4
44	87	4
74	74	18
86	103	1
62	96	1
118	120	4
60	61	3
88	100	2
61	64	2
48	50	3
6	8	4
111	112	2
24	24	4
106	109	1
23	28	1
85	87	2
43	106	3
25	26	3
60	60	4
47	78	1
119	119	4
46	48	1
124	125	4
117	118	6
82	82	8
4	31	2
15	15	1
123	124	1
52	53	4
56	58	2
78	80	4
115	116	5
110	113	3
56	59	2
62	92	2
64	69	1
14	15	3
117	123	3
55	72	2
84	110	1
17	19	2
131	132	4
35	38	1
19	30	3
65	68	2
89	105	1
88	88	3
61	92	2
124	127	2
84	108	2
13	13	6
97	102	2
135	135	1
133	133	4
68	87	2
79	86	1
46	69	1
76	116	1
23	25	3
37	50	3
55	58	2
100	102	1
20	21	5
18	18	3
118	119	2
128	133	2
25	77	1
56	57	4
82	83	3
89	96	1
75	75	6
55	55	13
24	25	3
99	99	4
43	45	3
90	105	1
127	127	10
95	96	4
56	96	2
77	79	2
11	12	5
38	38	3
117	119	2
83	106	1
86	106	2
78	79	2
61	62	1
5	6	2
57	59	2
86	112	2
62	101	2
65	90	1
54	56	1
79	109	1
38	39	5
92	96	1
67	122	1
102	103	1
75	94	1
82	110	1
106	117	1
73	74	2
19	22	1
128	130	4
2	2	8
60	99	1
47	48	5
55	63	1
67	68	3
66	69	4
1	3	1
100	106	1
87	110	1
9	10	4
121	121	8
81	101	2
2	3	3
26	43	2
83	111	1
105	106	3
20	66	2
132	134	3
75	76	3
91	103	1
115	119	1
134	135	5
94	96	3
70	98	3
87	95	1
104	105	1
109	118	2
122	132	1
54	55	1
45	48	2
34	35	1
31	31	4
68	98	1
71	99	1
92	94	1
63	93	1
52	68	1
52	64	2
48	71	1
37	45	3
85	95	1
125	134	2
68	69	2
63	64	1
13	17	2
20	61	2
129	131	2
31	34	1
69	70	3
117	122	1
80	90	1
85	85	3
80	105	1
71	100	1
74	102	1
20	22	1
75	116	2
16	17	2
15	22	1
48	48	2
53	69	1
84	98	1
74	103	1
83	86	1
29	30	1
17	21	1
85	111	1
105	117	1
28	92	1
79	85	1
0	1	2
28	30	1
65	70	1
87	107	1
3	5	1
13	19	1
84	95	1
55	57	1
46	46	1
124	126	1
130	135	1
17	18	1
131	135	1
12	13	1
64	66	1
75	124	1
16	61	1
68	89	1
106	110	1
126	129	1
42	50	1
78	81	1
100	101	1
