35	35	16
21	32	2
1	1	8
20	20	6
52	52	6
74	76	7
25	25	7
47	47	18
16	17	1
16	35	1
69	70	3
53	53	30
53	54	8
40	40	23
38	38	25
5	5	27
74	77	7
71	71	16
32	32	18
12	12	14
16	18	1
58	58	11
64	64	35
49	52	1
60	60	12
61	61	7
34	34	8
48	48	15
76	76	11
10	32	3
16	16	10
28	28	20
6	58	1
80	80	18
8	78	1
4	4	22
11	11	12
69	69	18
52	59	2
46	46	14
68	68	17
65	65	13
30	30	18
31	31	11
72	72	14
10	10	8
56	56	12
62	63	5
37	37	14
77	77	14
9	9	13
49	49	17
15	15	7
41	75	3
51	53	3
63	63	15
2	2	10
68	69	7
6	72	6
48	49	1
48	65	2
66	66	18
5	30	2
3	3	15
74	74	16
13	13	13
77	78	3
10	11	4
75	75	8
32	33	6
29	29	6
45	45	11
30	31	1
6	6	18
2	7	3
50	52	6
39	40	4
78	78	16
66	67	8
54	54	10
37	39	2
73	73	26
33	33	18
70	70	9
1	7	3
16	19	4
8	9	4
17	17	14
7	58	1
13	14	13
44	44	1
5	6	13
56	57	8
33	34	3
37	40	2
26	64	6
50	50	8
8	8	9
6	7	1
63	64	3
37	65	5
7	7	13
0	0	16
36	36	14
49	50	2
38	39	6
49	51	1
64	65	10
57	57	5
62	62	13
42	42	14
21	53	2
26	26	11
70	72	3
41	41	12
0	39	1
67	67	6
33	54	2
4	26	2
38	48	3
51	68	3
12	13	4
71	72	5
37	38	4
21	21	6
79	79	5
51	52	1
68	70	2
18	18	5
2	19	3
59	67	2
25	70	1
16	63	3
55	63	1
10	33	2
81	81	1
12	14	4
27	27	5
11	30	4
11	32	4
78	79	4
67	69	1
38	49	2
55	55	3
37	48	2
51	54	3
8	10	2
29	30	3
39	39	15
16	79	4
75	76	1
9	26	5
29	76	1
36	46	1
2	27	1
69	71	3
61	62	2
28	49	2
26	71	2
9	32	2
47	64	1
52	70	5
39	59	1
14	14	2
52	68	2
60	61	2
44	59	1
12	21	1
2	32	1
12	31	3
55	56	3
48	54	1
1	2	2
31	32	2
37	61	1
14	15	1
4	29	2
5	13	1
39	43	1
35	36	1
47	48	3
59	59	4
73	74	2
1	21	2
9	10	2
36	64	2
34	35	2
20	21	1
55	57	1
11	12	2
3	32	2
2	3	1
2	30	1
19	19	2
4	28	1
18	19	2
67	76	1
17	18	2
11	33	1
8	26	1
37	78	1
4	5	1
36	38	2
41	53	1
42	57	1
9	48	2
19	20	1
48	64	1
50	51	1
58	59	1
70	71	1
3	4	1
43	43	1
4	36	2
29	69	1
21	33	1
66	68	1
48	55	1
