34	34	18
49	49	17
69	97	2
73	73	9
84	97	8
110	110	14
22	22	9
57	65	2
21	21	20
80	91	2
68	69	6
72	72	19
94	94	13
87	89	5
52	52	6
75	75	15
27	28	3
99	100	1
29	29	22
95	95	8
70	70	16
38	38	14
92	92	12
53	67	5
41	41	7
66	66	10
85	85	11
108	108	11
25	37	1
31	63	4
75	80	6
45	91	1
33	35	7
75	95	3
31	112	2
101	101	6
99	99	13
45	45	21
24	24	8
86	86	5
115	115	1
50	50	17
112	113	2
59	59	8
47	47	22
91	91	11
44	44	6
56	56	4
43	43	4
68	68	7
105	106	9
68	70	1
110	111	11
71	72	7
109	110	4
38	41	4
35	36	1
74	74	15
105	105	8
59	62	8
30	30	10
22	58	6
100	100	12
114	114	5
26	27	8
63	70	2
88	88	4
112	112	11
104	108	5
102	103	2
58	70	6
35	49	1
43	44	2
98	99	2
48	48	18
87	88	4
62	64	8
111	111	8
29	30	6
69	70	10
31	49	4
47	48	3
30	69	2
48	73	4
77	77	5
88	89	4
42	42	16
79	79	14
81	97	1
106	106	4
91	94	3
112	114	1
55	58	2
93	95	6
53	58	5
103	103	18
109	109	24
37	38	3
70	71	7
53	53	3
74	107	1
24	26	8
60	60	11
101	106	2
93	93	8
44	45	2
41	48	4
25	27	4
113	113	6
20	21	6
37	62	4
87	96	2
110	114	3
38	39	6
93	94	4
81	82	4
27	70	2
76	76	9
33	98	4
77	78	2
73	74	6
67	68	1
81	81	15
32	66	1
97	97	10
100	102	4
89	89	9
53	59	3
95	111	1
65	65	9
25	25	7
75	91	5
19	20	2
53	55	6
89	92	1
84	84	7
24	27	3
36	36	1
64	65	3
77	79	2
79	87	3
31	31	16
87	87	7
71	97	2
77	103	2
26	26	12
57	58	2
38	43	2
27	27	2
81	93	7
78	102	2
66	67	4
19	19	2
58	58	10
32	37	4
82	83	1
49	50	3
64	64	8
28	31	3
97	99	1
23	23	3
98	101	1
104	105	3
26	29	1
107	107	3
96	97	4
46	46	11
68	83	1
90	90	5
24	25	3
101	102	6
81	96	4
63	65	1
72	93	4
98	98	4
78	78	5
40	41	5
54	56	1
79	80	4
78	82	2
60	63	2
44	113	8
37	45	2
59	60	4
80	80	8
34	38	3
35	35	8
54	54	2
34	80	4
85	86	5
62	69	1
58	67	5
104	107	2
75	76	4
104	104	2
28	59	1
28	30	2
73	77	2
40	40	3
102	102	1
65	66	4
56	71	3
79	113	3
55	55	5
75	104	5
111	113	3
32	32	4
56	59	2
30	31	4
21	40	2
65	69	1
25	26	3
80	92	1
39	39	3
61	62	2
57	106	2
62	68	3
55	56	2
45	46	5
19	71	2
76	78	3
39	78	1
83	83	5
45	50	2
21	28	3
51	51	9
56	57	4
88	92	6
68	82	1
33	34	5
28	28	5
67	67	4
84	111	1
71	83	3
29	71	3
41	42	3
46	47	6
53	78	4
61	61	2
33	33	5
31	62	1
60	65	2
27	40	3
107	108	1
75	107	3
24	64	1
78	81	3
62	62	7
27	29	4
60	73	1
50	114	1
19	22	2
69	69	2
20	20	5
80	90	2
84	85	3
35	64	1
104	112	1
87	94	1
61	67	1
113	114	1
32	33	2
63	64	1
97	98	1
46	64	2
70	72	2
72	75	2
82	85	2
58	59	3
79	86	1
37	37	4
78	79	3
83	102	3
59	77	3
39	40	1
54	87	1
36	37	2
80	110	1
111	112	1
103	106	4
108	110	1
58	78	2
82	82	2
30	60	1
100	101	2
30	32	2
56	78	1
76	112	2
54	57	1
31	64	1
36	87	1
77	80	1
96	108	1
102	107	2
51	77	1
62	63	1
48	74	1
25	29	1
61	73	2
101	103	2
81	85	1
95	96	1
102	109	2
28	29	1
37	54	1
57	57	1
47	50	1
76	80	1
53	54	2
29	107	1
106	107	1
48	88	1
20	23	2
61	70	1
64	69	1
98	107	1
65	87	1
83	84	1
66	100	1
63	63	1
96	107	1
52	55	1
89	91	1
22	26	1
