49	71	1
64	64	10
20	20	9
31	31	10
28	28	13
49	70	4
35	36	12
31	32	6
12	12	8
50	71	4
36	36	5
27	27	12
45	45	11
41	41	3
25	59	4
54	60	1
41	42	1
22	23	2
48	48	8
36	70	1
68	68	10
9	9	5
5	6	6
3	3	14
74	74	12
75	75	13
67	67	4
24	25	8
19	19	10
56	56	18
29	42	5
23	23	11
73	75	3
61	61	12
25	26	5
11	12	5
39	45	2
32	32	10
57	57	10
76	77	6
10	11	6
72	72	7
29	47	1
52	52	2
6	6	6
20	21	2
58	60	1
62	62	16
66	77	1
25	58	5
77	77	6
5	5	12
28	31	12
8	8	8
26	27	4
47	47	5
13	13	7
25	25	11
5	13	4
62	63	4
36	38	2
50	50	3
35	35	9
14	14	6
70	70	2
11	11	10
71	71	3
69	73	6
4	4	6
43	43	13
68	75	2
63	63	7
62	71	2
59	71	3
3	6	1
54	55	2
29	29	12
67	71	1
72	73	5
40	47	1
30	30	2
19	21	1
49	51	4
49	49	3
26	29	2
61	63	3
62	67	2
62	64	3
40	40	10
59	59	7
43	46	2
18	18	9
33	33	7
74	76	4
44	44	8
37	37	3
73	73	10
35	41	4
37	38	5
51	53	1
34	42	1
23	26	1
21	21	5
29	31	6
70	71	1
54	54	7
0	0	18
38	38	5
50	51	3
46	46	4
39	39	5
69	69	4
51	51	6
73	74	3
40	41	4
42	42	3
28	29	3
53	53	9
56	57	1
3	49	3
1	1	3
7	19	3
55	55	6
34	34	3
49	69	1
29	30	2
42	47	2
23	24	2
5	21	1
24	69	2
52	57	1
26	57	3
2	2	6
52	56	2
28	30	3
24	24	8
49	50	2
14	62	1
7	7	5
22	63	3
10	10	8
6	26	1
68	74	2
23	25	2
30	39	1
36	71	3
55	60	3
27	28	1
21	23	2
19	20	1
28	46	1
69	70	1
0	1	2
2	31	1
4	5	2
8	12	2
21	22	1
10	42	1
65	67	2
42	43	1
22	22	4
50	66	2
72	74	2
49	60	1
50	69	1
62	66	3
64	65	2
24	50	1
48	72	2
68	69	1
28	32	2
10	41	2
10	70	2
14	70	1
18	20	1
27	31	1
71	72	1
43	77	1
24	49	1
10	33	1
69	71	1
29	39	2
75	76	1
14	75	2
50	70	1
7	8	3
60	60	2
8	9	1
9	12	2
66	67	1
6	21	1
65	65	1
59	60	1
34	40	1
31	43	1
1	7	1
7	44	2
35	75	1
45	46	1
31	40	1
2	21	1
35	39	1
8	18	1
