41	41	22
83	83	10
51	52	2
63	63	21
81	84	4
68	68	9
76	77	20
82	82	6
38	39	1
90	90	42
96	97	6
61	62	23
101	101	23
91	91	24
86	86	11
52	52	25
66	66	24
70	71	5
92	92	30
47	48	10
91	99	1
45	45	7
44	44	18
41	42	8
76	91	4
42	42	19
99	99	23
45	47	5
60	60	26
73	73	12
102	102	8
77	78	7
58	58	19
85	85	17
95	95	23
46	47	4
36	36	15
57	57	21
44	49	2
91	92	7
49	49	10
54	62	3
51	51	29
85	90	3
46	46	9
81	82	22
72	72	21
71	71	12
69	69	23
81	101	1
72	73	3
89	89	16
46	50	3
64	64	22
39	39	9
53	53	10
59	59	19
80	80	19
81	81	3
86	87	4
43	43	22
94	95	2
55	55	16
30	30	3
86	99	4
75	76	4
35	37	6
76	76	21
25	25	18
79	79	10
70	70	13
77	77	10
97	97	18
96	96	8
93	93	26
27	27	6
34	34	13
25	26	1
48	48	7
79	80	7
49	51	4
61	61	14
93	94	8
51	56	3
84	84	13
88	89	12
89	90	3
40	40	17
56	56	21
92	94	4
67	67	19
62	62	10
88	88	8
34	35	3
92	93	4
100	100	6
96	99	3
90	91	18
51	53	2
49	50	4
78	78	4
35	59	1
89	91	2
54	54	15
63	64	3
74	84	3
98	99	2
52	62	1
68	69	3
93	102	3
80	82	2
55	81	7
41	43	6
71	72	8
26	27	5
74	85	2
64	65	3
35	35	6
28	28	5
99	100	7
61	65	3
33	33	6
73	80	3
53	54	6
48	49	3
24	24	4
75	91	2
94	100	10
93	98	5
89	92	2
44	46	6
74	74	14
29	29	4
31	32	1
65	65	11
75	75	17
86	88	4
50	51	8
55	56	6
82	83	1
29	36	7
53	55	6
58	59	5
54	55	3
87	88	5
42	52	4
38	38	8
35	36	6
44	59	6
34	49	3
69	75	4
57	58	6
98	98	7
85	87	1
36	60	3
61	98	4
96	98	1
26	26	4
37	40	2
24	81	2
90	93	2
67	73	4
56	57	5
31	31	3
94	94	9
66	67	4
65	68	2
45	48	2
79	86	3
91	93	1
32	33	2
77	90	1
94	98	5
23	29	1
47	47	6
59	89	2
77	91	1
23	81	2
86	90	2
62	63	2
86	102	3
93	95	1
51	55	3
48	50	5
95	98	1
50	50	19
64	66	1
61	63	1
75	78	2
69	70	2
65	66	5
28	29	2
74	75	3
42	43	2
75	90	1
59	60	6
30	32	1
85	86	4
37	37	5
35	38	1
68	71	2
55	99	1
70	95	1
79	100	1
97	98	2
52	63	1
83	85	2
55	63	1
87	93	4
31	34	2
48	58	1
87	94	3
87	87	4
87	90	1
48	85	2
94	96	1
30	31	2
39	40	1
29	30	2
67	68	2
39	60	2
40	41	2
35	69	1
98	101	1
60	62	2
88	93	1
80	81	3
40	53	1
92	96	2
59	61	1
86	92	2
34	95	1
54	101	6
90	92	1
63	80	2
52	53	3
100	101	2
43	66	1
92	98	1
51	57	3
23	23	1
37	59	1
78	79	1
60	61	2
43	44	1
22	23	1
90	99	1
86	89	1
33	34	1
78	80	1
85	89	2
39	78	2
67	72	1
68	74	1
52	64	1
97	99	2
31	59	1
75	94	1
69	76	1
52	57	1
