54	55	2
15	22	4
158	158	20
93	93	11
101	157	2
116	158	1
92	92	13
151	151	29
47	47	19
41	99	3
107	107	14
38	145	3
142	153	5
95	95	9
46	46	28
44	44	17
17	17	17
119	141	2
138	139	4
38	39	7
70	126	4
45	45	12
69	69	16
114	114	12
134	134	35
74	74	4
109	109	17
12	34	4
144	144	13
16	18	6
45	47	4
7	7	38
3	3	25
131	131	15
10	11	7
16	16	3
4	5	7
32	32	9
105	105	15
2	2	21
30	30	20
137	137	22
48	48	6
42	42	10
128	128	13
127	127	28
109	112	7
89	89	10
15	15	11
132	132	7
132	133	6
71	80	4
86	86	12
75	75	15
53	53	11
112	147	4
14	14	14
140	140	16
5	6	5
50	50	13
81	81	10
80	80	22
0	30	5
68	68	12
11	127	4
38	38	13
130	131	10
67	67	18
31	31	7
79	80	3
3	45	4
18	18	18
12	30	2
28	29	3
136	136	15
148	148	13
2	142	1
28	28	11
138	138	17
40	40	12
11	47	3
20	30	3
112	113	4
33	34	10
149	150	4
39	39	14
112	112	12
130	134	3
77	79	7
155	155	9
90	91	1
135	136	5
149	149	1
40	41	16
121	122	4
131	135	2
24	24	18
155	156	5
34	34	13
82	82	6
16	27	4
97	97	10
116	116	25
79	79	15
63	141	2
123	124	6
68	69	5
111	115	2
148	152	3
18	33	3
8	9	5
123	123	14
40	70	2
4	4	13
140	148	5
81	82	7
68	71	4
85	86	9
21	21	15
112	122	1
78	78	12
87	122	4
106	106	13
135	135	20
12	12	13
66	70	2
78	126	9
52	52	17
22	36	4
41	41	15
51	51	14
150	150	15
13	16	6
27	27	20
101	101	18
98	102	4
41	42	9
64	64	8
50	51	7
70	71	11
140	156	2
114	134	4
48	58	3
7	8	5
55	55	19
77	77	9
20	21	13
25	25	17
94	94	27
118	118	9
7	30	3
125	125	11
115	115	27
116	117	6
130	130	20
103	103	7
140	141	6
136	137	16
87	88	6
99	99	12
6	6	23
11	32	5
67	70	4
57	57	4
1	1	11
53	79	1
8	8	17
26	26	11
19	32	2
100	100	18
62	62	22
89	118	4
43	44	3
40	43	6
6	7	8
109	155	3
111	111	16
21	22	4
33	117	3
69	149	1
139	139	18
119	147	3
131	134	4
102	106	2
85	103	1
0	0	11
72	72	4
38	50	1
124	124	2
27	28	5
20	22	8
12	31	2
29	32	3
30	93	1
146	146	17
120	120	9
91	91	10
27	46	2
20	20	15
156	156	9
96	96	10
95	96	10
67	83	1
18	34	2
47	48	6
26	27	2
106	107	9
90	90	11
43	43	24
103	104	7
76	76	4
63	63	5
62	76	1
29	30	2
117	119	3
71	77	2
23	25	5
5	108	1
10	10	7
36	39	2
156	157	5
129	136	1
84	84	12
90	118	4
67	69	3
9	13	3
133	138	7
73	73	14
117	123	3
157	157	6
66	67	5
9	49	2
141	141	8
1	93	2
51	52	8
30	31	6
117	118	4
151	158	2
39	41	3
114	115	16
88	89	7
119	158	6
53	123	3
119	119	8
108	108	10
134	135	6
106	113	3
113	123	4
29	31	1
46	97	4
125	126	5
120	146	3
131	133	5
54	54	15
98	98	8
25	26	6
109	110	8
122	123	3
80	85	2
39	45	2
56	57	1
29	102	1
92	125	5
70	70	6
103	135	3
66	66	13
7	24	4
101	102	2
36	51	1
110	110	17
17	33	1
153	153	10
105	106	5
147	153	2
152	153	3
34	37	7
91	93	2
105	136	4
158	159	5
122	122	18
142	144	1
49	49	7
77	81	1
72	101	1
52	53	3
8	12	6
139	140	2
112	123	5
85	85	13
133	133	8
145	145	11
146	147	10
117	117	12
77	154	2
66	95	3
152	152	11
18	19	7
22	22	21
104	150	1
13	13	11
134	137	2
51	54	3
98	105	1
29	29	15
159	159	3
36	104	1
120	121	6
2	5	7
71	72	5
15	16	6
19	21	3
99	102	1
56	118	6
19	19	20
103	157	3
3	4	12
154	155	4
42	43	5
54	93	2
113	113	11
30	35	3
38	154	1
78	79	9
12	13	6
99	100	5
142	142	8
102	102	11
51	64	2
19	51	1
14	15	2
106	140	2
129	135	3
13	14	10
80	83	4
47	56	1
87	134	1
31	41	4
93	109	3
67	68	4
151	152	1
53	64	4
24	127	2
89	90	5
44	73	2
104	104	18
118	119	5
113	137	2
106	126	2
145	146	6
23	26	2
22	24	2
33	37	2
18	35	2
147	147	6
117	137	2
1	41	2
107	109	1
8	11	3
94	158	2
119	122	4
0	1	5
98	127	3
25	124	3
71	71	8
5	105	1
71	126	4
123	125	3
33	33	13
5	5	11
137	139	2
57	63	2
55	118	1
49	51	1
112	145	3
127	144	2
87	87	10
47	131	1
90	126	3
128	129	6
29	41	2
143	143	6
46	52	2
69	70	3
95	111	3
37	97	3
91	117	2
39	49	1
118	120	2
86	88	2
92	93	5
28	31	2
83	85	1
27	99	3
93	116	4
104	107	1
133	134	1
55	56	3
70	72	1
7	78	1
35	39	2
17	19	2
11	42	1
129	129	15
131	157	3
24	25	1
79	82	6
106	124	5
54	56	3
37	38	4
14	21	3
127	143	1
36	37	7
38	48	2
29	79	4
115	116	3
135	146	2
99	159	1
77	90	5
141	145	5
35	36	2
85	90	4
39	40	3
67	71	4
109	111	6
62	96	2
23	23	11
54	64	3
86	87	2
62	71	2
112	118	1
124	140	1
75	76	3
39	42	1
104	139	2
131	132	4
20	141	1
141	143	2
65	65	12
18	55	1
111	146	1
22	23	3
104	111	1
6	19	3
113	124	1
126	126	6
154	154	13
36	36	3
69	71	2
143	144	3
157	158	5
112	119	1
71	96	2
137	138	1
96	97	6
140	145	3
64	66	1
2	4	1
20	104	3
7	23	4
37	37	14
85	89	1
127	128	1
1	2	8
22	38	1
11	103	4
147	157	3
119	120	3
82	118	1
84	94	4
83	83	7
144	145	3
120	124	2
88	88	8
143	155	3
129	130	7
45	46	2
86	142	2
123	144	1
46	47	4
128	133	1
32	33	1
97	98	7
50	98	1
102	134	2
28	67	1
155	157	2
148	149	1
48	49	5
121	121	3
52	54	3
18	21	1
78	96	2
51	53	2
48	50	1
32	43	2
30	83	1
35	35	8
77	152	1
110	111	4
84	135	3
22	155	2
104	110	1
110	154	1
90	93	1
101	107	1
12	51	3
26	47	1
42	70	2
53	56	3
2	28	2
56	120	1
8	25	1
105	107	1
11	11	9
148	158	2
9	9	8
146	154	3
12	14	1
142	143	3
48	70	1
50	138	1
151	157	2
142	147	1
7	10	1
14	50	1
24	116	1
88	95	1
18	44	2
82	83	6
63	64	1
3	141	2
31	32	5
144	146	1
50	52	3
56	63	1
29	33	1
126	127	1
2	45	1
118	121	1
141	144	1
12	32	3
4	36	3
12	16	4
125	140	1
123	139	1
2	25	1
14	31	1
6	40	2
116	128	3
41	43	1
51	55	1
38	47	2
129	137	2
123	140	2
98	99	4
141	142	1
110	116	1
128	135	1
111	117	4
108	113	1
52	64	2
3	43	3
87	111	1
23	24	1
77	83	1
128	136	2
80	96	2
31	34	1
92	117	1
48	56	2
27	29	2
16	20	1
105	151	2
13	21	2
70	84	1
105	119	2
79	124	1
140	147	1
142	146	1
14	20	1
146	152	2
103	142	1
94	95	2
33	35	1
23	32	1
93	94	3
3	40	1
49	68	1
117	158	1
30	92	2
0	2	1
91	92	3
84	117	2
95	122	1
105	121	1
146	153	1
20	151	2
1	102	1
89	123	1
113	136	1
17	36	1
7	11	2
95	97	3
152	154	3
100	101	2
57	61	2
124	125	1
111	112	1
8	35	1
4	154	2
87	90	1
117	124	1
79	115	2
107	108	2
146	148	2
19	20	1
115	120	1
17	18	5
122	141	1
76	97	2
116	148	2
75	117	1
122	135	1
105	139	1
44	106	2
115	136	1
121	153	1
112	155	3
121	123	1
56	56	2
77	91	2
77	104	1
90	92	1
15	49	2
2	23	1
53	54	1
2	3	2
102	103	3
88	104	2
30	115	1
111	147	1
36	43	1
117	125	1
25	36	1
47	139	1
129	131	1
41	110	1
8	32	1
80	95	1
150	151	1
102	136	1
120	157	1
115	124	1
41	79	1
108	109	4
28	48	2
135	138	1
37	139	2
48	52	1
4	37	1
6	10	1
32	113	2
9	10	1
145	148	1
80	81	1
16	37	1
93	157	1
104	112	1
17	101	1
85	88	1
79	128	1
136	140	1
52	124	1
93	97	1
104	122	1
31	68	1
12	98	1
52	56	1
125	134	1
88	125	1
19	22	1
57	122	1
30	41	1
98	158	1
124	150	1
