104	105	9
21	35	4
7	7	11
93	94	11
133	133	28
109	127	2
99	100	2
23	25	7
109	109	14
23	23	13
101	101	11
73	78	4
7	104	1
85	85	2
113	113	16
24	25	3
123	124	3
74	74	11
100	113	2
116	122	3
13	13	11
126	126	5
114	115	4
116	116	9
135	135	14
25	25	8
6	6	13
19	19	16
12	12	8
1	9	2
122	123	2
0	7	1
27	27	7
119	119	15
77	120	1
14	14	9
35	35	18
98	131	2
138	139	1
124	125	9
8	20	1
136	137	4
114	114	9
10	12	3
85	125	2
109	122	2
86	86	10
71	72	5
90	90	14
127	127	19
9	22	1
30	30	6
24	24	5
126	129	2
119	120	4
121	122	7
130	130	10
78	79	10
9	23	1
79	83	2
17	18	3
10	66	1
126	127	2
36	36	12
71	71	13
75	89	3
96	96	12
22	22	8
122	122	20
2	2	10
1	8	4
19	20	7
117	117	20
81	82	7
128	129	1
108	108	16
25	26	10
137	137	3
26	26	2
128	128	15
8	8	3
124	124	16
105	106	4
5	6	7
73	73	5
82	82	9
118	118	9
75	77	1
95	95	17
37	37	15
108	129	1
5	102	3
129	129	12
7	23	5
10	11	3
100	103	3
21	21	8
112	112	5
118	119	9
17	17	9
121	123	1
74	75	6
88	88	3
83	84	5
72	72	19
7	8	9
92	92	6
108	132	1
93	93	13
34	34	13
28	28	13
131	131	19
136	136	18
132	132	12
104	104	9
103	103	5
78	80	2
33	34	4
4	7	1
91	91	6
27	72	3
105	105	4
23	26	2
86	122	2
87	87	1
140	140	11
11	11	4
84	84	4
34	35	1
4	5	7
11	17	3
123	123	19
16	16	4
13	14	6
5	32	4
29	31	1
23	24	3
1	1	11
33	33	20
94	107	3
113	128	2
20	20	11
78	78	3
111	111	10
18	21	3
79	79	4
7	9	2
106	106	4
87	88	4
120	120	4
113	114	5
80	80	7
89	89	8
107	107	9
23	101	5
27	28	4
85	86	3
104	109	1
11	115	2
129	130	11
112	128	1
3	3	7
14	15	3
102	102	8
38	38	3
72	74	2
98	98	14
4	4	8
113	127	2
36	37	4
104	106	2
35	130	1
107	120	4
34	89	3
134	134	11
115	116	7
23	27	3
81	121	5
73	74	5
108	120	1
2	22	1
113	131	1
5	5	6
1	26	8
99	99	4
6	101	4
132	133	1
96	97	1
11	25	1
4	38	5
30	32	5
92	93	1
31	31	8
135	136	4
20	21	3
110	110	4
89	90	9
15	16	1
88	89	1
101	116	2
101	102	4
35	36	2
138	138	5
27	68	2
74	120	2
137	138	1
10	24	1
84	85	2
19	21	5
1	25	2
82	83	5
81	81	1
8	9	4
74	88	4
81	89	1
5	20	2
127	129	6
100	100	12
80	81	5
139	140	2
84	103	1
9	19	1
80	82	2
123	125	3
120	123	2
139	139	9
94	94	6
74	100	2
138	140	2
76	77	1
127	128	2
16	23	1
18	18	13
3	4	3
22	23	2
112	113	7
81	90	1
134	135	6
99	119	3
95	96	4
86	87	3
75	102	1
6	21	1
130	131	2
97	97	3
125	125	13
71	106	2
123	126	3
88	106	3
81	85	1
97	99	1
11	12	2
108	115	9
107	108	5
27	29	2
129	136	1
17	19	2
102	103	4
71	104	1
105	125	1
29	30	2
2	3	1
79	80	2
10	15	1
89	123	2
110	111	3
83	85	4
117	118	3
105	109	2
121	121	6
1	4	2
107	122	1
95	105	1
94	95	1
1	24	1
91	111	1
72	91	1
123	127	4
77	121	1
127	136	1
4	32	1
87	106	2
103	140	1
37	38	2
22	27	1
75	124	3
73	80	1
27	116	1
1	66	1
73	77	1
78	81	1
75	126	1
135	137	2
18	20	1
76	76	3
4	6	2
135	138	1
15	17	1
2	12	1
93	128	1
116	117	4
115	115	4
98	116	1
112	114	3
81	124	2
133	135	1
99	129	1
129	133	1
1	10	1
68	71	1
80	83	2
73	75	1
29	29	2
17	21	1
135	140	2
109	110	2
2	35	1
75	76	2
120	128	1
32	111	1
15	38	1
16	17	1
0	0	4
82	85	1
22	101	3
10	10	2
77	78	3
100	129	1
81	83	2
15	15	5
102	107	1
88	140	1
96	110	1
6	11	1
89	108	1
34	136	1
106	108	1
30	31	1
111	117	2
44	44	3
75	78	1
74	101	1
111	119	1
78	120	1
91	94	1
71	78	1
73	85	2
32	118	1
0	101	1
96	98	1
35	134	1
114	118	1
106	115	1
96	118	1
66	104	1
2	6	1
131	133	1
