194	198	5
43	43	5
172	172	6
12	12	11
109	173	2
186	187	5
104	117	5
48	48	2
6	13	1
80	81	3
201	201	2
6	14	5
20	20	3
81	81	3
58	61	3
208	208	3
19	19	3
52	53	4
115	115	3
163	187	4
10	39	4
28	28	6
76	80	3
14	14	2
149	174	1
44	45	2
101	101	1
123	123	2
32	32	6
38	38	5
101	102	4
17	17	3
1	1	6
53	53	3
189	190	6
44	44	3
57	132	2
9	44	2
184	214	1
102	102	5
212	212	5
15	36	2
9	9	1
127	207	3
211	211	6
163	203	2
3	3	3
100	101	4
173	173	8
199	199	3
218	218	2
15	16	7
161	161	4
139	139	2
47	47	2
137	166	2
72	237	5
108	108	1
16	16	4
175	176	3
11	11	9
212	221	2
214	216	2
205	205	2
75	75	2
114	115	3
135	135	4
11	12	2
9	45	2
72	72	3
154	170	4
137	140	1
21	21	7
188	210	3
127	128	2
82	84	3
141	141	4
180	180	2
202	203	2
70	70	3
129	129	6
188	191	1
203	209	1
60	238	1
159	207	3
188	188	5
206	206	4
239	241	1
198	199	2
73	86	3
219	229	2
99	99	3
148	148	4
177	187	1
141	142	4
3	20	6
96	120	5
42	42	3
85	85	2
158	162	3
109	109	5
121	174	2
64	220	2
218	240	2
74	74	3
36	36	1
162	162	3
8	12	3
205	212	3
17	19	1
54	54	5
214	214	3
133	133	4
217	240	1
33	34	6
227	227	5
69	69	5
20	29	1
217	218	1
176	176	3
229	229	5
220	241	2
161	192	6
7	15	5
29	29	7
209	209	2
46	56	2
76	76	1
174	174	2
29	68	1
4	16	1
88	153	3
61	62	2
40	40	3
105	105	5
147	147	2
228	231	1
30	30	5
207	208	3
152	152	4
27	232	2
57	57	3
66	66	2
50	111	3
49	49	2
18	36	7
149	179	2
199	205	1
106	121	1
196	197	1
118	129	1
115	127	4
61	61	6
124	124	4
107	107	4
172	179	1
219	241	3
164	165	2
187	204	3
154	214	1
224	224	1
121	121	3
59	60	1
182	182	2
6	6	6
104	116	2
149	175	2
140	156	1
159	166	4
13	13	2
62	62	2
178	178	7
146	146	1
52	52	1
25	25	3
222	222	4
139	148	1
46	217	1
202	202	5
209	210	4
86	143	2
60	60	1
8	13	3
40	42	1
193	197	1
41	41	4
4	34	3
48	52	1
223	223	1
141	143	1
185	215	3
28	54	2
186	186	2
129	154	1
58	60	1
171	177	1
158	158	1
96	96	4
128	128	3
166	169	1
226	227	3
133	134	1
57	58	1
25	26	5
30	35	1
177	177	2
5	7	2
171	213	2
199	208	4
64	64	2
103	105	2
22	22	1
76	83	2
77	115	1
99	100	1
13	14	3
57	59	1
49	79	1
7	23	2
229	230	1
108	123	2
156	156	2
220	221	1
220	220	1
65	65	1
54	55	2
235	237	2
24	39	2
27	28	2
218	223	1
4	5	2
40	41	2
34	34	3
5	5	2
113	113	1
19	20	2
10	10	3
205	206	1
186	190	1
52	119	2
221	222	1
221	223	2
59	126	1
85	88	2
153	155	2
140	141	1
200	211	2
186	206	1
225	225	2
50	50	1
54	61	2
98	98	1
116	124	1
70	86	1
201	209	1
14	23	1
234	242	2
159	159	2
57	74	1
216	216	1
189	189	1
46	46	3
196	196	2
163	163	3
211	213	3
200	212	2
15	15	1
197	197	2
109	162	5
7	7	2
107	118	2
228	228	2
34	35	2
138	138	1
114	125	2
238	239	1
234	234	1
2	29	1
22	23	1
148	151	1
82	82	1
163	171	1
15	17	1
86	87	1
2	228	1
32	69	1
134	134	1
71	71	1
66	240	4
235	235	1
131	131	3
13	15	1
101	103	1
10	87	1
117	117	2
203	203	2
55	55	2
171	209	1
126	127	1
180	183	2
242	242	2
56	56	2
12	14	1
2	2	1
27	27	1
136	147	2
203	208	1
78	80	1
222	229	1
144	145	2
233	238	1
217	217	1
181	181	1
183	183	1
60	237	1
33	41	1
0	225	1
6	22	1
63	63	1
210	211	1
226	226	1
127	127	1
145	146	1
145	145	1
84	89	1
117	174	1
192	192	1
21	36	1
130	130	1
97	101	1
