53	53	7
63	63	7
89	89	28
12	14	3
30	30	11
76	76	5
4	4	16
22	22	24
9	9	6
57	57	38
12	15	2
58	58	31
77	77	19
60	65	1
20	20	18
62	66	5
83	83	24
82	83	11
69	83	6
90	90	3
17	17	10
49	50	3
23	24	10
9	56	1
12	12	15
7	7	19
50	51	15
19	19	19
5	6	7
5	7	4
82	82	23
61	63	2
22	48	2
56	56	27
2	2	13
26	26	15
32	32	6
80	80	20
29	30	5
27	27	11
49	49	17
51	52	2
23	23	10
3	3	11
0	1	2
0	0	12
59	59	6
14	14	16
74	75	5
22	46	3
71	71	30
21	75	1
48	48	13
79	79	6
28	58	5
21	21	8
55	55	15
52	53	13
5	5	5
86	86	17
1	1	14
21	84	1
73	73	10
56	57	2
67	67	11
50	50	22
61	61	5
10	11	5
25	25	23
57	58	13
68	69	8
70	70	8
72	78	7
85	85	19
20	21	7
24	24	25
53	65	1
84	84	7
7	8	6
27	68	4
85	86	16
8	10	1
54	55	6
5	12	8
81	81	7
11	11	17
62	63	8
74	74	10
16	17	3
63	65	3
54	54	20
4	10	4
89	90	9
15	15	6
59	60	9
52	52	15
6	6	12
49	65	4
76	82	1
46	49	3
47	47	15
47	48	5
78	78	4
52	65	4
10	17	1
17	63	5
31	31	17
51	51	11
22	31	2
20	49	3
48	49	7
5	9	3
58	68	4
6	7	3
24	25	4
87	87	11
8	8	20
29	29	12
66	66	9
21	31	1
4	5	6
18	18	9
66	67	7
62	62	9
74	83	2
17	51	2
64	64	8
59	62	8
12	20	5
69	69	9
11	12	2
9	10	7
72	74	4
72	73	5
88	89	5
13	20	4
26	27	3
28	28	5
79	80	4
11	81	2
68	68	7
8	9	4
25	26	12
13	13	13
75	75	10
65	65	11
51	56	5
6	8	11
81	84	1
9	11	2
15	16	8
80	85	3
16	18	4
78	82	6
78	79	8
70	74	1
71	77	2
48	58	3
6	12	1
13	14	4
48	59	1
88	88	11
10	10	8
68	84	2
31	56	3
86	87	4
53	83	2
12	27	5
69	70	2
32	55	2
20	22	2
24	27	5
78	80	2
51	60	2
57	84	6
10	12	5
80	81	2
50	65	5
0	2	2
0	11	2
74	79	1
1	2	3
52	56	5
67	68	6
63	66	2
33	33	2
56	83	4
63	64	5
14	15	2
16	16	3
0	55	1
33	34	1
71	73	1
76	77	4
81	82	2
47	52	1
10	14	6
2	3	1
31	52	3
87	88	2
69	74	3
17	18	4
9	54	1
22	47	1
19	20	4
53	54	3
47	60	1
34	34	1
6	13	2
6	9	2
31	54	2
85	87	1
60	62	3
72	77	3
20	82	1
25	47	2
21	46	1
59	66	1
27	28	2
12	25	1
34	35	2
75	76	2
79	81	2
17	52	2
19	50	4
76	83	2
53	55	1
46	63	1
52	64	2
70	73	1
68	85	2
30	31	1
5	8	2
32	62	1
46	47	4
47	62	3
48	50	1
65	66	4
58	60	2
12	13	2
3	4	3
47	50	3
33	62	1
6	26	1
77	78	1
18	50	1
48	57	2
21	22	2
72	79	2
23	25	1
30	56	1
30	67	2
83	84	1
73	76	1
55	56	1
73	74	1
72	72	1
9	82	1
60	60	1
4	85	1
