88	89	5
129	129	10
14	14	15
10	10	5
68	76	2
65	65	6
55	55	5
42	42	5
4	4	17
5	6	5
111	111	12
61	61	4
82	82	7
3	12	5
48	48	9
54	54	11
95	124	1
131	132	5
20	20	2
89	90	4
92	92	15
117	118	8
46	46	13
98	109	2
0	63	4
105	114	3
70	71	3
115	115	9
44	44	12
108	108	15
87	87	3
118	119	10
68	68	9
41	42	3
31	31	10
118	118	7
90	90	10
5	5	10
22	23	9
105	107	4
17	21	4
104	104	10
6	6	3
106	106	5
95	95	6
91	91	5
1	93	2
19	19	9
25	25	13
24	24	10
13	13	6
105	105	4
42	45	7
120	120	5
3	33	2
107	113	2
114	114	12
81	101	4
18	22	5
95	115	4
23	34	3
89	89	6
86	86	5
40	40	8
13	14	5
15	15	6
97	128	2
97	97	5
46	47	2
65	72	3
119	126	2
100	100	5
75	77	5
103	103	3
10	28	3
62	62	6
96	100	4
25	27	2
129	130	7
18	18	11
106	107	5
3	3	5
6	13	1
41	41	12
70	70	2
101	108	2
19	23	2
120	129	1
114	115	4
56	57	4
3	8	1
123	123	4
63	66	3
90	92	5
87	89	2
49	49	4
77	77	22
99	99	4
51	51	6
69	69	12
57	57	9
83	83	5
19	22	2
64	64	6
99	100	1
0	3	2
12	12	7
117	119	5
66	67	1
30	30	1
47	48	9
9	27	1
20	51	1
122	122	5
28	31	2
19	38	2
9	9	7
76	76	10
127	127	5
96	96	9
73	76	3
29	29	4
50	51	4
33	33	5
53	106	3
93	93	8
59	59	8
92	93	4
50	50	6
89	91	1
45	47	2
107	107	2
52	52	15
72	72	5
98	100	1
113	113	5
2	2	8
12	13	4
88	132	3
108	116	3
59	60	2
88	90	1
20	25	4
131	131	9
109	109	4
92	118	3
73	73	10
49	92	1
90	128	3
81	98	4
130	130	9
4	7	4
39	82	1
46	107	1
102	102	4
26	32	1
41	44	2
56	56	4
44	46	2
96	125	2
53	53	10
21	24	1
85	88	1
90	93	3
103	108	1
55	63	4
67	69	1
100	101	5
79	101	2
60	60	7
38	38	4
101	104	1
70	104	2
71	72	6
93	94	3
18	100	2
107	108	5
83	120	3
52	53	5
113	114	4
125	125	11
73	77	1
106	109	1
74	76	2
0	2	3
80	80	4
43	43	5
58	58	2
67	68	5
11	47	3
67	67	3
20	21	4
2	20	3
104	105	7
93	122	3
16	17	4
119	129	4
45	45	2
103	110	1
24	26	1
23	25	1
7	7	3
66	66	5
38	40	2
34	34	7
48	105	1
120	121	3
85	85	6
1	1	2
51	53	3
22	26	1
102	106	2
73	74	2
51	52	3
7	14	1
77	99	1
65	66	6
56	62	3
16	16	8
21	21	1
99	127	2
44	104	5
131	133	1
81	81	3
25	34	3
48	106	3
91	92	6
60	62	5
39	39	13
21	22	2
72	73	2
22	22	3
108	114	3
41	75	1
31	40	5
84	84	4
79	79	2
132	132	1
77	79	10
64	85	1
63	63	2
79	104	1
95	117	1
94	95	1
7	9	1
42	43	1
24	27	1
23	23	2
119	119	5
14	22	1
67	77	3
20	84	3
9	10	2
77	97	2
72	128	1
71	71	4
41	81	1
111	112	1
2	3	3
17	38	1
100	103	1
8	9	3
10	12	1
98	104	2
93	100	2
118	126	2
78	79	1
128	129	4
14	16	5
110	110	4
8	8	2
72	77	1
125	128	2
22	25	1
112	112	4
19	87	1
112	113	1
5	45	2
132	133	1
61	63	1
27	27	4
62	63	1
3	44	2
124	125	1
57	108	2
74	75	4
15	21	1
86	88	8
8	10	1
40	41	2
59	62	1
29	30	3
17	17	2
48	67	3
82	83	4
8	28	3
32	32	3
20	87	2
55	57	1
7	26	3
28	28	4
129	132	1
14	29	1
88	88	1
38	39	1
27	28	1
106	111	1
6	29	2
94	94	2
76	79	1
98	98	4
28	32	1
125	129	3
75	75	1
121	121	1
6	47	1
102	103	1
105	109	1
109	113	1
13	72	2
108	109	1
75	80	2
80	100	2
5	44	1
116	116	2
32	34	1
33	34	2
44	73	1
81	88	1
104	114	2
106	113	1
18	33	1
1	2	2
75	119	3
4	6	1
89	92	1
76	77	1
121	122	1
106	121	1
112	127	1
92	105	1
43	59	2
83	98	2
54	107	1
83	87	2
67	81	1
57	59	2
126	126	1
78	117	1
47	47	1
78	80	1
85	86	2
2	7	1
124	124	1
54	108	1
102	107	1
33	44	1
2	13	2
96	104	1
117	132	1
67	100	1
22	32	1
55	69	1
133	133	1
56	106	1
28	29	1
42	60	1
38	87	1
41	70	1
104	107	1
15	45	2
101	103	1
14	15	1
2	10	1
105	106	1
11	11	1
25	26	1
63	116	3
65	71	1
16	34	1
17	19	1
64	71	1
42	44	1
54	63	1
78	78	1
12	30	1
