88	90	3
137	140	3
83	85	6
120	120	5
65	72	3
102	103	8
74	74	2
57	77	3
86	89	6
90	90	11
34	47	7
42	42	7
116	117	1
27	27	6
124	125	3
83	84	4
111	121	1
17	17	7
115	115	11
79	79	11
2	2	3
75	77	3
137	137	5
110	110	6
118	118	4
37	37	5
97	97	3
104	105	10
108	108	2
117	123	2
6	6	8
105	105	5
95	95	3
68	68	2
31	31	5
102	102	3
89	89	2
128	128	5
72	72	6
98	140	2
34	34	3
134	134	10
108	109	6
135	136	2
10	10	9
134	143	3
138	139	4
49	49	3
4	4	14
48	48	8
53	75	3
89	98	3
99	137	2
8	15	3
122	124	8
94	112	5
26	26	5
19	19	6
25	106	2
51	52	5
126	126	7
53	53	7
132	143	6
70	70	6
133	143	1
125	129	2
128	131	2
102	107	2
66	66	4
32	141	3
96	96	7
11	11	3
25	25	7
23	23	2
32	32	6
17	18	3
50	50	8
84	84	9
87	88	9
71	71	1
137	138	5
5	5	8
63	63	5
89	90	3
54	54	6
142	142	2
96	97	1
54	89	1
97	104	2
76	76	3
69	71	2
40	40	5
22	29	2
2	33	7
83	83	4
96	136	2
104	119	2
111	111	5
113	115	4
62	62	4
71	82	4
120	125	2
130	130	12
13	13	10
139	140	8
138	138	5
32	47	1
123	131	3
101	101	7
124	124	7
67	67	4
126	134	1
133	142	1
22	30	1
79	84	4
24	32	5
127	127	3
47	47	6
132	132	6
125	125	5
19	69	1
61	68	1
46	47	5
57	65	5
118	119	3
121	121	2
55	58	5
0	0	5
40	41	4
64	67	2
106	107	2
53	55	1
43	43	2
121	122	7
117	141	5
117	118	1
23	47	2
146	146	1
137	143	2
18	18	2
141	141	6
93	111	2
16	16	7
75	76	4
93	144	1
41	42	3
133	133	2
122	123	9
65	76	2
97	139	4
53	78	7
61	86	2
9	19	3
24	24	3
125	130	5
65	67	3
137	144	2
135	139	1
122	122	4
82	106	4
31	33	1
62	101	2
73	73	5
88	89	1
119	120	5
72	73	4
111	113	2
91	91	4
108	110	2
107	108	3
79	98	1
34	52	3
1	1	2
143	143	3
10	72	2
134	135	2
118	140	1
119	124	2
29	29	3
79	80	5
55	66	1
55	56	3
9	9	5
92	94	6
118	132	1
49	52	4
55	55	5
131	133	2
50	51	2
56	56	2
31	48	1
93	94	2
35	36	2
19	30	4
49	51	2
113	113	5
11	32	1
93	104	2
124	127	1
131	132	4
98	98	4
20	20	4
114	115	4
69	70	2
13	14	5
136	139	2
80	101	3
67	124	2
78	78	2
85	86	4
22	22	4
9	24	1
80	80	5
143	144	1
12	14	1
117	122	4
3	77	1
77	77	3
91	108	3
97	123	4
15	15	6
12	41	1
50	63	2
132	133	2
68	85	5
59	59	2
12	48	3
112	112	1
96	133	3
39	39	2
17	19	2
61	82	1
81	81	4
54	65	1
24	105	1
144	144	2
136	136	5
13	31	3
60	60	1
112	139	3
94	94	2
9	10	2
27	28	3
13	32	1
11	27	1
116	119	2
36	38	1
21	21	3
70	72	1
58	58	1
62	63	2
118	131	3
104	104	2
12	13	1
135	135	1
54	57	1
19	48	2
3	3	4
142	143	1
30	48	1
58	64	1
74	75	1
117	117	2
111	118	3
127	128	3
2	4	1
136	137	1
36	37	2
93	93	1
104	137	3
71	74	1
33	47	1
91	107	1
126	127	1
30	41	1
88	88	1
97	133	2
60	125	2
30	30	1
76	77	1
30	37	1
128	129	1
80	99	1
0	2	4
88	91	2
2	5	1
97	137	1
80	97	1
35	35	4
109	138	2
99	101	2
131	131	1
23	24	1
33	36	1
54	79	1
8	8	1
11	34	2
68	87	2
133	135	2
87	87	2
38	39	1
31	32	2
4	41	2
41	41	2
99	99	1
51	83	1
61	61	3
49	50	2
29	30	2
39	41	3
125	127	1
109	109	1
123	123	1
124	130	1
61	64	1
129	130	1
84	85	1
30	40	1
28	29	1
101	102	1
56	57	1
105	109	1
4	24	1
51	51	1
20	37	1
139	139	2
41	43	2
81	108	1
114	114	1
31	34	2
84	99	2
47	56	1
8	9	1
84	102	1
107	107	1
123	132	1
100	100	1
