89	89	37
65	65	13
76	76	28
36	36	18
47	48	11
81	81	28
70	70	33
39	39	19
93	93	32
57	65	2
63	63	25
51	51	26
71	72	16
92	92	21
62	62	26
24	26	3
78	78	18
34	34	9
62	63	7
98	98	29
78	79	8
43	43	13
79	81	2
100	100	19
99	99	16
50	50	10
64	64	36
86	86	27
52	52	20
66	68	7
99	100	3
85	89	3
55	55	12
66	66	15
79	80	13
85	85	15
48	48	8
52	58	2
24	27	5
85	91	2
95	95	17
59	59	45
59	60	7
47	47	13
89	92	6
35	36	7
70	71	8
37	52	2
27	27	8
98	99	13
77	77	21
36	37	8
35	35	7
41	41	26
69	70	17
92	93	10
67	67	19
28	29	1
35	40	5
41	50	2
94	95	5
45	66	1
64	65	6
87	89	3
38	38	19
84	84	12
48	66	1
86	89	7
59	65	2
46	46	11
90	91	4
44	44	15
68	70	5
87	87	6
95	96	17
77	85	2
68	68	19
93	96	2
90	90	14
25	25	12
57	80	2
53	53	20
83	85	5
72	72	19
56	56	9
57	57	18
75	75	20
31	31	9
49	49	25
96	96	17
26	27	3
49	50	19
66	67	4
91	91	9
37	37	6
57	58	10
69	69	15
73	76	3
97	98	10
71	76	3
94	98	5
70	85	1
42	42	22
91	92	15
93	94	9
37	57	4
69	97	5
29	29	18
89	93	10
101	102	1
30	38	3
40	40	14
69	71	4
38	40	10
92	95	6
80	80	12
100	102	5
40	41	5
101	101	19
69	90	1
94	94	10
57	79	2
29	30	4
71	71	10
65	72	1
88	88	20
77	90	1
67	74	3
45	45	15
81	82	16
86	91	3
80	100	3
32	34	6
98	101	1
22	22	5
23	23	6
87	88	16
78	90	2
32	32	4
86	88	7
33	33	8
53	54	10
71	78	1
60	62	2
95	98	2
97	97	9
54	54	23
52	53	5
83	84	3
86	87	7
96	97	8
86	95	1
73	73	12
90	101	3
85	90	3
64	70	2
83	91	3
68	69	4
35	39	1
75	78	1
55	56	1
75	101	2
60	60	13
74	74	16
24	25	4
60	75	4
37	38	6
89	90	6
84	92	4
43	44	8
85	86	4
80	81	6
82	84	3
84	91	3
79	79	9
61	61	7
100	101	5
56	58	2
44	45	7
62	69	1
60	61	4
39	40	8
73	89	4
83	92	3
38	56	1
42	43	4
72	78	4
71	73	2
84	86	1
45	51	1
67	69	1
46	47	8
24	24	3
74	75	1
61	92	1
73	74	2
52	54	2
58	58	4
56	57	4
50	51	3
58	60	3
36	38	2
25	26	4
85	92	8
69	91	1
67	68	9
22	26	1
27	28	1
88	95	2
60	63	3
65	71	2
80	83	1
98	100	1
81	97	1
38	39	5
82	83	1
80	97	2
99	101	1
42	48	2
42	44	1
52	55	4
61	63	1
45	47	1
81	84	2
65	66	2
48	49	2
82	82	4
84	85	1
32	33	3
38	67	1
61	76	2
95	99	2
25	51	1
69	96	1
57	60	2
48	50	2
41	44	2
63	64	9
20	24	1
61	70	2
81	86	4
21	26	1
41	42	3
79	98	2
67	71	2
58	61	1
40	48	1
83	96	1
77	83	2
22	75	1
51	52	2
28	28	1
33	34	3
37	61	2
48	53	3
72	73	1
20	20	2
26	26	4
58	62	1
96	98	2
94	96	1
63	73	1
82	87	2
72	99	2
68	99	2
41	71	1
91	93	1
30	30	4
102	102	3
71	86	1
30	39	1
85	88	2
71	75	2
63	71	1
36	79	1
35	37	1
88	89	4
75	76	2
77	78	1
83	83	3
90	92	1
80	85	1
47	49	1
67	72	1
84	87	2
53	55	2
66	69	1
60	77	2
61	79	1
96	102	1
89	91	1
92	94	1
89	97	1
41	45	1
79	92	1
87	96	1
88	93	1
76	78	1
61	62	1
57	70	1
