107	109	7
103	103	7
26	26	13
50	51	3
20	20	15
138	139	3
126	127	17
138	150	3
27	27	43
74	76	6
128	137	2
47	47	24
155	156	3
106	166	3
90	90	21
57	57	8
42	42	14
52	52	27
102	102	7
146	146	16
25	26	5
18	18	23
92	92	11
51	52	2
140	140	4
131	131	8
11	12	8
37	40	7
166	166	12
106	107	4
20	21	8
65	65	10
94	95	8
55	55	14
72	82	6
78	79	4
115	115	18
10	14	2
113	113	10
138	138	6
108	108	27
73	73	39
128	129	4
39	40	14
14	15	6
14	25	2
161	163	3
26	46	2
68	68	11
98	105	3
20	24	8
4	5	6
165	167	2
90	91	5
86	86	9
141	141	12
43	43	11
9	9	4
75	75	12
37	37	35
18	19	10
77	79	3
13	13	17
40	43	2
105	105	12
118	118	10
80	80	8
135	137	1
114	114	23
75	76	3
46	46	24
81	83	4
117	118	10
40	40	29
71	72	12
39	39	10
94	94	7
92	119	3
120	120	18
154	154	12
20	23	4
158	158	14
63	63	10
161	161	8
74	74	27
54	54	13
41	42	2
134	135	3
13	14	9
143	144	2
160	163	5
139	139	5
33	33	7
81	81	14
117	170	3
84	87	2
109	119	2
107	108	17
165	166	8
41	41	20
136	158	2
36	37	13
93	104	1
36	36	33
140	141	10
52	53	2
34	34	27
70	71	5
70	73	1
85	85	16
137	137	8
101	102	6
15	25	8
132	132	7
53	53	23
83	83	17
160	161	2
170	170	8
1	2	12
24	25	16
111	112	16
113	126	2
130	132	4
159	159	13
120	122	1
123	152	3
58	62	3
21	25	2
152	152	21
89	89	9
50	50	6
110	110	20
140	154	1
17	18	20
44	44	26
41	49	5
12	12	17
161	162	5
97	97	15
116	117	4
46	47	6
104	104	5
164	166	4
53	64	2
25	25	23
15	15	28
3	3	24
2	108	1
19	19	11
99	99	24
129	129	13
114	115	6
124	125	2
8	10	6
130	133	2
34	35	14
157	163	3
37	38	17
6	7	11
38	38	22
23	23	22
21	21	11
146	147	4
6	24	6
160	160	12
132	133	13
133	134	3
121	121	11
150	151	5
112	120	5
126	126	21
7	7	26
54	56	5
16	16	3
64	69	4
95	95	14
111	129	3
22	23	9
125	125	14
151	151	4
148	148	13
165	165	9
104	115	5
52	70	7
158	159	6
106	106	7
150	150	13
22	22	24
159	160	10
130	130	7
14	14	20
15	18	6
7	8	2
16	18	1
153	154	8
149	149	12
109	109	9
3	11	1
127	127	13
133	133	5
17	17	10
155	155	17
12	15	2
24	24	28
2	2	14
47	52	2
114	117	3
117	125	4
122	123	4
79	80	5
3	5	3
69	69	9
113	155	3
56	56	15
169	169	3
96	96	7
7	27	3
76	77	5
121	122	3
91	93	3
101	166	3
15	92	1
62	62	13
128	128	10
98	98	16
88	89	7
145	146	3
12	13	4
37	41	3
153	155	5
139	143	4
87	87	8
21	24	1
62	63	1
35	35	11
92	107	4
76	76	15
22	125	2
10	10	13
27	64	3
0	2	8
19	20	1
107	110	4
37	89	1
122	122	3
35	36	13
120	121	1
93	93	21
78	80	6
114	116	8
100	100	15
9	38	3
168	168	10
81	82	16
28	28	5
8	8	13
157	158	12
136	136	23
168	169	5
66	101	8
130	131	1
17	19	2
139	140	2
149	165	5
132	151	2
50	53	1
17	47	1
55	56	13
70	70	11
0	0	14
49	49	18
130	141	2
38	40	6
135	135	13
44	45	23
80	82	6
54	55	6
77	77	3
144	144	10
116	116	14
58	58	3
48	48	22
167	167	12
87	93	5
6	16	1
27	28	8
124	124	16
83	103	2
94	97	2
13	16	1
51	55	2
134	136	4
8	90	3
11	11	13
48	49	5
85	86	3
127	148	1
6	8	3
91	92	7
166	167	3
137	147	2
57	90	4
66	66	5
3	4	3
111	111	26
110	111	8
108	109	6
124	126	3
14	27	2
109	149	7
20	38	2
142	145	4
83	87	2
38	44	7
136	151	1
45	45	15
4	4	31
100	101	6
92	104	3
100	106	5
15	19	3
9	10	10
64	75	5
18	22	2
84	84	1
82	83	2
117	117	8
137	149	6
6	6	17
39	51	3
79	79	1
12	16	5
152	160	2
135	136	5
64	64	9
1	1	7
147	147	5
107	107	8
77	100	1
23	24	10
67	67	4
38	50	6
105	106	8
8	9	10
51	51	8
53	68	7
125	126	9
138	142	3
5	24	1
55	64	2
96	97	4
5	5	6
1	35	1
117	124	1
63	66	3
48	51	1
136	157	1
162	162	10
70	80	5
47	48	8
143	143	9
4	42	3
69	70	3
57	62	2
68	77	2
26	158	1
62	116	2
8	20	2
0	11	2
108	112	3
0	1	15
16	22	1
8	11	1
102	103	6
62	77	5
119	122	5
74	75	6
119	119	4
118	119	5
137	138	4
67	115	7
155	157	6
67	68	2
42	43	4
73	75	1
19	22	2
113	114	6
101	101	10
71	73	1
78	78	5
119	127	2
80	81	3
57	64	3
43	48	2
69	108	7
5	26	1
157	157	11
19	45	1
27	97	1
26	27	4
164	164	4
16	91	3
65	77	1
38	41	3
98	99	3
72	72	5
133	135	4
123	123	5
153	153	4
2	3	6
82	82	4
44	46	2
62	66	4
92	120	1
127	138	3
94	104	2
122	124	1
163	163	6
144	145	4
131	144	4
63	70	3
20	22	5
131	160	2
91	91	8
38	46	4
15	16	7
70	79	2
35	42	2
138	151	1
15	17	2
167	168	2
142	142	3
4	7	1
149	150	4
159	162	2
73	74	2
129	156	6
14	22	3
16	17	2
57	58	2
127	128	3
99	104	1
163	164	5
53	54	3
43	47	3
112	114	2
131	132	6
125	131	2
65	119	2
145	145	4
133	156	1
124	131	4
102	159	2
68	69	1
109	110	3
142	143	12
127	130	1
136	141	1
148	149	1
50	132	1
14	19	2
13	15	3
15	22	2
102	151	2
107	143	3
76	78	4
138	143	1
93	94	2
151	160	1
119	121	1
51	130	1
9	54	1
40	41	1
112	112	5
35	45	3
106	115	1
21	47	1
134	134	8
156	157	3
17	25	2
154	155	1
64	65	2
149	160	2
121	150	1
110	112	1
69	74	1
17	27	1
52	69	2
47	49	3
147	148	6
117	119	1
88	88	5
37	42	1
14	16	1
53	55	1
129	137	1
16	20	1
10	11	2
24	95	5
115	116	2
160	165	1
142	151	4
125	148	1
134	147	2
110	119	2
135	141	2
152	159	3
58	121	1
62	89	1
6	36	2
138	144	3
146	148	2
77	78	1
105	149	1
150	153	1
164	165	3
94	96	2
35	52	1
85	89	4
13	26	1
145	147	5
33	34	3
152	154	1
131	150	1
99	100	4
89	90	1
78	81	1
37	90	1
24	26	2
57	63	1
128	130	5
41	46	1
113	121	1
93	114	1
4	35	1
162	164	3
55	85	1
22	49	1
139	142	1
138	145	1
8	38	3
7	11	2
5	91	1
140	151	2
21	45	1
80	83	4
66	67	1
6	22	2
140	144	2
86	87	1
53	56	1
104	105	1
92	93	2
3	43	1
132	152	1
26	28	2
16	159	1
135	155	1
100	102	1
56	57	2
17	91	1
144	162	3
57	116	1
86	99	1
136	137	1
22	24	3
63	121	1
100	105	1
163	165	2
9	11	2
11	33	1
0	33	1
41	48	1
45	46	1
41	51	1
78	83	1
115	123	1
8	126	1
141	142	1
92	115	1
132	167	1
24	27	1
34	43	1
15	20	2
37	43	1
12	14	1
112	113	1
54	170	1
93	95	1
14	91	2
113	125	1
4	36	1
140	166	1
118	120	1
57	68	1
71	71	1
46	50	1
159	161	1
70	72	1
18	20	1
