78	104	3
63	63	8
27	27	8
125	125	2
123	123	3
92	92	12
83	83	6
83	148	2
19	19	5
128	128	9
166	166	1
170	170	3
18	49	5
58	63	1
122	122	7
2	2	17
1	1	13
114	115	8
53	53	9
69	69	16
165	165	13
65	66	5
70	70	8
142	142	8
111	111	15
124	124	6
44	162	2
20	20	7
135	135	8
50	50	12
6	158	2
18	38	5
100	100	10
6	6	8
9	10	21
24	25	1
33	33	9
54	159	4
165	169	5
36	36	12
109	110	6
51	51	12
82	104	4
4	4	9
152	152	4
98	99	4
25	52	1
128	129	2
100	103	4
91	153	4
103	104	5
94	94	6
90	90	4
21	47	1
57	65	3
142	143	4
39	39	12
148	148	11
12	12	9
164	164	8
26	26	5
163	163	7
50	51	1
150	150	11
78	79	5
85	86	3
40	40	10
129	129	5
145	145	14
115	115	14
56	56	10
41	71	4
66	66	2
160	160	27
146	149	5
108	108	15
3	5	3
156	161	2
84	120	5
139	139	5
133	133	8
13	170	4
75	75	10
99	99	10
84	88	4
76	76	3
74	75	4
106	106	4
80	80	12
13	15	4
117	117	13
13	13	10
93	93	4
124	125	1
64	140	3
74	74	6
46	46	5
37	37	7
104	104	3
155	155	2
138	138	5
115	116	5
163	164	3
94	95	4
114	114	19
47	49	4
137	137	13
46	47	2
39	40	6
66	70	5
18	19	2
127	127	8
54	56	10
122	151	2
46	49	4
144	145	7
147	147	14
108	142	3
2	145	3
16	16	7
147	163	3
151	151	13
134	134	16
14	14	12
52	56	2
130	130	12
119	119	5
44	50	6
85	85	12
24	24	17
62	62	2
3	3	9
93	94	3
110	115	2
106	107	5
17	18	7
122	132	6
73	73	5
7	7	11
18	20	4
126	127	1
20	164	1
3	11	2
8	41	2
5	5	6
57	57	7
91	92	5
68	69	7
69	70	10
56	64	1
132	132	17
33	34	4
104	105	3
158	158	4
168	168	7
121	122	3
79	79	4
28	28	2
149	149	8
52	54	4
42	42	2
141	142	1
120	120	11
51	62	2
157	157	2
71	71	12
47	47	11
64	142	2
154	154	11
21	21	10
115	156	7
157	158	3
169	170	6
96	96	4
22	23	3
122	123	1
25	25	14
105	105	7
161	161	3
101	101	7
45	45	4
108	116	2
167	167	10
123	124	4
136	137	2
48	49	13
124	153	4
8	8	9
122	143	3
91	91	3
146	146	8
125	127	3
153	153	7
42	76	4
10	10	10
74	95	4
110	110	11
17	17	7
141	141	6
98	98	10
43	43	4
108	109	2
154	155	4
34	34	8
0	92	2
140	141	2
54	54	6
50	116	6
82	95	3
97	103	1
147	155	3
18	18	8
20	22	2
155	156	1
55	55	2
21	39	5
103	103	2
120	152	4
144	144	6
0	105	3
94	153	1
88	88	6
139	140	6
133	137	2
8	9	3
117	118	2
150	151	9
99	101	3
127	129	6
55	62	3
20	41	3
107	107	5
49	49	9
84	89	2
56	76	2
23	27	5
167	168	1
87	87	10
116	116	7
64	64	3
54	55	8
54	57	7
68	68	7
128	155	6
35	42	1
38	38	9
41	41	6
58	61	1
120	149	5
112	113	2
124	128	5
0	1	1
62	68	1
23	40	3
89	152	2
69	71	1
97	97	11
104	161	2
156	156	11
11	24	2
10	11	1
6	116	2
95	96	2
78	82	1
109	116	3
105	106	4
0	42	2
96	154	4
11	11	5
49	55	3
126	128	3
151	152	6
48	48	11
52	52	4
143	143	9
16	25	3
123	132	5
44	44	5
35	35	6
64	69	2
65	65	3
44	52	4
12	50	4
92	93	5
15	38	4
162	162	5
84	121	6
40	41	3
55	56	6
23	23	5
118	118	8
9	9	9
41	116	1
153	154	3
133	134	2
77	77	8
109	109	15
135	140	1
129	130	1
46	51	1
67	162	1
90	119	1
137	142	1
3	112	5
121	121	7
45	46	1
53	54	3
62	63	2
87	88	2
21	22	6
112	112	3
100	101	1
132	133	1
77	78	3
9	36	3
161	162	2
21	163	3
16	38	2
82	83	1
57	62	2
39	47	2
71	86	1
91	97	1
140	140	2
19	44	3
81	81	1
136	136	10
78	78	5
91	103	1
86	89	1
79	163	1
26	27	2
40	51	2
82	103	1
77	81	2
102	102	2
20	40	4
119	155	2
159	159	5
18	56	1
48	112	2
5	58	4
21	164	5
23	26	4
50	104	2
36	37	1
89	89	1
90	91	3
13	45	1
3	4	1
82	99	1
49	50	2
5	37	3
109	158	1
113	113	3
147	162	2
99	100	1
6	7	2
84	84	6
27	28	1
15	40	1
46	50	1
42	43	2
117	122	3
135	136	3
23	24	2
21	111	2
141	143	3
37	52	2
10	15	1
44	45	5
23	39	3
15	16	3
15	63	1
0	0	1
25	38	4
23	165	4
21	23	1
56	57	1
114	116	1
52	55	1
168	169	2
157	159	2
69	115	2
82	94	2
86	88	2
39	41	3
76	79	1
47	48	3
160	167	2
118	152	1
83	152	1
123	153	1
14	37	1
72	73	1
119	120	2
12	46	2
58	58	2
7	8	3
20	28	2
120	165	2
91	123	1
56	166	3
110	111	2
124	132	3
20	21	6
101	102	1
40	49	1
46	57	2
101	103	1
71	74	1
121	142	1
66	67	3
111	112	2
24	28	3
20	47	1
8	10	2
95	95	5
72	72	2
15	15	1
146	158	3
146	147	3
76	118	2
12	24	2
12	13	2
24	53	2
67	70	1
57	68	2
86	87	4
144	149	3
83	84	1
78	80	3
51	57	1
64	141	2
41	147	1
117	154	1
13	50	1
52	57	1
0	104	1
113	114	1
82	154	1
14	39	1
92	100	1
38	39	1
76	90	1
129	150	4
19	20	2
116	117	2
39	45	2
169	169	2
102	103	1
55	159	2
5	6	1
103	162	2
137	139	2
109	111	2
19	41	1
47	110	1
121	154	2
1	46	1
25	26	1
161	165	1
45	50	2
67	67	1
15	18	1
92	99	1
50	148	1
13	14	1
131	131	1
166	167	1
89	90	1
67	68	1
39	167	1
58	162	1
82	82	3
64	121	1
70	71	1
19	47	2
78	103	1
15	62	1
162	163	1
92	125	1
74	77	1
79	81	1
64	92	1
41	46	1
39	44	1
130	131	1
