4	4	5
57	58	7
163	163	5
65	66	2
65	65	8
40	40	8
143	143	7
55	158	2
80	80	12
36	77	1
35	37	6
6	6	1
2	3	4
55	55	7
74	74	2
154	154	11
96	96	5
111	111	6
71	72	6
106	108	1
42	42	4
101	102	1
9	9	4
82	82	3
84	84	8
161	162	4
148	148	4
131	131	5
71	71	4
67	67	1
143	163	4
19	20	5
135	135	7
76	76	2
63	98	3
12	12	10
45	45	8
53	53	7
83	84	6
57	75	2
166	166	4
92	92	3
53	54	1
69	70	4
106	106	3
101	122	5
102	102	14
54	54	3
142	142	7
150	150	1
62	62	9
39	40	1
114	114	1
91	92	2
127	127	5
99	99	1
151	151	4
136	136	6
155	156	6
120	120	7
112	112	5
11	12	7
64	64	5
97	97	2
33	34	1
8	10	3
109	109	3
14	14	10
81	96	2
50	50	5
99	128	4
122	150	2
151	155	4
133	133	7
19	85	2
117	118	2
46	46	9
116	116	5
137	137	2
108	108	5
41	41	3
50	160	7
100	101	1
91	91	6
25	102	1
0	0	3
158	159	1
147	151	3
51	51	9
125	148	2
88	89	3
68	68	8
103	103	6
119	120	3
35	35	4
169	170	3
28	28	5
107	107	3
125	125	1
144	144	1
124	125	3
101	101	6
17	17	2
100	150	5
3	3	2
7	12	3
1	1	5
6	7	7
156	157	1
152	152	5
103	105	2
27	27	5
129	129	2
67	91	2
16	18	2
136	148	3
124	124	6
163	168	1
88	127	5
22	24	2
20	20	6
163	164	4
84	85	5
145	145	7
139	139	3
52	52	2
118	118	1
20	86	2
48	48	5
140	140	4
33	33	6
87	89	3
153	153	1
46	47	3
106	147	2
126	136	1
113	113	2
82	84	4
10	10	7
73	74	1
127	130	1
2	2	5
112	113	2
11	11	2
77	78	1
123	132	1
57	57	1
140	141	2
81	81	4
128	144	2
81	86	1
156	167	1
156	156	3
38	39	3
129	137	4
161	168	2
24	25	2
3	5	1
87	148	4
100	100	2
76	77	2
21	46	5
115	115	2
34	34	4
103	104	1
22	87	2
138	138	2
20	46	2
56	56	5
39	39	3
124	145	3
132	132	4
76	89	5
14	15	1
96	97	2
93	125	3
112	114	2
24	24	10
75	78	3
86	86	5
155	159	4
147	147	2
117	125	2
86	87	1
26	83	1
110	110	2
79	80	2
120	121	1
11	48	1
7	7	4
51	57	2
102	103	2
125	128	1
154	159	1
87	87	2
75	75	8
78	79	1
114	144	2
162	167	4
104	104	1
20	24	2
69	69	3
50	52	1
106	145	4
71	76	1
22	46	2
83	83	3
98	98	6
16	119	4
43	43	6
168	168	1
160	160	4
91	95	1
22	23	3
111	112	3
35	56	2
95	96	3
159	159	2
43	65	2
21	21	1
49	54	1
165	166	4
23	73	2
47	47	7
110	111	3
70	72	1
49	49	2
163	166	3
86	89	2
21	69	1
146	146	3
88	88	1
47	110	5
7	10	3
26	42	1
117	117	5
162	162	3
48	97	2
10	12	1
21	88	2
75	90	1
61	62	1
15	16	2
128	134	1
15	120	2
50	153	2
44	45	3
5	5	2
157	159	1
19	19	4
169	169	1
18	20	3
16	17	3
161	161	1
21	22	4
119	131	2
17	26	5
149	158	2
128	129	1
73	73	1
94	94	1
17	19	1
119	119	3
50	51	1
41	42	2
38	45	1
68	98	1
159	168	1
81	98	1
25	25	1
160	162	2
143	145	2
69	72	1
104	105	1
100	148	1
98	99	3
134	135	2
125	147	2
153	154	1
160	161	1
79	88	1
149	150	2
21	39	1
116	119	1
23	23	1
16	16	2
128	128	1
147	148	1
158	158	3
47	68	1
85	151	1
17	18	1
100	105	1
23	87	1
36	36	3
13	123	2
10	13	1
95	95	2
90	90	1
157	157	2
37	37	1
81	82	1
93	93	1
39	41	1
102	143	2
15	142	2
38	40	2
149	149	1
38	38	1
122	130	1
109	158	1
90	91	1
101	103	2
82	85	2
12	13	2
78	78	2
79	79	2
65	68	1
121	121	1
58	78	1
105	150	1
141	141	1
144	146	1
119	121	1
125	146	1
