120	120	5
14	16	3
34	34	10
115	115	5
63	85	1
73	73	17
102	102	14
121	122	2
72	72	21
85	85	9
77	79	8
112	113	5
6	11	2
24	24	12
117	117	8
78	79	2
69	69	14
53	53	10
90	90	6
91	93	3
97	99	3
116	116	13
63	63	5
129	129	7
92	122	1
37	38	2
118	118	3
126	126	9
19	37	2
121	121	5
84	84	9
106	108	7
37	37	9
74	74	3
88	88	5
10	11	3
50	50	8
62	65	8
133	134	3
68	68	5
93	93	9
124	124	10
127	127	6
80	80	12
111	113	1
52	61	2
10	37	2
2	2	10
70	70	6
107	107	5
12	12	5
25	28	3
68	106	5
117	133	5
21	21	8
33	34	3
116	120	4
61	61	9
12	88	2
111	118	3
1	1	2
29	29	2
33	35	3
43	43	1
9	10	6
110	110	20
76	76	9
54	80	5
96	132	5
46	84	1
29	90	5
70	74	3
108	108	3
69	83	2
25	26	8
127	128	1
96	96	16
131	131	8
64	76	3
77	77	8
64	78	3
110	111	8
114	114	3
34	35	2
82	101	4
91	91	4
64	87	3
100	100	6
95	95	8
87	87	17
119	119	7
80	90	2
0	0	2
92	96	2
117	123	6
12	13	1
78	78	5
17	37	3
109	110	6
61	85	2
124	125	3
98	121	1
71	71	9
53	54	2
98	98	7
103	103	1
109	109	5
15	15	8
107	108	1
95	109	2
28	29	4
14	14	4
95	135	2
92	131	3
16	21	4
46	62	1
21	36	2
56	56	9
55	56	6
57	57	2
131	132	5
101	101	7
62	64	3
22	22	6
55	55	8
73	74	1
125	125	9
118	124	3
35	55	3
92	114	1
94	94	2
106	106	6
78	129	4
65	65	2
88	89	4
25	25	3
13	14	7
3	3	3
13	13	4
57	87	6
30	30	6
21	22	3
113	113	6
65	67	2
68	69	5
82	82	1
55	59	2
79	79	2
105	105	7
92	92	2
66	66	2
125	126	1
45	64	1
112	115	3
5	5	6
133	133	6
14	25	5
4	4	2
103	127	3
110	112	2
119	130	3
59	60	1
118	119	5
118	129	1
57	58	1
72	73	6
99	124	4
99	131	4
104	104	4
66	67	6
32	32	2
33	56	1
83	83	6
35	35	4
7	9	1
47	49	4
130	130	1
78	85	1
52	53	1
45	62	4
55	63	3
60	65	2
53	60	1
76	104	4
45	46	3
119	123	3
27	28	5
36	36	1
99	129	2
53	86	1
94	96	2
128	128	3
97	97	2
11	17	5
134	134	4
8	8	3
42	42	1
75	75	4
126	127	3
70	71	2
11	11	3
122	122	8
32	33	1
65	66	5
86	86	4
23	24	3
98	125	2
123	126	3
39	87	1
59	59	7
29	30	4
61	87	3
43	67	1
44	69	2
67	67	3
23	23	2
123	123	7
64	69	1
81	81	2
52	59	4
122	123	2
46	46	3
112	112	9
114	115	1
98	122	1
84	85	3
77	82	6
18	19	1
80	81	2
44	52	1
64	64	5
119	120	1
24	37	1
91	92	6
94	95	4
98	126	1
62	62	5
61	82	2
38	38	2
31	31	2
60	60	6
55	62	1
118	120	1
52	52	7
108	109	3
44	66	1
99	130	2
42	109	3
108	110	1
22	69	1
9	9	2
16	23	2
13	16	1
12	89	2
89	89	3
119	131	2
82	133	4
31	32	1
77	84	1
62	76	1
58	58	6
17	17	2
117	118	1
98	112	5
10	14	3
85	86	2
108	111	2
44	45	2
76	105	1
4	101	1
22	23	3
119	121	1
122	124	7
54	54	3
129	132	1
117	120	3
107	129	1
112	124	2
69	70	2
79	80	3
60	78	3
7	36	1
67	107	2
20	20	1
38	55	2
74	103	1
57	83	1
35	36	1
19	19	1
112	121	1
25	125	3
9	11	1
105	106	2
99	99	3
102	130	1
44	53	3
18	18	2
64	65	2
132	133	2
100	131	1
109	135	1
32	35	1
2	3	1
106	107	1
94	128	2
117	134	1
26	26	1
103	104	1
96	128	1
77	85	1
119	124	1
75	76	1
14	26	1
51	87	1
44	54	3
19	20	1
99	126	1
53	59	1
22	25	2
92	116	1
116	117	1
63	75	1
51	53	1
66	86	1
50	89	2
101	102	1
101	132	1
90	104	2
121	131	1
58	59	1
82	83	1
117	119	1
