98	98	6
152	152	6
33	131	7
119	119	2
126	150	4
98	101	9
49	49	6
171	172	4
95	175	5
149	149	12
139	139	15
5	7	3
24	24	6
117	118	3
10	14	9
102	102	8
143	145	3
4	4	6
25	26	6
8	8	10
122	122	12
167	168	10
3	3	5
132	132	5
33	33	15
15	16	4
168	168	10
40	40	15
6	19	4
78	78	7
176	177	4
36	36	10
29	31	4
154	157	8
31	31	8
43	43	8
111	111	7
9	10	6
31	36	6
44	44	13
165	166	3
115	115	6
127	132	4
169	169	10
92	93	4
24	25	7
144	144	9
135	135	2
2	2	5
175	175	6
147	149	1
1	1	7
2	10	5
38	38	20
124	124	12
7	9	4
31	42	1
146	147	7
165	168	3
23	25	7
101	103	3
2	3	9
97	102	1
80	83	3
11	11	5
59	62	2
126	129	2
86	86	3
163	165	1
61	62	3
89	89	8
4	33	8
16	16	15
176	176	19
27	28	3
63	63	6
39	39	10
39	40	6
82	82	3
105	105	12
159	159	23
59	66	2
37	37	8
154	154	12
3	166	1
30	31	14
123	123	10
16	17	7
137	137	4
125	125	3
65	65	8
55	59	1
121	122	5
27	135	6
128	131	4
151	151	3
9	9	7
12	12	4
32	132	1
34	34	11
10	10	12
140	140	4
52	52	5
32	32	10
103	103	4
28	127	3
121	123	1
5	5	12
166	166	8
59	60	2
76	77	3
57	57	4
30	33	5
126	128	4
128	128	6
11	13	2
78	86	4
29	132	5
22	22	7
50	51	9
61	61	5
13	13	4
172	172	13
79	81	6
97	97	2
174	175	5
35	35	7
135	166	3
101	101	7
156	156	2
148	149	5
95	95	7
59	59	5
25	44	1
53	54	1
81	81	3
26	160	5
14	14	3
38	39	5
130	130	5
7	7	6
18	18	15
94	96	5
29	29	10
21	22	5
27	27	8
109	109	10
54	54	3
124	160	1
28	28	10
155	155	18
91	92	5
11	12	2
26	26	6
117	117	8
23	23	10
130	142	4
85	86	2
160	164	3
160	160	1
89	91	5
64	64	4
127	128	3
136	136	10
151	152	2
55	55	8
106	106	5
2	151	1
80	80	4
15	38	3
87	88	9
88	89	8
128	130	2
41	42	7
32	179	2
145	145	5
151	156	2
50	50	6
150	150	10
42	42	7
165	165	7
147	147	10
111	113	1
161	161	2
137	139	2
34	36	5
31	33	2
157	158	4
154	156	3
8	15	4
41	41	9
131	131	10
146	146	3
134	134	3
12	160	1
170	170	14
75	76	1
165	167	9
80	81	1
16	39	4
54	57	7
28	29	2
6	14	6
29	62	2
81	82	4
169	172	2
115	124	2
2	20	3
96	97	2
67	67	7
101	105	1
152	155	1
92	129	2
26	37	2
40	41	4
25	25	4
119	122	1
144	145	9
30	62	3
0	0	8
94	94	5
108	108	1
111	112	3
2	9	3
55	58	1
21	21	3
75	75	5
124	125	2
163	163	12
68	71	1
51	51	4
170	172	1
158	158	2
92	130	2
10	13	1
32	33	2
143	143	5
20	23	4
178	178	10
127	127	4
17	39	3
138	138	9
105	107	1
8	33	2
114	115	3
49	85	1
104	104	4
22	26	5
11	14	3
154	159	2
30	30	3
91	93	1
18	30	3
73	74	4
7	10	6
141	141	4
141	142	2
173	173	8
164	166	3
4	7	1
59	61	5
116	117	1
104	107	2
63	64	4
66	66	6
174	174	5
110	111	1
20	21	2
17	18	2
74	74	2
58	59	8
1	170	1
46	46	2
101	102	7
103	105	3
11	24	1
51	64	1
60	60	2
32	34	4
2	32	5
73	77	2
29	127	3
26	28	3
65	67	1
134	136	2
6	6	4
119	120	1
29	32	1
142	142	8
53	55	1
56	56	5
99	99	1
74	76	1
140	142	1
55	56	3
137	138	2
44	45	5
21	29	5
25	29	1
7	30	5
72	72	1
19	19	5
3	152	3
78	79	1
108	109	4
4	9	2
3	7	1
17	17	9
12	13	7
52	54	3
72	73	1
152	168	1
87	87	6
44	94	1
82	84	1
26	27	1
90	90	1
140	141	1
67	81	3
112	112	2
13	115	2
171	171	3
5	19	6
96	104	1
168	170	1
14	15	4
36	44	2
20	20	4
56	57	4
126	153	1
3	20	2
2	4	4
15	15	3
17	19	6
22	31	1
3	33	1
24	27	2
157	157	2
82	86	2
3	4	1
113	116	2
149	150	2
22	23	5
2	7	4
114	116	1
5	17	2
8	9	3
169	173	4
123	124	1
67	68	1
126	126	2
98	99	2
154	155	2
168	169	9
71	82	5
88	88	2
148	148	4
83	85	3
103	104	1
54	55	1
11	20	2
140	143	3
129	130	3
139	140	2
142	145	1
102	103	2
87	111	4
23	28	3
164	170	3
127	179	1
49	51	2
163	166	3
168	173	2
53	53	2
90	91	3
115	116	3
117	120	1
167	167	2
135	163	4
118	118	5
162	162	4
19	20	4
33	34	6
124	140	1
76	76	1
36	42	5
31	39	1
39	41	2
116	116	4
12	14	1
4	8	2
172	173	2
5	9	3
60	61	5
26	31	4
100	100	2
79	79	2
19	21	3
179	179	2
124	156	3
177	177	2
93	93	1
145	146	1
19	30	2
31	32	1
68	73	1
75	77	2
28	30	3
6	7	1
173	174	4
153	155	1
83	83	2
68	68	2
95	96	1
159	160	3
126	127	3
62	63	2
113	113	1
38	43	1
15	82	1
70	70	2
112	114	1
107	107	4
107	108	1
82	83	2
104	110	2
30	63	2
131	158	3
41	44	1
43	45	1
157	164	1
106	107	1
113	114	1
27	62	3
125	157	2
22	24	2
127	175	1
143	147	1
6	10	3
5	6	1
164	164	3
10	11	1
8	21	2
10	24	1
92	94	1
42	43	1
2	18	2
8	16	1
127	136	2
23	26	1
18	19	1
17	31	1
87	148	1
161	162	1
1	3	1
127	159	1
68	111	2
73	73	1
117	119	1
122	137	1
155	156	1
45	46	1
136	147	1
37	42	1
96	96	1
95	106	1
