55	56	5
12	12	11
39	39	5
118	118	13
242	242	12
77	77	21
187	189	16
200	201	12
162	163	7
42	42	10
50	50	3
34	34	9
45	45	13
244	244	8
51	51	6
80	80	6
92	92	10
90	90	18
31	31	6
224	224	10
86	88	7
163	164	4
31	55	2
246	246	8
199	199	6
29	30	1
116	116	10
229	230	4
209	209	10
179	179	7
5	12	3
117	117	2
171	171	14
243	246	1
211	211	10
194	194	19
184	188	9
81	81	13
211	212	5
76	76	6
193	193	13
241	241	10
247	249	5
174	202	1
6	6	1
172	172	25
166	166	9
182	182	18
38	38	14
11	11	10
68	68	7
202	203	6
215	220	4
207	207	22
83	83	6
115	115	14
91	92	7
205	205	3
227	230	1
3	3	1
48	48	12
203	203	17
200	200	12
37	38	8
69	69	6
58	59	6
176	187	3
151	151	12
58	58	9
1	1	9
208	208	7
114	114	6
16	16	7
95	95	13
170	170	13
28	28	7
216	216	12
191	191	6
164	164	8
178	178	11
205	229	6
54	55	4
103	104	3
155	155	6
8	8	8
218	218	8
85	86	7
77	78	5
178	180	4
233	233	11
2	2	4
96	96	7
120	120	6
113	113	8
231	235	2
241	242	3
42	43	2
231	231	4
212	212	21
185	220	1
154	169	4
235	236	6
203	221	3
240	240	13
226	226	13
46	46	14
99	100	2
221	222	4
201	201	11
113	115	3
19	30	4
242	243	3
57	57	7
67	90	4
20	20	9
202	202	4
60	60	7
248	248	5
160	176	1
26	27	5
186	193	4
204	204	15
172	173	3
187	188	1
72	86	1
164	181	3
213	214	2
87	87	12
98	98	10
14	14	14
67	67	8
15	16	1
168	206	2
236	236	4
21	21	8
35	35	2
156	157	8
183	211	1
212	230	6
174	174	5
24	24	5
106	107	2
206	206	11
169	169	3
220	220	5
186	223	4
158	158	8
53	53	12
229	229	6
183	183	9
15	34	4
228	229	1
32	32	2
96	97	7
227	227	3
6	103	3
59	59	3
165	165	10
215	217	2
243	243	1
22	26	1
160	160	6
18	18	4
176	177	1
33	33	2
192	192	6
65	69	5
15	15	11
190	190	11
149	149	4
190	220	2
225	225	8
79	83	5
12	19	2
70	70	7
63	64	9
79	79	6
63	85	1
65	66	4
66	66	5
179	180	2
44	44	8
209	215	4
110	110	11
5	5	12
222	222	5
245	246	3
53	221	4
189	191	3
197	197	10
94	95	3
25	25	1
182	193	9
154	154	6
43	44	2
172	174	6
175	226	2
108	113	8
215	215	7
37	37	7
30	30	6
167	179	1
160	163	1
210	211	11
89	89	4
213	218	3
85	85	7
50	57	4
11	12	2
161	161	7
168	168	14
54	54	9
60	64	1
145	160	2
36	36	11
214	215	1
41	41	2
99	99	5
221	221	7
188	188	4
107	114	1
153	154	5
94	94	12
62	62	4
162	162	12
159	166	7
234	234	8
34	38	2
238	238	2
73	75	2
17	22	2
78	199	8
22	23	5
33	41	4
75	75	1
170	171	3
183	187	4
112	112	3
27	27	13
180	180	4
166	170	2
97	97	1
175	175	6
87	88	8
247	247	5
159	177	2
106	106	3
198	198	4
233	242	2
69	71	3
111	111	17
198	199	1
101	101	5
19	19	8
159	159	8
83	84	3
15	27	2
173	174	5
145	145	2
210	214	1
237	237	9
44	61	1
61	65	5
67	71	4
161	162	3
152	162	3
160	182	2
238	247	2
189	189	4
193	194	12
4	4	2
6	7	5
199	200	6
195	241	6
153	153	3
215	216	3
228	228	3
217	235	2
82	82	7
70	71	1
73	86	2
152	152	5
91	94	1
161	246	1
10	10	11
186	186	2
216	218	1
50	59	1
181	181	9
239	239	8
197	198	14
23	23	9
236	237	3
167	167	5
187	187	3
204	231	3
43	43	8
102	102	6
208	242	1
36	40	1
167	168	3
150	150	7
113	114	6
152	204	4
203	204	2
66	67	3
219	219	1
152	167	1
21	22	2
235	235	5
3	5	4
93	94	2
108	240	2
64	68	2
65	65	4
189	194	2
118	119	3
101	102	1
180	182	1
100	101	1
204	234	1
64	92	4
177	226	2
104	104	3
65	76	2
67	76	4
80	82	1
56	56	4
239	243	1
173	173	6
171	174	1
50	76	1
171	190	2
156	156	8
192	241	1
51	54	3
17	103	2
63	63	1
109	110	2
93	93	2
157	159	3
223	226	1
181	225	1
26	26	1
178	182	2
202	206	1
84	84	10
232	233	1
81	98	2
211	219	3
119	119	5
105	105	6
103	103	6
181	182	2
72	90	1
189	190	1
58	61	3
206	240	3
5	6	7
163	163	9
73	73	10
194	239	1
196	196	1
19	22	1
232	232	2
169	170	6
79	80	4
15	101	4
168	169	2
2	3	7
231	234	5
66	76	4
17	17	5
228	230	1
40	40	4
9	39	2
7	7	10
195	195	2
66	89	2
18	30	2
58	73	7
72	73	1
91	91	5
185	185	5
43	46	1
196	198	1
159	160	2
76	77	2
195	218	4
226	229	1
203	205	3
23	24	5
187	190	2
181	239	3
184	217	4
64	64	10
204	205	4
111	117	1
203	245	1
84	85	3
177	177	5
231	233	2
56	65	1
224	234	1
46	95	1
49	87	3
81	82	2
71	71	5
217	219	4
171	181	1
38	39	3
189	192	2
19	20	3
218	219	5
96	98	1
191	192	1
69	70	5
205	230	3
100	207	1
28	154	2
97	98	4
187	192	3
167	212	1
55	55	5
197	248	4
77	79	1
208	209	4
158	159	1
47	47	2
115	116	3
45	46	1
164	165	2
184	196	3
39	41	4
109	109	4
163	165	1
192	197	2
31	32	1
223	223	1
32	51	3
186	187	2
108	108	1
101	104	1
221	234	1
116	146	3
111	112	1
49	49	2
28	46	1
238	239	2
15	18	1
226	228	1
183	189	2
99	153	1
165	213	2
25	26	1
61	61	1
79	81	2
214	247	2
22	40	1
240	244	3
164	179	2
71	76	1
110	111	5
173	175	1
213	224	1
152	157	2
183	184	1
82	86	2
220	221	1
218	220	5
195	196	1
159	192	1
90	91	5
52	225	3
19	24	2
51	52	1
60	65	2
197	199	4
57	58	3
62	75	2
163	168	3
233	234	1
240	241	2
78	78	2
193	241	1
35	36	1
13	14	2
56	57	3
194	195	1
175	176	2
146	147	2
239	241	4
68	69	2
192	222	2
64	78	2
105	107	1
114	115	2
148	162	1
46	61	2
49	89	1
121	144	1
168	170	1
58	77	1
205	232	1
185	236	3
32	33	1
99	158	1
175	209	2
213	213	2
230	230	2
193	195	3
44	45	2
165	166	1
216	217	1
152	203	1
148	160	1
64	65	2
164	243	1
76	97	1
48	50	1
165	168	1
112	113	1
168	182	3
239	246	1
82	83	1
1	2	1
191	195	1
213	215	1
180	211	1
86	86	2
206	222	1
230	231	1
176	176	1
52	52	1
114	116	1
217	218	1
100	100	1
179	225	1
72	91	1
197	230	1
39	40	1
33	35	1
5	15	1
97	101	2
162	243	2
119	237	1
20	25	1
9	9	3
47	87	2
33	37	1
49	172	1
73	76	1
74	74	3
220	223	1
190	191	2
74	75	2
171	173	1
80	224	1
198	200	1
144	145	1
45	94	1
106	109	1
172	179	1
166	179	1
62	69	1
164	167	1
116	153	1
214	214	1
22	22	1
32	55	1
16	17	1
28	29	1
91	93	1
101	103	1
61	88	1
229	231	1
208	237	1
