123	123	4
89	90	1
25	25	2
104	105	1
73	73	8
17	23	2
115	116	3
8	16	2
118	119	3
108	140	5
22	22	2
77	77	4
140	140	6
32	33	2
75	75	9
36	36	3
13	48	1
71	71	3
31	119	5
110	110	8
42	42	7
46	47	4
40	134	2
119	135	2
69	71	2
31	31	7
139	139	3
83	87	2
157	157	4
81	81	3
111	111	2
34	48	4
67	83	4
16	17	2
24	27	2
3	3	1
132	132	6
68	71	2
113	141	2
13	14	1
93	93	2
18	18	3
127	127	5
96	96	2
121	121	8
21	21	2
93	96	2
146	154	4
85	85	6
68	69	1
128	128	2
82	82	3
15	152	2
131	132	3
15	15	7
154	155	1
136	136	3
156	156	7
48	152	6
62	145	3
92	93	3
112	112	9
0	0	1
92	92	3
110	111	1
105	105	1
144	147	3
129	129	1
146	146	1
99	138	3
28	28	7
68	147	2
87	88	1
29	29	8
90	136	1
38	145	3
10	10	1
54	54	10
63	63	1
155	155	2
51	51	2
47	47	9
5	6	1
30	133	2
23	27	4
41	42	2
0	101	1
131	131	4
46	46	5
135	135	1
64	64	1
103	103	1
0	1	3
20	20	4
8	27	1
108	108	2
122	123	1
7	7	1
129	130	2
116	116	1
7	8	2
0	157	2
55	152	1
8	11	3
15	53	2
35	35	4
25	141	1
141	142	6
92	96	2
113	119	3
44	148	1
20	29	2
114	114	2
118	118	2
85	86	1
152	152	2
150	150	2
94	95	1
112	119	8
6	7	1
99	99	3
151	151	1
84	84	2
34	34	5
158	158	2
98	155	1
4	101	1
95	95	3
154	154	1
50	78	2
37	37	2
12	12	2
23	24	3
125	125	1
97	97	1
98	98	1
104	135	1
91	92	2
1	1	2
65	65	3
118	147	1
120	141	1
138	138	3
43	145	2
101	101	3
79	79	2
117	133	2
26	27	1
56	70	1
50	50	3
30	30	2
88	137	1
5	5	1
70	70	3
109	138	1
133	133	2
128	129	2
2	3	2
119	119	3
82	83	1
130	130	4
40	41	2
90	90	1
6	6	3
83	85	1
56	57	2
141	141	1
9	12	1
88	89	1
98	100	1
14	154	2
123	124	1
144	144	2
96	97	1
78	79	1
135	138	2
68	68	1
153	153	2
123	148	2
27	27	3
31	38	2
17	54	1
74	138	1
14	14	1
26	26	1
122	122	2
1	157	2
109	126	2
109	110	4
44	44	2
15	17	1
113	113	2
40	40	4
57	57	1
62	62	2
11	11	2
78	78	2
117	118	1
145	145	1
121	123	1
126	126	1
56	144	1
52	54	1
110	123	2
38	62	1
19	48	1
91	91	1
33	35	1
110	130	1
9	9	1
15	52	1
134	144	2
48	77	1
137	137	4
19	19	1
17	17	2
51	53	1
0	154	1
3	4	1
95	96	1
9	36	1
154	156	1
87	87	1
41	41	1
4	5	2
31	40	1
143	143	1
10	154	1
118	134	3
2	2	1
89	89	1
93	94	1
70	146	1
137	138	1
66	66	1
145	146	1
50	152	1
4	4	1
