119	119	22
28	28	21
7	8	4
52	52	55
53	53	22
11	12	9
90	90	10
48	48	34
121	122	3
111	113	8
93	94	12
39	39	13
57	57	18
88	88	22
100	112	3
17	17	16
28	29	9
42	43	2
75	75	10
62	65	2
19	19	23
2	2	29
40	42	3
39	40	5
63	63	27
82	83	11
63	80	5
48	56	6
120	120	18
130	130	14
76	76	20
0	1	8
118	124	1
6	6	19
97	97	33
109	109	29
38	38	9
18	18	5
14	22	2
41	45	3
10	10	19
27	27	14
102	102	17
114	114	22
132	133	13
100	100	4
4	7	1
8	9	5
84	85	2
106	106	14
82	85	1
41	41	18
15	15	26
45	46	4
57	58	10
85	85	19
26	27	6
69	69	19
89	92	8
80	85	2
55	55	31
74	74	27
15	115	2
104	105	13
54	54	47
105	106	11
96	96	18
5	5	17
31	31	16
65	65	29
56	56	28
73	74	4
108	108	13
43	44	12
52	53	11
87	87	14
62	103	3
126	128	4
4	12	4
3	3	11
50	50	35
49	49	18
24	24	9
129	129	20
79	79	16
111	111	13
79	80	4
2	3	5
7	9	2
86	87	5
91	92	4
44	64	2
42	45	3
68	76	2
88	90	4
112	112	30
56	57	7
13	13	18
45	45	9
99	99	18
1	1	16
98	98	20
46	47	18
120	121	11
77	78	12
82	82	10
40	40	13
131	132	2
86	88	6
123	124	9
78	78	15
51	51	33
71	71	22
70	88	5
16	95	1
92	93	1
131	131	18
104	104	14
25	25	5
19	25	5
10	11	6
117	117	22
124	125	7
71	72	5
124	124	11
33	33	15
55	65	2
65	90	6
66	66	11
43	66	5
104	110	2
100	101	5
44	44	18
96	102	7
69	71	4
68	68	13
65	66	10
103	109	6
103	114	3
4	4	14
64	64	13
19	26	2
42	42	20
33	34	5
49	69	3
64	81	3
60	103	3
101	101	11
109	110	15
46	54	4
56	95	2
22	23	5
105	131	4
72	93	3
58	58	19
121	121	27
95	95	22
128	129	8
46	46	32
118	118	21
23	23	18
114	118	4
123	123	29
47	47	28
103	103	5
19	20	14
83	85	1
68	106	7
61	61	13
125	126	3
7	7	19
105	105	15
103	108	4
59	60	6
129	130	8
127	127	21
12	13	6
77	77	16
1	6	2
76	77	8
5	6	6
11	11	13
126	126	18
115	115	18
122	122	35
26	26	17
70	70	26
16	17	8
61	90	4
59	59	11
21	23	4
62	62	9
118	119	2
58	62	2
125	125	11
84	84	12
31	32	4
57	66	6
19	22	4
15	94	3
97	98	4
20	20	18
72	85	2
16	16	28
58	65	12
84	100	10
98	99	10
62	63	8
108	130	1
94	95	15
51	52	1
58	59	12
32	32	19
0	0	19
110	110	9
102	103	6
27	32	1
20	21	1
113	113	13
78	79	9
114	117	11
15	16	11
85	87	5
23	24	8
116	117	4
14	18	2
14	49	7
26	29	3
63	64	3
44	65	3
81	81	14
8	8	7
88	92	7
3	5	2
78	105	2
114	115	7
80	81	8
73	73	7
117	118	11
13	19	2
14	14	5
101	120	1
12	12	31
106	110	2
96	97	6
116	120	4
74	128	3
119	120	6
46	48	3
49	67	4
66	68	1
45	59	6
89	90	8
44	71	6
119	125	8
32	76	6
53	75	1
114	131	4
94	94	25
89	89	17
21	21	14
44	45	8
76	80	3
105	115	3
27	41	4
122	123	12
70	71	7
107	107	22
116	116	17
24	33	5
28	49	1
86	86	13
9	9	15
96	117	2
40	41	8
1	2	4
76	131	1
102	114	3
9	28	2
92	92	10
85	86	6
43	43	15
50	54	2
88	110	2
56	60	1
99	103	2
120	124	6
29	29	10
21	96	4
88	99	2
51	67	2
45	67	4
93	93	9
82	131	2
97	99	5
72	73	7
11	113	3
86	92	3
113	116	6
17	18	9
105	107	9
73	98	5
132	132	13
6	7	4
32	33	4
99	100	6
91	98	2
106	107	6
32	40	3
108	109	9
25	28	2
81	82	7
133	133	8
50	51	9
41	64	2
34	34	1
49	52	4
115	116	7
91	91	9
2	5	3
108	111	1
117	119	4
69	92	4
44	61	1
67	68	7
98	100	2
113	114	9
72	79	3
126	129	4
103	105	1
6	8	1
88	96	3
111	119	1
95	96	13
99	114	2
94	97	2
83	84	10
25	31	1
53	56	3
0	5	2
8	10	5
53	71	1
14	15	3
99	119	1
30	30	7
108	127	1
38	39	7
81	86	2
101	102	3
31	48	1
52	55	3
88	116	2
121	131	3
15	21	2
74	75	1
89	93	3
53	54	5
91	99	3
47	102	2
42	73	2
87	88	3
39	41	2
67	67	4
43	123	2
88	89	12
51	53	5
41	42	2
18	21	1
48	68	1
111	112	21
104	125	4
4	6	3
79	81	5
83	83	7
43	47	2
78	106	2
58	60	3
13	29	6
67	103	1
43	65	3
15	95	1
54	75	1
54	55	4
4	5	3
0	20	3
40	103	1
6	13	2
59	61	2
30	31	3
6	20	2
47	48	4
42	59	1
25	26	4
119	131	1
103	104	8
57	120	4
33	39	3
68	69	4
78	81	3
118	120	1
101	103	3
107	108	9
114	116	3
91	93	1
72	72	7
72	91	1
13	14	4
105	114	2
49	50	4
69	70	3
9	10	4
84	87	1
113	131	4
126	127	8
0	133	4
48	54	1
89	91	3
1	49	3
24	30	7
80	80	6
102	109	1
19	65	4
85	109	1
21	25	2
51	57	1
4	38	3
108	126	1
13	15	1
80	84	2
39	55	2
11	27	3
54	72	2
41	63	1
16	63	3
64	65	4
122	131	3
19	21	1
105	132	4
44	55	3
9	11	2
22	22	1
6	40	1
113	118	3
27	28	4
96	104	1
50	52	1
16	18	2
102	108	4
76	78	3
60	60	1
48	69	1
13	54	4
19	88	1
22	24	1
51	77	1
24	34	3
74	77	2
110	112	5
51	54	2
127	129	1
111	124	1
107	109	2
26	30	1
3	31	1
77	97	1
113	117	3
84	89	2
90	93	2
107	113	2
54	74	4
41	43	1
2	22	2
79	94	1
45	48	2
75	98	2
18	96	1
14	16	4
74	92	1
29	30	3
45	47	1
61	62	3
4	16	2
12	91	1
55	62	1
27	30	1
45	74	1
88	91	1
62	66	1
28	31	2
3	4	2
21	22	2
10	26	1
120	123	3
60	61	2
84	101	1
14	25	1
90	91	1
9	108	1
73	128	1
74	81	1
43	79	1
17	19	3
31	70	3
65	67	1
111	130	2
45	68	2
125	130	2
125	131	1
38	70	1
37	37	2
112	131	1
119	124	1
18	22	2
26	32	1
75	76	1
82	84	2
26	31	1
42	78	1
129	133	3
102	120	2
8	11	1
5	48	1
13	27	2
52	67	1
80	82	1
5	54	1
44	46	2
105	129	1
96	100	1
46	68	1
52	57	1
84	113	1
34	39	1
60	62	1
111	131	1
23	30	1
89	100	1
2	77	1
81	83	1
45	88	1
14	23	1
4	49	1
74	84	2
45	71	2
2	48	1
24	25	2
18	24	1
16	130	1
58	64	3
90	94	1
95	116	1
17	21	1
87	101	2
46	72	1
72	92	1
112	121	1
48	67	1
41	72	1
64	102	1
54	73	2
45	93	1
93	95	1
85	92	2
77	95	1
29	42	1
17	22	1
