101	101	12
83	83	5
92	93	2
97	97	5
23	23	14
44	45	3
58	58	10
56	56	5
29	30	4
84	88	2
73	73	12
66	78	1
92	92	3
61	61	12
71	71	4
68	68	18
103	104	6
24	24	15
80	81	5
101	104	4
59	62	1
68	69	4
43	43	6
21	21	7
98	98	9
67	85	5
47	47	15
63	63	14
100	104	1
28	29	7
32	32	14
30	30	8
26	30	1
55	56	3
106	106	10
64	65	3
45	45	4
33	33	10
74	75	8
61	63	2
104	104	8
77	77	7
82	84	8
33	71	1
54	55	2
67	67	9
72	72	4
70	70	8
31	31	11
66	67	6
25	27	2
77	78	5
51	102	3
53	54	2
22	26	4
83	86	4
74	92	1
25	25	3
89	89	8
50	51	4
40	40	5
97	99	3
54	54	8
40	43	2
77	100	3
50	50	11
48	49	3
37	106	1
36	36	6
49	49	21
78	79	5
75	76	3
55	55	9
60	61	6
103	103	3
100	100	15
75	101	2
71	72	11
88	89	3
46	47	2
56	57	6
74	74	6
103	105	1
102	102	14
90	90	3
45	50	1
85	86	2
85	89	2
77	101	1
64	64	6
80	80	7
57	57	10
76	77	6
96	96	10
87	92	2
46	46	3
78	78	7
69	69	5
24	25	4
83	84	6
77	102	3
99	100	2
79	79	4
57	89	1
61	62	1
52	52	18
100	105	4
20	20	2
95	100	3
57	58	6
91	92	4
49	50	1
69	93	3
51	51	7
67	68	4
53	53	8
76	76	6
66	66	7
95	95	10
22	22	5
65	105	1
81	81	10
93	94	2
60	60	3
84	84	5
86	90	1
59	59	3
51	52	3
82	82	3
73	74	4
88	88	1
35	35	5
93	93	6
97	98	1
26	26	4
50	76	2
37	76	2
38	38	2
62	62	8
85	85	2
59	60	2
79	80	7
82	83	3
84	85	2
45	47	1
94	95	4
75	75	3
78	96	2
37	73	4
68	76	2
21	22	2
40	41	2
105	105	5
22	25	3
82	86	1
27	27	2
70	71	4
80	95	3
35	36	3
101	102	1
77	81	2
29	29	2
39	39	8
100	101	1
37	37	2
22	27	1
90	91	2
37	38	2
43	44	4
77	93	3
52	87	1
30	31	1
63	64	1
99	99	5
42	42	2
59	61	2
33	34	1
94	94	1
35	55	2
29	44	1
41	41	2
87	88	4
45	59	2
53	91	3
77	94	1
31	55	1
91	91	2
57	63	2
79	100	2
73	75	5
69	70	2
55	57	3
83	94	1
87	87	1
96	97	2
95	98	1
86	88	1
106	107	1
67	69	1
45	46	1
48	48	1
52	53	1
20	21	1
43	45	1
39	63	1
77	80	1
47	48	1
102	103	1
49	105	1
47	49	1
89	91	1
74	95	1
34	34	1
72	73	1
23	77	1
68	75	2
39	40	1
69	92	1
79	85	1
