103	103	5
76	121	5
97	98	8
85	149	11
146	147	6
16	16	10
66	66	4
167	167	8
190	190	8
152	152	12
109	110	7
158	161	1
157	157	7
123	123	9
131	131	5
36	97	2
151	151	14
174	174	14
189	189	6
186	186	5
116	116	10
37	42	1
98	103	3
20	46	4
27	47	2
164	164	13
181	182	3
121	122	3
44	44	2
131	133	12
114	117	4
147	148	6
119	144	11
173	173	10
119	119	11
25	25	10
153	153	10
85	86	4
11	11	13
134	134	9
15	77	1
15	35	4
93	94	5
54	110	2
58	58	3
25	65	1
57	57	9
64	70	2
100	103	2
4	4	6
108	108	9
178	178	6
38	38	12
121	121	9
52	118	5
28	29	4
107	107	5
170	170	11
22	24	10
125	125	11
74	74	7
54	54	14
148	148	7
133	133	15
112	113	3
63	63	4
100	100	4
153	183	1
120	120	13
91	91	9
175	176	4
115	117	8
101	101	9
160	161	1
106	108	1
22	22	14
164	189	5
45	46	6
22	27	2
117	118	10
23	23	13
59	60	7
94	94	8
54	57	1
82	82	11
38	40	4
48	107	1
146	157	2
155	155	7
78	81	5
64	72	5
27	28	3
150	151	3
84	144	5
54	71	3
84	106	2
129	129	11
162	164	1
137	137	11
83	83	4
79	157	3
14	16	2
13	14	4
9	9	6
135	135	9
27	35	1
117	117	4
157	190	1
37	100	2
28	28	5
37	37	7
184	184	10
111	112	6
177	177	2
123	124	1
13	13	7
124	125	1
118	118	3
133	170	4
188	188	6
122	138	2
146	146	6
149	149	16
110	110	14
57	88	2
19	19	8
5	5	5
77	84	1
166	187	3
98	98	9
17	18	2
108	147	3
40	40	6
77	77	6
39	39	4
169	169	10
160	160	4
187	188	9
75	76	6
95	95	4
147	147	4
122	122	7
169	177	4
61	61	4
130	130	5
36	36	7
127	179	3
46	46	7
31	32	7
17	17	9
92	94	1
99	99	6
4	5	6
140	141	3
24	24	11
65	65	7
62	65	1
81	101	4
113	113	5
187	187	4
141	141	8
178	180	2
146	150	4
111	151	1
87	87	8
128	128	11
7	7	5
89	90	2
143	173	3
12	40	3
45	45	13
90	90	10
71	72	2
78	187	2
85	85	7
34	35	3
101	145	3
84	84	7
10	10	5
136	136	10
185	186	2
117	119	2
7	14	5
21	21	11
41	41	4
75	75	4
37	81	3
56	56	12
33	33	6
163	163	6
68	68	12
72	72	7
176	178	5
100	157	2
152	153	7
154	181	4
79	79	11
125	126	5
15	70	1
90	110	2
161	161	5
105	105	7
86	149	3
8	16	5
12	13	2
2	3	4
176	176	2
165	168	3
144	144	6
67	83	3
2	57	1
88	89	3
76	76	4
93	93	8
154	154	5
180	180	7
156	156	5
27	48	3
88	88	9
115	115	4
14	15	5
93	121	2
166	167	5
124	124	6
148	149	1
32	32	10
108	113	1
33	44	4
0	0	3
65	70	3
172	173	2
141	143	3
31	31	7
80	80	7
89	89	7
20	47	1
132	132	5
22	48	4
19	20	3
185	185	7
87	88	4
162	190	2
37	102	3
171	172	4
107	181	1
2	2	8
166	168	2
38	41	1
127	127	10
139	141	2
168	169	2
108	112	5
8	12	3
167	187	1
29	29	9
28	30	2
4	6	1
7	8	2
18	19	5
15	17	2
18	18	12
161	178	2
138	138	10
162	162	16
167	189	2
108	116	1
127	128	3
64	64	5
11	68	5
58	73	1
55	81	4
87	156	3
122	147	1
87	148	5
101	153	1
70	70	10
1	57	1
145	146	4
102	103	1
157	169	4
130	171	3
80	81	5
169	170	5
167	180	2
128	139	1
167	168	1
144	145	1
182	182	5
141	142	3
15	15	6
53	53	4
175	175	8
161	163	1
40	48	6
55	55	6
162	163	4
187	189	1
179	179	12
124	148	3
22	26	1
158	158	3
108	111	2
30	31	3
165	165	2
28	31	3
23	24	4
104	105	3
5	9	3
168	180	4
12	12	1
35	35	11
80	103	1
156	163	1
82	187	1
165	187	3
104	104	2
162	188	1
154	155	1
183	183	3
142	142	6
91	92	1
73	76	2
139	139	4
6	40	2
16	18	2
41	48	6
48	79	2
130	132	1
20	21	2
36	42	5
58	72	1
26	47	1
111	111	1
1	2	2
97	157	2
67	67	13
134	135	5
158	159	2
53	106	2
46	100	1
89	143	3
13	71	3
78	78	7
171	171	8
112	118	1
7	66	1
77	85	2
108	110	2
42	42	5
29	31	2
64	82	3
6	8	3
96	180	2
16	17	1
3	3	8
11	12	5
157	166	1
90	93	2
102	102	1
48	48	3
58	59	2
36	44	1
63	72	2
166	166	3
140	140	5
130	185	1
159	177	1
85	99	5
134	141	1
129	133	1
150	158	1
61	77	1
92	92	7
129	130	2
128	154	3
57	136	4
114	118	1
76	79	1
71	74	5
129	170	1
39	41	4
15	24	1
111	145	1
78	79	1
11	43	2
69	69	4
170	187	2
59	62	3
44	46	3
54	80	4
89	96	2
54	55	3
18	20	1
0	70	3
143	143	4
114	114	5
64	69	2
29	30	5
106	186	1
96	97	4
20	20	4
107	149	3
43	43	4
100	149	2
0	25	2
14	14	8
184	185	3
114	115	6
44	45	1
0	2	1
46	101	3
97	156	2
160	162	1
37	44	1
82	83	3
127	150	2
36	37	1
164	177	1
124	173	2
163	164	3
156	158	4
3	22	1
37	55	1
123	145	1
106	120	1
34	46	4
188	189	1
98	156	1
36	41	2
57	59	2
85	87	1
179	180	1
28	33	1
109	109	2
48	123	1
59	59	3
181	181	3
155	163	2
86	87	1
64	101	3
107	145	5
152	186	1
60	75	1
32	33	1
78	80	1
6	6	6
72	101	1
84	86	2
31	33	2
53	54	1
97	97	3
8	18	3
105	106	2
70	71	3
103	144	2
15	23	1
48	145	2
3	4	1
22	23	1
101	102	2
102	153	1
56	98	3
91	123	2
40	41	2
29	41	2
102	106	2
103	104	3
176	181	2
11	41	3
95	176	1
180	181	2
5	21	1
44	47	1
126	127	5
109	112	1
60	60	3
71	71	1
26	42	2
171	174	2
106	107	5
16	27	1
114	116	4
57	124	1
115	116	3
13	70	3
82	166	1
155	179	2
83	85	2
20	68	2
1	39	1
126	144	2
47	63	1
23	26	1
186	187	2
135	136	4
93	109	1
16	23	1
125	175	1
59	61	2
154	180	1
131	132	2
150	150	1
97	99	1
53	118	1
93	184	2
73	73	4
176	177	1
77	86	2
76	177	1
65	67	1
126	157	1
74	172	1
39	48	1
161	175	2
103	150	1
34	36	2
3	5	1
58	71	2
18	22	1
172	172	2
128	138	2
57	58	1
48	150	1
58	60	2
126	126	4
30	32	1
47	47	1
165	188	1
155	156	1
32	95	1
5	8	2
100	102	1
132	133	2
167	186	1
23	25	2
21	22	1
45	100	2
21	73	2
166	188	1
128	149	1
173	182	1
92	123	1
26	41	1
128	129	2
34	45	1
74	75	1
48	88	2
129	152	1
2	56	1
143	174	1
79	80	1
151	152	1
101	169	2
48	74	1
34	47	1
5	20	2
81	82	2
38	39	2
23	67	1
12	21	1
112	112	1
104	106	2
125	160	1
10	68	1
142	143	1
44	72	2
170	177	1
107	113	1
65	66	1
109	113	2
106	109	1
27	27	1
116	117	2
152	183	1
32	45	1
74	82	1
81	81	1
6	14	1
83	148	1
53	55	1
107	170	1
36	38	1
68	69	1
130	133	1
159	159	2
27	29	1
137	138	2
62	62	1
84	150	2
105	111	1
83	84	1
91	96	1
5	22	1
47	82	1
107	182	1
161	162	1
9	10	1
106	175	3
89	110	1
42	46	1
129	184	1
61	82	1
171	176	1
36	100	1
62	79	1
1	1	1
56	57	1
162	178	1
24	25	1
124	146	1
30	30	1
166	190	1
96	98	1
165	167	1
71	82	1
24	26	1
18	21	1
13	20	1
164	165	1
