80	82	3
86	88	2
48	48	12
54	54	3
115	115	9
5	6	2
101	102	3
68	68	3
46	46	8
116	116	9
129	129	6
44	45	12
16	23	6
114	126	2
77	77	9
114	114	6
104	104	3
132	132	11
26	26	2
0	0	6
33	34	3
119	119	7
114	116	1
111	112	3
7	14	5
98	98	14
5	16	2
18	20	3
69	69	5
60	83	3
8	8	9
84	105	4
73	73	7
108	111	4
4	13	3
83	83	5
74	106	3
61	61	6
8	13	4
2	7	1
41	42	6
88	88	4
123	123	5
120	121	1
73	77	10
80	80	3
24	24	3
9	9	2
39	39	12
118	118	8
1	1	4
119	125	2
99	100	2
54	114	6
5	5	3
6	6	5
110	110	3
121	121	7
13	13	7
9	23	2
20	20	5
116	123	2
13	14	2
101	133	6
17	25	3
102	102	14
3	4	3
94	94	9
14	15	5
90	90	6
94	95	1
55	55	6
53	54	3
71	80	4
80	81	4
59	59	6
60	60	5
108	112	2
77	81	4
130	131	3
41	58	2
114	127	2
86	86	6
66	66	3
48	49	2
126	126	6
38	38	5
4	16	1
3	3	5
91	92	3
69	70	1
5	13	2
17	17	1
46	70	1
17	21	2
104	109	3
79	86	1
44	44	7
95	95	4
8	9	2
114	128	1
11	15	1
84	84	10
107	113	2
126	129	2
56	56	2
67	67	5
12	12	15
71	71	11
79	79	9
95	96	7
87	87	9
84	85	2
48	110	1
58	59	3
101	117	2
50	50	11
70	70	2
33	33	4
3	23	3
64	64	2
40	40	1
72	74	4
18	18	3
46	69	2
109	109	5
131	132	7
119	131	6
52	52	9
53	53	7
0	112	2
120	120	4
105	105	4
19	19	2
23	23	4
113	113	2
26	28	3
42	42	2
82	87	4
120	132	1
22	55	3
128	128	3
19	20	2
47	47	4
82	82	3
38	110	1
131	131	6
64	80	2
74	80	4
16	16	4
41	62	1
31	31	1
92	92	10
8	14	1
113	116	1
27	29	3
97	97	2
127	129	1
122	122	2
82	83	4
72	72	7
128	132	5
22	32	5
106	107	3
50	56	2
73	74	2
76	76	4
45	45	1
50	51	3
119	120	1
127	127	4
86	89	2
103	103	1
16	17	5
124	125	2
51	52	8
126	127	3
17	22	2
99	99	3
15	15	8
41	106	2
11	11	1
46	72	1
9	11	1
5	7	3
124	124	5
120	124	5
79	91	3
51	51	2
88	95	2
2	14	3
41	44	2
74	74	2
109	111	2
93	104	3
81	81	4
20	21	2
102	112	1
40	87	2
21	22	3
16	34	1
66	72	2
108	108	4
113	127	2
62	63	1
31	32	4
115	116	3
99	101	3
85	97	4
89	89	6
4	5	1
2	4	4
61	84	1
51	69	1
45	127	1
65	72	2
43	44	6
43	109	1
112	113	2
75	75	4
57	111	1
117	119	1
43	55	1
26	31	3
117	118	1
89	107	1
21	21	1
83	103	1
62	102	2
89	100	2
101	128	3
73	76	3
63	66	4
60	116	2
102	104	1
49	51	3
44	63	3
66	67	3
57	57	2
1	110	2
104	105	1
45	65	1
12	15	2
44	64	1
25	26	2
12	30	1
114	118	1
78	102	3
60	113	1
101	101	1
133	133	2
75	77	2
59	60	1
130	130	7
86	87	2
88	89	2
31	111	4
100	119	2
2	2	1
61	68	1
49	49	1
89	101	1
63	63	7
118	131	1
8	26	2
60	133	1
51	68	1
99	103	2
54	102	3
63	68	1
116	126	2
85	85	3
41	41	3
28	34	1
78	78	1
11	14	1
72	73	1
102	103	5
100	103	2
22	22	2
101	118	1
116	127	2
125	126	1
124	130	1
102	106	1
25	25	4
10	11	1
29	39	1
49	105	1
12	13	2
15	25	2
21	28	1
65	66	3
106	106	1
46	66	1
97	98	1
30	30	1
79	103	1
49	106	1
122	123	2
87	88	1
101	130	2
10	10	1
63	64	1
112	112	3
61	115	1
41	103	1
43	43	1
41	67	1
49	110	1
118	124	1
59	87	1
18	19	1
128	129	1
126	128	1
92	118	1
69	71	1
