91	91	11
58	59	12
46	46	16
42	42	5
47	47	9
120	121	3
5	5	15
66	125	3
125	125	12
118	131	1
111	111	8
111	113	5
86	95	2
69	94	1
61	62	4
48	48	15
62	68	2
118	118	15
106	126	1
16	17	2
29	30	14
9	93	1
65	68	3
109	110	2
49	49	14
62	62	15
98	99	3
33	33	12
9	9	13
51	51	6
112	112	20
108	108	20
86	87	11
78	78	6
119	120	9
38	38	14
54	55	8
70	71	11
88	89	5
71	71	9
77	77	9
39	39	12
114	115	4
63	68	2
0	0	5
93	94	7
86	86	11
39	40	9
109	125	3
50	50	14
71	72	9
32	32	5
56	70	1
52	52	13
6	6	6
49	53	5
11	12	5
56	56	10
85	85	10
44	44	11
2	32	2
83	83	11
132	132	7
104	105	8
57	57	13
89	89	14
59	60	2
117	118	9
93	93	18
126	127	7
41	41	14
76	81	1
74	75	3
3	3	2
75	76	8
1	9	3
81	81	17
2	2	3
44	45	5
54	54	15
31	31	6
96	102	6
62	63	4
95	96	5
31	32	4
43	44	5
25	25	4
41	43	2
12	13	5
13	86	2
17	17	3
97	107	4
130	130	7
52	53	13
81	84	2
60	60	10
95	95	9
18	18	8
7	7	7
96	96	3
3	13	2
113	120	2
73	73	10
50	51	17
122	122	8
56	57	4
92	93	6
103	103	14
106	106	20
77	81	1
90	90	5
121	121	10
119	126	2
92	92	4
104	117	4
102	104	1
70	70	9
68	68	20
77	78	3
120	120	8
59	59	2
21	26	1
80	80	5
102	102	9
112	113	7
113	114	3
9	10	8
19	19	7
105	106	2
72	73	5
17	18	4
2	31	3
89	90	4
116	117	4
104	109	3
104	104	11
15	30	5
20	20	11
127	127	4
99	100	7
14	14	4
126	126	5
47	72	1
8	92	4
107	107	13
57	58	2
43	43	12
91	92	9
22	22	7
65	65	20
113	113	8
4	4	5
46	47	5
53	53	14
61	63	4
57	115	2
94	98	1
80	81	3
117	117	10
90	91	2
98	98	8
124	124	12
26	26	6
14	20	5
15	15	7
100	100	13
119	131	8
114	116	4
27	27	7
106	107	8
9	12	2
10	10	12
13	14	4
97	97	12
46	48	5
4	47	2
91	102	3
69	83	4
22	27	1
101	104	1
66	66	5
75	118	2
55	56	3
40	40	10
30	31	1
94	94	15
1	1	6
14	15	5
125	126	8
96	97	4
72	72	14
30	30	7
69	69	8
28	28	8
65	119	1
88	88	11
22	23	12
21	21	5
19	39	1
114	114	12
32	33	2
29	29	14
110	123	3
79	125	2
12	12	9
115	115	7
129	129	11
129	130	3
90	96	1
4	5	5
84	86	2
55	55	3
7	26	5
101	101	4
87	88	2
4	27	6
89	91	3
84	84	3
64	64	3
12	58	5
99	99	10
128	128	5
79	80	7
1	2	6
13	13	8
116	116	3
77	79	2
19	50	1
9	92	1
16	16	9
19	20	2
118	120	2
28	29	5
61	61	10
76	78	1
117	131	3
75	75	12
60	61	5
17	21	3
33	34	3
95	109	4
29	32	4
51	52	3
58	62	3
101	102	2
13	64	1
112	120	1
27	50	3
67	68	1
10	92	2
112	118	1
20	22	2
94	95	5
102	107	1
63	64	3
74	74	2
106	109	3
23	23	4
9	53	1
43	45	1
45	45	3
105	109	1
111	116	2
85	87	5
38	39	2
20	32	1
82	82	11
22	40	2
47	48	5
110	110	5
133	133	3
119	119	9
6	28	2
87	87	5
80	119	2
79	79	5
8	8	2
76	76	5
18	38	1
105	105	4
0	7	2
64	65	3
91	119	2
128	130	4
16	22	1
67	67	1
72	75	4
68	69	1
21	22	3
49	70	1
50	52	3
29	31	4
24	24	2
1	21	1
5	6	9
131	131	7
55	60	2
83	84	2
118	119	3
18	40	3
26	27	4
42	45	3
11	11	5
43	83	1
46	77	1
84	85	4
51	53	3
92	100	1
42	43	4
28	44	2
7	8	3
49	69	9
97	102	1
64	113	3
108	109	3
124	125	4
8	20	2
20	77	1
65	79	2
75	97	1
14	28	2
64	75	5
90	93	1
69	70	4
85	86	1
100	129	1
52	54	2
40	41	1
101	108	1
102	103	1
20	87	2
84	87	1
19	21	2
109	109	4
58	61	1
25	26	4
11	64	1
9	122	1
56	60	2
42	48	1
67	89	3
7	50	1
10	12	1
2	7	1
109	120	1
86	88	1
51	114	1
70	72	2
77	89	2
48	49	1
13	23	1
100	130	1
123	124	3
29	33	2
121	122	2
89	100	1
63	63	3
72	74	2
0	1	1
97	106	2
20	21	2
53	54	1
8	9	2
123	123	3
41	42	1
64	79	1
75	83	1
82	90	1
74	94	1
83	85	2
26	28	1
66	120	1
19	22	1
83	104	1
76	89	1
24	29	1
78	79	1
106	116	1
120	122	2
12	91	3
96	99	2
0	9	1
124	133	1
66	79	1
7	11	1
93	101	1
105	110	2
81	103	1
2	4	1
58	58	1
90	92	1
107	125	1
100	102	1
60	123	1
105	108	1
131	132	1
16	30	1
111	114	1
16	21	1
111	115	1
75	108	1
113	119	1
41	44	1
15	16	1
102	116	1
21	86	1
18	44	1
92	94	1
115	116	1
111	121	1
91	93	1
81	88	1
60	62	1
