20	20	3
55	55	3
14	98	3
120	121	3
130	130	7
128	128	5
59	97	7
80	80	12
56	56	2
22	22	11
19	19	1
108	108	2
77	78	10
113	114	1
13	13	4
139	139	9
106	106	4
39	76	3
87	88	4
93	93	2
81	81	8
123	123	3
126	127	2
10	32	2
2	41	1
34	34	3
28	28	5
82	116	4
53	53	2
1	2	4
32	32	4
74	74	8
121	121	4
64	65	4
127	127	6
144	144	5
118	118	3
40	83	5
109	109	2
139	140	3
110	119	4
121	133	1
57	58	4
57	59	3
40	40	3
124	124	10
24	24	2
68	68	10
54	54	1
62	86	2
29	29	2
101	102	2
64	64	1
112	113	3
55	56	2
143	143	2
130	137	2
138	138	3
140	140	11
58	58	3
115	115	2
105	105	8
3	35	5
62	62	1
21	22	4
61	73	2
89	90	2
104	104	9
84	84	1
107	107	9
8	8	9
31	31	6
101	101	4
128	129	3
108	109	3
99	102	2
126	126	4
95	95	4
54	55	4
142	142	6
119	119	3
23	24	3
23	23	6
4	5	2
92	94	4
86	86	1
115	116	3
75	85	1
107	132	5
54	70	2
130	131	3
91	91	3
70	70	6
37	38	2
0	6	2
59	61	3
63	69	2
96	97	1
132	132	10
90	90	2
131	131	4
18	49	3
116	116	2
97	97	4
75	75	2
134	134	4
117	125	2
131	132	2
17	17	5
111	111	3
87	118	2
131	136	1
82	82	2
128	130	1
135	139	6
50	51	3
68	69	4
35	35	1
85	85	1
122	122	3
141	142	5
48	48	1
27	27	5
117	117	2
77	79	2
73	110	1
120	120	4
64	66	3
137	137	4
132	139	1
72	74	1
27	105	2
9	9	3
37	37	8
85	116	1
114	114	3
115	120	3
3	47	1
66	66	2
71	71	5
71	92	1
6	6	4
111	118	1
9	11	2
88	105	1
26	27	1
103	103	4
134	139	1
133	133	4
67	67	1
20	65	1
14	14	1
144	145	2
15	15	2
129	130	2
133	139	2
63	63	2
72	72	1
1	1	5
136	137	1
30	32	2
3	3	2
2	2	1
92	92	1
99	99	1
94	94	2
56	104	2
61	61	1
82	83	1
69	69	4
54	56	1
100	102	2
22	23	5
80	81	2
51	51	1
63	140	1
105	108	2
75	87	2
4	4	3
53	79	3
145	145	1
56	63	1
41	41	1
97	98	1
62	98	2
39	43	2
41	42	2
53	76	1
137	138	1
77	119	1
16	16	1
47	47	1
6	34	1
141	141	1
102	102	1
107	124	1
96	108	1
5	5	1
30	31	1
89	105	1
0	0	1
54	61	1
43	43	1
