91	104	3
95	95	8
50	52	2
37	37	9
54	55	5
150	150	12
97	98	4
137	137	7
87	87	11
48	48	13
92	92	3
18	18	16
43	44	2
19	22	2
24	73	2
69	69	3
119	119	6
90	91	13
128	154	2
65	65	3
131	134	7
11	41	2
143	143	4
32	32	6
123	124	4
151	151	4
80	80	6
33	34	2
9	18	3
77	78	8
34	82	1
113	114	7
41	41	3
51	51	4
15	15	5
67	68	3
86	86	8
10	10	11
21	22	7
57	57	3
36	89	1
66	157	2
31	35	3
128	128	9
85	85	4
35	36	2
25	25	5
54	54	4
120	120	7
103	104	6
47	47	5
80	90	3
23	33	3
139	139	6
20	20	3
132	133	5
153	154	5
38	39	1
31	31	7
29	29	8
114	153	4
133	134	6
42	42	15
14	14	5
11	11	3
113	113	9
156	156	12
21	25	4
108	108	5
79	118	3
99	99	3
90	141	6
135	138	4
90	127	4
95	143	3
75	135	3
22	22	13
64	64	5
137	138	2
18	20	3
114	114	7
28	40	1
22	158	1
35	35	6
18	19	9
142	152	2
5	5	5
45	45	10
3	3	4
77	77	6
70	70	5
67	141	3
158	158	12
134	134	4
32	43	2
40	41	5
82	96	2
40	40	5
121	153	5
12	13	4
75	75	4
145	145	6
105	105	7
71	106	6
15	141	1
154	154	2
66	66	12
115	115	8
8	8	2
146	148	4
129	129	13
128	129	3
21	24	1
114	115	5
119	120	7
16	16	4
44	44	2
71	72	1
1	1	5
25	38	2
98	98	6
67	67	13
112	113	9
68	68	3
24	24	7
7	7	6
73	73	12
112	125	1
38	38	10
6	156	3
95	131	3
144	144	2
67	155	3
136	136	2
82	83	3
127	127	5
111	111	8
79	80	3
2	146	2
107	108	4
133	141	1
92	146	1
27	31	1
70	90	1
132	134	3
131	131	3
37	49	1
92	93	3
90	90	3
147	147	2
100	100	2
115	121	4
85	126	1
4	9	2
78	78	8
52	52	10
9	61	4
56	56	1
48	49	7
76	78	1
141	142	9
51	54	4
26	26	2
134	140	3
117	119	1
79	79	5
83	146	1
124	124	4
9	9	2
88	137	3
117	128	1
104	104	5
135	137	3
70	71	3
147	148	2
91	91	9
132	132	2
17	17	8
141	141	4
83	87	4
26	27	1
23	24	2
121	151	2
152	152	2
12	42	1
107	137	3
36	36	6
138	141	3
89	142	3
102	102	7
96	96	4
14	16	3
53	54	2
92	94	2
7	56	4
105	106	1
123	123	8
28	28	3
53	53	7
66	104	3
80	82	1
4	135	3
135	136	2
73	138	3
30	107	2
138	138	1
142	142	9
11	19	4
8	140	3
50	50	4
64	141	1
69	70	5
157	158	5
30	55	2
101	130	3
112	112	4
22	30	2
105	112	3
67	69	1
99	100	1
89	89	5
12	25	1
95	96	7
97	97	6
136	142	2
2	2	3
67	157	2
13	13	8
128	143	1
155	156	1
82	82	5
157	157	3
73	159	1
8	144	1
80	125	1
122	122	7
82	118	4
5	25	1
55	55	1
85	86	6
33	33	3
7	41	3
63	68	1
121	122	2
98	139	1
11	27	1
93	94	1
18	44	2
147	154	1
93	93	1
117	125	2
71	71	3
21	21	4
21	51	1
7	143	3
25	45	1
33	77	2
34	34	4
94	98	3
13	26	3
19	21	3
126	126	8
27	27	2
9	140	2
19	19	1
108	109	6
16	30	2
17	18	4
76	108	1
121	127	2
103	112	3
84	85	2
152	153	3
153	153	3
109	110	2
88	114	2
106	106	3
114	125	1
25	37	1
84	84	3
12	12	2
33	42	1
120	124	2
133	133	5
69	86	3
50	51	2
111	112	2
75	112	2
108	110	3
103	103	3
109	109	4
125	126	2
10	27	2
17	46	2
15	16	2
154	155	1
77	123	2
97	107	4
117	117	2
68	69	2
135	135	3
84	106	3
31	37	3
20	21	2
30	30	2
81	81	1
67	122	1
7	50	1
131	144	1
91	145	1
101	101	2
17	19	2
113	115	1
92	110	1
93	95	2
78	118	2
116	117	2
105	107	3
125	125	1
140	140	4
148	149	1
6	6	1
116	116	1
118	119	1
138	140	1
149	149	1
49	49	1
155	155	1
80	81	1
23	23	4
46	46	4
132	140	1
115	125	1
67	70	1
55	56	1
122	123	6
31	50	3
139	140	2
116	152	1
85	148	1
66	67	1
149	150	1
4	4	1
94	144	3
19	25	1
127	147	1
9	114	2
72	72	5
79	125	1
7	8	3
43	49	1
73	74	1
12	14	1
85	90	2
32	33	1
66	68	2
36	38	2
44	45	1
32	38	1
126	127	1
10	18	2
39	41	1
118	118	2
39	39	1
44	72	2
4	48	2
131	132	1
7	156	2
15	39	1
61	110	1
120	126	1
87	89	1
86	95	1
8	19	2
9	10	2
14	49	1
26	30	2
145	146	1
13	55	1
13	16	1
87	97	1
85	149	1
78	82	3
148	148	1
4	7	1
88	119	2
25	32	1
62	62	1
13	14	3
84	151	1
16	25	1
111	139	1
29	33	2
85	119	1
63	72	1
7	32	1
88	88	1
127	128	1
31	34	1
18	21	1
88	89	1
19	71	1
49	57	2
35	37	1
86	120	2
34	37	1
41	42	1
77	124	1
108	133	1
116	128	1
31	55	1
