7	7	19
140	140	2
100	100	8
94	94	25
31	32	6
10	10	8
34	35	9
132	132	6
69	69	9
81	82	7
27	65	4
33	62	7
87	115	1
130	130	8
83	86	2
118	118	12
2	2	3
64	120	2
47	47	6
84	116	11
90	90	1
134	141	6
50	50	9
64	64	7
17	17	10
23	25	3
130	133	3
15	15	7
53	57	2
117	117	7
108	108	8
62	62	13
43	44	7
19	19	19
54	54	8
5	6	10
124	128	6
32	32	10
18	18	20
27	27	12
46	46	9
148	148	5
36	36	14
131	132	7
124	124	4
43	54	4
93	93	8
3	3	4
71	112	2
54	64	4
122	122	14
86	86	7
38	38	12
87	87	5
90	96	1
94	95	3
106	106	13
82	82	2
11	12	6
44	44	15
102	102	10
120	121	3
52	67	2
68	68	24
39	39	8
131	131	6
38	51	3
16	17	5
99	99	13
6	9	3
74	74	11
115	116	6
13	13	5
81	81	11
84	84	2
51	51	3
5	9	3
146	146	7
46	47	3
77	83	2
66	67	8
20	26	3
73	73	5
105	105	2
116	116	8
98	98	4
49	49	7
75	75	4
44	54	11
20	22	4
80	116	1
12	20	2
105	108	3
114	114	2
95	95	6
140	141	2
43	43	8
128	128	10
127	127	8
28	28	6
151	151	1
63	63	4
111	113	3
83	84	4
76	76	6
148	149	2
37	38	4
33	33	4
42	43	6
41	118	2
129	129	6
75	76	1
120	120	4
136	137	4
45	46	6
50	51	10
25	26	9
26	65	1
26	26	8
22	22	6
138	138	6
40	40	2
52	52	8
7	127	1
38	137	4
141	141	4
12	12	8
2	3	4
65	104	4
68	73	2
80	83	4
101	103	5
45	45	11
34	139	1
72	72	5
38	39	4
136	138	2
40	48	1
70	70	9
104	108	1
73	75	3
109	110	13
14	14	1
11	11	8
4	4	6
144	144	5
71	71	6
35	36	5
95	97	3
142	148	3
92	99	2
6	6	10
61	86	4
4	12	1
37	44	4
4	7	4
78	79	2
55	55	1
90	92	1
123	123	2
48	53	2
121	122	1
51	63	2
135	135	3
85	85	9
102	103	4
137	137	3
80	81	10
14	16	1
6	7	1
73	74	6
130	134	1
5	7	8
90	124	1
31	54	3
9	9	11
3	4	2
65	66	5
19	150	5
111	111	5
33	136	3
39	51	4
142	142	4
65	68	1
145	145	3
141	142	2
29	55	1
78	78	4
28	29	5
41	41	7
31	31	1
134	135	1
17	154	3
96	96	11
66	66	7
5	5	14
80	117	1
57	57	3
104	104	8
136	139	2
67	114	4
94	102	1
63	67	1
67	67	3
43	53	4
149	149	7
130	135	8
92	96	2
43	47	1
54	67	1
94	97	2
56	57	2
77	77	1
8	9	4
43	151	1
71	73	1
44	152	3
110	110	1
10	11	1
70	117	1
68	74	1
121	121	5
24	77	4
16	20	3
139	151	3
9	10	1
113	113	3
136	136	1
68	76	3
24	24	10
29	29	4
20	25	2
115	115	7
39	40	2
20	20	5
107	107	1
125	125	6
112	113	5
122	123	1
54	55	5
134	134	6
153	153	5
79	79	7
36	49	3
52	63	1
66	68	1
133	133	6
17	73	1
127	128	5
38	40	7
30	52	3
129	130	4
37	94	4
42	42	6
10	21	2
41	42	3
74	75	2
64	65	1
80	80	6
8	8	4
40	41	5
150	153	2
125	126	1
10	20	1
137	151	1
36	42	2
13	22	2
34	36	1
26	67	3
145	146	9
15	29	2
4	10	2
87	88	3
41	48	1
32	72	1
83	83	4
69	71	3
146	148	1
30	30	4
69	111	2
144	146	2
148	153	4
57	58	1
23	23	7
21	22	1
103	103	2
67	79	1
139	139	4
52	64	2
132	138	1
34	122	4
43	46	5
16	16	4
19	151	2
106	107	2
144	145	4
58	58	3
20	21	5
93	95	2
35	35	4
89	89	1
18	36	2
49	50	2
129	135	3
32	33	5
130	132	2
71	79	3
23	78	1
152	152	3
18	19	2
84	86	1
28	55	1
100	108	2
63	64	1
80	85	1
129	140	2
74	76	2
113	114	1
119	119	7
51	52	1
137	139	1
4	6	2
81	84	2
43	45	1
16	27	2
35	132	1
7	8	1
30	36	1
54	63	2
88	88	1
51	61	1
47	48	2
16	28	1
52	65	1
41	150	2
97	97	3
77	78	1
101	101	2
23	24	1
124	139	3
65	67	1
25	25	4
128	129	4
112	112	2
90	97	1
53	53	2
32	85	1
124	126	2
147	148	4
123	129	1
123	125	1
138	139	1
130	131	2
133	135	1
143	143	5
34	34	3
28	30	1
108	110	1
53	63	2
126	126	1
71	72	1
14	15	2
78	98	2
94	101	1
7	9	2
95	109	1
110	113	1
150	151	2
87	110	1
39	138	2
32	140	1
85	87	1
7	10	1
19	20	1
105	116	2
15	27	1
15	25	1
28	126	1
65	72	1
71	77	1
93	109	1
62	86	1
39	57	1
123	124	1
34	137	1
50	62	1
56	56	1
85	86	1
13	18	1
