42	42	2
33	35	2
151	151	2
93	93	13
147	147	4
182	184	2
109	141	3
166	167	2
102	102	3
62	79	2
157	161	1
23	24	2
132	143	3
139	159	5
73	73	10
56	56	3
187	188	2
5	100	4
35	35	2
167	167	2
3	3	3
80	98	8
98	98	4
157	157	4
187	187	3
172	172	6
48	121	2
190	190	4
34	34	5
166	182	2
103	141	3
89	89	4
40	43	4
43	43	4
64	70	3
113	125	1
31	72	2
112	117	2
63	68	2
161	162	1
8	39	2
157	159	3
54	54	4
161	161	6
39	110	2
170	170	8
43	107	3
93	113	1
11	11	8
47	49	5
29	30	3
186	186	7
82	82	1
146	147	9
62	76	8
184	184	3
36	36	2
138	138	8
42	47	3
150	150	2
58	58	6
149	155	3
45	121	2
131	167	4
81	82	1
72	77	2
82	99	2
133	133	15
140	186	4
44	48	2
182	187	4
133	165	2
123	123	7
130	135	2
169	169	8
7	7	1
153	153	1
123	128	4
111	111	3
76	76	1
110	122	1
121	123	3
134	135	3
95	123	2
107	107	5
15	15	2
5	5	10
138	188	2
65	94	3
72	73	2
115	115	4
174	174	3
165	179	1
13	13	2
174	177	3
8	38	1
152	152	2
183	184	2
174	176	1
23	23	6
172	174	2
127	127	2
130	130	5
65	65	4
82	183	1
175	177	3
77	84	1
112	112	3
179	179	2
27	29	3
19	22	5
12	18	5
45	49	1
91	92	1
130	133	2
89	91	1
99	99	4
16	22	3
71	78	7
150	163	2
100	109	1
165	165	5
117	118	4
181	181	2
77	77	4
146	146	5
188	189	3
6	7	4
48	48	1
162	163	3
3	29	1
156	163	2
130	131	4
116	188	1
101	102	3
62	71	3
166	173	1
55	81	3
159	161	3
86	86	3
7	38	1
45	45	3
141	141	4
59	59	3
168	168	1
18	18	3
14	14	3
1	1	1
41	41	6
43	44	3
149	150	5
82	126	1
37	63	3
103	103	2
94	94	5
136	137	2
142	143	4
129	129	2
22	24	5
29	106	5
121	180	5
154	154	2
108	109	2
122	122	4
66	66	1
66	135	4
181	184	1
127	179	3
172	175	2
122	123	1
25	25	3
120	120	1
101	101	1
19	92	1
46	121	2
91	94	1
30	30	6
84	84	3
25	26	1
151	158	3
34	35	1
142	142	6
70	70	2
131	132	3
73	98	1
65	115	1
173	175	2
74	84	1
131	131	2
15	25	1
144	162	2
26	26	1
32	36	2
173	173	2
81	97	1
160	162	1
8	22	3
43	48	1
185	185	3
91	91	1
71	71	2
165	178	2
85	85	4
66	67	2
110	111	2
44	44	1
148	148	4
4	98	5
151	157	1
125	165	1
180	181	1
119	119	3
96	98	5
59	63	2
61	82	3
173	176	2
88	89	1
88	88	2
2	85	1
60	94	1
92	92	3
135	135	2
159	159	2
140	140	2
0	0	1
110	110	2
105	105	4
166	178	2
2	2	1
144	144	1
2	76	1
139	140	2
181	182	1
131	135	1
145	145	2
145	148	2
164	164	2
19	35	1
134	134	1
38	39	2
24	24	2
87	88	2
124	127	2
132	178	2
130	167	2
152	154	3
58	82	1
97	97	1
113	128	1
133	177	2
163	163	1
175	176	1
74	77	2
56	58	1
6	6	1
90	94	1
39	39	1
16	21	1
85	86	1
62	62	1
83	83	3
183	187	1
14	59	2
70	82	1
136	136	1
172	179	2
183	183	1
74	79	1
170	176	1
77	79	1
116	118	1
87	87	1
58	80	1
180	190	2
80	80	1
166	166	1
115	122	1
4	9	1
88	166	1
96	124	1
121	121	2
155	155	1
151	152	1
47	57	1
186	187	1
167	170	1
95	95	2
57	57	1
106	106	1
114	121	1
106	119	1
55	56	1
53	55	1
108	115	1
76	137	2
137	137	1
36	59	1
61	61	1
6	9	1
32	33	1
103	123	1
5	24	1
