88	90	1
0	182	2
142	142	6
5	6	2
164	164	5
155	155	4
143	167	3
197	197	9
78	82	2
38	38	7
127	127	11
11	11	5
179	180	7
93	115	4
52	52	4
124	124	8
157	158	4
42	42	11
113	114	15
70	70	5
6	6	8
149	149	4
194	194	2
111	111	8
48	49	12
189	190	5
8	134	2
53	53	16
113	113	10
134	134	4
136	171	1
183	183	2
114	114	11
178	193	1
11	32	2
122	123	1
96	96	9
141	142	2
142	150	2
170	170	8
65	177	5
22	22	6
169	169	13
57	58	2
84	85	1
12	12	4
24	24	5
174	174	7
116	117	5
139	160	4
125	126	8
17	17	8
172	172	11
16	17	4
159	164	3
163	164	7
179	181	2
162	175	1
57	57	10
147	147	8
55	156	4
143	143	9
165	165	4
47	47	6
130	131	1
19	19	9
166	166	5
134	137	3
49	50	4
132	135	1
138	146	2
78	81	3
194	195	4
176	179	3
115	115	6
110	130	3
67	144	3
168	168	6
104	104	7
95	95	2
9	9	7
117	117	4
31	31	9
26	26	3
32	32	6
190	190	4
102	106	5
63	129	1
80	80	4
192	192	6
187	187	3
100	100	5
39	40	9
183	184	3
5	182	5
85	86	5
85	160	1
186	186	1
108	108	1
20	38	2
110	110	7
36	38	2
37	39	3
63	63	9
163	163	6
155	157	4
78	78	9
69	70	3
102	102	4
178	178	7
0	12	5
146	147	3
31	32	3
36	36	4
54	56	8
61	61	3
54	54	3
191	192	1
118	121	3
160	160	5
196	197	6
51	51	1
34	59	4
179	179	1
185	193	3
16	16	2
107	107	6
88	111	5
98	156	2
2	2	6
74	74	4
23	38	2
181	181	6
43	43	4
148	177	1
15	32	1
56	56	12
97	99	2
30	30	9
40	40	1
14	14	6
67	132	2
158	172	1
135	135	5
156	158	2
178	185	2
128	128	2
174	175	3
147	170	4
165	166	7
45	45	2
7	7	1
64	67	3
17	18	7
46	51	3
105	105	9
159	159	3
61	130	2
96	137	1
159	160	3
178	182	2
176	176	2
167	168	2
135	137	3
6	9	2
19	109	2
28	30	2
10	10	8
5	8	4
107	108	4
3	3	7
1	2	5
182	182	6
58	58	4
72	112	2
10	13	1
68	68	2
78	84	2
71	72	1
120	120	13
20	21	4
156	156	7
123	124	6
163	176	2
20	20	3
136	136	1
116	121	5
132	132	2
39	119	6
151	151	1
66	131	1
110	111	1
191	191	6
26	35	1
94	94	3
180	180	4
126	126	5
165	167	1
64	68	2
185	186	3
172	174	4
187	188	6
184	184	6
101	102	1
153	158	3
58	129	2
170	171	2
138	138	5
196	196	9
98	99	4
5	5	2
195	195	4
41	42	2
17	56	1
98	98	2
99	132	2
141	141	6
130	130	3
23	23	5
9	10	2
71	71	2
118	119	2
149	150	3
49	49	2
119	119	10
115	117	2
162	162	11
88	88	5
75	86	2
22	109	2
109	109	1
172	187	3
94	109	2
189	189	9
158	158	2
60	61	1
21	21	6
132	156	3
193	193	3
172	173	4
39	42	2
7	182	1
156	166	1
138	149	2
175	175	2
193	194	4
134	135	2
67	67	1
69	69	3
173	173	3
31	183	2
112	123	1
2	3	4
108	109	1
137	137	2
118	118	3
180	183	2
34	35	5
87	123	3
171	171	4
188	190	2
122	122	2
82	85	1
29	29	1
0	1	2
96	157	2
41	41	4
135	136	3
136	149	2
167	167	3
136	172	1
87	120	1
94	167	1
34	34	1
103	104	1
142	158	4
0	87	2
118	120	2
11	17	3
125	125	1
77	77	2
88	89	9
106	106	7
62	62	1
145	145	3
35	35	4
0	0	4
48	48	9
128	142	2
66	66	1
41	44	2
104	145	4
183	191	1
147	183	1
84	160	2
105	107	2
144	145	4
67	76	3
30	31	2
158	162	2
62	63	1
188	188	6
8	64	3
149	155	3
79	79	2
39	125	2
43	44	2
30	112	3
19	20	1
4	4	2
44	142	3
121	121	3
37	37	4
120	122	1
38	39	2
21	24	2
165	169	3
75	175	1
165	179	1
195	196	1
5	9	1
87	87	1
19	21	1
149	196	2
25	27	5
131	142	1
168	171	2
7	62	3
99	99	2
34	140	3
164	165	2
185	185	2
133	133	3
150	150	3
131	140	1
132	179	1
33	34	2
153	153	1
86	87	2
150	168	1
152	153	1
13	110	3
55	55	3
20	22	1
30	33	1
136	170	2
156	157	3
24	180	2
109	110	1
21	70	2
37	48	1
152	152	2
139	139	1
157	157	3
192	193	1
140	140	2
132	133	2
146	174	1
97	97	1
190	192	1
160	161	2
83	83	2
58	59	2
35	41	2
22	69	1
162	163	1
123	123	1
111	112	1
181	182	1
89	89	2
36	37	2
16	18	1
129	129	2
159	162	3
146	158	1
64	65	2
155	156	1
94	95	1
20	111	1
66	76	1
22	36	1
173	174	2
86	86	1
33	33	1
130	137	2
139	149	1
101	103	1
65	75	2
13	13	1
6	181	1
82	82	1
65	65	1
108	191	1
93	94	1
152	154	2
43	140	1
102	103	1
146	146	1
39	39	1
