72	72	17
7	54	1
56	56	38
65	65	8
65	66	10
61	61	12
89	91	3
91	91	19
101	101	24
94	121	2
82	83	14
25	25	12
107	107	15
15	15	12
76	76	25
104	105	10
59	60	2
22	23	1
83	83	19
94	94	12
70	70	27
71	72	2
79	100	7
104	104	9
19	20	6
94	95	6
69	79	6
90	91	14
100	108	5
80	80	17
93	123	2
48	48	19
117	118	6
60	61	7
14	14	5
74	84	5
78	97	2
4	5	3
14	15	2
113	113	15
99	99	18
44	44	20
5	5	2
45	45	31
84	84	11
111	111	14
24	24	28
89	89	7
85	85	18
78	78	12
74	74	1
20	20	16
127	127	15
126	130	9
44	58	4
6	106	4
120	120	18
122	122	12
29	30	7
3	4	5
89	120	4
125	125	16
121	121	10
19	19	12
133	133	5
53	53	21
69	69	9
8	8	9
12	12	11
39	39	12
91	92	6
9	9	17
63	63	25
17	108	2
73	73	21
81	81	9
64	64	13
3	17	3
11	11	6
49	49	31
93	93	13
128	128	11
84	130	2
110	110	4
103	103	24
25	47	5
114	114	18
0	1	5
40	40	15
44	45	8
60	60	20
3	3	21
97	113	5
79	80	3
102	102	14
124	124	10
50	50	16
115	115	14
87	88	15
114	119	3
124	125	4
31	61	1
42	70	2
40	42	8
106	109	3
15	20	7
10	10	12
66	66	8
105	105	27
108	108	12
18	19	6
38	39	2
38	38	10
95	96	2
29	29	7
124	130	2
118	118	22
88	88	11
38	40	5
73	102	1
46	46	14
0	0	1
7	22	10
55	55	11
97	97	8
47	48	7
8	9	5
18	108	1
43	43	7
86	86	10
59	85	3
31	32	4
97	130	3
39	40	10
64	65	2
13	22	1
116	116	7
50	51	10
62	62	18
20	65	1
75	81	4
63	80	2
115	130	1
95	95	12
125	126	10
58	62	1
5	7	1
68	68	10
1	2	5
18	21	5
62	63	11
45	46	10
129	129	8
114	115	8
83	84	3
22	54	5
52	53	7
114	130	1
54	54	23
106	106	7
90	90	13
67	99	1
1	1	17
89	94	1
128	131	3
126	128	2
28	28	7
61	66	1
19	22	5
52	52	9
34	38	3
2	17	3
98	98	12
23	23	2
61	92	2
85	87	1
59	90	3
82	82	14
13	18	6
75	86	4
112	118	3
17	17	4
0	4	3
41	48	1
114	116	1
4	4	11
120	121	3
119	119	13
87	87	10
78	80	1
40	64	2
70	92	1
34	34	8
5	21	3
9	10	3
32	32	12
27	27	11
78	79	6
105	106	4
117	117	19
67	68	8
67	67	12
91	109	5
49	50	4
115	116	6
27	40	5
2	7	5
18	18	4
40	44	1
74	75	7
51	51	9
47	47	11
79	79	16
96	96	12
101	126	2
51	55	2
119	120	2
21	21	18
100	130	2
85	86	8
59	61	10
42	42	15
98	99	10
58	59	18
115	126	2
26	47	5
132	132	7
43	44	7
22	22	7
126	126	18
117	129	1
92	92	18
95	111	1
68	72	2
71	71	5
17	33	1
93	109	1
84	85	15
111	120	6
100	126	3
100	102	2
19	23	6
92	94	4
25	28	4
6	6	7
91	107	2
112	112	9
97	117	3
77	77	12
26	26	5
75	78	3
73	108	4
58	58	11
25	26	8
16	16	22
4	7	1
126	127	3
98	119	2
68	115	2
109	109	7
64	72	4
45	58	1
102	103	4
41	41	16
15	17	3
130	130	4
14	33	1
119	130	1
112	114	2
33	33	11
62	83	4
15	32	1
123	124	5
7	21	2
68	122	2
89	92	3
11	19	3
129	131	4
83	119	3
51	52	8
42	43	4
13	13	10
53	54	7
39	44	1
39	51	1
7	7	7
5	6	5
40	45	2
28	29	3
129	130	7
115	129	3
85	106	2
1	19	2
123	123	6
67	73	3
45	71	4
37	38	1
80	81	2
29	31	7
9	122	3
2	2	21
75	76	2
69	115	3
115	119	1
72	77	4
84	86	2
72	73	7
106	116	1
8	13	3
16	19	2
60	103	1
132	133	3
63	68	4
131	131	9
115	117	6
41	47	2
50	122	1
12	13	1
109	110	2
106	107	2
0	94	1
118	132	1
78	87	2
86	87	4
70	72	3
47	65	1
31	31	1
2	3	6
118	119	1
94	96	1
47	58	1
101	127	3
11	18	4
52	56	1
104	107	5
62	103	1
12	18	4
22	86	1
100	100	10
111	112	4
79	97	1
127	128	1
79	89	3
49	53	2
77	78	2
10	54	1
98	126	1
56	123	4
66	68	1
72	99	2
45	47	1
76	93	1
75	75	9
102	113	1
117	119	2
76	77	2
53	106	4
103	107	4
21	56	1
100	103	1
113	131	1
11	107	2
122	124	1
40	41	3
131	132	5
110	111	2
37	55	1
5	13	2
10	11	4
116	125	1
120	124	1
1	25	1
38	43	2
100	118	2
43	80	2
114	117	2
57	57	3
130	132	1
88	95	1
44	48	2
88	89	2
64	73	3
11	25	2
92	95	2
60	92	1
2	5	3
107	108	2
79	83	2
121	123	3
4	6	1
27	54	1
24	26	2
71	73	1
0	5	3
99	107	2
55	56	1
125	131	2
20	62	3
28	34	1
24	25	1
26	28	1
94	110	1
40	49	1
113	125	1
113	124	1
99	100	2
78	81	2
81	82	3
33	38	2
15	16	1
11	12	1
11	32	1
89	90	1
109	111	1
50	67	1
111	125	1
104	117	1
102	104	2
42	55	1
95	105	1
102	118	1
26	67	1
73	74	1
97	103	1
13	15	1
26	42	1
119	128	2
1	27	1
113	129	1
122	123	2
38	55	1
53	76	1
14	48	1
10	106	1
114	129	1
88	92	3
90	92	1
100	101	1
70	71	1
24	34	1
96	97	1
60	81	2
93	106	1
5	8	1
12	21	1
67	74	1
100	104	1
109	120	1
4	16	1
76	82	1
12	108	1
17	18	1
81	105	1
4	8	1
