76	76	5
138	139	1
86	86	4
62	62	4
10	10	3
22	22	7
65	67	1
30	30	5
116	117	6
123	123	10
20	20	9
48	48	2
117	117	2
50	50	1
93	138	2
89	90	7
69	104	2
120	120	8
115	115	2
51	51	1
4	10	5
142	142	4
99	99	4
75	75	5
77	77	7
60	60	11
84	106	4
28	67	1
1	1	4
104	105	1
72	72	6
143	143	7
100	143	1
5	134	1
132	132	10
87	88	4
89	89	4
126	126	6
78	128	3
104	104	8
28	28	6
48	140	6
69	128	1
107	107	9
55	59	1
116	133	1
120	121	1
66	89	1
23	23	9
71	72	7
15	15	4
135	135	6
114	114	2
104	126	3
67	67	6
57	57	2
136	136	7
65	66	1
134	135	8
141	142	9
9	9	1
81	81	5
125	125	13
37	37	5
74	74	15
97	98	2
106	107	2
35	36	1
133	133	6
83	83	6
48	142	2
38	144	1
102	103	5
103	103	9
95	95	11
58	61	6
118	119	1
93	104	6
13	13	5
106	106	2
108	138	5
75	117	1
17	22	4
70	70	7
92	92	7
141	141	3
139	139	4
57	60	2
101	102	5
128	129	1
71	71	1
70	73	2
14	15	2
53	79	3
79	79	1
54	68	1
116	116	5
104	142	1
59	59	13
112	117	4
113	113	9
142	144	3
52	52	3
11	11	5
80	80	3
92	140	1
90	90	14
62	63	2
98	98	4
102	102	3
105	105	6
84	104	1
6	35	2
97	109	3
38	38	1
105	129	2
29	29	4
31	128	5
124	124	5
49	79	4
116	118	2
122	122	8
57	59	4
42	42	2
126	127	2
114	115	4
128	128	3
65	65	6
138	138	3
127	130	1
5	133	3
64	88	6
129	129	4
119	141	2
64	108	1
36	131	3
21	21	1
73	73	6
31	31	4
34	86	2
58	133	2
109	109	4
63	63	3
27	27	4
78	78	1
23	33	1
54	54	6
74	81	3
96	96	5
40	40	6
125	129	2
130	130	7
105	106	3
118	118	7
16	17	1
77	80	1
91	110	2
54	58	5
34	35	1
29	48	2
40	41	4
9	10	6
3	3	2
84	85	4
105	119	1
127	127	4
137	138	4
5	48	1
11	29	1
127	136	1
40	74	2
96	134	1
111	112	1
6	6	1
53	53	5
86	108	1
120	124	1
34	34	5
3	36	1
43	47	1
39	39	2
2	4	1
87	142	2
128	130	1
144	144	3
87	89	1
118	135	1
110	123	3
125	133	2
16	26	1
19	20	1
17	17	1
109	110	5
3	4	1
75	76	2
32	32	3
100	100	3
23	24	1
73	83	3
88	88	4
136	137	4
124	125	3
24	24	2
8	8	3
48	64	1
62	144	4
111	111	4
49	52	1
133	135	3
33	36	1
112	113	3
97	137	2
4	4	3
112	122	1
119	132	2
25	25	1
33	48	1
103	126	1
126	128	1
131	131	5
53	116	1
62	90	1
99	112	1
32	34	1
19	19	5
8	38	2
42	144	1
121	121	4
75	125	1
130	133	2
110	110	4
36	38	1
25	32	5
55	56	3
2	143	5
49	49	6
66	66	3
2	3	2
21	22	1
137	137	5
93	93	1
88	89	3
72	106	3
99	118	1
136	138	3
93	94	1
60	62	5
84	84	2
97	97	3
82	89	2
110	122	1
64	91	1
39	41	2
73	84	5
32	124	1
66	91	2
17	18	1
33	56	1
145	145	3
136	139	1
123	124	1
20	24	3
38	50	1
83	85	3
77	115	1
94	94	3
101	101	3
58	58	2
117	118	1
68	69	1
139	140	2
56	56	2
105	108	2
1	33	2
108	108	3
105	127	2
4	135	1
64	85	1
5	5	2
69	69	3
4	17	1
119	119	1
55	131	1
54	63	2
112	123	1
70	71	1
34	47	1
35	47	1
64	106	1
30	31	1
99	109	1
60	78	1
65	86	2
12	12	2
58	59	1
12	14	1
29	65	1
5	60	1
82	82	2
22	23	1
55	61	2
33	35	1
86	111	1
0	0	2
97	132	1
66	67	1
89	94	1
59	112	2
132	135	1
26	27	1
86	88	1
28	29	2
57	126	1
101	104	1
33	34	2
4	5	3
36	78	1
43	110	2
118	120	1
94	142	3
123	127	1
115	118	3
124	127	1
57	58	1
62	64	1
96	137	3
68	68	1
106	115	1
110	141	1
52	53	1
43	43	1
56	93	1
100	103	1
68	103	1
99	120	1
39	40	1
101	144	1
109	118	1
104	109	1
79	127	2
31	32	1
73	91	2
61	61	1
89	140	1
14	16	1
40	116	1
59	60	2
13	17	2
38	95	1
95	135	1
1	32	1
0	31	1
85	85	3
135	136	2
36	36	1
2	39	1
1	31	1
76	78	1
54	57	1
5	58	1
85	105	1
80	81	1
35	35	1
30	58	1
40	52	1
26	26	1
83	111	1
98	110	1
91	91	1
66	108	1
16	16	1
25	26	1
111	140	1
6	21	1
109	111	1
