38	39	1
238	239	12
245	245	11
184	184	7
157	206	3
116	244	4
201	201	18
27	27	12
25	25	10
39	39	13
9	10	8
151	154	2
49	60	6
27	29	3
23	23	10
178	178	7
194	194	9
48	48	8
26	26	4
214	214	8
23	154	2
171	172	1
7	7	7
162	162	15
154	155	10
81	81	6
204	204	4
227	227	4
51	51	4
20	20	11
79	79	7
187	188	1
93	93	4
111	246	3
71	73	2
238	240	2
31	31	9
151	151	4
1	157	3
4	4	8
80	82	2
112	112	6
174	175	3
159	159	7
185	186	2
50	50	2
116	117	7
49	67	5
117	117	4
202	209	1
244	244	1
5	5	6
202	206	4
16	35	3
48	67	2
237	242	2
234	234	8
34	34	5
35	35	7
111	112	5
23	24	7
153	211	4
232	233	3
220	228	4
165	166	2
189	189	4
113	113	2
108	108	20
233	233	1
60	60	13
187	187	3
62	67	3
163	164	5
15	18	1
219	219	10
119	119	5
234	236	5
104	104	7
48	60	3
242	242	8
241	241	10
32	32	10
69	73	5
199	199	4
47	47	3
90	108	1
50	89	2
74	74	6
71	71	5
45	45	10
70	70	4
224	224	1
31	32	3
220	220	7
198	198	6
222	222	3
90	90	3
115	115	5
17	44	2
14	15	3
213	214	11
39	52	2
95	95	8
81	100	6
73	73	2
5	6	1
59	59	9
226	226	5
117	118	2
17	17	6
157	158	4
24	24	3
225	225	4
173	173	3
35	68	2
166	166	4
88	97	2
174	174	3
99	100	5
167	167	2
89	90	6
181	181	5
209	209	6
22	23	3
224	247	1
197	198	2
221	221	5
191	191	6
69	69	4
179	194	5
106	106	6
185	185	9
2	17	2
239	239	6
169	184	2
186	186	4
193	194	3
41	41	2
173	197	2
107	114	3
117	241	3
49	49	2
214	218	1
151	204	1
157	157	7
155	155	9
3	10	5
116	243	8
222	226	2
10	11	1
182	189	2
107	107	4
216	216	6
37	37	6
81	103	5
14	68	1
53	53	6
197	200	2
200	201	1
84	102	1
40	40	8
32	51	5
166	167	3
76	104	1
100	101	5
199	203	2
65	65	6
96	96	2
215	215	9
160	183	2
76	93	3
4	18	1
111	111	6
168	168	7
182	183	2
57	60	3
34	69	1
160	160	3
3	3	5
208	211	4
213	213	13
203	203	11
247	249	9
44	45	4
25	41	2
59	60	4
30	30	4
13	61	2
58	58	7
188	188	7
117	240	1
175	175	8
237	237	2
94	94	5
205	205	2
195	196	3
76	103	3
23	25	5
186	193	1
232	232	1
159	166	2
248	248	3
36	70	3
21	33	1
145	145	7
19	56	1
36	43	2
66	66	5
157	179	1
82	82	5
10	10	9
166	231	2
97	98	2
8	12	5
71	72	5
195	195	6
157	165	1
88	102	2
221	222	3
171	183	5
152	226	2
57	57	5
3	19	2
7	55	1
48	66	2
193	193	2
247	248	2
182	188	4
179	181	4
202	202	5
172	180	3
235	236	1
229	229	9
243	243	9
217	218	5
182	190	4
185	212	3
247	247	4
33	33	8
72	101	1
161	161	2
24	145	2
223	223	2
153	153	5
71	101	1
1	1	5
69	120	3
177	177	1
101	101	2
92	93	4
87	87	2
9	9	11
78	81	6
212	212	3
183	184	3
158	179	1
54	55	2
175	178	1
215	216	1
165	165	2
191	195	2
172	174	3
15	15	4
150	151	2
116	116	4
156	156	2
20	114	4
164	164	2
234	235	1
190	190	6
158	158	3
22	22	5
178	180	2
106	107	3
62	62	2
36	39	2
217	217	5
62	63	1
83	104	2
12	12	9
20	58	2
21	23	3
121	121	4
26	29	3
198	230	3
168	169	1
190	193	3
16	16	6
222	223	2
204	207	2
160	184	3
163	163	3
19	54	1
248	249	1
111	114	1
2	23	2
218	218	5
4	5	3
117	119	2
48	59	1
43	43	8
197	197	7
157	243	1
6	6	5
153	154	1
237	240	1
163	172	2
19	39	1
36	38	1
240	240	10
182	182	3
46	46	2
154	154	3
28	28	2
190	194	2
205	212	1
157	161	3
180	181	1
100	100	2
71	104	1
200	200	2
55	55	2
160	177	3
159	160	4
172	172	1
153	209	3
89	89	3
149	150	3
223	226	1
92	92	2
155	156	1
110	110	4
183	183	5
11	11	1
85	88	2
91	91	5
64	65	2
104	105	2
156	241	1
181	183	3
77	78	2
225	235	2
111	247	2
208	208	2
175	176	1
97	97	2
152	152	3
54	54	6
229	231	1
224	225	1
165	187	1
157	160	1
109	109	2
47	111	1
18	18	2
29	37	2
114	114	6
166	181	2
6	8	1
3	35	1
82	102	3
86	87	1
230	230	3
37	74	2
208	209	2
235	235	2
8	99	1
57	58	5
223	240	4
88	89	1
88	88	6
209	245	1
44	44	3
19	19	3
120	120	5
180	180	4
173	198	1
159	237	2
102	102	1
19	67	1
53	62	2
159	205	1
56	56	2
2	2	2
197	236	3
111	145	2
200	202	1
77	77	4
20	53	1
213	249	2
231	231	3
118	240	2
3	6	1
21	32	1
47	70	3
169	186	1
5	38	2
209	232	2
12	14	2
162	215	1
179	179	2
114	115	1
107	116	2
35	62	1
174	181	1
198	200	3
56	106	2
104	107	3
170	184	2
112	113	3
192	192	4
85	86	1
78	78	1
68	80	1
162	203	1
57	110	1
68	68	1
34	62	1
155	236	3
98	98	2
182	235	2
84	84	2
183	216	1
50	69	1
68	73	1
165	167	1
156	158	1
8	76	4
150	150	4
20	32	1
223	236	1
4	14	4
167	203	1
89	102	2
239	240	1
71	102	2
206	206	2
236	236	4
171	193	1
29	29	1
76	76	1
158	159	1
152	166	2
96	97	1
51	66	1
22	154	1
42	42	2
107	120	1
19	55	2
105	105	1
240	242	1
175	177	1
201	202	1
14	71	1
83	83	1
212	219	1
163	215	1
148	225	1
107	108	1
228	228	3
203	231	1
6	38	1
211	245	1
170	209	2
31	53	1
78	89	1
169	169	1
16	21	1
246	246	2
63	63	2
21	21	1
210	210	1
94	99	1
12	15	1
240	241	3
170	170	1
176	177	2
151	225	1
184	210	1
32	60	1
160	166	1
207	207	2
20	33	1
152	170	1
229	230	1
101	105	1
176	180	1
36	36	2
238	238	6
159	207	1
42	43	1
185	209	1
170	180	1
146	147	1
179	218	1
172	173	1
249	249	1
180	223	1
151	219	1
47	110	1
35	51	1
181	211	1
20	21	1
64	64	1
14	14	1
30	48	1
163	177	1
168	237	1
30	37	1
190	195	1
18	84	1
