30	30	21
94	94	13
173	173	5
44	44	16
135	158	4
39	40	7
28	29	5
45	54	3
128	128	15
78	144	1
154	154	9
56	109	1
85	85	5
26	78	9
84	85	4
26	26	20
93	93	4
11	11	14
27	28	6
16	16	28
118	126	3
30	41	3
25	25	15
22	22	18
150	150	8
2	3	4
10	115	1
71	71	6
24	24	12
156	170	3
5	5	30
83	83	4
148	148	9
88	88	5
152	153	3
171	172	5
174	174	10
52	52	5
126	126	14
41	41	22
173	174	11
36	127	4
10	14	5
162	162	11
87	87	10
111	111	9
3	3	20
179	179	5
127	127	8
38	40	4
95	95	14
130	130	9
116	116	8
10	35	5
53	133	4
76	76	6
28	40	6
67	71	1
74	74	7
14	16	5
142	142	12
168	168	5
56	58	2
36	36	17
40	53	3
36	38	2
178	179	7
55	89	8
1	1	10
93	94	3
17	24	1
117	117	18
170	170	18
73	73	20
57	105	4
167	167	8
177	177	6
43	43	16
8	8	9
108	108	3
37	37	27
136	136	8
153	158	1
27	43	4
133	133	11
103	104	7
11	14	1
161	162	5
2	4	9
86	88	4
172	172	7
112	112	5
57	64	3
11	12	6
166	166	23
158	158	10
116	117	8
12	34	1
161	161	3
4	4	23
140	176	5
126	130	3
67	67	8
22	24	3
147	147	11
3	8	1
18	19	3
81	81	4
145	145	11
178	178	13
39	39	12
132	132	6
165	166	7
10	11	7
101	101	9
113	113	7
17	17	11
54	110	3
53	53	5
38	38	8
13	13	14
90	92	4
102	102	5
33	34	1
7	10	10
28	30	4
7	7	27
147	150	2
21	22	7
14	38	1
79	79	9
87	88	1
120	121	1
104	107	2
140	140	20
5	6	5
97	98	3
141	141	7
62	113	5
18	18	5
89	89	11
146	146	10
36	37	9
61	84	4
10	10	16
124	124	4
32	32	28
27	38	3
77	77	6
39	43	4
119	122	2
9	18	3
14	14	12
79	123	1
35	42	4
143	143	8
12	12	14
96	96	6
37	43	4
15	15	25
125	125	4
110	110	12
56	56	18
0	0	5
11	15	1
110	158	1
59	59	6
40	40	15
103	103	10
2	2	17
164	166	4
123	125	1
64	64	4
21	21	15
26	28	6
155	155	7
30	42	1
67	68	3
60	142	2
115	115	11
42	42	6
131	131	4
144	144	3
151	151	5
6	23	2
57	58	7
80	80	9
78	141	2
81	89	3
26	76	3
91	92	10
91	91	7
130	170	2
117	126	1
62	62	15
31	31	9
116	166	6
28	31	1
153	163	3
147	148	7
70	71	3
20	20	5
117	157	2
88	89	1
15	30	4
12	13	6
16	38	3
8	21	2
19	19	17
44	45	6
114	157	3
41	42	9
16	18	3
142	144	1
169	169	9
139	140	3
51	66	1
128	129	4
78	139	2
143	170	4
55	55	6
10	143	7
159	159	6
6	168	6
153	153	14
131	132	10
34	34	6
87	125	2
17	19	2
30	31	11
102	105	3
54	54	11
114	114	18
29	43	3
150	151	8
82	83	4
56	176	2
26	27	2
176	176	5
104	104	9
73	98	1
88	94	2
57	57	4
64	90	2
43	44	6
101	102	2
177	178	2
51	51	2
1	10	6
33	33	13
91	95	4
61	61	2
28	28	5
157	157	18
116	167	2
123	171	5
38	59	1
107	107	4
22	23	5
26	162	1
54	79	2
106	106	5
22	30	2
11	23	5
142	143	3
13	127	4
78	80	1
118	118	6
72	147	1
25	26	8
137	137	10
40	41	6
55	176	2
160	160	11
83	84	3
18	20	1
40	168	1
152	152	6
118	162	2
171	171	7
55	57	1
99	99	5
139	139	11
2	12	2
11	27	8
110	178	2
63	65	4
71	72	1
42	43	2
82	124	2
102	103	3
54	70	2
92	93	6
27	27	25
35	35	9
2	10	2
135	135	8
26	161	4
24	25	1
23	25	2
4	14	2
9	9	7
20	21	12
72	77	1
11	42	2
66	66	2
123	124	3
96	97	1
131	149	2
156	157	5
18	22	2
24	27	7
119	119	8
33	37	1
57	176	1
92	92	6
58	58	2
90	90	8
121	129	3
29	29	10
52	53	1
31	33	7
35	43	3
8	10	2
35	40	1
85	98	2
99	101	2
126	141	3
60	60	3
32	39	4
123	123	3
109	109	7
121	150	3
18	21	2
85	90	3
37	38	1
18	35	2
104	105	1
89	97	1
5	11	3
17	25	1
102	104	1
130	150	4
25	27	1
58	123	1
165	165	3
144	145	2
23	30	3
43	61	2
149	149	12
36	118	3
121	126	2
90	95	7
68	68	6
19	29	2
24	26	4
138	138	2
132	133	2
77	78	1
148	149	5
45	45	4
123	140	1
151	152	2
141	151	1
35	41	3
160	162	4
6	13	1
38	125	2
118	135	1
142	145	3
7	25	2
19	22	2
73	75	2
153	165	3
6	6	9
154	158	2
19	77	1
163	173	1
156	156	4
66	136	3
25	29	3
86	89	1
32	37	3
10	26	1
10	32	1
152	158	4
100	100	10
4	9	6
5	16	1
50	98	1
97	97	3
24	39	1
107	109	1
53	54	2
117	127	4
61	63	3
136	137	2
96	98	4
85	86	1
83	85	2
96	155	2
66	67	7
95	135	1
76	81	3
134	134	4
140	172	2
72	72	4
163	163	3
115	157	3
108	170	2
2	33	5
155	156	3
3	18	3
9	12	3
7	15	5
78	78	3
168	174	5
143	144	1
17	29	1
84	84	1
159	162	1
6	25	1
158	159	3
13	14	5
32	36	5
3	4	8
62	71	2
173	177	2
50	51	3
87	136	4
88	180	1
54	57	1
36	39	1
8	9	7
86	86	9
121	121	5
163	168	3
15	16	3
29	37	2
135	165	2
63	66	2
118	163	2
98	98	6
3	7	1
24	44	1
10	12	1
117	135	1
19	20	4
88	100	3
6	11	4
105	106	2
102	106	1
43	106	2
26	31	1
23	23	9
86	136	1
58	65	3
61	112	4
121	131	1
29	31	1
62	63	3
77	139	1
59	60	1
21	43	1
66	135	3
29	32	2
113	178	1
14	32	1
5	150	2
5	7	3
60	72	1
13	45	5
41	133	4
81	82	4
164	165	2
71	124	1
26	33	1
26	35	1
54	103	1
2	11	2
1	2	3
73	144	1
49	49	3
114	123	1
32	34	3
11	115	1
41	160	1
7	17	1
92	95	3
123	133	1
8	35	1
169	175	3
23	24	3
143	145	1
8	145	2
79	80	3
63	63	2
70	70	1
124	125	2
64	102	1
11	19	1
40	42	2
115	155	1
13	42	3
113	114	4
7	20	5
12	43	1
14	31	1
82	82	1
99	111	1
19	38	1
115	154	2
43	133	1
162	168	1
24	30	2
6	15	3
76	166	4
21	31	3
80	146	5
75	138	1
1	30	1
159	177	1
0	1	2
114	135	1
122	125	1
117	129	2
39	141	2
135	136	3
161	180	1
134	135	1
13	15	3
5	35	2
175	175	1
23	43	3
151	156	1
15	17	2
65	174	2
134	151	1
121	122	1
35	38	5
24	34	1
159	161	3
2	45	1
116	118	1
61	147	1
7	9	1
130	162	1
120	128	2
114	121	1
103	105	1
14	21	1
40	163	1
34	35	2
11	113	2
164	164	4
4	18	6
63	147	1
29	30	1
13	22	1
31	38	2
5	12	5
17	18	2
88	160	1
78	123	1
7	8	3
159	160	2
145	146	3
161	173	1
122	124	1
58	73	1
2	9	2
174	175	1
34	38	1
42	44	1
117	161	1
12	68	1
23	31	1
82	87	1
175	176	1
130	169	1
86	87	1
128	170	1
144	151	1
142	153	1
106	109	2
80	81	1
59	141	1
74	102	1
117	159	1
49	51	2
49	50	1
52	133	1
24	36	1
153	157	2
41	161	1
111	158	1
89	90	2
104	110	1
17	91	2
8	11	1
107	108	2
175	180	1
65	65	1
17	43	2
14	27	1
112	120	2
61	62	1
106	158	1
1	14	1
107	112	1
12	113	1
19	21	1
52	179	1
10	17	1
77	137	1
13	21	2
4	19	1
105	105	1
26	61	1
7	12	1
68	91	1
31	34	1
147	149	1
24	31	1
67	124	2
74	139	1
79	89	1
56	64	1
129	129	1
17	32	1
73	74	1
