81	81	13
79	98	2
77	117	4
26	26	9
158	158	7
138	139	2
54	54	30
89	103	1
228	228	3
213	216	2
42	42	9
8	48	5
62	62	14
221	221	7
145	146	5
204	207	4
187	190	2
24	24	7
14	14	15
164	164	9
123	123	3
100	100	13
120	121	1
234	234	9
168	168	5
104	104	6
204	221	4
149	150	6
187	187	15
43	43	17
74	75	3
237	237	6
2	2	14
122	122	5
148	148	7
231	231	9
55	55	4
1	1	12
4	6	6
73	73	11
174	175	5
173	173	11
49	75	1
64	101	3
98	98	6
224	227	2
107	107	5
11	11	7
35	35	4
82	82	23
44	44	14
4	7	6
210	211	5
151	152	2
214	214	2
115	116	5
85	87	3
75	78	3
7	8	6
159	160	9
120	120	11
238	238	12
30	30	9
101	142	2
81	83	6
170	187	2
159	159	5
38	38	7
171	173	3
59	59	2
9	9	11
228	229	3
141	142	3
51	53	6
78	84	1
12	12	8
136	136	3
15	15	5
56	56	3
143	143	12
54	56	11
105	105	11
2	3	6
49	49	5
53	53	12
101	101	11
74	74	4
66	66	4
186	187	2
240	240	9
25	25	13
234	235	1
71	176	6
97	98	5
60	60	7
57	226	4
170	170	3
216	216	2
48	48	15
202	202	7
157	157	5
61	61	9
62	176	4
181	181	13
110	120	3
212	212	5
179	209	4
70	101	1
76	103	1
7	9	6
29	29	17
133	134	5
23	23	13
63	63	15
126	127	3
133	133	2
121	121	6
189	197	5
112	112	4
7	7	5
20	20	5
47	47	12
196	196	12
30	38	1
149	149	6
110	110	4
21	21	10
22	23	6
210	210	8
86	86	11
194	194	6
191	191	5
99	99	7
226	227	2
235	235	6
70	175	2
31	186	1
146	146	5
77	78	2
57	199	1
77	77	4
135	136	3
9	46	2
140	140	4
36	36	14
142	143	2
52	53	4
102	102	9
68	113	2
6	12	2
200	200	8
5	5	9
169	169	2
29	211	3
150	150	4
206	206	11
105	122	2
230	230	4
31	31	4
219	219	6
185	185	5
106	106	9
32	32	7
171	171	3
14	163	1
130	130	3
177	180	3
25	38	2
8	14	2
79	115	3
177	177	12
13	13	7
178	178	6
155	155	12
32	33	2
4	4	13
125	125	8
224	224	6
189	189	8
0	22	3
209	213	1
41	41	9
218	218	5
10	74	5
109	110	5
75	75	4
232	232	5
187	188	1
63	141	4
66	67	5
172	172	4
40	40	6
215	216	2
61	62	4
20	35	1
128	128	4
33	34	3
207	220	5
47	55	4
161	161	13
98	170	3
176	176	4
56	91	2
223	223	14
78	78	1
7	40	1
17	22	3
144	149	2
79	79	11
0	1	9
184	185	3
136	137	6
100	102	7
67	67	5
71	73	1
213	215	2
37	59	3
51	51	5
118	118	2
186	186	4
208	230	1
31	42	1
208	209	1
174	174	3
171	172	2
8	18	1
175	175	10
197	197	6
139	139	7
20	40	1
1	23	1
183	187	2
59	60	3
152	152	7
72	175	1
101	102	2
214	216	1
119	129	1
18	23	1
143	147	2
16	16	3
201	201	12
106	118	1
4	31	3
37	37	3
27	27	8
137	137	2
180	181	1
45	45	3
215	217	2
180	180	3
23	40	3
159	161	1
5	40	4
50	50	6
29	213	1
16	20	1
175	176	3
55	56	4
241	242	1
19	20	2
18	18	3
213	218	4
195	195	8
123	130	2
12	17	1
80	124	6
204	225	4
26	27	1
20	23	7
194	197	2
176	187	5
85	86	3
62	63	3
119	119	6
133	135	2
1	13	3
34	34	6
128	143	1
135	135	5
83	83	4
54	55	9
206	220	5
144	146	2
57	78	3
188	223	5
220	220	2
22	22	6
100	103	4
95	116	2
183	183	12
125	127	1
6	13	2
97	174	1
65	68	4
117	117	2
165	165	6
162	171	2
189	212	1
4	81	1
37	38	4
44	237	3
68	70	1
166	213	1
227	227	9
126	126	6
68	68	5
97	97	4
184	187	4
1	17	2
50	58	2
31	213	1
28	28	4
214	215	10
227	228	6
206	208	4
163	163	2
138	138	3
42	43	3
190	222	3
95	105	4
226	226	7
96	96	3
19	19	6
28	29	5
193	193	4
182	183	2
85	85	11
60	65	1
11	12	3
185	186	10
25	26	2
14	15	3
3	14	4
34	38	7
88	89	1
75	80	2
46	46	4
13	17	2
56	57	2
34	61	1
80	84	2
2	29	2
99	100	1
122	125	1
180	183	3
199	199	2
91	91	1
149	152	2
229	229	6
179	179	5
46	47	1
66	100	2
6	6	3
8	59	2
32	60	1
15	16	1
34	60	1
167	167	2
68	91	3
203	204	1
65	65	3
14	17	3
124	124	3
121	124	2
104	108	2
37	157	1
240	241	2
0	0	6
162	162	2
108	108	2
1	3	1
47	202	1
178	179	1
39	39	3
177	185	1
8	8	4
209	209	3
179	181	1
84	126	6
123	127	1
88	88	3
107	116	4
155	190	2
87	122	2
107	117	3
8	9	1
9	67	3
35	36	4
169	170	3
154	155	1
71	71	6
0	23	2
52	52	5
148	164	2
17	17	3
220	221	3
187	211	3
205	205	1
103	105	1
24	25	3
11	16	1
10	14	1
241	241	11
77	110	2
34	37	2
58	59	2
142	142	1
62	202	2
12	167	3
225	225	1
120	126	1
57	57	7
78	79	2
104	119	1
4	22	1
165	176	4
3	3	1
2	14	2
16	17	3
8	17	1
164	165	2
98	99	1
29	185	2
101	109	3
137	138	3
103	103	2
38	39	1
100	142	2
43	44	4
205	206	3
19	40	1
236	236	3
154	154	4
187	189	2
81	82	3
73	74	1
172	173	1
114	114	3
194	198	4
10	11	1
143	153	4
50	55	1
28	58	1
82	83	4
181	182	8
58	78	2
40	80	1
156	156	7
238	239	2
7	39	2
3	22	3
194	195	1
104	110	2
9	14	1
39	230	1
20	21	3
18	19	9
207	222	1
7	58	1
184	184	1
58	58	2
48	63	2
7	59	1
123	129	1
3	42	2
203	203	3
166	181	2
30	31	1
78	83	3
15	23	2
136	138	2
48	54	1
72	72	6
57	58	1
2	40	1
72	97	1
56	201	1
35	40	2
49	50	5
69	69	6
192	193	1
70	70	1
239	240	4
206	223	2
48	55	1
108	124	3
208	231	1
14	34	1
77	79	1
29	30	2
4	5	2
5	14	1
169	187	2
81	84	1
166	166	1
190	191	2
71	174	2
78	82	3
64	64	4
122	128	5
91	103	1
31	168	1
99	178	1
151	151	4
78	81	1
117	118	1
18	22	1
99	103	1
160	160	5
44	211	2
42	209	2
5	34	2
39	202	4
6	16	2
30	217	1
186	217	4
31	59	3
140	143	1
10	10	3
59	78	1
156	189	1
5	7	1
242	242	7
163	170	1
134	134	3
173	174	2
183	185	1
125	126	1
215	215	1
133	143	3
159	163	1
205	209	1
188	188	2
103	115	1
84	84	2
138	142	1
131	131	3
57	81	1
43	98	1
207	208	1
99	101	1
35	41	2
191	201	2
18	20	3
43	97	1
78	110	1
147	148	2
75	77	6
71	72	1
97	101	1
177	184	3
50	157	1
82	84	1
16	34	2
46	135	3
106	114	1
153	154	1
156	157	2
141	141	1
27	242	1
171	174	3
47	201	1
204	204	2
64	100	1
125	144	2
111	112	1
95	96	3
44	45	3
109	109	2
44	70	1
3	21	1
65	72	1
213	213	1
2	6	2
211	211	2
59	79	1
210	212	5
29	42	1
102	103	2
165	213	1
5	6	3
222	222	2
225	230	1
190	190	1
96	105	1
13	35	2
16	18	1
12	16	1
231	238	1
121	122	4
2	15	1
116	116	1
239	239	1
76	77	1
148	151	1
134	135	1
18	21	1
137	139	1
104	117	1
156	158	1
13	14	1
19	216	1
19	32	1
58	81	2
68	88	1
209	210	1
80	80	1
8	33	1
63	197	3
58	99	4
70	176	1
69	100	1
135	143	1
111	111	1
9	161	2
208	208	3
105	129	1
7	29	1
153	153	2
145	154	1
3	23	2
136	182	2
50	63	1
11	44	1
110	122	1
6	17	1
225	226	1
51	52	2
199	206	1
5	41	1
199	223	1
4	58	1
80	83	1
147	147	2
11	69	2
145	145	1
4	228	1
207	207	1
178	213	1
69	73	1
163	213	1
127	144	1
82	85	1
37	158	1
146	147	1
69	70	1
144	145	1
56	226	1
98	108	1
165	166	1
36	37	1
178	181	2
9	39	1
78	107	1
67	88	1
198	204	1
30	218	1
98	178	1
21	22	2
198	198	1
6	81	1
59	89	1
122	127	1
156	159	1
