112	112	5
105	105	14
20	20	4
58	64	5
64	65	4
2	11	2
62	62	4
23	92	3
88	88	4
27	27	1
48	114	4
36	36	8
16	24	1
30	32	2
82	82	2
93	115	1
35	35	5
85	120	6
105	120	3
43	90	3
101	102	2
53	59	1
37	37	2
88	111	1
54	54	5
78	78	6
132	132	6
124	124	7
33	43	5
56	56	3
60	69	1
60	60	9
62	101	1
95	120	3
119	120	9
71	105	4
101	101	13
121	123	2
124	125	2
72	72	3
13	13	8
90	92	2
119	119	5
87	127	1
115	115	6
116	116	4
44	44	10
65	66	4
3	3	6
71	71	16
114	114	7
74	74	4
105	116	4
87	87	2
100	101	3
110	111	5
128	128	8
33	34	5
134	134	14
75	108	1
87	107	3
125	125	6
127	127	7
84	84	6
61	81	3
57	58	1
122	122	3
106	108	1
95	118	5
60	93	1
50	107	2
53	58	3
111	111	8
90	94	1
108	109	2
6	8	3
26	26	2
54	55	2
8	8	2
100	100	9
67	67	5
129	130	3
97	125	5
92	124	4
10	10	2
62	64	3
45	45	9
3	6	1
91	91	9
22	22	6
107	107	4
53	53	8
1	30	2
80	80	1
73	104	1
108	110	5
63	64	4
52	59	2
55	82	2
78	84	1
104	115	1
22	23	1
64	64	4
76	76	12
98	98	2
63	63	7
31	32	2
49	49	3
83	84	3
73	112	3
33	90	5
97	100	2
109	130	5
28	28	5
99	99	8
3	112	1
95	96	1
90	90	4
94	94	7
78	82	3
117	118	1
111	133	4
129	132	1
110	110	1
31	31	5
58	59	2
129	129	6
2	3	3
126	127	3
103	103	8
61	61	4
87	88	1
34	34	3
120	121	3
109	109	2
52	54	2
82	83	3
86	87	2
104	114	3
95	102	2
99	100	2
53	81	1
52	53	1
75	75	7
104	124	2
118	118	3
68	68	1
106	111	1
102	123	3
29	30	1
12	12	2
56	57	2
69	88	1
118	132	4
92	92	6
77	77	2
52	81	1
43	43	4
102	102	2
98	99	2
97	124	2
112	113	1
76	99	2
14	14	1
59	112	1
69	69	2
60	81	2
67	69	3
97	97	7
95	95	4
78	106	2
98	101	1
54	56	2
23	24	1
68	77	2
33	33	3
125	126	4
52	52	2
73	73	10
86	129	1
106	107	4
121	121	2
77	78	1
69	85	1
131	131	4
37	44	1
101	105	2
16	25	1
75	89	2
106	106	4
92	99	2
16	92	1
17	17	2
105	130	1
87	113	2
105	106	2
70	70	4
1	1	3
86	113	1
116	118	2
79	80	2
97	109	3
79	107	1
92	93	4
50	52	3
6	6	2
126	126	5
17	21	1
11	37	2
117	119	2
102	119	2
30	30	2
9	9	2
97	110	3
63	81	2
76	90	1
104	105	1
5	5	1
25	25	2
130	132	2
120	120	2
85	114	2
38	38	2
38	53	1
15	25	2
44	91	1
115	116	2
71	73	2
106	120	3
78	107	1
83	83	1
53	113	2
116	123	2
116	130	1
65	69	1
117	117	2
86	86	1
29	29	1
16	16	1
42	42	1
133	133	1
57	57	1
105	107	1
135	135	1
93	93	2
73	74	1
57	77	1
42	43	1
18	23	1
111	132	1
4	4	2
101	103	1
75	76	1
75	104	1
55	55	1
35	43	1
32	32	2
83	128	1
59	59	1
79	79	1
111	112	1
62	63	2
62	89	1
35	81	1
21	22	1
85	85	2
97	102	1
104	104	1
28	33	1
7	8	1
24	24	1
121	122	1
7	11	1
16	21	1
93	94	1
