75	76	8
9	9	10
1	1	10
44	47	3
31	31	13
3	3	15
19	19	8
48	51	3
10	10	20
75	75	13
2	2	20
4	4	9
32	32	10
0	0	4
27	27	10
53	53	10
52	52	8
8	8	8
7	7	13
23	23	10
5	5	8
36	53	1
74	74	6
20	20	15
25	25	10
60	61	4
13	13	9
7	77	2
56	56	4
22	22	8
49	51	4
13	14	1
56	57	1
26	26	15
22	23	9
30	53	6
62	68	4
65	65	6
29	30	2
37	37	7
5	6	4
59	59	5
4	22	4
71	71	7
63	76	1
42	42	2
36	37	3
8	22	1
33	33	2
25	28	1
69	71	5
11	11	10
28	28	3
70	71	4
50	50	5
60	60	13
8	20	1
13	28	1
35	35	8
49	49	6
6	7	1
7	8	8
29	32	3
18	18	5
63	63	5
19	20	2
38	39	1
68	69	6
58	68	1
30	48	2
33	57	4
2	13	4
57	57	5
31	54	1
21	72	1
41	41	3
43	44	7
39	40	1
44	44	6
47	51	1
73	76	2
28	41	1
71	72	2
21	21	3
51	70	2
34	38	2
34	41	3
35	54	2
22	39	3
46	46	9
34	50	4
64	64	5
40	51	1
50	51	6
22	29	2
37	38	8
61	61	4
39	39	3
30	30	6
1	24	2
8	21	3
34	34	2
0	1	2
31	52	1
24	24	15
28	29	4
51	51	4
6	6	8
72	72	2
40	40	12
67	68	2
48	49	3
58	58	4
30	54	2
73	73	3
57	61	1
73	74	3
31	32	1
20	21	1
32	38	1
65	66	2
69	74	1
2	6	1
46	52	3
8	9	1
23	24	1
76	76	4
49	50	3
47	50	1
36	69	1
48	48	1
23	37	2
66	66	6
18	19	3
14	14	1
73	77	1
29	29	6
33	51	2
62	62	1
4	50	5
12	12	5
74	75	1
25	26	1
54	54	6
55	55	2
34	51	2
18	38	1
2	77	4
8	19	3
30	31	3
24	25	1
10	11	3
7	22	1
41	42	7
29	52	2
36	72	2
68	73	2
28	31	1
69	69	2
31	39	2
34	39	2
61	70	2
48	57	1
58	65	1
47	49	1
45	45	8
47	47	4
72	73	1
3	43	4
34	37	1
36	36	3
27	28	1
24	27	2
3	4	3
26	27	5
57	58	1
37	51	1
3	44	1
30	32	1
9	10	1
70	70	2
37	64	1
32	47	1
42	63	2
13	25	1
9	20	2
38	38	3
30	35	2
43	43	6
71	77	1
59	60	3
46	70	1
51	71	2
52	53	1
58	59	2
21	22	2
22	30	1
21	55	1
63	64	1
68	72	1
58	60	1
1	37	3
60	77	1
41	53	1
35	69	1
51	52	1
39	61	1
68	71	1
34	44	1
35	40	1
13	42	1
