39	39	14
45	46	4
34	34	15
41	42	6
88	88	2
11	32	1
39	47	3
100	100	11
56	56	6
16	16	13
76	76	7
129	154	1
47	47	13
68	68	16
107	107	13
44	44	14
87	87	3
108	108	6
42	43	8
13	13	8
142	142	6
22	24	6
27	27	7
11	12	6
10	11	5
40	41	1
117	117	9
49	49	9
66	67	3
100	147	1
4	4	19
12	32	4
66	72	1
8	9	4
20	20	9
17	18	1
139	139	6
79	79	7
24	24	16
142	143	7
73	73	15
27	29	6
41	54	3
105	114	1
55	56	5
9	36	1
46	46	17
38	38	14
11	11	11
144	145	3
148	148	6
17	17	9
68	69	2
146	146	12
85	85	11
49	53	2
62	62	7
149	149	3
37	38	2
48	48	6
43	44	4
81	81	3
63	70	2
91	91	5
151	151	9
22	23	3
114	114	2
74	74	9
78	78	8
68	75	1
115	115	5
141	141	5
116	149	4
95	95	9
72	73	2
113	114	2
30	31	2
124	129	2
118	118	5
71	71	9
22	22	8
84	84	13
14	50	1
63	73	1
29	30	2
36	36	10
121	121	6
70	70	7
126	127	4
43	43	6
83	83	5
75	75	1
5	22	1
102	107	3
76	94	2
149	152	1
55	57	2
63	63	6
64	74	2
84	86	1
40	40	13
69	70	2
10	10	6
94	96	4
131	131	9
150	150	3
87	88	2
75	78	2
98	151	1
28	28	8
119	120	1
72	72	4
147	147	10
66	66	3
14	14	10
94	104	3
57	57	2
146	150	2
126	133	2
144	144	6
101	101	6
14	45	1
73	74	2
80	83	6
120	133	1
69	69	10
30	30	6
67	67	4
14	34	2
41	41	5
26	26	7
129	132	2
112	112	12
43	56	3
126	126	6
86	94	1
63	64	2
37	69	2
42	42	8
12	13	1
78	79	5
61	86	2
94	95	2
82	84	3
82	83	5
147	148	1
136	137	1
67	93	2
154	154	12
96	96	8
44	47	1
2	4	3
35	36	2
94	99	9
79	93	2
92	95	3
62	74	3
50	50	5
136	136	3
39	42	4
62	93	6
6	6	7
20	21	3
126	128	2
31	31	8
29	37	1
96	97	6
4	5	1
140	144	4
2	2	2
65	65	11
54	54	8
35	35	3
12	12	5
106	106	4
67	68	3
79	85	1
7	7	5
55	55	9
92	131	2
51	51	3
119	119	5
131	132	2
97	97	4
18	18	8
64	80	1
86	86	7
87	97	3
81	82	2
25	25	8
9	9	9
86	87	4
120	127	3
150	153	1
125	137	3
6	7	2
124	137	1
28	30	1
142	145	2
15	20	3
85	98	1
5	5	5
64	64	7
82	82	2
39	54	1
133	134	3
7	33	1
3	3	5
122	128	1
132	132	3
139	145	2
50	52	2
134	134	4
77	77	15
16	45	4
13	54	2
2	3	2
51	55	1
64	72	1
22	27	2
93	93	9
96	114	1
120	124	2
63	80	1
65	66	11
101	137	2
86	102	1
105	134	3
68	87	1
33	33	3
125	125	5
26	57	5
45	45	6
140	145	1
32	33	1
74	84	1
129	134	3
41	43	1
77	78	3
76	77	5
38	40	2
89	92	2
122	122	2
121	124	1
85	86	1
19	19	10
53	53	9
21	21	5
108	127	1
123	123	4
116	116	2
23	24	4
152	152	2
64	65	3
120	120	9
110	110	1
37	37	9
145	145	10
138	139	1
69	71	2
97	101	4
15	15	3
25	29	5
137	138	3
99	149	1
24	33	2
26	27	3
25	58	2
99	114	2
62	66	1
123	125	4
137	137	7
108	143	4
23	23	3
18	19	2
102	106	2
61	62	1
152	153	1
140	140	1
103	103	3
111	112	4
12	41	2
150	152	3
47	52	2
79	86	1
50	51	1
97	127	3
129	129	3
5	82	2
144	150	1
69	75	1
82	93	1
16	17	3
108	110	4
80	80	2
120	122	6
3	25	2
21	23	4
111	111	3
64	66	1
124	125	7
39	90	1
94	94	4
24	26	1
115	116	4
122	149	2
132	135	3
39	40	4
11	13	2
32	34	2
27	28	5
74	85	3
109	109	4
107	138	3
66	86	1
37	92	3
145	146	2
25	62	1
71	75	1
70	78	1
105	105	3
33	34	1
100	136	1
65	87	1
143	143	2
48	54	1
93	97	3
29	32	4
103	109	4
19	20	1
16	21	1
53	54	1
109	146	1
13	51	2
42	55	1
29	67	1
75	76	2
32	32	3
4	26	2
75	79	2
13	40	2
131	136	1
105	108	2
37	58	2
12	31	1
141	142	1
5	6	8
27	37	4
99	99	4
41	48	1
92	93	1
51	53	1
73	88	1
21	76	3
10	14	1
102	102	2
7	77	2
103	145	3
131	135	2
80	81	3
104	104	3
109	113	2
130	130	2
8	8	4
3	4	2
115	117	1
70	74	2
88	89	1
135	135	5
118	133	1
8	25	2
7	8	2
27	39	1
122	148	1
28	37	4
82	94	1
109	112	2
127	127	3
153	153	2
39	132	1
45	52	1
12	29	2
141	146	3
97	104	1
10	30	2
25	26	1
95	96	2
23	32	3
119	150	1
19	21	3
128	154	2
98	99	1
80	84	2
70	73	1
29	29	3
94	114	1
124	127	2
4	22	1
101	102	1
120	121	1
138	138	6
113	113	2
106	108	1
126	151	2
34	35	2
97	122	1
140	142	1
101	108	2
94	112	1
70	76	1
62	64	2
6	74	1
12	34	1
13	14	1
41	53	1
118	119	1
110	113	1
119	128	2
22	40	1
103	104	1
123	124	1
107	108	1
78	94	1
15	47	1
41	44	1
26	37	1
81	83	2
24	34	1
13	17	1
98	122	1
54	55	1
15	36	1
19	22	1
27	32	1
31	32	2
18	21	1
63	123	2
30	72	1
31	46	2
15	17	1
87	93	1
127	128	1
5	7	1
47	48	1
117	149	1
100	104	1
130	132	1
65	67	1
68	78	1
3	5	1
15	46	2
127	132	1
123	129	1
133	133	1
109	114	1
124	124	1
112	113	1
62	63	1
135	139	1
11	14	2
128	128	1
14	15	1
130	140	1
4	6	1
124	126	1
1	49	1
121	126	1
69	76	1
7	49	1
66	88	1
