42	43	8
78	78	32
15	16	11
56	56	43
20	21	2
74	74	17
60	61	6
37	37	23
8	45	6
40	40	38
51	51	17
71	71	21
28	28	35
5	6	11
7	16	2
41	41	44
69	69	25
34	35	11
76	76	20
9	46	3
16	16	17
32	33	12
27	27	20
26	64	1
14	15	8
66	66	26
48	48	40
70	70	26
2	10	5
29	42	7
73	73	41
27	28	8
38	38	25
3	3	20
29	29	14
70	71	13
65	65	27
50	50	7
10	12	5
30	30	16
13	14	19
11	50	1
32	32	20
68	68	15
63	63	21
10	10	17
70	80	2
42	42	45
15	15	13
35	35	35
26	26	14
11	11	12
58	58	16
31	31	21
19	19	34
64	64	27
49	51	3
49	49	29
38	41	3
53	64	1
31	32	16
45	45	22
67	71	5
52	53	7
27	29	2
61	61	39
46	46	31
39	39	22
59	59	21
7	7	30
3	4	3
2	2	26
18	18	13
53	68	2
66	69	2
55	55	30
77	77	27
21	21	12
6	6	18
57	57	38
48	49	9
20	20	12
47	47	38
2	57	1
53	53	10
38	45	3
2	4	3
4	4	36
8	10	1
55	58	2
80	80	44
36	36	17
52	54	7
71	80	5
25	25	9
64	65	11
42	60	2
33	33	16
52	52	8
60	60	11
1	1	17
57	58	3
16	18	2
53	66	4
69	70	6
72	75	2
13	13	13
72	72	16
5	47	2
5	5	17
56	80	4
9	16	2
75	75	20
12	31	5
18	35	1
65	69	3
9	14	3
0	0	25
46	47	11
38	39	7
45	47	1
78	79	2
58	59	8
11	31	1
19	20	8
9	15	1
65	67	4
28	65	6
57	62	5
68	70	1
79	79	16
73	74	15
12	12	8
50	51	7
0	1	5
34	36	6
63	64	9
58	68	4
27	41	5
34	56	2
17	17	18
34	34	12
41	42	6
50	52	5
43	43	2
54	55	2
18	46	1
62	64	5
75	77	12
4	9	1
52	70	1
10	21	1
3	48	1
72	73	6
9	10	1
8	8	18
49	50	7
75	76	3
54	54	15
71	72	11
66	68	2
7	8	7
62	63	2
68	69	3
17	36	3
37	38	7
9	9	13
51	67	3
37	39	7
37	61	5
67	67	19
53	54	6
40	41	3
15	25	2
57	81	3
26	30	4
62	62	19
59	60	6
33	35	1
28	29	4
11	63	2
58	62	2
73	76	4
31	51	1
51	71	4
40	42	2
46	48	3
68	72	2
34	37	1
41	73	2
43	44	2
80	81	5
8	9	3
66	67	5
14	66	1
17	79	1
12	30	2
50	71	2
10	31	1
53	70	1
7	33	1
19	27	1
26	27	5
14	14	13
67	68	8
67	70	3
39	40	4
65	71	2
29	41	1
41	80	1
0	5	2
13	16	2
49	54	1
51	52	6
36	78	1
1	2	4
70	72	3
59	62	1
1	28	1
59	69	2
61	75	2
73	79	1
25	26	7
44	44	6
9	33	2
7	15	1
55	56	4
28	64	5
12	63	1
10	11	1
55	65	1
15	54	1
16	17	4
2	6	4
45	46	6
67	69	2
29	30	3
12	33	2
9	29	1
47	48	1
74	76	2
9	26	3
41	67	2
9	17	1
11	15	4
26	28	1
81	81	4
51	70	1
44	45	2
25	54	4
33	34	1
8	19	1
37	58	1
6	7	1
19	21	2
71	77	1
57	59	2
54	66	1
36	62	3
3	36	1
72	76	1
64	71	2
21	34	3
2	3	2
74	77	1
3	6	2
0	73	1
0	35	1
29	35	1
64	66	1
63	66	1
28	36	1
49	68	1
30	33	1
77	78	1
10	30	3
52	61	1
75	78	1
1	65	1
15	37	1
58	70	1
35	58	1
10	33	1
19	29	1
36	37	1
17	76	1
51	53	1
17	75	1
17	35	1
30	35	1
1	10	1
