159	161	1
123	123	8
167	167	4
210	210	4
167	178	1
190	191	5
20	20	9
234	235	3
230	231	1
75	81	4
163	163	3
37	37	4
185	186	2
17	17	3
85	85	7
217	217	12
65	67	3
41	42	5
1	1	6
211	211	7
125	125	6
140	142	3
137	140	4
219	232	3
151	151	5
196	196	7
166	166	1
35	35	3
67	69	2
0	0	4
12	12	4
27	28	5
158	174	3
109	109	12
193	193	3
77	77	8
72	72	3
133	133	4
5	7	1
149	150	3
235	235	6
34	35	2
31	31	6
50	51	2
57	57	5
97	97	5
61	61	6
158	158	4
58	60	2
211	212	1
83	83	1
227	227	4
14	16	3
23	23	10
143	144	3
60	60	11
162	162	3
63	64	6
107	108	5
16	16	5
54	55	7
208	208	6
18	18	9
76	77	2
57	59	8
202	202	6
172	172	3
158	159	10
177	178	3
166	205	2
81	82	5
73	75	2
43	43	5
26	26	5
203	203	3
46	102	1
74	74	13
230	230	4
50	50	2
191	191	8
214	217	3
111	111	2
212	217	1
242	242	7
61	62	2
58	58	3
129	129	2
27	27	4
147	147	2
241	241	6
33	33	3
159	165	2
201	201	3
238	238	3
182	182	8
140	163	3
3	3	5
220	221	2
7	8	1
1	25	2
145	146	3
39	48	2
215	215	3
201	228	2
28	28	4
80	80	4
121	121	1
7	7	10
194	196	2
91	91	5
67	67	17
155	155	5
11	23	4
28	29	3
159	160	2
41	41	9
185	187	4
214	215	2
13	13	4
17	20	3
73	74	9
142	142	14
219	219	3
143	143	3
217	218	8
177	177	2
139	139	3
128	133	4
168	168	4
121	122	6
78	79	11
214	218	2
130	130	4
221	222	2
189	190	4
48	48	5
70	70	13
56	56	4
170	172	4
28	198	9
225	225	3
64	64	6
232	233	10
11	11	4
160	160	3
71	72	4
186	186	7
187	188	3
17	18	1
15	15	10
139	140	2
2	2	8
184	184	8
18	19	2
236	236	4
36	36	2
200	200	2
53	53	4
145	145	7
25	26	5
32	32	5
52	54	2
192	196	2
82	84	1
232	232	7
65	66	5
205	205	4
104	107	7
152	152	2
168	171	8
194	194	1
125	157	1
78	78	2
52	80	3
29	29	5
193	195	1
187	198	1
135	135	9
198	199	1
188	188	10
31	67	1
99	100	6
185	185	2
39	39	4
46	46	5
34	34	5
117	118	2
19	35	1
44	44	2
100	101	1
161	161	2
40	92	1
66	66	7
154	154	3
187	187	5
137	137	3
144	146	4
199	199	4
40	51	1
39	46	1
24	27	6
213	213	4
14	18	2
97	98	1
139	147	1
71	71	3
205	206	2
193	235	1
57	58	1
181	181	5
131	131	3
20	213	2
101	101	1
99	99	1
39	43	2
192	198	1
15	23	2
130	131	2
228	228	2
195	205	2
197	197	8
153	154	2
114	114	4
81	83	3
133	134	2
11	16	4
178	178	1
102	102	5
198	198	2
103	129	1
40	42	5
12	22	1
165	165	4
169	170	5
75	105	1
19	19	6
38	38	2
183	183	3
115	129	3
141	141	4
34	88	1
145	154	1
199	218	1
110	110	2
153	153	3
174	178	3
22	22	6
65	65	3
43	56	1
79	79	12
21	21	2
120	121	1
214	214	2
162	163	3
134	135	2
64	65	1
106	129	1
240	240	1
101	113	1
193	194	2
221	223	4
11	14	1
95	95	9
131	132	4
65	68	1
28	85	3
227	228	5
14	14	1
96	97	2
2	3	2
174	174	1
75	75	2
8	8	3
23	25	1
120	123	1
20	25	3
66	68	1
5	15	3
115	115	1
105	130	2
71	85	4
69	85	1
59	60	5
192	192	3
6	6	2
175	175	5
52	52	5
199	200	2
173	174	1
116	117	3
182	183	4
47	47	5
20	36	1
151	154	3
176	176	3
119	120	1
173	173	6
237	237	2
200	219	1
179	179	2
100	100	2
25	25	4
30	31	4
161	178	2
77	78	4
195	196	1
204	205	1
233	233	1
86	86	2
10	11	1
155	156	1
14	22	2
43	44	2
156	157	1
167	168	1
234	234	3
150	152	1
225	227	1
117	117	3
132	135	1
7	18	1
168	175	2
223	223	3
81	81	5
37	48	1
137	138	1
34	36	1
51	51	2
66	67	2
240	241	3
56	83	2
26	27	1
40	40	2
124	125	1
212	212	2
63	63	3
224	224	3
172	173	1
150	150	2
202	233	1
33	34	1
30	30	2
4	4	3
62	62	2
21	22	2
224	225	1
4	5	2
10	19	1
80	81	2
82	82	1
45	45	5
170	171	1
146	146	3
9	9	8
148	152	1
235	236	1
159	159	3
113	113	5
103	103	2
104	104	3
111	113	2
221	221	3
206	206	1
71	99	2
156	156	1
36	48	1
175	176	1
180	180	3
42	42	2
10	10	1
54	54	4
69	69	1
32	33	1
50	55	2
76	76	2
197	198	3
32	84	1
201	222	1
29	160	1
239	239	1
236	237	3
160	161	2
39	74	1
49	52	2
17	22	1
195	197	1
47	48	1
1	2	1
11	12	2
49	49	2
231	232	2
173	182	2
88	88	1
105	106	1
146	147	1
183	185	1
84	86	2
148	148	1
218	218	2
207	208	1
154	164	1
166	187	1
136	137	2
23	30	2
106	106	2
30	186	1
216	216	3
71	80	1
210	229	1
135	138	1
14	19	2
158	173	1
49	160	1
98	101	1
41	73	1
169	169	1
22	33	2
229	229	2
136	136	2
76	78	1
35	36	1
83	84	1
211	220	1
98	98	1
35	49	1
148	149	1
85	96	1
190	216	1
113	114	1
56	57	2
146	213	2
156	158	1
226	227	1
226	229	1
173	181	1
69	78	1
105	105	1
107	119	1
24	24	1
192	197	1
68	89	1
186	187	1
237	238	1
20	48	1
19	20	1
233	234	1
160	165	1
