109	109	8
72	72	13
30	30	3
109	110	9
43	44	6
66	66	3
49	49	5
110	110	4
106	107	4
41	41	6
42	103	2
57	58	1
68	69	1
72	73	1
37	37	10
97	97	6
22	69	6
45	45	14
86	86	2
23	24	1
38	38	8
94	100	4
40	40	5
76	77	4
36	36	6
106	106	11
110	112	1
101	101	2
83	84	1
37	38	7
52	52	6
20	20	6
33	33	5
39	40	5
103	104	1
35	49	1
44	44	4
91	91	4
41	79	2
108	108	6
79	79	5
70	70	5
102	103	7
80	85	2
85	85	2
27	29	2
90	90	4
21	21	8
99	107	2
71	71	7
99	102	3
29	29	4
41	42	6
88	88	2
79	80	3
90	91	6
77	78	1
39	39	5
100	100	6
103	103	7
51	51	4
42	44	3
67	67	1
24	25	5
47	50	3
115	115	1
92	93	3
93	93	6
89	89	7
62	64	3
58	58	2
94	97	3
105	107	1
50	50	8
47	47	6
47	48	4
98	98	3
87	87	4
50	51	4
33	35	3
55	57	1
111	111	5
62	62	4
66	69	1
74	74	3
27	28	3
61	64	2
26	26	5
61	61	3
48	49	2
53	53	3
82	83	1
81	81	1
35	35	5
83	83	3
75	86	1
96	98	2
54	54	2
99	99	8
102	102	3
46	46	3
20	21	2
69	78	1
52	60	1
110	111	5
68	68	6
78	78	5
43	43	5
27	27	3
42	42	3
87	88	1
95	96	3
69	69	3
29	30	2
44	110	2
69	73	1
98	100	2
111	112	2
91	93	1
89	90	1
75	89	3
34	34	5
59	81	3
114	114	1
21	22	2
82	85	1
55	56	1
32	32	2
101	102	2
44	45	1
93	94	1
31	31	4
112	113	2
48	48	5
82	82	1
19	19	1
66	67	1
75	75	5
26	27	2
21	50	2
76	78	2
107	108	5
39	81	1
55	55	2
22	23	1
73	73	6
113	113	3
74	90	2
85	86	2
78	101	1
61	62	1
77	77	3
42	43	1
56	57	1
71	72	2
62	65	1
65	65	1
76	76	1
94	94	3
46	47	1
24	24	5
59	59	1
45	95	1
29	50	1
76	109	2
25	25	2
75	76	2
48	50	1
67	68	1
112	112	4
34	36	1
87	89	2
28	74	1
59	60	1
40	41	1
87	91	1
35	36	1
45	46	1
70	71	1
69	77	1
104	104	1
