72	73	21
56	56	31
41	45	5
104	107	19
105	105	51
60	60	34
82	82	42
41	41	16
29	32	2
100	100	47
35	65	4
51	51	24
98	112	2
48	48	40
65	68	13
89	89	37
63	64	29
28	58	2
71	72	13
67	67	52
101	101	48
85	85	64
64	64	40
58	58	49
109	110	27
30	31	11
96	96	79
63	67	11
63	70	4
31	31	58
33	36	1
20	20	41
69	69	36
107	107	53
61	61	67
75	76	14
40	54	3
66	66	40
43	43	39
55	57	12
52	52	21
98	99	17
35	35	17
76	90	4
80	80	63
38	38	46
71	71	53
84	84	53
64	68	2
22	25	1
94	95	11
21	21	34
73	81	3
72	72	49
97	98	6
44	44	44
54	54	54
110	110	65
27	27	41
102	103	27
36	36	38
50	50	50
58	61	9
95	95	73
88	88	68
24	24	44
90	91	26
39	39	40
40	40	37
83	84	27
50	51	27
82	85	10
73	73	47
80	81	11
24	102	7
47	47	50
83	83	48
81	81	65
94	114	3
45	45	56
57	58	31
22	23	17
33	33	28
95	112	1
21	53	3
87	90	3
28	28	32
99	99	40
108	108	47
48	49	6
59	59	35
29	54	3
79	83	5
101	103	11
23	70	4
54	57	6
62	62	31
105	106	18
42	42	37
49	69	3
88	89	20
93	95	7
86	87	14
80	109	2
93	94	29
99	101	4
65	65	48
62	70	6
90	90	33
70	70	41
95	96	11
23	23	25
37	39	5
49	50	13
114	114	56
86	86	37
62	65	10
93	93	39
49	49	47
66	68	11
102	102	44
63	66	1
66	67	30
72	94	4
30	30	41
78	79	34
106	108	8
85	107	5
96	99	2
79	79	31
92	92	52
55	56	15
41	42	6
74	76	13
91	104	6
104	105	28
85	86	30
20	50	3
35	36	6
25	26	9
25	71	3
76	76	41
103	104	31
19	19	23
59	72	5
25	25	38
95	102	3
68	69	23
51	53	4
65	66	18
93	97	2
54	55	9
24	42	3
87	88	8
109	109	52
22	22	22
60	61	4
111	111	34
97	105	2
49	52	7
37	38	29
80	83	3
77	78	4
39	76	2
72	93	4
86	88	7
55	81	1
20	114	3
97	97	35
92	95	3
70	71	25
44	45	10
78	78	28
62	67	6
31	32	10
94	94	52
113	113	36
25	40	3
67	68	13
85	110	4
84	85	10
112	113	21
43	45	8
93	103	9
70	90	4
98	98	50
57	59	16
106	107	27
91	91	49
75	75	59
77	77	23
100	103	5
68	68	59
96	97	17
45	50	2
32	33	10
73	95	1
74	75	26
88	91	10
62	76	1
39	97	3
37	40	3
103	107	10
39	53	4
102	104	4
86	106	5
63	63	40
74	74	46
83	85	8
103	105	3
63	92	1
53	98	2
35	85	3
110	111	9
52	102	3
101	106	4
47	69	2
78	102	2
55	55	19
60	74	2
37	37	27
46	112	3
64	65	17
80	88	1
54	66	4
63	69	8
40	53	8
45	67	4
41	84	2
102	109	1
106	106	24
46	46	21
68	104	1
71	78	2
104	104	35
103	103	51
108	109	11
81	82	17
57	61	2
25	36	2
26	26	26
22	59	3
98	107	4
24	25	14
28	37	4
98	108	1
58	88	1
25	27	2
21	99	3
92	93	8
29	29	31
91	92	6
78	82	5
26	27	9
110	113	5
67	70	5
87	87	50
36	37	22
67	75	4
76	77	20
51	52	8
45	49	2
87	93	3
34	35	13
83	87	11
32	32	35
95	103	4
85	104	7
92	99	3
64	110	2
101	102	16
112	112	24
68	96	3
59	108	5
73	74	27
34	34	41
97	101	2
104	106	12
75	81	5
23	26	9
79	80	16
77	80	2
100	108	4
74	93	3
84	109	1
23	57	2
72	97	4
100	102	12
21	28	2
78	84	1
105	107	3
57	73	1
68	76	4
80	106	2
92	103	2
87	89	7
115	115	9
23	27	9
26	29	6
76	98	3
67	69	5
46	47	5
34	38	5
78	80	5
80	85	2
21	24	2
97	99	12
42	74	2
90	92	3
88	105	3
91	95	6
42	43	6
70	97	2
99	107	3
39	80	2
26	33	1
27	63	1
72	75	13
98	100	2
100	101	17
22	91	3
58	72	2
64	69	4
82	83	11
29	36	2
55	92	2
57	67	8
71	73	5
62	64	5
111	112	8
45	47	2
53	53	28
29	30	6
38	40	2
93	102	2
25	28	1
83	86	7
76	79	4
56	96	2
107	111	4
47	48	4
35	57	1
62	108	4
75	77	6
62	93	2
98	101	5
52	103	1
83	88	2
81	83	3
107	108	5
65	77	2
24	48	2
25	102	2
80	90	1
23	25	6
101	104	4
59	105	2
36	39	4
22	27	3
46	52	3
72	103	2
64	67	2
65	67	3
53	56	7
64	75	1
58	60	6
59	61	10
68	82	3
35	37	2
58	59	8
79	93	4
19	37	3
99	100	7
95	97	3
23	28	3
27	28	13
46	68	3
39	40	10
96	109	9
50	54	2
54	101	6
33	35	7
77	81	4
22	31	1
93	101	1
102	110	1
81	93	2
27	35	2
62	63	15
55	66	3
74	83	1
29	37	2
94	96	6
82	84	8
47	49	6
90	94	3
89	91	1
58	74	2
53	55	12
35	100	1
58	68	1
69	70	6
99	105	2
95	99	1
36	38	4
61	65	11
56	57	2
43	44	14
33	76	4
61	78	2
39	52	4
54	71	2
75	102	1
57	57	14
23	65	9
100	106	4
46	48	11
74	98	2
60	63	2
40	41	12
21	57	3
86	89	1
49	111	5
58	64	7
43	64	2
74	94	2
54	56	9
65	75	2
46	85	4
95	106	2
80	94	1
65	87	4
33	40	1
61	62	17
65	71	4
38	39	11
82	87	3
57	79	4
68	70	2
67	84	2
30	37	4
91	109	2
26	36	8
49	51	4
22	71	3
91	107	3
41	103	1
41	43	3
77	96	1
22	29	4
23	35	1
59	60	6
72	100	3
28	29	4
114	115	3
19	79	1
43	46	1
21	50	3
42	53	2
57	68	2
27	29	1
55	59	1
40	56	1
25	46	2
75	78	3
65	76	1
85	93	2
88	90	3
30	34	3
76	78	2
82	88	4
31	35	4
89	90	9
32	76	3
33	34	7
39	45	2
45	74	1
39	62	4
77	107	2
92	101	2
113	114	5
59	62	5
68	71	2
55	58	3
56	79	3
95	101	1
32	92	2
60	70	4
40	57	2
79	94	4
53	54	6
63	107	3
62	66	1
66	69	4
59	95	6
32	38	2
58	78	3
80	108	2
75	82	2
80	82	3
108	110	2
22	57	1
37	49	5
26	40	4
49	87	1
22	92	3
79	101	3
95	98	1
91	93	5
64	107	2
58	62	5
47	79	4
52	53	5
96	102	2
35	110	2
38	53	4
24	55	2
72	110	1
66	84	2
48	63	1
20	74	2
53	80	1
108	111	3
45	46	5
39	72	4
78	103	2
28	31	2
23	32	4
19	28	2
63	71	3
78	107	2
107	110	2
58	63	1
31	76	1
48	99	1
74	99	3
72	81	2
58	81	4
81	84	2
50	99	4
92	94	5
77	79	2
54	67	1
32	34	1
75	96	1
22	26	2
59	63	2
53	57	2
67	88	3
81	87	3
82	104	2
26	58	2
77	82	1
37	54	3
80	97	1
59	76	2
60	110	4
30	33	3
84	87	2
20	24	1
61	63	1
63	68	3
43	69	2
54	110	3
38	74	1
102	105	1
89	104	4
80	111	1
73	92	1
41	49	1
25	73	2
30	55	3
77	108	3
47	61	2
69	71	1
57	75	4
103	106	4
26	38	2
27	42	3
71	81	3
79	99	3
104	108	2
19	23	4
19	53	1
40	46	2
53	97	1
28	30	1
66	108	1
60	109	2
70	111	3
46	90	1
68	73	2
64	71	3
78	93	1
49	113	2
37	74	3
73	79	4
88	97	1
53	78	2
31	90	2
25	35	2
68	79	2
101	108	1
73	85	1
58	70	5
35	38	1
22	24	5
90	98	2
72	82	3
32	37	2
24	28	1
97	109	2
48	50	2
23	24	1
49	71	1
91	106	2
56	74	1
20	21	2
64	91	4
73	99	2
100	104	2
57	98	1
48	87	3
66	82	1
51	99	2
61	70	1
72	74	2
96	98	2
73	75	1
79	90	1
30	90	4
31	113	3
39	41	2
81	88	2
88	104	2
20	61	2
26	41	2
81	94	1
26	60	2
35	43	1
57	63	1
100	105	2
70	80	1
92	96	1
28	51	3
71	74	2
94	97	4
86	93	2
76	94	1
27	101	2
75	103	1
60	64	4
72	90	1
25	30	1
62	78	4
27	102	1
83	103	1
21	22	3
96	103	1
43	70	1
61	76	2
77	95	1
39	77	1
85	87	1
62	94	1
88	103	2
46	51	2
94	98	1
86	90	3
34	37	2
58	73	3
26	28	3
92	104	1
95	109	1
79	95	1
41	44	2
111	113	2
92	100	1
97	102	1
36	52	1
56	58	2
67	108	1
64	70	3
87	92	1
53	70	2
48	52	1
31	92	1
69	76	1
105	109	3
21	51	1
31	34	2
88	93	2
93	105	2
54	63	1
26	61	1
82	86	2
57	60	1
75	85	1
47	111	1
58	69	2
51	103	1
106	109	1
20	35	1
40	78	1
27	56	1
36	55	1
102	111	1
76	82	1
69	89	3
90	97	1
87	114	1
91	101	1
81	90	1
70	72	3
47	86	1
21	35	1
61	64	2
59	69	1
73	76	1
58	76	1
67	73	1
46	60	3
69	74	1
57	96	1
24	92	1
46	50	2
64	84	2
61	94	1
58	75	1
80	101	1
27	37	1
100	107	1
53	60	1
42	50	1
62	79	1
20	31	1
59	93	2
74	85	1
42	49	1
68	72	1
26	31	1
91	97	1
56	76	1
54	59	1
53	79	1
25	55	1
57	71	1
22	45	1
91	103	1
23	59	1
22	28	1
91	98	1
71	82	1
69	100	1
52	61	1
