7	24	3
51	51	6
50	51	3
23	27	5
82	87	3
62	62	6
100	101	2
97	137	2
10	11	8
6	6	11
110	116	1
72	123	4
19	19	14
124	124	6
14	14	12
37	38	14
142	142	9
37	37	17
106	127	3
134	134	4
35	47	1
95	96	3
88	89	12
80	81	6
29	40	2
59	74	8
10	10	4
55	58	4
20	20	9
93	94	2
29	29	9
100	110	1
19	20	1
90	141	4
111	123	3
42	103	2
35	38	3
67	67	3
133	134	7
41	41	5
74	74	8
80	82	6
133	133	7
4	4	8
38	38	4
21	21	7
16	16	9
127	127	4
114	116	6
71	75	1
121	122	1
116	116	6
91	91	3
13	13	2
57	57	8
90	90	4
73	73	4
48	48	6
141	141	7
118	140	3
30	60	1
110	110	4
119	119	12
50	50	9
14	15	6
13	14	2
39	105	3
72	72	8
120	121	3
142	143	4
144	145	1
53	53	4
76	79	2
83	135	6
11	11	5
128	128	13
102	103	10
17	18	2
87	92	3
36	37	12
131	131	12
38	39	6
51	52	12
1	1	9
112	112	9
137	137	17
2	2	11
117	117	9
70	71	5
130	130	12
136	136	12
89	123	3
112	113	2
114	114	10
135	135	8
97	98	2
49	51	1
121	121	8
97	109	3
140	140	8
108	108	2
105	124	2
85	85	4
99	133	2
14	17	1
22	25	4
132	132	6
134	136	2
122	122	11
55	57	4
67	83	5
41	42	1
82	82	7
12	27	1
52	52	3
143	144	5
95	107	2
67	69	2
42	43	1
28	29	2
129	129	12
126	126	12
25	25	6
8	8	3
1	2	11
89	90	5
18	18	13
98	98	10
5	5	12
63	63	7
87	87	4
26	63	4
123	129	2
76	76	3
55	55	3
35	35	8
81	140	1
118	118	3
132	139	1
139	139	4
143	143	10
106	135	5
86	89	1
49	106	2
49	50	3
127	138	3
71	74	3
109	110	3
53	54	3
39	111	1
134	135	6
117	140	4
37	40	7
43	60	2
141	142	10
37	111	3
46	51	2
105	105	6
49	49	9
0	1	4
96	109	1
25	58	1
36	39	3
81	83	3
4	5	2
33	34	4
26	27	1
28	28	12
132	140	2
99	100	8
20	21	9
43	52	3
58	58	6
100	125	2
23	24	1
58	60	2
68	68	3
125	125	5
77	78	5
108	109	3
134	139	4
127	144	1
67	68	5
22	22	13
29	55	1
8	15	3
127	128	1
123	123	11
88	88	9
109	122	2
62	63	4
23	23	7
64	69	3
56	56	4
15	16	3
112	115	4
42	42	5
28	52	3
58	59	4
83	85	3
121	138	2
115	116	1
100	100	6
9	9	5
61	61	5
24	24	4
15	15	2
79	80	2
24	25	4
79	79	5
37	104	1
95	95	5
50	61	2
144	144	11
113	122	3
115	118	2
15	31	2
54	55	6
98	125	4
119	120	6
121	134	1
31	32	2
126	129	2
40	41	3
78	78	6
128	129	2
81	81	4
107	107	3
132	133	5
32	97	2
34	34	1
53	55	2
117	139	2
123	125	3
117	134	1
107	126	2
114	118	1
56	71	1
112	114	2
56	57	2
65	65	8
23	26	3
87	88	8
104	104	6
125	140	2
80	80	10
30	32	2
54	54	2
136	140	1
116	117	3
78	130	3
33	35	3
118	119	3
62	69	1
9	10	3
47	104	2
33	33	10
71	71	3
115	119	3
43	43	3
97	139	3
105	106	2
98	132	6
111	111	5
49	88	1
58	144	2
3	3	7
27	28	2
32	33	1
116	118	3
31	33	1
111	122	2
73	79	1
118	120	3
92	92	11
61	74	1
126	128	1
17	17	3
99	99	3
15	32	2
84	124	1
59	59	6
103	145	3
58	141	1
119	124	2
70	88	2
1	25	1
51	60	3
3	5	1
105	121	1
27	27	3
96	135	1
129	130	4
64	66	1
52	55	1
87	141	1
73	76	2
124	125	3
101	101	4
96	107	1
138	138	4
68	107	1
114	115	2
87	134	1
103	104	1
60	88	1
83	83	2
73	74	1
83	86	1
31	35	1
10	12	1
84	84	4
33	62	1
39	39	1
62	64	4
101	102	3
80	91	2
26	62	1
58	127	1
95	122	6
115	120	2
115	115	2
117	120	1
123	124	2
76	77	4
74	75	1
67	71	1
63	64	1
57	74	1
32	32	1
50	84	1
70	72	1
138	139	2
16	20	5
36	36	1
54	74	1
114	117	1
26	26	1
120	120	3
92	140	1
133	140	1
17	98	2
6	11	3
106	107	2
92	139	3
125	126	3
51	134	1
69	69	1
113	116	1
95	99	2
0	9	1
18	62	1
39	112	2
35	84	1
92	94	1
123	142	1
113	114	1
126	130	1
94	94	2
131	132	4
106	137	1
140	141	2
86	86	1
36	38	4
48	49	1
12	16	1
78	79	2
123	141	2
83	84	2
121	125	2
65	67	1
134	137	1
75	95	1
77	77	2
65	140	2
96	97	7
118	125	3
67	81	1
69	70	3
65	66	2
48	104	1
134	138	1
66	83	1
82	83	2
79	131	1
113	113	4
104	138	2
33	38	1
96	141	1
61	71	2
84	85	3
25	27	1
84	86	1
40	42	1
136	137	1
68	72	1
75	75	2
51	66	1
56	59	4
57	58	2
125	131	1
25	26	1
35	43	1
50	54	1
95	133	1
66	81	1
92	123	2
87	91	1
102	102	2
5	6	1
16	19	2
52	61	1
135	136	1
54	66	1
75	84	3
139	143	1
121	123	1
64	67	1
120	142	1
76	78	2
60	127	3
8	25	2
66	107	1
9	11	2
9	24	1
97	108	2
35	73	1
66	68	2
5	11	1
34	35	1
10	16	1
134	140	1
64	64	2
140	143	1
34	103	1
2	14	2
77	79	1
132	135	1
109	113	1
28	100	1
131	133	1
40	43	1
41	61	1
33	112	1
6	25	1
18	32	1
89	91	1
23	74	1
39	40	1
94	95	1
28	30	1
70	70	1
130	131	1
145	145	2
86	133	1
109	109	1
31	31	1
33	39	1
