33	34	3
43	69	2
25	46	1
75	75	16
54	56	2
15	15	8
62	62	5
44	44	5
66	68	2
68	68	2
1	1	4
59	59	9
79	79	7
102	103	1
65	65	2
10	10	16
113	113	4
14	94	2
128	134	1
14	15	2
104	104	8
31	35	4
10	11	3
29	29	3
73	73	10
34	34	6
69	69	7
73	74	1
62	101	1
38	38	10
44	48	1
26	26	11
84	84	3
112	125	2
107	107	5
71	71	14
91	92	7
33	33	8
45	45	9
102	102	5
43	43	8
85	85	5
116	122	3
105	105	11
11	15	1
90	120	2
132	132	10
56	83	2
37	57	1
124	124	12
74	75	1
115	115	9
112	112	11
61	91	2
60	90	5
111	115	3
36	36	7
80	110	2
127	128	3
86	88	1
89	89	4
14	14	1
33	46	1
80	80	2
121	127	3
92	108	2
73	102	2
72	72	7
109	109	5
70	70	6
86	86	3
95	96	1
6	13	3
99	99	6
11	106	5
131	131	3
82	92	3
99	134	2
125	125	4
97	115	3
92	92	8
119	131	6
30	30	9
4	5	1
70	71	4
36	57	3
110	110	2
95	95	4
90	90	14
13	16	2
49	49	2
88	102	3
97	117	3
19	22	3
97	97	4
46	46	2
98	98	3
126	127	2
130	131	3
35	35	12
67	67	5
135	135	2
57	82	4
55	78	4
57	78	5
106	120	4
74	74	11
101	112	3
89	90	5
84	108	1
54	86	1
78	78	2
120	120	2
61	61	3
93	93	5
23	94	4
134	134	1
9	9	4
89	94	1
114	114	2
36	94	3
38	77	2
87	87	8
87	99	2
118	121	5
116	116	9
63	63	7
128	128	4
19	19	5
16	16	6
122	122	5
70	121	1
78	79	2
65	96	1
6	123	1
17	17	2
92	93	2
2	2	2
50	77	2
6	7	1
82	86	2
26	46	2
1	2	1
50	50	4
6	6	3
44	99	2
93	114	1
80	81	1
88	101	2
28	28	7
132	133	4
22	23	3
133	133	4
88	88	6
91	95	1
46	47	2
76	76	4
93	94	3
27	28	1
54	54	2
55	55	3
44	49	1
77	77	5
54	57	1
5	106	1
8	8	9
34	36	3
110	111	6
22	22	3
7	91	1
79	87	2
108	110	3
118	118	4
108	109	1
57	57	6
98	101	1
83	84	4
13	14	2
81	85	4
82	82	4
5	5	3
64	65	2
3	13	1
52	100	2
107	128	3
126	126	8
23	24	4
87	97	1
119	133	1
111	122	1
20	22	1
129	129	1
6	90	1
123	123	2
28	29	2
13	17	2
112	127	1
66	66	4
11	11	2
32	32	2
114	115	1
45	77	6
91	91	1
126	128	4
66	69	1
127	131	6
128	131	2
37	55	1
80	120	2
64	64	2
42	67	1
90	91	1
112	122	1
90	101	2
110	113	1
72	73	2
25	53	4
100	100	2
111	111	5
120	121	3
87	100	5
26	27	1
53	53	3
25	25	2
50	86	2
59	64	1
111	113	2
109	123	2
113	115	1
123	126	2
11	12	1
23	23	2
55	59	3
49	86	1
103	103	3
2	3	2
52	52	5
108	108	1
6	12	1
28	31	2
21	21	1
24	36	1
108	123	1
55	83	1
51	54	1
119	122	1
58	100	1
95	113	3
25	27	1
3	3	1
46	97	2
25	26	1
87	88	1
109	132	1
31	31	6
58	59	3
83	83	1
5	94	2
38	83	1
56	85	1
106	113	2
66	67	1
113	117	2
47	66	1
82	96	1
106	109	2
20	21	1
94	94	1
112	117	1
15	16	1
36	95	1
119	119	3
66	84	3
2	30	1
109	131	1
85	92	1
80	96	2
94	114	2
12	12	2
106	108	1
121	128	1
45	56	1
124	125	1
111	118	1
106	123	3
66	78	2
96	107	1
106	106	2
111	114	2
22	24	2
20	24	1
95	115	1
77	78	1
15	36	2
131	133	1
130	130	3
57	68	1
120	122	2
81	101	1
96	96	1
3	5	1
79	80	1
49	54	1
86	87	1
71	72	2
117	117	1
27	27	1
67	69	1
24	37	1
58	96	1
60	60	1
107	108	1
4	4	2
96	110	1
43	44	1
106	107	1
