27	27	3
46	97	1
84	85	4
104	104	13
60	62	1
98	98	11
100	102	2
24	24	5
31	31	2
30	30	7
33	100	3
43	43	5
101	102	3
92	94	1
32	34	5
95	95	7
64	65	6
75	75	8
46	46	4
37	37	4
80	81	8
73	73	5
93	94	4
41	41	5
82	88	3
61	61	8
66	66	3
59	59	7
63	63	11
76	77	2
93	97	9
38	39	5
22	22	9
96	96	13
70	70	2
82	87	2
28	28	10
88	88	5
61	63	7
97	97	12
65	65	6
58	58	8
71	71	17
54	54	8
42	63	3
76	91	1
32	32	5
26	26	6
21	22	2
83	88	5
80	80	3
98	99	7
35	35	12
50	50	4
51	97	3
76	76	9
68	69	10
36	38	2
72	72	5
27	28	4
51	55	4
87	88	2
51	51	3
86	92	1
106	106	10
26	27	1
42	86	1
105	105	5
99	101	1
27	39	2
45	45	5
21	23	6
89	89	3
86	87	2
78	78	11
97	99	2
21	21	6
82	86	1
47	47	2
81	95	3
99	99	8
45	46	2
104	106	1
94	95	3
52	53	1
29	29	8
44	44	2
103	104	1
89	90	4
39	84	3
68	68	4
85	86	4
57	57	4
79	79	4
40	43	1
78	79	7
74	74	9
64	64	4
30	34	1
22	23	4
85	96	4
102	102	4
66	76	2
67	76	2
91	91	3
36	36	4
81	81	9
67	67	4
79	82	2
31	33	1
54	57	2
63	67	2
38	38	7
66	67	6
58	59	6
41	42	2
84	86	3
77	77	7
82	85	2
57	79	1
62	62	4
101	101	16
93	93	3
102	105	1
24	34	1
82	96	1
27	29	1
79	80	3
40	40	3
95	101	1
86	86	2
89	91	1
33	33	4
103	103	3
31	32	3
86	88	1
83	86	1
48	57	5
23	23	6
54	55	1
92	92	3
76	92	4
100	100	9
40	41	2
83	83	7
80	92	1
53	79	2
106	107	3
67	69	1
96	99	2
75	76	2
52	52	1
27	42	2
87	87	4
40	49	1
22	24	5
74	75	1
90	91	1
95	96	3
30	33	1
88	89	1
55	71	1
34	38	1
70	73	1
38	53	1
97	98	4
97	100	2
55	55	2
56	56	3
91	93	1
69	70	7
104	105	2
92	100	1
36	85	1
88	97	3
90	90	7
30	31	2
36	37	1
83	87	1
58	60	1
30	32	2
64	81	2
51	52	2
53	78	1
20	20	5
94	94	5
66	81	1
78	82	2
32	100	1
62	81	3
49	49	1
42	43	2
53	53	4
65	66	1
85	85	6
75	77	1
50	56	1
31	49	2
84	89	1
107	107	1
79	81	1
70	71	3
33	36	1
99	100	1
33	86	1
39	39	2
67	72	1
45	86	2
61	62	2
44	45	2
102	103	1
32	36	1
82	90	1
59	78	1
65	70	2
35	38	1
21	32	1
98	100	2
37	38	2
90	99	1
47	48	1
35	100	1
39	97	1
47	49	2
65	67	1
65	77	1
42	42	1
80	82	1
37	40	1
28	50	1
25	25	1
31	62	1
80	93	1
70	72	1
