102	102	8
56	58	2
50	50	49
52	53	7
48	101	2
58	58	26
77	77	35
29	52	8
87	88	34
57	57	27
88	88	72
90	91	6
29	57	5
82	85	1
69	69	43
60	64	4
81	81	34
62	62	50
93	93	37
40	40	29
76	77	13
42	75	1
34	37	2
92	93	9
88	95	4
27	27	54
70	70	36
53	54	26
62	87	2
35	36	22
82	94	2
41	41	57
87	87	37
82	83	5
75	75	44
96	96	18
55	55	25
39	39	24
74	74	39
66	66	28
89	89	55
43	43	42
36	36	20
80	81	20
68	68	46
44	44	30
76	76	58
96	98	3
42	44	5
44	45	4
25	25	20
59	59	35
100	100	33
36	37	20
33	33	20
31	31	30
29	30	6
57	61	2
81	82	12
69	72	2
80	80	28
84	84	24
26	26	23
64	64	47
84	96	2
53	53	29
79	79	41
61	61	32
42	42	44
47	48	28
35	57	1
56	57	14
72	78	7
100	101	15
101	101	58
52	64	5
94	94	31
72	72	39
69	89	3
86	86	23
29	94	3
85	90	6
91	91	33
35	35	32
54	54	28
63	63	70
26	27	15
82	82	11
97	97	23
98	101	2
23	24	5
90	90	31
37	38	11
95	95	53
91	97	4
38	59	3
92	92	48
67	67	46
34	55	3
79	80	14
78	78	33
67	68	9
73	85	1
83	87	1
27	28	8
87	98	2
29	29	20
97	98	24
78	80	1
25	26	25
75	76	6
91	92	16
83	83	16
65	68	2
70	71	12
34	38	2
96	100	2
86	88	13
45	74	3
50	78	2
32	32	12
83	84	5
49	51	3
45	90	5
22	22	24
78	79	7
69	70	8
60	60	29
94	99	7
48	55	3
65	65	31
77	78	13
36	53	2
45	99	2
44	90	1
44	55	3
42	60	3
92	95	5
47	47	15
54	93	1
71	73	7
57	96	7
58	59	8
33	34	8
27	82	2
24	25	5
32	33	8
77	86	1
54	55	18
72	76	4
49	49	37
93	94	8
29	37	4
24	27	4
37	37	25
23	23	4
55	79	3
53	93	6
53	82	2
79	82	4
73	73	32
52	73	1
45	101	3
46	47	5
71	100	4
24	26	1
40	49	1
52	83	2
93	97	9
30	30	7
56	85	7
80	94	4
51	59	3
56	56	11
48	48	33
86	94	3
60	61	6
64	74	4
61	64	3
56	99	2
53	79	5
64	73	1
71	71	30
63	68	1
49	90	3
73	80	5
48	49	10
68	69	7
55	56	6
26	37	4
22	23	3
52	52	43
59	63	2
60	91	1
95	98	7
54	84	2
101	102	4
43	50	3
49	64	1
86	87	14
43	64	7
55	83	5
51	55	3
31	32	6
79	83	1
91	95	2
84	94	5
62	77	5
51	51	32
23	26	1
95	97	11
81	99	1
45	45	32
69	102	2
69	86	1
90	92	3
39	90	3
27	29	2
83	97	2
34	62	2
57	89	3
69	75	2
31	52	2
85	86	13
28	33	4
80	85	3
49	50	21
63	71	5
42	65	3
95	96	15
65	66	5
81	83	7
36	93	1
73	89	6
55	92	1
39	72	3
46	46	45
89	90	2
98	98	22
63	66	3
38	73	2
62	86	1
38	39	5
47	91	2
23	88	3
82	92	1
45	49	1
73	101	2
49	55	2
50	59	1
98	100	2
79	92	1
88	90	1
60	62	3
63	65	2
45	48	5
65	69	4
52	77	4
92	97	3
28	28	9
85	85	19
94	95	6
34	34	21
29	58	2
47	54	2
66	67	12
71	72	7
20	20	11
36	92	3
50	74	4
63	70	5
32	61	5
51	74	3
64	85	5
27	86	6
93	101	2
96	97	16
99	102	7
44	62	2
35	37	6
73	74	7
34	35	16
71	76	3
80	82	4
68	79	6
46	86	1
92	94	1
41	45	1
40	74	1
53	84	2
26	45	4
63	89	4
45	87	2
57	60	3
20	22	1
37	57	3
68	72	4
29	36	2
42	43	10
93	95	5
84	92	2
80	96	2
38	38	22
83	89	2
82	84	3
74	79	1
85	89	9
24	24	8
81	102	4
39	99	9
83	85	9
70	79	4
42	99	4
27	46	5
49	80	1
99	99	27
98	99	3
67	73	3
54	81	3
44	50	4
40	41	3
31	34	3
81	89	1
64	78	1
23	25	4
50	70	2
62	76	8
27	36	4
45	46	5
91	99	4
61	77	2
53	55	3
90	99	1
81	97	1
26	53	5
68	81	3
62	63	5
40	45	1
48	87	2
36	38	4
28	97	4
45	47	3
74	75	5
80	88	4
21	22	4
78	101	2
94	98	1
79	86	2
83	90	1
37	48	3
87	89	2
41	42	2
52	55	2
32	94	1
86	89	2
42	78	4
33	50	4
92	96	3
39	50	6
83	86	3
47	55	4
34	50	2
64	65	7
57	79	1
76	78	2
48	100	2
84	95	4
47	64	2
72	73	3
37	58	1
47	100	4
51	52	4
50	62	1
73	79	5
70	97	3
51	57	1
50	51	6
63	67	2
78	83	2
39	73	1
41	53	2
24	29	1
48	53	1
46	97	5
79	89	1
68	70	2
44	66	2
92	102	3
85	97	3
51	66	2
57	62	1
25	28	1
69	76	1
30	32	4
31	54	1
65	89	1
54	80	1
51	76	2
76	91	3
86	100	1
48	79	2
62	88	2
33	61	1
38	58	3
44	77	3
71	77	2
64	102	2
30	46	3
83	95	1
71	87	1
29	86	2
46	53	1
58	71	1
48	54	1
59	60	5
25	86	3
81	84	2
91	101	3
32	42	3
79	81	4
80	93	1
56	79	2
44	54	2
48	98	2
29	47	1
86	92	1
56	78	1
29	92	1
84	88	3
64	68	3
28	55	4
65	85	1
40	52	3
63	64	2
95	100	1
45	93	1
33	35	1
88	89	1
71	74	3
47	49	3
88	94	1
42	66	2
67	77	2
29	33	1
57	58	1
84	91	1
89	97	1
39	40	3
94	97	1
45	86	1
58	80	1
65	77	1
84	93	1
85	96	2
88	98	3
35	56	1
92	100	2
63	78	2
55	81	1
69	71	1
44	51	1
59	65	1
80	83	1
52	67	1
52	57	2
58	89	1
40	66	1
84	86	1
38	67	1
37	46	2
33	51	2
55	60	1
49	81	1
34	56	1
25	27	2
67	71	3
22	52	1
22	28	1
49	101	1
63	69	1
55	84	3
68	76	1
70	72	1
68	71	2
39	62	1
49	63	1
33	97	1
79	85	1
41	44	2
23	29	1
70	89	1
44	74	1
30	50	1
99	100	2
32	54	1
43	49	1
20	24	1
52	76	1
73	92	1
65	73	1
37	94	1
63	93	1
29	63	1
81	96	1
41	71	1
51	56	1
87	96	1
50	81	1
81	87	1
46	54	1
79	95	1
94	100	1
83	94	1
