85	96	8
67	69	1
56	62	4
26	81	3
73	73	1
32	33	10
69	70	3
42	42	11
46	46	16
60	60	13
44	45	4
75	75	14
66	75	2
36	36	3
92	93	6
49	52	4
92	92	12
33	92	2
44	47	2
31	38	1
70	70	11
59	59	7
89	89	9
68	69	5
25	85	3
63	63	6
29	29	3
57	58	7
59	61	2
81	82	6
50	52	1
44	44	9
51	53	1
37	51	2
33	33	5
67	68	4
27	27	3
98	98	2
55	69	3
51	51	6
50	50	4
100	101	5
25	68	3
24	25	6
91	92	3
61	62	3
90	90	2
49	50	6
65	97	2
84	89	4
49	51	1
76	76	2
63	75	2
35	43	1
94	94	10
53	54	6
25	25	2
54	54	2
39	40	3
40	40	9
86	100	2
61	66	1
90	93	1
22	24	2
61	61	9
85	86	1
60	62	2
65	81	1
64	64	12
86	86	8
93	94	8
69	69	6
99	99	3
54	55	13
41	47	2
96	97	4
88	100	3
32	44	1
91	91	7
62	66	4
66	66	3
28	28	2
86	89	2
47	95	1
72	73	5
95	98	3
33	98	3
79	79	10
38	40	2
31	32	2
102	102	5
92	97	3
101	101	6
22	37	1
95	96	4
28	29	2
78	78	1
77	77	3
25	83	1
74	75	8
22	22	7
76	88	2
94	96	4
39	39	8
80	88	2
30	102	2
78	97	4
70	75	3
96	101	6
60	80	4
69	71	1
34	34	1
79	83	2
57	57	10
95	100	1
68	68	2
84	101	3
65	68	2
46	49	2
25	57	2
87	100	4
26	31	2
56	56	3
99	100	2
80	80	1
37	37	1
85	85	7
66	69	2
52	52	4
55	58	2
85	89	3
29	32	1
58	69	1
60	66	2
49	49	1
71	71	5
41	41	3
95	97	2
54	61	2
55	55	2
39	87	2
26	27	1
65	99	3
25	26	2
89	91	1
27	80	1
38	61	2
94	101	1
28	49	1
55	81	3
32	81	1
35	35	2
55	68	5
60	61	1
62	62	3
86	88	7
29	37	3
95	95	2
79	82	8
98	99	3
100	100	4
83	86	2
69	79	2
59	83	4
38	55	2
89	93	4
52	69	1
101	102	4
46	48	2
53	72	6
45	45	2
46	60	2
34	35	1
26	68	2
28	31	2
59	62	4
24	27	4
81	81	4
38	38	8
58	58	1
69	72	3
65	76	3
46	50	2
84	97	2
93	98	2
38	39	2
91	93	2
97	97	2
78	96	1
40	41	2
41	42	3
69	82	1
94	95	1
62	93	2
83	83	3
29	53	2
29	31	5
62	63	2
62	98	4
78	95	3
55	64	3
35	36	1
87	95	2
92	98	2
34	49	1
49	78	2
81	86	1
63	64	4
58	59	1
96	98	1
32	32	1
25	43	1
53	53	2
30	30	1
89	98	1
96	96	1
23	29	2
82	87	2
22	69	2
79	87	1
42	43	2
59	63	2
74	79	2
50	51	1
31	31	2
67	71	2
28	56	1
52	55	1
34	66	1
85	91	2
47	47	3
45	47	1
56	98	1
72	79	1
58	66	1
68	86	2
23	27	1
25	38	1
86	102	1
27	28	1
57	66	2
37	52	1
97	98	1
84	88	1
70	71	1
97	101	1
67	97	1
36	37	2
71	72	1
95	101	1
87	88	2
58	61	1
54	80	3
83	101	1
67	72	1
53	92	1
60	65	1
66	67	1
31	58	1
71	92	2
63	65	1
39	93	1
57	61	1
72	72	1
46	96	1
79	88	1
58	60	1
24	26	1
90	92	1
26	69	1
73	74	1
64	68	1
93	93	1
