84	98	3
40	42	7
10	10	11
110	111	7
84	100	5
18	18	7
66	66	8
109	110	9
20	75	4
6	6	7
30	32	7
73	73	13
77	95	3
56	84	4
20	61	2
13	14	4
26	26	17
97	98	9
9	10	1
35	35	3
83	83	13
94	101	13
7	49	3
11	27	2
115	115	9
132	132	4
72	72	8
91	124	5
39	50	2
27	27	8
16	18	4
99	99	16
14	14	14
90	95	2
122	133	2
63	63	6
19	19	7
16	16	6
31	80	3
13	13	10
43	82	11
40	40	6
48	55	2
85	85	4
76	76	4
20	20	2
67	67	10
93	98	2
6	7	5
11	11	15
0	0	6
15	15	4
100	100	15
77	77	6
86	88	3
55	84	8
95	95	8
10	12	3
110	125	9
41	81	2
11	93	3
60	60	6
95	96	5
8	8	9
93	93	6
42	43	1
87	87	5
21	21	18
117	117	5
94	95	3
17	17	9
34	35	5
24	25	3
109	109	6
130	130	5
10	44	6
21	36	2
83	86	4
29	29	7
59	60	1
101	101	10
112	113	4
96	96	1
61	62	5
97	97	3
26	28	2
119	119	12
4	4	10
6	99	1
24	29	5
23	60	1
13	15	1
74	74	6
90	90	5
10	22	7
74	95	1
28	82	1
71	73	1
10	85	2
38	83	2
57	59	6
116	133	2
3	5	1
28	120	2
36	36	7
63	64	3
30	30	9
8	26	4
20	29	3
57	88	5
122	124	4
121	121	7
92	110	2
41	41	4
32	34	7
92	92	6
19	20	1
126	126	2
104	104	3
65	65	10
42	42	1
32	112	6
75	75	12
59	74	3
34	34	12
38	111	3
11	20	3
64	64	9
15	23	4
39	40	5
110	110	3
123	123	10
113	114	3
35	36	5
115	116	4
97	101	2
68	95	1
113	113	5
120	123	2
122	122	3
75	76	4
40	41	3
9	9	7
84	84	6
16	25	2
124	124	3
77	78	4
108	109	3
122	130	1
49	49	5
25	27	7
116	116	5
93	94	1
103	103	4
87	107	2
29	32	3
58	59	6
57	57	5
85	86	3
78	114	4
56	120	2
26	79	2
102	104	2
61	61	8
41	43	6
35	76	4
89	90	2
25	26	2
80	80	1
100	101	1
78	78	6
11	22	1
134	134	1
49	90	2
14	15	2
12	12	1
26	77	4
41	57	5
107	107	14
4	91	2
131	131	5
47	47	7
44	44	5
39	42	4
5	86	1
43	43	4
107	128	2
86	124	4
51	94	1
87	88	3
37	41	2
102	102	3
32	114	1
31	31	4
22	34	1
48	96	1
100	124	1
49	83	1
68	68	11
71	71	1
50	50	1
105	105	4
79	79	7
58	102	2
98	99	3
41	69	1
56	104	1
94	94	6
57	58	3
15	16	1
58	58	7
36	41	3
56	56	1
16	60	2
50	70	1
41	42	2
80	121	2
4	70	1
29	30	4
92	93	6
20	100	2
0	116	1
9	12	5
93	99	2
46	46	5
70	70	6
23	25	2
22	22	3
48	48	5
7	7	6
68	104	1
102	130	1
28	28	1
48	85	2
61	73	1
18	36	2
129	130	1
5	7	1
121	124	1
92	111	2
20	21	1
60	100	2
78	79	3
81	121	3
93	119	1
104	105	2
35	75	2
32	33	2
12	13	4
69	94	3
93	117	2
118	118	3
60	61	1
73	74	2
32	32	5
83	84	2
58	60	1
59	59	4
34	68	1
5	115	1
25	50	1
37	37	3
7	28	2
38	71	1
45	45	2
82	82	2
33	68	1
14	16	1
81	90	1
47	48	3
31	34	1
31	32	2
7	120	1
37	38	2
85	88	1
4	6	3
33	69	1
115	120	1
64	71	5
87	90	2
85	100	4
109	126	3
25	47	1
118	119	1
3	46	2
108	108	4
35	69	1
69	79	2
9	22	1
127	127	3
86	107	3
43	44	1
21	100	2
112	112	2
115	127	1
36	114	1
95	118	1
117	119	3
63	86	3
45	96	1
30	71	1
80	94	1
37	39	1
21	26	2
120	120	1
111	112	1
23	23	2
41	58	1
58	76	1
11	24	1
80	81	1
5	5	4
88	88	2
21	85	2
55	56	1
125	125	1
117	125	1
39	55	2
33	34	1
33	33	4
26	30	1
3	3	2
5	31	1
39	56	1
31	71	2
87	89	3
79	80	1
91	117	2
4	5	1
56	57	1
99	100	1
17	18	1
29	31	1
25	25	2
82	89	1
45	64	1
98	98	1
39	81	1
71	72	1
58	85	1
107	108	1
101	131	2
51	69	1
66	107	1
102	105	3
18	68	2
123	126	1
1	1	1
19	30	2
39	39	1
62	107	1
24	24	1
15	26	1
15	18	1
83	107	1
122	126	1
54	71	1
11	29	1
69	69	1
101	106	1
17	129	1
20	45	1
127	128	1
18	35	1
82	85	1
39	41	1
76	77	1
