128	128	26
3	3	8
90	90	15
116	116	14
11	11	9
114	114	12
127	129	3
78	79	8
99	99	17
85	88	8
95	96	1
58	60	2
117	117	18
46	120	1
77	77	11
124	125	8
106	107	7
121	121	7
74	74	10
55	55	28
113	113	16
126	126	15
72	72	19
38	39	13
68	68	6
27	53	3
6	6	23
47	47	42
29	78	4
17	19	1
109	122	1
88	88	20
115	115	21
107	107	15
76	76	24
43	43	24
97	97	24
66	66	15
91	91	10
108	108	17
102	102	13
78	78	15
80	81	8
112	112	19
16	17	5
94	95	18
7	7	14
51	51	17
96	96	18
132	132	15
118	118	17
23	24	13
87	88	12
90	91	5
41	42	4
59	59	15
104	105	9
73	73	16
16	106	1
70	70	15
122	122	18
101	101	23
90	93	1
52	52	19
65	66	11
33	34	6
74	96	1
25	25	12
82	83	4
92	105	4
12	12	33
93	93	7
42	42	27
50	50	25
83	83	14
44	45	16
9	9	16
81	93	1
38	38	19
33	33	16
130	130	9
109	110	5
110	110	20
109	121	4
125	125	9
75	118	3
113	124	5
27	27	8
126	128	7
131	131	26
12	13	3
17	17	29
131	132	1
22	24	2
120	120	16
71	71	14
58	59	12
48	48	27
2	2	10
53	53	13
115	119	1
67	67	24
65	71	3
29	30	18
82	82	12
27	29	5
14	14	17
113	131	1
14	16	2
32	53	10
64	113	3
69	72	8
16	18	4
109	109	17
79	79	18
63	63	16
85	86	9
133	133	15
24	25	4
4	4	17
89	89	11
42	45	11
30	31	10
85	85	10
76	120	6
47	48	3
69	71	4
98	98	12
10	10	14
72	96	3
40	41	14
127	128	4
19	77	7
57	76	1
11	21	1
44	44	30
46	51	2
28	28	18
105	105	19
61	61	21
16	75	1
14	15	14
118	119	2
74	78	3
105	106	9
14	26	2
29	29	11
92	92	15
60	60	26
127	127	17
112	122	1
64	75	1
39	39	24
86	86	14
23	23	12
20	20	11
41	41	17
18	19	10
80	80	20
2	3	4
24	73	2
11	12	2
5	14	8
72	98	1
83	85	10
5	5	8
0	2	5
94	94	15
18	45	4
46	54	2
22	22	12
26	26	20
25	26	3
70	71	9
62	65	5
34	54	1
88	91	3
29	86	2
123	123	18
32	59	2
74	97	2
59	60	4
83	109	1
19	21	2
71	72	2
82	93	4
10	26	5
38	119	2
13	13	16
122	123	1
39	52	4
1	1	9
31	39	1
30	30	13
46	62	5
48	54	3
81	121	2
32	32	15
81	81	9
119	119	23
5	6	3
74	77	1
40	40	10
84	84	10
33	55	2
88	90	3
97	98	16
99	115	6
46	46	24
113	129	3
56	57	1
15	15	9
106	106	11
102	103	4
102	108	5
56	58	1
43	52	1
54	54	16
48	64	5
3	4	6
62	62	12
84	85	6
0	0	15
75	75	11
63	64	3
28	29	13
13	52	5
119	130	3
101	102	6
63	66	1
125	127	3
1	54	2
6	51	1
49	49	16
61	62	2
48	49	3
64	64	13
20	21	2
45	53	3
47	67	3
69	69	10
98	110	1
104	125	10
114	117	5
103	103	9
91	92	5
58	63	5
93	94	4
57	57	17
48	51	1
116	127	2
67	68	7
8	16	2
106	123	3
4	7	1
80	83	2
69	70	1
99	100	2
16	16	10
0	52	5
91	93	5
47	84	1
6	8	3
126	127	5
30	120	1
86	87	12
54	57	2
18	18	7
100	100	10
34	74	2
100	101	1
26	40	1
87	87	8
40	55	2
100	116	1
73	74	15
8	8	9
56	56	7
69	76	1
13	24	2
15	17	3
8	9	2
51	52	1
62	72	4
62	67	1
28	33	3
58	58	5
47	87	2
15	16	4
118	121	2
48	58	3
74	104	2
72	73	3
1	2	3
119	128	3
98	116	3
0	3	2
56	124	1
0	4	1
28	52	1
118	129	6
111	111	6
40	46	2
32	34	3
16	21	9
106	109	1
17	78	1
24	24	14
112	113	1
39	53	2
23	107	5
81	111	3
4	20	1
124	124	14
88	110	2
100	115	3
21	38	3
100	103	5
62	122	1
68	69	7
13	33	4
25	73	3
4	6	4
81	82	6
15	19	3
54	59	2
117	118	9
4	15	4
49	50	2
42	43	3
102	104	2
46	50	2
113	128	2
125	126	2
52	53	12
73	95	1
10	11	7
17	18	2
5	13	5
46	56	2
49	57	1
48	63	2
66	78	7
28	32	2
10	25	1
116	128	5
45	46	6
64	69	1
7	89	3
4	99	2
56	121	1
50	54	2
95	95	12
54	58	1
72	94	2
76	77	3
18	47	2
128	130	1
55	63	2
1	23	5
54	56	4
104	104	9
116	124	3
64	65	6
89	94	2
66	67	6
31	32	7
84	92	3
20	32	1
117	128	1
68	98	8
19	20	3
107	109	1
7	90	1
11	16	1
2	4	1
56	64	2
7	8	3
59	61	3
79	121	1
50	60	2
99	102	7
11	15	4
55	128	2
32	131	1
66	97	3
1	7	5
21	21	10
57	64	3
28	79	6
1	75	1
108	128	2
38	124	3
18	23	1
68	77	1
46	47	3
20	28	1
29	79	4
48	61	3
75	76	8
69	120	2
114	119	2
129	129	10
94	132	3
73	96	1
80	104	2
41	44	1
46	48	3
4	5	5
26	27	2
0	5	7
82	97	3
113	119	3
83	94	2
72	74	2
93	105	1
61	81	2
89	102	4
28	55	2
6	52	2
99	103	3
130	131	2
128	129	7
101	103	4
83	84	8
115	116	5
46	121	1
2	7	1
32	33	2
34	34	5
0	22	3
99	116	2
33	97	1
24	107	1
21	22	4
31	31	5
24	129	1
27	81	2
53	58	2
65	70	2
80	85	4
28	78	9
8	19	1
32	55	3
66	76	2
30	86	6
32	54	1
110	111	3
53	60	2
74	90	2
84	87	3
6	29	2
121	123	3
12	27	1
2	5	3
116	118	1
53	54	5
46	55	5
43	55	1
54	113	1
108	130	1
19	19	1
107	129	1
85	92	4
47	53	2
6	50	1
108	127	1
6	7	2
108	124	2
30	88	1
65	65	2
16	40	2
72	117	1
59	68	2
14	33	1
23	25	1
60	61	3
44	46	3
87	90	1
37	38	1
55	127	1
17	26	1
127	130	2
75	77	2
88	89	3
40	44	2
1	50	2
0	23	1
68	117	2
80	121	1
84	86	4
111	112	1
1	6	1
118	120	3
97	110	1
107	114	2
121	126	2
47	55	1
60	111	1
129	130	1
27	28	2
57	111	1
6	26	1
89	91	4
10	12	1
45	45	5
42	114	1
14	21	2
25	130	3
65	69	1
39	40	2
114	115	2
5	7	2
43	45	1
46	52	3
20	76	1
121	122	3
81	110	1
0	6	1
53	89	1
38	52	1
42	44	1
46	57	1
4	104	1
25	74	5
6	22	1
32	56	2
56	113	2
96	99	1
0	7	2
117	120	1
54	61	1
0	1	1
28	31	1
41	43	1
55	118	2
75	120	2
115	117	1
62	63	1
4	21	3
39	71	1
39	55	1
50	51	2
123	124	2
75	113	1
33	119	1
118	127	1
82	100	1
119	120	1
96	97	1
11	14	1
87	92	1
12	52	1
79	81	3
104	108	1
25	28	2
31	131	1
124	129	1
58	61	1
40	42	1
32	125	1
19	67	1
78	113	2
88	122	1
118	133	1
53	56	1
76	98	2
74	75	1
20	66	1
132	133	1
47	62	1
107	119	1
45	126	1
