19	20	6
8	8	6
26	26	6
30	37	2
48	48	3
66	66	5
12	12	10
47	74	2
47	47	12
68	70	3
34	34	4
70	70	5
33	46	2
76	76	9
24	24	6
7	7	5
43	51	5
73	73	5
74	76	2
42	47	4
32	32	2
25	40	4
12	25	1
72	73	13
29	64	3
41	41	5
10	11	6
31	32	2
12	21	4
14	28	2
29	30	3
52	52	4
41	42	2
34	35	3
19	19	8
25	28	1
50	76	3
65	66	3
40	51	4
22	77	1
69	73	4
46	47	2
35	49	1
61	61	1
35	35	6
38	38	6
34	49	2
58	59	9
62	62	5
71	71	3
13	13	18
31	31	10
37	39	1
57	57	6
59	59	5
45	45	8
43	43	4
4	4	4
54	55	2
10	10	3
1	38	4
62	63	3
72	72	3
50	50	6
75	75	7
53	53	4
51	54	3
32	55	2
30	35	6
49	68	1
49	49	7
44	44	7
33	33	5
73	76	2
54	61	3
36	36	4
69	69	4
42	43	2
22	23	3
4	5	2
2	2	1
35	37	3
13	24	2
23	23	7
28	28	1
60	60	6
12	35	2
29	55	4
49	53	1
26	28	8
51	53	2
20	20	2
5	5	4
30	61	2
44	45	4
7	8	3
44	49	1
31	53	2
68	73	2
1	2	2
45	47	5
76	77	3
66	67	2
46	46	6
77	77	5
27	40	2
39	42	3
64	64	3
65	65	6
30	64	4
1	39	1
39	40	1
63	70	2
57	58	4
43	44	1
74	74	7
29	54	1
3	3	6
49	50	2
14	26	3
54	54	2
53	54	2
20	61	4
37	38	3
31	43	1
13	35	1
44	74	2
29	29	3
51	76	3
51	77	2
51	52	2
50	54	1
42	42	2
6	7	2
22	43	3
22	22	4
18	18	3
10	21	1
27	27	2
31	41	8
53	76	1
19	43	2
73	74	1
40	40	2
0	41	2
35	38	2
1	1	4
53	73	3
9	9	5
39	78	1
34	52	4
63	63	2
67	68	2
21	21	3
47	55	2
63	73	1
13	28	1
35	36	1
5	12	2
27	39	1
18	59	3
14	14	1
25	27	2
52	59	2
52	54	1
67	70	2
23	24	1
66	69	1
6	6	5
35	39	2
31	42	2
11	11	3
25	29	4
24	29	1
41	45	2
9	10	1
35	51	1
30	54	1
0	0	2
44	46	1
4	9	1
20	43	1
12	13	1
22	42	1
50	51	1
33	34	2
30	30	2
64	65	1
32	41	2
75	76	1
23	48	1
39	77	1
62	68	1
23	31	1
38	41	2
56	58	2
7	9	1
49	52	1
35	50	1
39	39	2
36	51	1
0	6	1
51	51	2
50	53	1
55	55	1
64	66	1
37	37	2
39	69	1
56	56	2
41	75	1
67	67	1
36	38	1
67	69	1
