40	44	6
46	47	5
36	36	4
19	19	12
48	49	2
147	148	2
85	85	3
67	67	6
96	96	12
131	133	5
39	39	6
65	65	2
82	84	3
123	129	2
81	82	2
22	22	7
71	71	5
78	79	5
113	114	5
94	95	2
54	55	3
24	24	10
54	54	6
140	140	1
107	107	5
56	58	2
33	33	8
129	129	16
42	43	5
17	17	7
55	55	7
61	64	1
39	51	6
63	63	1
11	12	7
45	45	7
18	18	14
41	41	3
25	25	7
66	67	1
36	46	8
34	34	11
65	66	2
78	82	2
122	122	13
16	16	4
38	38	2
123	123	2
103	103	14
123	124	4
28	29	2
35	35	6
133	133	11
23	24	3
111	112	3
24	25	6
14	14	17
6	9	3
110	110	5
146	150	1
5	5	3
104	105	1
69	70	3
57	57	3
15	16	10
12	12	2
138	138	1
150	151	4
145	145	2
55	121	4
7	7	7
132	132	6
15	15	11
22	23	6
44	46	1
40	40	6
128	129	9
153	153	13
147	150	1
49	51	6
37	38	2
106	106	19
77	77	15
24	57	1
5	6	5
68	68	11
17	19	6
67	76	1
139	139	4
131	131	16
93	98	2
124	124	12
86	86	5
4	4	15
152	152	9
32	34	1
45	46	7
85	92	4
117	117	8
21	22	3
86	98	2
154	154	7
31	123	1
50	73	4
102	103	1
10	29	1
12	13	6
119	122	1
134	134	6
119	119	5
26	27	1
149	149	4
150	150	6
5	8	2
101	101	7
8	18	1
36	37	1
121	122	3
95	96	4
50	51	1
6	6	5
110	119	2
118	118	5
62	62	3
137	138	2
106	107	1
121	121	1
30	32	1
117	118	2
27	27	3
28	33	4
4	7	2
80	80	5
31	54	2
23	23	4
101	102	1
32	38	4
25	69	2
91	91	2
17	18	4
29	87	2
130	130	5
43	43	2
132	136	4
93	94	5
63	66	1
27	28	2
64	64	5
87	107	1
115	153	2
78	78	2
97	98	4
9	9	4
69	69	2
83	84	1
83	83	3
13	14	1
112	112	5
46	46	8
72	72	7
33	35	1
148	150	3
144	146	2
68	85	5
52	53	4
26	26	1
38	39	1
18	19	12
87	94	2
27	29	5
132	134	6
106	123	3
31	31	7
40	41	1
105	105	3
29	29	4
135	137	5
45	51	2
147	147	6
95	97	2
81	81	3
31	32	1
132	133	4
18	20	5
105	114	2
21	128	2
116	116	4
109	110	1
48	48	3
70	70	5
120	120	2
37	51	1
86	92	3
120	122	1
103	104	3
76	77	2
118	122	2
70	71	6
18	48	2
124	125	3
3	13	2
88	94	1
50	50	4
65	76	1
15	44	3
23	28	3
21	21	1
34	35	2
152	153	2
133	150	2
3	3	4
104	139	1
76	76	2
27	36	5
126	127	10
79	79	2
8	8	4
11	11	3
139	142	2
120	121	1
50	64	1
108	108	11
20	21	3
47	47	2
137	137	4
104	104	4
137	139	2
13	13	1
86	87	1
93	95	1
52	52	1
96	97	1
125	125	2
135	135	1
102	102	2
99	99	1
124	128	1
136	137	2
54	100	1
67	68	3
100	100	2
146	147	1
80	81	1
28	28	3
34	36	3
49	50	1
130	132	1
114	114	3
72	75	1
149	150	3
90	90	1
2	3	1
135	141	1
138	140	1
127	127	1
14	24	1
4	6	1
93	96	1
28	87	1
82	82	2
110	111	1
109	112	1
43	45	1
11	43	2
47	92	1
144	144	1
17	21	3
87	87	1
143	143	2
148	149	1
102	116	2
56	56	1
66	73	3
42	42	1
26	36	1
16	17	1
19	20	1
109	109	1
3	11	1
81	83	1
