138	161	3
234	241	3
20	24	2
20	22	3
83	88	1
69	69	4
12	12	4
213	224	3
155	155	1
101	102	3
165	172	4
125	125	7
54	54	11
102	102	2
4	6	8
174	175	1
232	232	2
25	26	1
116	117	1
73	98	1
169	171	3
170	171	1
18	18	8
206	221	2
155	166	2
127	169	1
120	174	4
142	147	2
203	204	1
5	13	6
212	213	2
85	85	5
197	198	3
38	38	3
153	155	4
58	77	4
97	219	2
31	31	1
4	7	1
138	140	2
141	141	1
234	234	3
170	177	3
147	151	1
106	106	8
29	31	1
26	45	7
40	40	16
73	99	1
214	214	3
103	103	2
81	81	5
25	25	7
140	141	2
180	181	1
3	34	2
51	51	8
237	237	2
59	60	1
142	142	6
39	39	5
8	8	5
7	34	2
162	162	5
11	20	2
145	146	1
196	196	2
149	150	3
188	189	1
143	144	1
186	186	3
134	134	2
229	229	4
153	153	1
59	116	3
123	124	1
68	68	2
202	202	1
53	53	4
15	15	2
42	42	2
128	128	1
161	161	2
100	100	4
206	206	1
136	152	3
19	20	1
159	184	1
154	155	6
3	32	2
63	63	1
138	139	3
197	202	2
67	67	2
208	208	5
22	22	3
13	13	5
86	86	3
122	122	5
9	226	5
7	12	1
22	23	1
211	212	3
159	160	1
119	119	2
9	9	5
154	232	2
32	32	2
54	66	2
114	114	1
11	14	2
95	98	3
223	223	2
159	182	2
228	230	2
95	95	4
174	174	1
96	96	2
0	23	3
82	82	3
47	47	2
71	71	1
179	180	2
101	101	1
102	103	1
205	206	1
152	152	3
223	229	2
156	236	2
13	31	1
98	102	5
142	143	1
224	224	4
177	177	4
235	235	1
231	231	3
83	83	2
139	140	4
20	25	3
21	22	2
183	186	2
55	55	5
104	104	1
192	193	1
217	217	3
205	205	4
209	209	3
146	146	2
48	48	3
95	108	2
179	179	4
128	129	2
232	233	2
17	29	2
239	239	1
34	35	3
198	232	3
224	225	2
14	14	3
11	11	2
142	150	1
89	89	1
190	190	1
69	70	3
217	222	2
203	203	1
109	109	3
156	156	2
26	26	3
4	125	2
52	53	2
220	220	2
136	136	4
70	72	3
80	80	1
183	183	1
189	190	1
66	68	1
188	188	3
27	27	1
105	106	3
175	175	5
60	61	2
16	16	2
89	92	2
160	160	3
219	219	3
16	17	6
239	241	1
106	116	2
170	170	1
50	50	2
12	128	1
184	185	1
127	127	4
33	34	1
190	193	2
9	37	3
216	216	2
19	19	1
225	231	2
242	242	3
143	143	2
135	135	2
242	243	1
36	37	1
191	192	2
28	30	3
28	28	1
77	77	1
124	126	1
230	230	3
198	206	1
191	191	1
34	36	1
236	236	1
157	161	2
65	65	1
14	16	1
185	185	2
30	30	3
1	1	1
108	127	1
61	61	3
199	204	2
84	84	3
168	168	1
56	75	2
212	221	2
74	74	2
37	38	1
123	123	3
35	37	1
185	187	1
130	130	3
211	226	1
165	166	2
33	38	1
12	17	2
160	172	2
21	21	2
191	201	1
97	97	3
79	79	1
182	182	1
152	153	2
3	3	1
129	129	1
56	56	1
86	88	1
154	154	1
76	80	2
163	163	1
0	34	1
68	69	1
157	157	1
126	126	1
226	227	1
35	36	1
98	98	1
156	185	1
199	199	1
159	161	1
76	76	1
140	140	1
169	169	2
167	169	1
240	240	1
37	37	1
151	151	3
200	200	1
2	2	2
29	35	1
239	240	1
204	212	1
157	158	1
34	34	1
181	181	1
14	15	1
192	192	1
198	233	1
108	124	1
33	33	2
216	222	1
59	59	1
199	200	2
22	30	1
3	126	1
235	236	1
176	176	1
213	213	1
20	29	1
2	18	1
15	17	1
149	149	1
73	103	1
233	233	1
109	160	1
41	41	1
168	169	1
