42	42	11
37	38	9
34	36	6
51	51	31
37	39	3
47	47	31
19	19	13
4	4	20
23	23	5
10	10	22
54	54	10
39	40	3
45	45	34
1	1	35
14	14	16
7	8	7
11	12	10
40	42	3
2	3	9
44	45	4
13	14	12
50	50	19
32	32	18
49	49	34
35	35	15
52	53	12
30	38	2
15	15	34
30	57	3
5	6	3
43	44	4
37	37	6
8	8	23
1	35	2
14	16	3
16	17	3
48	48	17
20	21	4
12	12	15
46	47	6
39	39	12
6	6	11
57	57	20
3	3	24
33	33	19
0	0	13
38	38	21
17	18	5
17	17	29
46	46	13
34	34	12
50	51	11
53	57	4
56	56	16
41	41	14
12	13	5
2	2	23
21	22	3
8	9	5
30	30	10
7	7	10
18	18	18
5	5	14
40	41	10
55	55	16
7	18	4
29	29	5
51	52	8
36	36	23
28	29	4
13	13	21
36	37	6
51	55	2
7	16	5
18	19	8
16	34	3
3	4	12
36	38	3
15	50	3
32	36	4
58	59	3
37	58	2
16	16	27
30	32	2
52	52	10
47	50	2
54	56	2
55	56	4
4	6	1
35	51	3
11	11	20
48	49	3
47	48	4
29	30	6
35	36	2
50	56	6
44	44	12
20	29	5
20	20	9
27	29	1
58	58	13
43	43	6
23	28	4
10	11	10
31	31	7
32	35	1
36	58	2
20	24	4
2	13	1
36	59	1
9	9	3
36	46	2
6	7	4
53	54	3
40	40	8
9	10	1
4	5	2
15	51	5
5	7	3
56	57	3
0	1	1
35	37	1
1	2	4
21	55	1
22	22	6
23	52	1
38	39	2
28	28	5
14	15	3
21	21	11
27	27	2
32	38	1
31	32	4
56	58	5
17	34	4
12	38	2
34	38	1
8	10	2
33	34	4
36	50	1
38	48	1
32	33	1
59	59	6
34	37	4
20	53	1
29	56	2
13	34	1
20	56	4
6	51	1
9	19	3
10	34	1
10	15	1
23	51	1
45	46	3
53	53	2
22	28	2
18	46	1
15	33	1
51	54	1
9	17	1
22	53	3
24	27	1
18	34	1
20	22	1
13	48	1
6	11	2
28	54	1
46	51	1
8	40	2
30	39	2
21	28	2
7	9	1
45	47	1
49	50	3
20	28	1
16	42	2
24	24	1
30	31	1
12	37	1
19	23	3
41	42	1
13	28	1
53	58	1
54	55	1
13	52	1
9	14	1
21	38	1
54	57	1
21	29	1
23	53	1
1	34	1
39	53	1
