102	128	6
73	74	5
129	131	1
92	92	6
82	110	5
99	101	6
38	38	4
35	35	3
13	13	7
15	83	4
79	79	11
128	128	6
26	124	1
119	122	3
78	78	3
102	123	7
66	66	1
11	19	2
25	26	1
89	89	9
61	61	9
125	125	8
76	76	8
38	113	3
93	93	5
58	61	4
68	88	1
77	77	6
70	70	4
50	50	4
25	116	2
102	126	3
118	119	1
23	23	3
31	82	2
75	76	1
106	108	1
83	83	5
33	61	1
90	90	10
106	107	4
20	20	3
104	104	2
56	57	2
28	128	1
80	127	3
113	113	6
83	85	3
109	110	4
84	84	9
12	21	2
52	52	5
12	70	2
28	129	3
29	30	4
86	86	4
114	114	4
80	80	1
28	28	3
63	63	7
87	132	1
101	103	2
72	73	4
123	123	5
109	111	7
79	89	1
29	128	2
111	113	3
44	44	3
60	61	1
55	65	1
77	113	3
69	70	1
112	112	2
55	55	4
64	64	2
19	20	1
110	110	12
111	111	3
87	118	2
53	54	3
71	71	10
110	117	2
99	99	2
102	102	5
55	56	2
88	89	1
102	103	3
112	114	5
43	44	1
35	56	6
52	54	6
7	53	2
95	117	4
46	46	1
75	75	8
21	52	3
127	127	6
8	10	3
115	115	5
123	124	6
30	129	2
15	15	3
82	83	3
87	96	2
117	120	4
19	83	2
122	122	6
8	8	3
101	101	5
3	3	7
16	36	1
49	52	2
16	16	4
36	36	1
107	108	7
128	129	4
21	21	10
120	120	5
126	126	2
51	88	2
10	10	1
50	65	2
65	65	6
30	30	2
1	2	4
96	111	5
97	100	1
129	129	4
78	90	2
44	46	3
91	92	1
72	72	2
33	33	5
14	67	7
98	98	4
122	123	1
26	26	4
106	109	2
84	85	7
89	90	1
99	121	5
9	24	2
52	53	4
31	31	1
17	19	4
10	44	1
88	133	4
61	77	4
54	55	1
0	0	4
103	103	2
32	32	4
83	84	1
9	10	1
45	60	2
87	88	4
74	74	10
64	65	1
107	110	2
82	119	3
82	108	1
12	12	6
77	78	4
104	105	2
22	22	5
54	67	2
130	130	8
103	104	1
49	82	4
43	43	4
51	116	2
19	19	3
15	23	2
45	45	2
86	92	1
117	125	1
101	102	1
109	109	3
117	119	3
53	59	5
22	23	2
100	109	2
56	56	4
52	67	1
73	73	3
45	61	3
7	115	2
120	123	2
108	108	5
132	132	4
16	121	2
57	64	1
57	58	1
134	134	1
20	45	1
132	135	1
19	66	2
33	34	1
56	64	1
105	105	6
12	13	1
49	50	3
110	121	3
58	85	1
79	112	1
112	118	1
20	121	1
124	124	2
82	82	1
127	128	2
5	6	1
59	59	2
131	131	1
116	116	3
27	27	1
130	131	2
30	31	1
52	69	1
62	62	1
24	25	1
97	97	2
91	91	1
16	20	1
44	82	2
60	60	1
12	86	1
77	86	1
85	85	1
44	86	1
88	100	2
107	117	1
100	100	1
78	113	1
107	118	1
1	1	1
90	93	1
