64	69	2
69	71	4
135	135	14
157	158	4
66	98	1
138	138	2
16	16	1
82	82	10
6	6	6
121	121	8
64	83	2
41	41	8
40	71	2
48	82	3
1	1	10
88	91	5
103	104	4
80	80	11
10	11	4
45	47	1
131	131	12
135	136	5
86	87	4
150	150	10
48	49	10
42	42	6
15	15	17
48	48	6
125	125	5
38	38	3
44	44	6
65	66	2
102	103	4
98	98	7
4	4	15
33	33	7
140	150	5
27	45	2
116	116	7
43	73	1
52	54	3
79	80	2
3	3	4
113	127	2
25	25	9
87	87	5
159	159	2
142	143	2
106	109	2
64	71	2
71	71	9
100	100	10
97	97	3
1	2	4
144	146	1
81	152	3
145	149	6
12	13	5
102	150	4
155	157	7
84	89	5
86	86	6
42	43	6
139	139	6
17	17	17
132	132	3
68	68	8
156	156	3
137	137	6
17	18	3
143	153	5
82	86	2
46	57	1
141	141	7
7	24	3
46	46	5
129	129	9
8	8	8
134	134	12
112	112	5
40	40	4
57	69	1
83	83	3
101	102	2
55	56	1
88	107	4
6	140	2
140	141	2
105	106	3
93	93	13
128	135	1
63	67	3
144	145	12
31	51	1
36	37	1
89	90	2
144	144	8
24	24	5
90	96	4
48	78	1
88	88	2
81	81	2
39	75	1
118	146	1
120	125	3
120	120	9
140	151	5
130	130	5
118	132	2
47	47	8
145	145	5
118	118	8
99	99	7
101	101	6
137	141	2
95	100	4
7	7	2
19	19	14
32	34	5
114	114	9
98	100	1
95	96	6
45	70	1
31	31	4
31	32	2
10	12	5
127	127	3
77	78	1
36	36	5
23	25	5
105	105	5
123	123	3
13	13	5
122	122	10
117	117	8
67	67	2
126	126	9
140	140	5
127	130	1
21	26	3
25	27	2
106	121	1
107	107	3
155	156	7
54	54	7
76	77	1
50	51	1
26	26	1
49	50	3
80	82	2
46	47	9
152	152	8
49	53	2
0	0	6
109	114	2
142	142	5
108	110	4
127	128	4
72	155	2
91	91	4
49	49	4
28	28	2
23	23	6
90	94	2
137	138	1
158	158	4
104	105	1
154	155	3
20	20	2
108	108	6
43	48	6
34	36	2
26	27	1
120	121	4
27	28	1
51	51	2
94	98	1
147	148	1
133	133	5
123	138	1
14	31	4
115	116	3
124	124	2
147	147	3
128	128	3
132	137	2
106	106	4
21	23	2
56	67	3
116	117	5
110	114	2
17	115	4
92	96	4
139	140	3
121	153	2
31	35	1
46	48	1
23	24	1
121	122	6
65	69	1
25	26	4
65	65	2
83	85	2
22	22	1
102	139	4
78	82	1
36	39	1
79	79	7
90	90	6
67	69	1
53	54	3
18	19	6
92	93	1
145	146	3
70	70	1
148	148	3
89	89	4
120	141	1
118	153	1
103	103	3
91	92	2
154	154	2
29	29	1
2	4	1
98	99	2
30	48	5
63	63	1
44	48	2
115	141	4
122	146	1
75	76	2
56	56	2
0	1	3
151	152	4
50	138	1
90	91	3
131	133	5
55	65	2
85	87	1
153	154	2
37	37	7
128	129	1
141	142	1
32	43	1
13	16	2
54	142	3
151	155	3
42	49	1
39	39	2
125	126	2
34	34	3
110	111	2
29	30	2
32	32	2
35	35	4
70	71	2
151	151	6
71	137	2
79	85	4
3	4	2
85	85	2
154	156	2
20	31	2
47	48	3
22	25	1
51	63	3
13	32	4
153	156	2
124	126	1
105	107	3
101	130	2
114	132	1
126	127	2
87	97	1
85	86	1
52	52	2
155	155	2
115	119	1
152	157	2
55	55	5
131	132	1
96	96	1
24	25	4
67	70	1
78	97	2
22	23	3
94	94	1
78	78	4
50	141	1
40	41	2
119	146	3
111	113	1
12	12	1
157	157	3
92	92	2
30	30	7
45	45	1
78	79	2
109	109	5
89	108	2
135	137	4
130	131	2
35	111	2
122	148	2
2	2	2
67	71	3
84	86	1
14	19	1
86	142	3
8	9	2
30	32	1
56	57	1
20	32	2
9	9	2
19	20	2
5	24	2
122	123	1
3	41	1
86	119	1
21	21	2
88	89	2
34	35	1
119	119	3
148	149	1
94	95	4
81	82	2
75	75	2
62	63	2
87	101	1
114	115	3
84	84	3
156	157	3
124	125	1
114	126	1
107	141	1
66	66	1
67	68	1
47	69	1
73	73	1
52	142	1
13	15	1
14	18	2
148	150	1
114	142	2
77	109	1
143	143	2
16	17	1
70	115	1
40	42	1
144	147	1
63	66	1
71	72	3
115	130	2
67	116	1
131	150	1
57	68	1
8	33	1
83	84	1
44	46	1
6	27	1
75	97	1
132	133	1
39	71	1
71	115	1
69	69	1
53	53	2
53	63	1
106	132	1
110	110	1
2	3	1
9	12	1
43	43	1
28	29	1
6	28	1
