17	17	1
117	157	3
42	43	4
78	78	7
144	144	1
0	0	2
149	149	2
98	99	2
63	63	2
76	95	4
86	86	8
121	172	4
61	63	1
40	40	3
33	34	6
113	113	1
9	15	2
37	121	3
22	23	7
36	36	12
160	160	2
81	144	1
57	57	3
10	10	5
26	26	2
6	25	1
145	145	3
32	33	2
39	39	9
133	133	8
13	14	2
138	143	1
157	165	5
11	11	6
50	50	13
93	93	9
138	161	1
109	109	4
76	77	2
9	9	7
29	123	3
146	146	5
30	30	2
29	29	6
155	156	2
165	166	1
98	98	6
28	28	9
13	13	6
137	142	1
19	38	3
122	158	4
33	33	7
92	93	5
5	7	3
8	9	6
120	158	1
58	59	2
28	29	5
107	118	2
139	139	3
97	174	1
176	176	5
32	32	8
114	114	3
25	25	5
71	71	2
124	132	2
142	143	3
131	131	2
21	21	4
117	117	5
108	108	4
45	73	2
155	178	1
112	113	4
4	4	2
116	117	1
8	35	4
27	42	3
33	41	2
115	146	2
6	8	1
96	96	9
89	90	2
10	11	3
60	60	5
152	152	5
112	112	3
6	6	6
90	90	1
24	24	5
81	81	1
3	8	3
19	19	3
71	72	1
148	148	4
55	56	2
136	165	1
37	38	4
143	143	1
45	75	1
53	59	1
177	178	3
103	103	2
150	151	3
2	3	3
72	72	6
65	65	2
54	54	4
53	55	2
91	92	2
100	100	4
157	157	3
0	1	5
154	154	4
78	80	4
153	153	3
44	44	3
91	91	6
158	158	3
12	12	4
131	134	4
64	64	2
16	36	2
177	177	2
38	38	5
156	156	1
157	159	1
71	76	1
14	14	2
103	104	3
11	15	3
12	13	5
167	167	1
56	56	6
100	125	1
73	73	5
55	55	4
66	66	6
79	79	1
170	170	2
97	97	1
134	134	3
14	33	2
39	42	2
53	54	4
24	26	2
37	37	6
147	147	4
28	30	1
0	43	3
16	16	4
25	26	6
42	44	5
36	37	2
18	22	2
41	43	1
127	134	2
21	56	3
35	35	3
40	41	3
34	101	1
114	116	2
96	97	3
94	94	1
15	18	1
128	128	3
84	84	1
23	100	3
119	120	2
151	151	3
85	86	1
154	155	1
62	63	4
154	156	1
62	62	1
2	2	1
70	70	3
106	173	2
152	153	2
110	110	1
160	161	1
68	101	1
179	179	8
122	122	4
31	31	1
142	142	3
6	34	1
43	50	3
115	115	2
116	123	2
169	172	1
88	88	3
39	40	4
31	34	1
72	73	2
7	8	2
5	8	3
54	138	2
165	165	4
5	6	2
61	61	2
51	51	6
101	102	3
123	123	1
54	64	6
98	109	2
51	58	2
7	7	3
163	163	2
34	40	3
12	14	4
16	17	2
174	174	5
155	155	2
78	120	2
119	119	1
26	28	1
120	120	1
28	33	1
3	3	2
20	20	2
24	30	2
28	32	1
118	118	1
10	51	1
158	169	1
61	67	1
22	143	1
20	21	2
25	31	1
130	130	1
54	55	2
114	117	2
139	140	1
80	80	2
24	40	1
6	15	1
30	31	7
95	95	3
159	159	1
27	27	1
108	109	1
119	134	1
146	148	2
124	130	1
171	174	1
159	160	1
29	30	2
5	9	3
26	35	1
120	121	1
124	125	2
52	52	3
27	123	1
77	77	1
13	15	1
44	45	2
33	39	1
33	44	1
85	85	3
61	114	2
23	24	1
51	101	1
80	148	1
73	75	2
148	156	1
150	154	1
42	42	3
101	101	2
116	116	2
135	136	3
157	166	1
8	8	2
24	25	1
82	82	1
95	96	1
15	15	1
169	169	1
161	162	1
66	68	1
7	43	1
34	34	1
35	43	1
171	171	1
65	67	1
149	167	1
8	11	1
41	41	1
126	142	1
94	95	1
94	180	1
90	91	1
