43	43	7
15	17	5
44	50	7
3	3	44
8	33	3
16	31	11
34	34	36
39	39	25
40	41	7
49	49	31
10	10	26
51	51	26
38	38	20
14	34	4
4	4	19
52	52	23
2	2	33
1	1	22
16	16	43
17	17	21
12	12	32
45	45	17
42	42	20
31	31	22
19	50	2
15	15	19
13	13	24
29	37	1
20	20	10
40	40	25
0	0	21
7	7	27
35	35	18
7	8	5
33	33	42
11	51	2
20	22	4
35	36	8
11	36	3
57	57	18
14	14	23
50	54	3
48	48	11
44	44	22
16	17	11
11	11	28
32	34	7
56	56	20
55	55	19
15	30	2
46	46	31
18	18	36
36	36	22
0	1	4
28	29	10
47	47	21
38	39	4
31	34	11
35	51	5
41	41	15
50	50	36
58	58	14
2	3	11
32	33	6
19	19	11
28	28	7
9	9	29
34	38	3
52	56	2
55	58	2
29	31	6
53	55	4
6	6	25
14	15	4
30	30	18
58	59	6
4	6	4
11	12	13
31	32	3
22	57	5
18	19	2
30	31	11
10	11	7
17	18	15
3	7	2
23	23	10
39	40	8
42	43	4
37	37	21
18	34	7
0	43	7
8	8	12
37	42	2
5	11	1
32	32	13
33	39	1
20	28	1
22	22	9
18	39	1
51	56	15
38	58	3
56	57	10
24	24	10
43	44	4
55	56	8
31	37	3
52	54	3
52	57	5
29	29	15
59	59	5
7	10	4
13	14	9
52	53	3
49	51	2
37	38	3
53	54	7
29	38	4
49	50	8
21	21	6
1	2	1
3	4	4
8	40	2
5	5	19
53	53	7
2	7	1
9	21	3
13	40	4
15	20	2
17	34	3
30	35	4
33	34	3
54	56	4
11	34	2
22	51	2
13	34	1
57	58	6
51	54	3
35	48	3
38	41	1
30	34	2
30	33	3
36	37	8
21	22	9
8	9	3
45	46	2
5	6	4
19	21	1
12	13	7
36	50	2
15	31	2
4	5	5
44	45	1
33	40	4
50	51	3
32	36	2
15	19	1
30	38	1
2	18	1
43	50	1
46	47	4
12	31	1
51	55	2
36	49	1
1	17	2
27	28	6
47	50	1
48	49	1
33	36	5
1	16	1
19	22	1
48	50	1
6	13	1
11	49	1
23	24	3
22	23	2
40	51	2
29	30	1
33	35	1
51	53	1
0	4	1
30	50	1
16	18	1
8	50	2
54	55	1
41	42	1
7	41	1
54	54	4
21	28	2
36	51	1
11	14	1
21	23	1
48	56	1
27	38	1
9	10	1
30	32	1
13	15	1
20	21	2
51	52	1
