40	40	7
122	149	7
15	15	10
207	208	6
185	185	7
20	20	23
41	41	22
210	211	4
82	84	3
196	198	3
2	49	2
117	117	9
188	202	3
128	128	20
95	95	3
138	138	7
36	55	4
182	183	6
102	171	4
21	21	11
126	127	13
155	155	2
30	30	7
27	27	29
54	74	2
85	99	3
137	137	12
47	47	11
88	88	12
66	84	1
235	235	9
56	56	15
25	176	5
179	180	20
38	38	10
223	224	3
178	178	6
84	84	10
135	137	2
123	123	16
177	177	10
1	1	13
47	54	5
142	142	14
212	212	12
57	57	11
102	102	7
46	91	2
99	99	13
71	71	13
202	202	7
145	146	6
67	67	11
73	73	12
103	103	18
51	51	19
4	5	1
175	175	7
71	89	1
66	66	20
233	233	21
240	240	11
116	117	2
125	127	2
223	225	1
46	46	26
172	173	2
219	219	12
83	83	8
161	203	3
78	80	3
48	49	5
143	143	3
19	19	14
29	29	8
103	104	4
36	36	6
198	199	6
145	145	12
192	192	3
74	74	25
155	181	1
182	182	18
241	241	10
11	11	18
153	186	2
23	23	22
75	75	16
25	25	16
101	102	7
191	191	10
81	83	7
227	227	11
171	171	4
136	136	10
97	97	15
85	85	19
236	236	5
238	240	5
144	145	2
98	98	9
25	31	2
78	79	7
104	190	4
156	156	7
29	31	2
162	162	9
151	151	6
12	14	4
45	63	1
7	7	6
134	191	9
86	86	12
150	150	6
126	126	14
18	21	1
28	29	4
116	154	1
35	35	6
50	51	5
121	121	11
66	79	5
203	204	8
163	199	2
172	186	1
5	6	3
67	84	6
234	241	1
21	23	5
165	165	10
43	43	22
159	159	13
118	119	6
33	33	15
207	207	14
204	204	8
208	209	1
56	57	5
27	29	3
168	168	6
36	57	3
43	64	1
45	46	14
70	70	6
0	170	1
223	237	4
163	165	2
178	181	2
170	186	2
198	198	4
231	231	13
72	72	13
209	219	3
189	189	6
164	165	5
179	179	11
115	115	13
109	121	2
166	167	7
31	32	5
23	38	6
78	78	10
54	54	22
63	64	5
82	82	13
213	213	9
65	65	13
217	218	10
68	68	9
20	32	4
61	62	1
195	196	4
57	58	3
147	148	1
0	6	2
158	162	4
9	9	9
119	119	14
45	45	4
63	63	18
128	162	3
120	120	8
121	122	10
175	206	7
141	142	3
12	70	1
24	24	18
20	21	10
8	8	19
99	100	6
191	192	3
104	104	4
8	48	2
156	157	1
44	45	9
42	42	7
216	216	4
162	163	5
47	100	3
80	155	4
70	71	7
201	230	3
25	32	3
76	76	23
21	22	2
71	72	7
85	86	3
127	127	10
62	62	17
210	210	5
108	108	7
68	71	1
27	60	3
197	197	12
196	196	6
2	2	9
81	81	5
18	20	3
239	239	8
153	155	3
170	171	5
26	26	22
221	221	7
28	28	15
54	55	5
169	169	8
160	160	14
1	49	1
45	53	2
141	141	3
12	12	15
148	149	1
175	176	3
148	148	15
114	115	5
232	232	9
83	118	4
87	87	4
144	151	2
69	69	18
105	105	11
123	168	1
133	133	5
14	14	7
3	4	2
49	49	12
6	6	13
63	155	3
130	130	8
230	231	4
37	38	2
10	10	18
221	222	1
77	77	1
229	229	16
188	188	3
139	139	2
16	28	1
109	110	5
140	141	2
161	161	7
208	208	9
163	163	8
230	230	10
15	62	2
192	208	4
64	64	8
58	58	11
218	219	1
187	187	9
225	225	4
240	241	1
34	36	3
243	243	1
131	131	1
174	176	4
181	181	12
39	197	2
169	170	3
55	55	11
3	3	11
148	151	3
61	63	4
13	95	1
146	147	3
225	226	7
77	78	2
39	40	3
19	63	1
66	68	10
149	149	8
83	97	4
33	36	1
6	7	4
26	27	9
214	215	5
4	7	1
81	82	7
32	32	19
173	183	3
27	28	8
184	189	1
13	14	2
238	239	7
150	151	2
171	205	2
174	174	18
3	40	1
3	7	4
152	153	5
54	171	1
58	61	1
186	186	5
228	228	8
106	191	2
185	187	3
12	15	5
234	235	1
49	50	4
32	65	4
26	46	3
133	134	4
233	234	2
56	152	2
176	177	8
35	75	1
48	48	13
15	17	2
37	42	5
80	82	1
114	152	2
132	132	7
41	76	2
18	29	5
104	105	4
0	50	4
54	60	2
190	208	4
158	158	2
120	121	3
166	166	7
67	75	4
37	37	7
100	155	1
201	206	1
195	195	3
64	85	3
69	73	3
40	43	2
0	1	2
141	156	1
164	164	3
226	226	1
133	135	4
134	135	4
53	54	1
242	242	10
218	218	10
48	54	1
64	84	1
213	220	2
52	52	7
124	124	9
115	116	2
96	96	5
35	36	3
45	67	3
26	174	2
54	57	2
216	219	9
135	135	5
73	124	1
201	201	19
238	238	4
204	205	6
16	70	1
206	206	12
104	191	1
53	60	2
109	120	3
176	176	7
43	45	3
15	16	6
106	106	6
13	96	1
60	60	7
113	113	6
129	129	6
135	136	4
226	227	5
178	220	3
200	200	5
43	84	2
37	41	2
62	63	7
98	99	4
197	208	1
79	79	2
2	5	2
17	17	8
0	0	12
78	89	1
190	190	2
29	161	2
75	78	5
144	144	15
175	227	4
22	22	8
40	41	4
170	187	3
154	154	6
39	39	18
24	28	3
101	101	17
67	74	4
183	184	3
51	52	1
32	33	6
23	24	4
7	8	6
200	201	1
74	98	3
165	166	4
116	116	2
84	85	7
224	224	6
88	89	2
128	129	1
190	191	8
97	152	1
224	225	2
118	118	3
215	215	3
152	152	8
65	156	3
61	61	16
128	150	2
113	114	5
153	153	6
69	71	6
17	18	4
128	191	3
136	137	2
58	59	5
80	80	8
216	217	2
69	75	3
147	147	8
21	57	1
53	63	2
149	209	3
48	154	3
34	35	2
134	134	6
178	209	2
9	11	6
44	44	8
193	193	2
46	53	3
42	52	2
10	11	6
31	31	3
34	34	11
184	184	9
43	134	1
170	170	2
65	66	3
171	172	1
229	230	1
2	38	1
151	188	1
16	16	2
122	122	5
14	24	1
18	18	5
213	218	1
173	173	7
125	125	5
214	226	4
119	142	3
180	224	3
42	55	1
56	89	1
142	143	2
174	239	1
97	153	5
53	72	1
143	146	2
83	96	1
68	69	1
217	217	4
217	219	1
8	56	5
6	8	2
61	74	1
38	39	1
109	118	1
138	140	2
234	234	3
96	97	3
24	25	6
189	190	4
185	204	1
30	31	1
36	37	5
167	170	1
68	70	3
109	109	7
219	227	1
180	180	6
55	56	6
44	144	1
128	130	2
118	143	1
73	74	9
124	125	1
237	237	9
236	237	1
66	81	4
151	164	2
220	220	5
19	21	4
205	205	3
187	188	3
34	40	1
40	42	2
48	50	3
38	54	1
123	124	3
13	13	6
188	189	4
240	242	2
138	139	4
131	136	6
37	39	1
90	90	1
195	209	3
213	214	1
50	50	12
157	157	3
100	101	2
31	40	1
71	86	2
219	235	2
172	172	10
197	199	1
11	12	2
187	204	2
41	42	3
55	58	2
125	138	1
8	15	4
1	2	2
64	65	1
167	168	9
158	171	1
23	39	2
0	7	2
207	212	4
216	222	1
20	23	2
119	154	1
223	223	10
39	56	1
158	159	2
75	76	2
15	37	1
141	143	2
50	82	1
148	150	2
60	61	1
199	199	10
79	80	2
9	10	1
232	233	1
76	98	3
56	85	2
11	13	1
199	200	2
3	33	4
120	153	4
182	209	1
203	203	2
55	118	3
217	222	1
53	57	1
211	236	2
37	69	3
172	207	1
183	185	1
29	30	2
168	177	2
26	61	1
8	9	2
53	96	3
48	56	2
65	105	1
110	121	2
170	185	1
34	67	2
212	213	2
170	172	3
108	195	3
214	216	1
20	36	1
159	160	3
19	20	2
46	85	3
222	223	5
108	125	1
53	53	5
32	38	1
106	108	2
13	64	1
201	202	1
163	164	1
29	32	1
91	92	2
209	209	4
85	105	2
155	156	1
64	66	1
197	198	1
53	187	2
16	24	1
167	167	2
12	13	5
129	159	3
226	235	2
118	144	1
150	209	1
66	85	1
95	99	3
44	48	2
169	203	2
211	211	11
127	165	1
6	34	1
33	35	1
144	210	1
73	99	1
167	178	2
35	59	1
206	207	1
18	19	2
67	70	2
32	48	1
157	158	1
194	194	2
75	77	3
107	122	1
13	142	3
69	99	1
219	220	1
183	183	4
216	218	2
44	50	2
173	175	1
42	46	3
11	65	1
108	126	1
98	116	1
0	57	1
0	19	1
190	202	1
9	143	1
39	55	1
229	234	1
221	224	2
207	211	1
80	89	1
4	4	1
64	77	1
8	14	3
25	55	1
70	99	1
82	88	1
60	62	2
12	36	1
9	32	1
225	227	1
59	60	1
234	236	2
3	48	1
52	53	3
75	98	1
7	29	1
48	88	4
52	72	1
42	47	2
19	37	2
109	119	1
222	222	1
51	57	1
86	148	1
40	56	1
68	72	1
144	146	2
166	182	2
175	226	1
20	159	1
146	146	1
80	81	1
50	65	1
16	35	1
235	236	2
194	195	1
157	168	2
217	220	1
133	136	1
137	139	1
202	204	1
203	205	1
63	84	1
23	28	2
137	138	3
129	130	2
82	83	2
102	103	1
37	74	1
36	41	1
9	58	1
14	15	1
28	147	1
153	183	1
156	220	1
205	206	1
65	106	1
134	148	1
43	44	1
224	231	1
70	73	1
20	55	1
165	173	1
118	182	2
141	144	1
20	51	1
68	78	1
39	42	1
231	232	1
5	10	1
108	118	1
97	99	1
215	216	1
32	60	1
197	224	1
13	15	1
178	182	1
145	218	1
95	97	1
111	111	1
100	100	1
20	28	1
14	95	1
