93	95	1
74	74	9
38	38	9
121	126	1
95	96	9
45	62	1
9	9	18
86	86	13
26	78	3
66	66	21
83	83	6
102	103	2
20	20	4
87	87	4
18	18	7
8	8	17
55	55	7
50	50	2
26	26	12
128	129	1
73	73	6
47	47	18
121	121	18
45	45	16
14	15	6
58	59	4
0	64	3
85	85	11
35	35	4
7	7	9
75	75	17
58	58	3
46	46	11
96	96	5
10	60	4
19	19	10
70	71	5
56	56	3
67	67	1
77	77	5
27	27	10
44	44	7
61	61	13
17	61	4
82	82	4
0	0	8
108	109	5
22	41	1
106	106	9
29	30	5
39	40	4
78	78	5
51	56	3
64	64	8
38	41	1
23	23	5
84	84	2
29	97	4
11	11	12
91	91	14
117	117	13
126	126	17
99	99	8
12	13	7
15	16	3
58	72	3
15	15	1
62	66	1
14	23	6
18	21	2
91	93	3
45	46	3
64	66	1
2	16	3
81	82	3
34	34	8
70	70	9
68	68	13
10	10	13
128	128	6
22	33	1
90	102	1
93	97	2
2	3	3
116	116	8
81	81	3
62	62	7
76	76	6
31	31	5
84	85	5
75	76	5
6	100	7
74	113	2
58	81	2
2	2	18
43	43	4
88	88	6
64	65	2
62	75	2
34	35	10
118	118	13
42	43	3
6	6	6
110	110	12
16	16	6
5	8	2
29	29	9
33	33	7
85	111	3
47	48	3
35	36	4
60	60	9
26	27	7
115	115	3
28	28	10
57	57	3
22	35	2
7	8	6
28	108	3
72	72	18
77	78	1
67	71	4
119	119	15
89	89	1
97	97	3
131	131	2
103	107	2
48	48	3
65	70	1
28	29	6
109	116	2
102	102	11
125	125	6
126	127	8
124	129	3
62	63	4
60	61	2
101	101	3
43	44	1
5	72	3
94	95	2
83	84	2
15	18	2
63	63	13
95	95	8
91	92	3
5	99	3
65	83	1
4	4	10
32	33	4
14	86	3
27	98	8
31	33	3
5	5	4
80	80	5
75	118	1
29	62	1
24	25	3
107	108	3
96	100	1
93	93	7
94	94	7
46	69	3
59	59	8
8	9	1
122	122	3
117	118	1
96	97	2
122	123	5
79	80	2
103	103	6
98	98	9
125	129	1
19	34	2
109	110	6
94	102	2
80	94	1
65	66	5
65	94	1
57	82	2
20	96	1
132	133	6
69	95	3
13	13	9
25	26	2
105	107	3
55	57	1
9	10	3
60	70	2
28	80	1
100	101	6
71	71	9
26	82	2
3	3	2
25	25	3
27	65	2
107	107	4
22	22	1
21	21	6
17	44	1
100	100	9
107	112	5
30	31	3
46	47	1
134	134	6
36	60	1
32	32	5
78	79	2
92	95	3
6	7	2
36	36	2
60	69	3
69	69	9
51	54	1
17	17	1
109	109	5
110	116	1
14	14	1
111	120	1
41	42	4
83	102	1
106	126	1
37	37	6
76	118	1
65	65	4
3	89	2
123	130	1
111	127	2
63	64	2
114	114	4
87	101	4
40	40	3
20	41	2
17	34	1
25	29	1
56	57	2
129	129	4
1	1	1
24	24	3
3	26	1
20	100	1
20	61	1
49	49	1
21	22	1
68	70	1
62	83	3
58	119	1
9	85	1
121	122	1
110	111	1
132	134	1
42	42	3
69	75	1
101	102	4
74	83	3
78	93	2
27	47	3
87	98	2
79	104	1
60	66	1
39	42	1
4	5	3
60	65	2
90	90	1
33	34	3
31	32	2
49	50	1
82	85	2
127	127	2
16	17	3
73	74	2
67	68	2
127	128	1
79	79	1
7	66	4
63	65	1
36	76	1
68	83	1
45	55	1
120	120	7
132	132	1
29	59	1
120	121	1
17	18	5
46	62	1
111	112	1
96	101	1
62	72	1
88	94	1
3	72	1
30	30	2
23	24	1
22	26	1
34	61	3
93	94	2
11	13	2
28	73	1
115	125	1
61	62	1
104	104	3
90	121	2
42	74	1
120	122	2
62	64	2
108	108	2
66	84	2
113	123	1
33	60	2
115	120	1
45	56	4
97	98	5
13	14	1
5	7	1
57	58	2
113	114	1
90	97	2
114	132	1
29	106	1
39	39	1
133	133	3
92	92	2
64	67	1
69	70	1
82	84	3
0	118	1
112	112	3
9	46	3
86	101	1
19	47	2
85	108	1
111	111	3
89	91	3
60	71	1
110	126	2
25	30	2
58	60	1
13	47	1
25	27	3
47	95	1
12	12	2
130	130	1
69	71	1
25	47	2
81	106	1
15	23	1
112	113	1
26	41	1
85	86	1
10	19	2
78	82	1
20	22	1
38	39	1
30	32	2
124	130	2
7	65	1
68	69	2
113	125	1
130	131	1
13	64	2
47	86	1
46	59	1
105	105	1
76	77	1
11	92	3
69	72	1
9	75	1
20	26	1
33	110	1
46	63	1
35	46	1
44	70	1
92	93	3
83	111	1
120	127	1
3	94	1
83	86	1
4	6	1
10	86	2
95	101	1
99	101	1
41	41	1
46	71	1
