98	99	3
136	138	3
3	3	23
190	190	36
152	152	22
50	50	27
6	8	3
146	147	6
95	97	8
23	43	4
128	128	36
60	60	7
125	126	6
177	177	18
90	90	3
54	54	14
136	140	1
161	161	18
165	165	24
55	56	13
4	4	31
193	193	23
114	114	15
121	123	4
147	147	16
2	2	28
48	48	22
133	133	24
99	99	20
137	137	20
30	30	26
174	176	4
161	162	17
197	197	21
78	86	3
131	131	19
162	163	12
24	24	23
169	169	35
173	173	20
178	194	2
50	184	4
119	120	11
157	158	12
195	195	11
166	166	15
109	110	15
176	178	9
29	30	14
87	88	2
19	21	7
116	116	15
9	9	27
178	181	1
43	44	15
1	3	4
36	36	14
58	59	6
132	132	17
66	66	22
134	137	12
140	141	4
21	21	18
127	127	24
28	28	19
18	18	22
8	9	3
61	61	10
180	180	8
154	154	25
185	186	10
10	12	2
153	154	6
45	46	5
49	49	16
139	140	6
145	145	14
31	31	11
59	75	1
56	56	10
179	179	17
33	33	25
69	69	18
138	138	18
183	183	36
170	170	39
57	57	14
0	1	11
77	77	7
192	192	23
180	181	6
71	86	3
9	14	3
67	67	2
6	6	9
118	119	7
80	80	9
150	150	9
159	160	17
54	55	7
10	11	3
188	188	16
166	167	15
128	129	4
139	139	15
128	134	2
110	110	8
132	134	7
120	120	14
52	72	1
100	100	17
135	136	6
97	97	9
157	157	24
186	186	7
124	124	30
41	41	13
156	157	11
40	40	14
73	185	1
98	98	6
181	182	10
108	110	4
50	183	6
15	15	12
96	96	7
108	108	7
176	176	11
155	155	18
193	194	10
28	174	4
148	149	17
37	38	16
131	139	2
47	47	7
4	5	8
20	20	18
46	46	27
156	156	23
36	37	11
173	174	6
117	118	13
110	112	8
99	100	11
8	8	11
16	16	12
174	174	26
74	74	6
15	16	4
178	178	13
126	127	8
83	83	8
52	52	19
121	122	7
123	123	16
19	19	14
17	18	7
173	176	7
72	73	1
116	117	9
82	82	11
103	103	16
51	51	15
187	188	28
71	87	1
95	105	3
158	159	7
33	34	6
22	22	13
146	146	21
22	24	3
13	13	10
185	185	27
73	73	12
160	160	26
117	152	1
63	63	7
182	186	5
3	4	12
29	29	16
1	1	13
1	2	10
118	118	15
136	137	7
187	189	15
44	44	19
151	151	21
0	38	4
0	0	6
5	7	10
134	135	14
152	155	4
5	8	7
67	68	7
37	39	6
7	7	15
22	173	2
138	139	8
78	121	4
87	87	11
20	21	4
14	14	22
115	120	1
5	9	2
81	82	6
28	29	17
182	182	14
171	172	1
16	18	2
105	114	2
136	136	16
135	135	9
58	58	13
113	113	9
104	104	9
35	35	12
71	71	17
149	149	10
59	59	7
4	19	1
107	107	15
154	182	2
5	5	19
37	37	10
115	191	5
5	24	2
122	122	20
74	88	4
138	140	3
34	35	16
17	39	1
104	105	7
38	39	7
6	24	8
116	118	4
34	34	16
7	8	10
53	53	20
154	155	8
72	126	4
181	181	16
103	116	1
141	141	26
24	33	5
23	23	23
45	45	18
106	107	10
110	111	10
11	166	6
164	165	4
102	103	5
113	181	1
100	112	3
9	13	2
163	163	9
86	86	5
160	161	13
88	90	1
102	110	4
161	164	4
42	42	23
74	90	5
101	101	23
105	106	13
65	184	3
167	179	1
194	194	22
20	22	5
12	12	31
11	13	1
126	126	11
102	102	18
111	111	25
112	112	10
186	194	4
178	185	2
104	106	10
146	159	3
9	11	6
130	131	4
169	170	4
113	114	7
148	148	12
153	153	24
130	174	1
26	26	19
27	27	13
79	79	6
54	56	5
78	79	14
67	73	2
140	140	11
179	193	7
147	148	17
12	13	7
84	152	4
158	158	24
173	175	8
165	166	17
50	69	3
2	5	3
52	53	3
69	184	4
22	23	8
17	17	17
120	121	5
168	168	31
192	193	5
150	151	3
16	17	12
70	70	22
171	171	18
186	193	6
127	128	2
46	47	12
165	167	4
104	123	1
25	25	6
72	72	7
193	195	4
143	144	18
162	162	2
174	175	3
47	53	2
94	94	17
25	27	11
0	3	12
79	80	12
189	189	11
77	81	1
164	180	1
93	94	3
18	170	1
151	152	10
161	163	6
32	33	4
163	167	1
195	196	12
130	130	15
147	157	1
119	119	13
27	28	11
160	182	7
11	11	12
114	180	4
66	68	1
19	20	4
138	141	2
159	181	1
29	32	7
185	187	2
35	36	2
53	54	8
105	105	23
6	9	2
154	168	2
154	178	3
64	68	2
1	21	1
103	104	3
84	86	1
28	79	3
155	156	15
184	184	19
78	78	6
182	183	9
172	172	9
137	139	7
24	25	4
191	191	16
183	184	7
108	113	2
117	117	14
76	77	2
164	166	6
70	71	8
71	80	2
179	186	4
19	22	2
115	115	11
78	120	1
134	134	15
76	76	8
149	150	5
54	62	3
102	105	1
32	32	21
61	64	7
23	37	2
101	111	4
62	62	12
51	56	1
162	164	4
43	43	24
89	89	6
187	187	20
13	14	6
176	177	10
97	98	1
170	171	12
50	51	4
64	64	2
33	41	3
172	179	1
156	176	3
49	50	5
142	142	7
39	41	8
47	48	10
5	25	3
31	48	3
95	108	2
65	65	11
134	139	2
121	121	8
148	151	1
39	39	10
56	58	3
186	187	9
134	140	2
167	168	4
170	180	6
22	26	3
23	73	2
23	44	1
22	25	9
53	93	3
20	172	4
30	32	3
34	37	3
40	42	2
134	136	3
38	42	2
26	35	4
18	19	6
0	41	1
144	144	2
180	182	2
125	125	9
23	175	3
34	43	10
42	43	7
85	85	3
145	146	5
51	55	2
73	87	3
155	194	4
60	64	3
163	169	1
130	188	2
0	19	6
128	136	1
86	87	6
152	154	8
146	169	1
14	38	3
118	139	1
160	179	1
76	159	2
122	123	1
10	13	7
53	55	3
158	160	3
71	73	4
82	134	2
168	169	7
108	115	3
105	128	6
129	129	15
51	52	7
123	135	4
55	55	10
184	185	7
106	106	7
102	107	1
188	197	2
111	112	8
142	146	1
95	95	4
31	32	10
158	181	5
103	105	2
15	30	3
10	10	15
94	133	1
123	127	1
63	66	1
175	178	7
78	88	3
134	166	4
172	177	2
172	175	2
5	6	11
81	81	3
54	194	2
10	188	1
6	7	3
150	185	4
160	180	2
144	145	8
196	196	14
94	96	3
130	165	2
163	164	9
101	102	1
68	68	8
33	36	3
4	8	3
107	108	1
8	37	5
30	31	7
66	80	1
38	38	5
27	34	6
178	186	2
142	145	3
68	76	3
26	28	2
33	44	3
132	135	2
122	133	2
8	18	3
141	143	3
156	173	2
40	41	4
41	58	3
44	46	1
81	132	6
191	192	3
133	136	2
93	93	4
141	142	1
39	42	3
72	89	2
153	155	2
162	166	1
179	180	5
57	58	1
21	22	4
143	147	4
183	193	1
24	37	3
15	169	4
131	133	2
122	125	2
116	179	2
177	178	3
3	7	2
119	187	1
113	117	5
30	138	1
159	159	16
0	2	2
158	196	2
190	192	5
64	76	4
80	82	4
62	68	1
100	101	1
173	178	1
81	85	4
9	38	3
132	145	3
114	115	9
36	44	1
19	37	1
94	95	2
167	167	8
25	26	1
4	7	1
73	114	2
29	33	3
40	162	2
70	72	2
84	85	3
152	169	1
84	84	7
175	176	7
52	185	4
60	89	5
154	183	3
164	164	7
188	189	6
101	114	3
105	124	1
88	88	3
5	18	1
150	172	1
6	35	3
60	61	8
3	19	2
7	19	2
166	168	4
178	179	2
118	190	1
150	152	3
150	184	1
132	133	2
2	23	1
114	123	2
176	179	2
143	143	6
73	125	2
133	139	1
150	173	2
122	185	1
112	113	5
108	109	1
20	24	5
125	127	2
183	185	2
75	76	1
66	67	3
76	90	4
118	140	1
69	71	2
156	193	2
77	87	2
140	145	1
109	109	7
108	134	1
189	190	3
15	18	1
139	144	2
24	26	1
27	29	5
155	159	5
49	160	4
62	63	2
4	6	1
28	30	3
153	177	3
106	115	2
106	108	5
157	159	1
88	93	5
182	185	3
24	176	5
157	174	3
58	148	2
32	35	4
59	70	1
22	43	2
0	42	2
39	40	6
51	69	4
124	125	1
113	115	2
61	62	1
6	43	2
68	73	2
145	148	2
10	14	3
7	24	3
23	35	3
175	175	6
74	76	3
161	172	2
79	86	4
58	65	1
83	85	4
114	191	1
158	177	3
64	66	1
71	127	3
137	138	2
159	179	2
132	136	2
140	148	2
153	178	1
32	36	2
146	153	2
133	141	1
196	197	1
110	114	2
124	128	4
73	74	2
6	36	1
129	131	2
128	130	1
26	27	6
118	178	1
179	181	1
19	36	2
37	43	2
19	23	1
134	138	1
164	179	1
41	61	1
138	194	1
189	196	2
175	197	4
156	159	2
186	188	1
96	97	3
83	119	1
48	49	2
156	182	2
7	35	1
183	186	4
190	191	5
171	180	1
77	78	1
11	14	1
1	38	3
44	94	1
108	112	3
101	112	1
105	121	1
147	161	1
59	63	2
175	177	2
166	173	1
132	144	1
75	75	2
56	193	1
135	166	2
51	149	1
161	165	1
123	126	1
41	42	1
65	69	3
168	191	1
179	189	1
10	39	1
135	137	1
129	149	1
147	154	1
152	153	4
46	54	1
155	157	3
163	180	1
115	116	3
128	133	4
52	184	2
0	5	2
61	77	1
47	167	1
158	161	1
156	158	2
36	43	2
2	3	2
161	169	2
65	68	2
118	151	2
145	154	1
4	25	2
23	25	2
43	52	2
61	76	2
4	43	1
67	71	1
89	90	3
151	154	2
63	65	3
8	16	1
46	53	2
152	178	1
159	182	1
8	15	1
179	197	1
66	69	1
181	185	1
191	193	2
15	20	1
105	123	1
64	67	1
78	90	1
31	54	1
124	129	1
167	169	2
5	17	1
103	106	2
145	147	2
74	89	1
0	23	2
31	52	1
107	115	2
173	179	1
179	182	2
131	132	1
69	127	1
85	87	1
146	148	1
124	194	1
127	134	1
126	138	1
130	132	1
85	122	4
11	12	1
6	20	1
102	104	2
34	44	1
16	19	3
142	143	1
180	183	1
39	43	1
104	119	1
12	48	2
47	54	1
1	22	1
104	115	1
85	119	1
59	62	1
133	138	1
55	194	1
146	161	1
107	113	1
123	124	1
22	36	1
160	162	1
164	168	2
41	167	1
71	72	1
26	34	1
185	188	1
157	178	1
142	156	1
150	176	1
