22	23	4
16	16	16
92	94	4
73	75	1
126	126	15
71	76	4
13	13	28
52	52	17
49	50	4
46	47	2
118	119	6
5	6	3
31	31	16
65	65	12
39	39	26
42	42	9
62	99	6
109	112	2
2	2	13
91	93	2
111	112	5
75	75	25
44	44	13
119	119	19
116	118	4
30	30	9
5	5	9
95	95	17
45	46	4
33	33	14
113	121	2
58	58	15
47	60	1
41	41	16
93	94	9
3	4	5
102	103	7
12	12	18
131	132	4
114	114	10
106	106	17
93	95	10
23	24	8
14	27	3
34	34	6
115	119	2
63	63	18
127	129	3
117	117	18
19	22	5
86	86	19
28	30	2
63	125	1
127	127	5
121	121	18
26	26	10
131	133	7
96	96	28
9	9	6
18	18	6
2	4	4
54	54	22
69	69	18
66	66	24
28	28	10
133	133	14
103	104	4
85	87	1
82	82	9
108	109	11
27	30	6
115	115	29
47	47	23
49	71	3
4	4	15
51	52	6
130	130	17
19	60	1
25	26	7
71	71	19
124	125	5
61	61	6
83	83	7
40	41	4
104	104	8
108	111	5
77	77	15
129	130	7
80	80	14
14	14	9
14	16	4
76	76	17
78	80	1
73	73	1
15	16	2
58	71	1
49	49	13
41	42	4
95	119	3
85	86	7
90	91	2
56	56	20
27	28	5
15	15	6
1	6	5
27	27	23
9	10	10
69	71	2
19	26	4
23	23	13
98	118	3
81	82	6
78	79	5
50	50	17
64	64	12
3	3	16
32	33	11
98	126	4
101	102	3
94	105	2
113	113	9
5	7	4
21	26	5
67	78	3
29	30	2
103	103	9
45	45	10
117	118	2
0	1	12
24	24	10
21	27	2
62	62	11
56	57	2
84	88	1
97	97	8
87	87	11
122	122	9
110	110	17
11	11	12
32	40	2
69	112	3
43	44	2
6	7	1
116	117	13
130	131	8
22	97	1
74	74	4
105	105	9
103	105	3
38	38	10
19	20	9
112	112	23
89	90	5
104	105	4
71	108	5
98	98	4
39	65	2
107	107	15
11	12	9
3	7	3
89	94	3
8	8	11
57	57	20
113	114	8
0	0	10
44	127	2
89	91	4
10	11	5
14	15	9
91	92	2
93	93	7
90	90	7
33	38	1
25	25	10
13	88	1
53	53	15
64	65	1
91	91	10
11	15	1
37	37	4
64	69	3
107	108	5
85	85	5
48	48	18
23	28	3
109	124	5
94	94	7
81	83	2
99	99	11
7	8	8
96	97	3
92	92	15
1	3	2
104	130	1
92	93	5
49	51	2
111	113	10
79	90	2
101	101	10
124	124	10
41	77	1
125	125	14
108	108	7
39	109	8
84	85	1
43	43	7
125	126	7
100	100	4
7	7	6
109	109	12
91	117	2
1	5	2
50	51	4
19	19	4
18	21	3
63	105	4
80	87	4
60	62	4
40	40	8
59	59	8
17	98	1
76	77	2
82	87	1
81	81	1
51	51	16
15	18	3
23	97	2
132	132	10
63	96	2
69	70	3
72	72	9
84	86	10
122	123	5
0	2	4
39	40	3
110	111	2
84	84	7
68	68	8
94	117	2
52	53	4
120	120	5
84	87	4
73	74	6
6	6	6
46	46	16
34	55	3
13	14	2
12	31	2
11	23	6
53	54	5
118	118	9
87	89	1
17	17	2
42	75	2
87	88	8
47	48	4
128	128	5
88	88	11
57	58	4
38	39	8
88	90	2
29	31	1
18	30	1
18	73	2
42	78	2
129	129	2
10	10	23
95	98	3
125	129	2
63	99	1
93	107	5
70	71	2
16	69	3
54	69	2
20	20	9
70	72	5
100	102	2
19	23	2
20	105	1
109	113	2
32	95	2
3	5	1
123	123	10
31	32	10
78	78	8
86	87	5
130	132	1
79	79	17
63	77	2
120	121	1
62	96	2
33	34	1
11	32	2
63	64	5
46	48	2
85	89	3
12	80	3
95	96	2
40	77	2
42	43	6
79	80	1
116	116	8
29	29	5
44	126	2
2	5	1
77	78	4
55	55	12
21	30	3
66	78	5
67	68	4
62	81	5
98	99	4
48	49	6
111	111	9
1	1	5
101	106	2
115	116	7
117	119	1
102	102	11
105	106	6
58	60	3
131	131	10
32	32	1
13	29	1
7	28	3
21	21	3
62	63	2
72	77	3
20	21	1
102	126	3
89	106	2
69	74	1
44	65	2
20	76	1
22	22	1
4	5	2
48	50	3
65	66	2
102	105	2
21	80	1
80	81	2
32	34	4
55	67	1
105	131	3
17	24	2
23	26	2
24	25	2
60	60	6
124	130	1
22	24	1
54	68	2
55	68	2
2	6	2
98	106	2
40	64	1
11	18	1
96	98	2
3	8	1
114	118	1
94	127	2
45	47	1
67	67	5
11	31	1
70	70	2
44	92	1
45	57	1
89	89	5
52	72	2
16	17	1
126	127	3
47	100	2
86	108	2
17	18	1
114	115	1
16	31	2
64	104	1
104	126	1
28	29	2
42	79	1
56	76	1
23	32	2
9	65	1
65	80	1
72	76	2
93	117	2
94	125	1
20	29	1
2	3	3
68	77	1
11	16	1
30	31	2
48	56	2
125	127	1
53	59	1
61	62	1
69	73	1
100	101	1
1	2	1
104	125	1
45	65	3
127	128	1
22	31	1
47	58	1
49	58	1
94	130	2
101	103	1
55	63	2
106	107	1
97	103	2
75	76	1
19	73	1
106	108	1
128	130	2
26	32	1
122	124	1
62	83	1
103	127	1
8	9	1
109	110	1
19	29	1
45	66	1
88	89	1
110	113	1
24	26	1
