120	124	3
99	101	3
14	14	5
3	3	16
27	28	3
32	32	11
126	138	1
65	66	3
115	117	8
17	114	2
145	145	14
19	19	18
129	130	6
117	117	7
40	40	6
6	98	2
124	124	11
27	27	15
80	80	7
72	78	2
77	77	14
37	121	3
71	78	1
29	128	1
128	128	29
58	61	4
109	109	7
123	123	9
103	103	11
127	127	10
13	14	8
17	17	16
54	54	15
121	122	6
69	86	3
62	62	12
8	8	23
104	104	7
63	145	3
110	120	2
119	122	4
22	22	34
96	96	18
97	98	7
76	76	10
137	137	10
49	49	5
65	88	2
105	105	3
131	134	4
71	74	1
66	68	5
55	132	1
62	65	3
134	134	9
58	58	3
63	63	6
126	126	13
114	129	9
9	9	15
4	5	3
40	41	8
126	127	13
64	65	3
93	93	10
43	43	4
84	84	6
84	115	5
83	105	3
50	51	2
86	87	2
130	130	9
62	101	1
111	125	3
144	144	12
56	56	11
83	83	9
127	129	2
39	48	4
1	1	9
71	97	8
10	13	2
122	122	10
56	58	1
139	139	15
106	107	3
73	73	10
25	25	20
131	131	16
115	125	2
116	118	2
16	16	14
54	55	10
95	95	14
89	118	1
132	134	1
86	86	7
68	72	2
79	79	13
77	78	3
0	0	5
1	2	9
141	142	6
57	130	2
114	116	1
69	140	3
141	141	20
57	57	12
116	117	4
11	11	7
119	119	7
112	112	11
15	15	16
55	55	14
21	22	4
69	70	2
74	74	8
10	10	3
144	145	3
131	136	2
24	24	5
74	79	1
132	136	5
49	50	5
39	39	6
97	117	6
124	125	6
62	91	6
65	81	2
87	87	7
113	114	13
76	77	2
76	110	1
63	64	8
54	57	2
101	101	23
18	22	2
105	106	4
131	133	5
116	116	7
90	90	11
37	37	15
35	35	12
67	68	6
53	53	2
26	26	6
117	122	4
66	67	8
18	96	1
15	16	2
125	127	4
132	132	13
91	91	13
89	89	4
136	137	4
73	77	1
114	115	6
138	143	2
88	88	16
17	143	2
110	143	2
75	75	7
100	100	5
98	98	12
115	116	1
127	128	6
120	122	4
33	33	10
2	5	7
138	140	1
62	63	9
94	94	12
59	61	6
114	114	9
71	71	10
48	48	10
69	69	9
50	50	9
69	71	5
29	29	9
83	84	1
41	42	5
38	38	19
36	36	6
135	135	18
14	32	2
10	17	3
34	35	11
66	141	3
69	75	2
20	20	9
34	34	6
96	97	3
133	133	19
2	2	3
113	113	8
87	124	2
14	74	3
137	138	3
108	109	1
1	6	2
104	109	1
89	90	8
142	142	10
102	123	2
108	108	11
12	12	5
139	140	3
102	103	2
51	51	5
25	27	3
128	131	5
82	83	2
70	137	1
99	99	11
66	100	3
104	131	2
33	34	7
112	120	4
66	95	2
67	67	10
134	136	2
64	64	8
132	135	2
117	119	2
121	121	9
47	47	7
107	108	5
92	94	3
81	81	8
52	53	2
106	106	9
70	71	7
22	60	3
125	136	3
68	69	1
81	107	3
4	36	5
6	6	15
66	69	3
1	32	3
75	76	5
13	13	4
49	53	2
23	23	3
70	76	1
1	33	3
125	125	3
4	4	5
76	81	1
84	109	2
51	55	7
8	134	1
5	5	10
56	84	2
112	113	4
87	89	6
134	135	3
83	85	2
129	131	3
89	119	2
4	34	1
23	27	1
85	85	3
72	130	1
71	85	3
140	140	2
136	136	7
86	118	2
97	97	14
1	35	1
70	70	3
62	94	1
140	141	7
18	18	10
130	133	3
16	66	3
68	107	1
66	66	8
33	35	4
39	40	4
135	137	5
130	131	2
42	42	4
72	73	1
90	94	6
124	141	2
65	93	3
99	127	1
59	59	6
20	140	2
14	19	2
16	110	1
31	55	2
31	31	6
11	20	4
16	101	2
6	31	4
123	124	2
36	37	3
58	59	5
65	67	1
111	112	8
86	91	2
35	36	2
95	96	1
110	112	2
120	120	3
138	138	7
6	32	3
10	18	1
146	146	7
70	73	1
122	126	2
13	122	1
134	139	3
49	52	2
120	123	1
61	61	6
21	21	4
24	25	8
72	99	3
26	33	2
136	140	4
78	78	4
34	37	1
41	90	3
11	14	3
101	102	2
69	96	1
134	138	3
55	57	3
118	119	9
135	136	1
82	97	2
106	120	2
28	28	6
100	101	1
68	68	3
77	80	3
111	111	2
17	113	1
72	72	6
93	95	2
74	76	4
124	126	2
31	34	4
115	115	7
100	115	1
61	64	1
23	24	4
49	51	3
9	10	4
132	133	3
28	29	2
14	140	2
71	72	10
69	89	2
51	52	2
12	126	2
136	138	8
96	122	2
76	93	3
25	26	3
73	74	2
104	106	1
92	92	3
13	20	3
86	95	3
59	60	2
118	118	6
33	43	2
122	123	3
60	61	2
67	123	1
118	121	3
107	130	1
142	143	4
129	129	10
57	62	2
65	65	2
81	84	1
70	132	3
61	84	5
112	114	1
82	82	1
118	122	3
15	64	1
16	140	2
107	110	1
107	128	1
127	130	2
107	107	3
15	140	3
32	40	1
98	100	1
9	13	2
86	107	3
84	120	1
83	109	2
70	139	1
118	144	1
5	6	1
30	30	6
10	19	1
48	49	2
18	27	1
31	32	2
2	6	2
112	123	1
34	36	2
9	43	1
79	80	1
70	72	1
65	76	1
123	134	1
40	47	1
7	13	1
102	111	1
72	75	2
12	15	2
128	135	1
110	111	2
74	103	1
120	125	1
61	63	2
71	135	1
143	143	11
131	141	1
16	64	1
6	122	2
13	17	4
93	94	2
3	4	5
71	73	2
17	20	2
109	110	1
67	89	1
55	56	1
8	30	1
102	102	2
36	41	2
131	132	2
114	118	2
121	135	2
131	135	2
64	89	1
0	33	1
16	113	1
117	121	1
3	11	1
43	48	1
68	70	2
60	60	4
16	17	1
136	139	1
6	10	1
129	136	1
85	106	1
3	5	2
24	26	2
67	122	1
138	139	5
82	95	1
81	110	2
30	31	1
16	111	2
2	33	1
87	88	1
68	81	1
90	93	2
38	48	2
97	111	1
141	144	1
67	124	3
85	109	2
104	111	3
90	91	1
19	63	5
56	57	1
61	82	1
74	129	1
125	126	1
85	108	1
133	135	2
2	10	1
66	99	1
104	108	1
40	42	1
110	139	1
32	55	2
135	138	1
19	27	1
15	114	1
78	79	2
5	134	1
75	80	1
70	78	1
119	120	1
98	99	2
2	3	1
56	62	1
110	141	2
86	126	1
18	19	2
99	100	1
15	121	1
64	81	1
76	78	1
32	38	1
89	93	1
87	98	1
5	13	1
75	82	1
85	86	1
72	85	2
12	13	2
19	20	2
130	134	1
81	82	2
117	118	2
87	92	1
42	49	1
81	115	1
132	139	2
57	59	1
110	115	1
109	124	1
37	38	1
94	95	1
113	137	1
85	114	1
111	118	1
