63	68	5
55	89	3
44	45	9
52	52	11
63	63	22
80	80	8
77	77	24
95	95	7
66	66	16
85	85	13
76	76	13
91	95	4
67	67	17
81	81	6
69	72	2
56	57	3
40	40	28
68	68	23
57	96	3
40	68	2
39	39	16
37	37	15
65	66	6
33	33	10
41	83	1
96	97	14
87	87	11
33	35	1
60	62	4
36	36	7
88	88	7
86	88	5
49	49	24
90	90	20
37	88	6
58	58	14
89	89	13
70	70	9
66	68	2
98	100	6
70	76	2
35	36	4
39	88	3
65	65	19
64	64	23
101	101	7
44	52	3
99	99	11
50	50	7
94	94	10
29	36	5
40	78	1
95	97	6
96	98	3
73	73	22
60	60	15
57	57	16
92	94	9
59	59	16
63	64	9
74	74	17
58	59	11
80	81	8
62	63	2
58	86	10
100	101	2
44	63	1
71	71	9
43	43	13
98	99	8
61	61	7
38	81	2
100	100	7
47	65	6
71	78	6
27	27	6
52	60	4
38	39	5
56	56	5
83	84	4
45	97	3
54	54	4
35	35	3
94	96	3
45	82	2
35	38	1
71	76	2
43	44	2
76	79	3
20	87	2
58	61	11
82	84	6
92	92	13
98	98	10
97	97	5
29	35	1
61	80	8
49	50	12
57	58	5
86	86	12
46	47	5
46	81	4
31	31	6
53	94	7
55	55	7
58	95	1
91	91	7
96	100	4
66	67	5
29	98	2
45	45	8
44	44	5
64	65	4
47	60	1
47	47	6
22	26	4
57	100	3
69	69	7
38	38	5
34	66	7
83	94	3
75	75	25
29	81	2
25	25	11
46	89	3
38	87	3
86	89	7
87	88	9
55	62	1
33	46	1
27	28	3
97	98	8
51	52	6
78	78	3
26	26	9
51	53	5
47	71	1
68	69	4
46	100	1
74	75	5
41	41	15
86	98	4
79	80	5
87	101	5
49	51	4
87	99	2
53	53	18
62	62	10
20	20	1
40	75	6
55	56	2
96	96	7
28	65	6
101	102	2
77	78	1
48	48	12
42	42	12
51	51	5
45	102	4
95	96	5
81	84	3
41	42	5
74	85	3
31	34	2
72	75	2
32	93	1
39	75	3
88	100	2
22	22	1
93	93	7
93	94	1
37	82	2
85	95	7
32	32	2
41	88	2
49	52	5
23	23	1
74	101	1
47	48	6
59	60	4
52	54	4
52	91	1
56	100	1
31	80	1
84	84	7
72	72	15
71	81	4
29	57	2
92	93	4
34	34	4
52	53	4
53	55	4
60	61	2
31	33	7
52	55	4
86	87	4
80	100	2
57	92	2
70	71	1
53	54	1
73	91	2
36	37	1
55	93	3
53	56	5
86	93	3
68	85	2
80	82	8
55	92	1
42	43	1
71	72	6
79	100	1
83	83	3
87	94	1
70	77	4
38	84	4
75	85	4
46	46	5
22	25	3
59	86	2
95	98	2
36	39	3
39	82	2
42	86	2
78	96	2
81	86	3
99	100	1
48	51	3
63	102	1
29	38	2
81	89	2
22	24	1
99	101	2
54	55	6
60	66	1
42	44	2
73	89	1
63	70	1
81	83	2
62	90	1
29	33	5
24	24	2
34	51	1
47	51	1
48	50	1
35	67	2
29	29	3
72	73	1
41	69	1
54	93	1
76	80	1
84	101	3
79	79	8
77	79	2
41	78	1
45	51	1
43	52	2
67	68	2
67	69	2
47	54	1
78	79	1
41	86	1
70	79	1
32	79	1
91	92	1
33	36	2
69	70	2
93	95	1
38	93	1
29	88	1
35	55	1
57	88	1
79	85	2
94	95	2
82	82	1
64	95	1
70	72	1
64	68	1
58	93	2
45	90	1
44	48	1
36	48	1
67	75	1
52	81	1
45	64	1
48	52	1
