15	15	17
93	93	7
89	115	3
193	194	10
32	32	12
27	28	14
187	189	4
131	131	15
39	41	3
170	170	22
3	39	3
192	193	11
153	153	18
152	153	8
29	29	16
148	151	2
175	176	5
151	152	6
22	23	2
124	124	9
129	129	5
156	156	11
56	56	20
127	127	8
149	149	17
52	52	13
173	174	9
184	184	18
133	133	7
180	180	15
160	161	5
160	163	1
43	43	17
56	57	9
136	136	4
170	172	6
171	172	5
123	123	18
99	118	4
85	85	5
105	105	11
150	150	12
168	168	25
34	35	10
54	54	10
97	119	1
30	30	13
2	2	17
12	12	8
19	178	1
64	67	8
142	146	1
142	142	15
59	59	9
185	185	33
140	153	3
133	134	5
127	128	5
182	182	17
48	48	14
16	16	15
188	188	17
111	134	1
152	152	20
116	120	2
130	132	2
9	9	23
50	65	1
0	4	3
179	179	7
78	119	2
6	64	2
130	130	11
141	154	2
148	148	6
24	25	8
112	113	6
83	83	8
132	132	11
94	95	4
97	97	3
155	166	1
27	27	9
76	118	3
84	85	3
86	115	1
163	164	16
187	187	23
168	169	12
195	195	24
5	6	7
72	73	11
25	26	7
177	177	12
141	142	8
140	147	7
176	183	3
186	186	16
174	175	6
8	8	4
99	119	4
190	190	16
119	119	12
22	25	3
180	181	5
55	56	6
14	14	22
111	111	10
66	73	1
37	37	11
194	194	26
120	120	14
68	68	5
39	40	5
4	24	3
140	140	17
164	165	11
193	193	21
23	24	4
163	163	5
33	38	3
124	125	10
139	139	11
145	157	1
13	13	18
162	162	10
157	159	2
40	42	5
197	197	12
171	171	16
10	10	14
66	67	4
172	172	8
34	36	8
129	130	6
36	36	16
185	189	4
58	59	9
138	138	20
64	68	6
55	55	12
14	15	2
46	46	10
87	87	5
156	166	3
147	152	2
7	8	7
58	62	4
28	28	18
184	185	6
142	144	2
117	117	15
70	70	14
135	136	8
17	17	9
35	36	3
35	35	23
47	47	9
163	182	2
147	153	4
4	23	1
77	78	2
104	106	4
176	176	17
93	96	2
159	159	3
167	168	2
4	4	8
173	173	18
114	114	15
165	166	13
31	31	12
146	149	2
154	154	16
77	77	12
33	39	4
145	146	11
196	196	12
149	172	1
167	167	19
122	196	2
26	26	10
158	158	11
81	82	5
113	113	11
177	178	2
155	156	6
164	169	2
165	165	13
141	141	20
108	111	3
166	166	9
155	158	4
4	5	6
134	135	12
146	146	19
51	52	3
122	122	18
166	167	3
185	188	4
161	162	16
154	157	2
88	89	6
153	154	3
137	137	6
161	161	20
5	28	1
109	110	1
48	50	2
76	79	1
130	131	2
169	169	13
105	107	3
60	60	3
141	162	4
187	192	5
53	56	3
29	30	4
140	141	7
3	3	3
21	21	14
191	191	13
1	1	6
186	187	10
159	161	1
22	22	20
153	157	1
148	162	6
142	158	1
9	10	3
161	167	4
155	155	5
141	147	3
103	103	14
41	42	6
101	103	3
35	143	1
88	88	5
26	29	2
33	33	6
145	151	1
120	121	4
157	158	7
26	27	7
79	79	9
107	111	1
18	19	5
150	151	4
37	38	3
116	118	1
137	138	5
147	147	12
5	5	12
80	80	6
111	112	4
82	82	1
93	95	5
55	58	3
86	86	8
158	159	5
112	112	7
77	79	6
145	148	5
36	37	4
7	7	6
72	72	10
107	108	9
35	175	3
33	36	4
20	21	3
172	173	6
45	45	7
139	145	1
182	183	3
24	24	6
23	23	14
161	164	12
28	30	1
183	183	17
176	177	6
11	12	6
142	143	4
181	182	7
59	60	1
25	25	9
82	84	4
20	20	9
99	99	12
164	164	6
161	163	7
147	151	7
151	151	14
166	169	2
39	39	9
185	186	5
116	117	6
110	110	6
157	157	13
149	153	11
178	178	15
174	174	18
44	44	11
42	42	3
163	168	3
71	71	3
16	17	3
66	69	2
61	61	9
27	37	2
64	64	3
106	107	2
108	109	14
169	170	6
32	33	8
189	189	17
138	139	1
158	164	1
49	49	12
30	42	9
20	40	1
175	175	8
116	116	8
11	11	14
179	181	4
82	83	6
76	76	3
114	119	1
115	135	3
148	150	4
95	95	5
34	34	9
50	51	7
102	105	3
125	126	13
67	70	2
94	96	2
149	151	4
145	155	2
80	84	3
191	192	7
115	115	11
88	94	2
158	166	1
123	124	6
27	30	5
98	98	2
59	65	1
115	176	2
161	181	3
102	102	8
0	0	8
1	2	5
149	150	4
15	20	1
139	141	2
89	116	2
73	73	3
121	121	11
74	75	5
31	197	5
156	159	8
117	119	1
22	24	7
136	139	7
169	180	4
135	137	7
58	58	11
81	81	3
10	12	2
135	140	6
159	160	4
183	191	1
77	117	1
78	78	12
135	144	1
166	180	5
127	197	1
100	100	6
191	193	3
62	63	7
144	144	10
134	140	3
66	66	4
146	147	6
89	89	4
121	122	5
172	176	4
19	19	14
134	141	3
6	6	3
114	115	8
1	50	2
135	135	8
140	143	1
110	111	4
167	173	2
107	107	10
139	140	8
94	94	4
44	45	8
165	168	5
192	192	6
165	181	2
105	112	2
143	143	4
162	163	4
173	178	3
148	196	1
147	161	1
108	108	9
134	147	1
51	51	11
93	120	1
20	34	1
128	128	7
132	133	1
18	18	5
96	96	4
5	64	2
47	121	3
176	178	5
118	118	12
187	188	15
95	96	2
37	39	1
1	3	2
102	103	5
157	166	3
142	145	2
59	68	3
60	61	2
188	189	8
40	40	7
171	175	2
0	1	3
119	197	2
103	106	3
182	191	2
84	84	2
144	167	4
69	69	5
113	114	7
167	170	1
159	165	4
15	183	1
10	15	2
138	143	1
76	78	1
31	32	15
20	35	1
179	184	3
83	85	1
153	179	1
169	172	2
21	41	1
177	179	2
190	193	2
83	84	4
101	106	3
174	176	5
29	35	2
119	123	1
151	155	6
160	160	4
154	174	1
53	53	3
120	123	2
38	38	15
109	109	5
1	57	1
134	134	9
30	149	1
10	11	6
148	179	2
162	165	10
141	158	2
28	29	7
13	14	8
67	67	6
3	6	4
119	127	1
57	57	2
196	197	3
6	41	3
104	108	5
173	176	2
156	157	3
145	145	9
183	187	5
16	19	1
80	81	4
49	50	1
3	7	4
87	89	3
174	181	3
51	54	5
190	191	5
165	167	2
4	25	3
160	166	4
2	22	4
147	148	7
120	150	1
86	88	3
2	6	4
104	104	9
166	168	2
2	5	2
19	34	1
30	38	3
56	144	2
99	100	3
3	4	1
168	171	1
106	106	8
52	173	1
150	152	3
24	26	3
195	196	4
162	164	1
54	67	2
143	154	1
138	141	1
189	190	10
180	182	7
188	190	2
48	71	1
117	118	2
148	149	4
187	190	1
4	40	2
25	33	3
145	150	2
69	149	1
114	143	2
164	166	2
105	106	3
156	158	2
57	58	2
126	127	2
28	34	1
111	116	1
49	52	1
123	126	1
168	177	4
111	115	1
138	146	1
45	46	8
181	197	2
17	18	1
108	110	1
66	68	2
87	90	1
71	73	3
183	185	1
115	131	1
31	36	1
122	126	2
159	169	3
181	181	8
59	61	3
160	175	1
67	71	2
14	31	2
101	101	2
121	123	3
8	54	2
6	72	4
33	35	1
135	139	1
143	146	2
153	178	1
122	123	4
20	22	1
64	66	1
30	31	6
144	154	2
119	151	1
194	195	2
174	178	2
166	171	1
125	125	4
154	178	2
84	86	2
69	70	1
161	165	1
154	155	1
71	72	1
117	120	1
16	18	1
170	171	2
112	115	2
93	124	1
5	40	2
74	74	5
177	182	1
131	146	1
3	58	2
21	22	1
8	51	4
43	44	10
34	179	1
138	149	2
120	142	1
114	118	1
103	105	2
53	58	1
116	119	1
76	80	2
189	193	2
131	135	2
100	101	1
149	159	1
101	105	5
76	117	1
136	149	1
186	189	2
141	146	1
175	179	1
97	98	1
90	95	2
5	38	1
17	176	1
4	39	2
93	119	3
87	107	1
176	179	1
139	143	1
118	119	4
156	167	4
107	141	1
179	182	2
170	173	1
183	193	1
186	193	2
133	135	1
175	177	1
136	156	2
154	182	1
8	67	1
114	116	1
143	145	2
50	50	6
70	71	3
38	40	3
11	172	3
35	37	1
106	111	4
115	116	2
163	165	3
134	143	1
112	134	1
126	126	2
119	121	1
41	41	2
19	35	2
6	7	2
29	34	1
96	97	1
62	62	1
104	112	1
173	177	1
110	112	1
111	131	1
24	114	2
95	97	1
25	29	1
168	170	2
182	186	1
87	115	3
63	63	1
13	37	1
43	45	2
3	14	2
190	192	1
65	67	1
143	144	2
17	33	1
181	184	1
174	182	1
149	184	2
165	171	1
98	118	1
19	60	5
40	41	1
162	167	1
73	74	1
45	62	3
143	162	1
49	141	1
18	20	2
172	185	1
86	87	2
184	186	1
102	104	1
54	55	1
141	143	3
75	76	1
48	70	1
125	133	1
25	27	1
5	46	1
130	134	1
38	43	2
150	184	1
133	138	1
19	20	2
0	2	1
46	47	1
122	125	1
167	183	1
42	58	2
54	56	1
140	145	1
43	60	1
140	144	1
137	175	1
174	197	1
143	156	1
51	56	2
143	155	1
115	118	1
67	68	1
167	171	1
161	170	1
18	21	1
166	181	2
88	106	1
111	124	1
78	79	1
132	140	1
