26	26	16
35	47	1
25	46	2
83	83	5
20	20	10
27	27	17
101	101	24
37	38	10
10	11	5
12	12	14
124	124	13
48	77	3
69	69	19
119	119	6
68	68	25
131	131	13
13	46	2
115	116	3
93	93	19
113	113	12
76	76	21
10	21	5
99	99	19
100	100	13
113	114	8
74	74	17
32	32	11
96	130	1
25	25	20
79	79	18
10	10	20
40	41	8
61	61	19
11	11	29
38	81	2
32	40	7
108	108	11
130	132	2
7	29	5
17	17	7
94	96	4
60	60	11
28	28	22
86	86	15
31	31	19
133	134	1
104	106	3
14	14	7
75	75	19
44	44	14
70	70	11
80	80	22
5	7	1
82	83	11
13	13	20
5	5	7
73	73	21
66	66	23
78	79	1
2	2	6
77	77	13
61	62	2
93	101	2
8	8	14
30	58	2
67	68	1
33	33	16
49	87	2
110	111	4
27	29	5
37	37	15
90	90	23
16	67	1
46	46	36
87	88	5
19	19	7
33	34	9
55	56	14
92	92	9
95	96	15
102	103	2
90	91	5
43	43	15
31	32	10
28	83	4
68	69	7
5	15	2
126	128	4
16	16	8
126	127	4
49	49	12
16	17	2
117	117	5
81	83	1
63	63	15
125	125	3
99	100	12
92	93	11
50	50	5
10	73	1
7	44	3
20	71	2
79	83	5
90	98	4
11	12	6
98	99	9
29	29	12
51	51	1
81	94	1
45	63	4
78	78	10
28	88	3
57	58	14
71	71	8
94	94	18
46	72	4
9	10	2
112	121	1
72	73	8
30	30	7
114	114	16
40	42	5
4	4	12
92	116	2
34	35	7
62	66	1
24	24	10
104	105	4
28	98	2
127	127	9
10	12	1
107	107	4
106	107	11
26	27	8
123	124	3
33	45	2
39	42	2
29	30	7
93	94	3
115	120	2
3	3	8
111	111	7
22	27	2
47	47	16
103	103	7
61	63	3
10	20	2
21	23	3
45	64	3
25	55	2
72	72	27
87	87	15
61	66	4
67	67	13
95	107	1
120	120	10
45	45	13
18	18	12
48	50	4
36	39	3
14	20	2
35	35	14
128	129	4
58	81	2
41	41	8
92	106	7
36	36	15
70	71	6
23	23	7
45	62	4
104	104	22
81	81	4
8	9	8
97	97	12
9	9	18
34	34	9
112	112	3
91	91	12
82	95	2
26	48	1
90	97	3
5	8	5
88	88	8
7	7	9
102	102	14
15	15	11
35	46	2
85	89	2
76	77	6
78	108	2
45	46	5
17	18	2
97	98	1
64	66	2
127	128	2
11	92	1
114	115	6
92	107	5
89	92	1
57	57	18
95	95	20
83	85	3
26	47	3
132	133	6
35	36	4
100	101	10
88	91	3
64	64	15
6	6	19
49	56	6
126	126	5
98	100	5
81	85	3
98	98	8
85	85	19
78	84	3
62	62	6
96	96	9
23	24	2
130	131	4
39	40	5
59	100	3
83	84	4
48	49	6
130	130	6
49	81	3
48	48	9
15	16	7
42	43	7
42	42	2
84	84	12
56	56	6
49	50	4
41	42	3
118	119	6
105	105	7
85	86	8
126	134	1
91	93	1
66	72	1
112	115	5
36	43	3
28	30	3
106	106	12
84	88	5
35	41	2
32	84	2
27	28	12
69	70	6
79	80	8
3	94	1
122	122	9
7	104	1
96	99	5
116	116	3
127	129	3
45	50	1
124	125	1
94	97	2
57	59	3
40	40	11
5	25	1
58	102	1
95	134	4
22	22	6
79	116	5
131	132	3
65	65	9
60	78	1
15	19	1
123	123	9
0	0	5
121	121	7
24	28	4
7	8	4
82	82	16
103	106	2
21	21	8
94	95	8
24	26	3
30	49	4
110	116	2
30	31	2
115	115	3
31	88	2
61	76	3
16	46	1
19	21	4
116	117	3
81	130	2
31	48	2
91	92	4
28	29	10
25	28	3
111	112	3
86	87	1
26	30	4
11	18	6
59	60	5
21	22	4
20	21	1
38	38	7
25	83	2
64	65	2
11	93	3
32	35	1
59	59	17
40	56	3
129	129	3
132	132	12
75	77	3
111	123	2
134	134	5
35	44	3
117	119	4
56	57	7
4	7	1
79	82	1
7	103	2
101	102	6
96	97	8
38	39	3
49	62	3
118	118	4
77	80	4
32	45	1
27	79	2
31	51	3
89	89	2
26	82	3
4	5	6
8	36	1
60	88	2
126	129	1
44	45	1
13	14	2
5	41	1
88	89	4
59	101	5
33	36	1
46	71	2
103	105	2
25	82	3
108	112	3
18	20	1
20	81	1
93	105	3
84	86	1
30	57	5
90	93	2
62	64	1
81	82	3
1	1	3
14	23	1
71	116	2
10	93	1
110	110	9
5	29	2
13	93	2
95	98	1
108	109	3
6	46	1
30	32	1
109	109	2
6	8	3
133	133	3
15	28	1
21	75	1
24	25	9
125	127	2
78	80	1
25	47	2
123	130	1
104	107	1
19	71	1
54	55	2
86	97	4
83	100	4
93	98	3
29	93	2
109	111	1
19	74	1
82	84	8
58	58	6
30	56	1
84	85	5
60	69	1
84	87	3
95	97	1
73	75	2
75	76	5
14	15	3
45	65	1
5	6	2
59	82	3
11	17	2
7	49	1
66	97	1
66	83	1
35	74	2
6	7	2
8	104	4
3	4	5
96	100	2
71	72	2
90	95	2
62	74	1
11	14	1
23	31	2
21	35	1
128	128	5
7	63	2
121	122	1
7	65	3
24	80	4
73	74	1
36	42	1
71	73	1
63	64	3
60	62	1
85	109	3
13	15	3
16	44	2
45	94	2
114	119	1
46	47	3
86	89	2
66	91	1
20	35	2
91	95	2
42	44	2
55	58	1
16	75	1
25	26	1
19	20	1
7	15	2
87	98	1
83	94	1
83	87	1
11	26	2
105	110	1
79	88	1
15	17	2
8	20	1
34	45	2
115	121	1
23	28	1
39	39	2
91	106	1
91	97	1
78	115	1
112	113	1
85	91	1
71	119	1
47	48	2
120	122	1
26	32	1
60	101	1
6	9	2
77	96	1
12	77	1
27	78	2
85	100	4
9	11	1
27	48	2
102	113	1
29	31	1
57	60	1
66	68	1
4	41	2
101	103	1
55	55	1
81	90	1
23	25	1
59	81	2
72	79	1
46	62	1
67	69	1
122	123	1
12	13	1
31	33	1
32	36	1
28	58	1
44	60	1
27	88	1
58	59	1
22	36	1
9	13	1
57	99	1
120	121	1
80	81	1
80	85	1
27	96	1
35	76	1
89	109	1
2	3	1
18	71	1
20	73	1
129	130	1
14	16	1
19	22	1
8	13	1
22	24	1
126	133	1
16	22	1
34	76	1
27	91	1
27	31	1
50	51	1
85	102	1
3	45	1
