10	10	2
116	116	5
108	109	2
23	23	13
80	80	8
108	139	1
90	130	2
96	96	5
94	94	9
96	102	2
133	133	3
121	139	1
131	131	5
35	35	1
128	130	2
9	9	3
123	125	3
102	102	2
53	53	3
108	108	1
49	79	2
123	129	3
139	139	5
140	140	1
61	73	1
103	103	3
14	14	3
95	95	1
75	79	1
55	55	4
124	125	5
122	122	2
42	118	2
106	144	2
127	127	4
114	114	3
31	56	1
28	29	2
97	97	2
20	20	3
27	27	1
56	56	4
129	129	2
13	13	4
19	19	7
111	112	1
128	128	2
141	141	6
69	83	6
78	128	3
70	70	3
77	77	1
78	79	2
31	32	1
141	145	2
134	135	4
90	90	2
121	121	6
138	139	1
107	107	2
111	111	8
18	19	3
52	52	2
26	104	1
0	0	4
74	74	4
54	54	4
117	120	3
114	121	2
117	125	1
113	114	2
138	138	6
19	109	1
43	92	2
79	84	4
123	137	1
12	31	1
69	69	2
133	143	3
124	124	7
60	61	1
10	40	1
94	145	2
52	68	2
106	135	3
117	118	1
97	98	1
136	137	1
119	119	2
30	30	4
29	29	2
91	91	3
19	81	1
13	34	2
15	81	3
104	104	2
99	143	1
113	113	7
41	41	2
106	106	1
75	77	1
3	3	1
36	37	2
67	82	1
65	110	2
97	103	3
51	51	1
91	92	4
82	82	3
54	62	3
78	129	3
61	61	1
130	130	2
3	4	1
90	134	2
95	102	1
126	126	2
25	26	2
32	32	2
135	135	1
65	85	3
22	28	2
29	70	1
67	67	1
120	126	1
52	83	1
93	94	2
87	88	1
115	130	2
26	26	1
145	145	2
17	17	1
80	100	1
11	79	1
40	40	1
1	1	1
68	76	1
117	117	1
127	128	1
115	115	2
43	43	2
79	80	1
54	55	1
101	101	2
8	10	1
82	84	1
43	69	1
62	63	1
70	79	1
56	77	1
34	34	1
87	87	1
57	69	1
50	51	1
66	66	2
49	49	1
129	130	2
16	16	3
103	130	2
123	123	1
26	27	1
99	100	1
137	138	1
72	74	2
114	128	1
59	59	1
41	119	2
141	142	2
64	64	2
114	115	1
55	56	1
61	62	1
21	21	1
117	127	2
50	80	1
8	8	1
137	137	1
2	3	2
58	83	1
79	120	1
72	76	2
100	101	1
22	22	2
11	55	1
59	106	1
134	134	1
37	37	1
5	5	1
118	141	1
