122	122	40
124	140	2
118	118	11
37	38	8
4	4	9
135	136	15
131	131	39
132	133	9
35	35	27
93	94	6
6	38	1
127	127	24
27	27	10
34	35	6
138	138	12
20	20	11
85	85	12
8	8	9
86	86	13
97	97	26
112	112	8
117	118	6
84	85	5
88	88	9
120	122	4
77	77	17
19	27	1
140	140	28
94	94	17
129	129	34
134	134	50
102	103	4
99	99	9
89	119	2
130	130	48
92	92	13
6	6	10
32	32	18
112	113	4
124	124	31
34	36	9
8	9	2
9	9	13
135	135	26
18	18	10
15	15	6
26	72	2
133	133	27
37	37	14
76	76	15
129	130	9
99	100	5
73	73	6
139	139	25
118	119	10
86	103	1
132	132	37
87	103	6
21	22	10
8	31	1
128	128	32
75	76	8
96	96	22
101	101	21
71	86	2
81	83	6
1	4	2
117	123	4
28	32	8
79	80	7
93	93	10
129	135	5
105	108	2
86	88	5
38	38	5
3	9	3
31	32	6
123	140	9
125	126	5
116	116	29
82	82	14
74	74	13
98	98	17
16	17	1
21	27	4
117	117	11
13	13	14
19	20	12
122	128	1
83	113	2
22	22	15
19	22	2
30	30	7
121	121	13
138	139	2
28	29	8
15	22	3
5	97	2
83	84	9
5	5	16
103	103	14
88	91	2
123	123	27
1	1	10
104	104	11
75	75	13
7	7	11
6	22	1
26	71	1
28	87	1
19	19	15
2	4	2
100	100	13
33	33	8
108	109	7
127	128	11
104	121	1
11	11	5
26	26	11
76	77	13
74	78	3
17	17	14
34	34	9
113	113	18
126	139	1
31	31	8
89	89	22
95	95	15
12	13	5
119	119	15
23	104	6
81	103	1
80	80	9
125	125	19
106	108	3
0	0	3
105	107	2
28	28	5
137	137	28
133	134	2
71	71	11
77	78	6
36	36	7
27	28	6
136	136	19
78	78	24
1	9	4
80	104	3
13	14	6
84	84	12
116	117	5
87	87	10
77	108	2
81	82	4
85	86	4
107	107	9
130	140	2
14	14	5
5	6	2
95	115	3
24	24	6
128	131	1
26	37	1
80	101	4
77	110	4
118	126	4
92	93	12
91	92	1
10	11	5
77	107	2
14	38	2
139	140	7
22	25	1
90	90	9
79	79	13
111	112	4
136	137	4
1	19	5
25	25	7
19	29	1
121	122	3
14	21	6
17	98	2
15	21	2
16	16	6
126	126	20
91	91	17
128	129	5
134	135	15
8	30	3
72	132	3
130	133	2
101	102	5
29	29	16
18	19	3
95	96	6
7	9	2
2	2	10
123	124	8
32	33	2
17	18	11
103	122	2
82	83	3
17	19	2
36	37	4
112	123	2
29	32	3
11	28	1
87	90	5
23	23	9
24	31	4
71	112	4
1	12	4
81	81	5
22	23	4
25	31	3
3	4	5
125	137	7
115	115	15
2	3	5
98	115	8
78	80	6
111	111	16
72	75	4
71	73	2
118	125	1
119	125	1
83	104	2
106	106	8
105	105	7
23	30	3
94	99	4
72	72	9
4	72	2
115	125	1
102	102	16
21	21	12
109	109	14
4	5	3
84	86	5
23	24	7
103	106	3
100	124	4
131	132	15
106	107	1
4	7	1
71	72	4
120	120	7
114	114	10
100	121	1
72	78	4
30	31	6
129	136	4
83	85	4
93	130	3
124	137	1
12	12	6
81	102	3
18	36	4
101	116	1
7	20	2
116	126	3
0	6	2
77	104	4
2	19	1
88	111	2
83	83	15
117	119	2
94	95	7
3	3	4
98	99	5
27	29	6
110	111	11
113	140	3
121	123	2
107	108	2
4	102	3
24	29	2
86	87	2
78	79	3
116	122	2
124	126	11
124	125	2
74	75	9
122	123	4
105	118	1
7	10	3
114	115	7
89	101	3
32	36	1
7	12	2
18	32	1
0	3	2
98	126	2
80	84	3
96	98	3
22	104	2
20	21	6
11	38	1
132	136	1
27	33	2
23	26	1
25	26	1
120	121	2
130	131	8
110	110	12
105	106	1
0	12	1
136	138	1
137	138	6
10	10	6
137	139	1
100	119	2
129	134	3
8	10	1
73	92	2
16	33	2
22	28	1
21	24	1
102	111	1
14	25	1
73	74	2
30	32	2
24	25	6
135	138	5
10	16	2
10	13	1
30	79	3
13	23	2
140	141	4
6	37	1
10	23	1
0	1	2
104	106	1
22	24	1
89	90	3
37	110	3
119	120	3
107	112	2
130	132	1
80	81	2
19	37	1
0	2	3
117	127	1
113	122	1
100	117	2
21	33	1
12	23	2
101	120	5
119	121	1
10	12	4
29	30	1
15	16	1
108	108	1
98	134	1
4	32	1
34	37	1
15	18	1
82	84	1
9	32	2
36	124	2
115	116	3
72	92	2
99	101	1
1	3	2
5	33	1
118	120	4
19	21	3
91	95	2
97	103	1
16	19	3
9	14	5
22	27	2
73	112	2
8	11	1
73	76	1
15	17	1
114	123	2
7	19	1
92	103	4
112	114	1
114	117	2
6	21	2
9	22	2
30	38	1
92	119	2
11	12	1
4	16	1
1	13	1
118	122	1
29	31	2
99	123	4
35	36	2
13	24	1
97	98	3
14	24	2
100	139	3
94	127	1
13	31	1
36	126	1
71	88	1
131	133	2
109	110	1
24	38	1
97	99	2
84	103	1
91	93	2
87	101	1
126	127	2
107	110	1
72	87	1
103	109	1
3	98	1
25	29	1
27	32	1
90	91	2
86	118	1
94	102	1
4	15	2
115	119	1
114	116	1
92	94	1
95	98	2
96	129	2
79	89	2
82	87	1
124	129	1
12	14	1
102	108	1
78	109	1
100	123	1
13	21	1
119	122	1
23	29	1
15	99	1
1	11	1
88	104	1
17	34	1
91	96	1
13	15	1
111	120	1
111	125	1
