66	66	4
34	34	3
176	176	4
14	14	12
5	5	9
91	92	2
144	144	5
127	128	2
45	45	8
71	71	5
23	31	7
4	4	11
86	87	2
66	118	5
179	179	8
130	172	4
3	11	1
161	161	2
29	30	6
77	136	4
67	67	6
133	133	8
3	40	5
3	6	2
17	18	3
116	119	2
7	8	4
50	50	6
92	144	5
40	41	2
2	5	1
28	29	5
18	19	5
12	21	3
37	71	3
142	142	2
113	113	8
31	31	3
9	24	2
101	162	1
112	113	3
4	5	3
139	175	4
170	177	5
9	9	1
41	55	1
100	101	4
160	163	3
57	59	1
13	13	9
63	64	7
65	78	4
16	42	1
44	92	1
21	25	6
171	174	2
171	171	3
16	17	8
134	134	2
21	79	6
170	172	2
7	7	7
30	126	3
28	45	2
30	33	4
71	143	4
53	53	5
173	173	8
32	32	11
14	22	1
37	37	8
24	25	9
30	43	1
138	138	8
61	62	3
111	114	2
149	149	5
42	42	4
9	19	3
30	52	5
6	65	3
54	55	5
58	121	4
14	15	4
77	137	1
177	178	2
135	138	1
34	35	4
15	20	3
34	41	3
131	153	3
0	0	3
68	118	2
77	77	3
110	113	4
136	137	2
23	24	4
3	3	8
122	123	4
38	38	5
88	90	3
59	59	3
45	46	2
41	42	2
28	31	1
128	128	4
120	126	2
38	73	7
74	171	1
35	40	4
4	42	1
66	112	1
129	129	2
139	139	3
65	65	1
39	39	4
151	178	2
7	14	1
172	172	3
2	17	2
40	40	1
135	136	6
140	176	3
45	60	2
161	162	3
60	62	1
63	63	4
56	56	6
83	87	1
61	61	3
62	68	2
133	134	2
87	90	1
6	6	7
85	98	1
121	126	2
91	165	4
53	63	3
6	7	3
106	106	4
80	80	2
143	154	1
13	23	1
95	153	5
60	60	1
85	97	1
0	1	3
82	179	4
8	8	6
174	174	3
86	90	1
39	40	2
115	128	1
2	3	3
147	148	1
12	14	2
164	166	5
77	79	2
23	23	7
41	41	5
12	16	1
66	77	1
71	79	1
1	1	1
113	128	3
11	13	1
60	63	3
2	11	2
76	108	2
126	126	3
27	27	3
8	43	1
26	28	1
52	52	1
22	53	2
137	137	4
161	166	2
44	46	3
18	18	5
38	57	2
24	27	2
67	68	1
36	37	4
156	156	1
88	89	1
77	78	2
0	128	1
112	127	4
20	20	2
60	95	1
80	156	3
123	123	6
27	28	4
35	42	2
111	112	3
33	42	1
11	15	5
168	168	1
82	152	1
10	10	3
94	94	3
102	161	1
9	12	1
75	76	2
73	73	1
11	11	3
152	152	2
25	25	1
84	86	1
79	80	2
29	29	5
85	89	1
35	36	2
111	111	3
30	35	2
84	85	1
84	178	5
31	63	6
119	119	1
3	142	1
85	86	3
78	78	2
35	35	5
58	61	1
116	117	1
80	82	2
87	87	1
5	6	1
178	178	7
26	26	3
30	30	3
36	40	2
40	44	5
145	171	3
81	85	2
142	144	1
12	15	2
21	23	4
103	106	1
100	174	1
38	39	3
74	75	2
20	21	1
144	145	3
146	148	1
91	153	1
25	26	5
0	40	1
17	17	2
56	61	1
144	152	1
24	24	4
76	106	3
52	54	3
2	15	2
52	53	1
44	45	4
87	88	5
56	57	2
90	90	3
9	10	1
167	167	1
24	26	2
18	39	1
121	122	4
159	164	1
65	96	2
38	77	1
179	180	1
61	126	1
57	128	1
36	45	2
26	31	1
53	110	1
55	56	2
16	16	3
109	109	1
28	30	1
76	76	1
2	7	2
19	22	1
3	4	1
161	168	1
159	165	3
141	142	1
15	15	2
12	13	1
22	23	4
53	56	2
174	175	1
162	162	1
91	95	2
9	45	6
58	59	1
159	159	1
164	178	1
32	33	1
103	104	1
55	59	2
127	139	1
101	102	2
59	121	1
50	52	2
2	2	1
65	111	1
101	101	1
139	141	1
57	57	1
12	23	1
160	160	1
94	119	1
57	110	2
55	58	2
95	115	1
117	142	1
71	72	2
77	114	1
120	125	1
136	136	3
78	177	2
76	77	1
2	8	1
134	136	1
127	127	2
114	115	1
135	135	1
33	34	1
4	7	1
15	16	1
149	150	1
81	111	2
96	96	1
7	13	1
21	22	1
127	130	1
64	66	1
80	111	1
79	79	1
8	42	1
22	22	1
15	23	1
49	87	1
