195	195	5
16	16	11
132	132	12
138	138	12
138	139	11
12	12	11
11	11	20
171	171	17
163	163	18
3	3	7
161	161	19
2	2	11
141	141	7
168	168	13
61	61	9
166	167	11
1	194	2
72	72	10
147	148	11
178	178	27
187	187	9
74	75	7
38	39	9
128	128	9
71	74	2
14	57	5
50	50	15
117	117	23
165	165	18
135	135	16
189	189	23
156	156	10
53	53	5
126	126	18
166	166	17
122	122	19
61	80	3
98	98	12
140	141	8
158	159	4
4	22	7
40	42	4
10	10	17
18	19	13
147	147	38
5	5	12
38	42	9
102	105	10
104	105	3
7	36	6
71	71	7
153	162	1
100	100	16
133	133	9
183	187	2
84	84	7
169	169	18
23	23	16
130	140	3
108	111	2
105	105	11
185	185	14
193	193	16
192	193	7
194	194	9
189	190	15
127	127	16
136	136	11
139	191	3
142	144	4
35	36	4
14	14	13
156	157	7
179	179	16
138	143	2
94	95	3
143	143	26
123	123	11
158	164	3
135	140	8
87	87	20
28	28	9
146	148	6
9	10	6
136	179	2
110	110	12
45	45	14
180	180	22
101	101	12
34	36	6
183	183	17
17	17	16
168	174	5
24	25	3
188	188	21
152	152	17
146	146	18
146	151	5
59	60	2
33	33	14
35	35	13
159	160	11
109	110	11
10	11	5
186	197	5
52	52	8
1	1	12
41	41	13
34	35	16
37	37	21
179	182	4
39	39	19
173	173	29
36	36	15
32	32	9
167	179	4
79	80	10
25	26	11
19	145	1
115	115	19
28	29	4
99	99	18
28	73	3
176	178	12
25	27	3
68	68	15
188	189	2
121	156	3
105	106	11
106	106	4
192	192	8
30	33	7
59	59	15
16	147	4
26	27	8
0	0	7
29	29	8
21	26	3
62	63	8
44	150	3
153	154	7
181	190	6
5	7	1
104	118	5
80	85	2
82	85	6
149	150	5
146	154	4
186	186	22
54	54	9
114	118	1
30	30	16
160	160	9
187	188	7
144	146	2
160	161	6
137	137	13
9	9	18
176	176	14
154	154	8
116	116	10
162	162	21
150	150	9
127	128	8
56	56	6
27	28	6
171	172	6
145	145	26
176	177	14
52	53	4
139	140	8
4	13	2
186	188	5
151	151	13
22	22	21
167	167	14
29	33	3
89	89	8
170	171	4
74	74	6
58	58	13
135	137	8
87	88	10
4	4	14
38	44	3
132	133	5
181	181	6
171	174	4
88	88	12
197	197	17
109	142	4
78	78	10
157	158	14
121	121	6
129	129	4
49	50	4
58	77	2
66	101	2
67	67	18
112	112	4
172	172	18
143	146	2
95	95	5
120	120	12
30	52	3
162	164	4
161	162	13
81	81	7
114	123	7
39	40	9
135	136	6
151	152	2
144	144	11
174	175	3
64	66	4
175	175	10
177	177	3
62	62	13
15	15	15
114	114	17
158	158	19
103	103	13
153	166	3
153	153	15
82	82	11
50	51	4
184	184	15
16	23	2
76	76	22
63	67	2
175	176	4
178	179	12
39	57	2
21	21	15
157	159	2
96	97	2
17	30	1
81	82	8
143	156	3
149	149	28
73	74	8
132	139	5
148	148	25
196	197	9
1	31	5
56	59	6
119	120	2
161	164	1
159	159	15
42	44	5
83	84	5
116	132	1
19	25	4
129	193	2
18	18	9
38	40	1
122	123	2
191	191	19
117	118	11
23	24	1
0	2	3
174	174	14
144	145	4
55	56	7
171	179	2
84	85	2
25	41	1
5	34	2
130	131	9
31	35	4
130	141	1
42	42	8
125	125	2
2	188	2
106	107	2
185	186	10
196	196	12
7	7	12
1	3	3
40	41	17
63	71	6
167	169	9
68	86	4
194	196	2
171	184	4
94	94	5
97	97	3
27	39	2
99	100	5
174	193	5
54	56	1
138	140	2
129	131	6
60	61	7
134	175	2
21	40	3
140	140	3
157	160	4
43	43	6
27	27	14
163	164	4
103	108	4
170	172	9
75	76	2
55	59	3
38	38	15
168	169	12
183	184	7
17	19	3
53	56	1
165	168	3
43	149	1
49	49	12
155	159	2
150	158	4
145	156	1
179	180	4
101	103	1
19	19	11
129	132	2
59	61	6
66	100	1
113	130	2
46	46	3
35	40	1
169	181	3
132	134	3
102	109	1
140	143	2
16	32	5
21	22	6
97	99	3
80	80	21
24	24	9
190	191	11
131	131	5
71	72	6
135	160	2
55	55	11
43	44	3
20	20	8
147	152	5
172	179	4
13	13	5
51	51	1
159	161	3
182	183	8
155	155	15
13	16	1
40	78	2
134	135	3
132	137	2
133	134	2
167	168	2
32	33	4
41	42	7
20	23	1
170	170	11
45	160	1
14	51	1
31	31	18
77	78	8
181	182	12
16	17	2
107	136	1
180	182	2
173	193	3
8	8	8
57	57	2
69	86	2
9	51	1
78	79	3
112	116	2
188	194	1
173	174	9
82	84	3
26	26	11
165	166	5
134	134	7
44	46	3
107	107	19
100	101	2
135	157	5
49	52	5
109	109	12
0	1	9
195	196	4
65	131	1
28	36	2
11	12	6
140	144	4
157	157	13
10	51	4
99	101	2
151	156	2
164	191	2
107	108	6
108	112	1
187	196	1
63	63	7
141	142	3
159	173	5
130	130	8
194	195	8
25	25	15
130	193	1
20	21	8
64	64	8
124	125	3
171	194	2
23	26	4
83	85	5
26	62	1
33	34	2
5	8	5
175	177	2
73	73	6
113	113	11
31	32	3
47	47	6
105	111	2
57	59	2
93	93	1
119	119	8
54	55	4
66	66	5
111	111	7
108	108	4
65	65	3
72	127	3
55	57	2
6	6	9
148	149	2
161	163	4
44	86	3
179	183	5
182	182	20
104	104	5
172	181	2
54	61	1
6	7	1
113	115	1
67	87	5
16	19	1
102	102	2
6	34	2
150	186	1
144	162	3
33	36	1
125	126	1
81	85	2
137	138	1
89	90	6
6	18	5
53	54	3
121	122	3
164	169	3
124	124	6
77	77	9
85	85	1
29	62	3
147	157	3
26	28	2
85	86	2
95	96	2
28	31	3
146	167	2
154	165	2
124	136	2
161	165	3
48	48	4
5	37	3
48	49	1
34	34	5
44	44	16
186	187	6
54	58	3
158	160	2
10	13	2
139	139	10
134	155	4
95	101	1
150	157	2
36	41	1
62	73	2
57	58	1
81	84	4
15	17	9
40	40	3
152	153	6
9	38	3
70	83	4
135	156	3
45	194	2
3	188	2
124	126	3
171	191	1
150	151	3
65	66	2
64	65	8
146	147	7
22	24	1
133	140	3
134	159	4
137	139	4
179	191	2
69	127	1
113	116	7
69	69	8
136	157	4
55	77	1
79	79	2
188	190	2
22	37	1
29	39	2
160	174	1
132	140	3
67	68	6
114	115	1
134	162	2
18	25	2
142	192	2
136	140	1
102	112	3
134	144	1
162	167	3
158	168	6
75	75	2
142	142	4
21	28	3
1	2	7
70	71	2
8	9	3
160	191	1
63	70	3
17	23	4
134	158	1
25	110	3
123	124	3
53	55	1
190	190	7
184	185	3
166	178	5
159	164	2
134	137	1
118	118	2
166	179	2
96	98	4
155	163	1
111	112	2
69	70	2
14	15	6
6	31	7
180	181	5
161	167	6
83	83	2
156	165	1
155	157	2
110	112	1
191	192	5
79	82	1
67	69	1
22	34	2
112	113	1
135	141	3
15	16	2
157	186	1
148	171	3
61	62	3
17	18	4
103	104	1
3	4	1
28	32	2
29	37	1
58	78	1
115	116	2
151	153	1
72	129	1
189	194	1
164	170	3
115	133	1
127	129	3
33	35	2
29	60	2
27	62	1
132	144	6
147	151	2
164	164	8
165	167	2
88	89	3
165	178	1
173	192	2
100	139	3
187	193	3
12	14	1
7	34	1
54	60	1
42	43	1
102	107	2
6	8	3
2	99	2
67	86	1
79	83	1
102	103	1
150	163	2
90	96	1
77	83	1
22	23	2
187	189	1
177	178	2
32	73	4
151	154	1
115	117	3
171	183	1
145	147	1
0	19	2
18	21	1
160	169	2
95	97	1
16	146	2
11	14	1
172	173	2
63	83	2
57	82	1
143	144	2
28	30	2
190	192	3
139	141	1
36	37	3
139	192	2
101	137	1
26	40	2
180	192	2
38	58	2
108	109	1
102	119	1
7	8	3
23	25	2
41	56	2
153	165	1
66	130	1
156	169	2
113	117	1
193	195	3
130	132	3
157	163	2
11	13	1
161	173	1
64	130	2
167	183	1
170	180	3
45	46	3
193	194	3
110	111	2
29	52	1
120	123	2
179	181	1
29	54	1
80	81	1
33	174	1
169	170	1
133	148	1
173	176	3
53	58	1
18	23	1
46	47	1
46	195	1
132	156	2
65	130	1
0	21	1
72	125	1
115	121	1
158	177	3
66	67	1
19	40	1
164	192	1
57	86	1
101	139	3
126	127	2
191	193	2
21	29	1
169	171	1
59	62	1
173	175	1
112	130	2
178	182	1
10	14	1
1	30	2
62	74	2
152	165	1
20	22	2
135	178	2
144	147	4
138	179	2
102	137	1
93	95	1
156	164	1
0	17	1
2	20	1
94	96	1
134	148	1
43	55	1
103	105	1
13	14	1
35	37	1
35	156	2
43	150	1
32	37	2
143	157	1
107	119	1
164	165	1
25	131	1
148	153	1
72	83	2
116	118	1
12	146	1
56	58	1
178	183	1
12	148	1
24	131	1
42	58	1
44	45	1
134	178	1
118	123	1
159	168	1
162	163	1
172	191	1
90	90	1
66	129	1
142	149	1
138	144	2
68	71	1
161	168	1
62	81	1
113	129	1
69	74	1
17	31	1
114	133	1
54	62	1
18	60	1
29	31	1
