10	13	2
137	137	3
156	157	1
78	83	5
162	163	1
45	45	3
18	52	2
63	63	4
112	112	17
14	19	3
22	22	4
90	90	7
15	47	1
146	146	4
91	92	1
36	36	6
89	90	8
89	89	5
123	123	5
105	105	3
124	124	1
43	43	2
64	64	5
52	52	12
96	96	7
75	79	3
99	99	11
74	74	6
41	41	6
8	8	17
161	161	10
81	83	4
80	80	5
81	82	7
123	155	1
70	94	2
91	91	6
72	94	2
76	79	1
72	72	8
38	53	2
159	159	5
169	170	5
99	100	1
138	138	5
90	91	3
168	168	1
82	83	7
81	124	3
154	154	7
148	148	8
134	135	5
76	92	3
4	4	5
12	46	2
142	143	4
164	165	2
136	136	5
62	63	4
119	119	11
97	98	2
16	16	2
108	108	1
39	39	4
18	19	2
106	106	3
102	103	4
43	44	2
50	50	5
133	133	8
68	68	5
155	155	3
145	146	3
21	23	2
167	167	5
83	84	2
76	84	2
84	84	7
86	88	1
77	79	2
25	25	2
145	145	1
10	10	9
116	117	2
47	49	2
109	109	2
51	51	1
107	107	7
37	37	2
88	142	3
2	138	2
92	92	7
118	120	4
132	132	2
117	117	2
39	40	3
18	18	4
120	121	2
95	96	1
9	9	6
54	55	1
0	0	3
13	13	3
93	93	4
1	2	2
47	47	2
15	39	2
66	66	1
20	20	5
123	124	8
3	3	3
144	144	2
10	149	3
158	158	2
112	131	4
142	142	1
156	164	1
117	142	4
135	135	5
88	152	4
163	163	4
34	34	3
103	103	1
11	12	2
35	36	5
12	13	2
50	106	3
160	160	2
113	121	5
114	114	2
122	123	2
168	170	3
127	129	2
94	157	1
135	160	4
152	152	1
51	64	1
53	53	5
98	98	5
7	7	5
118	118	3
153	153	3
87	87	1
86	87	1
84	154	1
72	74	3
13	14	2
74	75	5
121	121	2
78	78	5
88	121	1
144	145	2
48	146	2
18	20	3
117	119	4
2	2	6
22	23	1
78	85	1
48	48	8
70	87	4
15	15	3
42	42	7
122	122	1
49	52	2
161	162	6
130	130	5
38	41	1
82	82	2
17	24	1
88	89	2
140	140	3
88	88	2
97	97	5
62	62	1
139	139	2
147	147	1
101	101	4
92	93	2
66	152	1
76	76	3
104	104	1
114	120	3
99	142	3
86	86	2
42	97	1
128	128	3
56	56	2
23	23	2
165	166	1
166	166	1
64	141	2
131	131	1
21	21	3
54	94	2
22	24	2
150	150	1
81	81	3
69	69	2
58	62	2
34	35	1
77	77	4
115	116	4
70	70	2
141	144	1
126	127	1
1	1	3
70	126	1
135	158	3
120	120	1
46	46	1
69	86	1
75	75	3
24	36	1
71	71	4
170	170	1
47	48	2
94	94	1
49	49	3
105	106	2
160	162	1
91	94	1
20	21	2
54	54	1
44	44	3
83	83	1
127	132	1
137	138	1
40	41	1
116	116	3
147	148	2
165	165	2
28	28	3
153	154	1
119	121	2
61	62	1
33	33	2
135	136	2
164	164	2
109	110	1
73	73	2
115	115	2
110	110	1
79	79	2
18	50	2
27	27	1
35	35	2
20	22	2
125	126	1
36	43	1
37	38	2
141	142	1
152	153	2
19	49	2
44	45	1
78	84	1
74	131	1
3	4	1
69	154	2
159	160	1
102	102	2
65	66	1
14	14	1
6	6	1
85	85	1
5	5	1
126	130	1
48	49	1
55	55	1
