89	89	8
26	26	6
42	44	5
52	52	6
78	97	5
74	90	2
48	48	1
50	50	15
43	43	6
28	31	3
21	48	6
23	23	7
73	74	1
90	91	5
60	60	11
56	56	5
22	22	8
80	92	3
86	91	2
75	75	6
90	90	6
101	101	2
30	33	5
73	73	23
36	37	3
114	115	2
94	94	9
38	38	2
84	87	6
38	39	7
21	21	6
53	53	6
76	76	13
82	82	3
107	108	2
98	99	14
92	92	8
63	68	4
24	25	3
64	65	4
25	25	4
22	41	2
109	109	15
76	77	1
45	45	20
96	108	5
107	107	13
32	35	1
44	53	5
33	33	6
106	107	4
71	72	2
29	71	4
63	64	8
60	62	3
80	80	11
95	95	4
69	70	4
98	102	3
74	79	2
37	37	7
99	99	18
75	76	1
67	67	2
93	93	11
110	110	6
30	30	12
68	70	6
53	55	2
23	40	2
53	54	1
48	49	4
65	65	12
60	61	2
32	32	3
84	92	1
97	97	12
102	102	3
110	111	4
96	96	5
111	113	1
28	28	7
23	26	2
24	24	2
30	31	5
69	69	3
27	27	15
44	44	2
78	102	2
32	38	5
55	55	3
108	108	5
105	105	9
74	76	6
95	108	1
27	28	2
83	83	2
104	104	6
93	94	2
111	111	14
42	42	3
74	74	2
79	79	4
51	51	9
46	50	3
21	44	2
78	78	6
109	110	2
87	88	1
66	67	3
77	78	1
19	19	6
31	31	7
47	48	3
26	28	1
79	97	1
82	92	1
34	46	5
54	55	3
104	105	1
85	86	2
20	20	1
47	47	14
94	95	3
72	72	2
70	70	5
26	45	3
22	23	4
46	46	3
25	90	1
34	35	8
113	113	3
64	64	8
40	41	1
35	35	10
54	58	2
102	103	1
55	59	2
27	72	1
100	101	6
79	80	2
38	44	2
80	94	1
33	34	4
47	51	2
100	100	5
88	114	2
71	71	2
65	73	2
72	73	4
77	77	2
44	47	1
81	81	1
31	43	1
19	70	6
52	70	2
88	88	5
68	69	2
91	91	2
54	54	4
98	98	6
51	52	2
85	85	5
52	63	1
28	47	4
65	66	1
25	27	3
52	62	1
83	84	4
43	45	1
85	110	3
61	61	8
22	71	1
114	114	5
55	69	1
40	40	3
64	109	1
49	49	7
23	39	1
90	108	3
47	66	2
29	29	2
84	93	2
44	45	3
97	102	5
63	63	5
76	97	1
89	114	2
58	58	3
62	62	2
103	105	2
47	67	1
32	33	3
25	26	4
48	88	3
56	57	2
33	36	1
34	34	6
28	29	2
86	87	1
66	66	5
85	108	1
41	41	2
63	65	5
80	81	2
32	36	3
67	87	1
43	44	2
87	87	3
58	59	3
37	38	1
103	103	8
63	69	1
68	85	3
59	60	1
23	70	1
56	60	2
93	106	1
57	57	2
68	68	3
31	49	1
85	111	1
65	72	1
86	86	1
84	108	4
82	83	1
88	89	1
77	90	1
34	44	1
89	93	1
97	100	1
95	96	2
92	110	2
78	98	1
54	61	1
62	69	2
41	42	2
112	112	3
60	63	3
64	66	1
31	48	3
30	37	1
62	63	1
46	51	3
75	103	1
25	28	1
98	101	2
106	106	2
73	89	2
56	59	1
82	87	1
92	109	1
22	39	1
26	27	1
82	85	1
56	58	1
90	93	1
29	47	1
85	90	1
36	36	1
101	107	1
54	60	1
80	85	1
37	41	1
88	90	1
36	39	1
111	114	1
43	47	1
89	111	1
