45	45	15
47	77	2
70	70	13
36	37	11
82	82	8
75	75	19
67	67	25
40	41	11
63	63	9
63	64	9
91	91	17
41	41	16
60	60	7
101	102	9
60	98	6
51	51	20
79	79	16
51	82	2
35	37	4
54	55	3
40	42	6
49	50	8
47	49	4
77	77	13
35	35	13
58	59	9
88	88	12
40	40	19
81	82	9
46	46	15
84	84	4
29	31	2
69	69	10
57	57	29
92	92	6
93	93	21
95	95	12
86	86	11
39	39	15
87	87	19
65	65	12
33	51	10
22	23	1
46	53	1
66	66	4
50	65	1
43	43	25
91	99	6
41	45	1
97	97	19
86	88	4
64	65	7
72	73	5
42	42	19
39	63	1
59	59	14
56	58	5
62	62	8
48	48	7
89	92	5
80	81	6
61	62	4
32	33	4
74	74	6
66	68	1
100	100	12
29	29	9
52	52	18
89	89	10
56	56	7
98	98	20
48	49	4
53	53	11
26	26	5
79	88	6
78	78	8
95	96	10
54	54	13
64	64	14
73	73	7
22	22	4
96	96	6
80	98	2
81	81	12
85	85	10
62	63	6
76	76	5
32	34	1
58	58	10
35	36	4
33	33	8
83	83	11
48	76	2
55	56	1
44	44	5
66	78	3
72	72	17
47	48	10
47	73	3
74	75	5
34	34	8
92	94	3
94	94	15
57	60	1
90	90	18
49	49	9
61	84	2
66	67	7
33	34	6
87	88	8
64	67	1
64	94	5
43	44	7
24	25	3
50	50	5
56	57	5
69	70	7
79	80	5
38	39	3
65	66	4
57	58	5
80	80	15
99	99	8
28	46	1
63	99	7
42	43	11
32	32	4
47	47	7
25	29	1
42	44	2
46	47	13
86	87	4
89	90	5
94	95	8
94	96	1
89	102	3
89	101	4
44	48	1
49	76	1
64	72	4
55	57	3
37	38	3
45	46	5
61	61	9
76	77	8
101	101	8
39	40	5
24	28	1
23	24	3
67	68	3
41	42	1
31	31	2
77	78	5
92	93	6
25	26	3
93	97	1
36	36	2
53	94	1
68	68	15
73	74	2
77	91	4
77	84	3
55	89	4
96	97	2
45	47	1
61	74	1
52	53	4
53	96	1
64	71	2
55	55	2
93	98	6
84	97	2
37	37	2
25	25	2
44	47	1
97	98	1
71	71	1
56	62	1
75	76	3
86	89	3
26	27	2
36	38	1
38	38	1
30	31	1
54	62	1
91	92	1
81	83	1
90	99	1
39	48	2
87	101	1
29	30	1
87	89	2
93	94	2
85	89	2
56	85	2
24	54	2
44	45	3
23	23	1
53	54	1
70	71	1
90	91	1
91	93	2
91	98	2
82	95	1
94	98	1
66	73	1
20	22	2
59	64	1
67	69	1
41	43	1
79	86	1
38	64	1
64	70	1
27	27	1
