139	140	5
74	74	9
27	27	7
0	82	6
106	107	6
124	126	3
14	14	11
101	101	13
123	124	4
100	100	27
94	102	1
1	5	3
0	1	10
136	137	8
93	94	9
119	119	12
19	19	14
110	110	18
124	124	21
90	91	3
72	72	11
88	89	3
86	86	8
131	132	6
123	123	18
102	103	4
136	136	13
108	109	2
83	83	11
135	135	12
28	28	2
92	95	5
126	126	27
138	138	19
112	112	9
84	84	21
100	124	3
113	114	3
76	76	3
126	127	4
17	17	4
118	118	8
81	106	2
92	92	3
4	4	2
77	77	16
134	134	23
15	15	5
0	0	6
126	128	5
105	116	3
34	35	2
136	138	4
18	18	9
132	132	22
23	23	4
125	126	4
73	74	4
24	24	7
5	8	5
34	34	11
20	21	2
111	112	5
7	8	6
115	115	16
16	20	3
104	104	3
86	117	2
72	73	10
118	119	17
85	85	9
73	75	7
136	139	4
6	6	5
118	120	1
75	77	3
131	133	1
32	33	2
125	125	28
18	140	4
33	33	12
92	94	2
94	129	1
1	2	3
13	14	8
131	131	17
36	37	3
90	92	4
10	10	6
120	122	8
105	113	3
108	108	2
110	111	3
22	22	5
28	29	2
121	121	2
25	26	6
79	79	14
106	115	1
96	99	2
14	15	3
27	30	6
1	11	2
91	91	11
78	78	12
71	71	10
7	19	9
138	139	3
99	107	1
28	30	2
114	115	5
3	4	5
102	102	4
121	122	1
37	37	5
94	96	1
96	128	2
4	12	4
101	102	6
94	95	7
96	97	3
116	116	12
89	89	9
7	7	3
96	96	9
133	134	1
80	80	3
133	133	17
31	94	5
107	107	7
103	103	6
129	129	12
122	122	12
139	139	19
74	101	1
73	73	3
86	118	1
92	101	1
30	32	5
127	127	11
112	114	4
95	95	6
124	125	9
17	18	3
93	93	11
9	9	6
81	82	8
75	75	4
85	91	2
81	85	2
94	94	6
84	85	8
18	20	8
23	26	4
15	38	4
120	120	5
0	79	4
20	20	5
102	104	3
132	133	4
8	11	1
91	98	1
114	114	16
80	84	3
75	80	1
120	121	4
103	104	2
109	109	7
132	138	1
36	36	10
128	129	1
30	31	1
130	130	14
27	29	2
117	117	14
3	3	5
38	38	6
3	36	4
95	97	1
83	84	4
32	32	5
97	97	2
76	77	1
134	135	6
11	11	3
87	98	4
21	21	5
109	111	7
91	92	5
91	105	1
80	82	7
8	8	10
22	24	2
99	100	3
106	108	1
124	129	2
117	122	2
127	128	7
83	103	4
74	121	4
78	79	1
100	101	4
35	35	6
92	104	1
106	106	3
122	125	6
86	89	1
0	11	2
21	23	2
122	123	3
111	130	1
88	96	4
140	140	5
31	119	1
5	5	7
99	99	1
13	38	1
105	106	4
112	113	4
128	128	10
12	12	2
97	98	3
108	113	1
110	112	8
133	135	2
87	88	4
85	86	4
109	110	2
22	25	3
87	87	4
31	31	3
105	105	5
30	30	4
88	113	1
134	136	2
110	115	3
86	87	1
118	121	1
25	25	6
85	103	5
8	21	2
28	31	1
112	115	1
107	108	5
86	115	6
129	130	2
113	113	8
78	116	2
81	81	3
7	12	1
27	32	2
135	138	2
119	120	1
85	102	1
108	111	1
6	11	3
121	123	1
24	26	1
135	136	5
79	82	3
17	20	5
81	94	2
29	29	4
82	82	6
74	75	5
37	38	1
19	20	3
91	95	3
98	128	1
93	102	2
92	96	2
23	24	4
85	116	1
13	15	1
89	129	5
9	15	2
124	127	2
1	1	6
15	73	2
95	96	2
6	12	2
26	27	1
127	134	1
98	116	2
74	78	1
79	90	2
2	2	5
88	88	1
77	80	1
111	111	5
5	10	3
88	138	2
83	105	2
131	139	1
79	80	2
26	26	6
90	90	2
23	25	1
98	98	2
105	109	5
75	76	2
31	93	2
96	100	2
120	123	1
119	122	1
137	137	1
74	76	1
116	118	2
82	83	1
6	7	1
12	13	1
83	102	1
135	137	2
117	118	1
68	68	1
96	101	2
6	113	1
130	131	1
77	78	1
1	79	1
8	9	1
90	104	2
1	4	2
16	17	1
4	5	1
7	24	2
10	27	1
28	32	2
76	80	3
34	38	1
80	83	1
116	117	2
33	34	1
11	23	1
46	74	1
87	106	1
74	77	1
111	115	1
28	33	1
84	119	2
107	110	1
