61	61	15
70	70	8
90	90	19
38	39	4
101	102	4
27	35	1
29	72	5
50	50	19
51	51	10
56	57	2
97	98	12
106	107	7
42	43	6
56	56	11
47	47	13
31	31	14
69	70	9
75	76	2
83	85	5
66	66	2
94	94	13
26	30	4
99	99	19
47	48	3
55	55	7
48	49	6
67	68	1
97	97	15
87	87	13
62	63	14
34	34	14
57	60	1
81	83	2
57	57	10
60	60	12
59	59	12
86	87	5
95	95	6
70	71	3
73	73	13
71	72	6
63	64	8
55	56	4
82	82	12
29	29	10
67	80	5
92	92	15
69	86	4
101	101	9
71	71	11
79	87	2
22	22	32
43	43	10
91	91	9
77	93	2
95	98	2
84	85	6
54	54	5
49	78	1
49	79	3
96	96	19
81	81	9
30	30	14
36	36	18
89	89	13
78	81	6
28	28	13
30	72	2
98	98	14
32	46	1
88	93	4
36	37	8
67	70	1
78	83	6
31	46	2
85	85	9
39	50	1
104	104	20
25	25	17
71	91	5
63	63	7
41	41	5
97	99	7
23	23	16
84	86	3
45	47	3
96	97	3
69	69	10
75	75	4
50	105	2
88	90	1
62	62	7
74	75	1
40	40	9
59	61	4
82	85	2
34	53	1
39	45	4
79	83	2
69	77	1
53	54	4
103	103	7
83	83	5
49	49	12
78	78	13
40	41	13
53	53	4
32	34	4
77	77	3
79	79	12
65	65	11
35	35	9
40	45	5
80	80	6
33	40	3
87	88	4
46	46	17
22	39	3
62	66	3
55	94	2
102	102	6
24	26	1
42	42	6
72	86	3
32	32	14
50	51	2
59	84	2
68	68	12
64	64	12
29	40	1
91	98	6
26	27	8
105	105	6
82	88	2
73	74	2
83	84	1
43	59	4
69	88	3
22	33	4
72	72	8
68	69	7
67	67	10
63	96	5
44	44	6
86	93	1
61	62	11
72	81	2
64	101	2
23	24	5
41	47	1
48	48	8
100	100	13
100	102	4
93	93	9
33	37	3
40	43	9
96	99	2
52	52	3
33	33	10
88	88	10
39	39	11
66	78	3
24	60	2
27	76	1
47	49	1
57	58	5
66	98	2
56	80	7
21	21	5
75	84	3
94	97	5
85	90	1
37	60	2
92	93	3
66	97	2
86	86	3
27	41	1
65	76	1
76	77	2
27	27	2
91	102	2
25	26	5
29	45	1
38	38	7
24	24	8
29	30	1
26	26	3
20	20	3
57	86	2
25	89	2
58	58	4
29	48	4
37	38	1
34	35	2
56	87	3
68	73	2
23	25	3
65	66	2
35	36	2
74	74	4
81	102	2
104	105	4
22	57	4
65	93	3
50	68	4
80	89	1
46	49	1
89	94	1
64	91	1
24	32	1
40	44	1
20	22	2
20	92	1
32	43	2
47	50	1
82	83	4
36	38	2
84	84	8
61	95	2
47	79	2
32	36	1
59	63	2
22	60	1
43	44	2
52	67	1
89	90	2
30	40	2
80	83	1
45	45	3
76	76	11
74	81	1
22	23	3
27	29	2
42	60	2
29	84	1
40	47	1
80	81	1
38	60	3
81	98	1
67	77	2
20	37	2
47	65	1
40	46	1
44	90	1
50	73	2
51	54	1
44	45	2
56	90	2
58	97	1
65	97	3
93	94	2
47	59	1
54	55	1
55	102	1
59	60	2
33	34	3
24	66	2
95	96	2
51	52	2
68	70	3
22	35	1
37	37	1
46	80	1
51	96	1
31	36	2
102	103	3
42	59	2
33	46	1
28	31	2
64	65	1
30	47	1
103	105	1
87	96	2
45	48	1
28	72	1
106	106	1
52	77	3
61	76	1
77	101	1
52	53	1
67	74	1
20	50	3
23	69	1
76	102	1
25	28	1
94	99	3
95	99	2
101	103	1
96	98	1
47	82	1
45	56	2
39	40	1
21	56	1
73	85	2
22	32	1
46	47	3
39	59	1
84	101	1
29	44	2
100	105	1
64	78	1
26	28	1
26	73	1
55	91	1
24	31	1
98	106	1
23	56	1
56	97	1
89	91	1
58	60	1
45	93	1
82	105	1
27	28	1
51	74	1
