152	154	3
131	138	1
145	152	6
151	152	8
152	152	10
23	24	2
86	86	8
33	39	3
20	20	10
110	140	2
7	7	20
96	97	6
73	73	21
97	97	7
153	153	17
99	99	22
54	121	1
111	111	12
53	53	7
46	46	21
149	149	20
92	96	5
133	134	7
94	94	7
25	25	6
88	89	8
140	140	12
45	45	13
100	100	14
116	116	11
42	42	11
142	142	6
85	85	25
72	73	5
137	137	16
138	143	3
47	47	18
72	72	2
113	114	4
45	75	3
109	109	14
115	115	8
33	50	1
77	78	6
31	32	7
2	2	25
138	138	11
31	34	2
104	104	4
92	92	4
39	39	8
95	95	11
15	15	13
14	14	7
151	151	19
122	122	27
46	55	5
158	158	16
112	112	18
51	51	17
67	68	5
143	143	7
5	5	22
88	88	11
20	21	11
67	67	9
41	42	4
155	155	13
26	26	15
148	148	4
87	87	7
34	34	17
111	140	1
142	148	7
124	124	10
50	50	5
8	8	16
48	49	5
47	51	3
55	86	1
123	124	2
3	31	3
22	22	19
81	81	10
156	156	16
96	96	6
83	83	9
107	107	10
121	126	3
155	156	7
118	119	3
145	147	4
66	67	7
135	136	6
130	131	8
31	155	3
103	103	9
105	105	12
36	36	17
12	13	6
21	95	4
1	5	6
50	51	6
127	128	6
139	140	17
18	19	6
39	40	7
53	83	1
23	47	4
11	11	5
82	82	7
90	90	8
116	117	4
29	29	12
101	101	26
6	6	26
120	120	22
23	23	10
121	122	3
121	134	3
10	15	1
125	126	5
96	117	1
103	112	4
87	89	1
12	12	13
19	19	10
131	132	3
18	18	5
147	148	7
78	86	4
21	21	16
99	100	4
126	127	5
0	0	5
124	126	6
126	126	19
79	80	10
4	4	9
24	24	27
27	27	17
125	142	1
136	136	13
77	77	7
154	154	8
79	79	12
93	95	2
28	28	16
47	68	2
121	121	22
129	129	20
76	89	5
132	132	11
141	141	8
119	119	10
128	129	3
86	123	6
85	95	1
19	20	3
92	94	4
120	123	2
5	46	1
22	154	3
30	30	9
54	54	17
112	123	4
123	123	12
32	32	8
85	86	12
62	63	7
51	53	2
14	16	4
8	15	5
33	34	1
51	52	1
17	17	14
46	47	5
26	27	6
14	15	5
40	40	5
55	95	3
130	130	20
113	113	7
117	117	9
75	75	17
102	102	7
66	110	4
36	37	9
145	146	7
137	138	8
52	52	4
134	134	11
118	122	2
42	43	2
131	131	23
13	14	3
129	139	3
50	52	1
121	151	1
110	116	2
73	138	4
98	98	12
27	35	2
76	78	3
73	84	3
28	30	2
108	109	16
41	43	3
49	53	4
68	71	3
115	116	2
1	1	12
109	110	8
68	70	3
54	55	5
81	118	2
92	93	8
64	65	3
78	78	4
140	151	2
50	54	3
29	40	4
137	143	1
33	33	9
84	84	11
128	140	2
127	127	10
70	70	15
139	150	1
145	145	8
9	9	9
139	139	10
57	57	2
93	93	6
44	44	21
96	156	2
67	105	5
65	98	3
42	153	2
33	92	2
117	119	3
36	139	1
56	56	12
20	28	3
82	120	1
16	16	15
40	41	3
147	147	11
83	107	4
95	96	3
35	49	1
23	46	3
114	124	3
5	6	2
28	52	2
63	63	3
64	97	2
129	130	4
7	8	4
6	36	4
145	150	1
13	13	4
109	122	1
91	95	2
157	157	20
141	144	3
157	158	3
125	139	3
41	41	10
69	71	2
122	127	1
57	63	1
23	50	1
68	75	2
99	102	2
122	156	4
1	2	11
90	91	7
62	62	7
150	150	13
135	135	10
119	120	2
114	114	15
3	3	12
69	69	8
22	48	5
2	4	4
77	92	2
31	31	11
13	35	4
146	146	8
50	53	5
10	10	5
70	71	2
152	155	1
47	89	4
135	137	1
144	150	3
66	66	4
43	44	2
24	75	3
150	151	4
7	18	1
4	5	2
34	40	4
111	150	2
21	22	3
121	155	2
144	154	1
3	4	4
62	149	2
8	9	9
125	125	3
132	133	3
105	107	4
43	43	9
32	153	2
65	93	1
0	73	2
63	64	5
152	153	3
0	2	3
49	49	6
117	118	3
43	46	3
53	54	5
80	81	9
47	78	2
36	38	3
85	145	2
76	91	2
73	77	5
128	128	14
35	35	11
114	156	1
106	107	7
44	55	6
87	88	4
89	89	6
29	30	3
146	147	6
80	80	10
37	37	8
97	104	1
16	17	4
111	141	2
71	71	3
107	108	2
78	79	2
133	133	6
74	74	1
109	111	4
13	31	3
114	115	3
106	106	3
11	12	3
44	45	1
24	44	3
6	12	1
53	123	1
31	43	4
48	51	2
55	55	5
77	97	2
68	68	6
110	110	4
65	73	1
130	132	3
16	22	1
98	104	1
135	140	1
3	56	2
148	149	4
4	26	9
82	83	2
137	140	1
38	38	14
111	112	8
118	118	5
47	50	1
110	111	2
91	92	3
27	28	3
28	44	2
64	95	3
15	16	5
91	91	3
55	56	2
67	69	1
17	19	1
126	151	2
88	150	1
110	123	1
81	101	2
55	80	2
134	135	2
98	118	3
96	158	1
98	127	4
104	105	1
72	105	2
31	41	2
154	155	2
95	128	2
7	37	3
112	113	5
90	92	2
4	30	2
55	81	1
2	3	2
73	75	2
141	145	3
76	76	1
31	40	1
2	5	1
3	43	2
96	98	2
111	113	2
120	132	1
23	41	5
116	125	2
155	157	1
141	142	1
103	108	3
66	128	3
56	64	3
26	151	1
144	144	4
49	50	4
29	134	2
113	115	3
4	132	3
43	75	1
128	131	3
121	127	2
45	51	1
114	125	1
54	85	1
124	125	1
18	132	1
81	82	1
47	48	1
86	103	1
142	143	1
15	47	2
144	145	1
37	38	3
12	154	1
154	156	3
82	88	4
75	92	1
84	93	1
27	33	2
117	127	1
75	93	2
24	50	2
39	43	1
51	55	2
30	156	1
38	39	1
83	111	2
108	108	2
43	54	3
94	95	1
3	7	1
54	79	4
4	19	1
46	56	2
108	113	4
52	53	1
21	96	1
79	81	1
97	98	1
2	8	1
122	123	3
36	40	1
50	133	3
14	31	1
117	126	1
129	131	1
68	69	5
137	142	1
25	142	2
119	123	1
89	136	1
97	105	1
111	115	1
138	139	1
118	121	1
137	156	2
113	124	1
81	116	1
24	25	3
47	132	2
4	6	1
66	80	1
32	33	2
84	85	1
96	104	1
25	37	1
102	150	2
68	98	1
126	150	1
116	118	3
16	18	4
124	135	1
55	65	2
136	138	1
86	147	1
131	137	1
2	55	1
80	137	2
126	132	2
2	32	1
67	89	1
19	28	2
84	134	1
34	35	1
4	28	1
45	47	2
28	29	1
20	22	1
114	138	1
149	151	1
71	72	1
9	10	2
87	90	1
140	150	1
32	35	1
107	122	1
123	138	1
48	48	1
72	98	1
18	36	1
21	39	1
103	104	1
89	91	1
130	135	1
65	65	1
0	130	1
98	101	2
3	93	1
14	17	1
153	154	1
17	18	1
33	75	1
83	93	1
