68	68	6
70	71	2
51	76	2
158	158	4
181	181	3
195	195	7
89	105	4
175	175	4
1	15	5
163	163	3
44	66	1
65	65	3
80	84	1
75	101	2
136	196	4
184	222	2
19	19	2
240	240	4
78	78	4
228	237	5
177	177	6
80	112	5
7	7	3
100	100	3
13	13	5
7	9	2
5	11	5
80	88	2
187	187	11
34	34	4
215	216	8
114	114	1
149	149	4
62	63	3
33	85	2
86	86	4
190	190	4
47	47	7
237	237	2
20	21	4
0	0	5
34	38	1
160	160	6
16	16	2
65	66	9
225	227	3
30	30	6
37	37	7
3	18	1
236	236	6
57	68	3
186	186	5
205	208	1
180	180	3
4	4	4
185	210	2
31	31	4
222	222	3
27	28	7
5	5	3
181	196	2
23	77	1
84	84	4
184	185	1
102	102	2
149	150	9
150	150	2
72	73	1
71	71	7
61	61	2
147	147	3
48	123	3
173	173	12
8	29	2
66	66	2
221	222	5
105	105	3
59	60	7
21	21	4
188	188	7
15	15	4
98	108	1
44	45	8
81	84	1
88	89	3
169	172	1
15	35	1
166	175	3
11	11	8
216	216	3
106	114	2
4	6	5
46	46	4
150	213	2
176	176	3
121	121	3
210	236	2
135	194	3
127	127	6
229	229	3
13	15	4
16	21	2
39	42	2
4	7	4
9	41	3
226	226	3
189	190	2
30	34	2
214	215	5
200	218	5
195	196	5
178	178	7
211	211	5
15	38	1
215	215	6
151	207	3
18	19	4
7	8	4
227	231	1
67	67	9
128	128	5
144	145	2
37	38	6
136	136	2
206	206	2
154	154	3
8	33	3
34	37	5
200	200	2
36	39	1
69	69	7
193	194	1
202	202	4
48	48	3
1	58	4
162	164	2
220	238	1
88	88	5
224	224	1
139	139	5
148	148	3
135	159	2
213	213	5
12	80	2
205	206	6
40	140	2
167	167	1
195	204	1
174	175	3
103	103	5
159	160	1
98	98	3
199	199	1
194	194	2
28	29	2
3	3	6
137	147	3
182	182	3
65	77	2
83	83	2
44	44	2
3	8	2
3	6	3
143	144	3
169	169	1
56	56	7
232	233	6
158	188	4
192	192	6
101	101	4
191	196	1
105	113	1
142	145	1
146	148	2
64	64	1
230	231	4
189	189	4
140	205	1
214	214	1
2	204	2
20	20	2
210	210	1
50	54	2
126	130	2
80	124	5
227	228	3
46	47	1
50	50	13
240	241	1
0	1	2
146	146	6
38	82	2
15	30	5
198	198	3
185	185	5
26	26	6
66	69	3
43	44	1
104	105	2
85	85	4
47	65	2
33	33	2
9	9	5
5	6	2
54	69	2
2	21	1
234	234	1
95	95	1
18	18	5
116	125	3
26	69	2
207	207	1
188	217	1
2	2	3
218	222	1
213	218	1
27	27	3
42	57	1
57	57	3
230	230	3
58	59	1
73	73	5
36	36	1
154	192	1
9	33	2
136	151	3
96	96	3
25	25	6
55	55	5
52	53	3
30	76	1
58	58	2
203	203	2
163	185	1
33	35	1
19	23	2
141	141	3
17	80	1
70	70	4
76	77	1
81	81	1
12	12	2
171	172	3
86	89	4
77	86	1
175	179	4
36	37	1
40	41	3
74	74	3
170	177	1
179	179	2
2	3	5
232	232	5
32	41	1
44	47	1
8	8	2
19	43	1
204	204	3
53	53	5
7	12	2
201	202	7
16	23	1
222	223	1
158	159	3
42	42	2
24	24	4
0	237	1
118	123	2
15	17	2
153	154	1
113	113	3
45	45	2
184	184	3
8	9	3
0	30	1
135	151	3
119	153	2
4	59	1
75	75	2
48	121	2
229	230	3
1	11	2
64	75	1
16	35	1
100	113	1
221	221	1
0	206	2
117	129	3
107	116	1
201	201	1
199	200	1
66	67	1
22	22	1
129	129	3
104	107	1
145	145	2
83	102	2
66	68	3
24	69	2
220	223	1
58	66	1
168	168	1
80	80	1
217	223	2
205	205	1
60	60	1
71	75	1
100	170	2
124	124	3
185	218	2
2	58	1
210	213	2
190	196	1
103	116	1
68	69	2
48	92	1
136	185	1
23	23	1
166	167	1
112	118	1
153	213	1
22	23	1
5	35	2
102	103	2
137	143	1
4	5	2
101	119	1
133	157	1
26	27	1
28	28	1
30	31	1
225	226	3
121	129	1
179	193	1
191	208	1
104	126	1
6	6	2
212	215	1
241	241	1
139	168	2
39	70	2
200	201	2
29	32	1
41	60	3
76	78	2
58	70	2
118	119	3
104	104	2
225	225	2
5	18	1
14	14	2
179	213	1
43	43	4
34	228	2
52	52	5
161	162	1
10	10	3
40	40	2
195	210	2
4	19	1
28	30	1
239	239	1
5	13	1
34	36	3
228	228	1
140	140	1
104	117	1
63	63	8
5	8	1
9	96	1
49	89	2
16	33	1
234	242	1
175	187	1
172	172	3
166	171	2
79	79	2
12	15	1
125	169	2
242	242	2
179	180	1
237	238	1
100	101	2
150	156	1
97	97	2
71	72	2
54	55	1
238	238	1
163	189	1
163	196	1
69	71	1
137	138	1
15	18	1
3	21	1
204	206	1
136	172	1
72	72	2
196	197	1
47	48	1
227	227	3
145	183	1
134	134	1
233	233	2
125	125	1
17	17	1
118	118	1
135	137	1
115	115	1
6	7	1
202	218	1
121	122	1
2	54	1
140	165	1
225	234	1
65	67	1
190	214	1
210	217	1
123	123	1
164	164	1
200	202	1
14	17	1
6	34	1
228	230	1
171	183	1
123	155	1
159	159	1
145	146	1
126	126	1
214	217	1
218	237	1
