151	173	1
34	34	5
109	109	2
71	71	6
44	44	6
73	120	3
142	142	3
25	25	6
17	17	5
37	37	3
13	13	11
113	113	6
24	24	7
127	127	3
165	165	4
144	144	5
37	38	6
59	80	2
123	123	5
143	143	5
113	115	1
112	118	1
157	157	5
141	141	3
27	28	4
1	1	4
87	87	4
8	8	7
28	28	6
30	30	10
30	32	3
75	75	5
122	122	2
24	25	4
3	3	8
125	125	5
45	45	3
55	107	1
61	95	3
126	126	6
76	76	1
16	16	5
99	100	1
135	167	3
38	39	3
86	118	1
17	18	2
91	92	2
32	32	4
4	4	8
65	65	3
128	128	8
5	6	12
153	153	4
103	105	5
162	169	1
106	107	2
163	164	1
9	9	10
83	83	1
42	42	4
108	108	6
82	82	2
168	168	5
64	64	1
31	33	2
15	16	9
80	113	5
150	150	1
155	156	3
89	91	2
25	31	1
20	20	4
178	178	1
74	75	1
177	179	2
70	71	1
29	29	3
152	152	3
93	93	2
84	84	5
53	53	4
96	105	3
171	171	4
9	25	2
95	106	1
10	11	6
120	121	3
19	43	1
33	44	1
24	38	3
115	115	7
137	137	2
104	105	1
62	62	3
107	107	4
14	109	6
88	91	1
33	34	1
54	64	4
167	170	1
160	163	1
139	139	1
38	65	3
169	169	6
88	89	2
15	15	4
81	135	5
85	107	2
179	179	3
131	131	5
44	46	5
38	38	4
66	66	5
86	88	1
149	176	1
64	93	3
147	147	2
120	120	3
84	86	3
95	95	5
124	125	5
145	150	1
107	137	2
6	6	4
35	35	4
41	42	2
5	7	3
57	57	2
106	124	2
0	0	4
160	160	1
123	161	1
62	63	5
180	180	1
43	43	6
12	43	3
164	168	5
33	33	5
138	138	1
31	32	1
66	68	1
59	59	3
159	172	1
82	84	1
5	5	4
102	107	3
46	46	4
112	113	2
165	168	1
151	151	2
172	173	3
77	77	3
116	151	1
100	137	1
50	61	3
111	111	3
77	78	1
175	175	4
76	95	2
13	108	2
2	3	4
13	15	1
14	14	2
174	174	5
107	108	3
3	4	5
123	124	5
92	92	6
36	36	5
0	37	1
92	93	2
31	34	1
158	167	7
72	72	2
21	90	2
86	86	4
7	8	1
22	44	1
124	124	1
74	125	2
150	156	1
151	152	6
20	44	1
150	155	1
141	149	2
134	137	1
149	172	1
41	41	3
153	154	2
19	87	3
122	125	1
115	153	4
80	80	2
112	112	3
35	42	1
28	31	2
26	26	5
91	93	1
61	77	1
99	99	1
58	90	1
21	22	2
35	41	2
167	167	1
130	131	2
94	94	1
147	150	3
132	150	4
116	116	3
97	110	4
61	62	1
146	151	1
110	111	1
103	103	2
74	79	1
113	114	1
10	10	2
156	157	2
162	163	2
90	90	2
107	142	1
51	51	1
117	117	2
78	113	1
26	31	1
53	65	1
15	113	1
82	95	1
74	74	4
118	118	1
142	143	1
75	89	1
11	12	2
148	148	1
79	112	1
127	156	1
67	67	1
7	9	1
108	113	1
79	114	1
110	110	1
36	37	1
83	84	3
85	85	2
65	68	1
34	44	1
160	161	1
124	143	1
19	19	1
59	83	2
155	155	1
76	89	2
173	173	3
128	157	1
50	65	1
71	111	1
66	67	3
153	156	2
156	156	1
147	149	1
129	129	2
30	51	1
165	166	4
116	162	1
40	40	1
164	164	2
6	11	1
96	97	1
11	11	1
81	82	2
160	162	1
173	174	1
31	43	1
104	107	1
159	164	1
51	64	1
39	39	1
170	170	3
72	76	2
130	130	2
143	160	1
149	149	1
4	6	1
22	22	1
87	117	2
130	160	2
16	23	1
2	4	2
53	54	2
108	115	1
74	78	1
31	31	4
152	173	1
129	156	1
175	176	1
78	79	1
9	11	1
146	146	1
125	126	1
140	147	1
56	56	2
2	2	1
106	143	1
136	136	1
154	155	2
13	14	1
101	115	1
135	135	1
86	87	1
139	141	1
91	91	1
121	121	1
107	109	1
89	131	1
112	114	1
158	158	1
102	132	1
82	121	1
44	45	1
23	23	1
