13	13	6
72	75	1
64	65	8
76	77	9
24	24	16
63	73	2
74	74	16
23	23	13
75	75	10
63	63	6
79	79	14
71	72	3
60	60	11
67	67	12
22	22	6
71	71	15
63	66	1
65	65	13
82	83	8
85	86	3
14	14	10
76	76	26
59	59	13
9	9	10
70	70	16
2	2	10
68	68	10
47	47	10
28	28	3
56	56	16
54	54	17
68	69	10
25	25	9
26	26	11
28	30	2
51	51	7
49	51	2
81	81	23
88	88	12
87	87	21
86	86	14
80	80	8
64	64	12
53	53	10
6	6	8
77	77	13
58	58	20
30	30	12
27	27	10
51	73	3
49	52	5
34	34	5
65	66	6
52	52	9
79	81	5
81	82	2
0	89	4
15	15	5
49	49	12
31	31	15
24	72	2
21	21	5
52	73	3
28	29	1
78	79	6
21	22	7
77	79	3
52	61	2
20	20	12
83	83	13
55	55	8
48	51	1
82	82	11
66	67	5
62	63	4
27	28	3
9	10	14
6	10	2
53	56	4
0	0	8
63	64	5
4	4	13
85	85	8
75	80	1
19	20	2
69	70	5
58	59	2
35	47	2
3	3	14
46	46	3
46	47	5
16	16	6
26	27	3
12	12	11
32	32	5
48	58	2
29	29	1
50	50	9
61	61	7
53	54	6
85	87	5
12	17	4
89	89	7
78	78	4
8	10	3
77	78	2
62	62	10
48	54	2
61	76	2
84	84	12
60	62	1
8	8	2
72	72	2
21	23	1
23	24	1
6	7	2
7	7	12
10	12	4
73	77	5
69	69	7
9	13	4
47	48	3
11	11	7
65	76	1
57	57	6
23	25	2
11	12	3
17	17	18
47	50	2
19	19	6
5	5	7
48	50	4
49	67	1
76	79	4
11	13	2
49	50	1
81	83	1
20	21	3
25	26	6
0	1	7
57	74	5
16	47	4
90	90	2
23	26	1
56	57	1
74	75	6
86	88	3
80	81	5
6	21	2
56	59	1
67	69	3
14	16	1
55	56	3
1	5	3
53	55	5
66	66	9
34	46	2
9	11	1
50	73	3
87	89	2
5	6	2
48	48	9
25	65	4
5	22	1
73	73	4
24	25	3
4	5	1
12	14	2
50	56	2
10	11	3
2	5	1
27	31	3
61	62	5
57	65	2
50	51	2
52	59	1
1	1	4
75	79	1
72	73	1
75	85	1
7	8	1
54	55	2
75	76	2
61	65	2
71	75	1
6	20	2
57	58	3
23	73	5
51	66	1
5	7	1
21	25	2
15	16	3
52	53	1
30	55	1
22	23	4
12	13	2
62	74	1
23	81	1
79	80	1
60	61	2
86	87	2
30	50	1
35	35	1
51	54	1
17	52	2
65	74	1
70	71	1
59	60	1
11	23	1
5	20	2
23	72	1
72	76	1
21	24	1
57	73	1
56	75	1
50	53	1
84	88	1
20	22	1
78	80	1
46	48	1
71	80	1
51	52	1
