43	43	12
5	17	1
192	193	2
81	81	8
16	30	4
133	133	4
242	242	6
199	199	9
103	103	8
152	152	2
12	12	2
151	151	3
66	66	6
114	114	3
75	75	3
60	105	4
160	161	1
109	148	2
42	42	12
217	219	1
181	181	3
228	231	3
50	51	9
128	147	1
88	88	5
150	198	1
186	187	2
127	129	3
176	176	11
104	104	8
31	31	2
38	39	10
83	101	1
185	185	6
6	23	1
61	61	4
3	3	5
16	34	6
150	150	5
72	72	7
21	79	3
135	148	2
4	30	3
159	159	2
16	32	2
28	29	3
32	32	7
95	101	9
5	5	9
23	23	1
149	150	3
12	13	2
39	39	6
168	168	10
167	168	2
194	194	5
68	68	2
126	127	8
217	218	4
207	208	3
193	195	1
149	173	4
40	40	8
186	186	3
192	192	2
18	19	3
136	161	1
115	116	1
193	193	6
28	28	9
154	154	1
43	44	9
83	83	5
46	46	4
199	200	2
207	207	1
11	11	1
48	50	2
110	134	2
185	186	1
154	155	1
64	85	3
222	224	5
229	229	7
55	55	5
229	230	1
106	107	4
135	135	3
178	178	2
142	142	1
146	161	2
53	53	1
211	211	3
86	86	2
32	57	1
190	191	1
119	129	2
16	17	1
226	226	3
58	58	6
130	131	1
71	71	7
23	58	1
15	16	5
27	28	3
47	61	1
15	15	9
70	70	4
22	58	1
142	145	7
53	184	7
146	147	1
105	105	14
56	70	1
11	29	5
63	63	5
90	97	1
68	72	1
205	208	3
30	30	7
130	130	3
139	139	4
21	21	3
57	57	5
133	148	4
44	44	3
2	3	2
171	171	5
17	52	3
73	73	3
153	175	4
85	86	5
85	96	4
215	215	1
64	65	4
42	43	4
170	229	2
82	83	2
212	212	3
177	177	14
49	49	9
174	174	3
109	109	1
80	82	3
28	85	3
47	47	5
159	160	2
195	196	2
27	29	1
42	45	1
190	190	5
51	54	2
239	239	2
182	182	2
120	184	2
52	215	1
9	9	8
220	220	5
60	60	5
123	123	5
99	99	1
17	17	7
75	78	5
133	134	3
151	153	2
96	96	2
184	184	2
25	25	5
21	22	10
240	240	2
104	127	2
158	158	2
32	36	3
12	68	2
208	208	6
200	223	3
234	234	3
38	42	1
167	167	6
66	68	5
24	37	1
179	215	1
76	76	9
20	20	5
173	173	2
169	224	1
161	205	2
7	42	1
144	144	1
237	237	2
29	29	2
38	41	1
59	60	1
111	111	1
180	180	2
200	200	9
194	195	4
38	51	1
206	206	8
69	70	3
8	35	2
10	78	4
178	239	1
122	122	5
231	231	4
54	55	2
238	238	9
198	198	1
143	175	2
162	167	1
222	222	2
161	161	2
97	97	3
163	163	11
201	201	6
45	74	3
223	223	1
120	186	1
197	197	3
145	145	2
26	42	5
226	237	3
6	6	5
50	50	4
13	15	2
218	218	1
166	166	1
124	124	5
221	221	1
67	67	4
146	146	1
169	169	2
13	14	3
179	179	6
35	35	3
54	54	1
52	52	3
29	30	3
225	225	2
103	105	6
120	120	3
158	166	2
210	213	3
51	51	3
170	198	2
59	59	3
42	142	1
77	77	2
137	138	2
67	68	2
40	41	1
140	141	4
125	126	4
166	167	2
64	82	2
195	195	3
37	37	3
38	83	2
172	172	4
69	150	1
209	210	4
28	37	1
37	38	2
129	132	3
217	222	6
78	78	2
188	218	2
191	191	1
6	21	2
32	35	1
27	27	5
237	238	3
66	97	2
147	148	2
74	142	2
11	73	1
60	92	1
200	201	3
31	57	1
16	16	1
8	9	2
224	224	3
38	88	2
228	229	1
189	190	2
190	236	2
128	128	4
206	208	3
24	58	2
13	13	2
32	39	2
26	26	3
191	192	2
12	138	2
156	156	2
220	222	3
205	207	2
21	49	1
80	80	5
202	202	2
21	40	1
101	101	4
102	103	3
47	48	2
188	188	5
56	56	2
203	203	1
81	82	5
65	65	4
4	4	6
230	230	1
219	225	2
149	149	2
62	64	1
67	136	1
98	98	2
148	148	4
29	38	2
200	203	1
20	22	1
52	57	1
8	8	1
23	24	1
162	164	2
224	239	1
139	140	2
86	112	1
237	241	4
124	125	6
63	64	2
160	162	2
131	131	5
165	166	2
135	161	1
189	189	5
48	49	2
35	36	2
162	163	5
18	59	3
55	71	3
193	194	2
4	5	3
2	2	1
48	48	1
212	220	1
143	145	2
234	238	3
51	52	1
210	211	1
89	89	2
160	160	2
124	155	2
104	125	1
49	50	1
24	182	2
187	187	3
28	68	1
217	217	5
214	215	2
209	209	3
199	228	1
6	104	1
227	227	1
240	241	2
108	108	1
143	143	3
22	22	2
74	74	2
33	33	2
36	36	1
3	6	1
4	6	2
232	233	1
59	80	1
173	174	1
102	102	2
144	145	1
119	130	3
55	56	4
153	171	2
204	204	1
36	39	2
1	2	1
63	101	2
155	155	3
109	131	1
124	129	1
238	239	1
5	23	1
39	58	1
39	51	1
169	171	1
127	127	1
241	241	1
141	141	2
213	223	2
204	215	2
125	127	1
14	18	2
68	69	1
46	52	2
215	216	1
220	221	1
205	205	1
14	14	1
17	49	1
174	175	1
34	34	1
77	90	1
62	62	1
0	1	1
13	17	1
147	179	1
104	105	2
123	170	2
18	40	1
84	85	1
224	231	1
64	64	1
146	172	2
153	195	1
26	73	1
164	165	1
200	219	1
39	48	1
164	164	1
10	26	1
129	239	1
35	42	1
137	137	2
36	37	1
47	218	1
125	125	1
69	69	1
123	127	1
128	151	1
12	36	1
163	168	1
25	29	1
85	85	1
3	20	1
