166	168	3
17	17	10
50	51	8
4	4	11
32	32	22
26	26	17
172	172	20
43	45	4
37	51	4
65	106	7
102	103	4
83	86	2
74	78	2
139	139	16
10	13	5
103	103	21
66	67	5
33	39	6
113	116	4
42	42	11
61	77	1
3	15	2
57	58	6
14	14	6
161	165	4
25	115	1
160	161	7
24	24	5
86	86	15
107	107	13
145	145	12
134	134	18
40	41	11
54	55	11
7	7	12
81	82	4
95	95	10
148	149	7
19	19	11
153	156	4
110	110	12
20	20	8
40	40	16
39	41	6
44	49	2
50	50	9
10	36	1
144	152	3
26	115	5
87	87	9
10	10	13
116	116	14
41	42	6
52	53	5
88	107	1
88	89	13
135	136	3
125	180	1
27	31	4
61	61	8
16	17	11
61	62	3
10	14	4
78	79	1
18	18	33
38	38	29
100	101	12
123	126	6
22	23	9
130	159	4
21	22	3
114	114	7
150	151	5
35	35	18
0	0	9
154	154	7
106	106	16
149	149	25
5	7	10
112	115	6
23	23	13
136	138	2
166	167	2
53	54	11
12	12	15
30	30	10
161	161	2
96	118	3
53	53	13
151	151	12
96	97	2
8	10	5
19	42	5
41	43	3
72	72	6
113	113	17
158	158	7
1	4	4
29	30	2
170	170	12
125	125	6
91	92	16
144	144	9
11	12	6
43	66	3
133	133	15
130	157	5
8	8	22
76	77	4
65	66	18
130	130	7
10	11	4
147	147	8
6	6	13
131	132	8
97	159	3
90	91	6
39	39	12
163	163	12
27	27	10
18	20	2
122	122	14
12	43	3
37	37	9
121	121	11
60	60	11
52	52	21
9	9	18
123	177	5
77	79	1
13	13	25
117	117	21
130	131	4
154	155	7
55	55	17
118	118	5
126	154	3
63	64	2
53	62	1
41	41	15
22	22	30
16	16	14
1	1	9
88	88	24
6	31	3
8	9	12
166	166	15
43	43	13
75	75	4
64	65	10
82	82	5
117	118	11
142	170	4
90	90	14
92	93	6
16	59	2
163	178	4
46	46	3
56	57	10
85	85	3
118	122	9
68	68	10
89	89	21
63	63	4
77	77	2
15	15	10
169	170	5
104	104	16
8	15	2
87	88	5
100	100	10
80	82	2
12	68	1
80	81	5
141	141	14
60	63	3
81	86	2
133	139	2
84	85	13
34	34	12
128	128	5
65	65	4
36	36	14
79	79	11
173	174	6
33	33	21
110	111	2
105	106	7
109	109	10
82	83	1
3	4	3
44	44	19
105	111	3
52	54	4
159	159	7
68	71	5
145	150	4
92	92	6
138	138	9
169	169	6
28	30	2
33	34	3
73	74	5
115	132	3
116	117	5
58	65	2
167	167	16
29	29	6
23	24	3
167	168	2
17	19	2
157	157	17
93	93	12
119	154	1
145	146	4
114	116	9
105	105	10
80	99	3
51	52	2
120	124	2
165	165	10
131	157	1
25	25	9
114	117	2
97	97	11
108	108	15
115	115	13
154	159	1
123	124	5
53	56	2
29	32	2
25	26	9
148	148	9
60	61	11
101	116	3
81	81	5
71	71	12
178	179	1
120	121	4
51	51	11
29	31	5
27	29	10
24	25	7
11	11	7
66	66	9
98	144	4
165	166	5
150	155	3
8	17	5
137	137	5
153	154	5
119	119	5
67	68	3
14	15	7
20	32	4
58	59	1
154	156	1
176	176	15
36	37	2
123	151	5
140	140	6
142	142	14
63	66	2
121	126	3
13	35	4
98	100	6
161	168	5
98	98	10
163	164	5
53	79	3
56	56	16
57	59	2
45	45	13
62	86	6
27	30	1
14	57	2
126	126	10
15	16	4
150	150	11
146	146	4
160	160	4
174	175	6
127	127	7
103	107	2
49	50	4
60	108	1
27	174	2
90	94	1
1	15	1
158	159	7
173	173	17
28	28	6
96	156	1
132	132	4
2	10	2
63	87	1
1	6	1
16	18	1
50	102	1
2	2	11
167	176	5
65	94	8
52	56	3
59	61	5
76	76	12
137	138	2
57	72	2
174	176	3
142	144	1
22	24	2
92	94	5
136	136	4
99	99	12
172	173	1
115	116	2
1	2	2
7	8	3
58	58	2
26	37	1
113	114	5
74	75	1
118	120	4
73	73	2
119	120	3
22	40	1
15	66	2
99	101	1
10	12	1
11	29	3
70	71	1
124	124	6
8	36	1
161	163	1
161	162	9
6	7	4
123	125	3
162	166	6
83	84	5
180	180	5
127	152	1
97	129	1
83	88	2
146	154	1
62	62	8
178	178	3
101	101	1
18	22	2
12	13	9
135	135	4
49	49	6
173	175	2
59	60	3
168	168	9
162	167	3
94	94	12
105	109	2
120	146	4
156	156	6
153	153	6
43	44	7
28	99	1
120	120	6
26	27	9
8	37	5
52	99	1
91	91	13
51	82	1
54	54	8
80	80	5
11	14	4
32	68	6
55	56	2
175	175	3
31	32	6
84	84	9
105	114	1
111	111	6
60	62	2
131	131	4
117	119	4
68	73	3
62	63	7
5	6	7
9	12	1
5	5	7
36	38	2
128	130	1
174	174	4
19	23	1
164	164	8
65	86	2
28	31	1
125	126	1
77	91	1
95	142	1
20	21	2
32	33	6
133	134	2
27	28	5
142	143	5
145	148	3
44	45	4
128	129	2
141	143	1
140	141	3
90	98	1
55	61	1
6	12	7
146	153	3
61	63	3
152	152	4
67	67	5
141	148	1
55	95	1
65	67	4
94	167	1
115	133	1
39	40	2
138	139	5
82	85	2
157	158	3
172	177	4
162	162	6
55	57	2
151	152	2
31	31	5
91	93	3
25	27	2
127	129	2
109	110	3
99	118	1
3	5	3
171	173	7
40	75	1
34	36	3
58	122	3
132	133	6
50	62	1
33	40	1
123	143	2
113	115	3
31	112	1
14	66	3
158	161	2
95	96	3
77	78	4
164	168	3
161	166	3
57	57	4
2	6	3
75	79	2
83	83	4
160	162	4
19	21	2
177	178	2
42	43	3
163	175	5
124	125	7
16	60	1
146	150	2
64	64	7
130	158	1
110	122	1
95	140	1
65	122	1
40	43	3
21	21	6
140	143	4
61	65	1
52	95	1
82	84	1
143	143	2
116	118	3
22	27	1
58	60	5
106	108	2
177	177	3
103	104	4
13	14	5
103	113	1
124	144	4
5	12	2
83	85	2
7	22	1
74	74	1
164	169	1
96	117	1
14	16	3
171	171	5
2	3	5
102	102	5
57	176	3
167	173	1
35	36	2
121	142	1
3	3	6
11	20	1
22	25	2
90	93	1
170	171	2
50	100	2
110	112	5
13	41	3
87	89	3
131	149	2
112	112	3
121	122	1
163	165	3
129	144	1
84	93	2
146	147	1
24	26	2
112	124	1
121	123	1
13	66	1
134	135	2
127	145	2
58	80	1
9	10	5
96	96	2
155	155	3
81	83	1
79	81	1
79	80	2
33	35	1
63	86	2
162	164	1
59	59	2
168	169	3
80	100	1
129	129	2
23	25	1
103	105	1
78	78	4
121	124	1
21	39	1
118	121	1
127	128	2
143	144	2
112	113	4
126	152	1
91	94	2
20	22	4
58	92	2
97	160	1
23	38	2
64	86	2
72	77	2
93	96	1
74	93	1
101	102	4
103	110	2
172	174	2
75	138	1
77	81	1
160	163	1
147	148	3
11	36	1
129	156	1
116	122	1
114	118	1
107	108	2
147	154	3
42	44	1
37	38	2
60	167	1
175	176	2
71	78	2
40	42	2
151	154	2
95	98	2
76	138	1
17	43	2
121	144	1
23	36	1
108	109	1
77	80	1
82	87	1
113	133	1
127	154	1
102	104	1
146	155	1
31	38	1
15	18	3
164	167	1
136	137	1
127	143	1
27	33	1
86	87	2
94	95	1
175	178	1
80	89	2
103	108	1
80	85	2
78	92	1
75	137	1
76	79	1
16	40	2
64	87	2
38	39	1
117	122	2
30	31	1
17	21	1
18	19	1
111	112	1
133	136	1
24	28	1
129	157	1
35	38	1
58	73	1
135	137	3
123	123	2
52	98	1
11	13	1
51	101	1
50	52	1
