105	105	17
113	113	10
9	12	5
128	130	7
116	118	11
41	41	36
94	94	25
82	87	2
16	17	20
28	28	13
69	69	28
102	102	39
124	124	15
110	113	3
106	106	14
84	84	18
81	82	9
106	107	18
14	14	11
21	21	10
17	17	8
10	12	6
2	14	3
39	39	11
51	51	31
132	133	8
31	31	17
2	5	3
39	53	2
66	66	22
95	95	14
100	100	12
91	91	21
56	56	26
53	53	29
107	107	13
93	105	7
68	95	7
27	27	17
26	27	12
112	112	21
64	64	18
49	49	43
116	116	44
110	110	15
50	50	24
46	53	2
99	103	5
96	98	2
12	14	9
19	21	6
109	109	12
13	14	9
58	58	11
92	92	31
127	129	3
16	30	1
51	123	1
123	123	23
2	2	9
3	6	6
76	77	6
121	122	3
7	7	12
120	120	20
34	34	10
87	89	4
39	40	5
118	119	20
102	103	6
130	130	29
108	108	26
74	74	10
58	59	12
9	10	7
113	114	1
24	25	4
76	80	6
61	61	7
16	16	27
126	127	4
99	100	6
12	12	25
93	93	26
62	62	12
4	4	17
133	133	7
21	22	9
44	46	1
48	48	14
49	50	3
125	125	34
96	96	32
80	80	14
90	90	10
12	13	3
71	72	9
55	55	16
52	53	17
108	120	3
129	131	5
117	117	26
97	98	18
122	133	3
115	124	4
101	101	17
24	24	17
88	91	1
84	87	3
32	32	17
11	12	7
123	133	2
30	47	1
5	5	17
6	6	23
115	118	4
78	78	8
33	34	3
46	46	13
22	22	15
116	117	13
106	109	3
98	98	17
67	92	1
118	118	8
65	65	14
115	115	16
115	116	11
63	102	4
30	62	2
29	29	20
114	114	18
30	45	3
63	63	18
89	91	5
90	91	5
60	60	14
11	18	3
106	115	5
120	121	3
78	79	16
86	87	9
61	62	6
17	19	2
57	57	20
122	122	9
82	82	20
100	102	2
121	121	35
14	15	5
102	104	4
26	28	3
12	15	3
96	97	6
13	15	4
122	125	1
72	72	14
110	111	7
30	30	16
40	41	3
3	3	6
84	92	2
28	61	5
69	71	2
14	16	3
85	87	6
131	131	21
15	16	3
10	10	20
66	86	4
97	101	3
75	75	26
131	132	4
89	90	5
12	28	2
49	51	3
43	43	9
38	38	8
71	71	22
119	119	40
13	13	14
125	131	7
48	116	1
48	49	6
9	11	5
19	20	2
48	67	8
129	130	8
65	66	7
59	59	10
109	112	3
111	111	12
40	40	17
116	126	9
54	54	22
8	8	14
111	112	10
25	25	9
44	45	1
86	86	19
68	69	1
46	47	10
103	108	2
80	81	10
21	25	5
69	70	12
18	18	13
100	115	1
108	114	1
77	78	3
114	122	7
20	25	2
98	100	2
81	81	19
12	19	3
58	74	6
128	129	10
99	104	7
1	11	1
62	68	5
109	120	9
10	14	2
109	116	5
88	89	7
15	15	9
52	52	29
70	71	6
22	23	6
45	112	2
28	62	1
83	83	21
129	129	4
101	102	6
104	106	7
103	103	9
44	44	11
89	116	3
130	131	6
8	9	6
99	99	18
85	86	1
92	93	1
1	2	3
53	54	11
76	76	27
110	116	2
41	42	13
105	106	5
94	96	8
86	88	4
89	89	18
128	133	1
38	39	3
104	105	7
17	18	2
76	84	4
54	123	2
54	97	1
5	13	3
72	73	3
48	66	1
95	97	6
97	97	12
123	124	1
49	54	2
124	133	4
83	84	5
107	108	8
68	68	13
16	23	6
91	96	3
10	11	2
42	43	1
66	67	2
45	46	13
99	101	2
45	45	10
20	21	2
4	50	1
83	87	4
93	104	1
98	103	5
132	132	22
83	86	3
65	67	4
126	126	20
25	26	14
42	42	6
26	26	13
46	48	3
126	128	7
64	66	6
118	120	2
112	113	9
47	92	1
8	13	4
33	33	14
47	49	14
88	88	4
48	52	6
32	38	1
19	22	2
1	1	17
91	92	10
113	119	6
18	19	3
59	73	1
114	119	2
43	44	7
108	109	9
6	50	1
55	56	6
82	83	8
92	101	2
46	89	2
0	0	17
102	124	1
42	44	1
87	90	2
19	19	9
107	115	1
48	53	1
11	11	16
124	125	8
11	16	6
109	114	2
128	128	5
88	121	3
6	7	5
70	70	9
103	104	7
101	129	1
0	1	10
127	128	5
74	75	5
109	110	2
18	25	1
24	28	5
79	80	3
29	30	10
87	88	5
94	95	7
81	85	4
76	82	5
51	52	4
84	86	4
2	3	10
47	47	18
76	81	6
83	104	1
93	94	10
60	64	3
12	18	1
105	109	3
69	72	8
79	79	7
77	77	20
59	60	4
85	93	2
29	31	7
115	117	3
45	47	6
83	89	2
73	73	9
60	65	3
47	55	3
4	16	2
87	87	5
54	56	6
9	26	3
109	111	5
8	10	3
16	19	3
24	26	1
41	47	1
109	113	7
28	29	9
26	30	3
84	93	2
86	89	2
46	86	1
104	104	11
61	68	3
110	112	2
9	9	7
3	5	1
58	76	3
89	111	2
82	84	3
100	103	12
50	53	3
39	55	3
85	85	11
114	123	2
31	32	2
97	102	1
54	55	4
5	20	1
46	49	2
62	70	5
96	102	2
67	67	4
32	33	3
20	31	2
108	111	5
82	99	1
68	73	4
22	25	2
95	96	1
56	57	4
102	106	1
98	99	3
78	96	4
75	76	4
69	75	1
30	32	3
66	68	2
20	20	7
75	77	2
14	18	3
25	27	4
105	118	3
50	51	4
115	119	3
108	123	1
51	53	1
25	28	2
58	61	3
117	119	4
116	119	1
16	18	7
68	97	1
130	132	4
84	85	2
18	21	6
125	126	2
30	31	1
11	14	2
57	59	1
78	80	2
84	88	1
120	122	8
115	125	1
58	77	2
91	112	1
20	29	4
46	92	1
18	26	5
31	39	3
93	110	1
7	14	1
45	51	2
80	82	4
27	31	3
51	129	1
105	125	1
46	51	2
91	95	1
108	124	1
50	54	2
99	108	3
81	94	1
16	28	1
105	107	1
108	116	2
63	73	1
17	21	4
27	33	2
2	10	1
20	94	2
80	84	4
5	7	2
110	125	2
2	7	1
96	107	3
103	106	1
109	124	2
88	90	2
84	117	2
3	7	3
110	115	2
72	82	3
4	6	1
101	103	3
48	65	2
27	29	4
68	72	1
81	83	1
83	105	1
111	119	1
97	99	3
15	29	1
103	131	1
128	131	1
72	74	2
107	126	1
18	24	2
44	129	2
64	73	2
58	60	1
100	101	1
99	107	2
7	10	1
127	127	3
74	102	3
0	12	2
88	109	1
56	76	1
1	50	1
17	22	1
51	54	3
115	127	1
97	113	2
22	34	4
98	102	4
67	68	1
63	64	5
64	104	2
74	85	4
114	125	3
45	55	1
101	104	1
86	90	1
50	55	2
2	4	3
41	43	1
91	93	2
104	109	1
12	20	2
105	116	1
20	26	1
121	123	2
38	46	1
111	114	1
11	15	3
75	78	2
125	128	1
114	118	2
85	88	2
14	20	1
110	114	1
25	29	1
100	104	2
90	96	1
114	115	1
7	8	2
111	115	1
5	12	1
2	13	1
91	122	1
60	61	2
51	122	1
108	118	1
117	118	1
4	28	1
79	81	1
109	118	1
113	122	1
79	99	2
125	132	1
86	124	1
58	62	2
98	104	1
13	18	1
119	126	1
46	50	2
92	95	1
23	23	1
9	86	1
0	11	1
2	25	1
87	117	1
91	110	1
79	97	1
