48	48	33
63	64	17
6	8	5
54	56	7
37	37	21
60	61	19
56	56	29
60	60	19
32	33	5
10	10	17
55	55	26
50	51	17
78	78	22
33	33	19
28	60	1
75	75	23
4	4	22
62	62	30
64	72	3
65	65	17
5	6	9
76	76	24
41	41	17
61	61	18
68	70	2
51	51	13
68	68	25
15	15	18
57	58	11
46	46	29
40	40	22
64	65	6
61	66	3
70	70	15
27	27	21
18	19	3
27	28	6
0	0	13
46	47	8
54	55	9
58	58	11
64	66	6
4	5	6
9	10	9
42	42	18
26	27	12
11	12	14
4	6	6
8	8	20
71	75	4
20	20	14
74	77	4
39	39	22
3	3	24
31	31	15
47	47	17
26	26	37
49	49	22
9	9	17
28	28	16
0	21	1
34	34	17
74	74	15
13	13	28
6	7	5
45	45	15
75	76	4
19	19	21
4	53	1
58	59	5
30	30	14
63	69	17
5	5	10
17	17	15
72	72	21
55	56	10
64	64	11
71	71	16
74	75	10
59	60	10
6	6	3
59	59	17
62	63	5
2	2	17
74	79	11
16	17	7
70	72	6
54	54	37
66	66	8
15	16	6
21	32	2
42	70	2
17	18	7
52	52	9
32	32	16
17	41	1
29	29	15
25	26	5
80	80	15
36	37	8
45	55	1
21	54	1
73	73	19
53	53	11
59	63	2
7	7	19
56	57	5
0	19	5
72	74	3
25	30	3
20	56	2
21	21	9
35	36	3
8	9	9
63	63	15
50	50	5
68	69	3
67	67	19
1	1	17
19	34	1
12	12	9
42	72	2
67	80	2
34	35	2
38	39	8
36	36	14
45	46	3
67	68	15
25	25	6
57	57	20
12	13	8
3	26	3
65	72	3
70	74	4
49	50	4
41	42	4
70	71	5
53	54	8
77	77	6
35	35	18
76	77	4
18	18	5
69	69	18
77	78	7
9	18	1
50	52	8
40	41	6
38	38	31
0	1	3
32	34	8
78	79	3
47	48	7
34	47	1
3	68	1
16	16	9
1	3	5
5	31	5
16	54	3
60	67	5
11	11	16
30	31	8
33	34	10
11	13	2
29	30	5
10	11	2
0	8	6
9	16	4
14	14	10
37	40	2
79	80	2
38	40	1
11	15	4
71	72	8
62	65	1
37	62	1
47	57	5
65	66	7
69	70	2
29	31	3
42	43	2
59	61	2
15	21	2
70	73	3
49	51	1
28	59	1
19	20	2
46	62	3
3	4	3
1	2	6
58	60	4
53	56	1
11	14	2
48	49	5
44	45	1
69	71	3
4	80	1
30	34	1
51	53	2
75	78	4
48	56	7
2	70	2
35	48	3
28	29	1
43	43	3
5	10	2
5	33	2
8	10	1
2	8	2
39	56	5
66	67	12
2	4	3
47	55	7
7	8	1
10	54	1
14	15	4
66	68	4
64	70	3
0	2	3
52	53	5
0	3	2
73	74	4
2	3	3
8	18	1
19	33	1
75	77	12
30	35	3
7	16	1
8	15	1
0	71	1
50	53	5
18	25	3
51	52	2
61	62	1
35	45	1
19	21	3
66	69	3
63	65	2
49	53	1
21	33	2
64	69	1
79	79	5
37	44	2
40	43	2
5	34	1
4	73	2
40	65	1
49	54	1
40	46	1
36	47	1
35	40	1
8	79	1
14	21	1
26	30	1
16	19	1
30	36	1
80	81	3
60	65	1
61	67	3
2	64	2
20	21	1
46	56	1
0	9	1
72	73	2
34	36	1
41	67	2
37	38	2
3	6	1
25	31	1
19	55	1
53	55	1
74	80	1
7	79	1
3	5	1
37	41	1
17	26	1
