100	100	24
50	51	10
104	109	4
114	114	19
104	105	6
175	175	16
163	163	17
5	6	10
54	56	2
174	174	20
15	16	10
128	128	10
172	172	33
54	54	6
39	40	4
135	140	4
22	22	13
0	35	6
31	32	4
185	185	20
121	121	12
193	193	23
196	197	5
95	96	3
15	172	3
25	38	5
163	164	14
187	188	4
161	184	5
139	155	1
143	143	10
126	126	17
162	184	3
103	109	5
105	152	2
36	36	14
31	31	17
165	166	6
101	124	3
51	51	22
24	37	1
149	156	7
101	101	14
46	46	26
162	162	12
132	132	10
55	81	2
130	130	11
183	183	21
30	30	16
53	54	7
13	13	21
27	28	10
176	178	1
195	195	17
14	15	4
120	120	18
115	136	7
55	55	15
37	37	26
25	26	2
122	123	4
161	181	2
140	140	9
189	189	15
184	184	26
152	164	3
78	78	8
35	35	9
96	96	12
57	60	3
10	26	5
59	59	12
86	168	8
169	171	2
144	172	1
42	43	6
156	156	34
114	115	3
147	147	29
60	60	4
30	31	16
113	129	2
107	107	9
86	86	9
134	143	2
51	52	3
186	186	28
196	196	20
177	177	17
65	66	4
122	122	13
138	138	19
10	11	6
17	17	9
197	197	11
158	160	4
28	28	5
152	153	7
170	170	17
144	145	13
93	94	7
40	40	18
117	117	16
114	119	5
194	194	21
168	169	4
64	69	9
182	182	14
180	180	16
139	139	12
160	160	23
13	25	4
134	135	7
194	196	3
161	174	7
173	174	2
99	99	17
7	8	3
115	115	17
33	171	5
48	48	16
82	82	13
27	172	1
24	24	27
53	64	3
159	159	17
178	179	12
111	156	5
102	104	2
35	37	2
165	165	14
151	151	20
141	141	17
114	122	3
80	80	9
114	195	2
44	106	5
18	19	3
101	115	2
43	43	16
94	95	2
105	105	6
148	148	17
1	27	3
186	187	5
3	4	8
142	142	4
191	191	16
159	175	1
50	50	3
150	150	26
171	171	22
171	189	1
2	2	19
181	181	8
6	6	13
64	64	16
153	153	22
101	113	5
163	168	1
34	34	7
9	9	16
63	63	11
57	81	2
149	149	33
161	161	24
34	39	4
81	83	6
71	71	12
13	14	2
71	111	2
171	172	9
159	160	10
38	67	7
158	158	6
167	167	23
118	118	16
33	84	6
179	180	1
146	152	3
168	168	36
100	106	1
104	115	2
155	156	4
119	119	5
1	1	9
135	135	2
49	49	15
125	125	15
167	168	9
12	12	7
7	7	18
9	53	1
184	195	1
146	146	7
147	148	8
26	26	14
102	103	4
23	23	8
178	190	1
123	123	12
154	154	32
179	179	12
152	152	14
57	79	2
166	192	2
96	101	1
149	195	1
2	18	3
74	75	11
179	183	6
162	163	11
4	179	4
57	57	14
176	177	4
47	47	21
188	188	17
73	74	14
70	70	11
118	137	4
38	39	6
113	113	8
151	169	4
61	62	5
83	83	9
118	119	2
133	133	24
64	65	5
145	145	11
52	52	3
35	160	2
137	137	18
189	190	8
104	104	11
162	174	1
154	155	22
15	15	21
66	66	4
33	34	4
133	134	8
112	112	17
116	116	7
116	179	1
135	138	5
39	42	1
190	190	21
83	84	14
86	87	3
28	29	1
127	128	5
129	131	1
152	155	2
136	138	3
67	67	6
24	36	3
15	36	4
82	84	1
150	189	5
98	98	10
23	24	4
162	164	2
136	136	13
181	192	2
94	94	20
134	134	22
33	35	5
174	175	4
166	166	17
151	155	6
144	144	12
86	167	7
116	134	3
190	191	6
164	164	19
124	124	17
131	132	6
130	134	4
59	60	6
129	129	10
105	109	2
173	175	5
65	69	5
89	90	4
27	27	18
116	117	7
192	192	17
58	58	13
128	129	6
4	52	2
115	116	2
11	11	14
106	106	5
84	84	3
41	41	7
8	8	10
176	176	8
177	190	6
155	155	9
10	41	2
0	0	9
137	166	6
45	45	8
73	75	3
33	33	10
44	44	18
21	22	5
10	10	8
79	79	3
20	62	4
58	61	1
77	77	7
37	62	4
150	151	8
74	74	8
56	56	9
139	140	11
138	156	3
178	178	7
157	157	14
103	103	13
34	35	4
85	85	15
108	179	5
69	97	3
13	15	1
13	26	3
1	4	4
153	168	3
132	133	2
113	114	3
58	74	2
153	154	7
62	62	3
175	181	4
4	4	10
172	173	7
187	187	7
172	186	1
178	180	7
173	173	3
61	61	5
119	121	4
123	174	1
153	165	4
116	118	10
102	102	4
9	35	2
147	196	2
146	147	7
109	109	17
111	111	18
154	168	1
135	192	1
53	53	1
150	170	1
19	19	5
27	31	1
183	192	6
100	112	5
107	146	5
152	167	2
36	37	3
2	3	4
11	12	5
16	16	5
97	97	21
177	179	2
20	20	5
121	123	6
19	20	7
37	85	1
9	16	1
165	178	4
78	83	1
131	131	7
113	126	2
142	153	1
68	68	2
31	42	2
157	168	6
182	183	3
143	145	1
0	2	1
142	172	1
73	73	5
8	20	1
184	187	1
103	104	4
77	78	11
185	186	6
136	137	5
33	170	2
76	77	1
14	14	20
5	8	5
82	88	2
40	100	2
0	1	5
150	155	2
118	143	4
37	40	1
154	167	10
131	145	3
129	130	2
130	131	12
101	102	4
117	147	2
33	53	2
111	121	1
12	32	1
133	153	4
5	26	2
151	166	3
43	58	2
32	32	13
170	171	7
93	93	5
93	102	2
192	193	4
0	177	3
132	143	3
70	94	3
80	83	3
40	41	14
7	19	1
154	157	4
6	8	4
180	193	1
84	155	1
32	33	3
124	125	2
29	33	1
95	95	8
84	148	2
125	126	2
185	189	3
42	42	9
136	141	4
24	25	1
151	152	8
34	36	3
55	126	4
85	112	3
54	55	9
149	150	3
169	169	6
153	155	3
101	119	3
87	87	11
103	140	1
25	25	11
169	177	2
65	65	19
111	112	1
127	152	1
84	88	3
82	83	2
132	134	2
17	22	1
186	188	2
42	72	3
8	10	2
63	68	1
100	197	6
117	131	3
148	149	4
39	167	1
98	99	6
5	5	8
9	47	2
2	161	9
58	59	5
76	79	4
71	85	2
119	120	3
100	101	3
145	169	6
193	194	3
80	110	2
18	24	3
101	125	4
21	21	4
118	158	2
191	192	6
57	58	2
69	87	2
2	34	3
127	127	1
155	157	3
154	176	2
46	81	4
8	9	4
148	172	6
168	178	3
174	182	5
61	71	1
27	37	2
78	79	3
5	179	3
169	170	3
1	18	1
123	138	4
99	173	1
173	180	1
40	68	3
147	156	2
166	167	3
33	38	1
161	167	2
37	72	2
0	59	3
6	25	1
96	97	1
29	81	2
75	75	4
110	110	10
62	63	7
43	44	2
25	39	2
1	2	6
150	162	3
157	159	4
34	166	1
117	143	3
108	108	11
102	178	2
46	80	3
38	45	3
22	37	1
50	54	1
172	174	5
85	168	2
18	23	2
130	191	3
37	38	4
16	21	2
95	97	1
93	97	6
110	111	2
38	38	1
74	88	2
3	3	8
180	181	3
85	89	4
1	177	2
38	84	1
191	193	1
81	81	5
107	139	2
98	102	1
120	132	6
194	195	4
78	86	4
89	89	9
130	145	1
4	25	1
147	168	1
151	168	3
5	7	1
45	79	1
146	148	6
122	196	1
8	51	2
158	159	3
179	192	1
67	68	2
86	166	4
44	72	3
117	118	3
4	33	2
16	17	3
170	197	1
140	191	1
71	79	1
160	161	4
188	189	2
56	57	2
61	63	2
157	158	1
88	89	2
76	76	5
152	161	1
99	100	1
138	141	2
43	71	2
52	126	1
40	42	1
4	176	1
174	178	1
105	106	4
143	144	1
18	18	3
146	169	1
134	137	1
160	167	1
106	107	1
177	178	1
1	175	1
113	152	1
159	174	1
101	158	3
116	140	3
0	19	1
37	63	2
176	181	2
72	72	5
20	22	2
70	72	1
99	105	1
39	39	5
169	178	3
69	69	3
17	23	3
72	79	4
63	77	2
133	138	2
164	165	2
29	29	3
66	68	2
119	136	3
26	34	2
72	73	1
145	146	1
116	147	2
181	182	1
157	160	1
32	50	2
40	183	1
3	25	2
81	82	1
17	160	4
110	118	1
9	19	1
71	116	2
73	76	2
173	181	4
30	57	1
5	17	1
112	114	1
173	176	1
79	80	3
3	9	2
19	21	2
38	68	1
186	189	1
108	140	1
144	173	1
148	182	1
183	193	1
134	155	1
2	24	2
88	153	1
56	82	2
40	58	1
136	167	3
21	58	2
111	115	2
19	80	1
174	180	3
6	7	2
52	196	3
10	114	1
138	140	3
9	20	2
66	67	3
161	162	2
134	167	1
42	74	2
61	70	2
67	69	1
137	152	1
138	194	2
107	108	1
43	128	1
115	127	1
187	189	1
48	49	1
108	109	4
80	82	1
154	169	1
27	39	2
139	191	1
10	47	2
152	166	1
140	156	1
136	159	1
126	127	1
14	36	1
106	157	1
99	106	1
23	160	1
123	124	1
148	155	1
0	54	1
25	27	1
32	42	2
145	176	1
187	194	1
49	50	2
120	121	1
0	22	1
101	179	1
36	38	1
4	54	1
84	85	1
174	181	1
139	192	1
172	179	1
27	44	1
111	184	1
