207	207	18
113	113	24
94	94	14
67	71	4
46	46	22
11	11	25
4	4	5
47	234	4
229	230	8
181	181	24
215	217	2
180	180	32
151	231	1
104	104	5
197	198	8
206	227	3
208	208	7
78	78	18
39	43	3
4	5	10
52	54	11
170	171	6
231	232	3
224	224	10
167	167	12
202	202	15
162	167	11
208	209	4
53	53	18
186	186	15
32	32	11
226	226	10
62	63	5
91	92	6
38	38	15
183	183	28
145	145	16
40	48	15
8	202	5
93	93	22
222	226	2
20	20	11
95	95	17
54	54	15
109	109	17
191	191	3
56	65	1
112	112	4
150	150	33
212	212	14
157	157	19
197	197	5
247	247	18
161	161	16
111	111	19
189	189	4
173	173	31
173	186	2
9	10	7
207	208	4
44	44	14
117	117	16
201	201	26
37	39	5
120	120	6
174	177	3
159	166	2
238	241	3
24	24	8
194	196	1
84	84	7
44	221	1
58	58	13
23	23	18
152	156	1
39	40	9
9	9	15
78	80	4
228	228	17
163	164	19
151	151	27
25	25	13
102	102	9
47	48	7
236	236	17
203	204	6
246	246	12
56	56	11
27	27	17
6	19	2
185	185	6
213	213	13
149	150	6
38	39	5
74	111	4
189	205	2
157	208	2
200	200	20
159	159	37
219	219	6
16	16	11
8	8	14
0	0	4
96	98	4
2	2	11
92	95	1
42	220	3
223	223	19
247	248	2
23	25	1
90	90	15
70	70	6
41	41	15
201	206	2
94	96	1
21	21	16
110	110	33
82	95	2
15	39	5
107	107	17
169	170	10
144	149	1
55	55	18
221	221	11
68	68	14
110	111	4
15	16	5
21	22	2
164	164	18
36	36	19
98	99	5
203	203	15
119	119	14
62	62	27
47	47	18
40	40	10
183	192	1
191	192	4
160	161	2
188	188	11
63	63	10
31	32	5
171	171	8
237	237	8
155	202	4
116	116	5
230	230	10
87	87	8
100	100	9
82	84	6
174	175	1
223	224	3
3	3	25
61	61	11
227	228	4
104	107	2
36	37	5
107	109	9
241	241	10
71	79	2
81	81	2
204	204	24
57	58	7
2	6	2
91	91	8
26	26	8
184	184	14
172	173	6
77	80	1
194	194	9
247	249	1
48	48	12
192	192	9
233	233	16
248	248	10
5	5	12
17	17	15
238	238	12
3	189	1
18	18	10
28	28	17
228	229	4
42	42	16
22	175	1
232	235	5
109	110	8
192	198	2
28	32	3
74	74	10
71	71	12
197	208	4
70	71	2
99	99	4
43	43	12
67	119	1
27	28	2
95	96	3
231	231	8
14	186	3
210	210	11
88	88	7
182	184	5
222	222	6
101	106	1
38	236	2
10	10	13
92	92	10
181	182	7
69	70	8
79	79	15
12	12	17
115	115	13
229	229	8
26	165	5
152	152	7
107	108	4
245	246	8
151	166	6
32	33	3
54	55	8
163	163	6
5	6	4
24	26	5
81	82	7
45	94	3
77	78	6
234	235	10
49	50	3
67	68	7
220	220	9
37	38	3
82	82	6
39	95	2
151	153	2
83	83	5
154	154	4
45	45	10
240	241	5
33	46	5
225	225	16
41	45	1
200	218	3
212	219	6
60	60	14
211	211	14
153	153	8
174	174	13
33	33	23
35	39	4
89	90	10
160	160	32
153	160	5
98	98	3
66	74	3
244	244	25
205	209	2
242	243	5
179	179	16
174	178	5
22	22	10
170	170	17
86	87	2
75	76	3
39	39	16
120	144	4
15	15	25
152	157	4
2	61	2
225	226	5
198	198	16
239	239	4
67	67	16
96	97	7
20	39	2
234	234	12
34	229	5
182	182	22
238	247	4
162	230	2
196	196	12
75	75	2
171	178	1
235	235	8
151	154	2
156	208	3
206	206	5
100	101	7
150	178	6
199	203	2
19	19	20
239	241	1
67	70	4
37	37	8
34	34	7
10	185	1
236	239	3
198	199	5
242	245	2
47	163	3
159	160	6
195	195	7
245	245	10
156	204	2
42	46	7
152	153	3
182	245	1
162	162	25
80	80	5
31	31	11
6	7	8
227	227	5
215	216	2
201	204	1
0	1	2
164	165	2
166	167	5
34	48	2
154	156	6
189	191	3
18	22	1
89	89	11
178	179	3
13	13	2
176	177	2
85	85	5
177	177	12
35	35	7
11	12	7
199	199	8
171	172	3
11	15	4
5	12	1
99	101	3
77	77	7
190	191	7
177	181	3
99	102	5
187	226	1
186	187	7
205	205	9
95	97	1
155	156	1
118	119	9
156	156	22
115	117	1
187	192	3
14	14	10
236	237	8
7	7	15
5	225	1
157	178	2
115	200	2
231	233	1
169	233	3
217	217	9
33	35	5
185	193	6
20	21	4
17	192	2
167	174	1
82	218	2
193	193	17
114	114	22
108	108	7
80	82	1
105	105	10
165	165	4
78	85	2
67	112	2
156	201	1
97	171	1
76	77	2
210	211	6
232	232	9
190	190	13
28	29	3
168	177	1
177	182	2
167	168	3
20	37	4
179	235	5
156	173	5
178	178	8
146	146	3
211	218	5
100	103	3
47	56	2
185	186	5
24	172	4
232	233	2
211	212	6
187	187	9
177	180	1
48	51	2
236	240	4
30	31	4
66	66	8
240	240	6
41	42	4
45	46	2
169	169	15
222	234	3
84	85	4
40	77	1
64	64	16
90	97	3
180	181	6
26	51	2
192	194	2
197	200	2
118	118	9
194	212	1
207	221	3
207	236	1
218	218	2
213	214	10
160	163	2
59	59	8
144	145	1
50	52	4
156	207	1
18	38	2
200	201	12
172	180	4
175	176	3
14	185	2
45	91	2
99	106	2
62	76	1
42	54	1
166	166	4
112	113	3
198	207	9
96	96	1
221	222	2
101	101	5
197	206	1
28	38	3
212	236	1
169	171	1
64	71	5
115	147	1
101	209	3
54	167	3
195	208	1
23	226	2
49	49	6
26	100	2
19	21	2
48	49	5
111	245	4
6	202	2
59	60	5
219	220	4
234	249	4
168	168	8
10	11	4
215	215	7
209	209	8
155	155	16
188	189	1
44	45	5
11	18	1
42	116	5
4	204	1
204	207	2
214	214	7
61	62	1
86	88	3
30	30	7
201	203	7
39	41	2
217	240	2
107	119	1
46	47	3
72	73	5
158	159	6
243	244	6
162	163	3
89	91	1
41	117	2
215	246	2
169	234	3
214	247	5
97	97	3
150	151	3
192	197	2
113	114	3
3	18	4
157	164	2
17	20	5
200	206	2
57	57	4
108	109	3
211	213	1
88	89	2
34	35	1
44	205	1
106	106	3
86	86	6
50	50	7
27	39	1
6	6	5
156	168	2
1	1	8
211	219	3
168	233	3
90	91	3
109	194	2
93	94	1
98	105	2
204	205	1
239	240	4
35	36	3
164	169	1
214	248	2
191	194	1
82	86	4
105	106	2
113	115	3
63	64	3
90	94	2
94	161	3
51	52	4
38	47	2
65	65	8
222	224	3
197	199	3
42	53	1
212	218	3
161	163	1
27	30	1
235	236	6
193	207	3
222	230	1
147	147	4
57	59	2
4	199	4
57	64	3
240	245	3
54	61	3
11	16	3
97	98	1
87	88	6
19	22	3
59	63	2
43	220	2
41	235	1
116	117	5
45	229	3
165	166	2
40	52	5
111	115	1
99	174	1
237	238	3
40	212	1
241	247	2
150	227	1
64	78	1
81	93	7
200	207	4
29	29	10
214	215	3
102	209	1
52	52	10
186	191	1
238	244	2
165	167	2
5	37	2
114	115	8
66	67	3
176	178	2
61	77	3
158	158	2
96	99	1
157	159	1
161	162	4
25	26	3
65	66	1
219	236	1
32	41	2
53	54	1
51	51	3
29	30	1
33	231	2
219	223	2
226	227	1
24	25	2
25	162	4
28	230	1
92	93	3
28	46	2
69	71	1
202	204	2
193	194	2
179	182	2
175	177	4
0	6	3
55	56	9
199	200	5
64	65	3
45	92	1
221	234	2
42	43	2
238	239	5
46	227	1
0	3	4
228	230	1
10	184	2
68	74	1
81	88	4
59	114	2
34	49	1
110	222	1
162	165	1
58	59	2
242	242	7
173	202	1
152	175	1
90	100	1
220	222	4
52	53	6
16	212	4
175	175	9
80	84	2
109	209	3
85	87	1
8	9	1
36	50	2
187	197	1
19	20	1
221	235	3
205	208	2
245	247	2
87	172	2
216	216	1
173	174	4
29	33	1
72	72	4
7	203	1
52	61	1
162	168	2
117	118	1
172	172	6
193	199	1
67	72	3
65	73	1
111	112	4
186	201	1
87	107	3
153	154	6
241	242	1
103	103	5
224	225	3
17	18	1
23	177	1
3	16	1
152	163	1
14	15	4
90	99	2
193	211	1
172	184	2
180	221	2
214	244	3
249	249	4
50	51	2
244	247	1
220	236	1
120	152	1
59	85	1
151	152	2
110	155	2
7	8	2
230	231	2
38	223	1
236	241	1
160	164	2
199	201	1
15	244	1
212	213	1
27	98	2
43	62	1
104	106	1
117	120	1
106	107	2
27	171	1
56	57	1
178	201	1
197	207	3
157	158	1
167	170	1
82	83	1
61	88	1
208	210	1
186	222	1
10	206	1
114	207	1
233	234	2
93	176	1
225	227	1
98	100	3
158	161	2
19	36	1
10	12	1
9	202	1
164	168	1
202	205	1
115	116	1
206	207	2
38	237	1
199	202	1
46	48	2
71	72	1
202	203	2
3	15	2
154	155	2
226	228	1
2	15	1
246	248	2
175	178	1
61	84	1
177	205	2
68	73	1
10	21	1
171	175	2
240	247	1
3	6	3
168	169	2
29	38	1
26	27	1
161	201	2
73	73	3
209	218	1
108	111	1
176	176	1
40	62	1
45	222	3
112	204	1
23	79	1
95	166	1
183	245	1
78	79	1
180	240	1
59	84	2
41	48	1
193	195	1
206	208	1
21	178	2
244	248	1
52	55	1
223	233	1
1	66	1
119	120	1
171	183	1
75	99	1
107	120	1
145	154	1
18	20	1
33	34	2
31	41	1
156	157	1
224	226	1
27	32	1
100	110	1
115	118	1
146	147	1
72	111	1
168	174	1
238	240	1
