107	108	9
79	79	30
100	100	21
124	125	4
131	131	15
120	120	10
89	92	4
73	92	2
46	46	6
32	79	3
84	85	5
53	53	28
129	129	8
109	113	2
86	87	6
12	12	11
89	93	3
14	118	6
6	6	17
77	77	14
81	81	11
45	45	12
74	78	5
111	113	5
34	108	4
87	87	3
112	112	24
118	118	10
126	126	21
50	50	20
95	95	16
90	93	4
102	102	12
109	110	16
53	56	3
68	77	2
89	91	6
5	5	18
124	124	17
3	117	1
51	55	4
42	43	5
3	3	8
58	62	4
9	9	8
55	55	7
65	65	15
119	129	3
129	130	5
62	62	6
96	96	17
63	63	2
9	10	5
81	82	16
103	104	2
78	82	5
61	61	16
48	48	21
94	94	9
80	80	8
117	117	10
111	112	7
128	128	5
73	100	3
127	129	4
50	51	12
32	32	8
25	25	9
70	71	5
114	124	3
76	76	18
41	41	10
59	59	13
21	21	9
2	2	12
39	68	2
1	1	13
103	103	10
47	47	18
30	30	18
60	60	7
54	55	1
46	129	4
88	89	6
57	58	8
86	86	4
50	79	1
28	28	13
108	120	2
10	10	9
82	82	12
54	54	18
0	8	3
125	125	6
13	24	6
39	98	2
68	68	1
57	57	24
14	22	2
99	99	10
75	75	22
56	56	24
9	15	3
1	14	3
15	15	4
51	51	12
52	93	1
121	121	11
29	104	1
91	91	8
21	23	7
78	79	11
109	109	20
42	42	20
92	92	20
66	108	3
48	49	20
94	95	10
118	120	5
107	107	5
67	67	16
76	77	4
116	116	9
57	71	5
126	128	6
107	119	4
71	71	7
66	71	1
6	7	13
114	114	24
49	131	5
131	132	3
66	101	1
58	58	6
102	103	11
72	72	7
52	58	3
115	119	1
73	73	6
130	130	14
78	116	3
14	15	11
2	5	3
0	22	2
19	66	3
100	107	1
10	25	2
106	106	9
91	93	2
127	127	11
70	70	6
52	94	2
92	93	2
114	130	4
39	99	2
79	81	1
49	49	16
71	100	3
112	113	4
119	119	19
114	115	6
72	99	1
68	73	1
23	24	5
98	98	20
62	68	4
2	26	1
44	44	11
5	119	6
64	64	13
2	15	3
117	125	4
55	61	5
111	111	6
104	120	1
132	132	10
71	97	1
30	39	4
85	85	11
122	122	14
49	109	2
29	120	1
104	104	19
0	0	14
73	79	3
45	108	4
91	92	12
17	19	2
102	106	2
39	39	24
80	81	5
68	70	4
19	19	15
115	115	21
84	84	9
4	4	12
52	53	6
97	98	6
75	76	3
128	129	6
18	18	4
66	82	1
33	47	6
106	107	8
83	83	4
7	7	15
99	128	2
31	63	2
40	63	1
52	95	2
24	24	4
10	48	3
68	126	4
27	45	1
33	55	1
81	84	1
33	33	7
26	117	1
48	124	4
33	34	5
100	101	6
119	120	7
80	83	1
52	52	21
65	74	1
110	110	12
44	46	3
2	3	6
107	116	2
19	42	1
108	108	10
83	85	7
29	43	1
41	65	4
67	109	4
132	133	6
89	90	9
48	121	3
46	47	9
23	117	6
123	123	7
78	80	3
16	23	1
109	123	3
98	131	6
26	26	18
20	20	12
14	119	5
8	8	6
116	131	1
96	116	5
14	120	1
38	38	6
117	118	7
113	113	5
29	116	2
12	104	2
22	23	2
62	64	2
115	120	3
28	29	2
56	63	1
2	107	5
47	48	2
72	73	3
120	121	1
61	62	3
45	94	1
89	89	6
53	94	4
45	93	1
90	92	2
5	118	4
80	127	3
54	87	3
55	66	2
3	23	1
31	31	9
38	39	4
14	24	1
101	103	2
3	124	3
52	54	2
27	28	1
113	114	3
96	97	2
10	15	1
69	70	1
69	69	10
87	88	5
21	107	4
14	14	9
41	42	8
108	109	3
40	100	7
133	133	7
73	127	4
77	87	2
17	18	2
67	128	1
102	107	5
21	25	4
84	96	7
51	94	3
55	68	3
107	130	6
69	84	1
1	2	5
8	9	6
59	60	9
31	44	1
39	44	1
92	94	3
7	113	2
37	62	3
16	24	1
17	17	7
109	131	3
1	114	1
78	117	1
16	16	5
15	18	1
34	34	2
4	5	2
124	133	2
100	103	4
95	96	3
62	63	3
20	41	2
67	68	9
3	7	1
112	121	2
10	11	2
119	128	4
21	22	9
45	52	2
80	126	2
108	126	1
41	43	6
111	114	11
127	128	9
4	27	3
90	91	8
0	110	1
4	25	1
69	105	2
33	48	2
29	29	4
73	82	2
60	61	3
55	85	1
7	125	2
4	6	2
10	104	4
40	40	12
40	72	1
31	84	4
24	42	3
47	95	6
83	87	1
78	85	5
118	119	2
126	127	6
113	116	2
68	127	1
25	26	2
22	39	1
40	41	6
80	87	1
28	66	2
54	56	3
82	92	1
108	129	3
86	89	7
19	23	1
103	126	4
41	100	5
11	12	4
51	122	6
5	8	4
23	40	6
29	30	3
27	29	1
11	11	10
113	131	3
12	63	1
65	72	3
108	116	2
67	130	3
125	129	3
107	114	3
82	100	7
77	80	1
73	80	3
111	121	3
83	86	1
18	24	2
102	131	1
6	9	4
20	28	1
27	27	13
99	103	5
20	21	2
105	105	12
23	42	1
82	101	3
97	97	5
16	17	2
107	125	3
43	43	8
74	75	3
16	19	1
30	31	3
13	14	5
61	63	1
77	82	1
120	123	4
108	130	1
32	46	1
0	1	4
41	103	2
73	78	2
99	108	2
127	130	1
14	17	2
67	102	2
94	96	1
99	100	3
23	23	4
31	32	7
47	94	5
75	89	2
86	97	2
71	98	3
90	90	6
33	79	2
4	118	3
82	127	3
67	69	1
107	128	4
20	75	2
5	18	1
55	97	4
0	7	2
116	117	3
15	17	1
85	88	1
66	73	3
7	108	3
75	101	1
98	126	3
70	73	2
99	115	1
51	52	2
87	93	2
27	105	1
66	66	7
7	14	1
103	120	1
34	128	2
116	124	1
4	50	1
81	101	2
111	122	1
40	101	1
18	42	4
71	87	3
112	114	1
15	16	1
79	84	2
88	88	10
39	71	1
91	97	3
11	16	2
31	54	5
28	45	2
124	128	2
76	85	2
60	64	1
67	127	3
105	106	3
8	115	4
16	28	2
93	94	1
67	81	1
83	84	6
12	13	4
58	59	3
38	62	1
93	95	3
125	132	1
104	125	3
93	93	7
74	74	1
5	116	3
72	98	3
101	108	1
111	131	2
19	51	3
27	104	1
91	94	1
95	131	1
78	78	6
67	72	3
112	119	1
19	20	2
9	47	5
117	127	2
75	77	1
43	44	1
45	46	3
12	28	2
102	129	1
120	129	1
111	119	2
67	74	5
66	102	2
3	6	1
72	128	5
39	56	1
66	107	2
101	101	3
81	100	2
115	123	1
40	59	2
38	68	1
25	117	2
32	64	1
34	47	1
68	107	1
120	122	1
42	44	2
19	21	2
66	67	1
73	77	2
22	22	2
117	128	1
72	78	2
40	103	1
31	65	2
46	48	2
80	82	1
14	18	1
125	131	1
65	66	3
46	92	1
8	13	1
94	98	1
104	133	1
100	122	1
56	57	1
65	104	3
101	102	1
3	17	2
104	105	3
38	54	3
52	61	1
85	87	2
74	117	1
29	54	4
73	98	1
67	126	3
15	108	2
49	50	6
103	127	1
78	127	1
44	129	2
110	114	1
102	108	3
72	74	2
12	30	1
65	125	2
3	116	1
17	26	1
5	114	1
8	114	2
81	127	2
15	22	2
119	126	1
113	130	1
59	61	4
3	9	2
75	85	1
13	13	2
65	77	2
55	64	1
97	115	1
30	45	1
45	87	1
108	133	2
90	97	3
56	66	1
14	19	1
113	115	1
107	131	1
49	122	1
51	95	1
46	107	2
71	83	2
54	59	1
21	24	2
9	13	1
96	99	1
42	52	2
34	126	1
114	129	1
6	47	1
121	122	2
27	50	1
38	67	1
5	113	1
42	55	2
3	4	3
2	4	1
130	131	1
10	16	2
5	42	1
110	112	2
39	117	1
55	78	1
0	3	1
40	64	1
94	121	2
119	133	1
112	122	1
2	113	2
45	107	1
22	29	1
18	30	1
52	86	1
38	74	1
44	45	3
81	104	3
45	92	1
85	97	1
38	59	1
11	28	1
108	117	1
28	31	1
8	48	1
69	74	1
103	129	1
118	129	1
5	6	1
23	41	1
79	80	1
120	133	1
41	51	1
23	29	1
102	104	1
102	130	1
99	120	1
26	116	1
96	98	1
3	5	1
103	125	1
70	100	1
39	63	1
100	118	1
19	24	1
39	88	1
8	107	1
89	97	1
5	115	1
