62	62	8
119	122	3
97	97	3
11	62	1
5	5	6
16	16	11
52	52	7
87	87	5
2	2	12
111	111	4
66	87	3
11	11	12
60	60	1
123	123	8
117	120	3
72	73	1
57	58	1
37	37	6
83	90	1
74	74	4
66	67	3
128	129	2
109	109	4
17	17	4
9	18	2
112	114	2
44	49	6
8	10	1
106	106	12
51	115	3
99	99	8
130	130	6
7	7	2
8	8	4
130	131	4
89	112	3
3	3	2
97	100	1
92	107	1
57	61	1
116	116	7
6	6	4
121	123	6
80	80	3
49	62	1
82	83	4
133	133	5
106	108	5
64	81	3
61	68	1
84	86	3
50	51	3
5	6	3
13	14	3
59	59	4
109	112	7
104	104	6
68	69	2
114	115	1
27	28	4
15	16	2
124	124	9
118	118	12
86	88	2
33	33	7
130	133	3
1	4	3
131	131	7
8	13	2
123	124	1
98	123	1
68	68	4
105	105	4
108	108	9
55	124	1
55	109	6
117	117	7
132	132	6
79	79	5
53	53	3
10	10	3
110	110	5
96	97	2
46	120	4
127	134	2
23	23	6
54	55	3
27	29	1
90	93	4
79	110	1
65	98	1
108	131	3
58	58	1
58	59	2
54	56	2
99	101	4
95	95	9
49	49	2
114	114	2
77	77	4
45	45	2
110	111	3
55	121	2
26	26	8
64	67	1
61	78	1
124	127	1
63	64	1
31	35	3
11	38	2
9	10	1
113	114	2
14	14	4
66	66	6
86	119	1
116	132	2
23	26	2
78	128	2
44	44	6
9	11	5
18	20	5
86	92	1
13	13	2
54	77	2
8	37	4
78	79	1
31	31	3
115	115	6
78	78	5
60	110	3
63	63	3
47	47	1
47	62	4
76	76	1
54	54	4
114	116	2
58	87	3
28	28	2
101	101	5
92	115	3
86	110	2
34	34	4
59	98	3
15	15	1
34	128	1
83	84	2
73	73	3
118	132	2
35	35	5
12	32	1
83	83	3
0	0	3
21	70	3
9	9	4
121	121	3
90	90	3
61	85	1
36	36	2
69	84	3
114	129	2
32	32	3
22	29	5
72	81	4
100	100	5
89	89	1
93	93	6
25	25	2
119	119	3
47	79	3
119	130	3
127	127	5
14	22	4
107	107	6
28	29	6
27	27	2
125	125	2
100	101	5
11	70	1
49	91	2
128	128	2
132	133	4
118	125	1
109	111	2
79	82	2
94	95	2
1	1	2
61	87	4
75	75	1
3	4	1
118	130	3
117	122	1
69	116	2
118	121	1
69	70	3
123	126	2
12	12	1
0	1	1
30	31	1
85	100	3
78	83	1
59	112	3
36	45	2
36	44	1
56	56	1
81	81	1
99	124	1
93	94	1
24	24	2
103	103	10
86	86	2
114	126	1
70	70	2
84	84	2
59	116	1
85	86	2
96	96	1
19	20	2
113	118	1
20	22	1
50	121	4
3	34	1
87	108	1
47	76	1
105	112	4
77	78	1
126	126	2
96	129	1
72	72	1
102	102	2
4	4	2
60	61	2
71	73	2
59	60	4
23	24	1
73	127	1
55	55	1
69	69	1
29	89	1
31	32	2
85	85	1
17	124	2
53	110	2
65	66	1
61	64	1
67	84	1
14	77	1
72	129	1
67	67	6
82	85	1
128	131	1
76	94	1
99	100	1
23	30	1
14	15	1
25	49	1
135	135	2
82	82	1
124	125	1
61	61	1
11	37	2
94	94	2
9	38	1
68	116	1
131	132	2
112	113	1
21	21	2
71	72	2
34	35	1
29	71	1
18	18	1
111	119	1
50	52	1
64	64	3
95	111	1
118	124	1
66	86	1
55	59	1
48	48	2
3	33	1
80	90	1
86	113	1
38	38	1
49	55	1
52	91	1
