27	27	11
117	117	9
8	8	3
45	45	5
98	99	6
29	29	14
78	78	10
74	78	5
76	76	3
104	104	2
57	57	3
6	94	3
104	105	10
58	77	3
26	27	7
57	58	5
9	9	17
95	99	2
95	95	4
46	46	7
114	115	8
5	8	3
81	81	6
37	48	2
17	17	15
121	121	2
39	40	7
16	16	4
4	25	6
87	109	10
56	56	7
72	72	6
15	15	11
28	28	8
120	120	4
39	39	8
80	81	2
83	84	3
25	83	1
60	107	1
39	58	2
93	93	13
83	83	9
47	74	1
86	86	2
0	0	4
71	71	11
18	19	3
15	19	3
40	40	8
96	98	2
7	20	3
55	55	2
10	11	4
98	100	2
33	33	7
18	31	6
93	102	2
105	105	5
90	90	11
18	18	3
5	5	11
42	59	2
15	22	3
73	73	5
91	97	1
43	43	1
3	32	1
117	120	2
75	75	11
12	12	3
48	48	4
126	134	1
44	44	5
66	67	2
26	47	1
63	74	3
27	48	7
4	4	7
21	21	3
8	47	2
84	84	8
91	91	9
34	34	9
27	92	2
79	80	3
44	88	1
74	74	11
17	73	2
112	112	8
0	65	7
103	103	7
96	96	5
12	38	1
7	7	8
70	70	12
107	116	3
123	123	5
26	93	1
35	35	6
92	98	3
96	97	2
39	56	2
126	127	4
68	68	11
31	31	14
71	72	5
125	126	3
10	10	15
111	111	5
115	115	4
11	11	11
37	38	3
24	43	1
121	122	3
80	80	2
97	98	3
128	128	1
27	98	6
5	95	2
89	107	5
18	20	2
77	77	4
41	41	12
48	130	3
115	134	2
16	17	1
59	76	4
35	77	1
97	100	3
68	69	5
121	125	1
38	46	2
120	121	2
67	67	4
45	48	5
133	133	5
63	63	1
12	101	2
79	82	2
103	104	5
79	79	6
19	20	2
100	101	3
82	82	8
23	42	2
47	130	1
100	100	3
32	32	4
88	89	4
126	126	1
7	84	1
62	62	10
22	22	5
44	82	2
98	98	6
96	105	4
66	95	2
47	47	7
60	82	3
27	28	2
91	94	4
21	78	3
94	123	2
69	69	12
110	111	4
47	68	1
56	69	1
21	84	3
14	14	4
94	124	3
86	89	2
54	113	3
95	108	2
37	37	1
22	78	1
46	118	1
57	79	1
69	71	2
82	83	2
60	60	8
66	66	4
67	72	1
90	94	2
23	23	1
130	130	6
60	66	1
42	90	3
131	132	1
58	58	8
101	101	10
92	110	2
7	43	1
48	84	1
92	92	3
48	49	1
45	70	2
3	94	3
60	83	2
111	120	1
64	64	1
94	94	2
56	74	1
81	87	1
72	73	3
19	19	4
6	42	1
26	46	3
66	74	1
59	66	1
102	102	3
25	26	2
114	114	5
56	85	1
34	35	2
26	26	7
36	36	4
3	98	3
3	96	2
78	80	1
65	65	2
36	71	2
105	112	1
45	64	2
95	96	2
3	3	1
70	71	3
70	77	1
26	29	1
4	6	2
49	50	2
20	36	2
118	118	2
106	106	4
90	91	1
122	122	1
35	36	4
93	98	2
24	33	1
124	125	2
7	25	2
96	108	2
119	119	2
100	127	3
66	70	1
30	30	1
49	56	1
29	30	1
59	59	2
32	43	1
67	68	1
49	80	2
24	25	1
78	79	2
101	102	1
38	38	5
50	50	2
50	68	3
7	36	1
50	133	1
14	18	1
61	61	2
39	47	1
133	134	2
69	70	1
23	74	1
14	93	1
2	3	1
103	105	2
113	113	1
17	19	1
58	120	1
106	116	1
6	36	1
42	42	1
90	95	2
15	16	1
29	34	1
124	131	2
46	47	2
27	80	2
94	126	2
23	24	1
87	88	1
26	92	1
78	81	2
45	46	2
45	89	2
22	77	1
64	118	1
99	99	1
86	91	1
65	66	1
28	91	2
44	45	2
108	109	1
112	134	1
49	69	1
97	97	1
85	85	3
11	93	1
56	59	1
60	90	1
6	6	3
55	56	1
112	113	1
96	101	1
12	20	1
27	47	1
132	133	1
34	43	1
59	72	1
94	95	1
25	25	2
117	122	1
83	85	1
12	17	1
73	74	2
111	126	1
13	13	1
62	106	1
36	37	1
134	134	1
89	90	1
97	108	1
