70	80	4
23	23	20
90	91	4
49	49	12
70	72	1
101	101	10
47	47	6
59	59	13
20	20	3
34	34	15
24	24	16
81	91	2
54	54	8
22	22	8
27	28	6
60	62	7
65	66	1
28	28	11
94	100	2
78	78	3
30	30	11
45	45	7
50	74	5
83	86	2
94	94	6
50	50	15
70	71	9
45	46	2
93	94	3
73	73	17
83	85	12
65	65	15
62	62	12
44	45	1
40	41	3
53	63	5
70	70	17
97	97	16
47	48	7
105	105	4
91	92	2
90	90	19
83	83	4
76	76	17
71	71	7
38	38	12
80	81	10
74	74	20
98	98	12
92	92	23
98	99	4
25	25	4
48	48	11
91	94	4
52	52	10
89	90	5
56	56	18
103	103	12
68	69	9
81	81	3
57	57	4
99	99	12
41	41	3
32	32	10
57	59	4
63	63	11
88	88	8
75	75	12
60	60	2
46	50	3
31	31	11
22	106	5
29	88	1
35	36	1
83	84	1
39	39	9
33	35	3
32	38	3
36	36	10
21	21	10
42	49	2
93	93	7
51	51	14
82	82	10
68	72	2
58	58	5
95	96	2
64	64	9
61	61	3
89	89	13
53	74	4
59	60	4
104	104	14
84	86	1
58	72	2
64	65	4
39	45	4
51	74	7
84	85	11
72	72	7
97	99	5
92	93	6
85	85	6
68	68	6
84	84	8
80	80	14
87	87	11
70	81	4
45	49	3
78	90	2
77	103	5
37	37	6
53	53	3
27	27	3
96	96	11
79	79	10
29	29	1
26	26	7
37	38	4
80	89	1
49	57	2
37	50	2
81	85	3
27	29	3
44	44	6
67	78	1
56	58	1
57	58	6
26	27	10
42	42	5
55	55	12
50	51	3
33	34	3
22	25	1
24	27	4
86	86	7
25	47	2
100	100	6
46	46	5
29	87	3
51	79	1
26	28	2
91	91	9
50	58	2
103	104	6
67	67	11
88	89	2
39	40	4
53	54	3
87	88	2
94	96	5
25	28	5
79	80	3
52	61	3
66	99	4
66	78	4
95	95	2
23	24	1
87	89	2
62	63	4
85	87	2
66	67	3
82	87	2
69	69	7
78	89	3
89	91	1
48	49	3
95	99	3
42	54	2
34	35	2
97	98	1
26	29	2
85	88	1
59	62	3
88	90	1
33	33	4
89	94	1
37	90	1
100	101	4
86	87	4
25	27	1
53	61	5
34	36	1
104	105	2
77	77	2
40	40	2
35	35	5
102	102	3
21	31	1
38	39	3
24	46	2
90	94	2
65	92	1
45	47	1
70	73	4
31	38	1
85	86	2
66	66	2
28	66	1
28	29	1
101	102	2
24	105	2
100	102	1
43	45	1
42	45	1
61	92	1
102	103	1
46	49	1
25	105	1
96	101	1
20	21	1
85	89	1
28	81	1
