147	147	6
130	130	10
77	120	1
110	110	16
58	62	1
22	25	3
61	63	3
12	12	9
0	0	18
66	90	2
84	84	14
22	148	2
154	154	15
166	166	8
59	59	7
35	37	4
142	142	9
48	53	5
26	26	12
150	151	11
176	176	9
36	36	13
22	46	3
14	15	2
133	134	7
6	6	11
115	115	13
38	38	29
16	17	4
76	76	11
91	91	17
190	190	4
63	63	4
92	92	10
98	98	11
48	48	15
30	31	6
15	15	26
107	108	13
169	169	12
7	7	14
110	111	8
104	111	1
90	110	6
60	62	1
118	118	17
92	93	3
32	32	8
114	116	4
114	114	8
144	144	2
24	30	2
152	153	12
47	47	16
23	23	26
178	178	6
158	172	1
182	183	1
143	144	10
105	105	16
44	44	12
11	11	6
125	125	19
37	37	13
149	149	11
113	119	1
78	79	11
41	41	17
143	143	12
45	45	7
35	36	7
88	88	26
42	42	24
14	14	20
40	40	18
34	34	7
60	87	1
116	116	8
20	35	4
87	89	1
73	74	3
31	31	9
111	114	3
16	16	20
37	42	1
163	164	4
39	40	10
26	30	1
65	66	6
83	83	22
4	4	6
177	177	7
38	41	1
72	73	2
138	162	2
131	132	5
55	56	4
66	66	5
23	43	2
103	103	17
6	18	2
3	7	6
24	24	20
138	138	7
47	48	4
108	109	5
1	1	18
84	85	18
80	81	7
87	87	25
58	91	1
87	88	4
114	115	5
7	8	3
170	170	8
120	120	27
75	76	17
174	174	16
125	127	2
26	33	1
85	85	11
36	37	12
128	129	7
124	124	13
110	125	1
161	161	8
59	60	9
131	131	9
57	57	12
79	83	1
173	173	5
156	176	3
43	44	16
156	156	9
120	121	2
58	59	14
71	71	14
159	173	3
46	46	11
54	54	13
109	109	23
125	143	3
146	152	2
170	183	5
18	19	7
110	152	1
81	81	9
103	113	2
98	122	5
112	112	22
169	170	4
134	135	3
147	148	4
19	19	5
151	151	17
43	45	2
88	91	2
131	135	3
64	68	3
90	90	9
129	130	4
114	129	1
133	133	7
72	72	6
136	136	7
9	19	1
158	159	8
82	82	12
95	95	15
74	75	6
10	11	7
4	5	3
82	83	2
111	111	7
24	37	4
153	153	10
164	164	16
79	79	9
81	82	4
25	25	17
36	103	2
117	117	14
128	151	3
140	140	23
94	94	20
125	154	2
88	90	4
113	113	12
138	143	4
185	185	11
135	136	6
102	102	4
80	80	17
104	104	17
135	154	1
65	65	7
29	31	6
34	35	4
119	120	11
107	107	4
147	150	4
113	114	10
97	97	6
145	145	7
84	87	1
167	167	5
66	67	7
150	150	13
70	83	5
15	16	13
76	80	1
22	22	15
22	43	2
116	117	2
165	165	6
126	126	2
184	187	3
128	128	17
32	34	2
186	187	3
62	62	13
73	73	15
133	136	5
93	93	7
25	26	5
102	103	8
60	93	1
110	124	1
11	15	4
148	149	8
181	181	3
148	148	12
161	163	7
41	42	7
48	56	1
24	25	8
56	76	3
20	20	5
58	83	1
93	94	14
157	157	8
85	86	7
37	38	5
1	7	3
127	127	12
89	91	2
8	14	4
39	151	1
10	10	4
3	4	1
163	163	9
123	123	12
104	112	1
99	99	10
146	146	8
82	92	1
86	87	6
6	20	2
53	53	5
129	129	13
155	155	8
59	92	5
2	3	5
127	128	5
1	6	3
188	188	8
130	159	1
31	33	2
89	89	11
36	40	1
123	124	10
97	122	1
58	58	13
63	64	4
64	81	3
21	21	6
141	141	20
13	14	8
135	135	12
179	180	2
74	74	23
184	184	4
75	75	19
121	121	10
101	101	12
33	33	2
11	13	4
103	125	3
175	175	11
0	8	1
162	163	5
43	43	6
101	102	11
167	184	3
115	135	2
130	131	1
8	9	4
102	125	6
171	171	7
78	80	4
60	61	5
90	91	4
27	27	9
152	152	15
134	134	11
137	137	6
54	55	2
149	150	2
177	178	2
18	21	2
146	148	2
19	20	6
55	55	15
48	74	1
124	151	4
3	3	13
105	116	2
71	72	2
136	137	7
139	139	16
13	13	7
62	63	5
18	22	2
70	70	6
42	70	2
178	180	1
96	97	9
0	1	9
47	76	5
97	98	6
70	71	8
105	108	2
132	132	5
112	119	1
111	112	4
21	22	4
61	61	6
106	106	6
60	60	2
155	163	1
182	182	7
23	25	3
100	102	7
104	105	3
88	89	9
67	67	7
108	108	9
109	110	11
187	187	3
96	111	2
23	42	3
63	65	3
106	107	5
63	66	3
99	110	2
30	47	2
17	17	13
40	42	4
160	160	5
46	47	7
29	29	9
83	87	1
142	144	2
61	62	3
33	35	3
96	108	7
94	95	3
5	8	1
68	68	3
108	116	1
27	29	1
40	41	7
22	44	1
184	185	4
183	183	8
77	78	4
157	158	4
77	77	22
86	93	1
125	126	4
129	156	2
58	86	8
170	177	2
28	150	1
138	170	4
53	54	3
164	165	9
115	131	2
6	8	3
24	148	5
146	147	2
96	96	4
6	148	1
186	186	11
35	35	14
17	18	3
68	72	1
151	153	3
65	95	1
155	174	2
124	150	1
65	67	1
99	100	7
121	122	1
124	127	2
103	110	2
6	7	6
2	2	24
12	13	1
169	184	1
130	137	1
38	39	13
28	29	4
79	81	2
77	84	4
63	87	1
185	186	2
53	55	1
20	21	4
23	24	11
114	128	2
35	70	2
173	174	8
76	77	3
115	129	1
20	25	3
122	122	7
122	123	5
71	77	1
41	57	2
140	141	2
62	82	2
64	65	2
90	108	3
189	189	6
129	173	2
153	154	7
86	86	15
139	140	4
133	158	4
3	6	1
39	39	11
5	5	5
72	100	3
134	160	2
127	143	1
111	120	2
58	82	4
42	43	2
75	79	3
120	122	1
180	180	5
128	154	2
144	153	3
21	24	2
136	138	2
78	81	3
102	106	1
72	82	2
138	187	3
97	109	3
115	127	2
107	116	3
100	100	5
179	179	4
136	162	2
1	3	6
100	105	1
78	78	12
126	129	1
8	8	2
138	139	6
62	86	1
141	160	1
174	175	3
125	150	1
3	17	1
27	31	2
156	157	1
44	45	6
69	69	2
18	18	3
137	139	2
56	56	10
163	165	2
179	182	7
135	173	1
28	28	2
119	119	5
116	120	2
48	49	6
32	35	1
57	88	1
155	156	2
31	32	2
2	16	1
82	86	1
126	127	2
7	140	1
82	85	5
57	91	1
70	87	1
143	153	1
126	155	2
170	171	1
142	143	3
101	125	1
28	31	1
79	80	3
181	182	3
83	84	4
47	52	3
64	86	1
83	88	1
114	120	2
89	90	5
181	183	1
11	24	1
90	109	2
29	103	1
67	78	1
57	93	4
145	150	3
9	10	2
157	174	2
109	125	1
39	99	2
112	113	3
156	172	1
5	21	1
39	89	2
17	22	2
39	88	2
29	32	4
103	151	3
172	172	2
97	118	4
124	125	4
11	12	3
185	187	1
56	95	1
141	142	1
83	86	3
139	147	3
75	84	3
116	144	2
63	68	3
19	30	4
129	154	2
168	168	4
30	30	8
166	167	3
19	26	1
134	144	4
159	160	1
81	174	3
112	117	2
74	76	2
92	94	2
2	151	2
63	95	1
10	24	3
133	138	1
19	35	4
73	82	4
158	158	1
41	43	1
155	161	1
59	61	2
39	103	2
77	89	1
49	53	3
27	28	2
70	102	1
130	158	2
65	68	2
57	58	2
114	134	4
45	46	2
71	99	1
68	96	2
130	132	6
6	140	1
126	141	3
38	152	1
96	109	1
101	106	2
41	77	3
19	32	1
99	115	1
151	152	1
130	156	2
4	9	1
129	174	1
144	145	1
128	147	1
99	123	1
89	110	1
166	168	2
183	185	1
99	125	2
139	155	3
75	77	1
20	26	3
36	46	1
162	162	5
102	126	1
28	33	2
41	90	1
171	172	1
44	47	2
28	151	2
64	64	7
137	138	1
187	188	1
17	20	2
172	174	2
39	57	1
140	142	1
109	111	1
100	106	3
168	169	1
57	64	1
178	182	1
91	92	1
74	77	1
35	101	2
140	150	1
21	35	1
67	99	1
177	182	1
96	99	1
69	73	2
154	175	1
108	117	3
131	133	3
68	87	1
126	128	1
140	160	2
35	45	1
172	173	5
137	171	1
18	23	1
21	45	1
139	163	1
32	33	3
21	31	3
166	169	1
139	156	1
63	96	1
154	155	1
118	119	1
52	57	1
5	162	1
132	154	1
132	133	1
158	161	1
27	150	1
26	149	1
1	2	2
132	136	1
109	152	1
98	100	1
108	119	2
48	52	1
2	17	1
100	125	1
180	181	2
95	109	2
115	117	1
3	140	1
112	118	1
25	93	2
103	144	1
99	105	1
30	32	2
4	158	3
32	37	2
91	113	1
110	128	2
183	184	1
33	34	1
69	72	1
81	85	1
95	118	1
36	41	1
157	173	1
159	159	3
15	41	1
98	107	1
22	23	1
130	134	1
26	32	1
17	153	1
56	57	1
8	19	1
63	67	2
11	19	1
88	95	1
138	148	1
161	162	1
35	125	2
28	30	4
130	133	1
28	35	1
125	152	1
41	76	1
66	109	1
0	140	1
108	111	1
52	53	1
160	161	1
75	78	1
15	17	2
39	106	1
24	122	1
129	158	1
39	120	1
45	47	1
189	190	1
115	116	1
52	52	1
66	108	1
127	129	1
2	142	1
103	106	1
3	8	1
135	138	1
5	6	1
134	143	1
133	142	2
26	27	1
111	117	2
126	154	1
94	113	1
156	163	1
173	177	1
102	104	1
145	146	1
77	83	1
130	147	1
113	116	1
0	7	1
