70	71	10
86	86	54
24	24	36
80	80	61
62	63	14
8	8	15
72	73	11
2	2	24
4	4	47
56	56	46
26	26	54
22	22	20
1	4	2
25	25	42
77	78	8
15	15	14
53	55	17
66	67	7
63	63	76
79	79	22
71	71	27
6	48	2
49	49	36
67	67	47
80	82	6
87	88	12
17	18	2
84	84	66
85	85	37
51	82	2
10	12	1
13	13	32
70	70	35
75	75	55
4	68	2
34	34	24
65	65	47
74	74	38
23	23	42
21	21	8
6	12	2
1	1	37
60	61	15
11	11	26
62	62	17
53	61	9
54	54	37
25	33	4
77	80	9
76	77	20
84	86	4
52	52	38
26	52	1
64	64	36
6	6	33
66	74	4
16	16	26
55	55	40
48	49	11
73	73	43
63	64	10
47	47	44
59	62	12
61	61	58
78	82	9
81	83	4
46	46	17
3	3	30
26	27	17
8	14	4
82	82	67
65	66	10
19	20	18
78	79	18
49	60	7
27	27	40
9	11	4
12	13	15
10	10	31
9	14	5
49	50	27
56	80	3
48	48	52
17	17	28
64	66	6
56	57	10
49	88	2
90	90	5
50	50	45
5	5	26
30	30	43
58	62	13
68	68	43
79	81	2
69	69	39
83	83	16
57	57	75
52	64	4
9	9	19
64	79	3
14	14	36
23	24	12
63	65	7
59	73	3
77	79	6
22	27	6
7	7	25
58	58	36
84	85	14
5	7	9
18	18	10
16	26	1
10	13	7
56	83	4
8	48	2
88	89	21
57	66	2
77	81	1
80	81	9
76	76	27
72	72	36
89	89	57
53	54	21
61	62	17
63	77	2
71	72	13
19	19	34
64	65	6
78	78	22
28	28	34
17	25	2
51	51	65
82	83	26
75	81	3
48	63	3
75	77	4
20	23	7
50	65	4
20	20	31
52	53	11
51	60	6
48	60	1
23	66	2
0	1	6
34	66	1
59	59	22
54	56	2
7	8	2
29	29	8
25	31	1
81	81	52
88	88	34
17	23	2
6	8	10
89	90	6
9	10	16
67	68	10
5	12	6
27	31	12
86	87	24
67	81	4
58	59	8
70	72	1
5	48	2
66	76	1
15	16	8
46	64	1
49	54	1
22	24	3
6	14	3
83	84	13
60	60	28
54	58	2
56	58	2
5	6	14
58	65	5
66	66	31
56	66	5
87	87	40
61	72	2
74	81	6
56	64	2
20	21	4
79	80	15
12	12	47
48	71	3
69	72	4
27	28	15
59	60	14
48	52	2
59	81	1
55	56	8
34	35	2
26	33	8
81	82	12
25	27	6
50	52	14
25	64	3
71	73	2
21	24	5
85	86	10
28	29	5
77	77	33
83	88	3
47	62	5
0	29	2
71	85	3
47	48	12
51	53	6
71	84	3
13	26	1
53	53	23
50	56	9
50	51	14
48	59	2
49	55	9
56	84	1
77	83	5
23	25	3
9	17	1
31	31	28
5	8	10
52	55	11
56	59	1
28	30	1
1	3	3
54	83	4
0	0	14
9	31	1
13	14	6
81	84	10
12	14	5
70	85	2
25	26	13
3	4	8
69	70	6
46	47	5
68	87	1
54	72	3
47	54	1
48	53	4
19	22	5
64	72	3
49	81	4
59	82	6
28	50	1
25	28	4
10	11	9
48	66	2
48	61	7
73	82	2
8	24	2
56	69	1
71	78	3
71	76	3
22	23	6
68	73	2
2	3	10
56	60	1
50	53	10
61	82	3
59	61	3
30	75	1
54	55	10
12	20	4
31	33	1
50	79	2
14	27	2
34	83	1
23	27	4
26	28	2
33	65	3
78	80	7
74	84	1
60	62	5
8	9	10
27	68	1
11	14	2
69	74	2
50	54	1
18	53	5
4	24	1
61	63	1
64	67	2
25	48	7
46	87	5
26	49	3
26	31	4
46	48	2
70	74	1
8	10	2
49	53	2
33	81	1
46	60	4
73	75	1
64	77	2
52	63	2
13	20	1
50	58	2
71	74	3
11	12	5
55	68	2
73	74	7
8	20	3
24	29	4
4	87	1
68	85	1
60	65	5
53	80	1
21	22	6
57	58	6
0	14	1
6	9	3
14	15	5
33	34	1
76	78	9
55	65	4
49	51	7
4	5	5
13	19	1
68	69	10
9	13	5
24	27	3
52	54	3
7	13	2
13	21	2
21	23	5
86	89	2
6	19	3
72	74	5
74	75	7
0	86	2
63	75	2
48	55	5
47	61	3
66	77	2
76	83	5
85	87	1
31	57	1
49	68	3
57	67	2
8	55	2
58	64	6
5	18	1
24	25	6
0	28	3
62	74	1
12	21	3
77	84	5
48	83	2
61	65	2
67	69	2
10	14	4
28	72	3
7	21	2
8	16	1
0	2	3
54	82	1
70	84	1
78	81	3
19	34	4
49	61	1
49	83	5
47	60	4
32	65	1
5	20	3
6	7	9
65	75	2
54	64	1
8	13	4
23	90	3
5	11	1
61	68	4
17	19	1
5	54	2
60	63	4
48	85	1
58	89	3
48	50	4
72	80	3
59	63	6
12	19	5
50	55	5
72	79	1
35	54	1
81	88	2
49	59	1
3	5	1
50	57	2
50	61	2
0	17	2
30	31	2
55	83	2
77	82	2
66	80	4
49	82	1
50	83	1
51	52	4
52	60	3
65	83	2
52	62	3
18	19	3
49	58	2
69	73	1
17	34	2
50	85	3
5	19	3
5	33	4
79	83	1
57	88	2
3	19	1
80	84	1
5	17	2
54	90	1
54	66	1
51	55	2
13	23	3
12	18	1
7	9	1
5	9	1
59	65	1
74	80	1
66	79	2
7	19	2
75	76	3
53	56	1
73	76	1
70	82	2
31	32	1
71	75	3
2	4	1
18	20	2
62	76	4
46	52	1
55	82	1
79	87	2
64	80	3
69	84	1
80	86	1
71	79	2
28	46	1
47	64	1
33	33	2
55	58	3
28	69	1
7	26	4
57	69	1
69	71	2
61	69	3
10	17	1
27	82	1
79	82	1
47	59	3
35	35	1
56	88	1
58	63	1
34	51	1
72	75	3
54	59	1
6	53	2
84	88	1
69	89	1
13	89	1
55	79	1
58	60	1
48	54	2
66	81	1
29	88	2
74	77	1
49	64	1
46	57	1
55	59	3
8	70	1
49	57	1
58	68	1
5	66	1
10	19	2
69	78	1
12	27	2
21	25	1
51	65	1
23	28	1
85	88	2
30	80	1
78	83	2
12	16	1
3	85	1
0	30	2
4	53	1
10	67	2
70	80	2
22	25	1
58	75	1
4	19	2
65	78	1
1	20	1
58	73	1
61	77	2
60	78	1
75	84	2
81	87	1
55	61	1
47	57	1
17	21	2
75	85	4
66	88	1
46	66	1
29	30	1
26	82	1
81	85	1
6	13	1
8	49	2
54	79	1
46	51	1
4	47	1
66	72	1
7	47	1
29	31	1
67	70	1
67	87	1
8	47	1
34	64	1
17	20	1
76	82	1
73	84	1
55	80	1
21	26	2
49	52	1
71	82	1
21	57	1
