175	175	5
44	45	8
160	164	2
36	37	6
99	99	5
82	82	17
158	159	7
142	143	6
19	19	26
59	59	18
112	153	2
11	11	22
14	14	13
164	164	8
24	24	22
36	41	4
2	9	6
105	132	3
76	76	11
89	134	7
30	30	31
78	79	5
177	178	5
117	117	4
16	16	36
2	12	1
3	3	20
159	160	7
0	31	2
41	43	1
15	15	22
9	10	16
114	114	8
152	152	10
91	91	12
149	149	21
82	127	1
126	126	14
97	122	3
6	6	33
18	22	2
105	105	12
166	167	5
88	88	9
142	142	11
8	23	2
132	132	10
2	7	5
12	12	25
17	17	17
102	102	9
31	31	22
62	63	3
89	89	7
2	42	1
71	71	13
6	8	2
35	35	33
36	36	35
24	27	8
145	155	2
4	10	3
135	138	1
42	42	15
85	86	2
29	29	19
113	113	18
41	41	13
18	20	1
49	52	2
37	38	4
13	13	39
66	66	14
37	37	19
171	171	21
167	173	2
25	28	3
108	108	13
14	15	10
121	122	3
168	168	15
150	152	2
38	38	17
23	30	3
129	130	2
94	94	18
17	39	7
25	25	10
110	110	18
8	9	7
147	161	8
37	39	6
90	90	7
85	85	10
95	95	6
170	170	4
142	179	4
157	158	9
38	41	6
122	136	2
3	8	2
166	166	14
159	159	9
84	84	9
63	64	6
44	44	18
114	128	6
5	5	12
25	26	15
24	26	4
92	92	11
15	23	10
22	31	2
107	107	9
43	43	26
33	33	29
59	85	2
114	117	3
168	178	2
108	109	3
133	138	4
118	118	4
34	36	4
174	179	3
126	127	1
71	72	2
140	140	10
147	148	2
107	108	2
55	55	5
151	153	5
21	21	17
17	18	5
16	17	3
10	23	2
114	126	1
162	162	11
50	51	4
56	57	7
34	34	19
2	2	20
21	22	7
146	146	13
32	32	28
167	167	7
61	61	10
10	11	10
65	65	13
178	178	4
160	162	5
27	28	11
27	27	22
23	25	10
67	97	2
11	45	1
38	39	4
3	9	4
135	148	3
124	124	5
167	177	1
140	154	1
150	151	4
81	81	8
117	128	3
12	20	3
7	7	13
87	87	5
14	31	1
145	146	4
4	12	2
50	50	6
11	12	4
112	133	1
117	118	11
66	67	1
8	8	24
92	105	2
5	6	5
4	4	12
124	125	11
123	153	4
40	41	6
75	78	2
127	127	5
160	160	17
24	40	3
11	15	10
179	179	7
9	33	3
20	21	2
79	86	3
105	107	2
23	24	13
135	136	6
119	153	5
107	109	3
150	150	5
45	45	9
167	168	2
167	172	2
20	25	9
124	142	5
82	85	2
52	52	7
22	22	17
141	141	10
73	73	12
161	161	8
157	157	14
7	10	1
128	128	3
122	122	11
75	76	5
146	161	1
30	31	7
54	57	1
147	147	16
15	16	5
96	96	2
56	56	9
111	113	6
154	155	2
155	155	3
16	62	2
15	27	4
165	170	4
14	30	4
10	10	19
90	94	2
65	66	2
158	158	10
78	78	8
14	44	2
130	130	11
129	161	4
12	13	16
142	177	1
67	68	4
79	79	10
83	92	2
144	144	14
80	80	11
101	109	2
51	51	12
167	169	12
60	61	8
86	89	1
57	57	8
72	72	17
50	60	7
105	123	2
120	120	6
163	171	1
10	15	4
172	179	2
10	44	2
3	4	7
131	131	8
19	21	7
153	153	9
1	2	3
20	20	12
45	46	12
145	147	2
112	112	5
49	49	5
153	154	2
172	172	13
28	28	11
16	35	2
65	68	2
14	37	2
0	0	14
73	74	2
5	8	3
87	90	3
63	63	5
144	147	1
134	137	3
58	58	6
136	137	1
93	93	3
12	31	1
28	30	3
52	74	5
173	174	5
136	136	12
41	42	8
36	39	2
52	75	1
23	23	17
22	23	3
151	151	7
20	34	1
159	163	2
115	115	9
2	8	1
74	76	4
137	137	1
110	112	4
76	77	3
1	8	1
11	30	2
35	36	9
20	22	5
130	131	3
29	30	12
18	18	14
133	133	16
152	178	3
134	134	12
115	127	2
14	20	1
77	77	18
36	38	7
74	74	8
15	32	1
15	17	1
68	97	4
11	14	4
104	104	4
138	138	11
24	25	6
156	156	7
21	23	10
116	118	4
7	9	4
39	43	2
18	21	6
158	162	5
149	170	3
163	163	5
176	178	2
7	8	8
14	16	7
27	29	2
27	31	2
170	171	1
32	33	3
103	104	5
35	40	2
26	32	4
4	15	1
121	121	9
95	123	1
20	35	2
43	50	1
100	101	3
157	160	3
59	61	2
176	176	15
17	29	1
19	20	9
13	14	1
23	27	4
104	107	2
16	26	7
2	15	4
4	20	2
117	120	2
165	165	10
106	106	13
2	45	2
26	26	18
155	157	2
109	109	11
6	7	13
83	83	4
135	135	7
18	27	1
123	124	3
148	148	14
39	40	11
9	9	9
53	76	5
59	77	1
111	160	1
160	161	6
98	125	1
75	77	2
77	86	2
132	158	1
97	97	5
14	21	2
8	33	1
11	17	4
2	3	9
145	180	3
139	139	3
72	122	1
116	116	6
4	14	3
173	173	4
75	75	7
19	24	2
19	22	4
35	37	3
174	174	6
15	20	4
73	132	1
162	163	1
158	164	2
91	92	3
75	86	1
14	34	2
10	14	2
169	169	13
2	4	10
30	41	1
42	44	1
150	154	2
28	29	3
9	17	1
180	180	3
54	142	2
111	139	1
102	103	2
4	5	1
51	52	7
113	128	2
88	131	2
146	162	2
3	7	4
53	53	3
91	93	3
54	54	8
101	108	1
8	11	5
19	26	1
118	160	2
114	115	3
19	28	1
115	116	3
139	140	2
81	129	1
63	101	1
134	136	2
39	39	12
110	128	1
154	159	1
112	138	1
8	10	1
154	154	2
86	86	4
13	43	2
129	146	2
43	44	10
100	100	2
67	75	1
83	84	5
89	90	5
53	54	1
40	40	8
170	174	3
96	119	3
103	103	5
133	134	4
145	156	6
116	119	3
55	56	4
26	39	1
65	76	2
142	163	3
13	30	2
157	165	1
105	106	1
154	157	2
98	99	3
148	149	5
55	75	1
14	29	2
32	34	2
12	45	2
116	117	2
0	10	2
70	71	2
5	33	1
93	124	2
143	145	6
109	110	2
58	76	2
96	99	2
62	77	4
127	152	5
154	179	3
82	83	2
132	133	1
158	165	4
111	111	1
159	171	2
23	26	3
67	73	1
154	160	2
163	179	2
26	27	6
14	28	1
37	43	1
109	127	2
19	31	1
1	1	4
78	149	2
140	141	4
18	42	1
112	128	1
91	102	3
78	104	1
12	30	6
22	24	5
95	124	3
8	12	2
60	60	8
33	34	2
5	7	6
153	156	3
68	117	3
5	13	2
17	19	3
115	117	1
23	29	1
22	28	5
4	7	1
155	156	1
9	11	2
138	139	1
15	39	2
17	26	1
119	120	3
10	34	1
51	73	1
10	16	1
8	45	1
1	23	3
36	42	2
12	18	5
67	67	6
161	162	2
37	40	2
118	121	2
145	150	1
103	105	2
11	13	3
11	22	2
2	5	3
10	31	3
35	39	2
145	145	12
135	137	1
52	88	1
54	148	2
101	101	4
156	157	2
142	145	4
34	37	1
14	64	3
74	93	2
143	158	1
18	19	3
4	8	2
31	38	5
53	56	2
98	98	2
149	158	3
119	121	2
122	123	1
13	19	1
27	41	2
110	139	1
113	114	2
54	55	1
90	92	1
84	85	1
171	172	2
165	166	2
112	113	3
66	117	2
65	75	1
86	87	1
26	29	1
151	152	1
25	27	2
24	89	2
118	158	1
85	107	1
129	170	4
133	141	3
77	80	2
61	62	4
123	149	1
168	169	3
111	114	1
64	66	1
1	41	1
54	81	1
18	23	1
77	153	1
9	15	1
9	40	1
1	18	2
7	17	3
117	161	3
117	126	3
34	46	1
19	30	2
125	125	5
173	175	2
60	90	1
165	169	3
13	15	3
114	116	2
50	63	1
62	62	3
74	75	1
130	169	1
2	6	3
156	160	4
116	126	2
152	153	2
130	170	1
150	171	1
101	116	2
0	23	2
113	129	1
127	128	2
25	45	2
50	53	2
61	63	1
172	173	2
143	144	5
109	114	1
129	169	1
1	32	1
84	103	3
129	129	3
24	29	3
155	166	1
0	32	1
77	82	1
143	168	1
34	42	3
122	125	3
6	26	1
129	166	1
53	74	2
64	64	4
96	98	2
5	9	3
140	161	1
15	22	1
143	148	1
139	148	1
94	96	2
133	136	2
26	31	2
26	45	1
167	171	1
79	80	1
111	146	1
96	126	1
130	180	1
20	33	4
174	175	1
127	129	3
130	139	1
136	148	1
144	146	1
14	18	2
131	139	1
23	31	1
131	132	3
165	167	1
54	91	1
81	82	2
68	68	3
13	16	1
100	121	1
16	18	2
131	170	2
104	105	1
111	112	2
123	123	1
43	78	1
97	98	1
124	132	1
22	29	2
29	39	1
79	93	1
95	127	1
31	35	1
99	101	1
49	50	1
110	113	1
4	6	3
88	89	1
16	65	2
95	109	1
23	44	1
4	13	2
128	130	1
26	35	1
84	98	1
13	44	3
63	102	1
159	170	1
20	30	1
58	65	2
34	43	1
62	64	1
51	62	1
120	137	1
23	33	1
169	170	1
83	107	1
173	176	2
165	173	1
49	51	1
150	170	1
6	16	1
164	165	1
13	34	1
66	75	1
23	43	1
20	26	1
45	73	1
58	102	1
58	106	1
50	73	1
174	178	1
2	17	1
7	20	1
5	24	1
134	148	1
141	142	1
64	65	1
130	140	2
101	115	1
10	24	1
86	90	1
24	44	1
1	22	1
22	26	1
102	106	1
110	114	1
36	45	1
28	39	1
80	153	1
73	77	1
150	153	1
82	109	1
171	173	1
29	31	1
58	68	1
4	43	1
