33	33	15
90	90	13
174	186	1
129	129	7
15	15	5
100	100	6
166	167	2
89	129	1
7	7	13
152	153	12
0	0	4
98	99	2
189	189	6
22	35	2
62	62	11
82	82	17
118	118	7
137	180	2
74	173	1
187	187	4
185	185	3
47	47	5
3	4	1
124	124	4
82	122	6
13	23	2
128	128	7
114	115	2
101	101	10
66	66	4
151	151	6
91	91	12
127	128	2
36	44	8
143	143	10
153	153	5
97	97	4
37	38	2
139	139	6
188	188	13
86	87	5
89	100	3
35	35	10
61	81	1
109	109	10
94	94	7
123	131	6
6	28	1
104	104	5
64	64	1
41	42	4
138	155	3
96	98	1
146	164	5
83	83	4
131	135	4
154	155	3
167	167	3
93	93	2
65	111	4
182	183	8
14	20	13
32	34	4
26	29	4
163	164	3
133	134	4
5	5	6
8	8	4
35	98	3
47	48	4
139	140	2
126	126	3
163	190	3
134	134	11
35	64	3
111	168	4
145	145	5
65	65	6
67	74	4
21	46	4
108	111	1
170	170	4
137	139	1
87	87	18
105	106	2
155	190	5
85	85	5
56	95	3
13	13	4
71	71	5
18	18	2
97	106	4
88	88	3
144	179	3
99	100	2
78	83	2
37	42	5
7	56	6
146	148	7
171	172	3
91	92	11
32	33	4
134	135	8
157	182	4
142	165	1
1	2	1
157	158	4
32	32	8
160	164	3
36	75	2
10	11	4
81	81	3
142	142	4
77	77	10
168	168	3
114	114	6
82	131	4
3	3	5
155	155	5
18	74	6
55	56	5
125	135	3
160	165	9
20	20	8
66	79	5
141	179	5
44	48	4
36	39	1
24	24	6
1	1	16
174	174	3
158	179	2
134	137	2
78	78	5
107	137	2
62	63	3
63	63	3
61	85	4
149	150	2
93	107	4
30	48	3
103	103	8
138	138	8
164	175	2
148	150	1
56	57	2
130	178	7
92	92	7
131	143	1
163	163	3
112	168	5
133	136	2
130	130	9
29	30	3
186	186	5
99	99	5
36	54	2
31	32	4
161	161	3
52	52	4
61	62	2
181	190	1
152	152	6
154	156	2
60	100	5
110	110	6
141	141	13
190	190	3
183	183	10
85	97	4
80	86	1
167	168	2
97	107	1
36	42	2
120	147	2
134	176	3
73	73	3
123	148	1
172	173	7
106	112	1
21	21	5
132	155	3
85	120	2
26	26	1
171	183	3
72	101	2
36	37	1
175	186	3
36	36	7
31	33	2
28	112	2
40	40	4
123	143	2
106	106	7
165	165	1
81	112	1
34	116	4
85	86	1
105	179	4
30	31	7
102	108	2
43	98	5
18	20	2
86	127	1
122	124	2
63	70	2
19	96	5
28	29	4
84	84	7
166	166	8
140	140	5
89	89	10
19	144	6
91	122	1
165	167	3
177	178	2
41	41	6
55	55	3
67	101	1
81	82	2
53	53	8
27	47	2
162	181	2
80	80	8
54	55	2
182	188	4
10	10	3
70	70	2
36	46	3
76	77	4
178	178	3
2	2	9
11	21	2
11	13	3
29	43	1
46	46	1
56	66	3
91	94	2
102	103	6
136	136	7
104	108	2
121	121	4
54	57	1
25	25	9
105	105	6
149	149	6
112	112	4
19	60	3
159	168	1
187	188	2
83	84	3
106	113	2
133	179	2
6	25	1
30	36	2
144	144	4
140	148	1
145	165	3
59	59	3
156	156	7
100	108	2
40	41	3
117	117	5
154	154	9
157	181	2
108	109	3
65	68	3
31	31	4
37	37	10
19	46	1
184	184	4
93	181	3
118	119	3
132	136	2
107	127	1
131	161	2
108	178	1
20	44	1
44	46	3
7	8	4
63	81	1
60	93	4
36	86	5
116	116	3
36	94	2
96	97	3
143	144	7
25	32	4
120	127	1
159	189	1
130	132	2
71	100	1
13	15	1
64	65	3
125	125	2
35	46	3
150	153	3
68	95	5
102	102	2
19	19	5
96	96	4
71	104	3
130	159	2
111	112	1
84	106	3
127	127	5
108	113	3
132	133	3
172	176	2
132	132	3
134	181	2
17	17	2
167	170	4
172	175	3
158	163	2
36	82	2
6	6	7
90	91	1
95	100	2
105	180	2
22	22	2
86	178	2
132	182	1
90	94	3
180	180	4
19	97	2
111	167	1
166	169	1
65	72	3
124	126	4
81	114	2
23	23	4
181	184	1
36	43	1
170	172	5
61	78	1
34	34	2
136	176	4
171	171	3
44	44	2
83	106	1
64	80	2
176	176	1
111	118	1
175	182	1
164	179	2
169	169	6
162	165	1
155	157	3
108	110	2
11	11	6
77	84	4
138	143	1
167	179	2
33	64	2
176	180	2
59	117	5
150	151	6
14	15	2
81	85	1
56	56	2
159	159	3
168	169	2
84	85	6
25	26	2
113	168	1
92	182	1
28	147	2
81	90	1
182	182	2
139	177	2
92	142	1
63	69	3
122	122	5
70	93	1
161	167	1
135	154	4
87	127	1
150	150	1
124	125	2
138	144	1
12	20	2
10	42	1
58	59	3
116	133	3
147	148	1
79	99	3
14	22	1
37	63	2
64	81	3
160	182	1
119	154	3
157	180	1
188	189	2
68	72	2
57	57	6
66	101	1
137	150	2
67	68	5
132	154	2
94	135	1
44	91	2
137	157	3
94	98	2
80	107	3
4	15	1
142	143	2
158	158	2
157	157	1
111	111	4
76	84	2
29	29	3
35	43	1
85	99	4
113	113	2
175	175	3
137	137	1
92	93	3
0	1	1
185	189	1
80	91	3
74	74	1
0	28	3
131	157	2
116	124	1
120	120	1
11	22	2
146	147	2
187	189	2
32	36	1
146	146	2
136	137	2
121	127	1
183	184	2
29	34	2
68	79	1
147	147	4
26	28	1
116	138	1
37	47	1
107	107	3
177	177	5
12	12	2
173	173	3
39	39	6
166	171	1
164	164	2
68	68	2
61	64	2
162	182	1
20	21	1
2	3	1
108	108	1
131	137	1
163	181	1
11	27	1
132	137	1
173	178	1
119	119	2
58	58	3
66	119	1
185	186	1
98	98	1
43	43	1
135	135	1
157	190	1
20	100	1
149	156	1
36	83	1
141	186	1
75	85	1
134	138	2
163	179	1
63	72	1
90	135	1
80	93	1
24	37	2
116	152	1
6	8	1
67	109	1
10	21	1
9	9	1
161	162	1
145	146	1
70	72	1
65	69	1
106	122	1
92	121	1
83	123	1
115	123	1
147	165	2
63	96	1
125	126	1
115	115	1
16	16	1
73	76	1
69	69	1
140	141	1
