53	54	9
11	11	11
61	61	18
39	40	5
231	231	2
29	39	5
106	113	9
179	179	3
234	234	4
209	209	3
156	156	5
33	33	5
16	31	2
151	151	10
32	32	7
67	67	4
178	179	4
39	39	5
194	198	1
221	221	6
140	141	3
2	2	1
152	152	7
44	45	3
211	211	4
30	33	2
128	128	5
8	8	6
98	99	2
142	142	5
28	28	11
9	53	3
169	169	7
239	239	5
170	190	2
102	121	2
5	21	1
158	158	1
223	223	7
221	222	4
179	193	2
148	235	2
196	196	5
135	135	6
41	41	3
185	198	2
242	242	7
35	35	8
7	8	3
51	51	10
15	15	5
201	203	1
12	12	13
83	83	7
160	161	5
48	54	2
21	21	7
216	230	3
175	175	3
58	58	11
68	68	7
232	236	1
183	183	3
191	192	1
10	10	6
137	137	4
204	204	5
100	100	2
169	215	1
218	218	5
230	231	6
74	74	3
192	192	6
172	201	4
190	190	2
81	83	2
75	75	4
84	84	5
231	233	2
108	108	2
22	22	4
208	208	7
168	168	6
130	130	3
27	27	6
31	31	6
44	44	4
42	226	1
119	119	3
228	228	1
215	215	2
42	42	1
65	66	2
211	217	2
124	124	1
53	53	7
12	33	2
6	6	2
101	101	6
142	165	1
176	176	3
71	71	5
219	219	7
90	102	2
172	172	1
139	147	4
26	27	4
47	47	4
107	107	1
14	16	2
201	201	1
142	205	1
54	54	5
85	86	5
66	68	3
28	43	3
23	23	3
181	182	3
197	198	3
139	139	3
194	194	2
51	107	1
162	162	5
102	102	2
229	229	3
119	133	3
143	143	3
49	49	7
161	161	4
14	15	2
45	103	6
122	122	4
40	41	2
220	222	2
237	237	6
81	89	2
17	17	2
104	104	6
48	49	1
166	168	1
150	201	3
230	230	3
1	16	2
220	220	5
126	126	1
117	117	1
2	25	2
39	62	3
205	214	2
55	55	2
203	203	2
136	136	3
39	43	3
85	85	2
123	123	3
7	7	2
213	223	3
69	69	3
191	191	3
26	26	5
162	163	1
34	34	5
214	215	3
188	199	1
188	191	5
72	72	1
44	46	2
5	5	1
132	134	1
3	3	3
30	30	4
195	195	3
75	85	3
105	108	2
205	205	5
45	45	4
187	188	3
56	75	4
19	19	4
59	60	1
6	7	1
4	7	3
174	174	1
56	57	2
96	96	4
238	238	3
99	99	6
10	11	2
115	115	4
96	100	2
24	25	2
224	225	5
35	58	3
217	217	3
86	86	4
200	200	1
58	63	2
12	29	1
16	16	3
113	113	1
73	109	1
81	81	4
18	18	5
29	29	2
103	120	1
71	202	2
207	207	1
214	214	5
202	206	1
62	62	5
109	113	4
76	78	1
47	119	2
186	186	1
10	27	1
179	231	8
226	226	2
136	137	3
3	21	3
25	25	1
217	219	2
12	13	3
163	163	6
9	9	7
181	181	3
232	232	1
116	124	6
83	115	2
185	186	2
78	78	1
50	50	2
77	77	1
227	227	3
104	126	1
123	124	6
80	80	5
216	216	2
84	108	4
66	117	2
3	6	1
154	165	3
40	40	2
131	131	3
240	240	3
235	237	5
193	209	1
85	121	2
16	22	2
88	88	3
222	223	2
136	143	1
73	73	1
106	106	2
56	56	1
173	173	2
206	206	1
125	125	1
138	138	1
1	1	1
184	184	2
196	199	1
105	106	1
144	144	4
199	199	4
154	164	1
233	234	1
37	37	3
224	224	2
128	133	1
64	64	3
17	57	3
63	64	1
220	221	1
151	152	2
1	2	2
64	148	2
169	201	2
203	214	3
147	147	1
50	66	2
14	14	1
135	136	1
122	124	2
202	202	1
36	36	2
199	200	1
0	0	1
59	80	2
170	170	2
106	119	1
106	107	1
116	116	2
180	230	1
236	236	1
198	200	1
205	231	1
145	146	1
186	189	1
167	169	1
84	85	2
75	113	1
211	223	1
119	135	1
226	227	1
161	235	1
95	95	1
18	63	1
24	30	2
108	114	2
38	38	3
205	206	2
180	180	1
79	79	1
31	58	1
57	83	1
194	195	1
21	22	4
26	70	1
78	79	2
180	191	2
22	63	1
140	140	2
105	105	1
122	129	1
74	86	2
180	181	1
82	82	1
176	179	1
182	182	1
48	53	1
65	73	1
65	65	1
235	235	1
62	63	1
148	148	1
54	128	1
76	76	1
125	126	1
188	188	1
97	97	2
56	61	1
9	28	1
103	103	1
5	6	1
85	122	1
216	219	2
133	134	1
