85	85	14
31	31	6
102	103	5
132	132	28
25	25	5
10	10	9
1	1	8
134	134	13
131	131	29
18	18	3
22	23	3
126	126	20
100	108	1
86	104	1
130	130	16
134	138	2
116	116	19
7	7	8
125	125	11
77	77	1
119	119	10
23	27	2
128	129	6
74	81	2
20	32	2
81	81	3
107	107	5
93	93	4
89	90	10
100	100	9
96	96	9
71	72	5
0	0	7
72	72	12
95	95	11
86	107	1
11	11	4
16	16	3
30	30	4
140	140	21
99	99	4
79	79	8
92	93	13
87	88	12
34	34	19
86	87	1
129	129	7
119	125	4
6	6	15
14	14	10
2	33	4
17	17	7
138	138	10
6	7	5
29	29	9
88	88	6
91	91	10
75	75	3
86	86	17
15	15	7
118	124	4
110	127	3
11	12	2
15	25	2
84	85	12
22	131	4
109	110	4
23	23	4
13	17	1
84	84	12
8	9	3
136	136	3
121	123	5
4	4	23
133	133	11
106	120	4
128	128	18
26	26	6
89	89	8
0	1	5
106	106	8
27	30	1
74	75	4
101	101	9
9	10	4
87	87	19
113	114	5
19	20	5
21	21	4
76	76	12
35	35	12
81	82	5
126	127	3
92	141	2
132	133	7
114	114	5
80	80	9
97	97	5
123	123	5
138	139	3
111	112	4
106	107	3
133	134	4
8	8	3
83	86	1
122	122	3
13	14	2
32	32	7
36	37	6
13	13	2
102	102	6
82	87	2
139	139	9
27	29	6
15	17	4
137	138	2
25	30	3
121	121	9
127	128	1
94	94	7
37	37	12
110	110	14
113	115	3
131	132	7
111	111	5
76	77	4
28	29	8
16	20	2
7	32	2
8	32	3
80	81	3
121	122	3
94	95	3
105	106	2
82	82	2
100	106	3
10	12	2
95	96	5
22	24	4
78	78	3
120	120	6
137	137	8
120	126	1
135	135	21
31	37	1
118	119	4
71	71	3
81	84	1
97	130	4
9	9	6
79	80	7
124	124	8
123	127	2
5	6	1
124	125	3
129	130	2
24	24	3
81	86	1
113	125	4
75	76	1
79	83	2
8	11	1
97	98	3
16	19	1
110	111	7
78	79	5
123	124	3
112	112	8
20	21	3
103	104	1
98	98	7
120	124	1
114	115	4
140	141	1
108	109	2
85	86	6
23	83	2
119	122	2
127	127	4
84	102	1
72	87	3
108	108	8
16	17	3
104	104	3
25	29	1
119	124	1
12	16	1
118	118	5
32	121	4
119	121	1
139	140	2
36	36	10
82	84	3
83	85	2
20	20	3
81	83	2
126	128	4
116	117	1
22	25	4
10	11	3
120	122	5
126	129	3
8	14	3
74	74	7
90	90	5
27	27	3
72	88	4
7	9	2
103	106	2
15	19	2
33	33	2
77	79	2
82	109	1
116	125	1
83	107	1
72	79	1
4	12	2
103	103	4
115	116	6
73	74	3
105	107	2
129	136	1
2	2	3
8	10	2
3	11	1
109	109	4
22	44	2
98	99	4
32	33	1
12	12	3
134	135	2
8	12	1
15	16	5
35	36	6
105	105	3
99	100	1
129	138	1
112	122	1
3	4	1
120	140	1
133	136	1
73	73	3
88	89	1
71	88	2
122	123	2
105	112	1
2	4	2
136	137	3
93	94	3
27	33	3
20	24	1
102	104	1
22	83	1
28	30	3
85	103	1
136	138	3
43	108	1
6	12	1
38	38	1
17	18	2
120	123	4
19	19	3
110	128	1
2	6	1
3	6	2
76	78	3
131	133	1
18	21	2
120	121	1
8	23	2
29	30	1
6	37	2
4	5	1
104	108	1
7	33	1
88	92	1
117	117	2
79	112	1
121	124	1
135	136	2
7	8	1
24	27	2
133	135	2
78	111	1
33	34	1
34	66	1
120	125	1
82	85	1
28	28	4
87	104	1
118	125	1
117	118	1
25	26	2
27	37	1
5	5	2
135	139	1
5	7	1
23	24	1
38	66	1
34	35	1
