174	175	8
144	144	17
11	11	19
155	156	9
118	118	14
143	145	4
188	189	4
119	119	13
18	33	5
137	181	5
35	62	2
19	88	3
176	177	15
9	9	10
148	148	12
4	4	24
174	183	3
134	135	1
150	150	13
189	189	35
149	185	3
123	126	1
108	108	11
162	163	9
162	162	5
45	47	7
132	132	6
3	5	3
77	78	10
32	55	1
131	131	16
156	193	2
169	169	15
183	194	3
3	18	3
161	163	8
22	22	21
102	102	15
103	103	16
20	20	9
65	65	7
22	23	6
141	141	16
7	7	6
34	61	8
55	55	4
194	194	19
69	69	17
35	35	7
192	193	3
162	192	7
102	103	17
146	150	6
59	62	4
87	87	16
138	154	1
6	7	4
36	36	23
139	139	10
133	135	5
133	134	5
21	76	2
1	1	7
136	160	3
38	38	12
138	171	1
185	185	17
174	174	23
127	127	13
43	43	15
152	152	12
94	104	4
152	168	4
76	76	3
106	115	4
126	126	9
95	95	13
102	104	2
107	108	7
124	125	10
121	121	15
193	193	8
94	94	9
71	71	17
113	113	8
189	190	8
12	14	3
142	144	1
13	13	8
136	136	20
47	47	17
25	27	7
150	162	5
114	115	10
182	182	15
190	190	12
79	89	1
9	33	5
52	53	2
20	65	3
31	31	16
58	62	2
85	86	4
12	13	7
38	59	3
111	138	5
114	121	2
100	100	21
123	123	8
126	127	2
109	110	16
2	2	5
18	18	7
197	197	12
5	66	1
156	156	15
193	194	10
70	70	9
172	172	17
129	129	10
161	182	1
122	122	6
4	5	3
112	113	7
28	28	14
21	21	8
176	188	2
46	46	14
191	191	12
78	89	8
79	79	13
106	106	22
110	110	15
153	166	2
185	186	9
140	140	7
167	167	8
161	161	22
159	159	19
57	57	6
115	145	2
135	182	1
25	25	12
82	82	10
54	54	16
117	117	17
28	29	2
111	111	24
180	181	6
33	43	5
181	181	11
148	168	5
48	48	22
124	124	15
153	153	14
75	77	1
168	171	4
101	101	11
105	106	7
39	39	6
160	160	19
79	97	8
162	164	4
63	63	6
75	122	1
110	111	3
3	22	2
133	157	1
195	196	8
30	30	18
188	188	11
0	0	14
2	163	4
58	58	22
158	158	15
146	147	8
145	145	17
41	41	10
107	117	10
183	183	18
6	9	4
130	130	9
137	163	4
141	149	3
190	191	7
136	168	4
179	180	19
3	4	13
140	141	2
187	188	13
147	148	7
122	124	5
5	5	12
170	170	19
179	179	20
161	166	1
108	140	1
7	8	9
195	195	14
13	14	3
37	37	10
118	119	5
178	178	13
12	12	12
116	116	8
27	27	7
19	68	4
43	88	4
177	177	19
166	171	4
172	174	5
107	107	5
143	143	15
115	192	1
72	111	7
8	9	6
148	157	6
90	94	3
44	44	10
82	86	4
61	61	4
157	157	11
24	24	22
99	109	4
166	189	1
19	19	15
97	112	3
50	51	3
19	89	1
2	3	4
176	179	10
33	197	1
104	106	3
191	192	11
160	165	4
174	193	4
53	55	4
88	88	12
29	29	14
95	96	2
14	14	15
45	57	2
117	118	16
196	196	15
170	171	12
96	96	24
61	62	2
10	10	13
101	102	6
139	162	2
11	42	3
142	150	3
124	183	4
18	69	1
121	182	2
21	22	1
106	114	4
185	187	4
42	42	6
63	68	7
46	47	3
156	191	4
154	167	5
16	16	28
114	140	2
112	145	3
121	125	3
120	120	12
12	99	1
172	191	1
165	166	4
142	143	2
76	100	3
129	135	3
168	168	15
177	178	7
149	149	15
10	11	11
135	136	11
52	52	10
171	172	8
125	125	11
33	33	15
9	10	1
190	192	2
54	73	2
134	134	10
51	51	15
4	31	3
64	65	3
166	179	1
169	170	5
146	156	6
72	72	17
89	89	15
19	41	7
167	168	2
151	152	6
0	1	5
117	151	2
113	114	4
125	126	11
106	137	3
17	17	22
130	144	1
112	112	20
47	48	5
39	40	4
154	191	4
149	190	1
21	41	5
42	66	6
164	164	14
157	191	5
147	155	2
186	187	4
19	22	2
133	185	2
176	176	13
170	189	10
120	121	10
31	69	5
180	180	9
105	105	5
154	156	3
184	184	4
160	190	1
81	87	3
142	142	13
174	176	2
147	147	12
145	150	2
175	175	12
6	6	4
81	81	11
24	29	7
144	145	7
122	123	1
8	8	8
184	186	4
131	132	2
189	193	1
173	175	4
109	109	19
19	21	1
59	59	6
99	99	9
32	32	7
146	146	16
155	187	1
135	135	14
98	98	2
17	82	7
111	112	5
45	46	3
132	136	3
0	104	1
114	116	1
66	66	3
159	160	5
49	49	10
123	124	3
129	137	2
167	180	1
85	85	9
154	154	7
34	35	3
152	167	1
168	170	3
186	186	17
15	15	13
165	188	1
70	71	3
81	82	2
165	165	9
163	164	3
20	41	2
19	42	10
164	174	2
9	25	1
10	12	2
176	187	2
150	154	2
89	90	3
128	128	6
143	179	3
143	150	3
192	192	8
180	185	5
125	197	1
5	8	3
3	6	3
191	193	8
35	37	2
137	137	5
115	138	9
151	151	12
148	183	2
6	22	1
187	187	8
14	54	3
59	61	5
54	55	3
133	133	11
35	38	1
173	173	6
25	28	2
11	21	2
83	84	7
182	183	2
18	56	1
61	64	4
123	184	2
73	77	4
123	125	2
26	26	6
116	118	2
6	40	3
80	81	3
56	56	12
117	160	1
104	104	16
183	184	4
34	68	5
36	41	2
151	171	1
3	96	2
122	139	1
147	156	3
163	163	3
163	165	3
116	117	4
150	151	5
50	50	19
128	170	1
65	66	8
104	105	4
22	44	3
157	158	6
158	184	2
28	56	5
79	190	1
107	181	1
148	149	4
31	196	3
129	130	2
119	177	3
184	185	7
15	16	1
172	187	4
115	115	4
172	178	3
14	15	4
23	23	9
171	171	9
121	123	3
182	191	1
53	53	6
149	154	1
181	182	10
16	54	3
161	162	3
96	110	1
100	158	4
114	135	3
38	62	1
107	115	3
128	129	3
154	155	10
24	26	1
40	40	9
34	67	1
18	32	6
57	71	1
156	173	5
37	59	4
141	142	4
127	169	3
153	179	1
36	37	4
150	179	1
155	155	7
125	127	1
39	56	1
98	99	1
152	190	2
185	196	3
17	43	1
112	136	1
18	55	8
36	156	2
45	45	8
60	64	1
95	110	3
139	140	4
103	104	1
2	4	3
176	181	5
62	64	2
165	180	4
17	32	2
110	112	1
58	63	2
84	84	3
162	196	1
34	34	9
96	97	1
114	161	2
25	29	3
150	153	3
172	177	2
119	120	3
68	68	4
56	63	2
97	97	3
99	107	1
93	93	5
154	179	4
36	40	1
35	42	1
1	2	6
82	83	3
56	57	1
95	99	3
36	171	1
149	150	2
86	86	7
155	177	1
22	39	1
21	65	2
114	139	3
24	28	5
100	106	3
53	54	7
35	36	9
138	143	2
104	132	2
34	64	1
105	159	3
166	166	11
46	69	1
118	159	2
155	178	1
83	83	6
168	169	3
37	58	2
62	62	6
94	95	3
176	178	1
112	179	1
175	176	4
74	76	3
18	87	1
129	133	4
78	78	1
93	133	2
142	185	4
20	22	1
156	157	5
116	133	1
12	69	2
31	32	1
116	134	2
94	96	2
74	74	6
119	189	1
80	86	1
28	175	1
20	42	1
38	39	3
182	193	1
90	90	1
119	153	1
145	178	1
23	32	2
23	25	1
41	42	1
114	114	11
16	17	6
38	48	5
43	89	1
157	173	4
150	177	1
154	190	1
56	80	2
84	85	4
71	72	4
152	189	2
36	43	1
32	33	3
108	138	1
138	139	3
36	38	2
28	65	3
88	89	8
186	188	1
60	60	3
16	69	3
23	37	1
99	102	2
44	45	2
73	74	2
116	192	2
117	163	1
153	165	5
119	143	5
175	178	1
129	131	2
36	42	3
178	181	2
1	103	1
22	42	3
116	138	1
23	33	2
161	191	1
132	155	2
112	120	1
67	68	3
12	19	1
119	159	1
80	80	5
40	41	4
25	43	1
9	197	1
152	153	6
180	182	2
138	184	1
96	121	1
73	73	2
13	72	2
114	190	1
138	151	1
27	29	1
78	101	2
76	101	3
44	89	1
166	180	2
28	174	1
157	194	3
136	182	3
157	190	2
10	15	1
33	34	2
100	101	1
21	42	3
30	31	1
38	47	1
155	176	2
138	170	2
61	63	2
93	121	1
34	44	1
151	180	2
145	146	1
137	192	3
48	49	1
133	136	1
132	134	3
25	30	1
51	76	1
63	64	1
19	20	1
143	144	1
77	77	2
37	61	1
147	154	1
115	144	1
174	190	2
174	178	2
14	21	1
172	175	1
4	113	1
11	18	2
24	31	2
63	88	1
135	137	1
17	81	1
75	123	2
21	35	2
18	19	1
138	138	2
150	156	2
18	42	2
133	190	1
18	88	1
55	56	2
140	142	1
139	179	3
48	95	1
138	185	1
32	69	1
15	186	3
175	180	1
146	178	1
150	157	1
147	168	1
93	94	1
108	109	2
27	56	1
111	120	3
151	186	1
115	158	4
137	180	1
134	136	1
37	40	3
132	135	1
75	75	1
20	76	1
48	63	1
162	181	2
169	196	2
121	122	1
186	190	2
34	42	1
114	157	1
18	68	2
35	60	1
143	153	2
12	15	3
9	16	1
169	179	2
5	6	3
97	98	2
143	147	1
188	193	1
118	151	1
99	122	1
0	160	1
60	62	5
187	189	2
5	7	2
19	59	1
79	80	2
29	175	1
11	20	1
10	42	1
151	167	1
75	76	1
165	171	1
27	28	1
113	138	1
21	102	1
2	102	1
119	128	1
5	30	1
62	63	1
150	178	2
156	164	1
168	174	1
18	81	1
166	167	1
95	107	1
115	161	1
156	158	1
86	87	1
57	58	1
37	39	1
96	99	2
93	136	1
38	43	1
64	64	1
114	158	1
152	155	1
99	110	1
75	124	1
9	11	2
189	192	1
17	18	1
124	191	1
149	171	1
29	196	1
60	61	1
35	61	1
139	161	1
67	67	1
28	173	2
1	4	3
119	179	2
189	191	1
172	173	2
49	98	1
18	54	1
145	197	1
167	171	1
167	172	1
165	167	1
18	86	2
145	179	1
130	131	1
129	155	1
117	119	1
128	181	1
21	100	1
104	135	1
34	39	1
100	104	1
3	3	1
142	182	1
27	177	1
47	49	1
55	57	1
174	180	1
62	68	1
63	66	1
27	64	1
110	140	1
26	27	1
9	20	1
23	47	1
72	73	1
