71	83	1
9	9	14
27	27	1
55	55	5
41	43	1
78	78	7
96	96	6
35	133	3
24	24	6
32	32	5
39	39	3
44	45	2
83	84	2
109	109	7
85	86	2
134	135	6
138	141	1
40	40	7
2	67	1
67	67	5
70	70	9
130	130	1
77	77	5
152	153	1
72	72	1
23	23	8
50	51	1
17	17	4
150	150	5
7	23	1
117	127	4
69	69	2
98	98	6
111	114	1
54	54	10
95	95	9
13	13	10
64	64	3
26	27	2
42	57	5
96	109	3
87	87	9
133	134	3
95	111	1
16	40	3
6	7	5
127	128	3
33	33	5
9	24	3
42	43	7
46	46	2
18	40	4
73	74	2
22	22	2
6	19	3
68	69	3
131	136	3
75	76	10
72	82	3
77	78	4
110	110	4
149	150	3
51	56	1
124	125	2
117	118	2
122	122	1
52	131	1
36	36	11
11	11	2
21	28	2
16	17	4
47	47	3
69	70	2
5	6	1
116	117	3
93	93	7
96	97	1
33	34	2
16	16	9
66	66	11
132	132	3
38	38	4
137	137	4
151	151	4
143	143	4
66	68	4
31	31	6
43	43	7
130	131	1
44	44	1
118	119	4
19	19	2
57	57	4
138	138	5
105	107	2
80	80	5
115	115	5
133	133	3
88	88	2
103	105	3
81	81	2
104	105	6
145	149	2
124	128	1
56	61	1
83	85	2
83	83	4
53	53	6
97	97	2
145	145	8
11	12	2
23	38	3
41	41	4
39	40	2
12	12	2
15	15	8
102	102	9
97	98	3
76	76	3
54	115	3
48	49	3
119	150	2
119	119	4
134	136	1
106	108	1
153	153	5
29	29	3
49	131	2
40	41	1
65	65	1
111	111	3
101	101	1
8	8	3
18	18	13
106	107	1
49	50	3
12	13	2
152	152	3
56	56	5
17	18	1
25	25	2
78	79	2
82	111	1
73	78	2
71	71	3
122	145	2
94	94	8
10	10	4
50	135	6
112	112	1
51	52	2
56	57	3
50	50	2
141	143	5
5	10	2
140	142	3
43	44	2
5	5	3
113	113	2
84	85	1
28	30	1
48	48	1
34	117	4
20	22	2
3	6	1
94	98	1
90	90	1
119	120	2
22	23	1
115	116	1
67	68	3
6	6	1
118	118	5
141	142	2
106	106	4
116	127	1
28	28	6
53	124	1
47	57	2
45	45	2
47	48	1
18	19	2
72	73	2
81	85	1
63	66	3
64	72	1
64	65	2
120	123	1
99	99	4
117	117	5
116	118	2
120	152	1
8	23	1
85	85	3
15	16	1
120	120	6
121	121	2
26	49	2
85	87	1
121	122	2
30	30	2
13	14	2
4	6	1
10	16	2
147	147	1
7	7	1
20	20	2
26	28	3
13	26	1
50	53	2
3	66	2
49	52	2
62	62	1
48	50	1
75	75	2
145	147	2
137	138	1
128	128	1
8	24	1
141	141	2
84	86	1
146	146	3
143	144	1
31	32	1
4	4	2
22	51	1
54	131	1
136	136	2
4	26	2
49	68	1
90	92	3
21	22	3
132	135	1
103	103	1
129	139	1
126	139	1
63	121	2
32	33	1
24	26	1
103	110	2
14	26	1
49	49	2
54	55	1
73	73	1
64	67	3
37	37	2
112	113	1
38	39	1
24	39	3
64	78	1
10	11	1
123	123	1
95	100	1
63	75	1
6	8	1
42	42	1
107	107	2
19	21	2
82	82	1
145	146	3
23	29	1
64	118	1
33	50	1
148	148	1
119	128	1
