56	56	10
60	61	7
52	52	14
70	77	1
29	29	5
88	88	12
64	79	7
50	50	26
84	84	9
33	34	1
63	63	30
78	78	10
34	90	2
73	74	4
66	66	9
87	87	1
44	44	10
96	96	5
48	48	7
54	91	2
67	67	13
37	43	4
91	92	2
55	55	10
28	37	4
90	90	13
49	49	8
64	64	13
84	87	1
53	53	9
54	54	10
33	33	10
98	98	11
61	79	2
99	99	7
67	68	11
46	48	3
25	25	3
36	37	1
72	77	2
80	80	6
76	76	13
71	71	7
100	101	2
47	58	1
26	26	3
68	68	5
35	67	3
81	82	2
58	58	14
60	60	12
61	92	1
41	41	11
96	97	7
28	29	3
59	59	12
94	94	18
93	94	10
72	72	4
61	61	20
83	83	14
43	71	1
94	96	1
81	81	8
87	88	1
27	27	2
37	37	3
51	51	6
74	75	3
93	93	8
42	43	3
77	77	14
49	50	6
100	100	13
62	62	8
97	98	10
32	32	3
69	69	6
69	70	5
70	72	8
95	96	1
79	80	3
25	28	4
89	89	11
20	23	1
101	102	3
65	91	3
92	92	5
45	48	3
91	91	6
58	84	3
42	42	12
55	81	2
39	39	8
63	64	2
48	55	3
45	53	2
85	86	3
36	36	6
34	91	4
76	77	1
56	59	1
96	101	1
34	34	5
79	79	12
36	38	2
86	86	9
49	52	3
66	67	1
61	62	5
59	62	1
82	86	5
70	70	10
83	86	3
94	98	3
56	57	4
67	74	1
75	75	4
48	51	1
97	97	3
43	70	2
47	48	1
78	79	1
31	90	1
31	31	3
74	74	11
27	28	1
65	79	3
64	100	4
54	96	2
30	30	2
39	40	4
95	95	10
46	54	1
24	26	1
85	85	8
46	46	4
35	59	2
25	26	5
22	23	4
30	31	1
73	73	3
93	97	5
35	43	4
57	57	4
65	65	5
62	92	1
33	37	2
38	38	8
69	73	2
55	82	1
32	33	1
66	70	4
71	72	3
60	79	3
90	91	2
72	73	2
72	75	2
53	61	3
35	36	1
65	76	2
67	71	2
24	27	3
35	35	5
101	101	7
64	65	1
67	72	1
34	58	2
28	80	1
26	27	2
48	49	2
58	62	2
24	25	1
45	45	2
81	84	2
92	93	1
98	99	3
92	94	2
41	68	3
60	89	3
61	63	1
93	95	2
80	86	1
59	60	3
67	76	4
43	43	2
39	42	1
72	87	3
86	88	3
26	28	1
84	88	1
40	40	2
77	78	3
73	77	1
77	79	1
46	47	1
34	35	1
20	89	2
41	42	2
78	80	1
80	81	1
32	37	1
35	65	1
69	76	1
32	39	1
47	47	1
45	47	1
70	71	1
56	58	1
36	67	1
26	33	2
