59	59	7
13	43	5
6	6	32
5	6	10
84	85	4
32	32	17
68	145	1
24	29	8
41	42	9
20	21	3
7	7	24
166	167	13
26	45	1
54	54	16
177	177	5
116	117	11
28	29	2
22	22	9
39	39	21
146	146	14
2	4	4
26	27	5
76	76	14
123	143	3
9	9	36
130	158	1
4	4	28
147	147	12
127	136	5
140	140	7
36	36	12
29	30	5
31	31	25
163	165	5
161	161	4
10	10	31
37	37	41
28	28	22
31	38	4
30	30	20
78	79	8
132	132	8
25	28	3
3	24	1
55	55	13
12	12	29
24	25	10
11	15	4
32	33	4
29	32	4
10	11	15
107	107	6
3	3	36
15	15	27
50	50	6
14	14	31
128	128	16
172	174	6
100	155	3
168	169	6
111	111	10
152	152	7
18	23	2
148	148	19
28	30	4
24	24	41
19	23	9
149	149	10
150	150	13
8	14	5
63	63	6
12	13	7
114	141	1
98	99	6
92	92	16
56	58	1
97	97	14
137	137	13
73	73	7
41	41	27
157	178	2
117	117	13
98	100	4
8	8	5
54	95	3
128	129	3
143	143	8
167	167	21
129	129	7
142	143	2
7	9	5
15	33	4
173	173	17
127	127	14
2	7	3
7	10	7
126	126	2
83	84	3
94	94	11
151	152	2
52	52	17
35	36	6
16	16	26
159	159	18
121	121	11
38	38	25
44	45	3
57	57	11
34	35	3
60	78	2
78	78	10
133	133	4
21	21	20
14	16	5
153	153	12
25	26	6
103	103	9
160	160	10
45	45	15
82	85	3
89	89	16
84	84	18
41	45	2
13	13	38
20	31	1
28	160	1
26	26	23
40	40	18
9	11	10
56	89	7
58	58	8
121	131	2
16	17	10
136	143	2
0	38	1
77	78	6
114	140	2
101	101	16
94	95	8
33	33	26
18	22	4
42	42	9
86	86	9
35	35	14
20	20	13
52	94	5
71	71	12
135	135	12
8	9	16
53	53	15
11	44	3
91	123	2
114	115	4
157	157	8
18	18	16
154	154	10
163	164	3
50	51	6
124	124	12
115	115	5
105	105	13
14	32	3
17	17	31
96	113	3
144	144	14
141	141	12
100	152	1
60	60	10
152	153	5
131	132	5
133	159	4
25	25	20
172	172	9
22	26	2
28	40	3
163	163	10
82	84	7
30	31	9
29	29	18
0	0	11
75	75	8
37	38	18
142	142	27
5	5	27
97	115	5
74	74	13
5	8	8
90	132	1
72	72	7
66	66	16
28	34	3
34	34	12
60	61	5
143	145	2
131	131	2
171	171	7
133	154	3
165	166	5
83	126	4
65	72	3
90	90	3
52	53	8
157	158	15
1	1	17
16	18	4
15	16	6
123	124	6
3	18	6
175	175	13
43	43	12
32	37	1
105	110	3
2	2	27
162	162	5
64	64	11
73	80	4
51	90	1
40	41	3
120	121	6
24	28	3
28	31	1
138	138	16
99	101	3
44	44	11
134	134	5
158	159	11
4	7	6
23	23	20
11	11	33
177	178	1
6	7	14
54	179	4
150	151	5
1	9	3
34	36	2
170	170	7
55	76	1
80	82	6
9	14	1
87	87	6
85	140	1
120	120	10
88	88	9
12	16	5
18	44	2
166	166	7
114	114	8
2	170	7
15	45	1
13	30	3
21	24	2
78	159	1
66	67	10
1	5	4
140	141	2
83	111	4
75	125	1
79	79	8
4	5	5
50	75	6
127	128	1
158	171	2
104	104	5
19	27	4
26	36	2
15	31	2
18	20	5
73	74	6
169	169	6
2	3	9
147	148	7
84	86	6
97	157	1
88	89	7
90	147	2
18	19	15
27	27	14
178	180	2
67	114	3
39	41	1
24	39	3
98	152	4
75	76	1
24	26	3
95	95	8
3	4	5
39	40	7
12	35	1
79	143	2
7	14	3
72	73	11
121	122	11
1	146	4
32	36	2
100	156	7
10	15	8
31	32	8
93	93	6
125	125	3
67	119	1
42	169	2
106	106	23
62	62	7
33	36	2
132	150	3
15	23	2
91	150	1
43	44	14
80	94	2
41	46	1
134	145	4
9	13	3
43	45	2
9	16	1
174	174	7
13	14	5
0	179	7
136	165	5
91	141	3
151	155	1
4	8	5
23	30	2
104	105	5
5	7	1
179	179	2
56	56	9
1	2	3
66	114	1
108	122	3
5	11	6
57	139	2
149	150	1
59	60	1
85	85	9
67	67	11
1	36	3
71	114	2
26	28	3
21	22	9
128	130	2
4	17	3
130	130	16
66	89	1
99	99	8
9	10	3
105	106	5
5	33	3
53	54	3
178	178	9
136	164	2
180	180	11
41	43	2
49	54	1
103	109	6
124	136	2
22	45	3
64	80	5
42	108	3
51	53	1
74	75	5
86	87	2
54	56	5
21	45	5
131	144	2
11	12	11
5	18	2
82	82	5
98	98	6
17	18	2
6	24	1
61	74	2
156	156	6
126	127	2
80	141	1
176	176	10
80	108	3
122	144	2
95	141	2
64	121	4
104	112	3
118	118	1
115	117	1
61	61	5
91	133	3
106	121	2
116	116	10
83	83	2
42	45	5
96	114	1
8	11	5
1	26	7
168	168	17
13	16	4
113	140	1
157	170	1
49	76	4
85	158	3
1	33	4
106	118	6
154	156	1
76	77	1
14	15	2
79	80	1
38	134	3
113	126	7
141	142	1
11	13	4
72	112	1
128	132	7
150	154	2
4	25	4
2	12	3
170	171	5
66	82	1
124	134	6
81	120	1
155	155	8
103	105	2
35	44	1
61	64	1
34	166	2
0	18	4
153	154	1
7	11	4
35	41	4
11	45	3
151	156	2
131	133	3
126	139	1
96	96	5
53	88	2
68	105	1
171	172	4
33	35	1
145	145	5
113	118	1
111	112	1
34	37	1
115	116	1
8	12	1
132	133	4
22	23	8
55	148	3
1	3	2
102	102	5
79	130	1
27	36	4
139	139	2
109	112	2
165	165	4
87	114	1
117	156	2
38	40	3
81	81	4
15	44	1
135	136	2
19	19	10
132	134	1
22	41	2
136	137	1
85	126	2
82	89	2
81	161	3
114	151	1
112	112	6
65	161	2
155	156	4
13	36	1
93	94	2
43	65	2
93	98	3
117	118	1
80	80	5
52	114	1
102	103	1
20	37	1
137	148	1
91	93	5
13	15	1
158	158	6
91	135	1
17	27	1
96	98	1
55	95	2
161	167	3
86	139	2
90	92	2
26	38	1
31	33	5
38	39	7
5	43	1
127	141	1
23	24	2
146	165	1
27	28	8
122	123	1
57	148	1
151	154	3
170	174	2
15	104	1
58	59	3
7	45	1
91	91	8
115	151	1
4	15	2
73	76	2
52	76	2
1	145	4
14	19	3
122	139	1
119	121	2
60	74	1
162	168	3
144	145	2
34	39	1
61	73	1
51	51	4
134	147	2
52	127	1
162	165	3
121	159	1
28	38	2
139	141	1
29	31	1
131	158	1
68	113	1
19	20	6
140	145	1
10	72	1
104	109	2
45	46	1
80	178	2
20	24	4
98	121	1
71	72	1
28	33	2
4	35	2
115	126	1
10	14	4
22	169	3
126	140	1
50	88	3
70	71	2
113	113	5
160	163	1
30	36	3
89	110	1
119	119	2
104	106	2
33	34	6
110	111	4
27	29	1
30	33	2
109	109	1
107	108	1
4	9	2
108	111	1
41	62	1
58	147	2
126	175	1
150	153	1
25	42	1
125	126	2
102	108	1
108	109	3
7	24	1
18	21	3
23	25	1
164	164	2
130	140	1
146	147	2
6	38	3
111	113	1
100	100	3
123	123	5
17	28	1
158	161	1
106	107	2
7	57	2
81	98	1
91	125	2
124	126	1
4	34	1
88	92	3
90	93	2
90	142	1
64	65	1
27	37	1
14	21	3
78	179	1
34	38	1
85	86	1
99	143	1
6	15	1
141	143	3
108	108	1
7	13	1
103	108	1
74	120	1
15	25	1
66	121	2
42	44	1
71	154	1
3	9	1
36	168	1
64	108	3
1	38	1
70	102	2
143	154	2
72	111	3
140	179	1
61	72	1
10	67	2
141	154	1
89	114	1
92	93	2
5	13	1
112	126	1
16	42	1
34	180	2
145	146	4
16	168	1
175	176	1
62	63	4
92	97	2
78	90	1
104	139	2
96	175	1
73	75	3
123	176	1
4	6	1
4	142	1
150	155	2
55	56	3
14	23	3
65	66	3
61	62	1
87	101	1
25	29	1
110	110	1
52	54	1
146	148	1
14	17	1
103	107	2
91	175	2
18	24	1
37	134	1
3	10	1
67	68	1
91	103	2
151	151	2
17	43	1
93	96	1
13	23	1
36	169	1
70	70	1
118	121	2
63	65	1
3	5	1
80	159	1
136	144	1
34	57	2
12	15	4
2	35	2
73	81	1
31	37	2
21	44	1
61	65	1
82	158	1
0	24	1
1	32	2
71	73	1
3	12	1
74	79	1
10	37	1
91	92	1
113	114	1
55	179	1
7	8	1
16	33	1
134	135	1
10	13	2
91	102	1
72	125	1
63	119	1
