90	90	24
57	58	5
120	120	14
130	130	17
38	38	18
15	34	5
104	105	4
51	51	44
39	39	36
142	142	21
96	97	5
101	101	3
37	50	4
108	108	21
17	18	13
141	142	3
20	20	35
25	25	25
69	109	3
8	10	9
47	47	31
83	83	25
110	110	45
36	36	45
84	84	9
109	119	2
95	96	1
132	133	8
139	143	4
27	27	25
17	17	26
7	7	24
18	163	2
81	82	7
119	120	3
121	122	6
169	170	5
109	109	28
105	105	20
73	79	4
23	26	5
38	40	4
7	8	3
157	157	16
114	114	21
85	86	13
53	55	1
69	108	6
2	2	38
23	23	28
5	13	2
151	152	9
73	74	6
68	69	14
74	75	4
120	121	4
74	74	20
167	167	19
120	144	5
113	113	25
149	149	13
12	13	5
24	24	21
111	112	23
37	37	19
134	135	5
123	140	1
9	9	33
8	8	19
64	64	27
64	65	5
114	115	9
49	49	15
5	6	8
47	53	2
21	24	4
126	126	22
141	141	18
73	78	7
50	51	6
129	129	30
110	111	6
150	150	26
134	134	11
46	57	11
50	50	22
1	2	19
56	56	23
54	89	8
19	19	13
45	45	29
92	95	3
26	27	6
135	135	22
34	34	17
46	46	28
42	42	30
156	156	8
139	139	21
108	109	10
39	41	5
137	137	22
71	163	6
26	26	21
76	78	4
132	132	22
133	133	25
136	136	14
101	104	4
69	72	5
82	82	30
62	62	23
70	71	3
66	66	15
89	89	25
69	69	25
0	1	7
18	18	29
14	14	17
11	11	19
8	9	13
10	10	25
35	36	5
82	92	4
57	57	23
122	144	6
128	128	24
15	15	20
19	20	7
0	0	19
88	88	17
111	111	30
45	46	2
48	48	21
5	5	18
92	92	17
70	70	20
35	35	26
93	93	28
67	67	12
126	129	3
164	165	13
163	163	24
40	40	36
18	22	3
62	63	6
13	38	2
144	145	6
1	109	3
72	73	6
102	105	2
137	155	1
109	116	3
37	53	2
71	85	1
106	108	2
11	12	11
76	77	10
155	156	12
121	121	12
145	145	20
3	108	3
132	134	5
56	57	2
53	53	23
155	155	8
159	159	16
95	95	13
162	166	3
1	1	23
166	167	13
112	116	5
15	56	3
168	169	6
107	107	18
85	85	15
3	3	34
86	87	9
119	144	3
110	116	1
117	117	26
69	98	3
148	149	9
99	99	31
86	86	14
143	144	11
21	168	1
72	72	21
9	10	19
143	143	27
158	158	22
137	147	4
96	96	16
84	91	7
49	51	4
110	131	2
43	43	21
21	22	11
146	146	21
124	125	8
11	13	1
125	125	18
65	69	4
152	152	5
55	55	18
44	44	22
164	164	7
18	148	1
65	65	19
87	87	13
151	151	16
69	107	1
169	169	9
4	4	21
54	54	37
13	13	14
22	22	24
81	81	23
77	77	7
80	82	4
23	24	15
6	6	16
112	154	1
111	115	1
80	81	10
9	50	3
111	131	2
19	69	2
44	45	5
115	116	9
137	144	3
23	167	5
40	41	5
54	108	3
105	106	7
80	80	16
137	138	6
122	122	10
23	136	3
17	122	3
97	99	5
124	128	5
149	152	4
68	68	19
17	66	2
55	56	9
145	148	5
108	133	4
144	144	10
148	170	3
109	111	2
154	155	9
98	99	10
112	112	28
123	124	7
7	55	1
41	54	9
81	98	2
166	168	2
18	20	6
122	123	2
41	41	27
138	138	12
21	21	19
116	117	11
16	20	3
104	104	4
82	83	3
126	127	7
4	36	1
88	90	4
162	163	4
167	169	2
53	54	3
20	22	7
156	157	6
52	52	30
101	102	8
147	147	20
33	34	5
16	16	18
110	164	3
15	81	3
44	46	6
58	58	15
134	159	2
12	12	36
103	103	7
92	93	5
163	165	6
118	118	7
64	68	4
18	19	16
10	12	8
106	106	18
115	115	9
8	51	2
4	20	4
36	42	5
12	22	5
116	118	2
147	148	7
132	161	3
41	42	4
150	157	1
88	100	4
63	63	9
14	15	15
15	49	10
50	54	1
122	131	5
16	17	6
137	143	5
25	81	4
133	134	5
123	123	10
37	38	5
73	73	10
41	62	3
170	170	12
57	62	3
10	54	2
108	127	2
33	33	11
71	72	1
53	56	4
52	53	1
116	116	12
13	41	1
130	131	6
6	7	9
110	112	3
146	147	4
28	28	12
118	122	3
21	23	4
162	162	20
90	102	2
140	140	8
108	111	4
124	124	8
160	161	3
4	66	2
157	159	1
160	160	10
3	6	5
35	107	2
117	135	1
36	37	5
161	163	2
91	91	6
67	72	2
103	104	13
20	21	7
65	66	9
37	41	7
64	67	2
112	114	11
40	62	2
90	91	5
122	124	1
102	102	9
138	144	1
127	127	15
159	161	3
91	96	1
0	41	2
139	141	1
99	102	1
138	139	2
67	68	5
2	28	1
6	45	4
16	19	6
79	79	9
165	166	2
54	55	4
111	136	1
88	89	4
121	125	4
109	132	6
101	103	5
94	94	13
112	113	11
69	70	10
110	133	2
83	85	2
166	166	21
138	145	1
71	71	9
46	47	2
168	168	7
10	50	1
132	143	1
158	159	7
11	18	4
6	47	2
68	159	4
8	42	1
7	12	2
38	39	9
117	118	6
51	52	4
116	121	1
67	69	5
38	41	2
4	7	3
34	35	7
110	162	2
47	49	8
153	153	11
167	168	5
25	112	6
98	98	11
48	52	6
79	80	7
17	144	2
9	11	2
160	163	3
100	100	4
142	143	5
52	90	4
13	14	6
107	108	4
18	51	2
135	137	5
78	78	10
65	70	2
165	165	8
140	142	7
161	161	10
127	139	2
20	23	1
161	165	3
25	27	5
8	170	2
2	3	2
11	55	3
136	139	2
154	154	7
94	95	6
21	145	4
23	81	2
103	105	1
139	142	1
25	37	2
42	43	1
57	64	2
153	154	9
48	63	3
110	114	3
117	126	1
75	75	11
15	43	1
47	48	12
130	132	1
149	167	1
89	90	6
55	95	1
144	146	1
163	170	2
10	13	2
98	103	4
77	78	7
123	131	4
159	160	6
19	67	2
126	140	3
5	55	1
40	148	2
97	126	3
119	119	7
114	165	3
147	159	2
37	54	1
163	164	4
12	15	3
4	5	7
91	92	2
78	81	1
108	113	3
24	82	2
27	28	7
41	63	2
146	155	4
5	51	1
43	44	3
133	143	4
77	79	1
148	148	4
162	164	2
84	103	3
143	154	1
46	49	3
19	21	1
8	17	2
121	128	5
129	130	2
74	102	2
118	120	2
2	4	3
97	97	5
7	44	1
139	140	3
17	20	5
150	151	3
99	100	6
0	53	1
156	159	1
66	67	5
4	6	1
147	170	4
83	127	2
13	52	1
64	167	1
113	114	6
23	82	1
20	169	1
34	36	1
48	49	6
100	105	2
16	18	6
63	64	5
114	116	2
2	127	1
71	77	5
131	131	7
54	88	1
39	40	10
71	84	1
61	62	2
76	79	4
23	92	2
106	107	3
24	25	3
93	96	2
22	23	3
149	166	1
22	93	3
120	143	2
10	23	2
6	21	1
15	17	7
3	38	1
58	62	3
134	160	2
57	127	1
69	91	1
84	85	1
91	93	5
93	94	5
62	69	1
67	92	2
62	74	4
86	103	1
80	97	2
109	114	1
100	101	4
109	110	1
146	153	4
11	23	4
127	128	3
6	26	1
0	26	1
33	36	1
80	94	3
54	56	1
84	117	1
2	35	3
108	168	2
5	7	3
136	137	1
129	135	2
161	162	2
99	126	1
98	129	3
141	156	1
116	153	2
2	24	1
144	154	2
119	151	1
24	132	2
97	98	3
8	50	3
142	154	1
121	142	2
154	156	1
50	52	4
12	50	3
75	91	1
16	48	1
76	81	1
3	36	1
113	168	1
124	132	2
111	151	2
117	131	2
0	37	2
155	161	2
25	28	4
58	108	1
5	46	2
125	126	1
110	132	2
123	125	2
83	84	1
91	94	5
123	126	3
122	125	1
19	64	1
0	51	1
41	56	1
146	152	1
99	103	1
105	124	2
162	165	1
22	24	2
71	82	1
17	136	1
121	153	1
121	123	1
76	76	1
124	126	2
37	42	1
145	150	2
1	37	1
86	91	1
15	23	1
93	102	1
19	123	3
108	126	2
106	125	1
78	79	1
138	149	1
112	120	1
7	10	3
21	137	2
93	95	1
57	63	1
119	121	1
14	20	1
127	143	1
114	154	1
10	11	2
46	48	1
4	11	1
21	166	2
6	152	1
13	40	1
77	91	2
17	137	1
10	53	1
76	95	1
16	22	1
13	22	1
106	109	1
70	85	1
110	126	3
17	28	1
118	119	1
11	16	2
24	167	2
148	166	2
108	128	1
146	151	2
36	38	2
0	38	1
3	34	1
111	154	2
128	129	2
16	28	2
111	113	1
116	122	1
18	144	2
127	129	1
5	56	1
5	23	1
2	25	1
25	26	3
39	62	1
148	161	1
155	158	1
109	162	1
72	80	1
145	146	1
121	135	1
20	135	2
15	37	1
140	143	1
21	149	1
39	58	1
1	25	1
62	109	1
