147	168	3
142	144	3
101	101	3
36	74	3
13	17	3
42	74	10
107	107	9
131	131	5
7	8	2
13	14	6
135	136	6
155	161	2
186	186	2
75	76	4
132	132	5
168	168	5
146	146	6
110	110	3
152	152	12
93	94	4
104	116	5
154	160	2
164	165	4
153	154	3
153	153	3
172	173	6
173	173	2
187	187	3
163	163	3
166	166	1
126	126	1
60	63	5
23	24	1
158	158	2
28	28	5
125	125	3
21	21	2
23	23	2
38	38	4
182	183	4
143	143	2
91	93	3
74	75	2
88	89	5
118	118	1
83	134	3
147	147	2
132	144	3
101	102	3
129	129	2
109	115	2
178	178	1
33	37	5
86	86	4
42	73	1
36	36	3
88	88	8
40	40	2
13	13	2
93	101	3
31	47	1
65	66	6
64	64	4
55	55	2
177	178	7
64	81	2
55	61	1
56	56	4
100	100	2
22	22	6
171	171	2
152	153	4
98	105	2
98	98	3
165	181	2
121	121	1
24	26	3
53	53	1
124	124	2
154	154	2
27	28	3
16	16	2
17	19	1
142	143	4
44	67	4
4	5	3
176	177	4
95	99	1
37	47	1
142	142	5
106	115	5
173	185	3
83	130	1
77	77	1
183	184	2
59	59	4
20	20	5
136	137	6
5	9	3
29	29	3
170	170	3
92	92	1
113	113	4
61	79	2
141	141	5
140	140	3
30	31	1
107	108	1
26	26	2
103	103	1
149	149	2
157	157	2
39	39	1
119	119	4
151	151	4
36	37	3
164	183	4
181	181	5
187	188	1
168	175	3
150	164	1
177	177	2
102	102	2
145	147	1
123	124	2
82	83	1
2	2	1
108	145	3
90	111	1
151	153	1
127	127	1
81	81	1
148	153	2
94	94	1
146	153	4
178	180	3
164	166	1
80	80	1
57	57	3
27	29	1
18	22	2
130	132	2
185	185	2
62	62	3
169	169	2
124	126	3
17	18	1
53	54	1
112	147	1
16	36	1
133	137	1
24	25	3
56	75	1
60	65	1
154	189	1
105	105	1
154	155	1
155	164	1
1	2	1
114	114	3
115	117	2
168	179	1
102	119	2
84	123	1
87	87	1
172	172	1
0	0	2
9	18	1
96	96	3
61	61	1
2	3	1
84	84	2
0	1	1
156	156	2
165	165	2
128	128	1
108	115	2
60	60	1
111	149	1
66	66	2
140	141	1
27	36	2
175	175	1
67	74	1
153	160	1
6	6	1
133	133	1
4	4	1
86	105	1
164	164	1
140	143	1
