37	37	12
103	105	5
87	87	13
78	78	5
142	148	2
127	127	10
115	115	6
65	65	12
12	12	5
40	40	6
34	86	3
54	137	6
105	105	8
155	156	6
116	117	4
137	137	23
102	103	5
148	149	3
118	119	2
91	91	7
5	5	6
42	43	4
99	99	1
84	85	4
62	62	2
66	67	3
85	86	11
97	98	3
106	106	5
13	16	1
148	148	8
123	126	7
89	91	5
39	83	3
115	116	2
122	125	5
145	147	2
51	51	4
115	120	2
8	10	4
134	134	9
52	52	4
53	53	7
66	71	2
4	25	7
81	81	3
116	116	9
124	125	7
145	145	11
86	86	8
88	109	3
31	31	21
56	56	4
21	49	1
135	136	14
114	114	5
100	100	10
37	80	6
139	139	7
9	10	1
118	118	7
92	92	7
10	10	2
20	22	4
68	68	15
104	152	3
133	133	6
23	25	3
136	142	1
15	15	4
28	67	1
24	24	8
105	132	2
28	35	3
156	156	12
135	135	11
78	108	1
25	25	15
73	73	9
17	19	1
90	90	4
139	140	6
124	126	12
79	138	3
78	107	6
129	129	8
15	49	7
9	11	4
95	96	2
68	70	1
126	126	4
8	12	2
19	19	8
133	134	1
12	22	3
23	24	7
50	79	3
70	72	3
97	97	5
50	51	5
95	97	3
81	110	3
82	82	1
92	94	4
132	132	14
22	22	9
146	152	1
107	117	1
32	64	3
28	28	6
137	138	3
93	94	1
30	30	7
11	12	7
130	130	10
88	88	8
115	117	5
152	153	1
34	38	6
78	79	4
107	107	2
77	127	3
158	158	5
16	16	15
75	128	4
135	140	1
66	69	3
25	26	1
4	21	2
24	25	2
125	125	1
48	49	3
111	112	5
2	2	3
157	157	5
43	43	4
17	17	5
84	84	6
107	114	5
69	71	2
123	125	3
26	26	1
113	115	4
106	115	12
75	75	12
77	113	3
138	138	6
30	31	2
119	121	4
117	117	3
14	22	3
120	120	5
50	50	7
77	139	6
146	146	10
42	42	10
133	146	2
18	18	2
23	23	7
109	109	4
82	83	1
130	131	2
79	129	4
77	123	3
152	152	3
97	148	2
45	46	5
48	48	2
131	137	1
63	63	3
140	140	5
114	121	4
33	33	5
106	132	2
100	101	1
4	47	5
110	111	9
54	54	6
3	3	3
7	7	6
89	89	7
47	47	2
21	21	8
34	66	5
81	83	1
106	107	4
33	34	4
26	84	3
146	148	1
111	111	5
96	135	3
111	116	2
49	52	2
142	142	2
27	27	5
101	130	1
44	44	7
83	84	3
15	34	2
119	119	5
121	122	2
102	102	1
129	139	3
34	34	4
110	110	2
77	95	3
101	101	7
40	41	5
124	124	2
146	147	4
26	27	3
39	39	7
20	20	2
69	69	2
140	148	2
7	46	1
108	109	1
72	127	2
107	112	1
147	147	5
70	70	3
57	57	2
10	15	3
144	144	4
96	96	4
7	9	3
121	121	1
4	4	7
36	36	3
95	95	6
31	34	1
35	36	3
10	11	3
17	18	1
50	54	4
136	136	2
78	118	2
155	155	4
128	128	10
122	122	2
51	52	2
27	28	3
14	15	5
115	144	3
36	37	3
111	125	2
77	77	6
150	150	5
0	0	5
34	87	2
22	23	4
71	71	2
66	66	5
62	63	1
18	19	2
132	141	2
106	127	4
135	142	2
41	41	5
126	127	4
83	86	2
91	93	2
109	123	1
29	29	1
71	104	3
149	149	4
13	35	2
88	110	3
5	42	2
46	46	4
35	56	1
55	55	1
124	128	1
98	99	2
78	93	1
40	42	5
80	80	6
12	18	2
153	153	3
45	45	12
140	141	4
13	18	4
2	3	1
55	64	1
24	27	1
143	143	5
131	139	2
135	137	1
88	89	2
120	134	2
29	86	2
6	6	4
9	9	5
11	81	4
102	130	3
83	83	3
134	148	1
29	36	1
75	82	3
74	128	1
29	71	1
38	83	3
67	67	2
91	92	2
133	154	1
93	93	1
14	14	1
9	38	1
50	52	3
134	139	2
151	151	2
45	47	1
94	94	5
11	11	2
4	48	5
33	67	1
108	110	1
98	98	3
76	137	3
35	35	1
8	8	3
20	21	3
71	72	2
127	135	1
120	144	1
104	105	2
134	145	2
29	30	4
148	150	2
137	149	1
112	112	3
27	68	4
28	36	1
85	85	3
8	111	1
64	64	2
104	153	2
78	112	2
115	122	4
113	114	2
46	71	1
1	1	4
103	145	1
49	50	1
154	154	1
6	8	1
101	128	1
135	139	2
52	53	2
49	51	1
135	138	2
125	126	2
97	105	2
30	35	1
11	14	1
108	108	4
114	115	1
6	46	1
61	70	1
79	93	1
35	63	1
145	146	2
46	50	1
32	68	1
80	81	1
48	50	2
32	35	1
147	152	2
50	55	1
92	124	1
131	132	2
152	155	2
98	143	2
73	77	1
151	152	2
112	118	1
144	145	1
90	91	1
34	35	1
129	130	1
13	14	1
7	13	1
49	49	1
121	123	1
84	109	1
23	48	2
3	28	1
92	93	2
67	103	1
136	137	1
83	85	1
28	30	1
67	69	1
97	146	1
