28	28	13
30	30	9
50	50	16
84	84	2
50	53	1
59	60	8
51	51	9
47	48	1
13	13	8
64	65	3
68	68	2
80	80	9
77	77	9
3	3	4
19	19	5
49	49	3
67	67	6
49	51	6
5	5	3
51	52	9
72	74	1
87	87	6
34	34	16
63	82	1
60	60	5
77	78	6
27	27	5
74	74	3
78	78	5
62	62	8
24	25	4
66	66	14
59	59	14
48	51	4
63	63	17
53	55	11
57	57	17
12	13	7
73	73	9
48	49	8
82	83	16
53	56	4
7	7	12
9	10	1
76	76	19
55	55	11
48	48	8
35	35	3
75	75	8
67	68	6
23	23	15
11	14	9
88	88	1
24	24	12
66	67	1
86	86	15
74	75	7
65	65	3
6	6	6
52	54	3
8	8	1
8	19	3
50	51	7
54	54	8
47	47	15
47	59	1
65	83	8
75	76	5
56	71	2
15	15	5
78	81	4
20	20	1
54	55	4
60	61	4
17	31	3
53	53	16
52	52	14
58	59	1
77	79	7
59	62	4
6	16	3
64	64	4
11	11	8
70	70	8
28	29	1
25	26	3
81	84	4
71	71	5
10	12	1
48	53	4
34	35	6
49	52	5
84	85	2
26	26	4
17	27	2
66	83	9
72	73	7
74	82	2
31	52	1
59	81	2
83	83	6
79	79	8
48	58	1
51	53	2
6	20	3
59	61	1
69	70	4
2	2	1
21	21	1
58	58	3
0	14	3
81	81	13
78	79	2
65	66	2
60	62	3
15	16	6
14	15	2
78	83	9
9	9	6
4	4	4
82	82	1
89	89	2
71	73	2
67	85	4
49	50	3
79	80	7
5	12	1
80	81	8
56	57	4
5	20	4
67	81	4
21	22	2
7	8	4
18	26	2
17	17	8
25	25	4
27	29	2
31	53	5
63	64	4
81	83	2
26	27	3
31	31	3
46	46	1
9	20	2
18	28	1
56	56	7
30	49	1
60	63	1
55	59	1
65	77	1
69	69	2
15	20	1
1	2	2
47	51	1
65	76	1
10	10	3
54	58	2
8	10	1
67	83	1
22	22	2
76	77	3
72	72	2
5	13	1
29	29	3
30	48	2
55	56	2
14	16	1
9	21	1
79	81	1
73	84	2
50	52	1
30	47	1
61	61	1
4	6	2
77	84	1
12	12	1
68	85	1
77	83	1
64	66	1
31	57	1
22	23	2
6	7	1
61	62	2
71	72	1
11	13	1
48	50	1
11	12	1
85	85	3
18	19	1
0	0	1
2	10	1
17	23	1
16	16	1
