20	55	1
59	59	18
10	10	8
19	20	5
40	40	8
2	3	6
35	35	18
1	2	5
31	31	21
24	24	15
5	25	1
40	42	1
33	33	21
46	46	22
10	11	5
53	53	11
42	42	18
58	58	12
40	41	8
47	49	5
39	41	2
48	48	23
16	20	5
56	59	10
44	45	11
23	24	5
30	58	1
45	45	7
15	15	12
62	62	31
32	32	32
56	57	10
55	55	16
30	30	14
51	52	4
58	59	5
34	34	19
41	41	14
13	13	17
29	52	1
32	33	5
60	60	22
42	43	6
43	43	17
36	36	17
39	53	2
49	49	26
3	3	4
51	54	7
7	7	10
53	54	10
12	58	4
56	56	11
61	61	22
45	46	13
14	20	4
42	56	1
1	1	5
57	57	13
22	29	2
52	52	12
38	38	15
39	39	16
41	60	5
37	37	10
16	16	13
38	39	14
45	48	2
17	17	7
9	9	5
2	6	4
56	58	8
21	22	11
9	12	1
44	44	18
29	29	3
18	20	9
54	54	19
25	25	4
8	10	5
17	18	4
34	35	2
47	47	14
14	14	6
0	0	2
23	37	1
2	44	3
11	12	3
50	50	13
37	62	2
46	57	3
51	55	4
11	11	5
21	21	9
50	52	2
1	35	1
9	10	8
12	12	9
14	17	1
30	33	3
32	48	4
45	47	1
51	51	15
14	54	4
48	49	10
5	40	2
21	29	3
18	18	3
49	50	7
6	7	6
54	55	3
59	60	2
55	56	5
50	55	4
20	20	5
18	24	1
7	8	1
16	17	1
12	45	4
48	62	2
50	51	4
4	5	8
30	31	2
8	8	2
6	6	3
19	23	2
43	60	2
57	58	2
5	5	3
29	38	6
41	57	2
22	22	6
12	18	3
2	2	11
29	41	2
46	61	3
13	60	1
37	42	1
40	60	2
0	32	2
43	46	1
41	58	4
52	54	1
0	30	2
52	53	1
53	59	4
13	42	2
44	62	3
15	39	1
49	60	1
23	41	1
36	37	3
44	46	2
37	60	4
23	23	1
22	40	3
0	37	1
47	48	3
31	42	1
61	62	2
4	40	1
42	60	1
15	16	1
0	35	2
20	53	1
19	19	3
55	59	1
30	57	4
60	61	2
37	59	1
4	4	1
8	9	1
20	21	1
37	38	3
14	39	1
51	53	2
17	21	2
46	47	1
22	24	1
3	30	1
38	40	2
30	59	2
3	36	1
19	21	1
31	39	1
37	55	2
3	37	1
43	62	1
35	36	1
