76	76	3
84	84	2
25	31	4
106	106	7
71	71	15
28	31	4
37	53	4
40	40	2
109	110	7
43	62	3
65	76	1
91	97	3
47	50	2
101	103	3
69	69	3
23	23	6
75	102	1
62	63	5
67	67	1
83	84	2
96	96	5
83	83	9
70	71	7
56	57	6
61	72	3
51	51	3
33	33	6
100	100	15
72	89	1
58	59	5
59	60	6
78	78	6
57	58	3
61	61	8
87	87	5
105	105	7
72	73	1
66	85	2
88	88	2
47	48	3
79	80	7
66	86	1
99	99	8
112	113	2
55	57	3
49	50	2
104	107	1
107	107	3
44	44	5
86	86	6
84	85	2
77	77	3
59	59	2
80	80	7
97	97	4
92	96	5
92	95	1
98	98	1
59	72	4
76	77	3
39	40	2
28	109	1
85	85	8
54	59	6
25	25	4
83	85	4
98	99	4
79	79	9
27	27	3
114	114	2
34	34	6
48	112	1
53	53	4
73	74	8
46	50	2
91	110	3
95	96	3
95	108	1
25	26	2
93	93	3
62	97	1
93	95	6
71	73	5
20	21	4
71	109	1
65	66	2
45	46	2
22	27	1
65	65	3
36	37	1
53	86	1
32	32	5
69	71	2
68	98	2
77	78	3
26	26	5
68	69	3
75	75	4
44	51	1
46	46	5
89	89	3
48	49	4
35	35	6
65	67	1
104	104	2
115	115	2
106	110	4
103	103	2
91	91	3
56	56	5
30	30	4
54	86	3
67	68	2
108	108	4
73	73	7
99	100	4
92	92	6
21	51	2
112	112	8
75	77	3
84	96	1
82	82	5
86	87	1
69	89	1
39	39	2
28	34	2
102	102	6
32	36	5
70	104	3
36	38	1
81	99	3
77	85	2
98	101	1
77	112	1
34	35	2
52	53	1
19	19	1
103	104	1
37	37	1
82	83	1
30	31	3
113	113	2
42	61	1
26	31	1
70	105	2
70	73	2
78	112	1
93	94	2
66	67	1
78	80	1
68	68	2
105	107	1
85	86	1
57	57	2
78	79	2
39	112	1
62	89	2
36	36	1
45	45	1
44	48	1
76	78	4
101	101	4
41	47	1
55	85	1
50	50	2
62	64	2
47	62	1
75	82	2
63	63	4
66	66	2
72	72	2
101	106	1
28	115	2
38	38	2
86	105	1
95	95	1
41	42	3
82	84	2
74	82	2
89	90	1
105	109	1
29	30	1
41	41	2
90	90	1
62	107	2
62	104	2
56	83	1
103	107	2
106	107	1
74	75	1
73	84	1
101	102	1
80	96	6
27	53	1
58	58	1
64	65	1
29	62	1
60	71	2
33	38	1
31	31	1
32	35	1
81	81	2
113	114	1
52	52	1
47	47	1
77	99	1
90	91	1
24	24	1
100	101	1
37	39	1
