33	35	4
95	95	7
128	128	11
27	27	16
23	24	10
125	142	2
0	0	9
48	48	6
20	20	3
113	113	6
120	148	1
24	24	7
69	69	6
98	98	6
113	115	2
23	46	3
68	68	10
26	42	5
6	6	8
105	105	6
131	138	1
68	70	4
23	23	12
136	137	4
133	133	5
37	37	4
87	88	1
17	28	3
109	145	1
13	36	4
21	21	3
155	155	4
88	88	10
52	54	2
35	35	1
129	129	11
33	33	10
111	111	2
66	66	5
7	54	2
5	5	6
3	22	4
11	12	2
44	44	7
20	24	1
83	86	2
32	33	1
98	128	1
46	46	8
94	94	9
99	99	11
45	62	1
102	102	11
112	113	6
47	66	3
127	135	2
49	51	1
90	90	9
34	35	4
39	42	7
109	111	2
71	150	1
83	83	7
48	49	1
44	45	6
40	40	3
53	53	5
81	81	5
115	115	7
119	121	1
157	158	1
142	155	7
142	143	3
138	138	1
77	89	1
38	38	1
87	89	2
130	130	9
30	36	6
148	148	6
151	151	7
51	51	5
137	138	5
7	66	5
29	29	2
124	124	4
73	73	6
108	108	3
2	2	10
107	107	4
112	115	1
150	150	5
17	17	4
157	159	5
4	4	5
125	126	2
100	100	5
87	87	6
42	42	2
3	4	8
139	139	6
116	116	12
73	138	1
49	49	3
30	32	1
52	52	2
158	159	5
12	14	1
141	153	1
41	42	1
30	30	7
23	45	1
128	129	3
66	71	4
134	134	8
26	26	4
13	16	2
152	153	5
30	31	4
102	128	1
65	65	5
21	38	1
13	13	4
111	112	1
12	13	1
82	82	9
18	18	2
108	109	2
62	62	4
37	38	1
118	119	2
110	111	1
4	21	2
7	24	1
125	125	7
28	28	9
7	7	11
126	145	1
8	24	2
13	15	3
141	141	4
123	123	5
56	71	2
112	112	5
89	89	5
26	27	5
39	39	5
74	74	5
14	14	2
47	48	1
50	52	1
132	132	5
45	45	8
83	84	3
57	57	1
84	142	3
67	67	2
98	127	1
84	84	2
137	137	4
144	145	5
119	119	3
62	63	1
131	142	1
80	130	1
19	20	1
64	64	3
65	153	2
117	117	8
77	77	6
85	85	7
94	95	1
135	136	1
114	114	1
114	115	6
126	126	1
20	21	1
21	23	1
126	127	4
72	72	2
37	49	3
93	94	4
102	103	2
22	22	3
101	101	3
159	159	2
80	80	4
54	55	6
17	26	2
147	148	1
146	146	2
34	37	1
55	143	1
140	142	2
71	71	2
70	70	2
111	117	3
12	15	1
142	142	1
141	155	1
31	32	2
104	139	1
45	46	2
64	124	2
15	25	1
121	137	1
43	43	4
12	12	8
64	153	4
12	29	1
120	137	1
30	33	1
25	25	5
34	34	1
76	76	1
115	117	3
131	134	2
104	104	3
91	92	2
141	142	3
4	22	1
2	66	1
47	54	1
1	2	2
150	158	3
140	141	3
123	124	1
131	132	2
68	142	2
93	93	7
9	37	1
27	28	3
92	92	3
109	110	2
115	116	1
139	158	1
17	25	1
8	9	2
104	105	2
34	38	3
18	34	4
22	43	1
1	158	1
55	55	1
9	48	1
10	11	1
79	134	1
133	134	1
106	147	1
18	19	3
110	110	1
75	75	2
152	152	2
145	146	1
155	156	1
54	54	3
103	103	1
41	41	1
46	47	1
72	156	3
56	152	1
117	119	1
139	140	1
94	130	1
131	131	3
156	156	1
67	69	1
12	48	1
145	145	1
31	31	1
45	66	1
105	106	1
35	36	1
156	157	1
48	62	1
80	81	1
139	157	1
16	39	1
124	125	1
138	139	2
158	158	1
77	131	1
135	135	1
100	101	1
98	149	2
25	42	2
119	138	1
144	144	2
109	109	1
142	154	1
19	24	1
129	130	1
120	120	1
32	32	1
120	121	1
6	65	1
97	97	2
23	25	1
47	47	2
78	78	1
29	43	1
118	118	1
113	114	1
127	127	1
4	44	1
53	54	2
106	106	2
50	50	1
147	147	1
107	150	1
157	157	2
25	103	1
76	77	1
14	25	1
9	9	1
91	107	1
10	10	1
8	8	1
77	121	1
0	2	2
