25	27	6
37	37	7
26	80	2
44	44	12
52	78	1
62	62	20
68	68	19
24	28	8
77	84	3
31	100	3
48	60	4
53	53	12
27	27	4
101	101	28
66	66	20
23	26	3
67	67	25
79	88	2
83	84	2
46	47	10
91	91	16
99	99	18
48	50	3
22	29	4
64	90	6
22	22	7
73	73	14
97	98	6
87	88	22
63	89	2
42	42	14
86	86	12
87	87	14
41	41	30
83	89	3
52	52	14
96	97	9
38	38	10
53	95	2
99	101	4
24	25	3
81	82	5
83	83	12
90	90	21
44	65	1
48	48	18
54	54	12
41	75	9
62	82	1
70	71	6
33	34	5
74	74	7
30	30	5
49	50	11
35	37	4
60	60	17
30	31	3
45	45	9
55	100	3
43	44	1
55	55	12
60	61	3
60	101	6
59	101	5
78	78	14
97	97	10
95	96	11
51	51	6
68	100	2
31	31	8
44	61	2
63	67	4
55	94	2
66	69	2
28	33	1
71	71	24
61	61	17
84	84	14
33	40	1
80	81	15
46	46	25
76	76	26
57	57	13
63	63	27
102	102	3
39	39	15
59	82	5
81	81	19
87	89	3
59	59	23
33	33	14
94	94	16
36	36	4
54	55	2
88	88	14
95	95	14
92	92	18
62	64	4
27	28	3
79	79	21
96	98	3
20	32	2
74	75	11
78	85	5
92	93	7
85	85	15
42	44	3
91	102	1
58	60	5
70	70	19
49	49	12
93	94	7
59	78	3
92	98	4
84	86	1
98	98	16
56	56	10
26	26	11
68	69	9
32	58	4
89	89	10
64	65	4
65	65	17
34	34	10
40	40	19
53	58	1
23	29	3
91	98	3
75	76	7
37	38	6
59	60	3
47	65	3
51	52	5
47	48	10
29	78	2
29	33	4
83	88	1
43	76	2
72	72	15
100	100	20
53	54	9
75	75	19
48	88	2
72	78	2
77	77	17
60	62	5
84	88	2
79	80	5
22	34	2
64	64	11
65	66	3
84	100	1
69	70	2
50	83	1
36	37	3
85	86	3
55	57	2
22	26	2
29	29	11
93	97	4
70	73	1
80	86	5
25	25	13
93	98	5
74	77	3
24	24	10
52	98	3
46	48	1
60	98	1
58	88	7
96	96	7
46	51	3
47	47	9
43	43	20
35	91	5
92	95	3
50	50	8
46	53	6
58	59	6
51	53	2
76	77	5
41	44	4
91	92	3
96	101	2
86	101	4
65	69	1
46	95	3
27	31	1
80	80	14
86	88	3
99	100	1
45	48	5
53	84	3
93	95	1
29	36	2
48	56	4
70	72	3
59	71	1
58	58	10
93	93	7
56	57	1
55	56	4
61	89	1
39	40	1
42	43	4
45	70	2
57	59	3
68	83	1
69	69	3
44	45	5
41	57	1
45	55	2
57	62	2
68	70	1
41	76	1
35	35	4
98	99	4
35	64	2
58	71	2
57	67	2
24	81	3
86	87	4
67	70	3
62	85	1
38	39	1
41	91	3
61	87	1
24	53	1
82	82	2
78	92	1
34	35	1
95	97	1
82	84	2
50	85	3
72	89	4
25	26	7
34	38	1
81	89	1
61	83	1
70	77	1
62	63	4
51	59	1
40	43	6
55	99	2
23	24	3
36	92	1
26	27	3
94	100	2
78	79	1
25	94	1
24	26	1
91	101	2
71	72	1
45	52	1
47	61	3
47	49	2
29	30	3
28	28	6
23	23	2
44	63	1
61	92	1
32	44	1
83	91	3
80	88	1
54	94	1
48	83	1
50	51	1
20	20	2
56	59	2
53	93	2
73	74	2
23	25	1
29	44	1
51	89	2
45	46	1
83	102	1
26	82	1
44	56	3
69	75	2
72	75	2
93	99	3
24	27	1
55	92	2
57	58	1
70	102	1
64	66	3
66	68	2
90	99	2
92	97	3
48	49	2
31	32	4
68	78	1
43	69	2
50	57	1
44	90	1
45	91	1
32	34	2
31	38	2
58	69	2
33	79	1
52	55	1
69	71	1
40	42	2
91	99	1
57	69	1
30	93	1
62	71	1
60	84	1
87	101	1
95	98	1
91	95	1
32	32	1
52	73	2
46	61	1
61	95	2
48	71	1
89	97	1
88	89	2
82	93	1
49	86	1
73	77	1
94	97	1
70	74	1
