120	120	11
63	63	3
158	158	14
98	98	5
42	42	17
193	193	7
144	145	4
43	45	2
145	145	17
16	16	8
134	134	7
172	172	36
196	196	20
119	119	9
23	24	8
81	81	4
124	124	21
190	191	7
153	153	6
35	35	20
181	181	21
148	149	6
149	187	2
104	104	18
191	193	1
197	197	31
114	115	7
143	144	6
163	163	17
60	64	3
129	129	24
132	133	10
4	4	12
54	55	4
149	149	19
139	140	8
16	32	1
101	101	11
42	45	7
147	148	3
56	57	4
7	8	5
176	178	5
40	73	3
161	163	2
189	189	17
177	177	26
5	21	2
113	113	12
52	52	14
41	58	3
112	126	3
2	4	5
164	165	1
195	195	14
164	164	7
116	117	6
2	2	18
67	79	8
150	154	1
114	146	3
169	169	26
31	31	5
30	30	13
122	124	2
190	190	19
151	151	18
99	100	5
56	56	19
107	107	10
102	102	13
192	192	10
17	17	6
105	105	16
25	25	11
84	84	10
70	70	4
28	28	11
66	66	8
176	176	12
129	134	3
9	9	7
170	170	14
186	186	13
26	26	11
99	102	6
192	193	8
137	137	6
161	166	3
93	93	9
45	45	14
59	61	5
62	62	5
158	159	7
111	111	10
180	181	3
52	53	2
145	189	1
152	152	12
36	36	7
118	146	1
57	57	12
79	79	9
50	50	23
145	146	3
15	15	16
106	106	14
23	23	24
95	95	6
179	180	13
140	141	3
10	10	14
157	158	9
8	8	14
134	135	4
7	60	2
140	140	7
186	193	1
22	27	6
11	12	10
167	168	3
16	43	4
150	150	6
43	44	4
123	123	9
51	51	6
34	34	13
32	43	1
168	169	7
161	161	17
74	74	8
53	105	4
27	27	14
7	67	2
6	6	6
154	155	15
94	95	6
173	174	7
107	146	1
110	110	13
13	13	21
164	168	3
93	95	2
139	139	11
180	180	12
155	156	6
159	162	1
178	179	2
166	167	12
106	109	4
20	28	4
178	180	3
160	183	5
26	27	4
77	77	2
117	118	4
134	158	4
76	110	3
32	32	7
194	194	20
172	195	5
185	185	19
160	160	22
2	3	3
43	43	6
128	128	10
164	180	1
136	136	11
109	110	6
58	58	16
148	148	12
135	135	3
186	190	8
53	55	2
171	171	24
93	96	6
48	48	11
67	68	4
21	38	2
1	2	1
191	191	23
99	99	14
1	18	3
75	75	7
39	40	11
83	83	7
101	171	2
127	127	5
173	175	5
143	143	4
28	29	9
161	162	3
101	106	1
4	5	4
151	153	2
49	49	16
166	166	18
163	164	6
65	65	5
171	172	6
29	66	2
71	71	12
55	55	15
22	67	3
117	117	12
175	175	4
132	132	10
155	155	16
135	136	6
173	192	6
24	24	5
38	38	14
134	142	1
154	154	14
10	57	2
185	186	4
102	104	4
19	20	3
178	178	6
165	165	13
162	163	3
11	11	17
110	172	2
147	147	11
78	79	3
108	108	12
40	41	4
138	138	19
109	109	3
7	7	9
37	39	2
113	115	2
189	190	3
151	152	4
170	171	6
7	59	6
126	129	3
19	39	2
5	8	2
169	193	2
159	160	3
16	18	3
114	114	11
21	21	11
68	69	3
172	173	4
183	183	16
20	20	5
112	112	14
100	184	4
49	50	5
53	56	1
33	33	8
169	170	3
54	54	10
16	57	2
101	103	3
190	192	3
170	186	2
164	184	3
162	167	3
19	19	7
174	176	6
179	179	15
69	69	7
126	130	1
184	184	8
44	44	8
156	158	2
76	76	2
13	47	4
6	9	1
99	116	1
186	187	6
120	121	2
10	195	1
24	25	9
96	96	8
191	192	2
167	167	6
130	130	8
59	60	1
133	142	4
83	84	3
137	140	2
125	129	7
133	133	13
152	183	1
187	188	18
156	156	18
55	56	2
72	72	5
64	64	12
188	188	13
22	22	12
5	69	1
3	3	8
163	166	1
25	79	3
4	69	3
53	53	15
156	157	5
47	47	18
13	14	5
172	180	3
173	173	5
17	18	2
145	169	2
182	183	3
79	80	6
15	45	7
118	118	5
14	14	11
160	161	2
34	35	4
168	168	12
184	186	1
93	118	2
97	98	6
16	39	5
175	179	1
106	107	1
12	13	1
121	122	4
36	38	2
95	96	4
97	106	2
87	87	3
103	103	6
39	39	9
133	134	4
100	100	4
32	33	1
170	175	2
82	83	5
137	144	1
94	94	3
146	147	10
12	12	5
0	0	3
125	125	9
119	121	1
158	160	2
129	132	4
100	107	5
96	98	2
35	66	2
129	130	2
23	42	4
37	38	4
12	195	1
122	164	1
78	78	7
29	30	4
37	37	5
122	123	5
29	37	4
115	115	5
112	124	1
73	74	3
101	156	2
133	137	1
73	73	1
10	38	2
96	97	5
75	76	3
10	11	4
121	121	5
156	189	3
163	184	3
194	195	1
64	67	2
14	15	4
41	83	1
123	141	2
5	6	3
159	159	15
144	144	3
154	178	1
188	189	7
185	195	5
5	25	1
85	86	5
41	41	11
16	17	1
70	71	3
123	171	1
58	59	1
20	21	2
60	61	1
139	141	1
48	49	4
174	174	8
135	137	2
77	78	2
123	124	2
22	33	5
33	41	1
15	32	1
29	31	4
124	125	6
46	46	7
97	97	2
10	15	2
180	187	2
187	187	13
153	178	2
184	188	6
173	181	2
113	114	2
142	143	2
122	122	9
117	175	1
74	102	2
88	88	4
93	94	1
27	28	2
156	160	2
172	182	1
142	142	5
174	195	1
132	150	3
131	131	6
18	19	7
143	146	4
33	34	4
118	144	5
40	40	5
135	140	3
173	193	1
89	89	3
170	182	2
179	184	7
3	8	1
138	190	1
106	160	5
126	126	6
109	161	4
5	7	3
116	153	2
35	39	3
185	189	2
38	59	2
22	23	5
86	86	3
38	62	1
29	29	6
134	145	1
164	166	3
99	114	2
75	95	3
141	141	12
80	80	2
182	182	9
68	68	3
72	73	1
19	21	1
28	73	3
146	146	9
62	63	3
193	194	2
161	164	1
145	157	2
18	18	3
190	193	2
27	74	1
156	181	3
181	186	2
126	196	2
1	1	2
155	179	2
39	66	2
128	129	4
8	62	3
8	60	3
142	149	3
147	150	5
153	155	3
12	14	2
41	42	1
153	158	1
40	59	2
41	59	1
52	54	1
49	52	1
6	18	2
5	5	7
170	176	2
132	135	1
59	76	2
75	84	5
124	140	1
157	157	7
172	174	3
134	137	3
40	58	1
117	143	1
63	67	3
149	195	1
180	182	1
108	109	2
103	145	1
88	89	1
144	149	1
120	166	1
152	154	3
109	111	1
59	59	8
28	41	1
105	106	4
4	17	2
124	147	2
154	177	2
151	154	1
31	32	7
161	168	2
21	23	1
16	50	3
37	44	2
52	93	1
82	85	1
131	140	2
113	140	3
121	139	1
106	111	2
159	177	1
21	24	3
151	160	1
99	133	1
183	184	2
162	162	2
101	155	1
159	166	3
6	7	1
42	58	1
27	30	1
145	148	2
159	172	2
138	139	4
7	61	2
172	194	1
10	50	1
131	135	1
61	76	1
50	51	3
195	196	2
18	20	1
49	151	2
81	83	3
146	173	1
2	5	2
147	151	1
37	67	1
175	178	1
74	77	1
112	113	2
109	145	2
126	127	1
127	128	1
118	133	2
161	192	2
118	119	2
25	41	1
136	177	1
112	164	1
9	10	2
5	23	1
155	180	2
54	56	1
113	155	1
134	136	1
153	154	2
115	116	1
38	39	1
45	46	2
8	61	3
60	60	1
165	168	2
123	165	2
115	117	1
160	167	1
173	190	1
4	63	1
53	167	2
177	178	2
4	36	1
21	22	2
27	65	1
70	72	1
0	3	1
136	140	1
114	185	1
117	127	1
159	189	1
171	189	2
129	146	1
165	177	1
163	170	1
64	66	1
58	60	2
85	85	1
20	24	1
89	90	7
52	56	1
47	48	1
46	47	2
79	87	1
0	46	1
119	147	1
168	171	1
173	178	1
125	126	2
128	140	1
59	64	1
39	41	2
123	173	2
182	184	2
59	62	1
101	102	1
196	197	1
9	44	1
119	120	1
151	164	1
146	182	1
100	130	1
106	150	1
103	104	1
141	157	2
132	137	1
15	16	1
27	73	1
180	184	1
53	54	1
165	166	1
51	52	1
176	183	1
43	66	1
99	127	1
82	82	1
82	87	1
165	187	1
