112	112	9
59	60	4
68	69	9
52	52	5
47	47	6
82	85	6
66	67	2
103	103	15
30	31	4
76	87	2
53	53	5
99	99	7
108	108	10
111	111	5
105	105	9
23	23	5
46	46	6
95	96	1
25	25	3
62	66	1
34	34	8
40	40	11
54	54	6
72	72	11
61	61	9
80	108	2
48	49	2
32	33	6
29	40	2
79	79	11
80	80	12
70	71	4
59	59	7
32	32	3
74	74	3
28	28	1
31	31	13
50	50	10
75	75	9
70	70	7
69	69	7
61	62	6
100	100	5
48	48	8
86	90	4
96	96	6
90	90	12
26	40	4
96	103	2
107	107	3
58	58	5
90	91	6
63	65	6
98	98	5
64	65	2
92	92	2
83	106	2
63	64	4
105	106	1
64	66	2
34	35	4
76	76	10
53	55	1
102	102	6
21	25	2
36	37	3
79	86	1
42	42	7
45	47	3
95	95	8
63	67	7
71	71	2
103	107	2
95	106	5
82	83	1
72	111	5
111	112	1
85	85	5
73	74	1
74	77	1
68	71	2
104	104	7
31	41	2
56	56	3
106	107	1
112	113	2
89	89	2
31	32	6
35	39	4
81	81	11
41	42	4
52	53	3
53	54	2
49	50	1
61	78	7
84	87	3
29	29	2
86	98	3
55	57	1
46	48	2
87	87	6
45	45	5
69	71	3
40	41	3
102	103	4
42	45	1
71	72	3
82	84	3
33	33	4
109	109	3
110	110	12
64	78	2
40	44	9
28	29	1
71	75	4
113	114	5
97	97	4
35	35	4
29	34	1
57	61	4
83	83	1
21	21	2
66	66	1
46	47	3
74	76	4
59	61	5
27	27	6
101	101	5
109	110	7
65	66	5
56	57	4
24	24	5
65	70	3
75	76	2
85	90	1
64	64	3
20	20	2
26	26	4
69	70	4
90	94	3
92	94	3
72	73	3
54	56	4
63	63	5
86	89	1
95	97	2
71	87	2
114	114	4
109	111	1
87	90	1
53	56	2
57	57	6
48	50	1
67	67	7
62	62	10
108	111	2
73	73	3
87	93	2
35	38	1
88	91	4
34	63	1
73	77	3
67	68	1
38	38	3
38	73	3
83	109	1
83	84	3
75	89	2
62	70	4
77	78	2
32	34	1
28	34	6
87	89	3
60	60	6
81	82	2
61	63	1
84	106	2
26	29	1
77	77	3
46	49	2
85	86	1
49	49	2
106	106	1
84	84	5
29	37	2
29	41	1
88	88	3
41	41	2
113	113	5
66	73	2
64	91	1
61	65	6
88	89	4
51	51	1
89	91	1
39	40	2
68	70	2
88	90	1
101	102	2
26	36	2
77	111	1
94	94	1
34	36	1
45	46	1
43	43	2
55	55	1
104	108	2
36	36	3
54	55	1
110	111	1
53	57	2
68	68	1
19	20	1
62	63	1
63	77	1
93	94	1
39	39	1
47	48	1
100	101	3
96	97	1
79	80	2
27	29	1
65	87	2
96	106	1
65	65	1
38	39	1
33	34	2
23	25	1
103	104	2
97	98	1
65	69	1
83	85	1
96	98	1
