44	45	10
41	75	1
66	66	23
5	6	7
1	64	1
31	31	9
93	93	13
112	113	6
73	73	18
86	86	15
32	32	17
27	60	4
28	28	7
116	133	2
30	30	16
105	106	1
8	113	2
13	19	3
115	128	1
124	125	5
40	57	2
93	95	2
11	11	14
85	92	9
9	9	22
62	63	6
46	47	6
47	47	32
14	14	16
12	32	2
116	116	12
62	62	25
62	82	2
31	74	4
62	78	7
17	18	9
15	59	2
56	56	5
22	76	4
18	18	13
128	128	17
118	118	16
5	5	14
29	29	25
78	78	27
13	14	10
23	26	4
45	46	4
33	33	19
68	69	15
15	44	1
122	122	14
4	5	11
74	74	17
13	92	3
68	71	1
25	25	34
5	101	3
90	90	19
70	70	10
131	134	2
7	36	3
82	83	3
134	134	8
124	124	14
21	47	1
103	124	3
38	38	17
82	82	12
126	128	2
120	120	5
45	82	1
62	64	1
65	65	22
26	27	17
27	35	5
57	58	5
23	23	5
34	34	16
21	56	6
123	124	4
130	130	13
4	7	8
3	3	14
84	134	1
105	105	11
68	68	18
114	115	4
80	80	20
6	6	13
123	123	7
99	100	9
58	83	1
0	0	8
71	71	5
32	33	4
34	75	1
92	93	9
25	81	7
47	91	3
57	70	2
103	107	3
8	42	2
75	95	3
8	8	19
60	61	4
82	85	3
73	75	1
26	26	19
4	4	23
82	92	3
24	83	2
91	92	1
125	126	2
33	36	3
81	81	19
57	57	18
91	91	7
129	130	4
35	47	2
31	47	3
4	6	5
46	46	22
106	128	7
102	102	17
10	65	3
86	102	1
41	41	6
21	21	12
34	43	1
45	45	26
95	95	11
36	36	10
31	32	8
114	114	8
101	101	17
104	104	10
7	121	3
28	78	5
17	25	2
90	91	9
19	19	11
19	20	15
108	132	2
31	36	1
27	28	9
41	43	5
9	45	2
35	45	2
27	27	11
12	46	2
22	26	3
113	113	5
36	43	4
22	22	11
30	32	9
11	20	4
75	75	10
96	100	3
7	7	17
19	36	1
85	85	12
12	43	1
126	131	2
2	2	7
106	107	4
86	87	3
60	60	11
15	31	11
87	87	8
12	12	16
108	108	7
62	88	1
119	121	4
70	71	9
112	112	7
39	39	8
109	109	7
34	125	2
94	94	17
43	43	10
96	97	5
40	45	3
72	72	28
116	120	2
106	127	1
61	65	1
79	80	2
97	97	12
69	69	5
101	122	1
87	104	2
48	48	15
26	41	1
22	31	2
55	56	5
133	133	9
64	64	30
72	73	5
35	35	15
108	125	1
58	84	3
26	93	9
94	95	3
132	133	4
92	92	22
29	48	1
57	97	2
79	79	16
56	93	5
86	93	1
48	49	6
35	72	2
42	122	3
41	62	3
59	59	24
81	103	3
93	96	6
25	82	1
115	133	1
3	4	3
61	61	11
88	89	5
13	18	1
67	67	14
85	86	5
11	25	2
39	40	6
16	45	2
97	98	4
38	41	6
41	42	3
77	77	4
1	99	3
12	13	2
44	44	8
131	132	4
50	81	3
10	77	1
7	11	2
100	100	10
131	131	5
61	80	3
12	58	1
66	82	3
88	91	2
126	126	11
32	60	5
94	97	2
98	100	3
11	12	5
13	13	16
36	44	1
37	58	3
111	111	2
47	61	4
117	119	3
130	131	4
1	2	4
18	32	5
25	26	8
127	128	1
34	76	3
11	119	2
20	20	8
96	96	15
51	51	3
57	76	4
80	81	5
87	92	6
97	123	1
98	112	1
82	84	4
10	10	6
20	29	3
104	105	3
103	123	4
103	104	5
94	112	4
57	59	6
88	88	17
45	59	1
63	63	6
57	61	5
117	117	8
65	67	2
27	30	4
48	55	1
83	85	3
77	78	3
133	134	6
128	129	5
2	3	1
84	84	10
21	22	7
10	45	4
110	111	2
33	129	9
27	96	4
28	46	4
86	88	2
69	70	2
76	76	8
117	132	1
98	98	16
7	48	5
113	116	1
125	125	6
83	83	13
55	55	3
89	91	3
37	37	12
14	20	2
72	77	4
46	71	3
16	34	2
73	74	4
17	19	1
45	89	1
115	121	2
24	25	6
16	33	2
85	88	1
109	133	1
46	48	4
13	100	2
12	24	1
127	132	1
109	134	1
121	121	3
12	47	4
36	56	4
17	30	1
58	82	5
8	10	2
4	101	2
124	126	1
95	96	1
81	82	6
112	114	1
62	74	2
79	81	6
78	79	8
58	60	6
42	43	4
13	24	2
7	43	1
35	36	3
58	58	7
75	96	3
5	80	2
111	116	1
43	59	2
15	40	2
119	119	4
29	79	2
25	83	2
24	24	2
0	1	4
32	44	5
110	110	6
16	16	11
15	38	2
115	115	8
18	19	6
100	101	2
107	126	7
32	74	3
15	32	2
42	42	7
62	75	1
26	50	2
97	105	2
113	118	3
51	56	3
127	131	1
29	38	3
65	83	5
110	123	2
45	75	2
96	98	1
55	87	1
101	121	1
29	78	1
55	93	3
15	15	6
77	80	1
17	34	3
59	60	4
108	109	3
3	7	3
55	59	2
82	90	3
4	8	3
89	134	2
121	122	1
17	17	5
85	93	1
47	48	6
89	109	2
107	107	10
98	99	3
3	47	1
84	85	5
5	43	2
9	113	1
11	93	1
31	43	4
7	25	1
37	56	3
15	60	1
93	94	3
101	102	2
111	119	2
78	93	1
11	56	4
23	74	5
64	96	2
11	18	1
10	11	4
22	24	2
26	29	4
40	42	2
74	77	1
7	65	3
20	26	1
35	118	5
87	88	3
19	72	2
49	49	7
81	83	3
22	30	1
28	82	2
65	66	4
7	12	1
38	40	7
63	92	1
60	77	1
9	10	1
92	95	4
40	40	2
113	132	3
87	89	3
29	45	2
100	113	2
59	89	1
9	13	1
58	94	2
29	62	3
93	99	2
9	73	3
38	39	1
99	101	3
39	62	1
33	35	1
1	65	2
41	59	1
70	97	1
76	90	1
60	86	2
26	65	3
27	36	1
12	61	1
62	93	3
2	46	2
61	75	4
7	89	5
36	47	1
68	117	1
99	99	5
66	111	1
120	122	1
125	132	1
6	66	3
128	130	1
85	89	1
125	133	2
78	80	3
121	131	1
81	92	4
127	127	4
4	21	1
86	125	3
54	94	1
16	46	1
101	109	1
91	93	1
111	112	2
107	114	1
77	123	1
103	103	3
117	129	3
48	50	2
33	45	1
38	81	1
48	58	2
24	26	1
15	20	1
45	84	3
16	62	1
15	30	1
67	74	1
40	41	1
7	8	4
6	101	1
112	118	1
43	44	3
95	97	2
15	29	1
3	71	1
66	67	1
110	120	1
10	100	1
116	131	2
81	85	1
63	104	2
120	131	5
22	25	1
7	66	1
85	97	4
6	84	1
25	60	2
67	68	5
54	54	1
15	16	2
42	78	1
24	82	1
107	116	1
25	27	2
60	91	2
82	93	2
84	99	2
110	125	1
25	41	2
95	115	2
88	108	1
8	31	1
4	80	1
95	99	2
132	132	3
26	83	3
38	55	1
123	132	1
63	66	2
13	36	2
59	84	1
37	38	1
8	44	1
56	57	2
27	91	1
26	48	1
16	23	2
83	90	1
96	108	1
100	115	1
30	48	2
2	64	1
28	55	2
105	119	1
25	75	1
78	96	1
29	101	1
94	100	2
8	22	2
106	106	2
7	93	1
81	134	2
5	95	1
54	55	2
113	133	2
49	55	1
7	46	1
93	98	2
96	99	1
44	66	2
36	39	1
83	84	3
7	38	2
38	113	1
91	110	1
38	51	3
65	90	1
9	44	1
57	60	1
47	111	1
68	75	1
14	46	1
61	62	1
57	62	1
23	24	1
20	28	2
129	129	3
28	45	1
112	115	1
28	29	1
38	56	2
15	82	2
113	114	1
59	93	1
20	23	1
8	122	1
120	121	2
18	33	1
28	66	1
91	95	1
42	57	1
29	30	1
24	74	1
42	98	1
89	90	1
117	127	1
26	31	3
120	133	1
47	77	1
1	1	1
118	123	1
39	45	1
36	58	1
12	62	1
60	93	1
62	65	1
61	79	1
92	96	1
