138	139	9
62	62	16
160	160	11
49	49	5
109	109	4
134	136	2
54	54	16
140	167	2
77	80	6
19	22	2
129	129	12
99	100	1
16	24	2
146	147	7
9	9	17
148	148	13
44	44	10
26	27	7
92	92	7
121	121	2
2	2	13
98	116	5
36	36	20
18	18	9
142	143	3
20	20	10
74	74	15
35	35	19
28	28	6
93	93	2
84	84	6
111	111	8
94	94	10
114	115	3
36	37	1
16	17	2
152	152	2
22	23	3
86	86	16
80	82	6
117	117	10
86	87	7
5	6	4
149	149	19
43	44	6
93	97	5
165	165	6
5	5	15
39	40	2
3	4	9
17	47	3
99	99	17
80	81	4
168	168	11
1	2	10
147	148	4
124	127	4
142	144	5
76	78	6
107	107	26
3	3	11
13	14	5
41	41	19
104	104	9
72	73	11
48	49	1
17	45	4
56	56	12
64	72	3
62	63	9
103	104	7
76	77	4
101	102	4
11	11	11
161	161	8
96	96	3
17	49	5
155	155	7
16	16	10
37	37	14
75	76	2
76	76	7
6	8	6
10	11	2
1	3	3
105	131	2
20	22	10
71	89	3
163	163	4
38	38	12
104	120	5
113	114	13
120	120	14
100	100	6
48	48	19
164	165	2
151	151	10
118	119	1
46	46	24
51	51	5
77	78	6
101	104	3
146	146	10
48	73	3
71	71	21
19	23	2
108	108	8
56	64	3
139	139	7
119	121	3
25	25	11
24	24	11
81	83	5
93	94	5
52	52	11
83	83	10
103	103	10
141	141	6
0	2	4
92	93	4
129	131	2
45	67	3
152	154	4
63	63	10
106	107	12
75	75	5
40	41	2
151	152	1
100	105	6
78	78	9
93	165	2
26	26	13
137	139	2
132	151	1
34	34	14
56	58	2
14	14	24
55	55	14
122	122	8
114	155	6
37	38	3
97	118	2
95	111	1
76	87	1
169	169	12
38	43	1
73	89	2
92	165	1
167	168	5
119	119	9
128	128	9
47	47	12
21	21	11
15	15	9
69	69	6
77	77	8
96	97	3
116	117	1
131	131	13
153	154	5
82	82	12
112	112	8
33	33	3
27	27	11
44	85	2
85	85	9
167	167	9
13	13	7
133	133	6
84	86	5
15	16	5
22	43	3
120	121	1
107	108	3
154	156	3
138	138	4
18	22	3
95	95	8
82	83	3
6	6	5
111	136	8
90	90	9
137	137	4
45	50	4
106	106	7
71	84	2
7	7	13
58	58	3
148	149	6
128	129	3
74	76	8
8	8	8
51	52	3
72	72	3
53	53	13
94	95	6
123	150	4
44	50	5
163	164	4
23	23	5
117	157	2
79	79	8
73	73	8
97	98	2
130	130	9
91	92	10
45	46	4
129	130	3
21	23	5
47	48	1
140	141	1
117	118	6
10	10	12
140	140	11
43	43	10
17	18	8
22	22	15
158	158	5
89	90	8
80	80	11
77	84	3
119	161	4
89	89	8
150	150	8
108	109	6
134	134	8
161	162	4
105	106	4
58	62	3
40	40	6
87	87	7
142	142	3
105	105	14
19	19	10
37	44	3
94	97	1
57	58	2
35	36	3
101	101	5
148	162	1
64	64	7
102	102	5
97	99	4
144	160	2
77	83	3
156	156	6
122	160	2
110	110	12
166	169	1
11	21	4
20	21	3
78	85	3
105	132	2
124	129	3
122	154	1
111	157	2
17	17	8
70	70	10
44	45	6
91	96	2
116	116	13
12	13	3
74	75	8
1	1	9
18	19	2
144	145	4
93	96	6
144	144	3
91	93	7
122	150	4
143	143	5
33	34	6
170	170	6
113	113	4
114	156	1
157	157	4
42	42	13
12	12	7
15	18	2
145	147	1
15	17	3
168	169	2
54	71	2
166	166	5
147	147	6
2	4	4
122	130	1
165	166	5
9	10	5
91	91	9
102	105	1
126	143	1
109	112	1
85	88	1
159	159	8
144	148	2
114	114	11
45	85	2
134	135	5
121	126	3
7	142	2
39	39	5
27	28	5
142	148	3
52	53	7
47	49	2
23	24	3
115	116	2
65	65	5
7	8	7
20	23	3
55	62	3
6	138	1
153	161	3
125	125	11
132	132	2
90	91	6
50	73	1
158	159	3
19	20	1
150	151	4
112	113	3
73	116	2
55	56	5
124	124	4
0	0	11
136	136	7
98	99	1
87	89	2
79	86	1
108	113	2
25	47	3
133	134	5
54	55	4
153	153	2
6	10	3
66	66	2
98	98	6
137	138	3
25	26	2
140	151	2
45	45	8
126	127	2
7	138	3
2	3	4
167	170	1
63	69	1
136	149	2
111	112	3
164	164	2
11	12	3
21	41	2
98	101	4
88	89	5
4	4	5
154	155	3
24	25	3
56	57	5
115	115	4
111	156	1
123	151	1
109	110	4
164	167	2
90	92	2
96	98	2
88	88	3
118	118	4
70	84	2
34	35	7
47	79	2
167	169	3
106	108	1
168	170	1
11	13	1
20	26	1
162	162	1
135	135	1
102	103	3
81	82	2
165	167	3
68	68	4
113	166	1
105	107	1
106	132	2
50	50	2
27	49	1
75	77	2
37	43	3
80	83	3
86	99	1
127	127	8
65	66	4
112	114	3
110	111	5
91	95	5
123	123	8
156	158	1
158	170	3
97	97	2
16	18	1
87	88	6
4	45	1
145	145	7
8	9	2
67	68	1
155	157	2
49	50	2
120	122	3
144	149	2
165	169	1
96	99	2
38	44	4
26	42	1
20	24	2
125	126	2
166	168	2
21	47	1
50	51	1
99	116	1
108	135	1
130	131	1
95	97	1
6	7	1
149	160	2
99	102	1
19	39	1
62	69	1
84	90	1
20	48	1
39	41	5
130	160	1
81	81	1
11	142	1
14	18	1
156	157	4
166	167	1
80	84	1
93	95	2
84	169	1
126	126	3
0	1	1
20	25	1
14	15	4
71	72	1
123	124	2
169	170	1
92	94	1
157	159	1
149	150	3
139	151	1
101	103	1
102	115	1
64	70	1
35	37	3
157	158	1
57	57	1
106	131	1
26	147	1
47	78	1
132	133	1
42	43	1
10	142	1
88	90	2
111	122	1
97	114	1
53	54	1
89	96	1
