127	127	38
113	113	20
105	106	11
116	116	23
126	127	3
77	77	7
83	84	9
126	126	15
97	97	18
33	34	11
106	106	11
34	34	23
18	19	11
71	75	9
101	101	16
33	33	17
19	21	5
13	14	5
130	130	31
22	123	7
71	71	4
115	115	11
81	82	3
5	127	1
81	81	10
80	80	5
140	140	18
131	131	40
82	82	17
91	91	2
123	130	1
83	83	9
139	139	16
11	12	1
77	100	1
98	98	5
2	2	7
125	125	6
78	78	8
134	134	31
89	89	23
0	24	3
21	21	19
134	140	4
28	28	15
36	36	12
97	98	1
23	23	8
87	87	20
3	33	3
91	92	5
121	121	13
109	110	3
6	28	2
134	137	1
0	0	16
111	137	2
5	25	2
73	73	17
119	120	1
26	26	21
17	17	15
128	128	29
104	104	17
30	30	14
25	25	7
130	131	4
74	74	11
15	15	5
94	94	9
37	37	6
8	11	5
128	134	11
11	22	1
111	112	5
79	80	9
101	103	5
94	96	2
120	120	13
136	136	14
125	127	1
124	124	21
93	94	8
138	138	14
16	17	6
27	27	9
79	95	1
12	13	1
20	21	1
16	16	23
78	99	2
132	132	15
75	112	1
137	138	6
6	6	14
75	75	15
110	111	4
99	99	2
76	76	19
22	23	12
109	109	8
74	95	2
122	122	17
80	101	1
81	85	4
95	96	2
129	129	19
111	117	2
94	95	2
18	18	17
135	135	11
88	89	1
6	19	4
4	4	10
80	100	3
105	105	5
0	1	7
100	100	4
3	5	2
127	128	6
31	31	6
113	115	2
101	121	1
129	130	9
27	28	7
116	117	2
136	137	3
27	31	4
129	137	3
4	30	1
135	136	6
74	76	5
22	24	1
131	132	8
92	94	2
3	4	9
22	22	5
72	73	11
132	133	6
31	37	3
8	8	8
27	32	3
7	7	6
1	1	6
114	125	5
5	5	12
71	72	3
1	2	4
128	129	1
96	96	13
133	133	25
90	90	10
36	37	6
106	107	12
122	126	2
119	122	4
138	139	9
130	133	6
12	17	1
119	119	9
86	86	3
90	95	5
133	136	2
2	3	4
3	3	3
98	100	3
137	139	4
21	22	6
118	118	13
129	138	5
37	38	3
34	35	10
95	108	4
13	13	5
2	24	3
87	90	3
100	101	5
20	20	4
130	137	2
114	117	3
72	72	6
101	102	3
36	92	3
73	74	3
117	120	3
88	88	6
119	121	3
10	19	2
35	35	16
102	102	6
21	27	2
83	85	2
103	107	3
112	137	2
123	123	14
92	93	3
7	8	3
25	26	4
89	130	1
87	91	5
81	87	2
99	100	1
111	111	7
117	119	2
110	110	5
112	112	17
103	103	4
137	137	5
22	124	2
28	29	2
24	26	2
108	109	3
114	114	19
23	26	2
102	103	5
26	42	2
97	129	2
76	108	1
128	135	1
5	21	1
85	85	4
10	24	4
24	24	8
121	123	1
84	84	5
140	141	2
32	32	7
85	91	1
31	32	3
119	124	1
139	140	2
78	91	4
17	18	5
9	20	2
117	117	11
104	115	1
0	2	2
79	79	8
86	88	3
19	19	12
29	29	7
78	81	4
14	14	7
10	22	2
105	115	1
77	79	3
80	103	1
121	122	2
133	134	6
13	17	2
9	9	3
108	108	1
27	29	1
68	68	1
112	113	2
7	11	1
86	105	1
89	99	2
86	120	3
117	118	2
96	97	6
78	100	4
111	124	1
4	6	3
134	135	1
11	11	6
107	107	4
9	11	2
114	123	3
33	135	1
90	97	2
76	91	1
117	124	1
75	76	2
112	132	2
100	114	3
125	126	4
123	124	1
95	124	4
120	122	5
28	31	2
74	75	3
5	26	1
108	113	2
104	105	2
93	93	5
115	117	2
111	125	2
36	123	3
30	31	4
10	23	1
28	30	2
84	85	1
74	107	1
79	87	1
95	95	6
4	5	3
84	99	1
4	33	3
14	21	1
6	9	2
130	132	2
90	125	1
104	106	1
82	93	1
14	115	2
12	12	1
78	86	3
28	33	1
115	116	1
93	100	1
75	104	1
78	79	1
11	23	1
117	121	1
86	100	2
89	90	2
80	98	1
10	11	4
29	30	1
124	125	1
75	77	4
130	139	2
0	22	2
86	89	1
101	126	1
110	118	1
87	88	1
7	25	1
23	122	1
122	123	1
2	4	1
10	12	1
0	26	1
115	123	2
7	13	1
76	106	1
124	134	1
22	26	1
2	102	1
6	26	1
138	140	2
35	129	2
76	135	2
118	119	1
118	123	1
120	121	2
77	78	1
131	139	4
16	34	1
131	140	1
90	91	2
19	20	1
14	15	1
8	9	1
124	126	1
104	107	1
22	122	1
5	128	1
127	129	1
9	10	1
117	122	1
105	107	1
97	139	1
17	21	1
38	38	2
81	86	2
76	77	2
100	124	1
72	96	1
124	133	1
32	33	1
111	128	1
31	43	1
83	86	1
8	10	1
82	87	1
