115	116	1
82	82	5
86	86	8
75	75	5
16	17	4
3	3	7
30	30	7
131	131	13
80	122	3
133	133	10
53	53	11
18	18	11
69	77	4
21	21	4
13	13	17
16	16	14
70	70	17
112	112	8
57	57	22
123	123	11
93	93	9
78	79	3
1	1	3
110	110	11
68	75	1
106	106	8
69	70	1
21	22	5
56	56	26
29	29	6
118	118	7
22	22	2
11	11	2
96	113	5
19	19	14
125	125	9
48	48	3
68	68	14
111	111	6
41	41	3
86	87	5
80	80	10
89	90	2
47	47	25
27	28	5
107	107	10
17	17	3
113	113	10
11	12	5
121	122	4
90	128	4
89	89	6
84	85	3
112	115	2
59	59	10
74	75	2
81	81	5
15	15	5
109	109	10
78	78	4
12	12	16
91	93	2
84	94	3
66	66	8
55	55	12
12	13	1
44	44	7
5	5	10
42	42	10
27	27	11
49	49	6
82	86	2
59	60	5
52	52	16
24	33	3
19	26	1
83	86	3
6	6	10
8	11	1
29	30	2
80	102	3
64	69	2
60	60	3
43	43	3
116	116	6
73	74	1
59	108	5
82	98	1
67	67	3
43	44	8
120	121	3
97	100	2
67	95	3
50	50	14
27	31	2
19	20	6
76	76	9
115	130	3
95	100	3
13	14	3
8	8	5
46	46	4
113	115	1
84	84	8
20	20	16
46	110	4
104	104	8
93	119	2
132	132	3
126	127	1
95	105	4
89	102	1
23	24	1
61	61	6
90	98	4
51	51	4
96	96	4
17	18	1
109	111	5
83	87	2
46	52	5
84	99	1
33	33	4
52	53	5
39	40	1
71	73	1
4	4	5
102	103	3
2	2	6
39	44	1
45	45	5
1	4	5
131	132	8
63	63	5
26	32	2
88	88	4
46	48	3
79	102	1
6	14	1
0	1	3
26	26	5
58	58	3
69	69	9
62	62	4
115	115	4
39	39	6
56	57	3
7	7	4
114	114	2
93	94	1
65	66	3
41	43	1
20	32	3
23	23	5
71	72	2
91	91	3
32	32	7
40	40	9
120	120	5
91	92	1
28	29	4
101	103	5
92	128	2
114	129	2
122	122	4
109	116	1
40	41	2
0	3	5
99	99	4
67	68	3
74	74	3
14	14	1
44	45	2
25	25	4
18	22	4
46	47	4
61	62	3
96	120	2
89	93	2
130	130	7
60	61	2
38	39	3
110	132	1
124	125	4
100	100	5
24	24	2
124	124	5
25	26	2
105	105	4
58	80	1
111	112	3
0	0	5
65	67	4
107	108	1
86	88	1
10	10	5
85	86	1
87	87	4
102	102	1
111	114	1
128	128	5
51	52	4
85	85	1
28	28	3
65	94	1
79	79	4
22	24	1
108	108	2
122	123	8
11	15	3
60	79	1
80	81	1
103	103	2
95	95	4
38	38	4
83	83	2
18	24	1
109	120	1
119	119	8
68	80	1
127	127	3
117	117	1
48	49	2
129	129	2
92	118	1
7	8	1
102	127	1
30	31	5
96	97	3
58	108	1
112	113	2
82	83	1
104	131	1
39	42	2
40	45	1
62	98	1
96	116	5
117	118	3
132	133	1
54	54	2
79	80	2
54	56	2
45	46	1
89	92	1
60	107	1
67	77	1
102	104	1
28	34	1
19	43	1
55	56	1
71	71	1
69	71	1
125	128	1
113	116	3
29	31	1
90	93	1
92	117	1
92	92	1
94	108	2
65	65	1
22	32	2
34	34	1
104	105	2
9	9	2
125	127	2
101	101	1
62	68	1
31	31	2
75	77	1
98	98	1
100	101	1
129	130	1
82	90	1
63	75	1
77	83	1
57	58	1
5	6	1
94	97	1
104	108	2
3	4	1
19	22	1
129	131	2
100	108	1
90	90	1
93	131	1
15	21	1
58	61	1
70	71	1
10	11	1
40	105	1
42	126	1
93	130	1
