54	56	9
130	130	6
181	181	10
191	191	15
144	144	3
186	187	2
54	55	8
8	8	5
147	147	11
30	30	3
109	109	2
34	34	8
168	168	10
154	154	9
143	143	6
177	178	4
133	134	7
93	94	3
39	39	7
3	25	2
96	99	3
176	176	7
182	182	5
134	134	5
169	169	3
147	148	3
31	31	5
114	114	4
176	177	10
173	188	3
13	13	6
170	171	3
73	90	5
173	173	5
58	58	11
110	110	12
112	113	5
165	189	2
107	107	12
32	32	15
158	159	1
55	55	4
196	196	6
14	14	9
28	28	3
55	56	2
46	46	9
25	27	2
189	189	5
33	33	1
18	18	4
166	166	7
53	54	1
127	128	5
15	16	5
172	172	6
193	193	7
23	25	1
16	16	2
49	49	7
137	140	2
149	149	4
48	48	8
151	151	2
106	106	6
16	17	6
31	36	2
8	9	2
111	111	4
101	101	4
73	73	8
9	9	3
186	186	8
20	22	1
44	44	10
121	121	4
136	141	1
55	57	3
34	35	5
152	152	3
163	163	3
192	193	5
27	28	4
111	159	4
114	115	3
173	174	1
5	148	2
133	142	1
113	115	1
102	102	4
185	185	6
32	37	1
145	146	6
36	36	2
19	19	9
134	135	8
64	66	2
7	26	4
126	126	10
101	102	4
10	10	3
171	171	5
193	194	3
135	135	8
119	120	6
156	163	4
50	50	2
21	21	4
1	44	2
99	99	2
28	30	5
25	25	4
113	113	9
24	24	8
128	128	10
168	169	4
85	85	5
47	47	1
161	164	2
45	45	2
73	86	3
100	100	5
146	146	4
51	51	2
118	118	1
1	1	6
62	63	1
156	157	1
133	133	4
68	69	1
158	158	3
142	142	4
164	164	6
122	122	6
141	142	3
148	148	9
151	152	1
42	44	3
3	4	2
72	72	6
24	26	2
150	157	3
187	188	2
32	45	5
150	156	2
46	47	5
43	45	3
40	40	7
4	4	5
56	57	8
177	177	4
96	96	4
98	99	1
38	38	5
175	178	4
84	90	3
32	47	1
82	82	2
114	149	1
48	49	2
146	158	3
129	129	4
11	11	4
194	194	8
168	182	2
132	132	4
79	79	2
175	175	2
176	178	1
157	158	10
9	14	6
138	139	2
24	25	1
171	173	1
81	82	1
186	189	1
86	87	3
191	192	1
108	108	2
104	149	1
123	123	4
155	156	2
37	37	3
156	156	5
137	138	2
178	178	5
153	161	2
164	165	3
131	146	4
26	26	5
59	59	6
79	86	1
127	142	3
188	189	1
10	12	2
132	134	2
171	180	2
98	98	1
122	123	4
161	161	3
63	63	7
189	190	2
171	172	6
12	71	1
119	119	6
124	124	3
70	70	2
188	188	5
54	54	4
33	34	3
150	150	6
87	88	1
190	190	4
180	180	2
4	194	1
138	138	2
121	122	3
167	167	5
183	183	5
197	197	1
155	158	5
128	142	2
182	192	2
104	104	2
23	32	3
179	179	4
69	70	1
134	140	2
41	41	5
23	24	3
152	154	3
15	32	4
11	14	2
182	183	3
128	197	2
195	195	6
184	184	5
42	43	4
69	69	2
155	155	3
64	65	3
164	166	1
141	141	2
51	101	2
170	170	2
147	156	1
50	51	2
36	99	2
105	105	2
13	71	1
110	111	3
15	15	4
0	0	4
163	165	3
159	159	2
192	192	2
88	89	1
156	166	1
169	170	5
136	136	3
147	192	1
157	161	2
112	112	2
5	5	2
38	39	1
42	42	2
177	179	1
171	188	2
145	145	3
195	196	1
183	195	1
150	151	1
114	189	1
162	162	4
65	65	2
194	195	5
9	130	1
105	106	1
137	137	3
187	187	1
20	20	1
71	72	1
67	69	3
169	188	1
103	103	2
89	90	2
23	98	1
7	7	3
116	117	1
32	33	4
160	189	2
35	36	2
125	197	1
22	22	1
123	124	1
187	189	1
5	6	3
139	139	1
148	176	1
28	29	2
169	176	2
140	140	3
168	172	2
29	29	1
53	53	2
15	183	1
17	23	1
160	161	1
97	97	1
43	134	1
53	55	1
99	181	1
23	177	3
74	76	1
99	100	1
70	78	1
6	6	1
86	86	1
161	170	1
179	182	2
57	57	1
31	32	1
148	181	1
183	184	1
116	123	1
179	180	4
4	148	1
62	62	1
128	141	1
2	2	1
44	100	2
154	155	1
3	3	1
125	126	1
185	196	1
12	12	1
56	56	1
115	115	1
190	191	1
172	174	1
30	31	1
16	32	1
81	81	1
71	71	2
120	188	2
86	88	1
190	195	1
0	1	2
13	106	1
117	120	1
78	79	1
27	36	1
4	23	1
152	183	1
