8	8	22
33	33	20
13	14	6
25	26	14
2	15	11
19	19	26
19	20	13
169	177	5
41	43	3
55	56	4
27	28	6
99	117	1
14	14	15
162	162	14
0	39	2
27	27	10
53	53	11
93	93	7
35	35	11
24	26	3
147	147	2
136	136	11
135	135	8
16	17	9
45	45	6
20	41	1
78	78	7
88	89	1
72	74	4
154	154	12
141	144	2
174	175	5
5	15	4
96	97	4
24	24	25
1	3	4
168	174	4
90	91	2
27	30	9
13	13	12
170	171	1
7	7	27
3	3	13
160	160	4
179	180	2
41	41	14
87	156	1
119	120	5
5	8	1
11	13	9
133	133	13
163	164	5
119	121	1
140	140	6
25	28	1
2	13	2
64	100	2
44	45	13
17	17	11
37	37	24
54	57	4
37	40	2
66	85	2
107	107	5
28	28	10
24	25	18
71	73	4
176	176	4
31	32	4
63	90	1
148	148	10
1	1	5
115	115	2
156	177	3
88	88	4
171	171	4
17	21	3
20	20	13
124	124	6
75	153	2
101	143	4
36	36	11
6	6	11
95	95	2
135	136	7
28	31	2
10	10	12
8	13	2
7	11	2
2	2	23
38	38	15
144	144	6
146	155	6
97	144	5
13	42	2
113	151	2
104	105	3
109	112	1
3	4	4
38	40	4
50	50	8
86	121	1
72	72	12
22	23	5
20	21	4
163	163	5
4	4	26
60	60	7
9	10	1
128	153	1
8	25	2
3	13	2
9	9	23
81	118	3
42	42	10
75	75	3
18	18	10
45	46	6
16	29	5
172	172	7
81	81	1
50	51	5
15	15	17
109	109	8
9	15	2
4	5	17
123	124	5
169	169	6
137	138	6
149	171	5
142	142	5
130	130	14
71	130	2
100	102	1
33	35	3
25	25	10
21	21	5
123	123	4
71	74	2
9	20	3
31	31	9
32	33	4
66	66	3
161	161	9
82	82	9
58	58	5
134	154	2
73	73	6
26	39	3
23	23	12
164	164	2
97	97	2
179	179	5
92	93	7
84	85	6
63	63	2
129	134	6
57	58	2
57	57	3
44	44	15
2	7	1
99	101	2
174	176	2
100	100	5
3	17	2
177	177	4
25	55	4
93	94	4
151	163	4
32	43	1
101	101	9
22	22	7
29	29	11
46	46	3
5	38	4
79	79	2
166	166	2
100	108	1
167	168	3
113	115	2
125	125	7
102	164	1
32	32	7
103	103	4
157	158	2
136	139	3
10	14	3
32	34	4
11	49	2
58	81	3
166	167	4
52	52	4
8	15	3
117	118	4
71	71	5
85	86	1
23	24	2
2	3	3
102	112	3
173	173	4
111	111	4
62	62	5
110	113	1
126	128	2
153	154	1
170	170	10
59	83	4
94	94	5
164	166	3
10	11	5
92	92	5
112	115	4
26	28	5
126	151	3
102	102	12
16	18	10
24	27	2
18	30	2
32	57	5
100	101	2
119	131	2
28	30	2
0	0	7
129	131	3
158	158	3
97	121	3
119	119	2
11	11	15
90	92	4
115	128	2
7	8	3
5	7	3
3	15	3
98	99	2
102	104	3
153	153	4
8	9	10
65	114	1
129	129	8
5	5	12
168	168	4
87	98	4
35	37	3
157	178	2
101	106	2
8	26	2
7	9	3
145	145	4
141	141	7
152	166	2
75	76	5
170	177	3
18	33	1
62	63	2
147	148	7
3	32	1
70	117	2
108	109	5
137	137	5
73	133	4
2	5	4
51	53	2
63	64	2
8	35	2
56	59	1
138	138	5
150	150	2
104	104	4
97	130	2
157	157	3
15	16	2
87	100	3
20	27	2
83	83	4
52	53	5
117	117	7
100	132	1
20	23	1
157	174	2
44	46	1
5	6	4
98	106	1
3	6	2
142	145	3
65	143	1
6	39	3
65	67	1
4	6	3
22	30	2
120	122	2
13	15	3
122	137	1
43	44	3
110	114	2
49	107	3
10	41	5
101	102	5
132	133	4
16	21	1
4	9	2
77	97	6
39	39	12
10	13	1
110	110	3
58	61	3
148	150	2
32	176	3
40	40	8
17	35	3
75	140	2
3	5	1
78	79	1
107	111	3
11	12	6
164	179	1
4	109	2
97	129	2
173	174	7
143	143	7
16	16	18
25	40	2
67	67	3
120	120	2
55	55	1
99	102	2
62	73	2
37	42	2
37	38	2
65	65	3
85	85	3
0	1	2
130	160	4
21	31	4
23	27	4
4	12	1
9	11	1
129	130	2
10	168	2
99	99	6
113	116	2
40	41	3
18	28	1
75	157	1
159	159	17
156	164	2
20	44	1
155	155	4
76	76	7
80	80	3
16	23	1
12	13	4
100	107	2
28	29	2
143	166	2
152	155	1
30	30	7
22	42	1
35	41	1
6	7	2
6	11	1
63	98	1
9	25	3
103	104	1
26	26	5
177	179	1
26	27	1
159	176	3
151	151	3
12	12	4
95	125	2
80	83	1
51	51	4
77	79	6
165	165	3
73	74	5
51	52	2
141	145	1
56	57	3
25	27	3
72	73	5
74	97	3
146	165	1
23	59	1
88	90	1
100	119	2
81	165	4
151	152	3
29	86	2
52	106	2
116	131	2
53	54	2
91	94	2
54	62	5
12	61	1
34	58	3
18	20	1
41	44	5
11	21	2
39	40	3
40	43	1
147	179	1
165	166	1
143	180	1
102	113	2
152	152	4
70	128	2
20	22	2
127	127	5
8	24	2
139	139	4
98	142	1
126	127	1
101	113	2
106	106	1
32	58	1
34	35	2
89	89	1
120	180	3
112	112	2
30	35	1
76	77	3
17	19	2
177	178	3
96	96	2
156	156	2
35	36	1
87	111	1
77	91	3
43	43	6
38	100	1
42	43	1
41	42	5
165	167	3
90	94	3
160	162	1
74	74	3
91	92	1
2	8	2
127	164	1
2	6	1
86	87	3
149	149	7
102	108	2
105	107	3
21	30	1
11	15	1
170	173	1
57	61	1
143	151	1
86	89	1
127	161	1
90	95	2
63	96	2
152	153	1
36	38	2
108	108	3
71	72	1
2	9	2
59	59	1
142	143	2
77	77	3
11	62	2
40	42	1
128	158	3
34	36	1
110	111	2
23	25	4
111	112	1
36	42	2
5	13	2
133	135	2
15	23	1
65	102	1
124	140	1
78	114	2
116	118	3
70	70	1
84	98	1
30	31	1
51	118	1
132	132	2
171	172	1
21	22	2
4	15	2
175	176	1
99	100	3
63	65	1
5	12	2
38	39	5
167	173	1
136	143	2
68	103	2
87	87	1
14	30	2
5	11	3
43	45	2
122	122	2
146	146	3
42	45	3
86	108	3
142	167	1
146	147	3
86	95	1
178	178	3
20	30	1
129	160	1
64	64	2
147	159	2
174	174	1
96	153	1
74	75	1
118	131	1
66	67	1
104	106	1
136	137	1
146	160	1
10	60	2
64	118	1
10	90	1
79	80	2
12	29	1
0	4	2
5	18	2
134	134	3
30	77	1
128	128	1
66	68	2
9	45	1
116	117	2
118	119	4
169	170	1
7	38	1
5	9	2
66	114	1
50	59	2
5	86	1
7	21	2
13	22	1
114	153	1
10	27	1
84	94	1
1	6	1
14	20	1
57	89	1
98	100	1
127	128	1
14	29	2
150	153	1
75	77	1
92	94	1
101	105	2
177	180	1
131	131	1
173	179	1
89	90	1
2	89	1
138	139	2
151	153	2
59	60	1
111	114	1
127	131	1
83	155	1
105	105	1
68	68	3
120	129	1
154	156	2
163	166	1
34	34	2
144	145	1
131	168	1
121	121	2
158	160	1
23	26	1
98	105	1
116	116	2
118	118	1
10	16	1
84	84	1
31	33	1
114	124	1
72	179	1
59	118	1
13	19	1
0	10	1
