92	93	4
75	75	2
90	95	3
21	27	3
117	117	4
81	82	17
22	23	4
90	90	11
117	124	4
99	99	6
13	13	5
114	114	2
8	9	3
95	100	1
124	125	6
112	112	6
132	133	4
16	16	9
102	102	3
128	129	4
139	139	2
80	80	5
105	106	3
21	21	8
111	112	4
13	16	2
93	93	7
87	87	11
91	91	4
109	109	2
77	79	11
132	132	2
24	24	4
133	133	2
79	79	9
121	121	5
126	126	8
10	10	13
124	124	5
9	9	3
0	3	2
128	128	11
23	26	6
106	107	3
135	135	7
3	3	2
9	24	3
71	71	6
28	28	7
108	109	6
31	31	1
33	33	3
98	98	1
5	106	1
131	131	14
74	74	6
74	79	3
19	19	3
122	122	10
80	86	1
137	137	1
2	5	4
134	134	5
87	88	2
3	80	2
77	77	4
23	24	1
0	5	3
138	138	4
95	111	4
17	17	6
36	36	2
18	31	2
118	118	7
83	83	2
5	15	2
27	27	7
30	34	1
38	38	8
127	127	10
136	137	4
25	25	1
82	83	7
22	26	1
130	130	6
139	140	4
2	14	1
123	124	2
89	96	3
119	123	4
83	101	3
95	96	1
115	117	1
94	94	3
13	14	1
3	87	2
125	125	11
73	73	4
79	84	2
0	4	3
123	123	4
122	123	1
103	103	7
6	32	2
12	12	4
110	111	4
101	102	1
130	131	3
103	104	2
134	135	6
129	129	5
116	122	1
84	101	4
21	25	3
87	116	3
14	14	2
111	111	2
84	85	2
24	32	3
137	138	6
89	89	5
89	92	2
76	76	5
88	103	2
18	18	6
4	4	8
10	11	1
97	97	8
86	86	14
133	134	3
8	84	1
34	34	6
92	92	1
101	101	4
76	77	1
99	101	1
22	22	2
107	107	1
121	122	3
18	74	2
104	104	2
136	136	3
10	12	1
99	105	1
96	98	2
16	30	3
35	36	4
98	99	2
116	116	2
104	106	2
117	118	2
78	88	2
12	85	2
6	6	2
106	109	2
102	103	2
29	29	2
27	29	4
11	88	1
108	108	1
32	32	3
96	96	3
1	3	4
12	87	4
20	20	2
5	13	3
77	78	2
4	5	2
11	11	1
90	91	2
19	20	1
104	105	1
78	78	3
140	140	2
121	123	2
1	1	2
8	8	2
7	32	1
127	132	1
72	72	3
100	100	2
9	23	1
93	94	2
21	22	1
128	132	1
7	7	1
15	31	1
30	30	4
117	119	2
118	119	1
131	132	1
127	128	1
78	104	1
15	17	2
110	110	1
95	109	1
4	107	1
3	4	1
82	82	1
96	109	1
87	103	1
116	125	1
101	119	1
110	113	1
23	23	1
