111	111	6
19	19	11
140	141	5
143	143	4
35	35	2
36	36	10
146	146	4
94	94	10
77	77	11
171	172	6
176	176	5
14	45	7
5	5	7
104	112	4
73	82	2
155	189	4
152	153	5
106	106	5
143	144	6
30	32	6
82	109	2
115	116	6
104	104	9
96	97	2
166	166	5
126	139	4
4	8	9
87	88	2
40	40	16
145	152	2
84	84	15
117	130	7
46	46	12
187	187	2
65	83	4
157	158	10
154	154	10
68	86	3
7	7	7
66	66	14
41	41	7
147	147	5
145	145	5
149	149	6
20	20	15
9	10	8
47	47	9
91	92	3
2	4	2
127	148	3
120	120	3
104	130	2
1	1	6
160	160	1
103	103	3
52	53	7
16	16	8
95	95	9
71	83	2
131	132	6
116	116	8
48	48	14
79	82	4
55	55	6
119	120	4
161	161	6
63	63	9
87	87	8
137	137	7
3	9	11
6	6	6
175	175	2
10	11	4
27	28	2
32	38	2
105	106	5
152	152	9
44	44	4
48	137	8
42	46	9
71	71	3
29	29	11
139	139	6
43	45	4
80	80	2
66	89	4
57	57	6
79	107	6
154	155	6
15	26	2
93	122	4
53	53	12
24	25	2
34	35	5
99	100	2
56	56	17
73	74	1
153	154	2
85	85	9
122	122	4
16	17	7
136	136	7
14	14	9
55	67	3
24	24	7
90	90	10
74	75	3
103	104	3
45	45	6
162	162	8
10	10	6
168	168	8
157	157	2
83	85	1
156	156	4
22	26	1
33	33	12
153	153	4
16	21	3
33	35	3
162	163	2
124	125	3
89	90	4
100	100	6
83	94	1
148	148	6
96	96	5
93	94	10
98	99	1
15	15	20
124	124	7
39	39	5
17	17	11
75	75	4
102	102	5
28	29	10
180	181	1
61	63	8
81	81	2
148	149	4
18	21	6
138	138	8
118	118	16
97	97	3
108	108	8
11	27	8
68	68	6
52	52	2
46	132	1
117	117	5
134	134	8
164	165	2
163	163	5
7	26	3
43	43	8
144	145	8
54	54	13
4	4	1
167	167	2
186	186	3
184	184	7
135	135	6
157	180	4
82	82	12
65	65	8
38	38	5
177	178	3
143	145	1
89	89	2
171	171	2
164	182	5
36	37	4
141	153	3
110	110	8
164	164	2
68	89	6
5	6	4
115	115	5
77	78	3
74	74	10
125	126	1
180	180	12
124	127	4
119	119	2
30	30	9
79	79	17
0	1	2
176	177	5
103	111	3
151	151	3
20	22	2
94	116	3
142	142	6
31	31	5
144	146	1
123	123	5
61	61	3
78	78	6
58	58	6
109	146	5
109	136	4
1	19	2
57	58	1
55	56	1
37	37	6
92	92	7
17	18	7
172	172	2
117	118	4
128	128	2
64	64	1
121	121	5
189	190	1
46	47	4
25	25	5
34	34	3
73	73	3
147	164	4
45	46	5
26	26	8
69	69	2
134	135	1
181	181	3
59	64	2
130	151	3
170	174	4
53	54	2
47	147	2
77	83	2
88	88	3
72	72	6
1	38	5
71	82	2
14	27	1
79	81	2
158	181	3
3	23	1
95	113	2
25	26	2
118	119	2
159	159	5
141	142	3
11	11	2
16	139	3
150	151	2
126	127	10
57	64	5
115	119	1
179	179	4
37	38	2
2	6	2
127	127	2
105	105	4
2	20	3
32	39	3
122	123	2
56	103	1
16	19	4
167	171	7
155	190	2
133	133	2
165	165	4
54	55	2
168	181	1
169	169	2
144	144	2
12	13	4
99	99	2
70	78	3
34	105	2
76	99	1
189	189	4
2	2	5
188	189	3
135	136	4
57	89	2
23	24	4
101	101	6
104	115	2
141	141	3
60	65	3
121	122	1
19	38	3
84	89	3
30	31	3
4	22	1
131	131	3
111	135	3
117	133	4
150	150	4
107	107	1
26	27	2
137	148	1
54	101	3
167	181	2
83	83	4
97	98	3
13	13	5
116	118	5
81	106	2
109	123	1
42	42	8
59	85	2
109	109	2
155	179	4
2	24	1
75	89	2
82	94	7
10	12	1
91	101	5
29	30	4
109	169	1
141	144	1
93	121	2
96	112	1
18	18	2
52	110	4
12	25	3
2	7	3
92	93	3
133	136	3
161	171	2
108	137	2
63	64	3
116	117	1
3	3	2
29	45	1
165	182	2
62	64	1
158	180	1
101	122	2
58	85	2
16	148	5
6	7	4
71	81	2
41	44	1
67	67	7
22	22	4
20	27	1
68	83	2
27	27	2
86	89	2
95	116	3
70	85	2
98	98	5
115	117	1
10	27	1
157	162	2
17	150	2
156	166	1
108	109	1
22	23	1
140	142	3
8	8	5
159	160	2
0	170	1
23	23	2
11	26	1
76	76	4
28	28	2
155	156	3
105	126	2
142	156	1
60	61	1
112	112	1
129	129	5
20	31	2
55	103	1
86	86	2
5	22	2
126	126	3
125	125	1
112	113	1
137	147	2
182	182	1
19	20	2
60	60	1
58	59	2
42	48	3
33	86	1
94	96	1
151	152	2
110	123	1
68	69	3
96	98	1
30	39	2
169	176	3
59	101	3
110	124	1
86	91	2
32	32	1
155	155	2
97	116	1
132	132	1
0	17	1
174	174	1
96	113	2
127	128	1
55	124	1
177	177	1
72	78	1
97	113	1
168	171	1
46	54	1
134	147	1
82	83	2
43	53	1
70	70	1
33	34	1
114	114	1
11	12	1
112	116	1
14	15	3
44	46	1
175	176	2
72	73	2
4	5	1
156	157	1
57	102	1
23	41	1
113	113	1
62	63	1
140	140	1
85	92	1
118	133	1
0	0	1
101	104	1
97	112	1
157	184	1
3	4	1
8	15	1
