88	94	4
47	68	3
129	129	6
89	90	2
110	110	3
11	18	2
39	40	7
89	95	1
80	80	1
7	7	9
97	98	4
90	90	2
93	93	5
54	132	2
70	72	2
102	102	2
36	59	3
21	22	4
123	124	6
12	12	1
26	26	2
116	121	2
96	97	4
42	42	1
32	32	3
112	112	5
79	85	2
8	8	6
85	86	1
13	32	2
99	99	8
0	65	3
21	25	1
122	122	5
116	116	2
130	131	5
10	18	10
127	133	1
96	96	3
83	85	1
50	81	2
4	4	4
124	124	3
27	27	1
80	86	4
84	84	6
3	101	3
48	100	2
61	61	3
15	16	2
106	130	2
114	128	4
17	36	3
38	40	3
21	28	8
44	101	1
132	133	5
40	127	3
69	83	1
7	11	3
25	66	2
16	65	1
6	97	2
115	127	4
107	108	3
49	100	2
28	29	4
94	95	1
47	102	2
43	72	1
36	36	2
121	122	5
42	71	4
126	126	1
82	82	4
14	50	2
94	94	3
93	101	2
11	26	1
76	128	7
104	105	1
57	57	8
92	93	9
120	120	3
76	125	2
28	92	3
104	104	3
13	14	5
30	31	3
99	100	3
63	63	1
11	86	1
45	91	4
20	29	1
95	95	10
43	66	1
17	58	10
69	69	6
17	17	2
44	45	1
1	59	1
86	87	6
97	97	9
126	128	4
68	68	7
119	119	2
87	87	3
93	94	7
98	98	2
97	99	1
119	120	1
3	6	1
105	105	5
103	105	1
90	92	1
108	108	3
116	126	2
47	48	3
62	62	3
46	46	2
115	121	1
131	131	6
79	130	3
3	4	2
15	41	1
83	94	2
13	15	1
28	28	4
55	131	4
84	86	2
84	85	2
71	71	3
126	127	1
100	100	4
69	75	1
85	85	2
23	24	2
39	39	3
114	114	1
27	90	1
100	101	1
88	90	5
0	13	2
58	66	1
65	65	6
76	77	6
45	45	2
128	128	3
88	88	2
4	6	2
103	129	2
77	116	1
31	79	1
117	118	3
91	91	2
65	83	3
80	134	3
101	101	3
37	38	4
69	78	1
26	27	3
98	100	3
73	73	2
48	101	1
27	28	2
97	100	1
113	113	1
124	126	2
32	36	1
83	83	1
64	72	8
15	15	4
43	44	3
51	100	2
3	5	3
5	5	1
12	13	2
46	71	2
117	117	1
79	79	5
15	59	2
91	96	3
12	27	1
108	109	4
64	64	1
98	104	2
56	131	2
113	121	3
1	33	3
4	5	2
55	56	2
77	77	2
97	103	1
84	109	2
72	72	2
2	3	1
45	68	2
91	92	1
114	115	2
93	96	3
120	123	1
6	12	1
80	85	2
71	77	2
66	66	1
9	9	2
37	42	3
109	129	1
2	2	4
78	81	1
27	30	1
87	88	1
21	21	1
91	100	1
7	29	1
89	99	2
60	61	2
117	119	1
109	111	1
11	31	2
13	69	1
11	93	3
57	85	2
43	107	1
113	116	1
35	35	1
6	7	1
56	132	2
88	100	1
10	14	1
36	43	1
107	130	1
93	99	1
113	114	1
44	44	4
84	134	2
20	87	1
77	129	1
56	130	1
33	34	1
11	11	1
92	94	1
4	86	1
49	49	1
23	23	1
9	13	1
26	28	1
16	17	1
70	114	1
75	77	1
18	30	1
45	77	1
