23	27	5
37	49	1
93	93	5
77	77	9
59	66	2
99	99	15
35	35	15
27	45	2
86	86	9
73	74	6
51	52	1
37	37	13
39	39	15
38	40	2
90	90	17
70	79	3
70	70	14
81	84	6
65	65	13
81	81	5
64	64	11
59	59	18
71	73	5
92	92	9
74	74	13
78	78	13
93	94	10
53	53	15
46	46	6
97	100	3
63	63	24
67	67	22
50	51	3
79	79	17
94	94	5
63	64	13
23	24	1
25	25	7
69	69	21
84	84	5
60	61	2
77	78	7
58	59	5
101	101	13
40	41	3
58	58	23
54	55	5
75	75	22
45	45	18
67	68	3
48	48	5
69	70	6
95	95	6
40	40	15
87	87	6
59	60	1
47	48	7
41	41	16
49	49	11
88	88	7
85	85	11
83	83	6
79	97	1
56	56	21
95	99	3
47	47	4
61	63	5
38	49	2
66	66	25
71	71	13
80	83	1
35	37	4
52	53	2
25	54	5
33	35	4
100	100	7
98	99	3
55	57	1
37	38	1
50	50	5
72	72	5
52	90	2
43	43	9
30	65	1
54	61	2
89	89	7
82	85	4
57	61	2
38	39	2
102	102	3
52	52	11
49	50	12
84	87	6
38	38	7
46	97	3
58	90	4
73	76	2
59	88	2
84	86	2
60	60	12
93	100	3
84	93	4
44	44	10
91	93	3
42	43	4
48	49	4
28	29	3
65	66	6
86	89	3
66	67	6
68	68	14
96	97	8
85	101	2
84	89	3
95	96	1
83	84	5
80	82	1
56	60	1
75	77	3
84	85	3
29	29	7
55	55	1
94	95	3
79	86	5
22	22	4
33	44	1
46	47	2
79	94	3
98	98	5
50	52	2
27	27	5
96	96	14
31	31	6
96	101	5
62	62	6
51	51	9
84	88	2
23	23	6
54	54	4
89	93	1
81	100	2
27	28	5
76	76	9
98	101	1
60	89	1
33	33	9
24	24	3
61	61	1
80	81	5
42	42	12
90	91	2
99	100	2
45	100	2
91	91	10
50	64	2
60	80	3
96	100	1
28	28	2
62	64	1
29	31	1
88	99	2
80	80	6
88	96	1
81	82	11
68	70	2
29	30	1
35	49	7
77	79	2
59	67	2
100	101	2
71	72	5
70	72	1
36	36	10
87	88	4
67	69	1
51	58	2
91	92	3
73	79	1
66	70	3
82	82	2
72	73	1
46	48	8
61	81	1
26	26	6
69	71	4
61	62	5
37	50	1
86	93	1
84	98	1
89	90	2
20	22	3
55	64	4
34	34	2
92	93	2
25	35	2
68	69	3
31	68	2
51	72	1
47	81	2
79	80	1
69	87	1
54	77	2
45	46	1
81	87	1
28	44	2
88	101	1
81	83	1
83	101	1
31	33	2
79	99	1
73	73	3
67	70	2
56	57	2
78	79	1
20	20	2
33	61	2
80	94	1
97	97	2
41	42	1
32	32	1
41	43	3
45	95	2
84	91	1
44	52	1
57	57	2
62	63	1
28	45	1
92	99	1
76	78	1
55	62	1
86	87	1
33	43	1
54	62	1
68	71	1
57	58	1
45	47	1
94	98	1
64	65	1
33	53	1
