159	159	2
104	105	4
125	125	1
68	68	6
37	37	11
38	38	7
144	144	8
40	40	14
99	113	4
71	71	8
49	50	2
78	78	3
159	169	4
6	6	5
134	134	4
87	87	1
94	94	9
130	130	9
162	163	1
141	141	3
20	21	3
28	33	1
67	67	3
0	168	6
138	138	11
120	121	1
51	54	1
48	48	9
160	160	6
8	10	1
107	114	4
7	7	13
50	51	2
44	45	6
123	124	3
56	56	6
6	58	3
55	56	3
53	54	5
19	23	1
161	162	5
117	117	11
121	121	4
21	21	7
166	167	1
84	84	6
133	133	5
11	17	1
53	56	2
148	149	5
82	82	5
128	153	3
154	154	9
17	17	6
149	149	10
136	136	5
129	129	4
67	162	3
101	104	6
107	107	5
55	55	8
71	88	2
43	43	7
115	152	9
69	154	2
122	122	5
100	100	6
17	57	2
116	116	14
0	57	1
53	53	8
110	110	6
86	88	1
65	65	6
15	39	9
57	57	7
19	19	5
85	85	6
166	166	7
23	23	5
9	9	3
86	87	1
49	49	5
40	136	2
0	1	2
81	130	6
88	88	3
18	50	1
3	88	2
69	124	1
142	143	5
165	165	6
28	28	2
118	118	1
137	137	5
42	43	2
26	26	8
152	152	4
132	133	3
151	151	7
111	111	6
127	127	3
168	168	6
20	38	3
25	36	1
8	8	13
109	168	2
157	161	3
5	9	2
5	6	1
96	96	2
20	20	3
104	104	2
14	15	7
12	12	12
45	51	3
49	55	1
97	97	4
18	18	7
91	91	6
147	147	5
38	39	2
90	91	3
126	126	2
70	71	2
119	119	2
92	92	7
111	116	5
14	21	2
57	62	6
36	36	11
139	142	4
135	135	3
8	9	2
23	40	2
10	77	4
62	69	3
41	41	6
12	22	4
164	165	3
35	36	5
154	155	3
70	70	3
37	38	4
10	11	5
11	138	1
105	105	4
24	138	2
83	83	3
153	153	4
150	150	7
116	162	4
137	139	4
48	49	4
156	156	4
16	16	4
64	64	10
44	51	1
120	120	4
3	3	7
74	74	5
75	75	4
39	40	5
98	98	3
100	104	2
44	44	11
10	10	6
22	22	6
15	15	4
89	89	1
77	77	6
125	140	2
117	119	4
14	76	1
113	113	6
8	50	4
42	42	9
131	131	5
115	115	5
108	108	3
2	2	1
27	27	4
83	91	2
161	161	3
70	97	3
56	57	4
143	143	6
7	21	1
25	26	1
52	53	7
87	88	4
83	94	2
81	142	7
112	112	7
2	19	4
19	47	1
128	128	5
6	22	2
105	130	1
0	146	4
36	94	2
84	85	3
126	127	2
103	104	1
157	158	2
5	62	4
87	96	4
18	19	3
34	34	5
142	142	4
35	35	8
16	38	3
13	13	2
84	94	3
123	123	1
125	126	2
56	150	1
145	145	5
25	25	3
99	99	4
3	36	5
41	138	1
146	146	7
79	80	5
81	82	1
106	106	4
69	69	4
10	12	1
103	103	1
164	164	1
0	69	1
51	51	2
123	127	1
108	109	3
16	51	5
112	114	9
17	42	6
122	165	1
167	168	2
38	40	1
4	4	7
140	141	4
141	158	5
45	45	4
162	162	2
57	93	1
80	80	1
81	90	3
68	130	2
1	88	2
62	86	4
84	122	2
81	81	2
48	138	1
115	117	3
19	118	1
163	163	6
124	155	1
83	95	1
73	73	4
6	63	1
114	115	1
26	36	3
140	140	6
51	137	1
155	158	1
37	41	5
6	45	1
139	140	4
112	113	2
66	67	1
143	144	2
90	90	6
22	47	1
5	16	3
155	161	6
10	16	1
100	116	1
65	66	4
21	22	1
135	145	3
97	99	1
19	61	1
24	25	3
118	155	1
63	63	7
167	167	6
71	99	1
109	133	2
36	45	2
111	112	1
141	142	4
57	151	2
6	49	2
71	72	3
114	114	2
134	135	1
9	13	1
109	109	3
1	3	1
5	5	4
67	68	3
47	96	1
88	89	1
139	139	3
76	93	1
115	116	3
63	70	1
62	154	1
156	157	3
158	158	5
162	164	3
125	156	1
1	1	3
22	49	1
134	168	3
27	28	1
124	124	3
34	35	1
128	154	1
86	86	3
64	69	1
123	165	1
12	13	2
83	89	1
74	91	1
62	62	1
19	111	1
23	38	4
73	74	1
5	52	2
10	47	1
151	152	1
139	143	1
102	104	2
152	153	1
52	52	4
11	11	2
2	3	1
101	114	1
116	136	1
14	14	1
103	115	1
22	23	1
27	93	1
157	157	1
102	103	1
82	90	1
48	140	2
64	65	2
85	87	1
36	48	1
136	167	1
93	93	1
109	110	1
45	53	1
64	167	1
2	10	1
5	58	1
99	152	1
135	136	1
121	122	1
19	24	1
127	139	1
74	75	1
110	111	2
57	63	1
115	118	1
101	130	1
119	127	1
46	46	1
5	22	1
7	49	1
16	17	1
78	79	1
8	18	1
5	47	1
73	82	1
100	102	1
99	153	1
121	124	1
11	37	1
65	67	1
103	116	1
