85	85	3
42	57	3
64	97	3
129	129	5
19	19	4
113	113	6
4	19	1
79	83	5
4	5	2
40	58	3
38	40	2
20	21	3
127	127	6
76	76	6
64	126	3
82	98	3
24	24	5
162	162	8
5	12	6
117	163	2
86	86	6
101	101	5
148	154	3
53	76	3
144	149	3
129	139	3
9	10	4
53	53	7
101	104	3
110	110	7
137	137	2
116	116	6
142	143	1
67	69	4
155	156	4
65	65	5
102	162	2
89	90	3
146	146	4
145	145	6
11	52	2
117	123	1
118	118	4
12	12	8
167	167	2
23	170	2
71	71	1
100	100	5
156	157	1
41	41	8
46	47	2
46	48	1
88	90	2
90	91	1
0	38	4
89	89	1
6	9	3
2	2	6
150	162	2
170	170	6
134	135	5
102	126	2
135	135	4
55	55	3
129	130	4
114	114	9
62	62	1
148	148	2
50	50	1
56	56	3
86	94	4
64	64	7
57	69	4
165	166	2
82	119	2
16	16	4
26	26	5
117	117	5
64	157	3
33	33	1
37	37	7
18	18	10
154	154	3
35	35	2
166	166	6
108	108	2
147	156	3
54	64	2
102	114	3
2	6	4
91	91	3
81	82	2
90	90	5
22	24	3
156	156	7
7	7	5
74	74	1
132	139	1
96	96	1
3	3	9
27	28	5
92	93	5
63	63	4
64	65	3
159	159	8
80	157	1
16	17	2
1	2	1
47	47	5
92	92	5
67	67	2
79	79	8
167	168	4
109	112	2
48	48	1
52	70	1
49	49	10
20	20	4
8	8	3
155	155	3
47	48	3
48	106	1
5	7	2
3	107	3
25	25	2
80	82	3
75	76	2
0	0	3
11	114	1
134	134	1
77	77	2
42	42	6
147	153	1
38	39	1
92	94	1
143	143	3
15	15	6
36	36	1
101	102	1
36	37	3
2	4	4
33	34	1
40	40	2
166	167	2
132	132	3
25	26	1
83	83	6
6	6	6
113	158	3
1	10	2
37	45	5
18	23	3
3	36	1
155	157	2
0	1	1
94	95	3
75	75	2
19	23	1
120	120	3
54	57	2
157	157	1
94	94	1
23	23	2
119	119	1
131	131	3
11	11	5
46	46	6
43	43	2
44	45	5
11	12	5
116	162	1
13	13	2
10	10	2
83	84	2
87	88	1
115	115	6
112	112	4
164	164	2
16	107	4
21	21	2
147	147	3
163	164	1
66	66	1
130	130	3
23	24	1
39	41	2
141	141	3
150	150	8
87	87	2
4	45	1
54	168	5
5	5	5
151	151	1
152	152	1
160	160	3
57	57	2
111	111	3
84	84	3
103	103	1
8	10	3
65	68	1
4	4	3
57	58	1
45	100	1
139	139	4
116	117	2
144	144	4
152	165	2
8	15	4
140	140	3
13	47	1
45	48	1
45	45	4
7	17	2
56	58	1
68	69	1
152	167	2
84	97	2
86	93	4
160	162	4
18	25	1
107	108	1
158	159	2
51	51	7
112	113	3
54	54	4
104	154	1
72	72	1
69	69	1
93	93	4
11	47	3
38	41	1
21	22	3
142	142	2
162	164	3
47	49	1
64	69	1
102	102	2
110	139	1
72	73	1
108	110	1
90	92	2
2	3	1
165	165	1
113	126	2
49	67	1
82	82	1
5	6	2
39	51	1
124	124	1
138	138	2
78	78	2
47	51	1
50	51	1
151	152	1
128	128	1
168	168	1
123	124	3
17	18	2
44	53	2
149	150	2
80	81	3
108	109	1
14	14	3
70	70	2
122	124	1
55	56	1
111	112	2
55	57	4
7	8	1
82	86	1
162	169	1
12	13	3
1	1	2
9	24	1
44	44	2
64	66	2
39	39	2
114	116	1
169	169	1
4	37	1
146	149	1
165	169	1
123	123	2
10	65	1
105	105	1
34	34	2
24	25	2
54	56	1
34	162	1
2	5	1
62	65	1
19	24	1
27	27	1
49	106	1
17	17	1
13	15	1
38	72	1
8	9	1
128	137	1
26	27	1
14	44	1
160	166	1
125	166	1
77	80	1
39	40	1
15	20	1
158	158	1
28	28	2
2	37	1
83	86	1
163	163	1
