36	36	13
155	157	3
150	150	8
14	15	3
69	69	5
42	42	12
104	135	6
12	12	15
155	156	7
4	4	12
40	40	6
135	136	6
21	22	1
108	112	5
46	109	2
129	129	13
138	139	4
46	46	12
49	49	2
46	50	6
130	155	1
99	102	1
141	155	2
98	98	15
102	138	1
93	95	2
67	68	2
136	136	7
149	149	7
147	147	10
140	141	5
67	128	6
94	94	12
87	87	17
118	118	7
123	123	4
37	39	2
40	41	12
37	37	9
22	23	3
66	66	5
6	6	10
103	103	17
124	126	4
8	112	4
101	101	4
51	51	5
39	39	11
80	83	4
16	16	13
35	35	14
120	120	9
141	142	2
102	103	5
133	145	3
26	54	2
117	118	7
20	20	15
110	111	8
79	79	3
43	51	1
137	138	14
140	140	6
138	138	11
29	31	1
3	4	4
72	72	4
71	71	7
103	104	2
127	127	16
8	10	7
7	7	20
25	25	3
157	158	3
10	11	4
132	132	4
95	95	10
16	18	4
131	131	5
128	128	14
78	78	2
45	45	9
130	131	4
12	13	2
157	157	8
25	26	9
36	37	4
155	155	13
111	111	12
13	24	2
152	152	5
69	128	6
153	154	2
89	90	1
153	155	5
108	108	18
24	25	2
30	32	1
80	80	14
21	23	4
86	86	8
88	88	14
81	81	10
107	107	9
99	101	4
11	12	1
39	48	3
46	54	2
85	88	12
30	30	10
148	148	10
38	123	3
131	134	2
110	110	12
118	122	3
119	119	13
88	89	10
131	132	7
54	54	10
17	23	2
66	67	2
22	30	4
28	28	16
37	38	9
13	13	2
22	24	2
151	151	8
109	111	4
48	48	17
22	22	8
121	149	4
5	5	8
134	135	3
92	92	3
53	53	7
109	115	3
122	148	1
112	112	19
11	11	4
117	122	2
90	91	4
89	89	5
148	150	3
86	87	6
65	132	3
158	158	19
134	134	6
123	147	6
34	35	5
118	154	1
132	134	3
137	137	14
96	96	10
46	110	2
47	50	3
28	30	5
64	64	3
100	100	7
105	105	5
56	56	7
97	97	10
154	154	1
39	41	7
77	77	9
104	104	15
115	122	2
116	116	12
128	129	1
68	68	11
13	14	5
131	150	4
63	63	4
133	133	8
27	29	2
23	24	3
26	26	13
85	85	14
0	0	7
97	98	3
40	125	2
17	18	2
39	55	1
132	133	5
65	66	2
14	14	10
35	36	1
107	135	7
69	70	3
78	79	5
106	154	3
50	51	2
126	126	6
113	138	2
150	152	1
33	33	9
112	113	2
135	137	4
29	30	6
18	18	11
83	84	1
133	152	1
11	143	4
90	92	1
10	10	6
38	38	3
47	47	4
117	117	17
93	102	4
3	3	10
106	106	7
5	55	1
141	141	7
65	155	1
145	146	3
31	31	7
92	104	1
112	123	2
105	117	2
125	126	5
2	3	2
77	91	4
84	84	1
70	71	2
93	93	6
71	72	2
127	151	2
44	44	5
139	139	5
92	94	3
76	77	3
9	9	7
23	23	6
2	2	7
3	15	2
6	7	2
41	41	6
33	35	3
114	115	2
27	28	4
100	101	4
7	16	2
18	23	2
29	29	5
5	6	4
109	109	2
52	52	6
106	138	6
46	47	3
18	51	1
102	102	5
115	120	1
51	52	9
13	53	1
156	156	9
82	82	9
125	125	10
105	111	1
133	134	9
93	94	2
34	34	7
113	113	8
126	146	2
86	147	2
43	43	3
62	62	3
130	130	7
131	133	5
114	114	7
27	27	10
21	21	3
8	153	3
4	5	4
152	153	3
16	112	2
18	31	3
1	24	2
38	39	1
12	142	1
114	123	2
91	94	4
115	158	3
129	151	3
30	31	9
17	17	11
106	107	2
107	108	7
122	126	1
137	139	1
150	155	3
31	32	3
55	55	7
4	44	3
108	110	3
149	156	1
73	73	7
150	156	1
91	91	12
158	159	1
8	8	5
67	69	2
41	42	2
121	123	1
39	112	3
0	1	4
159	159	2
98	100	1
143	152	2
144	144	2
11	31	3
1	1	11
6	23	1
113	124	2
145	145	3
148	155	1
33	36	4
26	51	2
75	91	1
114	119	1
32	32	4
82	86	3
154	155	1
20	21	1
50	50	2
101	105	2
57	57	2
14	20	1
47	48	2
104	152	2
90	90	6
37	46	1
40	108	2
70	70	3
19	19	4
111	112	4
146	150	2
5	46	2
14	23	1
38	40	1
45	47	1
91	92	3
3	20	1
2	7	2
50	52	2
121	121	2
33	34	1
37	43	1
8	12	1
115	133	2
149	150	2
140	157	2
16	55	2
150	151	2
137	155	2
67	67	5
127	148	2
1	2	2
41	54	4
139	157	2
135	139	3
116	131	1
98	99	2
48	49	2
17	30	1
79	82	1
5	16	2
0	44	1
81	82	2
49	50	1
10	31	2
71	73	1
105	106	3
5	7	2
0	2	1
16	22	4
122	122	2
9	10	2
143	150	1
123	124	2
76	92	1
119	120	2
95	96	2
152	155	1
53	54	1
143	151	2
37	45	1
73	74	1
93	128	1
104	132	1
11	21	1
12	17	2
30	44	1
143	143	1
146	146	1
64	66	1
110	138	1
6	55	3
94	103	2
124	124	3
12	28	1
142	142	1
117	119	1
129	139	1
131	151	1
114	129	1
78	82	1
98	101	2
24	24	2
32	42	1
149	158	2
96	99	1
92	158	2
11	24	1
2	18	1
125	127	1
7	154	2
16	17	1
141	143	1
135	135	1
79	84	2
115	128	1
4	27	1
18	111	3
101	102	1
67	71	1
108	109	1
31	42	1
136	137	2
68	69	2
82	84	1
83	83	2
43	48	2
77	79	1
113	119	1
130	156	1
45	46	3
105	130	1
15	19	1
99	99	1
19	21	1
66	156	1
39	124	1
82	83	1
68	70	2
72	73	1
3	19	1
115	115	1
128	138	1
6	56	1
97	99	1
109	112	2
128	148	1
15	15	1
153	153	1
49	51	1
151	152	1
85	91	1
87	89	1
132	152	1
38	41	1
41	129	1
91	93	1
155	158	1
63	64	1
133	141	1
65	67	1
87	88	1
42	51	1
122	123	1
123	125	1
3	52	1
