130	130	23
71	71	8
20	20	7
140	141	12
67	68	3
16	16	11
122	123	4
144	145	1
127	127	17
96	99	9
103	103	10
135	135	21
111	131	2
123	123	15
95	96	7
133	134	11
26	27	3
137	141	5
30	31	1
55	55	13
139	139	3
98	108	3
82	82	16
59	61	2
131	131	16
122	122	19
33	86	2
133	138	9
120	126	9
113	122	1
126	126	28
77	77	4
23	23	14
48	52	2
77	78	8
8	8	16
32	32	13
28	28	14
24	25	1
125	125	24
58	59	7
101	101	5
71	73	2
104	104	8
78	78	6
106	106	2
63	65	2
58	81	1
10	10	5
91	91	12
15	16	4
27	27	4
73	74	3
76	77	6
117	118	14
71	83	5
129	129	31
122	138	2
113	113	13
10	15	2
119	120	9
94	94	15
38	38	2
100	101	8
119	126	2
19	19	8
36	74	1
118	119	10
39	39	5
33	33	8
101	102	1
26	26	6
119	121	1
95	130	2
85	86	1
117	117	20
122	139	6
21	21	8
60	60	9
115	115	8
143	143	22
142	143	6
69	71	1
118	118	26
107	107	12
138	138	24
142	142	12
80	117	3
125	126	7
133	133	17
110	110	8
134	134	29
97	143	2
66	66	18
90	90	8
18	19	5
85	85	4
97	97	8
126	127	6
53	53	11
138	139	9
22	126	5
57	57	4
96	143	2
128	129	14
73	75	11
42	42	6
100	100	8
59	59	18
95	95	8
20	22	1
81	81	18
127	133	2
137	138	7
2	2	4
31	31	6
96	96	7
99	99	9
69	69	10
49	49	7
68	68	8
8	140	2
120	120	13
112	113	7
42	43	5
0	0	12
113	115	4
116	116	31
26	28	3
77	100	5
12	12	4
54	55	3
91	93	2
72	73	5
58	70	3
86	87	3
86	86	6
89	128	3
56	125	4
93	93	13
61	62	10
18	18	14
22	22	5
96	97	6
65	84	1
136	136	11
33	34	3
21	23	3
121	121	6
119	124	3
132	133	5
67	128	2
40	42	1
30	30	5
128	130	7
62	62	4
124	124	27
35	35	5
139	140	6
124	142	1
102	103	5
87	141	2
61	61	3
128	128	23
126	130	4
105	105	9
73	73	8
43	66	2
76	76	2
140	140	18
127	140	3
97	131	5
52	62	1
14	14	2
136	137	7
98	99	6
40	49	1
48	50	3
107	108	4
64	85	1
48	48	5
28	30	2
102	102	10
89	113	6
87	122	2
54	54	4
89	131	1
110	112	1
84	84	7
46	47	4
11	11	5
125	127	3
87	87	2
98	98	6
25	25	13
134	135	11
61	66	3
136	139	1
31	62	2
89	90	7
132	132	13
56	56	14
144	144	8
123	124	25
131	132	13
114	114	8
3	5	1
84	86	5
6	6	8
70	70	7
68	88	1
111	112	2
40	41	3
23	24	4
99	100	6
4	5	4
95	128	4
131	133	8
116	117	2
4	4	4
113	114	8
28	52	3
65	66	1
119	131	3
29	29	7
40	40	17
71	72	6
145	145	10
127	129	11
24	24	4
88	121	1
62	81	2
9	10	2
88	141	4
5	6	3
95	103	3
29	30	3
47	48	7
57	125	1
98	102	2
115	116	9
55	56	4
127	128	5
70	71	6
70	72	1
67	142	4
101	118	1
37	37	7
80	80	5
90	92	1
30	90	1
121	135	1
13	13	6
141	142	5
41	41	12
94	117	2
64	64	4
81	82	4
135	138	2
55	123	3
104	138	2
30	53	4
104	106	3
105	106	2
88	140	5
25	26	4
106	114	2
87	88	3
79	80	4
78	80	2
59	60	4
57	71	1
83	85	3
133	135	7
119	119	9
3	4	4
98	103	3
26	52	2
47	47	6
90	91	5
96	125	3
122	140	4
75	75	1
80	81	3
87	140	6
103	104	2
64	66	2
56	143	3
78	79	2
17	17	5
106	137	1
2	11	1
122	126	4
113	131	2
99	101	1
121	122	7
31	34	4
68	142	3
9	9	7
137	137	5
97	120	4
58	60	2
108	108	3
76	94	1
5	5	4
88	90	7
74	75	3
65	65	3
82	119	3
81	118	1
40	144	1
97	99	1
43	49	1
37	38	3
101	110	1
95	99	3
141	141	17
49	50	3
104	107	3
62	63	1
69	70	1
117	120	2
98	137	1
135	136	3
53	54	7
55	57	3
64	65	2
130	133	3
43	43	5
112	112	1
15	15	4
127	134	1
92	93	2
24	53	1
136	138	4
34	36	1
98	100	1
98	109	3
38	49	2
24	26	3
52	52	2
118	121	6
145	146	2
131	134	1
10	21	4
52	144	1
143	144	2
15	17	3
110	132	1
69	142	2
13	14	2
111	111	2
53	55	8
8	16	1
55	129	4
10	11	3
20	21	5
3	3	4
68	143	1
118	120	1
2	6	3
8	17	2
36	36	4
120	121	1
8	40	1
57	60	3
8	9	2
51	51	3
108	109	2
56	122	1
33	61	1
121	134	1
0	1	3
93	116	1
30	33	1
130	131	5
57	58	2
103	131	2
28	29	1
38	40	3
126	132	1
12	13	1
35	36	2
110	133	3
56	57	1
67	67	7
72	72	3
81	103	2
53	128	1
122	125	1
110	120	3
79	81	1
34	85	2
83	86	2
126	128	1
35	37	1
88	88	5
97	109	2
109	110	2
73	85	1
98	101	1
87	120	1
63	63	3
9	18	1
92	92	4
42	67	1
115	124	1
127	130	2
39	41	5
9	23	1
36	37	4
114	117	3
125	129	1
89	89	2
117	144	3
58	58	9
97	98	2
116	118	1
67	69	1
124	125	1
42	52	1
50	50	2
31	32	3
99	143	1
114	116	1
32	62	1
105	132	1
50	51	1
124	143	1
107	114	1
34	84	1
52	53	2
114	115	1
74	74	1
115	121	1
42	66	1
133	139	1
17	18	1
9	22	1
98	104	1
50	52	1
77	79	1
110	113	2
57	141	1
21	30	2
97	104	1
129	130	2
39	40	1
95	125	1
118	133	1
2	5	1
55	75	2
26	31	1
34	34	2
54	127	1
123	125	2
77	128	1
129	131	1
34	35	2
117	134	1
22	23	2
121	138	1
11	19	1
102	126	2
78	94	1
104	105	1
98	134	1
60	78	2
129	143	1
111	116	1
134	137	1
53	67	1
120	130	1
33	74	1
1	1	1
55	122	1
6	10	1
37	74	1
