85	146	2
113	113	7
15	17	4
147	147	4
55	55	5
39	39	7
33	33	4
95	96	5
21	21	11
41	41	11
49	49	5
5	5	8
12	35	2
71	88	3
11	38	1
77	108	2
154	154	3
105	105	11
38	38	9
97	97	4
69	146	3
149	155	1
137	137	4
17	44	1
77	77	7
56	56	1
129	129	13
24	24	6
111	125	2
53	56	1
7	7	10
106	111	6
95	95	10
86	86	6
71	71	1
44	45	6
103	105	1
12	13	3
51	51	3
54	55	5
13	47	2
27	27	4
145	154	5
124	126	4
73	73	5
79	79	6
153	153	13
146	153	1
114	115	11
80	131	1
1	2	4
14	38	9
9	9	11
128	128	8
107	107	5
132	132	6
87	88	4
25	27	2
133	133	4
67	142	1
124	125	6
115	116	6
37	37	10
103	104	3
109	109	2
127	151	2
106	107	5
80	80	5
27	119	2
123	124	3
83	83	6
154	155	3
101	101	9
7	8	6
36	36	3
140	140	6
78	95	2
118	118	3
34	34	5
114	114	4
40	40	1
136	136	4
52	55	3
54	57	2
119	120	5
38	70	1
14	15	8
81	82	1
95	97	5
98	98	8
112	112	5
52	52	16
130	130	10
135	135	4
104	104	3
96	97	7
90	136	5
70	71	1
122	124	2
157	157	3
141	142	3
4	53	3
36	39	1
51	54	9
44	48	4
104	105	3
82	111	4
22	22	7
111	112	3
82	82	2
139	139	6
46	46	7
89	89	6
151	151	14
23	40	3
69	69	4
28	31	1
117	120	1
156	158	5
83	108	2
108	111	3
155	158	1
20	20	6
17	18	3
143	148	6
83	84	1
125	125	3
126	126	8
156	156	3
128	129	3
40	41	4
139	158	1
13	88	2
120	120	6
148	148	5
41	43	4
145	147	4
131	131	8
50	50	6
82	120	1
80	140	2
132	133	3
158	158	7
30	30	7
31	55	3
101	102	3
78	96	3
152	152	6
30	32	3
90	90	1
116	116	7
70	131	3
94	94	6
76	76	5
100	100	6
132	134	1
81	123	1
15	15	4
150	150	7
26	26	6
39	148	1
103	103	10
7	10	3
123	123	9
88	88	3
157	158	2
83	112	1
11	11	3
144	151	1
137	138	1
72	82	2
88	90	4
26	132	2
149	149	3
150	151	3
127	127	3
79	80	7
23	23	1
115	115	6
11	29	1
148	149	1
37	148	2
31	155	1
10	10	3
121	121	3
12	65	2
35	35	3
48	48	4
70	70	5
15	91	1
95	107	2
122	123	2
117	117	6
133	134	1
12	12	4
28	28	3
3	3	2
67	85	2
74	156	2
108	116	6
67	69	5
2	66	1
67	68	1
39	45	5
67	153	2
75	75	6
9	10	8
122	122	7
96	110	2
0	41	3
108	110	1
65	105	1
6	6	4
119	119	1
94	107	2
53	57	4
95	140	1
17	48	2
21	93	3
18	51	5
78	141	2
20	50	1
80	149	5
51	128	1
66	67	2
10	11	2
126	142	1
37	142	1
31	85	2
18	18	8
47	50	1
106	106	5
118	119	6
17	17	7
145	145	1
113	118	5
84	84	5
99	99	2
0	63	4
53	53	3
6	32	1
38	142	3
37	40	1
36	44	1
3	97	2
117	118	3
29	30	4
67	67	12
87	87	5
63	63	2
94	101	2
19	20	2
29	29	3
54	54	4
2	2	3
3	112	1
79	140	1
40	45	3
38	39	2
6	8	1
93	130	3
18	19	7
146	146	3
45	45	7
15	16	4
28	29	3
113	114	3
93	93	6
47	47	3
68	68	4
15	18	2
14	63	2
22	46	1
126	141	1
21	22	2
31	34	1
102	102	3
142	153	3
44	105	3
72	72	2
25	25	7
51	53	3
34	35	1
93	95	3
57	157	1
78	138	1
124	124	6
44	44	5
22	38	1
57	125	1
111	111	4
3	14	2
27	139	1
141	144	1
128	133	1
82	85	1
66	66	2
71	131	1
48	49	2
22	51	3
132	152	2
92	92	1
65	65	1
88	91	1
39	48	1
35	50	2
84	120	2
42	43	4
57	126	2
121	122	1
136	137	1
126	149	2
95	103	1
102	140	1
128	131	3
140	158	1
78	78	4
13	112	1
134	134	3
68	69	1
100	101	3
64	64	3
8	32	2
31	31	2
30	46	1
88	89	5
103	107	3
72	156	1
138	151	1
12	24	1
118	126	2
98	99	1
130	131	1
138	138	1
78	124	1
35	46	2
4	63	3
10	54	1
109	110	1
55	142	1
61	61	1
104	110	2
31	67	2
27	134	2
11	13	1
144	147	2
14	112	2
96	96	3
75	130	1
114	116	2
16	16	1
134	135	2
9	23	1
127	147	1
13	22	1
112	114	2
71	155	1
85	85	3
112	123	1
65	87	1
31	32	2
70	146	2
69	70	3
152	156	2
133	144	2
94	123	2
1	1	1
8	8	4
8	35	3
71	152	3
82	113	2
21	50	1
116	122	2
144	144	1
110	110	3
36	45	1
17	92	2
31	68	2
97	99	1
29	65	2
45	93	1
71	148	1
0	81	1
108	108	1
89	156	1
121	126	1
0	0	2
12	28	1
22	23	1
131	132	1
79	85	1
16	49	1
96	112	1
131	134	1
112	113	2
43	79	1
99	130	2
72	148	1
37	54	1
86	112	1
90	118	1
25	26	1
85	86	2
71	90	1
57	57	4
125	126	1
96	109	1
13	46	1
139	140	1
38	148	1
82	150	1
30	31	1
81	83	1
142	147	1
131	133	2
42	42	3
17	49	1
62	62	1
88	117	1
48	52	1
127	148	1
66	70	1
64	65	1
65	135	1
27	64	2
53	54	1
134	137	1
37	49	1
93	111	2
23	27	1
41	44	1
9	15	1
