83	83	9
109	109	11
75	75	13
111	111	11
98	98	9
32	32	10
52	52	7
99	99	7
57	57	12
63	64	5
49	49	5
101	101	3
28	28	12
93	93	13
45	50	1
46	46	9
55	55	8
100	100	1
30	46	1
40	40	8
94	94	13
42	42	5
43	43	5
33	33	8
50	50	6
29	29	3
54	57	5
112	114	3
84	84	7
71	71	7
73	73	6
70	70	14
30	31	6
110	110	4
39	39	11
31	32	3
103	104	4
104	104	1
61	61	10
88	88	11
40	41	4
89	90	2
88	105	3
19	19	4
101	103	1
55	59	6
81	81	4
96	96	4
24	24	6
38	38	7
104	107	2
24	43	2
41	44	3
90	92	4
23	23	2
67	67	3
88	99	3
62	62	7
95	97	2
92	93	3
54	55	4
29	30	2
69	69	10
37	37	11
49	50	5
72	72	9
25	28	1
111	112	2
25	25	8
58	59	1
42	44	1
22	22	8
109	111	1
77	77	9
103	103	2
95	95	3
58	58	6
95	96	7
113	113	4
44	44	4
33	35	6
64	68	4
109	110	7
80	80	16
19	22	4
27	28	2
105	105	1
80	81	6
91	93	4
74	74	4
85	85	8
51	51	5
93	95	2
112	115	1
63	63	11
71	86	2
71	72	2
90	91	3
26	78	3
90	99	2
110	111	4
38	39	4
59	61	2
62	64	5
55	56	3
28	75	2
36	37	4
107	107	7
60	60	8
93	94	3
99	101	3
27	77	1
38	42	1
79	79	5
66	66	12
59	81	4
73	75	2
74	75	11
101	102	9
85	86	2
96	98	1
56	56	1
65	69	1
79	80	5
53	53	4
53	54	1
27	30	4
90	106	1
45	46	4
41	42	3
95	98	1
59	84	3
40	82	5
91	100	1
82	84	2
62	83	3
78	79	2
26	26	5
89	89	9
47	52	1
35	43	2
108	108	4
89	91	2
88	89	3
44	45	3
40	72	3
67	82	4
45	45	6
36	36	3
41	41	6
99	100	5
64	64	1
54	81	1
68	68	2
83	85	2
27	27	3
87	88	1
25	27	1
78	78	4
105	110	2
35	82	2
47	48	4
106	106	3
100	101	2
23	71	3
24	42	1
83	84	4
92	92	4
47	47	3
23	31	6
46	49	2
58	63	4
97	97	2
86	86	3
20	58	1
36	38	3
82	85	1
87	87	3
99	105	2
86	106	1
30	30	4
76	76	2
35	35	4
76	77	2
48	48	5
112	112	5
34	36	1
105	107	2
28	30	1
70	71	2
42	43	1
31	65	1
73	74	4
32	35	1
59	59	3
103	105	2
94	95	1
43	44	2
35	36	5
31	46	1
26	27	2
20	22	1
31	31	2
41	72	1
64	80	1
52	60	1
41	69	3
68	82	1
20	20	2
48	51	2
98	99	1
70	74	2
32	52	1
23	32	2
61	62	2
57	58	2
69	87	1
21	21	1
69	82	2
31	70	1
65	66	1
23	68	1
48	52	1
110	112	1
39	42	1
59	60	2
32	33	1
67	83	1
39	40	1
44	49	2
65	65	2
91	91	1
100	103	1
66	68	1
53	59	1
54	54	2
114	114	1
38	69	1
28	78	1
72	74	1
63	65	1
66	67	1
43	50	1
93	110	1
102	102	1
