69	69	8
153	153	2
113	113	5
122	122	7
13	15	5
72	99	1
16	19	1
41	41	7
13	13	11
23	23	11
119	120	4
15	112	6
8	8	5
141	142	3
27	29	2
51	51	3
15	15	15
17	18	5
27	28	6
73	73	2
87	87	6
29	92	1
12	13	3
127	127	7
96	118	3
100	111	2
38	106	2
70	70	3
128	129	3
33	33	1
72	72	2
15	19	1
48	48	2
85	86	2
126	128	3
5	5	3
39	39	3
63	66	3
80	80	3
36	36	6
124	125	4
95	95	1
48	117	3
107	107	2
9	9	4
49	50	2
26	99	1
75	75	3
53	53	12
150	150	10
45	45	3
75	79	4
48	50	1
14	14	6
32	32	5
25	26	3
64	66	3
25	30	1
55	55	4
72	74	1
86	87	4
129	129	2
33	51	3
72	77	2
31	43	3
97	108	4
40	40	17
82	82	6
38	64	1
28	104	2
90	90	4
154	154	8
146	146	4
139	139	1
78	78	4
95	101	3
99	103	1
8	22	2
144	145	1
94	99	3
103	103	6
105	106	3
26	28	1
31	32	1
21	23	6
96	97	3
143	144	2
17	17	10
40	41	7
67	67	5
24	24	1
31	31	3
74	81	1
97	97	2
38	71	4
130	133	2
35	37	1
42	74	3
64	64	1
115	116	3
26	27	4
142	143	7
102	103	2
41	42	9
53	54	2
145	145	10
66	66	8
86	86	4
118	118	1
44	50	4
152	152	7
41	65	2
100	106	6
95	96	9
144	144	5
76	81	7
133	136	6
25	25	1
81	82	3
71	71	3
98	98	5
62	63	6
76	79	4
35	35	2
131	133	2
47	53	7
22	22	2
16	16	8
54	54	2
104	104	4
14	24	1
12	12	7
137	137	6
32	51	2
50	64	4
117	117	2
19	19	7
148	148	2
126	151	3
18	18	4
10	10	4
132	138	4
82	123	5
93	93	5
92	122	2
63	63	2
26	98	8
6	6	5
126	149	1
71	72	8
8	9	4
44	55	2
78	83	3
8	13	3
89	92	3
86	93	7
132	132	3
99	100	2
21	21	8
6	8	2
11	11	15
101	130	2
51	55	2
153	154	6
9	19	3
131	147	2
26	26	7
46	46	2
96	109	1
53	107	1
146	147	1
125	126	3
34	35	2
50	62	2
118	119	2
128	128	5
63	64	1
145	146	3
42	64	2
36	149	1
77	77	2
57	57	4
43	44	2
49	116	1
75	84	2
111	111	4
7	20	2
105	105	2
134	134	6
69	70	1
96	113	2
119	119	2
92	99	3
135	135	9
38	81	2
29	35	5
32	42	2
85	87	3
34	34	2
133	133	4
100	113	1
51	114	2
73	77	1
38	66	4
44	44	3
68	68	4
123	138	1
48	49	4
102	133	3
16	24	2
122	128	4
116	116	4
18	19	1
139	146	2
15	17	1
97	98	3
39	40	2
147	147	3
62	62	1
41	44	3
131	132	4
65	65	4
74	98	1
54	57	1
119	140	3
83	83	1
50	50	1
65	66	1
102	111	3
33	34	1
95	97	1
97	99	1
76	82	1
93	122	1
66	67	3
47	47	8
14	16	3
81	81	1
20	21	4
23	24	3
142	142	1
127	144	2
17	23	2
37	56	2
4	7	3
39	74	2
8	28	1
52	56	5
101	101	3
148	150	1
45	115	2
120	121	1
34	43	2
21	24	2
25	98	1
35	44	2
107	118	2
76	76	1
105	117	1
93	99	1
123	124	3
49	49	3
96	98	4
95	98	4
101	132	2
14	18	1
109	109	5
3	3	1
44	49	1
44	46	1
38	42	2
111	114	2
92	138	1
103	110	2
138	138	1
43	51	1
110	110	1
72	73	3
37	37	1
20	20	1
108	108	1
48	53	3
63	65	2
119	122	1
84	84	3
151	151	3
41	52	1
44	45	1
64	65	2
136	136	2
74	74	1
17	19	1
122	135	1
28	28	1
80	81	1
130	138	2
32	58	1
3	5	1
15	16	2
108	119	3
31	58	1
112	113	2
96	99	1
82	85	1
99	106	1
92	109	1
62	64	1
36	88	1
137	138	1
5	25	2
4	5	2
95	99	1
135	141	1
37	106	1
116	117	1
120	136	1
47	50	1
66	70	1
29	30	1
57	58	1
66	68	2
111	112	1
102	102	2
10	12	1
35	36	1
27	36	1
146	148	1
133	137	1
51	56	2
141	141	1
100	119	1
34	38	1
38	78	1
