31	32	1
51	51	19
62	62	4
64	64	9
52	52	8
67	73	1
81	81	12
80	81	5
54	95	6
67	67	5
92	95	3
61	81	2
43	44	8
78	80	3
53	53	7
63	63	10
84	84	10
79	80	6
46	47	6
35	35	11
86	87	4
74	74	4
92	94	1
69	70	2
70	72	2
61	61	13
57	57	7
43	43	6
63	93	1
41	41	7
59	59	13
33	33	13
44	44	7
59	64	3
66	66	6
77	79	3
34	35	1
48	48	13
56	57	6
42	43	7
40	47	4
101	101	5
48	51	3
25	27	3
100	100	5
60	94	1
57	60	13
93	93	11
68	72	2
20	23	3
60	61	12
71	72	3
58	58	6
69	69	13
88	88	6
64	67	5
100	101	4
62	64	2
86	86	6
94	94	3
61	62	1
66	68	3
50	51	3
91	93	6
94	95	5
50	50	13
46	46	9
38	38	2
58	60	4
26	27	3
65	67	2
83	84	2
78	79	5
40	40	10
52	56	1
45	45	8
77	98	2
91	92	4
77	78	2
60	65	1
87	88	1
44	47	2
59	60	2
73	73	7
39	39	7
98	98	6
75	75	3
72	72	4
47	47	6
79	79	19
89	89	3
90	90	5
78	78	9
60	82	2
99	102	3
76	76	1
48	49	3
56	79	3
86	88	2
57	66	4
76	78	3
66	67	2
31	33	2
49	49	10
51	53	2
29	29	3
96	97	3
56	61	3
79	88	2
64	65	1
48	50	1
58	59	6
54	54	6
39	44	4
77	80	2
77	77	6
55	55	8
98	99	1
76	77	2
56	92	2
99	99	6
86	89	2
60	60	3
49	50	2
97	98	1
95	95	2
57	58	1
51	52	4
36	44	2
45	46	2
78	97	1
90	91	3
99	100	2
25	25	4
48	53	2
71	71	4
54	58	1
61	68	2
68	68	1
93	94	5
91	91	2
54	55	2
62	99	1
42	42	1
41	42	2
85	85	2
46	50	3
81	82	1
84	85	2
56	62	1
47	48	2
63	64	2
87	87	1
36	36	2
100	102	1
89	94	2
35	36	3
65	65	3
101	102	1
24	26	1
83	83	2
39	46	1
56	56	1
92	92	1
41	43	1
76	86	1
64	70	1
50	52	1
80	80	2
61	87	2
79	90	2
92	93	3
90	92	1
82	82	1
70	70	3
76	84	1
61	94	1
54	56	1
70	71	2
48	65	1
27	28	1
56	98	1
86	98	2
93	97	1
63	99	1
32	32	1
20	22	1
85	86	1
22	22	1
