22	23	8
88	117	6
41	54	3
66	66	22
16	16	20
103	103	38
138	139	7
157	157	26
32	32	21
13	15	5
71	71	23
144	145	11
28	28	39
85	85	27
52	53	12
125	125	47
86	87	10
115	115	30
80	80	28
1	1	26
32	34	2
128	128	31
119	119	32
20	20	33
131	132	23
91	91	39
24	26	2
50	52	7
31	32	12
116	116	37
81	81	28
31	31	28
18	18	42
12	13	22
82	82	26
139	141	13
94	94	38
104	104	20
127	127	34
94	97	3
0	0	11
120	120	37
89	89	46
123	123	36
34	114	2
152	152	44
44	44	24
130	131	13
25	42	4
100	100	37
86	98	2
112	113	8
124	126	10
129	129	29
112	112	19
138	138	21
16	18	1
133	140	7
45	45	25
9	10	10
108	108	14
109	111	9
48	49	14
8	32	2
32	33	6
31	36	3
54	54	35
142	142	36
77	78	23
63	64	8
86	86	25
106	107	32
63	63	22
126	127	14
87	87	38
95	95	27
136	141	8
29	35	2
98	105	1
19	19	19
76	76	15
10	11	19
134	134	22
126	126	32
110	111	9
153	153	18
118	118	43
18	21	1
24	29	7
123	124	27
77	77	11
109	109	16
49	50	6
33	33	28
51	70	6
88	88	32
8	8	17
146	148	4
87	114	3
114	114	27
105	105	16
107	107	25
134	148	5
2	157	4
148	148	25
3	3	20
43	43	31
36	36	25
46	48	9
30	41	8
22	34	1
146	146	22
102	102	7
4	5	9
14	14	22
136	136	33
78	78	33
52	54	11
129	130	21
149	149	17
39	39	37
90	90	31
93	93	34
26	26	39
121	122	25
155	157	7
134	149	2
80	82	5
40	41	27
15	15	18
46	46	28
122	122	36
31	37	4
34	35	9
42	42	18
141	142	13
67	67	24
99	99	37
16	52	2
21	108	1
117	117	31
150	150	33
17	17	31
81	82	20
25	26	24
84	109	2
52	79	5
5	132	1
83	86	10
93	116	3
21	21	39
103	104	14
11	11	21
128	129	9
141	148	1
68	68	28
24	24	54
87	90	11
96	96	28
37	37	14
23	23	39
12	12	21
144	144	37
4	4	12
90	92	13
85	87	1
108	109	22
83	83	34
65	66	15
92	92	24
98	150	5
91	92	9
14	15	12
48	48	27
84	85	22
7	26	1
9	50	6
26	27	5
98	98	42
45	47	7
117	118	6
13	19	1
109	118	1
2	3	11
114	118	6
151	152	11
92	118	9
129	133	2
33	34	7
69	69	30
44	47	4
151	151	37
9	9	23
18	19	4
23	24	23
47	51	3
30	32	11
79	80	10
72	73	4
50	50	25
75	78	6
129	131	9
46	47	13
104	117	1
147	147	35
75	75	22
12	16	2
124	124	19
141	141	42
97	97	28
153	154	15
140	140	21
7	8	14
154	158	7
12	14	12
79	79	22
25	25	19
93	94	10
21	22	15
103	135	1
67	71	5
118	120	4
111	111	16
30	30	28
119	120	6
84	84	32
67	69	14
103	141	2
145	145	15
144	148	6
56	57	1
16	53	1
56	66	3
119	123	5
78	103	1
22	22	39
84	86	6
51	51	26
7	36	4
73	73	43
85	86	19
32	35	3
145	146	10
103	122	2
83	84	20
42	43	16
97	98	17
15	23	6
41	41	36
51	53	2
35	35	15
149	150	3
108	110	15
8	10	11
23	25	8
74	74	7
136	137	18
11	12	20
101	101	28
56	56	16
112	118	8
34	34	32
138	149	3
135	137	9
117	119	14
106	106	29
31	38	9
123	127	3
128	154	1
135	136	14
10	21	2
19	27	1
41	43	3
105	106	12
18	34	5
24	111	1
5	6	10
90	91	8
142	145	5
29	101	2
5	12	1
13	14	16
28	29	13
51	52	7
154	154	11
29	29	27
36	37	15
30	47	1
0	1	10
38	39	18
136	145	2
32	37	1
44	46	3
8	9	26
79	81	5
139	139	38
88	89	19
89	90	2
96	97	17
52	52	37
104	105	6
43	44	5
28	96	2
32	50	2
154	156	10
11	14	3
111	112	11
84	87	6
148	149	14
107	120	3
137	153	2
29	54	5
131	131	32
19	20	20
99	100	8
48	110	2
114	115	11
146	147	19
115	118	3
121	148	2
69	71	2
124	125	6
113	115	6
20	21	14
26	54	2
132	132	26
146	152	6
85	107	3
120	121	29
79	103	1
10	12	3
122	145	6
40	40	24
93	103	4
126	141	1
134	136	8
94	95	8
52	68	2
133	133	17
44	45	7
122	125	3
78	82	3
65	65	8
70	72	1
121	121	28
7	16	1
118	119	14
122	124	5
17	18	12
91	105	1
77	80	1
135	135	24
116	123	4
137	143	2
71	72	12
13	13	17
38	38	39
134	135	7
47	47	24
156	156	26
97	153	2
130	130	24
75	80	1
6	6	24
39	40	10
110	110	20
158	158	14
80	101	5
96	102	1
137	140	4
124	127	7
122	123	9
83	85	8
27	28	3
64	67	2
10	10	23
7	7	34
53	68	2
64	64	9
110	114	1
150	157	2
92	93	12
4	151	2
22	35	2
67	68	12
141	143	6
50	53	2
137	137	26
16	17	9
73	102	2
54	69	1
131	134	5
37	117	3
53	53	15
107	108	7
135	149	2
55	70	2
148	150	7
65	70	4
29	32	4
68	71	13
4	133	3
37	52	4
140	141	10
70	70	18
141	153	5
113	113	23
68	69	4
95	98	3
80	106	2
85	108	4
84	111	5
27	27	24
127	136	3
5	5	20
149	151	8
121	145	5
116	118	5
17	25	2
116	117	6
96	101	3
71	146	1
50	51	5
121	152	1
49	49	27
88	102	1
7	35	2
42	48	4
121	123	7
104	124	1
15	119	3
115	116	5
8	18	3
122	142	4
87	110	2
21	109	1
122	143	1
147	148	7
143	144	6
110	112	6
14	21	2
36	52	3
155	158	7
108	114	4
62	63	1
81	98	3
37	38	6
61	88	2
154	155	10
69	70	13
124	132	2
39	55	1
39	42	4
33	85	10
85	91	2
88	91	3
125	126	3
85	131	2
30	56	2
7	13	2
82	83	11
132	139	3
149	153	2
1	2	7
13	144	3
80	107	4
2	2	10
113	114	11
9	32	3
108	115	3
139	140	16
39	47	2
125	135	1
136	154	5
15	16	9
106	119	6
45	46	5
63	68	5
157	158	3
13	145	3
131	133	9
84	93	2
32	76	4
1	4	4
54	64	2
6	94	1
7	10	5
18	32	2
27	29	2
95	96	13
100	101	15
55	55	19
3	4	7
93	96	2
67	70	7
145	147	2
130	138	1
107	110	2
132	133	12
14	19	2
152	157	6
140	142	10
52	121	7
137	139	3
97	105	5
3	5	6
16	19	3
109	110	15
40	114	6
7	31	2
17	36	2
48	52	3
62	62	6
11	92	3
15	21	3
24	81	3
91	93	4
85	109	2
137	138	9
103	138	2
152	154	7
44	51	1
95	104	2
144	147	4
49	78	2
67	90	3
87	89	7
96	98	9
155	156	15
107	117	1
127	128	1
97	104	2
111	113	5
143	143	14
136	142	2
142	144	1
91	96	2
86	108	1
46	53	7
7	150	1
125	127	3
19	21	11
36	38	3
55	66	1
147	149	1
18	36	2
40	42	8
89	108	4
124	136	1
128	131	3
91	94	1
56	61	1
7	50	2
12	15	6
45	50	1
133	142	5
17	20	2
8	16	1
92	101	4
128	138	1
128	130	4
120	123	1
47	48	2
89	109	2
27	30	1
12	91	3
53	54	11
7	48	2
9	16	1
139	149	1
79	82	6
80	102	2
55	56	3
41	51	2
66	69	4
8	85	3
149	152	4
24	25	5
137	141	2
4	131	5
152	156	3
133	134	6
17	65	2
101	105	1
97	146	2
132	134	5
91	117	5
18	20	3
155	155	19
68	70	5
35	55	5
51	80	1
131	151	4
87	88	7
100	105	4
142	143	3
70	75	1
134	139	2
76	77	2
119	121	4
7	12	1
87	111	1
10	35	4
41	50	2
73	74	9
84	92	1
38	42	3
36	43	2
112	115	1
64	66	2
152	153	4
97	130	3
80	81	5
144	146	4
70	71	13
29	38	3
150	151	2
95	97	1
65	71	2
64	65	4
56	67	3
91	120	2
108	117	3
15	18	3
7	90	1
57	57	7
88	92	1
75	106	1
13	21	2
4	156	1
87	112	4
133	150	4
39	54	2
49	68	2
45	96	3
22	110	1
2	4	1
41	42	3
108	113	1
123	136	2
139	148	1
104	122	1
12	20	2
78	79	4
36	46	1
130	150	1
127	134	1
24	40	1
30	31	2
33	35	1
9	12	3
46	96	1
83	111	2
86	113	8
72	72	17
115	117	4
25	27	1
108	112	2
10	50	4
13	29	1
42	44	2
102	105	2
91	98	3
84	107	3
141	149	2
158	159	3
20	22	5
103	123	2
123	150	1
94	104	4
140	143	4
21	38	1
90	118	1
95	137	2
105	110	2
17	71	1
136	138	2
15	52	2
30	40	1
2	154	2
39	41	10
149	154	4
56	109	1
88	90	6
107	109	1
34	38	1
130	148	1
57	66	1
124	148	1
76	80	1
98	132	3
7	87	5
105	107	1
87	107	1
6	8	1
35	37	3
41	52	2
11	15	2
125	141	2
52	55	1
57	61	1
124	153	2
43	46	2
50	67	1
121	124	2
128	158	2
72	89	2
130	132	1
146	150	1
30	38	3
131	137	2
141	144	4
53	69	2
134	137	2
35	38	2
15	64	1
0	44	2
136	147	3
134	138	1
127	135	2
88	153	2
1	7	1
90	94	2
86	89	2
113	130	1
46	108	2
1	5	3
25	28	4
132	150	3
6	7	1
64	68	2
127	143	2
8	86	1
118	123	1
17	55	1
31	34	1
8	90	2
133	138	3
107	121	1
82	84	6
103	137	1
33	105	1
8	37	3
15	17	1
37	127	1
27	96	1
84	103	2
108	111	3
133	144	1
42	49	1
32	36	6
44	99	3
90	108	1
37	126	2
107	112	3
81	91	1
120	126	1
76	79	1
73	75	2
42	45	1
46	51	1
106	120	1
88	110	2
117	120	1
33	86	2
114	116	3
137	149	1
129	143	2
85	114	2
101	102	1
98	102	1
156	157	4
61	61	1
98	99	4
16	25	2
8	48	1
66	67	1
127	129	2
151	155	2
133	137	2
145	152	2
128	143	1
29	31	2
121	144	2
53	55	1
109	112	1
27	86	3
10	13	1
130	133	1
14	16	1
154	159	1
8	13	3
44	50	3
31	42	3
26	53	2
89	91	2
23	29	2
55	67	1
137	142	1
128	159	2
81	83	2
51	113	1
154	157	1
27	39	1
147	153	3
39	51	1
29	30	3
78	102	1
90	121	1
123	140	1
138	150	1
108	118	1
38	46	2
46	111	1
135	143	1
100	106	1
79	84	3
102	103	3
19	55	1
8	12	1
63	104	2
103	107	1
15	19	1
49	115	2
37	46	1
145	148	2
65	90	1
34	36	1
142	147	2
37	48	1
95	103	4
10	16	2
52	67	1
123	126	1
98	130	1
3	155	2
96	121	2
159	159	1
4	127	1
37	43	1
93	95	10
141	154	1
49	52	1
71	73	2
127	133	3
64	69	1
27	53	3
126	153	1
1	3	1
124	133	2
28	30	2
15	120	3
10	34	1
28	114	1
83	110	1
46	50	1
96	103	2
3	131	1
31	41	1
12	90	1
102	104	1
20	77	2
17	46	3
126	135	2
57	67	1
31	53	1
48	111	1
51	115	2
57	147	2
2	148	1
11	145	3
112	119	1
130	147	1
5	17	2
22	108	2
106	109	1
3	154	1
7	9	1
137	145	1
82	86	1
111	114	1
32	48	1
106	110	2
21	107	1
29	55	1
108	116	1
17	23	1
89	154	2
80	87	1
54	56	1
13	88	1
156	158	3
88	94	2
48	118	1
102	139	1
104	123	2
126	148	1
87	115	1
91	95	1
90	110	1
80	84	1
49	53	1
12	31	1
50	85	1
126	142	1
134	140	2
18	66	1
120	124	1
105	119	1
30	36	1
29	34	1
48	51	2
79	98	1
116	119	1
92	94	1
133	136	1
125	148	1
124	140	1
150	153	1
151	158	1
86	112	1
93	115	1
50	80	1
48	54	1
132	148	1
153	157	1
110	113	1
85	90	1
36	105	1
140	151	2
88	154	1
62	64	1
8	11	1
9	11	1
125	145	1
80	103	1
12	145	1
19	33	1
90	111	1
26	40	2
121	125	1
42	46	1
130	134	1
49	51	1
22	139	1
54	55	1
