29	29	18
16	17	4
17	18	8
130	138	2
139	143	8
137	138	1
146	146	10
23	23	13
130	130	16
35	35	15
82	82	10
148	148	8
18	18	28
57	57	5
54	65	4
17	17	26
48	50	2
91	135	1
9	9	22
48	135	4
46	46	12
31	131	1
6	31	1
31	31	20
16	41	3
109	109	9
77	78	10
83	83	15
149	150	6
80	99	3
74	75	9
66	66	6
87	87	22
70	70	17
62	63	10
126	127	5
104	110	1
81	81	13
154	154	7
97	97	13
8	10	2
55	56	8
153	153	6
100	109	2
20	22	6
128	128	6
32	62	2
55	64	5
38	38	12
24	24	29
67	68	12
97	99	2
91	93	3
22	25	2
140	141	6
100	101	3
40	41	10
150	150	6
53	53	16
26	27	4
119	136	2
50	51	5
106	110	2
16	20	1
136	137	10
138	141	2
43	52	1
117	153	1
133	152	6
5	5	18
47	47	18
143	144	6
104	104	12
97	110	1
43	43	18
127	127	6
22	24	3
13	13	22
86	86	7
91	119	2
22	27	4
65	65	8
84	111	1
135	149	4
86	94	2
14	14	11
118	126	2
76	76	13
30	143	2
9	10	1
12	12	13
93	93	8
105	108	2
14	94	2
53	54	7
133	133	13
15	36	3
124	124	5
39	39	23
125	126	5
82	99	3
85	111	1
10	10	8
133	134	5
30	30	7
75	75	6
71	73	3
51	51	5
94	94	9
67	67	21
41	41	22
105	105	3
36	36	22
65	68	3
73	73	20
132	132	16
114	114	2
55	66	2
3	3	9
107	107	11
23	24	7
136	136	8
19	96	1
63	67	6
21	24	1
71	71	7
33	33	18
108	108	6
43	57	3
38	47	2
103	103	8
15	15	14
71	76	2
129	129	13
20	20	9
32	33	6
147	147	6
97	98	6
40	42	2
48	51	4
66	67	5
126	126	13
18	50	11
6	6	6
16	19	2
20	21	4
120	137	6
83	93	1
151	151	9
118	118	9
76	87	2
34	34	5
129	130	1
120	120	20
103	113	1
55	55	17
7	9	5
82	83	5
92	92	8
139	139	4
12	16	1
63	63	13
14	75	1
10	11	8
11	11	14
139	146	4
139	147	6
85	87	5
119	119	12
121	137	5
11	40	2
65	66	2
46	47	2
145	146	2
27	27	11
75	86	2
80	109	2
90	90	10
42	42	7
21	23	1
83	86	1
44	45	6
54	75	1
120	138	2
147	149	2
14	16	8
63	65	3
4	6	7
71	74	2
88	90	10
87	93	10
142	143	4
140	140	4
103	115	2
31	32	5
72	74	3
21	22	6
7	10	6
4	4	15
5	32	1
8	8	18
64	64	10
94	111	4
38	42	2
56	56	3
66	68	5
110	110	4
3	32	1
104	112	2
37	99	1
63	82	2
22	22	8
5	6	5
54	54	13
137	149	1
20	93	1
27	28	4
81	83	1
44	44	8
32	32	19
106	106	4
138	139	2
49	50	6
99	99	10
69	76	4
78	78	9
42	49	1
87	99	5
116	117	2
112	112	3
31	146	2
43	44	8
116	125	3
97	103	1
26	31	2
88	95	6
48	48	8
124	137	1
94	95	3
130	147	1
79	86	1
5	7	8
97	105	2
75	93	3
116	116	13
68	68	11
73	74	2
98	98	22
10	12	2
99	100	5
88	88	7
48	49	2
56	63	3
28	29	5
29	30	4
69	69	12
29	130	1
26	28	6
95	97	4
16	77	2
50	50	7
131	131	9
7	7	9
152	152	8
135	136	4
85	85	23
143	143	10
115	115	2
28	28	15
18	19	2
144	146	2
124	125	3
44	76	1
137	137	4
80	80	14
108	111	1
33	82	8
26	26	14
78	79	2
21	21	12
84	84	5
6	7	16
62	62	8
121	122	6
45	45	20
74	74	8
55	65	7
130	139	1
111	113	2
87	88	2
112	113	7
35	36	4
96	96	10
144	145	6
74	79	3
38	39	5
79	79	11
48	53	9
30	145	3
19	19	9
13	14	7
118	123	2
77	79	2
26	33	1
19	111	4
139	148	2
42	43	6
141	141	4
45	46	4
28	42	2
54	55	4
24	25	1
11	12	5
123	123	9
8	9	7
100	102	6
20	25	5
35	50	2
40	62	2
111	111	7
28	31	4
31	130	4
72	73	6
98	110	1
39	45	2
5	10	2
34	35	7
35	37	2
134	134	4
121	148	2
86	99	1
58	58	4
19	94	1
16	16	16
121	121	9
22	138	1
127	130	6
143	148	1
12	13	10
17	34	5
139	140	3
38	40	1
18	21	1
71	72	10
27	42	1
79	80	5
14	15	9
28	41	2
32	82	1
35	98	2
73	80	1
28	32	3
103	112	1
7	8	7
117	118	4
17	38	2
123	128	2
24	36	4
22	23	5
87	111	1
121	136	5
26	40	2
100	100	5
95	95	11
2	5	2
101	101	3
98	99	5
68	69	2
8	38	3
133	135	2
150	151	2
102	104	4
33	84	2
149	149	8
49	49	12
18	79	2
92	113	1
69	72	1
47	48	2
37	37	2
15	16	3
77	77	14
103	111	4
76	77	6
85	95	2
136	149	1
18	37	2
31	147	3
58	66	1
139	144	1
65	75	1
18	47	1
90	93	2
123	124	1
44	74	2
68	98	1
129	146	3
14	44	1
32	95	1
102	102	8
32	79	1
138	138	7
119	130	1
6	10	4
87	92	4
15	57	1
139	142	2
28	33	1
54	64	2
80	81	4
87	113	4
132	133	7
147	148	1
87	105	2
126	154	1
96	99	1
19	110	2
5	28	2
83	84	2
16	57	2
78	81	3
112	114	1
64	95	1
15	42	2
92	112	1
83	85	2
93	94	4
33	36	2
106	108	5
102	114	1
146	147	3
87	98	2
142	144	4
46	112	1
73	75	4
49	51	4
75	87	5
131	132	9
106	107	5
144	144	8
3	4	1
26	52	3
72	72	5
39	40	5
99	102	2
96	97	5
89	89	2
17	19	2
41	42	3
125	125	3
40	40	6
70	71	4
81	82	6
26	85	1
20	135	3
16	42	4
109	110	5
141	142	1
4	131	3
118	124	1
140	143	2
19	21	2
42	46	2
23	37	1
50	65	2
119	123	1
52	65	1
105	114	3
86	87	2
133	147	1
124	127	1
92	93	1
23	36	4
80	82	1
69	96	4
121	125	1
104	105	2
123	137	1
16	81	1
39	42	1
99	101	2
48	79	2
25	25	7
25	38	1
11	17	3
81	86	1
123	127	1
127	128	4
51	62	1
7	39	3
32	58	1
129	139	1
4	5	5
21	38	1
32	98	1
123	136	2
82	98	1
30	31	2
16	43	1
19	22	2
143	147	2
99	111	3
86	96	2
45	82	2
116	118	3
65	67	2
41	46	1
53	65	3
69	80	1
85	97	1
122	137	2
74	95	1
25	54	1
19	107	1
43	50	1
44	57	2
51	53	2
18	49	1
34	38	3
116	126	1
122	148	3
86	91	1
117	117	7
13	15	3
93	95	3
81	110	3
51	63	2
33	63	2
12	14	4
122	133	1
110	112	1
63	64	3
68	96	2
90	92	1
143	145	1
27	94	2
127	147	2
14	43	4
72	75	2
89	104	1
145	145	2
129	154	1
91	91	1
101	102	2
103	110	3
123	132	3
19	20	3
138	140	1
52	54	1
75	84	1
105	109	3
81	85	1
55	57	2
79	98	2
34	40	2
39	49	1
102	103	2
64	65	1
56	65	1
80	110	2
130	141	2
29	132	1
63	83	2
66	97	1
140	148	1
79	81	2
51	52	1
25	26	1
25	27	1
51	70	2
110	115	2
67	96	4
76	78	1
16	44	2
64	67	1
125	127	2
135	135	1
111	114	1
33	40	1
3	38	2
82	84	4
50	78	3
17	22	1
51	57	2
5	8	1
51	66	1
121	142	3
22	28	1
81	84	1
17	36	1
19	78	1
61	96	1
81	98	2
33	34	5
75	77	2
6	9	1
34	36	2
4	7	1
41	58	1
78	82	1
40	63	1
6	8	1
85	86	2
74	83	2
46	49	1
79	99	2
113	113	1
68	97	1
107	113	3
128	147	1
25	30	2
42	57	1
69	71	3
36	37	1
26	56	1
49	72	1
13	41	1
128	136	1
79	94	2
38	50	1
38	106	2
42	45	1
51	54	1
54	66	4
17	24	1
40	77	2
79	96	2
74	78	1
75	95	1
33	39	2
62	78	1
123	138	1
110	113	3
72	97	3
132	142	1
135	137	2
18	82	1
54	56	1
99	107	1
85	110	1
71	77	1
84	98	2
21	138	1
26	29	1
36	99	1
73	84	3
53	55	2
14	42	1
85	99	1
56	57	1
70	73	1
33	38	1
121	143	2
28	57	1
3	7	1
15	41	1
120	135	1
16	18	1
124	126	1
85	98	1
14	17	1
24	151	1
26	66	1
130	132	1
97	109	1
46	106	1
75	89	1
139	141	1
61	62	1
127	131	1
131	142	1
50	83	1
133	150	1
66	73	1
17	48	1
88	109	1
98	113	1
25	51	1
40	43	1
101	103	1
30	130	1
62	97	1
27	32	1
42	56	1
20	23	1
15	17	1
110	111	1
66	81	1
