71	72	4
39	45	1
24	24	2
87	87	4
52	53	1
16	16	3
22	22	3
72	92	1
34	35	4
86	89	5
102	102	2
146	147	1
22	23	2
19	24	2
2	2	2
119	121	2
163	165	2
21	21	4
150	150	3
82	83	2
40	41	5
47	47	3
111	140	2
65	65	4
121	121	2
146	146	1
105	105	3
147	147	6
19	21	2
11	11	2
57	113	1
2	35	1
164	164	3
16	58	1
8	18	1
137	137	2
40	40	1
38	39	3
50	50	2
71	71	3
54	54	5
126	126	12
123	123	4
18	18	5
104	104	6
154	162	3
86	87	1
91	91	3
126	127	6
51	51	1
159	159	8
16	25	1
7	7	5
55	55	2
42	53	2
25	25	2
70	70	6
10	10	2
80	83	1
88	88	2
120	121	2
162	162	4
143	144	1
9	9	5
6	7	4
162	163	1
92	92	2
19	19	3
41	53	3
120	120	2
127	127	2
16	17	2
77	77	3
48	49	2
167	168	1
27	27	2
168	168	1
118	119	2
44	45	1
158	166	1
170	170	5
5	5	2
6	37	1
57	57	3
91	93	2
138	138	2
45	45	1
133	141	3
151	151	2
122	122	2
25	28	2
163	163	1
113	116	1
44	46	2
40	53	1
118	118	1
35	35	3
149	149	3
53	54	4
98	121	1
86	86	2
39	40	1
125	170	2
63	69	1
90	91	2
85	86	1
140	141	2
43	43	2
131	148	1
97	99	1
0	0	1
27	28	1
1	3	2
83	92	1
97	105	2
112	112	3
62	62	2
71	84	1
125	125	7
110	116	1
46	47	1
106	129	2
138	139	3
128	128	1
14	19	2
78	78	1
24	51	2
113	113	6
69	87	2
164	165	1
36	37	1
111	112	1
28	28	1
1	1	2
152	161	2
106	107	2
139	139	1
76	96	2
70	87	1
116	153	2
44	44	2
109	109	1
157	157	3
110	110	3
111	111	2
82	82	1
86	90	2
119	120	1
81	85	1
15	115	1
20	20	2
13	13	1
21	23	1
2	3	1
11	12	3
3	3	1
73	73	1
141	142	1
67	67	1
142	149	1
132	138	1
46	87	1
69	69	2
28	165	1
16	53	1
154	154	2
47	54	1
79	104	1
96	120	1
97	97	1
161	161	1
108	109	1
2	24	1
132	132	1
115	154	1
71	73	1
41	86	1
42	43	1
62	68	1
24	25	1
