79	79	14
65	66	2
91	92	2
32	33	2
96	98	6
84	88	2
80	81	6
81	82	8
84	86	5
80	80	5
29	32	2
43	43	8
90	90	8
24	24	7
69	71	2
97	97	19
26	26	9
100	101	1
61	76	5
37	38	5
80	82	1
70	70	6
64	64	8
25	25	3
28	29	3
61	61	4
56	62	2
73	96	1
27	33	4
77	77	6
78	88	2
95	95	5
92	93	6
75	77	5
76	76	4
36	38	7
67	67	7
50	50	11
66	66	13
46	98	5
59	59	4
95	96	6
71	71	9
100	100	9
36	37	3
86	86	4
72	72	8
60	60	8
101	101	8
79	80	13
50	51	2
51	61	3
45	49	2
47	48	1
38	44	1
52	53	3
35	35	7
75	75	5
87	88	2
69	90	2
29	29	4
72	73	4
98	98	8
91	91	9
53	54	2
54	55	1
81	86	1
46	97	1
97	98	7
84	84	3
38	39	1
24	25	1
92	92	7
47	47	3
44	44	7
42	42	10
49	52	1
62	62	8
65	65	4
48	99	1
94	94	3
34	34	6
68	68	5
27	32	1
69	100	1
83	83	4
27	27	5
94	98	3
20	20	4
39	39	7
37	37	7
96	96	5
56	57	3
78	83	5
46	53	5
68	70	2
58	59	2
95	98	4
69	69	3
96	97	4
68	99	5
44	65	1
74	74	6
81	87	4
57	58	4
94	100	1
40	40	2
34	45	1
99	99	10
85	85	7
41	41	11
88	88	6
26	27	1
28	28	1
51	102	2
68	73	1
89	89	6
67	68	6
55	55	12
38	45	3
72	83	3
58	61	1
72	75	2
57	57	6
32	32	3
41	42	1
69	72	2
58	85	1
93	94	3
47	51	1
49	49	6
34	35	4
66	98	2
55	70	1
61	62	2
23	27	3
59	64	2
27	28	2
48	49	2
40	42	1
79	101	2
60	61	1
48	48	6
61	98	1
76	77	3
77	78	2
49	50	1
53	53	4
73	73	9
26	33	3
52	54	1
59	63	1
22	22	3
54	61	2
78	78	1
31	31	3
45	45	3
72	100	5
93	100	1
83	84	2
63	63	1
52	52	10
26	28	2
72	99	2
93	93	4
71	72	1
92	94	1
35	36	2
40	41	1
59	60	1
95	99	1
42	74	4
40	72	4
47	92	1
95	97	3
61	81	1
53	61	1
36	36	2
62	65	2
47	50	1
68	94	2
82	86	3
79	95	2
46	47	1
31	46	2
46	46	2
53	58	1
91	100	1
51	51	2
25	38	1
47	57	2
82	82	2
68	89	1
39	42	2
55	56	1
59	72	1
92	100	1
56	56	1
66	67	2
52	75	1
37	93	2
74	81	1
23	23	1
44	79	1
41	91	1
93	101	1
98	101	3
86	87	2
38	95	1
51	55	1
54	59	1
84	87	2
41	69	1
67	72	1
53	55	1
42	43	3
47	53	1
86	91	1
82	87	1
81	81	3
83	98	1
87	87	1
35	37	1
54	54	1
101	102	1
87	89	2
56	58	1
69	70	1
94	95	1
45	61	1
70	71	1
51	53	1
91	99	1
39	46	1
65	75	1
61	87	1
