133	141	1
134	134	11
108	109	2
84	89	2
69	71	1
65	65	7
88	88	4
90	90	10
11	39	5
12	38	1
99	99	2
109	112	2
98	98	12
49	49	4
115	115	16
123	123	2
88	90	3
152	152	5
107	107	1
5	5	8
9	39	5
103	103	3
47	47	6
39	39	20
38	151	2
77	78	2
128	128	2
15	122	4
0	0	6
140	140	8
146	153	3
79	79	4
117	117	11
125	128	2
91	91	3
26	26	6
23	48	3
21	21	13
77	103	2
133	133	2
66	66	8
122	125	1
0	1	3
30	39	4
113	113	5
3	3	9
36	92	5
82	82	6
18	18	7
75	75	4
8	29	2
71	108	3
17	19	5
113	153	3
145	153	8
20	22	4
90	127	1
146	147	5
96	97	2
35	35	6
124	124	1
144	152	1
145	156	4
130	131	3
111	112	4
110	110	5
28	51	2
40	41	3
70	152	3
73	129	4
11	11	3
120	120	3
28	28	7
155	155	15
121	125	3
112	112	2
29	29	3
136	136	12
24	24	10
76	76	1
81	117	1
17	18	5
88	118	3
86	86	12
97	97	5
94	94	8
27	27	6
77	134	4
127	138	3
28	33	1
138	138	3
25	44	2
136	138	1
7	7	5
16	43	2
95	96	8
38	38	4
124	126	2
122	122	2
25	25	2
95	95	2
70	70	2
139	139	9
89	89	3
74	158	1
151	152	4
138	143	3
31	34	3
132	133	2
100	100	10
127	127	1
96	96	8
37	38	2
64	71	1
129	130	6
104	104	8
155	156	4
36	36	1
132	156	6
144	145	7
147	147	7
44	44	5
16	25	1
53	63	3
135	146	1
23	46	2
36	123	1
7	17	2
93	93	8
107	108	2
158	158	7
84	84	4
49	69	1
111	111	4
136	141	2
92	92	9
133	137	5
22	52	3
146	146	10
71	71	4
154	154	3
53	69	1
46	46	6
108	112	2
11	12	6
36	37	3
114	114	4
78	124	2
92	94	1
91	92	3
16	16	4
13	13	3
156	157	2
127	142	3
121	122	1
142	142	3
11	29	1
150	150	1
20	20	5
10	10	5
71	77	2
87	137	1
12	94	2
21	52	2
15	26	3
135	136	2
52	54	6
118	118	4
80	120	6
30	30	5
133	146	2
40	40	2
52	52	5
27	94	1
157	157	6
141	145	2
83	86	3
8	8	1
31	122	1
130	152	2
114	116	2
5	39	1
81	81	3
32	32	2
48	52	2
38	128	1
132	157	2
113	114	2
117	135	1
108	108	1
14	14	7
64	66	2
20	50	1
127	141	3
56	56	4
89	118	4
19	48	2
54	57	1
148	148	2
31	32	6
5	43	1
9	11	4
13	50	1
13	43	1
22	25	2
132	132	5
141	141	9
116	116	3
110	111	3
87	136	2
137	137	3
111	133	1
19	19	1
29	34	4
75	124	2
141	142	1
33	33	5
149	149	1
88	119	2
108	116	4
10	11	2
65	134	2
77	77	3
134	135	1
103	155	2
106	106	2
0	20	3
35	36	3
93	94	3
78	122	4
1	1	2
94	105	2
49	52	3
144	156	1
135	135	2
90	91	2
83	84	3
68	68	7
92	105	8
62	71	1
123	127	3
13	14	2
10	28	3
71	158	3
43	95	2
6	6	1
134	144	1
53	53	3
143	150	3
100	101	3
69	125	2
2	34	1
151	151	9
123	124	2
118	147	3
67	67	3
33	34	1
134	149	1
110	112	1
94	129	1
32	33	2
22	39	1
147	148	1
120	134	2
125	153	2
96	106	5
71	120	3
119	120	2
81	82	4
13	90	1
144	157	1
12	12	3
50	50	1
105	105	1
4	14	1
148	149	5
51	51	2
108	110	1
129	129	1
156	156	2
123	128	2
9	9	4
73	73	5
86	119	3
1	2	1
101	101	1
25	41	1
130	150	2
50	51	3
113	118	1
48	54	1
41	43	3
2	2	6
137	138	3
37	37	5
147	157	1
52	86	1
18	20	4
85	86	1
144	144	1
148	150	2
97	98	3
55	55	1
143	144	1
119	119	4
4	4	4
22	22	2
70	71	1
88	135	2
20	51	2
94	95	1
12	111	3
90	112	4
54	55	1
28	32	1
85	139	2
151	156	2
10	29	1
42	42	1
117	118	2
23	23	1
11	38	1
14	15	1
113	115	1
62	62	2
109	122	1
31	31	3
143	143	2
109	113	1
125	125	2
36	50	1
67	68	1
16	45	2
2	5	2
119	122	2
16	31	1
149	150	3
17	17	5
121	157	1
114	115	1
124	125	1
43	43	1
39	100	1
84	85	1
133	134	2
68	71	1
8	96	1
15	49	1
78	127	1
27	41	1
39	99	1
95	107	1
83	83	1
23	29	4
98	99	1
111	114	1
53	109	2
9	10	2
78	78	1
111	140	1
19	38	1
12	17	1
37	92	1
9	93	1
67	71	1
75	130	1
26	105	1
69	69	1
45	45	1
31	37	1
18	32	1
85	89	1
153	155	1
88	116	1
89	90	1
48	55	1
46	70	1
14	31	1
92	107	1
11	22	2
87	87	1
118	134	1
48	49	1
34	34	1
136	142	1
99	100	1
61	62	1
67	120	1
18	37	1
47	48	1
8	9	1
79	128	1
84	119	1
13	28	1
67	70	1
152	153	1
2	3	1
134	150	1
