86	86	6
76	76	9
68	68	13
154	154	5
100	103	9
55	156	5
15	15	6
4	242	4
40	41	10
77	78	1
31	31	3
85	85	13
163	166	3
18	74	1
9	9	1
94	171	1
44	45	1
188	236	2
236	237	1
234	234	5
206	206	7
166	166	6
110	117	2
59	60	5
44	44	9
10	11	5
108	108	6
160	210	1
246	246	7
163	245	2
169	169	16
182	201	2
164	218	8
207	212	5
20	20	12
60	167	1
151	156	4
15	20	1
156	156	16
8	8	10
115	212	3
226	231	4
220	220	13
54	54	4
223	223	8
58	58	13
64	64	2
24	25	4
115	115	12
167	167	6
229	231	4
43	43	17
160	218	3
97	97	4
185	216	4
78	240	1
157	174	1
25	25	7
11	11	8
218	218	4
89	89	5
191	192	5
35	35	1
185	210	1
94	102	2
193	194	4
81	113	1
109	109	10
120	120	2
20	180	1
107	108	2
229	229	3
76	78	4
3	40	4
99	99	7
5	5	5
165	210	4
98	98	5
189	189	6
185	200	5
14	66	1
186	186	4
66	67	3
222	222	4
159	159	15
174	174	13
4	245	4
235	236	1
82	83	1
192	196	4
91	91	3
219	219	8
152	158	1
29	29	4
163	168	2
56	56	4
159	160	10
24	24	3
70	70	3
153	153	8
36	63	4
248	248	2
175	175	4
183	207	3
241	241	5
213	213	8
84	92	1
232	233	5
212	212	6
161	162	3
178	179	3
162	234	3
240	240	7
190	191	2
157	157	11
236	249	1
18	19	5
74	74	6
163	163	5
35	38	3
7	7	5
171	171	10
155	155	13
211	211	11
94	94	8
14	15	4
75	87	4
197	235	4
199	199	8
64	68	7
208	208	17
183	183	12
65	73	4
169	189	3
79	79	10
155	204	1
4	241	6
185	217	6
73	119	5
233	233	4
112	114	2
193	195	3
71	72	3
110	110	6
162	168	4
175	176	5
223	224	4
197	198	1
158	158	6
111	111	12
110	167	1
215	216	4
35	48	3
189	190	1
159	219	3
113	113	8
167	182	4
70	74	2
26	85	1
109	110	3
118	118	10
87	87	2
111	243	2
76	77	3
181	181	10
17	17	8
247	247	6
226	226	5
208	209	6
185	185	5
74	83	1
170	170	7
117	117	11
71	111	6
107	107	5
182	182	10
21	21	4
66	66	5
207	207	7
19	19	5
95	95	12
8	77	1
23	23	9
104	104	5
49	49	19
36	64	1
96	116	1
164	164	5
17	18	1
113	118	1
92	113	4
230	230	9
116	116	15
101	101	4
70	157	3
214	214	7
228	230	3
190	190	4
77	79	1
163	164	4
215	215	1
34	34	9
165	166	3
60	60	2
174	175	3
81	81	4
238	238	2
203	204	3
33	38	1
161	161	9
153	175	2
212	213	1
75	77	2
22	34	3
110	111	4
73	114	2
231	231	13
207	211	2
239	239	3
115	229	1
166	182	3
102	103	2
205	205	13
118	237	4
232	232	5
202	235	3
6	6	5
41	41	1
192	192	3
242	242	7
158	164	1
28	29	11
201	201	21
179	180	2
10	26	1
116	117	2
203	203	5
75	90	1
159	171	4
202	202	6
146	146	3
75	111	2
71	118	6
187	196	2
11	15	4
21	52	2
197	197	4
59	59	4
245	245	4
105	105	3
166	170	5
50	77	1
239	240	2
32	32	4
61	120	1
112	112	5
158	182	4
209	209	11
67	67	5
198	198	8
95	96	2
107	206	3
28	28	3
165	165	9
67	68	3
187	189	3
14	20	3
175	181	1
85	104	2
237	238	1
213	214	3
37	69	4
55	78	3
42	43	1
167	184	1
18	18	4
71	71	5
62	62	8
188	189	2
211	230	1
178	240	2
81	90	1
10	10	3
223	230	1
243	244	1
151	155	3
199	225	1
249	249	1
92	92	3
180	180	6
208	214	2
3	119	1
176	190	1
156	159	2
173	173	4
210	210	1
237	237	13
76	115	3
177	177	15
76	84	1
43	44	2
217	217	7
47	110	1
98	99	3
55	56	2
164	171	1
156	206	2
209	211	4
30	31	2
95	181	1
37	37	1
187	190	2
221	221	4
244	245	1
30	30	3
5	118	1
152	152	2
87	88	4
22	22	10
115	117	2
90	93	1
176	176	8
118	120	2
61	64	2
3	3	2
194	194	4
207	218	3
167	192	1
208	216	9
228	228	2
164	245	1
97	101	2
94	95	3
242	243	1
177	184	1
191	217	1
218	237	1
156	162	2
206	207	4
222	227	2
78	80	1
36	41	1
216	216	11
46	52	1
235	235	6
75	75	5
200	200	6
151	154	3
53	76	1
157	173	1
78	78	2
179	179	6
193	193	7
84	112	3
162	169	4
39	39	4
25	26	2
27	28	11
215	217	1
230	231	7
168	169	5
110	118	2
10	28	4
63	63	5
171	247	1
210	248	1
16	112	2
83	83	1
16	154	2
80	80	2
119	119	5
162	163	2
173	174	4
225	228	2
171	172	2
225	225	2
168	178	1
40	155	1
192	194	2
240	241	3
194	197	1
50	50	3
94	164	4
192	216	4
184	184	4
205	207	1
243	243	1
209	236	1
241	242	3
196	196	7
181	182	1
33	33	3
73	73	3
202	203	2
152	175	1
218	238	1
106	106	5
233	234	6
111	112	1
195	237	2
216	218	1
24	153	1
185	186	4
18	112	3
171	207	1
53	53	2
170	177	4
51	57	1
238	239	1
69	69	4
57	57	1
182	244	2
244	244	4
163	183	3
208	218	3
167	247	2
170	189	1
186	192	1
149	149	1
184	198	2
172	220	3
113	115	2
100	101	2
172	172	6
159	191	4
149	182	1
14	14	3
224	233	1
37	64	2
5	48	3
103	103	3
50	63	2
172	173	5
8	42	1
150	150	6
195	195	6
18	37	1
50	51	4
217	218	4
162	173	3
115	156	2
178	178	2
36	36	2
245	247	1
60	61	2
51	51	5
7	117	1
209	210	2
186	188	1
37	63	2
206	220	2
83	90	2
60	62	1
38	67	4
184	236	1
188	188	8
11	233	1
158	192	1
53	77	2
199	200	3
12	12	2
4	4	6
168	168	3
165	170	2
12	20	2
113	121	1
227	227	1
19	56	2
93	95	1
177	178	3
145	145	2
114	115	3
78	79	5
168	221	1
102	104	2
26	26	2
61	166	1
154	155	1
177	182	1
86	113	2
246	247	4
84	91	1
107	118	2
224	224	3
58	167	1
93	93	5
6	83	2
52	52	1
36	37	1
118	167	2
89	115	2
156	236	1
169	170	2
6	7	1
176	177	8
51	246	2
34	37	2
77	77	2
144	193	2
79	93	1
114	114	3
16	18	1
69	71	1
114	164	1
43	84	4
154	156	2
55	68	1
72	75	5
163	213	1
146	147	1
188	190	1
81	82	3
145	158	2
218	219	5
175	245	1
111	238	1
204	204	5
159	169	1
174	247	1
77	112	1
160	160	4
29	47	2
162	162	2
202	204	1
73	74	2
159	177	1
237	242	1
228	229	2
108	109	1
29	30	1
170	232	1
214	238	4
2	3	3
159	164	2
152	176	1
20	110	1
40	40	3
216	217	1
47	72	1
197	243	1
218	240	1
194	196	1
106	120	1
15	16	1
78	118	1
73	113	1
159	161	1
197	209	2
231	234	1
105	107	2
167	245	1
196	197	2
110	179	1
176	180	1
233	236	2
215	243	1
211	212	1
149	150	2
47	47	6
179	239	2
117	166	2
190	194	1
84	85	2
47	50	1
236	236	1
189	192	1
79	160	1
1	89	1
117	167	1
167	179	1
56	58	1
12	13	1
52	53	1
158	184	1
171	245	1
207	209	1
95	164	2
80	81	1
119	144	2
7	87	1
27	32	2
45	45	2
147	149	1
9	10	1
164	166	1
16	16	1
199	235	3
12	15	1
159	192	1
209	235	2
193	196	1
46	46	1
175	177	3
4	49	1
67	179	1
221	229	1
157	168	2
110	112	1
195	198	2
194	195	2
155	168	1
106	107	1
221	222	3
64	70	1
2	2	1
60	65	2
84	84	2
48	51	1
100	100	2
158	190	1
0	0	1
191	191	1
85	87	1
190	210	1
104	107	1
27	46	1
210	211	1
55	55	2
115	116	2
88	93	1
34	35	1
155	235	1
35	57	1
78	111	2
68	70	1
227	228	1
89	90	2
1	1	1
46	110	3
198	200	1
210	237	1
46	47	1
158	176	1
182	246	1
109	114	1
185	203	1
69	112	2
96	96	1
171	179	1
17	55	1
183	185	1
168	179	1
213	220	1
88	88	1
60	211	1
209	247	1
82	82	1
17	203	1
38	39	1
197	219	1
187	187	1
182	183	1
6	32	1
