144	166	2
164	165	2
8	12	3
11	11	9
113	114	5
22	23	11
104	104	8
121	121	6
64	64	14
127	127	8
117	117	2
8	8	12
46	46	9
25	25	12
33	34	12
115	116	2
73	73	12
10	10	12
86	86	9
106	106	13
44	44	8
1	2	6
98	100	2
37	37	22
72	72	9
123	149	1
89	105	2
13	13	10
150	152	6
98	98	2
58	70	3
85	85	16
96	99	1
137	157	5
134	134	5
66	66	5
16	38	2
136	136	19
99	117	6
1	1	9
137	137	15
84	106	5
80	80	4
53	56	1
6	6	11
67	67	4
135	135	11
127	128	1
111	111	12
95	96	2
150	151	1
15	20	5
163	163	3
109	109	7
120	165	1
148	148	10
66	67	2
142	142	9
159	159	16
97	97	9
36	36	28
41	41	11
0	0	6
3	25	1
150	150	8
36	37	1
76	88	1
54	54	6
4	4	7
65	68	6
140	140	10
48	49	5
168	169	7
26	26	5
74	74	14
78	79	7
16	16	16
69	69	7
55	74	2
48	48	5
89	89	7
143	143	5
47	47	10
144	145	2
74	75	6
164	164	3
27	27	6
4	5	3
121	122	1
53	54	8
45	45	4
133	169	1
34	35	6
154	155	2
38	38	11
151	151	12
3	21	4
139	139	10
6	7	10
129	129	3
17	17	4
34	34	4
99	118	5
114	114	5
21	21	9
35	35	12
43	43	6
52	53	5
27	28	10
37	42	1
65	66	2
96	96	8
124	124	3
149	149	6
100	100	9
147	148	2
90	91	5
102	102	10
35	36	11
52	52	15
166	166	6
103	103	9
12	12	8
169	169	8
87	88	3
140	147	1
142	147	3
146	146	4
88	88	6
56	56	14
5	5	11
24	25	1
91	92	7
81	83	2
106	107	3
130	130	13
154	161	1
133	133	11
112	113	6
23	23	4
136	138	1
144	144	4
1	26	1
87	89	6
110	111	1
26	27	3
82	82	27
76	76	12
107	107	9
55	55	7
138	139	7
75	81	2
3	90	2
153	155	1
158	158	8
16	25	1
45	71	2
92	104	1
9	9	10
20	21	2
3	4	6
75	76	1
48	52	1
121	123	3
95	102	2
147	147	3
116	116	5
128	128	5
157	166	1
75	75	12
131	131	8
156	156	2
108	108	9
153	153	9
53	53	5
122	122	3
150	159	3
125	128	2
67	71	1
109	112	3
105	106	4
143	144	2
2	2	15
79	80	6
14	14	5
119	120	4
162	162	6
132	133	3
20	20	8
68	69	4
81	82	4
23	24	3
17	18	2
6	11	4
84	84	8
119	119	11
40	40	1
79	82	1
93	93	15
144	159	3
112	112	9
7	7	9
170	170	7
21	22	4
126	147	2
41	42	3
125	126	3
77	79	4
16	17	1
165	165	4
100	101	2
56	57	5
90	106	2
15	24	3
11	12	1
119	145	3
83	83	1
73	74	4
157	167	5
15	23	1
38	48	2
83	86	3
50	50	6
87	87	2
49	49	2
101	101	2
130	146	3
24	24	11
71	71	9
111	112	3
19	19	3
77	77	5
120	162	2
167	167	4
81	81	7
94	94	6
115	115	5
139	140	2
42	42	5
4	25	3
131	147	4
95	111	3
3	5	2
134	157	1
101	102	3
74	76	2
138	138	4
72	73	3
89	100	1
4	86	3
37	38	6
12	164	2
120	120	2
144	168	1
142	143	1
38	164	2
97	98	4
66	68	1
158	167	3
44	45	5
138	157	3
90	90	5
7	22	1
26	35	4
3	3	6
49	50	3
28	28	3
70	70	3
71	73	3
9	13	1
132	154	5
76	77	1
126	126	6
140	149	1
95	95	4
112	126	4
12	15	2
22	24	2
39	40	2
160	160	4
119	140	1
118	118	1
137	143	4
33	35	1
102	104	1
115	117	3
0	34	2
15	22	2
126	127	2
117	118	2
93	94	4
153	154	3
10	165	2
85	87	1
125	125	14
69	70	3
69	71	2
132	153	6
62	62	1
15	15	4
39	39	4
113	113	2
141	141	3
66	69	1
83	84	1
105	105	10
146	147	5
114	115	1
110	110	4
86	87	2
157	157	3
0	1	2
8	9	4
147	153	2
7	10	4
62	69	1
109	110	2
138	140	1
84	85	1
134	135	5
94	97	1
159	160	3
10	17	1
116	118	1
4	121	1
101	103	5
156	157	3
145	152	1
145	145	2
143	158	1
13	23	1
57	57	4
162	164	2
129	130	2
169	170	3
5	6	1
2	16	1
78	78	1
104	106	2
141	157	1
43	44	2
7	24	3
47	52	1
161	161	2
40	165	3
62	63	5
168	168	8
132	132	4
22	22	1
42	43	1
91	93	1
122	123	1
151	152	5
87	106	1
63	64	1
137	138	1
112	116	2
145	163	1
13	15	2
92	96	1
63	63	1
138	158	2
131	132	1
163	164	1
110	112	3
54	56	2
49	51	1
56	72	1
96	98	3
119	122	2
80	81	3
15	16	1
47	49	2
6	18	2
105	114	3
148	154	1
7	11	1
152	165	1
38	39	1
45	46	1
113	125	1
100	122	1
161	162	1
40	164	2
123	123	2
150	158	1
93	95	1
104	115	1
41	46	1
17	25	4
16	41	2
152	152	2
5	89	3
20	24	2
123	124	1
68	68	1
63	69	1
146	149	1
51	51	5
12	13	1
94	96	1
107	111	1
94	101	2
91	94	1
5	7	1
27	34	2
136	169	2
45	49	1
55	56	2
107	108	1
64	69	1
14	15	2
92	92	1
144	167	3
18	19	1
44	54	1
155	155	2
79	79	3
78	80	1
96	124	1
113	118	1
11	13	1
70	74	1
88	89	1
101	114	1
2	3	1
142	144	1
8	37	1
91	91	1
144	160	1
8	22	1
47	48	1
9	10	1
159	166	1
15	19	1
132	147	1
0	139	1
108	111	1
99	99	1
21	23	1
162	163	1
103	104	1
53	55	1
42	44	1
98	99	1
18	18	1
