131	132	4
104	115	8
107	122	8
29	34	1
74	74	6
87	87	4
95	134	4
107	110	4
89	100	4
85	86	2
13	21	2
118	118	3
124	126	4
80	80	8
80	84	9
32	32	2
18	18	6
31	31	3
128	128	9
137	137	10
35	35	4
114	114	7
1	23	1
135	135	5
124	124	8
0	15	2
76	76	6
20	20	9
4	4	5
27	27	2
121	121	11
122	123	2
123	124	6
121	123	5
138	138	12
110	110	3
97	97	6
121	122	4
130	130	18
127	131	2
12	25	5
137	140	6
119	119	17
117	119	9
108	110	5
124	125	7
118	119	6
98	98	14
95	96	4
122	122	17
96	96	13
88	88	9
123	123	4
0	7	5
91	91	8
25	26	1
38	107	1
133	134	1
138	139	4
78	78	3
126	126	7
11	11	6
116	122	2
140	140	9
10	10	4
132	132	8
76	77	4
128	129	1
136	138	4
27	31	1
112	112	7
80	114	1
89	89	8
91	94	1
136	136	9
73	100	3
73	73	3
28	28	13
102	104	1
92	95	4
14	14	4
34	35	5
108	109	7
8	23	3
92	92	5
99	121	1
22	22	2
9	9	10
109	109	5
92	96	2
110	111	8
102	102	10
118	122	2
24	24	2
134	134	8
22	23	2
101	101	6
120	120	3
127	127	7
139	139	9
73	75	4
37	37	1
15	26	5
31	32	4
79	86	1
136	137	9
125	125	24
13	13	1
104	108	3
2	3	4
4	5	3
11	13	2
117	118	2
114	115	1
113	113	3
71	74	3
93	94	2
23	32	1
102	122	1
83	83	5
104	105	1
127	135	2
111	111	10
111	112	1
5	6	5
30	31	2
105	107	3
98	99	1
105	106	1
102	124	1
25	25	4
74	75	5
104	104	2
90	90	5
107	107	2
86	86	1
3	4	3
96	123	3
129	140	3
29	29	1
132	133	5
81	81	4
7	14	1
77	77	3
21	22	2
7	7	4
1	1	6
82	82	2
77	78	1
92	114	1
87	99	2
106	107	1
129	129	1
34	34	3
15	16	4
16	16	4
79	83	1
87	88	4
84	86	3
37	85	3
112	118	2
95	114	1
5	5	3
108	108	4
136	140	1
13	14	2
71	72	2
123	125	4
120	123	1
8	8	5
127	137	4
16	17	3
10	11	3
99	101	1
103	103	2
96	120	1
106	106	3
79	79	1
90	97	1
72	72	4
120	122	1
28	29	4
0	0	2
36	80	2
104	114	1
2	2	6
88	131	1
88	89	2
29	30	1
94	94	2
130	139	1
21	21	3
6	6	1
131	131	3
83	84	3
92	94	2
115	115	5
133	133	1
38	38	1
100	100	2
81	84	1
30	30	1
77	80	1
78	79	3
79	80	1
129	134	4
7	9	2
73	108	1
71	71	2
120	121	2
97	98	1
9	14	1
19	19	1
17	17	3
95	95	2
101	102	1
22	32	1
91	112	1
20	21	1
99	99	1
37	38	1
129	130	1
