90	90	9
18	18	6
20	20	9
40	60	3
55	55	5
123	123	3
62	62	6
38	39	4
31	32	6
87	92	3
126	134	3
99	100	5
112	112	3
111	111	2
16	16	7
110	117	3
56	56	4
68	69	4
125	125	3
75	75	20
36	36	10
127	127	7
21	21	6
2	2	5
38	69	4
17	17	6
8	8	13
4	5	5
32	32	8
26	26	8
88	93	2
93	93	10
22	29	2
63	75	3
10	10	7
69	69	4
38	121	2
8	26	5
34	77	5
124	124	2
110	110	6
37	42	1
73	74	2
15	16	3
115	115	8
89	90	2
27	93	1
33	33	3
66	66	12
60	61	3
77	77	3
57	57	7
73	73	2
3	3	10
79	79	4
48	49	8
30	79	2
45	45	8
93	94	6
114	129	4
67	67	1
29	31	5
6	6	5
74	74	20
76	76	10
56	78	3
32	80	2
116	116	5
35	79	2
62	71	2
26	38	7
1	1	2
25	134	9
28	28	5
12	12	10
50	50	4
27	91	2
90	95	1
62	70	2
4	100	4
94	94	6
61	71	1
20	38	3
7	7	16
47	64	3
88	88	3
36	81	2
60	60	5
71	71	8
109	110	2
37	37	3
8	49	1
14	15	4
4	4	5
43	43	5
122	122	5
28	61	2
114	130	1
32	33	1
29	49	3
10	89	6
70	70	1
23	23	2
89	89	2
42	42	7
95	96	4
124	127	5
80	80	2
26	27	3
34	34	7
121	121	4
133	134	1
35	75	5
85	85	7
126	126	3
81	81	5
12	13	2
11	93	5
103	103	4
26	30	2
124	129	1
11	29	3
100	100	6
101	101	5
15	21	2
125	126	2
9	9	6
90	91	4
11	11	7
25	26	2
78	78	10
91	92	5
27	47	3
79	80	2
44	44	3
32	82	3
95	101	2
114	115	5
46	46	6
66	67	1
68	68	4
91	91	3
59	59	4
47	47	3
14	14	8
97	98	4
15	60	2
117	117	5
38	38	4
80	81	3
69	72	1
13	14	4
131	131	6
65	65	6
2	3	4
16	21	2
0	67	1
15	58	1
77	78	4
32	78	1
99	101	1
49	57	2
3	4	2
5	5	3
36	80	1
126	127	4
50	56	5
119	119	5
40	83	4
9	10	1
27	27	5
23	29	2
23	34	1
36	122	1
95	95	2
84	85	1
9	91	1
25	82	4
83	95	2
10	67	1
38	81	2
8	35	1
10	14	1
110	111	4
106	106	1
42	60	3
84	84	6
63	63	4
24	84	1
2	68	2
102	102	5
44	45	1
8	14	1
25	47	4
48	48	3
49	49	1
39	69	2
3	6	4
18	19	4
112	117	2
96	96	7
100	105	2
29	29	3
79	82	2
74	76	2
6	47	1
2	16	2
72	72	1
113	113	1
82	82	1
16	63	1
109	111	1
28	47	1
71	72	1
56	57	2
61	61	4
35	35	1
62	63	1
131	132	5
120	120	4
35	36	3
78	79	3
45	64	1
96	106	3
64	64	2
58	59	2
132	133	3
26	91	3
107	107	2
63	65	2
35	37	2
106	121	1
128	128	3
83	84	2
67	119	2
46	62	2
16	80	1
83	83	3
111	113	2
92	92	3
99	99	2
125	129	1
51	83	1
30	33	3
76	77	4
63	64	1
29	47	1
13	13	6
11	83	4
3	13	5
4	7	1
126	131	1
30	30	2
69	70	2
47	48	1
58	58	1
85	86	1
91	97	1
9	78	2
15	15	2
133	133	1
92	98	2
87	89	2
55	58	1
130	130	2
26	82	1
22	30	1
81	82	2
26	129	1
116	117	1
17	134	1
39	39	2
80	82	2
29	69	1
41	42	1
8	77	1
90	101	1
44	50	1
5	48	1
96	100	1
75	76	1
27	28	1
90	92	1
27	128	1
40	41	1
23	26	1
28	112	1
97	97	1
47	62	1
61	63	1
45	99	1
45	72	1
