143	143	14
52	68	2
141	141	8
131	131	8
17	18	10
145	145	9
23	26	6
67	68	7
37	43	4
70	71	3
41	41	7
72	73	8
68	68	21
169	169	7
132	134	4
92	92	9
149	149	12
17	17	17
85	86	2
146	146	10
129	129	17
130	132	2
172	172	6
25	25	13
88	88	12
137	147	9
66	66	7
96	96	4
24	24	15
66	67	11
7	16	6
64	64	6
136	136	17
2	2	6
78	78	5
47	47	13
9	10	5
38	38	17
93	99	1
40	40	18
113	115	7
89	89	5
43	43	16
7	7	11
133	135	7
4	4	8
110	115	1
37	37	33
4	42	2
12	14	2
5	21	4
79	79	14
178	178	4
71	71	9
30	30	9
8	17	4
13	13	11
142	142	11
138	163	2
173	173	4
122	122	13
165	165	10
22	24	5
35	48	5
87	87	3
156	158	3
68	100	3
150	151	6
36	36	8
124	177	3
81	82	1
126	130	3
74	74	9
34	40	1
32	32	11
31	32	14
27	35	3
98	98	1
72	99	2
117	117	6
75	75	5
160	160	3
108	108	7
100	100	3
134	136	5
156	156	9
33	33	12
118	118	7
147	147	6
19	20	4
127	127	10
78	81	3
100	124	1
176	177	8
77	77	13
28	29	6
23	45	3
21	22	2
77	118	4
182	182	3
63	106	1
28	28	12
21	24	5
132	132	6
103	113	6
19	19	12
104	106	3
11	58	2
73	80	3
126	126	6
46	46	3
186	186	6
153	153	17
139	139	13
5	9	5
34	34	10
56	57	2
82	82	12
92	93	7
87	89	3
103	103	10
18	18	5
115	115	12
121	121	14
41	48	1
145	148	2
35	37	3
88	89	2
57	57	9
190	190	7
23	23	7
0	173	4
163	163	6
110	110	5
116	119	8
48	48	6
0	0	6
55	56	11
73	73	3
187	187	1
152	152	6
148	179	4
67	71	3
189	189	4
26	26	12
164	164	18
6	6	12
60	60	9
162	163	6
70	80	3
12	12	7
61	77	3
136	137	2
154	158	7
22	22	6
129	130	11
150	150	17
2	24	1
159	159	10
105	106	7
135	135	3
78	85	7
44	44	5
80	80	16
148	181	1
5	5	8
86	94	1
182	183	4
61	61	4
134	134	5
3	7	5
157	157	15
33	34	1
93	93	5
87	153	3
86	86	10
123	123	6
4	5	4
62	82	1
72	72	10
99	99	9
4	57	3
138	162	2
125	125	4
154	155	4
105	105	4
25	26	2
102	113	2
123	124	1
3	3	3
21	23	6
167	167	12
20	23	4
7	8	1
62	65	4
39	39	4
97	97	8
46	47	8
17	22	2
99	119	7
20	21	3
10	36	2
114	114	10
52	53	3
84	96	3
93	94	3
144	145	1
111	134	1
151	153	5
34	43	1
140	143	1
153	165	2
27	27	4
27	30	4
131	132	8
87	124	2
142	143	3
92	95	2
92	94	4
61	62	3
31	31	6
140	140	14
148	149	4
114	115	7
56	56	11
102	102	8
150	162	6
28	31	2
42	42	8
156	164	3
61	63	1
141	142	4
102	141	2
83	83	7
43	47	6
175	176	4
79	93	3
85	85	11
155	156	3
139	143	3
166	167	8
29	29	9
113	113	8
117	118	1
107	125	2
97	98	2
111	111	5
151	183	1
112	112	4
171	173	2
151	151	8
110	111	3
30	31	3
40	48	1
53	70	2
59	80	1
107	110	4
15	15	4
10	12	2
89	110	1
95	119	3
71	72	3
91	93	5
63	63	4
14	14	2
58	101	2
95	95	11
124	124	7
176	179	2
119	119	5
47	48	1
162	162	5
108	138	3
58	59	1
16	16	7
20	22	5
81	98	2
93	101	3
60	62	6
133	133	7
35	36	2
130	130	7
175	177	2
81	81	9
21	21	1
177	178	2
110	120	2
120	120	6
86	143	3
55	55	2
128	128	2
12	13	7
106	106	8
109	129	5
27	29	2
20	20	1
138	157	2
182	188	1
62	62	2
10	17	5
137	137	13
60	64	1
11	11	6
107	109	2
148	150	5
181	181	1
136	146	3
65	109	2
27	28	3
94	95	2
84	84	14
185	186	3
32	33	2
113	123	3
115	116	1
90	91	1
101	101	6
154	156	1
115	117	4
121	122	4
163	164	4
180	181	3
1	1	2
73	118	1
123	142	6
111	117	3
25	38	2
78	80	3
52	70	1
100	126	1
68	95	1
68	94	5
130	131	2
180	180	2
71	74	2
11	16	2
82	117	2
73	99	3
113	135	7
2	7	2
2	3	3
138	138	6
43	45	1
136	147	3
125	129	1
79	94	2
90	110	1
155	160	1
175	175	1
60	61	1
77	95	3
144	144	2
8	8	9
54	55	4
2	39	1
15	16	2
104	104	2
135	137	4
67	67	6
65	111	2
58	58	7
8	16	1
91	91	4
37	38	1
60	117	1
58	79	1
36	37	3
106	107	3
18	22	1
94	94	3
65	107	2
30	32	1
19	24	1
37	45	3
53	54	2
127	128	1
42	43	2
70	92	4
77	92	1
161	162	3
121	148	2
61	64	2
136	145	3
9	9	1
84	85	6
130	135	1
52	52	3
34	35	3
157	161	2
36	41	3
6	8	3
146	147	2
117	119	2
109	131	1
80	100	1
81	83	1
32	35	2
171	171	2
83	124	3
6	173	2
113	114	5
148	148	2
179	179	1
79	80	2
60	71	1
140	141	3
29	30	4
80	81	1
150	153	1
42	44	1
159	160	1
179	180	2
73	98	4
10	10	3
63	65	2
155	155	1
185	185	1
6	16	1
170	170	1
8	14	5
23	24	2
155	181	1
82	115	2
138	144	2
62	63	1
16	18	1
128	129	1
116	116	1
188	190	3
147	149	2
31	125	1
160	162	1
153	155	1
110	145	3
59	61	3
122	149	1
137	146	5
147	148	3
159	189	1
96	97	1
37	47	1
90	90	2
111	137	1
3	4	4
125	131	2
76	76	4
35	39	1
6	15	1
76	79	1
65	65	2
1	3	2
102	103	1
112	114	1
143	151	1
99	118	2
3	16	1
101	102	2
57	79	2
70	70	1
149	150	1
65	117	2
86	120	3
97	118	1
54	54	1
43	44	1
119	129	1
132	133	2
53	53	3
134	146	1
48	53	1
58	78	1
85	128	2
107	107	1
112	119	2
17	45	1
153	183	2
154	159	1
153	174	1
3	58	1
28	33	2
5	6	1
167	168	2
78	100	3
124	125	1
86	87	2
107	130	1
24	25	1
45	46	1
22	42	1
102	104	1
106	134	2
33	45	1
18	19	1
122	161	1
3	22	1
57	72	1
89	111	1
99	117	1
183	183	1
