103	104	2
130	147	4
104	104	10
88	88	10
2	2	24
138	138	9
39	39	18
26	28	2
118	118	3
29	31	7
5	7	1
134	134	7
41	43	2
44	151	1
91	91	5
6	6	32
115	115	10
111	126	4
19	20	15
122	173	2
73	73	13
22	45	9
29	29	32
136	136	19
89	102	4
129	130	7
166	166	10
80	80	7
18	23	2
45	45	23
17	17	15
12	35	5
120	120	6
137	137	9
160	160	6
93	93	15
30	30	20
106	106	16
38	38	34
33	82	4
126	153	4
146	147	2
43	44	5
120	148	2
27	27	25
35	35	31
18	32	1
107	108	6
23	23	18
18	20	13
81	82	11
2	3	12
130	131	7
68	68	11
118	153	2
165	166	5
101	101	2
14	14	11
28	29	3
65	136	1
11	11	41
15	18	3
23	24	11
80	96	5
119	120	1
128	128	11
32	32	29
59	59	10
145	152	1
99	130	3
17	26	1
10	14	4
61	61	13
127	127	10
13	14	7
131	131	4
25	26	12
2	8	2
81	87	4
8	12	4
52	52	7
115	116	4
8	9	15
3	3	20
144	146	5
124	125	4
34	35	5
18	33	2
86	86	11
121	155	5
7	9	4
54	54	21
24	24	20
178	178	11
26	26	22
149	149	3
27	28	16
129	129	7
16	17	5
15	43	5
154	154	4
98	108	4
50	50	13
110	111	4
36	36	20
169	169	11
95	95	20
3	4	23
29	64	3
15	15	19
22	22	21
132	132	9
51	51	9
167	168	8
21	21	12
42	42	18
31	32	5
140	169	3
19	21	4
139	139	11
13	13	23
12	13	13
63	64	2
83	85	2
7	7	14
19	19	19
18	19	13
91	93	4
35	37	8
141	141	17
99	110	3
64	64	3
22	160	7
24	26	5
0	1	6
33	33	33
114	131	3
68	135	1
109	176	4
6	42	2
179	179	5
158	168	2
121	157	1
80	81	8
102	102	10
31	35	4
46	46	5
174	174	13
91	92	11
63	65	4
25	25	17
78	179	1
15	16	9
75	104	1
107	109	8
19	38	1
163	163	18
44	148	1
77	158	3
152	153	4
8	8	24
122	172	1
77	78	2
112	140	1
11	12	11
2	7	3
71	71	15
5	5	20
53	60	1
31	75	1
55	60	1
29	60	3
39	40	11
5	33	6
167	169	4
130	140	2
100	100	7
145	145	6
103	114	5
107	107	17
28	31	6
151	152	1
67	101	3
3	22	2
41	41	18
100	110	6
7	8	11
65	74	3
3	23	5
13	20	8
121	121	7
34	34	22
123	172	1
11	14	3
119	119	15
66	83	4
61	178	3
97	103	4
163	164	5
92	92	10
158	169	1
91	141	5
171	171	4
31	44	3
54	126	3
11	18	1
53	53	18
140	152	4
87	87	14
65	65	9
103	145	5
114	114	8
82	82	7
56	56	13
18	18	10
131	132	3
40	148	3
140	140	7
121	122	4
97	97	8
29	35	2
90	90	6
101	174	5
4	4	16
159	159	12
115	118	3
82	87	4
50	117	3
2	19	2
102	137	2
74	74	7
62	86	2
100	161	1
31	100	2
9	9	19
76	105	3
123	156	4
62	62	13
14	85	2
44	44	9
28	28	9
133	133	19
99	99	7
100	122	4
13	44	6
86	109	2
67	68	9
13	163	2
96	97	2
104	106	4
3	5	4
151	153	5
31	31	30
96	96	8
81	81	5
102	108	3
87	139	6
99	101	5
98	98	2
46	66	1
57	58	3
65	137	2
151	151	5
156	156	8
65	66	1
167	167	10
66	86	5
73	80	4
173	173	6
94	104	1
110	110	11
2	16	4
37	37	15
149	150	4
12	12	24
62	63	5
11	15	2
74	79	2
133	134	7
176	176	8
10	10	12
25	45	2
164	164	7
143	150	1
134	137	1
53	135	1
89	108	3
57	73	4
110	154	4
79	79	2
108	108	16
170	170	7
9	21	6
113	113	7
76	78	5
152	152	11
76	76	9
172	172	11
18	116	1
84	105	6
65	68	6
97	153	3
112	112	12
33	91	1
21	26	4
60	60	8
40	65	1
168	168	11
101	114	3
97	100	3
112	116	1
40	40	11
72	72	2
37	38	5
76	176	6
157	163	3
15	20	7
95	154	1
153	154	2
124	124	7
66	80	2
135	135	7
22	131	2
123	123	16
66	66	3
3	7	2
32	37	5
19	22	2
41	42	4
101	110	4
88	131	6
67	67	2
113	114	5
125	125	5
150	150	18
147	148	2
109	109	17
142	142	9
139	146	2
118	152	1
115	174	1
147	147	6
91	95	2
72	132	1
24	25	7
122	128	3
165	165	18
57	59	1
4	5	5
117	161	3
5	6	11
20	20	12
126	127	2
38	78	2
159	168	2
28	30	5
23	33	2
35	80	2
170	171	2
78	95	1
40	43	4
111	147	2
33	38	2
17	40	2
161	161	16
84	84	3
78	78	14
117	174	3
76	173	3
62	66	1
59	179	1
108	110	1
109	110	3
84	87	3
148	148	4
3	6	3
8	17	3
105	105	4
79	80	5
158	158	7
2	4	7
61	63	3
52	57	5
1	1	17
89	89	3
29	42	3
81	85	3
65	96	4
20	36	4
58	58	6
30	31	11
98	110	2
97	98	1
128	129	4
58	59	4
33	36	6
100	129	2
44	46	3
163	165	1
10	36	4
73	78	1
33	40	2
153	153	4
171	172	1
18	161	2
100	109	1
82	83	2
96	154	7
11	41	1
129	158	3
137	139	7
122	123	3
43	43	7
34	41	1
65	67	5
111	116	4
118	119	2
156	157	4
160	162	1
5	42	2
55	55	7
117	117	7
115	117	3
102	107	2
111	111	3
177	179	1
9	22	3
118	120	2
9	10	1
83	86	1
122	122	3
43	153	1
57	57	3
29	30	6
128	152	1
39	42	1
146	146	5
42	45	1
115	129	2
150	151	2
17	32	7
3	19	4
31	50	2
53	54	4
131	141	1
16	16	4
162	162	5
36	40	3
12	16	3
144	156	2
154	155	7
51	73	1
26	27	1
4	8	2
42	44	3
13	141	3
105	106	4
132	180	1
22	26	5
17	18	2
85	85	7
12	21	1
110	156	1
33	34	3
58	89	3
1	10	2
168	169	4
139	180	6
166	168	3
35	36	5
122	162	1
90	93	3
36	44	1
99	159	3
103	103	5
60	148	2
25	64	1
144	145	2
145	146	3
13	165	2
23	28	1
159	160	3
151	155	3
75	75	6
20	22	1
32	34	1
116	117	1
32	44	1
12	14	2
98	99	4
142	143	2
77	77	10
57	75	1
91	103	2
94	108	1
65	114	1
155	157	2
26	74	1
40	52	3
106	112	1
123	125	7
157	157	5
97	109	1
1	2	2
36	37	3
158	159	4
89	107	2
120	155	1
135	136	5
82	100	1
32	41	3
44	45	6
107	147	1
87	107	3
86	88	2
8	11	2
52	53	3
130	132	2
20	42	3
10	31	2
63	63	6
94	114	2
68	87	1
112	113	2
140	146	1
0	0	5
119	121	5
2	5	2
10	11	6
124	140	3
51	112	2
90	106	2
162	174	1
126	151	1
95	96	2
12	42	1
162	166	2
72	73	1
116	140	1
72	74	2
110	115	2
44	114	3
25	28	2
129	146	8
20	35	2
121	163	3
134	135	3
180	180	1
23	26	2
13	15	3
75	157	1
107	154	3
14	15	3
140	143	1
6	43	1
8	10	1
143	143	1
83	84	3
161	162	2
0	36	1
6	33	1
25	27	1
34	40	1
117	175	1
25	43	1
38	43	3
77	179	1
117	118	3
4	20	1
94	143	5
53	56	3
94	103	3
102	110	3
12	18	1
149	172	1
58	142	3
65	101	1
41	153	1
89	90	4
169	170	2
77	174	2
110	148	1
60	96	1
86	87	2
107	148	6
61	179	1
33	85	3
1	38	2
15	19	3
22	38	1
106	107	4
66	96	1
113	120	1
18	44	2
8	34	1
63	66	3
96	137	1
17	23	1
42	49	1
76	141	1
10	21	2
122	139	1
84	85	1
116	126	2
99	102	2
116	152	1
71	132	1
131	173	1
43	53	1
118	126	1
120	121	4
19	33	1
83	83	3
83	105	1
100	128	1
164	170	2
166	170	3
6	7	4
98	107	2
104	105	2
94	94	7
31	34	1
23	98	1
90	91	2
46	67	1
178	180	3
56	78	1
0	17	1
129	140	1
25	72	1
10	15	1
19	44	1
18	42	1
24	136	2
14	17	1
155	155	2
26	34	3
160	161	1
51	95	2
55	179	2
97	105	1
111	149	2
39	149	1
68	74	2
144	148	2
17	178	1
98	101	2
91	142	5
172	173	1
87	142	1
156	159	2
26	83	2
71	72	2
26	31	1
64	72	1
126	126	3
93	132	1
102	103	2
35	66	2
140	157	1
133	137	1
5	16	2
89	92	1
99	100	4
9	11	1
22	23	3
16	24	1
68	148	1
96	115	2
20	38	1
145	147	1
9	12	1
10	35	1
94	133	1
14	28	1
23	30	2
161	175	1
147	167	1
24	33	3
30	73	1
63	68	1
109	168	4
177	177	1
177	178	2
4	7	1
104	111	2
92	95	1
97	99	1
79	134	1
10	42	1
28	75	1
130	156	1
67	83	1
175	175	1
41	53	1
54	55	1
119	160	2
7	15	1
53	94	1
22	33	1
13	23	1
39	41	1
5	41	1
60	95	1
3	26	1
11	42	1
51	53	1
75	101	1
103	175	1
10	20	1
107	120	1
34	106	1
25	32	1
110	166	1
51	56	1
32	76	1
129	157	2
66	101	1
129	152	2
29	78	1
16	178	1
114	153	2
117	121	1
116	116	2
97	107	1
45	49	2
130	130	1
32	36	1
108	168	1
61	138	1
91	94	1
2	15	1
50	51	1
143	145	1
129	147	1
143	147	1
18	36	3
126	128	1
75	160	1
56	76	2
22	25	1
156	158	1
88	141	1
18	43	1
25	44	1
7	19	1
10	19	1
28	43	1
29	73	1
68	84	1
96	144	1
112	118	1
113	173	1
42	54	1
