65	75	2
78	78	6
88	88	10
33	33	3
91	91	14
39	39	10
74	74	6
46	46	8
27	27	9
37	38	2
50	50	11
62	63	6
55	55	4
34	40	5
63	63	5
89	89	7
41	41	4
53	53	2
79	97	2
79	79	6
61	61	14
41	42	2
81	81	6
62	62	11
70	70	11
52	68	3
80	80	10
44	44	13
45	90	1
52	52	6
85	85	9
91	92	6
45	47	1
51	51	10
57	57	11
86	87	5
52	53	2
24	24	2
22	22	2
82	82	3
66	66	4
86	86	9
76	76	3
72	78	2
73	73	9
99	99	8
55	91	1
89	92	2
86	88	5
26	26	2
99	100	3
94	95	3
43	43	17
38	38	4
69	69	9
35	35	8
60	61	4
71	71	2
54	54	3
22	61	3
97	97	6
45	45	7
101	102	5
73	74	1
97	98	4
67	91	1
28	28	3
64	64	6
59	59	8
30	30	7
29	30	3
87	87	5
100	100	2
88	89	1
40	40	4
65	65	10
23	26	4
95	95	11
43	44	3
85	93	1
68	68	9
92	92	6
77	77	5
98	98	12
32	33	1
76	77	7
96	96	6
48	48	3
94	94	3
47	48	1
49	50	7
42	42	14
89	91	4
87	88	2
58	60	2
48	57	3
54	102	2
84	84	5
87	93	4
49	64	1
96	97	5
41	49	1
46	47	3
37	37	5
67	67	5
91	93	3
86	93	2
79	98	2
59	70	1
95	97	1
46	48	1
61	62	3
35	38	2
49	49	7
39	40	3
45	62	6
58	58	4
67	69	2
36	36	3
59	62	3
74	75	1
47	47	4
61	65	1
90	90	3
80	89	1
42	43	4
79	80	1
25	25	3
60	60	8
58	61	1
72	72	4
84	88	2
32	32	2
23	61	4
75	75	4
83	83	5
92	93	1
38	39	2
64	72	4
41	43	1
101	101	2
56	57	3
95	100	2
71	78	1
48	49	2
86	92	2
51	52	2
94	97	2
41	102	1
26	37	2
89	90	2
31	32	1
102	102	1
80	81	2
63	64	2
85	101	3
86	89	2
93	95	1
56	56	2
34	34	3
31	31	2
45	46	2
70	77	1
23	23	3
35	37	2
72	76	1
65	74	1
100	101	3
68	69	2
57	72	1
95	96	1
46	54	1
31	60	1
57	64	2
54	55	1
23	24	1
93	93	1
89	102	2
92	94	1
80	82	1
32	43	2
24	25	2
89	101	1
47	49	1
40	41	2
80	97	1
28	36	1
87	89	1
94	101	1
57	61	1
31	62	1
71	72	2
45	57	2
75	78	1
67	68	1
69	71	1
