136	136	1
215	216	14
70	70	1
23	60	1
64	65	7
197	227	1
29	29	6
10	11	3
4	4	2
117	117	4
5	5	4
53	67	2
53	54	2
0	0	10
104	105	4
234	235	1
15	16	9
142	142	2
123	124	1
225	227	6
177	177	4
161	161	3
201	201	10
59	59	7
160	205	1
10	16	3
218	218	2
49	49	4
52	52	14
34	35	8
120	157	4
40	41	1
80	81	2
0	21	5
73	73	2
0	6	1
126	146	1
199	199	12
31	37	2
240	240	10
80	80	1
121	173	3
88	90	2
211	216	4
86	86	6
134	134	6
121	121	10
146	163	2
12	12	4
37	37	7
2	224	4
26	232	4
61	230	5
6	7	2
112	112	2
133	215	2
210	211	3
209	213	2
3	9	2
85	85	12
26	26	4
135	135	7
175	175	2
239	240	2
46	46	4
105	106	3
226	227	5
113	113	4
65	65	3
63	64	5
106	106	5
103	104	2
53	63	3
169	169	2
168	212	3
122	157	3
3	5	4
7	8	16
44	44	7
71	74	1
105	105	5
204	204	4
181	181	2
167	168	1
174	174	5
62	63	12
184	195	2
63	63	8
149	149	7
212	223	4
190	191	2
2	4	4
19	19	10
150	151	1
181	182	5
147	148	1
232	232	2
11	11	9
96	99	2
32	153	3
225	226	2
3	4	1
143	143	2
74	74	3
125	125	1
205	227	4
192	192	8
4	5	1
152	152	2
135	136	5
79	80	2
10	10	9
7	34	2
67	67	13
66	66	5
19	222	2
6	8	5
42	81	1
61	112	1
100	100	2
232	233	4
45	49	6
24	233	2
78	78	7
56	219	3
15	29	6
172	180	2
137	137	8
37	40	8
166	166	4
17	33	2
193	193	4
191	191	1
124	126	2
102	102	3
159	159	3
48	48	3
159	162	3
61	61	5
57	67	2
163	164	2
69	69	10
179	180	10
154	154	4
174	175	1
7	60	2
200	202	2
55	85	3
56	223	1
120	120	5
155	155	2
202	204	1
12	13	1
198	198	8
51	88	1
20	20	5
185	185	5
22	23	6
34	34	6
137	138	1
24	24	7
43	43	9
240	241	6
53	53	9
196	196	3
169	170	4
187	187	3
123	123	3
57	60	4
44	45	2
157	216	4
118	119	1
148	148	3
13	13	3
238	241	2
9	9	1
234	236	4
39	40	7
220	222	3
5	8	1
24	36	4
55	55	3
31	31	4
140	140	5
190	190	6
49	59	6
95	99	2
27	27	8
18	20	1
75	77	3
7	7	5
128	128	4
219	219	1
88	88	2
220	220	4
32	242	4
123	151	1
45	48	7
30	36	2
149	150	1
233	234	3
153	182	1
130	130	5
60	60	2
54	56	4
99	99	2
2	33	3
121	122	1
109	128	3
15	15	4
146	146	5
84	84	7
148	149	2
147	147	1
17	17	6
235	235	3
28	55	4
45	45	3
221	231	1
76	79	2
194	196	1
16	16	6
78	79	5
224	224	5
25	38	1
21	21	5
33	33	1
30	34	1
4	12	3
186	199	2
202	202	3
98	98	1
2	2	2
1	2	2
217	218	5
76	76	3
237	237	7
156	158	2
176	177	2
58	230	1
103	105	2
56	83	3
38	39	1
127	131	2
229	238	1
235	237	2
1	33	6
215	215	1
167	171	7
35	39	2
237	238	2
16	64	1
158	166	2
125	127	1
155	157	5
122	149	4
81	83	2
205	205	10
66	67	3
32	32	8
188	190	1
39	231	1
223	224	3
115	115	1
186	186	7
195	195	1
205	211	3
173	173	9
120	128	1
131	169	1
122	148	3
72	73	4
217	217	3
242	242	3
188	188	1
52	53	1
51	51	4
158	159	3
133	133	1
164	166	2
14	60	1
146	159	4
98	100	1
205	208	1
11	29	1
40	40	2
240	242	1
62	84	2
18	23	2
223	223	2
22	222	1
38	38	3
119	174	2
74	86	1
104	104	4
76	77	6
228	234	2
34	221	3
54	55	1
81	110	2
122	127	4
177	178	2
95	95	7
211	211	5
110	110	2
184	185	8
234	234	5
5	39	1
3	6	2
226	232	2
56	200	1
141	141	2
219	220	2
182	182	9
75	79	2
54	54	3
214	215	4
3	3	5
40	42	1
1	58	1
194	195	2
241	241	2
30	30	2
18	19	2
165	165	5
210	210	4
4	16	2
239	239	2
153	153	2
56	56	4
196	211	1
178	180	2
116	116	2
45	46	1
230	231	2
25	25	4
117	118	1
122	122	1
144	208	1
58	59	1
156	159	2
81	82	2
200	207	1
8	8	4
57	58	1
168	168	4
22	217	2
200	204	2
178	240	1
114	115	1
47	57	2
3	41	1
107	107	1
47	225	1
170	170	1
128	150	1
129	130	4
5	6	2
176	204	3
22	220	1
212	212	3
61	67	2
50	66	2
62	62	3
34	36	2
214	214	4
57	220	1
22	214	1
197	200	1
168	207	1
241	242	1
159	182	1
68	72	2
14	14	2
13	17	2
1	1	1
103	103	6
139	139	1
83	83	1
208	209	1
2	3	2
127	127	2
238	240	1
101	101	1
128	155	1
213	213	5
160	160	2
145	147	2
193	195	1
79	82	4
16	17	2
184	184	1
73	74	1
141	142	1
8	9	2
189	191	2
227	234	1
203	203	1
161	193	2
203	204	1
144	145	3
167	170	2
164	165	1
164	164	3
163	165	1
225	225	4
227	227	1
64	64	1
232	236	1
160	178	2
194	197	1
58	63	1
125	126	2
141	143	2
147	149	1
231	231	1
89	89	1
65	76	1
15	17	2
13	14	1
37	42	1
171	177	2
207	208	3
236	236	1
173	207	2
119	129	2
216	220	2
31	32	1
178	178	1
35	35	1
119	119	3
145	145	1
229	234	2
153	170	1
53	58	2
58	218	1
26	27	1
6	6	2
62	86	2
126	147	2
158	168	1
155	187	2
43	45	1
54	77	1
221	222	1
33	157	2
23	23	1
60	65	2
33	34	1
18	59	1
122	123	1
128	153	1
214	221	1
18	33	1
59	60	2
3	13	1
36	36	1
71	72	2
110	128	1
228	229	1
134	145	1
106	180	1
27	41	1
163	167	1
205	221	1
83	85	1
18	58	1
83	84	1
24	221	1
50	50	1
46	47	2
157	162	1
26	237	1
18	22	1
9	233	1
32	33	1
135	145	1
109	111	1
156	157	1
41	41	1
28	29	1
77	78	1
67	77	1
