41	41	26
65	65	8
59	65	2
82	82	6
61	61	17
43	43	11
78	79	3
60	60	15
74	74	17
87	102	8
25	25	11
48	71	3
88	99	6
53	54	5
92	94	7
73	73	13
39	40	11
48	48	25
55	55	17
36	36	9
42	42	23
52	53	4
79	79	17
20	20	3
58	58	23
64	64	14
92	92	15
63	65	2
67	67	16
47	47	9
68	68	11
49	49	10
76	76	20
57	59	2
37	37	18
96	96	17
51	82	2
55	79	3
80	80	15
57	69	1
54	54	7
69	69	16
54	57	8
43	44	8
61	99	4
39	39	17
86	89	4
40	80	1
87	87	16
43	57	3
26	26	8
21	22	2
38	78	4
90	90	12
52	85	2
77	77	17
93	97	4
84	84	7
96	97	13
48	49	15
35	35	12
54	55	11
100	101	6
102	102	5
65	79	1
50	50	20
62	84	6
59	59	29
95	95	13
74	102	3
88	88	23
29	29	16
95	97	6
22	42	3
81	84	2
100	100	23
85	85	7
34	78	4
38	48	2
52	52	11
46	46	25
64	69	3
20	27	4
52	54	5
38	38	15
47	53	4
57	57	9
27	27	3
43	80	5
52	59	4
45	45	16
88	91	8
61	100	2
95	96	8
91	91	19
70	70	27
86	88	4
55	64	4
33	33	5
80	81	9
84	97	2
85	86	6
81	81	13
50	51	4
51	51	16
86	87	4
65	66	6
40	40	5
41	42	8
75	75	16
83	83	7
25	46	4
55	78	3
99	99	15
87	88	10
61	62	8
88	92	2
95	100	3
71	72	5
86	86	16
89	95	3
56	78	2
68	90	2
71	71	16
60	61	5
86	91	9
36	101	3
94	95	3
66	79	2
20	22	1
25	39	1
46	54	2
94	94	14
57	58	8
52	77	2
66	66	7
75	76	5
66	78	5
55	56	5
59	101	9
92	93	3
25	26	9
85	93	4
78	78	19
79	92	5
87	92	1
25	27	1
23	27	1
67	72	1
31	31	10
80	101	3
27	28	4
64	65	2
38	54	3
99	100	6
53	81	3
63	101	4
53	79	5
34	34	7
53	53	16
43	45	1
38	47	3
89	89	15
97	97	4
101	101	5
94	97	4
36	51	3
49	50	9
79	80	4
44	44	14
57	76	4
33	34	10
72	72	9
35	36	4
30	31	3
69	74	1
40	41	2
62	63	8
56	57	3
85	95	3
38	39	10
91	92	7
85	99	5
54	61	2
65	67	2
69	70	7
31	32	3
22	23	1
84	96	2
92	95	6
88	93	5
35	82	2
26	29	2
23	26	1
55	57	4
51	56	3
57	77	2
67	68	5
86	99	1
63	100	5
81	98	7
30	30	2
53	86	3
54	80	8
20	24	2
56	56	15
44	45	3
60	63	1
59	64	3
31	34	6
29	36	1
28	28	3
96	98	5
38	52	8
52	82	1
24	24	2
72	74	1
90	91	1
64	67	2
83	89	1
81	82	5
51	83	2
60	62	7
63	63	15
86	92	3
62	62	7
59	60	1
60	89	2
75	92	1
31	50	3
75	78	2
88	95	1
51	52	2
29	35	2
42	43	2
41	72	2
46	49	3
41	44	1
93	96	1
74	76	1
89	90	3
65	74	4
37	38	2
79	82	2
64	76	1
70	74	2
24	25	1
67	74	1
45	82	3
53	77	1
46	53	4
49	102	1
81	83	3
65	69	1
45	49	2
91	99	1
55	59	2
22	22	4
58	69	2
78	80	5
66	77	1
98	100	5
58	59	3
56	64	2
93	94	3
60	91	1
40	51	2
87	89	2
97	98	6
54	70	1
89	93	2
87	91	2
56	63	1
38	53	1
29	31	2
36	95	1
22	28	1
98	98	4
81	89	3
82	98	1
36	37	3
41	48	2
94	98	1
74	75	1
43	67	2
47	49	1
93	93	8
48	72	2
68	69	1
83	86	1
94	96	2
23	28	1
76	77	2
83	84	3
61	69	1
81	85	2
98	99	3
46	47	1
73	74	2
76	80	2
32	32	3
68	101	1
26	47	1
39	41	1
51	96	2
76	85	1
39	49	2
38	79	2
85	90	1
73	101	1
31	35	1
83	100	1
33	45	1
31	33	1
53	82	1
67	77	1
68	73	1
24	26	1
47	67	2
76	78	1
81	92	1
72	93	1
77	82	1
29	33	1
36	99	1
87	94	1
56	77	1
62	64	1
34	52	1
68	71	1
23	29	1
87	99	1
69	91	1
70	71	1
63	99	1
60	93	1
59	63	1
40	52	1
84	94	1
80	85	1
54	71	1
