23	23	22
131	140	4
35	35	13
55	56	8
22	23	3
38	38	13
75	100	2
125	125	21
37	38	2
126	126	25
97	97	10
50	50	10
136	136	19
59	60	12
130	130	19
16	17	1
71	72	6
141	141	26
52	53	7
128	130	9
56	56	9
31	31	18
108	110	5
125	126	7
127	127	7
74	74	9
34	34	11
16	16	11
28	28	26
60	60	11
102	102	18
15	15	15
65	66	1
133	133	36
85	85	10
131	134	5
128	128	27
22	22	10
103	103	13
102	103	6
123	124	12
138	138	7
107	108	6
107	107	21
42	42	11
131	137	2
117	117	16
63	64	5
134	134	26
69	69	8
146	146	5
19	19	28
18	18	16
96	97	5
29	29	21
19	20	6
20	140	4
142	143	3
100	101	2
127	130	4
104	104	11
121	123	2
134	140	2
96	132	2
20	20	7
77	79	9
125	142	1
110	111	5
91	92	2
73	73	10
36	66	4
67	67	7
25	26	2
40	40	9
53	53	11
66	69	4
140	140	12
117	120	3
9	9	9
60	61	3
114	115	6
101	101	18
136	138	10
77	81	3
15	16	7
41	41	10
139	140	4
50	52	2
64	64	11
81	81	13
98	98	12
13	13	10
6	106	2
83	85	3
129	129	14
66	66	24
21	59	1
108	108	18
8	144	1
4	47	2
23	24	7
2	3	12
96	96	14
54	55	4
119	119	25
123	143	1
83	83	5
126	127	13
24	24	15
33	33	9
39	40	7
2	34	1
4	5	8
82	82	10
39	39	17
21	21	16
2	5	3
72	83	3
80	80	22
62	62	10
27	27	15
120	120	17
139	139	17
51	52	5
78	79	11
116	116	10
74	75	3
117	141	1
99	101	2
84	85	4
10	10	11
119	120	8
52	52	8
109	110	7
134	139	3
3	3	8
116	117	5
133	134	4
111	111	26
71	118	4
13	14	1
22	40	3
135	135	11
32	60	2
118	121	1
126	141	1
9	10	5
124	125	1
102	127	1
48	48	8
132	132	20
26	26	8
51	51	18
102	130	1
122	122	17
91	91	19
94	104	1
68	68	7
31	32	2
49	50	7
61	61	15
76	81	3
75	75	8
22	141	1
113	113	17
55	55	10
14	15	5
97	105	3
125	138	5
121	121	17
27	60	3
32	33	2
91	121	4
123	123	13
107	110	3
37	37	12
71	71	13
112	112	13
90	91	2
130	131	2
18	135	2
115	125	5
36	36	12
80	97	2
128	129	4
5	68	2
122	126	1
72	72	10
137	137	14
77	111	3
54	54	15
80	81	6
136	137	10
122	124	6
67	68	2
84	84	15
15	20	4
89	90	3
62	63	8
25	25	4
93	94	5
32	32	7
125	131	3
18	89	1
118	118	13
69	70	3
12	12	8
106	110	2
87	90	1
94	94	16
110	110	21
30	30	14
1	1	12
132	133	8
33	37	2
63	83	1
120	128	5
124	124	15
82	89	2
30	119	2
57	57	12
10	38	8
0	1	2
97	98	7
101	102	5
10	70	4
118	120	10
40	76	1
99	130	4
127	143	5
47	48	2
131	131	10
99	100	7
18	20	5
63	108	1
76	77	3
143	143	9
77	136	1
115	119	3
31	33	2
15	141	4
100	100	7
19	21	2
113	114	6
51	65	2
5	6	3
109	136	5
6	75	4
66	67	4
11	21	2
22	38	1
109	116	1
69	83	3
137	138	8
106	106	2
105	105	8
135	136	5
82	83	3
34	36	2
88	88	3
114	114	6
14	14	6
48	49	7
17	17	4
100	102	3
70	88	3
92	92	9
105	106	4
21	103	1
63	79	1
103	118	2
40	105	2
49	65	2
142	142	13
138	139	3
129	130	5
68	69	6
131	132	4
1	10	3
86	86	2
77	77	14
112	113	5
89	89	3
140	141	9
8	8	6
94	96	1
70	70	20
126	128	4
109	135	1
117	136	2
121	133	4
115	115	2
50	51	1
87	87	9
20	21	6
112	114	5
78	78	7
118	141	3
116	118	4
111	112	4
3	4	5
134	135	3
2	2	5
3	5	1
141	142	3
120	126	1
40	41	4
104	105	5
57	58	6
64	65	7
71	120	3
127	140	3
116	124	3
130	132	1
53	56	1
57	60	1
100	119	2
27	28	6
49	49	7
58	59	2
93	93	5
66	104	1
58	87	1
104	108	3
9	19	3
106	139	1
115	118	3
99	99	5
43	43	5
108	132	2
105	110	1
5	5	4
1	11	3
115	117	2
92	105	1
30	37	2
1	25	4
1	113	5
76	76	3
34	51	1
142	144	1
79	79	7
65	77	2
53	54	11
81	82	3
122	123	5
12	21	2
52	65	1
4	36	2
5	33	2
1	43	2
127	133	3
81	87	3
43	49	3
47	140	1
39	109	1
95	95	5
104	110	2
98	99	4
90	94	4
52	56	4
102	144	3
43	140	3
6	32	2
40	106	2
95	98	2
42	74	1
1	7	2
53	57	3
144	145	2
41	54	1
60	72	2
79	97	4
95	104	5
59	59	6
31	47	1
33	34	1
14	16	2
76	79	4
52	141	1
109	127	2
5	38	4
137	139	1
12	72	1
4	4	6
63	63	8
145	145	7
64	66	1
6	20	1
18	29	2
35	36	5
49	64	1
132	140	1
62	67	2
76	78	1
41	42	1
48	141	2
129	132	1
129	140	2
42	46	1
6	6	6
91	94	1
23	124	2
118	119	2
105	112	5
12	13	3
73	74	3
127	128	2
97	104	2
70	72	4
30	33	2
88	89	1
8	11	2
56	82	1
127	139	2
79	82	3
76	99	1
70	71	2
11	11	6
59	84	1
36	37	2
38	39	5
56	61	1
50	105	1
65	65	6
56	84	1
58	58	4
94	95	2
2	20	2
31	35	1
28	30	2
111	118	2
71	74	2
17	73	2
106	123	1
59	73	2
109	109	4
25	27	2
130	133	3
102	104	1
121	122	1
19	28	1
129	133	2
111	114	1
13	122	2
129	138	3
130	137	3
8	9	2
122	125	1
13	16	2
99	103	1
43	105	1
120	121	3
24	125	1
39	41	1
18	74	1
114	134	2
26	55	1
109	115	1
49	140	1
62	70	3
36	39	1
89	109	1
11	30	2
101	127	3
8	25	1
60	84	3
62	64	1
11	38	2
88	135	1
79	111	2
87	88	2
106	108	1
34	35	1
90	90	4
135	139	1
135	137	3
123	131	1
36	52	1
135	140	2
15	43	1
93	119	1
23	27	1
93	104	1
132	141	2
30	32	1
9	18	1
47	47	3
41	47	1
2	71	1
35	40	1
112	121	3
6	8	1
113	116	2
109	111	1
13	21	1
77	126	1
10	11	1
136	140	1
80	112	3
128	131	2
107	123	1
108	109	1
16	21	1
22	119	1
104	106	2
12	123	1
33	36	3
42	67	1
77	78	2
95	96	1
96	111	1
117	118	2
125	127	1
4	111	1
124	140	1
1	67	1
63	82	1
8	26	1
17	89	1
78	90	1
144	144	3
76	85	1
32	34	1
42	48	1
54	134	1
104	127	1
92	93	1
