5	62	4
135	135	5
66	67	7
43	43	7
57	62	1
107	143	1
184	184	2
18	18	4
141	141	3
20	162	1
138	139	5
80	145	5
126	127	5
158	158	3
74	74	6
161	161	2
136	138	4
65	66	4
2	2	9
133	133	6
8	8	8
86	86	6
55	56	6
122	122	8
164	165	2
26	27	1
18	22	2
88	88	7
124	124	8
15	17	3
4	5	9
29	29	7
103	103	3
115	121	2
53	62	7
116	117	2
92	93	6
109	109	5
162	162	5
130	133	3
22	22	4
25	25	12
100	147	3
171	171	9
54	112	2
15	35	8
71	76	4
148	151	2
131	133	4
151	151	9
30	30	3
58	63	4
184	185	3
53	53	9
85	85	4
71	150	7
61	104	3
40	40	4
34	34	6
120	120	2
138	138	3
119	152	1
154	154	8
174	174	6
33	42	5
161	163	3
169	169	8
74	75	6
17	21	3
65	82	3
147	189	2
55	111	2
106	107	3
81	146	1
147	174	2
21	46	1
163	163	5
105	130	2
54	54	7
177	177	5
178	178	6
171	172	5
68	139	4
34	36	3
157	161	3
66	66	6
52	52	2
37	38	5
56	56	5
150	151	2
112	112	5
147	147	3
12	12	2
79	111	2
19	19	6
6	6	3
117	127	1
111	111	2
22	25	3
135	136	4
125	126	3
185	185	6
93	94	5
144	145	4
48	132	3
102	122	3
56	113	4
166	166	3
58	104	1
15	164	3
35	35	2
79	79	5
59	61	2
100	100	3
106	106	1
132	168	2
6	25	3
109	112	3
78	81	2
65	67	5
84	85	1
68	102	1
127	127	4
91	91	3
189	190	1
105	122	10
77	79	4
99	99	5
108	110	3
26	26	3
30	31	5
116	116	5
150	150	4
149	182	3
156	156	14
56	57	3
137	137	5
145	145	3
19	20	4
58	66	3
96	97	2
42	42	5
47	47	4
6	18	1
82	82	3
134	134	7
176	177	3
122	159	3
175	175	6
176	176	2
10	11	2
92	92	6
174	175	5
21	22	4
5	23	1
151	152	1
0	0	2
140	140	4
183	183	1
107	107	8
151	153	3
165	165	3
94	94	4
119	119	5
95	103	3
33	33	6
179	179	2
44	44	1
68	68	2
134	138	2
75	76	4
126	128	1
57	110	1
78	183	2
12	13	5
190	190	12
78	78	7
140	141	1
170	170	7
112	147	3
110	111	4
94	95	1
37	45	3
155	155	3
63	97	6
53	59	2
57	57	8
68	89	4
121	121	6
167	168	4
63	182	3
17	17	1
63	63	3
132	132	6
131	131	3
1	2	2
188	188	4
87	87	9
112	113	5
186	186	4
60	60	1
0	26	1
21	24	6
167	167	2
6	10	1
64	65	4
105	114	5
153	181	4
16	16	4
14	14	2
77	77	5
3	3	2
19	23	7
110	110	10
39	39	6
88	89	1
14	15	2
28	28	4
72	73	6
36	36	3
69	135	2
46	47	4
115	135	1
115	152	2
20	44	1
29	33	6
173	174	3
1	7	3
7	57	1
10	10	3
11	181	3
118	131	3
104	104	3
73	76	3
72	103	1
49	106	4
62	98	1
22	179	1
187	188	3
149	149	9
32	32	5
46	48	3
80	177	4
99	100	2
24	24	4
102	102	4
59	138	3
60	86	1
90	90	9
108	108	1
114	114	5
107	108	2
93	93	2
73	84	2
179	180	1
152	152	5
43	133	2
27	28	2
56	63	4
146	147	1
12	179	5
117	131	4
101	102	3
90	94	2
164	164	4
103	105	1
157	157	6
23	152	3
177	183	3
44	130	2
78	79	2
111	112	1
96	96	2
4	7	3
169	171	1
162	163	3
85	124	1
128	128	1
91	92	9
95	95	2
125	125	2
35	36	2
80	80	6
66	190	1
89	89	3
20	166	3
168	170	2
55	55	3
11	14	3
118	118	1
146	168	1
45	45	3
167	170	4
91	93	2
131	132	1
105	106	4
105	105	2
24	180	2
71	103	5
135	139	1
44	54	2
82	83	2
13	13	7
13	162	5
113	154	3
22	44	4
29	34	1
158	160	2
21	21	5
142	143	2
107	112	4
58	61	2
7	10	1
95	96	1
125	160	1
85	88	3
60	66	1
53	58	1
41	41	1
75	151	3
115	115	1
121	134	1
153	153	3
55	173	1
82	85	2
171	183	2
160	160	5
114	129	1
77	88	3
15	15	3
52	57	1
124	160	2
43	114	4
57	104	2
0	78	1
17	18	4
108	122	1
88	90	1
34	80	1
84	84	1
134	136	2
156	165	2
128	129	1
130	130	3
157	162	1
34	35	4
36	37	5
15	42	1
100	154	1
69	72	2
127	131	1
101	101	2
171	173	1
187	189	2
74	76	3
27	43	1
73	73	1
8	22	2
178	180	1
140	189	3
4	62	1
118	121	1
40	41	1
58	98	2
33	34	2
139	145	3
4	4	1
61	61	2
21	161	2
3	8	3
99	118	1
95	107	1
38	38	4
108	111	2
5	5	2
160	163	1
124	125	1
20	43	1
135	174	1
28	29	2
53	55	2
113	113	2
67	105	1
143	143	1
172	172	3
58	59	1
1	1	5
100	167	1
23	23	1
81	81	1
182	182	2
129	129	2
0	6	1
60	102	1
5	63	2
53	54	1
95	190	1
62	188	1
39	40	1
54	113	3
11	11	1
63	190	1
32	35	1
149	183	1
12	14	1
48	53	1
139	146	1
96	190	1
75	75	1
97	98	2
10	86	1
161	162	2
153	169	1
43	55	2
53	107	1
37	44	1
37	37	1
146	146	1
168	169	1
80	81	1
187	187	1
77	96	1
38	41	1
68	71	1
