27	27	11
4	4	14
18	18	14
101	101	8
30	48	2
12	12	20
210	211	7
11	12	7
26	26	16
21	22	14
77	78	7
169	169	4
6	6	20
15	16	1
81	83	5
76	76	12
24	24	11
192	192	4
82	82	16
184	184	14
61	97	7
38	75	6
138	138	7
71	71	7
166	166	6
125	125	6
22	22	12
72	101	3
226	229	2
173	232	10
66	66	11
44	44	12
11	11	16
139	155	1
28	37	1
156	156	12
40	69	1
43	232	1
76	77	2
69	69	15
7	9	1
146	147	1
79	79	22
168	168	8
176	224	3
81	82	5
2	2	14
7	8	5
25	211	1
111	111	4
67	67	6
10	10	8
182	211	6
74	74	9
84	89	4
123	124	1
117	118	7
47	47	13
180	183	1
78	78	6
207	209	3
67	95	1
191	191	19
86	86	18
21	21	10
100	100	1
195	207	6
57	70	2
8	9	8
63	64	5
46	55	4
225	225	3
207	207	8
168	217	3
211	212	2
173	174	10
122	134	4
179	179	3
51	51	7
188	189	3
181	181	2
5	6	14
14	14	5
5	21	2
188	188	10
112	120	7
104	104	9
22	23	8
25	25	19
23	29	2
177	177	8
54	54	14
155	155	7
129	130	2
142	142	3
186	187	8
40	40	17
216	216	21
230	231	2
226	226	8
75	75	7
170	170	2
162	162	7
126	126	8
226	228	1
198	198	8
42	43	8
182	182	3
208	221	2
99	99	11
162	169	8
219	219	7
19	21	2
33	35	5
164	165	1
116	117	4
141	164	1
4	5	6
230	230	4
127	127	7
31	38	2
57	57	12
214	214	6
114	117	2
70	75	4
178	178	6
182	184	3
148	161	4
17	17	19
28	32	5
49	49	7
23	23	11
194	195	4
56	56	5
24	26	4
75	77	2
231	231	9
26	101	3
176	176	4
212	213	5
21	23	2
34	34	16
140	142	2
114	118	4
32	32	8
19	19	19
58	58	13
235	235	5
41	47	1
200	200	5
187	187	2
199	199	14
117	117	2
175	175	14
170	175	4
51	80	7
43	43	9
80	80	6
95	96	7
64	64	6
43	44	5
228	228	6
106	106	10
154	154	3
220	221	7
16	18	5
183	183	5
204	204	3
235	237	4
203	203	2
114	140	1
6	18	2
146	146	6
157	157	14
39	39	4
38	38	8
137	137	4
199	204	2
80	83	2
147	147	9
80	81	3
30	30	11
32	54	2
183	184	2
227	227	7
105	105	14
211	211	4
99	164	4
180	225	3
214	227	3
71	73	3
221	228	5
122	122	8
96	96	3
76	158	1
237	237	5
210	210	5
141	141	1
180	180	8
153	153	3
122	125	2
121	121	16
188	190	3
1	1	22
147	148	4
169	193	2
143	143	4
37	75	5
185	187	1
46	46	3
119	119	6
177	223	2
234	234	2
8	8	18
141	198	2
105	124	3
16	16	4
2	3	2
83	83	7
29	30	5
218	218	4
166	177	2
50	50	4
0	57	4
70	70	14
83	84	1
232	232	7
170	193	1
194	194	5
76	106	1
65	65	6
177	180	7
164	236	1
206	212	2
40	224	2
88	89	1
121	122	4
15	15	2
156	157	1
84	84	7
220	220	5
189	189	14
45	45	6
47	50	1
142	143	2
63	63	5
159	159	4
107	107	7
42	136	3
216	221	2
160	161	2
16	24	4
173	198	3
150	153	3
236	237	2
115	115	8
77	97	1
36	106	2
61	61	2
75	76	3
118	118	10
161	161	13
210	212	1
128	128	12
181	207	1
184	185	1
144	144	5
185	186	1
79	222	4
175	181	2
49	50	3
228	233	1
7	7	14
120	120	5
151	157	2
144	146	1
165	216	3
51	52	7
9	9	3
134	134	3
160	160	4
89	89	1
196	196	10
238	238	6
162	220	5
20	20	20
45	69	1
37	37	4
127	128	5
176	182	2
46	47	4
33	34	6
166	175	3
2	28	4
215	216	3
61	62	6
148	174	4
50	52	1
34	226	1
102	105	1
34	36	3
29	34	1
52	52	5
215	215	6
18	19	2
53	57	2
103	103	7
165	197	4
52	53	4
147	161	2
199	200	1
1	18	3
59	60	6
85	85	7
172	172	2
32	33	5
32	53	2
153	154	2
48	68	5
212	212	3
148	148	9
3	3	17
176	183	8
155	156	2
164	164	2
4	204	8
24	25	7
20	21	4
185	185	5
48	48	5
49	91	2
77	77	9
98	98	6
133	133	9
35	35	7
113	119	3
43	70	5
28	28	5
27	28	2
27	107	1
171	171	6
36	224	1
66	67	6
190	190	2
73	73	5
242	242	2
193	194	1
126	132	1
178	215	2
44	202	7
5	18	2
112	112	3
170	192	1
13	13	10
174	174	1
17	30	4
47	48	2
202	202	6
145	146	8
201	202	3
181	238	5
44	47	1
123	125	3
145	163	3
214	226	6
81	115	2
65	66	2
142	154	1
106	107	2
115	116	2
176	177	2
77	95	2
178	180	5
32	46	1
129	129	7
5	5	3
31	31	1
208	208	6
144	145	2
177	181	3
197	197	1
79	189	3
28	54	2
0	55	1
106	151	2
68	68	6
175	196	1
158	158	3
224	224	2
53	54	1
59	65	2
24	237	2
135	135	1
33	33	4
35	105	5
98	129	3
3	7	1
0	1	2
167	222	3
77	79	9
209	210	1
179	180	1
16	17	2
42	71	2
173	173	2
109	110	1
148	210	2
2	7	5
81	104	1
57	60	3
7	31	1
73	86	1
191	192	3
0	0	9
3	12	1
226	233	4
118	122	2
1	2	6
15	17	5
54	55	2
48	78	2
42	42	2
27	54	1
64	232	5
34	224	4
53	53	1
167	168	3
207	208	2
145	145	4
163	163	3
136	137	1
85	86	5
60	80	2
180	181	2
195	195	5
13	15	2
184	186	5
12	14	1
240	240	1
217	217	3
150	175	3
2	18	1
235	241	1
71	72	4
150	150	1
81	81	9
62	62	19
35	38	2
6	22	1
72	203	2
14	19	2
69	75	1
40	41	2
12	16	1
22	36	2
153	166	3
59	59	5
114	114	2
76	79	3
30	228	1
130	130	6
111	113	1
40	75	3
15	25	2
238	240	1
95	95	1
37	38	3
29	29	4
58	88	2
178	220	3
49	76	1
1	3	2
17	18	2
166	169	1
221	222	1
35	36	1
162	172	2
181	237	2
71	138	1
137	156	2
25	200	3
205	205	2
2	12	4
186	186	5
136	136	2
45	54	4
25	37	1
101	105	2
123	123	1
48	51	1
20	28	4
5	224	2
84	85	3
33	49	2
20	24	1
36	37	2
23	30	4
148	149	1
138	139	3
3	6	2
161	191	2
209	209	3
79	159	1
102	126	2
241	241	1
139	141	2
71	96	1
167	178	2
190	191	3
144	161	2
122	123	4
222	222	1
10	28	1
198	204	1
46	53	4
142	167	5
165	175	2
58	59	3
163	233	2
67	202	1
46	80	1
12	13	1
0	48	1
205	221	1
223	223	2
140	140	4
236	236	3
19	29	1
119	128	1
82	84	2
14	15	2
60	65	1
48	113	1
173	182	1
52	54	1
66	68	1
99	100	1
67	190	1
5	178	1
0	39	2
48	49	1
79	80	1
42	224	1
36	225	1
124	124	5
204	207	3
189	190	2
29	49	3
109	201	1
208	237	1
106	141	1
30	34	2
30	101	1
139	143	2
178	181	4
168	169	2
228	229	1
131	135	1
184	194	1
232	233	1
39	69	2
13	14	3
26	37	1
145	147	1
55	55	1
143	144	1
74	118	3
123	133	3
208	211	1
97	97	2
76	159	1
207	221	1
128	131	1
208	209	1
6	7	1
31	80	1
87	159	1
100	101	1
148	150	1
14	17	2
31	78	2
44	45	1
48	57	1
0	15	1
20	22	1
20	27	2
239	239	2
128	130	1
135	136	1
233	233	1
46	48	1
111	118	1
76	168	1
213	213	1
202	236	1
31	46	1
62	63	2
109	109	1
39	51	1
63	109	1
167	223	1
44	61	1
46	57	1
