25	26	4
41	42	5
64	64	9
32	32	10
100	100	9
73	73	6
20	20	14
20	21	3
42	42	15
89	89	15
74	74	10
91	93	2
27	27	12
82	83	7
59	59	11
57	92	2
98	99	8
44	65	3
63	63	8
35	35	10
98	98	14
69	69	13
106	106	8
65	72	2
83	83	8
86	86	4
61	90	1
93	93	8
96	96	10
56	56	10
50	50	8
83	85	2
21	28	2
26	46	8
53	53	7
96	98	5
83	86	8
73	74	5
70	70	12
60	60	12
26	29	5
25	25	6
95	95	9
75	75	10
79	81	3
83	84	11
33	34	7
62	62	8
87	88	5
27	46	2
97	98	8
23	23	8
49	77	2
103	103	10
28	31	3
42	61	3
88	88	4
37	49	1
91	91	7
95	96	2
23	24	8
68	68	8
78	78	12
21	21	1
41	43	2
77	78	3
22	47	1
87	87	5
29	29	4
57	82	2
94	94	20
44	44	9
51	51	11
24	24	4
84	84	4
55	55	7
67	85	1
79	89	4
47	47	6
71	72	5
81	81	5
101	101	20
89	90	10
43	43	7
85	86	11
34	37	3
71	71	4
37	38	5
92	92	11
66	66	5
99	100	1
25	27	4
23	81	3
68	70	1
33	33	8
65	73	5
36	106	3
99	99	4
63	91	2
46	73	3
39	41	1
27	28	3
31	31	4
63	64	2
52	52	3
55	89	4
65	65	5
48	48	12
58	58	6
59	60	1
70	73	1
82	82	11
34	34	5
84	87	2
77	100	1
55	103	2
77	77	5
102	103	5
28	28	5
69	71	1
57	60	3
79	90	2
96	97	3
26	26	3
30	30	9
104	105	5
40	40	8
58	61	2
22	23	5
72	82	2
51	55	1
70	74	1
76	76	2
57	57	7
36	47	1
57	58	2
35	46	2
51	52	1
100	102	5
59	61	2
24	28	1
102	102	3
82	86	2
22	33	3
50	58	2
70	77	3
30	33	2
101	102	2
27	29	3
22	22	4
36	37	3
46	47	1
35	71	3
90	90	2
97	97	5
89	96	1
56	83	1
69	92	2
45	47	3
52	53	3
67	76	1
47	49	1
60	61	1
72	72	7
29	30	2
41	44	3
79	79	4
65	66	4
85	99	2
91	92	1
66	78	1
64	65	2
38	38	2
33	47	1
104	104	5
86	87	1
97	99	2
80	80	6
79	80	2
37	37	4
91	96	1
40	41	6
92	93	2
38	39	1
84	89	1
33	78	1
91	94	1
49	49	1
61	61	2
37	41	1
85	85	1
26	27	3
54	69	3
85	87	2
54	54	2
73	84	3
26	30	1
36	40	3
69	70	1
82	87	1
69	74	1
45	66	2
48	72	1
93	94	1
80	81	1
94	96	1
65	79	1
22	73	4
28	29	1
45	45	1
37	89	1
94	95	1
105	105	1
88	96	1
84	85	1
48	65	1
59	94	1
37	39	1
58	93	1
87	90	1
59	65	1
36	36	2
61	63	1
92	96	2
39	44	1
90	94	1
100	101	2
54	55	1
90	91	1
46	46	1
42	44	1
38	84	1
58	66	2
31	32	1
53	54	1
