49	50	13
37	37	16
1	1	17
30	30	31
18	18	6
41	41	14
38	38	27
56	57	7
51	51	23
39	39	11
2	2	10
21	22	5
52	53	4
36	36	39
21	21	14
50	50	21
25	25	8
37	39	18
32	33	3
49	49	14
46	46	29
40	41	17
32	32	22
1	36	1
59	59	20
48	48	52
61	62	3
54	55	5
14	15	14
41	42	5
43	43	17
23	24	3
15	15	2
4	4	10
42	42	33
56	56	21
54	57	4
55	58	6
51	52	6
16	16	5
46	47	18
34	34	28
59	60	7
34	35	8
6	6	14
35	35	30
31	32	10
38	41	13
54	54	13
19	19	8
54	59	10
58	60	6
46	49	4
24	25	7
37	56	5
2	3	2
40	53	1
62	62	25
47	48	15
60	60	10
0	1	5
49	55	11
47	47	16
20	20	6
55	55	28
45	45	26
61	61	12
32	36	4
42	43	13
50	52	3
58	59	9
17	17	19
11	12	3
39	42	3
14	14	4
11	11	4
52	52	10
23	23	8
3	5	2
33	33	23
40	40	7
38	39	11
4	5	6
41	45	2
6	7	9
31	35	1
0	0	8
24	24	8
57	57	16
58	58	28
37	38	14
48	49	3
60	61	1
31	31	21
30	31	9
51	54	4
37	40	7
31	36	3
41	55	2
49	62	2
56	60	3
9	14	5
39	40	12
39	51	2
33	34	5
34	49	2
43	47	7
54	56	2
39	59	1
8	8	7
44	44	16
57	60	4
5	6	7
50	51	5
57	59	5
6	11	6
43	44	5
6	14	2
1	2	4
13	13	8
53	53	7
9	9	2
20	45	3
45	47	6
7	7	6
40	42	4
56	58	10
33	61	4
17	18	2
10	10	3
10	45	4
20	22	1
31	33	2
38	40	3
22	22	13
20	42	2
32	35	1
55	59	2
31	55	1
44	45	4
36	47	6
3	4	3
31	42	3
19	22	1
48	56	1
45	46	7
5	5	8
37	55	4
10	12	1
8	16	4
15	16	4
8	12	2
50	61	3
45	50	2
2	34	1
11	13	2
41	59	4
10	11	2
57	58	2
12	45	3
36	37	2
31	52	2
53	55	1
18	19	3
42	57	1
53	54	5
40	45	3
37	54	1
43	49	1
56	59	2
12	12	4
3	3	3
8	13	3
31	46	1
51	53	2
7	9	2
22	23	3
31	48	2
33	36	1
30	32	1
34	36	3
34	61	6
23	25	1
40	59	3
35	36	3
30	49	1
6	16	1
29	29	1
39	56	2
41	60	1
30	36	1
30	46	2
19	20	1
38	50	1
38	52	1
46	59	1
6	36	1
9	11	3
50	55	1
52	56	1
49	51	1
15	17	1
31	41	2
46	51	1
44	51	1
37	49	1
55	57	1
46	52	1
49	61	1
9	12	1
39	53	1
