0	0	3
40	41	1
185	185	2
5	6	5
220	220	1
122	127	2
131	131	3
138	138	4
45	45	6
69	69	5
162	162	2
100	168	3
174	174	1
29	82	2
30	31	1
0	4	2
173	173	3
175	217	5
63	63	3
200	227	1
150	151	1
140	141	6
45	46	3
106	119	2
218	218	2
39	55	2
212	213	2
153	154	2
139	149	5
57	57	6
8	11	3
157	157	2
73	74	1
80	80	2
73	73	2
204	205	2
61	62	1
187	187	2
204	204	2
32	33	5
26	26	3
238	238	2
234	234	3
17	17	2
39	49	1
175	179	2
61	61	3
98	100	3
193	193	4
115	118	2
133	133	5
13	16	3
134	135	2
223	223	1
220	222	3
10	10	2
158	158	5
15	32	1
47	47	1
206	207	1
69	178	5
203	208	1
2	14	2
207	208	2
184	184	3
81	81	6
138	139	1
16	66	2
65	66	7
236	236	5
169	170	3
228	228	2
171	171	1
113	113	2
58	60	6
112	112	2
26	29	1
104	105	3
34	51	2
35	68	4
22	35	1
23	42	1
171	172	2
129	129	2
100	102	1
51	51	2
81	82	4
240	240	2
205	224	2
212	212	3
135	135	4
24	86	2
72	72	8
177	185	1
102	102	2
99	101	2
134	137	4
49	50	2
164	164	1
46	46	1
70	127	2
2	50	3
158	166	4
33	33	4
34	81	2
75	78	3
37	38	1
170	170	3
53	53	2
34	35	3
120	138	2
23	23	4
176	177	2
35	35	2
84	84	3
104	104	3
7	7	2
68	183	4
115	115	1
187	190	2
153	153	1
66	66	1
95	98	3
182	183	2
51	52	8
62	62	3
47	53	2
175	183	1
68	68	5
205	205	5
96	97	2
15	15	3
54	54	4
196	196	3
30	30	6
193	194	1
25	25	1
0	1	2
100	100	1
8	31	2
98	98	1
151	151	2
36	37	1
38	39	1
52	52	4
166	166	5
228	229	2
85	85	4
122	122	1
165	165	2
32	47	3
139	139	2
28	28	3
188	188	3
2	57	1
178	178	1
221	222	3
206	217	1
82	102	2
216	216	1
39	39	6
141	141	3
181	182	1
79	80	1
203	206	2
4	4	2
5	5	3
77	79	2
211	227	2
37	37	2
48	48	2
176	181	1
189	191	1
73	87	1
5	22	1
167	167	1
126	126	2
195	195	1
127	127	2
71	71	4
75	100	1
58	58	3
2	2	1
206	206	1
12	88	1
64	64	1
120	169	1
142	142	1
36	36	2
75	80	1
217	218	3
49	55	1
191	209	1
86	86	2
29	30	2
28	32	2
24	24	1
48	52	1
121	127	1
236	237	2
97	97	1
88	88	1
31	31	1
75	75	1
18	21	2
223	224	5
133	134	1
8	40	1
75	76	2
95	131	1
22	23	1
176	185	2
154	155	2
139	140	3
175	215	2
40	40	2
208	208	3
56	56	1
99	100	1
74	74	1
203	203	1
191	191	2
128	128	1
4	7	2
82	82	3
139	141	1
238	239	1
155	156	1
140	165	1
195	200	2
20	20	1
19	19	1
14	14	1
3	29	1
126	188	1
78	78	1
137	137	1
159	159	1
229	229	2
224	224	1
114	163	2
169	169	1
65	73	1
184	185	2
106	106	2
123	124	1
199	199	1
135	136	1
49	49	1
113	119	1
12	18	1
235	235	1
59	59	1
21	31	1
205	226	2
137	155	1
34	41	1
63	64	1
13	13	1
145	145	1
1	1	1
60	60	1
178	179	2
236	239	1
202	202	1
11	11	1
114	115	1
105	127	1
29	29	1
129	130	1
121	138	1
135	138	1
237	237	1
102	112	1
