117	117	5
148	148	14
127	127	9
25	26	5
125	126	5
44	44	13
7	7	18
50	50	19
4	4	7
151	151	15
41	41	8
115	116	1
59	59	6
162	163	7
184	184	18
16	99	5
188	188	12
167	167	5
34	35	2
23	23	9
185	185	35
189	189	20
112	124	6
84	84	14
149	149	21
79	80	4
120	120	16
136	136	20
165	166	6
7	168	3
108	108	8
154	154	7
2	2	8
67	70	2
16	16	11
10	10	19
71	72	3
70	71	12
131	133	1
68	68	7
177	178	5
8	8	6
155	155	4
26	26	6
66	89	2
124	124	11
33	33	6
16	33	3
45	45	27
113	113	5
15	15	18
193	194	5
147	148	1
197	197	22
24	25	2
46	47	4
59	70	3
21	21	9
19	19	2
98	98	9
56	57	8
55	56	5
42	42	15
6	8	10
17	17	8
3	5	4
173	184	4
99	99	3
119	119	14
163	173	4
28	31	3
163	179	3
10	163	2
141	141	15
159	159	8
137	137	3
14	30	2
6	6	8
139	140	7
72	72	15
114	114	8
174	175	6
151	187	1
110	110	17
55	55	5
35	35	7
77	79	6
111	111	16
71	188	4
93	94	9
150	150	17
37	37	12
61	61	4
180	181	7
127	128	10
13	13	8
10	11	12
175	175	4
28	29	3
122	122	10
185	186	7
184	185	6
40	40	4
30	31	8
118	146	3
111	112	5
120	190	3
29	30	3
147	147	11
81	84	9
106	107	1
128	128	21
126	128	5
15	17	3
25	39	1
142	160	3
119	120	4
155	156	10
64	66	3
130	130	11
194	194	6
146	146	9
192	192	8
53	53	5
182	184	1
170	171	13
95	95	2
125	127	1
170	170	16
177	177	13
39	39	4
173	176	10
11	12	6
125	125	14
79	79	7
3	152	3
11	195	2
171	172	4
20	34	6
59	67	4
43	43	13
183	183	13
180	180	2
50	54	3
195	196	9
123	123	12
17	20	1
139	139	6
40	42	4
5	5	6
135	136	10
148	169	4
19	20	1
52	52	12
190	190	16
118	118	2
11	11	13
9	9	18
4	12	4
52	172	6
113	115	5
99	151	1
95	96	7
24	24	5
112	112	11
161	164	8
144	145	2
25	25	5
145	145	7
75	75	3
28	30	4
132	135	3
58	58	11
12	12	12
126	126	11
53	54	8
97	97	7
50	51	3
142	142	11
172	172	16
44	45	2
171	171	14
16	23	3
186	186	27
29	29	9
156	196	2
176	176	5
74	74	3
97	98	2
9	172	1
141	142	6
110	111	3
56	56	8
14	14	4
23	51	5
2	3	11
24	27	2
180	182	7
115	115	4
21	39	2
40	41	8
0	1	2
9	14	4
49	49	9
22	24	5
1	1	19
42	57	7
195	195	17
35	36	16
30	124	3
31	31	15
9	10	7
177	186	3
191	193	1
153	153	4
3	4	8
190	191	9
117	119	2
51	52	5
30	30	9
153	158	2
23	24	4
86	87	4
176	177	4
37	38	1
152	152	15
62	62	2
134	135	5
121	121	5
18	19	4
36	36	9
38	39	6
107	109	2
57	58	2
182	182	9
140	148	2
181	182	4
179	179	9
169	171	3
81	81	1
181	191	2
196	196	13
47	47	23
138	139	5
72	73	1
102	170	2
133	160	1
42	45	2
191	191	14
24	28	4
149	150	18
0	3	3
71	112	1
193	193	9
161	161	7
152	157	2
181	181	7
26	27	7
138	138	12
69	69	13
34	36	1
5	8	4
196	197	6
160	161	11
11	20	1
81	172	3
114	115	3
133	134	3
168	169	1
97	100	4
73	74	2
64	64	4
179	181	4
157	157	15
116	118	3
128	129	3
73	73	9
134	134	8
129	129	6
168	168	11
48	48	5
101	101	7
4	152	1
27	27	11
173	173	1
62	65	2
80	80	8
41	42	1
89	89	3
42	107	2
163	164	5
105	105	2
163	163	5
106	108	3
165	165	6
144	144	6
172	191	1
88	89	1
38	43	2
57	57	5
109	110	3
49	54	6
14	31	3
43	44	8
19	23	2
157	159	5
171	177	4
141	151	2
178	179	5
80	81	2
0	0	3
67	76	1
39	43	1
113	114	6
138	141	1
187	188	3
189	195	1
32	32	3
166	166	3
169	169	2
93	97	3
165	167	3
82	82	6
17	26	1
189	194	2
132	134	2
192	193	2
81	82	3
148	149	9
110	133	3
135	135	16
161	165	1
108	111	1
119	188	3
98	99	2
160	163	5
124	125	2
140	141	2
84	86	3
102	102	4
107	107	8
171	186	4
67	67	1
54	55	11
4	145	1
48	49	3
13	14	3
143	143	5
178	178	2
33	38	2
117	121	5
3	3	11
146	148	2
180	190	1
169	177	3
116	117	4
115	121	4
187	187	4
100	105	3
76	76	1
1	3	1
189	190	1
17	28	1
87	87	4
194	195	7
188	194	5
161	162	5
23	25	1
20	21	2
104	105	1
78	87	1
109	133	1
45	46	1
162	162	6
87	88	3
116	116	4
66	66	3
94	94	1
36	37	4
112	123	1
109	109	4
186	187	4
59	66	2
164	164	11
173	178	5
31	32	3
155	158	4
167	168	5
145	146	3
157	188	4
131	131	6
155	170	3
70	70	5
96	96	1
76	77	3
158	158	5
159	160	3
4	5	5
182	183	7
140	140	9
152	158	4
77	77	2
178	190	1
21	26	2
108	109	3
120	121	6
169	190	1
34	34	1
122	123	6
129	141	2
52	53	8
27	30	2
174	174	2
63	63	6
170	172	7
50	52	2
20	20	8
4	38	4
78	78	2
120	187	2
141	148	2
118	119	5
156	156	10
178	181	2
135	137	3
152	153	2
54	54	9
10	24	3
151	172	1
83	83	2
79	86	4
37	39	1
40	43	1
54	72	2
21	22	3
93	93	1
179	190	2
142	143	4
108	110	3
9	171	2
84	85	1
132	132	3
133	133	3
10	12	1
175	179	1
103	103	3
169	170	3
177	179	1
137	149	5
38	38	3
96	97	2
28	28	5
168	176	2
188	196	1
134	138	4
51	53	2
51	51	6
156	157	2
24	36	1
151	152	5
186	188	3
158	160	4
183	184	2
61	74	1
162	168	2
178	183	6
16	17	3
63	89	1
130	135	3
128	196	1
157	163	2
82	87	1
1	2	3
140	151	1
99	100	1
148	151	1
179	182	1
184	195	1
41	108	3
6	7	3
71	71	2
145	178	4
13	187	2
115	122	1
8	21	3
155	193	2
173	180	1
190	192	5
66	68	3
18	18	8
30	32	3
7	162	1
158	161	2
46	46	1
115	123	1
179	180	3
152	190	1
164	174	3
39	41	2
62	63	2
49	50	2
70	72	2
126	127	1
101	110	4
166	167	3
119	123	1
141	144	3
142	152	1
124	127	2
151	183	1
99	108	1
176	180	1
138	140	2
32	33	1
5	6	3
136	137	2
152	156	3
115	119	1
154	155	2
151	153	1
65	65	1
66	149	2
57	70	1
154	156	2
145	181	2
168	170	1
135	139	1
173	174	2
187	195	1
29	190	1
152	160	1
120	195	3
153	155	2
103	104	1
131	132	2
143	144	1
106	106	6
20	27	2
1	5	1
172	174	1
82	85	1
157	158	1
90	90	1
173	181	1
88	88	2
105	106	2
50	56	1
5	7	3
147	157	2
9	24	2
14	15	1
44	59	1
22	22	2
150	151	2
145	149	1
178	184	1
169	179	1
184	189	1
100	100	1
69	70	1
26	28	1
162	164	2
149	184	2
42	44	1
168	190	1
39	40	3
40	55	1
187	189	1
160	160	2
36	38	1
60	60	1
146	155	1
20	23	1
145	148	1
17	18	2
70	76	2
177	191	1
4	54	1
186	196	1
107	190	1
7	8	2
148	150	1
10	192	1
187	196	1
184	190	3
8	9	1
98	112	1
147	172	1
164	165	2
10	13	1
109	111	1
101	102	1
128	191	1
19	26	2
147	149	1
112	118	1
22	23	1
102	103	1
118	120	1
16	20	1
117	118	1
4	9	1
39	50	1
70	93	2
130	168	1
10	23	1
174	176	2
164	167	1
