160	160	8
120	121	4
24	25	6
14	14	8
3	3	18
45	46	7
41	41	11
155	155	3
152	153	2
93	93	5
96	97	10
34	34	11
36	36	12
6	6	7
26	26	12
38	38	10
13	13	15
91	91	5
135	135	12
170	170	7
25	25	9
21	22	7
101	106	2
177	177	4
6	16	5
53	53	1
10	12	1
42	44	1
108	108	4
114	114	4
99	100	4
164	168	3
63	63	6
176	176	5
163	169	6
129	150	4
15	15	5
150	150	9
11	11	7
29	29	7
55	55	6
158	158	6
17	17	9
39	39	6
34	36	4
103	103	7
25	26	3
22	22	14
168	169	4
131	131	9
68	71	5
88	88	2
169	173	2
168	168	5
70	70	1
158	159	2
127	127	7
123	125	4
178	178	5
33	66	1
16	25	1
173	173	7
4	4	19
127	128	9
131	150	3
27	28	6
100	100	5
139	139	12
113	113	12
141	142	4
19	19	14
93	94	3
82	112	1
33	33	14
44	44	5
176	178	3
54	55	7
19	26	11
32	32	9
130	131	5
89	89	4
152	152	14
112	124	1
21	21	6
64	64	4
2	4	1
147	151	1
7	27	5
119	120	1
84	85	8
12	12	11
82	85	1
2	9	1
167	167	7
164	164	3
31	31	8
139	140	1
118	119	7
81	81	8
162	168	2
164	165	1
9	9	4
129	129	10
144	145	4
163	167	3
112	114	1
1	5	4
90	90	9
172	172	3
109	109	7
166	166	6
28	30	2
82	82	2
106	165	4
2	6	1
24	24	12
56	58	2
28	28	10
131	146	5
1	1	5
101	101	7
156	158	1
163	164	1
51	51	6
15	16	2
137	137	7
19	31	1
78	103	1
71	71	8
118	130	3
45	45	5
5	18	2
130	130	8
130	150	1
50	61	1
79	111	1
7	8	4
78	92	2
37	37	3
35	35	9
174	174	11
161	164	2
157	160	2
73	73	4
54	108	2
66	67	6
161	162	3
114	121	5
68	70	6
30	30	9
76	77	3
104	166	3
60	61	1
144	144	11
20	31	8
37	38	2
44	45	4
100	125	2
148	148	3
65	71	1
8	8	10
65	67	2
1	37	3
107	109	3
81	85	2
116	116	3
50	50	3
23	28	1
10	11	1
162	162	10
14	16	3
54	54	4
7	7	5
79	134	2
3	7	7
5	11	2
17	18	3
95	96	3
98	101	1
131	133	1
39	40	2
87	87	9
123	124	4
71	79	2
18	19	6
78	106	3
70	71	2
77	77	4
5	24	3
153	172	2
2	2	1
111	111	7
132	132	8
102	102	15
20	32	2
79	79	5
106	107	2
23	23	10
154	154	5
10	14	1
5	5	5
117	117	7
104	106	3
10	10	7
143	143	2
56	56	7
115	116	2
92	92	2
106	106	3
105	120	1
20	20	6
103	107	3
79	96	2
180	180	2
142	143	4
165	165	4
140	140	3
136	138	2
94	94	5
145	145	3
64	95	5
83	85	3
24	26	4
23	24	6
61	65	1
87	88	4
72	72	2
169	170	1
35	65	5
118	118	4
161	161	1
4	15	5
157	157	5
3	4	8
78	79	1
5	51	2
73	103	1
142	142	10
36	37	1
153	163	3
168	173	1
14	32	4
40	41	2
97	97	3
136	136	6
156	156	3
179	179	4
110	110	2
1	3	1
146	146	3
67	105	1
60	60	11
59	59	5
43	43	3
122	122	6
89	111	1
27	27	4
126	127	2
171	171	8
35	36	2
81	92	2
82	83	4
175	176	1
61	61	6
147	147	3
80	92	2
96	96	5
75	75	1
153	167	3
55	57	3
8	14	2
52	52	5
2	18	4
80	147	2
72	112	2
96	116	5
99	101	2
9	13	6
38	39	2
153	162	1
173	174	6
121	121	2
128	128	4
153	153	1
99	99	1
78	136	2
56	57	5
34	68	3
90	96	2
85	110	3
26	28	1
11	15	1
126	126	1
16	31	1
141	141	6
119	121	4
7	11	1
83	84	3
117	119	2
101	104	2
2	3	5
133	133	4
160	161	3
27	32	1
12	29	1
87	93	2
29	40	1
8	11	1
143	144	2
43	44	6
18	27	1
86	87	1
127	151	2
153	155	2
10	16	5
149	149	4
51	52	1
42	42	1
155	163	3
9	10	1
62	63	3
62	62	3
98	98	2
19	20	4
11	117	3
77	78	1
37	41	2
43	46	3
28	29	2
169	172	2
174	175	3
124	124	2
86	86	4
38	42	2
116	131	1
31	71	3
172	177	1
83	83	4
152	155	7
140	141	3
25	34	3
57	58	1
74	74	5
112	113	3
114	115	3
59	71	3
71	72	4
54	71	3
83	86	2
170	174	4
106	108	3
16	17	2
113	119	4
32	33	1
15	17	2
0	4	3
6	7	1
146	147	3
165	170	3
173	176	1
78	78	1
123	126	1
112	112	4
95	95	5
50	54	1
20	21	5
121	122	2
30	31	1
3	8	1
100	101	4
55	60	1
113	114	3
99	102	6
11	12	3
18	45	3
167	168	1
108	110	1
148	157	2
9	26	1
80	91	1
141	149	1
152	154	5
88	89	1
57	57	3
98	109	1
157	158	1
31	32	1
60	120	1
44	116	1
58	59	3
54	92	1
6	9	2
171	174	1
3	15	2
88	97	2
132	133	1
164	167	1
14	31	1
1	2	2
106	166	2
125	126	1
16	16	3
126	129	2
8	18	2
5	50	1
128	129	1
18	30	1
2	113	1
84	147	1
62	74	1
7	31	1
33	65	2
73	104	1
92	94	1
119	119	2
42	45	1
5	40	2
66	66	4
18	18	4
85	149	2
85	85	1
138	138	4
14	15	1
4	19	1
0	1	2
10	13	1
81	82	1
84	84	1
101	129	1
29	30	3
3	22	1
104	107	1
0	0	4
40	44	3
6	8	1
63	65	1
50	51	1
25	27	1
148	150	2
22	23	1
55	70	1
11	115	1
3	5	1
10	115	1
71	77	4
106	114	2
55	56	2
78	80	2
17	31	1
8	9	1
135	136	4
134	141	2
63	73	1
17	39	2
128	151	2
169	169	1
153	156	1
95	111	1
78	135	2
106	168	1
80	80	1
147	148	2
120	120	1
68	69	1
35	66	1
154	174	2
94	106	1
105	105	2
84	126	1
26	27	1
9	12	1
16	18	2
163	163	1
7	12	2
9	15	2
2	11	1
150	151	1
4	40	1
129	130	2
59	104	2
54	70	1
65	66	1
22	25	1
5	7	1
151	151	1
105	108	1
17	38	1
177	180	2
155	169	1
153	154	1
59	61	1
5	6	1
