70	70	10
154	154	2
43	43	15
17	17	4
166	166	8
95	101	1
161	161	4
26	26	6
151	151	6
115	116	6
12	12	4
147	147	5
34	34	13
69	98	5
75	75	7
24	24	5
90	91	3
17	37	2
90	92	1
162	162	10
66	66	6
162	164	2
116	116	4
156	162	1
98	99	1
9	9	6
45	45	3
109	109	15
44	44	16
22	22	4
38	38	5
131	131	9
85	88	2
157	157	9
18	18	9
57	57	6
159	159	4
72	74	1
93	93	6
35	35	16
12	20	3
22	24	7
50	50	9
152	152	12
33	33	7
75	78	1
137	137	6
161	165	1
135	135	7
86	87	5
21	23	6
121	122	1
13	13	6
153	159	3
120	120	2
52	55	2
129	129	2
6	9	2
13	36	2
23	23	2
49	49	2
11	11	7
4	4	6
47	47	6
25	25	11
87	89	3
50	51	1
158	158	5
150	168	4
47	48	8
110	110	12
125	125	6
110	114	2
21	21	5
88	88	3
85	86	5
76	76	4
121	121	10
145	145	9
124	124	6
64	64	7
45	47	3
1	2	7
133	133	3
0	0	4
55	96	1
14	14	7
50	52	6
36	36	9
51	51	3
10	10	5
19	19	5
147	149	1
6	6	12
90	94	4
83	98	1
164	165	6
16	17	1
41	44	2
49	51	4
0	24	2
55	56	2
3	3	9
40	46	2
34	35	11
162	163	11
72	72	5
19	20	5
92	94	3
103	104	2
136	136	2
27	28	6
78	78	2
142	144	4
62	65	1
54	56	1
160	161	2
98	98	2
2	2	15
71	71	8
82	82	5
1	1	6
74	75	3
13	18	2
17	19	2
25	27	2
108	108	12
95	102	2
53	53	5
85	85	1
11	12	3
46	47	2
101	101	3
87	87	10
138	138	3
154	161	1
16	16	1
126	126	7
8	8	6
163	164	3
37	37	6
108	109	3
142	142	2
2	25	1
7	13	3
78	79	1
7	7	9
48	49	2
143	147	2
139	139	6
22	94	1
109	110	3
150	161	2
117	121	1
41	43	2
102	104	1
73	73	6
83	83	11
45	53	1
48	48	7
132	132	1
168	168	9
122	122	2
72	79	2
144	144	2
35	42	3
44	45	7
111	111	7
96	97	1
63	143	1
56	56	4
37	38	1
170	170	3
6	40	1
112	115	2
149	166	1
103	103	1
5	5	6
128	128	2
113	113	2
15	19	2
113	114	4
15	15	7
0	2	3
120	121	1
150	150	6
35	36	6
138	143	1
144	145	2
25	26	1
130	131	3
14	15	3
63	63	4
38	39	3
116	122	5
164	164	2
134	134	4
42	42	5
98	100	1
62	144	4
138	139	1
100	100	1
46	134	2
55	55	10
10	69	2
86	91	1
50	65	2
71	72	4
117	117	4
114	114	7
137	138	3
150	151	2
40	40	3
52	52	9
64	65	2
7	9	3
111	112	3
17	44	3
20	24	4
86	88	2
0	1	1
112	112	2
8	9	2
72	87	2
75	76	2
12	13	3
130	130	7
128	130	2
110	131	2
101	122	2
10	39	3
77	79	1
153	153	2
19	146	3
107	107	4
163	165	2
140	140	4
141	141	7
74	81	1
143	143	4
87	90	3
149	149	3
55	146	1
159	168	1
18	106	1
54	55	2
164	169	1
11	15	2
94	95	2
97	97	1
122	127	2
115	115	5
80	80	2
20	21	1
77	78	2
136	137	5
140	141	4
12	19	1
109	133	2
133	134	3
118	118	4
76	164	2
68	68	1
24	25	1
8	24	1
64	69	1
108	116	2
74	74	3
108	110	4
18	20	1
22	23	2
7	11	1
22	40	2
48	54	1
17	71	1
28	28	2
151	165	1
83	111	1
19	23	1
97	99	3
125	127	1
151	159	1
42	43	5
79	79	4
160	165	2
38	52	1
127	127	5
64	111	2
20	20	1
105	105	3
127	129	2
7	8	1
90	90	4
46	46	1
65	65	4
123	125	1
68	69	2
146	146	1
64	148	3
67	67	2
69	69	1
104	114	1
167	167	2
77	77	2
88	90	3
23	24	1
117	119	2
123	124	1
50	62	1
92	93	3
121	123	1
93	119	1
84	84	2
41	52	2
81	81	1
104	104	1
52	54	1
14	16	1
118	119	1
106	106	2
38	163	2
91	92	1
26	28	1
89	89	2
5	6	1
34	111	3
165	165	2
70	95	1
95	99	1
153	155	3
152	154	1
27	27	3
117	130	3
146	147	2
81	90	2
72	112	1
145	146	1
7	10	1
150	152	2
126	133	1
72	82	2
4	39	1
141	144	1
71	120	1
57	70	1
168	169	3
53	56	1
106	149	1
84	97	1
65	66	2
121	126	1
45	46	1
161	162	2
163	166	1
7	12	1
20	40	1
123	123	1
129	132	1
132	133	2
1	25	2
110	111	2
112	114	1
93	94	1
57	102	1
6	7	2
35	38	1
11	57	2
14	20	1
63	69	1
39	39	1
57	62	1
42	44	1
55	147	2
87	98	1
155	160	1
6	21	1
160	160	2
91	91	1
125	126	1
6	20	1
148	148	2
119	119	1
2	3	1
42	57	1
129	130	1
127	137	1
