97	126	3
11	11	12
27	27	7
28	80	2
15	37	2
41	41	5
23	23	2
26	26	3
8	8	13
35	35	7
120	130	3
5	6	1
43	44	1
108	111	4
40	41	3
8	31	8
54	54	5
140	142	5
14	14	4
11	12	8
9	9	4
55	56	5
62	80	3
102	102	8
98	98	4
3	3	2
16	17	6
53	53	6
106	106	9
152	152	7
50	50	6
105	108	1
154	154	13
88	88	2
140	140	6
38	38	7
28	28	5
138	138	7
75	75	6
13	33	1
71	71	8
12	31	5
40	40	9
95	99	5
6	10	3
21	21	5
144	145	1
46	46	3
127	127	4
76	77	3
105	105	6
125	126	3
90	90	6
39	39	11
72	76	8
82	82	2
19	19	9
42	42	4
89	89	1
38	39	2
150	150	8
101	102	2
125	127	1
110	111	5
34	43	1
112	112	16
143	143	5
103	103	2
114	114	4
5	5	3
139	139	4
99	99	2
135	135	10
49	49	8
107	107	8
64	64	9
28	29	4
83	84	2
131	132	7
16	16	6
142	142	8
120	120	3
100	101	2
136	137	1
67	67	2
63	63	13
4	4	10
20	26	2
35	36	4
26	45	4
44	44	10
24	24	4
45	119	2
15	15	4
42	43	3
2	2	3
85	86	1
12	12	3
18	18	2
47	131	1
86	86	3
145	145	4
119	125	1
137	139	2
32	32	5
18	19	1
85	85	3
96	96	6
132	147	4
119	119	6
141	141	4
147	149	3
115	115	3
76	76	4
146	148	4
122	122	3
146	146	7
10	14	1
3	4	1
21	22	2
41	58	2
7	7	4
64	65	2
48	49	3
131	131	5
25	25	8
77	77	9
139	140	1
8	9	2
95	96	1
4	5	2
131	148	1
128	128	4
113	114	1
87	87	2
76	83	4
100	103	5
130	144	1
47	47	3
46	47	5
17	17	6
148	148	4
94	94	1
37	37	4
128	131	5
95	97	3
33	33	6
98	99	5
79	83	1
96	115	3
47	52	1
108	114	1
18	20	1
22	23	4
17	24	1
23	24	3
94	97	1
45	45	12
57	84	3
132	133	3
55	55	1
37	38	3
22	22	5
78	86	2
132	154	2
132	132	5
7	10	3
138	139	2
51	51	2
107	108	3
36	36	5
78	79	3
122	125	2
74	74	2
62	62	1
41	107	1
111	116	4
84	86	2
15	33	2
30	30	5
133	133	2
109	110	4
136	139	2
126	127	5
70	71	2
66	78	1
141	142	1
39	40	2
104	104	4
81	81	3
114	115	2
13	16	2
83	83	1
65	66	1
136	136	3
45	46	1
32	34	1
110	113	1
21	36	3
86	89	1
144	144	2
111	111	1
131	145	1
137	137	2
29	39	2
125	133	3
31	31	4
66	66	1
4	7	2
99	100	2
121	121	3
147	147	1
151	152	2
125	125	1
61	64	2
66	84	1
6	7	3
50	51	1
120	121	2
153	154	5
66	82	2
45	132	1
48	48	1
71	72	2
130	130	1
110	110	1
41	42	3
117	117	1
77	78	2
51	126	1
118	118	3
23	70	1
119	122	3
57	57	3
87	88	4
10	10	1
25	30	1
122	123	1
65	65	2
6	6	1
109	109	4
32	33	1
73	73	2
113	113	1
49	50	2
149	149	2
152	154	1
132	146	1
147	148	3
68	68	2
120	133	1
38	51	2
123	124	1
101	103	2
62	64	2
116	116	2
100	114	1
72	72	1
23	46	1
65	78	1
66	74	1
45	53	1
134	134	1
29	29	1
12	13	1
110	122	2
100	100	1
46	132	1
85	106	1
56	56	1
34	35	1
121	148	1
65	107	1
19	20	1
8	102	1
123	144	1
93	93	1
13	13	1
88	94	1
124	124	1
110	116	1
