26	87	1
72	72	9
3	3	5
35	35	9
19	117	2
27	80	4
97	97	3
103	103	6
99	100	9
23	74	1
40	40	7
97	100	2
96	96	3
84	85	9
29	29	11
9	9	4
113	113	4
34	34	17
58	58	6
57	57	6
20	36	6
87	101	5
128	128	6
12	95	1
57	59	3
47	48	4
74	74	18
65	65	12
10	124	6
71	71	12
78	85	3
73	74	3
101	101	10
72	73	4
97	98	1
75	75	10
78	78	8
57	58	6
67	67	9
10	10	14
44	44	9
7	7	3
46	63	3
62	62	7
35	57	8
75	76	7
105	105	7
95	95	13
46	100	1
124	124	8
114	114	6
22	23	7
87	88	6
84	84	9
78	79	6
87	93	3
130	130	6
21	22	6
30	63	2
2	2	9
13	13	5
120	134	2
67	68	7
126	126	8
19	19	14
81	81	4
61	61	12
132	132	7
48	48	6
39	39	6
9	10	12
120	120	4
26	26	12
102	102	7
35	38	2
11	17	1
13	48	4
28	28	12
79	79	15
88	88	9
98	98	9
15	16	5
76	76	10
56	57	4
73	73	10
78	80	3
6	6	8
48	49	6
112	133	1
86	86	9
121	121	5
66	66	16
39	40	3
42	61	1
5	6	2
29	48	7
18	18	3
112	112	7
9	100	1
89	92	2
69	69	18
80	82	3
11	11	19
31	32	6
12	12	5
82	82	10
35	36	9
131	131	12
27	27	21
26	47	3
15	15	12
106	106	4
98	102	3
32	33	3
24	83	5
4	119	2
77	77	19
63	63	9
42	42	3
32	32	9
1	2	2
99	99	13
23	23	9
83	83	2
93	93	10
20	45	4
46	46	17
47	47	16
12	69	1
83	84	3
20	20	13
80	80	10
89	89	14
21	30	2
116	116	4
8	8	6
14	15	3
17	41	5
49	93	1
114	115	8
25	26	2
74	75	3
86	101	1
107	109	5
115	115	7
113	122	1
125	125	7
41	41	4
45	45	11
45	63	1
123	123	1
10	134	1
117	117	4
111	113	4
47	88	3
22	24	1
68	69	3
36	36	12
64	64	8
28	29	3
47	93	1
20	21	5
108	108	3
11	93	3
26	93	3
21	62	1
35	41	2
129	129	9
21	21	16
30	31	11
90	128	4
20	43	2
5	37	2
65	66	1
37	37	4
41	42	4
31	31	3
127	128	1
107	107	3
104	104	5
103	104	3
59	60	4
9	73	3
76	95	1
7	34	2
11	12	4
90	92	3
38	38	3
5	5	6
7	14	2
7	65	1
33	45	2
30	30	9
61	64	5
4	4	4
119	119	2
27	92	6
60	60	8
46	47	2
100	100	6
90	91	3
7	8	2
1	76	2
118	118	11
21	63	2
61	62	2
47	77	4
41	56	1
8	9	5
10	130	2
127	127	1
33	35	3
93	98	1
109	109	2
2	3	2
3	4	4
106	107	4
27	94	2
131	132	3
39	81	2
80	81	4
88	94	3
92	92	6
27	29	1
30	33	2
103	105	4
43	60	2
23	84	3
33	48	1
25	25	6
30	32	3
55	56	3
16	17	3
10	14	1
95	96	3
6	7	6
86	88	1
76	77	2
35	76	2
18	117	2
112	113	1
59	59	10
94	101	1
38	39	4
66	67	2
17	17	3
68	68	8
19	66	1
87	87	6
21	37	1
27	28	1
91	92	2
3	80	3
125	126	4
4	82	2
45	59	4
90	90	4
16	16	2
133	133	6
56	56	4
29	47	1
5	13	3
47	74	1
38	74	1
87	91	1
18	43	4
107	108	1
11	74	1
36	37	5
45	46	3
61	72	2
102	118	2
58	60	1
11	16	1
63	68	3
131	133	1
110	110	7
70	70	1
33	75	2
71	73	2
34	82	1
94	94	3
92	95	2
11	89	1
89	128	2
19	20	2
27	37	4
109	114	1
22	22	1
43	61	1
61	71	1
36	41	1
104	105	3
61	63	4
96	97	1
45	94	1
109	110	1
4	89	1
55	55	1
13	14	1
37	38	1
115	121	1
126	129	2
61	75	2
91	91	2
13	98	1
45	48	1
17	23	1
124	130	2
21	84	3
79	82	1
45	72	3
8	74	1
85	85	6
19	76	1
63	64	2
62	63	1
34	35	3
10	11	1
14	14	2
12	74	1
70	71	4
33	122	1
60	95	3
46	67	1
42	43	1
76	114	2
130	133	2
87	94	2
33	33	1
24	25	1
6	101	1
11	13	1
75	77	1
41	57	1
125	129	1
89	99	1
60	77	1
10	12	2
8	75	1
55	83	2
19	86	1
29	31	2
43	43	2
104	118	1
46	60	1
5	39	1
106	116	1
93	99	2
26	88	2
13	16	1
56	60	2
7	23	1
103	122	3
122	122	1
31	79	1
63	118	1
92	93	1
31	33	2
77	94	1
7	15	1
38	40	2
4	5	1
132	133	1
14	89	1
11	15	1
49	49	1
95	106	1
40	41	1
24	27	1
106	115	1
30	55	1
5	38	1
76	102	1
115	134	1
111	111	1
