36	37	6
10	11	1
61	61	5
118	138	3
109	132	1
100	101	1
53	53	7
78	80	1
14	14	3
96	96	4
90	90	4
95	114	1
55	55	1
117	117	2
52	52	4
134	135	2
4	24	1
122	122	5
68	97	2
110	111	1
10	59	1
135	135	3
95	95	2
97	98	1
4	4	4
1	1	4
89	90	12
54	55	2
62	63	3
104	104	4
29	29	6
70	71	2
81	81	2
67	68	3
19	20	3
5	5	5
22	22	5
133	133	4
59	59	2
145	145	4
94	94	3
81	87	1
51	52	1
58	59	3
2	2	1
85	85	4
135	136	3
6	6	5
114	115	3
50	135	2
35	54	3
83	84	1
93	94	3
125	125	4
101	101	2
121	123	1
23	129	5
108	111	1
141	141	4
15	110	1
58	64	2
101	102	4
64	65	4
138	138	2
80	81	1
113	113	5
54	54	6
63	64	4
33	33	2
140	141	5
103	103	4
17	17	1
48	49	4
127	127	2
53	88	2
127	130	6
47	51	2
124	124	3
43	51	1
71	72	6
120	120	3
11	11	7
131	133	1
3	3	4
19	23	1
76	77	4
135	139	2
136	138	2
124	130	1
136	139	5
43	43	3
75	79	3
132	132	3
0	1	3
51	131	1
144	145	2
136	137	1
55	56	2
89	89	6
99	108	2
68	68	1
125	126	5
59	60	3
114	125	1
126	132	2
139	139	3
83	83	2
70	72	2
108	108	3
128	128	2
138	139	1
137	137	5
93	93	4
63	63	1
93	106	4
66	66	3
98	98	3
124	140	1
112	112	2
95	96	2
79	79	1
91	91	1
130	131	2
139	140	2
50	51	1
33	54	4
106	106	2
112	118	1
87	87	3
5	6	2
55	61	3
31	32	1
72	73	2
99	101	2
121	133	1
63	73	1
23	23	1
88	112	1
113	119	1
35	35	4
0	11	1
80	80	4
8	9	1
2	3	1
123	123	5
13	15	2
64	64	1
18	39	2
128	129	1
71	71	1
119	124	1
15	15	2
34	35	2
88	90	1
91	138	2
95	124	1
57	57	1
143	144	1
88	89	1
31	33	1
62	62	2
41	41	1
99	100	2
106	107	1
59	62	3
129	129	2
28	28	1
12	12	1
37	37	1
19	19	1
109	109	1
3	5	1
26	26	5
77	77	1
58	58	3
40	40	1
65	66	1
140	140	1
120	121	1
142	142	1
122	140	1
118	131	2
26	27	1
90	97	1
70	70	1
58	73	1
85	93	2
137	138	1
132	133	1
115	115	1
114	114	1
16	17	1
14	16	1
143	143	1
47	58	1
130	135	1
92	93	1
118	118	1
33	55	1
66	70	1
67	67	1
