0	0	62
2	2	73
27	27	62
138	138	56
86	90	1
134	134	79
124	124	41
34	34	73
76	76	56
17	18	12
16	16	68
37	37	47
100	100	51
119	123	2
11	17	2
93	93	32
10	10	65
87	93	2
74	74	31
11	26	5
76	103	2
91	91	29
7	8	15
132	132	64
5	5	64
8	9	35
28	28	47
130	130	77
125	125	54
9	9	50
4	4	63
74	75	28
11	11	63
3	4	24
127	127	50
72	73	38
11	27	5
72	72	24
38	38	35
13	13	53
78	78	44
5	6	11
127	128	6
93	94	20
92	104	2
14	14	53
35	35	63
30	38	1
134	135	24
33	33	62
139	140	14
17	17	73
79	80	14
100	101	17
108	109	16
23	24	27
106	106	33
5	8	7
30	31	21
123	124	28
113	113	30
110	110	30
74	80	4
19	19	47
104	120	2
104	105	24
23	23	67
136	136	55
17	19	18
107	107	40
114	114	31
71	72	8
114	115	12
1	1	55
135	135	58
83	83	36
104	107	12
121	122	31
129	133	4
105	106	14
26	32	5
126	126	68
75	80	4
5	37	4
105	105	18
13	14	51
77	78	15
103	103	44
133	134	6
133	133	55
84	86	5
115	118	1
122	122	55
128	134	2
21	21	50
128	128	47
5	10	5
109	109	34
131	131	57
129	129	46
18	18	60
7	7	76
117	118	14
124	125	25
24	25	22
74	83	2
79	79	15
14	15	34
97	97	25
95	96	22
11	12	16
12	15	8
12	12	45
26	28	6
20	20	80
101	101	23
78	104	2
101	104	3
77	77	36
10	11	24
93	107	3
29	29	44
106	107	30
83	85	6
132	133	18
87	90	3
6	7	16
81	81	39
137	138	15
8	8	67
139	139	49
102	102	23
104	106	5
75	88	2
126	134	4
90	90	32
121	121	43
2	13	2
15	15	37
27	28	7
109	110	2
82	83	10
6	6	61
98	98	43
37	95	3
78	79	5
81	93	3
37	115	5
36	36	50
102	117	2
116	116	45
140	140	60
3	3	57
77	83	5
29	31	7
92	101	5
31	31	48
72	74	10
11	14	7
110	111	45
128	129	13
137	137	60
80	81	6
30	32	23
29	30	25
19	30	1
83	84	11
120	120	31
97	100	4
112	112	38
100	137	4
87	87	51
76	77	17
30	30	32
25	26	20
32	33	5
95	95	32
124	127	7
117	117	26
71	71	22
1	3	2
115	117	1
79	97	1
92	92	28
88	89	8
4	5	22
12	13	10
83	87	9
115	115	43
38	135	4
22	24	7
135	136	16
27	30	12
5	36	1
5	13	3
85	86	12
94	94	34
96	96	26
131	132	8
90	91	11
9	10	9
17	95	2
35	36	5
8	10	5
82	84	4
71	80	2
120	121	20
89	90	13
94	95	13
98	99	14
86	86	36
20	22	13
89	89	39
24	24	58
19	21	16
77	84	2
10	12	11
106	108	6
123	123	90
119	119	21
136	137	16
102	103	35
7	10	1
1	28	2
14	19	6
99	100	6
112	120	3
22	22	42
76	80	1
12	109	3
84	84	26
79	118	3
126	128	8
123	125	5
91	92	9
75	77	12
10	18	5
109	111	9
118	124	3
80	87	4
109	113	2
12	26	1
111	111	37
88	88	27
112	113	17
87	102	1
98	101	6
27	32	7
27	29	19
106	109	4
18	82	2
75	75	26
97	134	1
130	140	1
0	34	3
11	24	6
18	19	27
24	27	9
4	18	2
0	1	14
102	122	3
25	25	34
7	20	1
71	141	5
116	124	1
34	37	9
135	138	7
25	27	5
28	30	8
96	97	12
73	73	28
76	140	3
2	3	21
119	120	10
88	90	6
90	93	3
125	127	3
32	32	52
28	29	32
78	113	2
110	112	4
15	17	10
118	119	20
104	104	42
91	97	4
7	22	8
81	82	10
33	35	7
108	125	3
23	25	12
80	80	39
118	120	3
122	123	11
113	115	3
99	99	25
12	14	12
0	7	4
26	31	1
81	84	3
15	16	14
5	38	3
71	121	2
21	37	1
34	36	1
26	26	49
73	76	9
0	2	11
16	18	14
73	94	1
73	77	7
10	26	4
109	135	1
16	17	10
22	26	4
22	23	16
80	86	6
26	27	10
125	129	1
96	134	1
88	124	3
12	33	3
1	2	12
136	138	11
88	91	6
117	123	1
132	135	2
2	4	8
35	91	2
73	105	2
0	30	2
83	104	3
121	125	3
3	16	2
134	136	8
6	37	3
19	20	19
79	83	5
89	91	7
19	76	3
33	34	11
103	112	2
73	74	14
1	8	9
75	119	2
13	28	4
33	90	2
74	76	11
116	121	2
84	106	1
19	72	4
120	123	3
77	105	4
0	3	7
11	15	3
107	108	18
5	32	3
20	21	17
18	76	4
75	76	8
6	25	2
118	118	26
85	106	5
10	13	4
18	83	1
1	4	6
5	9	5
132	136	3
0	19	3
85	87	9
129	130	8
92	93	8
119	122	6
7	138	2
91	116	2
5	71	2
13	20	2
76	78	8
7	9	14
90	92	3
130	131	13
19	140	2
81	85	8
85	85	16
101	115	3
13	19	1
108	114	1
131	134	1
11	13	7
34	38	2
98	100	2
108	111	1
73	100	2
113	114	12
108	110	4
85	101	5
118	122	2
124	134	1
108	108	12
83	106	3
76	106	1
12	20	1
35	37	1
0	4	4
125	126	10
97	107	3
131	133	1
82	82	22
97	120	1
0	87	3
140	141	2
103	105	5
114	133	2
31	32	9
124	126	9
7	11	3
32	91	2
9	11	6
92	96	1
22	75	2
37	38	11
126	127	10
105	109	4
135	137	6
34	35	17
101	122	1
1	5	6
16	27	5
39	39	2
9	26	1
15	18	11
11	25	7
14	28	1
35	131	2
75	118	3
88	95	2
5	24	1
91	101	4
12	21	3
105	121	2
78	82	3
4	8	1
3	8	2
110	115	1
125	128	1
103	104	5
80	85	1
90	95	2
36	38	2
86	87	5
29	94	2
0	93	4
16	21	1
75	102	3
87	88	10
127	129	5
12	19	2
101	108	1
8	22	5
113	124	2
116	117	20
123	130	1
81	104	5
33	130	4
120	122	6
3	5	6
100	120	1
80	106	2
3	123	5
79	112	3
23	27	1
95	125	4
31	36	2
20	73	2
22	32	1
101	119	3
99	106	2
109	112	5
10	15	4
36	37	6
132	134	4
127	139	2
93	122	3
15	19	1
103	106	2
26	75	1
104	121	2
97	115	2
94	107	2
107	109	4
101	102	18
24	32	2
23	32	5
102	110	3
28	31	4
80	88	1
32	114	2
74	134	3
37	139	1
113	126	3
25	28	4
86	89	7
1	7	3
89	94	3
15	78	2
38	91	1
91	93	6
1	10	5
2	6	1
19	25	2
93	104	4
138	139	14
86	94	1
103	113	2
21	22	10
8	23	6
96	103	2
23	26	6
15	31	2
28	32	1
74	114	3
74	88	8
80	97	3
81	116	3
71	99	1
96	98	3
29	32	1
25	73	1
86	95	3
81	88	1
105	112	3
33	36	2
94	109	3
7	26	1
71	76	1
75	91	1
18	121	4
9	14	2
77	85	2
78	98	1
4	37	2
14	31	2
97	99	3
13	16	1
117	119	4
116	118	3
111	112	7
12	22	3
13	96	2
11	119	2
72	76	4
77	81	2
77	115	1
1	32	5
26	33	2
86	93	1
112	114	2
108	138	1
11	20	2
3	6	3
12	113	1
105	119	1
92	100	2
133	138	1
15	27	2
123	127	5
128	130	1
9	24	2
44	44	2
91	94	1
79	120	2
95	118	1
1	27	1
24	26	4
26	36	1
21	95	2
105	120	2
118	123	2
22	33	1
99	105	3
71	104	3
2	5	5
86	105	1
20	129	1
3	127	2
22	27	3
1	73	2
79	117	2
84	85	3
114	125	4
17	31	3
17	22	2
96	121	3
123	126	4
86	123	3
82	86	3
87	89	1
27	31	4
14	80	3
93	102	1
130	132	2
72	93	1
86	92	2
71	122	1
101	106	1
38	68	1
105	108	1
8	27	1
20	26	3
30	92	2
21	36	2
7	24	1
11	23	3
78	93	2
29	45	1
97	98	6
14	102	1
20	78	3
20	23	3
13	15	2
13	102	1
100	113	2
124	135	3
99	101	7
15	24	2
19	23	6
5	7	4
15	79	1
93	101	3
74	77	1
29	85	2
3	85	1
96	135	1
114	127	3
105	111	3
104	119	1
114	117	2
71	73	5
77	111	2
122	125	8
86	138	1
1	21	2
110	132	1
80	123	3
3	28	5
13	22	2
31	87	1
13	18	2
21	27	5
19	22	3
116	120	1
88	94	1
93	103	1
102	114	4
126	129	1
77	88	1
135	141	1
134	139	2
31	66	1
124	137	2
137	139	3
3	37	1
75	103	2
96	107	1
30	33	1
81	83	3
74	103	3
73	116	1
80	109	2
16	129	1
92	94	7
102	108	1
95	97	2
78	87	2
35	123	2
77	123	1
78	106	4
26	86	1
3	12	2
91	110	1
114	118	2
135	139	1
18	98	2
97	135	5
117	120	3
72	75	4
112	126	3
93	109	2
116	131	1
22	71	2
114	123	1
35	100	1
80	108	1
73	75	3
129	131	1
97	102	2
129	138	1
0	31	4
28	43	1
6	8	2
82	106	1
75	79	2
117	122	1
76	112	1
96	99	3
3	81	2
19	73	2
15	25	1
82	112	1
23	34	2
93	108	1
80	126	2
77	113	1
12	25	3
95	100	1
71	93	1
47	117	1
26	47	1
0	28	4
88	138	2
97	103	1
77	80	1
14	29	1
5	35	1
0	6	1
74	79	1
101	103	2
125	136	4
12	138	2
21	35	2
29	104	3
82	117	3
7	25	2
28	37	2
32	116	1
12	28	1
72	140	1
10	25	1
10	24	2
9	15	1
92	103	3
84	88	1
13	103	1
94	99	2
105	127	1
30	86	1
14	88	1
23	28	1
88	93	1
102	104	2
16	36	1
110	131	1
38	120	2
3	32	2
92	130	1
111	140	4
102	118	1
7	68	1
112	115	2
4	9	1
80	82	1
89	124	1
119	121	2
98	135	2
121	123	2
89	96	2
2	38	1
78	80	2
136	140	3
100	108	1
13	25	2
93	119	2
19	71	1
21	23	3
100	132	1
9	44	1
84	105	1
79	81	1
16	35	1
20	72	1
72	113	3
84	93	1
0	35	1
124	128	2
77	95	1
22	31	2
32	94	2
22	29	1
20	30	1
105	107	2
119	126	1
80	118	1
72	80	1
6	38	1
38	115	1
12	114	1
101	107	2
5	34	1
26	108	2
124	133	2
113	122	2
9	46	1
93	96	1
91	95	1
5	11	1
134	138	1
0	27	1
27	33	1
104	111	1
4	126	1
79	99	1
80	94	1
10	14	1
15	66	1
14	23	1
129	135	1
100	107	1
87	104	2
31	138	1
88	101	1
12	24	1
117	129	1
9	83	1
7	23	1
5	126	1
11	22	1
93	95	1
126	130	1
116	119	1
31	37	1
4	91	1
20	74	1
127	130	1
123	128	1
10	23	1
2	39	1
87	92	1
80	83	1
114	116	1
79	95	1
4	124	1
84	87	1
102	105	1
80	111	1
104	126	1
91	108	1
75	81	1
90	96	1
44	116	1
34	131	1
4	6	1
74	98	1
80	105	1
