53	53	8
24	24	3
145	145	2
58	59	4
21	21	4
117	117	4
9	9	9
71	71	7
33	33	10
73	74	3
35	36	7
127	129	4
41	41	9
39	39	5
16	71	1
120	121	1
19	19	3
133	135	3
118	118	11
81	81	4
108	110	1
121	121	6
89	90	2
80	80	7
117	118	1
41	42	5
74	144	1
109	109	10
78	80	3
100	120	5
146	146	2
68	71	2
99	99	11
95	138	5
17	18	2
141	142	1
105	106	5
105	107	1
135	135	8
10	10	4
129	129	7
98	140	1
125	125	10
91	91	6
54	68	2
54	107	4
40	40	9
140	140	1
33	34	2
38	39	5
41	53	3
69	72	2
22	22	12
73	77	4
64	85	1
124	130	1
98	98	1
107	107	8
99	125	2
23	23	1
38	38	6
74	74	5
56	56	3
30	30	9
8	32	1
142	142	5
131	131	7
28	143	3
37	38	5
127	143	4
65	65	5
48	74	1
39	40	7
8	11	4
125	132	2
47	47	4
101	101	10
4	4	5
35	43	1
30	31	7
102	102	8
131	133	4
17	19	4
94	121	6
117	123	3
12	13	1
25	25	7
69	79	3
76	78	1
28	29	1
135	136	6
99	120	5
5	6	3
38	41	1
66	66	2
51	73	2
94	96	2
66	68	2
52	53	3
115	115	4
1	1	6
11	23	1
138	138	8
76	77	6
111	112	5
72	72	8
85	85	4
1	10	1
28	28	7
50	50	2
48	67	2
124	125	6
144	144	4
86	86	2
82	82	9
123	124	4
16	19	2
21	25	1
68	68	8
35	35	4
97	141	9
61	135	3
123	123	3
16	16	2
49	49	7
71	72	1
34	35	2
63	63	1
112	114	2
55	56	6
88	92	3
2	6	1
104	104	1
5	5	7
18	18	10
111	137	2
5	31	2
3	3	1
115	116	5
62	65	4
68	73	1
42	70	1
119	119	7
27	27	1
88	89	4
91	115	2
132	132	5
103	103	8
74	85	4
26	117	1
134	134	3
93	94	3
105	105	4
106	106	10
78	78	1
110	135	3
24	115	1
59	59	15
87	90	1
89	140	5
75	76	1
54	55	1
10	38	2
145	146	4
91	110	2
129	131	1
21	94	1
3	4	7
84	84	4
104	138	1
54	64	1
140	141	3
109	141	2
68	72	1
32	32	3
49	77	2
56	62	3
19	24	1
26	26	6
52	52	4
0	9	3
54	54	5
79	81	2
136	136	3
18	103	1
4	15	1
40	53	1
48	48	4
122	123	2
84	85	2
77	79	1
125	126	4
128	128	7
26	119	1
62	63	8
24	25	3
118	119	5
73	73	2
28	125	2
65	84	2
39	41	2
61	61	1
114	114	1
97	98	1
2	2	5
29	138	2
101	102	4
139	140	2
88	88	1
6	8	1
122	122	4
139	139	2
31	33	1
1	143	2
95	95	2
125	127	2
67	79	3
63	64	5
93	101	1
50	52	3
3	12	2
107	108	4
126	126	3
83	84	2
111	139	1
38	40	2
25	26	2
9	32	7
96	96	3
29	29	8
77	77	3
64	83	1
89	89	1
88	90	1
3	5	2
136	139	3
141	141	5
138	140	3
37	37	3
18	19	3
137	138	2
128	130	5
20	21	4
100	101	3
59	60	1
53	54	2
108	109	5
103	104	1
67	67	6
58	58	5
86	117	2
14	16	2
124	144	2
119	120	1
0	1	2
54	62	4
87	87	7
102	103	1
110	113	2
71	132	2
50	53	2
50	51	2
110	112	1
108	108	3
6	10	3
60	60	2
73	84	3
8	8	1
59	64	1
2	4	2
57	91	1
121	132	6
109	110	1
53	69	5
95	137	3
12	14	4
57	57	2
20	20	5
36	36	2
134	135	3
40	108	2
76	76	3
137	137	1
88	95	3
103	106	2
130	130	4
116	116	3
51	98	1
6	6	2
13	14	2
55	55	2
23	29	2
129	130	2
62	64	1
88	91	4
14	25	1
133	133	1
16	18	1
86	87	1
97	97	1
96	103	1
42	43	1
111	111	1
119	121	2
47	65	2
90	90	4
23	24	2
92	93	2
100	100	2
121	133	1
93	137	1
110	140	4
143	144	1
82	84	1
27	28	1
124	124	2
98	99	2
94	94	3
54	74	1
134	139	1
54	72	1
1	144	1
83	83	1
93	93	2
67	122	1
120	120	6
79	83	2
14	15	2
17	23	1
112	112	1
13	13	2
110	111	2
97	100	1
36	37	2
131	132	1
5	71	2
32	87	1
35	41	2
75	75	1
34	34	1
9	38	1
132	133	1
93	111	2
10	11	2
127	127	1
66	77	1
49	50	1
29	61	1
74	76	1
64	64	1
2	5	1
28	142	1
115	118	1
20	35	1
42	42	1
92	92	1
51	51	1
66	141	1
58	64	1
36	40	1
2	3	1
14	26	1
58	85	1
135	137	1
21	95	1
2	72	1
92	131	2
0	11	1
118	126	1
121	122	1
116	117	1
14	14	1
133	134	1
23	34	1
26	118	1
118	120	1
60	109	1
11	15	1
77	78	1
111	114	1
