104	104	15
37	66	2
9	9	12
68	68	5
44	44	13
224	224	7
176	176	9
74	74	27
26	26	13
135	135	3
75	75	10
57	214	2
98	99	10
167	167	7
39	39	9
180	181	1
131	131	4
194	195	2
109	109	2
42	42	19
200	201	4
227	227	8
54	55	4
19	217	3
169	169	6
140	143	4
150	150	4
200	200	10
223	223	9
15	15	14
23	23	13
70	70	20
65	65	8
188	197	6
33	83	3
192	193	3
145	146	4
51	53	5
52	189	1
133	133	16
224	229	5
7	7	10
71	71	14
122	129	3
51	51	5
44	225	4
58	58	9
175	175	7
12	12	22
47	47	9
229	230	5
54	215	4
17	18	5
25	25	15
142	142	9
149	149	1
217	222	1
97	99	3
54	68	3
168	169	6
151	151	7
159	159	5
152	152	8
229	229	10
24	224	7
81	81	3
158	159	11
0	18	2
119	125	6
66	69	3
1	1	13
15	17	3
47	197	2
38	38	7
218	218	9
121	122	8
9	37	2
54	54	25
60	60	10
194	194	9
114	135	5
118	123	5
172	182	1
61	61	5
1	2	8
40	69	2
63	63	11
234	234	4
241	241	5
79	79	14
82	82	8
129	130	4
140	140	3
165	169	2
97	97	7
119	141	3
2	2	20
220	221	4
201	201	14
242	242	13
155	174	2
15	16	4
80	81	5
30	30	17
177	179	3
214	214	9
90	92	5
155	155	6
171	171	8
43	44	7
117	118	5
168	168	3
25	26	10
174	174	7
7	60	2
106	106	8
21	21	11
212	213	3
219	219	18
22	22	18
27	27	12
4	4	4
102	102	9
69	69	11
222	223	8
225	226	3
121	133	2
86	147	1
137	138	3
99	100	8
203	204	3
34	35	2
81	82	5
8	32	3
210	210	4
113	146	1
180	180	4
202	202	13
119	119	7
60	211	9
105	126	6
9	10	12
212	216	4
236	236	4
101	101	22
180	182	2
226	226	7
57	57	30
122	128	4
142	146	6
105	139	5
27	86	1
64	64	13
2	60	10
32	32	14
116	116	10
136	149	4
228	230	2
192	195	2
233	233	6
205	206	8
184	185	1
168	178	1
19	20	4
222	222	5
118	118	7
146	151	1
96	96	16
35	35	10
4	17	5
216	217	6
213	214	1
148	148	14
233	235	2
76	77	3
9	54	4
139	139	1
55	55	7
8	8	12
40	41	3
43	43	11
81	187	1
48	48	7
2	4	4
138	139	8
45	72	1
57	167	3
193	194	7
101	102	2
105	105	9
228	229	4
19	19	16
46	46	13
85	86	8
62	62	14
133	136	2
169	177	1
228	231	3
53	55	5
150	151	7
42	43	1
223	224	1
157	157	3
121	121	11
37	37	10
13	14	2
101	174	1
124	153	3
141	141	5
150	155	1
74	75	7
33	58	5
197	198	3
199	199	23
100	100	6
73	73	14
143	146	3
149	152	1
235	235	9
28	49	3
80	80	10
52	52	12
173	173	8
11	11	15
138	138	11
31	59	3
123	127	1
33	33	13
151	152	2
18	18	19
122	127	4
65	68	11
147	147	5
61	62	7
119	124	4
144	172	1
103	104	2
191	193	3
103	103	8
213	213	7
67	73	1
156	158	9
0	0	17
6	13	4
27	28	3
143	144	1
78	78	5
39	102	5
225	225	3
211	212	3
218	221	1
40	40	6
12	23	1
140	141	3
20	21	1
161	163	2
4	8	2
105	106	7
165	178	4
122	122	10
46	47	5
120	121	9
7	21	2
114	163	5
228	228	1
95	97	6
211	215	3
103	131	3
3	3	4
199	200	3
202	203	4
216	216	2
0	98	3
130	130	3
33	36	1
100	101	5
24	25	3
200	208	3
239	240	4
187	187	5
76	76	9
172	172	7
105	132	2
121	152	4
162	162	8
3	6	2
86	86	10
239	239	11
24	43	3
59	59	18
234	236	5
30	31	8
24	24	12
75	77	6
146	146	7
40	42	3
1	105	3
14	60	2
241	242	7
189	192	2
17	17	9
41	41	13
179	180	4
55	186	3
84	84	8
181	181	8
8	9	3
186	189	1
187	189	4
235	239	1
75	76	4
215	215	6
66	66	12
30	34	3
0	1	3
2	3	6
125	143	2
188	188	8
44	45	3
178	179	11
214	216	3
98	98	9
169	184	3
33	34	1
211	211	6
10	24	2
29	29	3
84	85	1
50	50	4
177	191	2
120	152	1
108	109	2
67	67	7
124	124	2
72	72	5
143	143	8
124	125	3
31	31	10
161	161	7
16	16	8
28	28	10
115	115	3
123	123	7
10	10	19
189	198	1
179	201	1
114	114	8
32	38	1
137	137	2
198	199	4
186	187	7
13	59	1
21	24	2
190	192	9
232	232	8
6	60	4
198	198	3
47	51	1
103	106	5
85	85	9
35	36	4
153	153	7
125	126	5
208	208	13
98	152	4
56	56	13
154	154	5
166	166	3
161	177	2
165	165	4
73	74	8
133	134	3
105	107	2
184	184	4
106	108	5
237	237	7
63	203	1
226	227	7
82	84	3
19	23	3
240	240	2
203	203	5
147	151	3
36	67	1
99	103	1
185	190	4
49	50	2
210	211	6
195	196	2
43	225	3
20	69	4
29	30	8
231	231	4
144	145	3
230	231	1
54	212	4
200	207	9
101	151	1
225	229	4
39	41	4
230	230	16
89	89	5
38	40	1
20	32	2
14	17	1
53	53	6
52	55	1
6	21	2
52	54	6
76	79	3
64	66	2
195	195	5
95	95	18
188	189	4
120	120	9
212	212	2
123	125	5
29	73	2
221	221	6
33	35	5
58	59	4
189	189	4
66	68	7
237	238	2
152	154	1
209	209	8
14	14	5
117	117	3
134	134	8
112	153	1
147	148	2
153	154	3
209	210	6
186	188	1
21	72	2
20	20	9
103	156	2
36	38	2
45	45	2
127	128	1
120	145	5
11	20	3
47	193	2
167	178	2
218	223	2
162	163	2
116	117	1
192	192	12
17	62	2
128	128	6
169	178	2
36	36	11
177	177	10
99	99	8
198	200	2
156	157	2
119	123	2
163	170	4
106	107	6
104	140	1
112	113	2
4	5	7
114	115	2
48	50	1
146	147	3
183	183	9
240	241	1
179	179	3
123	124	2
182	182	3
165	166	3
62	64	2
53	183	2
54	56	1
49	193	1
211	214	2
142	143	1
220	222	1
122	126	1
135	136	1
102	145	1
166	167	2
41	43	3
62	63	1
32	74	3
41	71	1
182	191	6
102	143	1
206	206	5
224	225	2
107	107	5
78	79	3
124	127	1
16	19	4
37	38	3
69	70	1
205	207	3
77	77	4
5	6	1
159	163	1
77	78	5
185	185	5
201	203	2
210	213	2
12	13	15
112	112	2
141	143	4
83	83	7
192	194	2
10	11	2
43	46	3
96	102	3
48	88	1
58	222	2
154	155	3
129	129	2
1	16	2
48	49	6
136	147	2
217	217	4
108	108	3
20	71	1
4	22	2
26	73	4
210	212	4
127	129	2
32	215	1
120	122	2
148	150	1
125	125	3
164	165	1
227	228	1
191	195	1
150	154	1
1	3	1
99	160	2
43	45	6
204	204	4
136	136	6
134	135	1
159	164	1
48	51	2
238	238	3
53	74	1
162	164	2
149	150	1
193	196	1
217	218	5
13	13	3
103	154	1
168	177	1
108	113	1
56	57	4
80	84	2
36	37	2
196	196	10
23	25	1
194	232	1
68	179	3
11	12	3
164	164	1
20	212	2
9	19	1
81	83	1
190	190	4
206	207	3
31	32	2
205	208	2
58	208	3
4	103	1
205	205	5
217	219	2
174	175	1
0	105	3
104	143	3
64	65	3
6	6	1
70	71	2
36	56	1
85	88	1
47	192	2
187	190	1
14	29	4
24	27	4
109	110	9
58	221	1
65	70	3
101	109	2
124	152	1
176	177	3
160	161	4
14	16	4
71	72	1
110	110	4
72	73	5
128	144	1
175	177	2
118	133	2
35	37	4
227	230	2
98	103	2
106	109	1
180	183	3
127	127	2
169	171	4
135	149	2
123	129	3
175	176	6
148	152	1
49	49	8
51	212	2
102	151	3
21	69	1
65	66	4
165	177	2
51	52	2
191	211	3
22	23	3
21	22	2
166	178	1
34	36	1
207	207	1
234	235	1
187	198	1
0	3	3
57	59	5
145	147	2
233	234	3
39	42	4
32	83	1
119	127	2
34	34	2
16	17	3
22	69	1
54	213	2
104	162	1
81	84	3
141	142	3
118	119	4
190	211	1
154	174	1
148	149	1
58	60	2
192	196	3
7	8	2
56	73	1
44	46	1
137	201	1
103	133	1
174	182	3
119	120	1
57	218	1
2	221	2
115	116	1
166	168	1
104	156	1
214	215	1
8	20	2
62	68	1
112	152	1
150	152	2
220	220	3
160	160	4
145	145	1
191	191	2
218	222	2
36	218	1
54	191	1
26	27	1
44	56	1
55	207	1
111	111	1
3	105	1
111	112	2
21	23	1
77	82	1
20	70	1
158	158	2
101	122	3
0	106	1
6	104	2
8	15	3
16	34	1
225	227	1
11	26	1
155	157	2
122	130	1
169	170	2
6	8	3
48	192	2
181	184	1
113	113	2
21	40	1
207	208	2
75	164	1
89	104	1
2	15	1
177	178	1
96	97	1
32	76	1
38	39	1
165	171	1
11	220	1
163	164	1
18	19	4
189	190	1
91	92	1
194	196	1
63	64	1
24	26	1
29	60	1
39	40	1
26	28	1
23	24	1
216	218	1
193	193	1
100	162	1
64	68	1
181	182	1
88	88	1
95	96	1
29	31	1
221	222	1
10	16	1
136	137	1
204	205	1
201	202	1
73	224	2
154	173	1
217	220	1
114	117	1
170	171	1
