19	19	4
30	71	1
0	77	2
32	32	16
9	9	10
62	63	3
36	47	1
6	53	2
59	59	6
35	36	1
56	56	6
77	77	16
62	64	3
75	75	6
55	55	6
61	61	12
55	65	3
3	3	11
35	75	3
73	73	5
6	6	13
49	52	4
7	7	5
33	33	5
71	71	4
30	30	6
47	48	6
60	72	4
50	50	10
44	44	7
8	8	15
51	65	3
66	66	11
28	31	5
69	69	13
20	20	6
43	68	3
4	4	10
4	22	1
45	68	2
62	62	23
69	77	1
42	42	5
33	34	2
74	74	5
26	26	14
51	51	10
44	45	8
19	21	4
40	75	1
31	71	2
37	37	7
25	25	2
27	27	1
42	76	4
61	62	9
46	47	2
55	77	6
41	43	3
2	2	7
58	58	10
72	72	6
54	59	6
40	50	2
13	13	8
26	27	5
43	54	1
46	46	4
5	5	14
10	11	6
42	44	1
12	12	8
64	64	4
54	57	1
24	30	4
63	65	2
22	22	5
45	66	2
70	71	5
35	35	2
40	40	4
34	35	1
38	38	7
8	21	2
73	74	1
5	53	1
7	8	4
70	70	3
25	28	2
5	6	3
60	60	14
24	69	1
73	75	4
39	39	5
22	23	5
28	52	3
49	50	1
7	9	3
44	46	1
54	54	2
27	28	3
42	49	2
49	49	2
72	73	1
11	11	6
33	71	3
69	76	3
39	42	3
61	74	3
29	30	2
37	57	1
0	25	3
53	53	6
2	24	2
0	3	3
59	74	2
10	10	5
25	40	4
65	65	3
32	33	3
47	61	3
6	18	1
56	57	1
28	28	2
41	42	3
43	44	3
43	72	2
21	21	5
38	39	2
50	63	3
35	40	1
28	69	1
31	31	2
29	65	1
8	55	3
3	19	3
51	76	3
1	1	11
68	68	5
48	48	6
37	38	3
72	76	5
24	25	9
64	65	2
34	34	4
18	32	1
66	67	2
3	6	1
22	24	2
57	57	1
54	58	1
55	60	1
45	45	6
27	69	3
8	18	5
23	23	2
30	31	4
18	19	2
67	67	3
62	73	2
36	37	1
14	28	1
47	47	4
71	77	2
23	58	1
5	55	2
24	24	3
42	43	2
33	59	1
71	74	3
55	62	2
54	75	1
29	76	1
52	52	2
39	50	2
53	75	1
39	48	2
43	43	6
56	59	1
62	68	1
29	74	1
26	70	1
50	51	2
44	49	2
29	29	1
14	15	2
51	63	1
3	13	1
42	50	2
20	43	1
9	10	1
28	68	1
50	74	3
63	68	1
34	39	1
67	68	1
18	20	1
70	75	1
3	33	1
39	40	1
25	36	1
41	49	1
34	40	1
63	64	1
50	65	1
36	65	1
59	76	1
9	20	1
36	36	1
76	76	1
13	14	1
2	7	1
39	70	1
