34	35	2
6	6	31
71	74	5
36	36	46
5	6	25
23	23	27
61	61	62
14	22	3
64	64	50
20	20	83
28	28	40
13	35	4
45	45	66
42	42	64
72	74	14
29	29	33
41	42	31
66	66	51
41	69	10
65	65	43
62	62	37
5	23	3
6	56	4
25	50	3
46	68	5
12	12	75
7	7	55
11	12	9
29	31	7
48	49	10
33	34	6
44	44	17
49	50	21
58	58	50
68	68	24
2	2	62
35	35	33
19	19	91
61	64	10
10	10	55
48	48	58
59	62	5
50	50	37
19	21	14
47	47	59
67	67	45
21	21	77
25	25	51
12	21	2
39	68	3
65	66	28
74	75	18
3	3	34
49	49	31
31	31	48
65	76	4
36	37	24
12	13	18
5	24	8
39	71	6
11	68	4
13	13	72
67	68	14
43	44	10
73	73	45
26	27	8
40	40	56
35	54	3
75	76	21
70	70	25
0	0	31
30	30	27
39	69	7
1	1	60
26	26	30
27	28	21
9	9	52
63	64	10
52	52	28
48	60	8
5	5	75
1	40	1
3	61	3
57	61	3
5	76	4
46	67	3
37	37	33
45	46	10
67	70	6
38	38	53
51	75	2
77	77	39
9	11	11
56	58	2
32	32	50
43	43	41
2	13	7
14	14	2
75	75	43
24	24	61
4	5	16
11	11	50
53	63	3
32	54	9
26	28	5
20	21	17
74	74	38
23	24	14
2	3	13
34	42	3
39	39	32
41	43	12
47	48	9
23	31	3
60	60	57
34	34	20
68	70	1
18	18	39
76	76	52
8	8	57
19	20	20
72	72	35
50	51	19
32	42	2
64	66	8
76	77	2
73	74	10
5	27	5
10	11	11
46	46	71
55	55	69
9	57	1
64	65	17
59	59	40
42	66	2
22	22	60
61	62	31
69	69	39
40	50	5
0	7	5
63	63	44
23	52	1
6	7	7
22	33	4
21	56	3
8	42	5
57	57	52
40	41	7
62	64	7
37	40	2
53	53	24
41	41	46
55	66	2
36	41	1
44	45	20
27	70	6
34	36	3
62	63	21
1	24	8
33	33	58
7	20	8
61	68	7
55	57	6
66	67	40
46	47	3
51	56	1
27	50	3
40	47	5
71	71	57
4	4	69
42	44	6
1	2	28
51	51	45
54	55	17
54	54	43
19	28	1
56	56	38
25	29	4
24	25	11
32	35	7
38	71	10
68	69	13
37	43	2
41	73	3
35	36	18
8	39	1
71	73	7
59	61	4
5	8	3
13	14	7
3	4	10
7	8	15
4	37	3
31	35	8
32	38	4
6	18	6
47	56	2
37	76	3
44	70	2
21	37	2
38	43	5
38	75	2
28	29	16
40	61	5
59	60	5
22	23	21
4	32	2
6	68	2
26	35	3
24	30	3
49	51	7
63	65	10
25	26	18
10	48	1
8	61	6
23	57	3
9	55	2
53	54	18
31	40	2
21	22	14
57	59	2
35	40	4
68	72	3
37	38	18
47	67	2
8	9	3
22	51	4
71	72	9
23	29	7
27	69	4
9	49	3
44	55	4
31	53	1
72	73	13
41	53	4
52	69	4
0	2	4
64	67	7
4	23	2
3	34	3
35	39	7
43	47	3
32	51	8
29	30	22
8	20	1
26	31	4
43	55	3
32	34	2
14	43	1
32	53	2
34	38	11
13	18	5
2	66	3
24	31	1
42	43	5
37	48	3
70	72	2
3	8	3
33	70	1
52	55	3
34	58	2
49	58	2
29	71	4
29	58	4
61	63	19
52	53	7
25	39	2
22	26	3
18	19	16
50	68	4
25	66	2
50	54	3
18	21	3
58	60	4
6	37	2
48	56	6
40	73	2
45	47	5
25	27	10
40	62	2
52	54	2
2	46	2
26	30	6
66	68	5
2	30	2
29	48	3
37	51	4
36	40	4
10	45	3
27	27	40
37	69	5
56	57	12
31	32	5
23	26	3
22	30	3
68	71	3
58	59	14
34	70	2
39	40	24
43	54	5
1	47	1
9	22	4
42	74	4
28	30	2
27	30	4
27	60	2
8	12	4
7	44	4
50	52	4
2	23	1
47	51	1
1	21	4
67	74	3
59	63	2
31	50	3
54	58	2
70	74	3
33	50	4
14	15	3
2	26	3
38	49	8
27	31	6
35	47	2
59	72	1
9	66	2
28	75	1
59	76	3
51	52	8
37	59	3
24	39	2
31	34	3
36	56	1
35	49	5
38	39	2
38	52	1
51	53	6
75	77	1
25	31	3
24	27	2
54	56	3
27	39	4
72	76	2
0	1	13
10	56	10
7	9	2
35	37	4
45	75	5
26	69	3
24	53	1
22	25	3
69	73	6
28	31	1
13	74	1
62	65	6
23	37	6
56	74	2
62	69	4
42	73	1
14	40	2
18	20	3
29	53	3
0	52	1
30	36	2
46	48	4
30	58	1
39	42	2
68	73	3
58	61	2
43	66	5
62	76	1
37	45	1
55	56	6
40	42	6
4	58	1
70	71	16
26	32	1
1	10	1
65	77	1
42	53	4
40	70	1
7	21	3
13	45	2
46	56	2
32	33	11
37	39	8
11	31	2
22	34	3
24	54	2
22	29	1
0	26	2
53	69	3
45	64	4
3	33	2
34	66	1
73	76	6
6	19	1
59	64	4
53	72	1
50	53	2
34	67	2
42	70	2
69	72	2
23	72	2
34	50	1
4	40	3
35	38	6
39	53	1
31	58	2
35	44	3
36	44	2
51	62	1
56	77	1
49	61	3
3	48	3
6	36	3
6	8	1
46	54	2
66	75	2
2	33	4
40	43	5
34	37	7
30	35	2
14	47	5
56	61	5
49	66	3
0	9	1
40	65	3
9	12	3
23	38	3
40	71	2
19	39	1
30	68	2
32	60	1
34	43	1
23	32	2
21	55	1
58	73	3
23	59	1
23	41	1
9	60	3
58	67	7
5	28	3
49	53	1
30	34	2
8	21	3
34	41	1
53	73	1
26	29	5
59	66	3
3	13	1
40	44	3
21	70	3
36	58	2
63	73	2
72	75	2
39	77	2
3	5	6
53	62	2
6	23	1
53	59	1
32	67	5
49	63	2
0	40	1
57	58	16
29	40	1
32	61	4
29	77	2
42	67	4
12	24	1
29	60	2
40	64	3
0	8	2
39	46	1
31	39	1
35	45	2
10	57	3
28	64	1
50	76	1
60	61	3
45	50	7
52	59	1
25	38	2
70	76	1
30	43	3
8	19	2
68	77	3
58	75	2
36	38	8
36	55	2
22	49	1
24	26	2
44	54	2
0	48	1
30	40	4
21	44	2
42	54	1
14	31	1
4	13	2
8	14	2
52	74	3
25	28	3
9	10	6
11	13	3
27	53	1
45	76	2
67	73	2
7	13	3
44	47	4
45	57	1
24	29	3
42	55	2
24	76	1
28	51	1
13	20	2
29	76	1
69	70	5
35	71	2
21	24	3
23	61	1
11	45	2
2	56	1
19	57	1
15	40	1
60	74	1
27	35	2
21	38	3
52	63	2
7	57	1
60	67	2
60	75	1
61	65	3
4	39	1
0	20	1
6	55	2
69	75	3
38	58	2
44	74	1
13	61	1
34	45	3
2	5	3
8	57	1
30	59	1
48	59	2
22	32	1
29	35	2
25	37	1
1	5	1
31	42	1
59	77	1
35	56	1
48	53	2
59	71	2
21	26	1
24	32	1
39	41	4
1	13	1
13	48	1
2	51	1
58	66	1
21	31	1
44	46	6
39	47	5
23	30	2
13	28	1
26	53	1
6	58	2
3	26	2
8	10	2
54	65	1
67	72	1
44	75	1
52	68	4
30	31	8
5	40	1
31	49	1
48	55	1
10	54	2
60	63	3
11	46	1
37	58	2
24	61	1
24	28	1
27	61	2
4	10	2
47	50	1
9	32	1
7	18	1
13	19	1
32	44	2
28	77	2
14	42	1
24	51	1
66	74	1
3	42	1
58	62	2
38	66	1
55	60	1
39	43	1
13	59	1
3	55	1
56	59	1
21	32	1
27	29	2
23	34	1
65	67	1
4	70	1
0	4	1
67	69	1
19	77	1
4	9	1
1	4	1
29	45	1
5	25	1
33	56	1
4	27	1
22	31	2
62	67	1
51	54	1
49	74	1
64	68	1
41	66	2
28	41	1
32	55	2
6	74	1
49	72	1
74	76	1
50	73	1
39	45	1
43	70	1
21	62	1
3	12	1
1	45	1
23	50	2
27	54	1
45	56	1
31	33	1
3	24	1
15	15	1
42	57	1
9	56	1
27	57	2
39	67	1
11	67	1
31	38	1
38	70	1
