21	21	7
29	30	1
118	122	1
10	10	5
77	88	2
104	108	4
118	120	2
9	23	3
89	89	11
14	17	7
85	85	7
95	95	15
95	100	2
88	88	15
72	72	6
96	100	2
99	101	3
125	130	3
28	29	13
91	91	11
27	30	1
73	79	5
79	83	2
15	15	16
7	7	6
9	9	6
36	37	2
8	8	6
72	75	6
107	107	8
24	24	3
28	28	12
100	100	9
71	71	6
81	108	3
107	118	2
17	18	5
83	83	9
31	31	3
112	113	4
140	140	11
25	26	9
75	75	4
103	103	2
110	110	8
102	102	7
74	74	8
136	136	19
134	135	7
123	123	10
80	105	6
89	136	4
17	17	3
1	1	19
101	101	8
20	21	14
101	140	1
137	137	14
80	80	10
98	98	14
124	124	12
109	109	11
111	117	2
87	87	10
13	20	5
11	11	5
108	108	7
4	5	5
94	94	7
20	20	6
0	1	5
114	114	3
6	6	9
130	130	6
0	0	5
81	82	5
137	138	3
117	117	13
121	126	2
127	129	4
18	19	1
90	118	3
135	136	3
82	82	5
96	96	10
112	115	2
135	135	13
26	26	4
111	111	15
37	37	11
78	78	6
4	4	9
39	115	1
121	121	5
96	123	3
11	13	4
13	13	11
2	2	14
26	30	4
124	125	3
77	78	2
123	124	2
72	78	3
73	106	2
90	91	9
72	73	5
90	90	8
26	33	1
73	77	2
31	32	2
8	83	2
126	128	3
138	138	10
89	91	3
139	139	5
120	122	2
114	115	7
85	103	3
3	3	6
110	111	4
92	92	2
21	23	2
120	120	10
115	115	6
131	131	18
120	124	1
5	5	6
131	133	2
108	109	4
134	134	9
94	95	3
82	104	2
90	93	1
98	115	4
22	22	3
129	129	8
94	98	1
11	12	3
127	137	2
93	94	6
36	114	2
33	33	2
92	107	1
116	117	2
104	112	3
116	116	5
121	122	4
77	86	3
139	140	3
31	37	1
75	105	3
112	112	4
29	33	1
126	129	4
94	113	4
28	76	1
122	122	10
123	125	7
32	32	3
73	73	7
79	79	3
126	126	10
130	133	2
25	25	8
79	81	4
75	102	1
105	107	3
94	102	3
73	121	4
125	125	13
128	128	8
16	16	7
81	81	6
23	23	10
97	110	3
119	119	8
118	118	11
99	99	8
25	92	2
3	26	1
23	24	3
109	112	2
113	140	2
86	103	4
35	35	3
3	5	2
75	110	1
18	18	4
118	119	3
80	113	6
126	127	7
87	109	2
101	129	2
109	116	1
129	132	1
110	112	1
105	105	7
26	92	2
110	119	2
72	121	1
119	120	2
25	27	2
131	134	1
27	27	8
4	22	2
108	128	2
85	87	2
83	85	1
77	77	11
1	20	2
11	29	4
24	25	2
126	139	2
128	129	3
37	71	3
2	6	3
109	111	1
88	107	2
81	112	3
6	8	1
74	91	1
93	105	2
71	73	4
125	126	4
102	114	1
133	133	6
86	102	2
113	113	8
92	108	1
73	109	3
97	100	2
85	88	2
95	102	2
12	12	4
117	119	1
89	90	4
35	36	2
17	26	1
33	35	5
122	124	2
19	19	10
13	23	1
5	27	1
80	81	2
111	113	2
97	97	5
120	121	1
22	23	1
10	24	1
80	86	3
15	16	2
82	109	3
27	31	2
76	76	3
125	129	3
14	14	3
7	18	3
73	74	4
28	32	2
127	139	2
86	86	6
30	30	3
84	109	1
30	31	2
106	114	2
107	109	2
78	84	1
8	30	1
75	109	4
109	110	6
21	35	3
74	120	1
97	132	4
33	34	2
26	32	1
7	11	1
2	3	2
11	25	2
88	91	1
3	15	1
78	79	2
3	4	1
29	29	6
131	139	1
88	101	3
93	93	6
79	80	4
128	130	2
76	85	2
132	132	5
113	114	1
1	10	3
96	97	2
112	119	2
107	108	1
119	125	3
82	105	1
27	94	1
12	23	3
106	111	1
124	130	1
108	119	1
113	119	1
104	104	2
131	132	2
77	84	1
132	136	1
84	93	1
85	116	1
81	110	2
77	102	2
34	35	2
126	132	1
36	36	3
38	38	1
80	98	2
11	137	2
129	130	2
5	8	1
7	9	1
34	34	3
78	87	2
7	8	1
132	134	4
84	85	4
99	140	2
13	15	1
85	105	1
0	20	3
21	22	1
125	137	1
1	125	1
76	77	4
80	115	2
13	14	2
7	28	1
132	133	1
11	14	2
119	135	1
28	75	2
33	124	1
113	129	1
32	34	1
106	107	1
96	101	1
115	116	2
72	76	1
130	131	3
107	114	1
122	123	2
134	137	2
112	116	2
29	36	1
95	116	2
121	125	3
91	128	2
8	11	1
5	12	1
82	119	3
75	77	1
112	120	1
130	134	1
98	99	1
105	122	2
7	13	2
102	103	1
76	92	1
74	108	2
85	104	1
125	138	1
74	75	1
127	128	1
108	111	1
18	21	2
73	75	2
104	124	1
94	115	1
80	114	1
121	123	1
75	76	1
107	112	1
99	100	1
7	20	1
9	31	1
110	117	1
102	108	1
129	139	1
82	123	1
127	127	1
74	104	1
9	12	2
37	38	1
125	135	1
104	106	1
93	102	1
101	116	1
74	77	1
134	138	1
131	140	1
136	140	1
7	29	1
