109	109	8
184	184	13
74	74	9
70	70	3
54	54	6
48	48	6
36	36	5
13	13	11
142	142	4
117	117	6
30	30	12
1	1	8
67	67	4
141	141	6
135	135	6
158	165	1
139	140	10
89	89	7
137	137	8
149	149	6
88	88	8
192	193	9
169	169	10
100	100	5
158	158	5
143	143	9
101	103	2
2	2	10
189	189	5
195	196	9
3	3	7
44	44	7
38	39	2
174	178	3
117	118	7
87	87	5
22	22	5
126	126	7
95	95	12
126	197	3
51	51	9
110	153	5
47	48	5
109	152	5
162	163	1
165	168	3
161	161	8
9	10	2
121	121	5
159	159	7
182	197	4
182	182	7
134	134	15
0	30	3
164	167	7
192	192	4
56	56	8
100	106	6
79	81	1
6	6	2
133	133	11
102	103	3
147	147	24
76	100	1
154	155	2
3	26	5
23	58	4
35	35	6
18	42	3
191	191	5
196	196	9
176	177	1
131	139	6
8	9	4
24	25	4
36	44	2
160	160	12
7	16	1
168	168	13
179	181	2
190	190	3
37	37	15
96	101	4
181	181	5
34	34	4
72	72	5
49	49	14
76	79	3
19	24	5
151	151	10
84	86	7
71	73	5
146	146	8
114	116	2
103	105	7
169	170	6
170	170	4
70	71	4
151	152	4
134	136	1
149	188	1
163	166	5
153	153	10
164	164	10
121	135	1
160	161	4
122	123	2
124	124	6
104	105	2
166	169	3
114	195	2
17	17	4
37	104	2
43	43	3
18	26	3
156	173	4
126	184	2
157	157	4
12	12	6
119	119	8
175	175	7
48	194	7
74	76	2
147	153	4
62	62	5
171	171	4
18	18	3
24	24	4
27	28	1
8	50	2
130	130	7
177	179	7
123	123	7
115	160	4
165	165	6
176	176	5
23	49	1
65	66	2
161	163	1
191	192	6
112	112	3
33	33	4
84	85	4
186	186	7
135	136	2
158	159	3
118	118	7
94	100	3
155	156	6
193	193	5
77	78	4
186	187	5
180	180	9
172	175	2
130	131	6
123	124	5
59	59	9
80	83	5
58	58	7
64	70	1
104	104	6
167	167	7
83	83	4
23	23	1
31	31	6
128	129	6
152	152	5
114	114	2
16	16	7
66	67	1
157	158	6
131	131	6
156	156	12
167	168	6
18	22	2
193	194	5
139	141	1
185	186	2
88	89	2
102	104	2
80	82	1
25	25	3
76	76	4
46	46	5
24	50	1
179	179	9
51	55	1
81	81	3
187	188	1
14	14	4
138	138	1
71	72	9
152	155	2
50	51	2
153	154	5
84	84	2
145	145	4
95	97	1
159	176	1
149	150	7
59	60	2
63	63	1
146	148	6
25	41	1
43	51	1
53	53	4
165	166	5
112	115	2
40	41	3
183	183	9
57	57	8
50	50	1
141	142	2
174	174	9
94	94	8
39	39	3
7	26	3
52	52	5
179	180	4
24	26	5
45	45	7
142	171	1
80	84	2
83	85	2
140	140	6
136	136	9
76	96	1
20	36	4
55	55	3
106	113	3
166	166	2
41	41	2
158	180	2
2	9	4
154	154	6
172	172	4
108	157	2
24	47	6
117	161	1
7	8	5
194	194	10
26	40	2
10	10	4
7	20	3
19	19	9
107	107	9
132	133	3
25	26	7
109	110	8
106	108	1
42	42	3
43	46	1
136	137	3
39	40	9
115	115	14
53	57	4
139	139	2
177	177	14
156	180	4
126	128	7
21	22	3
133	138	8
101	102	1
143	144	1
96	103	1
186	196	1
148	148	7
123	125	1
110	110	2
30	31	4
47	52	2
136	149	4
156	158	2
115	187	4
185	190	2
3	4	2
66	78	3
65	73	4
1	2	1
14	114	1
0	0	7
47	47	4
99	99	5
4	4	3
115	119	5
143	169	3
52	58	2
182	184	4
134	137	2
65	79	3
171	180	1
54	56	4
103	106	3
127	127	4
28	28	4
115	158	3
132	140	2
174	183	4
170	171	3
14	52	3
171	197	1
111	174	1
100	101	3
16	110	4
33	38	1
119	190	1
113	186	1
143	145	2
137	140	2
180	183	4
72	73	8
177	178	2
150	150	2
38	38	1
111	111	7
188	188	6
195	195	3
14	15	1
100	164	1
0	1	1
44	46	1
129	130	1
4	9	1
16	17	2
12	177	2
173	176	3
53	61	2
144	144	2
95	99	2
53	54	1
52	169	1
57	58	4
174	175	9
27	30	3
26	26	2
110	177	2
78	87	2
21	21	6
185	188	1
9	9	5
142	143	2
159	160	4
108	108	5
68	68	3
19	20	1
125	125	1
42	43	3
71	111	1
122	122	8
6	23	3
5	9	1
172	173	3
80	81	1
44	45	2
9	12	3
19	163	1
128	128	5
147	148	1
113	151	1
136	138	1
184	189	1
40	42	1
134	135	1
152	153	5
73	74	3
156	183	2
77	77	2
176	179	2
62	63	2
179	182	1
21	26	2
171	172	2
185	185	2
161	165	5
81	82	1
106	107	1
132	132	4
40	61	1
106	106	2
8	16	3
6	22	1
112	114	1
93	95	1
33	64	4
116	117	5
10	11	1
65	142	3
125	126	5
112	113	2
15	16	2
120	120	2
133	145	4
113	113	7
8	8	3
99	100	1
29	45	1
156	166	1
150	151	1
115	159	1
124	152	1
28	29	1
96	110	2
27	41	1
30	55	3
178	178	1
188	189	1
55	56	1
15	15	1
168	169	2
5	5	4
179	183	1
30	32	4
79	87	3
28	31	1
97	97	2
93	116	2
19	59	1
58	59	1
27	27	2
114	167	3
112	156	2
159	161	2
18	25	1
178	179	1
13	14	2
2	159	1
101	101	1
169	173	1
189	190	1
60	60	1
87	88	2
55	59	1
18	41	1
159	162	1
5	13	1
195	197	1
33	45	1
173	181	2
79	79	1
56	58	1
175	194	1
5	6	4
162	162	3
19	54	2
42	72	2
192	194	1
15	197	1
181	182	2
20	21	1
114	115	2
102	102	1
194	196	1
82	84	1
109	111	1
157	179	1
118	143	2
20	20	1
137	143	1
2	6	1
173	173	2
146	154	1
171	189	1
94	116	1
14	187	1
190	192	1
177	194	2
119	143	1
38	63	1
172	182	1
197	197	1
176	178	2
115	161	1
15	26	2
20	64	1
5	15	1
108	109	2
80	80	1
129	129	3
147	149	1
116	122	1
85	85	1
86	87	1
156	179	1
57	152	1
182	183	2
124	126	1
10	13	1
59	161	1
116	164	2
166	167	1
185	187	1
153	156	1
54	55	3
137	138	2
34	36	1
7	7	1
158	161	1
25	29	1
148	149	2
116	116	2
175	176	1
104	108	1
116	118	1
18	19	1
98	98	1
189	191	1
73	73	2
187	187	2
54	97	3
95	101	2
81	101	1
101	106	1
119	121	2
175	193	1
159	165	1
103	168	1
135	143	1
118	119	1
112	171	1
74	75	1
32	46	1
47	49	1
129	148	1
22	23	1
168	170	1
86	86	1
72	74	1
132	139	1
156	177	1
2	7	1
