61	71	3
73	76	1
63	90	2
41	115	2
73	73	10
94	95	4
104	105	2
20	21	6
114	114	7
100	101	7
76	77	12
77	77	4
35	35	2
113	114	10
110	111	7
79	79	7
103	103	19
26	60	6
68	68	6
60	67	2
77	78	2
62	63	2
107	108	4
34	35	1
56	70	2
111	111	6
36	36	11
59	61	4
86	87	4
78	78	7
74	76	2
66	66	14
56	58	2
24	25	3
28	32	2
97	98	7
81	83	6
112	112	10
90	91	7
72	73	2
49	49	3
98	99	5
82	84	9
61	68	2
66	67	5
44	44	10
42	42	13
29	46	3
102	103	7
45	48	1
38	38	5
98	98	2
40	40	9
90	90	2
60	60	11
43	88	7
79	80	2
71	71	12
102	102	8
54	55	4
27	28	4
74	74	5
64	68	2
39	71	3
47	48	9
31	31	10
107	107	5
41	41	8
30	30	2
81	89	2
89	95	3
86	86	3
21	21	2
111	112	2
103	104	2
25	60	5
52	52	14
89	89	8
112	113	7
28	28	11
71	72	7
59	59	4
67	69	3
76	76	21
52	60	3
51	51	4
33	33	3
76	107	2
97	99	2
109	109	16
39	39	1
56	56	2
74	114	3
80	80	10
70	70	4
27	27	2
74	99	1
105	105	3
80	88	2
50	51	2
47	47	14
87	87	5
67	67	4
105	108	2
30	31	2
77	93	3
69	71	4
74	87	6
99	99	9
33	34	4
95	96	6
104	107	3
37	38	1
96	96	6
58	59	3
55	57	2
40	72	1
86	88	2
61	64	4
91	91	10
43	44	4
83	83	1
31	45	4
54	58	1
46	46	6
93	94	3
100	100	13
68	69	1
69	69	7
43	43	2
67	68	6
94	94	3
34	34	5
45	45	19
42	60	3
67	74	2
78	79	4
88	88	7
44	45	4
90	95	2
53	53	5
40	41	4
101	103	1
88	95	1
32	32	9
26	26	6
59	60	2
97	97	4
25	25	4
113	113	2
25	26	1
68	71	1
106	107	7
76	80	1
74	77	2
33	61	3
55	55	2
39	77	1
103	110	1
67	73	4
70	74	1
29	29	2
27	29	2
105	106	3
103	105	2
22	22	1
75	75	5
75	76	2
74	85	1
74	75	1
92	94	1
73	74	4
95	97	3
93	93	1
72	79	2
20	20	4
75	111	1
36	37	4
50	50	6
108	109	1
32	33	1
58	58	4
108	108	6
75	110	4
85	85	2
104	104	3
36	110	2
87	94	2
81	82	2
72	72	2
66	79	1
114	115	3
92	92	3
72	74	1
110	110	4
42	44	4
37	42	1
41	87	2
57	68	3
24	47	2
73	79	1
103	109	2
82	82	1
73	78	2
54	54	2
54	56	4
37	37	3
36	72	1
76	86	1
71	75	1
35	80	2
34	77	2
94	110	2
48	48	5
28	29	1
25	111	1
104	108	2
109	110	2
65	71	1
62	113	3
106	106	1
46	47	1
82	83	1
37	39	5
42	43	3
34	41	2
61	65	1
19	21	1
92	104	3
61	70	1
41	42	1
79	98	2
25	27	3
50	52	1
29	30	1
26	92	1
47	51	1
83	84	1
38	39	2
60	65	1
88	114	1
36	40	1
84	91	2
80	108	1
22	23	1
69	70	1
44	60	1
53	59	1
64	86	1
87	90	1
81	108	1
78	108	1
89	92	1
88	89	1
