92	92	5
34	35	7
82	82	4
61	78	4
83	84	1
21	21	4
41	61	3
28	69	1
119	119	10
4	5	11
116	116	6
2	2	5
3	35	1
102	116	4
119	120	2
144	144	10
123	123	9
78	78	3
97	97	5
8	8	6
103	103	6
69	69	3
140	140	7
70	74	4
22	27	2
31	68	4
91	134	1
117	117	2
105	106	1
89	89	5
127	127	1
72	103	2
26	55	5
143	143	4
20	20	10
114	114	9
26	26	6
110	110	10
131	132	4
102	104	4
141	143	5
52	126	2
129	129	5
145	145	9
104	104	8
109	128	1
61	88	1
11	18	2
78	79	2
18	42	2
21	58	3
102	102	4
0	75	2
79	79	2
111	111	2
35	35	15
99	101	3
97	134	1
72	72	2
17	21	2
118	118	1
27	27	5
25	25	10
76	128	3
57	57	3
16	27	3
121	121	3
55	55	8
123	137	3
48	48	6
2	6	4
63	95	3
4	4	4
12	13	3
77	77	3
133	133	7
98	98	5
59	70	5
65	65	3
133	140	2
110	129	2
121	126	5
61	142	1
77	78	3
60	60	2
74	74	1
41	48	4
6	6	1
74	75	5
107	107	8
25	26	3
0	0	2
10	10	2
55	56	1
29	29	5
105	105	3
132	132	4
63	63	3
64	64	3
135	135	1
30	30	3
125	125	6
31	31	1
59	60	2
15	30	1
69	98	3
9	9	7
34	65	2
97	98	3
102	103	1
98	130	2
59	133	3
54	54	5
19	19	3
137	137	6
38	39	2
142	142	3
76	85	1
61	61	4
11	30	1
75	88	1
33	33	2
145	146	2
99	99	4
20	26	1
137	141	2
134	134	1
64	65	1
105	130	1
33	47	3
91	110	3
65	82	4
59	134	1
39	40	4
28	29	2
81	84	2
49	49	2
24	24	10
43	83	4
136	137	1
58	62	3
56	56	2
133	134	1
99	102	1
47	47	3
130	130	8
103	104	3
76	84	1
120	134	2
38	38	2
128	135	1
2	3	1
62	67	2
71	72	4
118	119	2
65	66	7
22	22	2
5	5	5
138	138	6
64	91	2
96	96	1
80	80	2
95	95	1
19	26	1
133	139	2
141	141	2
101	101	1
116	117	2
134	143	1
75	144	2
10	11	2
111	128	1
85	85	1
9	10	1
121	124	1
122	122	1
29	30	2
94	95	1
136	136	1
68	71	3
16	16	2
119	133	1
109	109	2
12	39	1
94	94	3
122	127	2
120	120	2
90	98	1
136	141	1
58	58	1
128	128	3
50	52	1
28	28	1
102	124	2
66	66	5
59	59	2
108	108	5
17	17	3
137	140	3
21	60	1
52	99	1
129	130	1
124	125	1
3	5	1
134	142	1
83	104	2
68	72	1
110	118	1
93	108	1
37	37	2
137	138	3
62	63	2
75	76	1
121	130	1
143	144	1
89	90	2
3	4	3
97	129	1
135	136	1
3	16	1
84	84	1
3	3	1
2	10	1
113	143	2
18	19	2
24	27	1
130	139	2
91	91	2
114	117	1
60	61	1
117	118	1
18	18	1
47	48	1
136	138	4
58	135	1
135	139	1
75	75	1
5	6	1
119	144	1
135	138	2
1	1	2
27	56	1
41	41	2
83	85	1
56	76	1
70	70	2
51	52	1
119	132	1
118	123	1
99	112	1
139	139	1
113	113	1
141	142	1
36	37	1
