86	86	5
102	102	5
38	38	10
20	20	3
41	42	8
96	96	9
80	98	4
64	64	14
35	35	7
79	81	5
84	86	3
73	74	3
30	30	4
33	35	4
56	56	17
76	77	8
45	45	9
77	78	3
73	73	17
40	40	5
46	47	4
68	69	3
89	100	4
35	36	2
87	88	6
29	61	4
45	48	5
37	48	5
67	67	19
74	74	4
99	99	12
61	61	7
52	52	11
94	94	5
41	41	12
93	93	10
43	43	15
39	39	7
24	26	4
55	56	6
42	42	8
93	100	2
89	89	4
72	74	2
52	53	3
39	87	2
78	80	5
81	81	8
48	76	4
63	63	13
59	60	5
59	59	6
90	91	1
20	25	5
98	100	2
70	70	15
68	73	2
22	62	3
53	53	10
48	63	2
48	48	4
75	75	11
50	50	7
65	65	10
76	76	18
27	27	5
80	81	4
35	37	2
58	59	2
60	61	7
44	44	8
67	68	18
96	97	1
72	72	3
69	70	1
58	60	6
68	68	12
78	78	8
37	37	7
89	90	2
71	71	13
91	91	15
79	79	11
54	62	4
47	47	9
72	73	1
101	101	5
57	58	2
92	92	5
66	66	11
77	79	1
26	26	6
87	87	5
43	63	3
85	86	3
90	90	6
85	85	7
48	51	3
66	74	1
54	55	2
77	77	3
31	32	3
96	99	2
71	72	4
81	98	3
61	89	8
69	72	2
23	23	3
66	78	2
91	92	4
25	25	5
60	60	11
53	54	4
46	46	8
58	58	10
51	51	12
25	31	2
26	27	6
51	66	2
61	88	2
62	62	7
88	88	7
100	100	2
80	82	5
43	89	2
95	95	4
74	76	1
89	93	1
88	92	6
84	84	7
42	43	2
48	59	1
97	98	4
46	51	2
93	94	7
48	61	5
70	76	4
47	54	3
52	60	2
86	94	2
51	52	1
83	99	3
93	98	2
81	83	1
65	77	1
46	61	1
37	38	8
83	83	4
98	98	3
33	33	6
49	50	4
57	57	5
34	35	3
66	67	1
65	66	6
86	87	1
38	39	1
94	96	2
82	82	1
27	28	2
58	85	1
91	99	1
69	69	5
50	51	2
53	97	1
55	59	2
99	101	1
56	57	1
28	28	2
64	68	3
25	26	1
52	59	4
92	93	2
82	97	3
69	74	1
94	95	2
40	41	2
70	71	4
31	73	1
23	26	1
86	91	3
74	101	2
39	98	2
27	29	2
29	30	2
46	49	1
70	75	1
54	54	2
47	55	1
57	65	2
32	32	1
55	92	1
64	66	1
30	32	1
85	88	2
59	64	1
98	99	2
48	65	1
49	49	1
22	22	2
83	85	1
80	83	1
86	88	2
32	35	1
97	97	3
43	44	1
62	92	1
31	31	2
40	59	1
24	24	1
88	89	1
80	80	2
95	96	2
44	81	1
55	55	1
61	63	2
61	62	1
69	73	1
74	75	1
49	51	1
63	64	2
83	84	1
92	94	1
34	34	1
99	100	1
78	79	1
77	89	1
47	49	1
100	101	1
29	32	1
53	60	1
