35	35	6
86	87	3
33	33	4
129	130	6
14	14	6
50	51	1
6	6	12
44	44	4
78	79	1
54	54	4
124	129	1
27	27	8
50	50	7
54	55	5
112	112	5
24	24	8
114	114	5
40	40	1
10	10	10
37	41	2
158	158	7
156	156	2
168	169	3
120	120	5
4	4	2
53	55	6
73	73	6
25	25	16
135	135	8
43	43	11
138	138	7
39	40	6
99	99	2
83	107	2
0	1	6
47	47	10
118	118	8
153	155	3
135	136	1
8	8	6
87	87	5
47	72	1
106	106	6
124	124	13
103	103	8
71	71	1
51	51	9
155	156	7
161	161	1
90	90	8
110	110	6
112	114	3
9	41	5
140	141	2
100	100	4
41	41	8
17	17	7
137	138	2
159	160	4
36	36	8
4	8	2
148	148	7
52	53	2
136	136	10
42	42	8
126	126	5
40	41	7
160	160	2
157	157	6
15	45	3
55	55	3
117	122	3
41	170	1
104	104	4
34	34	6
53	54	2
88	89	3
22	22	7
146	148	5
94	94	2
16	16	3
18	18	7
18	20	3
87	89	4
83	83	2
111	116	4
159	159	4
122	122	1
62	62	1
49	49	7
125	129	5
69	70	4
51	52	2
27	41	2
101	104	2
41	42	1
115	115	5
85	86	12
68	109	4
86	89	1
162	162	2
78	80	2
13	14	2
76	80	3
63	63	10
165	167	4
121	122	2
74	75	5
145	146	2
45	45	7
23	23	11
48	48	1
146	146	8
62	63	3
2	2	5
105	110	3
7	7	6
7	8	1
117	136	2
108	109	3
112	113	5
20	21	2
111	111	7
139	163	3
108	118	1
114	115	5
140	140	5
13	13	2
13	47	3
145	145	3
100	103	1
125	126	3
13	41	2
52	52	3
129	131	4
136	137	3
4	5	6
80	82	4
116	116	6
108	108	6
67	67	1
11	12	1
74	106	2
44	46	2
56	56	6
55	83	1
57	57	2
76	76	5
37	38	3
117	131	1
88	100	2
126	127	2
46	49	2
123	124	1
62	65	3
114	132	4
92	93	1
137	137	8
149	160	1
13	19	2
161	166	1
147	147	5
147	148	1
70	70	3
105	105	1
167	167	2
12	13	5
57	84	3
33	34	4
113	113	6
0	0	1
14	15	3
150	151	4
115	117	2
119	120	1
68	68	2
134	134	1
152	152	3
76	79	2
123	131	3
127	166	1
69	69	2
82	82	3
44	45	2
144	145	2
79	80	4
89	89	3
17	34	2
1	1	7
38	38	5
161	162	2
100	104	2
154	157	1
154	156	1
15	20	2
119	119	2
15	15	2
58	58	2
153	157	2
110	122	2
133	133	5
4	135	4
107	107	4
130	130	1
3	136	1
47	49	2
12	12	3
47	48	3
163	163	1
108	133	1
5	5	2
46	47	2
102	102	4
34	35	2
28	28	3
6	17	1
90	91	3
56	57	2
74	84	4
134	166	1
98	98	3
101	106	1
37	37	4
10	26	3
48	49	2
46	50	2
162	165	4
5	18	1
128	129	1
123	123	2
109	109	2
9	10	2
156	162	3
112	116	2
26	26	5
96	96	1
144	144	6
153	153	1
81	81	1
123	130	2
101	101	1
77	77	4
153	154	2
96	97	1
124	131	2
121	125	1
149	149	3
64	67	2
122	137	1
44	52	2
80	80	2
55	56	3
75	90	4
101	119	2
74	74	2
105	106	1
25	40	1
23	24	1
68	108	3
20	23	2
12	67	1
124	125	2
37	136	2
17	18	2
77	78	3
131	131	1
165	166	1
4	160	1
64	64	1
142	143	3
97	98	3
62	66	3
14	45	1
159	166	1
110	111	3
78	78	1
64	74	2
42	54	1
151	151	3
11	11	1
95	95	1
63	66	1
162	163	2
141	141	1
43	44	2
68	70	2
76	78	1
33	107	1
123	125	1
38	39	1
130	131	1
154	154	1
35	147	3
116	118	1
162	170	1
132	132	1
92	92	1
146	170	1
128	131	2
72	98	1
65	69	1
155	155	2
120	121	1
20	25	2
72	73	2
0	89	2
1	2	2
21	21	1
125	125	2
63	70	1
99	100	2
83	86	1
2	3	1
169	170	1
128	128	1
85	85	1
19	19	2
45	47	1
110	117	1
72	72	1
101	102	2
21	92	1
36	37	1
63	65	1
20	94	1
67	68	3
154	155	1
45	56	1
9	9	2
147	149	1
114	118	1
7	55	1
86	86	1
151	152	1
107	109	1
28	101	3
109	135	1
89	100	1
21	22	1
64	66	1
6	40	1
20	20	1
100	105	2
79	79	1
11	42	1
82	83	1
8	42	1
115	116	1
116	125	1
139	141	1
36	138	1
