91	91	10
145	145	8
39	40	6
122	122	8
39	39	34
30	30	15
15	15	10
153	154	6
52	52	24
1	2	4
74	74	12
132	133	9
2	2	12
10	10	38
43	44	2
97	160	1
37	37	13
5	5	4
1	3	5
29	29	12
72	72	18
151	152	11
146	146	4
160	160	8
148	148	4
139	139	7
119	120	6
49	50	3
31	31	10
60	65	4
76	76	19
154	154	10
19	19	9
6	6	13
17	25	6
114	115	5
32	32	20
55	56	5
95	95	20
16	16	10
103	147	3
149	150	4
25	25	11
24	24	21
8	8	4
58	60	7
96	96	7
60	60	7
120	120	6
6	15	8
86	87	3
0	0	21
36	43	3
101	101	6
164	164	6
171	171	10
11	11	15
151	159	2
87	87	7
38	39	8
172	174	3
138	139	3
93	93	9
7	9	3
92	94	8
13	13	17
79	79	13
23	23	11
67	119	2
27	77	4
130	130	13
141	141	19
35	35	10
65	65	14
118	127	5
71	91	5
68	68	3
126	126	15
15	16	11
137	137	16
49	51	4
12	13	5
83	84	2
133	133	12
104	147	1
16	19	2
73	73	16
130	149	3
71	71	8
144	145	11
92	92	8
26	27	7
63	113	3
167	168	9
151	151	15
6	10	2
96	97	1
36	37	3
155	156	6
177	178	5
54	54	20
65	176	1
95	105	4
25	30	3
90	90	18
77	77	8
129	129	15
10	31	2
106	108	1
6	7	4
107	108	4
119	151	4
56	56	10
49	49	4
144	144	3
172	172	18
94	95	7
169	171	6
168	168	7
67	68	12
147	147	21
134	138	4
7	11	2
64	64	11
155	155	3
129	130	4
33	35	1
98	98	11
97	97	9
149	179	1
32	33	3
4	6	2
98	100	1
21	21	6
14	14	22
109	110	7
121	121	7
116	121	7
149	149	10
24	25	3
176	176	20
45	46	1
152	153	1
67	67	9
143	143	4
41	41	28
156	157	1
134	134	11
123	123	7
99	101	1
42	42	8
163	163	20
10	16	9
110	110	2
112	113	7
151	153	1
42	109	6
9	10	8
111	111	11
18	18	3
173	174	1
38	38	18
12	12	7
9	9	20
104	104	4
97	142	3
71	72	3
98	117	3
170	170	2
4	4	3
78	78	9
138	138	9
28	28	5
172	173	4
102	102	10
141	149	1
67	87	2
108	109	10
156	156	6
36	36	8
10	11	2
89	101	1
112	112	3
136	136	6
94	94	16
116	116	2
37	38	9
169	170	5
82	82	2
61	61	7
159	159	1
113	113	9
131	131	18
57	57	1
29	43	2
140	140	15
125	149	5
9	11	5
161	162	7
100	100	5
5	10	1
113	142	1
60	78	7
43	73	7
5	7	1
24	26	1
28	29	4
135	136	6
121	122	12
23	35	3
125	126	6
58	58	4
7	17	2
137	157	4
83	83	2
51	51	6
21	23	1
117	118	4
13	29	3
132	135	3
15	18	2
34	34	8
118	118	4
50	53	1
153	153	24
81	81	8
8	51	2
147	148	4
174	176	1
131	132	7
78	86	1
34	35	3
7	8	4
31	56	1
101	102	7
150	150	13
16	17	6
27	27	8
28	77	2
7	7	17
1	1	5
167	167	10
112	126	1
73	74	3
106	106	7
22	22	5
166	166	5
50	103	4
29	78	1
136	140	2
175	175	3
50	51	6
136	137	1
53	53	9
10	24	9
163	165	3
51	52	2
17	43	1
157	157	4
63	66	3
176	177	2
162	162	6
173	173	14
160	161	6
177	177	5
121	132	1
2	3	8
115	116	1
57	59	1
174	174	8
44	44	8
55	55	19
109	109	6
62	65	2
178	178	10
89	89	6
72	73	5
125	125	16
80	81	1
17	18	5
110	111	4
139	174	1
91	93	3
105	105	3
65	175	1
132	132	10
41	42	2
43	43	7
52	53	6
111	112	2
29	31	4
115	121	3
156	161	3
100	101	3
129	161	1
11	12	1
139	173	3
50	50	3
9	16	4
126	150	3
153	163	1
136	156	1
56	74	1
101	115	1
118	180	1
19	21	3
156	173	3
88	88	11
8	9	3
20	21	6
59	68	3
158	158	7
13	14	9
108	108	14
145	146	3
142	157	2
115	115	4
63	63	5
169	169	6
24	32	3
99	100	3
162	171	1
4	5	2
169	180	3
101	114	1
60	84	1
26	26	5
86	86	7
162	169	2
40	40	6
32	36	2
128	128	5
14	18	3
1	10	3
40	42	3
142	142	6
43	77	2
33	33	2
114	114	8
73	75	4
19	22	3
150	151	5
164	168	2
45	45	3
25	26	1
154	176	3
17	20	2
30	32	2
35	39	4
35	36	1
168	169	5
74	75	2
94	160	1
19	30	2
33	34	2
20	20	2
87	88	6
126	134	1
91	92	2
75	76	2
9	15	3
104	105	8
180	180	9
8	11	2
103	104	2
68	70	4
161	161	3
174	175	4
134	141	1
21	22	4
75	75	5
92	93	1
3	30	2
63	154	2
84	85	3
71	132	1
146	147	5
14	16	5
71	135	1
66	153	1
56	92	2
96	150	2
50	102	1
62	63	2
85	165	2
43	45	5
0	2	2
2	42	1
33	142	3
118	128	6
8	16	3
154	167	2
89	111	4
61	113	2
10	13	3
113	114	2
118	151	3
107	107	1
89	90	4
67	150	3
38	42	4
1	37	2
1	36	1
4	29	1
117	117	2
17	17	8
78	79	2
116	118	2
153	156	1
118	176	2
116	117	2
31	136	2
46	46	2
88	90	2
164	165	1
131	142	1
49	74	1
81	83	2
9	40	2
90	94	1
58	59	7
123	125	1
143	144	1
12	28	1
133	134	1
87	96	1
153	170	7
84	161	2
161	169	3
3	4	3
120	148	3
112	114	3
9	14	2
179	179	13
59	59	2
3	8	1
91	167	2
16	26	2
42	45	5
6	8	2
60	77	1
37	39	2
2	4	1
81	96	1
141	142	2
99	99	1
93	95	1
23	59	1
26	37	1
37	43	1
88	89	1
30	31	2
18	19	1
62	167	1
124	124	5
22	23	3
151	160	1
24	73	1
22	84	1
59	90	2
117	129	6
44	45	2
120	128	3
1	5	2
29	94	1
153	155	3
40	41	1
74	92	1
135	137	2
34	45	3
25	29	1
19	37	2
64	156	3
165	165	1
130	131	1
53	54	3
101	113	2
139	140	2
52	72	2
63	64	3
52	111	1
172	176	4
9	38	2
93	94	3
26	79	1
134	160	2
17	175	1
28	58	1
24	27	5
142	143	1
103	103	2
70	70	2
0	36	1
166	168	2
134	135	1
119	119	4
10	15	1
152	152	1
149	160	1
154	156	1
163	164	2
127	127	3
84	84	2
5	30	1
134	168	3
85	85	1
23	84	2
152	154	1
76	77	3
29	30	1
61	162	1
145	149	1
5	6	2
23	26	1
165	166	1
4	30	1
141	176	1
79	80	1
125	127	2
18	20	2
158	159	1
24	71	1
127	149	1
126	127	1
17	176	1
81	84	1
135	135	3
106	107	2
3	3	1
136	161	1
78	89	1
15	19	1
137	138	1
81	82	1
19	20	1
31	32	1
148	149	1
53	59	1
94	102	2
107	109	2
13	16	2
144	158	1
137	169	1
124	125	1
2	5	1
171	178	1
21	29	1
119	126	1
61	81	1
14	33	1
24	137	1
7	41	1
66	67	1
77	89	1
