60	60	11
113	113	1
74	74	8
24	43	3
59	59	4
71	73	1
65	65	1
129	187	2
166	166	4
80	100	2
25	31	2
53	53	2
18	20	3
81	81	2
2	2	6
21	22	2
76	79	1
16	16	7
8	14	4
110	110	6
131	150	2
118	118	3
82	82	11
154	164	2
14	14	4
115	115	6
84	119	3
106	106	3
37	125	1
174	176	1
174	175	3
69	69	1
63	63	5
146	148	1
108	108	1
169	169	3
25	46	2
46	46	8
85	85	6
39	39	3
127	127	2
90	95	1
12	12	5
73	74	2
17	32	2
77	77	9
164	164	3
162	162	3
18	18	1
79	109	1
140	140	3
96	96	6
121	121	2
36	37	5
78	80	2
32	34	2
134	134	3
107	107	4
11	12	9
94	94	2
67	149	6
146	147	5
157	157	1
1	36	3
141	141	3
121	122	2
36	36	3
104	155	2
185	185	5
104	105	2
110	181	4
42	42	2
139	140	2
72	73	2
26	26	7
172	177	4
125	126	2
165	178	2
58	59	8
92	92	5
130	131	1
83	91	1
1	1	10
183	183	7
160	161	1
88	88	7
80	81	2
101	102	3
83	84	3
17	17	1
54	56	1
55	55	3
98	98	4
138	138	4
164	165	2
15	42	2
86	116	1
103	151	2
73	79	4
13	13	4
114	115	2
161	163	3
102	104	2
41	41	6
100	104	2
84	106	1
118	138	2
43	43	1
61	68	3
142	143	2
182	182	1
78	103	3
9	10	1
35	36	2
54	54	2
187	187	1
117	118	4
28	28	3
152	152	3
60	68	3
64	96	1
34	34	2
44	46	2
124	124	1
71	84	2
29	30	3
143	143	4
33	34	4
7	15	1
12	43	1
32	37	3
44	44	6
64	64	3
76	111	1
135	135	1
137	137	7
72	72	3
150	151	1
47	47	2
54	55	2
58	58	3
160	176	1
128	129	1
146	149	2
172	172	3
55	96	1
102	102	2
163	163	1
91	91	4
30	36	1
79	79	2
61	64	1
15	26	1
55	127	2
131	131	4
158	162	1
6	13	2
116	178	3
189	189	1
84	85	2
37	37	3
57	57	5
111	182	1
6	6	2
112	112	1
80	83	1
45	45	3
106	108	3
66	125	3
125	125	3
122	123	3
131	137	5
133	134	2
130	130	2
27	27	1
4	42	1
66	67	1
74	119	1
5	5	6
91	93	2
60	61	1
88	127	3
22	22	6
28	29	1
25	45	1
123	123	2
38	38	2
188	188	2
68	68	1
56	56	3
98	108	2
97	98	2
29	29	4
16	17	2
128	128	3
111	111	4
23	24	2
26	30	1
146	146	1
61	61	1
114	114	1
153	153	2
85	86	3
161	176	2
117	117	4
77	104	1
59	69	2
10	10	5
186	186	3
73	84	1
175	175	1
142	142	1
10	12	1
76	181	1
20	20	4
65	147	1
1	35	1
109	180	1
17	24	1
115	116	1
26	27	1
56	67	2
63	145	1
80	107	2
0	2	1
88	120	1
73	117	1
166	167	1
24	25	1
109	109	4
99	104	2
30	31	3
7	7	1
172	173	1
179	179	1
87	87	1
150	150	1
22	23	1
148	150	1
181	181	1
93	93	1
41	42	2
19	20	2
144	145	1
21	21	4
187	188	1
165	165	1
59	64	1
66	66	1
71	119	1
91	92	1
17	28	1
131	134	2
81	83	1
7	8	2
8	8	1
80	82	1
108	110	1
73	73	1
94	95	1
106	153	1
159	159	3
97	97	1
179	180	1
105	105	4
120	120	2
6	8	1
93	158	1
70	70	2
167	167	1
4	44	2
35	35	6
131	133	1
4	4	2
125	127	1
107	155	1
17	34	1
64	65	1
159	160	1
157	163	2
53	146	1
88	187	1
122	122	3
11	11	2
85	159	1
15	17	1
83	87	1
31	37	1
126	126	1
28	30	1
42	46	1
154	154	1
129	129	1
40	40	1
178	179	1
54	127	1
6	18	1
5	8	1
25	26	1
171	175	1
131	132	2
18	19	1
183	188	1
108	154	3
128	186	1
9	9	1
74	75	1
71	71	1
106	109	1
14	22	1
71	72	1
78	79	1
136	136	1
58	65	1
69	84	1
189	190	1
124	125	1
4	5	1
116	116	1
143	144	1
