10	44	6
65	67	1
110	114	4
116	116	7
64	71	2
25	44	2
75	75	4
32	33	2
127	127	1
13	16	1
37	107	4
37	37	2
93	93	3
82	82	6
41	41	8
40	40	8
67	88	2
25	51	1
8	10	3
106	106	2
5	6	1
133	133	4
54	54	2
55	55	2
29	29	1
112	112	2
117	117	4
81	86	6
139	144	3
10	21	4
5	12	3
48	48	2
20	21	2
56	57	1
42	42	6
20	20	3
69	93	5
26	125	4
53	85	2
86	86	8
46	46	6
47	48	3
126	147	1
44	44	12
69	70	1
76	76	2
27	27	5
8	8	5
146	146	6
96	96	6
108	113	3
67	90	1
43	43	5
5	5	2
80	84	2
11	12	3
72	73	8
68	68	3
150	150	3
9	9	9
141	147	4
109	109	5
12	12	4
75	76	2
45	45	3
34	37	1
24	133	1
72	74	3
64	78	2
122	122	4
25	50	2
19	20	3
80	80	4
66	67	8
135	141	2
79	79	1
27	28	1
6	33	2
11	11	5
73	73	8
30	56	1
13	24	2
34	35	1
95	107	6
139	145	2
135	140	1
87	142	4
88	88	2
95	95	2
20	37	1
65	94	3
51	52	2
13	44	5
17	17	4
62	82	4
70	152	6
69	124	1
27	29	1
70	70	7
34	95	1
7	7	4
83	83	1
98	98	6
36	36	10
53	70	1
118	118	5
22	22	4
26	64	3
77	78	1
132	132	7
81	81	13
115	116	4
13	13	14
120	121	1
93	126	1
63	64	4
136	144	1
33	95	1
65	65	4
93	147	4
121	144	2
123	151	2
25	27	1
113	117	2
19	117	3
6	31	1
37	98	5
151	151	1
37	46	1
120	138	2
23	27	1
21	22	3
80	94	3
113	113	1
123	127	5
129	129	5
69	69	2
51	54	2
141	142	4
101	102	4
138	139	1
12	13	2
10	36	3
21	21	2
50	50	3
131	152	2
111	120	2
35	54	2
72	72	2
103	103	3
79	95	2
93	148	4
13	15	4
53	53	2
101	101	3
47	47	1
53	55	4
109	113	2
99	137	2
124	125	2
140	141	4
4	5	2
63	63	2
92	92	2
33	33	3
28	28	1
17	28	6
27	76	1
89	89	1
16	16	4
24	24	4
9	13	2
56	62	1
16	19	1
97	98	2
53	54	1
137	137	3
62	63	2
56	56	2
142	142	1
148	148	1
10	10	7
87	87	2
25	25	2
102	102	1
78	78	5
27	147	7
58	64	2
19	40	2
130	130	4
26	26	5
54	55	2
66	99	1
28	86	2
99	112	1
110	145	2
146	148	3
3	3	3
102	120	2
62	84	2
75	77	2
31	32	1
92	126	1
24	32	2
18	18	1
74	74	5
20	22	1
35	57	1
80	83	5
10	22	1
30	31	1
19	19	1
52	63	2
152	152	2
34	34	4
45	47	3
133	142	1
127	144	1
10	11	3
78	79	1
43	56	1
53	120	2
105	105	5
97	116	1
63	65	1
136	136	4
54	69	1
66	66	2
10	13	3
132	140	1
57	100	1
38	98	2
54	57	2
141	141	1
6	6	1
7	12	1
64	84	1
35	36	1
79	80	1
154	154	3
78	85	1
37	79	2
84	86	2
127	147	2
115	117	1
25	26	1
24	142	1
18	19	1
105	144	1
107	107	5
76	77	1
70	126	1
96	97	1
84	84	1
103	111	2
29	30	3
137	146	1
71	73	3
103	122	5
31	31	2
127	128	1
8	21	1
149	149	2
14	14	6
91	91	1
14	36	1
102	111	1
64	76	1
17	46	1
27	86	3
12	45	2
40	41	1
71	71	2
132	142	1
6	58	1
28	29	1
125	126	1
11	32	1
110	152	1
68	99	1
109	115	2
129	137	1
49	49	3
44	48	1
77	77	2
119	119	2
62	64	1
41	149	1
99	99	2
115	115	2
62	62	1
78	80	1
39	40	1
41	42	1
70	71	1
111	111	1
87	99	1
106	140	1
27	30	1
96	98	1
111	152	1
125	125	1
98	111	1
38	40	1
26	27	1
