59	61	6
118	118	9
67	68	6
121	121	4
98	98	10
143	143	1
140	140	6
129	129	1
123	124	1
20	21	2
64	65	5
80	100	6
130	133	4
131	132	6
64	64	4
110	110	4
99	100	2
121	134	2
68	69	7
118	126	2
89	129	2
0	5	2
23	28	1
5	10	3
134	136	2
40	40	2
10	10	2
0	0	11
144	144	1
101	101	5
31	31	6
89	89	3
95	95	6
78	78	3
122	123	2
119	120	4
98	103	2
5	6	1
25	29	4
68	74	3
60	70	4
141	141	5
129	130	1
39	63	1
32	32	6
36	37	1
119	119	7
97	99	2
76	77	2
146	146	8
127	129	5
25	37	1
54	54	8
124	124	7
25	41	5
118	120	6
16	16	8
128	132	1
104	137	2
128	128	5
25	25	8
92	92	9
22	23	7
105	105	9
55	55	1
18	61	1
130	130	1
132	132	2
0	4	1
82	82	5
65	66	3
85	86	3
58	58	1
30	30	8
107	107	6
53	54	3
33	33	2
37	37	4
141	142	6
63	63	3
3	129	4
120	120	1
43	43	6
132	135	3
131	131	5
13	13	9
118	119	6
128	142	1
34	36	1
73	74	3
36	58	1
13	15	2
62	62	8
96	96	10
26	40	1
22	22	4
87	91	3
53	53	3
1	1	6
36	36	3
93	94	3
97	98	3
26	26	4
94	94	2
80	81	4
47	48	2
29	29	7
40	41	1
6	15	1
35	36	3
68	68	7
99	99	3
52	53	6
72	72	2
126	126	5
96	119	3
39	40	3
41	42	2
28	28	4
88	90	5
125	125	3
81	81	2
12	12	1
49	49	6
49	100	1
0	15	1
81	87	2
139	140	4
57	97	3
73	73	12
15	15	1
94	96	2
99	101	2
38	39	1
122	122	3
94	98	4
29	81	3
11	11	5
8	8	4
89	90	1
104	105	4
17	17	8
74	74	10
142	143	4
21	36	3
106	106	4
119	129	1
23	23	5
46	47	1
1	82	4
47	47	2
58	59	4
18	18	4
125	126	2
20	20	5
134	134	4
27	27	4
1	24	1
33	129	1
2	2	5
36	59	1
114	114	4
41	41	3
127	127	3
89	110	1
107	108	1
62	64	2
8	11	1
112	113	2
86	91	1
34	34	1
97	97	6
3	4	1
42	42	3
93	93	3
77	78	7
19	102	3
104	104	1
142	142	4
117	117	4
61	61	4
3	35	2
19	107	2
66	66	3
66	68	1
103	140	1
65	73	1
113	114	1
31	32	2
92	93	4
67	67	3
1	14	3
124	125	1
69	69	3
91	91	1
30	81	3
56	56	3
66	67	3
77	77	2
108	109	1
113	113	2
37	38	2
39	62	2
88	88	1
133	133	4
83	83	2
62	63	2
57	57	2
39	56	2
47	72	1
51	51	1
1	23	1
59	59	4
108	108	2
132	134	1
140	141	2
39	39	3
96	97	1
74	75	1
93	95	4
118	127	1
20	107	1
65	65	2
18	19	1
110	120	1
36	38	1
110	111	1
27	28	1
5	5	1
102	102	1
135	140	3
55	56	1
51	73	1
63	64	1
56	57	1
100	101	2
33	34	2
26	57	3
95	126	1
98	99	2
9	9	2
102	145	1
47	99	1
17	20	1
48	49	1
109	120	1
103	103	1
145	145	2
113	116	1
116	116	2
30	107	1
95	109	2
9	10	1
119	130	1
135	135	1
135	141	1
30	82	1
33	40	1
19	19	1
3	3	2
95	123	1
32	33	2
24	25	1
109	110	2
34	35	1
145	146	1
17	107	1
140	143	1
81	82	1
138	138	1
111	111	2
54	55	1
78	123	1
42	57	1
75	75	1
49	75	1
126	127	1
21	33	1
