36	36	14
168	168	3
187	187	8
145	149	3
208	226	1
7	8	4
211	212	4
57	57	8
30	30	8
211	211	16
69	69	4
12	12	6
145	145	10
101	101	5
39	39	2
52	53	3
220	222	4
102	102	10
38	38	5
186	186	4
186	187	10
183	211	4
155	156	4
3	8	4
193	195	1
98	121	2
156	156	5
177	178	1
146	149	1
172	172	7
229	230	1
113	113	1
8	8	9
64	65	7
200	205	2
40	40	5
8	9	2
29	29	17
188	210	4
4	4	15
74	74	8
164	165	3
220	220	5
139	139	8
191	202	3
189	189	3
177	177	6
64	67	4
144	145	3
16	16	4
11	11	16
105	105	6
169	169	6
88	120	5
170	175	6
89	89	1
179	179	1
151	151	2
241	242	4
102	133	2
167	167	11
20	20	5
41	42	2
10	10	22
192	192	14
97	97	7
98	99	1
150	150	3
26	26	10
152	152	3
129	130	1
196	197	1
126	127	2
12	13	1
118	119	2
54	55	6
231	231	13
24	24	9
62	62	6
88	105	2
25	26	1
73	74	6
65	65	7
61	63	5
34	34	5
63	66	1
163	163	2
202	203	6
56	56	6
161	162	1
150	151	4
63	63	6
184	184	4
128	128	2
239	241	3
134	134	10
225	225	3
182	185	4
202	234	1
194	195	1
217	217	3
18	18	8
166	167	3
158	158	2
176	177	10
15	25	5
221	221	10
182	182	4
37	231	1
239	239	4
185	216	3
213	228	2
164	169	1
41	41	7
15	15	8
141	142	1
19	19	2
175	175	7
233	233	15
47	47	6
14	15	5
154	155	1
144	144	4
54	54	3
156	157	2
241	241	7
23	32	4
231	232	1
9	9	2
226	227	7
33	33	3
212	212	7
190	190	6
240	240	5
1	1	6
139	144	2
163	168	1
58	58	4
164	164	7
23	23	6
194	196	7
100	100	8
180	181	7
59	60	2
178	178	4
137	137	5
37	38	6
2	179	2
36	37	8
46	46	9
70	70	7
180	180	12
6	11	1
88	88	4
217	223	5
55	55	2
231	233	3
45	45	5
5	5	5
224	224	13
166	166	6
210	211	1
105	120	2
188	189	5
179	184	4
122	122	5
165	193	1
48	48	5
216	221	3
10	15	4
39	42	3
195	195	9
176	189	5
116	116	2
143	147	6
232	233	2
154	154	7
0	0	17
242	242	2
165	178	4
86	86	8
154	166	8
98	98	3
7	9	4
13	14	2
207	207	10
11	19	2
66	67	6
209	209	1
46	47	7
59	59	3
169	170	4
206	206	1
27	43	4
19	20	3
48	236	1
197	200	1
217	218	8
29	30	10
173	199	1
238	239	5
216	224	3
162	162	4
147	148	4
2	2	4
105	106	2
37	229	2
13	16	2
53	74	4
176	196	1
174	175	2
98	130	4
181	181	7
135	150	1
140	142	1
159	159	3
27	27	7
153	164	1
53	54	6
188	188	8
136	144	1
158	159	3
72	73	6
185	186	3
146	146	5
49	50	4
235	235	5
19	23	3
198	198	5
216	216	3
191	191	3
69	70	8
3	3	10
96	97	1
49	49	4
86	122	2
135	135	3
106	106	3
8	11	5
96	96	1
10	11	2
52	52	4
197	198	1
165	166	1
21	21	6
225	228	2
185	219	3
68	71	1
140	141	2
193	193	3
54	58	1
138	142	1
230	231	7
73	73	5
103	103	1
199	199	4
9	179	1
136	138	2
219	242	1
181	184	2
71	72	1
26	27	3
45	46	3
203	203	5
21	22	5
195	197	3
226	226	3
216	223	3
6	8	2
208	209	1
150	214	1
157	157	3
201	201	6
38	39	1
202	233	1
119	120	2
166	180	2
85	85	7
204	206	1
39	50	4
155	159	1
14	14	1
22	23	1
229	229	13
44	44	1
215	215	2
83	83	3
213	226	2
219	219	4
220	221	1
161	178	2
168	169	1
42	42	4
68	69	5
37	37	3
10	153	3
55	63	1
64	71	2
120	121	1
32	32	4
230	230	1
76	76	2
206	230	2
153	153	2
201	202	2
221	222	2
202	202	7
173	214	2
95	96	1
222	222	3
190	195	2
240	241	1
170	170	7
236	236	7
95	95	4
208	208	4
175	176	2
34	50	2
99	99	3
213	213	2
33	40	2
170	173	1
176	176	3
143	143	3
6	6	3
6	31	1
84	84	4
0	2	3
35	35	8
201	233	3
28	52	4
22	140	1
212	227	3
78	78	3
53	53	2
31	32	3
135	136	2
31	33	1
213	214	4
16	22	2
205	205	1
191	231	2
174	236	2
0	1	2
84	114	1
228	231	1
162	163	1
234	234	2
84	113	1
55	56	4
62	72	1
218	221	2
196	196	1
165	185	2
30	38	1
197	197	3
129	129	1
17	17	3
200	200	4
31	31	1
50	50	1
223	225	1
52	54	3
36	47	1
2	180	2
138	138	5
67	67	4
149	149	1
155	155	2
13	15	1
187	223	1
167	168	3
113	114	2
174	174	4
227	228	1
191	196	2
182	183	4
98	122	1
226	228	2
142	142	1
138	139	1
43	43	2
217	221	1
64	64	1
158	161	2
14	179	3
137	140	4
154	164	2
226	230	3
166	170	1
79	82	4
223	223	2
191	195	2
166	186	1
149	160	1
28	28	6
13	13	1
106	107	1
120	120	1
205	206	3
237	238	2
161	161	7
186	188	1
50	51	1
216	218	3
25	25	2
25	28	1
183	183	1
191	192	1
58	59	3
163	170	2
135	140	1
31	34	1
233	234	1
81	123	1
195	196	2
56	57	2
32	40	3
51	51	3
171	171	4
223	224	2
34	52	1
139	140	1
130	132	1
177	184	1
171	199	1
136	136	1
66	66	1
203	204	1
15	24	1
44	45	1
20	21	3
182	184	2
163	177	2
193	209	2
35	36	1
173	173	2
39	41	1
159	160	1
172	198	2
89	105	1
99	100	1
101	102	1
232	235	1
211	214	2
178	179	1
181	182	4
70	105	1
12	138	1
210	210	3
9	67	1
11	12	2
107	107	1
154	156	1
167	169	2
109	109	1
218	218	4
26	98	1
37	227	1
173	174	1
72	72	1
132	134	1
165	165	1
36	38	1
184	186	1
137	138	1
189	195	1
176	178	2
23	26	1
133	133	1
14	19	1
151	173	3
22	22	1
13	154	1
212	224	1
166	185	1
71	71	1
7	21	1
55	60	1
187	188	1
60	61	1
80	80	1
1	2	1
76	82	1
3	184	1
8	10	1
