0	0	7
36	38	1
89	91	2
81	81	10
77	77	12
93	94	2
120	120	3
87	87	27
25	26	4
32	33	5
131	131	15
100	101	3
138	138	17
71	71	6
132	132	17
15	15	11
7	81	1
22	23	8
34	35	5
93	93	12
121	121	15
134	135	5
99	99	12
110	110	13
85	85	11
77	104	1
119	120	4
104	104	8
131	136	7
7	7	9
29	29	10
113	116	2
95	95	7
16	16	14
83	85	2
86	86	15
138	141	1
126	129	7
84	84	5
15	29	3
125	125	24
35	36	3
103	106	1
96	98	3
110	111	6
100	100	14
76	104	6
27	27	25
122	122	22
140	140	19
68	68	1
86	87	4
19	32	2
126	126	13
120	121	7
31	33	7
89	90	9
113	115	2
8	9	14
15	119	1
116	117	5
108	108	8
6	38	2
31	31	16
95	96	5
75	75	15
96	97	6
94	94	10
123	123	18
94	95	11
139	139	7
72	73	6
7	38	3
5	5	11
71	73	5
78	88	3
85	93	1
124	124	19
101	101	13
1	1	7
99	110	1
128	128	17
25	25	11
14	119	4
96	96	10
116	116	7
117	117	22
23	23	6
130	131	4
29	30	3
136	137	6
119	119	14
13	13	14
109	109	9
131	132	3
2	2	16
134	134	21
80	82	2
116	119	3
80	80	14
111	111	17
24	24	10
37	38	6
118	121	2
109	125	1
12	12	11
11	11	14
103	107	5
116	118	1
27	72	2
21	21	13
120	122	5
86	88	2
102	103	5
9	15	4
91	92	5
122	123	2
102	104	6
107	107	4
127	127	20
11	15	2
96	128	4
14	120	6
74	74	18
33	33	9
27	30	7
137	137	6
101	102	9
98	98	9
11	83	1
12	14	5
76	76	13
114	114	11
108	111	2
2	3	3
10	12	5
27	31	5
112	113	13
129	129	16
100	109	1
132	133	5
9	9	15
28	28	10
135	135	4
17	18	3
118	118	20
124	125	4
4	4	17
121	122	12
90	90	12
136	136	3
112	112	10
26	29	1
103	103	10
3	3	20
90	91	6
115	115	6
82	83	5
104	125	2
106	106	8
9	10	6
107	112	4
34	34	5
10	10	20
105	105	18
107	109	1
109	111	4
112	118	3
79	80	6
38	38	5
79	109	2
115	118	1
78	78	12
130	130	31
98	134	1
88	129	5
82	82	19
18	18	9
21	28	2
4	5	6
37	37	8
138	139	4
31	109	1
109	110	5
25	33	2
11	12	6
8	8	8
83	84	5
14	14	8
25	111	3
25	32	2
83	83	5
31	117	2
126	127	6
102	102	3
133	133	7
13	14	6
85	91	4
71	72	1
4	82	5
78	80	6
114	115	5
112	123	4
92	94	4
118	119	9
73	73	7
123	126	3
24	37	1
77	79	2
30	30	6
7	17	1
137	138	6
76	77	3
10	15	5
73	75	1
89	89	6
31	32	1
79	81	5
133	135	1
80	86	6
113	113	16
120	123	2
72	72	9
128	129	5
84	93	2
21	23	2
15	31	1
2	4	4
115	120	1
15	16	6
36	37	6
79	79	14
21	117	1
106	116	1
106	107	3
75	76	2
101	108	3
2	71	2
80	87	4
104	112	1
19	34	1
108	117	1
20	22	3
111	124	1
17	17	2
96	110	4
36	36	8
97	98	8
117	118	5
81	82	2
4	7	1
23	112	5
91	91	4
5	6	3
129	130	5
104	107	1
28	30	1
88	88	3
105	106	10
32	32	2
123	124	3
19	35	4
4	24	1
108	109	2
5	82	1
88	89	7
6	6	5
85	92	2
12	26	4
24	25	2
87	88	1
16	18	4
92	92	2
81	83	2
88	93	1
30	32	1
13	15	1
104	105	7
28	132	1
76	88	4
127	128	5
27	137	2
10	11	2
82	85	2
33	34	2
81	94	1
5	8	1
74	75	4
127	131	1
96	99	3
16	19	1
103	104	3
26	27	4
22	22	5
28	29	1
26	26	4
97	97	9
35	35	9
127	129	4
139	140	3
20	20	5
6	7	6
78	79	2
8	10	2
84	85	7
111	112	4
95	132	3
15	123	5
7	8	3
135	136	6
79	87	3
16	17	3
94	102	3
18	19	3
124	138	1
12	15	4
25	30	3
101	113	1
6	8	1
107	108	1
19	19	7
3	7	2
126	128	2
18	34	1
30	34	1
77	78	2
116	120	2
77	113	2
82	84	2
1	78	1
104	106	1
91	129	1
20	21	6
87	91	1
17	19	3
24	32	1
0	1	2
99	100	2
8	11	1
22	112	4
101	103	3
121	124	1
81	90	2
85	86	4
23	24	3
1	79	1
10	16	1
131	139	1
27	79	1
105	125	1
133	134	2
138	140	1
21	22	1
26	109	2
136	138	1
85	87	1
108	123	1
32	34	1
80	81	2
106	108	2
0	79	1
5	36	1
7	20	1
136	139	1
107	116	1
119	123	1
80	88	1
134	138	1
132	135	1
79	82	1
107	111	1
131	140	2
2	24	1
7	10	1
27	32	1
100	117	2
101	109	3
104	109	2
100	111	1
117	120	1
101	112	1
81	93	1
5	7	4
1	85	1
12	13	1
123	138	2
27	71	1
80	91	1
3	5	1
113	121	1
15	18	1
29	121	1
107	120	1
96	100	1
85	94	2
22	113	1
135	137	1
125	128	1
118	120	1
3	23	1
10	13	1
26	28	1
102	105	1
115	116	1
80	85	1
127	137	1
