41	41	6
210	214	1
182	194	8
160	160	1
206	206	10
224	224	4
99	100	7
50	80	1
51	63	1
3	12	3
54	54	6
159	160	3
94	94	3
166	166	9
64	67	1
190	190	3
71	72	9
233	233	1
9	229	1
159	159	11
85	86	1
221	221	9
79	79	4
221	226	5
151	151	5
89	89	6
234	234	3
241	241	7
114	114	4
34	38	2
150	150	15
243	244	4
73	73	7
48	50	1
50	83	7
22	23	2
97	97	9
76	76	7
26	26	3
90	90	3
32	33	1
92	94	3
107	108	4
242	242	11
40	40	10
105	117	1
57	57	7
27	27	5
15	15	4
170	170	9
146	147	5
207	207	9
156	156	10
42	42	3
187	187	3
91	91	8
24	25	3
226	227	1
228	228	3
218	219	5
30	41	1
46	46	9
197	197	11
63	64	1
238	239	1
240	240	3
37	38	4
213	213	8
113	113	3
45	45	3
147	147	1
19	19	3
166	168	4
55	56	6
154	154	6
12	12	6
195	195	3
56	56	6
184	188	2
246	247	4
112	112	2
244	244	4
88	88	7
167	167	7
204	205	8
35	35	4
107	112	1
37	43	6
43	43	8
29	29	1
52	52	17
211	211	13
225	237	5
53	53	3
157	158	5
210	211	3
71	245	2
216	217	2
179	179	8
109	232	3
65	65	8
48	48	4
153	227	1
47	50	2
4	4	7
18	18	6
214	215	4
201	201	3
118	118	4
172	172	8
7	7	6
119	119	8
155	155	11
147	165	1
14	14	4
175	176	1
230	230	1
30	60	2
104	104	3
214	214	4
19	109	4
28	28	5
164	164	3
198	198	5
177	177	9
153	153	8
226	241	2
168	168	5
44	44	8
166	167	3
101	101	1
62	63	3
194	195	5
4	5	2
73	112	5
199	200	5
236	236	5
78	78	4
170	177	3
31	31	2
217	217	7
106	106	2
51	51	10
102	104	4
38	47	2
45	223	4
193	194	1
212	228	2
237	237	2
212	216	6
207	208	4
33	33	5
48	49	3
115	116	2
70	70	5
82	86	1
16	17	3
73	74	6
152	185	3
158	159	3
203	204	5
29	31	3
78	248	2
102	106	1
180	193	5
93	94	2
225	226	5
21	26	2
246	248	1
39	39	7
115	121	1
163	163	4
59	59	2
88	90	6
6	7	1
93	93	9
194	194	7
189	190	2
25	26	1
173	173	3
84	84	2
97	98	2
225	225	5
27	28	1
64	64	3
32	32	7
205	233	4
81	84	1
44	53	2
87	88	2
163	167	1
47	47	3
165	165	3
213	214	3
195	197	1
116	116	8
208	208	6
149	185	1
204	204	2
109	112	4
62	62	2
89	90	2
63	63	6
189	189	6
27	32	4
152	161	2
96	97	1
175	175	7
66	67	3
107	107	4
183	184	7
115	115	3
181	181	2
176	176	1
38	113	1
248	249	4
1	1	2
57	58	3
109	117	3
49	49	2
14	37	1
84	85	5
184	185	1
200	200	2
178	178	4
177	195	1
17	17	1
61	62	2
43	44	1
242	243	1
180	206	2
207	209	5
215	219	1
8	8	13
174	174	2
42	43	1
81	82	1
153	154	5
161	161	2
246	249	1
30	35	1
209	209	3
12	37	4
238	238	3
83	83	2
27	33	1
77	77	2
9	9	10
228	231	5
223	223	5
215	216	1
163	198	1
171	171	1
30	31	2
69	69	4
186	187	1
34	34	1
199	199	2
49	60	1
114	117	1
68	69	4
144	205	2
232	233	1
184	184	3
231	233	1
224	225	2
95	220	1
75	75	1
10	10	1
229	229	3
202	202	3
50	81	1
35	36	2
198	199	3
41	154	1
98	220	1
86	87	3
102	158	1
209	214	3
226	226	3
182	182	2
60	68	1
94	95	1
180	180	2
230	231	2
60	60	2
183	183	4
78	80	1
185	185	3
21	22	1
161	185	1
95	95	2
239	239	3
50	50	2
161	162	3
61	61	4
24	24	2
243	243	1
197	198	1
2	5	3
245	245	1
38	40	1
114	144	1
12	28	1
237	238	1
84	91	1
29	33	1
109	109	3
222	222	1
102	102	2
11	15	1
192	210	1
54	55	3
80	81	1
116	117	1
163	164	2
216	216	3
13	37	1
31	32	1
16	16	6
111	111	3
158	158	3
102	103	1
100	108	2
53	54	1
235	235	4
11	11	3
145	145	3
119	121	2
188	188	1
13	38	1
219	241	2
111	116	1
58	58	1
150	151	1
108	108	3
101	104	1
247	247	1
221	222	1
15	38	1
50	69	1
120	120	1
225	238	1
168	170	3
81	81	1
69	91	1
11	222	1
30	30	1
155	156	2
227	227	1
74	74	2
38	38	2
45	224	1
178	182	1
171	174	2
5	6	1
213	218	2
60	112	2
82	95	1
114	115	1
21	21	1
44	45	3
181	195	1
20	20	2
236	237	1
114	116	1
205	205	2
31	62	1
3	3	1
118	119	3
84	90	1
162	166	1
75	76	1
188	189	1
10	11	1
101	108	1
174	188	1
160	162	1
172	174	1
171	181	1
86	86	1
55	55	1
65	72	1
