76	76	17
88	98	3
71	71	13
83	87	5
69	69	26
30	31	3
93	96	4
97	97	21
89	89	13
88	89	1
45	106	1
103	104	6
70	71	8
22	23	4
26	44	1
38	39	4
31	31	26
92	101	1
104	105	5
60	60	21
103	103	19
59	59	17
64	64	34
98	99	10
36	36	31
73	74	3
67	67	12
49	49	15
53	54	12
84	84	11
90	106	2
70	70	26
34	35	5
58	59	3
86	86	6
65	66	7
59	60	9
61	61	14
51	52	9
55	56	6
102	103	4
80	80	12
92	93	11
65	80	4
98	98	17
32	33	3
23	23	19
75	76	2
80	81	13
40	41	4
72	84	2
89	90	18
28	28	9
72	97	5
85	86	7
91	91	27
51	51	17
84	85	4
90	95	2
79	79	22
26	27	18
101	101	22
44	44	20
41	41	25
105	105	27
45	45	19
68	68	31
95	96	3
47	47	12
48	49	1
62	62	24
76	77	10
59	68	6
90	90	17
29	50	1
25	51	5
65	65	21
97	98	6
96	98	3
56	58	11
74	74	16
64	65	13
52	52	8
42	42	19
78	99	3
50	50	17
67	73	6
44	61	4
52	53	8
45	53	2
85	85	6
93	94	7
74	75	9
43	84	7
66	66	23
57	57	12
58	58	11
29	29	7
37	37	22
50	51	7
82	85	3
83	84	10
41	43	1
55	55	13
75	84	5
78	79	8
39	39	15
99	99	20
64	73	1
32	57	4
68	74	3
77	77	13
90	91	4
69	71	1
68	69	25
22	22	26
49	52	1
25	26	9
107	107	6
33	33	18
75	75	18
51	67	9
82	88	2
82	82	15
34	34	12
57	58	4
62	63	8
21	21	23
27	30	7
32	32	15
85	87	7
35	56	4
95	95	15
70	74	4
97	99	4
56	56	21
71	81	8
87	87	12
20	20	4
40	46	2
106	106	13
57	87	1
42	46	3
70	76	4
40	42	1
38	38	9
51	65	2
94	94	18
53	53	14
27	29	3
63	63	19
90	105	4
72	76	3
61	62	3
69	72	4
56	57	2
76	91	1
77	78	5
48	79	2
23	39	6
73	97	3
55	72	2
59	91	5
35	35	10
24	24	10
83	83	5
102	102	10
87	88	7
27	27	15
76	95	2
42	49	4
90	94	4
88	88	16
75	105	2
43	43	10
29	58	1
60	72	1
40	40	15
78	78	6
73	73	16
82	84	2
57	86	2
65	67	3
88	99	1
81	81	15
38	61	1
46	47	4
31	88	1
32	62	5
32	35	3
96	106	1
23	38	2
21	22	1
26	26	15
93	93	20
30	30	10
67	96	3
25	58	3
73	81	3
51	92	5
58	60	4
57	64	2
25	106	1
104	104	14
72	72	10
38	68	3
46	46	15
47	50	2
44	52	3
42	47	5
96	97	1
58	83	2
67	71	2
65	100	2
55	71	3
89	95	5
28	30	2
92	96	8
37	39	7
54	54	14
20	22	3
34	41	3
86	99	1
72	80	6
72	77	3
83	99	3
86	88	3
42	44	6
24	54	1
56	86	2
20	21	3
37	47	4
63	64	3
66	67	1
48	48	8
97	100	3
47	95	2
71	72	5
82	87	2
28	31	1
72	73	7
100	100	20
77	79	1
82	107	3
100	101	1
102	105	3
42	63	1
51	61	3
31	32	5
28	29	4
65	69	1
23	25	1
82	83	9
73	80	4
94	95	10
88	97	2
79	81	1
101	102	6
58	66	1
106	107	1
60	61	3
79	80	2
92	94	2
95	107	1
27	45	2
77	91	1
68	102	2
38	45	1
33	58	1
74	84	3
42	45	2
19	26	1
53	58	1
92	92	9
35	36	4
78	98	1
72	95	2
78	84	1
49	50	1
60	70	1
33	96	2
58	92	2
25	25	2
72	79	1
38	69	2
34	40	1
33	34	1
86	87	3
73	83	1
35	55	1
69	70	6
83	85	1
52	54	1
31	105	1
71	86	1
35	39	2
37	53	1
84	91	1
67	78	1
91	95	1
47	107	1
89	91	1
44	45	4
41	55	1
79	90	1
56	59	3
36	37	2
61	65	1
32	46	1
51	55	2
37	52	3
53	60	1
57	60	1
63	65	2
46	48	1
81	82	3
59	69	1
74	102	1
84	87	1
53	61	1
37	70	4
100	105	1
96	96	3
54	61	1
21	27	1
52	61	2
72	78	1
57	62	1
41	45	3
73	76	3
79	91	1
26	28	1
22	38	2
71	73	1
94	98	1
91	92	1
87	98	1
44	95	2
19	19	1
38	43	1
42	96	1
94	107	1
57	67	1
29	39	2
72	81	1
41	42	1
87	95	1
56	63	1
59	61	1
62	75	1
60	63	1
55	68	1
64	71	1
47	48	1
