41	79	15
105	105	27
47	47	40
4	4	17
86	86	21
8	74	2
41	41	36
22	24	9
103	103	20
94	95	10
116	117	14
56	56	40
30	30	35
115	119	1
104	107	3
16	98	6
27	28	9
13	13	27
78	78	22
29	30	13
50	50	42
72	131	2
111	111	26
119	125	1
103	124	10
110	110	42
79	79	15
67	73	1
11	11	19
121	122	13
132	132	18
48	122	2
0	117	1
125	127	5
40	40	33
15	15	17
2	2	27
106	107	5
108	108	44
33	33	32
113	117	1
67	68	13
69	69	18
28	28	36
128	129	11
23	23	26
85	86	20
53	88	5
22	22	27
32	33	2
60	61	7
46	46	50
66	66	19
59	59	18
16	16	19
81	81	23
70	70	31
73	74	8
80	80	23
10	10	28
107	108	13
77	77	25
91	91	24
43	45	1
119	119	33
25	25	11
104	105	19
27	27	17
55	55	17
52	52	43
69	74	5
65	65	30
109	109	43
31	72	3
8	9	5
115	116	14
87	88	4
68	68	24
0	0	27
32	32	22
31	32	7
54	54	49
12	12	17
104	104	34
8	8	27
41	42	18
40	47	1
12	25	1
65	66	12
61	61	33
80	88	2
124	128	4
96	97	7
94	94	45
42	42	25
118	120	9
9	9	20
39	40	2
88	88	22
7	7	23
102	102	35
115	115	38
123	123	16
80	81	8
97	97	40
22	114	1
48	48	34
95	98	2
5	5	37
90	90	18
5	45	2
51	64	3
131	131	25
38	38	14
58	58	20
56	57	2
125	125	15
13	125	3
16	17	9
93	93	50
71	72	10
51	51	34
126	127	21
95	96	11
72	74	4
71	71	29
17	17	3
83	83	9
30	31	8
75	80	4
63	130	1
70	81	1
92	92	32
42	43	11
8	32	3
107	109	3
76	76	32
100	100	30
106	106	39
108	116	1
89	93	1
112	112	33
122	122	28
127	127	31
44	44	24
60	60	22
114	116	3
2	44	7
18	18	34
47	48	6
72	72	19
104	106	2
5	17	3
116	118	3
97	98	19
13	71	1
124	124	46
21	21	13
43	43	21
65	104	5
75	79	3
113	113	37
97	104	1
57	57	22
67	67	36
121	121	41
109	113	1
89	90	6
74	127	2
79	82	6
64	64	33
129	130	15
59	60	18
19	19	29
32	132	4
89	89	29
70	102	7
78	79	18
105	109	2
17	22	2
131	132	17
106	127	4
72	73	6
53	53	22
109	110	8
114	114	15
3	3	14
129	129	19
118	118	18
107	107	16
96	96	25
46	48	4
133	133	16
110	111	7
83	84	11
64	104	7
41	78	2
68	78	3
60	114	3
5	30	3
61	81	4
9	10	13
26	26	26
72	127	3
43	57	3
45	45	20
46	47	14
57	69	3
63	63	38
73	73	25
50	51	22
58	59	20
105	106	10
26	42	3
92	93	6
31	31	22
113	114	13
82	82	15
65	99	3
20	89	3
90	91	16
42	55	4
128	128	12
114	115	3
116	122	1
119	130	3
40	42	2
87	87	12
113	124	2
102	104	8
53	54	12
86	88	6
17	18	8
62	62	39
25	26	20
120	120	16
8	20	1
126	126	17
39	39	16
101	101	14
24	24	25
33	34	4
91	93	8
41	82	1
20	22	1
45	76	2
91	92	12
65	100	1
9	26	2
13	21	6
116	116	39
41	46	3
43	44	5
126	129	3
48	51	3
4	6	4
75	75	24
7	20	1
7	8	7
65	96	2
39	80	2
19	24	1
20	20	25
93	117	2
3	17	3
75	78	3
51	60	5
98	100	5
1	1	26
26	122	1
22	66	2
64	92	2
13	15	2
49	49	21
14	45	2
3	41	4
85	85	20
60	62	5
52	53	12
44	45	8
99	99	17
70	71	13
3	4	2
45	46	7
16	43	3
111	112	2
130	130	14
69	123	1
28	51	1
46	109	2
6	12	4
86	87	17
100	105	2
41	45	1
126	128	10
75	76	4
22	23	6
85	87	2
10	46	4
0	120	1
78	80	8
18	21	6
88	89	12
102	103	3
0	12	1
38	39	4
25	27	3
88	93	1
70	74	3
25	121	2
0	1	8
18	19	11
87	89	1
76	106	2
29	29	24
10	17	2
115	118	10
48	90	2
54	57	6
82	84	2
62	80	3
69	94	3
84	91	2
85	96	1
101	102	4
12	46	2
2	124	1
89	95	3
101	129	3
59	61	4
20	21	9
23	24	8
21	22	7
112	123	2
117	124	4
44	77	3
28	92	2
11	12	9
40	41	9
40	43	2
123	124	1
13	14	9
66	67	4
107	128	3
22	68	4
42	54	3
87	91	1
11	20	7
51	59	2
127	128	9
62	63	6
73	108	4
100	103	2
40	45	5
117	117	21
84	84	13
20	31	1
67	96	1
107	127	1
23	25	6
113	128	4
73	127	3
74	77	7
26	27	4
10	32	2
89	92	1
106	129	4
38	67	1
43	46	2
4	5	8
118	122	3
114	128	3
106	109	2
47	53	2
79	80	9
58	60	5
26	121	4
2	5	4
107	116	3
31	52	3
62	101	7
76	77	4
84	85	5
75	109	3
118	124	5
46	54	2
65	103	2
10	11	4
63	115	3
93	104	1
39	55	2
39	44	1
34	42	2
80	111	7
74	74	6
11	14	3
27	29	2
32	42	1
70	75	5
94	96	2
6	16	1
69	107	1
14	15	12
63	64	4
119	123	2
95	95	19
74	109	4
65	79	2
71	74	6
69	104	4
7	38	4
9	20	5
93	94	5
98	98	10
48	49	6
4	44	2
3	49	3
34	34	6
62	95	1
112	113	2
16	18	5
14	14	21
43	55	1
4	14	3
64	65	3
46	98	2
2	14	1
6	6	20
125	130	1
4	77	1
45	124	2
14	18	1
63	90	4
57	109	8
1	2	5
12	13	1
93	116	2
41	44	2
19	32	4
39	78	5
16	97	1
119	133	3
30	32	1
86	92	2
70	100	1
68	119	4
74	107	2
19	20	16
40	125	5
38	40	2
38	108	4
48	50	4
61	62	8
46	67	1
7	42	3
71	109	2
64	85	6
14	29	2
98	99	3
56	58	4
47	109	2
131	133	1
13	75	1
1	3	5
45	90	3
57	107	1
100	101	3
100	106	2
14	21	2
48	53	8
86	120	2
34	38	3
38	41	3
54	56	1
47	51	2
125	128	4
22	67	2
3	6	1
95	100	3
107	117	2
47	107	3
82	100	1
80	95	2
113	116	2
69	71	6
110	112	5
46	125	2
60	93	1
25	68	3
66	68	5
30	46	1
112	124	5
44	76	3
93	95	1
123	125	2
98	106	2
40	60	1
118	129	7
101	130	3
83	85	1
65	101	3
68	99	6
77	82	2
79	91	5
3	10	2
7	17	1
42	44	2
62	77	1
75	77	1
81	83	1
57	93	1
15	20	5
4	16	2
5	16	7
68	69	4
41	52	1
53	105	2
60	65	2
48	59	2
2	3	4
87	90	5
48	52	1
0	89	3
118	127	2
56	65	1
102	129	1
60	101	3
6	11	1
116	119	5
117	118	4
23	67	1
7	11	1
41	63	1
95	124	1
51	79	1
113	123	1
9	38	1
98	105	2
82	86	1
69	70	5
46	56	1
0	88	1
7	34	1
50	52	1
76	79	2
59	62	3
103	104	3
128	133	2
64	86	2
64	123	1
116	132	1
58	61	2
106	112	3
21	27	2
48	91	4
100	102	1
33	40	3
51	52	2
127	130	4
67	82	4
79	81	4
113	120	1
86	111	2
89	91	3
46	60	2
119	128	1
15	34	4
122	123	2
101	111	3
2	42	3
40	63	1
63	66	1
126	131	1
45	58	1
84	90	1
118	119	4
99	100	1
14	22	1
83	86	1
14	16	4
71	76	2
49	58	1
81	82	3
88	92	2
71	102	1
52	105	2
2	10	1
62	91	2
52	100	2
30	49	1
1	45	1
106	130	1
114	117	1
125	126	4
106	110	1
58	62	4
29	48	1
74	103	2
54	64	3
24	25	3
69	105	2
130	131	3
63	83	1
106	125	1
82	87	2
39	79	1
17	19	1
101	104	3
89	94	2
29	114	1
40	62	1
105	117	1
105	113	1
9	27	2
68	125	1
68	91	1
108	115	1
11	19	2
68	77	1
44	59	2
5	43	3
5	6	2
66	74	1
99	101	2
48	121	1
2	4	2
82	83	1
96	98	1
3	5	1
84	97	2
102	106	1
83	87	2
129	133	1
43	74	1
62	108	1
103	130	1
120	133	1
125	129	1
42	109	1
61	63	1
41	43	2
32	131	1
65	67	1
63	78	2
77	78	1
60	82	2
88	90	1
84	108	1
119	120	1
64	69	2
51	57	1
6	31	1
28	91	1
69	93	1
3	16	2
61	65	1
53	92	1
63	92	1
55	56	1
118	130	1
11	44	1
1	11	1
101	122	2
64	101	1
49	50	1
124	125	1
82	88	1
92	94	1
57	86	1
52	57	1
15	33	2
90	95	2
126	132	1
75	107	1
68	79	1
63	65	1
54	55	1
92	113	1
14	19	2
21	32	1
104	109	1
10	26	1
68	82	1
12	32	1
112	127	1
118	131	1
109	117	1
32	51	1
47	54	1
3	18	1
15	16	1
86	95	1
21	23	1
15	22	1
74	117	1
