22	22	34
36	37	7
66	66	15
37	38	3
21	22	8
70	70	22
68	69	9
41	43	3
49	50	1
67	68	3
49	49	12
61	62	8
55	56	2
72	73	9
25	25	18
75	75	21
64	64	15
51	70	2
93	96	4
46	86	4
42	42	9
93	93	25
34	35	2
33	34	7
76	93	1
73	92	5
96	96	13
20	20	13
74	74	19
65	65	15
79	80	2
36	36	9
71	73	5
77	101	1
75	76	15
65	103	1
71	71	28
71	72	17
92	92	12
54	55	19
88	89	6
94	94	18
77	77	16
32	32	11
55	55	41
72	72	26
99	100	3
62	63	7
33	33	8
63	66	2
24	25	2
83	83	11
53	53	15
84	85	4
82	82	11
73	73	21
23	23	23
60	61	2
73	74	13
43	44	7
54	54	24
88	88	11
28	32	1
38	38	13
58	59	11
51	51	29
41	59	1
31	39	3
32	34	3
34	34	18
52	52	18
69	70	5
81	81	22
101	101	17
87	99	3
60	60	10
64	103	1
90	91	11
26	26	12
63	64	4
104	105	5
63	63	15
56	106	2
105	106	6
90	90	5
70	71	15
21	21	28
76	76	17
104	104	21
58	70	3
45	45	7
42	89	3
29	30	2
68	68	11
30	40	4
76	100	1
28	29	5
61	66	2
48	49	3
29	29	3
86	86	9
23	24	6
97	97	8
27	33	1
50	50	19
31	31	23
34	37	2
59	60	8
103	103	16
79	97	3
27	27	7
35	35	13
69	69	20
38	39	2
79	84	1
40	40	7
87	87	6
46	46	5
56	56	22
61	61	13
99	99	12
91	91	14
44	88	2
32	35	2
59	59	25
103	104	2
74	75	7
28	28	9
101	102	8
62	62	13
86	87	8
58	58	11
105	105	4
55	100	2
46	49	2
100	100	11
82	83	12
82	90	3
25	30	3
65	66	4
97	98	1
102	102	19
44	90	3
67	67	24
52	70	1
96	97	4
89	89	6
50	94	2
62	66	2
47	48	2
37	37	6
43	43	7
80	81	4
39	39	18
94	96	1
31	32	4
84	84	2
47	82	1
53	54	3
95	95	10
56	60	8
95	96	2
101	104	3
58	69	2
52	53	3
58	84	4
85	97	2
54	101	1
25	28	3
85	86	4
80	80	16
50	99	2
98	99	5
43	59	3
56	81	2
49	52	3
58	83	4
40	91	1
85	93	2
20	21	6
83	84	3
41	41	5
76	92	1
33	37	1
45	48	2
61	67	2
51	102	2
78	81	1
64	65	5
77	100	8
53	73	1
58	60	5
83	85	2
26	30	4
85	85	7
56	57	2
78	99	4
29	41	4
93	94	2
54	72	3
93	101	3
106	106	2
77	105	4
32	33	5
26	27	2
53	105	2
29	31	2
22	23	2
80	93	5
67	69	3
34	36	7
44	44	4
63	65	2
61	63	1
35	36	4
81	84	1
84	86	2
41	47	1
92	94	1
51	81	3
85	94	1
33	36	5
57	57	9
79	94	4
64	66	5
53	98	2
45	50	1
27	28	2
81	82	4
58	61	2
51	82	3
30	31	5
96	99	1
94	95	1
84	87	3
71	101	4
32	38	2
57	70	1
28	42	2
40	41	1
23	31	1
89	93	2
82	89	1
78	79	2
70	76	1
61	65	1
76	77	4
91	92	7
36	38	1
26	29	2
78	78	3
87	93	1
49	99	1
47	47	6
24	24	6
47	49	1
76	91	2
56	62	3
99	107	1
100	101	1
76	104	1
77	104	2
97	99	2
107	107	2
98	98	6
79	85	2
95	99	3
57	96	1
73	91	1
70	74	2
56	58	3
57	72	1
30	30	3
42	48	5
52	54	1
60	75	1
102	104	2
44	45	2
80	86	1
79	99	2
73	75	2
99	106	1
79	79	1
102	103	2
54	57	1
79	106	1
77	78	1
56	70	1
39	40	2
100	104	1
25	29	2
58	76	1
57	58	1
46	87	1
57	93	1
78	96	1
48	82	1
76	94	1
