74	74	2
4	4	6
37	38	2
36	36	10
83	83	3
113	113	6
85	85	7
126	126	12
75	75	5
23	24	8
95	95	3
1	7	2
108	109	9
119	121	6
114	125	1
107	113	2
109	109	5
135	135	9
9	10	5
35	35	8
105	105	5
124	124	7
15	33	1
121	122	3
138	138	6
104	104	11
71	71	4
137	137	2
93	93	4
102	102	6
134	134	8
90	90	2
110	110	7
100	117	2
9	9	5
15	16	3
92	92	1
13	14	5
79	79	7
24	25	5
133	133	3
125	125	2
12	12	3
119	119	1
117	117	2
96	96	2
120	120	3
132	132	10
29	29	3
81	82	3
34	34	4
71	73	3
36	38	1
138	139	2
33	33	2
109	111	4
111	112	1
118	119	4
74	101	3
118	118	8
131	131	10
104	130	1
7	7	2
113	114	7
3	3	6
24	24	4
28	28	1
106	118	3
84	85	1
31	31	7
78	78	3
83	85	1
140	140	3
5	5	5
122	122	8
127	127	2
11	11	2
20	21	1
34	126	2
111	111	6
12	16	8
7	8	3
73	101	3
37	37	5
117	120	1
11	12	9
120	122	5
93	94	4
18	18	5
99	99	1
11	15	3
13	21	4
32	32	5
17	17	5
114	115	2
128	128	4
109	110	3
116	117	1
1	1	3
103	125	2
4	5	1
3	7	5
106	122	2
82	83	2
72	124	2
98	98	5
119	120	4
0	0	2
24	26	2
80	82	2
12	14	2
123	123	6
134	135	2
72	72	3
104	108	2
135	136	4
21	127	1
125	126	1
95	114	1
88	91	2
79	116	2
114	114	7
77	104	1
14	14	2
123	124	2
20	20	2
21	21	5
79	84	1
88	88	7
108	117	1
25	25	4
19	19	4
72	73	3
130	130	5
23	23	1
76	93	2
91	91	3
7	109	1
8	109	1
2	2	3
111	114	2
22	22	3
10	10	4
1	105	5
115	115	1
107	107	5
112	112	2
27	27	1
31	32	2
78	79	3
22	25	1
118	122	1
28	108	2
115	117	1
123	137	2
87	88	4
121	121	4
85	88	2
8	72	3
5	111	1
129	129	3
128	130	1
108	108	3
18	20	1
22	129	2
75	97	2
76	84	2
11	25	1
80	80	1
107	108	2
139	139	2
30	30	1
6	71	1
17	18	1
73	73	1
0	1	1
74	118	2
4	128	1
86	86	1
21	96	1
129	130	1
26	26	2
127	129	1
14	15	2
133	134	1
2	5	1
9	12	1
89	89	1
3	10	1
110	111	1
81	95	2
13	13	2
19	101	1
0	12	1
120	129	1
100	100	2
136	136	1
3	4	1
2	7	1
2	4	1
7	23	1
83	84	1
99	116	1
3	5	1
100	101	1
23	26	1
110	132	1
71	72	1
117	118	1
15	15	1
