41	42	3
73	73	10
96	96	6
116	117	4
67	71	2
126	126	21
132	134	6
7	7	17
124	156	1
152	152	9
119	146	1
77	77	8
18	19	8
68	89	1
148	149	3
124	125	5
17	35	5
104	104	6
19	19	8
123	124	3
63	134	4
40	41	4
118	152	5
94	95	6
42	42	7
119	152	1
138	143	2
14	48	2
130	130	7
3	4	6
24	24	21
9	10	5
117	117	7
34	34	11
35	35	10
51	55	1
87	105	5
125	126	9
15	41	8
9	9	8
43	44	3
119	119	9
3	3	25
99	100	5
91	92	4
36	38	1
106	107	7
136	136	18
2	2	14
40	40	8
119	144	3
46	77	2
12	12	13
154	154	11
50	50	3
65	127	2
100	100	10
76	77	2
121	122	4
36	36	7
113	151	2
86	145	1
98	98	9
83	83	7
53	53	15
133	133	3
70	70	4
5	5	12
22	54	4
1	1	8
128	128	8
136	137	7
68	69	11
21	28	3
37	37	8
146	149	2
138	139	1
108	111	7
50	63	2
118	118	9
148	148	11
9	11	5
17	18	1
27	28	7
88	88	6
49	51	3
69	69	3
87	107	8
122	123	3
93	93	9
91	97	1
91	91	7
147	147	14
38	77	3
16	16	5
52	53	9
102	102	3
68	70	1
1	2	10
23	23	10
22	22	2
67	68	2
112	146	1
52	57	3
81	81	11
120	122	5
126	150	2
97	98	7
51	51	11
89	89	9
134	135	6
83	146	1
16	19	3
1	132	1
28	28	4
23	24	4
131	131	4
27	27	9
67	146	1
101	101	17
137	139	2
104	106	1
38	39	7
137	137	7
0	0	7
103	140	4
151	151	14
110	115	5
8	8	12
109	144	2
4	16	2
144	144	16
10	67	1
82	82	6
53	70	1
127	127	16
114	115	5
48	48	17
106	142	2
8	9	4
68	68	7
63	63	4
29	29	4
95	95	12
131	154	1
79	79	13
140	140	5
46	47	3
19	20	1
149	149	4
115	115	5
114	114	10
76	76	1
73	74	3
129	130	2
14	14	2
121	121	11
67	88	1
33	33	7
132	156	2
42	43	5
115	116	5
21	21	5
102	103	3
20	20	5
0	1	4
49	49	7
135	135	14
87	87	7
17	44	1
150	150	5
47	55	1
88	89	3
67	89	4
135	136	2
133	134	2
26	26	12
75	75	3
19	86	1
106	110	6
29	30	4
126	135	2
139	140	10
97	136	3
110	110	11
138	138	11
97	97	14
92	92	6
44	44	8
109	109	9
108	108	10
31	38	1
103	103	9
25	25	11
54	70	3
132	133	7
110	111	1
153	153	6
157	157	5
105	143	1
43	43	13
39	50	1
134	142	1
63	64	4
45	45	6
125	145	2
40	42	2
107	107	10
55	55	2
6	6	11
124	124	11
122	122	6
26	28	4
30	63	2
142	142	2
47	47	5
67	69	3
38	38	8
128	129	1
15	15	7
16	17	2
39	39	8
137	138	9
141	141	6
126	127	4
152	154	2
30	30	12
71	71	7
84	84	5
155	156	5
36	37	7
82	83	2
150	153	2
28	29	6
42	45	1
107	108	1
53	146	4
119	120	6
102	140	2
64	68	3
85	109	3
105	105	6
65	97	3
61	63	2
4	30	2
153	156	1
49	53	1
140	141	4
118	149	2
135	140	5
96	98	1
139	149	2
90	90	3
100	101	3
78	78	5
5	99	3
110	113	1
46	107	1
85	136	4
25	26	12
118	141	1
37	41	5
123	123	3
132	132	11
8	12	6
142	144	2
67	67	6
43	92	2
25	27	2
31	31	5
49	52	2
116	116	6
51	54	2
112	112	3
109	111	4
13	14	3
104	135	2
124	126	8
84	147	1
30	31	2
111	111	8
56	121	4
157	158	2
125	125	5
146	147	8
89	115	2
33	37	3
91	96	2
116	154	1
48	81	1
131	132	3
52	55	2
131	146	1
31	32	6
154	155	2
0	107	1
13	13	5
68	71	2
112	145	4
13	16	2
21	22	2
10	10	8
129	133	1
57	57	8
52	67	3
95	96	4
46	46	5
19	48	4
52	54	4
11	73	2
145	147	5
62	62	1
119	153	2
93	96	1
13	39	3
85	85	3
84	85	1
48	56	1
1	44	1
72	72	3
80	80	5
88	91	5
87	89	2
65	65	2
13	15	2
49	70	4
80	81	2
11	11	3
51	52	3
56	69	1
48	80	2
24	43	1
145	146	1
18	18	4
14	54	2
15	16	4
143	144	1
120	120	2
20	26	3
18	158	3
31	70	5
50	51	3
3	68	3
4	4	8
22	23	1
113	139	2
123	125	2
113	145	2
139	142	1
64	133	1
108	109	2
102	104	2
17	45	2
127	129	1
22	28	2
105	106	5
154	158	1
153	154	2
128	130	1
139	139	9
144	145	5
104	117	1
86	86	2
3	49	1
156	157	2
95	97	5
65	132	1
95	108	3
146	146	5
85	86	6
109	110	5
17	17	4
2	43	5
88	147	1
71	90	4
131	134	5
105	107	1
156	156	3
133	141	1
37	38	2
78	79	2
68	146	6
94	116	3
18	64	1
11	146	2
115	133	2
151	152	2
134	134	3
130	132	1
111	113	1
15	71	1
30	38	1
36	39	1
130	131	6
24	26	3
13	21	1
32	69	1
31	152	3
105	139	1
7	8	12
52	122	1
41	43	1
13	40	1
32	38	5
104	142	4
43	91	1
53	152	1
48	49	3
99	99	6
81	133	2
93	117	1
106	106	3
68	122	1
106	108	4
41	41	3
33	34	2
19	50	1
154	156	2
19	26	2
91	93	3
64	71	1
3	81	3
141	146	2
132	136	1
131	133	2
32	96	3
66	66	4
65	147	1
136	143	2
12	53	1
70	71	2
52	69	2
69	144	1
79	80	2
120	135	1
141	144	2
112	118	1
117	140	1
144	146	2
120	121	1
43	94	1
32	75	1
154	157	1
130	144	1
149	150	2
141	142	1
18	35	2
64	124	1
82	86	1
84	117	2
0	44	1
54	54	1
31	71	1
87	115	2
5	6	2
113	146	1
92	93	1
49	55	1
106	143	1
118	120	2
57	61	1
112	113	2
89	90	1
50	52	1
14	15	1
55	100	1
142	145	1
31	37	1
38	70	2
128	131	1
87	116	1
137	141	1
102	141	1
94	94	3
4	10	1
80	103	1
129	129	4
155	155	3
20	21	2
56	56	1
47	50	1
64	65	2
52	157	1
1	3	1
90	91	1
47	83	2
5	16	2
138	140	1
142	143	2
72	78	1
80	131	1
48	52	1
87	152	3
84	118	1
34	153	1
126	152	1
5	97	1
41	78	1
146	159	1
37	75	2
66	146	1
95	159	1
157	159	1
31	68	1
122	147	1
66	113	1
35	36	1
16	49	2
89	138	1
111	129	1
106	141	1
36	41	1
137	143	1
87	132	1
96	158	1
113	115	1
77	78	2
107	157	1
1	43	1
8	36	1
6	43	1
2	3	1
110	152	1
119	147	1
66	98	1
13	54	1
88	154	3
70	100	1
148	151	1
90	113	2
156	158	2
37	78	1
56	63	1
63	67	1
108	118	1
5	44	1
99	110	2
32	33	1
2	116	1
113	113	1
78	109	1
51	99	1
57	145	1
64	78	1
41	77	1
4	5	2
12	13	1
127	128	1
109	129	1
119	134	1
70	79	1
85	157	1
54	69	1
38	78	1
111	144	1
64	120	1
89	106	1
14	82	1
127	135	1
112	136	1
150	154	1
87	88	1
3	15	1
