138	138	7
156	156	5
15	16	4
148	151	1
9	9	2
42	55	2
46	46	10
58	131	2
160	164	2
9	10	1
191	192	3
139	140	2
102	102	5
22	35	2
197	197	2
116	145	4
15	15	5
55	55	4
141	141	5
144	144	1
109	111	5
25	25	7
128	129	3
97	104	4
58	58	7
1	2	4
5	6	4
85	86	3
147	147	3
56	56	1
135	135	2
47	47	7
71	71	2
134	134	4
22	22	3
5	63	1
183	183	4
98	98	2
106	168	1
3	3	2
1	3	1
157	158	3
8	8	1
174	175	2
32	132	1
163	164	3
172	172	1
14	15	2
73	73	4
29	30	2
150	150	3
20	20	6
33	33	4
142	167	3
166	166	2
97	97	3
166	174	3
141	158	1
64	64	1
44	44	2
2	3	1
119	119	4
177	190	3
171	171	4
67	67	1
189	189	4
58	62	6
129	129	2
124	124	2
117	117	6
47	193	1
33	132	3
59	59	1
21	21	3
35	35	6
160	160	3
157	157	6
79	150	4
17	31	1
132	132	1
175	175	3
79	79	3
190	190	12
33	189	2
13	14	3
145	145	3
4	4	6
177	177	8
11	53	1
51	51	4
175	176	2
27	30	3
36	36	5
187	187	1
56	138	1
81	165	3
17	18	2
168	168	1
23	23	4
115	115	7
165	165	7
46	55	1
61	61	6
24	25	1
139	157	2
103	104	2
138	149	8
93	93	1
196	197	1
153	161	1
55	56	2
106	106	3
6	71	1
146	146	2
30	31	8
133	133	1
24	37	2
0	0	2
21	22	3
22	23	3
152	154	4
16	16	5
37	37	1
89	89	3
173	173	5
76	76	1
148	148	1
41	41	2
114	114	5
171	172	2
12	12	2
65	65	1
118	118	5
153	153	1
89	187	1
105	105	3
159	159	4
52	52	1
16	102	3
125	125	2
49	49	2
29	105	3
57	81	1
33	34	3
17	32	1
14	14	1
151	152	4
182	183	3
75	75	1
2	7	3
136	136	1
38	38	3
195	195	1
174	174	2
101	101	8
58	59	1
180	181	2
27	28	2
155	156	4
155	155	4
13	13	5
78	78	3
17	17	3
111	111	2
2	2	4
82	82	4
116	116	1
18	18	1
44	100	1
186	187	1
181	181	4
12	99	5
14	185	1
112	134	3
131	131	2
17	105	1
23	111	1
48	48	1
39	40	1
179	179	3
104	182	1
19	28	1
169	170	2
45	45	1
54	56	2
187	188	1
166	179	1
64	65	1
108	170	1
165	166	1
188	188	3
142	163	5
122	122	1
54	54	3
80	81	2
146	148	3
34	34	3
149	149	3
108	108	2
163	163	1
186	186	3
163	175	1
74	75	1
77	77	1
158	158	1
57	57	3
2	22	1
142	142	1
53	54	1
32	32	3
2	109	1
139	146	1
34	152	2
110	110	1
148	149	1
171	179	1
107	108	1
0	1	1
184	185	2
54	55	3
158	159	1
27	83	2
10	10	2
6	6	1
10	11	3
173	177	1
128	128	1
151	151	1
75	77	1
84	84	1
46	73	1
152	153	1
69	79	1
98	102	1
109	109	1
19	26	2
3	63	1
50	51	1
54	64	2
188	189	1
157	159	2
150	160	1
167	168	1
24	128	1
72	72	1
101	192	1
107	107	1
55	70	1
154	168	1
166	180	1
18	31	2
189	192	1
88	88	1
120	121	2
39	39	1
178	178	1
114	115	1
83	83	1
111	156	1
7	7	1
4	191	1
129	130	1
64	73	1
114	192	1
43	43	1
30	30	1
104	105	1
53	55	1
97	168	1
118	119	1
137	137	1
60	60	1
97	175	1
