104	104	5
68	118	2
81	81	4
22	27	2
71	71	1
110	110	1
99	104	2
46	46	10
42	95	2
77	77	2
118	118	4
97	103	3
53	53	6
2	2	4
7	7	8
60	107	2
19	19	8
91	91	4
67	67	1
67	73	2
93	93	7
96	96	3
44	47	1
70	70	10
49	49	2
95	95	2
11	22	3
32	32	4
13	14	2
98	98	4
25	29	3
40	62	1
23	24	4
42	104	3
114	114	7
53	54	1
1	1	3
4	108	2
40	63	1
121	122	4
4	4	3
73	73	2
33	33	6
86	88	3
40	45	4
101	101	3
131	131	4
70	111	3
88	88	1
126	128	3
0	1	3
38	78	1
104	117	2
66	119	2
45	76	3
125	126	1
116	132	2
15	15	1
33	88	2
14	14	3
44	44	2
60	61	2
68	112	3
25	25	1
115	115	3
39	39	2
82	82	6
39	40	2
2	132	2
43	43	1
56	56	2
47	78	1
64	64	3
121	121	4
89	93	4
61	61	2
94	94	2
6	6	3
14	15	2
20	20	3
23	23	3
47	48	3
16	16	4
38	65	1
66	68	2
104	105	1
75	77	3
57	57	5
12	12	4
91	92	1
118	130	2
111	120	2
6	10	2
39	44	1
32	39	2
25	26	1
100	100	1
5	5	1
91	98	1
80	80	3
107	108	1
17	21	1
101	102	2
49	85	1
8	8	6
72	72	2
41	41	2
89	89	1
11	11	2
102	129	2
48	48	5
97	97	1
30	30	6
32	71	1
71	111	1
69	69	1
40	40	1
64	68	1
79	79	3
26	26	2
112	112	4
59	62	2
96	102	3
78	78	1
51	52	4
33	89	2
3	27	1
108	111	3
123	123	1
18	21	2
108	108	1
34	103	3
62	62	2
114	115	1
116	116	2
18	22	1
41	102	1
102	102	5
126	127	3
106	106	4
99	126	2
92	92	2
41	62	5
106	125	1
73	78	2
42	43	1
74	74	2
62	68	2
87	87	2
125	125	2
76	76	1
76	78	1
41	44	3
65	65	1
3	14	1
104	106	1
115	126	1
4	14	2
109	110	2
127	127	2
39	86	1
60	60	1
108	129	1
120	120	1
46	48	1
98	104	1
74	77	2
52	53	3
125	129	1
63	63	2
128	129	1
114	125	1
114	129	2
113	113	1
85	89	1
21	21	1
23	25	1
126	129	2
17	18	1
44	78	2
18	19	1
54	54	2
