101	101	24
86	86	4
130	130	9
84	84	2
92	92	18
80	81	9
80	87	8
12	12	9
132	133	2
121	121	17
56	57	5
112	116	1
107	107	7
79	99	4
23	23	6
122	123	1
112	113	1
7	7	11
4	4	5
126	126	9
43	43	5
68	68	3
26	26	8
128	128	23
120	125	2
60	86	3
132	134	1
74	74	17
7	34	1
73	74	9
101	116	3
79	79	22
53	53	3
33	33	16
36	36	1
125	132	4
35	36	6
54	54	24
117	119	3
92	93	15
118	119	4
73	73	18
1	1	5
83	84	7
59	59	9
64	64	8
29	29	17
115	115	12
116	116	23
85	85	6
99	100	3
98	98	16
79	93	4
89	89	7
29	30	9
108	111	5
96	96	10
99	105	12
84	85	1
69	69	22
112	112	25
77	95	1
38	38	4
95	95	34
104	104	19
64	65	8
104	114	1
86	87	5
87	87	8
28	29	3
82	84	1
78	78	11
5	5	15
82	82	3
120	120	17
35	35	18
50	126	2
3	3	10
86	126	2
62	64	1
129	129	7
20	116	4
91	115	2
24	24	11
93	93	15
23	98	1
106	106	19
69	70	2
11	33	2
42	60	1
32	32	6
63	63	9
54	111	3
26	79	5
97	100	2
75	75	12
74	76	2
75	101	1
134	134	8
79	80	2
100	100	7
79	104	3
103	104	5
0	0	6
49	49	2
103	103	28
6	29	3
128	129	3
34	34	4
104	105	6
55	58	6
91	92	3
16	17	2
80	88	3
102	113	1
8	8	7
11	11	9
57	58	1
28	28	5
30	30	10
79	98	5
60	61	2
127	128	11
10	10	6
14	14	5
65	65	11
21	21	5
105	105	19
64	104	4
111	111	2
62	62	3
77	78	6
115	116	5
62	88	6
102	103	3
15	16	2
55	57	6
83	83	10
117	117	2
114	115	14
127	127	7
2	2	7
43	50	6
44	47	4
71	72	2
127	132	1
133	133	11
68	69	1
88	97	4
60	60	14
78	93	2
72	72	9
6	6	10
122	122	9
34	35	7
89	90	7
44	44	9
54	112	5
114	114	8
39	43	3
109	109	6
90	90	5
27	129	2
108	108	11
101	111	1
107	109	2
77	77	9
62	63	4
25	25	3
110	111	7
106	107	5
80	80	10
74	75	2
126	127	9
15	21	3
16	22	4
98	100	1
56	61	3
54	65	5
130	131	2
76	88	2
97	97	7
113	113	6
102	105	6
27	27	7
20	26	2
63	70	2
101	110	3
3	4	5
88	88	7
22	22	1
49	50	2
47	55	1
57	60	2
32	33	4
63	65	3
85	86	1
31	31	5
21	22	6
81	99	3
77	116	4
107	108	3
91	91	6
125	125	5
31	50	1
33	34	1
61	61	1
13	13	7
101	102	4
27	126	2
120	121	4
77	117	2
45	45	2
89	94	2
71	71	8
43	44	2
50	50	3
123	123	5
66	66	2
126	134	2
102	102	6
124	124	3
121	123	1
62	85	4
52	52	8
9	10	3
76	76	6
66	67	1
96	111	2
55	65	1
54	114	2
70	70	10
133	134	4
94	95	1
113	119	2
63	126	2
31	32	1
47	47	1
118	118	3
99	99	7
112	114	1
88	89	2
5	12	1
94	94	8
0	1	6
119	120	2
52	58	1
103	113	1
67	67	2
63	64	2
79	94	4
121	122	2
98	99	3
19	20	2
123	125	2
49	129	1
75	116	1
5	6	1
84	86	2
8	9	2
70	71	1
7	11	1
48	48	3
58	58	5
15	15	3
101	114	6
4	104	1
109	110	1
18	30	3
44	48	1
93	94	2
116	124	1
52	53	1
113	114	5
57	59	2
123	124	1
116	117	1
11	36	2
59	80	1
132	132	1
119	119	2
103	105	2
9	9	1
67	68	1
14	15	2
110	110	6
30	31	1
56	56	2
105	106	2
73	75	1
99	108	2
38	131	2
1	2	2
65	70	2
72	88	1
59	66	1
53	57	1
80	96	1
27	37	2
54	128	1
95	96	5
76	102	1
116	123	1
13	14	2
135	135	1
129	134	4
0	129	1
42	42	2
71	76	2
83	85	1
59	60	1
10	11	1
106	111	3
98	107	2
48	117	1
131	131	1
80	99	3
55	55	1
87	88	2
81	81	1
19	27	1
102	104	1
124	134	1
124	125	1
77	123	1
85	87	1
110	112	1
49	131	1
111	112	1
64	81	1
11	12	1
22	126	1
60	96	1
106	108	1
2	27	1
17	17	1
82	85	1
16	26	1
