63	63	3
45	64	2
11	163	1
83	84	6
92	92	5
80	95	5
79	79	4
44	44	7
124	132	2
106	106	4
41	41	5
8	8	2
171	174	5
61	61	3
121	121	2
131	132	2
105	105	10
119	127	2
177	184	2
71	74	2
53	53	12
22	72	10
159	159	2
12	14	3
48	48	8
60	60	7
90	90	9
22	22	2
113	115	2
78	78	6
140	140	7
118	118	2
80	80	7
20	71	1
136	136	5
175	175	4
22	46	2
147	147	10
46	46	2
123	123	5
97	98	4
52	52	3
43	72	5
114	115	9
117	137	2
152	153	3
139	139	2
120	120	5
46	97	1
72	73	3
23	66	4
62	68	3
10	11	2
1	8	2
30	30	9
91	119	1
164	164	4
167	167	3
157	167	8
3	4	1
176	181	1
21	21	4
108	108	2
96	97	4
86	86	7
9	9	3
66	68	3
37	37	8
168	169	2
77	77	7
178	178	4
13	14	5
147	158	4
25	103	1
170	170	4
114	114	5
150	162	4
110	146	1
33	34	3
141	141	8
24	24	7
124	126	6
153	154	4
81	85	3
148	148	2
42	42	3
160	160	3
15	90	2
180	189	4
71	98	2
162	162	5
95	95	1
5	139	3
76	76	4
131	167	3
87	128	1
184	184	2
43	45	1
79	131	1
40	40	1
156	157	4
117	139	2
184	185	3
1	1	4
149	157	3
124	146	3
31	31	5
112	116	1
10	65	3
103	103	8
168	168	1
38	39	2
57	57	3
1	3	2
68	68	7
67	67	4
32	33	1
79	128	1
100	100	2
21	73	2
54	56	2
106	107	1
91	91	3
158	158	8
96	96	4
189	189	3
155	156	3
127	127	1
10	26	2
166	166	7
156	179	2
60	61	3
19	21	3
64	96	3
125	129	4
111	117	1
18	18	1
125	151	1
166	186	1
147	167	4
15	16	5
39	39	2
185	185	6
122	124	5
101	128	1
23	23	8
188	188	4
142	149	2
13	13	5
5	164	1
56	57	1
17	17	7
163	163	2
83	83	3
79	80	2
123	146	1
46	72	1
66	67	2
154	154	3
38	40	1
25	25	3
27	66	1
116	116	3
55	65	1
29	32	2
47	47	1
19	19	5
26	26	2
143	143	5
3	8	3
110	110	3
80	81	1
186	186	2
84	84	5
58	58	4
89	89	1
58	72	1
98	100	2
91	94	4
125	125	6
45	45	2
96	115	6
108	109	4
17	63	2
79	87	2
108	112	2
36	36	3
73	74	2
116	118	2
33	35	1
126	126	3
113	113	3
97	97	2
80	132	2
133	135	1
105	106	2
151	151	2
134	135	2
124	124	4
34	34	7
145	145	1
28	38	1
45	97	4
129	129	2
135	135	4
27	56	4
2	2	5
79	90	2
146	146	7
183	183	2
11	19	1
137	137	4
142	147	1
177	179	1
112	113	1
127	128	1
83	87	1
134	170	1
140	141	1
65	65	2
171	171	3
172	172	4
82	99	1
4	4	1
85	85	7
181	181	1
0	0	1
81	86	1
24	25	1
27	29	3
95	106	1
82	82	1
104	104	1
157	165	6
133	133	1
180	181	3
10	19	1
187	187	2
187	188	3
45	65	1
99	100	1
164	181	3
149	149	2
35	35	3
130	131	2
173	176	5
94	95	3
109	109	1
125	130	1
142	142	1
125	165	1
16	63	1
147	156	1
154	162	1
134	174	2
12	21	2
150	173	4
112	112	2
157	173	2
116	133	1
16	16	1
3	7	1
154	161	2
120	122	1
60	64	1
1	2	2
101	101	4
92	93	1
29	29	4
169	169	3
59	72	3
62	62	4
155	159	1
15	158	2
55	56	1
85	86	2
18	58	1
24	47	1
174	183	1
43	44	2
151	169	2
177	177	1
30	38	1
43	43	1
54	54	3
85	118	1
118	122	1
163	164	1
28	71	1
72	72	3
55	55	2
3	3	1
188	189	1
137	173	2
12	13	1
106	112	1
156	156	1
162	163	1
131	131	1
27	30	1
73	73	2
182	183	1
161	161	1
117	141	1
6	6	2
108	110	1
70	70	1
86	87	1
138	138	1
7	7	1
84	86	1
135	137	1
102	103	2
78	79	1
134	134	2
33	37	1
173	173	1
110	111	1
126	127	1
93	94	1
107	107	3
59	73	1
59	59	1
152	190	2
11	13	1
15	144	1
133	136	1
110	112	1
106	119	1
15	159	1
74	74	2
135	136	1
158	159	1
106	117	1
175	181	1
28	70	1
144	151	1
79	100	1
23	98	1
38	38	1
154	188	1
174	175	1
140	161	1
37	38	1
84	85	1
174	174	1
41	57	1
37	54	1
59	64	1
