55	79	3
78	78	11
128	128	5
54	54	5
114	114	2
98	98	3
66	66	11
71	73	7
49	49	11
100	108	8
12	12	3
30	32	3
69	69	3
34	46	7
105	105	6
146	146	7
8	8	10
85	85	5
9	9	16
17	17	11
98	101	2
103	104	4
117	117	7
108	108	2
31	31	7
78	80	2
28	29	9
125	125	3
128	130	1
55	55	2
105	126	3
80	80	12
110	111	2
23	56	3
87	90	3
64	64	5
11	12	2
102	102	5
25	104	3
67	96	1
15	16	3
14	14	7
4	4	6
112	112	9
141	141	7
111	112	1
7	7	13
94	126	3
50	50	1
99	150	1
41	43	3
94	94	8
76	78	4
137	138	8
142	143	4
83	83	11
110	110	8
73	73	6
48	49	5
104	105	2
56	56	9
130	130	4
95	95	10
3	3	1
125	142	1
30	30	2
32	32	11
38	38	10
25	25	7
10	42	4
6	6	6
74	75	4
127	127	3
130	136	3
106	107	5
20	120	3
84	84	4
81	82	6
10	41	3
63	139	2
37	37	2
122	125	2
48	48	7
129	129	6
121	121	2
22	125	3
35	35	3
112	126	2
57	119	4
26	28	1
82	82	2
81	85	2
15	43	3
44	45	1
75	75	1
87	87	1
13	13	8
85	148	6
44	44	7
53	53	8
101	102	2
111	126	2
149	149	4
80	85	2
107	112	3
109	113	1
25	154	2
84	87	2
10	10	2
8	12	2
30	31	6
19	19	3
141	142	2
26	26	4
148	148	3
18	18	6
84	146	1
116	117	2
12	63	1
41	41	2
16	18	2
31	46	2
57	57	4
68	68	3
104	152	1
144	144	3
133	133	2
82	114	4
68	74	7
24	25	3
71	71	5
104	106	3
48	53	4
131	131	6
79	83	9
106	144	1
82	98	1
104	108	2
101	101	2
134	134	2
4	6	1
20	20	3
128	129	3
67	67	7
154	154	4
34	36	2
79	79	2
14	15	3
39	41	5
80	82	3
21	22	6
52	52	3
11	11	7
33	38	1
81	81	2
85	86	3
128	131	2
104	104	5
51	51	1
31	42	4
22	22	4
3	18	1
87	88	3
106	124	1
85	149	2
15	20	4
69	70	3
51	68	1
23	23	3
132	136	3
10	24	1
24	24	11
23	69	2
43	43	2
119	120	1
65	66	3
129	140	2
29	30	1
21	21	4
5	6	5
64	69	2
45	45	7
16	62	1
94	132	4
27	28	2
109	133	4
96	96	4
38	39	1
102	111	3
124	129	1
41	42	6
84	131	1
31	47	3
103	103	8
114	121	1
16	56	1
84	151	4
23	24	2
32	40	1
128	146	1
58	64	2
62	69	3
35	47	2
62	62	1
6	8	2
136	136	4
14	123	2
4	7	3
28	28	3
88	88	2
113	113	2
102	120	6
101	111	2
62	121	5
111	124	3
93	94	2
30	42	6
122	122	2
62	64	1
138	139	2
17	18	1
68	73	3
84	86	1
89	117	2
2	2	1
34	42	2
8	9	1
16	16	3
10	43	1
66	74	1
71	118	1
42	42	2
5	5	4
11	45	1
100	151	3
9	10	2
31	32	3
92	94	2
34	35	2
10	15	2
40	44	2
54	56	2
15	30	1
40	40	3
145	146	3
22	23	3
129	130	1
10	13	2
73	79	2
138	138	4
104	122	3
94	95	1
46	46	7
119	119	1
150	152	2
19	24	1
94	137	1
123	126	1
27	27	1
21	23	4
135	135	2
62	75	1
37	38	1
14	45	1
47	47	2
93	93	4
63	63	4
100	100	1
82	84	2
56	58	1
141	144	2
33	33	2
107	107	3
140	144	3
110	130	1
54	55	2
150	151	2
117	118	1
109	110	1
63	75	1
121	122	2
97	98	1
86	86	1
13	14	1
94	97	1
14	27	2
39	39	1
97	97	3
111	111	3
58	58	2
20	55	1
42	43	1
65	65	2
98	126	1
47	48	3
32	42	2
76	76	2
67	68	1
108	126	2
36	36	3
92	144	1
123	123	5
64	70	1
137	137	2
79	114	1
147	147	2
115	116	3
72	79	1
93	136	1
73	74	1
118	118	1
112	113	2
52	54	1
16	22	1
87	91	1
83	130	1
152	153	1
32	33	2
92	96	1
125	126	2
52	55	1
95	98	1
66	83	1
10	11	1
108	125	1
15	15	4
21	119	1
8	39	1
34	34	1
5	11	2
20	22	1
29	50	1
89	116	2
20	21	1
145	145	1
15	27	2
137	146	1
69	78	1
37	39	1
12	48	1
65	85	1
45	46	1
126	126	1
112	114	1
11	63	1
34	39	1
29	29	1
15	21	1
120	120	1
12	28	1
24	123	2
77	77	1
126	127	1
92	131	1
109	109	1
83	109	1
80	81	1
70	70	1
