56	57	8
106	106	7
63	64	3
37	37	11
100	100	10
97	97	15
103	104	3
66	67	6
73	86	3
101	101	12
95	101	8
94	95	12
49	50	5
20	21	7
57	94	2
53	54	4
105	105	1
35	35	2
60	107	3
89	91	3
69	71	7
90	90	8
60	63	3
25	28	2
73	73	8
58	59	3
113	113	11
61	61	13
94	94	14
32	32	6
90	93	1
74	76	2
30	30	5
62	67	4
108	108	5
32	35	7
81	87	4
39	40	4
85	86	1
79	80	4
83	83	4
80	81	10
58	58	7
92	93	3
44	44	8
79	79	10
95	95	13
90	91	12
24	24	5
73	74	1
48	48	6
70	71	5
62	63	9
55	56	3
79	83	1
35	36	5
57	57	11
41	42	13
98	99	4
104	105	11
40	40	3
107	107	7
34	35	8
55	55	3
82	83	3
92	92	7
45	45	10
42	43	3
111	111	4
25	27	1
50	50	7
103	105	4
51	77	2
60	60	4
22	23	3
71	71	16
54	54	10
70	70	5
48	50	1
46	47	3
77	77	15
59	67	5
42	42	2
74	75	3
75	76	5
63	63	10
105	107	2
85	88	6
34	34	1
48	49	3
56	56	7
59	105	2
98	98	7
69	81	6
109	109	2
49	49	11
102	102	10
93	94	4
64	65	4
59	59	21
26	28	4
57	66	2
104	104	10
31	31	5
42	88	1
75	75	4
63	88	5
99	99	5
68	68	5
88	88	5
30	31	1
97	104	6
64	67	2
25	25	4
43	43	3
47	48	5
24	35	1
26	27	6
68	71	2
67	67	4
82	82	7
65	65	4
96	96	5
87	90	2
87	91	5
114	114	6
41	44	2
41	83	2
21	21	3
64	66	2
42	65	2
29	31	1
72	72	7
73	77	2
69	79	1
82	86	1
28	29	4
110	110	5
113	114	1
64	88	1
64	64	2
84	84	1
62	62	6
72	75	4
76	77	5
66	68	2
33	33	2
23	23	5
50	52	2
96	104	1
57	62	1
108	112	1
28	28	2
108	109	6
72	74	2
104	107	1
57	61	3
22	26	1
86	86	1
82	85	4
36	38	4
31	47	4
91	91	5
72	73	1
78	78	5
50	76	5
63	78	4
88	89	5
51	51	4
109	110	4
37	92	1
35	113	3
83	84	1
87	87	1
39	39	6
37	93	1
69	78	2
67	77	6
63	85	1
74	74	2
99	103	3
106	107	4
68	78	1
111	113	1
112	113	8
102	105	5
102	103	1
47	47	5
62	80	1
84	86	4
52	52	1
101	102	1
29	30	4
93	93	7
49	77	4
89	89	1
62	101	1
71	81	2
64	79	5
38	38	1
98	103	4
89	90	3
31	32	3
66	66	2
42	64	2
37	39	3
99	101	1
36	39	1
87	88	1
80	80	4
46	51	3
73	75	1
57	91	1
69	69	2
75	87	1
24	36	1
93	99	1
62	68	2
81	81	1
53	53	1
61	62	2
89	94	1
103	106	1
81	85	2
37	61	1
46	46	1
57	58	2
76	76	1
92	94	1
24	25	1
101	103	1
29	29	1
32	33	1
40	41	1
64	77	1
27	28	2
27	27	1
75	77	3
44	45	1
50	51	1
103	103	2
20	33	1
82	84	2
105	112	1
36	37	2
69	70	1
41	43	2
36	36	1
42	44	1
107	108	1
