16	16	9
91	91	18
62	62	17
72	72	10
61	61	15
111	111	11
118	118	24
141	142	9
125	129	3
12	12	8
89	94	2
26	26	18
27	27	12
69	69	7
97	97	24
2	5	5
100	100	19
128	128	9
122	122	27
113	134	3
13	13	7
10	10	11
124	125	26
25	27	9
144	145	3
59	60	21
141	141	36
127	128	9
41	41	8
135	135	29
132	140	1
115	125	5
126	126	25
31	32	5
75	78	10
60	60	12
71	72	4
8	9	6
130	132	3
121	121	29
49	51	2
92	94	4
117	118	8
1	57	4
108	140	2
82	82	8
23	24	5
101	101	17
114	115	13
64	65	5
99	99	24
33	33	20
12	16	3
59	59	15
0	1	4
15	17	2
57	57	11
123	123	14
129	129	18
119	125	2
80	81	2
73	73	22
42	42	16
17	17	22
48	48	24
89	89	20
72	106	3
144	144	21
79	79	7
28	30	5
99	101	6
0	0	16
88	88	10
133	134	6
25	25	15
29	29	29
139	139	17
112	114	5
140	140	28
71	71	10
128	129	10
84	93	1
131	131	24
20	20	21
58	58	22
70	83	2
110	110	13
49	49	14
51	52	3
86	88	3
102	105	2
94	94	22
5	5	16
76	76	7
96	96	12
32	32	8
40	41	7
109	117	2
65	65	9
104	104	13
137	137	10
128	133	6
67	75	3
18	18	28
84	98	4
66	66	6
2	3	6
9	15	2
38	39	5
27	29	4
49	50	3
0	20	8
76	139	3
1	1	22
73	75	7
89	90	15
92	92	14
58	61	8
54	55	6
50	50	8
35	35	15
74	74	29
96	97	3
30	30	13
109	109	8
34	34	15
79	80	5
49	52	3
83	132	4
60	61	8
80	80	11
13	16	4
127	127	13
138	138	18
125	125	25
135	137	11
108	108	9
33	57	3
2	6	3
83	83	14
77	82	6
33	65	2
115	115	20
142	142	16
8	8	9
102	102	21
91	92	7
19	49	4
6	6	15
64	64	16
47	47	8
21	21	9
81	82	4
15	15	7
97	98	10
113	113	14
109	110	6
120	120	23
75	75	5
87	90	3
36	36	12
15	43	7
116	120	2
119	131	3
74	103	4
106	106	16
74	79	3
129	130	9
69	97	4
119	119	9
84	84	9
145	145	25
134	135	15
59	61	7
54	54	6
107	107	11
103	104	4
129	131	2
31	33	11
103	103	16
110	141	3
19	19	31
112	112	3
1	39	4
81	108	2
67	67	14
11	11	16
124	127	2
33	37	2
17	38	4
63	63	10
36	37	9
52	52	8
123	124	8
69	70	12
26	27	4
127	129	18
133	139	3
17	18	6
29	30	7
118	119	6
12	13	4
108	111	7
24	24	8
92	95	1
37	37	17
69	73	2
39	50	4
108	109	7
117	117	11
53	55	3
98	140	3
4	11	3
2	58	1
107	108	5
3	5	3
121	123	6
83	96	3
30	56	2
92	99	5
122	123	10
133	138	2
132	135	6
127	139	4
77	78	4
77	77	7
33	35	4
77	108	2
38	40	6
118	131	7
130	130	14
4	4	18
116	119	1
70	71	7
106	107	6
79	109	1
9	13	1
31	35	4
40	40	16
34	65	2
131	132	10
124	126	3
142	143	5
35	36	12
72	81	8
136	137	7
110	111	5
105	105	14
132	132	15
95	96	2
63	64	2
30	34	5
56	66	7
62	66	2
24	25	2
85	86	7
38	41	4
14	16	9
39	40	10
55	55	9
82	83	2
32	33	3
28	29	4
66	67	3
101	103	3
68	69	4
140	142	13
55	85	1
117	119	4
39	39	6
116	117	12
10	11	3
133	133	13
1	2	4
84	104	1
134	134	17
74	75	5
30	31	1
22	22	12
75	76	3
98	104	4
143	143	9
56	67	2
125	127	2
56	56	4
115	116	6
22	23	2
136	136	12
71	82	5
95	95	11
75	80	3
93	94	2
110	139	1
90	90	8
9	10	5
68	68	14
86	86	6
87	87	9
136	138	5
57	58	9
141	144	4
38	38	15
125	126	6
80	123	1
61	65	5
28	28	11
137	138	15
38	66	3
125	130	1
50	51	2
2	2	12
76	79	6
37	38	4
102	103	8
75	81	2
23	27	3
42	52	1
58	59	2
135	136	5
1	11	3
31	31	6
36	66	5
11	34	1
78	78	14
3	10	6
37	39	4
39	41	3
114	116	3
71	97	1
65	67	4
118	123	3
105	106	2
114	114	15
2	10	3
116	116	3
88	91	1
105	107	2
31	57	3
8	12	2
5	25	3
70	70	5
85	85	7
41	48	4
120	121	4
63	65	1
128	130	3
117	135	1
26	28	3
138	139	6
119	130	1
78	79	4
133	135	2
71	105	9
74	77	2
81	81	14
112	137	1
9	9	12
90	91	4
1	21	2
118	120	5
81	140	2
124	128	1
98	99	1
15	16	4
62	125	1
114	118	5
69	71	3
60	90	3
16	17	3
132	138	3
8	18	2
27	28	3
83	108	3
81	104	3
104	105	7
98	98	10
83	84	2
14	15	9
88	89	11
124	124	8
86	87	3
119	124	2
2	4	5
10	17	2
56	64	1
126	127	7
53	53	8
67	68	8
51	51	4
96	98	2
33	112	1
43	43	9
111	112	4
131	134	2
82	86	2
107	111	2
133	137	2
118	132	1
126	128	5
20	21	2
77	107	2
146	146	5
13	14	5
31	34	3
62	63	3
100	102	2
3	35	7
73	81	5
111	113	3
69	72	3
139	140	3
100	101	5
87	88	2
140	141	3
111	116	2
32	35	3
94	102	4
93	93	7
52	56	2
30	58	2
113	114	2
33	56	2
9	14	3
116	118	1
132	133	6
65	66	3
115	117	1
67	69	9
101	102	1
31	61	2
22	27	4
80	82	4
77	96	2
48	49	3
47	49	3
61	62	3
2	24	1
51	53	3
118	133	2
1	9	1
13	17	3
35	65	4
67	72	1
50	53	3
55	56	1
92	96	2
93	96	2
115	123	3
3	3	5
74	81	1
135	138	2
119	122	2
67	105	3
88	90	3
113	117	2
116	123	8
81	109	1
66	87	2
91	93	3
33	36	2
28	119	1
132	137	3
94	144	1
131	135	1
22	29	2
93	144	1
128	134	3
36	56	1
55	66	3
64	137	3
99	100	4
20	22	1
85	112	1
4	10	1
115	118	2
71	98	2
72	84	1
73	74	4
130	138	2
69	98	1
96	104	4
112	113	1
108	112	1
18	19	2
68	70	2
3	9	3
125	131	3
2	9	1
136	140	1
141	145	1
73	105	2
79	82	4
74	80	1
85	106	2
53	90	1
119	120	9
38	68	2
97	99	5
85	92	2
55	64	2
9	52	1
114	117	1
41	43	1
50	52	2
94	96	2
11	18	1
65	68	1
42	54	1
111	120	2
33	34	1
134	138	1
109	137	2
69	74	2
30	57	1
23	25	2
53	54	3
81	98	3
80	140	1
0	53	1
52	53	2
116	122	1
109	140	1
70	97	1
87	89	5
26	42	1
79	81	2
74	135	3
10	13	1
140	143	1
78	84	1
117	124	2
97	105	1
13	40	1
72	90	1
38	90	1
63	66	1
126	129	1
4	5	4
24	27	1
46	46	1
20	41	1
27	61	2
77	81	1
17	19	2
10	51	1
38	42	5
94	143	1
85	128	2
60	65	1
95	98	3
68	103	1
128	132	2
81	85	2
19	20	2
3	34	2
107	114	1
87	132	1
114	125	1
127	138	1
23	23	6
117	123	1
72	85	2
23	31	1
83	131	2
54	64	1
60	62	1
102	129	1
35	55	1
130	131	1
56	57	2
76	104	1
78	80	1
34	35	1
79	133	2
32	56	1
69	102	1
71	81	2
139	142	2
95	145	1
14	14	2
71	106	1
33	58	1
18	20	3
110	130	1
64	129	1
109	111	1
85	104	1
48	50	1
32	37	2
72	73	2
11	56	1
132	139	1
104	106	2
110	113	1
112	129	1
53	91	1
95	97	1
35	56	1
84	97	1
51	86	1
17	40	1
23	26	1
90	93	1
70	72	1
5	64	1
