32	32	11
31	32	8
14	14	8
183	183	10
45	46	2
70	70	3
48	48	31
115	115	16
121	121	14
188	188	7
65	70	2
194	194	17
149	149	11
179	180	6
127	127	18
44	44	4
186	186	7
97	97	8
139	140	6
39	39	14
181	182	1
38	38	7
196	196	21
9	9	11
149	150	13
130	132	1
42	42	15
47	47	11
184	184	6
21	22	11
171	171	30
50	50	17
46	53	6
176	178	9
45	45	20
88	88	7
143	144	6
47	49	4
5	6	12
84	85	3
52	53	6
135	136	8
173	173	15
1	25	3
16	17	7
67	68	10
153	153	10
31	37	3
36	36	12
173	174	6
49	49	10
76	76	4
169	169	22
172	180	6
126	126	4
57	57	10
51	51	8
177	178	6
180	180	19
133	133	14
192	192	9
115	116	3
98	108	4
18	19	4
177	177	14
147	148	10
124	124	12
139	144	1
105	105	4
164	164	9
95	96	4
168	172	4
29	29	3
145	181	4
83	83	6
141	141	7
108	108	12
122	152	5
104	104	8
103	103	15
162	163	10
136	139	3
26	26	14
132	132	10
152	152	18
132	172	9
119	120	10
181	181	12
33	36	6
155	155	13
16	16	9
148	148	7
35	35	11
188	189	8
87	87	9
145	145	8
54	55	12
0	0	9
34	34	10
52	52	11
133	145	3
7	7	6
43	43	4
145	146	14
131	131	8
78	78	12
124	125	7
98	98	7
69	69	6
93	93	11
21	21	6
128	128	14
41	42	5
55	56	2
95	95	11
5	5	3
119	119	11
40	41	6
176	177	7
58	59	2
146	158	3
197	197	6
111	112	4
182	185	6
122	122	13
85	85	6
2	2	7
146	157	1
157	157	17
159	163	1
161	161	8
113	114	7
97	98	1
62	62	4
77	77	6
84	84	3
178	178	17
55	55	12
175	179	3
154	155	5
99	99	12
110	110	12
176	176	10
13	13	10
184	185	3
190	190	14
88	90	3
158	159	1
62	63	1
156	157	6
30	30	18
156	156	10
102	103	1
73	73	9
187	187	12
144	144	8
69	71	2
145	149	3
81	82	3
71	71	8
33	33	9
22	41	2
53	53	20
168	169	9
42	44	5
114	114	3
149	151	4
141	150	1
11	11	3
189	189	9
113	113	1
40	58	1
79	80	8
96	164	3
174	175	12
44	46	8
166	166	3
147	156	2
101	107	6
111	111	2
187	188	3
128	142	3
69	70	4
42	43	7
54	54	9
155	156	4
18	18	10
150	151	10
156	161	1
172	183	7
40	40	8
8	9	1
35	37	3
167	167	14
178	179	2
7	8	5
18	20	7
113	115	3
192	197	1
157	158	15
86	87	3
108	109	3
49	138	2
105	106	2
109	109	7
159	159	4
114	126	6
41	41	14
148	156	3
182	183	10
134	134	10
129	129	4
150	152	2
121	122	5
31	31	7
173	177	1
170	171	4
38	39	11
131	132	1
168	168	15
135	137	1
101	101	6
167	168	6
112	112	10
19	19	7
39	41	1
64	64	9
1	3	4
15	15	4
65	65	2
137	138	2
7	17	5
167	183	2
154	154	9
171	187	4
174	177	1
25	25	6
127	128	8
2	3	1
146	146	10
182	182	9
29	30	1
81	81	3
117	117	6
8	17	3
83	85	5
88	89	3
68	68	1
23	23	2
74	74	2
53	54	4
89	184	2
185	186	2
117	180	5
154	159	4
176	179	6
179	179	12
128	150	3
187	194	2
136	146	1
169	186	1
110	111	4
135	135	12
112	121	3
12	32	1
138	152	3
162	196	2
61	61	3
23	184	2
27	28	1
172	174	2
97	165	7
174	176	1
181	185	3
68	140	5
134	140	3
122	129	1
85	87	1
5	7	4
101	102	4
123	124	4
6	7	3
100	100	20
102	102	9
70	71	4
128	129	3
123	123	22
78	79	4
85	164	1
86	86	2
137	137	7
79	79	1
149	165	2
189	190	5
74	75	2
158	158	7
67	140	2
147	147	1
138	138	9
24	24	5
154	160	3
117	118	5
136	137	1
59	60	1
130	130	5
195	195	8
167	169	5
170	170	7
15	16	12
140	143	3
12	12	4
151	152	1
113	134	4
43	44	7
125	125	3
79	119	1
3	8	3
119	121	1
142	143	2
22	23	3
1	1	3
175	175	2
19	21	2
150	191	1
35	36	2
20	20	4
72	72	6
41	61	2
34	35	4
10	13	3
59	64	1
77	84	2
186	187	2
151	151	7
27	31	4
77	81	4
142	142	12
2	4	4
28	28	3
187	190	2
144	156	2
47	48	1
153	154	4
145	147	1
108	110	1
54	56	3
186	194	1
37	37	3
175	177	1
163	164	3
71	119	3
11	17	5
157	160	2
56	56	14
34	80	1
75	75	2
164	166	1
174	174	6
22	38	3
11	12	3
163	167	1
114	115	7
114	130	1
113	121	2
99	111	1
163	163	13
3	21	4
94	94	8
160	161	4
10	12	1
165	166	7
82	82	6
28	29	7
134	142	1
26	27	3
132	133	3
191	191	9
80	80	8
99	100	1
118	130	1
26	30	2
21	25	4
4	4	1
162	162	4
67	67	2
185	185	1
192	194	1
106	106	4
12	13	4
107	108	2
162	166	1
156	158	2
132	142	6
34	36	2
146	147	2
13	14	5
138	155	1
103	108	2
94	95	6
143	181	2
120	120	6
40	42	3
136	136	2
89	158	3
170	187	2
161	162	3
148	149	2
30	31	4
104	123	1
139	139	4
64	66	2
146	181	3
196	197	2
165	165	2
194	195	1
151	153	3
6	6	3
69	138	2
182	186	1
140	140	3
193	193	11
156	190	4
71	72	1
3	4	3
107	107	5
142	145	2
43	72	3
190	191	4
64	65	1
39	40	2
146	148	3
67	138	1
83	84	3
98	99	1
63	64	4
147	149	1
167	179	2
22	22	1
104	106	2
172	172	5
11	14	1
116	118	2
89	90	1
46	46	5
109	111	2
85	86	5
94	96	2
62	90	1
129	131	1
152	153	2
150	150	7
68	135	4
102	132	3
27	27	2
9	10	3
122	123	1
143	143	2
93	164	1
106	190	2
58	58	3
169	195	3
96	96	3
56	59	3
26	28	4
162	165	3
141	142	3
112	113	1
170	177	5
37	38	2
157	174	1
127	150	1
80	81	3
61	64	3
77	110	1
79	120	1
68	139	1
46	57	1
116	116	3
104	128	2
64	89	3
95	130	1
183	184	1
25	26	1
3	20	1
99	129	2
136	181	1
177	179	1
148	157	1
10	10	2
160	160	3
136	143	1
59	59	3
66	66	2
11	59	1
191	192	2
32	33	2
38	73	2
17	79	2
180	185	2
24	26	1
77	78	1
1	2	1
180	186	1
17	18	2
111	148	2
108	123	1
44	58	1
17	17	4
134	152	2
77	79	2
130	134	1
183	189	1
24	25	1
175	178	1
108	122	3
146	156	1
166	167	1
65	69	1
158	173	2
24	81	2
43	70	1
3	19	3
160	162	2
160	196	1
175	180	1
141	172	1
8	8	1
116	175	1
114	132	1
8	31	1
79	121	1
84	88	1
20	38	1
134	139	2
109	110	2
21	23	1
164	169	2
23	24	2
115	131	1
173	176	2
79	165	2
122	197	1
2	150	1
36	37	1
130	131	1
15	33	1
66	69	1
30	32	1
162	164	1
23	32	1
27	182	1
122	127	1
193	194	1
11	13	1
63	63	1
132	134	1
118	118	1
188	190	3
29	31	1
116	177	1
138	139	1
109	147	1
95	98	1
180	181	1
