10	10	18
167	167	1
172	180	4
151	151	20
116	117	3
193	193	12
125	126	4
127	127	11
9	24	1
155	155	12
61	74	2
129	151	2
46	46	5
22	22	2
112	142	4
99	106	3
150	151	2
105	105	3
128	128	16
148	148	9
130	130	8
156	156	8
79	79	9
185	186	2
137	157	2
37	42	3
71	94	5
195	196	4
110	110	8
153	153	19
30	30	6
179	179	9
33	34	3
32	32	8
56	56	6
196	196	9
185	185	15
184	184	9
123	123	10
141	151	6
20	20	6
50	50	11
134	134	18
109	116	1
11	11	5
65	66	4
168	169	2
66	66	5
116	116	14
172	172	8
21	41	1
111	118	2
145	145	11
13	14	3
24	24	10
140	178	2
176	176	8
155	156	6
142	143	3
117	117	4
181	181	14
9	10	12
76	77	3
125	125	8
147	147	1
124	125	3
94	108	1
31	37	1
7	8	2
15	15	7
95	95	6
160	161	3
63	63	3
108	108	5
17	18	4
14	14	8
141	141	9
186	186	13
71	71	6
33	37	1
47	47	2
194	194	14
25	25	3
181	182	4
52	52	12
119	119	7
41	41	9
12	12	5
184	187	3
103	103	13
172	174	1
39	39	4
113	115	2
57	57	8
43	43	8
2	2	7
180	180	9
103	104	1
124	124	6
54	54	11
69	69	5
131	135	5
127	128	4
44	44	4
196	197	7
152	152	6
171	172	2
4	4	2
89	90	3
13	13	16
163	163	5
3	37	3
171	171	8
38	38	3
169	169	3
191	193	4
15	16	2
21	22	2
136	136	3
28	36	2
81	81	5
19	19	3
96	115	3
166	167	1
120	121	8
157	195	1
25	28	2
4	12	1
22	23	8
48	49	1
58	58	11
80	81	4
37	37	1
70	70	16
182	182	2
173	173	8
64	64	2
27	149	2
129	129	6
114	114	5
24	25	2
3	3	5
28	28	3
43	44	3
42	42	1
149	149	16
124	127	3
0	2	3
45	45	13
113	113	5
98	98	4
132	133	4
94	94	6
114	184	1
17	17	5
183	183	6
145	159	3
186	188	2
48	48	18
74	74	4
26	26	1
84	84	7
27	27	8
192	192	9
157	158	4
45	46	2
88	88	4
131	131	3
177	187	1
112	113	8
81	82	2
139	140	6
7	7	5
1	37	1
1	3	2
178	178	9
16	17	2
36	36	7
197	197	9
187	187	13
61	87	1
149	159	4
73	74	2
34	64	2
80	80	5
77	86	3
133	133	3
161	163	3
30	38	1
111	112	1
177	177	10
61	61	5
139	141	3
59	69	2
110	117	4
77	83	4
23	23	5
84	85	4
122	124	1
188	189	1
127	129	1
189	189	3
154	155	2
150	150	6
168	168	6
74	75	5
93	93	1
29	32	1
112	112	9
170	171	2
64	67	1
109	109	3
61	62	2
73	73	2
134	136	3
191	191	2
68	68	2
138	138	12
25	26	2
138	149	2
94	95	3
175	175	4
186	187	3
166	166	4
33	64	4
18	19	5
31	32	2
6	11	1
111	115	1
9	9	8
128	129	1
164	183	2
51	52	3
179	180	2
135	179	1
119	120	2
160	164	3
38	39	1
58	59	4
150	161	1
27	64	2
188	188	10
146	146	4
164	164	2
97	97	1
16	19	2
187	188	4
101	139	1
168	182	1
107	109	2
47	57	2
174	176	2
146	147	4
148	149	1
170	170	12
190	190	8
189	190	1
56	58	2
32	46	1
174	174	1
48	57	3
9	15	2
49	58	2
69	81	3
165	165	4
51	51	7
159	159	4
126	126	7
115	115	1
140	140	2
40	41	8
145	146	1
120	120	2
173	188	3
182	183	2
108	143	1
99	100	1
54	55	3
21	21	3
122	122	3
189	195	2
34	34	2
1	20	2
64	65	3
54	65	2
85	85	3
18	18	3
96	96	4
25	41	3
9	11	1
144	145	8
1	38	1
8	8	3
174	175	1
28	29	2
5	5	1
151	152	2
172	182	2
178	190	1
19	20	5
7	39	1
53	53	3
195	195	8
138	139	4
183	184	1
61	67	2
64	66	2
29	29	4
31	42	2
110	138	2
135	136	3
144	144	8
72	93	1
50	64	2
29	173	2
157	157	1
171	177	2
130	138	1
158	159	2
49	49	3
149	151	1
97	104	1
6	18	1
10	11	1
67	67	2
121	121	5
164	165	2
90	90	3
36	37	1
70	71	5
51	54	1
107	107	4
14	52	1
160	171	3
143	143	2
40	40	7
62	71	2
126	127	2
120	125	3
102	102	5
55	55	4
112	123	1
96	102	3
2	51	2
104	104	1
173	177	1
148	158	1
179	188	2
78	79	6
65	65	3
96	104	3
165	166	3
143	144	2
134	135	3
172	173	1
177	178	1
29	43	1
154	154	3
10	12	3
142	142	2
132	137	1
15	18	1
119	123	2
15	23	1
35	35	4
76	86	1
13	53	2
1	1	2
162	164	2
4	8	1
132	136	1
118	120	1
78	78	1
14	15	2
117	118	1
0	36	2
77	78	1
169	181	1
69	104	1
122	123	1
16	16	3
108	145	1
193	194	3
157	169	1
118	118	1
4	5	1
47	48	2
59	67	1
111	111	6
75	75	1
158	158	1
172	189	1
101	101	2
117	123	2
100	101	2
42	44	1
114	115	2
9	16	1
132	141	1
145	149	1
158	165	2
130	139	2
114	135	1
32	50	1
28	30	1
178	181	1
158	170	1
8	15	1
13	49	2
37	39	2
4	23	1
53	58	1
3	181	1
106	106	1
112	118	1
5	7	1
136	149	1
159	165	1
178	179	1
182	197	1
183	189	1
4	14	1
161	161	2
139	139	1
156	157	1
70	93	1
113	195	1
4	41	1
162	162	1
0	1	2
137	137	2
9	18	2
69	70	1
135	135	1
160	160	1
186	194	1
31	31	1
156	182	1
132	132	1
108	109	1
