148	148	10
145	145	6
156	157	3
41	41	8
135	136	5
13	13	9
110	111	4
58	58	4
121	121	11
167	167	11
88	88	13
118	118	4
97	97	7
138	138	8
68	69	7
84	84	10
71	74	4
157	157	7
99	100	3
104	105	3
110	139	2
22	22	6
59	59	10
105	109	3
106	107	7
140	141	6
163	163	9
5	5	12
178	179	2
154	154	7
90	90	8
122	122	29
18	20	5
71	71	3
173	173	8
13	16	5
68	68	14
27	27	8
56	57	3
104	111	1
118	119	8
63	63	5
145	147	4
182	182	3
155	155	8
57	57	4
99	99	10
169	170	2
95	95	9
31	76	5
10	10	4
115	115	10
29	29	15
105	105	5
17	17	10
44	44	8
139	160	7
103	110	4
159	159	5
82	86	2
121	124	1
151	151	9
36	36	2
39	39	8
40	41	10
37	46	2
161	161	9
112	112	8
2	2	7
91	104	2
21	22	3
127	127	4
84	85	3
48	77	5
72	72	11
79	79	8
65	65	11
19	20	4
111	111	8
158	162	2
58	59	7
85	86	6
164	164	6
130	131	2
92	92	11
31	31	9
104	104	8
75	75	7
113	113	12
114	120	11
38	38	4
46	47	6
89	89	14
152	153	10
66	69	3
151	155	3
82	82	5
169	169	4
6	6	12
107	108	2
87	90	4
54	54	9
106	147	5
8	57	3
128	128	8
150	152	1
122	123	3
114	118	1
76	77	2
114	117	1
149	150	3
38	39	4
56	56	6
80	80	7
119	119	7
174	175	3
105	107	3
20	21	10
21	21	11
144	144	6
87	87	6
136	136	10
140	140	9
102	102	5
16	16	3
53	186	2
83	86	2
15	16	2
180	181	4
26	44	1
103	103	6
54	66	1
131	146	2
123	123	4
188	188	2
136	164	3
22	56	2
100	100	6
30	31	7
141	141	10
124	124	4
182	186	1
27	29	2
17	24	1
5	7	7
183	183	2
19	21	5
55	55	9
129	129	10
83	83	5
43	43	3
62	92	2
91	96	1
28	44	3
24	25	4
157	158	3
126	127	4
172	175	4
52	52	2
83	84	10
71	72	4
110	138	4
126	134	3
81	81	1
96	96	4
44	58	1
57	59	2
181	181	3
23	23	4
16	17	5
113	114	3
190	190	12
8	15	3
114	114	5
54	56	3
90	91	5
75	76	4
152	152	10
164	165	5
150	151	6
134	136	5
61	89	4
85	85	6
91	94	4
108	138	3
29	32	3
137	137	6
66	66	5
22	55	3
148	154	3
108	109	1
24	24	9
185	189	1
60	61	8
4	4	5
163	172	1
91	92	2
107	109	5
46	46	7
166	166	5
126	126	11
141	143	2
101	101	3
77	77	6
35	35	3
48	48	10
40	40	12
11	37	3
175	175	3
103	111	4
143	143	1
138	139	4
133	133	8
8	8	6
93	93	6
15	15	7
119	142	1
173	176	1
154	155	4
81	82	2
165	165	4
26	27	7
142	142	4
175	176	5
32	32	5
83	85	2
14	15	4
106	106	2
10	79	7
56	90	1
3	3	3
10	80	1
67	67	4
94	94	3
11	11	6
78	79	1
28	29	2
62	62	7
60	60	6
151	154	2
86	86	5
146	146	2
36	47	2
163	164	2
93	94	5
4	7	2
17	21	1
89	93	2
12	17	1
30	34	1
117	117	3
70	70	9
59	60	2
188	189	2
54	55	3
150	150	4
35	36	8
129	139	1
177	180	2
181	182	3
120	120	2
112	114	1
18	18	7
31	32	1
119	120	1
3	87	4
31	40	1
10	11	6
73	73	7
156	156	2
160	160	6
47	76	2
108	108	3
131	145	2
25	25	3
61	61	7
4	5	1
41	47	1
53	53	6
119	143	2
21	52	5
108	117	2
62	63	3
134	135	6
82	85	5
142	143	1
98	98	1
91	91	5
96	98	4
136	137	2
7	7	9
172	173	1
107	107	6
78	78	3
27	43	2
171	171	5
158	158	3
58	75	2
30	30	9
90	92	5
109	109	8
185	188	4
27	28	2
127	128	5
177	183	2
48	78	3
114	121	4
129	142	5
125	125	5
130	130	4
43	45	1
101	102	6
139	139	7
77	78	1
177	177	5
0	0	2
81	101	1
147	147	6
47	47	5
82	84	2
153	153	10
156	179	2
94	96	1
11	12	8
131	131	4
98	100	1
18	19	6
114	119	2
135	135	1
114	115	3
45	46	1
91	98	1
145	146	4
42	42	3
18	72	2
176	178	4
26	26	5
101	104	1
141	142	2
53	54	2
72	74	1
41	42	3
9	12	4
65	104	5
139	154	2
19	19	4
138	161	2
36	37	1
158	161	4
47	48	3
85	87	2
157	163	2
21	37	1
122	125	2
187	188	3
33	33	1
151	152	1
113	145	2
27	37	1
8	40	2
12	13	5
64	65	4
133	134	4
62	66	2
7	40	1
76	76	4
32	33	1
187	187	2
132	135	2
184	184	1
146	147	3
189	189	2
116	116	4
68	87	1
12	12	6
9	9	2
131	133	1
145	149	4
1	1	8
179	182	1
16	47	2
33	35	3
8	11	1
109	111	3
92	94	3
115	116	4
177	178	6
1	4	1
44	45	2
10	48	1
130	142	1
161	163	3
79	80	1
5	9	4
96	116	1
172	172	2
20	20	2
82	83	1
140	159	2
153	160	2
159	160	2
95	96	1
53	57	1
72	73	2
23	26	2
163	178	2
47	52	2
6	7	1
34	36	4
42	44	2
27	31	4
48	59	1
5	6	3
28	28	1
55	57	1
74	74	1
2	3	1
22	24	2
137	138	1
134	165	1
4	38	1
29	33	2
81	85	2
65	68	1
78	80	1
33	34	1
103	112	1
124	125	3
111	118	1
147	149	3
25	55	1
20	22	3
162	162	4
34	35	1
20	65	2
131	132	1
33	36	1
163	179	1
93	99	2
109	110	1
157	183	2
68	74	2
99	102	2
83	88	1
18	47	2
80	81	2
61	62	2
91	95	1
123	127	2
125	126	1
136	139	1
168	168	2
76	85	2
149	149	3
7	39	1
16	23	2
124	126	1
114	132	2
21	43	2
153	154	2
108	110	1
24	41	2
117	118	2
175	186	1
144	146	1
145	152	1
7	48	1
105	111	1
97	98	1
174	189	1
64	104	1
143	144	1
29	30	1
64	64	2
32	34	1
164	186	2
37	37	1
123	124	3
87	93	2
23	40	1
95	113	1
180	180	1
186	186	1
40	42	1
81	104	1
37	38	1
23	56	3
179	179	1
121	123	1
187	189	1
6	48	1
32	71	1
153	157	1
134	134	2
57	90	1
119	141	1
136	138	2
155	156	1
10	12	1
96	97	1
11	14	1
20	54	1
