64	64	10
75	75	15
122	134	4
90	94	2
130	130	36
40	40	22
18	18	20
108	109	16
100	100	26
27	27	45
131	133	8
135	136	5
126	144	1
131	131	46
107	109	5
95	95	19
77	77	14
12	12	10
51	98	1
16	20	6
79	80	13
39	39	23
49	50	6
82	84	11
140	141	6
4	130	3
83	83	7
80	80	27
62	62	30
53	53	21
16	16	25
120	129	2
137	137	12
87	88	3
102	102	22
19	19	39
4	4	12
99	107	1
106	137	1
53	54	8
110	110	10
140	140	9
19	24	3
146	146	3
101	103	6
20	25	5
66	66	32
132	133	16
101	101	25
23	23	18
96	96	19
55	55	13
114	114	14
82	82	7
143	143	32
122	123	11
89	89	16
1	2	15
128	128	26
32	37	3
97	97	10
55	56	8
142	142	23
131	134	7
63	63	26
8	9	9
8	8	16
127	128	16
138	138	7
95	96	7
107	107	15
63	64	5
28	28	36
124	124	30
29	29	24
116	116	15
129	129	27
120	120	23
123	137	1
115	115	5
29	60	6
11	11	18
133	134	4
38	69	3
34	35	13
109	109	13
99	127	10
21	23	2
128	129	6
109	124	10
68	68	18
127	127	26
47	47	4
69	69	7
35	36	6
142	143	3
99	99	18
119	120	5
60	60	6
137	138	8
42	48	6
50	52	6
8	17	5
70	91	4
37	94	2
29	42	3
82	108	1
39	48	2
4	6	1
20	20	12
104	104	24
3	3	15
93	94	12
31	31	5
124	125	15
138	140	6
125	125	16
134	140	2
41	42	14
50	50	9
126	127	4
138	139	5
94	94	11
15	16	10
86	86	4
119	119	19
39	97	2
39	40	5
60	61	4
74	75	6
74	74	29
54	55	6
50	51	13
118	119	9
38	38	30
17	17	24
123	135	5
26	26	17
30	38	2
78	79	3
113	115	1
116	117	5
67	68	5
51	51	12
65	65	9
73	106	5
71	74	2
116	128	4
80	126	1
24	24	14
123	125	7
134	134	19
37	37	14
77	79	9
9	21	3
76	77	10
136	136	6
30	39	2
27	28	6
126	126	30
121	122	5
14	14	16
25	26	12
68	72	6
117	117	25
28	30	3
13	13	12
119	130	3
103	103	25
88	88	15
14	15	3
98	99	5
111	112	5
144	144	21
80	81	10
59	59	14
89	90	4
139	139	11
99	100	17
30	30	6
61	62	4
97	98	7
91	92	6
57	59	3
28	29	3
73	73	8
94	128	1
58	66	8
91	91	9
20	21	8
18	19	13
101	102	11
69	91	1
120	123	1
81	81	14
30	37	5
42	42	24
130	131	3
0	1	3
25	42	1
40	48	6
90	90	10
85	86	2
114	121	1
103	134	2
54	54	22
0	0	12
117	118	9
16	17	19
135	135	20
79	111	2
16	18	4
134	135	4
58	58	11
139	140	4
51	102	3
22	23	7
79	79	5
48	48	20
104	134	1
1	1	11
19	20	2
83	110	2
136	137	14
133	135	3
47	48	3
140	142	5
108	108	7
98	98	8
68	142	2
33	91	1
5	34	4
46	47	3
6	55	3
10	10	9
66	67	8
120	127	4
21	21	19
31	92	1
118	118	16
48	55	2
30	43	1
131	132	6
29	30	4
63	133	2
111	111	7
31	93	3
145	145	10
113	113	15
76	76	10
113	119	4
135	138	4
9	10	6
141	142	11
119	138	1
105	107	4
25	25	15
94	100	2
110	111	5
40	65	4
61	61	11
141	141	12
93	93	17
87	87	9
127	129	5
12	13	5
69	92	4
49	100	2
94	95	4
112	113	8
105	106	10
123	131	3
57	58	3
68	70	5
34	34	7
9	9	5
100	101	22
93	105	2
107	121	4
64	65	4
85	85	10
50	98	2
70	70	12
36	36	9
106	138	2
31	33	3
55	61	1
121	132	1
113	114	2
12	51	2
19	38	2
23	24	4
104	117	2
10	11	2
52	52	8
88	90	1
41	48	4
99	129	4
135	139	4
35	38	1
78	98	5
40	41	5
103	129	6
92	92	2
107	120	3
132	132	17
62	63	10
106	107	5
102	103	16
1	17	3
57	101	3
70	82	2
123	136	1
140	143	3
123	139	4
41	41	13
15	15	10
96	97	1
49	78	3
57	57	9
37	38	5
83	84	6
94	127	2
104	106	7
123	138	4
129	130	8
128	131	2
11	61	1
12	62	3
31	34	2
1	21	1
120	121	2
123	123	21
57	67	1
121	124	1
49	57	2
15	17	1
86	87	3
30	128	4
78	78	12
133	137	2
100	128	5
26	33	1
122	122	13
112	114	4
73	74	3
114	115	4
42	47	2
103	133	3
112	112	5
68	127	4
55	58	3
65	66	2
145	146	3
56	57	3
17	18	6
14	25	3
133	133	15
136	139	1
53	56	7
48	63	2
2	9	3
22	98	3
88	110	3
33	33	10
32	38	1
36	38	1
71	71	10
21	22	4
2	3	3
61	65	5
19	60	2
113	131	2
53	57	3
33	34	2
17	19	3
1	18	2
6	6	7
19	21	1
125	126	6
21	29	1
127	130	3
55	143	1
102	128	8
74	104	2
11	19	3
126	130	2
8	21	3
92	93	5
54	91	3
16	19	2
108	120	4
49	103	2
74	96	1
35	93	1
31	47	3
81	82	5
51	52	1
117	120	5
3	10	3
25	27	1
118	130	2
32	33	1
1	11	1
144	145	3
128	130	4
35	35	4
57	73	5
137	139	6
56	56	2
26	28	5
79	89	1
117	128	3
26	27	12
55	121	4
104	107	1
109	110	3
68	69	3
53	134	1
16	52	1
13	15	2
115	119	2
60	66	1
72	72	4
10	20	1
23	62	2
74	95	4
6	19	1
71	72	2
67	95	2
85	109	2
76	105	3
5	5	9
125	128	1
123	124	3
14	16	1
135	137	1
48	50	3
58	61	2
123	140	2
43	48	1
143	144	7
56	70	1
71	73	1
2	2	5
129	131	3
105	133	4
121	121	5
3	4	1
13	51	2
110	125	1
124	131	1
49	49	10
135	140	2
32	34	3
75	94	1
32	35	3
107	108	1
78	80	3
125	130	1
70	81	3
106	130	4
53	95	2
103	104	2
93	104	1
11	58	2
118	140	3
22	29	1
110	114	1
114	138	1
36	37	5
22	22	11
56	138	1
19	62	5
25	32	1
36	69	2
71	81	2
118	129	2
82	83	1
115	125	1
120	137	1
18	40	1
69	83	1
106	106	2
14	18	1
87	89	2
2	4	1
95	98	1
84	108	1
55	122	3
129	134	2
112	115	1
136	138	2
117	121	2
18	62	4
67	94	1
132	136	2
127	131	4
113	127	2
141	143	2
109	125	2
74	87	2
116	119	1
117	129	3
54	70	1
108	124	4
130	134	1
18	24	1
110	112	1
81	106	2
105	105	1
52	103	3
69	75	2
116	120	3
43	43	3
33	39	2
52	53	2
21	25	1
74	138	1
58	59	2
48	49	3
49	60	1
122	136	2
67	67	4
97	103	2
55	70	1
93	95	1
62	71	1
103	126	1
73	95	1
111	113	1
40	47	2
115	118	4
111	135	1
16	62	2
125	143	1
112	132	1
110	134	1
134	136	2
59	61	1
98	100	1
109	120	1
69	70	7
10	21	1
80	127	2
139	141	1
123	126	2
115	139	1
50	53	2
32	39	1
108	114	1
115	126	1
4	5	2
115	116	1
40	62	2
41	47	1
42	43	1
114	116	1
38	51	2
67	81	1
115	138	1
0	18	2
68	82	1
107	131	1
3	34	1
80	130	3
121	135	1
72	81	1
70	72	2
88	89	1
13	14	1
30	66	1
132	134	2
65	133	1
54	92	1
69	94	1
73	93	1
59	60	2
36	94	1
113	124	2
105	131	1
105	135	1
59	64	1
84	86	2
18	49	1
34	36	1
81	126	1
69	71	1
42	67	1
97	99	1
15	20	1
108	126	1
99	142	2
64	66	1
109	134	1
37	42	1
116	118	1
52	105	1
64	130	1
91	93	1
22	42	1
40	53	1
71	82	1
86	109	1
123	133	1
15	18	1
58	72	1
98	104	1
102	129	1
50	97	2
102	104	1
120	128	1
112	134	1
59	136	1
78	82	1
98	127	1
19	49	1
