28	28	4
100	100	3
97	106	2
52	53	5
47	47	20
23	90	2
50	50	12
45	67	2
51	51	13
54	54	16
30	92	7
45	45	8
25	104	1
82	83	3
77	78	4
35	36	6
34	34	12
43	69	3
23	23	8
25	56	8
88	89	1
56	56	9
80	80	11
83	88	4
27	88	4
98	98	2
41	42	6
89	89	6
102	102	5
21	21	7
53	54	3
70	70	2
107	107	1
26	26	15
96	96	7
78	78	13
78	80	1
60	60	6
39	39	3
37	47	3
94	96	4
86	86	6
26	29	1
35	35	22
24	24	7
40	40	8
41	68	1
70	71	2
74	74	4
33	36	5
40	41	4
20	20	8
97	98	1
93	93	4
22	23	7
37	37	3
68	70	2
80	83	6
38	72	2
72	72	12
48	48	5
33	33	4
74	76	1
83	86	3
79	81	2
73	94	2
90	91	6
22	22	11
71	71	4
42	43	4
43	44	12
82	85	9
90	90	4
31	67	3
42	42	8
67	67	4
55	55	3
54	101	4
75	75	4
83	83	4
88	90	1
73	73	6
87	87	4
25	29	2
52	52	16
84	85	3
58	60	2
64	68	4
104	104	8
69	69	16
94	94	11
68	86	1
25	25	5
32	32	6
100	102	2
83	84	4
68	68	7
76	77	4
23	24	3
78	79	3
30	62	3
87	88	1
20	21	2
22	51	5
45	79	1
36	36	11
52	54	1
67	68	2
43	43	7
23	51	4
53	53	7
59	59	8
76	76	4
78	106	2
79	79	3
41	43	3
64	64	2
101	102	6
29	30	3
65	65	9
79	80	2
29	29	2
91	93	5
105	105	3
37	40	2
33	68	3
88	88	6
79	85	3
93	94	2
30	63	1
82	86	4
95	95	8
28	29	4
24	58	3
26	28	1
99	99	4
85	85	5
25	28	2
26	27	3
49	49	4
34	35	7
31	100	2
89	93	1
74	75	1
97	99	1
32	100	2
33	35	1
44	44	13
44	48	2
61	62	5
47	49	1
24	57	3
24	37	2
39	68	3
72	95	1
88	92	4
19	20	1
36	65	3
46	46	4
46	49	2
27	27	7
41	41	3
65	96	1
45	48	2
84	84	3
91	91	4
41	54	3
80	106	1
51	69	1
81	81	4
94	95	4
97	101	2
59	60	1
80	81	3
46	67	2
62	63	2
31	31	6
25	26	2
77	87	2
27	28	3
75	76	8
63	63	10
76	90	1
100	101	1
29	61	2
56	97	1
62	62	2
61	63	1
71	72	1
65	95	1
91	92	1
95	97	1
86	87	1
101	101	1
56	96	1
31	35	2
89	90	1
45	46	1
35	37	3
103	103	4
71	73	1
83	101	1
97	100	1
61	61	4
58	58	3
46	47	3
65	66	3
48	49	2
50	70	3
66	68	2
104	105	3
37	46	1
66	66	5
32	33	1
23	30	1
98	106	1
53	55	1
57	57	1
65	82	2
94	97	2
70	97	1
24	64	1
82	82	1
34	70	1
44	45	1
37	38	2
90	93	1
66	67	1
55	63	1
55	96	2
76	96	2
99	102	1
92	92	5
96	97	1
69	70	1
33	69	2
47	48	1
34	71	1
56	57	1
23	50	1
46	55	1
38	38	1
67	96	1
65	67	1
20	28	1
66	96	1
25	57	2
73	91	3
96	106	1
71	76	1
25	27	1
43	67	1
70	101	1
38	47	1
60	84	2
26	30	1
71	94	1
37	50	1
106	106	1
63	64	1
38	39	1
102	103	1
49	78	1
93	95	1
42	44	1
82	87	1
