98	98	14
44	44	10
122	122	18
56	57	4
80	80	21
1	2	6
91	91	17
1	1	4
116	118	4
57	58	4
15	18	1
115	116	6
80	109	9
126	126	17
76	76	30
90	90	6
45	62	3
78	79	16
132	132	11
52	52	5
65	65	14
74	91	1
48	106	3
84	84	12
70	70	14
55	55	10
88	89	3
21	21	15
50	50	23
24	25	3
0	0	9
77	115	2
26	30	1
97	97	12
79	79	7
27	28	4
76	90	3
116	117	4
5	5	9
123	123	16
107	109	8
68	108	3
65	66	4
29	29	11
134	135	4
82	82	6
118	120	16
125	129	9
4	4	6
95	95	16
92	93	6
53	73	3
11	13	3
73	73	22
101	101	26
111	111	21
88	88	13
30	30	9
89	89	15
3	4	5
56	56	15
73	115	2
106	129	1
19	19	7
92	92	14
131	132	7
61	83	1
35	47	1
46	46	2
98	101	3
127	128	11
74	74	6
33	33	6
109	110	10
11	11	22
114	117	4
118	118	17
117	117	13
131	131	25
129	129	29
45	45	11
7	9	1
77	77	16
75	75	20
96	122	2
119	120	5
19	20	5
34	34	18
78	80	1
81	109	3
64	64	25
8	8	11
23	23	19
63	68	1
26	26	12
83	83	19
72	73	3
110	110	10
118	122	1
89	90	9
59	59	11
74	81	2
49	49	16
7	7	11
106	106	13
71	71	9
73	105	2
124	125	2
72	72	11
126	129	3
121	121	5
43	43	10
119	119	33
32	32	9
22	23	3
130	130	16
116	116	18
107	110	1
103	103	15
94	94	11
77	79	6
50	53	5
72	126	9
115	115	13
44	107	3
62	62	5
31	31	11
60	60	14
114	114	15
93	93	8
118	119	6
124	124	16
79	81	4
127	127	28
131	133	5
91	92	8
9	14	4
110	111	4
113	114	4
62	101	2
134	134	14
2	2	8
84	111	3
0	2	3
61	61	10
104	104	20
95	96	3
87	87	13
81	87	1
123	133	2
13	13	11
107	107	16
12	12	14
84	85	17
102	102	9
86	86	12
120	120	16
53	91	5
63	63	10
18	20	4
80	81	7
3	3	3
6	31	3
22	27	4
61	78	2
48	49	2
34	35	3
71	96	4
26	27	1
15	23	1
112	112	17
109	109	6
69	80	1
15	22	4
28	29	2
58	59	6
115	118	6
86	112	1
135	135	3
97	123	2
117	121	2
83	111	4
69	70	9
15	15	9
7	13	2
125	125	14
121	122	8
12	13	4
60	61	5
0	3	2
130	133	4
67	67	2
76	115	6
59	91	1
117	122	12
106	108	6
31	51	6
132	133	6
36	36	8
117	118	12
125	126	4
86	87	6
133	133	22
64	67	3
66	66	14
14	48	4
114	115	12
54	54	11
21	25	4
23	26	3
113	113	17
68	69	6
63	66	3
96	96	18
79	109	7
104	105	3
47	47	3
6	6	10
66	82	2
96	97	2
105	105	7
10	25	3
16	16	10
56	58	11
14	14	7
87	88	4
44	92	3
0	1	6
99	99	12
116	124	1
96	114	2
78	78	10
65	67	4
91	97	3
122	124	1
104	107	2
24	24	14
10	10	7
102	103	10
27	27	6
6	7	1
3	5	1
126	127	12
5	6	3
128	128	13
33	61	2
112	131	3
35	35	13
30	32	5
12	24	2
20	20	8
85	85	9
113	115	4
80	106	2
13	14	4
73	74	4
74	75	3
16	18	3
65	98	2
20	38	2
58	58	7
123	124	8
59	62	3
30	31	3
89	93	3
73	135	4
4	5	2
33	62	3
73	104	3
83	84	2
21	36	2
89	91	1
57	57	6
66	67	5
94	95	3
53	53	5
30	35	1
69	69	3
16	17	1
130	131	9
71	74	3
50	89	3
55	58	3
67	68	7
82	91	5
33	34	9
9	11	1
90	93	2
45	53	2
20	112	1
31	32	1
68	70	1
62	64	8
57	59	5
77	78	10
44	59	3
97	100	4
28	28	11
91	93	1
35	36	5
42	42	7
97	122	3
72	133	2
68	68	4
133	134	2
95	97	2
85	86	3
21	22	3
76	119	2
23	24	3
13	21	1
114	129	2
122	132	7
69	82	1
20	21	2
80	87	1
19	38	2
38	38	7
122	123	5
12	27	1
100	100	5
81	81	2
33	37	3
45	110	1
66	69	1
97	99	2
59	60	5
71	72	2
74	104	1
17	17	5
42	43	3
99	102	4
4	6	3
15	20	2
44	45	1
77	132	2
18	18	4
81	89	2
116	121	3
8	15	2
69	75	2
90	91	1
128	129	3
72	74	3
11	26	1
15	17	1
65	95	1
11	14	3
54	55	4
9	10	3
63	64	2
59	92	1
14	21	3
105	106	1
72	105	2
108	108	4
52	53	1
10	50	1
1	3	2
67	83	1
111	112	3
103	104	2
17	20	1
8	14	2
47	48	2
69	81	1
72	78	1
12	113	2
53	54	2
16	105	3
70	76	2
77	106	1
65	96	1
10	11	1
59	97	2
43	44	4
117	123	2
7	14	2
54	59	2
112	115	1
124	126	3
25	25	2
35	105	2
45	106	2
114	116	1
78	97	1
61	84	1
118	123	1
64	68	2
48	53	1
125	131	1
94	97	1
59	123	3
8	48	1
16	19	1
8	51	1
46	114	1
74	115	1
130	132	4
20	22	1
121	130	2
80	110	2
61	62	1
59	96	1
131	135	1
61	92	1
79	85	1
133	135	1
32	34	1
115	121	1
8	9	2
92	112	2
93	94	3
9	9	1
61	91	2
72	109	2
119	121	1
13	15	1
19	113	1
96	100	1
87	89	1
37	37	2
96	99	1
82	83	1
76	88	1
118	124	1
5	43	1
32	33	1
72	127	1
18	19	1
89	114	1
45	49	1
101	102	1
105	108	1
37	106	1
28	32	1
80	131	1
83	108	1
