156	156	9
45	46	2
185	185	15
179	180	10
185	190	2
18	18	2
172	186	4
67	68	13
55	56	4
153	153	12
54	54	9
88	88	10
62	62	5
102	102	6
177	190	1
157	157	7
64	64	3
99	99	4
43	43	6
111	164	1
77	77	5
6	43	2
123	123	4
185	187	2
20	20	2
76	77	2
65	65	2
125	133	2
151	151	6
78	78	5
190	190	5
140	140	5
193	193	14
158	159	4
15	15	6
94	94	1
103	104	2
101	102	5
119	119	2
30	30	5
14	14	3
99	168	4
137	179	2
28	29	1
182	182	8
137	137	5
68	68	5
25	25	5
23	24	2
84	85	4
150	155	1
117	117	10
0	0	5
80	80	6
105	105	4
63	76	1
72	72	1
144	144	3
197	197	7
35	35	3
61	73	4
43	47	1
150	186	2
30	31	4
38	38	4
115	115	4
161	161	8
174	175	4
2	18	6
143	143	5
82	84	2
113	120	4
179	179	5
40	41	6
99	113	7
4	4	6
51	51	3
109	122	1
34	38	5
152	153	1
36	36	1
123	124	2
44	44	4
132	134	1
1	2	4
152	154	1
143	145	3
49	55	2
27	27	5
12	56	1
100	100	3
23	23	3
136	136	4
101	101	2
154	154	4
170	170	6
173	173	4
115	118	3
111	111	3
106	106	5
96	96	4
171	171	5
158	158	8
118	147	3
0	4	3
36	37	4
115	131	4
110	142	4
168	171	1
7	40	1
49	49	4
60	60	2
33	33	3
139	140	5
188	188	2
176	176	10
25	27	1
176	178	1
11	13	3
34	35	3
31	31	4
61	76	5
52	57	2
110	110	3
150	158	3
145	145	1
61	61	3
83	84	8
39	39	6
125	156	7
99	101	3
162	162	1
107	107	8
140	167	4
34	43	3
156	157	1
34	66	1
109	165	3
121	165	3
104	108	3
149	149	8
187	188	3
115	116	2
43	44	2
109	109	4
8	34	2
174	196	2
124	125	3
131	137	3
52	52	7
40	71	3
76	76	2
177	177	7
18	19	1
139	156	1
86	86	1
178	178	3
55	55	2
146	146	3
82	85	9
193	194	3
87	87	4
184	184	7
180	180	5
165	166	1
129	129	1
32	32	3
121	121	9
177	178	3
56	56	2
156	166	2
189	196	8
57	57	2
142	142	5
6	8	1
20	21	4
156	178	2
154	158	2
29	29	6
122	150	1
82	82	3
78	79	1
15	30	3
102	105	1
6	7	1
150	150	2
133	133	2
159	160	1
183	183	2
16	31	2
135	135	8
89	90	3
84	84	2
102	103	2
47	47	2
172	172	2
112	112	1
46	70	2
81	81	4
128	128	8
144	145	2
71	71	3
22	22	1
11	50	2
149	150	2
46	46	7
14	48	1
106	112	1
116	117	1
192	193	1
24	25	4
38	41	2
116	120	1
41	41	2
1	1	1
24	24	4
115	136	2
7	35	1
143	144	1
13	13	4
124	124	4
8	65	4
42	42	4
174	176	2
137	186	1
112	113	1
132	135	1
12	12	2
45	45	2
110	178	1
126	126	1
56	73	1
114	114	2
181	181	4
9	10	2
54	55	4
134	134	2
138	179	2
112	158	1
103	103	1
113	142	1
59	59	4
94	95	1
83	83	2
4	9	1
109	110	4
141	141	3
134	135	3
0	1	4
125	125	2
40	40	3
37	37	3
89	89	2
147	147	4
8	8	2
148	148	1
113	113	1
4	58	2
31	59	2
6	10	1
191	191	4
6	6	2
17	19	1
34	37	1
35	68	1
192	192	2
165	167	1
132	172	3
33	34	1
9	9	8
114	134	1
117	136	2
34	34	2
31	58	3
146	147	1
189	190	1
154	155	2
40	90	2
67	67	2
177	192	1
139	139	1
11	11	1
10	10	2
105	106	1
40	70	3
186	186	4
108	108	3
10	72	1
168	168	5
76	78	1
196	196	1
137	178	2
154	179	5
130	130	3
175	176	1
38	39	1
35	41	1
175	182	1
79	79	1
130	131	2
163	163	4
6	73	1
32	54	2
120	120	2
8	64	1
145	148	1
46	64	1
139	151	1
77	78	1
153	154	3
190	191	1
21	21	4
159	159	1
189	189	2
187	187	1
188	190	2
161	162	1
62	67	2
148	149	1
162	163	1
108	109	1
60	62	1
69	69	1
34	36	1
117	133	1
163	164	2
127	127	1
179	189	1
138	150	1
4	19	2
148	154	1
194	197	1
137	139	1
115	152	1
26	26	2
166	166	2
98	98	2
101	147	2
162	182	1
152	152	1
185	188	3
16	16	1
167	168	1
19	19	1
38	64	1
109	155	1
114	115	1
184	185	1
164	164	1
158	181	1
8	60	2
186	197	1
194	194	1
186	188	1
174	174	1
61	65	1
