71	75	1
95	96	2
91	96	3
112	116	3
19	20	2
130	130	7
124	135	3
111	111	4
135	135	10
107	107	1
102	103	5
128	129	7
85	85	9
74	75	3
73	74	8
28	28	10
4	4	4
105	108	2
109	109	10
127	127	9
21	21	2
133	133	6
25	27	3
19	27	2
110	116	2
83	83	7
96	96	6
118	118	9
134	135	6
36	36	4
88	90	1
71	74	2
126	126	9
118	119	4
13	13	6
132	132	4
101	102	2
108	117	1
121	121	6
1	1	4
75	77	6
113	114	3
122	125	1
120	121	5
2	2	7
0	1	3
124	124	7
137	139	2
93	94	1
27	27	2
98	99	2
124	125	7
79	79	1
100	100	7
29	29	6
137	137	10
128	128	10
18	18	4
89	89	16
28	30	5
111	126	1
74	74	9
123	123	11
127	138	2
98	98	3
84	84	6
120	120	4
101	101	4
88	93	4
100	101	2
117	118	6
92	94	2
72	72	5
16	16	3
104	104	7
125	125	4
94	94	5
93	102	1
81	81	5
71	71	3
92	103	3
90	90	7
81	82	2
13	15	8
98	100	2
116	116	3
11	12	3
112	112	5
137	138	2
104	105	1
93	93	11
99	101	2
19	19	7
140	140	8
110	110	5
32	32	4
126	129	2
122	122	15
125	126	1
77	77	10
134	134	11
129	129	7
119	122	2
26	34	1
127	136	1
113	115	1
4	6	4
95	95	2
38	38	1
73	75	3
73	73	7
72	73	5
71	72	2
93	101	2
12	12	2
138	138	2
128	136	3
77	82	4
17	17	3
114	114	3
123	135	1
122	124	5
75	75	7
108	108	3
99	99	3
89	97	1
102	102	7
14	15	1
126	134	1
79	104	1
87	87	2
96	109	1
112	115	3
92	101	2
15	17	2
91	94	1
76	104	1
23	24	2
16	17	2
123	134	2
78	79	2
136	136	1
79	83	1
121	122	4
91	91	4
129	130	3
20	20	1
131	131	13
5	6	2
128	138	2
6	6	5
86	87	2
80	81	2
26	26	5
122	123	2
10	11	3
7	8	4
129	132	1
112	119	2
131	134	2
109	116	1
7	7	7
96	116	1
88	88	1
17	19	1
0	0	2
105	106	4
4	5	2
119	119	2
86	88	1
130	136	1
131	133	2
23	23	1
35	35	4
8	8	1
92	92	3
86	86	2
114	115	4
82	82	2
94	95	2
81	101	1
131	137	2
139	140	1
129	134	1
115	115	1
126	140	1
119	121	1
85	87	2
106	106	1
81	83	2
108	115	3
107	122	1
79	80	3
117	119	1
97	98	1
125	140	2
0	2	1
110	111	4
107	109	1
85	86	1
86	92	1
88	89	1
109	135	1
123	127	1
123	124	3
15	19	2
131	132	1
79	102	1
113	113	1
112	113	1
85	88	1
82	101	1
32	33	2
22	23	1
76	86	2
34	34	2
24	25	1
89	96	1
77	78	1
98	130	1
9	10	2
78	81	1
27	29	2
119	120	1
108	116	1
4	22	1
109	110	1
118	123	1
37	38	2
97	97	1
78	78	1
74	78	1
38	85	1
103	104	1
108	112	1
22	22	1
71	76	1
12	96	1
105	107	1
3	3	1
118	134	1
