3	7	9
131	146	1
15	15	26
55	56	3
165	166	14
107	161	2
155	155	41
36	51	2
155	162	2
119	119	40
48	48	42
124	124	22
58	58	20
75	76	2
64	65	7
156	167	5
138	138	16
103	104	13
105	106	21
65	65	5
184	184	31
182	182	27
188	188	27
41	41	18
113	132	5
42	44	2
171	171	36
129	129	33
57	113	1
89	90	13
169	171	1
44	44	23
21	21	19
155	156	12
73	75	4
0	0	9
135	136	8
194	194	39
176	178	7
68	68	11
118	118	18
116	116	29
128	128	44
14	14	29
88	88	14
174	175	11
130	130	26
9	178	1
117	117	37
32	32	25
69	70	5
104	104	17
181	181	32
45	46	13
161	161	21
100	101	16
3	4	10
40	43	2
9	10	5
180	190	9
76	76	27
177	178	3
69	69	11
54	55	17
168	168	24
171	185	3
63	63	13
44	62	6
183	183	26
11	12	7
133	142	4
192	192	23
185	186	9
177	177	25
93	115	1
49	49	17
109	109	33
153	153	27
47	47	26
50	50	18
23	23	13
9	48	2
158	158	28
154	155	10
154	191	6
181	182	11
148	148	15
9	54	7
185	185	40
83	83	13
120	120	31
157	157	45
159	159	28
127	128	5
114	115	18
67	67	19
5	9	4
179	180	23
19	19	21
7	7	31
147	149	2
5	130	6
172	181	7
161	166	1
146	147	18
187	189	4
53	53	11
147	148	19
36	50	2
146	150	3
64	64	14
142	142	15
150	150	38
123	123	15
25	25	36
132	132	16
111	114	1
155	183	1
172	175	4
178	179	2
151	151	19
55	64	3
105	107	3
175	175	18
38	38	26
193	193	23
149	149	38
16	16	17
121	121	36
121	131	2
88	90	4
152	170	4
130	131	5
179	191	1
133	134	16
54	66	1
109	110	20
158	159	14
37	37	11
110	110	18
58	59	14
17	179	5
51	51	33
115	115	16
22	22	9
126	126	24
160	161	7
39	40	18
132	150	2
184	185	8
141	141	16
187	187	35
187	188	18
67	80	4
149	171	6
30	46	3
17	17	17
169	169	27
152	175	5
132	133	10
79	79	14
171	195	3
133	153	3
146	146	15
179	179	33
125	126	6
4	4	10
148	150	2
5	24	4
102	162	2
93	97	1
30	32	5
15	21	1
138	140	9
106	107	12
178	178	21
117	118	14
61	61	21
34	38	8
172	173	4
3	6	4
35	35	38
111	111	13
178	181	6
24	24	23
34	34	10
73	74	6
62	64	6
166	166	31
94	94	23
64	67	2
7	176	1
170	185	1
186	186	21
97	98	4
170	171	16
106	117	3
57	57	18
163	164	13
112	112	21
108	108	25
42	63	6
10	10	16
10	11	9
189	189	38
140	140	13
42	42	15
8	28	5
165	165	24
101	102	6
119	139	1
36	36	18
133	143	1
26	26	23
8	19	11
39	39	19
173	173	28
136	136	20
171	184	3
196	196	29
28	31	2
182	183	10
26	58	5
2	3	4
2	19	2
146	148	3
151	152	17
173	181	3
189	193	1
86	90	3
62	62	6
133	137	6
11	11	13
126	127	12
22	58	4
132	144	7
99	99	18
147	147	38
175	176	10
50	51	4
191	191	30
155	157	5
16	17	9
83	84	5
151	153	5
97	97	16
37	58	1
157	172	2
107	107	16
101	101	15
144	159	2
3	5	5
176	176	19
127	127	20
110	115	2
139	140	10
84	85	5
164	164	29
108	110	1
45	45	23
66	66	11
10	13	7
162	162	15
156	156	26
128	133	2
1	1	5
134	135	4
100	103	3
176	177	18
160	160	24
124	127	3
23	25	6
163	163	19
173	174	13
193	194	14
75	75	9
98	116	1
170	186	4
174	174	14
80	80	13
20	20	11
190	190	27
28	29	1
140	143	9
33	33	17
2	2	16
134	134	18
159	168	5
52	52	28
0	3	2
87	87	10
90	95	3
6	7	5
48	49	15
72	72	11
56	67	5
53	55	5
81	83	2
124	125	14
59	59	30
98	98	4
95	97	7
8	22	4
123	126	8
104	106	1
29	29	23
182	184	5
24	25	10
53	54	6
39	58	12
29	53	1
105	118	6
66	67	2
105	105	14
112	114	3
33	35	4
9	151	3
131	132	4
169	170	6
133	150	2
192	193	15
5	6	19
140	144	1
145	145	35
29	30	6
81	81	14
122	122	37
170	195	2
170	170	30
197	197	14
12	12	17
10	42	5
30	30	26
71	71	21
1	4	6
144	158	4
191	192	9
152	153	10
125	125	7
172	172	23
166	168	5
14	185	2
38	59	1
135	135	20
9	9	23
103	103	21
4	5	3
195	195	19
71	84	1
111	112	4
131	131	16
143	143	19
180	192	3
188	189	12
21	22	10
96	98	3
134	171	3
129	149	2
72	73	11
18	179	8
67	68	7
194	195	3
20	22	13
31	31	13
160	166	1
59	62	4
133	133	24
106	118	2
154	154	23
86	86	13
159	161	5
146	155	2
63	64	3
54	56	4
149	150	18
156	158	3
50	68	4
168	169	17
171	172	8
99	100	11
76	87	2
104	114	1
31	38	1
93	93	7
180	180	17
153	154	8
162	163	11
22	23	4
156	157	15
8	8	24
141	169	7
31	46	4
13	13	8
56	65	1
105	166	2
156	193	3
140	184	1
102	102	18
108	116	4
27	27	10
96	97	8
37	77	2
106	106	9
159	160	9
33	37	3
196	197	10
18	18	14
3	3	9
9	53	4
164	166	8
102	141	2
14	195	3
57	58	5
119	138	1
118	119	15
8	178	1
161	162	10
152	152	15
116	118	21
17	58	3
173	176	8
12	42	2
40	40	27
134	166	3
123	143	5
95	95	4
32	33	7
40	70	2
183	184	9
86	87	7
114	114	15
37	39	2
43	44	11
135	140	3
17	19	6
163	165	6
59	60	10
83	86	1
70	71	6
138	144	3
78	78	12
124	143	3
77	78	13
143	144	2
104	107	1
143	158	5
40	41	10
141	142	2
70	70	8
8	175	1
134	156	2
138	169	1
148	149	18
108	117	4
9	45	5
56	76	1
160	164	3
16	22	1
7	24	6
144	148	3
147	174	8
167	168	15
107	108	4
76	88	3
140	142	1
102	103	3
57	112	3
9	13	1
151	182	1
5	7	9
172	174	2
87	88	5
165	167	7
186	187	6
80	86	2
69	81	7
5	152	1
137	137	7
136	166	1
113	113	13
134	141	4
5	39	1
43	63	4
8	176	2
65	71	2
112	115	2
15	16	4
168	179	2
131	143	4
139	139	8
116	138	3
167	167	7
133	151	1
42	58	2
189	190	10
56	58	3
27	31	2
89	89	7
172	176	3
43	43	14
128	149	4
71	83	3
148	155	1
164	165	10
121	122	5
131	141	4
55	55	16
15	53	4
36	37	18
112	113	4
12	13	3
27	29	2
53	57	2
96	96	12
20	21	5
40	54	4
148	174	3
144	146	3
193	195	2
28	30	7
139	144	4
157	159	2
153	177	3
137	139	2
42	43	10
10	53	2
27	61	2
13	14	14
112	160	4
120	121	3
145	148	4
44	45	1
65	110	3
109	115	2
102	106	1
34	35	19
187	196	4
134	160	1
71	72	7
100	100	21
15	28	3
157	158	17
5	25	5
81	84	4
6	6	5
195	196	6
141	143	1
53	56	6
29	57	1
122	123	6
39	46	3
144	144	7
106	115	4
130	139	1
22	24	3
56	59	8
70	72	3
103	159	1
154	181	1
56	56	7
175	177	6
189	192	5
157	168	1
152	183	3
55	66	3
138	141	4
68	70	2
114	125	2
133	145	4
31	32	8
54	54	16
172	182	2
159	162	7
108	109	4
150	154	7
164	167	2
145	146	4
117	137	3
8	9	10
151	180	3
180	181	3
135	137	2
150	170	4
9	14	2
156	183	1
47	57	2
84	84	11
158	160	6
94	97	2
136	165	5
9	11	5
181	192	1
175	178	2
108	119	3
10	40	3
19	179	1
160	171	3
156	168	6
94	95	6
34	37	2
77	77	7
46	46	9
46	47	5
123	124	7
135	156	1
23	24	2
105	108	1
14	15	3
82	82	7
122	127	1
44	53	1
0	1	6
8	177	3
159	165	2
184	186	3
42	62	1
74	87	3
37	38	2
162	166	5
27	30	1
177	179	1
170	180	1
63	67	6
144	145	8
159	179	3
74	75	6
64	76	2
62	63	2
129	169	2
111	129	1
18	19	6
190	191	8
188	195	1
74	74	7
128	141	4
110	111	1
15	193	1
6	40	1
173	175	7
118	121	4
38	43	2
152	174	7
36	193	1
10	43	1
1	2	5
104	105	4
38	39	2
35	36	2
150	151	1
19	20	8
82	84	8
190	192	9
6	41	1
129	147	2
99	113	4
36	61	1
130	134	2
115	116	2
116	117	10
17	180	3
117	134	3
85	85	4
65	67	4
119	121	9
28	28	12
134	136	2
65	68	3
101	104	3
136	140	4
179	181	7
81	82	7
5	179	1
30	31	7
170	184	1
157	182	3
19	21	1
129	130	4
113	114	2
172	177	6
151	178	2
56	69	1
64	111	4
27	37	3
83	85	2
66	74	3
131	134	1
147	173	3
37	50	1
88	89	5
73	90	3
5	8	1
149	175	5
73	73	2
183	194	1
111	193	1
146	162	3
154	193	2
6	25	3
8	20	3
13	15	1
0	131	1
40	42	2
19	23	3
180	191	2
7	25	2
113	116	2
190	196	4
26	37	2
150	152	2
146	160	1
90	90	7
166	167	3
161	163	3
127	167	2
140	141	2
38	61	2
94	96	7
27	28	3
150	173	1
7	8	4
76	77	4
183	185	1
143	157	2
9	23	2
67	81	1
106	119	2
147	152	1
106	108	4
39	59	2
6	177	2
25	26	4
187	193	1
132	134	3
149	172	2
23	56	2
105	142	2
138	164	2
51	54	4
25	27	3
0	2	4
177	184	2
129	131	1
0	130	1
103	106	2
71	73	4
109	131	1
156	166	1
145	171	1
5	177	1
151	172	3
7	9	1
17	57	1
52	53	4
157	163	1
154	190	2
4	7	3
180	184	1
10	12	4
161	164	4
116	121	4
60	60	1
82	83	1
153	158	2
30	45	3
74	83	2
47	48	7
4	38	1
39	45	3
154	192	1
31	45	1
188	194	2
136	175	1
55	111	1
141	168	1
98	115	1
117	136	1
73	76	2
18	180	5
79	80	2
172	186	3
3	8	1
7	177	3
162	167	2
3	23	1
29	56	1
180	182	2
146	149	1
24	58	2
26	31	2
110	112	4
186	188	4
189	191	4
16	27	1
181	184	4
128	129	5
112	117	1
171	196	2
68	79	2
147	175	1
150	172	2
181	187	1
107	115	2
93	94	6
58	62	1
61	62	5
127	166	1
153	183	1
26	27	1
118	137	1
151	173	1
20	178	2
100	102	2
67	76	3
105	115	2
18	20	2
11	43	2
152	181	1
119	122	1
125	127	2
18	21	1
157	160	1
73	83	3
41	54	2
6	17	2
55	65	2
44	60	1
8	49	1
34	36	4
130	140	1
155	182	2
170	172	2
7	39	2
42	53	1
182	189	2
143	145	1
132	160	1
55	67	1
7	19	2
60	61	3
76	86	3
16	18	3
20	153	1
147	150	1
5	5	1
116	137	3
34	51	1
184	188	1
111	130	1
0	40	1
13	44	2
40	44	1
4	44	1
60	62	1
150	174	1
174	177	1
4	15	2
171	183	1
162	168	1
83	87	1
1	130	1
168	180	1
41	43	1
35	58	1
18	22	1
147	177	1
79	85	1
56	57	2
174	179	1
96	99	2
151	181	1
161	168	2
105	117	1
123	127	2
118	135	2
130	147	1
133	136	2
109	130	2
157	171	3
16	58	3
102	115	1
54	67	2
24	55	1
134	154	1
155	191	1
16	179	1
98	99	1
46	114	1
163	167	2
80	81	3
187	195	1
153	156	1
17	23	1
16	59	2
2	4	1
124	130	1
139	147	1
24	26	1
136	138	1
25	58	1
65	111	1
24	166	1
185	187	2
134	169	1
28	61	1
78	93	1
0	22	1
97	142	1
129	145	1
28	38	1
68	109	1
131	135	2
94	171	2
150	153	1
21	24	1
20	26	1
4	6	2
107	165	1
137	146	1
29	31	1
185	189	1
167	179	1
159	178	1
121	130	2
9	176	1
132	141	1
25	35	1
1	5	1
171	186	1
45	51	1
54	60	1
118	146	1
1	3	1
138	139	2
119	137	1
104	113	1
76	193	1
11	13	1
102	114	1
17	24	1
51	79	1
133	148	1
24	27	1
16	29	1
29	111	1
114	129	1
90	96	1
102	113	1
105	160	1
