27	27	18
129	151	1
135	146	2
73	73	19
66	66	8
78	80	5
24	25	8
21	22	11
25	25	6
103	116	3
15	17	4
100	100	8
41	41	24
18	19	12
4	4	15
145	145	13
24	57	1
129	153	3
97	97	10
36	36	7
30	30	24
83	106	2
74	75	4
35	35	12
22	24	10
176	176	6
129	129	17
19	20	5
90	91	7
156	156	14
43	43	11
122	122	7
79	81	1
50	88	3
103	105	7
112	130	1
37	37	25
50	51	11
167	170	4
88	88	2
121	122	7
111	156	3
23	27	1
93	93	5
171	174	1
82	82	11
101	101	4
179	179	7
131	131	11
129	130	10
25	30	2
44	44	17
66	67	4
45	57	1
55	55	3
147	156	3
43	44	10
169	169	7
33	35	7
20	20	11
151	151	5
163	163	7
73	75	1
59	64	2
165	165	7
41	42	7
24	26	2
56	57	3
14	23	5
112	112	15
159	160	2
94	94	12
40	40	13
35	73	3
137	137	9
5	5	12
109	109	7
40	41	11
77	77	7
18	18	11
110	110	19
1	2	6
124	152	3
107	170	4
116	116	5
64	64	12
84	84	10
173	173	14
31	31	15
172	172	7
154	154	8
105	105	2
152	152	7
21	114	1
132	133	3
144	153	1
122	124	3
148	148	11
79	80	5
2	4	3
28	29	1
26	26	9
32	43	1
73	81	4
29	29	8
9	10	6
14	14	25
109	114	6
88	89	5
132	132	8
173	174	4
127	128	5
81	84	2
64	65	1
130	131	3
5	36	11
141	141	12
61	74	2
3	3	13
180	180	10
63	63	8
147	147	17
145	155	3
117	117	5
100	101	7
10	10	18
127	162	2
150	151	3
11	15	3
123	124	5
19	21	7
71	71	13
17	17	14
95	96	2
1	10	5
108	109	6
95	95	7
33	33	16
55	56	10
91	91	1
22	23	9
29	30	8
50	81	1
1	6	1
60	60	13
177	178	7
167	167	14
160	164	1
111	111	9
161	161	7
37	39	3
130	130	5
34	36	1
149	149	24
38	38	13
162	162	8
64	83	6
148	149	5
174	174	10
141	143	8
87	87	7
0	0	14
118	124	2
114	118	2
89	99	4
32	35	1
62	66	4
117	157	2
31	64	2
175	175	15
6	10	2
68	68	10
24	31	5
2	2	11
30	31	6
150	150	5
21	21	9
2	10	5
127	127	9
137	138	6
85	85	6
136	136	8
15	15	21
138	138	5
79	79	7
166	166	5
135	135	5
93	176	3
153	154	4
164	164	9
131	132	4
42	42	13
85	87	2
16	16	17
110	163	2
7	13	4
143	143	8
171	173	1
25	38	5
14	20	1
42	80	1
160	160	6
24	29	3
80	80	8
119	141	2
13	13	20
151	153	7
12	51	3
114	114	18
1	11	3
108	108	10
178	178	7
28	28	12
8	9	11
106	108	2
127	161	2
136	141	4
168	174	2
133	154	1
4	11	1
103	155	1
54	54	12
171	172	5
155	155	4
91	93	5
32	32	12
106	106	6
30	34	5
130	154	1
14	15	5
112	113	1
31	37	2
134	134	6
59	59	3
115	115	5
114	115	7
8	12	1
158	158	11
142	143	9
10	13	1
10	11	9
96	96	6
161	162	5
53	53	5
9	12	5
34	34	10
161	165	4
32	34	3
131	133	1
11	13	3
80	123	2
3	10	2
119	120	7
1	1	9
57	57	3
56	56	12
3	9	9
140	146	3
124	159	9
25	26	4
74	74	6
163	170	4
61	72	4
164	166	4
77	85	1
39	39	3
2	3	3
120	128	4
106	109	1
96	97	3
165	166	4
55	58	2
159	159	5
71	72	1
125	125	7
9	9	13
42	43	1
3	7	1
153	153	5
77	78	1
170	171	3
5	6	7
99	99	8
168	169	7
31	32	10
75	76	1
140	140	12
113	129	3
72	72	7
107	107	2
54	70	1
106	112	2
9	148	2
91	92	4
142	142	4
74	76	2
4	6	3
11	11	12
100	119	6
118	145	2
6	9	2
177	177	3
5	7	1
21	26	5
12	12	6
76	76	4
0	1	2
23	26	1
83	83	9
26	27	4
24	24	8
57	133	2
51	51	5
17	34	1
6	7	1
4	5	8
20	26	1
146	146	3
92	92	4
160	167	1
123	123	5
119	151	1
89	89	7
178	179	2
67	83	1
110	155	1
67	67	2
18	25	1
128	128	3
101	130	2
6	6	11
120	120	9
167	169	6
119	121	3
118	119	3
124	124	3
11	12	7
126	126	8
149	168	1
121	155	2
173	177	5
16	22	2
54	55	2
100	152	3
27	29	2
126	128	5
65	66	2
125	131	2
84	85	1
63	64	3
167	168	2
90	90	6
5	11	2
157	157	5
15	16	2
126	129	2
45	45	6
36	37	7
7	10	1
75	75	6
91	131	3
139	139	5
16	19	4
52	53	2
8	8	11
5	37	2
108	173	2
106	107	1
122	123	2
147	148	4
144	155	2
170	170	1
117	119	4
26	30	1
81	81	3
39	40	6
24	38	1
91	94	1
20	29	1
143	157	2
74	86	4
125	130	5
60	61	4
27	28	1
135	136	1
145	154	5
133	133	7
126	130	4
9	40	2
82	84	4
152	154	2
118	158	1
111	112	2
5	20	5
95	97	3
103	103	3
104	104	6
20	22	1
22	22	7
170	172	1
8	11	3
0	27	3
23	24	2
4	25	3
81	85	1
144	144	3
20	21	3
76	80	4
127	156	2
62	62	2
125	157	2
111	127	2
15	18	2
19	19	2
61	61	4
108	170	2
136	137	2
59	61	1
68	71	1
3	4	3
44	45	9
31	35	4
126	163	1
70	71	2
149	174	3
118	141	2
125	127	3
62	75	1
145	150	2
87	88	3
7	40	3
98	102	3
51	99	3
16	17	1
6	31	5
143	146	2
168	168	10
76	77	4
37	38	3
32	33	7
23	23	10
179	180	2
97	98	1
79	85	1
107	162	3
6	38	1
158	167	3
93	94	1
172	173	1
78	136	1
150	163	2
58	58	2
54	132	1
149	175	1
98	117	1
66	71	1
102	142	3
29	59	2
105	109	3
83	84	5
91	132	1
12	13	7
84	86	1
57	59	2
25	29	1
19	22	1
26	29	4
86	105	1
119	153	1
139	140	2
98	98	3
120	121	5
3	46	2
89	108	1
119	119	1
169	170	1
50	76	1
30	59	3
150	154	1
18	39	2
67	68	1
14	16	1
9	11	1
128	140	2
53	55	2
7	7	1
115	116	4
103	104	2
135	143	1
21	64	2
160	162	5
80	81	4
102	104	2
133	134	1
53	54	4
139	150	1
26	28	1
108	157	1
149	150	1
65	65	1
4	9	2
13	15	1
7	9	2
64	66	1
12	23	2
41	43	1
77	80	1
15	31	1
2	5	3
147	150	1
92	93	1
78	78	4
177	179	3
174	176	1
103	127	1
30	100	1
26	57	1
159	168	1
166	168	1
154	155	2
4	13	1
157	158	1
124	125	1
50	80	1
77	79	1
117	156	1
3	43	1
145	146	2
33	34	1
121	121	2
52	52	1
143	148	1
176	177	2
136	140	2
118	157	1
29	99	1
49	51	1
170	174	1
92	94	1
62	63	1
111	147	1
21	25	2
144	157	1
10	15	1
81	82	2
104	105	2
151	152	2
161	163	1
28	31	1
164	165	2
15	26	1
149	167	1
101	102	2
102	102	3
171	171	1
165	167	1
58	80	1
162	166	1
110	111	2
18	20	1
139	141	1
10	23	1
150	165	1
113	113	1
152	161	1
88	97	1
