80	80	11
43	43	26
122	122	11
101	102	6
25	26	11
49	49	18
1	1	24
90	91	11
102	103	16
96	97	2
53	54	4
66	123	5
55	55	8
84	84	23
48	48	18
112	112	26
103	103	14
2	3	5
58	58	15
41	42	14
45	46	7
108	113	4
42	42	6
15	15	12
124	125	6
105	106	12
98	98	18
44	56	3
81	81	11
97	97	13
102	102	11
6	6	19
104	104	23
100	101	10
56	56	21
92	118	12
115	115	15
43	57	1
83	83	22
47	47	10
75	75	26
105	105	7
17	17	19
19	21	5
127	127	7
41	41	14
25	25	10
95	95	6
93	107	2
63	63	12
129	129	12
90	90	20
54	54	28
98	99	4
58	59	5
7	7	3
47	48	14
8	8	15
21	21	19
109	109	27
106	106	21
71	71	8
86	86	10
88	88	17
108	110	3
89	89	10
61	63	1
45	45	29
60	60	11
51	51	9
69	69	8
59	59	16
54	55	11
45	85	3
119	122	3
5	6	8
128	129	2
112	113	3
95	112	4
44	45	2
120	120	10
101	101	22
107	107	10
131	133	9
108	109	10
96	96	26
92	93	9
123	123	9
125	129	3
9	99	3
14	14	8
111	111	5
18	19	3
99	125	1
26	27	6
31	31	12
13	21	1
45	47	17
52	117	6
14	15	8
34	39	3
117	117	14
124	124	13
83	84	12
6	7	9
77	77	21
94	94	12
43	87	3
11	11	7
56	57	4
17	19	4
51	52	6
114	118	1
33	33	12
50	50	9
64	64	15
27	30	3
59	60	3
68	80	4
59	61	5
94	95	11
40	41	2
52	52	13
130	130	9
15	17	3
19	49	1
131	131	15
66	81	3
121	121	4
64	65	3
5	5	8
65	65	13
107	108	1
71	72	6
10	12	2
92	92	20
0	0	8
128	128	7
110	111	7
4	5	11
79	84	3
126	126	14
91	91	20
52	53	14
121	122	5
126	127	4
3	4	13
9	9	7
28	28	10
100	107	1
125	125	15
46	46	17
43	44	2
12	12	5
125	126	2
93	93	26
68	68	8
40	40	15
78	78	21
102	107	2
106	107	4
5	30	1
39	39	23
108	108	17
114	124	2
10	10	10
99	114	2
4	7	3
67	67	14
0	4	2
100	100	27
33	34	3
76	76	15
86	88	9
119	130	4
11	12	4
70	70	20
78	79	3
97	98	9
13	13	13
14	16	7
72	73	9
82	82	14
119	119	16
13	17	1
113	113	8
60	62	3
61	61	8
92	119	1
130	131	1
131	132	7
97	130	4
118	119	4
9	11	2
61	62	3
66	66	11
107	124	3
20	20	14
119	120	10
5	31	3
85	85	9
42	43	3
110	110	14
3	3	5
72	72	6
99	99	10
77	80	2
80	82	3
7	61	1
19	19	5
118	118	6
30	30	14
87	88	9
51	53	4
9	55	2
18	18	3
65	78	3
23	24	4
86	87	5
79	79	8
110	122	4
96	99	2
17	24	4
62	63	8
88	90	2
4	4	7
65	82	2
14	22	2
114	114	14
13	14	15
95	96	10
32	34	5
85	86	4
109	111	3
109	113	1
28	29	2
12	13	5
99	126	3
63	76	1
90	106	1
4	8	2
79	83	1
117	118	9
38	39	5
33	39	8
44	44	15
91	92	3
114	116	2
76	80	1
124	131	2
74	74	24
77	78	6
81	82	4
63	64	10
34	34	8
39	40	7
22	24	2
53	53	15
16	16	15
86	91	5
84	104	1
38	38	6
33	41	4
11	30	2
82	84	10
89	90	3
132	133	2
23	23	9
46	49	1
59	63	1
118	130	3
67	68	3
8	9	5
8	56	2
76	77	4
59	62	3
24	24	4
17	22	3
24	25	2
46	47	7
40	42	1
116	116	6
62	62	7
28	32	1
71	73	1
86	102	2
101	103	1
11	56	1
38	40	3
116	125	4
100	104	5
109	116	1
22	22	9
29	29	9
95	97	2
79	80	21
111	132	2
67	102	3
73	73	3
97	101	3
115	116	2
95	100	3
87	87	2
57	58	1
16	18	3
91	118	5
132	132	18
2	2	1
27	50	3
133	133	14
120	121	2
5	29	3
70	71	9
112	116	1
18	24	2
28	33	3
10	11	5
93	94	2
113	116	4
115	117	1
50	51	2
61	89	2
52	119	1
114	117	3
111	114	5
26	26	17
73	74	2
9	10	5
98	114	1
48	49	5
118	124	4
107	133	3
29	30	11
113	114	2
57	57	8
99	100	6
96	100	1
86	90	1
127	128	4
84	85	4
102	104	2
78	80	2
37	39	3
109	110	1
109	115	2
58	61	1
103	104	3
85	87	2
24	29	2
125	131	1
92	120	2
69	70	1
60	61	5
2	4	2
68	69	4
122	132	2
114	115	6
0	1	7
32	32	5
21	24	1
6	57	1
98	126	2
5	7	5
90	123	1
83	85	2
19	20	1
38	70	1
75	77	1
99	101	1
21	22	2
27	27	6
102	115	1
45	57	2
71	74	1
80	83	1
32	42	3
92	116	3
88	89	4
58	116	1
113	124	1
90	115	1
105	109	2
66	80	1
117	119	3
65	66	3
60	63	3
23	25	1
67	103	2
43	45	2
127	129	2
57	59	2
74	77	1
62	65	2
88	91	3
91	93	1
91	123	3
59	120	1
130	132	1
3	25	1
107	120	1
7	56	2
48	81	2
30	31	1
116	126	2
21	27	1
33	44	2
129	130	4
66	67	1
25	27	1
6	12	1
111	124	1
62	64	2
1	32	1
84	86	1
33	91	1
8	54	3
107	110	1
4	50	1
111	112	2
116	117	3
104	105	1
125	130	5
17	18	2
107	113	1
9	54	2
39	47	1
126	129	1
3	5	1
29	31	1
91	106	1
42	62	1
11	90	1
1	6	1
33	43	1
31	47	1
31	56	1
122	131	1
40	72	1
44	70	1
39	44	1
108	111	3
75	76	1
107	119	1
32	33	1
20	27	1
72	75	1
38	69	1
64	71	1
98	125	1
3	93	1
122	124	1
44	47	1
48	55	1
111	113	1
