80	80	9
104	104	4
53	75	2
119	120	10
4	4	20
57	83	3
101	105	4
69	69	5
134	134	2
84	84	10
106	117	5
121	125	5
108	108	8
96	120	2
130	130	7
56	57	7
90	131	2
75	75	11
3	3	10
44	52	2
126	126	11
68	68	7
125	125	15
98	114	6
125	126	2
37	38	2
55	82	2
129	129	17
112	112	15
34	34	18
58	58	12
52	53	2
33	33	10
58	59	1
54	85	7
29	34	10
100	100	16
52	52	9
66	67	7
62	63	3
20	20	13
96	96	12
70	113	6
57	100	2
67	67	13
27	28	5
69	70	6
118	118	12
113	130	5
9	9	10
72	105	2
102	104	4
34	47	1
110	110	8
65	65	17
57	57	11
135	135	1
4	134	2
94	94	6
45	45	7
68	69	4
100	125	1
101	101	12
114	129	8
64	64	5
128	128	11
132	132	4
83	83	11
11	11	9
86	86	10
66	133	2
82	85	6
53	53	4
91	124	4
106	109	1
99	125	2
113	126	2
53	103	4
107	107	16
82	82	16
6	6	9
64	65	5
6	108	4
99	101	2
42	42	8
54	54	6
91	125	3
21	23	7
3	92	1
29	29	17
102	102	13
67	113	1
20	21	3
35	35	10
43	43	5
65	79	2
122	123	6
16	17	2
106	106	9
79	107	5
74	74	10
97	133	2
88	88	1
51	135	1
129	133	4
81	81	8
96	133	5
31	33	5
50	115	4
106	108	2
62	62	13
50	50	14
12	12	8
78	119	3
32	32	2
58	100	3
15	25	3
119	119	12
73	73	6
120	135	6
72	72	5
87	87	8
7	7	12
59	59	7
0	1	1
60	61	2
60	60	4
105	106	2
8	9	3
36	36	14
90	93	6
11	12	1
90	90	6
95	112	2
120	120	10
92	92	16
26	26	15
33	52	4
13	25	2
60	68	3
25	25	6
127	127	6
89	90	3
67	82	4
78	114	5
56	83	12
10	10	6
86	108	1
76	76	6
37	37	12
86	117	1
125	133	5
97	97	9
90	97	4
96	97	3
62	95	3
63	63	12
87	88	8
128	129	1
85	85	3
66	110	4
14	14	8
76	101	2
66	66	9
23	24	4
71	72	5
84	87	3
49	50	1
81	88	4
18	65	1
95	95	5
48	48	1
18	24	6
70	70	11
68	120	1
132	133	11
30	47	2
24	24	6
130	131	3
8	8	4
16	16	23
99	99	12
105	105	9
109	109	4
15	15	5
78	78	15
115	126	5
99	134	1
59	60	6
5	5	13
111	111	5
101	124	2
124	124	4
58	77	1
103	103	6
61	62	3
124	125	2
36	44	3
55	56	3
120	122	2
38	38	2
4	5	3
133	133	5
77	105	1
43	44	4
46	50	1
71	71	4
83	84	12
51	51	1
100	107	4
117	117	6
2	4	1
65	112	1
107	110	2
64	85	2
122	122	12
87	97	2
1	2	2
77	77	5
8	109	4
33	34	4
77	81	4
95	96	2
56	56	12
72	108	5
49	49	3
86	132	2
115	115	10
131	132	6
68	114	4
102	103	5
5	103	1
55	58	1
116	120	4
80	116	3
77	79	5
35	71	3
59	109	1
107	108	5
32	33	3
83	87	2
114	114	3
19	20	3
3	27	2
93	93	3
44	45	3
10	66	1
89	93	2
92	93	5
124	129	6
131	131	9
111	116	4
77	88	2
87	100	1
56	82	1
18	27	1
21	21	7
116	116	4
85	87	5
30	115	3
67	69	3
60	62	3
13	13	4
127	128	3
70	103	1
25	26	2
77	78	2
61	61	8
30	38	2
54	101	3
131	133	5
49	87	2
6	7	4
36	37	5
1	1	5
66	68	2
2	2	5
21	22	1
91	123	2
68	96	5
55	59	2
76	100	1
69	74	1
121	121	1
113	113	2
11	65	3
63	101	2
94	118	1
113	117	1
107	109	1
89	97	2
71	74	2
47	47	1
18	19	1
88	105	3
79	79	4
123	124	2
4	93	2
78	80	2
107	112	1
64	89	1
88	101	2
28	28	3
89	104	2
5	88	3
34	35	1
52	104	1
73	114	2
112	113	3
121	122	1
17	17	1
77	109	1
91	92	4
47	48	1
42	43	3
28	29	1
107	117	2
15	16	2
123	123	8
57	59	2
111	131	1
106	111	4
98	113	1
63	64	1
45	51	2
8	11	1
47	59	2
18	18	5
70	72	1
35	72	1
84	119	1
116	127	2
5	28	3
116	119	4
65	83	2
19	19	3
66	69	5
66	81	1
113	125	2
82	110	1
23	23	2
96	111	3
85	120	1
13	14	2
97	98	1
72	121	3
17	18	1
87	129	1
13	23	1
121	126	2
122	125	1
45	53	1
74	75	1
71	94	2
109	110	1
59	119	1
59	84	1
109	119	1
91	91	3
2	95	1
48	76	2
7	32	2
125	135	1
83	85	1
9	10	1
55	57	1
96	119	1
96	132	2
58	66	1
76	77	1
67	78	2
126	129	1
49	77	1
22	24	1
3	105	2
113	118	2
63	95	1
80	120	1
76	82	1
77	129	2
55	55	3
6	116	1
128	131	1
98	116	1
8	14	2
98	98	2
60	121	1
86	100	1
70	105	1
78	107	1
77	104	1
114	115	1
31	38	1
67	68	1
31	31	1
108	117	1
82	100	1
80	113	1
121	124	1
70	73	1
23	43	1
30	74	1
62	80	1
69	115	1
82	87	1
44	46	1
70	71	1
22	23	2
60	110	1
66	79	1
3	127	3
116	128	1
44	44	1
45	82	1
61	116	1
126	127	1
73	74	1
98	118	1
134	135	1
67	96	1
