107	107	8
19	32	2
86	86	20
97	98	13
70	70	19
133	135	2
52	53	5
119	138	2
126	127	12
77	79	11
10	10	25
104	140	2
148	148	3
116	116	21
42	42	19
68	68	17
110	112	9
17	17	22
132	132	14
35	36	16
12	12	16
18	19	8
32	33	3
85	85	27
14	14	19
102	102	17
3	29	3
111	111	6
129	129	14
25	29	2
57	63	3
140	141	4
65	65	15
99	101	4
3	3	15
134	134	10
93	96	3
110	111	4
99	99	15
6	6	8
29	29	12
120	142	4
108	108	19
42	43	14
29	33	3
109	110	15
151	151	17
96	96	29
8	9	11
106	106	14
77	77	23
103	113	3
95	95	13
11	11	9
44	45	2
3	22	4
19	31	2
95	98	2
112	114	4
9	9	17
26	31	1
7	15	9
145	145	18
149	149	13
38	71	5
41	42	10
78	79	14
28	28	23
143	143	3
64	64	14
96	97	7
130	132	7
37	37	9
28	29	5
46	48	2
147	147	13
146	146	12
108	109	2
58	98	4
80	81	12
141	142	10
12	14	3
76	76	21
128	128	13
110	114	6
122	138	3
86	87	5
118	119	5
127	127	5
107	117	3
45	45	24
125	129	4
22	32	4
119	119	9
25	25	15
79	80	5
138	144	4
71	73	1
96	98	1
56	62	4
129	142	3
101	102	6
150	150	10
109	109	5
18	34	3
31	31	15
114	114	10
110	115	4
103	103	11
80	80	22
112	112	11
115	116	5
136	136	17
56	56	15
49	51	2
101	108	4
140	140	9
24	24	13
90	92	5
82	94	1
7	7	14
26	26	10
27	27	26
130	130	7
23	23	25
4	6	4
49	109	2
51	87	2
143	144	4
97	97	25
71	72	5
64	87	2
18	18	25
8	10	5
87	88	7
72	72	10
111	116	2
147	149	4
74	74	8
21	21	20
16	16	12
31	32	12
15	20	1
76	77	4
34	35	11
55	58	1
134	135	15
70	71	6
13	14	12
16	25	3
107	133	1
55	55	10
68	83	9
66	98	4
125	128	3
4	4	23
123	123	6
5	5	16
24	36	6
126	128	5
40	44	3
87	87	11
11	12	9
105	111	1
97	113	3
26	34	1
80	88	1
20	20	15
18	32	2
41	43	7
111	112	9
106	107	7
15	16	10
64	67	1
83	117	4
53	56	2
46	47	8
16	19	4
68	77	1
32	32	10
34	34	29
153	153	12
51	51	13
6	15	3
30	30	16
20	21	8
21	23	2
78	78	19
39	39	9
43	69	4
49	49	19
57	57	11
69	69	16
52	52	2
36	36	19
45	46	10
83	83	7
86	93	2
72	83	2
38	38	15
152	152	3
125	125	10
44	44	13
144	145	8
147	148	5
48	48	16
39	45	3
72	91	1
41	41	22
132	133	2
51	52	5
144	144	16
83	84	12
119	123	3
38	40	12
81	82	11
8	35	2
95	97	6
46	46	14
79	79	4
67	67	17
112	115	2
15	15	13
33	33	14
24	25	13
97	99	5
99	100	4
50	50	16
43	44	9
113	113	3
72	76	9
54	55	5
122	143	8
117	117	10
132	136	6
67	68	3
67	111	1
65	67	1
95	99	2
25	30	2
61	94	5
38	39	7
118	141	1
3	149	6
124	127	3
117	118	7
75	75	6
51	53	4
142	142	8
114	117	2
6	7	5
121	123	2
69	78	4
82	82	12
132	134	3
115	115	12
2	3	3
65	66	8
40	40	23
109	113	4
10	11	5
107	108	3
103	105	4
74	118	3
30	32	8
100	100	3
66	67	2
30	31	5
48	53	1
138	138	8
88	90	2
55	56	1
7	13	2
39	41	1
84	85	8
139	141	11
123	136	5
98	99	11
17	35	2
5	6	6
66	66	6
105	106	4
73	73	24
9	10	9
43	43	15
48	50	2
12	13	10
49	50	5
133	133	12
11	22	4
5	26	3
12	35	2
54	57	3
131	131	10
27	28	8
104	112	1
75	76	2
5	15	5
139	139	14
142	146	2
62	63	3
13	13	26
67	112	2
111	113	7
73	74	5
43	77	1
47	58	1
78	81	2
133	134	4
71	71	12
22	22	10
120	124	1
107	109	2
35	35	13
94	95	8
72	73	1
91	91	2
131	137	5
42	45	1
127	129	1
92	92	2
137	138	9
28	30	1
27	32	2
15	135	2
36	37	1
125	127	2
82	133	3
11	18	4
88	88	4
137	137	9
51	80	1
93	93	13
139	145	4
98	98	4
17	18	4
139	142	2
6	149	1
64	92	3
73	96	4
41	70	4
38	70	6
118	118	12
13	15	1
79	82	3
10	31	4
10	39	1
101	110	1
154	154	9
140	142	3
122	131	3
51	86	3
95	96	2
50	51	6
106	152	4
14	15	5
63	66	3
149	150	4
89	92	1
63	64	8
65	93	4
72	74	1
76	91	1
26	27	11
17	19	4
9	29	4
69	82	2
110	110	6
24	35	4
49	53	3
120	127	3
120	132	5
131	144	1
27	31	2
29	30	5
25	28	1
19	19	19
81	81	12
22	23	3
132	139	2
52	55	5
21	22	3
148	150	5
122	122	10
119	120	5
94	94	8
82	87	1
56	57	7
141	141	6
50	54	2
11	109	1
51	91	1
55	57	4
26	32	2
112	152	1
47	48	2
122	137	1
33	38	2
112	113	3
15	18	2
136	146	3
47	47	16
108	117	2
68	72	2
104	104	7
49	72	1
120	120	8
65	71	2
16	17	2
100	110	2
19	33	2
68	69	5
29	32	3
85	86	2
36	44	2
122	123	2
8	8	6
4	10	2
69	79	6
13	135	3
143	148	2
63	65	1
120	121	2
149	151	4
69	87	2
110	113	4
121	122	2
102	113	1
124	125	6
15	29	1
120	138	2
39	44	2
26	28	6
133	138	2
33	34	3
121	142	2
5	33	1
72	92	2
121	143	5
34	36	6
121	121	7
19	25	1
32	40	1
33	39	3
104	115	2
73	76	1
135	135	6
20	31	2
113	114	1
54	54	7
44	46	1
115	117	4
45	47	2
132	138	2
77	78	1
103	104	5
61	64	3
43	45	4
4	5	9
33	40	3
73	78	4
132	148	2
105	108	2
64	94	3
124	124	4
7	16	2
48	54	1
131	132	3
63	87	2
137	145	1
34	41	2
103	108	2
122	146	6
33	35	1
17	22	2
20	23	7
27	29	5
64	74	1
75	93	3
150	151	3
18	24	4
18	22	2
84	86	2
65	68	4
70	75	1
5	31	2
85	87	1
51	78	1
123	146	2
94	97	2
130	149	3
24	40	3
63	68	2
138	145	4
104	116	3
23	24	9
67	87	2
37	53	3
67	69	3
136	147	2
102	114	3
65	78	1
130	147	4
6	29	1
139	143	2
120	144	5
84	94	3
131	133	3
39	40	8
19	24	4
106	108	3
36	43	2
136	152	1
135	136	5
26	30	1
62	62	6
91	92	2
40	64	2
94	99	5
10	17	2
74	96	4
53	57	2
105	105	1
66	68	2
132	137	2
48	49	1
101	109	1
65	95	1
130	136	1
74	84	2
64	65	1
9	154	3
127	130	1
64	93	1
128	129	3
61	93	1
11	20	2
4	34	1
3	4	5
45	67	3
130	139	2
88	93	1
40	41	1
145	146	4
100	101	1
74	75	3
122	136	1
78	80	1
19	21	3
109	154	2
8	142	7
76	78	2
93	99	2
21	24	2
66	84	4
140	144	2
85	93	1
38	66	3
5	7	2
73	77	1
93	94	9
40	67	1
146	147	3
103	116	1
7	33	1
136	139	2
83	86	1
37	66	1
47	57	2
16	28	1
74	77	2
51	55	1
113	142	2
146	148	1
74	95	1
119	129	1
108	110	4
11	38	1
53	53	6
53	54	2
142	143	1
139	144	2
103	109	1
100	153	1
68	97	1
51	79	3
101	114	5
28	31	1
140	146	1
28	34	1
104	111	3
104	146	1
32	35	1
24	29	1
9	146	1
127	128	1
5	9	1
41	44	1
124	138	1
43	46	2
119	133	1
67	94	1
122	142	2
100	113	1
68	76	2
102	105	1
9	142	1
126	129	1
66	74	1
71	74	3
51	56	1
38	41	1
67	93	1
102	104	1
18	20	1
73	75	1
56	67	1
53	68	1
5	35	1
34	37	1
10	28	1
63	63	1
119	137	1
50	61	2
71	77	1
102	112	1
141	143	1
126	126	4
29	35	1
20	22	2
69	71	2
132	149	1
49	76	2
100	102	1
71	99	2
26	29	1
91	154	1
56	64	2
72	77	2
10	12	1
69	70	2
148	149	1
104	106	1
72	79	1
32	39	1
62	81	1
101	115	1
63	99	1
71	75	1
104	107	1
75	83	1
104	139	1
77	81	1
138	142	1
2	2	1
141	144	1
37	38	1
84	84	2
25	33	1
137	146	1
131	138	1
38	43	1
13	17	1
31	39	1
10	19	1
83	85	1
93	95	1
3	148	1
57	61	1
124	132	1
90	90	1
100	108	1
112	116	1
125	126	1
76	80	1
88	92	1
9	35	1
11	13	1
42	77	1
136	137	1
121	141	1
