35	35	25
14	105	4
147	147	6
149	149	12
114	114	8
100	100	12
67	67	10
108	133	2
130	132	2
152	152	9
83	83	16
57	70	1
45	45	22
122	123	1
11	64	3
71	71	6
108	108	20
9	10	8
40	40	7
53	53	23
70	70	15
57	62	3
79	79	14
56	56	22
73	73	12
146	146	14
65	66	10
49	141	6
14	108	3
52	53	8
98	98	11
105	106	7
15	15	18
52	52	11
20	22	1
1	1	13
48	48	6
78	78	4
8	8	8
27	27	7
93	94	6
163	163	17
131	132	3
43	43	20
86	86	10
130	131	3
49	49	13
122	151	3
63	72	3
134	134	7
131	161	1
84	84	18
116	116	12
160	160	13
143	146	1
9	9	18
24	24	16
56	57	1
24	27	1
2	2	21
104	105	7
124	124	24
128	155	4
22	23	4
9	12	1
130	130	14
7	35	2
160	162	2
91	91	28
1	2	8
78	98	2
0	2	2
170	170	6
80	81	9
155	157	4
84	85	6
63	64	8
69	80	5
89	108	3
47	47	11
131	131	8
146	150	4
104	104	6
88	88	10
144	144	12
68	68	7
12	12	10
11	35	1
101	101	11
0	0	10
150	150	11
108	109	5
143	143	10
120	121	3
107	107	13
11	12	6
82	82	20
23	24	4
82	84	5
24	25	6
33	33	4
157	157	17
115	161	1
92	93	8
76	80	4
77	77	4
140	143	2
36	36	21
43	55	4
96	97	12
63	63	6
3	16	1
137	137	10
74	74	16
141	141	2
39	39	7
115	116	3
102	102	8
136	139	3
155	159	5
168	168	6
3	3	13
54	54	21
97	97	11
14	14	12
114	115	8
148	148	12
92	92	22
102	106	2
109	109	5
111	112	5
128	128	1
123	123	5
37	37	5
154	154	10
20	21	4
113	122	5
81	82	7
6	6	11
0	26	1
76	79	6
10	10	15
163	164	3
96	96	16
152	153	5
138	138	15
168	169	7
109	133	4
143	144	2
121	122	6
64	68	5
106	106	12
159	159	11
122	148	3
25	25	18
158	164	2
13	18	5
8	9	2
38	40	6
155	155	4
74	75	6
18	18	17
42	42	14
169	169	10
0	45	4
147	148	6
26	27	3
169	170	7
128	145	3
118	121	4
70	95	2
46	46	18
16	16	18
136	136	13
99	99	14
5	5	9
58	58	5
69	69	7
153	153	17
14	15	8
62	62	3
5	6	3
23	23	16
132	132	13
38	41	1
44	46	6
93	96	3
19	19	6
118	118	5
90	90	5
12	20	1
8	10	2
28	38	1
166	166	8
105	105	17
16	24	2
142	144	2
76	77	5
89	89	10
20	20	12
122	122	8
130	154	2
11	11	25
72	73	4
48	135	3
140	140	7
15	20	4
71	72	3
6	7	5
151	152	3
102	103	5
5	106	3
126	126	6
72	72	13
101	102	12
111	111	4
16	23	1
64	66	2
93	93	4
3	4	3
161	164	5
54	55	4
119	120	10
129	130	3
164	164	5
24	132	1
68	73	2
26	26	6
4	4	16
165	165	10
144	145	4
55	55	10
38	39	4
95	95	4
162	164	8
57	64	1
74	97	4
8	16	4
82	83	3
65	65	7
7	7	5
91	92	8
116	118	2
97	99	1
151	151	9
76	76	20
95	97	3
120	120	5
117	118	7
64	65	3
4	5	3
71	75	4
167	169	2
92	98	1
123	124	7
50	51	11
121	147	3
69	95	1
112	112	14
72	136	1
120	140	1
64	64	10
155	160	1
21	21	3
67	166	2
161	162	7
98	110	8
86	87	4
100	103	6
50	52	7
99	105	8
3	42	1
153	156	3
50	50	4
73	132	1
83	87	2
125	144	1
158	159	2
121	121	9
86	92	1
17	20	1
93	95	2
85	100	1
85	86	3
48	51	3
126	127	2
111	113	3
112	113	13
63	65	1
64	69	4
162	163	4
115	115	6
54	63	2
2	26	4
44	45	6
75	75	9
12	14	1
44	48	1
119	119	9
57	58	1
94	139	2
86	89	2
155	156	1
88	89	7
27	107	2
12	110	2
78	129	1
22	22	14
51	54	1
136	137	8
116	137	1
38	38	24
49	63	1
119	124	2
44	44	5
22	51	4
141	145	4
133	170	4
56	96	2
88	93	2
48	49	3
65	67	7
57	71	1
129	133	1
73	74	3
112	115	2
71	98	5
41	41	13
85	97	1
149	159	2
125	129	2
91	94	3
153	154	2
89	90	4
151	160	2
139	139	10
25	47	1
134	135	4
125	125	7
42	108	1
81	81	6
37	42	1
129	129	4
137	138	2
101	103	4
77	78	4
21	22	6
28	28	7
75	76	1
87	88	2
111	114	1
53	55	2
157	158	3
20	23	3
90	109	2
43	45	1
109	110	8
17	18	1
167	167	7
159	160	2
90	150	3
85	85	12
161	161	4
94	94	15
134	151	4
18	19	4
138	139	4
80	80	6
102	107	1
101	138	2
5	11	1
87	87	3
112	150	5
1	114	2
39	41	1
110	110	12
77	89	1
13	14	1
158	158	6
82	100	2
103	104	5
103	103	4
17	17	12
6	116	8
74	156	2
106	133	1
121	123	1
49	50	1
0	40	1
123	125	1
145	145	13
5	18	1
108	146	5
160	166	1
132	144	4
34	34	16
10	27	2
117	117	7
97	98	3
120	125	6
27	28	2
66	66	9
76	78	3
57	57	6
86	125	3
135	135	1
56	66	3
154	156	2
68	90	1
86	88	2
165	166	3
5	55	1
84	86	3
127	139	1
70	72	2
21	24	4
107	125	1
80	128	2
13	22	2
90	91	4
48	50	3
20	47	1
53	54	1
133	133	4
139	143	1
13	13	12
15	34	2
35	36	2
13	34	1
127	127	5
55	57	2
150	151	2
107	108	1
131	154	1
13	98	2
6	112	2
154	159	2
19	20	2
152	155	4
127	128	1
16	46	1
142	142	2
77	79	4
96	98	5
114	163	1
121	124	2
145	146	1
67	111	1
105	108	3
4	7	2
121	149	1
99	153	1
47	48	1
100	105	3
149	158	2
62	65	1
164	165	1
66	67	1
20	24	5
22	24	3
123	131	1
92	99	1
66	69	5
78	79	4
7	11	1
111	117	1
162	162	1
142	143	1
8	78	1
37	41	1
153	161	1
105	126	1
58	62	1
0	1	3
132	143	1
92	94	4
163	168	2
50	69	2
7	109	1
12	25	5
34	35	1
28	37	2
93	109	2
4	19	2
78	83	3
55	63	1
123	147	2
118	143	2
144	150	1
16	119	2
43	53	2
114	117	1
47	49	3
149	150	1
118	165	1
39	40	2
79	80	1
69	70	5
45	46	3
36	111	1
11	79	1
117	142	1
150	152	1
3	114	1
106	107	2
150	160	1
71	101	1
13	133	4
12	16	1
67	112	1
100	101	1
41	42	1
35	37	1
67	69	3
125	169	1
50	58	2
71	74	3
72	169	2
95	105	2
95	120	1
83	84	2
99	158	1
11	18	3
73	91	2
18	21	1
113	114	2
84	90	1
68	95	1
95	96	2
45	47	1
72	97	1
64	107	2
117	127	1
113	113	2
5	42	1
140	141	1
119	149	3
42	43	1
18	23	1
13	15	1
70	71	1
146	147	1
18	20	1
127	138	1
126	130	1
78	81	1
93	106	1
101	112	1
156	156	2
123	130	1
92	95	1
17	39	1
12	23	2
0	38	2
81	84	1
40	41	2
51	55	2
12	70	1
77	80	1
27	35	1
65	104	1
51	51	1
102	105	1
15	16	2
49	51	1
12	22	1
57	65	1
5	105	1
127	130	1
7	135	1
47	52	1
70	132	1
51	53	1
147	167	1
90	151	1
101	104	1
6	134	1
102	127	1
110	112	1
