11	11	12
5	5	5
146	146	6
128	128	12
194	194	9
34	64	2
51	52	9
78	78	6
171	171	19
57	57	5
38	52	2
47	47	6
27	27	5
137	142	1
189	195	8
189	190	7
74	75	6
10	10	15
175	175	15
116	116	9
193	193	9
156	156	3
20	20	8
49	50	1
24	29	2
8	8	18
38	39	5
169	169	27
176	176	3
95	96	2
180	191	3
56	59	4
59	60	11
6	6	14
119	119	19
121	121	15
21	21	4
138	138	5
14	16	5
164	165	2
27	28	1
175	180	1
140	140	10
37	37	7
35	35	5
119	123	2
76	76	1
178	178	12
104	105	13
40	40	16
168	168	13
44	44	7
4	24	3
4	4	4
28	29	5
173	175	8
38	38	2
100	100	9
137	138	4
110	110	10
12	12	9
116	117	3
147	157	3
184	184	7
28	28	2
100	108	1
184	185	3
53	53	25
189	189	20
116	118	2
166	166	5
131	132	5
177	177	6
58	58	16
143	143	4
161	161	4
155	156	1
149	149	12
4	30	1
185	185	10
5	6	4
164	166	2
107	107	4
163	163	8
17	17	6
4	32	5
187	187	14
78	79	2
129	129	5
89	89	3
15	191	1
82	85	5
66	66	6
46	46	11
105	106	4
188	188	6
165	165	4
5	7	4
157	170	1
98	98	3
13	49	4
111	111	12
80	80	6
175	176	7
51	51	18
83	83	7
176	177	1
4	10	4
33	33	4
75	82	1
79	79	5
50	50	22
43	44	5
48	48	6
11	48	3
9	9	5
139	139	3
52	52	6
183	183	8
134	134	8
32	48	2
57	58	3
163	164	3
11	12	5
125	126	2
125	128	2
2	2	5
45	45	10
157	157	10
30	30	2
130	130	6
141	141	16
156	158	3
120	120	7
117	117	14
108	108	2
133	134	5
19	38	3
109	109	6
142	143	3
98	99	2
164	164	2
150	151	9
10	11	2
29	29	13
174	174	3
10	15	4
112	113	10
5	9	5
170	170	3
151	152	7
54	54	8
197	197	14
101	101	9
133	150	3
132	133	7
18	18	13
104	104	4
181	181	7
23	64	5
195	195	17
134	135	6
56	56	10
54	61	5
115	115	4
123	127	6
96	96	1
151	151	8
160	162	3
162	162	1
127	127	7
160	190	1
65	65	8
137	137	2
13	13	11
147	147	3
190	190	2
95	95	1
25	26	7
187	188	2
101	147	2
137	154	2
171	172	3
144	145	4
15	18	4
119	121	3
47	193	2
105	105	3
135	135	3
80	81	4
101	105	3
59	59	4
103	103	11
126	127	9
165	167	2
184	187	1
132	152	1
20	39	2
180	182	1
135	155	2
153	153	2
174	175	7
49	49	10
115	158	2
12	13	3
15	15	2
160	188	2
87	87	5
30	32	1
64	68	1
173	173	14
112	112	5
63	64	7
150	150	17
181	183	3
0	3	3
46	49	2
64	64	8
119	120	4
70	70	1
11	16	4
174	180	5
117	118	6
136	136	5
140	168	3
132	132	5
41	41	8
16	16	9
166	167	4
107	116	1
152	153	3
161	162	6
123	128	2
140	177	1
172	172	8
113	113	2
106	107	1
196	196	11
179	190	2
167	168	1
98	157	2
55	56	3
102	102	7
16	17	5
42	44	3
43	43	2
176	178	2
146	147	1
122	122	11
153	154	4
99	100	3
109	110	3
193	194	2
14	36	4
65	67	4
39	60	1
103	107	3
24	24	2
77	79	3
104	106	4
159	160	4
72	72	2
45	76	4
10	12	2
30	31	3
134	148	1
175	179	3
55	55	4
5	36	3
130	166	1
114	114	6
52	53	1
192	193	4
176	187	1
14	14	4
124	125	3
95	97	3
162	164	3
8	9	2
73	73	2
154	154	7
190	191	1
31	31	5
186	187	4
25	27	1
34	34	2
172	178	2
188	190	2
123	123	4
144	144	5
180	184	3
13	47	1
19	19	2
27	29	2
10	45	1
0	34	3
126	126	3
191	191	9
62	62	7
174	178	2
26	26	1
69	69	3
102	148	1
167	167	1
192	192	11
158	159	3
9	23	1
121	122	4
120	121	2
186	186	10
119	129	4
148	148	4
130	131	4
177	178	5
84	85	1
55	59	1
50	51	1
51	63	1
102	153	2
132	155	6
0	58	1
170	173	3
61	61	1
135	136	1
153	155	2
175	178	3
157	158	2
173	186	3
53	55	1
31	49	2
132	135	3
125	125	7
129	131	1
174	176	4
183	189	2
177	187	1
75	76	1
178	192	2
149	150	3
19	20	4
121	128	1
6	23	3
1	1	2
137	168	1
3	3	2
66	67	1
88	88	4
179	191	3
180	180	5
25	25	4
35	36	5
122	123	2
185	186	1
1	4	1
128	129	2
143	144	4
142	142	5
15	187	3
23	23	2
155	155	2
196	197	1
152	152	1
168	169	5
76	77	2
20	23	2
14	15	1
145	145	3
76	78	2
159	159	1
71	71	1
133	155	1
67	69	1
136	169	1
15	24	1
27	39	1
3	26	2
136	141	2
32	33	2
25	38	1
97	98	1
110	111	2
145	170	2
54	55	1
12	14	1
53	54	1
139	141	2
164	193	1
39	39	1
165	166	1
88	89	2
136	137	4
145	157	2
166	192	2
22	22	3
139	165	3
63	63	2
77	78	2
147	148	1
60	60	1
182	183	1
167	169	1
40	41	2
33	48	1
115	132	2
3	4	3
142	154	1
32	32	3
31	51	1
94	95	1
124	124	2
158	158	1
102	103	1
129	130	1
42	42	3
56	57	2
93	93	3
36	38	1
172	173	1
59	61	2
8	22	1
4	5	1
182	182	3
1	26	1
118	119	1
179	181	1
102	105	3
31	48	1
163	179	2
75	75	1
94	94	2
106	106	1
160	160	1
34	35	1
79	80	1
139	140	3
195	196	1
108	110	1
94	96	1
81	82	1
134	142	1
36	36	1
60	61	1
161	194	1
172	190	1
123	126	1
97	97	2
131	131	2
118	118	1
108	116	1
151	153	1
29	30	1
122	129	1
99	99	1
42	43	1
41	43	1
130	156	1
188	191	1
43	69	1
