75	75	14
82	86	3
32	33	5
111	111	9
67	67	10
62	64	2
84	84	2
102	102	5
75	105	6
58	58	23
68	68	9
110	110	18
43	44	2
49	49	12
65	66	5
83	83	9
85	87	7
27	27	9
75	77	4
24	30	3
113	113	20
64	64	38
63	64	9
36	37	2
107	107	11
81	81	13
86	86	5
22	23	7
28	28	8
62	62	16
56	56	6
39	39	7
81	84	3
103	103	5
59	59	20
20	20	9
87	87	17
101	101	15
34	35	7
108	108	5
109	110	6
19	19	4
71	71	14
42	42	10
73	73	11
99	99	10
26	26	14
35	63	9
62	73	1
104	104	5
45	45	15
30	30	19
78	95	3
32	32	5
88	90	5
44	44	15
65	67	6
72	73	5
103	107	3
114	114	9
39	51	4
106	106	21
41	41	9
31	31	8
84	109	1
79	90	2
76	76	4
28	29	3
70	70	12
88	88	6
51	51	10
75	101	4
78	78	10
95	95	16
77	78	5
29	47	2
50	51	4
104	106	18
92	93	9
105	105	7
77	77	11
87	104	15
91	91	6
49	67	5
50	50	6
60	60	14
102	103	9
72	72	24
54	61	2
83	84	2
34	34	11
38	38	8
95	97	9
80	92	3
100	101	2
99	101	1
66	67	8
85	85	9
69	89	2
73	83	1
98	99	13
45	47	6
93	93	7
89	90	3
88	89	15
107	108	14
98	98	11
21	60	4
66	66	14
85	93	3
61	64	5
22	22	10
108	109	10
36	36	11
101	104	1
24	24	6
84	95	5
112	114	4
93	95	4
57	58	4
46	46	16
103	104	10
82	84	8
23	23	2
29	29	5
90	90	9
26	29	1
55	57	4
92	92	3
42	43	2
91	94	1
57	57	2
76	77	2
90	91	2
56	57	1
67	68	2
52	52	2
88	98	2
65	65	2
61	65	3
104	105	5
101	102	3
56	74	2
60	61	2
82	82	12
105	106	3
109	109	7
62	63	7
84	85	2
47	47	10
80	94	3
89	96	1
99	102	1
69	70	4
55	56	6
94	94	14
74	75	7
74	74	12
79	96	3
37	38	2
24	25	1
90	96	3
31	32	1
63	63	17
71	72	4
94	95	3
51	52	4
112	112	7
64	78	6
97	97	5
39	40	5
85	86	7
60	65	2
101	103	3
69	106	1
61	61	6
59	60	3
80	80	9
51	66	1
95	109	3
69	69	8
100	100	7
111	112	1
96	96	1
90	94	4
79	79	10
55	55	4
68	69	5
87	96	2
93	94	4
77	88	3
43	43	11
62	68	1
67	88	2
61	81	2
81	96	1
105	112	4
85	92	3
69	75	1
60	64	1
66	112	1
25	25	5
42	45	3
81	85	3
21	21	6
37	60	1
63	68	1
58	59	1
109	111	2
54	54	1
108	112	1
67	69	2
71	96	1
102	106	1
80	95	2
92	95	1
20	21	3
99	103	1
74	106	2
103	105	1
87	94	3
96	97	2
81	82	6
27	41	2
55	58	2
104	107	2
85	110	1
53	53	3
32	42	1
89	95	1
79	80	2
82	94	1
85	105	1
61	62	1
36	46	1
74	77	2
97	98	3
88	91	1
86	91	2
81	97	2
87	89	2
38	49	1
106	107	1
110	111	3
41	42	2
113	114	1
37	37	1
73	74	2
63	65	1
73	77	1
81	95	2
42	49	2
94	104	2
87	91	3
33	33	2
75	78	1
40	40	6
24	26	1
80	81	2
102	107	1
49	50	1
36	63	1
28	33	1
36	61	1
59	74	1
91	92	1
36	48	1
63	81	1
99	100	1
32	44	1
89	97	1
35	35	1
51	67	1
25	47	1
75	103	2
85	100	1
78	94	1
58	61	1
105	107	2
92	94	1
34	52	1
74	82	1
64	84	1
