38	38	3
153	153	3
67	67	10
177	177	7
135	151	1
15	109	4
173	174	5
24	24	11
131	136	2
13	14	2
44	44	5
114	150	2
152	157	1
6	6	6
40	40	7
134	135	4
32	33	1
107	109	4
124	124	5
21	22	3
7	8	4
37	73	1
10	16	5
74	76	3
134	134	5
113	114	3
154	157	2
52	53	3
170	177	3
106	106	13
6	33	1
35	35	6
179	179	7
26	26	8
63	63	1
48	48	2
151	151	6
89	96	1
72	73	2
29	30	2
58	58	6
58	60	1
169	188	2
64	64	2
163	164	13
100	100	3
41	41	10
4	5	3
150	150	5
125	125	6
7	7	6
101	102	7
23	52	1
105	107	1
153	170	2
156	156	4
29	29	4
53	53	1
98	99	1
187	187	3
143	144	4
8	8	15
140	141	4
105	105	5
89	89	7
25	39	6
184	184	6
103	103	2
90	91	4
101	101	1
170	170	3
127	130	2
147	147	7
40	41	4
9	12	2
78	78	2
138	138	9
95	110	1
17	17	2
14	103	4
92	92	3
160	161	1
146	149	2
144	147	1
40	88	3
133	134	3
19	34	3
118	119	1
56	56	1
183	183	5
114	114	3
130	131	1
99	100	1
107	114	3
3	3	4
86	86	1
106	110	2
71	71	2
78	81	4
79	79	7
174	177	2
104	105	4
9	9	1
84	87	1
176	176	2
82	82	5
45	45	4
68	68	2
104	104	1
119	119	4
44	45	4
1	1	1
117	119	3
109	110	1
173	177	1
100	106	1
32	32	7
54	54	3
10	10	7
182	182	1
88	89	2
120	151	1
82	83	5
127	127	2
60	60	2
174	176	2
159	159	1
151	152	2
154	154	5
148	160	1
70	71	1
165	165	5
169	169	2
90	90	5
0	1	1
47	47	4
81	105	3
122	124	3
31	32	3
110	110	4
15	108	1
88	88	5
2	3	1
77	77	4
121	121	2
36	36	1
85	89	3
27	27	1
12	12	5
38	55	4
158	162	2
7	11	1
117	117	7
46	47	4
175	189	2
140	140	1
108	109	2
95	95	3
46	46	10
160	162	5
137	137	2
31	31	3
10	18	1
81	82	2
18	18	4
55	55	5
30	33	1
32	35	1
6	17	3
13	13	3
170	171	2
109	109	1
15	15	6
153	154	4
4	89	1
146	146	2
0	0	2
23	23	3
99	99	2
76	76	4
2	2	7
166	175	1
129	129	2
162	162	3
181	182	1
11	12	1
171	171	4
172	173	1
83	83	3
131	162	2
13	28	2
102	103	3
111	111	1
21	21	3
39	39	1
97	97	3
22	53	1
11	11	1
172	175	2
15	16	2
80	80	1
16	16	5
171	173	2
106	108	2
84	84	2
33	34	1
122	123	1
134	137	2
30	31	1
172	177	2
72	72	1
131	131	1
98	98	1
93	94	3
5	5	3
23	24	2
1	2	3
71	72	1
2	6	3
108	108	3
33	39	4
136	158	1
128	128	3
45	47	1
14	15	1
22	22	5
99	106	2
85	85	2
164	183	1
143	143	4
42	42	1
102	102	3
87	88	4
73	73	1
123	123	1
116	118	3
90	107	2
140	151	2
94	95	1
94	96	1
152	153	1
4	4	5
173	173	4
48	71	1
116	116	1
163	163	1
131	142	2
115	115	1
141	141	1
22	24	1
135	139	2
154	183	1
120	120	1
36	37	3
74	74	2
131	150	3
21	56	1
120	121	1
149	149	3
93	110	5
122	122	2
8	13	2
17	20	1
171	174	1
91	92	2
66	67	1
126	139	2
118	118	2
144	144	1
16	30	1
28	32	2
147	155	1
26	76	2
30	32	1
62	74	1
161	161	1
115	117	1
22	23	1
47	48	1
40	74	1
149	150	1
128	141	1
107	112	1
93	93	1
10	12	1
