109	110	4
19	49	4
40	40	3
23	23	5
11	29	2
27	27	4
139	143	3
8	51	1
17	117	4
137	146	2
38	107	5
129	129	4
45	45	5
43	43	2
7	7	5
8	9	3
3	6	3
30	34	1
78	79	7
96	97	1
76	76	15
98	99	2
82	83	8
58	58	4
137	138	2
56	56	2
14	14	1
142	142	8
30	30	2
51	52	1
79	84	1
113	113	4
82	82	11
5	6	3
67	82	3
44	44	10
136	136	8
27	139	4
93	93	2
8	8	8
68	69	2
121	121	4
103	105	1
84	136	1
75	75	5
130	130	3
129	152	3
20	20	7
9	9	4
11	129	1
146	146	8
151	151	2
31	32	1
102	102	1
49	50	4
12	13	3
57	62	1
30	139	1
108	108	1
104	105	4
134	152	2
55	56	1
126	127	2
141	144	3
57	57	3
111	136	3
25	32	1
85	86	2
10	10	6
31	31	5
47	47	2
77	77	6
116	116	6
87	87	9
131	131	3
147	149	2
82	122	3
111	111	3
123	123	2
65	84	4
117	119	1
78	83	3
18	96	5
10	11	2
4	46	4
150	150	3
112	114	2
99	99	6
109	152	2
134	138	1
37	37	3
35	36	3
3	3	1
97	98	5
96	96	2
112	113	4
26	51	1
81	81	4
69	69	6
25	83	2
141	141	4
4	6	1
18	133	1
17	17	8
24	24	3
48	48	8
8	83	2
110	146	2
103	103	3
33	33	1
111	137	3
128	130	2
66	79	1
11	11	1
76	89	2
22	65	4
49	49	1
12	12	5
7	26	2
88	88	1
101	139	3
36	36	3
50	51	2
93	98	2
19	52	1
122	122	1
80	82	1
104	104	1
128	128	5
96	98	2
4	4	5
25	80	1
149	149	4
135	135	4
56	57	1
136	137	4
134	134	1
69	90	1
63	63	4
62	87	1
5	8	3
147	147	4
63	66	4
15	15	5
101	116	1
92	98	1
17	18	1
16	16	3
143	143	4
18	19	2
83	83	2
92	92	2
123	126	2
53	54	1
4	28	2
74	74	4
132	133	2
72	72	2
85	85	3
76	120	1
107	107	1
24	25	1
125	125	2
34	34	1
38	39	1
106	106	2
105	105	2
115	116	2
93	94	1
75	76	5
45	64	1
78	80	2
35	35	1
12	130	1
26	66	1
4	5	6
75	77	1
5	5	4
70	70	3
18	18	1
6	7	3
42	42	2
79	79	2
144	144	2
27	136	2
81	82	3
49	71	2
87	105	1
112	112	4
6	27	2
14	15	1
41	41	3
79	96	2
13	56	1
132	132	3
42	46	1
28	29	1
13	23	1
124	125	1
138	138	2
54	55	2
43	45	1
101	101	1
153	153	2
20	22	1
65	65	1
73	75	2
93	115	1
43	47	2
31	140	1
8	54	1
118	118	1
45	46	1
99	129	1
44	46	1
110	138	1
152	154	2
97	97	2
95	95	1
78	78	1
94	95	1
23	79	1
54	54	1
126	126	1
114	114	1
95	96	1
135	148	1
6	6	2
86	91	2
110	150	1
53	53	1
80	86	1
10	56	1
90	90	2
21	22	1
25	27	1
13	13	1
101	112	1
7	33	1
133	133	1
33	58	1
79	80	1
119	119	2
116	152	1
20	128	1
32	32	1
76	130	1
140	140	1
139	140	2
72	86	1
38	38	1
11	94	3
126	135	1
31	36	1
141	142	1
127	128	1
121	125	1
129	130	2
8	23	1
66	67	1
110	111	1
26	27	1
89	90	2
28	28	1
