92	92	5
127	128	1
107	108	3
84	84	8
12	12	14
139	142	4
33	34	3
53	53	8
147	147	6
40	40	9
121	125	2
102	102	4
20	20	3
5	6	2
97	97	5
46	48	5
74	74	7
104	104	3
127	127	4
75	76	2
38	38	10
47	47	10
151	151	2
46	46	13
114	114	9
26	26	8
15	28	3
81	81	14
119	122	2
35	36	4
133	134	1
69	70	4
5	5	8
129	129	3
50	50	4
64	94	2
132	132	3
71	71	5
63	81	1
42	42	3
27	27	3
80	121	1
30	35	1
19	33	4
100	104	2
77	77	5
37	37	2
142	142	4
116	119	1
85	86	4
74	105	1
135	135	3
44	44	2
4	14	2
65	75	2
29	29	9
98	126	1
102	103	4
70	70	2
123	123	2
14	14	10
108	108	6
52	63	4
98	127	6
128	128	1
110	111	1
146	147	2
6	6	10
25	25	4
8	8	5
109	109	5
36	36	14
124	124	4
136	136	3
141	141	5
13	13	4
51	51	4
23	23	6
125	125	4
83	85	1
107	107	3
79	80	5
35	35	5
96	99	5
72	73	2
124	127	1
68	72	2
107	110	1
96	96	3
112	112	3
105	105	2
78	78	3
69	69	1
34	34	4
19	19	2
18	41	3
95	95	3
133	139	4
115	116	2
18	19	2
83	84	1
150	150	6
66	66	5
55	56	4
90	121	3
25	26	2
67	67	2
19	20	1
100	100	3
109	110	2
4	123	1
53	54	1
80	80	5
23	24	2
94	97	2
99	99	8
65	85	1
30	30	1
43	44	1
76	80	1
83	99	2
137	142	3
116	128	4
9	9	12
10	10	11
89	90	4
38	40	1
130	130	4
24	80	1
101	101	4
27	28	8
14	15	2
50	51	3
24	24	3
21	21	9
73	74	2
67	68	2
57	57	4
87	88	1
5	29	1
39	39	7
35	57	2
137	137	6
139	139	1
81	120	1
63	63	3
64	65	1
45	103	4
118	118	2
120	120	1
4	28	1
48	48	1
79	82	2
97	145	3
5	63	2
71	72	2
149	149	4
106	106	3
121	122	3
64	64	3
104	113	3
7	14	1
39	40	1
103	103	1
28	30	3
72	72	3
109	111	1
31	31	4
62	99	3
20	21	1
119	119	3
97	98	2
84	145	2
131	131	2
30	57	1
100	101	2
18	18	2
104	135	1
79	120	5
19	42	1
143	145	1
100	102	1
120	121	1
86	86	2
105	108	5
108	109	1
41	41	2
32	34	1
123	124	1
136	137	1
65	65	3
4	4	1
11	11	4
108	110	1
37	38	2
22	22	2
66	74	1
105	110	2
14	16	1
32	32	2
139	141	1
23	32	1
16	16	2
49	49	2
6	30	1
76	76	1
117	135	1
68	68	1
94	94	4
116	147	1
97	99	2
73	73	4
20	22	2
21	37	4
103	136	3
50	56	2
152	152	3
2	3	1
103	110	1
31	32	1
134	134	1
98	98	2
154	154	1
127	136	1
54	54	1
45	55	1
146	146	3
116	120	1
26	83	5
8	64	2
16	124	1
112	113	1
79	79	1
122	146	1
74	82	1
56	56	1
33	33	1
84	85	1
43	43	1
138	138	2
19	41	1
125	136	1
42	45	1
56	57	1
78	79	1
25	36	1
20	82	1
134	135	1
42	44	1
103	106	1
13	14	1
85	146	1
87	144	1
16	43	2
99	113	1
79	115	1
50	64	1
17	18	1
