80	88	1
45	55	2
101	101	2
55	58	6
4	25	3
45	45	11
132	132	13
10	10	7
117	117	7
70	70	2
135	135	2
36	62	3
96	111	2
71	72	2
124	124	3
62	62	8
129	130	5
98	99	5
60	60	5
73	73	6
128	128	10
84	84	7
131	132	1
81	81	7
69	115	1
54	54	9
82	87	4
80	87	3
123	123	13
112	112	4
46	60	2
30	30	4
37	37	2
27	27	8
38	38	2
94	98	1
1	1	2
71	115	4
127	127	5
65	126	6
14	33	3
79	85	2
67	68	2
56	58	7
20	20	1
108	108	6
33	33	2
113	120	3
63	63	6
99	119	1
61	85	3
75	103	5
113	113	7
90	103	1
106	106	3
74	87	1
72	73	4
109	110	15
68	68	3
118	118	1
67	110	4
22	23	3
5	5	2
53	55	2
79	80	2
130	130	4
3	3	9
8	9	2
8	8	5
53	94	1
100	109	6
85	85	4
47	108	2
19	19	4
96	96	4
122	123	3
92	92	4
93	126	3
119	120	4
120	120	3
84	110	1
122	130	5
66	82	3
43	55	1
63	65	6
52	53	3
54	56	5
75	75	2
116	116	4
43	46	1
109	109	3
76	76	5
77	128	3
115	115	2
118	119	1
119	121	1
111	111	2
115	131	3
44	55	2
122	122	4
28	28	2
7	7	1
88	88	2
68	69	4
98	98	3
74	78	2
77	77	5
52	54	4
55	56	1
120	121	4
97	97	1
93	93	4
105	105	7
72	72	1
130	131	2
38	120	2
92	94	2
98	134	2
53	53	6
112	113	2
108	110	2
134	134	1
132	133	2
103	103	4
54	55	1
29	30	3
43	47	2
70	71	1
100	100	3
22	22	4
83	83	3
99	101	1
125	125	3
54	64	1
58	58	2
84	121	2
55	64	1
105	107	3
100	108	1
102	125	1
44	44	2
61	61	1
129	129	5
77	79	2
86	107	2
30	31	1
49	49	4
74	75	2
47	47	3
100	119	2
52	52	5
9	24	2
114	114	1
26	26	1
126	127	2
91	91	1
47	88	1
97	120	1
13	15	1
110	110	4
27	28	2
34	34	2
132	134	4
80	80	2
1	23	1
65	70	1
108	109	1
101	102	3
19	34	1
131	131	2
11	21	1
43	67	3
56	56	1
119	125	2
57	57	1
97	123	2
52	56	1
121	128	4
106	107	1
86	87	2
7	23	1
16	16	2
43	43	1
86	96	2
95	95	1
98	130	1
73	74	1
18	18	1
79	97	1
59	63	3
21	23	1
16	18	1
55	122	1
98	111	1
64	64	3
67	106	2
94	95	2
4	5	1
124	126	1
99	99	1
45	67	2
98	104	1
119	119	5
122	124	1
7	36	1
10	11	2
18	19	1
85	105	1
95	96	1
11	23	1
74	74	2
65	65	1
124	134	1
35	35	1
90	94	1
6	36	1
23	23	1
107	108	1
83	108	1
88	124	1
26	27	1
0	2	1
32	32	2
12	15	1
86	122	2
86	86	2
13	14	2
96	128	1
30	55	1
52	95	1
84	117	1
29	29	1
8	35	2
45	60	2
89	89	1
46	65	1
19	20	1
69	69	1
72	77	1
110	132	1
115	116	1
91	103	2
88	128	1
44	45	1
32	34	1
114	118	1
66	106	1
