44	75	2
36	86	1
100	101	3
91	91	18
66	66	8
49	49	10
23	59	2
37	37	2
80	90	1
89	89	6
73	73	2
43	101	1
56	61	3
68	69	4
46	48	3
35	36	5
56	56	11
63	80	3
31	81	3
85	85	1
94	94	3
81	81	8
52	52	7
39	39	2
40	40	6
80	99	3
87	87	6
49	101	1
50	50	10
98	99	1
61	62	7
76	76	8
63	63	6
91	92	3
54	54	11
95	95	2
59	59	10
67	85	2
53	55	2
58	58	5
44	44	6
38	39	2
71	71	16
83	88	8
22	53	3
60	61	4
66	77	6
60	60	6
57	57	11
80	81	9
33	88	2
70	70	12
38	59	1
46	96	3
45	101	3
93	93	3
62	87	2
51	61	2
45	94	2
61	61	10
100	100	12
67	68	1
78	78	9
29	30	2
86	86	9
52	60	3
47	48	5
48	48	7
47	47	4
97	97	4
81	84	1
36	84	2
41	66	1
41	41	12
90	90	14
43	43	2
74	74	7
65	65	9
46	53	2
38	38	8
42	42	2
51	53	2
83	83	3
101	101	3
64	64	5
79	79	5
30	82	3
86	87	3
87	88	2
25	25	2
98	98	2
80	92	3
86	94	4
67	67	5
51	51	5
39	50	6
24	26	3
23	26	3
26	26	3
86	98	3
39	40	2
80	80	2
52	61	3
64	66	2
35	35	1
22	81	2
33	33	2
29	37	2
88	88	7
71	72	3
53	53	3
102	102	1
79	80	1
48	55	1
49	85	2
55	55	3
41	73	4
41	42	2
99	99	3
62	99	2
77	77	5
69	69	10
42	78	4
51	52	3
60	92	2
49	77	1
67	74	2
29	46	2
62	78	1
68	100	2
81	93	1
22	79	1
65	70	3
96	96	3
75	76	5
95	96	4
62	62	4
53	54	3
83	84	1
54	61	1
27	27	2
41	91	2
75	75	3
52	53	2
49	78	1
84	84	1
25	28	3
22	82	1
45	45	4
23	29	1
92	93	3
58	87	1
27	28	3
97	98	6
41	44	3
76	77	1
58	63	3
29	29	1
39	43	3
65	66	1
72	72	6
96	98	1
58	70	2
45	46	1
57	75	1
79	102	1
68	70	1
58	59	2
25	87	1
71	78	1
70	90	1
73	84	1
66	67	1
46	47	1
46	46	2
59	69	1
50	51	1
22	38	2
98	100	1
74	75	1
101	102	1
68	68	1
64	88	1
37	51	1
36	36	1
59	89	1
65	69	1
92	92	3
37	53	1
49	50	1
28	53	1
93	94	2
69	70	1
44	45	1
