50	52	2
15	15	13
18	19	4
121	121	11
8	9	9
68	121	1
145	145	7
107	107	3
9	10	2
123	123	15
39	39	6
125	125	2
51	51	6
94	94	8
70	70	6
42	42	12
99	139	2
124	124	2
31	31	5
0	0	10
50	50	13
34	35	1
99	99	12
67	113	5
8	11	2
29	29	13
11	70	1
110	116	2
19	19	1
87	89	3
150	151	1
130	130	13
54	154	4
10	10	2
94	114	4
75	75	7
116	117	4
25	31	5
114	114	7
22	22	12
35	51	2
85	85	7
9	126	3
93	95	4
130	131	1
1	1	4
11	21	2
90	91	4
35	35	5
132	132	7
65	80	1
33	136	1
25	25	15
10	69	5
51	52	4
80	80	7
87	143	2
36	36	4
136	136	2
40	43	1
6	6	13
100	101	4
108	117	6
158	158	2
68	68	9
18	123	1
88	142	2
154	154	1
137	149	2
127	140	4
153	154	5
127	127	11
99	100	3
156	156	1
134	134	9
139	139	8
133	156	4
108	108	4
101	101	10
104	106	3
151	151	5
49	49	2
103	148	3
150	150	6
16	16	4
37	37	6
1	2	1
137	138	1
102	102	2
71	73	3
98	98	4
125	140	2
67	67	9
144	145	4
118	118	5
67	140	1
146	147	1
26	26	3
129	138	2
55	155	2
112	112	10
121	122	1
11	11	9
55	55	4
12	14	3
63	63	7
84	84	3
90	108	5
110	110	10
91	152	1
91	130	3
117	117	8
23	23	15
14	15	4
88	88	3
145	155	3
47	47	7
95	95	6
125	153	2
3	4	7
87	108	1
105	105	7
78	79	8
126	156	1
130	135	3
44	44	4
122	122	5
11	12	3
111	111	3
147	147	4
112	113	4
81	83	3
54	54	4
100	129	1
45	45	5
63	68	2
20	39	2
122	147	1
145	147	1
25	36	1
18	18	3
105	145	4
103	121	4
146	146	8
155	155	7
96	136	3
114	115	3
34	34	2
98	121	2
69	69	10
16	62	1
127	138	1
137	141	1
3	65	3
86	86	5
21	21	8
104	104	6
12	12	6
96	121	1
148	149	1
99	158	1
66	67	2
117	121	4
129	139	1
91	91	6
129	129	5
67	141	3
123	143	1
145	146	2
33	33	3
133	133	6
96	97	1
64	80	1
111	112	3
25	83	8
4	4	4
85	112	2
43	121	1
52	52	3
141	141	4
13	13	4
52	53	7
136	155	2
97	124	2
68	69	1
95	127	1
53	53	2
119	121	1
67	132	2
86	129	1
97	104	2
123	153	2
90	90	2
55	79	1
48	49	1
73	96	1
26	31	2
46	46	10
2	4	5
25	55	2
142	142	4
10	13	1
79	79	4
68	144	1
89	105	2
96	120	1
93	93	13
116	116	8
117	120	1
83	138	2
142	144	3
67	71	1
88	112	4
48	51	2
40	41	6
94	111	2
72	72	5
56	56	3
131	131	1
12	67	1
7	9	2
119	119	7
138	138	3
135	136	1
47	48	2
88	89	7
130	134	1
3	3	5
103	104	1
124	125	3
94	95	2
5	6	1
121	123	2
7	7	4
41	41	6
110	123	1
96	119	1
24	24	5
117	118	2
155	156	1
83	83	3
100	100	2
135	135	7
66	72	2
89	113	1
20	21	5
30	38	2
92	92	5
92	105	3
157	157	2
50	55	1
27	31	3
32	35	5
18	62	1
140	140	6
151	152	1
109	109	7
70	119	4
33	34	4
102	143	2
152	152	4
11	14	1
13	54	3
159	159	1
27	27	5
85	153	1
148	148	5
134	135	1
144	144	5
25	35	1
96	112	3
86	112	1
106	109	2
56	79	1
25	82	2
90	119	1
81	81	3
92	93	1
78	78	7
38	42	2
96	106	2
131	133	2
90	117	2
113	113	2
153	153	1
119	120	2
12	26	1
10	68	1
13	15	1
116	119	1
132	150	1
125	126	1
39	40	3
26	27	4
82	108	2
2	2	4
147	148	2
62	63	1
78	133	2
99	116	1
17	17	2
140	141	1
14	14	6
15	39	2
89	89	2
24	55	3
71	119	3
5	5	2
12	16	1
28	52	2
48	48	4
106	145	1
69	139	1
120	148	1
54	55	3
87	87	1
38	38	2
90	129	2
53	152	2
80	83	1
18	57	2
33	48	3
115	117	1
23	50	2
133	134	4
117	147	3
2	3	1
51	54	2
15	19	1
106	142	2
92	107	3
120	121	2
97	142	1
28	28	2
12	13	4
32	52	2
65	65	4
115	115	1
81	84	2
77	77	2
95	121	2
36	37	2
23	29	2
37	84	3
25	26	1
106	110	1
42	43	4
97	97	2
44	134	1
40	48	2
124	140	1
35	36	1
126	126	4
87	131	2
132	135	1
1	88	1
158	159	1
91	108	1
80	86	1
3	12	2
8	8	1
141	142	3
108	115	4
40	42	1
84	85	4
79	81	1
16	20	2
76	76	2
20	20	2
26	35	1
66	66	3
116	122	1
157	158	1
106	106	2
82	82	3
28	63	1
95	123	2
33	126	1
101	127	2
146	154	1
80	82	1
95	144	1
136	142	3
36	49	1
45	46	2
84	87	1
22	23	1
19	22	1
137	137	1
120	120	1
21	55	1
5	91	1
29	30	2
152	155	1
18	22	1
153	155	1
106	107	1
16	52	1
105	107	1
95	96	1
10	78	1
88	90	1
25	150	1
37	54	1
52	56	1
102	142	1
31	57	1
90	95	1
127	143	1
152	153	1
96	137	1
9	63	1
95	103	1
28	29	1
112	119	1
87	132	1
7	53	1
66	139	2
126	127	1
30	30	1
68	70	1
57	57	1
13	14	1
89	108	1
7	8	1
92	149	1
34	77	1
103	103	1
