154	163	2
59	61	2
124	124	24
119	119	7
196	196	27
65	65	6
0	1	10
75	88	1
73	73	13
134	134	9
19	19	16
194	194	25
155	155	26
28	29	4
66	66	9
1	1	4
100	119	2
179	179	15
166	166	20
167	167	20
151	156	3
14	16	1
189	189	22
146	146	12
23	38	5
55	83	5
55	55	11
150	150	11
186	186	38
130	130	17
9	9	16
58	58	28
126	126	16
29	29	9
5	74	2
164	164	21
84	85	8
121	197	2
22	22	22
16	46	4
179	180	5
147	147	23
115	115	13
16	23	6
59	60	3
133	165	5
99	119	6
122	122	24
3	56	6
106	107	7
144	144	10
110	110	15
152	153	11
51	52	5
116	159	5
190	190	18
37	59	5
31	31	27
163	163	18
34	78	7
134	135	4
122	179	5
36	36	19
7	7	10
37	37	11
4	4	20
4	73	5
187	188	12
3	55	3
151	152	8
171	171	20
183	183	19
127	128	7
70	70	12
2	3	2
26	27	4
0	0	14
17	17	15
11	12	5
39	39	9
132	132	9
136	136	18
42	43	7
99	99	19
185	185	21
170	171	5
180	181	11
167	168	19
121	122	5
35	88	2
59	77	8
28	28	12
109	110	7
48	48	24
114	114	16
64	64	8
105	107	5
155	156	7
36	58	4
16	16	9
161	161	8
110	167	1
193	193	26
103	103	12
185	186	9
120	120	17
105	106	6
15	15	17
102	103	11
43	43	20
108	168	2
193	194	15
72	73	2
180	180	14
147	159	2
128	128	12
38	38	11
6	73	1
8	8	19
176	176	24
50	108	2
124	149	1
172	172	20
53	53	14
13	14	3
112	112	13
46	47	8
50	51	6
87	88	2
197	197	27
6	74	4
154	154	17
160	160	13
15	46	5
157	157	8
105	105	10
102	102	16
2	2	30
130	144	1
161	163	8
177	177	17
181	191	3
41	41	8
165	166	9
24	111	3
35	35	14
182	183	3
141	141	21
31	32	1
12	49	3
19	24	5
49	49	26
117	118	6
38	39	3
166	167	12
169	169	18
10	10	12
22	25	9
20	39	2
22	78	5
49	105	2
3	19	5
24	53	2
151	151	18
12	13	5
146	154	3
187	187	25
148	148	12
79	79	17
19	23	7
117	117	15
107	108	5
162	162	8
46	46	19
122	140	1
35	77	1
189	190	7
98	98	9
169	170	5
111	111	7
72	94	2
153	153	7
157	165	5
146	156	3
93	93	2
57	57	8
2	83	5
188	189	3
110	111	8
159	159	3
45	94	4
94	95	6
112	120	4
49	106	6
184	184	24
121	121	10
119	160	1
50	50	8
181	182	10
47	56	3
98	99	4
72	72	18
40	53	6
108	113	1
168	168	7
137	148	1
11	11	24
140	193	3
7	18	3
111	112	6
118	175	4
116	131	5
53	84	2
0	71	4
165	167	10
122	131	5
140	140	16
8	10	4
144	164	4
47	47	22
3	3	7
87	87	6
61	61	13
118	157	4
70	71	2
52	52	12
123	138	5
108	111	3
150	151	6
137	138	2
20	22	2
100	100	13
121	155	4
59	59	7
12	12	9
115	166	3
181	181	17
115	116	8
6	6	12
156	156	19
82	83	6
134	137	1
35	67	2
180	192	3
129	129	12
21	26	2
175	177	3
177	178	8
12	48	3
55	85	1
44	44	23
195	197	2
42	52	6
88	88	8
174	175	6
54	55	5
108	118	6
42	42	6
174	174	7
162	164	8
108	110	5
186	187	5
181	190	6
139	151	6
115	167	1
140	145	5
40	40	9
190	192	4
157	158	5
47	50	1
39	58	2
165	165	9
71	71	8
14	14	8
157	191	5
10	11	3
23	24	7
173	178	1
145	145	6
2	29	2
192	192	9
121	153	2
81	85	1
4	71	4
153	155	2
140	155	3
3	18	3
45	45	18
109	109	11
143	143	11
23	23	12
69	69	15
131	131	10
110	162	1
40	42	6
36	80	1
120	121	2
145	167	3
187	189	3
85	85	7
22	23	9
159	161	4
146	147	2
54	56	13
165	173	2
121	183	3
27	27	9
57	78	1
94	96	2
106	106	7
152	155	2
116	116	5
8	43	4
170	170	6
116	136	2
118	118	20
151	155	1
35	64	3
0	2	4
37	62	2
78	80	1
37	52	5
26	26	6
3	54	4
7	44	1
156	157	11
9	10	2
137	164	3
195	195	11
145	166	1
55	86	2
178	178	9
162	167	4
174	176	4
96	96	8
191	191	15
8	64	3
68	70	2
51	51	18
168	169	5
30	31	10
89	90	6
102	116	4
147	155	4
147	158	1
45	46	1
53	111	3
133	136	1
135	138	2
132	143	2
51	181	3
4	18	3
37	38	7
5	5	4
176	177	5
133	133	10
146	148	2
4	5	1
39	40	10
41	109	2
16	44	3
168	171	5
69	94	7
161	172	2
100	101	6
74	98	2
35	78	2
102	104	6
96	100	1
61	82	2
127	127	5
125	126	5
130	169	1
59	68	2
70	85	2
107	107	9
15	50	1
67	67	8
104	104	5
135	137	9
70	83	1
40	41	2
18	113	1
194	196	1
133	174	3
137	140	4
117	131	5
80	80	9
122	123	6
148	171	1
149	169	3
41	42	3
58	67	1
113	113	14
147	149	1
159	160	3
4	16	1
191	192	4
145	149	2
56	57	2
195	196	6
138	150	1
27	94	1
24	24	7
14	15	4
6	7	1
118	173	2
68	68	4
110	172	4
141	187	2
102	108	1
42	53	8
54	54	5
123	123	13
57	58	9
178	179	1
154	181	1
33	33	10
175	175	15
5	90	3
5	94	1
21	77	1
16	17	5
35	74	4
57	86	3
157	161	3
116	130	3
2	30	2
119	120	5
139	193	2
108	112	1
149	149	12
126	194	2
4	44	1
34	35	5
140	141	1
181	187	4
170	172	4
148	149	6
173	176	4
182	182	8
161	173	2
142	142	10
168	170	4
190	191	2
130	131	3
118	160	2
179	191	4
45	51	1
77	88	2
110	168	2
109	118	3
5	76	1
116	173	4
45	47	2
2	23	1
38	59	6
20	26	3
196	197	6
26	28	1
113	136	1
162	173	2
131	138	4
158	158	12
155	185	1
18	18	9
141	142	1
15	44	3
117	173	2
184	185	3
82	85	3
139	139	9
21	39	1
21	108	4
19	20	4
5	43	2
7	61	4
4	85	2
194	195	5
56	56	20
95	182	2
143	144	4
170	179	2
101	101	12
9	99	3
76	76	11
135	135	7
1	4	1
17	24	3
112	191	7
34	59	4
134	164	2
13	13	14
120	160	4
163	164	5
126	127	3
142	193	1
29	32	3
136	193	3
24	25	4
27	80	1
9	102	1
127	132	2
135	139	2
115	159	3
46	58	2
89	89	4
114	117	5
20	38	2
43	44	5
46	57	2
139	140	6
6	20	4
21	22	6
1	2	6
124	132	3
133	137	5
190	194	3
148	175	5
84	84	5
27	72	2
77	77	1
126	128	1
132	149	2
7	43	2
9	13	2
17	19	2
152	152	8
32	32	9
135	136	6
97	98	1
144	167	2
119	135	1
10	32	3
132	179	2
56	69	2
164	167	2
133	161	2
83	83	5
60	61	3
96	97	4
0	17	1
112	113	4
141	151	1
54	83	1
76	102	1
133	134	1
57	69	4
146	167	4
18	19	4
109	132	4
137	144	3
104	105	3
111	116	1
42	59	3
147	166	1
183	184	5
129	169	1
20	20	3
78	78	7
37	80	1
120	182	2
112	118	8
62	62	9
30	80	2
147	151	1
158	160	2
90	90	2
101	102	2
121	180	3
3	59	2
114	159	6
86	86	3
169	171	1
71	72	3
146	163	1
70	81	1
154	182	1
181	192	1
34	38	3
157	180	3
5	32	2
154	186	2
138	138	4
179	182	2
148	169	1
173	175	2
36	56	2
83	85	2
111	118	3
160	161	2
147	168	4
155	182	1
83	86	3
149	170	1
74	74	2
52	53	2
135	178	1
11	87	1
188	188	6
4	17	2
5	7	3
42	58	1
164	165	8
140	143	1
119	121	2
73	87	1
179	181	2
118	172	2
145	146	2
146	157	3
94	94	6
138	188	2
32	33	1
9	74	1
85	87	3
29	37	2
25	25	8
17	20	2
128	129	3
57	70	1
20	25	3
139	163	3
108	108	4
123	124	10
39	60	1
73	75	1
114	115	2
64	65	1
162	163	3
67	68	7
171	172	3
145	158	1
54	70	2
173	177	2
41	64	2
29	30	3
9	50	2
23	80	1
176	178	1
73	77	1
125	125	6
80	85	2
161	162	2
110	113	2
75	77	2
36	37	2
141	194	1
133	144	1
138	145	1
142	194	3
172	173	2
95	95	4
162	166	2
41	47	2
124	126	1
145	150	1
9	76	2
132	137	4
175	176	2
137	137	5
136	182	1
117	190	1
25	26	2
101	104	1
19	25	2
17	27	2
75	75	1
110	191	3
138	192	1
50	52	2
150	153	1
159	162	3
108	169	2
77	78	1
173	173	4
108	175	2
137	145	5
101	105	1
157	164	3
164	168	3
131	132	3
27	37	2
111	119	1
165	172	2
136	139	2
72	86	1
12	87	4
86	87	2
112	136	2
75	76	2
40	57	1
5	6	2
154	172	1
143	154	2
111	172	2
1	3	1
0	70	1
113	117	3
53	58	1
33	63	1
154	178	3
119	170	2
53	55	1
28	31	3
134	140	1
133	175	2
97	97	2
186	188	4
18	77	2
179	193	3
113	115	3
30	58	2
124	130	2
55	56	2
192	193	1
61	68	1
56	83	1
34	36	1
137	146	2
66	84	2
15	43	1
77	79	1
65	67	2
34	64	1
124	125	3
111	117	1
129	131	1
48	49	1
66	67	3
10	12	1
77	84	1
19	22	5
5	12	1
46	114	4
93	94	1
3	82	1
160	164	1
132	133	2
118	119	1
25	38	1
42	56	1
116	117	7
77	80	2
131	156	1
178	180	1
17	28	1
85	86	2
185	187	1
116	135	1
117	159	1
24	55	1
39	41	2
155	181	4
174	181	1
138	139	3
166	168	3
13	52	2
63	63	2
49	50	1
182	188	3
108	119	1
110	118	2
20	109	2
103	116	1
161	165	1
76	88	1
3	83	1
23	41	1
132	178	1
82	86	2
69	80	1
74	88	1
6	18	3
93	96	1
15	45	1
134	149	1
99	170	1
113	149	1
82	82	1
10	13	2
113	116	1
185	188	1
148	172	2
188	192	1
40	68	1
53	78	1
107	120	2
6	75	1
6	96	1
148	186	2
30	30	1
106	115	2
100	107	1
0	29	1
4	23	1
29	62	1
20	21	1
150	171	3
115	144	1
94	97	1
109	112	1
108	174	3
165	168	1
119	196	1
161	167	1
81	87	1
71	83	2
8	50	1
75	96	1
134	178	1
108	117	1
158	159	1
3	78	1
122	183	1
34	34	1
76	83	1
137	139	1
6	44	1
16	42	2
40	67	1
170	176	1
150	152	1
116	138	1
99	123	1
10	51	1
149	161	2
142	143	1
9	101	1
96	98	1
172	178	1
113	178	3
103	105	1
38	43	1
56	79	1
118	180	1
117	175	2
133	149	1
14	45	1
103	107	1
136	142	1
9	11	1
61	62	1
143	146	1
124	128	1
74	90	1
157	159	1
124	129	1
143	180	1
166	169	1
142	146	1
117	132	1
148	166	1
38	45	2
153	165	1
30	36	1
139	152	1
155	180	1
122	138	1
150	170	1
60	64	1
44	45	1
151	191	1
28	62	1
117	157	1
