75	75	22
46	46	4
76	81	3
40	40	5
60	80	1
22	46	3
65	65	5
67	67	3
39	99	2
32	32	4
59	59	6
49	50	5
78	78	8
34	34	14
23	25	4
64	64	13
71	71	5
90	90	2
26	47	5
104	105	2
35	35	10
61	61	3
104	104	5
96	97	5
66	66	11
41	47	2
103	103	11
48	49	7
60	60	17
49	61	6
50	51	3
24	52	3
47	66	2
37	37	6
68	68	3
79	81	4
101	101	13
98	98	14
25	26	5
51	51	1
84	85	3
81	81	12
69	84	3
80	81	5
92	92	9
94	95	7
26	27	2
90	92	1
63	63	16
24	24	10
25	25	2
53	54	6
72	73	3
107	107	4
95	95	7
27	27	7
22	22	8
94	94	11
100	101	8
84	84	10
97	98	4
44	45	3
38	39	5
65	87	2
73	73	7
30	30	9
41	41	6
99	100	2
54	56	2
56	56	9
32	33	11
105	105	9
76	76	11
71	72	1
36	49	2
78	87	3
42	45	2
26	26	6
61	62	7
87	87	6
45	45	4
91	93	3
23	23	7
40	41	4
69	69	11
26	29	3
21	33	2
86	86	2
33	33	14
95	97	4
95	96	2
100	100	9
70	70	9
33	34	1
91	92	1
49	64	4
37	38	3
88	88	4
55	55	13
101	102	6
97	97	4
24	55	3
82	82	3
23	24	5
89	90	5
45	47	5
31	59	3
99	99	1
40	46	2
41	42	1
70	77	4
84	86	2
72	72	5
91	95	1
47	47	2
93	93	6
27	29	3
30	47	3
46	61	1
36	36	6
20	22	3
46	49	3
44	44	6
70	73	1
35	39	1
20	20	3
27	40	2
68	69	8
91	94	2
43	44	3
47	51	1
82	83	4
54	58	1
36	39	5
87	89	2
47	60	2
62	63	3
89	89	8
58	58	5
56	62	1
52	52	3
42	43	1
21	22	5
30	59	2
78	106	2
73	74	2
98	99	2
48	54	1
82	86	2
66	106	3
88	89	6
38	38	3
87	88	1
28	29	4
82	89	3
46	60	1
86	87	1
69	77	1
26	28	2
51	55	2
85	85	2
47	48	1
66	85	1
60	65	8
61	65	2
55	56	6
60	61	2
102	102	2
79	79	3
22	24	1
29	29	8
38	47	3
82	85	1
50	50	9
93	95	2
65	85	1
25	51	1
98	101	2
72	76	1
27	28	2
79	80	4
49	49	2
81	86	1
74	74	8
53	53	1
83	84	2
29	66	1
56	57	1
47	68	4
74	90	2
43	48	1
51	59	2
75	76	1
89	94	1
56	101	1
21	23	1
49	51	1
22	48	2
83	86	3
31	31	5
38	67	1
39	45	1
47	65	1
21	21	2
83	85	1
48	60	1
29	30	3
96	98	1
57	58	1
93	94	1
67	88	1
77	78	3
43	50	1
78	92	2
90	96	1
89	91	1
61	64	2
36	101	2
71	76	2
35	36	3
39	39	1
23	28	1
36	84	1
48	48	3
106	106	2
31	33	1
39	47	1
81	82	1
28	41	1
80	80	2
30	31	1
83	83	1
43	77	2
68	105	1
58	59	1
91	91	1
96	96	1
71	73	1
22	23	2
74	75	3
25	53	2
93	96	1
62	62	2
58	85	1
50	83	1
54	54	1
20	34	1
58	60	1
57	81	1
85	89	1
92	95	2
57	63	1
85	88	1
43	43	1
36	86	1
57	61	1
70	71	1
55	57	1
59	63	1
