38	39	12
36	36	41
7	9	8
5	5	37
54	54	15
134	134	31
2	4	7
39	39	40
20	23	5
91	91	22
7	38	1
3	3	34
20	20	38
100	100	15
148	148	18
31	36	3
157	162	3
71	71	26
33	40	3
114	114	10
12	13	12
22	22	30
147	149	1
112	124	3
76	77	10
12	12	50
104	107	5
66	67	10
91	92	26
23	23	51
11	11	58
56	56	17
25	25	20
142	163	2
55	55	20
16	29	2
49	50	5
31	53	1
145	146	12
11	12	14
129	129	16
143	144	3
107	107	7
168	168	8
171	171	35
1	1	21
96	96	10
113	114	4
141	141	30
5	6	15
130	130	13
74	90	2
8	15	2
89	89	16
129	130	9
146	147	10
10	10	25
25	26	9
58	72	1
32	32	45
90	90	23
4	7	7
142	142	34
96	97	7
30	31	22
51	52	11
32	37	5
127	127	12
155	180	5
51	51	12
67	67	17
109	109	22
77	77	18
162	162	7
43	44	8
146	156	3
130	131	17
143	143	31
43	43	23
41	42	14
110	110	23
157	158	8
10	18	4
131	148	2
25	28	4
99	99	4
75	75	22
164	170	7
57	57	5
28	28	27
128	128	12
140	140	30
161	161	13
164	165	4
149	149	16
131	131	24
29	31	8
13	14	14
95	95	42
132	133	8
6	39	2
31	31	26
9	14	3
40	40	27
33	33	37
10	12	8
39	40	19
165	165	17
8	9	17
27	27	19
4	4	27
19	19	38
60	61	8
19	31	3
30	51	2
166	166	16
139	161	3
133	134	17
0	0	47
16	16	24
0	5	3
0	1	8
79	79	9
5	8	6
37	38	8
152	152	14
154	154	43
179	179	32
85	86	4
104	106	4
31	33	2
178	178	20
63	63	8
72	73	3
160	160	8
4	6	4
23	24	16
86	86	14
97	97	20
170	173	1
26	26	35
8	8	21
96	142	2
105	105	5
74	74	7
96	141	1
66	66	10
135	135	29
142	143	12
6	7	16
20	22	5
58	59	5
174	174	14
21	39	3
98	99	1
22	34	6
15	16	14
31	44	6
12	35	6
53	85	2
146	146	4
34	34	29
172	172	31
17	18	5
132	173	3
44	44	27
155	156	16
14	14	42
113	124	1
83	85	9
122	122	21
61	74	3
26	32	2
53	53	4
37	41	5
92	92	4
37	39	11
126	126	10
22	23	12
99	101	1
83	86	2
126	131	1
122	123	2
38	38	51
18	27	3
24	26	8
15	41	4
15	15	37
17	29	4
83	83	7
96	106	2
0	6	3
162	163	4
13	33	7
102	102	7
106	107	8
13	41	2
80	81	20
9	9	32
61	62	2
88	89	6
104	105	5
34	50	2
42	42	38
132	132	18
57	95	3
22	24	2
131	159	2
73	81	4
171	172	8
52	52	27
33	45	2
88	90	2
56	58	2
3	4	20
31	35	5
1	5	2
6	6	43
74	109	2
1	2	10
180	180	8
102	126	4
7	7	17
17	17	26
118	119	5
22	25	7
169	169	3
88	91	2
125	125	15
13	13	23
106	108	5
123	124	12
65	65	12
72	164	3
11	14	10
122	130	4
45	45	20
2	33	1
170	170	7
35	35	30
113	113	12
110	111	9
21	22	13
91	145	2
41	43	16
33	34	7
133	133	9
20	21	8
96	139	2
132	134	1
28	30	11
18	18	43
28	33	3
4	41	3
56	57	2
172	173	12
154	155	7
17	27	2
161	162	11
100	101	6
108	108	8
130	151	3
101	103	2
24	24	34
153	153	22
71	103	1
152	166	4
139	139	22
82	82	20
124	124	13
85	85	3
19	43	7
168	169	7
126	151	1
115	118	2
29	32	4
92	97	1
9	10	10
11	13	5
10	11	26
94	94	13
18	20	6
43	54	5
173	173	27
136	137	6
68	68	19
13	15	5
157	161	7
18	19	19
120	121	5
174	175	7
147	147	20
33	36	7
59	59	18
76	95	2
26	29	3
152	154	4
82	90	4
3	5	8
40	41	7
55	57	1
111	113	3
27	28	11
79	125	3
41	41	13
93	93	19
171	175	2
176	176	24
42	132	1
118	144	5
61	61	7
101	143	1
167	174	3
118	139	2
62	64	2
116	117	8
87	89	5
29	29	19
10	13	4
62	63	13
57	71	3
110	131	3
78	78	14
151	151	11
118	122	1
86	89	1
163	164	8
152	153	13
62	62	11
119	120	4
136	136	21
150	173	4
2	17	2
121	121	7
110	174	1
179	180	1
147	164	1
151	153	6
138	138	16
36	37	3
118	140	1
96	101	4
59	64	1
106	123	3
36	38	4
6	8	6
31	32	13
120	120	19
59	60	8
9	12	7
101	101	13
39	42	2
73	94	5
34	54	2
132	138	1
154	158	6
1	4	3
58	58	25
108	123	1
139	141	3
81	81	8
123	123	14
21	21	7
156	156	15
155	155	8
139	154	1
150	151	6
167	168	5
51	53	5
140	141	7
115	119	6
114	144	3
16	18	4
73	73	19
55	56	4
64	94	6
140	161	2
167	167	18
7	8	15
156	171	1
80	82	4
3	9	4
12	16	3
101	102	2
21	38	5
74	75	6
114	121	8
158	158	13
101	127	1
76	76	7
9	15	5
19	45	6
35	38	8
177	178	2
59	141	2
95	96	6
71	72	8
117	118	5
111	111	13
142	145	11
28	29	15
150	169	3
143	165	2
118	118	14
117	119	3
72	72	7
164	164	12
125	126	13
2	2	25
10	14	5
63	64	6
26	27	16
39	66	2
131	173	12
31	50	9
117	117	5
127	173	1
154	174	2
150	150	15
114	133	1
87	87	5
166	167	13
60	60	4
56	79	2
102	104	3
112	112	15
95	112	3
115	116	5
139	148	2
130	137	2
50	50	12
81	84	1
7	17	2
37	37	18
156	174	5
114	143	3
39	78	2
15	29	2
6	14	3
147	148	10
1	17	1
49	49	3
37	88	2
3	30	3
73	74	4
151	169	3
13	36	4
80	91	1
9	35	1
150	158	3
18	21	1
106	106	4
91	122	2
22	31	1
151	152	4
82	145	1
165	170	5
4	8	9
92	106	2
161	164	4
24	25	8
115	115	3
130	157	3
8	10	1
133	149	3
79	80	1
30	30	8
98	98	6
109	157	4
6	10	5
65	67	3
50	51	5
145	145	19
123	150	2
9	20	3
9	11	4
101	105	1
8	11	1
130	171	2
93	148	5
104	104	10
72	75	3
29	30	22
127	128	4
76	79	5
134	140	3
152	155	1
119	146	3
147	170	2
103	124	4
13	20	2
129	151	1
92	94	1
80	80	8
62	75	1
60	65	2
24	28	3
108	109	2
70	71	3
77	78	14
108	119	4
26	28	3
169	174	3
74	149	6
2	10	1
80	95	2
16	44	1
95	141	1
163	165	1
116	116	7
99	100	1
141	147	3
19	42	2
35	36	4
153	156	3
134	135	5
53	54	8
59	71	1
125	149	3
15	31	2
115	117	2
72	89	2
43	45	3
32	33	4
2	29	3
21	23	1
35	89	3
2	7	3
90	91	16
117	146	2
11	35	5
50	52	3
1	41	3
1	6	4
93	103	1
100	112	1
131	174	1
91	93	6
153	169	3
32	41	2
145	164	3
94	95	6
123	152	1
57	79	2
39	41	4
142	149	2
144	145	4
151	168	1
127	129	3
75	93	2
97	98	3
26	64	1
115	140	8
80	98	1
163	172	1
148	154	1
119	121	1
112	117	5
172	176	2
16	39	2
171	173	2
148	155	8
57	61	2
94	147	2
79	111	3
81	82	4
21	24	4
98	101	3
90	92	4
5	7	1
122	124	1
66	68	6
157	157	19
16	41	1
75	76	5
126	128	2
137	138	4
39	55	1
170	171	3
138	148	1
18	44	2
57	58	6
2	5	5
73	80	4
65	106	4
111	119	3
7	10	4
131	132	7
138	149	2
33	42	4
2	6	2
149	150	7
40	45	5
119	119	13
91	96	3
93	97	1
114	124	2
2	3	8
0	9	4
52	53	2
11	45	2
10	51	2
142	158	2
123	149	2
77	79	4
166	170	2
176	177	2
144	153	1
19	20	6
84	84	8
150	172	3
137	137	6
4	42	3
55	60	2
96	146	2
25	27	1
113	123	1
108	112	4
123	125	1
16	17	10
107	108	5
99	109	2
141	148	1
82	86	3
77	91	2
121	125	1
125	130	3
112	113	3
131	137	1
84	86	1
148	168	2
12	22	1
32	35	4
112	130	1
143	146	2
126	153	2
141	142	2
71	74	2
112	167	2
64	65	1
97	147	1
6	38	1
163	163	4
84	87	2
108	110	2
153	167	1
148	167	1
10	121	2
14	15	4
50	53	4
8	74	1
19	23	6
70	81	2
105	120	2
102	122	1
159	159	10
27	36	4
82	83	3
154	156	2
105	107	1
124	125	1
8	13	1
80	84	5
4	16	2
163	170	1
147	157	2
0	10	3
18	37	3
95	99	2
159	160	3
81	83	3
173	175	2
141	146	1
83	87	2
163	179	1
175	176	2
82	91	2
158	159	5
76	96	1
3	41	2
144	144	5
118	120	2
14	25	2
19	22	4
24	39	2
103	105	4
86	87	3
9	39	2
167	172	1
178	179	2
31	51	1
160	162	1
34	35	2
20	34	3
74	99	1
35	42	1
3	25	1
175	175	3
4	9	2
149	158	3
64	64	5
126	173	2
83	88	2
17	20	1
160	166	4
33	54	3
165	166	1
111	112	2
103	103	3
171	176	1
113	116	1
2	11	4
23	26	1
84	85	2
14	16	1
167	171	1
146	176	2
6	13	1
147	168	1
36	39	2
107	109	2
37	40	1
109	110	1
38	41	2
155	174	2
160	161	2
70	70	1
20	25	1
18	22	1
9	13	2
81	95	4
73	75	1
43	163	1
150	154	4
116	118	4
90	93	1
113	154	1
135	136	1
88	88	1
140	147	1
1	29	1
76	94	3
146	151	1
6	11	1
29	56	1
126	127	3
169	170	3
35	37	1
2	20	1
128	129	1
170	172	1
148	151	1
46	46	1
128	158	2
24	38	1
24	30	1
169	171	2
108	149	2
19	21	2
103	106	2
106	110	1
101	104	3
10	16	1
42	43	3
177	177	2
81	91	2
130	132	2
139	140	2
162	170	1
4	5	2
11	18	2
83	84	1
54	60	1
93	94	2
32	44	2
78	79	2
74	80	2
71	114	2
121	126	3
122	125	2
7	29	2
124	150	2
153	174	1
123	137	2
84	111	1
78	85	2
65	66	1
125	173	2
149	153	2
44	45	1
67	103	2
13	17	2
131	158	2
138	145	2
4	34	1
126	129	1
14	21	1
141	143	1
12	15	2
54	56	1
153	154	2
149	171	1
27	29	1
170	174	1
82	97	1
17	21	1
37	42	1
0	2	2
22	42	1
155	157	1
31	40	3
5	23	1
101	144	2
71	149	1
168	170	2
56	95	2
66	110	1
171	179	1
145	148	1
14	34	1
11	15	3
24	27	2
33	87	2
174	177	2
76	91	1
25	38	2
114	122	1
31	38	1
8	30	1
168	178	1
148	169	1
91	94	1
4	15	1
10	32	1
151	154	1
97	113	1
1	36	1
74	89	1
1	3	1
169	172	2
72	94	1
50	93	1
142	147	1
92	93	1
