43	43	9
75	77	3
21	23	2
94	96	1
30	30	9
28	28	8
96	96	11
44	44	11
37	37	8
58	58	2
19	19	7
66	67	6
89	90	2
75	101	4
60	61	4
68	91	1
19	22	4
94	95	8
104	104	1
66	66	12
106	106	5
79	80	3
98	98	7
27	27	6
78	78	14
82	82	4
71	71	5
29	29	13
75	95	6
65	66	1
98	103	3
68	84	2
25	26	7
46	46	7
105	106	9
34	34	6
99	105	2
53	60	1
66	68	6
61	62	8
93	93	7
62	62	8
85	86	3
65	111	2
40	41	4
39	39	1
21	21	9
41	41	3
102	102	8
34	36	3
68	68	3
79	79	13
43	44	2
112	112	2
87	87	6
96	97	5
81	81	5
101	101	13
80	81	4
100	101	2
84	84	6
110	110	7
99	100	8
103	104	3
78	79	4
90	91	7
40	40	1
68	93	7
46	48	3
91	91	7
32	35	4
77	78	5
38	39	9
105	107	4
71	73	2
73	74	3
72	75	1
95	95	2
47	48	5
33	34	3
98	102	4
50	52	2
97	98	7
80	80	6
104	107	1
103	103	5
55	55	5
24	25	8
42	42	6
63	64	3
70	75	4
20	20	1
41	82	2
50	50	6
106	107	5
44	49	2
56	57	1
87	90	3
25	25	2
101	103	2
31	31	6
24	24	7
99	99	2
54	71	2
48	49	2
45	46	2
109	110	6
76	77	8
108	108	8
22	22	7
86	86	1
111	111	2
68	100	1
70	70	5
49	49	1
88	88	3
46	47	6
74	84	1
75	94	3
64	90	3
110	111	2
63	63	3
90	92	1
64	64	5
74	74	4
77	79	1
81	89	4
75	75	3
47	49	4
23	25	2
22	24	2
85	85	5
53	53	1
52	52	5
50	51	1
64	65	2
32	32	5
105	105	3
41	42	1
113	113	4
89	89	4
41	44	2
90	90	2
83	83	1
102	103	3
100	100	2
88	89	1
22	23	2
62	65	4
55	57	1
33	33	4
115	115	2
41	43	2
38	38	6
107	107	2
20	21	1
77	77	1
67	67	2
62	71	2
59	59	2
29	30	2
65	109	2
36	36	3
23	24	1
95	96	4
62	63	5
76	76	3
19	21	2
35	37	1
92	93	3
109	109	3
74	95	2
93	94	2
51	51	2
113	114	1
107	108	2
74	92	1
23	23	2
83	84	2
73	73	2
26	26	1
97	97	1
32	33	2
87	88	1
44	48	3
32	36	1
32	44	1
75	100	1
61	61	1
71	72	1
23	27	1
39	84	2
30	31	1
99	102	1
34	35	2
21	25	1
67	70	1
47	47	1
108	110	1
82	93	1
101	102	1
92	92	1
