62	62	9
46	46	3
72	86	1
69	69	12
97	97	8
44	44	2
75	100	1
21	21	9
106	106	8
48	58	2
39	39	11
36	36	6
87	93	2
57	57	6
94	94	10
43	60	3
49	54	1
72	106	3
90	99	3
47	47	4
39	43	4
68	69	4
48	73	1
66	66	4
44	90	2
91	92	1
59	59	8
87	90	2
29	29	5
50	50	8
103	103	7
37	37	6
47	60	1
76	76	8
33	33	15
88	88	5
46	73	1
93	97	1
42	42	5
81	81	6
41	41	5
104	104	7
33	57	2
81	88	5
82	82	3
56	58	2
71	71	10
40	41	9
78	84	2
100	100	4
34	79	4
23	23	6
43	44	2
95	96	6
55	69	1
79	79	3
88	91	4
92	92	11
55	55	3
65	65	10
49	49	6
35	40	2
93	93	4
48	98	1
70	70	3
88	89	4
33	79	1
87	87	5
95	95	6
32	59	3
24	25	1
22	22	4
86	89	2
43	43	12
24	24	6
101	101	8
78	78	7
78	79	2
32	32	6
76	77	3
74	74	2
98	98	8
88	102	2
25	34	1
28	57	3
53	53	7
23	28	2
26	28	2
76	79	3
58	58	8
51	52	2
38	39	4
56	56	10
84	85	4
84	92	2
33	34	3
34	101	4
27	27	1
36	38	4
54	54	5
39	44	2
28	33	3
57	61	1
83	83	8
98	103	2
68	68	5
38	38	4
76	80	3
32	36	3
89	89	3
102	102	6
48	54	3
61	65	1
65	66	1
77	103	1
104	105	1
59	73	1
28	28	5
23	24	1
96	96	4
45	94	1
40	40	3
45	59	2
62	63	2
101	102	1
41	44	2
77	77	2
91	91	5
96	97	2
67	69	2
67	67	3
41	66	1
67	68	1
63	63	2
38	57	2
51	74	1
31	32	4
88	99	2
35	35	2
76	100	1
82	97	2
54	71	2
48	48	4
20	20	3
99	99	2
96	102	2
25	25	2
42	44	2
85	85	2
69	70	1
64	64	1
42	43	2
29	30	1
50	52	1
46	60	1
31	31	5
59	98	1
78	94	1
82	89	2
64	68	1
106	107	3
75	75	3
47	98	1
70	72	1
67	70	1
30	30	2
84	84	1
39	40	3
65	68	1
32	45	2
57	65	2
86	86	2
83	84	1
85	87	1
60	60	1
36	39	1
80	80	2
57	66	2
45	79	1
73	73	1
60	65	2
90	90	1
83	86	2
89	90	1
51	51	2
43	89	1
101	103	1
37	40	1
62	65	2
97	98	1
49	90	1
58	66	2
32	70	2
79	80	1
79	81	1
76	78	1
37	38	1
62	95	1
93	98	1
75	101	1
25	29	1
72	72	1
41	43	1
34	80	1
82	88	1
