199	199	6
161	161	10
190	190	3
93	94	3
162	163	1
178	181	3
202	203	5
98	98	4
187	192	2
110	111	2
32	33	3
180	185	3
243	244	6
152	153	4
166	166	17
61	65	4
104	106	3
8	8	7
118	118	2
52	53	2
119	119	13
67	67	8
20	20	3
109	109	5
77	77	2
112	112	8
197	197	11
63	63	6
84	84	3
215	218	3
208	208	5
11	11	8
226	226	6
19	19	7
187	189	3
14	15	7
35	36	2
237	237	4
59	60	3
23	23	6
71	73	7
113	113	6
43	44	3
195	195	2
1	10	7
43	43	14
47	73	5
90	92	2
189	196	4
157	158	4
86	87	1
121	144	2
162	166	1
233	233	9
170	172	3
205	205	13
170	170	4
99	99	5
57	57	8
157	157	11
176	176	5
237	238	11
49	87	4
167	167	6
182	183	1
206	207	7
117	118	4
81	102	1
197	199	2
21	21	3
66	67	1
205	206	3
26	26	6
54	55	1
4	29	3
197	236	3
192	193	4
234	234	5
56	59	4
105	106	4
110	230	2
168	183	1
81	81	8
50	50	4
168	168	6
104	105	4
91	96	4
160	160	6
22	22	6
1	2	5
10	167	5
62	63	2
220	220	6
80	82	3
240	240	6
55	55	8
198	199	7
165	166	3
219	235	3
9	9	4
161	183	2
182	182	7
203	203	4
78	78	3
168	211	5
158	165	4
38	38	9
118	119	5
183	206	4
186	186	4
185	185	6
197	198	1
51	51	8
15	60	5
34	239	3
175	175	7
174	178	1
9	205	5
72	73	2
107	108	3
18	22	4
247	248	2
178	178	9
113	114	4
53	53	5
212	212	2
80	80	1
180	184	2
191	192	2
10	10	4
34	34	11
156	156	7
222	222	3
156	164	1
219	219	1
44	172	2
237	241	3
192	195	8
177	177	2
19	38	5
159	159	5
211	246	4
52	110	4
174	174	3
74	75	4
65	65	2
83	86	1
152	152	1
91	91	4
246	246	6
7	8	2
175	178	3
82	82	2
19	56	2
230	246	1
214	214	3
202	202	1
109	110	3
176	181	3
158	158	2
4	58	3
195	232	3
7	7	6
87	88	8
228	229	2
94	94	2
59	65	3
217	217	5
180	181	4
20	38	3
6	39	2
210	211	2
115	115	5
80	81	2
179	179	11
73	73	6
110	110	5
232	233	5
89	89	2
52	52	4
71	71	5
36	36	4
29	31	5
207	207	4
75	88	4
163	189	4
89	90	9
110	117	2
54	54	5
79	79	2
79	82	4
167	208	1
248	248	4
28	28	11
73	80	4
99	102	2
59	59	5
189	197	3
163	163	4
241	242	1
117	117	4
119	239	3
187	187	3
225	225	7
166	179	1
227	227	3
180	183	3
158	171	3
209	209	3
97	97	2
245	246	2
229	230	4
29	29	3
31	32	7
154	154	5
60	60	2
178	193	3
47	48	1
218	218	6
32	32	7
244	245	1
204	204	3
29	30	1
173	173	6
155	155	3
1	1	5
101	104	2
38	39	5
116	231	3
75	84	1
93	104	2
35	35	2
246	247	2
213	247	1
194	194	1
232	232	4
112	113	2
161	178	2
238	238	1
5	5	4
111	245	1
72	74	3
214	215	5
172	187	3
162	178	2
169	169	1
230	230	3
211	211	3
165	208	6
212	221	3
60	80	1
88	88	3
217	233	3
168	169	3
96	97	4
108	241	6
106	107	3
8	12	1
81	83	2
115	116	3
188	188	3
151	151	9
81	84	1
113	120	1
188	199	1
236	246	3
170	171	3
76	77	3
95	96	2
161	162	2
146	146	2
102	154	1
213	214	1
165	184	2
45	45	8
72	76	4
46	50	1
223	223	4
46	182	2
201	201	6
20	56	1
41	41	4
238	239	9
221	221	1
83	83	3
90	102	5
85	90	3
178	208	2
105	105	6
40	40	4
165	165	1
93	97	1
242	242	1
96	96	2
192	192	8
171	171	3
86	86	7
90	90	2
30	30	4
146	147	1
231	231	4
196	196	1
92	92	3
176	178	3
74	74	2
44	44	4
81	194	1
33	35	3
203	204	1
145	145	1
41	42	1
116	116	2
20	21	1
47	47	3
46	46	4
64	64	3
181	181	2
243	243	2
32	47	2
49	88	2
242	244	1
8	9	1
202	205	2
51	52	1
102	104	2
16	16	3
25	25	6
183	184	2
229	233	3
164	164	2
159	160	2
41	230	1
49	117	1
6	7	2
211	219	2
180	195	1
71	72	1
31	50	2
167	169	2
91	92	2
202	238	1
85	86	6
191	210	1
224	224	2
230	231	1
213	213	2
81	82	2
156	173	2
102	102	1
87	87	3
48	49	1
193	193	1
216	216	3
241	241	6
58	58	3
33	33	4
184	209	2
178	179	1
15	62	3
169	183	1
68	98	1
150	153	2
95	98	2
163	193	1
86	98	1
163	164	2
211	212	1
200	200	2
27	28	1
97	98	1
3	5	2
167	186	2
236	237	2
5	238	1
60	64	1
239	239	2
7	228	1
70	70	1
192	194	2
37	38	4
175	210	1
48	48	2
95	95	4
60	65	1
114	115	2
195	233	1
42	42	1
1	18	1
228	228	2
3	3	1
68	70	3
208	210	1
12	15	2
193	197	1
76	78	2
189	189	1
39	39	2
99	100	2
27	27	1
110	248	2
235	235	3
34	105	2
14	47	1
85	87	1
238	246	1
93	93	1
210	210	2
223	225	2
18	20	1
86	89	1
169	170	3
229	232	1
168	172	1
111	111	1
247	249	3
151	201	1
3	6	1
35	93	3
189	190	1
60	61	1
154	203	1
64	66	1
209	213	1
21	22	1
77	84	1
220	222	1
169	236	1
217	232	1
18	61	2
61	67	1
218	248	1
85	85	2
14	59	1
147	147	2
89	98	1
216	217	3
55	56	2
187	188	1
225	226	1
158	160	1
61	61	1
183	183	1
94	110	1
192	210	1
204	205	1
