103	114	2
144	144	2
50	54	2
42	42	10
124	124	4
13	13	3
137	137	4
47	47	7
15	15	10
144	147	3
17	17	1
36	37	5
8	8	4
36	36	2
2	4	4
40	40	2
97	104	4
69	69	3
138	138	3
87	88	2
13	14	2
83	111	2
61	156	2
135	135	3
37	37	3
96	97	1
75	75	7
22	139	6
43	43	6
131	131	5
53	53	4
110	112	4
80	80	2
82	82	6
148	148	11
46	49	1
40	129	1
134	134	8
129	130	5
88	89	3
65	66	5
6	139	5
31	31	4
119	120	10
141	142	3
95	142	3
129	129	9
7	8	1
48	49	2
142	142	2
155	155	5
123	123	1
50	86	4
94	94	1
10	10	5
48	48	1
136	155	4
35	35	9
155	157	2
118	118	7
34	34	2
95	96	1
87	87	5
121	121	6
98	98	3
108	109	2
109	109	3
157	157	5
121	123	1
95	98	1
111	115	1
105	106	2
132	156	2
108	110	3
96	155	2
0	0	11
89	142	1
0	5	2
147	150	4
5	6	3
127	127	2
157	158	2
50	50	4
112	124	4
30	88	8
73	73	9
99	99	5
78	78	1
145	145	2
131	151	2
50	57	2
68	68	3
38	38	2
46	46	1
25	25	2
5	5	5
110	110	3
86	136	2
23	23	2
128	131	3
70	105	3
4	5	3
51	51	3
12	12	1
90	90	1
88	88	2
93	93	3
87	91	1
149	149	4
116	118	4
111	111	6
49	49	1
11	11	7
23	24	1
25	42	1
130	131	2
35	36	3
91	92	2
97	155	2
12	13	1
136	136	2
103	103	5
100	100	3
14	14	1
41	45	1
15	36	2
6	6	3
29	29	1
106	107	4
86	86	1
77	81	1
125	148	3
85	85	2
101	101	4
140	140	1
158	158	9
136	140	2
155	158	1
91	132	4
4	4	3
68	70	2
10	53	3
16	18	2
49	53	1
46	78	1
154	154	2
95	97	1
35	51	2
114	115	3
151	155	1
110	111	2
145	147	1
128	128	2
45	47	3
1	1	3
146	146	2
148	149	1
86	135	4
25	38	5
132	132	3
89	89	3
143	144	2
102	102	4
139	158	1
3	110	2
108	108	2
117	117	1
120	149	1
152	152	3
41	41	1
109	110	3
92	120	2
30	30	1
139	139	2
85	86	3
117	121	2
86	113	1
126	126	3
91	91	1
84	86	3
9	9	2
6	23	1
134	135	2
8	52	1
32	32	1
138	142	1
95	95	1
156	156	1
25	27	2
45	46	1
73	75	1
143	151	3
16	19	1
11	34	1
90	91	1
106	106	1
50	55	1
29	82	1
17	33	1
13	39	1
35	37	1
113	114	1
144	148	2
142	143	1
141	141	1
144	146	1
16	20	1
153	153	1
156	157	1
20	21	1
40	41	1
21	21	1
