92	92	10
20	21	4
125	161	1
38	38	7
71	72	1
37	39	1
82	82	8
57	57	3
139	142	3
21	21	5
148	149	2
22	22	6
23	154	1
87	93	2
107	107	3
136	137	1
64	64	7
89	89	5
77	123	3
0	3	8
50	50	6
120	120	9
56	56	4
111	112	2
127	145	3
87	87	10
52	77	4
80	80	10
81	81	3
81	82	2
122	141	3
101	101	3
94	95	3
6	6	6
39	39	4
2	2	4
106	106	3
148	148	1
1	1	6
7	7	3
24	24	3
77	77	8
69	70	5
8	13	1
19	19	4
7	18	2
166	166	2
137	165	2
159	160	5
131	131	1
130	130	4
27	70	2
123	125	4
145	145	4
134	134	5
27	27	1
140	143	4
83	89	1
3	3	9
145	147	5
72	72	6
66	66	1
137	137	3
167	170	3
88	89	3
105	142	2
68	68	3
84	85	6
114	153	2
16	111	1
16	16	4
142	142	5
121	121	4
6	7	3
146	146	6
76	146	1
101	107	4
5	5	2
8	8	5
125	145	3
104	105	4
0	1	3
133	133	1
46	46	3
84	84	5
80	81	2
37	37	3
135	136	4
44	55	3
109	109	4
10	10	4
25	25	7
112	113	1
73	73	4
114	115	3
4	4	5
9	9	5
41	41	5
99	99	2
98	98	3
155	155	1
135	135	2
100	100	4
36	42	1
21	22	6
76	83	3
4	14	2
40	50	1
165	165	1
5	6	1
69	69	4
53	53	5
18	26	3
83	83	3
163	163	3
160	160	2
149	167	2
96	96	4
38	39	4
122	122	3
27	72	2
40	40	1
56	81	1
161	162	7
23	23	1
138	138	6
44	44	1
93	96	1
4	6	6
8	9	1
108	108	4
45	45	2
55	55	3
161	161	1
158	158	5
78	79	1
35	35	1
19	51	2
82	146	1
51	78	1
18	18	6
36	36	1
113	120	2
40	41	1
84	105	1
0	0	2
66	74	1
140	140	2
85	85	3
67	67	2
11	102	1
127	128	2
35	49	3
47	47	3
129	129	1
97	97	1
89	100	2
133	135	1
67	69	2
141	142	1
149	149	1
136	136	1
144	146	1
142	152	1
87	88	1
53	84	2
50	51	1
2	17	1
164	164	1
152	154	1
148	167	1
68	69	1
38	49	2
72	73	1
35	53	1
37	57	1
52	52	2
22	24	3
104	141	1
104	104	3
25	71	3
23	24	4
103	105	2
141	141	1
154	154	3
168	168	1
125	125	1
155	162	3
91	96	1
49	51	1
93	93	1
26	26	2
150	159	1
76	76	2
48	48	3
105	144	1
169	169	3
130	131	1
103	165	2
85	86	2
111	117	1
39	41	2
8	12	1
128	132	1
111	111	1
4	18	1
157	158	1
57	135	1
86	86	2
33	33	2
38	41	2
15	15	1
112	112	1
122	123	1
143	144	1
128	129	1
18	19	2
139	143	1
13	13	1
75	143	1
128	128	1
