15	15	5
66	67	2
147	148	4
149	150	2
85	85	7
28	29	5
10	12	4
86	87	6
12	12	12
82	82	5
76	76	5
104	110	1
131	143	5
44	48	4
132	132	4
64	64	2
53	53	6
36	36	3
123	125	7
23	23	7
109	109	2
80	118	1
122	123	3
47	47	2
153	153	7
57	57	8
113	114	1
68	84	3
76	99	1
57	58	5
23	30	4
20	21	6
52	54	2
43	44	6
3	5	10
108	115	1
20	22	1
56	81	1
120	120	3
56	56	4
41	47	3
95	97	3
46	47	5
78	93	3
40	40	3
139	145	3
148	148	4
7	7	1
62	62	4
146	146	7
13	14	5
67	68	1
68	85	4
130	130	3
92	92	1
95	98	1
123	135	3
143	143	3
135	135	3
102	102	2
138	145	2
35	35	9
127	127	9
18	33	1
72	72	10
4	7	3
34	34	1
63	74	2
107	107	1
23	24	1
11	128	1
27	29	3
33	33	5
17	38	2
10	14	2
31	34	4
21	21	3
25	25	4
144	146	1
39	41	2
39	39	3
108	108	10
41	41	1
56	86	1
152	152	5
27	85	3
137	137	7
81	81	3
42	42	6
119	139	6
4	4	1
50	52	1
13	13	3
131	145	2
144	144	2
124	143	1
33	37	2
16	24	2
44	44	2
125	125	2
151	151	3
133	133	4
93	93	2
17	17	9
66	66	3
33	71	3
8	8	8
42	44	2
46	46	1
18	19	2
69	69	5
32	38	3
115	116	4
10	10	5
84	85	3
39	40	2
103	103	4
83	85	1
145	145	1
51	51	4
142	142	4
31	32	3
23	49	2
88	88	1
149	149	4
76	91	3
40	41	1
121	122	2
39	76	5
142	144	2
49	53	3
147	151	2
129	129	5
51	56	1
83	120	1
97	105	1
30	58	4
140	142	2
50	51	3
14	15	3
15	16	7
33	63	1
31	38	1
29	29	5
72	73	1
137	139	2
64	82	4
73	74	2
102	103	1
4	18	4
38	69	2
122	139	1
42	43	1
123	126	2
115	115	1
94	102	2
32	42	4
5	5	2
56	57	3
46	85	1
141	141	3
28	50	2
74	75	2
52	57	3
126	126	3
114	114	1
106	106	1
32	33	1
37	37	1
3	38	1
31	31	2
68	69	2
2	2	2
32	81	2
71	71	3
123	136	1
17	26	1
26	34	2
53	71	1
10	11	3
93	99	1
48	49	4
67	67	5
71	72	1
11	35	1
42	72	4
54	56	1
32	34	3
35	37	1
107	109	1
58	58	2
103	108	2
27	27	4
136	136	2
24	25	3
105	107	1
11	11	2
65	67	2
16	16	3
39	64	1
32	32	2
145	146	1
10	22	1
55	55	2
11	37	1
45	45	2
126	134	1
69	70	4
138	139	1
80	120	2
124	136	2
123	134	2
18	35	1
28	28	1
49	51	1
86	86	1
37	38	1
139	140	1
121	121	1
106	110	1
39	51	1
119	122	1
136	137	2
115	117	2
122	122	1
28	64	1
44	45	1
106	111	1
121	143	1
80	82	3
63	63	2
76	77	1
78	78	2
98	98	3
29	32	1
36	37	2
26	32	1
6	6	1
3	3	1
29	30	3
35	36	1
70	70	1
27	38	1
90	92	2
45	70	2
64	66	1
11	14	1
4	10	1
101	111	1
87	88	1
18	18	2
12	51	1
4	17	1
24	24	1
11	12	3
100	100	3
20	20	3
77	81	2
55	79	2
65	68	1
82	131	1
94	94	1
112	112	1
105	105	1
27	28	2
102	106	1
40	77	2
11	13	1
99	100	1
14	14	1
28	52	1
30	30	1
120	121	1
132	134	1
28	30	1
134	134	1
101	101	1
30	34	1
88	93	1
33	56	1
117	118	1
