117	117	7
126	126	7
80	80	7
71	71	3
83	83	3
77	77	4
97	97	5
44	44	5
106	108	2
129	129	5
121	121	20
91	91	14
109	113	2
125	125	4
120	120	8
7	7	3
13	13	2
71	72	2
1	9	9
89	90	7
134	134	15
18	19	3
1	8	1
137	137	8
89	89	7
128	128	9
124	124	8
15	15	5
74	74	3
84	84	10
27	27	5
5	5	4
77	78	2
5	25	1
73	74	2
26	26	1
30	30	5
122	140	2
132	132	11
130	130	4
121	122	7
92	92	3
0	0	6
81	81	10
92	94	4
111	111	5
133	133	4
11	11	1
127	127	11
99	99	3
111	112	2
32	33	2
16	16	4
74	75	2
73	73	3
92	93	2
2	9	1
127	129	5
140	140	4
104	104	4
84	87	2
78	106	1
120	121	7
33	34	4
93	101	4
93	93	7
90	115	3
109	111	2
99	100	2
108	108	9
118	118	4
131	131	5
101	119	2
113	114	1
93	94	4
6	6	7
100	100	4
93	130	5
96	96	9
9	9	6
84	85	2
131	132	2
86	86	2
89	91	3
95	115	2
89	116	1
123	123	7
71	117	1
129	130	8
109	109	3
82	82	1
128	129	2
78	107	4
77	103	2
127	136	1
139	139	1
96	109	2
81	82	5
30	31	5
116	116	1
18	18	1
78	78	9
103	103	4
76	77	3
95	95	4
117	118	2
90	90	3
102	103	3
106	106	6
79	79	4
75	76	2
81	126	2
21	21	1
98	99	1
22	32	3
1	14	3
101	101	1
87	87	2
107	129	2
1	1	1
135	135	3
4	4	3
120	122	4
34	34	4
126	127	2
135	138	2
27	28	1
76	76	4
112	112	3
84	94	1
137	138	4
17	28	4
79	100	2
138	138	4
36	36	3
28	29	3
114	114	4
80	101	2
128	137	2
102	102	7
16	17	3
98	104	4
14	14	2
85	85	9
91	104	2
3	3	2
117	119	1
80	83	2
85	105	2
130	131	1
24	29	3
94	123	4
136	136	4
87	104	1
24	24	2
122	122	13
1	11	2
80	81	1
123	140	2
110	110	3
83	85	5
74	77	1
124	125	2
107	107	3
78	105	4
87	92	1
35	35	3
88	88	7
22	22	2
7	19	1
138	139	1
72	72	7
135	137	3
32	36	3
38	38	3
97	131	1
21	26	2
118	119	7
21	25	1
29	75	1
108	130	1
99	101	1
23	24	1
29	30	1
33	33	1
85	102	1
94	118	2
100	101	2
82	83	4
117	124	1
77	96	1
2	2	4
82	125	1
98	98	2
32	32	2
77	108	3
94	94	1
73	81	3
132	133	1
117	125	3
23	30	2
83	84	2
80	126	1
68	68	3
82	102	2
119	120	2
26	27	1
12	12	1
71	73	1
28	30	2
136	139	1
122	123	1
89	123	2
8	13	1
37	38	2
37	37	1
98	132	2
94	100	1
73	80	1
4	5	1
84	101	2
79	106	2
81	83	1
87	94	1
101	102	1
115	115	2
19	20	1
13	20	1
10	11	1
71	76	2
13	21	1
104	105	1
109	114	1
86	116	1
100	103	3
36	37	1
27	72	1
134	135	1
121	124	1
15	16	1
110	111	1
28	28	1
134	136	1
13	14	1
