22	79	4
18	18	10
77	77	5
111	144	3
72	72	6
82	82	7
10	70	5
149	149	3
85	135	1
62	62	5
138	138	1
30	30	4
120	120	6
87	97	1
92	93	3
74	74	3
42	42	6
95	99	1
62	98	1
66	94	1
133	134	3
144	145	1
110	110	3
15	39	1
13	13	6
54	56	2
25	82	1
82	86	1
100	101	2
127	130	3
20	23	2
67	67	8
45	46	3
35	35	5
9	9	8
45	45	2
99	99	2
7	7	5
81	82	4
100	102	5
62	91	2
87	126	3
2	41	1
48	48	10
99	100	3
78	79	2
154	154	4
136	136	4
116	149	3
13	17	1
51	56	1
94	95	2
22	26	1
135	135	5
31	32	1
9	11	2
53	55	7
29	30	4
38	75	2
124	137	1
100	107	2
75	78	1
51	51	4
64	67	5
121	126	3
23	23	4
126	136	1
84	84	4
40	40	10
30	53	3
53	54	2
21	24	4
67	68	3
38	51	2
114	114	2
76	77	5
46	46	8
57	57	2
129	129	2
67	75	1
93	93	7
12	85	2
63	65	1
103	109	2
73	73	7
150	150	4
80	80	1
127	127	5
27	27	2
5	6	3
92	112	1
46	47	7
137	138	2
132	132	2
95	98	4
133	133	4
65	65	1
103	111	1
141	141	3
36	36	6
103	104	2
101	103	2
107	109	1
64	65	1
25	85	2
3	3	1
6	6	4
85	86	1
70	70	2
81	83	3
54	120	1
13	69	1
103	114	1
103	103	3
109	109	2
40	46	3
22	22	6
36	42	2
118	118	1
150	151	2
27	28	8
98	98	1
83	85	1
130	130	4
69	118	1
68	69	2
14	17	1
53	53	9
25	25	1
98	137	1
151	151	4
19	19	7
136	147	1
124	125	3
151	152	3
26	40	3
101	102	2
24	25	2
66	66	1
79	134	1
17	17	3
64	66	3
69	69	1
137	145	1
11	11	5
119	120	1
43	44	3
54	54	1
49	49	5
7	8	3
38	38	2
90	97	3
63	64	2
23	82	1
112	112	2
6	8	1
11	12	2
21	29	2
5	7	1
41	41	4
47	47	1
39	39	2
119	122	2
121	143	2
36	53	1
118	123	1
126	126	1
6	20	1
95	112	4
22	27	1
33	41	1
122	147	3
97	97	2
97	98	3
83	126	1
100	100	6
44	141	2
77	79	1
108	139	2
8	10	2
137	139	4
68	68	3
76	109	4
106	106	1
4	4	2
108	108	3
104	104	1
98	99	2
47	57	2
8	9	2
87	108	1
120	130	1
50	51	1
81	92	1
97	113	1
117	118	2
82	136	1
5	5	2
4	29	2
74	75	3
72	73	2
68	71	1
37	37	2
131	131	3
16	17	1
24	24	4
85	108	1
111	111	1
10	10	3
112	123	1
104	109	2
50	119	1
16	69	2
89	126	1
19	71	1
145	145	1
76	76	3
119	119	3
69	73	1
122	123	1
71	73	2
142	142	1
28	28	1
101	101	1
42	53	3
81	81	2
32	32	3
104	106	3
24	67	1
136	138	2
116	116	1
43	43	2
84	85	1
10	11	4
121	125	1
130	149	1
40	63	1
54	55	1
49	53	2
144	144	3
127	128	3
122	122	2
83	84	1
87	139	1
26	27	1
134	134	1
41	43	1
35	36	3
84	134	1
34	34	4
87	87	2
125	125	1
7	14	1
3	64	1
42	43	1
19	20	1
35	53	1
113	113	1
62	67	1
107	113	1
49	118	1
83	88	2
14	14	3
14	26	2
21	21	3
16	16	1
9	48	1
63	88	3
148	150	1
64	64	3
84	97	2
86	112	1
34	35	1
115	129	2
67	93	1
62	114	1
111	145	1
25	34	1
153	153	1
73	77	1
30	58	1
85	88	1
44	44	1
33	33	1
115	115	1
65	68	1
143	143	1
22	23	1
105	111	2
103	105	1
146	146	2
96	96	1
15	15	1
79	79	1
49	119	1
26	26	1
18	19	1
129	130	1
8	8	1
117	117	1
83	83	1
72	74	1
41	42	1
86	86	1
123	125	2
148	148	2
86	98	1
88	148	1
28	29	1
108	109	1
63	63	1
65	66	1
74	88	1
110	144	1
6	15	1
33	34	1
66	84	1
36	63	1
29	29	1
15	27	1
