23	24	3
137	137	22
21	21	19
127	129	5
111	111	18
90	91	8
106	107	6
81	85	3
0	0	16
11	11	15
120	120	20
117	118	10
123	140	3
13	14	14
129	129	35
132	135	8
128	129	2
116	117	8
107	123	1
135	135	22
121	122	7
98	98	16
29	30	7
122	122	29
15	15	10
119	120	8
127	127	36
71	71	5
92	92	12
110	110	26
124	124	25
100	101	14
12	13	7
91	91	18
118	118	13
13	24	2
129	130	10
7	7	31
23	23	11
119	119	16
102	104	10
93	102	2
74	74	23
88	88	24
136	136	14
37	37	14
107	107	14
97	97	16
26	27	7
116	116	41
19	20	5
31	31	16
36	36	31
28	28	14
109	111	8
35	36	3
7	8	14
131	131	34
125	137	3
130	130	34
17	21	5
126	127	8
114	119	1
93	93	26
14	14	24
124	125	19
86	86	18
101	102	9
127	128	8
81	82	10
19	19	13
128	128	16
11	29	3
120	121	19
18	18	9
138	138	26
103	103	21
114	115	18
20	20	31
104	104	24
75	75	16
2	2	9
85	85	26
9	9	6
134	134	19
86	116	8
80	80	11
103	105	2
30	30	17
27	28	10
80	96	1
35	35	14
4	4	16
8	8	19
87	88	4
72	72	17
109	109	13
102	103	11
73	73	23
36	38	4
126	129	10
10	11	5
115	115	30
7	11	2
18	21	3
102	102	16
13	13	25
3	4	13
92	95	1
27	27	14
100	100	32
94	95	10
117	117	21
23	25	7
5	5	19
104	105	7
89	89	25
114	114	23
125	125	26
95	102	3
136	137	9
108	109	2
37	78	3
18	19	1
113	115	3
93	94	13
8	15	2
30	31	8
97	126	1
107	112	2
32	32	32
126	126	24
81	86	2
106	106	19
131	132	7
37	38	11
108	111	9
101	103	6
36	77	2
16	16	15
32	88	2
101	101	23
93	104	1
6	7	13
71	72	7
99	99	16
134	135	13
135	137	10
122	123	14
113	113	14
16	18	4
79	80	2
137	138	7
112	112	17
123	123	24
15	23	6
6	6	5
79	100	2
44	82	1
114	118	4
95	96	6
14	26	5
29	29	8
102	109	5
81	81	15
73	74	5
28	29	9
24	24	2
124	126	4
16	22	3
140	141	3
12	12	15
12	20	1
22	22	10
4	5	12
133	134	4
113	140	4
95	95	4
83	84	5
1	1	3
25	26	3
135	136	6
26	26	9
101	104	6
25	25	12
34	35	16
10	12	3
2	4	8
16	20	3
96	96	6
97	130	1
73	76	8
75	87	1
125	130	5
73	78	2
6	101	6
123	124	11
82	86	3
135	139	10
6	35	3
110	111	10
1	2	4
135	140	1
132	132	20
86	88	4
124	130	1
121	123	11
17	17	17
22	23	9
21	22	14
3	3	6
127	137	2
0	2	8
5	7	8
83	126	3
78	78	20
82	96	4
109	122	3
77	77	10
15	28	2
25	29	2
27	133	4
99	100	9
84	86	6
7	20	1
28	33	1
83	83	6
74	76	6
118	128	2
133	138	1
133	133	17
82	82	10
8	9	3
77	79	1
76	77	7
106	123	1
8	16	4
116	118	5
106	110	3
102	107	2
88	91	1
124	137	1
124	136	3
84	84	7
14	15	3
4	6	2
109	113	9
24	28	6
139	140	4
140	140	19
9	13	3
89	94	3
18	29	1
118	119	5
112	113	1
130	132	4
11	21	2
87	87	23
83	85	4
95	100	1
97	99	12
27	29	14
125	126	14
33	34	1
138	141	2
14	27	1
17	18	12
97	98	3
101	107	2
111	112	3
124	138	1
17	19	7
89	97	3
76	76	10
103	104	9
112	124	1
132	133	3
108	110	4
75	76	2
24	25	5
36	37	7
87	95	2
139	139	12
73	82	5
98	99	2
107	108	7
79	79	11
19	38	2
78	79	4
38	38	5
119	122	2
15	18	2
11	12	2
34	34	18
33	33	6
96	101	1
119	124	1
113	114	6
126	128	3
128	130	2
77	78	5
137	139	1
32	33	1
138	139	8
90	90	15
27	32	2
8	10	2
85	96	2
78	85	1
16	21	3
10	10	2
80	82	6
121	121	8
109	112	6
16	17	5
98	100	2
93	96	1
127	130	1
113	116	4
12	32	2
100	102	6
105	105	6
124	140	1
24	27	1
102	108	5
16	19	1
130	131	4
115	117	4
20	21	8
108	108	8
84	85	1
1	23	3
89	98	3
106	108	2
23	35	1
82	85	3
8	13	2
126	131	2
131	133	4
124	128	1
123	130	2
6	21	1
73	77	2
86	87	7
136	138	1
123	133	4
121	126	1
82	83	3
94	94	6
138	140	7
93	98	2
78	81	1
31	32	1
5	6	1
109	110	6
30	32	8
74	75	10
19	21	2
118	125	5
89	90	2
116	119	1
72	80	1
93	101	1
120	122	4
74	87	1
72	74	1
107	109	2
133	135	1
115	119	2
108	121	3
110	112	3
12	15	1
108	123	4
89	95	2
125	128	3
97	100	2
125	138	2
16	23	2
29	31	3
12	30	3
107	110	1
72	73	3
112	139	1
106	139	2
92	93	1
125	127	2
80	123	2
110	117	1
96	97	2
117	120	1
118	124	1
94	98	1
11	30	3
3	7	1
24	26	3
9	15	1
20	28	2
73	75	2
28	32	2
118	120	4
95	101	1
89	91	2
7	15	1
120	125	1
90	96	2
6	15	1
105	107	1
81	83	1
84	129	2
132	134	3
115	140	2
29	33	1
27	87	1
99	106	1
74	79	1
21	23	1
12	14	1
117	122	1
112	120	1
5	10	1
84	103	1
13	15	2
111	121	4
121	124	1
137	140	2
14	24	1
3	6	1
9	12	1
98	115	2
11	16	1
125	133	1
112	115	1
5	14	1
131	140	1
29	32	1
91	94	1
82	128	1
117	119	1
15	16	1
110	119	1
