44	44	5
81	86	1
23	23	6
56	56	11
183	183	22
173	176	7
173	174	9
150	151	4
188	188	11
122	124	3
130	130	9
60	61	3
15	16	6
139	140	7
119	120	1
33	34	12
102	105	4
45	45	9
141	142	1
125	125	2
102	118	7
13	13	10
27	28	2
156	156	4
42	42	8
133	133	11
132	132	3
150	150	9
112	112	10
16	17	5
139	142	1
110	110	8
36	36	6
7	7	12
0	0	1
30	32	1
180	180	3
31	63	3
89	89	17
52	52	8
58	63	4
56	57	6
70	70	5
2	3	4
52	55	2
111	111	2
87	87	3
138	138	4
192	192	1
47	47	8
8	197	2
17	17	11
179	185	2
180	181	9
161	192	2
130	140	1
165	165	3
5	5	5
58	58	12
84	84	6
18	18	14
181	181	8
43	43	15
166	172	2
83	84	1
163	164	7
123	123	9
186	186	13
59	60	4
186	191	2
114	114	3
28	32	2
16	16	12
177	182	3
136	141	2
193	194	2
121	123	2
187	187	8
165	167	1
4	4	24
143	143	2
48	48	8
149	149	8
141	141	10
25	25	4
44	45	5
40	134	6
196	196	7
0	3	4
21	22	3
176	177	6
164	166	5
74	74	4
133	134	3
51	51	14
124	124	9
130	131	2
45	58	3
9	9	6
2	2	9
105	105	6
73	74	3
103	103	8
122	122	12
20	34	2
17	59	5
54	56	2
195	195	8
140	140	11
53	54	8
148	151	3
38	38	14
9	12	4
99	101	7
38	39	9
126	126	7
97	97	7
20	21	3
19	19	13
10	11	3
8	8	10
78	79	5
161	182	2
111	112	5
184	184	12
119	121	9
4	5	3
189	190	5
54	113	4
19	35	5
172	172	9
3	56	3
182	182	9
11	12	9
63	63	6
121	122	7
194	194	10
1	1	4
67	68	2
73	108	1
18	19	6
169	169	9
99	99	2
38	55	3
31	32	4
50	56	3
196	197	3
106	114	3
158	158	6
1	5	4
35	35	2
104	133	4
175	176	1
34	34	4
193	193	7
192	194	2
17	22	3
58	77	4
51	55	4
85	85	1
143	144	3
173	173	14
148	149	3
41	41	7
168	168	13
124	125	3
50	50	5
110	111	3
161	163	2
101	102	4
157	158	3
65	65	3
73	73	1
160	160	14
32	32	15
185	185	10
112	121	2
12	12	4
120	120	8
163	185	2
6	8	1
185	186	3
103	118	1
54	54	14
142	142	6
1	3	2
176	176	7
149	197	3
122	123	2
178	178	5
11	11	9
3	4	4
135	135	3
112	120	2
3	5	2
64	64	3
171	171	7
10	10	5
49	59	4
102	116	2
109	113	1
136	145	3
15	15	7
126	127	3
46	46	7
5	6	6
17	21	4
100	101	1
108	118	1
104	105	3
28	28	8
136	136	5
121	121	8
151	151	7
138	139	1
29	30	2
118	118	5
153	153	9
134	136	2
98	98	2
69	70	1
45	46	4
99	169	3
22	22	6
75	75	3
34	36	1
47	48	4
57	57	8
9	197	2
158	169	2
141	143	1
24	57	2
54	55	8
172	179	1
143	145	1
179	182	2
125	126	1
57	58	4
55	55	4
147	147	11
50	51	9
42	44	2
10	42	2
131	169	1
49	49	7
120	121	3
59	59	3
26	28	4
39	55	3
68	68	9
134	134	7
170	170	12
43	127	1
146	146	2
4	20	2
172	182	1
155	155	2
181	184	1
14	15	3
93	95	2
158	190	2
179	180	8
134	135	4
168	169	2
148	148	5
164	164	3
158	159	2
0	2	2
28	41	2
25	26	2
177	178	1
161	162	2
160	182	2
194	195	4
182	183	2
129	129	5
74	75	2
159	159	9
55	56	3
139	139	7
186	187	7
53	55	2
40	40	2
9	38	1
27	27	2
174	174	5
108	108	6
137	139	1
182	191	4
3	55	2
109	109	2
33	33	5
145	146	1
184	190	2
131	131	14
190	190	4
161	165	5
60	189	1
29	29	4
112	113	1
160	169	1
152	152	4
24	24	6
53	112	1
160	161	2
162	164	2
163	191	1
6	6	6
77	78	1
197	197	7
48	49	1
19	26	1
31	31	4
30	30	7
21	185	1
192	193	1
195	196	1
96	96	2
115	115	7
40	42	4
106	106	5
3	3	7
14	14	5
62	62	5
167	167	2
113	113	2
107	119	3
41	171	2
34	63	2
9	10	4
23	24	1
61	61	2
123	149	2
3	130	5
128	128	3
62	74	2
20	25	1
42	43	3
22	26	4
136	150	3
174	180	2
158	167	2
86	87	2
13	14	7
161	161	8
187	189	1
12	13	3
154	157	2
1	8	2
17	30	1
59	62	3
150	196	3
100	100	6
94	95	2
191	191	3
3	18	1
178	192	1
46	47	4
81	98	2
189	189	3
7	8	1
0	54	1
127	128	4
32	34	2
181	182	4
53	53	2
129	130	1
159	161	3
145	194	1
147	149	1
31	35	2
159	168	2
102	114	1
94	94	3
4	45	3
25	34	2
51	56	4
15	17	1
160	168	2
96	97	1
174	175	3
19	34	1
25	27	3
40	41	1
30	31	2
130	133	2
119	119	5
155	156	6
10	127	2
80	105	4
159	190	1
142	144	2
33	63	1
171	173	4
151	153	2
108	109	2
169	170	1
107	134	3
5	19	1
35	36	1
127	127	4
137	137	2
34	56	1
52	53	2
34	35	1
137	145	2
171	178	1
10	12	1
175	178	1
64	73	3
177	177	1
22	25	3
24	25	2
173	175	3
183	184	2
4	21	1
131	133	2
36	37	3
110	114	1
44	46	1
42	127	2
44	58	1
80	104	1
40	59	2
127	196	1
180	190	1
43	45	1
42	60	4
186	193	1
171	187	2
29	32	1
42	58	2
184	185	1
28	30	2
51	52	1
105	113	2
101	101	2
170	171	1
20	20	1
162	165	2
191	192	2
154	155	2
116	116	2
178	182	1
90	90	1
16	18	1
172	173	1
156	157	2
156	172	1
98	99	2
193	195	1
37	37	1
0	1	2
140	141	1
104	104	1
20	33	1
45	56	1
18	25	1
18	22	1
72	72	1
135	136	2
171	172	1
155	171	2
114	115	2
145	145	1
45	47	1
119	122	1
82	82	3
39	57	1
5	130	1
10	41	1
102	102	1
30	38	1
129	170	1
86	86	1
154	154	1
174	179	1
49	50	1
147	155	1
148	155	1
146	153	1
151	160	1
9	37	1
32	33	1
157	170	1
88	88	1
176	194	1
41	42	1
103	106	1
134	138	1
3	48	1
