186	186	10
8	8	13
138	138	3
26	26	13
72	73	5
142	143	8
126	128	1
92	121	2
2	2	8
149	149	13
146	146	6
21	21	5
117	127	2
38	38	3
29	29	3
45	45	3
165	165	6
13	13	9
75	76	4
40	40	10
60	73	1
58	69	2
140	141	3
8	65	3
65	65	4
24	153	2
146	147	2
90	95	1
95	96	6
71	94	1
133	134	1
67	68	1
139	139	5
59	59	7
84	170	4
24	135	4
165	167	1
169	169	4
98	100	2
37	37	5
11	64	3
89	142	2
122	123	12
185	185	2
93	94	6
90	120	2
83	152	1
104	104	8
88	88	7
104	133	4
95	95	12
24	24	18
170	170	4
145	146	2
121	121	5
82	82	10
153	154	3
19	20	3
46	47	4
5	5	3
77	81	1
111	171	2
97	97	9
101	101	2
143	144	5
48	52	2
182	188	1
4	14	6
140	152	3
92	92	10
103	103	4
35	36	3
19	19	13
55	55	13
188	190	1
33	33	9
127	127	12
79	146	1
22	22	6
29	30	4
136	136	7
105	155	2
90	90	8
22	134	1
39	39	9
95	100	1
163	163	2
23	48	3
13	14	3
30	31	6
152	152	16
147	147	5
60	60	3
103	104	3
129	129	10
11	11	4
89	103	3
158	158	11
184	184	3
68	69	2
94	95	4
117	117	12
77	77	14
25	26	3
188	189	1
41	41	10
57	57	2
28	32	1
152	153	1
94	94	7
110	111	3
155	156	3
106	155	5
99	99	10
47	47	5
179	180	2
156	156	7
22	23	3
180	181	2
110	110	5
23	137	3
111	118	6
113	124	2
162	162	10
85	85	9
131	131	7
43	43	10
134	135	7
76	81	3
91	91	8
93	95	5
24	25	5
97	98	7
119	119	2
36	150	1
114	114	6
172	172	8
81	98	4
13	15	1
76	83	4
19	21	3
31	31	5
140	140	8
164	164	6
93	93	2
108	156	4
113	114	2
55	87	1
178	179	4
62	64	4
7	7	11
130	130	3
56	56	6
27	29	17
61	61	8
10	11	7
64	64	2
109	110	7
151	153	1
167	167	3
148	148	3
52	53	3
115	115	4
105	106	2
78	78	9
27	27	6
17	18	5
84	85	3
159	159	4
78	80	1
28	28	3
125	125	7
136	138	1
45	46	5
17	21	2
106	107	2
82	83	3
82	98	2
59	60	3
117	139	1
127	128	3
173	173	5
23	23	12
100	101	2
92	119	1
190	190	3
126	131	1
17	64	1
12	12	12
174	174	5
64	65	9
12	13	1
130	135	4
150	150	4
98	98	2
83	100	1
142	142	8
75	75	7
31	37	1
35	93	1
91	94	1
92	101	4
148	151	2
41	185	1
96	97	1
107	108	4
180	182	1
63	63	5
147	151	1
187	187	4
162	163	4
15	15	9
68	68	2
93	99	4
106	156	2
73	104	2
143	143	2
77	85	1
109	109	9
184	186	1
57	83	3
124	124	8
1	1	13
88	89	3
142	174	4
103	144	1
59	75	1
23	56	2
22	35	2
135	135	1
87	147	1
113	127	4
91	92	4
31	34	3
148	152	7
70	70	3
41	175	1
73	73	10
133	154	3
126	126	4
90	99	2
166	166	2
53	53	5
79	81	3
130	131	4
53	55	3
137	137	5
148	157	2
20	21	2
112	112	4
105	113	1
138	139	3
114	115	2
92	122	1
102	102	2
11	12	3
57	68	2
21	37	2
59	73	4
90	141	4
176	176	5
141	141	5
2	3	1
4	4	3
58	59	1
183	183	4
32	33	6
55	170	2
138	150	2
106	113	1
110	112	1
129	133	2
36	36	2
67	67	6
151	151	7
106	145	2
42	44	2
126	127	8
180	180	2
31	32	2
106	115	1
143	169	1
30	30	2
109	124	2
72	72	6
36	37	4
175	175	3
58	58	5
175	178	3
81	82	3
6	6	2
17	17	3
59	62	7
74	74	7
86	87	4
110	116	2
39	40	2
157	157	1
123	123	2
111	112	1
20	20	4
134	136	2
135	152	4
3	15	1
87	150	3
84	84	3
62	83	1
3	3	6
106	106	4
117	118	3
42	43	2
18	62	9
16	54	2
162	164	1
33	34	1
106	127	1
81	96	2
46	46	9
42	42	2
47	48	1
140	174	1
72	93	2
18	139	3
70	71	3
26	27	1
118	118	1
121	134	1
111	111	8
87	87	1
83	83	4
10	12	4
160	161	1
104	105	5
106	114	3
97	146	2
168	177	3
128	128	2
74	98	2
90	94	2
9	11	3
115	123	3
74	75	2
46	68	1
105	105	2
177	177	3
113	113	6
14	15	3
182	183	1
104	136	2
115	121	2
166	167	1
9	13	1
134	137	1
62	63	3
61	82	2
184	185	1
17	20	2
61	63	1
89	119	1
84	150	1
40	185	2
114	127	2
169	176	1
66	67	2
36	73	2
66	66	3
103	106	2
41	80	2
134	134	2
74	100	1
157	163	1
64	72	1
47	52	1
5	13	2
28	187	1
16	16	9
86	139	2
111	170	1
31	39	2
155	155	5
21	22	2
63	64	2
76	145	1
127	138	2
141	170	1
86	86	4
78	79	1
142	145	1
131	136	1
10	10	9
22	54	2
66	68	1
147	148	2
185	186	3
113	121	2
65	66	3
100	132	1
15	18	1
70	92	4
108	108	2
110	157	1
31	95	1
76	76	2
21	56	1
186	187	1
24	133	1
146	163	3
121	122	2
71	91	1
27	190	1
2	38	1
156	157	1
153	153	5
26	28	3
80	82	2
18	18	2
105	137	1
136	137	2
126	159	1
48	48	3
142	147	1
113	163	1
92	94	3
181	182	1
3	4	2
102	105	1
54	54	4
135	136	4
33	36	1
116	117	3
90	91	2
28	39	1
20	61	3
53	54	1
15	53	2
32	32	2
168	183	4
79	99	1
97	144	1
43	44	3
36	38	1
26	36	2
120	123	1
133	133	1
144	166	1
81	81	2
106	134	1
23	52	2
113	126	1
0	23	2
17	35	1
167	169	1
14	14	3
87	148	2
99	147	1
61	62	2
0	0	1
70	91	1
28	30	2
40	151	2
25	25	1
2	4	1
111	127	1
97	100	1
144	144	4
58	60	4
144	145	1
146	148	1
27	28	4
145	145	1
56	57	1
107	107	2
117	153	2
132	132	1
19	48	1
55	56	1
157	173	1
182	182	1
3	5	1
61	65	1
134	139	1
112	170	1
7	8	2
163	166	1
0	21	2
82	100	1
154	154	1
33	35	1
150	151	1
76	77	1
166	169	1
18	19	1
6	8	1
187	189	1
9	9	1
42	48	1
92	93	1
111	117	1
113	115	1
40	41	1
26	179	1
119	120	1
128	139	1
79	80	1
