77	77	11
108	108	8
121	122	1
34	36	2
142	142	16
56	56	5
108	109	4
75	75	7
124	139	6
96	96	2
99	99	5
17	17	7
148	148	14
112	113	4
90	90	8
120	120	9
90	91	5
93	93	11
99	101	3
114	114	7
139	139	11
43	129	4
94	94	9
133	133	16
91	91	17
31	32	3
18	19	3
40	41	9
87	87	15
8	8	10
81	90	4
113	113	4
119	119	10
140	140	13
41	41	5
123	123	11
98	98	10
92	92	9
131	131	11
105	105	6
135	135	9
120	140	5
62	63	4
79	80	9
154	154	14
36	40	3
81	91	4
7	8	6
10	10	6
23	24	5
73	73	11
32	38	1
28	28	9
33	41	2
41	42	3
70	70	3
6	6	12
38	39	4
121	121	18
36	36	19
136	136	5
28	29	5
146	146	4
0	2	3
128	152	1
17	21	6
30	30	7
129	130	7
132	132	10
19	19	8
21	22	4
22	23	4
22	22	12
133	137	4
1	1	8
94	106	2
84	84	20
15	15	5
95	95	11
112	122	3
24	24	17
100	100	4
113	115	3
51	53	1
46	50	4
9	19	5
4	101	3
85	85	3
67	67	9
115	116	3
117	117	6
24	25	3
143	145	2
12	12	11
81	81	10
29	30	2
103	104	5
144	144	12
79	81	2
49	50	5
45	45	9
34	34	10
25	28	5
46	46	6
68	73	1
2	2	13
122	122	6
46	47	6
113	114	3
134	134	6
4	5	3
25	25	5
84	97	1
109	110	6
89	89	4
26	26	3
16	16	8
131	132	5
139	156	1
116	116	3
93	94	8
155	156	9
54	54	11
0	3	3
128	129	11
103	103	13
113	119	4
52	54	2
88	88	5
89	90	7
78	79	7
94	96	3
109	117	2
35	40	2
50	51	6
17	22	2
55	55	7
111	111	7
80	94	4
135	136	6
65	80	2
65	65	5
138	151	2
38	38	14
20	20	7
50	50	8
83	114	1
65	99	2
3	4	9
3	3	9
47	50	1
20	21	14
138	138	8
110	113	3
111	112	4
79	83	2
6	7	4
14	14	2
87	88	2
33	33	7
86	86	8
12	13	4
78	92	2
86	87	4
98	116	2
96	97	4
4	4	15
87	136	3
155	155	3
30	31	3
44	44	11
42	42	1
17	18	3
128	130	1
112	112	9
32	32	7
95	99	7
144	147	1
97	97	4
91	104	2
136	137	1
33	35	2
2	6	1
9	10	7
156	156	6
25	37	3
128	128	7
93	99	1
0	149	2
151	152	3
83	90	2
127	127	4
72	76	2
48	49	2
97	106	1
36	37	2
153	153	1
82	82	7
122	140	4
123	125	1
107	108	4
57	57	1
149	153	2
5	5	5
102	102	4
39	40	3
123	124	4
145	146	5
150	150	4
53	53	4
117	118	2
122	123	2
95	97	3
42	79	2
10	19	2
106	107	2
92	93	2
104	106	4
102	133	2
95	96	3
134	135	1
95	111	2
62	67	1
81	82	5
119	120	3
47	47	2
48	48	5
4	20	3
109	109	6
86	89	4
86	88	5
100	101	1
47	77	2
80	81	4
78	78	1
132	149	1
83	85	2
66	72	4
44	47	2
110	110	8
36	99	2
42	43	3
68	68	1
94	98	1
100	159	2
11	11	4
129	129	5
154	155	1
52	53	1
50	53	3
26	27	3
146	147	2
69	69	1
137	137	11
101	158	1
33	45	1
139	148	1
151	154	3
32	33	3
106	110	2
149	150	3
39	53	2
71	71	1
82	83	2
43	99	2
120	149	1
111	116	1
143	143	2
115	115	3
47	55	1
18	18	3
67	68	6
126	134	3
124	124	6
90	114	1
93	98	3
40	43	1
104	104	3
88	89	3
9	9	4
39	39	3
151	151	2
11	12	1
125	128	3
79	79	6
130	131	3
127	142	2
141	142	6
142	143	3
1	2	1
110	115	1
132	152	2
62	64	1
129	135	2
125	125	2
149	149	3
13	22	1
42	78	1
23	23	4
153	156	1
77	78	3
54	104	2
137	138	2
126	126	1
85	86	2
132	157	1
152	152	2
8	20	2
13	13	3
25	42	4
25	26	2
46	49	1
101	101	6
39	54	3
27	27	4
135	138	3
52	52	8
127	128	1
147	147	4
110	116	1
91	92	3
19	118	2
43	43	3
90	115	4
72	73	6
37	37	4
158	158	2
40	40	3
152	154	1
74	74	1
27	31	3
119	121	1
8	11	1
83	84	1
46	79	2
126	127	4
131	139	1
111	139	1
7	7	3
123	141	1
2	3	1
66	66	1
111	113	1
21	21	3
36	41	1
157	157	4
135	137	4
145	147	1
107	137	3
156	157	2
33	34	2
26	29	1
6	23	1
127	134	2
75	76	1
43	105	2
105	107	2
118	118	1
82	91	3
115	117	1
122	141	2
35	36	1
19	20	1
48	50	2
51	51	3
51	52	2
130	139	1
97	99	1
83	83	5
47	48	1
116	117	2
18	120	1
142	148	1
90	113	1
104	105	1
37	38	1
102	108	1
27	29	1
32	40	1
64	64	1
94	95	2
5	7	1
113	120	2
41	45	1
46	77	2
103	106	1
109	111	2
122	144	1
86	93	1
145	145	1
141	141	3
133	135	1
82	85	1
155	157	1
119	126	2
38	41	2
53	54	1
138	139	1
54	102	1
108	110	2
0	0	2
131	134	1
44	45	1
89	110	1
15	19	1
51	97	1
20	118	1
101	131	1
132	133	1
11	13	1
105	116	1
35	35	2
31	31	1
10	12	1
62	62	1
49	57	1
148	149	2
49	51	1
37	39	1
65	75	1
27	28	1
24	54	1
80	98	1
76	78	1
140	143	1
116	140	1
121	143	1
19	117	1
7	11	1
30	72	1
