130	166	1
98	99	6
84	84	6
120	141	3
17	21	9
155	156	1
6	17	1
123	129	2
45	46	3
131	131	11
61	61	8
21	21	5
124	124	4
184	184	7
88	89	1
79	80	3
38	82	1
167	168	6
99	100	1
12	12	5
139	139	2
74	74	2
11	12	8
104	109	1
93	94	3
122	122	1
30	30	7
107	107	3
52	52	1
62	62	4
13	14	2
1	1	11
111	111	9
104	105	1
28	28	1
17	79	4
41	41	5
26	28	1
19	19	2
23	24	3
116	117	3
34	34	2
68	68	4
18	18	5
15	16	3
140	141	7
22	45	2
114	114	2
107	108	7
25	25	3
5	5	7
137	137	5
166	172	2
178	178	5
174	176	2
98	98	1
117	118	2
42	42	4
24	24	4
175	175	5
118	118	4
149	149	1
68	69	2
44	67	1
123	128	2
15	15	5
156	156	6
54	54	1
44	76	2
128	128	4
89	89	7
76	82	1
140	140	8
35	35	3
26	26	5
170	170	5
85	85	1
66	71	1
83	83	3
57	103	2
78	78	4
110	110	5
167	167	6
145	145	10
56	64	2
142	143	3
86	86	4
121	121	2
77	80	2
40	40	6
47	48	2
166	166	1
53	94	2
96	97	3
127	127	6
133	136	3
8	8	2
136	136	1
154	155	4
168	171	2
81	81	5
98	119	2
98	118	2
147	147	4
33	36	2
154	165	1
186	186	2
58	58	7
111	112	4
39	39	2
45	45	6
104	104	11
129	170	3
161	162	2
27	32	1
94	94	3
26	27	4
79	79	2
142	148	2
87	120	1
38	38	8
36	36	3
144	144	3
116	116	3
123	179	1
53	56	1
82	82	4
161	161	2
116	133	3
63	63	4
3	3	3
130	130	5
35	36	2
126	129	3
157	157	6
25	37	4
177	177	3
106	143	4
68	110	2
162	162	2
2	2	1
125	126	5
6	6	6
54	57	2
152	152	4
65	68	2
43	46	2
142	142	3
94	108	3
165	165	4
14	15	1
102	102	1
123	123	3
32	35	1
130	131	1
146	150	3
101	101	4
91	91	2
18	46	3
182	182	2
99	99	1
60	60	3
177	178	1
175	178	2
27	43	2
103	103	1
16	16	1
150	150	4
57	57	2
37	37	4
20	20	4
148	148	1
4	5	3
126	127	1
55	55	1
146	146	4
120	120	6
187	188	1
32	32	1
146	147	1
30	31	3
46	46	1
125	125	3
119	120	1
164	165	1
128	129	1
93	93	2
181	181	2
162	164	2
126	126	1
108	108	1
115	115	2
20	21	2
105	105	8
61	76	1
71	77	2
52	53	1
64	64	1
74	75	3
141	141	3
10	11	1
14	14	1
106	106	3
188	188	3
110	111	2
84	89	1
181	182	2
117	117	3
95	108	1
21	46	2
21	22	2
17	17	4
92	93	1
134	134	1
143	143	1
7	7	2
124	179	1
48	48	1
32	33	1
88	88	2
160	160	1
47	47	1
182	183	1
107	117	2
43	64	1
22	22	1
53	53	2
173	176	1
6	7	1
76	76	2
36	37	1
179	179	1
113	113	1
37	46	1
53	55	1
97	98	1
83	99	1
66	66	1
135	135	1
27	45	1
101	102	2
90	115	1
9	10	1
133	134	1
37	38	1
113	115	1
39	40	1
41	42	1
0	0	1
132	132	1
18	20	1
75	75	1
6	8	1
13	13	1
