26	102	1
77	77	3
1	2	1
62	62	14
26	26	9
74	74	13
36	37	3
31	31	4
87	88	8
142	142	8
99	100	3
139	139	13
42	42	8
76	79	13
122	122	7
49	49	11
6	17	1
3	5	3
71	95	5
49	52	2
106	115	8
119	119	6
115	115	4
1	26	4
84	84	2
125	126	3
54	54	8
93	93	3
94	94	7
89	89	5
104	104	5
132	132	5
124	124	9
29	141	1
79	79	9
135	135	5
138	140	3
112	112	8
109	109	4
80	80	20
71	72	5
51	51	6
25	27	4
109	110	1
126	127	3
97	97	16
89	128	4
60	60	9
78	81	4
126	126	17
102	102	7
36	36	8
103	121	2
88	97	4
106	107	5
118	118	7
17	17	13
40	56	8
123	124	4
127	127	9
0	135	2
59	60	2
23	33	1
117	118	3
29	30	5
117	124	3
110	113	4
137	139	5
96	96	4
9	10	3
106	106	2
1	11	5
63	63	5
133	137	2
81	81	15
1	5	3
127	136	5
120	120	13
28	141	6
145	145	4
40	112	5
35	37	1
142	143	1
69	93	3
13	13	7
83	83	7
73	74	8
3	10	3
52	52	7
52	57	1
134	134	8
38	38	6
68	69	4
101	101	8
100	140	2
14	14	8
98	133	3
24	24	5
113	114	6
141	141	1
67	69	1
140	141	16
29	29	4
91	91	1
111	112	4
27	54	3
32	32	9
108	110	11
62	116	2
4	5	5
125	125	15
49	50	6
2	4	1
129	129	12
95	95	2
146	146	3
119	120	9
60	114	2
5	10	1
40	64	3
138	138	9
36	41	2
86	86	4
85	92	1
120	121	4
13	15	2
126	130	5
68	68	6
22	33	4
33	33	3
4	4	8
18	18	8
75	75	4
144	144	7
92	92	2
110	120	4
92	93	6
55	55	6
60	91	3
143	143	4
110	134	3
33	65	1
80	81	5
54	55	5
137	138	2
47	47	6
18	19	5
36	52	2
123	138	8
22	22	4
132	133	3
91	94	3
64	64	4
35	52	4
27	42	1
85	86	9
131	131	7
121	121	7
105	105	10
25	25	5
105	106	2
27	27	17
100	100	2
0	0	8
10	10	10
72	73	2
108	108	13
32	65	1
31	123	7
123	123	14
71	71	3
51	56	2
47	57	1
117	117	5
35	35	13
88	88	11
70	94	3
76	77	5
37	37	5
130	130	6
48	56	2
119	125	2
130	142	2
28	128	6
41	41	3
26	41	2
133	133	4
84	85	3
12	13	3
69	69	2
23	23	10
116	117	4
97	139	5
61	113	4
49	62	3
97	131	1
55	56	1
111	117	3
66	66	2
95	130	2
12	12	7
73	73	5
65	65	8
136	137	9
9	9	8
56	56	3
135	136	3
40	40	7
82	83	4
78	78	3
21	21	3
128	128	9
56	57	4
99	99	4
69	72	4
139	140	6
137	137	2
58	58	6
16	16	6
19	19	7
138	139	1
30	61	1
3	88	1
0	26	1
136	138	3
15	15	3
67	67	5
87	90	3
17	18	1
23	41	4
38	40	3
98	121	2
4	47	2
104	105	2
115	118	1
80	91	3
140	140	13
30	30	4
113	113	3
53	53	10
105	110	1
57	63	3
89	90	5
23	143	3
43	43	3
32	80	1
48	48	6
66	67	2
140	142	2
107	111	1
100	101	1
35	36	1
57	74	1
13	66	6
63	116	1
72	72	4
4	11	4
115	117	3
86	89	1
38	41	2
107	107	2
24	25	2
31	32	2
48	54	1
103	103	3
59	108	1
136	140	1
102	103	3
132	137	2
11	11	4
61	61	8
20	20	7
27	28	4
88	89	3
98	134	2
61	64	3
17	99	1
87	87	3
81	139	1
90	91	1
8	9	1
111	111	6
34	40	2
84	93	4
131	134	1
112	114	2
59	91	2
105	111	1
10	12	1
128	131	2
2	89	1
8	8	1
76	76	2
96	103	1
19	29	1
115	116	1
105	134	1
18	134	2
10	11	2
136	136	1
63	64	6
59	113	5
58	108	4
51	75	2
47	54	1
12	16	3
104	117	1
129	130	3
133	139	2
17	28	3
103	105	1
32	36	2
33	49	2
47	112	4
62	63	1
29	37	2
11	128	2
58	66	3
97	108	1
116	116	1
131	132	1
96	121	2
101	102	1
31	64	1
102	120	1
59	110	1
5	12	1
69	70	1
32	33	2
60	111	2
50	50	1
98	98	4
59	61	2
83	122	1
105	112	3
97	98	1
107	135	2
84	96	1
28	29	1
112	113	1
105	124	1
55	110	2
56	73	1
127	130	3
131	141	1
121	123	1
57	57	2
41	64	1
50	133	3
86	87	1
0	42	2
87	89	3
5	5	4
26	29	1
131	139	1
114	114	4
126	141	1
36	73	1
108	133	1
59	59	1
65	72	1
95	131	3
83	84	2
132	134	1
2	2	2
133	135	1
81	91	1
128	141	1
102	129	1
109	114	1
98	100	1
77	78	1
59	62	1
20	21	1
56	91	1
92	94	1
58	98	1
124	125	1
