111	111	13
74	106	3
90	91	4
101	101	12
69	72	2
22	22	8
112	112	15
130	130	8
93	93	20
4	4	9
84	84	13
101	102	5
47	47	13
68	68	12
100	100	12
6	56	5
82	82	3
95	95	11
127	127	17
101	103	11
77	77	23
70	71	5
103	103	11
40	40	22
41	43	5
96	96	16
3	3	12
50	50	22
66	66	18
76	76	6
1	106	4
106	107	7
71	71	15
38	38	15
52	53	12
113	113	5
68	69	9
38	40	2
79	79	4
82	87	3
102	102	13
128	128	17
106	106	7
13	14	5
24	25	3
54	54	15
85	85	16
78	100	1
59	59	5
90	125	4
53	53	17
46	46	7
17	17	15
92	93	5
60	65	5
123	123	11
108	108	17
91	91	13
69	69	17
15	15	14
58	59	7
98	99	5
33	34	4
8	8	10
41	62	2
23	23	10
86	90	2
118	118	7
28	42	4
5	5	9
92	123	2
51	51	18
57	57	20
80	81	11
73	74	10
70	70	13
49	49	28
25	25	9
52	52	15
108	109	5
114	116	2
9	9	11
129	130	15
120	120	19
107	108	4
72	72	16
77	78	4
14	14	14
45	45	22
15	42	1
55	55	16
98	98	7
18	18	10
30	30	13
44	44	23
91	92	13
125	125	4
16	16	14
89	90	4
33	33	21
11	11	7
105	105	22
110	110	12
50	51	13
123	124	3
48	48	11
131	132	5
12	12	12
97	97	21
109	110	8
86	86	8
0	0	14
23	24	1
102	103	11
116	116	19
62	62	10
72	102	2
12	13	4
2	2	6
78	80	2
73	107	1
80	80	17
7	8	2
75	76	4
26	27	3
117	118	7
89	89	14
117	117	12
28	28	5
88	88	10
93	123	4
65	66	7
2	107	3
132	132	11
110	111	5
93	113	1
63	64	4
112	124	4
126	126	14
126	127	3
32	32	10
125	126	2
11	12	7
18	19	2
116	117	2
121	121	4
6	6	18
6	32	4
30	31	4
67	67	8
92	94	3
41	41	10
99	99	14
13	13	18
78	81	6
3	107	1
58	58	1
99	114	2
107	107	11
109	109	21
71	72	3
42	42	13
63	63	8
113	124	6
46	47	12
45	47	5
131	131	14
39	39	11
102	104	3
19	19	10
24	24	9
90	90	12
114	114	11
31	31	7
34	34	3
43	43	16
21	21	3
65	76	5
40	42	10
45	62	3
85	100	2
65	65	10
56	56	6
71	101	1
29	33	2
27	28	3
127	128	10
81	81	7
85	86	2
2	3	7
29	29	12
70	102	3
26	29	2
122	122	16
78	99	4
129	129	9
78	79	3
118	119	5
18	21	4
14	22	1
53	57	1
119	119	11
80	83	6
73	73	9
115	115	10
85	99	3
103	125	2
22	24	4
1	122	4
88	89	2
26	26	6
119	120	1
1	1	5
87	88	2
64	64	10
84	101	5
28	29	6
14	41	1
46	63	1
41	42	4
42	43	3
9	10	5
84	87	3
104	105	7
10	10	5
70	76	1
47	48	3
112	133	1
82	100	4
114	118	2
67	68	6
93	94	5
59	60	3
42	44	3
28	30	2
14	15	6
114	131	1
117	119	1
92	92	7
53	54	6
75	107	2
43	44	4
60	61	2
16	17	1
86	87	3
74	74	14
44	46	3
17	44	2
104	104	5
74	75	5
128	129	1
78	78	7
98	114	1
19	21	2
18	22	1
111	112	5
104	106	3
112	113	2
4	5	2
69	71	1
64	66	7
79	81	1
7	7	8
69	76	2
83	118	2
75	75	6
115	117	4
130	131	2
5	34	1
68	81	1
38	41	4
1	2	4
27	27	4
44	45	8
62	74	1
57	58	1
64	76	1
120	121	4
91	93	2
14	23	2
5	6	2
66	67	2
10	106	2
41	44	2
61	62	3
42	61	6
105	106	6
76	98	1
91	96	2
84	85	6
83	83	6
103	104	1
57	70	1
116	118	1
11	14	2
76	77	1
61	61	5
10	11	3
95	96	6
114	117	1
38	39	3
79	80	3
0	123	2
40	41	4
7	9	1
114	129	1
133	133	5
70	77	1
106	125	2
62	63	3
15	17	1
87	87	4
59	62	1
122	123	6
83	84	2
25	26	5
100	101	3
84	115	1
114	130	1
69	70	4
94	94	3
26	55	1
82	83	2
96	130	1
23	29	2
120	130	2
25	27	2
74	108	2
54	55	1
113	114	2
72	119	1
72	73	4
4	25	1
1	6	1
60	60	1
15	18	2
44	62	2
72	74	3
58	60	4
46	48	1
54	57	3
124	125	1
0	1	3
83	117	2
86	88	1
115	119	1
6	25	1
89	91	2
113	117	1
70	74	1
127	129	1
44	63	2
61	129	1
11	59	1
102	105	2
84	99	1
48	49	1
17	41	2
85	95	1
43	46	2
94	105	2
92	112	1
29	30	1
94	95	2
8	26	2
114	115	2
47	49	1
22	23	1
87	101	2
11	13	2
41	61	1
28	32	2
90	98	1
79	92	1
65	67	2
124	124	1
37	44	1
45	61	1
30	32	1
56	57	1
100	118	1
95	105	2
59	64	1
86	101	1
