43	43	5
6	6	7
54	58	2
21	21	3
84	122	1
59	59	3
109	109	8
107	115	5
114	118	4
112	112	1
129	130	3
70	88	6
61	62	6
91	95	4
50	50	5
54	56	3
63	64	2
62	62	5
93	93	7
88	99	2
82	84	4
68	104	4
125	126	3
116	116	8
59	79	3
77	93	6
99	99	14
27	27	8
128	129	2
81	81	7
22	23	2
45	80	2
103	103	4
25	30	1
10	10	5
44	55	5
126	134	2
17	17	1
104	104	7
88	95	1
95	96	3
8	24	2
55	55	6
45	51	3
92	93	2
91	91	7
97	97	7
95	123	3
71	71	8
97	111	3
35	35	7
68	71	6
47	48	2
11	26	3
134	134	8
61	61	4
120	121	9
76	76	7
96	97	5
101	106	1
84	131	1
36	74	1
115	115	11
30	30	14
16	16	7
69	87	3
27	29	3
133	133	6
90	90	7
126	126	13
67	68	1
101	112	1
114	120	6
66	66	10
79	79	5
0	0	9
77	78	3
115	125	1
123	123	5
45	47	2
18	19	4
92	127	2
24	24	10
85	85	10
63	63	8
119	120	11
53	79	1
0	73	1
19	19	5
54	80	3
36	36	8
123	135	1
60	60	10
45	45	4
24	26	2
74	115	5
46	47	2
122	122	3
83	122	2
5	74	3
15	15	2
55	131	3
31	31	8
132	132	15
100	100	5
81	84	2
79	105	1
23	35	1
130	130	10
1	1	4
14	15	3
29	126	7
33	34	2
32	32	7
25	36	2
117	121	5
106	106	6
48	129	3
95	95	1
48	55	1
50	131	2
121	121	8
83	83	12
84	86	3
100	112	3
118	118	5
25	26	4
70	70	6
52	103	4
45	78	1
94	97	1
97	98	3
47	52	4
62	63	2
18	36	1
72	72	4
134	135	2
73	73	8
59	60	3
7	49	4
28	28	4
79	127	1
56	60	3
126	127	1
74	74	9
17	38	2
135	135	2
118	119	2
14	14	2
75	76	4
15	16	1
79	134	1
9	36	1
45	79	1
95	131	5
37	37	3
5	7	3
122	123	6
84	117	1
127	129	2
2	7	8
68	87	1
130	132	3
12	12	5
69	88	3
32	33	2
55	56	3
87	88	1
66	67	2
65	65	4
69	69	5
37	54	3
95	107	5
13	13	2
89	90	5
69	133	2
96	105	3
72	73	4
75	75	14
16	25	4
90	99	1
52	67	2
85	118	2
78	92	2
55	61	2
52	69	5
86	86	4
109	110	5
124	124	6
59	81	1
101	105	4
77	79	1
52	52	6
68	68	1
99	126	1
58	60	1
50	59	2
125	125	3
123	124	3
64	64	1
36	37	1
29	32	2
54	57	8
111	111	2
22	22	2
101	101	4
23	23	2
70	115	1
35	70	1
83	123	1
49	49	6
10	109	1
53	53	7
94	96	2
82	82	2
23	25	1
116	118	1
44	80	2
78	106	3
58	58	1
108	113	2
107	107	3
64	65	1
103	104	2
79	104	1
67	131	2
69	94	2
110	110	6
129	129	5
50	70	1
30	31	2
73	74	5
65	99	1
57	57	1
119	119	1
111	113	3
74	88	4
132	133	2
98	98	6
56	56	1
73	98	1
7	7	5
18	18	1
74	127	3
100	111	1
55	128	5
114	114	2
63	71	6
63	101	2
94	94	2
9	84	2
36	69	1
43	56	2
76	112	4
53	58	1
120	120	3
33	33	2
10	108	1
117	117	5
84	84	6
108	108	4
9	18	2
64	119	4
9	10	4
113	116	4
9	11	1
86	95	1
88	88	3
78	78	5
44	45	5
54	61	1
79	82	1
82	83	2
77	95	2
113	114	1
38	38	1
64	84	1
25	25	3
98	99	1
11	109	2
70	72	2
42	42	3
89	89	3
70	71	4
97	113	1
96	96	1
106	107	1
113	122	3
66	89	2
71	110	1
27	28	1
8	8	2
12	14	1
70	73	2
66	124	2
99	101	1
78	79	1
11	128	2
78	104	1
119	129	1
63	70	1
23	24	1
11	11	1
131	133	3
112	113	1
133	134	1
19	35	1
102	103	2
76	77	2
85	111	1
77	77	6
57	67	1
127	128	1
26	26	4
74	102	1
11	12	3
67	67	3
128	128	1
118	131	1
82	116	1
14	33	1
92	102	1
71	72	1
96	98	1
52	54	1
43	66	1
4	4	1
131	131	1
34	34	1
3	3	2
49	130	1
10	32	1
57	63	1
71	108	1
83	125	2
102	127	2
50	128	2
108	110	1
56	57	1
43	92	1
60	66	1
10	11	1
118	132	1
106	134	1
55	60	1
85	109	1
47	49	1
63	69	1
