88	88	3
64	64	5
92	92	6
107	107	1
74	74	2
116	119	2
61	62	3
88	89	2
106	107	1
51	51	4
75	75	3
95	95	3
61	75	2
51	54	3
98	99	1
63	63	4
65	65	4
103	103	7
100	100	1
130	130	2
15	15	5
113	113	5
22	25	4
52	52	1
99	103	7
121	121	5
67	67	2
62	67	2
16	16	3
52	53	1
104	130	3
71	72	3
30	30	8
31	65	4
79	79	4
46	46	4
20	29	2
42	43	6
129	129	5
30	120	1
18	18	2
130	131	1
39	39	5
56	61	2
77	78	1
43	44	2
59	59	3
45	45	2
28	28	1
30	31	1
44	44	5
104	104	3
106	106	4
25	25	1
1	14	2
20	20	5
50	50	3
97	114	3
122	122	3
75	78	2
52	105	1
118	119	3
23	24	4
83	83	2
89	89	5
54	54	1
5	5	2
39	40	2
75	119	1
8	113	3
26	26	5
73	74	3
33	34	2
65	66	4
60	63	1
126	129	3
69	69	1
33	77	1
3	3	4
97	97	3
63	66	1
1	2	1
108	108	2
78	81	3
55	55	2
128	130	1
82	89	3
124	124	1
19	54	2
22	23	1
79	100	1
76	76	2
60	95	3
32	32	3
23	23	5
94	95	1
7	7	4
115	115	6
129	130	1
54	64	1
47	56	3
12	12	2
119	119	2
4	4	3
67	77	1
113	130	2
84	85	1
125	125	1
18	67	1
103	104	1
42	42	5
44	119	3
6	7	2
53	53	3
126	127	6
38	41	1
109	109	1
105	106	1
41	41	1
57	94	1
73	75	2
77	82	1
70	70	3
4	62	2
120	121	1
81	81	2
71	71	3
44	45	1
19	19	2
8	8	1
105	105	3
9	9	2
33	66	2
55	98	1
58	94	3
127	128	1
58	63	2
67	68	1
73	73	2
132	132	2
85	85	3
100	106	1
2	2	1
27	27	1
48	48	2
58	58	1
52	111	3
60	62	2
62	80	1
56	56	1
34	34	1
3	5	1
99	99	3
63	95	1
68	68	2
82	84	1
118	120	2
15	34	1
20	45	1
54	66	2
11	11	1
127	127	3
51	95	2
14	14	1
90	90	2
28	82	1
10	10	1
41	42	1
38	39	1
57	58	2
41	68	1
84	84	1
87	87	1
60	61	2
79	80	1
2	84	1
37	38	1
58	59	2
113	114	1
40	42	2
61	80	1
96	96	1
98	98	1
16	17	1
125	128	1
50	51	1
91	91	2
13	13	1
18	21	1
17	17	1
64	69	1
24	24	1
66	66	1
87	117	1
3	24	1
32	33	1
10	11	1
7	121	1
33	33	1
61	61	1
19	25	1
14	15	1
45	46	1
83	84	1
