20	27	10
96	96	8
18	18	6
75	75	24
94	96	3
16	17	8
106	106	5
110	113	5
17	18	4
129	129	21
28	28	9
137	137	11
7	7	11
9	10	7
94	114	3
131	131	34
111	113	1
105	106	6
87	93	11
109	109	20
0	1	2
116	123	3
86	86	9
98	100	2
30	31	10
138	138	22
127	128	2
85	85	4
123	124	2
135	135	21
101	101	5
125	126	5
112	112	22
108	108	14
71	71	12
16	16	18
111	111	19
73	73	18
103	109	4
17	17	24
104	104	15
0	0	14
6	6	19
120	122	5
34	34	12
37	38	3
2	2	20
140	140	16
136	137	8
93	93	19
121	121	5
117	120	2
4	4	16
128	128	17
87	88	8
90	90	14
120	121	6
134	134	31
2	3	7
25	25	10
115	122	8
14	14	15
37	37	13
84	92	8
76	76	14
127	127	18
81	82	17
9	9	18
113	114	5
87	87	12
29	29	12
121	122	22
95	98	2
18	28	2
93	94	9
123	123	22
13	14	8
83	85	5
96	98	2
139	140	5
102	102	13
94	94	24
20	20	14
3	4	8
20	21	4
10	11	1
118	118	12
126	126	14
18	20	1
88	88	11
133	133	16
22	22	6
5	5	3
11	11	16
120	120	18
124	125	14
99	100	10
32	32	18
1	1	13
116	117	8
38	38	10
35	35	13
78	78	8
3	3	9
117	118	10
115	115	6
85	87	2
110	111	9
130	130	18
107	109	5
114	115	8
94	95	4
90	91	8
116	122	7
118	119	7
100	100	21
112	116	2
101	102	3
103	104	6
104	107	10
132	133	8
95	95	19
114	114	17
117	117	13
7	12	2
85	103	2
11	12	1
106	107	4
19	74	2
91	91	13
99	99	9
8	8	10
8	10	6
86	88	2
108	109	15
78	79	4
79	79	14
112	113	4
83	84	5
124	124	9
23	24	7
19	19	5
27	47	2
15	15	3
84	84	3
33	33	15
17	35	3
32	33	3
1	10	5
24	24	7
105	105	17
31	31	8
113	113	3
122	122	15
25	26	4
132	132	24
16	28	7
133	134	4
10	10	3
97	97	16
74	74	19
20	26	3
77	77	8
97	98	2
21	22	4
126	128	3
72	73	3
98	98	8
137	140	2
135	136	7
79	107	3
104	105	3
8	12	2
110	110	5
72	72	7
86	92	3
88	90	2
119	119	19
134	135	6
26	26	9
81	81	10
82	82	13
94	98	2
27	29	5
29	30	4
7	8	2
80	83	3
80	87	1
105	109	2
103	103	5
82	85	1
74	75	8
80	80	18
116	116	6
112	114	2
136	136	20
95	96	5
75	76	6
113	115	2
139	139	23
122	123	9
125	125	12
129	130	3
82	88	6
22	24	1
8	28	2
88	89	5
13	21	2
4	5	2
131	132	4
83	93	1
21	21	4
6	14	4
35	36	3
77	79	6
71	72	4
8	26	1
68	71	1
111	124	1
8	9	4
21	25	1
9	23	2
77	82	1
36	36	9
20	25	4
131	135	1
27	27	10
15	17	1
92	93	3
79	83	3
80	82	2
15	16	6
76	77	3
8	11	2
12	12	5
130	139	4
124	126	2
2	11	2
87	92	2
135	137	1
30	30	5
90	92	2
119	121	2
0	40	2
126	131	3
23	30	4
119	120	1
104	108	5
126	130	3
92	94	1
138	139	3
20	33	2
73	76	4
128	129	6
19	20	3
89	89	10
84	85	6
27	32	2
92	92	2
119	122	2
87	130	2
78	84	1
126	129	8
16	20	1
23	25	4
24	26	4
127	129	3
91	92	1
85	86	2
124	130	4
107	107	2
10	12	1
128	140	1
81	92	2
83	83	2
102	103	1
23	23	9
98	99	1
34	37	1
126	127	1
13	13	1
81	88	1
111	112	5
36	37	3
6	7	2
100	101	3
19	28	3
77	78	3
84	93	1
73	75	2
6	13	1
93	98	3
101	103	3
21	27	1
12	14	1
103	106	1
102	108	2
102	109	4
136	138	1
89	90	2
86	93	1
73	74	1
94	97	1
12	22	2
80	98	3
31	32	1
16	124	2
76	84	1
133	135	2
5	6	1
103	105	2
104	109	1
102	104	1
94	99	2
44	106	1
27	30	2
16	27	1
34	35	5
33	34	3
115	127	1
14	18	1
134	140	4
74	76	1
111	123	2
19	26	1
134	137	4
0	6	1
0	2	2
129	138	2
81	87	2
14	15	1
137	138	1
7	11	1
20	28	1
77	81	1
106	109	1
32	37	1
89	91	1
19	27	1
