33	33	3
229	229	10
180	180	9
9	19	3
212	212	5
48	48	2
213	213	7
59	87	1
162	209	3
160	160	3
42	202	1
69	69	9
88	88	7
208	209	4
201	218	3
202	202	9
110	110	10
14	14	4
183	185	2
107	108	3
221	222	4
62	63	3
102	103	5
240	243	1
84	84	6
103	103	5
63	65	1
175	175	11
11	11	7
174	194	1
46	52	2
17	17	10
233	233	2
75	86	1
247	248	1
195	195	2
42	42	3
164	214	3
152	152	5
170	189	1
191	191	1
188	188	4
23	23	6
204	204	15
161	234	2
165	169	2
48	49	2
81	82	4
178	197	2
152	153	6
97	100	3
172	172	7
177	177	3
88	94	2
217	217	1
120	120	4
71	71	6
208	213	1
156	156	7
198	208	4
172	222	3
75	119	6
33	57	1
75	81	1
117	117	11
49	49	7
119	119	6
244	244	8
6	6	4
92	100	2
66	67	2
39	71	1
104	106	2
167	197	1
42	73	3
5	5	6
197	197	6
92	93	2
150	150	5
36	36	8
201	201	11
181	181	7
238	248	1
247	247	5
233	234	1
194	195	2
80	80	4
64	110	1
165	167	3
189	190	4
225	243	2
209	209	3
190	191	4
98	98	5
37	37	6
240	241	5
248	248	3
211	212	5
214	214	6
146	170	2
18	19	3
59	59	3
71	106	2
62	62	3
154	155	2
22	22	5
239	239	7
103	108	1
33	65	5
58	58	1
168	168	5
217	218	1
111	245	1
158	223	1
102	102	5
173	173	15
109	110	3
227	227	4
55	55	12
24	24	9
32	33	3
159	159	5
39	39	1
70	70	3
182	184	3
39	75	1
12	12	3
55	64	3
77	78	4
14	47	3
245	245	4
197	212	4
67	69	4
200	200	11
30	30	8
188	189	4
179	179	4
21	21	9
19	30	2
73	73	5
186	186	7
157	158	5
178	178	3
54	56	1
52	109	1
85	85	4
47	48	4
155	156	1
113	113	5
169	169	7
109	109	9
68	68	2
94	94	2
179	217	2
76	77	2
224	226	1
189	197	4
203	206	2
53	53	5
28	30	1
172	190	1
54	55	3
20	21	1
190	190	3
162	162	3
179	215	2
146	146	5
171	189	1
46	48	1
179	180	1
176	178	1
14	57	1
41	62	2
53	55	1
201	206	1
229	230	2
239	240	2
5	195	2
20	67	2
45	45	4
152	161	3
203	203	6
102	104	2
48	50	4
151	151	3
15	15	4
51	57	2
184	232	4
29	32	2
212	231	2
166	166	13
2	2	4
77	77	15
238	239	1
145	145	1
171	171	1
19	19	5
30	32	1
112	112	5
69	113	1
187	190	2
16	16	2
73	74	5
67	67	2
208	211	1
64	64	5
46	227	2
207	207	5
182	182	6
116	116	4
147	147	6
91	91	4
155	155	11
199	204	1
249	249	2
61	61	2
242	243	2
206	206	2
185	185	4
105	106	1
25	92	3
72	72	7
192	192	4
89	90	4
149	149	4
21	32	1
181	182	4
97	97	4
150	151	3
115	238	4
202	204	1
236	236	3
18	18	5
97	101	5
121	144	1
73	107	3
32	168	2
95	98	6
43	44	1
196	196	3
113	172	1
235	235	8
3	57	2
104	121	1
10	10	4
2	83	1
6	56	3
198	213	1
82	82	1
205	205	3
69	71	2
169	222	2
45	227	1
159	160	4
40	40	5
188	192	1
163	215	2
18	62	1
89	89	2
106	110	2
81	84	2
31	31	3
34	89	2
70	107	1
55	73	2
208	224	1
184	184	8
9	9	4
199	202	1
115	115	3
149	201	1
50	74	1
20	20	7
153	153	5
92	102	1
158	159	3
166	167	1
114	189	1
169	171	2
236	239	2
49	56	1
99	113	3
222	222	7
230	231	5
100	100	5
168	169	3
236	246	1
114	114	6
210	213	2
213	214	1
229	235	3
47	74	1
224	224	3
44	45	3
240	240	3
75	75	7
110	111	1
8	8	3
226	235	1
214	215	6
119	120	3
189	193	1
78	78	3
52	52	6
55	56	2
154	154	2
1	1	4
145	185	1
111	112	1
29	29	2
18	52	3
158	213	2
187	187	1
246	246	5
92	92	2
163	164	4
115	116	2
14	34	1
35	35	1
111	111	10
58	61	1
101	104	2
106	111	1
194	194	2
193	193	4
75	121	1
60	60	3
237	242	3
46	46	4
208	208	4
57	57	2
171	215	3
27	28	1
183	183	2
238	238	2
203	204	1
95	96	2
17	31	2
116	117	2
28	113	2
41	110	2
242	242	5
86	86	1
63	63	7
165	165	4
83	84	5
159	207	3
176	176	9
231	231	8
219	219	1
220	220	3
88	239	2
195	214	2
184	185	1
90	92	2
156	160	1
183	231	2
243	244	1
65	66	1
210	210	2
50	51	1
157	163	2
75	104	3
224	235	1
6	7	4
84	85	2
215	215	3
90	90	5
237	237	6
81	81	1
43	43	5
107	113	1
10	201	1
199	200	1
87	87	9
8	208	1
163	163	2
24	79	1
70	108	3
162	163	1
50	50	4
167	168	2
7	46	1
26	27	1
216	218	1
47	47	3
100	102	1
56	56	2
158	158	1
164	164	4
175	177	5
28	28	2
210	223	1
101	101	1
165	182	2
34	88	1
230	230	2
176	181	1
3	86	2
206	207	2
185	191	2
34	34	3
47	88	1
32	48	1
171	172	5
216	217	3
38	88	1
221	221	3
115	241	2
69	70	5
118	118	1
14	15	4
96	97	1
6	29	1
103	109	2
4	195	2
106	106	1
20	189	2
37	176	1
87	88	1
170	170	5
93	93	2
33	78	1
225	225	1
165	166	1
2	3	1
3	3	4
51	51	1
199	199	1
8	20	2
44	46	2
21	40	2
79	79	3
165	190	1
76	76	2
2	7	1
88	91	2
192	210	1
183	190	1
65	65	6
64	65	2
22	31	1
99	100	1
167	167	1
31	46	1
76	90	3
208	231	1
52	53	1
186	187	1
66	114	1
59	72	2
162	182	1
6	37	1
223	223	2
37	39	1
194	196	3
75	76	1
35	77	1
90	240	3
173	199	2
48	111	1
94	95	1
1	168	2
150	153	1
97	99	1
57	59	1
178	179	3
197	198	3
182	230	2
112	246	1
54	54	2
226	228	1
239	245	1
219	220	2
87	89	1
145	150	2
231	232	1
27	27	1
178	182	1
74	74	1
171	188	2
213	216	1
88	241	1
62	65	1
189	189	1
32	46	2
225	248	1
150	154	1
172	247	1
152	159	2
175	178	1
195	196	2
101	102	2
7	7	1
10	167	1
32	32	3
27	89	1
4	5	2
82	83	1
160	164	1
41	51	1
14	73	1
202	203	1
19	62	1
17	227	1
163	220	1
156	222	2
149	150	1
232	232	3
212	213	2
74	75	1
92	114	1
98	104	1
234	236	1
193	194	1
177	178	1
156	157	1
107	107	2
47	75	1
160	165	1
176	182	1
246	247	1
153	159	1
228	228	1
52	114	1
105	107	1
30	31	1
144	145	2
196	213	2
59	88	2
66	73	1
161	161	1
14	72	1
180	216	1
44	44	1
39	56	2
1	167	1
187	205	1
163	195	1
104	109	2
190	218	1
162	216	1
182	183	1
15	72	1
66	66	1
164	166	1
218	218	2
40	43	1
149	170	1
93	113	1
67	68	1
225	229	1
49	62	1
25	27	1
18	30	1
187	217	1
17	46	1
117	118	1
56	73	1
157	157	1
38	76	2
95	95	1
109	248	1
157	190	1
149	176	1
191	192	1
40	56	1
164	245	1
38	38	1
60	61	1
3	4	1
35	36	1
182	232	1
