55	59	2
60	62	8
30	30	7
85	88	1
98	102	4
43	43	30
63	63	40
78	78	34
73	74	11
91	91	48
49	50	26
52	99	1
96	96	30
94	97	2
99	99	56
51	51	37
42	43	30
36	36	42
54	55	9
52	52	39
74	74	20
70	70	38
86	94	4
28	28	9
72	72	41
37	37	20
66	67	18
64	64	44
39	39	40
20	20	11
100	100	31
70	71	6
83	100	1
67	67	64
83	98	3
40	40	41
76	76	54
89	89	43
50	51	11
95	95	32
27	95	2
60	60	27
24	26	9
80	81	10
83	83	45
48	48	38
73	73	33
36	46	3
31	31	30
81	81	39
79	79	51
98	98	39
71	71	24
20	22	8
48	49	10
41	83	2
24	27	3
69	77	2
41	41	64
90	90	50
53	53	34
40	60	1
32	32	23
57	58	14
27	27	29
29	48	5
97	98	7
25	25	14
89	90	11
54	57	1
82	82	20
33	33	28
22	99	4
69	69	42
49	49	60
45	45	44
47	48	13
80	80	36
36	39	5
46	46	42
35	48	5
62	83	5
47	47	24
57	57	44
79	80	14
59	59	37
63	65	4
48	53	2
63	88	3
54	54	28
93	93	42
72	100	3
95	96	8
44	44	35
49	56	1
63	64	11
58	58	47
89	94	1
68	68	22
37	86	3
97	97	25
50	50	44
61	62	32
68	71	3
87	87	33
22	22	12
24	25	7
77	77	33
42	90	1
95	97	6
101	101	41
55	55	32
75	77	6
66	66	38
90	91	7
55	64	2
51	52	11
38	51	3
79	96	2
96	97	11
99	100	9
72	78	3
45	48	9
88	93	5
59	63	10
94	94	35
62	62	27
53	101	3
67	68	9
75	75	46
88	88	34
69	70	14
56	56	33
96	98	11
71	72	13
25	31	1
34	35	13
94	100	2
78	79	8
93	94	12
42	42	28
100	101	4
69	71	5
70	72	8
61	61	27
48	83	3
45	47	5
44	45	10
46	62	3
47	49	2
92	101	5
86	88	13
76	77	7
57	82	8
65	65	34
49	52	8
36	88	4
39	71	3
85	85	37
50	79	1
20	51	1
34	34	16
24	28	1
86	86	43
87	91	4
62	71	7
26	26	18
66	69	2
68	69	4
38	89	4
91	92	12
101	102	6
25	28	4
79	84	1
57	60	4
59	61	2
94	98	8
46	84	4
71	74	3
86	93	4
35	35	17
60	80	7
87	94	6
38	38	25
60	61	13
35	36	7
53	54	13
84	94	3
46	58	3
72	74	1
34	45	1
88	89	7
92	93	16
74	75	8
32	84	2
25	96	4
52	53	4
51	57	6
92	92	39
55	56	9
35	51	3
85	86	9
98	99	3
34	40	1
40	90	2
51	56	6
81	84	8
24	24	11
33	37	1
29	51	2
56	92	1
95	101	1
38	86	2
45	59	2
23	27	1
26	34	3
53	82	6
29	29	16
36	37	10
84	85	6
48	89	2
65	66	13
46	47	7
53	102	6
64	83	3
40	46	7
87	88	13
86	96	2
56	57	5
22	91	3
95	98	9
83	84	14
89	93	2
68	73	8
63	96	3
29	52	2
24	29	3
31	85	2
84	84	23
60	79	1
92	100	2
58	59	11
62	63	7
66	90	2
71	73	11
83	85	1
41	43	2
47	96	3
53	55	5
23	26	6
26	27	7
57	80	4
64	65	5
25	27	5
53	88	2
55	58	2
79	85	3
23	23	2
94	96	6
84	101	3
89	99	2
70	73	3
79	83	2
75	76	10
45	56	1
20	23	3
39	40	7
69	73	4
49	53	3
93	95	1
67	73	3
93	99	3
74	79	1
67	74	2
88	94	3
90	101	1
102	102	7
80	88	1
62	86	5
35	37	3
33	70	2
89	92	12
90	102	3
22	23	4
41	42	5
52	54	3
86	97	1
86	87	8
36	38	5
58	63	3
46	48	7
34	36	1
62	82	3
58	89	1
38	39	10
85	90	4
86	92	8
63	66	1
81	82	4
35	55	1
59	60	2
72	73	8
37	70	4
25	26	3
89	91	1
53	63	1
77	78	8
48	54	5
46	61	3
58	65	1
55	100	3
93	96	5
20	52	3
87	92	2
90	93	5
58	83	1
53	80	2
32	33	2
94	99	2
35	38	2
98	101	2
39	86	1
92	98	5
78	90	1
89	95	1
47	50	1
51	99	3
48	56	4
90	94	1
27	28	1
93	100	6
34	37	2
77	102	1
33	83	5
88	92	3
68	72	4
49	81	2
87	89	5
40	75	2
28	52	5
61	64	4
56	58	3
53	61	6
97	99	1
63	67	1
40	41	3
47	87	3
54	92	4
25	35	2
92	97	3
38	40	4
50	52	2
94	95	12
46	52	2
58	95	2
80	84	6
94	101	3
40	44	3
39	72	1
31	46	4
25	95	2
54	61	1
65	71	3
62	85	1
37	100	2
41	64	3
28	32	2
41	99	4
58	66	1
87	99	3
79	95	3
49	57	3
21	53	2
66	92	1
33	79	1
79	88	1
48	50	2
84	100	2
57	79	1
59	66	1
42	68	1
86	98	1
25	53	1
57	61	3
41	44	1
48	55	1
43	44	8
34	46	3
82	83	1
37	39	2
42	85	1
87	97	1
61	81	5
33	34	1
22	27	2
48	63	3
45	46	7
37	38	5
72	86	1
57	59	1
87	102	1
33	71	1
31	81	2
60	63	1
68	101	3
44	59	1
31	53	1
93	98	1
66	68	5
60	86	1
38	72	1
23	102	2
65	73	2
47	61	3
64	66	1
33	36	3
59	81	2
24	95	1
56	60	2
40	70	1
94	102	1
25	97	2
89	97	1
65	67	1
45	99	2
31	32	3
82	84	2
85	91	1
57	65	2
24	96	1
99	101	1
29	30	1
35	71	1
23	24	1
70	82	1
22	40	1
98	100	1
86	90	1
73	76	2
50	59	3
30	82	1
64	67	1
90	92	1
90	99	1
39	85	2
39	50	1
73	90	2
36	58	1
43	68	1
97	102	1
38	73	1
63	95	1
82	86	1
92	102	3
61	63	2
74	76	1
63	83	1
33	84	1
85	89	1
91	95	1
96	102	2
68	91	1
27	37	2
74	77	2
71	78	1
91	102	1
37	76	2
61	84	5
86	89	1
80	100	1
49	58	2
22	51	1
48	51	1
28	29	1
23	54	1
27	34	1
73	77	1
45	50	1
36	48	1
79	100	1
62	84	1
61	79	1
49	80	1
35	40	1
54	89	1
34	93	1
33	91	1
49	82	1
56	99	1
95	100	1
