68	68	25
85	86	5
70	71	5
84	84	10
53	89	5
51	51	5
69	69	12
40	40	9
89	89	16
37	39	3
56	56	6
44	45	3
73	73	20
90	90	12
89	93	7
52	59	4
71	71	14
37	37	2
36	36	10
42	42	18
90	91	7
22	22	3
71	72	6
70	70	29
58	59	9
27	27	3
34	34	8
56	60	1
77	78	7
63	77	3
92	92	6
69	70	4
98	98	6
63	63	10
28	29	3
48	49	4
50	50	21
85	85	13
101	101	13
52	53	4
74	75	10
57	57	12
65	65	11
63	64	4
79	79	8
72	72	16
81	84	2
26	26	4
54	54	6
33	38	3
66	66	20
46	46	9
47	47	8
91	91	10
41	41	12
62	62	5
72	73	3
44	44	14
54	84	1
28	28	2
78	78	15
47	48	3
99	99	15
89	97	5
49	50	2
24	24	4
31	32	1
100	100	3
59	79	3
101	102	2
88	92	3
53	92	1
61	61	21
92	93	9
69	71	3
74	74	18
29	29	9
76	77	3
38	38	5
89	90	4
58	58	11
80	81	12
80	87	4
31	31	9
95	97	3
75	77	7
65	85	4
65	68	3
64	64	7
47	49	4
49	49	10
65	66	5
86	86	9
33	33	6
40	41	3
99	100	6
93	93	6
62	78	2
87	98	1
48	59	2
77	77	12
80	80	5
39	39	7
48	48	8
102	102	3
67	67	7
94	94	4
68	69	4
82	82	2
75	75	7
43	43	10
87	87	21
68	79	1
58	65	3
58	61	7
45	45	4
36	37	4
51	52	2
91	92	4
55	55	9
57	62	2
60	61	1
52	52	8
27	28	1
23	26	2
74	76	8
79	80	2
51	53	2
33	34	2
66	71	1
59	59	5
54	55	3
64	65	1
34	35	9
79	82	1
97	97	7
96	97	4
53	94	4
64	77	1
33	36	2
63	78	2
24	27	4
93	94	1
34	41	1
42	43	3
76	76	10
90	92	3
81	81	3
37	38	3
53	53	9
45	46	2
63	67	3
56	57	5
41	42	1
59	60	4
68	73	1
96	96	1
86	87	1
41	45	1
96	99	4
87	88	2
79	83	1
83	83	3
62	63	4
62	72	3
35	35	2
70	77	1
84	91	1
42	45	3
55	56	4
62	80	2
33	57	1
78	80	1
50	51	3
95	96	2
55	84	1
54	90	2
98	99	8
73	74	1
46	47	1
58	82	1
67	74	2
35	46	1
39	54	2
91	99	1
88	95	2
44	48	1
90	97	1
57	58	2
67	69	1
24	25	3
66	67	1
88	88	2
71	77	2
67	78	1
97	98	1
79	81	1
95	95	1
100	101	1
34	39	1
29	31	1
100	102	1
50	62	1
43	49	2
60	102	1
82	83	1
94	95	1
58	84	1
33	37	1
81	82	1
