234	237	3
64	64	13
160	160	18
13	32	3
206	206	11
2	7	8
1	1	14
237	237	4
76	80	3
163	163	1
43	43	8
0	0	3
11	11	7
42	42	15
55	58	2
58	58	6
69	71	6
152	152	6
62	62	4
86	86	4
184	230	3
76	76	3
169	171	3
29	37	1
88	88	9
207	207	5
98	99	5
176	181	5
70	71	5
220	221	11
97	97	3
221	224	1
15	15	17
54	54	13
177	177	9
10	10	16
214	223	4
91	92	2
0	1	4
67	68	14
124	129	2
1	30	6
20	21	4
28	28	5
181	181	4
7	8	10
217	217	6
236	236	4
29	29	7
191	213	1
4	4	3
135	136	6
45	45	7
232	232	8
51	56	2
142	143	7
3	3	7
235	235	12
118	119	4
18	18	7
10	37	3
65	133	3
108	108	11
216	216	6
84	84	10
97	101	1
103	105	9
156	180	2
48	48	12
168	168	3
61	97	4
29	30	2
116	154	5
49	50	5
39	67	1
188	188	7
4	55	2
157	159	1
26	26	5
212	213	6
12	12	10
113	114	2
184	185	2
36	39	1
217	240	3
204	213	3
98	98	5
135	135	11
103	104	10
205	205	6
157	157	5
9	9	9
165	165	10
25	25	5
107	108	7
223	224	2
46	46	15
62	63	3
224	224	5
21	21	12
140	140	2
141	144	1
197	197	8
205	206	2
112	119	1
141	141	8
22	22	13
79	79	8
192	192	3
65	66	4
69	69	13
176	177	1
44	44	4
36	36	7
238	238	3
82	82	1
78	78	11
227	228	5
87	131	2
176	182	6
89	89	4
192	216	2
82	84	3
24	24	12
19	19	10
44	45	9
196	196	7
208	208	10
145	145	9
60	60	10
77	77	10
14	14	4
30	30	6
21	33	2
3	4	1
37	43	6
50	50	7
225	226	3
162	163	3
68	68	9
55	55	11
30	31	7
1	5	2
70	70	10
172	172	5
72	72	17
169	169	9
17	18	5
37	38	7
103	103	11
122	128	1
16	18	2
71	71	6
112	113	2
156	156	5
191	191	4
13	13	5
45	46	6
85	85	6
154	154	7
39	39	4
102	103	3
106	106	15
8	8	7
8	9	2
137	137	8
76	77	3
142	142	3
171	171	4
23	23	7
153	153	1
211	232	3
98	109	2
81	84	1
115	174	3
106	107	2
164	184	5
67	67	4
227	227	3
65	65	5
209	209	8
28	52	2
146	146	7
190	190	6
73	73	13
147	147	7
217	225	2
62	65	2
199	199	8
31	31	2
158	158	4
10	36	3
193	200	4
43	45	2
193	193	2
38	61	1
78	79	4
1	40	2
35	42	8
129	129	5
6	17	4
231	231	9
175	175	4
41	41	12
221	221	3
239	239	4
147	150	2
32	33	3
121	122	1
80	80	6
57	57	11
147	148	2
116	159	4
182	182	10
223	223	13
123	124	3
71	72	6
4	5	6
222	222	4
178	179	12
124	126	3
61	62	3
82	83	4
33	33	9
19	36	3
178	178	12
187	187	8
128	128	5
28	30	2
220	220	6
16	16	5
201	201	4
201	233	2
112	112	2
164	164	7
51	73	4
12	16	4
119	119	7
168	210	1
66	79	1
186	186	6
173	173	9
55	86	3
32	32	5
79	106	6
142	191	1
14	25	4
133	134	2
174	174	2
218	218	4
5	8	2
9	137	2
143	143	6
166	187	2
185	185	6
131	131	2
228	228	1
42	95	1
99	99	5
147	161	4
7	23	5
9	26	3
226	226	1
180	180	8
183	183	8
96	192	4
229	229	7
59	59	10
105	117	1
167	167	4
150	151	1
7	7	14
194	213	2
80	84	2
167	168	5
222	242	1
3	21	2
115	115	2
149	149	9
40	40	2
118	118	3
164	165	4
77	102	3
204	225	1
13	17	2
203	203	7
4	8	1
203	204	3
230	230	3
42	43	2
26	27	4
117	118	5
137	190	1
242	242	4
168	171	5
96	129	2
170	170	2
165	179	2
5	19	2
20	223	1
9	24	2
104	170	4
214	214	2
66	67	6
169	228	1
123	126	1
156	158	4
116	184	1
148	153	1
191	192	1
113	160	1
38	38	9
212	212	8
25	198	1
6	6	3
175	210	1
211	213	1
71	73	3
152	160	2
42	45	1
7	13	2
116	118	4
168	170	2
101	102	3
37	37	8
211	211	8
88	233	1
67	233	2
193	202	1
21	23	2
2	2	8
43	47	1
101	101	3
79	80	6
103	116	4
158	159	1
0	100	1
195	195	6
150	191	5
135	183	1
34	34	3
85	86	1
186	187	4
27	37	2
9	34	2
202	202	1
111	111	4
214	242	1
63	63	8
214	215	4
220	224	2
160	203	4
159	185	1
204	205	8
81	81	6
16	25	2
55	56	3
17	19	1
182	183	9
10	11	2
4	17	6
6	13	2
28	141	2
91	91	2
164	180	2
74	74	7
5	5	2
7	14	5
140	197	4
104	104	5
7	22	3
107	107	8
210	211	2
190	231	3
171	209	1
139	143	1
190	191	2
53	53	5
51	51	9
203	226	1
204	204	1
13	23	2
200	200	6
72	73	2
219	219	11
11	35	3
69	148	4
20	20	4
70	74	1
146	181	2
215	239	1
152	202	1
241	241	3
209	229	1
96	96	2
156	157	4
25	26	6
27	32	2
4	48	2
26	43	2
116	116	4
22	157	1
9	19	2
96	130	3
47	47	6
20	31	2
27	27	6
154	158	1
189	189	1
15	16	5
184	187	2
233	233	7
83	84	2
85	103	1
197	198	3
102	102	8
155	155	2
169	183	3
176	186	1
139	200	1
23	211	1
155	158	1
222	223	4
145	146	1
139	139	3
75	76	4
194	200	1
168	209	3
159	160	1
228	229	1
12	29	3
27	36	2
29	154	2
124	124	3
85	97	4
239	240	4
11	13	1
215	215	7
100	105	3
64	73	3
138	190	2
224	226	1
105	105	3
109	110	1
6	8	2
193	196	2
132	132	1
166	166	7
139	198	2
188	208	1
69	70	2
123	199	3
143	191	1
133	133	3
207	208	4
41	42	2
210	210	4
9	88	2
237	238	1
28	54	1
76	78	1
177	178	2
163	180	1
154	155	2
13	15	4
121	134	1
198	204	1
27	142	1
46	47	3
122	228	1
217	218	1
109	109	4
120	121	1
95	99	2
40	41	1
69	194	1
129	130	3
34	35	3
54	99	3
98	173	3
172	173	1
65	67	1
56	56	5
100	100	3
155	156	1
166	168	1
234	234	3
134	134	3
68	120	3
166	170	3
24	47	3
22	140	1
114	115	1
119	153	1
125	125	4
35	89	1
48	50	3
130	130	1
161	161	2
218	241	2
153	159	1
63	68	3
75	75	4
17	17	3
5	55	1
121	121	2
159	162	1
144	145	1
55	59	1
22	23	1
173	211	1
45	96	4
61	61	2
176	176	2
211	212	2
187	188	3
63	133	2
7	16	1
191	193	1
9	10	2
52	52	1
0	2	1
137	140	1
122	122	1
234	235	1
11	17	2
100	173	1
52	227	2
28	31	2
116	117	1
48	54	1
32	60	1
141	142	1
179	180	2
67	110	1
51	52	1
159	159	2
74	84	1
184	184	1
56	84	1
140	156	1
194	194	2
14	19	2
122	201	1
144	144	1
99	100	2
5	22	1
221	223	1
34	38	1
9	46	2
121	194	2
213	213	4
214	222	1
18	19	6
120	152	1
0	136	2
70	73	1
220	225	2
41	75	2
56	57	2
168	169	1
86	88	2
33	34	1
8	13	1
81	83	1
9	39	2
150	150	1
66	66	2
104	105	1
114	154	1
212	218	1
225	225	4
35	35	2
9	141	1
195	216	1
97	192	2
121	199	1
28	154	2
123	123	1
114	114	1
178	207	1
179	179	2
204	223	1
8	49	2
84	85	1
11	12	2
162	162	2
73	74	1
214	220	1
96	121	1
33	238	1
67	234	1
50	84	2
43	200	1
148	149	1
131	232	1
170	183	1
16	17	3
2	3	1
19	47	1
195	196	1
49	53	2
185	186	1
50	82	1
240	240	2
1	2	1
166	167	1
40	84	3
137	188	1
21	22	1
223	225	1
188	189	1
67	69	1
29	31	2
171	172	2
39	40	1
153	160	1
121	143	1
123	125	1
96	101	1
51	55	1
26	29	1
149	150	1
205	226	1
54	55	1
