133	134	2
81	81	9
84	84	2
130	130	4
79	80	1
112	112	7
98	98	1
25	25	5
137	142	3
95	95	3
106	106	2
70	117	2
22	22	12
69	74	1
65	65	8
37	37	9
112	113	1
4	4	8
126	152	1
35	35	6
68	69	2
118	149	3
139	139	4
34	37	1
53	53	11
19	19	9
72	80	2
148	148	6
134	134	6
125	125	4
74	74	6
36	50	3
31	31	9
153	153	8
30	30	7
103	105	2
41	42	5
39	39	3
11	25	3
9	10	5
15	15	5
85	85	5
117	118	3
71	71	4
44	44	7
119	121	2
147	147	4
5	6	2
109	114	1
11	13	4
58	64	1
38	39	2
15	16	4
50	51	2
120	127	1
49	56	4
107	107	1
50	50	10
64	64	6
129	130	2
12	12	3
134	138	2
102	115	2
43	43	7
108	108	7
10	13	3
94	95	1
45	47	2
141	141	3
36	38	2
131	131	5
17	17	10
67	67	4
99	99	9
100	100	8
128	129	2
66	68	5
149	150	10
75	75	5
147	149	2
86	87	2
132	132	6
142	142	4
117	117	9
136	137	1
68	68	6
123	131	2
109	109	2
13	13	5
24	24	6
72	72	4
6	6	2
38	38	2
73	73	5
78	79	1
10	10	7
14	15	3
27	27	1
48	50	2
22	23	6
26	26	4
96	100	1
119	123	1
119	119	4
10	15	1
75	78	1
17	18	2
45	45	5
29	29	5
47	47	6
65	68	1
57	70	3
8	8	4
49	49	5
89	92	1
149	149	1
75	93	4
29	39	1
105	105	3
52	54	4
65	84	2
132	133	1
96	96	10
121	121	2
111	111	4
33	33	5
36	36	2
9	9	2
144	145	5
6	11	2
130	148	2
53	54	1
116	117	3
135	135	3
65	80	3
80	81	2
66	83	3
41	41	5
124	149	1
32	32	3
20	20	5
104	104	3
108	109	3
80	80	4
56	57	6
18	19	5
142	144	2
29	30	4
32	33	1
145	145	2
35	36	5
34	34	1
16	17	5
15	23	6
33	34	3
146	146	2
128	153	2
122	131	1
82	83	3
151	152	1
52	52	1
30	32	3
92	116	1
92	93	2
76	76	1
99	127	4
83	83	6
27	28	4
84	85	1
47	48	2
97	97	1
11	11	7
33	35	4
40	40	3
54	54	2
122	123	2
7	7	6
122	122	3
39	40	5
136	138	2
66	66	2
81	90	1
83	85	1
92	92	2
14	14	3
133	133	3
118	118	2
7	8	2
75	85	1
35	38	2
124	125	2
146	147	3
113	114	2
126	126	2
66	84	1
23	23	4
94	97	1
144	144	3
26	67	1
142	143	2
63	67	1
114	114	2
137	137	1
85	86	1
82	82	1
75	76	1
86	86	1
53	57	2
20	82	2
41	46	3
9	17	1
16	153	1
25	39	1
48	51	2
118	119	1
48	48	2
93	93	4
18	27	1
13	23	2
23	24	2
81	97	1
80	82	3
20	21	1
138	138	2
153	154	1
133	135	1
112	116	2
115	115	1
113	116	1
121	122	1
63	63	1
97	99	1
93	94	3
154	154	1
132	135	1
4	5	1
31	33	1
40	41	1
103	103	4
20	22	1
61	61	1
19	20	2
69	69	1
69	70	1
34	39	1
23	47	1
131	132	2
17	33	2
78	78	1
114	115	2
41	43	3
145	146	3
30	38	3
42	43	2
150	150	1
144	146	1
28	28	1
102	102	1
67	70	2
78	123	1
52	53	1
110	111	1
24	25	2
64	65	1
19	21	1
139	142	2
8	9	1
67	69	2
47	128	2
90	91	2
62	66	1
96	97	1
18	18	2
47	149	1
128	128	2
37	39	1
5	5	1
13	38	1
54	55	3
41	45	1
95	97	1
21	21	2
98	99	1
81	82	1
46	46	1
119	126	1
124	128	1
96	110	1
41	54	2
70	70	1
3	23	1
77	78	1
140	141	1
66	67	1
77	79	2
116	116	1
123	128	1
101	102	1
120	120	1
100	101	1
48	67	1
79	79	2
28	30	1
93	100	1
65	66	1
79	121	1
104	105	1
