125	125	12
5	5	8
18	18	3
26	26	6
113	113	10
98	98	3
80	80	17
7	12	5
54	95	2
35	35	5
89	89	1
119	120	8
72	130	2
111	121	2
71	72	4
96	96	6
92	102	3
14	14	13
71	71	14
92	92	5
106	106	4
84	84	15
61	62	7
24	24	10
64	64	8
88	95	4
130	130	6
44	44	9
105	105	8
53	53	12
21	25	1
92	118	5
57	126	1
100	100	7
22	79	3
20	20	3
111	130	3
77	77	10
93	93	1
77	79	3
20	50	1
134	134	9
8	8	3
79	87	2
0	0	2
109	109	3
77	78	2
61	61	6
112	114	1
52	53	1
3	4	2
58	60	4
76	76	5
124	124	4
38	38	1
131	131	6
82	109	1
116	117	1
97	98	2
13	14	3
101	101	3
26	79	4
66	67	6
25	26	2
15	18	2
115	115	1
1	2	9
1	1	4
63	63	2
103	103	10
9	10	2
98	126	2
73	73	8
123	123	7
121	122	3
12	12	12
53	126	2
13	21	3
62	62	4
16	18	1
3	3	8
26	44	4
43	43	4
2	2	4
59	66	5
117	117	7
118	119	4
44	66	2
11	11	3
55	55	5
16	20	2
118	118	6
95	95	4
65	66	3
45	45	4
90	90	3
52	127	3
106	132	2
80	81	2
16	23	1
111	111	2
28	28	2
129	129	6
109	117	2
82	82	3
27	27	4
85	85	12
64	84	2
91	91	6
56	56	4
94	94	5
43	107	1
70	70	5
62	63	5
78	78	4
50	82	1
34	34	4
117	118	3
10	35	2
29	34	2
57	106	2
80	104	1
35	69	1
74	74	7
78	86	2
10	10	8
72	72	5
25	25	3
81	86	1
117	119	1
105	115	2
119	119	4
67	84	3
84	85	1
85	87	2
105	133	1
87	87	6
26	98	2
106	110	4
1	99	1
116	116	6
91	94	2
111	129	2
72	80	1
54	54	2
108	108	1
83	83	2
52	52	2
38	53	4
65	65	2
55	98	3
14	15	3
88	88	4
102	102	2
73	104	1
43	52	3
55	56	4
91	118	1
0	21	1
54	57	1
83	131	1
49	50	4
121	131	1
44	79	3
92	93	1
108	125	1
82	100	2
116	128	3
22	43	3
20	86	1
130	132	1
35	76	1
32	32	1
17	17	3
7	17	1
68	68	1
10	18	2
13	24	2
89	99	1
112	112	4
117	123	2
51	51	2
122	122	1
59	59	3
108	109	3
31	31	5
6	18	2
114	114	7
119	122	1
9	16	1
61	69	1
116	135	1
55	84	1
79	79	1
15	15	1
132	132	2
33	33	2
0	5	2
55	125	1
95	115	1
129	130	4
75	75	3
104	104	4
13	13	5
109	110	1
101	104	1
93	103	1
64	65	1
123	124	4
33	35	1
95	109	2
111	113	4
45	57	1
38	87	1
16	16	1
43	44	1
126	126	1
38	42	1
98	115	1
34	69	2
9	35	2
57	58	5
57	107	1
92	107	1
60	60	2
7	7	3
63	76	2
29	29	3
27	28	2
81	100	1
53	54	2
67	68	1
49	49	3
107	107	3
64	116	1
24	79	3
48	76	2
52	61	1
120	120	1
8	24	1
11	18	1
56	57	2
10	108	1
90	103	1
99	127	1
43	66	1
19	83	2
57	60	1
109	131	1
56	128	1
65	127	1
116	131	1
128	128	1
66	69	1
45	97	1
21	21	3
95	118	2
122	130	1
81	81	1
50	52	1
24	25	1
43	84	1
69	69	1
83	107	1
26	97	1
77	100	1
19	19	3
63	105	1
60	65	1
89	104	1
110	110	1
74	75	1
35	73	1
47	47	1
91	92	1
