59	60	6
92	93	15
64	64	28
99	99	35
100	100	32
37	37	18
82	88	3
59	72	2
41	41	54
35	35	21
85	85	18
79	101	3
58	58	31
50	50	23
61	61	28
40	40	28
60	64	2
74	74	37
76	76	47
26	26	18
97	98	5
62	83	7
31	31	31
33	35	6
47	47	6
73	73	41
79	80	35
66	66	37
67	67	51
75	75	39
47	56	5
61	72	3
102	102	16
76	77	10
23	24	4
92	92	30
80	80	16
88	88	35
89	89	24
43	43	21
55	55	19
71	71	34
70	73	2
90	91	21
22	22	18
86	86	39
79	93	2
38	38	20
62	62	51
34	34	14
68	89	6
63	63	20
22	23	9
65	65	40
80	85	1
54	78	2
95	96	5
93	98	2
73	77	2
74	79	2
90	90	20
46	48	6
99	100	12
74	75	3
61	62	5
57	57	34
49	51	4
77	78	13
79	83	4
78	78	19
96	96	22
79	79	32
84	95	2
62	63	7
72	72	25
80	81	17
68	68	33
52	52	34
27	27	21
91	91	21
23	23	8
63	65	5
81	81	33
31	32	8
44	44	33
70	70	21
60	61	7
38	54	5
83	83	13
49	50	9
27	97	2
23	27	4
83	84	15
36	36	25
53	100	2
33	33	22
53	86	7
27	36	5
64	66	3
23	26	2
48	48	19
91	92	12
86	89	5
71	72	20
39	40	8
52	90	2
36	46	1
48	50	5
48	49	15
69	70	11
35	37	2
56	57	11
44	45	6
47	61	4
93	97	2
40	41	7
93	93	23
49	49	18
65	70	7
47	48	12
42	42	27
38	53	2
69	69	43
101	101	13
51	51	39
98	98	28
78	79	3
45	45	22
58	61	10
81	84	4
57	59	7
50	56	1
81	82	11
57	58	13
95	100	7
46	46	29
94	100	6
94	94	21
56	56	32
89	90	13
92	99	4
77	77	16
87	88	19
81	89	3
86	87	5
50	51	9
54	54	18
59	63	2
38	39	11
80	90	3
39	39	22
63	85	8
95	95	25
61	63	4
46	47	13
74	77	3
45	49	4
33	34	10
46	52	3
58	72	2
24	26	6
29	29	14
59	59	33
84	84	17
72	91	1
35	36	4
54	60	3
79	81	3
70	71	6
20	22	4
25	26	3
36	37	2
85	89	1
53	53	10
87	87	9
51	67	2
53	54	9
51	80	4
24	24	8
58	59	5
86	88	9
93	94	9
53	83	3
28	28	1
60	60	12
34	53	3
48	84	1
51	81	4
45	46	10
43	45	2
81	90	2
101	102	5
94	98	3
56	58	1
99	101	7
28	33	2
65	90	2
97	97	11
62	87	5
92	94	2
26	37	1
51	52	10
44	50	2
52	54	3
68	74	1
57	61	1
59	90	2
73	74	8
55	99	4
66	67	6
98	99	3
87	89	9
91	99	3
53	81	2
54	81	3
62	77	1
81	85	2
38	60	2
59	76	1
25	27	2
23	25	3
69	71	2
98	101	2
80	86	4
95	97	7
97	100	2
43	50	2
32	32	6
80	84	2
68	69	8
75	76	2
33	37	2
37	51	3
24	25	4
30	30	3
37	47	2
28	29	3
36	38	1
51	85	2
81	93	1
82	82	9
82	84	4
46	55	3
55	56	3
31	49	2
41	42	5
43	64	1
42	43	4
29	32	3
100	101	5
73	75	2
80	89	3
80	87	1
94	97	3
60	74	1
58	60	4
80	82	1
52	53	2
60	83	2
72	73	1
85	90	1
59	86	4
62	65	3
34	36	1
92	102	2
61	70	2
52	84	1
31	33	3
64	91	2
52	88	2
64	65	7
28	95	3
34	35	7
96	97	3
86	90	1
52	86	1
61	84	4
29	38	1
94	101	2
37	38	3
71	73	1
46	62	3
58	78	1
63	66	2
39	47	3
29	30	1
30	37	1
93	102	3
24	27	1
59	64	2
62	85	1
74	78	1
26	27	8
88	89	1
76	86	2
36	47	1
35	50	2
64	72	1
81	95	1
54	56	2
40	80	3
25	25	3
55	81	2
63	70	1
87	93	4
47	53	1
25	37	1
34	39	1
27	28	1
28	74	2
94	96	1
48	52	2
96	99	2
59	61	2
58	83	1
56	83	1
57	71	1
91	100	1
55	86	2
79	92	1
54	61	1
77	92	1
53	84	1
61	81	1
63	64	5
77	80	1
34	52	1
94	99	2
81	100	3
32	34	2
37	48	1
100	102	2
24	55	4
31	38	3
43	63	1
95	98	1
65	67	1
45	48	1
48	51	1
86	91	2
68	71	2
61	86	1
48	88	1
38	85	1
59	62	1
88	94	1
54	85	1
89	92	1
88	100	1
41	101	1
60	63	2
62	89	1
97	99	3
96	100	3
44	51	1
49	58	2
53	87	1
42	62	1
68	77	1
55	57	1
31	37	1
53	55	1
52	79	1
54	86	2
61	82	1
46	56	1
53	79	1
98	100	1
33	46	1
59	78	1
64	90	1
83	98	1
29	34	1
91	101	1
70	74	1
