175	175	4
41	41	9
179	191	1
88	89	4
39	39	8
191	191	19
110	110	6
111	112	4
148	148	4
165	167	7
25	42	3
99	153	5
57	57	3
197	197	4
163	163	6
15	30	3
35	61	1
33	36	2
148	149	4
136	136	6
114	115	1
46	46	8
153	153	8
75	75	3
75	142	1
72	73	3
20	173	3
176	180	3
37	37	3
17	17	5
190	190	11
9	62	1
104	105	3
168	168	11
7	7	3
71	71	5
143	143	12
107	107	4
160	160	4
187	188	3
63	63	4
172	172	4
137	145	1
27	27	5
196	196	7
30	30	12
31	32	10
168	169	2
66	66	11
3	68	1
142	142	8
28	28	6
9	9	1
121	121	4
173	176	4
70	72	3
12	12	16
124	124	6
190	191	9
135	137	3
173	173	7
2	63	5
68	145	4
193	193	12
84	85	1
29	31	3
111	111	2
189	189	5
119	119	5
188	188	1
195	195	2
9	10	6
182	182	7
76	76	3
14	14	6
26	26	6
185	185	3
65	65	1
10	35	4
183	183	8
15	37	1
104	165	3
190	197	3
52	52	5
34	34	3
137	146	2
135	139	3
154	154	13
104	196	3
70	84	1
89	161	1
171	171	6
194	194	3
119	121	4
126	127	4
6	7	1
134	147	2
94	94	2
117	117	7
168	170	4
16	16	4
67	67	1
105	105	5
43	43	6
40	40	3
47	47	11
21	177	1
122	122	4
170	170	15
132	157	3
26	59	1
126	126	9
55	56	4
138	145	1
28	29	3
36	58	4
48	48	5
195	196	2
188	189	1
56	57	2
6	6	6
139	139	5
1	3	5
74	74	4
36	38	2
129	156	3
30	31	5
54	54	2
80	80	3
15	23	1
44	166	3
108	173	5
178	178	2
134	162	1
4	32	2
0	74	1
174	175	3
83	83	5
81	81	1
84	84	1
3	3	5
79	192	1
167	171	3
95	107	3
56	56	6
93	193	1
142	157	1
120	120	4
63	190	1
45	45	3
7	15	2
69	69	4
173	174	1
86	86	6
156	156	5
169	180	3
137	137	6
134	148	1
18	18	3
112	186	2
101	101	1
11	12	2
37	44	1
50	50	5
71	72	1
128	128	5
175	176	1
56	65	4
100	100	10
148	167	3
178	179	5
36	61	2
139	140	2
152	152	2
159	159	9
3	61	1
10	10	4
176	176	3
177	177	3
28	30	3
130	130	8
58	58	4
164	164	4
78	84	2
19	29	2
135	136	2
29	29	3
146	147	1
159	160	4
22	23	2
121	188	2
160	161	7
157	160	3
5	6	7
17	31	1
187	193	1
86	87	1
0	38	1
131	131	7
106	107	2
170	171	1
23	23	6
174	174	9
147	148	6
140	146	1
123	126	1
196	197	1
16	17	2
132	177	2
175	178	5
161	171	3
187	187	4
13	41	1
3	20	3
25	38	2
117	135	2
20	20	8
100	101	3
179	179	11
135	144	1
78	78	6
161	161	3
145	147	2
12	31	1
21	62	1
181	181	7
102	103	1
141	158	6
109	195	2
169	169	7
36	37	1
42	42	2
123	124	2
67	69	2
150	151	1
72	76	3
42	61	1
118	123	1
14	23	2
12	41	1
36	36	10
2	2	2
73	74	6
3	8	1
155	155	6
35	35	5
149	171	2
134	181	1
62	62	2
122	168	2
45	46	4
22	22	2
85	85	5
49	50	3
40	186	1
68	142	1
72	72	2
1	1	4
167	190	3
165	166	2
172	173	1
36	39	1
177	178	6
158	158	2
82	83	3
25	25	5
144	144	1
127	186	2
112	113	2
24	31	1
58	66	1
129	129	6
23	24	1
42	73	2
181	182	1
173	175	1
107	127	5
8	8	3
20	55	2
24	25	1
158	172	1
192	192	3
136	137	3
2	37	2
17	18	2
98	98	1
5	5	2
136	148	2
39	73	1
12	48	2
155	158	1
124	128	2
132	140	1
6	58	3
20	26	5
115	161	2
2	62	1
34	65	1
0	0	2
19	19	4
162	162	4
3	64	2
77	80	1
152	153	3
12	168	2
165	183	1
64	67	2
145	150	1
33	37	1
87	87	1
109	126	1
114	114	4
46	47	2
22	42	3
9	16	3
139	152	1
103	103	3
156	170	3
59	59	4
161	162	1
161	163	3
133	133	4
144	146	1
27	28	2
175	180	2
38	73	1
121	122	2
157	157	7
150	150	2
114	118	2
95	96	1
180	191	2
145	145	3
180	180	4
3	25	3
54	66	2
140	159	3
129	173	1
21	21	3
119	120	4
108	159	1
134	134	1
108	108	4
189	190	1
78	90	2
141	141	3
18	19	1
111	120	2
104	104	4
84	93	2
186	186	6
192	193	1
123	123	3
102	106	1
99	99	3
140	142	1
94	96	2
15	16	1
89	138	2
151	151	2
32	32	1
13	14	1
54	55	1
109	123	1
146	146	2
3	41	2
34	42	1
10	37	2
158	159	3
191	192	3
103	195	2
3	27	1
152	190	2
110	111	1
99	133	1
101	102	2
4	6	3
184	184	2
34	38	1
6	57	2
19	168	2
82	82	3
184	185	1
120	187	3
58	163	1
122	126	1
53	53	2
55	55	2
112	112	1
70	79	1
14	58	1
118	134	1
103	112	2
15	15	2
133	158	2
119	151	1
58	63	1
25	61	4
146	170	2
101	107	2
116	116	1
60	60	3
50	56	1
102	102	2
105	106	1
1	36	1
137	138	1
127	127	3
70	70	1
186	191	3
134	145	3
101	183	1
34	60	2
138	138	3
159	175	1
143	144	1
31	31	1
44	44	3
140	154	1
185	186	1
37	43	1
109	109	1
142	149	1
179	182	1
163	164	1
29	30	2
88	88	1
138	185	1
167	167	1
113	113	1
137	139	1
128	141	1
169	176	1
176	178	1
5	21	1
18	20	1
111	117	2
135	135	1
118	119	1
151	152	1
153	168	1
166	166	2
31	46	1
139	153	1
152	154	1
140	140	1
149	149	1
147	147	1
162	163	1
37	42	1
183	185	1
103	104	1
