78	79	3
21	21	8
10	11	2
67	86	1
90	90	12
62	62	8
69	69	2
58	70	1
134	134	14
114	115	2
142	143	1
29	29	5
68	70	1
8	8	11
1	55	3
131	134	2
137	137	16
68	77	1
28	99	3
5	33	4
121	121	3
65	96	2
91	91	8
120	120	15
141	142	6
62	63	1
32	58	3
80	80	5
125	125	12
58	59	5
54	56	4
37	37	9
25	26	2
89	89	5
27	27	6
85	93	6
119	119	10
141	141	6
81	130	2
5	12	2
9	9	11
53	53	5
32	32	6
134	137	2
130	134	1
51	51	9
17	17	7
73	75	4
50	50	8
12	12	2
68	68	7
34	35	1
19	19	12
131	131	6
3	4	2
41	142	1
54	54	9
102	102	3
96	124	1
90	91	1
71	72	6
102	143	2
74	93	1
26	26	2
18	18	10
73	74	13
33	34	2
56	58	3
85	85	6
135	135	3
86	91	2
4	31	5
9	24	6
100	100	5
98	98	4
122	123	3
66	108	4
55	55	4
128	128	9
62	85	1
9	21	2
69	92	1
3	38	2
117	117	2
27	79	2
136	138	5
115	116	4
126	126	11
82	85	1
84	84	3
1	1	4
41	41	3
36	36	6
56	56	6
77	103	3
24	24	5
52	63	3
101	101	5
57	59	1
70	70	3
87	88	1
112	115	6
108	108	2
98	107	4
32	33	12
0	1	4
80	132	4
120	121	1
144	144	4
14	108	4
79	123	3
0	2	1
109	109	2
20	20	10
88	128	2
74	74	5
77	77	7
14	16	3
43	43	1
83	83	2
31	31	3
69	79	3
136	137	4
115	115	3
112	112	3
11	122	4
75	75	2
89	90	1
18	19	2
89	91	2
33	58	5
47	67	4
143	143	3
22	24	2
61	61	6
25	25	7
14	15	5
55	56	5
131	133	2
61	62	3
116	116	8
81	109	4
8	21	1
71	73	1
78	78	3
4	5	10
136	136	5
88	88	5
57	61	1
30	108	1
113	113	3
93	93	3
23	23	3
14	14	3
22	29	1
66	66	1
127	127	6
29	30	2
103	103	1
88	89	5
115	117	5
58	72	1
15	28	5
69	70	2
60	60	7
36	41	2
110	110	5
9	10	2
104	106	3
16	16	4
95	96	4
56	108	1
118	119	3
13	35	5
32	49	3
138	138	2
65	88	2
15	38	1
77	78	2
135	137	1
35	35	1
63	63	4
117	118	1
48	48	4
37	38	2
133	136	2
33	33	6
55	62	2
13	13	3
10	10	7
82	84	2
53	54	2
123	123	4
143	144	2
102	142	1
71	74	2
139	139	6
65	111	2
133	133	2
124	124	2
145	145	2
134	135	4
6	6	3
28	28	1
112	113	3
32	72	2
22	22	4
118	118	4
128	130	2
59	59	6
76	77	1
42	108	2
104	105	1
135	140	4
74	92	2
113	125	1
133	134	1
99	100	4
132	132	2
107	107	1
111	111	3
131	132	7
59	61	3
139	140	6
92	94	3
97	97	1
61	121	1
30	107	1
73	104	1
4	127	2
57	60	1
80	81	2
73	87	3
14	33	4
110	123	1
83	85	1
38	38	2
73	73	4
32	36	3
79	80	1
20	21	2
105	106	5
66	109	1
97	107	1
59	62	1
96	106	1
30	30	5
8	24	2
114	135	1
2	40	3
75	91	1
87	110	1
42	42	4
104	104	4
58	58	6
52	52	4
120	125	1
8	18	1
67	75	1
61	85	1
18	37	1
62	87	2
16	39	2
116	117	4
42	50	1
2	47	1
49	133	1
112	114	2
68	69	2
107	122	1
87	87	4
140	140	1
96	96	2
50	51	2
103	104	2
48	95	1
111	112	2
34	34	6
142	142	2
67	67	3
40	40	3
77	94	1
96	100	1
37	42	3
133	143	1
72	75	2
65	65	2
95	105	2
131	135	1
2	13	1
90	100	1
4	48	1
106	106	4
59	63	2
129	129	1
105	105	1
2	55	1
92	143	2
3	3	4
47	47	2
99	128	1
135	138	2
4	4	1
78	94	1
129	130	1
6	31	2
12	13	1
57	57	3
74	75	3
67	69	1
92	92	1
81	110	1
49	49	2
123	126	2
86	97	2
71	71	3
55	132	1
47	78	2
74	77	1
8	10	1
75	100	2
38	117	4
38	40	1
29	76	1
146	146	1
39	39	2
91	98	1
26	28	2
11	11	1
83	84	1
130	130	1
71	79	1
37	40	1
39	40	1
138	139	1
49	59	1
12	20	1
97	106	1
3	35	1
69	88	1
0	48	1
93	94	1
107	111	1
