181	181	25
203	203	49
162	162	52
207	221	3
223	234	7
35	36	9
183	183	43
154	154	32
220	221	5
114	114	46
222	222	39
9	44	2
34	37	4
178	178	24
222	223	11
72	74	4
25	25	18
186	207	2
22	23	9
152	153	13
229	229	26
53	54	9
85	85	22
233	233	18
52	52	30
53	55	5
21	22	3
217	219	7
196	196	9
204	205	28
206	207	17
155	155	34
155	156	12
235	235	33
236	236	26
31	43	2
178	183	5
28	45	5
66	66	19
54	55	8
210	211	6
54	54	18
187	189	15
117	118	17
202	202	11
183	184	13
225	225	21
217	217	15
190	191	5
7	7	31
55	55	24
69	70	8
36	36	23
43	43	17
103	103	5
218	218	10
65	65	25
150	151	4
3	3	13
84	84	13
156	201	1
205	205	44
3	16	6
64	64	19
119	119	30
44	45	14
57	58	14
98	98	17
206	208	7
119	120	9
165	165	40
32	32	25
208	208	44
109	116	4
48	48	28
69	73	5
117	117	6
24	24	28
197	198	6
197	197	21
105	105	11
180	180	31
161	161	37
118	118	35
158	166	3
46	46	31
152	152	19
163	163	10
223	233	2
174	174	15
44	44	38
200	200	39
56	56	14
117	119	6
47	47	26
68	70	6
101	103	4
115	115	33
211	211	27
30	30	13
209	209	28
75	75	17
228	228	28
33	59	3
210	210	11
75	86	3
193	193	12
107	107	12
17	17	39
213	213	14
15	16	19
81	84	8
9	9	19
19	19	13
68	68	25
192	192	21
15	19	2
146	146	10
191	192	5
170	170	16
235	236	9
18	18	10
211	217	5
40	42	3
215	246	4
199	199	21
153	155	2
65	66	2
158	159	8
51	51	25
240	241	9
27	27	23
95	95	22
37	38	12
11	11	19
43	44	11
31	31	42
238	239	9
185	213	3
204	204	57
31	33	8
69	69	8
169	196	1
237	237	20
24	25	3
91	92	16
224	224	23
169	170	9
88	96	2
85	101	4
58	58	12
6	30	4
60	60	14
33	33	13
182	182	23
20	21	8
244	244	21
219	235	1
5	5	16
62	63	9
113	152	1
108	108	10
175	175	26
179	179	21
110	115	2
86	90	2
226	226	33
221	221	39
16	16	22
81	85	2
6	6	29
151	153	2
113	113	31
94	97	1
107	108	9
247	247	16
41	41	38
217	218	7
234	234	33
8	11	4
67	67	27
8	8	30
187	187	23
4	54	1
42	46	1
34	35	9
212	212	37
213	215	8
151	151	30
172	172	19
79	79	22
35	35	17
152	163	3
23	23	22
79	114	2
94	94	8
177	178	10
109	110	7
191	191	9
178	179	11
70	73	4
160	160	26
150	150	39
76	76	15
214	214	40
103	106	9
32	36	3
53	53	45
228	229	10
106	106	13
198	198	37
194	194	20
160	166	4
156	156	40
14	15	6
182	189	2
1	1	10
242	242	9
157	157	8
178	180	3
223	223	31
174	175	2
78	162	2
40	40	20
3	7	4
97	107	4
192	193	3
88	89	10
84	85	4
150	153	1
45	46	9
4	4	12
15	34	2
207	207	36
165	184	1
164	164	25
210	216	1
109	109	32
226	248	4
49	49	18
93	93	27
88	88	14
93	94	11
102	104	2
189	201	2
50	51	5
115	116	8
189	189	11
215	215	6
69	75	5
203	205	4
27	44	4
154	212	1
215	216	8
162	169	1
42	42	19
197	229	1
110	153	4
210	214	2
184	185	14
159	160	10
10	10	21
111	112	5
104	104	8
201	201	34
108	109	4
227	228	2
22	22	28
186	195	3
226	229	2
69	78	1
59	59	5
118	119	7
71	71	12
176	177	18
92	93	5
37	37	37
238	245	2
56	57	8
238	238	9
110	110	37
165	166	11
158	158	17
208	217	3
220	234	4
239	240	7
182	183	10
203	204	20
90	90	25
79	89	4
39	39	25
232	232	18
158	160	5
241	241	26
38	39	6
74	75	4
61	61	5
182	184	1
177	181	2
86	86	24
97	97	12
48	49	7
225	226	8
3	11	3
180	181	8
50	50	8
168	169	8
193	199	2
62	62	25
168	168	20
156	161	3
167	208	4
19	20	8
208	210	3
58	60	1
99	99	11
170	171	12
216	216	12
38	38	45
195	195	11
116	117	3
160	161	9
21	21	14
26	26	14
153	153	42
201	205	1
224	240	3
239	239	16
72	73	5
91	95	2
240	240	32
113	114	21
236	237	6
67	68	1
216	231	2
171	173	3
232	233	7
94	95	9
183	185	5
45	45	34
186	186	37
167	168	3
74	74	16
173	181	4
161	162	12
243	243	9
91	91	6
52	54	5
166	166	34
183	199	4
145	145	22
23	47	1
234	236	5
154	155	20
14	14	18
109	115	3
70	70	14
167	167	10
116	116	10
185	186	10
173	173	45
105	106	6
26	28	1
114	115	9
52	199	2
7	10	3
80	81	7
20	20	18
205	206	7
157	169	2
102	102	5
246	247	1
174	186	4
48	229	1
114	167	2
53	199	6
82	83	9
236	240	3
209	214	1
159	240	3
52	53	7
240	246	2
218	219	9
54	201	4
212	213	2
185	185	14
3	31	2
97	159	2
188	189	5
78	79	5
175	176	4
187	188	5
171	171	13
206	206	17
110	117	2
215	217	6
233	234	6
187	193	5
90	91	7
89	90	11
234	235	12
47	65	1
16	17	4
81	81	7
29	29	14
229	231	4
237	239	1
70	72	3
73	73	9
118	197	2
180	194	5
199	200	16
193	194	7
7	45	2
162	180	6
78	158	5
4	38	2
221	222	12
80	80	17
78	90	4
118	243	5
101	110	3
184	184	17
27	28	6
54	200	2
113	167	2
28	46	1
81	83	3
163	164	9
219	220	3
16	30	4
112	159	4
34	34	17
46	47	11
214	241	5
15	15	19
36	229	3
230	230	16
172	173	12
41	42	5
159	166	2
162	163	6
72	72	7
151	167	1
112	112	14
159	236	2
169	169	21
42	54	4
220	220	19
57	57	10
60	61	9
28	28	23
237	244	2
188	188	10
78	78	23
6	44	5
187	191	1
207	208	6
157	158	1
166	167	4
39	173	2
171	172	4
49	50	7
30	31	6
156	162	4
212	240	6
153	154	12
77	78	3
29	180	2
52	55	3
43	53	3
244	245	4
198	199	8
29	217	5
31	61	5
210	224	2
80	86	10
245	245	5
2	2	9
66	68	3
100	100	17
105	118	1
92	92	19
213	214	16
116	118	2
112	239	5
36	38	3
11	17	1
159	159	15
217	236	5
208	212	3
2	15	1
94	162	1
14	34	3
12	15	2
78	94	1
77	179	1
33	34	3
177	177	20
6	16	3
78	93	1
85	103	1
65	89	2
6	11	2
110	113	4
111	111	8
23	25	1
99	111	1
249	249	4
180	193	5
96	116	2
158	161	1
224	225	9
18	19	6
186	188	5
85	106	2
171	182	1
187	192	15
209	210	13
147	147	4
230	231	1
174	191	2
86	107	2
189	190	5
43	70	3
2	3	8
173	183	6
19	35	1
15	176	3
233	236	3
119	242	6
153	214	1
26	27	6
164	182	3
232	236	2
5	174	3
157	167	1
40	60	1
87	88	10
188	190	5
168	222	2
226	239	2
187	194	2
120	236	2
0	1	3
200	201	6
119	247	2
211	212	10
104	105	8
173	178	3
99	101	7
110	111	12
82	82	5
163	165	5
15	33	1
48	63	5
66	67	8
226	227	1
11	15	1
46	156	4
120	120	8
180	204	4
147	162	1
36	39	3
111	117	2
152	165	1
63	63	16
76	89	2
172	185	2
3	29	2
102	105	1
164	238	2
18	25	2
192	198	3
29	31	4
40	46	2
64	65	6
31	32	8
157	182	1
65	67	9
36	40	8
101	101	1
188	191	3
52	68	1
186	209	2
55	69	3
181	194	3
17	34	3
48	50	4
59	60	6
29	37	3
97	98	1
179	180	10
177	180	2
168	236	4
42	43	6
56	71	2
237	238	1
114	116	2
104	107	9
29	43	1
68	201	1
51	52	8
77	89	1
29	48	1
5	6	3
176	176	3
57	72	1
1	2	4
44	46	4
12	12	8
118	244	3
163	169	2
172	195	3
58	193	3
39	57	2
214	215	6
242	244	2
231	231	5
4	53	4
40	41	7
71	73	3
48	62	2
223	247	3
38	40	2
159	161	4
211	215	2
174	182	1
173	180	4
13	13	2
73	74	2
225	241	2
40	51	1
157	183	2
218	237	1
195	199	2
27	29	2
98	105	1
83	84	3
152	162	2
215	241	3
198	200	1
228	230	3
112	166	4
195	196	7
196	197	3
9	147	1
55	56	4
144	145	3
89	89	6
96	96	9
248	248	5
100	101	2
10	11	4
172	182	1
166	172	1
241	242	2
77	77	9
211	240	1
233	237	1
169	206	2
245	246	14
51	63	5
64	162	2
157	163	5
146	147	5
41	55	4
4	5	9
183	203	4
157	178	1
7	8	6
246	248	2
4	175	1
49	64	1
7	44	1
35	38	1
157	160	1
181	191	2
53	200	1
187	195	4
230	236	2
193	198	3
197	213	3
32	45	3
194	211	2
55	57	4
168	174	2
8	9	8
219	219	4
182	185	1
12	229	1
113	115	2
49	170	2
6	7	2
2	16	3
79	80	3
151	152	3
246	246	8
207	223	1
149	149	4
208	209	13
230	233	3
167	169	4
120	145	3
173	187	2
3	38	3
32	33	4
10	27	1
168	223	2
82	84	5
58	59	3
168	232	4
2	4	1
71	77	3
51	173	1
186	202	5
46	48	3
170	216	1
59	62	2
57	62	1
94	161	5
152	236	1
15	36	1
6	34	1
227	227	13
112	113	7
3	6	2
190	192	1
214	217	4
181	182	2
9	10	4
2	11	2
201	202	3
42	52	2
179	181	2
178	181	3
99	115	2
102	107	3
161	173	2
36	37	2
49	229	2
85	86	4
86	102	2
171	195	2
172	191	2
116	244	4
116	119	1
164	245	1
233	235	7
194	195	4
66	93	1
240	248	2
31	90	1
43	46	1
90	99	5
146	160	2
111	238	1
188	201	1
193	209	1
40	61	1
157	162	1
226	228	3
87	87	8
197	199	4
50	64	1
185	212	1
15	18	5
31	116	1
17	18	2
23	24	3
51	69	4
166	168	1
99	102	5
225	229	4
242	248	1
173	202	4
71	75	2
149	151	2
181	193	2
156	205	4
29	47	1
241	246	3
76	77	4
223	224	2
57	60	2
118	120	2
170	183	1
70	71	2
71	74	5
30	36	1
182	191	4
95	160	1
47	199	1
54	78	3
173	207	1
165	209	3
0	0	6
222	235	1
153	203	5
225	239	2
155	200	1
108	110	1
233	243	3
247	248	3
185	191	2
18	33	1
64	69	2
3	8	2
69	189	2
53	68	1
35	49	1
1	11	1
114	154	1
83	83	2
186	222	1
197	221	1
185	189	1
80	82	1
239	243	1
8	45	1
47	212	3
17	26	6
28	32	4
68	69	1
248	249	2
41	43	1
169	214	3
52	223	1
209	213	1
30	42	1
10	179	2
61	62	6
208	215	1
53	59	2
7	9	3
112	240	1
89	91	2
179	212	3
41	52	1
65	69	2
217	247	2
72	75	5
240	242	1
71	72	1
162	182	1
202	203	3
192	194	4
194	196	2
69	72	3
15	61	1
78	160	1
10	212	4
198	203	2
200	221	2
243	244	2
47	50	3
214	236	2
201	204	3
12	14	3
31	36	1
41	54	1
70	74	2
58	194	1
33	37	2
232	234	1
69	87	1
209	244	2
230	235	2
78	87	1
25	230	1
174	180	2
102	119	1
51	186	1
103	119	1
220	235	1
112	241	1
65	88	2
5	17	1
10	17	1
187	190	1
149	150	1
231	232	5
225	244	1
98	100	3
212	222	3
37	39	1
172	174	2
200	205	1
84	107	2
93	95	2
31	47	2
153	159	2
46	51	2
174	176	1
173	174	2
95	97	2
28	43	1
71	189	1
53	198	1
93	145	2
105	108	2
244	248	2
45	52	1
158	203	3
166	208	2
78	81	1
180	195	1
39	56	1
6	29	1
9	27	2
63	71	3
213	233	2
242	247	1
27	43	1
242	243	4
33	36	1
47	171	1
56	59	1
108	121	3
182	190	1
47	48	1
10	206	3
87	97	1
237	240	2
217	225	1
55	62	1
70	78	1
10	30	1
156	157	1
106	107	1
101	102	2
15	39	1
190	190	2
112	116	1
190	193	1
29	42	1
8	16	1
212	239	1
20	222	1
54	67	2
216	218	2
47	66	1
202	204	1
234	240	1
165	185	1
75	145	1
194	209	1
196	231	1
202	205	1
29	30	1
213	232	1
5	29	1
109	117	1
193	211	1
192	197	1
215	232	1
14	19	1
80	84	3
30	61	1
47	70	1
149	164	1
111	113	1
186	193	1
95	96	2
63	64	1
104	119	2
167	175	1
12	57	1
30	34	1
11	30	1
20	22	1
167	171	1
5	53	1
25	26	2
3	180	1
170	215	1
231	233	1
172	210	1
153	213	1
30	41	1
197	206	1
81	91	1
238	240	1
71	109	1
178	231	1
175	177	1
115	242	1
221	223	1
210	215	1
181	236	1
50	169	1
38	247	1
