48	48	17
8	8	2
106	106	4
72	72	3
129	129	3
108	108	2
186	187	7
142	170	1
5	5	4
132	132	11
153	153	12
169	179	2
162	162	2
49	49	13
118	119	2
102	113	1
116	118	3
188	194	2
39	39	11
119	119	5
38	38	2
142	160	2
184	184	6
195	195	3
197	197	11
57	57	4
69	71	1
143	143	1
105	105	4
140	140	2
47	47	6
114	122	5
120	120	1
51	51	2
22	22	2
74	74	2
126	127	3
110	111	2
145	145	2
152	152	4
118	118	1
158	159	2
30	32	1
105	147	3
196	196	10
5	6	8
189	189	2
127	127	9
20	130	4
103	105	4
162	183	1
32	33	7
138	138	5
7	43	8
40	44	1
36	36	2
150	150	6
131	131	1
168	168	5
68	68	2
78	78	2
163	163	3
24	24	5
113	113	5
52	52	3
111	112	1
94	95	9
191	191	1
59	76	7
157	157	2
52	55	4
141	187	2
82	82	5
185	185	9
139	169	1
95	96	5
15	15	5
13	14	1
110	110	3
11	47	1
126	126	2
156	156	2
187	187	5
21	22	5
177	178	4
9	9	3
65	73	7
140	141	4
119	120	3
177	177	7
170	170	8
20	21	3
23	23	5
133	133	2
24	29	3
194	194	8
31	32	4
24	30	1
104	105	3
10	10	1
58	58	5
35	35	5
176	176	2
147	147	11
193	193	5
145	146	1
50	50	8
40	40	1
93	94	2
20	20	4
139	140	8
33	34	1
61	62	2
186	186	1
33	33	2
146	146	4
7	7	3
100	100	3
130	133	2
148	148	8
114	114	1
41	41	6
164	164	2
1	1	2
132	133	3
160	160	4
106	131	1
117	117	2
2	2	8
102	102	1
58	64	2
26	35	1
6	6	1
59	62	3
146	147	3
121	121	3
103	112	2
54	56	2
45	46	3
146	159	2
105	106	2
42	42	1
170	177	2
122	123	3
185	186	1
101	101	2
179	180	1
98	98	3
53	53	4
107	109	1
180	180	2
111	111	2
37	37	6
8	190	1
115	115	1
178	178	1
152	153	2
28	28	2
57	58	5
4	5	1
25	26	1
183	183	8
82	83	1
13	13	4
67	68	6
30	38	2
175	175	2
123	123	5
173	175	4
99	99	2
112	113	2
181	181	2
34	34	4
14	14	1
139	139	1
45	62	1
124	124	1
167	167	1
56	56	2
153	154	1
163	164	1
80	82	2
141	144	1
77	77	2
94	94	1
174	175	3
99	102	1
134	134	3
71	71	3
59	59	1
18	157	1
84	85	3
2	8	2
155	155	4
78	80	1
187	192	1
119	124	1
147	148	1
43	43	1
101	102	3
124	125	1
174	176	2
179	181	1
11	11	2
115	150	1
149	149	1
104	104	1
59	61	1
190	191	1
158	167	1
49	50	1
109	110	1
153	167	2
40	41	1
29	34	1
46	47	1
147	174	1
183	184	2
20	45	1
70	94	2
54	55	1
3	3	1
52	58	1
125	190	1
127	139	1
109	109	1
134	135	1
178	180	1
192	194	1
52	53	1
144	144	1
176	178	1
58	152	1
10	45	1
159	160	1
