209	211	5
67	67	2
56	59	1
79	79	2
42	42	2
113	113	2
167	167	1
174	174	3
15	29	1
234	234	3
236	237	2
114	114	2
146	146	1
99	99	11
100	100	3
158	158	6
94	97	7
27	27	2
15	15	2
16	17	1
146	152	2
152	187	1
194	196	4
34	35	6
36	36	5
222	222	2
200	200	5
199	199	5
191	192	2
245	247	3
26	26	2
40	59	3
62	64	2
168	168	4
205	205	4
76	76	4
208	217	1
95	95	2
18	18	1
118	118	4
216	218	2
93	93	6
209	246	2
19	19	2
208	211	3
35	35	4
225	225	4
116	117	2
177	177	5
160	160	3
179	179	3
232	246	1
183	186	2
232	232	3
197	216	1
203	203	5
212	212	10
10	10	4
242	243	4
53	53	2
19	29	3
109	247	3
197	197	2
105	107	3
94	242	4
51	52	3
57	57	2
34	34	3
119	119	2
243	243	3
71	75	2
210	211	4
174	190	2
86	86	2
183	183	5
156	156	2
21	21	1
8	10	3
102	103	2
227	227	2
152	152	5
84	110	1
40	40	1
109	109	7
159	166	2
240	240	8
187	187	1
211	214	2
118	119	4
211	211	3
23	23	2
181	181	2
171	171	1
76	77	2
221	221	3
197	198	3
82	82	2
112	112	3
241	241	2
238	238	4
209	209	3
12	12	3
18	232	1
60	60	1
50	90	2
233	233	3
75	77	1
202	202	2
84	84	2
91	91	3
246	247	1
63	63	1
97	119	4
147	147	5
58	58	2
14	14	6
1	109	2
11	11	1
7	7	2
48	48	4
78	78	9
5	5	3
22	22	3
151	158	1
153	154	1
176	177	1
75	80	2
32	33	2
159	182	2
76	236	3
222	223	2
104	104	2
101	101	2
196	209	2
150	150	2
90	91	1
119	171	1
16	16	2
117	117	3
244	244	1
207	219	1
41	41	1
52	52	2
154	154	1
219	220	1
39	39	3
20	20	4
170	170	4
161	161	4
180	191	1
208	209	2
8	8	5
68	68	2
194	195	2
32	61	2
206	206	2
184	184	2
159	159	3
187	191	1
173	174	1
178	179	1
14	15	2
155	155	3
33	33	2
163	164	2
59	236	1
105	105	6
180	180	1
229	229	3
37	38	1
175	175	4
239	239	2
30	30	1
43	43	1
168	169	1
164	164	2
192	195	4
51	51	3
197	203	1
184	206	2
248	248	2
184	242	2
233	235	1
119	202	2
195	195	2
204	204	1
60	61	1
16	21	1
201	201	2
106	108	2
109	116	1
71	71	2
198	232	2
196	208	1
237	237	3
28	54	2
120	120	2
16	54	1
186	186	3
67	68	1
224	225	3
160	165	1
232	233	1
167	191	2
108	110	1
7	225	3
66	67	1
46	156	2
185	185	1
218	218	2
86	87	1
51	208	1
196	196	3
206	207	1
70	70	1
64	64	2
26	41	1
116	116	1
79	83	1
90	90	2
203	206	1
203	204	3
193	208	1
21	41	1
189	190	2
237	238	1
87	92	2
110	110	1
59	60	1
171	182	1
45	45	1
212	214	1
66	66	3
61	217	2
75	75	1
174	178	1
15	157	1
199	200	2
106	106	4
214	214	1
115	120	1
146	174	1
245	245	1
184	185	1
107	107	2
19	44	2
83	83	3
182	182	1
192	247	1
72	72	2
55	55	1
184	234	2
159	175	2
217	218	3
67	160	1
189	189	1
215	215	1
238	239	2
181	186	1
228	228	1
92	92	1
192	241	1
165	182	1
157	160	1
164	167	1
4	4	1
18	234	1
116	156	1
214	216	1
94	94	1
44	44	1
191	191	2
74	110	1
176	176	1
73	73	1
193	193	1
241	242	1
65	65	1
119	120	1
105	106	1
115	115	1
36	38	1
223	223	1
88	88	1
221	222	1
101	107	1
247	248	1
111	111	1
