109	109	13
131	131	44
16	17	15
50	51	5
1	10	2
120	121	11
117	123	3
91	91	37
10	10	34
33	33	32
128	130	7
32	32	13
15	16	10
61	61	33
124	124	26
118	119	21
65	66	16
89	94	4
35	35	23
4	56	2
60	61	6
58	58	24
105	107	5
5	5	16
40	41	6
17	17	19
11	12	2
32	33	12
134	137	6
74	75	15
66	66	6
51	51	25
136	136	22
18	20	5
37	37	15
129	129	42
141	141	36
103	104	11
39	79	2
16	16	10
3	58	2
55	55	20
117	118	17
123	123	34
70	70	16
120	120	28
125	126	9
131	133	8
133	134	37
41	41	17
105	106	14
130	130	34
122	122	41
125	125	26
20	20	17
59	59	9
102	105	4
31	31	30
64	65	18
22	22	46
80	80	33
38	38	24
8	8	19
132	133	15
80	91	6
102	111	4
57	57	22
144	144	17
25	26	13
95	96	7
137	139	2
132	132	31
36	38	3
111	112	7
100	101	9
94	94	14
73	73	24
96	109	4
135	138	2
93	94	9
53	53	29
89	90	13
121	121	18
15	15	12
97	98	11
14	15	7
77	78	10
112	112	19
135	136	15
42	42	30
117	128	3
60	60	16
41	42	13
107	120	3
107	107	27
99	107	6
17	19	1
79	79	27
37	38	10
68	68	36
9	33	2
33	34	5
108	108	30
72	84	4
52	53	16
102	112	4
73	90	4
82	90	4
116	117	9
47	47	20
53	54	13
27	27	50
94	116	1
119	119	21
25	25	23
142	143	6
92	92	27
99	99	16
102	102	11
117	117	20
83	84	9
0	0	18
134	144	7
40	40	20
67	67	24
97	97	32
39	39	12
74	74	31
142	142	23
87	87	8
9	9	9
99	100	7
19	19	40
126	126	34
128	128	36
104	104	19
10	42	3
62	62	13
71	71	9
106	106	19
20	22	3
140	140	43
21	21	22
83	83	7
52	52	15
94	95	5
75	77	1
104	105	8
104	106	7
84	85	8
118	129	8
135	135	26
131	140	1
140	141	11
93	93	13
58	66	7
11	11	15
117	140	6
86	86	7
119	121	3
11	30	5
11	32	3
6	35	6
47	48	1
82	87	3
28	28	19
139	142	2
77	77	12
21	22	4
36	37	16
54	54	25
39	40	13
18	22	4
128	129	5
67	82	4
116	120	3
133	133	38
5	36	3
95	142	4
98	99	4
119	120	5
111	111	13
75	75	18
49	49	18
96	98	2
137	137	1
72	72	12
89	91	5
101	101	30
134	134	53
63	65	1
17	18	7
24	25	10
41	118	2
118	121	2
64	64	13
127	127	19
96	97	3
96	96	24
115	118	3
23	25	2
6	6	14
10	11	8
80	100	2
4	5	15
138	138	18
126	132	2
56	56	14
50	50	32
99	121	1
91	94	5
118	118	13
121	125	1
28	29	11
54	55	8
79	80	5
118	140	2
29	29	24
76	76	15
139	139	13
63	63	18
98	98	20
107	108	4
1	8	2
55	56	8
110	122	2
87	96	1
97	141	1
81	81	27
145	145	24
22	95	6
60	92	2
16	20	3
129	130	10
54	64	2
117	119	8
26	31	9
106	107	13
139	140	11
21	96	1
8	56	1
14	16	2
105	118	1
101	103	6
84	84	4
68	79	2
81	82	5
136	137	14
30	33	2
143	143	22
35	37	5
31	32	2
95	98	11
39	41	8
114	115	17
103	103	19
141	142	9
123	135	6
48	48	21
122	123	15
4	6	5
38	40	10
59	62	1
37	50	4
67	68	13
26	26	19
73	91	1
73	74	16
23	24	2
114	114	12
2	2	19
143	144	20
130	131	12
93	108	1
51	52	8
122	131	6
30	30	12
102	113	2
36	39	2
116	118	9
122	124	5
1	1	17
35	36	9
112	118	2
123	124	7
126	127	16
58	60	2
131	132	4
103	119	2
62	63	17
1	12	6
28	30	6
125	127	4
132	135	3
41	43	4
133	141	2
118	120	3
99	101	2
90	90	12
76	77	9
75	76	3
110	110	7
94	117	3
121	123	2
88	88	8
69	69	15
18	19	7
123	125	3
27	28	7
121	122	7
95	95	11
65	69	3
29	30	4
70	86	1
95	100	3
102	114	1
94	101	2
134	139	1
87	89	2
19	21	2
2	43	4
136	138	3
11	37	1
127	130	4
34	38	1
12	15	2
135	142	2
40	53	5
113	113	14
81	87	1
107	110	4
36	36	8
24	24	9
100	100	6
3	3	16
23	23	13
22	23	7
71	77	3
63	64	5
105	105	20
107	109	4
50	55	1
20	21	9
3	21	2
14	14	6
88	115	2
80	81	5
119	144	1
57	58	2
113	114	7
13	13	6
54	70	2
79	81	7
124	125	3
56	57	3
43	43	5
108	109	3
76	79	4
18	18	6
90	109	1
69	70	5
127	128	6
111	113	2
140	142	4
72	76	3
19	29	2
118	143	2
127	129	7
134	135	5
78	79	8
28	101	2
59	60	10
43	47	5
42	43	2
38	41	2
9	11	2
8	29	2
59	65	7
120	126	3
129	131	6
56	62	4
54	56	1
65	65	21
104	108	1
34	35	4
98	106	1
97	109	3
76	78	6
82	82	8
81	97	3
125	134	2
34	34	3
3	4	6
13	14	8
89	89	16
108	110	2
110	124	1
82	83	6
85	85	5
57	61	6
120	138	1
12	12	8
112	113	5
1	21	1
118	131	3
50	53	5
80	82	1
127	131	1
13	20	3
10	41	2
39	42	1
115	115	9
31	33	2
95	97	2
53	63	4
71	72	8
88	90	6
86	87	3
111	116	2
141	143	2
12	13	3
98	101	1
91	92	8
48	50	1
58	59	3
15	20	6
92	93	10
79	86	5
66	68	4
15	18	1
16	18	4
78	80	1
55	58	6
113	115	4
69	72	1
98	104	5
8	53	2
133	140	2
102	103	4
47	51	1
30	31	5
132	134	4
16	25	2
120	123	2
2	36	2
99	102	5
48	49	3
135	137	4
9	30	2
2	5	4
63	98	1
114	132	1
124	126	2
87	90	2
26	27	2
97	138	1
2	57	4
69	113	5
27	29	3
24	104	1
19	20	5
13	21	2
68	83	3
138	139	6
144	145	3
49	50	2
43	86	2
50	54	1
4	55	2
1	43	3
80	84	1
40	43	1
96	108	2
126	130	1
53	55	3
64	66	3
71	79	1
2	21	1
2	4	5
101	116	2
60	73	1
109	110	6
54	68	1
70	71	3
39	80	1
89	93	1
108	133	1
102	104	1
74	77	1
59	61	4
24	97	4
88	89	2
43	85	3
137	138	1
59	82	3
84	87	1
55	64	3
106	108	5
99	103	1
119	133	2
66	67	4
61	62	1
67	69	1
16	37	2
4	4	6
35	38	2
56	58	3
42	48	2
93	110	3
12	95	1
21	24	2
78	78	1
83	85	1
119	129	1
98	102	1
41	87	2
16	23	2
16	26	3
5	120	2
10	36	2
122	133	2
93	111	1
46	47	5
64	70	2
16	22	3
23	26	1
50	52	2
54	67	1
69	81	2
12	16	2
126	131	1
12	32	3
62	67	1
64	69	1
132	139	2
60	74	1
112	116	1
90	91	1
1	47	2
38	49	1
115	119	1
145	146	1
88	116	1
20	95	1
8	16	3
18	26	2
57	62	2
116	116	8
110	140	1
5	6	4
73	89	2
43	119	2
9	10	1
63	72	1
122	128	2
30	32	3
120	128	1
27	109	1
72	73	1
68	102	3
108	135	2
101	109	1
11	31	1
21	101	1
24	26	1
15	21	1
20	33	3
109	134	1
110	123	1
8	19	1
120	125	1
122	127	2
121	131	1
61	63	2
66	69	1
71	86	2
20	24	5
123	133	1
1	42	1
101	114	1
71	81	1
109	133	1
51	53	1
97	104	1
54	58	1
19	39	2
117	144	1
9	36	1
6	14	2
115	116	2
131	134	1
58	63	4
140	143	1
20	34	2
90	92	2
2	3	1
59	63	1
133	139	1
103	105	1
28	33	1
50	56	4
22	102	1
62	64	2
8	9	2
55	67	2
58	71	1
98	108	1
121	144	2
60	62	2
117	121	1
80	128	1
90	94	1
120	131	1
38	39	3
124	146	1
98	107	1
138	140	2
68	72	2
72	74	1
130	134	1
47	49	1
32	34	1
10	37	2
5	9	1
130	135	1
115	142	1
42	61	1
71	73	2
54	66	1
88	91	1
74	76	1
8	11	1
114	116	1
43	48	1
124	134	1
100	128	1
15	23	1
122	129	1
81	91	1
54	65	1
130	132	1
105	116	1
63	70	1
87	88	3
6	12	1
9	42	1
79	94	1
136	139	1
17	99	1
18	28	1
84	103	1
134	136	1
8	18	1
93	99	1
53	65	1
98	119	1
95	106	1
3	36	2
61	69	1
1	57	1
129	141	1
31	34	1
106	141	1
47	50	1
17	100	1
113	118	1
79	91	1
