137	140	5
89	91	6
67	67	4
102	122	1
48	48	4
58	58	5
53	55	2
139	139	7
76	77	3
133	139	1
69	69	4
126	128	3
72	72	7
30	30	2
96	97	4
24	24	9
14	14	8
20	20	10
59	59	6
77	78	1
58	69	7
146	146	4
16	17	2
38	38	11
55	56	6
107	110	7
134	141	1
22	25	2
28	28	8
116	117	5
118	118	8
12	13	3
137	137	12
13	14	2
67	68	2
141	141	2
129	130	2
100	100	5
0	54	3
123	123	6
77	77	3
90	92	6
33	37	4
53	53	2
93	93	5
89	90	8
10	10	7
141	142	2
121	122	3
18	19	1
6	50	7
3	4	1
138	139	2
71	71	7
96	96	3
83	83	1
126	126	6
116	116	6
22	22	4
25	26	4
65	65	1
122	125	3
81	82	3
89	89	4
110	110	9
5	12	1
63	63	4
36	36	2
104	112	2
66	67	9
110	111	3
88	143	1
64	64	9
126	127	5
87	87	8
22	23	3
117	118	2
32	35	3
51	51	1
1	9	4
74	74	3
82	126	1
1	1	4
49	49	3
38	101	2
101	102	2
3	3	2
138	138	1
108	108	3
127	130	2
92	92	2
22	24	1
36	37	5
131	133	5
96	143	2
91	91	8
124	124	2
145	145	11
37	37	6
86	94	3
59	60	3
104	104	12
2	2	5
36	77	2
129	129	12
3	35	2
92	93	5
75	75	1
66	77	1
134	134	5
128	141	2
69	119	3
96	98	2
119	120	4
143	144	2
85	85	4
94	94	3
2	4	4
63	64	5
106	107	4
3	46	1
57	57	3
136	138	1
131	131	7
88	88	4
128	130	1
0	0	1
51	73	5
79	132	3
53	54	1
109	111	2
37	38	3
32	32	4
42	42	4
4	4	4
121	121	6
74	101	1
80	80	4
94	105	1
55	55	9
73	73	4
54	54	3
107	107	2
125	126	4
140	141	4
115	116	4
29	30	2
61	61	1
23	24	5
112	113	2
11	11	2
68	68	2
49	54	2
28	37	2
31	32	4
142	142	3
47	48	3
140	143	2
128	134	1
109	109	5
84	88	4
50	51	1
33	33	4
40	41	1
17	17	3
49	50	2
94	96	5
134	139	2
27	28	2
136	136	3
88	91	3
25	25	10
133	133	7
69	70	2
81	106	2
52	52	1
65	66	1
40	40	4
27	27	4
4	16	1
0	1	3
40	74	2
60	113	3
95	95	3
40	57	1
26	26	2
91	94	1
105	106	1
102	103	1
119	119	5
93	96	7
67	91	2
29	29	2
6	6	2
72	73	4
99	100	2
111	111	5
101	101	5
35	35	7
139	140	1
85	98	1
10	19	11
102	104	3
54	56	2
80	81	3
23	23	2
130	130	1
61	83	1
76	76	3
9	9	4
27	37	3
12	19	2
27	29	3
102	102	4
61	62	3
133	134	2
110	130	2
118	119	1
67	70	1
66	66	2
1	34	1
60	60	5
91	92	2
81	81	6
125	125	1
19	19	3
51	52	2
61	63	1
57	58	1
112	112	1
112	133	1
21	21	2
113	113	4
79	91	1
3	6	1
12	12	2
30	37	3
18	18	2
27	33	1
115	115	1
132	133	2
118	120	4
58	60	1
131	132	3
22	26	1
140	140	3
58	59	1
142	144	2
134	135	1
79	80	1
133	136	1
41	41	4
14	16	2
14	15	1
61	65	1
88	90	1
135	135	3
13	13	2
58	89	1
79	79	2
68	70	2
71	118	1
4	5	1
120	120	3
86	86	2
62	77	2
88	89	1
8	8	1
19	20	1
50	91	1
47	47	1
135	139	1
76	78	1
62	62	1
5	11	1
63	74	1
91	95	1
5	5	1
72	92	1
62	74	1
70	70	1
138	140	1
94	95	1
128	129	1
70	101	1
103	103	1
56	71	1
