105	105	4
11	11	9
55	105	2
36	37	2
71	71	1
106	155	2
142	150	3
168	168	2
28	29	8
126	126	5
85	109	1
27	27	7
67	88	5
18	18	6
101	101	6
26	26	4
114	125	2
160	160	10
12	18	3
81	85	3
120	120	3
62	158	2
35	35	13
145	146	1
56	56	11
34	34	10
177	177	4
6	10	4
33	33	13
44	44	5
123	148	1
173	173	15
130	131	2
118	121	3
165	167	1
104	105	8
137	137	2
59	142	3
31	31	14
87	87	11
140	140	5
128	128	3
157	157	5
142	147	1
124	125	8
77	77	6
121	121	4
25	41	2
27	28	1
51	51	7
108	109	6
1	6	6
37	37	12
23	23	10
123	126	3
21	21	2
147	147	7
58	148	3
151	151	1
118	135	1
46	89	2
50	51	9
37	39	3
141	141	6
74	74	2
62	62	7
151	152	2
97	98	2
55	56	2
40	40	13
128	129	2
76	76	3
91	91	13
0	1	2
74	92	2
133	133	14
86	86	6
14	15	9
7	7	9
2	2	8
149	170	1
158	159	2
1	2	3
80	80	5
12	13	2
24	25	3
19	19	10
90	90	1
168	169	3
0	10	1
161	161	3
43	136	5
110	125	4
73	73	5
152	153	3
39	39	3
13	13	8
121	156	3
118	125	2
19	20	3
61	61	3
14	23	1
166	166	2
159	160	3
30	42	2
1	3	2
60	135	2
64	64	3
9	9	11
8	26	1
30	44	3
154	154	2
29	29	13
94	95	1
131	131	10
8	9	6
135	135	4
67	67	9
127	128	1
18	20	1
138	138	5
113	113	7
10	10	7
144	144	3
54	54	4
95	95	5
92	92	5
89	89	3
43	46	6
106	154	3
124	124	3
159	159	6
22	85	5
10	60	1
24	24	5
122	158	2
96	96	5
169	169	8
8	10	3
132	132	3
167	167	4
28	38	2
147	152	2
30	31	3
10	11	1
122	131	2
122	122	7
26	103	1
81	128	1
2	4	4
93	93	7
85	85	4
142	142	8
55	55	5
147	148	1
22	22	14
172	172	8
82	82	1
71	72	2
168	178	1
36	45	2
68	68	4
94	94	1
176	176	9
38	43	2
63	64	1
45	45	5
98	99	5
125	125	2
37	38	4
170	170	8
127	156	6
32	32	8
1	1	4
58	58	2
73	140	3
163	164	6
43	43	7
6	6	7
118	120	2
106	106	3
68	142	3
76	179	3
99	100	1
143	143	1
131	141	3
163	163	4
149	149	4
64	101	1
12	12	9
30	50	4
5	15	1
63	101	1
25	25	8
42	42	6
165	166	6
30	101	3
79	79	4
68	76	1
85	141	2
14	17	1
158	165	4
139	139	1
138	174	2
167	168	2
16	37	1
164	164	1
149	150	7
102	104	1
141	142	3
3	3	9
180	180	5
38	38	13
115	116	2
113	114	1
36	36	6
175	175	1
157	158	1
26	76	2
146	147	2
76	77	2
127	127	4
107	160	4
35	44	1
146	146	3
106	136	2
88	89	5
1	13	1
59	62	2
25	26	3
15	15	4
115	137	2
135	137	4
21	22	3
144	166	1
56	77	1
165	165	1
177	178	1
11	16	2
119	119	3
41	41	3
20	21	1
103	108	2
110	137	6
100	100	2
92	93	2
88	88	3
116	116	2
4	4	7
103	106	4
136	137	3
126	128	3
122	147	3
24	84	1
31	32	1
108	150	2
161	162	3
136	150	1
30	38	2
114	114	2
68	70	1
145	145	6
8	8	3
118	118	2
171	171	3
109	109	2
40	171	1
0	0	7
131	153	1
134	134	8
81	82	3
14	14	4
15	18	2
129	157	3
110	144	2
26	51	2
132	142	2
2	3	4
90	124	2
132	133	4
75	75	5
38	121	1
17	17	2
12	16	1
36	41	1
158	158	3
130	130	1
101	156	2
5	52	1
179	179	1
116	151	1
76	147	2
99	101	3
129	130	2
51	66	3
143	144	2
87	103	1
155	155	3
19	21	1
57	57	2
106	111	1
112	112	2
117	118	1
20	20	6
28	28	3
122	134	3
33	109	3
116	117	5
40	41	3
37	122	2
59	59	4
6	7	3
93	95	2
104	104	2
23	38	2
36	38	1
103	103	1
71	80	1
32	125	1
18	19	1
39	40	1
21	135	1
30	30	1
150	150	1
24	132	1
2	51	1
11	14	2
165	178	1
109	147	1
94	104	1
60	62	1
36	120	2
3	7	1
167	172	1
63	63	2
92	95	1
56	75	2
50	60	1
75	92	1
9	11	2
154	155	2
72	73	1
120	159	2
132	139	1
11	12	1
13	179	2
97	119	1
72	74	1
136	136	4
110	110	2
31	44	2
15	16	2
115	153	1
78	79	1
31	35	1
59	63	1
98	98	2
57	124	1
81	89	1
139	140	3
111	111	1
68	131	2
37	43	1
52	79	2
52	53	1
35	114	2
16	16	2
5	5	1
135	161	1
3	8	3
45	91	1
8	13	1
35	126	3
13	16	1
129	129	1
59	61	1
7	8	1
78	179	1
136	151	1
60	130	1
166	167	1
103	104	1
156	156	1
120	135	1
81	134	1
33	34	1
57	137	1
96	148	1
118	131	1
52	93	1
67	120	1
6	11	1
3	4	1
49	49	1
