94	111	2
25	26	3
116	140	4
111	112	8
25	25	9
24	27	5
51	51	3
38	38	1
120	120	5
76	93	2
69	70	7
59	59	5
131	131	2
103	103	13
18	18	6
99	99	3
11	11	4
80	80	6
31	31	3
142	142	6
70	70	11
115	141	2
63	63	6
122	122	2
126	127	1
95	128	2
51	52	5
3	33	1
138	138	4
24	24	2
4	4	2
93	95	2
112	112	5
108	108	6
110	111	1
137	138	3
142	143	2
27	41	2
110	112	3
78	78	2
56	56	6
40	41	4
116	116	4
111	111	6
112	114	5
113	116	1
82	83	1
26	26	4
50	51	6
20	20	4
17	17	11
92	92	6
88	89	4
17	95	1
94	94	4
68	70	1
126	126	6
96	98	2
18	95	2
55	56	1
121	121	5
132	135	1
22	32	3
68	72	2
29	29	9
81	81	8
132	139	2
52	53	2
141	141	3
126	146	2
100	101	2
15	15	2
2	4	4
66	71	2
27	27	4
70	74	1
79	79	9
4	5	1
40	40	8
22	117	4
39	42	2
25	93	2
130	130	5
124	125	2
118	119	1
139	139	3
62	62	7
88	88	3
30	30	1
52	52	4
95	95	11
124	124	4
19	20	2
28	101	3
140	140	5
77	79	1
96	96	4
24	25	2
117	117	4
84	84	2
58	58	7
114	114	1
104	104	5
90	90	12
75	76	3
71	89	1
6	6	3
52	58	1
8	8	5
15	16	5
42	141	1
23	23	9
81	82	2
1	1	1
47	51	1
14	14	3
133	133	3
108	109	4
58	59	3
35	36	1
16	17	1
86	86	2
82	85	1
143	143	3
69	69	5
95	96	1
57	58	1
97	98	1
13	13	1
14	34	2
21	116	2
141	142	2
33	35	3
110	110	3
106	112	1
127	127	3
62	64	2
55	55	7
105	138	3
35	37	2
42	42	7
133	136	1
22	24	2
39	40	1
60	77	1
57	57	5
117	118	2
39	39	1
107	110	1
37	37	3
106	117	1
49	69	1
17	120	1
133	135	1
68	85	2
105	105	3
102	102	2
109	111	2
95	98	2
75	75	1
16	72	1
87	99	1
50	52	1
105	108	1
58	61	1
38	39	6
28	30	2
71	72	3
82	82	2
16	19	1
61	61	3
108	113	2
109	109	2
128	130	2
135	135	2
47	47	2
9	10	1
41	41	2
41	42	4
31	32	3
136	136	1
62	69	1
84	86	1
36	36	5
67	69	1
32	33	1
111	139	1
34	34	1
127	130	2
97	97	3
68	69	2
135	138	3
87	87	2
107	109	1
119	119	1
27	49	1
112	113	1
32	32	3
133	134	1
28	28	1
70	92	1
93	93	2
54	54	2
76	76	2
67	80	2
14	71	1
5	5	6
127	137	1
68	101	3
49	49	1
98	99	2
41	89	2
123	123	3
60	60	1
79	80	1
11	26	1
119	120	2
136	141	1
42	120	2
83	84	1
83	85	1
72	72	3
9	9	1
2	5	2
2	14	1
14	31	1
74	74	1
3	3	1
68	68	4
105	106	2
129	130	1
67	67	2
93	94	1
18	19	1
108	138	1
139	140	1
91	91	2
92	105	1
137	137	1
25	27	2
128	128	2
29	30	1
19	19	3
0	6	1
15	88	1
13	20	1
21	21	3
89	89	2
10	11	1
15	17	1
62	66	1
106	106	2
85	85	1
48	48	2
37	38	1
16	16	1
114	115	1
128	129	3
107	131	1
136	137	1
109	110	1
129	129	1
118	118	1
106	113	1
34	117	1
146	146	2
90	101	1
46	55	1
101	101	1
13	15	1
100	100	1
51	58	1
49	52	1
5	13	1
62	63	1
78	79	1
53	53	1
33	37	1
