186	186	32
22	24	4
179	179	24
123	123	19
40	40	19
154	154	32
149	149	31
37	37	47
148	149	10
107	107	29
181	181	19
197	197	25
170	170	27
105	105	24
151	151	33
55	55	44
166	167	9
155	157	10
62	74	9
146	147	19
14	14	22
194	194	40
139	143	6
189	189	32
146	168	2
148	153	1
121	123	4
160	160	37
12	23	3
168	169	12
13	13	27
116	116	14
156	156	52
110	110	29
88	90	5
43	44	14
143	143	9
187	190	4
153	154	7
85	85	15
39	39	31
193	193	22
31	47	3
169	169	35
70	71	6
173	174	10
109	110	8
147	147	32
192	192	18
187	187	20
176	176	35
16	16	46
87	87	9
100	100	25
139	139	32
123	172	2
122	122	18
195	196	2
140	140	17
133	133	26
113	113	19
26	192	4
63	66	4
102	106	6
113	115	4
28	40	6
142	142	9
153	153	17
167	167	21
5	5	12
57	57	19
32	32	21
118	118	14
162	163	6
99	99	14
48	48	32
95	193	1
99	111	3
16	26	6
44	44	15
10	10	28
74	106	4
28	28	31
83	83	12
58	58	17
42	42	19
3	5	3
184	184	42
155	155	19
185	186	21
178	178	21
3	6	6
177	177	42
6	6	20
57	58	5
97	193	3
32	193	1
173	175	11
29	29	11
28	33	3
130	131	18
131	131	40
50	51	14
22	145	1
135	136	12
46	46	14
196	197	4
33	49	2
168	168	32
35	35	6
99	100	2
106	106	10
5	8	9
60	66	1
53	56	5
27	27	13
29	45	1
177	181	5
10	43	5
18	18	37
5	6	7
182	182	32
135	151	2
9	9	39
143	159	3
135	139	8
13	14	6
142	143	8
174	175	7
94	96	9
62	62	10
158	158	17
124	125	9
23	23	36
119	120	13
185	185	42
5	7	8
157	157	24
62	64	8
183	183	34
124	124	16
68	68	14
165	165	33
53	53	20
67	67	20
144	144	16
136	136	22
31	31	30
64	67	4
150	150	30
39	40	4
19	19	19
75	104	2
11	11	19
125	126	17
24	24	25
21	39	1
190	191	2
102	132	6
105	134	5
116	117	8
190	190	30
123	124	12
115	115	15
163	163	23
2	38	4
158	179	1
151	152	13
172	179	3
150	151	12
135	164	2
103	103	14
79	79	12
128	129	6
39	43	4
185	187	1
109	112	3
36	36	18
6	7	8
43	43	17
152	153	14
117	131	3
47	47	18
86	86	17
133	134	5
174	174	24
152	152	21
148	148	14
66	66	15
109	109	32
15	27	2
3	174	1
56	56	15
192	193	14
78	79	4
1	1	20
107	110	3
135	135	19
188	189	4
46	47	5
172	172	40
3	3	10
119	119	29
117	121	1
102	102	11
19	20	5
101	104	4
137	137	12
79	80	6
4	4	30
2	6	4
175	175	22
164	164	42
163	164	23
153	155	6
23	33	3
154	156	5
100	101	11
20	20	11
59	59	10
127	127	25
171	172	20
30	48	2
152	175	1
16	18	12
168	192	4
121	121	15
63	63	6
151	187	6
30	43	2
25	27	3
62	75	1
73	73	29
29	156	3
154	155	9
70	70	9
25	25	12
93	98	5
81	83	6
117	118	8
128	128	20
7	9	3
20	118	2
71	71	22
78	78	9
159	159	35
180	180	20
72	72	25
195	195	24
28	29	7
166	166	40
175	179	6
111	112	4
36	37	9
113	114	8
69	70	6
141	141	24
114	115	14
139	140	10
58	169	5
107	111	1
49	49	36
118	120	3
21	21	12
146	146	27
102	103	3
144	145	11
8	9	6
117	117	16
165	176	4
22	22	10
171	188	2
15	18	3
104	104	24
140	143	6
110	116	1
130	130	11
134	134	11
112	113	9
7	7	11
64	64	12
175	178	6
35	36	1
189	190	5
102	105	5
2	2	13
11	12	5
94	94	7
90	90	5
173	173	21
71	72	12
14	15	3
21	22	11
81	81	9
10	11	15
107	108	6
159	161	10
37	38	4
169	170	10
155	158	2
127	128	18
100	103	3
116	161	3
103	134	1
12	12	29
135	153	5
196	196	19
129	129	20
67	68	11
50	50	20
61	61	8
95	96	3
77	77	12
121	167	1
47	57	2
188	188	23
3	4	13
42	43	8
112	112	25
151	177	3
16	19	10
25	42	2
3	25	1
191	191	33
131	132	7
5	38	5
26	26	18
0	0	14
51	56	3
113	162	3
178	180	3
4	13	2
72	106	2
120	120	16
145	146	6
81	82	12
175	193	2
25	28	2
6	21	2
21	23	2
70	72	1
40	41	23
121	129	1
15	15	31
5	25	2
47	53	6
136	149	3
43	149	3
72	164	5
98	99	3
4	5	7
160	167	3
12	13	3
179	183	4
99	112	2
82	82	15
195	197	1
3	23	2
119	121	3
161	161	20
63	65	2
69	69	17
180	181	10
29	52	2
126	185	2
161	179	3
82	84	2
193	194	13
35	52	7
176	181	2
123	125	2
89	89	15
111	111	29
171	171	7
132	133	8
34	36	3
13	15	8
136	153	1
157	158	17
138	138	19
19	23	1
170	171	10
35	152	1
63	64	8
70	166	3
88	88	3
126	126	12
155	156	19
8	8	10
122	162	4
108	110	9
132	132	15
38	38	22
51	51	9
55	56	2
25	26	8
147	148	8
103	106	2
80	80	13
98	116	1
45	45	14
29	41	4
158	159	9
122	129	2
58	59	8
77	78	5
187	193	4
32	45	1
160	161	3
133	152	2
74	74	7
159	160	9
45	46	4
14	18	2
164	166	7
59	74	2
84	85	9
27	35	4
141	170	3
138	140	1
58	78	1
187	188	2
184	188	5
52	52	39
136	137	7
150	152	6
144	146	4
30	30	22
28	30	5
108	108	9
178	181	4
97	97	3
157	175	4
135	144	1
104	106	4
76	76	11
33	33	21
138	139	8
176	178	7
1	2	5
164	165	3
171	182	2
173	178	5
116	118	11
159	165	2
151	153	2
114	114	14
56	57	6
151	162	4
145	145	11
115	116	1
190	192	5
184	186	4
144	147	1
151	174	6
52	53	2
159	162	4
44	45	5
41	41	18
167	168	6
104	107	3
151	188	4
43	45	4
22	23	4
33	34	5
183	186	1
105	106	17
118	131	2
165	190	3
192	194	3
119	172	3
7	8	4
175	176	8
119	132	3
167	169	6
7	20	6
137	139	2
126	127	14
11	22	2
103	104	3
172	174	2
72	114	2
161	163	6
110	114	4
166	169	2
6	8	6
103	105	4
81	85	1
179	193	5
149	150	16
65	69	2
104	105	8
157	188	1
134	157	2
0	1	2
179	180	9
25	37	2
31	193	1
192	196	1
120	123	1
54	56	4
93	93	6
24	25	5
47	49	2
10	22	2
182	190	4
45	67	3
113	119	3
99	113	1
183	184	1
97	194	1
137	138	4
93	94	2
106	107	1
1	14	1
20	21	12
64	65	3
134	135	7
145	153	4
108	109	7
134	140	2
15	23	3
83	84	3
121	122	5
36	41	4
68	74	4
42	44	4
33	48	4
12	42	1
9	10	15
29	34	5
138	141	4
62	68	1
32	33	8
117	120	4
184	185	2
58	69	1
162	165	3
17	17	8
27	28	4
147	169	1
64	68	3
34	34	15
30	32	1
162	168	1
54	54	16
109	116	1
86	88	3
101	135	2
151	155	1
150	169	3
135	140	2
114	120	1
88	89	3
186	190	1
165	166	12
135	148	1
188	193	3
150	153	1
160	180	2
180	192	2
86	89	2
144	161	1
161	192	5
66	67	7
69	72	4
20	22	9
4	156	1
96	96	4
26	30	3
53	54	4
46	67	3
156	157	8
47	48	9
0	5	2
72	115	2
179	181	4
17	19	2
101	102	5
101	101	16
101	107	6
185	188	3
125	125	6
56	58	2
25	96	3
4	7	2
18	26	1
48	49	4
154	189	1
191	192	16
29	30	3
31	32	2
120	121	2
146	154	1
183	185	1
30	33	3
3	14	1
137	143	5
63	70	1
99	108	1
23	25	5
66	68	9
103	163	1
133	170	2
170	172	6
181	182	7
162	162	3
34	38	2
81	84	1
135	137	2
149	167	4
173	176	5
84	84	7
146	148	5
39	142	1
147	157	2
27	38	2
62	63	10
38	39	2
33	43	3
17	18	4
134	159	10
119	123	1
1	3	5
95	95	7
165	167	6
171	177	1
158	172	2
146	151	3
109	115	1
32	55	1
181	192	2
63	75	4
26	56	1
116	121	2
59	61	1
151	165	3
118	119	5
143	145	7
94	193	2
178	179	4
36	45	2
2	3	1
188	190	4
49	50	1
112	115	3
154	159	1
30	171	1
161	165	4
58	68	2
130	138	3
182	183	7
164	167	1
30	31	4
12	31	3
156	158	7
41	42	1
89	90	3
160	162	3
113	128	3
18	22	1
27	30	2
94	97	3
154	187	1
173	181	4
137	157	1
64	66	1
58	168	5
75	103	1
108	111	1
58	62	1
149	172	1
127	137	1
133	159	3
0	27	2
74	75	3
116	120	1
96	97	4
173	177	2
38	40	4
0	117	1
52	54	1
188	192	1
191	196	2
170	184	1
6	186	1
165	168	1
99	101	4
42	51	1
134	152	2
101	106	4
99	107	1
54	55	3
173	183	2
32	180	2
24	26	3
194	195	4
186	188	5
27	57	1
60	167	1
84	95	1
63	169	1
82	83	5
98	108	1
27	29	3
143	144	7
106	108	1
154	161	1
110	133	2
51	125	1
84	86	2
93	95	2
118	171	2
34	35	4
135	159	1
176	184	2
180	182	3
152	181	3
26	41	1
9	23	1
0	3	1
114	119	2
67	72	3
18	20	2
138	142	2
177	178	4
105	107	6
125	150	1
80	81	1
132	159	1
0	4	1
155	162	1
47	193	1
161	164	3
122	171	1
16	17	5
51	57	1
117	130	1
30	46	1
39	44	1
130	166	1
68	69	2
135	197	2
26	27	6
135	149	1
85	99	1
97	111	1
135	157	1
39	179	1
56	64	2
160	191	1
27	78	3
155	185	2
111	134	1
167	178	1
187	189	2
28	34	3
11	20	1
123	141	1
66	75	1
148	150	1
29	36	1
4	6	2
112	114	3
37	41	4
141	142	1
70	79	2
61	62	3
120	175	1
176	185	1
186	194	2
142	155	1
27	194	1
143	149	1
161	162	2
33	35	1
10	21	1
30	47	1
149	160	1
35	66	4
15	19	1
140	153	1
144	159	2
16	27	3
65	65	1
134	138	2
62	65	1
13	32	1
147	156	1
20	23	1
121	179	2
148	156	1
186	187	3
19	22	2
43	172	1
154	158	1
118	130	2
172	194	1
152	182	1
46	66	1
75	75	2
174	178	2
103	141	2
65	66	1
16	21	3
110	135	2
25	38	3
125	140	1
145	157	2
21	38	1
142	150	3
102	111	1
111	133	2
99	106	1
141	143	1
21	42	1
155	159	2
22	26	2
138	147	2
174	180	3
3	155	1
10	20	2
35	37	1
162	166	2
140	141	1
51	52	1
140	145	1
72	73	1
71	73	1
172	177	1
158	161	2
14	45	1
173	179	1
115	117	1
174	179	1
94	95	1
122	123	1
38	42	1
148	161	1
40	42	1
128	169	1
67	78	1
137	140	2
62	78	1
27	34	1
127	141	1
85	86	1
167	180	1
144	160	1
169	195	1
137	153	2
141	150	1
4	21	1
45	65	1
127	140	1
59	167	1
53	60	2
72	76	1
27	31	1
114	132	1
12	15	1
75	132	1
40	51	1
127	129	1
7	17	1
126	134	1
168	171	1
138	145	1
71	86	1
185	189	1
70	76	1
135	152	1
134	153	1
151	181	1
5	21	1
71	164	1
120	129	1
148	190	1
35	38	1
60	76	1
109	111	1
152	154	1
66	69	1
73	88	1
86	87	1
6	25	1
