1	1	8
33	34	15
34	34	47
54	58	8
42	46	5
29	39	3
7	8	10
43	44	11
43	43	39
45	45	29
34	35	9
32	35	4
56	56	27
31	38	1
60	60	21
46	46	37
0	1	8
44	45	10
4	5	5
0	0	22
30	30	39
42	42	26
36	36	27
46	47	10
57	57	4
9	10	14
5	45	6
8	22	6
21	21	4
13	14	3
30	43	2
7	7	3
38	39	4
31	31	24
49	50	11
44	44	21
2	2	16
53	55	5
14	15	8
35	35	52
48	48	47
50	50	49
3	3	24
31	32	8
12	16	2
48	49	13
6	6	7
58	60	14
10	10	17
55	55	17
39	49	8
30	31	9
40	40	7
5	5	26
33	33	23
32	39	4
16	21	3
38	40	10
49	49	27
62	62	56
53	56	1
16	16	10
17	17	10
20	20	10
32	33	12
35	62	2
55	57	3
32	32	17
21	22	1
4	48	2
24	41	7
47	47	45
12	13	5
3	4	9
6	8	8
6	33	5
9	9	5
31	42	3
39	40	2
44	46	3
58	58	19
4	4	25
59	59	10
58	59	4
42	43	10
51	52	5
51	55	10
61	62	4
37	40	5
39	39	27
0	11	4
24	24	4
37	38	10
41	54	1
61	61	13
14	14	5
38	38	10
51	51	23
15	16	1
54	54	11
41	41	12
37	37	18
10	12	3
54	59	2
18	19	2
39	41	2
7	24	8
0	39	3
11	11	6
40	41	15
25	25	14
6	7	10
33	36	2
43	45	9
49	51	3
41	42	3
53	58	1
1	2	9
33	37	6
35	45	2
12	12	11
45	46	5
33	39	1
34	37	2
13	13	3
30	32	4
47	49	3
30	55	3
52	52	2
10	11	2
55	56	4
37	51	3
19	21	1
50	51	7
50	61	2
53	53	6
42	45	4
56	57	3
24	40	4
18	18	3
23	24	3
44	48	5
37	39	4
22	23	7
56	62	2
20	21	4
35	36	7
38	42	3
35	48	2
51	53	2
34	49	3
37	60	1
17	20	4
16	17	6
38	41	4
10	19	1
17	31	4
36	48	3
17	18	1
15	15	6
19	20	4
52	53	1
57	58	3
5	6	4
1	61	4
53	54	8
60	61	7
37	41	3
51	56	1
45	47	2
47	48	8
14	16	3
19	25	1
35	42	1
2	5	1
17	38	1
8	8	5
5	25	1
19	26	2
52	54	1
11	12	2
19	22	3
18	23	1
16	23	2
31	33	1
47	50	1
30	34	3
37	42	2
19	19	3
38	51	2
40	58	4
33	35	1
29	53	1
1	39	1
7	30	1
54	56	1
8	9	1
38	49	2
25	26	1
21	23	1
4	62	2
22	22	1
41	58	1
16	24	1
18	25	1
