56	56	17
83	83	18
34	114	1
52	52	22
116	117	3
1	2	3
69	70	6
16	16	16
65	67	3
131	132	3
127	128	9
125	130	7
65	65	17
38	39	3
86	87	4
0	0	11
94	94	11
59	59	19
79	80	3
70	70	21
75	78	4
55	55	8
46	46	17
45	46	11
61	61	11
41	41	13
31	31	7
30	30	15
101	101	10
8	53	3
66	66	6
13	25	4
126	126	3
28	28	14
99	103	5
93	93	18
41	43	3
39	55	1
2	2	7
112	120	2
3	3	6
44	44	16
122	122	26
104	104	6
131	131	16
72	72	6
88	88	13
71	72	7
75	75	18
26	26	4
91	93	1
77	77	30
129	130	10
67	67	5
50	50	9
84	84	8
118	118	18
81	81	12
111	122	7
50	82	8
125	131	10
80	98	2
45	45	9
73	73	6
93	94	4
111	111	21
73	77	2
129	129	15
52	53	8
102	102	12
98	99	10
30	38	3
9	10	3
68	68	14
4	55	7
19	29	1
77	92	3
90	90	20
80	80	17
41	42	12
54	54	9
43	43	12
118	119	7
88	104	4
107	108	4
47	47	17
17	18	6
18	43	6
127	127	10
125	125	9
79	79	13
23	24	4
46	47	5
32	94	1
114	115	12
73	74	11
43	45	2
28	29	9
95	95	7
70	89	1
116	116	10
58	62	1
101	102	4
39	39	20
48	48	12
100	100	20
81	82	5
86	86	17
76	76	8
69	69	14
99	126	3
23	41	3
112	113	3
59	61	6
82	82	9
45	119	2
67	76	3
20	20	13
58	59	4
128	128	12
10	10	5
133	133	14
42	42	19
77	78	9
61	65	3
113	118	4
22	22	12
117	117	8
91	91	13
127	130	2
103	103	16
12	25	4
108	109	4
78	79	5
78	78	10
6	8	4
14	15	5
13	14	10
51	51	20
1	1	2
32	32	20
4	4	6
124	125	2
109	109	13
43	118	3
46	49	1
31	80	6
23	25	6
85	85	8
33	33	11
55	75	2
24	24	3
113	113	8
46	71	1
39	85	2
10	54	2
115	115	9
82	85	1
106	106	5
80	82	4
87	87	11
63	63	16
119	119	14
0	1	4
8	8	4
87	88	5
47	48	4
7	33	2
100	101	6
106	107	2
113	115	5
5	5	10
76	78	1
40	40	11
89	89	6
120	120	6
18	21	3
105	105	8
14	14	9
15	15	13
83	86	2
22	26	2
97	107	1
22	43	2
85	86	11
123	124	3
24	41	6
20	51	3
29	29	12
97	100	3
62	62	11
67	78	2
16	17	4
97	97	12
71	133	1
130	130	5
13	16	1
21	21	11
81	96	1
83	84	14
89	91	4
57	57	10
9	11	2
39	40	5
82	83	3
121	121	18
91	92	3
13	13	9
83	85	3
109	110	4
60	63	1
18	18	12
11	11	13
6	6	6
65	66	4
63	65	1
99	99	4
49	109	1
91	101	3
82	100	3
92	92	17
112	117	2
123	123	17
60	60	2
19	20	5
90	91	4
42	55	3
29	67	1
112	112	10
12	27	3
4	56	2
19	19	8
57	58	4
71	71	19
114	114	10
9	9	6
30	31	4
98	98	7
13	18	1
105	106	10
132	133	4
11	12	4
112	116	3
72	73	1
110	112	2
107	110	4
62	63	4
46	55	1
48	49	4
66	73	2
17	17	9
55	115	1
4	11	3
125	126	8
0	15	5
114	116	5
34	34	5
46	62	1
58	58	11
42	62	1
96	96	7
119	126	3
97	99	6
17	19	1
53	123	3
25	26	3
29	30	8
12	12	4
76	91	1
74	76	2
55	119	2
46	48	2
81	100	2
67	101	7
5	59	1
47	103	1
108	108	19
100	105	4
99	131	1
31	32	1
51	58	1
5	40	4
74	74	6
11	13	2
23	23	5
72	74	3
24	47	2
27	27	9
14	24	3
89	102	3
104	105	2
124	124	5
10	12	2
6	7	1
107	126	2
15	16	3
110	110	10
72	78	1
121	122	6
60	67	3
53	53	11
94	95	3
127	129	1
118	120	6
74	80	3
5	39	1
19	21	4
128	129	4
120	123	2
102	103	3
64	64	8
31	82	1
14	76	1
6	122	1
91	123	3
33	40	1
60	64	3
0	21	2
122	132	5
28	30	2
59	71	1
7	40	1
61	62	3
62	66	3
120	131	4
85	110	1
38	40	2
83	104	3
56	57	2
53	54	6
59	62	6
126	127	6
117	118	5
67	74	6
94	112	5
43	44	2
16	18	4
96	97	3
98	101	3
82	89	3
31	123	2
107	128	1
115	116	6
80	113	1
66	67	5
71	79	1
45	48	1
4	8	2
97	98	6
98	113	2
122	123	4
3	4	2
22	23	2
22	44	2
27	28	4
132	132	6
19	30	2
65	76	5
98	127	4
7	7	3
18	19	3
76	102	1
38	38	6
18	22	2
67	68	6
119	120	2
88	90	2
49	50	3
88	89	2
48	116	1
93	100	2
129	131	1
69	71	3
100	125	1
34	41	2
125	129	4
33	34	2
25	25	4
105	132	5
107	107	4
99	101	7
90	96	2
1	3	2
81	93	1
85	87	1
40	42	3
11	24	4
14	81	1
99	100	3
4	5	2
30	92	2
11	28	1
44	45	4
80	81	2
74	103	1
59	60	3
15	20	3
68	130	2
30	68	2
24	25	1
95	96	5
103	109	2
7	122	2
24	45	1
20	43	3
125	127	3
124	127	1
19	64	1
81	102	1
15	18	1
49	49	3
11	23	1
41	74	1
117	131	2
3	5	1
75	90	1
75	76	1
44	46	4
86	88	1
27	99	1
49	54	2
6	53	2
102	129	1
45	60	2
25	45	1
58	70	2
64	68	1
80	123	2
44	74	2
63	101	1
68	131	1
39	41	1
29	76	2
44	47	1
100	127	2
12	58	1
57	69	4
37	37	2
73	75	1
13	15	1
113	123	2
84	88	4
103	104	1
83	101	2
1	14	2
100	126	1
95	114	2
115	117	1
96	131	1
72	79	1
2	114	1
110	132	2
77	79	1
90	93	1
44	69	1
54	114	1
51	57	1
102	127	3
33	118	1
80	83	1
73	76	1
117	121	1
97	103	1
39	68	3
45	59	1
10	11	1
8	9	1
63	109	1
44	119	2
45	47	1
32	112	1
1	41	2
114	122	2
96	124	1
83	103	2
27	59	1
48	123	1
82	95	1
111	118	1
108	125	1
37	38	1
45	70	1
10	51	2
1	103	1
2	120	1
73	78	1
13	26	1
51	52	1
95	107	1
69	119	2
2	5	1
65	72	1
44	54	1
42	88	1
96	98	2
68	85	2
45	49	1
55	56	1
130	131	1
37	40	1
90	94	1
54	96	1
58	60	2
78	102	1
87	89	1
114	118	1
120	130	1
48	57	1
38	41	1
103	105	1
74	92	1
105	125	1
