19	107	2
38	38	5
83	92	3
92	123	2
129	129	14
100	100	10
10	18	5
91	114	2
51	52	7
30	107	1
56	57	19
25	25	1
21	23	3
78	111	3
60	61	4
93	93	18
115	115	23
49	49	11
124	124	13
69	69	16
106	113	3
112	112	19
84	84	9
109	109	10
92	92	14
74	76	1
79	79	7
83	125	3
120	122	5
53	61	1
67	108	2
85	120	3
9	9	5
33	33	9
14	17	3
71	75	5
78	79	7
19	19	6
45	45	4
122	122	7
93	114	3
85	85	8
81	117	5
97	97	6
28	29	7
121	121	5
67	68	1
108	108	3
21	22	3
70	71	6
107	107	22
127	128	7
37	37	6
73	73	6
113	113	8
35	99	3
24	24	14
26	37	2
36	36	4
117	123	1
50	50	11
18	18	3
66	66	8
74	74	10
98	98	12
52	53	10
67	67	11
62	63	2
105	114	3
132	132	9
20	26	1
113	125	1
96	96	5
27	43	2
49	86	1
110	110	14
60	97	3
58	58	12
117	117	11
21	21	8
43	45	3
130	133	7
64	64	3
70	70	9
66	68	3
52	55	3
125	125	11
92	93	6
90	93	2
128	129	2
130	130	13
61	61	11
15	15	10
118	123	2
54	55	5
4	62	2
57	57	12
7	9	5
129	133	4
113	118	5
6	9	1
113	114	7
94	115	3
34	34	5
38	43	4
120	121	11
2	2	9
82	82	5
37	47	3
91	91	4
33	34	4
24	25	7
88	88	2
79	119	3
77	79	4
54	57	3
131	131	11
74	75	3
45	97	3
78	80	2
78	78	6
29	29	2
95	95	15
69	77	3
126	126	5
90	90	21
113	119	4
61	62	10
3	3	6
99	99	15
79	80	8
87	95	5
35	36	4
134	135	4
71	73	4
113	116	5
92	124	2
5	5	13
89	89	3
1	1	14
103	103	10
94	96	3
7	8	3
47	47	1
23	119	3
6	6	7
26	34	3
122	123	4
65	65	3
117	118	2
54	118	2
25	84	2
94	94	7
13	13	17
50	100	1
75	75	13
101	134	2
54	99	5
7	7	5
131	132	3
20	20	6
68	69	4
6	27	5
65	66	2
30	31	4
48	54	3
99	117	3
120	120	7
45	51	1
83	124	2
8	15	2
77	102	1
111	111	12
112	123	2
112	116	5
94	95	7
29	34	5
63	63	9
82	125	3
25	119	2
128	128	8
106	108	4
57	58	2
124	125	1
3	70	1
101	103	6
77	108	2
46	98	2
12	12	5
80	111	1
27	105	4
27	106	5
121	122	6
59	61	1
124	134	2
99	101	1
7	11	3
112	114	5
11	11	3
26	26	6
86	86	8
104	104	7
42	42	3
68	79	4
76	76	12
28	28	4
92	115	3
121	130	3
92	114	1
27	28	2
72	72	4
101	101	7
89	91	2
87	129	3
80	81	2
133	133	1
134	134	8
7	126	3
46	50	4
59	59	9
102	103	1
80	110	3
50	52	1
3	6	3
17	29	1
17	18	3
83	83	18
56	56	5
54	54	4
35	101	1
23	57	1
23	23	7
81	83	1
62	62	4
66	67	6
17	30	3
29	32	6
22	23	2
53	55	1
123	124	7
6	7	5
99	100	10
43	43	7
125	131	1
14	14	1
118	118	3
80	108	5
95	99	11
31	31	4
112	113	5
105	105	5
84	111	3
7	74	3
52	54	2
84	110	4
89	102	3
48	49	3
0	0	3
67	121	3
89	90	2
77	80	6
30	30	1
93	94	7
114	115	1
127	127	9
130	131	2
79	123	6
26	99	3
86	100	5
72	73	2
116	121	1
91	93	1
95	129	4
116	116	4
9	10	4
38	45	1
23	24	1
77	77	10
102	102	6
63	64	3
126	134	2
14	15	3
53	53	2
48	48	5
80	80	5
8	9	2
52	52	3
75	76	4
87	109	2
6	126	1
20	80	6
85	87	3
82	83	2
103	104	3
79	117	3
4	4	4
44	44	5
13	17	3
106	107	3
71	71	5
15	17	1
70	76	2
86	96	3
26	77	2
62	97	1
8	8	1
79	102	1
27	27	6
118	119	2
66	79	2
83	86	3
114	114	4
7	13	1
96	97	2
17	17	7
51	53	1
68	68	8
126	127	3
24	81	1
72	81	4
86	125	2
119	119	3
12	28	3
77	125	2
129	131	2
10	10	3
29	33	2
106	106	2
56	58	2
87	106	2
9	13	1
81	82	1
84	86	2
14	16	2
132	135	1
12	29	1
37	44	1
87	126	1
79	111	3
77	107	3
132	133	1
91	92	3
98	99	2
83	85	1
26	49	3
71	74	2
16	16	1
65	85	2
65	120	2
90	92	2
11	14	1
35	35	4
90	115	1
1	64	2
32	104	1
90	132	1
1	33	1
33	38	1
113	132	2
35	47	1
0	70	2
26	36	3
55	56	2
111	112	1
36	37	2
46	47	1
107	109	1
15	16	1
122	124	3
126	133	1
60	63	1
59	65	1
87	87	2
101	126	2
107	108	1
77	122	1
70	91	1
76	78	2
60	92	1
10	33	2
20	106	2
64	86	1
79	124	2
92	132	1
45	46	1
129	130	1
88	89	1
18	106	1
104	105	1
58	59	1
86	87	1
71	76	2
108	110	1
26	32	1
117	122	2
81	81	5
116	133	1
37	38	1
4	61	1
60	60	2
123	123	2
64	82	1
77	92	3
50	51	1
112	122	2
125	126	1
100	101	1
84	108	1
56	60	1
77	78	2
38	39	1
11	13	1
55	55	1
0	2	1
30	32	1
113	117	1
131	133	1
88	104	1
36	101	1
110	111	1
83	84	1
