113	114	4
107	114	7
15	15	8
33	34	3
128	128	15
3	4	7
127	128	4
107	107	8
119	119	13
77	111	1
137	137	19
114	114	19
29	29	8
33	33	12
124	124	24
35	35	29
134	135	7
75	75	17
88	101	2
77	77	5
132	132	18
126	126	24
71	85	2
120	122	4
134	134	24
100	100	18
132	133	11
9	9	17
37	37	15
37	38	13
11	12	8
4	4	25
82	82	9
126	127	8
105	105	5
79	79	27
80	113	2
73	73	25
18	19	5
89	90	4
139	139	21
95	96	3
82	84	5
32	32	8
34	34	18
84	87	4
131	131	11
85	86	9
123	123	25
125	125	28
135	135	16
115	115	16
116	116	15
103	114	3
117	117	21
4	5	7
83	87	5
129	129	15
72	72	6
36	36	9
88	91	1
105	106	3
23	23	8
127	127	17
28	29	13
5	5	13
130	131	5
86	86	5
102	103	16
6	36	2
19	19	20
28	115	1
2	2	14
7	7	11
107	123	2
92	92	13
15	23	4
36	38	3
89	89	11
91	92	5
3	3	18
78	79	8
99	99	11
100	126	2
128	129	11
1	23	2
27	30	4
31	31	13
16	18	6
83	83	7
20	21	6
75	117	1
6	31	1
138	139	4
73	74	10
14	14	13
17	19	3
138	138	21
108	119	1
110	111	13
90	90	9
101	101	26
74	74	5
111	111	10
104	104	6
113	113	21
90	91	8
21	21	18
102	102	18
101	102	5
93	93	12
91	91	13
130	130	21
87	87	14
121	121	10
12	31	3
93	113	3
9	11	5
81	85	4
26	31	1
13	13	13
120	120	21
17	18	4
108	108	11
35	36	3
112	119	4
1	2	3
7	8	7
126	128	2
85	85	6
19	20	6
34	35	7
88	88	12
97	98	4
17	17	9
102	105	2
75	77	1
76	77	12
19	21	5
108	123	1
130	132	6
86	91	3
16	16	16
140	140	21
81	82	7
22	22	8
27	28	2
6	11	1
97	112	3
81	84	1
94	95	3
131	137	1
6	6	12
103	104	1
107	125	1
117	118	7
119	120	7
131	133	2
27	27	22
97	110	2
21	22	6
87	88	15
111	112	8
131	135	4
84	84	1
101	103	2
91	108	1
95	99	2
82	83	3
80	80	8
28	28	15
124	125	17
20	20	25
76	76	7
83	84	2
111	118	4
121	123	2
111	126	2
75	76	10
110	110	14
109	109	10
96	98	1
118	118	13
133	134	4
75	122	2
137	138	5
72	87	4
9	12	2
17	21	4
12	29	2
73	117	2
96	96	17
123	124	12
136	136	21
81	89	6
89	100	2
86	114	1
18	20	2
7	12	3
103	103	12
30	30	4
97	111	2
120	121	5
98	98	13
90	100	2
26	91	1
83	85	2
31	89	1
122	122	32
109	111	5
31	32	4
115	116	3
1	1	9
15	18	1
125	127	5
99	116	2
38	39	5
81	81	8
99	100	2
8	10	10
107	108	3
131	132	4
23	26	2
78	78	16
85	87	6
13	14	7
114	115	5
110	114	2
71	71	13
24	24	3
6	28	4
5	6	10
129	130	8
132	135	2
27	123	1
74	75	4
71	86	3
124	130	2
38	124	4
121	122	10
103	118	1
15	32	2
130	133	2
28	131	1
10	10	5
27	29	4
79	80	16
108	117	2
84	85	9
29	82	6
4	12	2
106	106	5
24	25	1
29	31	3
118	119	7
4	6	2
5	11	1
96	97	8
19	38	1
22	31	1
26	26	10
18	21	2
75	83	1
114	116	5
111	123	3
11	11	3
29	30	1
131	134	2
111	116	2
111	121	2
18	18	4
113	117	1
32	89	3
95	95	3
97	97	15
26	114	1
22	30	2
109	110	3
73	123	1
12	12	10
2	4	2
80	81	9
38	38	5
21	32	1
133	133	7
0	0	6
124	128	1
2	5	1
133	135	1
76	113	2
92	113	2
77	113	2
89	103	5
90	92	3
107	111	3
82	85	3
118	120	3
100	102	1
15	25	5
72	89	1
89	91	2
32	33	4
93	94	8
135	136	4
126	135	1
130	140	3
90	93	5
122	123	6
102	106	1
112	112	5
4	15	2
139	140	2
28	32	5
75	108	1
136	137	3
18	22	1
7	9	1
98	99	4
75	113	1
110	117	1
16	17	1
100	101	1
8	9	4
117	119	1
86	88	2
92	93	2
21	23	1
19	22	1
8	11	1
13	34	2
112	113	2
75	121	1
93	95	1
73	118	2
109	116	3
74	80	1
20	36	2
132	136	1
18	91	1
94	94	3
116	117	2
72	73	1
9	10	1
129	131	3
22	23	2
25	25	1
99	104	1
124	129	1
81	83	2
22	25	2
15	16	3
81	114	1
33	35	1
19	28	3
98	100	2
124	135	1
16	23	2
22	24	1
4	11	1
80	83	1
107	122	1
20	89	1
95	107	1
18	24	1
116	118	1
86	87	1
25	26	3
3	14	1
32	90	2
16	19	1
126	129	2
11	13	1
111	113	2
106	107	1
113	118	1
76	109	2
75	95	1
30	31	2
30	81	1
30	32	1
15	35	1
10	12	1
79	85	1
13	32	1
99	111	1
74	76	1
137	139	2
133	136	1
125	126	2
13	22	1
127	129	1
8	8	2
26	27	1
5	24	1
0	1	1
23	24	1
6	14	1
