58	58	11
82	82	20
57	57	11
10	10	10
65	65	13
9	9	27
49	49	12
46	46	8
11	11	11
5	5	13
64	66	2
72	80	2
7	7	12
73	73	4
51	62	3
78	78	5
89	89	7
69	71	7
75	76	5
75	75	23
71	71	11
72	73	8
1	1	8
19	19	21
74	74	18
62	62	5
2	2	17
22	22	9
51	51	13
76	76	9
48	48	11
23	24	5
67	67	7
3	4	11
81	81	20
18	59	1
66	69	2
23	23	15
12	12	12
15	16	8
69	69	10
78	79	7
66	67	2
53	53	20
56	59	2
18	22	6
73	74	4
2	3	4
53	60	2
17	17	7
85	86	1
65	66	5
60	60	3
75	84	5
4	4	14
77	77	5
15	15	20
47	47	4
23	28	6
56	56	21
68	68	14
79	79	10
83	83	15
72	82	3
50	51	3
64	64	3
52	52	16
56	57	6
3	5	2
87	87	13
48	49	8
6	7	5
25	27	5
80	80	12
24	24	20
3	3	16
4	28	1
77	79	2
52	55	5
47	48	8
72	72	10
30	30	17
85	87	4
22	24	1
31	31	2
86	86	10
21	21	6
55	55	5
70	70	10
25	25	6
14	14	7
5	6	2
50	50	17
28	88	1
51	67	5
22	23	9
24	58	3
12	13	11
66	66	14
53	54	4
54	54	2
13	13	13
6	8	3
14	30	1
23	67	1
49	50	7
68	69	4
69	70	6
4	31	2
28	68	3
21	22	4
86	87	2
6	6	3
82	83	16
25	26	7
28	29	4
20	20	3
84	84	10
64	65	2
14	26	1
18	19	9
8	8	10
76	77	2
73	86	1
54	65	3
0	1	2
24	50	1
68	75	1
68	74	1
16	16	4
25	49	2
84	85	4
5	19	4
90	90	3
27	27	8
26	26	12
19	51	1
79	80	3
54	55	4
70	75	5
24	25	3
25	47	2
84	88	1
85	85	9
70	82	1
17	31	3
87	88	2
61	61	2
84	86	4
51	52	2
53	59	1
55	56	6
71	72	1
67	74	3
8	9	3
80	83	1
54	81	1
74	75	7
26	27	6
58	59	1
46	48	6
18	49	1
68	89	1
59	59	9
2	9	2
27	48	1
77	78	5
29	29	4
0	70	2
21	23	3
46	47	1
71	83	1
57	58	2
20	47	2
57	68	3
9	13	1
4	5	4
70	71	2
58	66	2
88	88	8
1	2	2
77	80	2
11	12	3
78	80	1
79	82	2
14	15	2
67	69	2
71	77	1
67	68	3
80	81	2
63	64	3
70	74	1
47	52	3
18	31	2
22	30	1
14	17	2
10	12	1
55	59	1
47	74	4
81	89	1
68	70	2
66	89	1
0	0	1
60	63	2
88	89	1
29	89	1
8	13	1
81	82	1
18	25	1
5	7	2
24	49	1
47	75	1
72	84	1
0	2	2
55	66	1
30	46	1
7	8	1
78	82	2
3	6	1
9	10	1
30	31	1
69	74	1
7	12	1
21	59	1
16	17	1
54	80	1
27	28	1
9	16	1
61	80	1
