36	36	10
60	60	13
60	66	1
62	62	10
37	38	13
34	34	13
46	46	8
4	5	9
63	63	14
52	54	2
66	66	11
1	50	2
10	71	2
36	49	2
26	27	4
73	73	17
5	10	4
39	40	12
58	68	2
38	38	12
35	35	9
22	23	1
40	49	9
30	31	7
29	30	4
23	23	15
36	40	2
7	9	3
47	47	10
33	33	16
5	5	15
27	27	15
67	68	4
39	64	2
75	75	8
76	77	2
23	42	2
9	9	16
22	22	13
6	6	10
43	43	10
64	68	1
24	25	5
13	29	3
31	69	1
23	45	5
9	67	2
0	0	12
6	74	3
23	24	3
42	42	21
3	3	10
12	12	13
28	29	3
55	55	11
8	8	11
32	32	8
58	58	7
1	5	6
21	21	15
10	10	15
75	76	4
13	13	16
1	1	14
0	57	4
25	25	12
37	49	1
31	58	4
49	51	9
1	2	7
63	67	7
25	26	1
61	68	3
69	69	6
72	72	10
7	7	14
39	74	2
54	55	12
60	77	3
53	53	12
45	45	10
19	19	18
40	76	1
49	50	8
6	7	6
38	48	2
3	5	4
56	56	17
32	38	4
48	48	7
51	52	5
63	65	6
23	25	2
66	67	14
14	14	2
18	19	5
45	64	3
28	28	10
8	9	7
61	61	13
51	53	1
13	36	1
30	30	14
28	53	4
31	40	4
39	71	1
44	44	9
49	49	3
20	36	2
11	11	15
72	73	4
70	70	9
71	71	17
50	73	3
2	5	4
31	31	17
72	74	8
39	57	3
64	64	4
19	20	6
4	4	7
31	57	3
68	68	7
57	77	5
39	39	6
61	63	6
5	29	2
23	40	3
43	44	2
35	36	5
58	73	1
22	49	4
35	37	1
13	34	5
2	2	8
31	34	3
45	46	2
41	41	6
52	52	13
66	76	2
20	42	2
24	26	4
43	52	1
68	72	3
42	43	4
39	48	4
32	33	7
20	20	15
65	65	8
54	69	4
57	57	8
46	50	1
41	57	3
26	28	4
56	60	1
38	45	1
47	64	2
29	29	6
50	50	5
46	47	1
4	51	2
33	34	3
54	54	8
36	37	1
51	51	5
9	10	7
11	56	2
23	43	3
56	67	1
37	37	8
39	42	2
65	67	4
0	2	2
25	51	1
24	24	9
70	71	5
12	52	3
45	50	2
44	63	1
59	59	7
1	6	2
14	67	1
6	12	2
52	65	1
0	1	1
48	50	5
50	75	1
63	66	4
29	71	2
62	64	1
40	40	8
46	71	2
19	21	5
30	40	1
26	26	14
67	67	5
58	59	4
62	63	2
3	9	2
61	67	1
27	30	2
3	8	3
30	32	1
51	66	2
77	77	3
50	51	2
65	66	4
0	13	2
0	23	2
52	67	5
27	28	5
52	53	2
44	64	4
60	61	3
12	13	3
64	65	6
8	46	2
12	55	2
53	64	2
50	69	1
53	54	2
59	66	1
19	34	1
69	70	1
54	68	2
25	39	2
44	45	3
57	66	1
10	56	7
39	41	1
10	22	1
21	22	1
2	3	3
2	4	1
45	66	1
74	74	5
5	75	1
31	32	4
39	54	1
34	48	1
23	56	1
3	23	1
63	64	2
1	12	1
51	57	1
57	58	1
47	67	2
52	57	1
76	76	7
5	6	2
49	75	1
51	58	3
22	45	2
20	21	1
7	8	6
32	69	1
65	69	1
13	35	3
33	38	1
27	47	1
41	42	1
35	42	1
65	76	1
43	57	1
12	33	1
0	6	2
13	14	1
73	74	1
23	41	2
10	11	1
26	54	1
18	28	2
48	49	2
33	56	1
14	58	2
3	4	2
30	70	1
0	48	1
18	18	2
74	76	1
39	75	1
22	30	1
2	6	2
11	55	1
23	68	1
7	12	2
53	63	1
25	47	1
59	75	1
4	49	1
54	61	2
36	55	1
14	27	1
29	32	1
61	70	1
23	49	1
23	44	1
53	69	1
47	51	1
70	74	1
63	68	1
