30	30	7
105	105	14
63	84	5
84	91	1
54	54	13
26	26	4
41	66	2
71	72	3
23	23	5
102	103	4
83	84	4
29	29	12
57	57	5
38	41	2
68	69	7
62	62	13
35	35	5
96	96	2
62	92	2
36	36	8
39	40	3
86	87	8
22	22	4
45	46	5
98	98	7
85	85	6
40	42	2
45	45	15
90	90	11
72	73	2
106	106	4
44	44	5
41	41	11
25	30	1
30	41	1
20	20	3
46	106	3
42	44	3
99	106	2
52	55	3
51	51	4
62	63	5
104	104	7
84	90	1
45	88	2
91	92	2
82	82	11
44	81	5
27	27	6
101	105	2
66	66	7
48	93	2
76	76	1
45	49	1
92	92	6
34	34	10
98	99	1
42	42	7
80	97	2
73	73	8
65	67	1
47	49	5
83	83	3
56	56	1
62	101	3
53	53	1
53	55	5
70	70	5
25	29	1
99	99	10
103	103	6
61	61	3
95	95	6
58	58	3
34	60	3
52	52	2
43	43	4
94	97	1
53	54	2
34	37	2
39	74	3
59	60	2
60	60	1
61	81	2
55	55	4
47	96	4
93	93	1
42	43	1
80	94	4
83	86	1
51	52	2
74	74	5
91	91	4
65	68	2
81	81	1
101	101	9
79	79	5
21	33	4
32	32	6
46	46	5
30	94	2
82	86	1
86	86	5
33	38	4
23	25	1
23	24	1
43	44	1
44	76	2
77	80	4
75	75	6
40	66	3
34	74	2
52	53	4
92	101	3
50	50	4
78	78	8
92	107	2
28	28	8
36	78	1
103	104	1
82	83	4
30	40	1
75	76	2
97	98	3
53	95	1
100	100	1
37	37	8
38	39	2
63	63	3
47	98	4
40	40	1
80	98	2
59	59	2
45	47	1
72	76	3
84	84	5
38	38	2
48	49	3
71	71	9
52	54	1
92	93	2
89	90	4
79	97	1
69	70	1
21	21	3
20	59	2
84	86	1
89	89	1
78	79	1
63	72	2
107	107	2
104	105	1
24	24	3
89	97	2
31	31	1
55	101	2
92	99	3
36	37	1
28	91	1
28	29	1
55	85	2
80	81	2
48	48	1
91	100	1
94	94	3
35	36	3
64	64	3
34	59	2
84	85	6
98	106	2
75	77	1
102	102	1
26	27	4
42	79	1
58	59	2
63	64	1
49	49	1
88	88	1
86	89	1
68	68	2
93	99	1
97	97	1
101	102	1
67	67	1
34	88	1
33	40	1
80	80	1
47	47	2
56	57	1
56	85	2
57	58	2
62	93	1
91	94	1
95	96	1
60	62	1
74	75	1
44	45	1
88	89	1
56	58	1
93	94	1
33	33	1
38	68	1
