24	24	22
92	95	4
82	82	19
22	22	18
43	45	5
74	74	16
77	77	12
49	49	8
81	81	14
59	59	16
33	72	3
78	78	9
45	45	12
41	41	26
62	62	10
67	79	2
39	39	13
91	91	15
83	87	5
62	63	20
64	64	7
92	94	3
59	79	2
105	105	12
79	79	11
67	67	16
31	31	15
69	86	4
43	43	7
53	53	14
98	98	17
97	97	9
48	48	9
40	40	10
28	28	16
54	54	16
78	100	1
86	86	16
37	37	15
102	103	4
88	88	18
42	44	6
97	99	5
63	86	2
79	81	4
103	103	12
102	102	18
47	48	10
89	99	1
40	45	2
97	98	17
20	20	12
71	71	8
29	30	7
42	42	15
87	87	13
92	93	7
30	30	10
82	83	12
75	75	15
40	41	2
100	100	16
83	88	4
101	101	19
84	84	19
27	27	19
23	23	16
57	57	7
82	84	1
19	19	2
44	45	4
38	39	6
73	73	9
69	70	3
57	73	1
25	26	12
72	72	11
33	33	15
90	97	1
93	93	10
65	66	6
67	74	1
67	94	4
83	83	11
64	65	2
26	27	14
50	50	22
57	94	3
74	75	3
35	35	9
89	91	3
80	80	13
34	34	15
54	71	3
91	101	1
96	99	1
96	96	13
67	69	2
60	60	6
36	36	4
46	46	8
88	90	3
63	63	13
98	99	2
41	97	2
80	84	2
87	88	5
66	78	4
79	80	2
30	31	1
65	65	11
23	24	2
29	32	1
58	58	12
20	41	6
30	47	4
68	68	14
25	25	6
82	87	2
92	92	10
51	51	12
56	56	13
38	38	3
64	95	10
51	57	2
84	86	1
36	37	3
40	44	2
37	94	1
29	36	4
85	85	10
31	32	5
83	86	1
60	61	3
57	58	2
61	90	3
44	47	1
92	102	5
31	39	4
94	96	4
53	54	4
50	51	6
61	61	8
84	85	5
45	46	8
41	43	3
32	33	9
89	90	4
94	94	11
69	85	3
95	95	14
60	63	1
55	55	7
69	71	2
70	70	12
41	47	2
44	44	8
30	46	5
99	99	14
20	40	1
89	89	14
35	37	1
43	44	2
24	37	1
69	100	2
71	104	6
80	81	2
61	62	4
80	82	2
40	46	4
59	80	2
64	77	2
66	103	1
29	29	7
104	104	5
78	88	3
86	88	4
42	43	8
58	80	2
60	78	4
52	52	13
90	90	6
78	94	1
77	96	1
21	21	9
65	76	1
35	76	7
83	85	1
77	81	2
50	54	2
76	77	4
37	38	1
84	87	1
62	79	1
65	77	2
28	34	1
72	80	4
82	86	2
32	35	1
69	69	8
90	93	4
55	66	1
41	98	2
43	96	1
100	102	4
66	101	1
25	29	1
33	57	3
64	99	1
62	64	1
77	95	2
88	89	5
80	99	1
72	107	4
63	91	2
94	95	2
92	97	2
33	34	2
68	69	7
47	47	10
26	26	6
94	105	2
94	98	1
32	54	2
76	79	2
58	59	3
106	106	3
66	90	4
67	68	5
60	99	2
29	38	2
53	55	1
91	92	4
68	75	2
70	104	2
61	97	3
28	46	2
103	104	3
32	32	5
33	73	1
80	87	3
20	21	1
35	93	3
36	93	3
59	65	1
57	97	2
95	96	1
46	47	2
41	42	8
72	96	2
83	84	2
93	94	1
26	28	2
21	45	2
77	92	2
85	87	3
70	71	1
58	93	4
54	55	2
64	94	3
73	98	3
39	50	1
58	98	1
85	100	3
39	57	1
75	76	1
72	73	2
33	37	3
41	57	1
50	71	1
91	95	1
60	90	1
94	99	1
63	64	3
62	65	2
66	75	1
28	29	3
51	52	4
73	74	2
104	105	1
75	77	1
38	54	2
78	91	2
99	100	4
42	55	1
36	57	2
66	99	1
74	77	1
93	95	2
58	76	1
39	51	1
78	106	3
29	46	1
47	49	2
76	76	3
67	100	1
56	57	1
92	96	3
44	46	1
66	66	3
101	102	2
22	23	1
58	60	1
26	48	1
90	91	2
27	48	2
35	36	1
59	86	1
50	55	1
77	93	1
66	67	1
76	106	1
53	56	1
57	76	1
42	96	1
45	49	1
64	97	1
86	87	1
57	98	1
87	98	1
70	91	2
48	79	1
33	36	1
47	85	1
66	96	1
95	97	1
41	94	2
80	91	1
65	86	1
77	94	1
49	58	1
60	98	1
25	27	1
28	32	1
