44	45	16
101	102	10
48	68	2
51	51	27
50	50	54
77	77	28
48	49	20
62	62	20
94	94	23
36	37	8
43	43	33
55	56	13
57	57	22
100	100	10
42	42	23
61	81	6
32	33	13
61	61	23
70	70	27
70	73	4
64	64	38
59	59	26
58	59	13
69	69	35
78	78	14
93	94	9
45	49	2
68	69	9
51	66	2
74	75	8
79	79	31
97	97	15
98	98	14
35	36	11
85	89	6
27	27	3
99	99	38
33	97	5
45	52	5
80	81	3
33	98	5
91	91	32
41	41	37
62	64	1
60	62	5
39	40	6
56	63	3
45	45	15
76	77	12
67	67	27
54	55	12
54	54	6
75	75	34
79	80	16
94	95	6
23	53	1
92	96	2
92	92	30
49	49	19
48	48	28
31	31	14
81	81	10
59	60	3
92	93	15
47	85	5
42	48	4
69	70	16
46	46	18
80	91	4
76	76	17
58	58	28
29	29	5
41	42	8
85	90	5
80	82	3
96	97	17
55	55	12
85	87	1
92	95	1
80	88	4
33	33	27
73	74	9
50	55	2
98	101	3
40	90	1
68	68	33
51	71	3
87	87	7
72	72	17
74	74	22
57	59	4
49	85	4
81	89	1
22	22	6
83	83	16
35	35	12
68	70	7
90	91	9
64	65	8
85	85	18
46	52	4
99	100	22
44	44	23
44	56	1
95	96	5
60	60	18
89	89	30
80	89	13
83	92	3
20	20	6
88	88	15
40	40	34
26	46	4
39	39	22
79	81	6
66	67	15
86	86	23
66	66	17
33	43	2
53	54	16
20	22	1
96	98	3
42	43	15
80	80	11
58	62	3
20	21	2
49	50	16
87	88	15
71	72	14
50	51	15
36	36	15
56	56	23
34	34	6
31	86	2
69	71	5
97	98	16
52	52	29
101	101	18
73	73	22
46	47	6
41	72	4
59	64	7
26	26	6
59	68	1
49	73	2
84	86	5
48	50	1
66	70	3
53	53	18
31	32	4
96	96	5
67	68	6
47	47	15
91	92	11
77	78	2
30	30	9
85	92	2
85	91	1
57	76	5
69	73	4
86	91	5
46	86	2
43	48	6
102	102	4
98	99	8
70	71	1
44	66	4
23	24	1
71	71	15
33	34	4
40	41	9
70	72	5
86	87	8
63	86	1
87	99	4
85	86	9
52	53	10
65	70	1
93	93	31
65	66	18
32	32	5
86	88	1
34	78	6
45	58	4
86	92	5
43	44	6
34	36	2
86	89	15
38	38	7
81	82	5
56	65	2
50	52	3
75	76	2
94	101	3
47	48	9
63	63	26
100	101	4
65	68	1
99	102	3
62	79	1
94	98	9
80	96	2
84	84	14
63	64	12
46	87	4
37	37	6
86	96	3
49	70	2
48	94	2
95	95	9
93	101	5
88	89	1
90	90	20
63	65	6
82	86	1
28	30	4
65	65	14
38	97	2
34	38	3
49	55	2
84	85	2
46	48	3
63	68	2
65	67	2
62	63	5
82	93	2
99	101	1
44	65	5
85	93	4
33	99	6
40	85	4
53	55	4
29	30	4
43	90	2
57	64	1
60	61	1
38	98	1
44	52	7
60	81	3
66	75	3
26	27	8
72	73	9
89	90	7
82	88	2
93	95	5
62	81	2
56	57	3
57	96	2
95	99	3
61	62	7
41	56	1
48	72	2
60	63	1
51	79	1
32	100	2
46	58	1
88	92	1
66	69	2
25	26	1
86	93	4
33	78	2
52	55	2
45	46	4
47	86	1
44	58	3
25	45	2
82	89	3
40	79	1
51	53	2
41	54	1
34	86	2
39	102	2
80	94	2
23	45	1
92	101	1
78	79	1
38	39	2
57	60	2
72	78	1
83	90	1
28	28	2
48	52	1
79	87	1
61	63	1
25	25	2
58	63	1
24	25	1
93	99	1
55	58	1
39	71	1
73	78	1
33	38	1
33	100	1
32	74	1
97	101	1
41	43	1
53	81	1
81	83	2
42	96	1
20	29	1
48	93	2
85	88	1
51	52	1
95	98	1
46	89	2
66	68	1
27	29	4
25	29	1
34	99	2
34	35	1
84	91	1
37	87	2
24	24	1
93	102	1
54	81	1
83	84	1
57	77	1
23	52	1
56	60	1
45	50	1
65	71	1
41	44	1
31	42	1
87	89	1
23	27	1
58	71	1
82	82	1
