38	38	11
17	17	15
15	15	7
132	132	12
166	166	12
35	35	8
33	33	16
89	89	6
36	36	14
73	73	6
96	96	4
95	95	13
93	93	7
43	43	21
108	108	7
97	97	8
164	164	5
138	138	15
143	143	12
147	147	3
106	106	11
133	133	14
145	146	3
151	151	4
65	65	10
114	114	10
53	53	5
15	16	4
117	117	4
77	77	6
169	169	8
8	9	7
142	142	8
116	116	20
99	99	6
37	37	10
103	103	4
27	28	8
22	22	5
22	23	14
3	6	1
56	56	2
38	41	3
26	26	12
81	88	2
40	40	5
25	25	2
58	58	8
104	104	7
159	159	4
92	92	5
14	15	12
29	29	14
136	136	2
113	114	3
127	127	4
127	128	4
25	29	1
167	167	4
87	110	1
67	67	5
13	14	1
114	115	6
178	178	16
45	45	8
119	119	5
138	139	2
87	108	4
174	174	6
90	90	13
168	168	10
13	13	22
84	84	3
110	112	2
151	160	4
11	11	9
161	161	2
111	112	5
167	168	1
85	85	2
149	149	12
34	34	6
26	28	5
2	7	2
10	10	15
168	169	2
30	37	1
163	163	5
88	88	13
120	121	1
59	59	3
9	9	20
158	159	5
25	26	5
3	9	2
167	175	4
73	78	2
66	66	8
8	24	5
11	13	3
11	14	4
130	130	6
146	146	12
32	32	11
163	166	1
151	152	8
128	128	4
134	134	20
81	89	1
52	52	4
44	44	6
102	102	10
102	108	5
169	171	5
41	41	16
60	60	5
122	122	6
64	65	6
166	167	7
14	14	16
104	105	3
172	172	17
165	165	7
56	60	1
26	27	2
51	52	3
150	169	2
109	109	9
160	160	7
137	137	11
138	179	7
179	179	5
73	90	1
87	88	3
123	123	18
119	131	1
26	38	7
153	153	3
142	151	5
141	141	9
96	102	3
23	23	10
19	19	8
14	55	1
39	39	11
2	3	3
49	49	7
91	91	7
97	98	3
30	30	5
109	111	7
100	100	12
141	142	2
42	75	2
18	19	9
112	112	4
2	4	1
139	139	16
65	76	1
118	178	4
13	34	5
66	68	4
101	101	8
24	24	10
50	50	3
176	176	14
94	94	10
12	12	6
142	145	1
125	125	1
7	7	8
13	16	2
157	157	7
20	21	3
4	4	8
116	172	1
6	6	5
7	9	2
75	75	14
92	93	5
173	173	6
18	18	4
3	3	6
68	68	5
103	104	3
97	135	1
100	101	6
78	78	3
33	44	1
142	149	1
158	158	7
121	123	3
152	152	4
87	89	3
95	116	4
113	113	6
128	177	2
135	142	2
70	70	2
28	28	1
26	30	2
5	5	11
147	148	3
130	131	3
34	41	4
5	9	1
9	28	2
135	160	4
94	106	1
50	51	4
116	146	2
137	138	4
16	16	7
87	87	2
31	31	7
98	98	5
99	100	1
54	55	1
41	42	4
80	80	1
10	11	7
106	129	5
31	37	3
154	154	6
160	169	2
143	169	3
8	8	6
9	16	2
39	41	4
23	24	1
107	107	2
38	39	4
27	27	10
153	157	4
129	129	1
26	37	4
3	4	7
11	12	3
119	125	1
24	26	4
84	96	3
55	56	2
14	37	1
115	175	2
134	145	1
10	14	2
76	80	1
148	148	3
149	167	2
67	170	1
96	97	3
51	51	1
39	40	1
105	105	2
98	99	1
52	53	5
17	20	1
157	158	5
9	15	1
129	130	1
0	0	6
125	126	2
8	12	5
14	63	4
136	137	3
20	20	5
60	61	1
6	7	1
91	92	2
19	20	4
175	175	4
93	94	2
40	41	2
112	113	2
104	107	2
1	1	16
140	140	9
4	7	6
1	2	3
121	121	3
25	31	3
83	84	6
106	122	2
16	17	2
140	178	1
31	32	4
173	175	2
90	94	1
62	62	1
82	91	1
92	104	1
131	131	1
26	32	3
144	148	1
83	83	2
171	172	1
155	156	1
131	167	3
63	63	4
110	110	6
2	2	8
71	72	2
2	5	1
4	5	1
72	76	1
150	170	3
42	42	1
153	172	2
145	149	2
28	44	1
28	29	1
50	52	2
18	32	1
124	124	3
72	72	3
52	54	3
78	79	3
54	76	2
130	173	2
33	34	2
61	61	3
64	64	2
76	77	3
119	120	2
25	38	1
71	77	1
180	180	1
107	108	3
24	42	2
17	18	2
80	83	2
5	6	3
159	160	2
9	11	1
57	57	1
90	91	2
164	165	3
104	110	1
111	123	2
151	156	1
82	108	1
103	106	1
135	135	2
98	111	2
177	177	2
145	145	2
67	68	4
147	150	1
131	142	1
123	137	1
115	115	1
93	137	1
76	76	1
24	30	2
7	10	2
172	173	1
154	155	1
73	75	2
130	142	1
21	22	3
16	19	1
87	164	1
53	65	3
106	107	2
142	143	1
26	29	1
75	76	2
120	136	1
37	43	2
23	29	1
21	21	1
88	89	2
118	118	2
68	170	2
99	101	2
76	78	2
8	15	1
66	67	2
137	139	1
32	33	1
156	156	4
83	85	1
101	111	1
59	108	1
54	54	1
119	123	1
31	35	1
116	117	1
170	170	2
79	88	1
71	89	3
125	138	1
29	35	2
3	7	1
121	122	1
121	167	1
6	9	1
123	124	1
144	144	1
150	150	3
126	126	3
23	31	1
123	135	1
98	104	1
0	1	2
86	86	2
84	85	1
94	95	1
24	25	1
171	171	1
54	60	1
33	45	1
102	132	1
28	35	1
135	136	1
165	177	1
164	168	1
4	8	1
