22	22	1
10	33	2
29	29	4
37	37	10
131	132	4
140	140	9
106	113	1
63	64	3
9	9	7
162	163	2
39	42	1
26	26	8
168	168	4
110	110	1
95	95	2
124	124	2
138	138	1
136	136	6
5	7	9
30	30	12
96	97	1
16	50	2
34	51	1
87	87	6
97	98	1
160	160	4
137	138	4
10	14	6
31	31	2
111	111	4
167	170	1
114	127	1
133	177	2
62	65	6
52	52	7
10	10	7
64	64	4
24	24	8
98	98	2
56	56	2
41	41	2
1	1	6
21	33	1
16	16	5
140	141	1
20	20	8
23	45	1
97	104	2
140	147	3
61	82	2
28	28	10
149	149	4
12	12	4
41	42	4
68	68	2
32	32	7
16	17	2
3	4	4
14	23	1
116	117	4
40	42	1
23	25	1
76	76	7
123	123	4
111	112	3
106	106	3
118	162	1
92	93	1
161	162	2
67	68	2
8	8	6
99	100	1
54	54	8
157	157	5
73	74	2
10	13	3
146	146	3
87	100	2
113	113	4
106	114	3
147	147	3
123	124	1
39	39	10
14	15	1
6	6	2
108	109	4
154	170	2
159	159	3
8	9	1
8	14	7
4	7	3
11	11	8
0	1	3
23	23	3
8	37	1
98	102	2
74	74	3
4	4	5
28	29	2
23	26	1
21	23	2
88	88	1
84	84	5
167	167	3
151	151	5
0	0	7
14	14	2
104	105	5
155	177	2
36	36	1
84	85	1
101	101	3
18	18	5
22	28	2
83	83	6
35	165	1
127	131	2
104	104	2
21	21	4
152	155	1
27	27	2
124	125	2
62	68	2
19	44	4
99	99	3
173	173	1
15	15	8
178	178	2
108	110	1
61	61	2
124	149	1
8	23	1
24	33	1
59	96	4
39	40	2
49	49	1
34	35	1
3	3	4
117	124	2
153	178	3
142	142	1
7	15	2
2	4	2
85	85	5
165	165	5
38	38	6
78	78	3
19	19	2
65	65	1
142	147	3
37	38	2
172	172	1
75	94	1
43	43	5
108	171	1
53	53	1
40	44	2
25	25	1
56	167	1
31	32	3
77	77	2
180	180	3
8	109	3
73	117	2
120	131	1
89	89	1
166	166	2
6	43	2
10	51	2
112	112	2
112	114	1
149	150	2
76	126	1
175	175	2
66	66	2
65	66	1
102	103	1
122	122	5
91	91	3
4	14	1
3	35	2
102	111	2
17	17	6
79	79	2
35	35	3
86	87	2
14	78	1
177	177	2
34	34	1
164	166	2
107	107	1
16	21	3
61	84	2
96	96	2
118	119	1
18	20	1
113	114	2
33	33	2
61	96	1
163	163	3
171	171	3
59	59	1
154	156	2
19	43	1
101	143	1
103	103	1
71	80	1
106	107	2
45	45	2
102	102	3
20	21	2
108	108	3
87	106	2
176	176	1
6	24	1
143	144	4
26	28	2
12	15	1
32	33	1
44	44	1
179	179	2
109	109	1
105	106	1
122	124	1
80	104	1
76	77	1
58	85	1
135	163	3
10	11	2
154	157	1
2	10	3
4	20	2
115	116	2
94	94	1
61	123	1
139	141	1
24	29	1
6	7	1
127	157	1
14	32	1
97	101	1
39	45	1
5	5	2
164	164	1
74	94	1
154	154	1
64	65	1
129	130	1
90	149	1
118	118	1
81	82	2
55	55	1
109	112	1
122	158	1
100	105	1
72	83	1
145	145	1
120	120	1
63	63	1
2	2	1
22	35	1
