48	48	11
60	61	3
68	68	11
32	32	2
82	82	6
111	111	9
42	42	3
79	79	4
59	59	1
11	12	4
43	44	2
90	90	7
118	118	11
99	119	3
3	3	11
52	52	2
50	50	5
120	120	11
49	49	14
114	114	4
43	78	3
25	25	4
106	132	1
109	109	6
98	98	6
80	80	5
57	99	3
25	26	4
55	75	4
72	73	6
122	122	12
100	100	7
76	76	1
126	127	2
95	99	2
24	24	5
10	10	5
60	60	8
40	40	5
64	64	7
78	78	2
46	85	3
99	103	3
92	92	6
3	5	5
12	12	3
34	34	7
69	69	2
100	117	1
27	27	7
34	39	5
126	126	8
103	103	11
55	55	3
87	87	3
103	104	2
8	8	2
133	133	2
33	33	10
20	20	4
70	70	6
54	70	2
69	88	1
121	122	4
2	76	3
2	2	4
94	94	5
52	53	4
62	63	3
97	97	7
21	21	5
89	93	1
53	53	8
28	112	1
26	26	4
93	112	3
5	128	3
115	115	3
16	18	3
18	34	3
45	45	6
77	77	9
63	63	7
125	125	10
114	116	2
121	121	13
90	91	3
58	58	3
17	17	6
22	22	5
17	18	2
131	132	2
66	66	7
18	19	2
49	57	1
40	63	6
78	79	4
72	74	3
27	66	3
113	113	6
14	15	2
98	99	2
105	105	5
102	103	4
62	62	5
13	40	2
128	129	3
67	67	3
119	119	5
70	98	2
54	54	7
118	124	2
13	13	1
124	124	1
88	89	2
72	80	4
15	15	5
10	53	1
82	130	3
53	54	2
0	1	2
6	6	5
99	99	2
71	72	3
5	127	1
24	67	1
96	96	3
26	87	1
38	38	1
26	120	2
2	85	1
41	41	5
75	75	4
58	59	5
116	116	5
4	5	1
29	29	4
96	113	3
61	61	3
69	84	3
95	116	2
23	23	2
102	104	4
56	57	1
4	4	2
43	43	1
0	0	7
54	130	2
127	128	4
110	110	1
108	108	3
2	3	2
72	72	4
14	14	4
117	118	3
41	42	1
44	44	6
54	74	1
19	28	3
106	120	3
19	19	7
39	39	4
73	77	1
8	10	1
102	102	1
6	66	3
10	12	1
130	130	3
57	57	3
104	104	5
51	51	2
89	89	6
58	60	2
32	64	1
129	129	3
18	22	3
28	85	1
5	5	4
86	87	1
111	112	1
76	118	1
83	84	1
68	118	4
123	123	2
70	71	1
55	74	4
9	85	2
47	47	2
91	93	3
69	71	1
33	38	2
116	117	1
24	119	1
33	34	5
56	56	3
125	126	2
19	112	2
48	53	2
95	95	3
74	75	1
76	98	1
13	65	1
31	47	1
107	107	4
11	11	2
24	99	2
70	95	6
110	116	1
98	126	1
4	11	1
78	116	2
1	1	3
64	65	2
106	106	2
68	107	2
26	27	2
41	77	3
23	29	1
19	75	2
7	34	2
9	9	1
46	79	3
45	48	1
89	90	1
131	131	3
9	10	2
20	21	2
91	91	1
65	65	1
5	14	1
18	18	1
24	25	2
77	114	1
44	49	1
78	108	1
84	85	3
7	22	1
127	127	2
88	88	1
113	114	1
94	95	1
84	84	1
29	31	1
108	110	1
107	108	2
18	20	2
59	63	1
69	70	3
49	123	1
23	24	1
93	93	2
104	113	1
87	88	1
21	26	1
51	89	1
38	39	2
45	46	1
42	43	2
124	126	1
28	28	1
124	125	1
77	78	1
86	86	1
112	112	1
122	123	1
105	114	1
79	88	1
11	13	1
15	23	1
3	6	1
1	10	1
48	49	1
120	121	1
110	111	1
