58	62	5
27	27	18
38	38	32
5	10	1
25	25	14
62	62	25
52	52	29
6	6	36
5	6	9
10	14	1
1	1	25
11	11	28
10	10	19
74	75	8
40	40	59
68	68	20
20	20	54
44	45	22
33	33	15
54	54	29
50	50	19
48	54	2
42	49	1
6	25	1
73	73	29
21	21	35
36	36	16
12	12	23
60	60	40
4	4	35
14	14	4
58	59	16
31	31	31
67	67	32
65	67	5
4	5	21
58	58	38
64	64	28
53	54	15
55	55	35
8	9	17
5	5	33
75	75	20
67	68	21
71	72	13
37	37	24
65	65	18
42	44	5
10	11	9
39	39	30
1	4	10
45	46	18
51	52	14
18	18	11
26	37	4
29	29	20
47	47	23
44	44	25
2	3	17
35	35	21
22	23	20
31	32	18
48	72	3
25	26	15
1	2	7
9	9	31
41	67	2
22	32	2
52	53	14
57	58	14
42	42	32
46	46	32
47	71	4
2	2	19
73	76	7
30	30	18
32	33	6
34	50	4
51	61	1
26	27	15
76	76	23
34	35	12
68	69	17
30	42	2
1	6	5
53	53	36
34	36	4
31	34	4
70	70	32
41	41	30
72	75	6
4	18	1
48	48	23
30	31	10
29	30	7
28	29	13
19	19	34
33	34	11
75	76	26
57	57	15
55	56	13
34	34	34
11	12	3
47	49	9
3	3	39
6	7	3
51	53	10
51	51	38
59	59	36
10	12	2
45	45	39
26	26	23
1	28	3
27	52	1
36	37	6
48	51	2
62	64	13
28	43	3
4	6	4
64	67	4
40	41	13
43	43	30
23	23	36
0	0	26
32	32	19
33	38	3
49	49	17
48	55	3
66	66	22
35	39	8
40	50	9
59	61	4
4	32	4
37	39	15
36	39	10
37	38	4
24	24	22
66	67	16
64	65	3
61	62	13
74	74	23
55	66	2
56	56	20
61	61	28
31	38	3
34	37	6
0	5	1
30	35	2
76	77	5
41	42	12
54	55	18
69	70	17
70	71	15
5	24	7
3	5	5
37	43	5
52	67	2
46	47	4
50	51	7
50	52	1
35	36	15
5	23	1
5	8	2
71	71	18
63	63	31
56	57	14
77	77	17
52	70	1
27	28	8
18	28	2
23	35	3
62	63	13
6	26	5
3	4	12
48	50	7
24	33	5
22	26	5
30	32	1
47	48	9
43	44	10
54	56	1
13	13	22
5	7	2
30	36	2
72	72	17
68	70	3
61	64	1
41	43	5
72	73	17
20	23	1
23	34	4
50	54	2
29	42	3
65	66	12
77	78	2
63	66	4
56	60	2
27	38	1
26	63	1
68	72	5
49	52	2
7	7	33
28	54	2
72	76	2
40	42	7
49	50	15
22	22	15
38	39	5
31	35	1
42	43	16
25	37	3
6	41	9
43	60	1
1	5	6
25	31	1
39	40	9
7	8	14
63	73	4
0	2	3
41	49	2
42	54	4
2	4	3
7	14	2
44	48	5
35	37	3
28	28	15
7	46	4
27	31	6
69	69	21
9	11	5
54	63	3
73	74	8
53	58	5
34	39	1
48	49	7
23	26	6
5	25	4
59	62	2
43	76	3
63	64	9
8	8	20
27	33	1
45	68	1
71	74	8
53	61	3
23	29	2
22	25	1
75	77	2
43	71	4
1	8	5
43	77	2
25	27	1
38	48	4
51	71	6
6	8	8
11	18	1
38	41	2
21	22	4
24	25	3
47	72	3
0	1	4
72	74	4
35	40	3
49	51	3
45	75	1
57	59	3
47	70	2
63	69	1
50	62	4
42	69	2
61	67	5
29	52	1
5	9	1
53	70	1
38	49	2
5	33	1
13	14	1
4	28	3
66	68	4
22	35	3
20	21	5
51	57	1
43	68	3
35	51	2
26	31	1
4	23	3
18	19	2
28	33	3
28	30	2
7	11	2
65	69	3
40	63	1
24	26	2
1	26	4
61	63	6
2	9	2
6	47	1
3	45	1
54	73	1
60	61	5
40	69	3
30	54	1
28	53	3
3	9	2
27	39	3
47	68	4
23	36	2
19	20	3
18	21	3
51	54	2
40	62	1
73	77	1
60	66	4
22	33	3
5	31	1
51	64	2
43	67	2
48	56	1
45	47	6
51	63	2
6	10	1
7	9	4
28	31	1
13	21	3
43	49	1
53	55	1
49	53	3
3	10	2
45	76	1
33	36	2
70	73	2
57	72	4
41	69	1
52	59	1
31	33	2
4	25	5
50	53	2
11	20	4
44	47	2
36	47	1
56	66	5
57	60	3
19	21	4
58	60	2
30	41	3
65	70	1
53	59	1
41	50	4
32	34	1
74	77	1
41	66	1
26	47	1
3	22	1
63	68	1
46	48	1
23	24	5
40	49	1
26	29	1
51	67	1
28	39	1
22	27	3
32	39	2
57	74	3
27	30	2
4	50	1
53	57	3
41	62	1
22	34	1
45	60	1
43	46	1
58	74	1
40	43	2
15	15	3
43	47	1
9	10	5
28	52	1
52	55	3
2	28	2
26	53	2
36	42	3
65	73	1
49	70	1
73	75	1
34	42	1
6	32	1
40	65	1
10	13	1
0	4	1
24	35	2
22	24	3
42	68	1
36	41	1
29	32	1
59	64	1
18	29	2
59	60	2
52	54	2
45	71	1
0	3	1
47	60	1
56	59	1
14	54	1
25	44	1
15	27	1
20	56	1
3	6	1
60	76	1
10	18	1
35	38	1
35	50	2
31	37	2
5	43	2
49	67	2
49	66	1
32	36	1
66	69	1
25	35	1
71	73	1
21	33	2
1	10	1
8	46	1
49	68	1
64	66	1
26	34	1
0	7	1
36	40	1
12	13	1
5	40	1
31	36	1
