117	117	8
106	122	6
1	1	25
36	37	3
19	19	10
20	25	2
176	176	3
111	117	3
90	90	23
91	92	5
79	79	7
149	150	23
140	140	32
173	174	2
4	4	8
22	24	12
148	148	12
40	42	6
44	44	3
25	25	9
104	104	13
167	170	3
41	41	14
115	116	4
121	121	10
73	75	4
40	40	10
130	130	5
71	72	3
15	15	10
109	109	35
139	139	27
13	13	15
127	130	4
6	6	22
181	182	4
111	111	6
24	24	12
67	68	8
20	27	4
152	152	10
107	108	4
87	123	4
99	101	5
111	112	6
17	18	7
186	187	3
154	157	1
180	181	5
108	108	6
6	17	3
96	100	4
2	2	20
29	30	5
22	23	5
78	78	3
90	93	5
92	92	5
22	30	1
31	31	10
46	47	10
79	109	3
12	20	1
56	62	6
147	148	7
42	42	7
20	21	3
73	73	14
85	85	5
26	26	4
179	182	7
34	35	9
0	0	25
85	122	2
58	58	20
7	7	22
118	120	7
11	11	5
115	115	12
124	124	9
164	164	4
89	89	16
65	65	4
155	155	19
61	75	3
139	164	2
39	41	2
20	20	4
188	188	5
37	37	17
135	136	4
132	136	3
103	124	4
117	118	7
80	80	5
158	158	2
144	144	11
155	156	22
127	127	3
97	98	6
106	117	2
181	181	7
45	47	3
162	165	1
87	87	16
59	64	1
134	135	4
151	151	3
6	8	3
27	29	4
132	135	9
120	120	7
182	183	3
96	97	9
161	162	9
9	11	5
8	17	3
18	20	5
174	174	3
70	71	1
23	24	15
142	143	4
63	64	7
151	152	10
176	177	8
98	98	5
80	81	11
135	139	5
156	156	14
98	99	3
57	57	12
126	126	14
56	56	16
92	94	9
171	172	3
154	167	2
179	180	2
105	106	4
85	86	4
15	32	3
108	113	2
76	94	2
92	95	3
76	76	11
17	17	9
135	135	4
78	79	8
65	71	2
116	117	9
132	132	5
184	184	10
90	92	2
139	165	7
162	162	5
119	119	10
46	46	15
154	154	32
14	14	9
28	28	14
66	66	13
138	139	1
123	124	5
38	46	7
125	129	3
75	75	13
26	27	11
95	95	8
189	190	2
93	93	11
53	53	13
69	69	4
36	36	4
54	54	4
113	113	9
123	123	4
135	137	5
25	27	7
149	149	7
19	20	2
130	131	6
102	102	10
52	54	8
133	134	10
40	110	2
100	100	13
152	153	6
84	85	3
116	116	6
94	94	7
122	122	16
14	15	3
12	21	3
83	83	17
38	40	5
8	8	8
38	38	22
25	34	2
91	91	3
82	82	14
4	5	2
15	37	3
85	93	4
91	122	8
78	81	6
131	136	4
68	68	5
189	189	6
110	110	13
153	153	9
179	179	3
12	14	6
143	163	3
24	43	4
36	38	2
45	45	12
143	162	1
104	111	4
99	99	6
108	112	7
111	115	3
172	176	6
55	55	3
147	147	4
84	121	3
166	169	8
145	145	8
99	100	6
55	56	16
103	103	7
107	107	3
142	142	8
22	92	1
103	109	1
180	180	7
86	104	4
97	97	9
81	81	7
170	170	10
52	53	2
6	7	5
23	23	7
13	14	14
11	17	6
134	141	2
170	176	4
90	128	1
170	174	2
27	37	4
98	130	1
96	101	2
141	143	4
15	97	5
149	151	5
57	58	1
37	47	2
133	133	2
57	64	4
47	47	5
68	72	3
12	12	4
150	151	1
160	163	3
134	152	2
96	104	2
62	62	1
136	137	2
65	66	3
5	5	2
122	123	6
62	63	4
161	161	3
125	125	3
185	185	10
4	10	3
43	43	4
156	158	2
94	95	9
186	186	11
114	114	5
76	107	2
71	71	5
76	77	3
25	26	1
147	149	4
8	16	3
183	183	5
95	96	8
101	103	5
127	128	3
174	177	3
91	93	2
30	33	1
90	95	2
108	111	1
128	130	3
72	72	8
48	48	6
39	39	8
76	91	7
24	26	6
112	112	5
44	61	2
68	87	2
154	168	2
156	157	4
168	168	2
133	155	5
102	103	1
100	101	2
86	94	4
103	108	4
80	106	3
88	88	7
109	112	1
150	150	9
175	176	3
125	126	6
58	67	2
136	136	10
2	92	2
145	147	3
26	38	3
143	143	11
173	173	5
77	78	1
39	40	2
48	60	3
111	118	7
137	137	8
16	22	1
39	47	4
22	22	9
143	145	1
139	140	4
150	152	3
33	34	9
128	129	13
154	156	3
161	163	7
110	114	1
29	34	4
146	149	3
106	111	1
19	37	3
129	134	3
10	14	2
60	60	5
80	82	3
142	150	3
145	149	2
137	165	2
85	94	2
118	118	7
32	33	4
73	74	2
84	84	8
126	127	1
87	116	2
125	162	1
74	74	7
159	159	3
10	10	6
83	84	2
78	80	1
4	13	1
113	118	1
56	67	6
175	177	7
171	180	1
103	129	4
15	36	1
82	83	6
77	77	2
105	105	8
169	169	6
36	47	2
17	93	7
4	20	3
110	111	4
82	107	2
21	22	1
156	168	4
90	125	1
85	91	1
125	131	1
11	18	2
63	72	4
30	31	2
145	148	5
58	63	1
93	94	3
106	109	2
167	167	4
141	142	4
158	190	1
53	54	2
1	3	1
137	139	4
146	151	3
170	185	1
7	8	2
15	16	2
21	21	5
158	162	3
8	38	2
129	129	8
182	182	2
79	80	3
156	166	2
131	137	4
45	46	2
146	148	1
40	41	2
66	67	3
126	161	3
153	154	3
5	9	3
166	166	1
59	73	1
44	60	2
97	99	3
30	43	2
160	160	4
62	73	2
64	64	6
27	28	7
75	140	4
21	24	2
164	165	6
24	90	2
163	163	3
92	104	1
154	155	2
28	42	3
106	106	5
126	162	2
19	36	3
60	65	2
47	48	2
128	128	3
84	122	3
129	135	3
101	102	2
77	93	1
28	29	2
101	101	4
106	108	2
77	90	2
105	107	4
177	177	3
126	163	1
24	46	3
81	117	2
103	111	5
70	70	6
138	138	4
31	34	2
104	109	1
48	53	2
24	25	1
131	131	3
114	115	2
114	122	4
128	162	1
66	72	3
52	52	2
104	105	2
17	20	2
113	119	9
158	164	3
4	11	1
156	165	1
138	164	2
126	164	1
78	82	1
4	8	1
106	112	3
31	32	1
156	164	2
140	153	1
106	113	1
107	118	3
41	42	2
104	124	3
124	125	2
112	118	1
61	66	1
106	107	1
35	35	5
19	25	1
30	37	3
147	150	2
167	188	2
59	60	2
63	63	3
105	110	3
16	16	4
9	10	1
87	95	2
119	120	1
172	172	4
3	15	1
80	130	3
109	111	1
88	119	1
155	162	1
114	117	1
126	128	1
187	187	4
140	141	3
170	186	1
12	15	2
130	132	3
161	164	1
29	43	1
82	85	1
132	133	2
48	58	1
40	47	3
69	70	2
61	62	2
171	171	1
34	34	1
141	153	1
142	144	1
37	38	3
157	157	5
63	65	2
86	122	1
2	90	3
89	93	1
96	96	5
62	66	1
61	63	1
83	120	2
126	158	1
5	13	1
6	19	1
62	67	1
60	64	1
35	48	1
30	30	2
84	120	1
9	9	3
8	77	1
126	160	1
13	15	1
2	91	2
53	55	2
25	38	4
2	8	3
166	168	1
61	61	4
77	79	1
26	30	1
158	163	1
1	2	1
67	67	1
95	123	1
76	78	2
77	81	2
24	31	1
90	105	1
2	3	1
167	176	1
38	39	1
81	107	1
24	27	1
75	79	1
113	122	1
59	59	1
35	36	1
