38	38	7
197	197	4
170	171	5
137	144	1
134	134	16
156	156	6
33	33	3
120	120	6
119	120	2
40	40	11
53	53	7
161	161	16
151	151	9
135	135	1
179	188	3
160	180	2
18	23	3
127	171	3
173	174	3
170	188	5
180	181	6
64	116	5
6	6	3
144	144	2
100	100	5
176	176	15
89	90	3
51	51	8
3	3	5
178	179	2
55	56	5
113	114	6
19	19	8
53	54	3
109	109	8
194	194	16
155	155	9
196	196	13
187	187	10
175	175	10
156	191	1
25	26	4
174	188	2
190	190	11
2	3	2
153	153	8
108	109	4
33	34	3
34	34	5
128	189	1
46	46	3
81	81	3
94	95	8
8	87	2
160	181	3
111	111	5
187	188	4
166	191	2
108	159	4
151	152	3
169	169	16
52	53	2
10	10	4
158	166	3
58	58	3
4	4	7
174	174	4
29	30	1
129	129	4
116	116	3
166	167	5
50	50	10
77	77	5
88	88	2
93	94	5
179	179	10
33	37	3
185	185	18
175	187	2
124	124	4
181	182	10
29	29	3
193	193	14
130	131	5
158	158	14
156	157	6
78	82	6
116	117	4
191	192	2
143	157	1
24	44	1
112	112	17
170	170	13
191	191	4
141	141	3
175	176	8
12	45	2
162	162	3
165	173	3
109	189	3
32	32	2
182	182	1
185	190	1
17	17	3
124	142	4
21	26	3
66	66	2
132	132	5
61	63	2
100	103	4
147	147	9
183	183	10
2	2	9
138	138	10
95	133	1
192	192	10
113	119	1
5	5	6
101	112	2
86	132	1
9	9	7
181	184	2
39	39	8
177	178	3
22	22	2
136	179	1
26	27	1
69	69	6
136	150	1
36	36	5
145	157	2
56	56	5
139	169	1
118	135	1
186	186	9
35	35	5
184	184	3
139	140	2
157	157	5
176	177	10
113	147	1
115	115	11
158	159	3
79	79	3
30	58	2
130	130	10
120	128	8
57	57	3
79	85	2
15	15	4
124	184	3
156	180	2
189	189	3
37	37	3
24	24	6
80	80	7
41	41	4
117	118	5
33	39	3
142	142	4
154	154	4
70	70	8
13	126	1
110	110	2
5	6	3
49	49	14
89	89	10
31	32	5
109	188	3
178	178	2
137	137	6
171	171	5
18	74	4
85	138	1
188	188	2
145	145	4
145	148	1
111	112	2
187	194	2
0	2	4
79	82	1
85	85	1
163	163	7
16	16	5
21	22	1
166	166	5
143	143	8
44	44	3
84	85	1
64	64	5
26	26	6
110	111	2
52	52	3
187	190	3
72	134	1
177	177	7
168	168	11
61	61	2
15	45	3
157	169	3
184	186	2
124	127	5
141	169	4
101	101	7
66	68	7
139	191	4
34	58	2
113	113	8
25	25	8
90	90	1
139	152	2
58	59	2
42	42	7
143	166	1
28	37	1
43	43	6
41	42	3
34	35	3
123	125	1
67	72	2
143	144	2
140	140	12
105	105	5
36	100	2
134	154	1
180	180	3
109	159	3
149	150	1
93	93	3
122	122	9
59	59	2
133	149	2
147	148	5
136	136	6
31	31	1
159	174	1
170	190	1
95	95	3
133	133	4
27	27	8
119	119	5
99	99	4
122	126	4
10	12	1
76	76	3
183	194	2
23	25	2
133	138	1
186	190	1
159	187	1
96	96	3
13	13	2
137	138	1
71	71	5
1	1	3
59	62	2
102	102	2
178	180	2
126	126	1
120	121	3
124	141	2
26	35	2
118	118	7
93	151	2
167	167	4
28	30	3
45	49	1
170	193	1
104	107	2
146	157	2
4	23	2
148	155	5
146	146	6
163	164	5
117	117	3
195	195	5
17	21	2
150	150	4
45	46	1
36	40	3
168	169	2
25	27	1
14	14	7
86	88	4
32	33	4
129	183	1
7	7	4
9	158	2
25	34	3
101	113	1
176	178	1
123	123	2
154	189	3
162	181	3
85	89	2
23	23	4
50	51	7
10	15	1
115	116	4
87	89	1
32	38	2
174	175	1
72	133	1
170	194	1
114	114	5
45	45	4
173	173	1
139	139	1
117	142	1
49	50	1
149	149	5
20	20	3
148	148	8
165	165	1
132	133	2
17	23	3
68	73	1
147	152	2
146	148	3
128	196	2
9	157	1
11	11	2
80	81	3
157	191	2
189	190	3
131	132	1
41	51	2
67	68	1
140	191	2
113	149	1
60	60	1
86	87	3
29	55	1
111	160	1
181	192	1
181	181	2
2	7	2
167	178	2
48	48	3
8	174	2
182	185	1
62	132	3
52	54	1
11	12	1
143	159	1
149	151	4
109	110	2
73	73	1
78	80	3
102	103	1
73	74	2
128	128	2
108	108	2
114	115	1
114	119	2
133	140	3
184	185	1
127	128	2
29	37	1
5	37	2
131	131	1
107	107	2
3	4	2
164	164	2
121	128	1
125	142	1
173	175	1
45	50	1
15	16	3
106	108	3
110	192	1
54	54	5
134	135	1
8	37	1
154	166	2
12	12	2
118	131	2
29	41	1
104	171	1
167	169	1
188	191	1
21	23	1
112	122	1
0	0	1
100	142	1
152	152	2
3	42	3
23	42	1
30	30	3
74	75	1
157	185	1
155	156	1
58	102	1
0	66	2
153	174	1
86	86	1
117	152	1
135	144	2
35	52	1
161	191	2
106	106	1
115	132	2
33	102	1
42	57	1
82	83	1
173	178	1
98	98	2
136	137	2
130	144	1
125	125	1
60	89	1
38	44	1
27	28	2
28	28	3
178	184	1
109	160	1
14	45	5
72	72	2
158	169	1
43	44	1
112	113	2
163	179	2
163	167	1
99	102	1
94	133	1
183	192	1
188	190	1
172	174	1
111	145	1
60	61	2
32	55	1
46	47	1
22	43	1
155	159	1
165	166	1
8	152	1
47	47	1
117	153	1
184	190	1
115	152	1
113	115	1
10	11	1
124	125	1
126	128	1
84	99	1
156	158	1
