145	145	7
60	60	8
146	148	1
166	168	4
73	73	7
176	183	2
126	126	2
22	23	6
137	137	4
140	140	5
53	56	2
110	110	3
9	45	2
114	114	4
40	41	2
24	24	3
181	184	2
118	132	1
80	81	5
99	99	1
96	105	4
63	64	3
139	139	7
115	151	2
12	145	3
122	154	3
95	95	3
68	108	2
171	187	1
176	176	5
161	161	1
97	106	3
130	132	1
152	152	7
110	133	1
39	39	2
65	85	2
77	78	2
8	8	1
180	180	5
97	98	3
128	152	1
36	36	1
140	161	1
166	167	4
43	44	1
44	44	4
14	37	6
141	185	1
58	58	4
74	74	9
45	46	5
101	102	4
127	128	2
66	66	4
167	167	7
47	48	3
174	175	2
68	68	2
145	170	4
4	26	2
16	17	3
4	5	1
23	35	4
148	162	2
74	105	2
53	54	2
95	100	3
100	105	1
30	32	2
25	41	5
177	185	2
80	95	1
155	165	1
14	14	7
180	189	4
32	32	3
35	35	3
179	180	3
157	157	3
94	95	1
140	141	1
172	187	3
57	57	3
115	115	1
154	165	4
73	96	4
12	26	4
56	56	4
73	76	1
135	135	1
99	104	2
106	106	3
145	155	2
18	37	2
54	54	8
116	116	2
167	168	4
133	165	2
47	47	4
112	133	3
142	150	1
19	19	6
35	37	3
96	101	2
26	28	1
27	34	4
123	155	1
159	166	3
123	125	1
34	34	3
131	133	4
170	170	7
146	146	4
130	153	1
181	181	1
35	36	1
70	83	1
112	114	2
19	44	2
63	63	2
177	177	1
17	17	5
76	79	3
11	12	1
174	174	2
188	188	3
12	12	2
43	43	3
67	67	3
86	86	2
71	71	2
111	111	2
37	77	2
102	102	9
82	86	1
11	11	4
171	172	2
93	93	1
64	65	3
128	128	1
74	75	4
6	7	1
67	110	5
95	98	4
181	182	2
156	156	1
61	61	4
33	56	3
139	157	2
187	189	2
31	34	1
11	13	1
27	28	1
79	79	6
121	155	2
29	30	4
28	29	1
14	15	2
23	43	2
138	138	1
146	147	2
76	76	1
19	20	2
66	111	1
5	12	2
122	122	7
142	142	5
1	1	2
153	165	2
71	85	1
71	72	2
175	175	2
144	174	1
165	165	5
27	29	1
147	147	2
94	94	2
117	121	1
131	137	1
100	100	4
105	107	3
171	171	2
10	11	3
155	155	1
43	46	4
101	118	4
122	128	2
124	125	3
88	88	3
151	151	3
118	133	1
141	141	3
13	13	2
37	37	2
104	105	1
163	164	1
17	65	1
99	100	1
186	186	5
163	163	9
166	166	2
138	139	1
27	27	2
153	153	2
17	42	2
16	20	3
169	187	3
123	123	1
58	62	1
125	126	1
125	125	1
117	146	4
39	143	1
83	83	2
121	123	2
56	57	3
129	129	3
101	154	1
58	60	1
91	91	1
105	105	1
184	184	1
59	60	3
130	130	7
23	23	2
46	47	1
37	52	2
53	55	1
81	113	2
16	16	2
134	134	2
55	55	3
1	100	1
0	0	2
72	74	1
65	68	1
22	46	1
158	163	1
30	30	5
159	159	3
102	103	2
169	169	1
92	92	3
12	15	1
25	25	1
124	124	3
91	92	1
165	166	2
17	18	1
143	143	1
102	107	1
183	183	1
72	72	2
131	131	1
179	182	1
185	186	5
149	149	3
148	148	2
103	103	6
6	154	3
134	137	5
18	18	3
59	59	1
159	164	2
121	122	4
117	137	2
71	88	4
110	111	2
168	168	3
117	117	2
120	130	1
96	117	1
64	64	2
132	132	2
75	76	1
118	118	4
62	63	1
119	146	1
173	173	1
170	173	1
58	59	1
175	183	1
84	86	2
9	12	4
38	85	1
22	54	2
117	150	2
46	46	1
7	7	1
147	149	1
82	116	3
77	77	1
13	14	1
150	150	1
21	21	1
182	183	1
80	110	2
63	86	1
164	164	1
65	84	1
3	10	1
18	47	1
89	89	1
142	143	1
84	107	2
5	5	3
159	163	1
187	187	2
118	139	1
135	136	1
110	112	1
165	168	2
172	175	1
35	43	1
107	108	1
122	138	1
31	32	1
70	70	2
4	4	1
33	39	1
88	89	2
177	179	1
97	116	1
3	3	1
15	15	2
113	113	1
158	161	1
18	23	1
83	104	1
75	75	1
4	27	1
119	156	1
183	184	1
12	13	1
10	45	1
72	73	1
179	181	1
39	40	1
137	139	1
149	182	1
54	55	1
96	96	1
109	110	2
30	31	1
145	146	1
42	42	1
93	107	1
182	182	1
