42	42	9
90	97	7
22	22	7
93	93	4
30	30	5
80	80	14
73	74	7
65	65	4
87	88	4
47	63	2
99	102	4
49	49	5
91	96	1
76	76	6
54	106	2
24	24	8
92	92	6
100	111	1
85	93	2
47	69	9
67	67	8
25	25	13
41	42	1
106	106	1
108	108	6
66	66	7
81	108	2
96	96	9
21	21	7
27	27	6
70	70	10
55	55	1
51	52	2
40	40	8
72	76	2
74	74	7
59	63	2
72	72	5
114	114	3
75	78	3
84	85	4
95	95	6
33	38	5
70	78	5
77	77	4
43	64	2
81	103	1
43	44	1
94	94	9
34	35	7
46	72	1
22	23	2
83	83	6
73	96	6
73	73	9
38	38	5
23	23	6
106	109	3
63	64	2
23	25	1
82	84	2
60	64	3
86	88	4
29	29	2
68	68	4
63	63	6
60	60	12
105	107	1
82	83	1
26	26	4
47	47	10
89	93	2
115	115	3
35	37	2
96	99	3
78	78	5
54	56	2
48	48	6
81	82	3
85	88	2
85	102	4
75	77	2
76	77	7
112	112	5
30	31	5
110	110	8
109	111	5
64	64	9
35	35	8
90	90	5
97	97	5
104	105	1
72	73	4
58	58	3
52	78	1
105	106	4
94	98	1
39	46	3
53	54	2
86	86	4
40	41	2
56	57	2
105	105	5
33	47	3
105	108	3
32	33	2
78	79	3
44	54	4
113	113	4
93	99	1
28	28	8
104	108	5
50	73	2
38	59	1
99	99	5
63	65	3
32	35	1
103	103	2
79	79	1
93	104	7
26	29	3
102	103	1
96	97	3
94	103	1
89	94	2
19	19	3
106	107	5
81	81	6
111	111	3
43	43	2
85	86	6
83	84	4
26	32	4
44	44	7
26	27	2
59	66	1
96	98	1
31	35	2
50	50	4
33	40	2
87	87	1
24	25	1
36	37	2
67	68	1
40	58	2
34	42	1
103	108	1
55	61	1
109	110	1
51	79	4
58	59	3
69	69	3
55	56	2
95	97	3
88	88	5
61	68	2
103	104	1
101	101	2
57	57	6
92	93	1
25	27	2
50	51	4
87	102	1
52	52	5
88	111	1
73	105	2
67	69	1
25	31	3
59	59	2
69	79	1
93	108	1
56	56	3
85	103	2
45	45	11
39	39	5
89	90	1
75	108	3
93	95	2
32	42	1
90	94	3
98	98	3
51	51	1
100	100	2
46	69	1
41	41	4
20	20	3
61	69	1
52	96	3
27	29	1
85	104	1
50	75	3
81	88	1
27	28	2
57	59	2
56	63	1
54	55	1
103	107	2
41	76	2
80	103	2
62	62	4
36	36	3
25	28	1
93	94	4
44	45	3
102	102	7
35	36	1
24	31	1
52	66	1
71	75	1
34	34	1
104	106	2
32	32	1
101	102	2
23	24	1
38	41	2
85	100	1
74	90	1
51	75	1
112	113	2
31	32	2
71	107	1
80	98	1
89	89	2
80	81	1
57	66	1
74	111	1
43	51	1
109	109	1
60	65	1
53	59	1
52	53	3
52	98	1
82	85	1
33	33	1
56	72	2
60	61	1
107	107	1
40	46	1
49	50	1
62	77	1
58	65	1
48	63	1
23	30	1
