103	103	5
56	60	3
70	72	4
71	72	8
63	69	3
35	35	20
42	42	8
73	73	9
77	81	4
61	62	14
29	36	7
97	97	19
44	44	14
95	95	18
20	92	3
97	98	4
99	100	6
26	26	6
80	80	17
97	99	7
105	106	10
93	93	18
72	82	2
65	69	2
38	109	4
86	87	11
50	51	12
57	57	6
103	106	4
60	95	3
67	70	4
59	59	11
89	89	8
85	85	30
45	45	5
96	96	24
21	21	12
83	84	10
62	62	10
101	101	17
65	65	16
105	105	7
99	99	17
104	104	7
110	110	14
53	96	1
36	36	14
64	100	1
71	71	14
67	68	3
92	93	1
63	72	8
25	25	8
33	34	5
46	46	14
27	30	2
58	58	6
63	63	11
52	52	14
54	54	8
58	94	2
26	31	2
61	75	5
86	90	4
74	84	2
100	100	16
105	108	2
90	90	24
66	68	2
24	24	15
43	43	7
68	71	3
60	60	20
54	58	5
38	38	18
27	78	3
112	112	5
34	35	9
86	88	3
69	70	3
56	58	2
76	76	18
67	67	17
37	37	6
106	106	17
62	96	2
75	75	8
48	48	11
38	94	2
24	71	2
59	101	2
29	30	1
30	30	11
78	78	12
75	79	8
65	68	9
65	91	5
64	64	17
85	86	4
84	84	18
32	32	14
86	93	5
72	73	1
53	54	3
83	83	11
60	108	4
76	79	2
57	59	2
34	36	6
28	78	2
109	109	13
43	44	11
70	70	8
108	108	8
29	31	2
22	23	8
95	103	2
77	78	4
27	27	14
61	61	17
56	56	10
47	47	8
80	81	13
94	94	20
40	40	13
77	77	9
48	49	12
25	83	1
70	79	1
102	108	3
61	71	4
69	77	1
46	47	3
53	53	6
49	49	14
91	91	21
23	71	3
69	71	5
111	111	16
81	82	5
31	33	1
70	71	7
75	82	3
62	63	10
75	92	3
98	99	6
59	102	2
101	102	12
74	74	8
68	69	11
28	79	2
59	88	4
70	104	2
88	88	14
76	78	7
89	91	1
85	90	6
59	60	4
87	87	16
58	76	2
107	107	8
33	33	10
66	66	13
59	89	3
58	59	14
102	103	3
56	101	1
20	90	4
68	68	5
34	34	15
72	72	11
98	109	3
102	102	15
55	55	6
69	69	12
71	75	7
63	67	1
25	52	2
55	57	4
63	64	5
61	74	3
101	103	2
64	65	6
29	29	8
76	77	7
32	33	6
108	109	3
39	40	2
29	72	4
20	20	3
109	112	2
56	100	3
79	81	2
96	97	13
55	101	2
56	92	2
78	79	8
31	31	7
89	98	2
63	90	2
112	113	3
75	76	5
81	94	1
25	86	3
26	27	3
67	69	6
73	88	3
30	91	3
81	81	10
87	88	5
114	114	12
67	73	2
82	83	8
80	96	1
98	98	11
46	92	2
79	79	17
23	23	10
65	74	1
45	66	2
95	97	2
39	39	5
32	52	2
73	77	2
113	113	12
107	108	2
33	49	2
73	74	8
106	108	4
103	107	3
28	28	9
74	75	1
42	43	10
72	77	3
73	91	2
92	92	5
23	24	5
109	110	2
22	22	11
87	94	4
50	50	13
86	86	7
56	57	4
46	98	2
53	97	2
81	93	2
66	101	2
94	109	1
78	92	2
29	85	3
100	113	1
66	67	6
20	22	1
110	111	5
51	51	11
58	102	2
100	101	3
28	31	2
57	103	1
104	105	4
106	107	1
31	83	1
73	76	1
93	94	3
71	84	4
63	74	1
28	73	5
98	107	2
68	77	2
53	88	5
66	69	3
20	21	1
97	103	5
77	92	3
19	19	4
72	76	1
89	90	4
19	20	2
34	82	1
100	108	5
21	79	1
72	75	1
76	80	1
33	50	2
63	97	3
99	111	2
79	80	2
82	82	8
68	70	5
27	29	1
53	59	3
26	44	1
28	76	2
72	81	2
78	93	1
75	93	1
96	99	2
90	91	1
27	28	2
57	58	3
19	91	1
35	84	1
62	79	2
63	95	1
35	48	3
68	108	1
37	79	2
60	70	2
47	48	2
72	80	1
103	104	7
40	41	2
84	85	2
59	108	1
36	37	5
77	114	1
68	103	1
59	61	1
22	24	4
28	82	2
36	72	2
54	55	5
88	90	5
47	49	1
21	24	1
53	58	3
81	95	2
33	35	1
31	32	1
103	105	1
22	80	1
64	66	1
67	74	2
62	67	2
52	99	1
31	35	3
45	65	1
59	94	1
91	101	2
104	107	1
55	59	1
85	89	2
59	64	1
83	92	1
95	96	1
36	73	1
41	41	1
78	81	2
105	107	3
74	78	1
21	66	3
62	65	1
30	36	1
42	110	1
91	99	1
23	82	1
98	108	1
60	61	2
21	44	1
69	79	2
86	94	1
61	78	1
28	29	1
20	24	1
65	67	1
41	42	1
21	22	1
21	73	1
62	69	1
