74	74	10
94	94	18
29	29	29
65	65	18
74	77	5
41	42	5
62	63	5
89	92	3
60	60	22
119	119	3
13	13	9
21	81	3
93	95	4
36	36	11
129	130	7
11	11	19
27	43	4
73	73	10
75	75	15
49	49	5
118	118	16
95	96	4
77	77	13
47	47	26
59	59	25
120	120	11
113	113	17
1	2	2
72	72	27
78	81	3
68	69	4
0	0	3
16	16	14
121	121	4
58	59	7
25	83	5
2	3	4
107	107	8
9	9	16
66	66	17
28	75	3
117	117	9
81	81	14
33	35	7
39	40	12
14	15	2
114	116	3
116	116	6
108	110	6
60	71	2
35	44	5
36	100	3
90	91	10
51	55	6
122	122	3
17	17	14
14	14	17
123	124	7
19	20	2
35	35	21
82	82	23
17	27	3
71	72	2
100	100	10
28	47	8
5	5	18
33	43	1
7	7	22
119	122	4
32	36	4
10	11	7
106	107	6
93	93	27
76	76	15
19	19	21
34	34	15
118	119	9
99	99	14
62	62	8
61	61	23
47	48	9
11	31	1
12	35	2
30	32	4
18	41	5
92	92	11
75	76	6
86	107	2
21	21	11
83	83	15
13	14	2
111	112	2
131	132	7
133	133	2
125	125	7
69	69	9
86	87	6
84	85	6
4	4	7
20	20	8
5	6	2
61	76	2
69	70	7
12	12	14
82	85	2
32	51	1
11	21	4
63	74	4
47	62	8
3	3	8
103	103	8
61	125	6
61	64	2
4	5	4
25	25	9
28	28	7
124	132	3
68	68	21
111	111	5
88	100	4
33	34	1
10	10	23
86	88	2
93	94	14
38	39	5
41	41	3
57	58	3
105	105	6
32	32	13
27	47	1
27	92	3
15	16	4
44	44	8
102	104	1
2	2	15
71	95	1
62	107	2
29	62	1
46	46	10
86	86	16
56	98	2
85	85	23
114	124	6
9	13	6
107	109	2
105	106	2
101	101	10
27	28	3
79	82	1
37	82	5
26	26	15
67	68	2
18	76	2
134	134	5
97	97	3
82	83	9
9	10	6
43	43	7
2	73	2
121	122	4
23	24	5
46	61	2
34	57	7
48	48	10
22	22	4
36	37	7
55	56	2
63	63	19
10	12	1
15	15	10
112	112	15
83	84	6
123	130	1
119	120	4
4	84	2
18	18	11
86	113	2
126	127	3
44	107	1
102	102	20
16	17	3
11	93	1
35	97	3
128	128	4
3	13	1
61	108	3
47	77	2
34	45	3
80	85	1
18	34	1
25	26	6
67	67	5
62	86	1
81	82	6
28	78	10
120	130	2
73	99	2
129	129	7
29	30	1
38	82	2
108	109	5
31	31	4
35	36	2
63	92	2
33	33	16
123	123	6
100	123	2
71	79	2
70	70	5
12	13	6
130	130	13
114	115	4
32	33	4
46	56	2
47	64	2
42	43	2
46	112	3
78	78	10
45	45	19
74	75	4
88	88	1
64	64	11
35	82	2
44	84	4
46	57	3
120	121	2
14	29	4
73	74	4
126	126	6
1	1	2
99	123	2
27	70	1
87	87	11
58	58	6
124	124	15
35	61	1
44	59	3
47	93	2
107	113	2
9	12	3
115	127	2
27	98	2
110	110	4
60	61	10
63	64	2
125	128	1
46	62	2
36	43	3
10	93	1
29	31	2
51	51	2
21	29	3
57	99	2
110	125	3
27	27	17
8	97	2
112	124	3
27	96	2
57	89	1
76	78	3
10	85	2
15	23	1
43	44	3
44	112	1
38	81	2
42	42	2
90	102	4
45	64	3
3	66	3
63	102	3
71	80	3
100	134	1
104	104	5
92	93	6
15	42	3
28	80	3
63	93	2
45	46	6
19	35	4
131	133	3
7	101	2
24	26	5
8	8	5
30	60	1
25	86	3
71	71	1
9	19	1
70	98	1
116	126	1
130	131	5
112	113	5
36	48	5
23	23	3
24	25	4
37	38	2
98	98	1
117	118	7
15	38	2
95	95	18
87	88	4
43	58	3
38	43	2
112	125	1
84	84	3
21	38	2
7	8	3
60	116	1
69	72	4
40	40	2
8	9	2
91	91	5
87	101	1
88	89	5
36	44	3
8	10	4
28	35	1
9	95	2
57	57	2
12	63	1
31	47	3
94	95	4
116	117	2
128	131	3
12	32	2
39	60	1
57	101	2
25	32	2
64	69	2
129	131	1
108	111	1
62	108	1
37	71	2
8	93	2
24	62	5
72	131	1
44	45	6
30	30	12
3	71	1
91	92	3
8	20	7
98	99	5
3	17	1
20	21	1
92	102	2
12	97	3
72	73	7
50	50	1
5	85	1
114	123	1
26	27	3
113	114	1
85	93	2
17	39	1
120	129	1
11	76	2
7	99	1
125	127	5
106	106	2
86	112	3
59	60	2
115	125	2
94	102	3
108	108	3
18	27	4
48	49	1
87	123	2
127	127	5
68	70	1
17	28	3
28	59	2
109	113	2
114	130	1
21	85	3
97	98	3
20	32	1
59	116	1
79	81	1
9	76	2
45	62	2
3	65	2
96	96	2
80	80	3
27	84	2
64	65	1
103	105	2
14	41	1
45	68	1
4	93	3
85	88	2
46	65	1
131	131	6
20	57	2
10	14	3
103	104	5
25	27	5
108	112	1
38	38	3
10	31	2
89	101	2
26	66	2
62	93	1
92	106	1
19	99	1
11	27	1
8	11	2
109	111	1
110	117	2
124	130	1
70	72	1
91	93	3
101	107	2
63	65	1
38	57	1
96	97	2
109	110	2
18	83	1
39	41	1
11	29	1
39	39	1
29	49	2
34	61	1
21	22	1
11	63	1
46	47	2
78	80	1
42	86	1
75	83	1
48	55	1
7	60	2
72	75	1
45	47	1
8	36	1
80	81	1
17	26	1
48	73	1
76	82	2
21	28	2
10	69	1
124	133	1
132	132	3
94	97	1
125	126	2
8	12	1
56	56	1
12	83	1
68	72	1
34	74	1
6	6	1
65	68	1
9	83	1
44	86	1
110	112	1
115	115	1
38	40	1
30	31	1
55	55	1
90	90	1
96	98	1
64	95	1
62	67	1
122	123	1
66	67	2
35	77	1
100	101	1
28	44	1
24	24	1
46	71	1
85	86	1
41	60	1
37	37	1
22	42	1
