73	73	16
67	67	15
63	65	4
70	75	1
114	114	10
74	74	14
61	64	5
80	80	25
62	62	11
97	107	1
28	28	11
77	81	2
105	105	10
88	88	16
82	82	5
77	77	18
46	46	17
40	40	6
104	104	7
45	45	13
81	81	15
113	113	11
102	102	4
110	110	15
95	95	7
58	59	6
91	91	7
73	74	5
41	42	5
57	57	16
106	106	12
34	35	4
70	70	17
57	58	11
56	56	23
89	93	2
50	51	4
30	31	3
109	109	10
37	37	4
61	61	16
76	105	4
63	63	11
101	101	19
59	60	3
41	41	10
43	43	10
51	51	6
59	94	5
40	41	5
78	78	23
97	105	3
31	39	7
112	112	12
82	83	9
68	68	10
83	83	8
108	110	2
97	102	3
106	108	3
101	102	4
81	89	1
69	74	1
83	84	10
97	104	9
35	41	4
96	96	20
103	104	10
94	94	9
69	70	3
75	75	10
109	110	9
110	111	9
107	107	7
100	100	10
59	61	7
41	43	3
36	38	3
22	23	9
99	99	14
46	47	2
48	48	4
98	112	4
22	22	5
60	60	7
64	65	1
108	108	5
72	74	4
45	76	2
58	58	13
29	29	5
64	64	11
98	98	10
21	108	3
54	55	2
36	36	3
100	101	2
31	31	7
103	103	12
95	96	4
24	27	5
104	105	8
44	44	16
86	87	7
49	50	3
65	65	8
76	77	9
76	76	13
55	55	4
34	34	4
52	96	2
85	85	11
71	71	8
33	38	1
69	69	13
108	109	7
52	52	5
49	49	12
99	103	2
72	72	15
96	103	2
77	78	3
87	88	9
61	80	1
68	69	6
86	86	14
105	107	3
21	21	7
56	57	10
78	79	8
104	108	3
52	67	1
75	84	2
43	44	5
87	89	7
25	25	12
47	47	15
111	111	3
53	54	4
71	106	3
55	56	5
88	92	1
84	84	5
38	38	7
60	61	3
102	107	3
24	24	9
20	20	4
113	114	4
55	57	5
75	76	7
60	63	2
31	40	2
48	49	5
61	63	3
19	22	2
80	81	3
74	76	3
93	93	8
42	42	16
59	59	12
66	66	7
29	30	2
97	98	4
74	79	1
89	89	3
62	63	2
85	110	2
92	92	10
28	31	4
90	91	8
79	79	4
70	89	2
67	88	2
42	44	1
87	87	9
88	90	7
64	67	2
50	50	3
97	97	13
81	82	3
90	90	5
72	75	8
54	54	11
36	40	7
111	112	1
79	80	5
23	23	5
95	97	6
107	108	6
33	34	3
21	22	1
61	93	4
44	46	2
60	103	2
30	30	3
67	69	2
89	90	3
74	75	7
20	24	1
71	104	1
68	75	1
70	72	2
103	105	1
72	73	4
62	80	2
85	86	4
26	31	1
28	29	2
33	33	3
110	112	1
106	107	5
30	45	2
35	36	2
65	87	1
98	103	3
68	70	1
105	106	6
112	114	1
65	73	1
70	71	2
67	68	1
103	106	2
42	47	2
94	95	1
92	114	3
84	93	2
37	99	1
88	91	1
70	96	1
99	102	1
63	64	2
38	39	5
61	109	1
92	93	1
115	115	2
74	80	2
65	67	1
27	27	1
52	79	3
53	86	2
95	102	1
19	37	1
96	97	1
61	62	2
35	44	2
83	95	1
35	35	2
89	91	1
82	111	1
88	89	2
86	93	1
66	69	1
72	108	4
25	28	2
85	87	1
61	79	3
37	45	1
32	34	1
68	80	2
71	72	2
107	109	1
84	95	1
46	61	2
40	109	2
26	26	2
58	71	1
39	39	1
65	88	1
31	32	1
35	99	1
71	108	1
