40	51	2
7	7	6
85	85	5
70	70	7
50	51	2
143	143	3
93	95	1
145	145	7
47	48	1
91	91	1
25	25	7
107	132	4
130	130	7
153	156	4
147	154	3
2	12	4
105	105	2
73	73	7
137	150	2
15	52	1
139	139	3
161	161	3
81	86	1
167	167	5
150	150	6
66	93	1
45	46	1
149	149	5
102	113	1
38	38	5
49	49	11
122	126	10
69	69	3
39	52	2
17	17	6
39	51	4
37	37	11
9	9	3
130	131	5
1	1	7
133	146	2
115	121	1
101	102	3
16	44	1
103	104	1
57	77	3
111	111	8
41	42	3
112	149	1
119	119	6
80	103	6
72	72	3
111	147	1
142	142	5
158	158	7
85	87	4
79	79	5
108	108	5
134	135	2
70	104	4
164	164	1
56	56	3
75	75	4
147	148	2
69	97	1
46	91	2
18	18	4
42	42	10
10	10	8
124	124	4
100	105	1
97	97	1
55	55	8
14	15	4
0	22	4
78	79	3
84	85	4
6	6	5
80	83	1
48	53	4
123	123	1
161	164	6
101	104	2
76	76	2
165	165	7
40	40	1
92	92	4
163	163	2
62	62	3
54	54	4
15	15	10
58	87	2
104	116	3
166	166	2
14	14	7
128	141	4
71	72	3
5	49	2
48	49	6
46	46	2
33	34	2
162	162	2
89	91	1
103	107	4
95	95	4
64	64	6
19	19	4
9	10	3
80	87	2
107	108	2
93	93	6
24	24	6
40	72	5
3	3	5
47	47	5
51	51	1
129	131	1
120	121	3
45	45	4
134	134	4
110	110	5
143	168	2
138	138	2
168	168	1
164	167	2
83	83	4
35	35	1
20	20	6
34	34	4
55	56	2
109	110	2
34	75	4
82	82	3
99	100	3
36	36	5
114	114	7
136	137	2
4	5	4
116	140	2
128	135	3
94	95	7
84	86	1
52	52	3
3	27	2
137	137	3
0	0	3
142	166	1
48	48	5
112	112	1
79	117	2
107	107	1
20	21	2
68	69	1
40	47	1
22	22	13
89	90	3
23	57	3
21	26	1
94	94	6
96	123	7
65	65	3
99	115	1
14	50	4
44	44	6
4	6	3
22	24	4
75	94	2
170	170	4
110	111	1
23	89	1
21	24	1
104	113	3
92	94	1
8	27	1
38	41	1
10	11	3
88	97	2
131	164	2
152	152	3
109	109	2
63	63	3
88	88	1
83	84	2
71	99	2
5	5	3
165	167	1
72	100	2
108	110	1
107	112	1
18	72	3
153	155	2
133	133	6
57	57	5
18	47	5
62	87	5
163	164	3
148	151	2
116	149	2
3	38	4
151	153	3
129	152	4
8	11	3
77	78	6
117	123	3
125	125	4
81	82	1
21	21	1
102	104	2
110	150	1
72	74	1
132	132	3
80	158	2
158	160	2
15	16	2
8	10	1
122	122	3
128	162	6
160	160	1
64	97	1
6	25	1
41	71	1
155	159	3
145	146	6
166	167	1
101	103	3
167	170	3
121	127	1
53	53	1
101	101	1
13	13	2
10	39	3
67	67	1
37	38	2
144	144	2
12	12	2
116	118	1
123	129	1
45	53	1
2	2	2
35	37	2
26	26	3
9	21	1
157	157	5
150	151	1
57	74	1
103	103	1
62	84	2
96	100	2
70	85	1
143	144	2
22	23	1
113	113	2
142	165	1
100	103	1
136	136	3
169	170	2
140	140	1
39	39	3
0	26	1
1	65	1
135	135	1
18	75	1
128	138	1
22	57	2
124	129	4
58	58	1
50	50	2
55	69	1
2	10	1
8	8	5
114	116	1
1	2	2
92	93	1
99	99	2
41	41	2
67	98	1
19	24	1
93	94	1
90	90	1
113	114	1
33	33	1
86	86	1
47	50	1
146	146	1
100	100	2
24	56	1
68	68	4
123	160	2
40	45	1
141	141	1
23	88	1
110	146	1
148	148	1
24	91	1
78	78	1
46	48	1
6	13	1
154	161	1
67	97	1
131	131	1
107	110	1
152	159	1
119	157	1
62	63	1
119	126	1
88	89	1
128	128	2
3	37	1
97	100	1
