22	23	5
32	32	25
44	57	6
48	48	12
32	33	8
4	49	3
55	59	2
21	22	4
31	56	1
37	37	22
44	44	28
14	15	8
42	42	18
37	41	7
40	58	4
51	51	24
35	36	5
9	9	18
40	42	6
61	61	19
40	41	9
18	18	3
21	21	4
41	41	21
58	59	9
57	57	13
50	50	23
41	42	3
0	1	2
14	14	1
39	58	2
12	12	4
48	49	18
17	18	5
33	33	30
39	39	19
19	19	18
34	34	17
45	45	23
52	52	16
53	57	1
3	4	15
1	5	2
34	35	9
51	52	9
31	31	26
35	35	26
54	54	9
1	6	2
57	58	6
7	7	14
23	23	9
47	47	19
38	59	7
48	50	3
31	32	6
39	59	2
37	40	7
22	25	3
56	58	2
40	40	25
22	22	4
46	46	13
43	43	20
13	13	13
46	47	4
33	60	3
56	56	18
53	54	4
4	5	3
52	53	4
53	53	8
38	39	6
42	43	10
6	7	4
31	48	1
42	44	1
12	13	1
55	55	8
30	55	3
24	24	2
55	56	8
53	55	8
39	51	3
1	1	27
51	54	2
36	37	3
1	20	4
49	49	24
10	11	8
36	36	17
1	50	5
37	46	1
3	7	1
50	52	4
2	49	2
40	60	2
37	39	5
30	30	12
11	13	1
8	8	8
10	10	10
49	53	2
59	60	1
59	59	10
15	15	4
9	23	2
60	60	8
24	43	4
54	58	4
17	21	4
38	58	1
41	51	2
38	38	11
10	18	1
3	3	9
3	20	1
58	58	8
4	4	2
0	20	3
11	11	8
49	54	2
58	60	6
29	54	2
4	55	1
47	48	2
55	57	2
20	21	7
33	35	3
21	44	1
24	44	4
5	5	10
2	2	8
62	62	12
16	16	4
5	6	3
41	57	1
32	48	1
17	17	7
37	51	1
37	45	2
6	6	7
4	41	1
1	26	1
20	20	3
37	47	4
49	50	2
40	51	3
13	20	2
41	58	3
55	60	1
43	44	2
30	42	3
50	57	1
1	2	5
42	57	2
16	26	2
39	41	2
2	9	3
45	46	3
16	17	4
33	34	1
56	57	2
29	62	3
8	9	6
46	62	1
11	12	3
30	47	2
30	39	1
45	47	4
47	52	1
25	25	4
54	59	2
17	20	2
57	60	1
38	42	1
38	41	2
3	21	1
25	29	2
44	59	1
34	48	1
40	49	1
41	59	3
30	32	3
44	58	2
39	47	1
25	43	1
16	18	1
46	55	2
44	50	2
53	56	1
39	46	1
14	16	1
0	51	1
4	39	1
39	49	1
42	55	1
56	60	3
37	38	1
1	19	1
0	0	1
40	50	1
50	58	2
23	25	2
13	14	1
2	10	1
36	48	2
42	51	1
60	61	1
46	57	1
45	53	1
31	61	2
20	22	1
30	44	2
43	55	1
54	55	2
44	45	1
2	24	1
24	50	1
24	29	1
3	49	1
37	44	1
42	45	3
54	56	1
37	49	1
15	16	1
61	62	1
39	60	1
2	4	1
54	57	1
0	23	1
16	38	2
29	29	2
0	24	1
50	51	3
30	56	1
39	40	1
45	55	1
45	52	1
1	51	1
38	40	1
23	24	1
