38	80	1
110	110	4
66	66	27
44	44	13
17	17	17
88	88	6
25	47	3
129	129	15
28	29	5
33	33	18
84	84	9
3	3	9
57	57	12
39	40	9
99	99	18
113	113	11
22	38	5
79	83	4
5	5	22
77	77	32
87	88	3
4	4	11
11	92	4
18	113	2
25	25	9
59	59	17
81	82	2
24	24	13
30	30	24
3	105	1
9	9	12
109	109	5
14	14	6
21	40	5
55	56	5
34	34	9
2	2	5
13	14	5
25	44	4
80	102	6
114	116	5
27	27	17
20	21	8
29	29	14
97	98	13
96	97	1
112	127	3
127	129	2
111	111	7
106	106	15
82	84	4
13	13	16
23	24	12
45	45	29
26	26	15
42	42	18
92	93	5
49	91	1
67	70	4
19	19	26
112	112	4
2	70	1
63	63	14
11	11	31
63	64	2
62	62	10
12	12	9
22	22	10
120	120	5
98	98	7
47	47	31
64	64	21
6	6	16
9	10	10
92	108	3
118	118	7
44	45	2
32	32	19
110	111	1
36	36	17
126	128	6
81	81	14
79	79	11
21	22	5
39	39	6
80	80	17
97	97	4
46	46	16
85	85	12
119	119	4
70	70	11
68	69	10
125	126	2
55	55	10
133	133	5
30	36	1
108	108	9
47	95	1
42	43	2
96	96	19
28	28	17
67	67	11
101	101	19
47	86	2
47	94	2
93	93	14
103	105	2
107	127	1
31	32	3
115	116	3
7	94	3
107	107	8
75	75	18
60	60	13
70	117	4
76	76	21
48	49	2
87	87	4
115	115	7
91	91	12
45	47	10
29	49	8
27	28	8
48	48	8
38	38	14
59	94	3
41	41	4
122	122	6
11	18	4
23	25	6
10	10	19
89	91	3
69	69	10
6	93	2
68	68	13
8	115	2
18	20	5
12	39	2
89	89	5
0	0	5
81	83	1
36	37	9
100	100	8
124	124	13
43	43	9
99	100	3
20	33	1
82	82	13
104	132	1
102	102	8
39	41	2
15	15	10
16	16	7
36	39	1
46	50	4
94	94	13
71	72	3
112	114	6
62	72	4
130	130	4
29	32	1
109	111	5
117	121	1
7	8	8
130	132	5
40	41	4
65	65	26
88	107	1
27	92	3
21	21	20
8	8	17
80	94	2
62	79	2
35	46	2
102	105	1
125	125	5
14	15	4
20	81	3
22	25	2
131	132	4
80	103	1
8	112	3
85	113	4
103	130	2
20	41	2
71	71	7
18	18	11
28	80	6
14	23	2
86	86	9
117	125	2
92	92	10
132	132	3
44	84	1
91	92	8
128	128	13
77	81	2
31	80	4
40	43	3
5	117	2
110	127	1
35	35	15
74	75	7
35	42	1
27	78	3
44	55	4
36	97	3
72	74	2
31	31	17
126	126	12
19	20	5
44	56	1
84	85	9
19	21	4
103	104	1
64	65	4
65	119	1
45	60	2
74	74	13
112	113	3
83	84	3
84	87	3
48	50	1
104	105	4
22	42	2
43	49	1
26	92	8
21	62	3
38	39	3
51	55	3
26	38	4
35	36	8
83	83	10
83	85	1
10	17	1
61	73	2
70	71	4
26	27	11
62	63	4
0	68	1
40	40	11
36	42	3
78	78	9
103	103	10
29	48	10
13	35	1
95	97	1
7	7	9
113	114	2
130	131	3
50	50	8
3	102	3
97	99	1
46	47	7
37	38	3
8	9	3
17	18	1
20	20	5
98	100	3
116	116	5
26	93	1
8	16	3
114	118	2
58	80	3
117	117	6
5	114	1
56	60	4
61	62	1
75	76	3
109	112	3
58	58	5
73	76	1
36	43	4
67	68	1
61	61	10
23	23	8
95	95	8
106	108	2
124	125	2
77	79	3
37	37	4
96	99	4
27	47	1
43	60	2
4	113	1
126	127	1
30	31	1
98	99	3
11	12	4
104	134	1
121	121	5
11	25	3
12	99	5
59	60	4
28	79	3
21	32	3
90	91	6
58	59	3
33	35	2
73	73	11
16	24	2
68	72	1
62	73	1
132	133	3
13	17	2
15	16	3
69	74	2
8	10	1
24	26	2
56	56	3
15	36	2
58	93	1
39	83	2
59	80	2
72	72	6
90	92	1
24	82	1
83	100	3
30	32	2
3	4	4
29	30	9
120	121	1
90	90	13
12	13	4
81	93	1
41	42	1
109	110	2
14	19	5
81	107	1
11	77	5
45	89	1
8	12	6
30	38	2
34	74	2
34	122	4
7	116	1
104	104	4
90	93	3
103	134	2
25	26	1
80	81	2
7	85	1
3	61	3
123	124	1
5	6	9
20	26	2
36	38	5
133	134	1
2	116	1
26	81	6
49	49	2
1	1	1
15	23	1
16	36	3
115	132	1
90	133	2
38	40	1
22	26	1
33	43	2
123	123	4
86	109	2
24	38	2
10	11	2
46	60	2
21	76	1
25	83	1
131	131	2
93	98	1
94	95	4
26	78	4
84	101	2
8	114	1
70	121	1
43	48	2
37	42	2
40	42	3
79	80	7
7	114	1
114	114	4
128	129	1
7	100	3
16	17	2
28	89	1
105	105	6
96	100	1
11	32	2
126	129	2
68	71	1
54	54	1
3	96	2
4	5	3
33	34	1
88	108	1
50	94	1
12	82	1
11	27	4
113	115	3
29	47	1
46	70	1
86	118	1
46	73	1
117	118	1
11	44	1
18	19	3
14	76	2
76	77	3
100	101	1
93	99	6
91	93	2
34	119	3
116	119	1
21	38	1
81	84	2
21	61	1
24	32	1
128	130	2
134	134	1
5	85	1
89	90	1
93	109	1
78	92	1
13	99	2
20	22	1
66	68	1
83	87	2
89	93	1
73	74	2
121	122	1
34	35	2
28	32	1
22	41	1
111	112	1
45	57	1
1	69	1
21	84	1
6	7	2
107	110	1
11	93	1
93	94	1
95	98	1
22	23	1
85	95	1
67	121	1
8	36	1
90	97	1
8	22	1
10	14	1
20	82	2
3	10	1
91	94	2
34	66	1
37	49	1
82	105	2
29	97	2
88	89	1
41	43	1
18	28	1
61	76	1
28	31	1
55	63	1
17	33	1
39	82	1
45	74	1
95	99	1
27	29	1
107	128	1
89	92	1
11	13	1
51	56	1
32	33	1
27	95	1
45	59	1
6	85	1
118	119	1
31	38	1
36	60	1
