107	110	3
22	50	3
45	45	6
14	35	1
25	25	4
85	105	1
42	42	8
140	141	2
143	145	6
163	165	5
10	11	3
27	28	8
27	27	8
96	96	5
50	50	17
167	167	13
26	26	8
64	65	3
11	13	3
53	110	3
54	54	4
96	98	3
53	53	6
115	115	4
158	160	5
7	33	1
40	40	5
119	119	3
175	176	2
11	11	13
164	164	7
105	113	5
153	154	2
147	148	3
141	141	7
14	14	4
160	166	1
168	168	9
110	111	6
100	106	1
148	173	5
40	42	1
87	108	1
71	79	1
24	24	5
65	65	6
42	44	5
49	144	1
24	25	2
121	122	3
93	96	1
99	100	7
92	92	1
41	41	9
55	83	3
116	144	1
178	178	2
0	0	9
112	112	1
133	133	3
10	10	11
142	142	2
38	38	10
153	167	1
132	132	6
25	28	7
93	93	7
33	67	4
81	81	2
6	22	2
12	13	8
159	161	1
19	19	12
37	37	12
15	22	3
3	30	2
111	111	4
35	36	1
34	76	3
7	10	1
165	167	2
23	23	12
121	123	1
66	67	2
34	34	5
121	134	7
17	18	2
77	77	4
36	42	2
28	29	6
62	62	3
126	167	1
119	170	2
29	30	6
166	166	9
113	113	4
6	13	4
43	43	3
21	21	1
129	130	5
160	160	2
129	129	11
5	5	16
57	62	2
146	146	3
64	64	5
96	97	6
123	170	3
177	177	5
120	146	2
114	173	1
52	53	4
152	152	4
33	33	12
101	102	3
159	159	5
5	12	3
61	65	2
145	145	12
33	34	6
114	114	2
138	163	3
3	15	1
137	137	1
39	39	14
19	21	4
27	31	1
116	117	5
61	61	8
32	32	9
38	43	3
67	146	2
120	156	1
50	51	5
3	43	1
28	28	2
15	66	4
149	172	1
103	104	3
30	31	2
30	30	10
116	174	1
105	105	5
32	33	1
146	148	1
4	5	4
109	109	3
9	135	1
6	6	10
39	148	2
15	15	2
8	33	1
77	78	5
7	7	5
130	133	1
42	45	2
173	179	4
166	167	3
3	7	3
29	86	4
22	22	8
128	128	3
61	100	6
134	153	1
64	91	2
26	27	6
112	113	1
127	127	4
1	14	2
39	40	7
154	154	4
135	135	4
138	138	6
80	94	3
153	177	1
4	4	5
27	64	1
147	150	1
2	2	4
28	90	4
24	26	2
16	41	2
151	151	2
18	19	1
126	134	2
25	26	4
169	171	1
112	150	1
2	9	3
173	174	9
23	26	2
179	179	8
5	10	3
74	77	1
29	29	5
102	102	3
0	1	2
61	101	2
92	93	4
170	170	5
72	132	4
123	169	2
83	86	3
9	12	3
165	165	10
3	23	1
84	84	4
111	153	2
166	169	1
16	16	4
161	161	6
133	134	6
38	39	7
41	42	2
126	126	8
106	106	2
168	177	1
68	95	2
134	134	10
140	167	1
123	123	3
93	94	1
82	85	3
131	136	3
71	142	1
150	151	1
102	104	1
103	106	1
161	162	4
85	87	4
31	31	6
118	172	4
8	9	3
102	106	3
31	36	1
25	27	4
143	143	2
55	80	1
174	174	5
0	38	2
18	18	6
147	147	4
120	170	3
142	143	2
176	176	5
13	14	4
11	19	1
62	144	2
11	37	1
18	27	2
17	17	4
149	149	4
68	77	4
66	73	1
68	108	1
152	161	1
63	65	1
123	125	2
3	37	4
105	106	2
2	8	1
75	75	3
34	35	3
163	168	3
63	67	2
52	52	3
146	151	2
165	166	3
8	10	2
26	28	4
158	158	4
80	80	4
50	52	2
23	24	3
34	39	3
98	126	3
118	118	6
19	20	2
75	79	2
9	9	10
11	20	3
88	88	3
88	103	1
135	160	2
130	130	6
44	44	7
83	89	1
151	152	1
72	72	1
135	137	2
21	22	4
89	176	1
50	54	4
141	167	1
172	172	1
11	45	3
157	169	1
113	158	2
180	180	2
63	63	2
120	121	2
156	156	5
140	140	4
18	114	1
155	155	2
7	12	3
52	107	1
98	100	2
115	174	1
143	147	1
120	120	3
162	162	2
144	144	7
110	110	2
66	69	1
156	158	1
12	12	7
115	173	1
56	93	1
173	173	1
131	132	2
15	16	1
150	150	3
13	13	13
107	107	3
10	23	5
39	41	3
51	51	2
22	23	3
172	173	6
37	39	1
83	85	2
10	20	3
74	74	2
151	156	1
108	108	2
60	60	3
58	58	3
4	23	1
56	56	3
1	1	5
39	57	2
2	15	3
73	73	2
88	89	6
86	88	2
145	146	2
172	175	2
103	113	2
166	168	2
2	38	2
5	14	2
88	90	1
59	59	8
71	71	4
128	155	2
136	153	2
154	155	2
132	133	1
156	157	1
90	90	6
83	109	1
86	116	1
156	168	1
171	171	5
82	82	6
124	124	2
22	24	5
56	99	2
89	89	4
16	22	1
23	27	1
104	105	1
158	162	1
20	109	3
1	10	3
163	163	3
86	87	3
49	49	1
61	63	1
116	116	3
104	104	5
53	56	6
176	179	2
107	108	3
129	153	1
13	26	5
169	169	4
20	30	4
157	157	2
176	178	2
16	38	1
56	67	1
58	64	2
160	161	1
13	31	2
88	97	2
110	158	2
9	13	1
162	165	4
52	106	1
126	128	1
11	18	2
107	109	1
139	139	2
156	162	2
173	180	1
87	99	1
154	156	2
4	10	1
11	12	1
95	95	2
99	99	2
36	36	2
117	117	4
1	2	1
3	116	2
62	122	2
84	86	2
4	15	1
16	17	2
120	169	3
126	132	3
59	92	1
59	100	1
20	20	1
13	90	1
128	170	1
7	41	2
111	112	1
125	126	1
63	84	1
58	81	2
137	138	1
49	50	2
2	5	1
16	34	1
136	136	1
4	135	2
35	64	1
112	174	2
71	78	1
14	90	2
65	144	2
20	44	1
1	6	2
61	104	1
62	85	2
131	131	3
21	43	2
18	84	1
5	8	2
151	167	1
163	164	1
8	22	2
76	80	1
100	100	2
121	155	1
171	179	1
19	22	3
23	25	1
6	9	1
3	22	1
123	147	2
41	49	1
19	29	2
72	135	1
127	128	2
35	35	2
18	21	1
114	115	1
81	82	2
78	78	1
148	148	3
53	112	1
152	177	1
22	56	3
144	145	1
24	163	1
164	165	1
1	39	2
43	44	1
167	169	3
14	22	1
130	131	2
134	137	1
104	106	1
124	169	1
67	68	1
56	57	1
103	103	1
97	98	1
12	18	1
8	11	1
0	28	1
126	170	1
141	163	1
121	147	1
171	172	1
51	63	1
9	10	1
128	129	1
154	167	1
153	153	1
177	179	2
138	140	2
42	43	1
83	99	2
3	67	1
112	116	1
142	145	1
21	30	2
3	3	1
76	90	1
29	85	1
10	45	1
9	11	1
174	176	1
83	83	1
2	7	1
35	62	1
3	9	2
6	7	1
123	124	1
95	97	1
2	45	1
54	55	1
3	40	1
132	140	1
36	39	1
40	41	1
4	40	1
99	101	1
92	96	1
177	178	1
101	101	1
31	66	1
35	57	1
55	55	1
80	126	1
36	57	1
168	169	1
65	146	1
163	166	1
