41	169	2
56	56	9
66	66	6
131	131	2
106	106	8
84	106	1
87	88	5
100	100	11
135	136	3
37	38	3
74	74	6
20	21	1
17	18	13
64	65	3
135	165	3
92	94	11
18	19	5
33	135	2
22	22	8
37	41	2
73	91	1
4	4	6
40	40	5
19	19	6
114	114	6
145	145	5
99	127	3
148	148	2
107	108	2
14	41	4
14	18	1
133	134	5
129	129	9
57	57	6
16	46	4
78	78	5
7	7	5
12	14	5
152	152	4
83	83	12
85	105	1
20	20	2
112	113	10
86	112	1
160	160	11
84	84	5
53	55	6
94	94	9
53	54	5
108	109	6
67	67	5
48	49	2
80	80	12
54	158	3
49	49	7
57	167	3
74	75	6
71	84	2
63	116	2
119	125	2
51	51	8
65	67	2
43	43	5
26	26	11
120	122	3
90	91	4
34	34	9
151	152	1
45	46	7
98	98	15
22	53	4
125	125	4
48	48	7
26	132	1
104	104	8
86	87	3
73	73	2
97	98	4
154	162	2
124	153	1
19	53	4
142	142	6
89	95	2
123	123	3
126	129	3
150	150	6
9	9	14
157	158	2
87	87	14
83	128	4
56	57	2
46	89	1
41	41	8
137	137	3
92	92	8
145	146	4
93	94	8
120	121	7
162	162	3
68	70	4
95	96	2
89	90	2
156	156	2
98	126	2
72	72	4
34	165	2
71	73	1
153	153	3
112	117	3
62	62	15
72	87	1
45	90	7
73	75	4
89	89	9
97	99	5
10	10	10
63	63	9
82	82	4
164	167	5
118	119	5
149	149	2
124	124	7
102	102	5
70	70	5
49	52	2
125	153	1
24	24	7
112	112	5
33	148	6
130	130	4
13	20	6
37	42	3
92	95	13
147	163	1
137	138	4
116	116	7
54	55	2
3	70	2
65	65	7
111	112	2
119	121	4
164	164	8
39	44	4
138	138	7
99	99	3
82	113	1
157	160	3
46	90	4
108	149	4
128	128	3
38	41	3
123	155	1
76	80	1
87	96	3
154	154	8
122	122	7
70	72	6
98	122	3
166	166	1
42	134	3
115	115	16
117	117	11
85	99	3
5	90	2
3	3	11
15	20	2
78	167	7
54	56	5
117	118	2
95	128	2
2	2	9
150	151	3
117	123	1
88	90	6
165	165	6
36	36	8
8	8	5
110	111	3
81	121	3
111	129	1
42	42	11
18	18	2
68	69	5
80	81	5
13	13	7
35	35	14
155	155	5
27	27	8
28	28	9
64	69	5
141	166	1
118	118	6
113	113	3
147	165	2
64	64	5
4	94	2
103	103	6
86	86	2
44	45	2
25	26	2
7	8	3
81	113	4
66	85	1
114	119	1
110	110	6
88	118	1
53	53	7
52	52	4
81	82	6
34	35	3
148	164	3
69	69	6
75	75	5
169	169	8
105	106	3
82	121	2
161	161	4
55	55	8
70	83	2
47	47	2
5	5	5
39	40	7
121	121	3
25	25	7
134	134	6
134	135	5
155	156	7
72	73	8
1	1	7
96	96	2
66	123	4
124	125	6
22	96	2
77	82	1
58	62	1
21	21	2
93	149	2
39	149	1
36	39	1
77	79	1
151	161	3
4	5	9
113	114	7
4	45	2
146	147	1
47	115	2
146	161	2
14	166	1
108	108	17
90	90	11
119	119	3
15	15	2
71	71	4
79	79	7
46	46	6
35	36	2
97	97	7
38	38	4
14	15	4
36	37	5
150	161	5
17	17	9
39	107	2
100	106	5
139	142	1
54	54	5
140	140	6
109	120	1
101	160	3
121	122	3
13	15	1
144	144	3
133	133	7
81	112	1
49	53	1
136	136	5
93	93	3
109	109	3
143	144	4
16	19	2
37	37	7
148	153	1
110	113	2
13	41	6
108	110	3
11	17	3
123	156	1
88	89	2
81	81	5
167	167	1
90	116	2
111	111	11
38	138	2
1	2	4
69	70	3
55	57	1
14	14	7
23	23	3
24	26	2
81	128	1
101	101	5
6	7	1
84	105	1
160	163	9
160	164	2
151	151	14
154	161	2
62	63	4
161	163	1
141	143	1
89	118	2
95	95	2
58	58	2
16	16	3
88	88	3
12	18	2
146	146	5
11	11	6
27	41	2
76	78	3
98	99	6
66	102	2
73	74	6
91	94	3
133	160	3
162	163	4
67	98	1
64	71	2
122	123	1
76	76	5
146	163	1
76	77	2
15	90	1
41	88	2
50	51	1
65	69	2
119	120	1
38	55	3
71	72	2
97	123	3
167	168	2
41	170	1
44	52	2
50	50	12
131	132	1
111	127	2
70	114	2
40	57	1
122	154	1
143	143	2
1	52	1
71	113	1
128	129	2
73	119	2
84	155	1
85	86	4
0	1	4
107	117	1
109	124	2
12	105	2
159	159	3
159	160	1
71	85	2
81	119	1
80	129	3
16	116	1
70	71	1
3	44	1
135	145	1
156	163	1
10	11	3
89	127	2
85	85	1
51	53	1
68	106	1
57	96	1
84	85	2
19	20	1
7	49	1
68	68	2
11	83	1
11	36	1
18	39	3
11	74	1
2	19	1
1	49	1
39	39	3
147	148	5
20	91	1
144	145	1
21	22	1
33	74	1
67	99	1
18	45	1
63	64	1
114	115	2
161	162	1
92	100	1
17	91	3
14	167	1
102	104	1
50	58	1
16	17	2
111	113	2
33	33	1
170	170	2
77	77	3
117	119	2
69	123	3
104	105	2
115	119	2
14	35	1
103	104	6
39	148	1
150	152	1
101	102	4
63	103	1
25	55	1
27	89	2
88	96	2
55	89	1
139	139	3
150	153	2
62	80	2
126	128	2
118	154	1
148	149	1
6	6	5
168	168	1
33	170	1
147	164	1
132	162	1
26	44	1
101	115	1
163	163	1
91	91	4
164	165	2
155	157	1
0	19	1
10	16	2
8	9	1
133	158	2
158	159	2
9	10	3
56	90	1
38	39	2
5	37	1
48	114	2
55	120	1
0	8	1
77	78	1
16	18	2
85	123	1
121	131	1
12	12	3
135	135	1
169	170	1
24	25	1
86	115	2
19	22	3
17	133	2
106	128	1
57	62	1
28	52	2
44	44	2
94	95	3
6	91	1
157	157	2
58	64	1
130	152	3
86	90	1
41	145	2
55	56	2
21	91	1
144	158	1
149	151	1
120	131	1
49	57	1
91	119	2
124	156	2
72	83	2
105	105	5
17	95	1
107	107	2
14	40	1
110	119	1
108	160	1
123	130	1
66	68	1
104	107	1
62	73	1
37	53	1
66	69	1
158	158	1
27	88	1
0	0	1
68	71	1
21	170	1
35	44	1
78	82	1
21	53	1
4	57	2
124	157	2
45	49	1
15	16	1
33	145	3
120	120	1
23	58	1
127	127	1
74	117	1
96	97	1
21	169	1
147	147	1
11	85	1
126	126	1
17	24	1
7	13	1
19	166	1
135	142	1
54	91	1
69	105	1
12	15	1
78	79	1
92	93	1
131	152	1
24	54	1
75	76	1
44	90	1
40	44	1
70	81	1
96	99	1
12	106	1
