102	102	29
110	117	3
77	93	2
32	32	23
86	87	12
121	122	5
22	28	2
2	5	2
96	96	17
124	124	11
163	163	16
84	84	12
27	27	25
8	8	29
72	72	23
134	134	27
93	93	53
133	133	25
22	30	4
65	73	7
54	54	19
99	115	2
58	58	10
132	132	27
141	142	4
11	15	5
123	123	13
131	132	4
0	1	16
4	4	20
3	4	14
30	30	12
83	83	20
178	178	4
80	119	5
160	162	8
94	142	1
70	134	6
15	15	32
29	35	3
51	77	1
77	79	3
41	41	9
18	67	1
126	163	1
177	178	5
137	137	7
147	147	16
30	31	8
79	80	11
24	24	25
104	104	8
14	14	40
111	111	26
82	82	21
101	102	8
105	105	16
140	140	12
27	28	9
121	121	8
169	170	7
11	11	25
117	117	15
10	11	14
59	60	4
75	76	5
76	77	4
10	10	23
109	109	15
9	11	2
166	167	6
93	96	2
16	16	29
10	12	6
9	9	29
95	95	33
38	39	1
62	62	20
23	24	7
20	27	3
153	154	3
176	176	11
85	85	10
110	111	10
176	177	2
160	160	9
61	61	7
94	94	32
115	115	13
78	78	18
26	28	2
64	65	10
139	139	10
81	81	13
86	86	17
142	172	4
122	122	8
142	142	17
153	153	17
5	5	27
56	56	11
43	43	11
36	36	24
110	110	25
151	151	15
22	24	2
150	150	23
5	6	15
177	177	12
7	8	8
105	106	5
162	162	6
104	169	2
18	18	11
33	45	1
59	59	3
88	100	5
26	26	15
154	165	3
1	1	14
120	120	10
145	145	4
120	121	5
39	39	13
146	147	2
37	37	26
143	158	4
170	171	6
23	23	30
113	113	10
28	28	16
1	2	5
2	2	12
152	152	8
94	96	4
90	94	2
71	93	4
16	17	7
112	112	18
92	92	24
45	46	4
165	165	13
126	126	5
128	129	8
74	76	6
136	136	4
91	91	14
154	154	9
125	156	5
174	174	11
62	63	5
119	119	13
95	118	2
152	153	4
21	21	20
42	42	11
103	103	17
39	40	6
147	148	8
65	65	10
111	112	6
80	80	19
29	29	11
60	60	31
179	179	7
25	25	22
151	155	2
140	145	1
155	156	4
138	138	13
52	53	10
81	130	2
106	106	11
116	117	12
22	23	8
169	169	13
6	6	30
98	114	1
18	19	5
78	79	9
139	141	1
2	9	2
82	83	2
140	150	1
113	114	5
148	149	6
89	100	1
31	33	3
40	40	20
151	154	2
39	41	3
156	157	6
89	89	15
63	63	14
155	155	6
107	107	12
17	17	12
91	94	3
36	38	1
4	5	2
12	12	18
35	43	1
33	36	4
36	40	2
97	97	11
1	38	1
175	175	7
75	75	7
22	22	20
90	90	6
53	53	5
92	94	14
3	10	2
132	133	2
66	66	14
164	164	14
20	20	10
51	97	3
108	108	10
26	27	13
80	81	18
134	142	3
130	130	7
74	74	6
7	7	23
13	13	26
149	158	2
9	10	14
42	43	6
8	9	23
81	101	2
99	99	15
124	125	4
167	167	13
81	82	3
172	172	11
25	27	5
89	90	5
168	168	13
95	102	3
54	71	4
35	35	17
173	173	2
145	157	3
99	100	6
2	36	4
41	42	13
93	176	6
34	34	3
33	33	29
157	158	4
96	98	7
67	68	2
161	162	12
68	81	2
31	31	12
84	85	9
115	129	1
13	14	11
38	38	10
116	124	2
33	34	4
77	78	5
28	33	5
64	64	9
28	30	5
14	35	1
14	21	3
14	41	7
51	51	7
12	13	4
2	7	7
143	143	8
0	0	16
11	12	4
145	146	4
71	72	3
67	67	4
166	169	4
10	15	4
0	8	2
149	149	8
83	85	5
123	124	8
127	128	8
57	59	3
92	111	2
15	22	2
170	170	20
111	169	2
112	150	2
17	40	3
163	164	6
102	167	4
6	7	11
88	88	8
171	171	2
6	8	4
125	125	14
150	165	1
175	176	3
101	101	7
36	149	1
166	166	22
119	120	5
82	85	3
36	41	1
57	57	17
52	52	7
130	131	10
42	107	1
103	167	3
17	18	9
67	81	3
148	161	5
117	121	5
20	22	3
53	54	5
168	169	3
158	158	18
58	59	1
95	112	3
98	98	6
14	17	3
3	3	7
3	22	4
148	148	17
162	163	2
29	32	2
150	158	3
40	42	4
36	37	3
24	25	9
40	44	5
5	143	1
159	162	2
128	128	10
159	159	8
46	91	2
125	126	8
2	3	5
151	153	4
70	70	6
109	110	3
122	124	2
74	81	3
158	159	11
114	114	13
161	161	15
65	99	3
55	92	2
79	79	9
113	121	1
96	97	3
7	9	1
2	23	2
22	68	1
87	110	3
172	173	2
149	159	1
19	19	8
114	163	3
122	123	4
129	129	5
26	33	3
73	75	5
29	31	3
107	108	6
150	157	2
136	137	3
44	44	13
16	24	1
46	53	1
153	155	1
50	50	12
73	74	7
104	106	1
61	62	6
128	162	1
15	16	5
17	19	2
98	100	6
46	46	4
40	41	9
16	33	2
154	156	1
127	172	3
141	143	6
118	165	1
114	147	1
155	165	2
71	71	13
55	58	1
141	141	10
144	146	4
123	125	8
23	25	5
163	165	2
135	135	8
87	90	1
25	26	8
70	71	3
116	116	7
92	109	1
87	87	19
50	143	2
100	115	1
119	121	1
113	168	2
112	117	3
77	80	4
100	100	4
157	157	13
18	20	5
26	30	1
56	57	1
141	145	2
81	85	1
71	83	1
114	115	3
73	73	12
127	127	8
93	94	3
6	15	2
31	35	2
53	55	2
164	169	3
149	169	1
32	33	6
147	176	1
22	40	2
76	76	3
31	37	3
85	165	3
30	97	4
156	156	4
65	74	2
35	36	4
5	158	7
63	64	1
51	89	2
118	119	4
142	145	3
91	101	2
83	86	3
115	116	5
106	107	8
91	92	5
7	15	1
156	158	4
38	50	4
11	85	1
9	15	4
127	131	3
51	63	2
22	29	1
43	44	6
115	121	1
98	101	4
55	55	1
44	45	5
75	80	1
13	19	1
113	116	1
84	86	6
149	150	1
113	160	1
129	130	6
34	39	1
38	43	2
6	14	2
118	118	3
31	32	6
125	171	1
88	99	2
100	101	4
173	175	1
67	90	2
68	68	6
60	61	1
12	18	2
120	128	2
24	28	4
49	67	5
150	168	1
1	24	1
2	27	1
164	165	4
133	134	4
131	146	2
33	35	2
36	148	1
112	124	1
152	154	1
39	43	2
129	168	2
77	123	1
13	17	1
61	89	2
6	10	1
167	168	2
54	55	2
134	135	3
75	81	1
144	144	4
20	21	4
71	76	3
103	157	2
50	51	5
103	104	4
102	114	3
110	112	2
106	110	2
65	66	4
22	31	4
95	137	2
30	53	2
112	168	3
36	59	2
152	155	3
108	109	2
1	28	3
52	82	1
31	120	1
129	131	1
3	8	2
74	75	3
154	167	3
149	178	2
38	41	2
7	14	1
97	98	2
134	137	2
126	164	1
51	85	1
61	99	2
2	6	1
150	156	2
4	9	2
42	105	1
117	118	2
28	29	6
33	161	2
76	100	3
94	95	3
28	31	1
149	153	3
75	79	1
35	111	1
131	167	1
24	26	3
41	68	3
125	164	2
150	153	1
107	109	2
19	20	3
159	163	3
80	101	1
109	119	1
155	174	2
155	162	1
8	41	3
171	172	1
43	45	1
154	155	4
165	166	5
68	70	2
63	65	1
57	60	1
38	72	3
41	43	1
108	171	1
126	127	2
104	105	2
144	145	3
37	38	3
131	131	8
137	140	1
171	175	1
160	161	1
85	86	1
83	84	2
103	105	1
159	160	1
151	157	4
135	136	1
53	71	1
7	61	1
37	42	2
84	143	1
125	144	1
105	118	2
67	89	2
105	107	1
92	101	1
8	11	1
127	154	1
118	129	1
110	113	1
178	179	4
164	174	3
88	89	1
101	109	1
151	152	4
102	103	2
92	93	1
71	86	1
43	85	1
138	141	1
51	143	1
32	34	1
125	146	1
77	108	2
10	23	2
45	45	5
29	33	1
1	4	1
28	32	1
11	16	3
21	22	1
101	115	2
8	10	1
111	168	1
62	68	1
71	90	1
131	145	2
128	173	1
98	99	1
140	141	1
130	169	1
147	161	1
95	96	1
151	165	1
8	68	1
28	52	1
139	140	1
90	95	1
87	166	2
137	143	1
122	126	1
87	88	3
30	52	2
139	154	1
104	117	1
32	35	1
92	102	1
10	38	1
80	83	2
34	76	1
122	172	1
137	138	2
100	103	1
142	159	1
142	143	1
103	118	1
61	63	1
87	89	1
99	119	1
125	130	1
34	35	1
132	146	1
31	38	1
13	16	1
65	70	2
114	117	1
21	30	1
151	172	1
151	160	1
15	21	1
80	96	2
93	95	1
86	88	1
87	107	1
113	115	1
95	172	1
167	171	1
64	72	1
81	131	1
12	20	1
119	128	1
8	13	1
103	117	1
