12	12	12
17	17	7
160	160	12
28	28	6
148	148	6
121	121	3
95	95	6
8	8	10
2	42	4
75	75	5
138	138	9
9	9	12
72	100	6
123	123	11
3	3	10
24	25	4
17	18	8
80	89	7
157	160	4
35	35	9
67	96	1
43	44	9
43	56	3
31	43	2
36	36	12
41	43	6
155	155	9
139	139	12
58	124	2
160	161	6
122	176	3
73	73	6
76	96	3
81	82	3
89	140	2
13	45	1
105	105	7
89	123	3
166	167	1
81	81	6
15	15	5
146	178	2
92	108	3
22	25	3
133	133	8
101	157	2
13	13	8
178	178	5
114	114	12
166	166	6
61	61	8
7	7	10
102	103	5
71	107	4
22	42	1
42	43	1
27	28	2
25	25	7
114	145	6
34	34	4
167	167	12
91	92	8
91	93	2
28	33	3
10	10	6
2	11	3
83	83	2
151	151	4
76	76	17
44	45	2
56	123	5
170	170	6
23	23	19
9	10	3
74	74	8
14	14	12
134	148	4
113	113	6
29	38	4
0	1	4
72	99	5
4	5	5
112	112	3
29	29	14
3	26	2
5	5	15
57	57	9
134	153	4
15	38	2
91	91	11
43	65	1
153	154	7
127	127	14
37	37	16
72	126	3
18	18	6
41	41	22
84	96	3
44	44	14
52	52	5
42	42	7
82	82	1
2	2	17
26	26	8
102	108	5
75	154	1
37	38	2
110	111	3
55	56	2
115	115	6
4	4	8
54	150	7
3	9	4
22	24	3
117	157	2
0	0	9
173	173	4
37	121	2
126	126	1
11	15	5
157	157	2
18	20	6
30	30	4
7	8	5
57	61	2
116	116	5
124	124	4
130	132	1
50	50	12
125	125	7
124	150	4
71	71	4
42	45	4
143	143	8
44	66	3
65	127	2
53	53	7
39	39	4
9	26	7
39	41	1
130	135	2
33	35	1
152	152	2
101	102	3
25	26	5
141	141	2
58	58	3
149	149	8
102	102	4
142	142	10
147	148	4
171	171	4
51	67	3
163	165	4
111	111	8
35	115	4
137	144	3
8	9	2
11	31	1
158	159	4
165	166	1
38	38	8
113	159	4
58	76	2
86	86	7
66	67	1
25	39	5
131	131	4
2	4	3
62	63	2
37	39	4
50	51	1
84	87	3
40	40	10
159	159	5
163	169	2
7	127	4
51	52	5
143	144	7
146	148	1
66	165	5
27	27	14
152	158	1
89	89	5
19	19	15
33	39	1
64	64	1
16	17	8
156	157	1
156	156	5
149	150	1
169	169	6
92	94	2
1	18	2
45	45	6
155	165	1
84	85	2
131	170	6
145	145	4
94	94	2
11	35	2
132	132	7
110	110	5
78	78	6
11	34	1
32	32	20
5	14	1
43	43	5
106	123	2
5	6	6
20	20	8
49	49	2
73	161	1
16	16	13
142	175	2
2	15	5
3	4	9
172	172	11
131	163	2
140	140	1
88	88	5
72	161	2
115	156	3
8	10	4
24	24	17
22	22	4
169	170	1
51	51	1
154	180	1
96	96	6
115	144	2
73	94	3
33	33	10
55	150	4
158	158	2
123	150	1
60	127	1
120	120	13
3	10	2
135	151	1
29	30	1
134	138	2
52	53	2
20	23	3
163	163	2
76	77	3
2	3	9
41	111	1
36	37	5
130	130	2
88	89	9
77	77	3
78	79	4
9	55	2
113	153	3
150	174	1
165	165	1
35	40	2
54	54	6
19	20	6
125	126	2
114	115	1
31	31	6
119	121	2
34	36	2
101	101	3
51	62	2
155	160	3
49	73	2
55	55	3
121	122	1
3	8	4
74	127	4
171	172	3
107	173	5
21	21	2
26	30	2
90	145	1
152	166	2
150	150	3
62	62	2
32	38	1
100	178	3
42	102	1
135	135	3
71	91	2
174	174	1
169	171	3
19	31	1
179	179	2
115	118	3
63	129	2
9	19	4
155	157	2
99	100	1
105	152	1
54	55	3
115	127	1
103	162	2
85	85	5
26	27	8
154	178	2
9	41	3
97	97	2
12	33	4
63	155	4
49	72	2
122	123	2
66	66	7
108	108	6
118	119	1
103	103	5
60	61	1
154	154	1
87	89	2
129	129	4
15	29	1
77	132	1
161	171	3
52	89	2
55	128	3
32	40	1
19	46	1
98	99	2
1	1	4
31	136	1
8	19	1
12	13	2
79	94	1
49	63	2
11	30	3
61	65	2
119	136	1
15	16	4
147	147	5
8	25	1
161	161	4
36	151	2
10	11	2
66	152	3
153	153	3
82	145	2
61	72	2
117	117	1
61	143	2
1	4	1
55	130	2
107	108	1
10	12	4
100	111	3
44	65	1
80	158	1
110	176	1
9	44	2
136	136	2
176	179	2
22	23	2
175	175	3
121	176	1
80	157	2
104	106	1
34	128	2
103	104	2
39	141	2
109	116	1
100	100	1
135	150	1
163	168	1
10	17	2
130	136	1
86	88	3
71	72	2
82	87	2
59	59	2
82	98	1
56	57	4
114	157	1
134	134	5
127	136	1
79	79	4
177	178	1
163	170	1
93	93	5
40	41	3
64	153	2
67	67	3
15	31	1
112	161	1
144	144	3
163	176	1
62	97	1
103	152	1
80	81	2
15	19	2
14	30	2
80	104	2
1	9	1
172	173	3
32	33	2
86	97	1
9	14	2
31	123	1
114	156	1
166	168	1
75	81	1
11	11	5
122	122	2
13	14	1
150	151	2
43	45	3
83	85	3
7	62	1
132	160	2
79	80	2
129	153	3
160	168	1
112	113	2
109	172	1
104	165	1
34	119	1
163	164	1
68	140	1
19	21	2
8	28	1
56	56	1
20	22	2
137	138	1
106	106	1
31	38	2
124	125	1
1	2	4
105	106	1
122	136	2
131	132	1
39	40	3
36	40	1
176	176	3
162	162	1
6	15	3
128	128	1
6	6	2
56	58	4
111	116	1
63	161	1
84	152	2
68	174	1
16	39	1
126	131	1
60	60	1
4	9	2
41	44	1
154	157	2
11	12	1
129	151	1
151	155	1
5	18	1
72	131	1
117	129	1
77	79	1
53	54	1
116	117	2
164	164	2
41	42	1
114	128	1
64	65	1
19	22	1
88	179	1
86	89	1
4	7	1
49	62	1
129	152	1
118	118	1
115	140	2
2	131	2
11	44	2
9	24	2
21	26	1
130	175	1
10	41	1
42	110	1
49	178	1
72	178	2
68	68	2
40	141	1
23	26	1
13	35	1
8	129	2
14	15	1
32	36	1
20	21	1
34	39	1
116	118	1
87	87	1
155	156	1
65	99	1
22	26	1
65	137	1
126	140	1
20	25	1
10	16	1
11	13	1
59	60	1
130	153	1
104	104	1
