42	42	62
84	85	10
113	114	15
68	72	6
126	127	35
75	130	5
131	131	48
23	99	5
119	124	7
65	65	66
13	13	50
57	57	61
80	88	2
89	89	42
22	22	34
48	48	129
15	15	59
41	42	26
83	83	57
80	80	47
95	95	58
46	47	40
59	59	39
116	117	15
105	106	11
23	24	12
81	81	66
10	10	46
114	114	29
54	54	106
75	75	41
51	53	5
32	32	56
41	64	2
42	123	3
83	86	5
37	38	12
76	83	2
5	5	50
127	127	57
106	106	45
69	120	2
92	112	2
114	115	8
3	20	2
100	100	46
104	104	45
44	68	3
70	71	38
77	77	68
62	62	42
129	130	25
126	126	43
97	104	2
83	84	36
0	0	56
55	60	7
21	65	3
27	28	4
84	97	2
43	43	61
94	94	38
43	44	22
57	58	9
67	68	33
56	56	64
0	26	6
55	81	3
102	103	32
113	113	44
67	76	1
48	49	23
47	47	88
69	69	40
50	50	81
62	63	23
99	99	55
69	71	6
103	107	5
41	55	11
46	60	1
76	107	1
91	92	18
92	92	60
89	92	6
132	132	34
12	13	9
57	125	6
79	81	11
123	123	45
53	53	69
107	107	39
87	87	30
33	33	46
41	41	75
68	69	3
57	122	1
63	64	8
29	39	3
125	125	49
90	90	49
107	109	14
28	28	46
96	98	5
96	118	1
111	111	57
39	39	59
87	89	4
99	101	15
2	8	5
30	30	56
71	71	84
128	128	37
1	7	1
27	27	42
116	116	58
47	48	39
105	105	63
104	106	4
94	96	4
93	96	8
8	10	6
23	33	8
54	81	1
63	63	64
24	24	46
108	108	47
58	58	43
124	129	6
79	80	17
114	118	4
2	5	5
78	79	13
44	44	81
110	110	46
14	14	42
52	53	19
109	109	49
121	121	49
17	17	52
13	26	4
89	90	16
100	102	5
62	127	6
49	49	111
58	66	3
114	128	1
112	131	6
19	21	7
130	130	37
114	117	2
50	56	3
96	106	2
107	108	16
74	74	53
39	40	30
118	120	5
103	103	57
52	52	107
6	6	54
19	19	36
44	45	34
112	112	71
71	105	2
25	25	39
82	88	2
55	63	10
114	116	7
97	98	35
55	55	72
129	129	42
61	107	5
130	131	19
133	133	22
129	131	3
77	78	32
67	67	70
3	3	54
4	4	48
90	91	9
122	122	45
98	99	13
0	54	1
86	96	2
46	46	68
109	110	15
125	126	8
8	8	25
111	131	6
14	76	3
85	86	28
64	85	1
19	20	17
2	2	50
11	12	16
27	44	2
82	82	49
70	70	54
33	34	15
21	21	39
1	126	3
108	119	11
39	89	3
21	22	19
74	76	4
96	96	49
91	91	50
76	76	55
4	114	4
98	98	25
8	9	26
15	79	2
25	49	2
1	1	38
9	9	51
122	131	2
45	48	10
29	29	56
101	101	37
66	68	4
76	131	1
12	60	2
118	118	35
9	10	6
65	66	31
99	100	16
32	105	2
124	131	2
9	11	9
14	15	14
39	43	5
45	45	67
126	130	11
23	77	3
25	26	20
16	22	8
45	55	2
58	62	12
87	88	28
60	103	6
93	93	48
80	84	3
107	126	5
82	83	14
62	75	7
85	85	32
51	52	26
7	7	52
76	77	14
10	16	4
6	9	1
80	81	20
7	101	5
15	17	3
16	17	21
94	113	4
27	84	2
66	73	11
71	85	1
23	23	27
84	84	34
42	64	1
29	32	4
47	56	5
74	86	8
29	40	2
28	39	1
3	118	7
86	88	14
31	31	32
28	119	4
13	42	4
3	85	4
40	40	74
79	79	49
60	104	9
44	46	3
60	61	26
72	74	11
2	3	28
115	118	2
12	125	3
51	51	58
74	133	6
66	77	10
78	78	36
20	29	4
20	21	23
22	28	2
11	11	29
61	61	35
2	4	12
66	66	42
25	27	4
3	111	6
70	75	4
91	95	6
49	50	11
7	11	5
40	101	6
95	99	3
24	30	3
81	82	14
121	133	4
58	59	27
105	132	2
4	34	3
104	105	28
71	78	3
41	115	3
42	43	15
3	5	10
22	23	20
45	50	3
100	104	8
10	11	30
3	119	2
88	88	42
116	126	4
31	32	16
97	128	4
23	38	3
125	129	5
42	89	2
5	114	2
97	97	29
29	83	1
94	95	19
50	112	3
38	53	4
78	80	12
132	133	4
72	72	35
60	60	34
28	29	13
109	113	7
119	119	47
7	12	9
53	54	24
21	104	1
8	11	5
38	56	3
19	24	2
113	115	2
56	59	5
40	42	12
63	67	4
26	27	24
128	129	26
54	125	9
72	73	29
104	117	3
40	41	25
20	20	39
73	74	21
89	91	6
124	125	13
23	29	7
13	17	2
66	69	2
117	131	6
68	102	5
9	88	5
40	43	10
55	61	3
45	47	10
68	68	37
59	61	12
16	67	2
98	103	3
16	83	4
43	131	2
18	19	13
1	46	1
0	8	2
30	114	1
116	118	1
69	70	14
103	118	2
115	115	34
0	128	2
61	114	3
46	54	7
26	26	31
98	114	1
107	120	5
111	113	3
55	66	6
39	72	7
18	18	29
18	24	4
95	129	2
113	125	1
55	56	8
92	93	8
54	56	6
52	60	1
51	81	6
50	51	15
96	99	1
67	72	8
45	46	30
38	38	22
122	123	8
66	75	3
73	89	3
47	55	3
56	109	5
127	128	17
56	57	14
0	2	9
73	95	1
13	14	16
81	84	1
121	122	5
45	51	5
18	23	4
27	29	10
15	21	2
4	119	3
15	24	3
42	45	6
112	121	4
93	95	4
45	99	1
54	55	12
65	67	5
121	125	1
79	92	5
86	86	25
108	118	1
119	128	3
124	124	33
125	128	4
119	126	4
95	110	5
41	44	6
50	110	4
112	113	7
120	121	22
90	92	7
59	60	14
73	73	43
18	97	1
7	8	8
72	127	5
96	125	4
18	22	9
28	132	3
14	81	2
70	92	4
85	87	8
9	12	3
102	102	56
131	132	27
29	31	8
23	25	17
2	18	4
88	89	29
54	118	4
64	64	24
10	31	2
22	33	3
57	104	1
15	18	6
1	27	3
57	126	1
83	103	5
106	121	3
113	130	7
26	83	4
46	115	3
32	48	1
113	129	3
12	12	32
80	112	1
101	107	2
11	15	4
86	126	1
23	39	2
20	110	2
66	71	2
50	133	1
19	32	2
15	25	2
88	117	3
34	34	35
107	128	2
2	39	2
57	115	1
74	82	4
13	105	2
19	69	3
84	128	2
64	65	15
78	133	2
7	99	2
124	126	3
50	70	2
63	72	3
120	120	37
96	104	2
32	33	5
33	75	6
71	104	2
88	114	2
41	51	3
84	91	3
76	86	1
13	100	3
2	107	2
38	43	1
122	124	10
1	28	5
80	82	5
61	62	12
29	86	2
119	129	6
69	132	4
103	104	12
14	25	2
25	33	2
56	58	3
105	126	1
100	103	4
112	123	2
89	118	1
74	97	3
114	119	3
85	133	2
57	60	2
52	62	1
30	31	6
58	85	6
31	33	14
86	87	16
2	28	4
5	6	5
104	123	2
101	102	3
126	128	11
65	69	4
78	81	2
15	22	5
64	132	6
41	125	2
22	26	3
113	133	1
101	113	2
83	92	3
42	66	1
103	109	1
10	125	1
52	94	2
86	89	3
11	45	2
100	111	1
99	103	1
64	66	5
5	14	1
74	77	14
14	40	1
4	19	4
34	78	4
58	103	3
117	117	54
42	48	1
81	85	2
38	39	15
102	104	2
118	119	7
90	121	4
61	64	1
41	61	3
75	90	8
107	132	2
45	54	4
11	85	4
84	101	3
115	120	3
14	17	8
42	46	3
76	109	3
0	114	1
3	12	2
114	129	4
63	102	2
119	122	1
56	98	1
48	74	3
115	125	3
87	101	3
118	132	1
15	20	4
52	55	3
106	109	5
77	127	3
100	101	24
103	120	3
55	76	6
17	22	3
58	61	6
106	118	3
82	84	6
71	93	4
67	123	3
58	106	3
55	67	2
41	43	6
11	86	1
10	46	1
101	103	8
1	10	4
49	93	2
10	13	3
2	6	2
0	1	19
29	33	4
44	62	2
20	69	1
31	60	2
29	30	26
68	85	1
70	109	2
71	76	1
25	84	1
1	48	3
56	78	2
59	65	2
54	59	2
40	56	1
4	82	3
79	124	3
64	77	1
2	113	5
113	120	2
61	126	1
66	74	2
34	68	1
58	77	3
64	68	2
39	61	6
22	24	16
89	104	2
59	62	10
15	16	9
125	132	6
25	89	1
4	7	3
39	124	2
108	114	5
123	131	2
82	101	6
92	95	3
4	5	15
57	129	2
75	97	5
63	133	4
5	23	4
101	126	3
21	34	1
34	67	3
84	89	6
42	107	2
56	110	4
115	124	2
54	69	2
53	104	1
1	11	5
40	59	4
0	96	1
75	99	2
112	117	2
4	21	5
0	6	2
24	39	5
95	98	2
120	132	1
39	52	3
27	116	1
38	41	9
43	50	3
16	30	3
39	44	2
108	109	7
66	67	8
3	4	24
56	123	2
50	69	3
6	24	2
12	83	2
117	118	16
96	102	1
75	78	3
130	132	2
1	40	1
2	51	1
23	34	2
51	64	8
71	72	9
44	64	1
118	133	3
77	98	1
75	109	2
40	44	7
64	74	3
51	86	2
72	98	2
100	126	2
21	109	2
16	16	24
2	14	2
59	103	3
101	133	1
63	77	1
34	79	1
71	127	5
1	2	5
63	65	1
90	116	5
52	117	1
106	107	10
61	78	4
27	32	6
110	115	3
5	8	1
31	106	3
65	76	3
41	45	8
4	115	2
93	94	10
10	17	2
17	19	2
49	53	17
118	130	5
46	48	16
72	89	3
7	125	3
98	130	2
20	102	4
69	83	1
125	127	7
12	98	3
22	25	5
98	120	3
126	129	1
26	28	6
115	116	8
21	29	1
115	131	5
112	118	4
66	72	2
65	74	2
5	16	4
74	75	10
120	124	3
79	97	3
10	90	4
38	52	1
117	125	3
51	78	2
26	29	3
0	126	2
14	65	1
84	88	3
104	108	3
95	96	5
52	113	2
7	53	1
62	82	2
53	69	2
112	130	3
78	103	7
128	130	8
4	54	1
58	123	2
61	74	2
41	74	2
51	55	7
97	99	8
8	105	3
38	82	4
98	129	3
43	48	1
65	68	5
40	53	1
7	39	2
20	125	1
16	66	6
77	80	4
24	29	7
44	49	1
20	28	2
13	32	2
43	69	2
34	82	2
13	15	6
121	130	6
49	54	6
50	89	2
79	100	2
106	108	2
9	62	2
39	42	8
14	108	2
110	111	7
110	121	3
111	132	1
0	95	1
48	65	6
12	14	3
115	127	2
85	88	6
47	87	1
10	89	1
123	124	5
18	21	3
96	101	2
104	107	2
5	18	3
106	129	4
16	18	3
62	84	1
13	50	3
38	40	8
51	59	1
38	44	4
52	111	2
104	129	2
28	76	5
111	112	4
99	110	1
28	63	1
14	24	3
81	107	1
57	96	4
16	72	3
86	119	2
105	133	3
27	118	2
54	83	3
27	104	1
115	117	4
1	12	1
40	46	1
45	97	2
6	65	1
16	24	6
122	132	1
76	80	5
20	25	3
113	117	2
76	106	1
5	7	1
80	119	2
2	110	3
108	121	3
62	100	1
24	25	13
43	46	2
50	85	1
62	120	1
24	118	1
106	133	2
14	19	3
53	56	2
5	17	3
41	52	1
66	109	1
55	128	3
22	29	3
23	26	4
55	108	1
34	55	1
52	95	1
46	121	3
10	57	4
89	97	2
17	18	4
20	26	2
81	97	1
37	37	1
31	88	4
55	74	5
52	64	1
80	85	2
63	74	5
50	57	2
113	119	1
73	84	1
54	115	1
55	98	3
18	113	3
119	120	4
34	74	2
46	56	2
21	106	4
30	85	2
62	72	1
83	85	8
116	132	6
60	62	4
39	115	1
81	125	1
58	65	1
58	109	2
39	47	4
68	71	2
67	75	1
62	77	1
45	68	2
2	11	6
26	110	1
59	79	1
11	13	1
113	118	6
79	91	1
52	72	2
107	119	2
63	85	1
7	31	2
87	94	2
76	81	1
32	69	1
75	76	15
16	19	2
1	31	1
108	111	2
47	88	3
40	71	2
3	6	2
86	102	1
17	79	1
113	116	6
109	128	1
15	100	2
52	124	1
56	72	2
7	88	2
46	52	5
39	54	3
44	47	8
82	100	2
98	101	3
55	107	1
7	9	2
109	114	1
80	130	3
73	76	1
30	123	3
8	43	2
111	116	4
75	79	4
26	123	1
49	113	1
90	117	2
72	119	1
8	41	1
38	63	2
54	121	2
78	119	5
124	130	2
76	79	8
53	57	2
45	49	1
52	115	1
44	98	2
13	72	3
72	92	3
79	82	2
7	13	1
127	131	4
48	62	6
39	101	2
14	109	1
39	102	2
77	103	5
79	85	3
69	72	1
49	95	2
79	102	4
40	104	3
38	108	1
79	99	2
25	34	2
39	63	2
79	103	4
91	94	4
29	94	1
91	93	6
98	108	3
97	103	3
5	113	1
73	75	2
101	104	3
104	118	2
48	131	1
89	112	1
70	72	2
11	27	2
75	102	5
99	107	6
80	93	2
27	30	1
100	118	5
50	54	1
42	44	9
79	130	2
23	100	3
67	74	5
43	45	4
80	83	1
78	84	1
48	52	1
7	33	1
0	57	4
56	71	3
41	83	4
14	38	2
11	100	1
49	52	3
24	43	4
30	32	4
20	48	1
16	114	2
96	116	2
78	82	1
60	63	1
87	92	3
51	54	1
13	18	3
4	11	1
124	128	1
5	115	1
2	74	4
60	101	2
33	80	1
49	64	1
3	130	2
6	8	1
45	56	1
54	64	1
73	77	1
55	64	2
77	119	5
52	93	2
70	121	1
75	77	3
39	46	2
16	113	1
57	76	1
21	72	3
3	45	1
1	58	4
120	122	1
77	99	3
109	124	1
0	58	3
76	119	3
39	118	1
111	124	1
61	103	2
80	122	1
127	129	2
3	44	1
99	104	1
38	130	1
57	63	2
8	100	3
12	15	1
131	133	4
42	124	6
124	133	1
72	114	1
38	46	1
3	103	2
99	114	1
33	62	1
14	48	3
6	10	1
61	106	2
10	86	2
22	93	2
54	57	1
67	80	2
65	72	1
68	70	2
20	104	2
11	24	2
49	92	1
54	63	1
53	55	1
109	120	1
39	41	4
70	78	2
7	45	1
77	82	3
65	85	2
104	124	3
31	107	2
41	63	1
42	69	4
97	127	1
44	50	2
112	116	2
13	20	2
10	108	1
90	120	1
40	58	2
61	63	2
63	106	1
0	14	3
105	109	2
93	117	2
16	23	2
53	64	4
47	49	4
34	97	1
93	118	1
58	60	5
82	85	1
49	51	1
83	132	2
65	77	2
97	119	2
52	54	6
93	112	2
62	76	3
92	117	1
0	5	1
82	89	1
67	73	3
44	54	1
83	97	1
119	127	1
88	90	1
11	16	1
12	101	2
69	113	2
62	123	3
48	54	2
99	108	3
32	116	2
97	114	1
21	23	3
1	22	1
103	108	1
12	78	2
59	108	6
9	113	2
104	119	1
69	92	3
8	17	2
5	45	2
47	112	2
33	44	1
22	32	1
75	85	2
41	67	1
53	123	1
66	124	5
116	131	2
3	62	1
43	52	1
81	115	1
2	114	1
50	111	2
0	12	1
52	68	1
8	87	1
15	42	2
18	44	2
99	106	3
19	33	1
99	127	1
32	115	3
104	113	2
50	53	1
42	90	1
0	3	1
28	30	4
40	64	1
38	81	1
39	80	1
104	133	2
68	103	2
55	75	1
83	101	2
91	98	2
72	75	2
13	62	2
1	14	2
27	88	1
6	71	2
101	108	5
0	7	2
31	59	1
109	117	1
58	104	1
78	109	2
102	113	2
22	59	1
66	100	3
110	114	2
76	130	1
65	106	1
17	67	1
49	55	2
14	47	1
102	117	1
33	132	1
121	129	2
25	38	2
65	73	2
95	128	4
24	26	2
81	83	1
6	19	1
19	22	1
72	78	2
12	96	2
19	65	1
60	126	2
81	98	1
120	129	1
30	34	3
5	68	1
46	66	1
61	119	1
72	99	2
26	33	1
95	123	1
49	75	1
58	84	2
82	98	2
96	97	2
24	34	1
70	123	1
56	60	1
26	118	1
12	26	1
5	22	1
0	116	1
117	132	2
11	22	1
69	94	1
102	110	3
19	85	1
4	22	3
32	49	1
4	18	3
54	93	2
43	65	1
68	74	6
17	125	3
51	102	1
42	99	1
112	132	1
107	116	2
79	104	2
32	34	2
16	21	1
2	13	1
38	75	2
16	20	1
48	58	1
54	122	1
30	70	1
43	72	1
34	42	3
6	11	1
81	114	1
2	108	1
92	121	2
17	24	1
85	112	1
30	69	1
8	52	1
40	49	2
122	125	1
52	104	1
37	77	1
21	95	1
45	59	1
49	65	1
21	99	1
1	59	2
109	125	3
102	106	1
97	107	1
76	97	2
43	74	1
69	75	1
24	28	2
30	133	1
55	100	1
8	44	2
60	133	1
29	117	2
15	113	3
59	123	2
54	123	1
6	7	1
9	108	1
46	63	2
97	115	1
41	60	1
33	99	2
0	20	1
14	88	1
31	80	2
115	119	1
86	90	1
113	131	1
125	130	1
33	98	1
98	131	1
68	104	2
1	9	1
64	99	1
18	114	1
29	74	1
15	47	1
122	126	1
80	96	1
1	20	1
58	76	1
54	132	1
19	71	1
82	108	1
98	107	1
78	99	1
72	81	2
92	94	2
58	83	2
100	131	1
105	107	1
9	54	1
10	12	1
0	118	1
77	115	1
25	60	1
17	33	1
4	38	2
17	107	1
70	76	1
0	83	1
10	26	1
11	109	1
17	38	2
93	107	1
8	28	1
12	42	1
40	128	1
44	96	1
115	130	1
27	31	1
88	104	1
16	90	1
7	44	1
17	21	1
48	115	1
109	111	1
28	44	1
113	121	1
31	83	1
73	113	1
42	103	1
23	63	1
42	51	1
38	119	1
104	121	1
3	7	1
3	68	1
59	99	1
34	115	1
6	66	1
33	39	1
43	55	1
111	117	1
5	13	1
93	111	1
31	61	1
41	47	1
49	56	1
4	118	1
25	76	1
2	7	1
42	56	1
100	109	1
61	73	1
12	19	1
51	107	1
106	132	1
104	125	1
97	117	1
93	116	1
13	41	1
