1	1	12
17	35	8
153	153	4
102	102	12
31	33	16
0	30	2
15	16	8
229	229	15
146	147	3
104	104	19
207	208	3
111	111	5
186	186	17
135	136	1
180	186	2
42	43	2
38	38	22
21	22	10
119	123	3
122	127	9
169	169	10
222	223	7
35	36	17
2	3	4
201	201	10
154	155	8
124	124	4
40	41	14
203	203	11
146	155	6
187	210	1
12	48	3
45	45	13
189	189	7
127	127	8
18	18	16
10	10	11
74	74	14
123	123	8
58	68	6
70	71	2
30	30	16
24	24	17
242	242	14
212	212	19
15	15	10
80	81	6
236	237	4
113	114	6
88	88	8
234	234	7
56	58	1
6	6	16
1	3	2
226	226	9
1	2	3
168	168	14
13	13	6
43	43	16
5	6	9
26	27	7
47	47	6
63	64	2
60	60	6
63	65	5
65	65	16
237	237	8
192	192	7
51	51	5
139	140	6
185	185	6
64	64	28
196	196	15
233	234	4
165	167	2
195	197	3
156	157	4
225	225	11
25	42	3
84	84	5
144	144	6
179	179	5
21	21	13
76	80	3
5	5	5
77	78	2
135	135	13
9	29	3
185	190	5
4	6	7
162	162	8
198	198	8
182	182	7
241	242	4
180	184	1
128	131	4
133	135	17
220	220	12
101	101	19
28	46	1
46	46	17
145	147	2
119	120	1
124	125	5
204	204	9
215	217	7
12	15	2
114	114	4
27	28	6
128	128	8
164	165	1
132	133	4
206	206	5
222	222	8
96	97	2
210	213	2
56	56	14
159	161	4
158	159	6
46	48	3
80	80	7
189	190	2
145	145	19
205	205	12
79	225	1
108	118	3
44	45	3
118	118	4
137	170	2
211	211	16
178	178	3
177	177	16
223	225	4
142	142	10
71	71	14
12	12	14
20	20	13
136	172	2
3	4	5
0	0	12
141	154	1
102	103	5
9	9	21
140	141	7
54	54	10
140	140	9
195	195	9
41	41	14
211	213	3
124	129	4
28	38	8
19	21	5
150	152	4
41	42	2
6	31	4
203	206	2
200	200	12
20	21	8
76	76	7
105	105	8
184	185	1
160	160	8
134	135	4
228	228	14
187	188	5
48	48	7
25	25	1
66	68	3
190	190	6
113	113	7
184	200	2
114	115	3
44	54	5
15	47	1
61	62	10
120	120	4
156	158	6
129	147	8
208	208	17
32	32	13
7	16	1
164	199	2
19	230	5
98	100	4
29	29	10
213	213	12
63	63	14
50	50	3
156	156	5
39	39	7
31	31	12
54	55	13
219	219	4
28	28	8
168	169	7
107	107	4
108	108	8
139	139	16
213	229	6
75	75	4
2	30	11
147	147	5
169	170	4
3	12	1
157	157	17
239	239	19
23	23	7
197	197	8
37	38	7
183	184	4
133	134	11
211	229	1
163	164	5
219	231	1
224	226	2
184	202	4
68	69	2
27	43	1
125	125	5
55	55	19
6	23	1
141	141	9
108	117	5
159	159	5
4	4	8
40	214	1
66	66	13
209	218	4
7	8	7
181	181	8
218	223	2
12	13	3
13	17	3
224	225	5
176	178	3
143	143	16
155	155	10
16	16	13
224	224	7
30	31	5
148	148	7
33	33	9
56	57	2
119	119	15
45	240	2
34	34	10
178	184	6
69	69	9
13	24	1
116	117	5
152	153	5
138	150	3
140	143	4
193	197	1
8	9	4
221	221	4
98	98	10
17	17	8
42	44	1
67	67	11
115	117	2
68	68	8
215	216	4
99	112	4
56	60	3
230	230	8
187	187	5
47	48	2
150	150	6
18	19	7
81	82	2
210	210	7
180	182	8
86	86	19
218	218	8
64	65	6
72	72	3
191	191	12
106	121	2
131	131	3
218	219	1
194	194	8
215	215	16
9	10	7
97	102	3
70	70	21
27	27	18
122	146	6
21	33	3
220	221	7
233	233	4
135	165	4
205	206	4
99	99	9
136	136	8
179	180	11
2	2	11
192	193	6
4	17	6
98	99	4
8	10	4
38	39	6
116	118	6
149	149	9
236	236	12
204	206	6
23	31	5
163	163	11
194	196	4
177	189	5
20	67	2
170	170	10
240	240	10
232	232	10
104	124	3
36	36	13
53	53	13
226	227	2
78	78	4
126	126	7
117	117	12
214	214	8
58	59	3
207	207	9
13	14	9
145	146	3
76	79	1
146	146	11
231	231	9
184	201	2
7	9	3
109	109	11
37	37	5
22	22	3
18	36	3
3	9	2
11	11	8
43	240	4
1	20	2
149	150	4
49	49	6
116	116	16
227	230	1
213	215	3
217	217	7
217	218	3
82	82	8
166	166	5
77	77	8
57	57	7
160	162	3
170	179	3
129	129	6
128	129	1
46	47	2
204	205	3
99	100	9
10	29	1
2	16	4
163	165	2
185	198	3
122	122	5
176	201	3
110	111	1
8	8	14
172	172	9
3	3	8
155	175	1
120	150	2
19	220	1
42	42	5
88	89	3
207	216	2
61	68	5
29	36	2
35	35	6
193	194	7
117	118	5
188	192	1
40	228	5
34	37	3
137	137	7
227	229	3
121	122	6
158	158	18
167	167	8
27	38	1
185	186	4
212	226	3
152	152	8
180	180	7
97	97	7
198	199	4
76	78	4
74	76	6
56	61	5
56	59	6
52	53	11
56	67	3
153	154	6
65	67	6
14	14	17
14	15	5
43	44	2
205	207	5
188	188	3
7	7	12
133	136	1
205	216	1
79	79	8
41	214	1
175	175	6
171	171	4
17	18	2
147	161	2
178	179	3
27	29	1
57	66	1
209	210	3
44	236	4
130	130	6
175	176	4
24	47	2
27	46	1
106	106	5
14	35	4
191	192	3
199	200	5
33	34	2
205	221	3
21	31	1
58	60	1
121	150	3
101	103	1
12	23	1
40	40	4
10	11	2
29	30	3
135	139	1
161	163	2
140	142	3
134	134	1
39	40	5
165	165	5
133	143	2
177	185	2
81	81	2
48	52	5
106	108	2
122	145	1
72	73	6
62	236	3
15	22	1
223	223	13
6	8	2
172	173	1
16	17	4
190	191	4
207	217	1
212	213	4
19	231	1
181	182	3
142	149	3
11	26	2
138	238	5
112	112	2
174	174	12
62	62	4
82	83	4
4	19	2
181	211	5
17	31	4
181	221	1
204	220	1
238	238	2
143	144	2
215	223	3
28	30	2
195	196	5
184	184	6
73	73	2
140	147	1
213	214	1
28	37	2
17	19	4
103	103	9
62	63	6
77	79	4
133	133	7
118	119	9
4	12	3
199	199	4
227	227	8
16	29	3
11	12	3
19	19	10
148	166	2
241	241	6
70	79	2
122	147	2
58	58	2
28	29	4
0	1	3
112	113	3
32	37	2
36	37	5
15	20	8
105	124	1
57	60	3
103	105	1
202	205	2
151	151	5
66	67	3
122	144	2
51	52	3
156	160	1
193	193	2
78	79	1
148	167	10
137	139	1
216	216	5
83	83	2
28	45	4
52	52	6
202	202	7
234	235	2
125	126	4
220	232	1
176	176	6
32	50	2
165	168	1
44	44	8
140	151	4
214	215	3
95	96	3
168	170	7
148	150	4
166	172	5
59	59	8
187	192	5
24	29	1
211	212	4
68	235	1
123	124	2
216	218	4
53	56	1
23	232	2
188	189	3
65	66	2
34	35	2
217	221	4
164	164	2
61	61	4
142	144	2
133	163	3
238	239	3
138	144	1
121	121	7
55	66	2
41	230	1
190	227	2
104	105	5
197	200	3
34	36	3
125	128	2
161	165	2
148	171	4
142	143	1
71	72	1
159	175	3
106	119	2
14	155	4
194	195	3
45	47	1
218	222	1
13	36	1
65	68	1
175	200	2
90	90	2
167	168	2
146	168	1
219	227	1
209	209	1
162	168	1
69	70	1
211	215	2
147	148	1
95	95	3
171	172	2
166	187	2
149	151	1
138	138	3
8	19	3
177	178	1
25	233	1
137	138	1
214	216	2
45	234	1
120	121	1
1	49	1
107	108	3
145	148	2
101	102	4
231	232	1
134	138	1
196	197	2
39	227	1
26	26	3
61	237	1
202	232	2
6	9	1
34	51	1
32	33	6
176	177	4
210	229	1
18	33	2
20	23	4
75	80	1
160	161	1
36	38	2
186	187	2
51	53	2
22	39	1
95	98	2
14	17	1
25	26	1
15	34	1
182	183	4
96	96	2
191	193	1
137	146	1
24	39	3
40	43	4
197	198	3
183	183	1
149	161	3
208	210	1
179	186	1
159	192	1
157	158	3
2	31	2
115	115	1
79	82	1
106	107	1
132	132	1
221	222	2
122	123	1
167	169	3
228	229	2
163	198	2
21	23	2
3	5	1
227	233	1
166	173	1
179	184	1
173	187	1
27	45	1
161	161	3
177	193	1
70	78	2
208	209	1
115	116	3
57	58	2
141	143	1
85	85	3
136	161	1
117	124	1
187	189	1
23	24	1
17	38	2
24	42	1
122	130	1
106	122	1
100	100	1
162	164	2
50	51	6
66	69	1
13	39	3
181	201	1
33	37	2
91	91	1
40	42	1
65	73	1
50	57	1
200	201	1
60	67	2
218	220	1
109	120	1
16	32	1
63	69	1
2	5	1
131	136	2
83	84	2
174	207	2
184	221	1
19	20	2
4	7	1
181	183	2
240	242	2
66	235	1
203	204	3
0	21	1
150	151	2
41	228	1
223	224	1
4	5	3
136	137	1
138	139	2
75	81	1
153	155	1
138	167	1
130	147	1
147	149	1
74	75	1
6	7	4
232	233	1
29	31	1
104	116	1
121	148	1
48	49	1
129	148	1
164	198	1
52	54	1
16	31	1
80	84	1
125	146	1
180	183	1
130	131	1
207	213	2
100	101	1
131	141	1
208	229	1
21	61	1
177	192	1
154	154	1
230	231	1
202	218	1
202	231	1
152	158	1
18	20	1
97	98	1
160	174	1
