35	36	3
54	55	2
36	36	6
87	87	15
122	124	4
48	55	7
112	112	14
11	11	6
136	136	7
87	92	1
80	81	3
97	97	14
136	137	3
105	106	18
99	99	10
32	56	3
80	80	7
65	65	3
44	49	3
124	126	1
129	130	7
128	128	6
21	104	2
96	96	6
74	74	7
90	106	3
22	22	8
93	93	11
109	111	5
41	41	6
7	7	7
6	6	11
102	102	9
42	47	2
24	24	8
2	88	3
79	79	16
34	34	16
13	13	6
109	110	4
85	85	16
86	104	3
108	108	9
21	21	10
92	97	1
141	142	3
25	29	2
10	34	5
135	137	2
155	156	5
13	14	7
66	77	4
10	70	2
62	63	5
14	34	2
121	122	9
3	3	3
81	120	7
104	104	11
29	29	5
75	75	4
126	126	9
77	77	10
154	154	2
54	54	4
36	65	1
87	89	4
78	78	8
10	10	7
147	147	2
20	20	5
30	30	4
114	114	13
117	155	2
17	17	5
35	35	9
119	120	7
92	93	3
63	63	9
98	98	3
25	26	1
10	11	1
5	5	7
82	82	14
49	50	3
19	19	22
152	153	4
122	122	14
110	111	3
78	121	3
144	145	3
137	137	11
19	20	4
4	92	6
8	9	3
73	73	10
57	63	2
52	52	3
27	27	9
137	138	4
127	127	10
15	16	5
83	112	3
79	85	3
144	144	11
125	125	6
111	111	11
145	145	14
47	47	10
117	117	4
91	93	2
23	23	10
140	140	3
123	144	3
106	106	6
83	143	3
109	109	8
5	73	1
32	55	3
121	121	5
148	149	5
32	32	4
54	61	3
49	49	18
131	132	7
91	91	10
79	118	2
37	37	8
155	155	2
16	52	3
90	91	11
108	109	8
125	131	2
38	38	13
133	133	5
53	158	2
38	39	1
79	86	3
12	12	5
10	14	3
36	37	2
92	128	4
67	67	4
8	8	13
66	66	3
118	118	9
113	113	4
148	148	12
92	92	9
88	88	5
94	94	11
80	116	2
111	113	2
110	110	4
7	18	2
14	35	1
103	103	9
45	45	3
141	141	4
127	139	2
105	139	2
100	100	7
110	145	1
78	83	6
123	123	14
15	33	2
14	16	3
23	71	6
81	82	4
87	143	4
14	14	14
26	26	11
2	97	1
19	62	2
18	19	8
132	132	7
3	121	3
95	96	5
157	157	5
50	50	6
64	64	9
107	107	3
25	25	6
103	145	3
139	139	11
116	117	4
101	101	6
135	135	7
132	134	4
83	83	5
79	82	2
104	157	1
36	38	3
108	146	2
140	141	3
76	78	2
82	141	3
4	4	7
90	90	2
129	129	11
119	141	3
55	55	8
32	52	1
44	44	7
69	70	2
154	155	2
49	136	1
116	116	2
45	48	3
120	120	2
134	150	3
131	131	4
3	9	2
50	52	2
92	94	2
146	147	5
120	121	5
102	103	2
141	143	5
81	81	10
83	104	2
77	78	3
126	127	1
125	126	1
28	28	1
71	71	4
96	137	2
143	143	5
23	24	3
124	124	7
99	150	4
65	113	5
84	87	3
78	86	6
43	158	2
53	54	4
42	42	11
103	104	3
82	86	3
153	153	3
19	116	2
146	146	9
70	70	6
142	142	5
69	140	2
54	57	3
158	159	1
89	89	10
52	54	1
15	15	13
68	68	6
21	34	6
152	155	4
130	130	2
40	40	9
18	20	2
104	158	5
11	12	5
1	99	1
151	151	7
1	1	6
16	55	5
101	114	1
12	14	3
157	158	1
95	95	4
158	158	8
65	66	1
10	15	4
88	89	1
81	122	1
67	118	3
14	15	4
33	33	3
39	41	2
13	46	1
115	115	7
105	105	2
21	26	3
31	31	8
46	46	5
18	18	1
134	134	3
152	152	6
14	36	1
56	56	5
108	131	1
73	115	4
97	98	4
149	149	2
85	141	1
106	107	7
63	64	2
84	85	5
34	35	2
103	118	3
127	133	3
67	145	2
93	135	3
127	152	2
77	82	2
0	0	4
2	3	3
107	152	3
9	10	2
144	155	2
139	140	2
95	97	2
48	48	3
76	77	1
119	119	3
39	39	8
124	134	4
40	41	3
93	95	1
42	48	1
147	154	8
54	159	3
24	64	2
152	154	1
87	97	1
150	150	4
0	57	3
115	117	4
14	37	3
25	27	1
87	118	3
83	144	1
84	84	4
53	56	1
23	31	2
42	52	2
7	115	3
6	16	2
67	140	2
76	76	3
145	146	5
78	79	1
77	139	2
113	115	1
72	77	1
128	129	1
93	94	1
91	127	2
22	158	2
68	70	3
7	17	2
31	32	1
112	145	1
53	53	4
82	116	2
156	156	1
138	138	7
123	134	1
48	49	2
122	144	2
31	52	1
29	30	1
85	86	4
15	57	3
153	154	1
91	92	1
11	126	3
64	69	4
3	4	1
32	51	1
75	76	2
27	30	1
4	121	3
90	92	2
30	64	1
107	149	1
130	140	1
20	21	3
127	134	2
117	118	1
17	18	1
50	55	1
86	88	3
89	92	1
9	33	3
103	144	2
53	61	2
9	9	4
46	47	1
70	71	1
48	137	1
108	110	2
68	69	3
0	1	1
13	15	1
86	86	7
107	157	1
51	51	4
2	2	2
120	153	1
62	62	2
128	131	1
151	152	1
71	79	3
131	150	2
133	134	1
71	143	1
111	126	1
149	150	1
46	138	3
100	101	1
4	87	1
147	148	1
50	51	2
66	140	1
131	133	1
135	136	2
83	84	1
89	90	2
107	147	1
133	135	1
45	47	1
63	69	1
31	51	1
30	35	2
118	119	1
69	69	1
112	113	1
14	49	1
75	123	2
79	80	1
35	47	2
87	88	1
8	154	1
4	141	1
26	27	1
86	97	1
43	115	1
41	42	1
130	135	1
16	16	2
115	116	1
78	82	1
17	54	1
24	25	1
127	142	1
145	148	1
135	138	1
13	45	1
127	129	1
43	109	1
