60	61	12
5	5	23
28	29	4
5	6	12
39	39	33
9	10	9
6	7	4
28	28	17
58	58	16
64	64	16
74	75	9
76	76	33
71	71	22
74	74	24
36	38	3
67	70	6
63	64	10
63	63	21
79	79	28
57	57	26
3	3	26
49	49	22
13	14	10
42	42	23
75	77	2
55	55	17
4	33	3
47	47	30
56	56	6
48	48	21
13	15	7
20	21	2
67	67	26
61	61	17
64	69	2
9	9	24
77	77	19
35	35	24
4	4	27
80	80	24
6	6	21
54	54	26
76	77	8
73	73	21
29	30	4
30	30	11
53	55	7
11	11	12
40	41	17
1	1	33
45	45	31
52	52	11
32	32	11
27	27	23
41	41	45
19	19	15
18	18	6
50	51	4
20	20	4
78	79	6
15	16	6
8	8	34
21	33	3
62	64	1
26	28	1
10	10	16
29	29	25
64	65	4
2	2	39
60	60	12
46	46	23
68	68	11
65	65	30
9	70	3
21	25	3
59	59	11
7	7	25
26	26	28
60	62	3
78	78	30
38	39	11
0	0	18
16	16	12
51	51	7
37	37	17
73	74	7
51	52	7
45	46	4
59	62	3
36	36	20
62	62	16
66	66	22
28	55	5
31	32	23
17	17	24
40	40	29
72	72	15
57	62	1
12	12	11
4	5	4
3	4	5
41	42	5
30	33	5
50	50	6
8	9	9
9	12	1
76	80	1
21	21	3
31	31	15
29	55	1
10	11	5
49	50	4
38	38	31
70	71	5
17	18	3
6	8	4
7	8	7
36	37	1
1	2	3
58	59	6
67	68	6
33	34	5
25	25	15
15	27	5
8	62	3
15	15	5
33	33	14
34	34	13
66	70	2
14	15	7
65	66	5
6	30	1
71	72	9
56	57	7
25	26	8
75	75	18
66	67	7
9	32	2
66	76	2
48	49	10
53	53	10
37	38	8
55	72	4
20	30	4
13	13	8
15	18	2
5	33	1
48	65	1
69	69	10
2	3	6
75	76	7
43	43	7
55	56	3
12	13	9
11	12	4
0	1	1
75	78	1
0	2	4
38	40	2
70	72	2
40	42	1
14	14	12
57	58	14
77	78	5
70	70	5
42	61	2
30	32	1
10	12	4
0	35	3
10	31	4
10	15	1
58	62	1
9	48	3
39	40	3
68	69	3
42	43	2
27	28	4
47	48	4
8	10	1
17	34	1
16	27	3
29	33	1
1	80	3
42	74	4
59	60	2
37	40	3
27	55	2
50	52	2
27	36	1
34	35	2
28	57	1
52	53	4
11	32	2
20	33	1
8	29	1
9	66	1
46	47	1
35	67	1
69	71	2
39	42	1
8	66	4
9	11	4
8	31	1
72	78	1
69	70	2
44	45	1
11	31	1
79	80	2
8	67	2
11	30	4
59	64	1
0	29	1
40	63	1
71	77	2
14	16	1
16	34	1
37	41	2
32	33	4
31	33	1
26	30	1
49	52	2
65	67	1
39	46	1
62	65	1
45	48	1
72	73	1
26	27	1
44	44	1
16	17	1
