36	36	5
46	46	7
62	62	7
55	56	8
114	114	7
41	43	3
18	18	9
101	101	6
28	28	11
113	113	4
127	131	2
93	93	16
114	126	1
97	97	10
59	59	6
73	73	25
21	22	6
19	19	7
11	11	8
18	19	4
109	109	5
129	129	3
10	10	3
54	55	3
92	112	4
65	65	3
41	41	4
64	64	11
68	68	4
76	77	3
70	70	8
67	68	6
25	25	4
131	131	5
34	34	4
69	69	5
30	31	4
45	47	2
91	92	5
8	70	1
64	65	2
30	30	16
119	119	7
88	95	1
95	95	5
134	134	5
67	67	13
7	7	5
81	81	9
15	15	8
116	117	1
110	125	3
29	30	4
40	40	6
68	69	5
26	29	3
29	29	6
108	108	8
48	48	10
47	47	17
81	85	3
14	14	4
79	80	10
127	127	9
73	120	1
56	56	1
94	95	2
102	102	4
99	99	4
42	43	1
100	100	10
60	60	5
72	72	8
77	78	3
44	44	3
83	83	5
82	82	5
5	5	8
66	66	12
25	26	2
118	118	1
23	23	4
100	101	6
81	91	1
26	26	13
13	13	4
35	36	3
26	47	3
4	45	1
115	116	1
92	92	4
93	94	4
27	49	1
44	45	6
50	50	4
55	55	2
57	57	7
71	72	4
4	7	5
39	88	2
73	121	3
126	126	8
0	0	10
31	38	4
87	88	5
4	18	3
42	42	5
67	74	2
35	35	7
77	77	10
20	20	6
80	80	3
76	76	1
83	84	6
1	1	4
114	131	4
20	21	3
97	98	4
33	33	6
22	25	5
126	128	5
112	117	1
117	126	1
48	49	5
74	121	6
87	87	6
12	35	4
103	103	6
34	35	3
20	36	1
133	133	2
50	82	3
28	82	2
106	106	6
94	101	3
117	127	1
31	31	11
37	37	3
122	123	2
7	8	3
21	21	7
62	63	5
4	6	3
23	25	1
11	12	5
112	128	3
28	29	3
86	86	1
109	111	3
94	100	3
15	24	3
75	76	3
86	108	3
75	75	6
74	120	2
99	101	1
90	91	6
78	78	7
32	32	8
131	133	1
57	94	1
45	45	4
107	107	3
85	85	3
125	125	5
54	54	2
16	16	4
130	130	5
26	27	1
59	88	1
61	84	2
108	110	3
36	41	3
94	94	1
74	74	4
6	9	1
26	93	1
24	24	6
90	90	5
131	132	3
57	85	1
27	27	11
11	93	5
22	43	1
6	6	7
80	83	2
92	98	2
90	93	5
58	95	1
71	71	5
63	64	1
38	55	2
9	9	3
85	86	4
89	89	3
8	8	7
105	105	4
12	13	3
127	128	1
27	92	2
128	129	3
111	111	3
43	44	2
39	48	2
32	47	2
89	92	7
2	2	6
68	71	3
93	129	1
125	134	1
60	76	2
104	118	4
128	128	3
58	64	2
17	17	6
121	121	1
103	105	3
13	14	2
73	82	1
25	62	2
4	4	2
115	115	4
88	111	1
69	70	1
11	30	1
4	5	5
61	75	3
114	115	1
38	56	1
96	97	3
89	107	1
58	59	6
17	19	2
59	60	1
104	105	1
38	38	2
93	112	2
10	44	1
11	78	1
66	69	2
123	123	1
84	85	3
92	95	1
58	58	2
57	58	1
63	63	3
132	132	1
96	96	4
61	61	2
59	86	3
21	56	1
70	71	2
9	10	2
39	39	6
79	79	3
96	98	2
33	75	1
42	51	1
82	83	1
12	12	1
63	69	3
89	93	3
88	89	2
122	122	2
108	128	1
45	64	4
17	73	1
2	3	1
5	7	4
15	90	1
20	37	1
5	6	1
66	67	1
11	77	2
3	3	2
97	107	2
93	98	2
42	83	2
51	54	2
2	102	1
20	50	1
59	62	1
44	48	1
62	72	1
33	71	1
84	86	1
73	74	1
95	101	1
118	120	1
79	82	2
79	87	1
105	107	1
91	129	3
31	32	2
17	24	2
79	81	1
19	26	1
110	110	1
47	48	1
45	46	1
27	30	1
21	84	1
28	80	1
72	123	1
18	60	1
43	43	1
107	108	1
132	133	1
110	112	1
8	22	1
126	127	1
80	82	1
5	19	1
116	116	2
112	113	1
69	71	1
65	73	1
12	14	1
98	98	1
10	12	1
42	49	1
111	124	2
118	121	1
1	2	1
88	94	1
18	23	1
38	39	1
26	62	1
