33	33	10
2	5	3
120	232	2
229	230	1
2	7	4
4	211	2
1	2	3
164	175	7
210	210	7
237	237	9
69	69	2
27	27	6
121	138	4
231	231	11
43	43	4
22	23	4
41	197	4
165	165	11
218	218	9
114	114	4
80	80	4
18	18	10
84	115	1
180	180	5
74	74	8
58	83	2
117	117	3
145	145	1
23	24	2
53	53	1
200	208	2
19	22	1
30	30	9
76	76	4
211	217	3
24	24	2
12	13	2
155	156	1
102	102	4
77	78	6
12	17	1
196	196	2
149	150	5
71	71	11
49	49	6
88	128	1
98	100	2
73	73	11
179	180	5
171	189	1
2	6	3
21	29	4
16	17	3
114	115	13
157	158	6
23	23	9
123	123	8
21	31	1
100	100	2
61	97	1
42	42	2
60	60	5
118	138	2
168	169	6
208	208	3
78	78	7
45	46	6
99	101	1
119	144	2
18	39	3
29	29	6
127	127	2
101	101	11
160	172	2
174	174	9
166	166	4
98	98	2
58	58	4
221	221	1
156	156	7
110	157	3
63	63	3
16	16	5
55	55	12
75	233	3
123	136	3
22	48	3
21	30	7
30	31	3
219	219	5
163	170	3
184	184	13
111	115	1
96	96	6
222	222	7
190	191	7
227	227	9
105	107	3
34	36	2
123	140	1
163	163	4
39	39	3
62	173	2
38	38	3
21	32	6
72	72	2
128	143	1
22	22	5
13	14	2
23	29	3
168	168	14
172	173	4
9	9	6
128	129	2
4	221	5
168	177	1
112	112	3
38	43	1
115	118	1
31	31	5
125	126	3
238	239	4
161	161	7
223	223	4
224	224	6
193	193	2
97	97	8
44	44	12
44	228	4
72	100	4
144	182	6
68	68	9
59	170	3
234	234	3
145	181	6
173	173	5
193	194	7
118	141	1
146	146	2
178	178	4
71	101	1
152	161	4
229	229	3
75	75	5
188	202	5
204	209	1
217	219	2
21	48	4
39	107	2
208	215	1
121	121	4
15	16	2
31	58	1
116	116	4
150	151	4
202	202	7
200	200	3
232	232	2
22	49	2
164	164	3
198	198	3
172	172	4
71	72	2
65	67	2
156	157	2
10	10	3
7	7	3
139	139	6
26	26	3
41	208	2
73	74	3
26	207	6
213	213	7
124	124	2
2	31	2
59	59	3
225	225	6
205	205	3
29	30	2
118	123	4
90	95	7
30	95	3
4	29	3
116	157	2
148	180	3
189	189	4
51	51	6
187	187	3
226	226	1
135	135	4
228	228	6
48	229	1
26	27	1
159	159	5
141	141	1
217	217	3
83	83	4
192	192	3
9	10	3
28	28	8
4	4	5
201	201	1
151	151	4
171	183	1
52	52	6
70	73	3
95	95	3
107	128	2
235	235	4
35	222	1
8	27	5
18	19	3
7	10	1
3	15	5
198	200	2
25	25	2
167	167	2
10	56	4
233	233	5
68	104	3
11	11	5
40	40	2
85	85	2
179	181	1
67	67	6
235	238	2
56	56	3
68	69	6
206	206	7
144	146	2
119	119	6
77	79	3
113	113	5
27	97	2
82	82	1
7	8	3
206	208	3
61	61	7
46	52	1
138	138	4
107	126	4
63	175	1
81	84	2
54	54	2
184	185	6
15	22	1
158	158	2
34	50	3
230	230	5
170	232	2
2	15	2
113	114	1
108	124	3
4	6	1
34	42	2
38	39	2
199	199	9
37	42	1
23	58	1
1	210	4
240	240	6
69	70	2
46	54	2
172	197	3
108	111	2
172	183	3
46	46	4
164	168	2
48	50	2
176	176	3
98	101	3
42	190	2
177	178	2
116	129	2
88	103	2
67	111	1
130	131	3
236	236	1
235	239	1
62	66	2
205	206	3
86	86	8
16	23	2
160	188	1
114	125	1
112	113	2
12	12	6
35	35	2
2	2	3
141	142	4
0	8	1
75	79	3
103	103	2
8	8	3
172	177	3
112	134	3
104	104	2
208	216	1
193	195	2
53	82	2
57	57	4
6	6	2
54	55	1
36	36	4
167	169	3
62	174	3
216	216	5
130	130	1
184	229	3
52	82	1
64	65	5
62	63	1
125	125	5
202	203	1
38	45	1
171	172	1
85	86	1
105	105	4
120	120	3
209	209	5
55	56	2
147	149	2
188	188	1
19	79	2
220	220	3
164	201	3
10	26	1
121	133	1
99	100	6
131	131	1
182	182	4
151	162	4
15	15	3
37	47	3
14	14	2
155	166	1
1	9	1
195	195	1
9	26	1
34	34	2
41	187	2
239	239	8
141	143	3
61	68	2
21	21	4
208	209	2
24	27	1
106	106	1
58	170	3
185	186	2
153	153	7
204	204	3
171	171	5
162	162	1
19	19	1
45	61	1
51	210	2
66	67	1
56	146	1
18	34	3
33	46	3
88	89	1
20	23	1
81	83	3
0	0	2
207	209	2
136	141	1
235	240	1
217	218	3
225	226	2
17	18	6
87	87	1
63	64	1
17	21	2
138	141	2
72	73	3
106	107	2
118	118	3
24	54	3
99	102	1
5	212	3
3	10	2
100	101	1
193	196	3
91	91	2
47	47	1
187	188	2
228	229	1
140	140	1
150	152	2
60	74	1
95	104	1
3	28	2
74	75	2
11	12	2
64	64	4
69	135	2
70	70	1
230	232	1
18	29	3
41	41	1
8	11	2
155	155	2
9	212	1
175	176	1
133	134	1
20	20	9
145	234	1
11	55	1
5	5	1
88	88	1
107	107	2
33	34	4
68	105	2
138	139	1
186	205	1
136	136	2
48	58	1
44	202	2
127	131	1
34	222	2
207	215	1
159	161	1
191	192	1
196	197	1
66	68	2
194	194	1
2	3	1
125	130	3
159	163	3
99	121	2
19	34	1
65	65	2
59	102	3
128	128	3
2	4	2
99	99	4
105	106	2
62	62	2
238	238	2
48	60	2
84	84	1
3	3	1
65	102	1
127	130	2
20	30	1
139	140	2
214	215	1
143	143	1
81	81	1
222	223	1
167	168	1
115	115	1
32	32	2
148	148	1
7	217	1
107	116	1
17	23	1
39	40	1
152	152	1
77	77	1
37	37	1
189	202	1
10	11	1
34	35	2
137	143	1
2	29	1
241	241	1
19	57	1
45	45	2
9	11	1
143	145	2
1	1	2
50	60	1
48	48	1
75	88	1
5	16	1
226	227	1
160	161	1
20	32	1
13	13	2
223	228	1
179	179	1
21	22	1
62	122	1
186	186	2
31	34	1
33	42	1
55	183	1
146	147	1
133	133	1
66	66	1
215	215	1
58	59	1
8	17	1
98	99	1
22	50	1
19	24	1
152	170	1
107	108	1
77	80	1
41	199	1
79	80	1
108	108	1
110	110	1
214	230	1
