7	7	6
36	108	1
112	113	3
128	128	16
73	73	14
99	106	1
71	73	2
90	90	12
92	146	4
43	43	9
49	49	9
47	48	7
102	102	5
24	24	3
70	71	7
128	129	8
147	148	4
76	76	8
1	1	11
124	124	12
76	77	2
155	157	4
70	70	15
146	148	1
111	112	2
72	73	4
101	101	6
107	107	9
152	152	9
55	55	9
41	41	5
97	97	15
17	17	22
154	154	18
37	37	13
56	74	2
107	109	1
98	100	4
14	14	8
47	47	3
165	165	6
169	169	2
105	110	7
133	134	9
137	147	2
91	92	6
62	63	6
91	91	10
34	37	5
67	68	1
42	42	7
124	125	3
75	75	7
108	108	9
52	52	6
131	132	1
96	97	5
81	81	9
35	35	6
127	129	5
150	151	1
119	119	12
99	99	16
158	159	6
88	89	6
63	63	5
21	22	3
46	46	8
20	20	11
112	112	7
86	86	17
39	39	4
162	162	10
21	21	6
92	92	9
126	126	5
108	137	3
167	168	6
78	78	12
90	91	4
144	144	5
62	62	5
138	139	1
97	98	2
125	160	4
76	78	9
114	114	9
72	72	4
94	94	7
133	133	6
27	27	2
24	25	4
93	93	8
9	11	4
84	85	11
161	166	4
120	121	10
54	54	9
109	110	3
23	23	12
39	40	5
78	82	6
81	82	4
87	102	5
140	142	4
105	106	3
38	38	5
109	111	2
98	98	6
18	19	9
132	132	2
44	48	4
99	100	1
78	79	3
12	13	9
129	129	5
80	80	9
10	11	9
113	113	7
87	87	8
88	88	11
40	41	8
89	97	2
44	45	11
96	137	4
130	132	2
154	157	3
4	4	10
50	51	3
13	14	5
68	68	4
82	82	8
23	24	3
11	11	7
126	127	2
125	128	3
89	90	5
149	149	10
40	51	3
150	150	2
57	57	8
161	162	3
100	100	11
110	111	2
3	3	2
22	22	20
152	154	6
48	49	7
67	67	2
121	122	7
160	160	7
106	107	15
162	165	4
58	62	8
34	35	3
116	116	10
15	15	10
118	151	3
117	117	14
82	87	1
118	118	5
13	13	7
83	83	6
129	130	12
64	64	4
17	18	1
165	166	5
111	131	1
116	117	4
101	102	8
63	69	1
128	154	1
20	21	2
4	5	5
112	116	1
56	56	7
54	55	7
0	4	2
97	105	2
13	25	1
123	124	5
157	158	5
12	12	9
56	69	2
110	110	3
157	157	10
115	115	5
2	3	1
18	18	5
50	50	4
71	72	9
74	74	8
52	53	3
164	164	7
103	105	3
132	133	4
89	89	4
139	139	6
33	34	2
69	69	3
105	134	5
159	160	3
2	2	8
85	85	11
90	141	3
85	86	4
46	47	1
119	120	3
153	153	5
19	19	16
113	136	2
168	168	6
116	151	5
163	165	1
49	72	1
92	144	3
16	16	10
34	34	5
167	167	5
74	79	2
42	88	2
125	125	9
100	122	1
82	85	4
84	84	4
152	164	4
134	134	11
45	45	7
116	135	1
158	158	2
10	10	9
125	126	1
3	4	4
9	9	5
163	163	7
126	155	1
83	84	2
115	119	4
54	56	6
51	51	1
86	101	1
140	141	6
126	154	3
64	65	6
48	48	11
153	154	5
153	161	1
106	106	4
159	159	3
151	151	1
23	99	4
90	95	1
17	19	2
44	47	1
107	108	8
16	17	2
41	97	1
99	102	3
98	99	6
8	9	10
127	127	4
95	95	2
92	99	1
6	6	3
22	23	3
143	143	3
163	164	9
0	0	5
49	70	3
39	41	2
36	36	8
117	150	2
25	25	2
46	51	1
124	126	2
155	155	4
0	1	2
145	145	2
1	2	2
6	7	2
146	146	8
91	94	6
88	92	2
135	135	3
122	123	5
103	103	4
153	163	2
152	153	3
12	15	2
104	104	5
10	44	1
136	144	1
106	111	3
9	10	2
94	95	1
146	147	3
78	81	2
138	141	3
87	88	6
49	51	4
68	73	1
47	92	1
8	8	4
116	134	1
170	170	1
55	56	6
115	116	3
86	87	1
139	141	4
44	44	3
28	28	2
3	5	1
69	70	4
156	156	3
32	32	1
77	80	1
54	63	2
113	114	3
44	46	2
19	22	1
24	99	2
81	83	1
5	33	2
131	131	2
68	69	1
5	6	1
8	11	4
113	119	2
109	109	4
150	170	3
147	147	1
13	15	4
11	107	1
14	15	8
42	57	1
115	132	1
105	105	3
123	131	3
168	170	3
89	94	1
136	148	2
21	25	1
66	67	4
96	96	1
35	36	5
155	156	1
16	25	1
149	150	1
77	77	6
160	163	1
5	5	7
79	80	1
139	140	3
136	136	4
74	76	2
121	121	5
5	8	3
120	120	1
91	97	1
92	93	4
100	101	1
150	161	2
71	71	6
56	138	2
16	22	1
130	130	1
140	140	1
166	166	2
17	21	3
24	106	1
88	101	1
56	58	2
85	149	3
118	119	2
18	20	1
114	115	2
102	105	2
83	86	1
83	85	1
152	168	1
76	79	2
137	137	1
36	37	2
6	116	1
80	81	2
11	12	1
74	75	1
77	79	1
63	66	1
135	138	2
123	132	1
161	161	3
154	156	1
51	65	1
18	21	1
117	118	1
114	116	2
56	57	1
49	50	1
124	134	1
37	38	1
113	121	2
8	10	1
58	58	1
156	157	1
17	24	1
93	95	2
24	104	2
40	40	1
91	93	2
114	119	1
12	24	1
66	66	2
123	123	1
18	22	2
124	127	1
144	148	2
127	128	2
148	149	1
154	155	1
35	38	2
110	137	1
169	170	1
134	135	1
111	111	1
113	133	1
123	125	1
113	115	1
93	94	3
135	136	1
90	94	1
11	13	1
168	169	1
4	7	1
6	109	1
144	145	1
38	40	1
64	70	1
35	55	1
