211	211	6
151	151	26
190	190	17
32	43	2
113	117	2
7	7	4
19	207	2
168	207	5
165	165	12
176	177	1
109	110	2
164	164	6
170	170	16
213	214	1
197	216	1
241	241	11
102	102	6
215	215	3
246	246	9
195	196	6
26	168	5
200	213	1
220	220	6
156	156	9
172	173	6
81	82	3
116	116	5
47	48	3
86	87	2
237	237	2
198	199	6
23	23	5
38	106	1
180	180	7
42	42	5
213	213	3
119	243	2
208	209	7
239	240	8
150	150	15
75	76	3
77	77	4
211	219	1
152	152	2
14	34	2
64	64	17
178	178	11
150	178	1
93	93	2
196	196	6
118	119	1
215	222	1
167	167	6
97	108	2
198	200	2
10	10	8
231	232	5
97	98	1
107	108	1
115	115	12
107	107	7
90	90	3
202	202	6
157	157	3
201	201	6
197	197	5
48	49	2
52	52	9
111	112	6
179	179	12
4	58	3
95	95	3
195	211	1
195	195	11
43	43	10
191	192	5
6	35	1
181	181	11
104	104	4
173	174	1
27	27	7
151	197	1
211	212	2
188	188	9
14	15	2
170	171	4
22	22	8
45	45	3
212	212	11
179	231	3
82	83	1
184	209	3
238	238	17
146	146	2
165	170	1
55	56	3
62	62	5
60	101	3
178	192	1
19	19	6
70	74	6
195	240	1
81	81	8
84	84	8
214	214	10
51	51	2
79	79	6
158	158	4
160	160	6
221	221	6
171	171	8
28	28	6
34	34	4
41	41	3
197	219	2
16	16	4
110	110	10
30	31	4
186	187	2
145	145	4
244	244	6
227	228	2
88	88	1
167	192	1
119	119	6
23	27	1
169	185	1
29	29	10
70	71	1
208	208	8
39	91	2
119	247	1
60	248	3
75	86	2
157	158	2
214	215	7
95	97	2
98	98	5
98	99	3
190	192	1
189	190	7
100	100	4
194	195	3
242	244	3
170	191	2
113	113	3
166	166	7
153	153	2
163	163	10
174	174	3
232	232	3
209	209	2
90	91	5
233	233	5
205	205	5
48	48	4
207	207	10
231	231	8
59	75	1
52	88	4
223	244	1
186	236	2
65	65	4
76	76	5
217	217	5
8	8	4
186	186	3
227	227	3
53	65	3
53	53	6
229	229	5
203	204	5
20	20	5
89	96	1
175	189	1
110	112	2
87	87	14
204	204	7
85	85	5
87	94	3
4	4	12
49	49	7
41	64	2
215	216	1
10	25	2
164	195	1
240	240	6
60	61	2
31	106	5
58	75	2
15	39	2
157	191	3
226	247	2
55	59	4
35	38	4
50	50	4
40	51	1
18	18	11
14	14	2
41	68	1
35	35	5
232	233	1
168	168	6
54	54	1
230	230	5
31	113	1
113	114	2
34	187	1
198	198	2
192	193	2
187	189	1
166	169	1
226	226	3
3	3	2
160	166	3
40	41	4
169	169	7
175	175	9
96	96	2
19	43	1
111	111	5
73	74	4
172	229	2
233	234	4
89	89	4
71	86	3
85	86	2
222	222	4
2	2	2
17	17	7
99	99	2
104	112	2
86	86	3
118	118	7
188	189	3
159	166	2
185	206	2
247	248	2
8	168	3
173	186	1
167	182	2
71	73	3
26	47	4
50	52	3
222	223	2
61	70	1
69	70	2
245	246	4
145	222	1
175	194	1
63	63	2
31	31	3
33	153	2
191	209	3
40	40	7
154	154	3
219	219	4
61	61	9
195	233	3
199	199	2
5	5	4
218	218	7
206	206	7
61	62	3
225	225	4
168	169	2
109	109	1
165	183	3
243	243	1
33	229	4
119	234	1
120	120	1
42	94	2
68	69	3
184	184	13
167	210	1
239	239	3
221	226	1
196	197	4
217	225	1
70	88	1
53	87	4
21	25	1
183	183	4
174	234	1
245	245	6
35	101	1
149	150	2
112	112	3
101	102	1
118	237	1
30	111	2
115	120	2
45	60	2
156	157	1
71	72	1
76	77	2
4	116	1
33	33	11
31	103	3
168	229	2
158	170	4
59	60	3
194	240	6
194	194	5
248	248	4
220	222	1
191	191	3
37	37	4
37	39	2
49	89	1
165	166	3
3	8	1
185	185	3
17	19	2
11	11	5
182	182	7
11	231	1
78	78	2
236	236	3
245	248	2
20	33	2
39	46	2
117	117	1
177	231	1
236	240	1
221	222	5
169	192	1
116	117	2
47	47	4
21	56	1
199	218	1
224	225	1
192	192	3
83	83	5
70	70	6
210	210	5
60	60	5
79	111	2
237	240	2
185	235	1
156	186	2
164	176	1
160	168	1
169	188	4
12	12	1
70	94	1
165	184	1
206	217	3
57	57	2
150	151	1
9	9	6
193	193	6
75	121	5
39	39	2
38	38	6
247	247	1
157	177	1
242	242	6
145	151	1
172	175	1
214	232	2
48	91	3
228	229	1
32	56	1
66	66	2
56	114	1
101	101	3
235	235	2
110	115	1
15	36	1
44	44	1
108	108	2
241	242	1
236	238	1
165	197	3
222	233	1
71	117	2
25	25	2
181	183	1
161	186	1
15	15	1
165	241	1
156	207	2
18	19	3
47	87	2
181	182	1
20	47	1
1	153	2
104	105	4
159	159	3
78	79	1
106	120	2
36	117	1
21	21	1
237	246	1
201	202	1
76	104	2
167	168	1
103	103	3
75	85	1
114	117	1
105	106	5
35	37	2
169	190	1
196	223	1
41	45	1
161	188	2
120	121	1
51	52	2
155	155	1
169	170	1
28	150	2
69	69	2
171	186	1
98	109	3
188	190	2
110	244	1
71	87	1
104	107	1
61	73	1
109	113	3
32	32	3
80	80	5
217	218	1
18	22	3
234	234	2
206	230	1
110	113	2
224	224	1
77	112	4
96	98	1
185	198	7
69	103	1
71	71	5
94	94	1
159	192	1
195	224	1
241	246	2
82	82	2
145	150	2
59	59	3
38	39	3
92	94	1
55	55	1
173	173	2
9	10	1
213	219	3
64	65	1
59	101	2
152	159	1
16	114	1
7	20	2
75	75	3
42	221	2
157	175	1
6	153	1
65	66	1
28	117	2
56	57	1
185	186	2
83	84	1
3	32	2
39	98	1
33	35	2
8	25	1
111	246	1
113	116	2
77	78	2
61	89	1
222	232	1
94	97	1
169	171	1
159	209	1
203	203	3
228	228	4
57	58	1
36	36	1
3	112	1
97	97	1
162	162	3
233	235	3
18	20	1
158	237	1
196	208	1
162	176	1
89	94	1
226	227	4
11	17	1
41	43	1
196	236	2
92	93	3
243	244	1
61	87	1
9	68	1
204	225	1
61	93	1
117	239	1
156	205	1
145	153	1
40	44	1
200	200	5
191	212	1
225	226	2
72	72	1
167	185	1
73	73	2
179	180	1
5	20	1
49	76	3
159	205	2
39	109	1
214	218	2
113	120	1
189	189	1
103	119	1
65	69	1
172	172	1
166	182	1
160	167	1
83	89	2
1	1	1
14	112	1
175	199	2
110	111	2
54	85	2
157	160	1
220	226	1
1	54	1
41	61	1
161	161	2
13	13	1
85	101	1
2	42	1
80	81	1
163	164	1
218	219	1
119	244	1
62	64	1
9	23	1
157	174	1
216	218	1
209	212	1
88	103	1
6	7	1
150	227	1
42	51	1
