59	59	7
59	60	3
16	16	13
13	13	3
92	124	5
65	69	3
22	23	4
123	124	6
118	118	9
54	54	1
94	94	6
3	57	3
121	141	2
127	129	5
10	25	3
116	118	2
32	32	1
114	114	8
48	48	4
101	101	6
68	68	3
141	141	7
132	133	4
30	43	3
68	78	2
31	33	3
5	6	1
64	94	2
52	54	1
9	9	6
113	113	7
108	108	5
103	103	5
0	0	1
125	125	11
122	122	5
143	143	2
116	116	9
20	41	2
72	72	12
33	50	4
128	131	1
137	137	1
104	104	10
80	80	7
27	28	4
30	30	11
119	120	2
20	20	3
95	96	3
136	136	7
11	25	2
50	50	1
67	142	2
96	97	3
53	53	9
41	41	5
129	130	6
107	107	4
107	133	1
76	76	3
66	118	1
31	31	4
19	19	8
19	144	1
117	137	3
97	97	2
34	56	1
70	110	1
24	24	5
48	73	3
17	18	4
8	9	4
137	138	4
70	83	2
61	61	11
92	92	4
142	144	1
56	66	2
58	61	1
5	5	3
138	138	6
40	40	1
46	47	3
105	124	1
79	80	2
145	145	3
58	58	4
124	127	2
35	64	3
120	139	4
131	131	8
12	73	3
36	36	5
19	143	4
29	29	1
117	117	7
22	22	4
32	42	3
71	71	5
25	25	2
2	82	7
121	121	6
81	131	3
128	143	2
4	16	2
13	33	1
85	85	3
123	125	2
6	6	1
97	131	3
130	130	6
111	111	5
96	96	2
115	116	1
72	74	3
42	42	1
12	12	1
27	27	3
17	17	3
33	34	3
68	121	3
134	134	3
30	76	2
63	63	4
140	141	1
29	77	1
2	5	1
67	67	4
53	54	2
64	64	3
76	77	1
2	18	1
125	131	2
104	106	2
65	65	3
139	140	5
35	88	1
70	70	2
140	144	3
78	82	2
60	60	4
75	78	1
128	128	3
89	89	4
26	26	2
110	115	3
124	124	2
135	135	2
51	51	4
40	41	2
123	123	3
103	104	2
39	39	3
56	56	1
75	75	6
63	70	1
37	38	1
41	106	2
127	133	1
31	35	3
109	132	1
140	140	3
49	56	6
120	121	2
108	125	2
15	15	1
20	25	3
35	36	1
119	119	1
13	63	1
60	62	1
77	77	1
95	95	5
121	125	1
120	134	1
72	121	3
53	74	1
130	144	3
22	24	1
23	23	1
100	100	1
84	86	2
127	130	3
33	33	3
86	130	2
100	103	1
4	9	1
1	1	3
14	14	4
67	84	2
132	132	5
6	25	2
126	134	1
93	98	2
11	40	2
23	29	2
62	104	3
36	37	1
126	127	2
53	55	2
1	70	1
52	111	1
75	142	1
8	8	1
130	141	1
18	141	2
101	143	2
5	50	1
99	100	1
57	130	1
28	28	1
85	89	2
133	136	2
93	112	2
43	51	1
83	106	2
79	79	5
128	129	2
131	133	1
36	129	3
58	110	1
74	74	1
88	88	2
135	138	1
66	70	1
104	141	1
114	140	2
83	98	1
105	105	1
144	144	2
67	133	1
66	82	2
53	70	2
119	138	1
101	102	1
62	63	1
109	137	2
60	67	1
114	138	1
39	41	1
85	93	2
84	132	1
9	41	1
37	109	1
21	34	1
128	136	2
108	109	2
120	120	3
13	20	1
84	139	2
2	4	2
132	138	2
109	136	1
125	136	1
133	133	1
21	39	1
27	29	1
31	58	2
49	52	1
66	67	1
80	82	1
21	33	2
23	24	1
99	140	1
127	128	1
49	49	2
83	83	1
134	135	1
38	38	2
13	21	2
71	72	1
2	62	1
66	85	1
124	134	1
136	137	1
122	123	1
128	130	1
119	123	1
126	139	1
5	13	1
113	142	1
123	138	1
55	55	1
35	35	1
90	90	1
98	98	1
98	141	1
91	91	1
25	38	1
93	95	1
