175	230	1
12	13	7
147	147	9
149	149	11
104	105	11
169	169	15
166	166	10
58	60	1
235	236	5
17	113	3
213	215	2
137	139	3
228	228	3
28	211	12
151	152	5
98	98	3
32	33	7
133	134	5
156	232	3
76	80	5
11	11	11
166	220	2
148	148	6
21	21	14
65	70	2
52	52	10
189	190	3
135	136	6
2	2	19
61	62	1
168	178	4
184	184	8
8	8	11
107	107	13
96	97	4
114	116	1
120	120	5
208	209	5
179	180	4
60	76	2
191	223	2
19	19	15
174	174	13
123	124	3
99	99	10
25	25	12
34	37	2
39	39	6
160	160	10
53	53	12
206	208	1
104	104	9
151	173	2
78	78	11
19	104	1
61	61	13
22	23	7
43	55	2
65	66	4
146	146	4
76	84	2
77	78	7
201	201	3
157	157	5
24	24	6
21	36	2
175	175	7
126	127	6
189	189	5
95	111	1
236	238	7
196	196	8
9	21	1
225	234	2
52	53	5
67	67	14
27	27	11
17	17	10
109	109	6
190	224	3
75	81	2
7	7	8
36	36	5
155	169	6
126	126	7
144	144	3
45	45	15
26	27	3
62	62	13
214	227	5
97	97	8
183	185	2
72	72	1
219	220	3
233	238	2
66	67	3
60	60	5
108	108	15
70	71	4
144	146	6
55	55	7
80	80	11
154	154	3
43	47	7
67	242	5
35	35	3
5	6	8
197	200	1
43	44	2
233	233	11
172	172	8
121	122	3
66	66	11
11	32	1
81	81	8
10	173	4
112	112	8
70	74	1
157	158	5
5	7	2
172	173	3
9	9	15
23	23	8
10	10	23
1	1	7
69	69	3
38	50	4
184	185	4
37	47	2
38	38	11
4	5	9
152	152	7
128	129	3
198	199	5
3	78	4
194	194	4
165	165	11
75	84	7
44	44	11
100	100	3
34	36	2
200	201	2
165	166	2
48	120	2
86	86	10
29	30	6
8	75	3
242	242	8
105	105	5
71	73	5
77	80	5
61	81	2
221	221	2
8	38	2
0	1	4
6	7	1
6	6	19
136	137	3
40	40	9
204	204	10
59	78	5
13	13	3
77	79	1
111	111	6
30	30	5
212	212	3
18	36	1
76	76	8
213	213	7
14	154	3
5	5	10
188	188	12
141	141	5
158	158	8
208	208	2
63	63	7
162	162	7
106	107	1
11	39	2
59	59	5
164	164	9
3	3	7
68	68	10
161	162	2
96	96	3
65	65	19
195	196	5
42	42	13
75	75	9
20	20	12
194	196	4
14	14	4
216	216	9
181	182	8
15	15	6
20	51	4
145	146	2
10	11	4
227	227	25
220	220	7
27	44	3
129	129	4
6	41	3
5	12	1
34	35	8
33	33	9
190	190	5
140	140	5
210	222	2
169	170	5
230	230	10
189	191	2
70	70	10
7	79	2
214	215	9
193	194	4
186	186	1
28	28	18
63	64	7
105	106	3
124	130	10
156	156	10
176	176	11
167	167	14
122	123	4
229	229	6
138	139	7
151	151	8
63	67	5
30	39	3
209	209	8
161	161	3
77	77	2
165	167	1
170	220	6
4	77	1
1	30	2
16	16	17
41	79	1
73	73	9
152	171	2
202	202	7
167	168	3
31	31	7
57	66	3
179	179	8
157	224	4
35	41	3
183	183	6
49	49	7
17	120	2
169	176	2
194	198	2
140	143	2
73	74	2
56	57	1
71	88	2
198	208	2
16	34	4
30	33	4
40	70	2
19	51	4
123	123	5
116	118	3
140	212	2
98	99	2
211	211	9
103	104	2
195	195	5
232	232	6
50	50	7
160	165	1
84	84	7
217	224	4
101	102	2
168	168	5
209	224	1
55	75	2
102	102	8
12	12	20
180	181	5
31	33	3
157	210	3
40	41	8
181	181	8
37	48	5
113	113	2
83	83	9
101	101	7
108	109	4
225	225	14
137	138	8
117	238	3
202	219	1
124	126	3
58	58	5
18	18	14
46	46	8
140	162	2
119	119	4
124	128	2
57	96	4
13	156	3
56	56	12
148	149	2
82	83	5
22	52	3
4	50	4
47	48	3
215	215	5
28	213	3
5	13	4
25	26	1
85	85	5
29	29	12
46	207	1
16	17	4
28	29	6
24	25	3
134	134	6
71	71	10
210	233	3
7	60	1
48	48	4
74	86	1
156	210	1
7	8	10
234	234	2
221	222	3
116	116	4
143	162	3
58	78	2
243	243	1
55	56	2
0	0	7
45	46	2
34	34	5
159	159	7
119	120	5
18	19	3
30	54	1
224	224	6
12	14	1
75	79	3
116	117	2
60	79	4
99	101	2
122	175	1
89	89	2
137	137	4
201	236	3
55	113	1
151	174	6
139	139	2
46	61	1
40	42	2
196	199	4
121	121	2
16	27	1
60	90	5
60	81	1
64	70	2
51	51	3
1	70	1
4	7	3
68	119	5
164	179	1
13	15	2
180	195	1
46	138	2
32	32	2
9	10	2
64	69	2
192	192	6
226	226	6
205	205	2
114	114	2
170	170	5
178	178	5
124	124	4
79	81	3
234	235	4
19	33	2
39	57	3
146	231	3
88	88	9
89	95	2
31	35	2
75	76	3
145	145	3
155	158	2
182	182	2
221	223	4
161	193	1
160	191	1
4	4	3
213	214	1
102	103	1
7	36	4
62	70	1
46	48	1
130	130	2
32	39	1
103	103	7
238	238	4
80	81	6
155	155	3
46	47	3
239	239	4
24	55	1
118	119	2
70	78	3
140	141	5
203	203	8
167	178	2
185	186	1
47	208	2
191	227	3
163	183	1
37	37	2
0	67	2
13	14	2
71	74	3
84	85	4
59	60	6
149	153	2
143	227	1
56	73	1
123	154	2
209	210	4
62	64	2
65	67	3
18	105	1
64	65	7
64	64	2
59	79	1
25	27	1
99	219	1
9	13	3
191	193	2
119	147	2
20	36	1
21	22	7
80	84	1
4	79	4
214	214	2
83	84	2
202	213	1
29	37	1
15	50	1
22	22	6
180	184	2
155	156	3
54	73	4
54	55	1
10	37	2
11	33	1
118	118	4
33	36	1
14	49	1
0	68	4
44	66	2
148	153	5
191	191	3
30	32	1
222	222	10
140	161	1
66	68	1
74	74	2
3	4	3
117	117	4
33	34	1
163	163	7
169	177	2
79	79	6
57	80	2
47	49	2
10	24	2
187	188	2
188	189	2
199	199	3
44	45	3
138	162	1
211	213	2
231	231	5
46	62	1
173	239	1
82	84	2
54	113	1
41	41	7
145	159	2
115	115	2
227	231	2
38	44	1
128	128	3
96	99	2
74	75	2
26	26	11
218	218	5
139	140	2
199	207	1
157	159	3
232	233	3
240	240	5
191	192	2
177	177	8
61	87	3
44	46	1
129	134	1
223	224	3
142	162	2
206	206	7
2	3	2
122	128	1
67	218	1
63	66	1
26	49	1
1	57	1
9	149	3
0	120	1
49	50	2
167	169	3
120	121	1
82	82	3
17	18	1
150	171	3
150	173	1
58	59	1
61	74	1
71	89	2
214	225	1
138	138	2
207	207	3
193	197	1
207	208	1
210	210	8
20	37	1
35	37	3
194	195	1
209	211	4
29	48	1
106	106	3
47	207	1
65	71	1
110	110	1
156	158	3
150	150	2
219	219	2
16	36	2
70	85	3
136	204	2
95	96	2
6	14	2
115	116	1
38	39	1
173	173	4
37	38	5
4	6	2
54	54	4
133	133	2
171	171	2
114	115	4
187	187	1
200	200	2
25	53	1
217	217	2
45	71	2
147	148	1
55	62	1
43	43	3
21	23	2
191	224	1
206	207	2
8	177	3
149	151	1
46	142	1
58	66	1
127	127	2
56	74	4
11	27	1
211	227	2
148	154	2
187	193	1
9	122	1
138	163	2
66	120	1
164	201	1
185	185	1
150	151	1
205	206	1
141	142	3
107	108	1
76	81	1
106	108	1
197	198	1
102	186	2
118	127	2
82	85	1
237	237	3
235	235	1
216	232	1
35	38	1
204	206	1
39	72	1
156	170	1
165	225	1
226	227	2
57	57	3
197	197	1
158	159	1
10	86	1
186	187	1
130	135	1
109	111	2
116	147	1
179	222	1
4	57	1
229	230	1
88	89	1
205	211	1
6	31	2
179	184	3
37	39	2
37	113	1
31	32	1
236	236	1
152	153	1
47	47	3
48	49	1
117	118	1
60	80	1
152	174	1
79	80	1
95	95	1
12	19	1
164	165	1
124	125	1
153	153	1
201	202	2
132	133	1
103	105	2
237	238	1
109	201	3
47	84	1
198	198	2
47	151	2
11	43	1
30	48	1
45	73	1
200	205	2
81	82	1
142	142	1
48	76	1
19	20	1
10	122	1
20	32	2
50	51	2
241	241	1
167	176	1
91	91	1
162	241	1
9	87	1
147	232	1
190	226	2
148	233	1
201	203	1
14	18	1
15	48	1
70	172	2
1	2	1
128	175	1
185	187	1
157	163	1
24	43	1
131	131	1
145	147	1
168	179	1
216	217	1
35	36	2
64	67	1
122	130	1
138	204	1
2	137	1
210	224	1
