195	195	8
35	139	3
217	217	9
37	37	19
66	68	15
61	61	22
112	112	8
51	51	19
237	237	11
96	97	6
4	4	14
0	0	15
145	145	5
25	25	18
1	1	12
151	155	4
38	39	2
232	232	11
19	19	17
27	239	3
56	56	22
231	231	13
69	69	24
133	133	10
39	39	40
46	101	4
182	182	22
204	204	11
65	65	32
3	21	11
62	62	20
25	26	8
28	28	36
144	144	6
67	67	22
172	173	2
167	168	16
143	143	20
33	33	23
16	16	9
115	115	3
142	144	1
26	43	1
138	138	10
115	118	9
122	141	5
185	186	8
47	47	11
188	189	4
41	42	7
214	214	9
177	177	7
38	38	13
240	240	10
9	89	1
8	30	2
30	31	6
80	80	20
30	30	8
26	26	19
151	151	13
156	158	3
85	89	2
66	66	7
39	45	3
29	29	38
207	207	10
103	103	2
172	172	7
142	146	5
49	82	4
160	161	9
181	181	8
43	44	6
230	231	5
88	88	8
179	179	4
199	205	3
60	60	17
34	34	13
185	185	1
85	85	32
135	135	17
136	137	4
187	187	8
138	139	11
229	229	15
128	128	7
197	197	16
34	151	4
237	239	4
10	10	18
63	63	17
64	64	23
236	236	6
116	118	7
109	109	11
107	107	4
207	208	4
70	70	26
48	51	5
109	136	3
224	224	19
55	55	14
8	8	13
190	190	7
198	204	2
114	114	4
31	32	12
43	43	20
13	15	5
1	39	4
125	125	10
3	200	3
239	239	21
196	197	5
22	22	9
172	190	3
24	24	13
0	1	7
86	88	3
76	76	4
147	148	5
176	177	2
6	6	3
58	59	4
22	39	4
66	67	6
12	12	13
13	148	3
217	218	4
128	191	3
161	173	2
82	82	9
142	142	9
136	136	14
45	46	5
172	182	6
192	192	9
71	71	9
101	103	4
242	242	20
183	213	2
149	149	2
20	29	8
209	210	8
48	49	11
85	91	2
72	73	4
173	175	2
14	14	23
165	165	16
69	86	1
32	33	2
3	4	5
178	178	14
208	208	6
54	54	16
111	111	6
223	223	12
127	127	10
158	173	1
158	158	8
162	163	1
113	113	19
201	201	15
101	121	2
11	11	29
44	44	12
173	173	14
174	175	6
9	26	1
81	90	1
206	206	15
42	56	6
8	29	8
98	98	4
20	21	3
159	159	11
24	25	3
166	166	9
30	32	2
199	199	10
213	216	1
57	57	17
189	189	10
169	169	5
51	52	10
77	79	3
21	21	15
182	183	3
46	73	1
233	233	6
27	28	7
102	103	8
183	183	13
70	72	7
238	239	5
97	97	21
216	216	12
230	230	13
67	68	1
102	102	15
191	192	6
228	228	5
101	105	6
73	73	10
18	18	14
205	206	5
78	78	4
23	23	15
119	120	7
16	18	1
122	122	6
42	42	14
114	117	2
68	68	12
202	202	4
212	213	11
206	207	2
6	7	4
200	201	3
83	84	10
22	198	5
45	45	12
2	2	8
191	191	14
137	138	2
17	17	19
29	77	2
241	242	3
12	36	3
137	137	13
196	208	2
46	46	30
27	27	20
84	85	3
117	120	1
201	202	14
210	210	8
25	175	4
125	127	2
68	109	3
85	86	1
28	29	4
210	211	10
9	9	14
234	237	4
52	52	17
142	147	3
57	77	1
121	127	3
74	75	8
227	229	6
15	15	5
13	13	4
204	206	5
174	174	8
14	16	1
48	127	4
163	165	2
13	14	6
3	6	2
14	17	2
72	72	11
113	114	4
202	203	9
190	197	4
103	104	7
116	117	3
220	220	14
1	12	2
98	125	1
107	109	3
236	237	8
70	73	4
22	23	2
65	67	3
77	77	11
77	78	4
229	230	2
65	66	7
7	7	6
139	143	2
15	40	2
86	86	27
40	133	5
177	179	3
140	140	9
151	152	2
211	211	12
104	104	3
130	130	10
80	84	6
124	126	7
106	106	10
79	79	15
11	13	1
26	38	6
177	178	2
143	167	6
194	196	3
36	36	7
53	53	2
46	47	4
69	84	1
228	229	11
123	123	8
2	4	2
83	139	3
11	46	1
58	60	6
9	38	2
142	143	4
20	40	2
101	102	14
22	33	3
80	82	1
54	241	3
24	26	3
41	41	15
63	64	5
107	108	12
155	237	2
123	124	3
171	171	20
218	219	6
144	145	5
35	36	5
81	83	1
40	41	5
196	196	8
24	197	9
67	113	1
205	207	1
35	37	4
178	179	1
220	222	2
27	232	1
69	70	5
127	142	3
128	146	1
235	236	1
225	225	11
39	40	3
150	152	6
161	161	15
150	151	4
21	22	10
61	62	5
44	45	23
45	47	7
164	172	2
159	161	2
7	8	4
40	40	17
73	74	8
49	49	4
105	105	10
154	154	4
203	203	7
129	130	2
81	84	2
41	53	4
115	117	13
187	188	5
70	71	6
31	82	1
117	117	8
225	226	3
66	185	1
20	20	13
227	233	6
43	60	2
167	170	4
190	192	4
57	74	2
219	219	15
47	48	2
34	37	2
116	125	2
74	74	16
3	3	8
130	134	1
11	12	2
118	121	1
154	155	6
56	97	1
54	55	6
219	220	5
186	186	2
184	184	9
190	232	1
15	16	7
134	134	13
126	126	6
198	198	10
49	50	5
157	157	8
188	188	4
163	163	9
59	59	11
32	32	10
241	241	2
20	24	5
16	17	5
164	164	12
2	7	1
127	128	4
114	115	5
54	64	2
133	136	2
62	64	6
148	148	6
167	167	1
152	155	3
152	152	4
235	235	5
37	38	7
17	22	5
166	172	2
77	81	1
60	61	3
12	14	2
68	69	2
45	57	1
0	5	4
28	85	5
39	44	2
50	50	9
13	16	1
180	182	1
126	142	2
53	54	4
62	102	2
221	222	1
5	29	3
148	149	3
88	96	2
19	33	2
215	216	3
56	75	3
227	230	2
26	27	17
119	119	3
33	169	4
164	165	2
24	32	2
112	118	1
106	107	4
130	140	2
108	108	3
158	159	4
186	187	1
198	199	5
86	101	5
120	120	2
69	75	1
59	60	6
228	236	3
227	227	4
2	3	13
75	75	17
110	110	1
23	39	3
156	156	3
134	143	3
35	56	1
171	172	4
10	11	5
223	224	2
84	84	7
144	148	3
5	7	1
99	100	2
238	238	11
28	36	1
23	24	5
78	79	9
23	32	4
102	105	2
226	226	5
111	112	4
64	112	2
240	241	3
156	160	4
24	27	3
159	160	2
208	209	3
60	98	3
16	37	2
0	37	2
83	83	5
71	102	1
180	180	10
134	135	1
104	122	1
18	39	3
179	180	4
5	6	4
19	21	2
200	209	2
126	127	3
149	152	1
155	155	2
160	201	2
197	202	1
118	118	3
133	134	5
199	200	2
29	30	5
212	212	6
168	168	9
12	37	1
101	101	10
48	48	2
218	229	3
209	209	2
61	63	3
54	65	2
104	123	2
157	158	1
51	57	4
23	31	2
9	152	1
58	58	9
161	165	2
1	2	4
183	184	2
27	237	3
159	193	1
153	153	8
111	114	4
3	99	2
190	191	1
140	141	2
118	119	1
67	117	4
222	223	7
82	83	4
213	217	2
159	202	2
165	172	2
189	190	1
175	175	10
222	222	7
7	18	4
224	225	7
207	210	5
216	218	1
150	150	2
64	68	1
146	148	1
75	79	3
51	85	6
24	69	2
7	33	2
149	186	2
65	85	4
228	230	3
11	55	2
134	147	3
240	242	6
96	128	4
209	211	1
8	18	4
76	77	3
109	111	2
39	41	2
36	37	4
33	35	1
31	31	3
211	212	6
145	146	3
152	153	2
128	144	1
146	146	5
191	237	2
23	65	1
117	118	3
63	137	1
147	147	4
5	16	1
82	84	2
222	229	2
15	17	3
68	84	2
165	167	2
6	37	1
32	36	1
78	80	1
75	77	2
97	98	3
156	157	4
26	29	1
62	101	1
49	83	1
6	17	1
207	217	2
1	38	1
224	227	2
47	88	1
30	83	1
42	134	1
132	132	3
141	141	1
160	174	2
13	156	1
226	227	2
62	65	3
200	200	5
104	189	2
122	127	1
170	170	7
9	18	1
41	57	1
182	196	5
141	142	3
45	95	1
52	53	5
12	13	5
162	162	2
234	234	4
9	10	6
97	124	2
48	81	1
34	35	4
19	20	1
173	174	8
55	56	4
233	234	2
155	156	1
25	201	2
99	99	9
62	63	1
81	81	2
214	215	2
62	96	1
11	201	1
48	50	4
45	135	1
35	35	2
4	16	1
153	155	3
203	206	1
23	56	3
135	136	2
75	100	1
184	214	2
57	59	3
214	218	1
49	52	1
25	70	2
239	241	1
149	150	1
50	51	2
175	183	1
86	112	2
152	179	1
26	122	1
69	109	2
205	205	2
4	6	1
231	232	1
129	129	3
123	125	2
209	212	2
131	131	4
215	221	1
100	100	4
42	43	1
162	175	1
213	215	1
160	160	13
121	121	2
62	97	3
9	29	2
120	168	1
194	194	2
215	222	2
19	22	1
139	140	2
143	150	1
17	18	3
135	139	2
4	8	3
237	238	3
44	54	2
153	154	4
81	82	1
177	197	3
56	57	1
67	114	1
9	156	1
44	46	2
157	173	1
128	145	1
23	57	1
69	108	3
161	164	2
95	96	1
76	78	1
155	158	2
145	148	1
2	6	1
30	84	3
1	199	1
212	214	1
105	106	3
167	169	3
123	127	1
36	96	1
19	40	2
80	81	1
121	122	2
128	129	2
21	23	2
50	58	2
96	96	1
3	9	1
215	229	1
223	230	2
11	45	1
26	201	1
5	5	2
115	119	1
130	139	1
221	227	1
97	102	2
22	171	3
184	185	1
5	12	2
47	97	1
17	33	2
98	100	1
232	233	1
180	181	1
162	183	2
165	168	2
69	101	1
27	161	1
98	99	1
79	81	1
77	84	1
71	72	1
109	138	1
8	9	1
51	53	2
216	217	1
236	239	1
104	105	2
75	76	2
20	57	1
29	31	2
1	200	1
208	212	2
171	201	2
54	242	1
69	99	1
11	39	1
144	149	1
34	36	2
55	101	2
194	195	1
101	122	1
32	170	1
13	151	1
102	104	1
10	201	1
20	36	1
39	42	1
9	37	2
171	182	1
17	23	1
233	235	1
29	32	1
215	215	2
227	228	2
105	123	1
128	152	1
164	180	2
61	154	1
49	137	1
218	220	1
6	8	1
29	36	1
142	157	1
190	202	1
29	38	1
89	92	1
198	206	1
172	178	1
106	118	1
122	123	1
14	21	1
164	179	1
201	203	1
139	139	1
