83	83	9
108	108	8
110	110	17
21	24	3
22	23	3
70	71	3
27	27	10
57	87	2
67	84	6
20	25	8
53	53	15
94	94	5
64	64	14
119	121	13
72	72	11
18	35	3
1	1	12
130	130	15
115	115	15
35	35	8
73	73	19
131	131	9
124	124	15
33	34	5
33	33	13
95	95	12
99	99	12
88	88	4
89	90	7
43	43	10
21	22	2
133	133	17
103	103	10
123	124	1
66	67	1
102	103	9
32	33	6
133	134	1
98	98	23
24	24	7
55	131	3
12	12	15
122	122	9
25	44	2
29	75	2
97	130	4
82	114	3
38	38	14
125	126	11
122	131	7
82	82	3
121	121	17
31	31	2
49	49	3
84	111	1
113	113	16
9	9	4
26	26	15
52	52	18
123	123	10
105	105	8
66	82	3
63	63	10
114	114	9
101	101	9
50	134	7
71	134	2
86	109	5
22	22	8
38	100	3
84	96	4
56	86	5
69	69	7
80	80	15
91	91	11
62	63	8
107	107	18
134	134	11
21	64	3
2	3	10
67	67	12
36	36	4
99	103	3
20	20	11
97	97	2
81	119	1
55	58	1
4	5	5
117	117	10
37	38	4
70	120	2
38	44	3
90	91	6
121	122	1
68	68	8
19	24	4
62	81	3
45	46	5
78	78	7
18	18	5
66	66	4
75	75	18
49	50	3
79	85	2
71	71	30
42	45	2
81	81	4
117	118	10
65	65	9
82	85	4
128	130	4
13	13	8
74	75	6
100	100	7
128	128	13
79	87	3
83	111	3
7	8	1
50	50	16
127	127	11
56	56	7
65	83	3
107	113	4
122	129	1
90	126	7
12	13	5
65	67	1
29	29	13
44	44	4
48	80	3
122	123	6
34	34	5
56	83	4
28	28	6
24	36	1
93	93	14
66	68	5
125	125	17
96	113	7
129	129	13
66	83	6
99	125	2
0	1	3
112	112	11
102	102	18
102	112	4
79	86	2
96	111	3
64	113	4
76	79	2
118	128	2
36	38	1
60	97	3
62	62	14
96	97	3
120	121	4
84	85	10
89	104	2
113	114	2
100	106	6
85	85	8
16	16	7
66	113	6
118	120	3
126	127	8
90	125	7
86	88	7
103	104	4
132	133	5
82	86	3
89	89	12
37	44	4
71	72	9
21	21	8
132	132	21
77	78	5
68	80	2
96	96	6
57	58	8
25	25	8
80	94	1
111	111	5
131	133	7
42	42	4
67	115	1
32	32	10
118	119	3
98	116	1
96	129	6
92	92	11
129	130	5
64	65	3
104	104	11
3	4	12
60	96	1
8	37	1
27	61	3
6	7	5
1	2	3
86	87	8
100	124	2
74	74	9
5	5	6
124	125	3
114	115	1
66	84	1
112	119	6
119	119	17
60	60	10
35	36	5
124	131	4
54	93	1
17	23	2
126	126	14
55	57	1
68	69	4
10	11	5
79	79	10
129	133	5
128	129	7
25	56	1
17	24	6
16	48	3
131	134	2
97	98	2
120	128	1
106	119	8
84	84	9
30	30	8
83	99	1
59	64	3
44	45	7
87	87	14
119	120	4
55	120	5
85	96	1
28	29	1
66	85	1
55	55	4
107	108	9
118	118	8
120	120	6
61	61	4
27	105	1
109	110	2
15	15	4
90	90	11
29	60	4
8	8	10
17	19	1
111	132	2
106	106	6
121	130	1
113	129	1
97	118	2
9	11	3
1	3	2
108	111	2
19	19	10
90	121	2
52	84	1
20	54	1
73	89	1
11	11	14
53	83	3
77	77	15
18	19	2
27	96	1
23	23	4
69	70	2
25	47	1
105	114	2
67	79	3
63	64	2
96	105	3
119	122	5
14	14	4
83	85	2
97	115	2
80	106	1
13	69	4
126	128	1
96	112	2
127	131	2
48	48	8
79	115	2
90	98	2
127	128	4
27	31	4
125	129	3
47	51	6
54	129	2
22	53	1
76	76	7
54	54	13
64	68	1
65	68	3
79	80	2
45	45	8
49	123	3
63	81	2
0	0	4
113	115	2
27	28	1
21	23	1
72	73	6
106	107	4
60	127	1
17	17	7
59	59	3
32	104	2
116	118	1
13	31	2
3	3	2
69	120	2
2	2	10
16	54	2
83	108	1
23	24	2
60	128	3
94	95	2
114	117	2
97	99	5
10	10	2
131	132	2
36	42	3
12	108	2
66	99	2
56	57	3
103	124	2
73	75	1
30	103	1
48	50	3
67	112	1
119	125	1
67	68	3
2	105	1
6	6	2
130	131	1
61	95	2
60	61	1
72	101	1
59	128	3
101	122	1
25	54	1
82	110	3
38	69	2
44	46	2
47	71	2
11	12	1
82	123	1
110	117	2
90	93	4
100	133	1
64	87	1
57	57	4
86	120	2
7	104	1
97	129	1
26	36	1
62	88	3
109	114	2
91	115	1
95	98	3
82	87	1
65	89	2
47	47	8
104	105	5
116	117	1
68	81	1
86	86	4
106	122	4
99	100	4
4	4	3
82	83	2
25	35	4
105	127	1
72	75	1
37	65	1
68	87	4
60	86	1
110	120	2
87	88	3
14	15	2
106	109	1
106	108	1
58	58	3
127	130	2
106	115	1
95	132	1
55	59	1
83	84	2
24	25	2
93	129	1
52	53	1
59	60	4
43	45	1
98	101	2
92	120	2
67	80	4
108	112	2
62	70	3
83	122	1
122	130	2
73	74	2
112	114	1
54	55	1
46	79	2
56	117	1
98	128	2
27	81	2
95	113	2
14	86	1
91	97	1
90	104	1
50	87	2
65	80	1
88	109	2
62	72	3
46	46	1
56	64	2
110	111	1
109	109	2
108	109	2
134	135	2
4	74	1
58	83	2
116	116	6
9	10	1
13	107	2
101	103	1
70	70	4
88	119	1
111	118	1
62	106	1
50	86	1
77	80	2
7	7	1
25	49	1
2	33	2
60	92	1
77	81	1
15	16	1
57	59	1
109	119	1
54	95	1
72	74	2
107	109	1
105	119	1
29	30	1
29	31	1
60	81	1
112	115	1
16	36	1
75	76	1
108	110	1
112	113	1
31	104	1
82	111	1
