124	125	3
108	111	2
92	108	4
162	163	4
87	87	2
25	26	2
161	176	1
7	68	3
79	114	2
122	122	2
148	188	7
45	46	4
81	108	5
21	21	8
126	127	3
140	140	1
14	14	1
134	136	4
125	125	7
17	17	8
40	42	1
3	3	4
29	29	5
138	139	1
179	184	1
121	121	5
119	119	1
148	148	4
23	23	4
182	182	3
189	189	3
151	176	2
13	13	2
177	177	5
58	58	2
151	151	4
21	22	2
175	175	4
9	46	3
85	85	4
20	20	8
74	74	2
133	138	2
78	78	4
106	106	3
182	183	3
189	190	1
125	146	6
81	81	5
43	58	4
143	143	6
138	138	3
27	28	2
121	173	3
142	142	2
38	38	6
136	136	3
11	11	2
135	135	2
34	35	1
99	101	2
155	159	1
169	169	5
152	160	2
104	104	5
27	27	5
158	158	3
164	164	3
37	37	3
105	105	2
39	39	1
153	153	2
168	168	5
98	107	2
187	187	3
19	20	1
4	5	1
84	92	2
7	7	2
75	76	1
65	65	1
43	43	2
149	164	1
82	86	2
28	28	5
125	126	1
5	5	2
90	91	4
58	59	1
30	30	4
97	98	2
42	43	4
43	98	1
114	114	3
116	116	1
134	135	6
56	70	2
40	40	5
162	174	1
184	184	2
57	59	2
113	134	2
173	173	2
149	149	2
62	62	3
150	150	3
66	67	2
101	101	1
109	109	2
83	87	1
109	110	1
107	107	2
39	41	2
47	48	4
15	15	2
117	117	1
61	62	1
57	57	1
6	6	5
185	186	3
12	12	4
18	18	4
89	89	2
46	47	2
120	122	1
1	1	2
22	22	1
115	116	3
31	32	3
118	125	1
2	2	3
95	95	4
29	30	3
41	41	3
129	130	2
147	148	1
64	65	1
41	42	1
28	29	3
112	112	2
20	24	2
115	115	1
7	102	1
103	103	1
26	26	2
163	164	3
83	83	2
155	174	1
65	70	1
9	9	1
116	119	1
70	70	1
38	39	1
7	88	1
132	138	1
1	67	2
104	105	1
165	166	1
10	46	1
35	35	1
121	122	3
80	83	1
160	160	3
24	25	1
36	37	1
44	101	1
23	24	3
188	188	1
16	39	1
176	184	2
171	171	1
67	67	2
163	173	1
120	120	1
181	181	1
33	33	1
99	107	1
128	129	1
107	108	1
135	143	1
90	90	1
88	88	1
7	99	1
100	101	1
72	72	1
93	94	1
55	56	1
