107	107	8
111	112	6
19	20	3
60	60	7
127	127	3
83	83	3
21	22	6
79	80	2
93	93	8
77	78	8
29	30	2
84	84	9
96	96	5
59	59	8
80	80	4
35	35	6
134	134	1
78	78	1
17	17	4
45	45	6
81	81	2
73	73	12
101	101	7
67	67	8
79	79	4
129	129	8
47	47	11
103	103	5
87	87	7
28	31	1
4	5	2
49	49	6
66	83	4
10	71	4
90	90	3
5	5	2
109	109	4
11	22	1
83	84	6
94	98	1
62	62	7
20	21	3
115	115	1
92	92	7
6	6	6
76	77	6
127	128	6
69	69	11
57	58	3
67	123	2
133	133	4
48	48	3
21	37	1
6	7	1
81	82	6
32	33	1
60	72	2
11	13	2
72	74	4
83	96	1
11	12	5
88	94	2
14	14	9
2	2	6
39	39	7
118	118	3
117	118	5
36	39	2
26	26	5
90	114	4
31	32	3
110	129	1
98	98	2
71	72	1
17	18	5
47	107	6
75	76	2
106	108	3
66	66	10
108	108	4
34	34	4
8	10	1
46	46	5
94	95	2
25	26	1
70	70	2
5	42	3
26	49	1
75	77	4
95	95	1
15	15	4
85	85	2
6	8	2
99	100	1
55	56	1
21	21	11
28	28	3
111	111	9
25	25	7
37	38	1
106	106	3
9	9	7
62	63	3
18	18	2
46	70	1
7	7	10
30	43	1
130	130	2
123	123	6
12	12	2
56	56	1
74	74	6
94	96	3
94	94	5
29	29	4
116	116	4
75	75	2
102	103	2
8	8	2
132	132	1
76	76	5
86	89	1
38	38	2
40	40	2
19	19	4
65	65	14
97	97	10
1	47	5
86	87	1
34	66	1
86	86	2
45	72	3
33	33	3
109	111	1
2	34	4
131	134	2
51	107	2
0	0	6
2	14	2
26	48	2
47	48	3
117	117	3
15	16	3
83	94	1
65	85	4
4	4	2
98	100	1
22	23	2
124	125	1
60	113	1
29	63	6
2	3	1
82	82	4
45	47	1
7	8	1
32	32	4
10	14	2
36	44	2
6	38	1
132	133	3
3	3	4
33	47	2
70	75	2
61	117	1
20	84	6
31	31	2
2	101	3
44	45	1
20	43	2
3	4	1
10	11	3
31	81	2
100	102	2
82	84	3
26	27	3
95	96	4
68	68	2
12	64	2
29	57	1
19	31	1
110	110	1
11	11	6
11	14	2
88	88	3
86	94	2
73	74	1
7	38	4
114	115	2
57	57	2
36	36	2
129	130	1
63	63	4
21	39	1
126	127	2
105	110	1
37	44	2
42	43	5
128	128	1
1	34	2
13	13	3
41	42	3
131	131	1
114	114	1
76	90	4
115	116	1
124	124	2
16	36	1
42	42	2
90	100	1
26	32	3
85	94	1
43	43	2
120	120	2
89	89	3
126	126	5
8	11	1
120	121	1
47	77	2
51	56	1
71	71	1
61	61	3
92	131	1
47	125	1
60	61	1
34	76	1
104	104	1
45	75	3
38	42	3
27	28	1
59	60	2
70	121	1
7	72	1
90	93	3
20	20	1
102	104	2
85	95	1
93	94	1
27	96	1
0	1	2
15	44	2
96	100	1
21	34	2
50	50	1
90	101	3
105	106	1
32	62	1
84	85	1
46	47	1
50	128	1
13	22	1
33	35	1
9	61	1
