2	2	11
166	166	9
172	179	1
3	9	5
9	23	2
93	93	14
147	170	1
80	95	4
71	71	10
151	173	3
14	21	5
77	77	12
108	108	11
40	40	26
44	44	22
64	66	4
156	156	10
43	43	37
18	18	14
16	17	16
31	31	25
177	177	7
74	75	5
154	154	19
83	83	6
158	159	8
32	33	12
39	39	10
115	115	13
107	107	26
111	111	10
125	127	2
149	149	16
11	11	30
134	134	18
123	123	15
146	146	16
118	176	1
118	118	12
180	180	10
110	110	12
16	16	25
38	38	23
6	7	8
150	151	4
73	77	7
98	98	11
10	26	4
121	124	2
173	173	16
153	163	3
96	176	2
24	25	5
84	85	2
54	55	1
129	148	2
27	27	10
27	28	5
113	114	4
61	61	10
106	106	7
67	67	24
29	29	24
13	13	47
40	139	2
17	17	12
144	145	3
142	142	12
52	55	1
130	131	4
1	3	2
37	37	38
5	5	48
71	72	6
107	125	1
21	44	1
42	42	18
24	24	21
40	44	4
162	162	10
73	73	13
179	179	12
120	120	14
11	12	1
148	148	10
66	66	13
97	98	9
26	26	18
65	65	17
15	15	28
4	5	13
140	141	10
127	127	18
172	172	17
9	11	7
30	30	16
152	165	1
64	64	17
28	28	9
13	29	4
138	138	10
56	56	16
22	22	8
33	33	22
25	25	7
112	112	6
9	9	49
80	81	4
79	79	18
21	21	16
54	54	18
23	24	17
53	54	10
0	1	13
75	75	13
147	147	10
118	119	4
6	6	26
29	30	4
28	30	3
145	145	11
113	113	11
168	168	7
80	80	15
56	57	7
16	18	3
8	23	1
3	10	2
35	35	18
26	28	1
157	158	2
57	59	4
90	91	5
124	125	9
71	75	2
57	57	6
160	161	2
88	88	5
78	95	3
76	76	15
39	41	6
114	114	18
104	104	10
123	124	2
30	31	9
91	91	5
55	55	23
131	132	4
86	87	5
125	125	18
33	34	2
63	63	3
167	167	9
176	176	21
36	36	29
3	12	2
68	68	12
31	44	3
141	141	18
169	170	3
140	140	9
149	150	3
121	121	11
82	82	6
8	8	5
135	136	2
11	13	7
134	173	4
20	21	3
161	161	14
32	38	1
132	159	2
24	28	4
39	40	9
92	92	6
63	64	4
22	26	2
159	159	18
141	173	3
169	169	11
105	105	2
7	7	19
25	28	5
148	150	3
151	151	19
101	101	10
11	22	4
139	139	6
10	10	21
178	178	4
133	133	17
119	119	6
124	148	1
37	38	4
14	36	2
15	140	1
86	86	5
90	93	1
85	85	8
67	70	2
140	151	2
19	20	3
31	33	5
95	95	11
151	167	2
158	158	9
53	92	1
77	78	5
1	1	14
171	171	9
40	41	7
51	51	11
52	53	8
89	89	5
20	31	1
174	174	7
32	32	21
53	80	4
53	53	9
75	76	5
8	9	11
12	12	10
51	75	6
90	90	13
22	27	3
144	146	2
143	147	1
24	27	3
103	107	1
97	113	5
3	4	4
62	97	3
14	14	16
124	124	7
116	116	4
61	71	3
144	160	4
28	52	1
2	3	7
24	26	6
137	137	19
45	45	16
22	23	7
12	13	3
60	60	10
103	103	12
129	129	4
18	22	2
62	66	1
132	132	9
59	60	6
160	160	20
59	75	5
6	8	2
60	107	4
15	20	4
158	167	1
60	61	3
105	107	5
14	15	5
136	136	8
60	80	1
142	153	4
29	32	5
143	144	4
13	22	2
17	36	3
56	60	2
52	52	5
55	57	2
131	131	12
153	153	15
152	152	10
28	29	4
34	34	6
123	133	2
67	86	1
51	68	6
0	0	12
142	143	5
151	152	2
23	23	18
130	130	12
155	156	4
122	122	12
164	165	3
4	4	15
5	8	1
139	140	2
13	14	10
76	78	3
50	51	1
102	102	6
91	92	3
73	74	2
9	10	8
40	140	3
2	8	1
58	58	4
72	73	2
141	142	3
52	76	2
104	105	3
57	58	5
78	78	13
163	163	5
170	170	7
122	124	1
150	152	2
154	170	3
3	45	3
137	138	2
77	79	3
11	143	3
92	94	6
82	83	5
84	84	6
134	177	3
108	109	5
14	43	1
72	72	12
38	39	7
134	179	1
44	136	2
58	59	4
141	143	2
165	165	2
155	155	4
17	18	2
103	104	7
136	137	6
7	8	3
110	111	12
62	62	7
50	104	6
25	40	1
70	70	1
143	143	4
22	29	3
136	172	2
20	36	9
59	59	6
122	123	4
10	11	9
121	122	8
2	5	9
106	175	2
154	155	3
82	93	3
97	97	1
96	96	13
10	14	3
163	165	3
59	71	1
144	144	11
25	30	2
115	121	4
81	81	16
42	107	1
118	127	1
8	26	2
106	118	2
79	94	2
129	146	1
41	41	16
44	45	4
94	94	8
159	167	4
7	9	2
14	16	1
21	22	7
126	128	4
73	80	1
42	43	5
175	177	3
14	28	3
87	87	1
81	84	2
90	96	3
3	3	15
112	114	1
175	175	4
6	36	1
107	135	3
168	169	4
130	144	3
117	118	3
7	21	3
58	77	1
82	96	2
23	42	3
94	95	4
51	52	4
19	19	16
159	169	1
112	113	4
87	88	1
157	157	7
26	27	5
154	156	2
10	157	3
0	38	1
154	172	1
135	135	15
147	148	10
74	83	2
52	92	1
52	89	3
103	112	1
5	6	7
36	37	7
21	35	2
55	59	1
171	172	3
109	109	5
50	50	4
8	25	2
10	13	2
151	153	7
125	126	3
20	20	7
35	36	5
54	132	1
59	80	1
109	111	1
15	16	12
24	45	4
120	121	1
50	62	3
5	143	1
74	74	5
10	33	2
117	119	1
31	32	6
115	117	1
130	145	3
65	66	7
121	171	1
68	71	2
15	18	1
126	126	4
146	147	3
1	2	1
173	176	3
117	121	2
172	173	2
107	122	1
114	115	6
152	153	5
156	163	3
20	143	1
82	90	1
105	106	3
174	175	1
104	112	1
26	41	2
55	56	1
17	24	3
57	71	4
155	170	2
100	101	4
12	22	3
127	128	4
150	153	5
17	32	1
128	129	3
103	110	3
162	167	1
164	164	2
166	175	1
3	5	1
29	31	5
170	174	1
14	37	1
16	36	2
153	154	3
18	19	1
108	128	1
18	20	2
170	171	5
156	168	2
110	126	3
97	101	1
88	89	2
12	14	1
27	31	1
6	150	2
110	112	1
25	26	6
165	166	2
161	162	2
43	44	2
132	133	5
111	117	3
171	176	2
103	121	1
1	10	4
13	44	1
55	106	2
79	105	2
0	37	1
145	157	1
92	93	2
71	76	1
60	71	2
25	27	2
5	10	4
51	89	1
19	143	1
136	174	4
66	67	4
179	180	2
61	63	3
64	65	2
108	118	1
2	6	1
148	149	3
13	37	1
128	128	1
160	163	1
67	89	1
178	180	2
25	138	1
11	145	2
76	77	4
35	44	1
15	37	1
114	129	4
67	87	1
162	163	1
133	174	3
24	140	1
41	42	4
20	37	1
68	109	1
168	170	3
127	132	1
112	115	1
117	117	2
81	96	2
116	117	1
98	99	1
166	167	1
3	7	1
1	146	1
150	150	3
18	24	1
23	25	2
167	169	1
177	180	1
33	35	2
111	113	1
52	109	1
19	21	1
34	35	1
136	138	3
40	43	1
40	145	1
154	157	1
147	149	1
5	144	2
5	39	2
151	174	1
137	140	1
59	79	1
7	12	1
12	43	2
106	134	1
99	99	2
111	112	2
3	16	1
3	8	3
135	175	1
4	42	1
125	131	1
102	110	2
136	173	1
143	154	1
126	131	1
53	55	1
171	173	1
96	97	1
100	100	1
101	102	1
133	180	1
160	164	2
129	130	2
96	98	2
58	78	1
67	68	2
49	104	1
19	42	3
62	63	1
3	17	1
5	9	2
51	67	1
71	137	1
122	146	1
79	80	1
116	118	1
93	94	1
21	29	1
95	96	2
66	68	1
133	134	1
6	16	1
19	43	1
177	178	1
9	44	1
149	154	1
2	15	1
4	13	1
4	7	1
172	178	1
19	45	1
159	161	1
90	115	1
115	116	1
23	26	2
125	144	1
106	121	1
56	58	1
135	176	1
134	176	1
14	39	1
79	104	1
2	16	1
60	64	1
85	86	1
26	31	1
139	150	1
125	135	1
