97	97	12
6	6	13
14	15	10
59	62	8
38	38	10
13	18	7
116	117	5
102	107	4
73	103	3
126	127	8
119	119	6
131	131	6
10	12	2
29	33	5
83	85	1
56	120	3
5	5	13
86	88	8
17	17	2
86	86	3
33	33	13
12	12	11
67	74	1
124	127	4
45	46	4
103	104	3
69	69	6
77	98	10
67	68	4
9	10	3
81	81	19
71	71	14
89	89	13
87	87	5
129	129	8
79	79	5
92	93	2
96	96	5
54	89	4
125	125	15
13	13	15
27	27	14
98	98	14
8	10	3
123	123	9
109	109	17
122	122	15
10	63	2
115	115	15
54	54	18
3	60	4
101	101	9
25	25	8
82	126	3
77	99	1
43	43	10
83	84	8
126	128	4
54	76	2
21	24	2
94	95	9
90	90	11
20	20	10
100	100	11
90	114	2
15	15	7
83	87	12
53	53	7
5	117	4
94	94	7
91	114	1
100	114	2
41	44	2
49	96	1
78	78	21
4	4	10
103	103	11
59	59	7
81	97	5
34	34	6
77	77	5
132	132	5
66	66	10
118	118	10
117	117	4
101	116	5
45	45	7
26	26	14
131	132	2
58	59	8
61	61	5
126	126	5
91	102	2
62	63	1
73	73	7
2	2	11
113	113	5
54	115	1
30	30	8
74	77	1
46	47	2
94	112	2
104	124	5
83	83	8
124	124	11
3	5	4
130	130	4
14	24	3
0	1	7
102	102	5
39	75	2
107	107	10
39	39	12
84	84	7
55	55	5
114	125	2
40	41	4
41	41	8
114	119	3
129	130	5
24	46	1
127	127	11
91	93	2
45	90	4
48	49	3
103	108	5
88	89	2
96	99	2
11	11	6
1	1	11
74	74	5
110	110	8
23	23	6
52	52	13
28	29	2
48	69	2
22	23	2
104	105	10
110	111	2
97	101	2
67	67	9
3	59	2
85	88	4
62	78	2
21	21	4
128	129	4
41	42	6
116	116	4
57	58	2
121	121	17
71	106	3
88	88	11
64	67	2
7	110	4
58	58	4
56	56	19
64	64	3
44	68	3
60	61	2
40	91	1
93	94	5
16	29	1
46	46	2
12	29	1
58	62	2
109	124	1
110	112	2
91	91	5
32	32	8
38	39	11
124	125	4
104	108	1
52	53	9
102	103	3
1	6	1
104	104	5
44	45	4
31	32	4
132	133	3
85	105	2
49	50	3
72	82	6
9	29	4
42	42	12
62	62	9
72	72	2
12	32	2
77	89	2
43	72	3
73	102	1
84	86	4
63	63	3
54	56	2
25	30	6
47	47	10
40	68	2
128	130	3
84	85	2
109	110	3
60	60	8
85	85	2
70	122	1
42	43	1
113	114	10
70	70	5
49	49	19
13	16	3
4	5	1
44	44	3
40	42	1
32	57	3
31	31	3
54	64	1
57	57	5
14	41	2
28	92	1
77	80	2
9	30	1
82	87	2
6	11	1
108	108	6
51	52	4
93	93	3
16	16	5
47	48	2
83	102	1
7	7	6
80	99	2
133	133	2
16	17	4
51	51	10
45	67	2
79	80	1
74	75	1
54	55	2
80	80	15
105	105	3
106	107	5
10	10	3
97	127	3
24	24	11
60	118	3
14	14	4
30	38	2
120	120	3
74	101	1
107	109	1
73	90	2
30	31	5
50	50	9
69	88	2
71	88	1
17	18	3
125	129	3
125	126	1
19	20	3
14	19	1
43	68	1
43	84	1
113	127	4
58	119	2
105	109	2
72	107	2
68	68	4
59	118	1
112	131	3
54	105	2
72	73	1
8	8	4
92	92	4
75	75	4
50	52	1
53	54	3
54	95	2
54	104	1
106	106	1
111	120	1
99	99	9
128	133	1
29	30	3
95	95	7
111	114	2
82	82	6
99	100	6
86	87	5
19	19	5
0	52	1
62	77	1
3	3	1
0	0	3
69	94	1
81	82	4
115	116	6
76	76	3
13	41	2
103	107	1
11	12	2
111	111	3
48	48	5
68	104	1
55	56	2
71	81	1
12	70	3
26	46	1
103	126	1
104	131	3
90	91	4
12	47	1
101	108	1
47	77	2
41	77	3
73	94	2
63	117	5
6	10	1
108	110	1
114	115	1
78	79	7
12	27	3
113	131	1
63	118	1
43	45	2
98	99	1
114	114	2
8	29	1
70	71	5
112	112	4
73	78	1
51	121	1
30	65	1
105	106	2
91	125	1
108	128	1
55	119	1
69	113	1
55	113	1
88	104	1
95	96	1
92	94	1
0	119	2
108	126	2
113	115	2
39	55	3
44	66	1
15	16	1
82	83	1
22	22	2
40	96	2
78	100	1
41	45	1
28	28	4
1	51	1
56	57	1
73	74	1
11	33	3
89	90	1
2	6	1
16	22	1
96	98	1
1	2	2
13	40	1
8	30	1
121	122	1
65	65	2
43	44	1
53	104	2
78	82	1
128	128	3
108	109	1
102	104	3
30	66	1
120	122	1
18	19	1
18	25	1
79	84	1
101	127	1
80	81	3
21	22	2
2	3	1
49	121	1
14	18	1
54	116	1
39	76	1
69	72	1
18	18	1
105	124	1
40	40	1
122	123	1
6	54	1
23	24	1
34	88	1
68	105	1
86	89	1
65	66	1
51	53	1
65	67	1
0	51	1
6	118	1
131	133	2
54	75	1
39	40	1
57	107	1
33	75	1
117	118	1
93	111	1
