79	79	2
130	131	8
117	117	4
33	33	3
70	70	1
127	127	2
49	77	1
95	96	3
55	61	6
44	45	2
67	67	3
29	30	4
64	65	6
112	112	2
84	84	3
38	38	1
110	110	4
117	130	4
10	129	3
44	44	2
59	59	2
52	53	1
23	24	3
71	71	4
8	8	2
53	81	1
91	91	1
32	79	2
18	22	1
6	6	4
102	102	2
102	124	1
21	22	3
92	129	2
4	4	6
72	72	3
78	79	7
98	100	3
78	78	3
119	120	1
45	51	2
86	111	1
99	99	4
52	52	3
0	71	2
44	52	1
57	57	5
57	58	4
29	29	2
100	101	2
103	103	3
124	134	3
54	54	1
132	133	6
65	68	1
43	43	2
67	78	5
125	125	1
95	105	1
80	80	3
12	73	1
35	45	1
77	77	2
109	109	1
113	116	2
104	104	4
117	118	3
75	75	5
5	6	3
70	71	1
108	108	5
94	123	1
86	87	1
11	45	1
111	111	4
87	87	1
57	59	4
18	18	8
14	20	2
124	125	1
108	111	2
5	5	1
108	113	2
61	90	2
105	114	1
55	56	1
94	94	3
74	74	4
52	59	1
118	118	3
92	101	3
14	14	2
19	23	1
27	76	1
105	105	4
24	24	1
88	88	4
13	15	3
63	65	5
60	60	5
135	135	1
91	101	1
89	89	3
97	98	2
9	9	2
129	129	4
93	94	1
62	62	1
134	135	1
98	120	1
60	69	2
45	48	1
13	13	1
97	100	2
54	55	2
93	126	2
113	113	4
76	76	4
65	65	2
9	10	3
56	57	1
126	126	2
69	78	1
11	11	1
11	89	2
134	134	1
83	85	1
80	81	1
66	67	1
10	10	3
81	91	2
86	108	1
71	115	1
58	59	1
56	59	2
50	69	1
126	127	1
106	124	1
83	83	1
92	92	1
4	5	1
64	64	1
123	123	1
15	15	2
116	116	1
122	125	2
67	68	1
28	28	1
69	70	1
89	90	1
79	111	1
19	20	2
100	100	2
127	128	1
66	66	2
130	130	3
94	95	2
82	83	2
22	25	1
2	2	1
60	61	1
82	96	1
7	8	1
101	101	3
23	59	1
19	19	2
58	58	1
73	77	2
121	123	1
49	49	1
37	37	1
61	61	1
111	112	1
54	59	1
85	87	1
31	31	1
129	130	1
96	96	1
79	80	1
54	113	1
81	87	1
88	117	1
69	73	1
101	106	1
82	82	2
6	25	1
55	55	1
76	105	1
97	97	1
63	63	1
