67	86	2
13	14	4
230	230	5
51	51	9
44	54	1
70	71	2
80	83	2
77	84	7
167	168	5
176	176	2
101	101	5
174	175	6
128	131	3
125	127	4
4	8	1
19	19	10
31	81	2
37	37	7
113	113	5
98	100	2
70	70	9
103	106	1
195	195	1
236	236	7
66	66	10
100	100	13
46	46	6
219	219	6
81	81	14
213	213	2
217	218	8
228	229	4
211	211	4
14	14	8
146	187	5
65	65	4
203	221	3
21	49	3
63	64	4
142	142	8
44	45	1
12	59	1
69	75	1
207	208	5
200	220	1
4	6	2
41	41	8
235	235	6
235	236	2
24	62	1
33	33	1
81	100	3
173	178	2
42	43	1
5	5	5
168	185	4
58	58	11
8	20	1
44	66	1
123	123	4
8	38	1
135	135	4
143	143	7
228	228	4
153	154	11
14	15	3
12	35	1
3	3	7
205	224	4
231	238	2
99	103	1
48	58	3
76	78	3
168	168	3
76	76	4
186	186	4
72	72	3
214	214	4
139	140	4
177	177	6
205	205	3
147	196	6
83	84	3
172	172	3
11	11	12
142	143	2
194	194	7
9	59	4
29	42	1
40	40	2
27	27	10
193	197	3
27	28	6
205	206	2
152	152	3
12	14	3
10	10	11
137	138	3
29	29	8
71	75	2
18	18	4
16	17	7
84	84	2
43	43	3
124	125	1
35	35	1
187	187	1
130	130	4
218	218	5
112	112	5
196	196	3
126	127	3
144	146	1
232	232	5
77	78	2
86	86	3
61	61	11
52	52	5
88	88	3
16	41	2
30	30	6
3	5	2
158	171	1
111	111	3
50	50	6
131	133	6
236	237	2
75	75	4
86	118	8
102	102	4
35	51	8
26	26	5
25	25	3
208	208	1
190	192	3
119	134	2
69	69	8
183	183	5
190	190	5
64	69	1
118	123	1
191	194	2
170	170	2
99	131	3
233	233	4
97	97	7
129	129	12
17	17	5
54	54	5
7	8	2
56	57	7
7	7	8
237	241	2
28	64	1
51	52	5
200	202	3
58	59	3
199	220	3
6	159	1
74	74	5
185	185	1
209	210	3
202	202	2
163	163	2
82	101	1
237	237	1
53	53	3
197	237	2
91	136	1
192	192	2
24	64	5
95	188	3
160	160	2
4	7	1
220	220	1
216	216	4
23	23	14
73	113	1
21	21	3
42	62	3
138	138	6
142	175	5
206	206	3
148	148	8
3	191	1
217	220	1
108	108	3
218	224	1
82	82	8
42	191	1
98	168	1
89	128	2
162	169	5
31	31	2
8	21	2
26	46	2
153	153	6
30	78	2
157	163	1
184	184	2
45	45	7
231	236	4
57	57	3
178	178	8
53	208	1
128	136	1
73	73	1
38	38	4
13	34	7
40	79	3
129	130	1
221	221	2
68	77	4
150	150	4
3	8	1
18	20	1
1	1	3
200	200	4
107	127	6
117	117	3
158	158	2
37	46	1
82	83	2
162	165	1
32	32	3
19	20	2
184	185	6
212	212	3
239	239	5
154	184	1
3	4	1
5	6	11
55	55	2
68	68	3
191	192	2
216	242	3
13	32	1
68	102	2
139	139	1
0	0	7
64	67	1
28	28	6
124	133	1
177	178	1
22	40	2
81	82	1
165	166	1
3	16	3
15	37	2
67	68	3
40	50	1
212	242	1
232	233	3
171	171	4
28	86	2
189	189	1
200	201	1
13	13	3
80	104	2
154	197	1
35	54	2
147	159	4
71	71	3
22	22	4
145	190	1
39	39	6
127	139	3
38	39	1
178	179	6
42	42	5
173	173	2
34	35	4
20	21	1
61	75	5
15	15	1
20	64	3
51	53	1
210	211	3
9	37	2
30	31	2
134	134	5
241	241	3
192	196	3
74	85	3
201	201	2
14	41	1
8	8	3
77	77	3
207	207	2
9	9	3
48	48	4
96	130	4
118	118	1
169	169	1
76	80	2
199	199	2
99	99	3
64	64	2
24	24	2
204	228	2
36	36	1
164	164	3
62	63	1
121	121	2
41	51	1
3	39	1
99	108	2
16	16	4
180	182	1
2	3	1
187	190	2
140	159	1
23	33	2
229	229	5
40	89	1
150	191	4
21	36	2
109	113	2
210	210	2
162	163	3
11	13	2
100	101	2
120	120	2
170	171	1
20	23	2
8	17	1
225	226	2
238	238	4
234	234	3
133	133	2
115	122	1
76	77	2
192	193	1
193	193	1
27	46	1
190	198	1
240	240	2
226	227	4
169	171	2
158	163	2
13	178	1
233	234	1
3	170	2
103	107	1
225	227	1
39	51	3
166	167	1
138	175	1
63	63	1
75	76	2
167	167	3
205	221	2
124	124	1
48	49	4
79	79	1
138	139	1
208	210	3
114	114	1
54	55	1
52	53	3
30	35	1
103	108	1
227	227	3
31	41	1
83	83	2
37	45	1
173	184	3
210	212	2
157	157	3
95	95	1
22	35	2
106	106	2
65	102	2
191	193	1
128	128	2
174	174	2
22	118	2
6	6	5
165	185	1
242	242	1
129	141	1
144	144	3
206	207	1
10	159	2
36	54	1
198	198	3
59	59	3
66	81	2
115	116	1
204	204	5
197	197	1
102	119	1
104	104	2
30	57	2
226	226	1
154	154	2
21	48	2
81	106	1
161	161	1
175	176	3
166	188	2
139	143	2
230	237	1
4	5	1
78	79	1
214	242	2
109	110	2
181	181	1
136	142	1
33	39	1
56	56	2
145	145	1
122	122	1
28	29	1
113	120	1
78	78	1
145	157	1
141	142	1
67	67	1
198	222	1
203	203	1
33	54	1
159	188	1
66	67	1
7	17	1
148	149	2
83	103	1
23	40	1
166	166	1
215	215	1
46	47	1
108	109	1
80	106	1
10	20	1
2	2	1
39	67	1
120	130	1
17	18	1
160	161	1
116	118	1
136	136	1
103	103	1
162	162	1
222	222	1
209	223	1
192	198	1
205	222	1
218	223	1
138	140	1
