117	117	6
45	45	8
88	155	4
89	149	4
113	152	2
18	19	9
105	105	9
184	184	4
21	21	9
61	62	2
2	2	9
112	112	18
148	148	21
116	117	3
57	58	4
172	173	6
94	94	21
46	46	4
24	25	2
81	81	21
174	174	12
76	76	8
62	63	2
176	178	4
12	12	2
18	18	6
164	165	1
25	25	5
118	119	5
3	3	16
120	120	21
12	14	6
90	95	3
129	129	25
162	169	2
75	75	18
155	155	2
37	37	4
92	92	5
153	153	9
13	16	4
168	170	1
16	16	9
144	144	11
42	74	2
138	138	8
134	134	8
17	17	8
183	183	11
84	106	10
151	155	3
124	124	9
30	34	1
137	155	5
58	58	3
93	93	1
30	56	1
59	63	4
113	113	11
23	24	12
180	180	7
71	71	7
53	54	7
83	84	4
142	143	3
186	186	10
25	26	7
101	102	4
90	91	10
40	40	12
47	48	4
41	77	1
46	48	2
11	11	7
102	126	1
151	151	4
6	6	25
133	133	12
137	156	2
7	7	18
159	159	9
89	89	15
55	56	7
132	138	2
88	88	11
168	180	3
146	146	6
179	180	1
11	14	3
22	22	3
36	36	1
63	64	2
164	171	1
175	177	2
188	188	8
122	122	4
68	68	12
60	62	4
53	53	14
86	86	11
70	70	6
187	187	13
101	101	5
171	171	9
107	108	1
77	77	20
130	162	3
183	184	2
19	19	11
27	27	7
13	28	4
42	48	4
143	143	5
95	95	8
55	57	2
111	152	2
34	34	6
24	24	14
97	97	4
78	78	8
73	73	9
147	147	5
84	155	1
78	79	16
156	156	9
43	43	1
30	30	5
119	120	1
66	67	2
172	186	2
152	152	8
136	165	1
56	119	5
91	91	4
176	176	8
34	36	3
33	33	3
37	55	2
1	2	4
0	3	3
148	149	4
103	103	7
3	8	2
55	55	13
13	13	10
123	123	21
125	126	4
159	183	2
109	109	11
25	30	2
137	137	2
108	108	6
48	48	8
0	0	10
32	33	5
154	154	8
99	125	1
92	94	1
60	60	4
169	170	1
171	177	1
130	132	1
150	150	8
163	163	7
20	20	2
29	31	3
130	130	11
166	170	5
26	27	2
57	57	5
65	68	2
130	149	1
125	125	5
166	178	2
172	180	1
99	99	9
4	6	2
162	162	6
115	115	2
67	68	2
31	35	1
73	84	3
105	115	1
5	5	5
74	74	23
87	98	3
58	60	5
87	99	4
9	9	4
94	95	3
126	126	2
95	104	1
35	35	7
1	1	6
10	10	6
64	64	8
182	182	11
66	66	3
63	65	2
23	23	9
145	145	5
72	72	6
128	130	1
174	175	2
75	79	2
36	37	2
54	54	8
184	187	3
87	87	16
14	14	3
182	183	3
83	83	9
118	118	1
44	44	6
110	111	5
100	102	8
30	38	7
166	166	2
82	82	5
121	121	2
30	31	5
8	8	8
136	138	1
34	35	9
164	164	9
85	86	5
110	110	8
21	31	1
128	128	7
190	190	2
127	128	1
167	167	5
178	178	5
135	135	5
29	29	4
28	30	3
114	128	1
117	118	3
39	39	7
126	127	9
106	114	2
30	39	2
188	189	17
168	168	8
4	33	1
38	38	9
59	64	1
157	157	5
87	157	1
96	96	10
28	53	3
38	39	8
9	12	4
43	45	3
62	62	6
133	135	2
165	165	9
68	69	5
185	185	5
185	186	2
104	104	7
74	75	2
76	83	3
175	175	4
99	104	3
84	84	8
42	42	4
117	168	3
59	60	4
179	179	5
33	36	1
150	157	1
149	149	4
164	167	2
164	166	1
98	99	2
15	15	8
142	144	3
56	56	7
78	116	2
131	131	2
125	134	2
180	181	7
123	124	4
75	76	3
140	140	5
142	149	7
181	182	3
57	79	2
29	30	2
169	185	2
97	98	2
73	74	3
134	136	3
140	141	4
109	110	11
172	174	8
90	90	12
142	151	1
77	78	3
100	100	5
139	139	10
95	96	5
4	5	10
80	80	5
173	174	3
12	13	3
148	155	2
121	122	2
96	98	2
132	133	5
42	44	2
147	148	1
5	30	4
99	109	2
32	34	1
169	169	4
17	18	7
86	104	1
80	81	3
156	159	3
53	55	3
120	167	1
82	83	6
130	131	4
41	89	3
27	29	3
56	173	5
155	158	3
47	47	1
31	31	3
88	89	6
54	55	4
32	32	5
70	102	2
66	76	1
0	10	2
83	116	3
38	41	4
167	168	7
154	155	2
153	154	4
26	26	3
16	19	2
55	79	4
92	93	7
9	10	2
80	82	4
134	135	2
55	61	5
57	60	1
91	116	1
49	49	2
152	183	2
160	161	1
142	142	5
133	134	4
105	106	6
37	41	1
71	101	2
108	113	4
157	158	2
131	132	1
59	61	3
98	100	2
127	127	3
70	71	7
107	107	5
17	24	2
173	173	4
86	96	1
138	139	4
44	45	7
88	136	1
149	156	3
71	73	1
83	104	1
44	47	1
22	23	2
177	177	3
102	104	3
56	57	2
158	161	6
86	87	4
60	61	2
52	53	1
56	168	2
52	52	3
30	91	2
77	166	2
14	15	3
75	83	1
65	65	2
43	44	4
2	3	7
22	24	1
41	42	2
141	148	1
87	89	2
101	103	3
81	82	2
122	124	2
111	111	2
154	164	1
177	184	4
117	119	2
24	31	1
0	1	3
103	104	2
122	173	3
166	168	1
10	11	2
40	88	2
61	63	1
68	77	1
165	168	3
124	178	1
56	61	1
57	62	3
83	117	3
2	6	1
85	85	6
65	67	2
106	106	4
79	79	3
174	187	3
111	112	2
23	26	2
54	88	1
83	89	2
180	182	1
36	56	3
91	92	2
58	59	1
136	136	1
124	186	1
6	36	1
6	31	5
114	114	5
72	73	3
10	13	1
84	85	2
131	135	3
173	186	1
170	185	1
31	38	1
145	147	3
65	66	1
70	109	2
37	38	1
170	170	5
1	8	1
111	154	1
73	76	2
57	61	1
21	22	1
66	69	1
15	16	1
95	112	2
28	28	1
130	140	1
106	109	1
93	94	1
15	20	1
66	68	1
184	185	2
42	43	1
156	157	1
110	112	1
13	14	1
0	2	1
6	37	1
74	139	1
53	145	1
20	33	1
24	39	1
110	129	1
109	166	1
13	15	1
26	30	1
61	61	2
107	109	1
10	12	2
81	96	1
85	107	2
129	140	1
41	41	3
64	80	1
162	163	1
103	118	1
27	53	1
33	35	1
109	188	1
0	8	1
41	90	1
101	113	1
83	118	1
69	72	1
63	63	1
58	63	1
46	47	1
184	189	1
153	184	1
116	116	1
70	74	1
6	23	1
99	110	1
186	187	2
91	111	1
31	33	1
