95	103	3
85	85	5
37	37	3
89	90	3
62	62	3
29	29	2
50	51	1
26	29	3
32	56	2
36	59	3
23	25	4
78	79	5
84	84	10
93	93	8
26	31	5
95	106	3
51	52	2
55	60	3
97	97	10
45	114	1
98	98	8
83	84	4
38	38	4
99	100	4
46	77	2
96	97	5
42	43	3
97	106	1
27	58	1
109	109	4
78	83	2
73	73	5
99	106	2
28	29	7
43	44	3
68	68	6
49	49	3
95	97	3
27	27	3
40	41	3
23	23	1
39	78	3
70	70	9
25	27	1
24	24	6
105	106	1
48	48	2
44	44	6
45	45	4
25	25	2
20	51	1
84	85	4
98	103	3
76	98	2
48	49	5
101	101	5
27	28	1
43	43	6
86	86	7
81	81	2
74	75	2
47	48	2
20	20	2
106	106	11
104	105	2
49	92	2
56	71	1
27	29	1
40	69	3
80	81	1
19	51	3
76	77	8
75	75	4
96	96	4
60	71	1
30	32	2
33	33	2
22	25	3
31	67	1
31	31	3
77	81	3
88	88	1
66	67	5
33	35	2
88	89	3
67	67	2
55	55	5
60	60	2
59	59	4
97	98	4
57	57	6
51	51	3
97	100	3
36	37	1
72	72	3
71	71	2
83	86	1
113	113	1
57	91	5
93	107	2
114	114	2
36	36	3
76	76	5
56	56	1
60	76	1
41	102	2
34	34	4
77	77	3
95	96	1
108	108	1
33	34	1
91	91	6
64	77	2
34	35	1
47	47	2
94	96	1
52	52	4
61	62	3
58	58	1
79	79	3
105	105	4
87	87	4
94	104	1
112	113	2
111	111	4
21	23	1
62	64	2
44	46	1
75	76	1
80	82	2
92	101	3
100	100	6
22	62	1
66	69	1
41	41	4
101	103	3
20	50	1
82	83	2
39	39	2
74	79	1
74	74	2
24	48	2
64	64	2
43	47	1
50	50	1
89	91	4
47	52	1
87	88	4
71	75	5
35	35	3
108	109	1
49	67	2
110	110	2
42	42	4
95	95	3
92	92	2
83	85	1
46	46	2
22	23	1
104	104	4
24	25	1
82	85	1
102	103	1
93	94	1
103	103	2
20	67	2
109	111	1
29	54	3
99	99	2
29	63	2
38	39	1
85	110	1
90	90	2
23	24	1
39	69	1
86	109	1
77	97	1
28	28	1
52	61	1
76	99	2
25	26	1
29	59	4
26	26	1
94	94	1
115	115	1
34	58	1
80	80	1
45	46	1
104	107	1
98	105	2
65	66	3
56	75	1
39	40	1
53	54	1
83	83	2
63	64	1
22	28	1
24	50	1
56	57	2
109	110	2
38	102	1
41	107	1
41	114	1
66	66	1
40	40	1
21	25	2
65	65	1
102	102	1
