45	46	6
180	180	4
172	227	2
106	207	6
52	53	2
24	54	4
133	135	4
76	76	4
2	73	1
86	87	5
35	49	7
55	55	4
225	225	3
28	74	2
28	29	5
128	128	5
81	81	4
211	213	1
134	134	6
41	44	1
45	45	14
165	186	1
7	7	6
197	197	3
151	151	6
70	71	7
50	69	4
118	120	4
208	208	4
18	18	9
201	201	4
3	8	2
10	10	10
211	211	4
183	183	4
187	187	6
146	146	7
103	104	3
139	172	4
18	19	6
217	218	4
165	165	4
14	15	1
190	190	7
212	212	1
122	124	1
133	133	7
209	211	3
62	67	6
101	176	5
36	36	6
226	227	7
103	103	6
58	58	9
3	3	5
64	65	4
17	19	1
154	155	5
99	99	6
150	200	3
43	54	3
82	83	3
85	85	4
25	25	4
102	114	1
182	183	1
10	11	4
49	49	12
71	191	1
192	192	5
43	43	12
4	4	5
151	157	8
137	138	5
44	44	2
231	231	5
141	141	5
52	54	2
40	42	2
26	26	5
46	61	2
164	168	3
72	72	7
25	27	4
83	83	6
80	81	3
186	186	2
205	205	9
242	242	8
116	117	3
100	100	8
172	242	4
37	37	6
212	218	1
107	108	3
66	67	7
140	140	2
229	229	2
156	156	3
75	75	8
15	16	1
129	218	2
66	66	8
74	97	5
74	74	8
72	73	3
60	60	6
147	147	3
95	124	3
173	190	3
211	218	1
209	220	2
68	68	11
233	233	4
209	209	5
170	176	1
178	178	8
22	22	2
194	208	6
215	216	3
10	224	3
3	30	3
30	59	3
27	42	3
142	142	4
69	69	8
20	20	2
129	129	4
42	42	4
108	108	9
6	8	2
4	7	1
51	51	6
138	138	5
159	189	1
174	182	4
206	206	3
44	54	1
123	123	1
65	65	5
27	27	4
13	14	3
35	36	5
29	31	3
58	80	4
31	31	6
192	193	6
128	178	1
214	215	8
4	5	6
9	21	2
124	127	3
21	21	2
1	3	1
0	6	1
60	82	2
164	165	9
101	101	5
32	32	3
95	95	1
202	202	2
121	124	6
30	30	3
154	156	3
74	114	2
7	8	6
120	120	2
144	201	7
2	4	1
54	54	1
135	137	2
126	126	1
71	236	4
86	86	4
38	209	2
225	226	1
19	21	1
70	70	2
41	41	8
230	231	2
184	185	1
183	186	3
134	138	1
119	119	1
96	97	3
50	51	3
38	42	3
163	163	2
60	81	3
203	203	6
110	111	1
199	199	3
40	173	2
19	19	9
147	158	1
155	155	5
21	23	4
36	59	3
68	78	2
98	103	4
184	186	3
236	237	4
56	56	1
177	200	3
232	232	1
158	203	1
127	127	6
20	27	2
2	2	3
183	189	1
135	135	3
151	212	1
9	15	1
89	89	4
84	111	1
109	109	6
5	6	1
158	159	1
3	5	3
208	220	1
117	118	5
15	15	5
125	126	3
222	222	3
57	108	2
0	1	2
63	64	1
65	66	1
13	13	4
198	198	7
6	12	2
169	169	7
5	12	2
186	187	1
73	73	4
200	217	1
80	205	3
161	204	1
224	224	4
28	28	4
162	163	2
166	181	2
154	157	2
71	71	9
179	179	2
0	68	1
217	217	2
39	63	3
181	183	1
115	115	3
197	198	3
177	177	2
122	148	1
218	218	1
116	119	2
83	86	1
170	170	3
35	79	1
34	36	3
104	104	2
181	181	3
114	117	2
12	12	1
41	52	2
19	20	1
157	157	7
60	78	2
235	236	2
219	220	5
159	159	9
193	193	2
88	88	3
53	53	6
155	233	2
241	241	2
213	213	3
33	51	1
49	50	3
179	180	2
78	78	6
210	220	3
57	57	4
106	106	1
68	76	2
133	134	3
145	183	1
102	104	1
47	47	1
182	194	2
64	64	5
62	62	1
227	227	3
5	7	2
191	192	2
114	115	1
108	109	1
175	178	2
104	105	4
144	144	6
171	171	3
137	147	1
103	125	3
78	106	1
14	14	3
63	63	2
144	158	1
111	112	1
48	50	1
58	60	1
52	52	1
213	216	2
184	184	2
102	102	1
216	216	1
168	168	2
204	204	5
196	196	5
0	4	1
220	220	2
207	230	2
172	172	3
24	26	5
216	218	1
68	69	3
114	114	4
8	72	1
38	38	1
215	215	2
194	194	5
119	127	1
84	90	1
181	190	3
213	215	1
227	228	1
1	13	3
174	179	1
120	121	1
16	16	3
173	178	2
193	196	1
5	5	1
10	15	1
9	20	1
40	40	6
173	173	4
75	79	1
221	221	3
4	13	2
152	201	2
181	185	1
152	152	1
8	8	3
139	139	2
20	24	1
102	105	2
83	84	2
28	31	1
188	217	1
35	35	4
161	161	2
151	204	2
131	133	3
121	126	1
172	173	2
35	37	2
153	153	2
123	127	2
8	205	1
30	31	1
81	82	3
230	230	1
59	60	3
207	207	1
119	120	1
29	30	2
121	121	2
2	7	1
173	174	1
134	136	1
149	149	1
156	203	1
53	57	1
37	39	2
12	71	1
142	184	3
33	33	1
25	38	1
1	4	2
44	45	6
67	68	1
151	215	1
13	16	1
153	154	1
176	205	3
239	239	1
82	84	2
201	232	1
0	0	2
180	181	1
104	134	3
84	84	3
125	125	1
130	166	1
197	241	1
137	137	1
40	41	1
23	80	1
219	219	3
27	28	2
156	157	1
181	182	2
12	72	2
77	78	1
194	195	1
182	182	5
192	196	1
17	17	3
9	36	1
112	112	1
100	151	1
136	137	1
80	204	1
153	155	4
143	143	1
98	98	1
59	59	1
16	49	1
175	176	1
96	96	1
72	192	1
210	210	1
78	115	1
24	24	1
62	63	1
168	169	2
105	105	1
66	68	1
234	234	2
79	80	1
1	1	1
236	236	3
118	118	1
49	58	1
179	199	2
140	141	2
58	59	1
131	131	3
124	133	1
79	79	1
24	55	1
42	63	2
132	132	1
226	226	2
164	164	1
200	200	1
148	148	2
75	82	1
145	145	3
189	193	1
51	53	1
47	62	1
16	32	1
113	113	4
0	204	1
61	61	1
23	23	2
36	60	2
75	204	1
31	118	3
234	235	1
116	118	1
191	191	2
202	203	1
40	207	1
31	117	2
175	175	1
162	162	1
207	208	1
32	114	1
46	227	1
145	146	2
16	50	1
41	42	1
34	34	1
0	32	1
34	35	1
203	204	1
7	71	1
5	59	1
38	41	1
39	206	1
67	67	1
152	153	1
53	54	1
42	68	1
170	171	1
2	6	1
