50	50	17
37	38	4
20	24	2
6	6	10
14	36	5
3	3	11
39	40	2
51	51	25
42	42	29
35	35	25
11	12	4
12	38	4
39	41	5
48	48	32
12	12	10
45	45	12
32	35	1
47	62	4
37	40	4
41	58	6
7	20	5
37	55	3
41	41	15
46	47	3
33	33	20
5	5	15
58	58	17
45	54	1
11	11	7
34	34	20
30	31	11
7	7	10
30	48	10
30	32	1
54	54	9
43	43	15
61	61	8
56	56	20
2	32	4
10	20	1
1	4	1
41	45	2
36	36	15
51	52	4
45	57	1
40	40	9
2	2	3
37	37	11
54	58	4
7	8	1
35	57	2
46	46	10
48	49	3
42	52	2
22	25	2
39	39	14
25	52	3
40	41	9
20	20	7
44	44	20
12	52	3
31	31	16
7	14	2
54	55	7
14	14	10
49	49	10
1	1	9
60	61	2
59	59	17
55	55	12
19	23	2
31	32	5
39	49	3
50	51	7
47	47	18
48	57	1
8	14	1
52	52	12
32	33	1
21	21	10
32	32	19
29	45	1
10	11	11
1	2	1
1	23	3
4	23	3
29	53	2
34	35	6
53	53	7
57	57	8
49	51	8
23	23	4
61	62	3
39	47	1
12	22	2
15	16	4
22	22	4
15	15	8
57	58	11
46	50	1
49	50	3
8	8	7
30	43	1
43	52	3
30	30	8
17	17	3
44	45	4
7	10	2
22	23	3
57	60	1
4	4	10
22	41	2
19	19	1
10	10	6
25	25	5
50	52	2
41	59	3
41	42	2
29	30	2
29	29	3
3	4	4
20	21	4
9	9	3
38	46	2
37	39	4
45	47	1
55	59	3
45	58	3
4	30	1
0	0	3
12	21	2
48	52	2
9	18	2
11	13	3
16	17	1
56	57	6
18	18	3
38	39	3
14	15	3
56	59	2
12	13	6
38	38	13
57	59	1
60	60	3
1	5	2
4	24	1
58	60	2
6	7	3
52	54	2
41	62	2
36	37	1
12	15	1
40	59	2
37	46	5
51	53	4
9	38	2
24	24	3
47	48	4
45	46	3
30	40	2
37	41	1
41	60	1
12	14	2
0	51	2
7	25	2
21	45	3
53	54	6
59	60	3
3	33	3
32	61	1
58	59	4
0	44	2
46	60	2
12	45	1
50	54	2
51	54	2
19	22	2
8	15	3
12	46	3
3	36	4
46	54	2
62	62	2
55	57	3
22	51	2
42	62	3
30	36	2
6	21	1
8	9	3
8	37	1
35	36	1
5	32	1
42	47	1
13	13	3
33	34	1
42	57	1
25	53	2
25	30	1
52	56	1
52	55	2
44	46	1
13	54	1
13	56	1
4	22	1
38	51	1
1	41	1
10	16	2
47	53	1
32	47	1
2	23	1
20	23	1
31	47	1
7	47	1
46	52	1
51	59	1
50	57	1
48	50	1
52	53	1
