86	90	2
114	114	30
129	131	1
131	131	31
121	121	37
74	74	27
17	17	31
112	122	3
125	125	36
87	87	20
11	11	12
43	46	8
23	23	29
120	120	29
68	72	1
43	43	50
110	112	3
71	71	55
40	40	42
90	90	18
4	4	38
116	116	26
72	104	2
94	94	36
15	15	30
76	76	41
126	127	26
94	95	13
34	34	12
41	41	40
88	88	19
21	54	2
38	93	1
82	82	53
13	28	4
98	101	8
102	102	27
94	108	1
50	50	77
66	77	1
116	129	5
32	34	1
47	47	52
43	44	14
6	6	38
49	49	70
95	95	21
126	126	16
117	117	35
25	26	9
56	56	34
30	30	37
101	130	4
58	59	16
115	115	23
26	26	39
25	25	37
109	109	26
61	61	26
112	112	37
89	89	35
111	111	36
98	99	21
23	24	14
52	52	58
73	78	10
33	34	6
21	130	4
105	105	26
23	41	3
57	57	53
41	42	5
48	48	67
29	30	11
8	8	18
62	64	3
72	72	21
75	75	40
75	79	6
105	125	2
58	58	29
94	113	4
38	40	5
108	108	48
78	78	28
32	32	20
43	79	3
123	123	33
74	78	5
117	118	15
0	0	27
95	96	11
21	21	33
13	13	13
80	80	43
122	122	30
53	53	29
98	114	3
39	49	4
66	67	9
96	109	5
130	130	34
130	131	8
67	67	22
73	73	25
51	51	23
98	129	4
91	116	2
9	9	15
31	43	6
22	22	40
106	106	31
91	92	5
93	93	29
103	103	51
113	118	6
28	28	25
26	85	1
77	77	18
99	99	29
72	96	5
107	108	10
67	68	13
60	66	1
27	27	35
91	91	24
116	122	4
7	7	16
38	39	13
119	120	2
1	2	8
96	96	26
81	100	1
102	126	3
45	45	31
74	77	3
19	19	32
65	89	1
20	20	22
124	124	43
60	105	5
38	65	3
95	117	1
39	40	10
17	18	9
102	127	2
72	85	2
48	59	1
14	14	24
4	5	13
40	41	24
17	33	2
102	128	6
106	108	2
45	46	9
128	128	37
71	72	6
97	97	41
117	131	3
113	113	40
46	60	3
123	124	7
92	92	23
106	107	16
42	42	27
68	68	36
120	121	3
65	65	14
64	64	35
102	123	1
10	18	2
55	55	51
30	64	2
83	131	12
113	117	5
133	133	11
24	24	17
54	54	51
81	81	16
29	31	1
129	130	16
80	94	2
24	25	7
109	110	12
55	56	11
22	23	4
33	33	18
72	90	1
84	85	17
104	119	4
10	10	25
24	41	3
101	101	22
85	85	37
79	83	3
114	115	14
131	132	7
19	30	2
79	119	2
52	57	1
65	68	2
16	17	17
99	114	1
70	98	3
78	79	16
42	45	2
106	124	1
46	48	6
104	104	35
56	60	6
77	82	2
66	66	27
100	100	20
30	130	4
75	76	8
118	119	7
9	21	3
62	62	21
98	130	2
46	47	26
42	44	4
14	79	1
14	17	5
1	62	2
79	79	31
16	16	27
115	116	16
124	125	10
29	66	2
81	126	1
64	71	1
11	64	1
102	103	6
51	57	2
81	82	11
65	94	2
14	20	4
118	118	35
70	70	28
10	57	2
98	98	34
63	64	2
56	71	1
13	66	1
70	71	22
11	18	2
72	73	10
21	33	4
65	72	4
77	118	1
121	122	4
121	126	1
5	5	33
38	38	12
13	18	2
39	39	35
80	81	6
81	85	4
82	94	6
89	90	5
7	9	2
127	128	13
16	22	3
19	22	4
29	29	30
97	98	13
59	93	4
100	101	13
59	61	10
95	113	1
12	71	2
10	12	4
39	54	2
90	118	2
114	124	1
29	41	4
48	49	5
73	74	13
81	87	3
87	125	2
79	80	5
4	20	1
1	1	34
20	25	6
0	44	1
44	44	41
42	43	16
94	132	3
115	127	1
60	74	1
22	34	4
0	2	4
85	88	5
119	127	3
115	129	4
18	19	3
115	119	4
47	48	9
40	77	2
8	9	4
63	72	7
62	63	12
86	88	8
119	130	3
74	76	2
72	89	2
91	111	1
65	66	11
99	102	2
106	123	3
132	133	5
110	110	30
44	45	21
63	63	20
84	87	7
79	108	1
90	92	3
132	132	12
129	129	8
28	80	3
95	112	3
88	90	5
67	69	4
59	63	3
6	97	2
123	125	7
74	105	1
3	3	29
31	31	18
42	55	4
101	102	10
49	50	12
77	78	7
114	128	3
59	72	4
105	106	11
52	64	3
75	87	5
83	83	9
82	84	8
84	84	26
41	43	2
54	55	9
90	95	4
119	119	29
122	123	1
44	78	4
3	4	14
66	107	4
65	81	1
86	87	13
5	6	4
100	119	1
46	46	37
68	69	2
45	66	3
39	41	9
10	11	11
9	30	3
96	97	6
0	32	1
114	116	8
2	72	2
2	2	19
12	12	7
107	107	32
11	22	2
11	46	2
88	130	2
69	108	3
93	96	3
97	99	12
124	132	2
23	100	4
69	69	41
96	98	4
82	119	2
93	94	13
82	87	6
63	94	5
20	28	2
29	43	1
20	22	2
127	127	27
60	61	12
40	42	2
26	46	4
55	72	2
12	13	7
3	7	1
81	88	1
91	106	1
8	56	1
127	129	6
82	98	4
18	43	2
47	87	1
60	62	6
59	59	17
104	122	4
61	73	2
20	26	3
90	91	4
11	30	2
41	85	3
27	108	1
88	132	2
31	33	1
20	29	1
18	34	4
82	83	6
60	60	23
64	89	1
64	109	1
49	95	1
5	31	2
33	44	2
53	54	6
111	112	5
99	128	2
71	77	4
78	104	2
52	93	1
86	86	22
21	22	9
64	65	6
70	84	1
57	123	3
83	124	1
11	14	3
63	74	2
72	99	4
88	114	4
18	64	1
30	66	1
125	131	2
16	19	10
11	71	2
2	3	10
12	20	2
28	29	6
97	106	5
85	116	3
20	32	1
105	107	2
6	10	4
11	12	13
16	68	5
51	56	2
83	86	5
25	31	5
85	91	1
13	55	2
103	114	1
80	101	1
95	100	2
3	25	2
52	54	8
68	75	5
79	103	1
104	111	1
43	45	8
97	130	5
102	104	6
32	67	1
44	48	3
84	91	6
81	97	3
30	45	2
99	100	6
33	80	3
66	81	1
83	87	5
105	121	2
16	45	8
51	52	11
38	41	3
74	103	1
111	113	3
68	71	3
75	109	1
64	69	4
80	89	1
94	103	2
16	67	2
104	105	3
70	91	3
29	32	1
61	62	13
12	14	2
95	124	4
17	55	3
2	67	2
69	70	10
52	53	7
14	30	4
63	77	1
87	88	9
21	73	3
102	124	2
68	70	3
83	85	2
3	14	1
61	63	3
8	122	2
7	33	1
85	86	4
30	91	3
85	96	2
126	128	2
18	18	19
15	16	3
96	108	2
97	103	4
98	107	1
29	33	2
90	104	5
54	91	1
54	71	1
83	99	2
1	4	3
26	31	1
78	118	1
41	55	6
42	84	1
103	115	1
20	34	1
71	84	4
32	33	1
48	55	2
9	10	3
48	50	7
32	42	1
70	76	4
98	126	1
12	21	2
59	66	4
89	101	4
0	29	5
95	131	6
16	24	1
27	72	1
7	8	2
44	47	3
50	51	8
13	19	2
90	99	2
83	84	7
13	24	2
91	104	4
96	113	1
30	31	6
74	101	5
100	128	4
44	74	1
84	90	2
121	132	1
44	64	1
108	109	4
60	95	2
39	44	1
101	103	7
48	88	5
51	53	1
113	124	1
27	31	1
70	94	2
14	15	8
31	70	1
13	14	4
103	127	3
3	68	3
40	61	2
78	80	2
32	116	2
54	69	3
81	102	2
108	125	3
128	129	6
47	66	3
115	130	5
81	84	1
98	100	4
82	114	4
7	55	3
6	49	2
15	23	2
99	127	3
67	71	1
27	28	2
10	15	1
65	70	1
81	115	1
13	17	1
39	81	1
11	21	1
25	28	2
22	73	1
60	67	1
15	17	2
69	72	4
92	105	3
74	81	2
79	88	2
10	19	3
18	66	1
32	69	3
113	120	4
120	123	1
100	118	4
102	108	4
83	91	1
15	25	2
97	102	1
6	11	2
23	99	1
95	125	1
39	84	6
39	42	2
89	91	5
82	123	2
32	44	3
17	38	1
1	30	1
0	1	6
79	81	4
24	28	4
82	126	2
42	48	1
96	118	6
19	24	3
12	92	2
20	24	1
2	21	2
10	14	2
66	73	4
105	109	3
7	49	2
104	121	1
56	58	2
2	4	3
15	45	5
77	101	1
22	27	6
52	110	1
20	21	2
11	23	1
63	66	10
90	105	2
81	116	3
65	90	3
70	85	1
95	106	4
92	93	6
80	115	3
65	67	4
52	76	1
49	53	1
125	127	1
13	29	5
100	115	2
22	24	1
90	119	1
61	96	4
87	119	2
128	131	5
39	82	2
117	119	1
31	44	1
76	108	1
45	89	1
3	5	4
19	20	2
116	117	3
94	124	2
5	124	3
113	130	3
40	55	4
29	76	1
17	21	1
89	132	4
14	18	1
86	114	2
83	90	1
128	130	2
34	42	2
40	72	1
72	81	1
72	74	3
88	99	2
0	62	4
6	7	3
24	30	1
20	96	3
39	46	3
3	19	2
12	55	2
76	79	2
28	82	2
50	57	1
125	126	2
68	77	1
9	12	2
31	32	6
70	74	1
77	83	1
38	55	4
59	67	2
73	75	4
7	10	2
27	29	3
75	100	1
71	73	2
109	111	5
92	100	2
16	33	2
108	117	3
13	47	1
117	120	3
110	122	4
88	120	1
107	110	2
77	79	5
100	102	3
2	7	1
58	60	1
63	70	3
43	47	1
4	14	2
73	80	2
121	125	1
71	91	1
56	57	3
27	64	1
91	102	2
53	67	2
59	73	2
81	114	3
118	130	1
29	44	4
99	101	2
81	99	3
29	65	1
70	73	1
30	32	1
89	96	1
44	61	2
40	62	3
45	76	2
106	110	1
76	77	3
43	65	5
19	64	1
87	115	1
113	131	1
14	48	2
105	110	2
73	79	2
28	103	1
107	109	2
42	80	1
18	68	1
9	57	2
50	69	1
18	31	1
11	15	1
26	27	3
25	98	2
76	107	3
97	129	2
116	126	1
18	121	1
106	125	1
30	90	2
1	7	1
59	60	2
58	65	3
39	53	4
82	90	2
80	99	5
65	71	2
5	67	2
89	103	2
8	10	3
89	102	2
70	77	2
75	83	2
31	46	1
116	119	1
5	68	3
10	43	1
11	42	1
18	23	3
70	121	2
62	74	3
16	26	2
5	66	1
17	22	1
32	74	1
70	105	1
71	85	2
53	111	1
19	21	4
104	118	2
17	23	3
5	8	2
77	92	1
63	93	1
58	64	1
103	113	1
5	23	4
19	33	3
119	128	1
84	114	3
73	77	4
8	69	1
80	125	3
109	121	1
48	106	2
104	112	2
96	106	2
14	34	2
15	62	2
112	116	1
80	102	2
87	103	1
74	88	1
72	98	2
6	13	1
103	104	2
31	69	1
61	106	1
1	47	1
75	80	1
63	65	1
100	108	1
16	18	3
124	130	2
40	81	1
104	127	2
94	107	2
76	80	1
55	63	1
18	33	2
82	88	1
44	59	1
4	29	1
66	96	1
40	46	1
102	129	2
80	96	2
52	56	1
48	124	1
74	80	2
70	72	1
83	114	1
38	81	1
5	29	2
18	20	1
28	45	2
95	109	1
14	16	2
16	29	2
58	61	2
47	49	1
22	26	1
108	111	2
9	68	1
26	107	1
20	63	1
116	118	1
126	131	1
53	71	3
14	21	1
15	19	3
95	105	1
33	53	2
113	114	1
62	71	1
48	61	1
88	91	1
55	97	1
17	45	1
60	73	1
42	47	2
25	40	1
116	130	1
13	64	1
97	116	1
52	75	2
19	23	2
54	58	1
55	65	1
125	129	1
45	75	1
67	74	3
15	33	2
46	108	1
6	16	1
86	89	1
85	117	1
82	89	1
18	32	1
103	107	1
1	21	1
16	23	1
108	123	1
100	106	1
12	32	1
94	112	1
13	71	1
44	85	1
22	32	1
61	74	1
115	128	1
48	108	2
68	115	1
86	126	1
39	55	2
17	34	1
106	111	1
114	117	1
85	89	1
82	102	1
84	86	1
103	129	1
9	26	1
119	129	1
62	75	2
33	40	1
84	89	1
14	32	1
52	55	1
22	101	2
103	128	2
76	78	1
61	94	1
13	25	1
28	67	1
91	114	2
69	116	1
46	49	1
83	102	1
20	90	2
54	56	1
21	34	1
92	94	2
68	74	1
72	78	1
81	103	1
78	119	1
112	130	1
61	65	2
62	117	1
37	38	1
114	119	1
101	117	1
80	116	1
102	115	1
25	27	1
67	75	1
84	130	1
4	12	1
117	129	1
93	110	1
6	56	1
74	75	1
32	43	2
3	22	1
100	103	1
11	24	1
65	106	1
59	69	1
72	75	1
103	108	1
46	53	1
22	33	1
7	11	1
83	89	1
12	47	1
81	104	1
63	118	1
