117	118	3
25	26	14
33	33	14
78	79	13
124	124	10
124	125	6
85	85	6
115	115	6
5	5	9
32	32	2
18	18	16
125	126	3
27	27	7
114	114	20
14	14	19
7	28	6
94	94	9
132	132	24
7	7	5
19	19	16
93	93	22
34	34	6
88	106	4
2	2	10
137	139	4
110	110	6
15	15	12
131	131	15
82	85	7
128	129	3
129	130	3
122	122	30
26	26	5
87	87	10
133	133	22
22	37	1
84	85	5
121	124	2
19	20	5
102	102	2
110	112	3
139	139	14
109	109	16
37	38	3
3	3	13
0	1	1
121	121	29
95	134	1
5	18	2
71	118	7
89	89	2
31	31	15
20	20	13
134	134	23
128	128	13
117	117	6
98	98	8
11	11	7
91	91	7
21	21	6
14	17	4
123	123	19
115	118	2
126	126	12
28	29	13
29	29	8
31	32	4
127	127	3
68	68	2
94	134	2
12	13	6
107	108	3
77	80	2
120	122	11
9	12	3
28	71	4
90	124	4
10	11	7
90	90	2
113	116	1
26	27	1
32	33	2
1	1	5
71	71	9
14	31	4
129	129	8
23	24	3
81	82	3
11	12	3
84	84	7
8	27	3
22	22	8
83	84	7
99	99	5
134	138	2
79	79	12
76	99	1
80	80	9
104	123	1
116	116	10
103	103	16
23	23	5
1	3	4
139	140	5
74	101	2
76	76	5
85	87	3
79	81	2
135	135	17
96	96	6
92	92	9
113	113	7
106	107	4
127	128	9
137	137	4
16	16	8
81	81	5
6	6	12
74	74	14
36	36	5
4	6	8
80	118	3
30	30	14
22	31	4
110	111	3
125	125	14
109	120	7
8	8	9
77	84	1
14	22	7
101	101	11
98	99	2
132	133	1
24	31	6
0	0	3
100	101	3
130	130	15
15	123	5
1	25	1
111	111	12
86	87	4
12	31	6
3	25	2
121	129	1
75	75	8
78	78	8
95	95	12
29	30	7
17	19	5
82	82	3
8	9	2
80	81	1
10	27	3
13	14	3
37	37	6
140	140	7
16	125	2
100	100	11
88	127	1
7	8	3
12	17	4
97	97	5
130	140	1
33	34	2
0	21	2
24	32	2
34	35	5
13	13	9
113	114	4
108	108	3
106	106	2
115	116	1
120	120	10
137	138	1
35	35	8
79	90	3
82	103	2
125	129	2
95	96	2
132	136	3
3	4	5
10	15	3
116	130	4
21	26	3
107	107	4
104	104	1
108	120	1
97	98	2
9	9	11
24	24	2
23	26	2
88	88	7
16	38	1
109	110	2
118	121	1
101	102	3
111	113	1
105	105	7
25	25	4
72	72	1
35	133	1
101	103	1
107	109	4
118	118	9
6	21	1
112	112	6
103	108	2
72	80	2
3	103	3
138	138	11
2	3	2
126	130	3
0	23	3
111	129	3
83	83	5
80	86	1
80	103	4
30	32	2
134	139	1
38	38	2
136	136	5
73	73	8
3	15	4
78	81	4
121	122	6
85	113	4
71	72	1
71	117	2
103	118	1
80	90	6
73	104	2
11	23	7
12	12	3
22	25	3
76	92	1
86	86	6
6	35	4
107	117	2
15	16	4
79	91	2
32	37	2
94	100	1
27	29	2
17	17	5
102	103	2
122	123	4
71	102	4
120	124	1
75	79	1
131	132	7
95	138	1
77	136	2
118	120	3
134	135	3
123	124	1
16	20	6
74	104	1
11	18	2
22	23	4
81	84	2
126	127	2
140	141	2
72	79	1
86	124	1
104	107	1
119	122	3
18	20	1
26	33	3
133	138	4
4	5	2
132	134	2
34	130	2
90	106	3
115	129	6
16	17	7
83	125	2
2	36	1
27	28	2
6	7	2
7	10	2
2	4	3
2	25	2
72	73	2
82	83	1
73	79	1
82	84	1
108	109	4
115	127	1
77	82	1
86	127	4
108	128	1
14	120	2
96	120	1
90	91	4
135	137	2
122	125	3
111	112	1
25	38	2
92	94	2
2	9	3
28	28	1
12	22	1
102	121	1
94	138	1
130	131	2
30	38	1
112	113	1
93	94	1
17	20	1
9	11	2
95	140	2
13	20	1
77	77	2
76	77	3
109	121	1
81	86	1
24	38	2
94	95	1
0	9	3
95	131	2
77	78	3
104	105	2
119	119	2
1	5	1
21	34	1
12	26	2
79	103	2
73	98	1
97	100	1
95	132	1
93	134	1
93	138	1
114	128	2
125	128	2
82	104	1
21	22	1
107	111	1
79	92	1
0	3	1
