218	219	2
1	33	3
203	203	10
224	224	14
225	225	7
226	226	3
60	62	2
13	36	6
173	174	3
188	215	5
165	165	3
166	170	4
80	80	10
155	157	4
119	124	1
31	31	7
156	158	2
67	74	1
134	136	2
64	69	1
220	221	1
63	63	4
101	102	5
153	164	1
77	103	3
46	46	4
113	113	4
114	114	3
59	59	5
228	228	8
174	174	5
1	54	3
171	171	1
75	75	18
103	103	18
239	240	7
128	159	4
100	101	3
3	3	2
169	169	2
101	104	3
162	162	6
146	146	1
38	41	2
45	45	12
161	162	2
70	70	5
212	212	5
141	141	7
133	133	9
9	9	4
228	231	8
202	202	2
101	101	1
48	48	4
36	36	5
78	78	4
102	102	4
142	142	1
2	2	7
143	174	3
23	23	9
37	38	2
4	13	2
25	26	1
39	43	1
104	116	5
200	200	9
182	183	8
2	3	1
221	229	2
7	8	2
134	134	3
144	144	8
223	223	2
74	74	1
195	238	1
4	4	6
47	47	5
44	45	4
61	61	4
141	143	9
84	95	2
216	218	3
53	54	4
99	99	1
143	143	2
172	172	7
231	231	4
190	222	1
65	66	4
207	207	2
36	54	4
214	216	5
53	53	8
20	20	6
19	33	2
62	64	2
229	230	5
65	65	7
22	24	2
170	170	6
188	188	6
43	43	9
84	84	8
219	219	7
60	60	12
133	161	4
136	137	1
240	240	7
160	160	3
114	159	3
238	238	4
227	229	2
115	116	4
148	160	1
36	65	2
66	76	5
0	20	1
159	159	6
184	230	1
157	157	13
139	140	5
191	216	4
236	236	6
67	75	1
136	136	5
192	192	11
26	27	4
108	130	1
39	39	3
161	161	5
104	104	1
60	75	1
154	155	6
130	131	6
50	53	1
178	178	2
227	227	7
83	83	5
62	62	4
215	215	3
11	11	2
157	159	1
56	56	4
34	34	1
173	173	7
71	71	8
68	68	5
194	194	4
29	29	12
82	82	7
149	149	4
187	188	5
53	55	1
97	97	3
209	209	3
220	220	1
234	234	12
32	32	2
37	37	4
57	60	4
200	217	3
242	242	4
129	130	4
164	164	7
114	126	1
26	26	6
57	57	9
206	206	2
119	119	3
113	134	1
185	191	2
222	228	2
214	214	2
135	135	1
210	211	1
38	38	9
182	182	10
68	70	3
75	76	4
42	43	7
24	24	4
176	177	3
241	241	3
88	88	4
100	100	5
159	160	5
222	222	4
103	110	3
12	12	3
177	177	3
98	99	2
125	125	3
123	126	3
107	108	5
189	189	9
50	50	2
124	124	2
89	89	3
0	5	2
95	100	1
18	19	2
154	157	2
45	47	4
76	76	3
126	137	1
198	202	4
27	27	4
203	204	2
40	40	9
153	167	1
121	121	6
120	120	11
101	103	1
201	201	3
71	74	1
237	237	4
66	66	5
236	237	4
0	0	5
133	159	1
160	161	5
176	176	9
103	118	1
25	25	9
127	137	1
131	139	1
13	48	2
45	46	3
124	125	1
147	147	1
49	51	1
64	64	5
34	36	2
118	118	4
77	77	1
132	138	2
81	84	1
199	210	1
199	199	3
85	85	6
103	104	1
28	28	2
175	175	2
221	221	3
211	211	3
230	230	4
80	82	1
152	152	2
129	129	2
69	73	3
28	47	2
29	37	1
18	18	6
72	72	2
8	9	3
179	179	2
23	24	3
126	126	9
66	75	3
51	51	3
105	105	2
165	178	2
103	105	5
33	36	2
204	204	3
201	202	3
207	221	3
167	167	1
48	49	5
171	172	2
217	217	2
134	137	3
142	149	3
60	130	2
221	222	3
82	83	2
8	16	1
203	211	2
146	147	1
133	134	2
77	80	1
10	10	2
73	74	2
198	198	5
172	215	3
236	238	2
3	54	1
199	224	1
17	17	4
112	112	3
221	223	1
60	61	2
226	227	1
114	128	5
54	54	1
183	183	4
40	41	2
54	55	2
40	48	2
110	110	4
170	227	3
130	130	1
233	233	4
126	157	2
21	23	4
211	240	1
14	17	3
134	138	1
22	22	6
181	181	3
190	190	1
190	191	2
131	131	2
65	88	1
21	22	4
157	158	2
148	150	2
35	36	2
229	229	4
69	69	4
55	55	4
163	172	1
151	151	2
103	114	1
204	206	1
63	65	2
44	44	1
127	127	2
14	14	2
97	98	1
6	6	1
96	98	1
155	155	2
30	32	1
5	54	1
135	136	1
158	160	1
9	69	1
102	116	1
127	129	1
156	157	3
102	103	2
113	133	1
237	238	1
58	58	1
119	120	1
128	129	3
224	225	2
74	84	2
240	241	1
73	73	3
191	192	2
63	68	1
15	16	5
24	48	1
143	149	2
30	30	1
232	232	3
133	136	2
14	49	2
107	116	2
231	232	1
13	13	3
1	3	1
187	187	1
137	137	1
225	226	3
171	174	2
17	23	2
57	58	1
81	81	3
200	203	1
218	218	2
108	108	1
202	203	1
176	200	3
117	125	1
122	124	1
161	165	1
154	154	2
217	218	1
111	111	1
27	28	2
239	239	1
68	69	1
36	52	1
79	80	1
172	174	1
235	236	1
197	198	1
61	69	1
177	178	1
14	15	1
67	67	1
61	62	1
158	158	1
126	156	1
165	171	1
233	242	1
153	154	2
194	196	1
122	122	1
44	48	1
205	205	1
10	11	1
198	218	1
9	10	2
132	132	1
61	63	1
57	75	1
10	32	2
116	121	1
16	48	1
217	223	1
44	46	3
141	146	1
196	196	1
59	60	1
200	201	1
156	156	1
140	140	1
193	193	1
109	109	1
78	81	1
40	50	1
65	67	2
69	71	1
24	25	1
