91	93	1
141	141	54
73	73	43
79	84	5
31	32	17
22	22	34
153	153	37
139	139	49
42	42	59
99	99	39
126	127	15
154	155	14
139	140	14
72	99	2
83	153	4
136	141	6
45	47	7
79	79	28
45	45	41
98	130	1
97	97	29
148	150	8
97	134	4
105	106	12
67	96	5
12	12	28
46	46	49
20	21	14
96	97	22
77	77	26
67	67	42
108	108	45
115	115	37
36	37	18
101	102	4
10	43	4
101	120	1
77	107	1
26	26	35
33	33	59
44	107	3
5	81	2
82	88	1
15	15	45
6	6	20
154	154	35
17	106	2
85	86	41
50	50	48
76	77	6
142	142	25
115	116	15
96	145	2
13	13	49
134	134	71
119	120	9
66	66	29
36	42	4
19	19	49
69	69	31
10	10	19
113	114	8
24	25	10
11	19	3
103	106	6
131	131	35
19	20	21
151	157	4
92	92	46
102	102	35
89	89	60
133	133	44
65	65	10
30	32	5
103	124	1
137	140	4
151	152	15
79	82	5
128	128	37
48	65	1
116	116	39
8	9	13
32	32	34
66	67	12
116	139	1
79	94	4
144	146	14
91	91	42
86	87	21
31	31	46
158	158	28
116	150	9
107	120	2
141	148	2
79	80	10
123	127	4
14	14	37
137	137	50
87	87	58
49	49	31
25	25	47
41	41	36
3	3	50
65	67	2
114	114	26
36	43	5
81	81	29
3	26	4
11	13	7
30	30	37
119	155	2
125	125	40
149	149	16
80	80	44
133	134	15
88	88	34
70	70	46
104	104	28
140	141	20
21	30	2
135	140	4
58	58	4
144	145	21
75	75	43
39	43	3
78	113	3
105	140	3
66	80	1
94	94	38
101	101	43
23	24	25
106	108	6
1	1	48
117	117	46
156	156	43
19	50	4
156	157	9
122	122	42
48	78	3
105	105	45
17	37	3
129	130	21
82	87	3
51	51	47
7	8	21
20	20	56
131	155	1
84	84	38
130	130	32
69	71	9
151	151	36
127	127	47
54	54	40
148	153	3
103	103	36
112	113	8
110	112	12
120	121	12
110	110	27
50	53	5
123	145	1
140	154	1
147	154	9
146	154	2
43	114	6
84	109	1
9	9	25
136	144	7
36	36	43
146	147	15
123	123	52
43	43	31
105	107	6
148	152	5
101	103	1
37	38	1
155	156	17
106	107	9
120	120	41
86	127	2
86	124	4
138	138	41
12	41	5
21	21	40
51	52	16
28	28	47
118	118	30
111	111	57
53	81	3
27	27	30
14	15	28
35	50	1
53	53	28
40	45	1
5	5	23
6	36	3
8	8	34
116	117	13
16	17	12
67	68	15
83	83	29
44	44	42
107	107	44
35	54	1
25	28	4
26	27	10
103	104	13
48	49	31
137	138	20
144	144	19
99	116	6
107	135	5
96	96	15
140	140	41
93	131	4
19	79	5
91	151	3
18	18	55
82	83	10
111	112	7
48	57	3
83	84	12
27	38	2
89	142	3
92	94	2
78	78	36
117	120	8
4	4	34
98	98	44
48	52	4
98	156	2
5	12	2
86	119	3
76	76	8
148	148	51
11	11	20
40	41	26
93	116	3
104	131	1
117	118	3
23	23	40
131	132	14
95	95	28
54	70	2
106	106	37
146	146	28
38	64	4
144	151	3
51	81	4
145	145	31
132	138	4
152	158	1
132	132	43
0	0	37
23	75	5
87	140	1
15	16	11
24	24	43
83	141	5
118	146	5
129	129	41
69	70	10
66	157	1
50	51	18
67	72	1
104	105	13
14	39	5
52	52	42
52	118	2
52	57	1
42	57	1
90	90	23
24	107	1
153	154	8
78	114	3
68	69	16
136	139	8
27	29	4
56	56	14
18	22	2
93	136	8
152	152	17
78	82	3
124	124	40
155	155	25
107	149	3
4	5	8
157	157	30
124	129	4
46	53	1
50	54	13
132	133	21
117	119	8
18	127	2
72	154	2
68	68	28
139	150	4
151	153	4
7	7	26
47	80	4
13	43	2
131	133	9
49	67	2
41	42	12
113	113	17
121	121	37
141	156	3
108	109	15
78	80	2
52	82	1
18	20	4
141	142	13
17	21	5
47	47	37
29	30	7
0	1	16
36	40	1
2	2	27
143	148	5
112	112	49
3	118	3
147	147	29
62	62	10
86	101	1
68	78	1
9	43	4
16	79	2
39	39	20
30	45	2
152	154	6
97	106	4
15	19	3
34	34	33
53	68	4
90	91	30
149	151	1
84	95	2
16	16	25
77	78	18
25	26	15
9	12	4
14	16	5
12	13	22
29	144	1
40	40	44
26	28	9
73	112	3
118	153	4
68	88	1
2	47	2
9	49	2
121	125	7
82	89	11
130	131	13
17	17	40
80	82	12
94	95	8
32	33	20
84	139	6
6	7	4
119	119	44
83	128	4
65	66	5
106	123	2
142	154	2
80	142	8
82	82	28
89	91	1
93	94	20
145	147	10
87	154	3
32	52	6
37	37	41
57	57	8
100	108	2
2	39	6
136	136	35
19	81	5
46	47	18
98	99	6
3	50	3
52	70	4
85	85	29
71	71	23
134	137	3
40	46	2
63	67	7
22	56	2
1	3	6
26	30	9
143	146	4
135	136	14
121	122	21
52	72	2
54	55	19
100	101	11
86	86	16
44	139	4
9	22	9
3	4	21
26	43	6
81	87	4
72	73	8
12	16	3
11	12	8
100	100	49
111	113	5
92	157	1
55	56	11
83	85	8
150	153	4
14	62	2
2	3	3
119	121	4
4	87	2
68	93	2
75	95	1
45	156	1
55	70	3
147	148	8
38	38	20
81	82	14
22	38	8
3	127	4
5	6	8
67	146	5
25	107	2
86	88	10
83	86	7
4	12	2
118	120	18
65	96	3
134	156	4
128	129	2
3	31	1
27	28	3
29	29	34
30	31	7
156	158	8
3	30	6
63	134	2
39	65	1
48	63	8
134	140	11
135	145	1
142	153	1
138	139	9
95	145	3
109	109	29
20	31	2
113	127	1
93	93	59
21	29	7
45	46	18
71	140	4
37	123	2
75	132	1
84	113	4
109	110	10
75	116	7
18	27	1
109	112	6
31	33	1
69	118	2
30	33	2
57	61	2
52	54	17
12	49	3
136	137	9
18	19	16
13	14	17
150	151	7
138	140	2
67	143	2
150	150	30
104	114	3
85	93	4
65	72	1
52	53	7
123	124	21
67	70	7
145	148	1
85	127	2
80	81	7
19	21	6
38	57	3
34	37	6
93	125	3
38	39	15
123	126	4
38	155	3
126	126	46
11	40	4
88	89	16
49	143	2
110	114	4
2	29	4
90	107	2
15	18	9
134	141	3
39	47	1
51	54	2
31	34	5
71	158	2
23	33	9
40	53	4
91	92	19
85	154	2
38	41	4
135	148	3
89	147	3
71	76	3
73	106	1
12	22	5
67	94	1
69	90	1
73	130	2
89	103	3
48	48	24
72	72	19
84	141	2
134	153	2
2	6	2
135	141	6
63	69	7
25	53	2
64	68	3
17	18	11
43	52	2
122	136	4
29	157	1
55	65	3
8	26	3
139	141	2
1	23	2
1	2	17
112	116	5
50	148	3
13	85	1
71	72	6
157	158	16
35	35	15
125	126	15
55	64	3
17	31	2
18	55	1
96	103	2
71	97	3
77	117	2
33	34	19
18	49	5
134	138	2
3	18	3
46	56	8
104	112	4
109	137	3
145	157	2
84	85	14
39	40	10
55	63	2
53	69	2
38	54	4
7	22	2
137	154	3
108	112	5
7	10	6
134	143	2
11	21	4
29	37	1
139	152	3
54	69	1
110	111	13
64	71	2
77	80	2
95	96	13
119	124	5
39	48	1
120	122	9
129	131	1
112	144	1
63	64	5
124	125	8
114	115	12
119	122	2
124	145	5
21	25	4
92	93	4
87	90	1
48	70	2
78	97	2
25	96	3
7	14	1
73	104	2
115	117	2
2	5	2
106	136	2
1	158	2
64	67	4
29	32	1
93	138	1
28	65	2
81	97	2
84	130	1
82	86	5
135	135	29
125	127	7
45	50	1
122	142	3
33	147	6
152	153	9
25	98	8
19	56	2
72	75	4
83	90	8
113	120	1
22	24	3
105	115	4
45	135	2
102	127	1
22	43	1
84	92	2
17	138	2
39	44	2
55	55	29
27	34	1
135	137	4
64	64	14
81	83	2
15	49	5
132	151	2
78	95	1
75	76	9
28	43	4
147	155	1
16	18	1
77	135	1
117	121	4
4	32	2
9	11	8
121	146	1
31	81	2
78	105	3
43	47	3
138	156	8
51	53	3
95	101	2
40	42	1
8	10	2
66	100	1
73	131	1
110	139	2
147	153	4
138	141	2
142	156	6
24	105	2
116	118	5
119	125	1
77	79	5
120	133	1
78	79	9
65	77	3
75	94	1
18	80	5
35	36	5
62	148	3
61	61	7
128	133	5
0	5	2
91	139	3
31	53	4
28	30	12
82	92	1
42	46	2
115	126	4
118	148	2
102	105	4
28	29	13
124	127	1
3	71	1
109	111	4
102	107	2
36	39	3
107	110	2
21	24	5
98	102	3
98	143	3
63	68	5
104	108	4
80	83	2
106	130	1
92	116	2
109	113	9
14	69	2
80	130	2
47	98	3
26	29	6
121	123	3
25	36	1
53	107	3
29	31	5
0	75	3
81	115	2
153	156	2
42	140	1
4	8	5
108	111	7
1	55	4
4	25	3
79	86	8
43	44	5
8	11	3
42	66	3
19	31	4
70	97	11
74	74	4
132	137	4
68	70	5
136	150	1
29	53	1
99	100	8
21	141	5
82	84	1
68	118	3
7	23	2
100	151	1
48	51	2
90	112	2
90	92	5
53	54	5
107	108	7
136	140	5
7	29	2
133	142	4
70	71	7
11	17	6
18	146	4
78	103	1
88	90	5
16	57	2
56	64	2
106	133	3
24	35	5
20	24	4
25	43	1
63	153	2
94	149	2
87	93	1
51	55	2
68	142	4
3	113	1
3	43	1
122	125	4
25	147	1
140	146	3
64	141	3
56	69	1
118	127	2
25	92	4
127	139	2
67	69	5
55	77	4
22	23	14
36	138	3
23	26	5
31	36	1
113	115	2
102	125	2
42	43	9
75	77	5
97	145	2
92	149	2
85	146	2
22	57	6
53	126	3
77	127	4
132	156	1
53	83	2
14	34	1
23	25	2
63	86	1
20	25	2
123	125	6
25	27	8
105	138	1
49	71	2
53	71	2
63	63	7
37	39	5
3	158	2
132	135	2
91	118	2
149	150	6
43	45	1
96	104	4
42	47	3
121	135	1
97	157	3
118	119	4
31	50	1
85	104	1
84	110	5
53	76	3
4	69	1
84	86	3
98	100	3
1	129	5
17	19	3
32	53	5
14	120	1
143	143	10
78	83	6
153	159	1
89	90	4
93	95	5
24	30	1
44	46	1
20	98	2
128	140	1
15	17	2
79	115	3
71	147	1
101	138	5
20	30	1
20	22	1
34	35	4
4	30	1
11	69	3
30	143	1
16	22	2
80	118	4
141	153	4
114	117	2
2	42	3
49	54	1
88	127	1
12	18	1
44	45	9
43	154	3
82	91	2
75	156	3
56	71	2
108	110	3
12	40	1
77	130	1
116	127	1
104	106	3
12	14	5
75	79	1
18	38	4
146	150	3
20	26	4
25	29	3
47	48	9
13	37	1
23	27	1
0	109	2
98	157	1
155	158	2
50	70	2
72	84	2
92	106	1
82	85	2
7	112	1
35	37	8
71	108	3
1	92	2
9	156	1
20	92	1
5	127	2
61	118	2
108	115	2
38	67	1
10	11	14
102	147	1
97	138	1
100	135	2
99	134	2
119	140	1
105	122	3
94	120	2
17	20	4
106	116	2
54	56	2
55	86	1
37	56	2
62	63	4
117	148	1
71	154	1
10	18	4
110	129	2
21	22	11
73	133	1
53	55	8
23	34	2
56	57	5
96	105	2
141	143	3
94	135	1
72	123	1
4	28	2
67	82	3
133	138	1
134	135	5
29	64	1
29	38	2
155	159	1
123	134	1
34	36	1
16	40	3
17	43	1
86	137	1
147	149	1
137	142	3
145	146	1
144	147	3
87	91	4
112	147	1
99	129	5
95	97	4
87	151	1
49	53	4
82	139	2
148	149	2
13	53	3
102	106	1
21	83	1
123	131	4
75	158	1
62	68	1
12	32	1
127	128	3
86	103	1
45	65	3
22	76	2
52	145	2
106	149	4
52	55	2
147	152	1
28	34	2
4	6	2
124	140	1
9	10	5
86	126	1
134	136	3
97	156	1
21	26	3
88	114	3
71	96	2
12	57	1
133	155	1
10	16	2
127	129	2
97	104	4
0	24	1
113	118	2
143	144	2
15	39	1
143	147	2
37	119	1
36	47	2
0	4	6
55	107	2
93	115	4
2	73	1
94	96	3
32	35	1
62	108	1
7	11	1
22	25	1
85	87	7
120	127	1
18	26	2
43	122	2
122	124	5
3	28	1
124	126	6
29	39	3
121	143	3
73	91	2
55	88	4
80	149	1
22	51	1
140	142	1
87	121	2
67	109	1
107	123	2
51	83	1
66	158	1
42	152	3
50	69	2
97	143	6
9	39	2
141	158	2
65	119	1
17	50	2
27	96	2
77	81	2
122	141	1
134	139	2
141	144	1
107	136	4
136	143	1
55	111	3
70	90	5
39	46	1
79	81	1
141	146	1
126	133	1
117	122	3
94	104	3
11	20	2
80	92	1
23	139	1
121	141	1
135	157	2
63	88	3
71	84	3
66	69	1
66	99	1
19	52	1
33	64	1
89	110	1
98	138	1
10	19	1
3	34	1
74	93	2
90	142	1
64	66	1
31	67	1
43	155	2
19	30	3
5	26	1
52	69	3
78	85	7
29	77	1
41	140	1
16	36	1
33	35	4
45	70	2
32	34	2
3	33	3
120	136	1
41	46	3
56	61	1
80	94	3
125	132	2
90	119	1
144	148	1
97	98	3
66	71	1
35	38	1
157	159	3
97	158	4
93	123	2
38	133	1
11	61	3
118	121	3
3	25	1
131	136	1
133	156	1
120	152	2
14	82	2
13	33	2
12	157	1
124	136	1
111	117	1
155	157	2
150	157	2
121	136	3
9	15	3
8	33	2
3	32	1
39	52	2
46	48	2
24	44	2
68	89	1
4	13	2
83	88	1
42	45	4
78	84	1
152	155	3
90	103	3
9	53	2
13	50	3
49	52	3
103	131	2
21	27	1
17	22	1
29	66	4
148	158	1
112	130	1
159	159	2
7	12	2
81	94	2
87	89	2
124	137	1
6	119	2
77	89	1
117	139	1
118	144	2
62	87	1
114	116	1
110	144	1
2	4	4
100	104	1
4	37	1
50	157	3
97	154	1
4	14	3
12	15	2
109	127	1
108	136	2
76	88	3
25	99	1
62	84	3
71	78	2
73	75	2
43	156	1
98	116	2
99	107	4
158	159	1
70	78	1
134	155	3
16	23	4
25	90	3
107	112	1
41	51	1
63	111	1
42	105	2
127	151	1
42	52	2
29	43	1
87	119	1
19	38	2
104	107	2
125	136	2
25	38	2
147	150	1
40	66	1
18	51	1
66	78	1
81	141	1
154	157	1
62	67	1
70	72	2
41	62	2
50	52	2
81	105	2
32	145	1
96	107	1
22	26	3
110	153	1
13	34	1
17	81	1
43	90	1
100	150	2
38	43	1
17	90	1
51	64	1
66	70	1
121	152	1
87	111	1
4	15	3
36	52	1
0	2	2
39	45	1
100	130	1
20	154	1
25	35	1
67	71	3
1	7	2
131	134	1
99	108	1
72	141	1
145	149	1
43	71	1
103	141	9
8	39	1
106	137	1
104	124	1
41	44	1
106	142	1
76	78	2
114	120	4
104	126	4
3	128	2
72	139	1
45	51	1
107	117	3
116	120	1
16	21	1
66	73	2
69	88	2
31	158	1
44	143	1
39	50	2
71	81	1
150	154	2
24	45	3
43	66	1
87	95	1
84	122	2
18	31	1
29	153	2
77	83	2
124	128	3
113	117	2
130	132	1
75	118	2
103	115	2
127	135	1
79	116	2
5	8	2
88	110	1
112	141	2
48	123	1
5	33	1
71	95	1
85	119	1
50	109	1
37	40	1
3	47	3
91	158	1
146	148	1
48	56	1
68	71	1
11	23	1
48	54	1
23	55	1
70	107	1
10	15	2
6	135	1
83	91	1
90	139	1
17	28	2
83	92	1
30	65	2
64	72	1
18	53	1
24	64	1
41	43	4
76	81	1
137	139	1
38	156	1
103	140	2
148	155	2
6	158	1
139	156	2
94	134	1
68	76	1
88	94	1
123	155	1
126	137	2
83	140	1
63	97	1
1	29	1
36	38	1
20	34	1
115	150	1
79	93	2
36	103	2
71	142	2
21	44	1
142	144	1
25	67	1
77	86	1
131	137	1
93	128	1
144	156	2
17	111	1
63	70	1
25	39	1
109	135	1
102	103	1
39	49	1
123	157	1
39	41	2
68	149	2
35	45	1
18	21	1
11	16	1
63	92	1
101	130	1
70	85	1
68	110	1
129	133	2
15	31	1
73	151	1
49	50	2
1	13	2
49	51	1
143	153	1
130	138	1
93	124	2
86	150	1
121	154	1
105	143	1
62	117	1
88	115	1
112	118	1
27	123	2
62	142	1
100	139	1
119	144	1
113	119	1
154	156	2
14	18	1
10	112	1
68	96	1
92	98	1
10	40	1
52	71	1
12	54	1
121	150	1
5	13	1
134	158	1
8	61	1
140	157	1
37	48	1
65	68	2
55	154	1
33	43	1
131	144	1
104	146	1
36	104	1
70	83	2
19	24	1
102	132	2
28	33	1
43	48	1
70	119	1
145	159	1
15	53	2
4	99	2
3	152	1
127	130	2
49	85	1
86	122	1
87	88	1
115	146	1
85	118	1
82	90	1
35	46	1
31	43	1
126	132	1
13	38	1
107	113	2
26	34	1
94	109	1
14	124	1
96	98	1
67	108	1
103	158	1
2	121	1
108	159	1
13	15	1
33	146	1
152	157	1
41	47	1
66	68	1
97	119	1
14	33	1
14	21	1
51	65	1
121	153	1
40	43	1
47	141	1
62	64	1
85	140	1
76	154	1
2	57	1
7	40	1
95	109	1
120	145	1
73	123	1
109	116	1
46	50	1
119	146	1
94	138	1
77	114	1
