176	176	26
123	123	37
58	58	36
160	161	6
6	8	6
130	131	18
179	193	3
139	139	35
29	29	14
14	14	21
52	52	54
173	178	3
6	7	9
13	13	43
40	40	19
179	179	24
111	152	2
64	152	9
126	126	28
169	169	39
13	14	6
111	111	35
190	191	13
48	50	3
137	138	9
10	10	45
87	87	24
36	36	31
9	9	34
3	4	8
3	5	9
50	51	11
53	53	42
54	54	30
195	195	41
171	171	61
172	172	29
150	150	43
151	152	30
147	147	23
152	152	25
4	5	17
5	7	10
170	170	33
162	169	5
170	190	4
159	160	21
169	193	3
151	151	42
138	139	7
66	66	14
185	185	35
110	111	6
167	167	26
24	26	6
170	171	35
65	65	20
105	107	5
177	177	23
187	187	60
150	151	10
177	178	20
29	33	1
17	17	23
141	141	64
165	167	11
101	101	26
179	180	16
130	130	11
30	30	43
1	1	21
121	121	30
135	135	31
125	125	25
43	43	34
178	178	17
159	162	5
28	62	1
38	38	29
108	109	4
196	196	60
126	127	6
108	108	19
14	50	3
143	177	2
98	98	11
115	115	17
27	27	23
133	133	30
169	170	12
89	90	11
138	138	24
55	55	13
113	115	7
173	179	1
48	48	59
79	81	3
129	129	38
145	146	8
171	185	2
160	160	43
164	166	2
190	190	42
34	34	23
74	74	23
129	155	4
44	44	35
86	87	6
146	146	22
98	99	2
64	64	7
140	140	26
142	143	5
189	189	45
155	182	1
136	136	45
166	166	29
163	164	26
114	114	19
139	140	17
11	11	45
169	188	2
159	159	30
173	173	19
146	190	1
154	155	18
104	107	5
165	165	37
110	110	25
4	4	44
79	79	3
15	15	47
0	0	16
38	40	5
62	62	10
134	134	46
155	158	1
84	85	3
67	67	13
127	128	11
3	19	3
0	4	2
16	16	51
50	50	31
156	172	5
37	38	10
152	155	5
54	55	16
113	113	12
42	44	1
123	124	18
24	25	10
142	142	49
27	39	2
71	73	5
128	129	7
163	165	6
26	26	15
41	44	1
55	151	1
80	80	10
39	39	30
141	169	5
104	104	6
38	39	14
129	131	4
159	166	1
124	138	1
23	23	27
161	162	15
167	189	1
143	144	13
147	169	1
62	64	5
116	118	9
168	168	18
24	24	29
194	195	17
193	195	4
10	11	12
189	190	6
140	153	2
149	149	52
111	112	3
63	63	6
174	175	6
94	94	15
132	132	21
62	70	3
58	59	7
157	157	28
7	7	24
194	194	50
5	5	15
19	34	1
128	128	51
114	115	26
156	156	26
182	187	2
34	35	11
186	186	39
21	21	21
105	106	6
59	59	17
18	39	3
197	197	33
12	12	44
154	164	1
143	143	37
69	70	5
78	78	13
162	164	4
109	110	14
146	147	7
144	145	20
127	127	48
131	131	27
51	51	28
158	166	3
188	189	13
184	196	5
57	57	46
21	22	5
61	62	4
156	158	7
105	105	14
25	25	16
155	155	22
193	193	41
148	149	13
102	102	13
130	138	3
72	72	18
134	138	1
93	93	3
181	181	19
35	46	1
186	188	3
28	29	8
59	65	1
159	173	6
84	84	15
160	163	7
188	188	30
82	82	8
103	103	12
148	148	44
102	105	4
82	83	10
109	116	1
96	153	2
187	189	13
128	142	4
37	37	33
171	172	8
108	111	9
165	166	9
89	89	12
96	96	8
33	33	44
39	40	11
64	75	1
153	153	23
3	3	16
68	68	8
64	65	9
60	61	5
20	25	2
121	122	14
35	36	8
119	119	38
163	163	20
145	164	5
141	142	8
80	81	5
2	3	10
77	78	6
45	45	40
77	84	5
19	35	1
100	101	8
37	151	3
28	28	12
45	46	19
23	24	14
146	179	1
34	36	4
135	136	9
148	155	1
153	155	7
154	156	4
131	132	2
195	196	8
175	177	4
17	18	12
107	108	8
172	182	2
141	191	4
22	23	4
152	153	8
18	18	16
56	79	3
173	175	2
160	172	5
158	159	14
183	183	30
32	33	10
99	99	30
154	154	16
87	88	2
174	174	14
167	170	2
103	112	3
168	173	2
182	183	10
188	193	4
134	135	15
161	165	12
32	42	6
0	1	3
145	147	2
124	159	2
46	46	26
117	117	19
47	47	43
148	189	5
182	182	33
180	180	23
113	116	3
42	42	19
56	56	20
151	153	9
19	19	30
2	2	14
56	114	1
185	186	15
72	90	2
18	22	3
102	104	7
67	68	12
149	150	13
88	88	6
171	187	2
57	118	2
81	82	15
20	23	8
106	106	10
18	21	2
15	29	3
26	28	8
143	176	3
9	10	18
178	179	11
41	42	4
163	169	4
101	114	2
106	135	1
155	156	17
35	39	3
94	95	2
118	118	18
163	170	2
162	162	9
162	163	5
73	73	13
147	148	2
145	151	9
143	145	2
175	176	22
120	120	32
156	165	6
66	107	3
187	188	23
107	107	8
95	95	7
65	67	9
119	120	26
19	70	2
76	77	3
162	167	2
149	167	2
191	191	21
124	124	46
67	77	1
85	85	13
107	152	1
53	57	3
73	74	5
52	53	10
24	35	3
12	13	4
166	167	9
144	144	22
1	2	10
41	41	22
176	178	4
143	190	4
150	187	2
8	55	2
32	32	26
83	84	7
184	184	29
107	111	3
108	110	2
112	112	26
47	48	4
145	145	26
100	100	15
189	197	4
142	144	1
31	31	9
179	181	8
135	137	1
104	105	9
129	135	3
196	197	3
54	56	3
139	153	2
75	89	2
124	125	18
104	106	6
193	194	15
137	137	15
46	47	5
80	96	2
167	168	9
158	174	5
136	197	5
22	22	11
40	41	11
15	56	3
79	80	5
47	51	4
9	15	2
86	86	11
7	8	6
84	87	3
48	52	5
40	42	4
72	74	1
168	180	4
103	104	9
20	22	13
77	87	4
11	101	4
138	140	3
142	192	1
160	166	4
23	26	3
7	28	2
59	62	6
15	16	5
97	97	2
49	49	25
161	161	16
57	58	6
187	195	1
115	116	6
181	192	3
153	154	6
23	32	1
15	106	3
157	159	7
160	169	3
33	36	3
76	76	9
21	24	3
178	180	3
109	109	20
140	141	7
99	100	2
44	77	3
124	148	1
139	145	3
186	187	5
188	194	4
73	75	5
78	87	2
150	194	2
1	11	4
176	194	1
78	86	2
61	61	2
81	85	6
143	159	1
46	48	1
83	111	3
69	160	5
71	72	6
5	8	6
90	90	1
153	158	1
141	148	2
68	158	3
73	77	1
44	51	1
146	175	2
35	35	10
29	58	1
30	34	2
120	122	7
132	197	3
64	66	6
83	83	5
145	179	3
43	44	8
29	39	5
37	83	3
159	161	3
161	166	3
156	179	1
186	193	3
148	150	3
158	158	10
37	39	5
160	188	3
120	121	14
20	21	10
102	103	5
11	32	2
8	10	2
97	98	2
39	42	6
81	83	1
0	3	5
85	111	2
118	134	1
162	173	3
95	96	2
20	20	18
8	8	23
122	122	20
48	55	1
48	49	7
168	169	11
188	191	4
114	121	1
125	164	1
11	12	4
189	194	1
113	114	7
140	142	3
132	169	2
138	148	3
60	62	1
49	51	4
93	94	5
174	176	9
31	32	4
51	55	1
184	186	4
117	118	9
16	28	4
11	33	2
102	116	6
70	70	11
173	192	1
83	85	6
51	52	4
139	141	2
151	167	2
76	85	3
58	64	1
189	192	3
180	181	10
26	27	4
42	43	5
22	24	4
0	30	2
24	45	3
138	158	1
5	6	10
51	63	2
184	187	1
152	154	1
98	119	2
42	132	1
33	49	1
75	75	4
170	172	1
122	123	5
103	117	4
156	164	2
58	63	2
121	123	7
109	111	10
132	137	2
101	126	1
157	161	1
82	94	4
16	72	1
153	190	4
167	180	3
31	48	1
183	184	9
131	168	1
25	107	2
30	36	2
69	87	5
65	74	1
33	39	3
132	133	8
185	187	3
152	185	5
69	69	17
102	131	1
23	51	2
129	171	2
58	154	2
25	72	2
59	61	3
119	132	1
143	147	2
184	192	5
114	119	3
184	197	2
171	191	1
85	86	1
141	189	2
120	134	7
112	114	3
161	168	1
157	158	8
71	71	10
140	148	2
136	137	4
152	156	2
65	66	2
66	73	2
57	66	3
116	116	12
62	74	3
173	174	4
133	144	5
184	185	4
99	108	1
145	163	2
6	34	1
192	193	15
156	196	3
172	179	2
154	190	2
103	107	1
61	63	3
186	189	1
142	148	3
26	39	4
47	62	2
169	171	5
99	106	2
180	182	2
190	192	6
52	57	2
187	193	1
82	85	5
110	153	3
119	133	3
22	38	2
167	169	1
127	131	5
171	183	2
136	142	2
192	192	21
126	196	3
99	109	3
22	25	2
12	44	1
40	76	2
30	31	7
154	160	4
188	196	6
169	178	2
140	152	1
5	38	2
14	16	2
80	84	2
172	173	4
0	17	1
101	103	1
80	83	3
11	44	1
129	132	1
15	17	6
159	168	3
69	72	2
99	104	3
123	127	2
150	157	2
136	150	3
175	175	11
88	148	1
29	30	4
25	71	3
84	110	1
181	182	13
2	7	2
50	52	3
8	53	2
8	9	2
63	154	1
32	34	3
132	134	2
116	117	3
67	70	2
158	191	1
100	120	1
18	19	2
27	28	8
81	81	12
62	63	2
16	17	9
27	35	4
143	146	3
7	22	1
132	141	4
106	107	3
148	152	1
2	4	3
150	189	6
55	56	3
120	133	1
172	183	5
128	130	2
103	115	1
176	177	6
68	160	2
130	174	2
25	27	6
115	123	2
138	169	1
141	183	6
155	159	1
170	193	2
83	112	2
33	34	4
45	58	3
41	51	1
51	54	2
124	196	3
64	67	1
75	147	2
76	88	3
49	50	3
172	174	3
74	76	3
5	27	1
69	150	1
102	106	1
161	164	3
138	151	1
144	178	1
145	166	4
4	36	1
46	49	1
175	178	3
150	196	2
16	33	2
110	124	5
14	15	5
5	55	2
11	58	1
150	197	1
125	140	2
137	152	2
88	89	3
154	172	3
172	180	3
94	96	1
98	109	7
173	177	5
58	73	2
74	77	1
95	97	9
172	177	3
145	155	4
150	152	1
83	127	2
139	147	3
108	153	1
164	164	6
121	194	1
162	174	4
10	12	3
53	54	4
157	189	1
44	52	1
149	162	2
56	57	4
25	26	4
120	125	3
142	150	1
97	128	1
142	145	1
34	111	1
47	125	1
181	183	1
33	37	2
100	123	1
142	180	1
182	185	1
57	69	1
6	6	13
10	13	1
161	172	3
177	190	1
8	11	2
72	83	1
67	159	1
24	36	2
157	194	1
150	171	2
156	157	3
191	193	1
70	71	5
9	23	1
83	87	3
98	130	1
89	157	2
95	134	1
35	105	1
33	132	1
149	151	2
9	34	3
157	162	3
181	188	1
164	169	2
133	140	1
101	106	1
134	152	3
124	142	1
60	77	1
66	83	3
36	37	3
56	58	4
1	5	3
33	35	2
139	142	2
67	75	1
25	34	1
12	94	4
32	117	2
128	187	1
175	190	1
102	111	2
56	94	1
54	150	1
5	10	1
149	153	1
173	176	4
66	67	1
138	150	2
27	29	4
4	16	2
154	179	1
172	175	2
18	20	3
129	130	1
115	119	3
146	148	9
166	190	3
58	60	1
114	120	2
58	118	1
76	144	2
186	196	1
34	39	4
32	57	1
22	71	2
140	144	2
55	150	6
147	157	1
145	192	1
98	100	2
179	182	1
140	157	1
19	20	2
101	119	3
90	150	2
132	135	2
174	179	3
47	52	1
54	93	2
41	135	1
43	62	1
125	126	1
74	75	4
103	135	2
137	147	1
17	39	1
172	178	1
160	167	1
153	156	2
9	13	2
149	194	5
58	62	2
44	45	1
157	173	1
66	68	2
134	139	1
156	187	1
189	191	1
17	24	1
158	167	1
153	157	1
22	36	2
23	33	2
79	83	1
133	152	3
1	3	2
64	74	1
106	110	2
129	133	2
115	118	2
129	170	1
159	176	2
36	67	2
25	40	2
4	27	1
77	77	3
142	155	1
67	71	3
142	181	1
106	108	1
162	165	2
39	41	1
42	51	1
142	147	1
100	114	3
16	24	3
151	171	1
129	169	1
10	15	1
69	159	3
148	186	1
94	178	1
143	182	3
101	102	2
150	185	1
36	38	1
166	168	1
4	31	1
175	193	2
133	135	1
185	189	2
141	152	1
18	30	1
58	75	1
19	46	1
68	76	1
131	183	1
162	168	2
78	79	1
150	193	1
24	37	1
75	77	2
48	51	1
149	188	1
4	32	1
27	30	1
41	87	1
102	138	1
51	56	1
125	127	1
17	23	1
32	167	1
174	178	1
159	188	3
122	124	1
149	195	1
68	73	1
183	185	1
23	44	1
142	171	1
5	21	1
182	188	1
132	138	1
93	96	1
147	167	1
11	13	1
73	76	2
76	145	1
33	117	1
123	134	1
162	166	1
164	172	1
177	181	1
138	141	1
127	130	1
75	109	1
29	35	1
80	87	1
100	110	1
28	30	1
181	189	1
168	170	1
152	162	2
13	50	1
172	187	1
156	171	1
172	188	2
17	40	1
104	136	1
15	49	1
186	191	1
8	24	2
190	194	1
66	70	1
130	132	1
47	53	1
133	134	3
76	79	1
5	23	1
82	103	1
25	137	1
113	118	2
154	197	1
103	118	1
43	56	1
176	179	1
21	113	1
134	137	1
6	42	1
24	115	1
93	99	1
19	21	1
178	193	1
14	33	1
53	56	1
85	93	1
133	151	1
