94	95	2
190	190	6
44	44	4
4	4	4
12	12	6
42	48	1
29	30	2
61	62	5
152	152	5
181	181	10
135	151	3
21	70	3
125	125	9
114	115	5
141	143	3
67	67	5
164	165	4
8	8	8
168	170	4
66	66	2
169	170	2
29	37	1
87	87	6
55	56	4
81	102	2
38	40	3
90	90	5
117	117	5
55	57	8
113	115	2
86	88	3
97	97	2
76	76	7
103	103	2
95	97	3
99	100	1
158	158	1
39	39	3
77	78	4
15	89	4
71	72	6
42	42	2
68	69	5
118	118	8
15	15	6
130	130	4
1	8	3
20	20	7
180	182	1
111	112	4
153	153	5
78	78	3
11	13	11
123	133	4
157	157	7
96	98	1
20	25	2
82	100	4
111	111	11
74	74	3
108	114	3
95	121	5
130	131	6
43	63	4
147	178	1
120	121	4
21	21	1
101	104	2
37	38	4
102	102	12
140	140	13
30	32	4
38	38	7
84	84	5
61	66	4
0	88	2
157	176	3
40	40	7
85	86	2
185	185	5
138	139	6
60	60	3
55	55	3
21	97	1
36	36	9
147	147	8
23	24	5
169	174	1
53	53	6
64	72	1
107	108	6
5	5	7
26	26	6
150	151	2
134	188	1
125	126	4
167	169	4
18	36	2
110	148	6
139	139	3
12	13	3
92	93	4
82	102	3
54	65	1
70	70	4
157	178	1
132	132	4
66	110	1
151	179	2
115	116	2
2	87	2
11	11	4
92	92	6
117	119	8
14	17	1
24	92	1
54	55	3
90	91	1
124	127	1
189	189	7
110	110	2
178	179	8
121	121	5
83	83	3
18	18	2
106	106	2
7	7	4
30	31	2
109	111	2
47	47	3
59	60	4
54	60	3
10	19	2
32	33	2
95	96	1
108	108	9
59	59	3
123	124	3
22	23	1
94	94	4
91	93	6
47	48	4
95	95	3
73	84	1
118	147	2
25	25	4
141	141	4
135	136	3
10	10	11
113	116	1
80	117	2
17	17	3
89	89	3
134	135	2
68	74	1
22	25	1
55	58	2
13	18	5
73	75	1
8	109	2
4	16	2
16	16	5
127	153	1
22	22	4
183	184	3
81	81	2
41	43	2
57	58	3
183	183	5
135	135	6
140	141	2
27	30	3
139	141	1
83	84	3
142	142	8
169	169	6
85	97	1
112	113	3
180	180	4
39	40	5
114	119	1
126	127	2
10	16	3
113	113	3
129	130	1
3	89	1
163	163	2
185	186	5
28	28	3
98	98	1
171	173	4
156	183	1
3	3	1
73	74	5
77	77	8
150	150	1
42	63	1
35	35	6
46	47	1
185	189	4
182	182	1
32	32	5
75	76	4
163	171	2
160	161	1
101	103	2
5	12	6
19	93	2
107	107	3
164	167	2
72	84	4
176	176	4
47	62	5
119	122	3
27	43	1
143	143	3
172	174	2
163	164	3
159	174	1
33	33	3
53	134	1
136	136	1
72	72	1
13	13	7
156	160	5
53	58	3
144	144	7
0	1	3
41	41	12
6	15	1
123	125	1
32	35	4
23	23	1
153	183	2
85	85	3
31	34	2
122	124	1
122	123	6
176	177	1
175	175	7
104	104	2
129	129	2
57	83	1
151	151	6
117	118	2
184	184	1
31	31	1
179	179	4
4	17	4
101	102	2
71	71	4
73	73	1
106	113	2
117	146	2
112	112	3
74	76	2
148	148	2
25	96	1
176	180	1
64	76	3
164	164	6
166	166	4
110	111	3
65	68	1
65	65	2
55	65	4
172	172	5
28	29	3
119	120	3
42	43	1
113	114	4
91	94	2
146	146	1
101	101	5
83	99	1
43	44	2
6	6	4
74	75	3
104	105	2
174	174	5
73	85	3
71	73	1
86	87	2
153	154	1
2	2	2
128	128	2
0	66	2
58	60	2
113	117	2
59	63	4
5	9	1
173	174	2
28	30	3
97	98	2
89	94	1
4	25	1
121	181	1
109	109	2
56	57	3
63	63	5
167	167	3
155	162	1
81	83	2
108	131	1
165	165	3
21	96	1
106	145	2
184	185	1
155	156	1
116	116	2
57	57	8
57	60	1
115	118	3
102	103	4
154	175	1
168	173	1
182	183	2
1	115	1
27	37	3
122	122	1
170	170	3
4	8	2
149	149	2
6	17	1
12	20	2
79	108	1
89	93	1
156	180	1
78	80	2
124	128	1
167	168	1
114	117	1
28	39	1
155	155	3
114	114	5
147	148	1
161	176	2
35	36	2
105	112	3
152	170	1
119	119	3
93	95	1
120	131	1
87	88	1
145	145	2
17	37	2
123	127	1
86	86	1
53	55	1
142	143	1
157	177	1
140	146	1
106	107	3
6	7	2
120	120	1
188	188	3
42	44	1
129	131	1
60	73	1
166	167	1
171	171	1
81	82	3
162	164	1
124	124	1
29	35	1
38	39	1
29	29	1
159	159	2
25	38	1
151	153	3
102	107	2
106	114	1
22	24	1
118	119	2
14	15	1
47	82	1
170	171	1
157	158	1
145	147	1
155	180	2
3	9	1
45	45	1
118	144	1
106	148	1
22	95	1
45	46	2
19	20	1
4	6	1
166	169	2
80	82	1
177	177	1
91	91	2
71	74	1
110	131	1
8	10	1
42	45	2
18	42	1
123	123	2
30	35	1
131	131	1
109	110	3
105	105	1
135	137	1
140	143	1
58	58	1
149	177	1
81	108	1
31	33	1
121	123	1
24	24	2
168	168	2
162	163	1
115	115	1
154	156	1
4	40	1
41	42	1
43	107	1
64	85	1
126	126	1
163	166	1
181	183	1
26	43	1
79	80	1
20	22	1
3	24	1
14	14	1
155	179	1
