54	68	3
58	60	8
31	36	8
89	89	9
41	42	2
29	29	6
39	44	6
34	34	8
78	78	18
39	42	6
65	90	4
61	61	18
43	44	15
44	44	18
87	87	21
21	31	1
98	98	9
35	36	3
88	90	4
78	81	1
33	33	15
77	77	9
79	80	6
75	75	33
73	73	20
42	42	27
63	63	8
27	28	12
63	81	4
28	28	11
42	43	7
22	22	6
60	82	2
88	89	9
25	25	15
23	23	12
33	42	2
37	37	18
74	74	16
48	48	8
75	101	3
71	71	20
70	70	5
56	56	23
103	103	21
38	39	16
36	36	12
25	26	1
25	27	4
68	69	25
81	81	3
93	94	3
41	41	15
50	50	19
42	44	5
31	95	3
26	45	5
86	87	5
82	83	8
38	38	17
21	21	16
61	63	6
68	68	20
100	100	11
76	76	16
31	32	3
19	38	4
84	89	8
27	27	20
83	86	6
106	106	6
93	93	12
72	72	11
64	64	17
79	81	7
79	79	28
69	69	6
48	49	5
65	65	18
66	66	27
24	28	1
102	102	12
58	61	2
55	55	12
95	95	14
60	60	12
68	70	4
75	76	9
91	91	24
45	45	13
62	62	17
26	27	7
56	59	1
99	99	22
32	38	1
54	54	13
71	72	8
101	101	26
70	91	2
104	104	7
90	91	7
96	96	11
49	49	16
40	40	10
40	44	7
58	58	15
26	26	7
71	74	4
83	84	14
64	65	14
65	91	4
47	47	10
86	90	6
23	98	5
105	105	13
46	46	6
32	33	5
82	82	11
32	32	14
97	99	1
32	36	2
85	85	8
92	92	24
30	34	2
84	84	8
57	57	11
52	68	1
71	73	7
69	70	5
35	35	10
84	85	6
28	29	3
56	61	2
95	100	2
77	78	3
94	101	4
60	61	8
31	31	5
41	43	4
105	106	3
40	42	2
20	21	6
77	79	5
77	94	1
80	81	5
102	103	4
90	90	4
78	96	1
94	96	4
85	86	1
83	83	6
84	88	3
57	58	3
58	80	1
70	92	3
33	34	5
56	57	11
97	106	4
33	36	4
56	63	2
65	66	8
76	77	7
58	59	3
103	104	1
51	51	10
55	57	3
24	24	4
23	24	3
51	53	3
95	98	1
92	106	3
37	47	3
87	88	8
53	53	9
28	30	1
80	80	7
86	86	8
59	62	1
97	97	5
82	89	1
47	48	2
82	87	12
82	84	6
65	67	3
70	71	5
29	31	2
39	39	13
66	91	2
38	106	2
79	94	1
66	90	4
61	84	4
47	49	2
64	89	1
50	51	2
61	62	3
37	39	3
52	52	11
82	98	1
74	75	3
32	34	5
52	53	3
51	54	4
63	88	1
67	72	2
94	94	2
24	25	3
26	46	2
97	98	4
94	95	7
56	58	1
82	88	5
36	37	3
89	90	10
84	86	3
85	91	4
58	63	1
66	67	3
46	47	7
73	74	3
62	63	14
32	45	2
67	67	13
88	88	17
78	79	6
49	50	4
87	93	3
46	48	3
86	93	1
20	26	1
70	72	8
59	106	2
100	101	5
88	93	2
22	23	3
81	82	1
41	44	6
38	43	1
84	99	1
104	106	2
72	73	2
98	99	1
91	92	3
59	60	4
67	68	1
101	102	1
52	55	2
30	40	3
94	98	1
54	69	1
76	101	2
53	55	2
30	31	1
20	20	3
93	95	5
70	101	2
72	74	2
46	105	1
56	62	2
107	107	1
57	60	1
54	55	1
83	87	2
43	43	1
55	68	1
65	70	1
99	100	3
61	64	1
46	80	2
67	90	1
29	41	1
44	45	2
59	59	2
79	96	1
83	85	1
34	78	1
95	97	1
41	46	2
92	95	2
59	93	1
83	99	1
57	59	1
96	99	2
64	84	1
34	36	1
52	54	1
85	87	1
