42	43	5
58	58	2
92	94	1
120	120	17
112	113	6
116	118	5
33	35	2
8	20	3
140	141	5
148	148	13
109	109	12
155	155	12
46	46	5
116	116	7
142	143	11
146	147	7
189	190	4
115	115	12
138	138	10
162	163	12
101	103	6
22	23	3
182	183	2
90	90	13
55	56	6
32	32	5
92	92	7
99	99	7
0	0	10
23	24	8
164	164	8
35	36	5
141	141	4
131	132	2
126	127	5
39	40	5
77	77	10
83	84	2
122	122	5
163	180	3
130	131	9
176	179	8
118	135	3
173	173	17
56	58	4
70	78	1
117	117	6
89	89	7
161	188	4
2	2	8
120	122	4
29	63	3
45	45	14
74	110	4
141	142	2
95	96	7
73	112	1
188	188	20
32	35	1
99	112	4
186	186	11
165	166	3
37	38	9
8	8	6
71	115	3
96	98	10
181	181	14
109	110	7
130	130	10
12	13	7
131	131	6
189	189	7
142	142	16
139	146	2
58	61	4
161	163	3
42	44	5
29	29	19
178	181	5
56	56	9
54	54	11
57	57	5
136	136	10
184	184	11
63	63	15
10	12	1
70	70	9
111	111	8
35	35	10
39	39	13
44	44	10
182	186	3
14	14	9
180	189	1
167	168	5
20	20	6
26	26	10
152	152	10
30	30	4
29	30	7
147	147	13
180	181	2
59	59	7
36	47	7
105	105	6
126	128	4
107	107	12
17	19	1
62	63	5
7	7	6
190	190	7
174	177	2
62	62	3
98	108	2
168	174	3
43	43	10
80	80	12
61	61	11
187	189	7
69	69	8
178	178	12
158	165	2
165	189	1
19	19	4
165	165	19
60	60	4
5	13	4
83	83	10
25	25	9
143	143	5
146	187	1
129	129	7
41	41	7
55	55	8
139	139	17
61	63	6
104	135	6
76	78	1
144	144	4
79	81	6
70	82	1
187	187	8
165	173	1
105	114	1
86	86	7
157	157	21
18	18	12
154	154	14
6	40	1
103	103	4
86	91	1
146	148	1
31	32	4
19	20	8
100	144	4
27	28	3
161	164	4
72	74	3
98	109	1
84	85	3
151	154	1
166	167	3
33	34	7
180	180	16
113	113	2
93	94	4
14	15	8
37	37	11
36	37	1
100	100	13
47	53	4
188	189	12
85	85	14
47	47	7
141	144	1
177	177	10
108	108	4
91	115	1
64	66	2
92	93	11
157	158	4
96	96	9
40	41	5
106	106	8
156	157	8
156	156	4
163	190	1
96	97	6
42	42	6
136	137	8
105	106	2
65	66	5
151	151	4
171	171	7
175	176	2
64	64	15
153	153	3
122	125	1
166	186	1
68	69	4
124	126	3
66	67	7
176	176	8
55	57	2
65	65	5
112	112	5
59	63	3
12	44	1
127	139	3
158	159	1
147	151	3
38	38	13
125	125	5
104	104	16
53	53	7
75	76	8
16	17	2
82	84	1
178	179	5
172	173	9
88	88	11
181	182	1
119	122	1
98	111	4
24	24	6
82	83	3
121	145	5
167	167	11
40	40	8
81	83	2
117	118	7
160	161	4
77	81	2
94	94	7
66	66	8
95	95	5
122	123	7
158	158	6
149	149	7
20	21	3
114	114	8
150	150	5
186	187	3
27	27	9
142	144	4
28	28	12
13	13	13
34	36	3
6	6	5
78	78	5
137	137	2
48	48	9
104	105	5
169	169	5
182	182	4
99	100	6
121	122	2
152	153	5
4	9	3
171	173	2
174	174	7
45	49	3
180	185	1
116	117	3
106	143	1
43	66	3
26	28	2
168	170	1
118	120	3
128	128	9
31	34	3
138	157	1
3	3	8
163	163	5
123	125	3
80	81	3
104	106	5
30	31	4
34	47	3
21	21	5
21	23	2
146	146	11
72	72	9
24	25	1
100	140	3
74	74	6
34	34	1
111	113	3
73	75	3
4	4	6
170	170	2
128	129	2
54	55	1
58	59	3
105	136	2
142	152	1
96	99	1
101	101	2
121	121	10
97	97	5
10	10	9
123	123	6
59	60	3
18	22	2
115	139	1
23	61	2
68	68	2
78	79	2
5	5	1
118	118	6
119	155	1
28	63	2
179	179	1
91	94	4
168	169	3
44	45	8
56	57	2
178	188	4
119	119	2
110	110	4
72	73	1
5	9	2
132	133	3
72	82	4
166	166	6
87	87	9
147	150	3
4	12	1
21	22	4
98	98	4
121	138	1
126	126	1
172	174	2
102	145	1
162	188	1
57	63	1
155	157	1
183	183	4
175	175	6
64	65	2
136	153	2
182	188	2
101	146	4
23	29	2
28	31	2
187	188	2
121	155	3
31	31	6
68	71	2
168	179	5
75	75	5
161	161	5
130	136	2
44	46	1
108	113	1
18	19	6
67	87	1
35	52	4
107	108	3
167	170	2
11	28	4
25	26	3
127	127	7
4	7	1
65	68	3
71	101	1
154	156	1
108	110	1
0	1	2
61	62	3
165	188	2
162	162	6
173	178	1
185	186	1
165	168	1
7	13	1
138	141	2
184	186	1
148	149	3
33	33	7
153	154	2
11	11	4
15	15	3
111	112	1
43	44	2
88	89	3
18	24	6
87	88	1
181	183	1
110	142	2
73	74	3
53	58	2
100	101	3
73	73	10
3	4	3
71	114	1
70	72	1
46	47	2
166	179	1
22	22	9
125	141	2
167	169	1
144	145	2
97	98	3
68	72	3
123	124	3
81	81	5
140	140	5
31	35	5
132	132	3
48	73	2
82	82	6
128	184	2
160	160	2
35	47	2
44	66	1
130	134	3
156	159	1
129	150	4
76	76	11
139	151	1
85	86	3
145	146	4
53	64	2
134	135	6
183	184	1
131	136	4
155	158	1
53	173	1
149	150	2
165	177	2
95	97	3
168	168	1
127	128	2
177	178	4
99	141	1
129	135	3
163	164	6
17	17	3
97	109	2
148	166	1
52	52	3
29	31	1
23	23	3
124	124	6
132	149	1
28	60	1
78	83	3
100	106	1
102	102	4
12	12	4
139	140	4
133	133	1
62	64	3
71	71	2
36	46	1
182	187	1
16	20	2
20	61	1
153	170	2
106	110	2
67	67	6
151	152	2
141	143	7
6	7	2
84	84	6
181	185	1
98	100	1
33	36	1
76	79	2
63	64	2
9	10	2
128	147	3
113	117	3
86	87	3
71	105	1
90	91	2
135	150	1
129	130	2
72	85	2
124	185	1
134	134	4
103	107	3
118	155	2
154	165	3
174	175	4
147	148	2
119	120	1
91	93	4
157	159	2
93	98	1
30	32	1
145	145	6
138	153	3
70	71	2
4	5	3
176	177	2
85	97	1
173	175	2
105	113	1
125	139	3
71	93	1
114	115	3
86	89	1
120	121	2
52	55	1
13	24	1
102	147	1
45	46	1
103	145	1
151	153	1
47	48	2
89	91	2
67	72	1
33	46	2
154	164	1
135	135	1
179	181	2
145	147	1
134	136	1
152	171	1
74	75	2
139	142	1
168	173	1
89	90	1
141	151	1
174	178	2
182	185	1
102	103	1
135	137	2
29	33	2
16	16	4
94	97	2
134	145	1
126	158	1
125	127	2
37	47	1
123	147	1
154	170	1
15	16	2
3	7	1
170	186	1
21	65	1
129	134	1
7	25	2
122	147	2
170	171	2
5	26	1
11	12	2
7	8	1
41	42	2
28	32	4
32	33	1
144	146	2
81	82	1
67	71	1
78	80	1
169	170	2
36	36	2
74	76	1
131	134	1
125	126	1
12	27	1
79	79	2
91	91	1
135	136	1
20	24	3
98	99	1
37	81	2
150	151	2
85	108	2
130	159	2
139	143	1
48	66	2
171	172	1
34	35	2
71	72	1
97	99	1
7	9	1
8	10	1
177	183	1
149	151	1
135	154	1
29	60	1
103	105	1
164	165	1
9	28	1
58	66	1
185	188	1
129	147	1
20	23	2
3	8	1
134	137	1
163	178	1
28	62	2
57	58	1
60	61	1
100	141	1
131	133	1
60	64	1
100	142	2
53	54	3
154	155	1
173	174	1
17	20	1
185	185	1
76	77	1
36	44	1
97	108	1
163	188	1
113	114	1
188	190	1
7	10	1
158	162	1
118	122	1
1	1	1
100	143	1
163	189	1
10	11	1
122	124	1
182	190	1
146	161	1
180	190	1
27	29	1
118	119	1
108	109	1
