109	109	11
72	72	1
9	9	11
44	44	16
115	162	3
78	79	11
12	14	2
103	104	6
20	22	4
33	33	9
2	2	26
162	162	4
124	124	10
25	25	16
52	52	14
62	98	3
82	82	8
136	136	10
37	37	21
155	155	7
8	8	18
1	2	9
110	110	19
111	111	6
53	53	11
145	145	3
125	127	2
26	27	8
102	102	3
26	26	6
134	135	12
155	156	5
13	13	7
34	34	15
117	117	14
135	135	2
43	43	19
131	131	11
135	136	6
110	111	10
132	133	11
133	135	5
89	94	1
98	98	13
127	127	8
126	148	3
112	166	3
2	3	3
90	91	6
101	102	7
37	38	4
151	158	1
72	82	6
14	14	6
141	141	7
169	170	3
7	9	3
14	15	6
80	80	13
164	164	8
91	91	7
41	41	8
16	16	4
165	165	2
74	141	1
92	93	6
56	56	26
142	142	4
40	40	16
71	71	7
80	149	1
28	28	2
57	57	8
0	1	5
27	27	12
70	70	7
1	1	11
134	134	19
160	161	2
159	159	15
155	157	4
138	138	8
20	20	14
161	162	6
157	158	6
112	155	6
118	118	10
143	143	9
108	108	12
75	99	3
149	154	1
16	17	7
148	148	13
74	76	2
152	152	13
133	133	4
39	39	10
55	55	6
91	92	2
81	81	15
122	123	4
24	25	6
15	15	5
139	139	7
3	4	7
18	18	6
165	166	2
146	147	3
151	151	12
149	152	3
42	43	7
120	155	6
92	92	6
114	115	5
153	153	7
58	58	2
42	42	12
130	130	7
128	129	2
4	4	14
6	6	14
24	24	23
45	46	2
128	128	3
85	156	3
124	169	3
33	34	10
68	91	3
123	150	2
55	56	9
93	94	4
125	151	1
7	7	17
50	58	1
66	67	1
120	120	3
137	137	9
93	93	7
13	14	6
63	63	7
147	147	4
107	107	9
150	150	14
122	122	1
144	144	3
36	36	15
165	167	1
121	122	5
6	12	3
166	166	5
89	89	7
47	52	2
101	103	2
48	48	8
51	52	3
73	73	11
65	65	6
80	81	4
57	63	1
9	10	2
22	22	1
126	126	9
40	42	4
50	50	7
69	69	2
161	161	10
130	140	2
149	149	6
3	3	15
106	106	5
115	161	1
125	126	10
122	151	3
64	64	10
99	100	3
20	23	4
81	83	2
38	38	14
46	46	7
17	26	1
166	167	2
57	62	5
97	99	7
35	36	9
10	10	11
126	141	1
125	147	3
49	52	3
140	140	9
168	168	4
136	141	2
17	17	18
74	105	5
124	153	1
154	154	7
12	26	1
45	45	7
74	74	6
96	97	4
96	96	6
53	54	6
43	75	2
6	15	1
85	85	4
65	98	2
84	84	7
53	76	3
157	157	7
86	94	2
126	128	5
123	123	3
130	139	1
116	117	7
21	24	3
66	85	3
125	128	2
13	15	4
141	146	1
10	13	4
132	132	8
154	155	7
116	116	6
42	55	4
62	62	4
131	137	1
123	124	1
105	105	7
100	101	1
81	100	2
126	158	4
34	35	8
109	112	4
36	37	4
48	50	1
68	68	2
4	5	5
11	15	2
167	167	5
8	9	5
56	76	3
44	74	1
19	19	9
81	106	2
117	152	5
144	145	1
158	159	2
23	38	1
38	40	1
169	169	1
86	86	5
127	130	4
21	21	2
40	41	4
107	108	4
116	151	1
131	136	2
150	151	5
99	103	4
18	19	3
76	77	2
83	83	3
12	16	3
87	87	5
111	136	5
149	150	1
40	50	1
23	23	7
6	7	2
41	42	3
11	11	8
81	149	2
95	95	3
44	45	1
74	75	4
138	166	2
137	139	4
143	144	2
75	100	1
125	125	10
136	137	2
35	35	7
44	76	1
75	75	7
164	170	2
49	49	1
83	108	1
108	109	8
108	111	1
101	101	2
159	160	2
77	77	3
163	163	3
12	13	2
118	154	4
150	152	4
25	167	1
18	20	3
79	79	2
110	112	5
113	113	10
64	69	1
52	76	1
64	68	1
78	78	1
80	148	1
91	94	1
139	141	3
145	147	3
124	125	2
65	66	1
124	152	1
5	6	2
111	137	2
62	110	2
128	144	1
168	169	1
114	163	2
138	158	1
0	0	10
114	114	2
14	70	3
106	107	1
130	149	3
69	96	1
43	74	2
99	99	4
111	125	5
109	110	2
170	170	1
86	87	5
111	112	4
139	166	4
139	140	2
83	84	2
64	91	2
57	74	2
117	118	4
35	37	2
100	147	2
40	49	2
112	112	2
162	163	3
49	50	2
83	104	2
138	139	1
125	155	1
119	160	1
51	51	5
115	118	6
119	155	2
10	11	4
22	75	1
143	145	1
151	159	1
70	109	1
159	166	1
115	115	1
23	24	1
5	5	4
68	69	2
120	121	1
63	66	1
76	76	5
142	144	1
54	54	5
36	139	3
18	22	3
62	63	1
125	131	2
9	13	1
146	146	2
109	166	2
86	88	1
104	104	3
121	124	2
7	8	1
15	16	1
12	12	2
71	72	1
67	93	1
26	37	1
101	127	1
100	102	1
129	129	9
100	100	1
97	97	2
17	18	2
3	7	1
52	57	2
117	151	2
140	141	1
57	96	1
67	67	1
38	39	2
126	127	2
19	26	1
133	134	3
156	156	2
47	48	3
62	96	2
73	74	1
129	130	1
127	129	2
45	49	1
22	28	1
103	103	3
133	136	1
125	159	3
0	2	2
56	57	2
109	116	1
6	10	1
63	69	3
69	70	1
75	107	1
158	166	1
81	82	1
116	118	1
69	108	1
46	52	1
88	88	1
51	140	1
130	141	1
36	165	1
158	158	2
135	156	1
89	90	1
52	53	1
110	113	1
88	157	1
87	94	2
6	13	2
116	153	1
153	157	1
92	94	1
85	86	1
46	47	1
25	27	1
