70	70	8
113	113	8
15	15	5
155	155	9
64	64	11
134	134	12
156	157	5
10	10	14
11	11	3
54	54	9
120	121	3
7	8	8
72	72	7
158	158	14
17	17	11
75	75	8
143	143	5
129	129	8
127	130	3
9	9	17
77	99	3
90	90	17
47	47	24
0	27	3
56	57	7
108	109	3
69	70	7
20	21	1
146	150	5
10	12	2
37	37	20
53	54	6
4	4	15
93	93	8
137	137	13
0	0	3
119	119	5
142	142	16
86	86	8
24	24	12
126	126	14
55	55	9
148	148	9
117	117	8
107	107	8
108	108	12
23	23	15
149	150	3
133	133	16
92	92	6
89	89	11
66	67	4
21	21	14
35	35	18
157	158	5
3	3	29
42	42	27
88	89	1
103	104	3
167	169	6
76	78	1
83	111	2
110	110	13
56	56	7
39	40	6
1	1	15
19	19	10
161	161	4
151	151	9
1	2	6
121	121	7
129	132	6
7	7	15
27	28	1
53	55	3
88	88	12
77	78	4
104	104	5
83	83	5
69	69	10
120	122	2
21	24	3
50	51	4
136	139	2
125	125	11
26	26	8
137	138	5
142	143	18
33	33	6
53	104	1
40	40	10
41	41	9
36	36	14
146	146	12
91	92	4
161	165	5
101	103	2
45	72	2
57	63	3
79	79	5
131	131	9
124	124	8
134	135	7
54	55	7
150	150	5
68	71	3
105	105	3
19	20	6
156	156	6
16	16	8
128	128	7
77	77	4
154	155	1
155	156	2
85	124	8
36	37	4
126	131	1
71	71	10
157	157	6
13	13	12
114	114	2
56	104	5
113	116	4
94	94	8
109	109	13
102	106	3
151	152	6
45	71	2
115	115	5
74	83	3
37	38	8
49	49	8
103	103	3
44	53	5
44	45	9
153	153	2
2	2	17
67	67	6
34	35	1
46	47	8
102	104	2
8	8	15
37	57	2
159	159	4
87	87	4
49	50	2
123	123	2
22	22	8
47	48	4
78	126	1
75	93	5
82	83	4
149	149	19
21	22	2
166	166	19
130	131	2
143	144	4
135	135	11
53	53	8
97	98	5
27	27	2
132	132	6
8	16	1
85	108	2
56	81	2
82	82	11
144	144	1
94	112	2
93	102	2
160	164	1
84	124	6
49	97	4
169	169	7
70	73	5
119	121	4
167	167	3
98	98	4
91	91	5
74	76	1
76	77	6
141	141	7
69	73	5
145	145	2
167	168	1
34	34	12
6	8	1
109	133	3
138	138	10
170	170	2
147	162	2
56	112	3
116	116	6
77	81	1
76	76	6
106	106	1
100	114	1
100	100	7
93	94	1
151	164	2
95	95	3
104	105	1
163	163	6
99	99	11
147	147	4
98	99	2
162	163	3
160	160	6
120	120	4
12	12	5
42	43	2
111	111	9
96	114	2
114	115	4
162	164	4
57	57	7
25	25	7
112	113	6
38	40	4
154	154	8
50	50	13
153	154	3
33	34	3
81	136	4
139	139	4
14	14	9
39	41	1
6	6	11
10	36	1
39	51	2
85	86	4
97	97	5
130	130	6
150	151	8
11	13	3
15	16	5
40	41	2
80	80	2
162	165	3
87	88	2
79	99	2
26	27	3
105	106	2
113	114	2
57	90	1
1	3	1
118	119	1
73	73	3
82	89	2
127	127	5
123	124	2
74	74	7
38	41	3
8	17	2
146	151	2
128	136	2
44	44	4
110	111	8
101	104	2
124	126	2
168	168	9
20	24	2
18	18	1
111	116	2
102	102	4
90	91	2
144	146	1
43	43	8
14	15	2
141	143	1
45	45	10
48	52	2
81	81	11
162	162	1
118	125	1
9	16	1
20	38	1
151	163	3
86	88	2
92	93	4
96	96	4
89	112	1
151	162	3
46	46	3
38	42	1
153	165	1
99	100	3
126	127	3
119	120	3
7	10	3
52	53	5
7	9	2
83	85	2
84	84	9
78	79	5
129	140	1
71	72	3
136	136	4
160	165	1
63	63	4
159	165	7
67	68	4
6	15	1
48	48	5
23	24	2
165	165	2
38	39	1
118	120	2
85	125	2
145	148	4
6	7	2
58	79	1
142	144	2
158	159	5
78	78	5
105	133	2
118	118	2
35	36	2
85	85	6
94	95	3
82	101	1
111	113	1
3	26	2
27	42	1
98	102	1
168	169	2
0	1	10
130	151	1
147	148	3
17	18	4
86	87	3
88	119	1
164	164	4
99	101	3
106	110	1
159	160	2
64	73	4
21	52	1
111	112	5
140	142	1
152	152	1
20	20	5
12	13	2
83	87	3
107	135	1
38	38	3
5	5	1
82	84	1
15	17	1
125	126	1
79	80	2
152	161	1
52	52	4
26	42	3
62	63	2
57	82	2
3	25	1
101	105	2
82	119	3
163	164	3
4	6	3
124	163	1
132	133	1
145	149	2
112	112	2
117	118	3
151	158	4
6	9	1
22	40	1
3	4	1
63	69	1
83	84	2
44	47	3
89	90	2
99	115	2
77	80	2
105	109	1
7	17	1
39	39	6
63	64	2
70	71	3
83	125	1
25	52	1
88	121	1
21	50	1
151	166	1
139	140	2
135	136	1
1	27	1
146	148	2
76	79	1
81	106	1
132	134	2
169	170	2
98	100	1
92	94	1
76	95	1
82	87	1
82	136	1
102	103	1
149	169	1
112	114	1
55	105	1
116	117	1
101	101	1
84	89	1
124	125	1
7	12	1
97	99	1
95	97	1
77	79	1
28	28	1
122	122	1
2	3	1
149	151	1
65	66	1
133	134	1
140	140	2
68	68	1
48	49	1
74	75	1
51	51	1
113	136	1
54	56	1
43	44	1
