87	87	13
104	105	3
138	138	10
46	77	3
57	58	1
44	44	11
148	148	2
8	127	4
2	2	20
142	142	11
15	15	11
8	8	8
131	132	11
132	132	6
147	147	16
139	150	5
76	76	2
4	5	6
140	140	9
146	146	10
24	24	18
114	119	3
11	11	3
139	139	12
53	53	3
43	43	4
81	81	5
141	141	1
20	21	5
86	89	3
107	107	11
93	93	9
83	85	1
153	153	4
14	19	6
135	137	1
29	31	5
110	112	2
156	156	9
111	111	10
75	75	8
117	117	9
49	49	8
21	48	3
140	141	3
27	31	2
6	6	6
87	88	9
127	128	3
115	116	5
99	99	2
50	51	9
122	134	2
86	86	8
148	150	2
10	10	9
12	43	2
158	158	7
155	155	15
116	117	9
27	28	9
79	81	1
121	121	7
48	142	4
143	143	6
3	4	2
77	78	8
52	52	12
55	55	3
136	137	5
69	70	1
39	40	3
75	98	4
23	24	2
151	158	1
124	126	4
89	89	6
128	129	6
8	9	5
106	106	9
69	69	8
83	83	3
55	151	7
34	34	8
67	67	7
18	19	9
137	137	10
18	33	2
19	19	11
45	45	8
155	156	3
109	109	8
135	136	1
131	155	2
4	4	11
36	36	16
13	13	16
152	158	5
106	107	6
65	65	5
17	17	6
130	130	8
127	127	18
67	69	2
17	18	2
119	119	8
24	26	1
39	39	14
131	131	6
28	31	1
22	22	6
134	135	4
136	136	6
135	135	11
29	46	1
154	156	5
141	142	5
149	157	2
25	26	3
120	120	5
116	116	2
154	154	3
91	91	11
31	32	2
139	140	2
46	46	7
118	118	12
24	27	4
125	125	11
80	80	13
97	97	9
35	36	3
120	130	3
62	62	3
35	35	5
36	37	8
54	56	8
92	92	10
25	25	15
118	126	6
144	144	14
42	43	4
13	43	2
86	87	3
94	94	6
72	72	7
40	40	6
28	45	1
71	71	5
101	107	2
101	101	15
25	45	4
50	50	8
63	64	2
68	68	7
50	52	3
78	79	3
5	5	3
16	16	10
54	54	6
1	1	14
49	50	3
89	90	3
104	104	16
9	10	8
78	78	3
82	82	5
128	128	13
29	29	7
30	30	8
108	109	5
134	138	1
81	82	2
145	149	5
132	133	7
68	69	4
103	110	2
8	15	4
28	30	2
20	20	8
14	14	2
96	96	7
70	70	5
74	74	2
45	46	2
2	4	3
47	75	1
108	112	2
3	3	7
2	3	3
55	69	1
145	145	6
46	48	1
40	41	11
106	108	2
118	120	3
10	15	1
52	53	5
112	112	2
3	5	2
100	100	7
129	129	3
108	108	4
113	114	5
130	131	3
85	85	8
122	123	4
151	151	4
134	134	7
47	47	6
27	27	4
7	8	6
130	136	6
118	119	2
33	33	3
140	142	2
0	0	8
33	34	7
134	149	2
7	7	5
110	110	10
42	42	6
91	92	3
150	150	4
47	48	5
119	133	3
152	152	8
12	152	1
99	100	2
45	75	3
9	127	3
107	111	2
25	140	2
113	115	1
119	120	3
71	85	4
48	48	6
11	12	3
29	32	4
13	14	5
131	138	2
79	79	2
23	23	7
82	85	1
153	154	2
125	126	5
29	30	1
114	114	9
36	48	1
154	155	3
51	52	1
49	77	2
28	28	8
121	137	3
95	97	3
12	20	1
88	88	4
148	149	3
141	154	2
70	85	2
64	90	2
51	51	13
98	98	4
27	138	2
9	12	4
123	126	2
117	119	3
102	107	3
12	12	5
21	22	4
124	125	1
79	152	2
150	157	1
145	146	3
57	154	1
157	157	6
109	113	3
8	12	4
32	33	1
11	151	3
21	21	5
105	110	2
20	51	1
23	26	3
32	32	1
113	113	6
103	103	15
56	64	1
107	108	3
18	20	2
24	30	1
157	158	4
41	42	1
115	115	6
129	130	4
64	65	1
123	124	5
30	31	2
9	9	11
8	10	1
40	42	2
150	156	3
94	95	8
51	69	2
26	28	2
41	41	3
51	83	2
146	147	3
55	56	1
114	115	5
12	13	3
118	121	4
26	26	7
23	25	4
87	93	1
109	110	2
84	84	3
57	67	1
84	85	4
52	83	2
105	106	3
56	56	1
156	157	1
93	94	2
123	123	2
23	54	1
108	111	1
108	110	3
94	114	2
27	47	3
77	103	1
137	138	6
77	77	12
31	31	1
122	122	2
37	37	2
86	88	2
126	127	2
95	96	4
119	126	2
2	5	2
70	72	1
154	157	2
93	99	1
102	103	1
22	78	1
45	50	1
66	66	1
57	153	2
90	90	4
80	93	2
73	74	1
92	94	2
105	105	2
65	71	4
1	2	4
13	16	1
121	126	1
110	123	1
96	97	1
117	120	2
126	128	2
88	120	1
5	8	1
46	47	1
142	143	1
55	64	2
92	93	2
90	95	3
134	137	2
19	36	1
114	120	1
22	25	1
133	133	3
124	124	1
147	148	4
117	118	1
126	126	2
27	137	1
78	81	2
113	131	1
100	105	1
149	149	2
135	143	2
20	22	3
71	100	2
73	73	1
152	153	1
34	35	2
121	123	1
102	102	1
90	93	1
120	139	1
12	17	1
68	70	1
88	117	1
97	98	1
50	82	1
95	95	2
16	19	1
103	104	1
126	131	1
38	39	2
139	147	1
33	37	2
116	135	2
16	17	2
105	115	2
142	147	1
114	116	1
89	116	1
52	54	2
18	18	3
64	86	1
63	63	1
14	18	1
110	114	2
20	50	1
94	98	1
32	35	1
90	92	1
24	54	1
20	53	1
145	154	1
