63	63	26
19	38	12
161	161	13
19	19	17
240	242	5
170	170	10
180	182	2
197	197	14
3	3	7
13	13	1
6	33	1
112	113	10
51	51	21
225	225	16
168	168	25
17	17	19
212	212	25
163	163	13
79	81	3
241	244	3
51	56	8
117	119	3
92	92	13
204	204	13
168	173	1
209	214	8
96	96	20
111	244	3
234	234	12
18	18	17
200	200	24
177	178	8
156	156	20
166	168	3
205	205	34
90	90	14
178	178	24
32	47	5
82	84	3
177	177	15
114	115	12
46	46	17
54	228	4
240	240	8
150	185	2
197	223	2
21	21	9
217	217	3
11	11	14
175	176	7
36	36	6
69	69	6
203	203	13
240	247	2
78	178	4
25	25	22
97	98	2
224	225	5
151	151	35
158	159	4
62	62	14
115	115	24
50	50	10
167	167	14
222	222	6
160	160	11
14	14	11
197	208	3
177	180	3
21	42	1
211	241	2
159	159	12
169	169	24
191	191	8
22	22	13
30	34	4
204	208	3
114	114	12
110	110	19
118	118	1
238	238	21
78	79	6
18	215	6
184	185	9
157	157	14
81	81	9
48	48	9
87	88	9
32	32	20
40	42	6
196	208	1
52	52	10
95	95	19
24	24	27
221	223	2
245	245	15
245	246	9
36	39	2
6	6	7
178	179	3
210	214	4
211	213	3
65	65	10
230	230	12
26	26	18
232	248	2
28	176	5
23	24	5
163	165	6
11	32	2
12	18	4
15	15	21
77	77	6
217	218	8
223	223	16
208	208	25
172	174	6
201	201	10
176	178	7
168	169	9
199	199	16
238	239	18
83	83	3
53	53	14
8	8	16
57	58	7
106	107	4
241	241	10
43	43	15
221	221	13
177	179	7
68	201	1
182	182	23
194	194	7
164	164	13
42	42	18
110	151	3
99	99	7
209	209	34
113	113	31
88	98	2
59	59	17
190	190	17
229	230	2
19	214	2
18	29	4
166	166	13
68	68	14
67	67	18
62	63	10
206	207	6
173	173	19
109	239	1
215	215	2
20	20	19
60	60	4
228	228	7
218	220	5
53	58	1
23	23	23
78	78	17
178	192	5
241	242	3
172	173	16
145	145	17
111	112	5
5	5	8
116	116	29
8	26	2
226	227	7
149	149	7
37	37	8
20	47	2
55	57	1
93	93	8
4	5	9
224	224	7
155	162	1
9	9	9
9	43	5
94	95	9
202	203	12
170	186	2
101	101	12
29	29	18
221	222	9
242	242	18
102	102	3
51	53	1
181	182	5
214	215	10
9	10	6
32	33	6
2	2	10
8	11	2
243	244	12
204	207	3
248	248	7
182	183	9
117	117	19
66	66	19
69	70	9
84	84	5
34	35	9
113	114	16
23	228	3
212	231	4
88	89	10
213	213	13
219	219	11
112	112	39
147	198	3
41	43	3
88	88	6
23	231	4
244	245	5
47	47	10
3	10	4
193	193	11
51	52	9
116	118	4
89	89	19
22	23	14
40	40	10
171	174	3
87	87	9
45	45	10
3	5	3
183	191	2
64	64	8
218	223	5
41	41	19
110	115	7
171	171	15
242	243	2
175	175	18
247	247	18
231	231	18
147	159	2
55	55	10
49	53	1
24	25	10
79	85	4
91	114	1
173	174	3
54	54	17
202	202	19
36	37	4
108	108	12
172	172	17
181	181	14
241	243	3
183	183	5
169	170	10
62	65	1
164	170	2
163	166	2
195	195	8
7	7	23
35	35	20
58	59	13
150	150	16
215	216	7
47	81	1
34	63	1
12	28	1
208	209	13
155	155	32
239	239	3
206	224	1
25	30	3
229	229	14
243	243	1
169	171	2
153	153	11
18	20	5
167	175	4
61	69	2
177	182	3
109	174	3
237	238	4
184	184	13
210	211	11
188	189	2
162	163	2
162	175	9
158	158	10
14	15	6
50	51	12
226	226	3
86	86	5
106	106	4
95	97	3
10	12	2
53	59	2
180	181	7
235	236	6
73	100	2
182	209	4
157	158	8
199	200	9
27	27	15
32	36	5
190	191	3
56	56	4
186	186	13
16	16	17
161	162	2
60	61	4
8	221	2
89	90	7
180	180	10
236	237	2
160	181	4
198	198	11
34	48	2
214	214	13
30	31	3
70	73	3
233	234	6
4	20	2
111	111	15
167	179	4
207	207	19
28	28	19
29	30	4
58	58	25
154	154	14
99	101	1
235	244	1
214	218	3
70	71	2
154	155	4
210	210	10
68	69	11
200	207	1
147	147	5
33	33	23
109	237	1
214	219	6
69	71	5
180	214	2
104	105	3
233	233	9
162	173	3
6	32	4
237	237	7
58	60	4
17	19	3
71	71	12
185	185	15
160	182	5
151	162	2
118	119	4
91	92	6
72	72	3
44	44	16
95	96	4
218	218	14
197	198	8
216	216	2
88	111	1
152	152	3
31	31	9
10	10	16
14	44	3
212	213	3
186	199	7
35	36	10
233	235	7
219	220	8
152	157	4
168	185	6
207	213	1
76	76	13
234	236	2
171	172	7
120	120	4
176	176	3
78	81	1
73	74	2
70	70	9
55	56	16
244	244	15
66	67	1
76	77	4
6	8	2
235	235	9
8	220	2
220	222	6
107	107	7
185	186	5
22	29	4
17	183	1
117	120	1
228	229	5
189	189	5
48	50	3
94	94	8
186	192	2
45	52	2
101	102	4
24	52	4
236	236	12
176	182	4
71	73	6
185	197	2
110	236	6
16	24	2
64	65	7
39	39	10
23	25	7
193	194	3
63	80	1
71	91	2
54	92	6
85	85	10
65	66	7
55	68	5
162	167	4
49	49	5
201	202	4
204	205	6
154	156	7
71	76	2
225	226	5
36	91	2
176	177	8
162	162	10
228	230	4
18	34	4
182	187	1
232	232	8
96	104	5
48	49	1
29	33	3
4	4	11
39	40	5
240	241	6
155	161	1
18	30	7
89	108	4
58	66	4
98	100	3
174	174	10
49	50	1
151	152	4
100	100	5
213	214	10
187	187	6
206	214	5
9	220	2
151	167	2
79	79	12
17	184	2
0	2	3
88	105	2
153	159	5
157	160	2
109	109	19
12	12	7
182	186	1
9	33	2
55	93	1
220	223	3
144	144	4
94	96	2
146	146	3
70	75	3
37	48	3
163	170	1
179	181	1
37	46	6
78	86	8
192	192	7
211	214	2
196	199	1
83	84	1
179	179	2
38	39	3
220	221	9
165	167	1
46	51	1
15	35	3
104	107	6
91	91	19
205	208	1
93	109	4
23	100	2
55	58	6
43	44	3
211	212	6
207	209	3
213	232	1
9	31	4
220	220	5
113	115	2
208	211	1
31	32	2
37	38	7
103	103	2
108	111	2
88	97	3
2	3	2
36	61	2
91	103	1
80	90	2
93	96	2
151	169	4
12	20	7
53	67	2
59	60	6
70	77	2
206	206	4
11	17	1
246	247	3
212	218	6
105	105	5
19	20	1
8	41	2
56	92	3
65	110	2
27	28	1
111	113	4
190	194	2
65	85	4
51	70	1
231	246	3
208	217	3
110	241	3
70	78	4
75	76	1
167	180	2
211	211	9
10	36	1
179	180	3
58	67	1
11	30	2
12	36	4
249	249	2
3	218	3
100	101	5
146	147	1
19	37	7
159	160	3
35	46	1
150	155	1
77	81	1
189	190	3
23	26	1
7	42	2
54	95	2
34	34	6
175	182	4
57	57	4
165	166	4
2	6	1
154	201	3
160	199	4
65	178	1
195	196	4
150	200	3
207	218	2
31	152	1
240	244	2
63	183	2
199	201	2
6	7	6
52	53	9
38	38	7
165	165	4
12	13	3
30	45	3
161	167	1
164	165	3
61	61	5
196	196	6
35	215	1
103	104	4
109	112	2
7	8	4
99	100	3
11	43	1
163	164	1
61	62	9
77	91	1
54	55	4
56	93	4
22	44	4
56	60	3
11	14	1
65	231	3
80	85	1
149	160	2
174	175	1
40	41	1
93	94	3
90	111	1
66	227	2
144	207	4
211	218	2
30	30	9
189	198	2
77	78	5
69	84	1
120	144	1
150	153	2
28	100	1
33	34	1
97	108	3
5	36	1
209	216	2
104	104	2
71	99	2
15	18	1
26	27	1
192	214	2
208	212	3
56	70	2
220	228	1
53	63	1
79	180	5
1	1	4
242	248	1
151	201	1
41	42	3
16	235	2
17	20	2
62	67	3
205	228	1
89	93	1
150	151	2
227	227	8
168	171	3
14	34	2
52	97	1
97	97	1
162	171	4
179	203	2
233	236	3
26	34	1
202	205	1
52	101	1
52	231	1
154	159	1
162	164	3
29	39	1
90	91	4
79	80	3
179	183	1
241	245	1
170	171	2
169	181	2
213	242	2
20	216	1
237	241	4
145	153	1
74	74	1
59	63	3
35	48	3
43	53	4
86	178	3
203	204	1
32	34	2
223	225	1
180	186	2
25	26	3
200	229	2
192	194	3
187	208	1
36	45	3
238	240	1
91	95	3
62	70	2
9	41	2
179	229	1
170	183	1
95	105	1
52	74	2
150	152	1
110	111	1
194	195	2
92	93	2
58	70	1
176	179	1
175	180	1
36	47	1
153	171	3
205	206	4
91	93	1
216	217	2
195	242	1
29	46	1
95	104	1
82	83	1
192	207	2
104	108	1
166	180	1
68	86	1
246	246	4
28	29	2
110	240	2
3	4	2
191	192	2
15	64	1
1	2	1
154	157	2
77	79	2
77	90	1
16	17	4
162	165	1
157	159	1
46	47	3
200	201	1
192	197	1
24	61	3
194	214	2
218	233	1
232	233	3
120	165	3
52	70	2
10	22	3
61	82	1
205	226	2
20	21	1
72	73	1
85	86	2
14	35	2
224	233	3
21	29	2
33	185	2
196	229	1
9	16	2
65	67	1
206	225	2
8	44	1
50	74	2
166	171	1
8	40	1
199	206	1
55	94	2
50	60	2
218	224	2
37	62	1
12	15	1
8	33	1
91	94	2
156	239	1
33	36	1
225	234	1
15	34	1
116	117	1
225	233	1
231	232	1
9	53	2
156	160	2
113	118	1
52	64	1
180	196	1
56	69	2
70	91	1
227	230	2
76	78	1
197	199	1
188	188	1
202	204	2
178	181	1
73	97	2
165	179	1
76	84	1
4	34	1
234	235	1
233	244	1
150	246	1
218	219	2
13	216	1
188	209	1
22	33	2
88	106	2
180	184	1
175	177	1
198	204	2
9	21	1
76	85	1
71	72	1
213	241	1
173	183	1
80	81	1
68	90	1
119	119	2
155	156	1
76	115	1
236	240	1
107	108	1
153	156	1
74	106	1
207	214	1
69	75	1
23	101	1
80	80	1
75	75	1
168	203	1
34	36	1
