125	125	12
110	110	2
12	12	18
15	32	2
35	36	12
61	61	19
86	86	19
72	72	22
43	43	6
117	117	17
76	76	26
34	34	16
75	75	41
19	19	28
60	73	3
77	77	17
47	47	26
48	48	10
13	13	17
78	78	18
81	81	9
57	57	12
8	47	3
127	128	8
83	83	19
16	78	2
98	101	3
14	61	1
4	4	10
14	14	12
102	102	8
84	85	5
33	33	21
26	26	6
124	124	7
46	47	7
9	10	9
4	7	4
95	95	14
26	28	2
18	19	2
113	116	3
32	60	4
120	120	7
6	8	3
1	1	10
111	111	3
30	30	16
100	101	2
62	62	12
90	90	10
37	37	9
3	3	9
96	96	8
124	125	4
72	74	2
80	80	11
63	63	32
45	89	8
99	99	8
85	85	18
22	22	11
14	16	1
64	64	21
26	48	2
37	38	4
23	27	4
70	70	8
11	11	23
94	94	11
22	25	4
7	7	16
56	56	7
97	97	9
87	87	22
113	113	14
21	85	2
17	17	12
2	2	8
108	108	3
46	46	33
4	114	1
133	134	3
69	69	21
65	65	38
47	78	2
82	82	15
119	119	12
12	13	10
26	47	1
123	123	13
35	35	13
126	127	3
101	101	10
61	75	1
83	112	1
29	29	11
71	72	3
132	134	8
19	83	5
2	102	1
58	58	9
61	62	1
95	96	6
99	101	4
51	55	5
69	70	9
41	42	2
121	122	4
74	74	14
47	48	17
42	82	2
19	20	18
25	26	8
116	116	6
4	5	7
118	118	17
75	76	10
121	121	5
25	25	9
93	93	12
83	87	4
67	67	17
57	60	3
57	58	6
89	89	8
29	60	1
99	100	6
45	45	34
39	40	3
115	115	5
84	84	6
109	110	4
44	44	3
15	15	15
125	126	6
20	84	3
36	36	14
60	60	16
4	26	5
65	66	6
17	18	5
32	48	3
94	95	6
110	111	3
130	130	14
129	129	4
126	126	20
2	101	3
78	82	3
16	34	2
66	66	21
71	71	12
6	7	8
32	32	5
8	23	1
132	132	4
78	79	4
79	80	3
84	100	2
60	95	1
35	64	7
76	77	6
91	91	4
50	81	3
45	46	1
100	102	1
109	109	6
12	46	5
123	124	1
41	43	1
25	47	4
116	117	4
3	47	5
8	8	17
49	50	1
34	70	4
59	59	8
79	79	9
23	24	2
6	6	3
109	116	1
33	72	1
16	16	15
20	20	10
0	0	4
31	32	2
27	27	8
39	39	3
36	37	3
22	35	3
68	68	11
41	41	1
122	122	9
34	41	1
114	114	5
66	67	6
18	18	14
4	101	2
11	93	3
38	50	1
81	95	2
48	49	3
33	34	3
91	92	2
14	15	3
73	73	7
8	9	3
95	97	2
82	83	7
24	24	1
60	61	2
107	107	3
10	16	2
132	133	5
72	73	8
93	94	6
71	112	2
64	67	1
127	127	4
5	43	2
9	9	21
40	41	8
55	55	1
33	80	1
63	74	2
21	21	4
11	12	8
20	22	3
43	44	1
101	103	3
5	5	7
87	88	3
26	27	2
63	64	3
42	42	3
28	28	7
111	118	1
11	47	1
103	103	7
36	45	1
105	109	1
106	107	5
28	58	2
3	12	2
39	83	2
129	130	2
49	49	6
104	104	4
77	86	2
28	30	3
33	66	1
85	86	8
131	132	1
27	28	5
83	86	1
22	23	1
111	112	2
102	103	1
12	34	5
41	85	3
16	74	3
15	16	5
90	91	1
82	86	3
68	69	7
97	98	8
59	82	1
114	116	4
105	106	5
114	115	5
33	47	3
23	28	5
83	85	1
8	10	1
103	106	2
128	128	4
75	77	1
62	64	3
11	16	2
78	83	2
0	2	1
38	38	2
119	120	5
47	58	2
4	20	7
7	11	1
64	68	2
83	84	4
98	100	1
86	87	4
112	112	4
131	131	3
64	65	4
29	49	4
3	20	1
32	47	2
64	66	1
111	114	2
63	69	2
55	56	3
33	79	4
36	101	3
29	30	1
69	71	2
1	2	2
3	86	3
74	75	1
20	32	5
51	54	1
123	125	3
3	4	3
98	98	5
109	111	3
26	30	1
10	10	8
44	45	4
100	100	5
106	106	2
77	78	4
8	14	1
105	112	2
81	83	1
22	39	1
5	26	2
113	114	4
27	97	1
2	12	3
86	119	1
114	133	3
30	32	1
104	106	1
22	32	1
36	63	1
12	17	2
59	60	4
20	44	1
82	84	3
79	81	2
88	94	1
25	93	2
6	43	1
46	61	1
6	83	1
112	113	1
92	92	3
94	109	5
35	74	2
43	50	1
81	82	5
68	70	2
9	14	1
8	36	2
80	114	1
62	63	3
4	6	2
3	17	1
24	25	2
117	120	1
90	92	2
40	40	1
108	109	1
120	122	1
64	70	3
55	59	3
26	35	1
12	14	1
20	21	5
59	75	1
35	46	2
23	23	2
16	28	1
81	87	1
34	35	2
25	48	1
48	60	1
118	119	2
46	62	2
45	71	1
128	129	1
10	11	1
43	48	1
5	20	1
27	79	1
32	40	1
11	13	1
112	114	1
21	40	1
51	57	1
120	121	1
23	25	1
108	111	1
56	58	1
114	121	1
96	97	1
34	78	1
35	98	1
35	73	1
40	55	1
7	19	1
110	113	1
