112	112	10
172	172	9
106	106	6
166	209	1
184	195	6
200	200	3
172	173	2
181	184	2
247	247	8
198	198	8
20	21	1
151	151	5
50	50	5
14	14	6
95	95	1
69	70	3
224	224	7
107	108	2
173	173	7
182	207	3
118	118	4
4	4	8
233	234	6
199	199	5
68	71	2
233	233	8
75	114	3
19	20	2
234	235	3
159	159	6
86	90	3
29	29	3
64	64	5
31	32	5
113	113	2
243	243	2
31	31	10
165	168	2
241	241	1
163	163	5
11	11	6
67	161	3
154	154	1
157	159	2
189	189	3
106	107	1
101	101	4
86	106	7
102	103	8
88	91	2
16	16	4
50	59	2
30	31	7
202	220	1
148	165	3
6	16	1
185	186	2
54	55	4
188	189	2
222	222	7
181	210	4
232	232	2
152	152	10
12	12	2
209	209	1
221	221	5
77	77	4
156	156	2
217	218	6
42	43	1
11	30	2
184	184	4
215	215	3
178	179	1
180	187	4
8	46	3
55	154	3
153	153	3
111	111	5
45	52	3
170	181	3
109	109	3
179	180	6
180	180	4
40	40	1
168	169	5
170	180	3
185	185	3
203	203	4
156	197	2
80	80	2
172	175	5
197	238	2
226	227	6
10	10	2
244	246	1
80	81	3
59	71	3
41	41	3
204	204	8
182	182	6
15	37	3
105	105	2
212	212	8
230	230	3
41	205	4
91	92	2
67	68	3
146	166	3
89	89	1
15	15	3
75	76	3
149	149	1
193	193	1
56	56	5
23	23	3
117	117	3
169	169	4
6	71	2
21	21	1
175	175	3
50	51	2
218	221	2
66	95	2
37	206	1
173	174	2
221	224	4
29	30	7
163	248	4
102	102	3
144	155	1
61	62	1
224	234	6
70	70	5
93	95	3
9	9	9
209	218	2
207	207	4
175	216	2
33	33	5
68	68	2
108	108	2
30	30	3
176	176	4
192	192	3
145	145	1
2	2	2
57	60	3
232	237	1
166	167	5
99	100	3
177	216	4
119	119	5
210	211	3
6	6	1
5	5	2
166	166	3
165	166	2
246	246	4
161	161	3
181	181	2
193	194	3
239	239	3
98	98	1
79	87	4
170	170	4
245	245	5
159	247	3
100	100	5
51	231	1
239	240	1
183	184	3
58	60	5
242	242	6
236	237	2
55	55	1
157	157	5
35	35	5
189	190	5
12	22	3
74	96	1
88	89	5
8	8	3
80	82	2
75	75	3
197	197	2
202	202	3
187	188	5
38	39	1
186	189	5
231	236	4
172	187	5
54	54	4
66	66	1
7	69	5
208	208	4
146	147	4
114	114	2
7	48	1
188	190	1
214	214	3
182	183	2
96	98	1
200	210	2
176	177	9
229	229	7
198	199	4
235	235	3
110	111	2
76	76	4
217	217	2
8	44	3
18	18	8
194	195	2
107	107	4
47	47	4
55	59	1
233	236	1
167	167	8
24	26	1
56	58	5
79	79	5
103	103	4
121	121	2
82	249	1
91	91	4
201	201	4
85	105	2
238	242	2
19	19	7
48	72	2
94	100	1
88	218	2
67	67	1
179	207	2
78	78	5
26	26	2
209	217	3
240	240	1
61	61	4
87	101	1
105	107	2
84	84	1
25	26	3
8	29	6
150	150	4
178	182	1
180	181	5
175	176	3
186	192	1
18	19	2
17	17	8
115	116	1
230	231	4
81	81	3
62	62	5
56	73	1
46	46	1
16	31	2
166	184	1
36	38	1
175	215	1
3	3	2
158	158	1
10	13	2
55	56	1
193	214	3
1	1	4
65	66	1
8	9	3
153	195	2
33	41	1
115	115	2
189	191	1
82	83	5
24	24	4
154	157	1
88	88	4
144	218	2
25	25	3
154	156	5
7	7	1
78	79	1
88	90	2
92	92	3
5	34	1
59	233	2
57	58	4
203	221	1
99	99	7
36	36	2
228	229	2
241	242	1
177	218	1
9	13	3
1	58	1
68	69	3
31	88	3
87	87	1
163	174	1
62	63	1
69	69	3
210	210	2
33	61	2
83	83	1
59	59	1
206	207	1
169	172	1
16	32	2
43	44	1
71	94	1
168	168	2
53	53	2
55	62	1
177	177	2
28	28	1
237	238	2
171	171	2
187	187	1
165	176	2
52	113	2
38	38	1
43	43	4
167	215	1
205	205	1
49	118	3
47	116	2
186	233	1
167	180	1
45	45	1
94	94	1
234	234	1
93	93	4
181	243	1
169	171	1
178	183	1
50	60	1
94	203	1
165	165	2
17	18	1
162	162	1
49	117	1
164	164	1
27	27	2
120	145	1
176	178	1
186	186	1
207	210	1
37	37	1
166	175	1
155	156	1
52	112	1
59	202	1
243	244	2
157	161	1
56	59	2
48	71	1
76	244	1
230	234	1
228	228	1
219	219	1
211	211	1
231	231	2
17	26	1
152	153	1
80	83	1
66	67	2
73	73	1
144	145	2
105	106	2
48	220	1
149	150	2
218	218	1
92	99	1
216	217	1
9	38	1
244	244	1
157	177	1
57	59	1
50	67	1
199	200	1
176	192	1
11	21	1
90	90	1
205	206	1
