83	83	5
17	18	2
78	109	2
42	42	8
136	136	3
3	3	13
51	51	6
130	130	6
74	105	2
104	116	1
156	156	12
71	96	1
48	49	5
53	53	7
111	112	1
1	1	9
49	51	2
33	33	2
93	93	2
111	111	5
87	89	4
39	40	5
113	113	3
129	129	3
2	40	2
153	153	1
40	41	4
0	0	5
51	52	4
117	118	1
43	43	4
154	154	2
32	32	8
122	122	8
81	117	3
113	118	1
78	78	8
4	4	6
120	120	2
6	6	8
66	66	1
70	70	2
101	102	3
158	159	3
36	36	3
82	82	9
35	35	5
118	119	6
88	88	5
25	27	2
26	73	2
108	108	6
68	69	6
120	121	6
80	123	1
10	11	3
45	46	4
82	153	1
39	41	5
99	99	9
152	155	5
11	15	1
67	84	4
144	144	3
23	23	7
39	39	11
15	15	13
77	88	3
112	112	4
133	133	6
65	65	2
51	54	1
24	24	4
131	131	6
110	110	5
141	141	5
101	116	3
16	16	4
9	10	1
19	19	7
138	138	16
16	43	2
91	122	2
77	77	4
9	9	5
27	27	5
128	128	7
47	47	5
11	110	1
146	146	5
81	81	8
85	86	2
14	14	5
21	21	9
49	49	2
44	44	10
107	107	4
112	114	2
94	94	6
150	154	1
17	17	5
7	10	3
91	91	4
64	65	1
62	70	1
41	41	10
23	24	7
26	26	3
34	35	1
103	103	8
63	121	3
52	52	2
50	50	4
62	110	3
69	70	3
18	18	8
76	90	2
48	54	1
126	126	2
145	145	5
108	112	6
0	140	1
134	137	3
2	4	3
46	47	6
150	150	3
35	36	3
31	32	3
148	148	1
155	156	3
132	134	1
34	34	3
92	93	4
104	104	2
107	111	2
157	157	7
80	116	1
19	29	1
98	101	4
18	19	15
74	74	1
2	3	2
47	48	1
22	103	1
0	2	1
106	109	1
5	5	6
46	46	7
28	29	4
46	92	3
94	95	4
67	67	4
38	43	2
97	99	4
92	92	4
80	80	3
124	127	1
79	79	3
64	121	1
73	94	2
25	26	2
83	84	2
124	124	4
89	90	2
10	10	4
83	112	2
102	102	5
25	25	8
11	75	2
22	22	4
100	102	2
90	92	4
38	52	2
100	100	5
101	101	2
0	1	3
97	97	4
151	151	1
85	85	2
93	116	1
122	123	5
109	109	5
155	155	5
132	132	3
106	107	2
36	37	2
21	36	2
125	125	1
143	143	3
29	32	2
12	12	6
116	116	1
137	138	1
154	155	1
98	98	8
21	22	2
94	98	3
43	151	2
21	25	2
26	141	3
105	105	3
48	48	6
117	117	4
100	129	4
86	119	1
40	40	1
8	9	2
54	54	6
15	16	3
157	158	1
38	38	2
11	12	4
15	31	3
73	75	1
62	109	4
111	121	1
83	137	1
77	82	3
13	14	2
37	37	5
127	127	2
95	96	1
99	100	1
146	147	1
82	83	2
136	140	1
135	136	1
128	129	1
84	84	3
52	54	1
2	2	4
130	138	1
131	132	1
150	151	2
44	45	1
135	135	2
87	87	3
81	82	2
67	68	7
118	118	1
95	95	3
77	148	2
46	50	2
29	29	1
113	115	1
111	115	2
86	86	2
45	55	1
5	11	1
137	137	1
123	123	2
121	121	2
112	113	1
125	126	2
89	91	2
147	147	3
38	39	3
30	93	1
50	91	1
73	73	6
84	87	1
73	108	4
12	13	1
96	96	3
145	146	3
89	89	3
11	11	6
66	72	2
121	144	1
56	56	1
25	29	1
1	2	4
134	134	2
76	103	1
4	5	2
114	116	2
75	75	3
48	51	1
56	75	1
65	66	1
8	12	1
133	134	2
30	95	1
144	145	1
28	28	3
7	7	2
48	56	2
114	115	2
83	85	1
76	77	1
148	152	1
71	71	1
53	54	1
30	30	1
115	115	1
72	107	1
63	63	1
51	53	1
136	138	1
83	119	1
152	154	1
20	20	3
70	96	1
72	72	1
107	120	1
115	116	2
89	95	1
158	158	1
7	8	1
86	118	1
19	20	1
140	141	1
37	38	1
22	98	1
67	71	1
55	55	2
123	124	1
123	125	1
26	27	1
121	145	1
96	97	1
57	57	1
110	114	1
50	52	1
15	18	1
2	47	1
115	120	1
128	137	1
137	140	1
71	72	1
90	143	1
