56	58	3
53	81	2
80	80	22
25	25	14
54	54	20
13	23	1
29	30	7
53	54	5
65	65	18
61	62	6
85	85	11
55	64	2
79	79	15
0	1	2
50	50	11
83	83	16
62	62	8
24	24	7
57	85	2
9	9	7
86	86	8
60	66	1
49	55	2
76	76	8
59	61	3
4	4	11
51	53	6
56	81	1
58	58	12
3	3	8
14	14	11
61	61	18
46	48	4
24	25	7
55	59	3
87	87	9
71	78	4
26	26	14
28	28	6
68	86	4
82	83	9
10	27	3
69	75	1
30	30	3
29	29	5
12	13	2
31	31	11
57	66	2
8	11	2
75	75	5
20	21	4
77	87	6
53	55	2
24	27	1
6	17	2
4	22	1
68	68	9
48	48	9
79	80	9
81	81	19
72	72	7
5	7	1
22	22	9
55	85	1
76	77	2
71	74	7
26	27	7
6	7	4
15	15	3
18	19	3
20	20	10
69	69	17
19	19	16
73	73	5
52	52	9
6	6	7
77	77	8
84	84	15
8	21	2
70	82	3
50	52	1
49	49	12
89	89	8
10	10	14
19	72	1
51	51	10
7	7	6
7	8	11
82	82	3
48	71	4
64	64	3
17	19	4
56	60	1
71	71	4
78	78	6
55	73	6
66	66	4
46	55	3
69	70	3
55	55	6
62	63	5
12	12	3
72	74	1
23	23	6
67	67	14
1	1	8
10	25	2
70	70	3
6	8	4
64	65	2
12	22	3
33	79	4
13	13	8
11	11	18
2	2	6
20	22	1
68	69	1
56	56	8
11	22	6
60	74	6
48	49	2
60	60	5
86	87	2
81	83	3
78	79	3
8	9	2
56	59	5
47	47	5
70	79	1
58	59	5
69	77	3
10	11	1
74	74	9
75	83	1
56	61	3
55	61	2
75	77	1
57	58	4
88	88	3
56	57	4
47	48	3
47	72	2
54	75	5
34	34	4
22	24	1
59	76	1
59	59	8
48	72	1
3	30	6
50	63	1
12	23	2
86	88	2
0	0	10
3	23	2
46	46	5
3	4	2
49	51	3
78	80	4
57	57	7
90	90	2
87	88	4
71	77	1
68	88	1
11	12	2
9	55	2
14	15	2
17	17	3
63	84	2
22	77	2
23	24	1
23	25	2
21	21	4
53	53	4
12	16	1
59	68	1
74	75	4
5	8	2
15	16	2
50	51	1
63	64	2
34	62	2
7	26	1
77	78	4
48	51	1
51	55	1
57	67	3
81	82	1
63	63	1
77	82	1
50	70	1
53	75	1
67	84	1
73	74	1
46	65	1
11	28	3
10	59	1
8	8	2
13	73	1
16	17	3
6	12	1
27	27	3
63	65	1
7	27	1
5	25	1
65	71	1
3	67	2
72	80	2
65	66	1
59	60	2
11	58	1
51	52	2
2	3	1
52	61	1
8	55	2
51	60	2
18	18	2
25	26	1
46	74	1
26	61	2
52	53	1
14	72	1
3	89	1
57	70	1
10	14	1
10	62	1
22	23	1
84	89	1
62	71	2
54	82	1
11	24	1
11	14	1
51	76	1
7	17	1
5	12	1
84	86	1
