119	119	7
16	17	6
105	105	6
125	125	21
80	80	6
127	127	16
79	79	14
76	76	6
110	112	4
90	90	14
6	7	5
133	133	15
103	103	6
14	14	4
96	100	2
91	91	21
2	4	1
72	72	16
116	117	9
83	84	7
102	104	2
132	132	13
10	23	1
137	138	2
7	14	1
138	138	13
7	7	7
119	120	7
124	124	20
83	85	13
33	102	3
95	95	8
113	113	14
82	82	9
108	109	7
24	25	2
31	31	8
9	11	7
106	107	9
102	102	18
8	9	5
124	125	5
87	87	6
81	82	10
21	21	5
115	115	7
97	97	11
122	122	13
137	137	26
117	117	14
101	101	11
123	123	18
98	99	3
104	105	6
110	110	8
138	139	2
84	104	4
104	104	12
96	97	3
126	126	19
129	129	10
86	87	2
104	107	2
140	140	23
139	139	12
112	112	4
136	138	2
118	119	2
91	101	3
81	81	6
127	128	5
16	16	9
109	109	11
24	26	3
99	99	6
74	75	2
110	122	6
94	97	4
6	6	4
131	131	12
119	122	11
112	113	9
121	122	3
136	137	4
22	23	2
24	31	2
94	95	1
136	136	28
128	128	13
11	22	2
89	90	6
100	100	2
101	102	10
79	80	2
86	86	4
121	121	8
118	118	8
71	76	2
135	135	6
114	114	14
27	27	8
1	1	13
96	98	2
106	106	7
31	32	4
131	134	2
77	77	16
35	35	7
96	134	1
87	93	1
38	38	5
87	103	2
111	122	1
119	121	2
96	101	3
23	24	4
75	77	2
77	80	1
134	134	14
98	116	7
125	126	9
123	126	5
116	116	9
98	102	2
9	12	2
108	108	11
113	114	2
81	83	3
9	23	1
28	29	6
82	87	1
76	77	3
100	101	3
93	123	4
111	111	5
1	2	1
107	107	5
96	96	7
20	20	7
84	84	11
19	19	4
2	2	1
87	89	4
139	140	2
37	37	4
89	89	8
123	124	3
120	121	4
10	12	5
133	134	2
7	9	5
119	134	2
85	85	10
128	129	9
28	30	2
120	120	12
18	19	2
110	111	3
88	88	8
1	5	1
130	130	8
17	17	1
120	122	8
80	81	2
28	28	7
129	130	2
2	6	4
9	9	9
83	119	2
12	13	2
89	123	2
77	106	3
5	5	4
131	132	4
109	112	2
23	29	1
11	11	3
13	13	3
33	128	1
33	33	6
22	22	1
32	32	6
8	11	2
93	93	4
83	83	9
71	71	4
82	83	4
3	4	2
107	108	8
87	88	1
85	88	2
34	35	6
125	140	3
19	22	2
98	98	2
74	78	4
111	112	9
92	92	2
29	30	1
99	116	1
105	106	1
86	125	2
29	114	2
113	118	1
5	6	1
73	73	5
86	88	2
36	36	3
25	28	1
122	123	2
25	25	2
127	130	1
81	89	3
23	31	1
132	133	4
18	18	6
105	107	1
75	75	9
12	12	4
8	8	2
81	112	1
88	119	3
128	130	1
84	86	3
30	31	6
114	115	4
94	96	1
89	93	4
106	122	1
95	135	3
78	78	4
3	3	3
37	91	2
118	121	3
100	110	2
72	103	1
93	94	5
37	41	1
82	85	3
26	26	2
128	137	2
5	7	5
85	87	2
87	121	1
14	17	1
76	106	2
82	121	1
100	135	1
84	85	3
73	78	1
6	93	1
1	8	1
94	101	2
8	10	2
120	123	3
89	117	2
134	136	3
7	8	2
0	5	3
106	108	1
73	75	1
28	81	1
10	10	1
38	91	3
109	110	1
32	111	2
79	81	1
88	89	1
26	29	2
30	68	2
97	98	1
126	127	2
130	138	1
89	124	1
13	14	1
101	111	1
38	92	3
98	100	1
94	100	1
86	89	2
14	31	1
91	106	1
32	84	1
73	88	2
17	18	2
93	100	1
101	106	1
135	136	2
87	123	1
126	128	2
76	78	1
126	137	1
101	103	1
101	110	2
94	94	2
22	27	1
8	13	1
134	135	1
100	136	2
130	131	1
117	118	2
15	16	1
25	26	2
75	76	1
23	28	1
10	11	1
35	36	2
89	111	2
0	1	2
90	91	1
0	13	1
27	30	1
36	37	1
10	20	1
4	5	1
87	125	1
3	5	2
30	108	1
134	137	3
96	137	1
82	93	1
81	84	1
102	120	2
71	78	1
91	92	1
85	86	1
95	125	2
66	71	1
77	107	2
71	72	2
83	121	1
105	110	1
74	118	1
77	78	1
26	30	1
90	92	1
