66	66	20
33	33	11
94	94	13
58	58	10
68	68	5
58	59	3
72	72	17
83	83	20
71	71	22
53	53	27
69	69	21
88	89	3
81	101	2
85	85	11
75	76	5
99	99	25
37	88	5
40	40	24
47	48	13
79	79	17
41	41	33
77	77	16
62	62	7
79	80	2
56	56	22
49	49	12
77	87	7
60	60	20
87	88	12
97	97	4
101	101	8
45	46	14
46	46	20
51	59	2
91	92	12
89	89	11
46	47	13
63	63	18
20	22	2
82	83	1
44	44	19
60	73	2
25	25	7
66	67	13
76	99	2
29	29	13
27	54	7
40	49	3
60	61	7
93	93	8
42	42	14
54	55	23
37	37	7
48	48	11
64	64	9
26	26	5
97	98	10
59	59	14
46	91	4
47	47	9
22	25	1
76	76	14
44	91	2
86	87	18
73	73	14
39	40	5
96	96	9
37	38	9
39	39	10
33	82	1
57	57	14
20	20	7
22	22	6
93	97	2
36	88	7
52	52	21
51	52	3
35	46	4
38	38	7
65	65	22
45	45	9
61	62	3
69	70	6
76	77	9
44	74	3
62	63	4
98	98	10
81	96	5
40	91	2
80	80	14
25	27	4
68	70	1
34	51	4
90	90	14
51	57	1
52	100	1
41	42	9
30	30	6
93	100	5
74	75	3
93	98	5
81	81	12
26	27	12
56	61	6
51	51	22
46	85	2
58	63	1
102	102	6
52	85	2
86	88	8
50	50	19
61	61	14
70	70	19
36	38	2
48	50	1
27	27	6
94	98	2
78	85	3
27	28	6
55	56	8
45	48	4
84	84	7
50	51	3
91	91	22
29	30	7
78	78	14
85	92	3
94	99	3
54	54	12
36	36	8
92	99	3
63	68	1
49	77	3
87	93	1
33	34	6
92	92	10
96	98	1
80	81	7
48	76	2
24	24	12
28	54	2
75	75	20
82	82	3
77	78	4
56	80	2
36	39	2
35	36	5
78	79	3
63	90	1
33	57	1
24	25	9
49	50	3
90	91	10
41	43	2
84	99	2
100	100	6
76	85	1
95	101	2
53	61	2
22	94	2
34	52	1
37	39	1
35	37	3
34	36	1
40	50	2
99	101	3
33	79	3
51	58	2
59	62	2
51	77	3
67	67	9
51	62	2
56	81	3
89	92	4
33	56	5
64	72	1
52	81	3
73	74	3
92	93	6
43	43	9
76	91	8
34	83	3
85	100	1
59	85	1
86	89	2
57	58	5
87	95	2
74	74	8
81	88	3
83	84	4
63	67	2
52	72	2
44	68	2
41	67	2
72	78	2
47	60	4
42	43	3
34	34	6
20	21	3
23	23	3
79	82	1
61	82	1
87	87	2
94	97	2
47	49	2
72	73	2
48	91	1
46	48	6
53	54	2
40	41	7
58	61	2
42	91	2
40	77	1
50	57	1
95	95	6
44	90	1
52	55	4
78	91	3
66	68	3
88	88	6
95	97	3
82	84	2
63	72	1
36	37	1
56	67	2
85	86	2
101	102	2
60	62	2
86	95	2
70	75	1
76	78	3
92	101	1
94	95	3
44	75	1
51	99	1
94	100	1
64	71	3
22	38	3
71	72	1
85	89	1
35	53	2
86	86	3
35	35	1
98	99	1
88	95	1
56	63	2
55	55	2
81	82	1
34	57	1
59	72	1
51	72	4
31	31	2
25	26	4
25	28	2
68	69	4
46	49	1
95	96	2
46	92	3
86	93	2
83	101	2
22	23	1
67	69	2
45	83	1
49	66	2
44	45	4
63	74	1
52	101	1
49	56	2
35	48	1
28	39	1
59	78	1
65	66	2
42	90	1
67	68	1
82	94	1
93	101	1
75	82	2
79	83	1
96	97	2
52	54	1
51	93	1
90	99	1
34	79	1
52	63	1
49	63	1
38	39	2
57	60	1
100	101	1
