141	141	7
79	79	2
165	165	10
130	133	3
153	153	3
89	90	4
14	79	5
150	154	5
22	22	7
79	112	3
135	135	2
5	8	2
20	20	7
47	47	5
10	11	4
4	135	5
21	61	1
42	55	4
70	70	2
166	169	4
93	93	3
137	137	5
15	15	1
165	168	4
100	121	6
74	74	5
12	42	5
183	183	4
97	98	10
4	7	3
129	186	3
116	116	8
153	186	2
102	103	2
54	57	3
149	149	6
145	145	4
32	35	1
163	163	10
66	66	2
117	117	6
23	23	3
129	129	3
26	26	3
26	39	2
173	174	6
140	140	4
55	93	3
177	177	7
119	121	5
17	17	6
133	138	5
183	186	1
73	73	1
115	115	12
43	43	2
130	190	2
118	118	3
144	144	1
125	125	5
75	88	2
106	108	2
6	78	5
180	181	3
160	160	3
35	36	4
77	77	14
35	145	3
14	14	4
170	170	2
71	80	4
70	71	1
44	44	1
177	190	2
83	83	1
34	34	4
182	182	2
137	188	3
91	93	2
164	164	4
171	173	9
182	185	3
94	94	5
133	133	3
96	98	4
26	141	3
15	16	3
162	167	1
47	48	2
99	99	3
0	0	1
128	129	4
16	16	6
122	122	8
77	78	2
71	72	1
155	187	2
95	95	4
65	66	2
182	189	4
75	75	2
9	9	4
43	44	1
143	169	1
43	58	4
67	68	1
134	134	3
29	29	4
70	73	1
47	134	6
106	164	3
157	163	2
183	184	3
61	63	2
6	6	3
183	188	2
124	125	3
7	7	3
32	34	2
169	170	2
176	176	6
159	160	3
52	64	5
68	68	4
113	113	6
89	91	1
114	115	5
68	69	2
178	178	4
173	173	3
40	40	4
179	179	1
31	38	2
25	33	4
19	19	10
188	189	2
53	53	2
172	172	4
104	105	8
25	25	5
27	30	5
85	88	2
146	147	2
77	103	2
112	114	3
149	179	1
124	124	3
38	38	3
78	78	2
85	87	1
17	44	4
173	175	1
155	156	4
130	130	4
171	171	3
4	85	1
84	85	2
94	96	2
131	131	4
30	31	2
147	147	4
64	64	2
119	119	5
119	129	4
38	143	2
170	175	2
186	186	2
28	137	4
54	54	1
27	27	3
107	108	1
41	41	4
89	89	3
2	2	6
165	166	1
96	104	1
167	168	3
174	174	5
37	37	5
97	99	1
145	167	3
104	104	2
161	161	4
131	132	3
97	97	3
90	91	2
92	95	1
44	54	1
77	90	2
152	152	3
189	189	3
153	154	1
44	58	1
60	60	7
82	83	4
118	149	3
96	97	5
162	162	2
172	174	1
111	111	1
28	48	2
55	66	1
166	166	3
92	92	1
11	63	1
23	24	2
103	103	3
151	151	3
175	175	1
79	111	5
10	13	4
100	124	2
107	142	4
116	120	1
19	20	1
76	76	2
119	132	2
101	103	1
61	62	1
179	182	1
18	47	1
65	65	3
147	188	4
132	132	1
4	4	3
20	47	3
181	181	3
142	142	3
76	77	3
32	46	2
95	105	3
22	23	1
125	126	4
70	84	1
106	163	1
123	123	2
79	113	1
6	79	1
168	172	1
168	168	1
154	154	1
12	13	4
108	108	3
82	82	7
71	71	2
13	14	3
56	56	4
60	112	5
36	37	2
58	66	1
25	36	4
80	80	3
85	85	3
96	126	1
74	75	3
58	65	1
31	33	1
53	64	2
4	5	1
105	105	2
150	150	2
79	136	3
129	187	2
169	169	3
68	85	1
55	55	2
101	101	1
157	162	1
155	181	3
147	162	3
10	53	1
11	12	1
105	106	1
171	176	1
108	149	1
34	145	1
24	24	2
79	80	2
101	102	1
188	188	3
33	34	1
6	55	1
101	104	1
118	119	3
117	127	2
187	187	3
17	36	3
146	146	2
59	63	1
35	45	1
11	11	2
46	46	4
138	163	3
35	35	1
9	54	1
1	1	1
139	143	1
181	182	1
10	44	4
90	90	2
116	117	1
103	104	2
15	82	1
108	109	3
45	45	3
41	47	2
79	135	2
109	116	1
153	184	1
39	39	1
58	58	1
180	187	1
5	55	1
142	143	2
115	148	1
143	143	1
28	29	1
148	148	2
79	81	1
68	84	2
41	143	1
185	186	1
3	4	1
99	100	2
100	100	2
98	98	1
147	148	1
159	163	1
59	60	2
153	166	1
135	136	2
106	153	1
161	165	1
123	125	1
57	60	1
132	133	1
8	8	1
71	85	2
115	116	2
99	183	2
157	180	1
119	120	1
185	185	1
129	177	1
79	137	1
114	114	1
143	147	1
68	100	1
28	28	1
14	78	2
3	3	1
142	185	1
115	126	1
161	162	2
103	150	1
42	42	1
168	176	1
166	167	1
109	109	1
75	76	1
57	57	1
163	166	1
