7	7	3
74	75	1
130	130	2
86	87	4
100	100	5
126	127	1
37	82	7
99	99	14
91	92	2
178	178	6
180	180	10
26	29	3
103	103	2
53	97	2
178	181	7
182	182	3
73	135	3
120	163	3
43	43	6
95	95	7
92	94	7
170	170	2
142	142	11
115	134	4
109	109	6
44	182	2
38	38	6
121	121	6
104	104	8
28	28	2
168	186	1
64	133	2
73	139	3
6	7	5
40	42	2
106	107	2
0	0	1
167	182	2
26	26	4
10	10	3
16	17	3
184	184	5
46	46	3
34	67	3
139	146	4
134	134	4
68	68	5
108	108	2
54	55	5
112	112	8
147	148	4
25	25	2
87	88	5
93	93	5
128	141	1
24	80	2
42	42	1
41	41	4
11	34	3
27	27	9
21	175	4
37	105	2
87	87	13
28	29	5
48	80	4
1	1	7
5	5	4
77	77	11
124	124	2
44	181	1
59	59	6
48	48	6
45	46	4
84	84	3
54	62	3
1	2	2
42	83	1
134	135	10
138	138	1
22	26	1
77	115	3
190	190	4
30	30	11
3	3	1
117	117	11
143	143	8
135	135	2
81	81	1
83	83	9
92	92	7
21	22	2
23	23	3
14	15	6
185	186	2
73	73	5
80	81	3
121	131	1
179	181	2
107	108	2
168	181	1
24	83	3
86	86	4
183	183	6
37	53	2
7	8	2
116	143	6
176	176	3
107	109	2
147	155	5
127	128	3
73	77	7
162	162	6
117	131	2
8	8	3
48	83	1
96	120	8
162	164	6
129	163	3
67	158	1
24	71	2
13	13	5
74	74	3
70	70	1
109	131	1
44	44	5
18	18	3
186	186	2
23	71	1
39	39	4
168	175	4
37	42	1
37	63	3
181	182	6
72	75	2
125	125	8
113	127	2
75	115	2
115	115	4
133	133	5
104	139	1
149	149	12
152	153	3
11	11	2
40	40	1
10	11	2
65	65	1
29	29	1
145	145	1
89	89	1
67	177	1
107	124	6
181	181	2
32	32	3
175	175	1
174	174	2
66	66	3
66	146	1
78	99	2
131	131	5
160	161	4
99	101	1
42	88	1
11	16	2
14	19	1
3	6	2
177	177	6
55	62	1
74	82	1
176	177	1
40	41	5
27	122	2
7	22	4
17	28	1
118	118	1
35	35	4
147	179	1
80	80	3
34	34	4
77	78	1
182	185	5
21	21	2
66	71	2
118	163	2
172	172	4
151	151	5
145	146	1
188	189	3
177	178	2
141	142	3
148	168	1
152	152	2
52	52	2
19	19	1
114	154	2
111	111	1
99	100	4
27	30	2
88	88	1
97	97	1
144	154	1
171	172	2
45	58	1
164	165	2
166	166	4
127	127	2
91	91	4
46	62	1
164	164	1
16	71	2
12	43	3
124	163	1
70	135	1
115	116	1
146	146	1
157	157	4
96	96	4
134	184	1
15	183	4
102	102	5
158	158	4
124	127	3
92	93	1
137	137	1
180	181	1
43	53	2
116	150	3
124	125	1
111	112	2
27	28	2
14	122	1
129	129	5
182	183	2
19	30	1
142	143	3
175	176	1
150	169	2
45	183	3
53	98	1
57	57	1
114	114	5
97	99	3
71	75	2
169	169	2
21	184	2
82	82	2
41	88	1
72	72	1
76	141	1
44	45	2
163	163	4
154	166	3
136	137	2
71	135	1
187	187	2
105	121	1
109	113	2
81	82	2
2	83	1
123	162	2
112	117	2
171	174	3
42	43	1
117	163	3
75	75	3
167	168	1
35	36	3
188	188	4
153	154	2
183	187	3
4	6	1
18	21	2
16	18	1
12	42	2
122	124	1
83	84	3
140	140	2
72	73	1
6	8	2
120	120	1
27	132	3
76	78	3
58	58	3
67	70	1
7	21	2
25	26	1
13	118	1
70	108	2
2	2	1
146	155	1
55	56	1
22	22	2
119	176	1
37	37	1
74	76	1
30	32	2
189	190	2
70	72	2
167	174	1
139	139	1
10	12	1
128	129	2
19	20	2
68	97	1
11	13	3
136	136	1
94	96	2
98	123	1
128	128	1
171	171	2
141	141	1
170	188	1
2	8	2
71	71	1
102	103	1
12	12	1
136	157	1
65	68	1
33	34	1
31	31	1
117	119	1
118	119	2
5	9	1
148	148	1
110	110	1
0	182	1
43	181	1
15	15	1
108	138	1
157	162	2
44	63	1
147	169	1
169	175	1
10	68	1
