66	66	45
49	52	5
1	2	6
88	88	33
13	26	2
31	31	29
3	3	27
60	61	4
82	83	21
21	25	2
62	63	12
65	65	21
5	5	21
24	24	42
9	9	20
48	76	1
75	75	50
86	86	51
61	64	2
80	81	10
6	74	3
0	0	21
81	81	33
79	80	14
61	61	22
83	83	17
80	80	40
76	76	21
13	13	23
6	24	1
25	25	42
67	67	50
2	2	27
53	83	1
69	69	41
53	68	3
84	84	32
52	52	28
29	29	13
79	79	27
50	51	15
71	71	27
0	1	11
49	51	10
12	12	27
60	64	5
14	69	3
23	83	1
28	28	20
50	52	14
1	1	26
57	57	35
23	25	9
5	7	2
55	55	34
18	19	7
87	88	7
8	8	30
29	30	13
13	27	3
74	74	17
5	48	3
62	62	28
19	19	33
1	51	1
56	56	28
7	22	4
28	34	5
72	73	16
54	55	1
48	49	6
47	47	19
5	74	5
4	11	3
50	50	26
80	83	1
6	13	3
23	23	28
26	26	19
24	25	8
6	7	12
72	72	16
9	63	3
58	62	4
28	31	1
7	13	1
85	89	6
46	46	13
17	18	11
10	10	29
50	53	6
54	59	5
58	60	1
77	77	16
49	53	3
50	58	3
70	70	20
6	8	6
8	48	1
17	27	3
48	48	11
46	48	1
71	72	9
11	11	38
3	30	2
59	59	30
77	79	3
89	89	13
73	73	20
27	27	9
11	25	2
53	53	30
15	15	16
58	58	18
30	30	14
22	22	18
51	83	3
14	14	12
64	64	5
85	85	33
0	69	3
51	80	5
78	79	12
77	87	2
46	86	4
63	63	8
17	24	1
55	81	2
54	54	41
17	80	5
12	13	8
25	26	13
13	19	2
47	48	6
3	5	4
74	76	2
4	4	20
7	52	1
14	23	3
82	82	36
7	7	10
27	77	6
23	27	4
49	50	6
4	31	4
68	68	26
89	90	1
78	78	25
9	10	14
20	20	14
47	56	4
67	68	12
60	62	2
4	14	3
23	26	3
68	85	2
85	87	8
6	55	1
9	13	1
53	55	4
11	12	7
51	52	7
5	6	5
59	60	16
20	21	9
49	58	2
82	84	1
66	71	3
26	47	1
8	10	3
2	3	2
34	34	9
1	68	2
76	77	7
25	28	6
23	24	8
11	22	1
48	69	3
49	49	29
6	11	2
49	73	1
57	58	2
87	87	27
17	17	15
5	52	1
84	86	4
60	60	9
68	69	10
68	70	1
71	79	2
81	83	7
31	33	1
22	27	3
16	18	2
51	51	22
78	81	1
71	73	6
61	62	15
48	67	1
6	23	3
66	67	5
32	32	2
9	12	4
56	57	8
74	89	2
53	82	3
65	66	3
57	69	2
16	66	1
58	81	4
51	70	3
15	19	3
88	89	7
59	62	4
19	21	4
69	71	1
73	76	1
66	72	5
19	20	12
10	14	3
48	51	1
62	64	7
53	54	17
55	61	3
75	76	6
24	28	2
72	86	1
75	88	2
52	56	3
62	65	8
54	56	2
25	27	3
47	53	3
53	79	1
63	74	7
24	85	4
51	56	1
17	19	3
59	61	3
70	71	3
64	65	4
65	71	1
25	46	2
52	58	1
27	84	1
11	15	2
52	55	3
34	35	5
14	15	6
57	81	1
67	84	5
3	4	6
74	75	1
4	5	1
6	14	1
81	84	1
52	53	6
75	80	2
26	27	6
53	66	5
9	47	3
63	65	2
63	66	3
64	73	1
76	79	5
49	54	3
22	23	5
49	56	1
52	83	3
8	12	1
58	59	2
55	56	9
76	82	2
16	16	9
77	80	3
48	62	1
69	70	2
73	77	3
8	22	4
24	26	3
13	15	5
6	6	3
64	71	1
35	35	3
72	74	2
75	84	5
79	81	1
82	85	1
73	74	1
47	51	4
74	79	2
15	56	1
77	82	1
16	24	1
72	81	2
15	31	2
21	21	9
8	59	1
63	64	3
86	87	2
77	78	5
59	66	2
16	17	3
12	19	1
5	22	3
31	53	1
21	26	1
4	71	1
57	66	2
48	60	1
2	4	1
79	88	1
6	77	1
22	24	2
15	16	2
65	79	3
66	70	3
64	79	6
13	20	3
72	76	1
0	7	2
12	14	1
8	9	2
22	25	1
10	11	3
21	22	3
25	85	1
7	20	1
76	84	2
86	89	1
48	53	1
28	30	1
19	24	3
1	8	1
90	90	2
9	53	1
31	49	1
10	25	2
10	13	1
10	12	1
47	66	1
19	67	1
7	12	2
87	89	4
5	9	1
78	84	3
64	76	1
53	61	1
55	78	1
53	57	1
4	84	2
49	71	1
5	23	3
48	84	1
15	47	1
1	49	1
5	83	1
81	82	1
64	66	1
61	82	1
52	54	2
52	71	1
67	69	1
18	18	1
59	83	1
4	28	1
28	56	1
75	89	1
84	89	1
26	84	1
48	56	1
50	79	1
2	14	1
49	62	3
46	55	1
27	28	1
7	14	1
83	89	1
69	87	1
60	66	1
5	73	1
54	82	1
24	30	1
48	50	1
47	59	1
55	65	1
59	65	1
50	57	1
47	74	1
2	5	1
