62	62	7
9	10	1
22	22	7
74	74	8
79	79	6
82	82	9
10	10	8
66	66	8
9	52	2
14	14	8
81	81	22
7	8	2
53	53	13
26	31	3
69	70	1
72	72	11
80	80	8
24	24	11
0	0	5
85	87	3
13	21	1
6	7	2
21	21	13
59	59	1
49	49	7
87	87	5
78	78	3
72	74	2
23	23	11
65	66	3
28	28	4
5	5	12
25	25	8
74	82	2
54	62	4
89	89	13
2	2	7
85	86	5
25	27	2
65	65	5
74	75	5
20	22	4
53	54	6
75	75	9
4	57	2
52	78	6
19	20	3
9	9	7
23	24	6
10	12	1
12	12	14
1	1	8
84	84	10
11	11	13
30	30	10
81	85	4
8	9	8
6	8	3
58	58	12
69	69	19
67	67	17
3	4	11
76	76	2
20	20	8
34	51	2
49	50	7
52	53	1
6	17	1
83	83	8
73	73	10
67	68	4
59	61	5
63	63	3
85	85	6
34	34	4
51	51	6
25	46	3
86	86	15
57	57	10
48	48	7
25	26	6
19	19	11
10	11	2
52	52	3
3	31	2
46	46	2
57	58	7
3	3	16
19	59	1
64	65	4
68	69	6
70	70	4
63	66	3
53	69	2
4	9	1
54	54	11
47	47	7
63	65	3
53	55	1
80	81	9
23	25	1
8	17	2
88	88	2
60	60	8
56	85	3
68	70	3
19	49	3
15	15	7
62	63	1
53	61	1
76	77	1
66	67	3
55	55	4
71	72	3
57	66	1
79	83	1
79	80	8
77	77	7
27	27	6
1	2	3
24	30	3
7	7	2
3	14	2
19	50	2
82	83	2
69	71	2
8	8	5
51	52	1
47	49	1
56	56	1
25	30	1
26	26	2
18	18	1
26	27	3
56	64	3
31	31	6
24	25	2
59	83	1
23	26	3
58	59	2
12	23	1
4	4	4
64	64	2
66	68	3
4	5	2
16	16	6
75	77	1
63	64	5
30	67	1
87	88	3
71	71	5
13	13	2
57	69	1
75	79	1
72	73	4
50	50	4
84	86	1
5	8	1
54	56	2
22	23	2
6	6	3
13	56	1
77	78	1
58	60	2
54	55	2
11	13	1
90	90	1
88	89	2
68	68	3
75	80	3
15	16	2
0	1	1
66	69	1
86	87	2
27	31	1
14	16	1
57	70	2
29	29	1
61	61	1
56	57	1
2	3	1
64	66	1
4	10	1
5	58	1
60	61	2
13	19	1
35	35	1
75	76	2
56	66	2
53	80	1
59	60	1
66	73	1
12	13	3
11	24	1
1	15	1
50	51	1
12	72	1
8	10	1
71	73	1
