54	55	8
22	61	3
45	46	4
7	8	9
58	59	13
51	61	9
38	38	10
57	57	10
8	9	1
59	60	6
41	43	4
69	69	12
61	61	6
70	70	14
47	71	2
71	71	9
30	49	3
25	50	7
37	37	14
55	57	3
46	46	20
57	58	2
56	56	3
23	23	12
40	41	2
0	0	11
35	35	9
49	53	4
3	13	1
38	73	2
75	75	3
37	73	3
25	31	1
4	4	8
73	74	2
72	76	3
60	60	5
13	13	9
9	9	3
8	8	12
72	72	8
44	44	6
44	45	8
10	11	7
3	6	2
5	9	1
67	67	4
3	3	17
33	33	5
65	66	2
32	33	4
71	72	4
25	25	3
7	7	5
11	11	17
13	53	4
29	29	16
30	30	4
54	58	3
75	76	3
1	2	5
52	55	1
19	19	21
56	57	7
36	36	16
5	30	1
37	53	1
41	41	7
22	47	3
12	12	13
35	55	2
6	6	14
27	29	4
2	7	3
1	5	3
68	68	4
5	49	5
11	12	2
7	19	3
53	59	3
10	10	16
50	65	5
30	31	7
18	23	1
51	51	8
19	20	2
31	31	9
32	64	1
1	57	4
48	65	4
14	14	4
2	2	12
41	44	4
70	71	5
28	51	1
76	76	10
28	28	6
52	54	2
42	72	4
42	45	6
20	21	7
45	45	6
0	4	2
66	67	3
63	63	22
47	52	7
37	38	3
55	55	20
25	26	16
44	48	10
32	63	6
42	42	9
0	2	11
21	21	11
35	36	3
40	63	2
26	27	5
49	55	1
65	65	5
52	52	4
62	63	8
52	58	1
31	40	3
24	25	6
25	41	2
5	5	6
34	34	8
18	22	2
26	40	4
40	40	6
29	30	5
3	11	1
12	30	1
4	13	4
5	6	8
35	37	2
4	9	2
46	47	3
24	24	4
73	73	15
49	51	4
22	23	9
20	28	5
77	77	1
43	43	10
8	60	2
66	66	3
22	31	2
53	58	1
32	32	3
38	39	3
58	58	4
53	53	9
25	30	7
39	73	3
34	67	3
23	39	3
68	71	2
51	52	2
26	26	7
24	31	3
1	55	2
30	36	1
52	67	2
2	20	4
42	65	2
12	13	1
27	30	2
2	56	1
39	77	2
62	62	7
31	54	1
47	47	4
5	51	1
45	54	2
66	68	1
69	70	4
27	27	4
48	49	1
4	30	1
1	60	3
39	64	2
18	18	2
37	55	1
20	20	6
56	58	3
19	21	5
9	12	3
6	11	1
41	49	3
32	62	2
53	65	4
39	39	2
39	40	2
35	38	3
67	68	2
25	27	1
47	53	1
22	22	6
41	68	1
59	59	4
54	54	1
4	5	2
61	62	4
1	19	2
56	60	1
74	74	5
40	47	1
34	37	1
7	57	1
23	24	1
44	49	1
39	42	2
40	62	2
22	24	2
6	7	1
23	45	1
30	33	1
6	8	3
21	22	1
33	39	1
30	53	2
44	77	2
5	52	2
27	69	2
33	34	1
40	49	1
36	69	1
42	43	1
1	8	1
4	27	1
35	39	1
20	29	2
41	64	1
5	8	3
31	64	1
41	51	1
60	63	1
23	52	1
7	18	1
47	66	1
6	29	1
