17	20	4
34	34	3
5	5	12
78	83	4
35	61	5
49	50	5
50	77	1
80	80	8
23	23	12
51	52	4
60	60	6
77	77	3
58	58	8
52	52	12
84	84	5
31	31	5
82	82	4
12	12	8
67	67	17
7	7	5
51	51	10
10	10	6
24	48	4
54	55	9
20	20	8
53	77	3
2	2	8
73	73	12
11	58	1
61	64	3
25	27	2
52	53	1
24	24	16
57	57	6
54	54	12
65	65	8
78	80	2
58	80	2
11	12	2
72	74	4
57	66	1
75	75	12
76	76	3
65	76	3
24	52	2
66	66	8
17	17	11
6	6	6
77	82	6
51	59	11
89	89	4
62	82	2
78	79	7
15	16	4
55	55	4
87	87	14
62	62	6
50	71	1
48	48	14
86	86	9
7	17	4
77	79	4
56	56	10
16	16	5
6	16	1
62	75	2
52	64	1
64	64	1
52	71	1
53	53	11
20	21	10
72	72	10
66	78	3
64	82	2
80	82	3
25	79	4
23	27	2
47	47	8
88	88	5
55	57	1
7	8	6
1	1	17
74	74	6
62	64	7
89	90	1
74	75	3
30	30	4
50	50	2
63	63	9
3	3	5
69	69	7
81	81	17
86	87	6
26	31	2
78	78	3
74	88	2
72	73	8
53	54	4
75	76	3
57	84	5
68	68	14
50	59	6
68	69	5
85	86	2
74	76	2
8	8	5
52	58	1
76	83	1
52	61	1
19	19	7
4	56	1
4	4	20
59	60	7
59	59	10
56	57	2
1	2	1
21	46	2
49	49	19
15	15	5
0	0	2
50	80	2
50	83	1
49	85	5
47	48	2
9	51	7
60	61	4
26	48	4
66	67	1
19	22	1
83	83	6
10	14	1
49	79	2
14	14	1
28	28	4
69	74	1
79	79	2
22	23	6
54	81	1
13	13	6
16	18	1
78	82	2
11	11	5
67	68	2
26	26	4
48	49	4
52	59	4
50	85	1
31	48	1
54	57	1
65	66	4
51	71	4
66	75	2
52	65	1
27	27	4
46	46	4
15	56	2
22	22	2
48	61	2
34	64	1
8	10	3
7	13	2
48	51	3
7	64	3
21	22	1
79	82	2
61	61	3
49	77	4
24	47	1
77	81	1
85	85	2
52	63	1
65	79	1
71	71	2
63	66	1
46	62	2
53	55	1
19	23	1
14	54	2
21	23	2
67	84	1
2	3	1
75	89	1
10	13	1
29	29	1
11	75	1
25	48	4
53	84	1
67	86	1
72	77	4
5	32	1
25	25	4
9	9	5
84	85	2
23	24	3
9	47	1
62	85	3
25	49	2
5	17	2
58	62	2
72	84	1
63	65	1
6	8	1
59	76	2
9	10	3
21	21	1
22	48	1
51	79	1
11	17	1
51	80	2
84	89	1
12	13	1
16	19	1
81	84	1
53	80	1
32	32	1
7	19	1
23	25	1
63	64	1
12	14	1
14	53	1
24	28	1
61	63	1
33	34	1
70	72	1
8	13	1
60	66	1
64	65	2
46	47	1
85	87	1
62	77	1
75	84	1
