24	24	27
122	122	26
90	90	17
107	131	7
13	14	11
76	76	11
77	77	14
100	100	14
17	23	3
120	120	31
9	9	12
116	119	9
125	125	22
74	74	26
115	116	5
80	82	2
80	80	17
107	108	11
133	133	8
68	68	27
86	110	3
92	92	15
13	13	37
69	71	6
18	18	24
28	29	14
46	47	26
29	34	3
2	2	22
29	29	23
48	56	3
22	22	21
99	116	4
106	106	9
29	30	8
105	105	19
110	111	5
66	102	4
102	103	10
88	88	19
30	30	27
131	132	7
9	10	7
17	18	15
105	106	10
31	43	1
110	110	23
27	62	1
108	109	2
46	46	33
64	69	2
13	16	3
8	8	15
95	95	6
87	88	7
25	25	10
16	16	17
116	121	1
93	93	19
69	69	14
25	26	11
68	76	4
19	19	14
62	62	15
108	108	17
126	126	18
99	115	2
4	4	15
72	72	12
56	56	10
101	103	7
58	58	34
59	70	3
76	83	2
50	51	8
14	14	13
49	49	23
21	23	2
25	27	3
43	43	14
99	105	1
93	94	11
50	50	25
132	132	9
27	27	18
103	106	8
72	78	1
26	39	4
47	52	1
59	60	11
89	89	11
90	91	10
84	84	20
40	69	3
97	98	13
3	3	23
6	6	30
15	15	14
101	101	22
87	98	4
32	33	7
89	90	9
24	25	15
60	80	2
28	28	14
71	89	3
23	23	18
60	60	23
81	84	3
72	73	7
90	107	2
54	55	5
109	119	3
31	31	16
86	91	1
79	80	7
104	105	10
104	104	15
121	121	24
113	119	4
100	127	1
98	98	8
102	102	17
90	105	6
5	5	25
110	112	3
39	39	17
98	100	8
44	44	16
21	22	4
59	59	14
68	70	2
109	113	6
43	62	2
47	47	19
33	33	12
38	38	6
48	48	28
126	127	6
49	51	2
6	7	5
89	91	12
70	70	16
112	112	28
127	127	12
19	20	10
79	82	4
63	64	7
52	52	25
4	6	2
40	41	10
96	107	2
11	11	19
2	3	9
53	53	16
52	53	6
85	86	7
49	52	3
45	45	19
58	60	7
109	132	2
51	51	18
117	118	5
1	49	2
109	109	19
118	118	15
16	23	5
41	41	18
79	79	13
38	41	3
38	40	4
21	21	16
15	16	4
130	130	14
98	99	9
86	86	6
14	16	1
20	20	27
26	26	26
107	109	2
78	78	16
113	113	15
54	68	3
121	122	3
63	63	23
113	114	5
73	74	4
56	57	6
12	12	16
10	11	9
101	106	1
26	27	15
66	68	5
84	102	4
54	54	19
103	103	28
0	1	5
22	23	6
129	131	1
0	8	2
118	131	5
81	82	5
34	34	9
123	124	7
115	115	23
40	40	17
113	118	6
66	67	6
68	69	8
117	117	18
17	17	13
55	55	23
5	26	2
18	20	3
81	86	5
60	61	9
43	45	3
131	131	11
124	125	5
86	88	2
97	97	31
116	117	7
40	43	1
82	83	2
119	119	17
88	89	10
18	19	7
123	123	6
95	96	7
114	119	3
16	18	2
32	32	10
10	104	1
65	65	12
18	29	2
64	64	25
43	59	4
94	94	13
118	119	5
90	106	3
42	42	22
88	91	6
115	118	4
3	5	2
79	86	8
58	59	7
67	67	18
19	22	1
106	107	6
19	21	6
70	76	2
27	29	4
91	94	1
57	77	4
114	114	20
69	70	5
119	132	2
7	8	2
97	103	5
40	59	4
90	110	1
87	87	17
107	110	2
62	63	8
120	124	1
61	79	4
77	80	1
66	66	27
98	117	5
14	15	7
43	44	3
53	70	3
75	75	4
91	93	4
73	73	22
56	62	3
25	28	3
89	110	1
111	111	11
41	42	4
1	2	5
2	5	5
127	131	2
38	39	8
1	105	3
1	1	16
97	99	3
112	133	1
116	116	10
124	124	19
39	40	6
114	118	4
28	30	2
0	0	10
86	87	4
67	69	1
49	53	5
45	46	5
129	130	8
83	84	8
44	45	9
83	83	7
69	75	3
30	31	4
91	91	11
100	101	3
128	128	18
8	30	5
77	78	4
81	81	15
116	120	1
78	82	3
4	5	11
40	61	2
107	107	15
61	61	8
109	110	6
96	96	3
39	44	2
7	7	14
9	12	1
16	17	9
20	25	2
1	19	2
117	119	2
30	33	3
101	111	1
129	129	11
57	57	10
75	81	1
33	34	6
41	44	2
71	88	1
70	87	2
59	77	1
89	99	1
0	7	3
45	47	7
44	62	2
84	85	5
101	117	2
18	21	5
91	92	5
72	87	3
31	32	4
90	97	1
67	68	7
68	75	3
116	131	1
107	126	2
108	131	4
8	9	11
48	49	3
21	24	4
23	24	5
39	42	4
75	77	4
105	108	1
99	99	7
44	95	1
42	43	7
40	62	1
70	71	8
95	98	3
126	133	2
14	31	6
58	117	1
41	61	2
91	97	1
71	95	5
37	38	2
111	112	2
73	75	3
62	85	1
132	133	1
85	88	4
113	123	2
96	105	1
44	46	1
114	131	5
89	92	4
6	49	1
44	94	3
14	17	2
55	67	6
90	102	3
81	87	1
98	114	1
58	94	4
17	34	4
91	104	1
13	24	4
24	30	3
12	13	2
89	96	1
42	47	2
114	115	7
106	109	4
3	4	6
10	10	5
82	82	12
33	58	3
111	113	4
75	76	7
78	79	2
41	73	2
57	95	1
106	110	1
41	45	1
119	127	3
58	72	2
92	97	3
32	89	3
88	92	1
71	71	10
118	130	11
105	109	1
64	65	6
42	45	3
52	81	1
114	132	3
40	42	1
27	60	1
11	12	2
102	128	3
96	97	2
65	66	4
22	25	1
83	104	1
3	6	1
99	100	2
71	72	3
85	85	8
112	132	2
32	34	2
24	29	3
70	72	2
96	98	2
101	107	2
116	127	2
86	96	2
119	120	3
59	73	1
65	84	1
32	59	2
40	73	1
58	77	1
87	97	2
22	24	3
74	75	4
105	107	3
43	61	2
47	48	3
79	81	2
47	69	2
90	93	1
92	94	4
38	68	1
2	9	2
16	37	2
29	31	5
78	81	2
78	80	4
0	19	3
127	128	3
126	128	2
38	96	1
61	68	1
15	23	3
88	93	4
60	77	2
57	76	4
50	57	1
38	42	1
128	129	1
52	87	1
120	121	2
79	84	3
89	128	1
51	52	2
107	114	1
63	66	2
2	27	1
85	100	1
114	117	3
34	43	1
63	84	3
16	19	2
53	121	1
26	28	4
50	116	1
22	29	2
98	112	1
20	31	1
99	101	3
81	83	2
60	72	3
127	129	1
53	54	3
61	82	1
83	87	3
125	127	2
77	81	1
24	26	1
27	28	2
25	40	2
103	105	1
90	98	1
53	73	1
66	103	1
69	74	1
69	98	1
10	12	3
92	96	2
1	26	1
99	106	1
15	18	1
80	81	5
60	62	2
65	83	1
103	118	1
119	125	1
27	30	2
95	103	2
15	21	1
60	78	1
104	111	1
72	75	3
125	126	4
61	86	1
23	27	1
87	102	2
59	72	2
41	67	1
111	119	1
113	132	1
123	125	2
78	118	1
18	22	1
53	71	1
63	85	1
124	131	1
1	5	1
39	67	1
5	6	1
13	30	1
65	85	1
76	82	2
12	14	1
62	79	2
8	117	2
49	50	2
1	104	2
13	19	1
46	67	1
82	102	1
64	66	1
102	106	1
104	106	2
65	103	1
80	83	2
17	21	1
92	93	1
74	76	1
105	110	1
121	123	1
60	83	1
100	108	1
82	84	2
59	61	1
48	54	2
53	114	3
119	128	1
119	129	2
56	71	1
18	28	1
117	131	1
99	130	1
45	61	1
108	125	1
68	71	1
5	7	1
39	68	1
58	71	2
59	62	1
103	111	2
6	50	1
52	76	1
3	26	1
13	29	1
94	99	1
104	114	1
75	78	1
46	54	1
97	106	1
69	76	1
100	115	1
10	109	1
95	99	1
101	102	1
61	63	1
55	66	1
79	87	1
19	27	1
58	61	1
98	103	1
62	77	1
