49	50	3
96	97	10
89	89	14
83	83	19
32	33	8
75	75	9
36	36	18
92	93	8
71	71	20
96	96	11
42	42	17
90	90	25
38	61	1
71	72	9
64	64	12
27	29	3
69	69	14
43	43	15
62	62	10
93	94	8
61	61	10
33	58	5
25	25	19
24	25	10
100	100	12
86	100	2
26	26	10
68	68	15
74	75	10
75	76	6
49	49	9
37	37	14
88	89	6
84	87	4
44	44	14
42	43	7
59	68	4
65	65	15
87	87	5
91	91	27
27	53	3
82	82	11
41	41	18
35	35	6
68	69	11
85	85	11
51	51	22
52	52	19
88	88	13
31	64	4
27	27	13
84	84	4
73	74	5
99	99	11
59	59	5
47	73	3
46	46	8
24	26	1
52	53	3
97	98	5
38	38	18
74	74	15
57	57	12
70	70	19
40	40	13
25	26	4
47	48	12
66	66	7
71	74	1
58	61	2
45	45	25
60	60	11
86	87	6
48	48	10
98	98	8
93	102	5
77	77	9
37	38	3
92	92	13
66	72	3
58	58	9
68	90	3
85	96	3
45	76	5
73	73	24
53	54	14
29	29	11
70	71	4
94	95	6
101	101	17
88	101	7
81	81	18
95	95	14
22	22	3
58	60	2
96	99	4
54	92	1
44	45	2
63	63	20
33	61	2
91	99	2
81	87	3
67	67	21
29	55	1
66	67	7
55	55	10
35	41	1
78	78	5
60	61	9
22	96	2
26	34	4
46	47	14
79	80	12
30	30	4
70	76	4
55	92	1
62	82	3
47	47	10
67	71	1
50	50	11
76	76	12
60	64	1
32	32	1
90	92	3
78	79	2
34	97	1
36	37	4
89	93	2
102	102	6
72	72	5
97	97	9
94	98	5
54	55	7
27	28	8
31	31	9
54	54	11
77	78	4
41	42	4
48	50	2
79	79	5
69	90	3
79	81	2
33	33	4
32	92	4
72	77	4
92	95	1
94	94	15
53	53	14
24	27	4
67	68	13
31	53	1
93	93	18
99	100	11
39	39	11
56	61	3
86	88	1
24	24	1
90	93	3
87	92	5
59	60	2
86	86	4
67	74	1
87	88	11
69	70	12
81	82	6
83	84	3
32	51	4
68	74	1
81	84	1
52	54	2
80	81	7
34	34	8
56	56	9
30	31	4
49	60	1
51	52	2
46	90	2
41	64	1
58	63	2
86	94	2
68	73	3
60	62	1
86	93	1
26	27	1
92	94	1
26	54	4
51	54	1
64	101	1
86	89	3
81	89	3
65	66	2
55	56	3
98	99	2
56	77	1
45	75	2
51	53	1
28	31	2
52	56	3
28	28	4
91	92	1
29	62	1
62	88	2
63	64	2
101	102	7
86	101	3
82	84	2
88	94	1
66	99	1
33	51	2
82	88	1
56	101	1
56	57	4
26	32	1
45	48	1
43	44	1
59	62	3
29	56	1
81	83	1
50	51	2
95	100	2
57	61	3
89	90	2
40	85	1
35	36	2
53	81	1
61	62	2
100	101	4
51	56	3
52	62	1
84	89	1
33	38	3
23	26	1
84	94	2
63	65	2
62	79	1
80	80	5
69	72	2
79	94	1
85	86	1
58	59	2
62	63	2
93	98	2
94	96	3
87	89	1
64	65	1
35	57	1
78	89	2
53	92	1
35	61	1
93	99	1
67	99	2
25	27	2
28	86	2
59	82	2
44	72	1
20	20	2
95	97	2
35	98	1
31	93	1
61	81	2
34	35	2
51	79	1
84	97	1
58	62	1
49	76	1
28	89	1
61	67	1
77	79	1
49	51	1
41	62	2
78	98	1
22	23	2
51	67	1
48	51	1
33	37	1
85	99	1
82	92	1
94	97	1
48	58	1
73	100	1
