103	103	9
101	101	7
106	106	16
55	55	5
40	41	6
118	119	2
115	115	27
76	76	13
20	20	11
75	76	3
3	4	5
91	92	6
66	66	5
48	48	17
73	74	1
76	77	5
53	57	2
50	50	12
16	17	1
87	87	5
122	122	4
68	78	7
18	18	6
45	55	1
71	71	8
22	39	3
104	104	17
129	130	5
16	16	9
57	57	11
1	1	9
59	61	4
96	97	3
22	22	6
112	112	9
108	108	19
95	95	8
77	78	1
109	109	7
117	117	8
89	89	3
15	15	14
46	48	4
115	117	1
39	39	18
110	110	4
114	117	3
126	126	8
32	33	4
133	133	3
125	128	3
98	99	10
70	71	7
15	16	3
99	99	12
13	13	12
94	95	4
119	119	7
88	88	17
116	124	4
5	6	6
75	75	12
29	30	6
111	111	9
34	34	4
47	47	18
83	83	6
68	68	13
64	64	13
32	32	2
74	74	10
106	107	6
114	114	18
56	56	5
51	51	11
55	56	6
69	70	5
45	45	4
62	62	8
93	93	9
27	28	6
44	44	13
38	38	4
88	91	5
67	91	5
95	96	3
118	118	5
57	59	2
11	11	10
11	12	4
67	67	6
110	123	1
20	22	2
7	8	4
3	3	6
87	88	1
114	124	5
86	88	2
63	64	2
8	9	3
14	28	2
71	90	1
29	29	8
25	25	8
77	77	5
27	27	12
70	70	9
93	94	8
130	131	4
61	65	2
91	91	13
12	14	1
19	19	7
58	58	5
87	89	3
22	24	4
97	97	9
130	130	8
92	92	15
39	40	4
41	42	5
49	95	1
129	129	7
12	12	5
131	131	4
2	2	4
40	40	15
11	24	1
52	52	10
105	105	8
120	130	1
100	125	2
0	0	11
60	60	7
30	30	10
81	103	2
106	108	1
52	53	16
30	48	6
90	91	4
8	8	7
58	63	2
40	47	2
110	113	7
28	28	4
78	78	5
70	76	1
121	121	23
17	17	2
97	99	2
21	21	3
123	123	11
90	90	8
30	31	2
63	99	2
50	51	3
64	92	2
49	49	11
132	132	7
115	116	8
41	41	4
127	127	4
4	6	2
49	50	4
63	65	4
107	107	6
105	124	2
84	84	14
42	42	4
99	115	3
118	125	3
104	105	1
120	120	12
97	115	1
26	26	10
14	14	3
53	53	6
47	52	3
64	74	2
79	79	7
19	20	4
54	54	8
99	100	2
7	7	14
81	81	8
61	61	4
113	113	5
60	61	1
110	115	4
96	117	3
17	19	2
4	4	9
111	112	4
80	80	7
66	74	3
116	116	3
31	31	7
12	43	1
44	45	10
10	10	6
12	13	1
83	84	1
104	113	4
79	84	3
109	117	3
125	131	1
45	46	3
105	106	3
92	94	1
19	21	2
71	72	7
43	43	4
67	68	1
120	133	3
28	29	7
82	82	3
108	117	1
65	66	2
126	127	13
124	124	6
56	65	2
98	98	13
9	10	3
59	60	5
59	59	7
7	9	1
117	126	3
16	26	5
33	33	2
0	1	3
46	47	4
112	120	1
66	67	7
132	133	3
60	63	1
72	77	4
125	125	12
114	116	1
21	27	1
3	107	1
13	14	4
24	24	7
14	15	4
2	3	2
119	120	1
44	57	2
51	52	4
79	80	1
85	86	3
43	44	7
102	103	3
118	126	1
114	131	2
6	6	8
100	100	9
46	46	13
23	24	2
128	128	4
113	131	4
53	56	4
28	57	1
9	9	4
21	26	1
17	18	6
26	27	1
99	125	1
39	47	2
71	85	1
42	44	7
45	54	2
5	7	2
33	38	1
15	22	2
65	65	2
37	37	2
62	124	2
72	72	4
110	114	3
54	55	3
45	58	2
131	132	3
125	127	1
128	129	5
120	121	1
82	83	4
4	49	4
66	68	2
127	128	2
20	21	2
86	89	1
85	85	2
121	124	2
43	55	1
18	19	2
45	48	1
64	69	2
103	119	2
31	33	1
63	63	4
104	106	4
101	102	5
58	59	3
117	118	3
68	69	1
116	117	1
1	2	3
51	53	2
116	130	3
69	69	5
81	82	4
102	102	5
108	109	3
24	25	1
119	130	1
70	72	2
89	90	2
12	33	2
109	111	1
111	113	4
25	39	2
80	81	5
25	88	1
110	112	1
42	43	3
30	49	1
4	59	2
123	124	1
63	85	3
86	106	2
124	125	1
1	3	1
120	125	2
43	47	2
6	49	3
101	103	1
58	129	1
24	90	1
4	5	2
96	98	1
56	76	1
71	89	1
0	10	1
118	130	4
94	120	1
11	47	3
46	55	1
86	87	1
11	14	2
94	94	2
84	85	1
82	101	1
108	128	2
25	42	1
121	122	1
97	98	2
47	48	1
83	86	2
92	93	3
16	22	1
109	120	2
26	29	1
42	67	1
64	66	1
17	20	1
78	79	1
80	100	1
73	73	1
33	34	2
56	57	1
64	125	1
43	54	1
1	8	1
67	69	1
21	22	4
39	42	1
97	117	1
25	26	1
48	52	2
25	29	1
24	26	2
80	103	1
6	7	1
91	93	1
61	62	2
97	108	1
75	77	1
64	65	4
32	34	1
11	13	2
40	73	1
80	104	1
85	105	1
107	108	1
57	58	1
125	126	1
68	70	1
55	58	1
55	57	1
16	23	2
110	111	1
109	110	1
10	46	1
110	122	1
109	116	1
9	50	3
93	95	1
38	39	1
106	110	1
38	40	1
105	107	1
109	119	1
85	87	1
5	5	2
61	66	1
45	47	1
80	83	2
7	10	1
29	53	1
129	132	1
23	23	1
