38	42	5
69	69	6
66	66	9
20	20	8
37	38	1
7	7	5
67	68	14
37	37	6
27	27	11
25	28	2
12	12	15
77	77	8
42	43	12
9	9	10
33	33	16
36	38	6
25	27	3
30	30	9
41	73	2
8	8	7
24	28	3
33	34	1
63	64	3
18	18	7
18	19	4
26	26	5
70	71	3
68	68	12
57	57	11
42	42	15
47	62	1
44	45	1
1	1	24
23	24	6
73	73	13
24	25	8
58	58	12
6	6	7
41	43	6
52	53	1
43	72	3
29	29	7
61	61	13
6	12	2
74	74	9
51	59	3
2	3	10
65	66	4
51	60	1
60	61	8
32	34	4
42	74	2
48	48	11
72	72	5
45	45	18
57	58	4
55	55	7
21	21	15
19	20	6
35	36	10
27	30	3
2	2	10
58	59	8
14	14	2
45	53	3
39	39	9
56	56	9
5	5	9
47	47	11
40	40	5
10	10	12
19	19	8
45	47	2
52	60	2
35	37	2
13	14	4
59	59	15
41	42	4
31	35	1
76	76	2
59	60	2
11	11	9
26	27	8
56	57	2
24	24	6
73	77	1
23	23	7
75	76	2
13	13	9
24	30	3
9	11	2
3	3	6
49	57	2
53	53	10
63	63	14
22	22	7
42	75	4
50	51	2
52	52	6
70	70	6
12	13	4
67	67	10
70	74	3
65	65	7
29	30	2
31	32	3
73	76	5
34	35	3
8	10	5
51	51	3
1	2	2
67	74	2
34	37	3
53	61	8
24	29	2
0	6	3
38	41	3
55	56	2
22	26	3
0	0	7
21	22	1
10	11	9
43	43	7
25	26	5
36	36	7
31	31	3
46	46	3
32	32	5
0	1	5
43	44	7
68	70	5
54	54	6
37	39	3
35	39	4
68	69	4
64	64	5
1	7	4
50	50	8
72	73	4
28	29	2
28	28	6
39	72	1
71	71	3
62	62	2
34	34	15
54	60	1
7	8	1
42	77	1
47	51	4
41	41	6
36	37	5
23	26	1
3	4	4
1	4	2
51	52	2
4	4	4
44	68	2
23	29	2
38	38	8
45	46	2
66	67	2
74	75	2
76	77	1
37	43	1
54	59	3
74	77	2
4	5	2
60	60	3
6	7	1
20	21	2
47	50	3
7	9	2
44	53	1
40	41	1
51	62	3
22	32	2
35	40	1
35	35	5
53	54	1
25	25	5
28	30	1
22	29	1
5	6	1
19	33	3
48	50	1
54	56	2
22	24	1
69	70	1
31	33	1
39	41	1
33	35	3
51	63	1
3	6	1
34	36	2
54	55	1
38	39	2
48	49	1
6	10	1
62	64	1
66	74	1
43	46	3
45	76	3
22	23	2
49	49	2
63	65	1
11	12	1
36	39	1
34	40	2
49	50	3
70	73	4
5	9	1
64	66	2
6	8	1
51	61	2
61	66	2
44	44	3
42	44	1
73	74	2
31	40	2
23	25	1
24	27	1
