107	109	2
54	55	6
26	28	2
148	148	12
1	1	9
87	88	4
174	176	6
60	73	2
48	49	7
146	146	7
173	175	1
49	50	4
153	154	2
111	112	1
191	191	7
184	184	7
16	17	7
180	180	8
141	150	1
54	54	10
160	160	5
143	143	7
10	10	15
30	31	2
48	48	12
122	122	15
150	153	1
39	39	7
169	170	9
24	24	21
133	148	4
177	177	10
169	169	9
18	18	6
177	178	4
84	85	2
101	101	8
1	3	1
172	172	10
186	186	11
149	150	3
9	9	11
40	40	17
25	26	6
34	35	3
128	128	22
195	195	8
163	163	6
168	168	9
188	195	1
170	170	14
133	133	6
116	116	5
13	13	6
103	103	7
5	5	7
141	142	5
155	155	16
99	112	2
28	29	5
12	12	14
53	55	4
42	43	2
0	4	2
185	185	29
168	176	1
51	120	2
64	74	4
153	153	3
58	58	16
119	119	7
50	50	5
36	36	17
31	31	3
102	102	4
190	190	8
137	137	5
146	148	3
127	127	10
68	69	2
194	194	23
140	140	4
193	193	10
11	13	1
14	14	15
138	138	4
130	130	3
155	157	3
195	196	11
176	176	2
197	197	16
146	153	3
45	45	6
194	195	2
114	114	11
68	116	1
88	90	2
68	68	2
81	88	4
4	4	9
55	55	5
50	53	2
136	142	1
52	52	14
22	22	7
65	65	6
163	164	9
141	141	10
135	135	11
184	185	2
166	166	7
88	88	6
112	119	3
11	14	3
193	194	5
93	93	2
34	34	7
125	126	3
188	189	1
20	21	4
120	122	1
144	144	6
38	38	10
76	76	6
95	96	2
152	156	3
196	197	8
121	121	8
178	178	14
0	0	9
120	120	10
113	113	7
75	75	1
26	26	12
131	131	5
4	24	4
115	115	17
138	140	5
2	3	1
58	59	5
93	96	3
4	23	1
126	126	2
136	136	16
45	46	5
79	79	6
171	172	10
124	124	19
124	128	4
52	53	8
158	159	4
97	97	2
104	104	17
17	17	14
86	88	2
106	106	7
9	10	15
41	41	3
47	48	3
59	59	3
161	161	6
35	35	10
44	44	11
151	154	3
25	25	6
100	103	2
118	118	11
189	189	7
75	76	2
31	32	6
114	115	1
111	111	12
146	147	4
163	172	1
157	157	10
132	139	5
47	47	14
15	15	14
24	27	6
107	107	6
59	60	2
154	155	5
56	56	3
42	42	5
169	173	3
80	80	4
20	26	1
102	103	2
162	162	2
62	62	1
143	145	6
105	106	5
74	74	6
28	28	14
134	135	3
0	25	5
123	123	6
110	110	5
134	134	11
67	67	5
49	49	4
26	27	1
132	132	3
139	140	3
74	79	2
62	64	3
196	196	7
181	181	4
179	184	5
51	51	9
175	176	7
83	89	2
147	148	10
168	170	2
19	20	4
15	23	2
192	192	2
117	119	3
12	45	4
95	95	5
56	57	7
87	89	3
108	108	4
39	192	3
12	13	2
182	182	5
151	158	1
162	164	2
21	22	1
182	183	4
78	80	3
37	37	9
151	152	4
87	87	2
99	99	8
111	121	3
33	33	4
9	16	2
37	38	4
179	179	6
183	187	1
109	110	1
175	175	6
167	167	6
115	117	2
122	123	4
167	169	3
136	141	2
11	24	2
171	171	18
170	171	5
135	136	3
188	188	13
58	115	3
158	158	4
21	21	7
174	174	3
40	41	3
38	39	7
140	141	2
153	155	2
20	23	3
43	43	14
39	58	1
162	163	1
17	18	9
123	124	9
84	84	3
187	188	5
57	57	1
78	78	3
145	145	8
181	182	6
124	125	1
154	154	5
46	51	1
138	158	1
187	187	11
71	71	2
161	162	5
169	187	2
32	32	4
135	138	2
112	121	4
61	61	2
59	75	1
117	117	3
69	69	3
100	105	3
189	195	1
64	73	1
98	98	4
130	131	5
150	150	12
149	149	7
183	183	7
0	1	1
132	143	3
167	168	5
53	53	10
85	89	2
121	122	4
125	128	5
178	179	1
156	156	4
172	177	9
63	63	2
159	160	5
78	79	2
124	127	3
39	40	2
148	149	3
129	129	7
64	66	4
27	27	2
8	8	2
13	14	4
12	57	1
159	167	1
136	137	1
37	42	2
53	113	1
112	116	3
112	118	1
94	94	2
80	83	2
36	41	2
29	38	1
102	104	1
177	179	1
66	66	4
61	73	2
77	77	3
23	24	5
75	77	1
3	22	1
190	191	2
27	30	6
19	19	7
123	128	2
168	169	4
129	130	1
20	22	1
116	119	3
147	147	4
180	188	1
108	109	3
119	120	9
77	78	1
100	100	2
43	44	1
49	52	2
157	158	3
48	50	1
150	152	3
23	23	2
127	141	1
25	28	1
129	141	2
136	148	2
81	82	1
174	175	3
31	38	2
106	108	1
36	38	1
94	97	1
179	180	1
30	39	1
127	128	2
22	23	3
101	102	1
120	121	3
11	11	3
38	184	2
83	84	2
182	187	2
142	142	3
71	73	1
184	187	1
53	54	4
168	171	1
9	11	2
183	184	2
20	20	3
141	149	1
142	143	1
29	29	2
172	173	1
59	61	1
144	145	2
117	118	3
125	149	1
70	70	1
70	71	1
85	85	3
64	64	2
138	142	3
16	16	6
125	125	1
139	139	2
73	73	1
173	174	2
24	30	1
72	72	3
157	191	2
7	8	3
139	142	3
96	97	1
189	190	4
54	125	1
116	117	1
1	2	1
159	159	2
103	104	1
133	136	1
46	46	3
18	19	1
61	74	2
35	68	2
34	192	2
104	105	1
29	30	2
169	172	1
15	16	1
108	111	1
10	11	1
163	168	1
24	26	1
64	65	1
34	191	1
125	127	1
67	68	1
71	72	1
165	165	1
152	165	1
133	146	1
6	7	1
44	45	1
112	112	1
14	15	1
2	2	1
118	119	2
186	194	1
151	151	1
111	113	1
145	153	1
105	105	1
19	21	1
46	47	1
139	170	1
159	161	1
164	164	2
137	138	1
23	29	1
127	156	1
140	142	1
109	111	1
156	163	1
22	26	1
56	115	2
36	37	1
30	30	1
146	151	1
172	176	1
134	138	1
98	99	1
156	169	1
112	113	1
88	89	1
148	161	1
