105	106	4
129	129	5
124	124	15
11	55	1
62	62	14
72	90	2
94	94	8
84	85	10
85	88	3
113	114	3
11	13	5
14	14	12
83	83	8
114	114	13
72	73	6
47	47	10
4	5	3
117	117	13
104	104	5
74	74	1
52	52	14
79	80	5
63	63	6
103	106	5
116	116	8
51	52	2
69	69	5
42	42	3
107	108	4
29	38	5
30	72	2
50	50	8
11	18	2
84	84	5
54	61	3
126	127	2
86	87	1
13	13	7
118	125	3
20	21	2
66	66	1
91	91	7
12	88	1
117	118	2
29	29	14
45	45	9
48	90	2
98	98	3
105	107	5
53	53	21
72	72	3
68	69	1
118	124	2
30	30	13
96	96	6
18	18	18
0	1	3
2	3	5
40	66	1
48	48	9
58	59	6
117	124	4
9	10	3
114	116	7
29	30	1
115	117	2
5	5	6
119	119	9
47	48	9
121	122	5
118	119	8
56	56	11
125	125	8
21	21	5
13	14	6
0	0	6
95	95	7
76	76	10
61	61	8
9	9	11
52	53	6
126	126	13
97	114	3
109	109	4
68	68	7
131	131	9
113	113	5
111	111	5
41	45	5
115	116	1
26	26	2
31	32	12
45	46	13
113	131	1
94	95	2
65	65	9
34	44	1
85	85	10
77	78	2
116	117	5
15	15	4
58	79	2
3	3	6
73	73	6
62	63	2
58	113	2
97	97	9
80	80	3
102	103	5
40	40	5
19	19	5
43	43	3
105	105	5
110	110	11
107	107	6
17	18	5
109	110	3
40	41	8
23	23	9
15	17	2
93	130	5
83	84	6
54	54	10
87	87	8
43	67	2
46	46	5
122	122	4
43	45	1
121	121	11
2	51	1
90	90	6
70	70	11
44	49	5
98	103	2
25	25	5
42	43	3
72	78	3
55	55	4
115	115	4
39	40	4
8	9	3
123	123	5
105	110	1
7	8	3
10	27	3
4	7	6
41	41	8
105	117	2
24	29	6
43	44	1
110	113	1
82	130	1
11	11	6
47	93	2
12	12	4
14	31	5
49	49	9
103	103	5
98	104	4
59	59	7
16	17	5
77	77	11
10	10	4
59	61	1
106	106	5
78	78	6
33	33	4
51	51	7
110	112	5
93	93	8
71	72	2
7	7	6
70	71	1
101	101	5
119	120	2
103	118	2
82	82	6
73	75	1
71	73	1
17	19	1
123	125	1
81	84	2
94	133	1
46	47	6
60	61	1
130	131	4
126	128	1
71	71	5
66	67	5
50	51	5
100	101	6
31	57	2
41	44	3
17	21	4
61	62	1
31	116	1
32	33	7
57	57	5
64	73	4
1	1	10
6	6	3
118	118	5
60	60	5
95	96	5
120	120	5
108	108	5
21	85	1
4	4	3
64	72	2
38	39	5
47	58	1
41	42	6
131	132	1
128	128	1
39	39	5
2	2	7
22	22	2
57	66	3
44	44	3
58	58	6
18	19	1
93	94	1
45	69	1
3	6	4
24	25	5
99	102	1
111	112	3
44	45	1
44	67	1
102	102	2
67	67	10
16	16	3
123	130	2
118	122	2
76	78	2
122	124	1
112	112	4
91	92	8
121	124	1
73	74	1
8	51	1
28	28	2
12	14	1
22	23	1
11	12	3
106	110	1
40	116	2
132	133	1
132	132	2
37	59	1
39	53	3
125	130	2
54	65	1
30	31	3
85	86	3
90	91	2
66	84	1
21	22	2
65	71	2
123	124	4
104	112	1
122	123	1
46	48	1
56	57	2
110	111	2
23	25	2
70	120	1
55	57	1
103	115	1
97	98	2
125	126	3
64	79	1
38	116	1
3	4	2
32	32	3
41	86	5
89	89	2
45	51	1
8	8	2
10	28	1
38	38	3
99	101	3
104	111	1
28	30	2
119	125	1
103	114	1
119	127	2
104	118	1
67	68	2
31	31	2
41	94	1
87	88	1
6	7	1
86	92	1
88	88	1
107	124	1
19	21	1
73	80	1
26	31	1
49	53	1
130	130	1
109	115	2
92	109	4
24	24	2
34	78	1
12	33	2
10	25	1
101	102	2
114	115	1
125	131	1
47	59	1
5	6	2
63	64	1
34	34	1
84	101	1
49	88	1
56	69	1
20	86	1
92	111	1
48	49	2
38	40	1
72	77	1
48	54	1
90	100	1
32	56	1
13	20	2
26	27	1
33	34	1
96	98	1
65	67	1
15	16	1
49	57	1
81	82	1
6	8	1
59	60	1
95	104	1
