8	27	4
88	89	12
112	113	9
69	69	18
108	108	18
54	55	5
55	55	12
80	80	19
3	3	27
24	24	11
58	58	23
34	58	1
109	109	16
56	56	15
144	144	9
20	21	16
59	60	4
106	109	4
71	142	3
101	101	23
33	33	8
61	61	20
25	30	1
112	112	24
120	120	29
51	51	7
41	41	23
140	140	12
128	128	29
14	21	11
125	125	20
56	92	2
13	33	3
47	48	5
74	74	11
24	25	10
107	109	3
137	137	8
104	106	7
93	93	13
21	22	3
87	107	1
50	51	9
19	19	27
68	68	4
77	78	10
58	60	5
23	23	14
4	14	3
129	129	14
51	52	15
4	4	13
14	15	11
6	39	7
136	138	10
66	66	27
59	59	10
106	106	14
52	52	11
105	106	8
2	57	4
91	91	12
125	129	3
119	119	19
76	78	5
111	111	23
89	91	3
131	131	17
18	19	13
71	71	13
85	91	1
35	36	12
60	60	26
13	13	26
30	31	1
89	89	14
83	86	4
29	49	4
118	119	15
75	93	3
89	90	9
105	105	17
53	57	5
145	145	19
35	35	29
134	138	2
118	127	2
102	103	7
87	87	28
110	110	15
130	130	15
129	130	8
19	22	4
117	117	40
38	38	39
5	15	1
95	96	8
83	84	4
37	37	17
123	133	2
29	29	17
73	73	12
78	128	2
60	61	6
114	117	1
76	76	10
20	20	10
26	76	2
118	118	21
1	1	17
60	144	5
72	132	7
1	11	3
5	5	17
136	136	15
123	123	15
124	124	20
141	141	26
26	26	19
28	101	5
18	18	22
90	90	17
114	115	5
21	21	13
93	94	14
87	88	9
53	53	22
13	84	5
17	25	4
133	133	30
9	37	4
33	34	11
54	54	18
96	96	18
82	82	11
25	85	4
97	107	7
77	90	3
57	57	13
94	94	4
87	110	2
146	146	7
75	75	36
71	72	4
26	27	9
53	119	4
99	99	14
79	79	14
128	129	12
102	102	16
122	131	2
30	32	5
120	127	8
142	143	4
28	29	6
39	54	5
123	124	3
97	97	16
59	62	3
17	17	16
109	113	2
55	64	7
22	22	23
138	138	26
91	96	3
35	37	2
74	141	4
47	71	6
42	42	6
79	96	2
134	134	23
34	35	13
93	96	6
15	16	9
30	30	13
36	36	18
43	43	5
48	57	4
4	6	2
12	12	4
83	85	8
67	67	24
25	25	28
58	59	9
117	118	3
73	138	7
131	139	2
124	125	7
40	40	34
68	95	2
48	48	14
53	92	2
39	40	4
49	49	27
126	126	18
23	95	2
0	0	13
110	112	5
132	132	10
55	62	1
115	116	9
23	90	9
88	102	3
72	72	19
16	17	7
28	100	1
81	111	4
134	139	6
92	96	7
34	34	13
8	8	10
47	47	10
11	71	6
130	132	5
122	122	10
87	93	2
59	84	1
9	9	9
3	25	1
77	77	17
99	100	4
114	114	16
78	102	4
68	71	6
15	20	2
135	137	12
64	64	25
86	86	17
135	135	20
115	117	2
120	122	5
86	91	2
88	88	22
85	85	11
98	98	16
76	79	2
54	106	2
2	2	21
139	139	9
53	98	2
21	56	8
36	37	8
104	104	18
42	80	1
28	78	7
35	65	2
110	115	7
127	139	3
121	121	26
90	92	4
28	28	16
52	88	3
70	71	4
0	1	5
50	50	10
90	91	1
117	119	1
141	142	7
118	126	4
39	61	5
116	116	11
73	75	6
111	119	2
25	27	2
70	70	11
68	97	1
5	6	3
84	84	13
113	113	13
20	58	2
92	92	14
125	127	2
65	68	2
25	26	3
98	108	1
1	83	2
113	114	2
66	91	5
63	63	10
47	75	4
32	32	8
98	105	1
87	94	3
26	85	2
2	3	5
138	140	6
94	104	4
103	103	17
98	99	2
97	98	5
52	53	3
61	144	3
6	6	19
11	53	2
84	85	3
82	84	8
79	80	7
39	39	21
59	97	5
12	37	3
110	117	2
75	76	4
5	27	2
83	83	5
122	123	7
14	14	8
12	14	3
127	127	10
81	81	17
107	107	7
62	64	1
132	133	3
40	93	2
116	125	2
141	144	4
34	68	3
1	20	1
11	11	10
16	33	4
74	135	2
134	135	11
9	24	1
124	137	1
18	101	1
1	5	2
2	97	3
55	58	4
6	26	2
130	131	7
3	4	5
72	73	6
13	14	3
95	95	17
31	31	13
90	132	1
121	125	3
111	112	5
85	104	6
82	130	2
118	133	4
68	72	6
137	138	9
107	108	6
41	42	3
108	111	4
64	96	2
36	54	6
12	31	2
139	140	1
13	34	7
49	50	3
1	12	7
81	114	1
119	121	3
85	98	1
86	97	2
81	115	5
87	124	2
106	107	4
124	126	2
40	41	6
63	71	2
109	112	2
127	129	4
92	93	2
85	86	4
53	87	3
128	130	6
16	16	15
20	24	2
52	131	1
17	32	4
95	97	3
91	92	3
82	121	5
5	31	1
115	115	7
14	69	5
33	36	2
72	80	5
91	95	2
14	32	2
105	118	1
19	25	1
51	99	1
1	31	2
13	31	2
82	110	1
27	27	17
76	89	1
1	10	2
42	48	1
106	111	3
69	140	4
2	4	8
127	137	2
76	77	6
81	125	1
84	125	2
140	141	4
23	24	8
27	28	8
129	131	2
73	141	3
71	130	3
78	99	1
58	64	1
63	98	2
76	80	2
8	24	4
142	142	5
34	84	2
11	38	1
24	31	1
138	139	4
71	75	2
64	72	4
55	98	2
5	10	1
86	87	2
58	84	2
9	81	6
57	58	6
119	139	1
10	10	9
94	95	3
29	76	3
116	118	3
56	57	1
131	132	2
68	69	2
100	100	7
106	118	1
105	107	1
56	61	1
110	111	4
108	109	7
14	33	3
52	66	1
0	4	1
78	78	3
87	99	2
28	30	6
2	10	3
87	141	7
143	143	7
4	91	5
104	105	3
1	135	2
100	112	1
121	126	9
53	112	1
2	36	2
55	61	2
3	26	3
5	13	4
94	96	1
125	128	2
90	124	3
114	125	2
88	90	2
8	78	1
69	70	3
79	119	3
119	134	4
62	62	6
52	95	3
13	15	4
88	109	4
101	102	2
51	121	2
67	123	3
98	112	1
8	9	2
21	106	1
56	58	1
90	123	3
1	6	3
53	54	6
125	132	1
75	79	1
65	82	5
54	56	2
31	32	6
21	105	1
0	2	1
40	53	1
20	106	2
123	137	1
11	69	2
3	10	1
64	68	1
119	127	1
16	135	2
33	35	4
65	65	5
91	94	1
127	132	1
99	102	1
65	66	4
102	104	2
67	129	1
118	125	1
55	56	3
119	133	1
56	59	3
53	129	1
57	112	2
73	74	3
95	105	2
124	133	3
38	61	1
113	138	4
0	63	1
10	31	1
66	122	1
24	26	1
48	61	1
144	146	3
127	130	1
56	93	2
65	72	3
21	102	1
81	82	3
67	74	2
68	91	1
122	124	2
114	137	2
50	88	2
38	39	1
136	139	1
16	25	2
21	57	2
27	102	1
9	119	1
109	110	2
1	26	3
14	135	1
98	107	2
10	11	3
29	100	2
126	132	1
134	137	1
122	135	2
87	123	2
1	2	4
8	53	2
110	116	1
34	64	1
139	141	2
73	133	1
72	75	1
74	137	1
133	135	2
61	62	2
27	31	1
80	82	2
0	36	1
32	33	1
126	127	4
82	132	1
34	55	3
67	75	2
68	70	4
87	109	1
131	133	3
115	125	2
93	95	1
74	75	2
125	126	6
83	92	2
107	110	1
56	102	1
52	101	2
49	51	1
21	23	2
86	106	1
116	117	2
87	128	1
1	58	1
15	21	1
35	55	1
105	123	1
126	131	2
27	42	1
66	136	1
86	98	2
115	121	3
97	105	2
85	105	1
61	64	1
65	83	1
88	107	1
77	102	1
15	15	3
56	99	3
135	136	3
135	141	1
13	20	4
136	137	2
110	113	2
42	79	1
67	91	1
77	79	1
122	128	1
40	106	2
2	33	1
65	127	1
61	65	1
1	60	1
84	114	4
121	122	5
114	124	1
108	112	1
67	68	1
19	42	1
87	89	4
4	34	1
49	64	1
48	69	1
46	57	1
4	5	3
96	108	2
75	92	3
9	13	2
113	141	1
3	5	1
52	99	1
65	71	1
12	35	2
54	96	1
71	144	2
137	139	1
78	79	1
57	129	1
53	77	1
13	30	1
10	69	1
55	60	1
9	43	2
29	101	2
117	125	2
85	92	1
97	101	1
10	14	1
47	73	1
74	80	1
49	63	3
14	31	1
61	72	2
42	43	1
58	98	3
81	110	1
49	62	1
100	101	1
73	83	1
67	143	1
67	71	1
8	10	1
10	37	1
102	134	1
24	82	2
4	33	1
50	63	1
107	140	1
40	104	1
118	141	1
65	133	2
62	63	1
37	53	2
124	135	1
0	12	1
51	122	1
16	47	2
9	69	1
56	104	1
4	31	1
36	119	1
64	71	1
47	65	1
66	127	1
25	92	1
125	133	1
116	133	1
112	118	1
17	27	1
110	114	1
29	30	1
117	133	1
2	5	1
35	70	1
22	55	1
24	27	1
57	71	1
3	33	1
119	120	2
17	33	1
74	124	1
14	16	1
21	31	1
39	42	1
18	27	1
9	42	1
47	83	1
26	64	1
65	73	1
100	118	1
97	108	1
