114	114	2
47	52	2
53	53	9
6	6	3
27	32	3
105	105	5
124	124	4
26	62	2
79	79	6
120	120	2
108	108	6
31	31	2
15	16	2
49	49	7
65	67	4
70	70	9
7	7	6
26	26	9
52	52	3
71	71	6
19	19	12
23	73	1
22	68	1
33	34	6
48	54	4
11	11	3
48	48	6
21	21	3
39	40	1
56	67	2
83	83	6
63	63	5
32	32	6
118	118	9
112	112	7
87	88	2
61	61	3
8	8	10
8	107	1
103	104	2
29	29	3
96	96	3
88	88	2
5	7	3
77	128	1
34	34	2
121	121	4
107	108	3
80	80	2
58	59	3
55	56	5
66	67	4
89	106	1
42	62	3
43	43	5
58	96	2
11	12	2
38	38	5
58	103	2
115	115	6
65	75	1
81	131	2
3	3	2
96	98	1
54	55	2
69	69	15
108	109	4
27	27	9
76	76	2
127	127	9
84	85	5
66	66	3
5	5	2
16	52	2
55	55	5
9	9	4
125	125	5
50	50	9
48	58	2
99	100	2
11	63	3
14	15	4
92	92	2
125	127	1
10	76	2
77	77	1
131	131	3
72	72	6
27	29	1
25	25	3
80	81	2
75	75	1
40	128	4
93	93	3
105	107	2
67	67	2
94	94	3
21	24	3
39	125	1
87	112	1
113	113	7
78	79	2
45	58	3
68	68	5
72	73	2
97	97	2
113	115	1
104	105	2
61	62	1
103	103	7
99	99	6
32	33	4
16	16	6
107	107	3
130	130	4
47	51	1
7	9	1
118	124	1
82	130	1
109	109	7
9	29	1
23	24	3
102	103	4
126	126	5
98	99	3
86	87	1
63	65	3
89	89	3
97	98	3
22	65	1
128	129	1
111	111	4
81	81	3
90	90	2
92	106	3
89	105	1
73	128	3
69	115	1
54	54	7
57	57	5
74	74	5
122	132	2
65	66	7
113	131	2
44	61	3
30	30	5
44	45	3
42	42	2
65	65	4
83	132	1
25	26	1
90	106	1
22	27	1
40	41	2
56	125	2
45	59	1
85	85	5
106	106	1
129	129	1
59	64	2
72	77	2
39	118	1
76	86	1
59	59	3
63	64	3
102	102	1
2	3	2
0	2	2
42	98	1
10	13	2
22	22	1
110	110	5
53	125	1
62	62	2
86	86	6
28	28	1
13	13	2
45	45	2
42	47	1
64	64	3
116	116	2
33	33	1
84	130	1
0	0	4
51	58	1
89	90	4
41	41	1
0	1	1
105	106	2
53	91	1
41	55	3
49	96	1
91	91	2
72	129	1
22	66	2
95	95	3
100	100	1
46	64	1
58	81	1
115	117	1
39	39	1
131	132	1
112	118	1
112	114	1
83	84	4
80	103	1
121	123	2
15	18	2
39	68	1
17	17	1
31	32	2
44	44	1
51	69	1
24	24	3
106	109	1
46	46	1
60	60	2
41	126	2
53	57	1
40	42	1
129	131	1
89	118	1
58	128	2
13	15	1
59	96	1
14	14	1
71	104	1
59	60	1
111	113	1
4	4	2
54	131	1
16	17	1
122	123	1
119	119	2
24	77	1
10	62	1
47	47	3
13	27	1
15	15	1
73	129	1
56	56	2
45	46	1
29	30	1
85	86	1
110	111	1
112	113	2
73	75	1
93	132	1
0	7	1
13	21	1
57	58	2
91	92	1
77	79	1
21	66	1
3	18	1
51	51	1
90	92	1
20	20	1
6	15	1
