42	43	9
46	46	10
67	67	6
86	86	5
102	102	7
55	55	8
71	74	3
60	60	15
84	84	10
85	86	6
89	90	10
65	65	2
76	77	6
73	73	7
98	98	7
92	92	7
36	37	3
83	86	4
101	102	4
103	103	11
35	35	10
33	34	4
57	59	1
59	59	4
75	76	3
81	81	5
95	96	3
22	23	2
100	102	3
69	69	11
50	50	5
52	52	6
104	104	3
42	42	13
55	56	2
88	98	2
62	62	15
66	66	12
94	95	2
80	81	6
82	82	7
61	62	4
83	89	4
64	64	12
28	28	3
79	79	3
23	23	1
57	57	4
70	71	6
44	45	1
99	99	9
79	82	3
80	80	6
92	100	1
89	89	9
96	96	7
63	64	9
79	93	2
75	75	5
51	51	8
67	68	2
31	31	10
77	77	4
30	30	3
68	68	7
48	48	5
47	49	3
21	21	11
86	87	3
84	85	9
102	103	2
41	41	1
70	73	2
78	78	9
100	101	3
107	107	2
94	100	5
106	106	2
77	78	5
68	75	1
63	63	3
51	101	5
32	34	4
76	76	3
33	33	7
49	67	1
54	54	7
94	94	7
87	88	2
34	34	9
91	91	5
33	36	2
54	55	1
42	44	3
49	49	4
48	107	3
31	32	1
100	100	4
78	80	1
20	25	2
93	93	10
72	72	9
82	90	1
72	73	4
25	25	3
52	101	1
24	24	12
68	69	2
91	92	4
38	39	5
97	99	5
83	83	4
53	54	2
37	39	8
59	61	1
60	61	2
22	33	1
20	20	2
90	90	8
92	93	2
39	39	3
95	95	2
32	32	10
99	100	1
93	94	1
97	97	10
71	72	4
39	40	2
91	93	2
36	39	2
79	80	3
37	37	5
40	40	7
22	22	5
45	45	2
53	69	3
58	59	2
87	94	1
85	85	3
69	70	1
56	57	1
44	44	9
71	71	5
56	65	1
80	102	2
91	95	6
43	43	2
37	38	1
56	59	5
82	86	1
49	50	2
98	99	3
93	95	1
47	47	3
73	74	2
94	99	1
104	105	2
56	56	7
36	36	3
41	42	4
84	91	1
20	42	2
20	22	2
29	29	1
90	92	4
23	24	2
70	70	4
42	50	1
26	26	3
62	63	1
105	105	1
59	60	1
84	89	1
58	58	3
52	53	1
88	88	3
49	91	1
56	92	2
61	61	2
55	62	1
79	84	1
30	31	2
66	68	1
55	57	1
79	81	4
41	45	1
24	25	1
27	27	1
83	85	2
60	95	2
90	91	1
57	93	1
87	87	1
28	29	1
45	47	1
66	67	1
