62	62	12
157	158	12
98	98	26
138	139	8
34	74	3
108	108	26
156	156	24
67	68	14
70	70	64
43	43	21
21	42	1
145	145	41
73	73	30
140	140	12
119	121	4
72	73	14
150	150	20
128	128	26
85	85	27
18	18	34
35	35	29
49	49	28
133	133	26
53	54	29
157	157	32
9	14	3
88	90	7
158	158	16
54	55	13
55	56	14
37	139	6
8	11	4
101	101	33
79	79	29
90	90	41
110	111	10
12	12	34
126	127	13
96	96	20
93	93	19
10	11	16
96	97	8
114	114	35
97	97	32
11	11	24
113	129	1
45	45	22
148	148	29
95	96	12
88	88	18
37	111	4
6	8	1
146	146	18
103	103	27
20	20	39
140	167	1
42	42	32
162	164	3
113	114	20
40	50	8
13	14	4
80	80	28
102	102	34
50	50	25
78	78	32
34	34	29
23	23	23
91	91	37
25	98	1
139	140	6
75	75	24
42	44	7
9	10	12
121	121	13
54	54	45
111	111	28
20	24	2
89	90	12
5	5	27
100	100	22
161	168	4
42	43	9
56	56	43
114	115	25
122	123	7
69	69	36
33	33	22
68	68	10
81	82	21
2	3	7
144	144	13
35	75	2
11	12	20
112	113	18
126	126	27
57	57	24
44	52	1
9	9	19
38	109	5
134	134	16
0	1	13
122	122	15
39	39	27
49	50	8
18	21	8
16	16	39
7	7	53
105	105	24
165	166	10
71	71	40
91	103	5
40	40	30
75	92	6
89	109	2
155	157	8
155	155	32
117	118	30
6	14	4
84	84	45
45	46	12
164	165	2
51	51	8
70	71	5
135	135	23
77	77	29
115	115	40
95	95	18
99	99	34
4	4	35
37	38	19
150	157	6
40	98	1
82	82	26
132	133	10
6	24	6
8	21	6
81	81	30
41	43	3
111	112	11
110	110	34
74	77	4
142	142	27
0	0	8
123	124	15
74	74	18
86	87	7
38	39	10
72	72	40
125	125	23
36	36	25
1	1	25
160	165	2
152	152	27
25	25	38
163	168	2
166	167	9
142	166	6
87	101	3
21	22	8
10	10	34
151	152	1
130	139	6
143	143	29
103	108	5
113	128	5
164	164	13
48	48	42
27	27	33
140	141	11
52	52	21
55	55	30
118	118	18
76	76	22
129	132	8
22	22	25
5	6	7
149	149	32
88	100	11
129	138	2
121	122	4
13	13	21
84	85	13
127	127	24
106	106	30
116	116	23
37	37	29
102	108	2
39	42	3
82	83	2
94	94	24
17	18	12
74	75	15
123	123	26
98	99	1
27	110	2
161	170	1
146	148	9
124	124	29
141	141	9
100	107	3
130	130	14
49	67	2
40	47	4
153	153	16
3	6	2
131	136	1
101	103	8
34	35	15
119	126	7
3	3	29
4	25	4
139	139	15
130	132	12
45	51	11
19	19	23
162	163	12
26	26	30
120	120	18
132	132	17
65	65	11
89	89	29
15	15	30
114	117	2
38	38	43
9	19	6
132	140	2
47	48	17
53	53	29
168	169	1
27	28	6
112	112	30
47	49	6
14	15	17
65	66	5
50	51	18
66	70	3
64	64	36
75	116	1
78	114	3
149	150	8
6	47	2
94	107	6
67	69	6
12	13	3
167	167	9
65	76	2
144	160	1
4	5	32
134	135	10
20	22	6
151	151	25
103	107	9
66	68	5
145	167	2
134	136	3
77	79	3
136	136	14
6	7	13
44	44	20
8	8	19
44	45	17
19	24	4
48	49	17
85	86	6
83	85	3
159	159	23
35	56	1
153	154	3
91	101	1
76	78	4
17	17	19
160	161	5
75	128	1
147	147	31
23	24	6
127	130	5
19	23	6
102	103	17
168	168	13
71	72	16
109	111	6
18	23	7
4	7	8
158	159	5
83	83	23
103	104	6
162	162	6
9	11	4
69	74	2
104	104	26
92	92	18
66	66	15
21	21	19
28	28	9
35	36	9
104	106	3
166	166	5
163	164	8
107	107	21
118	126	2
99	103	1
130	136	2
148	149	7
169	169	13
93	108	5
81	83	2
164	166	1
169	170	15
154	154	30
161	161	11
118	121	3
119	119	18
4	36	4
15	19	1
47	51	6
87	87	29
5	35	5
118	125	3
25	26	1
86	86	24
41	41	18
14	14	21
160	160	15
129	129	11
97	98	7
7	26	1
139	143	5
57	62	5
144	146	3
120	124	4
162	170	2
93	94	2
46	46	34
46	52	2
8	14	2
43	44	10
10	13	3
129	130	8
70	90	1
83	84	3
18	20	3
90	92	3
108	110	12
94	95	8
69	70	9
66	74	3
66	67	13
105	106	17
2	2	35
22	23	5
152	154	1
108	109	18
68	69	4
89	112	1
40	64	4
42	55	3
8	12	4
75	114	4
39	41	6
163	163	19
20	21	15
109	110	8
14	21	3
131	137	3
167	168	18
19	20	6
24	25	15
113	113	13
125	127	10
119	120	6
90	91	13
122	124	3
6	6	19
63	63	20
21	48	2
94	96	2
68	70	1
107	110	3
20	23	3
33	34	9
120	148	3
89	91	8
8	44	1
101	102	9
26	27	6
116	118	4
155	167	1
1	2	8
80	82	6
73	80	1
91	92	9
112	118	4
87	96	5
72	81	2
130	131	12
163	169	1
24	41	2
165	165	8
117	125	1
133	140	1
58	58	6
142	143	1
92	93	17
56	57	10
146	164	4
131	131	14
46	49	2
125	126	9
94	98	7
144	168	2
122	165	5
37	40	5
39	98	6
76	90	6
170	170	8
62	63	8
55	64	1
79	80	13
74	76	4
78	79	11
100	102	12
73	74	6
115	117	4
44	53	6
78	87	3
66	107	2
47	47	25
141	142	1
24	24	20
41	50	2
51	52	5
139	141	1
84	106	2
49	51	2
42	47	3
88	91	3
48	50	1
2	4	2
78	123	4
123	166	3
91	100	4
140	142	1
107	108	8
123	125	7
144	145	6
84	107	3
92	97	1
13	15	4
18	19	14
137	137	12
10	21	1
49	68	3
4	15	2
150	151	8
100	101	5
80	86	4
127	129	3
140	143	5
23	25	1
39	90	1
119	123	2
109	109	13
76	77	7
38	41	2
72	83	2
137	140	6
72	90	3
146	147	10
88	89	7
73	75	3
113	130	4
8	10	7
160	169	1
45	52	2
3	4	8
8	46	4
152	153	5
99	108	3
120	122	2
41	49	1
67	67	8
49	69	1
75	78	2
104	122	3
107	111	2
78	80	1
93	101	9
138	138	9
87	88	2
72	80	1
3	64	2
78	90	2
137	165	1
66	69	3
21	98	2
47	52	3
117	117	15
87	102	3
87	115	5
73	78	2
101	107	3
67	70	2
2	69	3
93	102	5
38	40	3
46	51	1
91	99	2
8	9	6
153	155	1
85	87	1
46	48	4
133	135	6
163	166	3
2	42	3
99	100	3
57	64	1
52	53	5
143	145	1
63	64	1
36	37	3
90	99	1
156	157	6
143	144	10
106	107	12
39	40	4
153	164	2
36	53	1
73	79	3
128	129	3
75	76	8
16	17	9
65	67	2
7	14	3
160	164	1
93	98	8
135	136	8
10	12	3
0	2	8
70	80	1
100	111	3
2	17	2
109	117	2
112	129	3
93	107	4
160	166	1
153	165	8
54	57	1
95	97	3
66	91	3
1	5	2
71	73	5
91	94	3
76	91	1
104	105	7
5	36	4
118	122	2
112	114	2
15	17	2
71	76	2
120	147	4
86	102	2
76	112	1
88	95	1
120	146	1
21	24	2
137	138	8
121	166	2
87	116	2
24	26	2
53	55	3
46	47	1
34	116	2
5	58	1
75	117	1
76	79	2
165	167	4
101	106	1
85	106	2
48	51	1
77	78	3
146	150	3
88	112	4
88	104	1
139	166	4
92	94	5
92	101	2
115	116	1
77	91	3
116	117	5
12	14	6
147	148	3
64	69	2
130	141	1
132	136	1
45	47	6
131	144	2
91	97	1
146	152	2
53	56	2
21	23	1
64	65	4
100	103	4
37	41	1
57	63	1
44	46	1
102	104	7
87	89	3
78	91	2
147	159	1
86	96	4
129	131	4
128	130	2
103	106	2
76	80	3
133	134	5
77	90	3
4	14	2
39	63	3
54	56	3
97	99	7
93	97	2
16	19	2
134	159	2
122	125	2
150	156	4
8	23	1
79	114	1
73	83	2
70	72	1
150	155	3
7	9	2
94	106	1
19	22	3
145	147	4
51	58	1
86	89	1
84	86	7
72	85	1
146	159	2
85	107	2
38	110	1
9	51	2
40	79	1
37	53	3
18	49	1
25	101	2
47	69	2
9	49	1
55	58	4
27	37	2
71	82	2
15	16	2
85	108	2
7	8	4
8	13	1
9	13	2
159	167	2
129	143	1
115	124	2
138	141	2
35	55	1
93	95	2
129	139	1
154	155	2
129	166	1
21	108	1
155	156	3
86	103	3
26	109	1
6	15	1
131	165	4
18	48	2
0	69	2
77	123	1
2	18	2
80	81	1
161	167	1
134	140	1
88	115	1
143	160	2
93	99	1
86	88	1
91	96	1
161	164	4
21	97	1
114	116	2
53	57	2
45	48	2
39	56	2
0	17	1
27	50	2
43	55	1
3	5	1
11	15	3
6	10	3
20	25	1
114	118	1
19	101	1
25	93	4
75	82	1
74	82	1
5	69	1
127	128	2
145	146	1
153	163	1
136	141	2
56	58	1
63	69	1
88	124	2
74	116	1
69	82	1
27	140	1
36	54	1
113	125	1
8	17	1
139	142	1
76	114	2
128	139	1
38	64	2
0	5	1
39	50	1
126	129	1
11	13	3
53	68	1
103	105	1
167	169	1
40	54	1
27	137	1
22	49	1
40	51	2
45	53	1
78	89	1
37	56	1
69	73	1
143	167	1
1	4	1
22	24	1
146	163	1
23	97	1
149	151	1
132	141	1
122	166	1
8	19	1
89	101	1
96	101	1
36	38	1
163	165	1
26	42	1
104	160	1
4	37	1
70	76	1
72	82	1
105	107	1
5	7	1
