147	147	3
148	148	4
54	55	3
81	81	3
111	111	8
48	49	1
148	149	1
132	132	4
24	24	3
9	53	3
53	53	4
50	50	1
102	102	7
22	23	4
131	131	3
5	86	1
95	95	4
80	80	5
26	26	6
44	44	3
149	149	2
140	140	3
109	110	4
146	146	4
141	142	3
17	17	8
136	140	2
68	74	2
9	9	2
15	15	1
43	43	6
145	145	8
98	99	2
102	103	8
22	35	3
139	139	7
101	101	1
83	126	2
154	154	4
49	49	3
107	109	2
82	82	8
22	22	8
75	79	3
7	7	8
4	6	3
110	114	1
86	87	3
43	73	2
121	136	3
29	29	2
78	79	5
123	131	2
73	85	1
68	68	6
106	106	3
34	34	4
71	71	3
103	103	2
92	92	1
133	152	9
4	4	6
31	31	6
109	114	4
10	10	1
13	13	1
27	34	6
25	25	2
40	41	2
76	76	1
6	25	2
74	84	1
36	36	7
75	75	1
68	112	2
41	41	1
142	144	3
26	27	1
99	130	2
62	63	2
127	127	3
137	138	6
26	50	2
29	30	3
97	97	1
7	131	2
33	33	6
76	84	6
98	98	1
78	81	3
87	87	5
112	112	4
83	83	1
134	134	4
12	13	1
137	137	3
150	150	4
122	123	3
145	146	3
77	84	4
143	143	3
127	148	2
63	63	5
12	12	4
40	40	4
125	126	2
79	79	4
135	138	3
18	19	5
130	130	1
122	122	2
148	154	1
138	139	4
14	14	7
22	27	1
65	65	1
105	105	3
114	114	3
145	148	2
110	110	3
48	48	4
144	144	2
76	94	5
57	57	3
67	67	2
96	96	3
4	8	4
86	131	1
128	128	2
81	111	2
22	30	2
138	138	1
144	145	1
11	11	4
104	114	1
45	45	1
153	153	1
124	128	1
16	22	3
78	78	1
82	112	2
90	90	2
51	55	1
125	125	3
39	39	1
115	115	3
109	109	2
6	6	2
85	85	1
26	55	1
96	97	3
7	80	1
99	99	5
35	35	1
43	46	1
25	26	2
94	94	1
108	108	1
19	46	2
32	32	1
27	29	1
35	40	2
10	71	2
6	7	3
30	32	1
8	9	4
62	64	2
73	73	4
35	36	1
93	93	5
23	23	1
50	55	3
55	56	4
63	64	2
119	119	2
56	56	4
117	117	1
49	50	1
93	111	1
83	99	1
5	55	2
135	135	2
123	123	1
50	52	1
110	112	1
66	66	2
43	45	1
27	53	1
29	38	1
12	27	1
36	37	1
9	24	1
107	107	2
143	144	1
106	107	1
125	128	1
142	142	2
121	121	1
100	101	1
27	27	1
83	132	1
4	5	1
17	19	2
66	68	1
109	128	2
92	103	1
42	42	1
82	83	1
21	21	1
136	141	1
121	131	1
79	82	1
19	19	1
41	43	1
28	28	1
129	129	1
76	78	1
34	37	1
