64	64	12
20	20	12
202	202	11
52	52	4
21	21	8
68	69	2
85	90	2
9	9	6
180	181	8
111	111	10
12	35	3
36	36	10
46	46	12
239	239	13
198	199	8
191	193	2
172	172	13
212	212	15
208	208	22
109	109	15
246	249	5
94	94	4
69	69	8
203	229	5
199	200	4
116	117	2
32	32	13
93	93	4
171	171	6
58	58	11
50	50	21
54	54	8
219	219	7
46	214	2
110	110	12
10	10	6
102	102	11
35	64	2
14	34	1
62	63	2
153	161	1
14	65	3
201	201	19
149	149	6
245	245	10
20	24	4
57	58	6
153	153	11
50	105	1
94	95	5
18	19	8
210	210	12
45	45	4
234	234	17
92	92	11
31	31	11
11	12	1
101	101	12
26	40	4
73	73	7
39	40	4
208	209	6
229	230	7
170	170	16
190	190	6
211	211	8
209	236	4
15	15	18
29	29	7
114	116	3
27	27	15
60	61	1
180	180	22
221	222	7
66	66	7
203	203	7
39	39	6
38	38	19
201	203	3
152	160	6
200	201	5
157	157	21
207	207	11
181	181	22
179	180	2
240	240	12
185	185	7
28	28	12
241	241	14
154	154	12
34	34	12
175	176	19
88	88	10
151	151	19
183	183	9
168	168	13
22	22	14
209	209	6
155	155	8
206	206	3
17	17	8
248	248	7
236	236	3
228	228	5
77	106	3
212	213	2
11	11	6
164	164	11
200	200	7
197	197	7
74	74	5
199	199	4
115	116	1
172	173	9
91	100	1
8	8	4
99	99	1
247	247	5
213	223	3
202	203	7
1	55	1
150	151	2
222	223	6
24	24	4
63	64	11
78	78	7
205	205	8
7	7	7
186	188	1
81	82	3
21	22	3
235	235	10
224	224	8
162	162	9
198	198	3
31	88	7
231	231	4
177	177	8
178	178	14
49	49	5
27	29	1
42	45	4
221	221	9
163	163	11
37	37	8
75	75	4
77	77	1
46	53	1
28	44	1
119	119	4
213	214	9
25	25	3
174	174	19
182	183	4
27	41	3
203	204	5
55	56	12
113	113	7
218	218	5
33	33	10
176	176	13
227	227	13
44	44	8
42	42	14
201	224	2
237	237	5
23	24	7
193	194	4
159	159	7
95	95	19
217	217	6
55	55	12
96	96	11
213	241	6
213	213	4
57	60	4
233	234	10
164	165	4
112	243	2
94	100	1
40	40	10
47	47	11
175	175	18
242	242	9
192	192	5
207	228	2
41	42	1
224	226	1
84	84	5
15	33	5
19	29	3
196	196	6
115	115	9
222	222	9
52	53	3
191	192	2
186	189	1
59	60	5
181	182	6
110	111	1
181	214	1
178	185	2
159	177	3
146	146	3
90	90	7
20	25	1
226	226	7
91	92	6
190	191	4
184	184	5
42	44	3
42	94	2
32	33	4
3	3	6
154	160	2
73	74	4
157	159	2
151	178	1
91	91	4
18	18	10
2	3	1
242	246	9
243	243	6
179	179	14
114	115	16
152	159	5
63	63	6
29	30	2
173	174	5
215	215	6
85	85	7
166	166	10
41	41	10
192	195	4
191	191	7
65	65	4
112	112	10
186	199	3
206	207	7
160	160	10
220	220	6
225	225	10
5	12	2
100	100	7
49	50	3
43	43	11
23	23	12
104	105	3
109	117	1
46	51	3
79	83	2
231	232	4
173	180	3
217	231	1
68	68	13
167	167	10
64	65	3
66	67	7
219	246	1
14	15	8
19	48	2
147	147	1
4	14	2
51	61	2
116	116	10
95	96	2
1	1	6
108	108	3
233	233	3
179	187	3
182	182	5
216	218	1
114	114	9
158	158	5
169	169	11
211	213	3
18	29	2
169	170	3
29	90	1
150	150	9
51	51	9
223	223	8
10	11	3
204	204	11
67	69	2
30	30	8
155	156	6
187	187	9
230	230	8
234	235	4
19	19	11
210	211	7
11	35	2
107	108	6
59	59	6
92	100	2
53	54	3
86	86	3
12	12	11
223	224	2
37	38	6
43	44	5
152	153	3
14	14	5
30	63	1
241	242	8
48	50	4
34	35	1
48	49	5
47	48	1
151	157	1
225	226	4
56	56	5
226	227	5
53	53	15
161	162	5
1	150	2
77	108	1
166	167	5
214	215	7
168	169	4
208	211	2
34	64	6
236	237	2
70	70	5
211	212	4
29	36	1
12	33	1
163	165	5
167	168	7
35	35	5
153	154	3
42	93	3
61	61	8
61	62	5
7	228	3
51	52	3
111	240	2
205	222	3
179	198	4
188	192	3
2	2	4
55	240	4
165	166	4
72	73	2
8	9	3
173	173	6
181	190	4
113	114	4
101	106	1
149	150	1
154	155	3
153	160	1
215	221	2
175	179	1
89	89	5
189	190	1
0	2	4
195	195	3
186	186	6
198	206	2
237	239	5
88	90	1
57	59	2
227	249	1
176	177	1
83	84	3
6	6	5
26	26	5
161	161	4
26	53	1
228	229	2
5	5	2
91	94	2
107	107	2
88	89	3
247	248	5
192	193	6
83	83	4
152	163	1
99	100	2
71	74	1
187	188	2
165	165	8
244	244	7
13	14	2
177	200	1
214	214	8
90	92	3
30	31	3
110	117	2
50	61	2
100	101	4
25	54	2
30	67	1
184	208	2
249	249	2
222	224	1
145	156	2
217	233	1
35	36	1
46	151	1
93	96	1
101	102	4
118	119	2
30	36	1
90	97	3
221	225	2
162	163	5
117	117	3
31	83	2
53	109	2
14	66	2
216	216	3
28	29	3
170	173	1
5	15	1
169	173	1
182	219	1
210	214	2
152	152	7
220	221	3
194	195	1
1	16	2
159	160	1
177	178	2
109	115	1
60	60	2
51	53	1
237	240	1
79	82	2
188	188	2
187	191	1
173	198	1
193	193	5
76	80	6
74	84	3
156	156	5
27	40	1
230	231	3
145	145	2
235	236	1
89	90	1
55	59	1
22	23	1
117	119	1
172	174	1
48	48	5
26	27	2
86	88	2
108	110	2
205	223	3
31	36	2
77	78	1
67	67	1
179	226	2
71	71	2
180	225	2
13	13	3
70	146	1
10	21	2
36	65	2
98	98	3
16	16	3
38	39	3
243	247	1
151	179	1
12	242	1
94	101	3
183	209	2
181	183	1
0	153	1
80	82	1
78	99	2
87	87	1
40	41	4
19	25	3
212	225	1
69	70	1
183	220	3
215	244	2
87	88	1
27	28	2
4	5	2
243	244	1
105	105	2
72	75	1
195	196	5
236	238	1
215	216	1
65	66	4
170	172	1
24	58	3
44	45	2
215	245	1
171	172	2
90	91	2
188	189	2
179	188	1
217	218	3
29	31	1
227	228	3
114	118	2
57	57	2
174	175	4
52	108	1
108	109	1
101	108	3
7	9	1
216	217	4
93	94	1
197	198	3
112	115	2
231	233	1
80	80	1
3	12	1
172	184	1
183	185	2
45	46	2
81	93	1
151	154	1
109	119	2
36	94	1
35	37	2
212	214	2
86	155	1
183	184	1
85	144	2
9	10	2
49	173	1
106	106	4
111	112	2
63	69	2
119	153	1
58	60	1
236	244	1
162	171	1
193	196	1
185	186	1
15	16	1
191	210	1
163	164	1
50	51	1
208	213	1
163	170	1
152	179	1
113	166	1
101	109	1
225	231	1
108	119	1
6	228	1
229	248	1
232	232	2
186	187	1
81	81	1
165	167	1
201	202	1
238	238	1
218	219	1
87	90	1
29	38	1
216	244	1
8	179	1
58	59	1
97	97	1
18	28	1
76	76	1
