11	11	13
42	42	41
14	14	6
33	33	21
44	45	16
6	12	4
36	36	38
34	35	7
56	57	8
62	62	33
49	50	11
17	17	11
21	24	5
16	17	4
55	56	11
46	46	24
18	22	2
3	3	21
44	44	48
41	41	7
30	30	46
39	40	10
31	32	14
18	18	3
32	32	25
45	46	19
31	31	29
56	56	26
7	8	17
36	37	20
54	54	17
0	0	24
39	39	31
50	50	13
21	25	1
2	2	11
43	43	31
22	24	1
37	37	47
34	34	31
12	12	5
2	5	2
51	52	1
47	47	31
57	57	8
1	1	7
45	45	21
51	51	14
46	47	7
29	30	2
33	34	8
18	19	5
37	41	1
39	51	2
11	13	2
19	19	9
20	20	11
13	15	5
25	25	8
35	35	29
54	55	7
48	48	43
18	25	2
8	9	5
19	21	1
48	49	12
24	24	5
37	38	5
59	59	20
15	15	4
23	23	11
53	54	11
30	31	17
38	55	5
52	53	4
61	61	9
45	61	2
39	56	1
8	8	6
45	53	2
52	52	18
53	53	4
4	4	15
38	42	4
24	25	3
7	9	5
9	11	5
32	33	7
61	62	3
47	48	12
54	56	7
3	5	2
49	49	26
5	5	9
0	1	9
55	55	20
22	22	8
40	41	2
60	60	35
16	16	4
38	58	1
6	6	9
58	59	8
40	40	12
43	44	1
41	42	1
50	55	1
59	60	5
42	60	3
14	15	5
45	47	2
6	11	1
32	34	5
8	12	3
42	43	5
57	59	5
23	50	2
30	62	2
30	55	1
32	36	4
38	54	3
38	38	6
25	30	2
8	10	2
1	2	4
42	44	2
23	29	1
11	12	6
60	61	3
38	41	3
47	50	2
49	59	4
39	48	2
13	14	2
7	7	3
9	9	8
11	17	1
29	29	3
19	20	3
14	16	1
51	53	1
10	10	3
6	18	2
58	58	7
49	51	2
6	62	1
52	56	3
20	23	5
4	5	4
10	17	1
50	52	2
10	11	1
35	62	2
35	36	1
13	13	5
6	8	2
37	39	3
51	56	2
12	13	3
15	16	1
22	23	2
5	6	2
12	14	1
20	24	3
2	3	1
13	19	2
46	51	4
44	48	2
49	58	4
46	52	2
40	42	3
7	12	3
6	7	2
47	61	1
37	56	1
35	45	2
31	62	3
34	36	1
47	62	2
37	40	2
38	56	1
39	43	1
39	41	2
35	37	2
34	37	1
49	60	1
13	16	1
38	39	2
30	39	1
15	18	1
