37	37	9
75	75	9
70	105	3
38	70	2
102	102	11
45	45	8
61	63	6
54	54	15
66	92	6
84	85	3
40	40	11
79	79	3
56	56	11
93	96	10
38	45	2
78	78	10
62	62	9
76	76	11
82	82	12
47	47	5
84	100	5
42	43	8
26	29	1
39	39	17
103	104	5
101	102	2
29	42	4
38	38	6
58	79	2
90	91	2
30	30	10
46	72	6
41	41	8
102	103	7
89	89	14
35	35	8
81	81	12
107	107	6
64	64	4
22	29	3
32	33	2
48	48	9
31	35	2
94	97	2
40	44	1
103	103	6
60	60	16
88	88	12
44	45	3
71	92	7
23	24	5
100	102	6
22	22	10
96	96	4
70	71	7
97	98	8
59	59	5
57	92	4
29	29	9
23	31	2
83	88	7
98	98	6
24	24	14
53	54	7
73	93	7
80	80	5
34	38	8
22	23	1
66	66	10
65	91	2
61	62	9
71	71	13
97	106	4
51	51	3
101	101	11
65	66	6
31	32	2
98	99	6
50	50	14
47	48	4
64	65	4
65	65	7
104	105	3
26	27	7
57	57	3
53	53	16
99	99	5
82	83	9
36	36	7
61	75	3
70	70	10
90	90	4
100	100	6
66	67	2
29	30	4
95	95	12
56	71	2
42	42	4
77	77	8
104	104	9
79	96	1
51	52	1
105	105	4
55	68	5
83	85	1
81	97	1
89	101	3
34	36	3
48	49	2
37	38	2
85	85	7
83	87	3
37	49	5
82	95	1
23	23	4
31	31	5
61	61	4
86	87	3
53	66	1
76	77	3
81	88	2
78	97	6
94	96	5
100	104	5
94	94	5
83	83	6
75	76	3
30	49	3
41	42	2
35	36	3
89	90	7
36	38	2
33	34	6
57	58	4
87	88	1
33	33	4
91	102	2
55	55	9
96	101	1
51	90	2
91	91	7
63	63	6
54	60	3
82	97	3
77	96	2
45	71	4
95	96	2
25	25	7
30	40	3
28	28	4
50	51	2
62	63	5
86	86	10
99	100	1
57	59	7
65	68	2
20	21	2
21	21	7
58	58	7
87	87	7
84	88	1
20	20	2
100	103	2
86	88	6
26	28	5
72	72	5
47	73	2
82	88	1
79	80	1
27	40	3
34	34	2
89	93	4
36	70	1
52	71	2
32	32	6
57	70	2
93	93	3
84	84	9
28	102	4
78	81	4
96	98	1
24	34	4
97	97	6
71	72	5
52	52	6
69	69	2
74	74	5
22	28	2
58	92	1
49	49	3
60	79	3
67	67	8
74	75	1
43	102	1
73	104	6
26	26	6
57	93	1
42	45	2
77	101	2
62	71	2
46	46	5
56	58	3
92	92	3
88	106	2
23	36	1
27	27	4
85	87	4
37	42	1
78	96	1
74	104	1
86	89	1
34	35	1
50	75	2
45	46	1
40	45	2
36	58	5
36	37	2
69	75	1
21	46	2
68	69	1
37	39	2
94	98	2
82	89	1
73	73	3
43	44	2
96	97	2
79	98	1
89	106	2
85	100	3
62	70	1
37	76	2
41	72	1
82	100	1
82	101	1
58	59	1
68	68	2
29	40	2
39	50	1
83	86	1
60	72	1
50	90	1
29	47	1
69	105	1
70	72	1
38	55	1
81	90	1
43	43	1
25	26	1
27	46	1
102	104	1
98	100	1
