127	127	23
53	53	7
92	92	7
62	62	20
102	102	10
131	131	13
119	120	7
101	103	2
105	105	14
12	12	11
40	40	12
120	120	12
8	8	7
46	46	5
84	84	5
119	126	4
112	112	15
114	125	3
87	87	5
42	42	9
5	5	11
109	110	13
82	82	3
65	65	10
75	75	5
41	41	21
0	3	5
116	117	13
89	92	7
71	71	7
69	69	10
95	120	3
3	3	23
44	44	22
32	52	3
28	30	2
29	29	14
89	89	8
89	90	11
113	116	2
30	30	2
53	54	4
34	34	3
48	48	6
126	126	13
77	77	12
102	119	3
15	15	10
22	23	3
6	6	22
24	24	9
71	72	5
18	21	3
2	2	16
110	122	1
126	128	12
0	0	13
88	88	6
113	113	13
102	114	8
130	130	11
94	94	16
18	19	3
120	121	9
2	3	7
116	116	17
60	63	3
56	56	16
86	86	8
63	87	1
16	119	2
27	27	8
43	44	2
72	72	15
19	19	9
63	92	2
24	25	2
76	76	19
43	43	25
16	16	8
15	18	1
17	17	7
49	70	7
65	66	12
21	82	2
11	11	16
66	67	5
61	61	5
125	126	4
111	111	10
129	129	4
29	30	4
40	42	5
41	43	4
109	109	4
49	49	16
93	94	3
91	92	16
120	126	1
97	98	2
78	79	7
18	18	10
60	62	2
128	128	10
47	48	1
25	26	3
118	118	4
81	104	2
52	52	12
28	32	5
18	22	6
119	119	9
55	114	2
60	61	4
124	124	18
72	75	2
87	88	2
55	56	1
106	106	3
3	5	7
59	59	12
113	114	9
95	96	3
115	115	11
80	81	5
67	67	12
110	110	3
100	101	5
46	57	2
122	122	12
19	82	3
118	119	6
102	103	2
23	25	2
38	38	6
70	71	16
59	60	6
13	14	5
131	132	4
68	111	2
9	9	16
54	54	24
20	20	15
104	105	11
44	74	3
8	13	2
121	121	6
83	85	3
76	126	2
31	32	3
82	83	8
55	55	10
57	57	9
107	108	4
91	91	3
132	132	12
13	13	8
103	103	4
93	93	7
32	32	11
47	47	19
108	109	10
85	86	7
121	122	1
97	97	10
4	4	13
24	30	5
107	115	2
44	72	6
60	60	4
25	25	7
15	16	2
60	87	5
100	100	7
67	93	2
38	40	3
109	125	3
20	85	5
49	50	1
97	100	1
125	128	8
86	88	6
10	11	3
42	43	4
125	125	13
79	79	5
99	100	4
22	81	1
41	42	3
79	84	1
63	63	2
132	133	1
51	51	12
45	45	4
72	74	3
92	111	2
117	117	3
67	68	5
50	50	12
77	114	1
95	102	5
83	83	4
58	59	2
96	96	15
1	1	1
98	98	4
20	117	3
28	29	11
104	104	6
17	18	2
51	52	3
108	108	6
77	78	1
26	27	2
78	80	2
83	87	3
111	113	5
45	46	2
12	13	1
11	32	1
77	104	4
21	21	4
99	104	2
64	64	7
19	20	5
57	63	2
39	39	4
44	48	3
48	74	3
62	63	7
86	89	6
18	116	2
9	64	4
64	66	2
28	28	3
61	67	2
101	101	5
66	66	7
93	121	2
26	26	7
23	24	6
103	114	2
47	57	2
1	3	4
4	5	3
11	12	3
99	99	12
128	129	1
123	123	4
9	10	2
75	77	4
47	49	1
70	76	1
21	43	3
124	125	7
108	127	3
48	53	2
2	5	1
33	33	7
37	37	3
22	83	1
65	91	4
71	76	3
111	132	1
68	68	3
11	87	3
58	58	6
76	128	1
114	114	2
52	53	5
113	118	1
103	104	1
16	17	1
88	90	5
58	91	4
74	74	7
106	107	1
70	70	4
32	33	2
77	103	2
101	115	2
130	131	2
114	126	2
43	45	4
78	78	1
1	2	1
2	38	2
23	23	5
123	124	3
76	129	1
73	73	2
107	107	6
14	16	1
113	129	1
30	31	1
120	122	2
39	131	1
24	108	3
105	106	3
61	63	4
66	92	1
54	70	1
10	10	1
127	128	1
122	123	2
43	127	2
27	67	1
75	127	1
45	47	3
90	91	3
7	7	2
59	91	1
69	112	1
77	115	2
115	116	1
46	47	1
20	30	1
89	91	3
100	105	1
85	85	2
38	39	2
80	80	2
92	93	2
39	40	3
85	122	2
24	109	2
83	86	1
2	37	2
115	117	1
117	120	1
33	46	2
1	4	1
48	70	1
40	41	1
21	81	1
98	117	1
19	21	1
10	12	1
118	126	2
0	1	1
74	81	2
58	90	2
100	102	1
133	133	1
50	51	1
114	115	1
7	8	1
57	121	1
22	24	1
57	58	2
50	52	1
79	80	3
42	45	1
110	121	1
107	130	2
22	22	2
102	120	1
15	120	1
31	31	1
83	84	1
33	39	1
14	15	1
