153	154	2
66	73	1
108	108	7
47	47	18
50	51	8
150	152	4
37	39	3
23	29	2
72	73	3
11	17	6
14	16	1
106	135	4
13	15	4
80	80	1
85	85	7
132	132	14
41	42	6
43	43	6
67	67	3
109	109	11
62	62	16
51	51	5
141	141	6
100	102	6
130	130	3
40	40	9
53	53	17
89	89	2
104	105	3
63	63	1
16	16	10
149	149	8
50	50	12
2	3	3
129	130	3
134	134	4
75	76	1
117	117	12
90	92	3
31	31	12
17	47	2
136	136	14
9	9	17
77	84	3
136	137	4
147	148	2
19	19	7
57	57	5
15	32	6
50	53	1
125	128	5
99	102	1
94	94	12
148	148	4
3	3	6
124	126	3
48	48	5
18	20	2
125	125	11
110	110	12
117	118	2
113	113	12
92	92	5
110	113	1
113	139	1
32	32	21
49	49	7
66	67	5
102	118	2
106	106	8
81	86	3
46	46	17
15	15	6
139	147	3
29	29	4
13	19	5
18	19	2
96	96	7
137	140	1
68	68	13
13	14	2
46	47	9
151	151	4
123	123	10
83	83	11
112	113	8
116	116	3
127	127	4
132	133	8
5	6	3
34	36	4
6	6	5
13	13	7
131	133	3
39	50	1
20	20	7
64	64	3
113	120	3
39	39	8
105	105	10
119	121	3
98	98	16
104	135	2
19	21	1
6	96	1
25	32	3
24	24	3
32	34	4
126	127	5
45	45	6
126	126	7
71	71	6
128	128	11
4	4	9
25	25	27
58	58	4
30	32	5
135	135	7
114	118	1
130	135	2
100	100	9
98	99	3
146	146	14
14	26	3
94	99	2
121	122	3
112	112	2
141	142	6
35	35	4
7	16	2
126	131	1
68	108	1
17	19	2
97	97	7
41	41	14
101	102	5
98	101	4
86	87	4
37	37	15
17	17	7
34	34	6
75	75	11
79	80	5
48	51	4
69	69	12
104	104	7
96	104	4
11	11	8
18	18	5
131	131	5
117	146	1
42	43	3
73	74	1
20	22	1
99	99	5
92	93	4
30	30	5
78	78	12
77	78	2
21	21	7
86	86	9
82	82	6
53	54	4
38	39	5
74	78	3
53	55	5
21	22	5
102	103	2
65	66	4
120	120	2
69	70	3
55	55	9
33	33	4
118	118	4
121	121	4
10	10	10
27	27	11
88	88	3
12	14	2
138	138	8
140	142	3
48	57	5
31	32	4
93	94	2
115	117	2
12	12	6
74	74	5
63	65	8
33	38	3
116	139	1
133	134	5
7	7	4
72	72	3
26	26	2
100	101	7
3	78	3
119	119	8
29	30	2
23	23	5
72	79	1
150	150	7
49	57	1
152	152	4
42	42	9
54	55	2
77	77	3
101	112	2
16	17	2
73	73	4
142	143	4
70	70	4
154	154	4
100	114	7
8	8	3
61	62	5
36	36	8
14	15	5
21	30	1
38	40	2
68	132	2
71	73	1
48	49	3
153	153	4
14	14	6
17	18	4
68	69	10
84	85	2
132	135	2
79	79	6
131	135	2
6	7	4
108	109	1
95	97	6
3	6	5
104	138	4
62	76	2
104	108	1
107	108	4
84	84	2
95	95	4
80	85	2
22	22	6
54	54	6
115	116	6
78	79	9
55	77	2
10	11	3
76	79	2
65	65	4
104	109	5
41	43	3
64	65	4
25	64	3
70	86	1
81	85	2
9	96	1
28	28	2
74	75	2
106	107	1
129	129	6
10	13	1
16	47	1
74	76	2
87	87	1
94	96	2
37	41	3
147	147	6
52	56	3
124	124	2
44	45	1
100	118	1
79	86	2
4	6	2
53	77	2
123	124	4
40	44	2
13	24	1
20	21	11
105	113	3
65	87	4
93	93	9
84	87	2
103	104	5
103	103	3
144	144	3
131	132	6
51	52	4
38	38	9
139	139	10
99	117	4
69	71	3
72	75	4
137	137	3
113	114	3
43	44	3
39	40	6
143	144	1
66	66	2
41	44	1
127	128	4
128	129	4
123	130	1
44	44	4
34	35	3
139	148	3
114	137	2
97	105	3
19	76	1
133	133	1
142	142	3
56	56	4
120	122	1
65	88	3
137	138	2
68	70	2
80	81	1
94	95	1
145	145	1
54	80	3
8	78	2
48	53	2
139	143	1
130	136	7
112	114	1
140	140	7
85	86	6
24	30	4
22	25	4
33	34	2
27	28	3
51	54	2
93	101	5
37	73	3
99	112	1
73	86	2
143	143	3
35	36	2
86	99	4
6	74	2
111	136	2
85	87	1
107	107	4
49	53	3
127	129	1
65	76	1
150	151	2
15	113	4
40	42	3
95	96	1
16	111	3
20	23	1
75	79	2
36	43	2
122	122	2
99	115	2
39	73	1
130	146	1
81	84	1
99	114	2
115	118	1
49	78	2
124	147	1
49	51	1
83	84	1
52	52	4
109	110	1
67	106	1
3	4	1
14	18	1
56	57	1
31	42	2
70	72	1
34	38	1
22	30	1
69	132	1
149	150	1
24	36	1
53	56	1
25	27	1
43	45	1
107	132	1
101	103	1
54	61	1
95	98	1
52	71	2
69	87	1
139	142	2
62	63	1
42	52	1
36	41	2
123	125	1
32	33	1
99	100	2
76	76	2
8	9	1
149	152	1
12	21	1
111	111	1
25	29	1
