149	151	1
94	95	2
22	22	14
190	190	6
23	32	3
162	162	5
126	126	8
174	175	3
74	76	1
196	196	4
55	56	1
38	39	2
103	103	7
74	101	8
109	128	4
145	192	1
64	64	5
106	107	8
144	144	6
173	176	11
16	17	2
182	182	3
122	123	6
111	111	6
106	106	6
80	80	6
117	152	1
77	96	2
17	17	15
21	21	4
62	73	2
3	4	9
137	141	1
10	11	3
67	67	6
147	179	4
18	19	4
26	26	8
189	191	5
145	145	3
185	186	6
37	60	3
130	130	16
94	94	3
187	188	6
159	159	9
179	180	3
184	184	14
52	52	10
71	71	3
100	100	4
116	116	5
63	64	4
66	66	5
33	88	8
130	168	2
3	3	3
134	140	1
46	55	1
40	40	9
49	49	4
185	185	7
142	143	3
12	52	2
197	197	7
188	188	6
7	7	6
74	77	3
33	33	7
181	181	13
117	118	3
50	50	8
46	46	14
30	30	8
194	194	17
175	175	8
73	73	1
107	148	2
133	154	3
32	48	2
172	172	3
4	4	3
134	142	3
24	25	3
71	72	1
134	165	2
145	146	3
63	63	4
11	12	2
183	186	2
182	185	7
102	102	2
34	38	2
139	168	2
25	25	9
6	7	3
135	136	1
5	7	8
100	123	2
170	172	3
19	21	2
15	16	2
156	156	3
139	139	5
34	34	6
178	178	7
154	154	8
166	166	14
167	168	3
97	98	1
170	171	10
107	110	2
179	179	5
39	39	9
183	183	6
136	136	13
64	66	1
39	40	3
158	158	5
23	24	5
116	117	4
103	137	3
79	79	6
176	176	8
173	173	6
72	72	3
190	193	3
54	54	7
51	51	9
124	197	2
14	14	7
193	193	10
103	107	3
40	54	1
52	53	5
125	126	1
169	170	1
31	31	12
171	171	11
108	139	2
96	101	2
88	89	2
165	165	3
108	124	3
41	42	3
177	177	3
17	18	3
161	163	1
32	33	5
1	1	8
70	71	1
138	138	5
141	141	4
8	10	3
14	57	2
176	181	4
122	197	3
9	58	1
117	190	2
178	180	2
188	189	5
6	6	7
21	22	3
195	195	3
156	165	1
118	174	2
115	146	2
18	55	2
148	148	5
168	168	9
15	15	10
108	108	4
9	77	1
86	88	1
161	161	3
20	21	4
83	84	3
136	154	2
43	61	1
125	125	5
155	157	3
48	48	2
40	114	4
163	181	1
16	18	3
158	159	2
145	148	3
4	59	1
170	170	6
10	10	2
25	26	4
43	56	2
38	38	5
154	155	3
114	114	9
186	187	2
109	109	7
157	157	12
60	60	1
29	30	2
0	1	2
11	51	3
59	59	3
36	36	4
82	83	9
119	120	2
3	17	1
163	163	3
169	171	1
118	118	8
41	60	2
39	70	6
65	65	7
37	37	8
176	182	2
159	160	5
167	167	8
115	118	1
104	158	3
157	158	1
43	43	2
196	197	2
83	85	2
174	174	8
85	87	2
24	85	1
113	150	2
70	70	5
52	55	2
24	60	1
114	172	4
13	56	2
49	50	4
82	85	1
81	81	7
147	155	2
162	163	9
19	19	4
180	180	7
6	8	4
2	59	4
80	196	4
14	15	2
146	146	4
155	156	4
62	62	2
142	142	8
0	0	4
8	8	6
177	180	2
188	192	1
12	12	4
104	155	2
121	121	7
77	78	2
132	132	4
126	127	1
150	151	2
190	191	2
153	153	6
136	142	2
119	130	3
187	187	3
122	122	3
5	5	4
169	169	6
123	123	3
149	149	3
192	192	5
2	2	4
103	105	2
148	149	2
192	193	3
115	147	3
115	130	2
83	83	1
135	135	2
9	44	2
172	177	1
24	24	8
113	114	1
48	49	7
88	88	7
62	136	2
140	140	3
124	150	3
8	196	3
94	149	1
167	170	2
171	172	6
134	134	5
76	94	2
27	33	2
175	178	2
145	152	1
6	59	2
42	43	3
157	160	4
130	145	3
127	128	3
93	98	1
176	177	3
18	18	7
107	108	1
98	98	2
120	120	3
17	54	2
16	44	3
8	56	3
151	152	1
185	187	3
45	56	1
130	169	1
3	59	3
112	112	10
194	195	1
28	37	2
136	146	3
38	43	1
65	76	1
182	183	5
100	101	1
44	44	3
189	189	7
17	57	2
75	101	1
143	144	1
108	109	2
113	113	3
141	171	1
117	154	3
150	150	6
29	29	3
149	150	7
76	76	1
57	57	4
66	67	1
183	184	4
12	13	2
134	135	4
82	82	5
93	157	1
86	86	1
145	158	1
9	42	3
10	13	1
110	110	5
140	162	2
68	68	6
90	90	3
7	27	2
191	191	3
143	172	3
169	183	1
62	65	3
47	47	8
11	11	4
97	97	2
26	37	1
107	107	3
133	160	1
8	17	3
40	41	2
147	148	3
54	55	7
20	20	4
58	58	1
82	84	1
144	147	1
1	2	3
14	56	2
3	55	1
44	45	1
165	166	1
23	23	3
73	76	2
37	38	2
147	147	6
119	168	1
9	9	5
160	160	3
101	102	2
172	173	1
103	104	1
128	128	2
103	159	3
40	72	1
16	16	4
72	73	2
78	185	2
15	23	2
178	185	2
51	52	2
121	123	1
113	119	2
13	13	2
32	32	2
34	64	2
131	134	1
186	186	3
29	33	1
67	98	1
129	129	2
132	144	2
135	147	1
84	84	1
106	127	2
101	111	1
45	45	4
114	151	1
69	69	1
152	153	1
136	153	2
9	39	1
183	194	1
38	57	2
161	186	1
17	46	1
141	172	1
119	121	1
163	164	3
156	157	1
173	175	2
143	143	4
195	196	1
155	155	3
20	23	2
99	105	1
191	192	1
2	5	1
53	53	1
79	80	3
61	61	2
120	124	1
135	179	1
105	105	1
35	67	1
35	35	3
40	42	1
9	10	2
164	164	6
36	37	2
127	127	2
73	135	1
175	176	1
108	196	2
104	104	2
152	152	3
162	181	1
44	47	1
137	143	1
21	33	1
55	55	2
35	72	1
109	110	1
117	133	1
117	145	1
18	21	1
98	103	2
134	141	1
163	165	2
178	179	1
51	53	1
185	188	1
142	152	1
22	81	1
168	169	4
96	96	1
5	54	3
160	185	1
164	182	1
101	101	3
42	42	1
106	109	2
51	54	1
59	60	1
135	153	1
50	51	1
115	117	1
113	115	1
124	124	1
99	99	2
144	181	1
117	153	1
41	59	2
120	195	2
140	141	1
89	89	1
11	30	1
146	158	1
21	43	2
169	179	1
96	154	1
14	83	1
101	106	1
62	64	1
164	167	1
57	58	1
118	123	1
7	26	1
85	85	1
87	87	1
4	43	1
24	26	1
3	5	1
1	17	1
129	131	1
84	140	1
75	180	2
181	182	1
33	48	1
174	176	1
43	44	1
179	191	1
40	44	1
