99	100	12
59	60	3
19	19	9
21	21	18
61	61	7
79	80	2
31	31	11
15	16	6
82	89	3
30	30	9
47	47	13
67	67	8
37	37	4
28	28	4
6	7	4
88	90	5
79	79	10
22	22	4
93	93	11
21	31	1
7	7	5
40	41	13
99	102	4
108	108	8
120	120	4
82	82	7
39	39	3
21	84	4
130	130	12
73	73	7
131	132	5
13	13	6
72	72	7
62	63	4
35	120	5
87	88	3
26	26	3
29	49	6
27	65	4
102	102	2
85	86	1
42	43	3
46	67	1
14	15	2
71	71	9
1	1	5
24	108	4
10	26	3
47	61	5
33	34	8
65	65	7
7	15	2
24	71	2
28	120	2
63	63	4
87	92	3
60	60	15
92	107	3
74	103	1
21	30	2
78	78	9
17	17	5
59	59	4
84	114	1
95	97	5
25	72	1
3	3	7
86	86	3
33	33	17
72	73	3
34	34	7
84	115	3
5	7	3
107	107	6
47	96	1
40	40	2
78	80	2
33	39	5
4	4	5
80	80	11
25	88	1
15	20	1
69	124	5
46	46	10
99	103	1
47	124	3
110	110	3
68	68	8
83	83	12
49	49	7
6	6	7
121	121	4
22	31	3
11	16	2
70	73	4
62	62	9
31	77	1
76	77	2
69	70	1
69	69	6
77	77	4
114	114	2
81	95	3
74	74	7
68	120	1
132	132	7
22	30	2
29	31	1
21	57	1
90	90	5
82	85	2
45	45	4
23	115	2
15	59	3
79	81	3
8	17	4
41	41	6
35	35	8
26	57	1
126	126	4
94	95	3
0	17	1
76	76	6
0	66	1
32	32	9
15	57	2
48	100	1
33	63	3
40	43	2
28	80	2
106	127	1
120	134	2
68	134	2
88	88	5
2	102	1
29	30	6
77	79	1
19	20	7
68	69	8
47	63	3
85	85	9
66	66	8
34	35	4
39	43	3
21	59	4
133	133	7
2	2	6
11	11	9
45	46	3
104	104	5
107	128	4
57	57	10
20	60	1
62	72	3
81	83	3
88	113	2
8	32	7
82	86	1
95	95	6
127	128	3
80	81	2
44	44	4
47	48	6
29	29	9
4	130	1
3	84	2
103	122	2
106	126	1
94	94	8
62	111	2
94	104	2
29	78	3
126	127	5
4	5	5
64	64	5
75	76	1
58	59	2
89	93	1
4	15	1
117	118	2
10	10	2
119	131	1
94	96	3
5	5	5
26	96	2
131	131	8
91	91	4
129	129	2
24	25	4
16	58	1
7	8	1
60	87	1
38	38	5
35	36	5
28	44	4
61	73	3
79	100	3
91	93	2
15	15	7
45	93	1
56	86	2
56	59	2
92	93	7
81	82	4
24	24	1
75	75	1
113	113	2
98	99	4
108	111	2
46	47	1
38	55	2
84	92	1
36	36	5
130	131	4
48	57	2
69	85	2
90	91	4
93	94	2
3	59	2
115	115	1
77	134	2
6	26	2
38	44	1
55	127	2
89	89	4
91	106	3
105	126	1
57	70	1
18	18	6
125	125	2
116	116	2
36	134	1
70	70	5
22	60	3
123	124	1
22	26	3
90	92	1
118	118	5
120	123	3
23	24	5
109	110	1
64	65	2
9	9	2
5	13	4
11	13	6
72	119	2
103	105	2
116	131	1
2	3	5
3	117	2
0	0	2
12	12	2
86	104	4
22	29	2
77	78	1
127	127	3
81	106	4
21	56	1
17	109	1
55	56	3
14	14	1
42	42	1
96	100	1
48	48	2
25	26	3
60	61	1
30	31	4
119	119	1
72	109	2
118	119	1
69	86	1
85	114	3
30	121	1
69	72	2
10	13	1
65	79	1
57	58	3
65	75	5
27	27	4
29	89	1
130	134	1
111	111	2
33	66	2
61	77	2
8	9	1
41	93	2
107	130	1
58	110	4
31	37	2
111	115	2
86	99	1
112	112	4
9	10	1
46	62	2
99	99	2
106	106	1
86	100	2
7	129	2
44	50	3
20	21	2
6	8	1
69	126	1
93	119	1
50	78	2
90	106	1
41	42	3
10	12	3
103	124	1
11	99	1
49	55	2
38	83	4
76	78	1
83	89	1
111	112	2
98	98	3
86	94	1
37	38	1
83	85	3
5	93	2
85	116	3
62	69	2
63	93	1
82	114	2
121	122	1
62	75	1
39	41	2
61	76	1
61	75	1
63	82	2
109	115	1
29	100	1
58	117	1
82	83	1
43	43	2
15	126	1
31	33	3
24	60	2
96	96	2
73	94	2
46	73	1
117	117	1
16	21	1
11	93	1
4	27	2
103	123	1
43	48	1
122	123	1
112	115	1
92	92	1
10	82	3
29	43	2
40	57	1
123	123	2
38	40	1
45	64	1
97	97	3
11	15	2
8	8	2
6	92	1
27	30	2
48	58	1
23	23	2
55	134	3
47	59	2
37	81	2
102	116	1
74	108	2
46	122	1
22	57	2
11	59	1
33	35	1
44	45	1
27	47	1
97	122	1
76	102	1
108	113	1
0	2	1
9	62	1
59	116	1
87	87	1
81	81	2
88	91	1
75	122	1
16	26	1
105	105	2
128	129	1
36	47	1
66	68	1
73	104	1
26	84	1
96	121	1
