78	80	3
115	115	7
73	111	4
16	33	1
125	125	15
95	95	15
118	118	8
135	137	1
121	122	6
101	101	8
135	135	12
74	75	9
7	72	1
130	130	30
107	108	2
78	78	3
10	11	5
122	122	34
125	129	1
80	109	4
31	32	11
84	84	6
113	113	4
97	98	4
104	104	10
72	72	4
81	81	11
99	104	2
79	127	5
75	75	14
7	8	2
126	127	4
25	25	8
10	118	4
119	120	7
128	134	6
114	114	20
128	128	12
137	137	9
111	111	16
10	10	5
86	86	4
129	129	13
106	106	12
77	77	3
94	94	19
110	112	8
96	96	15
119	119	4
36	99	2
36	36	13
106	107	5
89	89	4
105	105	11
113	114	6
115	116	3
79	79	9
28	28	12
126	126	17
138	138	14
2	3	4
80	80	11
116	116	8
2	2	16
105	108	5
134	134	5
11	66	1
92	93	4
105	106	8
117	119	2
124	124	16
98	115	4
123	134	2
131	131	13
11	11	11
33	33	8
133	133	8
5	8	2
125	126	3
117	117	10
1	2	6
0	1	3
126	130	5
8	8	14
136	136	15
111	112	9
21	30	4
91	91	11
139	139	17
26	26	4
123	123	5
14	14	6
22	22	8
117	127	1
4	5	9
134	135	3
98	98	6
19	20	1
120	121	9
12	12	8
9	9	4
79	139	5
84	86	4
69	73	1
19	19	1
20	21	2
18	28	3
107	107	10
126	129	3
121	121	3
110	111	4
108	111	4
6	8	3
5	6	3
17	17	8
28	29	3
3	3	7
81	106	2
77	78	2
137	138	4
93	93	7
95	96	7
87	109	2
103	103	9
140	140	11
35	35	4
73	73	15
72	73	3
3	5	1
7	13	1
24	24	5
15	15	15
23	23	10
108	108	12
16	16	3
130	131	3
91	95	3
77	131	1
104	106	2
8	11	4
4	4	5
84	85	3
75	79	4
123	124	5
90	90	8
88	88	8
87	87	13
134	137	2
124	125	2
29	29	4
1	7	2
34	34	7
102	112	3
18	18	7
121	123	4
21	21	8
22	38	1
38	38	10
32	32	2
100	109	4
109	109	8
76	104	1
98	99	5
7	30	3
102	102	2
97	116	2
29	30	3
35	130	3
83	83	7
21	27	1
37	37	5
16	129	1
17	18	3
86	111	2
85	85	5
37	140	3
120	120	7
3	4	2
0	0	7
27	29	4
110	110	9
82	85	2
27	27	9
101	103	2
136	137	1
20	37	1
33	140	2
83	84	6
118	139	4
6	10	4
112	112	4
117	118	3
6	7	1
81	82	7
83	113	1
24	120	2
7	7	7
78	79	2
94	98	3
132	138	2
103	115	2
129	130	3
30	94	1
25	26	7
82	122	1
85	116	2
5	5	4
108	109	2
91	92	1
7	10	2
13	19	1
93	94	2
21	31	1
3	32	1
5	17	1
88	89	7
102	108	5
93	129	3
74	74	8
126	128	4
99	138	1
76	77	2
85	86	2
103	116	2
116	117	1
22	23	2
23	24	1
11	12	5
13	13	1
31	31	3
132	132	9
104	108	4
8	12	3
127	127	4
8	9	4
6	6	3
93	99	1
83	85	1
90	91	6
73	78	1
75	80	1
89	96	3
131	132	1
6	125	1
76	76	1
79	109	1
0	86	1
25	120	1
1	1	3
83	105	2
102	117	2
12	14	4
128	129	6
5	13	1
16	17	1
77	79	1
100	100	5
24	119	2
30	30	2
119	123	5
82	82	1
71	72	1
105	120	1
105	107	1
0	2	1
20	20	1
102	103	2
30	31	3
37	38	2
115	133	1
21	38	1
75	134	1
119	139	1
103	104	6
108	112	3
10	12	1
113	118	1
71	71	2
22	25	1
81	127	1
27	28	1
92	92	2
117	124	2
9	10	1
36	37	1
33	34	2
26	27	1
104	139	2
100	101	1
128	135	1
29	31	1
72	111	1
95	129	1
71	78	1
13	14	1
104	118	1
125	128	1
