145	145	5
153	154	4
148	148	2
1	2	2
70	72	2
120	137	1
88	88	8
164	165	1
80	80	4
45	45	4
75	106	1
157	157	7
167	167	5
142	142	3
65	91	3
131	131	1
9	9	2
131	132	1
101	104	7
169	170	6
11	12	3
57	108	1
19	19	6
2	108	3
54	54	4
94	94	5
7	7	3
109	109	5
0	0	7
79	80	5
51	56	1
37	38	5
115	115	3
107	108	4
155	163	1
105	105	2
4	46	5
96	96	10
39	81	3
147	147	3
92	92	3
160	162	2
163	163	3
67	67	6
90	93	4
69	69	14
86	87	3
7	15	2
165	165	4
36	36	12
26	27	3
83	158	2
129	158	2
8	40	1
17	17	3
100	109	1
140	140	5
86	86	1
67	69	1
57	154	2
81	81	3
40	87	4
108	113	5
84	84	5
80	100	2
95	96	2
150	150	4
131	133	3
144	145	4
73	73	5
127	127	4
151	151	5
10	16	3
15	70	3
1	1	11
69	113	3
169	169	5
37	37	4
130	131	3
46	46	2
76	76	2
23	23	1
4	5	3
112	114	3
0	25	2
56	56	6
84	85	2
149	149	1
84	86	1
57	63	4
103	103	2
21	21	10
18	19	3
138	138	2
66	67	3
15	15	2
114	114	2
146	165	2
40	89	3
53	53	5
99	99	6
113	114	2
154	154	2
88	89	2
119	120	1
153	159	4
162	162	3
51	51	7
101	166	2
35	35	2
63	63	9
28	28	2
156	159	2
68	114	5
102	102	1
160	160	3
11	11	5
43	54	2
44	44	6
22	22	7
104	104	10
144	144	6
90	95	1
34	34	8
120	121	4
155	155	4
90	90	4
18	18	3
116	116	10
115	116	1
110	110	6
82	82	3
120	120	5
52	52	2
120	124	1
106	106	6
95	101	2
40	41	4
9	10	5
170	170	2
4	24	2
6	6	8
47	47	4
41	41	7
39	39	4
120	147	7
143	158	4
110	111	1
20	108	1
96	98	7
67	85	2
104	129	2
76	77	5
121	121	5
120	161	2
122	123	1
152	152	3
4	4	4
57	57	6
38	38	4
12	38	3
41	47	2
48	109	7
130	130	8
25	46	1
127	129	3
57	94	1
123	123	3
2	25	1
101	101	2
74	74	1
15	16	2
98	99	1
97	97	7
42	52	2
76	79	2
83	83	2
79	99	3
111	112	2
91	116	2
26	26	2
55	55	4
62	62	2
136	137	2
94	95	1
108	108	2
104	128	1
71	71	3
48	48	5
22	24	1
65	112	3
44	45	2
164	164	2
137	137	2
134	134	3
119	119	8
20	20	8
98	98	1
87	88	3
48	50	1
43	43	6
10	10	6
5	5	2
6	26	1
82	114	1
0	14	2
133	133	4
132	165	2
99	169	2
111	116	1
77	77	4
128	128	8
68	68	2
135	135	3
139	139	1
36	37	1
92	93	3
115	157	2
101	102	2
65	65	1
100	107	4
141	141	2
110	118	1
107	107	2
42	43	3
157	158	3
63	113	3
82	106	2
138	161	1
40	40	3
119	124	2
79	84	1
44	46	2
128	165	1
78	79	1
14	68	2
137	138	4
16	16	3
118	118	2
135	152	1
145	146	6
35	36	3
103	104	2
89	89	1
55	105	2
61	62	2
93	101	2
14	111	2
123	162	1
43	44	4
83	84	3
39	41	2
4	44	1
93	109	1
159	159	1
50	50	1
125	149	1
69	70	3
27	27	1
87	87	3
34	35	2
103	119	2
89	108	1
162	163	2
14	14	2
94	101	1
83	144	2
168	168	2
8	9	1
48	49	1
121	148	2
143	143	1
81	84	3
14	15	2
142	144	1
52	53	1
63	130	1
3	3	1
111	111	2
158	158	1
137	164	2
64	64	1
85	85	2
127	137	2
1	130	1
98	114	2
117	117	1
8	110	1
101	103	1
90	91	2
24	24	1
129	150	2
57	86	1
33	33	1
93	93	1
81	110	1
21	22	2
12	14	1
141	144	2
45	46	2
58	58	1
138	145	1
5	24	1
26	170	1
78	84	1
67	68	2
62	156	1
150	151	1
15	107	1
116	168	1
129	132	1
57	58	1
111	152	1
49	49	1
75	75	1
113	113	1
166	167	1
160	161	1
122	122	1
