28	28	17
62	62	5
37	42	3
75	75	22
3	3	10
73	73	19
51	52	11
16	16	9
29	29	12
39	39	17
67	71	2
11	11	6
41	41	22
66	66	28
4	6	9
19	19	6
69	71	6
38	76	3
67	68	8
45	45	12
8	8	8
55	56	6
72	72	15
35	35	16
47	48	4
3	46	5
49	52	8
36	36	4
68	68	16
64	64	22
63	63	12
42	42	8
9	63	4
56	56	15
50	52	6
53	53	10
61	61	8
54	54	27
13	30	1
50	63	1
78	78	9
37	37	12
70	70	11
58	79	5
54	75	2
64	65	3
65	65	17
66	72	3
14	14	16
37	39	8
57	58	3
26	26	11
79	79	17
7	7	12
58	63	4
49	49	16
59	59	18
8	33	6
71	72	5
25	25	10
75	76	5
55	75	2
17	17	9
67	67	7
5	5	4
27	73	6
40	41	7
10	10	20
50	69	3
69	70	7
68	69	3
16	19	1
4	26	3
80	80	12
13	14	10
4	4	14
13	33	3
30	30	5
10	14	1
34	36	5
32	33	5
52	52	3
11	31	2
41	42	2
47	47	10
69	69	7
13	13	9
11	14	3
13	70	5
51	64	2
38	38	12
53	54	5
37	49	4
45	55	1
2	3	2
55	55	16
19	21	3
18	67	1
21	21	13
1	47	2
33	33	10
61	62	4
5	6	9
29	30	6
29	45	1
46	46	14
27	28	2
8	9	2
66	67	2
76	77	4
2	2	8
60	61	5
35	36	3
4	5	1
27	27	8
1	16	2
74	77	2
15	49	1
54	72	4
57	57	8
15	15	2
7	37	3
49	55	1
10	72	1
48	48	14
10	53	2
61	66	2
32	32	9
31	33	3
51	51	5
54	55	1
0	0	9
53	70	1
25	29	1
74	76	1
6	6	12
71	71	12
10	33	1
31	49	3
47	80	1
4	15	4
77	77	7
1	1	9
50	50	6
71	75	1
70	71	4
31	35	1
73	75	1
40	47	2
50	51	7
12	52	3
62	69	2
18	25	2
74	75	2
79	80	1
15	33	1
8	37	2
22	22	1
21	22	1
1	73	1
52	55	3
26	56	1
12	12	6
31	32	6
1	2	3
34	48	2
77	78	1
72	73	1
16	55	1
58	60	3
26	34	1
32	49	3
28	29	3
58	58	9
14	32	3
63	65	2
31	31	5
46	47	2
63	64	2
9	10	2
1	21	1
57	61	3
4	19	2
9	9	6
31	50	1
38	39	2
66	68	1
76	76	2
60	60	3
68	70	2
40	45	2
6	15	3
17	38	1
40	40	5
58	61	1
32	34	1
5	31	1
2	73	2
48	49	1
54	80	2
30	31	5
5	34	1
28	37	1
19	20	1
3	4	3
10	49	2
6	32	2
62	65	1
11	12	6
49	51	4
29	55	1
33	34	1
74	74	1
2	58	1
10	11	2
58	59	4
45	46	3
30	45	2
78	80	1
49	50	1
45	58	1
5	39	1
44	47	1
64	68	1
13	19	2
14	15	1
34	34	1
10	12	2
8	11	1
3	13	1
18	62	1
13	31	1
48	55	1
28	36	2
7	17	2
11	13	3
37	40	1
8	10	1
3	30	1
49	69	1
18	20	1
52	53	2
64	66	1
73	74	1
31	34	1
72	75	1
34	76	2
9	15	1
3	32	1
14	70	1
44	46	1
11	35	1
35	41	1
34	35	1
6	9	1
6	41	1
