88	88	5
8	88	2
8	77	2
116	116	14
13	91	3
78	81	10
62	62	13
32	33	7
30	30	7
9	91	2
4	15	5
13	84	3
118	118	12
65	65	37
107	107	12
76	76	11
92	92	6
93	94	4
16	16	12
117	119	5
15	15	10
112	113	9
26	26	24
14	15	5
77	78	6
64	68	2
12	12	18
62	67	2
77	77	13
96	96	20
37	37	14
81	81	15
78	79	11
10	14	2
32	32	14
28	46	1
8	75	3
46	46	27
128	132	3
21	22	3
114	134	1
104	104	7
10	10	17
72	81	2
87	88	10
20	27	2
95	96	5
110	110	7
47	47	27
99	99	16
31	48	2
42	43	3
9	87	2
96	97	2
93	129	5
9	34	1
36	36	12
9	9	17
8	8	11
66	66	24
7	42	4
103	106	1
83	83	18
7	83	4
78	78	10
4	14	5
27	58	4
85	85	18
78	80	8
4	96	2
32	35	1
107	108	3
75	75	23
60	64	3
99	100	7
91	91	6
81	86	1
112	112	7
108	108	8
90	91	5
11	26	4
91	132	4
109	109	10
103	103	6
119	119	6
38	38	7
86	86	12
70	85	5
120	120	6
132	132	5
7	7	9
124	124	15
82	82	16
67	68	11
82	96	3
96	98	2
29	59	3
8	63	2
90	90	11
96	107	7
125	130	1
36	44	2
8	9	6
110	114	1
79	79	7
11	11	10
20	20	12
33	34	1
70	70	13
123	124	13
98	98	7
85	94	5
36	38	4
86	87	4
27	82	6
13	13	7
42	84	3
45	45	16
133	134	5
5	5	5
3	3	10
105	106	2
44	44	7
64	70	3
60	70	5
27	28	7
58	58	9
29	30	6
92	98	3
35	36	11
72	72	19
129	129	5
18	18	7
11	14	3
12	14	2
113	113	3
84	84	25
61	61	17
22	24	1
94	95	10
4	4	7
44	45	7
128	128	9
101	102	3
65	66	3
67	67	6
11	12	3
43	44	2
126	127	7
114	114	15
68	69	6
24	82	2
97	97	14
35	35	14
74	74	14
101	101	14
92	93	2
92	128	1
68	68	7
76	77	4
57	58	1
125	125	12
59	70	1
8	79	1
9	13	1
26	75	6
9	86	4
24	24	3
82	83	5
9	10	5
93	93	7
40	44	5
60	60	13
4	124	2
17	17	5
61	76	2
23	24	4
66	75	5
79	81	5
11	60	2
19	20	5
43	98	1
6	6	6
81	82	7
130	131	2
114	116	3
116	134	3
17	20	4
37	38	4
15	16	16
8	78	3
106	106	1
85	86	11
64	64	18
31	62	3
85	87	1
29	29	9
94	94	14
73	78	3
4	5	4
100	101	5
5	124	2
55	55	1
63	63	10
127	127	4
9	11	2
27	61	2
21	21	6
13	93	3
122	122	5
87	92	2
28	28	5
69	69	8
98	100	1
36	39	2
73	74	4
19	61	1
45	46	7
45	89	3
26	92	3
80	81	3
31	32	6
16	18	3
48	49	1
19	19	9
3	95	1
63	64	4
69	70	3
54	55	3
3	13	4
9	89	4
31	31	10
14	74	4
69	71	2
25	27	1
6	21	1
127	128	1
2	2	7
95	95	15
13	14	6
39	40	9
38	39	5
90	92	4
130	130	8
27	27	5
10	13	3
3	101	2
95	98	1
85	98	2
6	8	3
24	60	4
79	126	6
59	63	2
100	100	6
80	82	2
1	1	4
111	113	3
115	116	2
114	115	1
46	47	2
2	101	2
59	95	3
129	132	4
58	97	1
77	84	1
19	21	2
73	73	4
66	67	2
109	112	2
59	59	3
73	75	1
12	13	4
39	66	3
126	126	5
79	82	1
75	76	1
27	74	3
7	35	4
25	47	2
128	131	3
34	34	12
14	45	4
95	97	8
33	33	11
22	37	3
114	117	4
26	27	5
77	122	3
92	123	2
38	41	2
80	80	5
34	35	3
84	94	1
87	87	13
8	10	4
51	56	2
105	105	4
8	87	2
107	109	1
133	133	2
8	36	3
132	133	5
49	49	8
63	88	4
69	82	1
17	45	1
110	113	3
112	130	1
11	84	1
58	59	6
0	1	3
48	48	3
1	2	2
43	43	8
26	74	2
0	0	6
95	131	3
45	70	5
66	73	1
77	79	1
12	84	2
88	92	2
8	29	1
46	62	2
8	12	3
108	109	5
5	22	1
6	85	1
22	25	2
118	120	2
22	22	7
11	93	3
34	88	1
60	69	1
117	117	6
28	59	4
13	71	1
42	83	3
71	72	3
3	4	6
84	85	4
66	99	2
59	60	2
120	121	1
118	119	9
20	21	2
120	122	4
9	80	1
7	59	1
88	93	4
3	121	1
20	84	1
41	42	2
77	81	1
115	117	2
59	61	1
10	12	1
57	57	3
9	75	1
66	76	1
24	36	1
34	75	1
11	72	2
19	36	1
56	56	2
113	115	2
12	75	1
48	93	1
131	131	3
28	91	1
73	77	1
29	60	1
125	128	3
45	62	1
65	96	2
84	98	1
82	84	1
94	127	3
125	126	1
8	81	1
24	101	1
68	70	1
40	40	5
95	125	1
45	48	2
70	71	1
16	81	1
89	91	3
112	129	1
123	123	6
79	108	3
31	47	1
33	36	1
61	62	3
11	123	1
38	81	1
71	71	2
125	127	2
28	29	4
40	41	1
97	98	1
60	83	1
74	75	3
23	74	1
10	83	2
10	35	1
102	103	1
36	37	1
103	105	1
4	78	1
30	71	1
6	7	1
23	25	3
73	76	1
44	48	1
28	80	1
47	49	1
8	76	1
20	33	2
41	43	1
98	101	1
62	65	1
113	129	1
86	88	1
25	26	1
14	14	2
110	111	2
110	112	2
78	121	1
31	49	1
116	117	1
20	23	1
80	84	1
77	82	1
113	114	1
30	47	1
74	76	1
4	39	1
11	48	1
27	95	1
102	102	1
61	73	1
60	94	1
12	47	1
76	120	1
66	83	1
55	56	1
10	11	1
36	76	1
112	132	1
94	129	1
