26	38	1
64	64	13
65	66	10
25	25	4
83	94	1
73	73	20
74	74	12
78	92	5
53	53	12
69	69	7
92	92	19
36	38	1
96	98	5
88	88	7
79	79	5
95	95	6
37	38	3
83	96	3
20	22	7
97	97	14
79	80	2
54	54	4
27	27	13
72	77	4
93	94	7
96	97	1
39	61	4
36	39	1
60	61	5
68	69	7
68	68	7
86	86	8
91	91	5
67	101	1
33	62	1
56	56	11
61	61	16
29	38	7
20	83	2
58	58	6
102	102	4
84	91	1
62	62	13
84	84	10
67	67	16
72	72	6
81	96	1
40	56	8
89	89	14
75	75	7
57	57	6
71	73	3
29	29	6
41	41	14
91	94	4
49	49	11
97	98	5
33	33	10
86	88	2
99	100	5
86	87	7
81	81	4
70	70	8
45	51	4
82	82	4
35	35	6
76	101	2
71	71	3
83	83	5
80	80	9
88	94	5
55	55	13
87	87	2
63	63	5
93	93	8
79	81	4
96	96	5
61	62	1
94	94	8
69	70	2
87	88	4
80	99	3
42	99	1
62	74	7
98	98	1
66	66	3
77	77	10
81	82	2
75	78	2
50	50	4
74	77	2
30	30	7
51	51	3
20	27	3
46	47	3
47	48	6
81	98	4
48	48	12
72	78	1
71	72	9
28	28	1
61	92	4
76	99	3
43	43	3
60	60	8
39	39	7
101	101	11
64	75	3
38	38	11
43	44	1
47	47	2
80	81	4
81	85	5
49	75	1
54	57	1
44	74	1
25	26	3
46	46	5
34	35	3
45	48	1
35	36	3
59	59	5
76	76	7
42	42	4
57	74	2
31	57	3
41	42	4
32	32	4
90	91	1
45	45	1
52	52	6
80	82	2
100	100	3
47	52	1
44	44	1
65	65	8
23	23	3
91	92	3
38	47	2
87	89	2
41	56	2
74	79	1
99	99	6
95	97	3
61	79	1
48	49	1
24	25	2
39	59	1
49	51	1
78	80	1
68	72	2
58	59	3
61	93	1
50	57	2
75	76	1
56	57	3
67	69	1
26	27	3
46	48	2
74	75	1
40	48	1
77	78	1
59	60	1
63	68	2
70	79	1
76	77	1
81	91	3
26	26	4
71	76	3
100	101	2
22	22	2
49	50	1
40	40	5
85	99	1
65	76	2
57	58	1
41	101	2
66	71	1
74	90	2
89	100	1
80	98	1
28	29	1
85	85	1
84	94	3
78	78	1
45	46	2
27	38	1
49	55	1
43	64	1
51	52	4
63	89	1
82	83	1
50	51	1
45	47	1
67	68	1
64	90	1
92	95	1
52	55	2
55	56	1
32	34	1
46	49	2
95	96	1
63	90	3
36	37	1
69	102	1
66	67	1
40	49	1
39	46	1
44	64	1
75	90	2
22	23	1
81	101	1
70	71	1
52	96	1
23	51	1
74	88	1
42	43	1
26	86	1
