28	28	11
153	153	15
36	37	2
55	55	6
14	15	6
9	9	11
108	108	7
36	36	17
145	145	11
51	51	12
160	160	19
49	65	5
90	151	3
65	65	14
170	170	4
80	81	5
92	92	11
162	162	13
153	154	4
6	6	15
50	52	3
20	21	7
42	43	5
19	20	1
64	68	9
101	101	10
94	94	6
87	97	1
55	58	1
79	80	7
63	63	7
44	44	13
169	169	8
156	156	9
114	115	7
53	53	23
7	8	7
52	52	5
101	105	1
142	143	3
69	69	9
167	168	5
50	71	5
3	3	10
120	121	11
105	113	2
70	70	12
149	149	12
43	43	18
117	117	8
80	83	6
51	62	1
15	16	11
57	57	18
144	144	9
133	134	10
143	143	12
50	53	1
27	27	30
106	107	8
110	110	16
83	85	6
53	55	1
46	70	4
111	111	13
134	134	3
54	56	2
69	72	3
133	135	1
147	147	10
23	24	8
79	79	5
90	91	6
63	73	1
157	157	3
155	155	9
16	17	3
121	122	3
16	16	10
34	34	15
139	139	9
0	1	5
70	79	6
168	170	3
141	142	8
151	154	3
33	33	6
104	104	23
37	37	7
71	72	2
46	46	14
155	157	4
109	109	15
105	149	3
71	71	7
25	25	25
72	72	15
10	10	12
3	112	7
5	23	1
5	5	11
103	126	4
22	23	6
56	57	5
7	7	14
99	99	15
2	2	11
150	150	7
13	13	8
98	98	16
117	120	9
96	96	16
137	137	6
87	87	9
15	41	2
98	99	3
112	112	25
128	128	3
154	154	11
4	4	11
55	56	8
89	89	12
90	90	17
122	122	6
139	140	11
86	88	4
53	56	3
159	159	5
165	165	5
8	9	2
113	113	5
84	153	3
116	116	11
166	166	6
106	106	11
158	158	11
97	97	8
47	47	18
90	97	4
97	98	7
18	19	16
105	105	14
110	112	2
91	92	8
23	23	17
8	10	5
15	17	7
135	135	11
19	19	14
20	22	9
85	88	2
109	129	1
103	144	1
127	127	6
25	26	2
49	50	7
57	65	3
12	122	7
22	22	9
151	151	5
66	69	2
1	1	17
51	63	3
82	132	2
110	111	6
169	170	3
116	117	3
78	78	9
118	125	1
75	75	9
82	83	6
77	78	4
144	156	3
43	44	3
76	94	4
37	38	6
118	118	10
124	124	11
86	89	4
99	100	12
53	57	1
121	121	8
161	162	7
107	107	5
119	119	14
80	82	9
133	133	16
124	156	3
73	73	15
9	10	7
15	71	3
148	148	5
151	152	4
46	54	2
49	49	13
83	94	2
13	14	3
84	84	5
1	2	12
117	118	6
100	100	16
116	162	3
69	70	9
115	115	6
141	149	3
146	148	8
51	52	2
87	89	5
23	25	2
74	74	13
48	49	4
15	82	1
167	167	8
26	26	11
76	83	2
39	51	3
91	91	5
57	62	2
92	93	10
146	146	11
91	94	7
163	163	13
50	51	3
5	6	7
12	12	11
4	11	1
105	106	2
19	25	6
70	71	5
141	141	4
95	101	1
20	20	12
126	127	6
4	79	3
102	102	10
13	15	3
86	87	7
104	125	3
67	69	7
163	164	8
72	87	5
19	146	3
76	132	2
20	34	1
114	124	1
39	39	7
26	27	8
138	138	7
63	72	1
76	76	11
64	65	1
146	147	4
152	154	2
111	112	5
44	46	6
70	74	1
85	85	6
97	99	3
68	68	3
115	116	1
103	104	5
75	130	4
54	54	8
45	45	12
56	56	4
48	48	12
58	58	2
33	34	4
78	83	1
138	157	2
109	110	5
144	163	1
74	75	4
47	48	4
123	124	5
10	11	7
134	135	8
117	119	1
45	48	3
21	21	4
8	8	10
14	14	13
145	164	1
106	126	3
137	138	9
125	126	6
125	125	9
17	20	2
102	121	4
102	103	2
35	35	13
94	95	9
81	81	6
68	69	2
135	136	6
22	24	3
18	18	14
15	15	15
101	102	3
7	23	2
14	71	2
62	62	3
161	165	6
131	132	3
45	46	4
88	89	3
73	74	5
80	80	9
83	84	3
148	149	5
89	91	2
113	121	3
67	68	2
105	119	4
159	160	4
27	28	4
64	69	1
136	136	6
3	25	2
40	42	2
160	161	1
140	141	5
39	40	11
95	133	2
102	131	2
106	130	1
124	127	3
131	131	16
64	66	1
123	123	8
149	151	4
90	98	3
40	40	9
10	12	2
24	24	3
94	96	3
81	84	2
92	157	4
91	103	3
66	66	1
71	73	3
129	129	8
86	86	7
106	136	1
85	93	1
92	159	1
0	0	10
112	122	4
64	64	10
158	159	1
11	11	12
140	142	3
63	69	5
1	3	5
82	82	4
38	47	2
142	163	1
156	157	5
120	120	5
129	130	6
112	123	1
88	93	3
166	168	1
144	145	3
0	2	7
57	76	2
4	7	2
108	110	4
165	169	2
67	67	1
91	102	1
62	63	5
41	42	9
143	145	1
73	75	8
159	161	1
9	18	1
112	114	1
38	51	1
91	95	1
81	82	3
95	95	5
10	122	3
11	12	1
47	64	2
118	130	1
106	129	2
2	3	1
66	79	2
67	71	10
119	120	5
17	18	2
74	130	1
113	114	4
119	121	2
88	98	3
160	163	1
113	125	2
167	169	1
42	42	6
156	163	1
102	160	2
140	140	3
114	114	2
96	98	7
18	22	2
21	23	3
92	131	2
17	17	5
6	24	4
142	142	4
106	158	2
82	85	1
88	88	7
18	35	2
41	41	9
119	125	2
152	152	6
38	38	9
104	120	3
10	34	3
38	45	1
112	127	2
69	73	2
142	146	2
6	7	3
37	71	1
125	130	1
126	126	4
84	86	8
63	64	1
78	79	5
106	143	2
107	108	2
154	155	2
79	87	2
38	39	6
77	77	5
38	52	1
162	164	3
38	50	1
66	67	3
150	151	5
87	98	2
15	19	1
4	6	4
96	97	5
72	73	1
50	50	5
21	22	2
43	49	2
34	35	1
82	84	4
51	54	1
3	4	3
89	99	1
16	35	2
84	154	1
44	45	3
154	156	1
112	113	4
102	104	1
142	149	1
4	136	1
93	94	2
155	159	2
139	142	2
92	156	1
90	95	2
123	129	1
104	105	1
17	25	1
158	161	1
153	155	1
54	55	6
64	70	3
67	79	1
70	72	1
87	154	1
73	96	1
142	144	1
11	122	1
51	116	1
46	47	2
69	78	2
119	122	2
117	163	1
139	141	1
84	87	1
35	36	1
53	54	3
157	158	1
118	123	2
65	66	1
70	78	1
168	168	3
36	39	1
9	19	3
91	93	2
42	56	2
83	86	1
101	104	1
51	64	2
83	83	2
145	148	2
93	95	1
109	111	1
95	96	3
108	109	1
86	96	2
47	54	2
91	114	1
125	127	1
47	49	4
12	34	1
75	76	1
145	163	1
73	76	1
149	160	2
37	42	1
37	99	2
49	51	2
83	92	1
82	95	2
62	70	3
164	165	2
100	106	1
47	65	1
127	130	2
93	93	1
7	76	2
19	38	1
161	163	1
91	96	1
106	149	2
164	164	1
46	84	1
9	12	2
111	113	1
4	24	2
2	17	1
146	159	1
114	126	1
17	35	1
168	169	1
12	111	1
19	21	2
101	124	1
78	82	1
128	129	2
78	158	1
73	87	1
167	170	1
50	66	1
36	38	1
38	40	1
115	117	1
108	159	1
100	140	1
103	103	1
54	58	1
75	127	1
