75	82	4
98	98	16
79	80	1
69	69	16
71	78	5
66	67	5
85	85	8
78	78	6
100	113	3
69	76	2
66	102	2
26	71	2
110	110	17
24	24	7
102	111	3
29	51	3
28	28	13
91	91	8
28	29	3
38	38	11
19	27	1
34	34	5
82	84	10
30	31	4
44	44	7
30	30	11
41	41	15
82	94	2
84	92	4
100	109	2
97	97	22
20	21	4
62	63	3
57	59	8
42	51	1
105	108	2
77	77	7
109	109	28
55	60	2
65	70	3
43	43	6
103	103	4
113	113	17
20	100	5
75	75	4
106	106	21
88	88	11
83	83	8
53	54	3
71	71	5
86	87	5
74	74	10
47	47	14
99	111	3
22	22	10
64	64	11
32	34	2
57	57	6
58	59	6
84	85	6
70	70	4
49	94	1
81	81	4
94	94	10
103	104	3
35	36	10
90	91	6
23	26	4
46	46	8
21	71	5
86	86	6
97	99	4
40	40	15
36	36	7
95	96	7
80	80	14
19	34	2
43	44	4
84	84	8
90	90	6
46	48	2
47	48	8
111	112	8
41	42	3
80	81	5
73	73	3
37	40	3
61	61	8
111	111	18
83	103	2
76	77	4
67	99	1
30	52	3
92	92	6
112	112	11
25	25	10
107	109	7
108	108	11
21	21	15
67	90	2
102	102	6
82	83	3
73	74	4
71	73	3
62	62	14
97	98	11
27	29	4
20	22	1
103	106	3
98	100	4
39	41	3
105	105	19
55	55	5
59	59	11
100	100	16
29	29	9
76	76	11
20	26	1
27	27	7
36	37	7
109	110	10
100	111	4
49	49	7
81	96	1
96	96	5
83	84	14
72	87	4
29	30	7
51	51	11
93	93	14
83	92	3
88	90	10
80	91	2
54	55	3
44	83	4
31	31	5
99	99	9
106	107	10
87	89	3
68	68	4
101	102	6
31	32	5
105	106	5
89	89	4
100	101	3
62	67	4
48	74	2
59	90	1
70	71	1
45	45	5
101	108	2
101	101	3
113	114	5
19	28	4
77	111	5
75	99	1
68	69	8
72	72	11
77	105	2
55	56	2
70	72	5
33	33	10
26	32	1
64	69	1
79	79	9
71	110	1
24	70	1
110	111	6
37	55	6
52	52	8
39	39	6
66	103	6
85	95	2
23	24	4
58	58	8
82	82	7
74	83	2
26	29	3
60	60	2
65	65	4
59	60	3
86	88	4
72	76	4
66	86	2
71	72	4
32	32	5
23	33	1
54	54	8
103	107	2
24	26	2
42	42	5
56	70	1
104	105	1
95	108	2
83	85	5
82	93	1
59	64	2
87	88	5
50	50	5
76	78	7
56	57	3
105	107	3
104	104	9
96	97	3
104	107	3
34	35	4
78	106	2
19	20	2
61	62	7
95	95	9
64	66	2
49	50	4
111	113	6
67	69	2
63	63	3
47	49	1
66	66	3
28	31	1
53	58	1
33	52	1
63	66	4
74	91	1
87	87	2
74	75	4
59	80	3
110	113	4
20	20	5
89	90	3
53	55	1
95	97	1
29	33	1
63	64	4
48	49	2
78	79	5
26	26	3
23	23	2
58	71	2
53	53	9
88	89	4
63	65	1
67	67	4
29	53	5
98	99	3
19	19	2
112	114	2
72	75	3
84	86	1
105	110	2
92	93	1
77	78	2
93	94	4
107	107	3
68	81	4
24	25	2
34	36	3
31	34	1
48	48	3
39	40	2
56	56	3
60	68	3
43	51	1
55	99	1
23	72	2
61	75	3
112	113	1
69	91	1
37	51	1
67	68	2
58	70	5
60	62	1
56	58	1
98	101	1
59	70	1
40	41	3
50	51	1
63	99	1
62	70	3
60	75	1
59	69	2
57	73	1
108	109	1
37	37	1
46	51	3
27	28	2
42	45	1
32	33	2
58	61	1
114	114	2
69	71	1
83	93	2
22	60	1
101	109	2
98	108	1
60	61	1
70	88	2
35	35	1
37	41	2
99	109	1
38	39	1
21	23	1
29	31	1
56	60	1
29	37	2
69	70	1
77	88	1
85	86	2
102	103	1
65	66	1
46	47	1
71	87	1
107	108	1
