74	74	4
65	65	9
51	67	3
75	76	11
31	36	4
21	21	16
48	48	7
51	51	10
67	71	1
20	20	13
23	23	8
71	71	18
48	52	2
9	9	10
1	1	6
46	46	9
7	7	15
13	13	9
29	29	7
3	21	3
28	28	4
22	22	5
5	5	6
38	38	15
50	50	17
12	12	10
21	22	8
26	26	8
34	34	5
53	62	3
74	75	1
49	74	2
60	60	17
40	40	4
8	8	18
31	31	9
57	57	4
75	75	6
64	64	5
42	42	17
35	69	2
68	68	2
29	46	2
60	61	3
41	42	6
62	63	6
47	47	5
72	72	15
67	68	4
44	44	8
49	49	4
0	0	7
31	47	2
65	66	2
28	39	3
24	27	5
11	11	16
39	69	2
67	69	2
23	51	1
55	56	4
52	54	2
62	72	2
19	19	6
55	55	13
54	54	7
59	59	3
68	69	4
36	54	7
45	46	2
26	27	5
69	69	3
0	7	1
10	10	5
33	34	8
73	73	3
72	73	3
69	70	3
32	56	1
14	14	1
4	4	4
62	62	9
40	75	1
51	57	2
30	70	1
43	43	18
36	48	8
51	55	5
12	13	4
65	71	4
38	39	3
37	38	7
32	32	8
49	50	5
66	67	3
58	74	2
33	44	1
37	44	5
58	58	17
61	62	2
27	69	1
33	47	2
65	67	2
56	56	11
37	37	11
46	49	5
3	3	4
1	2	6
77	77	7
69	73	1
7	9	2
52	52	4
36	37	3
5	6	3
24	51	2
39	53	2
36	74	1
33	33	4
43	44	4
9	13	5
29	30	4
45	45	3
2	2	5
53	69	1
64	71	2
24	24	8
51	53	4
30	32	4
40	43	1
3	12	2
74	76	1
50	73	2
51	56	1
31	32	2
67	67	1
8	13	3
35	54	4
35	52	2
48	58	1
62	64	1
13	47	2
37	72	1
44	47	4
53	54	2
76	76	1
35	42	2
27	27	2
23	52	2
54	58	1
48	75	1
61	64	3
5	13	1
10	11	2
46	48	2
5	22	2
32	54	1
29	69	1
59	60	2
63	66	1
70	71	5
43	47	4
32	33	4
44	77	1
22	24	2
61	61	4
68	73	3
31	45	2
49	58	2
32	36	3
2	9	3
0	1	1
39	44	1
4	5	1
63	65	6
22	46	2
36	50	2
49	65	2
24	70	2
28	42	2
37	39	2
13	46	2
35	50	2
27	64	3
0	4	3
7	8	2
48	49	1
11	14	1
6	34	1
45	77	1
25	26	1
70	70	1
37	74	1
39	74	4
8	9	1
53	53	4
6	45	3
13	41	1
63	63	1
46	72	1
27	28	1
12	21	1
39	45	2
50	51	1
73	75	1
25	25	2
59	72	3
27	66	1
54	55	1
27	53	1
40	47	1
36	36	3
10	13	2
1	4	2
35	35	3
49	61	1
8	10	1
11	20	1
30	31	1
39	57	1
20	48	1
30	40	1
19	20	1
49	66	1
49	63	1
39	39	1
38	49	1
40	45	1
8	14	1
4	39	1
37	70	1
51	61	2
28	30	1
64	65	1
19	23	2
56	73	1
29	71	1
66	68	1
6	7	1
5	47	1
0	20	1
6	8	1
15	22	1
33	66	1
9	11	1
26	66	1
65	72	1
