129	130	2
124	126	6
192	192	8
75	75	7
197	198	4
39	39	4
70	73	1
223	223	7
105	105	9
101	101	10
52	52	10
48	49	4
83	83	10
175	175	4
233	235	4
202	203	3
189	189	6
111	111	5
191	192	5
33	34	2
223	224	3
108	108	5
102	102	13
112	113	3
18	19	6
128	128	9
123	133	2
18	18	4
150	150	4
139	139	7
100	123	4
117	117	5
136	137	2
178	179	8
163	163	4
100	101	2
177	177	22
206	206	7
12	12	5
227	227	6
2	4	2
65	66	8
26	87	4
68	68	6
0	0	15
20	20	4
170	171	4
82	95	1
156	157	6
219	220	6
208	208	5
8	21	1
54	54	12
76	76	21
184	186	1
23	23	12
56	63	2
113	113	8
205	205	1
42	42	11
10	10	9
75	88	5
138	138	4
20	25	1
194	194	7
145	145	12
140	141	7
167	167	5
133	134	1
126	126	3
46	46	8
198	198	4
217	228	2
225	225	7
81	81	5
40	40	6
78	78	2
118	119	9
180	180	4
85	85	12
197	197	3
115	115	2
72	73	3
211	212	8
174	174	6
60	60	2
211	221	1
26	26	10
16	16	3
2	2	12
122	122	4
214	214	7
182	190	4
125	126	7
145	146	5
220	221	4
63	65	4
173	174	2
11	11	6
104	105	5
225	227	4
153	154	1
1	47	3
134	175	3
7	7	5
2	47	10
181	181	7
105	106	4
123	124	3
52	53	5
213	213	11
207	208	6
235	235	7
202	220	2
201	202	3
32	32	7
108	114	2
199	200	3
84	84	6
96	96	6
1	1	8
69	157	2
100	100	2
99	100	9
15	16	3
188	188	7
0	2	1
6	6	5
169	191	3
25	25	11
183	183	6
159	159	9
121	121	8
193	194	2
47	47	19
148	148	5
212	212	1
63	74	1
66	66	2
22	55	3
218	218	7
98	98	9
10	11	1
59	76	1
27	27	13
40	58	1
42	43	2
102	104	4
8	8	8
15	15	7
37	227	2
127	127	5
34	35	7
191	191	2
82	82	7
154	154	3
56	125	7
123	123	8
204	206	2
64	85	3
74	74	6
10	243	1
186	186	2
120	120	5
182	182	7
232	232	2
21	24	1
24	26	5
227	228	1
237	237	7
1	2	1
154	155	2
209	209	10
203	203	4
176	176	2
44	44	1
64	64	12
140	140	2
53	203	1
127	134	1
21	28	3
187	197	4
178	178	6
79	79	3
2	12	1
19	19	12
78	180	2
172	181	1
182	183	4
58	58	12
83	95	2
36	36	11
186	187	4
24	241	4
150	226	1
181	193	2
219	219	2
59	59	7
38	43	3
35	36	3
137	138	1
99	99	5
217	217	3
50	50	7
1	3	1
130	130	4
24	24	11
73	74	2
46	47	3
5	22	1
69	161	2
141	142	5
45	45	6
61	148	3
221	222	4
202	223	3
160	161	4
136	138	2
12	14	2
112	112	4
53	53	3
160	160	3
207	207	8
161	161	5
201	201	2
154	183	1
24	233	1
214	231	4
67	67	5
116	116	4
226	227	7
238	238	6
69	69	6
86	86	4
143	147	1
209	210	1
138	170	6
135	137	1
28	28	8
165	166	3
21	22	2
144	144	5
120	154	4
229	229	1
69	71	1
184	184	11
194	196	2
147	148	1
55	55	9
215	217	2
210	210	6
148	149	6
156	158	1
137	137	6
240	240	3
231	232	2
99	123	1
131	131	2
233	233	2
56	58	1
80	81	4
239	239	6
57	57	5
190	190	8
121	122	1
147	147	2
31	34	6
198	199	1
91	105	2
191	227	3
132	133	1
43	43	10
19	23	2
146	146	2
63	81	2
42	56	2
153	153	4
134	135	2
169	169	5
48	48	2
164	164	9
53	55	1
29	29	10
179	180	4
117	120	3
4	8	2
157	158	6
142	142	2
31	35	3
58	59	3
187	188	6
25	26	3
203	204	3
192	194	3
70	70	3
149	149	3
150	151	9
216	216	8
110	123	1
120	128	2
1	12	4
57	59	3
29	30	2
109	109	2
75	106	3
56	59	4
207	211	2
144	147	3
63	63	6
97	98	1
5	6	3
65	65	9
69	84	3
115	127	1
205	206	3
31	31	3
118	134	1
124	124	2
209	211	6
18	29	2
0	1	4
195	195	3
17	17	1
220	220	5
103	103	4
88	88	4
179	213	2
234	236	2
58	131	2
179	179	4
146	147	1
200	200	2
237	238	1
166	166	2
113	114	4
165	165	2
120	121	1
96	97	3
74	87	2
41	42	2
10	231	1
45	122	1
51	53	1
185	201	1
192	193	2
140	157	2
170	170	3
23	24	4
91	91	3
59	60	1
135	136	4
172	172	3
148	150	2
63	66	3
142	143	1
106	106	7
45	46	5
47	48	1
200	216	3
41	41	3
154	156	2
54	55	5
202	202	6
151	165	2
72	72	5
50	51	1
110	128	1
228	228	9
3	20	1
81	83	2
187	189	3
234	235	2
230	232	3
173	173	4
229	230	4
119	189	3
27	28	1
76	79	2
79	80	4
102	103	1
199	199	1
0	36	5
22	22	1
61	61	1
169	174	1
187	211	2
180	211	2
218	219	1
97	97	2
159	160	1
119	120	3
136	136	2
169	175	1
58	67	2
127	128	2
96	98	1
211	211	1
152	152	3
162	164	1
196	196	1
206	229	2
62	66	1
74	75	5
21	21	2
107	129	1
241	241	1
2	33	1
37	37	7
185	187	1
56	56	7
121	133	1
67	151	1
156	156	3
154	163	1
73	73	4
24	25	1
128	146	2
188	189	3
44	45	1
104	104	3
195	198	1
215	216	1
9	231	2
155	164	4
175	176	1
84	85	3
177	178	1
71	71	5
139	140	2
232	233	3
230	230	1
167	168	3
134	134	2
80	80	3
103	106	1
62	62	6
174	175	1
4	5	1
159	225	1
235	236	1
219	223	2
109	111	1
91	95	1
118	118	1
50	53	2
22	24	1
158	158	1
162	162	1
198	216	3
95	95	2
239	240	1
197	199	1
4	36	1
40	41	2
180	182	1
107	117	2
221	221	2
148	206	1
167	177	1
202	217	1
9	37	1
26	27	2
76	103	1
118	172	1
66	68	1
212	213	3
37	74	2
224	225	3
33	33	2
117	168	1
71	72	1
144	145	3
66	150	1
59	66	1
11	231	2
27	235	1
35	35	2
205	230	1
184	185	2
60	69	1
215	215	3
51	52	3
123	125	1
192	197	2
166	171	1
228	229	1
114	114	1
95	98	1
5	5	1
3	42	2
3	3	3
23	236	1
187	187	2
58	132	1
234	234	1
48	51	1
220	223	1
95	96	1
117	118	2
69	70	1
16	17	1
77	78	2
43	72	1
79	83	1
39	71	1
236	238	1
138	141	1
30	30	1
14	227	1
67	73	1
20	28	2
151	151	2
61	62	1
125	125	2
180	187	1
72	74	1
117	126	1
0	12	1
108	111	1
65	74	1
236	236	1
6	7	1
164	165	2
226	226	1
178	180	1
64	121	1
72	96	2
83	84	2
31	32	1
185	185	1
20	21	1
242	242	1
205	207	1
214	215	1
171	171	1
221	223	1
39	42	1
26	97	1
43	44	1
134	156	1
38	38	2
155	155	1
3	6	2
12	13	1
9	232	1
154	185	1
195	196	1
45	70	1
71	73	1
80	124	1
46	137	1
5	7	1
180	181	1
141	141	1
151	161	1
166	167	1
224	224	1
38	42	1
199	222	1
