9	9	10
2	2	13
67	67	17
61	61	8
62	74	3
31	31	6
60	60	11
85	86	6
76	76	10
6	6	13
57	57	16
71	72	2
58	58	9
23	23	12
78	78	6
51	51	8
19	19	17
26	27	2
89	89	6
19	20	4
14	14	6
26	26	10
52	52	19
20	26	1
77	77	3
10	10	9
30	30	13
19	22	2
82	82	13
25	25	7
51	52	4
65	65	4
63	64	9
79	79	6
11	11	12
48	48	13
47	48	7
46	54	6
54	56	7
69	69	11
27	27	11
53	74	1
64	66	3
50	50	21
28	71	4
75	75	10
11	12	4
66	66	9
12	12	9
5	5	7
50	78	2
68	69	8
87	87	8
7	7	11
46	46	3
1	1	11
4	4	9
8	8	8
59	59	2
79	82	1
23	24	2
86	87	4
60	62	4
81	81	18
56	56	15
21	21	5
58	86	3
46	51	1
67	69	2
17	17	14
52	55	4
88	88	11
21	26	2
84	85	3
28	73	1
86	86	22
70	70	9
57	84	4
49	49	18
72	73	8
62	75	8
67	78	2
76	79	3
60	64	4
73	73	12
48	52	1
25	26	6
53	55	2
13	13	15
82	83	1
74	75	4
3	3	16
75	80	3
12	14	1
50	52	2
20	22	4
74	74	3
62	62	6
34	34	11
33	64	2
58	61	4
28	28	9
72	75	2
19	21	3
7	71	1
18	18	5
10	19	3
29	29	3
85	85	5
2	17	3
31	61	3
84	84	5
6	18	1
20	21	1
17	26	5
56	81	2
20	20	4
56	79	1
52	64	3
6	26	1
24	24	10
71	71	9
24	25	3
66	67	2
48	50	3
78	79	6
9	10	3
15	15	11
22	22	11
17	20	1
19	24	1
12	19	1
59	61	5
53	53	7
62	77	4
66	79	4
47	47	6
0	0	3
54	54	8
24	27	2
48	49	2
9	26	1
4	5	1
53	58	2
68	68	10
63	65	1
52	65	2
49	50	2
34	35	2
70	72	4
64	77	3
14	16	2
50	51	1
9	60	3
50	66	2
76	77	11
72	72	6
9	68	1
17	31	1
63	63	4
55	55	2
10	14	2
12	13	1
9	50	2
17	23	1
61	62	3
27	28	3
83	84	4
4	19	1
14	58	1
30	31	1
13	14	2
62	78	3
51	65	1
0	1	2
55	82	1
62	64	4
16	16	5
75	76	3
80	81	2
25	27	2
66	71	1
52	54	1
6	31	3
80	80	9
64	72	1
4	69	3
11	19	3
76	78	4
79	80	2
61	77	2
22	25	1
22	23	4
61	75	2
7	76	1
4	67	1
54	64	1
65	82	2
66	72	2
54	55	9
17	18	2
60	61	3
77	79	1
55	79	3
50	64	5
58	59	2
46	47	2
18	28	1
76	81	1
11	15	1
67	68	1
79	81	2
8	10	2
83	83	2
58	62	1
49	51	4
60	63	3
51	55	1
88	89	1
57	58	4
73	80	1
51	56	1
26	28	1
50	65	1
66	81	1
52	78	1
17	21	1
8	9	2
54	60	1
3	17	4
21	22	1
73	81	1
12	54	2
32	32	1
31	53	1
1	47	2
31	82	1
59	60	2
55	76	1
49	65	1
50	53	1
57	85	1
14	53	4
20	31	1
15	16	1
58	71	1
8	24	1
8	26	1
51	64	2
54	76	1
64	64	1
10	12	1
81	82	1
51	54	1
8	25	1
56	78	1
