100	106	4
106	106	14
62	62	12
84	85	4
70	70	6
83	83	5
59	60	3
110	110	14
99	99	10
37	46	2
57	79	3
113	113	13
40	46	3
47	47	2
77	101	1
61	61	9
93	94	4
88	89	11
99	100	3
51	51	7
75	75	10
67	67	2
24	24	4
46	46	8
28	29	7
20	20	3
82	82	10
63	64	11
85	86	8
88	88	12
58	58	4
108	108	4
40	40	2
79	81	2
102	103	3
103	103	14
65	65	10
107	107	1
57	57	2
109	109	17
80	80	16
54	54	4
26	27	7
90	90	7
87	87	5
29	29	3
38	38	4
69	69	1
85	85	5
64	64	4
41	41	1
62	63	3
92	92	9
91	92	7
60	62	6
26	26	3
89	89	5
78	78	7
22	22	4
73	73	8
96	96	3
41	42	1
95	95	2
21	21	7
58	76	2
25	25	3
105	106	3
50	50	2
112	112	9
49	49	12
76	76	3
34	34	5
43	43	3
71	71	5
52	52	5
84	84	4
57	94	2
61	68	2
79	79	8
76	77	6
66	67	1
77	77	8
94	94	7
80	81	2
53	56	2
62	64	2
90	91	5
63	69	5
111	114	2
89	90	4
72	73	2
72	72	6
36	36	9
23	23	3
105	105	5
92	93	4
81	81	10
97	97	3
68	69	5
102	104	1
63	104	5
56	56	8
41	95	2
42	42	5
100	109	3
108	109	1
82	83	4
31	52	1
31	32	2
103	106	2
42	89	6
64	67	5
28	50	1
31	31	6
37	37	10
65	66	5
55	55	4
108	111	3
45	45	8
25	27	1
91	91	8
36	37	2
39	39	2
20	73	1
28	28	1
77	79	1
107	108	4
96	108	2
103	104	1
65	67	3
102	109	2
44	44	2
75	109	2
109	110	3
30	30	1
53	59	1
81	108	1
63	66	2
24	25	1
33	35	3
71	72	2
37	38	1
30	110	2
73	74	3
78	79	3
63	63	1
42	43	3
26	34	1
86	88	1
56	58	2
60	60	2
102	102	2
87	98	1
74	74	6
76	102	1
21	99	1
89	91	5
57	77	1
98	114	2
55	59	2
66	71	3
78	101	3
86	99	2
63	65	1
59	59	2
40	70	1
43	44	1
33	33	3
32	32	4
79	109	2
22	23	1
68	73	1
65	68	2
21	98	1
35	35	1
57	58	2
97	98	2
70	90	2
43	45	1
54	58	3
44	45	1
93	93	1
20	21	1
92	95	1
68	71	1
85	96	2
83	85	1
83	84	1
104	107	1
49	50	1
108	110	1
25	26	1
54	57	1
77	102	2
86	86	1
27	28	1
98	98	1
114	114	1
21	88	1
22	70	1
100	101	1
90	99	1
26	37	1
68	68	1
