3	3	8
102	104	2
52	52	1
119	119	2
2	2	3
97	97	7
23	25	1
62	63	3
126	130	1
62	62	7
77	78	4
75	75	6
65	74	2
89	89	6
31	32	3
75	76	1
103	103	10
53	53	2
72	72	4
115	115	3
125	125	3
40	40	2
50	50	3
89	90	2
8	33	1
135	136	4
135	137	1
54	74	2
28	28	8
61	61	7
73	97	5
50	51	3
48	48	7
137	138	3
140	140	3
52	53	2
135	135	3
92	92	6
115	118	5
93	93	4
113	141	2
88	89	2
4	113	3
102	103	3
139	139	4
118	122	2
4	5	1
108	136	2
67	67	4
72	73	4
34	34	6
13	13	2
71	140	2
15	15	10
122	142	2
65	65	7
119	121	3
110	110	2
134	134	1
38	124	2
131	131	4
143	144	4
118	118	5
57	57	10
38	39	3
88	88	4
47	47	3
38	119	1
117	117	4
59	59	4
80	90	1
128	128	10
34	53	2
66	66	2
112	139	4
19	21	5
145	145	4
114	114	7
56	56	5
80	80	1
123	123	4
106	108	3
99	99	2
23	24	4
122	123	2
127	131	1
101	101	2
98	101	4
67	72	1
8	8	5
95	95	5
107	107	3
32	32	1
6	6	1
96	131	1
94	95	1
75	87	3
87	90	4
48	77	1
65	66	3
129	131	3
39	51	2
142	142	4
71	71	2
20	26	2
144	144	2
1	1	2
80	89	2
132	133	6
20	20	4
85	86	4
58	62	3
95	131	1
27	27	5
53	55	4
3	4	3
141	141	2
6	122	3
73	92	4
39	39	4
22	144	2
43	43	3
106	106	3
67	123	2
122	122	2
81	81	2
55	55	2
19	19	5
50	120	2
22	22	2
126	126	4
82	82	5
35	35	4
23	23	2
64	65	2
99	100	2
25	25	5
84	92	4
35	85	2
106	110	1
119	120	2
49	49	7
31	31	1
28	29	3
38	98	1
79	79	3
36	37	2
121	129	2
74	75	1
49	54	3
5	5	1
11	11	1
47	48	3
57	58	2
80	122	1
27	42	1
98	98	2
24	99	1
49	123	2
91	91	2
42	91	1
29	29	2
105	110	4
137	137	1
109	110	2
41	41	1
85	87	1
14	15	2
129	130	1
96	96	2
68	131	3
108	109	1
107	109	1
67	70	2
69	93	4
85	110	2
76	77	1
29	89	1
2	4	2
138	139	2
76	80	1
129	129	2
55	67	1
51	51	1
117	132	1
107	108	2
98	105	1
141	142	3
0	9	2
53	68	2
69	97	4
76	76	1
53	132	1
68	93	2
8	10	1
111	111	3
12	12	1
57	62	2
102	102	3
116	124	1
55	65	2
10	10	2
52	118	2
37	37	3
53	65	3
93	110	1
93	94	1
133	136	2
0	0	2
114	122	1
53	96	1
8	9	2
9	10	1
127	130	1
33	111	1
122	126	1
21	21	1
68	69	1
94	94	1
32	121	1
12	20	1
12	16	1
14	14	2
67	109	1
95	133	1
18	18	1
30	31	1
37	38	1
58	58	2
90	92	1
118	119	1
4	4	1
68	68	1
112	113	2
113	142	2
105	106	1
70	113	2
0	1	2
81	82	1
43	55	1
69	69	1
87	87	1
55	66	1
67	68	1
70	72	1
36	36	1
17	48	1
30	39	1
103	126	1
78	92	1
40	42	1
84	113	1
76	78	1
71	74	1
56	72	1
50	52	1
27	28	1
84	85	1
3	5	1
