22	23	6
117	117	9
21	21	9
3	4	5
129	129	1
18	136	2
90	90	4
78	159	3
101	101	8
110	110	5
73	73	3
57	87	2
35	35	9
40	69	1
36	36	7
40	88	4
136	159	1
46	47	1
3	3	16
26	27	1
151	151	4
4	4	7
56	56	3
70	96	4
53	53	6
98	100	4
152	152	2
125	126	4
69	81	4
25	28	2
123	132	3
6	6	15
47	48	4
4	5	3
2	8	2
160	160	5
162	165	3
11	12	2
122	122	5
65	70	2
10	36	2
118	120	2
160	161	2
68	68	6
41	41	11
37	40	3
24	24	8
132	133	4
98	98	6
64	64	8
124	125	7
72	72	1
162	164	8
159	159	3
148	148	10
116	116	4
163	163	7
12	12	10
67	67	9
39	39	2
6	7	3
16	24	1
42	42	4
109	109	9
130	168	1
88	89	4
123	123	1
35	36	2
80	80	3
62	63	8
19	19	12
113	114	6
85	85	6
53	54	5
7	7	6
1	2	7
40	40	6
99	99	2
103	107	1
39	168	3
151	152	6
58	69	2
39	40	3
141	149	1
16	16	6
133	133	3
0	1	2
43	45	2
19	63	1
86	87	5
76	166	3
37	37	11
33	33	2
14	169	1
92	92	2
68	130	4
119	119	8
58	58	3
136	155	2
83	83	6
45	45	6
72	84	1
8	9	5
51	52	5
143	143	4
102	102	2
54	167	3
126	126	7
40	62	2
53	55	1
18	23	3
162	162	2
10	10	1
18	21	2
50	50	5
2	2	11
67	80	1
15	62	2
45	46	3
25	25	5
16	40	1
123	156	1
111	111	9
56	109	4
10	11	1
46	46	5
49	49	7
27	27	5
51	51	6
55	55	9
163	165	1
75	111	3
4	10	1
78	78	1
70	70	4
129	130	2
105	105	5
91	149	1
142	142	1
146	146	8
47	47	8
170	170	6
125	125	4
62	62	3
18	18	5
106	106	3
124	124	1
38	38	9
112	112	2
74	88	1
77	120	4
24	53	2
87	95	2
113	113	4
168	169	2
81	81	4
77	78	1
153	153	4
134	135	1
22	49	3
158	158	5
42	43	2
28	33	2
0	0	11
105	152	1
40	50	4
17	26	1
44	44	4
91	92	4
24	49	1
133	136	1
138	138	3
18	167	3
124	156	2
110	111	4
15	15	8
65	92	2
120	120	6
155	156	2
40	63	1
144	149	1
23	136	1
11	11	3
90	91	3
54	55	1
20	23	1
136	137	1
106	151	1
39	132	1
48	48	3
137	139	2
105	106	2
5	7	2
131	131	7
43	44	1
161	164	3
0	2	2
161	162	3
35	73	1
9	9	3
103	103	1
18	19	5
15	41	2
58	63	2
13	16	3
52	169	2
145	145	4
143	155	1
33	34	6
159	165	1
103	104	4
4	15	3
34	36	1
12	41	1
39	63	2
19	90	2
144	153	1
40	159	3
138	164	1
58	68	3
156	156	1
66	66	3
17	17	6
21	22	4
3	44	4
21	43	2
100	105	3
9	10	5
139	140	3
84	84	1
77	77	2
13	13	3
101	102	4
23	25	3
133	166	1
43	43	7
93	164	3
26	170	1
56	57	3
164	165	3
161	161	3
24	151	1
149	149	1
14	51	1
17	168	2
101	116	2
57	57	9
167	167	1
153	160	1
131	167	2
39	65	1
78	119	3
100	100	1
150	150	6
19	53	1
94	100	1
86	86	1
22	22	5
166	167	1
138	156	2
14	63	2
8	8	1
128	129	2
3	8	1
0	34	1
87	87	2
69	69	5
35	55	2
21	107	2
64	65	1
166	166	2
79	80	2
5	5	13
72	127	1
74	74	3
169	169	1
88	88	1
122	137	2
1	1	3
139	139	2
24	46	1
137	137	3
35	72	2
33	38	1
38	66	1
47	49	2
54	54	3
136	136	1
97	99	1
74	75	4
112	113	1
44	45	1
143	154	1
12	51	1
81	82	5
54	56	1
76	78	3
77	159	5
6	40	1
165	166	1
57	68	1
121	121	3
52	52	2
41	42	5
4	36	1
55	140	1
143	157	1
13	50	1
120	121	1
115	115	1
91	94	1
147	148	1
63	63	3
118	118	4
104	104	2
71	71	1
91	91	3
12	25	2
130	169	2
24	25	2
137	158	1
134	134	3
150	163	1
101	103	1
37	38	2
52	57	2
17	18	1
144	144	1
138	154	1
108	108	4
71	91	1
142	160	2
19	159	1
67	108	1
126	127	3
15	20	1
95	162	1
106	109	1
145	154	1
101	105	1
98	99	3
130	130	1
80	81	1
102	106	1
73	81	1
159	160	1
18	24	1
132	132	1
69	80	1
128	131	1
76	76	1
37	112	1
79	79	1
66	86	1
23	24	1
154	164	1
65	65	1
0	170	1
1	113	1
13	14	1
116	128	1
22	56	1
123	124	1
50	51	1
156	164	1
152	153	1
7	8	1
23	23	1
20	22	1
16	17	1
5	6	2
19	130	1
92	101	1
155	155	1
150	162	1
132	165	1
