71	71	13
69	69	8
76	76	8
40	40	19
20	20	5
17	17	13
6	6	7
98	99	4
8	9	5
98	98	8
8	8	10
9	9	6
68	68	2
107	109	1
75	76	6
55	55	5
4	12	3
135	135	9
45	45	16
47	47	18
69	70	3
122	122	8
151	151	4
150	150	5
124	125	4
41	42	10
73	77	1
16	17	2
20	21	6
39	40	4
14	14	4
73	73	12
140	141	1
45	50	2
139	145	1
108	109	10
8	10	8
11	12	8
18	19	5
129	129	5
50	50	4
150	152	4
114	115	1
110	110	7
26	51	3
76	77	3
43	43	12
69	71	1
153	153	5
48	55	1
118	118	9
67	67	8
46	48	1
152	152	9
109	109	7
77	78	4
93	93	12
75	75	12
22	22	5
73	75	3
65	65	4
81	129	2
78	79	6
38	38	4
114	114	5
30	30	8
43	85	2
107	112	1
52	54	1
32	33	5
144	145	11
130	133	1
2	8	2
21	41	2
21	22	1
18	18	8
108	108	12
79	80	3
21	65	4
19	19	21
44	44	7
46	107	3
11	11	5
20	23	6
93	104	5
111	111	6
103	114	1
137	138	2
12	12	4
54	54	3
106	119	3
31	32	4
97	97	9
131	148	1
71	109	3
31	36	1
94	97	2
104	123	6
28	49	4
82	82	2
77	84	7
116	117	6
32	34	3
113	113	6
35	35	1
13	13	12
32	35	1
138	139	5
26	28	2
79	84	3
122	135	2
63	63	2
37	37	10
66	66	15
128	133	4
127	127	4
62	63	5
58	58	1
92	92	5
146	148	2
48	49	2
23	24	2
116	116	5
117	117	5
41	41	18
53	53	9
49	56	2
132	132	8
3	3	6
68	98	4
105	114	2
77	83	2
107	107	8
11	13	3
89	89	1
145	147	4
57	62	1
124	131	3
133	134	2
28	29	7
24	24	5
46	46	18
106	106	6
100	100	4
31	31	4
118	151	4
43	45	1
25	25	3
77	133	1
142	142	6
45	46	4
13	17	3
136	138	4
19	47	4
105	106	2
49	49	10
29	50	4
51	57	2
138	138	13
67	127	4
5	8	1
42	42	18
101	101	8
109	115	3
2	3	3
133	133	5
64	64	9
105	105	3
145	145	6
124	126	1
66	82	4
48	48	9
137	137	1
40	41	4
121	124	1
123	123	5
55	56	5
99	99	12
70	70	5
36	38	2
23	23	5
102	102	1
128	136	2
105	111	6
154	154	6
62	149	1
13	14	2
64	65	2
68	69	5
38	41	2
115	154	3
21	21	4
34	36	3
27	27	2
144	144	4
83	83	6
25	28	3
25	26	2
131	131	6
144	146	1
81	81	3
5	7	3
11	65	3
140	140	3
135	138	3
121	122	2
106	107	3
29	30	3
82	83	2
32	32	3
25	54	1
128	135	2
36	43	1
145	146	3
78	81	3
119	120	6
126	127	5
103	103	6
123	126	3
34	34	15
7	8	2
121	121	6
87	87	3
74	74	4
57	57	2
77	77	8
85	86	3
44	49	1
103	132	4
29	49	1
10	12	1
43	44	2
48	79	2
103	105	1
129	134	3
85	85	3
4	5	4
15	15	9
94	94	4
94	95	1
38	39	3
137	147	1
121	125	2
76	79	5
12	14	1
33	33	2
24	46	3
72	73	4
81	82	5
16	16	6
50	79	2
41	48	1
115	115	5
34	35	2
51	51	4
146	146	5
143	144	5
56	69	1
80	84	3
95	104	1
96	96	4
23	67	3
5	6	4
136	148	2
85	87	2
56	57	2
99	107	3
126	126	8
126	139	2
131	133	2
117	118	2
95	95	2
10	10	2
79	79	2
104	124	4
139	141	1
149	149	2
43	47	3
72	72	2
141	142	3
134	134	8
17	18	2
49	69	4
84	90	1
118	124	1
6	9	1
86	93	1
28	28	2
80	82	2
80	80	6
66	67	5
128	128	8
46	53	1
56	56	1
136	136	4
36	36	8
88	98	1
33	34	5
67	101	2
118	119	2
41	87	1
100	109	1
6	7	7
147	148	3
47	49	1
74	97	1
84	85	3
25	27	2
95	96	5
43	80	1
94	98	1
48	51	1
29	29	2
46	108	2
100	102	1
146	147	1
37	39	2
39	39	4
5	5	5
65	67	3
109	116	2
40	45	2
107	108	2
103	104	1
143	149	1
80	81	3
113	114	3
54	68	2
119	119	1
26	63	3
24	48	2
27	64	1
106	112	2
7	18	1
103	106	2
139	139	3
151	153	2
45	51	1
97	98	5
48	54	3
70	77	3
22	67	3
19	23	1
19	20	2
24	72	3
148	148	3
120	120	1
10	11	1
137	148	1
124	139	3
29	32	6
130	131	1
63	64	2
25	50	1
4	6	1
87	99	2
113	117	1
52	52	3
74	76	2
8	14	1
142	144	1
112	112	2
14	17	2
124	124	1
74	82	1
128	129	1
93	97	1
14	15	1
14	16	1
54	122	1
100	113	1
7	7	1
140	144	3
27	28	1
150	151	1
86	86	1
114	134	3
142	150	1
67	70	1
94	99	1
131	132	1
15	17	1
20	71	2
33	35	1
10	13	2
66	83	1
7	21	1
118	123	1
35	40	1
142	143	2
36	41	1
123	130	1
45	107	1
120	123	1
92	95	1
27	29	2
91	91	1
3	4	1
19	65	1
17	29	3
96	131	1
9	150	1
143	143	2
125	131	1
26	26	2
75	85	1
27	50	1
9	12	1
111	113	1
10	22	1
148	149	1
22	23	1
118	142	1
18	23	1
96	98	1
109	110	1
13	19	1
146	149	1
130	135	1
93	96	1
42	45	1
102	112	1
26	27	1
127	128	1
26	62	1
43	86	1
