94	94	7
107	109	6
60	60	5
70	70	10
28	29	4
29	30	2
82	85	4
90	91	8
104	105	3
73	73	18
82	82	9
58	58	6
97	97	16
77	77	16
36	56	4
76	78	2
32	32	5
91	91	5
78	84	10
115	115	2
26	29	1
35	52	2
99	99	18
84	84	10
105	106	1
27	27	6
71	73	2
31	31	14
95	96	4
52	52	3
41	42	9
85	88	6
66	66	12
73	78	4
82	90	2
86	87	4
72	73	11
21	21	1
112	112	12
72	76	2
38	39	4
108	108	12
105	107	13
63	68	2
56	56	9
100	100	8
95	97	1
39	39	3
79	79	18
40	41	2
49	49	18
103	105	5
48	63	4
80	82	1
35	35	7
77	78	1
52	55	2
22	22	5
59	59	8
106	107	7
75	77	8
46	46	5
101	102	4
37	37	2
56	57	7
68	68	7
105	105	17
44	44	6
92	95	3
83	84	5
66	67	3
34	34	15
40	40	8
80	80	16
58	59	9
114	115	5
23	25	2
93	93	9
97	105	1
89	89	3
85	86	15
76	76	12
75	75	11
87	91	3
102	102	14
98	103	1
110	111	5
19	22	1
71	71	12
104	110	2
68	69	18
48	48	6
102	103	8
101	101	13
26	26	8
45	45	3
86	92	4
35	40	5
63	65	5
88	99	1
86	86	1
51	52	6
63	64	14
95	95	11
104	108	2
107	107	7
47	47	7
53	53	4
101	110	1
110	110	16
43	43	3
107	108	4
106	108	6
20	20	3
103	103	12
111	111	7
96	98	3
54	94	4
83	83	10
54	54	7
19	19	3
99	100	8
62	63	5
80	93	1
69	69	12
49	52	3
29	29	9
111	112	11
83	91	3
55	56	3
98	99	6
90	90	10
75	78	1
89	110	3
60	62	7
79	80	11
61	61	3
107	110	3
67	67	8
71	72	3
57	57	7
62	62	12
88	88	7
72	74	11
67	70	4
50	50	7
82	84	2
33	33	6
57	78	2
58	60	1
53	94	7
75	76	2
55	55	6
54	56	2
47	48	2
63	63	2
86	91	2
55	58	1
72	72	6
93	101	2
90	108	3
74	74	4
28	28	8
79	101	1
54	57	7
62	67	3
65	65	4
41	41	6
38	38	5
36	38	1
35	41	3
53	54	3
98	98	9
42	42	2
35	36	1
74	75	6
106	106	7
114	114	8
91	101	1
69	71	2
84	86	3
109	109	10
103	106	1
65	66	6
62	72	5
100	101	1
36	37	4
30	30	8
96	99	1
56	76	2
57	62	3
104	106	2
55	65	1
45	50	1
67	92	3
53	62	5
73	74	9
92	92	5
110	112	2
64	65	4
20	25	1
59	63	2
78	78	7
57	74	1
109	112	1
87	99	1
60	63	3
34	35	4
96	97	12
85	85	3
64	64	2
104	104	1
88	108	1
94	100	1
46	47	1
86	88	3
92	93	3
44	45	1
103	104	3
27	29	1
76	77	6
81	84	2
111	113	2
51	51	4
113	113	13
31	34	1
94	95	2
48	49	4
52	56	2
25	27	3
43	44	4
82	83	1
78	79	4
44	47	1
93	95	2
96	96	2
96	100	1
81	81	7
91	108	6
54	72	2
64	66	4
88	91	2
103	107	1
25	26	1
26	27	1
109	110	6
72	78	1
40	42	1
29	31	1
111	115	1
27	28	3
37	39	1
41	44	1
19	23	1
63	66	2
46	48	1
60	61	3
104	109	1
65	70	1
32	33	2
68	82	1
98	105	1
77	80	1
68	71	4
25	25	3
101	103	2
24	24	2
25	28	1
48	87	1
91	95	1
112	114	1
78	81	2
85	92	1
69	93	1
96	101	1
88	89	8
53	91	1
107	112	3
89	91	2
73	76	1
96	111	3
95	98	1
78	80	1
22	24	2
59	61	1
98	111	1
36	36	4
100	112	1
82	93	1
41	45	1
102	104	2
80	83	1
81	93	1
45	88	1
87	92	1
49	51	1
113	114	1
95	102	1
81	82	1
106	110	1
87	90	2
62	64	1
61	62	1
57	58	1
46	50	1
100	102	1
36	55	1
32	36	1
89	90	2
59	60	2
103	108	1
94	101	1
87	88	1
54	55	1
83	85	1
48	62	1
33	34	2
59	64	1
87	87	1
63	69	1
89	92	1
92	94	1
97	99	1
55	69	1
105	109	1
