46	46	12
93	93	4
70	70	11
91	91	17
53	55	3
74	74	6
45	45	4
72	72	10
63	69	3
75	75	11
59	80	2
91	92	1
20	25	2
59	60	6
81	82	5
53	53	4
49	50	7
89	89	8
94	94	5
23	25	5
71	71	12
95	95	7
52	52	7
61	61	4
88	88	3
67	68	1
64	64	7
98	99	3
90	90	6
62	63	5
92	93	4
37	42	1
97	98	3
89	92	2
25	67	3
99	99	8
66	66	3
35	36	5
75	101	4
41	100	1
20	57	3
98	98	8
73	89	3
81	81	3
99	100	12
62	62	4
56	57	2
44	44	6
89	93	1
80	84	2
67	92	3
39	39	11
90	92	3
26	27	4
57	57	8
25	25	9
63	64	2
60	60	5
47	76	4
42	43	5
63	63	9
80	83	3
54	55	1
38	38	5
37	37	1
33	39	3
33	33	4
35	37	1
49	49	4
42	44	4
74	75	2
92	94	1
55	60	5
29	29	9
23	23	2
42	42	5
45	56	2
48	48	5
58	60	3
94	99	2
51	52	2
30	74	2
84	84	4
78	78	4
80	80	4
36	37	7
57	58	2
98	100	1
67	102	3
65	100	1
76	76	1
22	25	1
80	81	1
59	68	3
63	67	5
74	78	4
55	58	2
63	65	3
73	74	3
101	101	7
78	79	2
69	69	4
56	56	5
87	87	7
47	48	1
92	92	4
84	88	3
83	89	9
69	70	5
100	100	2
53	89	3
76	77	1
33	101	2
67	101	1
43	43	2
40	40	5
20	20	4
97	97	5
93	94	4
42	65	4
52	78	1
96	96	4
96	97	3
24	26	1
68	68	8
77	77	5
66	75	1
80	94	2
53	54	1
59	59	5
70	101	1
31	73	2
60	61	3
51	100	4
44	65	3
45	48	1
35	35	1
65	66	1
86	86	5
45	46	4
25	26	1
79	79	5
100	101	2
53	62	1
95	96	2
36	39	1
65	65	2
51	51	2
58	58	1
61	62	2
55	55	3
41	41	4
87	88	3
86	87	1
41	47	2
34	93	3
30	40	1
54	61	3
47	56	1
29	31	2
85	89	1
36	36	1
91	96	1
47	49	2
40	49	2
91	94	3
40	46	1
95	97	5
50	50	2
39	70	1
73	73	2
31	65	2
96	99	1
49	91	1
95	98	2
55	56	3
63	72	1
88	95	1
29	47	1
41	65	1
43	44	1
60	79	1
86	96	2
55	90	1
91	102	1
46	63	1
84	94	1
91	93	1
85	85	2
53	80	2
54	54	1
43	75	1
91	97	1
86	93	1
62	79	2
79	82	1
83	83	1
51	53	1
89	91	1
73	91	1
70	72	1
45	55	1
27	42	1
86	88	1
58	59	1
44	47	1
40	41	1
