108	109	10
137	137	2
145	145	18
49	49	7
34	34	14
25	64	5
13	26	1
141	143	1
120	120	5
85	85	8
162	164	2
43	43	12
94	95	1
10	10	10
24	24	7
157	157	13
40	41	4
3	3	10
114	115	10
113	113	6
1	2	4
48	48	9
125	125	3
50	79	5
137	142	5
27	27	17
124	124	4
110	110	13
1	1	11
129	129	11
89	90	3
162	162	4
114	114	6
26	26	10
153	153	8
47	49	3
71	72	3
52	85	1
102	105	7
111	111	14
37	135	3
137	145	3
38	38	17
21	22	12
42	42	2
123	125	8
146	148	4
52	52	6
154	154	13
128	128	9
149	149	4
2	2	10
147	147	10
148	148	10
5	5	10
18	18	6
53	140	3
41	42	2
120	121	6
101	101	2
11	11	8
144	145	4
16	16	1
8	39	2
45	58	1
33	33	10
123	123	2
150	150	17
6	6	10
57	62	2
11	12	2
143	143	4
129	133	1
35	36	5
121	121	1
74	76	2
151	151	7
78	78	2
40	46	2
57	57	5
2	7	2
148	149	5
166	167	4
36	36	2
79	79	6
4	4	9
110	137	4
141	141	7
76	76	6
25	25	9
102	102	4
130	130	9
15	16	2
76	79	3
143	157	1
142	142	6
72	73	1
20	20	5
37	37	1
35	35	7
144	144	4
13	14	1
122	122	3
156	156	7
80	81	5
163	164	4
152	152	9
119	119	6
55	55	4
121	122	5
119	121	4
28	28	2
83	83	8
50	51	6
135	136	3
9	10	2
153	154	1
22	22	2
82	82	7
48	49	4
53	53	11
90	90	2
17	17	2
47	47	4
142	146	7
109	109	17
64	87	1
66	67	4
159	159	13
145	146	2
88	88	3
45	71	1
71	71	7
14	26	2
44	45	4
75	75	8
88	90	1
79	80	4
125	126	3
147	148	5
122	130	1
163	165	2
94	94	5
105	105	1
3	7	4
108	108	2
39	39	9
146	146	4
126	126	2
85	99	1
10	56	1
136	136	8
67	68	1
69	69	4
115	115	11
39	46	2
82	86	1
43	53	7
88	103	3
137	138	2
46	46	4
50	56	3
159	163	1
6	7	2
132	132	1
16	18	4
158	158	9
152	154	3
80	98	1
169	169	3
130	132	2
2	17	1
117	124	3
19	19	3
40	40	2
143	144	4
167	170	1
103	105	1
50	71	3
65	68	2
50	50	3
12	12	2
81	82	4
47	72	1
91	94	4
89	89	6
77	100	2
7	7	4
64	109	1
103	103	1
9	9	1
36	43	1
88	89	1
146	147	1
91	91	7
51	51	3
96	96	4
86	86	7
90	91	2
41	51	3
119	156	1
152	153	1
76	78	2
74	74	3
38	138	3
78	84	2
41	41	4
113	114	5
168	168	1
155	156	2
35	107	1
45	45	4
160	160	2
127	133	2
70	70	5
39	48	3
99	99	4
13	13	3
73	73	3
16	114	4
84	84	1
83	122	1
150	155	1
116	116	1
103	104	1
61	62	1
138	139	2
129	132	2
155	155	2
136	151	2
121	132	3
69	70	1
2	4	1
63	63	3
82	88	2
45	51	2
49	50	2
108	136	1
169	170	6
49	56	1
67	127	1
97	98	2
92	92	2
133	133	1
37	42	2
12	116	1
12	14	4
77	78	2
64	64	2
142	143	3
18	44	2
33	34	2
163	163	3
39	41	1
37	57	2
151	152	1
105	147	2
26	27	4
77	77	2
4	5	2
126	133	1
157	158	1
143	150	1
103	117	3
89	103	2
14	14	3
117	119	4
7	67	1
58	62	2
27	28	2
108	132	1
14	15	2
66	66	1
109	110	1
57	63	1
86	100	1
140	141	1
168	169	3
131	131	1
36	143	1
92	94	2
0	0	1
96	97	2
106	107	2
52	86	1
73	74	4
166	166	2
108	116	1
159	160	1
147	153	1
46	47	1
106	166	1
76	77	2
62	62	1
156	157	2
161	165	2
134	134	2
7	65	1
83	112	1
99	100	1
21	21	1
110	112	3
76	85	2
116	118	1
138	170	1
139	139	2
135	139	2
95	95	1
13	117	1
46	71	1
56	56	1
8	86	1
9	145	1
86	110	1
118	119	1
84	131	3
125	130	1
82	123	1
12	13	1
8	28	1
51	71	1
19	45	1
45	46	1
101	105	1
38	40	1
8	132	1
0	1	1
54	54	1
