36	36	4
26	79	1
66	67	3
81	81	5
53	84	3
85	85	4
84	93	1
42	42	5
27	33	6
57	57	6
62	65	5
41	42	2
44	77	2
64	64	12
70	70	8
89	89	8
24	24	4
100	100	9
78	78	10
62	89	1
97	97	9
68	69	3
38	38	9
87	87	6
72	72	4
30	30	5
58	58	19
56	56	12
56	73	1
101	102	3
91	91	9
41	41	12
63	64	5
33	46	5
72	93	5
94	94	1
84	84	6
77	77	7
60	60	7
76	77	7
27	27	3
82	82	3
88	88	4
41	43	6
73	73	5
65	66	3
79	97	1
99	101	1
65	65	6
22	29	2
68	77	4
67	67	16
92	101	5
74	74	10
40	41	5
85	87	3
91	92	3
89	98	5
77	98	2
31	31	9
90	90	9
62	83	3
80	82	3
28	45	3
45	46	2
61	63	2
34	47	1
89	90	2
59	59	12
98	100	4
97	98	5
26	26	6
53	58	1
66	66	7
101	101	11
86	90	5
39	45	2
68	68	5
40	40	9
50	50	5
29	29	4
49	49	5
96	96	3
58	63	2
86	87	6
69	69	3
32	32	12
62	90	5
47	48	1
25	25	2
63	86	4
99	99	10
86	86	8
98	101	1
53	53	8
84	89	6
69	85	1
71	71	2
67	68	1
47	47	6
27	36	4
62	62	5
26	33	2
78	79	1
26	27	3
52	76	1
80	85	2
75	75	8
58	59	2
61	61	7
54	55	1
48	81	5
44	44	1
34	46	3
79	80	4
92	94	1
55	73	1
43	77	2
48	48	6
37	53	3
48	51	1
28	38	4
61	82	3
48	49	1
80	80	3
87	94	1
51	51	6
96	99	1
28	61	2
39	39	5
33	33	3
84	87	3
88	98	4
43	43	6
29	74	1
71	88	1
71	72	3
73	97	3
51	57	3
77	81	3
68	91	1
98	98	1
61	62	2
23	23	3
36	37	1
73	93	2
46	47	1
24	25	1
34	36	1
79	81	1
90	91	1
48	50	2
47	50	2
93	97	1
92	98	1
62	69	1
84	88	1
51	77	1
49	50	1
25	26	1
74	79	2
54	61	1
61	92	1
57	101	1
28	95	1
46	46	2
57	58	1
83	89	2
87	88	1
55	55	1
61	77	1
31	46	1
45	45	2
53	94	1
61	86	1
37	37	1
27	54	1
31	76	1
60	77	1
80	81	1
86	88	1
39	62	1
99	100	1
87	89	1
38	49	1
67	73	1
