117	117	2
106	106	3
29	29	10
122	122	3
93	98	8
129	130	1
75	75	11
69	69	7
17	20	2
59	61	1
48	48	6
100	100	6
72	72	9
13	13	4
66	66	11
91	96	2
96	96	7
78	78	2
129	129	3
6	6	11
9	9	16
126	126	6
79	83	2
71	72	4
94	95	1
110	112	2
73	73	5
113	113	4
82	83	1
16	16	5
122	123	1
67	67	4
84	109	2
71	71	5
33	86	4
130	131	4
6	7	1
79	79	3
11	12	3
43	43	5
98	99	5
134	134	3
85	85	5
47	47	13
47	48	3
63	63	3
45	45	10
95	107	2
12	12	6
62	62	3
35	35	16
109	112	2
15	15	4
27	93	7
90	91	2
68	68	5
118	119	2
46	62	8
95	95	8
20	69	2
102	103	3
47	93	3
62	63	6
101	101	1
39	39	3
123	123	2
74	74	6
65	65	13
73	74	7
94	96	9
60	60	5
10	11	2
88	125	4
25	25	4
64	65	7
20	21	7
113	117	4
55	56	3
94	94	3
26	26	10
110	110	4
130	130	10
44	44	6
21	21	3
58	58	3
12	17	3
40	40	1
76	76	4
61	61	7
92	95	2
112	113	2
27	77	4
28	28	6
82	82	1
119	120	4
119	119	1
46	46	6
114	114	8
4	4	4
97	98	5
108	109	6
37	37	1
126	132	1
133	133	3
86	86	4
80	85	1
27	28	7
103	104	3
108	108	2
80	80	3
11	92	3
57	58	2
128	128	1
36	36	6
97	97	5
18	19	2
57	57	1
96	97	1
55	57	2
8	8	7
97	100	4
64	64	5
98	101	1
30	59	1
39	41	1
18	18	4
5	6	2
77	77	7
34	74	1
10	10	4
38	38	1
7	7	2
32	32	6
3	28	1
126	128	4
42	42	5
27	90	2
59	59	4
1	1	1
112	112	1
98	98	1
105	106	4
27	29	4
17	17	3
68	69	3
70	70	3
30	31	2
16	18	2
124	124	2
67	68	3
57	99	1
87	89	1
56	75	2
58	59	4
37	41	3
5	9	2
38	42	3
21	84	1
120	120	4
25	78	2
2	9	2
56	57	1
49	49	1
41	82	4
41	42	1
18	44	2
66	67	2
109	110	2
109	109	7
68	75	1
27	27	1
43	44	2
55	55	3
63	64	2
11	11	4
84	85	2
114	115	1
8	74	2
35	74	6
70	71	2
75	76	1
76	77	2
60	75	3
14	60	1
124	125	1
103	103	2
104	105	2
1	2	2
22	22	4
83	83	3
57	80	1
31	60	1
56	59	4
116	116	3
10	26	1
25	29	1
69	70	1
59	60	1
111	128	2
8	48	1
93	96	1
8	10	4
49	100	2
37	42	3
19	19	2
87	87	2
102	102	1
20	44	1
31	78	1
27	30	1
34	34	1
27	79	1
9	10	3
2	2	2
6	48	1
81	88	2
81	93	3
51	51	1
91	99	1
38	81	1
89	89	3
78	81	1
95	101	3
72	73	3
46	47	2
121	122	1
22	132	2
111	113	2
111	111	1
98	111	4
12	14	3
125	126	1
17	93	1
47	49	1
25	35	1
112	128	1
26	81	3
26	35	1
22	25	1
96	98	2
15	59	1
115	115	1
92	98	1
62	64	3
23	24	1
73	75	1
68	70	1
1	3	2
57	59	1
96	107	1
33	33	1
56	56	1
29	48	1
112	115	1
100	101	1
21	22	1
30	48	1
42	78	1
131	134	1
118	118	1
13	16	1
5	5	2
3	3	1
47	64	1
60	61	1
127	131	1
12	13	1
20	22	1
35	36	1
114	134	1
99	100	1
50	50	1
