39	39	9
34	34	25
53	54	6
5	5	13
21	22	3
24	41	6
57	57	14
62	62	9
61	61	19
45	45	22
61	62	7
17	39	1
14	14	10
0	0	10
52	53	6
57	58	13
30	42	4
8	8	25
57	60	3
3	3	5
48	49	8
55	55	18
44	51	2
35	35	20
54	54	16
50	50	11
40	40	16
35	62	5
54	60	5
44	46	10
10	11	2
6	7	11
52	52	24
32	32	20
24	24	9
19	20	13
7	12	3
15	16	6
31	41	6
43	62	6
59	59	12
20	20	9
59	60	8
34	62	1
52	54	7
44	44	18
44	45	8
14	15	8
9	9	7
7	20	3
22	22	3
11	11	2
53	53	10
18	19	4
54	58	14
16	16	7
34	45	5
8	9	6
4	19	2
48	48	17
37	49	2
58	59	4
37	38	10
35	36	6
45	46	5
49	49	16
18	42	6
36	36	16
31	34	7
2	59	3
34	35	8
39	40	7
57	59	6
10	10	9
10	14	3
31	35	7
56	56	15
5	6	7
1	2	6
37	37	20
31	38	8
43	43	20
51	51	6
33	40	1
31	32	7
42	42	19
39	56	6
7	8	1
4	4	4
36	39	2
48	61	3
18	18	13
38	44	2
6	6	6
17	17	17
7	7	7
0	1	9
36	61	1
54	59	1
22	23	4
41	42	4
45	47	3
25	25	4
50	51	6
49	50	1
41	41	15
60	60	11
5	12	4
38	40	2
40	41	5
47	48	1
31	31	11
47	57	2
54	55	4
33	33	16
53	55	6
39	41	4
12	12	21
30	44	6
56	60	5
58	58	7
29	29	1
2	2	4
32	33	5
46	46	9
47	62	3
42	43	2
4	21	3
6	12	3
11	12	6
13	13	7
1	1	8
44	49	3
46	51	2
24	47	2
21	21	4
38	49	1
19	19	3
53	59	1
49	51	2
55	58	2
29	41	3
25	42	2
31	48	1
31	45	1
53	58	2
29	46	2
5	8	3
30	30	5
33	39	2
8	11	1
1	53	2
22	58	1
32	37	4
42	44	1
4	5	3
43	47	2
36	49	3
38	38	4
30	34	1
31	51	2
3	62	2
6	38	2
51	60	2
36	62	1
3	21	3
20	21	3
38	39	5
31	49	2
23	41	2
51	52	4
4	13	1
30	46	1
43	56	1
47	47	9
10	18	2
4	12	1
55	60	2
32	62	1
29	30	1
17	18	3
23	39	1
40	43	1
50	52	1
30	40	1
50	55	1
13	15	1
36	37	1
23	38	2
16	17	1
21	23	2
39	49	1
12	13	4
11	17	1
15	15	1
31	40	2
23	23	3
24	39	1
4	61	2
54	61	1
4	7	1
23	37	1
45	57	1
52	56	1
19	38	1
32	61	1
37	39	1
48	53	2
44	48	1
58	60	1
21	57	2
30	50	1
55	56	1
37	44	1
23	58	1
37	41	1
30	35	1
42	47	1
10	17	1
56	57	1
30	31	1
32	44	1
50	53	1
17	25	1
33	34	1
