46	46	4
17	17	23
110	110	3
85	85	7
71	71	10
32	58	2
61	61	5
96	97	2
83	109	3
35	36	9
147	148	3
79	79	10
32	33	5
43	45	4
99	99	13
102	103	8
50	51	3
113	114	4
4	5	4
80	80	11
147	147	7
40	40	12
151	151	3
48	48	9
43	43	6
44	44	23
53	53	13
6	6	5
97	97	10
26	26	6
64	64	11
6	11	3
19	20	5
82	82	6
36	37	2
135	135	2
10	11	5
136	136	8
109	111	5
83	83	8
70	70	3
16	16	15
108	109	5
41	42	8
98	99	5
105	105	4
142	142	5
112	112	2
11	11	4
93	94	5
91	91	12
129	140	1
33	33	8
100	100	6
44	45	4
38	38	16
22	22	12
16	17	4
139	141	2
129	129	3
89	96	1
19	19	4
49	51	2
94	99	3
94	105	2
14	14	4
97	98	3
32	57	2
119	125	8
51	51	1
128	128	7
21	21	10
13	13	6
94	95	8
63	81	2
131	131	3
8	8	8
27	27	4
69	69	15
122	122	10
57	57	10
85	107	1
50	50	16
130	130	9
7	7	7
29	29	10
31	31	3
62	62	8
62	64	2
145	146	3
39	39	11
109	113	3
131	132	1
76	76	8
53	55	2
79	80	10
132	132	12
28	28	13
110	113	2
13	18	2
96	96	17
133	133	5
140	143	2
84	84	4
53	54	2
108	108	3
25	27	4
115	115	6
30	36	4
93	93	3
35	35	16
19	24	3
49	49	9
22	23	3
56	73	4
6	46	6
145	145	2
66	67	1
47	47	11
84	121	4
124	125	10
73	73	5
107	107	3
139	139	2
36	36	5
45	45	8
66	66	5
103	103	7
11	45	1
149	152	3
4	11	1
129	130	5
37	37	3
20	41	2
119	122	2
81	82	2
3	23	1
147	150	2
148	149	3
30	30	5
104	104	4
8	34	2
85	86	4
107	109	5
55	55	3
56	56	6
95	95	8
13	15	2
46	47	1
54	54	7
113	113	4
65	65	3
124	146	3
70	71	1
87	87	8
121	144	2
18	18	7
9	9	8
153	153	1
152	152	4
28	29	3
149	149	11
94	94	6
140	140	3
113	116	1
32	34	2
124	139	1
67	72	1
20	20	3
5	48	1
31	32	2
62	80	3
86	119	3
120	146	2
81	110	1
123	124	1
14	111	2
74	88	1
141	141	2
102	118	3
80	81	2
12	15	3
10	10	3
15	15	4
14	41	1
92	92	6
78	78	8
92	95	5
42	42	1
140	141	1
102	150	1
137	138	9
54	56	2
118	118	4
77	77	7
30	31	2
72	72	7
23	23	4
102	148	1
20	21	8
117	117	9
4	4	5
150	151	1
137	137	6
52	52	6
12	12	3
25	33	1
150	150	6
27	66	1
144	144	1
62	63	5
32	32	1
123	125	2
124	128	2
154	154	5
34	34	7
24	24	13
64	81	1
106	106	7
147	149	2
135	145	1
68	68	3
65	66	1
76	114	2
95	96	1
35	37	4
5	6	8
64	66	2
134	134	8
49	55	1
3	6	2
128	129	4
127	151	2
48	117	2
102	102	3
142	143	6
97	99	2
25	25	4
41	41	9
71	116	1
129	154	1
148	148	3
95	98	2
129	138	5
10	21	4
74	83	1
127	127	3
63	64	3
125	125	7
124	124	2
42	43	4
77	78	2
92	94	2
141	142	2
126	126	1
68	112	2
87	121	1
138	139	2
120	121	2
76	111	2
67	71	2
93	98	2
143	144	2
81	114	1
40	41	2
75	76	2
67	70	2
116	122	4
120	120	2
28	30	1
18	19	2
135	137	1
143	143	4
67	68	1
15	16	1
63	63	3
17	42	1
81	81	5
14	32	2
27	29	1
86	86	3
22	72	3
17	98	1
62	72	1
109	109	1
87	115	3
19	96	2
54	55	1
127	128	1
12	14	1
138	138	1
96	149	1
54	100	1
81	83	2
25	26	2
83	110	1
114	114	4
12	20	1
19	40	3
116	119	2
16	22	3
75	75	2
103	128	2
113	135	1
104	132	1
70	82	3
51	100	3
111	111	4
82	83	3
113	115	1
74	74	3
78	81	3
141	143	2
125	127	1
83	84	2
136	137	1
86	87	1
4	6	2
33	57	1
82	85	1
149	151	1
103	125	1
139	143	2
13	40	2
5	5	2
76	77	1
12	33	1
91	92	3
102	116	1
64	65	1
48	53	1
111	112	2
34	35	2
123	123	1
65	87	2
121	122	2
106	107	1
56	57	1
124	127	1
29	32	2
84	113	3
45	46	2
9	11	1
48	100	1
93	104	1
63	75	2
109	110	1
94	98	1
146	146	2
71	76	1
12	22	1
20	22	2
146	149	1
104	105	1
68	77	1
67	67	1
95	105	1
102	147	1
130	137	1
62	69	1
62	68	1
9	23	1
82	114	1
