73	73	8
46	67	1
24	24	7
9	12	6
77	77	7
45	94	4
84	84	21
89	118	2
94	95	2
83	85	3
82	82	6
41	41	18
14	95	3
30	30	3
11	11	24
40	40	3
36	36	18
42	42	3
72	72	14
91	115	4
33	72	1
4	4	17
68	69	3
4	97	2
69	69	5
130	130	2
51	51	1
48	48	9
59	59	11
80	81	2
63	63	12
118	118	2
74	75	5
119	119	6
51	94	4
15	15	14
91	91	13
47	47	10
61	61	9
75	75	27
18	19	1
46	62	2
6	47	4
90	92	6
5	5	10
27	29	2
124	125	3
45	64	4
31	79	2
21	22	8
77	79	2
79	79	5
107	107	7
44	45	5
62	62	6
25	47	2
12	12	20
38	38	22
91	95	1
105	105	8
34	34	12
20	20	7
76	76	11
75	76	8
66	66	16
63	64	6
87	87	12
27	27	14
96	97	2
127	127	7
47	74	3
17	18	5
123	123	11
36	37	2
98	98	5
133	133	5
46	46	13
47	77	2
32	96	1
43	61	4
116	116	8
23	24	5
9	47	2
101	102	6
88	89	8
43	43	10
27	100	1
34	73	4
32	32	18
31	31	1
93	93	15
40	41	5
79	80	5
101	101	13
35	35	7
21	29	1
33	64	1
111	114	7
15	16	4
1	1	4
100	100	13
86	86	9
111	113	7
21	21	14
11	12	2
12	14	2
17	17	15
27	77	1
28	28	11
10	14	3
78	86	4
78	78	15
123	124	1
129	130	6
114	114	3
116	117	1
33	33	7
111	111	1
1	2	5
65	85	1
29	43	2
71	71	13
108	108	5
70	71	6
125	125	8
22	22	6
126	126	10
57	58	3
40	90	4
67	117	1
95	95	10
70	70	9
129	129	9
4	24	1
2	3	4
64	64	7
92	92	6
0	0	7
42	57	4
3	4	12
66	67	5
56	56	1
37	39	2
33	36	3
29	30	7
65	65	12
22	37	3
12	46	3
6	6	12
68	68	9
28	80	1
110	110	4
26	96	1
56	100	5
61	74	5
132	132	6
93	99	1
3	3	10
80	80	14
49	88	5
16	16	20
34	48	1
4	98	1
60	60	10
121	121	5
74	74	4
99	99	8
91	100	2
8	9	3
102	102	12
4	7	4
120	120	4
100	101	2
2	2	8
11	14	1
97	97	6
112	122	4
7	7	7
26	26	15
57	57	4
10	10	11
90	90	7
91	128	3
103	103	4
21	48	1
37	37	10
4	25	2
58	58	7
88	96	4
13	14	1
128	128	7
22	39	2
13	16	3
25	27	2
8	8	19
83	83	8
31	32	1
106	106	7
109	109	4
13	93	2
117	117	7
86	93	1
51	56	3
29	35	3
38	39	6
84	85	2
23	23	6
14	14	6
57	91	1
26	92	2
29	90	2
81	81	14
62	63	4
4	5	7
62	66	1
6	11	1
94	94	3
9	9	12
18	18	8
20	40	4
46	65	4
73	74	2
37	38	4
91	93	1
127	128	2
14	94	1
27	90	3
58	59	2
103	104	2
41	59	1
79	99	2
39	40	5
109	111	6
87	134	5
26	33	1
70	120	2
134	134	4
114	116	1
90	91	1
25	26	4
48	88	2
0	62	3
44	83	6
29	66	3
60	93	2
46	47	4
12	75	4
59	77	3
39	39	1
6	101	2
35	97	4
11	17	1
87	98	2
23	25	3
67	67	6
110	113	3
93	94	3
29	29	12
62	75	4
20	83	5
89	89	5
24	29	1
41	42	1
19	19	3
23	30	2
88	88	6
4	20	2
30	32	2
81	82	2
51	54	2
78	80	8
78	79	6
28	88	4
109	110	1
44	44	3
20	21	2
95	101	3
11	13	1
132	133	4
108	109	5
0	63	2
55	55	4
45	45	11
104	105	2
45	74	3
10	11	4
6	7	4
94	118	1
85	85	6
108	110	4
71	86	4
8	42	1
20	90	2
131	131	2
85	86	1
70	122	2
64	65	1
28	79	1
72	73	5
61	73	4
77	89	1
8	41	4
26	80	1
26	27	8
88	94	2
28	91	2
15	50	2
36	43	2
115	115	5
76	77	2
54	55	1
115	116	3
9	32	4
56	95	1
0	1	1
87	88	2
8	25	1
4	6	3
127	132	1
76	119	1
35	36	5
63	93	2
51	97	1
57	90	2
124	124	3
22	48	1
30	31	1
97	102	1
5	20	1
8	36	1
66	84	1
109	126	1
27	92	1
47	83	3
8	10	1
82	116	2
92	93	1
12	13	3
99	100	1
36	44	1
71	72	4
40	42	2
43	62	1
98	99	1
27	47	1
95	96	2
91	92	2
49	49	1
29	46	1
25	25	3
50	50	1
89	92	2
55	116	2
79	126	1
19	47	4
18	58	1
119	120	3
105	106	1
39	42	1
20	44	1
83	84	1
132	134	1
40	59	1
64	123	1
19	20	1
11	95	1
72	75	1
69	122	2
12	17	1
20	59	1
27	28	1
83	123	1
88	128	1
9	10	1
1	62	1
13	13	2
102	103	1
97	101	1
11	82	1
11	78	1
32	95	1
8	34	1
21	82	1
21	39	1
47	93	1
29	39	1
113	114	1
66	83	1
6	9	1
5	21	1
21	57	1
97	99	1
4	13	1
49	87	1
60	73	1
96	96	1
