20	20	14
36	36	8
79	79	16
34	34	8
6	6	22
39	65	4
15	26	2
58	58	7
80	81	2
37	37	21
10	11	9
42	43	6
59	59	13
12	32	4
68	70	11
69	70	6
31	31	17
21	21	15
31	32	16
26	32	1
10	25	1
66	66	26
1	1	17
2	2	7
57	57	9
9	9	33
55	71	2
5	5	19
63	63	8
35	36	3
81	81	3
76	76	14
38	38	17
35	35	30
73	76	1
36	48	1
19	20	13
50	51	11
54	54	12
3	3	10
30	30	11
67	67	22
27	27	16
53	53	16
8	8	17
7	21	4
59	61	2
74	74	11
60	60	19
18	18	8
40	40	18
29	30	4
41	41	23
71	71	18
72	72	12
46	46	15
45	45	31
10	10	15
17	17	20
80	80	20
61	79	1
48	48	25
27	33	2
0	1	3
65	65	30
7	7	16
16	16	11
29	29	20
61	61	17
77	78	3
55	55	15
18	20	1
68	69	1
69	69	12
39	40	8
11	33	2
47	47	20
70	70	21
26	27	4
49	49	30
2	7	1
5	6	5
4	4	12
10	26	1
55	56	5
77	77	11
0	0	3
3	71	1
56	56	9
16	18	3
28	28	10
11	31	5
0	27	4
8	9	6
1	2	3
51	51	4
50	52	2
25	25	11
11	12	5
14	25	4
42	42	13
3	4	4
34	35	5
37	57	1
54	56	1
7	70	2
78	78	23
9	11	3
67	68	8
19	19	23
5	10	4
8	21	1
9	10	1
6	9	2
73	73	16
7	74	1
16	33	1
7	8	3
14	14	8
6	53	3
7	48	2
43	43	5
71	72	3
2	9	1
65	71	3
39	39	23
16	17	16
44	45	2
60	61	4
32	33	7
45	46	2
26	26	17
13	13	7
7	25	1
34	38	3
64	64	8
11	11	9
38	41	2
47	48	2
57	58	6
75	76	1
74	75	6
66	67	11
3	39	1
57	72	5
47	61	1
58	59	3
4	35	2
6	20	1
49	59	2
75	75	9
63	68	4
56	70	3
28	30	1
55	64	3
20	31	1
15	15	10
70	72	1
60	62	1
12	12	17
10	14	3
51	52	4
49	50	5
64	65	3
26	33	2
34	36	1
42	47	1
55	58	1
25	79	4
64	66	4
68	68	7
36	43	1
32	32	11
6	65	1
33	33	5
30	31	1
35	56	3
65	66	2
0	7	1
59	60	4
13	14	3
70	71	8
17	76	2
7	27	1
18	19	4
75	78	1
52	54	2
50	50	7
15	30	3
12	13	3
20	30	4
25	26	2
53	54	4
47	62	2
6	7	2
55	60	2
12	15	1
17	18	1
7	20	2
38	62	2
40	47	2
43	76	2
38	39	4
22	22	3
66	68	1
12	14	2
76	78	3
62	63	1
67	69	1
10	12	1
8	71	1
72	76	2
9	16	1
5	38	2
27	28	1
37	38	2
15	16	2
15	17	1
62	62	6
48	49	2
40	41	1
28	59	3
38	44	1
36	46	1
54	55	1
52	52	2
66	69	2
45	80	1
6	72	2
4	10	1
21	22	1
0	58	1
74	78	1
69	71	1
78	79	1
17	27	1
52	68	1
41	42	2
21	32	2
33	38	2
63	65	1
40	45	1
5	58	1
30	33	1
46	47	2
79	80	1
33	34	1
