19	20	7
24	31	5
17	17	28
40	41	27
45	45	47
35	35	32
40	40	71
36	36	45
22	23	9
39	39	35
18	18	28
22	29	3
41	43	5
27	49	1
20	20	23
30	30	56
41	41	45
32	32	28
34	34	40
39	40	10
44	48	10
35	49	4
48	49	24
30	31	3
31	35	7
43	45	7
36	38	9
19	22	2
24	26	4
43	43	61
48	48	39
19	19	40
42	42	48
49	50	15
23	23	31
18	19	5
31	31	53
27	27	45
38	38	28
46	46	55
44	44	52
33	33	30
25	27	5
29	29	43
47	48	19
47	47	52
49	49	37
25	25	15
36	37	11
37	38	9
36	39	6
37	39	4
47	49	10
23	47	3
24	24	35
27	28	21
31	40	1
22	22	21
28	28	16
40	42	3
50	50	31
31	32	7
20	21	8
22	49	5
48	50	5
29	30	8
33	42	3
37	44	5
22	36	1
35	44	1
45	46	18
41	44	5
24	25	12
41	42	5
51	51	2
26	50	3
32	34	6
43	47	1
44	49	4
18	36	1
28	29	15
42	44	5
23	35	1
23	28	4
37	37	32
33	34	16
22	27	4
25	49	2
21	22	2
26	34	1
27	46	1
28	43	2
25	26	6
34	35	12
28	31	5
29	39	2
25	29	4
43	44	10
45	47	6
19	24	2
23	27	6
27	41	1
35	40	3
26	26	12
46	49	3
19	21	5
45	50	3
33	35	2
44	45	18
22	26	5
25	47	1
45	48	2
28	30	3
26	27	9
42	43	2
17	18	9
38	40	7
21	21	20
19	28	3
23	24	6
40	43	1
39	41	10
28	32	2
30	50	2
23	25	6
44	47	2
20	31	8
23	30	1
50	51	3
26	33	1
19	30	2
24	27	5
26	37	1
26	48	1
32	33	10
27	48	5
34	49	5
26	44	1
26	35	1
36	45	1
22	24	5
27	35	1
38	39	4
27	29	2
31	37	1
34	45	1
22	48	1
30	32	2
30	46	1
17	23	4
29	31	1
38	46	3
20	46	1
32	36	1
35	36	4
23	34	2
43	46	4
34	44	4
22	32	1
34	36	4
31	33	1
20	40	1
46	50	2
43	50	2
37	49	2
22	50	1
27	40	3
40	46	3
23	46	1
24	28	1
28	48	1
39	43	1
29	40	3
31	34	1
36	47	4
26	29	2
41	51	1
42	45	8
24	30	1
18	22	2
38	42	2
21	35	2
24	29	1
38	43	1
21	41	1
28	36	1
18	27	1
25	45	1
41	45	2
46	47	3
19	36	1
19	34	2
24	42	2
31	38	1
35	37	2
28	40	1
19	35	1
25	30	1
17	20	1
25	38	1
23	31	1
21	44	1
17	24	2
26	28	1
19	42	1
25	46	2
21	39	1
38	51	1
27	34	1
41	49	1
31	36	1
