118	118	29
126	126	34
17	17	5
102	102	33
123	123	16
105	105	4
11	13	2
18	18	9
72	86	3
21	21	10
20	21	7
74	79	2
28	28	8
130	130	21
133	133	26
101	102	5
121	123	1
107	123	3
75	75	11
80	87	1
120	120	22
111	111	7
117	117	10
82	82	10
85	85	5
87	87	22
114	114	16
137	138	5
91	95	6
27	27	11
92	92	12
94	94	16
24	28	4
121	122	15
100	100	10
71	76	3
101	101	17
112	112	14
110	110	6
122	122	24
20	20	15
9	12	2
110	111	6
6	7	1
100	116	4
76	78	7
81	81	5
131	131	17
10	10	11
37	38	6
135	135	14
89	89	16
31	32	5
76	76	13
5	5	3
79	79	5
126	128	3
104	104	10
15	15	12
99	100	3
129	129	11
73	74	3
14	14	11
33	33	4
117	118	5
132	132	18
109	110	1
34	34	12
9	9	8
124	124	15
75	81	2
113	113	8
128	128	20
94	95	5
101	123	7
19	19	10
77	78	4
140	140	10
135	137	6
35	35	16
115	116	3
73	85	5
127	128	5
97	98	5
71	75	3
73	75	8
90	90	6
109	111	3
97	97	7
138	139	2
2	3	5
134	135	7
13	13	8
93	93	15
120	121	5
37	37	11
125	125	15
134	136	5
123	128	2
74	75	4
107	107	6
85	86	2
73	73	13
15	17	2
127	127	18
96	96	12
121	121	9
1	1	1
116	116	19
4	5	12
109	109	6
78	78	13
95	98	4
82	85	2
115	115	8
122	123	5
77	77	7
83	85	8
74	74	10
8	12	5
119	121	8
36	36	8
108	109	4
22	24	2
3	3	14
108	123	3
12	12	4
124	125	8
3	32	1
82	83	6
114	115	6
88	88	13
18	37	2
10	12	6
93	94	2
72	72	7
7	7	15
126	127	9
6	6	12
128	129	10
108	108	6
71	86	3
19	21	5
123	124	4
135	138	4
100	101	2
106	106	14
87	88	1
95	95	22
134	134	7
29	29	8
23	30	2
96	115	2
71	72	1
103	103	13
95	134	1
18	19	1
99	99	8
20	37	1
5	6	4
30	31	1
7	10	2
139	139	6
80	113	2
97	100	2
2	2	2
21	22	7
136	136	5
138	140	1
136	138	5
26	26	1
22	22	4
131	132	6
104	105	5
4	32	6
138	138	9
19	20	6
113	114	3
32	32	10
81	82	3
119	119	4
71	71	15
33	66	2
137	137	13
7	9	1
88	89	1
83	84	3
72	73	3
95	96	5
31	31	7
125	128	2
98	98	6
24	24	5
25	26	3
94	112	3
11	11	5
97	99	3
21	27	2
37	137	1
38	38	3
17	18	6
116	125	3
36	37	4
117	124	1
83	83	3
124	127	3
119	120	1
4	4	2
118	119	1
112	116	1
124	128	1
80	80	6
107	117	2
6	15	2
35	37	1
15	16	4
135	141	1
100	114	1
86	89	1
91	91	4
86	86	2
116	117	2
114	124	4
75	76	6
11	12	2
18	32	3
12	13	1
13	14	3
16	17	6
98	99	3
96	99	2
91	92	1
80	81	4
92	93	2
84	84	3
119	122	5
23	24	1
102	103	1
131	134	2
0	0	4
135	136	2
6	33	1
21	24	1
18	136	1
37	125	2
16	16	5
73	80	1
118	123	4
113	115	2
96	124	1
28	29	7
4	30	2
26	27	4
125	126	2
89	96	3
9	10	1
34	35	1
1	2	2
31	43	1
14	15	4
136	137	1
29	31	2
79	113	1
120	122	2
22	23	2
27	30	2
8	8	1
20	22	2
0	1	3
84	85	2
89	90	1
15	31	3
119	123	2
91	101	1
72	87	2
7	8	1
73	91	1
2	14	1
25	25	6
130	140	1
105	108	1
16	32	1
107	108	2
23	23	3
10	11	2
72	85	2
112	113	1
131	135	1
23	25	2
93	112	1
130	139	1
107	118	1
103	104	1
123	127	1
134	138	2
73	82	2
89	101	1
74	97	2
1	31	1
16	19	2
130	131	1
105	106	1
72	90	1
133	134	1
71	129	1
127	129	2
18	29	1
22	28	1
0	2	1
72	96	1
130	132	1
78	79	1
3	7	1
32	34	1
