56	105	2
2	5	1
72	77	2
23	23	5
0	0	8
11	11	6
83	83	13
130	132	2
9	9	18
40	40	7
83	84	6
22	43	1
114	115	11
122	122	10
117	117	5
103	103	5
41	45	3
131	132	2
110	110	10
17	18	1
28	28	4
111	111	19
82	83	5
130	130	8
115	115	5
52	52	8
63	64	2
18	18	6
48	51	3
81	81	19
13	13	20
74	74	7
93	93	14
53	53	20
15	15	10
104	104	21
32	32	12
46	46	11
33	33	17
23	24	5
94	94	15
116	117	1
17	17	12
69	69	11
34	34	3
123	123	14
109	109	3
8	29	2
100	101	6
28	40	5
82	82	14
108	118	4
89	89	9
47	48	9
10	10	6
119	119	14
107	119	1
99	103	3
107	107	10
128	128	5
51	51	12
24	34	3
63	84	3
58	69	3
70	71	5
70	70	2
27	27	8
126	127	6
3	4	3
23	25	3
120	121	5
125	126	7
31	31	7
98	129	7
112	112	8
6	6	7
108	108	14
20	20	7
62	62	10
87	87	4
104	114	1
68	68	2
41	41	12
98	128	3
25	26	8
19	21	4
48	49	7
132	132	2
129	130	5
21	21	9
65	65	4
53	93	3
46	47	3
66	67	2
13	33	1
131	131	12
96	97	4
118	118	6
97	97	2
76	76	6
91	93	3
125	128	3
44	44	5
60	60	9
81	82	1
77	77	4
116	116	4
49	49	12
70	75	1
72	73	5
77	95	2
125	127	3
99	99	10
120	120	3
121	122	4
125	125	4
8	52	2
86	87	4
39	59	1
42	43	1
124	124	12
27	52	1
66	66	7
14	29	1
1	6	2
39	47	1
114	114	4
54	54	7
50	83	1
59	59	8
100	107	2
82	103	2
72	101	1
57	57	10
16	16	5
113	113	5
8	8	4
45	47	3
72	72	5
101	103	9
40	44	1
39	39	3
96	96	1
92	92	3
90	90	13
102	102	5
29	29	4
40	41	2
102	103	7
7	7	5
15	17	2
107	129	1
50	50	6
45	45	5
17	24	2
75	75	9
88	88	1
4	5	2
127	128	2
124	131	4
84	84	3
97	98	3
5	121	2
41	42	4
71	80	1
127	130	4
104	105	6
14	15	3
96	125	1
4	4	3
71	71	4
75	76	2
67	74	4
101	101	8
3	3	2
129	129	2
48	48	5
43	43	4
130	131	2
117	119	2
58	61	2
22	22	4
106	106	2
73	74	2
98	131	3
43	44	5
11	12	2
32	33	1
38	38	2
50	51	4
113	114	2
103	129	2
78	92	2
5	5	4
26	26	4
80	80	8
95	95	8
29	30	2
18	19	6
78	78	3
49	50	3
66	75	3
58	74	3
29	63	1
100	100	7
61	81	1
63	63	11
62	74	3
103	118	1
40	67	3
19	19	5
47	47	6
92	93	3
62	75	1
69	71	2
61	61	7
126	130	1
38	39	2
126	128	4
40	45	1
55	84	1
10	12	1
73	73	4
67	67	4
12	66	1
85	88	2
59	74	3
60	80	1
56	56	2
41	59	2
58	95	2
52	53	1
108	131	1
14	14	1
53	54	2
113	124	2
95	124	4
113	117	2
86	88	1
79	103	3
30	30	1
21	41	3
10	42	2
84	104	2
0	111	2
42	42	3
102	113	1
61	67	3
39	66	1
26	29	3
34	114	1
55	77	1
58	58	3
12	23	2
91	92	1
11	41	1
96	127	1
26	28	1
93	94	2
7	52	1
31	32	3
115	116	2
85	85	3
108	119	4
107	127	1
109	110	1
126	133	3
65	66	3
126	126	1
127	127	1
56	102	1
86	86	5
91	96	1
108	114	2
26	34	1
98	98	1
82	102	2
85	107	1
102	130	2
117	118	1
103	130	1
1	1	2
79	101	3
25	25	1
79	79	3
98	130	2
87	91	1
25	66	1
61	84	1
2	8	2
28	67	1
1	2	1
16	17	2
58	62	4
23	31	1
69	70	1
43	116	1
74	76	1
3	5	1
59	62	1
78	79	1
56	58	1
49	83	1
68	72	2
50	84	1
121	121	1
51	98	1
55	55	1
10	11	1
13	22	1
6	7	1
24	24	1
1	3	1
109	113	1
