94	112	3
26	26	19
43	44	4
83	83	14
48	48	17
79	79	10
20	20	6
101	101	16
99	100	11
73	73	7
132	132	7
51	51	11
122	122	5
47	47	13
50	50	18
118	120	5
51	52	6
72	73	1
5	6	4
16	21	2
42	43	13
105	105	11
88	92	3
28	32	1
18	18	4
56	77	1
82	82	7
79	87	2
6	6	11
79	115	2
100	100	5
0	2	5
129	129	7
118	119	4
4	4	7
41	42	1
104	104	10
58	63	3
64	64	9
99	99	7
33	33	9
75	75	8
19	19	12
95	95	18
45	47	1
115	118	3
76	77	3
66	66	11
117	118	4
17	25	2
40	40	8
65	65	11
32	33	3
91	108	3
114	114	18
51	53	2
28	28	11
42	42	20
4	20	3
94	94	10
4	5	2
25	26	9
119	119	4
2	2	6
75	91	3
76	76	19
133	133	7
117	132	1
1	1	15
68	68	7
59	66	4
29	30	4
118	118	15
45	46	6
62	63	2
57	57	11
14	15	2
40	55	6
13	14	4
60	60	3
127	130	3
40	44	2
102	102	8
52	125	5
116	116	18
110	110	11
84	84	6
81	81	10
67	68	7
60	61	6
95	96	13
43	43	14
10	12	4
2	3	4
41	41	15
103	103	19
53	77	2
30	30	10
54	54	26
87	87	5
0	20	2
127	127	12
108	108	4
16	16	5
9	9	19
128	129	8
45	45	10
115	115	12
81	117	2
28	29	4
88	88	3
91	91	8
52	52	5
97	99	5
121	121	4
49	49	14
0	0	7
70	71	6
55	55	11
107	107	16
113	120	6
89	90	4
120	120	17
96	96	4
21	22	1
114	120	3
58	90	1
13	13	11
46	48	5
63	63	2
75	83	5
12	27	3
85	86	3
46	55	7
80	80	5
11	11	13
61	66	9
69	70	4
1	4	3
124	124	17
22	22	16
115	117	1
20	25	2
117	117	12
57	83	1
11	14	2
24	24	6
130	130	5
39	39	6
14	14	8
93	93	10
59	63	5
93	107	3
76	82	4
3	23	2
77	78	7
68	69	4
113	116	6
70	70	4
98	126	2
56	56	6
10	10	11
126	127	4
98	98	9
79	81	2
14	16	3
61	62	4
21	21	7
12	12	5
86	86	7
84	118	2
119	127	2
69	69	12
15	15	4
111	111	4
27	27	11
53	53	6
123	123	10
72	72	6
42	46	4
130	131	2
114	116	3
106	106	2
8	9	1
37	38	1
38	39	8
126	126	4
46	49	2
52	53	13
31	31	12
18	25	2
84	87	5
90	90	10
87	117	1
69	72	1
113	113	8
88	89	5
7	10	2
112	112	19
26	27	2
33	34	5
31	32	2
42	49	4
29	29	4
50	51	1
1	2	6
11	27	1
104	105	2
7	7	15
85	85	8
55	56	2
2	24	1
2	4	3
59	60	2
12	22	3
110	111	1
93	109	3
43	47	3
52	57	3
4	25	4
125	125	4
15	16	3
21	23	1
104	107	2
61	61	7
90	91	2
115	116	10
87	94	3
97	97	7
3	4	5
11	21	3
18	19	2
17	17	12
43	65	1
11	26	2
48	49	5
120	122	1
109	109	8
74	74	2
69	71	1
65	66	6
63	64	1
125	127	1
58	58	4
64	65	3
71	72	6
11	29	3
123	125	1
49	50	1
102	103	1
116	126	1
125	131	3
117	124	2
113	125	2
118	128	1
4	26	2
3	18	2
123	124	2
131	131	5
71	71	5
44	44	5
67	67	2
105	106	1
46	46	8
82	83	4
22	129	1
128	128	7
8	106	2
73	74	2
93	94	1
34	34	8
122	124	1
40	41	1
113	132	5
75	80	1
42	65	1
91	104	1
45	58	1
45	99	1
14	24	1
124	125	4
32	32	3
10	11	5
59	90	2
7	8	1
59	59	6
91	92	2
97	98	7
22	24	1
81	118	1
114	115	3
46	47	2
63	90	1
94	113	3
106	110	1
116	123	1
40	46	1
3	3	1
46	68	1
44	62	2
41	45	2
38	38	3
25	25	2
5	5	2
87	110	2
82	85	3
10	15	1
70	72	1
78	78	3
5	24	2
77	77	3
6	9	2
43	88	7
79	101	1
43	69	3
87	89	3
50	133	1
7	93	1
58	59	3
84	85	2
90	104	2
62	62	4
59	64	1
77	89	3
16	17	2
3	24	1
78	81	2
23	23	2
113	121	3
41	43	1
47	48	1
89	91	2
11	12	2
92	92	7
128	133	6
23	24	1
60	120	4
129	131	2
117	119	2
44	92	1
80	85	2
84	88	2
125	126	2
67	73	1
81	82	2
55	79	2
101	102	1
52	77	3
9	27	1
8	8	1
5	17	2
72	91	1
131	132	1
27	28	3
99	120	1
89	89	3
14	115	1
80	81	2
25	77	1
132	133	3
16	24	1
115	127	1
72	75	1
65	75	2
1	26	1
30	33	1
1	25	1
47	75	1
32	39	1
1	3	2
68	97	1
80	116	1
94	95	1
46	59	1
128	131	1
101	103	2
10	21	1
3	16	2
1	18	1
53	79	1
109	110	1
110	132	1
44	47	2
44	61	1
114	127	1
129	130	3
14	22	1
58	92	1
16	23	1
17	41	1
80	115	1
91	109	1
8	28	1
11	28	1
96	99	2
97	127	1
44	67	1
87	88	1
22	25	1
5	16	1
15	21	1
44	57	1
20	21	1
16	19	1
62	64	1
96	98	1
73	90	1
