75	75	38
31	31	14
15	15	11
3	6	1
127	127	51
27	27	21
97	101	3
122	122	47
120	122	3
111	111	30
31	32	14
27	29	7
132	133	17
1	1	6
109	109	14
100	103	3
102	102	45
137	138	18
94	96	1
73	73	41
17	18	22
16	18	2
34	34	44
112	115	6
74	74	36
133	133	30
103	105	4
20	20	32
94	100	3
30	30	11
19	19	19
140	140	33
121	122	15
118	118	21
115	115	30
110	111	16
113	113	26
104	105	7
16	17	5
112	112	28
2	4	9
110	110	23
127	128	14
128	129	17
18	18	23
87	88	8
12	12	15
131	132	21
20	21	5
139	139	21
111	115	1
13	14	14
18	19	16
77	77	25
2	2	21
94	97	6
72	73	4
93	93	26
32	32	19
27	28	7
76	76	14
96	96	33
97	97	18
116	116	31
7	7	19
4	5	6
128	128	47
123	123	39
16	16	26
132	132	45
21	26	3
138	139	10
6	7	10
84	85	2
138	138	30
82	83	12
116	120	3
36	36	15
87	87	7
137	137	22
124	125	13
130	130	43
3	3	14
98	98	14
33	33	14
114	114	31
134	135	20
81	82	6
8	9	18
22	22	29
92	93	8
134	134	49
125	125	37
32	33	2
123	124	17
72	72	34
91	91	21
35	35	24
17	17	20
0	1	9
79	79	12
89	89	34
19	20	12
98	99	15
122	128	3
107	108	4
4	4	26
129	129	36
10	10	10
88	90	5
86	86	11
119	121	14
125	126	22
29	37	2
90	90	23
121	121	31
117	117	34
136	136	30
12	13	8
28	28	11
71	84	6
0	0	11
30	31	2
126	127	11
123	125	4
109	110	9
95	95	13
112	114	7
113	115	12
74	89	6
78	78	14
118	121	3
25	26	10
73	87	1
131	134	2
2	3	6
135	135	30
130	134	2
26	26	28
119	120	9
88	88	15
26	29	4
15	18	1
6	6	30
75	76	3
120	120	17
21	22	8
80	80	10
101	104	2
22	23	6
92	92	13
101	102	8
104	104	9
71	71	21
124	124	56
131	131	37
108	108	11
25	30	2
5	9	2
129	130	9
23	24	5
9	10	11
93	94	23
128	135	2
100	100	34
21	23	3
23	23	14
126	126	35
102	104	3
135	140	2
118	119	21
13	13	24
107	110	2
102	103	5
91	92	3
35	36	13
3	4	7
33	34	6
72	94	2
115	116	11
107	109	1
73	75	4
21	24	1
90	91	9
99	99	7
120	121	11
108	117	4
79	80	9
116	118	5
14	16	2
95	98	4
72	74	5
86	104	3
106	110	1
108	109	12
119	119	23
91	93	2
139	140	9
71	74	4
5	5	22
21	25	1
9	14	1
25	25	17
112	113	12
126	129	3
122	127	1
95	99	2
114	115	7
25	73	2
21	21	12
85	85	10
8	8	6
76	77	7
105	105	13
84	84	8
89	90	14
28	30	1
73	102	3
14	14	5
28	33	2
37	37	21
121	125	5
111	112	9
23	31	3
28	29	7
103	103	12
16	29	1
96	97	4
133	139	3
28	31	9
117	118	8
80	81	12
97	98	7
72	104	2
85	86	3
109	122	1
6	11	2
9	11	2
122	123	9
37	38	5
71	78	2
82	85	1
10	11	3
100	102	7
7	10	2
6	10	3
6	12	1
81	86	1
138	140	4
104	106	3
109	123	3
4	8	1
17	19	3
72	75	2
130	136	5
80	82	5
110	112	1
101	103	8
11	11	8
97	107	3
73	74	8
110	121	3
81	81	14
33	35	1
26	27	3
1	5	5
71	90	3
74	75	10
111	114	2
4	6	7
81	84	2
102	106	2
75	100	4
127	129	2
80	103	2
1	3	3
34	35	8
105	106	5
94	95	5
108	115	5
100	107	1
111	121	2
74	101	1
113	114	8
9	9	8
88	89	4
16	95	2
86	87	6
136	138	1
3	8	5
23	25	1
26	28	2
93	138	3
133	136	2
11	15	2
82	82	7
7	8	5
24	44	6
76	88	2
36	37	6
24	24	6
29	29	8
130	132	2
122	125	3
87	91	3
72	93	7
88	93	2
125	134	1
67	77	1
24	27	3
117	122	2
83	83	3
94	94	8
133	134	6
72	80	1
15	16	6
135	136	6
107	116	1
135	137	3
94	101	1
88	91	4
95	96	1
0	2	1
101	101	16
108	112	2
35	138	2
38	38	4
12	18	1
100	101	12
4	15	1
122	126	1
1	7	5
83	84	7
124	126	7
16	33	2
85	91	1
116	117	7
129	134	1
134	136	3
38	109	2
93	95	3
36	138	1
26	32	5
27	34	3
5	6	10
31	69	2
128	130	3
29	30	4
115	119	1
4	14	2
123	128	1
117	123	4
82	84	2
73	101	1
125	129	6
16	28	2
23	29	2
109	111	2
96	111	2
111	117	1
29	31	2
35	140	2
118	120	3
103	104	5
132	139	2
5	8	1
114	117	1
89	95	1
130	138	2
72	85	1
117	120	1
99	100	6
133	135	3
111	119	2
87	90	1
122	140	1
96	98	2
19	21	4
74	78	2
89	91	1
24	32	3
109	118	1
10	14	3
105	107	3
14	15	3
136	137	2
1	8	2
113	116	1
0	9	2
77	78	1
16	78	2
96	100	1
131	136	1
107	107	1
11	12	2
27	33	1
15	20	2
14	17	1
76	91	2
13	15	2
135	138	1
97	99	2
120	123	1
140	141	1
101	107	1
87	92	1
124	127	2
116	119	1
131	133	1
103	118	1
30	32	1
124	128	2
24	30	4
121	123	1
130	139	1
136	140	2
15	17	1
89	98	1
72	86	2
26	31	1
71	72	1
13	17	1
126	128	1
97	111	1
129	135	1
73	105	1
24	26	1
5	11	1
111	113	1
130	140	2
101	106	1
7	9	1
76	79	1
121	140	1
5	31	2
117	119	1
98	100	1
2	5	1
102	134	1
102	107	1
10	13	1
71	91	1
29	32	1
130	131	2
109	115	1
71	73	1
24	45	1
2	7	1
71	75	1
16	26	1
109	120	1
113	117	2
31	33	1
118	122	1
117	121	2
11	17	1
122	124	1
96	119	1
101	118	1
24	35	1
125	127	1
106	106	1
