42	42	16
207	207	33
7	7	8
192	192	12
91	92	6
187	188	14
116	117	4
216	216	7
2	11	3
156	167	2
168	169	8
58	58	14
81	81	17
82	83	8
219	219	9
157	157	8
118	118	9
61	61	11
26	27	1
45	45	9
46	46	15
171	172	3
14	14	13
90	90	13
209	209	16
82	86	3
98	98	12
4	4	18
26	186	4
155	155	22
115	115	12
7	54	3
92	93	1
66	66	12
10	10	17
211	211	25
169	169	14
215	216	7
233	234	7
227	228	5
183	183	8
58	166	3
62	62	12
111	111	7
120	120	6
21	21	22
175	175	30
193	193	6
114	115	2
77	84	1
212	234	2
44	44	13
87	89	2
238	239	6
23	23	17
49	64	2
69	69	9
30	30	7
175	182	2
53	53	12
238	248	7
21	22	1
201	201	30
74	74	5
160	167	2
1	1	7
180	180	24
48	48	17
159	159	8
20	158	4
1	35	1
179	180	2
35	36	3
34	34	12
172	172	7
221	221	8
8	9	5
9	9	13
70	70	23
92	92	16
190	190	7
112	112	19
40	40	8
158	158	14
33	33	21
76	77	1
72	72	5
8	10	1
178	178	24
185	185	8
208	214	1
181	181	16
189	190	4
27	27	13
236	236	20
116	116	15
16	52	5
32	32	33
6	19	3
65	65	2
54	54	10
187	201	1
197	198	11
83	83	7
147	164	1
146	146	8
68	68	17
56	57	6
195	195	12
153	153	17
240	246	3
177	177	16
227	227	12
15	16	6
246	249	4
193	195	9
211	238	2
53	203	1
184	184	9
97	98	7
215	217	2
38	38	7
85	93	5
151	151	18
170	170	23
240	240	19
89	89	16
103	103	4
5	9	2
65	71	1
100	184	2
156	156	24
220	221	7
162	162	11
88	88	9
150	150	23
199	200	6
195	196	8
189	189	14
9	20	1
52	53	7
15	15	10
242	242	14
38	39	8
50	50	11
116	118	2
181	182	3
3	54	2
171	171	26
155	192	2
200	200	9
151	156	6
107	107	6
205	205	10
24	24	11
52	52	6
182	226	1
163	167	2
85	90	3
224	225	5
40	41	3
9	54	2
166	170	4
87	88	8
57	95	2
84	85	3
115	116	4
66	67	8
107	108	7
0	1	8
117	117	14
11	11	15
7	53	3
248	248	12
19	36	1
199	199	19
82	90	7
59	70	2
35	35	8
72	74	4
238	240	4
99	100	4
187	187	10
82	92	2
167	167	16
183	184	5
163	171	1
78	78	11
154	222	5
213	213	11
160	160	13
204	204	19
4	56	2
166	166	14
43	43	7
170	171	7
222	222	13
157	163	7
232	232	8
3	10	1
156	157	4
41	41	30
19	34	2
161	162	4
84	86	3
244	244	16
70	71	12
47	94	8
177	182	6
177	178	4
3	6	3
39	39	3
72	73	5
164	164	17
180	181	5
101	110	5
64	65	1
185	186	11
48	49	4
71	71	8
63	65	2
235	236	3
22	22	9
16	16	22
144	144	1
152	152	10
229	229	4
26	26	21
102	102	4
57	57	5
79	81	2
99	102	2
219	228	3
183	227	1
150	153	2
19	19	22
2	10	1
217	217	8
239	240	3
77	78	5
177	218	5
64	64	14
17	17	18
243	244	10
76	76	12
169	170	4
111	116	2
95	95	9
240	241	9
75	75	10
235	235	9
77	77	13
225	225	10
153	154	10
173	173	7
194	197	4
163	163	8
70	72	1
233	233	6
47	61	2
194	195	11
163	175	3
28	28	12
175	176	7
189	198	2
233	244	3
105	105	2
211	212	2
239	239	8
63	63	17
176	176	15
191	191	6
99	101	2
37	37	18
154	154	17
177	232	2
188	190	2
215	215	11
25	25	7
155	156	9
188	189	5
26	87	1
113	114	3
109	145	1
207	212	6
199	211	2
160	165	3
186	186	18
49	49	8
162	168	1
67	67	10
190	192	3
82	82	6
3	16	1
183	192	3
158	189	3
86	188	1
164	165	2
168	181	2
183	191	1
108	108	5
56	56	13
160	166	3
174	175	4
110	110	12
223	223	15
172	173	7
106	106	6
68	156	2
51	53	3
9	21	2
241	241	21
200	213	2
177	181	3
11	12	8
243	243	5
91	91	15
51	91	4
4	5	5
235	237	3
59	59	5
36	36	10
74	79	5
217	218	4
47	48	5
28	29	7
6	6	9
220	227	5
97	97	8
237	237	6
25	155	2
179	179	10
13	13	5
12	50	3
18	18	15
86	88	2
5	5	14
247	247	5
212	212	12
69	70	4
184	185	5
68	72	1
74	75	4
12	12	14
96	96	12
114	114	10
188	188	7
29	29	4
99	99	4
238	238	16
198	198	18
178	179	6
150	220	2
25	26	1
111	237	1
246	246	14
18	34	2
157	158	4
101	101	8
5	6	2
84	84	3
111	246	3
179	234	2
197	197	11
115	119	3
181	185	1
169	191	5
187	198	1
121	121	3
111	112	1
204	205	3
71	73	7
172	182	2
100	107	1
65	66	3
174	205	4
208	209	3
60	63	2
200	201	4
104	104	11
22	28	3
176	182	2
228	231	2
8	8	22
150	151	4
220	235	2
214	214	14
220	220	11
174	176	1
226	226	11
245	245	10
1	2	4
203	207	2
41	71	2
161	161	14
246	248	1
234	234	14
175	227	4
30	31	2
61	62	2
47	89	4
63	115	2
12	236	8
47	47	6
203	203	14
209	232	5
210	211	5
192	195	2
119	119	9
79	79	3
182	183	6
159	228	1
93	93	4
145	145	7
45	52	6
56	202	2
60	73	4
55	72	3
60	60	6
205	229	2
105	106	2
157	203	1
119	120	1
184	192	2
165	166	3
16	21	2
180	218	1
32	33	4
31	31	7
149	173	4
85	86	5
57	205	1
85	87	2
177	216	2
20	21	2
192	196	9
110	111	3
216	217	2
246	247	9
196	196	8
18	69	4
209	219	3
84	93	1
14	15	7
213	217	2
6	7	2
79	80	5
21	36	1
59	71	4
113	113	13
61	64	2
66	72	3
42	71	1
208	208	9
57	58	11
94	103	1
75	76	2
51	52	7
218	219	6
12	16	3
183	185	6
193	194	6
90	106	2
160	191	1
156	192	4
189	191	5
226	227	3
8	73	4
218	220	5
58	165	1
13	14	3
29	42	4
236	237	3
35	227	2
76	83	5
206	230	3
49	50	8
109	109	8
33	166	2
46	52	3
150	162	2
179	215	2
208	218	1
215	231	2
175	178	5
60	69	1
213	214	5
206	207	8
3	7	3
29	41	1
19	169	1
79	208	3
55	55	10
109	110	1
210	213	3
176	225	1
245	247	1
95	105	2
19	20	3
47	62	2
78	80	4
34	164	2
57	165	1
43	44	2
6	57	6
58	144	2
34	44	3
163	165	2
152	186	3
9	10	1
175	180	1
37	38	3
101	102	2
39	57	2
34	45	1
223	227	2
224	224	2
95	96	1
31	39	1
241	242	2
217	233	1
52	55	3
229	230	1
73	74	1
217	232	1
106	107	1
207	230	1
15	86	2
158	159	2
63	64	3
73	73	4
153	164	1
182	184	5
160	172	6
94	113	6
177	179	2
0	0	1
52	92	2
228	228	10
12	69	2
20	20	4
48	51	1
110	155	2
78	79	2
179	193	2
17	38	3
179	219	2
184	189	2
56	61	2
47	95	2
149	149	2
101	106	3
221	222	1
117	154	2
231	231	6
210	210	4
3	19	6
44	45	3
80	80	4
81	83	2
86	86	9
194	196	2
53	55	4
94	94	5
22	34	1
60	61	3
191	192	4
100	100	5
30	223	4
157	160	2
174	182	1
174	174	5
32	229	2
68	70	1
51	51	7
53	61	2
182	182	3
85	91	1
67	68	2
202	204	2
162	167	2
162	165	3
100	101	5
152	160	3
165	165	7
10	12	3
162	163	4
18	19	1
115	117	2
155	165	2
213	234	2
23	31	2
146	160	2
66	73	1
1	23	1
7	8	2
209	226	2
59	62	2
90	99	3
81	91	2
16	17	7
149	150	5
113	145	1
34	163	1
5	38	1
202	202	16
208	210	2
82	85	1
11	94	1
95	108	2
74	78	3
157	204	1
85	85	9
166	181	5
49	51	2
232	233	1
86	87	1
86	92	1
2	2	4
163	195	1
51	183	2
173	175	2
158	162	1
161	168	1
34	161	1
120	121	1
46	106	1
159	163	3
22	23	1
68	69	4
2	46	2
36	40	3
94	98	2
18	20	1
161	164	1
175	181	2
169	171	3
92	183	3
249	249	1
56	58	2
24	26	2
87	87	2
223	224	3
234	236	1
187	191	1
64	115	1
109	119	2
170	179	1
174	202	1
90	210	1
16	33	2
33	35	1
234	247	1
145	182	1
211	213	1
102	105	1
118	119	3
172	207	1
61	63	2
59	163	3
81	90	2
113	156	2
245	246	3
49	75	1
8	11	2
154	162	1
62	71	2
23	44	3
71	74	1
41	42	5
3	45	3
208	211	1
54	59	2
2	44	2
220	228	1
9	19	1
146	158	1
245	248	1
234	237	1
173	199	1
104	106	2
172	180	1
225	226	2
111	119	2
117	118	1
240	242	1
147	147	2
216	233	1
71	165	1
2	3	1
196	197	2
104	105	2
158	174	3
200	214	2
233	239	3
151	153	1
156	171	2
188	194	1
102	104	1
160	192	4
9	212	3
197	201	1
201	202	5
154	155	2
202	205	1
33	227	1
243	246	2
14	84	1
187	190	2
68	157	2
173	202	1
190	191	1
200	202	1
168	171	1
167	170	1
16	22	1
65	73	2
158	191	1
194	194	5
185	192	1
76	78	2
48	162	1
222	223	1
179	204	1
214	217	1
192	209	1
54	55	1
223	226	1
153	156	1
203	204	1
167	197	2
179	210	1
34	35	4
238	246	3
229	231	2
173	174	3
46	47	2
98	114	2
176	181	1
175	209	2
98	100	2
221	225	1
170	181	2
28	33	1
215	232	1
163	164	1
152	159	2
89	185	1
206	206	1
164	181	1
69	71	2
84	89	2
59	60	2
178	184	1
19	38	4
94	96	1
15	46	2
167	169	1
31	230	1
14	36	1
169	176	1
45	46	2
113	117	1
213	219	2
51	172	1
201	230	4
188	191	1
77	79	1
6	20	1
104	116	1
112	113	1
88	99	1
244	247	1
166	171	1
159	195	3
91	93	1
111	115	1
212	213	1
231	232	1
168	168	1
174	200	1
28	239	1
41	43	1
173	206	1
191	196	1
209	210	1
219	230	1
16	35	1
59	68	1
244	245	2
213	231	1
183	195	1
50	51	1
15	163	1
170	191	1
168	178	1
46	48	1
4	49	1
98	116	1
22	37	1
62	65	1
62	68	1
214	236	1
160	190	1
233	247	1
37	40	1
186	202	1
66	238	1
113	120	1
156	159	1
218	218	1
80	81	1
22	32	1
234	235	1
230	230	1
183	193	1
6	237	1
197	213	1
56	59	1
