93	94	9
87	88	8
113	113	31
66	69	7
112	112	5
69	69	13
56	56	13
80	80	19
29	29	11
46	46	15
81	83	3
99	99	4
87	87	17
104	104	13
78	81	2
101	101	14
90	90	16
70	70	8
84	86	4
22	26	5
76	77	12
75	75	13
77	77	9
82	82	9
88	91	2
110	110	23
20	101	3
84	85	8
38	39	5
94	96	2
105	105	13
24	24	5
97	97	12
95	95	10
44	47	1
26	27	4
41	41	21
35	35	11
85	86	1
62	68	3
111	111	12
68	88	4
36	80	4
67	68	2
21	52	5
85	85	10
100	100	7
63	68	2
44	44	6
92	94	5
64	64	15
24	28	5
38	38	21
74	74	20
63	63	10
30	30	24
107	107	19
73	74	3
28	28	15
58	59	15
42	42	12
78	78	11
98	98	4
49	49	14
21	21	9
86	87	12
66	66	3
94	94	2
53	53	2
39	39	12
82	83	4
77	78	1
74	75	5
67	69	2
20	20	2
61	61	11
45	45	10
34	34	5
92	92	5
96	103	3
55	57	2
82	85	8
84	84	15
62	62	5
114	114	6
109	109	10
71	71	7
32	33	14
57	57	6
93	93	13
62	71	4
101	103	4
34	35	3
101	102	7
73	73	9
64	68	4
26	92	2
68	68	10
42	80	5
71	72	15
90	91	10
51	51	20
63	92	2
81	81	14
60	77	4
54	54	3
31	31	5
31	32	4
67	67	19
89	90	1
43	43	10
108	108	11
103	104	3
62	106	3
81	84	3
30	31	1
105	106	4
86	86	6
76	76	16
37	37	7
61	79	3
109	110	7
102	102	8
66	72	2
91	91	20
56	57	3
88	89	5
91	92	4
79	79	4
106	108	4
26	28	2
68	69	3
80	81	5
39	40	2
96	97	5
108	109	5
76	88	4
73	82	3
89	89	11
106	106	5
72	73	1
72	72	10
104	105	2
33	90	1
57	58	4
65	65	14
70	71	3
59	59	9
20	24	2
29	34	3
113	114	7
104	115	1
96	96	9
26	45	3
48	48	4
27	97	1
97	101	5
36	36	4
23	23	7
22	72	2
31	39	1
63	69	4
63	65	1
103	103	7
39	95	2
57	59	4
31	92	3
60	69	2
20	26	2
52	52	1
35	36	3
46	98	1
107	108	6
75	76	2
78	79	3
58	58	3
98	103	2
26	95	1
99	100	4
40	40	8
53	54	2
31	38	6
55	59	4
53	55	1
59	60	1
55	69	4
41	42	5
85	93	2
19	19	4
62	73	1
69	71	1
55	55	8
72	82	1
46	53	2
112	113	2
58	107	2
51	52	3
60	61	1
83	83	5
106	107	2
99	101	2
61	78	6
70	73	1
64	69	1
44	45	2
32	32	2
47	47	4
76	78	3
110	111	1
57	104	3
62	70	5
102	107	3
27	27	4
62	63	2
53	98	2
49	73	1
56	71	2
59	78	1
36	95	2
26	26	1
66	105	1
62	65	2
27	38	2
80	85	1
28	40	2
26	97	1
20	25	2
61	77	2
22	22	2
50	50	5
60	60	4
81	82	2
61	87	1
103	109	1
25	28	3
80	99	1
35	93	2
54	56	2
111	112	2
34	51	5
59	61	3
88	88	2
47	80	1
100	101	2
50	51	1
57	61	3
67	82	1
73	75	1
28	46	1
40	41	1
26	98	2
29	66	1
71	84	1
33	34	1
65	66	3
42	44	1
24	51	4
26	46	1
92	93	1
90	95	2
81	85	2
104	106	2
87	113	1
54	55	1
25	40	1
88	92	1
105	107	1
55	102	1
74	86	1
28	29	1
61	62	1
66	67	1
63	70	1
24	25	1
69	88	1
33	33	1
79	98	1
58	102	1
83	85	1
70	77	1
111	113	1
