77	78	7
27	27	7
1	1	11
67	78	3
79	80	10
125	125	23
107	107	22
135	135	12
110	110	21
106	107	13
107	113	2
94	95	10
121	122	10
112	115	4
20	78	3
86	86	19
55	55	9
93	93	21
115	115	10
69	70	7
73	73	13
5	119	3
118	130	1
65	66	3
20	20	17
87	110	2
103	103	21
58	58	5
129	129	26
107	122	9
78	78	21
113	113	23
15	16	4
96	97	3
44	44	7
112	112	21
129	133	10
128	128	16
86	117	1
85	112	1
62	62	20
60	60	9
111	111	21
68	68	10
123	123	13
3	3	8
121	121	23
2	3	2
34	54	1
23	32	3
18	30	1
109	110	13
43	43	16
60	61	7
30	30	13
61	61	20
77	77	26
97	97	23
81	81	15
3	4	10
95	95	21
9	9	8
30	88	1
92	93	5
98	98	31
96	96	20
113	115	4
126	126	17
77	79	7
130	135	4
66	82	2
107	108	4
55	82	1
75	75	14
15	15	13
103	104	5
92	92	17
97	123	7
8	8	16
125	126	4
122	122	18
67	67	15
98	121	1
83	108	3
45	54	2
71	72	10
100	108	2
82	86	1
95	107	5
26	95	2
91	92	8
80	80	11
100	102	10
89	89	16
44	45	5
110	119	2
44	48	1
62	63	17
61	113	2
62	64	3
43	63	1
43	80	3
102	102	14
106	106	18
116	117	10
114	114	14
116	116	22
18	31	2
87	87	12
8	9	5
91	91	21
131	131	29
23	23	11
66	85	1
47	80	2
69	69	11
1	2	9
72	72	14
56	56	18
133	133	9
50	52	7
131	132	5
58	85	1
37	54	3
124	124	13
19	19	5
108	109	2
55	84	6
61	65	2
42	42	6
81	119	1
104	104	16
30	32	2
54	54	20
14	14	10
65	67	2
84	115	3
108	108	16
25	25	9
26	49	2
68	83	5
48	48	2
68	69	7
68	86	2
37	37	3
91	126	3
94	94	22
29	29	10
100	127	2
128	130	1
90	90	19
35	35	6
21	21	8
6	7	6
129	130	12
127	128	9
84	84	16
118	119	2
82	106	2
59	59	4
84	85	9
120	120	20
133	134	4
26	32	3
73	77	1
32	33	3
37	38	3
76	77	2
82	83	11
80	84	3
99	99	14
49	49	16
115	116	11
34	75	6
22	22	6
101	101	26
67	68	4
3	5	6
92	95	1
88	88	11
78	81	4
2	2	8
95	96	7
132	132	19
36	37	2
31	31	13
45	45	6
74	74	22
28	28	11
90	91	9
104	105	10
119	119	17
10	11	3
119	130	1
16	16	3
12	12	13
13	13	8
23	24	2
65	65	20
100	100	11
66	66	10
108	110	12
96	123	5
88	94	1
33	33	9
27	28	11
117	117	24
48	78	2
49	78	4
127	127	14
32	88	1
54	55	4
63	63	9
19	20	4
85	85	5
96	122	7
52	52	16
112	114	3
50	54	6
86	88	3
61	114	3
117	118	3
95	112	2
112	116	3
50	50	9
82	98	6
24	24	10
126	127	11
123	125	3
109	118	4
105	105	13
43	52	3
79	82	4
34	35	7
88	106	2
82	82	13
130	130	14
18	19	2
106	125	3
103	105	1
18	18	7
70	70	13
33	34	7
89	119	3
62	65	5
4	5	10
105	110	1
80	88	1
26	36	2
24	30	1
108	117	2
83	83	8
116	119	3
89	105	2
11	11	7
46	46	5
78	79	4
113	114	6
107	119	2
79	111	1
115	119	2
13	15	1
130	134	2
19	31	1
59	84	1
33	35	4
127	134	1
106	120	1
4	4	8
64	64	13
61	84	3
11	30	3
64	66	2
132	133	6
68	78	2
23	53	5
7	7	11
5	5	14
66	79	1
45	59	2
66	83	1
53	53	5
126	133	5
7	9	8
24	79	2
60	85	3
105	106	2
26	26	11
25	26	4
98	120	5
23	75	2
57	57	4
100	128	6
93	94	8
82	97	3
67	69	1
109	109	20
80	81	4
81	86	2
29	30	1
57	58	3
10	19	6
47	65	2
128	132	2
71	71	17
94	106	3
34	34	6
36	36	6
24	26	1
102	103	3
63	65	4
43	44	3
32	32	3
17	17	4
87	108	4
26	34	2
60	63	2
43	86	1
25	34	3
98	117	2
12	70	1
27	29	3
52	53	10
120	121	5
44	50	3
6	11	2
46	52	2
99	124	1
87	106	5
109	111	3
130	132	2
72	75	3
114	116	2
77	80	1
122	123	6
134	135	2
64	65	3
10	10	10
47	51	1
101	102	3
118	118	12
127	130	1
10	16	1
47	48	1
53	54	4
114	115	4
79	81	4
112	113	6
131	133	4
46	47	5
7	29	2
98	105	2
28	29	4
70	74	3
71	73	6
84	118	1
91	93	2
61	86	1
83	84	8
71	118	2
134	134	10
48	61	2
72	80	2
42	44	4
24	25	5
76	76	19
107	110	3
61	87	4
79	88	3
71	80	1
88	89	3
92	94	3
68	72	2
31	32	3
83	111	2
86	87	5
30	31	4
106	109	3
8	28	3
64	84	1
63	64	6
123	124	8
119	120	8
62	76	1
94	111	3
24	68	1
119	123	2
8	11	3
59	85	2
21	22	2
120	122	1
100	129	2
49	51	2
80	105	1
6	6	3
43	103	1
93	102	1
88	90	1
82	87	2
110	118	2
0	0	5
111	115	3
61	62	3
112	131	1
11	12	1
129	135	1
87	115	3
52	79	1
83	87	3
67	79	3
13	20	3
56	58	3
12	13	5
79	79	13
35	63	3
36	38	1
106	122	8
55	83	2
98	102	2
63	69	4
78	87	1
80	113	1
80	107	1
88	105	3
117	133	2
82	84	2
56	84	2
81	123	2
98	106	4
9	15	1
100	101	1
15	18	2
53	55	4
108	122	2
122	124	5
14	15	1
108	111	4
7	11	1
112	129	1
69	75	1
99	129	1
83	86	3
107	109	5
11	13	2
110	111	5
33	92	2
72	85	1
105	111	1
64	85	1
111	113	3
106	112	2
124	126	1
83	113	1
33	65	1
89	90	5
37	42	1
93	95	1
120	130	1
64	81	1
96	98	2
66	67	2
59	60	1
38	38	4
115	118	2
86	119	2
83	96	2
119	122	5
121	129	1
97	118	3
91	112	2
13	23	7
64	67	1
69	85	1
91	94	1
25	69	1
26	87	2
102	109	1
86	120	1
87	111	1
55	59	2
106	123	1
16	20	1
77	107	1
98	101	5
9	27	2
67	77	1
49	50	1
51	51	2
0	3	1
115	117	2
59	75	2
58	61	2
36	54	3
128	129	3
11	15	1
127	131	1
32	53	1
110	112	2
72	79	1
47	47	1
95	118	1
125	131	2
73	74	3
11	29	1
30	89	3
82	85	3
87	96	1
16	17	1
105	113	3
87	122	1
103	107	1
128	133	2
9	10	1
38	44	3
126	130	1
99	123	2
24	49	2
95	109	1
44	53	3
35	38	1
97	122	1
13	19	1
14	20	1
52	54	4
18	21	1
105	123	1
101	123	1
64	82	1
20	23	1
69	72	1
33	69	1
70	75	1
7	95	3
64	76	1
99	102	1
26	77	1
88	98	1
124	125	3
52	74	1
31	33	1
113	123	1
130	131	3
94	105	2
77	84	1
72	73	2
39	39	1
45	47	1
61	64	2
87	97	1
98	99	1
81	98	1
131	134	1
45	61	1
10	18	1
11	14	1
87	113	1
7	8	2
67	81	2
110	117	1
77	87	1
46	67	1
62	68	1
56	57	1
110	122	1
111	116	1
118	120	1
38	39	1
1	3	2
34	68	2
119	135	1
32	34	1
43	50	1
97	98	1
132	134	2
65	86	1
65	82	1
89	97	1
68	77	1
129	132	2
72	87	1
99	100	1
87	88	1
67	84	1
79	99	1
57	59	1
60	67	1
115	125	1
72	116	1
84	119	1
13	17	1
74	75	1
99	128	1
105	127	1
48	60	1
90	94	1
109	112	1
87	119	1
87	123	1
93	120	1
35	36	1
