33	57	2
75	76	3
20	23	6
100	100	9
21	21	13
63	79	1
61	61	15
69	69	10
93	93	8
91	91	15
48	49	6
77	78	7
53	53	14
24	70	3
84	85	16
59	59	13
79	80	7
57	82	2
30	30	5
38	38	16
99	107	6
41	72	1
42	58	2
21	22	5
76	78	1
42	45	6
81	81	14
90	92	6
67	67	12
107	107	2
48	48	7
83	86	2
62	81	1
74	74	15
96	97	3
76	76	7
82	83	3
82	82	12
45	49	14
103	103	12
50	50	10
86	86	11
31	32	3
85	85	11
105	105	6
73	73	16
45	48	6
31	57	3
70	70	8
37	37	3
61	93	4
93	94	11
83	88	6
33	55	1
62	97	3
83	83	14
26	27	4
53	54	5
49	49	1
38	39	8
48	51	2
25	38	3
41	59	2
97	97	11
34	34	7
24	24	7
63	64	6
65	65	11
79	88	1
27	27	17
41	41	12
29	29	9
102	102	14
45	61	1
63	63	12
62	62	5
28	28	6
42	42	11
91	92	7
65	67	6
94	97	1
66	69	3
62	66	4
96	96	7
48	78	1
23	24	3
68	68	9
69	70	18
102	103	3
42	99	3
26	26	8
58	58	6
45	57	4
54	55	1
89	105	4
61	69	4
77	104	3
34	54	8
46	48	4
87	87	7
46	101	3
56	59	5
51	51	5
63	68	3
94	94	6
92	100	1
52	66	2
32	103	1
63	66	2
55	56	4
70	71	1
29	30	3
20	21	4
75	75	13
83	85	5
28	29	1
49	51	5
81	99	1
90	91	3
88	90	1
36	38	6
65	85	3
27	32	2
89	90	5
65	66	5
79	81	2
61	66	3
103	105	3
79	106	2
46	46	4
66	86	1
96	100	4
99	99	3
49	107	3
66	67	1
71	71	6
37	73	4
62	67	3
40	59	1
80	107	2
88	89	9
96	106	9
78	78	5
53	105	2
57	57	3
35	35	2
96	99	1
46	95	1
101	101	8
83	84	2
60	60	6
27	30	2
62	63	8
93	98	2
45	97	2
86	87	1
47	78	2
32	32	4
66	89	4
33	33	3
26	29	1
104	104	8
43	43	5
33	38	1
49	50	4
29	55	1
80	81	3
92	93	3
36	70	2
46	92	2
60	62	4
63	95	1
82	85	3
59	60	2
98	99	4
89	89	4
68	69	3
27	49	4
22	23	2
84	84	12
85	87	1
98	98	11
99	100	3
95	95	6
39	39	3
44	44	4
64	64	1
80	80	6
55	55	13
44	99	1
63	94	1
66	66	5
34	40	3
26	77	3
58	59	2
59	86	4
20	24	5
82	84	2
99	101	2
38	68	1
95	106	2
36	39	3
37	75	1
47	66	2
56	56	4
20	22	2
100	105	1
31	76	1
31	31	2
51	52	3
78	102	2
36	36	9
95	96	3
67	68	1
60	61	1
33	34	2
40	45	2
55	76	2
77	77	3
37	38	3
25	25	4
79	79	2
59	73	1
48	52	3
22	51	2
52	54	1
47	97	1
58	85	1
64	65	3
52	52	1
73	74	1
47	47	2
40	40	2
27	54	3
23	23	2
41	42	2
71	72	1
23	71	2
59	93	2
92	94	6
37	42	1
27	28	1
73	101	2
61	72	4
90	96	3
65	79	1
43	44	1
58	100	1
45	59	3
72	72	2
31	72	1
97	99	2
30	56	3
39	40	1
48	87	1
45	47	1
79	94	2
43	79	3
25	41	1
90	90	4
32	75	1
101	102	4
80	101	1
44	49	1
39	72	1
88	99	1
42	43	1
40	43	1
22	52	1
96	98	1
81	85	1
38	41	1
20	20	1
20	52	1
63	80	1
23	25	2
23	50	1
36	37	2
82	88	1
67	69	2
45	98	1
72	73	1
51	90	1
55	57	3
88	93	2
41	77	1
49	63	2
82	92	1
38	57	1
64	79	1
54	57	1
50	52	3
33	106	1
52	53	1
45	56	1
93	95	1
30	33	1
38	98	2
89	96	1
94	98	1
61	63	1
62	90	1
94	95	1
45	99	1
92	92	1
84	91	1
25	28	1
47	101	1
87	88	1
97	106	1
63	65	1
65	70	1
106	106	1
