70	70	5
6	35	2
29	29	5
147	147	7
146	146	4
81	81	4
152	154	2
41	43	4
132	132	3
48	48	7
114	115	2
122	122	7
54	84	2
12	136	3
81	94	1
127	127	13
28	30	4
65	66	7
4	7	4
45	46	3
3	6	2
8	22	5
126	126	6
39	39	9
90	92	3
38	38	3
54	83	3
145	146	3
79	82	3
103	127	1
34	36	3
145	145	2
121	121	3
97	98	6
78	85	1
19	19	5
18	21	1
136	137	2
78	78	3
22	23	1
124	124	11
4	12	1
25	25	5
116	116	11
15	16	4
8	18	1
84	103	2
8	32	1
79	80	5
19	21	5
96	96	1
87	102	3
76	76	9
41	41	8
154	154	4
116	118	4
89	102	2
44	44	14
11	16	6
27	30	1
18	18	5
71	71	10
150	150	3
18	19	5
127	147	5
81	82	2
72	72	3
84	84	8
99	100	1
34	35	5
87	98	2
148	148	3
129	129	3
93	93	4
10	10	2
105	105	2
112	112	1
64	64	1
110	113	2
45	45	6
111	113	3
77	77	7
30	30	4
66	75	1
14	15	1
17	17	5
39	40	2
13	126	1
57	57	6
32	32	4
11	11	9
51	55	1
85	85	4
9	10	1
84	85	8
123	144	6
66	67	3
86	86	2
24	24	4
125	145	2
53	53	3
62	62	7
108	108	3
121	122	4
133	133	12
145	147	1
11	12	2
15	15	9
65	67	5
62	65	1
23	24	2
13	14	4
95	95	9
135	135	4
52	57	3
17	19	2
4	4	5
113	116	2
111	111	3
14	14	1
86	87	5
39	42	1
104	105	2
20	20	1
142	142	3
118	119	2
22	22	1
9	9	4
143	143	3
55	85	1
77	78	1
82	82	5
141	146	5
153	153	1
72	82	1
29	31	1
124	132	4
147	148	3
152	152	6
42	42	7
90	90	1
56	56	2
33	33	3
115	115	9
97	110	1
49	52	1
69	69	4
103	103	8
28	29	4
4	6	5
106	112	2
129	130	1
98	98	1
119	129	5
75	110	2
54	54	5
15	124	1
101	111	4
40	40	6
8	9	1
109	109	2
51	68	2
93	95	3
4	34	1
72	88	1
131	131	3
72	83	2
29	135	1
46	46	4
81	85	3
107	107	2
19	22	4
31	31	9
99	99	3
46	50	3
67	100	5
40	41	2
63	63	2
45	50	2
63	77	4
143	149	4
104	106	3
27	27	1
64	82	1
21	22	3
138	138	1
88	99	1
28	28	2
145	148	4
132	134	2
7	8	1
101	101	4
52	117	2
114	114	4
39	135	1
68	69	3
145	151	2
45	51	1
27	28	3
128	128	1
28	136	1
97	126	1
85	102	2
143	144	4
43	43	1
2	3	2
11	36	3
13	122	1
92	92	1
87	103	1
35	117	2
24	93	2
98	99	3
73	74	2
21	21	3
4	5	2
12	12	1
87	87	2
94	94	4
106	128	1
149	149	2
70	107	1
17	18	1
78	82	2
135	136	4
55	55	3
10	13	1
86	100	2
20	21	1
43	49	4
75	75	2
45	83	1
117	117	1
11	13	2
54	55	1
120	132	1
85	98	1
11	121	2
16	37	1
78	83	2
51	83	5
123	124	3
106	106	2
121	127	2
38	80	1
25	30	1
58	58	1
7	7	2
23	23	2
127	128	1
118	118	1
93	102	1
125	144	1
34	34	1
127	148	1
71	116	1
13	13	2
71	104	1
5	5	1
10	12	1
4	35	1
73	83	1
62	63	1
101	126	1
17	38	1
8	8	1
57	115	1
36	38	2
54	86	1
24	25	1
134	134	1
94	97	1
55	117	1
119	135	1
102	102	1
112	116	1
122	132	1
41	42	1
129	152	1
47	48	1
68	68	1
69	94	1
32	33	1
122	123	1
93	96	1
36	40	1
74	74	1
83	83	1
12	30	1
67	67	1
40	63	1
47	53	1
