68	68	17
41	41	13
57	57	14
25	26	5
60	62	2
93	93	8
73	73	23
105	106	10
35	35	11
32	32	6
29	53	1
101	103	4
43	43	14
39	39	5
95	95	15
80	80	22
41	42	11
108	108	17
104	106	4
66	66	9
61	61	14
26	27	5
38	38	27
96	97	4
112	112	7
24	24	10
101	102	11
76	76	18
91	93	2
88	88	19
87	87	26
88	104	6
53	53	7
76	102	1
103	104	7
33	71	1
40	40	3
68	69	5
86	87	11
70	70	14
101	101	16
35	36	4
60	60	15
22	22	9
80	99	1
65	66	7
87	88	8
61	63	4
51	51	12
33	34	12
102	102	9
45	45	20
104	104	21
78	98	15
35	38	2
65	67	1
75	75	31
83	84	13
64	64	15
23	24	1
64	65	2
63	63	13
92	93	4
90	91	6
54	60	4
49	49	10
91	91	14
65	77	2
37	37	15
113	114	4
25	25	7
59	59	7
54	71	1
92	92	17
100	101	7
76	77	9
99	99	22
103	103	14
107	108	9
50	50	15
66	72	4
71	73	2
67	67	10
36	36	11
113	113	19
52	55	5
79	79	11
72	72	8
97	97	16
74	74	14
21	22	3
90	90	14
34	34	10
65	110	3
22	24	4
43	44	1
69	69	15
71	72	6
63	64	3
85	86	14
109	109	15
85	94	1
48	48	4
94	94	6
83	85	2
105	105	18
79	82	2
28	62	2
76	98	1
72	74	5
52	52	19
73	74	16
84	85	5
56	76	3
77	77	12
91	101	2
23	23	6
88	99	3
83	83	19
77	83	3
55	56	5
52	111	2
110	110	14
45	46	3
30	63	3
56	58	6
65	65	11
105	107	3
61	107	1
78	79	9
28	29	9
27	27	9
52	112	1
31	31	3
102	103	11
108	109	3
86	86	14
106	108	3
77	85	1
82	82	19
20	20	6
21	21	4
55	55	4
55	57	1
89	89	11
95	100	2
106	107	5
114	114	15
67	71	2
100	100	3
109	111	3
81	81	8
65	72	5
85	85	13
84	84	21
83	86	1
46	46	11
82	84	2
74	75	7
35	86	3
34	35	4
56	56	8
55	58	2
93	94	12
36	37	7
33	33	12
71	71	18
52	60	1
82	83	8
112	114	1
89	91	8
81	103	1
75	76	2
98	98	17
33	106	3
72	73	3
78	78	8
60	61	14
48	49	8
56	75	1
30	30	10
92	94	4
110	111	3
79	84	4
59	60	6
77	98	2
92	98	2
47	48	6
111	112	4
47	47	6
80	81	4
97	98	2
50	53	2
79	83	4
42	43	4
89	104	4
98	99	3
49	50	3
30	62	2
40	41	2
69	70	3
61	62	1
78	80	4
54	54	7
85	92	2
36	86	2
27	28	9
50	51	4
38	39	3
44	44	1
95	98	1
63	73	1
77	81	1
77	78	4
84	92	3
104	105	7
96	96	6
55	60	4
19	22	3
67	72	1
85	101	1
56	57	3
93	103	2
86	88	1
75	77	2
91	94	2
28	113	3
32	41	1
48	63	1
31	34	3
100	108	2
94	106	3
83	95	4
94	95	5
97	99	3
81	85	3
106	106	15
76	85	1
26	26	2
109	110	7
78	84	3
42	42	8
22	23	1
104	107	2
20	22	3
73	92	2
19	19	5
95	96	3
80	83	1
21	24	1
95	97	4
42	45	2
111	111	3
84	96	1
46	47	1
32	72	4
43	45	1
58	59	4
62	71	1
61	67	1
31	32	4
39	91	1
112	113	4
62	73	5
32	34	1
47	49	2
42	44	3
41	91	1
62	62	3
67	69	2
85	103	4
24	25	2
81	82	1
47	62	2
49	80	2
99	100	4
91	99	3
91	92	5
100	102	1
79	98	2
95	110	2
62	63	5
29	52	1
24	28	2
74	77	1
88	89	5
62	64	1
58	58	6
79	99	1
91	95	2
45	102	2
33	92	2
29	29	1
62	66	3
66	68	2
90	100	1
41	49	2
85	88	1
67	68	1
35	85	2
45	47	2
28	28	5
34	36	1
37	38	2
36	95	2
100	103	2
41	92	1
73	81	2
44	45	2
103	108	1
37	95	2
65	73	1
33	35	1
24	27	1
66	71	1
90	99	1
79	80	3
46	48	2
19	29	1
86	93	1
76	92	3
83	102	1
79	81	1
50	79	1
33	93	1
82	87	2
32	93	1
66	76	2
51	55	2
39	40	3
115	115	1
94	103	1
76	78	2
107	107	3
53	54	1
74	76	1
55	59	2
30	31	1
41	44	1
32	90	1
86	89	1
71	110	1
52	110	2
35	84	2
85	87	1
52	109	1
93	95	1
60	64	1
73	76	1
53	69	1
37	61	1
