0	1	20
3	8	5
113	113	20
93	116	4
103	105	6
44	44	15
123	123	35
79	79	39
147	147	32
15	15	13
119	121	3
117	117	45
97	141	3
58	78	6
9	148	1
95	95	28
40	40	12
40	41	13
124	124	32
91	92	10
104	104	17
23	24	12
81	81	26
103	104	9
84	84	23
54	55	13
134	140	3
92	94	6
109	135	8
144	147	3
98	99	6
78	78	17
47	47	17
105	105	26
2	5	12
134	134	25
10	10	25
4	5	6
53	71	2
50	50	26
114	114	27
115	115	19
52	52	22
142	150	6
83	84	13
108	130	8
96	96	17
93	93	21
53	67	1
142	142	23
2	2	9
39	43	3
31	31	24
22	22	19
41	41	42
112	112	15
21	21	21
20	21	6
150	151	5
67	69	6
20	22	3
20	20	8
82	83	5
33	34	9
118	140	6
63	63	27
112	117	1
129	130	25
156	157	16
47	65	1
9	9	25
8	8	26
155	155	13
154	154	8
18	44	3
39	39	25
48	49	8
18	18	21
101	115	1
20	40	8
26	28	15
30	30	7
19	19	36
31	43	2
108	108	15
121	122	27
39	41	1
16	17	10
67	67	16
19	22	11
26	29	2
146	146	9
122	122	32
124	126	10
23	25	8
54	54	13
77	77	26
98	100	1
142	143	8
151	151	16
73	73	24
89	92	8
27	31	1
85	85	18
7	7	27
111	112	24
51	52	15
75	75	26
84	85	21
106	107	16
125	125	24
66	66	20
116	116	14
80	80	15
130	137	5
28	28	21
118	119	7
109	109	20
48	48	22
95	96	11
97	97	17
35	35	17
148	149	8
115	128	1
144	144	21
35	51	7
4	4	28
77	86	4
64	66	6
110	148	3
129	129	24
140	140	7
29	30	20
131	131	23
135	135	36
5	5	14
90	91	19
38	39	15
134	139	2
17	17	11
108	129	5
36	36	17
40	79	3
87	87	24
100	100	32
74	74	7
148	148	16
14	14	18
68	70	8
43	43	22
96	97	9
126	127	4
156	156	21
93	95	7
131	138	4
70	71	5
68	68	7
113	115	9
133	156	1
42	42	22
131	137	3
62	69	2
3	54	7
25	26	5
111	111	19
28	29	7
128	129	7
104	105	5
148	150	1
27	28	12
86	95	7
26	27	17
8	11	7
82	82	21
12	12	14
51	51	8
90	90	37
3	3	16
13	14	11
55	79	6
26	26	43
17	21	1
92	95	8
132	133	8
150	150	18
30	100	2
155	156	13
11	12	18
53	54	4
8	12	7
1	1	8
7	8	11
22	23	15
31	67	4
34	34	16
32	32	20
130	131	4
64	64	13
131	139	1
46	46	26
18	19	8
63	64	2
154	155	6
135	157	1
98	98	34
105	106	12
127	132	3
109	110	5
15	16	4
45	48	2
31	66	4
107	107	22
88	88	26
120	137	3
50	52	7
119	124	5
89	89	19
92	93	18
30	45	2
2	6	4
83	83	7
112	121	3
158	158	16
80	81	23
51	54	4
139	140	13
23	23	14
86	87	8
103	103	18
7	23	2
151	152	10
45	45	28
130	130	26
91	91	36
35	45	2
49	52	1
66	67	12
2	4	6
25	30	1
23	29	6
114	120	6
153	153	12
89	91	11
116	117	14
83	86	3
32	33	4
92	115	4
141	142	6
19	20	19
65	67	4
102	155	2
16	19	4
94	94	16
153	155	5
106	106	16
33	55	4
42	43	13
28	30	3
121	121	23
37	38	10
16	73	1
141	150	1
101	101	24
88	89	14
100	107	2
149	149	27
71	71	11
157	158	10
127	128	2
118	141	3
80	90	8
137	137	22
110	111	3
50	51	12
53	53	10
137	138	13
69	71	7
133	133	23
51	65	1
40	44	2
72	72	10
119	120	8
117	142	3
13	13	14
84	86	7
29	29	29
0	2	2
110	119	1
113	117	6
122	123	9
117	118	4
132	132	26
18	103	5
48	82	5
10	54	2
7	53	1
13	28	1
136	139	2
77	78	7
157	157	9
121	138	3
143	143	1
100	101	4
80	84	2
0	0	17
29	44	2
35	48	2
118	118	12
27	27	10
11	11	24
35	36	19
54	56	8
95	127	5
138	139	8
88	91	1
20	24	1
9	10	12
38	38	16
107	145	1
69	70	5
50	79	5
139	139	18
7	10	1
27	98	5
50	86	2
109	111	4
115	116	12
87	88	11
91	96	2
124	125	9
24	24	14
131	136	2
94	95	6
12	13	6
34	35	6
69	69	14
141	141	14
27	100	3
120	120	30
65	65	3
120	121	11
123	133	4
66	71	2
108	109	13
152	155	6
86	86	32
98	155	1
140	141	8
127	127	9
94	98	4
128	128	13
117	120	5
30	72	1
123	124	18
77	88	5
55	55	18
49	50	3
10	18	3
137	140	5
125	126	13
111	130	6
114	116	7
129	139	2
43	71	3
67	68	7
135	136	19
46	47	7
49	49	18
152	153	12
31	45	3
77	81	5
52	53	2
145	149	4
70	70	14
30	40	6
68	69	3
54	78	1
1	2	12
36	37	12
127	131	4
131	132	5
116	118	1
128	140	1
114	115	5
119	119	9
78	79	2
20	71	2
51	86	2
117	119	3
25	25	6
134	136	1
79	80	1
155	159	2
31	32	2
79	131	2
16	16	11
157	159	1
66	69	2
120	139	6
92	92	19
75	94	5
144	146	8
102	103	1
94	99	3
67	72	1
11	36	1
110	110	14
31	33	2
76	77	3
121	144	3
12	18	7
99	99	19
115	117	4
7	11	7
124	142	3
31	38	1
97	140	2
57	62	3
127	129	1
28	147	5
152	152	7
19	43	2
109	113	2
136	136	12
131	134	2
93	98	8
28	73	1
46	48	4
81	82	13
132	140	4
25	28	5
45	49	2
25	51	1
145	145	5
28	72	3
88	96	3
99	100	5
25	45	6
149	150	5
26	30	4
113	116	2
146	147	7
15	129	2
139	158	3
33	33	14
22	105	2
104	146	4
88	90	3
140	151	1
27	30	2
21	41	2
20	41	4
50	90	2
100	108	2
145	146	10
87	90	4
44	45	3
105	149	2
110	112	5
88	95	2
85	88	1
36	39	9
94	138	1
49	71	2
110	123	1
111	113	7
85	86	7
131	135	1
111	119	2
87	92	1
83	85	4
89	90	6
93	94	9
71	72	2
84	92	2
99	101	4
33	35	1
79	86	2
33	36	1
39	40	8
129	131	7
37	37	15
51	90	1
112	113	10
7	12	2
143	145	2
129	134	3
131	140	3
109	129	2
64	69	1
16	72	2
7	17	3
90	93	3
56	56	10
105	146	4
45	54	1
80	130	2
3	4	8
62	62	1
34	55	1
126	126	10
45	47	1
138	138	12
76	88	3
29	41	3
80	82	4
144	145	7
107	114	4
28	31	2
77	79	1
152	154	5
72	73	5
80	94	3
111	147	1
86	97	8
95	126	1
97	128	2
134	137	6
116	120	1
111	116	5
14	15	2
145	147	7
148	152	5
10	11	5
9	11	1
98	129	3
55	77	3
134	135	5
139	142	3
16	18	4
130	138	2
108	110	3
87	89	3
76	131	1
39	70	2
124	140	4
102	102	8
130	132	1
15	104	1
78	88	4
104	120	2
62	63	5
24	45	1
17	18	14
113	114	4
8	10	2
7	56	2
46	82	3
57	57	3
149	151	4
33	51	1
9	15	1
22	25	4
36	41	2
13	15	1
52	55	4
90	96	1
137	139	2
108	133	1
36	45	1
89	106	2
43	44	3
33	68	1
57	79	1
99	157	2
36	40	1
46	100	3
107	140	1
44	66	2
50	87	2
12	64	2
50	55	2
29	39	1
108	111	1
120	122	2
43	66	2
65	71	2
19	49	1
121	137	1
97	129	1
136	137	2
98	102	1
52	54	5
6	6	7
102	104	1
97	126	1
90	101	1
11	13	3
81	87	1
45	65	2
65	72	2
125	133	2
133	134	2
20	25	2
24	40	2
76	76	3
99	152	2
87	97	3
22	44	5
85	87	2
94	100	1
44	47	3
39	42	1
25	44	2
54	69	2
32	35	1
88	127	4
127	133	1
57	78	1
89	103	1
41	43	1
90	114	1
105	107	1
96	126	2
55	68	2
151	156	2
77	87	2
47	48	3
43	45	4
27	29	5
8	16	2
25	41	5
21	22	2
48	51	1
81	94	1
17	19	1
53	55	2
143	148	2
55	75	2
14	36	6
120	125	1
77	131	1
93	99	2
149	152	1
80	83	1
114	138	1
153	154	1
28	44	4
134	138	3
110	121	3
23	30	1
35	37	1
77	82	1
111	117	1
24	25	2
143	144	2
131	133	2
120	138	1
140	157	1
20	42	4
46	49	2
148	151	3
4	8	1
122	140	1
64	71	1
75	95	1
17	23	1
86	89	2
9	18	2
158	159	1
17	72	1
81	84	2
65	66	1
109	112	2
41	42	1
5	6	2
20	37	1
130	134	1
141	145	1
25	48	1
55	78	1
147	149	2
24	29	1
21	43	2
1	4	3
139	156	1
48	52	1
35	47	1
13	65	1
92	96	1
19	44	1
38	68	1
78	81	2
143	150	1
49	85	1
10	36	1
106	150	2
56	64	2
65	68	1
103	147	1
25	50	1
76	95	1
18	20	1
98	101	1
78	80	1
114	118	1
99	158	1
21	42	1
