238	238	7
17	17	4
189	192	4
159	159	12
245	245	9
77	77	4
208	208	7
29	29	6
175	179	2
241	241	11
233	233	15
231	232	5
12	15	4
62	62	11
46	46	10
58	58	13
220	220	8
39	39	4
191	192	3
200	200	10
236	245	3
156	221	1
88	89	8
187	188	12
244	244	14
174	174	11
239	239	9
59	59	15
31	31	6
172	177	3
155	155	3
83	84	1
187	187	15
217	243	2
171	171	28
109	202	5
207	207	15
201	201	20
162	186	2
32	36	4
191	191	14
154	209	4
119	119	7
98	98	18
88	90	1
94	94	11
189	190	7
92	94	1
108	108	7
234	234	16
87	88	3
153	154	4
110	110	20
86	87	7
166	166	22
168	168	14
213	213	9
169	169	11
48	48	13
147	147	4
215	216	5
171	172	5
93	93	7
67	67	3
36	36	4
211	211	5
85	85	6
163	166	4
112	112	7
195	239	2
52	54	3
183	238	3
192	192	14
222	222	9
146	147	2
176	176	13
150	150	3
94	95	6
243	243	12
66	66	8
198	199	6
241	245	5
239	240	7
183	186	4
164	208	3
212	212	8
6	19	2
240	244	4
24	24	5
85	86	7
81	81	5
241	242	4
22	24	4
68	118	1
162	162	23
113	248	1
204	204	11
82	83	2
206	207	2
224	225	3
160	171	5
185	185	10
118	118	10
145	145	7
163	170	5
183	183	9
245	246	7
153	153	10
56	56	10
160	160	10
152	241	1
221	221	13
44	44	8
242	242	10
8	8	8
151	151	13
83	83	6
203	203	10
227	227	9
145	212	2
230	230	22
64	94	1
115	115	9
101	119	2
222	223	4
237	237	13
23	23	10
180	180	12
184	184	12
65	65	5
54	55	8
157	218	1
216	216	6
175	176	2
5	5	8
152	163	2
183	247	1
158	158	11
197	244	2
87	87	5
99	100	2
244	249	4
240	247	1
2	2	1
180	181	5
34	34	6
152	152	5
186	186	12
151	152	3
206	206	8
167	167	20
229	230	2
219	226	5
17	19	1
165	165	14
157	165	3
214	217	2
235	235	14
19	19	9
159	160	4
21	22	1
164	164	8
51	51	8
20	20	9
233	234	4
14	14	5
91	91	8
196	196	12
113	113	10
6	6	2
118	119	4
152	159	3
95	97	1
214	215	3
197	221	4
197	197	12
240	240	20
194	240	2
193	195	4
49	49	7
238	239	4
209	210	6
190	191	14
72	72	2
71	72	3
23	24	2
26	26	6
192	193	4
181	181	6
101	118	3
100	100	8
215	215	15
150	151	1
217	228	1
84	84	11
177	177	16
247	247	15
3	3	1
63	64	3
159	165	2
38	54	1
199	199	8
162	167	2
149	150	2
33	33	6
147	186	2
242	247	1
229	229	6
205	205	16
236	240	7
50	50	12
185	188	4
202	202	16
156	156	11
208	211	4
116	116	7
70	79	1
62	63	3
192	212	1
197	200	3
212	213	6
69	69	5
162	163	2
79	80	9
185	196	2
165	166	9
6	7	1
194	195	4
11	11	9
113	201	1
76	79	1
84	91	2
236	237	11
182	187	3
42	42	10
164	176	1
102	102	1
225	225	5
37	37	5
218	218	18
219	219	12
182	236	2
78	78	12
230	232	1
116	117	3
226	227	5
60	60	4
114	236	2
64	93	2
71	74	3
152	166	3
14	18	3
193	194	9
223	223	14
180	228	1
68	70	2
188	190	4
225	230	3
145	160	1
76	78	3
176	177	9
247	248	7
236	236	4
27	101	5
179	179	6
75	76	1
188	188	8
174	179	2
64	65	4
35	35	4
68	68	6
95	95	18
18	18	6
157	157	7
188	189	6
30	31	2
220	224	1
190	190	7
109	109	10
72	73	2
80	80	9
203	204	9
198	219	4
186	190	1
202	203	6
182	182	7
207	212	4
206	217	1
16	17	5
6	8	2
163	163	6
219	224	4
246	248	2
17	24	3
45	45	5
181	182	3
25	31	1
22	23	4
87	92	3
193	193	4
232	233	4
182	183	8
109	110	1
224	224	10
76	76	4
71	185	1
111	111	7
50	53	1
214	214	15
97	99	5
92	93	4
209	213	2
16	16	5
88	96	4
166	176	3
180	182	2
81	82	4
41	41	2
237	238	2
106	107	5
225	226	2
35	36	6
28	28	11
153	166	3
68	69	1
75	75	9
170	218	2
241	247	5
112	237	1
209	216	3
144	145	6
30	30	3
108	112	2
40	41	1
104	117	2
210	210	3
67	81	2
183	187	2
103	103	2
108	245	1
185	225	4
27	28	1
47	47	2
219	247	2
27	27	3
201	205	2
55	55	5
96	97	4
57	58	6
214	216	5
187	190	4
99	192	4
221	222	3
246	246	5
244	245	2
38	38	7
203	205	4
57	57	2
73	74	1
37	39	2
154	154	12
172	175	2
226	226	6
211	212	8
79	79	6
37	38	5
7	7	8
77	86	4
160	166	1
209	209	9
74	74	1
175	175	4
42	43	9
14	63	1
203	208	1
197	198	3
245	247	4
63	63	8
169	174	1
90	91	2
208	210	1
80	81	1
156	169	2
82	108	1
185	191	2
195	195	4
114	114	6
169	218	1
207	239	2
4	5	3
170	170	14
190	192	4
43	43	8
224	229	3
109	155	2
48	50	1
158	159	3
116	166	3
70	71	4
150	154	1
166	182	2
235	236	4
180	211	2
111	118	1
191	195	3
218	219	3
24	25	1
156	157	2
70	84	2
76	191	1
75	77	1
209	214	1
32	32	5
89	89	2
12	12	5
117	117	5
217	218	3
198	198	8
120	120	4
161	161	6
186	192	4
213	214	1
206	215	1
201	223	2
90	90	8
181	184	2
178	179	6
102	103	2
30	33	2
194	194	2
242	248	3
46	221	2
44	45	2
67	116	1
215	217	3
68	84	1
46	48	1
34	69	1
39	67	1
178	178	8
231	248	3
3	25	1
110	202	3
217	217	2
173	174	3
106	106	2
210	213	2
92	92	7
107	108	3
183	184	3
152	160	2
9	9	2
232	232	4
228	228	5
105	111	2
4	14	1
173	173	4
15	15	9
40	40	3
163	208	1
14	15	1
243	244	1
198	211	1
163	164	7
83	85	1
208	238	3
9	62	2
22	22	2
10	25	2
18	20	1
205	213	1
180	238	1
220	221	3
85	145	1
86	98	1
187	192	1
176	196	1
144	144	3
219	248	1
115	116	2
9	16	1
53	54	5
168	169	1
154	155	1
196	243	2
231	231	3
34	37	1
26	39	3
73	73	4
29	31	1
5	58	1
29	34	2
173	178	1
22	30	5
44	91	1
41	42	1
9	13	1
106	111	2
76	77	1
161	168	5
95	98	1
219	223	1
34	35	1
4	4	4
100	105	1
233	235	6
12	14	1
196	244	3
9	10	2
145	167	2
114	115	3
22	169	1
46	47	2
74	88	2
162	205	1
24	44	1
88	88	7
6	9	1
226	231	1
33	67	1
180	218	2
157	242	3
101	104	2
34	73	1
54	54	7
95	96	1
195	197	1
25	25	2
204	205	2
85	94	1
183	237	1
120	144	4
241	244	1
205	207	1
230	231	1
59	61	2
172	173	6
120	197	1
66	67	2
189	189	4
75	86	2
21	21	3
86	86	2
48	49	1
172	218	1
14	35	1
77	89	5
103	144	1
37	40	1
64	64	4
71	71	4
245	249	2
196	212	2
19	20	2
161	207	1
60	63	1
99	99	2
102	165	1
174	175	3
202	205	1
199	200	1
91	92	1
185	189	1
61	61	3
156	179	1
114	201	2
198	218	1
224	226	1
144	206	1
84	106	2
84	85	1
82	82	2
195	196	2
158	190	1
36	38	1
96	96	1
105	105	1
164	165	2
31	32	1
180	183	2
195	200	1
14	16	1
119	120	1
152	153	1
1	1	1
27	29	1
175	180	2
4	34	2
194	196	1
174	177	1
117	118	1
101	117	2
24	43	1
214	243	1
177	179	1
240	241	3
217	248	2
240	248	1
52	53	1
52	52	2
180	216	2
34	38	1
38	39	3
72	74	1
69	70	1
210	211	4
179	216	2
46	55	1
97	98	1
76	87	1
56	58	1
216	218	2
86	89	1
197	201	1
157	171	1
53	53	1
59	60	1
31	73	2
244	247	2
113	114	2
245	248	1
162	170	2
105	107	1
200	201	1
60	62	2
186	196	1
158	175	1
97	97	2
104	105	1
33	117	1
181	209	1
161	213	1
153	167	1
115	200	1
52	90	1
163	188	2
196	197	1
185	247	1
89	91	1
102	121	2
236	238	1
105	106	1
181	218	1
214	218	1
107	107	1
186	236	1
115	120	1
238	247	1
176	197	1
32	33	1
157	240	1
77	192	1
158	174	1
237	240	1
228	229	1
208	231	1
160	175	1
74	87	1
101	101	2
171	184	1
81	83	1
151	156	1
216	217	2
43	44	2
114	200	1
155	156	1
56	57	2
170	171	1
24	26	1
18	23	2
197	199	1
35	69	1
175	177	1
2	93	1
33	58	1
220	223	1
243	245	1
32	35	1
5	14	1
66	244	1
86	94	1
159	240	1
