33	34	1
63	65	1
52	52	15
63	80	3
67	67	12
101	102	3
86	87	6
41	45	2
90	90	17
100	100	22
73	73	16
24	24	8
38	40	4
56	56	7
89	89	8
33	95	2
76	76	20
41	50	4
102	102	12
88	88	14
90	92	3
68	68	10
31	32	5
28	28	18
77	77	6
23	23	10
31	31	19
45	57	6
87	87	16
80	80	20
36	36	13
63	66	11
38	38	15
97	99	4
27	27	15
30	30	16
62	62	18
65	66	7
59	60	6
63	63	9
20	20	7
35	35	17
103	103	20
81	85	4
31	60	4
89	91	5
59	62	1
91	92	5
91	105	3
37	38	4
25	25	13
83	83	10
54	54	16
84	84	13
22	23	3
98	99	4
53	53	14
71	71	12
79	79	26
70	70	13
37	58	6
78	97	3
59	61	7
41	49	2
61	80	1
41	41	12
51	51	9
74	74	16
35	36	7
41	42	3
29	29	13
27	29	2
91	91	13
36	37	9
88	90	4
37	37	28
57	58	6
101	101	11
75	75	23
29	61	3
78	96	3
82	82	12
67	97	4
105	105	13
65	65	9
78	78	12
70	73	1
92	92	12
21	21	16
34	34	15
72	74	4
49	49	10
81	81	26
83	84	4
42	43	4
69	69	18
51	85	2
48	48	10
90	91	4
39	48	12
107	107	3
45	45	6
64	64	16
71	72	16
93	94	5
21	22	6
66	66	6
50	50	13
43	43	10
62	63	3
67	68	7
59	59	11
41	52	1
39	39	6
96	96	14
76	94	1
51	95	1
62	64	2
44	44	17
89	90	8
72	73	5
74	75	7
85	85	6
38	39	2
61	65	1
58	59	5
37	43	1
56	57	2
77	78	4
103	104	3
94	94	11
42	44	8
61	62	6
45	49	5
65	104	2
49	52	1
80	81	3
79	80	8
91	99	1
42	50	4
27	35	1
94	96	3
97	100	6
84	85	9
78	99	5
31	96	1
47	47	9
30	32	6
55	55	10
55	56	7
22	22	5
64	65	3
65	67	1
33	33	15
28	62	2
82	83	4
54	55	1
20	22	5
20	21	9
79	96	1
70	72	3
86	86	11
20	25	2
57	57	7
61	61	14
32	32	6
50	68	1
99	99	9
32	52	4
96	99	9
43	44	4
70	71	3
49	57	4
95	97	2
85	91	1
28	39	2
93	93	5
60	60	8
93	99	3
27	54	2
46	49	8
66	67	3
46	46	7
28	29	10
77	99	1
82	89	4
26	88	3
46	51	1
95	95	5
88	89	10
69	105	1
97	97	11
40	40	6
58	58	23
95	96	6
41	48	6
75	77	1
104	104	3
91	93	1
98	98	11
60	62	2
106	107	3
32	33	3
58	60	1
80	88	3
84	86	3
42	45	2
97	98	1
95	104	2
43	51	4
52	53	4
40	41	2
31	78	3
26	26	17
79	92	3
75	76	4
50	51	2
48	49	3
94	99	2
76	100	2
30	60	3
76	77	3
85	86	5
26	28	2
42	51	1
93	102	1
33	38	3
19	19	1
39	47	2
25	87	2
42	49	2
36	42	1
49	51	1
83	85	3
36	43	1
26	87	3
61	64	1
71	73	3
105	106	1
51	52	1
44	45	1
40	46	4
85	87	4
51	78	1
104	105	3
80	82	7
42	42	2
79	81	5
45	51	1
31	69	1
60	63	2
34	36	1
94	100	2
89	97	2
60	67	1
25	88	2
98	107	1
30	82	2
43	45	3
68	69	4
34	73	4
87	88	1
27	28	3
56	82	2
66	99	2
30	98	1
53	56	1
65	68	1
99	100	1
73	74	2
78	79	3
66	80	5
94	104	2
38	58	1
45	56	2
42	52	4
60	61	2
21	25	1
30	99	2
32	96	1
27	36	2
47	49	1
34	68	1
68	75	2
69	70	2
31	52	2
100	101	1
40	45	1
25	92	1
50	78	1
32	37	1
69	71	1
106	106	1
102	103	2
35	73	1
95	101	2
82	88	2
29	30	3
104	106	1
34	74	1
61	67	1
41	86	1
89	92	1
40	49	1
30	59	1
53	55	1
72	72	1
36	105	1
34	35	1
21	34	1
22	26	1
