28	97	1
108	108	5
57	80	3
114	136	2
93	93	4
57	76	1
72	72	6
4	4	6
41	41	5
63	95	2
68	74	5
33	87	3
13	24	1
147	147	3
20	20	4
37	46	1
31	32	2
65	65	8
67	67	6
41	43	1
149	149	6
40	40	6
51	52	1
145	145	10
130	130	4
53	57	2
82	90	2
88	111	1
141	141	6
75	76	6
140	141	6
50	99	2
13	13	9
36	93	2
128	130	1
10	10	4
136	146	1
53	53	3
52	52	6
87	87	5
18	18	4
81	81	3
28	29	4
103	108	5
13	19	2
71	96	4
140	140	2
15	15	3
88	88	1
57	57	5
111	111	8
126	126	2
26	27	6
62	145	2
86	110	5
123	128	2
143	143	5
23	23	7
8	25	5
33	42	3
68	68	5
52	85	4
148	151	2
136	136	3
24	24	7
44	45	3
113	113	7
115	115	4
71	71	1
42	42	7
132	138	3
27	28	1
17	23	1
6	6	6
77	77	3
120	120	5
104	133	1
143	144	4
94	94	9
30	44	2
46	46	4
31	31	8
39	39	1
122	122	4
16	18	2
128	128	4
25	27	3
116	117	3
131	131	6
28	93	4
95	97	7
14	38	2
106	107	4
63	76	2
32	32	9
99	115	1
58	58	3
16	67	6
22	23	2
34	34	5
138	138	6
47	48	1
28	89	3
114	114	9
145	151	5
82	137	1
101	109	4
93	94	2
14	69	3
9	11	1
51	84	3
63	63	1
45	45	8
8	8	2
119	119	7
36	36	1
110	144	2
74	149	2
2	19	1
137	137	3
48	116	1
14	14	4
63	152	1
133	134	5
44	44	6
136	137	1
117	117	5
70	152	2
41	42	2
147	148	1
33	34	3
100	112	2
37	57	1
72	95	3
129	134	4
97	97	5
85	114	2
4	17	1
44	46	4
30	30	4
87	88	2
34	35	6
18	20	1
72	139	1
12	17	1
33	33	2
57	97	2
75	137	3
86	112	3
150	150	3
7	7	3
49	49	5
36	37	2
152	153	6
100	101	6
104	104	2
101	101	5
154	154	2
75	75	1
27	65	3
16	64	1
45	53	1
64	66	1
29	29	8
35	35	1
27	27	2
69	70	2
103	110	5
82	82	4
6	24	4
16	16	3
106	106	6
15	16	3
50	51	1
125	125	1
84	84	5
79	80	2
23	24	1
73	127	2
78	99	1
47	142	1
106	119	3
38	38	2
135	141	1
30	154	2
35	36	3
19	19	3
17	17	3
68	69	4
123	124	2
83	84	1
98	98	2
49	55	3
32	36	2
143	147	1
18	19	5
72	77	1
68	79	1
57	58	1
109	109	5
72	148	1
32	38	3
49	53	1
81	96	3
65	150	3
81	83	2
79	137	3
76	76	6
42	46	1
48	48	1
75	126	2
101	111	4
115	116	2
50	50	1
74	74	1
5	11	2
102	102	2
51	144	1
50	62	1
9	9	2
21	21	6
139	145	2
98	121	2
78	83	1
129	129	3
118	118	1
135	135	3
71	73	1
28	34	2
54	54	1
22	22	1
37	37	2
28	28	1
71	136	1
28	82	1
49	94	2
73	77	3
12	26	1
72	78	1
107	107	3
121	121	1
106	136	1
39	40	2
109	114	1
100	105	1
66	66	3
100	100	1
134	134	2
38	79	3
74	78	1
12	68	1
79	79	1
6	7	1
81	128	1
38	39	1
124	127	2
7	14	1
80	114	1
129	130	1
62	99	2
26	33	1
2	2	2
123	123	2
28	94	1
100	135	1
69	71	1
82	88	1
51	139	2
16	17	2
73	73	1
112	112	2
34	56	1
80	99	1
11	26	1
98	120	1
140	142	1
84	86	1
77	150	2
99	111	1
104	120	1
47	47	2
64	144	1
20	21	1
68	80	1
112	137	2
38	95	1
96	96	1
63	96	1
113	139	1
47	154	1
116	116	1
10	22	1
26	39	1
48	149	1
16	22	1
47	126	1
56	77	1
69	69	2
51	65	1
11	11	1
33	68	1
14	26	1
93	100	1
90	90	1
132	132	1
58	145	1
8	11	1
70	70	1
80	81	1
69	82	1
62	96	1
103	103	1
4	11	1
4	12	1
14	77	1
25	26	1
