202	202	4
9	9	5
215	216	3
58	58	11
51	52	2
62	62	6
233	233	3
3	4	1
73	73	3
60	79	3
30	30	9
75	77	1
78	78	6
217	217	4
241	241	2
147	147	4
170	222	2
37	37	5
100	100	2
108	149	5
9	61	3
66	84	7
140	141	3
1	81	4
182	182	1
142	142	8
51	51	9
123	123	3
170	170	4
214	215	6
108	108	7
183	183	4
194	194	3
140	140	7
138	138	2
48	48	1
24	24	4
163	163	4
194	196	1
118	118	4
113	113	3
161	162	3
99	99	3
158	159	3
43	43	6
198	200	1
169	222	7
75	76	6
232	232	3
33	207	2
70	145	5
64	64	3
153	153	3
42	44	3
118	119	3
119	133	6
33	33	11
69	225	6
3	13	2
106	169	2
105	108	1
75	209	3
85	85	4
57	82	3
222	223	2
210	210	3
45	45	5
215	215	4
82	83	1
5	5	2
46	46	5
125	125	4
28	28	7
182	215	2
35	35	6
126	126	5
191	232	4
103	103	5
220	221	2
16	17	1
144	144	3
228	228	5
182	213	3
57	58	3
184	186	5
14	60	1
105	105	2
8	8	8
140	195	2
30	103	3
7	13	3
236	236	6
224	225	4
107	107	1
145	147	1
44	44	4
13	14	4
60	60	3
225	225	3
6	18	2
77	77	7
16	16	3
143	241	2
30	105	5
124	125	4
165	165	4
21	22	4
166	198	3
186	187	5
15	15	4
213	215	1
47	74	1
65	68	1
10	10	5
192	192	3
213	213	4
42	42	10
195	196	1
121	121	2
14	15	4
47	47	10
178	178	1
34	34	9
159	160	2
18	18	9
217	218	5
23	23	10
171	171	4
171	181	1
30	31	7
211	238	2
180	219	1
4	17	1
188	188	6
211	211	1
173	173	3
201	201	3
116	117	4
97	198	6
10	218	2
115	118	1
100	223	2
157	162	1
88	89	2
5	6	3
181	182	4
12	21	1
25	25	4
194	195	3
27	27	7
13	13	1
69	69	3
1	1	1
7	49	3
31	31	13
103	104	1
196	196	5
40	40	5
5	82	5
193	193	3
0	1	4
172	172	3
65	86	6
81	82	2
114	115	1
113	166	3
239	239	4
21	30	1
50	57	1
129	130	3
237	237	5
70	71	2
106	107	3
72	72	7
162	163	4
148	148	6
160	160	3
129	129	3
20	20	6
213	214	2
204	204	1
32	32	3
84	234	5
168	224	4
151	151	5
186	198	2
240	240	6
168	222	1
145	145	2
75	75	5
26	26	2
220	224	1
153	154	2
168	169	2
187	187	3
237	238	2
184	184	1
116	167	3
102	102	2
3	3	2
5	19	3
8	19	3
18	148	3
115	117	3
4	81	3
203	203	2
157	157	2
229	229	4
186	215	7
174	174	4
128	129	4
65	65	2
152	180	1
38	38	1
221	221	3
21	21	1
74	74	10
70	70	4
122	122	2
191	191	3
189	189	2
103	230	3
155	155	5
177	196	2
56	57	2
169	169	3
7	7	2
156	156	4
1	48	1
11	11	6
223	223	3
16	60	1
7	16	1
120	120	3
131	211	3
5	7	2
185	186	2
54	54	1
198	198	4
42	69	2
49	49	8
144	146	1
186	186	4
159	231	1
22	22	10
128	128	3
234	235	3
197	226	2
19	29	2
106	183	2
235	235	11
61	61	2
0	15	2
56	56	5
0	0	1
159	233	3
76	209	3
223	224	1
81	81	3
141	143	1
45	46	3
79	79	3
133	159	1
227	228	1
101	101	5
4	30	3
220	225	1
146	146	6
206	206	2
106	106	4
86	86	9
147	148	4
45	141	1
195	195	1
18	78	1
66	67	2
217	234	3
176	176	1
172	229	2
101	153	2
137	138	5
8	41	3
26	192	2
102	179	1
170	186	3
175	197	1
55	55	5
81	83	1
73	128	2
14	14	5
169	207	1
169	225	1
102	188	1
200	201	3
55	88	1
181	181	3
7	8	3
6	9	2
36	36	3
19	19	5
95	95	1
210	222	1
203	204	1
168	168	3
224	224	1
209	209	3
44	178	2
58	59	3
57	57	4
99	109	1
26	27	1
190	219	1
105	131	5
109	110	1
200	229	3
65	211	1
68	68	2
52	52	5
32	179	3
72	128	1
64	70	4
8	36	2
17	17	4
100	158	1
190	232	2
7	17	1
234	234	2
44	74	1
184	187	3
180	180	3
20	22	1
179	179	4
231	231	3
144	192	3
172	173	1
16	49	1
109	197	1
187	188	3
20	24	2
2	16	2
222	222	2
84	84	1
167	167	3
104	104	3
208	208	3
83	84	4
88	88	1
43	55	2
177	201	2
125	158	1
119	119	2
74	75	2
59	59	6
212	212	3
44	84	3
6	37	2
3	186	1
9	55	1
79	151	2
199	199	3
168	214	1
104	105	1
23	34	1
109	111	2
14	35	1
167	169	3
13	59	3
39	39	3
24	25	1
42	238	1
55	58	2
96	96	4
189	231	3
152	152	2
35	36	2
12	88	1
6	84	1
31	151	2
95	123	3
28	29	1
96	97	2
10	27	1
159	159	1
14	78	1
176	177	3
114	157	3
56	59	1
6	79	1
76	213	1
2	104	1
113	226	2
76	182	1
197	197	1
39	40	1
34	80	2
13	15	2
99	100	1
177	178	2
181	219	1
215	223	1
29	30	1
175	175	2
47	86	2
162	162	3
23	100	1
117	117	1
40	193	1
38	64	1
200	202	1
55	57	4
167	181	2
199	200	1
97	119	1
97	97	3
102	174	2
0	74	1
14	23	1
84	85	1
17	52	1
190	190	1
4	80	1
19	77	1
117	239	1
127	127	1
1	34	1
100	101	1
63	64	2
120	205	1
45	128	1
76	77	1
8	49	3
236	237	1
52	53	1
209	210	1
125	156	1
2	34	1
210	220	2
130	178	1
12	15	1
49	60	1
118	166	1
20	21	1
73	124	1
71	71	1
40	41	1
139	139	1
120	132	1
139	140	1
49	50	1
112	138	1
158	158	1
150	150	1
219	219	1
22	55	1
136	192	1
147	204	1
149	203	1
70	113	2
65	144	1
141	142	2
37	38	1
207	207	1
149	149	1
79	204	1
3	185	1
45	47	1
2	80	1
130	132	1
23	57	1
179	235	1
226	227	1
218	235	1
64	231	1
148	203	1
130	130	1
