82	82	8
66	66	35
76	76	20
38	60	7
45	45	9
30	31	2
99	99	35
66	74	4
75	75	41
63	63	25
83	83	8
39	39	8
75	76	3
92	96	1
22	28	1
98	98	19
96	98	8
85	85	26
89	89	17
69	70	7
93	96	2
41	41	24
61	62	9
48	50	4
45	90	2
38	38	15
26	27	5
97	97	9
43	44	4
96	97	14
87	87	17
101	101	7
58	58	16
91	91	14
33	33	19
77	77	11
97	98	6
67	67	32
93	94	6
50	50	14
87	89	3
40	41	8
64	64	37
88	89	7
57	57	10
64	66	9
37	97	2
51	92	1
76	77	10
47	47	16
35	101	2
60	60	25
61	61	9
22	22	12
37	38	11
77	78	3
48	48	13
42	44	3
78	78	15
49	50	9
92	93	8
44	44	24
52	52	20
81	81	19
58	59	2
92	92	11
59	59	36
34	34	7
93	93	17
24	24	2
88	88	21
40	40	7
49	53	3
51	51	15
69	69	13
53	53	24
42	42	20
68	68	4
81	100	7
102	102	3
34	35	2
38	39	1
70	71	1
86	87	7
72	99	3
41	74	2
26	26	10
94	94	15
52	64	1
82	83	3
84	98	3
95	95	16
82	92	2
26	29	1
58	69	4
46	46	21
86	86	31
84	84	12
35	37	3
20	22	1
31	32	1
59	63	4
72	72	7
72	77	2
43	43	22
70	70	19
29	29	14
100	100	8
35	35	12
58	85	9
58	60	4
42	43	2
96	96	20
64	65	4
29	38	1
73	74	1
90	90	11
65	65	6
51	59	1
55	55	13
80	81	9
67	68	3
73	73	8
31	31	15
43	52	2
49	57	2
30	30	2
41	46	4
61	63	1
74	74	18
51	63	1
37	84	2
90	91	9
62	77	1
91	92	2
51	52	4
29	30	3
79	79	11
35	39	3
42	72	2
52	89	4
27	27	8
37	37	7
54	54	9
25	25	15
48	49	9
60	87	1
56	56	20
36	36	4
63	90	5
49	59	1
49	69	4
61	82	1
60	86	3
63	64	4
81	82	7
62	83	1
22	27	1
52	53	6
41	42	5
78	99	2
68	69	8
86	94	5
55	94	2
74	75	10
39	56	2
64	78	3
23	27	2
90	99	5
54	55	2
36	99	4
56	57	2
80	84	2
60	84	3
87	88	4
44	64	3
78	98	1
95	99	1
94	95	3
62	62	6
57	58	6
94	97	3
70	101	2
51	81	4
63	101	2
36	96	2
21	24	1
23	23	4
36	38	2
49	49	8
100	101	2
71	71	16
85	86	5
58	87	2
83	84	3
79	80	4
67	70	1
47	48	3
95	101	2
59	72	1
85	89	3
46	82	1
43	62	4
47	73	4
45	47	1
75	101	3
93	95	2
55	58	5
61	88	2
78	80	3
32	33	3
47	55	3
35	36	5
59	60	6
52	62	2
40	63	4
53	68	3
62	63	4
81	84	3
50	51	3
48	57	1
59	85	3
62	87	1
86	88	2
71	72	3
70	72	1
89	94	1
95	96	2
65	66	1
90	93	3
68	70	2
27	28	2
35	62	2
55	56	1
24	25	2
53	54	2
46	73	1
72	73	1
41	45	2
88	92	1
24	26	1
59	62	4
66	67	2
33	55	1
87	93	1
95	98	2
77	89	1
98	99	2
36	46	2
89	95	2
36	37	1
74	76	1
36	91	1
47	81	2
80	80	3
45	49	1
58	61	1
79	81	1
79	101	1
61	98	1
83	102	1
79	89	2
68	90	2
47	49	1
39	40	2
48	81	1
77	85	1
45	62	1
35	99	1
53	89	1
92	94	1
67	101	2
28	28	1
85	99	2
33	46	1
46	58	1
57	101	1
57	61	1
