81	106	4
200	200	5
12	12	9
12	13	4
43	43	6
112	112	3
86	121	3
83	83	11
208	211	2
102	102	4
38	40	2
138	139	3
27	27	10
37	50	1
153	155	1
207	207	6
140	140	9
21	22	9
127	129	1
62	62	7
78	78	1
79	80	1
74	74	7
195	195	6
58	58	2
30	35	1
34	34	10
85	85	7
82	84	7
14	14	6
98	98	6
36	55	1
46	56	4
182	183	1
180	182	5
21	21	12
86	86	11
101	101	5
220	220	6
198	198	2
146	146	11
77	78	14
157	157	6
60	60	12
70	70	10
137	140	3
17	49	3
123	123	11
201	201	9
98	99	2
78	104	3
121	121	5
12	30	6
28	38	1
173	173	13
184	184	1
148	148	10
151	151	7
230	231	1
155	155	6
14	22	3
117	125	4
133	133	8
34	35	4
163	163	4
56	57	6
53	53	8
176	177	4
46	46	7
107	107	1
80	81	3
82	82	5
226	233	2
73	83	2
95	95	7
164	165	4
13	13	13
220	221	3
65	66	6
127	127	7
81	81	4
88	88	6
63	63	5
190	190	4
65	68	3
174	174	5
124	124	8
67	67	4
41	41	7
125	125	3
11	20	2
224	225	3
2	3	2
108	108	4
154	154	5
240	240	5
73	85	3
5	16	1
79	79	14
80	80	8
23	171	3
199	203	3
185	187	1
63	64	3
236	236	5
47	47	9
123	217	1
26	26	6
141	190	2
204	220	3
39	56	4
55	83	1
42	43	3
122	122	3
228	228	3
70	72	3
199	200	1
143	143	3
28	28	11
169	169	3
48	50	1
99	100	3
35	57	3
105	105	5
234	234	10
36	36	8
48	48	10
137	165	3
121	123	2
42	42	13
213	215	5
9	11	1
17	18	3
177	178	1
55	55	6
188	188	11
141	143	1
156	163	8
171	171	4
139	241	4
241	241	6
206	206	2
175	175	5
3	3	6
177	177	2
75	115	1
205	205	9
192	192	6
165	166	4
242	242	3
62	71	2
75	75	12
80	104	1
66	67	3
158	158	6
52	52	11
122	124	3
97	97	2
22	22	3
4	4	2
132	138	2
187	210	2
100	100	6
3	7	6
5	6	4
117	117	3
51	51	3
17	17	3
200	201	2
84	85	5
111	111	4
107	108	5
4	5	2
29	29	14
35	35	6
39	74	4
176	214	2
55	73	2
57	57	5
210	221	2
215	216	2
150	150	3
218	219	2
28	29	1
114	197	1
173	177	2
29	33	2
73	73	7
203	203	1
159	159	4
166	166	7
232	232	2
206	229	2
19	23	3
44	45	3
233	233	3
143	165	1
235	236	2
167	169	4
144	144	5
179	180	2
84	84	12
76	82	1
165	165	3
52	53	6
145	146	2
35	84	2
226	226	7
145	145	7
18	18	2
153	153	2
29	31	2
52	57	1
39	75	1
58	59	3
128	128	2
158	159	1
126	126	1
86	98	1
9	10	2
204	204	3
166	177	3
210	229	1
2	6	1
193	193	2
64	65	2
72	120	1
209	210	2
161	161	14
99	99	6
65	65	6
36	52	4
0	32	1
204	205	1
210	211	3
219	232	1
46	47	5
110	118	2
96	98	3
45	45	3
54	55	5
30	30	3
7	7	14
215	215	2
33	33	2
49	92	2
164	164	7
6	6	7
69	69	7
163	169	3
136	136	1
54	54	2
219	230	1
189	222	3
108	116	3
226	227	5
237	237	3
202	202	3
211	212	2
20	72	2
140	142	1
4	7	3
77	77	3
134	134	3
234	235	1
19	19	4
37	63	1
148	149	2
23	23	6
68	68	4
219	219	13
170	170	4
162	163	1
186	189	3
214	214	3
1	31	1
177	180	3
218	218	7
129	129	1
167	196	3
50	50	7
53	55	1
144	146	2
40	40	9
48	172	2
162	166	1
205	206	2
96	96	2
15	15	10
118	171	3
49	49	4
0	15	1
5	14	1
176	223	1
194	194	2
71	71	5
3	35	1
191	191	2
199	199	7
104	118	2
49	95	4
139	139	3
6	22	1
69	71	1
38	39	3
8	8	6
194	195	2
35	37	5
221	221	1
75	76	2
178	213	3
23	24	2
103	103	6
11	11	4
56	56	2
241	242	1
193	194	4
162	162	5
9	12	1
37	41	2
170	234	2
123	125	1
154	155	3
32	32	11
5	5	2
235	235	5
16	16	3
75	89	2
232	238	1
225	230	2
207	220	1
185	185	3
168	170	4
37	38	2
158	166	2
88	105	1
186	187	4
13	14	2
147	148	2
80	82	1
195	196	1
64	68	1
55	65	2
8	12	2
179	179	5
222	228	1
17	217	1
44	53	1
38	38	4
178	180	1
186	186	1
99	101	1
36	39	1
105	106	2
183	191	2
48	54	2
32	171	2
1	3	4
32	34	1
60	79	1
46	53	1
120	120	3
37	95	1
69	143	1
185	186	1
142	143	4
72	72	7
225	225	4
156	156	1
176	176	1
10	10	3
9	44	1
119	119	4
182	185	1
31	31	3
229	229	1
139	141	1
1	7	1
99	102	1
224	224	3
223	224	1
39	83	1
134	217	2
59	60	2
0	0	1
37	37	4
208	208	5
25	27	1
78	101	2
2	50	1
88	135	1
115	162	2
9	15	1
80	84	1
13	21	2
8	17	2
150	151	1
152	174	1
78	79	2
18	170	1
33	59	2
24	191	1
159	165	1
24	73	1
2	2	2
20	56	1
79	85	1
77	88	1
41	124	2
146	147	2
71	74	2
156	157	6
175	189	1
178	178	3
44	241	1
212	212	1
75	78	3
56	60	1
176	207	1
15	16	2
75	77	1
88	136	1
187	188	1
177	188	1
223	229	1
119	197	2
7	169	1
214	215	1
9	9	5
139	166	1
118	118	3
135	135	2
35	36	2
217	217	3
225	226	1
183	203	2
54	132	1
232	233	1
209	209	2
132	132	2
196	197	1
96	101	1
230	230	1
18	177	2
0	3	1
210	210	3
24	24	4
55	57	1
20	20	6
107	158	2
47	48	2
130	130	2
21	38	3
220	224	3
61	61	5
111	112	1
2	18	1
139	143	2
47	52	1
24	25	3
141	168	2
47	96	1
64	64	2
153	194	2
119	169	1
120	146	1
168	168	1
124	126	1
167	168	3
180	180	4
37	62	2
211	213	3
154	193	1
61	118	1
39	39	1
140	166	1
6	31	1
4	35	1
88	98	1
62	83	2
156	158	3
44	144	1
113	113	1
46	173	1
77	103	1
50	82	1
48	49	2
25	153	1
174	180	1
1	2	2
44	44	4
139	164	1
239	239	4
119	204	2
239	240	1
189	190	3
106	106	5
174	197	1
126	131	1
164	172	2
137	211	2
168	207	2
83	84	1
131	131	1
13	32	1
140	141	1
55	236	4
71	101	1
211	211	2
116	116	2
141	141	1
118	120	2
11	18	1
34	56	1
73	203	1
12	34	1
154	161	1
95	97	2
3	16	1
109	109	2
57	113	1
174	175	1
33	50	2
198	199	1
25	25	1
157	160	2
177	210	1
6	7	2
128	132	2
172	177	1
122	123	2
49	56	1
18	179	1
118	173	3
65	67	1
154	156	1
54	56	1
0	20	1
50	51	1
155	166	3
66	66	3
40	41	2
26	28	3
41	42	1
100	101	1
4	19	1
81	83	1
181	182	1
135	242	1
239	241	3
152	181	1
38	50	2
86	87	1
4	6	1
11	53	1
27	28	1
18	33	2
147	147	1
8	121	1
191	200	1
44	46	2
70	71	2
3	30	1
152	152	2
15	23	2
59	59	1
19	20	1
197	231	1
103	104	1
80	85	1
198	209	1
213	214	1
2	31	2
222	222	2
111	150	1
10	11	1
124	125	1
36	40	1
53	54	1
164	166	1
87	87	1
119	120	2
140	143	1
150	194	1
10	46	1
187	187	1
127	133	1
161	162	1
104	104	2
25	44	1
20	21	1
190	212	1
108	115	1
37	127	1
141	142	1
197	213	1
127	134	1
217	218	1
7	14	1
212	217	1
123	124	1
5	23	2
76	76	1
30	33	1
62	68	1
7	8	1
47	64	1
81	84	1
34	57	1
36	37	1
45	56	1
114	118	1
58	202	2
168	169	1
49	50	1
7	48	1
81	82	1
160	162	1
122	128	1
7	9	1
179	211	1
32	55	1
3	42	1
188	189	1
2	38	1
15	20	1
114	114	1
117	124	1
156	196	1
1	162	1
197	197	1
198	233	1
222	224	1
169	170	1
32	68	1
