86	86	7
96	97	8
34	34	7
76	77	6
89	90	4
23	37	2
74	76	5
82	82	5
64	65	6
31	31	4
40	40	7
35	35	13
92	92	15
65	65	13
57	57	12
94	97	6
75	75	3
95	95	6
85	86	2
91	91	13
71	71	12
62	63	3
63	64	3
63	79	2
70	70	11
54	54	11
48	49	3
33	38	6
86	100	1
36	36	9
99	99	8
33	33	19
60	61	5
26	81	3
101	101	8
91	93	2
57	96	6
61	81	2
59	59	20
42	72	2
47	47	7
78	78	6
27	81	3
56	56	8
63	63	15
102	102	1
60	60	17
36	81	2
41	41	9
61	82	5
90	90	5
35	80	4
57	93	2
45	45	8
87	87	10
88	93	2
43	43	10
65	66	4
61	62	6
89	100	3
22	22	3
80	81	3
97	97	4
33	36	4
42	42	32
69	69	13
56	92	3
30	30	9
79	80	3
24	38	3
61	61	7
51	91	3
32	33	9
48	48	7
67	67	17
37	39	6
68	68	7
96	96	3
79	79	13
51	53	2
48	54	3
51	51	8
58	63	4
94	94	4
47	52	2
37	80	1
77	77	6
46	46	8
50	50	6
94	96	2
64	64	9
38	39	5
56	63	1
46	54	2
29	29	13
44	90	2
32	32	10
81	81	13
57	58	2
25	25	9
57	59	3
30	99	3
57	95	2
94	95	3
48	50	2
26	27	2
98	98	10
34	37	1
53	53	13
38	79	2
74	74	9
60	64	4
72	72	17
44	46	1
67	68	2
49	76	2
61	63	1
80	97	4
25	26	3
93	97	1
81	92	1
68	70	4
44	44	9
81	94	4
52	52	7
94	99	6
85	88	1
88	99	1
95	98	2
66	66	21
55	55	10
58	95	1
55	56	4
88	88	3
70	71	3
74	75	4
38	38	3
73	73	5
84	95	6
47	48	6
39	39	9
68	69	10
33	79	8
23	79	1
37	37	1
53	55	5
77	79	6
53	54	1
83	84	5
90	99	1
80	80	5
50	56	3
92	97	4
33	35	2
27	95	2
90	91	4
85	85	10
29	87	1
59	63	1
49	50	4
96	98	5
70	73	3
25	100	1
64	67	1
26	26	2
69	74	2
93	93	8
89	89	9
60	83	1
62	62	13
46	51	2
70	72	4
61	102	1
91	92	2
58	58	6
51	93	3
98	99	3
79	81	2
93	94	1
24	54	1
76	76	4
57	97	3
44	55	1
26	35	1
47	54	2
52	53	4
50	51	2
64	66	1
55	94	1
88	98	1
85	91	1
46	47	2
62	94	1
73	74	2
86	88	2
100	100	10
69	70	2
63	92	1
27	37	1
49	99	2
23	23	1
32	97	4
58	81	2
43	72	1
23	26	1
89	97	2
33	100	2
24	24	1
25	28	1
39	77	1
47	51	3
50	58	2
77	78	1
58	59	2
74	94	1
85	90	2
91	101	3
20	22	1
34	35	3
95	97	7
51	94	3
34	77	1
86	87	1
23	29	1
46	94	3
40	41	2
87	93	3
45	48	1
95	96	2
53	56	2
58	80	2
46	57	2
47	79	1
56	61	1
49	49	3
36	37	2
41	42	4
52	69	2
88	89	1
26	94	1
27	97	2
37	38	1
83	86	1
45	55	1
84	87	2
60	65	1
43	69	1
82	84	2
84	86	1
93	96	2
92	94	1
25	79	1
62	83	1
26	47	1
55	59	1
35	52	1
81	83	1
71	76	1
28	30	1
27	79	1
57	62	1
39	76	1
59	60	1
