151	151	11
223	223	9
103	103	11
10	10	14
69	70	3
152	184	6
157	157	6
112	112	9
156	229	1
205	205	17
49	49	11
118	119	5
25	27	1
75	84	2
9	9	16
105	105	4
180	180	6
185	185	9
213	214	4
76	76	12
194	194	4
14	14	9
9	54	1
218	218	9
201	201	15
245	245	21
54	54	11
63	63	26
96	96	16
15	16	2
90	90	7
171	171	8
145	155	2
165	165	10
222	222	10
26	26	5
15	15	4
195	195	10
237	237	18
6	7	11
27	27	9
84	103	3
18	18	15
101	101	8
215	215	14
177	177	11
175	210	3
163	164	5
57	57	7
210	210	10
199	199	18
246	247	4
183	183	17
223	243	2
152	157	2
4	4	8
62	63	4
230	231	3
61	80	6
108	120	2
93	93	9
25	25	6
20	20	8
159	166	1
211	212	4
167	167	7
159	159	23
7	54	5
21	57	2
65	69	1
56	87	3
174	174	12
86	86	3
236	237	8
228	244	3
161	161	13
60	76	3
91	91	6
168	168	9
181	182	5
242	242	10
191	195	3
70	70	18
198	198	22
19	19	12
47	50	2
57	58	9
60	60	8
209	238	2
36	92	3
116	116	17
175	175	13
241	241	20
120	121	4
109	236	2
154	154	7
152	152	6
170	170	15
45	45	10
5	5	9
197	197	23
164	164	18
34	34	16
36	45	3
171	172	5
31	32	7
50	50	9
57	73	7
184	190	2
48	74	2
163	163	23
5	9	5
225	225	4
69	105	3
119	119	14
201	202	13
204	204	12
71	75	1
33	53	3
244	244	19
58	59	1
113	113	7
36	62	3
234	234	15
32	32	9
111	111	15
191	191	12
203	203	9
59	88	7
28	28	10
168	236	3
94	94	2
173	173	12
245	246	8
209	209	15
35	35	6
200	201	5
57	90	4
40	113	1
179	179	17
145	182	9
4	5	6
11	11	5
109	109	18
13	13	2
172	172	13
170	171	9
227	234	5
235	235	20
48	89	7
100	100	17
56	56	7
82	83	1
36	85	1
44	44	9
67	67	8
37	92	2
14	37	5
230	230	14
66	66	5
217	217	14
178	178	9
165	166	7
171	173	2
16	16	10
79	104	2
24	221	1
16	24	4
169	169	5
36	93	1
167	178	5
57	60	1
31	31	4
97	98	9
240	240	18
75	75	8
20	67	3
85	88	5
239	239	11
218	219	6
162	162	9
33	51	4
3	3	4
184	184	21
159	164	2
187	187	11
173	192	6
72	119	2
47	103	4
69	237	3
156	156	17
64	64	10
238	238	12
70	115	3
3	103	5
153	153	22
33	79	3
69	69	10
72	115	1
18	39	4
49	54	5
33	78	1
74	75	3
220	220	12
199	200	8
84	102	1
186	186	19
72	72	10
12	110	2
108	236	5
70	78	3
68	68	20
40	248	2
22	26	6
193	193	17
43	59	2
13	37	3
223	237	2
45	46	6
43	43	2
160	160	11
40	91	4
7	231	3
102	102	13
108	230	6
215	246	1
77	77	9
202	202	16
208	208	9
101	103	2
193	194	6
39	113	3
4	107	3
9	117	4
237	248	1
58	58	3
29	29	7
97	241	1
52	93	1
41	41	10
8	8	10
172	220	3
167	168	5
239	247	2
74	119	6
33	33	9
110	232	1
101	102	6
42	43	4
190	191	4
115	236	1
34	95	1
79	81	6
209	210	2
212	212	5
153	162	3
21	21	12
46	46	3
88	88	9
12	45	3
56	57	2
8	53	3
224	224	3
83	83	1
211	211	9
47	49	4
181	181	3
78	89	5
60	71	1
6	11	3
34	49	2
47	89	1
91	97	3
240	242	2
37	111	1
151	155	5
64	94	6
75	102	2
144	154	1
188	188	9
96	97	2
190	190	8
174	175	4
81	81	6
2	19	4
183	208	1
71	73	5
32	65	4
214	214	8
52	55	6
46	51	5
25	51	4
30	37	3
97	97	7
182	183	6
116	117	5
88	89	2
201	236	6
114	237	1
169	211	5
173	180	1
235	236	3
32	51	2
73	75	2
241	247	1
30	30	7
115	116	3
25	211	3
102	106	2
191	192	3
114	114	15
21	150	3
247	247	21
219	237	3
74	90	4
75	77	4
214	233	3
144	181	1
187	194	1
196	196	4
182	186	2
192	192	13
112	119	1
216	216	2
155	155	10
189	189	8
52	52	12
172	173	3
64	65	2
24	49	2
71	72	6
73	74	6
220	222	3
72	77	4
86	89	7
188	189	4
206	207	6
106	106	5
188	192	2
87	87	3
147	147	6
92	92	4
101	104	5
215	218	5
159	163	1
109	110	4
152	177	2
102	104	3
206	206	5
51	224	3
155	237	2
248	249	4
151	186	2
173	174	4
203	236	3
52	95	4
7	7	10
55	71	3
178	182	5
241	245	4
2	2	2
95	95	10
53	53	6
205	206	3
238	242	5
110	111	4
224	245	2
176	176	8
182	182	6
27	44	1
152	153	3
38	38	9
198	199	4
86	87	2
96	99	1
117	117	9
71	71	6
242	244	1
80	80	10
158	158	9
84	85	1
194	209	8
145	145	5
37	94	3
32	33	2
72	74	1
155	180	1
111	116	1
33	68	3
102	105	2
200	200	12
194	214	5
33	38	6
242	245	3
173	181	3
49	50	3
110	110	11
185	197	3
231	231	3
244	245	6
99	100	2
178	179	2
47	48	6
50	75	4
207	207	12
166	166	16
228	229	3
31	37	5
22	22	5
19	113	5
217	242	5
105	108	4
111	232	7
150	150	18
156	184	4
34	57	4
77	78	1
99	101	4
229	229	5
208	209	7
231	232	1
118	118	9
26	202	1
93	227	5
236	236	9
169	180	3
85	85	5
211	213	1
248	248	5
91	106	4
213	213	8
115	238	2
116	205	6
228	228	7
158	159	6
5	49	2
216	217	3
232	232	11
2	3	8
176	239	6
22	23	3
24	24	9
151	209	1
152	179	1
193	213	4
69	71	2
214	234	2
80	107	4
29	37	2
38	102	1
147	176	5
14	34	6
194	195	5
45	52	2
58	70	1
41	42	5
17	41	2
98	100	2
29	30	4
160	161	1
229	230	3
38	103	2
193	246	3
216	239	2
13	92	1
108	116	3
153	189	1
14	15	3
6	10	3
156	160	1
40	40	4
73	73	7
51	54	1
39	111	3
103	106	2
12	69	3
113	114	2
53	54	1
85	108	1
196	236	1
245	249	5
75	80	2
211	214	2
225	226	4
106	107	2
206	228	1
47	100	4
35	113	1
23	23	10
162	234	3
236	241	3
149	198	1
189	191	2
60	61	2
186	192	2
17	17	6
179	180	4
232	233	3
46	98	1
156	212	1
231	237	3
65	65	7
37	37	3
149	156	2
172	197	2
150	219	1
36	36	13
162	167	4
120	120	8
105	232	3
217	236	1
180	181	5
51	65	2
62	88	1
152	183	3
169	170	6
33	34	1
211	216	1
168	173	3
218	220	2
58	93	4
24	25	3
18	109	2
246	246	5
4	108	3
117	237	5
5	39	2
227	227	5
12	12	5
155	215	1
74	76	3
28	206	2
200	203	3
26	146	1
249	249	2
161	224	3
5	47	2
159	170	4
207	211	1
194	208	1
29	94	2
80	81	4
7	229	4
6	6	3
61	61	3
226	227	4
99	99	6
155	179	1
85	86	1
110	113	1
42	59	2
233	233	9
114	120	1
226	226	6
222	223	1
204	205	3
62	62	9
112	242	1
45	67	4
160	170	2
9	10	7
89	89	6
157	170	6
107	107	3
178	183	2
162	186	1
157	243	2
155	169	3
169	234	1
84	84	4
15	37	3
225	229	1
215	239	1
59	60	4
219	236	4
58	61	3
156	162	1
11	54	5
190	241	1
115	115	5
22	24	4
166	169	2
2	4	1
30	31	2
119	120	4
183	184	5
34	50	3
113	120	5
46	47	4
102	103	2
98	98	2
108	225	1
78	79	2
221	224	2
157	181	2
168	169	4
204	206	2
51	85	2
60	64	5
237	244	1
202	203	2
58	73	4
166	170	2
208	214	1
219	219	5
73	81	2
65	99	1
162	185	2
55	115	1
20	69	3
38	79	2
7	230	3
32	37	1
1	1	6
47	82	4
244	246	1
29	63	1
153	157	2
186	187	1
39	39	2
111	244	3
39	41	2
187	192	1
187	188	3
216	218	3
187	190	2
104	106	1
73	118	1
16	53	1
175	213	1
101	106	1
59	59	5
109	202	1
172	219	2
78	78	2
210	211	4
94	95	3
51	51	6
202	204	1
221	221	6
37	61	2
180	236	2
18	116	3
47	47	4
18	38	1
114	116	1
185	186	1
172	181	1
176	179	3
3	4	1
239	241	2
118	120	2
110	155	1
70	73	1
58	60	2
83	102	2
67	68	3
37	39	1
208	215	1
200	213	3
27	146	1
164	165	4
63	100	2
37	86	2
104	107	1
157	232	2
215	217	2
112	113	1
33	55	2
197	198	1
48	90	1
150	155	1
114	242	2
173	179	1
74	104	1
173	208	1
29	38	1
183	189	3
215	219	1
9	27	1
230	235	2
6	54	3
80	83	3
110	116	4
71	99	2
212	214	2
221	231	3
233	234	2
183	188	2
158	164	2
25	223	2
167	207	2
201	205	1
167	173	3
186	190	1
63	68	1
48	48	6
243	244	4
245	247	1
175	200	3
189	190	6
88	247	1
50	96	1
55	55	3
224	225	5
74	74	2
0	0	5
214	215	5
234	235	2
30	64	1
167	169	1
145	204	1
16	44	2
209	214	7
158	209	2
38	46	2
5	10	1
56	70	1
180	182	4
86	90	1
40	225	2
167	184	1
75	90	4
229	235	1
72	73	1
197	223	1
208	238	1
6	118	2
114	227	1
106	232	1
3	89	2
87	98	1
110	117	1
20	22	1
35	47	2
231	235	3
55	56	2
238	239	1
20	68	3
156	159	1
55	95	1
76	104	4
50	78	1
87	88	3
8	26	2
228	245	1
161	162	1
150	174	2
71	77	1
48	49	2
83	84	1
49	102	1
50	240	3
20	58	2
108	115	1
238	246	1
234	237	2
104	104	2
62	93	1
200	236	2
18	19	2
111	246	3
209	212	2
160	164	1
223	224	1
61	62	1
5	11	1
54	62	1
104	108	1
34	38	3
12	114	2
30	90	1
199	226	1
93	94	1
154	167	2
9	29	1
201	228	2
157	158	2
36	66	2
197	247	1
82	82	1
114	115	2
91	92	3
36	109	1
146	146	1
72	116	1
194	197	1
237	243	1
105	110	1
87	109	1
30	93	1
79	101	1
21	22	1
218	236	3
74	89	2
3	9	2
176	187	1
79	96	1
108	109	1
211	215	2
169	172	1
20	57	1
4	39	4
177	178	1
161	193	1
115	243	1
28	54	1
212	217	2
229	234	1
149	165	1
162	214	2
35	96	1
33	39	1
111	112	3
170	177	1
177	182	1
108	108	1
193	197	1
175	176	1
158	189	1
69	89	1
85	117	1
223	244	3
12	46	1
162	163	2
243	245	1
47	91	2
71	76	1
81	82	3
175	209	1
243	243	1
33	35	2
56	99	1
0	1	1
32	36	1
29	55	3
146	147	1
62	89	1
159	160	1
215	234	1
80	102	1
70	114	2
202	235	1
34	76	1
2	9	1
19	42	1
55	87	1
77	101	2
19	20	1
176	177	1
104	105	1
217	238	1
34	111	1
208	213	1
195	196	1
19	40	1
73	102	1
113	204	1
38	42	1
107	108	1
221	222	1
188	190	1
171	175	1
199	201	1
193	195	1
192	193	1
171	176	1
91	103	1
71	116	1
50	97	1
88	99	1
102	225	1
15	55	1
175	177	1
12	14	1
6	231	1
