19	20	4
211	214	3
140	141	2
140	188	1
29	44	4
48	68	1
154	155	7
160	160	1
238	238	1
188	189	4
27	27	3
182	182	2
69	69	5
32	32	3
105	116	1
56	56	5
55	59	2
36	36	4
228	228	1
8	8	7
82	84	2
88	88	5
86	88	2
46	46	6
59	59	8
14	15	3
84	84	7
219	219	3
22	179	3
78	78	1
240	240	2
124	124	3
217	218	1
18	19	7
107	108	1
52	53	1
10	10	3
189	193	2
196	210	2
229	230	1
204	204	1
41	181	1
104	114	1
193	194	5
35	35	8
57	57	1
234	234	3
31	32	1
7	8	4
79	79	3
164	165	2
137	139	2
81	81	2
216	216	2
222	224	2
212	216	8
58	58	4
75	76	3
227	227	2
16	16	2
213	214	3
194	194	1
159	159	3
59	120	5
238	239	5
68	68	2
5	34	1
36	53	2
32	39	2
1	15	1
196	199	4
26	26	1
12	12	1
20	20	1
97	99	2
209	211	3
147	190	1
50	50	8
200	200	3
28	28	5
120	120	2
109	110	2
9	223	1
128	129	1
223	223	1
17	31	1
125	175	2
228	230	1
104	106	2
58	59	5
191	191	3
184	187	2
135	191	1
128	128	2
179	179	2
148	148	3
237	237	1
154	154	3
123	167	3
103	116	1
137	137	3
236	236	1
35	51	1
5	5	4
35	48	2
40	41	4
36	51	1
143	143	2
6	6	5
121	121	2
42	42	3
67	67	3
122	127	2
41	46	5
172	172	4
0	0	2
127	128	3
155	167	2
229	229	1
12	14	2
74	74	2
195	195	2
9	9	3
15	15	2
2	2	1
33	33	1
75	77	2
72	72	1
71	71	2
60	69	2
67	68	2
150	212	2
161	161	1
83	83	4
11	11	2
227	242	1
61	64	1
70	71	1
60	60	4
22	22	1
144	154	1
220	220	1
178	180	2
133	133	2
226	227	1
54	54	3
80	80	2
233	233	2
38	38	1
120	123	2
7	7	3
86	86	4
116	116	2
165	166	1
45	45	1
100	100	1
1	1	1
106	107	2
29	29	1
14	14	2
199	199	4
236	237	1
190	201	1
80	84	3
136	171	2
64	64	1
114	115	1
105	110	1
181	181	1
5	13	2
116	119	1
167	168	1
242	242	1
189	189	1
65	65	1
106	108	1
144	146	1
42	43	1
142	179	1
104	104	2
55	55	2
55	61	1
75	78	1
178	178	1
208	209	2
62	62	1
23	23	1
66	67	1
106	123	1
214	214	4
18	18	1
31	31	1
123	124	2
19	19	2
133	192	3
171	179	1
202	202	4
47	47	2
124	125	1
165	165	1
142	142	1
158	163	1
33	35	1
44	44	1
183	183	2
61	61	4
201	201	1
189	190	2
57	58	1
136	136	1
211	212	1
6	8	2
225	225	1
214	215	1
161	162	2
222	222	1
239	239	3
149	149	1
49	64	1
99	154	2
151	153	1
6	34	1
4	6	1
41	41	1
200	201	1
38	39	2
70	70	1
50	51	1
162	162	1
37	37	1
3	3	1
22	49	1
170	170	1
102	118	3
21	21	1
217	220	1
65	71	1
62	63	1
117	117	2
219	223	2
23	181	1
10	15	3
17	59	1
162	165	1
23	24	1
152	152	1
169	178	1
190	190	1
199	200	1
225	229	1
209	209	1
88	89	1
107	116	1
40	40	1
159	160	1
157	158	1
