82	84	4
73	73	16
111	111	3
99	99	3
77	77	7
101	101	5
26	35	3
56	57	1
41	41	4
59	62	1
112	113	1
88	88	3
88	89	10
59	59	2
61	61	4
90	90	7
46	46	5
91	91	10
71	71	11
36	36	7
31	31	4
47	49	5
97	98	5
40	40	6
42	42	6
21	21	4
108	108	2
43	45	7
58	59	3
22	22	13
100	101	2
79	79	10
38	38	5
81	85	2
92	92	2
47	47	5
102	102	9
49	49	9
110	110	3
69	69	11
25	25	3
96	96	4
74	75	3
113	113	3
42	44	2
109	112	4
55	57	2
33	33	12
65	65	4
37	37	8
112	112	11
89	91	3
101	108	1
50	50	5
95	95	9
102	103	1
107	107	6
32	32	5
89	89	4
100	100	5
28	28	7
108	109	9
71	79	2
86	87	4
110	111	2
51	51	8
85	86	2
32	34	4
42	43	3
91	92	3
95	99	1
28	29	6
72	72	5
113	114	2
58	58	5
27	27	6
82	82	1
57	57	1
57	58	1
20	20	5
95	109	2
21	22	2
109	109	7
34	34	5
43	43	5
98	98	9
40	41	1
43	44	4
41	62	3
103	103	10
109	110	10
85	85	4
23	24	4
64	64	4
62	64	1
60	60	2
76	77	6
94	101	1
51	52	9
105	107	1
93	93	5
52	53	3
98	99	4
34	46	3
19	19	3
66	67	1
86	86	10
35	96	1
48	49	3
76	76	6
114	114	5
39	40	6
30	31	5
73	74	13
52	52	8
80	80	3
63	64	1
31	32	4
68	69	5
49	50	5
81	81	2
89	90	1
97	99	1
59	60	3
30	30	9
78	79	4
68	68	3
48	48	6
70	71	4
48	110	3
74	74	10
78	78	4
32	33	2
56	56	3
29	29	5
24	53	1
24	46	2
72	73	1
90	98	2
65	66	5
104	105	3
63	70	2
38	40	1
85	88	1
36	39	1
73	75	2
75	103	1
82	83	2
95	110	2
47	48	2
97	97	7
49	111	1
36	37	3
39	39	5
44	98	2
45	45	6
20	21	3
103	105	1
26	26	5
106	106	6
55	55	2
75	75	3
61	70	1
35	35	2
83	83	3
61	62	1
105	105	3
93	110	1
44	45	1
34	35	1
25	94	2
79	81	2
25	46	1
53	53	2
99	109	1
20	36	2
60	61	1
90	91	1
105	106	3
27	28	1
91	108	1
79	80	1
99	100	3
96	97	1
95	96	3
67	67	3
93	108	1
24	24	1
46	47	3
44	44	4
104	104	1
68	71	2
84	84	1
91	93	2
59	61	1
70	70	1
23	91	1
104	107	2
111	112	2
87	87	2
94	100	1
46	48	1
62	82	1
67	83	1
48	50	2
93	97	1
75	76	1
