53	53	11
115	115	11
129	129	11
90	90	7
10	10	5
79	79	7
106	106	6
125	125	9
5	7	2
76	76	11
25	26	1
99	100	3
102	105	5
75	76	2
80	80	3
43	43	8
94	94	15
64	64	12
15	15	8
0	1	2
11	41	2
72	75	4
41	41	3
124	124	5
57	57	2
101	103	3
83	83	6
10	11	3
129	130	5
51	51	8
106	107	1
40	40	6
107	108	3
122	123	2
100	100	4
126	126	6
54	54	14
123	123	3
124	132	3
40	44	2
108	108	13
61	115	1
3	3	10
49	49	16
32	32	4
75	82	5
110	110	7
102	102	2
13	13	8
41	59	3
11	12	1
10	12	2
59	64	1
84	84	7
46	46	8
101	101	5
32	34	2
5	5	9
38	41	1
53	55	2
58	67	2
107	107	7
119	119	11
55	86	6
89	89	8
63	63	7
20	20	6
16	18	2
120	120	8
84	85	2
16	77	1
111	111	5
9	9	2
52	52	11
28	30	1
49	50	6
39	70	1
27	27	7
74	74	7
83	85	1
113	113	7
119	129	2
17	17	9
127	127	7
93	93	5
39	40	3
4	5	3
14	14	4
47	47	3
59	60	5
41	45	3
11	44	7
1	1	7
65	116	3
48	49	2
0	0	2
61	61	4
92	93	1
37	37	4
6	6	7
96	97	4
71	71	14
65	65	4
58	58	4
7	7	8
25	25	8
114	114	13
48	48	5
42	43	2
81	81	8
26	89	2
49	122	1
86	89	3
46	47	3
50	50	4
5	13	1
13	45	2
123	124	1
77	77	2
87	107	1
99	99	3
50	93	3
66	66	6
61	62	7
15	16	5
44	44	11
113	117	2
67	68	1
88	88	6
125	133	1
1	2	4
122	122	7
103	133	2
85	88	2
105	105	3
112	112	6
45	45	9
4	4	9
116	116	3
55	75	2
96	96	2
27	89	1
39	39	6
116	117	1
68	68	5
27	88	5
69	70	3
65	100	1
64	89	3
42	44	2
82	82	2
11	11	6
107	129	2
56	56	10
29	29	3
28	55	3
70	70	3
23	24	5
8	8	4
47	120	4
62	84	2
55	80	3
54	69	1
19	19	8
2	5	7
104	105	4
55	55	5
44	46	1
90	91	5
64	88	4
60	96	2
55	57	2
33	33	2
70	71	1
32	50	3
86	88	3
33	43	3
87	88	2
72	72	4
118	119	2
126	127	2
114	119	1
54	57	2
18	18	3
22	129	1
42	42	4
89	90	5
78	79	8
128	131	1
117	126	1
61	82	4
73	73	2
75	75	2
65	67	1
92	92	4
103	103	5
120	125	2
11	15	2
121	121	4
83	93	2
73	77	2
59	61	2
86	86	1
2	4	2
98	113	1
106	108	2
117	117	3
88	107	2
78	78	4
132	132	4
31	32	1
54	80	2
99	115	5
24	25	1
23	23	3
46	48	2
31	31	4
9	10	2
27	28	1
97	97	7
38	38	5
118	118	1
59	59	7
55	56	1
19	23	1
53	54	4
83	84	3
130	130	2
18	24	1
19	60	2
14	68	1
89	104	1
39	62	4
99	116	1
91	91	1
130	131	4
29	30	3
113	124	2
127	129	4
128	128	3
85	93	2
81	88	1
7	47	1
16	17	1
120	131	1
71	72	3
47	69	1
109	109	2
22	22	2
2	2	5
21	21	1
93	94	1
80	81	2
31	34	1
65	71	1
53	57	1
107	109	1
34	97	2
48	93	1
104	104	2
6	68	1
67	67	1
127	130	1
15	68	3
68	84	1
77	78	1
98	98	1
15	120	2
22	81	3
105	106	1
5	62	1
50	121	1
20	50	1
65	70	1
104	131	2
44	45	1
5	6	2
119	127	1
62	63	1
7	60	1
3	4	1
50	51	4
47	68	1
28	28	2
63	64	1
107	131	1
86	102	2
80	116	1
120	121	1
69	69	1
115	116	1
124	125	2
102	103	1
62	70	1
95	95	1
80	94	2
21	85	1
103	106	1
85	86	1
79	80	1
12	12	2
76	78	1
54	74	1
131	131	1
