114	114	9
230	230	7
179	179	8
94	94	30
242	242	11
14	49	2
115	115	9
9	54	1
75	90	1
36	36	9
96	96	3
33	33	8
77	77	11
195	195	12
97	98	3
202	230	2
174	181	1
54	54	11
56	56	10
163	163	8
207	207	13
149	165	2
162	162	13
61	61	13
167	167	15
104	104	9
110	116	3
171	205	1
71	71	14
25	25	13
153	153	9
206	206	10
234	235	4
87	87	10
209	237	6
42	42	14
36	55	6
73	85	2
159	160	4
163	178	2
52	52	4
163	164	21
21	22	7
175	175	19
105	107	3
221	221	4
168	168	14
244	244	11
233	233	14
228	229	12
180	180	13
40	92	2
248	248	7
208	208	8
209	209	11
193	195	4
57	58	8
111	119	1
101	101	10
163	184	6
237	237	3
60	60	7
29	29	4
8	8	5
201	204	4
199	199	12
24	24	15
235	236	4
59	63	2
53	77	1
5	5	17
164	165	2
175	184	6
84	84	12
76	76	10
22	22	6
12	99	2
115	116	7
193	196	1
194	231	1
225	225	16
179	206	2
21	200	5
245	245	23
220	221	5
149	149	2
117	118	3
112	112	14
231	231	7
216	216	14
116	116	21
111	111	5
146	147	1
159	159	12
72	86	4
149	169	1
156	156	8
231	241	3
238	239	10
62	62	6
183	191	3
42	43	9
71	111	8
145	145	2
20	29	4
196	196	25
68	68	11
200	200	14
165	182	2
6	6	3
56	75	1
177	183	2
194	194	15
10	10	8
232	238	2
230	234	2
57	71	1
41	42	9
204	204	25
169	199	2
34	34	6
47	47	4
116	117	4
183	215	2
42	46	7
185	185	14
14	99	4
182	183	3
48	48	7
191	191	9
218	218	6
181	181	11
178	178	10
41	55	1
88	88	15
19	201	3
89	89	12
114	116	4
147	157	5
219	219	10
64	64	22
117	117	10
173	186	4
55	78	6
112	244	5
229	229	12
199	220	7
168	212	1
46	46	9
82	82	12
92	92	13
187	187	16
85	98	2
182	182	10
118	118	14
220	220	10
119	120	2
52	93	3
110	110	10
10	39	2
239	239	10
23	24	1
222	222	13
180	182	4
57	57	9
246	246	20
169	180	2
45	46	4
63	63	8
240	241	8
75	85	3
179	184	4
179	197	4
213	217	1
241	244	2
147	147	1
18	18	11
14	58	2
41	41	18
205	205	10
214	214	15
168	199	1
40	40	1
217	217	8
174	174	5
32	32	11
155	155	14
243	243	17
85	85	20
19	19	7
14	14	9
235	235	8
244	245	11
36	51	2
245	247	4
1	19	4
99	99	5
188	191	3
71	74	7
35	35	4
240	242	4
8	11	3
79	79	8
152	152	10
4	34	3
98	98	6
203	204	3
173	173	8
12	12	18
8	9	2
19	186	2
202	202	15
23	154	5
66	66	13
168	179	3
20	21	1
186	186	8
19	155	3
232	232	6
150	150	14
74	74	9
104	119	2
21	23	3
7	7	13
177	177	4
188	188	3
191	192	7
176	209	3
21	21	11
39	39	9
111	113	3
67	68	2
93	94	1
37	38	8
52	78	5
103	104	2
224	224	10
169	170	8
21	36	3
166	166	11
184	184	7
34	35	6
69	70	3
234	234	9
107	107	18
86	86	21
218	219	3
234	240	1
183	183	8
218	246	10
170	170	12
99	101	3
40	51	1
241	241	11
78	84	1
50	94	1
239	243	4
66	68	2
51	53	3
75	95	2
246	247	5
4	18	1
208	237	3
73	98	1
110	114	2
175	176	5
78	82	3
196	197	2
22	160	2
94	95	2
191	193	4
189	225	4
11	12	2
146	146	2
73	73	5
58	58	2
91	91	2
238	238	5
236	236	21
195	196	2
4	101	2
39	40	4
72	73	11
170	193	1
171	177	6
37	37	17
227	227	7
193	193	11
198	216	3
165	165	12
169	194	3
10	11	4
222	229	2
162	165	2
175	177	1
179	187	3
100	100	8
21	53	5
19	36	1
17	24	4
178	183	3
215	215	17
213	213	6
198	212	4
4	99	3
65	65	8
2	6	2
212	225	4
211	212	5
176	177	2
98	99	3
20	53	9
179	204	3
25	31	3
113	236	3
228	228	4
59	59	14
231	240	2
51	51	8
225	226	6
116	118	1
210	211	5
114	115	5
29	63	3
97	97	9
181	182	3
23	37	2
102	102	4
164	164	10
62	186	1
169	169	19
179	203	4
23	23	12
92	93	3
243	247	1
6	7	5
155	205	2
243	244	5
68	81	2
165	166	5
50	50	3
247	247	10
101	104	2
190	191	9
151	151	8
2	3	2
93	93	5
154	179	3
211	211	16
70	74	5
160	160	7
172	193	4
61	62	1
154	154	7
178	199	2
104	105	2
30	66	3
172	172	5
26	26	8
232	233	4
49	49	12
177	199	2
200	201	4
58	67	1
119	169	5
5	6	1
22	37	4
181	203	1
43	155	1
105	106	5
71	83	2
80	80	11
198	198	4
7	53	3
177	211	5
47	48	2
240	240	18
90	94	3
44	44	7
15	15	5
34	81	3
11	51	4
192	212	2
120	120	5
158	158	14
221	222	6
14	15	3
86	88	3
213	218	2
163	166	3
16	16	4
208	209	9
187	190	1
81	81	6
118	119	2
189	196	2
203	203	14
95	96	5
18	19	3
84	85	3
16	59	2
172	197	2
168	169	4
109	109	7
185	201	2
192	192	7
45	45	3
78	79	6
180	202	2
178	206	3
67	67	8
239	246	2
60	77	3
224	229	1
245	248	1
72	72	7
162	212	1
43	43	4
42	44	1
172	180	1
107	109	1
25	26	1
19	65	2
242	243	5
4	4	2
83	83	3
59	117	1
213	215	3
99	100	4
200	212	1
210	210	14
1	18	2
77	84	1
28	28	5
15	16	1
238	247	2
4	38	1
49	70	3
20	20	16
66	109	4
241	242	3
108	108	9
187	188	3
12	76	4
242	244	3
106	118	5
157	157	5
227	230	4
55	89	4
171	172	2
97	99	3
161	190	1
189	194	1
17	17	4
157	159	1
28	29	2
62	119	1
27	29	1
30	30	5
162	231	2
230	231	1
27	27	12
226	227	3
89	90	3
189	189	11
171	206	1
37	39	2
227	228	1
106	107	3
106	119	3
76	77	7
87	88	4
197	197	11
167	168	3
17	111	3
163	181	1
110	246	1
150	151	2
9	9	10
171	171	7
193	206	3
153	160	4
245	246	3
76	95	2
58	83	1
65	66	2
90	99	2
111	112	3
233	244	3
114	119	4
84	89	1
189	190	5
229	230	2
201	201	11
103	103	8
82	85	3
31	31	7
58	79	2
218	223	3
163	165	3
238	240	1
70	70	6
220	228	2
172	173	5
161	161	5
38	38	6
233	240	1
184	200	4
115	118	1
55	55	3
102	190	3
226	226	5
50	56	2
198	209	3
57	79	3
168	180	4
150	155	1
213	214	6
91	95	1
170	172	2
147	152	1
176	187	4
199	200	3
213	236	1
224	237	2
214	215	3
179	180	3
75	75	7
172	199	4
108	114	1
237	238	1
110	111	2
7	8	3
95	95	1
85	97	1
216	217	1
212	212	15
169	195	1
77	78	5
109	110	2
170	195	4
17	64	3
211	213	3
236	237	2
196	211	1
197	205	3
171	197	3
85	86	1
69	69	2
1	1	1
176	176	6
4	5	5
57	85	1
8	20	6
60	107	1
11	11	7
212	213	4
53	53	5
85	96	1
153	179	1
108	109	2
15	19	1
108	155	2
73	81	2
100	108	1
202	203	3
171	179	1
19	156	2
170	171	2
52	207	1
24	32	4
164	180	1
101	118	2
43	44	1
197	198	1
243	245	2
74	105	1
219	220	2
51	55	4
55	73	3
236	239	3
27	56	1
96	97	1
24	53	1
193	212	1
90	90	4
80	82	1
194	216	1
96	98	2
55	61	1
39	50	1
213	223	1
56	57	2
9	28	2
173	174	3
11	40	1
64	65	2
106	106	15
112	115	2
54	55	1
119	119	2
85	87	1
206	237	6
169	171	3
234	236	1
171	180	4
145	150	3
113	113	4
106	108	1
74	112	3
78	78	4
180	207	3
146	159	1
3	3	2
101	103	1
182	184	1
220	223	3
109	112	1
30	31	2
86	91	2
5	20	1
190	192	1
38	40	1
24	41	1
166	209	2
72	96	1
196	214	2
177	184	2
204	205	2
188	189	3
63	65	2
105	115	2
205	219	5
198	199	1
61	74	1
157	158	3
76	82	2
20	31	1
36	68	2
185	186	1
17	18	1
178	182	1
159	175	2
189	193	4
36	54	2
26	27	1
223	223	3
66	67	2
113	243	1
38	39	3
87	97	1
5	101	1
95	98	1
213	216	5
86	87	2
113	114	1
239	240	1
165	196	1
248	249	1
249	249	1
167	192	1
112	113	3
17	55	3
109	247	3
102	188	4
244	246	1
62	78	2
232	240	1
161	228	1
55	186	1
107	114	1
60	119	2
183	192	3
92	95	3
174	197	3
112	118	2
15	99	1
55	88	3
242	247	2
219	248	2
183	212	1
156	161	1
194	196	3
30	62	1
60	120	2
13	14	1
48	75	2
152	153	3
56	58	1
31	172	1
1	9	1
80	81	1
201	202	2
165	184	2
238	241	1
83	84	1
79	84	1
29	30	1
21	67	1
72	74	1
49	94	3
214	218	2
223	224	1
171	193	1
35	100	1
195	212	1
70	71	1
12	17	1
218	245	2
22	117	2
60	106	1
222	228	2
31	32	1
105	118	1
231	233	1
55	56	2
239	241	2
103	187	1
172	176	2
37	68	2
167	169	1
44	111	1
179	199	2
197	232	1
100	118	2
188	194	1
81	84	1
199	211	1
58	71	1
197	212	2
104	112	1
178	180	1
49	71	1
86	90	3
50	51	2
216	247	1
166	179	1
196	215	2
179	188	1
161	189	1
207	222	2
194	195	3
108	120	2
33	59	1
216	219	3
88	89	1
166	167	1
52	53	1
58	59	1
22	157	2
68	70	1
238	244	1
225	233	1
160	161	1
162	163	1
112	243	2
214	216	1
162	192	1
165	180	1
55	82	1
154	163	1
196	198	1
90	111	2
59	88	1
199	209	1
59	87	2
18	41	1
146	160	1
57	80	2
198	234	1
212	231	1
182	187	1
109	115	1
146	152	1
197	234	1
160	183	1
17	44	1
12	15	1
214	217	1
56	61	1
179	196	1
212	233	1
1	16	2
178	179	1
6	155	1
85	88	1
53	90	1
166	183	1
162	176	1
119	166	1
88	96	1
71	110	1
102	103	2
154	155	1
19	34	1
109	113	1
28	206	1
113	249	1
158	159	1
2	26	1
76	78	1
169	212	1
169	188	1
2	2	1
206	207	1
39	61	1
50	65	1
217	218	1
201	212	1
224	225	1
