6	128	1
124	125	2
29	29	2
6	16	3
125	125	14
100	100	9
139	139	7
104	105	3
118	118	2
108	108	11
75	75	4
72	74	4
86	90	1
72	72	1
80	110	3
83	83	2
4	100	3
126	127	5
10	11	3
115	117	2
125	126	5
114	114	12
37	37	4
121	121	3
126	126	16
102	102	4
6	6	13
77	83	3
123	123	18
13	14	4
19	19	8
5	5	13
18	18	8
24	25	3
15	79	5
78	78	10
140	140	14
137	137	8
119	119	12
133	133	10
28	28	3
79	79	4
21	21	4
120	123	5
120	120	8
106	106	5
82	82	2
104	104	5
98	98	7
114	115	3
116	117	4
128	129	4
25	26	2
77	77	6
107	107	2
0	2	1
32	32	1
101	103	1
8	8	2
118	119	1
75	76	4
128	128	6
21	27	2
81	82	1
92	92	5
38	106	2
100	101	3
2	2	5
93	93	4
11	11	5
87	87	6
36	37	1
20	20	12
125	135	6
86	120	1
131	132	3
76	76	4
3	3	9
0	13	2
90	91	11
17	17	5
18	20	1
71	71	4
109	109	6
5	24	4
117	117	6
38	103	3
15	15	12
24	27	2
17	19	4
78	104	1
26	26	8
97	97	4
138	138	11
87	108	7
84	84	3
16	124	2
121	123	2
77	124	1
90	116	4
113	114	3
88	121	3
5	111	2
101	101	1
136	136	3
1	2	3
123	131	4
34	35	3
96	96	6
113	113	7
7	15	6
130	130	4
4	31	5
82	108	2
103	103	7
73	73	5
7	32	1
6	8	2
12	27	1
127	129	2
21	23	1
36	114	1
134	134	2
129	129	4
89	89	5
22	22	6
130	134	2
102	112	1
111	114	1
71	72	2
77	85	2
131	136	2
132	132	5
27	28	1
10	19	3
115	116	1
131	131	6
38	117	1
30	30	5
10	10	5
0	0	3
13	13	2
131	134	1
106	109	4
31	31	6
101	105	1
86	113	5
124	124	5
124	134	1
17	125	1
9	9	6
88	107	1
140	141	4
34	34	5
22	23	4
33	33	6
90	90	2
6	91	1
6	7	1
26	28	2
27	27	4
80	80	2
102	106	4
19	20	3
115	115	5
14	14	3
10	12	1
8	9	4
36	36	4
9	30	1
5	30	1
71	79	2
112	112	1
116	116	3
106	107	1
94	124	1
12	15	1
121	137	1
4	4	3
5	87	1
135	135	2
135	139	1
130	133	1
111	111	1
104	106	2
12	12	1
122	122	2
110	110	2
3	34	3
94	94	2
79	80	1
1	1	2
95	95	4
7	8	1
13	15	1
78	79	2
133	134	1
93	94	1
16	75	2
81	81	1
75	77	1
35	35	1
21	26	1
73	76	2
17	77	2
7	76	1
121	138	1
6	36	1
6	97	1
85	85	2
23	24	2
78	85	1
17	28	1
16	21	1
13	18	1
121	122	1
74	80	1
95	97	1
110	111	1
80	125	1
11	12	1
