133	133	24
94	94	27
123	123	25
73	111	1
81	81	28
21	32	5
37	61	3
28	28	27
140	140	28
16	16	19
53	53	27
106	106	37
42	42	26
113	113	15
102	102	24
99	99	15
119	137	7
37	37	44
125	126	27
65	66	11
90	90	28
95	95	28
39	57	2
118	118	41
6	11	4
43	43	2
85	85	32
18	18	33
69	69	33
10	11	13
141	141	30
19	30	5
138	138	28
61	61	22
27	27	34
129	129	36
16	17	4
136	137	27
48	48	24
131	132	23
94	104	4
136	136	39
13	13	22
60	81	1
61	68	3
32	32	32
83	84	10
90	112	2
68	69	13
54	56	1
112	116	4
4	4	33
109	109	13
6	114	1
39	39	18
41	41	46
19	22	2
35	35	34
116	117	25
77	104	2
93	94	20
113	114	8
91	91	21
96	97	20
108	108	42
71	98	1
66	67	2
103	124	4
33	33	20
60	61	21
101	101	51
139	140	11
134	134	41
135	135	54
89	93	2
70	72	6
94	95	12
127	130	2
28	61	1
100	100	30
64	65	18
131	139	4
84	84	28
107	107	23
74	74	23
76	101	2
3	68	1
36	36	20
124	124	38
125	127	3
5	12	2
9	96	2
58	70	4
11	11	21
101	125	2
1	1	17
13	33	3
144	144	28
37	43	3
137	138	14
34	35	9
47	47	11
96	96	31
9	13	1
24	39	1
119	119	30
67	86	2
107	114	1
76	76	26
38	39	6
38	38	24
24	24	32
55	55	14
64	64	20
5	5	40
135	136	17
120	135	4
134	136	3
93	112	1
86	86	8
112	112	27
70	81	2
131	131	40
133	135	4
124	125	14
91	96	4
126	126	24
27	74	1
79	79	18
116	116	20
78	102	2
89	94	7
92	92	46
126	127	25
105	105	30
29	67	2
72	72	11
61	73	8
21	86	3
28	29	5
110	119	3
82	82	25
9	26	4
18	39	3
56	56	30
26	26	19
128	128	40
80	80	22
76	105	1
142	142	9
54	54	25
54	55	7
87	87	29
21	22	2
0	14	2
15	17	1
0	0	9
132	132	32
89	111	2
21	47	4
67	67	23
122	122	27
79	103	2
29	30	7
137	139	3
30	35	1
30	30	40
11	33	4
110	110	43
71	74	6
60	60	27
2	5	2
105	106	15
2	3	9
52	52	20
20	33	2
114	114	26
10	10	25
77	85	2
91	94	3
76	77	16
65	72	2
17	17	16
55	77	1
8	10	3
82	83	8
73	73	30
56	74	2
6	6	24
86	87	2
21	21	22
80	99	2
78	79	4
49	49	37
15	16	11
22	22	30
70	71	6
117	118	10
133	138	6
20	20	36
86	131	2
106	115	1
62	69	5
68	68	19
126	128	1
96	99	2
118	119	15
142	143	14
28	128	2
103	104	3
17	29	4
80	88	5
71	72	12
117	128	4
34	36	3
70	118	3
130	130	40
34	34	27
52	64	3
113	117	3
6	30	1
57	57	14
75	75	15
122	124	6
103	103	34
95	104	7
9	9	31
137	137	36
107	116	3
40	40	22
73	109	2
19	82	1
19	19	35
5	11	1
20	23	3
145	145	8
98	98	40
112	135	2
114	117	3
97	107	5
132	133	9
51	52	15
134	135	12
143	143	25
68	83	5
133	134	21
118	131	1
88	88	23
122	123	8
103	112	4
110	111	5
73	91	1
65	65	8
108	109	8
146	146	5
104	104	28
70	73	1
13	62	1
4	6	4
91	130	2
125	129	7
118	132	1
3	3	22
106	108	1
26	40	2
25	25	18
107	108	20
115	115	8
64	71	4
93	104	1
92	94	5
97	97	20
53	63	2
84	96	2
87	88	16
138	140	7
70	70	14
131	138	1
90	92	3
62	94	7
98	99	4
73	94	1
63	63	23
130	140	1
39	40	4
78	90	4
117	122	6
93	95	3
114	116	4
117	117	26
64	72	5
18	19	8
50	51	18
32	33	5
26	125	2
82	129	2
14	26	4
76	104	6
63	77	3
73	85	1
119	120	4
15	39	1
36	37	14
64	80	2
104	105	12
8	95	2
31	35	2
84	85	15
62	62	29
127	127	25
31	36	1
79	80	6
35	36	10
132	135	5
98	126	3
108	116	3
78	78	10
69	118	3
2	2	19
71	94	1
115	137	7
12	12	5
50	52	4
95	96	4
76	109	9
102	103	10
89	117	2
65	69	6
34	139	3
31	32	11
110	120	1
120	121	12
114	115	17
81	103	4
22	26	1
83	83	26
111	111	24
82	120	1
82	103	3
59	60	13
27	70	1
89	90	31
96	100	6
24	28	3
59	59	22
42	49	4
78	106	6
93	93	22
50	50	33
77	77	25
5	33	3
30	32	4
71	115	3
66	73	2
86	91	2
9	59	1
2	32	4
75	91	4
47	48	3
120	120	40
135	140	7
8	8	25
9	21	1
129	131	11
31	31	33
142	144	1
29	29	31
90	91	7
101	105	4
110	116	3
19	25	2
104	112	4
102	143	5
57	58	2
61	79	3
78	81	2
90	93	5
99	101	5
123	127	4
14	14	11
66	70	3
131	133	4
77	80	4
66	94	1
97	99	2
79	83	2
73	128	3
62	68	5
67	121	3
26	27	5
111	140	2
93	110	1
139	139	38
62	65	1
90	108	1
122	125	2
62	66	2
33	34	25
27	122	2
108	120	2
129	130	6
10	15	2
92	93	6
71	71	23
63	74	3
77	78	8
67	68	1
21	131	2
0	77	4
98	100	3
62	63	7
66	71	2
58	67	3
32	35	4
66	66	13
15	15	17
10	20	1
124	126	5
108	131	2
58	63	3
81	121	3
86	110	8
84	127	2
125	125	21
18	49	1
36	41	2
56	63	2
118	122	3
138	139	7
136	138	5
66	91	2
30	41	3
139	141	4
75	92	2
58	58	22
98	124	5
115	116	8
36	55	1
123	144	5
78	83	3
72	74	2
99	100	6
59	95	2
10	113	3
118	135	4
120	128	2
55	56	3
112	118	2
52	53	6
1	26	6
110	114	3
114	138	5
112	113	5
66	102	2
5	98	4
102	122	3
48	98	2
102	104	2
19	100	1
24	25	4
49	63	4
57	61	3
25	26	16
39	101	1
59	66	3
117	137	1
61	62	10
101	102	6
69	105	1
50	98	2
108	138	3
121	121	36
0	10	3
79	86	1
97	98	9
132	134	2
72	142	3
109	116	2
12	50	2
82	84	2
1	2	7
133	137	5
17	20	2
16	39	4
121	124	6
4	5	11
83	91	4
58	82	5
68	85	2
48	52	5
129	135	1
69	79	1
57	62	2
71	80	2
97	114	3
13	14	2
123	128	4
0	1	8
5	10	2
49	55	1
2	68	2
109	133	2
24	26	3
87	98	5
7	19	2
117	143	3
18	109	3
144	145	2
93	111	3
130	143	1
40	66	1
62	64	5
73	84	2
73	104	3
140	141	15
28	73	2
4	10	4
23	23	33
37	54	3
127	132	5
106	107	7
76	81	7
4	35	5
11	19	3
110	137	1
111	115	2
75	109	1
91	127	1
135	137	11
119	140	1
124	127	3
21	42	1
116	127	3
17	62	3
117	140	3
24	27	3
109	110	3
134	137	5
137	140	5
127	128	9
72	73	9
34	43	1
122	143	2
127	138	2
23	26	2
33	37	2
74	98	2
13	51	3
49	50	10
48	58	3
141	142	13
105	107	2
76	83	4
47	49	1
120	131	4
80	81	6
51	51	14
15	104	1
23	24	6
77	107	1
58	61	2
69	70	12
77	82	3
62	79	2
127	129	2
97	123	1
73	108	2
104	111	3
113	131	6
88	92	2
76	80	5
87	92	6
76	82	4
46	46	1
63	76	2
75	83	3
65	73	2
56	62	1
70	99	1
122	127	6
111	133	1
111	117	2
76	93	2
121	122	16
74	96	1
0	6	4
16	20	1
8	42	3
61	120	1
113	118	2
122	135	4
96	123	5
116	131	2
91	107	2
81	125	2
88	120	3
92	95	3
65	70	3
65	83	2
86	120	1
41	71	1
22	23	4
116	139	1
69	107	4
64	68	3
37	38	5
93	109	4
0	8	1
73	75	3
121	130	1
110	117	2
23	25	7
81	95	1
67	92	1
38	40	1
5	39	5
53	55	6
87	96	7
86	122	3
1	12	2
41	98	2
4	33	3
130	131	6
36	53	1
33	39	2
8	77	4
18	30	1
113	115	1
69	72	7
1	9	2
29	48	2
62	73	5
5	13	5
59	74	3
20	65	1
97	101	1
76	92	2
88	93	2
24	125	1
37	53	2
92	108	2
110	132	4
65	75	1
18	20	2
41	42	4
128	134	3
84	104	3
15	33	2
6	7	3
17	18	10
128	129	3
67	91	3
83	106	2
76	87	3
33	38	2
74	106	4
83	133	4
19	49	3
52	62	1
20	21	6
14	31	4
34	140	2
80	86	2
92	109	2
52	55	2
5	6	5
123	130	7
83	86	1
108	139	5
34	64	3
133	140	2
123	125	5
40	58	1
13	31	2
75	111	2
35	39	1
96	109	1
120	123	2
111	126	2
40	41	4
67	69	2
58	81	3
108	110	2
107	133	2
53	54	6
75	107	2
80	87	4
72	108	5
55	65	3
2	56	1
87	107	2
112	114	3
19	32	2
13	49	3
69	73	2
82	110	2
51	56	6
71	139	1
55	74	2
8	48	1
113	116	3
84	121	2
123	124	2
13	30	1
81	126	1
65	68	2
23	92	1
76	91	1
17	39	1
55	62	3
49	51	3
3	4	6
8	37	2
74	81	4
35	37	4
30	36	1
67	70	1
51	53	4
5	24	2
34	88	2
119	131	1
104	113	2
118	140	5
116	124	3
134	138	3
111	112	6
67	99	2
89	89	12
100	125	3
40	97	1
100	101	4
21	117	1
38	68	1
90	99	1
69	120	2
114	137	3
131	134	7
129	140	2
30	31	1
118	126	3
53	65	3
136	140	1
75	85	1
119	123	2
59	135	1
135	139	2
2	4	3
17	36	1
81	102	1
91	92	3
52	56	1
97	132	2
97	102	1
36	54	1
16	33	1
68	70	4
88	89	11
72	104	1
82	87	1
87	105	2
85	110	2
128	140	1
1	19	2
112	127	2
86	109	1
63	72	4
9	42	2
10	41	1
57	79	3
124	129	2
113	126	4
95	97	1
54	80	1
117	119	2
11	23	1
72	106	4
92	110	2
54	57	3
65	115	1
59	127	2
96	98	2
17	42	1
77	119	2
85	86	1
9	10	3
13	38	4
104	106	2
17	34	1
75	81	1
92	102	1
129	143	2
9	35	1
122	130	1
107	109	2
130	132	2
94	106	1
113	133	2
114	127	1
93	106	2
52	76	1
126	134	1
76	78	3
75	84	3
93	105	4
85	112	3
121	129	1
109	117	1
70	107	2
39	67	1
105	108	1
54	66	1
118	137	1
74	77	4
61	102	1
78	107	1
13	15	3
48	50	1
41	67	1
105	112	2
37	41	1
1	17	1
14	15	5
83	97	2
64	70	2
50	64	2
3	9	2
112	117	2
81	82	3
27	28	3
62	71	2
80	106	1
115	132	1
48	51	2
75	112	3
53	57	3
5	17	1
67	95	1
12	13	4
129	136	2
85	107	2
108	132	2
50	90	1
88	110	1
23	94	4
91	95	4
71	84	1
5	19	2
95	102	4
5	21	1
61	63	2
133	136	3
121	144	2
118	130	2
14	16	1
30	97	1
68	71	1
84	123	1
55	67	2
82	121	2
31	34	1
123	143	2
71	85	1
36	72	1
89	91	2
32	59	1
95	101	1
18	26	3
55	66	4
84	115	1
56	67	1
111	137	2
111	113	1
62	83	1
47	58	1
63	64	4
130	135	3
0	60	2
64	69	3
28	41	1
10	28	1
1	69	1
119	122	1
85	92	1
0	23	2
117	135	2
54	64	1
66	103	2
72	85	2
129	133	2
145	146	1
75	79	1
87	91	2
98	103	1
114	139	2
10	33	3
92	112	4
81	122	2
13	17	1
88	118	2
70	100	1
68	86	1
127	133	1
58	130	1
103	142	1
11	18	4
82	125	1
17	21	3
114	133	2
74	84	1
12	102	2
21	23	1
85	104	1
57	99	1
35	57	1
117	126	1
8	114	1
26	67	1
32	37	1
13	125	1
75	76	4
57	70	1
65	120	1
117	124	1
74	85	1
109	112	1
30	55	3
5	9	1
82	85	1
93	103	1
74	75	2
29	109	3
6	15	2
30	98	1
75	104	1
120	122	1
28	60	1
95	124	1
30	120	1
59	100	1
82	108	1
111	114	1
82	144	1
26	113	1
112	141	3
6	20	2
22	25	2
12	14	1
109	138	5
98	105	1
76	79	3
74	76	2
32	36	1
18	22	1
98	110	1
97	111	2
23	38	1
86	93	1
96	122	1
125	130	2
43	64	1
30	112	1
136	139	2
131	136	3
11	30	4
83	98	2
9	33	2
16	34	1
34	38	1
59	94	3
102	105	1
94	100	1
21	120	1
62	130	1
68	106	1
105	109	1
55	105	1
66	81	2
143	144	2
27	29	1
33	88	1
86	112	2
82	133	1
58	64	1
69	84	1
52	70	2
83	104	1
77	93	2
52	89	1
73	74	1
65	74	1
27	64	1
120	141	1
111	136	1
59	69	1
125	131	1
110	133	1
70	74	1
105	138	1
121	123	1
34	47	1
13	39	1
86	89	1
62	75	1
124	128	1
89	133	1
121	133	2
60	64	2
66	69	2
14	125	1
12	37	1
34	87	1
55	59	1
40	65	1
130	134	2
30	80	1
124	132	1
84	108	2
87	90	2
9	25	2
52	102	1
106	111	3
66	95	1
57	59	1
12	24	1
78	104	1
79	107	2
52	90	1
61	94	1
95	126	1
101	120	1
74	141	1
111	141	1
0	12	1
72	88	1
77	83	1
57	142	1
87	113	1
40	72	1
0	9	1
116	118	1
10	42	1
92	97	1
103	128	2
100	120	1
55	126	1
33	42	1
111	118	1
119	141	1
86	111	1
56	79	1
87	97	1
79	102	1
114	135	1
33	36	1
64	66	1
77	140	1
57	112	1
