88	89	2
57	57	6
116	116	2
147	148	5
171	193	1
185	185	5
169	170	10
95	96	1
107	107	2
128	128	9
152	152	5
15	15	8
42	44	5
3	5	4
103	104	10
142	143	8
4	4	2
9	9	15
193	194	12
19	19	5
58	59	3
158	159	1
151	152	3
135	148	4
115	117	2
129	129	1
194	195	5
144	144	5
134	134	4
24	25	11
13	14	2
176	176	3
178	178	4
120	120	6
192	192	2
56	56	5
133	134	1
119	121	1
166	166	4
53	53	2
187	187	7
155	155	3
195	195	7
39	40	1
32	32	4
139	140	4
134	136	3
5	5	4
125	126	8
12	12	9
40	41	3
56	65	2
44	44	3
95	100	2
50	55	1
136	136	6
18	20	4
52	52	4
46	46	6
168	169	6
26	26	2
52	53	2
189	189	9
47	57	2
42	42	4
158	158	5
41	42	3
181	182	7
126	127	4
17	17	1
14	42	3
43	43	1
78	78	2
175	178	1
16	16	9
54	55	1
121	133	2
83	83	2
190	192	2
140	140	8
187	195	1
184	184	5
154	154	11
116	117	2
128	129	2
194	194	4
153	181	1
55	55	7
26	31	1
42	43	1
74	74	1
35	35	3
159	159	5
9	10	8
8	8	8
142	145	1
15	46	4
103	103	1
177	177	7
178	180	5
124	126	1
22	22	11
78	79	2
7	8	1
189	190	3
35	43	4
121	128	1
51	56	3
170	170	8
62	63	2
141	142	4
169	169	9
54	54	3
185	186	7
183	183	5
48	48	5
27	27	2
163	163	5
137	137	5
102	103	4
139	139	2
148	149	7
174	175	1
63	70	4
182	182	6
16	126	2
130	130	6
45	45	6
132	177	2
184	186	3
171	171	6
172	172	3
27	30	2
160	161	5
66	69	3
164	164	3
140	141	2
143	146	1
143	144	3
144	145	2
160	160	6
106	106	5
161	173	3
59	59	5
182	183	6
174	174	3
135	135	4
165	167	1
188	189	2
79	80	2
1	51	2
79	79	3
141	141	4
121	121	3
18	22	2
69	70	1
48	49	1
158	180	2
196	196	8
50	50	7
10	10	7
66	66	4
197	197	8
9	45	4
113	115	3
55	56	4
11	13	1
118	118	2
14	14	7
22	23	2
188	188	6
117	117	5
99	121	2
132	133	4
123	123	7
165	166	2
156	156	1
12	46	1
61	61	4
29	29	5
196	197	3
115	125	3
89	89	5
116	120	5
151	151	3
11	11	4
24	24	1
179	179	4
147	147	2
162	163	1
190	190	1
17	51	2
190	191	1
142	142	9
1	31	1
191	193	1
97	97	2
47	48	6
162	181	3
65	65	1
15	44	1
173	173	5
181	181	6
86	86	2
50	53	2
149	154	2
122	122	5
109	109	4
152	170	1
60	61	3
11	126	2
180	180	2
167	168	4
119	136	1
155	156	2
26	76	1
3	24	1
148	148	3
152	154	1
71	81	3
13	13	1
35	99	2
87	87	1
193	193	3
3	3	3
156	191	3
53	56	2
126	126	6
108	108	2
37	37	5
159	164	1
100	100	6
38	39	1
7	19	4
187	191	2
149	150	1
117	118	2
0	2	3
114	114	2
68	68	3
80	82	3
151	170	1
23	23	3
139	141	4
105	105	8
127	127	4
191	192	3
129	131	1
49	51	1
34	34	4
186	186	4
124	124	4
33	52	1
39	39	4
14	128	3
192	194	1
14	15	1
31	31	1
96	97	3
153	153	9
132	132	1
116	118	1
173	175	1
10	13	3
104	104	5
146	148	1
194	196	2
110	110	2
171	172	2
71	71	1
57	58	1
50	56	1
14	48	1
145	146	3
118	120	1
134	135	2
159	160	4
30	31	3
108	109	1
19	21	2
33	33	2
94	95	1
112	112	3
156	173	3
39	41	1
161	161	1
33	57	1
106	107	1
67	68	2
4	190	1
153	155	2
63	64	1
51	52	3
20	20	1
15	16	1
160	186	1
102	105	3
50	51	1
36	37	1
11	14	2
191	191	3
37	38	3
47	47	3
156	157	2
28	28	2
121	122	2
191	194	1
27	28	3
9	125	1
32	33	3
175	194	1
143	145	2
105	106	2
25	58	1
83	157	1
58	58	1
49	49	3
98	106	1
41	41	1
80	80	3
115	115	1
81	81	2
8	16	1
167	177	1
95	95	2
157	158	2
180	181	3
51	53	1
107	111	2
195	197	1
71	84	2
39	42	1
36	36	1
186	187	1
157	157	1
187	188	1
176	178	1
26	33	3
26	27	1
45	46	1
70	71	2
62	71	1
101	138	1
137	138	1
131	131	2
149	149	2
72	74	1
118	119	1
172	183	1
3	32	1
8	9	1
43	44	1
175	176	1
153	191	1
84	84	2
67	67	1
78	142	1
21	28	2
25	25	1
143	167	1
23	53	1
117	136	1
121	123	1
80	81	2
12	21	1
1	5	1
170	193	1
184	197	2
50	54	1
78	95	1
3	34	1
119	119	1
133	133	1
168	197	1
107	120	1
1	8	1
