36	36	1
74	74	18
76	76	10
51	51	13
74	75	3
104	104	4
96	97	5
19	21	6
73	73	6
79	79	9
26	27	13
41	41	4
28	28	19
97	98	3
45	48	5
31	31	9
99	99	18
53	53	9
48	48	2
95	95	7
41	66	4
42	49	2
41	42	5
91	91	2
109	109	2
42	45	5
98	99	10
19	19	1
52	52	6
93	93	8
111	111	10
110	110	7
70	90	1
109	110	10
29	46	3
66	67	3
81	83	3
20	24	2
44	44	17
102	102	7
97	97	8
114	114	3
50	50	6
110	111	5
42	42	22
23	24	6
107	107	4
80	80	10
101	102	8
20	20	3
96	96	2
55	56	5
25	25	5
101	101	3
43	43	9
34	34	5
106	106	9
115	115	2
104	107	2
72	73	8
45	45	4
34	36	5
102	103	3
88	106	4
42	43	7
79	81	11
87	87	5
36	72	2
32	33	3
29	30	7
43	49	1
52	54	5
49	73	4
71	72	3
70	70	5
19	22	3
71	71	4
25	29	3
103	105	6
100	102	6
27	27	10
40	42	6
84	109	1
47	48	8
86	87	3
61	68	2
32	32	13
58	76	3
40	40	9
88	88	6
69	69	2
72	72	11
113	113	9
98	98	7
39	39	10
22	22	9
55	55	4
46	46	9
26	26	3
92	93	6
27	28	6
25	26	3
73	80	3
37	37	4
92	106	3
35	36	1
100	100	8
44	110	4
23	27	8
21	21	11
61	61	4
83	84	5
56	74	2
85	85	11
32	35	2
103	103	9
63	63	2
29	31	3
47	47	9
75	76	2
108	108	2
90	92	2
46	87	3
42	44	5
73	103	3
21	33	1
38	39	2
33	37	1
23	33	3
83	97	2
27	29	1
49	49	3
41	92	1
94	94	3
22	23	8
43	63	5
78	79	1
36	38	2
48	49	2
61	70	3
103	104	5
88	94	2
68	68	2
33	33	6
91	94	2
65	65	2
33	34	2
30	45	1
64	80	1
73	74	3
24	24	3
67	68	2
21	22	1
30	32	1
84	85	3
24	27	2
57	57	5
50	51	3
97	101	1
55	73	1
30	30	3
107	108	1
51	52	1
44	63	1
61	76	3
95	107	5
98	100	1
45	46	3
103	107	3
29	37	1
81	82	3
67	90	2
22	24	1
62	72	1
96	98	1
31	32	2
95	97	1
53	87	3
85	94	2
63	91	1
102	108	3
87	94	1
65	66	1
92	92	6
105	105	3
61	63	1
24	30	1
89	92	1
38	38	2
100	101	3
77	77	2
64	64	4
21	24	1
105	106	3
44	45	2
58	59	1
91	92	3
77	78	3
47	49	1
60	60	4
89	104	3
90	90	1
20	21	2
78	78	2
46	48	1
29	29	4
82	82	1
68	69	1
70	71	2
59	60	1
53	74	1
86	86	1
54	82	1
30	39	1
85	86	1
112	112	1
39	40	2
95	98	1
34	35	1
63	64	1
96	103	1
32	46	2
40	41	1
98	102	1
87	92	1
79	80	1
