165	166	13
11	12	6
50	51	6
136	136	14
152	152	18
105	111	2
22	22	25
65	65	12
103	103	6
32	32	8
154	154	9
41	42	12
39	39	16
13	15	1
19	21	4
64	93	2
91	91	10
123	125	12
96	96	22
130	176	2
59	72	3
12	13	5
99	117	2
13	13	7
11	11	11
96	180	1
161	161	4
3	8	5
151	154	3
125	125	9
5	5	18
117	135	2
2	6	4
87	90	2
57	57	8
128	128	4
97	101	2
156	156	10
71	71	14
14	14	15
75	75	19
16	17	4
19	20	13
17	17	20
115	126	6
100	100	5
52	75	1
7	12	2
86	106	1
33	33	20
106	106	8
64	64	5
12	12	16
8	8	23
9	10	6
84	104	3
5	6	10
123	124	6
130	131	7
135	150	5
15	15	15
45	45	15
129	129	14
43	43	12
112	112	24
134	134	6
56	61	1
34	40	2
132	149	3
124	125	13
7	8	10
129	157	1
132	132	7
84	84	2
30	30	17
84	85	1
95	95	8
117	117	10
85	102	6
146	146	8
161	162	15
53	54	2
4	5	5
130	152	5
126	127	5
149	150	4
88	115	2
76	77	6
163	163	12
150	180	2
2	2	15
41	41	16
23	26	5
126	126	11
135	135	5
0	16	5
99	101	7
129	150	3
109	109	6
27	55	1
23	24	1
42	42	23
155	156	5
112	113	3
1	4	2
50	50	8
122	131	4
63	65	3
19	19	17
110	110	12
136	151	1
28	57	1
40	42	5
164	164	13
140	152	6
29	29	14
4	7	2
22	30	2
34	34	2
57	58	9
169	169	10
3	15	5
119	130	1
63	63	9
176	176	14
113	114	3
125	170	3
104	105	3
59	59	7
15	16	7
138	138	15
13	27	2
20	20	5
130	157	6
94	107	2
56	57	2
88	110	3
28	28	26
55	55	10
86	86	9
24	24	16
74	74	12
88	88	15
53	55	1
109	110	1
116	117	6
159	159	5
107	174	3
143	144	3
9	9	14
14	15	4
22	23	7
98	98	6
144	145	5
131	131	7
87	87	7
27	27	16
157	162	2
65	66	3
145	145	9
140	140	9
105	105	3
116	116	3
94	94	8
100	111	1
24	43	1
120	146	2
103	126	1
24	161	1
1	2	3
101	112	3
107	108	10
59	60	1
3	3	7
148	148	10
39	40	13
164	165	3
66	66	6
25	25	11
92	92	14
51	52	2
1	1	11
54	55	3
11	113	5
5	18	2
119	120	2
172	172	15
144	144	10
147	147	3
14	17	2
63	92	1
118	118	7
44	44	13
80	80	12
142	143	4
155	161	3
153	175	1
20	21	2
108	108	9
166	166	8
35	35	11
89	89	4
26	35	4
109	112	2
110	111	4
157	157	8
10	130	5
38	39	3
114	114	10
88	89	6
80	127	1
79	79	9
179	179	9
160	160	4
134	135	2
86	166	6
127	127	9
23	23	12
38	38	23
42	43	3
5	15	4
16	18	10
148	179	6
73	73	7
59	96	1
57	72	1
65	97	2
83	83	6
148	149	2
103	104	3
135	136	5
30	31	11
102	102	5
66	67	2
163	166	1
113	113	7
8	128	2
17	41	2
169	173	2
87	106	2
73	75	3
123	123	10
136	164	2
3	4	8
52	93	2
157	158	7
65	67	4
81	81	8
167	167	18
133	145	2
66	91	1
137	137	7
51	56	1
97	100	1
46	46	10
62	63	2
171	171	7
165	171	2
93	93	3
121	146	2
88	116	1
160	161	7
100	116	1
87	89	2
154	155	3
6	35	3
85	111	4
16	16	14
180	180	1
7	18	2
110	164	3
23	39	4
41	43	1
107	114	4
31	32	12
26	29	1
144	162	1
124	135	3
55	56	5
85	85	5
173	174	2
158	159	6
149	149	5
116	134	2
104	104	6
7	7	15
16	30	3
75	91	1
25	26	13
178	178	2
160	162	4
21	22	5
93	94	2
18	24	1
59	93	1
62	115	1
14	16	1
11	45	4
122	122	7
58	59	4
67	68	2
151	153	5
169	175	4
52	54	1
53	53	7
151	152	5
36	37	7
55	61	1
156	157	4
114	128	4
104	171	3
4	15	3
129	130	6
9	127	3
77	77	12
4	4	6
8	10	4
25	30	4
21	23	5
153	153	6
54	54	7
145	150	1
168	168	8
50	168	2
16	24	2
123	146	2
173	173	10
106	107	2
122	127	1
79	80	3
139	139	3
44	45	2
106	117	1
101	101	7
124	124	3
40	44	2
28	58	1
25	29	3
141	141	7
35	36	1
10	150	3
30	39	3
14	18	2
150	154	2
130	130	6
160	172	1
108	122	3
88	106	1
26	26	10
150	150	4
3	9	9
5	7	1
139	143	5
10	10	5
30	37	4
99	100	2
34	97	4
101	105	1
31	31	9
90	90	6
9	15	1
72	72	8
175	176	3
21	21	3
11	13	7
9	11	6
151	151	9
130	153	5
7	13	3
13	14	1
2	20	2
3	34	3
152	153	2
65	139	2
24	25	11
23	38	1
86	107	2
72	87	2
91	92	1
56	56	7
56	90	1
163	176	2
97	163	1
10	11	2
118	119	1
96	104	2
140	158	3
50	52	3
4	9	4
35	60	2
99	154	2
18	19	5
12	15	4
121	130	2
10	16	2
97	97	2
145	146	1
5	23	1
98	116	2
0	4	1
11	15	5
140	141	2
36	36	9
117	136	1
14	27	1
158	158	6
108	109	1
136	146	2
121	129	2
27	28	5
6	6	6
86	116	3
8	12	1
134	180	1
151	180	5
130	132	2
57	74	1
115	157	2
121	121	2
94	163	5
115	115	8
18	18	9
25	37	3
68	68	4
67	67	5
166	167	3
78	92	1
102	112	1
82	82	3
75	85	2
73	116	2
127	128	1
138	149	3
12	121	1
33	37	1
85	123	1
78	78	3
80	81	2
95	96	3
174	174	6
97	98	2
123	127	2
118	130	2
91	95	1
84	167	1
170	170	2
99	99	11
107	109	5
147	148	5
82	83	2
4	8	2
19	22	1
120	120	3
93	108	1
45	56	1
76	76	3
32	33	3
9	13	1
49	63	2
167	168	2
5	19	3
115	174	3
3	50	5
163	178	2
93	114	1
24	39	1
20	121	2
86	87	3
113	117	4
61	61	4
162	162	1
140	146	1
26	28	5
175	175	2
71	74	1
134	147	2
125	126	1
142	142	4
111	111	2
71	72	8
106	170	2
74	77	2
155	155	3
34	58	1
111	112	7
5	21	4
96	97	1
137	138	1
133	133	9
18	21	2
58	58	5
5	22	2
129	146	1
81	95	2
12	17	3
141	143	4
129	131	1
6	7	1
29	30	3
124	170	1
123	144	2
40	40	14
132	133	5
154	156	1
80	92	6
59	123	1
63	131	2
62	66	3
107	107	3
111	165	2
26	37	1
68	116	1
132	167	1
98	110	2
2	4	4
1	41	1
13	41	2
85	86	2
24	30	2
84	165	1
81	82	2
83	84	6
73	155	1
94	114	1
27	39	2
102	105	1
5	17	1
24	31	1
142	153	5
168	169	3
163	164	4
51	55	1
26	27	2
123	129	2
84	87	2
18	133	2
125	127	3
11	17	1
115	156	1
60	120	2
125	129	2
17	18	2
61	63	1
62	62	1
22	24	5
88	117	1
16	40	1
100	117	2
97	165	1
128	129	1
120	121	2
29	31	1
35	58	2
83	124	1
147	176	2
170	173	5
40	41	1
37	37	3
61	66	1
81	87	1
1	28	3
35	57	3
124	139	4
8	15	1
27	35	2
21	29	1
119	121	2
1	53	1
98	99	2
80	168	2
1	54	2
21	24	1
88	105	2
167	169	3
130	156	1
105	152	1
141	153	2
165	169	2
109	111	3
43	61	3
134	149	2
80	84	1
153	159	1
106	111	1
10	119	1
147	174	2
52	52	3
16	25	1
141	145	4
62	86	2
43	44	2
169	170	1
58	63	1
1	139	1
118	131	1
92	93	1
96	101	1
37	38	3
146	164	1
26	161	1
64	94	1
172	173	2
121	122	2
16	42	1
62	118	1
151	157	1
49	155	1
36	97	1
139	140	4
49	118	1
51	119	1
164	167	3
122	171	1
30	79	2
71	94	1
51	128	1
78	79	1
103	107	1
42	61	2
143	143	3
116	119	2
135	156	2
74	76	3
126	128	2
94	108	1
108	113	1
43	60	3
52	132	1
18	119	1
15	17	1
162	165	1
104	114	1
84	166	1
98	117	2
75	84	1
101	109	4
94	96	1
94	95	1
7	21	2
0	0	2
95	133	2
28	160	1
9	17	1
72	92	1
106	109	2
159	160	2
19	120	1
166	178	1
165	165	2
22	63	1
99	102	1
136	150	1
14	32	1
138	144	1
45	67	1
116	146	1
54	57	1
85	103	1
35	59	1
100	115	1
118	146	1
133	138	1
5	118	1
27	36	1
57	64	2
122	129	1
103	105	1
123	170	1
29	58	1
134	151	2
77	78	1
7	10	1
25	35	1
84	174	1
131	132	1
166	170	2
140	173	1
117	118	1
128	140	1
99	164	1
96	100	1
121	162	1
70	133	1
14	28	1
17	26	1
86	111	1
170	171	1
62	73	1
1	3	1
35	40	1
16	33	1
28	29	1
141	144	1
132	138	1
60	60	1
73	74	1
26	133	1
114	115	1
