26	26	24
184	184	19
45	45	22
10	10	29
37	37	25
143	143	17
150	150	23
175	175	21
121	121	6
20	20	28
24	24	35
51	185	2
55	55	24
29	29	16
31	32	15
132	132	3
49	49	20
131	196	1
131	132	4
16	17	7
227	227	29
30	30	19
62	63	17
22	22	33
56	56	12
137	138	16
85	85	23
16	16	23
138	139	9
162	188	4
170	170	17
74	74	10
37	137	2
40	40	26
59	59	32
142	143	3
165	166	5
80	81	3
15	15	32
34	35	4
119	119	3
87	102	2
136	138	1
144	144	7
72	72	9
58	58	11
124	125	6
214	214	11
167	169	2
70	71	9
209	209	15
110	110	5
53	53	30
44	44	22
82	84	7
228	231	5
128	129	3
184	185	10
162	169	1
84	84	11
205	205	11
136	136	15
76	76	17
43	43	45
36	37	4
19	19	14
46	46	17
177	178	6
48	192	5
162	162	12
206	208	2
147	156	5
47	47	15
35	35	14
6	7	8
195	195	13
23	31	4
114	116	6
27	27	28
155	156	12
98	98	13
69	69	23
39	40	4
215	215	12
86	86	20
7	7	21
80	83	4
8	8	20
80	150	2
228	229	4
97	98	7
79	79	19
113	115	2
147	148	4
200	200	14
6	6	14
51	53	6
25	26	5
8	9	9
65	66	5
13	13	17
235	235	11
230	230	19
31	31	32
75	77	9
168	169	3
30	31	6
117	118	3
39	39	21
215	216	5
133	134	7
33	35	6
208	208	15
28	28	37
98	99	15
149	151	7
181	182	3
163	167	8
75	75	14
14	14	10
207	207	9
81	81	7
169	171	5
146	147	5
171	171	9
71	71	23
193	193	6
189	190	15
47	48	6
104	104	10
97	224	1
64	70	3
223	224	14
148	148	12
145	145	19
157	158	12
68	68	20
18	18	22
238	239	10
116	119	1
178	179	5
41	41	23
159	159	30
61	61	32
51	52	14
172	172	19
239	239	16
46	47	1
205	206	10
156	157	2
198	199	7
187	189	4
38	38	13
156	167	1
232	232	18
177	177	16
204	205	5
200	201	10
168	175	6
135	136	11
174	174	13
105	106	7
234	234	19
141	141	7
19	60	5
212	212	7
9	9	18
220	232	1
48	77	3
217	217	30
168	188	3
137	137	8
128	128	26
103	104	14
162	172	1
193	194	8
155	195	1
11	12	6
103	139	1
238	238	17
120	120	14
67	68	7
219	219	14
24	25	3
194	196	5
78	78	12
125	125	15
164	164	14
130	130	10
65	78	4
174	175	3
220	221	2
229	230	2
96	96	5
173	173	16
135	152	1
163	163	17
148	196	1
229	229	10
21	21	13
29	42	1
6	8	1
226	227	8
136	137	11
25	70	3
0	2	5
25	25	28
12	160	1
42	43	4
240	241	2
2	66	3
199	199	19
36	36	28
211	212	12
66	67	10
133	133	15
121	122	4
54	56	4
234	236	7
154	202	1
62	62	26
51	51	14
196	196	10
69	70	12
76	80	2
48	230	5
186	186	13
135	135	3
116	117	6
179	179	14
13	14	1
108	108	14
57	58	4
65	65	12
180	180	40
236	236	9
34	34	13
154	155	7
202	203	4
203	204	6
143	144	4
102	102	33
125	126	5
58	174	1
158	160	1
171	224	3
106	108	3
60	60	25
12	30	6
160	160	22
20	21	16
24	232	1
99	100	6
219	220	6
23	56	1
116	116	4
175	189	5
139	140	9
80	80	14
63	68	3
16	171	3
165	178	5
103	103	11
82	82	11
198	198	25
19	23	2
168	168	12
58	96	1
224	224	13
158	159	11
57	57	27
34	205	1
51	72	1
15	16	6
160	197	2
33	34	6
153	153	8
149	150	8
3	50	8
151	151	21
1	4	4
117	117	7
52	53	10
237	237	20
28	45	2
173	174	8
46	230	5
17	17	8
242	242	16
169	169	19
228	228	13
49	50	7
12	13	7
29	30	11
46	86	1
47	77	2
98	127	4
1	2	14
199	200	14
201	218	4
8	11	3
207	219	1
149	149	6
11	13	2
163	165	3
52	238	7
83	85	2
79	151	4
56	57	1
83	84	10
73	73	15
181	183	5
62	221	5
165	165	10
20	195	3
172	178	2
182	182	18
144	145	12
101	106	3
189	189	9
190	219	1
101	101	23
139	139	12
218	218	14
123	230	4
28	55	4
109	112	1
106	107	1
41	198	1
20	24	5
212	224	3
177	181	1
223	228	4
43	44	8
70	70	24
3	5	3
178	180	4
117	126	2
19	156	2
41	42	9
217	218	10
24	55	3
188	188	15
158	158	12
3	3	24
118	169	4
23	24	2
54	54	21
181	181	15
141	142	10
172	175	5
53	55	1
216	216	12
2	2	23
15	22	4
8	85	4
123	127	11
117	124	6
213	213	16
186	187	2
233	239	2
129	130	12
13	15	1
119	167	2
64	64	21
5	7	2
20	48	1
145	147	1
0	0	27
143	148	1
241	241	24
52	183	6
175	176	7
37	38	8
82	124	5
83	83	3
4	4	14
32	32	29
10	11	5
31	33	4
4	5	14
195	196	7
107	108	5
109	109	10
230	231	6
124	124	8
225	225	7
7	8	22
72	73	6
20	23	3
211	211	16
131	131	7
178	178	6
107	107	5
171	192	2
209	210	3
109	127	4
42	42	10
231	241	4
5	6	6
175	216	1
207	208	2
67	67	21
42	46	1
192	192	6
185	185	6
23	23	25
89	89	7
85	86	2
185	187	2
52	52	17
228	230	1
31	49	2
8	12	5
239	240	5
40	41	9
152	174	2
44	45	10
221	224	9
12	15	3
100	101	4
20	194	2
152	152	12
1	3	5
27	28	6
0	1	7
140	140	12
45	52	3
222	222	16
88	88	17
201	201	15
153	154	3
204	206	11
77	79	6
1	19	1
161	162	1
2	3	5
73	233	6
143	147	5
220	222	3
190	190	7
68	200	4
104	105	3
77	77	9
152	153	8
111	111	7
82	83	6
123	124	2
226	226	4
35	49	1
106	106	8
159	161	6
233	233	12
40	49	2
69	76	1
194	194	11
191	192	3
196	197	1
175	192	2
33	33	29
66	66	15
68	76	12
105	129	4
140	142	8
101	102	9
120	131	4
73	79	3
210	210	23
170	172	4
166	166	16
14	193	2
169	172	3
118	118	8
72	84	5
204	204	15
122	223	2
213	216	4
164	167	2
166	167	5
167	197	4
58	108	2
2	23	3
165	219	5
106	129	4
122	122	11
187	187	12
109	123	3
79	104	1
118	124	1
129	135	1
113	113	10
129	129	11
73	74	3
1	66	2
38	39	3
216	226	2
142	142	16
97	97	9
150	157	2
197	199	1
10	48	3
1	1	10
74	79	4
193	195	5
50	50	10
114	121	2
10	21	6
154	159	1
164	165	6
223	223	12
14	15	10
97	100	2
88	89	2
122	124	3
65	67	4
17	18	13
13	18	1
3	6	1
71	73	5
139	141	3
65	74	2
123	123	3
186	202	3
58	59	4
38	52	1
150	151	7
103	105	4
156	156	2
39	43	4
43	45	3
3	4	5
112	113	1
128	139	2
216	217	6
171	172	6
134	134	5
180	183	4
29	104	2
134	135	3
140	141	3
61	63	4
114	127	2
9	40	3
41	48	3
2	16	2
138	138	10
23	29	2
60	61	4
63	122	4
100	100	16
215	221	3
42	226	1
0	16	1
45	46	4
2	15	2
144	146	2
150	152	2
157	157	10
71	72	5
50	53	4
233	234	6
7	9	5
161	171	2
129	232	2
197	197	10
16	169	2
50	51	3
58	60	4
13	49	4
103	138	1
216	219	3
48	48	15
44	46	3
46	64	4
22	23	6
36	44	2
158	161	2
75	82	1
179	189	3
115	115	7
77	80	3
221	221	8
97	232	1
17	19	3
231	231	12
20	35	1
202	206	4
65	72	4
201	206	5
50	68	4
203	203	12
179	181	3
67	76	2
164	180	1
18	19	3
52	56	2
200	213	3
187	188	4
36	66	3
98	100	3
198	218	3
52	182	6
11	11	16
74	75	4
118	120	5
76	153	5
115	117	2
53	201	2
145	150	3
5	33	5
153	155	2
99	99	7
225	226	3
12	12	8
241	242	9
99	198	3
210	211	6
30	32	3
161	202	1
54	65	1
202	202	11
145	148	1
36	42	2
73	115	2
153	157	2
45	48	1
21	22	9
105	105	16
154	154	10
55	56	5
121	127	2
64	65	6
82	86	2
26	152	2
57	88	1
14	16	3
180	181	1
10	13	1
36	231	3
49	89	1
185	186	5
11	49	3
8	20	1
95	96	10
126	227	4
48	49	3
23	234	4
119	233	2
22	56	3
176	176	13
175	191	1
179	180	8
112	128	3
143	146	1
50	52	2
83	119	1
155	157	2
14	17	1
148	149	6
72	237	5
61	62	12
4	12	3
4	6	3
176	178	6
6	49	1
227	242	3
119	120	3
146	146	3
35	36	8
172	204	2
33	137	1
66	76	2
63	64	4
65	68	7
134	139	1
80	84	1
201	202	4
143	145	2
35	38	1
216	230	3
59	60	6
104	108	1
14	20	1
22	225	1
28	47	1
227	228	3
113	114	4
147	149	2
63	63	8
42	223	1
159	237	4
161	179	2
89	96	1
236	237	6
220	220	12
12	14	1
161	161	7
3	9	2
10	145	3
124	126	1
32	220	2
9	10	7
188	189	5
183	183	5
23	192	1
66	82	3
44	226	1
4	18	2
19	48	3
235	242	2
144	149	2
136	146	4
13	17	1
5	5	6
39	64	3
151	152	2
195	198	2
84	85	7
112	112	3
191	193	1
198	207	1
233	236	1
240	240	8
162	163	5
213	219	1
226	228	7
25	38	2
60	63	1
115	116	2
25	43	3
139	147	3
224	225	5
19	20	3
81	86	4
123	125	4
57	59	2
81	82	9
160	161	3
173	175	3
206	206	11
170	171	3
42	56	4
63	221	3
222	223	2
100	153	2
54	192	2
78	89	2
161	168	1
62	64	2
202	233	1
18	29	2
75	153	1
170	175	3
27	79	1
79	105	2
155	155	6
9	11	1
85	106	2
119	122	1
43	186	1
116	123	1
178	211	5
141	143	3
27	29	2
174	178	3
56	108	4
172	173	5
34	48	1
144	154	4
7	10	1
58	100	4
2	18	1
159	160	8
167	168	3
32	35	1
214	215	1
225	235	4
75	76	6
95	95	6
130	131	1
175	195	2
30	214	1
29	31	4
152	154	1
234	235	4
224	226	3
17	153	3
198	200	2
8	142	5
169	170	4
6	146	2
21	23	3
69	152	1
192	193	1
74	236	2
162	164	2
15	17	4
64	68	2
83	120	2
29	38	1
78	79	4
14	31	1
109	111	3
115	125	2
114	115	1
191	191	3
220	223	2
18	20	1
213	214	2
109	110	5
220	226	1
95	98	1
128	199	3
37	203	3
46	48	1
65	174	1
55	67	2
75	84	1
147	150	3
20	154	1
48	53	3
30	38	1
101	111	1
5	8	1
163	164	1
102	105	3
90	147	2
178	181	1
1	18	1
69	71	1
197	225	2
68	226	1
10	30	2
28	176	2
159	232	1
2	17	2
100	105	2
7	222	1
117	170	2
59	62	1
137	162	2
127	127	2
122	123	1
225	228	2
190	191	1
111	130	1
193	196	1
33	36	2
237	238	1
185	188	1
36	38	1
221	222	4
115	118	3
62	152	1
70	72	1
104	106	1
116	126	1
221	225	3
175	179	1
159	165	1
168	217	1
167	167	5
167	170	1
64	184	2
26	46	1
21	55	2
46	53	1
108	109	1
68	69	5
13	22	1
47	61	2
116	221	3
153	198	1
136	139	1
5	23	1
200	228	1
147	147	2
168	171	2
4	7	1
134	198	3
140	222	1
48	50	1
2	4	1
90	90	3
52	76	2
59	164	2
15	237	1
57	60	3
118	119	3
71	76	2
4	140	2
65	79	2
139	191	3
69	202	1
203	233	4
165	169	1
156	158	2
80	108	1
15	195	1
30	50	2
76	77	3
238	242	1
216	238	1
7	11	2
34	36	1
59	78	1
38	144	1
47	54	1
39	53	2
169	174	2
232	233	2
84	89	2
186	189	2
111	129	1
68	118	3
76	124	1
164	179	1
49	54	2
115	126	1
133	140	2
0	3	2
26	27	2
126	126	2
39	55	1
34	140	1
137	161	2
234	237	1
11	162	1
179	192	2
24	174	1
29	33	1
47	236	2
32	33	2
197	198	1
79	81	2
64	67	2
65	151	1
192	195	1
226	237	1
49	230	2
225	227	1
4	34	1
14	33	2
58	61	1
60	96	1
68	223	1
89	103	1
77	78	2
168	218	1
54	57	4
30	57	4
113	120	1
6	10	2
3	15	1
146	148	2
34	148	1
110	233	1
59	61	2
49	231	1
143	170	1
64	75	1
70	73	1
183	184	1
220	224	1
211	223	1
7	36	1
25	46	1
23	30	1
17	20	1
77	81	1
177	189	1
26	45	1
231	232	1
8	220	1
166	223	1
198	224	2
3	222	1
56	191	1
36	203	2
114	232	1
232	234	1
26	174	1
54	209	1
194	195	2
74	76	1
120	127	1
175	178	1
28	32	2
203	206	1
159	170	1
69	75	1
182	183	1
146	195	2
115	222	1
125	127	2
137	163	1
81	124	1
102	103	1
10	161	1
14	59	1
25	178	1
73	85	1
7	13	1
221	230	1
212	213	1
38	53	1
25	27	1
58	167	1
7	140	1
181	188	1
96	100	2
119	169	1
69	82	2
16	217	2
173	186	1
135	137	1
165	230	1
145	146	1
137	140	1
37	48	2
189	232	1
145	192	2
4	8	1
3	223	1
100	102	1
227	231	1
95	100	1
48	61	2
69	72	1
24	36	1
183	190	2
114	120	1
114	114	2
14	40	1
35	37	1
235	236	1
13	194	1
159	235	1
33	37	1
130	134	1
229	231	1
202	204	2
54	202	1
39	41	1
15	59	1
164	186	1
184	230	1
185	189	1
47	60	1
85	120	1
120	126	1
180	182	1
113	141	1
201	220	1
65	85	2
67	69	1
199	205	1
149	156	1
222	225	1
47	49	1
51	54	2
136	148	1
215	217	1
67	73	1
107	122	1
131	237	1
218	219	1
17	170	1
205	224	1
