75	76	8
73	73	18
71	71	12
66	66	13
26	26	28
27	27	24
10	11	6
16	27	1
61	61	9
28	29	2
50	50	11
1	1	20
4	4	17
57	58	1
72	72	7
78	78	13
46	47	4
58	58	17
26	49	2
13	14	7
15	15	9
61	62	3
8	25	3
11	11	11
58	61	4
8	8	20
19	20	5
8	10	2
53	53	7
25	25	12
1	19	1
33	34	10
56	56	9
54	55	8
80	80	9
30	30	7
41	41	20
53	54	14
31	32	3
7	7	25
10	10	5
34	34	9
21	21	20
2	2	19
59	59	10
40	41	9
48	51	2
12	12	8
45	45	23
40	40	4
74	74	26
37	38	4
28	28	13
51	51	11
17	17	5
5	26	1
9	9	9
50	51	8
51	52	1
70	70	8
39	39	8
64	65	2
2	3	5
6	59	4
34	36	3
54	54	20
31	36	2
15	16	7
5	5	16
20	26	2
11	14	5
75	75	15
2	7	4
52	52	5
32	35	1
32	32	16
37	37	12
31	34	2
55	56	4
35	35	13
1	2	7
68	70	2
16	16	8
46	46	22
8	9	3
19	19	15
55	55	6
36	36	7
63	63	19
13	13	7
67	67	15
79	79	6
72	73	3
71	72	1
25	26	4
5	6	6
74	75	2
49	50	7
29	29	14
14	14	14
47	47	23
13	25	1
56	61	6
10	63	4
49	49	6
65	66	5
67	68	4
41	42	6
10	64	3
60	61	3
18	20	2
58	63	2
31	39	3
7	18	3
27	28	5
6	6	10
34	35	2
4	61	3
56	58	5
68	68	10
65	65	9
38	38	10
36	37	3
0	1	3
78	79	3
42	43	2
77	77	3
50	64	3
12	14	2
69	69	14
42	42	12
48	48	7
7	21	1
25	50	7
30	39	5
56	57	4
22	22	2
20	20	13
65	70	3
48	49	3
69	70	3
81	81	2
31	31	11
26	48	2
58	59	1
17	80	2
29	30	3
60	60	4
68	69	7
2	27	4
37	41	1
76	76	10
8	17	2
34	38	4
45	46	1
30	31	5
33	33	14
52	53	5
7	8	1
59	60	4
11	16	3
66	67	3
2	75	1
4	5	4
20	21	2
63	64	2
11	49	1
3	3	5
77	78	1
63	70	3
57	57	5
73	74	2
18	18	3
62	62	4
35	36	2
64	64	8
57	71	2
70	72	3
18	19	2
43	43	3
70	71	4
35	39	2
67	69	1
58	60	1
9	10	2
0	0	4
0	18	2
57	73	2
48	63	1
0	78	1
69	71	1
57	61	1
25	49	1
67	71	2
59	64	1
38	39	2
66	68	3
60	65	1
7	27	1
63	65	1
75	77	2
29	35	1
39	40	1
40	42	1
59	67	1
60	63	2
53	55	1
13	49	1
5	66	1
19	28	1
9	25	1
26	27	1
