26	26	13
78	79	6
25	25	9
56	100	6
162	162	5
135	136	4
111	111	12
173	173	6
138	138	3
84	84	8
31	32	6
169	169	10
158	187	2
124	124	11
19	19	6
60	60	7
96	96	5
92	92	5
166	166	8
46	46	11
78	140	2
167	168	9
42	42	10
161	161	4
144	144	7
86	104	2
97	125	1
150	150	4
38	39	2
18	64	7
111	112	7
4	4	6
40	41	3
102	103	5
1	2	3
127	127	15
148	148	10
146	157	5
28	28	23
86	86	9
10	10	12
180	181	3
142	143	4
124	125	2
113	116	2
142	142	10
34	34	9
17	17	6
31	34	3
118	145	1
45	45	11
77	77	7
168	169	7
157	176	4
74	74	7
23	23	15
5	5	5
7	7	14
97	98	6
102	141	5
186	186	25
6	30	1
75	75	12
56	56	3
0	0	6
39	54	3
143	146	1
153	153	4
57	57	9
134	134	13
124	153	2
110	132	2
107	130	1
37	37	23
2	2	5
115	115	12
157	157	16
151	163	3
80	80	4
93	94	11
21	21	6
130	130	8
114	114	8
58	64	1
166	169	1
189	190	5
154	179	3
16	64	6
136	136	13
98	98	8
76	76	8
172	190	8
188	188	9
40	40	8
24	24	9
110	110	6
145	146	2
62	62	3
16	17	6
109	113	3
109	110	4
169	170	8
33	34	6
57	152	1
67	67	4
107	108	2
35	36	1
142	154	2
97	97	6
91	113	4
54	54	5
105	105	6
178	179	5
188	189	11
53	53	5
14	14	3
171	171	14
31	31	5
63	68	2
58	60	4
155	157	4
6	34	2
41	42	3
133	134	2
157	158	7
9	18	4
177	177	8
52	52	4
148	183	2
99	99	14
124	126	1
128	128	2
163	175	2
19	20	9
133	135	5
113	113	17
92	93	15
119	120	4
112	112	6
149	183	2
66	66	4
17	18	4
182	182	9
138	184	3
105	117	1
185	186	5
59	59	9
189	189	5
4	5	8
183	183	14
130	166	4
100	100	7
122	122	11
123	126	1
65	66	2
5	9	2
10	20	1
71	123	1
108	108	7
55	55	9
151	151	7
114	143	4
69	70	4
13	37	3
163	163	4
59	60	3
82	82	18
99	101	2
10	12	5
87	141	2
7	8	9
13	15	5
101	101	6
83	83	4
161	178	3
184	185	5
183	184	7
106	106	7
145	145	9
164	164	4
167	167	18
77	88	1
166	167	5
76	84	1
147	147	9
68	68	9
93	107	4
178	180	3
86	87	3
148	152	1
187	188	5
130	131	5
158	159	5
132	132	7
125	125	12
47	47	8
118	125	1
73	73	9
29	29	10
150	173	4
101	133	3
109	160	3
179	180	12
135	137	2
181	182	4
82	83	4
176	176	12
73	106	2
121	121	7
12	12	9
62	70	5
158	162	2
90	90	8
21	22	6
81	98	2
149	149	3
27	42	1
60	79	2
32	32	3
100	102	1
39	39	15
79	79	5
64	81	1
33	33	5
95	97	1
170	170	4
44	44	6
152	152	14
108	163	2
172	172	2
181	181	9
167	169	1
20	21	3
163	164	2
81	132	2
179	179	6
76	77	2
117	118	6
116	120	1
18	18	6
132	133	2
129	129	6
188	190	2
44	47	1
71	71	5
41	41	7
187	187	5
20	63	1
29	30	10
157	165	2
71	74	2
164	165	2
134	135	3
13	185	1
112	114	2
175	175	7
91	97	1
172	187	2
35	35	14
90	99	2
146	146	10
157	178	2
96	120	3
128	129	4
78	78	7
180	180	3
182	183	2
145	147	3
91	92	5
156	187	5
68	95	5
156	176	2
59	69	2
117	117	3
103	128	2
96	97	8
56	57	1
80	82	1
15	15	6
60	64	1
5	6	1
32	35	1
165	166	3
91	91	3
52	53	3
45	48	8
36	37	3
61	62	3
158	175	2
138	139	2
168	168	8
155	174	3
22	25	1
36	38	2
76	83	4
119	125	2
80	83	1
72	72	5
135	135	8
138	143	3
27	28	4
108	114	2
36	36	10
61	65	3
42	48	2
15	86	1
101	132	2
53	62	2
131	131	4
143	143	12
140	140	7
146	147	4
119	163	5
88	88	3
137	137	2
81	81	2
7	12	2
136	164	2
78	141	1
99	103	3
65	91	6
156	156	5
101	109	2
10	11	7
88	89	3
174	175	1
90	110	4
90	91	5
101	102	4
113	114	1
119	164	3
121	122	1
85	85	3
104	104	7
146	154	5
154	156	2
54	55	1
8	8	10
36	39	3
164	166	2
33	36	2
154	154	6
93	112	3
17	19	3
19	21	1
20	24	5
126	126	7
177	178	2
85	87	1
13	14	6
65	65	4
174	174	9
95	106	3
83	94	1
48	48	4
121	172	1
128	154	1
87	153	1
29	32	6
118	118	6
58	62	1
143	144	6
44	45	1
174	187	1
2	34	3
20	20	5
39	40	5
67	97	2
171	172	6
68	72	1
119	119	3
43	43	9
175	183	2
61	61	10
190	190	3
184	184	3
30	30	1
165	165	3
99	102	1
158	158	4
38	38	4
170	183	5
115	118	3
105	125	2
103	103	8
70	72	2
131	133	2
3	4	3
104	124	1
84	85	5
63	64	4
87	87	5
147	188	1
110	113	1
42	47	1
9	13	4
21	23	6
59	61	1
95	95	3
128	141	2
4	38	2
173	190	1
70	106	1
70	70	5
144	177	1
9	12	1
11	17	2
150	152	2
23	24	1
144	146	4
145	156	1
0	1	2
25	53	3
180	182	2
93	96	2
82	185	2
115	148	1
3	3	5
140	169	1
150	174	2
165	168	2
117	144	2
97	99	1
103	140	2
147	182	1
173	174	4
94	146	2
145	163	1
93	93	11
15	17	3
7	36	3
32	33	4
56	152	5
63	63	6
153	154	4
89	89	3
175	177	1
55	149	1
5	13	2
24	30	1
134	139	4
70	71	2
118	176	2
170	176	1
37	38	3
57	58	3
1	3	5
142	160	1
56	63	2
143	179	2
53	56	1
7	35	2
148	149	6
84	153	3
1	1	11
78	81	2
102	102	8
99	130	1
108	142	1
146	177	3
13	13	5
22	23	1
140	153	1
176	178	5
148	154	1
155	155	5
108	136	1
22	22	5
175	185	1
70	73	4
76	129	2
170	175	1
8	10	1
38	41	1
82	97	1
72	74	2
3	6	1
146	155	3
172	173	2
101	103	2
125	153	1
152	153	2
129	130	1
91	101	1
34	35	3
64	64	3
160	161	3
107	107	3
122	154	1
77	78	3
154	155	1
61	63	2
6	6	2
16	16	1
32	37	1
99	100	1
38	40	3
141	141	4
66	67	1
94	94	1
86	88	3
27	38	1
45	47	2
31	36	1
134	137	1
61	71	1
109	131	1
168	175	2
43	45	6
106	108	1
14	15	1
53	156	1
109	109	2
13	73	1
79	83	1
139	140	1
4	46	1
52	61	1
123	123	5
25	26	2
134	141	1
82	87	1
83	151	1
119	121	1
18	20	1
124	127	1
174	177	1
98	99	3
116	148	1
58	58	3
60	61	1
170	174	2
2	13	1
75	76	1
160	163	1
148	153	1
30	31	1
30	32	2
185	185	4
136	137	2
27	27	5
43	44	1
178	178	4
130	138	1
96	126	1
22	24	1
140	141	1
127	141	2
120	122	1
159	159	1
11	11	2
128	130	1
126	127	1
64	65	1
170	173	1
183	186	2
17	21	1
18	59	1
129	131	1
125	126	3
10	19	1
94	123	1
16	86	2
72	75	1
159	161	3
172	188	2
11	12	1
127	128	1
12	19	1
74	75	1
145	148	1
172	174	1
174	176	2
31	33	2
94	101	1
28	29	1
87	125	2
155	188	1
187	189	1
131	137	1
115	119	2
106	107	3
83	185	1
100	110	2
52	127	1
84	106	1
58	61	1
123	125	1
27	29	1
101	105	1
176	179	1
31	41	1
12	17	1
133	138	1
90	104	1
18	25	1
174	178	1
90	146	1
145	154	1
147	164	1
118	120	1
61	68	1
72	189	1
151	161	1
166	182	1
100	143	2
108	161	1
160	162	1
171	174	1
25	44	1
160	160	1
115	116	1
120	120	1
118	142	1
125	143	1
24	25	1
177	180	1
71	76	1
121	123	1
171	173	1
