5	5	10
61	61	13
77	112	2
145	147	1
221	221	15
155	227	3
114	116	9
57	57	23
64	65	9
208	215	8
108	108	3
4	5	4
61	70	2
165	166	4
93	93	16
60	60	7
33	35	4
156	156	21
216	245	7
208	208	20
154	154	17
85	86	3
1	16	2
241	242	2
113	113	9
152	183	5
183	183	15
58	58	10
64	155	2
92	92	19
65	65	7
224	225	7
244	244	19
9	9	9
163	164	5
102	103	3
46	219	2
15	16	4
172	172	10
34	91	4
192	192	8
202	202	12
103	103	7
209	214	1
54	54	17
111	114	1
19	39	2
145	145	8
226	229	1
104	106	5
92	217	4
165	190	4
69	69	14
245	245	15
96	97	1
174	174	9
10	11	6
106	181	1
38	38	20
111	111	19
55	56	3
168	168	7
86	94	2
173	173	13
51	51	10
215	238	3
18	18	21
180	180	12
193	194	5
7	7	8
176	176	11
164	167	2
82	109	3
158	158	15
64	64	15
32	119	3
152	194	1
210	211	8
205	205	11
33	33	16
60	86	1
72	72	12
14	47	2
161	172	1
98	102	3
41	41	9
8	8	15
0	0	3
110	110	40
81	81	11
47	47	17
164	166	7
206	233	3
31	41	4
114	114	12
216	218	5
109	109	26
49	50	4
59	60	3
71	74	7
188	188	12
49	76	1
217	217	18
227	229	2
4	4	13
222	222	9
99	99	15
158	196	1
89	90	2
195	196	3
208	209	9
167	170	1
114	219	4
158	180	2
177	177	13
178	178	5
46	46	12
26	27	2
231	231	5
4	79	2
26	26	12
72	73	1
186	221	2
15	36	1
31	31	11
234	234	10
75	75	16
152	153	1
241	241	7
191	191	15
94	113	6
115	115	18
34	34	13
116	116	24
187	188	11
198	199	11
247	248	6
181	181	12
226	226	11
61	82	1
112	112	15
153	153	19
53	53	11
42	42	14
162	164	5
240	240	20
15	15	13
215	215	9
71	72	6
2	3	2
80	81	2
230	231	3
49	49	15
52	52	13
185	186	2
3	3	2
161	161	10
29	67	10
165	165	9
224	224	7
152	152	15
91	91	7
166	240	1
195	195	10
211	211	2
199	199	16
158	160	4
40	40	9
119	119	11
72	84	1
165	178	3
40	41	2
202	217	2
7	11	3
215	219	2
56	114	2
6	6	11
96	96	15
146	146	3
75	76	2
159	159	12
175	183	4
163	170	1
171	171	18
235	241	2
15	74	2
36	53	6
79	117	3
180	181	3
164	164	11
25	26	9
114	115	6
203	203	17
20	20	11
181	188	2
215	216	4
72	100	2
169	169	17
89	89	6
37	119	1
3	76	2
162	208	3
77	78	10
246	246	16
228	228	17
118	245	1
43	43	11
117	117	15
85	222	1
22	23	4
237	247	2
195	211	9
228	229	8
220	221	6
187	187	16
150	150	10
71	73	3
63	63	6
247	247	11
151	151	15
50	50	4
57	59	2
85	85	7
46	70	1
61	115	1
16	42	1
96	101	2
35	35	15
98	98	5
164	208	3
106	107	4
157	157	10
87	87	4
1	1	14
239	240	4
100	100	9
229	230	1
108	244	2
38	117	2
101	101	11
77	77	17
167	167	7
81	82	8
198	198	8
65	80	2
10	10	26
76	77	5
187	189	2
90	230	2
213	213	14
37	37	15
48	58	3
238	238	11
242	242	8
14	81	1
189	189	16
93	96	1
36	44	2
20	94	2
213	245	2
83	108	4
79	80	2
39	39	3
171	216	7
155	155	13
75	121	1
186	211	2
233	233	5
118	118	12
246	247	6
61	117	3
236	237	4
200	201	4
83	99	3
232	232	9
184	184	13
209	209	6
204	213	1
232	233	4
226	231	4
31	32	3
220	220	9
201	202	11
17	169	3
98	105	3
225	225	10
243	244	4
99	100	2
162	162	8
71	111	2
228	230	2
83	119	5
49	86	8
149	180	2
164	187	3
219	219	9
82	111	4
94	94	5
30	30	10
4	31	4
14	15	5
35	237	2
203	205	3
70	78	3
200	200	11
212	212	10
199	200	7
69	90	6
27	188	3
175	205	2
73	97	1
69	70	2
100	102	4
74	74	14
169	170	5
26	36	3
74	104	3
185	185	13
29	30	2
33	50	1
83	83	8
84	84	9
236	236	10
71	108	3
15	47	2
78	79	4
90	91	8
66	66	12
2	228	1
181	211	3
162	195	2
87	88	5
175	192	4
175	175	8
38	62	2
183	184	7
73	100	5
165	174	1
112	244	2
162	237	3
188	190	4
65	67	3
71	84	2
56	56	8
225	226	2
219	239	6
95	112	1
13	13	2
44	44	10
196	211	1
111	245	1
193	193	11
210	210	10
116	117	5
167	168	5
48	49	2
105	106	2
162	163	3
191	192	3
168	169	3
85	92	2
242	243	2
163	163	8
16	16	2
236	238	2
178	179	1
29	29	8
245	248	4
230	230	8
166	166	16
157	162	1
243	243	5
67	68	2
53	94	1
237	237	14
36	113	2
16	17	1
107	107	11
30	84	1
21	204	1
28	32	1
233	234	7
245	246	4
223	223	13
66	67	6
25	25	7
44	45	1
175	214	2
151	183	1
80	80	5
48	48	7
104	105	3
63	105	1
153	183	3
17	109	5
100	101	6
197	197	5
14	14	13
207	207	11
159	160	2
87	98	2
39	49	1
16	50	5
170	171	1
194	216	3
191	237	1
186	186	6
163	171	4
50	58	1
218	218	5
166	179	3
76	76	8
97	97	5
57	76	6
83	85	3
28	28	7
70	70	7
219	220	2
19	19	13
51	54	2
22	44	2
176	187	1
176	177	6
160	160	12
22	22	4
116	118	6
157	211	1
239	239	7
87	92	3
204	204	14
73	73	7
101	102	1
170	170	12
37	49	3
165	240	1
74	75	1
166	239	4
34	207	2
166	170	4
100	103	5
39	76	4
213	214	2
150	168	2
5	116	2
78	105	2
2	15	1
45	228	1
206	206	5
17	17	12
82	82	9
201	201	15
218	219	6
21	21	9
53	59	1
91	92	5
45	45	14
8	31	1
190	190	3
168	185	3
107	181	1
57	88	1
60	69	4
70	101	2
106	106	5
179	183	1
162	184	1
217	218	3
162	207	1
24	62	2
51	81	1
8	9	6
23	23	13
112	116	1
37	70	3
248	248	10
27	27	11
95	95	5
35	94	6
201	207	2
238	241	1
181	182	8
227	227	7
216	216	5
144	212	3
79	81	6
37	171	4
155	156	4
196	205	5
24	24	6
6	7	3
5	6	1
18	19	4
240	242	3
65	66	5
91	120	3
233	242	3
92	221	2
104	104	2
153	178	1
30	49	2
187	190	2
14	86	4
172	174	1
2	2	1
237	238	3
146	147	1
180	186	4
67	67	7
49	70	3
188	189	2
161	162	1
19	234	3
157	158	1
153	205	1
7	78	2
62	62	5
167	175	1
50	59	3
151	201	2
201	212	4
55	55	11
233	241	1
229	229	16
12	232	1
168	214	1
117	119	6
145	207	1
104	167	2
5	38	2
196	196	8
76	108	3
71	71	6
113	114	1
59	59	14
147	147	3
157	184	2
183	192	3
193	211	3
189	190	2
214	214	5
5	47	3
219	221	1
175	217	1
204	205	3
63	162	1
118	119	3
23	24	1
102	102	13
59	230	1
82	119	1
56	57	2
52	109	4
184	185	5
12	12	8
193	195	1
246	248	1
88	228	2
78	78	8
194	194	7
32	32	3
142	248	2
21	23	3
242	244	2
87	96	1
17	28	1
66	199	4
14	50	4
221	222	8
61	62	5
169	214	2
46	49	1
109	110	2
77	85	2
52	54	2
68	68	4
194	195	2
5	19	1
88	88	6
238	240	6
234	237	1
169	178	2
4	18	4
171	179	2
95	97	3
84	85	6
149	174	1
86	92	1
67	80	1
82	105	2
93	94	1
147	153	1
164	240	2
49	58	1
175	176	3
211	213	1
176	185	3
159	183	1
57	58	7
197	199	2
190	192	5
13	51	1
198	200	1
57	86	1
176	184	2
11	11	9
28	108	1
193	218	3
171	172	3
44	150	2
63	64	4
73	112	2
181	183	3
241	246	1
153	185	4
115	116	3
170	243	1
19	50	1
56	89	1
210	236	1
150	151	1
55	110	2
189	206	1
227	228	1
62	88	1
183	208	1
226	232	3
58	59	1
42	75	1
90	119	2
30	31	3
15	59	1
158	170	2
92	93	4
36	36	6
211	240	3
14	76	1
120	120	4
245	247	2
68	69	1
159	173	2
7	31	1
202	203	1
58	60	1
207	208	3
179	179	4
4	14	1
180	209	1
93	99	2
34	76	1
37	117	1
73	96	2
235	235	4
211	219	1
70	113	1
95	96	1
159	162	1
11	63	2
42	43	1
62	63	4
150	155	1
188	192	1
38	246	1
82	84	2
194	211	1
45	220	2
154	210	1
93	108	3
215	242	1
216	233	1
88	115	1
153	154	1
31	33	3
186	206	1
182	190	4
198	207	1
166	167	1
95	111	1
174	175	1
78	232	2
204	211	3
21	22	2
44	175	1
97	99	2
243	245	2
164	169	3
15	19	1
107	184	2
151	186	1
160	215	2
102	104	3
6	16	2
1	31	1
172	173	5
175	179	1
192	201	1
102	111	2
223	225	2
158	164	2
31	120	2
13	86	2
211	246	2
75	99	3
111	112	5
180	182	1
150	227	1
29	115	1
213	221	1
105	162	1
110	111	1
189	219	1
186	214	2
17	18	1
232	238	3
238	239	2
223	226	2
167	178	1
176	178	2
107	188	2
36	55	2
6	9	1
15	60	2
197	198	2
15	110	1
156	160	1
47	48	4
96	236	1
95	110	1
83	84	1
17	19	3
73	74	4
70	71	1
162	173	1
196	197	2
178	191	2
34	112	2
14	111	1
112	120	2
162	185	1
36	70	1
3	6	2
179	235	1
212	220	1
164	181	1
190	191	3
68	90	1
152	157	2
180	185	1
101	164	1
178	184	1
159	196	1
99	107	2
211	212	1
175	177	1
186	188	2
11	16	1
60	103	1
64	236	2
4	19	1
59	62	1
81	98	1
24	25	1
100	171	2
175	178	3
76	107	1
160	194	1
174	182	2
48	111	2
204	214	1
231	238	1
235	240	1
96	99	1
18	39	1
182	182	3
178	192	1
192	195	1
79	82	1
102	107	1
84	103	1
163	240	1
176	189	3
88	204	1
55	115	1
71	76	2
73	75	1
155	172	1
148	148	1
4	6	1
163	167	3
82	90	3
168	212	1
4	30	1
30	118	1
194	209	1
152	187	2
179	197	1
1	38	1
28	29	1
78	117	1
14	19	2
181	184	1
60	117	2
79	79	2
49	60	1
157	181	1
205	214	1
14	83	1
73	231	2
61	69	1
35	113	1
145	192	1
222	223	1
45	109	1
52	53	3
61	223	1
223	224	1
15	33	2
160	161	1
95	231	1
14	85	1
204	233	1
36	37	2
59	117	1
214	215	2
101	156	1
154	155	1
183	189	1
206	207	2
149	228	1
53	199	1
160	181	1
170	179	2
115	219	2
150	186	1
60	67	1
191	196	1
54	94	1
216	236	1
102	164	1
107	144	1
37	52	1
165	187	1
182	233	1
205	206	1
19	105	1
169	171	1
249	249	1
46	202	1
112	113	1
25	35	1
98	99	2
157	180	1
37	92	1
214	240	1
158	162	1
88	230	1
21	66	1
2	44	1
2	7	1
97	98	1
200	203	1
78	114	1
111	113	1
197	235	1
86	86	2
59	174	1
119	247	1
0	1	1
203	212	1
61	63	1
48	86	1
60	62	1
31	34	1
154	167	2
237	241	1
163	165	1
82	185	1
106	121	1
171	186	1
12	73	1
