71	71	36
50	50	17
36	36	18
25	62	3
63	64	8
93	96	2
80	92	4
68	69	6
46	55	1
40	40	15
68	73	1
59	59	20
86	86	10
77	77	6
96	96	11
84	84	4
76	91	1
80	81	7
95	95	11
62	81	4
54	55	20
62	62	9
67	69	4
67	67	26
30	35	1
87	88	10
65	70	4
56	58	2
44	44	17
34	40	1
75	77	5
85	101	2
77	78	3
51	51	21
70	70	22
97	97	9
59	72	1
41	41	29
76	76	16
25	26	3
24	24	10
27	27	18
93	97	4
40	92	2
43	43	19
78	78	18
93	94	6
95	97	4
68	68	29
26	26	5
81	83	2
24	84	3
87	87	17
42	42	22
47	47	17
55	55	11
54	86	2
80	89	5
75	75	22
53	53	17
34	34	5
79	80	6
54	54	22
22	22	8
63	63	29
67	68	5
76	77	11
52	52	13
48	50	14
62	68	3
57	57	22
40	41	5
47	61	2
58	59	4
94	94	9
48	48	20
83	83	17
69	69	21
57	62	2
64	64	20
65	66	3
57	58	11
60	60	24
57	73	4
81	82	6
51	52	8
39	39	26
92	97	2
74	74	18
90	90	32
67	74	2
28	96	3
61	61	14
49	50	17
33	33	18
45	45	7
31	31	9
59	63	1
98	98	14
84	89	7
25	25	9
89	90	8
30	30	7
80	82	3
28	28	10
86	87	4
93	93	10
89	89	26
43	66	2
41	42	13
79	79	24
97	98	8
35	40	4
72	79	2
80	80	19
73	73	11
65	65	27
44	45	9
87	93	1
63	65	3
49	61	1
66	66	17
91	91	30
37	38	4
89	96	1
46	46	16
102	102	2
85	85	29
37	37	5
42	83	3
68	74	5
100	100	11
27	28	5
29	29	6
53	54	6
86	89	11
43	56	3
29	33	2
99	99	7
21	29	4
82	87	2
33	34	1
39	44	2
53	62	2
81	84	3
56	56	6
81	81	18
65	71	4
32	33	8
66	76	1
25	84	5
35	39	3
85	89	4
22	55	1
95	96	10
64	65	3
56	57	2
47	48	14
71	77	4
22	28	3
87	91	2
90	91	7
89	101	4
72	73	13
55	61	10
92	92	8
53	55	2
92	93	2
71	72	8
101	101	6
96	97	7
38	39	5
52	83	3
50	61	2
38	38	18
46	48	4
47	51	4
94	98	2
52	54	2
89	95	2
82	82	5
55	62	1
52	57	1
63	67	2
35	41	5
52	60	2
24	25	4
40	45	3
72	74	5
69	70	5
86	93	3
58	58	8
51	88	1
25	80	1
23	78	4
53	58	1
34	35	2
72	72	11
60	68	3
48	61	2
87	92	3
88	92	6
23	27	4
70	80	2
24	54	6
74	80	3
76	92	3
68	70	2
59	60	1
59	61	3
40	81	3
60	62	1
86	91	1
91	92	6
67	70	5
46	47	3
82	83	7
80	93	2
46	81	1
88	88	18
58	64	4
79	93	7
42	43	1
23	23	1
60	66	3
75	101	5
80	90	2
86	94	2
24	26	3
33	36	4
36	40	1
48	51	3
70	71	2
50	51	8
30	31	3
71	74	3
55	56	2
49	49	10
88	93	3
62	63	3
58	61	2
24	55	3
33	40	3
72	78	2
59	62	2
48	49	1
95	102	1
53	57	2
99	100	3
29	30	1
60	61	3
26	27	4
75	91	1
49	52	5
34	44	1
61	88	3
38	55	1
29	34	1
79	89	1
29	36	2
87	94	1
28	35	3
52	89	4
20	20	2
34	48	1
71	73	6
39	95	1
54	94	2
66	67	2
53	60	4
49	66	1
30	32	2
22	23	4
61	62	2
73	77	2
100	101	3
32	32	8
28	88	1
25	57	1
23	24	1
42	44	1
86	88	2
85	99	2
79	88	2
49	77	4
46	61	1
99	101	3
35	35	4
90	93	1
85	86	4
20	27	3
74	75	3
33	35	1
35	36	3
29	32	4
59	66	2
54	60	2
93	99	1
95	98	1
22	25	1
57	59	2
81	95	1
25	27	2
23	26	2
36	92	1
67	101	1
28	94	1
27	87	3
62	73	1
53	86	2
82	86	1
40	42	1
59	65	2
80	83	1
53	83	1
54	61	3
27	94	1
54	65	1
56	65	1
64	75	1
53	61	1
31	36	1
86	97	1
76	99	1
45	48	1
60	89	1
70	73	2
45	47	1
57	71	1
35	38	2
56	60	1
92	94	1
70	72	1
36	96	1
57	60	2
83	84	2
23	66	1
63	68	1
66	74	1
20	87	1
