74	86	1
62	74	3
64	64	18
5	6	3
81	84	4
34	34	13
92	92	5
45	86	3
90	90	16
87	87	6
11	11	25
14	14	11
45	45	13
82	82	5
90	94	8
20	20	10
130	130	12
81	81	5
117	129	3
73	73	13
15	15	14
32	32	10
18	18	12
69	71	1
78	78	12
32	33	7
30	30	8
79	79	8
6	6	8
69	70	6
63	70	2
40	41	1
22	22	6
77	77	16
4	4	8
57	57	3
89	89	3
131	131	3
84	84	8
60	60	11
118	118	9
47	47	32
88	92	2
99	99	7
19	36	2
68	68	5
9	9	13
33	33	13
13	13	14
76	77	2
9	102	1
62	62	13
9	28	1
48	59	2
98	102	6
110	110	5
46	46	8
121	121	1
99	102	5
7	8	2
75	82	6
94	94	10
86	89	1
69	69	6
90	97	3
63	63	10
132	132	6
70	77	1
75	75	17
8	76	3
72	72	17
71	71	5
58	58	3
76	76	13
101	104	4
124	124	10
16	17	8
2	100	4
96	96	7
41	42	5
7	101	3
6	45	5
86	95	1
109	110	2
33	34	3
71	72	14
56	56	8
31	60	3
55	58	1
93	93	6
2	7	3
102	102	12
32	75	9
45	62	1
127	128	2
3	4	7
98	98	8
28	28	11
39	50	2
2	5	1
48	48	10
102	111	4
29	29	6
97	98	2
10	12	5
40	42	10
42	43	3
2	2	2
117	120	3
65	65	8
65	66	4
12	12	7
57	84	2
70	70	8
132	133	3
18	32	2
6	7	2
113	116	8
14	103	3
67	67	6
103	104	7
66	66	13
101	101	19
103	103	3
9	19	2
100	101	1
112	112	2
25	25	5
17	17	14
21	21	8
32	36	3
80	81	6
14	17	2
91	91	5
59	60	2
13	18	3
38	40	5
55	55	4
58	59	4
93	94	4
70	71	3
40	40	9
55	57	1
34	35	3
110	112	4
11	76	3
90	91	2
4	48	4
96	97	4
85	88	4
40	43	4
19	20	5
35	74	2
37	37	3
27	28	4
25	98	2
21	59	2
48	92	4
26	26	17
15	45	6
17	35	3
59	59	11
71	74	2
10	10	19
46	60	4
95	95	5
6	17	7
8	10	9
85	87	11
68	69	8
43	44	7
114	115	3
122	128	1
57	58	5
7	7	10
51	54	1
61	73	2
9	14	1
125	126	3
73	74	3
26	27	7
17	24	1
83	84	7
0	65	2
120	122	3
27	62	2
126	126	6
16	16	11
100	100	3
113	114	2
28	29	5
86	90	1
24	25	3
86	86	6
7	35	1
47	48	3
21	50	3
35	36	2
20	21	1
35	35	5
17	34	2
88	88	7
31	31	8
85	90	4
87	90	1
5	7	1
8	9	3
126	134	2
32	42	2
124	125	4
12	13	1
1	1	1
134	134	8
21	44	2
43	47	2
11	93	1
5	9	1
1	7	2
94	98	2
79	114	2
32	76	1
32	34	4
2	3	1
3	3	5
84	91	3
19	37	2
22	76	1
3	102	1
125	127	2
95	106	4
45	60	2
120	121	4
122	122	3
119	119	1
56	84	2
43	43	2
7	85	1
72	73	1
23	46	2
28	49	2
61	62	5
116	119	2
63	68	1
30	31	1
112	121	5
117	118	2
109	109	2
38	38	4
104	104	2
7	11	1
89	93	3
94	104	4
11	60	4
0	0	2
17	18	4
74	74	4
45	83	2
48	93	3
78	80	1
12	106	1
85	85	4
73	111	2
77	81	1
38	39	3
46	47	1
48	78	3
94	105	1
83	83	3
8	8	5
73	120	2
99	100	1
0	1	2
37	44	3
24	82	1
21	51	3
29	31	4
117	117	6
123	123	10
106	122	4
27	31	1
16	26	4
37	38	6
0	3	2
39	39	3
48	49	3
46	71	1
15	16	4
11	12	4
21	35	5
111	112	2
80	80	2
45	46	4
41	41	1
36	36	5
61	61	11
113	113	9
121	122	4
5	83	3
29	30	1
22	25	1
27	27	5
36	38	3
57	77	2
103	106	2
18	46	1
44	81	1
9	10	3
36	40	1
33	59	3
12	62	1
109	113	3
1	63	2
33	36	2
128	128	3
28	96	1
128	129	1
93	98	1
111	113	4
19	25	1
107	107	2
36	39	1
103	111	2
86	94	1
113	115	1
9	27	3
7	75	1
129	129	1
69	74	2
46	61	2
133	133	3
89	90	4
63	71	3
8	36	2
19	19	4
17	46	6
76	78	5
97	99	2
65	68	4
11	78	2
126	127	2
124	128	1
91	92	1
2	102	2
44	44	2
31	32	1
55	56	2
88	91	2
44	45	1
49	87	1
57	60	1
83	86	2
61	75	2
96	99	1
110	111	2
93	101	1
87	89	1
25	27	2
45	64	2
6	16	1
95	101	2
13	47	1
5	5	4
60	131	1
87	88	3
13	14	1
105	105	2
6	26	3
42	42	3
103	112	1
25	26	1
112	113	2
78	79	1
33	75	1
108	122	1
62	64	1
24	83	1
74	82	1
67	68	1
111	115	4
35	41	2
117	126	1
39	40	2
7	65	3
46	73	2
20	23	1
106	106	1
28	66	1
4	34	1
13	62	1
131	133	1
12	60	1
97	97	1
27	29	1
101	110	1
125	125	2
32	35	2
48	100	2
29	60	1
50	56	2
96	98	1
71	73	3
131	134	2
21	29	2
79	80	2
127	131	1
29	32	3
62	63	1
49	49	1
94	96	1
79	81	1
92	93	2
107	108	2
18	19	1
25	102	1
116	116	1
66	69	1
7	76	1
77	93	1
31	89	2
0	67	1
4	111	1
72	119	1
36	37	2
71	87	1
94	95	1
60	61	1
108	108	1
94	101	1
11	18	1
25	47	1
34	36	1
72	83	1
62	65	1
115	116	1
94	100	1
58	134	1
16	22	1
