4	13	2
103	115	5
63	63	6
11	142	1
8	8	5
35	36	2
77	77	8
77	78	5
7	7	2
137	138	5
43	43	2
133	133	4
132	132	4
114	114	4
44	44	6
125	126	2
145	145	6
142	142	10
78	80	5
10	10	4
106	115	5
33	34	3
122	124	2
122	122	5
147	147	9
104	117	2
45	45	3
135	140	2
58	75	2
128	133	3
26	27	3
110	110	2
95	95	5
147	148	2
3	3	4
97	98	8
32	33	4
62	62	6
39	40	2
101	102	3
106	153	1
130	130	1
127	130	3
64	65	2
131	131	11
17	17	5
17	22	3
34	35	3
48	67	1
38	50	4
48	48	6
128	128	7
154	154	6
123	124	1
85	85	1
94	95	4
146	146	1
115	115	4
124	126	1
112	114	1
53	55	2
6	7	7
106	107	5
66	66	3
44	45	1
56	56	6
111	111	4
22	23	2
47	53	3
40	40	5
96	113	4
67	68	3
19	20	6
49	49	4
46	46	3
137	137	7
138	139	2
55	55	6
42	42	4
16	22	3
14	26	2
9	9	6
68	68	3
69	69	2
19	19	8
105	105	9
76	78	5
39	85	2
101	105	4
53	74	2
4	8	1
67	67	5
88	88	2
76	83	4
23	23	3
64	64	5
136	137	2
136	136	5
18	32	1
134	134	5
47	47	1
34	42	4
78	79	3
43	44	1
129	129	1
26	26	12
96	96	1
17	25	4
48	49	2
130	132	3
36	91	3
41	41	4
153	153	3
14	16	1
124	124	1
145	146	3
57	65	1
54	54	7
29	29	6
79	79	1
106	106	8
82	84	3
24	24	4
120	120	3
76	77	5
86	86	3
72	72	2
139	139	3
5	5	7
4	4	3
129	130	1
57	57	6
146	147	2
81	81	1
121	122	3
87	87	2
64	69	1
127	127	3
36	36	5
55	56	3
109	109	4
20	21	3
13	13	3
38	42	1
65	65	3
70	74	1
31	33	1
101	101	1
38	38	2
94	97	1
65	66	7
108	108	2
28	28	5
133	138	2
14	14	4
83	86	4
71	71	7
95	96	3
71	96	2
70	70	3
29	34	2
15	15	6
75	83	1
10	143	2
81	82	1
135	138	2
3	4	5
80	80	1
102	102	3
53	53	4
50	50	1
75	75	3
72	73	1
97	97	1
31	56	2
3	5	1
119	119	1
33	33	3
98	98	1
18	18	1
87	88	1
74	94	2
39	39	2
18	19	2
137	141	1
148	154	1
7	20	1
123	123	1
32	34	1
94	113	3
151	151	1
10	11	2
22	22	2
11	11	1
118	118	7
21	23	2
6	6	2
75	76	1
135	135	2
47	48	2
51	51	1
76	76	1
134	136	1
119	120	2
42	43	3
120	122	2
21	21	1
113	113	3
133	142	1
148	148	1
143	143	1
86	87	1
116	116	1
42	50	1
46	47	1
4	5	1
119	122	1
117	117	1
31	31	1
116	117	1
54	55	1
107	121	1
