89	89	21
4	4	20
47	48	13
68	70	1
59	76	2
86	86	13
27	27	8
17	17	7
54	54	10
53	54	4
11	12	6
59	59	7
49	52	1
3	3	12
79	79	21
10	61	2
49	50	5
61	61	3
56	57	8
64	64	10
70	70	11
59	62	4
81	82	7
9	9	11
55	55	19
32	51	1
5	9	6
7	7	8
52	61	3
81	81	17
25	48	5
65	83	4
9	10	3
63	63	5
84	84	21
89	90	1
51	56	8
76	76	13
19	19	15
12	12	13
85	86	19
23	23	16
48	48	19
1	1	10
56	56	20
62	65	3
23	24	3
24	27	9
8	14	2
51	66	4
17	18	4
24	24	10
77	77	7
72	72	10
84	85	2
77	79	1
65	66	5
79	82	2
85	87	5
72	80	2
83	87	3
69	69	14
50	50	14
78	78	7
16	17	3
57	57	13
31	31	19
65	77	2
20	20	11
22	22	21
13	13	14
82	82	22
67	67	9
11	11	11
2	3	5
15	15	8
80	81	7
72	74	6
81	84	2
0	0	16
8	9	6
78	81	1
0	1	3
46	48	2
26	26	16
79	80	9
66	66	16
86	87	7
25	26	14
14	82	2
87	87	13
34	34	5
7	8	7
25	25	16
60	61	11
88	88	10
10	10	6
74	74	7
58	58	17
73	73	5
60	63	3
12	13	2
46	47	2
9	13	2
3	4	2
22	24	4
78	79	7
33	51	6
62	62	2
6	6	10
14	15	3
51	54	2
72	73	5
5	6	1
82	83	4
75	75	21
76	78	5
71	71	9
30	30	8
75	77	1
57	58	3
72	75	4
52	52	6
5	5	6
54	55	8
50	51	2
14	14	10
49	49	14
66	81	2
68	68	10
83	83	4
60	60	8
74	75	4
29	29	8
80	85	2
52	55	3
59	64	2
6	7	5
52	53	4
19	66	1
53	53	7
51	51	12
84	88	2
28	28	5
59	60	3
66	71	2
33	33	1
32	34	2
8	8	4
63	64	1
49	65	2
26	27	3
53	55	5
76	77	2
20	21	4
11	86	2
58	59	2
75	84	4
86	88	3
71	72	5
74	81	1
4	5	2
81	85	9
64	82	2
6	8	3
0	3	3
83	84	5
55	56	3
15	16	2
85	85	4
65	65	12
0	2	2
66	68	3
32	48	1
58	63	4
79	88	1
60	76	1
16	16	3
66	72	3
62	63	8
21	23	2
8	15	1
47	47	5
49	66	1
21	21	2
32	32	1
22	23	5
13	14	3
80	80	5
15	80	1
31	35	1
19	20	2
75	81	2
28	29	1
47	63	3
83	86	1
61	62	2
84	87	1
48	49	2
54	56	2
77	80	1
10	11	2
65	82	1
50	65	1
60	73	2
30	31	4
61	75	1
14	81	1
64	83	2
17	64	1
62	64	2
2	2	5
69	70	1
61	63	2
78	80	1
51	60	1
51	53	1
29	30	1
61	65	1
27	28	1
10	13	2
53	58	1
82	84	1
