154	187	5
173	173	16
153	187	4
90	90	35
187	187	19
130	130	15
178	178	24
31	31	18
153	154	2
83	83	22
54	54	15
84	84	17
182	182	23
95	95	13
1	1	19
99	156	4
146	182	5
28	56	1
79	79	20
95	108	1
74	74	12
47	48	5
81	81	14
124	124	10
136	152	2
63	64	5
153	153	19
157	158	12
43	47	2
124	137	3
44	44	12
152	153	12
92	92	4
141	141	14
84	95	8
79	91	5
176	176	8
119	120	4
16	17	6
125	125	19
80	80	17
158	159	7
186	186	31
185	185	19
166	167	6
66	112	2
96	96	19
165	165	13
14	14	15
48	48	12
140	141	2
3	40	2
114	114	11
59	101	3
32	32	10
181	183	1
161	161	17
148	148	24
110	111	4
8	8	17
122	127	2
67	67	11
15	15	35
13	13	25
115	116	6
12	12	14
44	45	2
9	9	8
108	109	2
35	35	13
78	80	1
147	149	5
184	185	12
101	101	19
140	140	16
118	118	10
57	152	3
177	177	14
177	178	15
189	189	23
107	107	28
95	173	2
149	149	18
169	187	2
40	40	20
26	66	3
18	18	19
72	72	9
97	118	3
45	45	19
154	162	8
162	175	5
182	183	18
122	122	26
181	181	12
189	190	12
1	2	5
75	75	13
82	83	7
112	114	1
178	183	3
89	89	15
94	108	6
187	188	20
170	170	10
183	184	7
138	138	14
148	181	6
154	155	3
144	187	1
22	22	17
38	38	24
117	118	3
174	185	4
23	76	2
126	126	6
67	68	14
85	138	2
68	68	19
179	181	15
76	76	8
62	62	4
41	42	19
114	115	18
190	190	9
75	76	10
100	100	18
114	116	2
184	184	29
86	92	3
78	78	16
173	184	1
17	17	15
155	155	21
186	188	4
97	168	3
113	113	21
87	87	14
188	188	14
129	132	1
53	54	5
127	127	11
106	106	23
155	161	1
39	39	11
3	6	7
105	105	9
60	61	1
47	47	8
120	121	1
139	139	20
169	169	18
30	30	13
65	65	4
125	126	8
41	41	17
32	33	6
2	2	21
165	189	5
138	139	11
96	103	2
42	42	21
109	109	4
172	172	9
176	181	4
157	162	5
136	137	10
4	6	5
163	178	6
6	6	8
144	144	8
175	175	13
45	47	4
95	96	4
183	186	3
154	157	2
131	132	11
129	129	14
0	1	4
26	26	29
105	106	6
71	71	12
168	168	23
142	150	1
11	11	22
58	59	5
31	35	2
89	119	2
166	166	18
112	113	10
125	134	2
135	135	13
8	25	4
116	116	18
178	185	3
26	27	3
170	185	4
104	163	5
148	149	5
63	63	7
37	38	2
185	186	7
102	102	4
121	123	3
109	168	3
57	99	4
104	104	16
88	108	1
152	152	9
137	137	6
173	174	6
65	66	5
26	57	2
0	0	7
147	147	15
88	89	10
174	175	7
178	180	10
7	7	10
78	91	3
25	26	2
101	102	10
110	154	3
6	7	12
150	151	1
174	174	9
61	102	4
131	131	10
14	15	4
86	87	5
82	82	11
66	106	2
58	58	5
77	77	23
178	179	6
3	3	5
147	148	6
54	55	11
158	158	6
88	107	1
34	34	10
128	128	7
5	5	7
165	166	5
173	175	4
68	69	3
145	188	3
94	95	3
86	86	9
98	98	12
166	187	2
33	33	8
99	99	5
187	189	1
154	154	9
124	151	3
162	162	9
53	65	4
133	133	13
7	8	1
131	137	8
94	94	11
183	183	29
172	173	4
127	128	5
151	181	5
110	115	1
140	182	1
68	71	5
13	15	2
64	64	8
147	170	6
19	19	12
131	141	1
103	160	2
63	105	1
106	107	6
142	186	4
29	29	5
171	172	6
75	102	5
27	63	3
156	158	4
166	169	5
141	143	1
169	170	9
66	190	1
57	162	7
29	36	4
59	59	8
88	119	3
124	126	10
24	24	16
146	146	10
188	189	7
142	142	24
123	123	7
181	182	5
106	158	1
109	114	2
35	36	4
139	188	4
16	16	10
70	71	5
61	159	1
129	130	6
24	25	15
124	125	3
23	25	6
44	47	1
127	131	5
97	97	11
155	189	2
139	146	2
173	183	1
65	111	4
104	106	6
136	136	4
148	151	2
130	139	1
163	163	20
179	179	7
77	78	4
84	85	11
100	101	6
171	173	1
170	171	4
77	91	3
162	184	1
39	40	7
139	151	2
56	56	3
98	99	1
169	177	3
66	66	6
25	25	13
103	152	4
145	145	7
133	134	5
102	123	4
85	85	8
182	184	4
15	16	6
128	130	3
93	94	5
36	36	9
139	140	1
125	145	1
57	57	15
42	79	2
138	154	5
69	69	4
60	102	2
147	150	2
56	57	8
131	142	2
112	189	4
73	90	1
121	121	11
162	176	3
17	18	5
21	22	2
176	179	1
139	185	2
59	60	11
18	19	3
115	115	16
159	159	12
108	111	4
120	120	13
21	21	11
74	90	4
142	151	1
43	82	6
103	103	9
93	93	6
80	81	3
162	177	4
178	184	4
146	181	4
55	58	3
27	65	8
183	185	2
66	67	5
131	136	2
4	4	8
145	149	3
30	31	7
71	72	4
102	146	5
132	140	2
10	10	9
135	186	4
15	17	3
42	80	3
167	168	2
175	177	2
170	172	3
69	70	1
155	157	6
90	91	8
119	119	13
186	190	3
60	104	4
88	88	8
170	175	2
22	75	5
143	150	2
103	104	2
34	35	1
164	165	6
75	79	2
186	187	3
122	124	1
37	49	2
157	157	7
3	38	1
23	23	5
150	150	3
84	94	3
73	74	1
85	139	6
151	152	6
70	70	12
45	46	3
161	170	3
54	56	2
103	164	1
96	99	5
55	55	8
123	124	5
13	14	8
169	184	3
73	73	8
67	154	2
139	154	2
55	83	2
175	190	2
33	34	9
61	61	5
96	97	3
108	108	10
100	103	1
43	81	2
41	79	2
112	190	3
159	189	4
23	75	5
110	123	2
121	125	6
97	98	7
29	30	5
11	12	2
37	37	3
55	86	2
91	91	8
80	93	3
37	40	2
61	62	3
155	190	2
86	93	2
42	43	3
174	187	3
78	79	2
102	103	8
160	160	3
107	111	3
167	167	2
108	112	1
96	109	3
134	135	6
62	63	1
125	130	2
76	77	10
99	157	3
85	86	4
135	136	5
83	84	9
110	122	3
123	128	1
44	83	4
89	90	1
111	111	5
144	154	6
16	22	2
38	39	4
0	2	1
59	106	4
58	60	5
9	61	1
86	139	2
29	31	3
31	48	1
3	8	4
55	64	1
162	163	6
66	188	2
129	131	2
180	181	5
184	186	3
133	136	3
164	164	6
100	102	2
129	137	1
131	153	1
125	127	6
159	160	2
72	73	2
30	36	2
81	82	1
184	189	2
133	135	6
9	25	2
112	112	8
114	153	1
66	74	2
52	52	2
130	131	5
53	53	7
46	46	6
20	76	1
3	24	3
87	91	2
101	146	1
150	185	5
182	185	2
103	142	1
122	126	5
27	54	2
122	123	3
124	130	2
8	24	2
22	23	3
71	119	4
143	143	7
116	117	1
89	120	4
15	21	1
114	162	12
23	24	8
151	151	9
46	48	3
180	180	6
117	119	2
97	99	3
117	156	4
37	44	3
25	58	2
3	4	3
113	115	1
136	138	1
15	77	1
143	185	2
97	167	3
102	110	2
2	7	4
86	88	1
117	117	10
131	133	2
23	26	2
36	43	2
35	55	2
101	145	1
114	154	1
145	146	1
102	141	2
24	142	1
11	19	4
61	106	1
102	135	3
144	150	3
109	154	1
66	189	2
5	42	3
99	100	2
111	112	2
132	137	3
110	110	13
19	77	1
20	78	3
163	177	9
174	184	2
87	88	3
109	110	2
163	183	2
171	171	5
91	92	2
116	118	1
99	103	2
137	152	1
54	85	2
155	156	2
27	27	2
121	122	5
146	147	1
36	37	1
31	32	2
126	133	3
141	152	3
62	65	3
142	144	1
58	102	2
132	132	2
56	141	1
102	142	2
45	135	1
113	116	4
66	170	3
12	59	2
81	83	10
163	165	2
131	151	1
10	11	3
86	138	1
125	131	2
107	112	3
144	147	1
38	55	1
92	93	5
7	23	2
137	138	4
28	38	1
172	176	1
103	136	2
161	162	2
61	63	1
26	56	1
95	98	2
154	156	1
122	145	1
43	49	1
186	189	3
88	126	1
46	47	1
131	135	2
6	100	4
20	91	2
0	12	2
3	76	1
157	161	1
0	10	1
128	129	2
122	154	1
113	114	2
149	150	3
185	189	2
0	13	2
11	15	1
166	174	3
86	137	2
38	54	1
142	166	3
22	76	1
53	136	1
179	182	2
3	5	3
150	182	1
110	177	2
56	152	1
131	140	2
130	134	2
147	182	2
115	120	2
111	167	1
55	84	1
141	185	1
98	101	2
76	90	1
122	125	1
118	119	1
100	106	2
145	182	3
144	158	1
36	48	1
184	188	1
56	86	2
134	134	4
124	129	2
100	157	2
3	15	1
174	183	1
145	181	1
185	190	1
123	125	2
67	70	1
114	163	1
144	145	2
57	88	1
57	58	2
101	109	1
8	9	1
58	61	2
172	185	1
115	173	1
88	92	1
169	174	2
103	154	1
130	138	1
5	6	1
143	144	3
134	147	1
87	137	1
12	13	3
125	146	1
100	105	1
125	148	1
74	75	2
24	26	2
165	183	1
4	5	2
152	154	1
175	176	2
109	141	1
160	161	2
36	54	2
67	158	1
62	158	1
65	67	1
3	7	1
20	77	1
126	127	1
30	32	1
56	62	1
114	155	1
158	161	1
56	79	1
156	157	1
126	128	2
116	120	1
128	131	1
134	138	1
124	152	1
39	56	1
102	168	1
115	154	1
161	176	1
63	157	1
19	20	1
135	138	1
108	154	1
75	91	1
64	156	1
128	136	1
16	21	1
28	29	1
63	65	1
93	147	1
27	53	1
142	143	1
54	84	1
