98	113	1
29	31	2
2	5	3
15	15	12
10	10	10
14	14	18
29	29	7
116	117	5
25	25	7
157	157	6
27	28	2
116	165	1
2	2	6
72	72	6
113	168	6
2	3	3
173	173	8
142	142	6
52	53	7
30	30	8
24	129	1
9	9	6
128	130	2
61	61	13
42	42	7
141	150	5
104	109	3
54	91	1
88	88	7
1	1	7
18	20	3
125	126	2
122	125	6
115	115	7
114	114	4
73	76	2
81	85	1
65	66	3
106	106	5
127	127	5
66	66	6
23	25	1
166	167	3
30	31	7
169	169	5
59	59	9
119	160	3
144	144	5
153	154	3
155	160	1
135	136	5
127	128	7
121	121	1
21	21	2
165	165	3
1	2	7
16	16	5
5	5	9
164	164	5
156	156	4
37	37	12
38	38	1
141	141	5
61	65	1
145	145	4
32	34	3
24	24	4
154	167	2
68	68	4
29	30	4
82	82	5
18	18	5
0	43	4
146	148	3
111	162	1
170	170	4
50	51	1
19	20	3
159	159	7
64	64	4
12	12	9
119	119	4
27	27	3
141	149	2
52	52	4
99	99	2
55	65	2
68	72	2
41	41	9
11	12	2
10	12	2
92	92	2
139	140	7
147	147	2
73	75	5
62	62	9
134	134	6
35	35	7
108	108	2
10	14	3
153	172	2
8	8	2
91	91	8
167	167	9
158	158	7
106	107	4
10	25	1
43	44	6
44	44	4
57	57	4
7	7	11
33	33	2
60	71	3
43	75	6
23	24	2
32	36	2
145	156	2
19	19	7
25	26	3
94	121	1
5	6	6
60	60	1
175	175	7
109	109	6
109	111	3
153	153	3
81	82	1
22	22	3
129	129	4
113	113	10
10	11	5
8	9	8
95	96	1
127	154	1
24	26	3
155	163	3
138	138	7
26	65	3
135	135	4
18	19	4
96	109	2
49	49	3
81	81	4
125	128	1
20	20	3
102	102	3
62	63	3
130	130	5
124	124	1
25	28	4
75	75	4
130	147	2
76	76	3
21	24	1
99	124	2
103	103	3
147	153	1
176	176	5
180	180	4
17	17	3
164	173	2
32	32	6
88	93	1
134	136	1
86	86	6
13	17	3
77	77	4
110	110	2
23	23	10
79	79	5
39	39	6
67	67	3
148	148	7
4	4	8
133	159	1
177	177	1
151	153	5
168	168	2
25	33	4
89	97	4
31	31	12
89	167	1
85	85	1
4	41	1
92	95	2
73	73	6
155	155	4
128	128	6
32	78	2
122	122	8
140	140	1
43	43	3
160	160	7
6	7	2
136	136	5
129	173	1
164	165	3
83	84	1
120	120	4
101	101	3
132	132	5
14	15	1
164	174	4
63	64	1
102	103	2
87	129	4
112	113	1
6	6	5
1	5	1
111	111	1
32	43	1
120	121	1
178	178	1
11	11	5
28	29	3
98	98	6
100	116	1
86	87	5
63	83	1
144	150	3
126	126	3
84	90	2
86	88	2
70	78	1
86	91	2
93	93	3
166	166	5
4	12	1
161	162	2
50	53	1
63	85	1
7	9	1
34	34	7
142	158	1
3	3	2
13	13	3
66	86	1
71	71	7
72	73	5
20	21	2
127	129	1
4	13	1
154	155	2
117	117	6
7	20	1
149	149	3
152	158	3
67	68	4
161	161	2
172	173	1
56	56	2
112	127	2
174	174	1
76	78	2
142	163	2
38	74	1
26	26	2
116	116	4
24	28	1
142	143	3
65	65	3
46	46	4
13	41	3
95	111	3
8	16	1
55	59	1
57	58	1
27	29	3
176	177	2
88	156	2
97	97	3
179	179	3
151	154	2
14	16	5
36	36	2
122	123	1
39	40	1
116	120	2
4	8	2
94	112	5
3	12	1
143	143	1
66	67	3
104	104	1
156	157	1
54	83	1
53	53	2
150	165	2
99	101	3
89	89	1
118	118	4
110	111	2
4	6	1
123	123	1
74	91	1
78	78	1
2	4	1
53	58	1
116	119	1
138	149	1
55	55	2
28	28	5
99	115	2
150	159	2
149	153	2
0	0	2
107	107	1
54	54	2
64	169	2
31	78	3
85	119	2
116	118	3
84	101	1
12	15	2
125	157	1
29	141	1
107	109	2
4	7	1
131	131	3
124	135	2
152	156	1
97	107	1
22	46	1
22	23	1
53	64	2
90	135	1
128	174	1
12	19	1
17	50	1
150	150	2
51	51	1
13	14	1
6	8	2
110	113	1
175	176	1
9	21	2
79	91	2
144	145	1
96	97	1
159	160	1
44	78	1
90	90	2
67	110	1
56	132	2
115	116	2
162	162	1
26	27	2
37	39	2
22	25	1
119	120	2
81	83	1
37	38	2
118	120	1
11	13	1
125	125	2
10	13	1
2	10	1
95	95	1
5	35	1
66	94	1
103	104	1
145	146	1
24	36	1
61	83	1
87	87	3
58	75	1
2	8	1
129	170	1
109	150	1
16	17	1
131	132	1
15	16	1
12	41	1
163	163	1
101	111	1
58	58	1
55	56	1
139	139	1
3	4	1
97	98	1
126	145	1
49	51	1
126	137	2
60	61	1
83	101	1
105	109	1
91	93	1
146	146	1
73	74	1
96	96	1
12	18	1
105	105	1
97	108	1
152	152	1
9	10	1
171	171	1
133	133	1
55	91	1
