33	33	10
37	48	2
63	64	9
61	61	10
41	41	11
56	57	2
54	58	5
20	22	1
13	13	8
13	25	9
71	71	14
7	26	4
74	74	10
49	51	1
32	32	11
60	60	17
3	3	14
1	2	9
64	64	4
24	24	28
33	34	3
23	31	8
42	42	11
29	29	15
7	7	15
30	30	15
67	67	10
9	9	26
67	68	3
68	73	4
21	21	18
2	2	15
4	5	14
5	5	20
72	72	5
36	40	1
65	66	1
26	26	11
56	60	2
23	23	27
0	24	2
10	10	18
62	74	1
36	38	2
52	77	2
12	13	3
63	67	1
14	14	11
70	71	4
0	0	11
28	29	4
78	78	3
53	77	2
69	70	1
23	24	10
62	62	9
66	67	2
35	36	3
11	11	15
25	25	17
18	20	1
52	72	8
57	65	2
53	73	3
66	66	7
48	48	6
58	58	3
43	43	9
72	73	4
4	4	21
49	49	12
7	20	1
10	61	4
55	55	16
71	72	4
39	41	12
19	20	3
6	6	9
32	48	2
51	51	3
59	62	2
31	31	7
42	46	2
46	47	4
56	56	5
8	13	2
7	8	7
23	48	3
21	48	3
24	31	4
22	54	3
35	35	8
50	53	8
5	6	8
22	22	10
23	30	3
31	48	5
32	34	2
8	20	2
52	54	1
54	54	15
20	20	22
46	46	11
0	2	1
27	28	15
52	71	4
12	20	4
46	55	4
77	77	10
10	11	7
44	44	6
9	21	4
27	27	6
40	44	1
52	76	1
11	23	3
40	40	6
28	28	15
44	46	4
21	22	2
51	53	4
37	45	2
73	73	15
58	59	3
50	50	5
22	48	2
41	43	6
37	43	4
39	39	3
30	31	6
45	45	6
52	69	4
67	69	3
40	41	2
44	54	3
18	18	3
3	24	2
36	37	5
8	8	6
58	75	3
29	33	5
11	26	2
37	39	5
69	69	10
29	65	1
58	62	3
0	1	7
60	61	3
68	71	9
8	21	5
9	11	1
43	45	1
54	77	6
22	23	8
62	66	3
32	33	4
65	65	6
28	63	2
30	67	1
34	34	9
31	49	4
47	71	6
68	68	5
52	68	11
29	63	1
54	73	3
52	73	1
47	47	9
35	37	6
23	26	2
1	1	7
8	63	1
28	64	3
34	35	11
64	66	7
48	54	2
26	27	12
13	14	2
52	67	3
70	73	2
62	76	3
5	7	1
45	53	1
42	44	1
52	53	6
57	57	8
28	62	6
38	40	3
30	37	2
7	23	1
30	33	1
52	52	2
76	76	4
36	36	4
19	19	5
59	61	3
0	13	1
37	38	6
25	27	7
43	44	1
49	50	3
21	23	1
70	76	1
60	62	1
2	4	3
24	26	4
0	5	2
53	53	5
9	10	2
35	38	2
8	56	2
37	37	5
58	61	2
22	24	2
12	12	10
38	45	1
59	59	3
44	74	2
42	48	1
30	49	1
70	70	4
27	29	1
63	74	2
0	67	1
37	47	2
3	6	1
36	48	1
57	58	1
38	38	2
29	60	1
48	65	1
28	61	1
50	51	3
25	31	3
48	64	2
45	73	1
72	74	1
63	63	3
21	47	1
44	45	2
51	54	2
50	62	1
56	67	1
23	64	1
7	10	2
4	6	2
11	12	1
6	7	2
59	75	3
45	46	2
74	75	1
68	69	1
11	47	2
53	54	3
33	56	1
59	63	1
24	25	2
7	21	2
7	12	1
47	54	2
50	73	1
36	41	1
15	23	1
55	56	1
3	4	1
3	5	1
61	74	1
30	36	1
39	43	1
37	49	1
75	75	1
