157	158	1
109	113	6
202	202	12
16	16	12
38	39	6
214	214	8
5	5	9
76	78	1
228	236	3
105	105	13
189	191	1
34	61	2
47	47	19
96	97	2
108	239	4
97	98	4
42	42	15
71	71	16
41	52	3
95	95	15
146	164	3
17	17	5
66	74	3
107	107	14
231	231	6
239	245	5
6	7	1
62	77	3
216	217	1
176	222	2
119	147	3
187	187	7
222	222	10
243	243	4
170	171	6
175	178	3
48	62	3
47	66	6
7	7	15
151	156	3
221	221	4
228	229	2
66	67	2
145	145	12
49	49	8
102	102	5
92	107	3
117	117	24
6	110	2
84	85	2
213	213	9
150	150	18
209	209	15
88	89	6
46	46	8
68	68	5
204	205	3
48	82	1
22	23	6
197	197	7
111	244	3
114	114	14
184	231	6
186	186	17
48	48	14
179	212	3
228	228	11
192	236	3
247	247	19
212	212	12
0	1	9
8	9	6
198	198	9
179	179	8
210	221	4
71	78	8
207	207	21
50	50	5
171	174	5
118	119	9
183	208	3
76	76	16
56	56	6
58	59	2
96	96	12
152	152	9
206	206	9
100	100	5
231	233	7
23	23	15
87	118	2
187	244	4
215	215	10
154	154	12
162	162	8
147	164	5
38	38	10
58	208	1
229	229	6
119	165	3
168	169	5
70	70	4
234	234	13
158	158	15
226	230	4
172	172	13
232	233	1
236	236	8
184	184	5
191	192	5
165	165	7
205	205	15
22	22	2
14	38	2
236	240	4
63	63	8
193	194	3
98	165	5
222	223	3
188	188	6
200	201	11
20	20	10
41	41	14
204	207	3
155	155	25
99	99	11
62	63	5
177	177	17
171	177	5
194	231	2
118	118	6
191	238	3
43	45	1
104	107	4
70	76	1
182	182	11
78	120	4
213	214	3
111	247	4
29	29	8
23	26	5
159	165	1
149	149	4
97	97	9
185	185	13
97	118	1
19	19	4
44	45	2
175	175	5
183	192	8
147	195	1
189	190	7
111	111	16
245	246	9
146	146	2
12	12	3
55	55	11
174	175	2
92	92	9
119	120	1
78	78	4
227	236	5
195	233	2
201	244	3
4	6	2
194	196	5
224	224	11
65	65	7
232	232	6
4	4	12
88	88	5
8	8	15
181	184	6
178	182	1
93	94	4
4	63	2
7	8	9
57	57	7
230	230	11
183	189	2
158	170	2
31	31	5
18	55	2
102	103	6
67	83	2
47	48	14
223	223	13
52	52	16
207	228	1
89	89	11
157	159	4
22	26	1
32	32	5
241	247	4
240	245	3
70	71	2
241	246	1
67	67	4
203	207	9
160	161	12
110	110	13
90	180	3
193	193	18
60	60	9
33	49	4
9	9	9
205	231	1
170	182	5
3	86	2
39	40	2
195	196	6
237	238	10
1	85	3
204	204	10
11	11	12
120	120	8
226	226	3
30	30	8
220	220	7
53	88	5
77	77	7
94	103	1
178	178	3
73	73	4
40	41	4
189	200	4
28	28	8
157	164	1
72	72	8
166	166	12
116	116	23
37	37	8
40	40	10
194	194	10
109	109	23
27	28	4
165	166	6
108	108	4
6	32	2
159	200	1
4	5	11
163	164	6
246	247	2
36	68	1
96	102	4
210	211	9
78	80	2
38	82	3
176	176	12
172	173	5
152	165	2
61	61	17
188	189	2
209	212	2
59	59	10
88	114	1
21	21	19
173	178	1
43	43	8
15	17	4
32	55	1
159	159	8
246	246	7
101	101	8
183	183	11
93	93	7
12	44	1
3	36	2
247	248	7
191	194	4
161	161	6
91	91	7
180	237	1
185	186	7
183	222	3
79	79	15
211	211	12
90	91	5
221	247	2
195	195	14
238	239	3
34	34	2
240	240	6
21	47	2
192	211	4
184	232	3
108	109	1
208	243	1
162	163	2
233	233	8
154	156	3
206	207	1
85	85	7
160	175	2
31	62	2
112	112	17
10	10	18
11	66	2
77	78	1
113	113	9
62	62	11
87	88	2
21	93	2
51	52	2
192	192	10
59	60	7
248	248	5
74	74	5
81	81	9
3	17	2
58	60	3
192	216	4
39	66	2
116	119	1
57	58	7
34	35	2
160	160	13
163	163	12
174	174	5
168	168	17
169	169	9
213	225	8
182	183	6
51	51	11
158	164	4
103	119	1
27	29	1
58	58	15
32	33	3
171	171	4
102	247	1
218	218	7
210	210	7
117	118	8
180	180	13
187	189	6
234	235	4
194	195	5
162	181	1
166	175	1
233	242	1
119	119	13
242	243	5
147	171	2
164	164	5
207	208	2
190	194	1
150	207	4
196	196	4
50	60	3
56	74	3
17	18	2
12	19	3
1	1	4
229	230	4
70	73	2
36	36	10
175	179	2
186	192	2
153	153	16
170	170	7
243	244	2
176	177	4
169	171	4
184	192	5
113	243	2
33	33	11
53	53	9
161	178	1
71	73	3
45	45	14
48	49	4
190	240	4
98	98	12
39	39	10
64	64	12
74	75	2
93	99	1
201	201	13
164	224	4
235	235	8
87	91	4
13	14	6
121	121	3
217	217	10
27	27	12
79	80	2
203	204	4
113	118	1
51	73	2
65	85	2
95	100	2
3	3	2
16	18	4
6	36	1
173	173	4
201	229	3
219	224	2
218	219	4
187	191	2
89	97	2
153	161	2
73	74	3
89	92	3
186	191	4
24	24	10
14	14	3
3	84	3
214	215	2
69	69	5
68	74	3
228	230	2
49	50	2
215	216	1
201	202	4
5	63	1
103	103	15
239	240	5
208	208	11
43	44	3
156	156	17
225	225	2
95	101	2
173	186	1
64	65	6
184	188	3
144	145	2
233	234	4
38	50	5
189	189	7
19	78	1
13	72	3
56	61	1
219	219	8
85	86	7
24	25	2
54	88	1
44	44	10
23	247	1
241	244	5
90	90	7
14	15	2
173	187	2
17	72	4
35	36	1
65	66	4
94	94	6
146	214	2
150	151	6
30	31	5
4	64	1
217	218	5
71	72	1
244	244	6
87	87	5
117	119	2
82	82	7
62	85	1
162	173	1
20	35	1
15	15	3
158	159	7
181	181	4
35	35	13
180	181	5
64	114	1
18	19	1
18	18	10
61	62	3
212	235	4
151	151	5
21	109	2
162	176	1
25	26	2
152	170	3
174	187	1
249	249	1
33	44	2
103	120	2
162	179	2
42	43	3
38	48	2
69	70	2
86	86	5
193	195	1
23	25	1
95	248	5
26	26	4
9	10	3
173	176	2
110	120	4
189	192	1
175	180	3
228	234	1
11	21	1
2	2	1
38	79	2
158	161	1
106	107	1
202	203	2
169	170	1
209	210	1
93	95	1
95	104	4
203	203	5
94	95	4
209	242	5
115	115	5
23	54	1
15	50	2
195	200	1
157	157	4
177	179	7
5	6	2
241	241	5
50	52	2
166	181	1
200	200	2
87	89	1
225	226	3
2	19	2
23	240	3
242	247	4
63	85	2
183	184	2
213	215	1
195	231	3
14	35	1
23	246	1
219	246	2
9	11	1
166	167	1
2	36	4
144	144	2
54	54	5
34	37	2
157	169	1
152	153	5
214	225	2
212	223	2
236	237	3
96	108	1
99	103	5
22	43	2
6	6	2
96	100	1
46	109	1
64	83	1
95	211	1
55	56	4
215	217	1
91	104	2
11	19	2
232	242	1
238	249	1
2	92	2
190	190	2
66	66	5
46	47	1
174	178	3
179	231	4
199	199	10
93	103	1
37	38	2
26	210	1
173	174	2
80	82	2
171	236	1
115	120	2
80	80	7
183	188	2
153	154	1
25	25	6
168	171	4
211	229	1
114	115	1
107	108	1
152	166	1
181	246	1
185	216	1
180	239	2
225	245	1
152	164	2
82	118	2
70	77	1
237	239	2
12	20	5
171	172	1
185	212	1
161	223	3
198	199	1
53	54	3
15	16	5
22	183	1
104	106	4
230	231	1
224	225	1
241	248	1
191	191	2
75	75	1
227	227	3
185	213	1
106	106	1
56	57	3
32	52	2
214	223	1
218	232	1
190	245	3
36	82	3
53	55	1
87	90	2
173	175	3
4	34	1
86	89	1
162	174	1
236	239	1
204	206	1
237	237	4
95	108	4
232	239	3
46	68	4
219	225	1
197	198	3
205	229	1
170	190	1
199	227	2
63	86	2
192	193	2
208	218	2
34	50	1
68	75	5
176	231	1
113	173	3
209	237	2
88	117	2
115	116	5
239	239	2
19	20	2
155	156	3
70	72	1
31	92	2
80	81	1
147	147	1
199	200	3
17	78	2
91	92	2
30	211	1
213	217	1
158	198	1
64	66	1
109	110	2
165	167	1
221	222	6
208	209	6
68	69	1
65	74	1
185	243	1
60	63	2
5	71	2
241	242	3
222	229	2
153	170	1
238	241	2
182	247	2
4	66	1
201	205	2
104	105	1
72	77	1
179	181	1
184	185	1
147	170	1
28	42	1
168	188	1
2	17	2
177	232	1
67	81	1
31	66	1
89	91	3
94	100	4
163	165	3
227	230	1
27	93	2
114	147	1
245	245	4
1	3	1
15	48	3
33	36	2
5	64	1
71	77	3
183	212	1
96	99	2
205	206	1
66	73	1
35	37	1
37	67	3
112	113	2
194	238	3
179	223	1
156	161	1
188	235	3
220	222	2
182	210	1
68	70	2
84	112	1
48	60	1
175	183	3
29	212	2
179	182	1
175	216	2
61	64	3
190	236	1
54	55	1
173	236	1
201	226	1
114	118	1
227	228	1
217	220	1
82	83	1
177	178	1
5	48	1
226	228	2
20	21	2
88	91	2
187	236	2
66	83	1
14	57	2
216	216	3
113	114	1
159	160	1
70	84	1
186	200	3
158	162	1
158	167	1
200	240	1
165	224	1
110	111	1
175	176	1
174	197	1
171	245	1
7	54	1
111	241	1
31	248	1
94	109	1
29	93	1
205	245	1
31	32	1
213	223	1
167	169	2
57	60	1
167	189	1
93	109	1
208	242	1
60	61	1
63	64	1
102	119	3
26	27	2
41	42	2
31	39	2
68	80	1
87	113	1
184	242	2
65	113	1
12	30	1
242	246	1
0	41	1
84	84	2
110	154	1
183	186	1
91	106	1
225	242	2
20	51	2
201	209	1
109	240	3
26	109	1
157	176	1
179	184	1
190	247	1
190	192	1
47	76	1
238	238	1
50	63	1
112	244	1
1	37	1
167	167	1
188	190	1
48	52	1
76	77	1
169	213	1
242	242	1
215	219	2
75	76	1
146	161	1
26	28	1
190	191	1
20	47	1
36	67	1
11	31	2
219	220	1
157	170	1
189	236	1
171	178	1
