31	31	6
114	114	4
77	77	9
105	105	11
30	31	6
30	34	1
45	45	7
89	89	7
55	55	13
56	56	8
110	110	8
51	52	1
49	50	7
97	97	8
99	99	14
63	64	5
20	20	6
103	103	12
80	81	7
76	77	9
29	31	3
91	91	14
59	60	8
72	72	12
81	85	3
65	66	7
83	84	1
44	44	6
96	102	2
92	92	13
50	51	5
66	68	5
78	96	1
71	74	6
22	22	6
62	62	13
54	54	7
81	81	22
74	74	19
102	102	5
80	80	10
42	42	6
25	25	6
66	72	1
67	67	6
110	111	6
86	102	3
105	106	7
55	58	3
49	49	14
22	23	12
41	43	2
103	104	3
37	37	12
47	47	7
85	90	3
95	96	3
39	39	8
60	61	6
100	100	3
58	60	2
65	65	17
90	93	4
98	98	7
84	84	15
74	75	9
32	32	4
36	64	2
72	75	3
66	97	1
62	67	4
38	56	2
101	101	13
106	106	3
76	76	22
69	71	1
68	68	5
30	30	10
93	93	4
42	43	11
62	63	7
90	90	9
40	42	4
60	60	4
54	58	2
53	53	2
21	22	3
89	90	3
88	89	10
53	54	5
64	64	7
96	96	9
101	102	8
88	88	7
61	61	12
36	63	4
59	59	7
32	34	2
85	89	4
75	77	4
50	50	8
91	94	6
83	83	15
113	114	4
57	57	18
63	63	18
86	101	2
65	67	2
63	66	2
60	71	1
43	43	11
85	85	6
84	87	1
95	97	1
92	99	4
23	24	2
82	82	5
111	111	12
28	29	3
58	58	12
35	64	2
66	66	9
94	94	7
78	78	4
64	72	1
98	99	4
40	40	19
56	58	3
98	102	3
112	112	3
69	69	4
56	60	1
70	70	12
97	98	1
85	93	1
93	94	8
33	33	6
87	87	8
29	29	9
38	38	10
24	24	8
113	113	6
36	39	6
41	41	2
36	37	1
60	70	2
109	110	4
19	23	3
86	89	3
77	78	4
58	59	3
108	108	11
111	112	8
66	67	15
57	58	3
107	107	6
94	95	1
91	92	3
36	36	3
82	83	3
95	95	4
63	65	7
61	63	3
74	77	2
85	94	3
34	34	2
38	39	3
65	69	1
58	61	1
79	80	2
26	27	3
23	23	3
32	33	4
99	100	2
35	35	2
73	73	5
96	98	1
34	70	1
58	62	4
96	101	3
48	48	5
28	28	6
46	46	3
38	59	2
99	101	1
33	35	4
112	113	1
21	21	3
82	84	3
71	71	3
85	98	1
51	51	1
61	64	4
78	79	1
65	71	2
22	26	1
82	96	1
104	104	6
34	35	4
27	27	4
107	108	2
64	70	2
85	86	2
37	61	4
92	108	1
64	65	2
73	74	1
70	76	1
52	52	2
106	107	3
44	45	1
70	73	1
65	70	1
100	103	1
75	76	2
91	93	7
69	102	1
62	65	2
51	60	1
81	84	1
87	90	1
50	60	1
84	89	1
83	85	1
84	85	1
26	26	2
86	87	1
71	72	2
90	91	2
64	69	1
81	82	1
83	93	1
79	79	3
54	59	1
32	35	1
69	70	2
101	103	2
70	71	1
45	60	3
65	68	2
109	109	1
89	94	1
37	39	1
40	41	2
67	96	2
26	80	1
41	42	1
29	34	1
75	75	1
74	76	1
45	46	1
108	110	1
43	44	1
62	71	1
90	95	1
110	112	1
67	68	1
67	102	1
73	75	1
87	91	1
