107	107	1
20	20	4
103	103	1
71	72	7
22	22	6
72	72	8
32	32	2
94	114	5
33	35	2
1	1	11
16	85	2
141	141	14
69	121	4
87	87	5
131	132	2
90	90	4
127	127	14
98	98	5
26	28	2
133	140	4
132	132	7
47	47	5
37	37	6
68	68	21
50	67	3
106	127	1
49	50	3
51	65	4
25	25	4
117	122	1
12	12	3
2	20	3
90	129	2
0	15	2
102	102	6
8	8	14
74	74	5
6	6	6
142	142	6
64	65	3
47	48	3
66	68	4
63	89	3
99	124	2
126	128	6
126	126	5
97	97	7
124	124	7
116	116	8
137	137	6
134	134	8
4	35	3
9	9	7
29	29	2
5	5	1
78	78	4
109	110	3
80	80	6
13	14	2
65	71	3
42	42	2
119	119	7
20	21	3
89	89	2
30	30	6
66	66	6
140	140	5
34	34	2
128	130	2
56	56	5
106	106	7
11	11	5
13	112	3
138	138	3
38	67	4
41	41	4
123	126	3
65	70	2
15	18	4
129	129	2
5	35	3
144	144	7
67	71	3
62	83	4
84	84	4
18	19	6
92	97	1
76	76	7
115	115	6
19	19	11
63	63	5
62	62	8
79	79	1
113	114	3
4	4	3
57	58	6
57	57	4
61	63	2
117	120	2
81	88	2
92	92	1
93	95	4
60	76	5
133	133	4
51	52	4
69	70	1
75	75	7
139	139	7
123	123	7
88	88	9
105	134	2
4	47	3
14	53	4
15	15	8
17	17	8
135	135	5
139	140	5
1	5	3
62	63	3
51	51	2
126	127	1
96	104	2
55	55	6
27	146	1
39	39	3
94	94	4
14	16	1
77	77	3
73	73	2
59	83	2
77	78	4
48	143	2
96	96	4
133	134	5
23	23	5
83	83	1
114	114	3
117	117	3
16	16	6
5	25	3
58	59	4
37	115	3
65	87	1
38	38	4
13	13	2
140	141	2
75	76	1
73	79	2
2	14	1
133	137	5
113	116	4
131	131	3
2	17	4
5	6	1
31	31	3
65	65	5
21	21	4
132	133	3
10	10	4
95	95	5
108	111	2
4	43	6
99	104	5
20	53	2
111	111	6
42	48	4
79	80	2
6	43	1
64	64	2
53	54	3
83	85	3
138	140	2
1	8	3
55	56	2
128	129	3
24	24	1
112	112	1
54	54	2
23	24	1
118	118	1
128	128	2
136	136	4
61	61	3
100	100	4
125	126	2
120	120	5
2	4	2
103	113	1
121	121	2
34	35	2
108	108	3
14	26	3
0	37	1
86	89	1
125	125	5
27	27	5
126	129	2
82	82	5
16	23	2
145	145	3
123	142	1
142	143	2
49	49	4
105	105	4
3	3	1
127	134	2
70	70	2
30	31	1
102	125	1
102	112	1
33	33	1
112	118	1
99	99	3
10	100	1
84	85	1
130	130	3
137	138	9
134	140	1
64	91	1
6	32	2
134	135	2
136	137	3
99	100	2
66	67	1
133	139	2
86	86	1
93	97	3
104	134	2
73	81	2
116	117	3
67	67	2
67	68	3
8	61	2
135	137	1
56	94	2
101	101	5
8	9	1
69	69	1
123	124	1
85	85	2
131	135	2
122	122	1
100	101	4
97	98	1
0	0	2
143	143	2
2	2	1
34	36	1
129	130	4
107	109	2
58	60	2
120	124	2
50	70	1
96	97	3
74	79	1
28	28	1
0	6	1
19	67	1
68	71	1
0	1	1
31	32	3
145	146	1
20	30	1
93	93	1
122	123	2
35	36	2
58	58	1
64	81	1
21	25	2
49	67	1
40	42	1
119	122	1
14	14	1
72	75	1
16	24	2
3	4	1
49	65	2
90	91	3
13	97	1
50	51	1
28	30	1
131	136	1
65	66	1
52	53	1
52	52	1
91	91	1
19	22	1
114	118	1
52	87	1
6	34	1
36	36	1
57	106	1
104	104	1
35	35	1
109	111	1
28	29	1
113	113	1
