73	73	11
91	91	6
112	112	11
78	79	6
168	169	5
10	11	17
130	146	1
47	47	4
110	111	4
51	51	10
0	14	1
84	84	6
34	34	19
125	126	3
137	137	11
148	150	8
54	54	4
162	163	4
123	123	7
170	170	7
74	100	2
143	144	3
130	153	2
139	141	2
126	127	1
81	82	2
72	72	8
55	55	12
48	48	11
86	87	10
18	19	10
8	9	6
147	147	13
56	56	13
41	44	2
88	134	3
169	170	4
33	33	12
40	40	9
154	155	1
140	142	9
78	78	9
5	5	18
21	22	8
41	41	11
43	43	17
129	153	1
125	125	8
160	160	10
47	130	2
74	74	6
152	152	10
156	156	14
1	1	16
53	53	15
116	116	12
57	57	1
88	88	9
46	46	5
45	45	18
15	85	1
87	87	2
81	81	7
52	70	5
9	9	12
151	151	6
74	102	1
35	35	5
21	24	4
143	169	2
14	22	2
44	44	15
14	14	16
2	2	26
25	64	1
144	144	5
1	8	2
12	53	4
50	50	10
6	10	1
116	130	9
5	21	2
90	136	4
157	165	2
52	52	12
46	72	1
16	27	5
44	56	4
160	166	2
9	10	4
153	154	2
5	85	4
112	127	6
161	162	7
150	151	12
34	35	5
18	18	9
133	133	3
132	146	3
71	71	9
13	13	11
110	110	11
86	86	5
142	142	9
112	113	1
151	152	2
39	40	16
10	119	2
42	43	3
163	165	5
84	85	2
126	126	6
113	113	9
4	4	12
38	40	5
109	110	4
99	99	10
37	37	5
56	57	7
68	68	4
27	117	4
100	101	1
23	24	8
90	144	4
134	134	22
107	122	3
156	169	4
15	21	7
155	156	9
137	139	6
77	104	3
77	78	6
135	136	5
3	3	18
115	116	4
76	76	6
74	75	4
100	102	1
124	125	5
152	153	2
72	73	4
97	99	8
90	93	3
114	114	6
26	74	1
42	56	5
10	74	2
42	42	25
147	148	3
38	38	3
98	98	3
91	93	6
96	120	6
135	135	12
48	49	8
91	142	1
120	120	6
58	62	1
24	24	7
36	37	2
90	91	3
153	159	1
19	19	5
24	46	10
111	111	11
96	97	2
20	20	2
132	132	6
36	64	1
71	72	4
145	145	17
139	139	9
27	27	8
0	0	5
128	129	8
153	170	1
148	148	7
133	135	1
26	117	4
44	48	5
48	58	2
156	168	2
165	165	11
39	39	7
45	73	9
89	93	3
92	92	12
43	44	1
119	121	1
137	144	3
51	52	4
10	10	11
151	170	4
44	70	1
119	120	5
16	17	1
25	25	7
75	75	5
134	148	2
5	6	4
96	124	5
75	76	2
90	90	5
7	85	2
150	150	4
103	104	1
119	119	15
53	64	2
132	148	4
100	105	4
92	94	6
24	116	5
20	21	1
49	49	7
19	24	2
118	118	6
4	5	14
149	150	5
62	62	5
37	38	4
80	82	4
112	114	1
10	56	3
2	73	6
42	44	2
141	141	2
44	62	1
46	73	1
51	138	1
26	26	4
76	77	1
47	62	1
164	164	5
50	69	1
40	45	1
154	154	5
88	97	2
52	135	2
155	155	7
100	106	1
105	105	8
98	99	3
1	15	2
41	46	2
127	127	8
22	22	6
46	47	1
129	129	3
8	14	2
21	21	12
25	35	3
38	46	5
131	152	5
20	24	3
115	117	1
24	71	3
64	64	9
136	136	7
28	28	4
160	169	2
109	114	1
80	81	3
124	124	5
23	23	6
123	144	1
52	128	2
123	124	3
134	135	6
155	166	2
62	63	4
101	103	1
15	15	9
45	46	2
88	89	2
167	167	10
1	2	4
7	20	2
17	17	16
86	97	2
149	151	1
161	163	2
146	146	7
87	89	4
21	23	2
17	36	2
128	128	6
138	138	4
24	25	2
123	145	3
115	115	4
158	158	5
159	159	9
20	22	2
25	37	5
53	54	4
45	62	3
2	75	1
12	24	2
54	55	2
39	41	2
86	96	2
53	70	4
143	143	8
38	52	3
131	131	6
53	55	2
92	93	2
111	112	7
22	24	2
142	154	1
66	66	8
11	18	3
108	108	5
9	18	1
101	102	7
148	151	1
33	34	5
143	154	4
15	26	3
6	6	2
43	56	2
160	162	4
50	51	6
161	164	1
102	102	2
14	15	8
44	45	6
22	88	1
70	71	4
166	166	4
114	116	2
140	140	1
48	67	1
93	93	4
6	7	1
130	130	3
16	18	3
153	153	7
74	105	7
115	131	1
11	12	5
157	157	3
19	20	5
35	111	1
26	27	2
18	47	5
133	134	4
50	62	1
141	144	1
104	104	2
4	47	2
132	133	2
145	148	1
169	169	5
164	165	3
69	70	3
94	94	2
38	41	2
55	56	1
85	85	9
33	56	2
56	111	1
140	141	1
130	133	2
11	15	5
124	147	2
47	57	1
109	116	4
80	80	3
100	100	1
7	7	4
80	83	5
89	124	3
23	114	2
57	63	2
126	133	7
2	149	1
121	122	3
57	62	2
121	121	2
37	52	1
48	63	2
137	142	5
168	168	2
11	11	7
25	44	2
66	67	4
48	64	2
103	103	4
90	138	2
2	3	3
155	162	2
126	128	2
157	158	1
4	6	2
11	16	1
13	15	2
1	7	2
1	116	1
113	130	1
79	79	2
138	169	1
161	161	2
20	87	1
129	167	1
82	82	6
57	75	1
44	47	1
160	161	7
150	152	1
149	149	6
97	97	3
44	65	1
89	89	4
116	118	1
79	109	1
5	86	1
94	95	2
83	120	2
131	132	2
37	64	1
106	107	1
129	151	1
97	123	1
117	117	2
96	96	3
8	8	1
155	161	3
108	134	1
65	67	1
52	53	3
6	44	1
36	49	2
77	77	2
75	121	2
12	12	4
156	165	2
56	58	1
156	162	3
123	125	1
47	48	2
16	16	3
82	83	1
57	115	1
166	167	1
89	125	2
36	36	2
142	143	2
2	13	2
38	39	2
2	10	1
36	42	2
107	112	2
168	170	3
108	109	2
40	44	1
151	153	3
65	65	1
138	139	2
15	20	1
1	6	1
9	147	2
155	165	1
39	50	1
26	35	1
34	37	2
45	70	1
4	13	2
154	159	1
153	167	2
97	98	1
109	109	1
129	159	1
40	41	1
50	63	1
38	50	1
100	104	1
50	57	1
139	140	1
130	150	1
65	66	2
98	107	1
64	65	1
138	156	1
63	67	1
111	135	1
150	158	2
24	56	1
163	163	2
117	118	3
54	69	1
99	100	1
7	76	1
159	166	1
12	14	2
24	97	3
41	42	1
112	120	1
155	169	1
83	83	1
49	57	1
56	73	1
6	25	1
69	69	1
121	147	1
161	167	1
45	47	1
8	10	1
38	51	1
79	80	1
