23	31	4
119	119	10
34	34	9
80	84	12
155	155	4
27	27	7
117	117	16
125	125	4
107	216	2
73	242	3
76	76	12
145	145	11
240	240	10
63	63	7
4	31	3
52	56	1
176	176	7
45	45	16
53	222	2
173	173	4
186	187	5
134	183	3
226	226	10
69	69	3
179	179	1
26	26	14
121	121	6
56	170	5
29	29	6
220	224	2
18	18	8
62	65	2
64	64	13
233	233	7
12	16	6
68	68	5
24	25	4
242	242	5
30	32	3
127	127	4
157	157	9
156	156	9
118	118	12
74	74	17
200	200	6
5	5	17
33	34	3
3	47	3
112	113	9
163	163	13
6	7	7
161	161	11
130	130	3
34	35	6
232	232	4
136	182	1
11	11	4
140	140	4
28	28	13
113	175	1
8	8	9
9	54	2
200	201	3
192	193	8
72	72	8
16	16	8
146	147	2
129	134	4
147	147	7
14	15	8
142	142	6
70	71	1
13	14	15
124	124	3
103	199	3
170	170	7
3	3	7
46	46	8
75	75	7
101	108	2
205	205	5
214	214	2
18	20	1
60	60	7
70	70	18
22	22	10
59	59	11
169	169	8
163	228	1
212	214	4
187	208	2
51	52	2
168	170	2
120	226	2
239	240	7
27	44	7
20	106	5
229	230	5
184	186	3
148	153	2
75	150	2
192	192	6
240	241	1
15	15	10
189	189	6
102	102	8
29	30	5
20	21	7
98	98	10
0	20	1
61	61	7
230	230	6
181	181	3
24	24	11
40	41	3
105	119	4
212	212	3
76	77	3
37	38	5
85	85	11
11	12	4
106	106	5
231	231	9
55	131	2
113	114	4
100	100	6
193	193	2
237	237	8
216	216	6
194	196	7
28	29	1
219	219	8
168	168	2
56	56	12
138	138	10
197	197	3
104	105	1
80	80	9
129	131	9
3	7	1
32	47	3
2	17	1
64	67	3
81	82	14
211	213	6
108	108	8
2	4	3
153	153	8
2	11	2
25	25	9
193	199	5
48	48	7
17	17	15
79	79	3
54	55	3
174	174	9
213	213	2
190	190	7
129	132	1
162	162	1
122	122	3
195	195	6
9	10	6
71	71	11
150	151	6
78	78	6
220	222	2
114	114	7
204	236	6
20	38	2
36	36	13
104	104	6
88	88	7
50	53	3
72	73	1
144	144	4
125	168	3
136	137	3
141	146	2
86	86	8
53	54	2
160	160	1
15	21	1
221	221	3
49	49	5
116	118	2
12	12	4
17	23	4
73	234	4
188	188	4
162	170	2
227	227	1
138	139	6
236	236	8
117	218	2
136	136	5
99	100	1
77	83	1
194	194	4
177	179	3
24	61	1
223	223	1
14	14	2
203	203	8
122	181	2
17	195	1
44	45	10
99	99	4
210	228	1
175	175	4
11	29	2
125	167	2
81	81	3
135	135	11
30	30	9
71	72	2
47	47	3
146	146	6
229	229	9
54	54	10
217	218	1
203	219	2
57	57	4
42	215	3
49	223	4
241	241	3
235	235	7
169	170	1
7	7	2
185	185	4
171	183	2
148	150	4
206	206	2
41	213	1
154	155	4
210	210	9
23	30	4
32	32	8
4	23	3
234	237	3
212	213	2
103	103	4
209	209	4
181	182	5
239	239	2
66	86	1
30	31	3
3	17	4
81	150	3
224	224	4
126	167	5
128	128	9
222	222	6
202	202	3
175	208	1
164	164	6
225	225	3
135	163	1
16	21	3
105	108	1
140	142	6
144	145	1
40	40	4
146	155	2
196	198	2
140	151	3
51	53	7
20	20	4
49	50	5
170	171	1
66	68	2
9	9	7
211	212	2
2	69	2
125	127	2
64	65	2
57	58	7
97	97	7
78	82	6
184	185	5
192	199	2
55	55	2
217	217	2
201	224	1
230	231	2
135	139	1
208	208	3
67	67	4
201	201	2
172	180	2
165	228	4
39	39	3
218	218	3
163	229	2
58	58	1
83	83	1
123	123	3
192	230	3
136	185	2
2	2	3
107	108	2
50	50	6
198	198	3
31	31	6
10	225	1
163	164	3
137	137	4
142	143	2
180	180	6
199	200	4
124	168	1
171	171	8
138	143	3
139	152	1
10	55	1
122	169	5
12	23	1
136	171	2
0	0	2
128	164	3
220	221	2
199	224	4
104	124	3
104	194	1
52	52	5
163	230	1
42	43	6
214	220	4
104	108	1
128	132	1
66	66	1
197	201	3
167	167	1
77	80	2
105	105	2
78	79	4
199	199	3
73	86	1
80	83	1
50	51	1
151	151	4
120	142	3
225	226	3
10	10	6
51	88	2
7	13	1
193	194	1
161	165	2
152	162	1
129	137	3
143	143	1
51	220	3
159	159	2
21	23	2
140	163	3
196	196	7
148	151	4
152	152	1
148	149	1
149	149	1
0	3	4
223	224	1
158	158	9
107	107	3
52	220	2
17	33	2
38	38	8
33	33	6
30	35	1
178	178	2
204	204	1
11	21	1
48	97	3
158	170	2
199	220	4
145	161	1
187	228	1
125	185	2
114	117	1
21	21	6
228	228	1
0	7	3
186	227	2
10	63	1
70	238	2
65	65	5
196	219	2
18	23	2
10	201	2
6	6	4
141	142	4
66	67	3
116	123	2
135	165	1
145	148	4
123	162	1
232	234	2
27	45	2
130	133	1
33	37	3
125	186	1
112	209	6
120	143	2
116	117	1
178	202	2
151	152	2
174	175	1
138	140	2
166	172	2
54	64	1
12	15	2
129	129	4
55	223	2
164	230	1
11	18	4
4	4	5
141	177	2
143	227	2
89	119	4
115	115	2
41	41	6
82	82	3
158	165	3
131	134	2
17	21	1
139	143	3
19	19	4
3	11	2
73	198	2
180	183	4
173	225	1
10	33	3
175	178	1
88	89	2
59	60	1
143	177	1
25	109	1
3	4	1
60	80	1
10	24	3
138	179	2
190	191	2
98	176	2
134	163	1
139	139	3
183	183	3
175	217	4
75	173	1
195	196	2
53	56	1
78	84	2
112	112	3
150	152	1
10	30	1
204	211	1
69	88	2
126	130	1
158	162	2
76	82	1
10	27	1
18	19	3
42	42	1
195	197	2
102	226	2
148	148	2
12	21	3
215	216	3
47	96	2
238	238	1
69	101	3
82	83	1
171	216	1
221	222	1
10	20	2
91	126	1
20	24	2
172	172	2
133	134	1
215	215	1
116	119	1
53	53	4
180	217	1
181	183	1
23	23	4
189	190	1
16	31	1
98	100	3
176	184	2
79	80	1
131	132	2
141	227	2
31	33	2
179	191	1
99	101	2
174	217	2
37	37	3
210	211	2
44	44	3
144	236	2
191	219	2
51	51	1
76	84	4
28	48	1
168	171	1
84	84	1
33	35	2
75	78	2
104	200	2
101	101	4
133	133	1
35	41	2
4	35	3
4	6	2
112	202	2
201	219	1
164	165	1
43	43	2
214	215	1
113	115	1
224	225	2
172	173	1
136	180	1
42	216	2
209	213	2
21	22	2
152	156	2
16	18	1
114	116	1
120	128	1
56	169	3
52	221	2
19	21	1
53	221	1
165	165	3
73	73	3
139	142	1
7	33	1
18	31	1
176	189	1
185	231	1
159	195	1
85	234	3
7	9	2
5	6	2
46	47	1
211	211	2
20	22	1
0	32	1
141	141	1
6	17	1
6	30	1
52	219	1
157	160	1
121	122	1
13	13	2
89	89	1
77	77	1
13	34	2
146	161	1
57	170	1
184	211	1
59	75	1
146	165	1
85	102	1
60	219	1
19	106	1
3	32	1
62	62	1
102	128	1
205	234	1
149	153	1
209	210	1
184	184	1
51	89	1
60	213	1
128	167	1
222	223	1
116	116	1
3	6	1
102	196	1
157	158	1
213	214	1
19	58	1
193	196	1
1	1	1
182	182	1
134	134	1
