107	107	6
1	1	7
61	62	5
240	240	26
156	156	24
210	210	24
236	241	5
4	12	4
185	185	12
247	248	7
65	66	5
246	246	26
73	75	4
168	169	8
181	181	14
234	241	5
237	237	26
15	15	8
71	74	3
6	12	2
65	65	13
73	73	6
165	165	24
64	65	6
92	92	33
170	190	5
204	204	30
30	30	13
160	160	19
193	194	9
117	117	17
116	118	2
154	155	4
189	192	3
211	211	15
208	208	12
220	224	1
192	192	16
48	219	3
232	232	11
191	191	8
224	224	19
161	161	14
193	193	10
155	155	25
229	229	9
56	56	13
153	153	19
89	93	2
49	49	23
235	235	7
187	187	16
44	94	2
179	179	8
227	233	1
100	101	7
198	199	19
110	110	20
11	11	12
216	217	12
111	174	2
183	235	3
11	219	3
147	149	2
182	183	7
214	214	21
105	106	6
112	113	12
117	118	6
110	169	2
103	108	2
146	146	8
159	207	4
4	112	7
152	154	3
184	185	9
197	205	2
20	31	5
173	219	2
197	197	17
114	114	12
185	187	2
150	153	1
99	99	10
178	178	8
182	182	13
173	173	14
172	175	3
36	36	14
14	14	11
57	58	6
38	38	7
4	4	6
164	164	22
217	218	2
177	177	19
248	248	19
8	8	19
175	175	16
67	67	12
111	112	11
96	97	5
194	194	16
75	96	2
61	209	1
210	214	2
209	209	23
214	215	2
33	33	19
47	47	4
48	48	13
31	32	4
9	22	4
113	243	4
108	109	12
115	116	3
78	84	1
116	116	15
38	39	3
230	230	10
23	28	1
241	242	7
102	103	3
167	167	19
31	44	2
44	44	21
152	152	9
37	37	15
215	215	5
23	103	4
39	39	14
167	168	5
55	55	12
217	217	7
196	196	18
61	61	10
221	222	10
207	207	19
88	88	19
20	30	2
75	75	14
112	112	23
6	6	16
212	212	28
96	96	17
199	200	8
103	107	1
15	17	4
84	85	8
45	45	15
94	94	13
46	46	11
151	151	17
213	214	10
113	113	19
85	85	7
245	247	2
109	109	15
104	106	1
5	5	8
220	237	3
215	217	4
84	84	21
20	20	6
203	203	23
174	174	27
95	97	5
204	225	2
86	86	19
120	145	5
97	98	13
195	195	16
234	234	11
106	106	7
172	173	8
11	14	4
41	41	22
185	197	4
145	145	8
225	225	11
31	33	4
4	203	1
55	56	2
52	52	13
225	228	3
183	183	10
100	100	8
7	7	13
42	42	14
78	78	7
69	69	16
158	167	1
85	97	1
223	224	6
118	144	1
98	98	6
219	219	9
208	209	7
58	58	19
172	172	11
153	165	3
222	222	14
57	105	1
179	180	10
166	166	6
77	80	1
245	245	12
61	92	5
34	243	3
213	213	23
88	121	4
157	158	2
238	243	1
21	22	9
169	170	11
183	199	5
153	163	5
168	168	14
201	201	27
22	22	10
152	153	6
111	245	2
145	151	1
15	118	2
220	220	30
197	198	16
68	68	6
53	53	11
203	204	6
167	171	1
186	186	28
152	163	2
228	228	9
241	241	27
12	29	2
150	150	17
238	238	16
115	115	18
106	107	6
27	27	21
105	105	7
221	231	2
56	57	5
79	82	7
188	189	4
66	67	10
171	172	9
22	23	12
231	231	12
190	190	7
31	52	4
1	5	2
167	190	3
80	80	4
241	246	4
213	236	2
66	66	4
92	97	5
163	164	14
186	230	3
221	221	12
233	233	8
25	26	7
41	43	5
79	79	6
15	48	4
90	115	3
188	192	4
196	212	1
206	206	9
118	119	5
64	66	3
185	193	4
178	183	2
247	247	17
176	176	22
76	77	8
119	119	5
226	226	14
80	81	5
162	162	19
222	226	1
34	49	3
244	244	17
45	46	3
79	81	3
183	184	6
50	50	12
64	64	12
229	230	2
189	190	1
152	211	2
28	28	19
189	191	4
205	205	10
181	184	4
46	47	5
39	40	4
164	171	1
6	17	3
144	145	3
60	104	3
118	118	8
18	18	15
236	236	10
212	213	14
159	159	17
163	163	11
184	184	8
19	19	12
41	42	3
160	230	1
210	211	8
174	175	2
202	203	7
225	232	3
40	40	12
227	228	6
164	167	1
205	223	2
163	165	7
79	169	6
74	74	15
165	170	3
161	190	2
173	174	14
93	93	16
86	103	3
114	115	7
156	167	2
169	171	5
236	240	3
226	229	5
113	114	6
72	187	3
54	54	14
190	192	4
87	88	4
202	202	14
175	176	7
81	81	5
24	24	7
72	77	3
104	104	5
169	169	9
71	71	5
168	174	3
34	34	9
81	82	8
24	110	3
165	175	1
90	90	10
35	36	3
174	214	3
101	107	5
186	187	4
146	163	3
213	215	2
170	170	10
176	177	14
62	62	14
94	95	1
194	196	9
93	95	1
17	17	11
238	239	5
87	110	2
187	190	1
221	230	1
10	10	3
172	207	3
165	167	4
95	95	16
192	199	2
116	119	4
32	33	3
85	98	3
59	60	6
85	86	5
71	76	5
223	223	12
21	21	10
204	224	3
59	101	3
156	157	1
27	57	2
89	89	8
109	110	3
92	115	2
69	70	7
31	31	18
89	91	7
162	165	1
12	12	6
93	94	5
188	188	11
77	78	5
225	227	2
185	194	3
239	249	3
238	240	3
205	207	5
17	18	2
8	235	4
18	29	3
108	247	3
151	159	4
200	200	12
104	108	2
33	52	2
13	14	5
114	116	5
221	228	2
32	32	11
158	166	2
43	100	3
88	89	8
199	201	4
218	228	1
177	182	6
57	60	2
199	233	1
162	163	5
234	235	7
16	16	11
4	6	2
199	199	9
53	54	8
23	23	13
180	180	11
60	60	9
82	82	5
199	231	1
190	191	5
206	207	3
17	29	2
197	241	1
102	102	7
239	240	9
240	241	14
1	145	1
223	232	4
241	245	3
104	105	7
158	158	10
154	154	6
232	233	1
162	188	2
76	169	3
146	147	7
196	197	2
242	243	5
171	171	13
167	169	2
157	159	5
9	232	3
78	79	5
69	74	2
185	186	4
189	189	10
73	74	7
170	171	4
99	101	3
18	20	3
72	83	1
37	38	7
164	165	6
10	42	1
2	228	1
113	116	1
92	93	2
244	246	3
186	189	2
19	20	6
166	167	5
172	244	1
111	113	1
249	249	3
57	57	5
98	118	3
242	242	14
160	166	3
149	151	2
183	190	2
208	211	3
158	162	2
35	35	5
94	100	3
101	101	11
72	72	5
36	37	3
111	111	5
197	199	5
105	107	1
11	232	3
55	98	1
75	79	2
52	53	3
237	239	6
9	10	4
71	72	1
107	108	2
222	223	4
36	40	1
99	100	3
59	73	5
3	3	2
58	60	3
239	242	3
112	241	1
112	114	4
59	72	1
75	82	2
108	108	9
230	231	5
47	51	2
95	96	4
67	106	1
97	99	3
63	63	10
180	181	4
11	23	3
23	66	1
87	89	1
51	51	5
76	79	5
103	103	7
166	244	1
218	218	12
197	207	2
179	181	1
229	233	2
239	239	10
14	240	3
185	196	2
236	237	4
77	77	8
28	29	3
68	69	3
59	59	11
8	9	2
226	227	5
15	30	1
92	117	1
23	24	5
216	216	6
59	62	1
112	238	2
9	9	4
164	192	4
84	88	1
59	100	4
185	212	3
211	213	2
237	238	5
2	2	9
214	216	2
25	25	8
29	30	2
172	181	3
83	84	6
80	82	2
112	242	2
235	236	2
70	70	3
208	214	3
227	227	13
196	211	2
195	197	5
21	64	1
28	62	2
18	23	2
12	113	2
60	102	1
191	192	4
43	43	4
144	230	5
70	78	2
90	91	3
176	181	2
26	26	8
215	238	4
203	225	2
246	248	3
87	87	5
204	206	1
194	210	2
187	191	4
215	216	3
187	192	1
88	102	2
76	111	2
76	80	2
186	192	2
1	2	3
56	60	2
8	73	2
73	80	1
157	157	10
181	182	4
220	223	3
33	35	3
26	27	5
117	160	1
91	91	3
175	177	4
117	156	4
17	30	1
103	104	1
144	231	3
166	171	4
36	45	2
2	11	2
178	184	4
201	203	1
173	175	1
211	214	1
198	198	4
242	244	7
184	195	4
109	236	3
44	45	3
208	210	1
54	64	1
108	245	3
120	120	7
193	198	1
83	96	1
193	195	4
195	248	3
13	236	4
196	213	5
41	46	1
204	205	9
6	7	5
193	204	5
225	229	4
157	175	4
26	43	1
116	117	1
58	62	2
161	172	2
12	52	1
171	174	3
30	31	2
194	198	4
188	190	6
161	162	5
246	247	5
42	43	9
166	170	1
166	177	2
79	80	7
82	94	2
200	201	6
244	245	3
188	195	2
55	62	2
212	236	3
184	190	2
157	160	1
34	37	1
243	243	4
180	182	1
75	170	1
14	48	3
71	110	2
158	159	3
99	226	3
106	108	2
208	238	1
110	111	1
193	196	3
241	248	5
194	199	4
67	68	2
191	195	2
158	164	2
66	108	1
150	154	1
27	28	3
78	81	1
34	35	4
187	188	3
197	247	1
30	37	2
10	230	3
166	168	5
212	217	4
75	190	2
10	11	4
208	239	4
192	194	6
245	246	5
117	120	2
69	71	3
91	92	2
76	81	2
181	188	2
101	109	2
168	171	3
192	207	2
6	8	1
207	208	2
40	234	1
227	230	1
176	183	1
171	176	3
75	80	2
110	112	1
63	64	2
1	213	1
187	195	2
215	218	1
243	244	2
112	237	2
160	161	4
5	11	1
186	208	5
111	236	1
111	239	2
178	205	3
208	213	1
14	15	2
213	216	1
165	171	1
165	185	1
194	195	5
218	219	5
196	199	2
67	70	1
47	101	2
29	29	5
43	85	2
75	85	1
77	150	2
178	181	2
6	22	1
243	245	2
162	190	1
211	212	2
67	103	3
94	99	3
72	73	5
219	234	1
42	86	2
176	178	2
4	91	1
102	106	1
72	207	2
70	71	5
177	241	1
178	190	2
178	179	6
51	60	1
76	76	5
103	105	2
19	31	1
219	239	1
207	209	3
211	239	1
110	246	1
20	29	1
112	211	2
211	219	3
206	208	3
195	196	3
231	232	2
165	177	2
154	156	1
194	197	1
83	83	1
206	232	1
216	237	1
43	44	4
218	242	2
184	187	2
167	177	1
1	119	1
70	99	1
198	200	1
209	214	2
236	247	1
31	34	1
77	85	2
184	189	2
156	230	1
164	182	1
6	15	1
220	222	5
157	230	1
186	212	2
86	87	2
150	151	3
194	208	2
162	169	2
227	229	1
147	147	5
33	229	1
149	149	1
159	169	1
167	170	1
11	12	4
73	77	2
15	16	1
24	28	3
90	118	2
7	86	2
47	48	1
76	83	1
86	102	1
191	193	1
113	155	3
101	102	1
233	235	2
5	15	2
85	199	2
108	111	2
212	231	1
26	144	1
23	68	1
242	246	2
12	21	1
116	157	1
68	206	1
43	62	1
19	21	1
74	80	1
74	168	2
216	242	1
172	190	1
102	108	1
110	113	3
233	234	2
233	236	1
15	235	2
60	207	1
62	96	1
241	243	2
201	204	1
166	178	1
228	229	1
155	156	1
183	195	1
111	114	1
224	225	2
184	193	1
158	170	2
240	248	1
19	29	1
151	244	1
147	152	1
13	15	1
153	164	1
3	5	1
183	194	1
158	163	1
195	198	1
19	28	1
72	168	1
240	242	1
223	226	1
203	224	1
107	110	1
82	83	2
169	245	1
96	109	1
156	229	1
212	239	1
4	5	3
70	74	1
16	17	1
42	88	1
85	88	1
195	207	1
192	210	1
194	249	1
12	236	1
196	249	1
21	63	1
14	219	1
73	83	1
197	200	3
170	172	1
57	62	1
184	196	1
183	196	1
159	160	2
177	183	1
8	44	1
164	189	1
96	104	1
187	189	2
229	231	1
68	74	1
35	69	1
13	34	2
175	178	1
11	19	1
40	41	2
173	224	2
221	229	1
54	55	1
81	96	1
165	166	1
147	153	1
108	170	1
153	154	2
192	193	1
157	165	1
12	235	1
77	110	1
68	73	1
157	172	2
80	190	1
86	91	1
9	39	1
219	233	1
81	95	1
103	106	1
37	48	1
70	82	1
15	157	1
30	62	1
12	14	1
178	180	1
14	30	1
5	14	1
