95	95	5
119	148	3
98	98	9
34	34	8
69	69	12
154	154	6
73	77	1
104	104	20
12	40	7
84	84	7
108	109	3
131	131	5
158	167	1
42	42	10
134	134	13
36	36	6
54	55	2
44	45	2
127	127	3
71	71	11
141	141	8
18	18	2
26	26	18
151	160	1
51	51	6
49	69	3
40	46	2
44	44	4
83	85	3
80	80	7
6	6	4
115	115	4
61	63	1
17	17	7
56	56	5
88	89	2
91	92	2
74	74	3
2	8	2
36	38	4
21	23	1
92	92	6
92	106	2
76	79	5
109	109	2
99	100	2
46	47	1
149	149	2
46	46	8
149	150	2
33	33	3
99	99	6
21	22	4
2	2	7
12	12	3
153	156	4
91	143	2
152	152	2
47	47	8
139	142	3
100	101	3
125	125	6
0	0	6
3	3	11
38	38	5
45	45	8
79	80	5
7	7	3
90	94	11
126	127	3
160	160	11
109	111	3
4	4	11
144	145	7
70	70	10
37	76	2
160	161	6
37	37	3
128	128	4
43	43	4
165	166	1
114	115	1
122	125	4
11	11	4
73	73	7
145	145	4
90	91	8
96	97	1
19	61	5
91	100	1
161	161	4
109	110	1
8	38	4
69	70	3
116	116	4
123	123	4
38	39	4
18	47	1
14	14	7
54	54	8
95	96	2
146	152	2
77	78	3
77	77	7
89	89	7
10	10	8
16	17	1
47	48	3
25	25	7
130	166	2
73	76	1
16	16	5
48	49	4
50	50	6
104	105	4
36	42	4
144	144	4
65	65	4
75	76	4
16	46	3
1	1	9
158	158	4
5	5	4
160	162	1
159	159	4
121	122	4
5	6	2
2	18	3
38	77	3
121	146	1
82	83	1
17	78	4
10	11	3
153	153	5
8	8	3
91	93	3
23	23	3
24	34	3
15	15	8
103	104	3
161	163	3
102	104	4
148	148	11
116	117	3
44	46	5
18	19	4
4	5	2
70	76	1
14	15	4
162	162	4
138	139	1
121	121	1
64	64	1
38	51	2
35	42	6
12	168	1
3	9	3
81	81	9
99	158	2
45	46	3
21	21	1
103	103	2
137	137	5
20	22	1
57	62	1
119	144	4
6	7	6
11	41	1
170	170	3
79	79	3
73	131	2
75	89	2
112	112	10
39	83	1
113	113	7
97	98	4
92	93	1
19	19	6
8	45	1
114	114	3
146	146	5
24	100	2
156	160	5
64	65	3
72	94	1
62	62	3
98	99	2
40	40	1
35	35	6
81	149	2
11	12	3
130	164	1
44	74	2
135	135	6
49	52	3
28	28	1
105	105	2
19	89	6
122	132	3
93	93	6
89	90	1
13	50	3
138	138	3
20	21	2
101	102	1
111	118	1
25	26	1
137	138	1
75	75	7
1	19	1
4	51	1
97	97	8
152	153	2
122	123	4
100	100	3
79	95	1
18	44	2
110	110	8
9	47	2
51	52	1
50	77	2
72	72	5
101	103	7
13	57	1
7	27	3
8	9	4
47	49	2
166	166	2
40	44	1
62	76	1
90	132	1
97	131	1
130	130	2
4	151	4
50	51	1
19	63	1
167	167	3
19	22	3
120	121	1
74	75	1
122	144	1
76	84	1
100	102	1
48	48	3
86	86	2
107	107	2
83	84	3
81	117	1
132	132	3
50	52	1
106	106	6
15	26	1
111	111	2
143	144	1
118	118	4
122	126	2
55	57	1
65	66	3
148	159	3
106	113	3
168	169	1
12	13	3
124	124	3
11	14	1
67	67	3
3	4	2
137	148	1
24	37	3
85	85	2
0	1	2
70	75	1
4	12	2
105	106	2
33	35	3
108	108	2
93	122	1
103	154	1
14	40	2
53	53	1
35	43	3
49	49	2
41	41	3
45	62	3
126	126	1
91	91	2
55	55	3
3	20	1
77	97	4
77	106	1
96	96	3
71	104	4
164	165	1
111	112	2
143	143	1
24	24	7
119	121	2
3	5	2
9	9	4
35	36	1
73	97	1
37	38	2
18	20	1
22	22	1
46	50	1
153	154	1
76	76	2
11	151	2
109	150	1
8	10	1
58	71	1
40	41	2
53	55	1
2	160	1
62	63	2
46	49	2
18	24	1
162	163	4
137	145	2
139	139	1
19	21	2
86	98	2
113	114	1
92	94	1
159	160	3
129	129	2
106	107	4
107	108	1
90	90	1
150	150	1
63	85	1
20	23	2
27	27	1
3	7	1
3	167	2
162	164	1
133	133	4
42	43	1
87	87	1
9	62	2
161	166	1
6	19	1
71	115	1
35	37	1
102	102	1
1	3	1
147	147	3
130	131	1
71	73	1
56	82	1
108	110	1
58	86	1
124	127	1
89	99	1
125	149	1
117	117	1
84	85	1
18	36	1
169	170	2
151	151	1
36	41	1
76	85	1
22	38	1
67	73	1
10	17	1
