18	18	11
49	49	5
55	55	8
10	10	14
20	20	11
65	69	6
23	23	5
3	9	2
42	53	3
72	74	1
42	42	11
34	34	4
7	9	2
56	58	5
44	45	4
29	29	11
49	50	5
5	6	4
76	76	17
46	47	2
63	70	3
2	2	10
36	36	13
2	3	2
22	22	18
34	35	3
41	54	2
41	42	5
12	12	10
56	56	12
39	49	2
6	6	5
61	61	6
71	71	8
43	43	11
52	52	4
74	75	6
24	24	10
47	47	7
50	50	5
19	20	4
35	35	11
57	58	5
48	49	8
9	9	24
27	27	5
13	13	14
10	12	4
75	75	9
62	64	2
47	49	1
42	43	7
26	26	9
36	37	13
26	27	5
54	54	5
24	26	2
47	48	7
72	72	6
25	25	11
32	33	16
23	24	7
61	62	2
8	9	12
1	2	6
68	68	5
32	34	4
70	72	4
55	56	1
68	70	1
13	14	1
20	24	1
28	28	10
7	7	11
72	73	9
59	59	10
77	77	5
22	24	3
4	5	4
8	8	13
54	55	8
36	39	3
60	60	17
31	35	1
5	5	10
26	30	1
18	48	2
27	28	4
65	66	6
64	66	7
50	54	2
70	70	10
1	30	6
28	30	4
4	4	7
2	8	2
3	4	3
56	57	2
72	75	1
18	47	1
3	3	23
35	36	3
0	12	3
64	65	2
0	0	8
25	28	1
74	74	8
2	4	2
40	53	1
41	50	1
58	60	3
21	21	12
51	52	1
60	61	5
52	53	4
62	69	3
58	58	11
68	69	2
53	53	6
57	57	9
57	60	2
66	66	3
11	11	9
42	49	6
48	48	4
22	23	5
20	21	5
50	52	3
26	34	3
1	4	1
18	46	1
57	69	4
62	68	3
65	65	4
33	33	8
52	54	3
7	8	6
45	45	8
44	44	5
63	64	4
1	1	3
41	41	5
6	7	1
65	68	3
40	40	9
18	37	2
42	52	1
19	19	15
48	66	2
14	14	4
1	3	2
24	25	2
75	76	1
66	68	4
58	73	4
31	31	6
46	46	6
39	39	5
40	41	1
41	47	2
70	71	5
19	36	8
60	65	4
64	64	1
33	34	1
55	70	3
39	50	3
0	20	7
10	11	2
14	15	4
58	59	4
28	29	9
5	32	1
32	32	5
40	50	1
63	63	1
41	44	4
42	44	1
21	24	1
28	54	1
73	73	1
39	40	1
37	38	3
11	12	9
41	43	1
70	73	2
42	48	1
51	51	1
46	48	3
18	33	1
0	3	1
12	13	2
30	35	2
38	47	1
30	30	1
61	64	5
5	7	1
57	59	1
27	29	1
20	29	1
64	71	1
21	55	1
37	39	2
38	38	1
45	46	2
12	21	1
38	39	2
23	30	1
68	71	2
30	31	1
25	26	2
32	43	1
75	77	1
52	62	2
69	70	1
