50	50	23
30	32	2
61	61	3
48	48	9
35	35	21
52	52	18
53	53	12
45	56	1
59	59	8
11	11	11
31	31	13
32	32	18
17	18	10
47	48	3
34	34	31
35	36	2
37	39	3
57	57	26
62	62	17
12	13	5
9	12	3
39	40	3
9	9	3
40	40	14
33	35	3
31	34	3
40	55	4
44	45	7
1	4	4
50	51	4
12	14	3
49	49	15
57	60	3
3	3	6
33	33	9
51	51	18
46	47	9
10	16	4
37	38	7
38	39	1
8	8	7
49	52	2
5	6	3
6	25	6
25	25	8
42	42	12
32	36	4
7	7	5
51	52	9
40	41	10
2	2	8
13	13	7
30	60	3
43	43	28
10	10	4
60	61	7
3	5	2
33	34	4
38	38	6
31	57	2
55	55	18
60	60	7
6	7	6
44	46	5
48	49	5
61	62	4
42	59	2
6	6	8
50	52	7
39	39	9
30	30	20
45	47	4
37	37	24
36	39	3
46	46	19
36	36	13
14	15	2
45	45	10
32	48	5
30	40	2
12	12	3
37	40	3
30	44	4
56	57	6
45	49	2
44	44	17
32	33	5
54	54	8
31	62	5
1	2	4
4	9	3
9	10	1
24	24	11
51	56	2
45	55	4
38	40	6
21	23	2
14	14	2
55	56	3
0	0	6
47	47	11
36	37	1
43	44	7
2	4	4
42	43	3
16	16	6
55	59	1
45	52	1
23	24	3
41	41	12
44	62	4
7	29	1
21	21	12
53	57	6
54	55	3
9	11	1
18	18	12
53	54	3
19	19	3
12	16	2
22	22	3
31	32	6
36	62	2
24	25	1
31	61	4
1	1	4
32	57	3
58	58	4
56	59	1
18	26	1
57	61	1
53	55	5
57	58	2
3	34	1
29	29	5
36	60	1
4	4	2
57	59	4
56	56	13
15	17	1
5	33	1
30	35	1
5	5	2
23	23	4
38	59	1
40	42	2
58	59	3
49	53	1
20	20	6
45	59	8
44	60	2
40	59	1
36	48	1
52	54	2
17	17	4
10	12	2
42	60	1
43	57	3
30	31	4
16	17	1
54	61	2
49	51	5
0	1	1
59	60	2
15	15	1
16	20	1
45	46	3
58	60	1
56	61	2
45	48	1
25	30	2
30	59	1
33	49	1
5	34	1
36	40	1
14	16	2
34	35	1
6	29	2
24	42	1
49	50	1
34	52	1
30	62	1
1	62	3
56	58	1
52	53	1
51	61	1
38	41	2
11	13	1
36	57	1
41	58	1
22	29	1
10	11	1
30	49	1
8	37	1
6	8	3
30	61	2
44	47	2
42	44	1
32	42	1
41	44	1
30	50	1
36	47	1
55	57	2
30	37	1
51	53	1
