120	121	5
86	86	1
96	96	19
12	12	9
128	129	8
103	104	2
128	130	4
13	13	12
8	8	5
57	57	17
18	18	6
85	86	2
126	126	20
87	88	1
110	111	6
7	7	5
79	85	3
118	119	6
11	12	3
5	25	2
21	24	3
56	56	10
69	70	5
87	87	6
103	103	7
118	118	8
100	100	12
48	51	1
19	19	13
74	74	8
65	70	4
6	6	4
83	83	2
94	94	8
72	104	5
121	122	5
60	106	2
112	120	6
112	113	8
76	97	2
40	42	1
64	70	2
66	100	3
1	42	3
107	126	5
41	42	13
114	114	15
71	76	2
97	98	3
106	106	8
124	124	15
96	130	1
4	26	2
87	89	3
49	49	14
131	132	4
89	90	2
131	131	18
32	32	7
117	117	9
14	15	4
102	103	8
9	9	5
18	19	3
116	125	3
114	119	1
86	87	2
2	2	8
52	53	5
54	54	7
111	111	8
51	51	11
70	79	2
101	102	2
29	29	2
120	120	7
104	104	6
66	68	9
126	127	6
46	47	4
108	110	2
67	67	9
106	107	10
93	114	4
63	75	2
88	91	3
40	40	10
78	78	11
42	42	8
130	130	7
48	48	8
32	33	3
20	20	6
76	76	6
113	113	5
54	55	1
10	11	1
115	116	4
132	132	2
18	21	2
58	58	16
4	5	11
42	44	1
68	68	10
18	41	1
15	15	3
89	89	3
44	45	10
48	54	3
0	0	11
5	5	6
38	41	1
117	119	9
1	1	4
16	16	8
99	99	12
13	14	3
20	40	4
25	25	3
46	48	3
96	129	3
120	122	6
104	105	5
14	14	11
98	98	4
55	55	3
86	114	2
31	32	1
113	121	1
70	70	5
95	95	10
52	52	12
109	110	1
61	65	4
3	40	4
85	88	1
125	125	5
45	45	8
81	82	7
82	82	1
21	21	13
108	108	4
121	121	6
68	104	3
3	3	12
110	110	3
47	49	3
78	101	2
55	80	4
60	60	6
75	78	3
79	79	10
105	131	1
11	11	1
101	101	6
102	102	10
81	81	5
115	115	4
119	119	2
24	33	4
62	62	3
124	125	4
49	57	1
57	107	1
109	109	5
68	69	3
27	27	9
66	66	2
41	41	2
80	80	4
59	60	2
99	130	2
59	64	2
29	74	2
64	64	8
83	84	2
123	123	12
10	10	7
122	122	14
84	85	3
113	118	1
15	17	2
75	75	3
19	22	2
65	65	1
112	112	5
19	27	1
58	59	3
45	46	2
50	50	8
88	94	2
63	63	2
95	99	1
61	62	4
76	93	4
85	93	1
97	97	6
126	129	1
81	126	3
25	26	1
41	43	5
0	133	2
78	79	3
123	124	3
17	28	4
42	45	2
48	49	2
66	95	3
101	104	2
93	93	3
91	91	1
124	126	1
80	81	2
61	63	2
70	71	3
123	131	2
132	133	1
8	9	3
105	105	2
43	43	5
15	104	3
133	133	7
88	88	4
114	116	3
117	118	4
66	87	1
79	99	1
28	28	4
86	89	1
9	10	1
47	48	2
69	104	3
71	71	3
122	123	4
49	50	1
111	112	3
69	107	2
3	4	3
16	28	1
50	106	1
58	62	1
126	130	3
38	38	1
18	34	1
59	63	3
110	121	1
85	85	2
53	53	7
41	45	1
14	75	2
73	76	2
20	21	2
59	59	1
90	90	3
57	113	3
51	52	1
48	64	1
46	46	3
45	55	3
13	16	2
17	17	5
77	78	1
88	89	1
59	61	1
50	51	1
45	56	3
127	127	6
2	3	1
82	93	3
70	76	2
78	81	1
57	70	1
54	102	1
92	93	1
116	126	2
21	22	2
100	101	2
69	69	2
64	65	1
74	76	1
100	102	1
107	107	1
22	23	1
4	25	1
128	128	3
47	47	3
112	121	1
79	91	1
76	88	1
51	56	1
84	84	1
116	116	3
43	44	1
111	121	1
23	24	1
58	66	1
72	78	1
111	118	2
100	124	1
30	30	1
32	34	2
4	4	1
42	46	1
91	121	1
9	11	1
45	47	2
10	12	1
98	117	1
61	61	1
113	120	1
90	91	1
18	39	1
116	117	1
26	26	3
125	129	2
56	109	1
81	94	1
87	118	1
17	29	1
94	102	1
98	99	1
99	100	2
101	103	1
53	54	3
16	17	1
11	30	1
24	24	1
44	44	1
95	97	1
94	95	1
69	73	1
73	74	1
54	56	1
