129	129	19
0	1	4
123	123	7
154	159	3
111	111	4
85	86	6
73	73	2
151	151	8
149	149	6
140	141	3
15	37	1
36	37	1
180	181	2
133	157	2
0	0	7
126	126	10
53	54	2
135	135	2
106	106	16
58	63	3
55	55	6
140	140	2
33	33	4
103	110	2
160	161	2
133	161	2
19	19	4
116	116	7
20	20	2
22	22	4
87	87	2
175	175	3
73	75	2
148	176	2
112	112	4
88	89	4
124	126	5
66	79	4
113	113	19
96	100	7
17	19	4
147	148	5
94	94	6
24	24	9
82	104	12
171	172	2
130	130	4
128	128	9
22	61	2
164	165	10
13	13	2
21	22	1
68	68	4
79	79	9
1	2	2
152	153	4
138	138	5
125	125	2
15	15	7
9	16	2
186	187	1
146	146	3
56	83	2
176	176	6
12	12	2
154	155	7
173	173	9
19	20	5
60	76	4
11	30	2
162	163	6
142	170	1
15	16	2
56	81	1
57	58	3
16	36	1
85	85	6
22	45	2
40	40	8
171	175	2
105	105	6
26	26	3
163	164	4
66	67	1
83	84	3
81	81	5
41	42	3
113	142	2
165	165	2
45	45	7
148	151	2
82	83	8
47	48	7
26	27	2
62	63	3
81	94	2
83	83	4
64	64	2
99	102	2
148	149	1
184	184	1
102	103	5
86	88	1
33	34	1
115	116	4
90	93	1
152	152	3
16	16	7
107	108	1
78	79	2
6	6	8
57	57	13
3	3	6
58	58	4
84	84	4
45	46	4
74	74	6
44	45	1
17	17	2
56	57	2
150	152	1
36	36	3
31	31	7
102	102	2
90	90	3
161	161	4
29	30	3
67	68	2
130	132	6
3	4	1
153	153	3
154	165	1
142	142	3
100	101	1
183	183	2
98	98	4
34	35	1
76	76	7
23	25	6
163	163	1
56	56	7
143	143	3
106	109	2
23	23	3
118	123	2
71	71	4
110	110	6
133	133	2
38	38	11
5	36	3
139	139	4
48	48	6
30	47	2
109	110	2
42	42	1
2	2	7
149	150	4
71	123	3
122	122	5
63	67	4
167	167	4
18	19	2
72	72	3
129	164	1
64	65	4
28	36	5
148	148	2
55	81	1
4	4	4
169	170	4
118	120	1
1	1	3
30	48	3
158	158	1
5	5	5
44	44	4
123	125	2
102	140	6
16	20	2
81	82	2
43	43	1
118	119	1
103	103	3
115	142	3
130	155	1
92	92	4
144	171	3
138	139	1
127	129	1
13	14	1
186	186	2
21	28	3
115	119	2
8	8	7
39	42	1
106	107	2
99	99	2
59	59	1
114	134	3
130	131	5
144	156	2
119	120	3
103	104	1
129	130	4
70	70	5
47	47	2
141	141	2
82	82	2
187	187	2
35	35	5
147	147	1
75	75	2
54	81	2
101	101	1
34	36	5
182	183	3
87	99	1
85	113	2
166	166	1
160	160	1
16	38	2
2	6	1
37	37	6
30	31	2
23	24	8
27	73	1
7	8	2
174	175	1
90	101	2
92	94	3
8	17	2
97	97	2
133	134	6
159	160	1
88	98	1
108	108	3
83	91	2
134	137	1
168	168	3
114	114	3
68	70	1
44	46	1
162	162	7
153	159	1
124	128	2
55	106	2
135	166	1
8	16	1
172	173	3
41	41	3
171	171	4
153	154	1
115	117	2
105	108	4
89	116	1
116	126	1
39	39	1
25	25	2
121	122	2
86	86	2
91	94	2
131	132	4
100	100	2
174	189	2
60	62	1
118	121	3
91	91	3
43	44	3
95	96	1
40	77	2
121	121	3
174	174	1
19	42	2
31	33	1
32	32	1
59	76	1
104	104	3
22	72	1
128	129	1
77	78	2
88	88	2
131	146	2
10	10	1
113	114	2
17	18	1
33	37	1
80	81	1
14	14	2
86	106	3
95	183	1
154	154	2
89	89	2
111	112	1
125	126	4
46	48	1
78	78	4
158	163	3
169	169	2
65	65	1
109	109	3
66	66	2
137	138	1
46	70	1
44	76	2
137	168	2
99	100	4
55	86	2
127	127	1
34	34	1
6	7	1
128	155	3
156	159	1
136	137	1
156	157	2
155	162	1
15	17	1
28	35	2
107	107	2
130	135	3
12	14	1
77	77	1
141	170	1
40	42	1
20	40	1
145	146	1
109	122	1
31	44	1
177	177	1
32	48	1
155	157	1
54	54	1
87	88	1
14	15	1
53	53	1
67	77	1
150	165	2
18	27	1
80	80	1
131	145	1
148	177	1
13	15	1
58	76	1
23	73	1
162	168	1
