66	66	14
93	94	7
29	30	3
68	103	2
129	129	5
121	121	18
114	115	5
56	56	34
104	104	12
76	80	2
48	60	4
25	26	16
54	54	33
111	113	9
126	126	12
62	64	3
11	15	6
91	94	3
104	127	1
126	130	2
85	85	20
97	115	3
79	110	3
42	42	14
83	83	5
60	60	21
50	50	31
76	76	22
72	72	23
29	29	12
110	112	4
19	19	11
43	43	21
90	99	10
110	110	14
80	80	20
125	125	12
23	23	39
59	61	1
130	130	27
112	113	2
97	97	14
53	53	20
118	118	15
16	42	6
66	119	1
28	28	12
122	122	24
59	59	9
73	74	4
119	119	11
22	22	13
0	0	17
12	12	31
82	82	9
52	52	40
75	88	3
10	55	5
92	92	19
39	46	2
19	27	1
103	103	19
20	20	27
123	123	16
132	132	16
47	54	5
96	96	15
7	7	23
67	74	4
1	1	24
120	122	3
40	44	8
11	12	5
44	44	22
16	17	10
111	111	19
46	46	25
88	89	14
78	79	8
61	78	4
71	71	15
5	5	30
73	73	19
50	88	2
6	7	10
40	41	6
72	97	1
90	92	5
28	29	2
51	55	3
17	19	2
62	75	6
17	17	12
26	26	25
30	31	6
79	79	15
13	14	2
65	66	12
128	130	3
127	130	7
55	55	14
112	112	14
41	41	8
105	108	5
6	6	19
106	106	12
104	107	3
91	91	15
52	53	10
11	11	16
46	47	18
60	69	3
115	115	19
57	94	1
67	67	20
39	39	10
96	97	8
93	122	1
2	2	14
93	93	25
49	49	20
128	129	3
16	44	6
39	47	4
78	78	9
86	90	1
63	63	15
131	131	14
4	4	18
9	25	2
83	86	3
43	44	11
61	61	5
109	109	21
113	113	30
20	21	3
41	43	5
48	48	43
64	77	1
81	107	3
48	54	7
86	88	9
101	127	5
81	104	3
0	1	5
69	69	8
131	132	7
3	28	4
45	45	15
99	99	38
108	110	2
95	95	18
18	18	10
102	106	2
123	124	19
64	67	4
82	86	4
85	87	3
4	5	5
12	13	7
102	102	24
63	119	1
75	75	10
48	57	3
40	40	14
64	65	8
62	62	5
117	118	4
14	15	7
58	59	16
86	98	2
8	9	8
107	108	2
65	65	14
46	52	3
24	24	14
67	68	15
90	90	22
63	127	2
98	99	3
98	98	22
38	38	14
17	21	7
21	28	1
82	94	3
10	10	13
101	101	14
25	25	15
108	108	19
127	128	6
78	81	10
105	105	18
50	51	8
88	88	6
51	51	22
70	107	2
66	67	8
120	120	14
18	19	2
33	33	11
116	125	14
45	46	6
21	23	1
81	81	17
86	111	4
108	114	2
111	112	12
57	57	35
22	23	15
47	60	3
86	87	4
94	95	7
42	43	8
21	21	9
81	108	5
70	70	14
48	49	5
89	92	1
95	105	4
65	94	4
100	100	22
114	116	3
49	50	16
75	76	4
74	83	1
101	102	2
84	84	7
3	4	3
23	24	7
71	72	18
118	126	4
30	30	10
91	92	15
14	14	22
69	105	4
19	39	1
38	39	12
66	75	1
67	119	3
30	38	4
63	70	4
26	27	7
99	102	4
28	41	1
4	6	5
69	74	3
23	25	2
50	54	5
10	11	5
24	25	4
13	13	19
94	94	11
104	105	8
64	64	20
19	24	4
107	107	25
80	81	8
115	125	1
18	20	3
10	12	3
114	118	6
69	72	3
9	10	7
75	83	4
79	103	4
77	78	7
49	53	4
89	89	18
62	74	6
120	121	17
58	58	4
112	131	6
128	128	12
1	2	8
38	40	1
61	77	1
68	68	13
72	102	4
90	91	4
105	106	10
45	47	12
62	80	1
101	103	3
97	98	9
109	110	3
58	62	11
89	90	4
114	119	1
46	48	2
72	85	4
32	32	14
73	99	2
27	27	8
42	55	7
0	4	1
16	27	3
4	7	3
65	75	3
3	3	9
38	42	1
19	87	3
13	23	3
31	32	11
72	73	1
14	24	2
39	41	2
82	95	3
88	98	5
103	108	3
84	87	6
16	16	11
126	127	9
20	26	1
59	75	1
48	52	3
69	71	5
115	118	1
17	24	3
124	124	13
9	9	8
79	80	3
127	127	13
125	126	13
41	42	6
17	34	2
80	96	2
126	128	6
111	133	2
12	57	2
130	131	3
71	75	3
60	61	4
46	64	1
94	122	6
87	88	4
58	63	4
114	114	20
34	34	9
8	25	6
133	133	8
118	120	7
47	48	10
114	127	2
113	114	7
51	110	1
40	45	4
116	116	17
75	84	3
18	21	5
32	34	2
13	58	2
42	44	7
102	128	3
61	80	1
52	54	4
47	47	22
15	15	8
15	22	1
79	107	3
14	44	1
1	8	4
63	74	2
51	52	4
19	20	3
72	75	4
115	116	2
113	132	2
64	76	8
79	87	1
102	127	1
15	16	2
124	125	6
15	29	2
103	128	2
44	45	2
62	72	2
83	84	6
16	41	7
77	79	3
96	113	2
124	128	1
64	69	1
33	55	1
39	45	4
82	85	2
19	22	2
76	77	1
26	32	1
41	45	2
100	101	11
81	82	6
47	52	4
24	29	4
115	127	3
82	84	1
68	101	2
118	119	7
58	61	5
16	43	2
11	44	5
49	104	3
49	54	3
96	128	2
3	8	1
102	103	9
75	77	3
46	59	2
96	115	6
97	113	1
9	11	2
81	98	2
97	129	1
85	88	1
6	68	3
69	76	1
110	111	6
103	104	5
43	45	4
117	117	4
74	75	1
124	126	2
71	88	1
109	114	2
74	74	3
3	7	1
97	114	2
55	56	5
16	34	1
102	104	2
27	28	2
86	86	5
52	57	2
59	78	2
38	45	6
70	71	6
12	15	2
33	34	1
62	63	2
107	115	1
88	90	1
33	41	2
67	127	1
129	130	6
74	77	2
58	80	2
77	87	1
63	67	1
103	127	1
69	113	1
101	118	1
44	61	1
33	48	3
88	110	2
15	26	1
17	18	5
108	111	1
40	42	5
115	131	2
132	133	3
87	87	10
71	74	1
99	100	5
66	69	3
85	96	1
79	81	2
119	127	1
106	107	6
70	103	1
32	33	1
65	68	3
127	129	7
84	85	6
98	113	2
98	128	3
84	86	2
42	93	2
42	45	2
19	21	6
82	106	2
55	62	1
16	29	1
12	62	1
78	106	4
77	77	9
18	41	1
60	64	2
80	108	2
8	8	2
114	126	2
16	45	2
95	96	1
80	82	2
121	122	5
57	58	4
81	85	1
53	54	2
29	39	2
68	119	6
111	114	2
92	99	2
61	63	3
3	6	2
59	62	3
122	124	2
107	114	1
50	52	1
83	88	1
72	100	4
17	33	2
91	93	4
38	44	1
16	40	1
90	98	1
117	125	6
29	31	1
112	118	1
82	99	3
45	95	1
8	31	2
117	126	1
59	65	1
30	42	3
97	128	3
104	130	1
89	91	1
94	96	4
71	131	1
17	42	1
116	123	1
47	56	2
82	83	2
0	8	1
49	52	3
19	23	1
69	70	1
77	84	1
80	99	1
59	77	1
27	29	2
113	118	2
13	15	1
28	30	1
88	133	2
17	29	2
60	80	4
2	7	4
46	77	1
30	43	2
30	34	5
106	108	1
104	115	5
13	61	1
59	60	3
18	23	3
98	115	1
11	14	1
67	69	2
118	125	2
65	118	3
71	89	3
109	115	1
12	58	1
116	117	2
58	74	1
47	111	1
31	45	1
21	26	1
58	64	1
2	3	6
68	74	1
44	55	1
92	95	2
119	126	2
106	117	1
70	87	1
31	31	2
99	101	1
3	44	3
56	57	2
120	125	1
46	58	1
115	129	2
66	68	2
92	94	1
13	55	3
78	82	2
109	131	2
61	65	1
52	63	1
39	40	3
58	69	1
97	112	1
68	69	3
5	7	2
63	65	1
21	41	1
14	28	3
56	92	2
109	111	4
73	75	1
31	43	2
63	66	1
14	17	3
10	56	1
58	60	1
63	106	2
63	64	1
34	83	2
16	24	1
49	88	2
122	123	2
33	87	1
15	61	2
57	72	1
77	80	2
109	113	2
65	117	1
114	117	1
18	24	1
74	101	3
45	63	1
113	130	2
4	20	1
5	6	1
101	119	1
112	133	1
67	103	1
62	65	4
80	85	2
46	57	1
22	24	1
92	93	1
68	73	1
115	130	1
17	23	1
86	113	2
74	80	1
68	70	1
114	129	1
28	31	1
65	69	1
104	128	2
126	129	1
76	78	2
7	8	2
9	56	1
5	30	2
15	40	2
21	22	1
71	132	1
99	103	1
62	77	1
61	62	1
45	53	1
108	109	1
104	129	1
11	61	1
102	108	2
87	105	1
110	130	1
76	81	1
62	78	1
109	132	1
122	125	1
96	131	1
21	24	1
113	129	1
96	105	1
14	30	1
73	101	1
70	72	1
73	100	1
