137	137	13
4	4	3
96	96	3
16	20	4
151	156	1
22	22	1
129	129	8
83	86	5
141	142	2
19	19	2
94	94	6
83	85	3
23	23	12
125	125	2
108	108	4
65	65	4
14	14	5
46	46	7
110	113	2
112	113	6
158	158	11
0	0	7
103	103	3
131	131	1
18	18	8
142	142	7
106	106	6
54	55	2
84	84	4
103	104	2
87	87	4
24	24	18
105	105	5
138	138	6
5	5	8
41	41	4
102	110	6
0	4	3
69	69	7
27	51	4
132	132	5
99	99	8
26	26	1
73	73	6
123	123	6
86	86	4
132	137	3
140	141	4
140	142	9
3	3	4
8	30	1
13	13	1
117	117	11
71	71	1
31	31	8
28	29	1
90	91	2
78	84	3
82	82	6
115	115	7
108	109	2
140	140	4
150	150	11
98	98	7
27	28	3
9	9	2
107	107	16
53	53	3
40	40	10
15	15	5
13	15	1
2	2	5
55	68	1
125	133	1
83	83	1
29	29	7
11	11	3
1	1	10
123	124	2
159	159	3
51	51	9
1	2	2
42	48	2
139	139	3
47	47	8
30	30	10
36	36	1
75	75	10
110	112	5
84	91	1
42	43	1
45	46	1
43	46	1
67	67	5
45	47	3
104	108	4
73	74	5
90	97	3
155	157	1
29	45	3
44	45	4
61	61	1
48	48	6
16	21	4
10	11	2
134	143	7
109	109	3
88	88	2
90	90	3
10	32	1
101	129	2
128	128	1
80	80	2
118	122	1
34	34	5
93	93	5
136	136	3
85	85	2
121	139	4
67	68	5
157	159	1
122	122	5
153	153	2
18	20	2
56	71	1
19	20	3
77	78	5
48	49	2
56	56	1
43	43	3
119	119	4
87	111	3
119	121	1
95	96	3
8	11	1
130	131	6
101	101	3
152	153	4
70	70	11
100	100	9
137	147	3
12	12	1
87	107	3
147	154	3
135	135	1
143	143	3
35	35	8
91	91	5
73	80	4
1	5	1
151	151	4
124	124	2
110	111	1
114	114	5
156	156	2
123	142	5
6	6	6
38	38	3
10	10	4
44	47	1
25	26	2
145	146	1
126	126	10
77	77	1
139	141	4
79	81	1
119	120	3
146	146	4
132	139	2
148	148	2
12	28	2
84	85	4
148	149	1
21	21	5
28	28	5
120	120	4
158	159	2
103	106	1
112	112	2
35	37	2
152	156	1
144	144	1
72	72	3
141	141	2
28	46	3
8	8	4
147	155	1
45	45	1
26	27	2
109	110	1
11	22	2
50	50	2
33	33	2
25	25	3
37	38	2
50	51	3
77	80	2
92	92	1
49	49	6
97	97	3
7	8	4
12	14	2
112	145	3
17	17	5
118	118	4
86	87	1
155	155	2
155	156	3
144	145	5
51	52	2
125	126	2
23	34	2
76	77	1
33	34	1
99	100	1
91	100	2
103	105	1
50	52	1
20	20	3
127	133	1
48	55	1
85	86	1
83	84	2
63	67	1
150	151	2
128	130	2
154	155	2
29	43	1
123	147	2
14	15	1
55	55	3
48	52	1
23	24	1
113	113	2
62	63	2
104	104	1
65	66	2
117	123	3
147	148	2
134	139	1
78	78	2
107	144	1
118	121	1
92	93	2
94	111	2
127	127	4
2	24	2
119	135	3
94	95	1
7	7	3
50	53	1
39	39	1
32	124	2
69	70	3
130	130	2
116	116	2
102	150	1
135	136	1
8	9	1
16	16	2
57	57	1
115	116	1
44	44	2
27	27	1
122	123	2
28	127	1
4	5	1
123	125	2
156	157	2
35	36	1
42	42	1
127	135	2
97	98	1
72	73	1
125	136	1
116	117	1
96	97	1
21	22	1
3	4	1
9	10	3
124	126	1
131	132	1
128	129	3
151	157	1
135	147	1
81	81	2
154	154	1
101	106	1
151	158	2
109	146	1
63	68	1
66	98	1
81	82	1
153	154	2
122	143	1
95	95	3
102	111	1
121	144	1
146	147	2
32	32	1
46	47	1
111	112	1
95	97	1
104	127	1
118	120	1
37	42	1
124	135	1
