28	29	3
237	237	11
220	221	6
163	163	12
174	215	4
177	178	4
8	8	22
184	185	3
172	173	5
176	176	17
30	49	4
164	164	15
159	159	16
96	96	30
238	245	2
75	84	2
160	194	6
193	193	14
195	196	6
86	91	1
175	176	8
28	28	21
155	156	4
97	101	4
19	19	11
110	111	4
162	164	2
65	110	3
197	197	19
213	214	4
65	65	32
11	11	13
8	43	2
4	112	7
77	77	5
102	107	1
197	248	4
214	215	11
80	80	9
165	248	2
85	109	2
9	10	2
185	185	45
94	94	19
146	152	3
7	7	24
202	202	13
194	194	9
209	214	2
54	55	15
144	145	6
245	245	11
151	151	36
100	100	15
157	157	15
35	40	7
82	82	1
183	244	11
54	54	13
59	62	2
246	246	9
229	229	12
162	240	4
107	107	12
49	50	8
39	39	17
175	215	2
42	109	5
49	49	11
25	112	2
211	211	9
118	119	6
61	61	9
158	158	15
114	114	8
78	78	18
205	205	28
94	95	5
193	195	6
153	153	10
15	15	10
52	53	7
164	166	2
9	9	6
78	79	3
43	95	2
209	209	40
15	53	1
156	201	4
46	46	14
32	32	16
200	200	6
223	223	16
182	182	6
210	210	5
155	155	25
109	109	24
62	62	21
121	121	5
199	200	19
193	230	2
88	88	8
191	195	2
194	205	4
184	244	1
118	118	7
194	195	2
219	219	16
87	87	12
218	218	12
204	236	4
31	31	15
52	55	5
108	109	6
91	92	1
208	215	4
201	201	25
154	154	15
32	44	4
169	197	1
238	241	2
233	233	17
13	14	4
178	178	17
160	160	16
243	244	3
202	219	2
151	212	8
24	24	9
34	34	19
112	112	10
161	161	14
81	81	10
176	215	6
167	177	5
102	102	12
73	73	12
5	50	4
110	112	1
63	63	14
23	212	6
165	183	5
60	61	5
50	50	5
67	67	11
228	228	11
109	153	2
183	212	4
101	104	1
18	18	22
247	247	8
222	222	9
224	224	11
71	71	7
152	152	10
50	83	8
72	72	11
188	189	8
169	212	3
92	103	4
203	204	4
170	170	22
43	43	12
121	145	3
53	54	12
71	72	1
59	59	11
241	241	10
38	38	17
85	163	2
240	240	13
232	232	14
186	186	19
55	62	1
72	74	8
76	109	2
244	245	2
121	246	1
26	26	20
154	155	5
152	210	4
176	179	3
85	114	2
180	182	3
111	111	18
66	66	14
98	99	3
169	169	21
115	115	10
86	101	4
246	247	7
157	174	5
38	47	1
45	45	6
82	101	5
184	184	18
167	167	8
204	204	21
66	67	1
238	239	7
175	175	9
245	246	4
98	109	4
236	237	8
27	27	19
89	104	3
4	5	7
35	60	2
3	3	1
121	227	3
177	177	5
208	209	10
184	195	4
156	156	11
23	23	13
182	183	6
98	107	1
60	60	15
158	198	3
69	100	3
166	247	5
52	62	2
59	60	1
147	147	5
108	159	2
173	173	13
6	6	4
203	203	20
97	97	14
166	166	5
74	74	7
195	213	1
6	50	3
60	63	4
212	212	13
55	56	4
188	188	21
84	84	5
162	163	15
216	217	3
196	196	6
107	112	4
162	216	2
179	179	17
151	153	4
25	25	8
76	77	6
208	208	26
75	75	11
110	110	14
73	74	7
89	89	16
78	89	3
190	191	8
182	228	2
15	19	5
200	206	6
211	212	8
27	46	2
221	222	4
157	215	2
12	12	11
48	86	4
89	91	3
100	101	10
44	44	8
71	73	3
166	244	7
4	27	1
226	226	20
35	36	8
161	228	4
92	92	16
181	181	20
84	109	3
10	10	18
43	85	1
70	70	10
114	115	11
29	48	2
55	55	17
35	35	12
2	30	3
227	227	13
157	245	3
161	246	1
192	192	11
217	217	16
161	207	3
84	89	3
238	238	26
227	228	7
179	204	9
181	229	4
3	145	4
185	186	9
72	113	4
36	36	12
106	112	3
33	71	3
101	101	11
155	239	2
176	177	13
189	189	6
220	220	17
83	85	5
221	221	10
33	33	9
232	240	3
152	153	5
3	4	2
16	16	6
187	191	4
184	235	3
163	233	3
96	106	6
195	195	16
30	59	3
234	234	28
157	158	6
89	100	1
49	75	1
119	120	1
116	116	5
74	194	3
113	115	3
162	205	2
76	76	16
87	103	2
16	17	5
165	165	29
144	227	1
52	54	3
163	224	3
243	246	1
164	165	7
6	48	4
199	199	11
216	216	6
39	63	2
157	213	2
86	111	2
40	40	6
71	75	4
17	17	3
4	14	5
69	69	10
236	236	7
207	235	2
198	198	22
53	55	2
198	208	1
60	69	7
15	70	4
82	83	5
52	52	13
27	52	3
10	11	5
13	19	2
205	207	2
244	244	7
157	193	1
225	225	12
187	189	3
157	227	4
96	102	6
166	183	9
34	37	2
69	70	2
30	50	3
95	101	2
72	115	3
55	57	2
105	106	5
38	39	7
248	248	2
240	241	11
186	197	3
79	79	3
58	60	3
171	171	18
34	58	3
58	58	12
153	192	6
183	183	14
13	69	2
85	101	2
171	172	6
147	166	3
57	59	3
150	159	2
241	242	3
112	114	2
163	165	6
110	236	4
170	171	2
207	207	23
157	203	1
184	209	4
242	242	16
90	105	1
187	187	11
196	197	3
192	193	6
62	97	2
75	83	3
171	181	8
25	26	10
215	215	6
56	60	2
68	99	4
206	226	1
159	195	2
90	106	5
77	78	2
168	180	1
72	73	11
157	210	6
56	101	3
41	94	9
106	106	8
80	81	3
64	64	7
101	116	1
55	61	5
181	246	1
174	235	1
166	168	2
239	242	1
72	228	3
117	117	15
183	213	1
35	49	4
146	165	3
62	63	4
68	68	12
68	98	2
224	234	1
39	81	5
241	247	3
82	100	1
208	212	4
160	169	6
223	232	1
197	198	3
186	199	2
30	34	1
21	21	13
174	208	3
61	62	7
69	207	1
5	5	2
93	93	10
13	13	1
102	104	3
90	98	2
236	238	3
87	88	9
170	209	6
168	168	11
99	99	6
119	119	22
94	101	2
159	215	4
201	219	3
30	30	6
12	15	3
15	16	1
29	55	2
146	171	1
193	194	13
30	86	2
16	150	2
181	182	2
242	244	1
231	231	10
239	241	3
26	27	1
184	240	1
213	213	11
167	172	1
33	51	6
33	72	1
1	1	11
191	218	2
154	173	2
241	246	3
19	24	4
86	86	13
214	224	4
77	104	3
214	214	18
172	178	1
57	61	6
242	243	6
57	57	10
39	41	1
89	110	3
43	74	3
42	76	1
84	91	3
95	95	6
160	179	1
171	175	3
78	84	1
48	48	13
29	29	12
101	103	3
107	121	6
170	177	2
98	102	3
158	211	2
29	53	1
233	234	7
161	240	2
204	237	4
92	95	8
18	22	2
235	240	1
214	219	1
162	162	10
45	90	2
23	24	4
65	95	3
170	181	2
57	58	3
70	78	4
4	4	15
150	150	18
2	4	3
216	218	6
22	22	10
185	189	1
222	223	4
157	159	4
42	42	6
173	199	3
12	52	3
115	116	5
75	86	1
79	80	6
163	189	3
112	113	5
237	239	2
167	205	4
42	44	1
223	224	4
29	43	1
68	69	3
207	232	1
21	22	1
68	90	3
41	41	6
56	57	1
187	194	1
2	6	2
194	210	3
188	191	4
188	195	5
190	192	11
47	47	8
170	213	2
14	15	15
43	109	1
191	214	3
180	180	11
161	247	3
19	47	6
81	99	5
69	209	1
5	19	1
190	190	14
224	225	1
28	35	1
99	100	5
62	77	2
74	76	4
164	242	2
171	204	1
69	73	2
239	239	9
91	91	2
176	232	5
206	227	1
34	67	1
91	103	1
188	198	3
95	104	2
77	115	7
11	27	1
165	175	4
158	193	1
46	47	12
159	199	3
208	243	4
13	48	1
210	211	4
247	248	5
214	230	1
47	48	7
53	53	9
227	229	2
172	172	10
27	72	3
146	154	2
28	38	1
152	158	3
112	243	1
1	7	4
179	180	7
150	153	3
230	233	2
220	224	3
107	111	1
191	194	3
6	37	1
108	238	4
20	80	1
9	18	2
56	56	11
160	184	2
169	170	1
41	205	1
31	32	4
101	109	2
159	188	2
79	83	4
153	154	2
103	103	2
74	75	6
24	118	2
210	226	3
156	232	2
5	82	2
19	23	2
166	243	3
174	174	4
167	168	2
77	107	2
86	89	3
64	67	5
4	39	1
85	104	1
7	42	2
168	209	1
191	191	11
160	165	2
165	247	1
96	101	1
167	182	1
3	39	3
32	39	4
190	193	6
91	96	1
239	245	3
57	64	1
231	232	7
171	176	6
104	106	2
168	226	2
229	241	1
76	85	1
108	108	5
5	47	2
63	64	2
87	102	2
113	113	10
149	149	2
199	207	2
30	31	4
65	67	2
83	83	2
28	55	3
23	28	2
52	98	5
61	65	1
214	217	1
204	232	2
90	90	5
206	206	4
76	79	2
210	212	1
70	95	1
21	193	3
90	91	3
153	173	2
183	240	1
20	20	2
174	180	1
147	160	3
156	214	4
36	40	3
153	245	1
184	198	1
14	14	8
69	74	3
96	231	4
31	47	4
162	215	1
65	66	3
177	227	5
153	157	2
87	89	3
170	182	3
85	89	2
188	215	1
3	9	2
51	51	11
157	175	1
30	43	1
6	7	4
186	235	1
64	65	2
187	188	4
90	110	3
200	207	4
176	231	3
107	109	3
167	226	3
58	71	2
150	160	3
26	113	1
35	47	1
73	77	3
208	214	3
50	87	3
228	229	2
159	196	2
7	17	1
56	59	2
62	64	3
15	82	2
161	231	2
85	85	5
179	211	1
17	20	2
29	30	5
59	61	4
238	240	2
89	90	3
71	77	2
188	194	2
2	23	1
172	176	1
25	246	3
49	88	1
95	106	1
168	239	1
169	235	2
96	99	2
175	235	3
186	198	3
61	64	2
178	179	2
193	232	2
56	118	1
29	109	1
76	78	1
240	244	3
150	151	6
226	227	3
157	184	2
178	247	4
156	159	2
51	54	2
60	72	2
34	80	1
196	236	3
152	247	1
48	76	2
105	105	7
204	208	2
201	202	3
215	233	1
113	114	2
56	61	2
3	18	1
25	51	2
189	191	5
160	177	2
146	147	2
146	186	2
83	90	4
39	42	1
176	210	1
28	110	3
169	185	1
63	70	1
19	20	3
117	118	3
191	192	8
81	100	2
239	240	3
92	94	2
158	160	2
12	55	2
182	241	2
80	90	2
71	78	2
95	97	2
5	113	2
215	217	3
77	87	2
39	50	3
35	59	1
143	179	1
204	205	1
75	78	1
31	37	2
22	23	5
241	244	1
171	173	1
18	54	2
30	88	1
110	119	1
182	207	1
26	77	1
146	146	4
80	82	1
161	183	2
116	117	4
11	110	1
6	16	1
102	109	2
38	49	1
234	235	3
191	215	2
163	164	2
49	58	2
145	145	2
180	181	3
43	91	1
56	84	1
58	111	5
14	16	2
18	20	2
64	98	2
149	179	1
19	217	1
51	53	1
64	92	1
68	73	4
97	98	3
73	112	1
104	104	2
163	187	1
148	174	2
201	222	1
5	14	1
42	43	2
96	109	1
26	110	2
198	202	1
59	67	2
68	72	1
43	44	2
98	98	2
5	34	1
249	249	3
237	245	1
75	85	1
48	117	1
159	164	1
162	232	3
3	15	3
171	178	2
187	197	1
39	40	1
190	197	2
10	86	1
159	183	1
159	161	1
56	67	1
70	210	2
201	220	1
235	236	2
75	76	1
161	167	1
21	23	1
34	54	1
187	213	1
5	18	2
18	50	1
94	211	1
98	101	2
213	238	2
76	89	1
85	115	1
85	113	1
199	235	1
86	87	2
230	230	3
110	241	2
175	207	1
85	105	1
173	206	1
216	233	1
211	213	1
192	238	3
69	98	1
158	163	1
169	181	1
31	39	3
77	116	4
192	194	1
9	39	1
166	167	2
203	208	1
217	222	1
117	243	1
4	31	1
197	208	1
120	120	2
82	108	1
185	225	1
96	98	1
19	107	1
61	103	1
105	109	1
157	208	1
12	100	1
198	201	1
168	169	3
6	11	1
243	243	3
193	196	2
230	240	1
192	195	1
50	85	1
103	118	1
108	119	1
158	246	2
9	21	1
102	105	1
81	82	2
239	243	1
160	200	1
153	249	1
82	89	2
166	169	1
24	87	1
229	231	1
86	103	1
204	226	1
51	119	2
95	96	2
48	245	1
36	38	1
51	109	3
28	31	1
119	242	1
229	230	1
28	59	2
36	45	1
71	76	1
61	109	1
108	116	1
217	221	1
176	180	1
107	116	1
82	95	1
108	110	1
84	98	1
207	208	2
48	49	1
203	213	1
70	100	1
184	208	1
167	236	1
70	98	1
161	162	2
157	214	2
1	2	1
61	111	1
104	105	2
105	108	1
241	243	1
172	198	1
157	161	1
75	104	1
86	102	2
160	170	1
162	202	1
182	213	1
162	186	1
105	107	1
166	210	1
205	206	1
223	225	1
158	161	1
72	82	1
6	12	1
7	36	1
167	237	1
7	8	1
70	74	1
146	159	1
208	244	1
41	42	1
110	238	1
196	246	1
18	19	1
222	241	1
