24	24	24
47	47	38
53	54	8
12	14	3
59	59	26
41	41	35
1	1	17
18	18	20
62	62	20
44	44	57
19	19	14
34	34	42
55	55	41
0	0	19
45	45	24
32	49	2
21	21	14
32	36	9
48	48	60
37	47	4
31	31	29
38	39	18
35	36	18
2	25	2
33	34	8
58	59	8
46	46	29
42	42	23
43	43	52
30	31	3
20	20	21
51	51	35
40	40	30
33	35	13
52	52	36
12	13	2
4	4	17
54	54	32
7	16	4
14	14	19
30	30	38
24	25	7
35	39	3
60	60	16
31	36	3
34	62	1
42	58	2
32	32	30
43	44	5
15	16	4
38	38	22
47	48	8
49	49	45
39	43	3
22	53	1
15	15	18
25	25	5
12	54	1
3	3	14
22	22	19
32	34	8
57	57	34
39	41	8
52	55	7
55	56	3
56	57	13
48	49	13
56	56	29
57	58	10
33	33	35
0	1	10
53	60	1
13	21	1
8	9	6
21	22	11
16	16	21
37	38	6
5	21	4
39	45	4
51	52	6
2	2	16
39	39	32
36	36	39
13	13	16
14	15	13
40	54	3
58	58	28
5	5	19
35	35	30
53	55	1
6	6	9
11	11	17
12	16	2
61	61	8
20	21	9
46	47	18
19	20	7
30	51	2
1	46	7
13	14	10
5	6	6
50	50	31
53	53	18
31	32	18
36	37	9
59	60	6
31	44	9
14	16	3
15	18	2
49	52	7
34	35	6
10	10	7
8	13	1
12	26	5
7	7	15
9	9	12
23	23	8
52	53	8
50	52	8
22	23	5
37	37	14
31	33	2
45	47	13
41	53	1
42	43	4
54	55	7
12	12	18
41	42	3
29	29	10
17	17	7
2	3	7
2	56	2
16	17	4
31	42	1
42	56	3
60	61	15
6	13	4
10	12	2
31	34	5
9	10	8
50	55	1
11	14	1
45	46	14
3	4	7
11	12	5
40	41	12
9	16	2
10	11	11
20	60	4
33	37	1
46	52	3
41	51	3
37	39	5
13	16	6
32	33	10
12	17	2
39	44	2
12	19	5
19	58	1
40	42	3
23	25	1
49	50	5
17	25	1
42	44	2
51	55	7
8	8	3
21	30	2
23	55	1
7	41	2
37	40	3
37	41	3
25	26	7
54	59	3
31	37	3
30	43	4
0	61	2
10	22	1
44	45	6
1	2	2
9	12	4
53	59	5
44	46	3
34	36	3
38	41	1
42	52	2
2	12	1
4	15	2
54	58	1
17	19	4
37	61	1
37	43	3
61	62	5
8	12	1
18	19	3
12	53	2
54	56	4
7	9	2
14	52	2
18	38	1
39	51	1
5	9	2
9	59	1
1	47	2
0	2	2
43	46	2
9	52	1
56	58	5
40	51	4
16	19	4
6	7	6
51	57	2
26	26	2
30	34	2
8	16	5
35	40	1
51	53	2
29	30	1
4	5	2
14	25	1
11	17	1
12	15	1
58	60	1
8	17	1
55	60	2
38	42	2
43	62	1
36	61	6
13	18	1
7	8	3
44	51	2
16	41	2
3	14	2
9	11	3
53	58	1
14	18	1
53	56	2
52	54	2
24	53	2
52	57	1
10	13	1
51	56	1
19	59	1
42	50	1
32	56	2
20	57	1
43	50	2
31	48	1
35	37	1
31	40	1
2	47	1
16	20	2
32	39	1
58	61	1
31	35	2
20	22	2
30	32	2
10	54	1
6	9	2
36	43	1
6	17	2
50	51	1
7	10	1
53	57	1
10	16	1
45	56	1
5	17	2
1	52	2
32	48	1
39	40	1
46	57	1
31	49	1
21	23	1
20	59	1
