1	1	4
116	156	2
16	16	4
80	80	1
175	175	8
132	139	3
29	31	3
83	84	1
116	117	2
101	101	1
23	23	5
174	175	2
31	34	1
92	92	3
117	150	3
102	102	3
62	63	2
120	120	3
104	105	4
62	62	3
163	165	2
6	6	5
36	36	16
19	22	1
9	9	8
155	155	3
75	120	2
40	40	6
11	11	6
83	83	3
14	76	1
15	15	9
30	30	2
144	144	3
110	110	8
156	156	2
124	129	1
31	31	2
134	149	5
177	178	4
71	71	5
21	21	4
51	51	2
11	14	4
165	165	3
117	119	4
7	9	1
10	10	6
117	117	2
128	128	3
141	150	4
142	143	3
93	95	3
53	59	3
124	124	3
173	174	2
167	167	3
91	94	1
147	169	2
145	157	3
164	164	4
7	11	2
134	134	6
18	19	1
151	151	5
83	94	1
20	20	4
163	163	5
77	77	4
16	30	3
26	33	1
34	35	1
135	137	2
170	170	8
104	107	2
45	45	5
68	75	1
150	150	4
4	4	5
147	157	3
161	162	1
50	51	2
79	79	3
33	33	5
178	179	2
135	135	2
158	165	1
140	140	3
39	42	1
25	76	4
116	120	1
104	109	2
42	42	8
64	64	4
133	133	6
157	157	4
8	8	1
73	73	3
147	172	2
136	136	6
126	160	1
171	172	2
151	152	10
131	131	3
108	108	3
126	129	1
52	52	5
28	30	1
4	5	3
149	149	2
164	177	1
102	145	2
31	32	3
82	86	3
105	105	1
52	53	3
89	123	1
97	97	1
148	148	4
107	107	2
155	156	1
2	2	6
94	94	4
10	11	2
9	13	1
12	12	6
140	180	5
65	65	1
154	156	3
7	10	1
53	60	2
39	39	4
11	15	4
5	34	2
138	139	2
100	100	4
135	136	1
22	23	2
125	148	2
106	162	1
139	139	1
64	65	1
145	156	1
172	172	2
86	88	1
174	174	4
93	93	3
75	75	2
27	77	2
37	39	1
116	116	2
155	160	3
30	31	3
3	3	4
3	4	2
14	14	7
9	10	3
118	144	1
9	19	4
160	174	1
70	71	2
127	127	2
132	132	7
15	42	2
151	155	2
74	74	2
135	158	3
15	16	3
7	7	7
137	178	1
168	168	2
179	180	1
96	121	1
0	10	1
39	41	1
86	86	3
2	11	2
81	81	4
126	126	6
21	34	2
7	34	1
13	14	2
171	176	1
60	60	3
37	37	6
32	38	3
5	5	3
109	109	2
57	57	1
106	109	2
10	34	1
176	176	10
114	114	4
122	122	1
22	77	1
162	162	7
111	112	2
24	24	3
41	41	4
79	80	2
126	128	2
22	22	4
82	84	3
90	90	2
16	20	7
93	94	2
43	43	2
11	16	1
159	160	2
89	149	1
34	34	2
2	3	4
103	104	1
103	108	1
155	174	1
121	121	3
118	118	4
147	147	2
28	29	1
39	40	2
14	15	4
26	26	3
53	126	1
30	75	1
119	119	3
170	174	1
59	59	3
137	137	2
138	138	1
54	65	1
87	88	2
38	38	2
35	36	1
166	166	1
123	123	1
171	171	2
145	151	2
86	87	3
5	10	3
83	85	1
31	44	1
106	107	1
32	32	1
61	61	1
153	173	1
115	116	1
28	72	3
41	128	3
77	90	2
85	120	1
60	112	1
83	90	3
86	101	1
9	17	1
13	13	4
22	24	1
180	180	3
29	29	1
81	97	1
165	166	1
17	17	2
95	95	2
94	96	2
158	158	2
27	27	4
178	178	1
11	13	1
107	109	1
128	155	1
55	55	6
51	62	2
12	85	3
163	164	2
19	19	1
44	44	6
127	132	1
8	9	3
91	91	3
24	29	1
16	17	1
67	67	2
109	115	2
106	113	2
145	180	1
84	132	2
5	6	1
85	85	3
161	161	1
38	39	1
135	178	1
66	66	2
4	12	1
33	34	2
145	150	1
116	121	2
146	146	1
72	72	1
25	25	1
53	53	3
11	12	1
3	21	1
145	145	1
147	151	1
52	54	1
37	38	2
25	35	1
28	31	1
60	61	4
154	158	3
52	159	1
141	142	3
97	98	2
110	116	2
72	73	1
136	137	2
166	177	2
125	125	2
26	27	1
102	103	1
58	58	2
82	148	1
33	40	1
84	84	1
0	0	1
169	174	2
76	76	3
164	166	1
149	158	1
80	168	1
85	86	1
21	23	1
12	13	1
160	166	1
115	115	1
140	141	1
50	50	1
117	118	1
119	123	1
130	150	1
120	121	1
26	34	1
84	88	1
116	174	1
24	25	1
35	35	1
63	63	1
17	18	1
160	160	1
143	143	1
