100	101	5
120	120	11
93	93	8
104	104	9
126	126	11
17	21	1
45	46	2
80	83	2
144	145	6
113	113	4
24	24	13
137	137	12
108	108	8
36	36	15
98	98	6
14	150	2
143	143	9
148	149	3
110	110	13
12	55	4
62	67	3
49	49	11
94	94	15
115	115	11
116	116	8
1	1	9
7	8	3
51	51	15
91	129	2
68	68	8
99	99	7
79	133	1
83	83	8
69	70	5
94	95	5
101	101	6
51	52	7
47	141	2
141	141	10
52	53	1
14	16	1
117	117	9
33	33	10
37	38	12
145	145	14
37	37	8
153	154	1
26	26	5
12	14	1
129	129	17
63	63	4
8	8	5
91	91	12
97	97	9
96	120	1
46	55	1
23	23	4
106	107	1
100	151	6
23	25	3
31	31	23
12	12	7
113	147	3
80	80	13
6	105	1
30	30	14
150	150	8
32	32	8
28	40	3
87	88	4
155	156	8
27	28	4
43	43	8
105	105	13
121	134	2
132	132	6
126	139	2
88	88	7
84	86	1
31	32	6
156	156	7
91	112	2
11	11	16
64	71	5
9	9	6
43	49	6
67	132	6
135	135	5
90	90	8
146	152	3
75	112	4
78	80	3
77	80	1
78	152	1
53	53	9
100	100	11
40	41	7
29	29	5
21	22	2
128	128	13
125	126	10
103	103	3
54	55	1
101	158	3
17	18	6
75	151	1
79	80	6
13	16	3
54	54	4
151	151	19
121	121	11
2	4	2
7	158	5
6	26	1
63	72	10
139	140	5
138	138	13
40	42	4
121	122	11
81	81	11
147	147	10
18	24	3
115	116	3
15	16	5
124	124	5
67	69	3
26	27	5
70	150	1
111	111	12
85	140	1
55	142	2
48	49	5
87	96	4
84	84	12
3	56	3
98	121	4
86	94	2
68	70	2
70	151	6
46	127	1
136	136	7
22	23	8
46	46	12
148	148	6
38	38	4
103	104	2
117	155	2
70	70	7
24	25	3
75	76	2
36	38	1
40	40	6
10	10	8
97	119	1
7	7	14
138	139	7
28	41	2
20	20	1
3	3	3
3	53	10
125	125	8
6	6	9
115	144	4
18	22	5
71	71	6
28	28	7
27	27	11
116	117	1
150	157	2
17	31	4
8	10	2
15	20	4
85	85	7
62	62	5
46	49	1
66	120	3
52	52	6
21	21	3
46	47	4
25	25	15
17	20	3
79	79	9
135	136	3
13	13	8
131	131	3
71	156	2
45	45	5
111	135	3
25	26	1
96	119	3
53	135	2
102	102	2
105	106	6
96	122	4
5	27	4
50	50	4
18	18	5
142	143	1
106	106	11
35	39	1
77	77	7
122	122	7
145	147	12
87	119	3
12	13	2
21	29	2
47	47	7
5	6	1
20	21	2
113	115	2
0	0	4
119	119	9
118	118	8
83	84	1
85	114	3
16	16	7
25	28	4
127	127	8
82	91	1
17	17	13
4	4	3
112	112	10
95	95	2
107	107	4
28	55	1
35	35	4
130	130	7
140	140	2
109	109	7
129	138	1
107	129	1
121	132	1
131	132	2
114	114	7
78	78	5
68	148	3
68	131	1
4	27	5
74	74	1
22	26	1
2	2	4
95	96	6
108	113	2
83	86	2
67	131	2
41	41	11
22	25	4
71	115	4
134	135	1
77	78	1
134	134	6
120	121	1
134	137	2
18	19	7
14	14	4
14	57	1
70	139	2
96	96	9
82	82	10
44	44	3
19	23	1
32	33	1
86	86	6
87	140	1
7	9	4
81	104	1
90	139	7
113	154	2
133	133	10
66	66	2
9	36	3
93	95	1
43	79	1
109	136	2
24	27	4
134	142	1
3	27	3
46	50	2
36	37	4
72	72	2
109	110	3
11	144	1
1	2	4
69	69	8
77	79	1
0	1	2
4	8	2
31	45	1
92	92	5
10	14	1
77	85	1
88	91	1
89	89	4
157	157	7
48	48	3
11	12	2
73	73	15
31	36	1
82	83	8
120	126	1
67	118	1
83	158	2
65	65	2
0	4	1
130	131	3
75	75	13
39	39	5
156	157	1
38	39	3
77	127	1
33	40	4
158	158	6
158	159	1
42	42	6
78	82	4
141	143	7
125	153	4
119	134	1
50	51	2
8	9	2
122	141	4
86	87	1
42	43	1
152	153	3
84	85	5
129	134	2
28	29	1
43	52	1
144	147	2
5	5	5
12	22	1
85	86	1
145	146	3
20	26	1
123	123	3
49	50	1
97	123	1
82	100	1
40	131	2
17	19	2
6	115	2
11	14	1
48	51	2
118	157	2
2	130	3
114	115	2
123	141	1
67	68	1
7	28	1
91	120	1
149	149	4
107	126	1
55	55	5
56	131	1
91	139	1
65	66	4
38	57	1
133	134	2
67	71	3
152	152	6
124	125	1
142	150	1
53	54	2
14	15	1
52	54	2
87	123	2
122	133	1
62	64	1
72	113	1
66	150	1
88	89	4
140	141	1
129	130	3
146	155	1
108	109	3
132	133	2
33	34	2
13	14	1
128	129	1
105	144	1
34	34	4
45	141	1
81	135	2
87	87	5
98	149	3
119	126	1
123	124	4
5	87	3
67	67	5
66	155	1
7	13	1
91	138	1
155	155	2
25	30	2
83	87	2
45	54	1
144	144	5
69	124	5
103	149	3
19	52	1
23	24	2
35	36	4
146	147	1
142	142	3
146	146	2
42	81	1
120	122	1
78	85	2
2	3	5
102	127	1
31	37	1
113	145	2
88	146	1
43	51	1
124	126	1
86	117	2
68	69	3
124	139	2
0	106	3
144	146	6
108	112	1
47	48	1
104	156	2
82	121	1
115	117	1
155	157	1
86	144	1
10	11	2
1	43	1
76	111	2
134	138	1
20	31	1
134	156	1
61	61	1
91	117	2
36	40	1
64	70	1
40	51	1
32	48	1
117	148	2
86	92	5
29	35	1
114	134	1
69	118	1
118	120	2
40	130	2
15	19	1
151	152	1
78	153	1
143	159	2
73	154	2
2	5	1
137	140	1
100	150	1
16	54	2
72	73	1
69	141	1
11	19	2
118	119	1
130	139	2
0	5	1
42	49	1
68	156	2
69	79	1
103	148	3
153	155	2
76	77	1
2	7	1
110	153	1
3	135	1
72	126	1
132	137	1
45	140	1
87	92	1
76	76	2
134	157	1
90	125	1
45	131	2
84	103	1
72	150	2
14	122	1
2	144	1
91	113	1
76	140	1
130	134	1
123	149	1
81	137	1
84	91	1
97	149	1
4	18	2
84	158	1
107	113	1
22	29	3
51	111	1
123	146	1
111	153	1
69	78	1
87	90	1
63	67	2
4	5	1
15	52	1
81	116	1
9	11	1
78	83	1
85	147	1
5	130	1
104	150	1
125	127	1
154	154	1
19	20	1
139	139	1
64	64	1
35	133	1
43	50	1
45	137	1
128	131	1
76	95	1
5	105	1
