141	142	3
173	180	5
220	223	4
152	152	10
84	84	5
118	144	1
24	24	4
10	11	4
194	194	13
81	117	1
45	45	15
58	58	10
4	5	9
52	53	5
107	107	4
57	57	18
136	151	3
198	198	9
50	50	3
70	102	2
12	13	11
146	147	2
189	189	17
167	181	3
116	118	7
183	224	2
228	230	4
53	53	10
62	62	7
37	238	5
217	217	9
154	157	2
85	86	1
23	23	12
142	143	5
57	58	4
228	228	10
2	3	7
193	193	14
75	82	2
120	121	5
230	230	13
48	49	2
210	210	8
128	128	15
3	49	3
11	11	15
80	81	6
51	51	2
12	12	10
240	240	4
156	188	3
50	62	4
233	233	13
97	97	2
154	154	9
20	86	2
29	30	6
15	15	11
104	106	2
187	187	16
17	17	11
49	49	6
119	127	2
207	207	16
3	3	3
109	109	11
60	62	1
21	88	1
158	179	2
221	221	10
221	222	3
63	63	13
55	69	7
156	156	4
39	39	16
155	156	2
33	33	16
145	148	5
153	153	8
32	36	3
181	190	2
38	38	12
40	40	16
3	9	1
65	102	2
61	62	4
216	216	12
27	28	1
105	105	13
235	235	17
50	51	2
78	80	1
140	141	7
42	42	7
28	28	8
209	209	2
206	206	19
180	188	6
5	5	10
211	231	4
17	79	5
12	49	2
188	189	5
14	14	7
127	127	8
77	77	6
170	170	6
164	173	5
22	22	9
79	80	3
155	179	4
213	213	13
211	214	4
120	125	8
202	236	2
71	223	2
29	29	8
181	182	3
68	68	13
141	141	7
195	195	23
7	17	3
7	7	13
142	148	3
158	158	4
227	227	11
9	9	7
117	117	19
223	224	1
177	177	9
59	60	4
197	197	7
195	196	6
30	34	2
54	55	1
98	98	7
174	174	2
157	157	9
178	200	3
4	7	4
114	115	1
104	104	7
18	18	8
26	26	9
131	131	7
17	21	1
96	96	4
27	27	12
51	67	5
214	214	14
20	20	6
54	54	7
55	95	4
39	40	3
40	41	3
14	16	3
3	8	2
69	119	3
162	162	10
70	70	7
5	12	3
199	200	1
123	125	3
71	71	11
37	38	7
186	187	7
126	126	8
77	78	5
10	10	3
149	149	10
170	171	7
150	150	2
36	36	8
48	48	4
2	2	12
20	21	6
70	227	3
113	113	13
4	6	11
44	44	13
205	205	10
153	196	1
30	30	18
167	167	6
8	8	4
146	146	7
69	69	14
57	67	6
231	240	3
16	16	8
101	121	1
13	14	1
147	169	7
18	75	2
205	206	11
134	134	8
18	83	1
117	118	2
135	135	12
230	232	3
36	48	2
49	50	3
186	186	7
190	190	5
224	224	11
139	223	2
211	211	4
76	76	6
194	213	2
56	56	7
51	159	3
138	138	12
231	231	5
42	43	3
21	83	3
70	73	2
236	236	5
47	47	7
108	108	3
59	59	8
75	76	1
104	126	3
150	167	1
239	240	1
30	31	5
129	129	4
170	183	5
18	19	6
132	132	7
58	74	4
81	114	2
41	52	2
163	163	3
228	229	1
116	117	2
81	81	4
183	201	3
213	214	3
137	137	4
173	235	2
128	227	1
99	100	6
25	25	5
31	48	4
64	65	1
58	96	4
13	13	11
6	6	10
5	6	15
38	44	3
15	35	2
60	60	8
34	34	9
178	178	5
73	120	2
232	233	1
168	169	4
56	61	6
35	36	1
79	79	10
8	9	4
145	145	11
212	212	2
149	169	3
153	154	1
46	88	3
34	35	7
43	44	4
144	144	7
7	12	4
155	155	2
95	129	1
52	52	4
207	208	1
152	237	7
191	191	7
193	196	2
18	81	4
229	230	5
37	37	6
17	30	1
133	163	3
161	161	3
135	223	2
241	242	8
108	109	3
65	65	12
51	56	1
164	236	3
55	73	3
219	219	7
174	202	2
81	82	3
80	80	8
26	232	3
173	174	4
57	59	5
71	85	1
139	139	6
167	179	4
119	145	3
82	82	10
133	133	2
68	226	2
159	190	1
74	226	2
83	83	3
66	129	6
114	114	3
183	183	8
204	204	11
192	192	8
22	23	1
9	10	3
14	15	3
21	22	11
73	73	9
168	181	1
234	234	14
100	100	5
237	237	11
159	230	3
145	146	9
68	119	5
88	88	7
72	72	9
4	16	2
119	119	4
163	166	6
23	80	4
139	140	3
76	95	3
169	169	6
176	176	2
164	164	4
180	180	7
156	157	11
18	29	4
54	99	2
204	207	1
201	201	8
21	21	3
18	76	3
1	1	9
158	170	7
32	39	1
185	185	5
232	236	1
120	120	1
14	88	1
157	169	2
196	196	7
209	221	3
55	55	7
102	102	4
212	213	4
147	156	3
61	64	2
1	2	3
225	225	7
195	198	1
115	115	1
68	129	2
239	239	2
172	202	1
50	56	3
142	142	6
51	52	5
72	73	2
72	151	1
142	145	6
161	176	4
145	147	1
207	219	4
137	140	1
62	63	3
66	67	9
7	34	1
165	165	4
174	238	2
8	47	3
76	82	7
40	85	2
212	231	1
61	61	6
34	47	2
98	99	3
161	175	2
168	199	3
173	183	2
6	76	4
121	122	5
154	170	3
74	227	1
90	90	1
1	56	3
197	203	4
74	74	7
185	187	1
1	11	1
84	118	3
4	4	8
19	19	11
232	232	1
151	152	5
200	206	1
75	84	3
0	1	2
196	197	1
159	159	6
101	101	9
42	234	1
178	221	3
155	162	3
78	78	4
183	185	1
46	46	8
155	163	1
123	123	4
182	190	2
43	43	9
122	122	4
229	229	4
105	106	7
113	122	4
83	154	3
121	121	4
104	105	4
191	208	1
149	170	1
166	166	5
11	213	3
172	172	4
17	78	4
36	47	7
18	20	4
61	65	3
81	84	2
136	136	4
66	66	2
148	149	1
226	227	5
5	51	2
146	170	1
11	47	1
185	198	1
103	105	4
152	175	1
113	114	2
211	215	3
175	177	1
242	242	2
82	84	6
140	147	4
208	208	1
223	223	2
6	7	1
70	71	6
129	130	4
102	103	5
125	125	2
44	45	3
171	171	5
167	199	2
0	0	5
67	68	6
56	57	3
234	235	4
82	83	5
62	96	2
178	222	3
184	186	5
170	224	3
16	34	2
172	222	2
179	230	2
220	238	2
139	224	6
130	226	1
64	173	2
136	137	1
165	172	2
51	62	1
182	182	6
147	147	4
27	233	2
168	168	9
144	145	2
74	85	2
107	108	4
158	169	4
235	239	2
172	173	1
34	36	6
112	112	3
106	106	4
71	134	1
167	168	1
162	163	2
184	185	2
27	239	1
184	184	2
64	64	9
200	200	6
218	218	1
185	186	1
16	30	2
233	235	2
196	201	1
157	187	1
75	75	5
91	117	1
172	238	3
31	31	8
116	116	6
163	164	1
133	137	1
81	88	3
54	58	1
31	33	1
70	72	1
182	183	1
100	114	4
3	10	3
1	20	2
208	221	2
39	74	2
169	200	1
155	188	1
157	158	1
119	120	2
116	129	1
152	166	1
6	15	1
58	59	1
15	88	1
203	203	4
37	192	1
4	49	1
226	226	1
0	55	1
33	35	2
191	207	1
122	123	1
171	187	1
168	179	1
125	227	1
68	121	1
168	204	2
161	166	1
230	231	2
241	241	5
179	179	4
68	103	3
156	169	3
40	42	1
71	72	1
51	57	2
143	147	1
139	147	3
168	185	4
34	37	3
21	23	1
116	126	1
238	240	1
112	121	2
50	57	2
143	143	1
166	207	3
75	129	1
148	180	3
139	237	2
65	67	2
56	65	1
22	89	1
58	68	1
192	194	3
50	53	3
66	91	2
192	241	1
113	115	1
5	77	3
67	67	8
96	97	1
115	116	4
124	124	6
29	33	2
199	199	4
121	144	1
96	227	2
13	15	1
24	25	2
176	177	1
220	221	1
139	220	1
7	13	1
60	66	2
50	54	1
79	130	2
41	171	1
159	189	1
84	225	1
125	127	1
166	181	1
192	230	3
186	217	2
153	175	3
16	17	1
114	118	2
164	165	3
173	173	2
211	220	3
220	220	3
53	54	1
37	39	2
222	223	2
222	222	1
178	179	1
148	150	4
37	47	1
143	144	1
42	224	1
25	74	1
189	221	3
187	218	1
211	212	1
0	6	3
194	195	1
10	53	1
67	98	1
5	212	3
147	148	3
78	79	1
5	13	3
32	32	1
95	130	1
84	86	1
50	52	1
95	95	4
10	215	1
12	15	1
144	146	1
80	89	2
102	142	2
3	30	1
189	220	1
1	6	1
174	240	1
51	61	4
86	86	2
68	69	1
188	188	1
193	194	1
100	102	1
15	36	3
135	140	1
11	13	3
231	232	1
216	232	2
71	178	2
231	241	2
9	64	1
238	238	2
156	209	2
80	118	1
15	16	1
182	242	1
6	12	2
89	89	1
214	215	1
8	49	1
83	96	1
111	111	2
192	227	1
143	153	1
82	85	2
17	23	1
36	53	1
161	207	1
140	156	1
20	24	2
192	220	2
236	237	1
13	182	1
167	169	1
165	187	1
10	64	2
48	51	1
137	150	1
123	144	2
14	36	1
63	175	1
204	205	1
124	145	1
234	239	1
150	171	1
102	104	1
219	220	1
23	24	2
80	83	1
69	83	1
38	39	2
84	85	1
181	181	2
39	188	1
68	75	1
99	132	1
214	216	1
76	78	1
166	169	1
81	149	1
204	206	1
151	151	1
160	160	1
113	121	1
56	66	2
77	84	1
62	64	2
118	119	2
191	238	1
49	57	1
100	101	1
174	175	2
174	176	1
98	101	1
3	212	2
175	175	2
36	40	1
159	192	1
65	97	1
26	172	1
153	237	1
28	29	1
17	211	1
17	29	1
202	202	1
152	161	1
22	24	1
98	124	1
57	60	2
209	210	1
220	228	1
149	171	1
68	99	1
49	65	1
26	27	1
37	64	1
103	112	1
198	207	1
78	91	1
82	86	1
117	129	1
10	233	1
205	208	1
195	200	1
115	123	1
