2	2	7
154	181	1
4	6	1
146	147	4
72	73	1
46	46	5
131	131	7
145	146	2
25	25	6
43	43	5
138	139	7
155	155	5
94	94	7
144	146	2
45	45	4
0	0	3
85	123	5
69	69	1
184	185	3
56	56	2
126	127	6
24	24	11
185	185	2
140	141	5
35	35	5
163	163	3
87	95	1
74	74	9
58	58	3
147	147	6
187	187	6
120	120	7
64	65	1
28	28	4
149	149	4
57	58	1
126	126	3
84	85	2
96	96	4
100	104	2
100	100	2
95	95	1
114	114	6
34	34	2
173	173	6
55	56	4
64	64	1
58	59	5
116	117	2
186	186	4
56	58	1
37	37	5
42	42	4
177	177	4
179	179	9
101	101	3
189	189	8
36	37	2
31	32	11
23	24	3
96	97	2
119	119	5
118	118	7
129	129	3
59	60	6
78	78	1
77	77	7
87	87	5
105	105	4
91	91	6
17	18	5
106	106	2
12	13	1
54	54	7
154	155	4
123	124	2
13	13	9
188	188	3
48	48	4
139	148	3
87	176	4
107	114	1
11	11	5
102	102	3
23	23	3
55	55	3
1	1	1
139	139	6
75	76	1
141	141	3
127	127	7
100	103	3
31	31	3
37	91	1
150	169	2
136	137	2
4	13	2
134	134	2
177	178	4
45	46	1
92	92	5
119	129	4
121	161	2
29	29	6
111	111	9
104	104	7
11	12	2
25	151	1
98	99	2
110	110	6
149	150	3
19	19	5
169	169	3
174	174	1
25	26	5
30	32	5
59	63	4
134	136	3
1	147	3
22	22	4
167	168	3
114	115	4
182	182	4
41	42	2
27	29	7
157	157	2
84	147	1
158	158	6
86	86	4
71	71	8
148	148	9
72	72	1
141	142	1
25	48	2
190	190	4
135	150	4
90	99	2
11	38	1
78	79	3
116	116	8
96	99	1
108	108	4
185	186	1
16	18	2
65	68	4
26	27	1
6	6	4
36	36	3
62	62	3
155	189	1
179	180	6
115	115	10
137	137	2
42	43	2
127	183	2
24	42	1
154	154	5
163	164	2
166	167	4
13	14	2
71	81	2
10	11	6
167	167	8
60	60	2
22	23	2
82	82	1
71	73	3
57	101	1
158	161	1
18	18	5
111	112	1
57	61	1
117	118	1
69	70	2
143	143	2
46	47	2
68	68	2
15	15	3
153	153	3
161	161	4
91	99	2
14	14	4
78	145	1
93	93	3
103	103	3
21	21	6
61	63	1
56	141	1
31	165	1
47	47	3
53	53	3
162	162	3
175	175	4
121	133	1
150	150	3
172	173	2
141	187	1
163	177	2
20	94	2
169	170	1
24	25	4
152	153	3
188	190	3
121	121	6
136	136	3
34	42	2
156	158	1
177	179	1
90	90	9
156	156	3
121	149	2
37	88	1
108	111	3
73	73	3
55	61	2
161	162	4
21	22	2
174	175	3
184	184	3
33	33	7
76	78	1
59	59	4
130	158	3
27	27	7
188	189	6
89	89	7
80	80	2
102	103	3
19	33	1
117	138	3
28	30	1
147	149	1
172	172	4
159	159	2
170	170	3
103	104	1
143	144	2
39	39	3
91	92	3
181	181	1
119	120	2
15	16	2
176	176	3
41	41	5
60	61	1
141	151	1
3	3	1
142	143	4
109	110	2
124	124	1
59	62	1
35	38	2
36	43	2
87	90	1
88	88	1
183	183	2
26	26	2
84	148	1
119	130	4
2	41	1
4	4	2
63	64	1
148	149	1
114	129	1
132	133	1
142	142	1
70	70	3
1	185	1
160	161	1
67	67	1
61	61	1
109	109	2
3	95	1
20	20	1
42	45	1
10	10	2
77	78	1
108	109	1
14	15	2
178	178	1
19	23	2
114	130	1
128	128	2
72	86	2
66	89	1
34	37	1
40	47	1
67	141	1
19	21	1
77	79	1
113	113	2
169	172	2
112	112	2
20	120	2
30	30	2
38	38	2
170	185	1
4	5	1
65	65	3
84	84	1
156	157	1
122	122	3
93	101	1
47	145	2
18	19	1
23	47	1
135	135	1
181	182	4
152	160	2
29	30	2
65	70	1
85	85	1
107	113	2
57	57	1
81	82	2
76	77	2
104	105	1
32	32	1
87	88	2
156	162	1
93	94	2
27	174	1
139	142	1
165	165	1
109	154	1
98	98	1
151	151	2
144	144	1
88	89	1
145	145	2
44	44	1
42	60	1
189	190	1
67	115	3
175	176	1
140	140	1
187	188	1
92	95	1
158	180	1
155	158	1
133	139	1
38	39	1
23	25	1
180	181	1
134	135	3
107	107	1
163	174	1
10	38	1
74	75	1
80	82	1
97	98	1
115	138	2
141	174	1
14	83	1
142	163	1
131	156	1
13	15	1
57	99	1
