47	47	11
57	57	10
79	79	19
15	16	2
69	69	11
61	62	6
27	27	11
22	26	9
63	65	9
54	82	5
81	81	20
61	61	27
75	75	14
85	85	11
23	23	8
53	53	21
26	27	10
79	83	1
72	73	11
31	31	12
65	65	19
14	14	12
13	16	2
24	24	8
1	1	7
17	17	9
64	65	8
67	67	17
20	20	4
26	26	10
0	0	21
11	12	3
77	78	6
5	9	4
89	89	5
78	78	12
50	53	4
72	72	9
22	22	15
23	26	2
46	46	8
17	18	1
48	49	2
15	15	9
86	86	12
77	77	9
57	58	3
83	84	2
71	71	12
13	13	14
88	88	12
54	55	1
50	50	15
47	50	3
5	5	3
66	66	9
28	28	4
30	31	1
70	76	2
54	54	22
62	62	9
5	47	2
19	19	16
64	64	10
85	87	3
3	11	2
21	23	2
49	49	7
12	12	10
7	12	2
71	76	2
10	11	2
51	52	8
86	87	4
68	68	16
48	58	2
84	84	10
82	82	7
26	33	2
58	58	7
47	49	6
23	24	7
52	52	7
48	48	7
4	4	10
21	21	4
73	73	11
25	27	3
49	82	1
25	26	8
66	81	2
25	25	11
58	68	1
5	10	3
7	8	8
27	28	2
3	3	8
56	56	4
59	59	10
6	7	2
70	70	10
21	27	2
79	80	4
4	89	1
53	54	6
11	11	4
66	67	4
88	89	1
63	63	5
83	83	7
8	8	10
2	28	1
11	13	4
3	4	3
18	18	5
87	87	10
5	7	1
8	9	4
9	10	2
81	83	2
34	34	2
57	84	3
12	13	3
18	19	3
78	79	3
4	5	3
56	83	2
4	11	1
48	61	2
85	86	6
22	23	3
27	31	7
10	10	11
54	56	2
24	25	3
55	83	4
51	51	9
66	76	2
71	80	3
49	51	1
54	77	2
60	60	6
67	81	1
58	60	1
19	48	1
7	9	2
67	68	1
7	10	1
13	17	2
31	81	1
72	74	7
26	34	6
16	18	2
56	57	3
74	74	6
60	63	1
5	6	1
71	81	1
80	81	4
88	90	2
7	7	6
71	73	3
60	61	2
25	28	4
78	82	2
55	55	6
64	78	3
14	21	1
50	82	1
15	81	3
4	10	1
60	87	1
47	59	1
1	2	1
6	48	1
49	50	1
65	66	2
50	56	2
35	46	2
53	56	3
6	49	1
68	81	1
62	66	2
46	47	2
15	80	2
6	12	1
76	77	1
62	64	2
31	77	1
8	12	1
82	83	5
63	64	4
16	16	1
55	56	1
59	77	1
53	82	1
50	54	1
49	52	1
6	47	1
6	8	1
12	48	2
76	76	2
54	84	2
52	77	2
21	22	2
69	70	1
19	20	2
1	10	1
52	54	2
33	34	4
75	76	2
30	30	2
76	78	1
47	48	2
79	84	1
20	22	1
80	80	3
53	76	2
19	80	2
6	6	1
0	1	1
31	33	1
5	46	1
51	82	1
50	51	3
0	67	1
50	81	1
52	53	1
81	82	1
12	14	1
60	64	2
60	65	1
62	63	1
