84	84	6
36	36	6
80	83	5
118	124	2
136	137	4
16	16	1
114	135	3
64	64	9
42	42	4
63	63	5
70	70	2
142	142	1
61	62	6
8	8	1
5	6	9
13	13	8
80	82	1
4	4	5
18	44	1
97	97	7
39	39	9
66	66	6
17	44	3
50	50	4
104	104	8
104	108	2
18	18	4
19	19	7
128	129	1
92	92	2
44	45	1
77	84	1
32	32	7
29	36	5
11	11	8
114	114	3
126	132	4
125	133	2
98	99	2
121	122	2
43	43	5
29	30	2
72	73	2
86	87	4
35	35	5
55	55	2
110	111	1
103	103	2
67	84	1
110	127	1
15	15	3
13	23	4
138	138	2
134	134	3
100	103	2
150	151	3
94	97	2
5	5	5
95	95	9
40	40	8
141	142	3
6	8	3
48	49	4
123	124	2
137	154	2
16	148	4
148	148	4
105	128	1
110	110	1
9	9	6
81	82	2
25	25	8
77	78	3
72	82	3
58	94	2
7	32	3
51	51	5
82	82	3
24	24	4
78	79	1
23	23	7
37	120	2
50	52	2
24	29	1
149	150	1
151	151	4
123	128	1
56	56	7
85	86	1
100	100	3
41	42	5
131	132	1
22	22	7
42	43	2
33	33	5
36	43	2
65	65	1
74	74	2
58	92	3
11	12	3
74	75	3
144	144	6
146	148	1
46	46	9
65	74	2
93	95	1
95	96	5
139	140	2
113	123	2
28	28	4
93	93	4
62	62	2
22	24	2
30	36	2
94	94	1
68	68	1
122	127	1
79	79	4
94	95	2
98	98	3
73	84	1
96	97	2
111	115	1
28	33	4
18	19	2
79	80	2
72	80	2
31	31	3
25	26	4
93	98	2
123	126	2
112	113	2
121	137	1
76	82	2
149	149	3
64	65	2
131	131	2
82	83	1
5	31	2
75	98	3
9	31	2
20	20	2
55	56	2
130	130	2
73	73	6
144	145	1
30	30	2
64	85	1
69	69	1
38	47	1
62	63	4
118	123	2
10	22	2
16	147	3
123	123	5
113	113	2
93	94	3
80	81	2
36	37	2
104	105	2
83	84	2
112	112	1
25	40	1
15	16	1
146	146	5
119	119	2
26	42	3
26	26	2
140	141	2
134	147	1
135	149	1
74	85	1
109	110	6
4	23	2
127	127	3
76	76	2
140	140	4
48	48	5
12	12	1
17	17	2
128	128	4
14	14	2
36	42	2
21	34	1
113	114	2
76	77	2
123	125	1
24	40	1
147	147	2
28	30	3
97	103	2
64	99	2
103	104	1
137	138	1
99	99	2
120	121	1
4	7	3
127	128	2
139	139	1
76	80	2
68	69	1
81	88	3
34	37	3
38	41	2
141	145	2
121	121	4
67	67	1
129	129	3
150	150	2
118	118	1
102	102	2
29	29	3
102	114	1
87	87	2
129	130	1
45	47	4
57	92	1
75	78	1
10	41	3
109	125	3
27	27	5
75	77	1
125	125	2
7	7	3
43	44	1
117	118	2
137	144	1
97	99	1
116	116	4
3	3	5
49	49	2
4	43	1
101	101	1
135	135	2
26	27	1
38	38	3
34	42	1
12	14	1
115	116	3
148	152	1
48	71	1
117	117	1
39	77	3
44	121	2
64	75	2
48	55	2
130	133	1
28	29	1
21	21	2
81	81	1
37	37	1
83	83	1
69	90	3
47	52	1
56	93	2
109	109	1
140	145	4
12	13	2
69	70	2
6	21	2
150	153	1
31	56	1
64	68	2
16	18	1
39	57	2
124	124	1
136	138	1
115	115	1
10	10	1
53	53	2
23	25	1
149	151	1
47	51	1
78	78	1
6	27	1
47	47	1
122	122	2
14	15	1
4	5	1
71	71	2
95	103	2
20	23	1
5	22	1
58	58	1
31	83	1
105	105	1
102	103	1
