50	50	6
92	92	9
16	18	5
53	54	3
95	95	1
82	83	2
11	11	3
58	58	8
68	97	3
88	91	2
80	80	1
40	41	3
7	7	3
52	54	4
93	109	2
60	60	9
120	120	6
112	132	1
0	0	3
3	3	3
23	23	5
113	114	3
7	55	1
53	53	6
69	94	2
55	55	2
61	98	1
63	64	1
44	44	1
40	43	2
41	42	4
84	84	4
122	122	2
123	123	1
14	52	1
46	46	4
5	5	3
87	88	2
26	26	8
130	130	2
104	104	5
112	112	2
1	1	8
18	18	3
89	89	3
38	39	3
100	100	8
129	129	4
63	83	2
117	117	2
94	94	1
131	131	3
40	40	2
51	56	1
27	27	1
43	43	1
9	9	5
118	118	5
51	51	3
10	19	1
88	88	4
27	28	2
77	78	5
17	18	2
82	88	1
90	90	1
60	61	3
86	86	12
107	107	1
42	42	2
125	130	1
115	115	2
71	72	3
29	29	2
87	87	3
97	98	2
54	87	3
105	105	3
64	64	5
111	111	3
20	29	3
119	119	5
7	12	2
81	82	4
71	71	2
25	25	3
103	103	2
75	75	4
81	81	1
56	56	4
54	54	5
43	44	3
109	110	2
46	79	1
98	98	1
2	2	3
45	45	3
47	105	1
101	101	2
127	127	1
132	132	6
91	91	3
7	8	2
52	52	3
55	129	1
126	126	1
79	80	1
21	21	2
16	17	3
133	133	3
49	49	3
65	67	2
51	55	1
12	12	2
57	57	4
28	28	6
72	74	1
102	102	1
47	47	2
2	3	1
19	22	1
39	42	1
73	73	2
108	108	1
25	50	1
4	5	2
126	129	3
78	79	2
49	50	1
68	68	5
93	94	2
109	109	3
82	82	2
70	70	2
13	14	2
101	102	1
11	12	1
42	47	2
54	105	1
94	109	2
4	4	1
88	89	1
17	22	2
9	10	1
92	129	1
24	25	1
128	128	2
97	97	1
106	106	2
14	15	3
99	99	2
82	85	1
81	99	1
63	105	1
105	106	1
33	33	3
18	21	1
104	105	2
6	6	1
64	102	2
15	15	1
104	129	1
30	30	1
76	76	1
107	128	1
32	33	2
59	59	1
40	42	1
5	7	1
76	117	1
23	130	2
37	37	1
96	109	2
92	103	1
66	66	1
99	108	1
14	14	1
69	69	1
58	63	1
85	88	1
43	45	1
69	71	1
113	113	1
79	117	1
115	116	1
121	122	1
61	61	1
78	78	1
63	63	3
115	124	1
16	24	2
110	110	1
17	17	1
38	38	1
113	125	1
33	97	1
38	41	1
72	72	1
41	43	1
5	34	1
46	47	1
75	82	1
6	107	1
