220	222	6
67	67	5
238	238	3
48	48	3
61	61	4
74	89	2
170	170	7
71	234	2
7	8	3
30	30	4
3	3	6
58	58	4
23	23	8
236	236	9
200	201	3
159	166	1
147	150	1
34	35	2
10	10	10
71	72	4
0	22	3
156	156	5
223	223	6
14	14	4
228	228	6
96	96	7
8	8	2
11	221	3
73	232	3
107	108	1
49	50	2
218	218	1
143	143	5
72	234	1
76	79	5
231	231	2
201	202	3
19	20	4
203	203	13
6	7	9
45	45	4
204	204	3
167	167	2
4	5	3
231	232	2
217	218	1
148	166	3
242	242	8
75	75	2
13	13	4
50	50	14
84	85	2
175	175	7
116	126	1
29	29	15
161	161	15
85	86	5
187	187	3
46	47	2
76	76	4
27	27	4
228	229	5
232	232	5
56	57	2
141	142	5
118	209	4
205	205	4
36	37	1
37	57	2
173	173	14
1	2	4
184	185	2
239	239	2
20	21	4
241	241	2
21	21	7
38	38	8
99	99	6
15	15	9
19	19	9
7	7	3
101	101	7
81	82	1
76	78	1
119	213	4
123	123	1
186	187	1
35	36	4
182	182	6
50	69	2
42	42	15
224	224	2
229	229	1
193	193	10
157	184	1
86	86	5
210	210	6
207	207	2
191	191	5
191	192	2
126	126	2
180	182	1
26	27	2
20	20	11
0	0	7
68	69	3
227	227	3
145	145	1
111	111	4
71	71	1
176	183	1
74	74	7
211	213	2
186	186	2
198	200	2
43	43	11
22	33	1
81	81	8
56	60	3
55	55	12
142	142	4
121	121	2
64	64	3
83	83	3
72	72	6
46	46	6
36	38	2
12	12	3
28	28	10
3	5	1
24	33	3
105	109	2
79	79	7
62	62	7
10	38	3
103	104	3
67	68	1
168	169	2
28	43	1
45	46	6
165	188	5
18	19	6
70	70	8
158	158	3
134	134	10
171	171	9
150	150	2
27	38	2
0	42	5
167	200	3
136	136	3
122	122	2
144	145	2
34	36	2
201	201	5
225	225	1
100	219	2
142	173	4
80	172	5
233	234	2
7	9	1
209	209	9
0	1	2
134	135	4
69	137	2
18	21	2
214	214	4
11	214	2
97	97	2
39	56	2
115	126	3
12	15	4
174	174	7
48	64	3
188	189	3
2	3	2
32	32	2
113	113	7
170	179	1
127	127	4
221	221	3
220	220	5
33	33	3
213	213	2
240	240	1
211	211	11
148	148	4
136	138	5
198	198	7
103	103	2
99	100	3
37	39	4
71	232	1
214	215	1
84	84	3
36	36	5
133	133	2
69	69	20
169	169	5
80	81	2
199	207	7
11	11	11
190	190	5
113	128	1
214	216	2
114	119	4
189	189	3
176	176	4
50	68	1
108	108	1
63	63	4
150	151	3
168	168	1
77	77	1
211	214	3
190	191	4
202	202	10
17	18	4
49	55	2
8	9	1
70	241	2
27	28	2
50	65	1
28	29	3
163	188	1
74	75	2
179	179	2
18	22	4
16	16	2
219	220	2
207	213	1
108	124	3
219	219	7
177	208	3
10	219	1
232	233	6
152	153	3
40	42	4
166	166	2
31	219	2
173	174	2
85	85	10
103	105	1
54	54	2
35	35	2
117	118	1
30	31	1
104	105	2
39	40	1
56	59	1
208	208	2
177	177	1
51	54	1
197	197	4
221	225	2
202	203	2
199	200	2
62	63	2
4	6	2
5	7	2
24	25	4
109	114	2
42	47	2
44	44	6
82	84	1
55	56	2
41	41	4
225	226	1
227	228	2
47	47	4
40	40	3
159	159	4
102	102	3
98	131	1
138	139	2
108	109	2
26	26	5
180	180	6
17	17	5
28	60	4
5	6	1
107	107	2
74	84	2
65	66	5
141	141	1
14	15	1
157	157	2
185	186	1
82	82	3
71	73	2
170	171	2
65	65	5
51	51	3
125	126	2
97	101	2
11	12	1
128	128	2
101	124	1
80	80	1
149	197	1
56	56	1
160	161	2
196	196	4
104	104	3
33	36	1
21	22	1
195	196	1
164	164	2
204	206	2
188	190	1
96	97	2
84	152	1
31	222	2
51	52	1
233	233	3
123	124	1
210	211	4
98	99	1
25	26	2
88	103	3
27	168	1
226	227	4
9	10	1
20	67	1
39	39	2
212	213	1
9	99	1
49	49	1
160	160	8
153	154	1
12	170	1
65	75	3
63	64	3
59	59	1
31	220	4
37	37	2
5	21	2
151	151	2
24	24	1
172	205	2
2	2	2
70	71	1
96	104	1
15	16	1
9	9	3
129	129	2
38	39	2
192	194	3
31	31	4
207	208	1
23	37	3
138	140	1
50	52	2
168	178	3
217	217	1
69	70	1
43	61	1
150	153	1
44	61	1
81	91	1
106	109	1
80	92	1
157	183	1
10	16	1
6	9	1
120	223	1
54	55	1
235	235	5
119	119	1
182	183	2
153	153	2
4	7	1
143	147	1
12	14	1
34	34	1
11	230	2
112	112	1
73	73	2
162	162	1
10	242	1
180	183	1
153	155	1
89	155	1
96	107	1
100	106	1
191	193	2
192	192	1
60	60	2
190	192	1
184	184	1
31	32	1
50	51	1
125	125	1
210	228	1
135	136	1
37	58	1
37	42	1
144	146	1
109	205	2
234	235	1
70	240	1
194	196	1
172	173	1
30	69	1
193	195	1
203	205	1
126	127	1
3	7	1
80	171	1
74	77	1
48	49	1
49	52	1
131	131	1
165	186	1
174	203	1
152	152	1
11	16	1
229	230	1
146	147	1
68	68	1
6	6	1
157	163	1
40	41	1
103	116	1
0	218	1
