120	121	10
85	85	8
56	56	5
8	8	3
82	83	1
77	85	2
137	146	5
53	53	3
142	145	1
14	15	1
46	96	4
13	14	1
77	82	3
141	150	4
140	140	4
33	34	4
148	148	7
81	81	8
24	25	3
144	144	2
123	124	1
67	67	2
3	3	3
62	97	2
50	50	12
38	41	1
142	142	5
3	49	2
141	141	8
17	25	5
6	12	1
96	97	2
143	143	4
28	40	1
123	147	3
132	133	9
112	113	1
145	146	1
3	4	1
108	108	2
78	78	3
43	65	3
51	55	1
8	97	2
138	140	3
2	2	4
135	135	1
61	150	2
90	90	2
22	33	2
83	83	5
8	9	4
134	134	2
22	23	1
133	133	4
137	137	5
4	4	5
69	144	2
32	38	3
100	100	8
6	6	5
86	86	10
94	95	2
68	86	1
48	49	7
33	33	1
107	108	2
157	157	2
17	17	3
46	47	2
67	154	2
5	5	7
26	30	1
123	126	3
39	43	2
31	31	2
37	37	4
126	126	3
3	13	2
45	45	1
109	112	2
136	141	5
73	73	3
77	78	3
44	46	2
151	151	2
128	128	2
4	14	2
121	121	8
21	22	3
119	119	10
39	39	6
124	124	4
54	57	4
135	136	7
134	135	1
110	110	2
43	43	4
120	122	2
121	122	2
17	18	3
61	62	4
133	134	2
75	75	2
15	15	4
84	86	2
93	94	4
13	39	1
111	111	3
146	146	5
113	116	2
13	88	3
140	141	7
34	34	5
63	63	4
117	118	2
88	89	2
141	145	1
82	82	2
156	156	3
102	110	2
15	43	2
30	30	1
122	122	6
145	145	5
92	92	3
52	57	7
44	44	4
93	93	6
121	135	2
145	149	4
79	79	5
105	105	7
4	51	2
95	96	2
119	120	2
156	157	3
52	52	1
21	30	4
147	147	2
9	10	1
132	132	1
104	104	3
131	133	4
11	48	3
139	140	1
97	97	7
98	98	1
153	153	6
0	13	3
69	142	3
68	71	2
53	123	3
1	2	2
1	1	2
129	129	8
118	142	4
70	70	4
130	130	1
16	28	2
67	153	1
50	79	3
13	25	3
116	116	8
109	109	2
8	10	3
86	112	1
153	154	5
107	109	2
12	14	5
12	12	1
113	113	4
80	80	1
28	39	2
125	125	4
112	112	1
87	106	3
118	118	5
133	135	1
18	19	3
20	21	1
62	142	2
29	45	3
54	54	5
16	18	2
88	88	2
30	40	1
53	54	3
17	27	3
9	11	4
137	140	3
28	28	4
103	103	4
66	100	3
18	39	1
48	48	2
144	151	3
42	42	3
118	153	3
51	54	1
91	91	1
27	28	8
62	66	2
12	13	1
95	95	2
27	27	6
13	15	1
131	131	2
94	94	2
67	117	1
87	87	1
73	74	1
106	106	3
99	128	2
54	85	1
34	35	1
6	51	1
90	91	1
25	25	4
64	64	1
149	149	2
50	55	2
24	26	3
151	152	1
83	152	2
28	29	1
114	114	1
90	96	1
23	25	2
10	11	3
44	66	1
40	49	1
77	77	1
118	125	3
96	96	2
19	19	2
29	29	1
4	9	3
82	144	1
28	30	2
76	85	2
69	153	1
113	114	1
35	35	3
99	99	4
136	136	1
86	111	1
136	137	1
101	101	1
41	42	2
67	88	1
0	1	1
138	138	1
11	17	1
67	70	2
115	115	1
130	131	1
110	112	1
35	36	1
17	20	3
12	47	1
57	57	1
51	102	1
45	46	2
20	20	1
66	142	1
141	142	1
32	32	1
86	109	2
109	119	1
24	24	1
21	21	1
105	106	1
123	125	1
139	139	1
120	120	1
18	26	1
0	16	1
54	55	1
107	107	1
12	46	2
55	55	1
108	110	1
34	36	1
4	13	1
64	78	1
36	43	3
110	111	1
52	150	1
99	158	2
10	10	1
109	110	1
65	66	1
57	68	1
23	23	1
