53	54	3
68	82	2
20	20	1
102	102	5
25	25	12
72	73	3
37	39	5
78	78	11
42	42	10
28	28	13
59	59	3
77	77	14
63	63	9
111	111	10
32	32	9
74	75	4
85	85	21
19	19	3
32	56	2
80	83	3
112	112	5
95	95	3
19	20	1
88	90	6
104	107	6
72	72	10
40	40	4
94	101	4
57	70	2
100	101	3
106	106	12
109	109	16
30	31	4
26	27	8
44	45	2
62	66	4
89	89	6
34	50	5
60	60	6
112	113	3
71	72	2
101	101	8
51	51	8
46	46	11
28	29	4
75	75	10
60	67	2
67	67	5
35	64	1
110	110	4
88	89	10
23	27	2
40	55	2
30	53	4
89	93	2
94	94	10
96	97	2
34	65	2
44	44	6
102	103	2
57	57	4
58	59	7
39	39	11
40	43	6
65	113	1
29	76	1
71	96	4
107	107	3
105	105	15
83	83	5
78	79	8
86	95	1
76	76	4
83	88	3
80	80	5
66	66	9
48	93	1
38	39	3
69	108	4
31	75	4
76	83	1
24	24	6
70	71	6
68	71	3
64	90	2
73	74	4
41	73	2
37	37	6
87	107	4
50	50	6
59	60	1
68	99	2
76	84	1
30	30	5
80	86	3
88	88	2
80	81	2
90	90	4
100	100	6
85	98	4
26	26	9
45	45	15
49	49	4
53	58	2
66	67	1
62	62	5
42	49	4
107	108	3
29	109	1
34	35	8
52	67	3
56	59	4
48	49	5
65	65	8
69	105	2
32	53	2
31	54	4
82	112	1
28	114	4
100	106	3
113	113	5
87	88	4
79	99	3
52	59	2
47	49	1
33	47	1
61	61	2
81	81	12
82	83	4
72	75	2
50	115	2
52	60	1
46	47	8
87	94	3
62	63	2
69	82	1
31	110	1
23	26	4
64	64	7
35	35	7
34	110	1
67	76	1
72	74	4
47	52	1
107	109	3
32	51	2
20	101	1
33	34	3
36	37	3
95	101	4
65	66	3
66	91	2
29	57	3
93	93	10
68	68	5
56	57	5
38	38	5
28	61	3
96	100	6
48	48	5
91	92	3
47	47	5
88	93	2
29	37	5
86	87	1
55	81	2
29	53	2
36	96	2
33	48	2
71	101	4
31	31	7
22	22	4
83	84	3
101	102	7
89	100	1
58	58	1
91	91	3
74	74	9
105	106	2
31	32	1
31	38	3
60	65	1
22	28	1
36	36	3
79	79	4
51	114	2
106	107	2
81	82	3
92	92	3
55	55	3
30	33	2
70	70	5
113	114	4
43	48	4
27	27	5
40	92	3
36	91	1
85	88	1
34	48	6
103	104	2
52	52	7
55	58	3
33	33	5
65	91	2
29	61	5
21	45	1
97	97	6
97	106	1
43	43	2
37	58	1
30	56	2
21	21	4
59	80	2
22	29	3
67	99	2
34	39	2
23	23	2
31	55	3
23	37	1
45	92	2
70	96	1
82	84	3
103	107	1
41	41	1
29	29	7
79	103	1
65	111	2
80	109	1
46	92	1
31	36	1
35	36	2
42	51	3
69	69	7
29	56	3
84	112	3
25	27	2
36	38	1
75	76	2
84	85	2
71	75	1
85	91	3
53	53	1
108	108	1
19	22	2
56	56	2
52	53	3
93	98	2
66	90	1
59	81	3
55	61	1
30	41	1
96	96	2
34	47	1
47	48	1
46	49	1
27	83	1
100	109	1
32	38	1
44	49	3
41	42	1
19	53	1
87	87	2
85	86	1
103	103	1
71	99	1
29	60	1
73	73	4
54	78	3
31	37	2
114	114	1
43	45	1
90	91	1
82	82	1
55	57	1
72	77	3
98	99	1
89	90	1
43	46	1
94	100	2
60	61	1
86	86	1
91	110	2
93	94	1
23	29	1
64	65	2
41	111	2
90	92	1
104	104	1
22	23	1
