23	23	9
99	99	9
5	5	8
44	44	8
13	13	1
134	138	1
128	128	5
25	25	14
158	158	10
91	91	7
101	101	8
65	67	3
97	97	5
94	94	8
114	115	6
79	79	11
139	147	2
20	20	2
112	112	3
3	3	8
119	119	11
20	39	4
153	153	3
23	24	2
104	104	2
109	126	5
29	29	10
0	0	5
130	131	1
105	105	13
11	11	5
39	40	1
155	155	4
49	50	2
132	132	2
66	68	4
134	134	11
27	27	6
12	30	3
115	115	3
70	70	6
67	69	3
78	78	2
81	81	8
25	26	2
116	116	18
6	6	8
18	19	2
53	53	2
72	73	4
70	71	1
139	146	1
44	45	3
151	151	12
107	107	8
141	146	2
75	75	4
38	39	12
10	11	2
64	64	2
2	3	6
118	118	6
14	17	2
16	17	8
38	38	1
42	48	3
104	105	2
98	98	5
137	138	1
89	89	4
100	101	1
7	53	2
42	42	5
57	57	6
73	93	3
12	34	2
109	109	1
66	70	3
136	136	3
92	92	2
37	38	2
17	30	3
117	119	1
105	106	3
147	147	2
50	50	5
54	55	3
133	133	1
129	129	4
139	139	4
40	41	9
92	94	7
123	124	1
152	152	6
98	104	3
46	46	5
123	123	3
48	49	3
138	138	5
135	136	1
146	147	7
74	81	1
149	149	3
8	10	3
61	61	2
56	56	5
117	120	1
1	1	2
80	81	2
30	30	4
125	125	3
122	122	6
24	24	5
145	146	1
15	15	7
105	130	1
7	99	3
65	66	1
84	87	1
157	157	7
69	70	6
153	158	5
148	148	12
150	150	6
129	130	1
128	154	2
140	140	1
25	40	2
54	54	8
106	107	2
24	34	3
67	67	4
145	148	1
45	45	1
121	122	4
11	12	5
9	105	2
108	109	4
90	92	1
16	16	5
35	35	5
124	124	5
4	5	6
9	9	3
116	117	8
94	95	4
40	49	2
93	93	5
17	17	5
64	67	2
13	30	4
65	65	3
68	68	3
2	2	7
47	47	4
7	104	1
94	99	1
22	22	6
145	145	3
108	114	1
47	65	1
11	104	6
51	51	4
155	156	3
141	142	2
50	51	2
130	130	4
32	32	5
85	85	8
81	82	8
127	158	1
83	86	1
137	139	1
8	9	3
42	54	2
154	158	2
80	84	1
88	90	3
41	41	4
107	108	2
96	96	1
87	87	3
21	22	3
7	8	5
93	95	2
45	47	2
82	82	3
87	88	2
136	137	1
17	28	1
137	137	4
74	74	2
34	35	2
34	34	8
30	31	2
144	145	2
7	7	2
142	142	2
115	116	2
110	110	1
72	75	1
159	159	2
26	39	1
21	21	3
41	50	2
127	127	4
49	49	1
36	38	4
121	121	7
109	123	2
98	129	2
149	150	1
14	14	1
18	18	1
39	51	2
19	19	1
139	148	2
148	158	1
4	4	4
120	120	1
134	135	1
68	71	3
153	154	4
12	14	2
110	111	2
144	148	1
1	2	3
117	117	3
39	39	1
131	131	1
80	91	1
156	156	1
152	154	2
84	85	2
151	153	1
14	28	1
46	66	1
155	158	1
108	112	1
95	95	3
43	43	5
143	143	1
103	104	4
79	80	1
36	36	4
66	66	1
102	102	2
154	154	3
139	140	2
99	102	1
71	71	3
28	28	2
26	26	2
72	72	2
100	100	2
77	77	3
69	69	3
84	84	5
63	63	1
48	48	3
9	10	2
90	90	4
103	103	1
128	129	1
47	56	2
110	115	1
27	100	3
12	12	1
29	30	1
104	106	1
110	112	1
56	57	2
31	32	1
33	34	1
8	8	2
108	108	3
89	90	2
62	68	2
145	147	1
26	38	1
157	158	1
40	40	4
144	144	2
62	62	1
94	97	1
107	126	1
80	82	2
113	142	1
0	2	1
150	153	1
138	139	1
106	133	1
88	88	1
11	97	1
108	120	1
77	78	1
76	77	1
19	22	1
82	83	1
0	1	1
120	129	1
73	73	2
35	36	2
114	114	1
25	27	1
31	31	2
53	54	3
99	129	1
111	112	2
154	155	1
148	149	1
40	50	1
141	141	1
106	106	1
118	119	2
63	64	1
93	94	1
113	114	1
80	80	1
66	72	1
5	23	1
30	96	1
108	126	1
107	109	1
89	91	1
124	125	1
92	93	2
32	66	1
131	132	1
13	14	1
18	39	1
45	46	1
69	71	1
132	134	1
131	134	1
