53	54	5
87	91	1
2	2	20
68	71	5
50	51	18
101	101	18
27	27	8
20	21	8
55	55	12
80	82	6
4	4	18
152	152	8
81	81	10
71	71	8
71	72	2
38	42	1
79	79	10
21	22	7
11	11	22
123	124	9
107	107	28
51	52	7
73	73	30
99	99	16
27	32	4
98	98	16
26	26	12
83	84	5
17	18	18
126	127	7
123	123	8
51	51	4
50	50	8
139	139	17
122	122	14
118	125	1
143	144	16
75	75	16
41	43	7
54	54	16
94	94	23
148	148	18
126	126	6
118	119	1
9	10	1
30	32	5
21	48	5
14	15	2
78	78	7
96	96	3
99	101	1
40	41	7
130	131	7
135	135	9
127	127	14
0	0	12
16	16	14
115	117	3
112	112	12
6	7	1
111	112	6
97	97	10
137	137	7
127	135	4
131	131	15
115	115	14
10	19	1
43	43	12
91	92	5
136	136	8
47	47	8
80	80	17
117	120	6
6	6	8
77	78	7
156	156	19
155	155	4
5	73	3
94	95	8
38	39	8
147	147	9
113	114	2
5	5	9
46	46	21
44	44	13
1	99	4
28	28	14
121	122	14
157	157	9
116	117	11
141	155	2
118	120	10
22	22	10
33	33	7
128	128	16
35	35	19
7	7	13
130	130	16
39	40	13
117	117	12
103	103	21
54	55	9
93	93	9
113	121	1
92	92	4
49	51	5
96	97	3
88	88	21
142	142	10
52	52	21
45	46	7
64	64	3
117	133	1
66	66	2
19	19	7
42	42	4
139	140	4
77	77	18
111	111	10
65	78	3
39	39	5
37	37	5
29	36	2
141	141	2
108	136	3
106	106	10
86	86	14
80	81	10
73	75	2
116	116	7
8	10	2
23	23	8
115	121	2
118	118	5
146	157	5
67	69	4
32	32	12
131	157	1
33	34	5
10	11	3
155	156	5
67	71	3
150	151	5
72	72	11
119	120	4
92	93	8
128	130	4
67	67	18
12	12	6
68	70	2
25	26	4
157	158	10
152	153	11
33	38	2
7	11	3
88	90	7
158	158	4
145	145	12
14	14	2
88	89	9
90	90	4
8	8	19
3	3	14
104	106	5
112	120	3
31	31	22
52	53	10
1	1	11
30	36	3
90	91	5
144	146	5
106	110	2
43	44	3
100	100	16
82	94	6
104	105	7
17	17	10
63	68	2
137	138	3
1	2	4
45	45	6
24	24	12
9	9	6
124	126	4
12	13	4
65	66	9
48	48	10
105	106	5
120	120	4
70	70	8
113	115	3
90	93	2
134	155	2
104	104	14
135	139	2
110	112	2
24	28	4
21	21	10
132	148	3
85	91	3
22	23	2
133	148	5
95	96	12
91	91	21
135	136	9
116	148	6
156	157	2
88	92	2
133	141	1
69	70	2
70	72	3
140	148	2
53	53	10
132	132	6
2	17	1
127	132	3
143	143	6
18	18	8
122	132	2
73	74	2
149	152	3
20	33	3
150	150	8
13	14	9
36	102	3
28	30	3
31	33	2
148	149	7
158	159	2
100	101	7
152	156	2
38	38	4
79	81	3
0	100	3
138	139	4
87	87	8
30	30	1
26	28	1
87	123	5
7	100	1
87	88	11
117	122	2
84	84	10
144	144	1
93	95	1
69	71	5
108	111	5
13	13	9
82	82	5
121	121	5
23	47	2
0	3	3
81	82	7
97	98	8
105	107	1
0	5	2
84	85	1
95	95	11
98	99	6
95	105	2
89	90	2
140	140	5
100	121	3
78	110	3
41	41	13
39	41	1
129	129	9
38	45	2
124	125	2
16	17	7
135	148	2
31	32	3
36	36	12
28	29	1
33	36	3
13	15	2
35	37	1
134	135	5
118	148	5
50	65	2
144	145	1
3	8	9
19	23	2
142	144	1
149	149	7
14	28	1
125	126	6
79	80	2
107	111	2
64	71	1
3	4	5
30	48	2
85	85	11
110	110	2
26	27	3
117	144	5
36	75	3
97	106	4
135	138	2
153	155	1
146	146	8
143	149	3
139	155	2
56	67	1
23	28	1
4	5	5
22	75	2
25	25	7
40	40	4
153	153	3
12	106	2
39	104	5
30	31	3
49	49	4
103	104	8
102	105	3
23	24	3
127	130	3
116	133	1
131	148	2
49	50	3
29	30	4
125	125	2
115	116	3
110	111	1
134	136	4
99	105	5
129	130	3
138	138	9
112	113	1
69	83	3
31	37	2
40	42	4
116	132	1
140	141	2
131	137	4
92	99	1
134	134	4
133	134	3
102	103	2
68	68	2
7	23	1
34	103	3
29	29	4
42	43	5
20	20	8
66	67	3
151	151	8
95	98	1
86	88	1
81	91	4
105	105	9
50	54	2
46	47	9
89	89	4
102	102	8
19	20	3
151	158	2
77	79	2
105	120	3
93	94	3
6	156	1
109	109	6
154	155	1
132	157	2
106	107	6
18	30	1
128	129	1
113	137	3
34	35	2
42	100	2
34	34	1
36	37	4
108	109	2
29	39	1
126	144	1
1	98	2
3	24	2
112	121	2
80	93	2
144	147	1
154	154	1
62	63	1
39	46	2
113	116	1
48	49	3
47	48	3
30	49	3
114	114	3
95	97	4
86	89	1
68	69	1
39	43	1
114	115	2
2	3	1
82	92	1
102	129	1
2	5	1
131	135	1
56	56	1
86	87	2
121	123	4
89	121	1
77	96	3
143	145	2
28	87	3
0	22	1
143	147	1
3	158	1
127	134	1
46	50	2
120	121	1
46	48	3
76	77	3
149	153	1
15	107	2
32	36	1
127	147	2
120	122	1
113	123	1
15	16	1
120	123	3
95	102	1
139	156	1
29	34	2
63	63	1
129	131	4
10	10	2
44	45	2
133	140	1
93	98	2
67	68	1
117	119	1
63	64	1
79	94	1
129	136	1
111	134	1
24	96	1
142	150	2
92	137	5
1	4	1
84	91	1
46	49	1
84	96	5
0	4	1
80	91	1
36	42	1
16	106	2
127	128	3
117	132	1
124	124	3
109	113	2
46	73	1
83	83	1
23	30	1
84	88	1
54	76	1
137	155	1
132	133	2
48	51	1
146	147	5
140	155	1
133	157	2
151	152	1
136	138	1
131	133	1
132	136	2
142	154	1
131	146	1
0	1	1
147	148	1
107	108	2
14	24	1
7	8	1
131	132	1
57	64	1
130	158	1
77	107	1
51	53	1
133	156	2
153	154	1
141	145	3
51	66	1
117	118	1
36	77	1
135	157	1
72	73	1
110	114	1
82	83	1
35	101	1
5	6	1
55	77	1
99	104	1
101	102	1
153	158	1
3	23	2
126	145	1
