124	125	10
135	135	10
9	11	3
55	55	4
12	12	15
105	105	3
16	16	23
148	148	21
151	168	3
81	81	10
78	78	3
138	139	7
177	178	3
130	130	8
39	40	10
129	130	6
14	24	2
35	35	8
102	111	1
26	26	13
96	97	1
20	20	3
93	95	3
57	57	14
115	116	2
63	63	7
107	151	2
19	19	6
142	142	8
118	119	5
68	68	7
0	1	3
123	123	6
76	77	3
33	34	8
19	20	6
88	114	2
138	138	11
58	58	11
2	4	4
28	28	4
79	94	3
73	174	7
41	41	13
0	4	1
26	37	1
37	40	3
134	134	26
66	66	5
71	72	11
10	10	12
85	88	2
14	14	13
92	93	2
154	154	10
3	3	10
39	39	11
91	94	1
139	140	5
124	124	11
111	111	4
60	64	3
138	151	3
72	73	5
38	39	12
20	21	6
123	124	4
13	13	17
10	12	3
91	91	17
31	31	4
56	57	2
24	24	15
173	176	5
127	129	3
114	114	3
121	122	3
105	106	5
51	51	11
18	18	8
11	12	9
159	159	5
40	41	3
42	42	6
131	157	4
172	172	5
115	115	5
166	166	5
104	105	4
8	8	18
5	31	2
3	39	3
42	44	7
74	74	8
55	56	6
108	108	5
131	131	6
1	1	6
49	50	4
15	15	23
37	38	2
0	0	7
34	34	7
5	6	5
136	137	6
67	67	10
54	55	2
57	59	2
73	73	20
141	141	21
133	133	11
78	95	1
33	33	12
59	59	7
22	22	9
61	61	5
170	170	10
5	15	7
90	90	9
91	106	2
128	129	2
142	143	1
164	164	1
156	157	2
117	128	1
172	173	7
71	71	6
159	160	3
167	171	4
32	44	4
8	9	6
97	163	2
157	160	3
144	144	5
127	127	3
15	16	10
94	124	8
74	169	1
152	153	8
65	100	4
10	44	3
43	44	5
50	51	5
101	101	3
124	176	4
110	110	3
153	154	4
176	176	16
10	11	10
80	81	2
179	180	4
168	168	8
72	72	3
166	167	1
42	45	2
78	79	3
146	146	14
169	169	3
23	23	6
122	125	7
32	32	10
60	61	3
132	132	8
79	80	2
7	7	16
149	149	7
23	25	3
73	173	1
32	33	17
16	39	1
56	58	2
153	153	5
172	175	3
21	30	4
6	6	12
56	56	4
77	116	2
121	121	3
124	139	5
11	11	7
20	23	3
119	119	2
37	37	8
89	89	8
54	54	12
27	27	15
52	52	5
107	108	1
29	29	5
75	75	2
31	33	2
127	178	3
118	118	5
40	40	17
74	168	1
14	22	2
22	23	3
168	170	6
14	15	5
116	116	4
12	13	4
95	132	1
2	3	1
117	118	4
106	106	7
95	124	1
158	158	6
36	37	2
30	30	7
38	38	21
44	44	5
4	6	1
106	166	3
76	76	4
44	50	1
67	84	1
5	14	4
21	21	7
139	139	9
143	144	6
9	9	10
27	29	1
178	178	3
151	152	3
126	165	4
179	179	7
104	104	5
114	120	2
84	85	4
45	45	12
173	175	8
147	147	5
9	103	4
114	115	6
9	152	3
136	136	6
150	150	4
79	92	2
93	94	5
103	103	2
4	4	10
151	151	5
6	32	1
65	82	5
120	121	2
96	103	3
30	32	4
17	18	4
13	15	1
113	114	6
12	42	1
28	37	4
156	156	8
147	150	2
82	82	2
97	97	10
77	77	3
145	145	3
118	120	1
139	147	4
173	173	5
65	65	8
24	25	1
118	127	1
7	8	4
167	167	6
9	62	1
159	167	4
3	4	1
125	125	6
176	177	2
35	39	2
57	58	8
167	169	1
23	24	1
95	96	6
122	122	5
40	43	1
141	166	2
17	43	1
157	158	3
106	152	1
119	125	4
153	155	1
58	59	7
36	36	7
143	143	8
145	146	2
149	150	2
80	80	5
28	29	3
171	174	3
10	64	2
113	115	5
60	60	7
92	115	2
99	105	2
63	65	4
140	140	4
152	152	6
8	152	1
10	16	1
161	161	4
174	174	4
146	147	5
130	161	5
14	16	4
9	39	3
16	17	3
24	27	3
8	10	6
103	104	3
95	125	1
178	180	1
88	88	5
64	66	1
112	113	1
109	109	3
7	11	3
5	5	7
100	158	1
120	120	2
51	59	3
18	36	4
132	136	4
11	15	2
30	31	3
116	117	4
90	91	3
137	141	1
29	31	3
19	21	2
147	148	2
167	168	1
128	130	1
40	42	2
92	92	9
49	49	2
137	137	9
96	98	1
95	95	4
31	35	1
132	133	2
165	165	5
17	19	5
68	83	3
2	5	1
90	92	3
53	53	4
18	28	2
107	164	5
177	177	2
113	120	1
105	107	1
41	42	3
126	177	1
131	132	4
142	163	1
133	136	2
117	117	3
143	149	1
107	107	1
126	169	1
178	179	2
34	35	2
63	84	2
62	62	1
30	37	1
92	118	2
102	102	3
96	96	2
93	93	5
64	64	9
42	43	1
97	118	1
21	29	1
38	41	1
160	162	1
29	30	3
13	14	3
15	20	1
158	159	1
14	25	2
148	159	1
0	3	2
154	157	1
117	134	1
38	40	1
35	36	2
128	128	3
86	89	2
43	43	1
161	162	4
87	87	4
164	166	1
37	44	1
50	50	1
144	145	2
80	83	1
157	157	1
131	160	1
131	155	1
2	2	4
79	82	1
25	25	1
18	40	1
17	17	5
100	100	1
98	98	1
17	20	3
171	172	2
98	99	1
76	78	3
4	8	1
96	118	2
89	90	1
83	83	1
171	175	1
127	128	1
39	41	1
106	111	2
15	27	1
142	148	1
171	171	4
1	2	3
62	63	2
160	160	1
4	16	1
65	80	1
110	111	1
141	142	3
175	175	1
92	119	1
37	43	3
45	46	1
164	165	1
127	169	1
98	118	2
6	7	1
84	84	2
142	170	1
7	10	1
148	161	1
126	127	1
75	76	1
89	96	2
40	103	1
79	79	2
117	129	1
112	112	1
129	134	1
20	39	1
113	113	3
19	40	1
10	13	2
73	76	1
106	151	1
86	86	1
8	11	1
70	70	1
133	134	2
165	166	1
26	30	1
62	86	1
52	54	1
142	149	1
162	164	1
102	156	1
12	15	1
175	176	1
25	29	1
59	60	2
16	18	2
28	44	1
93	178	1
129	129	2
114	136	1
61	64	1
72	171	1
64	65	2
139	153	1
163	163	1
16	41	1
130	132	1
180	180	1
162	163	1
174	175	1
163	164	1
44	45	1
