105	106	6
118	119	10
120	120	17
91	92	9
76	76	16
2	2	7
79	79	9
127	127	33
27	32	3
93	94	4
135	135	24
21	21	12
13	13	10
130	130	33
137	137	13
108	129	3
133	133	33
8	8	13
33	33	18
31	31	6
75	75	22
7	7	5
35	35	6
111	112	10
129	129	25
122	122	23
32	32	19
101	117	4
126	126	26
131	131	55
116	116	24
98	98	22
25	25	5
21	26	3
117	120	4
4	36	3
132	132	25
97	97	17
127	134	2
24	24	1
88	88	11
100	100	15
72	79	2
99	100	5
114	134	2
27	28	4
83	84	3
125	125	17
139	139	18
128	129	12
96	96	16
11	14	2
136	137	2
128	134	4
7	11	3
75	76	4
114	115	4
131	134	1
108	108	11
19	19	22
91	91	12
131	132	4
11	23	1
99	99	10
16	16	11
107	107	11
102	103	3
73	76	4
73	73	14
81	81	7
5	21	1
7	9	7
121	121	16
128	128	30
12	30	3
132	133	5
127	128	19
6	6	7
95	95	12
92	95	2
84	84	9
139	140	17
125	127	4
112	112	9
10	12	5
34	35	11
117	123	3
72	73	6
76	77	1
101	102	1
115	132	2
119	119	18
12	12	9
21	37	1
13	24	2
5	5	11
71	71	5
10	10	2
101	101	25
106	106	2
103	103	7
78	79	4
20	20	18
11	11	4
17	17	4
138	138	27
19	20	3
124	124	23
11	15	3
132	134	7
71	79	3
117	117	5
1	1	3
73	77	3
107	121	3
2	25	7
86	86	6
113	113	12
93	93	8
116	124	5
117	122	2
74	81	1
134	134	51
35	36	2
22	22	7
3	4	6
18	18	14
84	86	4
34	36	5
110	110	4
7	21	2
82	84	2
87	87	20
130	131	4
123	123	19
136	136	23
99	124	2
112	114	3
94	94	10
13	20	1
27	27	7
6	20	3
31	111	3
82	83	4
26	26	5
75	77	7
85	86	4
78	78	9
90	90	6
140	140	18
135	138	2
4	4	12
96	128	2
89	89	15
18	19	2
0	0	14
112	113	4
83	83	7
108	109	7
14	18	3
107	110	3
25	26	2
2	26	3
132	138	1
123	124	12
109	109	6
114	114	8
121	122	6
115	115	21
107	108	3
20	21	2
71	73	3
104	105	9
15	15	4
72	102	2
12	21	1
96	97	6
77	77	3
105	117	1
117	119	7
133	139	3
28	32	4
28	29	2
28	28	5
125	126	9
86	87	6
88	89	2
94	95	6
133	138	2
111	111	12
92	92	5
136	140	2
114	116	7
104	118	3
76	78	3
94	131	3
122	123	7
109	110	5
134	135	4
120	123	1
124	134	1
96	125	2
12	14	1
21	25	1
34	34	2
9	9	5
132	135	2
74	79	2
98	99	8
3	26	1
5	36	1
135	137	3
23	23	3
98	127	2
80	80	7
95	133	4
83	85	2
138	139	4
27	29	3
101	110	3
72	72	9
32	36	2
129	130	3
15	16	3
74	74	18
31	32	6
8	9	6
126	132	3
137	138	5
17	19	5
91	104	2
124	125	11
118	120	7
9	10	2
15	19	3
103	104	5
36	37	3
99	114	1
12	13	3
89	90	3
103	118	1
3	27	2
4	37	1
74	75	5
37	38	1
76	79	1
29	32	5
17	20	2
2	4	1
37	37	5
108	116	1
33	34	1
81	85	1
101	111	4
105	105	5
23	24	4
85	85	8
116	117	2
114	132	3
102	102	5
36	36	2
24	26	2
14	15	2
118	118	6
3	3	5
114	117	2
10	11	2
74	101	2
127	129	3
5	6	3
17	77	5
130	132	2
107	109	1
77	78	1
5	7	2
4	5	2
95	125	1
104	106	4
113	114	4
105	108	1
103	106	2
135	136	1
110	111	1
129	133	1
124	127	1
100	127	2
95	96	1
11	27	1
14	14	5
22	37	1
6	35	3
91	106	2
80	87	3
11	12	1
119	120	3
9	24	1
90	91	1
0	2	2
30	30	5
15	31	1
79	80	1
92	93	1
74	77	1
136	138	1
133	135	1
106	119	1
71	72	1
73	141	1
80	82	1
12	15	4
22	23	2
77	79	2
15	17	1
114	118	1
97	98	3
18	33	2
9	13	1
129	140	1
126	129	1
121	123	2
2	37	1
5	38	1
22	35	3
126	127	2
106	107	2
84	85	1
24	25	1
29	36	2
120	121	1
128	130	1
16	17	1
117	118	1
11	25	1
80	85	1
100	101	1
104	104	3
86	102	1
91	102	1
131	137	1
112	115	1
3	36	2
82	82	1
105	115	1
106	117	1
87	88	1
21	22	1
6	19	1
17	18	2
114	124	1
130	133	1
5	11	1
133	134	2
98	130	1
4	21	1
38	38	2
7	25	2
1	3	2
13	15	1
136	139	1
106	118	2
72	78	1
74	115	1
13	17	1
29	30	1
9	12	1
