11	13	2
76	77	6
81	81	17
83	84	4
114	114	6
1	1	15
117	117	4
26	31	6
130	130	12
21	23	6
97	98	5
110	110	6
25	26	8
126	132	1
80	107	6
120	120	3
84	84	4
35	35	19
93	93	4
135	137	6
131	131	9
28	28	7
116	117	6
78	125	4
21	21	10
3	3	13
103	103	4
94	95	7
85	85	10
83	83	7
72	109	6
6	6	8
71	124	3
126	126	8
93	118	5
82	138	1
132	133	3
16	17	6
37	37	9
4	4	10
20	20	2
121	121	8
75	75	12
93	112	4
103	104	4
34	34	3
91	118	4
2	2	5
71	71	1
89	89	15
103	106	3
135	135	9
26	26	11
12	30	3
96	103	5
33	33	9
30	30	8
86	86	6
75	79	1
72	72	7
18	18	9
125	126	2
122	122	11
1	7	6
94	94	11
24	24	4
134	134	8
133	134	3
12	21	4
12	13	3
10	20	2
78	80	3
134	135	3
112	112	7
105	106	5
23	23	6
136	136	6
8	8	9
140	140	4
19	21	4
7	8	1
125	125	4
34	35	2
122	123	3
6	7	4
77	122	1
132	132	3
4	17	2
138	138	7
86	112	2
81	106	4
7	7	10
10	10	7
32	37	1
11	24	2
19	19	2
133	133	2
108	108	1
12	12	3
22	114	6
101	134	2
128	128	6
31	31	6
36	36	3
7	9	2
78	123	3
88	121	1
92	94	6
136	137	2
74	86	2
6	13	1
32	32	2
0	0	4
78	106	1
91	92	1
116	119	1
78	79	5
8	9	2
127	132	4
78	78	3
4	30	3
104	104	9
10	11	4
139	139	2
95	96	4
17	20	1
1	5	2
106	107	2
109	121	2
26	28	1
131	133	1
28	30	5
92	98	2
124	124	11
0	7	2
100	132	7
16	88	1
124	128	2
130	134	3
97	97	7
3	4	1
36	37	5
101	102	1
92	116	2
137	137	3
33	34	2
27	30	2
23	25	4
18	19	3
11	11	2
127	127	3
89	113	1
113	114	2
96	96	3
95	95	3
7	23	1
5	13	4
119	119	3
110	111	3
129	130	3
14	29	2
115	115	7
121	122	1
99	99	5
10	32	2
8	23	4
137	139	3
23	24	2
128	129	3
101	128	1
3	14	3
101	113	4
105	105	4
96	97	7
99	125	2
81	134	1
111	112	1
6	16	1
17	19	1
2	22	1
92	92	4
10	31	4
14	14	2
27	32	3
26	27	2
89	111	1
99	111	1
17	22	1
115	118	1
123	124	3
0	25	1
80	129	2
89	91	3
98	101	3
79	79	3
79	135	1
123	123	10
100	100	1
6	22	1
101	132	3
76	76	4
12	14	3
29	29	1
99	113	2
85	86	2
13	21	3
118	130	1
82	82	6
113	113	1
124	127	2
22	22	6
31	32	2
109	122	2
91	91	2
72	137	1
0	13	2
88	88	4
126	127	1
115	121	2
11	12	1
29	30	1
114	115	2
20	82	1
2	6	4
111	111	1
89	130	1
127	128	2
2	24	1
86	100	1
91	97	1
126	129	1
86	93	2
78	82	1
85	113	2
80	80	1
101	101	5
9	9	2
6	20	1
129	129	2
11	81	1
5	12	1
16	16	1
136	138	1
82	83	4
9	44	2
74	75	4
9	24	2
126	128	3
29	79	2
118	118	3
85	94	1
109	115	2
71	83	1
7	13	1
77	77	2
109	109	2
33	108	1
107	107	2
103	107	2
89	112	1
79	81	1
21	22	1
27	27	1
104	119	1
119	123	1
13	26	1
106	106	1
90	91	1
74	74	2
5	5	1
90	90	1
25	25	1
16	19	1
73	73	1
92	118	2
93	115	1
80	122	1
137	138	1
131	132	1
10	12	1
