91	95	2
4	4	15
33	33	16
12	19	2
131	131	27
16	16	11
14	14	26
128	128	32
120	120	33
123	123	50
128	129	21
76	89	2
94	94	11
135	136	4
2	17	5
136	136	15
108	108	15
88	88	19
129	129	33
101	110	2
84	84	23
132	132	33
90	91	16
77	86	1
127	128	7
11	11	33
71	71	6
82	82	20
7	33	1
74	76	7
116	117	14
18	18	27
2	4	12
25	25	15
97	97	24
73	105	1
110	111	29
81	81	13
115	116	6
89	90	5
1	2	8
103	103	15
5	6	6
96	96	14
107	107	20
85	87	5
72	72	25
76	80	3
83	83	12
7	7	19
111	112	6
73	106	1
139	139	16
28	28	23
101	103	7
77	82	2
20	20	25
25	28	2
102	103	8
26	108	6
121	121	31
125	126	7
25	27	2
133	133	20
116	116	25
85	85	15
130	130	25
126	126	52
36	36	28
111	114	3
86	87	6
129	136	8
3	4	21
15	16	1
109	109	14
124	125	12
19	22	2
134	134	29
1	1	27
100	101	7
7	8	6
131	132	14
29	102	2
87	89	3
95	95	22
88	90	5
120	122	15
105	109	6
37	37	17
73	75	6
100	100	22
120	121	11
119	120	7
83	84	10
4	8	1
115	115	15
34	34	35
91	91	24
29	32	3
81	82	8
125	125	25
138	138	25
98	99	7
99	100	3
32	32	7
126	127	8
137	138	16
74	75	5
118	118	17
117	117	28
103	104	15
19	19	17
13	32	3
105	116	5
77	80	4
23	23	8
93	93	17
91	96	1
11	12	5
30	30	27
89	89	21
9	32	3
16	17	1
9	11	1
17	19	2
1	20	2
136	137	10
22	23	2
0	19	1
73	74	12
124	124	37
133	134	8
104	105	13
106	108	3
121	123	11
92	93	4
79	79	21
17	18	3
7	20	4
79	91	1
3	3	30
84	85	6
104	116	7
8	8	30
75	75	8
42	86	1
29	29	20
77	78	7
25	29	2
105	105	9
37	38	11
15	15	19
98	98	25
114	127	2
95	128	3
17	17	15
23	24	12
24	26	7
123	136	1
108	111	3
31	31	12
26	28	1
91	92	8
78	78	22
74	74	18
9	9	7
115	124	4
3	5	9
27	27	21
135	138	12
10	11	10
113	114	3
96	98	10
25	26	9
122	122	38
114	115	9
8	11	4
17	108	1
79	85	6
80	80	26
124	126	12
114	114	24
113	113	10
104	104	24
78	80	7
35	35	17
106	106	32
140	140	23
6	7	3
132	133	16
129	130	6
6	112	1
36	38	2
4	6	2
18	22	2
110	110	13
7	28	5
117	124	4
135	135	36
103	108	4
85	128	2
1	19	6
12	72	5
123	124	16
72	73	16
5	5	25
78	84	2
78	82	4
95	96	2
73	73	15
123	126	3
119	119	16
137	137	18
12	30	1
12	23	2
102	102	20
18	21	11
85	86	7
99	99	10
76	76	15
112	113	17
138	139	6
31	32	2
2	2	17
28	30	4
0	1	9
7	14	2
12	12	21
77	77	18
118	122	1
122	123	12
117	118	6
80	118	2
125	127	3
112	115	4
92	92	4
35	36	4
90	93	7
6	6	12
112	112	40
93	94	13
107	117	4
130	131	7
26	27	2
90	140	4
2	3	7
134	137	7
22	26	1
78	79	11
22	25	2
129	135	4
33	111	1
112	125	2
82	83	4
24	24	16
107	111	1
114	125	4
110	115	2
132	134	1
113	121	6
2	5	2
14	15	2
71	106	1
87	87	12
116	128	1
86	88	8
22	22	6
101	101	21
107	108	4
71	73	3
80	93	3
100	135	1
21	21	10
38	38	7
89	95	1
87	88	7
28	29	10
107	109	6
8	31	5
26	26	13
113	126	2
27	29	6
109	117	2
105	106	5
3	23	3
82	84	4
10	10	14
136	138	12
112	116	4
9	10	3
121	122	12
26	102	2
107	131	1
75	76	4
118	119	4
127	127	14
72	83	5
118	120	7
76	77	3
34	35	3
96	97	3
18	19	7
108	109	10
125	128	2
14	33	3
90	92	2
13	13	17
107	115	1
109	122	3
27	38	6
91	93	1
134	138	2
24	25	6
111	115	2
2	20	2
13	17	1
36	37	4
4	5	2
134	135	10
13	14	7
21	22	9
7	18	2
130	137	2
110	112	2
93	119	1
6	8	3
27	28	3
109	110	4
16	19	3
103	117	3
101	102	6
127	135	3
32	38	1
4	121	2
102	122	3
8	32	5
105	117	1
71	94	1
79	93	4
3	12	1
79	80	6
104	106	1
20	21	5
5	9	2
0	24	1
80	81	1
111	111	4
1	16	2
95	123	1
1	15	1
33	35	2
0	0	8
73	87	3
79	86	2
105	111	1
86	86	21
19	20	6
117	120	3
95	100	3
105	108	5
94	139	3
7	26	2
28	32	1
76	84	2
0	12	3
78	85	4
108	110	3
108	120	2
11	23	1
72	74	1
27	30	3
129	138	1
19	23	1
126	128	1
135	137	2
19	21	3
79	87	4
97	98	2
10	16	2
139	140	4
3	121	3
5	26	2
117	119	8
71	99	2
96	125	1
21	33	3
125	135	2
110	135	2
44	71	1
11	32	2
124	135	1
9	24	4
15	19	1
71	72	3
134	136	2
90	90	8
74	107	3
18	112	1
109	111	6
27	100	1
9	12	6
44	44	1
123	127	1
132	136	2
74	83	3
29	30	2
12	13	4
7	9	2
128	137	2
78	86	3
4	21	1
92	94	2
92	120	2
71	105	2
94	95	2
12	21	3
8	9	2
71	92	1
104	107	3
0	8	2
76	118	2
19	137	1
112	114	1
98	126	1
101	104	2
3	21	2
71	114	1
122	125	2
12	31	4
68	71	1
128	139	3
125	138	1
106	121	1
99	130	1
106	107	7
124	132	1
3	113	1
74	115	2
5	23	2
0	7	2
11	15	1
7	88	1
30	31	2
88	89	2
13	31	2
73	83	2
0	6	1
8	10	1
137	139	1
1	35	1
2	25	5
78	87	4
98	100	2
114	122	2
87	93	1
108	118	2
100	125	1
29	94	2
115	118	1
111	136	1
104	109	1
74	140	1
22	24	1
104	117	3
72	105	1
89	123	2
5	25	1
115	127	1
74	114	2
77	88	1
14	21	3
88	136	1
129	139	1
77	87	1
7	27	1
84	87	1
74	85	1
79	82	1
117	122	1
104	108	1
108	131	1
131	140	1
116	124	3
16	18	2
6	14	1
132	137	1
1	22	2
12	14	2
74	125	1
140	141	1
5	7	2
79	88	1
88	135	1
105	110	2
0	23	2
12	32	1
92	122	1
88	124	1
8	14	1
114	124	1
1	23	1
17	136	1
77	79	1
0	14	1
13	21	1
115	120	2
133	135	1
67	106	1
76	85	1
124	136	2
26	109	1
0	2	1
9	23	1
15	17	1
24	30	2
73	107	1
6	26	1
33	34	2
126	129	1
113	115	1
4	22	2
127	129	1
118	121	1
7	23	1
76	87	1
73	78	1
29	81	2
17	20	1
109	112	1
75	116	1
106	131	1
111	116	1
106	117	1
6	24	1
119	123	1
130	132	1
78	83	1
113	122	1
18	116	1
85	125	1
75	77	1
