25	40	1
154	154	1
139	144	2
84	84	10
11	12	8
28	28	4
124	132	1
64	84	5
47	118	3
68	69	1
25	25	8
123	125	5
94	96	2
44	44	13
12	14	3
51	57	1
25	27	6
101	102	2
148	148	12
18	97	3
58	58	2
16	16	9
108	108	4
142	142	6
11	15	2
54	54	12
105	105	6
6	7	3
126	126	6
81	81	10
41	99	1
128	128	4
139	139	9
120	121	8
130	130	7
75	75	7
137	137	4
63	63	5
96	96	8
88	88	6
49	109	2
29	69	2
42	42	14
107	107	4
38	38	7
71	71	16
116	116	4
144	145	6
33	82	3
97	101	1
79	79	7
27	27	2
74	80	3
48	62	2
105	110	6
29	30	4
82	83	7
51	51	9
62	62	5
94	95	9
153	153	5
102	102	4
78	78	9
97	97	5
21	21	11
78	81	1
143	143	6
87	87	12
103	103	7
25	45	3
2	24	2
34	34	9
40	40	6
13	13	17
64	64	4
40	41	2
134	134	7
25	118	1
140	140	5
6	6	6
4	4	12
65	66	4
35	35	11
15	24	2
104	150	4
89	92	1
3	4	7
57	57	2
6	20	4
95	95	7
35	112	5
82	82	7
41	41	7
37	37	6
68	68	8
77	77	5
92	94	3
55	55	3
30	30	3
7	7	4
102	108	3
9	10	3
73	80	2
20	25	2
149	149	3
14	16	2
109	109	5
50	58	4
5	25	3
134	135	4
68	72	2
94	99	2
8	8	11
50	51	4
63	64	3
32	32	8
103	107	4
15	16	1
70	70	6
126	127	1
11	11	9
149	150	3
145	147	9
41	74	1
118	118	6
35	36	1
48	48	7
90	91	1
117	117	4
98	98	5
27	29	5
112	112	9
22	22	15
36	38	1
73	74	6
5	27	3
99	99	3
49	57	1
31	31	6
152	152	9
44	100	2
78	80	2
86	88	2
39	39	3
64	65	1
24	24	7
105	109	6
135	135	8
43	43	10
87	98	1
76	76	12
42	87	3
121	121	5
5	6	2
56	56	6
101	124	3
114	114	1
129	129	8
67	67	5
9	132	5
124	129	1
17	17	9
3	3	4
87	88	3
81	82	4
47	48	1
74	78	2
138	138	10
34	112	8
23	25	3
119	119	6
42	83	1
20	20	14
122	123	8
30	118	4
47	50	2
38	39	5
16	130	2
135	136	5
121	144	3
28	93	5
82	87	2
85	85	10
40	96	1
126	128	3
19	20	1
73	73	7
17	18	6
101	101	2
137	142	2
147	147	3
44	45	1
121	122	1
88	93	1
15	25	1
51	77	1
50	65	5
75	76	8
26	26	5
65	78	1
112	113	3
142	143	1
96	103	3
70	79	1
6	13	1
23	23	2
106	130	1
12	12	8
30	79	2
66	66	4
139	141	1
115	116	1
83	93	3
9	9	1
141	142	5
106	107	4
39	53	2
100	101	2
133	133	3
124	124	2
92	109	1
56	66	1
75	91	2
120	120	1
76	77	1
49	50	2
29	86	2
28	29	10
33	33	7
122	149	1
8	9	3
66	67	2
10	10	7
100	100	7
125	143	1
123	124	1
52	57	3
71	77	1
5	20	1
42	43	2
14	14	11
78	79	2
32	81	2
19	19	10
97	127	5
13	24	3
98	99	1
74	74	6
78	83	4
83	91	3
144	146	3
17	19	4
139	140	2
145	145	3
39	77	3
45	45	8
79	85	4
110	110	3
50	96	1
76	78	4
65	65	7
26	94	4
107	108	2
32	33	3
35	113	1
136	136	7
47	53	2
120	122	4
114	151	4
109	110	2
79	83	2
141	141	3
69	69	9
120	127	2
18	18	10
78	86	2
5	5	7
49	49	2
125	125	2
123	123	6
33	34	2
127	147	1
38	65	1
33	112	1
18	19	1
30	92	2
7	24	1
93	93	6
30	32	3
67	84	2
103	105	2
75	108	1
45	104	2
28	98	2
132	132	1
56	69	4
34	37	1
11	14	3
30	71	1
130	131	1
50	50	8
36	36	2
24	108	1
81	111	4
83	87	3
141	146	2
127	127	5
32	90	3
48	53	3
15	15	1
83	84	1
104	104	5
57	72	1
5	35	3
63	65	2
108	112	1
26	45	2
115	115	2
85	86	1
53	53	5
40	89	2
96	97	2
150	151	1
19	100	1
111	111	3
66	95	3
73	84	1
30	68	1
56	57	3
127	145	2
32	34	1
133	142	1
35	77	2
9	30	1
27	94	1
93	94	7
43	44	1
113	113	1
24	89	2
18	98	1
39	57	1
83	83	1
61	75	1
119	130	1
24	45	1
94	94	2
146	146	1
102	103	1
22	28	1
136	137	1
36	116	2
72	72	2
80	82	1
12	120	1
140	144	2
50	55	1
77	78	1
13	14	1
45	46	2
28	97	1
13	69	2
30	33	1
117	131	1
7	22	1
31	39	1
6	122	2
40	129	1
140	141	1
127	146	1
64	67	1
62	86	1
67	69	1
23	24	1
80	84	2
8	141	1
4	5	1
110	113	1
51	78	1
74	83	1
46	66	1
55	87	2
53	55	1
10	11	1
14	15	1
