114	114	9
45	46	1
28	28	13
156	156	20
124	124	14
136	136	10
175	175	14
27	28	5
50	50	15
106	168	2
55	55	13
135	135	4
15	16	3
39	39	19
47	47	25
189	192	2
18	18	14
29	29	12
182	183	4
172	172	11
19	19	9
196	196	7
112	112	4
183	183	12
31	32	5
17	24	1
24	27	1
20	20	5
70	95	6
1	1	5
70	71	2
19	25	2
38	39	6
46	46	19
104	111	4
179	179	8
10	12	2
67	68	9
12	12	20
8	9	3
126	127	6
188	188	9
32	32	10
105	107	6
188	189	2
14	14	21
28	34	1
40	146	1
51	52	10
180	181	2
193	193	16
6	7	4
90	94	3
131	131	4
112	113	4
176	177	3
45	45	22
76	76	1
20	86	1
41	41	10
81	81	7
34	35	1
53	55	4
24	24	17
6	6	9
56	56	13
170	171	6
151	169	1
13	14	5
133	133	12
178	178	12
145	168	2
49	49	16
146	146	4
127	127	8
10	44	1
137	137	13
38	40	3
158	159	1
148	148	14
8	56	9
66	80	3
31	56	1
169	169	16
149	149	14
10	11	6
55	87	2
44	44	16
157	174	1
10	10	23
158	158	6
63	64	2
8	13	8
113	113	8
123	123	4
142	142	4
53	53	16
181	181	18
117	118	5
140	140	9
100	101	3
23	26	2
171	171	13
52	52	9
157	157	19
186	186	24
114	138	1
54	86	2
5	5	9
9	56	3
22	23	7
155	155	11
125	125	4
151	197	6
149	150	4
121	121	6
181	182	5
46	189	1
43	43	12
45	47	1
8	8	18
167	172	3
48	48	14
134	134	4
0	0	4
16	58	3
192	192	5
126	126	10
160	160	13
51	197	3
22	86	2
54	54	10
5	6	5
8	18	3
51	62	1
31	31	4
20	22	5
7	7	9
10	16	2
49	50	3
109	178	3
117	117	3
187	187	15
22	36	2
75	75	4
157	158	6
9	11	3
51	54	7
100	100	11
51	51	14
4	56	1
13	13	20
3	3	14
61	61	2
139	139	8
89	89	9
93	94	4
15	15	26
158	183	2
160	172	4
78	78	11
59	59	12
42	42	11
161	165	4
10	14	1
142	143	2
96	96	3
165	165	14
87	87	4
122	122	3
167	167	2
109	109	1
33	86	2
79	79	5
23	25	3
140	176	5
9	9	10
2	2	13
24	25	4
142	148	2
9	32	2
120	120	15
174	174	4
80	80	13
195	195	11
191	191	2
61	84	2
33	33	14
74	74	3
11	11	10
148	169	2
177	177	3
124	126	4
157	160	1
37	37	18
81	82	3
168	169	2
58	58	22
161	161	4
163	164	15
153	153	10
61	87	4
147	147	12
189	197	5
98	98	3
194	197	1
19	23	1
161	164	5
136	137	3
36	36	15
107	108	5
2	3	3
115	115	10
113	122	4
22	22	6
119	120	1
194	194	14
168	168	11
63	63	3
6	8	3
173	173	11
141	142	3
120	121	5
1	2	2
37	40	2
30	32	5
68	68	15
113	138	3
4	4	8
30	30	14
128	129	3
7	8	8
27	30	1
95	95	2
166	181	1
99	99	10
26	26	3
186	187	5
170	170	12
97	98	3
85	86	3
29	30	4
151	152	8
180	180	13
132	134	3
195	196	3
178	179	5
172	173	7
138	138	16
108	108	9
82	84	3
36	37	4
111	111	3
8	17	1
5	41	2
26	27	1
182	194	1
13	25	3
94	94	5
114	115	4
54	55	9
130	131	6
189	189	9
176	176	8
102	102	17
106	106	6
163	163	1
35	36	2
159	160	1
156	158	3
139	140	1
122	169	2
150	150	9
118	118	11
152	152	7
145	145	9
35	35	9
17	54	3
94	96	2
169	171	4
72	72	16
159	159	13
33	85	1
154	155	5
153	155	1
49	173	1
59	72	4
193	194	1
27	58	5
103	103	4
25	33	2
55	56	2
74	87	9
25	25	9
179	182	1
162	162	5
44	45	2
37	39	1
16	16	8
182	182	10
179	181	3
144	144	4
102	105	4
107	140	1
168	182	1
105	146	5
17	17	4
87	113	1
64	65	2
144	182	2
95	97	1
165	166	1
24	33	2
37	68	1
113	121	3
17	18	5
161	162	8
30	31	5
136	142	3
59	61	4
9	16	2
143	143	8
134	135	4
79	80	2
52	53	1
41	42	4
57	57	7
5	8	1
133	183	4
119	119	6
0	104	2
31	84	7
71	71	11
148	152	2
109	110	1
11	44	2
116	116	6
53	58	3
64	64	9
187	188	8
131	152	2
125	127	2
51	53	1
81	84	2
69	69	9
197	197	2
15	17	2
102	103	3
76	77	2
58	59	3
171	179	1
16	17	8
26	88	4
162	164	2
67	77	2
133	147	2
141	141	5
107	107	7
148	161	3
124	125	4
115	140	3
158	160	2
164	164	3
65	70	1
184	185	6
12	13	1
154	154	6
9	55	1
28	30	1
27	27	11
166	167	1
86	87	3
40	40	9
16	55	4
154	157	3
123	125	5
13	46	3
127	128	4
115	116	8
104	105	1
22	27	3
187	190	1
88	88	3
28	29	1
146	148	3
132	132	1
75	76	4
30	40	5
11	13	2
163	168	3
161	163	3
130	130	2
38	45	5
4	5	3
124	133	1
31	87	1
184	193	7
101	101	2
174	178	1
132	140	3
128	128	7
148	154	2
133	134	3
43	44	10
97	97	3
116	118	2
121	186	2
9	31	2
156	186	2
111	142	1
167	168	2
149	153	1
46	47	3
34	41	2
82	82	7
150	151	1
121	122	2
50	51	8
18	64	3
94	99	1
95	96	2
40	46	1
98	99	3
110	110	10
154	158	3
30	38	1
4	33	1
33	54	3
5	19	1
52	71	2
148	149	3
21	21	3
53	54	3
129	159	1
105	106	4
87	88	2
11	14	1
16	18	2
112	129	1
34	36	3
143	181	1
184	184	3
40	43	2
104	104	2
170	172	2
141	145	1
11	45	2
146	161	2
37	42	1
0	1	1
67	67	3
173	175	1
38	86	2
37	41	1
122	123	1
4	39	3
112	121	1
98	100	1
129	160	1
147	148	9
163	167	2
155	156	3
138	172	2
38	85	2
162	163	1
42	43	5
190	190	3
194	195	5
119	178	1
171	172	2
19	36	1
69	70	3
129	142	1
65	65	1
73	73	3
23	117	2
184	186	1
33	87	1
18	20	1
147	149	2
113	137	2
191	192	2
9	44	1
6	18	2
23	23	1
38	38	9
129	129	4
86	86	2
196	197	1
84	84	5
11	12	1
8	30	1
11	16	1
159	184	1
177	178	1
177	182	1
105	105	3
187	189	1
61	62	3
77	81	1
185	185	3
151	151	6
174	177	3
57	87	1
29	88	1
34	34	3
192	193	1
19	42	1
48	49	1
3	6	1
40	41	2
7	83	2
31	58	1
66	66	2
166	166	4
54	56	1
47	52	1
72	73	1
101	102	1
65	66	1
139	169	2
39	41	3
118	119	1
169	170	3
25	26	2
20	21	2
135	136	2
146	147	2
2	61	2
9	10	1
114	146	2
178	182	1
42	46	2
133	136	1
23	24	1
114	186	1
3	4	1
27	39	1
19	34	1
13	51	1
106	111	1
136	138	3
136	184	1
152	155	2
22	24	1
50	53	2
172	182	1
40	101	1
57	58	1
159	193	1
156	182	1
149	151	2
141	184	1
102	181	1
73	74	1
95	99	1
172	193	1
185	187	1
194	196	1
130	151	1
151	159	1
32	33	1
4	69	2
16	79	1
34	40	1
134	142	1
4	22	1
145	182	1
78	86	1
26	33	1
164	165	1
8	82	1
17	53	1
150	156	1
137	138	1
123	146	1
66	69	1
112	130	1
