123	127	3
77	78	5
28	28	3
107	107	6
131	131	2
32	32	8
21	21	10
150	151	3
61	61	4
96	97	6
103	103	21
133	133	8
99	99	5
56	56	3
65	66	3
39	39	13
109	110	5
40	91	2
143	143	6
11	12	6
137	137	9
40	41	1
104	114	4
124	124	18
9	32	3
67	69	1
83	85	2
127	127	8
29	31	3
19	30	1
147	148	6
109	111	2
140	140	15
10	11	4
117	117	11
102	107	1
27	27	5
50	50	9
151	152	4
139	139	6
6	6	6
25	28	1
141	142	4
13	13	10
93	93	5
123	123	3
147	147	5
24	24	4
113	113	9
145	146	1
45	46	3
54	54	3
155	156	8
139	140	2
76	79	3
25	25	12
41	45	2
101	101	7
42	42	6
73	73	4
23	24	5
113	114	8
129	130	4
126	126	4
31	32	1
112	112	13
31	38	1
41	43	1
97	122	3
52	52	6
108	111	5
13	14	3
54	55	4
70	121	4
7	98	2
75	75	5
34	34	9
3	25	3
9	11	1
148	149	2
152	154	2
89	89	2
67	67	5
44	44	10
45	45	7
110	110	5
129	129	10
2	2	6
3	3	14
94	116	4
12	12	8
132	132	7
1	1	6
15	15	8
7	7	6
16	16	2
74	75	1
135	137	3
140	143	1
30	30	2
111	112	3
16	17	3
141	141	8
115	115	9
51	79	1
141	146	1
40	40	3
150	150	5
46	47	2
142	143	3
49	71	1
97	97	5
0	0	9
149	150	1
95	95	6
22	141	5
17	17	13
105	106	6
158	158	8
78	103	3
19	19	4
84	84	6
86	86	7
20	20	4
79	79	5
94	94	9
31	31	9
114	124	2
110	111	3
116	116	6
127	134	1
80	81	3
95	97	3
29	35	3
39	54	5
104	104	10
134	134	4
92	122	2
120	120	7
135	135	8
47	48	3
108	109	7
20	21	8
53	53	5
18	19	4
114	115	1
130	131	6
44	82	3
92	117	5
97	98	2
10	10	4
71	71	3
76	88	3
90	92	3
119	119	2
109	109	7
47	47	10
91	91	3
19	20	3
148	148	6
49	49	2
82	83	4
117	118	5
81	81	5
11	11	8
153	153	6
116	117	6
5	5	5
55	55	6
36	94	1
89	90	1
152	152	4
32	33	8
49	50	3
157	157	9
85	85	4
18	18	8
33	34	4
50	79	2
79	81	4
98	98	7
92	92	6
34	42	1
100	100	2
66	67	1
93	94	4
42	43	3
144	144	2
0	137	1
44	47	3
33	35	2
71	72	3
1	2	5
26	26	4
62	62	4
29	98	1
28	29	3
52	53	6
78	78	6
122	122	5
81	82	7
14	14	2
126	127	4
90	91	3
12	13	3
154	154	3
23	23	7
106	106	8
70	70	3
79	80	5
94	115	3
36	37	5
87	88	5
37	37	7
3	4	3
36	36	5
82	82	10
48	48	2
142	142	4
2	4	1
112	113	1
33	33	8
117	120	3
10	12	2
57	57	1
5	17	2
149	149	3
68	68	5
114	114	4
118	119	3
7	8	4
51	54	1
79	84	2
88	88	8
9	13	3
126	138	1
69	69	3
105	105	2
138	138	13
130	130	5
156	156	3
25	148	3
146	154	2
156	157	2
87	87	3
88	89	1
143	144	3
51	51	7
17	18	1
52	55	3
128	129	3
34	35	1
72	72	3
28	98	2
66	66	4
86	87	3
144	155	3
47	80	1
40	66	2
121	121	8
22	32	3
21	22	3
38	38	6
74	98	4
145	147	1
26	40	1
24	151	2
90	90	5
128	128	4
65	71	1
18	24	5
146	146	5
67	68	3
102	123	6
54	56	1
121	122	2
138	157	1
9	9	2
5	65	2
0	1	1
127	128	3
135	136	2
46	55	1
87	89	2
4	4	5
53	55	2
128	133	4
47	51	1
50	51	3
38	96	1
154	155	7
108	143	1
94	113	2
80	102	3
62	83	2
48	50	1
104	105	1
35	35	1
87	90	2
110	151	1
102	149	1
51	84	1
37	38	2
26	27	2
115	116	4
47	84	1
105	131	1
108	108	3
12	32	3
14	15	1
17	110	1
29	29	4
127	135	1
68	71	1
39	40	1
118	118	3
155	155	3
9	110	1
35	36	2
116	135	3
18	31	1
135	138	1
6	16	1
91	93	1
83	83	2
38	135	1
30	48	1
106	108	1
108	112	1
133	134	1
52	139	1
131	132	4
11	18	1
43	43	2
102	114	2
19	143	2
89	91	1
80	80	2
157	158	1
4	6	1
46	46	2
38	39	1
22	153	1
10	146	1
53	54	1
123	124	1
102	103	1
151	151	2
76	77	2
5	6	2
6	7	3
152	153	1
77	77	1
81	120	1
79	82	2
65	65	1
41	42	1
18	20	1
15	16	1
150	157	1
30	31	1
137	151	1
84	89	1
125	125	2
7	39	1
132	134	1
3	8	1
85	89	2
22	22	2
113	116	1
63	72	1
1	3	1
106	107	1
107	108	1
68	70	1
44	48	1
140	141	1
141	154	1
8	8	1
113	115	1
120	121	1
64	89	1
131	133	1
120	125	1
64	65	1
87	97	1
