32	34	7
38	38	8
56	56	11
32	32	7
36	36	3
72	72	10
30	30	10
23	41	1
47	47	17
27	27	3
66	67	13
67	68	3
50	50	17
57	73	1
5	5	21
37	37	9
49	51	5
1	2	5
48	48	23
64	65	11
49	49	15
76	76	13
19	19	9
12	12	16
24	24	7
28	28	10
47	48	7
34	34	13
21	21	11
29	38	3
71	71	7
61	62	15
74	77	2
34	35	8
29	30	6
70	71	5
54	54	23
6	6	16
23	24	3
19	44	5
75	76	8
21	23	1
44	45	9
36	37	6
23	32	1
73	73	8
11	12	4
10	10	7
53	53	13
26	26	22
29	29	19
4	6	3
55	55	31
70	70	11
59	59	18
60	60	7
2	3	4
69	70	3
22	38	1
10	11	2
31	31	5
13	13	8
50	51	7
65	66	8
4	5	4
54	68	7
24	25	6
27	28	11
31	37	1
68	69	6
63	63	21
20	21	7
71	73	3
72	73	5
9	10	4
57	74	4
21	22	2
3	3	6
43	43	12
59	70	4
52	55	1
31	32	3
71	72	5
55	70	2
61	61	11
74	74	14
44	47	1
35	35	7
12	43	1
25	25	8
64	66	1
8	8	16
45	46	4
75	75	16
2	2	7
41	41	11
74	75	3
40	41	1
9	18	1
43	47	2
45	45	17
42	42	5
48	51	3
66	66	3
9	9	8
54	55	8
63	64	7
58	59	4
18	19	4
61	63	8
42	43	4
26	30	4
65	65	11
46	46	7
58	58	6
57	58	8
33	33	9
64	64	6
58	63	3
20	20	14
60	61	4
35	38	2
22	23	8
13	14	4
11	11	11
6	8	7
59	65	2
22	22	2
23	29	2
39	39	8
57	57	14
38	39	3
0	2	6
5	14	2
25	29	3
40	50	1
1	1	3
59	77	4
39	52	4
28	70	3
53	61	3
62	62	5
67	67	10
69	69	20
23	35	3
4	4	9
27	29	2
52	52	4
12	13	3
54	56	3
34	42	2
39	51	1
7	7	2
48	49	2
37	39	2
51	51	6
56	57	1
37	38	4
33	36	4
28	29	2
23	23	7
38	48	2
51	52	2
0	0	6
29	41	2
8	9	4
40	40	6
23	36	1
30	31	2
27	31	2
25	26	1
37	51	1
36	39	1
33	34	3
68	68	2
43	46	2
23	30	1
47	53	2
51	53	1
52	53	5
77	77	6
43	44	1
45	55	1
23	31	1
39	40	1
58	61	1
43	49	3
32	33	2
9	20	1
68	71	2
24	26	1
44	44	6
19	20	4
39	42	2
53	54	2
39	43	1
18	29	3
33	47	2
46	47	2
7	8	2
29	70	1
49	50	4
6	7	1
37	40	1
48	50	1
41	42	4
32	37	1
78	78	2
68	73	3
54	67	2
3	24	1
18	18	4
2	57	1
57	63	2
41	43	1
55	56	1
23	71	1
36	38	1
26	27	3
20	33	2
3	4	1
32	43	1
37	43	1
40	52	1
45	47	1
73	76	1
53	71	1
19	21	1
36	40	1
73	74	1
32	42	1
40	42	1
6	24	1
38	40	1
