55	55	36
66	70	3
118	118	14
113	118	2
105	105	10
68	68	31
152	152	46
172	172	19
18	18	27
15	15	27
230	231	14
31	31	37
62	62	27
155	194	5
247	247	29
210	211	19
99	100	8
160	160	47
93	93	18
92	226	3
158	158	14
179	179	44
51	99	2
28	28	29
192	194	7
212	212	49
184	185	10
53	54	17
229	229	42
175	176	10
81	90	6
43	43	26
56	85	2
167	169	4
229	230	11
53	53	23
19	19	17
244	244	20
201	201	42
242	242	43
153	153	39
220	222	4
38	38	31
5	5	39
184	184	17
61	61	18
104	105	2
84	84	6
243	243	25
40	41	15
206	212	1
185	186	20
46	47	11
188	188	11
198	228	3
34	34	37
20	21	10
156	162	8
213	213	31
165	184	4
96	96	16
223	223	29
116	116	18
245	245	30
175	218	2
55	56	13
69	69	12
33	33	28
80	80	10
221	223	4
173	173	38
208	209	29
193	194	6
6	7	12
183	183	14
42	42	22
20	20	33
208	208	38
43	44	21
168	168	37
150	169	5
22	22	17
146	147	1
186	187	11
174	175	8
8	8	29
156	185	2
182	182	12
163	163	24
58	58	8
67	72	2
224	224	26
112	112	12
245	246	21
204	204	25
114	114	42
174	174	30
144	154	1
238	238	20
204	205	15
40	40	39
147	147	8
213	214	13
184	195	5
99	99	29
175	210	2
196	197	10
38	91	2
236	236	33
94	94	27
180	180	41
21	22	4
230	232	1
187	187	30
211	211	54
203	207	4
154	155	8
175	181	3
154	154	35
76	86	3
26	46	2
211	212	11
178	179	4
150	150	39
185	185	36
112	118	3
176	177	7
95	95	28
30	30	25
152	166	3
152	164	3
27	28	12
156	156	43
64	64	14
88	88	23
247	248	3
60	61	9
14	19	4
25	25	18
31	32	9
76	76	9
119	119	10
197	197	31
66	73	3
175	175	26
200	200	49
205	205	31
54	54	38
157	157	28
37	39	6
45	45	33
95	110	2
237	237	10
101	101	18
6	9	3
88	94	4
220	220	43
6	8	4
183	184	15
232	233	6
13	14	2
10	13	1
162	162	41
222	236	4
90	90	27
171	171	20
100	100	32
197	198	16
235	236	10
201	202	12
29	31	5
6	6	19
172	173	24
48	48	39
66	66	23
92	92	30
77	242	4
221	229	2
27	27	25
224	228	3
11	11	51
177	177	43
222	222	34
162	163	11
156	157	2
35	35	41
168	169	26
198	198	31
154	158	2
46	46	27
246	246	23
52	52	19
9	9	20
51	51	31
57	57	21
158	160	3
101	102	2
120	120	16
41	42	15
173	174	17
194	197	8
61	63	4
90	91	8
239	239	12
187	199	1
184	214	4
56	58	4
41	41	27
150	186	2
32	32	37
225	225	26
234	235	8
14	14	16
109	109	31
107	108	5
167	168	8
167	209	4
171	174	1
170	170	24
16	17	7
165	181	5
68	72	5
47	47	25
46	52	2
67	67	12
170	171	2
163	193	2
113	114	16
68	84	3
3	151	2
221	222	10
10	10	38
235	235	16
25	26	14
209	209	25
3	17	4
103	103	10
79	79	23
207	207	30
190	191	9
26	32	1
94	226	2
103	105	2
177	182	2
181	189	3
91	92	19
4	4	13
76	77	12
22	23	8
167	167	27
84	85	5
50	50	32
150	151	8
11	12	6
20	22	7
24	25	15
35	36	10
163	191	4
36	36	33
222	223	8
102	103	4
110	111	4
70	71	6
106	107	7
97	97	19
161	164	1
55	153	1
144	152	3
215	216	8
110	110	35
158	165	6
12	12	17
189	189	25
89	90	12
32	44	3
161	207	3
115	115	46
189	190	12
168	209	3
206	206	15
77	77	26
86	87	7
233	234	11
50	76	4
114	115	19
169	169	38
56	70	1
170	180	3
73	73	11
118	119	7
8	52	4
65	65	12
102	198	1
78	91	4
15	94	2
157	158	20
224	225	8
228	229	9
157	159	3
23	23	31
78	78	34
26	41	3
231	231	22
203	223	2
44	44	39
199	199	23
58	59	5
79	80	4
177	178	8
226	227	10
194	194	14
210	210	21
159	160	5
203	203	35
237	238	8
108	108	33
241	247	1
4	6	4
161	183	2
159	161	3
230	230	25
90	92	3
29	29	30
59	61	3
100	121	1
18	20	10
11	51	4
227	228	3
111	112	8
207	208	6
175	197	2
212	213	9
155	155	34
91	91	29
170	181	1
151	151	40
71	74	12
215	215	14
192	192	15
17	17	22
59	59	24
4	15	5
165	183	3
32	45	1
231	232	8
206	207	19
232	245	2
8	25	1
153	160	2
77	78	11
155	156	10
120	145	3
29	30	10
7	11	3
87	87	20
79	82	3
226	226	39
51	65	7
111	111	29
238	241	3
58	85	1
151	157	2
214	214	48
164	189	1
111	244	4
219	219	18
205	207	8
15	16	5
228	228	17
88	89	10
178	219	1
152	154	4
107	109	4
202	202	30
227	227	16
161	162	7
187	188	11
9	12	1
50	51	9
108	195	2
223	224	4
6	234	3
37	38	15
172	174	10
204	207	10
83	83	8
49	50	12
75	76	7
167	182	2
242	245	1
89	95	7
26	26	22
57	58	8
165	165	24
45	46	8
159	159	39
86	86	11
178	178	23
39	39	28
23	26	2
216	216	19
42	43	11
48	97	2
71	71	22
180	181	14
233	233	26
222	237	12
208	213	2
181	181	34
234	234	29
169	185	3
108	187	1
23	84	2
64	73	1
54	55	7
238	239	11
153	154	6
243	244	16
52	56	2
80	83	3
152	160	5
240	240	26
30	31	7
186	186	39
172	188	3
56	88	3
223	232	7
221	221	14
119	120	9
95	96	8
214	215	10
19	20	11
98	111	2
233	235	5
38	44	3
191	191	11
179	180	8
169	176	1
113	113	32
77	79	3
82	82	17
37	37	25
187	189	6
105	187	6
162	212	3
42	44	9
158	161	2
56	56	32
7	8	8
207	246	4
52	65	3
193	193	22
65	75	3
64	65	18
145	145	13
85	85	15
202	222	1
21	41	3
235	240	1
171	172	9
204	238	5
92	101	3
117	117	13
208	225	8
207	209	7
156	159	2
96	99	3
182	192	5
220	236	1
6	18	5
236	237	10
28	29	7
200	201	11
89	89	23
69	71	4
183	189	4
93	94	7
29	84	1
160	161	2
166	166	20
2	2	11
7	35	3
104	107	3
200	204	1
47	51	2
7	7	29
117	119	3
225	226	5
54	99	1
11	52	1
5	13	3
213	215	6
98	98	17
186	212	7
144	205	2
223	225	3
81	109	2
146	155	1
59	65	1
111	245	5
16	16	19
106	106	5
198	203	2
49	74	1
162	183	2
152	165	5
187	212	1
48	95	3
110	186	1
65	66	16
14	20	3
47	48	2
167	192	2
161	208	1
5	35	2
95	105	5
240	244	2
88	146	4
208	248	3
174	196	3
241	241	29
31	41	2
55	154	2
227	232	2
178	182	5
240	241	11
38	39	7
162	164	5
204	206	5
234	244	2
198	200	3
164	164	18
187	191	4
121	121	3
181	190	1
44	45	4
82	108	3
144	144	2
48	50	8
96	97	6
200	220	2
160	207	2
181	182	15
157	164	3
14	15	14
170	178	2
176	185	2
191	194	2
74	75	1
117	118	4
59	70	3
152	153	9
39	40	4
208	210	2
58	60	2
112	113	20
3	4	2
179	189	1
218	219	10
190	190	13
21	26	6
232	232	25
147	154	1
101	103	2
108	109	5
44	46	5
63	64	5
68	85	1
67	73	1
16	26	1
84	87	2
149	149	5
175	177	7
100	201	5
175	184	1
20	26	4
168	185	7
200	227	4
175	212	2
53	64	2
198	199	8
15	17	1
69	70	6
202	203	20
24	24	20
84	99	1
178	183	6
184	194	1
165	166	6
5	37	1
107	107	28
20	23	9
169	180	3
70	70	7
56	98	2
102	102	12
39	57	2
66	72	2
83	84	4
219	221	1
185	191	1
49	49	11
184	190	7
91	145	2
87	88	3
30	34	1
60	60	9
74	74	10
92	99	6
56	57	10
242	244	3
75	84	2
70	74	3
2	224	1
176	176	14
21	21	20
210	212	6
83	88	1
78	86	1
218	218	8
223	239	1
4	5	6
72	72	12
105	106	5
100	101	11
161	161	22
10	19	4
161	189	3
185	190	4
3	3	9
196	196	9
241	242	9
79	85	1
63	63	17
5	6	3
204	234	1
74	85	5
163	164	7
16	20	1
61	66	1
68	73	6
212	214	1
191	192	3
76	78	2
205	209	1
79	87	2
11	108	2
219	220	5
6	37	2
92	151	1
242	243	6
21	24	2
214	240	2
239	240	8
1	1	7
12	203	1
78	90	2
12	15	6
167	205	3
167	180	4
14	23	1
194	195	5
81	81	13
97	98	2
85	100	4
21	23	2
89	98	3
220	221	9
6	15	2
102	105	2
182	183	6
225	244	2
178	212	1
114	144	1
93	103	3
191	200	3
57	59	5
159	166	12
16	21	6
26	27	4
169	177	1
83	160	1
169	201	5
160	165	1
14	28	1
229	232	5
59	62	2
59	60	4
153	169	1
161	166	2
58	71	2
75	75	13
16	19	5
197	215	2
22	25	4
80	88	3
185	215	2
41	62	1
70	243	1
69	244	6
82	84	7
145	153	2
18	21	5
205	223	4
75	85	3
39	161	1
81	98	1
62	66	5
234	236	3
149	168	3
147	160	3
2	37	4
24	26	2
207	219	3
203	204	7
55	65	2
30	33	5
20	25	1
187	194	1
71	72	7
213	225	4
14	18	5
244	245	4
235	241	3
92	93	3
199	200	19
85	86	4
106	108	4
167	190	3
71	73	1
186	205	7
175	194	1
160	203	1
19	28	3
199	202	1
209	215	7
215	236	2
215	218	6
3	152	6
26	42	3
169	229	2
217	217	7
19	25	3
51	63	1
53	154	2
191	199	4
0	1	3
55	208	3
207	234	6
52	54	7
94	100	3
173	176	1
5	25	4
56	59	5
107	175	1
176	187	2
8	11	1
32	33	4
176	211	2
105	109	1
16	234	1
154	202	1
188	189	7
217	218	3
21	39	1
3	12	1
185	188	1
158	159	5
2	3	8
35	64	2
81	82	4
185	213	2
115	116	12
190	192	2
25	41	1
169	186	1
169	174	1
10	11	4
68	69	7
67	68	4
156	167	5
198	201	4
71	83	2
40	42	1
53	155	2
109	154	4
162	184	1
97	120	1
19	95	2
232	244	1
48	49	1
104	104	8
51	52	9
108	186	3
202	231	1
63	65	4
169	208	1
185	196	3
162	208	3
94	96	1
171	195	1
48	64	1
170	177	4
118	121	2
247	249	2
237	241	4
96	101	1
17	222	4
171	194	2
181	183	2
197	202	3
8	9	6
5	7	5
208	224	4
34	39	1
81	84	3
32	43	2
239	245	2
209	247	1
86	88	2
218	220	1
21	40	8
242	247	2
23	94	2
151	156	1
109	153	1
206	213	1
56	66	4
155	205	3
200	242	2
173	180	2
152	156	2
34	63	1
246	247	5
189	191	1
109	110	6
17	18	3
3	16	1
170	184	2
33	34	7
169	193	1
169	170	7
147	152	1
111	113	4
81	87	1
72	73	4
61	62	9
198	205	2
154	157	1
225	229	1
68	70	3
173	209	1
69	86	3
66	67	12
216	217	3
57	61	1
151	189	1
6	19	2
167	199	2
201	226	3
236	242	1
203	221	2
195	195	17
148	156	1
182	188	1
207	212	5
169	178	4
70	72	4
185	192	2
78	79	1
159	208	3
180	182	5
56	69	1
166	169	4
117	144	2
79	81	1
90	157	3
154	173	1
97	111	4
207	210	3
10	18	3
100	111	1
175	217	2
3	160	4
9	15	5
37	151	1
88	90	2
228	236	2
167	208	4
48	94	1
71	75	2
78	242	2
16	22	1
13	19	1
73	84	2
201	220	1
216	218	1
116	117	6
188	190	2
112	120	2
166	184	2
80	81	3
165	169	1
100	165	1
24	27	3
11	150	1
65	246	3
226	236	1
80	84	2
145	152	3
99	227	6
183	188	2
61	246	1
171	193	7
92	152	3
46	48	1
18	22	3
35	193	1
64	68	1
99	102	1
204	213	1
23	25	2
91	157	1
39	45	1
60	208	1
195	196	11
57	84	1
144	206	2
192	197	2
10	52	2
21	84	1
162	203	1
8	51	2
60	67	1
163	165	2
169	175	4
15	20	2
210	242	3
38	46	1
19	29	1
202	233	2
164	177	3
111	114	1
163	178	3
232	234	3
34	37	4
150	228	2
94	111	2
94	95	2
42	45	2
208	212	2
185	228	2
31	40	1
157	165	1
35	37	1
209	210	2
202	221	2
10	17	1
233	236	1
213	241	3
99	103	1
161	163	5
204	212	1
166	208	1
83	85	1
153	167	1
151	164	1
200	203	4
238	240	1
75	77	3
101	200	2
207	245	4
83	110	4
24	41	1
52	53	6
69	100	1
237	242	1
158	208	1
31	44	3
48	74	3
202	230	1
170	196	1
205	206	2
60	90	1
116	200	1
220	232	2
223	233	2
215	217	5
214	238	4
157	188	1
73	86	2
171	173	1
171	181	4
51	67	1
7	234	1
170	228	2
237	239	5
203	206	1
18	19	8
161	165	1
94	104	1
67	108	1
185	187	1
227	231	1
82	91	4
34	35	3
96	227	2
164	191	1
106	187	3
93	151	1
77	86	2
16	23	2
248	248	5
6	22	1
151	152	4
211	213	3
4	19	1
156	161	1
34	72	2
192	208	2
214	217	2
162	176	3
2	7	2
54	56	1
73	74	6
167	181	1
93	98	2
203	205	5
40	45	2
208	247	3
51	95	1
33	41	3
7	9	5
99	235	2
91	94	2
14	16	1
192	196	3
151	181	1
240	242	3
82	85	1
60	64	2
166	170	1
52	64	1
226	228	7
110	197	3
182	184	3
11	54	1
26	45	1
59	246	3
171	196	1
21	79	1
70	73	1
207	247	1
95	227	3
62	65	2
192	193	4
9	156	3
82	88	1
210	225	1
203	231	2
162	179	3
110	112	2
14	26	6
183	195	1
31	33	4
94	105	1
90	208	2
212	223	2
40	61	1
224	239	2
60	65	5
154	156	2
4	18	2
189	192	2
166	177	1
179	229	1
146	151	1
22	199	2
8	64	1
167	195	2
62	68	1
11	149	2
193	210	1
51	64	1
204	233	2
84	94	1
112	119	1
33	40	1
102	106	1
231	244	1
38	72	3
83	108	1
5	209	2
19	33	3
157	203	3
14	65	2
103	228	1
198	230	1
213	222	2
157	162	1
57	72	1
6	35	2
21	85	1
210	226	1
40	55	1
69	75	4
167	193	1
90	241	2
2	40	1
104	111	1
175	211	1
119	221	1
90	93	1
223	238	1
48	77	2
229	231	1
55	84	1
90	95	1
15	23	2
29	39	1
166	167	2
47	52	1
236	243	1
184	213	1
57	68	1
6	10	4
224	236	1
218	234	1
49	63	2
57	179	1
193	196	2
8	41	2
79	109	1
23	24	3
168	203	2
36	37	4
35	39	2
226	234	1
164	165	3
174	176	2
20	29	2
146	146	1
177	183	1
207	226	2
65	67	1
152	167	1
94	110	3
236	248	1
14	22	1
55	156	2
117	179	1
93	102	2
55	66	1
40	161	1
19	22	1
49	92	1
48	63	1
55	64	2
173	216	1
102	151	1
3	7	1
59	235	1
26	43	1
20	84	1
6	160	1
50	92	2
200	226	2
29	33	2
215	221	1
212	240	2
248	249	1
154	203	3
75	83	1
22	62	2
179	181	1
49	93	1
2	165	1
194	196	1
109	115	1
106	111	1
201	241	3
172	196	2
149	153	1
84	86	1
29	73	1
249	249	1
19	21	2
18	157	1
170	189	1
110	151	1
14	101	1
1	42	1
75	79	3
96	98	1
165	167	1
149	156	1
149	154	1
3	18	2
151	166	1
59	64	1
231	235	1
66	149	1
198	202	3
66	68	1
39	72	1
37	44	1
46	78	2
18	41	1
157	161	1
178	194	2
226	229	1
68	105	1
84	88	2
69	242	1
95	98	2
153	156	2
145	150	1
185	214	1
173	175	1
92	100	1
162	167	1
41	59	1
57	69	1
169	171	1
62	95	1
51	66	1
17	35	1
160	164	1
189	195	1
57	147	1
236	240	1
93	111	1
158	162	2
151	154	1
145	162	1
208	226	2
9	10	1
16	235	1
17	22	1
35	159	1
166	182	1
59	87	1
35	63	1
173	181	1
15	19	1
109	149	2
157	160	1
43	46	1
21	63	1
41	63	1
151	158	2
150	203	1
26	78	1
61	64	2
3	8	1
72	74	1
162	175	1
24	208	1
59	74	2
180	229	1
90	145	1
175	195	1
21	62	2
171	175	1
100	229	2
98	99	2
202	220	1
185	205	1
73	75	1
54	69	1
95	97	1
71	99	1
162	165	1
33	35	3
48	51	2
43	45	1
69	76	1
77	241	1
50	63	1
104	106	1
26	28	1
203	230	1
22	67	1
221	230	1
7	19	1
78	85	1
18	23	1
7	207	1
21	78	1
28	43	1
54	221	1
11	65	1
56	78	1
39	59	3
61	248	1
3	6	1
161	212	2
225	241	1
169	197	1
153	161	1
159	247	1
8	16	1
204	235	1
174	185	1
59	71	1
145	151	1
53	99	1
24	30	1
58	90	1
187	204	1
5	18	1
99	228	1
244	246	2
192	195	1
7	18	2
159	212	1
203	232	1
193	197	1
47	55	1
175	199	1
166	183	1
66	247	1
117	159	1
241	248	1
54	180	1
4	22	2
175	178	1
110	150	1
103	106	1
159	165	1
208	223	1
80	82	1
6	36	1
22	39	1
98	100	1
53	180	1
164	183	1
186	221	1
109	151	1
9	19	1
56	247	1
69	74	1
5	15	1
20	53	1
118	120	1
149	150	1
230	244	1
162	188	1
4	8	1
