45	89	3
58	59	5
46	46	15
37	37	3
33	33	20
47	61	6
96	96	7
73	74	7
26	26	8
110	110	10
17	17	14
19	20	7
47	47	29
30	32	3
65	65	6
13	13	12
35	35	12
9	9	28
6	7	1
106	107	4
47	93	1
70	70	7
125	125	3
97	98	11
119	119	18
80	80	5
83	83	19
77	77	4
121	121	11
123	123	12
62	66	1
127	128	3
112	112	6
63	63	29
39	42	15
61	61	25
122	122	15
48	48	12
5	39	2
4	21	5
92	93	2
45	45	14
6	37	1
101	101	16
113	114	1
4	4	6
78	78	14
71	72	10
95	99	3
21	21	10
73	83	2
2	3	3
123	124	10
66	66	22
86	88	2
19	19	8
7	7	7
74	85	4
31	60	1
117	118	4
93	93	10
94	94	12
20	40	3
125	126	3
86	86	21
115	133	8
124	124	3
46	74	3
96	97	11
86	89	3
32	32	6
3	9	3
42	42	1
12	13	1
2	2	11
29	30	19
121	122	6
27	28	4
95	95	4
46	97	3
117	117	3
120	127	2
116	129	1
33	74	3
27	91	4
69	69	9
72	73	5
18	63	1
88	88	7
68	70	2
100	100	10
82	82	7
85	86	9
92	92	10
89	89	4
57	58	1
82	107	1
105	105	5
74	74	17
18	80	2
34	34	28
75	75	10
107	108	5
11	11	26
6	6	15
62	71	1
118	118	7
3	101	1
68	68	16
87	87	10
28	28	10
81	81	5
116	116	9
17	18	4
94	95	10
90	90	9
82	85	2
84	84	9
98	108	1
21	22	2
60	60	5
72	72	20
108	108	7
126	126	1
88	92	3
67	67	6
38	38	3
61	63	9
25	26	2
24	24	2
34	124	2
27	27	6
25	25	7
67	68	4
65	66	4
44	44	6
63	68	3
91	91	5
98	98	4
58	60	2
128	130	1
77	78	1
88	89	1
71	85	1
90	96	1
21	37	2
31	32	5
27	78	1
114	115	4
115	115	5
99	100	4
74	107	1
82	109	1
111	111	14
130	131	1
77	126	4
133	133	3
109	109	7
59	59	9
10	10	16
86	87	2
67	69	2
68	69	6
5	5	4
8	21	2
73	73	13
127	130	1
97	99	1
24	25	4
71	71	6
92	94	7
18	18	2
63	64	7
58	58	11
109	118	1
131	133	2
24	83	2
76	76	9
62	85	1
15	15	4
39	39	2
91	92	6
85	85	15
16	17	3
79	81	2
8	8	12
26	47	1
44	45	6
4	84	1
119	120	4
56	57	1
78	93	3
17	63	1
41	41	3
86	124	3
29	79	1
14	14	8
76	78	1
34	36	1
105	125	1
4	101	1
30	31	1
82	83	2
82	93	2
77	83	1
59	113	4
93	94	7
95	96	2
129	129	2
102	105	7
0	0	4
61	69	3
70	71	3
36	114	2
9	10	1
3	3	4
64	64	10
93	99	1
62	62	6
62	69	1
11	93	3
11	14	1
57	57	7
93	98	1
14	16	1
47	73	4
15	23	1
96	99	2
29	29	4
120	122	1
97	97	3
22	22	3
80	81	2
63	69	2
55	55	7
84	86	1
101	102	3
27	98	1
14	15	1
4	83	2
66	67	2
47	48	2
105	124	1
39	81	2
115	116	1
38	40	1
75	76	3
103	103	3
31	31	7
45	64	2
90	91	4
120	120	1
20	20	6
93	101	3
34	35	2
16	18	1
130	130	2
118	119	1
134	134	4
12	18	1
42	45	2
12	46	1
16	16	1
98	100	3
112	115	1
71	75	1
87	89	7
91	131	2
36	37	2
113	113	5
98	99	4
11	18	1
129	134	2
1	2	2
87	109	4
33	36	1
106	106	3
79	80	2
20	45	1
109	110	4
112	113	4
97	102	2
61	62	1
30	33	2
102	132	2
7	101	1
78	79	1
12	76	1
45	46	2
51	55	3
48	60	2
100	101	3
51	51	1
113	116	2
28	45	1
39	43	1
1	72	2
76	120	1
39	82	1
4	90	3
29	32	3
12	12	5
1	1	9
11	79	1
90	94	2
103	109	3
26	28	4
128	129	1
102	102	1
131	132	2
40	83	1
46	60	2
41	42	1
113	117	1
47	49	2
20	84	1
79	79	4
21	36	1
90	100	1
27	75	2
43	43	3
108	110	2
26	77	1
28	75	2
29	49	1
5	83	4
26	76	1
2	102	1
7	86	1
110	111	2
40	44	2
45	68	2
129	130	1
84	85	2
76	77	4
28	29	1
60	61	3
127	127	1
28	97	1
16	24	2
26	45	1
72	74	1
24	28	1
26	27	1
25	29	1
109	134	1
3	14	1
20	21	2
42	43	1
11	12	1
102	111	3
77	82	1
27	134	2
102	112	1
36	36	1
95	100	1
47	62	2
44	60	1
83	84	2
25	47	1
34	75	1
8	36	1
33	34	1
39	44	1
81	82	1
22	36	1
30	30	1
5	95	1
14	48	1
105	106	1
3	4	1
8	22	1
46	47	1
