17	18	5
56	56	24
77	77	6
47	47	22
15	16	7
56	57	11
63	64	5
64	67	1
74	74	29
35	35	6
39	39	5
65	65	16
62	63	2
59	61	1
76	76	13
54	55	4
40	73	1
68	69	10
40	40	13
6	6	13
28	29	1
11	11	16
5	6	12
65	70	3
57	57	15
33	33	16
49	50	4
26	26	10
14	14	10
10	10	9
66	66	11
51	51	14
75	75	11
29	29	7
20	20	12
31	31	10
36	36	9
1	1	11
61	61	13
57	58	3
79	79	13
73	73	12
58	59	1
40	41	3
6	8	5
19	19	11
7	36	2
45	45	20
50	69	3
32	33	3
41	41	14
54	54	5
64	64	15
59	60	2
13	13	4
58	58	11
32	32	5
65	68	5
66	69	1
38	38	12
42	42	14
49	49	14
3	3	9
8	8	9
13	14	7
49	69	1
46	47	4
7	7	7
67	68	5
70	70	11
52	53	2
59	59	15
70	72	7
26	27	2
52	62	3
72	72	8
0	0	4
74	75	4
78	78	18
15	15	10
51	69	6
47	60	2
65	66	1
62	62	16
64	70	3
21	22	6
8	9	4
73	74	3
17	17	5
80	80	8
7	8	3
5	5	10
10	14	4
55	56	3
46	46	12
50	67	2
14	15	5
16	16	3
16	80	1
53	54	2
11	14	1
30	30	10
12	12	1
79	80	1
25	33	5
27	27	10
20	21	5
53	53	3
48	48	6
46	62	2
60	61	6
38	39	1
50	50	14
11	12	2
21	21	7
51	52	1
70	71	5
29	30	5
50	70	2
60	60	2
64	65	7
3	9	1
19	30	1
1	2	3
9	9	9
12	21	1
71	71	8
3	4	5
50	52	5
4	4	5
67	67	10
71	75	1
68	68	5
13	15	1
37	38	5
25	26	1
52	52	9
58	60	1
28	28	11
25	25	6
10	38	2
73	76	1
53	55	1
2	2	11
49	80	1
51	68	2
62	64	2
9	36	3
6	9	2
69	70	3
10	11	4
69	69	9
63	63	6
63	71	3
71	72	1
34	34	6
34	35	3
66	68	4
44	44	1
49	52	1
18	18	3
2	4	5
49	63	4
48	49	2
36	37	3
33	35	1
12	39	8
77	78	2
80	81	3
39	40	1
47	62	2
22	22	1
37	37	4
75	77	1
65	67	1
54	56	1
8	35	1
15	21	1
64	68	2
43	43	3
42	43	1
74	76	1
53	62	2
27	28	2
64	69	1
69	71	1
52	63	1
13	35	1
50	54	2
60	62	2
49	51	4
3	5	1
6	7	2
15	19	1
67	70	1
64	71	1
2	3	1
66	67	1
53	56	2
11	13	1
55	55	2
26	33	4
51	63	1
45	46	1
61	62	3
15	18	1
63	70	2
16	17	2
63	69	1
78	79	2
25	32	1
50	51	1
30	33	1
47	48	1
8	15	1
