61	61	7
47	47	9
28	28	16
53	53	6
57	57	6
0	0	12
18	18	10
70	70	14
7	7	7
64	72	2
55	55	17
9	9	11
69	69	8
42	64	1
46	47	2
67	67	7
64	64	4
10	10	14
39	39	20
68	69	6
36	36	10
31	32	5
13	14	5
30	30	4
19	19	11
1	1	15
54	54	9
48	49	1
73	76	3
47	75	3
63	71	1
38	39	3
26	26	8
32	39	1
80	80	13
74	75	5
18	20	1
73	73	13
41	41	6
76	76	9
50	50	8
28	30	3
14	14	4
35	35	10
10	12	1
2	4	2
38	38	10
9	10	5
78	79	3
66	74	6
28	47	4
74	74	8
51	54	3
2	10	1
27	30	1
17	17	12
79	80	2
49	49	9
12	13	2
67	69	2
19	20	2
63	64	5
62	62	3
51	69	1
51	51	10
19	28	2
71	71	10
31	33	5
45	45	11
3	66	5
25	25	7
39	40	4
37	37	9
50	52	2
34	78	4
2	51	1
61	62	1
60	61	3
75	79	2
37	77	1
12	12	1
35	70	3
56	56	4
11	13	2
28	29	6
15	15	11
14	50	1
27	33	3
4	4	5
10	13	5
52	52	5
33	33	6
17	19	3
68	70	2
31	31	16
48	48	5
32	33	12
55	56	3
28	49	2
75	76	2
53	63	5
25	31	3
37	38	4
53	70	1
42	42	7
40	40	6
1	2	2
9	11	1
74	79	2
35	40	2
9	19	2
27	27	5
55	69	2
71	72	1
64	70	1
20	20	3
56	62	4
8	8	2
60	60	3
10	31	1
28	68	2
48	52	1
37	40	1
29	56	2
58	58	4
7	8	1
36	37	4
11	11	1
53	55	2
5	5	9
19	54	1
30	33	1
77	77	3
56	65	4
56	72	1
16	17	1
34	36	2
28	35	4
75	75	7
0	17	1
29	71	2
68	68	6
8	19	4
7	9	4
66	66	5
34	34	8
13	13	2
70	75	2
44	44	1
48	54	2
29	29	3
34	35	1
72	72	6
42	44	2
46	75	1
8	20	3
16	16	3
19	46	2
10	11	4
19	68	3
27	35	1
13	50	3
55	58	1
37	62	1
49	51	3
46	46	5
66	67	3
49	50	2
59	59	3
33	34	1
78	78	7
28	37	3
6	6	4
67	68	1
45	58	2
53	54	2
27	45	1
21	21	3
4	5	2
0	1	7
3	3	2
52	72	2
29	74	2
47	48	1
25	26	4
5	20	1
43	43	1
10	21	1
52	58	1
10	39	1
11	15	3
32	32	1
51	63	1
40	41	2
56	57	3
59	61	1
47	59	1
51	68	1
42	79	1
29	55	1
73	79	1
28	58	1
2	3	2
59	75	1
51	52	1
65	65	5
35	78	1
0	16	1
38	66	1
10	50	1
37	79	1
35	66	1
27	28	1
1	17	1
2	2	1
17	18	1
37	44	1
40	78	1
76	77	1
70	71	1
55	76	1
52	59	1
79	79	1
30	62	1
21	45	1
15	21	1
8	49	1
46	78	1
26	72	1
