24	24	12
223	223	7
178	178	2
204	204	14
149	184	3
153	154	5
86	87	3
151	151	6
157	157	9
112	112	5
6	6	6
46	62	3
183	184	2
240	240	3
40	54	2
104	104	3
188	188	4
36	36	8
113	114	3
183	183	11
212	212	9
48	48	4
14	14	4
27	27	2
196	217	1
100	101	3
239	239	7
4	4	2
46	46	6
163	163	7
208	209	2
207	207	12
216	219	3
59	60	4
23	23	9
204	207	2
242	242	9
102	102	5
147	158	1
201	201	7
64	64	11
176	185	1
103	103	9
70	88	2
199	199	2
76	77	4
246	246	8
96	119	2
63	67	1
60	60	5
153	153	10
161	161	8
43	43	10
31	31	3
117	117	4
58	60	5
110	110	14
153	183	4
56	57	4
186	198	2
68	68	5
25	25	6
76	76	4
42	43	5
42	42	6
51	51	6
152	152	11
80	80	1
162	162	12
177	236	1
37	38	2
108	108	5
151	152	1
114	115	2
87	87	4
213	213	4
2	16	1
97	97	5
197	198	7
238	239	6
171	219	1
54	54	2
236	236	6
213	215	1
73	73	8
159	160	3
112	244	1
169	174	5
180	183	1
247	247	4
116	117	2
158	166	3
184	185	5
163	164	4
192	193	1
161	179	3
42	78	1
215	215	4
63	112	3
49	61	4
8	8	5
156	180	2
114	114	17
109	109	13
9	9	6
92	92	12
150	228	3
85	85	4
161	182	1
7	7	5
75	91	2
217	217	7
109	110	8
173	173	6
58	103	3
169	243	1
94	94	7
105	105	4
229	229	5
162	179	3
203	203	14
203	231	3
89	89	12
238	238	5
61	61	4
75	75	11
116	116	8
181	181	6
72	74	1
185	197	1
162	204	2
63	63	2
67	67	2
64	111	4
6	7	3
156	156	13
47	88	1
196	196	12
154	154	5
111	112	1
49	111	2
53	53	5
202	202	4
56	62	1
70	70	6
65	65	3
244	244	3
176	176	4
37	37	2
71	74	1
16	16	6
208	208	4
230	230	3
56	59	2
41	42	1
169	169	3
195	195	5
158	170	1
197	197	5
49	58	2
99	102	3
90	90	4
167	221	2
234	234	5
83	83	3
62	62	1
11	11	9
14	58	1
193	194	1
174	234	1
111	246	1
118	118	7
13	102	1
176	179	3
90	91	1
98	98	2
55	55	3
156	197	1
212	235	1
194	194	5
26	26	7
91	91	9
99	99	7
119	119	4
197	221	2
41	224	1
71	90	4
226	226	3
171	174	2
184	184	6
71	71	1
113	233	3
210	210	4
39	40	1
88	88	13
158	158	10
69	69	6
151	167	5
177	213	2
81	81	5
163	218	1
152	187	2
233	233	8
95	95	9
220	220	11
185	186	10
164	164	7
50	50	9
236	237	3
247	248	3
80	119	1
175	179	3
179	179	5
174	174	6
199	200	1
60	61	7
59	59	5
44	44	9
50	51	5
222	223	1
211	211	1
34	34	6
86	156	2
94	95	1
213	236	2
59	99	1
235	235	7
108	109	6
88	89	2
177	177	6
166	166	6
165	190	1
98	99	5
159	159	6
171	175	1
3	36	2
189	190	6
192	192	6
160	160	4
225	228	1
196	240	5
200	200	6
194	195	3
225	226	1
103	104	1
186	186	4
193	195	3
32	32	5
65	82	1
112	113	1
193	236	3
72	196	2
33	33	5
72	96	1
26	27	1
175	175	4
50	111	1
15	15	7
120	120	4
115	115	9
191	191	5
159	166	1
187	187	8
192	209	3
192	236	3
177	214	2
81	83	6
243	244	1
47	47	4
110	248	1
160	181	5
77	77	4
74	74	5
3	3	2
200	234	4
179	231	5
209	209	3
114	116	2
181	240	1
180	180	7
150	150	5
73	79	4
227	227	2
100	100	2
146	146	4
188	211	4
168	237	1
205	205	3
65	67	1
51	103	1
85	94	1
240	241	4
87	88	2
97	99	2
179	247	2
198	198	2
63	247	2
24	25	1
98	118	1
219	219	2
150	151	1
153	184	4
241	243	1
245	246	3
31	41	3
164	213	1
101	101	4
21	23	3
1	1	3
12	110	1
78	79	3
65	66	3
221	221	3
196	247	1
182	183	1
159	167	4
96	96	5
204	205	1
161	163	2
99	107	2
235	243	1
50	61	2
83	106	1
245	245	6
25	36	1
178	204	2
32	36	1
75	76	1
211	212	3
197	199	2
52	52	4
190	192	3
41	41	3
192	210	2
224	224	4
223	244	1
69	219	4
8	94	2
17	17	2
164	219	3
181	182	1
161	162	2
180	182	1
176	178	2
74	76	1
189	189	5
49	50	2
178	213	3
30	30	3
2	37	2
48	62	2
160	164	2
52	54	1
107	107	4
162	186	1
158	198	1
18	19	1
183	211	1
118	119	2
106	108	1
165	166	2
15	53	1
248	248	3
183	240	2
172	174	2
44	45	1
162	180	2
232	232	3
33	38	1
113	113	3
10	10	2
152	163	1
22	22	3
241	241	4
204	206	4
188	192	3
81	85	1
57	58	2
160	228	1
74	90	1
231	231	1
34	49	2
19	19	2
9	83	2
29	51	1
52	65	1
155	156	1
159	170	2
8	9	1
82	82	4
173	185	1
228	228	2
162	199	1
62	102	1
193	193	2
238	240	3
4	76	1
41	78	1
67	94	1
221	222	1
93	100	1
159	164	1
188	189	1
210	219	1
93	93	4
18	22	2
61	62	2
1	2	2
29	29	1
199	205	4
226	227	1
231	232	3
167	223	1
171	171	2
149	149	1
156	198	2
103	118	3
216	216	1
182	182	2
33	34	1
63	64	3
28	28	3
63	71	5
20	22	2
222	222	2
165	165	3
65	81	1
80	81	2
200	208	2
2	38	4
167	168	1
12	14	3
183	193	1
164	196	1
14	92	1
8	46	1
98	116	1
155	155	3
174	233	1
102	103	1
65	71	1
76	92	2
242	246	2
177	187	2
43	45	1
48	61	1
162	163	2
105	106	1
163	219	2
213	214	2
206	207	1
103	214	1
82	83	1
176	215	1
18	18	1
106	107	4
186	191	1
33	63	2
149	223	1
61	87	2
233	234	1
5	5	1
174	197	1
8	32	1
214	215	1
170	170	2
38	38	2
159	196	2
57	57	1
162	231	2
106	106	1
3	37	1
218	249	1
168	168	1
55	208	1
44	65	1
114	118	2
49	60	1
56	104	1
149	150	1
177	211	1
86	104	1
173	178	1
112	116	2
237	237	1
167	170	2
21	22	1
39	39	1
74	77	1
162	230	1
55	56	1
72	72	2
68	69	1
229	230	1
46	67	1
4	5	1
153	173	1
66	67	1
95	181	1
40	40	1
198	220	1
180	186	2
110	111	1
50	60	1
177	190	1
79	82	1
10	11	1
167	213	1
15	93	1
69	107	1
75	86	1
154	155	1
218	219	1
203	207	1
207	220	1
35	64	1
145	145	2
58	58	1
172	205	1
56	56	1
232	233	1
42	109	1
21	42	1
245	247	1
168	169	1
65	72	1
168	172	1
5	8	1
98	103	1
163	177	1
237	242	1
95	96	1
218	218	1
68	218	1
