72	72	4
73	73	31
41	54	1
8	33	3
53	53	7
55	55	21
3	13	5
72	73	5
40	54	2
20	21	5
19	20	3
63	64	12
29	29	10
45	45	10
32	32	6
42	42	6
9	9	8
36	36	6
23	23	12
12	12	7
25	25	6
22	22	13
7	8	2
31	31	11
25	30	3
32	33	2
21	64	2
61	63	3
25	27	5
53	69	2
49	76	1
23	24	3
4	33	2
58	68	3
35	35	19
23	39	2
65	67	2
25	26	8
6	6	10
47	48	4
21	21	10
32	38	3
48	48	5
63	63	6
24	24	10
31	34	3
20	20	8
50	50	6
19	19	8
60	61	6
0	1	3
1	1	2
39	39	2
34	34	13
30	31	3
29	72	2
29	75	1
31	62	4
54	54	8
27	69	2
68	68	7
76	76	7
65	65	16
65	66	4
70	75	3
44	44	5
30	61	3
5	6	7
48	49	2
42	73	2
43	43	6
57	57	5
77	77	10
69	69	6
37	37	6
48	75	2
40	40	9
60	60	6
12	13	1
44	55	1
61	61	5
52	52	6
8	8	6
2	55	4
4	5	2
10	10	7
26	26	5
21	22	3
44	61	2
70	72	2
30	30	5
68	73	2
42	69	2
35	45	3
52	53	1
31	32	2
0	70	1
28	31	4
56	56	7
71	73	1
11	11	12
26	69	3
3	3	5
41	41	5
33	34	3
9	44	2
31	68	3
32	37	2
63	68	4
10	11	8
3	14	3
4	35	1
42	43	3
52	54	6
58	58	2
33	35	4
38	38	6
56	77	2
49	50	8
2	2	5
0	0	5
29	30	3
47	50	1
3	39	4
34	38	1
22	23	6
62	62	3
21	63	4
64	64	4
33	33	8
53	66	2
69	72	1
3	37	2
44	45	3
36	37	4
1	5	2
45	60	1
29	77	3
5	7	1
47	47	9
7	7	7
2	3	4
28	28	5
53	54	4
30	59	1
66	68	4
66	66	4
40	41	3
66	67	3
0	74	1
29	74	3
32	67	3
35	75	1
14	14	1
52	76	3
71	71	7
30	58	5
70	70	11
48	62	4
13	14	2
40	61	1
36	58	2
40	50	4
57	58	1
62	68	1
64	67	2
46	46	3
35	37	1
70	73	2
22	25	1
74	74	4
49	49	2
38	51	1
69	70	2
74	75	4
44	54	2
28	73	1
12	59	2
59	59	3
28	30	1
30	77	1
21	56	1
45	70	2
34	39	2
30	76	3
46	55	2
44	60	2
37	38	2
70	71	4
25	38	1
68	69	4
4	59	1
13	13	5
50	51	2
34	35	1
67	67	4
30	75	2
5	5	2
51	64	2
54	55	2
75	76	4
6	37	1
28	70	1
53	70	1
52	60	1
37	77	1
61	62	1
1	2	1
29	36	1
22	26	1
50	53	3
42	63	1
4	22	2
22	24	1
44	52	1
58	59	2
35	36	1
39	40	2
53	58	1
26	74	1
51	52	3
57	60	1
37	75	1
35	44	1
6	7	1
36	53	1
52	57	2
36	38	1
40	43	1
75	75	1
63	65	2
4	4	1
49	57	1
4	23	2
28	32	1
2	22	1
44	47	1
27	27	1
28	72	1
51	51	1
46	56	1
30	35	1
51	53	1
32	62	1
51	57	1
26	27	1
33	37	1
13	27	1
