32	33	4
65	65	22
16	16	15
114	114	14
96	118	3
64	64	15
100	100	15
127	130	2
85	85	3
26	31	1
57	57	8
55	55	8
62	66	4
131	132	6
58	62	4
36	42	7
130	130	13
132	133	4
120	120	12
104	116	7
41	41	14
11	11	9
52	52	11
67	69	9
54	54	16
17	17	5
15	16	11
112	113	1
89	90	9
123	124	10
6	6	6
62	62	17
29	30	4
40	40	7
19	38	1
13	13	11
118	118	18
19	61	1
142	142	9
107	108	4
78	78	10
128	132	2
120	138	1
34	34	16
62	63	9
127	129	2
36	36	7
63	63	11
5	5	7
33	34	6
73	73	11
93	94	12
113	114	2
75	75	4
30	65	2
35	69	1
140	140	9
35	51	2
110	112	1
75	76	5
122	122	16
75	90	2
66	66	10
4	4	13
36	37	1
47	48	9
68	68	3
121	121	10
90	91	2
56	70	2
118	121	3
114	118	2
138	138	9
76	76	5
96	96	6
68	69	15
81	81	28
40	41	6
52	53	3
136	136	20
20	34	1
132	132	12
1	1	4
119	119	13
3	5	2
97	98	1
109	117	8
21	21	3
50	50	5
15	42	1
88	88	9
107	132	1
95	95	6
32	72	2
82	82	16
145	145	5
59	59	14
77	78	7
22	59	3
126	126	10
37	37	9
100	101	6
115	115	11
138	139	3
64	70	4
32	64	1
33	65	2
3	3	6
80	80	18
60	60	9
20	20	18
14	14	2
70	71	6
127	127	12
108	108	14
76	79	3
116	116	8
26	27	3
124	124	8
91	91	23
70	70	16
117	117	7
47	47	12
92	92	18
51	52	5
48	55	5
58	58	9
77	77	6
131	131	6
146	146	2
137	137	11
49	49	8
8	9	3
88	89	11
87	88	2
143	143	5
33	70	1
129	129	9
141	141	15
25	73	1
74	74	10
9	9	8
27	27	8
139	139	8
38	38	12
17	26	2
19	19	7
67	67	6
25	26	4
83	83	4
38	48	2
126	131	7
93	98	6
107	123	2
123	123	3
10	10	7
72	72	6
138	141	2
113	113	7
81	82	10
31	34	1
142	143	2
0	0	3
114	115	8
135	135	10
36	53	3
82	110	3
64	65	3
27	28	1
51	51	10
34	52	4
105	136	3
109	138	6
34	35	8
142	144	5
95	96	3
127	136	2
34	51	2
133	134	4
98	117	5
134	134	11
105	106	1
105	107	2
136	137	6
61	61	4
144	145	3
103	103	20
67	68	4
89	89	3
11	42	3
67	96	4
144	144	6
22	22	6
43	43	9
78	113	1
13	17	3
82	93	6
32	32	7
13	14	2
79	79	6
82	84	1
26	26	7
71	71	7
98	99	4
4	5	4
125	125	16
38	53	2
112	114	4
28	28	5
39	41	1
10	18	7
9	25	1
133	133	11
54	70	4
110	113	2
3	4	1
15	15	4
35	37	1
25	25	8
52	56	6
74	95	3
66	67	1
103	104	1
104	104	3
33	33	4
71	73	5
2	3	5
92	94	9
27	39	3
55	56	4
83	86	4
71	72	7
111	111	11
87	87	8
31	31	3
117	137	1
2	2	1
76	84	1
76	77	3
94	94	7
6	39	5
78	79	1
88	114	1
56	56	12
93	96	3
24	24	8
60	68	2
129	130	6
57	59	1
73	74	5
99	100	2
122	123	6
30	61	3
35	35	3
83	112	3
106	106	4
125	126	4
123	133	3
69	79	2
56	61	2
49	51	2
102	102	6
36	43	4
137	138	5
30	54	3
14	16	4
74	75	3
128	129	1
35	36	1
123	130	1
48	63	2
109	134	6
14	65	1
135	138	1
99	99	5
30	30	2
104	134	2
92	119	1
110	110	2
51	58	3
54	55	3
13	16	4
23	23	9
95	116	4
9	40	1
10	40	4
25	32	2
8	48	4
112	112	5
109	110	3
83	88	1
101	101	10
104	118	1
8	8	9
116	117	3
68	79	2
70	96	4
84	85	3
18	59	1
101	102	6
135	136	7
12	12	1
25	30	1
90	90	6
69	70	5
28	74	1
82	83	1
11	47	2
82	102	1
115	117	8
46	47	1
19	21	3
6	9	3
103	144	4
71	97	2
83	93	1
48	69	1
2	6	9
27	62	2
23	24	1
19	20	1
93	93	6
31	33	1
121	126	2
31	32	3
107	107	7
90	102	1
84	84	7
55	57	3
30	39	2
128	128	11
107	133	2
105	105	1
1	5	2
28	29	2
17	18	1
48	48	6
103	109	2
133	135	4
53	73	3
53	54	2
76	113	2
83	85	1
29	29	2
72	73	2
27	52	2
42	42	4
36	51	1
2	21	1
63	64	1
22	61	2
49	50	6
88	118	2
83	94	2
11	39	1
140	141	2
11	40	1
141	143	1
83	84	2
53	53	4
118	137	1
81	94	1
12	15	2
39	39	2
102	103	3
104	143	1
136	138	3
108	109	3
118	131	4
42	61	1
124	125	2
25	31	1
39	40	3
22	23	3
134	136	2
98	98	4
47	63	3
90	92	3
16	17	1
50	59	1
141	142	3
42	48	1
18	18	3
130	131	3
54	66	2
106	117	1
80	82	2
71	90	1
4	6	1
10	11	1
118	119	1
79	80	2
58	129	1
75	97	1
121	135	2
113	117	1
21	60	3
2	5	1
95	97	2
119	135	3
12	16	1
120	121	1
72	89	1
100	117	1
21	42	1
92	108	2
99	117	2
106	107	3
123	142	4
109	109	2
86	86	3
117	119	1
94	98	1
77	82	1
127	131	1
77	79	2
21	36	1
67	70	2
59	60	2
104	107	1
95	117	1
13	47	2
88	91	1
62	64	1
134	135	2
121	127	1
57	58	1
20	36	2
88	116	1
30	55	1
21	80	1
91	94	1
50	51	2
119	122	1
18	20	3
65	66	1
137	139	2
90	146	1
8	23	1
134	138	2
94	95	1
57	68	1
53	55	1
66	69	1
35	56	1
108	110	2
2	32	1
28	49	1
27	31	1
72	76	1
125	133	1
119	128	2
95	118	1
48	49	1
71	74	1
97	116	1
15	47	1
58	59	1
47	64	1
