240	240	31
199	200	29
94	94	14
86	86	26
189	190	14
41	41	20
217	217	19
196	196	22
92	92	20
166	167	20
221	221	29
208	215	4
165	165	34
179	224	2
185	185	14
220	227	1
178	182	3
74	102	4
219	219	15
154	154	25
230	230	34
158	160	4
100	100	20
10	10	25
244	245	3
40	40	29
201	206	7
11	14	6
179	179	24
238	239	3
231	231	30
43	43	27
180	181	11
16	18	1
196	197	5
195	195	14
104	105	3
151	151	19
111	111	26
115	116	3
67	68	14
24	24	17
157	157	47
194	194	45
213	213	53
201	201	34
117	117	19
16	16	17
206	247	2
61	61	8
191	191	28
186	187	21
101	101	37
178	178	20
155	155	18
216	217	6
171	209	5
162	162	18
229	229	19
210	210	22
51	51	12
12	12	21
242	242	31
209	209	53
109	109	32
35	60	2
170	170	40
71	71	24
200	205	3
93	93	22
183	184	12
53	54	2
236	237	15
180	180	49
52	53	10
162	178	5
37	37	18
219	220	11
150	150	16
53	53	8
201	202	14
89	91	7
34	37	5
29	29	6
50	50	8
173	173	18
160	160	25
179	192	6
30	31	5
36	36	14
46	46	18
209	210	12
93	95	3
238	238	12
85	85	26
186	186	40
184	191	5
74	75	3
215	215	20
177	179	3
152	153	6
220	220	22
172	173	12
116	116	17
33	33	24
198	221	3
49	49	24
177	177	23
32	33	6
36	39	3
108	108	24
229	240	1
233	233	10
95	115	2
61	62	6
205	205	21
203	203	20
65	65	16
204	204	36
74	93	1
95	96	8
206	207	17
77	78	3
212	212	30
231	238	2
195	196	16
16	20	2
163	163	35
214	215	15
22	38	1
168	168	26
197	198	18
240	241	11
188	189	3
156	156	14
166	166	31
102	102	9
6	41	3
207	207	39
199	199	26
200	207	8
188	191	4
172	172	32
12	15	17
231	232	15
159	165	7
7	7	30
214	216	1
44	59	1
159	159	33
84	85	8
59	59	1
110	110	29
67	67	12
202	202	22
182	182	25
192	193	3
203	206	2
161	163	3
57	58	3
36	185	1
9	9	16
180	182	2
115	115	16
21	22	9
211	212	15
210	212	5
18	20	10
39	39	20
193	195	2
32	32	22
55	70	1
70	70	20
147	147	25
234	235	13
183	183	32
192	192	25
157	158	21
114	114	13
166	184	2
11	11	17
188	188	23
38	39	4
156	198	2
98	98	24
23	23	15
22	22	29
163	165	4
98	99	7
90	91	11
60	61	9
12	44	2
78	79	11
37	38	9
153	153	25
226	226	18
162	169	3
188	192	5
119	119	13
31	31	12
207	209	8
215	247	1
232	232	26
18	37	1
6	7	10
89	95	4
51	78	4
44	62	2
69	70	16
112	114	1
211	211	20
214	214	28
48	48	18
90	90	18
15	20	1
112	112	18
68	70	2
30	30	18
206	212	5
56	56	12
20	20	17
246	246	21
208	208	31
189	199	3
21	21	11
118	118	10
107	107	18
3	38	2
113	162	4
69	71	2
218	221	5
71	77	4
173	174	17
27	27	5
167	167	21
165	177	2
23	115	3
200	200	20
85	95	3
84	98	2
209	244	2
224	225	9
185	187	5
248	248	3
146	146	3
99	99	33
12	14	1
91	91	17
69	75	1
8	8	25
114	115	14
218	218	21
202	203	8
245	245	22
62	62	24
12	18	4
174	174	22
41	65	2
113	195	4
3	5	3
198	198	22
55	55	12
25	28	5
172	174	5
179	188	2
190	226	1
96	98	5
182	184	5
35	36	10
100	101	6
4	4	16
165	182	3
227	227	15
99	111	1
197	199	8
220	222	7
185	186	4
76	76	8
232	233	8
223	223	25
224	224	20
15	15	17
200	201	8
192	241	1
28	28	18
158	158	6
78	78	32
193	193	16
197	197	22
19	42	1
26	27	3
231	233	4
6	6	8
240	244	2
156	157	10
74	74	7
96	97	2
241	241	25
35	58	7
56	73	2
156	167	3
234	234	14
181	182	14
23	24	4
163	164	7
59	158	6
96	96	17
58	60	2
218	219	6
110	111	1
82	85	4
189	189	7
157	160	3
184	184	24
161	168	4
243	243	16
231	236	7
157	164	3
3	44	4
215	216	13
86	87	10
17	17	14
14	18	3
44	67	2
195	222	4
51	52	10
236	236	31
221	222	7
179	191	2
72	72	9
164	165	6
52	52	16
73	73	11
244	244	27
219	227	3
54	66	3
58	58	25
22	23	13
64	64	11
198	202	1
108	110	2
192	194	8
108	109	9
9	50	2
51	62	2
180	186	3
244	246	8
95	109	1
17	77	3
110	112	11
53	67	2
154	155	4
19	19	4
25	25	19
171	175	8
164	164	34
171	177	4
79	79	19
241	242	10
18	18	5
167	168	5
152	152	20
34	34	19
97	97	12
222	222	9
86	96	2
64	66	6
240	243	7
245	246	8
80	81	2
106	106	4
77	77	23
85	86	5
205	206	1
170	171	9
158	159	5
11	30	4
18	30	4
63	70	3
57	71	2
235	235	13
26	26	12
169	171	7
4	13	4
178	179	10
163	181	1
211	245	1
29	30	8
193	194	23
14	14	2
35	35	5
187	191	2
4	5	11
8	44	2
233	234	6
230	231	10
187	187	34
46	52	1
89	94	4
116	117	5
165	166	11
160	164	3
161	162	10
88	88	11
23	25	6
103	104	6
14	15	9
69	69	20
229	230	5
228	229	10
219	226	4
39	51	4
59	60	12
87	87	10
113	113	23
237	238	9
26	62	1
1	237	6
161	161	17
35	161	2
225	226	10
206	206	7
45	45	11
92	93	8
49	54	4
25	26	6
35	38	4
72	74	3
161	167	1
4	61	2
17	38	6
179	187	2
171	171	14
63	63	7
41	94	2
2	11	1
5	231	4
177	181	1
194	196	6
28	29	3
5	7	3
160	166	3
49	70	1
160	163	3
44	44	7
170	172	3
21	25	12
203	225	1
220	221	12
5	34	4
19	36	2
186	230	1
89	89	3
183	190	4
221	230	2
15	22	3
54	54	25
15	16	6
226	230	2
9	12	2
191	192	8
182	185	4
193	229	2
150	151	5
89	99	4
160	161	3
153	156	3
150	162	3
24	44	2
40	109	4
101	112	4
247	247	17
118	119	9
199	203	6
88	89	3
80	80	10
73	74	4
99	113	2
192	208	1
87	90	2
19	20	4
30	38	2
2	34	2
120	145	2
42	42	9
174	175	4
8	25	3
195	214	3
15	18	4
204	207	3
11	97	1
103	103	10
2	39	1
81	81	19
60	63	4
245	247	2
12	13	8
218	223	1
47	48	4
44	45	4
166	173	4
158	167	1
159	163	7
178	192	3
152	166	2
168	169	8
187	188	20
82	92	2
55	56	9
189	191	6
105	106	1
16	17	5
239	239	12
198	199	10
203	204	2
196	218	5
79	80	10
97	110	1
44	46	4
181	181	16
183	185	4
220	223	1
99	100	6
22	26	6
220	224	2
109	110	5
159	160	9
110	113	5
15	38	2
36	43	1
152	157	3
177	178	7
112	113	8
226	228	5
186	217	6
152	160	3
93	105	2
6	44	3
46	47	4
120	120	4
113	114	12
68	68	12
5	5	16
190	191	4
146	152	4
57	57	9
120	144	2
165	172	5
242	243	5
178	181	4
49	51	10
184	185	14
89	110	2
54	65	19
185	230	4
7	207	3
199	201	5
4	7	4
33	46	1
172	178	2
230	235	2
213	214	5
193	221	4
151	162	1
5	43	4
71	72	6
46	167	2
217	219	7
178	180	4
231	235	3
173	181	3
222	230	2
144	206	2
204	206	2
5	6	2
33	34	3
7	11	3
63	64	11
31	32	6
3	3	9
47	47	19
175	212	4
237	237	6
18	25	3
57	66	4
68	72	1
228	228	4
194	195	10
212	213	13
184	186	8
46	50	1
1	12	3
190	221	2
86	90	1
239	242	3
216	218	5
187	240	2
208	209	16
39	52	6
25	29	2
36	80	1
34	36	2
56	113	1
97	99	3
61	63	3
9	20	1
186	201	2
48	161	2
1	232	1
1	1	6
243	244	10
155	156	6
173	179	2
49	50	3
26	28	5
90	93	3
94	111	3
77	92	3
66	67	10
19	33	2
1	235	2
190	190	13
108	116	3
111	112	5
147	152	2
151	154	1
97	98	5
30	41	3
19	52	2
8	9	4
69	84	2
216	216	15
20	21	3
50	158	2
53	155	1
182	183	6
69	74	1
60	60	19
20	37	2
76	77	3
175	176	9
91	92	11
41	44	3
84	84	30
97	107	3
150	167	3
179	183	2
208	236	3
8	18	2
153	155	4
66	66	8
225	225	9
55	57	2
80	106	2
215	218	1
178	183	3
59	76	5
24	25	5
95	95	11
56	57	5
88	167	4
95	97	3
68	69	7
59	113	1
235	236	6
29	31	5
62	66	7
41	42	6
199	230	1
234	239	5
206	209	2
18	19	8
157	159	6
169	169	14
5	33	3
34	39	1
146	147	2
114	164	2
112	244	2
174	209	3
14	40	3
84	95	1
192	214	3
53	61	2
199	207	1
210	243	2
178	201	1
9	14	3
75	76	5
234	237	1
152	154	7
169	174	3
26	51	4
87	88	8
22	24	3
164	170	2
151	153	3
184	188	1
58	59	1
209	215	3
2	2	3
202	224	2
191	223	1
3	4	3
166	177	2
23	32	1
212	225	1
89	90	8
101	115	1
172	185	3
46	65	5
105	105	6
221	227	2
0	2	2
48	50	2
83	83	5
150	156	1
46	55	7
8	24	2
22	44	2
215	217	2
169	184	1
176	176	7
207	210	4
92	165	1
81	105	1
211	213	2
173	178	3
38	40	2
19	38	1
34	35	12
236	242	6
111	113	2
206	223	2
189	200	2
204	228	2
97	100	8
39	40	7
162	163	2
171	172	3
227	228	3
70	71	2
9	47	2
50	65	4
27	62	2
159	183	2
1	16	1
233	236	1
172	176	7
15	17	1
151	152	5
1	172	3
115	161	2
95	98	3
43	44	5
22	37	1
95	107	1
119	120	2
90	111	3
208	242	6
161	181	3
66	177	5
223	224	11
192	215	1
62	64	1
10	41	1
210	245	3
5	35	3
87	167	2
42	43	8
151	156	3
175	175	6
165	178	3
41	43	2
167	172	4
18	52	1
2	48	1
65	66	4
105	107	1
47	168	3
179	180	1
185	231	2
147	157	1
36	37	2
19	79	1
107	109	2
97	102	2
86	94	2
43	45	2
208	244	2
247	248	4
144	204	2
246	248	2
9	21	2
48	49	5
5	242	1
149	152	1
201	208	3
203	228	6
159	166	4
224	227	2
205	212	2
210	211	10
171	173	1
164	171	4
6	243	2
190	227	4
71	78	1
186	216	3
27	28	5
0	0	1
159	182	4
162	166	2
196	199	3
144	144	3
218	222	1
184	190	1
162	164	3
111	244	2
6	33	1
54	56	1
228	240	3
50	156	1
25	57	1
243	249	1
118	241	3
226	227	3
236	245	2
217	218	1
88	94	1
153	154	3
219	221	2
147	151	3
38	38	5
91	111	2
191	220	1
239	241	2
70	72	2
97	101	3
240	242	2
65	68	3
36	40	4
108	114	1
85	87	1
117	118	4
184	187	2
85	97	1
53	64	1
24	117	3
100	115	2
182	188	4
190	192	2
15	25	1
218	227	3
57	113	1
199	204	2
12	79	1
233	241	1
160	175	4
187	192	1
219	223	1
20	36	2
175	181	3
149	149	1
29	39	2
184	231	3
63	65	1
165	169	2
81	82	1
145	145	5
93	169	1
226	229	5
179	182	2
193	230	2
202	205	1
153	179	2
179	181	5
106	107	3
166	169	4
162	168	2
102	103	4
17	20	1
21	23	2
172	179	1
54	55	2
1	228	2
17	19	2
1	233	1
185	240	1
172	180	2
35	37	2
172	221	2
50	54	2
9	37	2
4	45	1
204	205	4
211	214	2
26	79	2
15	30	2
10	94	1
179	189	1
56	177	1
172	177	2
46	54	8
70	84	4
202	207	2
164	175	1
50	167	1
237	239	6
17	41	3
2	14	1
207	236	2
207	225	2
68	84	3
4	35	1
94	99	2
70	113	1
93	111	1
162	165	1
213	246	2
171	178	2
71	76	1
31	33	1
239	240	1
46	107	1
198	200	1
241	244	2
213	215	4
44	55	2
195	215	4
174	176	2
11	31	1
73	75	1
71	83	2
236	238	2
70	76	2
191	241	2
59	71	1
233	238	2
213	218	1
10	11	2
195	205	2
177	182	1
98	102	1
56	58	2
87	89	2
169	170	4
72	73	3
66	71	1
208	210	1
23	29	1
159	167	1
51	155	1
86	92	3
222	223	6
94	105	1
248	249	1
82	83	3
14	30	1
234	242	1
90	102	1
7	25	1
225	234	1
12	52	2
2	3	1
52	144	2
40	41	3
9	10	3
86	88	2
7	24	3
60	234	3
222	228	1
55	61	1
77	80	1
4	15	1
90	99	3
4	242	1
20	43	1
146	155	1
39	46	1
160	165	1
186	189	3
81	117	2
87	96	2
240	246	5
22	33	2
14	34	1
55	66	1
117	119	2
94	113	1
232	235	2
62	63	1
176	177	1
183	187	2
234	236	1
13	13	1
91	101	1
183	188	3
33	36	2
107	114	1
17	18	1
249	249	3
84	86	2
163	175	1
11	42	2
1	4	2
220	243	1
183	186	1
196	207	2
153	161	1
54	64	1
170	237	1
48	170	2
119	245	2
111	240	1
3	39	1
166	175	1
204	223	1
15	19	2
31	116	3
59	205	1
149	151	1
166	168	2
8	113	1
111	242	1
90	101	2
214	217	1
10	36	1
205	223	1
158	169	1
193	219	1
173	176	2
64	65	1
91	100	1
18	35	1
1	39	1
228	230	1
213	216	2
37	42	2
153	160	1
119	167	1
40	53	1
218	224	1
89	115	1
62	239	1
95	99	1
234	238	1
197	200	1
20	186	1
12	34	1
1	11	1
19	35	1
238	244	1
96	117	1
