99	100	5
43	43	15
78	78	7
61	61	12
91	91	8
27	27	3
40	40	5
84	94	1
51	52	5
93	109	1
53	53	6
92	92	6
78	87	3
44	44	8
54	71	5
107	107	4
112	112	8
84	89	3
97	97	9
75	81	3
72	72	11
77	93	9
68	68	7
76	77	3
26	27	1
23	23	4
62	62	6
57	70	5
108	109	2
96	96	5
58	58	10
81	91	1
77	77	7
101	102	5
89	89	3
93	94	8
45	48	1
31	31	3
39	72	2
33	33	6
105	108	4
90	91	3
87	88	5
41	42	8
113	113	8
60	60	6
22	39	2
35	76	6
55	55	10
74	74	21
34	34	6
106	106	5
88	89	4
74	80	2
53	54	4
41	41	6
47	48	4
73	74	4
77	87	6
111	111	15
113	114	10
31	53	2
30	65	2
84	84	7
96	97	5
30	30	8
75	75	2
26	26	3
98	98	7
65	65	3
56	57	3
78	79	1
102	102	2
96	98	3
92	93	1
28	48	3
80	80	8
29	54	1
31	32	1
69	69	9
35	35	4
38	41	4
94	94	6
54	55	3
86	88	2
100	100	8
87	95	4
110	110	8
44	45	1
83	94	5
33	42	5
79	79	9
82	83	3
32	39	1
85	85	4
46	47	3
112	113	7
48	48	5
74	75	1
20	21	1
106	110	6
22	22	6
67	67	5
22	23	4
81	87	1
79	103	1
77	112	1
30	50	1
24	34	2
97	112	3
49	49	6
25	26	2
97	98	3
69	70	7
51	51	12
82	84	3
93	111	4
74	87	3
60	74	2
95	95	10
82	82	4
104	105	6
54	59	1
33	34	4
59	59	6
82	91	4
41	43	1
21	23	1
108	108	7
80	81	1
56	56	3
85	86	3
70	70	4
82	85	5
99	99	2
59	60	4
36	36	7
61	74	2
38	38	13
59	62	2
77	108	2
85	88	2
28	28	9
34	62	1
102	111	3
103	103	4
75	80	2
89	90	3
50	50	11
57	69	1
24	48	1
24	24	1
99	103	4
53	60	2
19	19	5
36	37	3
28	71	1
39	39	5
105	105	4
88	88	6
60	66	4
39	71	1
95	112	2
110	114	5
41	44	2
87	92	1
99	101	3
94	97	1
68	69	1
86	87	4
21	21	7
69	72	2
29	72	1
78	107	1
114	114	2
71	71	3
93	93	4
90	90	8
86	86	3
63	63	3
25	31	3
40	41	2
47	47	5
83	83	2
79	85	2
34	36	1
33	37	2
95	97	3
76	78	2
45	45	1
56	70	2
66	67	3
94	103	1
57	57	1
20	20	3
98	101	2
56	59	2
46	46	2
76	76	1
57	58	3
32	32	3
76	111	1
93	107	4
103	105	3
25	29	1
25	39	1
35	69	2
87	87	2
95	96	1
55	58	1
40	71	3
107	114	3
109	109	1
76	112	1
63	64	3
67	70	1
56	58	2
83	85	2
46	49	1
57	59	1
54	56	1
76	113	1
104	104	1
102	103	3
79	80	2
22	40	2
25	25	2
40	46	1
87	89	1
29	29	3
28	42	1
105	107	3
77	88	2
103	104	2
25	32	1
34	35	1
50	51	1
19	20	1
29	30	1
94	95	1
60	73	1
54	61	1
32	33	1
111	113	1
98	99	1
42	43	1
54	54	1
62	63	1
