15	17	2
169	171	12
27	27	6
127	127	15
134	134	15
171	172	6
126	126	22
14	14	14
30	30	3
181	181	9
194	194	20
141	141	14
165	165	7
171	171	14
170	170	17
175	175	16
132	146	2
114	114	11
168	190	2
160	160	23
65	65	10
104	104	5
155	155	8
188	189	18
187	188	9
112	112	18
169	169	23
105	165	1
4	4	14
55	58	1
151	151	10
121	121	12
99	99	17
178	179	4
30	79	1
52	53	10
174	175	4
136	136	9
130	132	5
40	40	10
7	40	4
58	67	2
180	181	6
24	68	4
34	35	9
105	105	4
136	137	7
34	34	7
150	150	18
166	166	9
4	5	8
164	164	6
144	170	2
109	109	19
58	58	12
148	156	8
127	128	5
54	56	4
154	154	11
21	22	13
138	138	13
146	146	14
119	120	16
5	5	12
43	44	4
158	182	2
51	51	18
50	50	18
184	184	13
39	69	4
149	149	24
15	69	1
47	47	16
177	177	8
10	10	21
148	178	2
197	197	5
57	194	1
185	194	2
42	42	4
124	124	15
73	74	8
115	115	18
32	32	15
98	103	1
189	190	4
33	33	12
176	178	6
40	41	4
5	9	4
74	74	8
115	116	4
196	197	9
26	27	8
183	184	12
16	17	6
9	9	22
186	186	22
132	133	11
181	182	6
139	140	11
8	8	7
14	49	4
113	113	10
118	118	12
100	100	15
135	135	14
156	172	6
24	25	3
159	160	10
114	124	4
137	137	15
189	189	13
52	52	21
72	72	17
90	90	7
13	13	6
163	169	1
0	0	13
163	163	8
158	158	15
11	11	16
145	145	8
159	159	24
143	144	6
188	195	4
7	7	10
59	59	13
65	72	1
88	88	2
3	3	5
141	142	5
67	70	2
107	109	6
156	157	3
186	187	12
168	169	4
193	193	17
152	193	2
185	186	6
195	196	5
123	124	8
33	80	1
100	112	5
122	122	7
45	58	1
140	140	15
190	191	4
178	178	10
188	188	16
191	191	2
41	42	7
129	129	16
116	117	6
73	73	3
53	53	18
18	27	2
168	168	6
124	125	12
182	183	7
78	134	3
17	50	1
190	190	8
161	162	4
114	115	6
76	76	11
20	21	4
1	1	2
101	101	18
142	142	21
23	72	4
182	182	15
65	66	4
123	123	12
130	130	9
148	149	5
195	195	9
98	98	4
3	132	2
142	162	2
125	127	6
148	148	23
157	157	6
50	51	8
79	79	12
64	64	3
23	23	15
55	57	4
96	96	5
11	14	6
192	192	5
48	49	6
120	121	3
15	125	6
95	95	5
37	37	14
125	125	11
183	183	16
136	150	2
120	120	12
180	182	8
133	133	15
28	28	5
171	174	3
10	13	3
97	97	6
83	83	5
12	12	14
36	37	4
108	108	3
173	173	14
58	60	1
135	136	6
12	14	1
131	131	5
109	140	4
122	123	14
2	2	2
160	161	2
49	49	17
21	21	6
13	14	4
196	196	29
170	172	7
143	145	1
35	35	4
128	128	16
155	172	7
162	185	1
11	194	1
139	139	9
145	147	6
16	16	11
56	58	2
166	170	3
106	106	9
154	172	2
193	194	3
138	148	1
56	56	14
176	176	9
176	193	1
44	44	12
42	44	3
5	6	7
111	111	22
99	168	5
79	80	4
194	195	5
76	77	2
19	19	6
131	133	2
172	172	17
59	61	1
150	187	5
24	24	8
178	192	3
2	81	2
162	172	1
9	14	5
86	86	8
22	22	4
23	24	3
184	185	6
41	41	8
143	170	1
113	114	5
58	83	1
15	16	3
78	78	3
10	11	7
67	67	6
162	162	12
117	117	10
58	68	1
132	132	6
43	43	6
40	69	2
45	46	3
144	144	5
27	73	1
174	174	9
170	171	14
49	53	1
185	189	1
100	103	2
171	173	3
38	38	9
67	68	2
183	187	7
152	152	12
48	55	1
102	103	2
186	194	1
14	17	1
167	167	5
30	150	2
116	118	3
94	94	10
23	69	2
167	179	1
153	154	4
102	102	5
47	48	8
48	48	9
82	86	2
107	152	3
143	169	3
116	116	1
23	31	1
14	15	1
121	122	2
87	87	8
55	55	10
134	135	4
185	185	13
115	129	3
192	193	4
179	181	3
169	185	1
49	54	1
165	168	1
33	69	2
161	164	2
73	150	2
145	146	1
60	61	1
23	71	6
35	36	1
179	180	4
128	129	3
31	31	5
46	46	10
27	28	3
110	110	5
99	100	1
168	172	1
18	18	10
21	73	3
187	187	20
22	23	1
158	159	3
94	96	10
177	190	3
180	180	7
142	145	3
37	38	7
0	1	3
39	41	2
107	143	1
125	126	6
9	10	3
179	179	6
28	29	4
114	137	2
163	164	2
153	153	6
82	87	2
93	94	4
25	25	5
33	56	1
53	54	3
83	86	1
70	70	10
152	153	2
95	97	4
80	86	2
188	191	1
3	179	1
147	147	4
46	52	1
58	61	1
161	165	1
59	66	3
137	138	1
10	164	2
54	54	15
157	158	5
148	151	5
26	26	1
39	39	1
120	122	4
2	3	2
133	155	4
18	19	5
20	20	3
23	34	2
162	164	3
7	8	4
187	189	6
96	111	2
46	196	1
146	148	2
151	152	1
142	143	3
163	168	1
100	104	1
10	12	6
6	6	1
165	166	2
154	162	2
30	32	3
160	170	2
175	176	2
177	178	2
39	40	3
22	27	1
105	136	3
143	143	5
98	99	3
57	57	2
0	79	1
68	68	4
168	178	1
166	167	2
105	106	4
69	69	7
104	108	1
36	69	1
155	157	1
31	56	4
16	69	1
11	12	3
34	64	2
153	172	5
156	194	2
66	70	3
189	191	2
119	134	1
17	69	3
45	45	4
154	155	2
1	80	3
141	188	1
4	8	1
110	155	1
24	70	1
36	36	9
5	186	1
155	156	1
59	83	3
27	74	3
2	32	1
29	29	4
80	80	1
15	37	1
85	86	2
156	156	9
149	150	3
161	161	5
166	169	1
108	109	1
62	64	1
176	177	5
28	30	3
137	142	1
58	64	5
4	186	2
76	78	2
164	165	2
112	165	1
107	107	1
118	119	3
97	109	2
78	150	2
4	196	2
57	58	2
5	24	2
11	191	2
36	58	2
114	149	3
11	23	1
64	65	1
112	113	2
129	136	6
150	154	3
101	123	1
53	55	1
38	39	2
117	118	1
186	189	2
167	168	2
103	104	2
6	7	1
58	59	2
3	4	1
61	61	2
1	2	1
144	145	3
119	119	5
144	146	1
150	151	3
145	191	1
116	130	1
8	36	2
32	56	2
81	82	1
99	101	2
32	33	1
9	12	1
89	89	3
15	195	4
50	53	1
82	84	1
34	36	1
171	176	3
53	57	3
111	112	2
55	56	2
140	146	2
114	123	3
64	67	2
63	63	1
82	85	3
109	110	1
25	69	1
113	115	1
129	130	1
87	116	2
130	131	1
149	197	1
182	189	1
150	158	1
37	48	1
40	67	1
101	107	2
166	182	1
111	123	1
115	117	3
71	72	2
30	31	1
25	36	1
17	17	2
46	47	1
49	55	1
150	175	1
49	50	4
1	4	1
12	55	2
99	112	1
134	136	1
100	101	4
99	111	1
20	193	1
159	170	1
8	183	1
84	84	1
65	70	1
66	66	1
22	26	2
170	189	1
94	95	1
81	81	1
63	64	1
110	111	1
58	65	1
133	134	1
42	43	1
25	75	1
157	166	1
101	111	2
23	196	1
97	113	1
167	170	1
102	186	1
142	144	2
33	37	1
194	196	1
138	141	1
62	62	1
32	57	1
186	193	1
10	49	1
153	155	1
19	29	1
167	177	2
149	174	1
21	74	1
134	137	1
