32	32	29
6	7	3
48	48	38
38	57	1
13	13	12
30	30	43
33	33	32
2	5	6
14	15	12
43	43	40
14	14	18
46	46	26
11	11	17
31	42	1
60	60	15
10	10	20
38	38	32
60	61	10
51	51	16
52	54	2
42	42	34
34	34	34
0	46	6
9	9	17
45	45	34
42	43	8
43	44	8
15	16	4
3	5	2
2	2	21
17	18	3
1	25	5
38	40	5
47	47	35
56	56	27
48	49	3
36	36	30
5	5	14
30	31	11
40	42	6
55	56	1
47	48	6
57	57	14
44	44	34
6	6	12
36	37	12
19	19	7
25	25	6
20	22	4
61	62	20
37	53	3
8	15	1
37	37	14
42	60	7
15	15	13
17	17	15
61	61	15
19	21	2
59	59	11
8	8	7
50	50	19
4	4	15
12	13	3
46	47	9
0	1	7
12	12	7
26	50	3
35	36	20
20	20	6
41	42	3
52	52	12
49	49	20
24	24	10
33	35	2
11	12	5
55	55	14
12	14	5
3	3	17
16	44	6
1	1	3
7	7	7
40	40	11
31	32	9
39	39	26
32	35	1
31	31	19
0	30	2
44	56	1
39	40	2
41	58	3
49	50	7
35	35	20
58	60	2
2	3	7
56	57	8
58	59	4
56	58	4
16	17	3
22	22	13
58	61	1
24	58	1
22	23	1
37	39	12
8	45	2
2	34	2
41	41	9
3	4	7
17	24	5
0	32	1
44	45	8
47	49	2
30	36	1
1	5	2
20	21	5
1	46	1
13	22	2
34	35	5
25	54	5
20	23	1
23	42	2
16	22	3
21	23	5
62	62	10
56	59	1
21	22	2
35	44	1
50	51	5
29	29	2
37	50	2
23	25	1
0	25	5
59	60	2
22	24	5
39	58	1
39	55	1
5	6	1
52	55	2
40	58	2
46	51	3
37	38	3
45	46	2
48	52	4
2	25	2
23	24	2
37	44	2
16	47	1
0	0	13
15	19	1
9	10	2
3	48	1
18	18	7
33	50	1
53	54	4
50	55	4
15	22	3
20	35	1
40	51	2
21	21	2
35	37	3
31	44	3
37	55	1
40	41	1
30	50	1
10	11	3
24	25	2
53	53	4
15	21	1
15	43	8
18	19	4
45	56	1
5	9	3
32	33	16
2	30	1
9	44	1
1	42	2
18	24	1
37	52	2
17	20	2
23	23	3
0	47	1
1	2	2
58	58	5
37	56	2
37	45	1
17	19	1
34	45	1
54	54	3
47	52	3
33	34	3
15	45	1
18	22	2
16	16	2
0	6	1
51	52	1
21	46	1
36	44	1
5	43	1
2	50	1
38	41	4
38	39	1
32	37	1
32	36	1
22	46	1
38	56	1
54	58	2
18	21	2
46	59	1
52	53	1
30	53	1
2	4	1
10	46	1
7	8	1
8	9	1
13	33	1
