19	19	40
2	2	37
69	73	3
19	47	3
65	65	19
21	21	29
35	35	31
33	34	17
43	43	24
53	62	3
68	68	10
13	13	33
57	57	27
56	56	32
28	28	31
3	5	7
22	22	25
20	20	19
5	5	29
59	72	1
56	57	14
45	45	27
49	75	5
70	71	15
43	44	7
26	26	18
48	48	23
71	71	8
77	77	15
32	32	21
4	4	19
8	8	16
70	70	13
1	1	15
73	73	21
28	31	5
38	59	2
60	60	10
24	26	3
55	55	30
53	53	12
47	49	6
76	76	10
37	37	9
57	73	1
24	27	5
6	6	15
8	9	13
38	67	6
69	69	31
36	37	9
38	39	8
12	12	21
60	61	13
9	9	17
47	51	3
55	56	13
67	67	12
76	77	7
44	68	4
36	36	16
2	3	9
34	34	16
31	31	18
6	7	2
61	64	3
41	41	14
23	23	9
11	11	26
24	53	4
35	36	9
51	51	10
66	67	11
46	47	11
31	64	7
34	40	1
65	67	1
65	66	6
68	69	2
50	53	1
40	40	9
29	30	16
26	51	3
3	3	19
22	23	3
41	43	4
75	75	13
58	74	1
62	62	15
73	74	3
59	60	4
42	43	6
39	40	10
0	2	4
29	29	32
44	44	10
49	51	5
74	75	8
21	22	12
58	60	1
66	66	20
1	2	10
72	73	7
63	63	23
5	8	4
31	44	2
75	76	4
7	7	14
38	58	5
58	59	7
64	66	5
28	29	5
43	48	5
67	68	5
36	39	3
52	52	15
47	47	17
61	61	24
42	42	19
31	33	2
30	30	9
20	21	6
37	39	3
0	0	21
41	67	4
53	76	2
38	38	15
41	42	10
58	58	29
44	51	2
31	32	2
45	67	1
54	56	6
57	70	1
50	50	7
1	53	2
10	10	19
7	21	3
35	39	2
62	63	10
30	31	13
10	11	5
33	33	21
73	77	2
0	1	5
34	35	7
46	60	2
39	39	10
23	30	3
23	24	17
24	24	15
44	45	6
33	37	1
5	6	8
12	13	1
37	42	1
68	71	4
40	41	7
11	20	2
4	5	7
59	68	4
74	74	25
18	18	10
25	26	5
32	33	6
7	9	1
72	72	4
61	62	11
37	38	2
8	10	2
2	29	1
32	34	3
54	54	7
2	4	8
7	8	7
46	46	27
63	71	2
67	69	1
57	58	4
51	53	4
49	53	4
8	46	2
21	23	3
6	71	3
33	39	1
48	49	4
23	25	2
3	4	6
19	20	2
50	74	1
22	24	3
24	35	1
56	67	3
64	65	1
55	73	1
53	54	2
57	60	1
52	62	4
11	12	3
23	43	1
66	68	2
0	6	2
25	25	14
54	73	3
52	53	5
26	31	3
4	6	5
27	40	5
57	59	2
27	27	3
6	61	1
0	53	2
55	60	1
49	49	5
69	70	6
57	74	2
4	26	2
49	50	3
59	59	9
74	77	3
45	46	3
12	28	3
26	49	1
24	25	14
23	35	2
38	60	5
54	63	2
53	55	4
62	66	1
18	19	4
18	20	3
53	73	3
6	31	3
58	72	4
34	57	3
12	48	3
59	63	2
51	70	2
30	33	2
56	59	2
1	6	1
47	52	3
2	5	1
36	38	1
34	39	1
27	28	3
44	67	1
20	22	2
9	10	2
1	25	1
39	42	2
66	72	3
32	60	1
64	70	1
46	52	1
25	28	6
54	72	1
52	54	6
43	62	1
24	48	2
8	11	4
14	45	2
53	74	2
39	41	2
61	67	1
51	52	2
55	58	2
40	43	1
32	43	1
47	74	2
51	77	4
34	37	1
14	62	1
69	72	1
50	51	2
3	11	1
32	44	2
48	55	1
75	77	1
70	72	2
28	30	1
62	67	1
64	64	3
25	48	1
48	50	1
31	38	2
27	29	2
62	64	2
58	73	2
25	27	3
1	4	3
33	38	1
42	62	1
28	34	2
45	77	1
50	72	3
57	72	1
44	53	1
38	61	1
45	66	2
35	38	1
13	42	1
12	76	1
37	58	3
31	34	1
68	70	1
34	36	1
54	71	1
22	64	1
29	53	1
56	58	1
42	66	1
27	49	1
14	42	1
30	54	1
73	76	1
41	55	1
54	55	3
56	70	1
33	35	1
26	57	1
21	55	1
