230	230	14
66	67	3
35	35	30
36	36	33
172	172	26
212	212	19
112	114	5
168	168	18
56	57	22
95	117	4
70	71	6
41	50	5
23	23	18
3	6	6
51	53	2
69	69	12
233	233	11
150	155	2
150	150	10
66	66	38
88	98	3
87	87	25
192	192	31
215	215	17
8	8	13
222	223	2
27	32	3
147	147	7
164	164	16
12	12	21
181	183	3
21	22	7
105	105	11
168	182	4
192	196	2
155	155	25
63	64	10
183	183	37
15	15	13
88	89	3
202	202	27
78	84	5
34	34	10
19	19	44
196	198	1
156	156	40
243	243	7
106	107	5
185	185	24
38	38	16
213	216	4
234	234	22
55	55	18
63	63	18
84	84	17
178	182	1
73	74	1
37	37	19
225	225	23
173	173	22
117	117	19
157	157	18
87	89	1
180	180	17
247	248	6
151	151	11
168	169	21
214	214	39
44	44	20
228	229	11
236	243	1
5	5	12
172	221	1
229	229	5
41	41	14
27	27	16
68	68	26
201	201	26
165	165	24
78	78	22
71	71	28
172	222	7
113	114	15
244	246	5
204	205	1
93	94	9
50	50	29
183	240	3
33	204	6
20	20	20
202	203	13
94	94	30
54	54	31
41	42	9
223	224	12
213	214	18
240	241	7
80	81	5
92	92	12
178	178	20
111	115	11
145	145	6
90	90	15
99	99	20
223	223	15
121	121	1
206	206	6
171	187	3
235	236	15
3	3	15
25	25	8
7	28	2
55	56	6
212	247	7
184	184	17
85	85	15
153	169	2
65	65	9
43	44	10
226	226	18
204	204	15
205	205	16
189	192	3
109	110	16
159	167	3
9	30	2
207	207	11
43	43	20
76	76	13
40	40	7
224	224	18
240	240	20
113	113	18
115	115	10
203	204	6
153	153	16
117	119	5
241	241	19
9	10	4
17	202	3
6	6	20
77	86	4
58	58	29
57	69	4
119	119	6
237	237	22
209	209	33
21	21	22
45	230	1
186	186	32
161	162	10
145	161	3
64	208	3
70	90	7
59	59	10
200	201	7
186	187	9
185	186	8
30	30	18
106	106	12
34	36	4
116	116	30
112	115	5
211	212	8
183	184	15
244	244	20
221	223	6
19	24	4
244	245	6
190	191	2
177	177	20
22	22	13
89	89	24
241	245	3
192	193	5
117	118	13
52	53	8
7	9	8
71	73	10
198	198	18
176	177	11
245	245	25
1	10	4
25	26	2
26	26	21
216	217	1
181	181	18
90	198	5
185	187	2
95	95	17
112	112	23
214	224	6
6	10	3
1	1	21
174	174	18
221	221	20
68	69	3
56	66	2
171	171	18
157	164	5
70	70	12
94	95	6
18	19	6
228	228	13
236	240	1
170	187	1
194	194	8
209	215	1
96	97	3
159	160	4
60	88	2
61	63	5
99	100	7
40	41	19
39	226	7
27	28	7
92	93	10
9	9	11
209	216	4
33	33	17
10	35	2
17	18	3
175	208	4
91	200	10
214	215	13
64	64	19
88	94	2
119	120	8
44	45	6
18	18	14
177	180	3
216	216	4
29	73	3
189	195	1
162	164	4
56	58	3
107	107	20
91	91	20
104	104	3
86	87	6
47	47	19
41	43	3
20	21	8
46	46	18
197	197	36
17	17	19
203	203	26
152	152	24
193	194	3
170	170	17
22	23	11
177	178	2
159	159	5
245	247	3
38	56	1
120	120	6
225	226	8
232	232	11
236	237	6
55	57	2
17	20	3
45	45	23
48	48	19
210	210	16
223	225	3
206	207	7
229	235	6
213	213	25
167	204	7
163	163	6
210	211	16
47	67	5
75	75	10
55	69	8
114	114	10
70	91	1
36	38	3
77	77	22
174	187	10
168	177	1
211	213	4
153	167	2
114	115	9
197	198	11
96	98	2
91	92	13
167	167	17
19	27	2
247	247	18
49	49	20
118	118	28
149	235	2
116	117	7
100	100	22
39	57	1
175	175	15
154	182	1
54	202	1
44	46	5
109	241	2
184	186	3
191	194	4
241	242	14
238	239	9
62	62	27
7	8	4
167	168	7
155	156	12
222	222	7
105	106	2
149	150	8
88	101	3
57	58	8
42	42	8
165	166	5
162	162	26
29	29	10
166	167	6
18	20	5
53	53	30
187	187	19
7	7	14
212	216	8
211	211	33
193	193	19
196	196	9
98	98	14
176	176	14
152	153	1
82	82	7
75	76	11
29	30	1
98	99	9
161	161	8
115	116	8
220	220	15
248	248	10
216	219	1
212	242	6
176	238	1
236	236	15
239	239	16
160	160	20
42	92	2
96	96	17
179	179	17
242	242	9
85	86	9
227	227	8
38	50	5
187	188	4
49	50	7
67	68	10
24	24	9
87	95	2
184	185	2
175	181	5
189	189	13
153	179	6
111	112	8
197	199	8
48	49	2
110	110	12
195	195	6
213	215	6
51	52	7
40	42	5
182	184	4
9	52	5
65	66	12
212	225	1
187	192	3
218	218	10
166	166	14
79	80	4
182	183	22
73	73	15
181	182	5
0	2	4
230	231	12
48	50	7
208	209	13
10	10	11
174	236	2
76	88	2
2	7	5
156	166	5
189	207	3
86	102	2
61	61	9
235	235	7
35	64	1
161	163	2
84	88	9
66	186	3
54	92	3
13	15	3
190	190	9
111	244	2
246	246	23
209	217	4
61	75	3
49	69	4
67	208	1
185	219	1
33	205	4
68	70	10
11	12	1
179	181	2
168	186	1
88	88	17
184	209	3
11	11	9
223	227	3
220	234	3
97	97	18
109	155	3
175	178	2
31	31	13
240	244	4
208	237	2
212	240	3
172	173	12
117	120	2
36	37	3
113	145	5
73	91	3
59	61	2
28	28	7
103	103	2
175	184	3
60	60	15
46	61	2
41	46	2
35	233	1
230	232	2
92	94	7
32	32	15
79	79	13
193	196	2
220	221	18
165	182	3
175	176	8
52	227	5
198	199	6
240	243	3
118	237	2
38	40	2
217	217	6
72	72	3
49	70	8
213	220	6
171	174	2
161	201	4
63	213	5
32	33	10
237	248	3
93	93	17
183	207	1
172	188	1
39	39	6
208	208	12
149	162	2
205	206	2
38	39	7
16	201	2
50	51	2
199	200	7
61	89	2
171	200	1
220	223	2
218	239	1
229	230	7
59	66	4
102	102	2
173	181	3
57	59	4
86	86	13
68	81	2
180	181	4
2	2	5
238	247	1
84	85	6
189	198	1
195	196	2
162	163	7
60	87	1
18	21	2
56	56	8
229	245	3
71	72	9
14	38	1
164	167	3
16	16	21
209	210	10
241	246	5
222	228	3
36	64	2
178	179	9
41	51	1
162	200	2
19	25	3
194	236	2
39	40	4
199	199	12
52	52	13
108	108	10
146	152	3
178	184	2
217	218	9
172	174	6
108	111	1
50	89	2
175	182	3
26	27	5
78	79	2
14	33	1
25	27	2
60	61	2
111	111	19
33	35	3
30	34	1
152	167	5
150	186	7
35	47	1
218	237	1
157	174	2
14	14	16
231	231	12
150	151	7
39	54	1
170	186	2
90	91	7
223	226	8
37	38	12
31	55	1
203	205	2
51	212	4
236	238	3
40	54	4
109	231	4
200	219	3
186	188	2
16	20	1
210	218	2
109	109	11
196	236	2
188	190	2
3	8	3
61	62	9
11	13	2
220	224	2
152	157	7
29	31	2
219	219	14
241	244	3
190	194	1
227	245	1
228	231	2
32	205	4
58	62	3
112	113	15
36	48	6
41	94	3
196	197	2
62	63	6
22	205	2
28	29	3
171	186	6
67	209	1
158	158	6
16	21	2
67	67	6
8	10	2
63	214	1
178	180	2
238	238	5
151	153	5
170	177	4
175	179	3
101	101	9
38	58	1
185	198	3
11	14	2
37	53	3
156	185	3
169	169	11
175	238	2
164	165	9
91	96	4
177	208	4
145	147	4
59	60	4
16	17	4
176	187	3
51	51	5
120	241	1
175	187	1
92	95	1
191	192	10
231	245	1
170	171	5
165	167	4
156	173	3
180	209	2
111	116	8
13	17	4
55	99	2
35	228	3
200	218	4
180	183	5
104	118	3
154	154	9
35	63	2
229	231	4
59	64	1
173	174	1
103	108	3
34	50	2
14	16	1
169	170	3
87	88	9
23	57	4
191	191	6
46	207	4
42	49	4
46	229	3
170	185	2
9	29	2
77	78	3
108	153	1
225	237	1
57	88	3
197	201	2
153	154	6
200	200	17
210	213	5
14	17	3
201	202	12
4	204	2
239	240	3
43	48	1
172	181	3
37	39	2
226	227	5
176	181	1
194	196	1
95	111	2
175	236	2
160	201	4
118	119	2
248	249	3
54	205	1
5	15	6
231	232	5
150	154	1
20	23	3
2	4	4
65	211	1
62	213	1
4	4	8
178	183	2
11	20	2
160	162	4
107	108	5
10	11	5
156	176	3
10	12	2
149	152	4
118	241	2
172	187	4
174	180	2
5	11	1
176	184	2
187	200	2
54	55	6
157	158	3
188	192	1
6	11	4
35	36	3
86	173	3
225	227	1
44	57	2
31	33	2
30	31	3
176	208	1
64	65	4
227	228	3
150	220	5
170	182	2
35	48	1
56	84	1
154	155	2
17	19	3
163	164	1
151	152	2
85	105	1
37	47	2
151	178	2
169	173	4
120	145	3
97	98	4
209	211	2
55	115	3
83	83	1
152	179	2
74	75	5
86	95	5
118	236	1
152	166	1
107	117	2
164	166	1
169	175	4
103	105	1
22	55	1
198	243	1
101	102	2
144	145	1
60	64	2
58	60	3
29	72	2
182	182	10
14	19	1
156	245	1
171	207	1
4	5	5
168	181	3
212	213	2
37	73	1
48	67	1
84	100	1
3	5	3
1	2	3
229	246	1
81	81	2
194	195	1
186	201	1
44	91	1
89	95	2
42	54	2
51	222	1
218	219	5
150	156	1
4	53	2
79	81	1
109	244	2
157	171	2
5	7	6
146	146	3
222	224	5
245	246	2
188	188	3
174	235	4
221	229	2
185	235	1
111	242	1
71	88	5
19	230	1
57	57	3
153	168	1
153	180	1
170	189	4
49	90	4
152	168	3
42	47	2
106	109	1
36	60	2
58	59	4
92	201	4
105	109	1
171	172	3
209	231	3
179	180	4
83	105	4
45	46	1
47	48	1
222	233	3
18	94	1
76	77	2
19	36	2
84	97	2
178	208	4
104	110	1
84	101	3
207	220	1
240	242	3
191	195	3
210	237	3
15	16	2
51	62	3
188	207	1
163	165	3
21	23	2
152	155	1
102	103	1
81	101	2
118	242	4
212	243	4
14	15	3
159	163	1
0	0	2
184	234	4
11	229	2
173	175	1
79	86	2
36	39	2
110	245	5
1	201	1
6	14	1
87	111	2
104	105	2
83	149	2
30	43	2
232	233	2
49	51	3
46	47	2
186	192	1
195	240	1
63	65	2
38	41	1
226	228	1
211	247	2
60	62	4
181	208	2
153	166	2
85	87	2
200	214	2
42	43	4
111	246	1
234	236	4
37	54	1
89	90	3
112	119	1
170	176	1
189	202	1
108	244	1
172	175	4
8	42	1
99	110	1
169	208	2
190	209	4
8	9	2
190	193	2
82	102	1
173	180	2
212	219	2
153	244	3
16	23	1
167	179	2
58	69	2
5	6	3
59	70	3
33	63	1
21	27	2
30	37	1
25	32	1
9	221	1
55	61	2
169	177	1
31	58	2
182	246	1
152	181	2
192	195	1
24	25	5
187	190	2
101	114	1
39	227	1
156	172	1
237	238	1
52	57	2
12	17	2
42	48	1
6	9	1
87	108	2
80	80	1
8	202	2
59	98	1
90	92	3
242	243	1
200	202	1
79	85	1
82	83	1
82	98	2
174	186	1
176	179	1
64	211	2
10	19	1
36	230	1
80	82	2
59	205	1
86	92	1
203	206	1
69	144	1
120	144	1
149	222	1
64	87	1
226	229	1
4	203	1
197	200	1
195	198	2
97	99	1
243	244	2
38	53	1
88	185	1
146	155	1
178	207	2
34	35	1
153	178	1
2	5	2
46	55	1
3	7	1
232	249	1
199	201	1
19	20	3
158	160	1
65	208	1
97	105	1
210	215	1
175	237	1
90	96	1
180	208	2
15	155	1
21	26	1
202	207	3
233	234	1
144	144	2
71	90	1
157	160	3
27	29	1
150	184	1
39	214	1
43	47	1
185	220	4
176	183	1
213	224	2
100	101	1
53	54	4
157	168	1
41	52	2
8	44	1
221	222	1
180	182	1
169	176	1
173	220	1
38	47	1
113	115	1
157	172	2
108	109	1
7	203	1
214	220	1
43	45	1
177	181	1
205	236	1
28	32	2
8	28	1
88	91	1
101	110	1
6	7	1
187	202	1
241	248	1
165	203	1
10	47	1
45	233	1
108	110	1
85	96	1
11	18	1
162	172	1
39	56	1
232	248	1
29	54	1
21	41	1
210	217	1
