16	16	8
0	0	9
46	46	8
121	159	1
67	67	12
162	162	7
162	163	8
21	28	5
31	32	7
121	134	2
108	137	1
10	10	9
113	133	5
163	187	2
13	16	1
148	152	1
64	65	4
3	103	2
73	82	4
26	55	2
182	182	9
14	14	8
181	181	2
126	126	5
54	54	10
26	28	6
92	93	10
126	127	10
61	61	6
145	145	7
157	167	3
121	121	14
172	172	6
155	155	7
38	39	5
73	78	3
19	19	7
43	43	8
20	56	3
125	126	4
130	130	12
4	4	5
124	130	3
84	84	6
124	126	4
11	28	4
18	93	1
91	93	4
28	28	14
86	86	5
178	178	3
37	37	9
3	58	1
48	65	4
120	140	5
39	40	2
113	113	11
107	137	4
84	115	6
71	71	8
13	18	3
89	89	12
78	78	8
23	56	1
83	149	3
32	33	3
111	134	2
92	94	3
2	2	7
156	158	3
97	161	4
173	173	6
68	68	3
144	144	12
153	154	2
184	185	1
167	168	10
101	101	7
6	7	2
33	33	2
10	11	1
171	171	4
113	135	2
139	139	11
39	39	11
53	53	4
81	135	1
77	77	2
76	76	2
166	166	2
37	94	2
63	70	1
45	45	6
139	146	6
47	48	4
48	71	2
149	150	7
109	109	4
34	34	2
123	123	9
178	179	6
160	166	3
108	108	7
48	48	11
114	114	3
145	147	3
83	131	4
21	21	10
99	99	4
31	31	7
122	164	1
24	24	7
4	13	1
5	5	12
6	25	2
80	80	12
87	96	3
94	104	4
66	66	12
22	22	4
100	155	1
3	13	1
102	102	10
95	97	2
4	5	3
114	115	1
152	152	3
86	97	4
98	169	3
27	27	5
83	83	9
135	136	2
107	142	2
13	52	3
185	185	5
104	104	4
78	80	4
88	88	9
132	132	7
98	98	2
96	98	8
56	58	5
119	121	2
133	134	8
95	98	2
91	91	9
35	36	6
55	55	1
91	94	9
62	62	3
70	70	7
97	98	4
58	58	6
62	80	5
103	103	1
171	172	3
134	136	2
186	186	2
140	141	3
163	163	7
74	78	5
119	158	5
182	183	3
72	73	3
13	21	2
12	16	2
175	176	4
117	118	9
171	189	2
153	153	4
156	156	8
107	107	3
142	142	10
103	156	2
41	41	10
74	74	5
90	90	6
111	111	4
168	185	4
87	87	10
15	57	2
180	181	3
70	71	3
79	79	5
38	38	8
163	164	10
82	82	5
5	6	4
17	64	2
106	107	3
8	8	7
40	41	3
133	133	8
112	112	7
109	112	1
76	77	2
23	23	3
88	89	2
151	151	2
27	30	2
54	55	7
81	81	9
63	63	5
117	119	2
7	8	2
20	53	2
4	22	1
95	95	5
93	93	1
115	117	1
157	158	4
81	105	3
65	67	2
1	3	1
27	34	3
46	138	1
148	148	8
29	29	5
66	69	1
12	18	2
42	42	8
0	19	1
106	106	3
147	147	10
1	54	6
128	128	2
112	135	2
96	96	6
120	120	2
5	12	4
19	61	2
72	132	2
112	129	4
27	29	3
53	54	2
110	110	10
32	58	1
13	15	4
136	136	13
116	152	3
1	2	8
160	167	6
169	169	1
33	35	4
68	69	2
6	6	1
30	30	1
62	63	3
13	20	3
189	189	1
97	160	2
100	100	3
16	17	9
95	130	1
100	103	2
122	133	3
108	112	1
10	12	7
129	130	4
13	13	5
26	34	4
171	190	3
72	93	1
129	129	8
20	54	3
76	78	2
99	130	3
166	172	3
15	15	1
94	94	2
23	24	5
2	25	5
73	133	2
118	118	8
141	141	4
125	125	3
168	168	3
141	143	5
29	30	4
158	162	2
15	21	5
184	184	3
147	164	3
150	150	3
127	127	3
4	20	1
28	31	1
154	154	4
40	40	3
44	44	2
6	8	1
72	112	2
168	169	1
11	18	4
69	69	1
139	140	1
157	157	4
122	123	3
190	190	1
115	115	5
85	87	5
131	131	10
97	97	3
14	22	2
11	11	3
27	31	2
58	62	2
64	64	3
151	152	2
14	15	5
67	71	1
19	20	2
21	64	2
117	117	3
93	94	3
114	122	2
135	137	2
7	7	1
119	122	4
18	18	2
186	187	1
25	25	2
42	43	1
188	188	3
36	37	2
162	165	3
140	140	4
81	136	2
114	116	1
45	72	2
19	27	1
56	57	1
161	167	1
138	138	4
97	170	2
59	59	3
72	72	1
16	22	1
35	35	8
131	133	1
33	34	3
138	139	3
93	113	2
3	3	3
161	161	3
120	154	2
109	110	6
12	12	7
9	9	2
27	61	1
114	117	3
87	88	2
72	110	1
164	165	2
106	148	2
95	106	3
23	99	2
46	82	1
26	26	4
137	137	1
60	60	7
127	128	3
26	30	2
60	61	2
36	36	1
47	47	1
45	107	1
131	132	1
55	62	1
52	72	1
89	90	4
80	88	2
24	101	1
83	85	1
75	75	1
17	17	3
100	101	1
168	174	1
116	116	2
17	36	2
57	57	6
124	125	3
84	85	1
164	164	7
116	117	1
20	20	1
136	138	2
134	134	1
24	25	2
150	151	1
21	24	3
38	54	3
134	135	1
135	135	2
175	185	1
45	105	2
73	131	2
91	99	1
31	44	1
63	65	1
57	61	1
119	119	3
71	80	3
85	152	2
143	144	2
165	165	3
175	188	2
110	111	2
175	175	1
24	57	3
115	126	2
56	56	3
61	62	1
75	84	1
122	122	4
75	78	2
32	32	3
146	146	1
45	106	1
19	21	3
1	1	1
84	130	1
0	14	2
138	140	1
61	64	1
0	48	2
124	124	4
176	176	1
20	55	1
0	61	1
19	59	3
20	21	1
107	133	2
40	42	2
123	136	2
5	20	1
38	57	3
93	108	1
65	66	2
0	64	4
1	13	1
148	149	1
31	35	2
4	6	1
16	38	1
98	99	1
137	138	1
178	180	1
58	60	1
95	170	1
91	92	1
120	121	1
5	15	1
123	157	1
6	41	2
143	143	3
98	106	1
98	167	1
106	130	1
35	56	1
96	97	2
6	34	1
20	57	1
92	130	1
138	141	1
167	167	2
147	163	1
169	170	1
139	147	1
93	112	1
83	110	1
6	10	1
82	83	1
5	22	1
144	145	1
78	79	1
174	185	1
4	54	1
107	145	1
158	158	1
103	104	1
94	112	1
176	179	1
99	154	1
