68	68	9
32	32	6
98	99	3
15	19	2
43	43	1
75	75	9
72	73	3
113	114	2
33	33	6
26	47	3
85	85	6
63	64	5
101	101	5
8	91	2
56	56	6
77	82	3
12	12	12
133	133	2
100	100	2
64	64	11
47	47	10
72	74	2
78	78	6
31	31	7
44	44	2
25	80	4
69	70	8
130	130	2
72	124	2
134	134	2
91	95	3
16	16	2
63	75	3
1	1	3
102	103	4
28	29	4
35	35	5
27	36	3
88	88	5
27	28	3
20	20	10
127	127	7
21	21	4
10	11	5
117	117	6
39	39	4
46	46	11
104	105	4
90	90	6
93	94	2
116	116	8
8	9	3
3	3	3
30	30	4
110	111	2
38	39	3
7	27	3
22	22	4
96	96	2
126	126	1
15	16	1
26	26	6
86	86	5
9	73	2
119	120	1
10	74	6
90	99	1
85	86	2
107	110	1
0	0	6
108	108	4
87	87	4
28	79	2
106	106	8
67	67	2
16	19	1
42	111	7
62	62	4
15	22	2
41	41	4
99	99	7
89	89	3
84	86	2
74	74	3
65	65	15
60	60	2
27	27	6
82	82	6
122	123	5
102	102	3
111	111	5
125	125	1
73	73	7
107	114	2
72	72	4
45	86	5
20	73	1
6	6	9
29	30	4
68	69	4
8	8	5
84	84	8
90	91	3
65	66	1
17	19	2
103	103	7
21	22	3
98	98	6
91	92	5
7	91	2
21	81	4
44	45	1
2	2	2
43	81	3
35	47	3
22	23	2
25	26	3
5	5	1
76	76	3
70	71	2
131	132	2
67	68	2
78	79	6
75	83	4
113	117	1
5	127	1
94	94	9
55	55	4
63	63	2
107	115	2
37	37	3
5	6	4
91	91	7
27	93	3
9	9	8
66	67	2
122	122	5
127	128	6
36	38	1
113	116	1
94	96	3
71	116	4
74	75	2
34	34	1
95	97	2
73	74	2
38	81	1
118	119	2
80	80	2
38	56	1
66	66	4
121	121	4
74	86	1
100	101	6
118	118	2
94	95	1
84	93	1
110	110	5
128	128	2
18	18	4
113	113	1
46	73	1
14	14	5
107	107	3
15	20	2
89	90	2
14	100	2
10	10	5
93	100	2
4	133	2
16	20	2
109	109	4
56	57	1
117	119	1
88	89	1
46	47	1
12	26	3
90	102	1
1	2	3
72	113	1
93	93	1
22	49	1
132	132	3
129	129	1
97	97	2
79	79	4
77	77	2
90	92	1
63	71	1
38	38	4
33	34	2
41	44	1
61	61	4
97	100	1
60	61	1
132	133	1
38	82	1
37	48	2
46	75	1
86	88	1
99	100	1
39	56	2
57	57	2
103	106	1
77	79	2
78	81	2
7	16	1
36	46	1
74	110	1
40	40	3
23	23	1
83	83	2
86	93	1
16	85	1
83	96	1
24	35	2
93	99	1
83	85	1
87	88	1
18	57	2
103	105	1
58	58	1
13	14	1
45	64	1
31	32	1
97	98	1
82	84	1
3	126	1
15	34	1
90	100	1
4	5	1
4	101	1
5	25	1
16	92	2
9	42	1
75	76	2
11	13	1
89	93	1
11	12	1
51	51	1
6	128	1
103	128	1
7	7	1
10	34	1
70	70	1
42	42	1
111	112	1
81	81	2
112	112	1
29	29	1
43	45	1
