148	148	8
142	142	11
141	141	7
58	58	12
84	85	3
37	38	3
53	53	19
25	26	2
47	47	15
15	15	6
11	12	3
147	154	2
131	133	2
179	184	4
105	111	2
127	127	9
168	168	4
51	51	10
181	181	5
11	11	6
70	70	4
27	27	7
164	164	8
140	140	1
196	196	4
36	37	3
111	111	8
119	137	2
130	130	4
174	174	11
112	112	5
180	181	4
46	46	6
116	137	2
161	162	3
133	133	6
18	40	1
9	9	7
171	194	6
58	64	1
98	98	4
167	167	7
151	152	4
4	4	4
6	7	2
40	41	7
32	32	7
162	163	2
104	104	12
101	101	3
158	160	2
178	178	3
77	77	5
175	179	2
136	156	1
186	186	10
16	16	5
20	21	1
96	97	2
96	96	6
24	25	1
171	172	1
195	195	7
157	158	4
188	190	3
0	0	3
184	186	4
188	188	10
89	90	2
6	6	1
194	194	12
124	125	5
63	63	4
145	145	4
14	14	13
19	20	2
56	56	5
54	54	1
162	162	3
109	110	2
1	1	3
32	51	2
175	176	3
190	190	4
180	180	5
119	156	3
44	44	5
25	25	2
20	20	7
151	151	6
136	142	3
153	153	2
163	164	4
197	197	6
174	189	4
99	99	5
187	187	8
170	170	8
52	52	8
156	156	8
70	79	1
5	37	2
48	50	7
147	147	7
31	44	1
67	69	3
62	64	2
23	26	4
176	178	1
22	22	2
185	193	6
195	196	2
183	186	3
185	186	4
28	28	9
178	179	4
123	129	5
107	107	1
37	84	2
137	137	8
119	119	3
109	109	1
30	30	7
34	35	4
2	2	1
139	140	3
68	68	1
141	159	1
110	110	8
191	191	6
190	191	3
13	14	2
57	57	3
121	141	1
34	34	3
29	31	2
100	118	2
170	171	4
189	189	12
159	159	9
124	124	8
157	157	1
181	188	1
59	62	4
143	143	10
122	122	6
118	121	1
144	145	2
36	36	4
40	40	1
108	108	2
185	185	6
143	144	5
142	143	1
194	195	3
164	167	1
115	115	4
126	126	4
174	175	1
42	42	1
162	169	2
74	87	2
163	163	3
103	103	5
108	109	1
12	12	6
26	26	4
179	179	3
38	84	3
130	131	2
18	36	1
152	152	3
95	95	2
41	41	4
5	7	3
140	157	1
169	169	2
184	185	6
48	49	1
45	45	4
129	171	5
38	38	6
192	193	2
177	177	3
31	31	1
72	72	2
174	176	2
165	166	3
150	150	3
153	155	2
138	138	3
132	132	3
70	71	1
72	73	3
138	139	6
43	44	2
130	142	1
128	129	2
132	133	2
115	117	1
47	48	5
43	43	2
83	85	1
9	11	2
196	197	3
59	59	2
128	128	4
100	100	1
25	27	2
117	117	1
81	81	1
39	39	6
105	105	4
106	129	3
49	49	3
10	11	1
17	17	5
113	128	4
192	192	3
193	193	6
67	67	7
74	85	3
50	50	4
184	184	2
187	188	2
122	142	1
131	131	4
116	116	2
102	103	2
9	25	2
171	171	5
169	171	3
7	7	4
129	129	3
166	167	2
165	165	1
182	182	5
113	123	3
23	23	2
20	24	1
26	28	2
101	104	5
42	186	1
39	40	2
115	116	1
138	154	3
34	36	3
150	158	2
172	177	1
149	149	1
83	83	2
65	66	2
146	154	1
18	19	1
123	123	1
62	62	3
135	135	2
48	48	5
17	18	1
156	161	2
123	124	1
166	189	2
87	87	1
99	112	2
154	154	3
140	151	2
172	172	1
117	118	1
86	88	2
116	119	3
183	184	1
145	149	1
116	132	1
87	89	3
68	78	2
157	162	1
94	94	1
176	176	3
57	58	3
17	50	3
16	24	1
64	64	1
106	107	2
165	167	4
27	28	1
47	183	5
76	76	1
15	16	2
159	168	2
139	141	1
181	191	1
160	160	1
127	128	1
149	150	1
107	114	1
102	102	1
99	113	4
168	169	1
124	171	1
81	82	1
147	148	1
98	99	1
183	189	1
189	190	1
167	180	2
113	114	2
0	2	2
118	119	1
22	28	2
163	168	2
44	45	1
161	161	2
114	115	2
24	27	3
112	113	1
142	149	1
146	146	2
103	106	1
96	116	1
71	82	1
125	125	4
145	155	1
142	146	3
134	137	1
73	73	1
4	21	1
189	191	1
139	139	1
148	155	3
173	173	1
118	135	1
178	189	1
29	29	2
25	37	1
102	104	1
10	10	2
136	136	1
33	33	1
158	158	1
116	118	1
109	148	1
150	154	1
54	55	1
59	64	3
114	114	1
166	166	1
132	153	1
23	24	1
14	15	1
78	78	3
137	138	1
155	159	1
161	171	1
103	105	1
106	106	1
39	59	1
148	172	1
13	54	1
155	155	1
1	2	1
59	60	1
