9	9	4
5	50	4
42	42	3
62	63	5
53	53	1
156	156	10
112	113	5
27	27	10
107	108	5
7	7	6
87	87	7
81	142	2
94	94	11
68	69	5
73	73	2
2	116	2
8	9	7
55	111	2
50	50	6
169	169	1
69	70	6
110	111	7
8	8	5
111	111	9
51	51	5
85	85	6
126	127	1
129	129	3
28	28	8
158	160	2
85	142	3
24	25	5
108	108	2
57	57	1
19	19	6
43	43	5
158	158	2
75	75	2
63	98	3
162	162	6
125	125	7
133	137	1
35	35	4
81	81	4
168	168	2
152	152	4
71	71	4
135	135	9
102	104	1
140	140	1
101	101	5
101	120	3
101	103	2
90	90	4
70	71	2
161	161	2
138	138	3
84	90	1
72	72	7
114	114	4
91	96	3
102	103	2
122	122	3
24	24	4
170	170	4
122	124	1
90	91	5
155	155	4
84	84	14
114	135	2
33	33	1
66	67	3
132	132	2
146	148	2
49	49	8
118	118	3
47	48	4
147	147	2
4	38	2
3	11	2
74	74	5
19	22	2
80	82	1
37	37	5
54	55	8
112	112	3
74	75	2
25	25	7
97	115	2
77	133	1
146	147	3
45	45	9
69	103	3
149	149	4
40	40	2
2	53	3
125	127	2
84	114	1
76	80	5
84	127	3
38	117	2
56	64	2
35	36	4
156	167	1
77	166	2
22	22	3
92	92	3
16	19	1
0	0	6
134	134	1
66	66	6
92	94	3
39	86	1
39	53	2
12	13	2
101	102	2
86	90	5
122	126	1
80	132	2
44	44	3
38	49	2
77	77	3
76	76	2
109	109	7
1	2	4
76	142	1
20	20	4
54	54	2
83	84	5
44	99	1
79	79	7
139	139	1
72	73	2
84	116	2
67	69	2
3	3	3
167	169	2
91	94	1
123	123	2
110	110	5
11	11	2
143	143	3
101	106	2
3	4	2
105	105	1
56	113	1
97	104	1
5	12	3
126	130	2
96	96	3
81	82	4
97	97	4
5	5	2
148	148	5
55	55	1
64	64	4
23	24	2
16	17	2
2	2	8
99	102	2
137	137	5
100	118	5
24	48	1
134	143	2
12	12	8
4	11	2
76	145	2
36	44	1
101	122	2
162	163	2
116	116	5
119	138	1
82	82	2
52	52	1
168	169	7
43	109	1
39	55	3
14	14	1
146	146	2
15	19	4
169	170	5
93	116	2
68	68	2
104	104	3
40	41	1
130	131	6
79	80	3
44	72	2
160	160	4
46	46	2
77	148	1
141	143	1
159	159	3
78	78	1
121	121	2
154	160	1
40	88	1
105	116	2
11	17	2
151	151	2
162	164	1
96	114	1
138	141	1
82	123	1
153	156	1
8	10	2
83	88	1
154	154	7
36	36	3
103	104	4
0	15	1
0	2	2
119	119	3
38	38	3
46	74	1
44	73	2
47	49	1
110	112	1
95	95	2
117	117	2
9	10	1
17	17	1
153	154	2
21	21	2
17	18	1
91	91	2
56	56	2
131	131	1
103	103	2
42	43	2
13	13	2
97	114	1
51	53	1
34	35	1
120	120	1
124	124	1
6	6	1
70	117	2
55	115	1
131	165	1
71	74	1
26	26	4
121	122	1
141	141	1
125	126	1
98	98	1
56	108	1
107	107	3
63	103	1
54	56	2
119	120	1
87	98	1
142	142	2
164	164	2
153	155	1
74	123	2
133	167	1
69	69	2
55	113	2
96	121	2
88	89	1
133	133	1
55	87	1
36	109	1
17	20	1
39	46	1
144	144	1
152	153	1
78	137	2
25	26	1
18	20	1
153	169	1
66	85	1
87	88	1
