83	83	6
50	106	1
169	169	6
77	112	4
155	155	20
175	175	16
202	202	10
189	190	10
106	107	5
85	114	2
41	41	13
51	51	7
219	219	15
233	233	14
37	37	9
59	62	1
60	62	1
115	115	14
49	77	5
174	174	3
208	208	29
110	110	4
212	213	4
225	226	2
23	33	3
213	214	7
232	232	10
74	74	4
171	171	20
188	189	4
23	23	8
223	229	12
35	68	1
235	235	18
70	196	2
100	100	22
216	217	9
175	176	5
40	40	10
196	196	11
50	162	3
221	223	3
157	215	3
214	215	8
176	198	3
38	46	1
91	105	5
198	198	9
244	246	5
226	226	15
167	167	13
18	29	1
35	35	14
11	11	13
15	117	3
97	100	3
159	159	8
19	19	7
188	188	13
240	240	23
77	79	2
78	78	17
164	166	1
98	98	19
70	70	8
88	107	2
32	32	12
166	174	5
84	84	8
185	185	15
222	223	13
116	144	2
100	101	16
200	223	3
27	27	22
157	158	5
152	152	5
65	66	4
178	178	9
234	234	14
6	43	2
224	225	4
2	19	2
171	173	2
236	237	9
197	197	17
10	202	2
82	82	4
95	95	18
246	246	23
240	241	4
67	67	19
45	45	17
212	212	13
215	215	3
192	192	11
35	39	4
233	234	4
187	188	6
101	101	10
238	238	12
81	111	1
33	33	10
9	9	9
244	244	23
166	166	11
110	246	4
54	54	6
95	117	3
56	56	22
34	89	5
119	120	4
96	97	4
230	230	16
204	204	27
236	236	18
8	9	4
31	33	3
70	84	2
78	88	2
49	50	8
111	111	26
185	186	15
42	42	19
74	82	3
149	149	2
72	72	4
239	239	7
79	79	18
153	153	13
116	116	18
190	190	18
219	240	1
214	216	7
8	87	4
201	201	15
1	1	8
245	246	6
231	232	2
169	232	2
45	46	6
63	100	2
190	204	4
3	19	3
57	57	10
193	194	3
15	19	9
175	208	3
179	223	2
241	241	7
39	39	12
158	215	1
69	70	3
102	102	8
214	214	10
112	155	1
182	193	3
15	92	6
39	40	5
85	85	18
171	179	3
203	204	3
210	211	12
189	191	2
149	183	2
50	77	1
118	118	9
244	245	5
149	165	2
183	183	11
166	169	1
71	72	4
156	156	14
28	28	7
219	222	3
34	105	1
95	103	6
172	172	13
25	25	5
206	206	7
66	66	25
36	47	1
158	158	15
1	162	4
74	75	2
187	193	1
205	205	11
223	223	8
185	213	2
199	200	6
182	182	14
15	15	6
59	59	9
203	212	2
228	228	13
87	87	6
38	38	9
6	16	2
119	119	5
84	99	3
165	166	7
164	172	2
48	48	9
117	119	8
101	106	3
56	73	1
47	48	3
187	187	13
192	195	1
46	46	15
72	73	5
153	167	4
43	44	3
12	144	2
105	105	8
8	8	10
67	156	3
96	103	2
149	154	1
208	209	13
165	165	13
225	227	6
60	84	3
221	221	7
73	73	10
173	174	3
98	101	1
235	236	4
80	87	3
52	53	13
180	181	6
176	176	13
112	112	17
150	150	27
96	104	6
89	106	3
186	186	4
217	217	7
173	173	13
76	76	11
88	90	3
44	44	19
191	191	2
218	218	5
216	234	4
93	100	5
84	103	2
177	177	23
32	63	3
243	244	3
200	201	5
84	108	3
29	32	5
152	159	3
10	10	3
80	80	8
155	222	1
86	87	2
163	163	7
86	107	3
216	216	5
181	181	6
154	154	6
199	247	1
158	211	1
69	101	2
203	203	23
164	219	4
39	95	1
191	192	10
239	241	6
99	99	6
19	39	1
193	193	18
97	97	7
49	49	5
31	31	13
68	68	22
153	156	6
106	106	9
3	26	2
25	41	4
48	83	1
90	108	6
245	245	14
217	218	3
6	15	6
69	69	4
153	181	2
184	185	2
169	200	8
164	180	7
109	109	17
2	2	2
209	209	19
6	95	2
210	210	11
194	194	9
116	118	4
77	78	6
15	91	1
237	240	4
147	147	12
189	216	2
4	60	3
152	156	4
49	185	4
227	227	8
98	107	1
211	218	2
237	248	6
12	246	3
46	47	2
211	211	4
153	204	3
5	5	4
11	62	3
12	12	5
211	212	5
75	102	2
87	113	7
113	113	5
34	90	2
161	161	9
217	233	4
161	162	4
162	162	3
247	247	12
220	220	14
111	245	1
64	65	7
92	92	8
66	67	7
152	164	2
22	38	4
178	218	6
28	32	7
2	25	3
199	199	5
22	23	4
213	213	7
162	229	1
90	91	1
15	16	5
103	103	7
108	109	3
34	112	3
54	57	2
71	74	1
52	57	4
109	114	1
17	17	13
90	93	6
65	65	4
20	20	7
120	120	5
48	88	1
194	197	2
85	98	4
43	43	13
37	55	2
42	45	1
184	186	3
181	211	2
63	63	7
184	247	2
167	168	2
210	216	3
224	224	6
0	1	3
167	183	1
151	151	14
184	248	4
38	39	2
14	61	3
17	46	1
18	45	2
160	214	2
244	247	3
77	77	6
175	210	1
1	147	2
183	219	1
145	145	13
53	53	7
184	184	7
11	12	5
18	19	6
61	61	10
72	74	2
37	38	5
37	57	2
174	229	2
62	62	11
59	78	4
23	26	3
78	79	4
157	159	2
85	112	1
29	29	9
172	173	5
96	107	2
154	155	6
239	243	4
76	111	3
189	189	8
195	196	8
101	102	2
227	235	2
211	214	6
157	176	1
186	188	1
196	197	1
48	118	3
159	171	2
58	58	4
51	64	5
90	90	1
85	145	4
236	238	1
40	53	1
52	52	7
183	184	3
99	111	4
180	180	9
88	88	8
28	157	6
151	178	2
232	233	6
107	107	5
229	230	7
77	88	2
24	24	12
168	202	2
207	218	2
14	14	7
176	209	1
50	50	3
195	233	3
33	108	3
237	237	13
26	26	19
11	47	1
3	73	1
17	28	7
49	119	2
169	170	2
186	223	1
89	94	1
97	98	2
157	157	11
169	209	4
81	117	2
175	177	2
79	81	1
4	4	13
170	170	8
190	191	3
151	167	5
190	198	1
59	74	4
208	236	3
231	231	4
199	246	4
50	82	2
77	102	1
238	239	8
33	34	2
58	115	2
108	108	3
88	108	2
145	156	3
160	164	2
73	75	2
17	47	2
55	56	1
205	231	1
9	201	2
192	249	1
41	42	1
17	19	1
160	160	2
5	39	6
216	218	4
153	160	4
66	70	3
1	24	4
164	177	1
89	91	2
153	189	1
30	77	3
119	241	3
210	232	1
59	79	1
241	243	2
89	107	2
228	229	4
86	86	9
160	171	1
214	233	1
21	21	3
234	245	3
114	114	4
208	231	4
213	216	4
157	177	2
184	216	2
25	31	2
81	83	4
16	16	2
201	220	1
27	28	6
47	47	6
55	55	7
178	203	1
152	157	4
207	207	6
200	200	13
179	179	10
168	168	5
118	119	1
168	200	2
152	153	7
57	61	1
222	222	1
217	234	1
61	62	3
201	222	1
49	74	3
9	24	1
231	234	2
243	243	8
50	52	1
151	201	3
86	104	3
93	93	4
81	96	1
150	207	2
25	37	3
227	228	4
32	33	1
7	7	3
4	75	2
229	229	3
6	7	2
242	242	8
19	63	2
158	176	2
60	60	2
156	203	1
19	21	2
215	248	1
102	103	6
163	177	6
96	98	1
198	200	2
17	32	2
36	57	1
101	103	3
20	38	2
225	225	4
247	248	1
87	96	1
110	111	3
191	208	1
165	170	5
152	166	2
184	191	3
65	185	1
33	57	1
29	31	2
67	114	1
15	118	1
42	44	1
165	181	2
40	41	1
184	194	1
87	88	4
71	84	1
200	246	3
80	81	1
71	71	5
36	36	2
234	240	1
105	106	1
46	62	1
51	72	1
114	120	1
62	63	3
49	162	2
215	217	3
177	216	1
184	232	1
163	164	3
174	176	1
81	107	3
49	70	2
30	37	3
159	186	3
182	204	1
117	117	5
89	89	2
84	102	2
95	118	3
1	237	1
80	102	3
234	246	2
226	227	1
53	54	8
108	118	1
248	248	4
164	214	4
91	91	4
68	112	3
109	110	4
30	30	6
180	218	2
88	93	1
188	191	2
72	147	3
22	22	6
156	175	3
165	169	4
118	242	2
112	113	3
45	97	3
201	202	1
164	164	6
86	89	4
104	105	1
99	100	2
24	204	1
8	98	1
3	3	4
9	10	1
220	224	3
103	104	1
201	239	3
0	8	4
24	26	1
63	64	1
184	192	1
151	175	1
157	188	4
14	101	1
34	39	1
197	234	3
18	18	4
26	27	1
92	93	1
89	90	2
180	182	3
178	183	2
119	239	2
107	108	1
198	199	2
146	146	3
205	206	2
6	6	5
13	116	2
85	101	1
31	94	4
241	244	4
35	41	1
18	95	1
164	173	1
230	235	1
68	110	1
75	103	2
192	225	3
210	213	2
23	36	3
165	172	1
99	185	1
114	115	5
172	174	2
92	94	3
44	53	2
145	151	1
33	35	1
18	87	3
234	235	1
120	145	4
54	65	1
82	84	3
63	79	2
67	116	2
151	227	2
18	20	3
203	230	2
15	160	2
214	232	3
4	5	3
157	168	1
72	75	1
160	170	1
85	97	2
144	144	1
189	220	1
39	55	1
22	45	2
99	159	1
52	91	1
237	241	1
3	71	1
207	228	2
91	172	4
8	226	1
63	114	1
39	42	1
158	213	1
6	41	3
246	247	4
34	40	1
3	113	1
233	237	1
156	157	1
192	224	3
81	116	2
54	64	2
179	186	2
197	198	1
84	115	1
111	114	2
200	244	2
30	35	1
19	73	1
145	161	4
72	108	1
174	175	2
76	106	1
2	90	2
117	120	2
50	86	1
84	100	2
163	173	1
79	83	4
58	60	1
85	99	1
187	199	1
94	94	2
116	120	4
195	195	3
242	243	1
16	17	1
209	216	3
239	240	1
187	189	2
63	70	1
201	221	1
207	240	1
176	177	2
237	242	1
41	228	1
54	116	1
93	94	1
55	62	1
84	107	1
34	34	2
84	112	1
81	82	1
87	94	1
196	201	1
161	166	1
69	84	1
149	150	3
217	219	1
48	76	2
236	241	2
156	174	2
61	78	1
77	119	1
155	156	3
50	53	1
25	42	2
74	79	2
49	57	1
79	108	1
203	229	1
63	87	3
210	212	1
31	92	1
218	230	1
233	247	1
5	50	2
86	88	2
35	36	1
75	82	2
193	198	2
150	174	1
40	42	1
91	108	2
29	47	1
57	184	2
178	209	1
117	118	3
49	53	1
109	161	1
62	65	1
70	115	1
192	209	1
22	25	1
156	228	1
153	163	1
94	95	1
58	119	1
85	94	1
172	240	1
46	54	1
51	94	1
64	64	2
36	61	1
38	41	2
23	24	2
177	231	1
50	174	1
144	145	1
60	80	2
8	45	1
58	59	2
80	114	1
76	103	2
100	160	1
172	199	1
88	95	1
13	14	2
166	172	1
163	166	2
28	187	1
168	186	1
5	6	1
22	87	1
67	110	1
149	161	1
101	160	1
185	195	1
154	179	2
75	75	2
182	224	1
208	217	1
200	222	1
151	152	1
148	156	1
224	247	1
218	219	1
58	61	1
69	111	1
22	24	1
201	203	1
26	32	1
87	105	1
220	221	1
146	211	1
162	183	1
190	220	1
80	84	1
50	163	1
153	164	1
49	52	1
194	248	1
166	208	1
1	25	1
197	222	1
213	218	1
57	58	1
118	244	1
