108	108	3
59	60	3
67	67	3
97	98	5
26	27	3
10	28	1
64	64	5
36	40	2
66	66	7
79	79	6
70	71	4
12	92	2
22	22	3
19	20	5
21	59	2
65	67	1
34	35	2
71	72	3
129	129	3
59	59	10
21	21	7
9	10	3
69	69	7
28	29	5
42	78	3
3	34	3
32	33	6
15	15	7
86	86	3
4	5	4
115	133	1
120	121	2
60	63	1
89	92	1
5	5	2
33	59	2
34	34	3
62	62	4
84	84	8
19	36	2
130	130	2
48	48	3
106	106	9
102	102	11
42	42	12
103	103	4
44	44	3
63	63	10
6	88	2
101	133	3
82	82	3
39	39	6
6	96	3
4	7	1
17	23	4
61	67	5
30	59	4
32	32	4
38	39	6
65	65	5
17	17	2
46	46	9
95	95	5
91	91	4
41	41	4
28	93	1
27	93	3
14	49	2
33	33	3
96	96	2
69	70	2
94	94	13
91	92	4
4	84	1
72	72	3
55	55	4
74	77	4
16	17	4
11	12	4
11	11	10
87	88	1
26	26	10
117	117	9
49	79	2
85	85	6
20	22	1
119	120	2
56	56	4
3	3	3
9	9	5
18	19	1
30	32	1
76	86	3
31	32	8
35	36	2
8	12	4
35	35	6
102	108	4
36	36	3
73	76	4
99	100	2
113	113	3
118	118	2
32	78	1
8	8	5
21	82	4
35	66	2
8	75	2
97	112	3
81	82	4
92	92	11
78	79	6
96	97	2
4	101	2
37	37	5
122	122	2
32	76	5
60	60	8
47	77	1
21	41	2
37	40	3
113	114	2
3	85	2
80	83	1
45	45	7
127	130	1
108	111	1
29	48	3
75	76	4
125	125	10
45	74	2
11	14	2
79	81	1
43	74	7
61	68	5
7	84	2
98	98	5
73	74	2
10	10	6
13	13	4
4	85	3
100	100	9
29	29	9
49	93	1
17	18	5
68	70	2
124	124	3
18	18	8
113	134	1
51	55	4
84	85	4
83	84	3
45	71	3
44	45	3
45	72	1
112	132	1
12	12	8
11	37	4
17	76	2
96	110	1
58	58	2
66	105	3
40	42	6
41	55	1
61	62	5
21	37	3
123	123	4
25	46	4
124	125	1
77	77	9
117	131	3
32	48	2
81	81	6
22	35	1
111	111	2
73	73	7
116	116	10
5	84	1
8	35	2
80	80	10
64	85	2
60	116	1
50	50	5
104	104	1
90	90	3
17	45	2
118	119	1
47	47	3
7	8	1
61	61	4
128	129	1
40	81	3
86	88	2
78	78	2
14	14	3
38	38	2
30	30	5
6	6	6
126	129	1
112	112	4
0	0	3
101	107	1
95	96	1
121	121	1
50	57	1
132	134	1
112	114	1
109	111	1
20	20	2
24	24	1
5	95	4
87	87	1
3	4	2
46	65	2
20	48	1
132	132	1
34	57	1
28	80	2
99	99	5
71	71	1
23	24	2
60	90	1
91	123	2
133	133	2
101	101	2
20	24	1
103	104	2
40	41	1
44	76	2
121	122	3
46	47	2
57	57	1
75	75	3
76	76	2
19	19	3
90	101	2
95	111	1
110	110	3
19	47	1
126	130	2
11	13	1
5	7	1
37	38	5
127	127	1
16	16	5
36	37	1
5	96	1
113	133	1
96	99	1
83	96	1
41	42	3
134	134	4
66	83	1
93	93	3
27	48	4
109	109	3
88	109	2
74	75	1
24	85	1
55	56	1
9	20	2
2	2	1
4	6	3
74	74	1
97	97	1
66	67	1
25	48	1
97	126	1
72	73	1
37	58	1
88	88	5
110	124	1
89	101	2
79	91	2
47	76	1
26	29	1
61	111	2
3	69	1
64	65	3
3	64	1
39	50	1
36	57	1
131	133	1
68	68	1
21	48	1
119	119	2
128	128	1
33	34	1
22	85	1
61	76	1
25	26	1
32	47	1
48	85	1
92	93	1
