138	138	5
10	10	7
64	64	11
32	92	3
64	67	4
44	48	2
103	103	8
97	97	6
88	88	3
102	129	5
29	30	3
21	21	7
108	108	13
15	15	14
34	34	11
53	53	3
150	150	6
147	148	2
95	124	2
136	136	9
85	100	4
19	19	8
45	45	14
130	130	8
80	80	4
58	76	1
147	147	3
54	54	7
46	128	5
4	44	3
90	125	3
70	70	9
79	79	16
111	111	5
119	120	1
10	37	4
109	111	1
84	88	1
19	20	3
44	44	11
42	43	4
8	8	10
20	20	11
17	17	7
51	51	7
72	72	9
27	28	6
142	142	7
107	107	6
24	37	4
115	117	3
45	120	3
63	85	1
27	31	2
64	80	5
123	125	3
78	82	2
26	81	1
12	33	2
97	98	5
11	44	2
75	76	6
65	97	6
85	88	1
145	145	6
120	122	5
69	70	2
40	40	5
43	43	9
25	27	3
66	124	1
9	9	6
150	151	5
83	84	5
12	13	3
149	153	3
17	42	3
73	73	3
143	143	1
82	129	4
58	74	1
118	118	12
144	144	9
50	51	6
114	114	6
55	55	4
146	146	2
95	114	1
26	88	2
109	109	6
132	133	4
29	34	3
46	46	11
116	116	4
66	66	7
57	57	8
24	57	4
54	57	8
132	132	8
41	55	2
15	20	2
41	41	4
81	81	9
38	80	3
81	82	1
98	100	4
20	31	2
133	133	8
135	135	13
115	115	12
133	135	5
149	150	2
61	61	6
67	79	2
136	145	1
100	104	2
74	77	4
50	50	1
43	54	2
95	131	1
69	69	7
56	56	4
143	144	8
84	132	3
64	98	1
25	25	4
4	4	8
94	95	3
23	23	4
8	49	7
106	115	7
83	85	2
62	62	6
66	67	5
75	75	7
125	126	6
85	85	5
107	114	6
28	58	3
141	141	2
48	48	4
12	12	11
151	151	12
110	118	1
140	141	2
67	67	9
30	30	5
28	35	3
52	52	3
42	42	10
7	54	1
120	120	5
87	139	3
14	14	7
83	124	2
19	38	2
23	28	1
15	17	1
17	19	2
95	95	8
45	46	7
39	39	8
10	38	1
14	21	3
36	74	1
27	77	2
115	116	4
29	31	3
134	134	3
17	38	7
111	112	2
49	50	1
31	32	1
98	99	4
129	129	7
67	100	1
10	11	2
10	26	4
149	149	5
38	38	3
13	13	4
104	106	1
77	125	2
113	113	2
95	135	1
79	81	4
67	68	3
7	7	8
151	154	1
31	31	1
75	81	2
129	133	1
8	27	3
78	78	5
128	128	4
140	140	9
36	54	1
5	5	3
22	45	1
105	105	7
94	147	1
47	47	3
29	29	4
23	24	3
94	121	4
85	124	2
40	41	3
8	9	2
2	38	3
27	27	5
128	136	1
106	106	3
22	49	2
110	116	3
11	11	5
73	79	1
74	74	8
117	117	3
96	97	2
14	15	3
52	53	2
138	139	2
20	50	2
21	22	4
132	135	4
123	123	6
98	98	1
86	86	4
65	66	2
95	147	5
47	48	4
20	77	1
119	119	5
8	10	2
38	39	1
97	125	2
118	147	2
24	24	5
85	126	3
93	126	2
105	120	1
73	77	4
79	112	2
6	17	4
22	29	2
28	81	2
92	92	3
68	68	2
12	43	1
131	131	4
28	32	3
84	85	5
16	16	4
94	126	2
2	18	2
121	121	4
96	99	2
78	80	2
49	57	1
15	21	1
35	45	2
77	77	3
72	110	6
102	102	1
84	84	4
18	18	11
109	127	1
26	76	3
71	71	10
124	126	2
25	31	1
35	36	2
39	40	10
139	139	2
69	71	3
44	46	1
22	25	2
124	127	5
39	79	2
137	142	3
136	137	5
116	117	2
32	32	1
42	63	1
120	124	3
63	138	1
82	87	4
103	144	3
27	82	1
94	97	3
73	85	3
83	87	1
18	39	1
87	87	2
44	45	3
63	63	5
83	83	3
5	34	1
46	47	1
23	30	1
26	27	4
5	37	1
105	106	1
46	51	4
21	26	3
86	127	2
123	124	2
69	74	1
30	47	1
15	16	2
7	131	2
83	95	8
26	28	1
130	132	1
125	127	1
65	93	2
92	145	4
130	131	1
82	83	2
120	125	1
140	154	1
32	33	1
36	36	5
63	154	2
71	73	3
78	124	1
35	35	5
36	55	2
99	99	1
41	42	5
20	37	1
104	104	3
74	85	1
3	18	1
33	33	2
154	154	2
121	147	2
137	137	1
107	117	3
96	96	2
64	68	1
11	29	1
96	135	1
128	129	2
37	37	2
29	51	1
67	121	2
107	110	4
22	28	2
70	108	1
72	73	6
3	3	1
82	152	2
99	102	2
4	29	1
121	122	1
81	95	3
95	105	1
75	99	3
10	71	1
65	67	1
63	80	2
50	54	1
20	26	2
83	98	1
9	10	3
126	126	1
134	135	3
93	147	1
22	57	1
101	112	1
12	40	4
79	88	1
76	76	1
95	136	1
43	45	1
6	38	1
21	34	1
4	32	1
93	93	4
24	29	1
6	6	3
84	120	3
6	25	1
14	18	1
86	89	2
13	15	2
95	97	1
139	145	2
7	132	1
62	82	1
41	70	1
128	145	3
35	37	1
28	29	1
11	26	1
68	120	2
131	133	2
84	126	2
12	29	2
6	29	2
10	43	1
124	125	1
73	136	2
61	87	1
78	94	3
97	143	1
73	125	1
76	110	5
144	146	2
97	126	1
94	139	1
4	40	1
67	148	1
123	150	1
68	75	1
19	39	2
54	55	1
99	112	2
47	53	1
112	113	1
110	110	1
112	112	2
68	79	1
12	25	1
33	34	1
104	105	1
21	43	1
87	88	1
24	51	2
9	70	2
26	26	1
102	126	3
91	92	1
91	93	1
81	99	1
138	148	2
46	70	1
11	50	2
17	18	2
84	121	1
6	132	1
126	150	1
72	108	4
35	54	1
81	93	1
64	154	2
68	116	1
81	85	1
18	63	1
95	120	1
50	52	1
119	149	1
87	148	1
121	123	1
80	84	1
110	138	1
2	29	1
113	114	1
7	19	1
64	138	1
86	90	1
62	87	1
17	41	1
100	100	1
93	99	1
