27	27	17
90	90	4
148	148	11
29	33	2
110	119	4
80	106	2
156	156	8
123	123	10
149	149	12
77	78	6
117	118	6
66	66	6
91	141	4
128	140	3
174	174	5
150	151	10
115	115	16
78	78	10
2	2	27
25	25	23
42	42	27
160	160	16
126	126	11
39	39	15
32	32	22
81	103	6
87	87	13
110	111	6
28	28	8
129	129	8
13	14	4
30	30	31
60	60	15
17	18	3
16	18	2
146	152	6
132	139	2
40	40	22
5	6	10
85	92	2
26	26	23
63	73	9
18	22	5
132	132	11
25	26	13
180	180	4
9	11	7
8	8	28
85	85	1
147	150	8
99	152	3
101	101	5
160	162	5
73	79	5
18	18	23
9	9	23
83	89	5
165	166	7
116	116	4
72	73	5
71	71	15
144	144	6
13	13	25
123	137	7
33	33	27
147	147	9
135	135	2
143	166	3
73	74	4
155	155	13
76	76	9
7	15	6
71	178	1
140	140	20
15	16	10
95	95	14
161	163	2
120	121	12
4	5	4
41	41	22
44	45	6
119	119	5
128	128	13
12	39	3
55	55	7
151	153	8
16	33	2
105	106	4
100	100	17
7	9	22
66	67	8
167	170	6
71	122	1
154	154	7
39	40	8
134	146	11
103	105	3
18	19	14
136	136	15
164	165	6
140	151	1
36	36	18
125	125	10
50	50	4
6	14	1
31	31	32
65	68	4
24	24	10
72	72	13
41	42	12
37	37	13
11	12	12
154	155	8
142	167	4
8	35	3
121	144	2
82	96	4
7	7	15
137	137	18
14	15	3
0	38	3
38	39	3
170	170	11
45	46	4
145	145	7
96	96	4
132	133	5
10	23	3
14	14	15
25	28	6
158	158	1
16	16	30
102	102	10
146	147	2
94	95	3
167	176	1
29	29	13
15	15	32
152	152	5
161	162	10
105	105	3
19	20	12
107	107	2
111	111	24
36	38	3
135	136	6
10	10	27
158	178	1
8	9	7
157	157	16
137	138	2
165	165	8
153	153	15
118	122	2
142	142	12
43	43	24
11	11	3
30	31	24
24	27	3
52	55	2
56	68	1
59	59	5
40	41	5
0	0	10
84	84	1
113	113	15
75	75	8
138	148	2
117	117	7
99	99	3
163	163	6
24	25	9
10	32	2
145	167	2
12	12	20
129	130	8
161	161	9
161	177	5
65	65	9
56	57	6
53	71	4
44	44	10
23	23	19
131	131	10
120	127	2
15	23	2
80	81	9
80	80	11
7	14	10
167	167	11
140	141	3
5	5	21
49	50	8
64	64	10
5	37	5
23	24	2
128	144	1
35	35	15
98	101	4
56	56	8
82	103	4
38	38	14
79	79	6
39	44	3
9	13	4
10	29	2
7	37	4
143	169	2
160	165	3
164	180	4
31	33	8
101	117	8
61	170	2
2	3	12
138	140	2
112	112	9
20	20	11
10	11	8
30	44	2
53	53	16
3	3	11
12	25	6
148	158	1
174	175	5
141	141	7
52	95	4
97	98	2
121	122	6
155	156	4
19	34	2
140	153	2
178	178	4
84	102	1
98	113	1
71	133	2
90	91	1
169	169	14
155	159	1
32	33	3
171	171	10
86	86	10
97	113	1
108	108	5
134	134	7
143	167	1
57	57	7
29	30	7
39	41	1
51	51	9
134	147	3
87	88	2
75	76	3
176	176	16
97	97	10
73	73	15
0	34	2
67	67	1
127	127	10
8	15	16
65	66	6
121	121	4
22	22	19
176	179	7
14	36	3
162	162	8
98	99	6
51	52	1
17	17	15
103	104	5
114	114	15
179	179	11
162	177	2
98	98	4
21	21	6
145	168	4
52	52	16
143	144	4
95	110	2
104	105	6
130	136	4
66	68	3
54	54	4
10	12	5
67	79	3
34	34	23
81	81	10
96	107	3
38	41	2
31	32	11
45	49	2
124	124	4
4	8	2
120	120	2
67	114	1
106	107	3
167	171	4
23	25	4
150	150	10
1	1	7
39	45	2
146	146	14
74	74	9
17	28	1
6	27	2
84	101	2
99	100	5
134	137	4
19	19	1
37	140	3
173	174	4
62	62	7
22	31	6
177	178	2
96	103	2
36	131	2
139	139	6
26	54	5
55	56	1
2	11	1
133	134	1
4	4	6
151	151	5
50	106	5
141	142	3
93	141	1
152	153	2
44	46	1
119	120	4
128	131	3
36	39	5
137	142	3
163	164	5
92	93	3
102	104	7
151	152	1
138	138	9
45	45	7
154	156	5
6	7	2
4	22	2
169	180	1
133	133	5
88	88	8
117	120	3
62	63	6
110	115	4
102	103	7
111	126	3
173	173	9
9	10	2
109	109	4
101	116	1
23	27	2
44	51	3
114	116	4
38	42	3
6	6	14
64	123	5
12	32	3
9	41	1
19	35	3
91	91	4
106	108	1
93	93	7
34	103	1
15	41	1
2	4	5
43	44	11
62	66	2
104	104	5
11	14	2
12	13	3
64	74	2
142	166	1
51	54	6
96	98	8
116	117	3
77	77	2
52	60	2
101	146	3
11	31	2
8	11	5
159	159	7
130	130	8
96	97	4
11	13	3
115	116	1
114	120	4
175	175	3
52	53	5
9	16	1
80	93	3
12	14	5
71	167	1
133	171	1
168	168	6
132	159	2
96	113	2
43	45	4
109	116	3
3	4	4
129	157	1
6	9	2
88	96	1
70	70	1
103	103	4
172	172	3
19	23	3
162	164	1
168	174	3
41	133	2
96	109	1
164	166	3
158	159	6
163	171	2
31	45	3
7	33	1
0	5	1
63	63	7
33	34	5
25	54	1
26	27	2
112	145	1
166	166	3
156	169	2
5	14	5
81	97	2
85	86	4
53	151	2
7	8	5
143	143	8
140	143	3
42	44	4
139	148	2
64	113	4
113	115	1
67	75	1
28	30	2
28	34	2
23	35	2
7	30	2
24	26	3
92	92	4
46	46	1
45	52	2
66	75	3
96	112	2
167	172	1
6	37	1
60	61	5
36	37	2
76	77	5
63	74	1
57	58	1
86	105	2
70	71	1
9	29	3
73	75	1
89	98	1
120	128	2
83	83	4
37	38	2
177	177	1
61	61	1
0	17	1
59	60	2
101	118	3
55	78	1
68	68	4
110	116	1
79	80	5
145	147	2
16	32	1
134	171	2
0	176	1
98	104	1
135	155	3
164	164	8
54	80	2
50	51	7
114	115	1
129	135	1
6	18	1
17	20	1
162	178	1
73	152	1
111	114	1
13	24	1
70	75	2
135	158	1
132	164	2
88	89	2
130	131	2
16	17	5
170	171	1
152	160	1
19	21	3
121	131	1
56	78	1
0	10	4
143	156	1
173	175	1
14	32	3
95	96	1
158	177	2
90	107	1
27	159	1
156	174	2
3	22	1
159	162	1
35	36	1
5	9	1
125	159	2
119	121	2
108	111	1
15	17	1
147	154	1
16	43	2
112	128	1
98	100	4
14	21	2
32	142	1
169	173	1
64	65	1
26	28	1
172	173	2
94	94	5
156	175	1
135	145	2
1	23	1
22	35	1
99	113	2
0	172	1
10	31	2
7	10	1
144	156	3
64	106	1
99	102	1
155	160	3
127	140	2
110	110	5
159	160	3
147	151	1
172	175	2
118	118	2
144	145	1
127	129	2
31	44	2
87	105	1
58	58	3
157	158	1
101	102	1
135	151	2
61	62	3
1	2	3
6	43	2
14	22	1
126	160	2
150	153	3
114	118	1
73	154	2
125	132	1
149	150	3
113	116	1
18	35	1
10	13	1
10	16	4
132	166	1
118	119	1
5	16	2
66	96	2
14	24	1
91	93	1
71	156	1
8	12	1
54	55	1
160	161	1
27	33	1
137	141	1
101	136	1
4	7	1
88	95	1
96	100	1
12	23	1
130	158	1
28	31	1
22	23	1
64	108	1
171	173	1
0	1	1
134	135	1
134	142	1
83	130	1
67	72	1
150	162	2
85	101	1
144	166	1
18	25	1
