45	45	6
43	43	8
57	58	6
6	29	3
41	41	5
57	59	6
73	73	18
69	69	13
9	9	9
66	68	8
25	27	9
42	42	13
22	22	21
62	62	10
3	3	14
46	46	7
3	4	6
57	57	15
53	59	3
36	38	14
63	63	21
7	8	6
19	19	11
23	24	11
12	12	15
71	73	1
20	21	12
33	33	14
37	37	17
36	39	5
72	72	15
21	28	1
70	70	15
23	39	4
19	20	7
70	76	2
48	48	12
2	2	22
10	11	3
54	55	2
25	28	2
71	71	14
76	76	17
59	59	9
6	6	23
55	55	7
8	8	17
27	27	7
4	4	25
26	26	13
68	69	4
67	67	11
25	40	3
1	1	12
1	2	5
18	18	2
51	51	16
13	13	18
26	27	7
30	30	8
20	20	14
57	60	2
61	61	4
21	37	2
65	66	8
68	71	2
75	75	16
32	33	9
25	25	16
21	21	22
38	38	11
6	36	6
35	35	11
50	68	2
21	22	2
23	37	1
11	29	2
28	63	3
68	70	1
0	0	18
24	34	4
28	28	11
22	23	9
23	23	15
27	40	5
5	6	6
69	70	3
66	67	3
24	25	7
59	75	5
49	64	1
64	67	3
49	65	2
14	14	2
73	75	5
62	63	14
4	24	4
41	43	6
49	53	7
53	53	10
31	31	7
49	67	2
23	34	2
44	44	11
29	45	6
29	30	7
30	45	6
28	68	2
28	46	1
35	39	3
60	60	15
13	14	1
61	67	3
50	50	13
7	7	17
58	58	4
6	7	1
40	40	9
5	31	2
37	43	2
24	24	12
26	43	3
5	7	3
41	42	2
53	54	4
36	37	8
23	35	2
4	40	5
24	39	4
1	31	2
60	61	4
52	52	11
74	74	11
47	54	3
68	68	1
51	52	2
30	33	5
54	54	11
6	11	3
32	34	5
0	2	4
65	65	8
49	49	10
38	39	7
55	58	1
34	34	5
10	10	17
22	35	2
55	56	4
4	31	3
59	60	5
8	10	1
10	44	2
11	11	8
56	77	6
28	67	3
66	66	2
74	75	1
7	44	1
3	70	1
27	28	6
37	42	8
47	47	8
27	51	3
64	66	5
67	68	5
5	41	1
40	42	1
27	49	3
50	67	2
37	41	2
50	51	2
43	44	1
2	31	1
2	40	5
26	67	3
42	43	3
29	29	9
8	30	2
73	76	3
56	56	6
46	70	3
4	7	2
9	11	2
0	1	5
44	45	5
22	27	1
36	36	8
67	75	1
49	51	1
44	46	5
61	74	2
58	70	1
24	27	2
1	26	1
51	53	3
46	58	2
22	48	3
68	72	1
31	33	2
62	64	6
58	69	1
77	77	5
56	57	2
72	77	2
50	52	1
73	77	1
64	64	6
0	24	1
28	30	1
11	44	1
59	61	2
76	77	6
3	6	2
35	36	3
2	3	5
24	36	2
5	30	3
32	32	2
39	39	6
15	15	1
4	38	2
8	11	3
73	74	1
57	70	2
60	74	1
28	29	5
70	71	2
4	5	4
59	71	2
5	5	8
2	29	1
72	73	1
30	31	1
61	68	1
71	72	3
19	21	1
25	26	2
27	30	2
57	73	1
38	42	2
29	34	1
61	66	2
26	40	2
47	48	3
52	53	1
54	58	1
28	33	1
26	66	2
23	27	1
13	19	1
58	76	2
45	47	1
34	35	1
59	68	1
46	49	2
10	33	1
2	39	1
4	6	1
29	46	1
39	40	1
7	39	1
27	29	1
71	75	1
57	71	1
45	46	1
27	66	1
67	71	1
63	64	1
22	28	1
23	28	1
48	49	1
9	10	1
49	54	1
5	8	1
47	49	2
