121	121	9
108	108	11
67	72	1
113	114	9
53	129	3
68	68	10
1	21	3
102	103	3
69	69	22
51	51	2
97	99	2
60	60	12
40	41	13
117	118	7
20	20	11
31	31	6
118	121	2
38	38	12
94	95	8
110	111	1
72	107	4
139	139	6
67	67	5
138	138	7
14	14	9
16	17	8
122	123	1
135	135	10
69	82	3
123	123	14
70	82	4
103	103	12
21	25	4
81	81	8
0	21	1
23	23	14
78	79	4
84	84	5
92	93	1
6	10	1
33	33	4
50	79	2
105	105	4
35	36	4
108	132	4
15	15	10
99	100	8
77	77	6
2	2	12
113	117	2
80	80	13
61	62	2
108	109	6
65	65	5
125	131	2
11	61	3
100	100	9
49	64	1
99	101	3
26	26	17
25	26	6
5	5	7
3	3	18
62	62	6
87	87	4
133	135	4
47	60	2
120	120	6
106	111	3
112	112	8
118	120	2
113	113	5
83	84	4
110	110	3
103	104	5
120	124	7
73	73	8
67	68	9
25	25	7
91	94	1
24	25	4
114	115	4
56	56	2
9	9	9
62	63	12
61	61	4
30	31	1
74	74	7
66	67	1
110	124	4
90	90	5
38	39	1
72	72	14
95	95	8
13	15	3
104	105	4
37	37	8
73	99	4
113	124	2
41	41	14
32	32	6
12	15	2
56	58	4
107	108	4
143	143	5
30	30	3
10	10	4
1	1	5
114	128	2
58	58	14
77	78	1
74	75	2
89	90	6
115	115	15
131	131	8
125	125	5
59	60	1
71	96	4
107	107	3
59	73	2
40	40	15
27	28	7
91	91	7
136	136	2
71	71	5
39	39	6
70	70	9
76	78	4
88	90	1
135	136	4
8	8	4
114	114	5
139	140	7
4	4	8
11	11	6
23	26	3
82	82	5
60	61	3
132	133	11
102	102	2
52	52	9
6	6	7
57	58	3
13	13	8
4	64	3
97	97	6
28	29	3
18	19	4
101	101	6
93	105	4
50	64	5
54	54	6
95	96	4
137	139	4
62	70	2
90	92	3
93	94	2
58	73	1
50	77	2
78	101	4
65	66	3
118	119	1
67	89	6
57	57	7
106	106	2
94	94	10
61	96	3
34	36	6
48	48	9
102	110	2
41	42	2
109	132	4
78	110	2
141	141	7
133	134	4
71	106	2
124	124	10
137	137	2
106	108	5
63	78	3
35	57	1
125	132	1
64	65	1
71	72	5
50	50	4
19	19	8
43	43	2
136	137	3
128	129	6
98	106	2
64	109	1
16	16	5
80	81	1
8	24	3
63	63	7
42	42	7
75	75	1
121	123	5
115	119	1
27	27	4
53	130	2
110	133	3
65	97	2
76	90	1
133	133	4
61	74	1
97	108	1
29	29	7
99	99	3
1	2	2
145	146	1
134	134	4
71	97	3
121	122	4
85	85	7
120	123	1
55	55	10
10	38	1
116	117	3
89	94	3
110	112	1
49	129	4
29	38	1
32	43	1
10	41	1
117	117	7
18	18	2
109	109	3
111	132	3
119	120	4
64	72	1
23	24	2
132	132	7
109	110	1
34	34	7
118	118	9
54	55	3
34	35	1
88	97	1
87	90	1
36	37	3
85	94	2
119	121	2
140	140	4
63	64	1
98	101	1
79	80	2
65	91	2
66	104	2
129	129	8
21	39	2
9	10	1
58	74	2
86	94	3
68	82	1
93	93	4
124	127	1
83	88	1
93	108	1
89	89	4
76	77	3
122	122	10
86	86	2
65	108	3
100	101	1
61	63	3
2	4	2
14	91	1
146	146	2
98	98	2
129	140	4
77	112	1
47	47	3
55	56	1
22	22	4
51	55	1
31	32	3
75	78	2
11	39	1
21	43	2
1	16	2
66	66	3
119	119	7
59	65	2
125	126	4
20	39	2
39	40	2
111	111	4
112	114	1
127	130	3
14	16	2
113	131	2
72	73	3
32	33	3
19	20	1
14	15	1
33	38	2
64	64	6
123	124	2
116	118	1
29	30	4
76	81	2
96	96	1
53	53	1
37	38	2
126	126	1
59	59	1
3	4	1
58	60	2
89	91	2
64	88	2
49	62	2
83	83	7
93	97	3
4	47	2
128	128	2
17	18	1
49	49	1
68	97	2
145	145	1
61	64	2
111	124	2
0	0	2
33	43	1
116	116	2
113	145	1
110	131	1
126	127	2
81	82	3
24	26	3
28	144	3
58	59	1
115	118	1
21	31	2
75	76	3
85	98	1
10	11	4
76	76	1
109	122	1
88	88	2
84	97	1
101	103	1
97	98	1
65	68	1
0	28	1
77	82	1
109	123	1
95	107	1
74	131	1
79	79	3
82	83	1
65	96	1
20	21	1
104	104	1
58	75	1
101	102	1
25	27	1
59	61	1
144	144	2
35	35	1
76	79	1
139	141	1
82	96	1
59	141	1
75	79	1
51	75	1
109	138	3
5	46	2
73	74	2
115	129	1
105	107	1
68	69	2
24	24	1
109	111	1
63	75	1
94	98	1
28	28	1
92	92	4
98	99	3
39	41	2
52	55	1
34	60	1
81	90	1
33	57	1
77	79	1
20	26	1
127	127	1
94	108	1
62	96	1
137	138	1
20	41	1
85	88	1
114	122	1
31	62	1
5	13	1
62	71	1
124	125	1
125	133	1
134	135	1
97	104	1
31	40	1
135	137	1
6	23	1
54	57	1
32	47	1
17	17	1
125	127	1
69	87	1
