58	59	15
35	35	23
74	75	6
37	37	9
49	50	5
52	53	9
47	48	10
63	63	22
50	52	8
34	35	3
66	66	14
19	19	9
56	56	12
8	63	3
75	75	8
58	58	17
2	3	7
55	56	2
28	28	6
61	61	14
66	67	8
35	37	1
31	32	6
30	30	7
20	21	2
16	16	7
59	59	19
65	65	13
44	62	4
48	53	3
27	63	3
55	55	16
57	57	13
62	62	7
60	61	7
48	48	12
5	5	12
26	26	13
5	6	7
36	36	7
35	72	1
39	39	8
17	17	21
51	52	4
25	26	4
4	4	7
11	63	1
68	69	3
12	16	3
36	37	1
25	25	16
27	28	3
46	46	9
74	77	2
16	17	2
56	57	11
77	78	3
8	8	13
8	9	3
37	38	4
11	12	6
31	31	5
58	60	3
30	31	5
53	53	16
67	68	3
18	18	6
57	58	4
32	56	1
21	21	4
32	32	8
4	59	5
1	1	6
54	54	10
72	72	8
30	34	7
52	52	4
69	69	3
68	68	9
78	79	6
3	4	2
77	77	6
64	66	2
75	76	3
33	33	13
11	11	6
78	78	8
47	47	15
3	3	14
13	14	4
12	66	1
4	5	7
14	14	4
10	11	6
2	2	16
51	51	4
70	70	7
46	47	9
17	61	1
12	15	3
40	40	11
45	45	7
51	53	3
0	2	2
38	38	6
27	27	16
10	65	5
67	69	3
42	42	16
67	67	12
10	10	10
8	10	3
29	29	8
4	6	10
64	64	12
15	15	5
20	20	6
8	11	2
71	71	5
7	7	9
49	49	12
6	42	3
7	8	3
70	72	1
39	40	3
35	36	9
41	41	10
38	39	3
34	34	7
55	57	1
49	51	4
6	58	2
26	27	1
16	66	1
12	12	4
2	42	2
58	64	1
47	59	4
59	60	5
76	76	8
50	51	5
62	65	2
35	38	2
55	58	1
73	73	9
16	25	1
57	66	1
79	80	7
74	76	3
63	66	2
50	50	7
41	42	3
32	34	1
6	6	2
63	70	2
60	60	4
14	15	4
34	69	1
47	55	1
50	66	2
14	21	2
8	31	7
44	45	4
19	29	1
28	29	2
50	63	2
64	65	4
33	34	3
44	61	2
74	74	5
19	56	1
71	72	2
54	55	2
50	54	1
9	9	4
2	4	1
53	54	1
13	16	1
28	56	2
80	80	3
45	73	2
1	2	3
15	16	3
7	61	1
0	0	3
32	33	2
50	53	1
5	77	2
3	42	1
47	60	1
6	60	1
9	10	1
42	47	1
31	53	2
46	59	1
76	77	4
48	58	2
11	16	1
1	45	2
26	33	1
48	62	2
12	14	4
35	49	1
45	74	1
28	30	1
13	13	2
27	29	1
56	58	1
19	21	1
29	30	1
74	80	1
6	34	1
0	1	1
7	29	2
40	41	1
63	64	3
61	62	1
30	50	1
79	79	1
62	63	1
18	26	1
34	50	1
21	33	1
18	19	1
27	30	1
17	26	1
25	31	1
36	39	1
