115	115	12
49	49	11
64	64	9
82	83	4
57	57	12
124	124	17
36	47	2
128	128	17
75	75	17
63	63	11
118	118	24
47	48	5
132	132	13
3	5	3
30	30	6
97	97	12
5	41	4
100	100	6
23	24	4
126	127	3
129	146	3
38	38	14
4	5	4
144	144	13
117	117	18
41	41	8
58	58	9
102	102	14
94	94	11
12	140	10
13	79	1
17	17	11
114	124	5
135	136	3
72	87	4
83	140	2
136	139	7
24	25	6
23	126	5
59	60	4
107	107	10
4	4	6
116	116	13
27	27	12
52	52	4
138	138	8
22	22	22
0	62	2
145	145	2
134	134	12
65	65	10
33	34	2
77	131	7
70	70	14
95	95	7
51	51	10
65	87	2
31	31	7
102	103	5
85	90	2
117	119	8
94	95	2
24	35	1
109	135	3
130	130	17
43	94	2
80	80	4
3	6	1
96	96	10
31	53	4
80	140	5
53	53	7
77	77	4
96	97	4
142	144	3
127	128	2
58	82	2
31	52	7
54	56	2
19	19	22
98	98	16
13	94	2
79	134	2
32	128	2
35	35	5
117	118	3
10	13	4
105	113	1
116	118	4
101	101	7
99	99	8
39	39	5
114	125	7
76	79	3
64	65	1
73	85	2
40	40	14
32	32	11
134	135	6
89	89	11
59	59	8
105	106	2
1	31	2
66	70	1
55	55	11
76	131	1
81	81	1
96	98	7
139	141	2
120	122	2
17	136	3
111	111	17
34	35	12
60	60	4
137	137	14
70	71	6
113	113	4
73	73	14
131	131	12
89	109	4
12	12	4
33	33	12
33	37	1
70	132	4
93	93	9
83	83	9
12	136	3
5	40	4
36	36	12
24	24	11
142	143	7
67	67	11
33	39	3
72	83	7
20	20	4
40	42	2
79	112	1
57	58	7
123	123	17
69	80	3
88	111	1
13	13	7
104	105	1
38	39	8
14	14	3
135	138	4
61	61	10
68	68	6
51	52	11
92	98	3
121	141	3
37	37	7
92	93	1
10	10	4
28	28	8
66	66	10
97	142	1
125	126	2
31	117	1
137	138	6
62	62	11
1	63	2
115	116	7
0	33	2
103	103	6
74	74	5
113	116	4
140	140	7
78	113	3
92	110	2
129	130	5
125	128	3
105	105	11
16	64	2
39	41	2
126	126	13
133	133	14
93	144	2
50	50	6
21	24	6
8	11	1
79	131	4
76	80	2
71	71	7
110	112	1
64	119	1
18	19	8
136	136	8
47	87	3
89	92	4
30	124	2
23	23	6
27	129	2
9	9	3
76	77	1
53	54	5
82	114	5
63	64	4
30	130	4
60	61	8
114	114	9
33	35	1
141	141	8
84	85	1
103	104	3
29	29	11
84	84	6
22	23	2
105	124	4
110	110	4
22	52	2
91	92	3
122	122	6
104	104	9
25	95	4
34	117	3
96	141	3
19	64	4
73	87	4
2	2	7
118	119	4
71	72	6
16	17	3
69	138	1
25	25	15
15	16	1
13	83	3
43	43	6
77	82	2
69	69	8
125	143	1
116	122	1
119	119	6
14	15	3
60	67	2
99	100	1
87	91	1
110	111	3
2	3	4
54	57	5
109	110	7
112	119	3
146	146	4
29	38	1
72	73	9
85	142	2
112	124	1
120	120	20
139	139	3
9	57	4
26	26	8
47	47	5
30	42	2
8	75	1
143	144	2
76	126	4
87	111	4
76	78	1
98	131	1
14	92	2
6	15	2
27	37	1
89	103	1
31	49	5
1	67	2
114	135	4
87	87	2
17	64	2
25	27	1
87	99	1
1	1	3
121	121	9
69	70	1
115	121	1
122	123	2
68	69	1
83	85	2
112	112	9
49	61	1
78	78	6
8	8	5
3	3	3
5	139	4
105	107	3
65	70	1
53	57	1
129	129	14
9	23	3
88	88	7
64	138	1
82	135	2
9	10	2
106	107	6
105	135	1
6	40	4
78	136	1
126	129	1
62	65	5
21	35	2
135	139	3
108	112	1
15	86	2
131	133	2
76	108	2
61	68	1
26	33	1
121	123	2
57	135	1
140	141	5
135	135	10
105	111	2
74	126	2
2	15	1
16	82	4
119	120	5
47	56	2
12	13	2
76	76	5
0	1	3
54	87	2
52	103	2
48	48	7
87	106	1
108	115	2
101	102	3
16	16	3
15	15	5
115	117	2
78	138	2
2	5	2
9	55	1
80	118	1
88	109	1
0	20	2
93	94	4
21	21	7
73	74	1
92	92	4
142	142	5
11	14	3
78	79	3
114	115	1
54	54	1
125	125	9
43	61	1
77	78	2
69	88	3
32	33	4
18	18	9
70	87	3
116	123	1
127	127	4
31	32	2
141	142	4
30	32	2
50	104	5
52	142	1
114	132	3
3	4	6
5	5	6
3	139	2
124	125	1
9	85	1
108	108	6
58	68	2
83	142	1
11	11	5
55	64	3
34	136	2
91	105	3
80	139	1
13	84	1
107	108	1
145	146	2
33	43	2
33	63	2
83	86	1
4	40	4
42	42	3
92	109	2
66	85	1
131	132	1
64	69	1
33	42	2
80	117	3
119	122	3
40	41	1
30	62	4
34	34	2
64	81	1
82	84	1
9	14	1
6	39	1
85	85	2
50	51	2
8	74	2
42	124	2
6	6	4
100	101	1
57	66	3
95	96	1
58	83	2
106	106	3
65	136	2
100	111	2
133	141	1
62	64	1
134	139	4
100	130	2
79	137	1
133	134	3
0	32	3
17	18	3
9	24	1
96	109	1
4	140	3
82	82	5
72	104	1
38	100	1
29	30	2
55	56	2
51	142	2
114	134	3
56	57	2
116	117	2
64	113	1
51	141	2
21	40	1
80	101	1
139	140	3
91	91	3
37	96	3
128	136	2
36	37	1
87	88	1
138	139	4
109	136	2
62	71	2
57	140	2
135	140	1
132	134	1
4	136	1
75	81	1
41	124	3
32	119	2
120	121	1
18	21	1
120	128	1
132	133	3
67	69	1
17	34	2
82	124	2
8	58	2
60	68	3
43	47	3
136	138	2
83	139	1
83	141	1
47	88	1
68	104	2
36	46	1
10	36	1
81	134	1
56	56	1
20	63	1
133	139	2
24	53	1
36	94	1
59	84	1
133	143	1
66	118	2
37	95	1
143	143	2
62	83	2
94	106	1
94	96	1
113	114	1
0	0	2
106	114	1
5	135	2
108	110	1
27	30	3
97	132	1
2	39	1
26	53	1
113	118	1
65	69	1
4	139	2
90	90	1
15	92	1
17	79	1
6	109	1
21	34	1
98	99	1
119	143	1
48	67	1
134	138	1
112	135	1
14	33	1
69	82	1
74	110	1
2	91	1
9	53	1
109	109	1
8	9	1
42	125	1
41	42	1
37	43	1
42	128	1
86	110	1
10	11	1
89	99	4
23	131	1
115	128	1
69	83	1
61	62	1
11	34	1
34	132	1
81	135	1
69	113	1
90	99	1
112	131	1
