20	20	8
116	120	2
93	94	19
15	15	13
23	23	54
138	138	60
157	157	18
47	47	17
143	144	1
106	109	6
154	154	17
82	82	16
28	30	4
73	73	38
121	121	14
29	29	10
65	133	3
7	7	43
31	31	20
131	131	54
83	85	4
95	135	1
123	123	14
133	133	36
155	155	15
122	122	28
152	152	14
89	91	2
128	128	44
120	121	6
89	89	17
151	151	26
86	87	5
45	45	41
18	18	21
99	99	47
5	6	9
36	36	18
5	5	50
4	4	22
48	48	19
153	153	18
130	130	35
37	37	40
24	24	32
142	142	14
156	156	26
135	138	3
1	2	16
97	126	5
11	11	11
13	15	6
43	43	21
2	4	8
116	116	27
87	87	32
134	134	43
40	40	27
55	55	29
51	51	35
143	143	13
77	78	14
87	117	2
87	89	2
16	16	22
149	150	6
93	93	23
42	42	27
51	156	5
102	104	5
50	54	3
2	2	25
91	91	23
158	158	26
105	105	24
119	146	2
34	35	2
67	68	8
117	117	20
118	141	4
113	120	2
144	145	13
108	109	16
39	39	21
68	69	18
79	87	4
88	114	1
21	25	2
75	75	46
105	106	11
13	19	3
26	90	4
84	96	2
142	143	3
145	145	39
22	22	25
116	131	1
63	64	2
145	146	11
117	135	3
84	87	3
54	54	22
111	111	37
34	34	9
10	10	20
86	86	30
129	129	41
132	132	26
25	91	3
65	65	21
37	38	12
88	137	1
126	145	3
147	147	15
38	38	17
91	126	3
71	71	21
68	70	7
50	50	20
132	133	10
84	84	19
107	107	26
8	9	8
116	117	5
96	97	8
43	49	7
27	28	9
114	114	23
67	69	2
55	57	8
3	3	24
113	113	18
10	11	8
94	95	12
53	55	2
17	20	1
39	45	7
134	136	6
23	63	1
126	126	33
100	100	57
21	22	6
125	125	28
52	52	17
56	56	12
8	8	33
98	108	3
89	96	2
77	117	1
37	39	4
63	63	5
66	66	27
77	77	23
0	0	20
118	118	21
26	26	18
92	92	29
104	105	6
108	121	1
80	80	33
6	6	28
108	108	27
102	102	9
124	125	29
50	56	2
32	32	30
87	88	7
79	79	12
119	119	20
46	47	5
138	139	12
85	96	1
134	135	19
37	43	4
33	34	7
88	135	3
90	90	30
48	49	18
146	146	16
126	127	5
22	23	4
136	136	20
17	17	33
113	114	12
124	155	1
70	70	16
10	12	2
30	30	16
20	21	13
29	40	4
87	90	1
18	19	15
70	71	5
111	113	8
62	62	5
33	33	23
124	124	12
12	12	24
3	157	1
109	109	22
112	112	24
127	156	2
127	127	24
67	67	16
29	101	2
98	98	28
115	116	8
51	53	4
80	82	9
11	153	3
4	5	9
28	28	13
96	132	1
44	44	34
7	8	8
11	15	7
116	133	5
71	72	9
32	34	4
35	36	15
17	26	1
92	101	5
30	32	1
106	106	10
24	25	12
152	153	9
91	92	12
131	133	7
79	97	7
21	26	7
110	112	2
119	120	11
35	35	20
102	107	2
78	79	11
52	54	2
72	72	17
52	53	15
15	16	4
1	1	37
32	33	7
81	81	27
55	122	1
148	148	45
141	141	16
41	41	24
149	149	7
54	83	1
95	97	5
76	77	5
8	11	2
68	85	1
31	32	10
54	55	19
145	147	18
122	137	3
102	105	2
15	34	4
140	151	2
130	131	9
92	93	14
38	52	3
112	113	10
76	84	1
94	94	45
102	106	4
101	101	32
103	103	18
70	93	3
0	1	2
19	19	21
69	69	16
95	96	9
137	137	40
100	101	15
46	49	7
154	155	10
131	132	15
150	150	29
68	91	9
81	82	10
96	96	18
137	138	16
102	152	1
117	118	10
148	149	5
46	46	34
81	97	3
144	144	16
125	126	12
115	115	14
18	20	8
10	14	1
98	107	1
92	134	5
21	21	41
139	139	17
123	124	10
53	53	8
25	25	32
109	150	2
129	130	15
24	103	2
107	117	1
102	130	2
139	148	5
68	71	6
151	152	6
9	155	1
109	112	1
39	54	1
88	136	3
17	18	7
16	17	9
50	90	6
115	120	1
9	9	21
99	100	5
31	40	4
19	114	2
156	157	7
111	119	3
64	64	7
86	146	1
36	40	1
50	55	3
27	27	28
25	26	6
108	112	2
132	137	3
49	49	24
51	52	9
139	141	3
43	44	5
98	100	3
113	118	3
62	78	6
17	99	2
140	140	20
85	85	21
158	159	7
57	57	8
26	27	10
105	115	1
98	105	6
129	158	4
68	68	31
135	135	10
146	147	7
33	35	2
133	134	6
94	128	1
65	66	12
123	137	4
73	75	2
139	140	9
98	106	1
135	136	16
88	88	14
97	97	22
76	76	11
73	106	3
85	86	4
13	16	8
3	37	3
144	146	14
39	145	3
38	40	1
130	143	5
124	126	6
27	101	4
137	148	2
26	91	3
92	133	3
113	126	7
13	98	2
14	19	9
7	64	2
125	127	7
39	144	2
67	88	4
77	79	1
32	142	2
133	135	4
12	24	1
99	133	4
97	98	5
155	157	2
7	107	3
89	90	7
140	141	4
33	129	1
117	139	2
41	42	4
19	42	2
23	24	5
107	121	2
14	14	13
98	99	4
120	120	11
13	14	15
104	104	18
96	98	1
79	80	6
53	54	8
144	150	3
65	73	1
48	52	3
88	91	2
31	34	4
134	150	5
114	115	7
22	29	6
24	26	5
80	86	4
147	148	7
101	150	4
65	72	1
19	89	2
107	110	1
105	107	3
78	78	22
118	120	8
149	151	2
35	130	2
8	12	2
103	105	3
128	138	5
85	97	2
155	156	6
78	82	1
48	50	4
110	110	17
10	155	4
29	30	6
93	122	2
88	89	7
72	73	3
102	103	10
92	149	2
10	16	1
99	117	2
127	128	2
84	116	3
29	44	2
8	27	2
129	131	1
113	116	3
116	150	4
40	48	5
0	101	3
47	50	2
104	111	3
141	145	2
118	122	1
83	116	2
3	7	1
15	17	10
84	86	1
91	93	1
118	146	2
106	119	1
83	84	5
131	137	1
141	144	1
137	147	6
27	29	5
98	148	1
4	35	3
91	110	1
16	18	2
108	120	3
98	138	1
117	137	2
96	125	2
113	115	3
34	46	1
95	95	16
26	54	3
13	13	14
25	32	3
7	11	3
73	74	3
11	13	1
141	142	4
121	141	1
23	29	1
25	27	3
56	61	4
81	106	2
128	129	6
103	104	2
79	88	5
136	137	6
122	141	3
85	95	2
17	129	1
124	127	3
144	147	5
7	94	4
36	37	3
38	39	5
4	62	1
151	158	2
6	29	3
127	146	1
21	24	3
38	46	8
64	65	3
111	112	4
21	41	1
63	70	5
106	133	1
132	134	3
51	54	6
105	109	2
131	149	2
101	102	7
107	108	6
118	123	2
131	150	5
33	116	2
54	64	3
101	116	2
34	38	2
29	43	1
6	134	2
111	133	1
19	57	1
17	97	2
10	13	1
153	154	8
40	42	2
62	64	2
40	101	2
137	141	2
64	67	1
10	104	2
132	138	1
120	156	1
22	35	2
122	123	1
55	56	5
14	108	2
85	89	1
93	130	6
86	89	1
22	25	1
52	135	6
118	121	1
86	94	3
8	13	2
142	144	1
5	24	6
127	129	2
9	10	4
113	127	3
36	38	9
123	141	3
79	114	3
106	124	2
112	118	3
93	116	1
4	116	1
116	151	1
118	119	9
50	51	5
5	22	3
56	68	1
121	149	3
20	37	1
47	90	2
137	142	3
3	112	4
22	28	4
157	158	3
141	143	1
67	96	1
117	132	1
30	33	2
8	10	5
66	71	1
18	23	1
131	134	2
29	42	3
42	49	2
16	95	2
86	142	2
83	83	7
98	116	1
5	16	3
119	125	1
28	29	5
101	105	1
14	88	1
47	48	1
36	130	5
117	138	4
116	156	1
119	121	7
37	40	2
78	95	1
67	70	5
108	110	2
12	19	1
99	101	3
70	88	1
118	144	5
122	148	2
67	71	2
128	131	3
78	113	4
28	44	2
31	83	5
134	141	3
30	31	1
12	13	8
29	32	3
122	124	2
137	139	2
106	107	2
150	155	1
95	125	1
87	95	1
88	112	1
4	153	3
3	107	1
16	24	5
16	22	1
99	116	5
39	40	3
65	130	5
78	118	5
22	26	4
70	96	1
51	56	2
120	126	2
106	114	4
94	107	1
75	76	2
146	148	1
46	48	1
135	150	4
32	39	3
16	21	1
90	91	3
51	55	1
44	65	2
47	156	1
83	94	2
30	122	3
42	43	1
45	67	4
39	42	3
49	91	1
103	106	1
129	151	1
30	98	3
32	129	1
12	15	1
94	129	1
143	155	2
22	36	1
135	137	3
10	18	2
151	156	1
150	151	3
112	117	3
70	72	4
84	85	5
96	133	2
134	137	3
92	96	4
8	22	1
88	95	1
22	33	1
105	110	1
23	25	2
117	126	1
76	78	1
99	130	1
12	25	2
151	159	2
50	91	3
9	11	3
108	124	2
91	95	1
74	74	3
128	130	1
97	112	1
4	101	5
138	140	1
80	81	2
2	57	1
65	95	2
113	121	2
3	5	1
121	122	2
44	45	4
80	117	3
45	46	1
94	98	1
123	135	3
2	3	1
79	81	1
111	135	3
144	149	1
85	124	2
140	150	1
140	149	3
19	20	4
95	122	2
106	115	1
9	19	4
24	27	2
4	32	1
80	89	1
69	70	3
6	55	3
38	42	1
76	80	1
85	146	1
40	84	2
104	115	2
27	65	2
140	147	1
139	150	1
40	41	3
80	95	2
140	142	2
131	155	1
51	133	1
127	151	2
15	23	2
141	151	2
137	157	1
25	43	2
93	99	1
148	152	1
66	105	2
55	132	2
107	113	3
101	131	2
45	54	1
17	25	3
23	35	1
66	158	1
6	30	1
86	90	1
23	65	1
20	42	1
149	154	1
3	154	1
55	117	1
130	137	1
112	122	2
50	133	1
117	119	2
64	113	1
39	43	1
150	153	1
17	28	1
28	41	1
43	46	2
22	31	2
78	97	2
14	21	2
118	124	3
14	15	5
45	47	3
139	158	1
110	111	2
100	105	1
142	150	1
35	37	4
32	36	2
77	82	2
38	41	1
14	16	1
33	36	3
51	67	2
117	130	1
47	132	1
146	150	1
93	95	1
34	36	2
2	37	1
32	37	2
124	140	1
135	159	1
73	131	1
72	116	2
129	135	2
138	147	1
63	103	2
24	65	1
50	86	2
66	72	2
110	115	2
118	132	3
73	102	1
66	84	1
131	151	2
25	90	1
80	98	1
79	115	1
56	57	1
133	137	1
6	106	1
46	64	1
82	83	2
133	136	1
130	156	1
66	68	1
144	157	1
2	114	1
127	152	2
142	147	1
93	104	1
78	130	2
127	139	2
40	50	1
36	39	1
130	142	1
25	48	1
71	98	1
91	118	2
109	110	2
104	138	1
54	149	1
46	131	1
0	6	1
49	50	2
25	53	1
8	53	1
45	101	2
22	66	1
88	145	1
3	4	2
7	150	1
117	131	1
27	98	1
49	52	1
127	155	1
62	71	1
37	45	1
140	156	1
33	100	1
82	94	1
144	158	1
69	89	1
81	95	1
140	157	1
73	128	1
112	135	1
86	88	2
17	24	1
1	3	2
7	29	1
117	123	1
81	83	1
132	135	1
48	51	1
39	47	1
47	49	1
36	54	1
11	12	1
94	139	1
93	128	1
20	22	1
119	144	1
22	133	1
109	111	1
92	104	1
94	127	1
10	148	1
78	80	1
56	81	1
54	56	1
