146	146	8
133	133	9
91	99	1
150	154	3
46	46	7
7	7	3
54	54	9
153	153	6
110	110	4
85	85	1
75	75	3
74	76	3
164	164	7
0	1	2
8	9	3
141	141	9
132	132	3
50	50	6
123	123	4
145	145	1
23	23	10
97	97	2
64	64	3
136	136	1
74	74	5
9	9	3
115	116	5
40	40	8
77	80	2
20	24	3
167	168	5
57	57	2
139	139	2
46	58	3
97	99	4
41	41	9
0	0	7
140	141	3
4	5	4
91	94	6
100	112	1
114	114	5
43	43	4
88	89	3
163	163	6
25	25	6
24	24	6
144	144	4
147	158	3
48	53	2
167	167	2
44	46	2
79	105	3
168	169	4
159	160	3
162	162	2
79	97	1
12	21	4
4	42	2
135	135	2
118	147	3
110	111	3
37	57	1
89	89	2
12	12	2
76	76	5
139	141	3
99	99	3
69	69	8
34	35	1
160	160	4
92	93	2
65	65	2
21	24	1
2	2	7
49	50	5
168	168	6
112	128	3
115	115	3
109	109	5
3	3	7
92	92	6
28	28	4
111	111	8
105	107	1
152	152	1
33	34	2
149	149	1
101	101	1
119	119	4
150	150	1
87	87	1
14	15	4
21	22	1
15	22	2
139	140	2
143	144	1
44	44	5
165	166	1
20	20	5
127	127	1
24	25	1
13	13	5
98	98	3
129	129	2
153	156	2
72	72	4
46	47	2
144	145	2
160	161	1
131	131	7
161	161	3
12	77	1
137	137	2
142	144	2
50	120	3
170	170	6
113	113	8
38	76	4
94	96	3
39	40	4
35	35	6
83	83	3
6	16	1
16	16	3
39	58	3
18	21	2
53	63	1
84	85	2
0	21	3
42	42	2
10	10	2
27	63	1
119	143	2
101	103	2
124	124	2
157	157	1
74	75	1
23	26	1
53	64	2
63	63	5
23	24	1
108	108	5
140	142	2
54	56	3
114	115	2
85	92	1
51	51	4
165	165	2
1	1	3
13	18	4
137	138	1
46	53	3
5	5	1
86	86	2
150	151	2
11	21	1
164	165	1
8	8	5
81	117	1
47	47	1
91	91	2
146	166	2
112	112	6
106	106	1
51	69	1
93	112	1
48	48	4
21	21	3
56	56	2
113	135	3
77	84	2
154	154	1
107	107	1
50	51	2
122	122	1
34	77	1
102	116	1
62	68	2
5	20	1
83	90	2
45	46	2
166	167	1
134	134	1
5	39	1
35	36	1
9	10	2
49	49	3
8	11	1
55	55	2
4	4	1
46	50	1
125	125	1
105	105	1
39	57	2
162	165	1
138	138	1
76	99	3
40	51	2
131	132	1
70	71	2
169	170	1
159	159	1
61	62	1
75	81	2
111	128	1
155	155	1
44	45	1
104	104	1
118	118	1
161	163	2
75	82	1
118	142	1
96	96	2
109	120	1
34	34	2
156	156	3
8	16	2
77	129	1
13	77	2
53	55	2
123	127	2
78	128	2
117	142	3
143	143	1
128	128	2
63	64	1
82	116	1
82	82	2
128	138	2
0	25	1
20	21	1
21	41	1
16	78	2
19	19	1
157	158	2
47	49	3
26	27	1
87	99	1
151	151	2
17	17	1
64	70	2
100	100	2
102	105	1
130	131	1
36	110	1
103	105	1
69	70	1
102	102	3
81	81	1
109	122	1
158	158	2
27	27	1
120	120	1
67	69	1
121	122	1
116	116	1
26	26	1
148	150	1
117	117	1
134	135	1
78	80	1
36	36	1
117	118	1
51	52	1
143	146	1
122	142	1
54	55	1
154	157	1
1	2	1
