103	105	1
11	11	22
137	137	8
71	71	23
39	41	3
15	19	3
29	31	7
30	31	13
36	36	9
19	19	21
109	156	1
61	67	2
58	58	9
33	44	2
125	125	14
151	157	3
77	80	4
54	54	7
19	22	7
16	19	1
41	41	13
26	39	2
23	29	12
44	45	11
28	28	27
88	88	12
63	74	2
89	89	17
174	174	5
30	30	21
22	22	26
64	74	4
140	142	5
3	4	9
5	41	1
15	16	5
141	141	13
86	86	3
153	153	6
101	101	16
6	16	3
1	6	1
150	157	2
103	104	3
55	55	7
126	126	9
100	100	3
76	76	4
9	9	31
4	20	6
109	109	12
8	12	3
2	2	12
162	163	4
31	31	8
157	180	1
7	8	4
32	33	10
32	32	15
5	5	12
15	25	3
7	29	5
54	139	1
124	124	14
60	60	8
109	155	3
97	97	14
152	169	2
78	78	8
123	123	15
18	19	6
93	93	11
168	168	9
8	9	10
37	37	15
25	25	25
54	108	3
111	111	4
161	161	1
0	13	4
114	114	7
5	8	9
13	13	18
33	33	23
175	175	3
173	173	5
172	172	8
61	61	16
120	120	6
11	44	6
146	146	7
35	35	12
27	27	14
6	7	9
88	89	1
14	15	12
165	169	5
20	20	10
120	151	3
73	73	9
107	120	1
162	162	10
165	165	7
112	112	4
92	92	2
18	18	15
39	39	23
7	15	2
54	146	2
54	105	2
170	171	9
26	27	5
158	162	4
17	26	2
27	33	3
180	180	6
117	117	11
124	125	2
91	91	13
72	130	2
160	160	3
95	95	17
31	35	5
63	64	3
96	109	2
73	76	4
24	24	6
39	43	1
8	8	14
59	124	3
100	109	7
16	16	18
42	44	1
36	39	4
34	44	5
25	26	3
14	14	27
7	7	16
53	53	14
77	95	2
49	49	6
29	30	9
115	157	3
82	155	2
25	127	1
67	68	1
178	178	1
59	59	15
20	22	4
64	65	8
3	3	13
144	144	9
145	150	4
130	151	2
106	108	1
91	94	1
147	148	1
42	42	9
87	87	6
23	54	3
118	118	14
92	93	4
25	28	2
135	170	2
155	155	7
112	114	6
10	36	3
17	17	26
39	40	4
40	40	8
5	28	6
97	107	1
81	81	6
26	26	3
120	159	3
27	28	9
27	85	1
6	6	19
26	35	3
12	18	5
19	40	2
80	94	3
2	4	8
22	23	13
11	145	2
110	155	4
179	179	5
128	130	3
160	175	3
160	162	7
24	40	3
51	76	1
21	21	11
9	42	6
45	45	19
35	42	2
26	31	5
146	173	3
163	163	10
157	157	5
38	38	18
149	149	3
118	160	6
23	23	8
64	75	2
57	57	9
11	13	6
18	24	5
46	46	4
137	149	8
102	106	3
76	77	3
85	85	4
29	29	19
43	44	7
165	167	6
131	149	2
113	113	2
77	78	2
132	132	8
19	20	2
83	84	7
130	147	1
170	170	7
79	79	3
0	0	2
57	125	1
87	153	2
115	118	1
161	162	3
1	1	3
50	52	3
61	68	2
31	42	7
73	74	8
99	100	6
99	99	5
15	15	18
104	104	6
140	140	9
63	67	3
81	82	5
145	146	3
112	115	4
169	169	5
99	105	2
164	164	10
34	35	8
18	50	2
138	176	1
166	168	2
32	122	5
12	12	12
2	13	5
17	18	10
23	34	3
109	111	5
6	21	2
108	159	2
35	41	3
128	128	4
5	6	1
4	6	3
177	177	2
150	158	1
147	147	3
80	80	4
75	76	2
139	139	11
149	179	4
43	43	14
148	151	2
130	130	7
26	30	2
143	143	3
62	62	3
24	36	1
55	56	8
39	42	1
153	169	3
97	129	1
3	10	3
4	4	10
10	10	22
96	158	2
141	179	4
79	81	1
100	119	3
18	21	3
153	156	2
16	40	8
151	151	2
138	138	5
127	137	4
59	153	2
160	165	3
23	24	3
16	126	2
1	5	9
23	28	5
10	28	2
54	143	1
0	1	2
119	162	2
176	176	5
62	63	4
50	51	6
122	179	1
2	12	7
38	139	3
154	154	3
23	77	1
15	24	1
131	131	1
1	31	2
80	81	4
157	158	2
113	114	2
41	42	5
54	56	1
11	15	6
122	122	1
52	53	2
13	14	3
106	107	4
96	96	8
103	114	4
61	75	6
13	37	5
51	51	4
127	158	3
3	5	7
11	31	1
139	140	2
44	44	17
117	118	3
6	45	4
158	158	9
20	50	3
3	45	3
99	101	7
6	35	1
83	86	1
27	32	2
10	11	4
125	126	3
19	41	2
119	177	2
75	75	3
119	120	2
4	30	3
2	7	3
34	43	3
146	147	2
136	136	7
134	134	6
19	29	1
104	138	3
155	156	2
37	38	1
49	112	1
135	135	4
11	19	3
89	98	2
121	122	4
56	83	3
23	25	2
68	68	2
141	142	1
52	52	3
93	94	1
18	142	1
120	152	3
93	124	4
61	82	4
23	30	4
84	84	3
61	111	2
20	21	3
30	38	3
98	105	1
12	13	3
13	28	1
13	17	4
50	50	3
15	40	2
64	71	1
92	100	4
126	127	3
111	129	3
25	27	1
21	28	11
5	51	1
96	97	1
98	100	2
19	42	1
13	16	3
57	148	4
142	148	1
73	129	3
105	105	4
115	153	4
167	178	2
65	78	2
76	111	2
11	12	4
106	135	2
108	108	3
17	52	1
113	153	3
166	174	1
116	161	1
22	40	2
26	113	2
122	124	2
98	98	4
91	92	1
148	154	2
18	25	2
145	145	5
102	119	1
52	111	2
126	128	3
18	44	1
109	110	2
11	21	2
34	45	3
10	44	3
16	18	1
22	54	1
72	72	4
122	130	1
63	107	3
34	42	2
4	5	2
102	112	3
66	66	6
9	15	2
86	87	3
12	24	1
142	142	3
9	19	1
6	42	3
119	160	1
116	116	7
118	127	1
121	121	5
82	82	1
7	9	2
141	148	1
171	176	3
22	28	2
9	21	2
5	14	3
39	45	1
134	142	1
74	74	4
125	131	1
1	2	1
102	102	2
63	75	1
11	18	3
111	115	1
58	60	1
135	148	2
34	34	4
16	17	2
65	65	5
7	14	1
36	44	1
5	29	3
0	29	2
98	101	2
152	157	3
16	20	2
133	133	3
24	25	8
62	81	1
154	180	4
103	153	1
14	31	2
58	59	2
81	85	1
24	26	6
8	38	1
2	11	1
14	38	1
61	112	5
42	43	2
70	71	1
143	144	1
107	137	1
64	64	6
109	115	1
151	169	4
60	65	2
63	63	2
94	94	1
16	39	3
110	110	3
18	23	4
28	30	2
11	45	1
150	151	1
82	99	1
116	117	2
80	88	1
61	103	1
17	66	1
148	148	3
74	75	1
13	147	1
14	16	4
104	105	1
16	45	1
19	21	2
103	106	2
20	54	2
90	90	1
134	143	1
167	169	2
173	174	3
123	124	3
157	159	1
104	111	2
117	129	1
150	150	3
54	95	1
101	102	2
21	24	1
37	44	2
110	115	2
7	13	1
33	36	3
14	29	1
72	73	1
171	171	1
9	10	5
66	79	2
84	89	2
116	146	1
95	96	2
33	39	2
103	103	2
92	94	1
56	56	2
83	83	2
97	105	2
56	61	1
36	41	1
135	136	2
167	167	3
12	57	1
8	44	1
49	50	1
24	30	1
17	126	2
158	159	1
25	85	1
51	109	1
70	70	1
26	95	1
152	156	4
159	159	4
68	101	1
1	8	5
144	150	1
23	26	1
0	10	1
168	171	1
165	168	1
4	40	1
130	131	1
36	37	1
97	106	2
33	35	1
131	147	1
62	110	2
82	87	1
24	35	1
14	20	1
134	177	1
152	155	1
3	13	2
7	16	1
142	143	2
149	158	1
157	168	1
21	39	2
2	3	1
24	58	1
7	44	1
7	12	1
4	43	1
50	110	1
106	106	1
145	147	1
133	140	1
107	107	2
67	67	1
157	167	1
61	76	1
27	40	1
119	119	1
