102	103	7
47	88	3
56	56	5
55	55	10
18	18	7
116	129	1
154	154	3
104	105	7
53	54	3
26	28	4
112	116	3
95	95	6
40	40	9
112	113	6
116	116	1
5	91	2
42	42	6
92	93	8
69	69	3
113	152	1
10	10	2
74	74	11
134	134	6
26	26	10
74	80	3
122	123	3
141	141	9
92	92	5
9	9	9
9	13	1
91	98	3
33	33	2
38	38	11
138	138	6
39	39	7
70	78	1
113	113	6
24	24	7
111	111	11
100	102	5
37	38	4
13	13	13
80	90	1
162	162	1
170	170	1
163	163	9
20	24	2
151	151	7
165	166	1
155	155	10
156	156	8
79	79	3
123	123	6
121	121	5
147	147	2
101	102	5
110	131	2
90	90	5
53	55	8
20	20	2
18	19	1
80	80	2
72	123	1
68	68	4
8	8	2
37	37	2
22	23	3
136	136	1
53	53	10
72	90	2
96	96	3
23	23	4
98	99	4
98	98	7
110	113	3
18	20	3
108	109	1
105	105	8
12	12	9
34	34	5
1	2	4
103	103	4
83	83	5
166	166	6
148	148	2
62	62	10
142	143	4
84	84	3
96	97	4
6	7	9
69	70	2
131	131	4
131	137	4
152	152	7
86	86	9
78	78	3
81	81	4
73	73	9
124	124	5
89	89	10
81	82	3
25	25	6
106	106	2
25	36	2
71	71	6
50	51	2
76	76	5
133	133	4
40	41	3
94	94	6
5	7	1
137	137	10
123	130	1
89	97	2
3	5	3
132	132	4
143	143	5
27	28	7
93	93	8
47	48	2
38	125	2
65	65	2
107	129	1
77	77	5
57	57	4
6	6	6
77	79	1
93	97	2
100	103	1
142	144	1
46	46	7
51	55	2
67	69	2
47	49	3
103	106	2
52	90	1
100	114	4
124	125	2
1	1	11
49	49	6
108	108	2
48	48	1
44	44	7
4	4	1
142	142	8
129	129	6
36	36	4
78	80	3
7	95	1
16	17	1
119	119	6
7	7	6
3	3	6
112	114	1
15	15	4
44	81	1
45	46	6
160	160	5
100	100	3
19	23	1
96	98	1
163	165	1
19	19	8
150	150	1
14	14	8
53	86	2
56	57	2
140	142	1
2	2	5
20	21	2
8	11	3
126	127	3
17	17	5
157	158	3
45	169	1
87	87	8
156	165	3
112	112	5
109	109	6
78	79	6
45	45	8
54	56	3
115	152	3
97	98	4
52	52	3
79	80	2
115	115	6
64	72	1
161	161	1
11	12	2
114	115	3
153	154	4
64	64	6
126	126	2
120	120	5
108	110	1
66	67	3
135	135	7
17	21	1
5	6	2
67	68	4
140	141	1
139	139	8
23	24	4
107	107	4
67	83	1
118	118	2
54	54	3
121	130	2
148	154	1
55	66	2
2	103	1
72	74	2
88	88	6
130	132	2
106	111	1
134	135	2
105	106	1
125	125	2
122	125	3
145	145	4
14	15	8
47	47	2
13	14	7
51	51	4
146	154	1
114	114	3
41	41	3
75	101	2
150	151	1
84	85	1
146	146	1
70	103	2
91	92	1
144	144	4
36	107	3
4	91	1
58	63	2
151	152	1
43	44	2
97	97	3
101	113	2
67	67	4
67	84	2
71	119	1
75	129	2
62	63	3
50	55	2
77	78	1
143	150	1
102	131	1
45	90	1
149	149	1
40	79	1
24	25	5
127	127	4
13	46	2
110	110	4
71	72	2
13	15	3
87	99	1
50	50	5
128	128	1
167	167	3
27	27	5
33	34	2
53	56	1
47	62	1
163	164	1
119	143	2
99	99	1
85	85	4
153	153	1
21	22	1
132	152	1
65	67	1
169	169	3
99	100	1
21	21	1
137	138	1
94	95	2
35	36	1
63	71	1
10	11	1
127	128	1
82	82	1
91	107	2
93	94	1
105	111	1
98	100	2
134	166	1
149	153	1
5	5	5
72	72	2
0	0	1
158	159	1
91	91	3
116	128	1
64	65	2
36	129	1
145	147	1
32	33	1
45	47	2
11	11	6
152	153	1
52	88	2
10	12	1
117	117	3
49	50	2
0	1	1
104	104	3
63	63	3
168	168	1
57	81	2
91	124	1
155	156	2
131	139	2
157	157	1
97	111	1
36	89	1
50	70	1
7	92	2
136	137	4
80	82	1
2	105	2
75	75	2
3	6	1
34	107	2
7	93	2
28	28	1
70	70	1
65	66	1
107	108	1
101	101	1
44	90	1
0	105	1
155	158	1
35	35	3
22	22	2
49	80	1
36	37	1
85	87	1
161	168	1
46	88	1
147	148	1
146	148	1
39	40	1
26	27	1
168	169	1
37	47	1
148	160	3
51	70	3
86	87	1
152	157	1
56	74	1
52	53	1
80	81	1
83	84	1
101	120	1
75	77	1
140	140	1
87	138	1
97	99	1
35	89	1
6	16	1
13	38	1
58	58	1
16	16	4
89	90	1
51	69	1
52	54	1
122	122	1
41	80	1
