51	54	7
4	4	31
38	38	22
12	12	26
11	11	32
21	23	6
30	51	2
18	19	8
10	10	25
58	58	13
6	6	20
39	39	24
40	41	6
52	52	26
48	48	19
5	46	2
51	51	23
7	7	10
17	33	3
5	5	18
19	58	2
49	49	32
14	14	27
3	4	7
16	16	27
18	18	31
47	47	12
29	29	26
16	17	17
13	13	27
51	52	4
50	51	10
9	9	20
45	45	20
1	1	27
15	16	12
2	3	9
2	2	23
51	55	8
4	5	3
19	19	38
35	35	34
29	30	19
42	43	7
0	0	11
56	57	3
34	40	3
59	59	6
14	16	7
52	53	8
34	39	3
5	6	4
22	57	2
34	35	12
30	30	26
55	58	5
50	50	38
54	54	28
15	15	33
46	46	7
20	20	19
3	3	25
6	7	6
10	40	2
12	13	10
44	44	33
36	41	2
21	22	5
24	28	1
22	22	9
47	48	5
16	30	1
37	37	13
41	42	10
8	8	33
8	41	1
43	43	11
46	47	6
30	31	7
49	50	7
34	34	26
55	55	18
32	32	26
37	38	7
17	17	48
48	51	1
24	24	3
40	49	3
56	58	6
57	57	12
55	59	1
51	56	4
23	24	7
57	58	9
40	40	20
16	50	1
23	23	10
33	34	10
12	14	3
1	2	3
17	35	8
28	28	15
21	57	2
15	31	4
15	30	4
36	36	38
36	37	8
29	32	8
42	42	14
54	55	3
15	36	3
31	31	26
42	49	1
13	14	5
20	56	3
14	15	5
7	28	4
29	31	5
19	20	3
34	36	3
10	14	1
1	3	6
20	57	7
22	24	2
45	46	3
21	21	18
31	32	4
32	33	4
33	33	11
38	39	4
30	32	1
56	56	18
20	31	2
11	15	7
53	53	14
9	30	1
11	30	3
23	51	7
32	36	4
35	36	7
53	54	9
6	14	3
21	32	2
31	35	1
28	29	7
21	37	2
40	52	1
41	41	13
14	33	4
17	18	3
11	12	2
51	53	2
58	59	3
20	22	3
43	44	1
32	51	1
20	58	1
55	56	3
18	34	3
0	1	3
39	58	1
39	40	2
7	8	5
9	12	4
9	11	2
19	21	2
11	16	2
20	21	5
18	24	1
4	45	1
13	15	1
50	58	2
2	13	1
31	50	2
21	24	1
8	40	1
8	31	1
48	49	2
2	12	1
14	49	1
6	11	1
5	7	1
33	36	1
32	46	1
22	23	1
23	28	1
13	32	2
31	57	1
15	17	1
8	9	1
17	49	1
9	10	3
14	38	1
19	57	1
13	33	1
20	23	1
