51	51	29
40	53	3
15	15	19
49	50	13
55	55	46
5	10	2
19	19	17
37	38	12
12	12	21
50	50	29
32	32	52
40	40	40
43	43	37
45	52	3
62	62	35
25	25	10
13	13	14
2	11	3
9	10	12
41	45	2
56	56	40
46	57	4
50	51	12
48	48	42
57	58	8
30	44	2
46	47	12
41	41	48
47	47	46
45	45	34
7	7	27
57	60	7
44	48	9
36	36	46
37	37	27
48	49	16
13	14	7
49	49	39
42	43	8
60	60	37
9	9	39
37	46	2
58	58	39
7	8	4
39	39	24
30	30	37
19	56	2
40	41	14
55	60	2
20	20	16
59	59	26
19	45	4
34	34	61
40	54	7
31	31	32
16	16	20
22	22	11
53	53	30
56	62	4
58	60	6
36	57	6
11	13	7
3	3	7
35	35	49
29	29	6
10	10	28
36	37	4
10	11	14
23	23	24
19	55	1
45	47	13
11	11	17
46	46	50
33	33	43
52	52	37
58	59	6
51	52	19
19	54	6
61	61	33
15	16	8
43	50	2
19	20	5
2	5	3
11	12	15
10	50	4
10	12	5
38	38	29
46	58	6
41	58	3
6	9	13
5	5	18
19	46	2
30	31	25
52	54	4
30	43	4
44	45	11
8	8	24
56	57	25
17	18	15
20	23	7
31	45	5
31	44	2
38	57	4
59	60	4
8	11	6
1	16	4
25	26	3
14	15	15
45	46	11
38	60	3
0	0	30
24	25	8
33	35	1
1	15	7
57	57	52
42	42	32
14	16	8
1	1	17
18	18	24
2	3	8
1	2	5
41	44	2
42	52	3
57	62	2
16	17	10
0	1	2
6	8	4
30	58	3
6	6	7
34	36	1
60	61	11
39	40	20
4	4	25
38	40	6
54	54	24
52	53	7
50	52	6
0	2	8
17	17	20
45	56	5
6	7	8
38	39	12
32	33	9
31	42	2
10	17	1
40	42	4
29	42	1
42	51	2
44	52	2
3	4	11
31	32	8
31	33	2
38	47	5
39	41	11
24	24	17
44	47	3
47	48	13
42	45	8
51	53	4
21	21	13
12	13	6
37	45	1
35	48	1
41	55	3
35	36	11
55	56	14
20	21	13
43	44	12
44	44	36
8	9	6
37	58	2
36	60	3
12	14	6
21	53	3
56	60	2
42	44	2
6	11	1
40	44	3
14	14	15
34	39	2
47	56	4
2	4	3
2	2	14
23	24	4
16	53	4
32	49	2
44	58	2
14	17	6
11	15	3
29	30	3
53	54	4
19	53	1
31	40	1
54	55	2
26	26	5
37	39	2
16	51	3
36	38	1
47	50	2
52	55	5
61	62	8
23	25	1
53	55	2
46	56	4
24	26	3
1	3	3
32	34	3
41	57	1
30	54	4
34	35	4
33	34	9
10	13	4
42	55	2
17	19	1
51	54	1
37	42	2
31	38	1
11	50	1
32	43	1
39	47	2
20	46	1
38	59	2
3	10	2
22	23	1
14	49	2
4	5	5
55	62	4
35	38	2
60	62	2
1	4	1
16	50	1
42	46	1
40	46	1
15	50	1
29	54	1
5	48	2
17	50	1
37	60	2
21	54	2
7	11	1
5	6	1
35	51	1
7	9	3
30	60	2
10	18	1
15	18	1
1	14	2
39	57	2
20	41	1
30	42	2
37	53	1
32	37	1
38	41	2
30	32	1
38	53	1
18	19	1
20	22	1
17	53	1
30	52	2
29	59	1
22	58	2
49	59	1
50	59	1
16	18	1
36	62	2
50	55	1
43	52	1
31	36	1
32	48	1
47	58	1
20	54	1
