94	94	18
72	73	4
98	98	18
77	78	10
84	89	2
33	34	3
50	76	4
53	80	1
66	66	14
61	61	22
72	72	3
83	84	5
90	93	1
53	53	15
40	40	9
75	75	12
44	72	2
29	29	7
81	81	11
31	31	3
48	80	2
86	86	12
79	84	3
86	88	4
31	32	13
20	20	3
63	63	20
93	93	12
65	72	1
20	22	2
44	44	13
90	90	12
63	64	4
48	48	7
98	99	4
47	47	6
79	79	13
76	76	16
49	50	4
83	86	3
67	67	20
91	91	6
66	80	2
69	69	25
62	88	3
30	30	2
24	26	1
46	46	14
98	100	4
65	65	18
59	59	16
74	74	9
64	64	11
102	102	2
67	68	6
57	57	11
58	58	11
55	56	3
97	98	6
89	90	3
99	99	13
77	77	15
66	67	3
38	38	3
55	55	11
101	101	5
63	75	1
67	69	2
26	26	5
62	62	9
33	33	12
83	83	4
51	51	11
56	56	5
82	83	2
69	71	7
47	48	7
92	92	14
38	40	4
61	84	8
54	56	2
95	96	10
34	34	10
24	24	2
41	42	2
71	71	10
92	94	2
73	73	19
42	93	2
78	79	4
87	87	10
96	96	11
78	78	5
56	57	3
55	59	5
68	68	17
89	89	12
55	78	1
39	39	14
38	76	4
37	52	1
43	44	9
96	97	3
50	50	9
25	25	3
60	60	12
27	28	2
54	54	10
80	80	16
41	50	2
37	94	1
70	72	3
65	77	3
95	95	6
52	52	7
24	27	2
37	37	5
42	42	3
55	57	1
84	92	4
54	57	2
85	86	7
48	52	3
59	63	3
70	71	9
59	85	1
36	37	5
70	70	10
91	93	5
90	91	3
34	40	1
62	76	2
32	33	1
35	35	8
40	91	2
85	85	2
43	43	4
41	41	3
46	48	2
24	28	5
81	82	10
35	36	8
41	43	4
100	100	12
29	30	4
83	85	5
78	85	1
53	55	4
68	69	2
48	50	3
32	32	1
99	100	4
25	26	3
73	74	5
45	45	5
60	61	16
51	90	2
49	49	4
35	40	2
88	88	7
88	89	4
88	101	1
21	39	1
52	53	7
58	77	2
84	84	5
47	52	3
54	55	1
64	70	2
53	54	2
55	100	3
66	85	3
48	49	1
97	102	3
65	69	1
87	89	1
25	27	2
55	58	1
65	66	9
76	77	4
69	70	1
42	44	2
32	47	1
39	46	2
40	47	3
80	82	3
63	71	2
93	98	2
97	97	2
62	63	2
26	27	2
78	90	2
66	73	2
80	81	2
68	71	1
78	80	2
82	82	4
101	102	1
35	39	2
53	92	2
74	76	1
86	87	1
77	90	2
60	67	2
85	99	1
52	89	3
33	46	1
76	78	1
52	88	1
57	58	3
31	74	2
68	75	2
52	96	2
38	39	4
60	63	1
58	59	2
62	92	4
34	62	1
56	79	1
100	101	2
61	62	2
27	27	1
42	43	4
80	85	1
88	92	2
79	80	2
92	93	3
57	75	1
28	28	2
33	50	3
97	101	1
47	51	1
52	91	1
75	99	1
34	36	1
90	92	1
91	100	1
75	76	1
34	83	1
69	75	1
74	75	1
31	34	1
95	101	1
82	84	1
64	65	1
80	93	1
54	60	1
36	36	1
52	79	1
65	67	1
46	47	1
93	94	1
