16	16	22
7	7	9
87	87	10
14	20	7
101	101	9
76	77	4
72	72	26
49	50	2
115	115	13
11	93	8
107	126	8
38	41	6
19	124	4
58	58	16
21	21	25
31	39	5
39	39	3
33	34	6
93	93	14
27	27	18
89	89	1
24	74	2
84	89	2
9	9	10
80	80	5
35	74	5
92	92	19
60	60	27
19	19	12
11	11	21
46	46	12
55	127	3
15	15	35
13	13	12
75	75	5
8	8	12
43	43	5
64	64	20
59	59	11
73	73	4
125	126	4
19	27	1
48	48	8
45	46	4
45	45	42
128	129	6
30	48	2
119	119	11
132	133	1
78	78	18
10	10	16
125	125	6
19	20	7
59	84	3
40	40	4
131	132	8
59	75	1
86	86	12
44	45	2
5	5	9
99	100	3
24	24	9
95	100	3
107	127	3
56	56	7
83	83	19
94	94	23
49	49	8
77	82	1
129	129	9
20	20	5
120	120	13
113	113	12
31	31	26
69	73	3
126	126	11
74	74	17
37	37	6
84	84	10
43	44	7
98	100	2
34	34	12
14	14	6
115	116	3
106	106	18
4	4	6
65	65	14
26	26	17
6	7	2
100	100	2
70	70	17
127	132	3
11	26	3
121	123	5
21	22	9
37	39	1
20	124	3
17	17	14
109	127	1
121	122	6
83	84	3
98	99	1
118	124	3
27	33	4
30	30	22
29	29	14
115	132	1
88	90	4
27	49	1
12	12	17
99	99	17
122	123	2
51	55	1
81	81	12
63	94	2
110	111	3
87	92	1
12	46	2
3	64	2
17	19	4
20	74	1
18	18	6
41	41	5
116	117	4
66	76	1
112	114	1
103	106	4
7	15	5
79	79	19
46	47	2
47	95	4
6	6	15
81	85	3
69	69	14
11	12	1
71	73	3
55	56	4
25	47	3
41	46	1
110	110	2
26	27	6
24	82	3
130	130	2
97	97	2
68	69	2
131	133	2
92	93	1
42	42	5
55	55	9
11	94	3
107	107	2
61	98	1
117	118	4
69	72	2
68	68	14
96	101	2
82	83	4
33	33	6
36	36	9
2	2	4
81	84	6
22	23	3
106	107	7
114	114	6
85	85	17
46	61	2
122	122	9
29	48	3
34	42	1
1	1	5
130	131	3
57	58	5
97	98	3
66	67	2
40	41	3
47	47	7
3	3	9
81	83	1
23	26	3
111	111	6
91	92	4
9	36	4
23	23	8
134	134	5
22	40	2
99	102	3
2	117	2
61	61	17
112	112	5
41	42	7
18	123	1
94	105	3
66	66	17
54	127	1
20	42	3
28	28	7
44	68	1
71	71	8
7	84	4
25	25	6
44	44	12
31	44	3
10	11	7
38	38	2
40	42	2
21	40	2
77	77	4
108	108	12
128	128	2
123	123	6
96	97	2
57	57	5
65	86	1
13	14	1
94	108	3
67	67	9
49	55	1
59	60	2
69	71	3
38	81	1
18	19	3
80	85	2
82	82	11
112	113	3
1	2	2
0	0	7
28	91	4
13	61	1
118	120	3
101	102	4
117	120	4
8	9	2
121	121	10
98	124	3
131	131	4
87	88	5
93	100	1
37	38	4
29	57	2
35	75	1
133	133	11
102	111	3
26	30	6
66	74	1
89	90	3
29	31	1
97	101	3
83	93	2
43	100	1
34	74	6
103	103	4
45	71	2
63	64	3
95	95	7
30	41	2
56	92	1
48	49	2
132	132	3
20	40	2
86	88	4
26	29	1
61	73	4
114	115	2
12	94	1
14	15	2
94	101	3
62	62	5
10	94	1
96	98	1
61	93	2
96	96	6
15	16	2
61	72	2
34	43	2
76	76	4
32	32	4
60	93	2
87	93	6
121	124	3
113	114	8
93	102	5
50	50	1
124	125	6
90	91	6
22	60	1
29	49	1
21	32	2
51	51	1
8	12	1
27	90	2
31	32	6
44	46	3
6	32	2
61	75	3
25	81	3
78	79	2
86	87	2
65	66	4
102	103	1
84	85	8
25	26	1
10	12	1
86	104	4
5	23	2
9	10	2
59	108	1
28	43	2
90	90	6
61	66	4
37	66	2
4	5	3
48	87	1
49	89	3
73	75	1
77	85	4
98	98	2
2	46	2
126	132	1
95	96	1
66	85	2
32	98	3
20	21	5
118	118	10
29	30	1
88	130	2
63	75	1
35	36	1
3	66	2
61	76	2
100	117	2
127	128	1
36	39	2
21	76	1
27	47	2
15	82	2
120	121	1
115	127	1
63	63	7
58	59	1
94	99	1
25	45	1
35	35	6
116	116	2
11	47	1
79	82	1
12	13	3
38	84	2
3	101	1
105	108	2
55	99	1
26	75	1
29	61	1
129	130	1
110	124	1
88	94	1
95	101	1
66	68	2
16	78	1
56	58	2
117	117	5
3	123	2
33	66	2
18	66	4
115	133	2
60	61	2
19	45	2
42	83	2
27	92	1
21	85	1
50	56	2
33	72	2
48	93	1
33	70	1
28	29	2
123	124	1
27	28	1
93	94	2
13	15	2
105	105	1
41	44	1
91	91	1
79	80	2
45	70	1
7	36	2
8	36	2
100	102	2
31	95	1
14	23	1
101	107	2
22	57	1
16	19	1
81	82	2
79	83	2
27	29	2
19	39	1
54	55	1
25	93	1
95	97	1
74	77	1
59	94	2
63	73	3
56	106	1
46	99	1
51	54	1
9	61	1
78	80	2
68	73	1
8	13	2
3	109	2
24	79	1
86	108	1
88	88	1
104	104	1
34	35	1
18	44	2
35	66	1
33	74	1
124	124	1
24	25	1
0	74	1
126	129	1
44	47	1
37	42	1
28	80	1
102	102	1
28	89	1
59	82	2
105	109	1
97	99	1
109	109	1
