75	76	5
26	28	6
103	103	13
140	141	10
158	159	9
133	133	13
43	44	1
55	55	16
115	118	4
108	110	2
57	58	3
96	96	7
75	75	25
26	68	4
108	108	27
8	8	15
19	19	17
114	114	11
131	168	2
136	136	14
91	91	14
30	30	15
159	163	1
150	151	7
122	148	6
169	169	22
33	33	30
67	68	5
10	10	33
116	116	8
21	22	7
21	25	2
81	81	21
160	160	12
44	44	22
18	43	3
12	12	18
2	2	21
1	2	6
27	27	12
102	102	11
37	37	7
73	73	7
96	97	6
68	68	15
171	171	10
93	94	9
45	46	1
66	66	8
51	51	18
155	156	8
97	97	11
30	31	12
164	164	15
143	144	10
65	65	16
111	136	2
130	130	14
25	28	2
79	80	6
64	105	5
27	28	5
159	159	8
77	78	7
126	126	8
173	174	3
158	158	11
137	138	3
63	63	5
2	4	8
91	92	5
71	71	13
99	103	2
7	10	5
74	74	11
166	166	11
35	73	4
26	27	5
7	7	14
77	77	8
5	6	10
156	156	16
134	150	2
155	155	11
11	11	26
31	31	27
140	153	2
21	21	15
135	135	13
60	61	5
104	104	8
105	105	6
119	119	15
58	58	10
155	158	5
78	92	4
100	100	16
62	62	12
145	145	13
79	79	19
124	124	7
147	147	12
15	15	33
115	115	10
165	166	2
170	170	3
36	36	27
110	110	16
85	112	9
45	45	16
25	25	15
11	32	8
80	80	13
169	170	3
17	17	27
61	61	10
9	9	3
88	88	9
176	176	11
142	142	11
174	174	13
78	78	4
82	102	3
13	14	10
90	90	14
143	143	9
147	150	1
91	93	2
64	138	2
85	86	4
11	33	6
61	62	3
103	104	7
25	26	6
28	29	5
161	170	2
139	140	10
8	16	9
26	26	21
99	100	6
151	163	2
58	59	7
51	52	3
151	152	3
139	139	12
90	91	3
115	117	3
115	143	4
153	162	3
116	153	1
34	35	2
152	152	8
141	141	14
0	5	2
28	28	11
44	45	8
81	82	10
12	13	14
19	29	2
14	14	17
7	8	15
123	124	9
9	28	5
42	43	3
168	170	3
105	106	5
167	167	10
64	64	11
144	146	1
6	6	16
19	20	7
59	96	9
34	34	10
140	146	6
127	127	8
116	118	7
61	63	3
56	56	13
87	173	3
157	159	4
52	61	4
157	158	13
140	145	1
53	56	2
163	163	20
139	142	4
37	38	9
8	15	3
0	1	11
139	173	4
173	173	11
99	99	7
5	5	11
128	128	8
13	33	1
76	126	5
131	131	12
54	54	10
137	137	4
5	7	14
152	153	10
35	40	3
148	148	13
128	130	2
22	22	26
76	76	19
168	168	17
9	10	10
175	175	10
140	140	12
50	50	7
11	12	13
87	107	5
17	18	5
131	132	2
150	150	20
10	32	3
123	125	5
168	169	6
22	23	4
142	162	5
35	35	21
78	79	9
6	7	9
78	91	3
8	32	1
43	43	18
79	89	7
121	121	10
94	94	20
44	171	4
147	148	3
8	18	4
114	123	2
74	100	2
145	146	6
10	13	7
166	167	3
87	88	10
23	23	10
3	3	14
10	33	2
12	39	3
88	89	6
139	148	1
41	43	4
153	153	12
114	115	7
53	53	22
14	17	1
94	96	5
152	170	2
120	121	2
1	17	2
159	164	3
32	32	26
85	85	6
109	109	11
129	130	3
28	31	1
8	10	12
144	145	6
140	170	6
40	41	16
98	98	6
83	83	7
144	144	11
85	89	6
7	9	6
159	167	2
11	29	4
60	60	11
151	160	4
150	157	1
105	107	3
114	116	5
38	38	10
145	147	3
92	93	1
161	161	7
89	98	2
6	9	5
1	34	1
39	41	2
86	111	6
134	134	9
142	143	7
105	125	1
89	97	3
101	101	6
93	93	8
55	68	3
8	14	2
163	168	2
154	155	9
36	37	2
9	16	1
2	16	3
162	168	2
149	149	20
141	151	4
5	10	3
138	138	9
11	13	8
1	5	4
59	59	8
1	1	3
132	132	15
20	20	11
52	54	6
67	67	16
115	144	2
110	167	1
178	179	3
160	162	1
68	71	1
82	82	9
24	24	14
162	171	1
180	180	10
172	172	6
117	119	2
3	5	2
52	52	9
43	107	3
120	120	8
13	13	7
103	109	2
68	104	1
18	18	11
144	151	3
24	25	2
113	113	12
119	120	10
116	117	9
135	151	4
29	29	18
148	149	3
125	125	8
143	161	1
35	111	2
151	151	10
33	34	2
86	87	6
161	169	6
52	57	1
95	95	6
12	15	7
126	145	5
66	68	2
40	40	12
10	11	5
3	4	9
0	0	10
154	157	4
56	57	3
57	57	5
136	144	1
119	123	3
177	178	3
152	157	1
62	100	1
40	43	3
41	41	18
108	109	4
86	86	8
130	131	3
87	87	13
162	162	13
8	9	3
60	96	1
131	149	2
29	30	1
123	123	14
13	32	2
136	173	1
165	165	3
103	106	1
107	108	2
100	126	7
111	111	8
118	118	4
96	99	1
107	126	3
179	179	5
36	38	4
179	180	1
2	5	2
62	82	1
134	145	1
121	140	3
32	33	8
161	162	4
42	42	9
91	94	2
4	153	1
74	83	8
35	37	5
151	153	4
128	129	1
123	127	4
28	46	1
106	106	6
35	36	8
137	174	5
4	4	16
142	171	2
107	107	11
9	30	3
70	70	2
39	39	8
165	168	7
4	5	1
83	84	4
8	11	4
29	31	2
2	8	9
106	107	5
38	71	1
119	144	1
137	146	3
162	166	3
8	43	5
146	146	3
73	74	2
115	130	3
141	147	4
5	33	2
65	138	1
178	178	4
15	17	4
38	39	5
6	8	1
42	45	3
14	26	1
98	99	1
21	41	2
140	171	1
120	146	2
0	2	2
21	23	5
76	77	3
154	154	12
3	12	1
24	26	9
77	79	1
23	24	4
175	176	3
89	93	1
38	79	4
57	70	5
6	43	6
10	15	2
158	164	3
115	152	2
104	111	1
117	117	9
14	18	3
85	113	2
124	129	3
51	56	4
19	21	3
15	23	2
34	37	1
97	101	1
66	67	2
122	122	4
27	30	2
89	94	3
41	42	16
109	118	5
39	43	1
20	21	3
163	164	2
82	85	2
18	19	7
6	33	1
8	13	2
139	171	2
62	87	1
60	68	1
81	84	1
100	145	3
95	96	4
148	172	3
111	112	3
42	152	4
84	84	3
54	56	5
16	31	1
132	148	1
73	75	2
61	102	2
115	153	1
100	101	4
178	180	1
14	38	2
63	64	5
5	116	4
33	35	3
92	174	1
5	32	2
2	18	2
89	89	4
10	26	5
41	164	1
98	100	2
151	173	1
166	170	2
2	33	4
137	140	1
119	147	1
157	157	4
120	140	3
38	52	1
5	109	2
94	102	3
42	139	2
38	40	1
50	53	4
54	55	2
150	153	1
112	112	6
133	148	2
5	15	2
59	74	1
9	15	2
13	25	3
87	89	4
116	122	1
111	134	3
108	137	3
35	74	1
133	134	2
114	136	2
39	40	1
88	112	3
142	147	2
134	146	1
112	113	3
174	175	6
66	87	1
24	29	4
109	112	5
11	31	1
98	101	1
28	32	1
92	92	12
94	103	2
10	14	1
65	104	1
113	114	2
160	163	2
154	156	1
67	71	1
108	111	2
122	125	1
16	16	4
176	177	1
120	129	1
76	133	2
31	39	3
41	156	1
64	65	3
71	80	1
20	44	2
22	46	7
0	33	3
164	165	3
109	114	1
89	90	1
4	18	1
110	111	4
94	95	5
75	126	3
72	72	2
71	73	4
10	16	1
61	71	2
9	23	3
170	171	1
142	145	2
177	177	3
113	124	1
21	26	2
26	103	3
10	42	1
103	107	1
38	41	1
78	80	2
91	102	1
119	121	1
113	140	2
148	171	1
117	136	1
12	31	2
165	167	1
104	105	1
164	168	2
9	14	4
36	80	2
51	98	2
83	107	2
52	53	2
146	147	1
134	135	1
76	78	1
86	88	2
67	82	2
115	120	1
0	32	3
135	150	1
149	172	1
90	103	1
74	79	4
101	103	1
9	43	1
74	75	1
76	160	1
177	179	2
2	34	1
11	25	1
176	179	1
65	109	1
137	145	1
127	129	1
72	86	1
41	157	1
115	121	4
162	163	1
5	154	1
15	16	1
167	171	1
84	86	1
111	137	1
49	50	3
1	32	1
152	158	1
4	7	1
12	40	1
72	77	1
97	99	1
18	21	1
122	127	3
41	51	1
167	169	1
21	24	1
15	31	1
34	40	1
84	85	1
16	20	1
5	17	1
2	6	1
159	165	2
138	174	1
80	81	1
139	141	4
17	24	1
2	17	1
135	136	1
7	30	1
31	43	2
121	144	1
25	41	1
60	102	2
79	90	1
26	29	1
41	168	1
96	100	1
10	30	2
129	129	1
160	161	1
102	103	1
88	104	1
1	6	1
65	66	1
154	158	1
124	125	1
49	49	2
60	95	1
42	51	1
78	156	1
65	81	1
59	60	1
26	42	2
159	160	1
31	32	1
28	30	1
15	19	1
29	32	1
46	46	1
138	141	2
172	173	1
11	14	1
53	55	1
7	18	1
139	143	1
172	175	1
54	59	2
55	56	1
5	115	1
18	20	1
75	80	1
86	91	1
109	110	1
79	107	1
78	96	1
5	9	1
6	16	1
50	51	1
127	128	1
10	31	1
60	66	1
0	37	1
