33	35	1
80	80	5
5	5	14
32	32	14
40	40	18
77	77	12
60	65	1
31	31	5
59	59	6
5	7	4
56	56	14
15	17	1
47	47	12
78	78	11
12	13	1
12	12	14
30	30	9
62	77	1
32	34	2
9	21	2
67	67	13
43	43	8
46	60	1
38	38	10
4	5	3
28	28	14
61	61	9
48	48	7
2	3	9
68	78	3
60	60	4
26	26	16
63	63	6
4	4	7
71	71	9
53	53	9
70	71	11
79	80	4
8	11	6
67	76	1
53	54	4
17	17	8
14	14	6
71	72	3
37	38	3
60	62	2
47	48	4
45	54	2
39	39	4
45	45	10
58	59	5
19	32	1
13	14	11
39	40	4
55	72	2
6	7	4
62	62	13
21	21	9
19	19	11
69	70	8
62	68	1
6	6	7
25	30	7
9	12	2
10	11	4
46	47	1
46	46	7
33	33	5
28	73	1
35	35	3
57	58	2
13	13	10
49	49	3
57	57	7
52	53	1
51	51	5
48	49	3
38	39	1
76	79	5
9	9	6
2	2	3
42	42	7
8	9	6
74	78	1
10	10	14
75	75	6
20	20	5
0	0	2
51	76	3
7	9	2
39	42	3
50	51	3
37	37	12
51	52	1
8	8	3
67	69	6
11	11	3
59	67	2
80	81	3
69	69	2
59	60	6
61	62	2
69	77	3
44	78	4
60	69	2
27	27	2
3	8	4
19	21	2
20	21	2
67	68	2
25	25	8
12	25	5
19	31	2
54	55	3
36	39	1
54	54	5
65	65	7
39	45	2
10	13	2
72	73	2
73	73	7
74	74	4
70	70	1
55	55	7
37	39	1
28	47	1
3	3	2
79	79	5
55	56	2
9	10	2
4	7	1
47	59	4
1	7	3
68	68	7
13	21	1
32	33	1
29	29	1
15	21	5
25	32	2
75	76	1
53	69	1
4	11	2
64	64	5
1	1	5
55	66	2
55	69	2
50	52	1
55	65	2
60	61	1
4	6	1
36	36	4
11	14	4
27	79	1
35	77	2
76	76	4
46	72	2
58	58	2
68	69	1
4	12	1
36	37	1
78	79	3
46	70	3
34	34	1
19	33	1
44	44	1
52	52	1
7	7	1
63	69	1
73	76	1
48	55	3
16	19	3
9	22	1
41	41	1
11	13	3
50	50	1
26	57	1
68	70	1
77	78	2
46	53	2
56	69	2
45	46	1
15	15	1
62	64	1
30	31	3
5	6	3
36	42	1
19	20	2
13	15	1
64	65	1
8	17	1
27	28	1
34	35	2
29	30	1
63	64	1
