119	120	7
70	70	11
49	87	4
56	57	7
228	228	3
146	166	2
73	73	16
61	61	16
184	185	6
96	99	2
207	220	2
208	208	25
6	8	3
168	169	12
163	194	1
7	7	32
55	55	20
178	178	18
47	47	9
163	163	27
204	204	16
96	96	11
94	94	16
6	6	7
162	162	23
112	112	12
176	178	5
213	213	18
184	184	29
244	245	4
97	107	3
174	179	2
107	108	7
48	59	2
55	58	3
64	72	3
170	170	10
191	192	10
160	184	5
109	109	21
187	188	6
35	35	16
75	76	7
244	246	5
43	43	8
153	153	18
161	171	1
61	169	2
240	240	18
241	241	22
85	85	10
71	71	14
223	223	19
32	32	18
72	74	2
11	12	12
57	57	19
232	233	11
106	107	9
120	120	12
69	69	15
98	98	14
169	169	16
99	167	4
189	189	17
24	25	8
236	237	11
67	67	17
3	3	13
64	64	15
209	212	2
89	89	15
236	236	16
173	173	20
162	163	8
22	22	14
225	225	12
230	230	7
14	39	1
84	84	11
188	188	9
211	211	12
233	233	9
94	100	3
8	8	18
33	33	19
53	53	12
119	119	17
92	93	4
207	209	5
76	76	12
40	41	3
21	21	18
96	100	1
14	38	1
102	102	11
154	154	26
247	247	23
61	166	2
164	170	2
222	222	12
168	168	24
56	58	8
246	246	14
9	26	4
166	166	21
61	62	4
89	90	7
93	93	14
109	110	6
187	187	22
227	227	16
199	199	20
151	151	30
111	112	9
115	119	1
75	75	11
185	185	25
152	234	4
179	179	14
45	45	17
203	203	19
105	106	4
183	183	21
185	190	1
145	145	18
88	89	6
46	46	12
48	48	8
19	22	8
104	106	7
55	56	9
194	195	5
70	76	2
153	167	1
79	81	2
31	31	13
244	244	21
56	65	2
14	15	8
242	242	28
21	22	6
35	36	1
115	116	13
11	11	18
167	199	4
156	156	14
158	159	10
238	238	12
29	34	4
191	217	3
167	167	23
166	167	5
246	247	12
64	66	3
88	104	2
87	87	1
51	52	17
41	41	17
154	155	4
219	219	26
84	85	4
218	218	9
240	241	7
239	240	2
24	24	18
62	62	6
185	189	3
93	94	7
179	180	4
14	14	15
97	158	1
63	63	15
88	88	14
241	242	6
118	118	10
91	91	12
176	176	9
97	97	22
56	56	14
27	27	11
50	63	5
229	231	10
174	174	11
240	242	2
11	110	5
58	58	20
9	9	11
20	20	10
234	234	15
20	21	4
7	8	10
191	191	8
82	82	15
200	214	4
214	215	8
210	210	16
195	195	17
175	176	18
171	171	14
66	66	26
164	164	6
194	216	1
108	108	5
15	15	18
212	212	24
70	217	4
23	23	27
177	177	26
237	238	5
36	57	1
18	18	6
90	90	13
202	202	25
44	44	7
38	38	16
165	166	9
198	198	12
207	207	14
86	87	3
183	185	4
96	97	2
99	99	9
102	103	15
165	171	3
165	165	9
197	197	18
62	79	3
90	91	2
10	10	29
29	29	11
183	184	15
151	154	1
163	177	2
115	115	6
200	200	22
51	51	15
108	152	2
192	195	5
89	98	2
196	197	5
202	204	1
169	170	7
181	187	2
68	69	10
195	215	2
210	216	4
153	154	12
112	117	2
190	190	6
100	100	16
214	249	2
202	205	2
215	215	12
183	249	3
74	74	6
4	4	10
181	181	23
213	214	17
189	197	3
97	99	4
41	194	2
97	98	9
157	238	3
146	147	4
201	201	17
26	27	3
193	198	4
60	60	15
65	66	10
110	110	9
19	19	10
46	47	4
180	180	14
175	175	19
159	159	21
83	83	12
208	214	4
49	50	10
168	174	1
200	201	6
96	98	2
193	194	11
152	153	6
152	152	13
25	25	12
193	195	15
171	172	16
237	237	11
103	103	6
202	210	1
209	210	5
79	79	16
65	65	12
172	172	15
221	221	15
183	186	3
52	52	3
44	228	2
28	28	18
161	161	12
68	68	29
245	245	13
242	243	8
19	226	1
5	6	9
161	177	2
181	216	2
72	73	3
158	158	23
235	235	6
39	39	5
172	173	17
173	174	8
229	229	7
195	218	3
243	243	8
243	244	13
202	212	2
70	71	7
202	203	7
150	151	7
180	181	7
224	224	18
181	182	12
209	213	3
37	46	1
220	221	4
34	34	12
182	182	17
172	174	3
155	155	13
111	111	11
206	206	9
50	50	16
116	116	26
114	114	15
50	86	1
30	30	18
5	5	11
45	46	5
69	70	7
161	162	9
6	7	4
195	197	2
161	208	2
198	210	4
245	246	8
37	37	9
196	216	2
113	113	17
101	101	12
216	216	9
160	161	8
72	72	11
198	200	2
86	103	3
55	57	4
150	150	17
81	81	14
112	158	2
86	104	5
79	82	2
28	81	2
110	111	4
32	33	3
145	224	3
68	70	1
113	120	3
213	218	1
226	226	20
94	156	3
78	78	20
54	54	9
214	214	22
248	248	6
9	10	6
59	59	8
58	59	7
238	242	1
36	36	16
85	95	3
85	87	1
173	175	1
73	96	4
199	200	7
12	14	1
172	181	4
146	146	7
209	209	17
194	194	9
201	235	1
171	197	1
26	26	15
70	219	3
232	232	11
147	147	6
90	95	1
222	223	1
231	232	4
77	77	5
185	186	13
206	207	11
18	22	6
217	218	2
18	19	1
31	39	3
71	76	7
69	91	1
0	1	7
153	157	1
29	31	3
196	196	12
160	240	1
76	78	6
81	82	5
189	213	2
187	196	2
239	241	1
197	199	1
17	17	4
228	229	6
232	234	2
47	53	2
7	9	1
64	73	2
69	72	3
87	88	9
213	219	1
22	23	7
221	222	4
159	188	4
192	196	4
18	20	6
58	64	2
220	220	7
58	60	2
225	226	9
64	65	5
49	53	1
160	213	1
203	205	5
60	61	7
42	229	1
157	177	3
86	106	4
163	164	6
169	198	4
28	29	2
207	222	2
217	217	14
193	193	12
219	220	1
49	236	1
37	38	1
189	190	5
172	183	3
105	105	4
91	92	8
95	95	7
101	102	2
92	92	11
16	16	22
90	96	1
205	205	24
218	219	12
186	186	14
47	70	1
204	210	4
177	179	1
188	189	6
41	42	6
178	182	2
71	72	10
156	229	2
65	67	3
42	42	16
178	179	9
61	64	5
202	241	2
157	158	5
181	214	1
201	202	3
117	117	7
203	204	7
59	60	2
54	55	8
190	191	3
57	60	2
2	2	6
107	118	6
192	193	4
2	3	4
157	157	6
163	169	1
102	108	1
224	225	5
5	34	4
108	110	2
52	82	2
23	24	11
63	64	1
107	149	4
182	186	5
20	22	1
113	114	4
163	166	5
194	198	2
160	160	12
175	181	1
210	212	2
85	86	8
5	33	1
92	96	2
247	248	6
63	71	1
12	12	9
159	242	6
117	118	6
186	248	2
13	152	3
146	151	1
193	213	1
99	100	6
35	37	4
23	26	1
39	40	3
114	237	6
239	239	9
231	234	1
93	95	3
175	178	2
160	189	3
94	157	2
186	194	4
19	20	7
147	167	5
7	10	3
186	188	2
210	214	3
177	178	4
145	206	1
95	157	3
187	194	1
88	90	3
196	215	4
56	62	2
47	69	2
174	175	8
167	168	1
157	178	1
76	77	5
211	212	5
91	95	1
201	203	3
203	240	1
176	177	18
39	226	4
159	160	5
234	236	5
49	49	12
186	193	1
145	241	5
175	185	2
160	210	2
176	190	2
209	211	1
30	61	3
200	225	1
63	72	1
5	35	5
50	85	4
210	211	3
112	114	2
81	88	2
110	113	3
243	246	3
31	32	6
175	186	3
79	80	4
170	172	3
168	171	1
44	201	5
43	44	3
104	105	6
192	192	14
45	193	2
237	239	1
116	117	3
101	103	3
34	38	1
226	227	5
36	37	2
59	170	2
67	68	3
100	102	1
98	167	4
47	48	8
16	202	1
209	218	1
95	96	8
113	115	1
112	113	3
68	71	4
1	1	5
3	4	2
40	40	12
97	108	6
115	179	2
62	80	2
39	224	2
223	230	2
193	215	1
50	109	1
204	205	3
73	74	2
235	238	1
57	58	12
197	198	8
186	195	4
155	156	1
185	191	2
118	119	5
195	196	1
54	65	2
197	244	2
227	228	1
51	54	2
58	239	3
165	211	1
208	209	10
57	62	2
116	157	2
94	95	2
6	26	1
175	177	1
248	249	1
183	187	3
191	211	2
179	192	7
182	214	1
171	245	1
100	101	3
208	211	4
34	35	5
168	170	8
52	53	2
77	78	4
78	102	1
241	243	2
199	243	2
15	16	2
236	240	2
80	82	4
107	107	7
213	216	7
222	224	2
175	190	1
4	34	1
214	219	2
145	150	3
61	63	1
229	233	2
144	205	1
149	149	2
82	89	1
49	60	2
111	245	1
55	63	1
42	153	5
151	156	1
50	65	1
158	167	1
151	153	1
80	81	2
106	106	13
205	206	1
231	231	10
62	63	6
212	214	2
234	235	4
66	77	4
172	180	1
87	89	2
69	71	3
160	188	2
41	43	4
212	213	6
189	192	1
215	220	1
177	192	3
27	28	1
75	100	4
187	189	2
41	89	1
179	181	1
86	102	1
38	224	2
53	54	5
162	177	1
207	208	1
60	76	1
205	210	2
21	225	2
80	80	5
182	187	2
10	11	2
4	12	1
154	156	2
199	204	1
151	152	4
97	157	1
38	39	6
68	221	2
204	206	2
20	226	4
62	64	1
165	192	2
41	87	1
86	86	6
183	248	3
182	183	6
92	193	1
70	72	2
75	101	2
207	221	1
213	246	2
228	230	4
37	224	1
46	48	2
218	220	1
32	36	1
30	31	1
61	167	1
11	34	1
54	58	1
4	5	2
103	104	2
3	6	1
89	91	1
60	62	1
55	59	1
42	155	3
30	38	3
230	232	2
234	237	1
1	2	2
160	208	1
117	120	2
10	55	3
75	77	3
91	96	2
101	104	2
62	166	1
185	187	3
107	109	2
50	87	3
60	170	1
65	68	3
215	216	1
6	12	1
94	99	2
104	104	2
11	14	2
184	206	1
161	170	2
238	239	5
59	197	1
43	153	1
160	242	1
88	96	1
26	32	1
17	49	1
1	3	1
176	185	1
163	170	1
33	35	3
100	164	1
8	33	1
114	115	1
198	199	1
19	228	1
197	210	1
214	246	1
29	62	1
108	113	1
152	154	1
165	167	1
190	192	3
230	231	1
25	162	1
8	26	1
77	79	1
238	240	1
64	75	2
1	18	2
16	58	1
17	23	2
61	80	3
199	226	1
92	192	3
219	222	1
51	85	2
199	244	1
223	224	2
235	236	1
39	225	1
175	183	4
76	103	1
119	163	1
18	227	1
195	230	1
67	219	2
42	43	1
17	18	1
112	237	1
172	175	1
32	44	1
212	218	1
159	244	1
3	12	2
193	196	2
119	144	1
229	230	2
233	235	1
167	170	1
201	205	1
98	107	1
30	34	2
52	54	1
25	26	2
14	34	1
163	192	1
2	34	1
174	176	1
171	173	1
118	162	1
2	12	2
14	18	1
89	92	3
91	93	1
83	86	1
158	178	1
37	39	1
32	45	1
5	14	1
240	248	1
86	96	2
108	109	2
166	168	1
207	210	1
74	75	1
156	157	1
34	36	2
62	83	1
13	19	1
233	234	1
111	116	1
235	243	1
146	165	1
66	67	1
160	185	1
26	33	1
98	106	1
111	114	1
164	168	1
33	78	1
200	226	1
6	11	1
159	167	2
144	144	1
59	169	1
45	235	1
158	189	1
16	17	1
6	33	1
202	225	1
148	156	1
196	198	1
14	35	1
