79	80	6
55	72	1
87	87	4
115	152	4
26	26	6
51	52	5
25	25	5
21	21	6
113	113	2
97	118	1
78	78	7
32	34	8
11	12	5
70	71	2
110	115	2
23	23	2
135	135	6
124	127	1
30	36	1
34	34	8
83	83	7
99	99	16
77	77	10
20	144	4
7	7	10
13	14	6
11	11	7
118	119	7
123	124	1
36	36	6
124	124	9
110	110	12
10	11	1
102	102	8
128	128	8
33	52	4
30	110	3
135	136	5
83	90	1
18	18	3
2	2	11
3	4	5
41	41	9
22	22	4
38	38	2
29	34	1
6	6	11
48	48	7
62	62	2
80	80	10
140	140	9
5	5	9
111	111	8
86	87	8
116	117	3
33	33	6
128	138	2
24	24	5
35	35	11
114	114	3
50	50	6
31	31	4
126	126	9
129	129	17
96	96	6
90	90	5
22	144	6
92	92	11
52	52	14
0	1	3
122	122	8
82	83	2
113	119	10
104	104	9
4	4	6
1	1	6
127	143	1
92	93	1
0	0	2
126	127	3
80	81	3
150	150	5
149	149	7
101	101	10
116	116	16
67	67	10
135	137	2
142	142	9
23	24	4
107	107	8
134	134	9
145	146	1
28	28	4
118	118	10
22	23	9
113	114	4
42	51	1
94	94	1
115	115	17
111	112	9
95	95	6
25	34	1
32	33	1
156	156	10
42	43	2
124	152	5
14	14	2
3	3	8
11	146	2
22	34	3
2	4	2
115	123	3
88	90	6
151	155	2
7	8	5
51	51	11
137	138	2
121	121	4
152	152	1
145	154	2
120	120	5
66	68	1
107	108	1
114	123	2
92	106	1
35	38	2
88	89	2
85	85	3
142	143	2
88	88	8
63	63	2
98	98	13
146	146	1
70	70	6
76	77	1
132	133	6
148	148	4
127	155	2
36	37	3
84	84	6
127	142	1
143	143	4
119	119	3
52	67	2
125	125	14
127	127	6
39	39	1
77	79	3
10	12	2
158	158	4
1	2	1
155	155	8
89	89	4
87	97	2
23	37	1
108	109	4
157	158	5
134	135	3
54	54	5
31	34	4
40	42	3
127	151	4
93	95	2
141	141	2
31	90	3
129	133	1
143	148	3
29	29	2
86	86	3
71	71	11
41	43	1
42	42	8
15	15	6
46	46	5
157	157	6
18	19	2
32	42	3
65	67	2
37	37	4
125	126	1
45	45	5
112	112	7
43	43	6
65	65	2
72	72	5
8	21	2
137	137	1
27	29	3
4	5	1
97	97	7
120	121	5
124	153	1
100	100	6
138	156	1
136	136	4
13	15	1
86	95	1
81	86	2
117	117	3
138	138	2
138	139	7
9	14	3
133	133	3
130	130	3
85	97	3
30	30	7
16	16	2
17	17	1
86	96	1
104	105	3
27	27	6
54	55	1
147	147	6
132	132	5
150	151	1
108	108	4
64	64	6
26	29	3
74	75	3
9	10	2
103	103	6
46	47	1
116	126	1
151	151	2
87	89	1
144	146	1
95	96	3
40	40	4
28	29	1
137	139	1
54	66	1
73	73	6
33	35	3
33	34	1
109	110	2
76	76	4
153	154	1
144	144	3
68	68	4
142	157	1
137	147	3
24	43	1
81	81	2
107	115	1
41	42	1
94	127	2
139	139	2
96	103	2
132	135	1
38	39	4
91	91	2
29	30	2
25	27	2
119	120	5
53	53	3
124	125	1
115	116	2
69	69	1
12	13	1
67	71	1
131	131	2
48	49	1
110	151	3
11	13	1
52	54	1
159	159	1
8	9	2
32	32	2
66	66	2
106	106	4
133	134	1
141	157	1
83	85	2
81	82	1
75	75	4
67	68	1
78	79	2
12	12	3
64	67	3
52	53	3
19	19	1
90	91	2
56	65	3
51	104	1
123	123	4
68	69	3
94	95	1
37	38	1
55	55	3
68	71	1
30	40	2
93	97	1
117	119	1
47	47	1
26	43	1
97	98	1
53	54	1
152	155	1
109	112	1
147	148	1
140	141	1
96	97	3
25	26	2
106	107	1
3	26	1
79	79	2
142	148	1
99	100	2
66	67	1
128	150	3
90	107	1
32	54	1
35	36	1
43	92	1
112	140	1
114	115	1
116	123	1
109	109	1
44	45	1
112	145	1
7	138	1
4	39	1
131	132	1
113	141	2
27	33	1
57	57	1
107	110	1
110	111	1
93	93	2
20	156	1
82	82	2
80	92	1
