92	92	16
47	47	4
19	19	7
62	62	5
90	90	9
77	81	1
3	3	7
98	99	2
80	82	2
21	21	5
28	29	7
55	55	6
80	80	4
11	11	4
79	79	7
8	8	13
41	41	6
114	114	4
44	45	11
58	59	11
45	45	11
51	123	5
57	58	3
106	107	1
15	15	8
66	66	1
52	52	11
43	43	9
58	58	5
40	41	5
57	57	8
77	78	2
98	98	6
63	63	1
68	102	2
50	50	15
84	84	2
97	98	6
40	125	3
40	40	14
127	127	3
104	104	13
82	82	5
130	130	6
14	14	8
63	120	2
93	93	1
124	124	3
51	52	3
53	53	8
76	76	3
117	117	12
70	71	4
24	24	12
17	17	2
111	111	10
121	121	6
26	26	5
67	78	2
112	112	8
20	85	2
72	72	9
102	118	2
123	123	3
69	70	2
53	64	1
4	4	5
10	11	4
20	20	6
18	18	7
17	18	2
126	126	7
21	42	2
93	112	3
16	16	7
8	87	2
11	83	4
99	99	17
19	71	3
18	126	1
6	26	3
64	64	7
67	108	3
85	89	1
47	75	3
5	5	5
119	119	7
113	113	8
105	106	9
39	39	6
77	77	2
67	127	3
38	40	3
55	67	5
62	63	4
105	105	8
16	22	2
52	53	4
16	17	10
56	112	4
67	67	2
94	106	2
44	64	3
61	63	2
106	106	4
91	91	5
90	95	1
63	64	4
99	101	1
82	96	2
29	29	13
13	13	5
68	101	5
39	40	6
89	89	2
117	132	2
56	56	3
115	121	1
28	28	1
103	103	2
75	76	4
32	32	8
59	118	3
12	12	5
116	116	1
86	88	3
100	101	4
3	4	3
25	40	4
86	86	4
68	68	13
14	15	5
65	66	3
27	27	4
94	94	3
95	95	1
63	95	2
13	14	6
42	100	6
18	19	4
23	23	5
117	131	4
34	133	1
31	31	2
110	110	6
113	114	1
78	78	6
9	53	1
128	129	3
59	59	3
51	51	3
44	44	8
11	23	2
101	104	3
96	96	4
102	102	5
84	85	1
2	3	1
67	129	3
87	87	2
33	43	1
49	50	1
54	116	2
9	28	1
108	108	2
25	25	6
44	46	1
73	73	2
131	131	3
77	79	5
128	128	6
122	122	2
109	110	3
20	21	3
126	127	3
9	93	1
1	1	6
83	83	2
42	42	3
6	6	8
105	125	1
40	42	2
16	18	5
121	125	2
2	6	2
47	106	1
10	82	1
73	79	1
81	81	3
41	101	1
110	111	1
120	120	5
79	101	2
16	60	4
53	54	5
41	65	3
129	129	5
27	28	3
71	108	1
65	65	3
90	93	1
64	66	2
58	125	1
19	20	3
41	130	2
75	75	1
72	116	2
55	66	2
42	43	2
123	124	4
48	111	1
85	85	10
54	54	4
8	115	2
125	132	1
30	31	1
81	103	1
88	88	2
100	100	4
0	114	2
82	103	3
59	60	1
77	118	2
83	87	2
43	130	1
22	22	2
69	69	5
6	7	1
48	48	2
95	105	1
66	72	2
67	103	3
88	89	3
11	22	6
1	2	1
6	114	1
11	21	1
9	10	3
116	117	3
97	97	3
71	115	1
80	118	3
24	46	4
125	125	1
131	132	2
56	98	1
107	107	5
9	9	4
54	120	2
49	49	3
101	102	1
33	33	3
80	85	1
109	109	2
44	102	1
118	118	2
127	128	1
74	75	1
90	130	1
9	31	1
26	39	1
32	72	2
30	30	1
125	129	1
94	95	1
4	111	1
101	101	4
132	132	1
55	56	2
46	48	1
2	107	1
61	62	1
70	117	3
122	125	1
17	126	1
29	34	1
74	74	2
33	84	1
46	46	4
98	103	1
70	70	1
56	65	1
78	79	2
26	113	1
99	100	1
110	123	1
89	107	1
31	39	1
127	130	1
69	116	1
10	10	1
61	61	3
38	38	1
17	23	1
69	123	1
16	19	1
32	63	1
91	92	1
31	76	1
24	31	1
