29	85	4
67	68	3
132	132	4
17	17	6
54	55	7
138	140	1
163	164	6
46	46	8
175	176	1
88	88	7
25	25	10
18	18	6
133	133	4
68	68	8
59	59	2
51	51	4
30	30	5
27	29	1
166	166	6
87	87	11
58	58	6
155	155	16
116	139	2
71	72	4
183	183	6
21	21	5
147	147	7
57	57	6
53	53	2
137	191	3
157	157	1
169	169	9
111	138	2
146	157	4
19	24	1
39	39	3
43	43	17
136	150	1
164	164	15
45	45	3
0	1	7
152	153	4
107	107	4
178	178	6
119	176	2
85	86	1
64	64	2
42	42	5
139	139	2
134	135	3
153	153	16
179	179	8
5	5	11
159	159	15
1	3	4
36	36	18
135	135	6
6	17	2
13	13	5
178	182	2
170	170	5
25	79	1
3	3	14
26	38	2
119	120	2
192	192	10
102	102	3
126	127	5
135	136	5
7	7	3
30	31	10
68	90	2
3	81	4
49	49	4
131	131	4
146	146	13
24	24	5
54	54	9
134	134	8
19	23	1
63	63	10
145	156	7
108	108	3
162	162	6
47	47	10
98	99	1
42	45	2
142	142	1
43	100	6
146	151	3
22	27	1
136	136	1
113	113	6
56	56	2
105	106	7
131	140	2
8	8	4
116	117	11
185	185	10
118	147	2
73	73	3
138	138	8
170	172	7
145	155	1
20	20	10
140	140	9
168	169	3
103	104	5
50	57	3
177	179	7
161	161	5
174	187	1
25	38	1
147	159	2
10	11	3
155	156	5
152	152	5
44	44	5
38	38	8
186	187	2
70	70	6
173	175	3
154	158	3
56	75	3
61	61	2
39	72	2
143	143	3
10	10	6
165	165	7
55	63	2
128	128	8
55	55	4
28	79	1
96	96	3
80	86	1
3	4	5
185	192	4
48	48	6
149	149	7
172	189	1
130	132	2
171	171	8
167	167	9
193	193	13
29	81	2
2	66	3
147	148	2
100	100	6
177	177	6
175	187	1
180	180	1
85	85	2
120	135	5
28	192	1
15	20	1
146	155	1
6	7	2
30	32	1
111	111	6
57	58	6
121	121	6
192	195	2
172	172	9
70	71	1
16	16	4
76	76	6
93	93	6
20	38	5
58	62	2
34	34	9
82	82	4
15	16	3
12	12	4
156	190	2
174	179	2
11	11	4
151	151	8
196	196	6
105	105	4
37	37	8
35	36	2
118	143	1
150	150	3
74	74	2
156	156	10
43	44	3
130	131	3
4	75	1
28	29	3
101	101	13
114	115	2
112	112	4
40	74	2
43	86	1
115	115	8
4	4	7
72	73	2
144	157	3
176	176	8
26	34	1
113	150	1
74	75	3
113	149	2
9	9	11
97	100	3
86	86	3
10	13	6
83	83	8
187	188	1
130	130	3
2	36	2
44	45	2
66	70	2
141	141	13
169	171	3
24	25	2
138	139	1
29	31	3
45	88	3
123	123	5
168	170	5
2	2	11
176	180	4
29	30	1
108	118	2
31	32	2
104	104	5
35	35	5
17	34	3
186	186	3
34	35	3
138	149	1
18	19	1
183	189	3
139	148	1
53	80	1
168	168	8
2	3	2
120	120	11
174	174	3
143	156	1
174	175	3
146	147	2
5	20	2
160	160	8
160	161	2
41	41	1
183	191	4
194	194	4
188	189	1
35	40	1
117	117	5
62	62	4
29	83	2
181	182	7
187	187	5
33	38	3
80	80	2
120	121	1
33	33	5
95	96	4
118	144	4
181	181	9
46	48	1
1	1	6
19	21	1
101	150	2
50	50	2
192	193	1
42	44	2
127	128	6
186	188	3
1	29	1
175	175	6
8	9	2
4	98	2
118	118	3
28	28	15
35	37	3
144	145	4
31	31	5
36	37	3
143	192	1
177	178	11
108	138	2
69	69	1
182	182	4
30	81	4
174	176	1
56	87	1
14	14	7
55	90	2
121	122	1
154	157	1
19	19	3
25	29	1
179	180	3
32	187	1
3	35	2
176	177	7
107	115	2
189	189	9
16	21	2
119	119	2
163	165	2
184	184	9
3	19	5
191	191	3
42	43	2
178	179	1
165	167	4
195	195	7
145	150	2
163	163	4
137	137	6
23	23	1
132	180	2
40	41	1
145	154	1
128	161	3
59	62	1
162	173	1
39	40	7
111	112	1
71	71	1
97	99	2
162	186	1
78	79	3
165	166	3
6	8	4
76	80	1
79	79	4
63	64	1
163	194	2
138	148	2
4	41	2
94	95	5
134	146	1
124	124	3
122	122	5
163	186	1
190	190	4
116	116	2
159	191	2
130	133	1
11	47	2
0	75	2
40	40	6
147	151	1
157	158	3
34	36	4
32	33	2
89	89	1
35	191	1
141	193	3
101	112	2
6	6	3
38	42	5
163	170	1
100	108	2
150	152	1
22	28	1
32	32	6
127	188	1
2	65	3
129	129	3
95	95	2
75	75	2
148	161	6
154	185	1
166	168	2
159	160	2
180	182	4
187	189	2
49	52	1
38	39	1
12	24	2
197	197	3
42	101	1
58	60	1
53	88	1
29	191	3
84	84	1
160	189	1
19	31	2
145	145	3
154	154	7
39	74	2
81	85	3
0	2	1
193	194	4
118	161	2
25	33	2
137	156	1
52	52	2
55	56	2
4	101	2
102	142	1
99	99	5
15	15	1
103	105	1
2	4	5
192	194	1
176	178	4
109	140	1
127	127	4
135	148	1
136	181	1
114	114	2
110	110	5
148	148	6
22	36	1
112	113	1
153	154	3
182	190	1
67	67	1
43	80	3
148	160	2
53	56	1
27	28	3
1	2	1
77	78	2
107	117	1
66	66	1
4	5	1
109	111	1
171	172	2
145	146	3
18	37	1
119	181	1
80	81	1
119	128	2
144	146	2
33	147	1
161	163	2
10	14	1
60	74	2
119	167	2
99	142	2
109	139	1
88	89	1
110	132	2
107	118	2
20	75	1
139	140	1
167	168	1
97	97	5
183	184	1
170	171	2
28	81	1
173	174	1
143	145	1
104	106	2
163	167	3
122	123	2
188	190	1
160	162	1
108	140	2
125	126	3
93	95	1
137	142	2
54	56	1
15	37	1
89	90	1
135	167	1
195	196	2
8	41	1
1	4	1
19	22	1
118	139	1
2	18	1
152	154	1
145	158	1
35	41	1
76	86	1
12	14	2
116	146	1
105	134	1
45	89	1
103	103	3
75	76	2
113	114	1
103	130	1
100	101	1
174	177	2
188	188	2
98	98	1
132	136	1
132	184	1
153	156	1
3	73	2
53	54	2
93	168	1
162	163	2
44	148	1
143	148	2
135	165	1
62	63	1
73	88	1
136	167	1
111	114	1
139	192	1
108	109	1
144	161	1
22	22	2
148	156	1
180	181	1
143	154	1
144	144	1
126	126	1
131	132	1
65	66	2
151	179	1
76	85	1
146	159	1
104	105	2
106	107	1
106	106	1
34	76	1
118	163	1
141	142	1
184	186	1
123	152	1
140	159	2
134	145	1
99	178	1
87	88	1
0	0	1
9	11	1
113	115	2
76	77	1
189	190	1
26	27	2
186	194	1
90	154	1
122	194	1
158	158	1
134	153	1
133	183	1
129	182	1
26	26	1
171	175	1
72	72	1
0	27	1
78	78	1
17	31	1
17	18	1
