20	41	2
82	82	4
95	114	4
57	57	7
11	12	4
28	28	6
80	80	4
9	9	5
34	35	3
4	4	8
141	142	4
87	87	3
31	32	4
73	73	7
27	30	3
23	23	4
12	12	4
80	84	3
131	131	2
154	154	3
99	100	2
132	132	5
24	25	2
135	135	1
107	110	1
58	65	3
126	133	2
22	28	1
118	131	2
68	70	2
141	141	4
24	28	1
129	129	3
96	96	10
17	18	8
15	24	1
55	55	8
33	33	10
38	39	1
112	113	4
8	8	9
50	51	3
3	5	3
68	78	2
81	84	2
124	125	1
42	50	1
149	149	1
68	71	1
62	62	6
42	43	2
51	56	2
31	31	6
20	21	7
29	30	3
63	64	4
24	24	11
32	32	3
75	95	2
129	154	3
14	15	1
22	22	8
36	36	5
47	56	2
102	105	2
40	46	4
62	65	1
18	18	5
152	152	2
32	34	2
86	86	2
8	30	3
40	54	2
26	62	1
56	56	2
35	36	11
134	134	3
63	63	4
81	100	1
54	54	3
14	51	2
48	49	3
108	128	1
109	109	4
17	36	2
90	92	3
19	19	6
117	118	1
48	48	2
123	123	4
47	57	1
26	26	1
38	42	2
10	33	2
65	75	1
94	95	3
78	78	1
72	72	3
112	112	5
3	6	2
52	52	1
116	116	3
65	78	1
97	97	3
111	113	2
66	66	2
48	53	2
99	123	1
66	67	1
93	98	3
13	64	2
36	37	1
53	53	5
93	93	5
41	43	1
133	149	2
65	68	4
30	38	1
122	138	1
29	29	5
79	80	2
37	37	4
81	81	5
83	83	9
124	124	4
16	16	1
21	43	3
67	67	1
151	151	3
40	41	3
2	3	2
46	46	7
42	55	2
77	77	2
11	32	4
116	117	3
6	8	1
79	79	2
67	68	6
73	76	4
101	105	2
50	68	2
35	35	4
44	45	2
27	28	2
40	43	1
20	20	3
120	121	1
11	50	1
103	108	1
6	6	4
16	37	1
38	38	1
106	106	1
101	104	2
11	22	1
136	136	3
152	154	2
82	87	2
115	127	2
95	97	2
85	87	1
34	34	2
40	44	1
16	49	1
98	98	3
14	26	1
84	84	1
64	66	2
76	76	1
64	65	5
57	65	2
23	34	4
41	50	4
28	39	1
40	50	1
7	20	1
14	50	2
146	146	2
50	53	1
18	19	1
40	57	1
34	36	1
120	120	1
44	44	2
34	43	1
71	71	3
47	47	5
66	81	1
137	137	2
27	31	1
25	25	3
53	54	1
78	79	4
9	18	1
130	132	2
14	58	1
57	67	3
33	34	1
26	33	2
28	30	1
43	44	2
18	53	1
119	119	2
3	4	1
126	127	4
5	5	1
140	140	1
90	108	1
139	140	1
130	151	1
16	35	2
108	108	2
9	10	2
91	91	1
13	13	2
153	154	1
97	99	1
25	28	3
64	64	2
34	37	1
21	21	2
90	93	3
143	143	2
10	10	2
109	111	1
4	5	2
41	42	1
33	42	1
24	44	1
117	117	1
40	40	2
2	2	3
94	94	1
64	99	1
49	55	1
70	70	2
75	76	2
13	63	1
114	114	1
5	6	1
131	132	1
50	50	2
82	93	1
132	140	1
124	128	1
14	27	1
122	146	1
114	126	1
30	30	1
22	26	1
45	46	1
8	19	1
72	73	1
51	54	1
82	95	1
6	7	1
68	69	1
138	139	1
115	116	1
86	87	1
105	111	1
40	53	1
37	42	1
