50	50	12
10	11	2
62	62	14
72	73	3
88	88	12
134	134	39
44	45	9
61	61	11
126	127	10
127	128	1
43	43	16
30	44	1
59	59	19
32	32	12
79	79	11
101	101	34
129	129	10
93	94	6
102	103	15
82	85	4
114	116	4
6	6	15
76	77	6
48	48	4
111	112	5
66	67	5
2	35	2
96	96	18
102	102	13
27	28	11
130	131	6
3	4	12
105	105	22
116	119	1
33	34	5
60	60	13
20	24	1
63	64	2
1	1	16
67	67	15
111	111	13
74	74	11
131	131	4
15	15	24
132	132	4
24	68	1
43	44	5
100	101	2
121	121	11
113	113	12
71	80	5
44	44	10
96	97	13
24	26	1
2	2	6
82	82	15
127	127	21
95	95	21
69	69	10
93	97	4
93	93	13
128	129	15
25	35	2
24	56	2
89	89	6
125	125	8
22	22	6
130	130	8
68	69	8
112	112	14
106	110	4
63	63	13
71	72	5
77	77	17
86	86	6
99	101	5
87	87	17
42	42	8
65	65	17
58	59	7
55	57	3
53	54	5
27	27	7
108	109	4
57	57	10
18	19	3
45	46	5
101	102	19
73	73	18
123	123	25
97	97	21
83	83	3
80	104	4
100	111	4
98	98	15
45	45	7
102	105	3
53	53	36
4	4	13
107	107	12
13	13	9
98	106	3
1	35	6
45	47	2
121	122	9
83	85	1
65	67	4
128	128	7
106	107	7
52	52	11
81	81	9
92	92	13
97	126	1
75	76	4
33	33	4
14	15	9
105	106	3
99	99	9
37	37	6
102	108	1
120	120	17
0	0	4
104	105	4
72	72	6
22	25	1
100	100	16
54	55	1
14	14	9
98	99	1
70	70	11
71	71	11
25	25	8
106	106	10
82	84	3
66	66	17
95	96	2
35	36	1
99	100	2
0	1	1
90	90	15
116	116	15
5	5	14
104	104	23
21	21	3
35	35	9
71	73	7
112	113	3
99	103	3
92	94	9
24	96	2
3	3	11
78	78	16
122	123	4
92	93	7
15	56	4
23	23	18
63	69	3
4	5	4
54	62	7
68	78	1
54	54	5
63	85	4
97	98	6
18	20	3
73	76	1
13	59	3
16	17	3
117	117	11
100	129	1
80	80	6
115	115	13
129	132	4
71	79	3
7	7	2
130	133	2
13	15	1
110	110	3
34	34	11
117	122	2
56	56	7
11	11	11
20	20	3
116	117	3
12	12	7
70	71	3
66	68	4
135	135	7
63	65	2
69	70	3
52	53	2
14	32	1
62	63	4
50	120	1
125	126	6
64	64	5
130	132	6
2	3	6
16	16	6
93	105	2
122	122	12
29	29	6
38	38	7
119	122	1
31	31	11
49	69	3
96	98	2
6	7	5
71	77	1
67	68	7
57	59	2
23	24	7
114	127	1
67	69	2
90	91	9
13	14	4
47	47	12
108	111	2
118	118	9
80	87	4
77	78	3
78	84	2
7	8	2
62	65	2
25	26	3
86	87	4
126	126	6
133	133	12
103	104	11
52	54	2
13	18	4
29	30	5
113	129	3
115	116	7
36	36	8
95	100	3
10	10	5
113	115	2
114	114	10
112	115	1
94	94	14
76	76	9
119	119	12
117	118	1
73	74	5
46	52	3
8	15	3
91	91	8
119	120	7
14	16	1
103	112	3
32	35	3
15	59	1
97	101	1
70	73	1
75	75	10
120	122	6
116	121	3
1	7	3
25	44	2
12	94	1
78	79	1
85	112	1
85	87	1
8	8	4
19	20	4
22	96	1
25	27	2
65	69	2
42	45	1
110	112	2
30	30	11
56	60	2
99	102	1
68	68	10
126	128	4
79	88	1
18	88	2
55	55	1
74	83	2
30	31	10
5	6	1
14	88	3
127	129	2
10	36	1
57	58	1
18	23	1
17	89	1
85	85	3
75	90	1
62	70	3
113	114	7
34	35	1
18	18	5
127	134	1
19	19	4
110	111	2
12	13	2
115	122	6
91	124	9
103	103	12
4	34	2
53	56	2
51	51	2
81	85	1
121	125	1
70	74	3
61	64	2
101	103	3
122	125	3
83	113	3
108	108	8
78	89	2
107	108	4
129	130	4
120	121	2
22	23	2
49	49	6
9	11	2
11	14	3
61	62	1
89	90	6
64	65	4
81	82	2
112	126	2
62	69	2
38	42	4
60	62	1
131	134	1
123	126	2
15	16	2
103	105	2
28	28	3
132	133	4
24	24	3
60	61	2
131	133	1
23	25	3
90	121	1
82	87	4
9	10	5
12	31	1
1	2	2
91	128	1
60	65	1
11	13	2
21	27	1
7	9	1
98	101	1
32	33	1
66	69	3
27	46	1
91	92	1
44	65	1
56	65	1
84	87	1
22	47	1
88	89	2
31	32	2
80	82	1
11	12	2
2	4	1
55	67	2
111	115	1
24	25	1
17	18	1
90	111	2
16	89	1
78	81	1
63	88	1
77	111	1
60	77	1
105	110	1
124	124	3
121	123	2
98	100	1
33	68	2
92	107	1
124	125	3
82	83	3
56	57	2
6	9	2
60	67	1
70	72	1
26	26	2
14	59	1
109	109	1
124	126	1
118	119	1
86	88	1
13	60	1
50	68	2
133	134	1
91	126	1
96	109	1
0	2	1
80	81	1
106	123	1
33	49	1
53	64	1
18	116	2
52	87	2
5	8	2
28	95	2
123	124	1
106	111	2
14	18	1
3	5	1
67	78	1
114	115	1
55	56	1
32	34	2
77	90	2
111	113	1
71	75	1
26	31	1
109	110	1
106	124	1
74	82	1
14	61	1
65	66	1
92	96	1
49	50	2
131	132	1
79	81	1
74	76	1
9	13	1
116	118	1
62	64	1
22	27	1
100	125	1
90	95	1
79	80	1
81	88	1
42	43	1
24	43	1
53	55	1
133	135	1
33	69	1
69	72	1
