131	131	1
111	111	2
132	133	2
32	32	6
11	67	1
89	89	2
141	141	6
98	110	2
27	38	2
13	13	8
145	145	8
38	38	11
24	28	4
107	107	5
121	121	3
142	142	9
78	78	13
95	97	8
8	9	2
71	71	5
3	3	5
67	139	1
149	150	3
9	9	4
105	127	3
46	46	10
30	31	3
51	94	3
72	73	3
56	56	5
132	132	8
99	107	1
14	15	1
65	68	4
95	98	3
147	147	2
47	47	5
130	134	4
26	26	4
30	30	3
41	41	8
64	64	7
101	105	3
10	10	6
106	107	4
12	15	1
25	29	1
139	139	6
101	102	1
40	40	9
7	7	1
118	118	1
135	135	2
148	148	6
82	82	13
68	68	6
36	37	2
120	129	2
99	99	1
104	105	4
8	8	4
33	33	12
138	138	1
81	81	1
152	152	7
43	92	4
120	130	1
110	121	7
33	34	1
72	72	14
151	154	2
113	113	6
22	22	3
11	13	2
23	23	5
92	115	5
70	70	20
149	149	10
65	65	2
57	57	5
75	75	2
131	132	3
98	98	16
21	21	4
39	40	3
42	43	3
100	110	4
27	29	4
78	141	1
62	62	4
17	32	4
97	111	5
95	95	5
20	20	7
8	41	5
26	27	2
146	146	3
22	23	4
55	55	5
46	96	1
64	78	4
79	79	8
127	128	3
83	83	5
77	94	3
3	42	2
79	83	1
75	123	4
50	50	3
103	103	1
55	56	1
66	66	5
15	16	1
144	145	3
63	64	3
51	51	5
116	116	8
11	72	1
39	50	1
77	78	4
6	26	5
104	127	3
98	111	3
143	143	3
9	10	9
15	15	5
87	87	7
115	116	5
25	25	7
39	39	2
124	126	3
6	6	4
97	98	3
12	12	1
5	7	2
16	24	1
100	101	1
74	75	4
94	96	3
48	48	4
53	53	2
105	106	2
130	130	3
110	110	3
42	42	4
87	136	1
137	137	2
96	96	3
67	70	1
50	58	1
63	68	2
61	63	7
5	6	1
123	126	2
5	5	6
73	73	4
16	16	11
54	56	3
62	63	1
111	112	4
125	148	2
106	106	2
124	124	6
92	117	2
86	86	1
10	11	3
43	43	6
129	135	3
120	120	7
123	123	3
80	81	3
104	104	1
144	146	1
49	49	3
45	45	6
31	31	3
94	95	7
76	76	3
122	122	2
114	114	3
117	117	1
136	136	1
126	128	1
69	69	2
75	84	2
44	46	2
38	49	3
76	89	2
88	90	1
120	121	1
27	43	1
147	152	2
78	82	1
136	137	1
20	32	2
5	30	3
66	67	2
74	74	2
125	126	2
3	70	2
78	86	3
37	37	1
32	33	4
134	134	2
97	99	1
125	125	2
14	16	3
146	148	1
29	29	2
89	90	1
16	31	1
4	4	4
93	94	1
35	35	1
18	20	2
66	74	1
17	17	2
49	52	2
14	64	1
119	119	1
75	88	1
19	19	2
65	74	1
153	153	2
40	41	1
47	95	3
143	144	3
112	112	3
25	26	3
36	36	1
17	30	1
18	23	2
77	123	3
67	67	1
28	29	1
78	79	1
39	55	2
42	49	1
82	88	1
27	32	1
37	48	1
6	7	2
133	134	1
136	139	1
24	33	1
78	81	1
11	11	1
19	28	1
44	44	2
67	69	1
28	28	1
107	114	2
24	25	1
49	97	1
142	146	1
154	154	1
128	128	1
142	143	1
34	34	1
47	50	1
125	135	1
63	65	1
81	82	1
138	152	1
81	83	1
128	129	1
48	49	2
127	127	1
101	101	2
18	18	1
93	95	1
66	69	2
24	24	1
98	99	1
94	94	1
99	102	1
5	11	1
