131	131	7
97	99	11
115	163	4
50	50	8
92	92	6
54	127	5
79	79	8
36	36	6
81	82	8
144	144	1
73	73	2
26	27	8
99	99	12
92	104	2
155	156	5
79	115	1
40	41	4
106	107	5
91	96	6
6	6	4
106	106	17
88	88	7
125	125	5
116	116	6
101	102	8
138	139	4
42	42	6
13	15	4
1	1	12
119	122	2
142	142	3
98	98	13
108	108	13
13	167	2
156	156	4
62	62	6
130	149	1
10	34	2
75	75	8
78	80	2
22	22	4
115	122	5
85	85	14
70	89	3
2	2	3
25	25	7
161	161	8
53	108	9
137	148	3
94	94	10
81	118	2
76	80	3
165	166	2
65	65	9
130	130	5
6	72	1
8	8	5
34	34	6
157	157	4
49	85	7
5	51	2
166	166	1
116	163	2
38	38	7
18	107	3
116	121	1
80	80	10
52	52	2
44	44	5
137	150	3
62	115	4
139	140	2
153	153	3
84	86	1
10	41	2
37	37	3
150	150	8
10	35	8
69	97	3
164	169	1
154	154	4
97	97	5
154	164	1
39	51	4
106	144	1
49	49	5
113	135	1
15	15	3
69	84	1
95	116	2
22	39	3
14	15	1
51	52	2
7	7	8
19	51	2
128	129	2
127	127	1
8	50	5
18	19	6
113	155	3
12	33	3
69	70	9
55	55	3
105	105	8
112	114	2
107	107	4
145	145	2
40	40	4
147	147	1
5	20	2
77	165	1
76	154	1
101	103	1
134	135	2
105	144	1
84	84	11
3	4	2
117	118	3
148	148	8
139	139	5
51	51	4
132	132	2
24	24	6
5	24	3
14	14	9
45	45	6
27	40	1
135	135	1
67	73	1
108	111	3
10	28	2
18	50	1
12	44	2
79	80	9
111	149	1
161	165	3
158	158	5
152	152	4
4	49	2
27	27	3
96	148	1
93	94	5
108	109	2
124	151	2
20	39	6
143	143	2
117	117	7
42	43	3
160	160	10
113	114	2
9	28	3
133	133	3
163	164	2
71	71	7
5	6	1
104	104	3
118	119	2
62	63	2
111	111	8
0	0	2
117	121	3
81	81	8
8	9	2
115	116	1
63	64	1
39	39	3
121	122	2
52	53	2
165	165	3
41	42	1
53	53	3
146	146	5
148	152	2
67	67	1
48	58	1
89	89	2
2	66	3
123	125	2
68	69	4
26	26	4
111	116	1
58	58	1
4	4	9
162	162	7
140	140	7
11	11	10
43	44	5
64	64	2
168	168	2
20	21	7
109	109	12
78	163	2
121	121	3
81	84	5
98	99	5
63	70	1
10	45	2
119	119	2
91	92	3
97	145	1
73	74	2
16	39	2
137	145	3
122	122	3
86	86	2
76	100	2
9	9	7
145	148	7
102	103	2
90	90	7
140	147	1
17	17	5
74	74	2
20	20	6
37	53	2
13	13	3
164	164	3
34	35	1
12	52	3
53	56	2
120	129	1
93	93	2
157	160	2
151	151	3
103	104	2
91	93	1
96	96	7
129	133	1
103	103	3
12	35	2
90	91	2
78	124	3
116	122	3
23	23	3
47	47	1
135	136	4
117	151	5
2	53	3
120	120	3
16	40	1
4	51	1
104	105	1
112	112	4
56	56	4
137	137	2
138	143	1
124	153	1
54	54	1
114	114	1
7	8	2
87	88	4
76	162	1
89	96	2
117	147	3
156	159	1
1	2	2
115	132	1
67	68	2
117	119	1
8	11	2
19	19	3
45	46	3
156	157	2
5	13	2
115	115	1
123	129	1
23	24	2
41	41	2
20	22	2
91	91	2
100	161	1
89	90	2
68	68	1
15	19	2
48	50	1
5	40	1
34	166	4
105	107	1
82	116	1
124	124	1
50	51	2
16	17	1
130	133	1
94	104	1
70	70	5
15	47	1
101	104	1
91	94	2
138	138	5
110	110	4
1	53	1
158	159	1
63	63	1
151	152	2
64	81	2
87	87	2
46	46	3
18	24	3
11	12	2
76	76	2
63	74	1
15	16	1
12	40	1
27	41	1
81	89	1
27	28	1
67	99	1
82	82	2
14	41	2
48	49	4
68	70	1
33	35	3
44	46	1
75	111	1
48	48	2
80	153	1
11	80	1
134	134	1
104	156	2
113	113	2
22	72	2
35	35	4
100	103	2
70	72	1
53	55	1
43	43	2
18	20	2
0	13	1
99	145	1
122	123	1
96	97	1
3	3	1
77	77	1
137	138	1
14	16	1
79	122	2
33	33	2
18	18	2
41	97	1
56	57	2
84	85	1
2	100	1
49	50	1
150	152	1
155	155	1
0	1	3
168	170	1
128	161	2
145	152	1
88	89	1
111	170	1
72	148	1
106	157	2
0	14	1
77	78	1
89	131	2
16	18	1
58	86	1
4	52	1
118	148	1
9	10	1
100	100	1
4	7	1
149	149	1
78	78	1
