25	25	1
115	126	1
122	122	4
73	73	4
82	82	1
91	91	11
70	71	2
84	86	1
76	76	6
172	172	4
89	89	5
125	125	7
181	182	2
88	93	2
177	178	2
109	110	4
118	118	4
176	176	6
6	6	2
47	48	3
16	18	4
104	104	5
19	19	4
13	13	1
78	78	6
70	70	2
17	37	3
90	109	4
187	188	9
69	69	2
47	47	5
156	163	2
90	93	2
112	120	1
66	66	9
155	162	1
41	41	4
7	8	2
138	139	3
28	28	2
64	64	1
92	93	3
24	24	4
55	56	3
155	173	2
111	121	5
116	116	4
107	107	6
89	95	3
74	75	4
42	48	3
130	133	1
156	156	1
139	139	3
100	103	5
46	64	1
65	65	4
83	83	4
58	64	2
112	112	2
71	72	2
68	69	1
170	170	3
44	46	7
72	72	2
55	62	2
189	190	2
95	95	2
138	146	2
130	131	5
44	48	3
63	63	3
177	177	5
11	12	3
30	31	5
157	181	3
178	179	1
46	62	4
125	127	2
162	162	2
111	112	5
106	106	3
53	54	1
27	28	1
15	18	1
71	71	3
9	9	5
183	188	1
158	164	1
87	87	2
37	38	3
165	165	1
15	15	1
179	179	2
92	92	3
149	150	1
82	83	3
64	65	5
103	103	2
59	60	1
131	131	3
180	180	1
137	145	3
101	103	1
4	4	2
171	173	1
130	130	2
56	56	1
57	57	4
105	105	1
101	109	1
79	79	2
186	186	1
68	68	5
154	154	2
179	180	1
80	80	1
67	77	2
145	148	1
120	120	1
152	152	1
118	119	2
149	174	1
174	175	2
172	174	1
93	93	3
58	59	1
5	17	3
138	138	3
97	99	1
3	3	3
86	86	1
55	55	3
102	123	2
174	174	3
32	32	1
188	188	2
87	94	2
98	98	4
23	24	3
140	140	2
8	8	1
157	158	4
171	171	2
46	46	1
55	58	3
11	11	1
37	37	1
31	84	1
146	160	2
38	38	1
127	127	2
73	99	1
185	185	1
84	93	2
104	106	2
94	94	1
105	106	1
7	7	2
73	112	1
180	190	1
161	162	2
79	80	1
44	47	2
164	165	1
118	173	1
74	74	2
133	137	1
104	105	2
58	61	1
76	79	1
135	135	1
147	148	1
114	139	2
155	176	2
165	171	1
20	20	1
89	90	2
29	29	1
124	127	1
42	77	1
135	156	2
32	34	1
109	109	1
96	96	1
189	189	1
85	85	2
152	153	1
108	108	1
62	62	1
150	150	1
46	47	2
40	40	1
156	166	1
123	123	1
115	116	1
152	168	1
164	176	1
