38	38	14
73	73	30
16	16	26
131	131	8
58	58	11
129	129	15
62	72	2
26	26	45
97	97	28
19	19	24
13	13	16
46	46	36
73	74	18
6	83	1
112	112	24
81	101	3
34	34	35
23	24	7
21	21	25
67	67	16
111	111	17
7	7	20
28	59	4
67	68	4
88	88	10
4	5	8
7	8	8
23	23	9
93	93	32
76	76	27
28	28	25
41	42	11
31	31	21
85	89	1
9	10	12
48	91	1
103	129	7
0	0	9
10	13	11
45	61	2
94	94	33
3	3	16
85	87	7
2	121	1
87	88	7
12	12	34
42	42	26
32	78	1
4	38	4
47	47	33
26	82	2
44	44	23
56	56	11
65	65	37
37	39	9
11	11	14
103	105	5
72	73	10
29	96	1
62	62	19
118	118	21
31	82	1
69	70	14
76	77	7
5	6	18
96	123	1
4	128	4
113	113	8
30	31	14
128	129	12
91	92	17
27	27	44
117	122	1
60	60	20
83	84	5
6	48	5
55	55	13
86	94	6
63	63	22
36	37	6
68	68	39
45	45	29
107	108	5
5	5	25
113	115	1
30	30	22
28	29	7
26	27	15
90	90	14
24	93	1
66	74	1
61	88	3
29	93	1
17	25	4
89	89	9
95	95	28
10	20	1
22	26	3
99	99	14
4	92	2
57	57	26
14	15	1
39	39	27
119	119	15
84	84	24
70	70	30
101	101	19
12	13	17
117	117	9
7	34	1
64	64	10
40	40	18
87	89	4
26	46	2
61	62	8
56	133	9
28	33	5
83	83	21
4	127	2
1	70	1
93	98	2
130	134	7
16	26	2
76	81	2
74	74	20
25	26	10
116	116	14
80	81	13
126	127	9
130	130	20
41	41	19
98	98	13
31	32	14
43	43	13
72	72	28
45	47	2
27	28	15
94	98	3
104	105	4
75	75	44
22	22	13
18	18	15
57	58	12
134	134	5
20	20	15
117	120	2
25	25	35
45	46	6
69	74	1
6	6	19
89	90	4
58	59	7
32	32	24
42	45	2
97	98	13
12	47	3
30	32	6
13	16	5
107	107	26
79	81	9
23	42	1
103	103	9
11	13	11
37	37	14
102	124	1
29	29	26
90	91	18
71	71	19
127	127	12
59	59	26
48	49	3
99	100	6
131	132	3
58	90	4
87	87	15
80	92	3
109	110	5
92	92	18
24	74	5
124	125	8
112	113	17
34	35	18
77	77	14
96	97	11
36	36	23
87	96	2
14	17	2
100	100	17
97	99	6
60	61	2
40	42	3
1	2	3
5	81	3
99	101	1
18	43	4
9	9	28
111	112	5
10	10	27
78	78	29
19	24	2
38	39	2
8	10	7
125	125	17
22	93	3
35	35	29
91	94	2
78	79	4
80	80	23
82	83	6
43	84	7
22	36	4
123	124	6
16	24	2
89	94	7
32	75	2
114	114	13
6	7	9
35	36	10
27	92	5
72	74	3
10	11	6
48	48	16
29	30	9
33	33	24
100	104	2
11	12	6
28	80	7
94	95	4
108	124	2
56	60	5
82	82	20
103	104	6
50	50	4
120	120	12
123	127	2
27	80	2
81	82	3
28	97	2
69	69	10
115	115	11
123	123	8
105	105	4
14	14	23
8	9	7
8	36	3
19	20	7
4	4	22
126	126	17
23	88	2
66	66	21
6	8	2
91	91	41
79	79	19
122	122	14
61	82	2
119	122	2
46	62	7
20	21	5
121	126	2
92	93	6
100	102	8
40	41	4
8	11	3
24	25	5
29	32	2
15	16	6
132	132	10
8	8	28
13	14	6
95	98	10
71	74	3
89	97	7
2	2	7
25	82	3
107	113	2
49	56	2
81	81	28
16	17	6
65	68	1
39	91	2
62	66	1
63	64	3
90	92	5
121	122	7
17	17	24
102	102	16
32	33	8
25	34	1
63	68	2
130	131	5
23	25	2
5	82	3
63	70	5
125	127	3
86	90	1
49	49	6
24	26	2
85	85	11
20	24	1
124	127	3
133	133	13
63	73	3
77	100	4
106	107	3
4	6	2
112	114	7
81	100	4
109	109	17
68	69	6
61	85	3
22	35	2
1	1	13
113	116	2
36	38	6
30	60	1
66	95	3
125	126	6
10	31	1
28	96	1
121	121	4
64	74	1
14	16	1
46	47	7
45	73	3
45	57	1
35	80	3
4	84	2
128	128	17
106	106	16
29	59	2
86	92	4
21	22	1
59	60	8
131	134	6
102	103	1
79	80	19
54	54	1
111	113	4
0	65	6
15	23	5
110	110	12
96	96	17
39	42	2
35	44	3
11	31	1
80	87	2
43	44	4
38	44	4
86	86	15
120	122	2
2	100	1
24	33	6
3	123	3
24	86	2
110	114	3
84	93	3
27	29	6
105	106	2
28	30	1
26	93	5
3	120	2
11	43	1
117	118	2
26	47	5
32	34	6
18	38	2
77	78	7
109	113	2
15	15	11
5	84	4
11	33	2
113	114	1
88	89	7
46	58	6
14	47	3
127	128	6
31	33	4
109	111	5
75	77	3
120	121	2
28	95	2
66	67	1
113	124	1
66	96	2
40	47	1
27	90	2
3	125	1
94	97	2
85	86	3
32	104	2
24	82	3
21	33	3
15	45	4
124	124	12
58	60	4
61	61	19
24	24	7
66	83	4
62	64	2
101	102	3
62	63	4
27	30	5
67	76	1
40	43	3
22	37	3
114	128	1
107	111	4
100	118	1
80	96	1
48	57	2
7	94	2
75	76	7
108	108	12
61	68	2
40	48	1
17	18	3
4	69	1
24	41	4
88	90	1
31	59	3
60	98	1
102	123	4
74	76	2
11	61	1
94	96	2
96	124	1
64	75	2
18	21	4
116	117	1
74	75	10
79	91	3
33	34	5
115	131	2
78	81	2
26	28	2
122	124	1
37	38	7
104	104	4
83	95	6
11	14	1
4	124	1
12	76	1
60	62	1
36	39	2
27	97	2
57	94	1
18	45	2
95	96	13
65	66	2
98	99	1
28	78	3
25	89	6
97	124	1
107	109	2
2	119	2
26	29	2
93	94	6
68	70	1
131	133	2
90	97	4
102	104	3
13	46	2
22	25	2
32	77	2
9	13	2
9	19	2
31	36	1
79	96	1
133	134	4
121	125	3
4	125	1
15	29	2
26	92	1
47	90	2
25	47	3
48	56	4
24	76	1
27	31	4
81	84	1
62	75	1
16	29	1
80	91	1
65	67	1
33	88	1
17	45	3
1	71	1
23	26	4
17	24	3
84	85	1
56	131	2
88	94	1
112	118	1
2	62	1
115	134	1
4	114	1
61	76	1
43	59	1
35	74	2
120	123	1
6	35	1
3	87	5
86	91	2
75	91	2
11	92	1
26	83	2
60	132	1
29	83	1
17	44	1
36	40	2
57	99	1
46	76	1
91	97	2
64	69	1
122	123	4
28	91	3
132	133	4
8	21	1
96	100	2
33	77	1
93	96	2
47	93	1
27	62	1
18	62	2
29	49	5
89	91	1
26	91	3
61	71	1
48	78	3
24	83	1
30	42	1
33	61	3
2	102	1
100	101	2
98	123	3
15	74	3
46	98	1
16	27	1
38	40	1
27	93	2
21	38	1
55	56	4
11	27	1
8	20	2
96	125	3
74	78	1
125	128	2
32	64	2
5	26	1
40	90	1
29	62	2
67	108	1
39	41	2
118	119	1
71	72	2
129	131	1
93	100	4
44	82	1
29	36	1
56	97	1
70	72	2
35	78	1
6	79	1
20	83	2
33	78	2
27	32	1
8	26	1
27	79	2
22	23	1
47	92	1
18	83	2
63	67	1
67	78	1
74	77	2
32	81	2
21	81	2
48	92	1
20	87	1
29	31	2
9	33	1
110	111	3
44	45	6
67	102	1
98	124	1
60	69	1
84	89	2
98	101	8
108	110	3
71	73	1
10	12	1
20	81	4
51	55	1
116	130	3
50	55	1
6	33	1
20	84	3
51	51	1
21	23	1
12	75	1
2	117	2
17	64	1
60	70	1
77	101	1
86	89	1
29	48	3
46	100	1
45	48	1
2	70	2
5	48	1
20	93	1
2	68	1
130	133	1
14	27	1
121	123	2
105	129	1
30	39	1
14	23	1
20	82	2
95	97	3
49	55	1
70	71	2
62	69	2
3	4	2
34	36	1
110	113	2
19	84	1
13	17	1
15	24	1
47	48	1
40	44	1
67	70	3
21	82	2
46	70	1
12	31	1
2	101	2
90	93	2
33	79	1
86	88	1
129	134	1
28	79	1
43	45	2
39	40	2
22	84	1
63	71	1
109	123	2
111	114	1
65	119	2
101	103	1
3	41	1
5	127	1
11	32	2
35	43	1
27	91	1
21	51	1
38	42	1
34	78	3
21	44	1
35	39	2
75	82	1
41	43	1
89	92	2
83	88	1
93	95	1
6	68	1
56	132	2
108	109	2
69	120	2
3	126	1
20	26	2
25	61	1
57	132	1
38	81	2
6	125	2
62	73	1
119	120	2
32	48	1
12	14	1
47	75	1
21	85	1
16	45	1
12	77	1
64	68	1
30	80	1
38	41	1
96	98	1
6	29	1
20	80	1
3	90	1
112	115	1
33	46	1
40	92	1
108	113	1
109	112	1
