35	37	12
74	74	23
94	94	20
90	90	22
27	28	5
99	101	7
71	71	15
65	65	30
62	62	21
41	41	22
67	67	30
39	71	5
81	81	17
27	27	8
50	50	19
91	100	2
95	95	36
38	40	7
95	96	15
34	41	3
55	55	30
73	73	8
87	87	22
55	102	2
69	70	6
86	87	6
74	76	2
36	62	2
38	38	11
47	80	1
83	86	6
69	69	11
43	43	16
70	70	28
97	97	20
49	78	2
33	33	8
53	53	21
64	74	2
84	89	2
61	61	17
20	27	1
49	50	11
99	99	12
86	88	9
40	41	1
98	99	2
79	94	2
51	69	4
59	91	3
93	94	10
58	60	2
46	46	12
34	35	9
24	26	3
54	101	5
53	87	3
86	86	19
59	59	17
75	75	15
33	38	2
36	36	18
98	98	16
94	96	8
88	88	15
92	92	24
59	60	3
45	50	3
54	54	12
60	62	8
60	86	2
45	45	19
81	97	3
50	51	8
34	34	12
72	72	8
57	70	1
55	56	5
97	102	2
84	84	9
75	76	3
88	89	6
83	84	4
51	51	14
63	63	10
48	48	16
71	72	4
26	27	4
47	48	16
39	39	18
58	58	16
93	100	1
89	89	24
81	83	2
93	97	5
84	98	1
57	57	21
25	26	2
39	77	1
44	52	1
42	42	9
87	88	9
64	64	20
77	77	11
35	35	8
76	77	14
91	91	8
60	60	22
56	56	10
32	33	1
48	80	2
33	35	7
100	100	16
36	39	1
57	61	5
80	80	18
80	81	17
22	23	2
43	44	6
61	62	8
71	82	1
69	84	4
96	97	11
38	39	6
62	63	4
49	49	12
46	47	4
91	92	6
23	28	1
68	68	16
96	98	5
80	85	2
68	70	2
28	28	5
86	91	1
65	66	7
72	73	4
25	25	4
37	38	5
34	40	2
58	59	2
91	97	1
95	97	9
48	52	1
51	100	1
51	52	5
46	48	2
66	66	16
52	55	6
62	79	2
46	95	1
79	80	5
73	74	11
85	85	14
47	47	11
97	98	10
78	79	5
37	37	6
68	69	3
52	52	10
30	30	5
81	82	2
53	54	5
32	32	1
84	94	5
47	76	2
78	78	14
57	74	5
37	51	7
26	26	5
45	73	2
44	44	15
73	75	1
99	100	4
41	42	8
89	90	3
94	95	1
81	89	1
76	76	19
58	61	5
92	98	2
63	64	9
52	88	2
101	101	16
23	27	4
61	63	2
46	77	3
42	44	2
100	101	6
79	79	7
25	27	1
86	89	6
66	67	2
62	67	2
46	82	1
65	70	1
48	49	2
54	55	4
36	37	2
91	101	3
36	61	6
46	93	3
20	25	2
49	51	1
90	91	1
47	81	3
52	70	2
56	57	6
62	81	1
46	53	4
71	75	1
50	78	1
40	40	10
79	87	3
76	78	3
29	31	3
92	95	3
47	82	1
35	39	1
53	97	5
68	91	1
46	69	1
60	79	1
74	75	3
29	29	9
83	83	5
20	20	2
31	32	1
48	81	2
49	101	1
24	25	2
47	53	6
52	53	3
95	100	1
42	43	1
48	50	2
93	93	9
45	72	3
93	98	1
97	100	1
46	49	2
84	100	1
92	94	2
43	60	1
31	31	3
40	75	2
60	61	4
44	45	2
101	102	4
96	96	3
75	78	2
57	58	5
71	79	2
51	95	1
22	22	4
57	59	1
36	38	3
39	45	1
94	101	1
58	89	3
59	75	1
67	68	2
66	69	1
63	89	2
54	60	1
49	69	1
55	57	1
23	23	1
60	63	1
33	36	4
65	68	3
82	83	1
39	40	1
51	56	2
43	73	1
53	86	1
82	82	1
95	98	2
24	27	1
90	92	2
93	99	1
70	85	1
42	50	1
97	101	2
45	48	1
77	78	1
102	102	2
21	22	1
82	89	1
52	79	1
87	97	1
94	98	1
44	68	1
51	96	1
92	96	1
64	65	1
93	95	1
50	96	1
68	71	1
82	98	1
68	78	1
88	92	1
70	71	1
82	84	1
53	94	2
83	91	1
64	72	1
67	69	1
44	49	1
83	87	1
61	80	1
69	71	1
48	53	1
