44	44	54
75	75	15
20	26	7
127	128	6
159	159	4
36	36	16
103	103	9
136	136	19
141	141	15
151	152	5
1	1	21
15	48	2
41	42	3
140	140	26
62	62	3
47	48	24
35	36	7
42	42	18
102	102	13
4	4	18
90	91	11
137	137	15
63	63	4
6	6	17
99	99	25
105	106	2
78	78	11
26	26	14
45	45	30
16	37	6
85	85	14
14	14	13
51	51	15
148	149	7
72	72	14
13	13	8
34	34	9
32	32	5
133	133	7
2	2	27
84	84	8
30	39	5
53	54	3
53	53	14
88	90	6
150	150	30
23	24	14
79	80	9
17	17	41
106	111	1
145	145	11
8	8	17
108	110	7
17	39	8
44	46	6
158	158	22
40	41	5
127	127	13
125	127	5
65	65	4
43	43	32
105	105	18
90	112	5
117	117	21
90	90	18
17	19	3
20	27	5
106	106	28
23	23	14
27	27	15
41	41	15
104	104	20
113	114	11
48	48	32
96	98	2
39	39	12
24	90	2
89	89	7
91	91	7
20	20	18
47	50	3
51	53	6
17	55	4
56	56	16
151	151	24
135	135	11
81	81	16
137	138	2
94	94	18
33	34	5
77	77	3
146	147	13
100	100	20
97	97	9
129	131	4
26	27	4
139	139	25
77	79	4
68	69	4
118	120	2
72	73	1
7	8	7
50	50	14
27	28	3
101	102	2
10	11	4
138	138	22
129	130	14
27	66	2
123	123	27
73	73	30
29	29	9
103	104	13
121	130	4
87	87	30
0	1	10
68	71	4
9	18	7
21	21	9
156	156	18
130	130	19
12	12	3
148	148	17
54	55	7
156	157	2
131	131	50
140	149	3
31	31	13
109	109	8
110	110	15
40	40	7
76	76	7
136	137	9
142	142	9
70	70	6
135	137	4
52	53	3
14	15	2
89	90	6
135	136	10
141	142	1
3	32	2
22	26	5
85	104	1
30	30	22
134	134	7
46	46	15
68	68	14
2	40	3
3	3	10
133	139	3
145	151	2
34	35	5
28	29	14
16	16	16
28	30	5
46	47	7
102	110	4
71	71	8
56	58	4
19	19	8
116	116	20
67	69	5
56	69	2
130	131	3
114	115	5
120	133	1
143	143	5
98	102	1
115	115	3
101	101	31
113	113	6
93	93	14
92	92	15
98	98	39
48	50	3
117	120	10
107	107	11
7	7	21
14	33	4
95	95	10
33	33	17
104	105	3
86	86	9
126	126	25
66	66	6
75	76	2
88	88	14
1	2	9
155	155	12
132	133	6
64	64	13
120	120	9
11	11	11
108	108	12
47	47	17
134	135	5
128	128	25
140	141	11
50	51	5
129	129	17
41	43	4
79	79	6
5	18	13
110	111	6
81	105	2
91	116	7
131	133	4
2	3	9
153	153	9
123	124	8
80	80	15
114	114	16
147	147	8
3	15	5
49	50	2
45	73	1
55	73	1
124	125	1
84	87	1
69	69	7
107	108	7
128	129	2
38	38	17
70	71	1
139	140	5
35	35	2
149	155	1
28	28	18
144	145	13
106	107	3
0	0	8
38	43	1
20	21	4
90	114	2
25	25	7
63	69	3
144	146	7
45	46	5
17	18	4
2	5	4
62	63	4
119	120	6
8	11	4
9	9	11
38	42	1
155	156	4
77	78	8
64	70	4
103	106	3
69	71	11
144	144	2
22	23	7
157	157	8
18	19	6
95	153	2
111	111	6
4	12	2
64	65	4
102	103	1
25	26	5
144	147	2
84	85	5
37	37	12
147	148	5
119	119	5
36	37	2
79	82	1
116	138	5
69	72	2
48	49	7
54	54	11
56	57	3
67	67	13
149	149	5
22	22	6
136	148	1
45	55	7
8	9	11
146	149	2
33	38	1
93	98	1
142	149	5
67	68	6
4	5	9
109	112	2
15	15	5
15	16	4
91	113	2
55	55	24
13	35	3
3	51	2
132	148	3
88	89	7
124	124	7
24	24	18
20	22	4
83	84	4
96	155	2
120	121	1
42	43	7
137	141	2
96	96	4
63	64	1
15	32	1
112	113	3
0	2	3
29	30	6
67	71	2
73	74	2
108	109	2
128	154	2
24	25	2
15	36	3
25	42	2
31	42	4
49	51	1
13	15	3
66	72	1
16	30	3
66	68	3
18	18	9
5	5	11
65	66	4
68	70	1
125	125	5
158	159	2
16	54	4
8	18	1
18	22	1
13	14	5
47	55	2
28	65	4
44	55	5
121	131	1
6	8	1
143	145	2
104	110	3
124	126	7
145	147	2
121	121	11
154	154	7
16	18	3
46	48	4
82	83	4
3	5	5
98	99	3
52	52	7
146	146	3
3	50	1
52	54	3
157	158	3
97	98	2
143	150	1
11	12	6
115	116	8
142	152	2
30	42	1
82	82	5
22	24	4
125	131	2
146	152	2
151	155	3
92	96	2
121	122	3
152	153	5
148	151	1
10	10	14
38	39	2
135	148	1
4	33	2
122	122	3
73	82	2
17	43	1
116	117	2
86	87	6
7	17	1
55	56	4
5	33	1
93	95	2
80	81	5
30	31	1
85	86	3
86	89	3
138	139	1
40	43	2
145	155	2
3	53	2
99	100	3
112	152	1
11	88	4
10	15	1
2	4	1
57	57	3
26	43	5
134	137	1
31	37	2
113	151	1
39	42	2
48	54	2
21	23	1
132	132	1
26	29	1
145	146	3
125	154	1
11	13	4
89	96	3
112	112	4
121	133	1
8	10	2
24	26	2
83	83	6
5	7	2
39	40	1
118	118	4
56	62	2
28	45	5
150	151	1
94	95	1
19	22	2
24	41	2
9	10	1
90	113	1
30	32	4
19	27	2
79	81	1
49	49	3
127	131	2
3	37	2
17	28	1
87	89	2
153	154	2
50	53	1
3	25	1
34	36	1
126	154	1
111	116	3
134	138	1
29	33	2
152	156	2
134	148	3
95	96	1
122	125	1
49	54	1
96	153	3
9	14	2
3	89	1
37	49	2
70	72	3
134	136	3
3	4	1
152	152	2
29	32	1
25	43	1
95	98	1
117	118	2
32	33	1
48	55	1
21	22	1
57	61	1
126	127	1
135	139	1
4	32	1
150	155	2
37	38	1
3	29	2
51	52	2
141	150	2
43	44	2
126	131	2
117	134	2
44	45	3
29	45	2
132	136	2
2	32	1
88	112	2
102	104	2
14	116	1
34	37	1
137	139	1
3	85	1
23	26	1
5	8	1
125	126	1
31	32	1
148	150	1
3	39	1
51	54	1
144	148	1
138	151	1
31	33	1
19	20	1
19	29	1
74	75	1
97	154	1
12	13	1
95	99	1
