179	179	7
102	106	6
155	155	10
73	77	5
79	94	3
42	42	11
78	79	4
6	7	13
149	149	17
101	101	7
81	81	8
44	45	7
1	5	3
18	18	12
175	175	9
24	25	11
146	146	7
27	27	22
10	42	1
3	3	28
35	36	7
4	4	13
82	82	14
109	150	5
38	38	16
71	71	7
19	21	3
73	73	8
8	8	13
50	50	11
141	141	15
9	9	34
15	15	27
129	169	1
66	67	2
43	43	24
105	110	2
139	139	10
19	19	11
82	146	6
132	149	1
8	10	6
158	158	3
2	2	13
162	162	9
41	41	16
89	89	6
160	160	7
68	136	2
103	105	2
18	19	10
14	32	1
54	54	10
70	115	5
11	11	18
92	93	13
154	159	3
130	130	10
151	151	4
94	171	3
91	97	1
74	132	1
86	86	1
43	44	6
140	141	4
58	58	5
5	159	6
87	87	5
45	45	7
136	136	19
79	79	6
82	103	1
122	123	3
65	65	9
24	95	1
76	77	4
5	5	22
3	4	11
4	7	4
158	159	2
7	129	6
64	136	2
13	13	15
164	164	7
72	72	6
4	5	1
134	134	13
36	36	19
79	80	1
46	46	5
32	32	10
77	78	3
11	16	2
21	21	15
92	127	2
114	116	2
64	64	1
154	154	8
10	10	18
49	51	2
25	25	13
11	54	1
27	28	7
109	109	3
166	166	10
110	111	12
94	94	7
60	60	11
127	128	4
90	91	3
68	132	2
0	0	7
7	7	7
168	169	4
31	31	13
41	57	1
0	14	3
35	35	7
30	31	6
97	161	4
115	115	5
95	96	4
39	40	8
166	173	4
140	140	10
81	123	1
145	145	7
100	132	1
132	146	4
93	93	7
87	129	1
15	16	6
16	16	17
55	74	1
29	29	12
42	159	6
28	28	12
5	139	2
165	170	3
103	103	1
4	16	5
5	6	9
87	167	5
67	68	1
79	125	2
74	74	6
78	94	2
103	156	4
12	13	6
13	30	2
17	33	2
84	164	5
22	50	1
148	172	3
132	150	4
110	144	4
80	80	4
38	39	1
108	108	4
123	123	10
138	138	6
75	124	1
119	119	9
14	14	14
109	152	1
167	168	2
83	85	3
107	107	5
106	106	7
11	31	1
23	174	3
40	40	4
26	43	2
89	90	2
101	128	4
127	132	1
12	12	19
37	37	14
131	131	11
3	8	3
1	36	5
7	8	10
120	120	5
26	26	12
89	170	1
81	114	2
104	110	3
68	104	1
22	22	9
121	121	8
22	27	7
142	143	3
1	1	13
13	35	1
58	76	4
180	180	5
92	92	6
1	6	4
17	17	2
112	127	4
39	43	4
90	117	2
142	142	13
21	22	8
152	156	1
33	33	17
101	116	1
159	159	12
153	154	3
32	33	6
66	153	1
117	157	1
63	116	3
150	150	4
15	153	1
72	175	3
88	88	6
58	112	2
1	9	1
128	129	3
24	24	9
135	155	1
55	55	5
60	141	3
62	66	1
6	6	13
85	87	6
0	136	2
168	168	9
135	136	3
8	9	8
95	163	2
4	121	1
25	26	8
85	86	9
120	121	1
32	65	4
64	155	2
170	170	6
6	8	1
101	146	9
41	42	9
3	5	7
148	171	2
116	116	7
140	142	3
124	163	3
7	14	3
75	175	2
66	103	3
1	28	2
156	156	4
172	172	12
56	59	2
152	153	1
76	78	1
4	14	1
74	76	3
8	21	2
9	22	2
78	78	3
62	75	1
75	75	5
97	98	1
7	135	3
90	92	4
90	90	5
151	154	1
44	44	8
12	19	3
163	164	3
23	40	1
128	128	5
104	117	2
81	88	1
36	37	2
35	42	1
150	174	3
124	124	7
29	31	1
97	97	6
58	137	1
1	4	1
16	22	2
114	114	5
34	41	1
91	91	13
56	77	3
28	43	1
59	77	10
143	144	1
157	158	2
83	101	1
90	94	2
165	175	6
62	62	12
100	158	1
102	102	10
29	84	3
117	155	2
128	130	1
61	64	4
147	148	4
72	73	2
110	110	7
53	53	6
158	162	1
20	32	2
176	176	6
2	8	6
155	156	16
23	23	28
11	12	6
74	125	3
10	19	2
163	163	2
81	82	1
94	96	1
20	20	6
21	32	3
50	94	4
75	176	1
95	95	1
43	154	3
137	137	6
129	161	1
2	19	1
9	18	2
88	89	3
78	90	3
105	107	2
28	30	6
153	155	2
12	15	5
169	169	8
96	176	2
107	156	5
177	177	1
117	117	7
20	21	7
6	9	6
2	24	3
119	120	6
123	132	1
115	117	1
115	116	5
115	118	3
111	111	5
148	159	1
59	59	2
111	113	6
10	17	4
30	30	12
144	144	6
115	119	2
171	171	6
148	151	3
88	134	1
79	124	2
0	18	2
34	34	7
40	45	2
134	150	2
84	84	4
96	96	6
67	132	2
98	98	5
75	173	10
100	100	13
151	153	4
66	136	2
123	160	4
4	134	3
3	15	1
99	135	2
2	26	2
63	67	2
148	148	7
15	45	9
13	14	3
89	102	2
125	147	1
157	157	7
105	115	2
63	123	1
144	145	10
107	108	3
62	74	3
1	2	1
24	26	2
54	60	1
13	122	3
5	157	2
91	164	3
19	20	13
53	120	3
12	34	1
122	122	11
56	56	10
134	135	8
138	174	2
23	28	2
79	169	2
46	130	1
13	21	1
65	81	3
86	97	2
49	49	2
121	161	2
159	173	1
85	113	2
113	115	5
1	14	4
13	31	4
153	153	6
161	161	6
71	72	2
2	6	4
107	129	2
1	132	2
1	33	1
33	40	4
122	125	3
59	76	2
52	74	1
2	3	6
89	106	1
77	77	4
3	14	4
126	126	5
83	99	1
26	28	1
103	116	1
81	98	3
2	5	3
6	10	1
5	7	2
65	174	3
23	26	2
151	152	5
129	129	6
148	168	1
171	180	4
27	50	2
63	63	4
118	121	3
26	51	2
76	76	9
68	68	7
39	39	7
15	41	1
123	124	1
113	113	6
11	120	1
141	145	2
143	143	1
147	147	4
109	110	2
23	24	2
171	172	11
146	147	3
93	94	4
148	154	1
83	158	2
21	25	2
33	34	2
28	31	2
0	7	2
102	128	6
23	52	3
2	32	3
22	31	2
14	16	1
6	37	2
137	138	4
91	94	1
73	74	12
167	167	2
52	61	3
14	153	1
40	44	3
10	11	6
162	165	4
129	160	2
175	176	1
178	178	2
99	158	1
83	84	1
85	85	4
112	112	5
123	129	1
38	40	5
99	117	1
0	8	1
5	31	1
16	122	1
0	1	3
17	121	4
20	26	2
114	155	2
88	129	2
17	18	3
110	121	2
83	98	3
148	153	1
90	123	3
96	139	1
56	81	3
135	135	5
29	43	3
169	170	3
133	133	4
131	132	1
118	118	2
66	132	4
178	179	1
92	163	2
132	132	3
45	155	1
118	119	1
165	165	6
16	17	2
11	20	1
174	174	2
50	51	4
57	57	2
115	127	4
7	134	1
2	38	1
66	135	2
8	30	1
2	9	3
0	130	2
25	52	1
70	70	1
117	119	1
135	137	2
2	15	2
12	14	2
10	14	3
161	165	1
35	41	1
82	155	4
54	55	1
86	88	6
17	43	1
161	162	8
95	162	4
80	81	2
158	170	2
101	117	1
122	126	1
138	139	1
42	134	1
65	79	2
107	112	1
173	173	5
96	170	2
0	128	1
105	105	2
45	125	2
125	125	3
56	58	1
70	143	1
24	39	1
12	151	3
123	128	1
1	3	1
60	65	2
83	86	1
102	103	1
157	173	1
14	19	1
96	97	2
133	134	1
153	156	1
24	40	1
103	106	1
149	173	1
140	158	1
90	110	2
110	141	2
6	129	1
22	23	2
68	153	1
6	152	1
8	11	3
75	172	2
92	99	2
84	120	4
152	152	3
27	94	2
79	126	1
160	166	1
76	171	1
171	173	1
165	166	1
28	29	5
121	122	2
6	19	1
29	53	1
18	21	2
166	174	2
19	33	1
126	129	1
51	51	1
75	132	3
121	123	2
116	117	1
2	134	4
58	130	3
79	155	1
37	38	1
11	21	1
101	118	2
80	114	1
64	140	3
22	42	1
127	127	3
84	86	1
104	104	2
42	153	1
143	176	2
81	83	5
13	15	1
77	141	1
126	127	1
45	99	1
5	108	1
17	38	1
92	102	1
7	9	1
103	111	2
38	43	1
61	65	1
75	88	1
86	98	1
107	109	1
41	45	1
141	142	2
52	52	6
160	161	2
24	50	2
5	135	2
126	169	1
5	30	1
68	107	1
86	100	2
98	99	1
111	112	1
71	144	5
45	86	1
149	172	1
164	166	1
14	41	2
136	174	1
3	16	3
65	117	1
11	13	1
66	66	1
7	33	1
77	138	2
136	158	2
86	126	1
64	123	1
10	53	1
74	131	1
61	62	2
140	155	1
93	177	1
63	64	2
106	134	1
11	42	1
124	125	1
147	168	1
40	43	2
83	83	4
50	62	1
24	49	1
61	61	1
126	153	1
10	13	1
58	153	2
55	57	1
98	101	1
153	163	1
21	121	1
66	75	1
147	166	1
129	130	3
21	24	1
55	56	1
4	9	1
35	43	1
75	143	2
81	84	1
14	26	1
159	172	1
27	30	2
56	76	1
100	101	1
87	96	1
96	167	1
113	141	1
78	91	1
72	74	1
136	157	1
106	126	1
63	180	1
65	66	1
109	111	1
74	91	1
125	164	1
26	29	1
6	13	1
44	125	1
33	35	1
9	23	1
161	174	1
31	33	1
87	160	1
3	18	1
150	151	1
71	98	1
125	163	2
110	153	1
81	100	1
5	9	1
110	145	1
2	46	1
11	19	1
131	133	1
64	141	1
26	39	1
