99	99	9
79	89	2
70	70	13
93	108	2
86	86	10
79	79	8
63	63	8
100	101	10
67	67	4
65	65	5
32	34	4
96	96	9
81	81	14
83	83	9
50	50	7
76	76	5
50	51	5
95	95	9
31	31	5
53	53	9
55	84	3
28	28	8
42	42	9
74	75	10
75	115	2
39	39	4
72	72	8
23	27	3
55	55	5
114	114	4
40	40	16
34	35	4
85	85	9
30	111	2
20	20	6
88	109	1
65	84	1
43	43	13
20	27	3
77	77	12
60	60	8
109	110	3
45	45	6
88	88	6
65	85	3
38	38	2
100	100	15
111	111	14
74	74	10
71	79	5
87	87	5
30	31	6
23	23	8
99	102	2
84	86	4
102	103	4
57	58	3
28	29	2
34	34	7
78	96	2
98	98	4
20	85	1
97	108	2
66	66	7
69	72	4
104	104	3
41	41	5
79	81	5
65	83	2
92	94	3
35	38	3
26	31	3
33	34	5
84	85	3
59	59	5
21	21	1
39	60	1
62	62	6
84	84	14
31	40	4
48	48	5
44	45	7
44	44	8
34	37	7
71	71	9
42	45	2
58	60	4
37	38	2
46	46	6
97	98	2
37	37	12
103	104	6
54	81	3
69	70	1
113	113	10
32	32	2
66	68	5
94	95	3
73	73	14
26	26	8
61	61	4
72	74	2
61	73	3
27	69	5
72	73	4
94	107	3
22	23	2
33	33	3
106	112	3
86	88	2
57	57	9
22	22	4
71	72	8
67	98	1
109	109	10
81	98	1
73	74	1
57	78	5
62	67	1
92	93	5
80	80	8
106	107	5
70	112	2
38	44	3
58	58	7
33	35	2
61	62	2
99	101	4
103	103	8
76	103	1
51	51	2
61	69	6
27	27	9
90	90	8
37	41	2
61	76	2
93	93	3
81	84	2
107	108	1
42	67	5
71	87	6
94	94	2
87	95	3
78	94	2
55	56	3
62	68	6
80	97	1
46	47	4
78	78	5
80	89	5
104	106	5
19	55	4
91	110	1
30	44	1
108	108	3
39	42	1
61	91	2
41	42	3
29	29	6
68	68	14
34	36	2
44	46	1
110	110	3
35	37	2
31	50	2
42	43	5
24	24	6
90	91	6
101	102	3
91	94	5
29	37	2
63	64	3
82	91	1
62	66	3
47	47	4
88	90	3
58	59	5
47	50	1
92	92	4
92	106	3
43	44	3
88	89	5
39	103	1
80	85	5
54	55	3
43	47	1
25	28	3
78	104	3
25	25	5
31	32	1
42	46	2
35	35	6
25	36	1
106	106	7
91	93	1
93	94	1
66	85	1
27	28	2
78	81	1
53	56	1
72	77	1
26	39	3
76	77	2
98	103	1
63	77	1
79	108	1
55	78	1
29	30	3
113	114	1
93	95	3
83	85	3
38	101	3
30	49	4
54	54	2
71	76	1
91	91	1
82	82	4
71	107	4
42	69	3
98	99	2
97	97	3
37	39	5
21	24	1
74	78	1
102	107	2
80	81	3
20	92	2
87	110	1
19	36	1
53	55	1
54	82	2
75	75	3
26	29	3
56	57	1
82	98	1
112	112	6
36	36	3
28	39	3
91	95	3
69	69	2
21	41	1
19	57	1
35	36	1
78	79	7
22	59	3
99	105	1
63	65	2
53	87	1
79	91	1
107	112	2
49	50	4
77	114	2
36	53	1
25	34	2
62	63	1
43	52	2
64	64	4
55	88	1
89	89	5
55	83	1
29	109	2
70	72	3
32	35	1
108	109	1
68	69	1
103	107	1
87	88	1
91	96	1
26	27	5
25	26	1
59	82	1
19	19	1
104	105	3
47	49	1
78	109	1
60	105	1
55	103	1
48	49	1
30	30	4
90	94	1
29	43	2
24	27	1
62	75	1
65	66	5
28	43	1
99	100	1
39	101	1
62	64	1
39	58	2
54	57	1
52	52	3
25	39	1
39	40	1
101	111	1
107	107	4
59	61	1
42	111	1
23	36	1
61	71	1
80	82	1
54	90	2
59	84	1
54	60	1
51	88	1
23	26	1
102	102	1
94	103	1
106	108	1
53	108	1
60	87	1
70	71	1
80	87	1
53	58	1
49	49	1
101	101	1
