85	85	15
15	18	1
118	118	11
45	45	13
87	87	9
109	110	12
102	102	6
59	60	6
122	133	2
91	91	11
74	74	20
65	78	2
109	115	5
44	44	4
16	25	5
127	129	4
130	131	8
8	69	3
125	125	17
78	78	10
113	113	13
16	18	3
11	11	7
22	27	1
130	130	10
31	31	7
77	78	4
71	71	8
5	5	5
13	13	7
47	47	3
3	3	11
80	80	11
54	54	13
50	50	10
103	104	4
53	53	15
73	73	23
6	6	6
3	30	1
86	87	6
76	76	28
93	93	27
107	108	2
32	34	4
112	112	19
115	115	13
16	16	29
70	70	15
65	67	1
101	102	5
111	113	7
127	135	1
28	28	3
56	56	5
44	45	4
14	20	6
69	69	7
30	34	1
134	134	9
78	107	3
75	75	18
77	77	20
123	123	11
20	20	6
52	53	7
97	97	12
131	132	8
105	105	10
7	7	8
127	127	11
68	68	7
61	62	1
22	22	4
34	34	13
123	125	1
99	99	14
108	129	3
9	9	8
46	46	2
27	28	3
121	121	20
73	74	9
45	54	1
128	128	8
3	4	13
82	82	9
2	2	10
86	86	12
33	60	3
111	117	2
87	88	3
76	77	1
126	126	12
89	89	12
19	19	5
35	35	17
90	90	7
94	97	2
56	57	5
83	85	2
49	54	1
124	126	1
106	110	2
0	0	11
21	21	15
55	55	12
29	29	18
116	116	27
79	80	4
50	52	5
100	107	1
1	1	11
32	32	13
109	109	10
5	6	4
6	7	2
72	72	17
4	5	2
135	135	5
67	67	9
9	10	2
9	67	3
36	36	4
18	18	7
7	34	1
9	20	1
75	76	2
100	100	1
19	20	4
61	61	14
133	134	8
54	55	4
8	66	5
79	79	7
106	108	4
99	101	2
106	129	9
33	59	2
126	128	3
95	95	4
18	22	2
120	121	7
103	103	15
114	114	9
50	53	6
127	128	4
95	117	1
99	116	3
26	26	10
83	83	8
4	4	10
65	65	8
44	50	4
84	84	6
12	13	4
66	66	14
63	71	4
3	5	1
95	109	4
12	12	4
88	88	1
128	129	8
96	96	8
37	37	3
133	133	12
121	122	2
110	116	2
80	93	1
11	18	9
78	79	1
114	115	5
15	15	14
98	119	1
38	39	1
117	117	8
94	105	3
23	23	5
69	71	2
108	108	11
111	111	8
122	125	2
8	8	7
26	27	7
132	132	11
65	66	1
57	58	1
92	93	3
80	112	1
129	129	12
104	104	18
62	63	6
22	23	2
64	64	26
15	16	2
97	98	3
106	111	3
120	123	2
16	22	2
10	10	8
4	70	2
1	2	6
113	115	5
54	69	1
119	119	11
14	14	12
24	25	3
29	30	3
17	68	2
124	124	3
124	127	1
0	1	10
80	107	2
14	19	4
12	19	1
23	26	4
132	135	1
116	118	2
130	132	2
65	79	2
63	63	5
131	133	4
131	131	12
105	112	1
48	52	3
107	107	9
67	68	4
92	106	2
58	69	1
36	37	3
36	50	2
111	118	1
30	31	2
13	19	2
94	95	5
61	63	5
111	112	7
97	99	3
66	67	4
25	74	3
105	106	5
94	94	12
20	23	3
83	84	5
84	85	9
110	110	12
58	58	4
60	61	4
85	86	1
134	135	3
59	59	7
114	128	9
42	56	5
71	72	4
52	52	7
17	17	4
33	33	9
90	91	3
95	108	2
107	111	4
122	123	5
105	127	2
104	105	3
43	57	1
7	18	1
55	56	1
121	123	1
69	70	8
47	50	3
108	110	1
69	94	1
116	121	2
21	34	2
21	22	3
117	125	1
126	135	2
106	106	15
60	60	5
58	59	6
120	122	3
43	43	2
82	92	1
123	124	1
110	127	1
49	50	3
122	128	1
89	90	2
9	19	1
64	65	6
48	48	4
68	79	2
29	32	2
107	110	1
33	38	3
31	34	1
62	62	4
120	124	1
6	11	3
3	71	2
117	119	1
79	82	1
85	112	1
12	14	1
11	16	1
72	73	2
64	66	3
98	98	4
116	117	2
122	132	3
24	26	1
101	101	1
119	132	1
53	66	1
28	29	2
106	115	1
31	32	4
102	103	5
98	118	2
9	18	1
125	132	1
107	109	3
23	24	2
49	49	3
32	86	1
11	15	3
92	92	9
16	19	2
132	133	7
99	129	1
34	35	2
126	127	3
96	100	2
131	134	4
122	122	4
38	38	2
99	100	1
76	79	3
118	120	1
70	74	1
81	86	2
43	54	1
78	80	3
85	89	1
46	76	1
18	20	1
32	33	1
107	129	1
66	91	1
81	95	3
106	107	3
129	131	1
54	56	1
20	25	1
15	25	2
129	130	1
8	16	2
126	130	1
96	97	2
85	91	1
22	28	1
120	120	1
7	9	3
33	34	4
30	30	4
7	54	3
106	116	1
57	59	1
25	25	3
109	111	1
108	109	4
77	79	1
11	23	3
102	105	2
42	42	1
20	21	1
57	57	2
105	119	1
7	8	3
81	88	2
24	34	1
85	90	2
45	51	1
74	75	1
56	58	1
35	36	1
86	90	1
14	16	2
95	96	2
38	44	1
110	117	3
44	53	1
45	47	1
97	116	1
13	15	1
117	118	1
63	65	1
113	114	1
34	36	1
16	26	1
96	109	2
46	51	1
3	7	1
89	91	2
84	87	2
114	123	1
37	38	2
8	25	1
53	55	1
80	119	1
68	80	1
100	102	1
99	102	1
44	58	1
82	86	1
6	8	1
61	77	2
20	28	1
118	121	2
55	61	1
24	24	1
43	44	1
109	116	1
7	17	1
27	29	1
105	113	1
83	86	1
58	79	1
119	120	1
52	56	1
98	121	1
53	64	1
33	35	1
11	17	1
50	51	1
82	83	1
35	37	1
117	124	1
88	91	1
107	117	1
29	65	1
