66	79	2
80	80	5
120	120	8
119	119	7
74	74	9
123	128	6
98	111	3
119	121	2
140	141	5
23	25	2
48	48	2
65	65	5
38	38	8
124	125	2
31	31	11
63	63	8
125	126	4
142	143	6
124	124	8
117	117	15
81	81	5
133	135	1
6	22	7
90	90	4
55	55	7
64	64	4
112	112	3
103	122	2
17	17	6
137	137	7
135	135	10
60	139	3
29	30	3
118	118	4
141	141	9
130	130	24
118	119	12
96	97	3
39	40	7
125	125	13
103	104	4
135	136	3
95	95	5
131	131	8
18	19	2
14	21	5
101	101	8
142	142	4
2	4	2
71	71	1
39	39	11
23	125	9
84	87	1
74	135	2
109	109	4
51	52	2
11	11	1
97	97	4
125	129	3
37	37	13
86	86	4
30	32	5
54	55	4
26	26	17
76	76	4
15	21	2
145	145	17
138	138	8
146	146	7
30	30	5
129	129	12
101	128	3
143	143	6
104	104	9
18	18	11
111	111	6
110	125	1
6	41	3
123	124	7
134	134	12
28	30	3
19	27	2
98	99	5
41	41	3
40	40	5
70	140	2
27	27	7
55	57	3
121	121	16
125	130	2
67	75	1
113	114	5
8	49	6
20	20	13
130	132	1
55	66	4
141	142	2
122	123	8
83	84	5
102	102	11
143	144	4
74	94	1
25	25	4
103	103	4
104	131	3
70	71	3
128	128	11
99	99	9
50	50	4
16	60	2
104	105	4
88	88	4
57	64	4
2	55	4
94	95	2
115	130	3
77	79	5
33	33	7
106	106	6
9	9	7
109	112	5
107	107	10
29	29	5
21	21	10
81	82	6
43	43	6
32	32	4
15	15	3
126	127	8
5	5	4
118	120	6
67	68	3
121	127	3
16	20	2
2	56	6
118	139	5
2	54	2
48	95	2
42	42	8
96	96	6
117	119	1
58	59	3
68	68	4
122	122	4
85	92	1
62	94	2
108	109	3
144	144	3
117	140	2
121	123	4
140	140	17
75	75	3
64	102	3
66	67	5
57	77	4
88	89	3
116	117	1
62	106	2
0	0	1
136	138	4
19	19	3
12	12	1
23	23	3
56	56	19
55	56	6
12	13	2
3	4	2
54	54	3
132	134	5
115	115	1
100	100	3
119	120	4
129	130	1
70	70	1
43	47	1
119	138	2
104	133	1
64	94	4
24	24	10
139	139	2
53	53	3
47	47	4
28	29	1
73	73	6
62	107	3
92	92	4
83	83	6
91	91	3
132	133	2
110	110	2
39	59	1
87	87	4
22	41	3
132	132	2
26	27	3
94	94	1
41	42	2
141	144	1
130	131	5
40	140	1
110	111	1
3	3	6
39	60	2
85	87	2
100	101	2
15	16	4
67	67	1
81	87	3
64	65	4
125	127	1
49	49	4
56	57	2
133	133	5
0	53	1
126	126	6
53	73	1
116	116	2
36	36	2
71	78	2
13	14	4
133	134	9
72	75	4
57	96	2
90	91	1
62	62	1
14	14	5
79	79	6
123	125	8
108	118	3
18	30	1
110	128	2
59	59	3
8	8	7
55	97	2
21	54	2
18	28	1
120	124	1
14	15	3
108	108	3
51	51	1
23	24	1
22	22	4
4	4	3
8	38	1
25	26	1
17	28	1
77	87	1
126	128	2
122	130	1
127	130	3
123	123	5
68	72	5
33	34	1
124	130	2
37	74	1
65	66	2
22	23	4
93	93	1
76	146	3
61	61	3
85	86	1
42	47	3
77	116	1
64	105	3
58	58	3
28	28	3
114	136	2
98	98	6
61	62	2
113	113	3
113	128	2
60	61	1
5	6	3
15	60	1
137	139	1
96	113	2
16	26	1
84	84	2
121	139	1
87	88	3
93	94	2
84	93	1
2	2	1
12	20	1
136	136	1
78	79	2
115	136	1
105	107	1
31	33	1
77	80	2
59	60	1
49	50	1
95	96	1
19	22	1
120	131	1
123	126	6
121	122	3
138	139	1
16	17	1
127	129	1
57	57	3
102	105	1
64	66	1
135	138	1
101	102	3
66	86	1
2	3	1
16	16	3
92	95	2
114	114	1
41	48	1
68	69	1
77	83	1
16	23	1
82	103	1
67	90	1
103	145	1
97	98	2
17	18	1
115	116	1
86	87	2
123	129	2
103	131	1
120	121	1
33	36	1
37	41	1
69	69	1
25	27	1
127	131	1
122	124	1
1	1	1
111	113	1
89	90	1
79	81	1
127	128	1
105	106	1
82	85	2
63	107	1
73	74	2
72	73	1
8	20	1
101	121	1
128	131	1
