62	198	3
176	178	3
198	199	5
101	101	4
41	41	3
118	118	4
186	186	4
24	25	2
176	176	5
223	223	9
210	215	2
119	119	3
201	201	9
181	182	7
28	28	7
177	177	4
226	226	3
146	146	4
208	211	3
228	228	5
244	244	5
26	26	7
97	108	1
166	166	5
62	62	11
211	242	4
72	72	3
34	48	1
245	246	3
171	175	2
189	189	8
212	212	5
1	1	6
175	175	4
59	169	1
23	99	2
216	217	3
62	67	3
162	202	2
154	154	5
71	71	5
44	44	1
65	65	8
231	232	4
12	55	5
181	181	12
172	173	5
176	219	2
109	110	2
207	208	5
67	67	6
218	219	7
39	40	1
208	208	7
100	100	5
109	109	5
186	193	1
232	237	1
225	234	6
110	110	3
214	214	9
47	112	1
99	99	3
175	190	1
27	103	1
75	77	2
202	202	7
167	168	3
66	66	6
97	99	1
179	179	7
160	177	5
182	200	1
12	12	3
18	18	5
169	170	2
163	164	2
113	113	8
163	163	4
183	199	2
225	225	1
63	63	2
231	231	4
93	106	2
80	80	4
23	23	4
161	161	2
24	52	2
6	26	2
97	101	1
6	6	2
115	115	2
221	221	7
117	117	5
77	77	4
198	200	3
95	95	2
105	106	4
214	215	6
46	46	6
170	171	2
178	178	4
55	55	4
76	76	7
64	64	6
192	192	2
173	178	1
190	192	3
47	47	5
90	117	3
219	219	5
108	109	3
151	151	4
247	248	6
241	241	6
159	159	8
32	32	3
91	119	1
116	116	9
46	47	3
14	35	3
245	245	5
209	209	9
10	10	7
58	61	1
168	240	4
160	176	4
158	243	4
234	235	2
193	193	5
190	190	5
182	209	2
182	184	2
242	243	5
60	64	1
162	162	6
24	24	5
215	215	8
195	195	9
217	217	6
237	237	4
57	58	11
60	60	1
168	169	1
187	190	4
173	173	9
167	167	9
3	3	2
197	197	7
37	37	3
187	188	3
240	240	9
25	25	3
193	194	1
153	153	1
185	185	11
220	244	1
35	35	3
242	242	4
42	42	2
86	108	2
102	102	6
48	48	5
187	231	2
188	246	3
88	88	3
248	248	3
113	114	5
4	49	1
114	114	4
232	232	6
146	184	2
112	112	5
69	69	7
229	229	2
160	169	4
200	200	5
153	188	2
70	71	4
78	78	4
165	165	4
157	158	4
69	70	2
153	164	4
180	180	4
185	186	3
198	231	2
5	5	4
75	75	3
200	202	1
73	73	10
87	92	1
75	109	2
168	168	1
18	43	1
74	74	3
203	203	5
34	35	2
35	49	5
84	85	2
68	69	3
191	191	5
238	238	9
54	54	7
42	64	1
58	58	4
247	247	2
67	109	2
16	16	2
157	166	3
221	222	1
61	61	3
184	184	7
56	56	4
19	20	1
218	218	3
51	66	3
239	239	3
7	7	5
211	212	2
103	103	2
72	81	3
94	95	2
230	230	2
4	4	6
34	34	4
224	224	1
29	29	2
238	239	2
106	106	1
159	232	1
111	111	2
147	147	2
17	45	3
17	19	2
61	224	3
85	87	1
55	205	1
158	158	4
9	9	1
187	187	9
156	157	1
158	233	5
86	86	1
166	247	3
89	89	1
21	21	5
150	150	7
34	101	2
200	228	1
120	145	2
102	150	2
213	214	3
10	179	1
63	64	1
220	220	4
39	39	1
56	91	2
161	176	1
84	107	1
160	246	2
97	98	1
15	15	4
90	90	3
104	104	3
59	59	3
64	65	2
209	212	1
8	8	3
145	145	2
172	174	3
40	115	2
227	227	1
173	174	4
211	211	5
182	182	2
71	241	1
145	172	1
103	116	1
196	197	2
75	76	2
225	226	1
216	220	2
191	195	1
160	160	5
156	156	4
222	223	1
57	57	2
30	47	1
19	19	4
114	115	2
235	235	4
93	179	1
157	233	1
73	74	2
155	156	1
170	170	3
36	45	2
51	51	5
174	198	1
5	87	1
40	40	3
61	200	1
163	181	1
188	188	1
199	199	2
20	20	3
96	96	1
236	236	6
194	195	3
188	189	2
152	153	1
241	242	1
164	164	3
2	2	3
179	233	1
10	43	2
243	244	1
194	194	3
193	196	1
169	169	1
217	238	2
11	11	3
222	224	2
205	205	1
112	113	1
55	56	2
14	14	3
185	193	1
183	183	2
226	227	1
12	164	1
170	240	1
145	168	2
196	196	2
22	22	3
197	222	1
60	204	1
191	192	2
18	19	1
183	200	1
178	239	4
46	158	2
245	247	1
166	167	1
77	78	1
162	165	1
85	85	1
49	49	4
175	176	1
205	238	1
22	43	1
83	83	1
222	222	2
234	234	2
47	48	2
159	241	2
66	87	1
171	171	2
10	11	2
49	50	1
153	182	1
119	245	2
8	19	1
78	85	2
111	120	1
241	243	1
233	233	1
81	81	1
112	116	1
81	109	1
217	223	1
26	103	1
102	103	2
238	241	2
31	31	1
204	205	2
36	36	3
97	104	1
213	213	3
43	43	3
174	174	2
11	181	2
93	93	1
49	53	1
82	83	1
5	15	1
199	207	2
51	52	1
4	48	2
85	86	1
93	94	1
66	69	2
59	60	1
196	221	1
172	172	1
11	12	1
186	198	1
58	59	1
39	115	1
120	247	1
210	211	1
230	233	1
163	166	1
160	211	1
70	70	1
106	107	3
64	71	2
42	43	2
166	171	3
68	68	1
96	97	1
202	204	4
199	231	1
15	16	1
87	87	1
15	75	1
149	210	1
60	61	1
182	214	1
155	161	1
183	205	1
188	247	1
55	113	1
64	180	1
209	210	1
168	183	1
105	107	1
162	181	1
48	112	1
25	26	1
176	177	1
38	80	1
82	82	1
66	68	1
197	230	1
9	10	1
99	100	1
91	106	1
19	43	1
178	196	1
144	247	1
3	99	1
151	185	1
120	120	1
211	240	1
243	243	1
