85	85	6
64	65	5
83	85	1
35	35	3
51	51	7
75	76	8
39	39	16
100	100	11
89	89	11
111	111	19
97	98	25
105	105	8
73	73	12
111	112	1
106	107	5
49	49	11
25	25	6
45	45	16
100	101	6
95	95	10
106	106	3
114	114	15
108	109	2
68	68	5
105	106	7
71	75	4
22	22	11
52	52	9
90	90	4
113	113	16
21	24	4
79	97	5
88	88	13
98	103	1
27	28	2
103	104	7
47	48	2
67	91	2
91	91	7
97	97	19
80	81	8
72	73	5
90	91	7
108	108	11
72	72	5
58	60	5
61	62	8
85	86	8
40	42	3
54	54	12
44	44	25
109	110	12
101	102	3
71	71	2
73	75	1
66	66	10
65	65	9
62	62	2
96	96	5
102	102	3
76	76	16
110	110	10
112	112	10
99	99	10
79	79	10
61	61	9
39	40	1
69	70	6
89	90	2
104	104	9
89	95	1
62	93	3
87	88	4
75	75	6
48	49	7
94	95	7
48	50	2
104	105	1
46	46	4
107	112	3
32	32	6
47	49	5
40	40	14
103	103	11
78	78	2
28	29	9
47	47	7
40	41	2
29	31	1
80	80	2
43	43	10
74	74	16
84	84	10
27	27	4
57	58	4
78	79	8
109	109	14
36	42	2
102	103	3
63	64	9
50	51	8
82	96	2
55	56	2
83	83	10
56	57	4
51	89	2
58	58	3
29	29	7
107	107	1
42	42	8
60	60	6
74	75	5
98	99	4
43	45	4
77	77	5
70	70	5
72	74	3
63	63	6
62	64	5
99	100	5
66	91	3
69	69	5
98	98	23
30	30	8
88	90	2
31	32	4
22	23	1
42	43	6
58	59	1
34	34	8
70	74	1
113	114	3
36	37	2
73	74	9
22	36	2
93	106	1
44	60	3
70	72	5
24	25	5
95	105	1
67	68	1
56	56	3
64	64	8
49	50	3
68	69	3
35	36	2
42	44	2
31	34	3
99	102	1
61	72	4
37	37	1
52	88	1
103	106	4
44	93	3
68	95	3
59	59	5
28	28	2
62	63	2
44	73	3
72	96	4
66	67	1
67	67	4
70	76	3
25	29	1
62	89	3
92	92	8
21	21	8
93	94	7
81	82	5
41	67	2
94	105	1
51	52	7
62	65	3
36	36	5
95	96	8
19	19	1
86	87	2
101	101	7
55	55	1
50	50	6
73	83	2
61	63	1
70	93	2
52	92	2
66	85	1
92	95	2
94	94	5
85	96	1
82	97	1
51	54	3
64	103	6
104	107	2
57	57	6
70	71	1
87	87	1
20	22	3
63	65	1
79	98	4
93	93	2
79	81	2
81	81	5
75	80	1
59	60	4
94	103	1
78	81	2
78	80	1
33	34	1
23	23	3
86	86	1
64	67	1
31	31	4
25	26	1
38	39	1
70	94	1
82	88	1
30	31	1
53	53	1
82	84	2
25	28	1
92	107	1
60	68	1
101	106	1
100	102	2
26	26	2
60	62	1
24	24	1
45	68	1
41	42	2
93	97	1
63	69	1
19	22	2
82	83	2
44	45	1
34	35	3
68	70	1
88	91	1
75	77	1
107	108	2
77	78	1
92	93	1
85	88	1
60	70	1
38	38	1
34	40	2
86	89	1
62	69	1
39	70	1
44	59	2
85	87	1
64	66	1
105	107	1
63	74	1
106	109	1
95	97	1
62	100	1
