70	70	13
60	61	3
86	86	3
27	28	5
35	35	6
81	82	2
67	67	8
69	69	11
101	102	4
96	96	3
26	27	9
52	53	8
30	31	4
22	22	11
61	61	9
48	49	6
51	51	7
79	79	4
49	51	4
37	38	5
78	78	5
59	60	3
38	46	4
43	45	2
53	54	3
61	62	10
52	52	13
99	99	7
61	64	1
25	32	2
31	31	4
102	102	7
82	83	4
39	58	1
62	62	1
59	59	8
53	53	5
72	74	1
54	55	3
47	48	1
26	26	5
44	44	7
101	101	3
65	65	11
84	91	1
90	93	2
34	36	2
36	56	1
25	30	3
47	47	9
66	67	4
93	93	2
53	55	3
94	96	10
37	58	2
26	28	3
37	37	9
34	34	3
49	49	14
81	81	5
60	60	3
55	55	4
25	25	3
24	24	3
38	38	2
100	100	3
50	52	1
41	48	3
66	66	3
49	58	2
90	90	3
95	95	4
34	35	1
86	87	6
106	106	4
24	25	3
71	71	3
65	79	1
92	92	6
46	47	2
40	58	2
97	97	2
88	88	8
72	72	6
62	63	3
23	23	13
43	44	2
65	67	1
50	88	3
49	80	2
54	54	5
73	77	5
39	40	3
50	50	11
94	99	3
72	107	2
79	80	1
55	78	4
66	69	3
98	98	5
69	70	3
28	29	6
45	45	3
36	107	6
55	56	1
39	43	2
42	42	1
61	100	1
51	58	1
84	86	3
31	32	2
60	65	1
55	77	4
78	79	2
73	73	5
85	86	1
39	64	1
20	20	1
80	80	4
22	23	3
75	75	14
21	21	3
24	28	4
91	91	3
46	49	3
76	76	2
33	33	10
32	32	4
48	51	2
58	60	3
103	103	1
44	84	4
22	25	2
29	29	1
63	63	2
99	100	6
33	34	2
74	74	2
56	96	1
36	37	1
41	43	1
56	77	2
94	94	2
89	89	1
48	48	3
104	104	1
51	52	2
56	56	1
68	68	3
78	101	3
73	75	1
77	77	1
57	58	2
43	43	2
97	98	2
46	46	1
99	106	5
56	57	2
77	78	1
51	54	2
47	49	1
26	29	2
73	74	1
87	92	1
64	65	2
29	30	1
51	80	3
20	21	1
92	93	2
83	83	1
83	87	1
89	92	1
56	76	2
44	48	2
48	54	1
90	91	2
89	90	2
41	42	1
49	60	1
68	69	2
75	102	1
64	85	1
25	31	1
37	56	1
84	84	1
37	53	1
35	36	1
91	92	1
74	75	1
