71	71	7
24	24	6
68	69	2
137	137	5
98	99	4
99	99	4
100	100	12
116	116	14
75	75	14
119	119	5
93	93	7
130	130	8
26	26	8
7	7	5
155	156	8
137	138	2
114	115	4
130	131	8
82	82	17
37	37	4
144	155	4
118	118	9
106	108	2
31	31	3
127	151	1
25	25	9
129	130	3
138	138	10
28	31	4
20	20	9
145	145	2
132	132	10
118	138	1
110	145	2
106	106	9
126	126	7
37	41	4
43	43	26
146	146	13
38	39	6
151	151	5
93	94	6
63	63	3
19	20	5
47	47	10
150	150	4
156	156	15
23	23	4
133	133	3
3	3	5
46	156	5
134	134	10
11	25	1
41	41	7
95	95	5
34	34	8
7	8	4
113	113	8
14	14	5
120	120	5
56	68	3
46	46	6
8	8	12
67	67	8
44	44	8
51	89	1
112	112	5
10	10	4
149	149	5
21	21	11
128	128	4
129	129	5
135	135	9
77	77	4
108	108	4
83	95	1
90	90	6
25	29	4
27	27	4
26	41	2
31	50	4
139	139	7
80	81	9
36	36	6
105	105	18
38	38	5
103	103	5
119	134	2
31	32	1
101	101	8
54	54	4
121	122	3
69	69	3
96	98	1
65	65	6
152	155	2
1	1	7
12	12	7
46	79	2
131	131	11
17	17	6
115	115	8
28	28	6
68	103	4
152	153	2
114	114	12
30	32	1
4	4	9
110	110	4
40	144	1
147	148	2
54	55	2
0	0	16
24	28	2
48	49	2
109	109	5
117	117	6
51	52	2
92	98	2
98	98	11
22	50	1
86	87	2
103	151	8
73	73	12
86	86	8
122	123	6
30	30	1
30	43	2
88	88	6
8	13	3
9	43	2
116	117	1
34	36	4
141	146	1
15	15	4
29	29	3
113	114	4
117	120	3
123	123	3
17	18	9
4	5	4
66	66	6
145	146	4
5	6	4
136	136	2
79	79	5
45	156	2
148	149	1
64	91	5
13	14	7
49	53	1
76	76	1
78	78	8
140	140	4
23	44	1
42	42	3
111	112	1
85	85	3
56	56	3
148	148	3
72	132	2
121	121	7
15	49	2
8	19	4
15	21	3
24	55	1
18	19	5
2	3	2
6	6	6
84	85	3
106	107	1
69	71	2
39	41	3
22	25	2
82	83	2
127	138	2
45	45	8
39	39	3
117	127	2
14	22	1
18	18	13
2	2	7
56	57	1
13	13	2
2	33	2
135	140	4
4	12	4
68	68	9
94	94	3
102	102	3
16	16	3
40	42	3
157	157	6
96	96	5
81	82	2
9	12	5
51	51	2
116	132	3
49	49	1
155	155	4
32	32	2
40	40	1
57	57	2
134	137	1
4	31	3
22	23	3
65	97	7
127	127	1
50	50	2
64	64	1
80	80	3
33	34	1
7	116	1
1	5	3
139	140	3
22	22	6
141	141	1
20	21	1
104	104	1
89	89	2
156	157	5
35	130	1
95	96	2
89	121	1
11	13	3
88	89	1
48	48	1
0	1	2
1	2	1
5	8	2
153	154	4
158	158	3
142	142	4
155	158	3
143	143	2
36	37	3
134	135	3
50	51	2
71	84	2
152	152	1
115	135	2
23	27	1
48	52	3
62	62	1
129	138	2
70	71	3
47	48	1
116	138	1
150	151	1
28	33	2
34	35	1
67	68	2
19	19	3
109	110	1
118	121	1
8	9	2
52	54	1
73	74	2
16	20	1
85	86	4
96	97	1
138	140	1
144	148	1
127	128	1
5	5	1
78	82	1
107	107	1
137	147	1
53	53	2
141	143	2
120	124	2
118	120	2
81	81	1
4	6	1
141	142	2
100	101	2
92	92	1
92	93	1
101	104	1
23	24	1
11	11	1
140	141	1
0	44	1
3	4	1
125	125	1
67	71	1
70	70	2
32	33	1
14	19	1
1	41	1
42	43	1
29	42	1
44	45	2
28	29	1
10	13	1
151	152	1
154	156	1
84	103	1
79	82	1
87	87	1
111	111	1
