55	55	14
61	62	4
79	79	14
85	89	9
91	91	13
69	69	13
39	46	3
87	88	9
41	41	17
37	37	15
97	97	15
101	102	7
42	42	19
33	33	17
101	101	6
34	80	1
52	52	14
48	57	2
72	73	3
48	48	23
51	51	11
92	92	24
88	88	28
44	44	18
57	57	16
48	56	1
58	59	4
43	43	9
46	46	26
38	45	7
40	40	14
20	20	2
102	102	7
95	95	12
74	74	6
90	90	21
67	67	18
81	81	13
62	62	21
100	101	7
39	39	8
54	54	15
89	89	14
25	25	7
58	61	1
78	78	9
95	97	1
63	64	10
66	66	13
27	27	8
94	94	21
86	86	27
76	76	10
38	39	3
63	63	10
45	46	8
84	84	12
25	60	2
34	37	2
81	83	4
62	89	6
50	50	26
97	98	9
82	82	4
54	55	3
52	53	10
75	75	14
76	77	12
68	69	6
55	56	4
48	49	12
57	86	1
49	49	18
60	60	15
98	98	14
87	100	2
83	93	2
96	98	6
86	100	9
93	94	3
53	53	15
85	85	14
38	46	4
86	87	2
72	72	17
31	33	7
73	74	9
87	87	14
57	61	3
92	93	3
65	65	18
64	65	3
91	92	12
35	35	16
27	61	2
61	61	8
96	100	7
64	64	8
56	63	1
64	67	4
54	87	4
73	73	5
46	49	3
32	33	8
83	84	4
41	63	2
24	24	1
46	47	8
95	100	8
59	59	17
50	51	3
87	89	4
70	70	16
44	48	3
44	51	6
93	93	8
95	96	2
34	34	11
96	97	10
92	97	2
91	93	2
59	60	3
65	74	2
29	29	8
68	68	11
57	59	1
20	22	2
47	47	7
52	83	3
33	35	5
83	99	3
45	45	5
70	71	5
36	36	4
86	88	2
72	90	1
66	67	1
80	80	11
38	71	3
56	58	9
55	57	2
29	61	1
26	60	4
80	81	6
44	45	3
100	100	14
34	83	3
68	71	4
99	99	6
47	48	3
70	72	3
40	75	4
94	98	3
45	48	2
86	101	2
36	37	2
49	50	4
77	77	9
23	24	1
72	74	2
58	60	3
71	71	5
76	78	1
75	76	3
42	49	3
69	70	3
94	96	3
58	58	3
52	58	2
37	39	1
54	79	1
31	82	2
46	48	4
79	80	7
45	77	1
38	50	1
92	96	3
57	62	3
57	58	2
56	57	3
53	54	3
51	53	3
56	59	1
48	52	1
47	55	2
62	65	2
42	59	1
38	44	1
35	37	2
77	78	2
39	40	4
36	51	1
56	56	3
36	38	3
64	74	1
68	70	1
48	50	2
26	27	2
55	58	1
37	38	1
43	44	2
69	71	1
23	26	4
22	22	5
56	61	1
96	96	7
83	83	3
60	64	2
41	66	1
52	79	1
52	80	1
90	91	1
45	49	1
53	60	1
25	26	2
51	52	2
88	89	1
38	38	1
64	72	2
62	63	1
85	86	1
40	41	2
29	30	1
87	101	2
79	81	1
81	82	2
35	36	1
33	34	1
24	26	1
56	101	1
32	32	1
60	63	1
47	54	1
80	101	1
49	52	1
67	68	1
71	72	1
28	28	1
23	29	1
26	29	1
