63	64	5
71	71	4
1	2	13
24	34	5
6	6	9
9	9	14
21	21	21
72	72	11
3	3	8
34	34	20
3	12	3
27	28	6
56	56	5
4	4	16
51	51	4
44	44	21
54	54	5
69	70	3
2	2	18
2	3	9
0	2	2
74	75	2
7	7	21
22	22	9
36	36	12
30	31	5
69	69	9
40	40	3
75	75	11
58	59	6
52	52	10
13	13	14
59	59	8
53	54	14
37	38	1
70	77	4
6	7	9
5	5	18
43	43	12
0	1	8
40	50	5
8	8	19
65	65	8
43	44	5
24	24	15
48	51	5
64	64	14
39	39	11
19	19	27
42	43	3
63	63	2
11	11	17
61	64	2
12	12	14
13	43	2
29	29	21
7	37	3
72	73	1
47	47	7
30	30	17
20	21	14
20	20	11
27	27	21
73	73	10
38	38	9
76	76	11
21	22	8
58	58	15
48	48	4
26	26	11
7	8	9
23	23	13
9	12	3
62	62	6
57	57	8
52	54	4
18	35	1
23	30	2
4	41	2
22	27	4
35	36	7
10	11	6
24	36	1
31	32	2
49	49	21
66	68	1
33	77	2
1	1	5
27	34	3
33	33	11
34	42	2
61	70	1
28	28	11
70	71	2
5	6	2
50	51	3
14	14	4
24	28	1
47	48	8
23	35	2
59	60	4
67	67	5
10	10	12
68	68	7
25	29	3
54	55	3
50	50	14
41	51	4
52	53	3
51	54	1
39	40	4
61	61	16
70	70	6
49	51	3
43	46	3
53	53	7
7	9	1
42	42	17
77	77	9
44	47	1
48	58	3
6	11	1
28	30	2
74	74	8
2	24	2
43	57	5
9	10	6
19	21	7
24	26	1
55	58	7
25	25	7
19	54	2
8	9	6
22	37	2
44	48	2
29	33	4
71	76	2
46	46	6
35	35	6
24	45	1
26	39	3
67	74	2
60	60	4
2	22	2
2	46	2
39	66	5
27	35	3
45	45	11
38	39	2
55	55	11
37	37	5
62	68	1
48	50	1
18	18	7
5	40	2
68	71	3
32	33	3
41	41	16
40	47	1
4	6	3
31	31	4
0	5	1
19	20	1
20	33	4
27	30	2
24	29	1
31	34	2
3	5	2
25	44	5
39	63	1
25	40	1
6	8	1
8	38	1
24	25	2
23	24	3
28	34	1
22	34	2
36	38	1
73	75	5
20	55	4
71	72	3
19	42	2
38	68	4
50	62	3
50	70	1
7	19	2
22	23	3
22	26	2
3	4	2
18	19	3
36	37	3
10	45	1
30	41	1
5	13	1
51	53	1
5	42	2
46	65	1
66	66	4
39	51	1
22	44	1
3	44	2
34	75	1
4	36	1
44	45	1
59	67	3
25	27	2
75	76	1
53	74	1
41	45	1
51	52	1
0	0	3
62	63	1
11	12	2
41	42	1
2	11	1
28	29	1
23	26	1
4	5	2
4	9	1
22	39	2
24	30	2
67	77	1
73	76	1
68	69	2
12	13	1
4	45	2
68	70	1
12	48	1
30	69	1
52	62	1
41	62	2
9	72	1
9	11	1
