51	51	53
62	84	1
80	80	23
83	87	4
78	79	2
83	84	3
58	58	31
25	25	30
73	73	27
90	90	48
94	101	1
39	41	2
92	96	7
52	52	33
96	96	12
99	99	35
68	69	8
50	59	1
54	54	20
61	61	26
62	62	30
55	55	55
53	53	30
79	80	15
90	92	1
40	52	2
67	68	17
71	71	49
79	79	16
51	55	5
34	45	3
41	41	38
67	100	1
79	85	2
68	78	4
64	64	33
80	86	5
78	78	31
66	67	19
68	68	31
93	93	43
43	43	44
41	42	21
23	38	2
85	85	32
80	82	8
50	51	7
95	95	19
91	91	50
47	60	4
31	31	4
57	57	26
39	43	5
20	20	2
56	56	26
35	36	9
62	63	9
80	81	20
67	67	39
65	65	31
35	35	23
93	94	13
58	59	17
63	64	12
36	38	2
39	39	35
100	100	32
57	59	3
42	43	7
77	77	52
82	82	9
91	93	4
98	98	40
91	92	11
86	88	15
30	30	9
46	46	31
70	70	35
59	59	38
63	63	38
35	48	6
60	60	26
89	90	14
77	101	2
89	89	24
35	38	4
50	50	26
24	25	12
34	34	24
76	76	46
83	83	7
95	96	8
94	97	6
66	66	29
93	97	4
96	97	8
85	86	19
22	28	2
69	70	18
32	60	4
69	69	36
37	37	14
86	86	26
81	87	1
32	32	5
84	84	16
81	81	33
55	56	3
72	75	2
57	58	2
52	54	1
46	57	4
92	92	30
40	41	7
40	40	24
24	26	2
81	82	5
83	89	2
94	98	15
44	44	30
64	69	4
44	86	4
38	39	7
75	75	26
50	63	1
87	88	8
88	89	8
72	84	3
48	48	42
42	52	4
81	84	2
48	49	10
56	69	1
43	45	6
92	93	14
44	45	9
64	71	3
34	35	11
31	48	3
27	27	12
31	60	8
49	49	36
47	48	9
56	68	3
54	55	6
87	87	13
46	47	4
47	47	29
52	53	12
65	68	1
63	90	5
62	73	13
61	62	16
93	98	4
23	24	4
36	36	19
97	98	5
84	88	4
85	99	5
60	62	6
24	24	5
33	35	2
98	101	3
71	77	2
78	81	3
72	74	5
63	93	5
22	22	7
43	44	10
88	88	11
73	74	13
49	50	14
35	57	1
92	95	2
42	42	30
65	67	8
74	74	27
53	54	6
101	101	19
33	33	14
82	88	2
56	76	3
65	66	20
34	48	1
66	90	1
72	73	17
31	32	2
28	28	3
99	100	20
51	52	16
52	56	3
26	26	14
40	42	3
70	79	2
57	73	3
58	62	5
73	75	2
59	69	3
72	72	24
23	23	4
49	58	3
65	69	3
71	72	4
44	70	3
69	71	5
80	83	3
88	93	2
86	87	7
84	98	6
92	94	3
70	71	11
94	95	3
82	84	3
47	58	2
23	39	1
63	73	3
43	101	6
45	45	17
77	78	15
46	49	1
73	78	3
98	100	9
22	31	4
50	75	1
56	60	3
63	65	1
97	97	31
52	73	3
25	31	2
55	57	4
76	77	15
64	74	2
32	33	3
44	56	1
36	37	4
64	65	8
81	86	1
26	27	4
74	75	10
60	64	1
43	100	3
38	82	1
67	90	2
94	94	20
67	91	2
57	67	3
56	57	22
46	48	3
54	57	2
47	75	3
90	91	6
81	83	5
62	92	3
32	61	1
44	49	1
25	55	3
60	68	1
34	36	2
70	73	5
93	95	2
67	101	3
44	50	1
75	76	6
51	53	4
91	95	3
35	45	2
72	89	2
45	73	2
98	99	3
55	60	5
33	36	3
84	100	4
64	70	2
53	60	1
49	52	3
74	95	2
60	61	6
24	27	4
78	86	2
42	44	1
52	62	4
84	87	3
74	78	1
67	95	1
97	99	4
70	76	2
66	68	1
54	61	2
59	65	2
56	77	1
26	29	1
38	38	4
59	90	1
59	68	4
39	46	1
71	73	5
45	46	5
62	74	5
72	77	6
57	66	1
39	40	9
58	64	2
100	101	3
64	92	3
48	50	4
64	68	7
99	102	1
78	80	1
74	77	2
85	90	1
53	99	1
67	69	3
102	102	7
71	76	3
46	58	4
67	75	1
61	69	3
42	72	2
91	96	2
37	39	1
67	72	2
90	101	2
66	77	1
101	102	6
68	72	2
70	78	2
52	60	2
44	75	1
69	72	4
29	29	8
44	51	2
52	55	3
38	40	1
51	59	1
72	78	6
59	64	1
72	91	3
96	100	1
62	70	3
45	50	3
71	78	5
21	22	1
39	44	2
41	46	1
40	57	1
39	76	1
95	100	1
59	61	3
72	93	4
63	70	3
25	54	1
66	69	1
27	28	3
60	67	1
47	59	1
42	70	1
55	61	1
89	97	2
64	67	4
43	51	2
86	89	2
56	64	1
70	72	2
59	60	5
56	58	1
93	96	1
50	52	2
84	86	2
74	79	2
22	37	1
47	49	1
48	70	1
37	38	2
72	90	2
62	64	2
87	96	1
82	85	1
95	97	1
59	63	3
33	44	2
72	76	3
85	89	1
64	90	1
42	69	2
41	44	1
45	57	1
47	50	1
86	90	1
93	101	1
51	57	1
72	83	3
72	86	1
52	70	1
56	70	1
46	76	2
94	96	2
82	83	3
39	75	2
59	85	2
51	92	1
42	57	1
94	100	1
67	71	2
71	79	1
24	33	1
43	69	1
72	80	1
73	92	1
69	98	2
84	95	2
22	29	1
32	59	2
48	51	2
50	58	1
45	51	2
45	70	1
54	60	1
30	50	1
79	86	1
41	72	2
38	83	1
72	92	3
44	55	2
99	101	1
67	74	2
25	26	1
59	62	1
60	73	2
37	81	1
93	100	1
83	88	1
54	56	1
33	34	1
89	91	1
63	92	1
69	86	1
51	56	1
81	88	1
48	77	1
61	73	1
31	59	1
