9	10	7
9	9	11
5	6	7
16	18	9
4	5	1
11	11	40
116	117	7
72	72	25
40	42	2
34	35	4
91	92	9
96	96	16
81	81	18
74	74	13
133	133	4
63	63	23
28	28	9
56	56	15
54	55	2
132	132	8
20	20	8
44	44	9
128	128	10
20	21	5
97	97	19
78	79	5
119	119	16
61	61	22
27	28	6
121	123	2
76	76	23
45	45	14
47	59	2
71	71	4
125	125	15
23	23	6
29	29	19
23	24	3
62	62	6
124	124	11
59	59	7
120	120	11
36	36	12
0	1	5
27	31	2
26	26	16
32	32	22
94	94	11
90	114	3
22	22	7
106	106	2
19	19	20
59	85	1
60	60	18
7	7	11
31	31	21
94	95	8
15	16	7
33	34	3
13	77	1
104	104	8
8	8	16
131	132	5
10	10	21
66	66	11
109	109	5
65	65	10
19	31	1
101	101	19
16	16	18
37	37	14
35	35	27
17	17	8
114	114	5
82	82	18
69	69	17
72	73	9
41	41	8
68	70	2
21	21	14
88	96	2
0	0	7
99	100	3
73	74	6
75	75	17
110	112	5
61	62	5
79	80	2
57	58	6
74	86	1
10	63	2
98	102	3
90	90	6
24	24	11
46	46	14
73	73	12
60	75	5
80	80	8
85	85	10
107	108	8
27	47	2
91	91	9
93	95	2
89	89	8
59	70	6
44	45	4
133	134	9
126	126	2
20	24	1
112	113	8
108	117	3
65	66	3
69	70	2
84	126	1
27	92	2
110	113	4
75	76	7
18	18	15
22	35	2
111	111	13
29	31	1
82	113	2
12	13	6
129	129	7
107	107	4
22	112	3
98	99	5
68	68	15
27	37	1
64	64	14
117	117	7
12	12	8
123	123	6
27	27	16
58	58	7
118	118	8
90	91	5
84	84	11
42	42	4
28	117	2
74	75	3
112	112	5
90	92	1
6	6	8
76	77	6
28	32	3
81	82	3
96	99	8
8	27	5
51	55	2
8	9	3
14	14	3
11	93	2
46	47	8
7	8	8
16	26	3
3	46	4
10	47	4
85	86	7
25	25	15
113	113	9
86	89	4
102	102	7
34	34	19
68	69	9
83	83	16
117	118	2
9	63	3
127	132	2
10	12	9
33	33	14
21	85	3
95	102	1
119	120	3
37	38	3
4	45	1
83	113	1
7	27	2
28	29	3
63	64	11
78	78	9
70	70	9
39	48	1
98	98	9
131	133	3
10	21	1
99	99	13
103	103	12
47	47	18
107	117	2
119	124	2
93	93	11
25	82	3
84	86	2
11	12	8
108	134	1
115	117	3
23	86	1
15	15	11
104	105	2
5	5	3
124	125	2
45	46	4
54	54	1
100	100	3
87	87	10
122	122	15
42	43	3
121	121	4
74	77	3
34	46	1
116	116	10
84	93	1
129	130	3
19	20	2
16	36	1
27	78	4
78	81	7
77	77	10
7	73	2
27	93	3
21	56	5
40	41	3
39	39	4
26	35	2
86	86	9
110	110	15
57	118	2
16	31	1
43	43	5
14	28	1
11	95	2
95	95	16
92	92	4
15	77	4
25	27	2
26	92	3
130	131	7
120	121	3
11	82	2
93	94	7
134	134	9
63	71	3
48	48	3
93	103	1
79	79	15
36	43	3
37	48	4
2	2	3
19	107	3
33	77	4
8	10	4
90	93	1
3	3	14
8	29	3
20	22	1
27	79	1
105	105	3
95	99	3
92	93	3
82	83	5
41	42	1
51	57	3
20	30	2
12	95	1
67	68	3
49	49	4
73	129	2
87	88	3
29	60	1
130	130	5
109	110	4
2	45	1
56	57	2
15	36	3
47	48	3
26	38	4
24	82	1
65	76	2
94	100	2
27	89	1
20	38	2
118	119	4
28	118	2
17	33	3
17	48	3
55	55	5
29	49	4
59	60	2
120	123	1
35	75	3
58	59	2
39	41	2
34	66	1
121	128	1
66	75	1
17	18	5
38	40	1
29	48	2
86	114	2
120	122	2
123	124	4
115	115	7
76	86	2
6	44	3
4	4	1
67	67	2
62	65	4
38	38	2
62	63	4
93	117	1
85	111	1
26	33	1
40	48	2
28	80	4
46	74	1
95	109	1
80	82	4
103	105	2
40	45	1
12	19	2
111	112	3
7	83	1
55	56	2
37	81	3
71	72	6
16	29	2
125	127	1
96	110	1
7	46	2
22	23	4
26	74	1
31	32	3
60	61	3
38	42	2
108	108	2
56	130	1
15	26	2
30	49	3
27	97	1
13	13	1
29	33	1
3	4	1
36	38	3
57	57	5
90	117	2
7	36	2
82	85	1
82	94	3
25	35	1
89	100	1
77	83	1
16	23	2
20	110	1
48	55	1
36	83	2
6	10	1
96	97	2
9	14	3
15	24	1
77	78	4
30	30	4
23	74	1
2	30	2
33	35	1
95	110	1
34	36	2
3	87	2
26	27	3
35	36	2
79	81	1
7	63	3
18	19	1
77	100	1
93	99	1
4	101	1
80	85	1
9	11	1
70	71	1
8	15	1
121	124	1
43	45	1
38	54	1
27	75	1
17	34	1
95	96	1
20	36	2
11	35	3
2	3	1
26	110	1
28	96	1
121	122	1
95	98	1
97	98	2
30	31	4
7	26	2
29	30	1
48	100	1
86	87	1
125	126	1
1	1	1
28	97	1
25	79	1
14	35	1
88	88	1
89	101	2
46	48	1
8	47	1
114	116	1
8	86	1
98	103	1
19	35	1
46	118	1
16	30	1
27	36	1
32	33	1
37	78	1
6	45	2
47	88	1
29	47	2
87	113	2
7	84	1
113	123	1
32	96	1
5	92	1
127	127	2
94	97	1
12	25	1
58	75	1
66	83	1
106	107	1
85	89	1
84	88	1
86	97	1
51	54	1
110	116	1
27	29	1
103	106	1
9	74	1
130	132	2
20	35	1
26	46	1
84	85	1
100	101	1
122	123	1
17	69	1
91	93	1
62	64	1
11	96	1
36	37	1
6	46	1
87	94	1
29	59	1
97	103	1
24	83	1
