62	62	24
38	39	2
43	56	4
68	68	15
39	40	4
22	33	2
21	42	1
55	55	13
26	26	7
0	22	1
21	22	1
22	31	5
40	54	8
51	51	16
50	50	18
34	34	9
25	28	18
64	64	8
53	54	6
47	47	13
60	60	6
60	61	3
39	42	3
49	50	7
42	65	5
33	33	19
63	63	14
11	11	10
56	56	17
46	56	1
35	35	7
3	7	3
36	37	9
51	75	2
52	52	8
2	38	4
48	48	18
25	25	15
72	73	12
51	52	5
57	59	5
4	28	3
21	32	3
40	41	5
73	74	3
41	41	14
2	2	15
37	37	5
30	30	10
54	74	1
69	71	3
22	23	8
28	28	15
32	33	5
44	45	12
31	44	5
65	67	13
41	57	2
5	5	19
37	52	1
74	74	14
49	49	4
21	39	3
26	27	7
39	41	6
29	29	3
57	58	1
43	43	11
75	75	12
10	10	12
55	68	3
73	75	3
54	54	3
40	42	4
72	72	9
50	51	4
42	43	4
63	64	3
52	53	3
68	69	13
30	31	4
61	61	3
33	34	3
3	3	15
62	63	7
33	59	7
43	60	2
18	18	5
24	25	3
11	12	3
69	69	3
1	1	9
57	57	10
8	8	7
77	77	11
43	44	1
66	67	4
3	4	7
2	5	3
22	22	16
73	76	7
53	75	2
34	37	1
19	19	19
33	39	3
42	42	19
67	67	14
24	30	2
54	56	2
48	77	4
71	72	4
35	40	3
21	21	11
44	53	2
65	65	2
0	0	20
2	13	1
27	27	6
45	51	3
43	74	3
20	20	5
3	47	1
23	23	16
38	65	1
43	45	1
70	71	7
58	58	5
70	75	3
6	8	7
53	53	9
11	13	5
8	9	4
48	49	2
31	49	2
40	58	1
13	36	4
22	28	2
6	6	10
39	39	7
26	28	7
31	31	12
70	70	13
5	6	4
36	36	10
6	13	7
55	56	4
43	52	2
66	66	12
8	12	8
12	67	1
14	26	5
7	8	10
4	4	7
45	46	3
14	14	1
12	54	1
32	32	4
47	56	2
34	35	1
19	46	4
6	7	2
2	4	2
38	38	12
61	66	4
68	70	2
24	24	11
45	45	9
9	9	6
44	47	3
53	58	2
12	12	6
58	67	1
40	57	3
18	55	2
13	13	6
58	59	9
59	61	1
13	55	1
52	54	1
41	42	6
40	40	6
73	73	10
40	75	3
21	33	1
65	66	7
48	63	3
39	57	3
0	1	3
37	38	4
3	13	4
32	53	1
27	30	1
44	46	2
21	61	1
19	21	1
70	77	2
59	59	15
23	25	2
32	41	3
44	76	4
62	64	4
39	48	2
45	47	2
27	28	3
54	55	2
58	60	1
23	29	3
30	49	4
66	73	1
64	67	2
25	26	5
13	21	2
44	58	2
37	54	2
44	65	2
4	5	1
56	57	2
10	11	6
58	66	2
21	29	2
13	23	5
12	55	5
35	36	3
44	44	8
58	61	2
10	46	1
4	24	2
32	51	2
38	52	1
38	69	1
61	64	2
31	33	2
1	5	2
51	55	1
35	54	2
45	56	1
45	57	1
7	10	2
49	64	2
18	19	1
57	64	1
10	47	4
1	2	1
29	45	2
23	24	1
7	7	7
50	76	2
10	45	1
32	42	1
39	76	4
43	47	2
47	76	1
64	65	1
31	41	1
10	20	1
49	51	2
3	73	1
37	47	1
29	30	1
26	64	2
28	30	1
71	71	7
49	75	3
47	51	1
9	11	1
11	20	1
75	76	1
34	43	2
47	48	4
76	76	3
35	57	2
42	76	2
43	48	1
44	73	1
40	76	1
18	54	2
3	5	1
24	26	2
2	36	1
34	54	2
35	37	2
9	10	3
5	40	1
66	68	1
5	24	1
22	38	3
69	73	1
0	47	4
45	60	1
46	46	1
39	47	2
29	55	2
47	54	1
48	65	1
30	50	1
51	76	1
35	48	1
74	76	1
2	29	1
22	26	2
72	77	2
53	73	1
59	63	3
12	21	1
30	54	1
34	36	3
14	31	2
59	70	1
21	63	1
19	20	2
25	32	1
59	60	1
55	57	1
53	57	1
67	68	1
58	68	1
48	67	1
52	66	1
57	61	1
76	77	1
61	65	1
