133	134	4
54	54	14
141	141	16
113	113	12
40	40	29
15	15	9
103	103	6
91	91	9
37	37	15
134	134	25
22	37	4
31	32	4
26	27	2
27	27	14
37	81	2
93	93	9
28	28	27
39	39	4
41	41	11
138	138	5
10	10	8
80	80	14
120	141	1
136	136	7
92	93	1
54	87	2
35	36	9
61	61	19
101	101	10
117	117	9
20	21	9
60	60	21
85	85	12
145	145	31
0	34	1
13	13	10
109	109	10
87	113	1
146	146	1
68	68	12
142	142	7
120	120	11
2	2	14
99	110	7
26	26	15
130	130	23
70	70	19
59	60	11
38	38	10
121	121	27
124	124	12
119	120	6
60	101	2
133	133	11
28	29	4
48	75	4
114	122	2
84	85	3
123	140	4
81	90	2
107	108	5
116	119	6
139	139	21
89	90	7
35	35	8
82	119	8
98	130	1
34	37	4
139	141	4
57	73	2
35	37	4
68	69	2
92	121	2
67	67	2
129	129	21
59	79	3
20	20	22
95	99	1
137	137	8
3	3	10
50	51	3
74	74	13
51	52	3
66	106	1
138	139	6
13	32	3
81	81	2
135	135	8
19	19	15
72	73	6
129	130	4
66	66	4
130	131	7
118	119	7
11	30	1
30	30	11
120	122	4
55	144	3
104	104	7
114	114	5
23	24	2
63	64	4
72	72	12
18	67	3
64	65	6
53	87	6
49	49	15
55	55	16
99	99	12
27	28	3
100	100	4
101	127	1
62	72	4
14	14	2
131	131	13
29	29	8
32	52	1
115	115	8
9	9	9
140	140	10
127	127	9
49	121	2
55	85	4
4	12	3
61	62	4
74	79	1
53	54	5
24	127	3
112	113	4
98	103	6
110	111	3
143	143	14
66	90	7
127	128	1
54	82	4
13	15	5
123	130	3
19	26	2
52	53	3
122	139	4
120	126	2
62	62	5
32	33	2
48	55	6
54	63	4
21	30	3
31	52	1
124	125	2
46	47	1
22	22	12
77	78	4
119	119	22
78	78	9
40	41	3
128	128	16
82	82	6
80	100	1
128	129	3
94	115	4
64	64	12
108	109	3
36	37	6
113	115	4
41	118	2
96	96	13
10	12	5
127	132	5
1	74	3
136	137	3
136	140	5
36	49	1
10	118	1
17	67	3
87	109	5
96	137	4
95	95	19
32	60	4
58	58	7
47	48	5
29	124	6
69	69	11
57	57	10
18	18	5
73	73	16
51	53	2
19	36	6
17	17	3
54	122	1
131	133	2
122	140	4
96	115	2
69	70	15
79	79	15
109	110	4
23	27	3
34	35	4
56	75	2
100	101	3
96	136	1
137	139	7
70	139	4
134	135	4
81	82	2
38	39	3
24	24	11
98	99	1
5	5	6
16	16	7
76	76	4
105	105	5
138	140	8
20	26	7
85	86	5
57	71	3
48	48	5
105	106	2
111	111	11
75	76	3
107	118	2
20	142	2
18	19	2
10	141	4
88	88	2
82	83	9
77	77	10
123	123	9
63	63	3
98	98	8
71	71	4
102	102	5
123	135	4
122	122	4
36	36	5
65	90	1
122	123	8
65	72	1
81	116	1
17	41	3
125	125	14
90	95	3
25	25	18
116	116	5
78	81	4
21	21	9
136	139	6
80	90	1
77	103	4
62	64	2
131	132	4
4	4	4
90	113	1
107	107	9
11	21	2
78	99	2
93	94	4
126	126	11
70	72	4
39	41	2
27	144	4
100	124	1
61	72	2
16	18	2
118	118	8
33	33	6
76	78	3
53	123	2
17	18	6
70	140	2
88	90	3
137	138	6
113	132	2
65	65	6
49	50	5
68	101	7
101	102	1
74	85	3
11	117	1
59	59	2
2	3	3
19	22	2
137	140	3
61	63	2
78	106	1
32	32	11
86	87	2
74	75	1
42	47	1
84	84	13
90	107	2
69	91	2
10	24	3
83	83	3
98	133	2
86	86	9
88	115	3
106	106	5
14	16	7
57	72	6
57	77	4
69	139	1
53	108	3
19	35	3
0	0	6
98	137	4
60	131	6
74	104	2
5	39	5
74	77	3
56	144	3
33	34	2
96	97	2
67	141	4
81	124	3
115	116	3
21	22	1
55	56	1
61	107	2
47	47	4
65	68	7
6	10	1
19	21	3
68	140	4
60	79	9
82	87	1
123	131	5
34	34	4
12	87	3
50	50	4
92	94	4
90	90	5
11	11	3
95	111	4
56	56	2
71	97	1
18	128	4
67	68	1
56	123	1
53	53	6
90	108	2
115	120	2
62	63	5
54	55	2
31	31	2
30	38	5
8	8	3
92	92	9
31	51	3
94	94	5
51	51	8
1	23	2
120	121	1
99	135	1
42	42	1
104	109	1
112	112	1
120	128	2
95	141	2
76	77	3
5	30	2
8	42	1
94	117	1
13	14	1
62	66	1
1	1	3
93	122	3
135	137	2
88	116	1
14	15	2
35	43	2
6	83	2
57	74	4
43	81	1
10	117	1
104	133	2
38	112	1
24	128	1
23	127	1
43	43	2
58	59	3
10	119	1
27	145	1
132	132	10
23	23	3
20	36	2
143	144	3
58	71	2
105	118	1
52	63	7
81	118	3
15	16	1
76	79	2
83	118	1
95	98	1
77	82	3
104	105	3
61	65	1
71	72	2
144	144	8
11	15	2
121	130	2
60	61	1
14	99	3
11	118	2
97	97	2
43	47	2
98	135	1
139	140	3
68	103	1
58	61	2
92	109	8
33	37	1
10	36	1
3	4	2
114	115	2
108	108	2
80	94	2
67	90	1
42	100	1
84	114	1
49	65	1
95	125	1
113	114	2
14	120	1
4	76	3
51	64	3
135	136	1
122	129	2
21	142	1
121	122	1
82	109	1
52	52	2
75	75	2
17	101	2
21	26	2
57	62	1
96	105	1
125	126	1
95	96	1
60	100	1
134	137	1
26	142	2
58	72	1
126	127	2
97	104	1
59	61	1
41	126	1
109	111	2
9	10	1
10	75	1
106	124	2
56	110	1
91	92	1
3	13	1
121	137	2
27	32	1
68	116	1
123	125	1
97	98	1
70	129	2
136	138	1
99	102	1
141	142	3
2	47	1
123	124	1
96	98	2
28	128	1
3	20	1
87	93	1
53	55	1
9	22	1
83	108	1
129	133	2
65	66	1
33	88	1
77	112	1
13	36	1
