126	169	2
70	71	2
19	67	1
3	3	22
39	39	10
143	143	7
36	36	8
14	14	23
92	92	4
122	123	2
12	12	10
55	56	4
6	6	17
31	32	4
16	16	5
85	85	7
79	79	4
83	83	7
146	146	14
8	10	5
61	61	2
110	111	3
125	125	4
63	63	15
96	96	1
97	98	7
115	115	12
112	112	5
137	138	4
113	113	11
53	53	10
172	172	13
52	52	3
50	51	5
123	130	8
18	21	2
22	22	10
152	152	4
166	169	3
128	128	7
5	9	3
62	132	3
38	38	16
161	161	6
21	21	5
64	64	5
67	67	7
179	179	5
31	31	11
143	146	1
13	13	14
85	86	6
93	93	7
52	53	2
135	135	13
139	139	8
5	5	13
76	76	9
30	31	12
32	32	13
10	11	8
115	118	6
4	5	7
106	108	2
99	100	11
158	158	5
51	54	3
101	109	6
42	42	13
115	116	1
8	9	5
24	24	12
141	141	7
75	77	2
154	155	5
160	160	3
0	0	10
7	7	9
4	4	13
169	169	7
140	140	3
24	26	12
80	80	7
82	82	6
2	8	3
135	167	2
147	147	8
120	120	13
98	98	10
168	179	2
167	167	12
51	59	2
82	91	1
72	72	21
18	18	8
114	114	7
108	109	8
145	176	1
71	75	2
40	41	3
62	62	9
102	102	7
110	110	3
81	101	3
104	107	6
150	150	8
153	153	10
116	116	8
2	4	5
95	108	1
151	157	2
131	131	11
17	17	17
21	22	5
148	148	4
133	133	6
155	156	2
28	29	2
23	29	2
174	174	7
131	153	5
103	103	8
121	121	9
125	126	8
138	139	3
137	137	14
26	26	6
151	151	9
116	152	1
7	83	5
142	143	1
33	33	13
108	108	6
75	75	10
78	78	3
23	24	6
125	152	1
157	157	7
173	173	8
111	111	3
2	75	1
45	45	5
68	68	1
15	33	1
149	149	5
6	10	1
19	19	10
101	102	1
27	30	3
2	3	4
106	106	2
129	129	3
41	41	9
2	6	2
14	16	3
155	155	8
77	114	1
152	153	3
35	35	11
130	130	6
123	125	2
98	101	1
112	124	2
99	99	5
126	136	2
81	91	2
54	55	2
3	4	5
11	11	7
54	54	5
116	117	5
165	166	6
121	122	3
158	159	6
39	40	7
35	36	8
121	148	1
107	107	7
94	94	8
107	111	1
142	142	22
1	1	2
26	31	1
17	29	2
42	43	1
41	72	3
96	98	3
3	41	1
120	163	4
13	51	3
27	28	3
38	39	1
95	96	4
170	170	3
9	9	6
120	154	4
129	130	5
20	21	1
17	18	7
57	96	2
120	121	1
74	74	5
102	114	2
81	83	3
20	20	12
86	87	3
44	45	9
1	2	3
51	51	5
135	158	5
97	97	2
27	27	10
121	150	1
18	19	6
144	144	5
134	134	8
164	164	7
132	178	1
41	42	3
60	60	6
107	109	4
88	89	4
159	161	1
157	158	5
132	132	4
50	52	2
29	29	10
166	166	9
169	171	4
126	126	7
160	161	1
178	179	3
57	59	2
59	59	4
171	171	4
76	78	1
18	35	3
15	15	5
58	80	2
131	132	5
87	89	3
164	165	5
62	63	2
0	1	3
132	146	2
4	9	2
71	71	3
117	117	9
149	150	3
105	105	3
84	84	6
178	178	1
141	145	4
129	152	2
49	49	2
174	176	1
117	119	4
135	136	7
18	20	3
81	81	2
161	162	6
25	25	11
26	27	2
127	127	5
130	131	4
50	50	1
140	141	4
43	43	17
28	28	6
96	97	4
178	180	5
119	119	3
159	159	6
40	40	11
154	156	2
87	90	2
176	176	18
174	175	2
100	114	2
19	20	6
102	106	3
102	160	3
75	76	1
4	31	1
175	176	1
8	11	5
24	27	4
9	13	1
33	34	2
30	30	7
145	145	4
177	178	6
91	91	4
71	73	1
129	165	2
38	102	3
171	174	3
2	10	2
21	28	2
10	10	17
104	157	3
113	152	3
144	145	4
156	156	7
90	93	3
132	154	1
123	153	2
151	154	1
6	22	3
19	33	2
15	31	2
127	129	3
128	129	2
140	142	1
129	140	2
94	96	1
84	85	4
152	155	4
58	58	1
122	122	3
144	146	1
85	88	2
5	7	2
37	37	3
16	17	3
78	167	7
61	121	2
31	35	2
114	115	1
144	147	1
153	154	2
7	8	3
66	67	2
132	133	4
53	137	2
116	154	1
26	28	3
126	127	5
43	44	3
146	147	2
56	56	5
104	104	15
168	168	1
8	8	4
12	13	9
112	114	2
102	103	2
125	153	3
91	93	4
68	73	2
132	147	4
131	134	1
158	177	1
90	94	2
37	39	2
156	157	1
150	153	3
167	168	4
162	162	3
24	25	4
15	35	1
105	126	1
109	109	2
87	87	3
5	6	3
80	81	4
53	54	9
38	42	1
171	172	3
17	32	1
73	73	4
98	99	2
88	93	1
88	88	5
163	165	1
4	7	5
163	163	5
4	8	1
58	60	1
4	12	2
5	8	2
7	9	2
165	165	3
60	61	5
94	95	1
83	88	6
65	65	1
65	71	3
70	74	1
107	108	4
164	167	2
91	92	1
95	95	7
65	125	3
138	138	8
94	97	1
2	23	1
103	105	3
3	23	3
23	26	1
31	33	1
100	100	3
22	23	1
65	66	1
130	171	2
79	81	3
136	136	1
116	122	2
103	112	4
9	12	2
73	74	5
10	13	1
31	74	2
19	21	4
147	150	1
22	41	2
50	57	2
15	16	4
173	174	2
180	180	1
123	123	4
44	44	4
78	79	1
22	30	1
86	86	2
153	155	2
114	116	3
87	88	1
114	146	1
64	65	2
106	111	3
23	23	2
169	178	3
16	128	1
145	148	1
101	101	5
93	94	3
80	91	1
8	41	1
2	38	1
15	65	3
20	27	2
102	119	1
49	50	1
124	125	2
122	164	3
4	30	3
119	120	2
170	171	1
99	101	1
113	115	3
90	91	1
124	124	2
20	22	1
89	89	3
172	173	2
121	151	1
142	145	1
71	72	1
122	147	1
27	29	1
6	7	1
62	133	1
154	154	3
32	33	2
127	128	2
53	55	1
92	97	1
134	158	1
141	142	3
156	158	1
122	124	1
163	164	1
119	121	3
174	180	1
92	94	1
58	59	1
67	68	1
115	152	1
36	37	1
8	14	1
90	90	2
20	66	1
26	33	1
36	38	1
163	167	2
175	175	4
28	31	3
3	8	1
34	34	1
39	42	1
127	131	2
2	2	4
77	79	2
117	118	2
125	151	1
118	146	1
140	176	2
82	85	1
133	134	2
15	19	1
67	87	1
115	119	1
105	110	1
23	30	1
124	151	1
144	176	1
66	66	1
111	114	1
118	119	1
8	33	2
147	148	1
37	38	2
44	46	1
167	169	1
33	75	1
21	66	1
112	115	1
124	174	1
3	13	1
104	158	1
122	167	1
88	90	1
150	154	1
29	32	1
19	28	1
99	170	1
0	8	1
106	163	1
92	93	1
