108	108	5
86	86	6
104	106	2
99	109	2
41	42	1
40	41	2
73	75	4
26	27	6
72	76	4
78	103	3
93	93	3
53	74	1
65	67	3
104	105	8
28	28	9
74	74	15
99	101	3
34	34	8
73	74	3
103	103	5
35	35	4
44	50	2
109	110	5
74	77	2
80	80	3
68	98	1
95	95	16
101	102	7
71	71	10
58	59	5
103	105	4
26	112	3
82	85	1
89	90	10
56	56	15
23	23	7
21	81	2
37	37	11
100	113	2
65	68	1
24	24	8
40	46	3
77	77	17
51	51	3
73	73	19
29	29	11
74	75	7
102	102	12
41	41	8
47	49	2
90	90	14
39	39	5
94	94	23
113	113	12
64	66	3
110	110	14
80	96	1
53	54	2
68	68	6
22	22	11
66	67	9
89	101	2
103	107	5
76	78	4
44	45	6
31	40	2
58	58	15
104	104	4
72	72	4
106	106	7
98	98	11
43	43	13
111	111	12
91	91	11
114	114	4
53	53	10
97	97	15
84	84	13
81	81	7
35	41	3
78	78	13
27	27	8
28	37	3
30	30	10
62	62	13
74	79	1
87	103	2
46	51	2
61	62	4
59	60	1
39	52	2
50	50	4
73	83	1
106	107	7
60	60	14
105	105	16
80	97	3
44	98	3
47	47	13
96	98	5
22	24	1
86	90	2
21	21	6
76	76	16
92	93	10
85	86	8
99	99	12
97	98	5
45	45	12
72	89	2
19	23	1
55	58	3
95	109	1
81	89	3
81	83	1
87	91	1
96	96	4
109	109	4
67	67	5
54	55	3
69	80	3
55	55	4
112	112	10
70	70	9
72	74	4
55	92	1
84	85	7
100	100	15
86	91	5
107	107	3
79	79	3
52	52	8
30	31	3
49	49	9
82	102	2
63	63	3
54	54	4
89	89	3
72	90	1
101	103	4
98	99	7
46	46	7
69	70	2
102	108	2
113	114	1
75	78	1
30	36	1
39	40	7
55	57	2
90	91	6
111	112	1
37	62	1
55	56	7
41	49	2
80	87	1
104	111	2
42	66	1
30	40	2
79	80	1
20	20	7
76	77	4
62	72	2
31	37	3
53	58	3
101	107	1
70	78	1
69	88	1
89	100	2
88	89	2
39	41	1
54	57	1
48	48	4
32	32	5
43	44	5
85	85	10
56	103	2
77	94	1
69	69	7
43	46	1
74	85	3
41	46	1
75	75	8
37	53	2
63	64	6
65	65	8
26	26	6
31	31	2
62	64	1
87	87	9
44	47	1
77	82	1
19	19	3
82	106	1
104	107	5
96	100	3
28	35	1
80	99	1
92	92	2
57	62	2
38	38	3
61	61	5
82	82	13
63	67	4
36	37	2
37	38	1
82	86	4
50	51	5
59	66	1
40	40	4
45	48	1
19	20	4
61	77	1
90	99	2
36	36	6
82	87	1
42	42	1
35	43	2
91	94	1
83	83	5
64	64	1
88	88	7
94	95	3
25	25	2
105	106	5
44	44	7
22	25	2
44	86	2
47	80	2
96	99	2
70	79	1
83	84	2
38	39	1
55	64	1
47	48	1
30	33	2
29	39	2
71	78	3
96	103	3
28	52	1
112	113	4
57	58	3
46	102	1
38	60	1
77	78	4
56	57	3
86	87	7
33	41	1
87	88	1
62	70	2
95	106	3
109	111	1
48	52	3
80	104	1
76	101	2
71	80	3
102	106	1
32	40	2
34	35	2
69	81	2
50	76	1
56	59	1
108	110	1
33	33	6
31	36	4
86	88	1
60	75	3
73	80	3
28	29	2
42	46	2
81	82	3
72	102	3
31	43	2
59	61	2
32	34	1
77	81	1
27	28	1
93	94	2
92	101	2
78	79	3
51	52	2
96	97	3
57	57	1
72	112	1
38	86	1
31	100	1
59	59	4
60	61	1
91	92	1
43	54	1
35	47	3
88	94	3
89	91	2
68	69	4
71	105	1
56	67	2
29	46	2
46	52	1
36	95	1
78	90	1
74	103	1
61	75	1
84	87	1
102	107	1
85	87	2
62	66	1
106	111	1
63	68	1
89	103	1
110	111	2
38	56	3
94	96	1
41	45	1
26	30	2
33	34	1
106	108	3
75	76	1
99	106	1
38	54	1
95	96	1
91	99	1
97	99	1
101	101	1
67	104	1
25	30	1
55	59	1
50	61	1
66	66	2
32	110	1
85	88	1
71	101	1
72	108	1
101	106	1
60	65	2
77	83	1
67	68	1
101	113	1
108	109	1
27	83	1
20	21	1
95	97	1
25	26	1
55	61	1
107	112	1
54	95	1
32	111	1
