145	145	14
156	158	3
179	179	19
94	96	4
137	137	7
112	112	10
168	173	3
56	56	11
138	151	3
147	147	11
47	47	26
149	149	18
51	51	9
194	195	7
135	135	13
6	6	9
190	191	3
46	47	7
122	188	1
19	19	11
156	176	3
53	53	9
160	160	14
141	141	6
146	146	21
161	161	7
84	84	11
180	180	14
163	163	5
21	22	3
12	12	24
126	126	24
95	96	3
84	85	4
70	70	3
197	197	14
36	37	14
23	23	9
67	68	20
18	22	2
119	134	3
150	150	32
77	78	2
152	152	12
32	32	12
18	18	15
183	183	19
116	116	16
108	137	1
158	159	13
102	103	5
83	83	3
121	121	20
28	28	10
41	42	6
170	170	13
117	117	14
11	12	5
17	174	2
123	123	17
44	44	28
4	15	2
108	109	5
138	140	3
192	193	7
118	118	14
33	33	21
63	63	16
28	29	5
190	190	23
170	171	7
186	186	16
187	189	7
106	106	6
54	56	3
168	168	9
9	9	19
1	1	6
130	131	5
132	136	2
5	5	11
175	175	9
22	26	7
128	129	3
129	136	4
131	131	8
48	48	32
177	178	3
167	168	5
133	133	14
128	169	2
19	23	7
3	4	7
15	15	13
9	12	6
86	86	5
30	31	15
20	40	3
41	41	23
174	177	2
36	36	4
54	55	7
44	47	2
124	124	11
24	24	14
24	25	4
55	55	7
15	17	5
128	128	13
186	187	12
175	181	3
108	111	5
152	153	5
23	44	4
10	10	14
112	113	3
178	178	11
6	35	3
111	112	11
54	54	14
130	130	9
163	178	2
193	193	24
111	113	2
24	27	2
177	177	11
3	3	15
70	71	5
1	17	1
70	93	4
26	27	4
107	136	2
64	64	7
27	27	9
76	76	8
151	151	5
134	134	11
136	138	3
12	13	11
20	20	24
141	145	9
155	156	4
50	50	28
176	176	14
187	188	13
177	193	4
130	136	3
108	135	5
191	191	11
161	171	1
105	105	15
13	13	17
99	99	12
161	165	6
130	154	1
58	58	23
94	98	1
2	37	4
109	109	5
4	6	5
183	197	3
103	105	6
4	4	13
187	187	19
142	142	12
39	39	16
33	152	5
191	192	9
162	164	8
88	88	11
160	161	7
52	53	11
64	66	1
17	182	3
153	153	11
110	110	19
162	162	3
105	106	4
27	28	5
72	73	7
138	138	18
157	157	12
188	188	19
118	119	7
22	22	12
125	126	5
129	131	3
141	148	5
192	192	28
9	10	8
45	46	5
68	68	7
143	144	6
5	6	6
45	45	16
55	56	12
8	9	8
42	42	19
129	132	5
184	184	15
43	43	15
140	140	8
194	194	10
14	156	2
23	33	4
101	101	8
113	115	1
120	121	14
107	107	7
2	2	7
165	166	10
101	111	1
38	39	8
165	165	11
40	40	22
136	136	5
129	129	15
174	174	6
107	108	6
126	127	8
172	172	6
30	30	9
87	88	3
14	14	20
7	7	8
7	18	3
183	184	11
53	54	3
97	104	1
151	154	4
180	182	2
31	32	8
154	176	2
125	127	8
37	38	1
75	89	1
114	114	19
159	159	17
9	32	1
100	101	4
13	14	12
132	132	9
164	164	10
4	16	2
28	30	3
70	73	1
164	165	9
188	190	1
127	127	14
119	119	9
109	110	8
161	164	3
172	190	4
157	174	1
167	167	6
108	108	7
133	140	3
146	148	4
171	172	13
114	115	2
136	137	2
26	26	3
0	3	4
189	189	21
16	16	12
96	98	3
193	194	5
137	143	2
134	135	11
171	177	2
136	145	3
62	62	2
185	188	4
155	158	1
133	134	11
2	3	4
47	49	2
0	0	8
144	145	7
96	96	6
124	125	2
143	143	12
48	49	5
21	192	2
107	124	4
125	125	9
111	111	4
34	35	7
15	19	3
153	154	2
132	133	3
184	196	1
73	73	9
8	8	26
35	35	15
108	117	4
14	40	2
38	38	6
26	28	2
110	111	3
195	196	5
8	42	2
74	89	5
11	43	2
100	100	13
149	173	1
185	190	1
11	11	9
159	196	1
161	162	10
154	154	14
148	183	3
104	107	3
163	164	1
120	120	4
149	150	6
14	43	4
9	14	1
164	168	4
151	152	11
129	133	1
181	181	11
184	185	4
135	136	5
138	139	8
74	74	10
169	171	2
173	173	13
108	110	1
57	57	14
59	60	5
157	158	11
160	163	6
176	177	2
29	29	9
154	156	1
56	58	1
193	195	3
34	34	8
41	157	2
138	148	4
176	180	3
82	82	4
166	166	22
81	103	2
167	170	3
46	46	22
52	52	26
102	107	1
7	8	4
171	171	9
132	135	2
37	37	10
119	120	6
22	23	7
50	51	7
14	15	7
137	144	4
182	183	15
169	170	1
152	175	1
132	195	3
98	98	3
188	191	3
157	159	5
61	62	1
152	154	7
133	139	2
146	147	2
65	65	5
168	169	6
144	144	6
150	175	2
103	103	6
4	5	5
89	89	5
185	186	2
169	169	5
185	191	2
166	171	1
138	162	2
59	59	8
103	104	2
20	21	3
116	118	7
9	26	3
155	155	10
10	183	1
32	33	1
25	25	16
58	59	4
45	47	2
115	115	5
155	190	3
82	83	6
140	141	3
162	163	2
63	64	1
181	182	7
109	116	1
177	182	2
40	45	4
78	79	3
47	48	2
42	43	3
139	139	6
1	2	7
24	30	1
180	181	2
107	111	1
64	67	1
113	113	4
121	135	1
85	85	5
14	21	4
156	156	13
104	104	6
135	146	2
148	148	5
59	61	4
18	19	7
166	167	7
122	122	10
17	18	7
49	53	1
49	50	3
169	172	2
127	128	4
117	118	3
67	67	2
72	79	8
172	187	1
158	160	3
185	185	13
178	182	3
122	123	3
15	173	1
66	68	9
25	27	2
10	11	5
60	60	5
151	153	3
186	190	2
106	107	1
178	179	4
23	24	1
6	8	3
32	36	1
134	136	4
21	21	4
70	72	1
173	174	3
0	1	4
4	22	2
118	120	2
186	188	5
172	173	3
102	106	4
190	192	7
82	84	2
95	95	5
62	63	4
163	168	2
182	182	7
158	158	8
5	9	1
8	21	7
7	28	4
111	119	2
174	175	5
77	77	4
163	166	6
138	144	2
44	69	4
150	161	4
139	144	1
169	173	3
56	65	1
93	93	7
44	45	1
10	13	1
69	69	4
87	87	4
157	183	1
114	119	1
25	26	2
153	178	2
79	79	1
147	148	3
188	189	3
72	72	2
101	102	3
16	17	5
125	136	2
4	23	2
121	122	1
43	44	5
186	196	2
19	25	2
20	22	6
107	118	2
5	7	2
179	181	4
12	183	3
154	191	2
153	188	3
99	118	1
140	167	3
104	105	5
15	48	1
143	148	1
71	71	3
140	165	1
123	125	3
83	84	4
158	161	1
99	107	5
19	20	4
49	49	10
99	100	2
151	165	2
81	82	3
56	57	3
7	158	2
13	172	2
159	161	3
145	146	1
189	190	3
137	138	2
40	41	4
190	193	1
129	137	1
76	77	5
81	85	1
189	191	2
119	121	6
156	183	2
89	94	1
99	117	3
159	160	3
67	69	2
161	163	3
167	169	2
138	142	1
25	31	1
102	102	7
29	41	1
185	187	1
88	89	2
176	178	4
53	55	1
150	167	1
5	8	4
134	139	3
140	142	2
131	140	3
31	31	2
132	153	2
129	169	1
148	174	1
129	171	2
102	108	1
15	194	1
8	19	4
54	58	4
24	26	2
39	40	3
30	38	2
33	47	1
18	38	1
20	173	1
154	155	2
96	97	2
11	42	2
165	167	4
32	37	2
155	157	3
148	152	1
113	116	2
162	183	2
142	147	1
137	142	3
141	149	2
110	117	3
73	75	1
147	173	1
156	157	4
147	159	2
160	183	1
69	87	3
94	94	1
150	195	3
142	143	2
48	50	1
168	171	1
1	3	1
121	123	3
17	17	6
186	197	2
68	69	1
148	149	1
126	196	1
113	114	2
114	187	1
123	124	1
74	75	1
79	80	2
171	176	2
126	128	1
101	107	1
195	195	2
148	150	1
138	141	1
164	171	2
0	19	1
150	151	1
57	58	2
149	172	2
25	28	1
134	137	1
179	183	1
174	178	1
131	132	1
96	103	1
66	66	2
149	151	1
22	24	1
139	140	4
85	87	1
103	107	1
56	66	1
51	52	2
179	180	1
133	135	1
144	147	2
149	194	1
4	37	1
18	23	1
102	104	1
122	124	1
3	5	1
132	134	1
34	36	1
5	42	1
94	95	1
28	38	1
5	21	1
131	166	1
29	30	2
42	44	1
2	4	1
148	181	1
144	146	1
196	196	3
77	79	1
151	155	1
134	140	1
81	81	1
89	90	1
127	196	1
112	116	1
79	81	1
121	131	1
69	93	1
130	137	1
152	177	1
57	63	1
4	45	1
114	117	1
107	119	1
158	190	1
168	172	1
141	143	1
