18	18	8
76	76	20
11	11	17
6	10	1
7	36	7
5	37	7
104	106	1
46	46	13
19	20	4
61	62	3
74	74	13
34	34	13
79	79	11
26	27	3
55	56	5
112	112	13
10	10	6
111	112	1
82	84	3
20	20	5
42	42	10
15	15	4
77	77	23
38	38	5
104	104	11
73	73	11
31	31	8
55	55	4
2	2	13
80	81	6
6	26	2
83	83	7
21	81	3
44	44	5
79	80	8
66	66	15
8	8	6
99	100	3
113	113	12
26	26	13
65	68	1
31	83	3
82	82	15
58	60	3
76	78	3
5	6	1
92	94	2
33	37	4
79	95	3
75	75	16
75	76	7
129	129	5
47	71	1
69	69	8
35	35	12
27	27	8
15	32	3
39	41	7
25	25	10
63	63	11
71	72	1
19	19	12
112	130	1
86	86	8
43	54	3
97	103	1
106	106	8
132	132	3
96	96	3
48	48	7
24	32	1
80	80	10
130	130	3
8	9	8
11	93	2
112	129	3
21	21	6
37	43	4
103	105	1
31	32	5
91	91	8
81	133	1
56	56	12
78	81	1
8	44	4
31	82	4
133	133	9
60	60	10
81	81	10
79	127	6
119	122	2
65	65	7
21	39	2
33	35	4
116	116	3
34	43	3
17	17	7
24	24	2
61	75	5
64	64	14
28	28	9
103	103	9
12	14	3
119	120	4
5	57	3
37	38	3
114	114	12
84	84	8
119	123	4
104	105	5
134	134	7
45	45	25
58	58	5
14	36	1
122	122	7
33	43	4
41	43	1
112	123	3
113	114	7
99	99	4
31	33	2
72	72	8
105	105	8
107	107	4
45	47	1
61	63	4
43	43	5
101	101	3
57	58	2
54	54	2
20	21	9
29	29	10
16	16	4
33	33	9
15	23	1
96	97	4
70	70	7
32	32	5
67	67	8
7	11	1
90	91	4
14	34	3
36	38	1
123	123	3
102	102	9
91	132	2
12	18	1
45	46	4
98	98	3
109	109	3
98	99	3
128	128	8
85	85	4
23	26	4
38	81	2
14	14	4
13	36	1
124	125	3
25	27	4
29	56	1
29	30	2
30	30	8
127	127	3
93	93	7
33	62	3
57	57	1
34	35	3
78	79	7
10	12	2
9	11	2
91	92	4
43	44	1
12	12	3
40	40	1
36	36	7
106	107	1
117	118	2
9	45	1
0	0	11
45	61	3
87	87	10
62	62	5
118	119	2
74	83	1
76	77	2
69	70	2
92	92	5
59	59	3
47	47	4
46	47	1
41	47	2
94	94	3
30	32	5
37	49	2
124	124	6
92	110	2
65	66	3
9	9	3
3	3	5
97	97	5
107	108	2
2	68	2
97	102	4
109	110	3
107	109	2
110	110	4
70	74	2
15	16	3
6	6	5
98	103	3
42	43	2
59	93	2
12	24	4
6	7	2
62	63	5
20	26	1
84	85	3
41	41	2
116	131	4
117	122	2
46	61	1
85	86	1
8	36	1
87	88	3
128	130	1
107	129	2
26	82	3
23	23	8
16	17	1
30	71	2
78	78	5
103	104	2
17	18	3
69	128	1
99	109	1
6	11	2
58	117	1
118	118	3
51	55	1
90	90	3
40	41	2
117	117	5
1	1	3
70	72	1
78	133	1
56	57	1
79	133	3
5	5	6
101	102	1
82	85	3
83	84	1
25	28	2
14	16	1
4	5	4
7	7	5
70	76	1
30	31	2
68	68	2
95	95	1
24	31	1
96	108	1
90	127	2
115	134	2
128	131	1
46	67	1
67	68	4
79	81	1
26	28	1
94	116	3
76	124	2
92	131	4
18	20	3
2	3	2
33	34	1
122	123	2
25	26	1
78	82	2
81	128	2
5	32	1
131	131	4
94	95	1
22	22	2
28	78	1
102	104	1
60	61	1
100	100	4
23	24	1
32	79	1
78	117	3
37	37	2
20	31	1
121	121	5
73	74	1
70	73	1
23	25	1
121	122	1
100	101	2
41	42	5
95	96	2
79	82	2
108	108	1
119	119	4
62	82	1
126	131	1
48	78	2
36	58	1
59	87	1
34	71	1
32	33	1
93	130	1
63	64	1
13	34	1
16	24	1
120	120	1
58	89	1
97	98	1
9	10	1
31	37	1
38	39	1
115	116	1
61	77	1
57	117	1
24	83	2
80	83	1
116	123	1
12	33	1
59	91	1
7	31	1
23	31	1
28	29	1
110	111	1
127	128	1
25	30	1
125	125	1
68	69	1
91	127	1
68	72	1
