30	40	4
141	148	4
140	140	17
157	158	10
132	132	14
65	66	11
7	10	5
153	154	11
19	20	9
157	180	3
81	81	26
165	165	22
120	120	11
77	77	13
73	74	2
153	153	18
103	105	19
114	114	18
11	13	6
85	86	7
173	173	23
30	30	33
71	71	36
28	30	6
8	25	1
86	86	19
154	154	24
16	16	53
81	83	2
134	135	15
1	4	3
146	146	23
108	108	8
99	99	17
84	95	2
134	134	20
157	160	5
110	111	12
26	28	3
24	26	8
36	36	40
123	124	7
16	41	2
90	90	14
116	117	11
88	102	4
27	27	25
39	39	22
38	38	33
92	124	4
147	147	33
5	13	2
113	114	10
122	167	2
31	33	4
113	113	14
62	62	15
115	116	11
7	108	2
84	85	4
53	90	2
19	19	26
156	166	7
23	23	21
49	49	5
132	133	9
128	128	15
66	82	4
136	136	14
16	18	8
2	17	2
168	168	22
17	25	3
8	9	25
172	172	8
142	145	3
112	119	3
21	21	17
169	169	22
136	137	2
20	20	30
102	102	19
143	145	1
91	91	21
125	125	23
109	161	7
49	50	11
135	136	24
36	37	9
140	141	8
163	163	19
124	125	15
79	79	13
176	176	27
11	11	20
42	42	18
14	14	42
104	105	4
32	32	16
139	140	7
50	50	15
2	33	3
10	43	2
86	88	4
104	107	3
169	170	9
26	58	1
18	18	21
27	29	3
133	133	24
35	35	26
67	68	7
50	71	4
29	29	31
15	15	31
109	109	37
135	135	23
3	3	24
115	115	28
62	65	4
163	164	9
22	52	2
31	31	16
20	22	6
179	179	15
51	52	4
40	40	28
53	92	1
89	102	2
127	128	6
96	96	24
84	84	17
150	150	24
5	5	32
80	86	2
118	166	3
158	158	18
80	80	23
50	114	2
167	167	13
174	175	7
101	101	16
162	163	6
39	136	3
147	148	2
28	28	24
15	19	8
7	44	4
100	100	24
99	100	4
66	66	9
6	6	44
138	138	32
98	100	4
133	148	3
59	77	3
22	22	21
59	59	26
100	102	1
142	142	26
174	174	15
143	146	3
110	114	2
13	13	26
44	45	8
123	123	11
9	12	3
74	74	15
8	8	32
9	9	18
106	106	14
170	170	5
54	54	24
81	87	3
109	162	5
36	39	2
60	60	19
55	55	12
162	162	20
35	42	2
107	118	4
25	25	42
121	121	17
151	151	18
34	124	3
89	89	14
129	129	18
124	124	17
43	43	36
175	175	9
155	155	13
92	92	20
73	80	2
2	4	7
19	51	2
65	85	5
110	110	5
149	149	24
45	45	17
14	15	11
152	152	11
18	20	16
64	64	27
91	93	4
117	130	3
7	7	23
11	12	9
171	172	8
173	176	3
83	86	1
52	53	10
130	131	10
153	156	4
33	33	30
148	148	33
39	68	11
53	65	3
12	33	8
17	17	37
37	37	26
79	80	1
53	53	32
141	141	13
167	168	9
43	44	17
159	159	22
83	83	11
30	35	2
161	162	17
72	103	3
3	5	7
74	76	2
75	75	8
72	72	12
84	86	3
115	163	8
0	0	27
72	141	2
109	110	3
21	41	1
52	52	18
167	171	3
7	9	9
127	127	23
153	162	4
76	76	17
33	38	2
105	111	1
16	17	15
153	157	6
111	111	18
100	158	2
10	10	31
97	98	10
106	107	4
139	139	11
87	89	4
177	177	17
16	63	9
156	156	13
22	23	8
154	155	8
11	30	4
28	29	12
143	144	6
103	103	15
24	24	33
131	131	10
21	32	8
94	94	23
145	146	1
35	126	5
107	107	19
93	103	2
112	128	2
112	114	4
171	171	15
160	160	23
101	113	2
119	120	9
50	51	12
93	124	1
151	165	1
127	130	1
106	173	2
7	8	5
73	73	13
159	161	4
126	126	13
14	33	6
98	117	1
40	43	4
151	174	2
117	117	13
57	57	9
45	64	1
60	61	9
114	125	1
30	31	4
76	78	12
23	29	1
76	139	1
61	61	8
27	28	17
101	111	3
136	144	4
134	141	4
126	131	3
3	7	7
12	13	15
3	4	19
156	178	1
180	180	3
6	8	5
178	178	12
122	122	18
88	89	5
162	166	4
133	134	3
45	68	5
100	157	1
11	44	6
160	161	7
2	3	12
18	25	3
28	31	4
94	102	1
158	159	4
2	2	23
112	117	2
1	3	1
139	155	2
160	164	2
5	6	13
76	86	5
44	44	25
97	100	2
15	16	10
26	26	19
100	159	1
43	64	2
144	144	25
82	82	13
170	177	1
12	12	11
128	129	3
166	166	11
13	20	3
21	23	4
56	56	16
120	123	4
22	40	1
8	15	6
4	4	23
14	16	6
23	107	1
88	88	15
98	99	6
51	51	13
64	65	12
119	119	16
90	97	1
18	66	1
6	10	1
143	143	18
19	110	1
38	39	9
76	77	8
24	30	1
17	18	4
25	70	4
17	22	5
49	94	1
30	125	2
63	66	2
116	116	5
93	93	18
65	65	13
150	151	5
143	149	5
53	54	5
1	5	10
9	10	5
101	131	2
151	154	1
163	166	8
20	21	6
3	8	4
102	131	2
66	67	12
15	36	2
89	111	8
3	6	5
34	123	3
140	142	2
145	145	20
103	128	1
157	159	3
32	33	5
21	22	2
152	157	5
54	55	9
1	1	23
172	173	3
21	108	3
112	112	10
87	87	13
24	25	6
77	79	3
99	101	10
169	176	3
37	38	8
129	167	6
14	84	4
8	34	3
114	116	3
10	11	3
85	85	9
33	43	4
0	80	4
8	11	1
83	84	5
59	61	2
58	74	1
78	78	9
143	171	2
90	108	4
112	131	7
44	63	2
44	64	5
63	65	2
95	95	19
146	172	1
23	26	3
124	175	7
77	92	4
130	130	7
68	68	16
155	156	6
25	26	10
54	59	8
22	26	4
73	146	2
33	39	2
10	23	4
95	137	2
104	106	1
97	97	10
29	31	4
10	22	1
14	23	3
49	52	6
34	34	11
91	94	2
157	157	8
41	41	14
52	129	2
71	72	5
72	73	5
108	109	1
2	5	8
100	116	6
14	24	4
98	158	6
115	167	2
61	68	3
27	30	2
118	120	6
157	170	7
115	131	7
161	164	1
31	125	1
33	41	2
93	125	4
179	180	4
50	52	1
54	138	2
21	49	1
142	153	2
105	107	1
123	125	4
73	79	2
4	7	3
13	19	2
91	108	5
144	180	2
23	45	3
80	81	8
126	127	2
35	36	3
15	20	2
61	64	3
126	130	3
107	108	7
176	177	8
8	42	2
63	64	3
142	149	3
67	67	16
154	156	6
39	40	7
139	153	6
159	162	3
174	178	1
173	175	6
170	171	8
165	168	2
104	104	7
106	108	5
87	97	1
19	50	7
31	101	2
161	161	18
61	95	1
18	65	2
87	110	4
102	159	1
35	81	1
129	130	14
90	110	5
23	42	4
18	19	5
108	118	2
82	86	3
5	35	1
41	42	6
5	8	1
151	153	3
98	101	3
142	143	5
7	14	3
120	121	7
163	172	2
36	38	1
77	78	3
164	166	3
112	162	5
176	180	1
137	138	5
27	38	5
62	63	3
152	165	1
22	30	1
31	35	4
96	97	2
126	137	3
72	140	3
110	169	2
21	106	2
56	57	2
100	125	3
94	120	2
147	180	3
29	58	1
73	101	2
113	117	2
175	179	3
78	79	2
50	91	3
31	34	1
66	84	4
9	28	1
163	165	3
137	137	16
118	163	1
118	118	4
73	112	3
146	180	3
105	166	1
9	43	2
16	19	4
146	178	2
58	58	3
118	126	1
120	126	2
122	127	2
55	56	3
24	28	2
91	92	6
50	125	3
105	105	7
130	132	1
151	155	3
12	19	2
76	81	3
146	170	1
20	31	1
15	65	1
68	93	2
89	110	1
134	144	2
88	113	1
100	117	2
15	82	1
1	2	2
107	109	6
26	27	7
72	91	3
82	83	2
103	104	2
154	159	2
88	110	1
74	112	4
177	179	3
128	131	3
31	32	5
71	143	1
8	22	1
104	149	3
4	9	2
46	46	7
168	177	3
25	104	2
12	42	3
39	138	2
26	33	2
160	162	2
161	166	1
52	93	5
93	94	10
17	64	4
77	173	1
149	173	4
72	79	4
11	34	2
95	96	2
55	138	2
15	31	4
144	145	7
14	43	1
153	171	2
171	175	1
81	95	2
112	113	3
50	54	2
3	9	1
146	151	1
40	41	4
83	87	2
89	128	3
93	175	3
15	21	1
9	15	3
152	153	5
146	175	3
134	175	3
83	95	5
13	18	1
135	140	1
29	36	1
97	114	1
146	147	2
24	107	3
62	85	5
92	93	2
100	101	3
96	115	3
29	32	3
74	77	1
81	82	3
82	102	2
139	144	2
33	136	2
57	58	5
37	84	3
87	111	2
4	41	3
34	96	1
60	79	2
37	95	1
102	103	3
5	7	1
115	118	5
12	35	3
70	147	1
155	165	1
149	170	1
18	21	2
27	147	4
155	158	1
108	162	2
97	110	1
138	142	1
126	128	4
125	127	1
4	5	4
59	60	1
27	40	2
50	94	3
158	171	1
13	33	1
31	39	2
16	68	1
121	125	1
115	117	2
74	84	2
6	9	3
22	32	2
52	92	2
102	122	1
121	127	3
26	39	1
32	42	1
142	144	2
120	127	1
157	162	4
87	88	1
7	12	1
164	164	2
101	125	2
17	21	2
98	98	4
103	140	1
56	58	1
136	143	3
108	163	3
99	124	3
143	150	3
151	152	5
63	63	3
19	21	2
150	174	1
10	60	4
132	171	2
58	59	1
58	95	1
82	94	3
157	166	1
144	149	1
55	59	1
10	26	1
132	140	1
97	111	1
57	92	1
37	43	2
98	175	3
121	141	3
158	180	3
92	94	2
153	165	1
80	82	3
170	180	2
98	116	1
10	19	2
75	78	2
45	109	1
88	101	2
44	172	1
55	57	1
4	6	2
70	144	1
134	174	2
130	166	3
32	136	2
168	169	5
57	59	1
100	131	3
145	170	1
164	167	1
10	45	2
114	131	1
38	40	1
152	156	1
33	36	3
32	96	3
12	62	1
61	86	2
14	26	1
5	10	1
72	138	1
12	16	3
145	180	1
22	39	2
59	81	1
12	15	1
81	150	1
111	113	1
15	63	2
25	71	2
87	112	2
114	117	2
68	145	2
90	96	1
160	163	2
45	110	1
67	82	2
21	91	3
77	143	3
118	125	1
61	62	1
9	26	1
23	24	1
4	17	2
2	6	1
11	14	1
27	53	1
103	127	2
103	111	2
16	21	2
99	169	1
6	33	1
2	7	1
35	43	1
8	10	1
173	174	3
136	139	1
118	130	2
156	162	1
7	13	2
17	27	1
32	38	2
2	10	1
94	95	1
156	165	1
17	43	3
151	178	1
164	179	1
117	118	3
14	85	2
105	174	1
131	132	1
19	106	1
153	179	1
21	30	2
101	173	1
34	35	1
64	68	1
148	175	1
101	110	1
148	150	1
26	96	1
23	28	1
18	67	1
100	114	1
7	11	1
50	53	2
65	67	1
97	99	1
169	180	1
101	115	1
33	42	1
164	169	2
20	107	1
117	129	1
11	17	1
148	180	1
44	59	1
13	30	2
109	117	1
52	88	1
1	10	1
104	132	1
88	174	1
14	36	1
107	126	1
33	35	1
13	42	1
143	148	1
13	34	1
52	130	2
102	106	2
102	120	1
39	42	1
53	121	1
78	134	2
81	94	1
138	140	1
153	155	1
52	95	1
24	70	1
101	107	1
35	37	1
171	179	1
23	41	1
42	46	1
4	39	1
51	114	1
143	157	1
76	79	1
18	22	1
5	40	1
118	121	1
