155	155	9
115	197	2
140	140	14
5	21	5
119	119	23
10	12	16
196	196	24
171	171	26
9	9	12
190	190	13
124	124	26
10	10	17
100	101	3
175	175	4
73	74	5
174	174	8
147	147	18
172	172	16
119	121	5
63	63	9
41	41	5
28	30	5
65	70	3
46	50	4
56	58	2
164	164	5
93	94	2
184	185	4
115	115	4
133	193	3
137	137	10
37	38	1
169	186	2
187	188	13
138	138	13
184	184	30
14	14	13
15	15	15
33	36	5
135	145	6
141	142	11
103	103	10
36	36	12
48	49	10
179	179	3
157	157	14
56	56	25
182	182	8
123	123	14
31	31	9
140	141	2
136	136	17
192	192	9
165	165	7
180	180	5
16	16	13
135	135	12
170	170	21
152	157	9
76	78	4
122	122	9
128	129	6
48	48	26
162	163	3
82	82	10
54	54	24
120	120	13
86	117	6
134	134	8
154	155	7
53	57	3
148	148	21
11	11	27
40	40	8
12	12	16
100	100	6
167	167	4
118	131	3
160	160	7
142	142	9
20	21	3
30	30	11
149	150	6
81	81	5
72	72	12
167	168	6
43	43	15
46	46	17
35	35	7
101	128	4
39	39	9
20	20	3
5	5	20
70	70	9
49	49	10
17	17	9
130	131	5
183	183	17
126	126	4
113	113	6
188	188	20
1	1	7
144	144	4
117	118	4
171	173	4
10	15	1
191	191	7
4	5	6
88	89	4
156	156	13
4	37	3
38	38	14
18	19	3
77	78	2
111	112	6
168	171	5
55	55	10
168	179	5
155	157	4
85	118	3
187	187	12
161	163	1
176	176	5
26	26	2
4	25	2
122	130	1
80	80	8
13	13	31
170	171	3
192	193	13
114	114	5
27	29	1
83	83	8
163	163	12
145	145	2
46	47	4
69	70	3
19	19	5
3	4	2
25	26	2
165	166	6
161	161	11
34	34	10
47	47	13
18	18	5
179	182	5
166	168	4
150	150	24
62	63	9
161	162	9
51	51	11
36	37	15
113	114	7
44	44	7
144	145	2
194	194	11
9	12	3
103	106	3
62	62	10
130	130	13
94	94	10
152	152	14
78	78	4
84	84	4
139	139	3
111	111	12
60	62	7
129	129	3
151	159	3
166	167	1
52	53	5
51	52	3
58	59	2
132	134	4
35	64	2
58	58	8
42	42	13
171	172	7
102	102	10
88	111	3
14	26	4
181	182	10
127	127	17
187	194	1
87	87	14
106	106	5
141	177	6
191	192	4
5	67	4
0	1	5
118	118	9
186	186	5
155	156	9
129	130	1
104	104	3
30	73	2
41	43	3
45	45	11
96	96	6
121	122	6
57	57	12
9	84	3
162	171	2
114	122	2
193	194	3
195	196	2
107	108	6
56	57	3
55	56	6
181	192	2
168	168	11
149	149	18
124	125	6
158	158	10
29	52	2
59	60	8
185	185	13
40	41	7
8	8	4
66	66	1
109	111	2
25	79	2
156	157	7
11	17	1
133	133	14
171	181	2
85	85	7
147	148	5
151	151	8
187	193	2
173	173	6
103	111	3
22	22	5
141	141	6
11	12	3
179	180	7
101	101	12
22	39	3
28	28	7
133	135	5
13	50	2
110	110	7
109	110	3
119	196	2
169	169	15
2	3	1
27	27	5
1	2	7
83	86	2
128	128	13
53	53	15
27	51	2
131	132	7
30	147	1
71	71	8
80	82	3
73	73	5
172	173	2
6	7	10
176	177	4
65	66	4
139	140	2
124	172	3
188	189	4
54	55	5
2	2	3
89	89	6
52	52	11
158	159	9
173	174	3
154	154	8
53	56	3
42	43	13
178	178	1
108	108	8
165	167	2
53	54	2
118	122	3
118	134	1
0	2	3
119	120	11
49	50	2
169	170	5
159	159	6
21	39	3
104	106	2
153	153	7
12	36	2
180	186	2
193	193	7
131	131	3
67	68	6
172	178	3
84	85	3
107	107	8
109	109	1
35	36	4
112	112	14
45	52	1
68	68	8
175	178	2
195	195	8
190	191	8
124	194	1
148	149	2
154	167	5
15	16	3
16	17	2
4	4	16
164	165	1
45	46	2
125	125	5
21	23	1
50	50	7
60	61	4
64	71	2
157	158	10
133	192	3
166	166	1
23	24	1
81	84	2
112	113	1
185	186	3
146	147	1
131	134	2
142	145	1
4	18	2
74	74	2
24	25	3
142	143	5
19	20	1
26	56	2
21	21	11
59	76	3
183	184	2
152	169	3
68	69	6
114	115	5
174	175	3
101	102	2
6	17	4
133	134	3
103	104	1
189	189	6
116	116	1
105	105	1
153	158	1
81	83	2
115	116	6
183	188	1
12	13	1
77	80	3
123	124	3
159	160	1
116	124	2
90	90	4
10	16	1
138	139	3
28	55	1
88	88	5
197	197	3
56	69	1
31	52	1
175	176	2
173	177	1
47	48	1
67	67	4
110	144	1
33	54	3
0	0	3
8	67	2
152	160	1
151	152	5
30	44	1
132	152	4
73	82	1
50	51	3
153	155	2
87	141	1
24	24	2
155	165	3
138	182	1
125	126	2
74	75	1
130	132	1
30	31	1
168	169	2
79	79	1
69	69	4
19	34	3
9	87	4
196	197	4
17	87	1
181	181	1
106	110	2
106	107	3
164	191	2
163	170	1
157	162	2
126	127	4
98	98	3
64	64	2
121	195	2
127	128	3
169	171	1
177	177	3
119	132	1
99	99	3
13	14	2
188	193	1
129	131	2
185	193	3
107	110	2
40	43	2
177	178	1
33	33	4
176	178	2
8	66	1
163	164	2
95	96	4
122	123	1
116	118	1
102	105	3
31	32	2
105	106	2
148	168	2
106	187	1
95	97	1
23	23	2
57	164	1
164	192	1
157	190	1
27	77	1
102	110	1
189	190	4
22	68	1
27	130	2
38	42	3
29	29	1
32	33	1
99	101	1
32	72	1
152	158	2
23	81	2
44	45	1
61	61	1
140	142	1
189	194	1
59	59	2
11	16	1
33	34	1
111	121	2
43	44	2
19	24	1
83	84	1
32	32	1
95	95	1
86	87	1
18	30	1
11	54	1
11	51	2
18	35	1
23	80	3
57	70	2
17	21	1
173	184	1
112	124	1
113	115	1
54	56	2
51	74	1
108	110	2
59	61	1
162	162	1
122	129	1
116	121	1
119	197	1
153	169	1
57	65	1
184	189	1
6	6	1
6	56	1
156	159	1
18	29	1
121	125	1
16	87	1
118	119	2
161	167	1
57	58	1
131	133	1
83	111	1
25	25	1
20	22	1
60	60	1
139	178	1
5	7	1
