3	4	12
150	150	44
24	24	19
134	194	1
182	182	30
197	197	14
52	57	4
10	14	11
120	120	12
172	176	1
46	46	14
170	171	14
55	56	5
111	111	15
183	183	25
172	172	32
59	60	9
151	184	2
1	2	3
161	163	13
72	72	12
179	179	19
73	73	13
115	115	20
106	106	12
31	136	3
22	36	8
171	171	37
194	194	14
88	116	1
180	180	18
155	155	27
158	158	32
181	181	23
133	133	20
25	25	46
149	151	1
105	105	22
41	41	20
3	3	25
11	12	16
179	190	2
16	16	6
118	118	22
122	122	19
181	182	8
184	186	5
48	49	5
161	161	32
133	137	2
70	70	14
189	189	35
137	138	6
126	126	11
69	69	28
188	189	8
187	187	27
159	159	23
100	100	20
154	155	15
146	146	21
18	18	19
34	35	11
193	193	46
128	128	25
153	153	23
89	89	6
39	40	9
48	50	2
98	98	11
82	82	11
65	65	2
48	48	32
1	1	21
148	148	25
0	187	2
143	143	30
132	132	12
192	192	8
185	185	24
33	38	2
147	147	32
146	148	6
133	155	2
31	37	1
10	11	9
174	174	13
68	69	4
14	14	33
131	131	19
176	176	37
4	8	5
51	51	20
165	166	6
138	139	12
170	170	14
19	22	4
58	59	19
4	5	12
141	141	26
67	68	7
13	13	33
82	111	3
102	102	22
148	179	2
36	37	10
172	173	8
100	101	11
138	141	2
136	156	3
186	186	28
56	56	36
194	195	15
32	38	2
151	151	32
196	197	11
51	86	2
31	31	21
137	139	8
4	4	26
32	33	9
121	121	12
178	179	15
66	68	2
80	80	28
154	154	9
142	142	12
81	124	2
173	173	37
37	37	21
175	193	4
5	5	25
125	128	1
85	85	8
20	20	23
187	188	20
15	16	9
183	184	11
77	83	2
156	158	8
153	154	16
27	27	12
42	42	18
78	78	12
184	184	24
119	119	17
180	189	3
30	31	4
190	190	20
127	150	1
77	80	1
41	55	3
2	3	4
168	168	39
7	7	20
147	148	6
192	193	9
160	160	36
110	111	15
100	105	4
24	27	3
61	61	2
99	132	1
191	193	2
50	50	14
15	15	20
182	183	9
161	162	9
155	156	5
151	152	14
66	66	14
9	9	34
54	56	9
29	29	17
196	196	28
15	19	2
53	63	3
87	87	22
34	34	30
49	49	16
45	45	16
39	39	22
140	141	6
44	44	5
164	164	14
162	163	12
23	28	4
43	114	7
167	168	13
149	149	23
35	35	21
157	157	32
8	8	53
86	86	14
2	2	29
41	54	3
68	68	20
26	27	14
120	121	12
95	96	4
191	191	4
53	58	1
113	119	2
127	127	34
59	62	10
67	67	9
154	160	3
94	117	2
159	167	1
40	41	11
95	97	3
136	136	26
38	39	2
135	135	22
93	93	3
184	185	9
189	196	3
21	21	13
108	108	19
20	22	11
185	187	5
191	192	11
175	180	1
137	137	22
132	133	5
177	179	9
124	152	4
166	167	3
47	47	31
16	17	12
65	66	1
16	19	2
171	172	8
124	124	31
133	134	16
56	57	5
99	99	27
157	158	17
164	166	2
8	25	4
169	170	7
23	24	6
139	143	5
10	13	6
152	154	4
169	172	2
19	20	31
58	58	17
96	96	12
11	18	2
22	23	5
9	13	8
30	32	7
121	122	4
99	100	9
176	177	27
188	188	22
31	133	3
41	44	1
43	55	7
53	54	18
76	76	5
104	161	5
144	144	6
89	116	4
70	71	8
130	131	8
168	169	7
175	175	17
114	115	6
19	59	1
54	54	16
123	123	13
178	189	1
22	22	12
105	106	10
124	126	9
19	19	21
17	17	18
40	40	19
159	160	8
145	145	17
6	6	12
113	115	4
149	150	4
5	8	7
47	48	8
43	43	20
174	176	2
38	38	24
4	6	5
104	104	12
116	116	27
2	20	5
132	134	1
15	185	2
81	82	10
42	53	3
36	38	8
36	81	1
55	57	4
113	113	14
88	88	15
64	64	3
165	165	8
177	178	5
17	23	2
142	143	11
139	140	9
0	2	4
98	99	3
162	167	2
121	153	1
150	151	10
133	157	5
177	177	20
21	24	4
167	167	29
187	197	1
166	166	12
174	175	12
97	98	2
50	51	11
32	32	17
117	117	14
169	169	16
194	196	6
152	156	1
45	46	4
125	126	10
53	53	14
179	180	17
97	120	4
48	58	2
131	150	1
135	136	5
112	112	19
0	0	17
0	1	10
78	79	5
28	29	14
43	44	15
113	114	12
156	156	12
138	140	1
118	119	6
125	125	17
107	107	8
149	156	3
154	158	3
39	113	2
101	101	12
33	33	14
12	12	16
183	187	3
51	53	1
33	138	1
16	18	8
54	62	4
145	146	11
49	50	5
149	179	4
178	178	16
114	121	4
138	138	20
178	192	5
75	75	1
126	127	12
134	135	10
137	145	1
45	58	5
59	59	6
17	18	11
123	124	4
146	180	3
140	140	19
146	147	3
69	73	4
36	39	3
118	157	1
71	72	10
138	159	2
9	14	4
160	163	3
60	60	3
182	184	5
11	13	16
122	123	4
130	130	14
30	30	18
80	81	1
79	80	15
129	129	14
114	114	35
178	180	6
43	61	2
158	167	5
159	161	3
20	21	2
134	134	19
128	156	1
163	163	16
185	186	10
18	19	10
104	110	4
189	190	19
118	138	3
62	62	17
37	38	16
55	55	20
168	177	2
42	114	3
76	80	2
131	140	3
180	181	1
103	103	7
117	118	5
25	26	7
186	187	6
111	114	4
104	105	7
33	39	4
68	73	2
38	40	8
108	110	2
82	83	1
21	22	5
97	119	3
57	57	21
98	131	2
195	195	5
9	12	3
177	183	1
139	139	16
139	144	4
98	119	3
30	115	3
63	63	5
40	44	1
26	26	16
36	79	2
115	119	4
28	30	11
160	161	10
34	138	1
53	55	1
160	162	1
36	80	1
86	87	2
130	171	4
52	52	17
0	22	2
52	56	1
120	156	3
170	172	3
135	137	4
28	28	13
27	28	2
175	179	1
172	174	4
139	161	6
141	149	1
85	86	3
132	137	2
188	191	3
98	132	1
58	61	6
124	125	18
7	17	4
193	197	4
109	110	4
129	131	3
176	183	3
81	81	3
31	34	2
10	10	7
11	11	14
96	97	7
110	110	15
24	25	5
14	15	7
102	103	11
142	144	2
3	8	2
151	154	2
103	104	4
135	157	2
68	71	2
101	102	8
133	135	3
12	169	2
36	36	13
88	115	3
112	113	9
191	195	3
146	149	1
40	153	2
54	55	10
136	137	9
66	67	3
46	47	8
13	15	1
156	157	4
119	120	7
173	174	2
80	82	1
90	90	7
112	117	2
24	33	2
193	194	10
134	140	1
177	194	1
177	189	1
159	166	3
59	61	4
69	71	4
2	5	4
15	145	3
95	95	6
22	24	5
142	158	2
191	196	1
43	46	1
42	54	6
165	173	2
83	84	2
143	144	3
57	58	3
152	152	9
129	167	6
163	164	8
192	194	4
154	156	2
189	195	3
136	158	1
137	156	2
125	133	1
148	149	6
50	86	1
162	164	3
133	136	1
141	142	1
192	197	2
59	63	2
110	112	1
126	169	1
195	196	6
123	125	5
0	23	1
37	116	5
103	110	9
42	44	10
88	89	1
10	12	1
190	193	5
44	58	2
43	53	2
21	23	1
33	34	4
193	196	1
186	188	5
141	146	4
73	74	4
150	170	2
146	154	4
140	144	1
29	30	6
58	62	2
182	193	2
112	119	2
115	116	2
74	74	5
23	23	4
140	143	2
0	15	4
94	94	9
121	123	2
68	72	1
142	169	2
40	54	3
104	107	2
83	83	2
69	70	3
97	97	5
168	185	1
170	184	2
153	155	3
6	8	1
52	53	9
7	8	4
0	188	2
83	85	1
71	71	5
171	183	1
104	106	7
56	58	1
116	118	4
190	192	2
1	180	2
38	41	4
166	172	1
162	162	10
51	78	2
178	182	1
90	96	1
79	79	5
65	67	2
37	137	1
124	157	4
120	133	4
77	78	4
75	86	1
163	184	3
7	18	4
45	54	1
68	74	2
53	64	4
165	167	2
51	52	6
118	155	6
50	56	1
130	132	4
151	160	1
103	109	1
42	64	4
76	79	5
41	113	3
179	189	4
9	10	9
34	142	1
114	119	2
161	165	3
131	132	10
155	157	1
24	28	7
67	74	2
32	34	3
167	191	1
155	168	1
84	90	1
78	125	2
149	196	2
37	39	8
186	189	1
70	73	2
126	168	1
23	25	2
118	122	1
124	167	3
20	24	2
32	37	1
36	156	1
176	178	2
77	77	2
186	194	1
107	108	6
0	182	3
35	36	5
84	85	5
177	192	1
110	114	1
76	83	2
45	56	1
172	193	2
34	143	3
24	29	2
84	84	1
183	186	1
49	52	2
99	114	2
106	107	5
44	45	1
33	36	1
13	14	4
26	39	1
22	25	4
96	101	4
173	179	2
137	144	1
135	141	1
34	79	1
145	161	1
12	33	2
36	77	1
8	9	3
125	151	3
109	109	5
39	42	1
53	76	2
119	125	1
50	52	1
113	118	2
48	54	2
72	73	3
42	43	1
39	78	2
126	167	1
141	148	3
127	128	8
35	45	5
144	145	3
142	157	2
46	58	2
177	190	2
155	160	3
188	194	2
156	166	2
156	160	1
60	62	1
31	32	3
0	16	4
39	59	3
116	117	3
47	57	1
168	170	3
44	57	2
157	159	2
150	154	1
34	36	2
45	49	1
44	59	2
169	176	1
25	27	1
162	191	2
193	195	2
31	33	1
61	63	2
111	113	2
6	7	2
18	25	1
171	174	2
130	158	3
130	170	1
161	166	1
53	56	2
187	191	1
2	17	2
3	6	1
5	6	1
48	53	2
55	59	1
37	80	2
8	18	1
147	172	1
157	168	2
150	189	1
28	39	1
175	176	4
9	185	1
6	16	2
169	195	2
108	164	2
129	130	1
33	35	2
128	129	2
125	135	2
29	31	2
153	158	2
130	145	2
148	170	1
187	189	1
27	32	1
30	114	3
137	143	1
10	23	2
8	19	2
144	161	1
153	159	2
136	141	1
122	125	1
169	171	3
139	142	1
79	143	2
1	188	1
74	76	1
45	48	2
101	128	1
180	182	2
96	124	1
47	50	1
77	86	1
53	65	1
14	32	3
171	189	1
38	79	1
46	49	2
53	80	1
15	17	1
183	185	1
191	197	1
143	156	1
156	163	1
135	140	1
147	180	1
41	42	2
179	191	1
136	157	1
25	28	1
36	46	1
155	158	1
20	23	1
156	165	1
188	190	1
109	113	1
35	39	1
95	136	1
108	109	2
182	185	1
152	153	1
174	195	1
133	141	1
21	27	1
42	112	1
132	158	1
22	34	1
161	197	1
