89	90	1
0	0	7
54	55	3
69	69	23
81	81	38
48	48	13
8	25	2
66	66	31
76	76	10
62	62	4
24	24	5
25	25	18
68	69	6
1	2	8
82	82	25
58	72	2
89	89	10
13	13	5
74	74	24
75	76	7
88	88	16
76	77	17
57	85	2
16	17	1
14	14	15
56	56	20
75	75	14
74	75	2
76	78	5
7	8	8
52	52	14
20	20	19
6	31	2
79	80	6
67	67	13
55	56	6
3	3	19
72	72	11
60	60	4
27	27	8
56	85	1
4	4	19
22	22	17
6	23	7
12	12	28
80	80	13
9	9	16
5	5	13
47	47	9
27	49	4
29	30	9
58	58	12
74	76	4
8	26	5
10	13	4
80	81	9
2	14	2
58	59	10
50	51	7
59	60	4
59	59	10
26	26	6
85	85	6
86	86	8
70	70	8
72	80	2
58	81	3
11	11	20
64	75	1
72	73	7
33	33	4
73	73	8
15	15	6
8	8	13
84	84	12
55	60	2
84	85	1
55	55	13
53	53	8
86	87	6
49	49	6
71	73	3
1	3	2
17	17	9
31	31	15
63	64	6
82	83	7
81	85	2
21	22	3
54	56	1
13	14	2
30	31	3
64	65	5
4	31	5
19	19	13
10	10	6
46	47	4
57	57	17
23	23	12
87	87	10
1	1	12
60	62	3
67	68	3
52	58	2
5	31	3
51	51	5
83	83	15
53	58	7
17	27	2
23	27	3
19	21	3
28	28	12
49	75	1
46	46	1
3	29	2
30	71	2
77	79	3
77	80	1
59	74	2
12	20	4
30	52	1
68	68	12
3	31	2
52	63	2
61	61	6
4	5	4
11	14	2
82	84	2
3	14	1
27	28	2
50	50	7
58	60	1
17	26	2
64	64	9
13	21	3
84	87	2
25	26	8
21	26	3
47	48	2
54	87	1
90	90	2
79	79	2
31	52	1
70	71	2
56	57	1
34	35	4
30	30	9
55	80	1
29	29	9
6	25	3
10	11	5
24	25	1
10	20	6
8	23	3
21	21	6
71	71	8
70	81	4
5	23	1
85	86	1
2	3	1
20	22	1
2	2	11
50	63	1
65	66	4
56	81	4
27	48	5
20	21	5
55	59	2
81	83	8
9	22	2
51	52	1
5	6	4
66	75	8
52	56	2
63	76	1
64	81	2
70	85	1
31	32	1
81	82	2
12	13	5
16	16	7
52	59	1
7	7	2
87	88	2
54	54	1
26	48	1
46	48	1
51	81	1
78	78	5
3	27	1
55	78	2
31	82	4
25	48	2
56	64	3
50	53	2
23	24	5
66	83	1
29	71	1
5	13	2
77	77	3
71	72	4
48	49	1
21	25	1
66	67	5
9	11	3
18	18	2
49	51	1
7	23	1
6	6	1
65	74	2
9	10	3
8	9	2
48	76	2
66	82	1
3	28	1
47	49	1
17	20	1
86	89	1
57	58	2
70	74	2
18	20	1
4	14	1
7	26	1
33	62	1
57	66	2
69	70	2
63	63	1
12	21	1
19	31	1
5	10	1
66	74	2
84	88	1
11	12	1
16	18	1
49	76	2
88	89	2
69	81	1
9	28	1
26	27	1
