133	133	9
36	36	9
53	79	1
97	98	6
107	112	7
97	97	9
156	156	6
159	159	3
48	55	1
47	48	6
114	114	3
15	32	3
20	21	6
103	103	5
148	148	8
121	121	12
68	68	3
28	41	2
82	82	1
53	54	5
42	43	2
26	131	2
108	109	2
26	26	9
29	30	6
103	105	2
38	38	3
27	27	11
124	144	3
127	127	7
137	137	2
47	47	12
48	48	7
31	31	5
120	121	9
120	142	6
39	39	7
6	124	5
73	73	4
107	107	12
150	153	8
151	152	3
122	122	7
129	129	11
56	67	6
110	112	3
123	123	6
44	44	9
100	100	10
31	55	2
32	32	6
9	9	11
81	81	4
84	90	3
130	130	6
121	143	3
105	105	5
112	112	3
42	42	6
119	141	5
40	40	2
77	77	11
12	34	5
128	128	5
140	141	4
137	138	1
85	85	10
122	146	2
51	51	1
78	78	7
28	28	6
92	92	6
49	136	3
150	150	1
99	100	1
61	69	1
135	136	4
35	35	5
116	117	2
79	79	4
17	17	5
141	148	2
70	70	3
104	105	1
18	18	4
87	87	12
38	39	3
141	141	6
114	137	5
111	114	3
95	95	11
36	46	5
151	151	3
37	38	13
76	76	2
99	99	4
68	70	2
109	109	7
46	46	7
30	30	2
4	4	2
147	147	4
12	13	1
7	7	7
89	89	3
111	111	2
133	135	1
140	140	5
146	147	2
90	91	1
55	55	3
88	90	2
130	131	2
66	66	7
49	49	3
119	120	1
117	117	2
138	138	6
142	142	11
22	39	6
135	137	3
67	136	3
101	101	4
70	71	1
26	27	3
49	50	3
1	3	2
110	111	2
105	110	3
65	65	4
139	140	6
134	134	4
83	84	2
3	3	1
111	112	2
94	106	4
98	99	5
52	53	3
131	131	4
43	43	3
146	146	3
104	104	4
124	125	1
56	56	3
21	21	2
110	110	2
24	25	5
11	12	6
33	33	3
34	35	3
52	52	6
25	25	5
23	24	2
80	80	5
135	135	3
114	124	1
138	139	1
31	32	4
125	125	2
2	2	8
8	122	1
20	20	2
158	158	5
36	56	3
157	158	3
71	71	4
11	137	1
11	11	3
46	51	6
5	5	2
154	154	2
154	156	3
88	89	1
124	126	6
69	69	3
121	123	2
29	29	7
96	96	2
66	67	4
18	28	1
23	23	3
19	19	6
77	85	4
142	143	3
6	6	2
10	10	9
139	139	7
115	116	1
84	85	3
100	138	1
90	90	8
152	152	4
85	86	2
44	45	4
147	148	4
93	104	1
113	138	3
16	17	3
82	103	1
132	132	3
23	25	1
22	22	1
34	34	1
46	50	3
106	113	2
155	156	1
78	79	9
98	98	4
144	144	3
94	94	4
136	136	1
54	79	3
50	50	6
7	8	1
0	0	6
79	80	1
155	155	2
15	15	2
19	27	2
51	63	2
43	83	3
84	84	2
33	93	1
25	27	2
46	47	1
22	75	2
75	86	3
126	127	5
109	110	8
54	54	7
27	28	2
23	97	1
86	86	3
144	145	3
114	115	3
83	83	1
28	30	3
7	123	2
37	39	1
28	29	1
105	106	1
37	37	3
8	8	1
37	82	2
127	128	1
115	115	3
6	12	1
124	124	3
37	48	2
104	111	2
121	122	1
9	126	1
57	57	3
132	133	1
25	28	2
130	132	1
100	101	2
24	24	2
109	112	1
113	118	1
0	1	1
50	51	3
7	11	1
133	134	1
126	128	1
89	106	1
115	117	1
109	113	1
156	157	1
11	54	1
33	34	1
25	39	2
108	108	2
54	80	1
130	133	1
9	10	1
63	66	1
13	13	1
68	69	1
69	70	1
92	104	1
56	66	1
22	23	1
105	111	1
1	1	1
72	75	1
106	112	1
41	41	1
45	54	1
