85	85	7
14	14	10
33	33	10
99	115	3
56	58	1
111	111	15
120	121	10
44	44	7
109	110	5
105	105	12
102	102	17
45	45	1
8	8	9
97	97	10
21	21	8
5	5	9
82	84	4
99	99	5
78	78	10
71	72	3
90	90	12
38	38	2
90	91	3
29	30	2
50	51	4
92	94	2
91	91	13
98	99	2
129	130	2
80	83	10
93	93	10
80	80	29
113	113	12
61	67	4
68	69	2
23	25	4
121	121	18
79	101	5
71	71	16
82	95	4
98	98	6
80	81	3
59	59	13
70	71	3
69	69	6
79	118	3
123	123	14
72	72	7
131	131	7
62	65	2
90	93	3
70	70	13
79	91	4
52	52	9
88	88	10
6	6	10
118	119	6
13	13	7
77	77	13
32	32	7
12	13	4
113	131	2
116	119	2
106	106	7
72	73	5
127	134	5
13	14	3
119	121	1
1	5	2
126	126	14
9	9	5
15	15	1
20	24	3
114	114	17
120	120	7
118	118	15
44	45	7
29	29	3
75	75	5
95	95	6
59	60	1
130	130	9
64	64	8
103	103	17
119	119	9
54	54	4
65	65	12
46	65	4
114	131	1
71	103	1
134	134	13
79	79	14
73	74	9
12	12	7
94	94	7
27	27	4
124	124	6
84	84	8
2	2	5
27	28	2
16	29	2
108	108	6
112	112	6
32	33	2
22	23	8
57	57	6
50	50	21
48	48	4
62	62	5
80	99	4
110	119	1
100	100	5
20	20	2
7	7	2
30	30	11
80	101	4
74	74	19
117	117	8
133	133	7
127	127	5
1	2	13
24	26	2
124	125	3
107	107	3
66	67	2
88	116	2
115	116	1
56	63	1
122	122	4
93	94	5
100	113	2
101	101	19
112	113	12
57	65	1
6	7	2
115	115	3
116	121	2
107	108	6
89	90	4
88	90	1
36	38	2
121	134	1
92	92	15
55	55	5
113	117	2
76	76	11
61	61	6
15	16	2
20	58	2
124	127	1
58	58	3
1	3	2
82	82	8
95	98	4
43	43	3
89	91	4
130	132	3
89	89	7
55	59	1
74	75	10
113	114	1
101	127	2
26	26	4
25	26	2
85	132	2
85	92	3
35	35	4
0	1	3
116	116	10
104	104	5
87	87	16
34	34	3
96	96	4
18	21	1
94	108	4
116	123	2
78	117	5
55	56	6
82	87	5
11	11	4
100	105	1
79	80	2
9	11	2
14	33	2
81	91	2
105	106	1
130	131	3
62	63	5
100	102	1
55	57	4
56	57	4
21	23	2
63	63	3
100	101	3
131	132	2
108	109	2
93	96	2
95	96	3
36	36	4
50	57	4
78	80	2
23	23	7
20	66	3
11	36	2
109	109	7
63	64	1
73	73	11
23	70	3
65	71	1
20	21	2
105	108	2
31	33	2
8	17	1
125	127	3
19	56	1
106	122	2
129	129	3
24	24	5
104	105	2
28	28	4
93	134	2
99	100	1
60	62	2
83	84	5
111	120	1
69	70	4
110	111	3
87	96	1
90	102	2
77	80	1
91	95	3
66	68	3
109	115	2
22	22	4
110	110	7
68	68	2
132	133	3
61	69	2
66	66	1
74	102	2
47	47	4
111	112	4
21	22	1
85	95	2
11	47	2
85	103	4
2	3	1
64	65	2
91	92	7
60	60	8
53	53	4
121	122	2
62	64	1
81	81	3
126	127	4
3	3	5
26	27	3
74	103	3
81	112	2
77	117	1
89	102	1
103	115	1
67	67	2
45	47	2
10	10	1
120	124	1
57	58	1
16	16	3
128	128	3
101	102	1
78	90	3
119	120	4
125	125	5
31	31	1
50	59	1
92	93	1
135	135	3
56	59	1
1	1	7
105	134	2
77	109	1
86	86	1
54	61	2
81	85	2
81	83	3
77	78	1
132	132	3
90	94	3
5	6	1
62	113	2
44	47	1
97	98	2
0	0	2
10	66	1
58	61	3
46	46	1
53	65	1
97	113	1
12	47	2
7	11	1
99	102	2
25	25	1
60	61	1
3	4	2
88	96	3
127	128	1
83	117	1
120	123	1
11	12	1
19	25	3
111	134	1
106	108	2
61	63	3
104	112	1
75	103	1
106	107	1
42	45	1
88	99	1
96	97	1
12	34	1
77	93	1
63	113	1
79	87	1
98	108	1
108	113	1
78	79	1
84	111	1
46	64	1
106	119	1
107	109	1
100	112	1
122	124	1
94	95	2
57	59	2
9	20	1
111	125	1
118	122	1
52	53	2
130	134	1
18	19	1
128	129	1
