63	63	6
78	78	1
93	93	5
5	5	5
134	134	5
17	17	5
102	105	2
56	57	4
92	96	2
98	98	8
75	75	18
113	113	9
85	85	7
10	54	5
55	55	12
121	121	2
108	109	7
64	64	6
89	89	5
83	85	3
117	117	3
58	68	3
52	53	1
68	68	4
52	54	2
64	65	1
107	109	4
53	55	4
86	86	1
78	130	9
34	91	2
10	43	5
15	16	1
76	76	10
35	36	3
44	78	1
129	129	8
91	91	9
73	73	11
43	94	2
55	56	9
61	62	4
86	92	1
97	97	7
44	44	1
99	99	10
28	28	6
118	124	3
1	1	7
6	6	2
132	135	1
106	108	2
100	100	8
112	113	7
29	30	1
43	50	6
13	13	9
82	83	2
122	122	12
112	112	10
109	110	13
107	108	3
19	19	6
63	70	5
90	90	5
18	18	6
130	133	5
2	2	9
12	12	16
58	58	9
123	123	7
124	125	7
115	115	3
7	87	2
105	105	3
62	63	4
7	77	1
131	131	6
126	127	3
114	114	3
38	44	7
128	128	11
94	94	6
104	105	2
83	86	3
67	67	3
8	44	1
38	56	1
129	131	1
62	62	12
14	17	3
7	7	3
110	110	4
124	130	3
59	59	5
66	87	1
109	117	2
100	118	4
106	106	6
70	105	2
95	95	1
84	85	4
16	16	4
82	82	1
130	130	3
120	120	2
4	4	4
102	102	3
60	123	3
21	51	1
126	126	3
80	80	4
65	118	2
8	9	2
132	132	2
58	80	2
8	14	4
107	107	5
4	5	3
30	30	5
118	131	5
46	46	5
61	123	1
60	61	3
119	120	4
116	116	7
101	101	3
70	92	1
89	91	5
99	134	4
105	111	3
75	76	2
77	77	2
2	3	1
128	129	2
5	6	4
70	70	7
20	20	4
84	84	3
47	47	4
86	87	2
14	15	2
83	84	3
11	36	1
13	14	1
101	105	1
79	82	1
10	10	4
79	79	2
127	127	6
11	52	3
45	66	2
61	61	3
111	112	3
108	132	3
95	96	2
93	98	2
100	116	2
56	61	1
37	37	2
67	117	1
124	124	4
99	116	1
25	33	2
13	90	1
18	37	2
86	94	1
24	25	1
73	74	2
123	124	3
8	8	2
14	54	5
47	130	4
3	3	1
66	80	3
46	54	2
48	69	1
63	119	2
7	26	2
109	109	1
43	47	3
53	56	3
33	68	1
113	115	2
118	118	3
32	32	2
15	15	1
8	24	2
77	78	3
50	50	2
45	45	1
119	119	5
44	45	1
22	100	2
32	33	2
8	11	1
9	11	4
56	56	2
20	45	2
72	73	1
15	26	1
3	94	1
3	98	2
106	107	3
45	112	1
8	26	2
17	69	3
100	119	2
133	133	4
43	45	1
24	24	2
33	33	6
71	71	3
74	74	7
60	60	5
22	22	1
127	129	2
0	13	2
48	48	1
55	79	1
61	75	3
63	65	2
21	22	1
100	123	1
89	93	2
0	72	1
133	135	1
65	65	3
106	111	1
92	92	4
128	130	1
57	57	1
43	66	2
47	81	1
89	90	4
103	105	2
14	52	1
6	49	4
67	68	2
4	95	4
102	124	2
101	102	1
96	97	2
22	44	1
38	38	2
131	133	3
63	79	1
131	132	1
100	101	3
76	127	2
79	80	2
107	111	1
115	116	1
23	24	1
103	103	1
108	108	4
65	66	1
89	104	1
49	49	1
34	35	2
81	84	1
36	56	1
22	23	1
111	114	1
105	112	1
58	73	1
3	4	2
25	35	3
127	130	1
51	51	1
125	125	1
57	94	1
1	6	1
110	125	1
38	77	1
58	84	1
60	65	1
107	113	1
25	25	1
3	5	2
88	88	1
28	68	1
31	31	1
36	70	2
38	92	1
99	100	1
96	96	1
120	121	1
50	52	1
80	81	1
0	1	1
129	130	1
63	71	1
105	108	1
78	79	1
