46	46	9
28	115	7
178	178	1
104	105	10
118	118	3
185	185	6
6	36	2
93	93	3
221	221	9
215	215	4
151	151	6
177	178	3
57	60	8
220	220	14
110	113	2
27	27	10
108	236	2
158	170	1
44	44	7
189	191	4
174	174	5
195	195	5
69	71	1
51	51	8
14	113	2
54	54	5
236	246	1
214	214	8
19	19	5
177	177	9
2	5	2
37	41	1
166	171	4
195	196	11
158	213	3
157	157	11
237	237	22
30	30	9
173	212	2
12	14	1
150	151	3
208	209	4
221	222	6
216	249	3
24	75	2
80	94	3
152	158	1
3	3	4
144	144	3
240	248	1
57	58	2
99	99	5
86	87	5
155	156	2
193	193	4
196	196	14
66	66	3
243	243	3
233	233	9
150	150	3
173	174	2
164	164	6
228	228	11
96	97	3
15	15	3
81	81	2
109	109	9
89	90	5
102	102	5
74	74	2
159	172	1
192	196	1
52	52	5
94	94	2
79	84	4
89	91	5
17	17	5
247	247	3
205	205	11
87	118	4
2	38	5
80	119	2
79	79	3
163	163	5
110	110	21
225	225	3
172	173	8
185	192	3
224	225	7
223	223	8
28	235	1
189	212	3
152	176	1
244	244	7
95	95	6
173	173	3
50	50	6
200	200	5
197	198	7
71	72	2
179	179	7
229	231	7
31	33	2
9	9	10
190	190	8
17	20	2
236	236	3
33	33	6
181	181	6
112	112	4
194	195	4
26	26	10
4	15	2
49	50	2
76	76	1
8	8	15
154	241	1
113	113	4
238	238	3
147	153	1
18	18	4
194	239	1
242	243	1
78	78	6
195	208	4
58	58	4
101	102	5
168	168	5
25	53	3
45	45	4
23	23	10
24	24	5
98	98	1
180	180	1
203	233	8
55	56	6
111	112	3
118	173	5
225	226	1
211	215	1
229	229	9
154	154	4
55	55	1
89	92	7
178	180	2
59	59	7
111	111	11
79	82	2
119	119	7
63	81	5
241	248	1
68	68	3
56	56	6
203	203	13
170	170	12
61	117	3
161	161	6
38	40	1
176	176	2
117	117	5
35	35	8
38	41	4
84	84	6
79	80	3
213	213	9
59	60	5
187	188	6
184	184	8
159	159	1
203	205	4
232	232	5
157	213	3
157	163	2
211	211	5
34	34	12
116	116	6
108	110	2
212	213	3
193	196	2
76	77	5
91	95	5
90	90	5
40	40	12
93	110	1
211	217	3
43	43	12
227	227	3
101	101	1
25	25	4
48	48	2
31	32	4
28	28	5
159	170	2
75	75	1
241	247	3
155	155	4
175	175	6
7	245	4
173	181	1
40	44	3
1	9	3
53	53	6
160	160	6
86	89	3
242	242	8
47	47	4
146	147	4
156	156	12
168	169	3
8	10	4
239	239	7
228	244	2
80	80	1
32	32	1
39	39	8
180	181	2
75	77	1
204	204	3
165	165	6
68	70	2
37	56	1
5	5	6
181	196	1
183	183	2
162	163	2
222	223	9
173	220	2
62	63	3
201	220	2
58	99	4
168	171	1
41	41	7
69	69	4
202	202	13
5	6	1
12	12	5
46	114	3
208	208	10
70	71	1
5	14	3
86	86	5
192	192	7
60	90	3
70	70	2
166	166	7
231	232	2
25	96	3
49	49	11
45	46	1
106	106	3
69	75	3
9	11	1
90	110	1
169	169	3
7	7	4
160	197	3
1	2	2
11	11	3
217	236	2
63	63	4
245	245	3
21	22	3
248	248	6
89	89	4
104	104	4
60	61	4
238	239	3
212	212	2
24	25	3
198	198	4
183	208	2
152	152	4
22	22	3
94	95	3
203	207	3
117	118	6
36	36	4
187	190	1
6	6	2
149	149	4
158	158	6
20	20	7
72	73	2
18	19	2
108	108	2
165	166	2
79	160	1
60	60	2
10	47	3
51	52	2
193	194	3
220	228	1
30	31	2
229	230	1
189	189	4
230	230	3
219	219	7
16	95	2
66	167	2
91	91	6
211	236	1
31	31	7
154	205	4
8	9	5
37	39	1
202	227	3
207	207	1
25	26	3
211	239	2
4	4	4
163	164	4
8	37	2
88	88	1
96	99	5
36	38	3
1	1	2
181	197	3
54	55	1
113	114	2
246	246	1
82	84	4
234	234	3
115	115	6
183	184	1
153	153	3
153	160	1
107	107	2
22	23	1
38	39	2
5	248	1
85	85	3
147	185	1
94	100	3
207	213	1
38	38	6
188	188	4
224	229	1
76	120	3
87	87	10
32	33	3
109	110	1
29	29	3
181	209	3
200	201	1
30	47	3
42	42	3
203	204	1
174	212	2
241	246	1
246	248	1
157	172	2
211	216	2
47	59	6
83	119	1
170	178	1
29	244	1
245	246	2
21	21	1
224	224	4
218	218	4
216	218	1
163	185	2
27	28	1
16	16	3
235	235	2
47	55	1
39	85	1
62	64	1
0	1	1
186	207	2
100	100	6
218	239	1
199	199	5
112	171	1
203	229	1
118	119	3
175	176	1
105	106	2
221	223	1
152	241	3
38	98	2
192	195	3
192	198	4
147	178	1
26	28	1
207	226	1
10	11	1
84	85	2
184	191	3
60	72	2
62	77	1
162	236	3
29	113	2
71	71	1
179	180	1
78	95	1
106	107	2
91	96	1
67	67	2
226	227	3
88	91	3
168	179	1
159	165	2
38	47	1
218	236	1
107	108	1
156	160	1
226	226	1
12	65	1
92	92	1
226	228	1
109	228	2
57	57	2
1	52	1
243	244	2
15	18	1
188	191	3
164	175	1
153	154	3
23	24	1
25	92	2
64	66	2
20	44	1
225	231	2
26	27	1
191	208	1
150	156	1
33	55	1
14	19	4
149	170	1
213	214	1
32	52	1
96	96	5
232	233	1
95	97	1
116	117	1
8	45	1
217	217	2
206	206	1
185	193	1
105	105	3
9	10	2
120	120	2
188	211	1
8	11	2
218	219	2
81	93	1
12	47	1
25	226	1
52	244	1
231	231	1
100	109	1
33	34	2
119	120	1
144	145	1
5	120	1
212	240	1
160	163	1
177	191	1
33	48	1
114	114	1
239	240	2
146	146	1
11	12	1
7	9	2
64	64	1
182	208	1
160	170	1
82	82	1
62	62	1
191	191	2
182	195	1
79	81	1
240	241	1
220	227	1
68	69	1
34	247	1
35	113	1
176	177	1
184	185	1
196	200	1
34	35	2
9	52	1
244	245	1
80	83	1
61	62	1
43	44	1
238	240	1
221	242	1
