9	9	2
43	43	5
5	5	1
56	65	1
109	109	4
103	103	11
118	131	2
133	135	1
87	87	7
100	100	6
38	38	2
99	99	9
105	120	1
94	94	6
23	24	3
86	87	2
28	28	10
69	69	9
75	75	16
110	110	1
0	0	2
86	86	2
116	116	11
130	130	10
134	134	6
8	9	6
75	76	3
47	55	3
21	21	6
24	24	6
12	31	1
96	96	8
113	113	8
11	12	3
105	133	4
119	120	8
67	67	2
69	71	4
14	14	9
120	120	12
95	95	3
50	50	6
79	80	2
127	127	11
76	76	6
82	83	3
91	91	13
118	118	3
55	55	2
34	34	3
125	133	2
127	128	9
92	92	12
128	128	11
65	65	11
77	77	13
19	22	6
46	47	3
71	72	5
82	82	5
23	23	4
62	64	2
117	117	9
119	119	8
62	63	5
60	61	1
77	78	2
29	29	3
104	104	4
90	90	6
131	131	5
100	112	2
112	112	12
89	90	2
62	69	3
54	54	4
68	68	5
74	76	4
54	55	5
106	121	3
17	17	4
32	33	4
62	85	1
4	4	7
80	80	7
84	84	2
18	21	2
70	71	7
83	84	9
91	92	10
15	15	6
65	69	6
2	3	1
68	79	4
91	120	3
73	73	16
84	93	1
106	106	6
108	110	4
72	72	5
109	135	3
102	121	2
85	87	1
22	23	1
93	93	11
26	26	5
105	105	3
0	1	5
129	129	11
124	128	2
65	67	2
65	66	2
102	102	9
56	56	3
114	114	23
44	44	4
64	65	2
78	79	4
97	97	3
15	16	2
132	132	1
120	121	5
28	43	3
126	127	5
71	71	7
66	67	4
7	26	3
49	50	1
31	32	2
33	33	5
90	91	6
33	44	1
101	123	1
76	81	3
124	124	8
102	104	5
1	1	6
111	112	1
121	121	4
55	58	3
101	121	6
58	58	4
52	52	3
84	85	2
61	63	4
72	77	3
88	88	9
43	45	2
101	113	3
63	63	5
103	105	2
85	85	5
77	79	2
25	25	1
135	135	3
74	74	6
89	89	5
97	101	3
79	79	13
35	45	1
98	98	5
125	125	7
16	18	2
78	78	2
125	130	1
30	30	3
37	38	1
32	32	7
133	134	7
92	120	1
22	22	5
102	103	3
56	59	4
130	131	1
96	99	1
57	57	3
73	75	1
111	111	10
60	60	1
87	97	3
21	22	3
1	48	2
62	75	2
132	133	6
121	123	2
37	37	2
72	73	6
16	22	1
118	119	3
80	82	3
23	33	2
64	64	1
62	70	1
19	21	2
133	133	4
85	86	2
123	124	1
128	132	1
115	115	3
126	126	3
90	106	3
13	16	1
55	88	2
97	98	3
54	60	1
52	53	2
12	12	4
6	7	2
80	81	1
24	70	2
100	101	1
122	130	2
11	11	2
64	82	2
120	123	2
71	73	3
122	132	2
122	122	3
93	94	2
55	56	1
120	130	1
64	74	1
82	85	1
50	57	1
70	70	4
110	125	1
121	122	1
16	23	2
110	111	3
53	54	4
47	48	1
101	112	4
65	78	1
106	107	1
2	2	3
10	10	2
76	107	1
96	106	1
101	133	1
9	37	2
81	81	2
13	13	1
123	131	1
81	82	1
114	115	1
88	99	2
8	8	1
6	6	1
43	52	1
56	79	1
69	81	2
59	59	1
104	105	1
84	88	2
7	7	3
99	100	1
54	63	1
130	133	1
31	31	1
120	129	1
95	96	1
31	34	1
84	96	1
107	107	2
121	134	1
87	89	1
66	72	1
99	101	1
88	90	1
13	20	1
103	104	2
