81	84	3
20	20	9
124	124	21
95	96	6
137	138	7
100	100	18
134	134	26
93	94	1
0	0	4
124	125	12
76	76	14
19	19	15
34	34	9
110	110	2
85	85	16
106	107	5
76	97	3
17	18	1
105	107	2
28	29	12
26	26	6
132	132	33
27	27	12
119	119	12
8	8	4
113	117	2
72	75	1
18	18	8
37	37	11
6	6	17
132	133	3
80	84	1
122	122	22
91	91	14
123	124	2
82	103	2
97	107	1
95	95	9
118	127	1
25	25	14
129	129	8
5	5	8
136	138	6
120	120	11
16	16	13
130	130	30
139	139	12
127	128	5
30	31	8
118	118	10
114	123	4
94	99	5
7	7	8
134	135	13
101	102	7
114	114	24
102	102	9
28	30	2
123	123	31
32	32	12
22	25	1
101	124	2
0	20	1
111	115	1
6	100	2
1	2	6
27	84	2
8	12	4
89	90	5
75	79	5
119	124	2
109	109	13
29	32	3
121	121	14
112	112	13
96	96	10
24	25	1
93	93	11
126	126	14
81	81	16
30	30	7
111	128	6
21	21	25
4	107	3
21	72	1
75	75	3
33	37	4
96	97	2
38	38	6
2	2	7
84	84	12
12	20	1
81	87	4
3	8	2
100	127	2
127	130	1
125	126	11
125	125	7
94	94	9
74	74	11
75	112	1
88	88	9
118	121	3
123	132	1
31	37	1
87	87	12
34	35	5
71	72	4
115	116	1
2	4	1
83	83	13
31	65	2
28	28	3
117	117	10
4	5	11
135	136	5
71	73	8
116	116	12
36	37	2
72	84	2
84	85	5
3	3	12
8	9	5
33	34	7
74	75	1
103	104	10
87	88	8
73	73	4
15	15	10
103	103	9
3	6	1
26	27	1
76	79	3
86	87	1
4	4	8
111	111	11
136	137	4
128	128	13
111	123	1
33	33	31
127	127	17
6	80	2
120	125	1
81	102	1
79	82	1
110	115	1
131	131	22
140	140	10
76	78	4
129	140	1
138	138	4
104	104	10
78	87	4
81	126	4
104	105	2
92	92	2
10	10	4
98	98	13
21	22	5
19	20	3
74	91	3
12	22	1
86	86	11
79	79	9
5	8	4
75	78	2
81	83	7
3	106	1
2	20	3
100	102	1
113	113	15
2	7	3
13	14	4
83	126	4
100	101	5
134	139	2
106	106	7
78	84	4
98	136	1
6	16	5
137	137	8
133	133	27
129	135	2
135	139	8
126	127	1
22	22	6
23	25	3
12	14	2
86	93	2
112	113	3
99	114	1
108	127	1
131	133	3
10	11	7
9	9	7
91	96	6
129	130	5
135	140	2
22	23	1
12	30	1
81	85	4
27	35	1
6	17	2
94	96	2
105	106	1
11	18	3
35	35	14
93	96	1
77	78	5
6	8	2
104	107	3
113	114	7
2	16	2
30	37	3
77	77	2
21	25	3
15	124	2
80	80	11
12	12	5
75	77	2
115	115	5
73	74	4
121	122	5
29	29	3
82	83	6
114	115	4
71	71	7
81	103	2
1	1	7
90	109	2
4	6	1
92	101	2
101	101	10
72	121	2
17	19	2
135	135	12
79	84	2
114	127	5
108	108	3
12	13	2
125	127	1
14	14	8
110	111	8
3	4	5
75	89	1
122	123	3
11	11	2
3	7	3
22	24	3
136	139	2
22	29	2
17	17	4
13	13	6
107	107	9
11	13	2
139	140	2
116	117	5
71	75	1
10	19	2
133	134	2
129	134	1
16	17	4
36	36	15
94	114	1
75	76	1
19	22	2
135	137	2
71	123	2
136	136	6
8	10	1
12	15	6
119	120	5
85	88	1
29	31	5
92	98	2
109	124	2
78	79	3
104	109	1
33	35	1
104	108	3
11	23	2
117	119	3
83	85	3
105	105	5
76	91	2
111	114	1
18	19	5
117	121	3
118	122	3
138	139	3
78	78	4
104	112	1
102	104	2
82	82	4
131	140	3
107	122	2
84	100	2
28	31	2
7	13	1
100	126	1
97	97	9
27	30	3
123	133	2
0	19	2
2	3	2
22	27	2
15	17	1
99	100	1
131	132	3
81	82	1
83	87	2
20	21	2
71	112	1
72	94	3
5	127	2
1	14	1
108	128	2
27	28	3
4	127	2
117	120	1
90	90	4
108	109	1
90	91	2
72	108	3
9	10	2
35	36	1
12	19	3
103	111	3
81	109	2
15	99	1
101	116	1
80	98	1
110	128	1
111	139	3
83	84	1
82	109	1
75	113	1
9	19	3
24	24	2
121	123	2
9	14	2
1	13	2
3	20	1
79	92	1
104	124	2
114	139	1
92	93	1
15	16	1
118	124	1
89	89	4
5	101	3
85	92	1
77	79	3
87	108	1
84	99	1
132	134	1
99	99	2
76	77	1
23	23	2
12	25	1
102	105	1
72	122	1
31	32	1
120	121	5
23	30	1
72	72	1
112	114	2
100	112	1
5	7	1
8	19	2
100	139	2
80	81	1
105	113	1
31	72	1
135	138	1
34	37	1
25	26	1
84	93	2
99	140	2
94	129	1
80	87	1
4	106	1
134	137	1
80	114	1
86	88	1
7	18	2
107	110	1
26	28	1
1	7	1
