161	161	21
84	86	5
14	14	29
153	154	4
102	102	6
64	64	14
149	149	17
132	132	18
106	106	20
34	35	7
40	40	10
16	16	16
55	55	13
7	8	8
177	178	6
52	52	41
22	24	3
15	15	19
49	49	43
173	174	5
78	78	10
179	179	9
177	177	14
13	13	33
25	26	7
146	147	9
109	110	12
166	166	8
101	101	22
157	157	26
53	53	16
5	5	11
146	146	12
138	174	3
164	180	3
168	169	9
56	56	17
179	189	2
130	130	26
99	99	12
25	25	14
42	42	18
101	105	8
116	117	15
193	194	16
111	140	2
191	191	11
182	182	4
159	161	1
134	136	6
109	145	2
128	128	11
184	184	11
18	18	21
158	158	29
43	43	14
186	192	3
124	124	26
176	176	16
27	29	1
48	48	38
169	169	25
134	135	12
63	63	2
138	143	3
20	21	4
172	172	28
44	45	6
126	127	8
10	13	3
123	123	12
84	84	15
9	9	42
100	100	14
131	131	11
116	118	2
170	174	3
114	114	18
1	16	6
138	138	15
171	171	20
123	127	5
136	136	14
187	187	29
186	186	21
181	191	1
53	54	12
196	196	25
155	156	10
193	193	16
10	10	50
9	10	11
150	151	7
170	180	7
173	173	11
21	31	1
4	4	15
102	108	1
0	0	20
41	42	12
194	194	32
151	164	3
33	33	19
181	181	12
39	39	13
42	43	8
168	193	2
101	108	4
189	189	23
164	165	5
1	8	6
103	103	11
105	108	9
134	134	23
119	119	17
165	173	2
160	160	23
156	156	26
94	94	12
133	133	28
190	190	17
192	193	15
178	178	14
45	58	4
71	71	2
107	107	18
95	95	3
62	63	9
162	164	4
45	45	22
68	69	7
11	129	1
32	32	19
159	159	24
70	70	8
22	22	11
47	47	35
39	41	6
140	140	28
176	177	10
180	180	15
1	2	11
180	181	5
52	53	3
186	187	9
125	125	14
127	127	23
69	69	6
122	136	3
86	87	3
57	58	3
196	197	10
122	122	22
86	86	6
185	191	3
107	108	6
111	120	1
89	89	4
106	107	3
154	154	16
45	145	3
41	174	3
24	24	5
141	142	5
150	150	9
124	125	21
93	93	8
155	155	14
152	152	11
24	25	7
129	129	18
100	101	4
192	192	11
30	31	10
141	141	20
170	170	28
12	12	23
37	45	1
11	11	18
126	126	9
110	110	12
4	7	2
29	55	2
153	155	3
4	9	3
186	196	3
148	148	19
58	59	4
124	165	1
0	8	4
119	120	22
50	50	22
195	195	19
28	28	9
72	77	1
125	127	2
114	115	5
161	167	4
13	14	13
102	103	3
163	163	8
37	37	17
23	23	19
153	153	21
64	65	3
120	158	3
146	149	6
31	31	15
36	36	8
118	118	25
183	183	17
54	55	9
120	120	20
19	33	3
151	151	8
128	129	3
5	6	4
5	23	4
117	118	11
48	49	8
185	186	10
162	180	6
135	175	2
153	181	7
137	137	13
36	37	6
4	6	11
39	43	1
100	108	8
167	167	15
175	176	11
44	44	13
84	85	2
4	5	3
135	135	17
107	109	1
42	177	1
144	144	11
145	145	12
174	175	10
62	62	4
61	61	7
40	41	11
21	193	2
115	115	13
30	30	7
147	147	13
171	172	12
125	126	10
68	78	3
14	39	4
16	17	5
111	111	23
26	27	3
4	23	2
57	57	11
175	175	20
187	194	3
19	20	6
8	23	1
168	168	6
105	105	15
31	32	11
26	26	15
173	175	8
37	102	2
94	102	2
59	65	2
76	76	16
112	124	2
162	179	3
164	164	15
5	7	5
59	59	10
174	190	9
179	180	7
54	54	15
98	98	7
12	13	2
129	130	2
51	51	18
23	24	8
32	43	4
74	75	2
28	36	1
63	77	5
8	26	1
46	46	5
188	188	6
197	197	18
105	107	2
98	116	2
165	165	4
162	162	3
1	1	9
45	123	4
154	157	1
113	119	3
71	72	5
10	14	3
142	142	10
17	28	1
22	195	3
119	123	6
6	6	3
110	111	4
185	185	37
173	195	4
48	53	6
51	52	10
104	118	1
1	25	4
127	135	2
171	178	2
15	149	2
165	180	5
34	39	2
83	85	1
161	170	2
173	176	2
136	184	1
8	8	12
103	104	7
170	171	14
10	50	1
120	121	4
121	122	6
160	161	5
121	121	6
20	20	10
167	168	6
59	72	1
108	109	3
79	80	8
58	58	22
136	137	12
145	147	4
74	77	2
169	170	3
11	33	1
105	140	2
112	113	4
9	24	7
74	74	12
181	182	8
5	134	7
42	108	2
72	72	3
14	33	2
47	52	4
54	57	3
67	68	6
27	38	2
81	82	4
49	50	5
144	145	7
188	189	4
182	183	2
68	68	11
45	46	9
12	32	1
34	51	2
21	21	9
149	172	1
48	52	1
165	166	8
37	71	6
137	173	10
139	140	1
163	164	4
34	38	2
98	99	6
7	7	8
144	147	1
61	75	1
29	46	2
183	184	4
138	140	3
108	108	6
27	27	8
143	143	8
18	21	8
172	180	1
32	33	2
50	52	6
139	143	2
15	148	1
132	192	3
64	66	7
105	106	10
182	184	2
66	67	3
157	158	8
37	38	8
61	62	5
102	196	2
22	31	1
33	34	1
126	141	1
77	77	5
66	68	4
47	49	1
1	30	1
165	179	4
159	160	1
85	85	9
17	18	8
3	3	8
193	197	6
152	155	1
101	102	3
108	110	4
82	83	7
125	131	3
132	143	2
104	106	3
29	29	4
94	95	5
33	72	7
162	168	4
15	47	1
60	61	4
10	11	4
156	157	1
19	19	12
30	50	4
101	103	1
0	24	1
66	71	3
81	81	8
76	77	4
2	2	8
50	51	4
32	42	3
99	177	1
122	161	2
150	161	3
35	36	10
104	105	4
41	41	10
57	172	3
13	32	5
156	163	1
103	107	1
113	113	10
115	157	5
87	87	6
111	112	2
184	193	3
44	47	2
190	194	1
34	41	1
171	193	2
149	150	15
0	1	1
14	27	2
43	56	2
168	178	2
2	3	12
97	120	3
25	27	4
155	157	2
151	152	4
55	56	1
11	51	5
116	116	4
34	50	4
135	184	2
161	172	4
28	29	7
163	189	2
59	74	5
195	196	6
160	169	2
179	181	1
99	112	1
59	61	5
161	183	1
117	156	3
27	32	2
109	109	4
158	159	2
73	73	1
75	77	4
190	192	4
71	78	5
112	150	1
1	3	5
39	40	3
17	17	5
60	60	3
73	74	4
133	171	5
154	155	4
79	79	1
139	152	3
24	150	1
192	197	2
113	114	8
35	35	10
130	139	2
150	163	4
14	37	1
32	141	4
156	158	1
71	111	1
39	52	1
112	112	4
34	34	9
37	58	2
184	195	1
1	9	2
20	149	1
56	111	1
29	141	3
113	124	2
138	173	1
150	152	6
15	24	3
78	105	2
56	57	6
138	145	1
63	74	1
20	33	3
47	50	2
97	97	3
172	176	2
127	137	2
9	25	1
147	148	3
132	152	1
61	74	2
161	166	2
93	96	4
143	145	2
82	82	4
80	80	6
112	125	1
191	192	1
2	7	3
95	97	2
97	108	1
83	83	3
15	30	3
114	185	1
28	30	6
36	45	3
174	176	5
117	117	6
17	19	2
153	179	3
66	78	5
39	44	1
174	174	6
169	179	3
114	119	5
119	156	3
171	181	3
140	143	2
49	52	2
46	143	1
120	164	1
183	186	2
167	169	4
117	180	1
95	96	3
187	188	5
54	56	3
145	146	2
96	118	1
67	67	3
38	38	3
55	167	3
96	97	6
28	31	1
13	15	3
165	168	1
85	86	4
138	144	1
44	53	6
69	78	3
181	189	2
47	48	1
138	151	2
16	31	1
131	147	1
31	57	1
172	177	1
164	183	2
2	25	5
45	124	1
96	116	1
75	75	1
137	144	2
122	127	2
185	188	1
189	190	1
56	58	4
46	49	1
40	56	3
189	194	2
6	7	4
137	138	1
192	195	1
24	118	1
159	166	3
6	8	2
155	161	1
1	4	2
184	194	3
16	32	2
161	163	4
176	178	3
158	161	2
103	106	3
36	46	5
132	133	8
104	104	2
170	172	1
58	72	5
113	115	2
76	105	2
68	79	2
135	137	1
6	9	2
67	87	1
190	191	1
56	122	2
109	112	3
150	169	1
184	185	3
123	161	2
3	8	2
15	44	4
34	62	4
111	141	3
115	117	3
36	38	1
126	129	2
9	17	2
159	169	3
113	123	1
27	51	1
117	119	1
40	43	1
8	25	3
167	193	1
130	131	2
15	16	1
161	168	3
171	173	2
151	162	1
157	160	2
184	187	1
107	110	1
21	22	6
139	139	1
164	167	1
53	55	1
159	165	1
16	28	1
138	139	4
195	197	2
123	124	2
87	89	1
140	141	3
186	194	1
68	105	2
144	148	4
151	163	1
100	177	1
49	51	2
38	45	2
53	56	1
161	171	1
118	119	2
158	160	1
129	136	2
161	165	2
66	66	1
99	116	2
4	15	1
169	172	1
29	52	3
98	100	2
13	51	1
9	16	1
174	189	1
95	103	2
99	100	1
189	195	1
161	162	2
97	98	2
93	100	2
133	134	1
127	138	1
48	55	1
3	4	2
43	55	2
63	64	1
135	191	1
186	193	1
180	192	1
168	192	2
20	162	2
168	185	1
110	112	1
178	179	1
26	193	1
18	19	1
186	188	1
54	123	1
41	177	1
16	19	1
16	43	1
38	39	2
112	114	1
176	189	1
65	67	1
179	183	1
143	144	1
155	160	1
139	153	1
29	183	1
142	144	1
61	67	1
150	160	1
134	185	1
124	162	1
