46	46	32
56	56	28
40	40	28
43	43	14
57	57	17
7	7	8
53	53	4
20	20	16
58	59	15
1	1	16
48	60	1
36	36	39
37	37	30
9	9	29
7	8	1
13	13	11
35	35	36
21	23	5
45	46	8
31	31	30
60	61	7
30	30	32
13	15	2
47	47	58
4	17	1
33	34	17
39	41	11
34	34	32
51	51	18
6	6	16
62	62	31
32	32	27
60	60	28
20	22	4
29	29	7
54	54	11
38	39	19
42	60	2
38	41	6
40	41	20
33	33	46
23	23	14
44	45	10
55	55	26
53	56	3
37	39	11
44	44	35
19	19	7
30	31	17
58	58	16
38	38	39
48	49	7
56	57	18
35	44	14
39	39	24
11	11	21
5	5	10
35	36	11
37	38	10
17	17	20
49	49	22
25	25	23
32	33	10
44	48	3
61	61	19
24	24	15
50	50	23
21	21	14
0	0	16
57	60	2
50	51	10
59	59	13
51	52	2
45	45	23
22	23	7
48	48	47
12	16	4
53	59	1
6	7	6
9	10	2
47	48	9
29	30	6
33	37	3
42	42	18
5	14	1
43	44	9
30	61	1
10	10	8
3	4	13
45	47	9
53	54	6
8	8	5
33	36	5
52	53	4
31	32	4
0	1	5
10	12	1
52	52	14
4	4	8
39	40	5
23	24	3
59	60	6
51	54	2
3	3	12
44	47	3
21	49	2
52	60	2
31	62	2
10	14	2
16	16	10
18	18	6
14	20	5
46	47	13
17	35	2
61	62	9
11	13	5
22	22	6
14	16	5
4	14	2
30	60	1
6	22	4
25	60	1
50	52	6
34	47	1
11	12	2
2	61	4
30	52	5
12	12	5
41	41	8
12	13	1
42	43	17
53	58	2
18	19	3
36	37	3
34	61	2
56	60	3
53	55	1
24	26	1
51	55	2
11	15	1
16	17	3
46	48	3
42	49	2
5	10	1
5	9	2
25	26	3
50	54	3
34	45	3
50	55	2
2	2	6
35	47	1
8	9	7
44	46	2
35	37	1
49	52	3
18	37	1
14	14	5
30	35	1
19	21	1
15	15	6
2	3	1
25	30	1
32	62	1
17	37	1
36	55	1
14	15	3
4	5	3
41	42	3
33	62	3
5	6	2
36	43	2
40	42	2
10	13	1
25	57	2
19	20	2
7	9	2
56	58	1
1	2	1
17	18	1
36	44	1
24	55	1
10	11	3
33	43	1
29	59	1
24	51	1
13	16	1
55	57	2
49	50	1
32	61	2
21	24	1
30	33	1
54	55	2
58	60	1
32	47	1
