114	114	4
39	39	12
135	158	2
26	26	14
56	56	10
107	107	9
148	148	19
142	142	11
134	159	6
32	32	21
51	51	10
10	13	5
105	106	6
33	38	4
120	121	6
40	40	7
132	132	19
102	102	20
17	28	1
63	63	9
131	133	4
9	12	1
156	156	6
3	3	8
176	176	14
147	147	22
39	40	10
45	45	15
160	162	3
145	145	9
92	92	10
154	156	2
4	4	13
139	139	10
149	149	8
90	90	12
15	15	12
113	145	2
100	100	1
91	102	2
138	138	19
146	146	15
55	55	15
88	111	2
24	24	16
101	102	2
116	117	6
144	151	3
9	10	4
67	87	1
22	23	3
109	110	12
134	134	19
5	5	19
172	173	6
37	37	35
117	118	12
25	26	8
1	54	2
43	43	20
44	44	16
49	49	4
55	148	8
113	114	2
119	119	6
58	58	6
123	123	6
8	9	7
11	31	5
75	82	3
11	12	16
18	19	14
1	1	19
65	66	3
179	179	7
150	150	14
24	27	3
106	118	2
18	18	19
62	62	2
68	71	1
167	167	9
150	151	4
139	141	5
144	157	8
23	39	3
130	147	3
27	27	9
96	96	15
171	172	6
59	60	3
168	171	2
59	59	18
41	42	7
19	20	6
125	126	10
95	95	8
149	150	4
138	139	3
2	4	4
25	38	3
21	21	17
90	176	1
159	159	6
10	11	9
35	36	6
66	67	3
129	129	1
22	22	6
70	71	4
113	113	4
178	178	2
109	109	5
128	128	10
68	68	14
41	41	27
83	86	2
18	20	9
32	34	1
73	73	29
160	160	3
84	101	1
60	60	4
82	92	4
30	30	11
159	173	2
1	2	6
30	31	9
23	23	8
129	130	2
138	140	5
36	36	12
28	28	12
151	152	9
111	112	3
9	9	13
160	161	3
14	14	25
124	125	5
90	93	2
84	89	2
27	105	3
133	167	3
58	76	2
131	131	13
20	21	6
20	24	1
110	110	6
23	24	9
25	60	2
29	29	8
84	84	7
72	72	5
70	70	3
10	10	16
163	163	5
83	85	3
15	16	4
166	168	2
127	127	11
21	31	4
91	92	3
112	114	6
98	99	5
153	153	7
88	88	3
36	39	1
51	52	4
118	118	14
158	159	5
106	106	11
112	112	7
26	36	5
40	41	5
57	94	6
71	73	4
6	7	6
41	43	4
175	175	3
134	147	4
29	31	4
11	11	9
118	120	2
5	42	5
166	167	4
24	26	3
98	118	5
174	174	6
74	74	12
23	29	2
173	174	3
7	7	7
37	60	2
6	6	8
137	168	1
91	91	6
137	137	13
175	176	1
88	112	2
53	53	3
105	111	2
128	130	4
12	12	12
8	11	2
86	101	2
3	7	1
143	143	6
128	145	5
126	126	8
161	161	4
25	61	1
144	152	2
93	94	5
79	79	4
144	144	6
27	43	4
33	33	8
139	159	1
23	27	1
60	61	6
73	75	5
126	127	7
82	82	21
77	77	8
25	29	2
96	118	1
9	11	2
72	77	2
168	168	10
38	43	3
171	171	15
10	14	3
71	71	5
27	110	3
85	86	6
28	35	2
43	44	4
139	140	2
56	148	1
173	173	20
2	5	2
135	136	4
154	163	1
141	142	1
162	162	5
28	32	3
3	5	2
120	172	1
11	17	5
136	173	2
121	122	5
96	100	1
150	154	1
114	115	6
80	80	11
102	103	1
137	138	3
2	2	19
156	160	2
52	53	7
94	94	12
146	147	3
131	132	4
1	53	1
4	39	1
76	81	2
7	30	1
31	32	5
28	29	4
123	124	4
35	35	11
92	94	3
104	109	1
140	140	15
95	96	2
87	88	3
11	13	5
54	55	9
166	166	1
124	150	2
164	164	7
3	9	1
89	89	7
151	153	6
167	168	4
105	107	6
158	173	2
134	142	1
4	42	6
80	81	4
61	61	5
133	133	4
87	87	5
57	57	7
17	17	4
50	51	4
71	76	3
57	59	2
32	33	3
27	29	5
101	101	6
67	67	13
148	149	2
156	157	2
170	170	11
92	93	4
65	65	4
117	117	2
42	43	3
14	37	1
32	36	1
71	72	3
86	86	3
7	9	3
37	38	6
10	38	5
152	152	12
140	141	9
134	171	1
19	19	6
136	174	2
130	130	9
27	50	3
5	15	1
9	45	2
38	38	12
155	155	5
167	172	2
131	134	2
13	13	13
180	180	4
7	37	1
19	21	7
141	141	13
16	16	13
165	166	11
73	74	2
96	97	6
31	40	2
7	10	3
179	180	3
3	10	3
29	106	1
4	9	1
106	107	2
116	123	4
57	93	1
136	172	4
93	93	10
154	155	1
143	144	6
83	84	2
95	101	3
24	25	9
151	151	5
8	14	1
78	78	3
144	146	3
118	131	1
116	116	2
52	94	1
49	50	1
5	6	1
21	22	4
172	172	10
138	142	2
5	14	1
124	124	4
66	66	3
97	98	1
32	39	1
36	37	9
125	125	12
107	115	1
64	65	3
131	143	1
57	76	1
150	175	1
104	104	1
96	147	2
83	83	1
127	128	4
142	150	4
4	8	1
104	106	1
34	34	2
10	12	2
113	115	2
77	78	3
22	42	1
85	85	6
155	160	2
39	53	2
68	103	3
6	42	2
58	92	1
158	158	5
50	50	5
86	87	2
37	61	1
165	165	3
113	154	2
134	137	1
119	127	4
31	39	1
42	42	7
76	76	7
14	30	2
125	152	1
56	57	2
38	66	1
132	134	1
3	4	5
8	8	7
145	152	1
61	62	1
1	38	3
137	154	2
90	91	4
17	19	2
3	51	1
136	136	2
93	103	3
57	58	3
4	10	1
25	27	3
54	54	9
62	63	2
153	155	2
163	169	1
89	90	1
118	164	1
14	15	2
31	31	7
58	59	3
78	81	1
31	38	1
52	77	1
136	137	2
118	130	2
52	52	3
44	45	2
87	98	2
81	82	4
113	155	1
21	30	1
71	78	1
94	95	5
30	44	2
103	105	3
87	111	1
26	30	2
153	154	3
147	148	2
25	25	3
26	27	3
13	14	6
77	79	2
115	115	1
95	141	1
53	78	1
0	1	2
28	40	1
0	0	8
122	122	5
111	111	8
133	134	2
50	63	1
62	104	4
145	146	1
67	111	3
59	61	1
169	169	4
177	178	3
61	64	1
96	139	3
110	111	2
2	3	6
55	56	3
104	105	3
134	174	1
58	60	2
30	41	2
11	14	1
81	83	1
19	25	1
37	62	1
134	135	1
105	105	7
17	18	2
27	28	2
29	105	1
167	169	2
102	117	2
45	46	1
81	81	6
106	115	2
38	39	8
90	162	1
43	45	2
68	121	1
8	10	1
168	169	2
60	118	1
151	174	1
97	97	1
29	110	1
101	117	1
75	75	9
5	7	2
96	127	1
99	99	1
40	43	1
131	137	1
10	36	2
164	166	2
62	103	1
5	9	2
37	39	1
151	175	2
115	123	1
165	167	3
130	162	1
52	55	1
62	110	1
20	20	3
165	169	2
22	40	1
168	170	1
63	65	1
108	109	1
1	3	1
28	37	1
103	103	2
135	135	2
33	34	1
115	116	1
144	145	3
13	110	1
50	52	2
118	121	1
17	36	2
97	109	2
87	89	2
104	148	1
63	105	1
84	85	1
112	113	1
167	171	1
36	63	2
14	17	1
51	55	1
123	125	1
74	75	1
23	25	3
129	131	1
68	87	1
94	100	1
87	90	1
101	113	1
27	52	1
86	90	1
26	28	1
21	36	1
5	53	1
54	60	1
4	5	1
17	20	1
15	18	1
25	107	1
160	174	1
64	103	1
110	147	1
143	145	2
121	121	1
137	173	1
10	16	1
177	177	2
16	17	2
5	8	1
35	40	1
162	167	1
17	39	1
96	125	1
55	61	1
120	120	2
164	171	1
100	101	1
100	112	1
28	43	1
127	139	2
53	77	1
17	23	1
14	29	1
97	103	1
11	45	1
14	24	1
44	179	1
102	109	1
75	76	1
90	112	1
168	172	1
24	61	1
36	62	1
105	149	1
1	37	1
11	15	1
163	166	1
130	154	1
150	159	1
127	130	1
