70	70	6
83	83	12
48	86	2
88	89	1
74	74	14
28	79	1
48	48	5
72	73	2
69	78	5
78	134	3
47	47	22
125	125	9
112	112	18
80	81	8
77	77	9
12	12	22
91	134	2
17	17	15
126	129	3
29	48	3
103	105	6
99	99	14
72	72	9
62	63	1
16	16	9
21	27	6
84	134	1
21	76	3
0	0	7
118	118	6
4	4	6
85	85	12
82	82	9
49	87	1
93	93	18
7	8	5
65	65	8
45	45	23
36	93	1
3	50	2
27	28	7
107	110	1
100	134	3
114	116	3
27	27	12
72	110	3
24	25	4
120	126	4
4	5	9
18	120	2
50	56	5
31	69	2
96	96	12
95	95	9
2	111	1
36	36	11
117	117	8
35	79	2
66	66	9
29	115	1
96	99	6
126	127	1
16	133	2
57	101	1
15	15	13
39	39	13
20	84	7
89	100	2
61	61	8
103	103	10
77	85	1
114	114	6
121	121	3
7	7	13
25	83	3
63	69	2
24	24	5
110	110	12
17	115	2
60	101	2
19	19	7
28	91	3
74	104	1
133	133	5
45	112	7
5	5	11
9	112	4
46	46	11
63	63	7
26	26	17
104	105	2
84	85	5
82	85	8
107	123	3
130	130	7
13	111	3
12	13	4
33	33	10
29	78	1
13	13	10
98	100	3
75	76	8
44	44	6
38	42	1
93	122	3
73	73	17
26	27	8
35	35	15
55	55	5
65	66	3
106	112	2
15	19	4
16	122	7
62	62	13
70	73	6
111	112	2
48	96	4
108	108	7
37	92	4
99	100	8
101	102	5
9	9	8
20	120	2
58	70	3
21	120	5
97	99	7
22	22	4
21	21	14
39	84	4
16	107	4
20	27	4
57	57	8
68	69	2
6	7	3
25	28	1
11	93	5
3	11	3
90	98	3
68	68	12
50	50	1
69	70	2
29	29	21
11	11	8
8	8	4
119	119	3
38	39	3
14	132	1
34	74	3
87	87	11
26	55	2
48	49	2
25	25	14
84	99	3
79	79	2
125	126	4
81	81	4
11	64	1
76	76	11
10	10	8
75	77	5
64	68	2
116	116	5
15	59	4
126	126	7
30	30	18
42	42	9
123	123	3
80	80	4
6	59	5
100	100	11
30	78	4
29	30	6
42	112	2
71	71	11
77	78	2
21	31	4
18	19	1
6	95	1
33	36	2
83	86	2
125	131	3
27	63	1
23	25	4
5	28	1
101	101	8
34	46	1
10	11	2
28	29	4
124	124	5
107	125	1
49	84	3
5	91	1
124	125	5
123	128	3
22	79	2
8	37	3
98	99	12
78	78	6
59	62	3
46	120	5
7	57	2
3	4	3
115	132	3
42	56	1
131	131	12
57	59	1
18	118	6
93	99	1
94	95	3
35	36	4
93	94	3
36	37	1
67	68	1
46	83	2
60	60	10
43	44	5
39	43	2
37	45	1
95	109	6
97	97	5
18	18	16
126	131	2
40	100	4
93	100	1
55	56	1
38	38	3
6	6	3
20	26	2
67	67	9
58	58	5
37	37	12
48	55	2
98	98	9
100	103	1
48	97	1
32	60	2
35	44	2
22	35	2
55	101	1
127	127	6
6	60	1
123	124	3
100	101	1
84	84	4
27	133	2
109	109	6
111	111	6
82	92	6
62	85	1
64	67	3
20	20	8
73	110	3
38	41	2
127	131	3
106	106	4
86	118	2
32	46	3
116	117	1
14	14	3
81	92	2
6	38	2
55	92	2
58	74	2
32	43	5
72	77	1
117	118	1
2	2	6
59	59	8
93	98	1
7	101	8
82	97	2
11	27	1
81	82	4
24	63	2
60	76	1
13	46	1
21	121	1
26	121	3
34	35	2
26	49	3
82	99	1
37	112	1
19	21	1
5	95	1
90	90	2
82	98	3
8	35	1
5	14	2
94	94	2
27	76	4
46	112	1
12	25	1
21	99	1
58	59	2
116	132	5
31	32	2
25	26	8
86	86	3
83	133	2
69	69	7
31	31	5
40	40	6
115	131	1
9	10	3
95	111	1
41	56	2
102	102	5
97	98	4
5	29	1
22	27	4
33	61	2
92	93	3
59	73	5
11	36	2
40	42	2
90	91	3
86	93	2
9	111	7
32	32	3
29	62	1
51	51	1
41	43	1
23	101	1
56	56	2
129	131	2
26	46	3
3	3	1
6	112	1
81	97	3
23	24	4
82	91	2
26	62	4
57	65	3
127	129	4
132	132	1
8	9	1
87	88	6
25	29	1
113	113	1
19	20	5
105	105	6
29	60	2
19	108	2
33	72	1
36	92	4
69	134	1
64	64	6
22	29	1
130	131	2
70	78	2
48	50	3
59	60	4
35	76	3
120	128	2
28	97	1
64	65	2
108	120	3
115	134	1
12	122	3
63	64	2
23	23	4
17	31	1
10	60	1
13	14	1
20	116	1
107	107	2
25	123	2
20	118	1
73	74	4
124	128	2
124	126	1
33	46	1
79	92	1
13	37	2
56	57	2
75	75	9
43	43	5
49	89	2
121	131	1
91	92	2
8	94	2
4	114	2
28	28	5
125	132	3
115	115	3
5	32	1
68	72	3
78	92	1
38	84	3
37	93	1
7	94	3
38	40	4
104	104	5
134	134	1
25	86	2
75	79	1
50	55	2
11	51	1
96	98	1
76	77	2
78	85	1
34	34	2
19	27	2
94	112	1
27	83	1
120	120	3
55	89	1
0	107	1
83	85	3
81	90	1
15	43	2
100	133	3
20	40	1
88	88	2
72	97	1
6	43	1
2	47	1
121	127	1
99	101	1
18	21	1
6	16	1
61	100	2
59	74	1
57	81	1
14	113	1
20	60	1
14	23	1
41	41	2
13	22	2
34	61	2
21	32	1
115	116	2
42	43	2
60	70	1
122	122	4
66	83	1
20	21	1
74	77	1
92	92	3
128	128	2
114	115	2
34	72	1
30	42	1
110	112	3
13	32	1
92	100	4
112	113	2
39	97	2
70	71	2
19	75	2
59	83	1
34	47	2
35	48	1
55	81	1
93	105	1
14	15	1
21	22	1
16	67	1
28	76	2
39	41	1
77	83	1
82	133	2
61	62	2
82	93	1
45	110	2
47	48	1
25	61	2
88	90	1
8	113	1
106	107	1
22	133	1
11	26	2
122	123	1
35	37	1
17	74	1
7	43	1
63	70	1
28	42	1
105	107	2
10	24	1
7	11	1
82	83	2
93	107	1
45	98	1
96	97	2
46	47	1
109	110	1
119	120	2
17	19	1
7	91	1
129	129	1
39	40	1
1	2	1
55	60	1
38	112	1
11	126	1
28	90	1
69	81	1
60	78	1
12	24	1
11	25	1
91	91	1
4	14	2
45	46	1
70	75	1
5	6	1
128	129	1
14	101	1
47	76	1
