97	101	1
31	31	7
81	81	7
81	82	4
73	74	10
60	77	3
76	78	5
68	68	6
83	85	4
47	47	11
109	109	2
74	79	3
96	96	15
52	52	9
38	38	3
75	78	2
97	97	5
44	47	1
94	94	11
63	63	6
89	91	1
108	108	6
86	86	1
71	72	6
114	114	5
95	97	1
23	23	3
82	82	9
67	67	3
64	106	3
80	80	4
60	71	4
25	25	7
87	91	3
100	100	4
58	71	2
35	37	5
113	113	4
71	71	12
78	78	10
112	113	6
44	44	3
105	106	9
46	46	7
27	27	6
56	83	2
98	98	8
48	48	2
70	70	12
52	96	1
72	77	2
26	31	1
30	30	2
53	54	1
93	94	2
46	47	5
33	33	3
62	105	3
65	65	7
30	47	2
104	104	13
61	61	12
98	99	6
73	73	11
59	59	10
90	91	8
64	67	2
45	45	6
60	60	9
110	110	8
92	92	6
34	34	4
22	22	3
62	64	1
51	88	1
79	89	2
63	78	3
107	108	3
111	111	6
105	105	6
86	100	1
64	64	3
66	67	8
101	102	8
53	59	8
42	42	2
77	77	8
106	106	7
51	51	9
92	95	3
94	107	1
82	84	5
103	104	7
75	75	3
69	69	3
101	101	4
85	85	2
64	65	4
64	66	1
100	101	2
60	61	1
87	90	5
84	85	3
54	55	4
106	107	5
89	89	5
97	102	6
28	28	3
48	49	1
73	75	4
99	111	3
41	41	2
59	81	2
103	103	3
115	115	4
76	77	4
66	66	5
43	43	5
72	73	3
84	88	4
81	85	3
57	92	2
87	89	2
110	111	3
87	88	2
26	26	3
33	34	8
98	103	3
50	50	2
49	49	8
21	21	4
72	72	9
81	93	2
95	95	6
99	99	7
52	53	3
103	109	1
104	106	3
46	49	4
88	88	2
70	71	2
78	80	2
92	94	4
99	100	1
56	56	6
72	75	3
65	66	4
89	90	6
62	62	7
62	63	1
22	36	1
59	60	2
54	54	6
103	106	3
113	115	4
58	68	1
112	114	1
36	36	3
63	64	2
80	81	2
61	62	2
79	79	9
74	78	2
27	29	3
92	93	2
82	93	1
88	89	2
107	107	2
26	27	1
68	69	1
57	57	6
29	29	2
45	46	1
74	74	6
86	102	1
39	39	3
35	35	1
47	48	1
101	103	2
69	70	3
85	86	2
94	97	5
41	42	1
102	103	4
94	95	3
63	65	5
74	75	3
58	59	4
104	105	1
93	97	1
110	112	2
77	79	2
102	102	3
97	98	1
90	90	4
43	47	1
75	77	6
79	93	3
58	58	2
43	44	2
34	51	1
89	102	1
69	71	1
33	35	6
94	108	4
91	91	3
26	28	1
96	98	2
85	102	1
36	38	2
22	37	1
28	31	2
50	51	1
81	103	1
37	38	1
38	39	1
91	93	1
65	69	1
91	103	1
94	102	2
86	93	1
60	81	2
85	101	1
30	31	1
78	79	1
29	30	1
20	23	1
76	76	1
99	109	1
68	71	1
