108	108	6
79	79	10
88	88	4
50	50	9
7	11	5
14	14	6
128	128	3
21	22	2
113	128	1
45	47	1
65	86	2
27	89	2
87	87	7
89	90	2
123	123	2
59	59	8
98	98	2
44	44	4
87	113	6
49	50	2
117	125	1
112	118	1
92	119	5
92	92	8
56	110	1
95	96	10
24	24	7
127	129	5
60	63	1
106	106	7
50	97	5
121	121	3
80	81	3
103	103	18
104	104	12
4	5	10
125	125	9
15	15	5
8	8	10
65	65	6
106	110	2
109	109	4
116	116	6
23	24	4
72	78	1
71	71	2
53	61	2
114	114	2
18	18	3
93	94	5
110	114	6
127	127	3
3	38	2
124	125	2
58	59	7
43	117	1
99	99	4
93	93	6
129	129	4
63	64	4
53	98	2
85	113	3
58	58	6
111	113	1
64	64	10
130	130	10
128	129	3
20	20	3
36	36	6
55	61	4
133	133	5
53	53	2
54	55	5
63	63	20
27	28	6
91	91	5
1	1	3
43	45	1
6	6	7
7	9	2
115	115	7
85	86	3
132	132	2
54	87	1
9	13	1
86	88	4
45	45	2
91	93	2
125	132	2
24	50	1
3	5	4
91	92	3
59	64	4
66	85	2
98	101	2
50	90	7
96	96	9
50	52	2
117	118	6
70	71	2
97	97	6
43	102	2
88	115	4
55	56	1
95	95	4
86	86	5
55	57	2
90	90	4
17	17	1
46	47	1
105	115	1
62	62	3
111	117	1
33	34	4
14	28	1
8	9	2
54	54	5
28	29	6
78	78	4
84	84	2
63	65	3
60	60	3
94	95	3
29	30	3
130	132	3
35	36	1
86	113	1
120	120	3
94	112	2
37	37	9
46	50	1
15	17	1
30	30	2
8	11	1
75	75	2
114	115	1
61	62	2
10	10	5
101	101	2
37	38	1
83	84	5
62	77	1
22	91	2
112	112	7
83	87	3
100	100	7
43	43	2
4	4	6
88	114	1
66	122	1
85	85	4
74	104	4
65	82	1
110	110	2
47	89	1
122	122	2
110	119	3
56	57	5
62	112	4
84	87	3
42	123	1
8	34	3
124	124	3
71	81	1
80	80	2
69	73	1
107	107	4
72	73	5
14	52	3
104	105	1
90	91	3
103	104	4
26	27	1
2	2	3
3	3	7
61	61	9
13	17	1
25	25	2
44	122	2
5	5	5
65	90	2
45	99	3
1	2	4
16	17	5
89	89	1
111	119	1
100	101	1
0	35	1
45	61	2
7	33	1
45	124	1
59	80	2
131	134	1
6	7	6
103	113	1
29	29	3
56	98	2
131	133	2
49	65	2
44	55	3
11	12	2
117	117	2
99	100	2
130	134	1
112	123	2
47	47	2
56	60	1
84	115	3
49	90	1
16	16	3
67	67	9
81	81	1
71	72	5
52	52	7
14	26	2
95	117	1
85	122	2
91	130	1
72	72	3
11	11	7
19	19	2
102	102	6
67	82	4
22	22	4
76	76	5
13	13	4
3	4	1
119	120	3
67	72	2
116	117	3
38	38	1
50	98	1
56	56	2
53	97	3
77	78	3
87	89	1
73	73	3
105	105	4
32	32	2
43	65	1
58	66	3
117	129	2
131	131	5
25	50	1
6	15	1
14	17	2
7	7	1
130	131	1
12	12	5
9	18	1
77	77	3
105	106	4
66	68	8
57	57	6
113	118	1
60	61	2
115	117	1
92	131	4
90	97	1
54	64	3
78	79	2
58	95	1
12	15	1
50	130	1
125	126	2
21	21	2
58	83	4
88	89	2
45	100	1
110	123	1
69	78	1
94	110	1
48	48	2
46	105	2
68	68	1
20	24	1
16	18	1
98	117	2
84	85	1
76	98	2
81	89	1
121	123	1
106	118	1
25	26	2
13	14	2
68	72	1
60	112	3
118	118	3
60	110	1
74	74	4
16	38	1
69	69	2
110	121	1
54	65	3
79	80	1
76	94	1
91	97	2
95	99	2
44	108	1
113	113	1
53	79	1
44	83	1
49	49	1
83	83	2
99	114	2
46	51	1
26	53	1
48	58	1
124	126	1
43	83	1
84	91	1
62	63	2
35	35	2
99	118	3
43	44	2
95	106	1
55	85	2
54	109	1
31	32	1
71	78	4
51	69	2
52	94	1
13	29	1
118	120	1
63	122	2
54	62	2
33	33	2
67	84	3
54	67	1
18	29	2
79	98	1
37	71	3
118	123	1
94	94	1
52	54	1
70	70	3
21	23	1
115	118	1
43	84	1
121	122	1
61	109	1
109	111	1
113	129	1
108	109	2
55	55	2
106	109	1
65	72	1
53	87	1
0	43	1
18	19	1
82	82	1
29	32	1
55	84	1
119	119	1
105	119	1
72	81	1
34	34	1
31	31	2
71	79	1
44	64	1
69	86	1
