64	64	11
186	187	3
229	229	6
73	73	12
144	150	4
105	123	2
65	85	1
104	104	5
199	199	8
51	51	10
196	217	7
71	73	2
78	80	5
130	130	8
88	88	4
242	242	13
65	76	6
8	8	11
169	169	3
59	123	3
17	22	7
232	237	2
100	100	19
12	12	16
235	236	4
26	26	19
33	34	10
6	6	8
19	20	3
97	189	2
49	49	5
48	49	5
40	40	7
0	0	10
66	173	3
30	114	3
124	124	2
146	147	3
232	239	2
9	9	7
0	60	3
44	48	3
19	21	3
153	242	2
116	116	15
40	41	3
86	86	10
101	102	4
11	11	5
85	85	16
62	64	1
99	138	1
133	133	10
59	59	5
27	123	2
203	203	9
81	82	3
206	207	2
150	151	5
111	113	6
57	57	12
107	108	1
107	117	3
63	64	2
197	197	10
76	83	8
164	165	3
27	193	1
180	180	3
42	42	7
167	167	8
162	217	3
237	237	9
46	46	3
109	109	2
172	173	2
66	69	3
24	25	3
110	189	5
58	58	6
145	146	3
223	226	1
24	24	2
16	18	2
15	16	2
76	76	7
157	157	4
53	53	9
180	181	3
196	202	1
233	237	5
28	83	3
33	33	5
202	202	2
183	183	1
121	130	2
88	89	3
74	74	13
214	214	2
99	104	3
56	56	9
1	2	2
101	101	2
189	190	3
127	127	6
1	1	2
51	53	2
69	69	8
54	74	2
75	75	12
100	186	6
225	238	1
38	47	4
153	154	5
48	48	14
177	195	4
105	105	6
12	68	3
178	195	4
147	147	15
119	119	9
25	27	3
103	103	10
129	130	5
76	79	8
172	172	2
67	68	7
47	47	7
77	77	4
7	8	3
174	174	6
20	33	2
21	22	3
167	177	2
190	208	3
175	175	3
103	104	9
4	7	2
55	55	6
220	221	1
164	164	1
79	81	5
20	36	2
197	198	4
106	106	8
238	238	3
49	53	2
233	236	3
168	188	2
84	84	6
6	21	2
20	20	8
75	79	6
34	34	9
24	27	3
221	222	1
204	204	4
13	13	11
215	215	3
98	98	5
99	103	2
96	129	1
115	115	7
2	59	1
214	215	3
61	61	5
211	211	6
236	236	1
149	150	5
212	213	1
149	149	3
54	54	8
66	66	6
136	136	10
22	153	1
165	165	2
194	199	2
213	213	4
34	80	4
205	205	9
98	221	1
122	122	4
131	135	2
30	30	5
160	160	5
218	222	3
155	155	1
22	33	2
44	44	8
18	18	3
38	38	10
80	80	9
196	196	4
122	123	2
43	43	3
5	21	4
115	117	7
10	58	2
106	166	2
31	47	2
215	216	8
50	50	4
218	221	3
26	64	4
81	81	4
3	9	3
102	102	13
220	222	2
105	147	1
35	35	7
19	19	6
25	25	4
10	11	4
126	126	11
160	206	1
117	132	3
202	209	3
66	77	4
16	16	6
52	52	8
35	36	11
192	192	3
178	184	2
5	124	1
62	63	8
18	20	2
71	71	8
13	16	7
212	212	6
129	129	13
123	123	2
216	216	10
13	17	2
37	37	1
2	2	15
79	123	2
99	99	5
223	223	7
235	235	7
63	63	9
133	134	6
31	114	3
32	33	5
136	220	4
118	134	2
152	152	4
119	136	1
241	242	4
200	201	10
165	170	4
71	242	2
29	77	3
111	111	2
179	180	2
153	216	1
2	11	2
184	184	6
141	141	4
118	120	4
4	14	5
3	12	1
26	27	3
45	45	8
225	229	3
217	217	5
75	84	4
3	3	4
168	168	10
76	80	4
218	227	2
206	206	3
45	48	2
39	40	10
180	183	1
60	66	7
9	46	5
7	7	9
68	172	3
134	134	11
65	65	5
163	182	1
78	131	5
160	215	3
41	41	6
38	45	2
31	31	10
203	204	3
231	231	3
125	138	1
56	57	4
23	23	5
201	201	8
71	72	3
80	82	2
106	137	5
227	232	1
74	75	4
78	135	1
210	210	1
101	106	2
83	83	2
114	114	2
100	104	3
194	195	5
34	35	3
108	108	3
6	22	3
39	42	2
13	15	2
69	183	3
163	166	7
4	5	2
155	211	4
152	153	4
39	58	2
22	23	1
104	105	4
29	65	2
15	15	9
6	79	3
149	193	1
11	13	5
44	45	4
147	148	3
80	83	3
97	242	2
222	223	4
3	22	3
209	209	6
193	193	5
155	156	1
188	205	1
240	240	2
131	131	4
14	14	3
71	157	2
153	153	1
15	69	2
28	28	5
27	27	4
17	49	1
117	118	2
160	161	1
24	152	2
30	180	4
159	210	1
24	26	2
240	241	1
0	59	1
219	219	2
32	32	5
128	130	2
107	107	3
25	26	3
99	100	5
185	187	1
233	234	2
185	185	2
60	60	2
199	200	6
72	72	6
3	4	4
121	121	7
163	176	2
51	52	2
150	152	3
195	232	2
68	134	2
105	168	1
98	99	2
177	178	2
178	178	7
160	197	1
226	227	5
177	177	1
159	159	5
182	182	6
100	101	5
187	188	2
135	135	3
234	234	4
32	50	2
234	236	1
29	29	7
79	131	2
43	47	2
230	234	4
39	39	13
82	83	4
228	228	9
54	71	2
68	79	2
144	144	2
230	230	8
64	65	2
226	226	8
175	187	2
236	237	1
80	81	4
168	178	1
77	193	4
120	137	1
207	207	10
16	67	2
104	138	1
63	74	1
139	139	6
199	227	1
23	27	1
170	170	4
111	148	1
10	10	3
17	19	1
58	60	1
151	151	2
73	74	4
207	208	2
48	50	3
147	208	1
159	212	2
123	124	2
228	229	5
69	70	1
218	218	2
231	236	2
154	158	1
24	151	2
17	53	2
103	138	2
136	143	2
201	202	4
43	44	2
98	161	4
57	58	1
194	194	6
15	33	3
21	21	1
162	162	3
131	162	3
158	158	4
241	241	3
2	3	2
113	118	1
20	140	3
62	62	2
148	148	4
96	96	2
108	116	1
121	131	4
47	57	1
153	159	1
0	1	1
137	137	5
48	74	2
177	184	1
99	101	2
142	156	1
170	205	3
146	150	3
104	123	1
105	119	2
61	77	2
5	27	3
128	205	1
48	78	3
0	13	1
70	70	7
226	234	5
178	185	1
10	37	1
214	217	2
210	211	2
152	219	1
77	78	1
58	61	1
46	79	1
59	60	4
176	178	2
89	89	1
175	176	2
208	208	3
143	143	2
127	136	2
200	200	3
155	209	1
138	140	1
67	67	4
239	239	3
110	135	3
198	198	2
12	67	1
220	220	4
61	62	2
9	69	4
195	195	2
131	160	1
14	115	3
155	212	2
211	215	1
211	212	3
73	83	2
104	176	1
98	186	1
78	83	2
188	188	5
234	235	1
41	45	2
60	78	2
158	210	1
22	22	3
152	216	1
13	84	1
158	159	2
107	140	2
84	86	3
128	173	1
139	140	2
17	17	2
121	153	1
201	207	3
5	22	3
142	142	2
68	68	2
161	161	1
52	53	1
66	80	1
113	113	2
3	53	2
141	142	1
107	115	2
211	213	2
104	221	1
24	193	2
4	23	2
66	67	1
118	119	1
29	30	2
196	199	3
102	106	1
8	29	2
154	154	1
222	227	2
109	128	1
163	163	1
12	19	3
16	59	2
138	143	1
210	213	1
30	61	1
76	122	2
96	98	2
164	170	2
173	173	1
0	2	1
170	175	2
19	140	2
43	46	4
209	210	1
123	126	2
228	234	1
47	48	2
18	89	1
176	218	1
4	6	2
21	30	1
30	76	1
4	18	1
221	221	1
222	222	1
68	206	4
58	75	5
17	21	1
49	50	3
65	66	2
144	145	6
64	102	1
68	177	1
66	79	1
201	208	1
5	6	3
225	227	2
120	120	1
183	239	1
240	242	2
135	146	1
9	128	3
82	82	1
6	23	1
228	230	1
79	79	1
77	79	2
125	127	2
67	69	1
5	19	1
79	80	1
169	178	1
26	193	1
9	10	3
89	91	2
114	132	1
104	137	1
14	34	1
3	8	1
21	115	1
136	144	1
190	190	1
138	138	1
162	182	1
30	48	1
197	232	1
123	125	1
53	54	1
112	113	1
233	238	1
124	125	1
239	240	1
225	225	2
116	132	1
232	240	1
175	204	1
27	158	1
