36	37	15
32	35	4
37	37	2
20	21	3
10	11	6
19	19	18
33	33	10
7	7	22
51	51	9
60	60	5
50	52	4
26	26	9
44	44	21
1	1	11
43	43	18
21	22	3
34	34	9
9	9	7
56	56	23
48	51	1
77	77	9
32	73	3
71	71	8
50	51	4
58	58	9
47	52	4
55	55	7
44	45	12
12	12	10
31	31	7
67	67	9
10	10	3
75	75	8
46	46	24
18	19	3
35	43	9
57	57	14
63	64	4
23	23	4
22	23	2
36	39	1
40	40	2
18	18	4
35	35	5
37	38	5
6	6	11
8	9	7
39	39	11
42	42	10
74	74	7
22	39	1
64	64	5
21	21	9
61	74	3
72	72	12
36	36	11
48	48	26
50	50	4
3	3	20
30	43	1
47	47	14
40	41	1
2	3	7
20	20	13
5	6	2
53	56	6
29	31	4
44	46	8
59	59	7
28	57	2
64	65	12
26	27	9
32	33	6
18	20	2
46	47	7
38	42	2
22	32	1
0	1	3
76	77	3
19	20	4
37	42	1
26	29	7
61	61	16
62	62	4
28	29	6
66	67	1
26	28	3
65	67	3
13	13	12
43	44	5
53	53	4
49	50	2
64	66	13
6	7	4
53	54	4
25	75	1
66	66	12
20	37	1
29	29	10
43	47	2
32	34	1
10	28	2
70	72	4
58	59	4
8	10	1
52	52	11
24	53	2
22	22	6
62	63	8
35	36	9
61	64	4
65	66	4
28	40	2
45	45	18
65	68	5
0	0	7
6	32	2
19	21	3
46	56	2
12	13	2
3	4	6
30	30	8
1	4	4
71	73	2
22	28	1
8	8	7
25	29	1
23	24	5
2	2	10
71	72	5
35	37	5
44	47	6
49	51	1
67	68	8
41	41	6
0	2	2
51	52	4
64	67	2
25	76	5
41	50	3
56	59	1
30	50	1
46	68	2
9	12	1
72	73	6
68	68	7
18	55	2
56	76	2
45	46	4
40	59	2
54	55	2
56	57	6
42	43	5
70	71	4
54	54	4
18	38	2
20	39	4
76	76	4
33	34	1
73	74	2
1	2	6
27	28	2
25	26	2
69	76	2
48	49	7
65	65	6
35	38	1
19	33	2
28	52	2
49	49	7
57	76	2
11	11	3
73	73	3
13	55	2
75	76	6
14	25	2
43	51	2
44	48	3
24	51	2
19	35	3
4	49	1
29	39	2
31	51	5
59	61	4
21	52	1
43	61	1
21	32	2
38	38	4
27	54	3
25	54	1
61	76	1
43	56	2
4	5	5
21	55	5
4	4	6
69	69	1
5	5	4
22	55	2
22	24	1
30	31	3
57	77	3
45	56	2
68	73	2
25	25	5
38	39	3
53	70	1
3	11	1
56	77	1
43	63	2
59	60	2
58	75	1
37	72	1
7	9	1
11	30	1
20	47	1
55	56	1
70	70	1
63	63	3
36	42	1
60	61	2
10	43	1
4	51	1
48	50	1
70	73	1
74	75	2
47	48	2
47	49	2
36	43	1
29	32	2
0	6	1
74	76	1
3	51	1
32	32	2
24	24	1
34	35	1
59	76	1
24	57	1
27	27	1
54	59	2
1	50	1
48	67	2
30	39	1
33	44	1
41	42	1
29	38	1
33	55	1
34	36	1
51	70	1
32	71	1
