115	115	32
123	123	34
10	58	1
84	86	2
121	121	23
107	107	15
99	100	5
156	157	12
163	163	29
56	58	4
100	100	16
142	149	2
31	32	24
77	78	14
179	180	6
86	86	37
21	21	25
149	149	28
88	89	13
1	1	27
90	90	17
167	169	5
118	119	5
20	20	19
113	113	20
10	14	4
127	135	11
26	27	16
36	36	34
143	143	14
169	169	41
42	42	30
37	37	24
87	87	25
176	176	24
120	120	28
138	142	2
39	41	3
112	158	1
110	110	14
71	71	37
151	151	22
63	63	31
64	100	3
159	175	1
154	154	20
25	25	29
123	124	13
8	18	1
93	93	26
5	7	20
152	152	26
82	168	7
143	144	17
17	18	14
33	33	47
52	52	17
25	42	2
141	141	37
159	159	22
7	19	3
37	57	3
14	14	56
135	156	3
150	151	12
74	74	19
102	102	11
50	50	18
89	89	23
139	139	27
84	85	9
96	97	5
8	9	18
29	29	46
104	105	11
8	8	30
81	81	16
122	122	31
19	19	24
158	158	22
141	142	11
129	130	17
2	2	39
42	98	2
75	75	23
83	83	11
136	136	14
73	73	15
124	124	24
55	56	21
10	12	2
158	163	4
85	85	29
14	15	20
172	172	20
11	45	3
150	150	30
11	12	13
52	58	3
119	119	25
43	43	30
11	11	32
28	30	16
60	60	32
35	35	34
33	34	16
7	16	2
136	145	1
13	33	2
126	126	23
38	44	1
5	5	34
109	109	18
166	166	23
157	157	20
54	54	16
39	39	21
78	79	8
149	167	7
156	158	4
91	94	3
38	38	35
165	168	3
112	112	16
153	153	22
145	146	11
66	75	7
142	143	23
30	31	19
2	63	6
67	89	4
46	59	3
64	64	31
75	98	4
82	82	20
62	62	19
53	53	25
132	132	24
138	138	30
113	114	17
18	18	30
40	40	38
134	134	32
22	22	34
97	97	17
9	10	15
71	72	16
147	147	15
52	53	12
166	168	13
108	108	23
168	168	48
27	27	31
56	57	4
165	166	1
139	168	1
2	22	3
168	169	14
136	147	10
67	67	31
30	30	37
2	4	7
16	16	45
45	45	19
125	125	19
76	77	14
9	9	16
61	61	17
141	172	3
73	75	18
132	133	11
57	60	4
169	170	6
102	108	2
100	101	5
20	21	3
119	120	11
124	125	5
128	128	8
79	100	5
108	109	6
73	74	5
32	35	8
51	51	17
32	32	45
174	176	2
91	93	9
84	88	5
92	93	10
131	133	3
10	11	21
148	167	4
13	13	38
39	40	15
167	167	27
89	90	2
179	179	33
171	171	14
28	29	13
10	10	34
146	146	26
131	131	30
123	125	4
41	42	12
165	165	12
75	76	10
27	28	10
142	142	22
66	66	26
108	112	3
92	92	18
84	166	4
9	29	3
95	95	25
130	130	16
24	38	3
63	64	9
15	16	12
11	16	2
9	15	5
8	45	4
139	140	9
162	162	37
173	174	4
72	72	17
72	75	3
60	61	9
155	167	5
135	135	15
57	57	24
111	112	8
157	158	10
175	175	17
20	26	1
40	41	9
24	24	46
44	45	14
93	167	2
23	23	38
80	81	8
110	111	7
32	33	34
106	106	27
91	91	15
23	24	3
36	37	12
140	140	16
170	172	8
0	0	28
114	114	12
79	79	31
96	112	2
62	84	2
107	109	10
103	123	1
8	73	2
96	100	1
57	58	7
150	161	1
79	80	11
16	25	2
109	116	1
26	26	31
129	129	21
124	126	3
58	60	2
62	106	4
7	18	7
24	26	4
116	116	17
22	28	5
133	133	31
104	106	3
114	116	1
159	176	1
43	45	5
1	29	3
26	28	20
56	56	18
6	6	26
75	96	5
84	130	5
6	16	3
172	173	9
112	144	1
12	12	33
80	80	16
114	117	2
13	16	3
4	7	2
127	128	10
132	136	1
128	130	14
130	164	3
111	113	7
160	160	16
28	28	31
12	15	4
173	173	24
122	123	4
65	65	31
14	17	5
107	110	2
89	93	1
148	150	3
17	17	28
152	161	7
127	127	20
88	88	13
76	76	19
68	71	6
121	122	5
61	62	6
142	144	2
114	115	8
133	135	3
104	104	15
29	30	9
61	74	3
103	104	3
117	120	4
24	25	18
25	26	10
4	4	33
41	41	31
66	67	12
151	154	3
51	100	2
43	44	35
18	19	6
63	81	2
101	101	29
96	96	10
58	58	10
16	22	5
130	131	8
105	106	3
117	119	7
145	173	1
40	42	3
149	150	6
59	60	3
7	9	7
65	66	10
117	117	19
5	6	15
87	89	2
15	15	28
22	44	1
87	174	7
81	82	4
142	145	4
125	126	11
14	16	8
3	3	20
151	152	6
106	124	1
31	31	24
129	131	1
138	158	2
174	174	11
6	23	2
96	98	3
15	51	1
140	143	2
134	135	9
177	178	4
103	103	16
102	103	3
50	74	1
106	109	2
105	105	13
54	55	4
118	121	7
146	151	4
63	74	3
144	154	1
9	11	4
6	7	19
78	78	18
9	30	3
8	19	4
37	38	25
90	92	2
94	94	16
126	128	5
112	115	4
22	23	19
178	178	21
12	13	18
70	72	2
44	44	44
36	38	4
79	89	3
90	95	2
148	148	25
137	137	22
141	167	3
170	170	23
50	51	16
7	7	16
120	121	12
27	31	1
164	169	1
115	117	4
154	163	4
159	160	7
55	55	19
166	167	6
3	15	9
113	117	2
64	75	3
134	149	3
161	162	11
111	111	14
77	77	7
45	46	2
65	67	2
98	101	6
7	8	10
64	65	8
91	92	7
16	17	10
89	91	7
80	82	5
37	39	3
29	31	11
58	61	4
59	59	15
86	137	2
34	34	25
160	161	3
173	176	2
90	91	12
95	96	5
77	80	3
153	154	13
157	166	5
3	4	17
88	96	2
83	103	6
132	149	2
145	145	16
24	33	12
170	174	5
163	166	3
71	76	6
72	73	6
8	74	2
30	33	3
164	164	12
104	110	9
33	35	2
148	153	2
154	155	20
178	179	7
116	117	16
149	161	3
42	43	6
85	131	3
107	108	6
140	142	1
118	178	2
144	144	24
2	3	7
131	132	13
65	76	3
93	94	5
63	99	4
57	59	5
135	143	5
152	153	10
154	157	6
78	80	2
38	40	4
85	86	5
49	74	4
144	156	1
151	163	1
115	157	3
86	103	1
56	66	2
112	113	4
64	72	2
42	87	5
49	49	5
139	171	1
167	168	9
13	15	7
121	123	4
155	155	22
62	63	10
116	119	8
144	146	5
133	134	5
148	149	5
125	131	2
11	79	2
144	145	5
156	156	17
55	61	4
123	176	4
162	167	1
146	152	4
18	21	1
161	161	9
106	114	4
56	59	3
15	26	4
175	176	7
13	14	9
117	123	1
10	61	6
44	108	1
137	145	2
147	148	6
54	72	3
154	160	2
91	104	3
8	10	7
80	89	1
4	5	7
158	160	2
137	142	5
87	101	2
88	90	2
148	166	4
128	129	14
177	179	3
19	20	13
82	98	2
111	157	3
147	153	2
50	59	6
3	5	3
15	41	4
170	171	10
82	97	2
158	161	3
104	111	2
12	14	2
11	14	1
127	152	6
87	91	1
38	39	3
107	115	3
144	147	6
128	134	2
97	99	4
66	171	2
21	22	15
106	107	11
55	72	4
88	98	3
58	59	3
99	99	6
116	118	6
23	36	3
20	22	1
117	125	1
72	76	5
31	33	3
158	159	5
66	72	1
83	85	4
156	165	3
127	131	9
118	118	17
105	107	2
23	35	3
43	96	9
177	177	5
13	17	4
137	159	3
24	27	2
134	136	15
153	160	2
25	66	3
102	109	5
7	130	3
14	23	1
22	34	3
140	141	5
171	172	2
176	180	4
40	44	1
15	44	1
97	98	2
66	174	1
106	108	1
13	21	1
61	66	3
16	27	2
143	145	5
31	35	6
134	141	2
22	30	2
146	164	1
18	25	1
22	26	2
86	87	1
68	82	1
111	153	2
19	22	2
28	31	5
132	135	1
102	107	2
113	158	1
79	87	1
16	20	1
27	29	9
5	11	6
68	68	7
100	121	1
89	102	1
50	63	1
8	46	2
137	178	2
163	173	1
109	128	2
6	22	3
11	41	3
7	157	2
15	18	4
63	76	7
72	99	1
84	84	13
80	84	1
143	146	2
173	180	2
49	75	2
98	98	8
115	116	11
33	42	1
16	94	3
11	31	2
12	43	1
29	32	2
35	51	3
72	115	2
24	35	3
142	179	3
9	172	2
24	31	3
22	31	2
86	100	3
145	157	2
7	10	5
35	36	9
88	101	2
5	9	4
14	28	2
104	133	4
37	44	2
19	44	1
90	105	2
180	180	4
156	164	3
32	58	1
138	139	4
155	156	8
72	77	1
116	174	2
66	68	3
163	164	5
101	106	3
100	102	2
90	94	2
43	82	3
49	50	4
21	27	2
37	41	3
21	30	1
161	163	6
109	112	1
3	45	3
99	106	1
117	118	1
106	144	1
27	30	1
23	44	1
145	151	1
1	5	2
13	19	1
44	46	1
67	70	2
135	170	2
14	75	1
103	109	1
11	17	4
16	19	5
9	20	2
13	20	1
79	132	1
5	25	3
93	95	2
20	35	2
100	108	1
44	99	2
125	148	5
111	129	2
43	58	1
122	164	1
50	53	2
125	158	4
15	33	1
156	163	5
77	79	3
6	8	2
11	13	1
121	126	2
91	109	2
79	86	2
87	102	2
127	150	2
46	46	4
1	2	4
44	85	1
14	34	2
20	24	1
53	54	6
86	95	3
11	102	1
153	163	3
23	40	1
133	138	1
8	12	3
92	125	1
21	60	2
6	13	2
3	9	2
164	166	3
41	43	5
162	172	4
29	60	1
126	127	2
14	26	2
34	35	4
4	11	3
110	117	1
22	24	3
111	114	1
6	9	1
151	157	1
14	18	1
135	136	10
14	88	2
0	2	3
3	13	4
67	175	2
21	23	4
62	80	3
162	173	1
152	168	1
10	23	3
103	133	1
41	95	1
39	43	3
94	96	1
17	33	1
12	22	1
23	29	2
43	46	1
133	144	1
15	110	1
68	69	2
105	115	3
0	1	2
178	180	2
31	44	1
16	18	4
137	138	1
137	176	2
127	129	1
174	175	5
106	126	1
66	73	1
98	99	3
62	73	3
112	114	2
126	129	3
164	165	1
41	44	3
88	113	2
109	110	1
94	97	1
37	40	2
42	88	2
42	45	1
39	44	4
136	146	3
121	125	2
92	94	6
110	114	1
21	43	1
25	40	3
163	168	1
134	154	2
53	86	1
161	169	2
19	21	2
0	5	1
19	28	2
20	43	2
17	40	2
175	177	2
117	130	1
2	10	3
91	113	3
66	175	1
74	75	1
80	171	2
172	175	1
58	65	2
171	174	1
99	114	1
68	175	1
99	101	2
53	59	2
80	85	1
5	117	3
12	16	4
61	80	1
134	161	2
174	177	1
2	29	1
160	162	3
169	171	1
156	174	1
6	10	2
32	34	3
94	95	2
147	163	1
89	96	1
51	73	1
88	99	3
97	117	2
102	106	1
117	152	2
64	66	2
10	13	1
20	98	2
2	40	1
168	174	2
113	159	2
4	42	1
66	100	1
147	167	1
134	144	2
75	167	2
160	164	1
165	167	1
7	20	1
28	38	1
58	87	1
90	93	1
101	102	1
86	136	1
71	78	1
29	45	1
75	79	2
38	41	2
151	155	2
111	136	2
8	31	1
55	57	2
8	114	1
9	12	2
109	154	1
63	100	1
174	179	1
85	166	3
160	163	2
2	11	1
104	146	1
41	45	1
152	154	1
60	65	2
7	22	3
80	96	1
37	43	1
3	22	1
135	137	1
112	145	1
37	59	1
116	125	1
61	63	2
113	157	2
123	127	2
15	17	2
156	160	1
130	154	1
88	136	1
10	28	1
11	87	1
51	52	1
16	36	2
23	39	1
5	10	2
95	98	1
24	29	1
34	36	1
12	99	1
110	115	2
23	25	3
135	159	1
37	60	1
18	33	1
91	97	2
141	177	1
111	115	1
151	167	2
108	132	1
151	161	1
167	172	2
4	23	1
42	44	2
157	163	1
36	41	1
54	64	1
24	37	1
115	178	1
23	31	2
103	106	2
2	5	2
116	120	1
130	150	1
56	62	1
3	19	1
2	13	2
120	123	1
171	175	2
59	61	2
65	70	1
113	115	1
87	88	2
45	142	1
153	157	1
127	161	1
98	136	1
97	100	1
159	161	1
18	44	1
175	179	1
104	177	1
79	81	1
8	42	1
92	119	1
146	158	1
151	153	2
89	94	1
86	114	1
80	93	1
140	150	1
35	38	1
163	167	1
136	144	1
126	140	1
107	122	1
138	177	1
145	147	1
158	162	1
159	162	1
12	35	1
