88	88	21
1	1	7
19	114	4
13	20	3
105	108	2
136	138	4
137	137	7
111	116	5
129	129	23
97	97	6
83	105	3
29	30	7
6	6	20
37	37	20
121	121	18
112	113	5
77	78	4
104	104	5
34	34	13
36	36	8
35	35	14
119	119	13
130	140	3
26	26	13
32	32	7
12	12	13
128	129	13
100	100	12
30	32	1
23	24	9
124	124	15
113	113	15
135	135	15
36	92	2
0	0	13
84	86	5
91	102	2
84	89	2
14	14	12
22	23	7
126	126	8
103	104	7
108	111	5
25	25	10
20	25	2
130	130	12
103	126	3
18	18	10
10	105	3
8	8	8
90	90	5
114	114	15
9	9	6
123	123	22
115	115	9
81	125	2
72	103	3
120	120	14
79	79	9
29	29	11
84	84	9
16	16	17
99	99	11
74	74	21
138	138	18
91	130	3
76	76	15
116	116	8
86	86	12
125	125	18
35	36	7
132	132	23
119	121	6
30	31	5
13	14	12
33	33	11
9	14	2
7	13	2
34	35	1
71	72	4
130	137	4
81	81	15
118	118	7
112	112	10
13	13	9
110	110	13
6	20	1
21	21	3
96	96	15
11	11	5
89	89	6
134	134	11
102	102	8
139	139	16
101	101	10
123	124	8
104	116	3
95	96	6
79	82	4
104	114	1
78	79	11
5	5	6
123	128	1
87	87	13
86	88	3
29	36	2
122	123	4
72	72	13
109	110	9
38	73	4
73	93	4
98	98	6
89	90	1
106	118	4
121	123	3
29	31	4
20	20	7
75	76	7
106	116	15
81	82	6
104	107	3
25	26	14
4	4	9
117	123	3
128	128	9
80	80	10
14	15	2
3	4	8
9	26	2
107	117	1
132	139	1
90	91	3
138	139	5
27	30	1
83	85	4
20	21	4
97	99	1
26	72	5
13	111	2
119	123	5
140	140	10
105	105	4
71	71	6
127	127	12
25	72	1
31	31	4
131	131	30
28	31	2
135	138	7
136	136	7
91	91	12
111	111	3
85	85	3
11	12	4
77	85	4
1	3	1
136	137	3
122	122	21
18	109	4
115	117	1
73	73	10
7	105	4
75	75	9
27	27	10
15	15	9
77	77	10
110	115	1
118	120	2
92	92	14
3	3	16
134	136	5
125	126	8
36	37	3
111	112	1
13	18	1
10	10	6
126	129	2
77	86	1
110	116	2
95	95	29
82	82	9
119	120	13
27	31	8
88	138	1
109	109	4
2	2	8
86	137	3
133	134	4
23	23	9
126	128	1
101	102	3
30	30	6
7	9	4
130	131	3
9	22	8
83	83	4
116	117	7
103	103	10
78	95	2
33	34	2
110	111	8
21	26	1
38	38	7
134	135	9
131	134	4
7	8	3
17	17	8
14	20	5
9	28	2
80	82	4
78	78	5
132	133	9
6	7	3
72	101	6
78	80	4
115	116	1
22	27	4
27	29	3
129	134	5
1	44	1
119	122	5
79	128	2
27	28	3
20	26	1
96	97	3
3	38	2
80	85	1
74	112	2
137	138	5
85	122	4
71	78	5
117	117	8
107	107	14
106	106	6
127	131	1
5	12	2
83	84	2
103	122	4
133	133	7
23	28	3
100	126	1
108	108	4
13	79	1
125	128	2
4	6	3
97	130	3
124	136	6
6	13	1
34	36	4
129	130	2
120	122	7
18	19	3
22	22	5
77	80	4
88	123	3
85	87	3
94	94	7
109	112	5
85	109	4
85	93	1
77	79	3
13	15	1
26	71	1
117	118	1
92	93	2
78	84	2
113	114	9
93	129	1
99	128	5
82	84	1
28	29	4
82	83	6
87	88	1
24	26	4
7	12	2
93	124	2
17	99	2
25	27	1
88	108	2
97	98	4
124	125	5
91	94	2
94	120	2
4	5	4
101	112	3
105	107	1
8	12	1
118	119	4
108	109	1
89	126	1
7	14	1
32	90	3
124	128	2
83	117	2
79	85	1
107	115	2
3	5	2
15	23	2
81	102	2
118	121	1
28	28	2
24	24	3
10	12	3
132	135	1
127	129	1
104	106	5
105	106	2
114	115	4
85	86	1
20	22	2
106	107	1
19	19	6
5	13	1
10	124	1
5	10	2
93	93	5
0	135	2
108	110	2
12	13	1
11	83	1
104	118	1
100	111	1
126	127	4
81	84	1
85	105	1
124	126	2
15	18	2
135	137	2
7	21	1
129	135	2
2	4	2
129	131	1
82	113	1
32	89	1
101	121	1
127	135	1
79	81	2
8	9	4
102	111	2
116	118	3
104	117	2
110	128	2
94	104	1
11	14	2
125	127	3
5	6	3
73	87	1
19	23	1
92	94	1
12	111	1
112	126	1
107	109	1
88	90	3
79	80	2
71	73	1
95	99	1
11	85	1
84	85	3
83	86	1
44	44	2
12	84	1
120	121	2
85	140	1
8	84	1
9	12	2
34	90	1
78	82	2
45	135	1
72	73	1
90	124	2
112	125	1
107	108	1
12	81	1
116	125	3
124	140	2
139	140	1
94	95	3
18	74	1
102	104	1
9	11	1
68	114	2
117	120	1
15	19	2
82	90	1
7	7	2
94	108	1
31	33	1
111	113	2
19	20	2
93	95	2
32	33	1
101	103	1
17	18	1
135	136	1
81	91	1
98	99	1
13	73	1
128	130	1
