91	92	9
50	51	11
46	92	12
82	82	3
57	57	23
90	90	17
86	89	2
64	64	18
95	95	9
33	33	19
27	27	16
97	97	17
71	71	22
94	94	16
59	60	3
68	72	6
25	26	5
100	101	5
59	72	8
84	84	13
47	54	4
56	56	20
86	86	29
52	52	17
97	98	19
68	68	19
91	100	4
64	65	1
44	44	23
48	48	25
54	79	6
31	76	1
46	84	4
41	41	18
39	39	10
100	100	28
72	73	1
28	46	4
53	95	8
54	87	5
58	58	12
78	91	8
37	37	11
46	46	14
51	51	22
81	84	1
54	54	24
88	101	2
53	53	11
47	48	12
48	49	8
30	79	3
30	36	3
99	99	25
65	66	9
87	88	14
55	61	2
65	65	14
60	60	23
76	77	4
92	92	22
58	87	4
20	22	5
70	70	17
44	51	2
29	29	11
47	82	4
81	82	6
88	88	19
59	62	2
102	102	6
79	95	3
73	85	6
75	90	1
47	61	3
49	50	9
88	89	11
98	98	28
42	42	13
77	77	21
96	96	13
51	70	4
75	75	14
44	78	1
80	80	25
94	95	7
89	91	9
55	55	25
24	25	8
74	74	20
31	31	6
52	68	5
91	94	1
82	99	6
38	38	11
45	45	10
87	95	3
72	72	22
91	98	3
36	38	3
62	62	17
28	28	7
79	83	2
61	61	20
86	94	1
44	92	1
63	63	13
69	70	3
42	72	2
37	81	1
79	79	14
91	91	16
88	100	3
86	101	1
86	88	2
93	93	10
85	85	10
92	93	6
66	66	11
41	49	1
29	30	3
76	76	2
36	37	14
31	36	5
60	61	5
22	45	5
96	97	3
87	100	5
89	90	3
70	91	2
101	101	13
25	25	6
48	54	1
91	93	5
81	81	11
36	62	4
55	58	4
49	75	1
42	77	2
39	89	1
89	89	12
61	96	3
50	50	8
86	87	6
47	81	2
27	57	1
59	59	6
78	86	5
98	99	4
90	91	4
47	47	12
43	43	13
71	72	3
79	93	3
58	59	2
87	87	7
33	41	3
35	36	9
39	66	3
89	97	2
23	27	6
95	97	4
36	36	3
93	95	3
63	77	5
34	34	12
56	67	2
69	77	3
35	35	9
99	101	1
27	38	3
34	35	7
74	75	10
77	78	4
99	100	4
30	30	2
32	32	2
81	96	2
67	67	15
69	69	12
54	96	4
28	29	2
33	39	3
40	41	8
26	26	6
56	57	8
25	27	6
48	67	5
95	98	10
58	88	1
93	98	3
36	45	1
51	65	1
47	84	1
67	68	5
59	66	1
31	74	1
31	60	1
41	42	5
43	69	4
73	73	18
83	83	14
87	98	4
42	63	3
27	52	2
45	95	3
55	86	3
46	89	1
26	27	5
45	62	3
38	47	2
22	48	1
83	92	1
68	69	4
44	96	3
21	27	2
80	84	1
78	78	2
55	56	11
94	100	1
41	74	2
88	91	3
31	35	1
25	28	4
79	80	3
23	29	6
80	89	1
49	49	10
40	40	6
66	71	4
48	55	1
24	24	4
36	81	2
51	78	2
42	70	1
65	67	1
53	54	2
95	96	4
64	67	4
70	71	7
74	77	1
39	51	3
52	91	2
53	97	5
54	61	2
44	74	1
46	47	6
22	26	1
22	22	4
79	87	3
62	64	1
87	101	3
89	94	1
93	94	6
47	96	5
81	88	1
40	77	1
36	82	2
52	53	3
63	64	3
73	74	6
83	89	1
45	80	1
32	37	3
60	63	3
48	89	1
49	52	1
59	68	3
46	61	3
23	87	1
84	92	1
43	65	5
80	85	1
69	71	1
65	73	1
42	43	1
61	62	1
58	68	1
58	96	1
66	75	2
51	64	3
93	96	1
85	99	2
49	72	3
83	88	2
83	90	1
36	44	2
48	76	1
26	38	1
44	48	4
88	94	2
39	68	3
80	81	2
35	48	1
26	29	2
101	102	2
34	37	1
38	46	6
39	67	2
97	99	3
48	52	1
31	37	3
72	74	1
94	97	1
40	64	1
96	98	1
50	70	2
85	95	1
37	38	1
42	59	1
64	69	1
48	56	1
33	34	5
82	84	1
32	36	1
47	79	1
81	92	2
57	91	1
63	66	1
36	80	1
72	91	1
29	37	1
39	40	3
37	46	2
23	24	1
82	90	1
50	76	2
30	31	1
75	76	1
84	91	1
85	86	1
92	100	1
53	93	1
56	85	1
86	91	1
53	92	1
41	66	1
25	55	1
84	86	1
72	75	1
63	72	1
77	100	1
46	48	1
62	63	1
76	83	1
