81	81	33
90	97	3
55	75	3
87	88	15
86	86	19
92	92	19
41	41	13
27	29	5
57	57	11
50	50	12
58	93	1
58	80	1
69	69	29
69	73	2
51	54	9
83	83	10
80	81	8
88	88	12
96	96	25
36	37	4
101	102	3
82	83	10
33	33	13
32	64	3
87	87	21
21	24	1
37	37	15
25	26	7
83	84	7
67	67	10
46	48	9
24	24	16
63	63	12
85	85	24
103	103	24
40	40	22
21	21	12
56	56	19
44	45	7
79	80	5
26	26	12
31	31	15
26	29	5
100	100	22
95	95	25
38	63	4
30	30	17
46	60	3
22	25	4
101	101	19
56	71	1
23	27	2
71	71	23
29	81	2
68	68	18
98	98	22
33	44	2
20	20	11
95	97	1
106	106	7
43	43	15
105	105	11
97	97	14
41	43	6
49	49	11
91	92	4
45	45	17
66	66	12
34	34	12
48	48	5
59	59	21
99	99	16
45	46	6
76	76	27
24	25	1
42	42	23
97	98	5
25	44	3
58	58	15
89	89	18
25	95	4
82	82	15
22	105	1
30	78	1
90	90	14
88	99	6
80	80	21
75	75	14
38	44	4
69	71	1
22	22	7
78	84	5
64	64	17
77	77	15
21	23	6
60	60	9
50	51	10
76	77	11
32	32	17
25	25	18
52	53	6
23	58	5
55	55	15
32	34	4
107	107	8
61	61	28
78	78	20
46	46	16
23	23	16
35	35	21
50	85	2
101	105	1
39	39	10
45	47	1
93	107	2
69	70	10
71	72	1
100	105	6
68	71	3
57	58	4
72	72	5
43	44	4
31	34	3
90	98	2
39	41	6
19	106	4
29	29	25
70	70	13
38	39	6
28	28	14
56	58	3
62	63	16
53	54	6
63	88	2
56	57	5
22	29	2
94	95	13
31	44	2
24	100	6
94	96	3
54	55	3
41	45	5
40	88	1
36	83	2
83	88	5
65	65	8
42	55	2
79	81	4
102	102	6
63	64	5
50	105	2
21	35	1
37	75	2
48	49	7
37	87	1
34	52	3
46	71	2
98	99	8
97	99	10
44	44	4
21	96	2
66	67	6
102	103	2
59	61	13
42	89	2
20	95	4
62	78	1
27	27	19
60	66	3
94	94	27
92	94	2
47	48	1
29	79	3
40	49	3
63	94	1
52	52	6
72	76	5
51	52	4
62	81	1
74	74	17
89	90	9
22	79	1
31	46	2
73	73	22
46	47	11
84	84	14
86	88	3
42	82	1
49	61	2
62	62	9
36	36	5
34	38	4
54	54	11
79	79	14
23	40	2
37	66	4
66	72	2
30	56	5
86	87	5
49	60	1
42	43	7
87	100	2
78	85	1
91	91	4
37	96	3
24	31	4
40	41	4
36	100	1
28	30	4
50	64	1
93	93	4
42	44	2
30	90	2
86	100	3
61	78	1
57	80	3
78	82	2
23	24	1
47	47	7
81	87	1
90	91	8
72	73	5
69	74	2
55	68	2
38	38	3
93	94	2
25	96	1
92	93	1
53	53	12
39	43	3
91	93	1
67	101	1
58	67	7
54	102	3
47	70	1
49	50	1
47	49	4
85	86	3
37	51	3
67	69	4
70	90	1
55	70	3
104	105	3
100	101	2
43	84	2
78	87	2
104	104	11
51	51	11
26	27	3
95	96	2
28	29	2
25	45	6
106	107	2
69	94	1
50	59	2
63	67	1
40	42	1
40	44	2
91	99	1
73	74	4
21	99	3
47	97	1
59	67	3
55	63	3
76	100	1
89	91	1
41	44	1
73	96	3
28	50	2
26	95	3
32	106	1
20	32	3
56	73	2
30	40	1
51	59	2
95	98	1
73	79	2
65	79	1
33	55	2
70	71	4
66	86	1
32	94	3
38	88	1
40	48	2
34	103	3
78	86	2
79	86	2
22	81	1
26	28	4
42	79	1
38	67	1
90	100	2
58	106	3
20	21	3
61	62	4
89	107	1
48	66	1
62	65	1
75	76	3
21	45	3
33	77	1
38	50	1
49	58	2
39	45	1
58	59	2
38	87	3
39	40	2
67	68	5
65	66	4
84	85	2
36	51	3
33	40	2
62	85	2
74	77	3
27	82	2
82	84	3
39	88	3
101	104	3
27	28	3
56	94	2
65	73	1
64	71	5
46	49	2
39	86	1
88	92	2
24	42	2
43	91	2
60	83	2
28	86	1
94	97	1
33	34	2
39	44	1
100	102	2
73	78	1
99	106	2
20	96	2
67	94	1
66	82	1
57	59	2
71	106	2
33	54	1
38	79	2
32	75	1
90	105	1
31	45	1
26	65	1
55	56	1
32	36	1
35	36	1
52	68	1
32	79	1
58	81	1
42	48	1
90	99	1
21	33	1
74	76	2
49	106	1
23	73	1
67	77	1
76	101	1
56	69	1
