114	114	14
163	163	11
0	1	8
162	163	10
34	37	6
33	33	12
161	162	8
171	172	10
160	160	27
16	16	5
124	124	14
8	8	17
30	30	9
4	4	15
171	171	23
102	102	10
120	120	12
1	187	4
169	170	4
159	159	12
43	43	7
51	51	16
177	178	2
107	109	8
38	38	17
39	39	6
52	52	28
131	151	3
122	122	11
180	182	6
57	58	1
58	59	8
177	177	21
24	24	13
42	44	6
84	84	8
56	56	9
55	56	3
26	27	5
65	65	8
56	57	3
42	42	7
13	13	14
196	196	9
107	107	11
173	174	7
25	26	3
127	127	15
136	136	30
31	44	4
133	133	15
152	152	16
78	88	3
158	159	7
150	150	17
82	82	7
191	191	12
145	147	3
89	89	5
119	119	9
171	173	1
62	62	4
181	182	3
79	79	8
25	25	5
72	72	14
29	29	6
58	58	16
35	35	7
112	113	4
86	86	8
188	188	17
19	21	3
96	96	9
130	130	16
115	116	4
195	195	16
152	154	1
163	164	4
129	129	19
157	158	7
66	67	4
126	126	14
193	193	20
196	197	7
12	12	11
17	19	2
81	81	4
169	169	17
154	154	5
94	95	6
70	70	3
149	149	26
137	137	11
138	138	11
96	97	3
180	180	15
139	139	7
113	115	3
97	97	6
166	167	6
28	28	5
106	107	5
111	111	29
7	7	6
143	144	7
151	151	17
55	55	12
31	31	10
148	148	18
15	15	13
8	40	1
131	131	18
190	190	13
125	125	5
141	142	8
11	11	11
1	6	4
77	78	6
168	168	6
71	72	3
54	54	27
187	187	17
111	112	4
128	128	26
1	1	9
47	47	13
98	98	7
59	59	7
32	43	2
194	194	11
142	142	13
170	171	10
4	8	5
48	48	12
49	51	5
6	7	5
50	51	8
145	145	5
37	37	7
42	43	4
136	137	4
7	8	5
88	88	7
146	146	4
174	174	6
122	123	1
143	143	3
21	21	7
109	109	9
170	170	11
119	120	7
36	37	4
71	86	2
131	132	3
174	176	3
113	113	4
156	156	8
3	4	3
189	194	3
50	50	13
145	153	4
148	149	6
102	103	4
69	70	2
135	139	2
161	178	3
45	45	18
107	121	7
186	186	13
54	55	5
32	32	5
141	141	8
35	36	3
123	123	16
167	167	8
99	99	17
147	147	5
53	53	18
159	172	5
178	178	9
49	49	20
102	106	3
3	3	7
9	10	12
156	157	6
83	83	1
184	185	4
130	150	1
39	40	4
82	84	1
57	57	9
64	67	6
10	10	14
179	182	2
23	23	15
66	69	3
3	28	2
46	46	14
60	60	1
144	145	5
4	43	2
71	71	5
129	153	3
185	196	1
159	160	7
166	166	3
155	155	15
176	180	1
73	73	4
37	38	4
2	2	7
175	176	3
9	9	17
61	61	6
24	25	8
33	122	2
103	120	1
27	27	6
78	80	4
179	179	8
184	184	14
182	182	12
149	170	4
178	181	2
152	153	5
78	78	4
104	104	5
30	31	5
74	76	1
121	121	9
189	189	13
114	115	3
62	90	2
183	183	13
140	140	9
36	36	7
123	124	5
185	185	14
124	125	4
44	45	4
129	132	3
59	62	1
178	191	1
185	191	3
14	14	6
22	22	6
26	28	2
40	40	3
18	18	6
0	0	5
27	29	2
109	130	1
23	24	4
101	101	13
29	168	4
6	21	3
132	132	12
136	139	2
105	150	2
65	69	3
63	63	3
181	181	5
22	55	1
128	152	4
146	148	2
46	47	9
67	132	1
179	180	10
149	171	1
182	187	1
164	190	6
98	99	4
135	138	4
182	189	2
117	118	3
176	176	2
3	27	2
99	103	2
142	143	4
116	116	3
187	188	5
59	99	3
142	150	5
165	166	4
62	89	4
68	68	7
130	131	5
67	67	3
186	187	3
157	157	21
67	68	2
53	54	3
64	97	2
192	193	10
112	112	7
83	84	2
123	125	5
185	186	4
171	197	8
95	96	1
117	117	7
3	35	4
105	105	2
115	115	10
162	162	9
133	145	2
33	130	2
81	83	2
1	2	5
134	134	11
155	157	1
113	118	3
188	190	2
105	106	7
107	159	2
82	83	2
175	175	9
173	176	2
38	42	1
138	139	6
173	173	12
160	161	4
129	130	2
126	127	2
172	172	6
70	77	2
153	154	3
76	76	2
134	148	4
99	100	4
94	94	3
135	135	6
1	33	1
24	26	1
142	148	4
73	74	4
89	90	1
179	196	2
120	121	9
41	41	6
158	158	11
61	62	5
147	148	5
12	13	1
5	5	7
5	6	1
149	151	2
119	139	1
164	164	9
16	19	1
192	192	2
197	197	7
34	56	2
19	19	8
4	5	3
149	150	8
109	161	4
108	160	2
189	190	3
26	166	1
100	100	3
119	134	1
44	44	8
64	65	1
33	36	3
63	66	1
31	33	2
94	97	3
110	111	3
115	118	1
46	53	1
79	81	5
63	67	1
85	86	1
63	64	1
140	141	4
76	77	2
58	124	1
77	88	3
182	183	4
0	2	4
20	20	7
71	73	2
17	17	4
87	87	5
166	168	1
34	34	2
37	39	1
118	118	5
33	35	6
186	194	1
109	113	3
134	136	6
33	37	1
44	46	1
174	175	6
141	152	1
11	12	5
8	42	1
130	132	1
79	80	1
185	195	3
183	184	8
80	80	3
152	156	2
13	14	2
2	3	2
64	66	1
165	168	2
107	130	2
161	169	1
114	142	1
143	147	2
111	115	1
7	17	6
77	77	1
191	192	7
73	75	2
12	15	2
129	155	1
43	44	2
160	170	3
59	66	1
127	128	5
151	152	1
111	114	3
150	151	2
100	101	3
81	82	3
10	196	1
103	103	2
145	146	2
95	97	1
9	39	1
148	150	4
161	175	2
184	187	1
37	41	2
144	147	2
165	165	8
22	24	1
62	63	3
174	178	1
10	11	1
116	118	1
53	55	1
172	193	1
116	147	1
80	107	1
116	150	1
171	185	1
110	110	2
52	53	2
169	190	2
33	39	2
116	119	3
155	169	2
62	64	1
64	68	1
110	133	1
177	182	1
38	40	1
5	82	3
54	56	1
42	168	1
161	161	9
132	133	1
43	45	3
50	52	7
137	138	2
54	59	1
39	41	3
135	140	2
186	188	1
38	39	1
108	108	3
88	89	4
46	51	1
66	73	5
97	98	1
160	162	2
188	189	5
33	34	3
101	102	1
116	117	2
151	153	1
58	96	3
175	177	2
24	27	2
107	120	1
86	87	1
67	69	3
77	86	2
134	135	6
19	20	3
112	160	1
121	122	4
185	189	2
164	174	3
29	31	1
177	179	1
80	83	3
74	75	1
79	129	1
35	37	1
1	27	1
139	140	1
111	128	1
69	69	1
190	192	1
153	153	4
75	75	2
118	119	2
117	120	1
39	85	1
154	155	1
106	106	6
17	20	2
48	49	2
5	40	1
106	121	1
29	30	2
41	42	6
1	180	2
152	155	1
176	179	1
50	53	1
150	156	1
134	139	1
70	72	1
7	39	1
22	38	3
169	171	2
10	45	1
36	138	1
164	183	1
17	18	2
172	173	3
187	191	1
162	164	1
176	177	1
195	196	2
155	158	2
184	196	1
128	129	2
84	85	2
138	169	1
5	7	2
164	193	1
83	85	1
21	22	2
15	16	1
47	50	1
3	39	2
169	187	1
173	194	2
74	74	1
94	96	1
161	164	3
182	188	1
108	110	1
95	95	2
6	8	2
45	46	1
135	136	2
183	186	1
178	180	1
85	85	2
164	191	1
93	93	1
160	171	1
70	73	1
121	124	2
32	33	2
160	174	1
112	115	1
36	38	1
174	188	1
8	9	2
59	63	1
40	41	1
20	21	1
80	84	2
34	36	1
101	105	1
25	27	2
15	25	1
28	29	1
110	115	1
194	195	1
80	106	1
162	179	2
134	144	1
141	153	1
164	179	1
23	55	1
157	162	1
72	73	1
18	20	1
113	114	1
125	134	1
66	74	1
49	52	1
175	192	1
120	132	1
188	191	1
