3	3	11
48	50	2
46	47	4
42	43	2
11	11	14
27	27	11
24	26	7
35	35	6
55	55	12
0	1	1
25	25	5
33	33	11
2	2	23
64	65	3
1	1	18
47	47	7
62	62	7
13	30	3
2	6	4
21	21	32
71	71	7
8	19	5
0	0	3
74	75	4
27	28	4
5	64	1
56	56	10
51	67	2
39	39	14
35	47	2
70	70	8
40	40	8
23	29	4
31	68	1
44	49	2
52	66	2
10	10	18
19	20	8
29	29	15
31	70	2
43	43	8
59	59	10
5	5	3
66	70	1
38	38	4
56	61	2
12	13	5
58	74	2
68	68	10
50	50	9
0	12	3
65	65	7
50	51	3
75	75	17
52	74	9
14	70	1
0	2	5
73	73	8
1	2	7
30	30	14
44	44	14
26	27	15
1	4	1
2	3	9
12	60	2
8	9	4
7	7	4
43	44	6
20	20	9
26	26	12
29	30	4
39	42	1
70	71	3
30	34	6
6	52	1
53	54	4
9	9	12
60	61	5
10	11	10
24	24	5
74	74	5
73	74	1
49	50	6
28	37	3
48	52	4
40	76	5
76	76	5
6	6	7
22	23	2
24	27	5
43	75	1
57	57	3
6	7	1
63	63	6
4	66	2
33	34	2
54	57	2
63	64	5
53	53	7
12	29	1
46	46	10
23	27	1
47	48	3
36	37	3
44	76	3
40	41	10
3	12	1
70	72	1
14	30	5
45	65	3
52	52	4
48	48	6
62	63	2
10	55	2
77	77	3
54	54	4
41	52	3
22	22	3
53	63	3
11	12	2
67	67	8
42	75	3
46	52	3
7	19	1
24	36	1
28	38	2
25	28	1
23	38	2
72	72	12
42	42	5
64	64	4
75	76	2
61	62	3
19	71	2
31	32	4
37	38	1
48	53	4
60	73	1
42	73	4
32	32	4
8	8	7
28	28	9
12	12	4
65	66	7
47	54	7
45	45	9
13	13	12
23	23	1
22	32	5
19	68	1
27	30	2
41	62	1
61	61	9
55	57	3
37	37	8
51	54	3
69	69	3
8	65	1
60	60	8
28	34	1
55	63	1
74	77	5
5	9	1
59	60	1
58	58	3
7	12	5
58	59	1
21	70	2
51	51	3
5	6	1
13	14	3
55	56	2
42	45	2
36	36	6
8	13	1
43	72	3
48	51	4
44	68	1
18	18	3
23	28	1
57	65	1
50	74	1
51	52	1
4	4	2
4	13	1
23	30	6
41	42	4
27	29	3
49	51	1
28	45	1
66	67	2
43	52	3
24	28	3
39	43	2
6	14	2
19	19	8
35	37	5
53	67	2
19	21	2
54	73	1
7	21	1
10	48	1
34	36	2
25	30	2
6	10	3
21	43	1
56	57	2
40	45	1
62	64	2
66	66	2
3	9	1
53	58	1
13	28	1
41	67	2
39	62	1
15	24	2
23	34	5
51	66	1
66	75	2
31	31	3
41	75	1
21	77	1
50	68	1
54	55	1
34	34	4
76	77	2
57	59	3
3	6	3
60	63	1
52	72	2
42	65	1
32	33	2
24	25	3
33	46	1
63	73	2
44	67	2
26	28	2
34	35	1
32	35	2
22	69	1
25	26	5
42	52	1
43	77	1
47	71	1
49	49	4
59	77	1
28	29	1
58	67	2
59	67	3
24	44	3
3	7	1
8	60	1
3	4	1
72	73	1
28	35	1
0	3	1
69	70	1
14	14	1
31	33	2
23	24	1
7	13	2
20	21	1
60	69	1
7	8	2
7	56	1
36	38	1
