234	234	4
65	65	5
60	60	8
80	80	3
59	60	2
85	85	10
118	118	4
48	48	2
21	21	12
177	177	9
218	218	11
129	129	8
132	133	4
39	39	17
183	183	6
235	238	6
45	47	4
23	23	17
184	184	7
166	184	2
47	63	2
214	214	7
75	75	6
172	208	2
20	20	16
190	191	2
29	29	12
10	10	3
172	172	8
36	36	6
191	223	2
217	227	5
202	202	7
78	79	6
197	197	7
72	72	8
70	70	17
7	9	1
28	56	1
98	98	6
236	236	7
205	205	6
52	52	7
22	22	9
168	168	3
217	217	6
200	200	9
72	73	1
11	15	1
136	136	7
138	139	6
71	71	11
118	119	8
232	232	7
40	41	8
135	135	11
136	138	3
66	66	9
15	15	17
102	103	1
27	27	9
224	225	3
99	99	6
190	227	1
61	62	5
231	231	4
134	134	5
186	187	5
137	138	13
203	204	4
131	135	1
57	57	8
218	238	5
62	62	10
3	3	6
76	76	7
74	74	12
159	159	6
184	185	1
81	82	5
169	169	5
166	166	1
64	70	1
18	18	4
63	63	12
158	158	6
241	241	5
117	117	2
163	163	6
144	144	4
11	11	7
1	2	3
240	240	7
162	162	6
14	15	4
37	38	3
67	67	10
32	32	5
181	215	1
158	159	1
24	25	6
25	38	5
40	40	9
105	105	8
217	232	5
212	212	8
169	186	2
206	206	2
103	103	3
137	143	1
142	150	3
130	130	2
170	170	13
56	58	3
0	2	3
1	160	2
232	239	2
171	171	3
219	219	7
173	193	1
164	224	4
16	23	3
42	42	8
18	19	2
195	196	3
72	113	1
11	200	3
160	160	10
100	103	2
213	213	2
181	181	6
176	176	3
95	95	1
58	59	3
179	179	1
195	195	4
205	223	3
228	228	4
45	63	1
198	198	6
218	219	3
174	174	6
9	9	5
58	58	12
83	83	3
86	86	5
45	46	1
223	237	1
46	46	8
131	131	3
153	155	2
156	158	4
4	161	1
73	73	2
56	69	1
21	22	7
88	88	4
19	29	4
153	174	2
225	225	9
20	61	1
99	114	1
160	161	3
173	173	8
207	207	4
115	116	2
108	108	7
53	69	4
84	85	5
114	114	2
152	160	2
145	145	9
88	89	2
48	65	2
143	164	2
101	101	5
21	32	2
5	5	3
39	42	3
47	47	6
177	193	1
8	9	3
24	24	6
66	67	7
193	193	5
111	112	5
156	156	8
210	212	1
64	64	5
153	153	2
150	151	6
55	64	1
15	16	5
208	208	10
189	189	7
74	75	2
28	28	11
157	157	7
8	8	4
210	210	8
51	58	2
187	187	10
198	199	1
65	66	2
168	169	10
12	13	2
100	100	11
33	33	5
151	151	3
220	234	3
123	124	3
127	127	5
212	216	4
233	238	1
69	70	2
107	108	1
34	35	1
188	188	10
122	122	6
21	31	1
29	34	1
219	220	2
102	102	9
190	211	2
67	189	3
13	13	7
19	19	5
14	14	1
182	183	1
81	84	2
22	23	4
122	127	2
196	197	6
236	237	2
31	31	10
37	37	7
165	165	4
192	194	1
96	118	1
154	188	1
47	48	6
25	26	4
201	201	7
30	31	4
143	143	2
16	16	2
117	118	3
56	56	5
192	192	6
53	54	2
189	190	2
196	196	7
77	77	4
75	78	3
237	237	2
130	131	2
211	212	3
189	196	5
235	236	3
148	149	3
51	51	5
82	83	3
0	0	10
147	147	4
34	34	5
242	242	4
5	161	2
35	35	5
54	54	9
230	230	1
24	32	1
153	173	3
236	238	2
74	77	2
71	72	2
119	119	7
45	45	15
44	44	10
27	28	3
214	230	3
126	126	8
191	191	6
235	235	3
2	2	2
26	26	11
161	161	2
9	10	4
223	223	6
189	195	2
190	190	7
159	168	4
178	178	6
26	42	3
4	4	4
56	57	1
227	227	3
193	195	4
6	158	1
55	56	5
133	133	3
142	142	2
9	161	3
238	238	9
15	17	3
154	154	4
141	141	2
137	137	1
0	23	3
160	196	2
113	113	5
211	211	6
213	214	5
97	97	13
11	26	1
53	53	6
181	183	4
23	33	3
176	186	2
192	196	1
78	82	2
150	150	7
177	188	3
171	172	1
55	55	6
81	81	1
1	1	11
57	83	1
142	143	1
35	75	3
52	54	1
231	232	2
233	233	2
123	123	1
194	194	2
112	113	3
180	182	2
1	163	1
203	206	1
62	63	1
17	200	4
96	96	1
169	176	3
189	191	1
220	221	1
11	32	2
159	160	3
163	165	1
184	219	2
9	11	1
43	43	7
147	149	4
124	124	1
47	72	1
180	180	5
179	187	1
61	61	3
0	1	1
154	159	1
106	126	1
143	144	5
21	29	2
57	58	2
76	77	2
101	102	4
153	154	1
145	146	3
24	37	2
139	139	2
209	220	2
128	128	1
239	239	5
128	172	1
60	61	4
152	196	3
113	114	1
179	180	4
106	106	11
52	53	1
9	165	2
143	238	1
119	120	3
95	96	2
216	216	2
220	220	4
197	199	2
29	31	1
73	74	2
141	165	3
188	189	2
110	110	1
149	150	3
237	238	1
155	157	1
181	184	4
116	116	1
175	175	2
147	148	1
106	108	3
188	211	2
175	177	1
44	54	1
70	71	5
185	185	2
13	14	3
82	82	1
85	86	4
212	213	2
156	159	4
139	142	1
154	175	2
221	221	3
180	181	2
204	204	1
23	39	1
199	200	1
152	152	2
156	157	1
148	148	1
239	242	1
98	99	1
173	174	1
69	69	3
41	41	2
202	223	1
125	126	1
111	111	1
55	68	2
10	11	1
204	206	2
23	24	1
47	75	1
45	54	2
42	149	2
8	18	1
59	59	1
230	231	3
121	121	5
2	3	3
104	104	1
226	226	3
38	38	1
197	198	3
30	30	5
28	62	1
78	78	2
68	68	2
1	158	2
182	215	1
174	175	1
132	170	2
220	223	1
85	88	1
128	131	1
183	216	2
99	129	2
19	20	2
77	80	1
71	136	1
75	76	1
66	140	1
15	23	1
78	80	1
87	87	1
187	209	1
37	138	1
179	198	3
155	155	1
136	173	1
11	24	1
6	7	1
50	52	2
134	137	1
106	127	1
194	195	1
47	74	2
15	200	1
228	229	1
133	135	4
157	177	1
203	203	3
151	232	1
17	17	1
192	206	1
36	37	2
33	34	1
58	60	1
125	125	1
170	186	1
99	128	1
115	115	1
25	72	1
210	219	1
67	68	1
215	220	1
6	157	1
209	209	1
167	168	1
11	31	1
191	224	1
224	224	1
112	112	1
