152	152	10
21	21	38
95	97	4
131	132	5
1	1	15
127	127	27
127	128	5
74	74	9
139	139	15
119	119	17
120	148	4
48	48	22
131	131	19
96	97	8
92	94	4
0	0	22
23	23	18
52	53	3
89	91	6
154	154	15
64	64	17
37	37	24
86	86	26
18	19	5
26	26	34
106	106	21
40	41	21
147	147	23
125	126	8
82	82	25
84	84	32
6	30	2
123	125	3
123	123	24
137	137	21
9	9	19
148	150	3
101	101	50
1	2	18
140	141	4
70	71	9
112	112	38
107	107	17
45	46	4
22	22	30
32	34	13
41	41	33
118	118	18
100	100	45
146	147	17
7	9	6
81	82	7
2	2	36
73	73	26
104	104	8
7	8	16
25	40	5
113	113	7
132	132	25
141	141	14
45	47	5
46	46	17
77	83	2
72	73	2
97	97	19
120	120	19
111	112	13
131	133	6
108	108	23
157	158	13
11	11	20
42	42	29
47	47	23
9	43	1
49	49	17
75	77	2
31	31	17
33	33	26
95	95	31
149	150	6
87	89	4
130	130	31
50	50	7
135	135	12
110	156	3
28	28	32
20	20	14
105	105	46
67	67	27
125	127	5
100	102	2
45	45	22
51	53	3
44	44	25
134	134	31
88	89	10
116	116	26
103	104	13
97	98	10
19	33	1
30	31	9
35	35	10
79	79	22
8	12	2
16	16	21
91	91	11
68	69	15
139	140	10
77	78	16
55	55	12
90	90	23
143	147	4
63	67	2
88	88	15
8	8	16
137	138	19
127	129	2
80	81	9
38	38	16
37	107	5
99	99	37
27	28	9
133	147	1
123	127	3
121	121	21
121	141	3
138	138	47
40	112	2
153	154	5
15	15	15
146	146	14
100	101	5
17	17	23
119	122	2
94	95	10
22	23	3
84	85	4
148	149	4
25	25	25
109	109	20
120	121	26
127	131	4
98	99	8
129	129	19
123	147	8
87	87	25
105	106	8
144	144	30
124	145	2
80	80	16
125	125	20
126	127	8
78	78	12
158	158	17
114	115	17
122	126	3
24	24	38
95	98	3
32	33	7
89	90	2
124	124	27
56	56	16
134	135	4
21	37	1
32	32	18
34	35	7
150	150	22
141	143	2
130	131	7
94	94	24
28	46	1
119	120	29
36	50	4
27	37	1
148	148	33
93	93	17
85	85	13
6	6	26
83	83	30
63	64	8
30	30	29
62	62	5
43	49	4
29	29	21
42	109	2
3	3	22
122	122	23
54	55	10
71	71	14
43	44	5
35	37	8
151	151	20
75	75	11
14	14	14
123	124	8
53	53	14
65	66	4
64	67	3
92	93	8
21	25	5
155	155	15
77	77	31
126	134	1
93	95	12
145	147	3
36	37	24
46	47	8
69	69	13
153	153	17
18	18	16
96	96	21
128	128	11
141	142	5
119	126	1
12	13	7
36	36	12
108	111	3
122	138	2
31	97	5
13	14	13
42	43	2
40	51	2
152	153	4
145	146	11
44	47	4
85	114	1
142	142	9
37	38	6
7	7	22
132	133	9
79	80	6
31	32	9
108	112	5
108	125	1
124	126	5
43	43	20
9	11	8
106	107	4
136	136	19
157	157	17
70	70	17
88	111	12
126	126	18
86	103	1
137	139	7
15	16	2
50	52	9
53	117	1
68	68	19
15	42	6
62	68	2
36	40	3
97	103	2
104	106	5
8	10	7
110	121	2
30	32	6
121	122	15
46	52	4
150	151	3
111	111	22
129	130	5
19	137	3
10	10	16
144	145	10
40	40	9
78	82	2
156	156	19
51	51	12
82	84	2
92	92	15
24	25	6
5	6	5
52	75	1
115	115	5
131	134	1
134	136	12
39	39	26
19	19	23
154	155	10
53	54	7
122	123	3
51	57	2
7	24	2
98	98	23
13	13	19
136	137	2
113	115	3
149	154	3
67	118	2
124	125	7
122	141	1
117	117	15
65	65	18
85	86	4
113	155	3
68	70	5
41	72	2
91	92	3
51	56	2
117	118	8
32	38	2
57	57	7
81	81	24
5	5	14
44	97	1
123	139	7
30	37	2
33	85	6
42	50	3
25	26	8
52	68	1
21	22	6
93	94	5
86	87	3
3	4	2
120	127	3
130	148	1
142	143	4
119	140	5
18	25	1
50	51	5
6	7	2
19	21	2
29	45	4
85	111	1
111	134	5
10	11	4
79	81	5
4	4	11
62	63	4
105	111	1
3	25	6
26	43	1
155	156	12
125	148	1
121	142	2
14	15	12
33	34	4
77	82	4
15	63	3
125	136	1
105	107	4
103	108	1
55	70	2
2	5	2
128	129	4
57	68	1
32	50	3
11	12	13
17	18	12
106	117	2
28	37	2
18	121	2
112	113	9
140	140	6
29	31	5
19	20	10
158	159	7
124	155	1
109	110	4
46	48	8
115	116	4
69	113	1
83	117	6
104	133	2
149	149	5
109	111	5
43	111	3
12	12	16
1	4	2
52	52	22
13	15	3
90	91	6
15	49	2
98	158	2
114	114	20
129	132	2
107	108	10
76	77	3
99	100	3
70	78	3
143	143	7
93	105	2
24	26	2
86	91	1
99	158	3
78	90	1
96	98	1
94	96	1
136	153	2
11	13	5
6	12	4
104	105	21
38	39	8
43	65	2
89	89	25
50	68	2
3	45	3
27	27	14
125	139	4
28	36	2
70	72	4
126	144	6
126	141	3
88	90	6
103	103	13
102	102	10
104	107	2
108	109	4
143	144	6
10	28	2
103	105	1
54	54	5
94	104	2
94	97	3
110	110	7
34	50	2
114	138	7
103	110	2
104	130	3
153	156	2
66	66	7
46	64	3
87	105	3
151	154	2
117	120	2
44	129	1
0	41	1
51	54	5
14	147	4
16	144	3
139	157	1
49	51	5
3	27	4
11	27	1
55	148	2
28	44	6
73	74	4
93	113	2
39	42	3
144	146	4
135	137	1
48	50	2
78	79	9
2	3	4
34	34	10
70	112	1
40	111	1
3	5	5
114	125	5
111	117	4
78	80	1
88	113	3
113	118	3
88	150	4
20	21	4
30	98	2
156	158	3
95	96	4
127	136	1
6	8	5
7	30	2
11	35	1
28	31	2
95	116	8
138	139	5
66	89	2
64	66	3
113	114	5
67	68	2
51	52	11
20	22	3
89	94	2
94	158	4
51	55	2
146	149	2
155	157	3
133	133	10
110	114	1
64	65	3
120	136	1
7	10	1
83	85	1
86	111	2
61	61	2
55	149	1
83	116	3
8	9	12
25	28	1
69	70	7
33	49	1
116	117	11
83	87	3
120	138	2
32	94	2
9	14	3
75	103	1
19	135	1
48	49	6
41	111	2
40	42	2
35	36	7
55	69	2
110	111	11
92	95	5
66	72	1
86	104	1
71	72	5
40	67	3
75	101	3
30	40	2
26	40	1
15	17	2
44	45	5
111	115	3
12	23	1
34	85	1
129	131	3
40	66	5
9	10	3
125	133	1
79	115	1
76	76	3
44	65	1
45	67	1
34	37	1
66	116	1
72	72	3
4	7	1
32	95	2
47	77	2
149	155	2
122	131	1
23	25	4
28	29	6
40	52	2
131	145	2
137	140	3
31	34	2
145	145	8
118	119	5
151	155	1
54	81	2
121	146	1
94	129	1
9	17	1
139	141	1
63	68	1
118	121	1
77	79	2
90	95	1
134	141	6
43	71	2
154	156	1
120	140	2
133	134	5
112	121	3
26	27	6
11	32	2
50	54	1
43	67	2
25	71	1
118	141	1
90	92	4
115	118	3
21	26	1
33	40	3
66	67	5
55	56	5
138	158	2
83	113	1
126	133	2
42	45	2
50	71	1
4	23	2
36	49	3
122	124	2
88	122	2
16	43	1
93	97	2
23	99	1
103	106	1
151	152	1
90	123	1
127	140	1
150	152	1
0	1	3
111	116	1
1	94	1
49	50	2
109	112	3
73	75	1
147	150	3
20	26	1
103	123	1
147	148	3
152	155	3
137	141	2
100	131	1
98	112	3
29	30	2
82	83	4
7	94	1
156	157	3
87	111	2
103	132	3
23	104	1
77	111	3
103	131	1
81	121	1
26	41	2
144	153	3
10	15	1
150	154	1
38	49	1
31	33	3
54	63	1
108	140	2
124	132	1
87	88	2
36	38	1
0	100	1
27	33	1
41	70	2
3	7	1
111	113	3
92	112	2
77	92	1
6	105	3
135	136	4
85	91	1
108	110	3
126	142	1
81	89	4
81	83	2
63	63	5
93	96	4
135	142	1
107	126	1
127	135	1
109	134	1
133	139	2
42	112	3
8	29	3
11	15	2
0	40	1
77	81	1
22	36	1
23	24	3
5	7	1
33	35	2
24	27	1
7	11	2
67	69	1
78	148	1
39	40	2
15	33	3
85	94	1
69	138	2
145	153	1
32	35	3
147	153	2
107	115	1
79	108	1
116	132	1
122	142	2
26	42	2
16	26	1
17	19	3
20	140	3
41	42	1
113	117	3
108	146	1
79	114	1
43	63	1
152	154	1
92	113	2
57	61	1
66	69	1
102	103	2
23	30	2
5	23	3
148	155	1
67	70	1
147	149	2
51	73	1
26	38	1
23	96	1
108	113	2
114	116	1
4	5	2
37	106	1
91	121	1
121	134	1
24	29	2
16	17	1
149	151	1
97	107	2
29	49	2
2	25	1
78	91	1
42	44	1
136	144	1
94	103	1
107	109	1
81	84	1
79	82	1
82	118	1
146	148	1
108	144	1
54	56	1
127	141	1
23	101	1
91	119	1
42	49	1
55	57	1
43	85	2
44	72	1
128	139	1
94	98	1
20	97	1
115	151	1
117	121	2
150	155	1
83	97	2
76	79	1
21	87	1
105	109	2
123	126	1
53	56	1
45	48	1
16	125	1
112	124	1
140	147	1
35	54	1
26	28	1
142	148	1
