78	78	11
47	48	8
5	6	8
133	133	21
72	72	21
144	144	16
101	103	14
37	38	14
43	43	22
44	44	17
12	12	19
82	82	9
92	93	6
19	51	2
16	16	24
24	24	26
39	39	12
9	9	16
146	146	23
70	72	8
129	130	9
53	102	2
146	148	8
121	122	9
141	141	8
4	7	7
4	4	37
118	118	13
13	14	5
73	73	43
41	41	13
131	131	12
45	45	20
24	25	5
3	4	4
49	50	5
67	67	17
102	102	26
27	27	27
152	152	9
42	44	10
137	138	1
3	10	2
8	8	39
2	5	2
103	103	15
52	52	27
143	145	11
113	115	7
143	148	1
54	55	10
68	69	7
76	76	32
142	142	30
68	68	15
5	5	19
10	16	2
49	49	28
156	160	3
100	100	17
53	54	14
20	51	1
21	22	8
71	85	1
129	129	15
160	161	11
97	100	1
46	46	38
132	132	12
36	37	7
105	107	1
111	111	21
133	135	2
137	137	15
92	92	32
111	113	3
75	76	5
36	36	20
55	55	16
127	152	4
169	170	9
111	112	12
15	18	8
53	84	2
16	17	2
84	85	8
89	89	25
90	90	25
38	39	11
28	28	17
19	45	3
14	15	17
34	35	10
102	104	8
119	159	2
113	143	4
51	67	3
6	110	2
127	149	4
133	134	4
79	80	13
4	5	10
125	125	14
26	26	25
71	71	8
73	75	5
141	142	6
14	14	27
11	13	8
113	113	22
53	53	14
71	84	1
15	52	5
169	169	6
125	126	7
107	116	2
63	63	17
128	161	4
149	151	3
116	116	22
77	78	7
2	2	11
155	156	8
76	77	12
39	40	11
33	34	15
155	155	17
81	81	29
42	115	1
138	138	17
15	15	19
40	40	5
91	92	7
76	79	3
103	104	3
126	128	11
82	83	7
123	123	23
153	153	13
148	169	7
21	21	20
95	96	8
106	106	19
80	81	7
3	12	5
97	99	4
17	17	34
37	37	26
13	13	17
148	148	3
112	112	10
120	144	3
104	104	16
153	154	5
125	159	1
157	157	5
22	22	22
144	149	4
145	145	18
35	35	14
70	70	19
66	66	11
21	121	2
114	114	27
95	95	25
7	17	4
136	136	14
25	27	7
10	109	2
85	85	17
55	77	1
164	165	5
101	101	15
165	168	5
126	130	8
78	79	5
81	84	1
62	62	9
40	41	14
80	80	20
71	92	8
78	80	4
56	57	8
122	125	3
73	88	4
163	163	20
143	143	27
118	119	17
73	90	1
22	27	3
120	121	2
87	87	34
47	47	21
130	130	14
14	20	2
159	159	19
119	119	27
79	79	16
88	90	3
81	82	7
112	113	13
35	37	16
166	167	5
124	124	14
147	160	3
72	73	3
127	127	11
166	168	2
20	107	1
133	144	2
25	25	38
46	47	5
100	105	6
165	165	17
10	10	18
113	114	10
26	89	1
154	154	13
6	6	23
1	1	22
4	84	1
154	155	6
158	159	11
162	164	3
99	100	6
86	87	5
147	148	14
0	0	17
166	166	4
142	144	5
42	42	20
117	117	19
11	12	10
86	89	4
56	56	29
34	34	35
5	8	3
170	170	8
147	147	9
108	108	23
0	1	10
100	103	2
40	44	1
8	132	7
91	98	3
140	141	11
63	69	5
43	53	2
81	101	3
74	74	21
64	71	8
22	23	3
154	167	4
16	75	3
134	134	19
39	41	2
121	121	6
126	126	14
23	25	5
14	16	4
122	126	1
156	156	10
83	83	15
0	2	4
9	10	19
115	116	5
139	140	5
56	79	5
3	157	2
150	150	15
94	95	4
98	98	14
23	23	20
7	7	15
27	28	15
44	45	16
17	101	4
8	10	5
131	137	3
73	76	8
130	145	1
43	52	1
128	130	8
150	151	9
140	140	6
135	136	2
73	87	2
110	111	7
159	160	4
76	78	4
161	161	4
144	165	6
110	110	17
93	93	9
3	5	3
64	65	2
14	18	1
20	20	23
83	84	8
135	135	11
110	137	1
91	91	20
3	3	16
127	128	8
51	51	22
57	57	12
127	146	3
48	48	17
131	144	1
64	64	21
115	117	2
11	11	19
43	46	1
8	11	3
160	160	14
93	95	3
8	9	11
15	17	4
115	115	18
17	131	3
2	3	10
122	123	9
36	38	4
142	143	4
50	50	8
139	139	6
138	139	5
15	16	14
84	84	22
88	89	11
38	38	12
117	118	12
42	43	10
122	122	12
18	18	5
52	53	13
51	52	1
94	98	6
58	58	3
108	109	12
20	24	5
18	19	1
128	131	2
65	66	8
105	106	8
77	77	14
132	137	2
74	75	8
56	101	5
134	135	19
44	46	3
55	102	1
54	54	13
154	157	1
86	86	15
145	147	4
143	144	4
114	116	2
98	133	1
96	96	25
1	6	2
8	133	3
144	145	6
77	111	1
0	13	2
71	72	9
107	108	10
74	76	3
94	94	22
120	120	10
89	90	8
77	105	3
88	88	19
104	105	4
72	74	2
149	149	19
56	102	2
75	75	5
35	38	2
48	49	6
147	149	1
123	124	4
17	18	3
50	51	6
129	152	1
108	110	8
99	99	8
130	138	4
150	165	1
10	14	2
98	105	1
92	94	1
128	152	1
148	151	4
105	105	6
119	120	7
12	33	6
101	102	3
138	156	1
94	96	2
157	158	3
18	41	2
119	149	6
80	82	5
107	107	9
90	92	4
167	167	11
104	135	5
151	151	6
133	137	2
41	52	1
10	11	3
130	165	5
130	131	4
96	106	3
131	142	7
145	166	7
116	134	2
81	83	4
136	137	2
131	132	6
6	7	4
133	156	2
21	24	2
64	66	4
26	64	2
122	160	2
70	71	2
93	98	1
42	48	2
112	158	2
65	65	1
56	103	4
141	143	3
34	36	1
55	56	8
131	155	2
164	164	10
151	152	6
93	94	4
9	11	1
6	109	4
99	103	4
128	129	1
26	27	4
81	85	1
147	167	1
63	64	7
96	97	5
55	106	2
47	73	4
132	138	3
103	105	10
18	46	3
128	128	8
145	146	6
19	19	10
80	85	1
155	165	2
108	116	2
135	139	2
107	112	2
156	157	1
151	166	3
92	106	3
20	64	1
19	20	7
126	146	3
96	98	1
136	138	1
66	67	3
129	145	2
97	97	12
58	80	1
122	149	3
121	126	2
114	128	5
158	158	8
13	15	1
124	125	5
114	115	3
6	76	1
109	109	7
162	162	1
76	111	4
1	2	4
126	127	2
26	70	7
88	116	5
113	127	2
16	55	3
43	44	4
73	74	4
111	156	1
5	109	1
129	151	9
6	8	2
16	92	1
12	13	1
53	103	2
35	36	3
38	41	7
127	130	2
151	154	1
138	142	3
102	103	4
161	162	5
140	155	2
36	75	2
10	108	4
126	143	2
98	106	2
3	19	3
33	33	9
113	145	2
76	80	1
139	143	4
92	98	1
111	114	4
4	35	2
10	15	1
33	35	2
74	81	1
140	146	2
89	92	3
54	76	2
109	110	5
162	163	2
92	105	2
150	163	2
56	58	2
135	141	2
93	96	2
154	165	1
139	142	4
57	58	1
11	33	3
93	97	1
54	56	2
46	49	1
129	143	1
113	158	4
14	27	2
116	118	1
131	151	1
127	161	5
34	56	1
69	70	2
17	55	5
53	107	2
150	160	1
7	9	2
151	160	1
90	100	2
17	74	1
143	146	1
41	43	1
104	107	5
138	140	5
55	105	3
136	141	2
136	166	2
2	41	4
126	148	1
24	26	1
18	108	1
20	58	4
56	104	2
14	136	1
132	133	1
8	109	1
77	81	4
125	129	1
15	22	4
85	86	3
165	166	1
129	153	2
19	70	5
67	70	2
63	93	3
20	21	3
13	25	2
64	67	2
6	114	1
4	12	2
71	86	2
65	82	1
35	144	3
154	156	3
18	75	1
37	41	4
155	166	2
82	92	1
97	98	2
117	119	3
57	69	1
7	76	3
79	81	2
50	57	1
105	112	2
159	161	1
11	14	3
120	149	1
49	64	1
45	46	1
94	104	3
151	164	2
63	65	4
14	25	1
45	51	1
133	139	1
10	52	2
77	113	1
53	77	1
4	6	1
18	40	1
124	159	4
112	116	1
42	118	1
47	49	1
12	108	1
8	14	1
4	158	1
84	87	2
7	42	1
139	141	1
73	89	2
43	47	1
16	20	1
151	165	1
0	11	3
77	80	2
127	129	3
6	135	1
37	39	2
148	149	1
124	161	2
24	71	1
55	101	1
15	102	1
133	136	1
15	19	2
17	45	2
83	88	1
155	167	1
62	63	1
41	42	1
89	91	1
87	89	1
4	36	2
135	137	1
52	54	1
150	164	1
118	134	1
47	50	2
5	7	1
0	110	1
146	147	1
101	105	1
16	137	1
168	170	3
163	164	2
21	26	1
78	84	1
130	143	1
125	162	1
69	69	1
48	51	1
51	53	1
98	99	1
165	169	1
114	134	1
36	64	2
100	101	1
75	113	1
54	101	1
