7	84	4
21	21	25
11	13	3
126	126	8
94	95	8
62	62	7
101	125	5
85	85	26
30	30	25
20	20	19
76	76	20
73	73	13
94	94	19
3	3	8
69	71	1
105	105	7
57	57	13
81	81	16
83	83	20
90	90	25
74	74	25
107	109	2
0	0	4
27	29	2
58	60	8
61	61	22
39	39	3
71	71	5
47	80	2
4	7	2
101	101	15
82	82	10
130	130	6
11	11	32
9	9	14
3	4	4
79	80	19
10	11	5
40	41	1
15	15	15
126	130	2
45	45	31
7	7	5
34	34	19
27	92	8
112	112	11
70	70	21
31	32	7
99	100	17
58	59	4
4	4	7
46	62	1
5	5	10
127	127	3
25	25	17
95	95	7
13	15	12
65	65	12
2	3	5
54	56	7
75	76	7
64	64	11
88	88	6
26	47	5
24	24	17
20	21	15
37	39	1
22	23	1
15	23	4
79	81	6
29	30	13
13	16	2
36	36	17
4	97	2
14	83	7
107	107	11
92	92	11
29	32	6
10	10	25
129	130	1
32	32	17
12	12	21
97	99	3
20	29	2
68	70	3
92	93	1
109	109	7
123	124	2
103	105	2
113	113	10
31	81	3
83	129	1
103	103	9
42	84	2
16	16	5
17	80	1
93	93	20
91	93	4
31	90	1
23	23	16
35	35	12
88	95	2
16	59	7
41	42	19
96	97	11
6	6	15
86	108	3
85	129	1
87	88	5
104	106	3
59	59	13
45	64	2
86	126	1
130	131	4
110	110	4
83	124	5
96	96	14
89	89	2
79	79	14
8	8	15
21	37	1
60	60	22
44	59	5
46	46	13
62	90	3
59	60	7
16	38	1
80	80	7
44	44	15
91	91	12
84	84	18
28	28	12
37	37	13
63	63	11
116	116	4
73	74	6
11	14	2
6	62	1
99	124	1
62	67	1
33	33	29
42	42	9
27	28	9
23	74	4
13	14	6
120	122	5
69	69	9
96	98	2
14	15	10
100	100	18
75	75	14
26	26	26
89	93	1
36	43	1
63	64	5
28	33	1
104	105	17
91	92	8
60	65	2
23	26	7
6	7	10
85	87	4
14	14	25
28	79	7
32	33	17
26	31	4
42	82	3
34	35	12
77	77	17
76	79	3
133	133	5
81	82	7
9	12	6
95	96	4
90	108	2
7	65	6
89	109	4
18	18	16
42	83	2
112	113	7
17	29	1
27	27	15
118	120	3
106	107	5
9	10	8
26	92	3
113	115	1
58	58	10
45	70	6
100	110	4
45	55	1
13	13	25
119	120	3
47	47	13
112	114	1
78	78	8
29	29	24
38	39	4
55	55	16
121	121	16
82	83	6
62	63	2
46	47	2
22	22	7
49	49	4
13	27	4
96	99	2
24	26	7
131	132	1
68	69	6
37	91	2
2	2	6
69	70	5
80	98	3
36	37	8
66	66	13
24	25	4
4	6	11
15	16	2
102	124	5
27	30	4
11	12	8
12	35	2
70	71	4
16	82	3
87	87	11
35	61	2
45	46	3
17	17	10
109	110	4
42	115	4
93	102	2
12	13	4
49	55	5
48	48	7
38	82	2
19	20	6
90	91	4
62	89	1
99	99	9
42	81	5
100	101	5
43	43	8
101	102	3
68	93	3
89	91	3
38	38	7
55	56	3
122	122	5
122	123	4
65	83	2
42	43	7
6	8	3
119	119	9
61	84	2
40	115	3
123	123	12
99	101	7
129	129	6
21	85	3
111	113	5
44	55	1
95	100	2
128	131	3
26	28	1
20	22	1
43	77	2
125	125	8
67	67	12
41	41	11
42	78	3
11	70	1
128	128	6
72	72	14
28	29	3
114	114	5
86	96	4
115	115	1
89	101	2
93	98	3
8	36	5
124	125	4
22	35	1
117	117	2
29	49	2
68	68	14
91	96	1
44	46	2
87	106	2
35	36	8
91	114	1
41	43	3
118	118	5
77	78	3
21	22	3
93	94	5
30	32	3
26	27	13
31	31	9
110	128	4
94	97	3
75	77	4
88	93	2
27	79	2
5	6	6
40	40	5
72	73	4
69	73	7
103	104	3
44	45	4
74	75	3
78	79	2
120	120	4
28	90	1
76	77	3
123	126	2
43	44	2
78	81	4
25	27	4
86	97	1
39	45	1
21	30	2
88	94	2
4	5	6
56	56	4
19	23	1
97	97	4
67	93	2
22	26	4
96	100	3
44	85	1
45	89	2
126	128	2
94	99	1
102	112	1
88	97	1
29	31	1
102	125	1
131	134	2
30	49	3
15	21	3
119	122	3
65	66	3
115	116	1
106	106	4
11	93	2
104	104	4
50	50	1
41	44	3
11	71	1
45	59	5
36	42	2
111	112	4
34	85	2
87	93	2
87	102	2
110	111	3
111	111	7
132	132	1
16	17	3
45	71	6
100	123	2
27	97	4
57	58	2
10	12	1
80	81	2
86	86	3
7	83	1
16	19	3
21	84	3
76	78	1
73	119	1
12	34	1
95	101	2
27	91	1
25	26	3
25	62	2
49	116	1
108	108	5
11	26	2
33	47	1
15	17	5
83	84	1
106	108	1
43	116	1
25	29	1
49	50	1
30	48	2
48	49	1
14	31	1
39	42	3
86	95	2
37	43	1
94	96	1
69	100	1
14	24	1
10	13	2
1	2	2
19	19	4
95	98	2
114	116	2
22	28	1
97	98	2
32	64	2
37	81	5
7	8	1
124	124	7
26	82	2
35	46	2
97	100	1
45	117	1
129	131	1
103	125	3
103	106	1
71	73	3
130	132	2
104	123	1
6	66	2
65	86	1
102	102	7
20	89	1
98	124	1
62	91	3
42	45	1
74	129	2
19	22	4
76	97	1
19	69	3
106	127	3
117	118	1
16	21	1
84	85	2
56	57	2
18	59	1
18	72	2
113	114	1
17	19	3
80	106	3
120	121	4
46	57	2
21	35	1
114	115	1
127	133	2
35	74	4
36	76	3
61	75	2
43	83	1
41	51	1
18	19	1
131	131	1
93	99	1
13	47	1
19	21	4
90	97	4
87	89	1
30	56	2
20	44	2
28	32	1
22	25	2
3	91	1
35	41	1
85	96	1
107	108	1
26	80	1
78	82	1
7	11	1
12	71	1
134	134	1
26	75	2
51	51	1
39	41	2
78	80	2
59	73	1
64	65	2
8	21	1
66	101	1
17	18	3
85	92	1
4	12	3
51	54	1
7	85	2
45	84	2
18	69	3
98	98	2
39	84	1
90	94	1
5	88	1
41	102	2
10	85	1
82	84	1
118	119	1
17	45	1
100	102	1
16	45	1
125	126	2
56	59	2
30	31	1
67	68	1
31	79	2
21	58	2
22	37	1
116	118	1
8	37	1
127	130	2
45	62	1
15	30	1
61	65	1
108	109	1
92	100	1
25	93	1
43	115	1
84	124	1
78	112	1
126	127	1
4	87	1
54	59	1
89	90	1
37	84	1
7	9	1
18	20	1
27	94	1
