130	131	4
181	185	1
188	188	13
116	117	2
122	122	8
0	79	2
115	115	20
152	153	7
57	58	5
160	165	2
115	116	6
30	35	2
169	169	7
156	164	2
29	30	8
72	105	2
155	155	11
110	110	14
105	107	2
1	1	12
16	16	11
68	69	3
71	72	11
8	11	1
22	22	17
122	123	7
147	157	3
52	52	9
133	133	10
27	28	4
178	179	4
68	131	4
91	92	5
85	86	1
89	89	11
17	42	1
151	151	10
149	150	5
20	20	8
30	30	7
142	174	2
84	85	9
123	124	5
106	186	3
13	14	4
62	62	7
158	159	4
82	105	2
94	94	10
75	75	10
86	143	1
138	138	13
23	23	22
149	156	2
144	144	6
15	16	11
25	25	11
61	157	7
10	11	3
113	113	5
109	146	1
57	57	15
35	35	6
136	137	7
130	130	9
91	91	3
146	147	2
90	90	8
119	146	3
99	99	14
138	139	6
18	20	9
74	189	1
178	178	3
124	124	8
101	103	1
68	171	3
156	158	2
48	48	9
2	2	13
53	54	6
38	38	15
6	6	8
127	127	14
13	13	14
98	98	13
27	35	4
74	152	3
79	80	6
126	127	2
72	72	12
35	37	2
66	66	10
131	133	7
57	69	2
86	86	4
83	84	7
68	104	3
112	113	3
73	157	6
154	154	9
76	76	4
186	188	3
109	110	4
170	170	5
47	47	14
95	98	1
27	27	10
41	41	17
79	79	13
10	29	3
1	2	8
119	119	3
9	21	4
19	19	4
97	97	9
31	31	5
145	145	6
9	10	1
99	100	6
68	123	9
186	186	10
28	28	5
59	59	4
0	0	17
39	39	10
129	129	8
40	41	6
40	143	1
157	157	13
80	80	5
55	55	22
103	103	5
163	163	12
165	165	3
78	78	12
171	171	5
155	156	1
110	111	6
92	93	5
75	180	2
93	126	5
87	88	6
150	150	7
30	41	6
58	58	9
70	155	2
73	73	9
144	173	1
77	77	11
77	110	2
101	140	1
148	148	6
105	105	3
93	93	12
74	74	17
30	31	6
82	82	4
185	185	5
11	11	11
71	83	2
174	174	14
14	14	12
23	24	6
17	21	1
170	172	2
86	92	2
16	42	2
172	176	2
71	137	3
182	182	4
83	103	5
17	18	6
14	29	3
107	129	3
124	125	7
117	118	11
17	17	16
107	107	6
63	154	3
117	117	6
40	40	14
114	115	7
164	164	9
12	13	1
140	141	10
87	109	4
141	141	10
124	126	2
56	57	5
118	154	3
76	185	1
185	186	5
81	81	5
71	73	2
5	18	1
58	59	3
13	15	3
88	103	4
31	32	7
120	120	4
4	4	6
84	84	10
66	68	3
77	99	4
85	135	3
121	121	16
98	100	1
75	76	6
134	134	7
140	140	15
112	112	12
24	44	1
160	160	13
114	114	12
102	102	7
156	157	4
74	80	4
12	12	9
155	157	2
60	60	5
55	83	2
135	136	8
14	91	3
22	27	9
5	5	2
106	107	3
44	47	1
47	81	1
147	148	2
56	56	8
147	147	8
93	94	4
124	127	3
118	119	7
7	7	5
117	137	2
87	87	8
12	28	2
114	148	2
167	167	3
43	43	13
53	53	9
72	106	3
184	184	9
78	79	4
152	152	10
25	86	6
15	15	5
44	45	2
96	96	5
123	170	3
142	142	11
3	43	4
0	2	1
150	151	6
24	87	2
125	161	2
17	19	1
10	21	1
111	111	5
42	42	4
100	100	5
57	70	2
46	46	10
143	143	5
41	42	3
134	176	2
174	175	1
37	37	8
70	70	5
134	136	5
34	34	2
71	71	4
173	173	8
60	61	6
42	43	4
82	109	1
183	184	2
77	140	1
144	145	2
162	163	3
123	126	1
14	27	1
125	126	7
101	105	2
179	179	3
19	76	1
54	55	2
53	81	2
83	83	6
123	123	3
97	104	1
116	148	2
125	125	7
60	63	5
78	154	4
8	21	2
96	113	3
108	108	7
76	179	1
77	100	5
18	19	4
132	133	1
149	149	5
148	152	2
103	110	3
80	81	6
71	175	1
60	64	2
166	170	1
56	154	3
133	135	3
77	84	5
143	162	5
134	138	5
113	137	1
33	33	4
38	87	2
162	162	5
45	137	3
101	106	1
31	33	3
48	80	3
8	8	6
66	77	2
111	146	2
32	32	6
131	131	14
82	99	2
56	83	2
135	139	1
173	185	1
78	164	2
86	150	3
48	99	1
137	137	8
102	103	2
108	150	1
76	85	2
11	31	1
106	106	7
89	90	2
10	10	7
128	139	2
143	144	3
141	142	8
132	144	3
116	118	3
130	166	2
169	183	4
122	170	3
60	124	2
146	148	2
160	162	1
53	69	2
160	163	2
166	166	5
31	42	3
78	83	2
99	111	2
32	33	3
187	187	1
24	48	2
72	136	1
145	146	1
7	8	2
16	25	3
118	118	9
95	95	2
24	24	14
190	190	6
93	110	2
132	135	1
167	168	4
161	162	9
86	110	1
121	122	8
137	154	1
68	125	2
160	161	4
64	73	1
62	131	2
183	183	2
96	183	1
66	67	6
181	181	2
44	48	1
161	163	5
21	21	2
16	17	3
64	64	2
188	189	3
132	132	9
4	5	5
88	88	4
109	118	3
148	157	2
17	20	1
19	20	13
156	156	4
127	160	2
139	139	6
59	63	1
25	26	5
55	82	5
58	65	2
13	23	1
171	172	5
117	119	2
29	29	1
123	141	1
161	161	12
95	153	1
92	92	3
5	150	2
3	13	2
119	130	3
134	137	2
86	145	2
134	135	6
163	164	2
36	36	5
107	108	3
139	140	2
11	13	2
77	79	8
65	130	1
108	143	1
63	64	1
136	136	3
76	168	3
128	128	5
18	18	1
67	67	5
16	38	2
104	105	5
4	6	1
159	160	2
157	162	3
16	21	4
16	24	2
137	138	3
148	151	2
48	139	4
81	103	1
153	153	4
78	88	3
5	28	2
169	170	6
90	103	2
89	124	2
3	57	1
126	126	3
90	94	1
85	85	5
115	186	2
105	106	1
86	87	1
88	109	6
82	108	1
84	135	1
89	96	4
64	66	1
62	64	3
117	157	2
4	62	1
103	106	1
109	109	3
24	66	1
11	27	2
22	23	5
26	26	4
45	45	11
5	6	3
117	148	3
10	150	1
97	98	4
38	86	3
1	77	1
146	154	2
112	116	1
31	35	2
47	48	1
44	44	6
20	25	2
88	122	2
123	139	3
35	36	4
61	82	1
4	38	3
85	161	2
81	85	3
110	157	1
69	70	2
122	167	3
26	32	1
102	110	2
151	155	2
73	74	7
62	63	3
65	67	2
5	7	2
9	14	2
80	101	2
76	158	2
36	85	2
109	174	1
109	115	2
58	60	1
83	135	2
64	157	4
82	83	2
165	175	1
41	48	4
54	54	6
159	159	1
112	149	2
56	90	1
59	82	3
87	110	3
57	122	1
152	167	2
28	29	2
7	38	2
140	145	3
77	180	1
17	25	1
47	143	1
104	104	2
15	48	3
8	37	2
172	188	1
57	173	4
89	183	1
144	146	1
104	110	3
123	173	1
101	101	3
147	156	1
0	47	1
155	162	1
172	172	2
121	171	1
83	99	2
53	167	2
64	130	1
85	145	1
20	21	4
128	129	2
119	125	1
65	71	2
0	75	2
5	26	2
173	178	1
27	58	1
44	143	1
91	104	1
65	65	1
119	120	1
155	172	1
15	18	4
57	83	1
113	153	3
76	77	3
57	179	2
42	58	1
15	22	1
148	154	1
166	169	1
182	185	2
25	34	1
55	164	1
59	60	1
6	13	1
108	109	1
55	56	1
148	149	1
52	53	1
146	165	1
87	93	1
74	153	2
36	37	2
111	112	5
83	116	2
176	176	2
77	186	3
75	168	1
17	22	1
44	83	1
119	153	2
116	116	1
61	63	3
113	132	1
75	162	2
96	111	1
131	132	1
46	112	1
135	159	1
24	26	1
66	83	1
80	138	3
112	127	2
189	190	1
141	186	1
159	170	1
22	31	1
131	137	1
3	3	1
76	163	1
73	77	2
85	108	3
179	181	1
117	188	1
157	158	1
15	41	1
66	70	1
47	82	1
52	70	1
133	134	2
90	91	2
178	180	1
1	44	2
170	171	2
158	158	3
147	158	1
21	43	3
2	40	1
109	151	1
113	117	1
126	184	1
27	30	1
13	48	1
21	24	1
49	49	1
133	136	1
53	56	1
177	177	1
16	86	1
45	46	1
92	95	1
189	189	1
34	37	1
38	39	1
90	140	1
135	142	1
153	154	1
3	44	1
143	145	1
97	100	2
58	96	1
6	8	1
58	63	1
115	119	1
43	44	1
77	125	1
69	69	1
59	124	1
54	121	1
109	143	1
78	84	1
3	6	1
113	114	1
101	102	1
4	61	1
123	125	1
63	81	1
0	40	1
10	14	1
31	34	1
116	187	1
96	97	1
26	27	1
