21	21	7
131	136	2
221	221	6
116	116	1
190	190	13
54	54	11
155	155	10
77	81	1
242	242	6
129	130	4
63	63	8
197	198	5
73	74	2
101	101	12
156	156	11
95	95	2
29	29	14
63	64	7
208	208	11
20	20	8
164	164	9
158	158	5
51	52	8
38	38	16
15	15	11
7	7	17
182	235	2
200	200	7
178	224	3
45	45	15
124	125	3
12	12	17
159	160	2
233	233	12
32	73	2
219	219	17
118	216	1
62	62	5
14	14	14
43	43	14
124	127	4
74	149	1
205	206	6
106	107	1
174	174	6
78	79	5
13	17	3
235	235	7
73	73	11
187	187	4
198	198	7
104	105	4
225	226	4
109	149	2
53	54	7
156	158	1
9	16	2
135	189	2
34	35	9
134	134	11
29	98	1
118	124	4
240	240	10
227	230	3
67	111	3
48	80	3
119	119	5
66	66	6
234	235	2
191	191	5
25	25	1
128	160	4
77	149	8
196	197	2
223	223	5
173	173	9
234	237	6
238	239	1
84	84	6
80	80	14
188	188	11
237	237	9
147	147	16
202	202	11
19	19	6
157	157	5
42	42	16
175	176	4
40	41	4
227	236	1
121	144	2
231	235	2
96	106	4
238	238	5
59	59	8
9	212	1
220	226	2
203	203	4
35	36	2
165	165	7
175	175	11
183	183	10
16	24	1
138	138	10
178	209	3
165	190	3
95	132	1
137	180	1
18	194	1
164	175	1
173	217	1
150	151	4
69	70	3
37	38	5
215	216	1
136	136	9
16	17	5
19	20	4
159	159	6
197	226	1
158	177	2
76	77	4
29	30	6
6	13	3
56	56	12
211	211	4
26	26	10
64	64	9
39	70	1
33	51	1
153	155	4
105	105	5
74	74	12
188	189	7
160	164	6
28	43	2
88	88	6
217	217	4
109	109	6
39	39	14
198	200	1
139	212	1
76	76	8
226	226	10
136	139	1
106	192	1
160	160	5
82	82	9
5	6	6
230	230	6
145	160	1
109	110	2
25	71	5
122	127	3
83	83	8
23	23	11
180	184	3
198	199	1
102	116	4
65	65	4
172	235	1
31	32	2
126	126	6
236	236	6
171	171	9
143	143	8
208	209	5
55	55	13
8	8	9
168	168	7
42	44	2
130	130	8
115	115	9
98	143	3
79	80	4
200	201	2
33	33	14
103	103	7
204	206	3
50	50	6
120	161	7
189	189	10
172	172	15
230	232	5
142	143	1
180	181	1
17	17	4
73	233	1
24	24	6
168	178	1
178	198	3
199	200	10
137	219	2
180	180	4
12	13	5
153	153	11
196	196	5
38	70	1
171	216	3
61	61	17
70	237	1
175	181	3
38	39	2
120	120	11
52	52	5
33	35	3
68	68	15
171	237	1
195	196	7
71	98	1
148	149	1
101	106	1
104	104	4
123	124	1
134	162	1
205	205	7
70	70	8
40	48	1
148	148	6
99	99	14
9	9	3
210	210	6
185	185	4
15	51	1
232	232	6
220	220	8
98	216	1
40	40	14
144	145	4
98	192	2
66	122	6
75	75	7
221	222	2
3	171	4
21	31	2
138	139	9
36	137	2
114	116	1
212	212	6
158	176	2
218	222	1
227	227	9
83	84	2
166	166	8
35	35	7
78	78	12
197	197	14
214	214	12
125	125	4
0	17	1
65	66	3
16	16	9
107	107	16
129	161	3
31	31	6
194	194	9
195	195	6
27	27	7
57	57	12
143	188	3
28	28	12
193	194	6
48	48	11
176	176	14
20	21	1
72	147	2
22	22	11
131	131	9
37	73	2
140	142	4
106	106	5
109	218	1
133	133	9
47	47	8
115	116	7
7	8	6
19	23	3
4	4	7
222	222	4
13	13	2
79	79	6
169	169	7
213	213	10
27	30	2
42	126	2
132	132	2
103	108	4
133	200	1
195	197	4
85	85	16
28	69	2
209	209	4
149	149	6
179	179	9
228	230	5
203	214	6
111	112	2
159	199	2
216	216	11
225	225	6
68	69	2
95	99	1
72	72	5
171	215	2
141	141	6
91	91	2
14	15	4
165	228	1
163	163	5
220	222	2
1	2	2
77	78	3
67	67	13
52	53	2
54	55	2
130	198	4
170	170	8
80	81	2
121	242	1
26	190	1
222	223	1
145	219	2
9	241	2
21	59	3
218	218	6
86	86	4
15	109	5
44	64	4
11	11	13
177	178	1
192	192	7
202	238	2
134	199	1
65	70	1
39	57	4
9	39	3
149	242	2
161	161	5
241	241	4
5	49	2
18	18	8
150	150	6
202	241	1
10	113	2
224	224	9
102	102	9
80	89	2
17	21	1
89	98	1
2	3	3
207	207	11
155	158	2
47	54	2
196	226	3
209	210	1
133	134	1
187	188	2
7	113	3
8	25	2
41	41	3
156	157	2
76	78	2
18	184	1
184	189	4
204	204	1
167	179	1
39	42	3
37	37	8
231	231	4
18	50	1
3	112	3
161	162	1
228	228	4
3	177	2
70	110	1
60	60	5
59	98	2
220	221	1
98	98	3
139	141	1
77	79	4
163	217	2
53	53	4
214	215	2
78	80	4
66	84	1
229	238	5
34	53	1
124	124	9
144	144	3
189	226	2
181	182	4
20	208	4
158	159	1
151	151	5
201	230	3
137	138	3
117	214	3
55	74	2
114	114	3
236	237	7
118	210	4
162	162	5
211	212	1
6	6	5
68	83	1
95	162	2
177	177	1
4	221	4
82	84	1
111	153	1
81	83	5
96	160	3
167	211	3
57	80	1
69	69	6
162	187	1
99	100	2
11	15	5
7	9	3
18	22	1
234	234	6
185	205	2
102	165	1
152	153	1
224	225	2
77	83	2
217	218	3
144	146	2
160	211	1
113	175	2
139	175	2
24	25	4
58	58	8
178	178	7
167	167	3
47	48	6
140	175	2
3	12	3
74	191	2
3	176	2
61	62	3
0	0	11
103	104	4
70	71	3
89	101	1
116	117	1
4	34	1
122	124	1
3	4	4
29	31	6
81	81	7
88	100	1
192	193	2
34	58	1
159	210	2
202	203	2
52	73	1
97	97	6
215	215	2
181	181	6
5	13	2
229	229	2
193	193	3
17	31	3
22	24	4
27	38	2
32	33	5
109	191	1
71	72	7
4	5	13
4	35	1
170	181	3
77	77	5
71	71	9
17	64	1
49	49	5
3	11	1
34	34	8
65	67	1
6	16	3
59	60	7
33	37	2
46	46	4
151	152	4
216	217	2
5	50	1
102	171	2
128	128	3
161	202	2
127	127	1
30	30	8
12	113	2
194	196	2
3	60	1
92	99	1
1	1	7
133	196	2
213	214	1
33	56	1
206	206	4
182	182	13
108	108	3
232	233	2
199	199	8
0	123	2
7	38	4
173	175	2
140	141	2
30	31	5
130	157	4
2	179	1
113	117	2
70	98	2
8	203	1
3	77	1
99	159	3
5	34	2
214	224	2
102	134	1
46	47	2
122	196	2
225	230	2
114	175	2
19	41	2
140	162	1
21	22	4
97	233	1
239	240	3
129	129	2
27	36	5
112	113	1
163	167	3
186	199	2
34	36	2
107	115	2
239	239	6
3	3	13
154	197	1
7	16	2
49	58	3
60	137	1
71	160	3
43	44	1
26	70	3
135	136	1
13	14	1
113	128	2
84	179	1
44	44	3
223	224	1
5	5	5
44	45	1
33	49	2
6	11	2
23	41	2
117	118	3
30	66	1
8	33	1
32	32	2
71	85	3
38	42	1
146	148	2
51	51	4
154	154	3
0	3	1
102	141	2
67	128	4
234	236	3
30	32	1
123	123	2
17	63	2
176	178	1
171	172	5
96	174	1
118	119	1
56	71	1
67	68	3
201	208	2
53	55	2
69	148	3
27	28	4
50	121	1
144	185	1
233	234	2
12	16	1
19	194	2
146	146	3
4	6	2
16	69	1
117	119	1
14	32	1
103	123	1
186	187	6
193	225	3
119	124	1
106	108	1
9	10	2
15	31	1
145	191	2
50	51	1
1	17	1
57	58	4
56	60	2
79	82	3
182	183	4
115	129	1
27	74	1
110	110	1
159	212	2
108	140	1
80	83	2
13	32	1
120	217	1
74	75	2
201	201	1
14	115	3
161	203	2
184	184	4
28	86	3
45	46	2
167	168	1
23	34	2
1	3	2
231	233	2
36	36	1
96	96	2
16	35	3
165	209	1
42	46	1
33	40	1
226	228	1
158	187	2
64	68	2
187	198	4
130	133	2
7	20	3
184	185	3
37	39	2
50	148	3
4	124	2
226	227	2
8	12	1
167	169	2
8	9	1
219	226	1
80	99	1
139	162	2
150	188	1
149	150	2
136	190	1
103	116	2
22	23	1
86	158	1
129	144	1
8	31	1
69	151	1
217	226	2
100	100	1
55	62	3
72	73	2
37	81	1
99	126	1
50	95	3
124	126	2
152	152	1
135	135	4
21	23	1
4	70	1
206	226	3
39	147	2
142	208	1
228	229	2
145	146	2
10	11	1
203	225	3
167	200	1
97	99	1
194	195	1
125	126	1
3	34	2
186	188	1
42	43	1
113	206	1
70	181	1
36	37	3
10	10	3
130	136	1
66	113	3
115	117	2
12	33	1
69	235	1
85	86	1
32	56	2
210	211	1
117	117	2
77	99	1
105	197	1
167	203	1
17	178	1
0	1	1
15	52	1
34	48	2
206	207	1
60	81	1
103	105	1
66	160	1
118	153	1
25	65	1
80	82	1
210	212	1
111	111	2
190	191	1
139	139	1
58	137	4
119	153	2
15	17	1
146	189	1
17	18	1
44	53	1
68	170	1
75	147	1
79	83	1
119	121	1
15	24	1
192	197	2
37	70	1
55	70	1
63	86	1
169	178	1
114	129	1
6	15	1
183	240	1
122	122	1
76	180	1
178	201	1
134	135	1
82	83	2
162	186	2
129	131	2
57	87	1
120	152	2
3	32	1
134	160	1
84	99	2
140	140	2
153	154	1
179	180	3
29	65	3
154	162	1
185	186	1
25	44	1
142	188	1
175	178	1
146	160	2
186	186	1
60	188	1
10	26	1
50	52	1
22	66	1
114	166	1
66	68	1
105	115	1
164	174	1
203	204	1
49	66	1
113	113	1
31	83	1
47	64	2
237	238	1
105	106	1
31	51	1
202	212	1
157	158	1
2	6	1
207	228	1
2	7	1
127	178	1
212	213	1
102	103	1
9	101	1
227	238	1
32	37	1
49	50	2
193	226	1
177	187	1
22	57	1
24	53	1
25	66	1
215	225	1
95	211	1
164	176	1
66	67	1
41	49	1
145	145	1
64	75	1
229	230	1
115	169	2
14	16	1
56	159	1
235	236	1
61	183	1
192	225	1
219	230	1
120	122	1
120	144	1
170	186	1
15	16	1
123	125	1
65	122	1
20	60	1
100	106	1
114	115	1
130	152	1
