61	61	9
89	98	1
77	77	25
33	34	5
60	65	6
82	82	13
90	129	3
154	155	5
111	112	4
59	91	3
9	29	3
124	124	3
90	130	2
79	91	3
2	24	2
62	63	9
152	152	18
115	115	14
146	146	5
141	141	16
12	79	4
44	44	7
129	183	2
79	80	4
15	15	11
105	105	7
85	85	1
88	139	1
21	21	7
58	58	7
77	93	3
91	91	8
31	32	4
125	125	3
46	67	1
103	125	2
140	140	20
176	177	2
156	156	6
6	7	3
161	161	3
153	153	2
8	46	3
21	22	5
126	175	5
16	16	12
184	184	11
75	75	12
46	46	4
103	103	4
29	35	4
9	9	3
17	17	7
67	67	3
127	139	7
46	157	3
132	132	4
59	59	3
74	74	9
32	32	12
42	42	3
76	76	7
20	31	1
163	164	4
3	6	5
73	75	1
97	97	15
66	67	14
144	145	3
68	68	7
143	144	4
98	98	7
47	160	5
133	136	3
162	162	3
89	149	1
82	83	6
48	48	4
88	88	3
118	118	8
96	126	8
89	90	4
18	21	3
160	162	1
92	92	9
0	5	8
88	154	4
71	75	3
8	10	3
159	159	6
164	164	7
30	30	19
101	101	7
174	175	3
130	131	3
138	139	6
76	79	2
63	65	4
175	175	5
155	155	7
32	33	3
55	55	14
81	81	21
66	66	2
177	177	1
107	107	8
116	116	1
142	142	6
72	73	5
130	130	9
117	117	4
17	20	1
60	104	5
96	123	4
65	115	2
110	113	6
106	106	8
56	56	13
137	137	11
102	175	4
87	87	4
157	176	3
24	56	2
150	160	2
159	180	3
18	19	3
37	37	9
99	99	6
49	49	4
158	158	5
143	143	10
104	104	11
94	94	3
78	79	3
65	124	4
153	154	2
26	27	3
57	99	5
98	126	3
40	40	3
149	149	13
114	114	2
138	138	11
178	179	4
121	122	7
23	24	2
145	145	7
14	14	3
41	41	1
4	6	4
165	165	6
73	82	7
13	14	2
104	114	6
20	20	5
43	43	10
107	136	9
92	105	2
64	64	6
10	10	10
157	158	6
46	175	2
163	163	6
113	113	9
83	83	1
31	47	1
96	96	3
4	4	8
168	169	1
54	54	5
4	5	5
35	41	1
36	36	8
79	85	4
21	30	5
86	86	4
179	179	7
6	6	8
31	31	3
34	34	5
104	105	2
45	45	1
133	134	1
147	147	5
186	188	4
57	62	2
70	70	7
93	94	10
102	102	12
110	111	1
25	25	2
1	1	8
12	12	3
79	79	7
161	162	2
108	108	6
62	62	2
90	90	12
88	89	11
61	103	3
95	95	3
73	73	6
142	143	8
127	127	4
22	22	2
93	93	5
9	10	1
11	140	1
45	115	2
88	152	2
123	128	1
124	140	4
30	41	4
78	78	3
167	167	1
35	35	2
89	89	3
189	189	3
75	76	2
121	121	3
8	8	6
92	93	2
139	139	3
53	53	3
64	65	7
110	110	2
133	183	5
101	126	5
154	154	4
104	113	4
5	6	8
170	170	2
148	148	4
185	185	4
71	71	3
56	57	1
119	119	6
157	157	6
12	13	3
55	89	6
151	152	2
84	84	1
109	109	7
47	48	4
76	85	1
38	49	2
75	78	2
60	112	3
26	26	5
136	136	5
44	114	4
76	77	4
125	141	5
174	174	4
172	172	6
146	147	4
2	2	6
187	187	3
43	110	1
81	82	3
173	173	1
151	151	6
5	5	2
123	123	8
103	114	2
58	64	3
7	7	5
53	54	2
32	37	1
130	179	4
113	118	3
57	61	3
61	62	1
60	111	2
122	139	1
45	46	2
24	38	3
87	108	2
55	56	4
46	150	1
105	106	1
120	120	1
96	97	1
122	181	2
136	137	2
11	12	2
155	156	4
109	110	4
4	10	4
146	155	1
27	27	1
99	100	1
122	125	1
19	20	1
38	38	4
126	130	1
7	40	1
157	175	1
30	35	2
46	162	1
48	83	2
100	127	2
186	186	2
100	100	1
168	168	1
148	173	3
8	13	2
13	13	7
15	20	2
100	142	3
17	23	2
6	8	1
73	83	2
62	64	1
171	172	1
106	133	2
15	27	7
89	152	2
60	60	3
3	3	5
146	154	3
59	60	2
57	106	1
92	94	1
127	128	1
162	163	5
129	129	4
42	56	2
0	0	4
144	144	1
83	157	1
131	131	1
28	29	2
93	118	3
78	102	1
44	94	3
134	134	1
53	108	2
89	134	1
122	133	1
78	90	1
35	36	2
110	122	2
65	111	1
17	18	5
149	150	2
0	4	1
54	55	6
69	70	1
37	38	2
57	87	1
123	140	1
122	131	2
133	133	1
19	19	3
126	126	2
91	106	1
107	108	1
182	182	1
91	120	1
160	160	1
97	126	2
92	104	2
169	169	1
182	183	3
30	36	3
4	54	1
152	153	3
26	55	2
15	37	1
95	135	1
39	39	5
144	154	4
162	170	1
116	156	1
68	79	1
1	33	1
18	52	3
93	103	2
130	132	1
63	114	1
26	65	2
139	184	1
93	114	3
190	190	1
109	175	1
23	23	3
178	178	2
148	150	1
29	29	1
61	111	1
115	123	1
127	141	1
26	37	1
66	80	2
150	150	1
89	100	1
112	112	2
65	66	1
24	24	1
11	11	1
129	132	1
87	88	1
68	167	1
132	183	1
52	52	1
76	94	1
87	99	1
134	138	1
27	31	1
65	65	1
149	162	1
134	137	1
39	56	1
80	80	1
