22	22	2
35	35	7
65	65	6
100	100	8
32	100	1
32	33	1
110	110	13
47	47	5
58	78	3
11	11	14
44	76	1
109	109	4
37	94	4
27	29	1
80	80	9
29	30	2
27	27	3
2	97	5
77	77	3
66	66	4
44	44	6
45	63	1
56	128	2
18	19	2
50	50	2
3	3	5
90	91	1
45	45	4
59	59	2
91	93	4
76	76	2
115	115	8
124	124	1
45	110	1
61	102	3
117	134	1
29	96	2
4	4	6
91	91	2
37	133	2
10	10	4
93	96	2
18	18	4
78	97	4
23	82	1
39	91	1
5	5	2
88	88	1
117	117	3
19	19	9
61	61	3
36	90	1
7	7	3
26	27	4
56	56	2
95	95	3
64	64	2
8	8	4
90	92	1
43	43	2
88	132	2
62	62	8
67	67	2
2	2	5
83	83	7
129	129	3
31	31	1
51	56	2
132	133	2
85	85	6
26	29	2
123	126	1
25	26	2
15	16	1
93	97	1
6	59	3
77	78	3
58	58	1
6	36	1
29	29	4
66	93	2
57	60	6
27	63	5
87	88	1
127	127	5
26	66	3
60	112	1
84	84	2
40	41	3
47	105	1
90	90	3
31	32	1
14	14	2
21	43	1
79	79	5
63	63	3
93	93	2
100	101	1
86	86	2
120	120	3
130	130	4
99	100	1
132	132	6
12	12	2
82	82	2
25	47	1
96	96	1
4	95	1
114	114	3
47	48	1
46	46	1
21	80	3
108	108	2
45	46	1
95	97	3
17	19	4
45	76	1
67	68	1
36	40	3
60	60	5
101	101	1
133	133	3
49	49	1
128	128	3
32	32	1
111	111	2
74	74	1
59	113	1
104	105	1
20	57	2
71	71	4
5	90	1
92	102	1
48	97	1
8	94	1
48	48	2
27	47	2
72	72	1
58	105	1
107	107	1
59	87	1
82	94	3
99	99	1
28	80	1
81	82	1
27	28	1
83	84	1
75	75	1
24	24	1
20	62	1
101	102	1
44	122	3
34	34	2
89	89	2
39	40	1
3	46	3
20	63	2
57	57	1
10	14	3
34	35	2
73	73	1
66	67	2
66	84	1
92	92	2
34	100	1
6	8	1
37	43	1
115	116	1
39	41	1
119	119	2
11	59	1
37	37	3
76	77	1
115	131	1
5	96	1
105	105	2
123	123	1
33	33	1
88	129	1
88	89	1
30	30	1
21	22	1
102	102	2
78	78	2
74	75	1
87	87	1
65	93	1
36	36	2
11	12	1
112	112	1
23	27	1
10	47	1
97	97	2
57	101	1
58	79	2
134	134	1
41	43	2
112	113	1
71	72	1
86	87	1
126	131	1
121	121	1
40	130	1
56	88	1
130	132	1
23	74	1
35	36	1
43	96	1
38	38	1
40	42	1
21	21	1
12	33	2
20	60	1
106	106	1
114	126	1
45	62	1
81	92	1
81	81	1
56	132	1
15	58	1
17	17	1
