12	12	15
71	71	21
94	94	18
104	104	46
93	94	12
88	90	16
122	122	12
68	68	9
116	117	6
90	90	32
105	105	39
127	127	17
46	46	5
33	129	7
64	64	25
88	89	3
123	128	3
24	24	20
77	77	22
27	27	9
6	6	13
0	1	3
73	89	1
117	117	8
75	76	13
123	123	10
11	11	18
108	108	9
79	107	2
85	96	6
110	110	14
86	87	7
69	79	2
86	86	7
30	30	12
84	84	16
116	120	2
90	91	7
121	121	29
57	59	9
98	98	20
107	108	24
66	69	6
99	99	46
92	92	14
57	58	2
105	106	5
91	91	21
61	61	3
97	97	13
91	92	15
103	104	14
73	73	39
135	135	11
108	110	6
127	128	17
111	114	11
103	103	34
1	4	2
106	106	20
95	95	16
71	72	13
101	101	30
28	28	21
134	134	23
127	130	2
113	113	7
69	69	18
65	68	6
75	75	30
24	25	11
4	4	6
70	121	3
65	67	3
0	18	4
19	19	3
42	44	9
133	134	8
132	132	6
125	125	20
80	99	4
105	124	4
62	62	6
98	99	2
88	88	26
89	89	18
9	10	2
49	50	8
108	109	12
44	45	7
102	102	22
60	60	10
120	120	32
54	59	6
120	123	2
65	65	14
109	111	7
85	85	23
130	130	18
71	93	5
107	107	17
123	124	8
83	83	26
27	28	5
76	76	26
126	126	14
74	74	30
83	84	15
36	36	12
24	52	2
111	113	3
112	113	5
128	129	10
73	74	12
71	94	6
116	116	22
43	43	11
10	11	6
72	72	14
72	73	6
50	50	1
55	56	5
70	71	10
119	119	31
67	67	6
109	109	6
115	115	16
36	128	3
26	30	5
31	31	18
100	100	29
95	96	10
112	112	31
47	47	6
87	87	7
44	44	6
1	1	13
70	98	2
32	33	11
93	93	24
79	80	25
14	14	6
57	57	5
111	111	20
120	121	9
54	55	18
108	117	4
106	107	8
115	117	3
23	24	5
129	129	7
110	114	1
48	48	7
65	69	3
18	18	4
34	53	7
78	79	4
79	79	21
49	49	9
22	22	5
82	83	4
6	9	3
63	63	15
80	80	23
4	5	4
56	56	3
85	86	5
70	70	21
118	118	19
0	0	8
98	126	3
78	78	6
71	103	6
99	118	3
48	54	6
131	131	4
87	109	3
35	35	6
33	36	1
114	114	12
108	111	2
122	123	5
121	124	1
8	8	4
29	29	6
83	86	4
101	102	22
21	21	8
118	121	3
90	104	2
73	79	3
33	33	19
92	93	12
13	13	3
23	23	6
2	2	17
56	59	1
128	128	10
98	124	2
69	90	3
54	60	3
28	29	4
2	3	4
5	6	4
29	88	7
66	68	4
64	65	6
3	3	6
54	54	8
124	124	17
101	107	1
77	78	10
3	4	3
60	61	2
18	19	5
119	121	2
102	103	9
124	127	2
82	86	2
101	103	2
37	37	8
80	86	1
17	19	1
81	81	5
19	20	3
94	127	4
96	96	9
72	75	2
2	93	3
53	59	2
51	53	4
87	96	3
115	116	3
88	129	5
98	127	4
9	9	2
25	25	14
21	22	4
34	71	2
126	127	3
58	58	13
117	118	3
36	37	2
3	6	3
112	115	3
55	55	10
47	54	4
81	85	2
89	90	16
100	122	1
105	123	3
84	87	3
121	122	10
62	63	3
63	65	1
109	110	10
16	17	5
59	59	6
14	18	4
97	125	1
111	112	9
10	17	1
87	88	3
69	70	7
59	60	10
26	61	2
50	52	2
98	119	1
105	109	2
55	57	5
54	76	6
107	109	3
82	84	5
104	105	11
70	93	6
32	32	11
7	8	3
55	63	2
84	85	10
6	7	2
68	93	3
108	119	1
10	10	3
53	53	5
130	131	3
67	68	6
125	126	5
25	26	3
124	128	2
80	89	3
96	98	4
13	18	2
111	115	2
88	132	1
124	125	3
100	101	4
73	102	2
37	87	1
53	56	3
50	53	3
22	23	4
19	28	3
60	62	1
29	30	10
69	72	3
126	129	2
126	133	1
100	121	4
33	34	3
88	103	1
56	67	2
76	80	4
82	82	3
98	117	1
87	95	1
81	83	2
113	114	5
91	111	1
20	20	10
116	118	3
72	102	1
26	26	6
114	115	3
106	108	3
15	15	3
38	43	1
45	45	3
52	52	4
37	38	2
118	119	4
54	77	1
9	11	5
87	130	2
31	34	1
133	133	9
104	108	2
7	20	1
98	115	4
54	75	1
80	81	3
104	120	6
74	101	1
11	12	4
64	68	1
52	55	3
66	67	2
69	108	1
98	130	1
36	129	2
5	5	8
35	36	1
34	35	1
15	18	2
112	114	1
134	135	4
99	100	5
96	97	3
132	133	2
58	60	1
51	60	2
129	130	2
31	33	1
110	111	3
47	50	1
8	9	1
29	59	1
26	27	1
101	119	2
66	66	1
18	20	1
20	21	4
70	79	1
0	2	1
99	106	2
54	56	2
55	60	1
49	59	1
78	82	2
19	27	4
118	122	1
86	88	3
77	80	2
1	2	2
100	129	4
74	75	1
19	24	3
43	45	1
85	116	2
73	75	3
38	45	1
12	13	1
11	16	1
81	88	4
99	120	1
16	20	3
33	52	2
63	78	1
122	126	1
77	79	1
94	95	2
11	15	2
72	103	4
76	90	1
61	62	1
87	132	1
97	122	1
7	7	4
104	127	2
34	34	3
49	53	1
119	120	2
88	131	1
45	51	2
33	37	1
48	49	1
51	76	1
24	55	1
34	37	2
15	17	1
13	14	1
121	123	1
68	69	2
12	14	1
62	64	1
70	94	1
42	45	1
113	115	1
