135	135	19
110	110	18
117	117	18
9	10	4
76	87	3
103	118	9
98	98	12
120	122	9
89	92	1
103	103	14
115	115	13
37	98	3
3	138	1
104	125	1
9	9	9
71	72	8
73	73	19
133	133	19
108	108	18
22	98	2
10	20	3
112	112	17
106	106	11
91	91	12
108	112	5
131	136	3
96	96	13
116	116	15
125	125	23
140	140	9
100	100	17
22	36	2
123	123	32
129	129	37
86	96	2
131	131	19
16	16	14
76	78	1
86	88	4
136	136	23
8	8	6
21	21	8
6	9	8
90	91	6
130	130	35
120	138	1
120	120	20
80	80	16
82	85	7
77	77	6
124	124	21
106	109	4
122	122	16
27	27	11
12	12	12
74	74	16
13	14	1
90	92	3
18	18	9
101	101	20
81	85	2
139	139	20
89	89	32
130	132	2
10	12	6
21	37	3
124	125	6
119	119	10
130	131	4
30	30	14
35	35	8
134	134	22
8	9	9
114	114	16
20	36	2
94	94	15
107	110	3
71	71	13
72	72	8
87	87	9
99	99	16
19	20	1
91	92	1
3	3	9
109	109	20
11	27	6
119	120	2
4	4	11
118	121	2
7	7	6
22	22	6
112	119	3
10	24	1
114	116	1
11	11	10
137	137	14
1	8	1
77	104	1
1	1	18
75	75	13
126	137	6
74	75	1
83	83	4
136	138	2
81	81	18
94	98	2
104	104	14
28	28	5
101	102	4
128	128	11
34	34	32
101	112	2
88	88	11
127	129	4
20	20	5
102	102	10
35	37	2
107	108	6
79	79	10
132	132	26
37	37	7
103	122	7
128	129	9
76	76	3
24	24	6
36	36	4
79	83	3
118	118	13
119	138	5
5	5	6
127	127	22
132	139	2
93	94	8
99	103	5
106	117	6
93	109	3
105	106	3
126	126	7
82	82	14
94	99	3
30	31	4
138	138	16
91	94	4
123	124	2
101	126	1
83	84	9
138	139	5
134	138	1
1	7	4
104	107	2
20	21	3
16	20	2
2	3	2
2	2	10
81	93	4
118	119	1
68	115	1
121	122	9
115	116	4
105	105	11
97	98	6
7	36	1
81	94	1
26	99	1
107	107	9
78	78	14
13	13	6
90	128	2
110	111	1
1	11	1
101	123	1
121	121	6
5	37	2
28	32	3
116	124	3
23	26	1
2	30	4
109	118	1
7	9	4
126	127	7
16	18	1
108	115	1
103	107	1
84	90	3
97	100	7
122	123	5
72	80	4
105	119	2
25	25	10
31	31	3
18	20	3
4	5	1
118	126	1
17	18	2
136	137	7
95	98	2
117	118	4
19	76	2
92	92	5
32	137	1
27	30	4
38	38	4
1	2	4
111	111	11
19	19	8
113	113	7
71	73	2
76	101	1
91	99	1
100	110	5
129	130	8
35	36	4
77	78	3
97	97	8
118	120	2
95	95	11
115	138	1
113	114	3
5	128	4
86	86	8
78	79	1
90	116	1
92	93	3
38	101	1
7	12	2
0	1	3
111	116	1
88	107	4
125	126	3
87	88	4
24	26	1
73	82	2
130	133	1
90	90	4
80	110	3
114	115	5
102	103	3
125	129	1
116	132	5
121	123	4
14	14	3
89	136	1
70	71	3
77	79	1
72	109	1
27	38	2
99	100	4
12	19	1
93	93	6
123	138	2
0	22	1
9	12	3
112	131	3
2	6	2
82	84	2
76	77	5
89	90	1
88	89	3
117	119	1
75	78	1
134	140	2
114	131	2
104	118	4
82	83	1
102	112	2
120	121	3
15	16	3
81	82	4
127	128	6
72	140	2
33	33	4
117	124	2
136	140	1
11	18	1
80	111	5
29	29	5
77	105	2
95	135	3
89	112	1
84	85	3
5	71	1
101	108	1
139	140	1
7	25	1
6	19	1
76	79	2
88	109	1
16	17	5
129	134	1
73	74	4
83	85	7
12	13	1
103	134	3
75	125	2
80	87	1
108	119	1
26	26	4
25	26	3
82	94	1
129	137	3
109	124	1
84	84	3
117	120	3
80	103	1
72	73	4
23	24	1
95	112	2
30	38	1
10	11	1
10	10	1
103	106	1
85	85	2
12	22	3
10	19	1
100	131	1
9	19	3
106	107	2
94	96	1
74	76	2
132	134	1
103	119	1
103	104	1
95	96	4
75	100	1
97	99	1
9	13	1
6	6	2
104	105	2
128	140	3
0	19	1
12	15	4
25	36	2
95	110	1
132	138	1
120	123	1
122	124	2
79	80	2
104	122	3
27	28	1
72	81	2
18	21	1
12	14	1
124	136	2
81	87	3
3	4	1
133	134	1
7	14	2
137	138	1
23	23	1
91	138	1
127	131	1
75	76	1
88	95	1
0	38	1
67	83	1
108	120	3
21	22	1
7	13	1
130	138	3
19	21	1
92	94	2
74	107	1
125	138	1
86	91	1
28	29	1
91	128	1
104	121	1
111	112	1
97	111	1
108	109	1
85	87	4
135	138	1
72	122	1
99	115	1
78	122	1
98	99	1
