103	103	4
61	62	1
27	27	6
27	28	4
186	186	1
179	183	3
81	81	3
66	68	9
24	24	5
134	134	6
78	78	2
45	45	6
92	92	12
77	77	12
1	2	2
106	107	4
96	96	5
10	10	3
104	104	2
63	64	5
86	86	7
48	48	10
44	44	4
127	127	4
175	176	1
188	188	5
163	163	6
117	117	3
156	163	2
90	90	3
30	30	8
178	180	1
12	12	3
160	160	2
115	115	2
80	147	3
155	155	4
40	40	7
157	158	2
137	178	1
130	130	6
149	149	3
131	133	3
57	78	5
140	140	2
155	156	3
17	17	3
113	113	4
84	85	4
106	106	1
168	168	4
56	57	2
145	146	6
145	145	6
182	182	4
17	183	2
4	4	7
157	157	6
17	18	9
184	184	5
97	98	4
122	123	3
80	81	1
109	116	1
154	154	14
101	101	4
17	190	2
167	167	2
75	75	1
181	181	4
115	116	3
19	29	2
109	187	3
123	175	3
109	109	1
95	96	2
183	183	11
93	93	3
76	76	1
153	154	2
113	180	3
136	137	1
116	116	3
21	22	5
22	22	6
77	80	2
179	180	1
57	58	4
67	67	3
129	134	1
138	138	3
180	182	4
91	91	9
94	94	2
146	147	4
150	151	5
162	162	4
23	23	3
64	157	1
129	129	3
89	90	1
135	135	7
25	26	4
158	162	2
68	79	2
128	129	1
35	36	4
108	108	2
36	37	7
35	35	4
55	55	4
126	173	3
117	179	6
25	105	3
132	133	2
82	101	2
60	60	3
175	175	3
21	21	6
13	15	5
112	112	6
46	58	1
2	2	3
43	43	1
102	102	3
144	167	2
189	189	8
176	177	4
130	131	3
45	47	1
71	72	2
89	89	1
64	64	6
180	180	3
86	88	2
79	79	2
60	61	2
165	165	2
129	143	3
125	173	1
46	76	2
13	13	11
16	26	2
137	138	2
139	161	4
152	152	5
0	46	2
88	88	4
28	28	1
123	123	4
125	125	3
125	126	1
168	169	1
36	36	6
151	151	6
161	161	5
98	122	2
143	148	2
148	148	3
31	31	3
114	114	2
14	186	1
105	105	2
93	95	1
71	71	1
29	30	2
153	153	2
86	87	4
117	118	4
156	156	10
48	174	2
183	188	2
169	169	4
187	188	1
108	109	1
22	24	1
69	121	2
41	41	2
122	125	3
120	120	13
83	97	1
23	179	1
137	137	10
76	89	1
185	185	5
185	186	4
131	132	3
45	82	2
153	170	1
177	177	4
29	35	1
171	172	2
107	109	1
143	143	6
101	106	1
41	57	2
156	158	2
147	147	4
156	157	2
171	171	2
37	38	3
42	43	1
33	33	2
110	185	2
87	87	2
16	16	8
141	141	2
102	103	3
128	153	1
79	80	1
76	83	1
146	146	7
0	0	1
12	26	1
24	25	3
119	180	3
113	182	2
114	130	5
34	36	4
166	166	1
76	101	2
73	171	2
83	122	1
92	114	1
139	139	1
15	15	1
11	44	1
26	26	2
169	170	3
16	17	1
166	174	1
128	128	5
77	81	2
19	19	1
59	59	3
18	19	4
69	69	1
124	124	1
164	165	2
159	159	2
20	21	1
54	54	2
1	3	4
66	66	4
154	155	2
20	188	1
5	5	1
53	53	1
157	163	1
157	164	1
115	130	1
187	187	3
105	108	2
18	18	5
141	145	1
73	73	1
17	39	3
61	61	1
80	121	2
137	181	1
122	143	1
14	14	4
37	37	1
46	46	2
161	172	3
154	176	3
72	168	2
94	98	2
142	142	5
100	100	2
118	179	4
35	40	2
134	180	2
74	100	3
181	183	1
41	42	2
42	42	1
69	70	1
57	61	1
78	79	1
61	63	1
46	64	2
85	95	1
106	110	2
81	149	2
72	72	3
14	185	2
118	118	2
126	126	1
75	76	1
57	57	3
38	39	1
58	63	1
172	173	1
30	185	1
95	126	1
136	136	2
9	10	1
152	153	2
62	62	1
126	141	1
29	37	1
134	135	2
28	31	3
91	183	3
131	131	2
103	154	1
53	58	1
59	65	1
157	161	1
189	190	1
138	177	1
116	119	1
169	174	2
118	182	1
80	80	2
28	29	2
23	24	1
107	110	1
129	169	1
98	99	1
19	20	3
172	172	1
150	150	2
111	111	2
27	78	1
4	5	3
107	107	1
173	173	1
177	178	1
0	58	1
130	132	1
11	13	2
22	23	2
164	164	1
82	82	2
46	47	1
85	85	2
47	47	2
119	120	1
25	123	1
155	174	2
15	16	1
32	32	1
122	122	1
27	81	2
130	141	1
98	119	1
134	139	2
54	56	1
167	168	1
58	58	1
155	171	1
46	60	1
40	41	1
3	6	1
8	8	1
174	174	1
127	129	1
