9	10	4
26	26	16
25	25	12
28	29	1
3	67	2
69	69	18
48	49	9
70	70	16
73	73	7
4	4	14
27	27	24
75	84	2
17	20	4
46	51	1
30	30	13
23	23	20
75	75	32
15	17	4
64	71	1
59	59	4
78	78	10
88	88	13
19	19	14
7	7	17
66	66	27
25	50	3
1	1	8
84	84	10
20	21	7
54	54	19
86	86	15
47	47	9
22	22	5
66	83	5
51	54	5
53	80	4
85	85	17
77	77	18
79	84	3
6	7	3
17	19	8
62	62	8
51	51	13
2	2	9
74	74	33
80	80	17
11	13	1
76	77	6
85	87	3
53	53	8
16	16	4
8	9	2
52	55	9
62	65	1
5	5	16
12	13	5
48	48	14
81	81	22
23	24	6
67	69	2
89	89	14
52	52	12
51	52	4
21	21	6
28	28	15
71	71	16
2	3	9
84	89	6
59	62	2
79	79	5
24	24	20
67	67	27
10	10	9
82	83	7
88	89	3
55	58	6
11	11	13
53	54	2
6	6	6
87	88	9
73	74	4
17	82	3
10	30	2
14	14	17
51	62	5
1	2	3
9	27	4
7	8	4
81	85	1
72	80	2
63	65	6
17	17	7
57	57	28
55	55	22
60	60	5
17	18	4
65	66	4
78	80	8
68	68	15
50	51	4
83	83	8
86	87	10
90	90	5
58	58	16
20	20	10
11	12	5
29	29	8
26	27	3
9	9	4
80	81	5
76	78	3
0	0	13
47	48	1
50	52	1
17	83	1
31	31	11
68	72	3
16	17	3
85	86	11
87	87	13
26	51	2
3	4	2
57	75	2
83	87	1
4	5	5
29	30	9
60	61	4
79	83	2
11	14	1
62	66	2
63	63	5
81	82	10
64	66	3
61	62	6
50	50	2
56	58	3
79	80	5
56	57	6
30	31	1
27	28	10
18	19	2
12	12	6
49	49	3
76	83	3
15	74	1
58	62	3
6	17	2
3	74	1
56	56	10
21	22	2
74	81	2
61	61	9
52	78	3
76	76	2
75	81	4
77	80	2
72	72	10
75	83	2
63	64	4
10	11	1
18	18	1
78	79	3
77	78	12
8	25	2
57	72	2
59	66	1
8	8	4
3	3	12
27	31	1
13	13	6
24	27	3
72	73	9
65	65	3
4	46	1
60	65	1
10	26	2
59	60	5
54	78	2
60	64	4
10	31	1
80	83	1
17	51	2
12	15	1
5	9	2
64	65	4
57	58	3
81	83	3
89	90	4
59	61	2
58	66	2
66	67	3
3	47	1
70	74	2
25	47	1
53	75	2
76	79	2
30	70	1
68	71	3
78	81	1
67	68	1
84	86	1
67	72	2
61	64	1
17	86	3
4	27	1
62	63	2
13	14	3
15	16	3
7	25	4
19	20	1
19	83	1
28	30	1
8	10	1
82	82	2
74	75	1
1	26	1
75	76	2
14	15	1
23	28	1
54	55	2
25	26	3
22	23	2
19	82	1
5	6	1
48	50	1
68	69	1
15	15	1
67	71	1
