4	4	21
17	18	5
31	31	15
33	34	6
92	94	4
16	16	27
3	4	15
127	127	33
73	73	24
11	11	6
7	7	19
111	112	8
117	117	28
122	122	37
119	119	31
101	101	21
34	34	28
26	26	15
78	78	20
21	21	24
33	33	34
126	127	19
6	6	22
34	86	1
132	132	44
115	115	32
95	95	16
79	79	30
131	131	27
24	24	9
118	119	22
102	104	8
85	86	18
98	98	25
88	88	15
88	92	4
136	139	1
120	120	12
134	135	10
100	117	1
76	76	15
5	6	10
32	117	1
109	109	20
36	36	43
128	129	31
18	18	20
113	113	14
74	76	4
74	74	34
133	133	44
23	23	26
16	17	3
75	75	25
106	106	20
132	133	2
3	3	24
17	17	17
121	122	22
139	139	13
71	73	4
129	130	16
134	134	36
72	73	6
130	130	52
119	120	4
81	82	11
91	91	8
29	29	18
121	121	30
107	108	11
17	19	9
25	25	12
30	30	16
21	89	5
131	132	10
25	26	8
137	138	16
31	34	2
75	76	13
72	72	29
118	118	22
95	102	2
29	30	8
116	116	20
136	136	40
32	32	21
20	22	5
119	123	3
84	84	17
112	112	25
105	105	17
102	103	9
90	90	27
72	77	1
111	111	24
85	85	18
110	110	34
11	15	5
13	13	24
135	135	20
35	108	4
20	20	21
81	114	2
15	15	16
107	113	5
124	124	38
128	128	35
22	37	5
113	114	11
138	138	24
77	77	17
114	116	1
29	32	7
12	12	22
102	102	13
20	21	5
10	12	6
80	82	3
97	97	15
14	14	19
114	114	13
74	75	16
27	27	17
125	125	32
126	128	1
73	74	3
107	118	2
103	104	9
87	87	33
86	88	1
35	36	5
120	121	6
26	27	8
93	94	15
126	126	34
37	37	28
93	93	14
8	8	18
2	2	14
29	34	1
0	1	4
98	99	7
36	38	2
103	103	13
19	20	13
110	111	10
137	137	28
19	19	10
104	104	15
127	132	2
89	89	21
82	101	2
136	137	11
6	21	2
35	35	16
117	122	6
0	6	5
125	126	7
72	78	6
108	108	23
9	9	9
15	16	8
94	95	9
78	87	2
122	123	6
115	116	8
81	81	8
80	104	2
1	1	13
4	26	3
113	122	1
88	90	2
71	79	2
19	25	5
96	96	15
86	91	4
123	126	4
22	22	9
122	128	1
90	91	12
123	124	8
84	87	1
89	90	3
71	71	19
88	100	2
104	117	7
94	94	11
135	136	9
28	31	1
106	107	4
83	85	4
100	101	3
28	29	10
38	38	18
129	129	21
117	118	4
95	100	2
96	116	2
30	31	8
101	104	3
22	26	4
103	106	2
12	14	1
22	23	8
123	123	28
82	84	4
17	91	3
95	128	3
79	80	11
95	96	7
16	18	2
37	38	9
94	102	4
96	97	7
107	109	4
105	106	1
28	28	13
27	86	2
82	86	4
79	110	5
107	107	9
27	30	4
80	87	2
92	92	5
126	130	2
5	7	4
120	123	3
112	113	10
81	83	4
134	136	9
116	117	8
36	37	9
2	3	6
1	3	7
80	80	19
79	105	2
87	90	4
96	128	2
93	114	4
77	94	3
8	12	1
88	91	1
120	125	3
134	137	4
5	5	11
82	83	7
10	11	9
118	122	3
138	139	6
15	20	1
78	93	5
107	111	2
108	112	4
73	77	4
82	82	13
12	13	5
124	125	9
97	99	2
117	119	2
109	112	9
118	125	2
76	78	4
6	11	2
110	112	1
79	95	2
140	140	17
105	121	4
94	114	1
13	14	18
136	138	4
82	103	4
99	99	4
127	129	7
34	35	5
19	21	2
111	115	2
101	103	4
135	137	3
0	0	10
28	33	2
27	29	5
31	33	2
118	121	2
11	14	7
32	34	3
14	16	1
78	94	2
26	121	2
29	31	4
20	91	1
98	130	2
120	124	4
93	97	1
22	89	1
17	92	3
9	24	3
87	103	2
5	8	4
79	93	1
84	85	6
1	2	5
78	82	2
108	110	8
24	25	6
91	95	1
21	26	1
1	8	1
102	105	2
100	100	19
75	77	2
94	97	5
21	24	1
112	115	4
25	27	7
18	19	4
101	102	2
92	93	3
19	26	1
74	89	1
0	2	1
110	116	2
81	96	4
75	78	2
97	98	5
79	88	1
96	100	4
130	131	3
121	123	4
80	88	4
9	26	2
74	86	4
112	116	4
115	137	2
6	17	2
31	32	5
86	86	18
76	88	3
127	130	6
74	88	3
8	108	1
34	36	2
105	112	1
26	31	1
132	135	2
120	122	1
6	7	6
80	110	1
95	131	2
16	22	2
98	116	1
124	126	4
108	113	4
12	35	2
15	18	2
8	14	2
114	115	4
82	85	2
108	109	5
82	107	2
27	28	1
21	22	5
123	133	2
78	88	2
81	84	3
14	15	2
87	88	5
16	19	2
103	108	1
126	129	1
137	140	5
22	28	1
97	126	1
86	87	5
4	5	9
73	85	2
94	130	1
98	100	3
78	79	7
90	92	1
104	107	4
93	111	1
131	135	2
108	111	3
29	99	1
24	26	3
126	132	1
13	36	1
109	113	1
80	84	2
106	108	1
77	78	7
20	34	1
94	113	2
27	37	3
38	117	3
11	26	1
17	21	1
24	27	2
74	87	1
117	136	2
71	72	2
139	140	3
127	128	5
113	115	2
83	83	3
92	128	1
88	89	2
133	134	1
15	28	1
106	111	3
27	32	3
96	98	1
7	8	5
83	106	1
79	86	2
18	20	2
104	111	2
8	9	4
99	110	1
21	23	1
124	127	5
19	22	1
116	118	1
93	107	2
76	84	1
115	117	4
83	84	2
7	9	1
73	76	3
71	95	2
88	94	2
122	124	1
23	31	1
84	86	1
78	92	1
104	105	1
93	112	1
15	34	2
23	24	3
108	116	1
72	79	1
75	88	1
114	125	1
2	27	1
9	31	1
4	6	2
10	106	1
118	123	2
17	29	1
72	87	2
103	120	1
109	115	1
10	10	2
108	125	1
117	123	1
77	79	5
4	8	1
11	12	3
27	31	1
36	99	1
7	25	1
28	35	1
79	82	3
122	129	2
87	99	2
0	11	1
80	92	1
141	141	2
9	23	1
109	110	2
68	68	1
9	10	1
91	92	3
79	83	2
86	113	2
140	141	1
129	135	1
37	96	1
118	120	1
6	18	1
89	97	1
80	109	1
93	106	1
99	100	1
82	115	1
15	22	1
5	30	1
80	81	1
109	111	1
99	115	1
82	113	1
104	120	1
0	3	2
86	127	1
121	124	1
76	93	1
6	10	1
130	132	1
8	18	1
77	87	1
76	77	1
81	88	1
103	118	1
77	88	2
15	17	1
22	73	1
18	29	1
