61	61	3
208	213	1
209	232	1
212	212	1
7	7	8
65	67	1
4	4	4
11	26	2
184	210	2
160	160	4
62	62	4
98	98	10
44	45	1
162	162	2
70	70	3
172	172	4
150	150	4
74	75	2
123	124	6
186	187	2
176	176	4
16	16	4
14	14	6
111	234	4
100	100	4
86	87	1
135	136	2
164	164	2
18	80	2
5	6	3
44	44	1
148	148	1
67	67	8
51	53	6
214	214	9
207	207	5
26	26	6
57	58	1
184	185	2
6	6	7
36	40	1
28	28	5
97	97	5
161	161	8
228	231	3
135	135	6
40	40	1
64	64	4
41	42	3
111	144	1
6	9	1
40	41	2
216	216	5
101	103	3
51	84	6
65	65	6
58	60	3
54	54	5
3	3	4
228	229	3
73	73	17
225	225	2
97	102	1
212	213	2
8	14	1
72	72	3
134	164	2
215	216	5
19	31	2
118	118	3
200	201	2
83	83	4
162	164	3
199	214	2
225	234	2
149	149	3
159	167	2
230	230	4
22	23	5
137	139	2
30	31	2
3	5	4
136	136	3
4	5	2
46	46	3
160	161	2
99	105	2
40	83	6
95	96	2
117	117	4
177	187	1
206	206	3
31	48	4
13	81	1
125	131	1
11	11	5
163	201	3
196	196	3
7	8	3
222	222	5
186	190	1
218	219	1
232	232	8
172	173	5
104	105	1
52	53	1
116	116	3
143	145	2
12	13	6
138	139	2
39	39	5
103	104	2
167	167	13
50	50	3
102	102	2
119	119	2
58	58	4
150	151	2
199	209	2
121	121	1
101	101	6
127	127	1
182	183	2
95	107	1
14	56	1
1	22	3
133	133	2
218	218	4
217	217	5
51	51	2
18	21	3
10	10	6
78	79	3
187	187	4
8	8	5
134	173	3
24	24	4
54	103	3
49	49	6
177	177	5
206	207	3
60	60	2
185	186	5
233	233	5
32	36	2
82	83	2
171	171	3
156	157	1
33	74	3
203	203	3
128	128	1
181	182	3
226	227	2
106	106	6
9	30	1
47	47	5
150	236	1
185	210	2
127	128	1
164	165	1
221	221	3
240	240	1
0	112	2
96	105	2
11	12	3
51	83	3
56	56	6
238	239	2
204	204	2
139	141	2
164	176	5
241	241	5
33	35	1
101	120	1
83	84	6
1	222	1
169	169	2
29	48	4
7	21	2
210	210	1
175	175	6
186	186	3
229	229	1
18	18	4
95	95	2
62	85	1
235	235	3
48	51	1
144	144	2
6	7	2
59	59	2
143	143	3
197	201	2
17	23	2
31	31	2
156	156	2
141	143	1
11	33	1
105	105	5
242	242	1
39	79	1
76	77	1
27	27	5
96	104	1
71	72	2
130	140	3
53	53	3
230	231	2
186	223	1
197	226	1
3	53	3
57	81	2
84	85	1
99	103	1
148	149	1
116	117	3
85	109	1
214	215	1
29	29	3
9	9	4
211	211	2
209	209	1
96	98	1
76	76	3
59	60	2
195	195	4
122	122	3
5	7	1
2	2	2
99	99	2
21	21	2
192	211	3
155	155	4
34	34	3
38	38	5
200	200	5
82	82	3
63	77	3
159	159	1
137	137	1
124	165	1
24	41	1
65	66	1
126	126	4
183	236	2
154	177	2
226	226	3
227	232	1
199	199	6
223	223	3
23	23	3
57	57	2
12	17	1
192	192	4
170	200	1
76	79	1
86	86	3
59	76	3
102	103	1
173	201	1
218	221	2
15	31	1
37	37	2
45	46	1
70	71	3
51	52	1
170	170	1
31	34	3
173	173	1
208	209	3
119	153	3
220	223	2
115	115	1
30	30	4
228	228	4
42	42	1
122	140	1
150	237	1
24	25	1
26	86	3
228	232	1
18	29	1
8	17	1
103	103	1
191	192	1
25	25	2
217	218	3
166	168	1
155	178	1
51	54	2
41	41	3
145	145	2
17	17	1
10	53	2
129	129	1
54	135	1
224	224	1
147	147	3
74	74	3
125	125	1
5	12	1
193	210	2
198	198	1
108	108	2
65	68	1
236	237	2
177	178	1
153	153	3
12	12	6
2	3	1
77	78	1
103	107	1
66	68	1
114	116	1
154	154	1
121	173	1
121	127	1
95	105	1
17	75	1
231	231	2
207	208	1
14	16	1
153	234	2
0	0	1
238	238	1
179	180	1
20	25	1
61	62	1
190	190	1
36	61	1
20	20	1
178	178	1
199	200	2
25	43	1
50	51	1
163	163	1
123	177	2
196	197	1
17	51	1
132	133	1
95	106	1
152	152	1
39	40	2
36	37	1
32	32	2
123	123	2
167	168	1
168	168	1
107	107	1
168	169	2
202	202	1
181	181	4
174	174	1
1	1	1
224	226	2
100	101	1
136	139	1
193	193	1
180	180	1
235	238	1
239	239	1
29	40	1
236	238	1
219	219	2
227	231	1
188	188	1
48	54	1
62	63	2
124	124	1
13	14	2
63	63	1
52	52	1
25	26	1
45	45	1
121	135	1
220	220	1
14	17	1
232	233	1
106	107	1
49	146	1
220	222	1
143	163	1
104	104	1
147	148	1
146	146	1
23	24	1
3	21	1
108	114	1
67	68	1
29	34	1
12	15	1
30	34	1
21	22	1
11	74	1
138	138	2
72	73	1
205	205	1
125	176	1
69	69	1
8	16	1
13	145	1
