60	60	10
13	13	5
29	29	26
22	22	10
121	121	12
101	117	4
110	130	6
130	130	17
73	127	3
109	109	4
16	16	28
108	108	19
67	68	7
120	139	3
35	35	11
121	123	3
101	103	1
61	62	3
82	82	14
68	68	7
75	75	13
48	49	2
93	94	8
28	38	2
85	85	2
99	99	20
5	31	1
129	130	6
119	119	8
87	109	1
132	132	3
23	26	1
26	26	12
123	123	24
104	105	9
27	27	9
88	88	10
39	39	18
59	59	4
80	81	9
112	112	2
9	9	13
49	49	12
36	40	3
94	94	14
36	50	6
31	62	3
75	81	6
134	141	5
39	40	6
3	3	7
57	57	4
125	126	1
20	64	3
92	92	8
119	120	12
41	118	2
102	130	5
19	19	8
17	17	13
33	33	15
15	15	12
5	5	3
83	83	7
101	101	11
5	32	3
24	26	3
1	2	1
32	32	9
105	106	1
50	50	3
100	102	1
22	23	2
134	134	17
127	127	13
128	128	11
56	59	1
122	122	12
93	93	8
74	74	16
137	137	3
12	134	1
131	132	3
15	16	4
98	99	3
90	90	3
50	52	1
48	48	8
76	79	5
127	130	10
11	11	10
18	37	2
125	125	15
117	118	10
126	126	13
34	35	6
65	66	1
116	116	4
133	133	16
16	17	1
9	10	7
29	30	5
17	19	7
89	111	2
105	105	7
88	108	1
103	103	15
21	71	3
95	134	2
55	55	10
128	129	10
141	141	11
69	69	4
28	28	17
124	124	9
66	66	7
120	121	4
51	52	8
23	27	3
121	131	4
118	119	3
144	144	16
72	72	7
58	58	7
96	96	7
21	56	3
74	90	2
27	36	5
23	24	10
133	140	1
24	25	5
136	136	21
95	98	4
99	100	7
104	104	10
40	42	2
77	112	2
93	96	3
76	77	5
126	129	3
65	65	6
41	41	5
102	123	3
135	135	15
129	129	22
53	66	2
62	62	6
140	141	6
102	143	5
75	78	2
79	79	6
89	89	8
76	78	2
96	97	9
107	107	13
6	6	10
25	25	11
142	142	1
30	58	2
61	61	20
128	130	4
104	140	1
131	131	9
53	53	19
108	109	2
40	40	18
36	36	10
8	9	8
31	60	3
87	87	1
53	143	2
80	80	15
73	73	4
55	56	6
143	143	7
105	107	2
49	140	3
109	110	2
98	98	20
33	34	3
89	90	8
0	0	1
106	118	1
74	75	1
142	143	6
11	136	3
53	68	2
50	51	3
138	138	8
34	34	5
82	117	4
10	49	1
48	140	4
111	132	2
57	58	8
36	37	7
24	24	5
27	29	2
18	19	2
8	8	4
95	95	12
102	102	10
52	52	1
56	57	4
108	110	5
140	140	13
42	42	11
43	43	8
117	131	2
37	37	17
18	22	1
47	136	1
82	131	2
70	71	5
47	47	14
76	109	4
49	50	4
129	131	1
2	5	8
100	100	10
47	67	4
81	119	2
133	134	5
59	60	7
117	117	9
86	129	5
98	109	2
110	110	10
122	123	11
48	66	4
60	61	4
145	145	9
97	97	10
3	5	2
67	67	11
64	64	3
77	114	1
13	14	2
139	140	3
83	89	3
83	104	3
23	23	12
94	101	2
37	39	5
95	104	1
126	127	6
124	125	12
51	51	5
96	101	2
115	115	7
98	120	1
76	76	7
77	109	4
146	146	2
95	99	2
113	114	10
115	116	2
113	113	6
54	80	2
1	1	13
98	116	1
95	96	4
125	128	4
144	145	2
9	27	4
77	120	2
118	120	3
53	54	1
20	20	2
88	111	3
58	59	7
79	80	3
77	131	3
24	36	2
39	41	3
68	82	1
40	43	1
10	10	14
136	144	3
103	104	1
120	120	9
119	121	2
81	81	15
81	130	1
42	80	6
19	20	3
118	139	2
21	22	3
109	139	1
127	129	1
95	131	2
70	70	4
27	37	1
99	125	2
21	21	10
63	63	7
102	103	2
66	124	1
15	17	2
106	107	2
93	104	3
99	115	2
4	34	3
92	105	2
89	91	3
110	111	2
91	118	1
17	29	1
43	137	1
137	138	5
40	41	3
47	48	2
134	135	9
114	114	6
30	30	7
101	127	2
71	72	1
100	103	3
131	135	3
56	56	8
10	138	1
118	118	9
140	143	4
14	14	5
118	128	2
114	115	6
31	32	3
137	140	2
94	96	4
96	134	1
40	143	3
36	41	2
31	31	4
11	47	1
119	129	1
54	54	7
41	42	3
68	70	1
10	29	1
83	84	6
84	85	1
19	38	1
25	137	1
38	57	2
2	3	2
136	137	10
79	81	2
3	4	3
38	38	7
62	63	7
77	77	5
5	6	3
117	140	2
41	120	4
48	53	3
54	55	6
135	136	1
91	91	4
139	139	5
91	92	1
73	74	3
32	36	3
38	42	2
17	18	1
132	133	1
63	64	2
30	38	4
10	25	1
111	111	5
82	126	1
63	65	3
18	18	8
26	36	1
133	135	1
62	72	1
85	89	1
9	12	3
34	36	2
110	119	2
119	138	2
64	72	2
98	107	2
117	121	4
141	142	4
94	128	5
125	127	4
125	131	2
33	56	1
27	28	4
89	131	1
78	79	2
86	123	1
86	86	2
29	38	1
27	35	3
33	54	1
123	134	1
67	70	2
0	41	1
42	65	1
52	53	2
35	61	1
12	18	1
131	134	3
41	121	1
109	130	3
57	59	1
85	87	2
112	113	2
89	130	1
123	124	2
47	65	1
102	128	2
69	71	2
89	110	2
3	49	3
93	97	3
10	11	1
136	140	1
64	65	1
76	102	1
89	103	1
86	97	1
8	23	1
118	121	3
84	131	2
26	28	1
90	91	2
63	71	2
33	35	1
85	133	1
75	82	1
114	123	1
141	143	2
26	27	1
132	135	2
36	39	2
4	36	1
97	107	3
34	62	1
25	26	3
49	139	1
75	80	1
20	21	2
25	27	2
83	98	1
78	121	2
67	121	1
2	4	1
41	117	1
28	40	2
0	1	1
84	84	1
84	88	2
38	39	1
42	43	1
77	102	3
66	67	1
15	18	2
77	105	1
35	36	1
75	108	1
104	118	1
21	65	1
102	122	1
55	57	1
66	70	3
36	49	1
41	142	1
10	30	1
101	102	1
14	15	1
34	56	1
81	122	1
48	63	1
107	108	1
12	13	2
40	144	1
41	141	1
95	107	1
126	131	1
7	8	1
54	81	1
97	98	1
4	4	1
90	131	1
122	144	1
6	11	1
4	49	1
101	122	1
30	31	1
