190	192	1
139	172	2
164	190	4
151	167	1
135	136	1
7	7	6
172	172	4
127	128	3
93	93	1
72	72	4
99	182	6
18	18	2
178	178	6
189	189	6
104	106	3
112	115	8
16	17	4
89	90	2
49	49	6
163	164	2
185	185	5
115	115	1
15	15	2
148	148	3
174	174	3
130	135	4
129	129	5
108	118	1
144	144	3
59	59	1
4	4	8
12	12	4
192	192	2
171	171	2
136	137	3
34	34	1
123	123	6
99	99	1
167	167	6
176	182	3
69	69	5
165	165	1
77	77	3
30	31	4
159	188	4
124	125	1
98	98	2
191	191	4
121	121	2
48	48	3
51	51	3
51	52	1
161	161	4
157	157	5
168	168	6
164	164	3
33	35	1
28	28	3
187	188	6
145	145	8
160	162	3
109	109	3
117	119	2
113	115	4
86	86	2
1	1	2
162	162	2
176	176	5
97	99	2
182	183	5
157	158	2
124	124	6
5	5	2
155	189	7
143	144	2
44	72	3
5	6	3
21	21	2
181	181	3
196	196	6
3	3	6
161	166	2
158	158	4
74	74	2
153	153	8
156	158	2
22	22	6
125	127	2
27	28	1
122	123	3
134	134	3
145	146	2
28	29	2
179	180	4
37	37	1
102	102	3
176	177	5
45	69	3
0	1	2
10	10	7
79	79	2
192	193	2
47	49	2
183	183	4
52	52	2
14	42	2
13	20	2
27	27	2
95	95	2
161	162	3
136	142	1
2	3	1
9	32	1
45	47	3
186	186	6
190	190	3
167	168	7
140	140	2
119	121	1
7	8	3
187	187	2
103	105	2
13	13	5
81	83	3
163	163	2
18	36	1
107	107	2
109	112	3
55	58	2
19	25	1
39	39	1
1	2	2
172	176	2
112	124	1
170	170	4
155	158	2
188	189	6
189	194	2
141	141	5
110	110	1
131	131	2
117	117	1
50	52	1
55	56	4
156	156	1
184	184	4
35	35	7
188	188	4
106	108	3
195	195	3
82	84	2
128	185	4
8	9	4
42	42	4
74	75	3
44	44	2
133	133	2
56	56	2
114	176	2
151	151	1
106	106	1
112	112	1
139	139	2
160	184	4
116	116	4
9	10	2
154	154	1
141	143	2
76	76	1
21	39	1
169	172	3
130	130	1
43	44	2
166	167	2
114	114	1
14	14	1
160	161	2
180	181	3
38	38	1
150	167	1
15	16	1
179	179	2
20	20	4
194	194	3
106	107	4
195	196	1
47	47	3
157	159	1
50	50	1
88	89	2
142	142	1
111	111	1
105	105	5
85	85	2
9	12	1
156	163	2
186	189	4
197	197	2
11	13	2
33	33	1
54	54	2
6	174	1
70	71	3
107	109	1
33	54	3
5	34	1
67	67	2
149	149	5
186	188	1
128	128	1
20	26	1
138	138	1
109	111	1
162	163	1
80	81	1
6	43	1
40	40	1
168	169	2
17	17	3
175	176	2
176	179	1
146	174	1
75	75	2
88	93	4
166	173	2
113	113	2
24	24	5
143	143	1
126	127	2
6	6	1
16	16	1
94	94	1
2	2	2
17	18	1
164	165	1
136	144	1
17	28	2
150	150	1
83	84	1
144	145	1
33	70	1
100	176	1
28	30	1
186	187	1
152	154	2
103	103	1
82	88	2
31	32	2
187	189	1
31	59	1
144	148	1
120	120	1
126	126	1
142	196	1
18	74	1
164	166	2
84	84	1
70	70	1
120	121	1
45	45	1
127	127	1
169	169	1
11	11	2
88	105	1
160	160	1
58	58	1
12	33	1
136	136	1
150	189	1
