71	71	21
48	49	6
46	46	17
29	29	23
95	95	19
45	78	7
91	91	7
130	130	14
122	122	8
111	111	15
48	101	3
44	44	5
18	18	7
75	75	31
31	34	4
74	74	22
93	93	25
11	26	7
123	123	2
34	35	13
4	5	9
59	59	16
95	96	9
41	41	3
69	69	14
58	58	8
90	92	3
31	31	23
40	40	2
63	74	6
65	65	23
101	101	14
47	47	25
33	36	1
80	80	9
126	126	6
70	70	16
0	0	5
94	94	33
111	113	1
61	122	3
113	113	11
100	101	5
68	69	3
13	13	20
4	4	9
35	47	2
17	17	29
87	88	9
103	108	1
41	42	4
112	116	2
35	36	14
85	85	28
11	11	14
34	34	12
9	9	16
103	112	4
28	95	2
55	56	6
75	76	8
29	49	3
110	125	1
109	109	14
12	12	11
88	92	1
73	73	15
121	122	8
88	89	1
45	58	1
86	86	12
7	25	2
6	11	1
15	15	7
82	84	6
110	110	20
1	1	6
103	103	10
5	5	6
84	84	12
77	77	20
61	65	4
9	10	9
20	20	15
103	107	4
114	114	2
28	28	15
76	77	4
116	116	9
78	78	9
83	84	7
6	7	4
104	113	2
67	67	14
79	80	4
45	45	17
3	8	1
61	61	16
17	121	2
23	23	11
6	12	1
97	97	4
128	128	8
88	88	8
93	100	1
76	76	17
117	118	1
25	25	13
122	123	6
106	107	7
91	109	4
134	134	9
63	63	33
62	62	10
117	117	8
123	124	6
30	30	8
17	47	3
10	10	14
93	94	7
21	22	4
36	36	9
42	42	8
2	100	2
32	33	2
125	125	10
42	101	2
2	2	9
87	87	5
99	100	6
98	98	9
19	45	2
24	74	3
27	27	22
11	12	4
26	86	4
45	60	4
106	106	4
112	112	11
27	29	4
32	32	19
115	115	3
62	63	3
130	131	3
92	92	6
63	64	5
131	131	4
108	108	7
45	47	1
24	24	13
6	6	7
118	119	6
47	76	8
11	88	2
48	48	7
61	68	2
64	64	22
17	18	3
11	93	3
26	27	5
103	104	3
14	14	16
72	74	5
45	71	1
110	128	1
93	99	4
38	39	2
17	19	4
15	37	4
129	129	5
12	13	7
49	49	6
19	19	7
79	79	1
46	47	5
114	116	1
23	24	1
83	83	18
57	94	3
25	61	4
19	20	4
104	105	2
3	12	3
102	106	2
71	72	2
68	68	21
35	35	23
25	26	10
33	33	8
112	113	9
44	45	7
29	84	4
7	7	5
72	72	16
47	74	3
7	33	1
11	29	2
28	80	3
21	21	10
96	96	2
102	102	7
50	50	8
77	78	5
102	107	2
90	100	1
55	55	5
33	34	6
89	93	1
91	128	1
127	127	8
99	99	8
47	101	4
34	58	4
43	43	6
119	123	1
13	14	10
81	81	10
31	32	7
37	37	5
8	10	6
26	26	13
96	100	3
16	35	5
105	105	4
61	74	2
37	48	1
95	123	4
16	48	2
19	30	3
57	57	14
107	107	11
12	14	1
41	43	1
47	66	3
20	22	1
73	74	9
8	8	8
45	124	1
22	22	8
95	98	4
8	12	4
94	95	7
90	126	2
3	48	2
82	82	13
120	122	1
59	84	1
123	125	3
119	119	13
56	56	6
4	21	2
3	3	10
18	36	4
66	67	3
109	110	4
34	36	1
0	74	1
3	4	1
120	124	1
39	39	1
22	36	4
64	65	6
94	101	5
92	93	2
64	72	2
13	15	1
80	81	1
26	47	1
56	57	2
132	132	3
83	94	4
124	125	3
66	66	20
96	97	3
32	59	6
100	100	2
96	107	4
38	42	1
67	68	5
57	58	4
76	82	10
30	31	6
10	11	4
29	30	1
48	102	3
38	41	1
0	73	3
63	69	2
24	25	1
64	73	1
7	36	1
9	102	1
8	11	1
89	103	2
120	120	6
80	82	1
23	26	2
60	60	9
32	60	4
11	100	4
124	126	1
35	84	1
29	93	1
27	28	2
31	93	1
107	125	1
104	104	6
25	83	3
61	121	1
35	74	1
19	77	2
34	62	1
33	79	2
117	119	1
133	133	3
27	31	1
72	73	3
60	63	1
35	59	1
19	44	3
85	88	3
62	75	1
8	9	4
111	128	1
119	129	1
27	92	1
91	92	3
62	72	2
4	100	3
6	47	2
68	70	1
67	70	2
61	77	3
121	121	1
45	46	3
94	97	2
65	66	3
46	83	1
39	55	1
133	134	1
16	16	4
91	99	1
61	78	2
30	48	2
45	70	3
22	37	1
59	83	1
85	86	6
45	89	1
69	70	4
90	91	1
16	20	2
45	63	2
28	79	1
29	34	1
45	93	3
46	86	2
43	50	3
25	27	1
45	100	1
27	78	1
48	76	1
48	82	2
27	86	3
20	71	1
43	44	1
5	36	1
35	60	1
118	118	5
16	21	1
46	93	1
4	59	1
38	38	1
9	73	2
28	34	3
129	130	1
17	122	1
113	114	4
76	80	3
44	78	1
68	74	1
15	81	2
60	76	1
63	75	2
15	43	1
95	100	2
116	117	1
15	20	2
102	124	1
58	98	1
84	85	2
124	128	1
30	33	2
29	31	3
42	56	1
18	62	1
87	89	2
32	34	2
32	65	2
38	40	1
128	129	2
27	91	1
19	31	1
49	84	2
61	73	2
63	73	1
90	90	2
120	121	1
49	83	2
107	108	2
27	93	2
27	88	4
4	7	2
39	41	3
57	59	2
11	92	1
50	55	2
66	68	1
88	91	1
87	104	1
47	83	1
131	132	1
61	76	1
71	74	2
7	75	2
29	59	2
119	120	1
55	92	2
95	102	1
114	115	1
89	89	1
34	82	1
6	34	1
29	57	1
11	34	1
88	90	1
62	69	1
45	64	1
89	91	1
70	72	1
