114	115	8
92	94	4
126	126	20
95	95	2
75	76	6
65	65	12
48	48	20
128	128	5
57	57	27
113	113	12
52	52	5
83	83	11
106	106	12
88	88	13
109	109	23
108	109	9
55	57	3
74	74	10
6	6	13
63	64	7
117	117	7
110	111	7
75	82	2
107	108	2
49	49	14
25	25	7
121	121	14
14	18	2
23	24	5
3	13	9
85	85	17
73	99	6
96	117	1
92	92	9
0	42	4
105	105	21
77	77	14
84	85	6
42	42	15
114	114	5
110	110	19
14	16	4
20	20	8
43	44	2
115	116	2
70	70	10
59	61	3
94	124	5
101	101	10
15	15	7
26	26	6
50	50	10
64	64	5
118	118	15
47	47	9
28	28	6
68	68	26
104	119	2
69	69	7
5	5	7
38	39	7
120	120	17
3	3	14
63	63	2
114	117	3
51	52	8
60	62	2
127	127	12
42	43	5
16	17	7
67	68	13
71	71	5
22	25	1
80	82	1
107	107	10
53	53	11
129	130	4
40	40	10
123	125	3
20	29	1
13	13	5
100	102	4
70	71	3
84	84	12
127	128	9
23	23	4
47	50	6
62	64	2
103	104	5
18	19	6
124	124	3
34	34	6
30	30	15
8	9	1
18	18	9
10	20	4
59	60	9
13	14	10
96	96	10
45	45	15
74	75	8
46	47	8
97	97	10
12	12	8
57	58	1
18	22	2
94	109	2
56	56	14
10	26	5
58	58	6
11	11	5
17	21	1
90	90	10
5	6	5
122	124	7
115	115	3
29	30	12
96	100	1
111	111	14
28	46	3
33	37	1
56	57	3
104	104	7
132	132	4
110	121	4
19	21	2
99	99	14
54	66	1
129	129	18
93	93	4
40	41	5
82	82	7
11	21	1
45	46	8
61	61	1
131	132	3
50	51	6
53	54	6
102	103	4
25	26	4
100	101	3
87	87	4
96	101	3
15	17	2
103	103	17
113	114	6
3	38	3
60	60	7
85	91	3
38	41	2
11	12	5
72	93	1
65	66	4
62	62	4
2	2	10
10	10	5
3	39	2
44	44	2
98	98	3
55	55	14
87	88	5
123	124	2
0	1	6
30	32	3
2	7	1
108	108	6
118	119	2
122	122	4
96	99	2
7	7	12
22	22	3
123	123	6
39	39	6
24	31	2
67	67	5
41	41	2
133	133	10
52	53	9
72	76	3
105	106	3
89	89	3
104	105	4
71	94	3
61	78	3
1	1	14
54	54	10
8	8	5
98	126	2
74	85	1
112	121	2
54	55	5
112	112	7
21	21	7
24	24	12
125	125	9
126	127	5
19	19	6
16	16	4
126	129	3
77	78	7
99	100	5
43	43	3
46	46	3
33	33	5
1	2	3
80	80	4
56	109	2
102	102	13
56	108	2
2	105	4
82	84	3
119	119	8
117	118	6
100	100	1
11	20	3
73	73	9
103	106	1
15	23	4
2	3	8
86	86	6
30	31	4
72	72	3
9	26	2
1	7	2
58	79	3
114	116	4
69	71	1
9	10	5
81	81	4
32	32	4
20	27	2
14	14	5
6	24	2
97	99	1
130	130	4
63	65	1
78	79	2
91	91	4
68	69	1
4	4	3
120	121	3
58	59	2
9	9	2
76	77	3
91	92	1
38	38	1
8	53	1
54	124	2
13	26	4
26	27	4
111	113	2
69	70	2
29	29	9
72	73	2
16	23	1
76	76	5
16	18	1
47	48	5
28	49	1
116	116	3
27	27	5
128	129	3
16	24	1
20	42	1
100	118	1
95	107	1
71	72	1
19	20	1
73	128	2
97	100	1
13	24	3
25	39	1
43	96	1
109	122	2
63	97	3
80	81	2
41	43	2
50	53	1
71	102	2
116	117	1
68	97	4
44	45	4
80	120	3
104	106	2
83	84	2
6	7	2
89	112	1
125	132	1
21	22	4
88	89	2
85	86	1
12	13	5
48	49	1
12	60	1
62	66	1
98	99	1
125	127	1
92	112	3
39	42	1
59	59	3
75	75	2
5	7	2
19	30	1
75	129	1
101	102	1
78	78	2
28	29	2
48	79	1
95	123	1
118	120	1
39	40	3
4	13	1
60	61	3
62	63	1
121	122	2
130	132	2
99	103	1
49	52	1
63	125	1
73	74	2
91	94	1
60	64	2
97	125	2
124	132	2
31	31	2
61	62	2
32	48	1
85	89	3
122	123	1
94	95	1
90	91	1
86	121	2
117	119	1
18	25	1
51	51	3
108	125	1
23	34	1
13	17	1
109	110	1
72	74	2
21	25	1
40	42	1
46	48	1
63	130	1
17	17	1
75	131	1
87	91	1
51	53	1
