130	151	3
114	146	1
35	35	8
93	97	1
43	43	2
29	31	1
7	7	3
19	68	3
25	29	4
117	118	3
15	16	7
124	125	3
16	16	6
192	193	2
156	176	2
41	41	6
105	106	5
69	69	4
159	160	3
109	147	1
0	0	5
195	195	24
148	148	3
55	56	6
40	40	11
22	22	5
176	178	5
25	25	8
116	116	10
34	34	15
18	68	3
6	8	8
145	145	7
8	8	1
138	138	2
155	155	11
113	137	2
112	112	3
143	144	4
75	84	3
188	188	8
49	49	6
77	179	3
78	78	6
171	171	6
126	126	3
5	6	8
121	121	3
170	170	9
153	153	5
109	109	5
172	178	2
134	135	3
183	183	1
93	95	1
34	70	2
38	38	3
45	45	5
128	161	5
168	169	5
72	72	6
26	28	1
31	37	2
65	74	5
196	196	7
114	114	5
186	186	11
194	194	9
40	41	1
31	32	5
147	147	14
130	132	2
160	160	8
169	175	3
144	146	1
10	14	1
52	52	5
56	56	11
99	99	8
157	157	8
109	110	2
142	142	8
183	184	3
144	145	1
31	31	6
153	154	2
37	37	4
173	173	5
70	73	5
105	105	4
26	26	1
15	30	3
165	165	4
54	54	4
169	169	5
54	55	2
107	162	4
143	143	5
42	42	5
86	86	1
87	87	6
82	82	9
152	152	4
140	140	7
63	63	3
159	159	4
128	128	7
95	96	2
18	18	5
98	98	3
119	153	1
29	29	9
43	44	1
167	181	2
70	157	2
169	170	4
121	180	4
30	30	9
165	170	2
164	164	5
22	36	4
107	171	7
53	53	7
46	46	16
23	23	16
123	123	4
106	106	5
120	120	4
154	155	4
82	93	1
137	139	2
82	84	4
134	134	10
5	34	6
176	179	1
32	32	1
83	84	3
100	101	1
185	185	7
15	15	5
68	68	6
141	160	3
16	43	1
118	121	1
143	154	1
18	21	4
3	3	4
7	20	4
149	149	6
149	150	3
107	107	8
111	152	2
57	58	2
14	15	2
139	139	3
70	71	2
141	141	7
33	33	8
158	160	2
125	125	2
175	175	3
55	55	8
10	10	2
24	25	4
119	119	5
99	160	3
193	193	3
174	175	3
11	11	7
101	101	11
136	151	2
168	183	2
47	47	8
4	4	2
67	67	1
168	170	2
113	113	6
160	167	1
122	122	7
172	172	7
118	118	4
58	58	6
131	132	3
195	196	3
21	21	3
163	163	4
171	174	4
50	50	7
56	69	4
7	8	3
115	118	1
151	151	4
19	25	3
17	38	1
132	153	2
180	180	6
114	115	3
34	35	6
189	191	3
6	70	2
79	80	5
137	137	6
9	16	1
0	2	4
197	197	13
127	127	1
1	36	2
190	192	4
155	190	1
105	175	4
93	93	3
160	161	3
95	95	1
97	100	3
20	20	6
1	29	1
94	99	3
184	184	6
159	165	2
71	173	3
150	150	10
37	38	2
130	131	2
82	172	3
111	111	11
75	76	4
110	110	3
168	181	1
187	188	5
176	176	10
79	178	2
24	24	2
166	166	2
124	124	3
178	178	5
160	163	2
187	187	5
182	182	8
61	64	4
82	83	4
112	114	3
191	191	6
25	27	3
129	131	3
20	22	3
173	178	2
123	156	4
137	143	1
139	154	1
161	161	1
5	7	2
133	133	1
189	190	5
176	177	4
162	162	3
26	54	3
3	68	2
27	27	3
31	51	2
2	2	3
163	164	14
39	40	2
152	153	6
159	176	3
28	28	2
6	24	1
108	109	3
117	117	8
148	179	4
106	164	1
190	190	5
159	193	1
177	178	1
51	52	4
142	149	5
112	150	1
131	131	3
146	146	4
170	171	2
110	121	3
121	157	2
103	104	3
10	11	3
151	192	1
144	144	7
17	17	1
165	167	1
172	177	1
50	173	1
154	160	1
171	179	2
129	129	3
116	157	2
135	136	1
81	81	1
46	47	3
58	59	5
47	57	3
158	177	3
186	187	1
187	189	3
86	87	4
6	6	1
14	14	6
142	172	2
102	102	8
140	150	3
64	64	2
49	50	2
194	195	1
134	137	2
182	183	4
177	177	7
89	90	1
181	181	1
29	30	2
168	168	4
181	186	1
117	154	1
149	151	2
60	61	2
96	96	1
77	117	2
127	128	2
85	85	3
147	183	3
116	117	2
144	153	1
134	150	2
120	155	2
138	167	1
192	192	1
110	119	7
12	56	2
191	192	5
124	195	1
118	153	1
179	179	4
139	157	1
136	145	2
98	99	1
156	156	2
136	137	2
30	51	3
163	174	2
9	9	13
47	48	2
119	120	2
79	79	1
58	60	1
135	137	1
111	140	2
3	59	1
151	153	2
163	167	1
16	17	4
158	167	1
137	155	1
154	154	2
104	104	3
179	187	1
115	153	2
169	187	6
48	49	2
43	81	1
6	9	3
160	188	1
46	100	1
4	16	1
137	138	1
173	175	3
146	152	3
115	115	4
42	194	1
180	181	2
173	174	2
50	51	1
145	162	2
41	42	1
13	13	2
22	25	1
159	175	1
53	55	1
168	173	1
160	166	3
1	41	3
17	66	2
146	147	3
10	13	1
0	29	1
19	40	1
151	152	2
162	163	2
178	190	1
120	121	2
77	78	1
108	108	3
101	105	1
151	183	2
189	189	3
53	58	2
127	196	2
44	44	4
65	66	2
113	114	4
102	103	2
120	140	2
84	85	2
171	172	3
135	140	1
167	168	3
61	61	1
120	173	4
140	156	1
161	162	2
23	69	1
52	55	1
35	36	2
165	166	1
99	138	2
140	143	5
59	60	1
25	28	1
131	148	1
158	196	2
185	186	1
158	158	2
58	69	1
117	119	2
76	85	1
150	153	1
36	36	2
124	189	1
114	151	1
46	94	1
93	94	1
127	161	1
53	56	2
111	147	1
94	94	1
71	71	1
150	152	2
113	115	1
35	97	1
36	37	2
145	148	1
147	149	1
169	171	2
75	75	1
155	156	1
152	193	1
100	100	1
3	17	1
50	69	1
62	62	1
17	20	1
193	194	1
5	33	1
157	165	1
64	68	1
108	145	1
11	27	1
11	13	1
98	159	1
23	25	1
118	157	1
111	151	1
156	191	1
11	52	1
