72	75	3
11	21	1
119	119	5
65	65	4
37	37	6
111	111	2
97	99	11
115	116	2
68	80	3
103	108	3
99	99	3
41	41	7
40	40	9
70	70	9
62	62	3
53	54	5
21	33	1
71	134	1
143	143	4
43	43	17
150	150	2
30	30	5
82	83	4
90	93	8
22	27	3
38	66	9
128	128	2
85	85	8
49	52	1
141	141	9
31	31	5
55	55	2
124	127	1
56	57	2
81	81	9
115	139	4
19	20	1
80	80	2
105	114	6
98	98	3
74	75	5
138	138	7
34	34	7
121	129	6
71	73	1
11	14	1
19	19	10
133	133	7
48	48	5
144	145	5
10	10	6
69	69	9
84	84	6
5	55	4
42	65	1
77	78	2
15	15	3
21	25	2
136	136	5
29	30	1
83	83	10
20	33	2
103	103	5
40	64	2
77	77	12
26	27	3
139	139	6
124	124	3
62	72	3
68	68	11
15	18	3
142	142	5
57	57	13
66	66	6
33	33	4
4	7	3
14	21	6
132	132	8
32	33	3
45	45	4
76	77	7
43	44	2
73	73	11
6	27	2
79	83	8
65	69	7
25	50	1
34	97	1
74	83	9
53	53	7
35	35	4
128	147	2
35	46	3
78	86	2
39	39	13
90	92	2
110	115	2
34	87	2
39	64	1
5	5	3
122	122	10
11	11	11
29	29	4
127	128	2
106	110	2
35	77	1
20	57	7
39	43	3
79	79	6
118	121	1
102	102	6
44	47	4
45	49	2
26	72	1
18	31	10
50	50	1
56	56	10
83	86	4
26	26	4
78	93	6
109	109	3
130	130	3
46	53	1
107	107	4
28	28	10
48	51	1
31	55	3
36	87	7
117	117	5
114	146	4
24	80	5
44	51	5
25	26	4
127	127	2
149	149	4
118	118	7
28	29	2
46	47	3
27	37	5
4	6	9
108	108	7
97	97	17
31	32	3
70	71	8
80	111	2
16	30	1
104	104	3
68	82	2
144	144	1
135	135	3
128	143	1
153	153	6
27	33	7
17	107	1
95	133	3
61	136	1
80	136	2
13	14	2
84	93	2
5	57	2
38	38	3
67	67	2
32	32	5
76	76	6
3	3	6
57	100	3
131	131	3
92	92	7
121	123	2
74	99	1
47	47	4
130	131	2
50	53	1
78	78	4
20	20	3
119	121	3
11	12	6
84	87	5
120	120	12
18	21	5
96	96	7
20	25	3
70	73	1
62	68	2
61	82	2
129	150	5
95	98	5
27	27	8
38	73	1
22	22	5
144	146	4
40	41	3
18	78	6
85	93	2
35	36	4
9	9	5
17	36	2
109	139	3
65	68	5
64	64	15
121	122	3
22	24	1
79	127	1
99	154	2
6	12	1
35	76	2
62	95	4
65	67	3
100	138	2
86	86	5
81	83	5
111	113	1
127	148	5
24	25	2
66	79	3
140	140	1
83	84	1
115	115	2
121	121	4
65	78	3
46	99	1
114	114	2
49	56	2
75	75	4
6	6	4
49	49	5
39	49	1
33	87	3
17	17	2
128	148	1
63	63	1
82	82	4
69	70	1
38	79	1
51	63	1
62	85	2
71	71	4
87	87	5
96	132	1
2	2	5
61	83	3
24	24	5
11	57	2
93	93	4
21	57	3
44	44	5
108	124	3
145	145	3
32	36	3
64	69	3
116	116	5
28	30	1
108	113	3
54	55	4
57	102	3
106	106	3
23	47	2
20	34	2
23	30	1
94	101	1
84	99	1
25	29	4
104	116	3
147	147	1
38	72	1
66	94	2
42	42	3
72	95	1
27	29	3
12	15	2
75	98	2
108	112	1
72	72	8
17	19	1
69	132	2
74	74	6
141	142	2
142	144	1
14	14	5
110	110	3
113	113	1
88	88	4
100	102	1
8	9	4
49	50	2
46	46	6
17	98	1
41	42	2
112	113	2
65	86	1
5	6	1
96	97	1
93	97	1
9	15	3
129	130	4
142	143	2
135	150	1
92	112	2
7	7	3
11	17	1
19	46	1
123	147	1
154	154	3
36	82	1
34	93	4
26	28	2
34	86	2
124	145	3
49	51	2
36	36	4
126	126	4
30	31	1
51	51	1
12	65	1
107	108	1
151	151	7
27	35	1
74	87	1
14	15	1
129	129	2
82	85	1
78	94	4
86	97	2
139	140	2
8	8	1
25	25	2
109	114	1
125	145	1
147	148	1
18	18	4
105	109	1
86	87	2
10	34	2
105	105	3
11	51	1
4	27	4
33	77	6
13	42	1
23	23	5
100	100	1
15	17	2
66	83	3
36	38	1
90	96	2
74	88	2
16	17	2
62	111	1
83	110	1
36	37	2
41	64	1
37	78	2
100	110	1
8	22	1
62	93	1
9	27	1
92	93	1
72	97	1
99	100	1
103	109	1
92	108	2
15	46	2
14	62	1
31	49	2
128	142	1
77	83	1
123	123	2
20	45	1
92	96	1
26	32	1
2	21	1
121	130	1
2	8	1
32	34	1
45	58	4
93	98	5
37	38	1
20	22	2
55	56	1
109	117	1
23	52	1
101	139	1
72	74	1
116	117	1
81	136	1
66	93	1
126	137	1
13	13	1
139	141	2
97	132	1
63	65	1
71	72	1
4	5	1
4	4	1
22	25	1
94	99	1
140	141	2
126	148	1
54	54	1
135	140	1
3	31	1
77	85	1
23	65	1
32	87	1
99	102	1
72	84	1
124	125	1
6	28	1
7	10	1
115	143	1
106	107	1
152	152	1
97	98	1
88	90	1
