152	153	11
211	211	24
27	27	21
202	202	12
21	22	6
155	155	27
20	58	5
97	97	12
172	173	17
153	166	5
247	248	6
58	58	17
44	45	2
189	189	13
35	35	15
28	28	9
93	97	2
59	60	10
204	205	13
145	145	14
95	170	1
16	16	16
162	221	2
207	207	24
116	116	17
205	205	22
194	195	11
96	97	3
73	73	3
214	214	15
221	221	10
170	177	5
37	38	1
30	160	3
85	85	16
54	55	4
161	161	25
164	164	19
67	67	13
238	238	30
76	85	8
92	92	27
31	31	12
94	95	4
242	243	4
119	170	3
81	81	19
178	178	18
34	34	21
110	110	6
232	232	10
248	248	16
199	204	7
87	87	10
115	115	19
41	42	3
72	91	2
56	56	15
31	41	2
3	4	4
41	43	6
198	198	20
102	118	2
229	230	17
193	193	5
8	8	12
163	163	14
63	63	16
15	15	23
169	170	5
201	223	2
71	76	4
102	102	9
157	159	3
211	227	2
95	95	21
22	23	3
31	32	4
115	116	10
78	78	19
203	203	18
194	194	11
1	1	9
25	25	10
21	21	13
151	151	26
177	227	4
7	7	18
36	46	2
68	68	20
23	43	5
47	47	10
241	242	4
234	234	8
193	194	12
114	114	23
197	198	7
20	33	4
49	51	2
99	99	16
217	218	8
64	64	7
190	191	13
105	105	5
109	109	20
86	86	12
164	166	3
160	160	13
179	179	11
120	120	18
150	167	4
176	177	13
165	165	13
60	75	2
69	69	14
175	175	15
209	209	17
20	20	13
238	239	4
180	180	15
29	29	7
37	61	4
177	177	21
14	14	12
26	46	1
228	229	2
26	42	2
239	242	7
176	220	4
18	34	5
31	66	3
39	39	9
199	199	16
72	72	7
22	22	4
49	49	11
76	77	5
71	208	3
93	93	11
171	171	7
26	26	12
213	213	23
240	240	22
175	176	7
94	94	22
102	119	2
210	210	5
113	113	19
168	172	2
40	41	9
245	245	12
90	94	2
154	154	32
185	200	2
215	217	5
161	172	3
184	185	4
60	60	5
108	246	9
4	4	15
226	226	13
30	30	9
216	216	20
74	93	1
171	172	2
198	202	1
62	63	9
223	223	9
176	176	13
168	168	17
217	217	18
19	19	7
167	167	18
160	175	2
1	19	2
196	233	3
112	112	17
73	98	2
35	36	4
150	154	5
237	237	26
108	108	6
12	12	11
33	33	8
161	162	2
88	88	8
15	16	2
11	11	12
211	212	7
159	159	12
196	197	2
77	77	13
150	235	2
233	234	13
27	42	1
220	227	4
187	187	16
105	107	1
184	213	3
2	14	2
48	65	2
102	103	5
48	48	14
59	85	1
191	191	14
180	202	4
231	232	8
241	245	4
4	14	2
144	144	3
170	170	9
201	201	12
75	75	9
99	100	5
119	238	1
91	231	2
182	182	13
55	56	5
117	117	8
152	165	6
178	219	3
206	206	11
174	193	4
90	90	7
181	214	4
111	112	13
190	190	13
228	228	10
106	106	7
39	40	4
97	119	5
196	218	4
37	37	17
162	162	14
219	219	12
216	247	2
80	80	16
118	118	17
188	188	15
76	84	6
169	169	17
19	55	5
239	239	17
222	222	12
183	184	2
29	31	4
109	110	8
91	91	5
156	156	23
196	196	9
200	200	10
24	25	4
76	76	5
27	205	2
208	220	3
242	242	12
9	9	7
210	229	2
60	61	13
46	46	15
163	164	11
221	222	5
178	218	4
161	191	3
19	66	4
38	39	5
192	192	16
191	192	6
170	181	3
174	178	1
184	214	3
24	24	22
204	204	18
71	71	7
171	188	4
236	243	1
12	85	4
216	217	8
78	100	8
193	233	4
119	119	14
48	60	3
18	18	11
85	91	5
156	157	3
58	61	3
58	63	3
222	226	2
80	85	4
22	28	1
104	112	3
149	155	2
52	52	14
20	21	1
112	113	2
233	246	4
100	100	18
66	67	8
45	45	12
166	166	9
186	186	8
96	96	11
3	10	2
149	172	1
111	116	4
189	190	6
237	243	2
11	19	6
5	37	3
109	176	1
247	247	12
152	152	11
231	231	14
87	115	5
243	243	17
242	245	2
42	99	7
2	2	7
79	79	15
31	54	1
168	169	6
208	209	6
98	98	12
220	220	6
53	54	4
192	193	10
11	54	2
198	199	11
78	200	2
199	200	4
197	199	4
32	32	11
38	38	5
211	231	1
60	64	3
160	166	3
83	85	2
159	179	2
162	163	2
212	212	19
87	112	4
51	52	10
218	218	8
158	158	6
110	118	1
157	157	14
216	219	1
71	77	3
146	176	3
85	87	2
244	244	15
174	174	5
5	5	8
246	246	14
71	80	2
84	86	2
85	90	1
111	111	21
154	240	1
217	231	2
172	178	3
241	241	11
151	156	4
120	158	3
165	166	6
36	62	5
162	165	3
191	238	6
230	230	7
84	84	8
10	10	15
187	188	14
208	210	13
6	8	2
1	54	4
53	53	8
21	65	3
208	208	6
64	65	6
49	50	1
11	53	11
193	196	1
41	44	2
113	114	3
59	59	15
153	154	5
44	53	2
187	190	3
12	15	4
3	3	5
207	213	2
33	45	2
18	37	5
245	248	4
185	185	16
18	61	1
220	244	6
40	44	2
16	17	5
14	181	3
111	117	2
29	67	2
224	224	6
188	189	12
43	110	1
159	177	2
153	153	16
14	15	3
117	162	2
42	42	15
103	105	1
7	18	3
217	236	1
185	186	5
165	168	2
177	245	1
190	192	13
184	184	18
6	6	14
55	55	7
245	246	9
37	40	3
12	58	1
177	181	2
183	183	16
193	211	7
116	120	1
105	106	6
62	65	1
26	43	2
235	235	7
244	246	2
65	66	3
77	99	1
35	62	1
164	167	2
238	241	10
173	205	5
236	236	19
227	228	1
172	192	3
245	247	3
4	5	3
62	62	12
5	33	3
50	68	3
30	31	2
195	195	15
77	82	5
107	107	12
32	54	1
20	57	5
82	82	19
118	120	2
161	192	1
70	70	6
215	215	13
79	84	1
94	100	1
18	48	3
208	211	9
202	205	1
17	47	3
23	23	10
72	86	9
63	64	1
95	97	10
73	111	2
145	161	2
186	188	3
56	73	2
213	219	3
47	48	4
209	233	2
239	240	7
110	113	4
15	29	2
230	236	1
33	46	1
215	219	5
195	213	2
58	59	3
6	43	1
172	180	2
173	204	3
29	62	2
111	118	3
202	203	3
170	176	2
222	223	2
209	210	11
12	54	3
31	57	2
89	89	5
179	234	3
150	150	21
34	35	7
192	213	2
170	248	2
51	51	9
240	241	8
5	55	6
72	84	1
159	160	6
119	164	1
151	154	3
66	66	3
153	170	1
78	79	8
225	225	4
160	164	1
197	214	3
25	31	1
43	43	12
44	52	3
176	178	3
155	156	2
229	229	5
16	28	1
180	191	2
168	184	1
79	80	2
71	111	4
56	57	4
27	46	1
186	190	2
114	115	6
187	231	3
15	52	3
91	233	3
233	233	6
178	179	4
35	59	2
224	225	1
160	214	4
87	111	1
86	111	4
13	31	1
50	65	1
9	25	2
77	92	3
177	246	7
118	244	1
171	240	2
101	101	11
165	167	3
62	68	1
37	62	1
39	63	5
118	119	4
193	200	9
71	95	4
87	89	3
17	34	3
216	218	4
45	61	1
220	221	5
173	173	6
181	184	1
57	59	1
119	121	3
84	85	2
64	66	4
110	111	8
158	163	11
169	192	1
197	197	12
167	178	2
235	236	5
217	220	2
53	61	1
246	247	4
169	201	1
14	60	1
57	64	5
163	193	2
89	95	4
95	96	2
230	232	4
243	245	2
81	82	3
15	58	2
8	52	3
19	20	2
57	57	18
6	45	1
20	55	5
97	98	6
15	45	2
33	34	2
110	180	2
223	224	4
171	176	4
42	94	1
43	44	2
39	41	2
160	169	1
20	38	1
41	41	6
88	231	3
10	67	2
36	36	16
143	143	1
202	224	1
180	226	1
209	228	1
213	217	1
20	64	3
188	190	3
95	165	1
65	65	8
106	112	6
211	214	1
90	91	3
177	182	2
62	67	2
0	1	6
0	0	2
70	113	4
75	82	4
67	70	3
61	62	4
182	183	5
236	242	4
242	246	1
28	29	2
50	50	9
177	241	6
52	78	6
198	210	3
95	106	2
152	166	2
210	211	2
58	60	6
172	202	4
61	61	15
149	166	1
2	3	3
44	54	2
111	172	1
108	242	2
44	46	1
219	228	1
153	167	3
181	183	2
181	181	10
203	212	2
207	211	5
20	50	4
40	40	6
27	28	4
31	47	1
93	94	3
152	158	2
229	236	1
48	64	3
8	32	5
69	112	1
84	89	3
179	182	4
171	230	1
213	214	9
31	46	2
172	176	4
150	151	1
19	37	3
238	242	1
32	46	3
51	61	2
194	196	3
182	186	1
203	229	2
219	231	5
109	241	2
236	237	4
234	235	5
29	54	1
205	213	2
17	17	8
17	35	1
28	117	1
13	50	2
210	230	3
104	104	1
198	233	2
17	18	2
219	247	2
20	54	1
12	93	2
58	112	1
15	67	1
206	230	4
116	203	1
95	169	3
85	88	2
62	112	1
175	213	5
168	171	2
195	199	1
243	244	2
239	241	6
160	161	8
120	157	1
205	214	1
35	38	1
101	119	2
44	44	5
101	103	1
46	47	3
168	181	1
87	94	5
13	14	2
228	230	1
54	54	7
236	238	2
72	73	2
112	114	6
212	224	5
41	54	2
77	84	3
185	232	1
175	220	2
76	78	6
69	73	1
112	117	1
107	194	2
166	181	3
10	17	6
187	189	1
174	175	4
26	29	1
169	178	1
51	81	3
190	198	1
49	52	4
97	100	5
90	232	2
6	7	3
233	237	3
180	182	3
55	59	1
111	245	1
83	83	4
16	33	2
2	12	1
170	175	3
192	201	1
189	191	5
166	174	3
185	226	1
56	85	1
79	94	2
29	53	3
215	218	2
201	231	1
87	91	2
44	93	2
218	246	1
48	66	1
167	203	3
56	58	2
115	182	2
203	222	1
58	248	1
25	27	1
48	62	1
232	233	4
79	87	1
146	146	1
183	205	1
49	69	3
156	168	1
145	178	1
201	222	1
177	217	3
191	193	1
102	104	3
92	93	1
72	74	2
19	31	3
87	88	1
33	59	3
150	228	1
173	220	2
20	199	1
78	106	1
158	162	3
29	55	1
160	165	1
107	110	4
71	74	1
204	214	3
213	215	1
176	191	3
168	170	1
11	18	1
42	52	1
49	66	3
226	228	2
186	189	2
74	95	1
179	180	3
246	248	1
207	227	3
171	246	3
29	49	3
54	81	1
180	181	2
18	35	1
57	60	1
214	234	1
118	164	2
169	189	1
115	203	4
247	249	3
26	28	2
224	231	2
44	186	1
82	83	6
23	41	1
28	66	1
57	58	2
83	84	2
35	55	2
161	189	2
114	203	1
95	109	1
16	27	2
30	189	2
160	181	1
243	248	2
218	219	3
5	34	2
39	52	2
46	68	2
116	200	1
73	74	4
74	74	2
103	107	2
149	149	4
214	239	2
81	84	2
10	37	2
100	101	2
225	226	2
88	90	3
95	98	2
164	165	2
172	177	1
198	200	1
206	207	1
168	221	1
76	105	4
112	116	1
69	70	1
88	89	2
213	230	1
62	64	2
209	244	2
166	175	4
203	204	2
193	195	4
226	244	2
120	145	1
195	196	1
183	214	1
231	236	2
204	206	1
215	238	2
19	21	1
179	215	1
178	182	1
154	198	2
152	164	1
119	243	4
151	157	2
217	238	2
35	37	1
226	227	3
14	31	3
224	233	1
153	160	2
212	230	1
107	108	4
4	18	1
200	201	2
237	242	2
12	229	2
71	112	2
15	51	1
172	179	1
219	245	2
230	235	1
153	155	1
12	44	3
38	44	2
59	63	1
106	108	2
97	108	1
144	161	2
110	245	1
178	186	1
166	182	2
25	26	1
2	15	1
106	107	5
32	51	1
37	57	1
8	10	1
38	53	2
46	48	1
96	108	2
29	37	1
10	11	1
80	82	1
144	145	2
89	99	1
182	205	1
21	207	2
221	227	1
152	175	1
75	97	2
18	60	1
104	107	1
177	215	1
187	191	1
103	103	1
152	157	1
7	43	1
102	111	4
36	55	3
173	202	1
108	170	2
170	171	3
164	171	1
206	208	1
175	198	2
198	205	2
11	94	1
14	48	2
77	89	2
20	34	1
163	165	1
160	174	1
201	204	1
181	186	1
198	235	1
150	227	2
214	216	1
47	51	2
217	228	1
85	93	1
102	117	1
243	247	2
111	240	1
102	105	1
172	172	2
173	180	1
182	213	1
121	206	1
72	83	1
49	65	1
214	233	1
80	83	2
104	117	1
175	182	2
30	98	1
194	232	1
52	53	1
20	200	1
159	164	1
5	23	1
179	187	1
13	13	1
11	12	1
96	107	1
58	247	1
18	38	2
29	66	2
15	30	1
205	206	1
213	232	1
179	189	1
33	47	1
227	227	1
154	156	1
74	80	2
40	62	1
178	192	1
244	245	1
165	171	1
91	150	1
2	18	1
18	19	1
154	155	1
52	54	1
108	117	1
149	150	2
158	159	1
181	210	1
171	236	1
6	23	1
186	196	1
71	72	2
93	207	1
185	236	1
89	92	1
112	118	1
214	232	1
3	6	1
15	31	1
86	112	2
184	237	1
93	95	1
79	90	1
8	9	1
159	166	1
204	212	1
12	92	1
154	179	1
167	176	1
105	112	1
226	245	1
207	209	1
