41	41	10
62	62	6
113	115	4
43	43	7
61	61	4
47	47	10
106	106	6
91	91	10
27	27	6
64	64	7
25	25	9
89	89	2
1	124	2
25	30	1
65	67	4
8	10	6
58	119	3
57	57	6
18	18	4
46	47	1
113	114	6
111	112	2
16	16	8
72	72	7
59	61	3
23	30	2
123	123	6
79	83	1
45	78	4
0	56	1
86	86	9
110	110	9
58	59	4
40	106	3
14	16	1
119	119	13
82	87	4
33	34	3
104	104	6
80	81	2
11	33	2
80	108	6
29	31	3
98	98	6
57	133	1
82	97	4
48	48	19
129	130	4
33	33	3
118	119	4
114	116	3
63	69	2
47	57	2
89	90	8
45	46	3
111	121	3
93	93	8
117	118	3
52	53	6
83	84	7
129	129	12
76	76	7
29	29	4
96	98	1
61	127	2
117	117	2
8	8	2
125	126	2
49	49	15
64	96	2
77	97	4
1	1	4
114	126	5
99	99	5
51	52	4
82	82	12
57	119	1
51	51	14
14	14	4
86	87	5
76	101	3
91	92	2
3	3	8
45	45	6
72	125	2
91	112	2
64	65	1
78	79	2
23	25	2
88	89	4
67	67	8
57	58	2
29	30	2
80	82	2
60	60	8
109	109	5
7	8	2
74	74	1
85	85	8
121	121	5
116	116	3
5	13	4
13	13	3
55	133	2
67	68	10
107	128	2
38	39	1
45	83	5
65	65	5
22	22	7
60	127	1
120	124	1
87	87	14
52	52	6
109	130	1
94	94	5
24	24	7
43	73	7
118	118	5
6	6	4
131	131	5
119	120	2
50	133	3
126	127	4
7	7	8
23	39	2
128	129	3
71	91	2
133	133	3
16	30	10
59	60	6
78	80	4
50	50	5
3	4	6
25	32	2
71	71	3
100	100	8
10	10	1
39	94	8
42	43	3
75	76	1
122	122	3
28	125	1
59	59	6
11	15	2
56	72	1
119	121	3
75	75	1
32	33	2
21	21	2
14	17	4
104	105	3
77	92	3
9	56	1
38	38	4
53	53	4
60	114	2
40	40	3
126	131	6
117	119	4
42	60	1
120	120	3
32	32	8
78	78	5
76	77	3
90	90	7
110	111	3
88	88	9
111	111	3
58	58	4
9	9	3
114	128	1
23	23	3
3	5	1
42	62	1
86	88	3
121	122	5
61	63	5
40	72	2
31	32	2
46	88	2
83	83	7
47	48	1
42	55	2
107	107	7
4	4	3
132	132	3
77	79	2
62	98	2
115	115	8
31	31	3
44	44	6
114	117	1
77	77	6
112	112	3
55	55	4
28	28	7
128	128	16
10	45	1
41	42	3
2	2	4
120	126	3
12	27	1
18	19	5
62	132	3
12	12	4
81	81	4
21	22	3
70	70	4
25	52	1
68	69	1
124	124	5
26	52	1
80	107	2
125	125	2
0	124	1
1	31	2
113	113	5
117	129	5
44	55	2
64	69	2
31	129	1
54	54	8
46	46	4
67	73	1
80	80	2
114	114	3
20	20	3
85	86	2
46	82	2
71	90	4
107	108	5
69	69	5
51	53	3
116	117	2
10	12	1
97	98	1
112	116	2
6	14	1
118	124	2
17	18	2
43	44	1
9	10	1
42	68	2
34	34	2
94	116	1
130	130	2
109	123	1
72	86	2
117	125	5
98	103	6
108	109	5
38	106	3
98	99	2
20	26	1
32	42	3
42	44	1
53	54	2
25	63	2
19	20	4
0	0	2
81	108	2
115	124	4
2	52	1
126	126	5
110	123	1
9	71	3
31	40	2
58	76	2
26	27	3
101	103	7
103	103	2
17	21	1
100	103	2
123	124	1
4	107	2
25	34	1
42	97	2
8	9	1
100	101	6
39	39	3
33	101	3
50	120	8
9	112	1
95	95	1
125	129	1
33	42	2
32	34	2
76	106	3
22	27	1
66	67	1
30	30	3
55	56	4
73	74	2
58	116	1
55	73	1
73	73	2
105	105	2
5	32	1
77	80	2
14	108	1
74	76	1
101	101	2
108	108	3
116	130	2
22	77	1
41	96	1
24	30	4
0	1	2
62	126	1
92	92	7
7	130	1
82	84	1
100	123	2
127	127	5
3	18	2
18	96	2
65	66	1
97	97	3
24	43	1
56	57	4
61	62	1
72	74	1
91	107	1
13	65	3
43	99	1
28	29	1
22	24	1
11	101	3
10	11	2
102	102	4
101	104	2
15	15	1
113	128	1
49	133	1
39	53	2
66	66	3
14	66	1
5	52	1
63	63	3
79	79	2
33	130	1
109	116	1
126	129	2
41	43	2
22	34	1
1	133	1
11	12	1
42	42	2
44	74	1
48	53	1
46	74	1
106	107	1
111	116	1
79	101	1
120	131	1
20	21	1
4	9	1
55	74	1
79	80	1
92	93	1
113	116	1
61	128	1
3	26	1
47	71	1
97	99	2
39	106	1
68	68	1
72	75	1
10	32	2
96	96	1
94	95	1
71	115	1
56	56	1
22	33	1
9	31	1
20	27	1
109	118	1
77	84	1
7	14	1
65	95	1
78	84	1
115	116	1
92	95	1
