47	48	1
9	9	5
4	4	1
125	125	2
86	86	5
112	121	5
89	89	3
76	76	9
68	68	5
84	84	9
88	88	4
102	102	5
118	128	4
104	104	5
94	94	7
33	33	9
72	72	8
53	53	4
20	20	7
106	107	5
63	63	7
78	78	8
100	100	8
49	49	2
83	83	8
115	115	2
102	105	3
74	74	4
69	70	3
25	26	2
121	122	3
99	100	2
116	117	2
126	126	1
87	87	5
102	123	1
119	119	3
87	96	9
30	30	3
114	115	4
93	93	5
64	68	1
80	112	4
8	8	7
48	48	4
81	81	2
23	23	3
2	2	7
28	34	3
98	98	4
103	103	12
55	56	7
3	4	5
105	105	9
92	92	8
38	38	4
95	95	12
54	68	6
61	61	15
77	79	5
92	100	2
75	75	4
128	133	5
27	27	1
127	127	3
9	11	1
122	122	3
109	110	4
19	19	5
50	50	2
88	99	4
121	121	13
93	94	3
23	24	4
78	80	5
36	45	6
124	132	4
21	21	6
46	47	3
85	85	5
25	36	1
127	128	1
71	71	6
53	54	7
110	110	4
35	36	1
37	37	2
62	62	1
79	79	5
112	112	7
66	66	3
113	113	5
123	123	3
101	102	3
13	13	1
105	107	5
117	117	10
10	11	3
58	58	4
116	116	1
124	133	2
34	34	5
82	82	11
24	46	1
17	17	6
118	118	3
44	44	3
67	67	7
70	70	6
59	60	1
131	131	4
95	97	5
28	28	7
71	72	3
2	5	3
36	44	4
49	69	1
73	73	4
43	44	3
99	99	6
52	62	3
80	106	5
130	130	2
132	133	4
35	35	3
83	84	5
68	69	1
65	69	3
58	61	6
65	65	1
32	32	7
120	121	4
96	97	1
110	126	1
126	128	1
96	96	4
88	89	5
11	15	1
4	19	1
111	111	2
133	133	2
110	113	2
97	97	7
25	25	1
55	65	2
133	134	1
117	118	3
120	120	5
105	123	1
105	106	5
12	12	5
26	27	2
129	130	2
26	44	1
87	88	1
1	1	1
80	81	1
118	119	1
69	69	3
108	108	5
21	22	2
50	60	3
89	90	1
102	113	1
12	13	2
73	75	2
43	61	1
91	91	2
76	80	2
57	57	2
22	22	4
6	18	2
105	108	2
55	55	6
36	36	1
109	123	7
14	72	1
106	106	3
110	125	1
124	124	5
129	133	1
96	98	1
113	118	4
37	43	2
29	29	3
10	10	2
15	24	2
64	64	1
42	42	1
101	101	2
36	65	4
47	54	1
43	43	2
45	45	5
13	15	2
56	58	2
26	26	1
93	95	1
59	59	3
106	111	5
119	120	2
112	113	1
24	24	2
35	37	1
14	23	2
60	60	1
14	14	2
99	101	2
62	63	1
104	105	2
115	116	1
44	45	1
114	114	2
21	24	1
116	126	1
17	18	1
66	68	1
77	78	1
13	14	1
45	46	1
61	62	1
109	127	1
4	5	1
28	29	1
110	124	1
31	32	1
125	128	1
77	77	1
128	128	1
91	92	1
45	51	1
