9	13	2
62	62	30
50	50	27
20	20	8
8	9	6
45	45	49
6	6	17
24	25	8
61	61	36
55	55	55
42	42	21
48	48	31
4	5	5
41	41	30
31	31	26
42	43	3
50	51	10
11	12	2
10	10	20
34	34	38
9	12	3
52	52	18
17	17	13
51	51	16
43	43	26
53	54	15
31	32	5
59	59	12
48	50	2
46	46	51
56	56	32
17	57	5
9	34	3
25	25	13
5	5	32
46	58	10
40	59	3
40	41	10
19	19	6
57	57	16
49	50	12
0	0	10
44	44	34
26	26	7
36	36	40
32	33	9
49	49	25
47	48	13
12	12	4
0	1	9
58	58	10
53	56	4
47	47	15
8	8	14
1	2	1
45	46	12
49	51	5
33	33	24
49	55	3
0	50	3
9	10	3
2	4	10
51	52	5
1	1	11
43	56	3
46	57	9
49	57	3
7	8	5
55	56	9
3	3	8
23	24	1
19	22	3
14	16	10
10	11	6
22	23	3
54	54	20
39	41	2
32	32	30
30	30	12
31	36	3
30	42	1
52	53	9
13	13	9
7	7	5
44	45	10
22	54	4
50	54	3
17	51	1
21	21	8
43	44	3
14	14	9
12	45	4
30	47	6
40	40	26
16	45	2
12	16	1
39	39	23
45	53	1
60	60	9
15	15	11
58	59	5
39	40	11
37	38	9
38	40	1
20	21	6
15	16	5
11	11	6
2	2	19
56	57	12
45	47	3
35	35	25
38	41	2
37	37	27
41	45	3
56	58	3
12	39	1
24	37	1
48	58	2
50	52	11
41	53	5
30	46	3
44	57	7
19	20	2
46	60	2
53	53	29
45	51	2
9	9	13
35	37	3
8	10	4
0	54	2
0	14	1
33	34	1
30	31	6
4	4	11
17	18	2
34	35	8
46	47	6
8	11	2
48	62	1
58	60	3
39	48	3
3	4	1
7	40	4
42	44	4
11	15	1
37	39	6
44	49	3
42	46	1
51	54	5
22	22	5
48	49	5
61	62	7
15	51	3
52	54	1
16	18	3
59	60	7
19	21	3
34	61	2
7	12	2
34	43	3
12	13	1
13	16	6
15	19	1
39	46	3
38	39	7
29	29	4
16	16	9
9	45	1
45	52	6
54	55	2
0	4	1
29	40	1
18	18	6
14	15	2
34	48	2
38	38	7
7	39	4
37	40	4
37	51	1
30	33	1
6	43	2
2	3	3
23	23	3
24	24	3
15	56	2
43	48	2
9	46	1
49	61	1
16	17	2
3	17	2
45	57	1
5	8	1
9	37	1
60	61	1
35	43	3
14	54	2
25	42	3
22	24	1
53	55	1
6	7	2
47	50	1
32	36	2
18	58	2
13	17	1
21	22	1
9	17	1
5	19	1
8	13	1
39	44	1
32	43	1
36	37	1
46	56	1
44	58	1
0	52	1
40	46	1
6	9	1
44	48	1
13	54	1
23	58	1
59	61	1
43	61	1
