54	54	46
52	52	55
45	45	40
25	25	17
34	34	34
43	44	7
38	53	3
50	50	37
19	47	2
37	41	4
59	59	40
49	49	38
53	53	56
1	32	2
57	59	3
35	35	23
31	39	8
7	55	7
20	24	8
43	43	35
13	13	17
21	21	16
1	1	25
46	51	1
8	8	23
32	39	4
11	11	23
2	2	33
57	60	5
48	48	50
38	38	44
7	18	3
39	39	23
40	40	46
44	44	41
58	58	26
9	9	19
59	60	2
16	17	6
57	57	46
51	51	23
50	51	5
6	6	15
37	49	1
38	39	10
37	38	10
20	20	21
42	43	18
31	43	3
46	46	50
24	25	6
56	56	34
54	58	3
3	3	9
0	0	12
8	9	15
61	61	14
46	52	3
45	47	2
52	53	6
11	18	3
6	55	4
5	5	26
47	47	49
36	36	30
55	55	38
15	15	9
51	52	13
62	62	25
41	41	41
21	22	1
30	31	4
19	19	18
3	5	4
53	55	5
44	60	3
14	14	12
17	17	22
2	35	3
37	37	24
32	32	48
37	39	6
60	60	18
39	43	5
9	10	8
7	56	4
16	16	15
0	33	1
33	33	31
18	19	12
0	1	4
61	62	6
9	18	2
30	42	1
40	42	3
30	30	19
34	47	1
31	32	5
30	36	6
44	45	13
32	33	10
10	11	20
19	20	2
30	43	2
7	23	6
58	59	25
1	59	10
10	13	3
31	31	32
53	54	12
53	59	1
42	57	3
37	40	1
4	4	11
7	7	23
29	30	5
53	56	5
3	4	4
42	42	25
13	37	6
36	43	1
1	3	2
6	16	4
34	50	1
20	21	7
1	4	5
56	57	7
10	10	19
41	53	1
46	50	1
20	23	5
22	23	11
39	54	4
7	53	1
13	14	2
49	50	6
6	14	5
18	18	16
57	58	5
40	41	12
33	34	2
55	60	1
54	55	4
54	57	4
39	45	2
52	57	3
46	47	3
23	57	1
30	37	1
20	37	1
30	61	1
4	20	4
39	57	2
7	9	7
18	34	1
30	35	2
53	58	4
2	58	3
42	44	5
31	37	3
12	14	3
45	54	4
4	19	8
44	52	3
20	22	2
11	13	1
43	60	1
23	23	11
1	24	2
11	12	9
15	20	2
6	54	2
41	57	1
38	55	1
47	48	6
53	60	1
54	59	2
11	46	2
17	18	6
38	42	1
29	53	2
37	53	5
9	45	1
42	46	2
11	51	3
48	49	4
8	22	3
24	24	8
55	56	5
38	54	1
29	29	2
34	35	8
5	6	2
46	48	2
9	24	2
8	35	1
42	49	2
12	12	8
45	51	5
5	22	3
9	19	2
46	54	2
56	58	2
12	13	5
43	62	1
1	2	11
47	54	2
3	20	3
55	58	6
7	20	1
9	44	2
6	12	4
32	56	3
8	24	1
6	7	7
19	21	2
51	54	2
17	45	2
38	45	1
31	35	5
22	22	9
7	8	13
51	53	4
30	45	1
33	36	5
45	46	5
15	16	5
18	52	1
5	44	2
44	46	3
48	52	1
23	39	1
6	45	1
15	17	4
1	48	2
23	32	2
7	16	2
40	56	3
50	57	4
17	44	1
7	13	1
6	52	5
32	35	2
41	58	4
16	19	2
4	5	2
45	53	1
44	49	2
25	55	1
19	22	2
36	39	1
56	59	3
45	61	3
30	32	5
0	59	1
55	57	3
0	11	1
20	25	1
35	36	2
30	44	2
48	62	2
39	55	2
13	53	3
23	24	2
9	52	1
42	55	2
20	58	1
5	15	1
31	34	1
47	52	1
31	44	1
46	53	1
48	51	1
30	52	2
9	12	2
13	17	4
43	56	1
60	62	1
43	45	2
8	53	2
36	50	2
38	40	1
40	54	2
14	16	2
51	56	1
4	21	1
2	5	1
36	37	1
47	49	2
39	41	1
5	25	1
37	54	2
7	39	1
39	40	1
19	52	1
31	33	2
2	31	1
32	36	1
45	50	1
39	46	1
40	55	1
16	22	1
33	48	1
15	24	1
6	21	1
14	34	1
11	49	1
6	18	1
32	60	1
49	51	1
6	53	1
32	49	1
1	22	1
38	46	1
7	19	1
31	42	2
8	52	1
18	43	1
6	49	2
23	25	1
35	62	1
43	46	1
7	24	1
12	54	1
