144	144	16
115	116	15
66	66	20
43	43	35
29	29	28
45	45	21
7	13	1
6	6	19
80	112	1
122	123	12
32	33	10
21	39	3
131	131	35
45	47	4
26	26	22
132	132	31
115	134	2
68	68	26
3	3	41
25	26	6
139	141	10
87	87	49
129	151	1
154	154	21
99	99	23
93	93	26
104	104	34
115	115	33
123	123	19
83	85	6
30	33	4
116	116	28
139	140	14
102	103	5
128	128	14
79	79	27
21	21	31
18	19	14
152	152	31
154	156	1
9	104	2
151	151	25
138	143	2
129	130	7
20	20	26
10	11	16
22	51	2
147	147	28
4	5	8
125	125	31
46	46	48
67	67	11
30	30	38
31	72	7
83	84	14
89	90	6
129	129	31
107	107	24
50	50	46
148	148	16
157	157	21
105	105	11
134	135	11
8	8	24
110	114	5
137	141	5
20	21	5
43	81	3
120	132	2
104	105	12
141	141	24
69	71	9
54	54	31
142	142	35
147	148	4
124	124	21
130	131	11
77	77	33
39	39	31
128	129	14
151	152	6
31	32	13
150	150	10
139	139	24
139	150	2
16	17	18
45	52	3
37	38	9
16	16	26
27	27	25
17	17	32
15	15	25
85	85	22
7	7	28
123	124	11
49	49	30
90	90	17
3	4	10
25	27	3
55	55	19
10	46	2
36	37	12
24	25	8
78	78	24
94	95	3
119	119	10
157	158	6
87	89	6
48	49	12
50	52	2
36	36	33
33	34	16
35	35	17
117	117	33
136	136	20
13	15	8
1	1	55
105	116	1
32	54	4
64	64	10
145	145	13
113	115	2
126	126	22
152	153	14
93	103	5
2	3	5
109	109	18
22	23	6
83	83	15
33	62	3
140	141	11
135	135	21
49	52	5
7	119	5
108	109	10
117	120	10
15	16	22
41	41	31
52	88	1
30	31	7
99	101	9
81	82	13
44	45	22
10	10	15
138	139	20
131	149	3
158	158	33
38	38	27
103	104	6
127	127	40
9	9	16
135	136	23
29	38	3
47	47	18
71	71	20
120	135	2
42	42	32
93	94	8
91	92	15
80	80	41
65	65	9
18	54	3
5	5	38
69	69	19
56	106	1
80	158	4
146	147	10
77	82	2
133	134	18
116	117	7
98	98	44
133	133	30
106	106	20
8	9	14
132	137	5
24	27	2
134	148	5
89	89	33
80	81	13
33	39	4
41	108	1
12	12	29
124	125	10
39	41	5
146	146	16
39	50	4
94	94	35
52	52	19
110	113	3
86	144	6
78	82	6
51	69	1
88	88	11
148	154	6
54	69	1
124	138	5
46	47	3
52	53	17
13	37	3
82	83	10
103	103	31
127	128	4
11	11	25
131	134	2
126	127	9
120	121	10
31	71	8
45	46	10
137	137	23
34	34	28
158	159	11
92	92	12
92	94	10
73	73	29
121	152	1
97	97	23
28	29	3
70	70	27
40	40	22
134	134	20
130	130	21
108	110	1
19	19	19
108	113	6
111	142	3
131	132	26
17	18	10
7	15	4
18	18	25
16	18	8
82	157	2
27	28	5
101	101	22
18	52	6
29	37	2
114	115	12
115	123	1
33	33	47
32	32	14
135	152	3
121	121	21
4	4	34
96	121	2
15	124	4
84	84	28
21	79	7
121	124	3
103	139	1
109	110	9
28	28	23
48	50	2
0	0	22
23	23	25
122	131	4
67	68	4
114	139	5
106	124	3
24	24	27
111	112	21
156	156	37
100	100	24
31	70	1
119	145	2
113	144	4
2	2	26
22	22	46
107	108	12
112	113	8
67	70	6
114	114	15
48	48	14
19	107	2
110	110	18
13	13	31
115	144	1
86	86	30
134	137	4
126	147	7
13	24	2
14	15	11
38	39	22
37	112	4
31	39	2
96	96	20
155	155	22
96	110	7
118	118	29
95	96	11
153	153	12
104	131	1
12	13	12
19	43	2
19	20	18
107	122	1
7	8	3
56	56	11
88	121	5
86	95	2
121	122	8
122	122	30
62	63	8
93	98	2
55	56	7
121	123	5
1	81	2
51	51	6
114	116	5
112	112	13
5	6	3
145	147	5
78	79	16
125	126	9
111	111	33
32	37	7
42	43	7
28	34	9
142	153	4
9	10	6
96	137	2
106	107	22
25	25	19
34	37	4
3	36	4
1	2	11
86	96	2
34	38	6
108	138	1
120	120	22
7	11	1
132	134	14
143	143	14
114	117	4
75	75	23
87	97	1
13	55	3
12	22	7
113	114	10
25	100	1
91	93	2
118	120	9
140	146	4
87	105	3
36	120	9
34	35	4
24	47	3
53	53	13
31	34	6
127	142	4
102	102	21
77	78	6
12	52	1
19	39	5
16	81	1
6	37	1
110	111	8
133	137	6
21	22	11
123	125	5
95	95	15
138	138	38
48	124	2
142	143	8
143	147	2
90	91	8
40	41	36
104	109	4
91	91	20
82	82	19
105	132	1
22	37	5
36	38	1
8	10	7
73	75	3
46	92	2
37	37	19
95	135	2
132	148	2
66	79	1
88	89	6
12	64	1
78	113	2
81	81	19
149	152	1
39	40	7
86	93	1
92	93	8
118	125	3
127	153	2
70	71	10
153	155	2
105	106	12
118	119	14
69	81	3
122	125	7
56	116	1
53	56	1
140	140	20
18	20	7
36	133	1
8	106	1
105	115	3
103	151	3
12	16	1
108	108	22
69	86	7
126	133	3
0	1	6
27	77	3
68	83	1
103	114	2
154	155	10
50	73	1
105	130	2
10	23	2
137	139	4
39	51	4
65	94	2
62	62	1
92	95	9
114	118	1
123	126	4
141	144	5
51	54	7
11	14	2
26	27	6
113	118	4
86	132	1
63	66	6
31	31	13
68	70	3
17	44	1
16	24	2
63	64	8
22	41	2
44	44	31
83	86	4
6	7	6
69	70	3
148	149	2
18	27	3
4	49	4
37	81	2
18	43	3
77	81	3
11	12	2
117	158	3
106	112	1
2	4	5
113	113	21
50	56	2
21	103	3
89	133	3
61	71	4
46	62	1
19	41	2
153	154	13
25	29	2
89	96	4
63	63	8
144	145	10
117	118	8
84	85	13
84	140	3
88	95	2
8	45	1
52	54	6
35	36	11
112	115	2
138	150	1
31	52	3
57	64	1
95	97	6
137	138	18
103	113	5
86	119	3
145	146	5
40	43	1
121	155	1
39	54	4
10	109	2
74	74	4
82	86	3
14	14	12
85	88	3
12	40	2
85	86	3
46	68	2
99	102	1
87	88	4
3	5	1
109	111	4
93	133	1
80	159	3
85	102	4
29	86	1
31	33	2
26	39	2
121	130	9
148	150	12
20	49	3
7	10	3
124	126	3
42	46	2
96	97	10
38	50	3
77	91	1
23	24	7
40	98	1
79	81	5
136	153	6
87	90	1
81	117	1
67	69	5
31	67	2
12	57	1
73	74	2
143	144	3
56	62	1
122	124	2
8	103	1
132	133	10
32	123	2
146	148	2
33	37	3
75	78	5
53	55	5
13	34	2
22	55	3
41	42	5
97	115	3
110	112	5
15	69	2
52	71	2
144	159	2
131	135	3
138	140	4
115	129	1
136	142	1
116	133	2
8	26	4
19	52	2
54	55	12
51	53	4
50	53	1
44	51	2
18	41	2
85	149	3
49	50	3
69	89	3
120	130	1
70	89	1
11	13	6
75	76	5
51	67	3
141	142	6
114	145	4
11	41	1
64	69	5
65	69	1
32	34	2
50	58	1
6	15	1
106	132	2
126	152	2
107	111	1
107	109	2
18	36	6
93	99	2
51	52	5
46	49	1
87	116	1
90	110	1
17	22	1
143	146	2
86	99	4
1	3	4
95	110	2
23	95	3
104	122	4
23	42	1
123	154	2
13	14	10
91	95	1
42	64	1
155	156	7
38	40	6
143	149	1
104	108	2
103	105	8
84	90	3
108	111	2
35	38	4
121	125	4
97	121	1
57	68	1
17	91	1
91	97	5
78	119	4
21	82	3
87	100	2
10	16	2
120	125	2
53	77	4
119	120	8
54	64	1
131	133	6
150	151	1
90	103	3
50	51	5
117	154	2
148	153	1
108	112	3
93	100	3
79	80	2
42	68	1
48	51	1
146	159	1
119	146	1
139	144	1
28	86	1
17	50	1
15	18	3
149	150	2
19	120	3
122	126	1
91	104	2
131	146	1
35	52	2
96	139	1
103	107	3
52	55	1
66	69	2
7	27	1
29	40	2
128	154	1
14	69	1
5	116	2
80	84	6
17	151	1
63	67	1
106	114	2
86	146	2
116	118	5
78	80	1
78	157	1
82	103	2
19	25	4
35	37	4
8	12	3
88	93	1
111	119	3
5	101	2
87	92	3
8	23	2
42	47	1
21	36	4
47	80	2
32	38	2
31	133	2
134	146	1
106	143	1
17	131	3
139	143	1
142	152	1
87	91	3
139	151	1
41	104	4
3	68	1
101	131	1
33	85	2
113	122	1
118	137	1
40	48	1
51	70	3
28	92	1
53	84	2
85	90	2
132	136	1
43	47	1
47	91	1
88	90	1
41	43	4
77	90	3
19	119	1
114	144	1
90	148	1
149	153	2
71	140	1
130	140	2
71	96	7
144	146	8
22	39	2
0	27	3
11	18	3
103	122	1
28	40	1
127	157	1
133	136	2
90	141	2
6	119	1
29	30	3
29	63	1
83	141	4
155	157	2
152	154	1
35	45	1
102	131	1
94	106	3
63	116	4
114	142	3
14	61	1
21	51	2
86	116	1
136	137	9
49	124	1
62	125	2
4	89	4
137	140	1
102	104	2
86	87	3
32	39	2
101	150	3
145	150	1
111	145	3
104	125	1
42	82	2
124	156	2
106	111	1
68	69	5
56	57	2
88	142	1
81	102	1
113	117	4
24	100	3
16	19	2
77	92	1
80	94	2
57	57	5
106	121	1
46	51	2
106	108	1
27	29	7
29	65	3
30	140	2
29	31	1
90	95	1
94	117	1
149	149	3
7	37	1
12	51	1
8	27	2
33	38	1
112	144	1
136	141	2
80	82	1
144	147	2
132	145	1
50	68	1
56	61	1
135	142	1
98	102	3
142	147	1
25	35	1
154	157	1
125	127	1
82	85	1
63	119	1
62	120	1
32	86	1
145	148	1
88	91	2
127	156	1
83	104	1
83	135	1
46	82	1
30	40	3
5	55	1
134	139	1
104	107	2
145	151	1
72	73	1
84	101	2
84	137	1
150	152	3
106	123	1
44	47	2
17	27	2
125	132	2
94	103	1
10	107	1
94	114	1
7	24	1
31	53	2
18	64	1
137	142	2
32	124	1
83	105	2
26	31	3
21	38	1
65	66	1
156	157	1
93	95	2
34	45	1
7	14	1
33	36	1
144	150	3
120	136	1
140	142	2
28	31	2
87	138	1
56	63	1
53	54	2
11	109	2
90	92	3
113	143	1
112	117	4
11	16	3
134	138	1
72	72	3
114	143	1
12	41	1
52	65	1
150	154	3
116	120	1
115	136	1
79	140	1
51	71	2
71	72	1
29	46	2
52	77	1
23	131	1
40	55	1
15	67	1
128	151	2
128	142	1
41	124	1
7	28	1
113	116	1
95	103	1
26	72	1
77	119	1
155	158	2
93	109	2
27	79	1
129	158	1
45	67	2
77	104	1
76	76	3
25	34	1
135	137	2
2	101	1
73	147	2
107	112	1
100	101	1
95	120	1
118	132	2
61	64	1
61	61	2
29	33	2
114	127	1
66	67	5
113	124	2
83	137	1
8	30	1
105	110	1
33	42	1
104	110	1
120	147	1
127	129	1
43	69	1
25	67	2
17	54	1
41	49	1
22	106	1
94	138	2
29	66	1
21	37	1
32	72	1
47	51	1
104	132	1
102	151	1
39	45	1
53	69	1
26	33	1
30	87	1
134	143	1
30	41	1
38	64	1
32	35	1
73	118	1
26	41	1
8	11	1
83	97	1
133	135	1
94	96	1
55	64	1
67	71	1
15	57	1
10	105	1
135	140	1
96	120	1
27	39	1
