22	24	3
27	27	8
41	41	2
55	55	20
75	76	3
28	28	11
78	78	7
43	43	3
56	57	1
87	87	10
96	96	28
69	69	5
42	92	2
31	31	5
38	42	2
71	71	10
86	87	2
99	99	15
37	37	6
35	36	3
101	102	3
42	42	3
34	34	1
32	33	6
81	85	3
94	94	7
76	76	6
42	45	5
25	25	6
82	82	3
92	92	8
78	89	3
102	102	17
20	20	13
91	91	7
103	103	3
44	44	9
22	22	10
97	98	9
101	101	9
75	81	1
24	24	3
26	27	9
32	32	9
86	90	5
84	85	10
59	59	6
87	89	3
34	35	1
30	30	5
79	79	8
66	67	6
95	95	4
40	40	6
66	66	5
38	40	4
105	105	12
23	23	12
55	56	2
61	62	10
98	98	5
80	80	6
57	57	11
53	53	5
91	92	2
36	37	2
53	74	1
43	45	3
100	100	5
78	90	1
81	81	8
51	52	2
54	55	4
58	58	2
60	89	2
102	104	4
84	84	5
89	90	4
21	21	5
28	45	6
52	54	2
38	38	8
39	40	4
72	72	6
97	97	5
68	68	15
85	85	10
82	95	5
46	48	3
98	106	4
90	90	7
46	49	2
43	44	2
79	80	3
63	63	6
65	65	7
65	94	4
93	93	4
36	39	3
61	61	8
62	87	1
60	61	4
64	64	5
70	70	13
33	33	6
36	36	9
80	81	1
54	54	2
30	31	3
31	32	1
100	102	2
70	71	2
71	89	2
67	68	7
77	77	12
75	75	7
104	104	2
56	56	9
72	73	5
62	62	2
46	47	1
47	48	1
104	105	1
25	49	2
73	73	1
88	102	1
52	52	2
41	43	2
39	39	2
30	33	2
72	104	1
65	73	1
69	73	2
90	96	2
89	89	2
78	79	3
88	88	5
70	101	2
46	46	4
67	67	11
74	74	4
25	47	3
40	58	2
86	86	7
44	45	1
35	35	1
79	105	1
29	29	4
38	39	1
60	60	3
69	70	1
49	49	2
65	66	1
77	78	4
70	77	2
76	77	1
83	84	3
50	50	2
102	103	2
88	89	1
82	83	1
48	49	2
26	28	2
99	100	1
83	83	1
59	61	1
86	88	2
106	106	5
60	62	3
81	107	1
73	74	1
81	87	1
90	91	1
45	45	1
53	65	1
65	76	2
22	23	2
99	101	1
77	99	1
51	51	3
32	34	1
59	60	2
96	106	1
54	72	1
68	69	2
45	46	2
92	93	1
20	21	1
84	89	1
57	58	1
83	98	1
93	100	1
33	34	1
55	57	1
53	66	1
61	89	1
