112	112	9
81	81	1
118	118	7
85	85	7
77	79	2
14	14	2
30	30	3
64	82	2
90	90	4
91	91	1
77	92	3
86	86	4
97	97	9
18	25	1
66	69	3
88	88	2
55	55	7
108	109	10
69	69	10
57	58	4
43	43	3
100	101	3
50	82	2
74	74	5
26	88	1
110	129	2
127	127	3
67	68	4
54	57	3
124	124	2
61	61	7
83	84	4
27	86	2
49	52	2
106	106	2
44	45	1
54	55	3
5	6	2
128	128	2
111	111	1
29	29	4
84	84	5
70	96	1
71	71	6
110	111	2
56	56	5
108	111	3
10	86	2
67	67	2
0	1	1
92	92	4
25	25	3
105	105	2
21	23	1
50	50	3
114	114	4
12	13	1
9	9	1
91	92	3
119	122	3
86	87	2
130	130	4
121	121	4
113	113	3
62	63	2
75	76	5
131	131	3
30	36	4
78	78	2
61	88	1
102	102	7
79	79	11
132	132	4
70	70	2
105	106	2
106	112	2
53	53	3
117	117	3
126	126	5
130	131	1
98	98	4
120	120	4
34	34	9
19	19	2
2	2	7
83	83	1
47	49	2
20	86	2
9	10	2
65	66	2
110	110	1
55	80	1
82	82	2
97	100	1
97	98	4
65	109	3
18	18	8
7	7	2
24	26	3
129	131	1
54	54	4
57	57	3
97	106	1
49	50	4
54	66	2
17	18	2
129	129	10
13	76	1
115	115	2
6	7	2
53	61	1
49	86	2
93	93	3
134	134	2
101	101	3
108	110	6
80	91	1
8	9	1
3	3	3
127	128	3
117	129	1
66	67	7
23	23	2
105	129	1
94	95	1
99	101	1
80	80	3
109	118	1
49	49	1
68	120	1
68	68	2
71	74	4
116	118	4
108	123	1
61	63	3
63	64	2
63	63	2
109	111	1
45	46	1
122	123	1
120	122	1
116	116	1
104	104	2
27	28	3
50	63	3
119	119	3
79	93	1
8	8	1
3	5	2
59	69	5
42	64	1
106	134	1
106	110	4
72	72	5
91	97	1
126	134	1
123	123	5
71	98	1
59	60	1
62	62	1
26	26	2
85	87	1
45	45	1
96	96	3
111	123	1
93	94	3
99	99	3
64	64	3
66	66	2
58	58	2
117	118	1
12	12	1
52	52	1
54	83	1
110	126	1
113	129	1
11	11	1
63	90	3
53	54	1
78	84	1
11	44	1
70	77	2
13	14	2
54	58	1
33	33	1
131	133	1
5	5	1
102	103	2
103	103	2
114	115	1
12	14	2
71	105	1
9	85	2
3	75	2
65	65	1
36	36	1
24	24	1
84	87	1
70	91	1
107	110	1
16	16	1
105	111	1
129	133	2
56	60	2
84	86	1
125	126	1
87	87	1
79	88	1
95	95	1
