80	80	7
230	231	6
82	82	5
193	194	8
62	62	11
225	225	11
51	52	6
1	1	5
24	225	2
164	165	5
81	85	4
121	179	2
89	89	24
245	246	11
20	20	15
94	94	19
37	37	11
90	90	15
183	183	7
112	113	10
167	167	17
203	203	18
97	97	18
158	170	1
64	64	4
176	176	7
87	87	5
53	53	9
3	182	1
25	25	11
171	171	11
63	64	3
88	88	13
177	180	2
119	119	8
205	205	13
66	67	5
205	207	2
239	240	4
213	213	19
165	192	2
5	5	19
64	92	4
248	248	10
181	182	5
220	220	32
115	115	11
31	31	14
163	246	7
158	158	14
30	30	13
185	185	13
49	49	7
85	85	8
27	27	15
72	73	4
33	34	2
169	169	10
3	5	3
247	247	16
153	153	18
57	181	1
241	241	22
23	24	4
182	190	2
216	216	3
171	215	2
160	160	22
229	229	7
68	68	22
11	11	13
84	86	3
56	92	1
55	56	9
190	196	2
75	77	4
45	45	8
8	8	12
171	216	3
109	110	2
197	197	10
181	181	16
95	95	22
187	192	1
67	68	1
103	104	3
101	101	12
85	89	2
195	195	11
231	231	13
53	120	1
172	173	2
145	145	9
193	193	14
16	16	14
24	24	8
112	112	11
161	161	21
211	211	29
172	172	15
163	163	25
81	84	4
77	77	12
194	239	2
180	182	2
110	110	19
89	90	2
88	89	3
22	22	14
21	23	2
150	150	6
182	197	4
151	151	29
184	185	10
186	186	6
65	65	12
70	70	13
87	88	5
155	155	11
207	212	2
162	163	10
212	214	2
36	40	2
23	231	2
147	147	9
6	6	6
117	117	10
63	63	5
214	214	27
8	33	2
226	227	9
165	165	12
234	234	16
180	180	10
100	101	4
56	59	6
105	116	2
48	62	1
78	79	3
223	223	15
47	47	6
41	41	13
6	7	3
68	85	3
14	15	2
157	158	3
217	218	4
9	9	8
157	157	17
236	236	21
210	211	18
70	71	1
206	206	9
3	230	2
3	4	4
237	248	3
53	54	6
71	71	19
115	224	2
237	237	10
239	239	10
107	107	7
85	87	4
230	230	12
51	51	15
113	114	15
17	17	12
146	173	1
172	174	3
101	106	1
228	229	11
90	92	3
109	109	17
94	95	2
189	189	2
224	224	10
228	228	10
33	33	9
77	99	5
97	98	10
166	166	14
158	159	3
242	248	1
204	204	18
60	61	8
38	38	13
59	59	18
12	12	12
114	115	5
14	14	7
192	192	15
23	23	5
199	200	6
45	46	3
36	115	3
208	208	15
91	91	6
88	90	3
146	146	5
86	86	20
168	180	1
226	226	14
56	58	2
169	180	1
98	98	12
156	156	20
243	243	4
200	200	12
153	154	6
10	11	12
115	116	4
53	59	1
187	187	21
162	162	17
173	173	12
37	38	6
172	175	3
4	5	11
164	164	9
190	190	5
175	175	9
39	40	7
146	174	1
8	35	3
61	61	10
79	79	4
189	190	8
85	86	10
232	232	10
237	239	9
7	7	15
44	44	11
58	58	10
233	233	6
111	111	12
10	10	11
42	42	24
35	40	5
87	100	3
244	245	3
26	26	8
1	204	1
11	12	3
32	33	1
23	26	3
144	145	2
164	168	4
108	109	8
154	154	18
235	236	5
59	62	2
175	177	2
167	170	5
111	112	9
67	85	4
86	89	3
9	10	6
191	191	5
185	186	13
35	38	4
240	240	6
179	202	2
153	227	3
39	39	16
71	75	2
46	54	2
166	167	2
193	199	2
28	29	2
222	225	4
201	201	14
192	193	7
16	167	3
56	64	6
34	115	2
5	6	5
16	17	1
28	28	8
211	213	3
215	215	6
162	164	1
204	227	1
232	233	7
64	85	1
196	196	10
171	172	8
174	175	4
77	78	4
105	105	7
76	88	1
197	199	2
179	179	11
178	179	9
215	216	2
8	17	3
65	66	3
75	76	2
10	16	2
50	50	6
194	195	4
75	79	3
93	94	1
116	116	16
150	151	3
213	214	5
78	78	8
187	197	3
151	225	2
33	46	2
72	74	5
221	221	14
242	242	15
168	168	11
15	116	3
21	21	9
67	67	14
241	242	4
52	53	3
41	45	3
28	218	1
35	35	5
166	168	4
236	239	3
114	114	14
29	29	5
0	16	2
199	199	10
212	212	18
120	120	9
15	117	1
96	96	14
186	193	1
225	234	1
209	209	12
244	244	20
85	120	2
84	85	6
198	198	13
3	6	4
178	178	16
96	107	2
101	114	2
18	18	14
66	66	9
69	69	5
152	168	1
210	210	10
144	175	3
60	60	2
59	107	1
216	240	2
184	184	13
236	237	4
165	166	7
47	215	2
73	73	4
37	39	4
246	246	11
158	161	1
38	40	1
221	222	5
28	171	2
223	224	2
34	34	5
49	50	4
106	107	1
227	228	4
246	247	6
119	120	1
22	24	2
4	162	2
91	92	6
8	9	7
47	48	9
39	70	1
160	168	2
34	35	4
243	244	6
234	235	3
74	74	4
233	234	6
13	13	1
174	174	13
36	36	4
6	28	2
100	100	15
242	243	6
37	112	1
92	93	11
99	100	6
198	199	1
116	221	3
3	3	12
175	176	7
177	177	7
118	119	5
41	42	2
168	169	8
200	208	4
35	36	4
0	2	3
75	90	2
46	46	7
224	226	5
52	52	15
68	84	4
56	63	2
222	222	10
182	183	7
76	76	4
95	98	3
204	205	3
202	225	1
43	43	13
113	113	10
211	212	4
186	188	3
19	20	1
21	31	1
84	84	3
152	152	15
86	87	3
86	88	2
211	215	1
118	118	3
101	103	6
156	157	1
240	241	4
72	75	2
111	160	2
203	222	1
191	192	2
202	205	2
64	95	4
56	56	12
183	184	4
170	170	2
55	55	10
245	247	2
117	118	6
44	175	1
175	178	1
36	38	2
169	171	1
218	218	13
56	57	5
203	204	4
245	245	4
78	80	2
195	241	4
235	235	6
99	110	3
64	66	3
182	182	11
154	155	7
209	210	3
71	72	2
32	32	8
188	188	6
96	97	3
159	159	15
88	97	1
146	147	2
93	93	8
215	247	2
55	57	7
104	108	2
67	180	2
39	77	3
194	238	1
179	180	5
21	22	5
208	209	11
151	152	5
37	210	1
169	170	3
31	59	5
95	99	2
19	166	2
222	223	4
72	72	8
54	55	4
37	111	2
174	177	2
24	167	2
105	107	1
74	79	1
19	19	13
82	83	3
95	96	5
75	75	1
69	72	1
105	106	2
201	202	1
182	218	2
41	43	1
83	85	1
150	233	2
208	210	3
246	248	1
54	54	13
15	15	9
2	3	4
77	79	3
218	219	9
108	108	8
6	183	2
80	84	1
180	181	7
25	26	3
176	177	5
173	174	3
17	18	5
212	213	3
33	36	2
112	158	2
120	158	4
206	207	5
20	21	1
48	49	1
48	48	6
197	198	4
202	202	6
64	65	3
71	73	2
81	81	5
217	217	7
33	52	6
216	217	1
71	79	1
78	85	1
174	235	2
190	191	2
170	171	4
110	240	2
205	222	1
6	8	2
59	115	1
40	40	15
194	194	3
12	18	3
31	51	1
35	64	1
159	160	7
4	4	3
12	30	3
221	223	1
59	60	1
150	156	2
42	208	2
168	221	2
61	63	2
229	230	4
154	165	3
157	168	1
244	246	1
219	219	6
27	182	3
173	247	1
121	175	2
92	92	2
247	248	2
145	200	1
5	12	1
42	43	5
160	161	5
61	62	7
43	44	3
102	102	2
79	85	2
1	26	1
34	77	1
147	203	1
121	212	2
57	58	2
228	230	2
156	162	1
205	206	3
174	195	1
172	215	3
145	209	1
225	226	2
9	16	2
238	240	4
33	179	3
31	33	1
163	164	3
149	149	5
47	52	2
238	238	4
54	100	2
44	45	3
42	44	2
242	244	2
85	108	1
95	113	1
196	199	1
64	78	2
59	110	2
32	118	2
155	156	3
160	162	2
163	165	1
187	188	1
11	19	1
218	246	4
59	63	2
12	17	3
13	14	2
7	8	2
97	109	1
2	2	3
170	172	1
24	25	3
181	183	1
58	59	4
227	227	3
181	191	1
47	50	1
99	99	8
20	161	1
204	206	5
150	211	2
38	39	6
38	64	1
207	207	7
202	222	1
46	171	2
248	249	1
161	167	1
161	162	3
142	191	1
203	225	1
188	189	2
35	119	3
192	194	1
172	209	1
74	75	1
114	225	2
29	30	1
189	195	1
198	200	1
221	224	1
1	2	2
46	51	1
174	200	1
240	245	2
109	113	1
110	111	1
62	107	1
205	229	1
32	36	3
183	196	1
213	241	1
182	204	1
175	195	3
62	109	1
67	78	2
170	246	1
158	169	1
37	40	3
75	78	1
116	223	2
175	181	2
216	246	1
84	90	3
121	121	3
70	74	1
174	193	1
48	66	2
211	214	1
73	74	4
33	120	1
116	118	1
64	203	2
9	228	1
63	110	5
210	214	2
231	232	2
2	218	1
162	218	1
24	26	2
191	194	1
15	115	1
76	92	1
34	64	2
157	169	1
75	111	2
34	36	1
45	64	2
81	95	1
52	61	1
33	78	1
5	29	1
151	155	1
21	24	2
147	182	1
193	196	1
55	232	1
50	51	2
200	201	1
115	117	1
166	190	1
76	77	1
116	168	1
90	91	4
162	219	1
89	91	1
100	102	1
201	236	2
196	198	3
17	19	1
5	30	3
62	63	1
238	239	2
216	248	2
38	210	1
233	235	1
21	29	2
188	190	2
5	161	1
219	246	1
31	45	1
161	170	2
212	224	1
27	28	2
226	228	1
32	203	1
222	224	3
43	202	1
112	154	1
81	109	1
22	23	1
26	27	1
67	86	1
37	76	1
220	221	3
55	64	1
62	78	1
29	57	2
88	177	1
30	163	1
68	70	1
108	236	1
144	144	1
103	105	1
174	197	1
167	168	2
116	117	1
48	50	1
84	92	1
31	58	1
27	172	1
38	111	1
229	231	1
106	108	1
79	80	1
80	81	1
159	165	1
98	100	1
68	73	1
21	229	1
186	194	1
81	82	1
107	119	1
76	78	1
46	60	1
46	47	1
195	199	1
69	71	1
87	92	1
28	32	2
152	172	1
118	120	1
162	246	1
41	44	2
26	44	1
235	241	1
103	115	1
68	74	1
72	86	1
23	232	1
233	236	1
59	61	1
79	109	1
98	99	1
27	29	1
215	218	1
205	230	1
