86	86	9
48	48	2
48	51	1
26	26	2
137	137	2
147	147	3
96	104	3
154	154	2
136	136	4
7	8	3
46	47	2
114	115	4
126	126	2
24	24	4
133	133	4
22	22	3
104	104	4
148	149	2
108	108	5
113	115	1
119	119	3
110	111	1
145	145	3
138	138	1
72	77	1
121	122	3
152	152	4
34	34	1
19	56	1
46	46	7
120	121	4
90	90	2
141	141	2
81	111	2
50	51	5
53	53	5
83	83	2
133	148	2
54	54	2
20	20	1
73	73	3
98	98	3
62	63	1
64	64	1
130	130	1
136	145	1
117	117	2
110	110	4
36	36	5
143	143	6
30	36	4
78	78	1
91	91	1
146	146	2
35	35	6
9	9	1
97	98	3
86	90	1
53	55	1
45	47	6
66	75	1
145	146	2
2	2	4
93	94	3
115	115	5
45	45	1
146	147	1
26	67	1
17	17	2
24	26	1
94	94	2
71	72	1
117	118	1
101	101	6
142	142	1
38	52	3
25	26	1
23	24	3
75	94	1
75	75	3
157	157	2
156	156	3
44	44	1
76	78	1
122	122	3
95	133	1
28	30	1
150	150	4
132	132	2
56	66	1
94	95	2
65	67	4
30	30	2
144	144	1
126	127	2
18	18	1
33	34	2
155	155	1
99	99	3
119	120	1
50	50	4
68	69	2
155	156	1
38	38	2
11	11	3
87	87	5
153	153	2
150	153	2
148	148	6
131	131	2
112	112	3
68	68	3
22	23	2
140	140	4
105	105	2
21	21	1
96	96	1
48	49	2
21	22	1
5	5	1
13	14	2
52	52	3
108	109	3
61	70	1
114	114	2
10	11	2
19	19	1
132	136	1
124	125	2
102	121	4
0	1	3
123	123	2
57	57	2
110	112	1
129	129	4
92	93	1
15	53	1
128	128	1
132	133	1
19	22	1
115	117	1
6	6	1
89	89	1
3	3	3
95	96	1
13	19	1
159	159	1
69	69	2
14	14	1
93	93	2
49	51	1
64	72	2
127	139	1
24	95	1
113	117	1
102	102	1
78	79	2
35	50	1
51	51	1
103	103	3
9	10	1
133	158	1
47	47	1
121	121	4
135	136	1
12	12	3
97	97	2
143	146	1
45	46	1
42	42	2
69	71	1
87	88	2
15	22	1
121	143	1
43	44	3
127	127	2
49	49	2
142	144	1
23	25	1
68	71	1
20	28	1
95	95	1
127	147	1
84	84	1
77	77	1
56	56	1
84	103	2
14	22	1
2	5	1
135	135	3
111	112	1
21	71	1
120	120	1
41	42	1
39	49	1
132	146	1
31	35	1
7	27	1
18	29	1
1	1	1
122	135	1
