38	38	62
20	83	3
91	91	74
29	35	3
57	57	64
25	27	6
76	76	85
66	66	75
42	42	114
50	50	81
90	90	74
31	31	53
55	56	18
54	54	79
39	39	101
94	94	62
99	99	79
97	98	48
75	75	62
54	61	4
44	44	80
59	59	109
92	93	21
25	25	30
79	79	80
76	77	36
56	57	10
93	93	61
60	60	88
52	87	1
95	96	34
61	88	4
96	98	10
101	101	57
80	81	21
41	41	94
95	95	60
78	78	72
71	71	86
36	36	55
94	95	19
43	43	86
100	100	52
86	87	34
76	78	3
84	89	3
69	70	17
98	98	55
81	81	70
60	63	3
85	85	82
67	67	98
38	84	6
80	80	62
99	100	7
38	39	8
94	98	4
49	51	6
70	70	56
86	86	99
63	63	85
81	84	3
46	46	79
47	48	25
69	69	63
34	34	38
64	64	125
84	93	4
96	96	68
33	33	63
52	83	5
47	87	1
89	89	93
59	65	7
58	58	93
40	40	86
48	53	4
73	73	71
29	29	48
79	86	2
26	26	54
61	61	86
77	77	52
88	88	61
45	62	1
62	62	93
35	36	34
77	90	5
54	55	24
20	46	5
51	51	64
49	49	57
72	72	55
90	91	15
47	47	56
58	78	3
53	54	24
87	87	47
55	55	53
97	97	65
31	33	2
53	83	7
82	88	5
35	37	10
27	54	3
58	59	34
87	88	33
29	30	5
56	56	56
84	84	51
24	95	4
31	90	2
77	78	23
26	27	16
73	80	1
74	74	76
29	32	7
48	78	5
59	60	10
91	98	1
45	45	61
66	67	19
23	26	6
64	84	1
61	93	4
65	65	71
100	101	16
49	50	25
39	47	8
79	91	1
71	72	21
61	62	25
63	85	6
61	63	1
25	39	1
52	52	58
83	83	38
38	40	9
35	62	3
91	92	19
32	32	28
56	71	5
95	99	11
31	58	6
39	60	1
39	40	11
42	86	2
53	55	17
37	37	58
58	98	2
51	52	29
26	46	1
77	88	3
52	53	19
57	58	14
53	53	69
69	73	1
96	97	28
97	99	9
37	68	3
88	89	12
28	28	13
46	48	5
95	98	10
27	28	15
65	89	2
63	64	18
68	68	50
62	63	18
40	59	1
40	83	12
47	84	2
55	92	8
92	95	2
60	61	14
65	88	1
89	100	1
25	28	3
22	26	2
42	89	4
58	88	3
57	93	3
75	76	9
51	82	4
59	71	2
53	98	1
27	27	41
75	99	1
85	86	6
24	25	12
31	82	2
73	74	11
43	67	2
93	94	16
35	35	51
77	79	8
37	38	35
36	37	17
65	73	7
52	55	12
68	69	8
92	92	69
86	89	10
34	35	24
46	61	12
40	64	2
56	90	2
42	43	23
43	62	4
29	31	3
63	94	7
98	99	7
62	89	1
45	51	4
101	102	7
68	70	8
61	79	1
55	82	3
70	71	21
22	22	18
48	48	71
43	44	13
25	42	2
48	49	20
56	100	1
20	72	5
40	90	3
40	100	2
59	62	3
79	88	1
60	62	18
89	90	6
36	46	2
35	80	5
73	91	1
61	98	4
47	86	3
93	97	3
86	88	21
81	82	9
32	40	2
31	32	14
62	83	2
50	56	2
63	65	6
83	84	8
50	60	2
60	89	5
49	60	8
52	60	1
51	77	1
82	82	30
51	80	9
73	88	3
34	90	1
25	72	4
96	100	1
98	100	9
20	24	1
64	65	25
49	86	3
73	100	1
34	52	6
20	20	8
63	91	3
95	97	20
62	90	4
47	52	2
87	93	5
68	71	4
46	47	11
26	28	1
67	68	24
85	90	6
57	62	2
82	83	13
37	51	5
74	75	13
91	96	2
34	95	4
42	44	3
52	78	3
72	102	3
93	95	2
49	78	4
57	60	4
37	87	2
43	59	3
55	77	4
79	96	1
66	77	1
27	79	6
56	86	2
24	26	5
83	85	5
51	62	4
102	102	8
66	70	5
61	84	1
25	83	1
33	67	3
93	98	7
74	80	2
75	78	2
31	39	5
38	45	5
41	44	5
45	60	1
45	71	1
52	75	4
99	101	10
25	26	8
31	63	1
38	52	8
42	59	2
40	48	8
49	83	1
34	98	5
57	90	2
33	99	7
54	79	4
58	60	5
35	59	4
23	77	2
23	23	13
40	50	6
34	91	2
64	77	1
40	58	3
70	77	1
59	90	2
43	68	1
44	51	2
82	84	16
69	76	3
53	61	5
40	91	3
45	48	3
35	83	1
24	27	7
51	88	2
30	36	1
58	77	2
30	33	4
79	80	14
34	63	4
53	87	3
79	87	4
65	99	4
56	89	1
53	79	1
66	73	4
27	37	3
92	98	5
41	42	12
54	100	4
36	53	1
32	60	3
72	93	1
49	62	1
27	58	2
55	57	6
25	34	2
50	52	2
34	81	1
58	64	2
87	95	3
85	101	4
72	74	9
86	91	2
38	87	1
56	93	3
73	92	2
65	66	11
47	61	4
27	97	1
40	99	4
51	71	2
30	73	1
66	98	1
79	82	4
70	84	4
35	98	2
49	89	2
84	85	1
90	92	2
62	94	8
49	56	5
41	43	12
45	55	1
61	82	2
28	69	2
78	79	7
27	94	2
25	49	2
33	34	1
64	85	2
23	24	11
96	99	8
48	50	10
74	79	4
62	67	1
25	47	3
64	92	2
94	97	4
81	88	2
40	41	10
46	55	2
35	40	1
86	92	6
20	22	7
24	48	3
72	73	4
42	90	3
53	85	4
59	85	4
58	91	3
24	70	2
74	91	3
41	59	3
25	94	1
39	52	3
43	65	2
76	99	1
31	57	2
95	101	4
40	65	1
64	67	1
44	95	3
79	81	9
62	97	1
59	75	3
87	100	6
57	66	4
30	30	16
57	82	2
44	48	4
41	52	6
53	56	2
32	33	4
63	86	1
93	100	1
73	99	2
31	43	1
85	89	3
81	97	1
48	82	4
50	77	2
22	45	2
60	95	2
54	88	2
90	93	2
56	64	5
60	64	1
92	94	5
55	100	2
43	91	3
64	72	4
22	23	5
59	76	1
24	24	11
58	97	1
22	29	2
33	44	2
42	50	2
46	80	1
39	77	2
66	68	2
57	83	3
31	51	2
27	96	1
66	76	3
41	78	1
80	90	2
94	101	2
33	50	1
66	84	1
40	52	1
79	83	5
77	101	1
51	100	1
45	47	6
81	83	2
53	97	2
28	97	1
52	73	1
87	98	1
91	93	4
52	57	2
65	67	4
52	56	2
51	53	2
67	69	2
37	40	3
56	58	6
53	84	3
50	85	2
36	38	1
91	94	6
43	90	3
79	84	2
52	102	2
94	96	3
64	80	1
77	91	2
72	84	2
75	89	4
44	45	5
68	86	1
41	49	1
40	43	3
38	82	1
34	65	2
33	38	3
46	96	3
34	54	3
92	101	1
33	85	2
51	84	3
64	73	1
98	101	2
78	101	1
93	101	2
59	72	2
30	59	3
29	47	1
38	91	1
80	84	4
64	69	4
39	46	4
59	64	2
24	80	3
48	55	1
43	52	1
21	22	1
37	88	1
74	99	2
48	79	3
87	89	7
91	100	3
81	89	5
71	73	6
22	95	1
47	55	3
25	46	1
50	51	7
72	77	4
59	77	4
80	86	1
55	75	3
59	94	2
38	47	1
44	76	1
76	79	1
52	88	2
38	63	2
78	91	5
57	76	3
40	93	2
81	100	1
33	49	6
51	70	1
55	93	1
93	96	2
85	97	2
94	100	3
92	99	2
28	40	1
37	100	4
34	36	1
61	89	1
61	94	1
36	45	1
62	64	2
59	63	7
23	27	3
88	91	1
71	89	2
46	82	1
87	92	1
34	62	1
45	101	2
88	92	1
57	77	2
48	84	1
30	31	2
85	92	1
24	32	4
62	88	2
84	86	1
56	76	1
64	71	1
27	50	1
35	51	1
70	73	3
35	87	1
37	48	2
54	57	2
37	64	1
45	74	2
64	99	1
41	75	1
45	78	1
70	87	2
43	49	1
46	62	1
35	39	3
89	99	3
93	99	1
62	86	1
67	70	2
34	40	4
69	71	1
87	96	1
57	98	1
50	55	1
30	32	2
50	67	2
59	86	1
40	78	1
51	91	3
44	78	1
22	100	1
50	102	2
50	62	2
74	96	1
45	89	4
65	83	2
70	75	1
81	95	1
58	87	2
52	80	1
47	88	1
56	78	1
57	61	1
67	74	1
26	97	1
41	63	2
49	69	1
56	77	1
25	48	1
41	60	2
41	57	1
69	88	1
66	75	2
36	39	1
41	64	2
53	96	1
90	96	1
66	90	2
68	81	1
55	101	2
34	49	2
26	29	1
63	75	1
49	101	1
48	65	1
52	91	1
56	82	1
78	88	1
95	100	2
52	59	2
47	63	1
75	77	1
88	90	1
47	53	1
88	94	2
29	84	1
40	45	1
67	73	1
63	72	1
29	53	1
51	55	1
20	69	1
54	69	1
45	93	1
61	73	1
91	99	1
25	93	2
79	98	1
61	91	1
61	81	1
80	93	1
40	63	1
24	98	2
80	101	1
50	66	2
39	102	1
78	82	1
49	95	1
56	91	1
30	101	1
28	29	1
40	76	1
37	81	1
59	93	1
48	70	2
48	101	2
61	95	1
20	59	1
84	87	1
48	59	1
40	49	2
30	51	1
53	100	1
36	91	1
50	63	1
20	81	1
52	89	1
48	72	1
41	73	1
60	78	1
46	79	1
63	102	1
37	39	1
49	72	1
71	79	1
52	79	1
56	60	1
