56	56	10
85	90	1
93	94	5
159	159	12
34	35	7
87	87	4
79	80	4
15	16	14
119	119	7
152	172	1
30	30	10
3	3	18
143	143	8
161	161	5
120	148	3
134	135	2
111	113	3
1	1	11
126	126	15
143	148	1
106	106	12
80	80	15
36	36	31
22	25	5
66	66	4
23	31	8
38	39	7
33	59	4
10	10	29
17	40	1
53	53	11
33	33	31
23	23	11
137	152	3
113	113	11
72	72	25
27	27	13
14	16	2
165	165	8
36	37	3
43	43	18
149	149	10
30	35	2
59	60	4
124	142	1
24	36	2
37	38	11
150	150	17
137	137	11
111	111	7
76	76	12
139	141	2
62	63	4
71	71	12
93	93	6
139	139	15
37	37	27
8	8	20
71	73	3
171	171	5
148	148	15
5	5	19
9	10	15
31	32	11
167	167	8
3	4	12
25	26	21
42	42	14
116	135	2
28	28	9
22	22	12
21	21	13
140	140	14
64	64	7
0	1	15
3	46	3
117	119	2
173	174	6
17	17	16
121	121	17
52	52	7
96	96	19
105	105	5
170	170	12
169	169	12
21	22	11
135	135	26
63	63	10
135	167	5
168	168	9
86	87	3
16	16	20
134	134	15
96	118	2
78	93	6
17	18	8
24	26	2
17	52	8
130	131	7
95	95	8
60	60	17
89	89	8
14	14	24
161	163	3
110	111	3
138	138	12
65	65	9
142	142	8
154	178	2
7	7	19
90	90	16
173	173	17
67	68	5
24	25	12
26	27	4
75	76	4
6	8	5
99	109	2
57	57	10
102	102	11
55	57	4
145	145	4
40	40	21
29	29	5
103	103	17
174	174	11
91	101	1
153	177	1
147	147	3
0	0	14
166	166	11
124	125	2
2	5	7
115	135	1
32	32	22
81	81	5
114	140	3
146	149	4
23	28	1
11	34	2
22	23	3
5	6	3
118	120	3
171	172	8
98	98	12
146	160	5
31	31	31
142	143	10
153	153	19
177	178	2
141	141	10
20	21	9
2	2	16
35	35	21
59	72	1
96	98	4
132	132	9
18	18	15
154	173	1
83	83	7
6	6	26
154	154	9
74	74	7
44	44	9
38	106	4
2	11	1
70	93	1
12	12	7
11	12	7
11	11	17
172	172	14
68	68	6
82	128	3
67	67	4
57	58	5
125	126	4
159	171	3
73	73	9
115	116	4
70	70	5
155	155	9
88	88	5
16	38	1
37	39	3
41	42	17
125	125	6
162	164	7
139	148	4
3	34	2
137	139	6
171	173	2
172	173	4
152	167	2
38	38	30
118	119	4
85	126	2
122	123	15
50	51	5
169	170	2
8	41	2
10	40	1
151	151	17
18	43	1
94	94	17
126	131	3
77	78	5
178	178	10
52	53	2
10	11	9
100	100	7
124	124	5
98	113	2
123	123	9
14	15	13
82	82	3
146	146	5
158	159	4
159	167	1
177	179	3
12	83	3
131	131	10
177	177	11
39	40	9
23	24	12
157	157	8
12	13	5
20	20	10
13	15	2
58	59	2
158	158	13
4	5	2
15	15	36
128	128	4
149	150	6
162	162	2
139	143	1
83	85	2
153	176	3
152	152	7
45	45	6
6	13	1
5	15	1
79	93	2
163	163	4
126	127	9
19	19	20
118	118	14
78	78	5
58	60	1
109	109	5
16	17	12
167	168	2
110	110	8
60	61	4
57	59	1
79	79	5
8	9	9
52	54	3
101	101	15
90	91	3
157	158	6
89	90	2
59	59	6
51	113	8
55	56	3
61	61	6
24	39	1
153	154	1
9	9	21
39	39	19
114	116	2
81	130	1
95	122	1
94	115	4
81	124	2
136	140	4
78	79	5
96	112	2
95	106	3
168	172	5
30	31	7
131	133	2
29	31	1
16	26	4
150	173	3
85	125	3
162	163	1
24	24	7
86	86	3
73	78	3
131	132	4
129	129	11
29	49	6
128	130	3
44	45	2
4	45	3
7	8	4
140	168	2
133	134	5
153	169	7
5	30	2
58	76	1
18	42	8
52	57	2
139	140	1
176	176	8
123	125	2
13	13	10
148	151	3
65	67	1
31	35	2
95	119	1
104	105	5
75	75	8
127	135	5
180	180	4
148	149	3
3	63	2
55	55	8
85	85	1
26	109	3
2	3	3
80	85	3
71	72	2
26	26	7
159	160	4
78	106	2
6	7	3
27	29	4
73	103	3
42	43	3
1	19	1
25	28	4
72	77	5
156	156	3
140	141	9
25	30	2
175	175	4
121	122	6
122	122	5
43	59	2
143	145	3
134	159	2
26	36	2
116	117	2
149	167	1
51	51	8
142	148	2
42	154	3
29	35	3
148	179	1
113	114	4
112	112	5
93	123	6
150	151	1
138	148	2
138	179	1
147	148	2
114	115	4
148	169	3
19	34	2
91	92	2
134	136	1
34	36	1
62	62	5
106	107	2
114	126	1
111	140	2
92	92	2
10	13	3
9	19	4
137	138	3
71	76	2
160	160	3
96	97	6
58	58	3
24	27	5
43	44	2
136	136	8
160	161	3
163	164	3
130	130	6
19	20	4
66	67	6
12	14	2
50	50	10
77	79	1
54	65	4
152	153	3
98	109	2
32	33	3
79	125	4
141	142	8
21	33	1
179	179	11
54	54	11
115	115	11
153	168	2
65	102	1
10	39	1
58	90	3
27	32	1
21	25	1
30	51	1
84	87	2
156	178	1
72	73	4
16	18	3
56	57	3
132	149	1
140	167	7
13	14	5
157	159	3
127	161	3
147	164	2
82	83	2
92	93	5
15	19	2
17	37	2
155	156	2
31	60	1
128	129	1
120	144	1
168	170	2
91	91	3
116	116	3
105	106	2
5	7	1
38	40	3
135	136	8
144	147	1
18	20	3
4	4	4
10	14	1
134	139	1
15	20	4
139	170	2
114	114	2
77	77	4
65	66	1
121	131	1
29	30	3
51	114	2
126	168	1
24	34	1
13	17	1
153	170	3
1	2	2
135	168	3
1	35	2
73	74	3
64	65	1
130	149	4
99	99	3
34	34	7
20	40	3
137	167	1
84	84	2
133	138	2
76	77	2
124	139	4
144	145	3
170	174	1
25	25	2
120	120	3
152	173	1
12	24	1
62	91	2
80	81	1
16	40	2
65	90	1
10	37	1
49	50	3
134	167	1
105	135	1
128	140	3
58	72	1
15	43	1
153	171	4
107	107	2
135	140	1
161	162	1
49	49	2
2	4	3
138	147	1
100	101	3
16	27	1
44	49	2
74	102	1
35	36	3
133	133	4
17	31	2
11	23	2
108	108	2
107	108	1
53	99	1
175	176	1
104	104	4
165	166	4
142	149	2
166	167	1
8	40	2
2	64	1
17	28	1
41	41	5
61	64	1
17	102	1
83	84	3
74	78	2
132	133	3
14	22	3
25	27	3
95	96	1
151	154	2
137	148	2
6	9	1
97	97	5
127	131	1
10	92	2
9	20	1
146	147	1
36	38	2
96	115	2
88	91	2
29	51	1
10	12	1
122	131	3
145	146	2
130	143	1
151	152	3
87	122	1
145	162	1
2	7	2
136	158	1
120	151	2
17	39	2
154	177	1
118	140	1
19	44	1
176	177	1
130	136	1
20	33	1
108	109	1
98	99	2
101	102	2
22	32	2
89	117	1
152	170	1
119	120	1
62	68	1
3	8	2
129	130	1
4	7	1
88	121	1
125	166	1
136	139	1
102	103	2
64	89	1
37	41	1
23	40	3
143	144	2
139	162	1
16	43	1
152	154	1
127	127	2
1	33	1
8	44	1
136	141	1
144	166	1
144	144	1
28	93	1
85	86	1
84	122	1
53	56	1
123	149	1
84	86	1
4	46	1
11	50	2
39	114	1
20	25	2
155	178	1
117	147	1
150	169	1
56	107	1
94	102	1
98	101	1
23	34	1
168	169	1
18	45	2
8	38	1
0	89	1
168	171	1
97	115	1
82	85	1
94	100	1
35	57	1
136	137	1
13	35	1
121	148	1
