59	59	13
30	30	17
88	88	35
97	97	14
38	38	6
52	52	32
102	102	11
74	74	21
80	80	12
69	69	21
60	101	1
29	29	4
90	90	23
41	41	25
20	20	2
94	94	11
70	70	18
63	63	21
87	87	22
45	45	22
44	44	21
56	57	7
92	92	18
54	61	2
89	91	5
61	61	14
47	47	11
88	96	5
84	84	13
51	78	4
95	96	19
73	80	6
46	47	6
49	90	3
42	43	5
94	96	8
55	61	1
73	73	19
47	48	24
71	80	3
67	67	26
58	58	19
85	85	24
87	96	1
25	25	4
69	70	8
96	96	12
67	68	3
70	84	4
60	86	1
39	39	26
51	51	6
55	56	8
90	91	2
32	35	1
31	31	13
39	40	3
64	76	5
52	94	4
36	36	12
42	42	22
68	68	43
86	86	18
99	99	13
81	81	22
49	49	41
60	60	17
87	93	3
101	101	15
76	76	22
50	50	17
48	48	22
44	45	1
89	89	24
25	26	5
57	57	31
90	101	4
25	27	6
53	53	15
82	82	4
75	76	2
33	90	1
91	91	18
66	68	1
65	65	9
66	66	17
33	91	2
86	87	3
55	55	22
56	56	6
79	79	16
62	62	22
46	46	16
44	69	6
77	77	19
43	43	12
93	93	8
29	31	9
87	88	5
56	92	4
29	30	11
27	60	2
54	55	6
41	42	4
93	94	6
66	75	2
64	64	24
85	99	3
24	24	6
97	99	1
20	22	2
50	51	4
70	71	12
54	54	23
40	40	13
22	23	1
82	84	4
61	62	3
72	72	11
37	38	7
75	75	8
53	90	2
60	99	1
85	86	3
69	71	3
72	73	2
98	98	7
55	99	2
80	81	7
37	37	17
101	102	3
100	100	22
48	50	1
71	72	3
49	50	6
43	44	1
35	35	4
63	67	4
23	29	1
86	92	5
35	36	3
86	88	6
96	98	4
31	58	4
98	99	5
28	28	5
47	91	1
61	100	2
83	83	15
52	53	3
48	57	5
26	27	4
34	34	6
31	52	5
59	60	2
51	52	3
33	34	7
31	32	2
65	66	3
68	74	1
33	33	16
91	92	2
81	95	6
95	95	16
32	37	4
61	63	2
49	67	4
88	89	2
34	42	2
32	32	3
79	80	14
100	101	5
35	71	2
94	97	2
24	26	4
91	99	3
32	33	3
92	93	6
42	65	1
70	72	4
62	63	2
81	83	5
27	27	12
78	79	2
91	97	1
81	82	2
57	58	1
43	68	8
42	64	3
84	95	1
60	61	3
76	77	3
95	97	3
25	60	1
37	96	3
99	100	4
52	85	1
96	100	4
62	73	2
48	49	2
80	83	1
97	98	9
77	78	2
58	59	4
60	93	2
42	66	2
42	50	3
62	67	1
30	37	2
78	78	7
35	38	3
39	42	1
35	69	5
56	101	3
25	28	2
41	43	4
57	59	2
89	90	1
93	98	2
87	92	1
99	101	3
52	68	1
31	60	3
53	88	2
54	80	1
82	86	4
96	97	2
53	60	1
20	39	3
95	98	2
53	55	4
74	75	4
23	23	1
67	74	1
52	97	3
26	28	1
38	39	1
27	28	1
51	62	1
62	90	1
54	82	2
22	22	4
51	60	1
39	55	1
45	67	1
29	32	1
47	49	1
63	86	3
45	68	1
55	84	1
23	26	2
83	84	1
64	79	1
65	85	1
52	58	1
93	101	1
83	95	1
20	24	1
51	100	1
52	60	1
92	94	1
26	26	2
84	96	1
65	81	1
53	99	1
71	74	1
43	71	1
55	62	1
35	43	1
40	101	1
64	78	2
66	85	1
89	92	1
52	99	1
94	95	1
