105	105	2
49	49	14
27	33	2
39	39	4
46	46	4
56	56	8
23	23	4
21	21	11
100	105	1
63	81	2
60	63	10
103	103	8
21	22	1
61	61	3
40	85	2
76	76	12
22	22	7
45	49	4
75	75	10
40	40	3
43	44	4
114	114	2
74	74	9
109	109	11
37	37	8
58	59	4
94	96	2
62	63	5
46	48	5
100	100	8
42	42	1
29	29	9
41	41	9
66	66	1
74	105	2
65	66	1
84	84	7
34	34	5
113	113	8
101	101	5
30	30	10
35	36	4
27	27	7
34	37	5
78	79	2
101	102	6
44	46	1
35	35	3
27	71	2
108	108	1
34	60	1
31	33	1
33	33	12
110	110	9
64	71	2
63	64	1
45	74	2
90	90	5
52	52	16
95	97	6
45	46	5
73	73	3
61	62	1
44	44	3
30	31	3
99	99	8
86	88	1
95	95	3
91	91	3
66	67	4
32	32	9
69	69	7
79	79	3
38	56	1
70	70	2
45	45	9
20	20	5
25	25	4
94	94	2
48	48	3
78	80	5
26	26	1
111	111	5
48	50	1
91	99	1
99	106	2
43	95	1
30	32	4
98	98	10
78	78	2
70	71	1
101	103	2
92	92	3
89	89	4
113	114	4
51	51	9
82	82	11
111	112	1
22	23	3
92	93	1
28	30	1
98	99	3
97	98	2
71	71	1
36	39	1
38	54	1
87	88	2
67	67	5
47	48	1
97	97	9
99	107	2
106	106	2
82	84	3
59	59	2
42	43	1
64	64	8
30	34	1
112	113	4
45	92	3
96	97	1
87	91	1
43	43	6
93	93	1
59	60	1
31	31	1
85	86	3
62	64	2
97	101	1
93	94	1
54	56	1
83	83	2
84	90	3
44	45	4
55	56	3
115	115	1
58	58	5
26	27	1
41	42	3
100	101	2
50	50	8
35	58	1
34	35	1
53	59	3
85	85	4
86	87	4
105	107	1
38	38	2
114	115	2
68	68	4
72	72	3
26	30	1
102	102	2
73	74	1
49	50	1
80	80	3
19	19	1
69	70	1
112	112	1
60	60	1
53	60	2
95	101	1
88	89	1
36	37	1
22	28	1
95	102	1
54	55	2
62	62	1
80	81	1
102	103	3
57	57	2
21	23	1
89	102	1
36	36	2
93	102	1
39	54	1
80	82	1
90	91	1
51	52	1
77	80	1
47	47	1
50	51	1
104	104	1
22	26	1
67	70	1
59	64	1
50	73	1
72	74	1
