215	227	5
76	79	3
20	20	11
96	99	4
11	11	7
170	170	8
64	65	8
156	174	1
186	186	2
160	160	3
237	237	8
61	61	3
242	242	9
43	43	5
203	203	13
152	182	7
233	234	6
187	227	5
41	202	3
44	44	5
86	86	7
8	46	4
72	73	3
217	217	8
197	197	9
100	100	8
223	223	5
208	208	15
158	158	10
174	175	3
146	146	5
102	103	8
54	54	5
112	112	7
22	22	5
200	200	12
183	184	9
29	34	2
33	38	1
42	235	2
236	236	13
25	25	3
41	41	10
211	211	3
84	84	7
157	158	3
3	17	4
50	86	2
166	166	7
171	171	3
60	60	5
28	28	15
219	220	3
113	113	4
163	164	8
78	78	2
199	230	2
204	233	1
224	224	7
218	218	9
193	193	9
204	242	4
152	160	1
209	209	13
98	98	2
77	78	8
187	187	5
181	181	3
158	166	1
94	94	1
224	225	5
186	220	3
88	88	13
9	9	11
43	44	3
16	16	16
229	229	4
204	204	7
85	85	5
215	215	1
40	40	2
10	10	10
88	113	1
4	4	2
173	173	9
1	1	4
50	50	7
76	77	5
34	187	1
69	70	5
192	192	5
84	152	3
175	179	4
70	70	5
195	195	6
158	216	2
153	164	1
97	97	1
1	7	2
81	83	3
155	155	7
65	72	1
241	247	4
59	115	3
29	79	2
151	151	4
12	12	4
102	102	4
18	18	5
201	202	1
24	53	3
193	194	2
118	119	4
155	228	4
172	172	4
27	27	3
49	241	4
92	94	6
97	98	3
175	176	10
107	107	9
191	216	1
89	95	2
3	6	3
194	230	1
23	23	13
116	116	5
119	119	9
157	157	3
210	210	4
230	231	1
147	214	1
210	212	3
96	96	2
230	233	1
5	5	5
118	118	6
244	244	3
216	218	3
165	165	12
55	70	4
24	24	1
76	76	16
42	120	3
91	91	3
59	59	3
189	189	4
3	3	2
90	90	4
49	111	3
98	105	1
169	170	4
246	246	5
72	100	2
7	7	8
216	216	8
243	243	1
100	109	3
176	176	6
58	58	6
76	118	1
197	198	2
154	154	5
99	99	5
205	205	5
104	106	1
157	159	2
62	62	9
63	63	3
162	165	1
104	104	2
199	245	2
52	52	5
226	226	4
83	83	5
180	181	1
117	236	2
178	178	4
144	144	1
235	235	1
231	237	6
32	32	8
222	224	1
226	227	2
26	26	6
199	199	1
163	163	5
202	202	9
51	63	3
152	166	4
191	191	4
109	109	8
178	179	4
182	182	4
201	201	7
65	65	4
221	221	2
119	234	2
159	160	1
154	187	5
89	98	3
167	169	2
65	67	3
8	8	7
111	112	2
104	107	1
146	228	1
180	180	7
185	190	1
240	247	1
82	83	7
115	116	2
231	231	6
49	49	3
17	28	2
186	190	1
82	82	6
111	111	5
185	193	2
165	166	2
91	186	2
49	240	4
214	214	7
199	211	3
218	219	6
53	92	1
190	190	6
182	183	3
68	116	1
222	223	1
106	106	1
17	17	7
177	177	4
31	31	3
111	246	1
146	158	2
33	114	1
25	39	2
38	39	3
48	48	1
39	39	2
48	79	1
55	59	2
247	248	3
164	165	1
188	188	2
35	91	2
152	159	1
67	68	2
19	19	3
209	214	3
29	29	7
5	6	1
159	159	3
239	239	3
160	166	3
196	196	5
81	88	6
50	59	4
101	101	4
246	247	3
55	71	1
30	30	1
191	195	3
11	16	1
153	153	3
8	117	1
162	162	7
173	180	1
114	115	3
77	77	6
183	183	3
47	50	2
117	117	4
232	232	1
225	225	3
80	80	5
219	219	5
68	69	1
63	65	3
78	79	2
165	168	2
208	209	1
237	238	1
112	118	2
180	184	1
206	207	7
56	56	3
227	227	1
152	152	2
167	167	2
93	118	2
162	228	5
193	195	1
213	213	4
147	147	4
242	244	4
170	176	2
54	115	2
105	108	1
34	34	4
51	62	7
236	240	1
93	94	2
214	215	1
172	174	1
164	164	6
185	185	2
22	23	1
187	228	1
6	6	3
208	214	1
46	147	2
52	240	3
245	245	3
245	246	1
217	218	2
145	178	2
111	119	2
31	32	1
210	211	1
79	84	2
172	173	1
235	236	1
156	184	2
68	115	3
89	90	3
111	247	2
213	214	1
53	53	2
197	213	1
189	190	4
51	54	2
12	205	1
35	35	4
37	37	2
92	115	1
36	213	1
156	157	3
29	30	1
37	80	3
238	238	5
154	212	3
68	68	3
84	85	1
85	186	1
146	154	2
242	248	1
110	111	3
207	216	1
244	245	1
192	212	1
47	47	7
200	201	1
236	246	1
115	115	2
47	85	1
176	177	2
14	14	1
57	57	3
181	213	1
92	92	2
110	247	2
162	219	2
33	33	6
156	156	3
208	211	2
150	150	1
76	152	1
228	228	6
230	230	4
33	115	1
95	95	2
57	64	1
70	81	3
164	212	1
177	178	1
185	228	2
62	70	1
71	210	1
207	208	1
80	99	2
155	171	2
79	79	2
87	87	2
16	181	1
44	45	2
162	163	3
26	27	1
36	212	2
205	230	1
222	222	4
160	219	1
191	194	1
166	189	2
166	167	2
10	234	1
172	231	3
84	93	4
108	108	1
173	174	2
178	216	1
60	117	1
223	224	3
184	196	3
42	43	1
88	90	2
184	184	1
247	247	1
80	81	4
78	113	1
101	102	1
61	104	1
196	197	2
232	233	1
71	77	2
220	243	3
234	234	4
98	102	2
175	175	1
167	200	2
83	105	1
21	21	1
179	179	2
149	149	2
93	93	2
89	89	1
38	38	1
241	241	3
8	153	1
164	241	3
64	64	1
222	227	1
244	248	2
234	235	1
45	45	1
14	36	2
46	92	1
28	55	1
107	114	2
56	236	1
35	84	1
73	74	2
35	188	3
161	161	3
51	51	1
46	46	1
15	15	3
110	110	4
63	66	1
225	228	1
62	147	1
198	198	2
55	55	1
67	167	1
169	175	1
209	236	1
186	192	1
72	72	1
221	230	2
163	165	2
41	42	1
68	76	2
113	249	1
194	195	2
74	74	4
170	188	1
157	210	1
161	162	1
180	183	1
31	34	2
95	97	1
75	119	1
36	38	1
37	38	1
206	206	2
162	212	1
239	240	1
71	72	2
188	190	1
169	228	1
212	213	1
43	45	1
216	217	1
206	232	1
114	114	2
86	87	1
51	59	1
167	211	1
217	219	1
30	70	1
203	204	1
46	145	1
43	226	1
24	25	1
9	10	1
112	119	1
240	240	1
40	45	1
159	166	1
232	234	1
66	66	1
6	45	1
74	197	1
152	177	1
80	103	1
121	159	1
80	90	2
237	243	1
195	213	1
2	2	1
168	168	1
120	120	1
11	146	1
61	62	1
95	99	1
29	54	1
80	89	1
15	68	1
