93	93	6
83	84	5
117	117	10
128	129	6
88	91	1
79	84	3
81	101	4
117	118	1
92	92	3
20	34	7
125	125	14
127	127	5
119	120	6
123	123	5
112	112	4
106	108	2
36	36	10
11	11	7
20	20	4
73	103	2
19	34	1
4	4	7
75	75	4
139	139	10
1	2	5
130	130	14
126	127	5
85	85	7
76	76	2
98	99	2
24	24	5
75	86	2
129	140	1
108	108	5
0	1	5
124	124	7
99	99	6
90	90	11
8	10	2
29	30	1
89	89	3
118	120	2
18	18	3
135	135	15
103	103	5
37	37	12
126	126	5
73	126	1
96	104	4
75	77	2
134	134	12
72	78	2
71	71	5
123	124	2
128	128	12
83	83	3
91	91	6
118	118	5
83	116	2
119	135	3
21	21	11
139	140	1
19	19	7
125	126	4
5	6	2
103	105	2
73	125	5
138	139	2
35	35	6
4	31	2
88	92	1
137	137	6
87	88	6
8	8	2
116	117	4
19	20	4
129	130	4
32	32	3
18	19	6
0	0	3
113	113	4
118	119	7
120	120	5
7	9	2
109	109	5
114	117	2
98	98	2
119	121	3
26	26	4
84	84	3
4	5	3
95	95	6
121	121	8
1	8	3
132	132	7
27	27	4
136	136	7
71	123	1
16	17	4
94	94	3
131	131	10
105	106	4
10	11	1
112	127	3
80	80	2
12	19	1
31	33	2
85	86	2
98	125	2
111	111	11
108	112	2
112	122	1
34	34	6
9	9	4
110	110	2
120	121	4
114	128	1
88	88	3
77	80	3
74	75	1
116	116	8
76	77	3
31	32	3
16	16	10
110	111	3
87	90	1
98	114	2
107	129	1
96	96	3
81	83	3
113	114	2
133	133	4
34	101	1
101	101	5
82	118	1
78	78	1
12	12	4
80	115	2
102	102	5
120	123	2
1	12	1
13	14	1
25	27	2
95	96	4
140	140	3
14	28	1
125	129	2
119	119	2
104	105	1
97	98	1
14	16	1
10	12	2
104	107	2
8	9	4
38	38	5
97	97	4
30	30	1
10	10	4
14	14	4
7	8	3
12	14	3
84	85	4
21	23	2
100	100	3
24	25	5
85	102	2
105	105	4
18	20	1
106	107	4
94	95	3
92	119	1
17	17	1
107	107	7
122	122	6
121	122	2
77	78	1
73	87	1
31	31	4
7	7	3
13	13	5
99	100	4
104	121	1
82	85	5
29	29	3
74	74	2
121	123	1
33	33	5
87	122	3
126	129	1
11	25	2
6	6	5
7	14	4
101	104	4
121	125	3
90	91	1
15	26	1
82	82	3
138	138	3
8	13	2
108	109	2
111	112	1
18	34	2
75	76	1
100	101	1
87	120	1
2	5	1
106	106	1
73	74	1
81	81	2
93	94	1
87	87	1
89	90	2
80	104	1
129	129	3
100	102	1
26	27	1
135	137	1
104	104	1
28	30	1
35	36	2
92	93	2
37	38	2
9	10	1
75	88	1
125	127	1
30	31	1
3	3	1
73	73	1
2	11	2
97	99	5
120	122	2
28	28	1
96	97	1
6	8	1
35	102	2
21	22	1
15	15	1
33	34	1
75	99	2
115	115	1
73	78	1
10	23	1
136	137	2
34	35	1
27	28	1
112	123	1
91	130	1
25	26	1
91	92	1
131	134	1
122	124	1
