69	69	8
79	79	14
85	85	10
47	47	12
41	41	19
43	43	11
51	51	19
90	90	16
79	80	8
82	82	7
40	71	2
43	55	3
29	30	1
89	90	12
92	92	21
48	49	6
86	88	1
53	53	19
50	50	17
60	60	16
42	43	9
55	55	6
68	68	5
38	38	13
99	99	13
64	65	5
25	25	3
52	52	7
44	44	19
55	57	2
40	41	4
81	81	16
101	102	6
70	70	8
77	78	1
45	45	9
56	56	5
58	60	1
95	95	7
78	78	20
61	61	14
33	33	13
66	66	18
50	51	5
48	50	4
40	99	3
75	75	15
49	50	12
84	84	4
63	64	4
88	88	9
34	34	5
54	55	3
64	64	13
71	72	9
101	101	5
35	35	10
37	37	6
98	98	5
40	49	3
59	59	13
39	40	2
57	99	1
72	72	14
40	42	3
66	67	2
96	96	10
61	63	3
43	64	4
58	58	17
57	57	12
25	26	3
42	42	9
46	46	2
93	93	9
27	27	5
95	97	2
80	86	1
69	70	7
102	102	6
54	54	7
97	97	4
65	65	11
67	67	12
56	57	3
73	73	12
86	86	13
46	47	4
85	90	2
76	78	2
80	102	2
86	96	3
45	46	1
100	100	4
91	91	12
39	74	1
83	83	4
51	52	5
46	48	2
84	88	3
34	35	2
71	71	6
35	36	2
59	75	4
88	98	1
78	99	3
63	63	12
60	61	9
80	80	9
48	48	2
39	39	13
82	83	2
59	60	1
81	100	3
49	49	4
39	45	1
80	81	6
93	94	2
49	51	1
40	40	13
77	77	14
21	22	1
98	100	2
95	96	2
26	26	4
73	74	1
22	22	2
67	68	4
76	76	7
87	87	5
95	101	1
41	43	2
41	42	2
32	51	1
58	75	2
86	87	5
47	48	2
27	28	3
74	74	9
86	89	2
71	73	2
26	27	1
89	89	11
87	88	3
62	62	4
99	100	3
57	62	1
91	99	1
92	93	4
58	59	3
86	90	1
79	82	2
28	28	3
36	36	2
42	65	2
22	88	2
68	69	3
89	91	1
83	90	1
96	97	2
34	36	2
42	64	1
62	90	2
74	75	2
90	91	5
86	91	1
97	100	1
97	98	1
78	80	4
31	31	4
52	55	2
24	27	1
35	37	1
42	44	2
56	60	1
46	55	5
91	92	4
94	98	5
52	53	4
61	62	3
35	52	4
62	63	2
68	72	1
75	76	2
35	45	1
27	36	1
50	64	2
94	94	1
33	34	2
85	86	1
70	72	1
62	92	1
41	64	4
79	87	1
53	61	2
87	99	1
67	72	2
76	77	1
31	41	1
33	51	1
53	54	2
44	54	1
39	56	1
87	100	1
46	54	1
29	29	1
60	62	1
87	97	1
72	80	1
94	95	1
45	51	1
32	32	1
100	101	1
24	25	1
63	71	1
99	101	1
65	76	1
57	58	2
46	53	1
44	55	1
20	22	1
79	81	1
49	63	1
87	95	1
79	102	1
55	56	1
