126	126	14
78	106	2
73	93	5
17	17	6
36	37	2
109	109	5
21	21	5
77	120	4
13	13	8
94	94	9
16	16	7
75	75	9
72	73	1
98	98	5
7	7	5
100	102	3
34	34	18
84	86	4
30	30	8
9	9	4
21	22	4
138	138	8
125	125	8
74	74	16
93	93	7
114	114	3
108	116	4
117	117	14
5	33	2
101	101	7
106	106	13
7	8	4
102	104	6
108	108	4
16	29	4
131	131	8
115	119	1
118	119	16
14	14	14
37	37	10
128	129	13
74	86	2
23	23	5
101	111	2
77	77	9
135	135	12
6	6	4
134	134	15
139	139	12
29	29	3
108	109	6
103	107	2
122	122	6
134	135	4
137	137	13
135	139	5
107	107	7
78	85	1
15	16	3
137	140	3
103	103	14
28	28	10
137	138	8
1	2	3
79	79	9
92	92	8
3	3	4
84	85	3
6	29	1
98	99	2
24	26	8
1	1	5
18	18	26
76	76	12
124	125	2
80	80	13
109	110	1
30	84	2
19	25	1
81	81	7
113	113	3
94	95	5
5	5	8
96	111	4
16	31	2
20	20	14
127	136	3
90	90	5
132	132	6
10	14	4
15	15	10
17	18	4
76	82	3
12	27	2
0	0	13
21	37	1
104	113	2
73	74	2
83	83	14
18	21	4
133	133	15
117	118	8
102	102	4
4	30	2
126	137	2
10	12	1
116	116	12
2	109	1
19	26	9
73	73	4
120	122	2
7	27	2
25	25	5
36	36	4
78	78	12
27	27	4
130	130	15
93	119	1
85	86	3
15	19	2
77	78	2
84	84	7
129	130	4
19	19	10
108	110	3
95	95	4
120	120	8
124	124	15
96	96	7
80	86	3
1	105	2
135	136	7
97	97	4
105	105	6
26	26	4
114	116	2
30	31	1
82	82	8
12	12	4
98	102	1
2	2	11
35	35	12
10	10	14
30	32	4
102	119	1
76	106	2
140	140	15
5	24	3
11	12	2
87	87	2
2	3	4
20	66	1
4	5	2
19	24	2
102	111	3
101	104	1
29	83	1
3	23	2
83	84	3
72	72	5
91	94	2
123	123	6
136	139	2
8	8	8
104	104	6
100	100	5
9	10	3
106	107	4
127	127	4
80	93	1
72	78	1
112	112	5
132	133	7
9	20	8
121	121	10
13	38	2
105	107	2
33	33	4
78	80	1
28	104	5
120	123	7
10	27	1
86	87	3
78	84	2
22	22	7
7	21	1
75	76	5
79	80	2
125	129	1
29	30	2
93	97	1
122	124	2
124	126	2
13	14	2
11	14	6
86	86	5
89	89	5
29	31	3
121	122	2
88	89	3
101	108	1
104	109	2
72	76	2
29	104	4
73	123	1
77	84	1
82	86	3
20	25	6
71	72	3
0	1	3
119	119	3
15	112	1
85	120	1
37	97	1
15	29	4
129	129	3
14	16	2
118	121	2
5	26	3
106	109	2
92	120	2
16	32	1
11	11	5
27	30	2
93	105	1
73	84	2
22	25	1
5	23	2
116	117	2
110	111	4
101	123	2
78	79	1
113	118	4
4	4	3
128	128	5
15	20	3
24	24	2
115	117	1
85	87	3
119	120	1
136	138	1
3	22	1
17	32	1
115	115	4
1	22	1
111	111	1
103	113	2
91	91	2
71	71	2
10	11	3
34	97	2
15	28	1
123	131	1
81	86	2
32	32	2
71	75	3
32	84	1
105	106	2
102	114	2
81	83	2
31	31	1
138	141	1
22	24	1
72	80	1
19	31	1
6	32	1
138	139	1
136	137	1
14	20	2
6	8	1
6	7	2
5	8	2
104	107	2
109	111	2
9	11	1
6	80	2
127	128	2
74	106	1
38	38	3
96	116	3
90	91	2
23	24	1
117	119	2
97	116	1
8	23	2
2	28	1
7	14	1
88	88	1
73	116	1
72	75	1
9	19	1
110	110	1
85	85	2
104	105	1
131	132	1
114	115	1
77	82	1
125	126	1
103	108	1
136	136	1
125	127	1
18	22	1
118	118	2
29	84	1
17	38	1
80	81	2
112	113	1
95	96	1
77	108	1
134	137	1
25	26	1
80	106	1
5	110	1
101	102	1
101	122	1
