86	86	16
76	76	11
99	99	20
63	63	28
81	81	10
34	39	2
73	73	28
65	66	11
101	101	22
92	92	31
50	66	4
57	57	32
79	79	17
72	73	8
46	46	10
59	59	28
51	52	13
59	69	8
88	88	22
48	63	3
89	90	8
86	88	4
75	76	8
83	86	1
98	98	31
53	82	4
98	100	3
37	37	16
58	61	3
26	26	10
35	36	15
60	84	4
41	42	4
100	100	35
58	58	19
90	90	27
51	51	8
64	64	12
94	94	17
46	53	1
48	48	18
47	48	7
68	68	13
36	36	13
60	60	26
55	55	20
52	53	6
87	89	7
73	101	1
70	70	24
66	67	4
77	80	3
95	97	2
65	67	6
36	38	2
43	44	8
61	61	20
77	78	5
42	42	12
38	39	3
42	43	7
30	30	3
62	102	1
74	75	6
66	66	12
78	78	17
67	67	12
86	87	6
100	101	10
75	75	21
69	80	3
38	38	11
48	51	7
35	35	8
99	101	5
83	84	5
44	44	11
52	83	6
62	62	19
83	83	6
40	48	3
50	51	8
73	74	8
87	87	16
81	83	1
79	80	6
33	33	13
43	43	23
59	85	1
74	74	20
52	52	10
38	45	1
63	64	8
39	39	14
40	40	12
34	34	22
45	46	2
89	89	11
31	32	3
95	95	5
34	35	8
49	49	18
96	97	9
25	25	13
89	93	2
62	63	17
63	70	1
74	85	2
91	93	1
85	86	6
71	71	18
22	22	6
72	72	8
39	40	3
56	57	10
29	29	3
28	28	2
59	60	1
41	63	1
60	94	1
62	72	2
96	96	7
42	67	2
57	58	11
45	45	12
55	60	1
86	96	2
70	71	6
93	93	13
56	60	3
41	41	8
91	91	20
95	96	5
65	65	9
47	47	15
58	59	2
39	49	3
69	69	18
54	54	6
39	52	2
56	56	19
47	50	1
31	31	9
24	27	4
89	91	2
67	70	1
91	92	5
83	88	9
92	94	4
61	62	4
35	37	5
46	48	2
80	80	10
55	57	4
40	41	5
93	94	4
77	77	14
53	53	3
88	89	7
99	100	5
53	93	1
55	56	5
87	90	2
93	97	4
34	53	3
78	79	3
66	68	3
47	49	3
73	100	2
69	70	14
39	51	5
84	84	14
52	55	2
45	47	3
58	86	1
101	102	5
45	49	3
54	55	8
87	88	7
44	45	7
27	27	1
60	96	1
51	79	1
58	60	7
85	89	2
81	82	6
82	82	7
80	82	4
49	59	2
67	69	1
67	68	6
48	59	3
56	65	3
85	97	2
46	66	1
84	88	3
69	71	5
69	72	2
53	55	7
49	50	13
50	50	14
56	58	4
34	52	5
52	78	1
23	23	2
96	98	7
23	25	6
84	94	4
52	62	5
68	69	1
46	47	14
41	44	2
76	77	8
36	55	1
24	24	3
32	32	4
33	34	2
72	78	4
89	92	2
29	30	1
22	24	1
51	61	1
87	95	1
82	83	1
25	26	1
60	61	1
34	54	2
43	70	2
64	99	1
35	52	1
71	73	1
59	101	2
40	44	1
30	42	3
85	87	2
57	69	2
50	54	4
52	56	1
75	78	5
48	49	7
38	55	1
97	97	10
81	94	3
90	91	1
41	68	1
95	98	2
71	99	2
51	54	3
96	99	1
85	85	3
58	64	1
40	42	2
79	81	2
70	101	1
37	38	3
80	81	7
93	95	1
71	72	2
20	22	2
58	85	1
41	52	2
57	59	1
59	61	3
84	95	2
84	85	2
38	49	2
79	83	1
85	91	4
89	98	2
44	67	5
53	54	4
81	92	2
102	102	4
27	28	2
68	71	2
64	65	1
63	65	3
37	39	2
93	99	1
84	93	2
80	93	1
58	92	1
92	93	3
76	82	2
94	95	2
57	61	2
94	96	1
59	87	2
52	54	1
97	98	2
85	90	1
68	91	1
78	80	1
23	24	3
39	47	1
94	98	1
63	101	1
26	28	1
56	61	1
38	46	1
53	81	4
52	60	1
43	47	1
42	44	2
20	20	1
31	55	1
87	92	1
37	52	1
42	74	1
83	95	1
49	58	1
87	98	2
91	99	1
45	66	1
96	100	1
93	102	1
34	37	1
82	84	1
57	94	1
55	63	1
