17	55	6
18	18	4
74	75	7
10	10	5
8	8	7
50	50	11
60	60	3
18	56	2
83	83	3
6	7	3
81	81	14
0	0	6
57	57	6
25	26	3
56	56	11
13	17	2
13	13	8
5	64	2
15	27	5
56	78	7
54	78	5
77	86	1
76	76	6
6	8	1
17	17	4
6	6	2
82	84	2
57	87	3
29	29	3
49	64	4
71	71	6
5	48	1
68	68	10
62	63	4
66	66	10
53	55	2
58	58	5
77	77	7
47	48	3
9	9	8
63	63	1
17	31	8
27	27	18
25	25	3
67	67	12
61	61	4
65	66	5
24	24	8
13	46	2
72	72	7
79	80	3
14	14	7
60	63	2
67	68	5
22	27	1
13	33	3
15	15	5
78	78	7
79	79	4
28	28	13
60	62	4
34	34	5
9	72	1
49	55	4
17	19	3
17	18	3
66	72	1
79	82	2
17	73	2
50	84	1
8	12	2
4	84	1
80	81	4
77	79	4
12	74	1
49	63	2
19	19	5
32	73	2
0	15	3
30	30	4
64	65	1
15	16	3
6	46	4
20	20	7
48	51	5
46	48	8
26	26	3
6	49	3
14	23	5
46	47	1
1	1	9
57	70	1
8	13	2
59	60	5
54	89	2
65	65	3
49	62	1
59	59	1
70	70	3
52	52	8
0	2	2
23	23	6
88	89	4
53	83	5
12	12	3
8	9	2
9	13	5
78	79	1
0	1	3
67	85	2
11	12	7
72	73	1
51	53	2
47	47	9
69	69	6
73	73	2
75	81	2
74	74	6
31	31	4
23	24	3
4	4	4
48	48	5
66	67	2
14	15	2
52	53	1
16	19	1
49	52	2
17	22	2
75	75	4
77	84	1
4	67	3
55	59	2
84	84	2
82	82	3
11	73	1
34	61	1
34	46	1
75	84	5
20	27	1
50	82	3
87	89	1
21	21	4
24	25	1
71	73	3
26	27	3
17	52	1
29	30	2
5	13	2
72	77	3
85	85	6
87	88	4
64	64	4
51	51	3
20	23	3
49	54	1
86	86	3
49	53	1
81	82	1
65	67	1
87	87	1
20	22	2
74	84	2
22	22	1
55	66	4
57	75	2
75	80	1
20	21	2
47	58	2
54	62	2
3	4	5
48	63	1
80	80	2
63	66	2
16	16	3
31	72	1
55	79	1
19	34	1
59	63	4
74	81	2
3	11	1
2	24	2
10	22	1
2	2	1
50	51	2
5	5	1
33	62	1
54	76	3
30	31	2
57	58	2
6	53	2
49	50	1
51	52	1
82	83	1
27	28	2
1	2	1
89	89	2
60	61	1
