90	90	11
196	197	6
46	46	25
89	90	3
203	204	8
59	60	3
117	117	21
97	97	5
242	243	2
205	205	22
111	111	20
155	155	28
186	186	18
205	224	3
166	166	15
33	33	20
247	247	13
150	150	37
242	242	6
119	119	11
11	11	23
33	34	8
159	159	13
160	160	12
228	228	13
240	240	14
72	73	5
38	38	8
198	199	7
54	54	12
108	108	12
172	174	1
217	238	1
193	195	1
113	114	11
36	36	11
157	157	20
73	75	12
94	94	25
17	17	30
101	101	17
182	182	15
223	223	18
48	48	9
5	48	1
88	88	21
45	45	21
55	55	10
7	10	3
14	15	4
26	26	17
49	49	21
51	57	2
222	223	5
44	81	1
152	156	2
32	33	3
25	25	8
110	110	20
192	193	1
157	192	1
193	193	29
49	50	8
151	151	19
57	57	13
227	227	23
243	243	3
219	219	18
81	81	6
51	51	13
23	24	2
54	55	5
69	71	6
184	242	3
152	181	7
104	104	7
20	20	19
71	72	4
153	153	29
43	43	10
194	196	5
47	47	10
168	174	4
215	215	5
112	176	2
177	177	19
158	158	13
213	213	26
31	38	2
208	210	2
6	6	16
190	191	11
10	10	22
185	185	18
180	209	1
180	180	16
55	57	3
87	104	3
218	218	12
204	205	19
247	248	4
159	160	11
116	117	12
114	114	26
78	78	4
32	103	1
29	232	4
96	96	17
3	3	13
203	205	7
32	32	25
160	244	3
45	203	5
203	203	20
210	211	3
12	12	32
245	245	28
151	154	4
224	224	21
69	189	3
79	79	7
68	68	16
189	189	32
88	90	3
1	1	8
161	161	3
7	7	19
77	87	7
195	195	11
152	192	3
7	45	2
184	184	10
198	198	10
204	204	26
205	206	3
67	86	2
38	39	5
171	172	6
156	156	36
234	234	16
234	235	3
24	32	2
201	202	9
244	244	35
42	43	4
110	111	2
154	155	6
196	196	15
187	192	3
116	116	15
175	175	10
167	171	6
190	190	12
28	28	14
154	154	27
209	209	13
197	197	15
155	156	14
162	162	15
201	205	5
85	86	6
233	242	1
171	171	19
70	85	3
218	219	11
74	76	2
99	99	8
42	42	12
17	19	5
101	102	5
210	247	3
170	170	34
201	204	2
236	236	11
213	214	7
15	16	7
164	165	8
36	40	7
53	54	9
145	145	6
21	21	18
175	190	2
29	79	2
44	44	25
77	77	16
233	233	15
76	76	17
14	14	13
220	220	12
206	206	15
163	164	5
241	241	19
216	217	5
16	16	17
168	168	17
19	19	24
102	102	14
23	204	4
216	216	12
22	22	33
239	239	22
227	228	2
84	84	12
202	203	7
1	32	1
176	176	11
24	27	1
85	85	11
179	179	19
173	173	4
174	174	22
156	157	13
193	199	2
174	207	3
75	76	6
40	71	2
221	221	40
237	237	12
118	118	14
173	174	4
211	211	18
167	167	19
17	205	6
56	56	15
230	230	9
18	18	22
201	201	25
179	217	4
34	119	2
192	192	8
164	164	30
57	58	2
165	165	13
215	216	10
115	116	5
8	8	21
152	241	1
14	38	1
75	79	2
9	9	14
158	159	8
95	96	11
113	116	5
97	98	8
105	105	1
7	8	9
96	98	2
37	37	13
98	98	15
157	158	5
202	202	25
189	190	12
7	49	5
0	8	3
246	246	9
153	186	4
65	66	8
48	57	2
46	212	2
90	120	2
104	120	1
61	62	1
30	30	15
17	38	6
106	107	10
42	109	3
115	115	11
229	229	5
117	118	13
217	217	8
6	11	4
21	202	3
11	15	3
81	82	1
194	194	15
176	178	11
200	200	12
5	5	20
120	120	10
83	84	7
34	34	7
79	80	5
112	184	2
79	116	4
150	151	13
107	107	6
96	97	5
191	191	22
90	100	2
64	64	7
1	2	7
231	231	6
73	73	7
92	100	3
89	89	13
35	37	4
239	242	2
85	104	3
245	246	5
11	12	10
240	241	5
185	201	3
232	232	6
187	187	12
87	87	9
92	92	15
183	183	18
87	88	8
147	158	2
102	118	2
100	100	15
93	93	18
119	120	2
235	236	11
238	238	20
187	222	2
169	169	19
188	188	7
186	187	6
60	63	2
71	99	2
92	104	3
153	206	2
180	186	4
82	84	3
56	99	4
150	168	1
66	66	16
150	192	2
210	213	1
59	59	12
47	54	1
29	30	8
26	27	8
222	222	6
40	41	1
29	29	18
175	224	2
226	226	15
46	47	4
86	86	11
30	78	3
185	186	5
149	155	2
152	153	4
172	172	7
184	185	4
151	186	4
225	226	5
27	27	9
21	28	7
120	145	2
12	101	4
36	37	6
199	199	17
90	91	11
88	89	6
74	74	6
95	95	4
53	53	15
80	80	19
184	199	4
17	18	2
207	207	15
10	55	2
68	115	3
62	68	8
112	112	13
55	56	4
239	240	2
48	49	11
178	178	14
101	103	3
86	87	10
27	203	1
113	113	23
147	160	2
110	202	4
212	212	14
178	179	4
208	208	11
81	95	4
8	10	2
161	162	4
109	109	17
62	221	2
212	213	3
34	49	3
5	39	1
221	222	1
106	106	10
231	232	7
84	85	8
35	36	6
186	246	1
75	96	6
35	35	7
32	36	3
22	40	1
181	181	15
12	85	7
152	152	7
91	91	13
158	191	1
45	53	2
14	121	2
75	102	2
206	207	3
149	149	4
200	201	4
186	207	2
169	212	2
194	195	6
31	31	2
54	100	2
112	243	6
210	210	6
238	249	2
214	214	9
11	65	1
235	235	12
244	246	2
20	207	1
103	103	6
17	76	1
43	203	2
17	182	2
36	188	1
16	101	1
69	69	8
96	101	1
199	209	4
94	95	4
215	218	2
90	111	6
11	32	2
240	245	3
74	112	4
186	223	2
111	112	6
15	15	10
9	10	5
238	239	5
60	60	6
153	236	4
195	196	8
12	154	1
34	39	3
67	68	5
103	108	3
84	111	3
28	29	8
10	88	2
179	218	1
157	163	2
169	170	2
75	75	10
31	33	6
175	178	3
245	247	5
42	63	5
43	63	3
4	112	3
182	186	2
238	240	8
165	166	4
229	241	2
23	23	10
225	225	7
146	152	2
20	39	1
33	36	4
4	5	4
53	56	7
14	35	1
16	29	1
147	147	11
228	229	7
18	19	1
50	50	10
63	69	2
59	120	2
58	61	1
67	67	6
102	103	4
52	52	8
42	49	1
152	175	1
166	167	7
219	222	2
236	237	3
25	26	11
178	187	1
80	86	3
2	2	6
80	117	4
35	89	1
65	72	1
182	183	3
98	99	1
50	51	2
62	62	15
118	248	1
67	78	1
169	171	2
196	231	1
193	194	9
89	91	2
30	34	8
157	164	1
44	45	3
11	187	2
110	246	1
107	108	5
46	95	1
202	235	1
179	196	1
176	224	2
166	191	4
30	66	3
24	24	11
64	65	1
57	59	1
188	190	1
229	230	3
158	219	1
214	219	6
226	227	3
49	111	1
64	197	1
56	83	3
32	110	2
48	76	2
60	71	1
71	71	6
231	242	3
173	241	1
4	4	5
178	219	4
10	31	3
180	181	5
8	33	1
2	3	3
189	213	2
99	100	3
115	117	1
183	185	3
209	248	3
224	226	2
208	209	11
75	111	2
108	236	1
209	213	3
201	224	2
170	192	2
213	241	1
162	193	1
163	163	7
63	63	3
6	204	3
35	76	3
194	197	1
82	86	2
56	58	5
70	70	3
152	166	2
156	241	2
17	54	4
203	224	2
42	44	3
144	144	2
41	41	7
156	217	1
209	215	2
233	234	2
113	120	1
216	218	2
151	156	2
61	82	3
43	44	12
76	79	1
6	7	8
107	119	2
156	169	1
204	225	1
156	197	2
246	247	7
82	82	3
151	168	3
45	46	3
230	231	1
46	94	4
161	167	2
45	93	1
113	212	2
83	83	1
32	185	3
232	242	1
180	192	2
170	172	4
60	91	2
54	62	1
211	214	4
61	61	4
240	242	2
59	109	3
48	50	1
191	192	3
68	72	1
28	32	2
6	36	1
30	35	1
39	39	9
101	117	2
73	74	3
112	119	3
69	70	5
181	182	2
154	167	1
49	89	4
192	200	3
65	65	1
3	38	3
49	75	4
112	163	1
163	171	1
163	170	1
40	85	1
19	78	2
109	155	1
66	89	3
21	66	4
161	191	1
46	174	4
145	194	1
41	43	2
58	99	1
69	99	3
184	214	1
20	31	1
111	119	3
151	162	2
187	188	7
58	60	2
40	40	9
180	208	3
179	180	2
222	235	2
226	228	1
184	190	1
152	199	1
209	210	2
7	20	2
69	72	2
150	161	1
14	96	2
10	85	2
62	78	2
152	165	1
157	245	4
232	233	2
108	117	1
61	64	4
68	70	3
167	168	1
211	212	3
120	144	1
114	179	2
103	118	4
3	36	1
207	223	2
41	79	4
34	120	2
38	41	2
17	62	1
19	31	3
175	176	4
13	14	3
8	9	4
58	59	2
68	95	1
192	194	1
191	193	4
78	80	3
161	192	2
45	154	1
146	147	1
49	91	1
16	28	2
224	225	3
31	32	1
112	114	3
20	231	1
207	214	2
46	154	1
153	154	3
222	224	1
68	69	2
191	194	2
4	6	1
62	76	2
62	79	2
55	110	1
167	191	2
76	77	4
80	81	1
218	239	2
187	191	3
160	162	1
207	210	1
158	160	1
75	114	1
23	25	1
16	47	2
20	28	2
236	242	1
27	28	2
157	199	1
206	229	2
209	216	2
29	34	1
209	214	1
20	208	1
93	101	2
19	208	2
60	66	1
157	169	2
34	118	3
73	92	1
243	245	1
71	111	1
207	208	3
171	186	1
43	197	2
37	39	1
22	23	1
82	85	1
21	22	1
16	155	1
152	182	1
175	180	3
65	201	2
183	184	3
202	221	1
72	72	3
153	174	1
2	6	1
228	235	1
176	177	1
20	29	1
214	242	1
71	73	1
177	178	1
156	201	1
27	98	1
212	230	1
4	40	2
18	56	1
179	192	1
151	178	1
20	195	2
66	201	1
63	85	1
81	83	1
20	21	1
109	110	2
184	241	2
66	67	1
16	41	2
56	62	2
56	85	2
41	45	1
217	218	1
51	85	1
92	95	1
62	151	1
18	30	1
153	156	1
23	93	1
22	26	1
51	52	1
160	166	1
2	195	1
165	171	1
82	95	1
112	210	1
118	119	2
30	242	2
22	205	1
156	167	1
77	119	3
110	245	1
94	100	1
70	79	1
88	97	1
8	55	1
153	193	1
205	234	1
228	230	2
64	74	1
115	172	1
71	108	2
207	212	2
113	190	1
157	198	1
151	160	3
70	71	1
60	61	1
78	109	2
193	211	2
110	119	2
36	46	1
92	111	1
236	249	1
75	77	1
228	244	1
67	117	2
46	211	1
54	56	1
191	242	1
50	57	2
197	198	1
248	249	1
209	243	2
10	23	1
239	246	1
53	57	1
21	29	1
24	28	1
50	76	1
63	82	1
2	54	1
188	189	1
245	248	2
248	248	1
109	120	1
53	85	1
88	96	1
46	196	1
9	24	1
196	228	2
40	42	1
119	144	1
96	108	1
181	187	1
178	193	1
29	52	1
15	37	1
113	188	1
9	28	1
18	201	1
57	71	1
71	85	2
206	234	1
166	175	1
186	188	1
45	94	1
