166	166	10
54	54	9
87	89	4
170	176	1
163	165	4
23	23	3
40	41	3
105	105	14
131	131	15
139	139	3
93	93	14
88	90	4
144	144	11
46	46	18
14	14	11
148	150	7
99	99	12
75	75	10
55	73	2
169	169	17
185	185	12
35	36	15
44	46	5
151	151	14
21	21	13
33	34	11
123	128	5
125	125	24
112	112	17
129	129	20
47	47	21
67	67	6
187	188	6
5	5	7
169	170	5
64	64	11
22	23	5
8	8	17
56	56	15
22	22	6
100	100	6
181	181	8
81	115	2
12	13	1
59	60	8
120	120	6
53	53	8
26	27	5
168	169	3
122	133	3
97	97	12
15	15	11
86	86	7
190	190	5
74	74	6
31	31	20
162	163	10
80	81	13
107	107	8
145	189	1
142	142	6
131	133	8
131	136	1
24	102	5
81	121	5
134	134	16
39	39	14
12	12	13
32	32	9
79	79	6
189	189	5
113	113	11
110	110	11
60	61	8
180	180	10
17	17	9
121	121	9
6	7	3
67	75	5
63	63	9
104	104	8
95	95	10
136	136	7
6	8	3
112	113	4
30	32	10
16	16	20
103	103	5
145	145	7
122	122	3
4	6	3
101	102	7
43	52	3
138	145	4
52	52	9
130	132	6
101	101	18
153	153	9
72	73	3
69	69	2
91	107	2
118	118	21
70	70	13
87	87	14
73	73	1
137	137	7
133	139	5
47	59	6
126	126	17
23	24	8
151	155	4
130	130	15
166	167	1
24	24	24
102	102	9
42	42	10
3	3	11
65	68	1
128	128	13
91	91	3
61	61	7
156	157	3
136	137	2
46	47	4
179	181	1
151	152	2
106	115	2
107	140	2
150	150	8
178	178	9
147	189	1
121	122	8
8	9	2
185	187	4
70	71	10
125	126	4
164	164	11
90	94	3
65	65	13
140	140	11
2	2	20
17	18	2
140	141	7
124	124	23
33	33	6
27	29	3
5	11	2
126	127	9
43	43	4
10	10	5
188	188	7
62	63	6
186	187	1
77	78	9
25	28	1
117	117	4
55	55	4
20	20	14
13	13	7
99	100	6
76	76	7
23	45	2
25	25	13
160	160	2
79	80	8
68	78	1
94	94	11
162	162	5
122	186	1
14	15	2
161	163	4
24	25	2
150	151	5
63	67	4
62	62	12
148	148	6
183	183	3
151	159	1
58	58	10
132	133	1
134	135	15
188	189	4
96	98	4
57	57	4
34	34	3
157	157	12
119	120	3
28	68	1
57	79	2
61	70	2
167	168	3
189	190	4
82	83	2
159	160	4
83	83	15
161	161	12
85	85	19
6	6	8
29	29	4
30	30	9
141	141	8
27	36	5
115	115	10
41	41	5
84	84	7
116	116	2
82	82	7
68	68	5
40	42	1
88	88	8
12	20	2
75	76	11
92	92	2
112	157	5
157	159	2
16	32	5
146	146	9
81	82	1
128	130	5
97	105	6
127	127	10
90	118	6
111	111	7
105	118	3
48	49	2
1	1	2
178	179	8
138	138	9
123	140	3
179	180	2
16	17	2
92	115	2
13	14	4
155	155	3
155	161	4
28	30	3
158	158	2
149	149	7
2	3	4
163	164	1
174	174	9
135	135	10
165	165	3
73	74	7
154	154	16
111	130	3
89	91	1
38	39	12
132	132	11
106	126	1
147	161	2
112	162	6
4	5	1
58	63	2
56	57	4
123	130	5
10	21	2
66	77	1
160	164	1
173	173	6
148	166	1
0	13	2
160	161	5
152	152	7
27	37	7
151	160	5
48	48	4
53	54	3
24	66	3
152	153	5
141	190	1
182	183	8
84	95	2
1	2	1
32	33	2
123	123	5
151	186	2
84	85	5
141	188	2
156	156	7
136	144	1
12	21	5
22	35	1
33	35	9
78	90	5
142	143	8
90	90	2
133	135	3
133	134	3
61	67	2
71	71	4
171	171	5
57	58	5
128	131	2
127	128	8
65	66	7
171	172	14
117	118	2
65	82	1
187	187	10
167	167	2
61	73	4
175	175	1
107	110	2
170	175	5
58	59	2
124	125	2
55	57	1
92	94	3
37	37	7
94	95	7
2	4	3
32	34	2
1	11	4
23	67	6
88	89	1
150	157	4
116	117	4
122	151	1
105	106	5
66	66	8
165	182	6
107	114	4
175	176	6
89	90	5
16	23	3
106	119	1
114	114	10
117	119	3
35	35	9
110	137	4
186	186	4
22	44	3
146	149	4
26	26	6
81	107	4
28	28	7
15	57	3
147	155	4
103	154	3
74	76	4
168	188	3
0	0	4
95	96	3
36	37	5
108	109	2
39	41	1
117	121	2
168	168	3
40	40	4
141	189	4
102	103	6
168	181	2
37	40	2
106	117	2
119	119	3
25	30	2
70	72	2
128	129	1
66	67	9
78	78	8
26	84	4
42	53	3
173	174	1
78	79	5
173	175	3
108	108	3
62	80	1
118	119	2
74	75	2
86	87	3
59	63	6
90	91	3
109	109	5
66	82	1
18	18	2
147	147	8
95	98	4
101	156	2
21	22	1
9	12	2
97	98	8
78	107	2
19	20	8
77	106	2
10	20	1
27	27	14
95	97	1
71	72	4
126	128	5
166	181	2
35	37	5
46	59	3
61	65	3
149	165	4
0	12	1
34	36	4
147	149	4
135	137	3
184	184	8
44	45	3
98	98	2
71	73	3
30	65	2
129	140	1
115	153	1
145	152	3
147	148	2
38	38	8
57	104	3
41	42	4
133	133	5
68	77	4
90	95	3
130	131	4
134	136	3
28	84	4
84	89	1
93	126	2
95	119	2
105	125	2
56	58	2
3	8	1
42	43	2
76	107	1
142	144	2
106	106	1
168	177	1
55	58	4
187	189	3
134	137	1
30	31	1
45	46	3
59	59	2
137	139	2
7	8	3
19	19	4
110	160	3
150	158	1
105	114	1
169	175	3
107	108	2
63	64	3
96	97	4
89	89	2
104	105	5
176	176	5
60	70	2
62	64	2
67	72	3
80	80	5
27	30	1
174	175	7
146	162	1
77	77	6
110	159	1
122	123	1
10	11	1
163	163	4
28	33	1
25	44	2
41	48	1
31	33	2
40	44	1
59	67	1
1	10	2
135	136	2
81	113	2
81	87	1
28	29	1
67	102	2
54	55	3
42	44	1
82	121	1
108	137	2
49	49	1
121	123	2
60	105	2
5	19	1
55	71	1
44	44	3
188	190	1
5	8	1
67	78	1
4	4	2
90	103	2
26	85	2
134	143	2
19	21	1
156	159	2
29	36	1
60	64	1
117	120	1
119	123	1
57	100	1
83	121	2
68	69	1
78	82	1
177	177	2
110	113	2
77	91	1
178	180	2
32	36	2
115	116	2
182	182	3
177	179	3
11	13	3
150	159	2
89	92	1
121	151	1
20	21	1
157	161	4
43	44	1
172	173	2
30	33	4
26	41	1
161	162	1
146	163	3
113	157	3
144	145	1
99	103	1
7	7	2
10	12	1
114	115	1
31	32	2
149	157	1
62	78	2
1	3	1
97	99	1
30	36	1
159	159	1
172	172	3
121	155	1
154	155	1
118	120	1
134	140	1
45	47	1
146	153	2
182	184	1
148	187	1
110	135	1
98	119	1
126	161	2
65	67	1
64	66	1
58	67	1
22	55	1
39	88	1
110	161	1
45	45	3
0	1	1
9	10	1
139	141	1
152	154	1
143	143	1
13	24	1
77	114	1
129	130	1
46	48	2
147	165	2
66	72	1
77	93	1
104	106	2
80	115	2
91	111	1
24	87	2
36	36	1
11	12	2
149	155	2
103	151	1
107	132	1
149	160	1
79	82	2
76	77	1
135	138	1
133	136	1
