93	99	1
36	36	3
100	100	12
59	60	5
61	61	15
51	69	1
80	81	1
68	68	13
26	26	2
42	42	5
96	96	4
31	31	7
52	52	8
31	34	3
41	42	4
35	35	2
39	39	8
103	103	7
83	92	6
36	70	1
33	33	4
62	62	16
64	65	2
90	91	1
55	56	5
58	58	10
104	105	3
86	86	4
86	87	2
63	64	3
76	76	9
41	43	4
99	99	2
77	77	14
65	65	4
53	53	2
94	98	2
52	54	2
37	37	6
72	73	4
97	97	10
67	67	8
53	54	2
81	81	3
90	90	7
88	88	6
75	75	4
40	40	11
34	35	3
32	56	1
43	45	2
81	92	1
59	59	6
104	104	6
74	74	4
80	80	7
89	89	9
102	102	8
66	78	2
105	107	1
27	28	1
84	86	3
52	53	1
76	78	2
24	24	4
73	104	2
71	71	4
99	100	2
73	74	5
53	69	2
105	105	11
66	66	8
32	33	1
73	73	6
50	51	2
92	93	2
61	62	3
78	80	2
55	64	5
64	64	7
58	72	2
50	50	5
43	43	4
55	75	2
22	22	5
66	79	1
60	60	4
97	98	3
41	80	1
70	70	7
55	55	6
54	54	1
68	69	3
60	61	2
41	66	5
101	101	8
67	77	2
63	63	3
40	44	2
45	99	2
89	90	7
28	29	3
77	79	1
23	23	6
76	87	3
21	31	3
28	30	4
39	40	1
57	58	5
49	49	3
89	91	3
36	42	1
30	30	1
48	48	5
92	94	2
100	102	3
32	39	1
30	31	2
38	38	2
46	46	5
53	70	2
67	80	1
32	32	5
78	78	3
40	41	3
93	95	3
62	63	4
31	32	4
87	87	7
92	92	2
51	52	3
72	72	4
57	57	4
93	93	2
79	94	1
55	74	2
57	91	2
94	94	1
82	84	3
66	77	3
42	49	1
82	92	3
94	95	5
82	83	3
78	79	1
23	34	1
56	57	1
51	62	1
21	21	3
47	49	1
33	34	1
47	47	5
26	28	2
84	85	2
50	65	1
25	25	4
56	56	1
83	94	3
46	64	1
106	106	2
98	98	2
60	62	2
84	84	2
32	69	1
30	46	1
85	86	1
67	76	1
71	73	3
42	45	1
102	103	2
39	51	1
45	67	2
52	69	1
71	72	1
34	57	1
77	84	1
79	91	1
34	34	4
46	49	1
45	46	2
65	66	5
50	52	1
67	68	1
51	51	2
20	20	1
66	67	1
72	95	1
33	57	2
88	89	2
41	41	1
81	82	2
95	97	2
38	39	1
106	107	1
95	95	1
92	95	1
75	78	1
84	92	1
46	47	1
39	100	1
42	50	1
74	75	3
58	59	1
59	72	2
75	81	1
45	50	1
35	100	2
29	30	1
72	81	1
35	75	1
31	61	1
54	55	1
82	82	2
91	100	1
107	107	1
91	92	1
34	68	1
70	71	1
