36	127	1
136	136	5
4	24	4
13	14	10
112	112	9
132	133	9
22	23	3
137	137	6
25	26	2
3	10	3
122	122	15
76	105	2
76	77	8
28	28	3
4	4	7
126	126	15
123	124	7
32	32	14
129	129	19
133	133	11
139	139	29
121	122	7
124	124	16
99	99	13
108	108	4
118	118	10
106	107	8
83	83	5
88	88	4
121	121	8
35	35	12
133	135	6
12	12	7
125	125	10
77	78	5
128	128	13
100	103	2
131	134	1
127	128	5
111	111	4
96	98	5
114	114	3
109	109	11
134	135	6
128	129	8
8	9	14
124	125	9
31	115	1
37	37	8
1	1	17
120	120	12
120	122	2
110	110	11
124	129	2
140	140	10
11	11	9
0	0	11
122	123	4
73	74	10
108	109	12
0	2	4
77	79	4
133	134	8
78	79	3
127	127	11
100	117	1
107	107	4
20	20	7
16	18	4
26	26	7
19	19	5
8	8	3
130	130	17
1	92	2
71	73	2
23	24	1
125	126	3
7	10	2
4	5	2
24	24	12
27	30	1
119	122	2
101	101	11
72	109	1
121	123	10
100	100	7
17	17	17
15	19	4
7	14	5
10	11	3
93	93	3
100	101	10
13	13	6
36	36	7
100	111	1
102	102	10
97	97	5
34	35	6
6	6	8
2	4	2
25	25	12
104	110	4
91	91	10
16	16	14
138	138	8
131	132	4
80	82	1
88	95	1
27	28	2
24	79	2
7	13	2
29	116	2
96	96	7
38	39	4
2	3	1
23	23	9
111	121	2
134	134	24
0	1	4
75	75	9
31	31	7
9	9	9
10	10	4
71	72	6
86	86	6
123	123	8
131	131	9
111	115	2
31	119	4
118	119	1
7	7	13
8	79	1
76	76	7
14	14	3
73	75	1
71	71	1
105	107	4
106	116	1
33	33	3
27	32	2
78	91	1
34	34	4
135	137	3
107	108	4
136	137	5
21	21	2
84	84	3
17	18	4
73	73	6
127	129	6
82	83	2
132	132	14
117	117	5
94	95	1
37	38	2
86	89	2
5	35	2
109	116	1
73	91	2
72	72	5
28	33	4
18	18	2
28	29	1
101	102	3
33	130	3
134	138	11
72	73	11
110	111	5
7	8	5
113	119	2
136	138	4
95	96	5
89	100	5
80	80	3
6	7	2
72	91	4
36	90	2
75	76	3
106	117	3
90	90	3
28	30	1
31	32	3
109	112	2
135	135	6
109	111	2
13	15	2
36	130	2
120	121	2
6	15	4
93	94	5
97	98	4
138	139	2
115	115	5
0	5	1
76	79	1
16	19	1
90	91	7
15	15	3
89	89	5
78	78	3
27	29	1
115	116	5
15	18	3
112	113	4
115	119	2
119	121	1
126	127	5
125	130	3
92	92	3
5	6	3
77	77	3
33	86	1
3	3	1
77	107	4
72	74	2
124	128	1
82	82	1
79	79	6
103	103	4
94	94	7
104	104	1
105	105	1
129	130	1
88	89	2
103	104	3
34	38	1
19	20	2
125	131	1
19	21	1
2	5	2
2	2	2
7	11	2
27	80	1
107	117	2
119	119	2
119	120	1
112	123	1
72	93	3
5	7	3
90	95	1
74	106	1
79	80	2
98	98	3
1	5	1
87	87	3
74	75	3
30	32	1
84	87	2
131	138	1
74	74	3
26	27	1
21	23	4
13	16	1
111	112	1
124	126	1
0	18	2
137	140	2
113	113	2
24	27	4
112	116	1
83	85	3
5	17	1
107	109	3
96	97	1
71	122	2
20	21	2
81	85	3
15	23	1
89	90	1
95	95	1
83	84	1
86	87	1
135	136	2
36	37	2
21	22	1
92	93	1
125	129	1
75	92	3
95	98	1
23	80	1
21	26	1
27	27	2
135	138	1
86	88	1
29	29	1
137	138	1
85	86	1
81	81	1
44	87	1
11	12	1
