101	103	3
82	86	1
126	126	3
181	182	6
31	38	2
166	167	3
140	149	2
179	180	2
169	169	2
141	194	3
112	112	7
103	103	4
19	19	5
9	9	5
115	118	2
3	21	3
99	99	5
24	24	6
3	12	2
22	23	4
176	177	2
178	179	3
191	191	7
10	11	1
133	141	5
16	17	3
69	70	3
154	155	7
124	125	6
51	51	3
157	177	7
31	34	3
23	24	2
10	10	7
38	38	2
29	29	1
119	119	9
107	107	3
112	113	2
73	73	7
192	192	11
22	38	2
21	21	14
16	16	6
144	144	13
55	138	1
24	42	2
103	141	1
30	30	5
108	155	2
6	9	4
189	190	8
143	153	2
122	122	9
152	156	1
151	170	3
1	2	3
174	176	2
104	130	2
67	68	4
152	153	3
12	13	2
188	188	3
62	62	1
172	172	1
154	154	9
153	166	2
32	32	2
64	80	4
180	181	6
72	72	2
173	173	2
39	40	2
193	194	6
135	135	3
177	178	4
119	120	3
4	13	2
62	64	5
183	183	5
140	182	3
135	151	2
11	12	4
117	119	1
95	95	6
135	140	4
133	192	3
45	45	6
137	195	2
102	102	9
131	132	1
142	149	4
110	167	2
39	39	3
117	118	10
133	134	2
157	157	4
100	120	5
159	159	8
97	169	9
174	174	1
74	74	6
138	138	6
32	39	2
115	119	4
103	112	4
183	184	2
143	145	5
144	150	6
35	35	1
148	149	2
156	197	4
145	146	5
101	102	2
6	24	5
197	197	6
60	90	2
4	40	1
123	123	7
194	194	11
30	31	2
26	40	3
134	137	6
105	106	8
3	3	1
7	20	1
70	73	1
157	162	4
108	109	4
54	54	3
88	88	10
168	168	3
143	143	4
116	192	4
173	176	6
146	146	8
20	22	3
150	151	4
195	196	13
190	190	9
10	12	4
137	138	1
16	22	4
86	86	5
28	30	6
60	87	4
19	20	1
98	118	2
106	106	1
8	9	3
41	43	1
48	48	4
167	167	2
157	174	1
136	187	5
161	161	10
0	16	4
147	147	3
53	53	4
152	152	7
140	140	5
64	64	3
150	150	3
49	69	7
155	165	6
79	85	2
70	70	2
116	155	1
186	195	2
27	31	1
179	179	7
59	64	3
146	147	7
3	8	3
140	142	3
110	150	2
94	94	2
103	144	1
165	175	2
146	148	5
129	131	1
117	153	2
145	158	1
171	172	1
181	191	8
2	2	5
1	5	1
95	101	1
59	73	1
157	180	2
51	52	1
67	67	1
57	57	7
180	180	8
178	180	2
173	174	1
149	149	9
160	160	5
28	28	8
161	180	3
142	150	1
192	193	3
105	105	5
118	191	3
156	172	2
119	121	2
162	164	1
18	19	2
163	163	2
124	124	2
2	32	2
118	177	3
184	184	2
147	148	11
1	16	1
177	184	2
69	71	5
143	151	3
156	158	4
68	87	1
141	141	2
48	81	2
158	183	1
55	56	1
49	50	1
5	39	2
181	181	12
168	170	5
113	113	2
94	98	2
17	17	4
8	8	4
167	168	4
137	139	4
34	36	4
80	80	2
0	2	2
46	46	7
27	39	3
134	134	1
143	155	4
9	75	1
164	182	3
153	153	1
23	23	6
155	155	11
193	193	3
153	165	3
117	191	2
196	196	4
189	189	3
119	187	4
12	12	1
46	47	1
7	8	2
37	37	1
41	42	1
112	114	5
64	67	5
179	196	2
145	145	1
37	38	3
69	69	2
31	31	10
165	166	3
43	43	2
56	161	3
66	66	4
6	26	1
45	86	3
185	185	2
115	149	3
177	177	6
155	156	1
116	135	2
88	89	2
80	82	1
131	131	2
50	50	8
94	159	1
187	188	3
164	164	2
14	41	1
33	36	1
186	188	1
59	59	1
6	36	2
9	12	4
62	68	3
41	41	2
118	144	2
36	36	5
108	108	2
60	93	2
99	129	1
34	34	3
133	135	3
100	112	1
9	72	2
4	4	2
26	27	3
5	19	1
68	73	2
120	120	3
50	114	1
137	137	4
133	149	1
0	0	6
118	163	1
114	150	1
79	79	2
54	55	3
140	158	3
33	33	2
180	183	3
29	37	1
154	156	2
165	165	2
128	128	2
61	61	3
52	53	1
5	5	3
104	109	2
5	37	1
111	113	2
59	176	4
93	93	1
27	37	1
56	56	2
56	88	1
98	98	1
43	44	3
103	108	1
133	133	2
109	111	1
187	189	3
99	162	1
25	35	1
65	68	3
82	84	1
90	90	1
35	38	1
30	34	1
173	175	1
44	44	1
62	73	2
28	29	2
147	149	1
114	115	1
155	179	2
63	63	1
14	15	3
20	65	2
191	192	2
175	196	2
145	153	1
167	169	4
177	182	2
137	190	1
160	161	1
185	188	2
7	7	1
18	18	3
133	136	1
4	5	1
71	71	3
172	173	2
40	41	2
80	81	3
56	57	1
135	136	3
182	182	1
136	136	3
117	147	1
131	144	1
81	82	1
67	87	1
58	87	1
8	41	1
196	197	1
42	43	3
13	13	3
113	115	1
61	69	2
182	183	1
82	82	1
115	116	2
155	157	1
83	84	2
120	159	1
178	186	1
20	20	1
73	77	3
58	58	1
100	105	1
137	149	1
114	181	2
64	73	1
113	140	1
27	27	1
193	196	1
138	149	1
167	173	2
157	160	1
97	109	1
115	181	1
156	157	1
192	195	1
104	139	2
161	162	3
186	186	1
98	112	1
127	127	1
101	106	1
63	73	1
119	132	1
21	40	1
151	151	2
161	164	1
34	35	3
130	139	3
187	187	1
176	176	1
70	72	2
154	166	2
83	119	3
101	112	1
108	110	2
26	58	1
134	148	1
37	73	1
27	28	1
20	35	2
2	57	1
111	111	1
96	97	1
144	145	2
166	166	2
8	36	1
140	159	1
175	176	1
7	19	1
135	177	1
4	36	2
132	132	1
54	56	1
158	158	1
83	85	1
96	98	1
48	85	1
163	183	1
149	169	1
103	155	2
185	186	1
117	117	1
5	22	1
52	52	1
56	87	1
50	51	1
174	177	1
143	184	1
49	49	1
56	157	1
153	157	1
122	123	1
143	163	1
53	56	1
42	42	1
37	62	1
136	137	1
15	15	1
1	1	1
17	20	1
178	178	1
195	195	1
109	109	1
40	56	1
139	140	1
106	109	1
