78	78	13
60	60	28
55	55	8
42	66	4
44	44	12
85	85	12
99	99	14
70	71	1
86	89	3
51	51	21
71	71	30
57	60	4
77	77	29
84	84	5
97	97	5
52	52	26
44	78	5
72	72	14
26	27	4
79	80	3
82	96	6
76	101	6
64	64	18
35	35	2
27	27	12
68	68	11
49	49	12
101	101	14
45	45	13
37	37	9
90	91	9
82	82	6
44	55	1
42	42	18
30	30	5
92	93	10
39	59	2
66	66	23
22	23	5
95	95	13
56	57	4
70	70	32
54	54	17
44	56	2
81	81	8
72	73	3
48	76	8
80	81	8
65	68	5
35	56	1
85	86	1
91	94	2
63	63	19
51	52	7
24	24	3
76	77	7
60	61	1
79	79	9
80	80	2
67	67	19
32	33	2
62	62	13
58	58	17
92	92	10
81	92	4
46	46	13
54	55	1
86	87	4
73	73	11
53	53	18
57	59	3
57	57	8
56	56	13
66	67	9
49	50	8
40	41	14
94	94	8
91	93	2
61	61	15
47	47	7
52	99	1
90	90	14
53	54	7
59	59	14
52	100	1
95	98	2
91	91	11
89	91	2
34	35	5
93	98	3
74	74	24
75	90	3
43	43	10
86	86	11
76	76	11
35	43	3
42	43	5
63	68	3
41	41	7
69	69	24
54	100	1
65	65	11
47	86	3
31	32	6
34	37	1
100	100	7
42	64	2
33	33	6
94	98	1
88	93	1
100	101	4
89	94	3
39	39	5
71	72	2
59	60	4
37	38	2
99	100	3
75	75	13
93	93	8
52	83	3
60	62	3
61	62	8
50	50	10
57	79	1
41	49	4
82	98	2
55	60	3
39	40	5
66	68	1
68	87	2
89	92	2
90	92	2
63	64	6
88	88	10
27	28	2
75	76	1
64	76	5
78	97	1
61	80	1
23	25	1
86	88	3
36	36	9
82	95	1
84	91	2
62	63	2
96	96	7
31	31	2
62	67	7
88	96	1
81	82	2
83	94	1
96	97	2
57	58	4
64	66	3
89	89	5
58	59	2
34	34	3
43	66	4
46	57	2
45	47	1
66	69	3
96	99	2
29	29	5
49	85	6
20	28	1
87	87	5
52	89	1
64	77	2
34	44	1
53	55	3
46	68	2
46	47	1
45	67	1
95	96	3
48	52	1
52	55	2
68	69	4
36	38	2
48	48	3
46	48	6
87	89	1
47	48	5
44	91	2
96	98	4
57	62	3
74	77	2
93	95	1
78	79	1
55	81	7
35	37	2
63	67	1
93	94	1
87	88	2
65	76	2
62	66	2
45	90	2
34	40	2
40	40	5
45	71	1
46	56	1
25	25	1
93	96	1
41	42	4
99	101	2
69	70	2
91	92	1
35	36	2
77	78	1
90	99	2
90	100	1
50	51	1
74	76	2
98	98	4
84	95	1
61	64	1
79	95	1
38	58	2
67	68	2
26	26	4
38	38	1
43	44	2
56	60	1
74	75	3
92	95	1
97	98	2
46	86	1
44	45	4
33	34	5
78	91	1
94	96	1
95	97	1
32	32	1
41	85	1
67	69	2
54	77	1
88	89	2
93	101	1
88	94	1
45	46	1
66	74	1
56	61	2
78	90	1
67	73	1
41	66	1
64	65	2
69	76	1
98	100	1
50	84	1
83	83	1
98	99	1
49	77	1
35	38	1
41	43	1
29	30	1
84	97	1
43	67	1
81	91	1
57	61	1
101	102	1
90	98	1
