16	36	4
104	104	3
22	22	7
150	150	7
1	1	6
56	157	6
6	6	7
36	45	2
229	229	3
44	44	12
186	186	9
65	121	9
194	195	6
204	205	2
148	148	2
17	17	5
20	20	4
97	97	11
41	120	2
141	141	5
34	34	12
24	73	3
41	41	9
13	15	2
50	50	2
50	66	1
123	123	10
38	38	6
129	137	2
10	150	2
191	191	11
155	160	1
107	107	1
130	130	1
215	216	3
85	85	8
241	241	3
219	219	5
81	82	2
227	227	3
124	126	4
128	202	2
21	21	17
82	82	7
141	169	2
207	207	1
37	37	5
55	55	5
23	31	4
102	102	7
192	192	6
28	28	14
7	8	7
33	60	3
155	155	6
168	168	6
69	69	6
36	36	15
46	111	2
181	182	6
129	129	5
205	205	6
84	84	6
160	160	3
37	38	1
238	241	4
219	220	3
4	12	3
193	197	1
197	197	10
49	115	3
164	164	8
213	213	4
126	127	2
116	117	1
12	12	12
158	158	11
169	169	5
139	139	11
122	122	4
8	19	2
80	80	8
8	8	8
27	27	12
2	5	2
218	218	9
8	18	4
42	42	6
169	183	2
234	235	2
56	57	2
210	240	1
0	0	4
133	133	3
56	56	6
72	72	7
232	232	3
77	78	4
31	31	10
16	37	1
64	75	2
222	222	4
7	7	10
73	101	3
14	15	2
194	194	4
40	40	2
2	2	7
74	74	8
4	30	2
38	65	3
0	1	8
80	147	2
173	173	3
11	11	13
203	203	3
102	119	3
45	113	2
142	143	1
128	158	2
76	76	4
134	135	4
81	146	2
149	150	1
43	45	1
25	71	4
175	175	9
61	224	2
184	184	2
147	147	4
21	30	4
163	163	3
139	141	2
15	167	2
126	126	7
223	224	3
21	22	4
183	183	5
68	232	2
171	232	2
92	120	3
106	106	12
49	49	5
176	176	8
181	181	7
208	208	4
39	40	4
101	101	4
190	219	2
175	225	2
3	18	3
182	182	5
23	23	8
189	189	5
137	137	3
177	178	2
156	156	4
13	14	5
228	230	5
169	180	2
28	30	2
7	15	3
199	199	13
174	174	14
43	43	14
111	111	5
10	10	5
103	208	2
50	75	2
42	43	3
164	165	2
32	33	2
209	209	5
75	78	1
101	103	2
151	151	5
221	221	1
103	104	3
5	5	6
26	39	4
9	9	10
220	220	3
161	161	8
33	33	10
159	159	2
152	152	5
65	85	1
4	4	7
71	72	4
10	20	2
118	120	3
61	62	1
119	119	8
209	210	4
105	106	8
23	100	3
33	34	3
158	170	4
104	105	4
201	238	1
53	64	1
12	23	1
132	168	2
18	18	7
140	169	1
113	113	4
16	16	10
66	66	8
46	46	8
222	226	2
102	115	1
51	51	9
125	125	8
159	171	2
14	14	5
62	62	11
79	79	4
109	109	4
212	212	2
125	126	2
58	59	6
52	52	5
172	172	8
69	86	4
70	70	4
4	5	8
50	232	1
103	103	3
45	77	2
57	57	2
121	122	4
24	101	2
154	154	4
225	225	6
50	98	3
130	131	7
234	234	6
178	178	3
197	218	4
13	13	12
118	119	2
146	146	4
185	186	2
59	59	6
35	35	9
202	203	2
187	188	7
238	242	4
118	118	10
84	88	2
228	228	7
67	67	5
167	168	4
196	196	8
130	139	1
13	21	2
190	190	7
129	136	2
205	206	3
195	195	5
42	45	2
79	80	3
132	136	1
224	224	12
125	179	2
58	58	9
198	207	3
17	18	2
5	82	1
44	45	1
98	99	1
57	220	3
136	137	3
108	230	2
211	211	3
191	198	1
210	212	2
124	124	4
177	177	6
180	180	3
128	128	4
6	7	5
1	2	7
63	89	8
105	107	1
200	206	2
63	74	3
36	46	1
161	181	2
237	237	5
178	179	5
205	225	2
139	213	2
108	109	3
143	144	5
39	39	4
63	63	7
37	46	1
62	64	3
88	96	1
7	22	3
60	60	7
162	162	8
95	165	2
3	3	4
19	20	2
206	206	5
42	174	1
78	78	2
10	48	1
26	26	3
221	222	1
239	239	7
169	204	5
47	47	11
22	145	1
71	71	7
157	157	1
153	189	2
81	81	3
211	217	1
121	169	4
86	150	6
236	236	1
15	46	1
95	122	1
95	95	7
73	73	5
100	100	3
33	36	3
242	242	3
64	88	4
142	142	6
132	133	3
166	166	7
204	204	2
105	110	1
26	27	7
157	170	1
37	57	2
58	60	2
217	217	8
233	233	5
88	88	7
44	149	1
231	232	2
167	167	5
38	39	2
24	24	5
160	187	1
237	241	5
5	8	2
57	59	1
141	142	4
161	187	3
145	146	7
161	162	1
20	24	3
78	79	2
198	198	5
83	83	3
11	15	2
0	39	1
33	48	3
47	61	2
29	29	5
43	72	2
187	187	4
208	209	2
172	173	5
60	176	1
135	136	1
116	116	5
52	58	2
36	62	6
153	153	3
137	138	2
49	55	2
73	235	1
48	48	3
56	63	1
193	233	1
169	170	2
36	60	2
134	134	3
227	228	1
166	179	4
21	31	4
156	169	2
235	236	4
3	6	4
95	114	2
69	75	2
211	240	7
179	179	3
201	201	6
144	144	1
15	15	3
146	147	4
65	66	6
55	58	3
80	82	4
175	176	2
200	200	9
212	237	1
226	227	3
199	212	6
8	15	2
15	17	2
101	128	3
57	223	4
80	187	3
7	14	1
72	73	1
174	175	1
85	86	2
52	155	5
189	190	4
206	225	2
75	103	1
49	180	1
33	222	1
118	210	1
99	99	3
136	169	2
40	41	4
70	86	1
143	143	6
25	25	1
77	77	7
25	44	2
117	117	4
72	102	3
188	226	1
72	113	1
86	149	2
19	183	2
11	114	2
5	7	1
15	23	1
145	147	2
69	241	2
81	83	2
30	30	4
181	183	3
156	195	1
127	127	3
72	101	1
89	96	2
188	188	3
133	134	3
18	19	3
158	159	1
101	102	4
12	34	3
64	64	3
50	70	1
217	218	6
124	229	1
9	35	3
4	29	2
65	65	8
105	126	3
144	146	2
69	99	2
150	151	1
35	158	1
17	30	1
12	35	2
177	180	1
57	224	2
22	41	3
45	45	1
160	161	2
47	220	3
50	155	2
68	101	1
214	237	1
98	169	1
48	49	1
121	121	1
13	32	1
184	185	2
233	234	1
0	31	1
123	206	1
239	240	1
145	165	3
27	28	1
47	151	3
186	187	1
69	70	1
70	71	2
156	159	2
192	196	3
50	118	2
226	228	2
16	41	1
17	22	1
214	215	1
179	180	2
61	61	2
99	131	3
114	115	4
210	210	2
69	71	1
1	4	2
32	104	1
127	206	1
234	236	2
53	53	2
30	112	1
154	157	1
35	85	2
11	122	2
152	153	1
86	148	2
54	57	1
12	31	4
54	67	1
86	86	5
121	127	1
148	230	1
199	200	1
12	16	3
57	82	1
231	231	1
70	237	2
223	223	1
68	69	2
198	206	1
115	115	3
18	22	1
193	194	2
39	42	1
138	210	2
105	105	9
20	22	1
120	212	2
82	83	1
47	223	1
149	149	2
169	216	1
79	187	3
15	16	2
120	120	2
76	78	3
28	170	1
122	123	1
107	108	1
86	87	1
144	145	2
29	43	1
16	18	1
41	42	2
190	234	1
54	54	1
70	75	1
25	26	2
235	235	1
25	70	2
171	171	1
29	31	2
79	82	1
138	138	2
15	110	1
227	232	1
0	4	1
19	19	2
85	175	1
193	193	2
242	243	1
112	112	2
68	230	1
206	238	1
64	121	1
16	33	1
166	186	2
50	158	1
58	144	1
130	140	1
74	75	2
40	140	1
85	95	1
11	13	1
129	140	1
215	217	1
124	125	1
75	106	1
32	32	1
173	175	1
98	216	2
139	140	2
230	231	2
140	142	1
11	123	1
238	238	2
106	112	1
9	11	1
100	122	1
108	125	1
69	87	1
23	41	1
57	58	1
212	213	1
141	143	1
101	126	1
7	9	1
38	40	1
20	21	1
37	48	1
3	4	1
13	31	1
36	63	1
215	224	1
15	36	1
35	51	1
74	218	1
215	215	1
207	209	1
12	13	1
121	123	1
206	209	1
128	211	1
59	60	1
34	98	1
52	183	1
220	223	1
10	103	1
170	170	1
