26	26	13
6	25	3
83	84	1
72	72	17
75	75	10
132	132	5
53	53	10
68	68	13
18	18	18
35	35	27
3	3	21
47	47	16
127	129	2
26	151	1
11	74	2
150	150	14
112	112	14
97	107	4
94	94	4
87	88	2
111	114	3
85	101	1
158	158	22
38	38	10
91	92	13
17	17	25
149	150	2
28	28	6
89	89	17
118	118	8
11	11	26
8	8	13
101	102	8
43	43	22
19	19	9
123	123	8
82	82	11
22	22	3
15	15	9
13	13	13
141	157	8
11	12	18
36	36	42
111	112	14
120	120	6
159	159	13
9	10	8
56	56	20
38	39	2
130	130	18
45	45	24
0	0	7
20	21	6
50	50	12
5	10	6
3	43	5
140	140	11
25	25	21
142	143	7
109	111	4
80	80	5
73	73	27
12	15	4
8	10	4
135	168	2
107	107	15
164	164	8
22	23	13
142	142	13
71	71	8
90	91	5
100	100	11
74	75	4
5	6	1
52	52	13
128	128	5
69	99	10
80	83	9
75	122	1
10	10	15
24	25	8
84	112	1
121	121	4
146	149	5
84	86	3
76	77	13
102	102	10
72	101	3
122	122	16
94	95	5
166	166	12
139	150	4
146	147	8
165	165	10
114	114	18
28	87	2
34	34	16
79	83	3
6	6	22
134	134	9
18	20	3
41	41	34
136	136	8
125	127	5
88	89	8
55	55	17
14	14	12
153	153	7
42	42	33
37	40	2
138	138	6
87	87	5
13	14	14
90	93	3
141	141	10
114	119	6
129	129	21
69	71	3
139	139	17
47	49	2
80	81	6
27	150	1
155	157	3
167	167	11
161	161	6
62	63	11
101	101	3
105	105	15
110	110	12
74	74	11
44	44	10
118	119	6
117	130	5
114	116	4
8	47	3
115	119	2
81	81	3
2	2	19
170	170	12
27	27	10
133	133	4
51	62	1
1	1	25
5	5	11
69	88	4
111	111	18
143	143	5
125	125	9
96	96	8
135	135	9
168	168	6
100	104	5
127	127	6
33	33	10
100	102	4
20	20	3
111	119	5
104	104	10
76	76	11
25	27	1
102	104	5
86	87	2
39	44	2
8	9	13
106	106	12
51	83	2
96	99	4
108	112	2
114	117	2
99	99	6
117	117	13
17	18	7
107	108	2
109	109	12
6	7	10
23	23	4
20	23	4
94	98	1
138	166	10
122	126	1
77	77	2
97	98	2
97	99	4
149	149	19
126	126	8
119	120	4
79	79	6
120	121	2
92	94	1
35	36	10
145	145	7
163	165	1
37	37	13
0	1	8
7	8	6
94	97	2
161	162	3
10	18	2
72	157	4
78	79	10
134	135	3
169	169	12
41	42	3
119	119	5
47	48	10
152	153	6
157	158	12
4	4	11
126	167	2
102	105	2
159	163	1
68	70	3
23	69	5
95	96	3
21	21	13
157	157	8
17	19	3
96	97	4
137	137	8
72	74	3
24	42	1
110	111	5
115	115	4
91	91	6
24	24	6
79	90	2
47	50	2
102	103	2
78	78	5
37	38	3
54	55	5
54	54	12
33	35	2
100	101	3
25	26	6
92	93	9
125	132	3
83	83	5
18	19	8
51	51	10
46	49	3
152	156	5
112	122	4
27	28	2
158	159	4
66	66	4
71	72	8
97	97	5
146	162	1
87	94	3
8	49	9
101	114	1
138	145	5
14	96	2
145	148	5
106	107	6
39	40	12
129	133	6
27	169	2
81	82	3
43	44	2
26	32	2
8	24	2
155	155	3
141	142	3
123	124	5
73	126	4
136	159	3
98	98	3
9	53	5
126	133	4
106	118	1
70	85	1
8	45	2
121	122	2
87	90	2
91	95	3
63	63	6
62	62	9
154	154	2
127	128	3
45	47	1
84	85	4
85	85	4
141	153	2
163	163	3
56	57	5
77	80	3
90	90	7
50	62	5
72	156	1
36	37	3
40	40	5
146	146	4
12	12	10
93	93	7
14	15	7
143	144	3
168	170	2
76	86	2
103	103	8
64	88	1
130	133	2
1	37	4
140	141	6
34	36	3
91	96	1
67	68	1
159	160	5
108	109	1
148	149	7
161	163	2
70	70	6
112	149	2
112	116	1
124	124	2
44	45	6
125	128	2
17	112	2
156	163	2
6	8	3
52	62	2
110	134	1
122	123	1
126	132	5
142	144	5
39	39	6
147	147	7
105	106	3
132	133	1
85	87	3
108	108	9
90	103	1
130	131	2
48	48	4
169	170	2
113	113	3
144	144	7
148	148	2
95	99	3
146	167	1
46	48	1
64	64	4
84	84	3
127	157	1
107	132	3
144	145	4
160	160	4
1	43	1
10	72	1
150	151	3
146	148	3
0	44	1
99	111	1
137	170	2
128	136	3
86	86	7
49	49	10
88	88	3
53	54	3
146	161	2
46	46	5
156	157	3
27	35	3
77	79	1
110	120	2
88	105	2
48	53	2
12	90	1
99	100	1
3	4	5
137	165	2
37	41	3
6	90	2
112	144	1
52	53	2
57	63	4
80	82	7
39	41	1
19	20	1
125	136	1
43	110	1
122	147	2
154	155	5
7	7	6
100	103	2
0	42	2
158	169	1
5	45	2
13	107	2
16	16	6
7	45	2
3	11	1
119	130	1
1	2	8
163	164	1
2	44	1
69	103	1
33	34	7
22	66	2
10	23	2
112	120	3
109	134	1
108	132	2
150	165	3
124	130	2
25	106	2
82	83	4
104	105	2
50	51	4
86	95	1
91	104	2
62	70	2
121	127	3
16	17	2
24	52	1
113	115	4
92	92	5
148	170	4
161	165	2
42	43	3
142	166	1
131	132	3
90	100	1
55	56	3
116	116	4
160	161	1
135	136	2
57	57	2
116	118	1
143	167	2
10	11	4
26	27	3
52	106	3
108	113	3
116	117	3
67	70	3
36	38	1
10	21	2
82	84	2
72	126	2
11	90	1
149	166	1
109	133	2
42	109	1
131	131	4
21	24	2
113	114	5
117	119	2
51	57	1
64	65	1
27	101	2
121	130	3
147	148	3
12	13	1
141	144	1
76	78	3
148	167	2
51	81	1
165	166	1
89	94	2
132	136	1
129	130	1
85	112	1
14	18	1
48	56	4
23	24	1
161	164	1
103	104	3
87	89	3
23	67	1
155	156	1
137	166	3
7	24	1
168	169	3
40	41	1
69	69	2
105	108	2
123	125	1
106	151	1
159	161	1
76	79	1
13	15	2
46	47	2
126	127	1
52	101	1
53	55	1
94	101	1
85	86	2
73	74	1
96	98	1
45	106	1
69	70	2
93	95	1
2	3	2
91	93	2
34	37	1
137	167	1
13	17	1
97	100	1
139	141	1
152	152	1
151	151	1
106	119	3
34	35	1
89	90	1
42	97	1
95	95	1
82	87	1
17	20	2
158	170	2
8	22	1
11	41	1
93	106	1
67	69	2
118	130	1
90	102	1
50	81	1
19	99	1
144	167	1
45	46	1
10	105	1
10	12	1
79	84	1
55	91	1
119	121	1
9	9	1
121	129	2
152	159	1
124	126	1
