36	36	9
212	212	19
91	166	4
47	47	11
16	16	29
50	73	2
161	162	9
202	202	37
95	97	4
178	178	10
86	86	13
178	197	3
206	206	6
183	211	7
215	215	8
151	152	5
158	158	8
198	198	18
58	60	7
85	86	7
64	66	4
110	110	19
3	3	16
237	237	27
227	227	20
29	29	24
52	52	25
229	233	2
83	84	9
197	213	5
214	219	3
208	208	29
0	3	2
187	189	15
42	52	1
151	151	41
167	174	1
186	186	22
37	37	27
105	105	9
25	27	1
182	184	1
154	154	32
94	114	5
60	61	13
43	52	2
242	243	3
243	243	3
201	201	32
49	49	8
190	190	10
93	116	2
37	38	18
59	59	18
33	33	13
43	43	14
53	53	11
231	233	1
55	55	18
244	244	25
59	60	15
213	213	26
230	230	21
114	114	46
198	199	7
49	63	2
115	115	28
179	179	28
195	195	14
49	50	20
226	226	11
1	1	6
40	40	22
235	236	5
214	214	18
56	56	9
81	82	9
64	65	8
64	64	8
24	26	4
52	54	6
156	156	40
172	173	16
228	229	6
19	205	4
59	70	3
51	51	26
166	166	9
21	21	28
218	218	17
96	97	6
165	177	2
145	145	6
71	71	15
187	199	3
111	111	13
144	145	6
96	96	4
22	22	15
22	23	6
170	170	12
152	152	28
183	184	6
24	25	15
73	74	4
213	214	7
105	106	13
95	95	16
17	17	19
21	22	7
57	58	11
200	200	16
162	162	18
76	76	13
101	101	8
178	193	1
78	79	7
41	41	23
247	248	3
225	225	26
157	157	17
120	120	10
165	176	2
33	46	11
240	241	6
48	78	11
31	31	24
20	20	28
72	72	8
173	174	14
46	46	21
236	240	2
184	185	8
48	48	36
183	197	9
2	2	8
102	102	8
219	219	9
216	216	15
34	34	23
55	56	2
155	155	26
183	183	17
169	169	20
245	246	9
52	117	1
63	64	3
175	175	12
207	207	34
32	40	7
66	66	21
62	63	11
6	6	15
233	234	18
177	177	23
61	61	13
7	229	3
68	69	4
93	156	2
107	107	11
182	225	3
161	161	14
83	108	1
152	155	4
94	94	15
199	199	26
29	30	12
46	118	1
172	224	2
70	70	22
41	42	5
112	112	23
220	245	2
74	74	15
238	238	16
215	217	3
152	153	16
106	109	2
234	235	6
62	219	3
247	247	14
30	30	16
228	228	13
7	19	2
75	102	5
113	113	14
34	35	3
239	241	1
60	60	13
78	78	21
234	234	32
65	65	13
80	101	2
27	28	5
222	223	11
50	50	4
241	241	15
204	205	4
62	62	27
181	198	8
38	38	27
210	211	13
7	7	20
39	57	2
223	225	1
153	153	18
36	37	5
152	163	1
92	92	22
110	111	7
224	225	9
176	176	11
219	223	3
165	165	15
232	232	9
195	196	10
4	16	1
116	116	13
201	202	8
109	109	19
67	67	10
56	57	12
229	229	18
245	245	10
163	163	14
3	7	2
240	240	13
69	69	5
44	44	16
4	4	9
221	222	11
181	184	5
63	67	4
52	53	12
173	198	3
18	18	16
77	77	14
87	88	3
166	209	4
6	7	12
24	27	4
186	192	3
94	95	9
90	90	7
27	27	12
33	38	6
186	187	3
214	216	8
83	105	2
209	210	11
8	9	7
248	248	3
172	172	15
30	119	2
58	58	16
87	87	15
221	221	13
47	62	1
211	211	21
186	203	1
168	207	4
31	41	2
54	55	1
82	82	7
210	210	18
216	218	5
26	26	13
34	39	4
162	163	3
160	160	16
203	203	21
26	27	6
35	35	11
52	110	4
194	194	21
150	150	31
119	119	9
39	39	10
80	80	12
67	68	2
181	242	3
182	182	18
177	211	4
191	194	6
178	232	2
14	14	20
150	151	5
103	104	6
204	204	27
69	70	3
171	171	5
180	181	9
199	232	1
65	69	4
159	159	22
189	190	5
170	171	10
182	223	1
18	197	3
201	225	2
95	96	7
152	214	2
156	168	3
221	234	4
175	209	2
23	23	17
17	18	2
12	12	15
157	159	3
180	180	17
26	145	2
5	5	17
66	68	3
189	196	4
197	197	10
220	234	7
33	55	2
235	235	23
167	168	5
54	54	14
151	223	1
43	45	2
180	193	2
239	240	5
99	99	15
164	164	10
180	215	3
7	234	4
76	77	12
236	242	1
200	201	5
246	246	6
48	65	1
9	22	2
49	62	4
97	119	4
167	167	11
15	15	14
224	224	15
5	12	2
180	185	2
98	100	1
48	50	7
177	197	4
68	70	4
108	109	7
31	40	3
168	168	12
153	154	4
218	219	8
91	92	2
170	172	3
8	41	1
232	233	6
238	239	7
4	18	3
25	25	7
223	224	3
12	15	3
8	8	12
94	193	2
184	192	1
175	210	2
118	118	19
0	0	3
45	53	2
19	19	18
178	208	2
5	11	4
154	179	1
185	186	3
110	156	3
238	244	3
189	189	4
38	41	1
193	193	7
223	223	14
71	72	3
173	173	27
117	117	15
43	46	1
184	193	3
163	165	2
71	76	2
155	156	3
4	6	2
19	20	5
89	89	5
181	182	8
226	228	5
238	240	7
189	191	1
34	58	1
90	92	2
199	200	5
181	181	15
230	231	1
34	37	1
61	65	5
24	24	23
198	200	1
220	220	13
47	60	8
236	241	4
188	188	9
32	201	1
18	19	4
237	238	6
45	45	10
50	58	3
111	112	11
42	53	4
46	62	3
93	93	8
63	238	1
12	38	5
159	161	1
210	212	2
97	99	4
108	108	21
185	185	3
32	32	26
11	224	3
60	78	4
149	149	3
244	246	3
168	170	3
150	185	3
58	72	2
2	7	2
174	207	3
33	201	1
203	204	6
20	30	2
104	105	3
89	90	7
88	88	2
82	84	2
25	26	5
12	39	1
193	194	8
169	171	4
84	84	16
239	239	6
109	110	3
62	231	4
114	115	5
200	231	5
222	224	2
184	188	3
19	23	5
222	222	9
109	156	1
113	114	7
38	39	3
62	220	7
160	163	6
186	212	6
45	46	9
99	100	2
236	236	7
10	10	10
31	32	2
182	183	11
197	198	12
90	184	5
79	79	2
184	184	3
63	65	2
11	11	18
179	227	1
152	213	4
118	119	6
241	242	7
90	91	2
67	69	4
187	187	15
204	206	2
175	176	6
57	57	3
94	174	1
166	190	2
10	113	3
190	191	2
1	2	3
33	69	1
230	233	1
40	41	2
91	91	10
62	67	3
97	98	11
164	165	4
217	217	10
216	236	4
171	172	9
168	169	4
58	59	15
10	11	2
185	214	1
208	209	6
199	231	3
200	241	1
99	116	1
220	221	5
187	191	2
50	51	3
191	192	1
90	192	3
67	221	3
105	107	3
117	159	2
144	144	5
179	180	4
94	115	4
220	243	1
107	108	3
97	97	5
9	21	1
4	119	1
92	179	3
186	198	6
151	153	2
222	235	3
179	214	1
178	179	4
85	101	7
46	47	4
231	232	1
41	43	3
72	73	10
88	89	6
101	103	2
200	240	3
166	175	2
61	62	10
191	193	3
174	194	3
151	167	2
146	146	4
104	104	6
181	215	6
197	199	3
34	46	1
233	233	12
87	89	1
192	193	5
4	231	2
81	81	4
226	227	7
51	52	8
36	39	1
176	208	6
106	115	1
92	93	12
159	160	8
61	247	1
20	204	1
231	241	2
200	232	3
80	81	1
9	9	4
176	223	1
33	71	6
4	5	5
63	63	6
26	147	1
157	160	2
205	205	8
117	118	5
35	38	1
20	202	2
75	249	4
211	219	1
119	120	3
90	195	2
9	16	2
85	85	4
2	6	3
10	43	1
192	196	3
28	28	7
206	207	9
165	167	4
174	174	6
75	76	2
23	25	4
221	243	1
186	188	2
1	3	1
234	241	3
188	189	4
14	15	4
3	229	3
73	100	1
50	109	3
47	48	4
1	18	1
100	120	2
184	209	6
183	219	2
211	212	12
100	100	7
213	217	1
19	29	1
81	104	2
191	191	5
17	28	4
109	161	2
160	161	1
236	246	2
176	197	1
33	117	1
106	106	2
32	109	3
51	82	2
114	116	2
242	242	5
203	224	2
208	212	3
153	213	1
161	163	6
149	150	2
6	52	2
15	16	4
80	82	3
70	71	1
157	158	5
23	24	4
65	210	6
77	78	5
244	247	3
227	228	3
71	92	1
21	44	2
66	67	4
35	246	5
17	154	1
2	9	1
11	12	5
81	83	8
110	152	4
167	202	3
49	58	4
4	30	3
154	186	2
63	66	2
192	195	5
38	40	2
100	160	2
98	99	4
11	54	1
92	98	2
152	169	1
65	239	2
209	212	1
29	183	2
178	207	4
104	106	1
182	213	3
95	100	1
158	159	3
202	203	3
79	84	2
168	197	2
209	209	5
3	9	2
110	113	3
78	82	1
112	113	5
28	233	1
205	230	4
62	66	1
48	62	1
164	168	1
18	204	2
175	178	1
98	98	3
196	196	3
194	195	5
184	191	3
20	22	3
51	54	2
205	228	2
186	200	3
95	108	1
111	244	1
211	234	2
47	86	1
154	161	1
80	83	1
83	83	1
31	120	1
32	33	2
204	227	5
100	115	1
65	66	5
47	61	1
46	58	1
92	95	2
75	75	5
66	69	2
73	73	1
175	193	2
233	239	1
236	237	5
225	226	3
235	245	1
110	114	3
90	209	4
26	69	1
106	108	1
74	87	1
8	21	1
77	104	1
204	228	1
115	116	3
167	193	2
15	63	1
109	113	2
186	213	3
194	196	2
179	197	2
154	155	4
34	49	3
181	235	1
229	230	3
57	59	3
176	177	2
109	114	2
9	10	5
181	216	3
117	119	1
235	237	4
84	108	1
100	161	1
56	119	2
100	101	2
75	87	1
105	115	3
33	35	1
59	61	2
2	3	6
10	66	2
34	118	2
143	158	1
47	59	2
35	36	2
223	246	5
212	220	1
214	235	4
84	99	1
180	230	2
163	166	1
34	75	1
108	111	1
83	104	3
239	244	1
19	152	1
153	180	2
174	176	5
221	225	2
233	240	3
43	44	2
37	235	3
215	216	2
173	202	2
163	164	4
172	175	2
47	85	3
192	194	2
164	186	1
61	70	2
153	174	1
177	214	3
178	186	2
167	169	1
77	79	1
7	8	2
7	9	1
72	74	1
199	241	1
167	173	1
156	157	1
207	212	2
84	85	1
166	167	2
84	113	1
100	116	3
222	230	2
68	68	5
85	100	1
188	197	3
102	103	1
53	54	1
57	119	2
221	233	2
85	104	2
154	185	1
118	120	1
86	99	1
32	118	1
20	224	1
158	162	3
46	61	1
151	163	2
91	169	1
183	221	1
106	107	4
214	220	1
112	244	1
90	189	1
42	42	2
213	235	3
7	11	1
42	43	1
181	193	1
33	39	1
103	103	2
93	94	3
179	207	1
219	244	1
151	154	1
12	240	1
90	194	1
245	247	2
218	247	1
92	171	2
30	120	1
20	203	3
5	7	1
57	118	1
201	229	1
175	197	1
40	70	1
213	215	2
217	218	2
44	46	3
70	75	1
173	200	2
48	63	1
231	231	1
71	87	3
242	244	1
49	65	1
192	192	4
61	220	1
33	75	2
165	192	1
215	237	1
242	245	1
212	213	1
178	198	1
36	38	2
102	105	3
169	170	1
32	39	1
81	109	1
19	203	1
90	151	1
159	166	1
238	241	1
51	110	2
178	206	1
173	178	1
181	192	1
91	164	1
243	246	1
46	52	1
231	234	1
175	198	1
153	163	1
195	223	1
182	214	1
177	198	1
35	245	1
178	221	1
5	6	1
158	170	1
211	235	1
18	20	1
112	164	1
189	198	1
65	108	1
24	28	1
213	216	1
34	71	1
95	98	1
236	238	1
249	249	1
