34	38	3
92	92	2
13	13	10
115	115	9
19	22	2
94	94	9
126	127	12
2	2	8
119	122	2
125	125	12
10	10	5
12	12	16
101	108	2
91	91	16
87	87	6
101	128	2
107	108	10
4	15	4
23	126	4
113	113	17
132	132	9
5	5	25
95	95	8
25	39	1
81	81	6
112	112	21
128	128	7
15	26	1
3	5	2
36	36	7
2	3	6
15	15	8
122	122	15
82	82	7
24	26	4
21	22	2
130	130	19
129	132	1
90	90	12
135	136	7
85	85	4
76	76	8
98	98	6
83	83	10
127	127	14
110	121	3
8	23	15
130	134	1
74	75	12
113	115	6
71	103	3
118	118	5
119	119	11
121	121	9
2	85	3
92	94	2
35	35	6
84	90	2
82	84	2
134	134	20
101	106	3
110	110	10
81	85	1
17	18	15
9	18	4
74	97	1
120	121	2
114	115	13
7	7	14
33	33	3
114	130	1
79	79	5
75	100	8
91	114	4
72	78	4
93	93	8
6	18	2
129	129	5
91	137	3
100	100	6
99	100	4
34	83	2
124	128	3
13	30	7
24	25	6
29	29	6
18	18	5
116	116	11
89	90	4
128	129	4
123	123	29
117	118	5
139	139	24
20	21	4
113	119	3
138	138	16
12	20	2
140	140	9
2	93	1
75	75	2
128	134	3
136	136	16
5	21	2
78	78	6
106	106	6
137	137	15
77	120	2
116	140	1
113	116	3
26	27	3
104	106	6
28	36	2
80	94	5
126	126	12
8	8	7
14	29	1
87	88	3
6	15	1
81	82	10
7	10	1
96	98	3
103	103	2
119	125	5
101	101	12
102	103	7
107	107	8
80	80	10
31	31	6
74	99	3
101	123	2
16	113	4
115	116	3
38	76	1
133	133	5
94	117	2
73	73	8
139	140	9
93	95	2
37	37	9
84	84	5
131	131	9
35	36	3
120	120	5
25	26	3
74	74	15
20	20	12
79	110	6
23	23	1
133	134	5
24	24	4
124	124	7
99	99	3
110	124	3
76	79	3
96	96	7
89	89	12
28	29	4
14	18	1
1	31	5
22	22	3
98	112	7
135	135	6
122	123	5
78	109	1
94	95	4
26	26	4
15	25	1
3	3	5
88	91	1
84	105	3
137	138	12
72	72	4
1	2	5
117	117	10
134	136	2
80	85	3
127	136	3
16	16	11
77	110	1
16	27	1
13	24	2
1	1	5
92	120	1
123	124	4
108	108	7
114	116	6
104	126	2
14	14	1
17	19	5
101	102	4
72	96	1
113	114	3
19	19	9
10	11	10
78	101	3
3	4	1
73	74	4
17	17	8
75	108	4
37	38	7
6	6	4
136	138	4
11	12	3
77	88	2
124	125	6
114	117	5
77	78	2
114	114	6
131	140	1
9	24	1
72	73	6
22	84	1
7	18	1
91	92	4
92	112	1
102	102	5
110	111	2
122	125	6
88	88	11
38	38	2
93	94	2
13	14	9
32	32	6
99	103	2
109	109	2
138	140	2
17	20	3
105	105	9
8	80	3
81	83	1
131	132	4
127	128	2
34	34	1
33	35	3
34	101	1
87	92	4
11	11	5
74	130	3
12	32	2
78	80	1
77	79	7
0	0	2
137	141	1
135	138	1
75	76	2
129	130	3
4	4	4
120	123	6
89	91	1
137	139	4
4	17	2
77	93	1
0	2	1
34	36	2
96	112	2
22	33	1
7	8	4
21	33	1
109	125	1
16	110	1
7	15	1
21	21	2
27	27	1
71	72	4
15	23	2
9	9	3
101	124	1
81	84	2
9	19	1
28	28	5
104	107	2
93	112	1
16	23	2
25	27	2
112	137	2
30	30	3
102	129	1
107	112	1
77	77	1
2	6	1
27	29	1
6	7	3
132	135	1
1	13	1
118	119	6
80	93	2
108	109	1
86	121	1
97	97	6
104	104	4
5	22	2
83	119	2
76	94	1
27	28	1
30	31	1
38	83	1
96	97	3
78	122	1
76	77	1
27	107	1
86	86	4
120	122	2
135	140	1
86	90	1
3	15	2
11	13	2
104	109	2
116	127	1
110	122	1
87	132	1
108	124	3
23	36	4
105	109	1
78	79	1
0	6	1
121	123	2
138	139	3
71	94	1
131	133	2
7	11	1
22	23	2
1	6	2
77	87	1
9	82	1
117	130	1
44	106	1
25	25	1
18	82	2
130	131	1
108	111	2
121	125	1
28	30	4
121	124	2
8	24	1
100	101	2
125	126	2
29	30	2
0	5	2
95	96	1
122	124	1
136	137	1
83	84	1
72	99	1
106	123	1
34	73	1
8	9	2
81	113	1
125	127	1
27	83	1
36	37	1
1	23	1
81	125	1
74	109	1
108	121	1
7	13	2
84	106	1
72	103	1
2	22	1
10	12	1
12	14	1
26	126	1
99	114	1
32	37	1
107	124	2
128	136	1
6	12	1
75	109	1
116	117	2
90	91	1
78	103	1
125	130	1
91	131	2
132	133	1
116	122	1
10	19	1
7	9	1
23	24	1
82	85	1
31	32	1
112	140	1
15	16	1
15	107	1
80	84	1
