57	57	10
229	230	10
119	119	7
88	88	21
44	44	13
55	55	32
160	180	4
203	233	5
215	217	4
7	7	21
207	207	41
183	183	29
93	94	3
216	219	5
155	155	25
210	215	4
230	230	10
82	86	2
90	90	25
206	206	3
156	156	38
188	190	3
163	163	19
235	235	22
35	35	23
43	216	3
98	98	6
168	168	22
194	194	20
240	240	19
105	109	2
218	218	6
224	224	8
154	155	11
214	214	18
190	218	4
213	213	25
0	1	5
111	111	20
22	24	1
42	42	10
112	115	3
197	212	14
101	104	1
22	22	38
210	211	4
45	45	40
29	30	8
186	234	1
150	155	2
107	107	24
176	184	5
43	43	25
236	238	3
39	39	17
155	156	6
109	109	25
150	150	28
154	154	31
110	110	44
23	23	11
16	16	9
234	234	26
51	55	1
11	25	4
202	204	9
245	247	5
24	226	1
20	20	25
31	50	4
240	241	7
47	47	22
205	205	30
239	239	15
26	26	9
19	48	1
27	27	12
200	200	38
146	146	7
108	108	19
25	25	13
236	237	3
223	234	3
165	179	2
9	9	25
221	222	6
201	204	6
225	225	11
180	181	14
187	188	5
56	56	17
118	118	14
15	15	20
113	113	28
11	11	18
201	207	6
237	237	13
3	4	5
8	8	25
178	178	29
201	208	3
80	80	11
209	209	19
60	61	10
196	196	12
58	58	10
94	94	32
184	184	15
70	70	7
233	233	21
177	177	20
21	21	23
201	201	40
234	235	13
45	46	6
201	205	3
35	36	10
33	33	26
165	165	28
105	105	17
121	121	2
166	166	18
64	64	14
205	207	5
57	176	4
180	184	1
59	59	12
5	11	4
61	200	3
159	159	12
61	61	15
215	215	10
155	200	5
85	87	2
186	186	19
202	202	19
117	117	8
162	162	26
185	185	29
71	71	3
203	203	13
106	106	14
204	206	9
172	172	19
191	192	23
208	209	10
208	232	5
114	114	11
78	78	4
241	241	25
102	104	1
69	103	2
225	226	9
10	10	23
86	88	4
115	115	24
38	38	15
48	49	12
37	37	21
211	212	9
48	48	9
36	150	4
245	245	11
197	199	5
62	62	22
93	93	23
67	67	12
88	89	7
15	25	1
231	231	7
95	97	3
54	54	21
168	174	3
64	65	10
14	19	5
238	239	14
172	173	7
116	117	13
171	176	4
196	197	7
112	112	15
167	167	29
101	101	6
52	52	13
160	160	19
153	153	28
15	222	7
43	44	11
221	221	29
163	164	15
111	245	3
174	174	20
50	50	19
8	9	3
27	28	7
47	48	8
76	76	11
97	115	1
97	99	4
1	1	21
245	246	9
192	194	3
147	147	1
44	45	5
10	201	5
46	46	34
41	43	4
40	41	4
85	86	11
104	106	5
216	224	1
3	3	17
61	62	10
38	48	2
32	33	9
30	192	4
208	208	29
180	180	4
211	211	29
154	157	3
90	91	12
36	36	13
35	38	2
55	56	6
92	93	2
151	151	34
164	165	6
220	220	9
204	204	25
187	187	15
165	166	17
69	69	14
57	58	8
6	43	1
209	232	3
167	168	7
91	91	17
119	171	5
169	169	28
63	110	2
51	51	22
214	215	6
84	88	1
147	155	2
88	212	2
77	82	6
80	82	6
34	34	16
227	230	7
244	244	25
68	68	19
212	212	30
17	17	16
216	216	12
90	102	2
164	164	18
53	53	23
66	66	20
221	224	5
40	40	22
116	116	19
49	49	14
92	92	21
115	116	1
113	114	10
168	169	9
182	182	22
90	196	4
192	192	16
77	77	7
24	25	5
117	118	7
188	189	1
227	227	8
171	171	8
178	179	12
157	175	1
40	44	2
189	190	5
29	29	10
77	78	3
30	31	5
113	116	7
84	85	2
86	100	4
222	222	15
152	152	14
51	52	3
2	2	9
79	79	4
18	18	10
29	39	5
49	56	3
83	83	9
95	99	1
185	232	8
194	239	4
28	28	12
242	246	5
6	11	1
52	161	4
241	246	1
239	241	7
170	170	10
158	158	3
199	199	16
196	209	6
60	77	4
52	53	8
48	51	3
60	63	1
95	95	36
157	157	14
153	154	11
170	247	2
85	85	4
84	84	9
102	102	1
232	232	18
52	89	3
118	119	5
56	162	2
86	86	11
170	171	3
191	191	7
162	181	1
19	19	12
226	226	25
200	201	9
5	5	13
53	54	3
11	12	2
37	41	3
85	101	4
71	75	8
155	207	3
241	247	3
104	105	6
224	225	4
152	153	15
17	18	3
73	73	11
232	234	3
197	242	2
50	62	5
160	177	4
103	104	4
193	193	10
228	230	1
190	191	7
55	74	4
37	56	4
63	183	3
169	246	6
175	181	4
150	157	3
198	242	3
198	198	25
176	177	7
149	150	6
160	181	1
75	179	3
120	120	2
237	239	5
45	119	4
87	200	1
44	93	1
161	162	12
30	30	13
6	6	20
188	188	6
201	202	9
11	14	3
121	145	3
181	182	9
161	161	6
169	192	5
24	24	8
72	73	2
0	8	4
197	197	21
181	181	11
232	236	4
59	80	4
232	233	2
229	229	19
238	238	7
217	217	11
87	87	9
72	74	5
84	168	1
175	177	9
242	243	9
243	243	7
35	54	8
4	5	7
173	181	2
172	174	2
31	32	8
153	165	1
179	179	19
8	201	6
1	183	4
212	246	2
3	22	5
15	16	2
100	104	3
174	197	5
95	100	2
179	180	5
192	232	1
14	15	6
150	151	6
197	198	8
236	236	2
87	105	1
63	63	16
112	166	3
11	15	5
212	213	4
60	60	12
76	77	6
13	14	1
175	175	13
96	96	21
65	65	5
173	173	7
171	172	6
6	7	7
203	204	5
118	171	1
91	92	8
112	175	2
45	47	4
209	210	4
244	245	8
246	247	5
158	160	10
83	84	3
68	100	6
62	198	3
185	186	5
4	244	5
54	55	3
87	100	3
57	60	3
187	207	4
222	223	4
78	79	3
31	31	9
174	175	3
84	86	1
62	64	1
4	4	11
7	203	1
228	228	11
174	185	5
219	248	1
195	195	8
32	32	31
53	162	2
26	27	7
41	41	10
207	208	5
69	71	11
66	67	9
205	221	1
169	184	4
144	144	6
81	101	1
200	247	1
162	167	3
2	237	1
49	50	3
75	76	6
242	242	7
35	219	6
27	29	2
175	176	5
171	249	4
80	86	5
9	229	2
46	200	1
44	60	3
94	95	2
206	221	4
78	117	5
17	20	5
203	234	2
89	90	3
186	189	3
99	100	8
105	108	3
233	234	12
114	212	2
54	180	2
69	70	3
146	147	6
193	239	3
5	6	1
157	158	2
43	208	2
198	199	6
62	212	3
206	207	7
193	195	3
110	113	6
195	196	8
179	183	2
12	18	2
151	154	1
200	205	14
61	69	2
86	102	5
169	170	2
149	149	2
247	248	3
190	190	9
48	50	4
74	74	7
68	213	4
61	72	2
0	10	6
157	173	4
17	19	3
6	182	2
61	179	1
248	248	13
177	178	4
49	57	5
2	5	3
91	103	7
206	208	2
208	233	3
64	68	2
168	208	2
97	97	9
112	113	6
89	89	12
83	85	4
70	73	2
36	55	6
219	219	9
105	153	1
85	89	4
79	84	3
18	19	6
114	115	20
99	99	4
211	213	3
2	22	2
228	229	11
65	67	1
160	183	1
96	98	3
82	83	1
93	109	5
159	165	4
36	205	1
190	192	4
160	164	1
160	175	4
103	105	1
192	233	2
160	161	2
168	248	6
57	61	1
96	97	3
12	13	2
87	199	3
63	90	4
108	113	1
223	223	10
186	187	3
61	214	4
1	2	2
154	220	1
54	56	3
68	72	1
159	171	3
79	81	5
24	229	1
246	246	7
193	194	8
217	218	1
226	227	4
52	72	2
6	186	1
100	100	6
153	179	1
108	116	1
247	247	3
194	196	2
65	184	5
199	236	4
10	155	2
220	221	7
194	208	1
35	41	2
1	22	2
202	203	4
106	107	2
37	192	3
111	246	1
191	208	2
163	175	1
231	232	4
73	74	7
175	192	1
237	240	4
20	21	1
25	26	2
241	245	2
71	76	3
210	210	6
12	212	2
151	153	4
243	244	2
189	233	2
41	229	3
76	101	1
235	236	3
53	179	2
184	185	3
61	170	5
178	193	4
189	191	3
95	98	3
214	244	3
67	68	1
81	82	5
98	161	1
41	42	4
63	89	3
31	37	2
78	220	2
75	75	4
144	169	3
33	45	1
182	184	3
199	200	2
15	33	1
77	79	2
171	178	4
193	214	1
108	109	3
215	216	2
68	70	1
223	224	6
227	228	3
16	17	1
40	92	1
225	227	2
12	12	6
40	93	2
11	18	1
8	200	4
7	17	12
243	246	2
161	164	2
113	172	2
110	111	3
81	100	1
189	189	1
145	145	5
6	231	1
177	195	2
30	48	2
9	10	1
92	198	1
2	4	1
81	85	1
23	24	4
208	210	2
239	240	1
158	159	6
10	12	2
149	203	1
33	35	1
50	57	1
107	108	1
68	69	3
73	171	2
198	207	1
97	114	1
55	198	2
199	210	5
212	222	5
93	224	2
32	40	1
181	183	5
116	209	3
25	203	1
85	100	3
6	183	2
180	183	2
109	114	2
2	6	3
89	91	4
240	244	1
205	206	5
67	106	4
67	107	2
28	29	2
33	38	1
174	180	1
48	161	2
109	111	2
34	54	1
42	43	2
162	163	1
151	155	1
211	214	1
21	22	2
51	97	2
182	183	3
176	176	8
146	204	1
200	207	6
3	11	3
241	243	1
100	101	1
64	90	1
109	110	7
14	25	1
159	183	1
95	115	1
5	31	2
71	73	1
30	32	1
204	207	5
56	57	2
41	94	2
37	38	1
173	174	1
81	81	4
154	156	1
88	99	2
74	151	2
169	248	1
53	94	3
242	245	1
91	93	2
231	235	1
7	151	1
5	185	1
82	82	2
91	197	2
78	84	1
190	208	2
14	14	2
38	160	1
34	35	4
78	100	1
236	246	1
19	20	3
57	62	4
160	165	3
74	201	2
9	202	1
144	165	1
65	66	1
13	13	1
165	167	4
8	168	1
4	31	1
4	19	1
61	74	1
167	208	1
95	113	1
22	23	2
20	29	1
1	3	3
170	173	2
19	29	3
196	211	2
186	190	1
70	71	6
39	40	1
218	219	2
116	212	1
177	184	3
87	88	1
220	224	2
174	183	1
56	72	1
47	75	3
46	61	4
76	118	3
24	220	1
194	195	4
12	19	1
211	221	2
38	39	1
10	156	1
62	63	2
48	182	1
178	197	1
187	226	1
84	87	1
153	158	1
146	203	2
17	108	1
145	159	1
47	76	1
161	175	4
77	118	1
211	216	3
161	163	2
193	246	1
9	205	1
68	103	2
204	205	4
156	201	1
167	212	1
230	235	2
192	208	2
38	47	1
159	160	1
35	55	1
79	82	2
50	51	1
152	164	2
152	178	1
12	203	3
59	68	1
85	94	2
194	199	1
1	7	2
151	162	1
237	243	2
49	51	2
245	248	3
219	225	2
22	25	1
183	184	2
186	231	1
74	75	1
211	237	1
181	184	1
119	211	2
98	99	1
3	237	1
157	167	1
182	190	1
103	103	2
67	186	1
72	72	1
38	169	1
216	218	2
193	240	1
55	180	1
10	18	1
242	244	1
63	91	1
153	206	1
157	162	1
111	115	1
216	217	1
101	102	1
159	169	1
171	173	1
53	116	1
213	215	1
28	49	1
4	239	1
36	202	1
