107	107	17
73	73	25
45	45	9
98	117	3
63	63	31
90	90	38
129	129	23
97	130	2
6	12	1
44	45	5
69	69	19
101	101	27
106	127	4
102	102	20
57	58	5
128	128	20
127	127	21
102	103	7
53	54	7
111	111	14
43	43	2
114	114	14
3	3	7
64	64	8
105	105	29
127	128	10
14	24	6
121	121	20
93	93	15
103	103	29
81	81	9
103	104	17
82	83	14
23	23	4
26	26	13
112	112	17
78	79	5
75	75	29
124	124	11
89	89	14
21	21	4
56	56	6
86	86	20
86	87	15
82	87	1
67	67	16
122	122	11
66	67	8
30	30	16
43	45	1
74	75	14
29	29	15
89	90	8
108	108	6
50	50	25
42	42	2
32	32	15
34	35	1
101	117	3
117	117	9
20	20	6
75	81	3
116	116	28
72	73	3
36	36	13
126	126	13
104	104	35
133	134	9
100	100	16
11	38	2
106	106	10
33	33	9
123	123	15
13	13	7
24	24	14
131	131	9
95	96	5
17	17	9
57	59	6
57	57	8
87	128	3
98	98	13
95	95	15
6	6	24
124	125	6
118	118	2
85	85	11
107	108	7
69	70	4
65	65	10
74	88	2
113	113	24
78	78	13
82	121	2
83	83	13
89	110	4
90	135	2
15	16	6
71	71	25
72	72	12
54	54	4
15	15	12
91	94	5
43	68	3
12	37	4
84	85	5
76	76	23
106	107	9
77	79	3
115	116	4
91	92	9
77	78	23
31	31	11
117	118	15
99	103	4
104	105	9
6	69	1
101	102	2
53	70	2
91	91	22
6	68	3
7	14	6
114	118	1
76	121	2
128	129	8
77	77	11
80	130	2
25	25	7
106	117	2
59	59	16
94	95	8
55	55	9
87	87	18
90	91	3
14	15	4
2	2	5
76	88	6
110	110	6
10	10	7
3	4	7
45	73	1
29	30	4
7	26	2
37	37	9
1	1	18
49	50	2
120	133	1
28	116	1
64	67	1
44	44	16
96	97	3
85	86	1
70	70	14
88	88	14
62	63	15
114	115	1
5	31	2
28	28	21
35	43	5
105	106	5
11	23	3
116	119	2
120	121	3
123	124	2
43	87	1
103	113	4
6	11	4
19	19	5
8	8	9
98	105	1
47	47	5
100	101	6
83	86	4
76	79	7
99	99	12
95	117	3
85	110	2
47	48	4
121	123	5
7	13	7
62	64	3
55	56	2
22	23	3
58	58	7
22	22	9
6	7	1
79	80	4
47	63	2
76	77	1
80	100	2
93	94	3
54	57	1
54	77	2
65	69	3
27	28	3
2	3	5
83	84	3
132	133	2
105	121	2
94	112	7
113	114	2
12	12	16
78	122	3
16	16	6
58	77	1
64	125	1
56	57	8
46	47	4
116	117	4
111	112	3
114	120	1
14	14	4
68	68	3
18	21	1
96	96	11
79	79	17
24	28	2
16	23	4
91	100	2
66	66	7
9	10	5
11	24	3
5	25	4
80	80	9
99	100	4
91	93	1
1	2	3
91	101	1
70	71	4
125	133	1
63	64	2
134	134	9
135	135	4
100	115	1
130	130	11
133	133	8
80	132	1
35	36	3
5	5	10
132	132	7
97	129	3
54	55	2
25	37	1
119	119	6
112	113	6
27	116	4
126	134	1
50	70	2
10	11	5
62	62	5
126	127	8
0	54	1
69	74	2
0	0	6
12	35	2
27	27	3
6	59	3
53	53	4
118	119	3
89	104	2
98	129	2
67	68	5
95	113	5
52	71	3
7	7	5
60	79	2
122	123	2
65	68	2
92	92	7
58	69	5
87	88	5
115	115	8
99	102	2
115	122	5
74	74	6
96	124	1
59	60	5
48	48	2
6	27	1
122	133	1
94	94	19
65	66	5
101	105	5
103	108	1
24	25	1
31	34	1
106	116	1
81	104	1
105	134	1
35	35	5
75	76	6
124	134	2
105	112	1
21	22	1
116	123	2
55	60	2
61	61	3
108	117	1
20	21	2
122	131	1
63	130	4
130	131	4
60	61	3
98	108	4
109	109	7
109	111	3
13	14	2
33	34	3
120	120	6
106	108	3
82	82	6
25	31	2
6	8	4
64	65	3
4	4	7
52	52	3
5	30	1
34	34	6
3	5	1
89	126	1
5	6	2
125	125	6
17	21	5
127	129	1
45	74	1
24	33	2
24	32	1
94	111	7
18	18	4
108	111	1
98	107	2
82	128	2
94	113	1
96	111	2
66	68	2
98	113	2
61	79	3
60	60	10
11	12	1
102	114	5
98	116	2
82	107	1
11	11	8
88	99	1
96	105	2
12	13	1
21	54	1
1	33	3
119	120	1
46	49	2
19	56	1
88	120	4
93	97	1
124	128	1
109	110	3
98	109	2
35	37	2
9	9	2
97	97	5
61	118	1
19	21	4
63	67	2
52	70	2
51	51	1
107	117	1
105	113	1
110	111	4
106	125	1
95	112	5
82	85	1
116	118	3
87	120	3
33	35	1
8	11	1
83	85	1
49	49	4
134	135	2
129	130	1
19	20	4
75	112	1
44	73	3
100	120	1
115	123	1
51	70	2
85	119	1
23	24	3
47	52	2
84	84	5
112	114	1
97	98	1
97	107	3
92	93	2
125	126	1
0	1	4
13	37	3
118	120	1
73	74	1
103	105	1
97	111	2
101	108	1
80	83	2
113	115	1
5	27	1
76	78	1
62	77	2
38	43	1
26	31	1
107	118	1
76	87	3
106	118	1
62	87	1
82	84	1
38	38	2
108	124	2
36	37	1
8	9	2
108	109	1
74	127	1
115	124	1
97	114	1
50	51	1
7	25	3
125	135	1
111	124	2
31	32	2
52	53	2
46	69	1
57	60	1
64	130	1
105	114	1
8	36	1
14	20	1
18	19	1
81	95	1
63	76	1
99	105	2
124	129	1
17	19	1
89	102	1
79	109	1
12	18	1
45	87	1
6	43	1
125	128	1
