61	61	15
113	113	33
22	22	11
84	84	11
108	108	18
173	173	15
163	163	11
110	110	13
153	153	14
209	211	2
12	12	11
211	211	23
222	234	5
157	157	30
16	16	20
27	27	14
161	161	17
230	230	14
182	182	25
154	154	13
70	70	15
107	107	2
20	20	30
3	3	6
175	176	1
93	93	20
59	59	12
246	246	28
68	68	20
165	178	2
24	25	11
102	103	3
44	44	10
233	233	15
58	113	4
176	177	1
102	223	2
220	222	1
85	95	6
63	63	13
162	162	18
179	182	2
243	243	13
33	173	2
249	249	1
225	225	16
25	25	6
209	209	30
99	99	14
60	60	13
69	88	2
180	180	16
48	77	4
43	44	8
165	166	7
54	55	5
1	1	9
112	112	9
96	96	12
78	78	28
235	235	11
244	244	9
234	237	3
38	38	16
53	53	14
103	227	1
156	156	27
239	239	7
56	57	5
14	29	2
10	10	11
231	231	11
166	175	2
212	212	23
162	163	3
44	45	7
154	185	4
30	30	15
185	185	10
179	201	2
117	117	21
241	241	29
17	18	6
167	167	30
42	42	25
70	97	3
192	196	3
87	87	24
175	175	13
150	150	29
220	223	4
18	18	25
242	242	10
55	55	24
116	116	19
66	116	1
224	224	6
7	207	3
33	33	14
178	178	22
89	89	24
234	234	14
92	92	17
61	62	11
108	109	3
227	227	12
231	241	2
207	207	33
239	240	4
4	4	20
69	71	5
2	3	2
166	167	2
195	196	2
25	232	3
47	47	16
66	66	24
174	175	2
5	5	10
5	6	3
145	145	8
193	212	5
27	28	11
64	64	19
159	159	12
222	222	18
221	221	18
210	211	13
41	53	4
191	191	9
155	155	15
75	75	8
189	189	7
219	219	17
226	226	18
9	9	9
184	190	4
90	111	3
56	56	15
171	171	12
114	114	13
6	6	26
9	10	2
19	23	3
221	222	5
79	97	2
75	76	5
236	237	4
41	41	13
42	52	3
2	2	10
197	197	35
237	240	2
82	90	2
152	152	7
145	165	2
234	236	1
203	203	12
37	38	7
17	17	13
68	238	2
111	112	8
8	8	22
172	173	7
202	202	14
225	235	4
26	26	13
77	77	16
32	33	2
220	220	12
59	114	10
213	213	19
68	77	1
85	85	13
158	158	13
7	7	8
120	144	2
163	164	5
48	48	14
204	204	25
41	42	6
160	160	5
208	208	12
69	69	9
50	50	19
52	54	1
57	57	5
43	45	4
238	239	3
55	56	10
3	26	2
81	81	9
151	151	14
178	180	3
205	205	12
63	65	5
161	162	9
86	88	4
36	36	13
165	165	22
245	248	3
235	236	4
234	235	5
200	207	5
43	43	14
214	246	1
206	206	15
223	223	12
223	225	5
217	217	4
26	228	4
57	59	4
149	150	3
105	105	4
6	12	5
190	190	6
99	100	6
214	217	3
58	58	15
97	103	1
183	183	11
158	159	4
173	184	1
98	98	15
101	102	1
176	176	12
218	219	2
172	172	15
236	236	10
164	167	3
97	98	12
223	228	1
187	189	4
216	218	3
4	23	1
193	193	9
206	209	3
8	46	2
111	243	1
169	169	10
178	181	6
20	38	2
181	182	2
104	108	1
168	169	3
84	89	3
29	29	16
2	4	1
21	21	13
19	19	5
228	228	4
222	223	4
28	178	2
39	50	1
225	226	5
232	233	3
173	174	2
150	154	1
70	93	1
37	37	9
40	40	6
171	172	3
223	224	5
59	63	3
157	185	1
118	118	11
65	65	11
71	75	3
78	79	4
214	215	3
121	153	2
241	242	14
198	198	26
200	201	1
186	186	17
21	22	3
48	185	6
76	76	4
35	36	5
245	245	13
185	200	2
96	97	3
14	14	10
237	237	5
84	85	10
54	54	15
90	90	13
74	115	1
12	13	5
164	164	4
97	97	11
200	200	20
77	192	2
201	201	17
15	15	5
176	182	5
197	219	3
110	234	1
83	88	2
174	174	10
106	106	3
115	115	21
52	52	11
86	86	4
51	51	12
37	42	3
160	161	2
187	209	8
177	177	5
104	104	12
144	145	4
95	226	6
91	91	6
76	77	1
214	214	13
56	58	1
52	53	6
120	120	5
31	31	6
169	170	6
184	184	15
110	111	3
85	113	2
180	181	12
185	186	6
12	14	5
159	175	3
197	198	4
113	114	11
102	247	2
58	62	3
59	60	7
189	190	4
152	166	1
93	116	1
195	195	6
6	10	2
247	248	4
212	213	2
73	73	6
229	229	10
215	216	12
112	240	2
51	52	6
58	61	1
233	234	7
80	99	1
101	101	5
196	196	9
215	219	2
100	100	12
57	58	4
68	69	3
35	35	13
39	40	4
213	214	4
35	41	2
55	63	1
192	192	15
62	62	19
72	73	2
26	27	14
232	232	6
101	214	1
3	4	9
2	18	1
223	227	4
202	203	7
81	90	3
100	112	7
218	218	6
109	110	5
41	51	2
83	102	4
0	0	5
216	216	2
11	11	15
78	93	4
94	95	6
57	62	3
238	238	5
154	155	5
85	99	2
159	163	1
79	172	2
226	227	3
231	232	2
13	19	2
194	194	10
115	116	3
62	114	1
161	169	2
102	157	4
69	70	7
88	88	6
187	187	12
159	164	4
176	178	6
67	67	16
7	206	1
214	225	5
66	117	1
68	75	3
48	51	2
166	166	9
184	185	10
247	247	18
24	24	10
7	8	5
10	11	5
10	244	3
149	151	4
112	113	7
201	203	6
233	241	3
79	80	1
30	34	1
32	32	12
157	160	4
3	19	5
46	46	9
89	90	8
51	201	2
163	165	1
53	54	4
245	247	1
150	151	10
9	22	3
29	31	3
11	12	4
146	146	5
16	17	2
50	51	4
82	85	2
109	109	17
71	97	4
117	145	3
195	212	2
33	41	2
213	245	1
205	207	6
49	49	4
239	241	2
197	199	2
204	223	2
240	240	7
214	224	5
230	231	2
85	89	2
209	242	1
26	229	2
117	118	5
42	53	3
193	233	1
190	191	4
98	100	3
112	114	2
4	5	3
45	45	3
107	117	2
211	214	3
165	177	1
96	100	2
79	79	9
232	238	1
66	115	3
62	223	4
144	196	1
199	199	5
23	23	17
155	156	1
93	94	5
245	246	5
104	106	6
156	161	2
168	168	7
95	95	4
81	99	1
22	25	1
16	36	2
233	249	1
52	56	3
20	22	3
80	80	2
53	72	2
18	20	1
71	73	2
244	245	1
193	194	5
210	210	6
227	228	4
48	62	3
208	209	1
180	199	1
64	115	1
159	167	2
170	170	6
181	181	5
179	179	9
220	224	1
66	186	1
188	189	3
145	146	1
103	103	2
33	34	2
97	226	2
168	170	2
169	171	3
65	66	6
58	59	3
116	117	3
201	202	3
48	74	3
197	213	1
198	199	1
175	221	2
89	226	1
104	105	3
49	76	5
116	247	2
20	21	4
101	217	1
120	145	3
156	158	1
215	215	4
72	72	8
92	93	2
6	7	2
80	97	1
214	219	2
237	239	4
87	157	2
203	204	3
162	170	1
204	205	10
71	71	4
182	227	2
88	89	3
62	63	6
167	168	5
50	52	1
248	248	4
170	171	3
206	207	9
117	120	1
46	52	3
187	244	3
172	174	1
214	216	4
186	209	5
45	54	2
74	88	3
23	24	5
91	92	1
212	214	1
77	78	6
80	81	1
220	227	2
104	227	2
69	103	6
199	200	4
226	243	1
47	52	2
213	246	1
49	77	3
151	152	4
186	198	2
55	57	3
202	212	1
26	232	1
111	111	8
242	243	6
85	86	4
100	218	1
29	30	5
114	116	5
154	158	1
178	179	3
231	236	1
110	118	3
179	186	1
152	153	3
66	67	3
153	154	3
174	178	5
92	115	2
119	119	1
81	83	1
237	238	1
8	9	3
63	64	6
74	75	2
151	153	4
55	62	1
212	223	1
228	229	1
28	28	8
76	104	2
207	208	3
114	115	2
45	46	2
87	159	2
95	111	1
179	181	2
37	48	1
216	224	4
190	192	2
224	225	3
221	223	1
63	120	3
34	34	1
188	188	8
184	194	1
183	184	1
83	106	1
209	247	1
208	210	6
77	93	1
15	18	1
164	183	1
47	49	1
53	71	1
168	219	2
68	120	2
15	37	1
215	233	1
78	105	1
177	182	1
193	197	2
82	82	3
177	178	7
192	194	2
30	33	1
82	83	1
85	88	1
3	20	1
33	203	2
143	143	2
87	89	3
9	73	3
199	242	1
214	223	1
51	109	1
187	192	3
58	63	1
91	114	2
59	62	3
182	183	1
1	17	2
35	120	2
215	222	2
95	160	2
7	56	1
220	221	2
98	99	7
7	151	2
225	230	1
17	25	1
110	112	5
47	48	4
62	68	2
42	43	1
90	112	3
147	159	1
217	218	3
52	55	1
73	74	2
119	157	1
159	160	2
64	65	2
81	96	1
70	71	2
192	195	2
7	19	3
97	101	1
186	194	1
89	208	1
40	41	1
157	184	1
31	32	2
159	170	2
243	244	2
28	29	3
14	15	2
68	93	2
205	206	4
166	188	1
48	49	2
57	61	1
179	180	1
187	188	1
208	244	1
48	50	1
83	83	2
144	144	1
32	88	1
74	74	1
77	107	1
158	184	2
69	118	1
211	212	3
63	118	1
86	87	2
230	232	1
214	226	1
38	40	1
171	185	1
206	208	1
167	169	2
108	249	1
156	185	2
79	98	1
78	87	2
39	39	2
186	187	1
198	210	1
233	242	1
190	194	1
67	70	1
94	94	5
94	179	1
95	96	1
169	219	3
10	21	2
225	228	1
199	208	2
67	68	1
190	210	1
199	214	1
198	211	1
14	18	1
173	185	1
225	243	2
30	31	1
229	230	2
246	247	1
183	185	1
226	247	1
2	21	1
186	199	1
20	39	1
166	209	1
191	192	1
184	208	1
112	245	1
165	187	1
22	26	1
16	28	3
11	33	3
97	107	1
209	210	1
147	147	1
220	225	1
240	243	2
218	222	1
178	202	2
44	46	1
49	50	1
77	79	2
85	109	1
90	113	2
38	39	2
112	244	1
93	100	1
15	17	1
104	247	1
166	182	1
55	73	1
238	241	1
165	171	1
182	186	1
189	208	1
241	243	1
10	229	1
185	247	1
58	70	1
118	119	1
170	187	1
72	74	1
180	198	1
4	18	1
97	106	1
156	162	1
158	167	1
166	181	1
162	174	1
80	82	1
211	217	1
9	72	1
