78	80	4
36	66	1
46	46	7
33	33	10
40	42	3
12	12	7
89	92	7
18	18	4
84	91	3
34	34	6
77	80	1
7	8	4
29	41	1
65	65	12
47	78	3
68	68	11
59	59	11
127	127	4
45	90	2
127	133	6
99	99	13
88	88	6
101	101	5
56	56	7
45	46	4
20	84	3
74	111	3
48	48	4
57	58	2
112	112	4
11	11	10
26	27	7
91	92	6
55	55	6
2	3	3
19	19	6
128	130	1
38	42	6
78	79	6
41	42	2
85	85	3
108	108	5
35	36	3
71	71	2
21	24	4
13	13	13
45	45	12
66	66	2
92	99	3
4	5	2
64	119	2
75	86	2
20	56	2
69	69	1
47	61	6
21	42	1
67	67	9
21	22	1
69	88	4
110	128	1
93	93	6
5	5	16
14	14	4
105	105	7
128	128	3
118	130	2
107	111	3
38	38	8
9	9	8
87	87	2
80	80	7
6	6	5
64	77	2
67	68	2
80	81	4
91	91	6
132	132	10
129	133	4
81	95	1
27	27	8
21	31	8
35	35	7
24	25	4
4	4	7
40	51	1
47	77	2
44	46	2
2	2	2
36	36	4
100	100	6
10	100	2
21	21	3
32	32	3
129	129	4
106	134	3
19	81	2
23	25	5
131	131	2
9	10	1
92	92	9
84	84	2
91	93	2
44	44	7
70	70	5
24	24	3
42	42	3
98	98	8
96	96	2
50	55	1
106	114	2
4	7	1
75	75	7
117	117	3
30	30	1
109	110	5
67	113	1
74	74	5
96	99	1
111	111	2
23	23	5
118	118	6
76	134	3
123	124	3
72	74	3
57	62	1
83	83	3
61	61	3
101	130	3
40	40	5
25	25	7
11	12	2
97	126	2
79	82	5
5	41	1
48	93	2
6	57	2
126	127	2
57	57	7
47	47	5
14	20	2
1	1	5
20	31	1
72	72	6
98	99	1
76	76	5
0	0	4
28	28	2
124	125	2
79	79	3
78	94	2
79	84	1
93	134	2
125	126	7
102	102	2
130	130	6
127	128	2
90	90	1
47	92	2
84	133	4
80	85	3
68	125	1
44	45	5
29	29	6
62	62	5
84	87	2
77	77	1
69	85	1
39	40	2
51	51	1
129	130	2
79	80	1
63	68	1
67	77	4
94	101	1
37	37	4
20	20	2
117	119	5
64	64	12
103	103	3
37	38	2
126	131	1
67	71	6
58	58	2
26	31	3
41	41	5
6	80	2
35	46	1
115	134	2
22	22	3
96	97	3
95	96	1
71	121	2
110	116	1
45	58	1
71	72	2
11	93	1
4	17	1
94	94	5
31	31	2
98	101	2
104	104	5
3	3	3
26	48	1
31	66	1
106	108	1
45	110	2
63	64	4
85	132	1
12	14	1
62	75	1
27	46	1
17	17	5
36	38	2
24	81	2
22	25	2
125	130	2
90	107	1
68	70	1
106	106	2
31	32	5
7	17	2
7	7	2
3	105	2
25	26	1
85	134	2
62	77	1
92	93	2
101	102	2
33	47	3
28	78	3
124	131	3
68	85	1
29	30	2
58	88	1
48	60	1
72	73	1
73	73	2
5	113	1
62	66	1
38	43	1
47	48	1
116	119	1
5	103	1
70	71	2
114	131	1
27	31	1
62	74	1
63	76	1
95	95	2
18	40	1
117	130	1
94	95	1
81	81	1
7	64	1
18	41	1
60	60	1
81	82	1
33	79	4
27	97	3
47	93	1
120	121	1
78	78	3
126	126	2
63	63	3
19	25	2
106	117	2
110	110	2
127	132	1
120	120	2
69	124	2
14	101	1
35	37	1
124	124	1
40	81	1
3	63	1
112	113	1
120	125	1
120	126	2
14	16	1
91	108	2
46	62	1
115	115	1
20	25	1
26	30	1
4	41	1
111	116	1
26	92	1
0	16	1
