151	151	5
186	186	3
146	146	15
217	218	4
109	110	7
98	98	4
79	118	4
233	233	2
231	231	3
160	160	3
164	165	5
175	190	3
207	209	5
27	27	8
193	198	2
60	60	4
62	122	6
178	178	3
85	85	2
139	140	7
221	221	3
47	48	3
78	79	1
209	209	4
82	84	3
164	164	6
173	173	8
22	22	9
76	165	1
26	28	5
62	62	3
82	83	4
115	123	3
240	240	6
36	36	11
208	208	11
68	68	6
184	185	5
182	223	1
17	17	4
3	191	2
23	23	3
223	223	5
2	3	4
99	99	8
56	57	2
39	42	3
27	86	4
32	78	2
79	120	1
70	232	2
235	236	7
15	17	8
101	180	1
5	14	2
228	228	8
21	23	4
1	4	1
119	221	2
56	56	1
99	134	2
218	218	8
163	165	3
135	135	10
176	178	4
123	125	2
13	17	1
29	29	10
124	127	6
190	210	1
198	199	1
1	2	1
11	12	2
42	42	6
51	52	6
97	97	4
20	20	10
197	198	8
46	46	7
189	190	3
46	55	1
83	85	3
29	30	7
61	62	6
177	177	9
64	65	2
147	148	9
73	80	2
11	11	4
6	7	4
76	76	5
170	170	7
177	178	5
49	57	2
9	27	3
175	175	1
5	16	2
72	72	4
102	102	11
14	35	1
167	168	6
240	241	2
64	64	3
192	195	2
62	232	2
52	52	2
37	79	2
143	143	10
120	121	5
220	230	6
1	3	3
34	36	2
238	239	2
174	175	2
86	86	6
32	40	2
204	204	3
82	179	1
145	146	4
9	26	2
182	182	2
38	38	2
82	82	7
11	230	4
77	77	4
5	66	4
10	24	3
237	237	5
4	6	4
229	229	5
216	216	4
6	13	5
2	2	5
79	81	3
132	134	3
121	121	3
53	53	5
110	110	6
4	4	4
66	66	2
8	126	2
216	217	4
7	8	1
40	40	4
69	76	3
190	216	1
57	85	1
30	30	4
58	58	8
9	120	2
220	220	8
18	19	6
128	128	2
37	41	3
80	81	4
32	32	4
150	150	5
219	219	4
57	58	3
7	7	3
107	108	1
235	235	6
28	29	2
15	16	2
70	70	5
63	231	2
133	133	4
41	41	3
49	49	4
51	53	3
0	53	1
210	210	2
37	58	1
117	150	3
173	224	6
115	117	1
40	41	2
183	183	4
79	79	7
195	197	2
113	113	4
34	158	4
0	0	3
54	54	4
140	141	3
44	44	4
71	72	1
106	106	5
226	226	6
51	51	5
103	103	9
37	37	2
119	127	2
185	200	2
24	24	5
194	198	3
69	84	4
225	227	2
38	39	2
193	193	4
28	28	9
73	73	12
33	33	7
69	69	5
137	137	6
49	82	6
122	232	2
16	16	5
74	172	3
199	204	4
236	237	1
95	96	3
116	158	1
17	21	3
165	165	6
13	34	1
3	128	3
4	72	5
34	35	9
223	230	3
28	103	2
202	203	3
119	119	1
80	80	4
224	228	2
74	74	7
190	190	2
70	71	5
180	180	11
241	241	2
210	214	2
68	69	3
120	120	2
21	22	5
58	60	2
182	221	1
173	175	2
53	54	1
213	213	3
241	242	2
159	159	8
52	53	4
61	61	1
104	104	1
10	42	3
242	242	2
20	30	5
138	142	2
164	168	3
203	203	4
171	187	1
205	206	1
65	65	3
58	71	1
166	166	4
25	25	1
59	60	2
184	184	7
84	84	2
10	100	2
132	178	2
106	108	1
2	104	2
131	205	2
6	34	3
63	102	1
165	174	1
170	171	2
194	195	1
6	6	5
33	34	5
52	59	3
8	8	7
124	209	2
23	25	3
228	232	4
158	161	2
21	21	4
118	118	2
199	200	2
217	217	3
155	155	2
154	154	2
188	188	2
56	76	2
119	120	1
173	178	2
19	20	3
103	105	2
9	20	1
9	9	2
34	34	3
48	71	1
115	157	2
124	124	1
227	228	4
47	49	2
230	230	5
48	52	2
226	235	3
73	238	1
102	106	2
197	197	1
211	215	2
117	125	3
8	13	2
104	105	1
29	103	2
64	86	1
176	176	1
47	47	3
168	168	3
116	117	1
192	192	1
101	102	3
212	212	3
69	70	2
2	103	1
187	209	2
123	123	2
35	58	1
36	97	2
30	33	1
3	103	1
10	28	3
222	222	2
132	132	2
4	14	6
16	22	1
51	59	1
210	212	1
116	130	3
4	218	2
114	157	2
104	108	2
201	201	1
83	83	2
54	91	1
11	219	1
139	139	2
2	12	1
190	213	1
68	73	2
118	119	3
55	55	6
81	82	2
217	221	2
31	35	6
47	73	4
12	12	2
59	59	2
76	79	1
3	3	1
75	75	2
84	99	2
63	105	2
8	12	1
142	142	3
141	142	1
200	203	1
27	28	2
39	39	3
49	60	3
63	63	4
231	239	1
78	78	3
35	36	3
163	163	2
138	138	1
194	194	1
62	70	2
188	189	4
31	31	2
27	63	2
6	11	4
58	61	1
10	40	1
122	122	1
75	79	1
227	235	1
103	104	1
172	173	1
234	234	4
214	215	2
158	158	2
102	105	3
163	184	2
45	45	1
18	34	3
77	78	1
83	84	1
44	46	1
37	38	1
236	236	1
164	169	2
99	100	1
29	77	1
151	174	1
54	55	2
20	24	1
127	206	2
61	122	4
37	39	1
116	116	1
167	167	3
65	66	2
173	174	2
80	177	2
188	214	2
181	223	1
211	213	1
9	10	1
0	72	1
166	176	1
199	199	1
233	234	2
7	14	1
193	199	1
232	232	2
14	14	1
83	179	1
215	218	2
17	80	1
183	202	1
8	10	1
141	141	1
10	10	1
191	191	2
182	183	3
195	196	1
171	171	2
211	216	2
189	189	1
13	13	2
132	179	1
127	127	1
25	39	1
169	169	1
125	125	1
6	41	2
129	159	1
151	175	1
157	172	3
205	205	1
3	213	1
191	192	1
200	200	1
11	37	1
228	230	1
188	192	2
39	40	1
175	176	1
140	140	1
144	144	1
172	172	1
32	37	1
54	63	1
56	68	1
183	185	1
227	227	1
56	88	1
21	31	1
43	43	2
49	51	1
74	75	1
99	106	1
175	217	1
129	129	1
102	113	1
73	74	1
160	227	1
217	222	1
196	196	1
156	157	1
88	88	1
15	15	1
121	160	1
