97	97	12
58	58	6
12	12	9
144	144	5
175	175	9
91	91	5
18	18	11
28	29	2
20	21	4
21	21	2
125	125	6
141	141	6
78	83	6
26	42	4
92	94	6
89	93	1
45	45	7
11	19	5
136	136	13
107	107	2
13	13	2
92	93	4
167	169	3
3	3	3
77	77	2
165	167	4
168	171	5
148	151	1
93	93	2
17	17	6
177	178	7
135	139	2
162	162	4
57	57	9
145	146	6
12	13	3
31	31	9
138	138	6
138	139	6
125	126	5
185	185	1
63	63	6
0	5	1
52	52	6
127	127	7
4	9	1
80	82	1
65	67	4
22	22	2
85	86	3
52	53	4
111	114	6
156	159	5
43	43	3
61	61	9
158	158	5
84	85	9
119	120	1
114	148	4
188	189	1
127	128	1
46	49	4
116	116	8
39	39	7
180	180	4
47	48	2
15	15	4
36	37	7
130	130	3
131	131	6
82	95	3
63	64	2
150	150	2
76	83	2
10	10	3
83	83	6
32	34	2
45	46	4
173	174	3
129	129	9
53	53	7
115	115	7
1	2	2
59	78	1
96	96	6
158	160	2
82	83	4
36	36	7
44	44	6
171	171	8
182	183	10
30	40	3
160	160	2
155	155	9
54	54	4
89	90	5
151	151	7
117	139	2
164	165	5
65	66	2
85	85	15
164	164	7
145	145	6
23	23	11
40	40	6
189	189	3
2	2	6
181	183	2
142	142	6
37	37	3
160	161	7
148	148	4
80	94	1
170	173	2
138	168	3
113	113	3
71	104	7
29	32	6
66	68	2
81	81	4
19	21	2
27	27	5
148	150	4
65	65	10
186	187	3
92	92	4
156	157	3
66	125	3
74	74	7
166	167	2
32	42	5
59	59	6
96	97	3
43	44	10
64	64	10
126	126	3
169	169	6
66	66	4
55	55	3
123	124	1
115	118	3
97	98	1
161	163	4
109	110	7
171	173	4
158	163	3
129	151	6
62	62	10
88	88	3
88	89	4
24	24	2
42	43	2
121	121	7
78	78	2
64	66	1
4	5	5
29	41	5
17	18	1
143	144	1
152	152	7
0	7	2
70	74	3
163	163	2
103	103	5
156	156	4
77	96	1
140	141	8
161	161	7
74	76	4
143	143	5
5	5	6
46	46	4
173	173	11
114	150	2
28	35	3
155	156	4
30	33	2
47	47	6
181	181	8
67	67	1
4	7	10
22	25	2
94	95	1
28	28	4
11	11	3
118	118	4
166	166	20
14	14	7
20	177	2
95	95	2
135	137	1
76	81	3
175	176	4
114	114	4
159	160	6
99	122	6
30	30	5
60	62	2
136	137	2
157	161	2
137	139	5
186	186	4
6	6	1
8	8	6
105	107	4
137	137	3
118	119	2
78	82	4
14	15	2
21	26	7
93	94	3
144	146	3
147	147	6
68	70	9
75	75	4
68	69	1
170	170	5
81	82	6
169	170	4
79	94	1
33	33	5
113	114	4
48	48	1
90	90	4
166	170	3
167	168	5
104	104	8
140	140	7
86	86	3
187	187	6
82	82	9
165	166	4
81	91	1
151	152	9
167	167	5
60	96	4
129	132	3
26	26	5
89	89	7
120	120	5
21	25	1
184	187	3
0	0	3
188	190	1
81	83	3
55	56	3
142	144	5
165	165	3
57	58	2
87	88	2
138	164	3
164	166	2
82	96	2
110	110	3
26	27	3
35	35	4
163	164	4
102	102	5
29	29	5
109	109	2
107	110	2
12	15	2
183	183	6
46	47	6
56	56	1
154	154	2
32	32	2
54	55	1
55	58	3
184	184	6
106	106	2
158	162	2
177	183	2
62	63	1
127	131	1
38	39	2
96	99	4
87	87	5
60	60	5
71	71	1
41	42	2
179	179	3
133	174	1
98	99	1
46	48	3
34	34	2
81	94	5
114	142	2
72	76	4
146	146	7
142	148	2
112	113	3
182	182	4
170	174	1
38	38	7
56	71	3
10	17	3
153	157	2
126	127	2
73	76	3
27	28	1
111	111	5
108	108	3
48	49	2
33	34	3
106	108	2
1	7	1
136	145	2
19	176	3
99	99	2
141	143	2
99	104	2
166	168	1
5	9	2
67	68	1
174	175	1
185	187	3
76	76	5
71	75	1
149	152	2
131	132	1
177	177	1
4	21	2
105	106	4
133	133	1
185	189	2
174	174	1
16	16	6
108	121	2
139	155	3
30	34	4
73	74	2
172	172	5
128	128	1
27	43	1
23	24	2
20	25	2
44	45	2
132	133	1
77	78	2
95	129	1
152	157	1
84	84	2
25	25	1
5	19	1
10	12	2
168	168	5
47	66	1
70	70	3
59	60	4
177	179	1
6	7	2
15	18	2
121	122	4
124	124	2
41	41	1
151	153	1
171	172	2
31	106	1
177	189	1
146	174	1
61	62	4
5	6	1
153	153	3
124	142	1
117	118	1
70	104	3
115	117	1
73	75	1
79	79	1
178	178	6
76	102	2
110	111	4
29	33	1
98	122	2
53	55	1
162	163	1
105	105	1
78	96	1
156	163	1
4	6	1
81	92	2
180	181	1
188	188	2
169	173	1
158	161	1
0	4	1
31	184	3
187	188	1
119	119	1
41	43	1
30	31	1
108	110	1
73	73	1
94	94	1
27	31	2
156	168	3
72	104	1
175	177	1
34	35	1
123	123	1
122	123	2
190	190	2
134	134	1
142	143	2
125	149	1
42	42	2
97	99	1
98	100	4
61	63	1
1	1	2
116	117	1
10	11	3
34	36	2
79	80	2
123	148	1
139	153	1
187	189	2
77	99	1
150	165	1
65	68	2
148	149	2
178	189	1
109	113	1
108	111	1
179	180	1
59	61	1
80	80	2
4	4	1
176	179	2
101	102	1
170	172	1
178	179	1
20	22	1
130	131	1
128	148	1
99	100	1
