45	46	7
46	46	14
133	152	3
135	135	16
55	87	8
7	11	4
55	55	19
8	9	13
38	38	3
22	23	13
39	40	7
29	29	18
147	147	19
66	67	5
87	87	29
11	11	16
85	87	3
111	111	8
8	8	16
38	40	3
93	94	8
86	87	2
137	137	11
24	24	11
16	16	8
6	99	3
29	30	11
92	92	15
67	67	8
123	124	3
75	75	15
78	78	12
156	156	14
100	100	10
27	27	19
48	67	3
19	36	4
44	45	9
50	51	2
1	2	5
65	71	1
158	158	10
133	134	6
117	155	1
125	127	1
52	52	7
149	150	6
122	122	10
134	138	3
2	3	3
36	36	24
85	85	11
12	45	1
37	37	6
118	119	10
6	8	4
121	122	10
82	126	3
129	138	1
22	25	2
123	123	21
140	140	18
132	133	7
129	131	3
111	112	8
99	99	6
51	51	19
31	32	6
81	81	12
99	101	1
133	142	3
54	70	6
143	143	12
154	154	12
146	148	3
86	86	7
146	146	6
48	48	9
105	106	4
2	2	13
120	121	3
89	89	8
117	123	3
88	88	10
43	43	11
118	118	14
117	117	10
52	57	4
65	65	4
120	120	14
19	21	4
11	12	13
133	133	2
98	98	10
41	42	2
79	79	17
115	115	7
97	97	10
144	147	1
90	90	14
148	148	19
40	48	3
95	117	1
135	138	4
109	109	6
93	93	16
126	127	8
69	71	4
77	77	9
7	7	9
116	116	14
151	151	14
124	125	4
113	114	5
130	130	7
102	106	2
108	109	8
138	138	14
152	153	11
7	8	4
68	68	4
105	105	13
146	147	7
139	139	13
155	156	8
133	138	3
31	31	17
5	5	12
17	18	9
101	106	1
18	34	1
50	50	11
124	124	9
21	23	1
144	145	6
95	96	10
150	150	9
110	111	6
158	159	2
21	21	13
109	110	3
85	86	5
103	105	3
87	92	1
70	70	5
14	14	8
42	126	2
119	120	7
106	106	10
34	34	18
129	130	3
115	116	2
66	71	2
149	149	2
87	93	1
126	126	6
50	53	2
141	141	6
39	39	9
153	153	7
4	4	8
134	135	4
1	1	2
157	157	16
22	49	1
46	47	7
103	103	19
92	94	2
55	56	4
134	137	5
86	88	3
28	28	17
107	107	19
155	155	16
26	26	15
6	25	2
33	34	4
48	49	16
46	48	5
78	79	5
12	12	13
83	85	1
134	143	5
145	146	3
45	64	2
142	142	19
16	17	4
36	37	1
50	52	2
119	119	10
73	73	11
31	38	3
0	0	13
25	25	6
116	150	1
42	42	15
64	64	7
24	25	3
35	35	3
147	154	2
21	22	4
90	94	1
82	82	21
136	136	10
54	55	7
18	20	8
13	13	20
127	131	3
87	89	1
144	144	9
42	127	2
91	98	2
17	17	8
80	80	9
152	152	11
63	79	1
154	155	8
84	84	12
28	30	2
88	89	8
115	158	1
113	158	4
129	129	18
143	144	2
23	24	7
6	156	2
156	158	2
114	115	4
76	76	2
104	104	4
133	135	1
56	138	1
12	34	2
41	79	3
150	151	4
41	41	14
71	72	7
15	15	13
108	111	3
91	91	6
25	26	10
148	150	2
22	22	12
114	114	16
30	30	5
70	71	6
131	132	7
84	120	1
131	131	14
145	145	3
113	115	3
5	6	5
45	45	9
66	66	5
67	68	3
63	64	6
121	121	9
151	152	3
6	12	1
117	158	1
106	107	2
19	19	13
111	149	1
14	15	3
103	104	8
77	78	5
125	125	2
101	101	10
13	16	3
104	105	1
136	137	8
49	132	3
41	43	1
75	77	1
134	134	21
25	32	1
92	93	3
118	120	2
48	51	2
40	40	7
144	148	2
128	129	2
33	33	6
68	69	5
6	6	8
47	47	5
141	142	6
49	72	1
49	49	7
94	94	13
20	20	8
3	3	7
53	54	6
67	71	3
63	70	1
0	1	2
91	93	2
77	99	3
12	13	3
44	44	5
22	24	3
150	156	3
13	19	2
128	150	1
83	84	3
127	127	11
116	120	1
42	43	4
96	156	2
116	134	3
2	123	1
79	82	6
114	116	3
109	112	1
4	5	2
108	108	7
96	96	5
36	83	2
116	119	2
117	118	4
69	69	1
127	128	1
138	140	1
141	155	3
17	34	1
129	139	2
121	124	4
132	132	5
113	116	4
127	132	3
27	46	2
52	53	2
123	125	6
116	117	2
64	66	1
19	20	1
110	110	5
112	112	19
30	32	3
128	128	8
87	88	4
102	103	4
107	109	1
90	110	1
34	39	3
16	18	7
57	57	1
131	138	1
79	80	4
45	65	2
130	134	2
153	154	1
96	98	3
82	83	3
44	81	2
50	71	1
32	33	7
125	126	5
92	97	1
21	24	1
110	112	1
148	149	2
90	91	8
56	56	6
121	123	3
52	54	4
32	32	2
108	112	2
9	9	11
122	123	3
137	138	3
18	18	6
111	114	3
94	95	2
7	9	3
22	42	6
73	77	1
78	85	1
81	82	8
125	131	2
49	74	1
115	127	2
113	128	2
38	39	6
26	27	5
32	34	4
62	63	1
107	111	3
69	70	1
81	83	2
35	36	3
54	54	4
95	95	4
15	16	3
127	152	1
83	83	2
43	97	2
30	37	3
72	72	3
102	102	3
113	113	1
131	151	3
45	47	1
53	67	1
117	157	3
40	41	6
138	139	1
32	35	2
51	52	4
156	157	1
133	137	1
135	152	2
41	81	1
86	90	1
95	116	1
14	33	2
157	158	1
7	100	1
122	151	1
20	48	1
126	154	1
149	158	3
80	128	2
8	22	2
146	150	2
45	128	1
53	53	3
95	97	4
115	117	2
107	108	1
91	94	1
23	23	2
13	14	2
113	153	1
23	25	6
76	77	1
80	89	3
99	100	1
116	122	1
54	73	1
153	155	2
1	123	1
126	132	1
136	141	1
10	10	5
102	104	1
51	66	1
117	119	2
30	31	2
82	85	2
159	159	1
48	64	2
132	151	2
34	35	2
64	86	3
80	81	1
49	70	1
30	42	1
148	157	1
47	48	1
48	50	1
118	157	1
18	19	3
37	79	1
97	98	1
114	117	1
67	86	2
120	127	2
95	123	1
128	134	1
31	79	3
130	131	1
112	118	2
48	71	3
112	113	1
46	66	1
47	129	3
130	155	1
67	69	1
28	29	1
147	148	1
116	123	1
132	155	1
85	93	1
49	65	1
18	22	1
79	87	1
94	97	1
142	154	1
37	38	1
20	21	1
102	157	1
126	155	1
0	2	1
83	120	1
84	85	1
123	127	1
62	62	1
123	126	1
33	37	1
