94	94	12
7	7	5
126	126	17
110	111	13
138	138	14
4	5	3
111	112	4
6	6	7
117	117	19
116	116	24
133	133	11
124	124	14
2	21	3
105	105	15
36	36	23
127	127	46
139	139	16
7	9	4
83	84	12
38	38	17
140	140	25
89	90	2
32	33	3
37	37	26
100	100	27
16	16	16
102	102	12
125	125	12
111	137	1
23	25	1
123	123	23
136	136	14
79	79	18
83	120	2
121	122	6
101	101	16
110	110	16
4	4	10
80	81	3
135	135	22
109	110	5
117	120	8
19	19	19
114	115	8
125	126	1
16	17	6
17	17	8
116	117	2
86	86	21
23	24	5
73	73	8
131	135	5
32	36	7
115	115	19
32	32	20
77	77	4
103	103	13
78	78	18
13	14	10
118	118	11
6	11	2
102	103	3
13	13	6
14	14	3
75	75	16
108	109	2
95	100	1
28	28	8
85	85	3
123	125	3
131	131	24
0	0	8
8	12	6
74	75	5
98	114	1
118	119	5
15	32	6
108	120	4
83	83	10
98	98	12
20	21	7
33	33	4
8	25	3
19	20	7
20	20	8
81	83	2
24	24	5
138	139	4
96	97	7
90	90	8
117	122	3
104	104	5
131	134	2
15	17	4
128	128	23
94	95	7
5	19	1
12	12	3
80	83	4
112	112	18
81	82	2
80	80	4
97	97	4
72	72	3
107	107	5
137	138	5
17	18	12
84	120	2
0	22	4
86	114	1
128	129	6
77	78	5
4	21	1
132	132	21
99	99	11
26	27	4
10	11	4
91	113	3
88	88	7
18	18	4
22	24	2
108	108	5
102	104	5
21	22	4
106	108	2
72	73	1
88	94	1
89	89	12
75	83	3
81	81	7
106	106	3
130	130	25
15	15	8
137	137	8
3	3	3
114	114	14
74	74	7
130	131	2
30	33	4
24	26	1
2	3	4
118	123	6
5	5	7
85	86	9
35	37	1
34	34	6
76	76	3
4	18	5
100	101	13
28	29	6
92	94	1
23	23	6
93	93	9
13	15	1
120	121	3
134	134	14
5	30	4
18	21	1
118	121	1
25	26	5
11	11	5
132	133	5
136	137	5
4	32	3
119	119	4
96	96	9
35	35	11
71	71	4
127	132	2
3	4	9
92	92	1
9	9	8
5	6	6
5	11	1
95	95	13
91	112	1
103	104	2
107	108	3
80	87	4
36	37	4
88	90	3
99	114	2
104	105	2
7	8	3
91	91	9
82	83	3
21	21	11
120	123	1
84	85	5
136	139	1
131	132	2
18	19	8
78	79	3
111	111	5
139	140	7
8	10	1
31	31	4
123	124	3
26	26	6
101	123	2
22	25	2
95	101	4
129	130	3
127	128	7
1	1	3
29	30	2
99	100	2
6	17	1
98	99	3
124	125	1
10	10	1
75	76	3
135	136	3
120	120	6
9	19	2
128	137	1
122	122	5
97	110	1
27	27	5
121	123	4
129	129	5
118	122	1
82	86	3
115	129	1
134	135	5
126	127	3
90	91	3
28	32	2
103	108	1
113	113	1
104	106	4
6	7	4
17	20	1
104	107	3
22	23	1
9	10	2
87	87	1
134	137	3
29	29	1
117	121	2
76	90	3
80	86	2
122	123	3
113	114	3
79	80	1
15	25	2
34	35	2
1	20	1
97	98	1
83	85	1
128	138	2
35	36	1
141	141	2
9	11	2
73	74	1
120	122	2
110	112	1
95	96	1
101	125	1
8	9	2
15	18	2
88	89	1
82	82	1
2	2	2
81	85	2
5	117	1
100	109	2
30	30	1
109	109	1
14	19	2
95	121	1
121	121	2
37	38	2
6	13	1
105	106	1
1	24	2
103	109	1
27	29	1
92	93	1
21	27	1
22	22	1
94	129	1
