82	83	6
46	46	9
181	187	2
52	107	1
156	156	5
72	72	10
40	40	19
187	187	15
140	140	15
14	14	11
165	171	3
171	171	11
100	100	5
0	3	1
59	59	8
24	24	3
95	95	7
61	61	21
1	1	4
123	125	6
109	111	2
81	85	7
101	103	6
38	38	9
70	70	3
53	55	4
30	57	3
114	115	1
181	181	9
58	58	10
19	19	2
114	122	4
62	63	1
57	62	2
97	97	7
14	47	1
60	64	4
138	139	2
21	22	11
40	57	1
33	34	2
129	129	15
138	138	6
14	57	4
166	166	8
19	20	8
35	36	4
132	175	2
187	190	2
75	75	13
64	64	7
152	152	11
88	89	13
188	189	5
30	36	3
22	34	1
2	89	5
0	2	5
99	99	6
123	123	8
178	179	9
89	90	3
186	187	6
116	117	2
127	127	17
150	151	3
43	66	3
90	100	4
175	183	1
174	174	10
14	15	5
7	7	11
4	4	3
130	130	7
16	17	7
36	73	2
18	19	3
21	21	10
140	141	5
118	118	18
45	45	9
33	33	9
66	66	4
117	118	3
187	189	3
81	81	20
129	148	1
145	145	12
59	65	1
183	183	5
31	69	1
152	153	12
25	26	1
103	104	6
38	112	3
171	174	1
42	42	7
47	47	18
84	84	9
164	164	18
112	112	15
126	126	5
22	24	4
147	147	11
154	172	4
137	137	4
141	141	14
142	143	11
101	101	10
108	108	5
86	86	6
150	160	2
129	142	1
94	94	6
130	136	5
29	30	7
131	131	5
53	54	1
14	30	4
57	57	8
79	79	17
160	160	8
125	126	2
37	83	2
189	189	13
89	104	3
70	71	11
134	135	3
91	91	10
173	173	6
12	12	5
123	128	3
178	178	8
22	26	2
134	137	4
187	188	12
169	169	15
65	66	2
154	154	4
157	159	4
40	41	6
158	158	7
165	172	3
133	133	11
177	189	2
136	137	16
62	62	8
57	58	1
41	42	4
108	118	3
128	130	2
112	118	4
20	20	5
82	82	3
11	76	2
137	138	5
30	31	3
111	111	21
167	167	5
83	108	3
3	3	10
104	104	5
88	88	5
36	36	8
129	130	5
98	98	6
47	48	1
25	42	1
130	150	5
27	27	7
77	78	8
21	46	2
0	1	3
32	35	7
74	85	3
27	30	2
60	60	10
56	56	13
88	90	3
10	73	2
99	101	6
89	106	5
16	67	2
2	2	6
59	61	7
60	142	4
5	8	2
71	71	5
65	67	7
146	146	11
162	162	13
34	34	5
155	167	1
81	82	1
190	190	1
69	69	5
186	186	11
95	97	5
13	14	11
132	174	2
61	62	6
80	81	7
49	58	2
20	28	1
25	45	6
182	183	1
79	88	5
23	23	5
44	45	6
161	161	6
130	138	4
162	186	3
108	115	2
37	38	5
133	187	3
41	41	19
148	150	3
24	25	4
164	173	4
29	29	6
165	165	5
96	97	1
106	120	3
33	35	2
180	180	9
124	124	2
139	139	8
95	99	7
138	141	5
107	107	9
100	101	2
132	132	7
105	105	2
110	113	3
93	94	13
73	73	5
110	110	16
5	99	2
59	60	2
4	5	5
48	48	12
106	106	10
132	134	2
142	142	8
115	115	8
132	133	10
90	90	9
60	66	5
113	169	6
172	172	6
39	39	6
74	75	1
104	105	8
182	182	16
10	13	2
112	113	4
43	65	4
103	103	3
25	28	2
100	104	3
151	151	11
143	143	6
24	30	1
18	18	12
147	148	5
114	114	9
87	90	3
20	21	3
89	89	4
158	176	7
147	149	4
30	30	12
73	75	6
92	92	2
27	44	2
24	35	2
180	181	7
176	181	2
123	127	4
152	185	3
144	144	4
16	16	6
8	8	3
30	32	3
25	25	2
155	155	8
21	24	1
8	9	3
11	12	3
177	177	3
78	78	5
126	129	1
15	18	3
141	143	2
17	19	2
166	167	3
33	82	1
13	13	7
76	76	7
65	70	5
179	180	2
133	162	2
32	96	2
109	112	1
157	157	10
56	57	2
176	176	5
100	105	2
87	87	5
116	116	1
149	149	5
90	91	6
56	58	2
73	74	2
188	188	5
15	15	9
175	175	10
120	120	3
121	127	4
129	131	4
31	31	6
184	184	11
10	10	1
136	159	2
156	157	5
189	190	3
159	159	3
14	38	4
10	37	1
176	177	3
72	73	4
102	102	3
131	134	4
16	58	3
167	168	10
114	135	4
9	74	1
26	44	5
2	122	1
158	173	1
158	181	2
32	32	4
168	169	3
133	137	6
173	174	3
71	85	8
68	84	2
175	176	10
163	164	2
18	20	1
119	120	3
122	129	4
10	12	2
44	44	5
67	68	3
48	49	2
163	163	2
132	137	2
148	148	9
114	125	4
58	63	3
157	158	5
138	149	1
29	32	4
38	39	13
19	65	2
65	65	4
63	64	5
83	83	2
78	96	9
15	38	5
168	168	2
83	85	4
28	29	6
119	119	8
28	28	3
181	190	3
57	61	3
77	77	7
137	173	1
97	98	1
131	174	6
37	39	2
168	170	2
52	53	3
43	44	3
35	35	4
74	103	2
53	53	5
148	151	1
155	156	6
101	124	2
162	163	2
25	27	1
113	113	5
73	85	1
22	96	1
76	77	1
52	52	4
96	96	11
80	80	1
114	116	3
106	113	2
85	87	1
72	86	1
78	79	1
131	132	1
12	81	3
140	159	1
84	107	1
26	26	4
156	181	2
23	24	4
122	122	2
177	182	1
74	93	3
90	95	1
148	149	4
141	142	2
154	164	2
44	68	1
53	70	3
161	162	5
67	67	1
151	160	2
91	92	1
24	28	1
150	150	7
179	179	7
68	68	5
84	86	2
135	136	1
110	111	1
90	92	3
109	109	10
155	174	2
87	91	1
111	113	2
171	172	3
113	127	2
93	93	9
105	106	3
146	148	1
22	23	3
94	95	1
91	93	1
10	11	6
143	144	7
162	164	3
74	74	4
18	65	2
75	78	3
151	159	1
58	59	1
158	161	1
130	131	3
180	187	2
95	124	2
20	31	4
144	145	1
137	160	2
10	56	2
41	62	2
131	150	3
128	129	3
68	71	1
16	36	1
154	158	1
10	55	1
1	2	5
131	145	2
113	123	1
6	6	6
17	17	1
164	165	3
26	45	5
121	121	7
136	136	6
174	181	1
128	128	2
0	0	2
61	63	4
177	188	3
27	29	3
154	173	1
77	143	1
122	124	2
63	63	4
35	80	1
126	134	3
150	163	1
140	142	2
87	89	1
154	155	1
149	150	1
6	89	1
34	35	3
55	56	1
153	154	4
91	109	2
82	86	2
167	169	1
13	16	1
155	170	1
154	159	1
59	64	1
45	46	1
122	125	1
145	146	1
68	69	2
136	157	1
170	173	1
31	32	1
16	18	3
146	189	1
125	125	2
181	188	3
33	68	2
31	36	1
54	56	1
15	58	2
158	159	3
156	168	1
82	91	1
100	103	4
20	22	1
42	43	2
136	138	1
102	103	2
14	37	3
132	149	1
5	100	3
37	37	1
114	127	1
157	172	1
109	118	2
155	181	2
155	158	1
134	134	2
85	85	2
165	174	2
46	47	1
76	94	2
6	7	1
124	125	1
54	54	2
153	153	1
175	188	1
172	173	1
135	138	1
22	22	3
102	104	2
77	94	2
122	123	1
12	13	2
17	71	1
183	188	1
161	163	1
115	116	1
121	122	1
181	182	1
85	108	1
166	177	1
1	102	1
53	105	2
154	182	2
58	67	1
171	173	2
183	184	1
110	170	1
2	6	1
156	158	1
72	84	2
12	80	1
165	167	1
122	128	1
176	182	1
172	174	1
77	79	1
17	36	1
92	93	1
108	109	1
133	134	1
23	27	1
135	135	1
115	134	1
86	87	1
93	95	1
123	124	1
64	65	1
90	104	1
109	123	1
160	161	1
