94	94	1
8	8	4
78	79	7
21	21	10
9	19	4
35	37	10
96	96	2
102	123	3
74	74	9
120	121	6
137	137	7
137	138	6
78	78	2
102	102	5
99	127	5
130	130	17
134	136	4
31	31	3
35	35	5
35	36	4
4	16	1
131	131	3
120	120	6
29	30	3
85	85	1
112	112	13
78	80	4
132	134	5
77	77	6
90	91	1
103	109	4
0	0	6
103	114	3
20	20	2
81	81	8
25	25	1
71	71	2
19	28	1
19	19	5
25	26	4
103	103	6
98	98	4
109	109	3
126	126	9
121	121	5
73	115	6
117	117	8
82	82	14
29	31	3
88	93	4
97	97	3
84	105	2
100	100	10
140	140	3
97	129	2
139	139	4
83	84	2
138	138	6
86	93	2
128	128	6
127	129	7
34	34	5
17	33	2
116	117	3
123	128	1
116	116	8
134	135	6
37	37	12
133	135	1
90	90	4
133	133	11
91	91	6
132	132	2
111	111	2
129	129	6
114	114	4
112	119	3
136	136	7
135	135	4
121	122	2
129	130	1
125	125	10
138	139	2
79	133	2
82	85	5
81	85	3
122	122	12
95	95	10
37	38	3
26	27	6
115	115	2
106	106	3
103	125	3
136	137	1
123	123	1
11	93	6
125	126	6
125	130	1
76	76	3
124	124	4
79	80	5
28	28	4
9	9	6
134	134	2
119	119	2
112	136	1
127	127	2
87	87	2
33	33	1
5	5	1
18	18	2
23	24	1
121	135	2
107	107	5
93	93	2
130	134	1
86	87	2
119	120	2
73	74	1
26	26	1
111	113	2
101	103	2
103	104	2
7	11	2
99	99	2
92	92	1
2	10	2
16	22	2
3	3	1
110	111	1
15	18	1
22	22	4
91	131	1
105	105	1
73	73	1
116	135	3
107	108	1
89	89	2
1	1	3
110	110	3
10	10	5
2	2	7
95	98	4
14	14	1
15	15	2
120	122	1
11	11	3
101	101	1
72	73	3
128	129	2
1	32	2
16	86	2
79	88	2
87	108	1
26	36	3
72	100	1
15	21	1
118	118	1
80	82	1
0	18	2
102	103	2
1	18	1
17	17	1
113	113	5
96	129	3
93	111	1
96	140	1
27	28	1
27	27	1
24	24	2
36	36	3
87	88	1
83	83	1
72	72	1
106	107	2
72	102	1
8	11	1
84	84	1
78	89	1
88	88	2
38	38	1
112	114	2
105	107	1
18	23	1
77	78	1
2	4	1
7	9	1
80	101	1
