76	76	3
131	131	1
141	168	2
12	29	5
83	83	9
60	60	12
38	39	2
147	182	2
229	230	1
149	205	6
37	37	2
96	96	2
79	79	5
125	126	3
61	61	9
239	239	7
131	155	7
150	153	3
68	68	5
153	153	4
114	114	4
34	35	5
10	10	7
103	103	2
198	203	1
157	157	8
80	80	5
230	230	6
192	193	3
177	177	3
49	49	7
183	197	4
213	213	2
40	40	1
2	7	1
41	217	3
167	167	2
173	173	6
6	215	2
78	78	2
145	145	12
9	214	4
137	139	1
33	54	1
43	43	7
85	86	4
136	136	4
59	59	11
0	2	6
82	82	5
30	31	2
71	71	4
225	226	3
199	199	8
138	139	7
47	75	6
148	148	7
154	154	3
24	24	3
103	127	8
15	30	2
10	11	7
196	196	7
67	70	1
224	226	3
105	106	5
102	103	4
45	45	6
53	53	3
57	57	8
8	60	3
139	180	2
63	63	2
205	205	6
106	106	5
158	158	3
8	8	2
236	236	2
23	36	2
36	36	2
139	139	4
175	175	2
153	167	4
144	146	1
39	39	1
181	181	15
123	123	2
62	62	6
170	180	3
21	22	4
158	159	11
66	67	4
25	25	4
20	20	3
223	223	3
26	26	10
171	171	6
219	219	1
179	179	3
117	124	1
18	18	12
11	11	4
222	222	2
140	143	1
15	49	3
33	35	3
207	213	5
133	178	3
65	65	4
6	6	5
210	223	3
86	86	2
230	231	3
50	51	1
219	233	7
170	170	2
107	108	1
209	209	2
17	35	1
62	232	3
54	54	3
2	2	2
221	228	2
107	155	2
233	233	7
204	204	2
237	237	5
208	208	1
124	125	1
3	4	4
5	5	3
72	72	10
28	48	1
104	104	2
100	100	2
198	198	7
2	4	3
81	81	4
32	32	5
169	169	3
17	209	3
241	241	1
78	123	1
81	82	7
206	206	3
105	107	1
54	72	3
200	200	4
231	231	4
189	201	3
64	224	2
79	88	2
237	238	4
105	105	2
157	183	1
16	21	4
143	213	1
75	75	2
67	67	8
196	197	4
140	140	3
210	228	3
55	55	1
19	20	1
50	60	5
83	84	2
229	229	1
5	8	4
150	151	2
25	62	1
152	152	2
224	224	9
27	27	8
146	146	5
3	36	2
66	176	2
82	88	5
46	58	2
235	236	1
135	135	2
13	14	1
239	240	3
187	187	3
134	134	3
147	148	2
49	50	3
44	44	3
95	95	4
134	217	1
0	53	1
23	23	5
208	233	5
183	183	4
176	176	5
207	208	4
220	222	4
159	159	1
156	156	6
5	6	1
56	56	6
220	220	2
12	229	2
120	120	2
15	24	1
206	207	2
66	199	1
7	7	7
65	66	1
209	210	4
6	14	4
28	28	8
104	106	3
240	240	2
213	215	2
7	8	7
62	73	4
85	85	2
191	192	1
18	21	2
86	100	1
144	144	2
216	216	1
0	0	6
129	129	3
221	222	1
66	66	1
201	206	2
135	184	1
76	79	3
19	19	5
47	47	1
12	13	4
60	61	2
77	79	1
38	38	2
220	221	3
17	17	2
77	78	3
203	203	3
76	84	1
37	39	1
129	130	1
160	166	1
138	138	2
64	64	1
4	17	1
123	124	3
137	138	1
185	185	2
9	10	2
205	207	3
42	42	4
105	129	1
202	202	2
193	194	2
170	171	6
2	72	2
10	131	2
46	46	2
18	19	6
239	241	1
222	229	5
31	31	2
175	176	2
146	225	1
172	172	3
128	165	1
212	227	3
9	9	3
71	72	1
160	160	3
218	218	2
221	221	1
162	200	5
154	155	1
110	146	5
1	72	2
51	52	1
124	126	5
38	73	1
29	29	2
188	188	2
154	159	3
145	150	1
35	35	1
208	236	3
232	232	1
231	232	2
74	74	4
5	36	3
106	240	3
63	212	2
67	176	2
108	108	1
73	74	1
211	226	3
39	73	1
235	235	3
4	6	1
152	153	3
128	202	1
17	31	2
117	117	1
33	33	3
81	83	2
101	151	3
34	36	1
51	74	2
137	137	1
124	124	2
46	68	2
158	200	1
226	227	1
118	119	1
128	128	3
8	35	2
105	114	1
62	64	6
30	48	3
157	158	2
163	198	2
178	179	1
130	131	2
84	85	2
104	115	5
184	184	2
136	182	2
80	126	1
155	155	1
166	166	3
29	30	1
192	196	1
159	163	3
92	92	1
163	169	2
79	80	2
59	60	2
3	3	1
127	127	2
51	51	2
222	223	1
119	119	1
137	214	1
103	129	2
103	106	1
164	169	1
199	214	2
195	195	1
177	178	1
215	222	2
112	112	1
192	192	1
34	52	2
180	180	3
162	162	4
242	242	3
22	22	1
110	237	1
54	55	4
104	107	1
3	7	1
21	21	4
121	121	1
125	125	1
101	101	2
51	53	1
0	24	1
18	36	1
2	3	1
207	207	1
21	35	3
172	192	2
225	225	2
7	68	1
188	189	2
58	60	1
12	12	2
65	69	1
111	125	1
24	25	1
133	133	2
155	156	1
117	118	1
172	191	1
70	73	1
33	101	1
220	230	1
40	41	2
135	150	1
193	195	1
72	73	1
236	241	1
107	118	1
46	47	1
10	136	1
211	211	1
186	187	1
26	186	1
101	152	1
114	121	1
57	58	1
11	37	1
205	209	1
5	31	1
