11	11	15
188	195	1
156	161	5
65	73	3
30	30	5
35	36	2
43	43	3
192	192	11
143	144	4
23	23	1
197	197	8
151	152	3
187	187	9
76	80	1
189	190	7
176	177	2
76	79	1
17	17	4
44	45	8
33	33	3
21	21	3
146	146	9
88	89	2
31	31	6
102	102	5
17	23	1
130	130	4
54	54	10
127	127	2
25	25	9
123	123	10
19	19	9
32	32	1
98	98	1
79	82	4
104	105	2
165	165	14
134	135	5
61	61	8
152	153	4
136	136	8
175	175	7
2	2	5
194	194	7
156	156	4
96	97	4
166	167	4
139	140	1
94	94	3
34	65	2
137	137	10
77	77	7
97	105	2
100	108	3
12	12	9
165	167	3
34	34	3
101	101	4
48	48	8
38	64	1
161	161	8
17	36	4
39	40	3
173	173	8
40	40	4
150	150	21
118	118	2
118	149	3
190	191	3
191	194	1
192	193	5
109	109	7
162	165	4
189	189	8
194	195	3
130	131	5
70	71	10
10	31	10
113	113	4
85	85	2
90	90	3
101	133	1
185	185	4
187	188	7
41	41	15
126	126	1
5	5	4
49	50	1
13	13	3
9	24	1
186	196	2
64	68	3
86	86	5
11	46	2
8	71	1
39	39	3
152	157	2
133	133	5
164	164	5
179	182	1
195	195	1
173	175	3
151	151	6
18	18	4
121	121	10
134	142	4
171	189	5
172	172	11
178	178	6
9	9	11
43	78	2
149	150	5
140	140	4
93	93	4
33	69	3
47	47	4
184	185	4
59	59	4
180	181	4
115	115	4
42	42	2
16	17	1
117	173	1
46	46	2
127	128	5
34	35	2
158	158	9
170	170	9
79	131	6
102	104	1
196	196	5
122	147	1
137	140	1
41	83	4
107	107	5
76	130	2
42	135	2
125	127	2
62	63	2
45	45	2
70	70	6
188	189	3
181	182	2
38	38	3
10	14	1
179	179	7
54	55	2
82	82	4
168	178	4
71	71	6
100	101	1
119	121	1
125	125	1
108	109	4
0	4	4
151	167	2
154	154	4
119	119	10
143	143	7
75	75	1
21	22	1
114	164	1
104	104	1
38	39	1
176	176	3
25	69	2
141	141	11
124	124	4
24	24	2
107	130	3
179	180	2
35	35	4
79	79	4
29	30	1
161	175	4
110	111	3
50	50	7
173	174	1
183	191	3
160	160	4
180	180	2
184	184	7
162	162	2
99	99	10
191	191	6
188	188	1
4	84	3
195	196	5
155	156	1
68	68	1
164	170	4
15	15	7
76	76	2
144	145	4
103	104	2
58	58	6
27	27	6
122	122	4
167	167	8
186	186	4
145	145	6
144	177	5
20	20	3
178	179	6
174	175	4
114	171	1
53	53	4
171	171	5
64	65	4
132	132	3
67	68	2
16	16	10
54	160	1
138	151	2
128	128	2
71	72	3
166	166	5
30	31	3
114	114	5
106	106	9
157	158	9
103	103	4
161	167	1
177	187	3
159	161	3
116	118	2
122	128	2
41	81	2
181	181	12
107	134	1
3	18	3
159	159	4
59	65	1
193	193	1
165	166	3
111	111	7
67	67	3
8	16	3
89	89	1
14	14	5
63	63	4
26	26	4
162	175	7
52	52	5
73	73	1
126	127	5
124	125	1
5	6	1
138	138	6
120	120	1
112	158	2
8	8	1
49	49	2
134	134	2
37	38	1
105	105	3
43	44	1
143	145	1
135	135	2
7	7	4
20	35	1
76	77	3
112	112	1
50	51	1
31	32	3
55	159	5
65	65	1
33	57	2
149	149	3
25	119	3
172	173	2
66	66	2
110	110	7
11	48	1
55	55	1
51	51	1
6	7	2
141	152	6
25	27	3
5	17	1
165	172	1
56	56	2
183	183	4
148	193	2
112	114	2
144	144	3
29	42	1
123	124	1
60	60	1
69	70	4
6	6	2
174	174	3
174	177	1
9	47	2
163	164	4
169	169	3
183	187	1
62	62	1
146	147	3
97	118	6
22	23	2
80	80	1
113	176	1
132	143	1
36	36	5
185	186	2
58	65	3
78	165	3
140	155	2
168	169	2
15	16	2
25	58	1
153	153	3
119	131	1
158	159	4
136	157	1
44	44	2
36	86	2
116	119	1
174	176	2
0	0	3
27	64	1
162	167	2
46	88	1
87	88	2
114	120	2
141	151	4
96	96	2
156	177	1
21	23	1
182	191	4
37	37	6
177	178	2
116	117	1
59	60	2
21	33	1
39	41	2
36	37	1
100	100	1
93	95	1
148	148	1
117	117	2
156	173	4
142	143	5
139	139	1
18	19	1
163	163	3
153	155	2
162	163	1
152	152	1
0	3	1
99	132	1
157	157	3
133	134	1
193	194	2
170	171	2
100	142	1
115	171	2
94	96	1
164	165	2
55	56	1
69	71	2
135	137	2
102	141	1
37	48	1
6	99	1
5	7	2
64	64	1
15	58	1
7	26	2
103	162	1
6	9	2
9	83	1
187	189	1
149	156	1
154	173	1
31	70	1
72	72	1
13	51	1
33	67	3
190	192	1
13	14	1
114	146	1
8	20	1
66	67	1
53	54	1
116	116	3
157	167	2
184	187	2
117	118	3
166	172	3
151	178	1
147	147	2
95	96	1
79	80	2
94	99	1
0	53	3
136	137	1
156	157	1
52	53	1
66	72	2
157	165	1
114	119	1
65	66	1
147	148	2
3	3	1
81	81	1
172	175	1
3	5	1
59	62	1
189	194	1
8	21	1
22	22	1
159	163	1
1	1	2
48	184	1
9	10	2
23	33	1
175	179	1
160	172	1
163	167	1
