129	129	8
48	48	12
95	95	11
144	144	11
88	88	3
113	113	7
69	70	7
2	4	1
106	108	6
0	141	4
29	29	21
139	139	5
9	9	6
116	125	2
1	1	9
19	21	2
78	78	2
132	132	7
145	145	9
107	108	2
134	134	20
30	31	4
80	81	8
50	50	2
96	96	16
34	34	2
94	95	4
111	111	6
107	107	8
8	8	6
100	100	6
141	141	16
124	125	4
22	23	7
103	103	12
123	123	7
95	96	4
2	2	3
127	129	4
83	83	13
121	122	12
32	96	1
131	131	5
31	32	6
49	49	11
26	27	3
11	11	7
40	40	5
40	138	2
114	115	2
130	130	6
130	133	1
111	112	4
140	141	2
125	125	9
25	26	1
23	24	4
17	17	14
6	6	8
47	47	2
21	21	13
93	93	2
98	99	3
92	92	2
54	54	11
75	75	8
42	42	14
72	80	2
111	113	1
80	80	3
109	109	9
36	37	9
125	126	4
8	10	5
60	60	11
31	33	1
16	17	4
97	98	6
140	140	9
22	22	2
128	128	18
53	53	4
30	30	10
28	36	5
18	19	2
59	59	7
35	35	7
16	16	7
48	52	3
13	16	3
24	70	3
105	106	5
138	138	4
22	71	2
115	116	8
52	53	1
33	34	2
126	126	14
88	89	11
32	35	1
117	118	1
132	134	2
137	138	8
65	65	5
48	49	1
10	10	9
42	104	2
19	19	8
38	38	11
82	83	4
102	102	5
119	119	14
38	107	4
91	93	4
120	120	7
142	142	2
108	109	6
136	139	4
79	80	6
66	66	7
33	33	3
25	25	5
73	73	7
58	59	7
114	114	7
27	27	11
123	124	2
124	124	15
4	4	7
118	118	11
91	91	6
89	90	1
78	79	8
126	129	3
82	94	2
5	5	9
12	12	4
13	20	2
35	36	2
71	71	7
129	130	4
98	98	4
100	101	2
2	3	4
18	18	9
12	24	1
137	137	4
40	142	2
143	146	1
37	37	5
20	27	1
37	62	2
34	35	3
79	79	6
24	24	11
58	58	3
143	143	4
89	89	3
31	31	1
13	14	5
84	84	11
81	81	3
26	26	10
57	57	1
61	61	7
3	4	8
23	23	14
69	69	1
110	110	12
77	110	5
116	116	5
117	117	2
84	86	1
122	122	18
87	87	5
94	94	11
51	52	3
40	59	4
121	121	3
28	29	2
41	41	5
64	66	1
14	14	4
20	21	6
104	104	4
75	110	1
133	133	6
1	139	3
126	128	4
22	29	2
135	135	6
105	105	4
26	72	1
75	76	4
101	101	7
96	100	2
67	67	7
136	136	2
55	56	3
59	60	1
33	104	2
40	136	4
34	105	3
85	85	2
20	20	7
0	0	5
128	129	3
115	117	1
37	38	3
115	115	8
97	97	2
127	127	1
119	120	7
121	128	1
72	72	3
27	28	2
103	104	3
36	36	7
21	120	1
135	139	2
73	75	2
136	137	1
17	18	1
74	75	1
104	105	2
40	104	2
53	59	2
80	110	2
122	123	3
70	71	2
13	13	6
105	124	2
118	119	2
74	74	7
90	90	2
10	11	2
62	62	4
90	91	3
116	117	3
135	137	2
101	102	3
104	108	2
134	135	4
3	6	1
41	42	7
136	138	3
85	87	1
48	60	2
62	64	2
39	39	4
49	50	6
55	55	2
38	105	1
99	100	4
143	144	5
127	131	2
112	112	4
83	85	3
56	59	3
28	28	8
15	15	1
40	41	1
86	86	2
84	96	1
56	56	6
74	80	4
67	68	2
82	85	2
135	136	2
77	77	3
96	99	2
49	117	1
104	107	1
111	114	1
3	3	2
32	32	1
5	11	1
102	104	2
71	72	3
52	52	1
89	91	3
8	17	2
25	72	1
70	70	1
70	72	3
21	22	2
6	137	1
133	134	2
74	81	2
75	79	3
3	5	2
129	131	1
10	15	3
19	20	2
51	51	2
48	50	2
104	125	2
32	100	1
146	146	3
111	118	2
39	41	1
99	99	2
33	51	2
74	91	1
118	121	1
38	39	1
68	72	2
85	95	2
27	36	1
91	92	2
51	116	1
64	65	1
85	98	1
18	27	1
88	91	1
35	48	1
59	71	2
144	145	2
119	122	1
49	52	1
9	10	1
74	90	1
34	52	1
63	63	1
83	84	1
113	114	2
87	88	1
76	76	1
104	106	1
144	146	1
34	99	1
22	24	1
130	132	2
107	118	1
85	86	2
76	80	1
113	116	1
39	40	1
25	27	1
114	116	2
12	20	1
73	76	1
142	145	1
66	67	1
67	70	1
68	120	1
112	113	1
