22	22	5
71	94	1
123	123	18
48	48	16
56	57	3
117	117	12
56	80	1
133	133	9
120	121	2
115	116	5
16	16	6
196	196	17
39	42	4
122	122	10
132	132	6
59	65	3
126	143	2
36	36	21
77	82	3
131	131	11
85	85	10
148	149	4
195	195	14
54	54	11
146	146	6
192	193	10
0	1	10
159	175	1
169	169	15
150	154	5
34	169	5
4	4	9
60	60	1
171	171	17
127	127	10
125	125	10
12	12	12
53	54	1
137	141	2
173	173	14
20	22	4
94	94	1
185	186	11
0	2	4
179	180	7
124	124	19
5	5	15
150	166	4
36	37	4
186	186	16
170	170	8
96	96	3
142	143	10
55	55	6
140	140	13
26	26	14
39	41	6
9	23	2
1	153	4
175	176	2
180	181	2
83	84	4
109	116	3
18	19	8
11	13	1
0	0	3
20	20	7
52	52	5
129	129	10
8	9	4
46	46	16
32	32	6
134	134	9
141	141	7
142	142	12
39	39	8
62	65	2
64	64	2
113	114	2
165	167	2
192	192	5
111	111	24
126	126	3
45	124	1
124	125	6
74	74	3
190	190	7
130	133	4
153	153	3
41	42	5
177	177	14
44	44	11
159	159	19
101	101	11
10	10	13
37	133	2
34	34	15
9	11	4
102	102	6
12	31	4
110	110	8
66	66	3
13	13	12
132	134	4
190	191	3
8	8	10
128	128	15
168	168	13
165	165	4
135	138	4
29	30	4
9	12	6
119	119	10
169	186	2
173	174	5
157	157	12
139	144	3
151	152	9
136	136	8
112	112	11
188	189	13
182	182	7
149	149	12
23	23	20
158	158	7
47	49	1
187	189	8
65	65	3
144	147	8
4	33	1
81	83	2
49	54	1
50	51	10
52	53	5
189	190	1
6	37	5
193	193	12
114	115	2
15	15	6
58	59	6
28	28	3
58	58	13
167	167	13
156	156	6
125	126	4
119	120	5
162	162	3
163	164	6
6	7	3
172	172	11
123	127	1
13	14	17
105	106	6
51	51	6
180	189	2
9	13	7
194	195	2
194	194	12
31	31	13
30	33	1
137	138	4
114	114	8
33	34	3
6	6	5
134	136	2
182	183	7
187	188	4
186	187	6
23	24	10
191	191	16
134	137	5
62	62	6
106	106	7
50	50	3
110	111	6
10	13	4
117	118	3
28	29	6
130	130	9
83	85	4
180	180	8
77	87	3
49	58	2
7	34	3
98	98	7
4	57	1
54	55	3
42	53	6
126	127	4
159	161	2
84	87	4
131	132	3
102	105	1
171	172	11
172	178	2
32	36	3
28	30	2
56	56	7
132	133	8
181	183	4
143	144	3
137	137	13
139	139	8
140	160	2
141	150	2
52	125	1
176	177	2
103	104	7
160	184	4
128	196	1
9	9	4
141	142	4
45	45	15
176	176	1
133	136	2
97	98	3
135	137	4
106	109	1
78	78	2
105	105	6
160	160	13
154	155	1
184	184	6
179	179	8
139	140	8
118	118	1
109	110	4
113	115	5
152	154	3
2	2	2
38	38	20
126	128	2
150	150	15
86	132	2
71	71	3
187	187	12
51	126	2
178	178	4
113	136	2
40	40	3
164	164	7
189	189	5
174	176	9
148	148	6
24	24	4
159	160	3
170	171	9
70	70	7
5	37	3
11	16	3
34	35	5
11	12	3
24	33	2
149	170	1
130	131	6
109	109	1
149	150	8
16	17	6
107	107	2
43	59	2
146	147	2
98	100	3
163	167	6
157	159	2
178	183	1
138	160	3
43	43	12
101	102	6
115	117	1
133	160	1
15	17	1
30	31	5
69	69	11
161	162	4
110	112	2
80	80	3
19	20	6
67	67	2
155	155	5
185	185	2
17	17	2
11	11	3
30	30	16
42	42	5
104	106	2
77	77	4
135	135	5
9	10	10
167	171	2
174	174	6
16	30	2
9	14	1
150	196	1
14	14	11
8	10	1
195	196	5
140	152	1
145	146	3
191	192	3
45	55	4
76	89	3
149	151	4
129	137	1
151	151	2
161	161	2
50	56	1
80	82	3
21	21	2
147	147	3
118	122	2
145	154	1
148	151	1
49	49	8
115	134	1
18	20	3
113	116	2
118	120	2
166	167	3
55	56	4
57	58	1
158	159	6
166	166	2
169	170	2
70	72	2
29	32	1
104	105	3
59	59	2
36	42	1
7	8	1
116	118	1
2	24	1
188	188	10
133	134	4
120	124	3
41	43	2
150	155	3
31	32	4
155	156	7
177	196	3
99	99	2
25	27	2
169	193	3
153	155	2
160	161	1
77	89	2
17	20	1
20	21	3
99	100	3
83	83	3
61	61	2
44	58	1
185	187	3
5	7	1
149	157	1
84	84	3
183	193	1
72	72	1
123	125	1
53	53	3
154	154	7
41	41	4
163	168	1
107	113	1
27	27	5
161	185	2
174	175	5
116	116	1
12	47	2
115	115	5
160	195	1
21	23	4
43	44	3
172	184	1
85	86	3
121	121	7
135	136	3
81	81	5
172	186	3
150	151	2
61	62	1
177	182	2
51	56	4
168	169	4
86	88	1
145	149	3
150	157	2
9	31	2
38	39	1
195	197	2
97	97	4
46	51	1
147	148	1
47	47	3
89	89	2
172	193	3
58	69	2
122	128	4
34	38	2
112	139	1
60	61	2
15	18	2
63	63	1
98	101	2
163	163	4
59	60	1
72	95	6
16	136	1
3	40	2
5	6	4
14	16	1
138	151	1
112	113	4
3	3	3
145	176	3
167	173	2
150	156	2
172	173	2
93	93	2
189	193	2
161	164	1
51	52	1
144	144	3
118	126	4
100	100	2
159	169	2
29	29	2
82	83	4
148	150	3
181	181	3
2	5	2
4	9	4
103	103	2
75	76	1
19	19	6
180	196	1
72	93	2
25	25	4
120	120	3
68	68	3
153	161	1
140	167	2
15	16	4
87	89	3
186	193	1
147	150	2
33	33	6
149	168	1
42	43	5
160	163	1
178	181	1
151	167	1
88	88	2
69	70	2
5	27	2
2	4	2
3	8	3
165	174	4
181	182	3
37	37	2
19	21	3
100	101	2
183	183	3
37	38	3
152	152	3
111	139	1
189	192	4
27	29	2
71	72	1
38	49	3
4	5	1
170	172	4
181	184	1
95	95	1
0	20	1
65	77	5
86	86	1
148	156	2
164	165	1
149	152	1
161	184	1
110	142	1
129	132	2
171	177	2
136	137	1
7	7	2
145	145	3
10	12	1
79	80	1
74	75	4
22	23	1
180	182	1
197	197	3
123	124	2
134	135	1
79	81	2
143	143	2
58	64	1
173	175	1
126	148	3
179	182	1
10	46	1
16	18	1
5	9	1
138	139	1
111	112	2
88	89	1
105	107	1
156	159	2
138	138	1
45	48	1
6	8	1
151	157	2
6	44	2
17	18	1
96	99	3
130	148	1
12	16	1
46	47	2
119	125	3
15	126	1
108	108	2
143	148	1
39	47	1
103	106	1
146	172	1
155	193	1
33	35	2
120	137	2
114	140	1
141	161	1
161	174	2
15	197	2
73	73	1
95	96	2
138	197	1
138	142	1
141	196	3
146	177	2
113	113	1
141	152	1
47	48	1
119	122	2
156	160	2
3	5	1
62	63	1
35	37	1
144	145	1
121	122	1
159	162	1
5	8	1
9	16	2
152	172	1
49	50	1
140	153	1
162	194	1
179	181	1
39	40	1
14	51	1
196	197	1
73	74	1
49	55	1
178	180	1
98	99	1
