55	80	2
82	93	4
86	117	1
29	29	8
114	121	1
131	132	5
24	94	3
84	84	5
94	94	14
95	97	2
108	108	11
55	55	15
2	2	22
24	24	20
51	52	2
120	121	4
100	102	1
114	132	2
101	104	4
50	77	1
85	85	6
49	49	9
36	67	4
110	110	12
52	52	6
18	33	1
104	104	15
90	91	13
102	102	10
8	8	13
125	125	3
84	111	3
40	40	2
81	81	11
119	119	6
153	154	2
85	86	6
5	5	10
157	157	18
8	9	8
29	30	1
89	89	8
101	101	12
78	104	5
1	1	9
103	103	15
100	100	9
54	54	22
93	94	6
94	95	5
3	4	14
36	37	11
132	133	4
127	127	25
42	42	19
113	120	1
123	123	23
9	10	3
112	113	6
152	152	17
0	155	2
14	15	1
12	13	8
63	63	4
133	134	15
21	21	4
66	66	5
82	90	2
70	71	2
80	80	7
105	105	14
7	7	11
44	44	10
4	5	8
97	98	2
50	50	17
84	85	5
155	155	9
39	40	10
7	8	14
128	131	2
103	105	1
138	138	18
86	148	3
51	51	9
148	148	20
0	0	20
113	127	2
31	31	10
54	90	2
83	83	16
25	25	9
35	39	7
95	95	15
12	93	3
86	86	13
124	124	9
147	148	5
126	126	8
104	105	8
33	34	6
56	56	2
70	70	10
114	114	19
138	139	6
143	144	5
3	3	12
98	98	11
39	55	4
67	67	10
87	88	2
78	78	6
107	107	3
47	48	7
38	39	3
128	130	4
13	14	6
33	33	9
101	108	2
88	89	13
63	64	5
117	117	22
17	18	5
77	80	4
52	53	6
12	12	17
22	22	12
144	144	6
18	31	2
116	116	9
120	120	19
109	109	8
77	77	21
72	72	12
43	43	28
18	18	15
151	151	15
6	6	15
39	46	8
99	99	10
96	96	6
106	106	9
132	132	9
41	41	14
129	129	22
131	134	3
5	6	7
12	94	1
115	115	26
45	45	14
101	107	2
150	150	16
15	38	4
81	82	1
40	41	6
144	147	2
154	154	7
17	17	9
151	152	3
16	17	7
139	140	8
14	14	11
67	68	7
87	87	10
121	150	2
118	119	3
23	24	4
97	97	12
27	36	2
93	117	3
121	122	1
104	141	3
78	80	4
128	128	15
28	28	9
136	136	13
105	106	4
124	149	3
112	112	16
123	124	6
140	140	24
38	40	3
102	127	1
48	48	8
105	131	2
65	65	6
106	107	5
111	111	14
10	11	6
131	131	14
83	84	14
148	149	10
93	93	10
147	147	15
71	71	10
35	35	5
36	36	6
102	121	3
89	90	5
111	120	2
140	146	5
121	121	8
38	57	1
137	138	4
87	89	7
90	90	11
73	73	17
64	64	5
9	9	6
122	122	12
32	35	2
106	110	1
67	70	5
92	127	3
54	55	3
47	47	10
42	50	2
36	92	3
141	141	12
157	158	4
69	71	4
34	35	2
15	15	7
27	27	17
88	88	7
26	26	13
13	13	4
143	143	23
129	130	5
53	54	2
15	16	4
95	96	8
130	131	1
127	132	2
152	153	5
2	120	2
1	2	6
142	142	7
149	149	3
68	70	1
136	137	4
25	26	5
19	19	16
18	102	3
69	69	6
53	53	8
80	110	2
135	135	10
42	43	2
23	23	11
137	137	14
137	152	3
98	99	5
124	139	2
98	156	2
25	28	3
84	105	4
19	20	3
13	19	2
4	4	9
125	134	1
111	112	12
156	157	3
109	110	9
14	79	2
79	79	7
87	104	4
146	147	7
134	137	4
52	55	1
113	118	2
109	111	4
111	114	1
125	126	3
37	37	8
4	97	3
11	11	10
38	41	3
84	86	2
104	106	1
32	40	2
36	101	1
26	28	1
143	153	1
141	152	4
8	11	2
156	156	5
15	17	1
75	75	8
46	46	10
103	104	1
96	126	3
3	13	1
134	136	5
81	105	1
104	123	1
134	134	12
57	57	8
30	30	5
141	142	4
32	32	2
146	146	8
18	32	1
96	97	4
10	10	4
50	51	6
24	25	1
18	78	2
115	116	6
138	140	2
4	17	2
21	91	1
21	22	5
103	131	2
88	93	2
78	79	4
19	22	1
122	153	3
133	133	13
34	34	7
41	50	2
38	38	2
130	130	3
16	16	7
51	138	1
13	15	3
145	147	3
20	29	1
15	36	4
11	20	2
115	133	1
68	68	7
12	19	4
110	111	2
15	21	2
39	39	7
47	67	2
20	90	1
26	27	2
86	93	2
20	20	5
100	101	1
149	152	1
77	84	5
85	148	1
122	123	6
31	32	2
41	42	1
124	147	3
118	127	1
158	158	9
46	116	3
134	141	1
151	157	1
118	118	5
81	109	1
11	15	2
108	111	2
8	10	2
119	131	2
139	139	7
69	70	1
24	27	2
91	92	1
82	82	6
107	109	1
32	43	2
108	112	2
67	71	3
39	67	1
49	50	1
85	106	1
140	141	2
19	35	2
91	91	6
29	36	4
21	29	2
30	40	1
3	35	1
103	106	3
150	151	2
80	81	3
62	63	3
135	138	2
62	68	2
15	19	2
19	23	1
39	54	1
14	37	1
35	36	5
3	30	1
27	29	2
117	122	1
83	85	2
23	25	4
107	111	2
45	46	5
81	88	2
104	114	1
48	49	2
155	158	1
46	73	3
94	98	1
87	117	2
69	88	2
153	153	6
40	51	2
72	73	1
118	120	2
2	7	2
127	152	1
2	5	4
117	127	1
45	47	2
32	90	2
129	148	3
132	152	1
155	156	3
132	134	1
154	155	2
62	62	4
99	100	3
18	19	2
146	148	2
18	30	1
95	119	2
33	55	3
33	84	2
40	43	1
139	151	1
50	79	1
134	135	2
31	33	1
92	92	4
120	130	1
135	136	1
73	74	1
111	113	1
46	47	1
113	113	1
145	145	2
8	92	1
17	34	1
113	114	1
117	138	2
79	80	3
152	154	1
27	40	1
156	158	1
15	18	1
92	93	1
87	90	3
32	33	1
18	20	1
65	73	1
150	154	1
63	66	1
93	107	1
43	44	1
140	151	1
40	50	1
8	13	1
93	95	1
135	137	1
79	87	1
105	157	1
29	34	1
40	42	1
114	118	1
18	21	1
12	14	1
40	101	1
111	116	1
39	97	1
117	118	1
1	76	1
31	44	1
41	55	1
108	109	1
111	115	1
0	1	1
16	57	1
