17	17	5
61	62	4
52	52	20
109	109	10
20	20	21
127	127	5
56	56	30
46	46	33
19	19	11
101	102	6
0	1	11
15	15	21
60	63	3
98	98	15
26	27	3
13	32	4
91	91	11
62	79	3
55	55	34
90	90	22
72	73	3
51	51	11
19	26	2
9	9	17
57	57	19
50	50	9
27	27	15
6	28	6
89	89	12
48	48	46
54	54	33
41	41	7
38	42	2
32	34	3
96	96	19
113	113	25
121	121	20
115	115	15
68	68	16
125	125	40
46	47	9
77	116	1
53	53	26
75	75	19
15	22	1
12	12	24
53	54	2
48	49	2
69	69	29
81	81	16
4	4	14
45	46	5
85	96	2
104	104	11
80	80	13
49	49	30
6	6	9
124	125	5
84	85	12
71	71	16
97	99	1
97	97	15
126	126	10
121	124	5
1	1	17
57	62	6
129	129	2
120	132	1
72	81	3
106	107	7
34	34	3
31	46	1
5	5	9
118	119	8
105	105	14
110	110	45
32	33	3
75	77	1
124	124	26
120	121	9
73	74	6
79	79	9
60	60	5
85	108	2
38	39	4
23	40	3
59	60	3
63	63	13
85	85	14
122	122	12
45	47	5
33	63	4
67	83	3
3	4	9
6	64	4
43	44	10
80	81	4
9	10	3
95	96	9
128	130	6
7	8	7
7	7	11
4	14	2
59	59	14
29	46	2
2	2	12
63	68	8
45	45	11
111	112	2
25	25	13
6	34	5
77	77	15
66	67	9
21	21	7
130	131	4
4	5	8
86	86	11
16	18	1
20	21	5
43	43	9
107	107	13
93	93	11
26	26	8
58	59	3
125	126	7
29	30	2
0	53	1
76	76	11
72	74	2
14	14	4
99	99	12
95	95	16
72	72	11
42	42	16
47	47	17
117	118	4
73	75	1
127	130	1
48	102	6
111	111	14
49	50	11
55	63	3
114	114	14
70	70	5
78	81	3
83	83	6
27	28	1
95	102	3
47	48	5
101	101	17
13	14	5
70	76	2
40	42	2
97	98	2
103	103	11
117	117	3
29	29	8
13	13	12
9	12	2
40	40	21
52	68	3
69	70	3
109	110	7
12	32	1
19	21	4
120	120	11
91	92	10
123	123	13
100	100	10
92	92	14
102	102	21
33	33	4
81	82	6
98	99	5
102	103	5
67	67	15
25	28	1
51	71	2
70	96	9
5	6	2
75	76	4
46	48	4
23	24	4
18	18	9
105	106	5
58	63	4
54	121	2
132	132	6
54	56	5
108	108	17
13	24	1
85	86	12
44	44	15
12	21	3
10	10	3
130	130	5
8	50	2
74	74	7
22	22	8
94	94	9
3	3	12
25	26	6
84	100	3
12	31	1
11	12	4
58	58	12
61	87	1
125	131	2
104	122	3
32	32	8
8	51	1
133	133	3
116	117	4
71	72	4
16	16	6
0	0	12
24	24	10
21	29	2
105	114	4
42	43	7
30	30	12
55	65	2
122	123	8
66	66	2
30	32	2
44	45	6
8	9	6
128	128	10
122	124	2
129	130	5
31	32	6
78	79	5
6	9	1
115	116	4
71	109	5
7	11	5
44	46	4
12	13	4
50	51	9
88	88	4
89	90	1
26	39	4
70	71	9
121	122	2
71	76	3
31	31	7
62	62	8
110	122	1
2	3	5
119	119	12
85	97	2
57	58	1
5	32	4
51	52	1
101	118	1
16	17	3
31	33	2
118	118	4
20	27	2
25	40	1
64	78	1
55	56	1
28	28	7
127	129	3
21	26	3
28	29	1
11	11	5
98	100	4
62	63	9
99	100	5
87	88	1
52	107	2
83	85	3
18	25	2
6	7	3
67	79	5
97	101	3
82	82	3
131	131	8
47	61	1
68	69	5
113	114	11
84	84	7
64	126	5
71	105	6
6	12	1
68	107	3
65	65	5
15	16	5
73	119	1
18	19	3
92	93	2
51	70	1
39	39	14
58	66	1
100	101	5
127	128	3
51	53	1
114	115	1
33	37	2
39	40	3
12	26	2
40	41	1
6	31	1
52	53	7
61	61	8
123	124	2
64	64	3
124	128	1
13	16	1
41	42	2
112	112	4
47	58	2
105	113	2
97	103	2
31	65	1
63	75	4
66	78	1
94	95	2
64	86	1
79	80	2
15	18	1
102	115	3
21	24	1
18	24	1
84	92	1
75	78	2
55	58	1
128	129	4
27	29	1
0	54	2
3	61	4
118	125	1
51	85	2
116	116	4
31	45	1
17	25	1
119	120	2
106	106	10
72	79	3
104	105	5
113	116	1
6	8	2
12	20	2
12	27	1
115	119	1
71	92	1
88	89	1
107	108	4
125	127	2
67	80	2
131	132	1
26	33	1
9	57	1
118	120	2
83	90	2
124	131	1
8	8	9
126	127	2
93	94	2
111	113	2
56	69	2
102	104	2
19	20	4
60	61	2
7	9	2
23	25	3
65	66	2
5	24	1
2	87	3
6	23	1
69	94	2
92	95	2
58	61	2
1	54	1
18	22	2
77	115	3
117	123	1
112	113	1
7	12	1
12	28	2
47	96	2
56	113	1
6	60	1
58	82	2
38	38	2
5	33	1
123	132	1
132	133	1
15	86	2
77	78	1
110	111	1
10	11	1
103	104	1
67	68	2
114	116	2
99	101	1
126	128	2
71	88	2
126	130	1
73	73	2
51	55	1
69	88	1
22	23	1
69	109	1
116	118	1
14	17	1
24	25	1
10	12	1
56	57	1
10	56	1
64	85	1
0	89	1
48	53	1
21	22	1
