159	161	4
150	150	26
188	188	13
145	145	22
118	118	4
174	174	5
10	10	10
17	33	5
162	162	24
41	41	33
124	124	24
187	187	15
160	182	4
5	5	6
42	42	11
178	180	3
3	7	2
100	100	33
154	156	1
27	27	18
0	0	8
16	17	6
157	157	8
134	137	4
39	39	7
41	42	4
196	196	17
31	31	16
182	183	10
98	151	3
38	38	16
13	13	21
194	194	16
176	177	13
21	21	5
167	167	21
122	122	15
115	115	9
28	30	3
161	162	8
30	31	11
137	137	9
141	141	14
87	87	4
177	178	4
52	54	2
186	186	16
153	153	8
40	42	5
102	102	9
97	144	3
121	121	14
57	57	21
79	79	18
98	99	5
171	171	19
19	19	15
141	142	11
2	2	8
155	155	20
165	166	4
99	99	9
54	55	6
112	112	15
41	67	1
43	43	12
189	189	23
160	160	25
154	155	10
78	78	11
45	51	2
86	86	15
23	24	16
192	193	8
163	163	16
58	58	12
143	143	2
191	191	17
49	49	16
186	190	4
36	36	9
25	26	4
114	114	17
164	166	5
129	129	12
115	141	1
27	34	4
103	103	5
98	111	2
195	195	19
181	181	5
14	14	5
21	22	1
89	89	12
46	46	14
20	20	4
126	126	8
3	3	8
8	9	4
68	68	12
142	142	7
175	175	7
45	54	1
17	17	17
45	45	19
50	50	7
119	119	16
113	113	12
112	196	2
0	1	10
25	25	29
144	145	1
161	161	10
151	151	15
193	193	12
118	129	3
54	54	6
16	22	3
104	104	6
172	172	18
105	148	1
180	180	10
132	133	6
159	159	14
102	104	3
107	107	4
161	174	4
152	153	3
64	77	2
6	31	2
156	162	4
25	31	2
130	149	1
100	113	1
166	166	12
39	40	15
190	190	18
188	190	4
24	24	15
118	141	5
17	18	1
51	51	7
55	56	7
154	154	2
190	191	4
156	157	7
140	140	17
1	2	4
147	147	11
123	123	20
26	27	5
98	108	3
80	80	4
142	149	3
95	95	5
67	68	4
16	38	1
194	195	3
62	75	1
66	66	4
100	112	4
145	146	3
170	170	20
146	147	3
52	52	17
184	189	2
164	164	20
50	51	2
166	172	2
119	129	2
37	37	4
171	172	14
136	136	16
38	44	6
123	124	2
38	61	3
169	169	17
43	44	11
176	176	20
34	36	4
8	21	4
139	148	3
63	73	3
113	115	7
33	36	4
97	101	2
132	132	7
63	63	4
146	146	15
30	30	12
35	35	11
144	156	3
177	177	20
155	156	7
156	156	14
117	117	8
183	183	20
170	187	3
179	180	2
111	111	7
162	164	5
139	139	4
110	110	11
47	47	14
44	45	8
1	1	5
102	103	9
168	169	5
148	148	9
131	135	5
16	18	3
178	182	4
71	72	5
179	179	6
12	13	2
20	24	2
149	150	7
156	182	3
70	70	6
195	196	3
46	47	3
162	172	2
32	32	7
16	16	12
128	128	12
31	32	8
96	97	2
77	77	13
38	43	4
37	142	3
106	107	5
99	150	2
23	23	15
167	178	3
125	126	3
8	8	4
53	55	3
25	27	8
169	170	5
131	131	5
105	107	3
19	36	1
176	179	3
184	184	10
48	48	10
53	70	1
11	11	8
139	140	2
35	36	4
129	130	10
20	23	4
78	79	4
73	73	4
80	81	1
84	84	3
119	149	3
9	10	11
35	143	1
65	82	5
144	144	6
103	147	1
127	127	17
34	35	2
177	179	3
165	165	5
48	49	2
40	40	12
57	58	6
42	43	2
76	76	5
106	106	9
37	38	4
185	185	7
101	101	9
175	181	3
185	186	8
165	172	4
27	31	5
182	182	10
145	155	1
44	44	7
23	56	1
152	152	9
142	147	1
187	194	1
116	140	1
162	181	2
88	118	2
148	170	2
172	182	3
149	149	5
135	136	15
4	8	2
36	40	4
130	130	3
168	170	2
136	137	2
112	149	1
3	31	3
186	188	2
103	104	4
176	178	6
134	134	10
88	88	2
108	109	3
59	64	2
142	144	3
64	64	6
50	52	3
13	14	2
191	192	3
55	55	9
98	107	1
111	150	3
27	151	2
19	25	4
119	120	6
83	83	5
53	54	4
192	192	7
158	158	6
15	15	4
65	75	1
187	188	8
126	127	3
105	158	4
15	33	1
196	197	4
168	168	11
11	23	2
90	90	2
102	107	2
160	183	7
138	138	16
27	28	2
72	72	11
37	43	1
133	133	8
33	33	5
59	63	1
124	125	6
59	80	1
109	109	8
97	97	1
147	154	3
137	138	8
120	120	15
135	135	6
78	81	3
82	83	9
189	190	6
139	143	2
8	33	1
183	184	2
89	90	10
163	164	6
7	7	7
177	190	1
56	56	10
183	185	3
112	113	1
113	114	2
162	163	7
38	66	3
197	197	7
64	65	4
165	180	3
165	167	1
32	33	1
153	155	1
178	178	6
119	125	1
36	37	2
3	103	1
127	128	1
53	53	7
143	144	4
28	28	7
101	111	3
26	96	2
66	68	2
140	148	2
8	11	3
11	149	2
184	185	4
132	134	8
47	136	1
58	69	3
11	12	4
121	122	5
4	4	8
122	128	2
6	12	2
186	187	4
170	171	5
69	71	1
122	123	7
33	34	8
172	173	1
138	140	3
71	71	7
52	129	4
56	57	2
20	38	3
15	16	3
42	66	2
11	13	2
158	161	2
23	57	1
110	111	3
68	73	1
23	33	1
93	93	1
3	43	1
191	193	1
87	88	6
61	62	3
24	25	2
33	37	1
7	21	2
22	24	3
3	4	6
140	177	2
101	102	5
178	179	5
29	29	10
90	118	1
163	176	1
11	16	2
134	135	4
193	196	1
146	175	1
152	180	1
24	29	1
146	182	2
148	156	2
26	26	7
77	85	2
74	74	6
15	38	3
26	28	3
100	101	7
64	74	2
9	21	3
120	125	3
18	18	3
159	160	3
75	76	4
134	136	3
86	88	4
86	87	3
133	134	1
36	39	2
167	168	4
26	29	1
16	39	2
22	23	1
49	50	1
163	165	2
179	183	1
6	6	5
150	153	2
123	127	1
118	139	1
164	173	5
115	123	3
116	116	8
6	22	1
144	154	1
105	106	5
93	94	1
109	110	2
16	33	1
73	74	2
100	142	1
165	173	1
176	183	2
16	37	2
45	46	5
42	44	2
29	58	1
75	75	1
9	41	1
114	115	8
65	74	1
44	73	1
34	34	3
179	181	2
153	154	7
149	194	1
8	10	1
69	69	4
99	151	2
102	112	1
64	73	1
193	194	2
166	177	2
140	141	2
59	75	2
12	12	5
70	71	1
0	2	5
98	154	1
94	97	1
18	24	2
19	22	2
85	90	3
130	135	5
161	165	2
176	182	2
103	116	2
10	11	2
58	59	1
59	59	3
2	3	9
45	130	2
107	108	1
8	15	1
84	85	3
114	116	1
146	173	1
144	157	4
18	19	2
82	84	3
58	79	2
119	121	1
148	151	1
38	39	4
180	181	1
57	59	3
94	94	4
98	102	1
147	157	1
181	182	2
98	110	3
166	190	1
89	117	1
151	170	1
11	38	4
175	176	1
156	163	1
160	166	3
3	14	3
53	61	2
29	30	3
20	22	1
113	121	2
107	109	1
139	177	1
151	152	5
130	131	4
20	25	1
170	185	1
30	157	2
101	106	2
149	193	2
169	174	2
5	6	2
169	187	1
143	145	1
29	31	2
163	179	2
116	117	1
24	28	1
152	191	2
145	182	2
122	127	5
115	140	1
47	48	2
174	176	2
39	66	1
113	116	1
114	138	3
82	82	2
3	5	1
44	46	1
157	161	1
113	120	1
163	167	3
19	23	1
22	22	4
169	186	1
9	9	3
142	143	2
130	156	1
141	177	1
177	182	1
23	34	1
3	41	1
157	158	1
164	165	1
164	172	1
117	148	1
4	5	2
150	194	2
18	69	2
52	53	1
27	148	2
40	66	3
112	114	1
11	33	1
163	168	1
147	174	1
85	86	2
67	67	1
120	121	2
148	158	1
28	31	1
4	32	1
23	36	3
148	149	1
15	32	2
184	187	2
101	196	1
46	136	1
72	73	1
154	161	1
125	125	3
37	39	2
165	168	1
42	67	1
153	158	1
2	4	1
46	51	1
102	105	1
138	173	1
120	123	1
77	78	1
44	54	1
0	32	1
18	23	1
143	148	1
188	189	1
13	32	1
138	139	1
6	7	2
108	165	1
115	119	1
130	139	1
145	148	1
111	113	1
95	147	1
88	93	1
81	81	1
15	27	1
190	192	1
9	14	1
98	98	1
166	178	1
8	17	1
22	34	1
107	113	1
8	14	1
17	39	1
56	72	1
96	96	1
97	98	1
133	135	1
108	110	1
4	18	1
161	163	1
40	41	1
