162	162	6
21	21	1
101	101	1
147	147	5
178	178	4
181	182	5
46	46	10
20	20	8
150	196	3
8	8	1
78	78	4
34	34	6
1	1	5
15	16	1
24	25	3
32	32	2
127	127	3
181	181	2
2	2	4
180	180	4
113	113	5
43	43	9
161	164	1
11	11	6
174	174	2
58	68	2
188	188	4
159	159	7
53	53	7
145	147	3
106	106	4
50	50	2
184	185	1
0	0	5
18	18	3
172	177	3
39	62	1
121	121	5
177	177	5
47	47	3
99	143	5
122	122	6
7	7	5
117	184	5
164	164	2
180	181	7
167	167	5
135	136	3
150	150	3
161	161	5
182	187	4
191	191	1
22	33	3
145	146	4
45	45	2
184	184	4
135	135	2
54	54	2
143	143	4
105	138	1
189	191	3
59	67	2
155	156	1
191	192	2
181	192	2
9	11	2
135	137	3
36	37	3
156	160	4
131	132	2
158	158	3
170	173	3
103	104	2
60	66	1
142	145	3
120	120	2
118	118	3
1	2	1
141	168	1
130	131	2
12	12	2
183	184	1
29	29	2
193	194	2
97	119	1
143	157	1
170	189	2
108	109	3
170	172	1
10	10	2
1	18	2
147	172	1
19	19	5
134	137	4
115	152	2
195	195	3
154	155	2
153	154	1
40	41	1
98	99	3
187	187	4
160	161	1
20	26	2
138	139	3
27	28	1
138	138	3
26	26	3
84	87	1
154	154	3
165	165	4
149	149	2
45	46	2
134	134	8
17	17	2
103	103	5
168	168	3
110	110	3
157	158	1
192	192	2
76	76	8
160	160	4
169	169	5
31	31	2
149	150	2
77	104	1
110	111	1
9	9	1
44	44	3
102	105	1
186	187	3
5	5	2
1	29	1
142	142	2
0	5	6
20	24	4
178	179	2
115	116	7
97	97	1
151	156	2
102	102	5
129	129	4
6	19	1
88	89	1
68	68	2
85	86	6
15	15	2
142	169	1
139	139	4
77	77	1
21	22	1
24	27	2
111	111	2
154	173	2
54	55	4
182	182	3
94	129	1
3	10	2
95	96	2
182	194	1
22	23	2
64	65	2
113	115	3
36	157	1
157	157	2
29	30	2
39	67	4
136	136	1
125	125	1
126	126	2
72	72	3
65	65	1
103	116	3
74	83	2
146	146	7
4	4	1
175	178	1
71	71	5
97	99	2
13	13	1
130	130	1
5	10	2
40	61	3
145	145	4
69	72	1
67	67	1
197	197	3
132	133	2
156	156	1
8	97	1
196	196	1
40	58	1
59	70	2
5	11	1
165	189	3
141	181	1
134	135	3
187	188	2
99	99	2
185	187	4
146	176	1
166	166	1
120	121	1
87	87	2
138	144	2
192	194	1
193	193	1
148	148	2
100	100	2
124	124	1
195	196	1
62	63	1
109	109	1
105	140	1
43	44	1
105	105	2
41	42	1
121	122	1
94	94	2
100	101	1
3	21	1
133	133	1
186	186	1
140	156	2
112	151	1
178	187	2
147	148	2
27	27	1
35	35	1
144	145	1
46	52	1
9	10	1
140	140	3
21	23	1
179	179	1
153	153	2
155	155	1
190	191	1
14	14	1
104	134	1
89	90	1
50	51	1
124	125	1
147	152	1
95	95	1
156	157	2
119	119	1
75	85	1
156	180	1
155	158	1
39	39	1
40	40	1
76	105	1
176	185	2
143	144	1
151	152	1
161	162	1
