119	119	14
59	59	11
160	160	17
41	41	9
71	71	9
129	129	23
162	162	4
167	167	17
134	137	5
173	174	5
153	153	13
48	48	18
155	157	3
156	156	18
152	153	18
189	189	15
171	171	14
141	141	17
192	192	9
14	14	14
144	144	13
126	127	8
30	30	11
115	117	6
146	146	17
117	117	12
89	89	4
97	97	15
53	57	4
155	155	17
0	0	9
151	151	8
132	132	12
66	66	17
176	176	14
57	57	16
31	68	2
72	73	10
139	139	10
152	181	2
78	78	14
176	177	18
165	172	2
147	148	4
164	169	1
159	159	20
155	158	4
95	95	6
101	101	4
193	193	24
126	126	6
154	154	25
87	88	7
11	13	6
171	172	4
131	132	3
149	149	20
185	186	9
64	64	3
32	33	3
150	151	4
188	188	20
147	147	19
125	125	6
186	186	14
2	5	4
143	143	15
188	192	1
107	107	13
123	123	5
102	106	2
144	168	3
164	164	9
195	195	16
87	87	8
142	149	4
73	155	2
134	134	12
182	183	9
29	29	6
35	35	12
190	190	31
51	51	13
0	6	3
157	158	11
163	163	5
1	1	23
175	175	12
74	74	9
25	27	2
33	33	11
63	63	15
95	96	5
93	93	12
172	172	8
121	122	2
36	37	10
94	95	6
46	46	7
124	124	14
187	188	6
4	4	15
31	31	9
114	115	5
44	44	5
34	34	18
38	38	3
27	33	1
141	142	4
184	184	13
156	157	6
161	161	15
137	157	5
96	96	12
130	133	1
55	55	7
152	152	5
166	166	9
136	147	3
179	181	2
81	81	9
2	2	12
115	152	5
139	140	5
188	191	4
142	142	12
194	194	6
84	132	1
112	112	12
174	175	2
83	84	5
11	11	3
173	173	10
105	105	17
165	165	18
82	83	9
104	104	2
72	72	7
186	188	1
108	110	1
69	71	2
41	43	5
22	22	7
140	140	12
157	160	2
119	120	7
45	45	8
0	1	7
100	100	18
131	131	12
148	148	6
9	10	4
185	185	15
110	111	4
101	102	4
18	18	7
169	171	9
170	170	11
58	75	2
3	4	1
28	28	11
189	190	11
50	51	14
111	111	7
39	39	10
145	145	18
157	157	9
42	42	7
65	65	8
52	65	5
52	52	22
178	178	18
40	41	2
133	133	20
80	110	4
137	141	3
0	24	3
7	17	4
164	174	2
168	168	11
187	189	3
135	135	28
141	148	3
183	183	17
15	15	7
181	181	14
100	101	6
119	140	3
112	113	3
182	182	17
46	47	5
61	61	6
103	103	8
178	179	3
128	128	8
174	174	10
10	10	18
20	21	14
49	49	13
6	21	2
53	53	3
137	137	15
150	150	11
121	131	4
47	47	17
85	130	3
158	159	9
25	60	7
110	110	11
59	61	1
140	147	2
42	44	2
37	37	9
55	63	3
114	114	7
24	24	5
188	189	8
50	50	12
19	19	10
140	141	2
121	121	2
169	169	21
144	147	6
161	162	2
157	190	1
94	94	9
79	79	9
88	89	7
41	42	2
25	25	20
190	191	4
143	148	4
177	179	1
68	68	4
83	83	9
116	118	5
104	106	5
179	179	8
130	131	3
170	171	9
182	196	3
113	115	5
102	102	10
160	171	3
26	163	2
127	134	1
82	82	17
188	193	2
187	187	7
111	128	4
59	60	6
191	191	19
196	197	11
133	135	3
7	8	10
12	13	5
158	158	10
47	48	4
160	163	1
170	184	4
8	8	6
181	182	6
23	23	10
166	168	7
136	136	20
8	15	6
78	80	1
135	136	4
111	112	8
142	148	3
113	113	11
76	76	4
1	4	3
9	9	16
109	109	11
11	12	6
176	178	3
169	170	2
17	17	10
113	114	4
90	90	2
111	130	3
116	116	9
34	56	2
69	70	2
76	77	5
186	187	5
134	151	1
56	56	4
57	58	4
12	12	16
80	80	4
168	169	1
115	115	10
52	53	2
143	144	2
4	23	4
196	196	16
180	182	3
51	52	4
65	68	3
127	127	14
124	130	6
180	180	11
0	2	4
30	64	2
146	148	2
187	190	1
86	112	7
183	184	8
146	160	1
16	16	7
42	54	2
13	13	12
74	76	2
85	86	1
149	150	2
19	41	1
197	197	20
12	14	2
110	119	7
26	192	1
155	177	7
54	54	3
163	164	6
69	69	8
155	178	2
25	26	5
145	146	3
194	195	3
30	192	3
184	186	3
5	5	13
1	2	3
84	84	4
122	123	4
175	177	2
106	106	9
43	44	8
112	120	3
16	17	8
39	70	1
191	192	2
192	193	7
58	58	14
26	166	6
6	6	15
85	85	1
150	154	2
0	3	2
157	180	1
3	5	1
10	11	3
146	165	3
163	178	1
86	87	1
120	120	9
133	134	3
7	7	9
134	143	2
177	177	4
3	40	2
115	118	2
54	55	4
138	139	9
89	90	11
170	172	4
79	80	4
45	71	1
64	65	3
105	107	1
84	85	2
29	192	6
106	108	2
28	29	4
125	127	2
147	173	3
162	188	2
60	60	4
158	160	2
108	108	7
39	40	5
86	86	5
4	170	1
118	145	2
77	78	3
117	118	5
125	126	1
10	49	3
22	26	2
90	94	5
20	22	1
37	38	4
106	107	2
32	69	1
17	18	2
154	181	2
120	121	2
16	18	1
26	59	2
48	49	1
99	100	5
172	175	2
33	38	2
161	165	1
116	117	2
101	107	2
122	122	8
16	20	2
27	27	5
31	32	2
30	190	2
32	32	6
8	9	7
31	37	1
101	103	5
24	25	4
102	110	1
121	162	1
10	13	6
18	19	2
172	173	6
25	166	1
138	138	5
21	21	10
2	42	2
36	36	11
112	160	2
127	128	1
31	193	2
118	118	11
3	3	6
178	192	1
165	166	6
126	149	1
154	155	4
70	72	1
2	4	2
167	170	3
138	157	3
67	67	3
180	181	2
34	35	2
175	179	1
162	164	1
5	7	2
14	178	1
2	3	3
162	163	3
130	130	2
139	178	2
45	46	1
2	16	1
168	186	2
109	111	4
179	180	1
163	167	1
146	147	2
173	176	1
130	159	2
62	62	4
73	73	2
98	98	3
0	25	3
143	145	2
39	51	3
32	39	1
151	152	3
135	143	1
156	179	2
190	192	3
123	128	1
4	27	1
182	184	3
147	175	3
128	129	1
144	145	2
170	185	1
178	182	1
143	147	2
70	71	3
124	125	1
40	40	2
157	161	1
158	172	1
26	26	2
118	119	1
35	43	1
11	14	2
104	128	1
156	158	2
158	161	1
105	106	2
155	156	1
43	43	6
28	193	2
187	193	2
149	187	1
136	151	1
24	166	2
44	45	1
139	158	3
31	69	2
146	166	1
159	180	1
39	41	2
99	101	1
28	31	1
148	149	3
10	14	1
183	185	1
58	59	1
31	33	1
71	72	5
84	134	1
30	31	2
38	71	1
99	99	3
195	196	1
109	110	2
78	79	1
85	88	1
103	107	1
169	192	1
167	168	2
155	166	1
119	156	2
53	55	1
119	121	2
179	182	2
64	70	1
146	149	1
103	104	2
44	55	2
17	19	1
132	134	1
46	48	1
87	114	1
126	148	1
80	81	1
145	161	1
40	42	1
142	145	1
80	83	2
111	160	2
18	20	3
125	183	1
85	132	3
148	152	1
6	8	1
1	5	2
141	144	1
157	159	3
137	139	2
5	27	2
146	173	1
177	178	2
100	103	2
27	28	2
131	143	1
23	24	1
44	49	1
133	150	1
97	98	1
86	89	1
104	105	2
7	9	1
140	157	2
113	138	1
2	22	1
5	6	1
189	191	1
4	10	1
136	137	2
168	191	1
123	158	2
46	75	1
13	78	2
163	173	1
29	30	4
183	188	1
177	180	1
130	132	1
25	30	1
77	77	1
114	135	1
9	14	1
64	66	1
88	90	1
44	46	1
23	33	1
161	183	1
159	160	2
23	25	1
144	172	1
98	99	1
149	175	1
131	133	1
81	83	1
67	68	1
121	144	1
158	162	1
20	41	1
135	137	1
13	15	1
36	38	1
167	171	1
22	34	1
142	143	1
112	126	1
