65	65	13
85	85	17
151	151	5
47	47	10
10	52	3
37	118	2
69	69	10
78	79	6
14	14	23
121	136	1
107	107	5
23	23	15
79	98	2
120	120	13
7	7	4
102	102	3
118	118	17
46	46	7
8	8	10
73	97	1
54	68	3
99	99	12
11	16	3
81	83	5
87	87	12
4	8	3
131	132	3
58	58	6
24	24	5
64	65	12
12	12	16
75	82	3
73	75	1
135	135	5
135	139	5
130	130	5
72	74	4
20	21	8
108	108	4
113	114	9
142	142	5
66	66	17
64	64	5
125	128	3
145	146	4
25	26	4
49	49	6
144	144	5
9	9	16
17	17	16
84	84	5
82	82	11
106	106	6
121	138	3
63	66	3
9	27	2
17	18	4
41	44	1
76	76	4
35	35	10
8	9	4
103	103	7
97	98	7
124	126	9
53	79	1
104	107	1
30	30	12
27	27	4
116	117	6
116	119	2
45	45	5
57	57	8
25	35	3
122	123	4
26	33	3
9	46	1
80	83	6
146	146	5
39	39	10
57	58	3
123	130	1
108	110	7
17	29	4
78	82	1
138	139	4
6	11	2
31	32	6
71	71	10
110	110	5
107	136	4
33	33	14
9	16	1
51	54	2
8	29	1
128	128	12
27	82	3
74	76	2
47	50	2
69	71	2
80	80	9
21	21	10
4	4	4
6	10	2
42	42	9
30	31	3
67	118	3
134	134	5
77	78	4
141	142	4
63	64	6
132	134	1
75	134	4
109	110	5
128	132	1
78	78	2
52	53	4
47	54	2
34	38	3
143	143	5
22	22	14
114	114	9
94	95	6
18	19	9
77	100	4
97	105	5
50	50	13
15	15	9
63	63	4
3	4	2
149	149	19
81	81	11
104	117	2
95	97	3
129	129	10
10	10	10
71	81	1
122	122	5
43	45	1
70	71	11
51	51	4
138	138	6
36	36	6
75	75	7
127	149	3
137	137	7
30	32	2
83	93	1
63	68	2
124	124	9
95	95	5
43	44	3
136	139	3
145	145	7
80	85	1
113	113	5
74	103	2
34	34	6
76	78	6
97	97	18
90	90	7
82	94	2
94	94	10
96	116	2
148	148	11
17	26	2
14	16	4
136	137	5
100	100	6
6	31	3
20	20	16
46	114	3
45	46	5
116	116	11
68	73	3
133	134	3
124	127	6
73	73	10
26	26	3
79	79	13
25	27	3
41	41	8
51	52	2
68	68	13
16	16	12
48	49	3
68	79	4
77	77	15
95	96	8
74	80	2
72	73	3
36	57	2
22	23	3
79	100	3
25	118	2
119	119	6
48	48	11
84	85	4
10	41	2
32	34	7
37	38	2
122	129	2
146	148	3
140	141	1
19	19	15
55	55	6
120	122	6
127	128	3
64	66	4
131	133	2
39	42	1
35	38	1
9	17	2
66	67	4
29	29	5
36	37	2
122	149	1
31	31	8
144	145	6
153	153	2
51	57	3
19	20	2
3	26	1
85	101	2
94	96	5
6	6	7
13	13	10
39	56	4
67	67	9
45	63	1
137	138	4
71	83	2
132	132	5
85	86	4
130	139	2
123	123	6
38	38	12
40	46	1
104	104	7
150	150	4
143	145	3
99	122	1
43	54	1
37	37	6
82	117	1
3	25	2
6	47	5
84	87	1
133	133	14
40	42	1
11	11	3
55	56	2
70	70	6
83	83	9
64	67	4
23	24	3
101	101	1
75	122	5
126	127	2
3	29	1
12	13	1
9	64	2
132	133	2
93	95	1
131	131	5
67	117	1
24	26	2
54	54	8
5	5	3
15	16	3
122	134	3
28	29	2
79	80	3
84	86	3
5	8	5
38	47	3
96	100	5
16	17	3
127	136	1
6	15	1
62	63	4
40	41	2
100	101	1
75	90	3
53	53	12
110	114	1
52	52	2
43	43	10
35	50	2
82	83	3
136	136	3
120	131	2
75	76	10
143	144	2
102	106	2
146	147	1
147	147	3
39	47	1
41	53	1
115	115	5
68	81	1
47	49	2
68	69	1
74	115	1
17	39	2
41	43	1
48	54	1
7	13	1
33	36	1
131	140	6
38	39	7
80	81	1
56	56	4
127	129	1
123	126	2
28	28	2
69	70	3
6	8	3
5	6	1
120	121	1
119	130	2
106	113	2
24	29	1
144	146	6
17	19	1
81	82	3
39	40	3
138	146	2
45	47	1
45	71	1
30	67	4
41	67	3
110	136	1
98	98	7
24	67	1
109	114	1
131	138	1
31	96	2
72	72	5
25	97	1
68	70	2
93	93	3
139	143	2
106	107	4
95	104	2
76	94	1
141	141	3
68	80	1
25	32	1
25	34	1
21	23	4
54	55	2
8	27	2
147	148	1
7	31	2
92	102	1
128	147	2
121	121	3
123	125	1
9	10	1
77	79	1
83	84	5
11	13	3
104	105	1
36	52	1
76	134	1
50	54	2
152	153	1
27	28	3
108	111	2
73	115	2
57	87	1
109	109	3
139	139	5
48	50	3
86	101	2
4	5	4
27	30	1
20	128	1
6	32	2
112	112	3
114	140	1
6	37	2
154	154	3
30	118	2
75	79	2
106	109	2
74	79	1
76	77	1
41	54	2
152	152	7
28	80	1
86	86	4
105	108	2
32	35	4
149	150	5
105	105	3
138	140	1
95	103	2
27	29	1
17	27	1
33	35	2
73	94	1
56	57	2
35	36	2
44	45	2
92	97	2
62	64	1
137	139	2
105	106	1
44	44	2
43	53	1
112	113	1
4	6	2
33	34	1
139	142	1
38	50	1
107	111	1
13	17	2
32	32	6
140	140	4
44	47	1
27	81	1
109	142	1
104	115	1
13	33	2
141	145	2
39	50	1
65	67	1
29	67	1
139	140	1
96	96	3
42	43	2
17	22	4
103	113	1
37	40	1
9	29	1
43	66	1
65	102	2
87	93	2
10	63	1
20	23	1
29	30	1
64	68	2
75	77	2
22	129	2
123	129	1
111	111	2
110	111	1
140	142	1
92	93	1
92	92	1
6	7	1
125	125	3
32	33	2
13	14	1
14	15	1
18	18	2
27	31	1
78	81	1
102	105	3
102	103	1
62	66	2
95	98	1
105	111	2
77	93	1
142	143	2
10	62	1
123	133	2
42	46	1
43	47	1
6	13	1
13	34	1
15	21	1
51	53	1
29	80	2
71	80	1
73	103	2
103	112	1
123	124	2
104	114	1
10	30	3
128	129	1
73	82	1
28	67	1
24	79	2
2	3	1
69	85	1
121	127	1
3	5	1
32	42	1
22	124	1
124	132	2
117	118	1
117	117	1
26	32	1
74	74	1
127	137	1
4	16	1
27	32	1
75	112	1
19	22	1
94	101	1
26	27	1
