28	28	10
102	102	22
40	40	4
67	67	8
66	66	14
25	25	28
107	107	1
20	20	15
85	85	4
92	92	17
49	51	3
23	23	3
27	27	17
99	101	3
96	96	13
100	100	29
29	32	4
84	85	6
27	28	13
39	39	6
30	33	5
111	111	13
101	101	6
106	106	17
36	37	3
67	68	7
113	114	8
104	105	6
78	78	10
49	49	16
35	35	8
52	52	14
61	61	10
30	74	6
54	70	5
24	25	4
88	88	9
90	91	9
98	100	8
75	75	4
97	98	4
19	19	6
26	26	12
36	36	6
22	22	9
59	60	9
46	63	2
70	71	8
46	55	5
21	21	1
61	63	2
44	44	15
32	36	10
108	109	6
78	79	8
57	58	2
59	59	10
43	44	7
38	38	7
91	91	15
46	73	2
85	109	5
46	54	4
76	76	16
96	97	5
32	33	1
87	94	4
63	63	6
112	112	11
41	41	8
57	57	5
109	110	7
47	51	3
73	74	8
46	46	14
50	50	6
55	68	4
29	29	14
56	56	8
110	110	8
51	51	4
95	95	12
90	96	2
34	34	6
88	91	3
82	83	3
78	81	1
50	51	11
64	64	18
80	87	4
78	106	10
100	106	2
21	22	3
87	88	2
22	23	3
103	103	5
105	106	7
80	93	1
58	58	11
47	47	6
76	77	2
106	107	6
30	30	8
85	86	1
24	24	14
77	82	7
48	48	11
79	79	10
89	89	4
100	107	3
113	113	5
47	49	3
100	101	4
23	26	2
90	93	4
85	95	9
84	96	1
88	89	2
46	52	2
42	42	4
55	56	7
69	69	8
87	87	10
33	35	2
48	49	7
49	73	1
97	97	5
81	81	7
40	67	1
35	36	4
84	86	2
114	114	4
44	45	8
79	80	2
104	104	4
99	99	6
98	99	3
42	69	3
74	75	3
105	110	1
103	104	10
96	98	2
32	32	1
57	72	3
64	66	3
52	53	1
68	69	10
90	90	2
53	58	1
101	102	9
68	68	4
60	60	3
43	43	9
37	40	1
38	39	10
53	53	4
53	54	7
70	70	2
71	71	3
46	50	2
103	105	8
30	34	3
77	88	1
29	30	4
46	59	4
72	75	3
83	84	1
66	67	6
72	91	2
93	94	13
82	88	2
73	73	4
74	91	1
32	35	1
82	84	3
49	92	3
45	45	17
78	99	5
23	27	5
34	36	2
59	62	2
84	84	5
94	104	4
57	62	3
23	24	5
88	90	1
75	91	3
56	62	3
62	66	1
86	86	2
51	60	2
69	73	2
77	89	2
74	74	4
75	76	4
32	71	6
48	51	3
83	83	2
46	60	2
72	72	2
54	62	3
56	57	2
87	91	2
87	92	2
111	112	1
82	85	1
46	51	1
72	73	3
24	35	2
31	31	5
47	48	2
112	114	1
88	94	1
69	70	2
53	59	1
86	87	2
71	72	3
79	100	3
105	111	1
32	34	3
95	104	1
32	37	2
98	98	3
64	68	1
95	97	1
61	65	2
74	76	2
55	55	3
65	65	4
107	108	1
102	106	3
94	103	1
28	33	1
58	59	2
43	47	4
62	68	1
31	71	2
93	93	2
104	106	1
80	80	1
24	27	3
40	41	1
33	36	2
83	85	1
112	113	2
68	71	1
33	34	1
67	73	1
89	90	1
53	60	1
94	94	2
88	96	1
47	65	2
105	105	1
46	61	1
37	38	2
103	107	1
77	79	1
77	77	1
40	42	1
114	115	1
78	80	1
81	93	1
24	34	1
37	77	1
61	66	1
