20	20	3
188	189	2
164	165	3
90	90	5
112	112	5
16	16	4
105	105	1
151	151	6
87	87	2
129	132	4
55	73	4
152	153	2
124	124	1
95	111	4
22	22	2
102	102	8
154	154	11
98	98	2
142	143	2
9	9	7
99	100	6
42	42	3
35	35	7
127	127	9
172	172	3
137	137	5
129	150	4
29	32	4
145	145	2
162	162	7
17	21	2
57	74	4
148	148	6
39	39	5
21	21	2
171	178	3
138	139	3
158	159	4
109	110	5
187	187	4
87	92	3
126	126	3
185	185	3
152	152	3
107	107	4
95	95	9
128	128	1
122	122	2
38	38	5
10	10	3
130	146	2
149	149	4
6	6	1
163	163	6
33	35	4
75	75	6
174	174	6
27	68	1
75	96	2
115	117	2
176	183	2
147	147	1
97	99	5
77	77	2
101	101	3
101	102	2
18	19	3
12	28	2
36	37	2
106	107	3
2	2	1
95	96	2
31	31	1
93	113	1
56	56	4
45	101	5
156	156	1
19	20	2
3	3	2
59	59	9
134	134	2
129	129	1
77	78	1
30	44	2
97	97	3
153	153	2
23	24	3
24	24	4
96	97	4
92	92	2
17	40	2
113	162	2
120	120	3
15	15	2
71	71	2
109	109	1
41	42	2
169	169	3
106	106	2
146	146	2
88	88	1
18	18	4
44	48	2
141	142	1
146	154	3
47	103	1
48	48	2
146	153	2
115	115	3
93	93	1
107	126	5
53	53	2
72	107	2
0	0	1
149	150	1
67	67	3
82	82	1
161	161	2
17	22	1
133	133	3
160	160	2
89	89	1
68	68	1
7	7	1
178	180	2
63	63	4
113	149	2
62	67	3
59	63	5
113	115	1
121	122	2
183	183	1
113	122	3
110	110	1
158	158	1
123	123	3
83	89	1
170	170	2
100	101	5
28	28	1
42	48	5
8	8	2
58	58	1
79	79	3
190	190	2
142	142	2
164	164	3
1	1	1
94	94	7
70	71	1
96	98	1
138	138	5
57	99	2
186	186	4
180	180	1
166	166	3
29	33	1
90	93	1
47	47	2
17	17	3
109	112	1
22	23	1
30	30	2
130	149	2
111	111	1
72	115	1
145	146	2
6	7	2
13	34	1
103	103	1
117	118	1
31	32	1
84	84	2
41	41	3
149	154	1
55	55	3
88	128	1
91	91	1
46	47	2
163	165	1
140	141	1
99	99	1
171	171	1
176	176	2
141	152	1
58	64	1
104	104	1
2	5	1
182	183	2
28	29	1
66	66	1
97	100	1
92	93	1
117	117	1
86	97	1
140	166	1
121	121	1
60	61	1
141	143	1
128	152	1
142	152	1
