51	51	7
54	54	9
82	82	5
85	91	3
100	101	3
99	99	10
95	96	3
64	64	4
32	33	3
86	87	6
65	65	6
22	22	5
50	50	8
96	97	3
42	98	1
29	30	2
52	54	4
24	24	7
39	76	5
100	100	10
76	76	4
55	56	4
60	60	7
67	83	4
28	32	2
77	77	6
34	98	4
67	67	13
82	90	1
28	52	9
72	72	7
69	69	18
36	39	6
103	103	6
49	49	6
66	104	1
40	40	5
83	83	2
23	91	1
45	46	4
85	86	2
65	90	1
95	95	7
33	33	2
53	54	4
90	94	4
80	81	6
38	38	4
70	70	5
68	95	2
89	89	5
40	42	3
97	97	1
87	87	4
74	74	4
84	84	8
21	96	1
96	96	7
29	29	4
46	46	8
80	80	4
73	74	2
105	105	5
23	31	3
25	25	7
68	69	4
106	106	2
57	57	8
39	39	3
35	35	3
60	77	1
30	95	1
79	80	9
31	31	5
53	56	2
84	85	3
38	55	2
85	87	1
85	85	3
90	90	2
34	34	4
87	88	3
92	92	4
22	52	6
65	66	2
63	63	2
104	104	2
25	26	3
37	38	2
23	23	4
97	99	3
61	87	1
86	88	2
57	58	2
94	94	7
64	65	4
27	27	6
64	87	2
32	32	7
68	68	8
52	77	2
41	58	1
79	79	3
99	100	4
83	86	2
56	56	2
81	81	12
30	30	3
62	62	2
25	30	3
93	93	3
71	72	1
78	93	1
56	57	4
103	104	4
68	71	2
102	102	8
47	47	2
82	83	2
53	53	4
47	98	3
48	62	3
89	90	3
59	59	2
83	85	2
100	102	1
45	59	5
97	106	1
26	30	1
43	77	2
91	91	3
60	81	3
23	32	2
88	90	2
73	73	5
59	60	3
27	29	2
55	55	5
41	41	2
94	104	1
40	41	3
63	78	1
86	86	2
22	23	1
23	24	1
92	103	2
83	88	2
96	102	1
66	106	2
70	71	2
33	66	1
53	58	4
33	52	1
73	77	1
88	88	2
37	37	3
92	93	2
21	32	1
21	21	3
101	101	2
45	103	1
47	49	1
33	63	1
102	103	2
60	79	1
34	66	1
42	42	3
93	94	1
83	91	1
48	49	3
41	42	1
91	92	1
36	36	1
23	30	2
61	62	1
28	28	2
60	64	1
58	58	4
89	91	1
86	91	1
35	45	1
47	48	2
69	85	1
60	61	1
32	66	2
84	88	1
101	102	1
52	52	2
66	66	1
68	80	1
61	88	1
62	82	1
22	51	1
