205	205	2
202	205	1
202	202	2
61	61	7
66	67	1
187	237	3
221	223	2
196	196	8
237	237	5
12	12	5
10	10	6
23	64	1
210	210	1
206	206	7
32	32	8
57	57	5
244	244	13
239	240	6
243	243	3
184	189	5
162	163	2
49	213	1
30	31	4
204	204	13
56	89	6
16	16	6
185	185	6
116	117	2
226	226	18
105	105	9
152	153	4
247	248	4
177	177	4
172	172	3
80	80	1
8	8	12
216	216	10
157	176	3
150	156	2
149	149	2
179	192	2
115	116	2
6	6	9
18	19	2
180	180	4
42	42	4
21	21	10
108	108	5
118	118	3
58	59	2
104	105	1
1	1	4
23	31	3
106	106	4
17	17	6
114	114	13
224	240	2
48	49	2
79	80	6
63	63	2
3	4	3
157	188	3
119	119	13
94	95	3
117	166	2
212	212	6
97	101	1
7	7	7
48	48	4
217	218	3
214	231	2
108	144	1
56	56	6
74	74	5
13	14	2
105	114	2
89	89	1
152	165	2
66	69	4
198	198	11
13	19	1
108	236	3
227	228	2
60	62	2
111	147	1
186	193	3
162	164	3
99	99	7
164	164	3
66	66	6
86	86	5
24	24	8
30	30	4
60	60	3
78	84	2
161	161	6
222	223	2
6	7	3
96	96	1
193	193	4
46	57	2
105	106	4
231	231	3
118	247	2
36	36	3
169	171	1
92	92	3
57	58	2
187	187	2
236	237	3
96	97	10
20	45	1
186	186	10
228	228	3
49	76	2
178	178	6
207	220	2
166	166	3
27	27	5
238	240	5
41	41	1
173	201	5
23	23	8
229	229	6
15	49	1
39	41	2
240	240	5
28	46	2
175	175	4
166	167	3
163	168	1
60	61	1
31	32	5
76	77	1
182	183	2
160	160	6
188	188	1
117	117	7
242	242	9
189	236	1
29	75	1
238	239	3
35	35	3
239	239	3
34	34	8
83	84	2
191	192	2
214	215	7
110	110	3
75	75	4
22	22	6
190	191	3
144	145	1
78	83	2
169	169	7
39	39	5
23	42	2
82	98	2
67	67	10
172	201	4
193	194	4
71	71	6
104	104	3
76	76	6
62	62	2
121	121	2
53	54	4
248	248	6
163	163	4
175	244	1
7	10	4
33	33	4
101	101	4
87	89	1
170	170	5
114	155	3
183	230	4
211	241	3
201	217	1
75	86	4
23	28	3
29	30	3
178	191	2
15	16	4
210	211	1
15	15	8
85	85	3
153	153	7
150	150	4
224	224	10
218	218	3
82	82	4
213	213	5
44	44	4
246	246	6
88	88	10
87	87	7
181	181	6
2	34	1
199	199	1
2	3	2
5	5	3
7	207	3
38	39	4
98	117	3
201	201	9
218	219	5
77	79	2
153	168	6
159	159	8
5	209	4
50	50	1
214	214	3
213	214	3
230	230	3
243	244	2
53	53	5
219	219	6
47	70	1
159	186	2
197	197	7
152	152	5
4	4	2
221	222	2
20	20	7
49	49	3
221	226	4
190	190	4
241	241	8
77	78	3
221	221	2
31	31	2
198	199	3
93	94	1
64	64	7
163	164	5
185	186	3
144	152	1
194	194	4
158	177	2
118	119	1
88	116	2
179	226	1
168	168	10
11	11	5
173	173	5
84	90	1
235	235	1
155	155	8
162	162	5
29	29	5
75	77	3
52	52	3
47	47	4
194	200	3
29	72	2
111	111	3
225	226	2
200	200	7
91	91	2
152	157	2
167	200	1
65	67	2
77	77	2
168	171	1
46	46	6
35	215	1
57	70	2
92	93	4
116	118	4
113	113	2
111	119	1
109	109	2
156	156	1
184	184	3
29	38	2
157	175	1
210	214	2
55	55	4
54	55	2
78	78	2
112	112	2
90	90	5
81	81	1
55	93	1
223	223	1
197	199	5
180	181	4
49	211	1
28	28	9
240	241	2
68	68	1
68	174	1
2	51	2
91	92	4
58	81	3
107	107	4
59	60	2
47	48	5
167	167	6
145	145	2
116	116	5
182	182	4
195	195	1
208	211	1
171	171	1
10	161	2
19	19	3
232	232	5
176	176	3
69	70	1
207	207	6
180	189	1
0	0	2
169	208	3
193	200	1
236	236	3
49	77	1
201	208	3
18	48	2
3	5	1
46	89	1
225	225	3
67	68	1
188	191	1
233	235	2
238	238	1
6	207	3
115	117	1
98	98	4
87	111	2
80	91	2
65	156	2
32	33	1
101	102	1
218	225	1
72	72	2
174	174	3
97	97	1
81	98	1
7	8	1
119	154	1
48	62	1
151	151	6
111	165	1
151	153	3
93	93	2
211	211	6
178	212	1
186	239	1
176	177	1
152	160	2
32	40	1
233	234	1
14	14	3
183	183	3
189	189	1
165	166	1
177	184	2
100	100	2
245	245	3
103	103	1
146	147	1
90	91	2
220	220	3
83	83	4
214	216	1
194	196	2
198	201	2
160	176	2
33	34	1
157	157	2
188	189	4
73	78	1
233	241	1
178	244	2
115	115	2
100	101	2
21	22	1
84	84	1
114	241	1
181	236	2
16	201	2
156	157	1
15	213	4
2	17	1
145	155	2
178	180	1
108	118	1
197	219	1
114	236	2
217	217	1
170	177	1
180	185	1
111	117	3
95	95	1
108	152	1
234	234	4
65	65	8
33	51	1
199	200	1
110	111	1
100	116	2
26	85	1
183	200	1
158	184	1
67	74	2
197	217	1
23	32	4
172	173	2
224	225	1
158	159	2
35	58	1
213	218	3
145	146	1
81	91	1
154	181	1
150	219	1
163	171	4
168	169	2
26	27	1
160	192	2
154	154	1
176	179	1
78	92	1
205	206	1
173	177	2
208	208	1
37	37	1
59	65	1
13	208	1
85	86	1
102	104	1
226	227	1
103	108	3
110	149	2
175	176	1
59	59	2
234	247	1
80	83	1
245	246	1
203	206	1
94	94	1
73	73	1
112	121	1
187	191	2
25	25	1
209	210	1
237	239	1
38	38	1
4	12	2
54	93	1
80	163	1
51	51	1
187	188	3
5	14	1
18	18	1
55	94	1
16	51	1
228	238	1
94	100	1
111	120	1
63	64	1
227	227	1
68	69	1
221	225	1
65	66	1
103	111	1
47	71	1
14	48	1
4	14	1
166	168	1
9	9	2
220	225	1
36	68	1
62	63	1
211	212	1
45	45	1
179	179	1
12	19	1
203	203	1
102	102	1
23	156	1
182	228	1
17	62	1
