88	88	9
111	112	2
10	10	6
48	49	4
106	107	3
45	45	5
102	102	12
111	111	10
107	122	3
30	32	7
115	115	3
17	22	3
129	133	1
99	100	10
108	109	3
77	77	11
118	118	12
82	82	6
71	73	3
111	113	2
73	74	4
117	117	5
28	28	9
11	11	3
90	90	11
109	113	1
7	7	1
84	84	5
133	134	5
69	69	9
17	17	3
49	49	5
62	62	6
79	79	13
106	123	4
71	71	9
126	126	9
70	70	10
86	87	3
64	64	5
130	132	3
125	130	5
68	68	2
29	29	3
16	17	4
100	100	6
128	129	11
94	94	7
95	95	6
97	97	3
123	132	4
52	53	4
72	72	10
76	134	3
121	122	3
19	19	2
13	14	2
32	33	3
5	6	9
96	97	6
82	83	6
23	24	1
65	66	2
99	99	13
95	98	3
112	112	8
97	98	7
60	61	3
75	126	1
118	122	3
130	130	7
87	87	6
19	21	2
129	129	2
93	93	10
105	134	2
75	75	5
81	81	3
132	133	2
107	108	1
67	67	2
127	127	3
73	87	1
58	58	3
103	103	7
83	84	3
95	96	2
126	127	5
14	14	1
27	27	10
122	122	1
31	31	5
98	98	11
120	126	3
90	112	1
54	54	5
101	101	2
70	96	1
98	99	2
112	113	2
89	94	1
25	25	4
106	106	10
8	43	3
113	113	6
129	131	1
53	53	1
76	112	1
125	133	4
108	110	1
123	123	7
8	8	3
55	55	1
30	30	3
26	26	1
63	63	7
79	80	2
74	74	13
80	99	2
107	107	3
80	80	3
44	45	5
99	118	3
117	118	4
65	69	6
78	79	1
71	101	2
78	100	2
121	121	5
76	127	3
114	114	6
119	120	1
1	1	2
69	70	3
35	35	3
62	63	3
64	100	1
125	125	3
61	61	3
71	72	4
32	32	3
8	53	2
128	128	1
63	64	2
3	3	2
4	4	11
125	127	2
83	83	1
78	78	1
134	135	1
50	50	5
124	124	7
104	115	4
65	74	1
34	34	6
119	119	5
59	59	1
133	133	2
105	105	5
13	133	2
65	65	1
104	104	11
100	123	2
106	129	1
80	90	5
116	116	5
96	96	2
122	129	2
31	34	3
47	69	1
24	24	5
97	119	3
99	114	4
131	131	4
18	20	1
33	33	4
38	38	1
60	60	5
5	5	4
98	117	1
70	90	3
2	2	1
36	36	8
22	23	1
36	37	1
108	108	1
90	91	4
92	92	4
85	85	1
105	106	2
44	49	1
115	134	3
80	81	1
16	16	2
85	97	1
19	20	2
89	89	2
132	132	2
36	53	1
37	37	2
77	78	2
125	126	2
134	134	2
64	92	2
12	12	1
76	77	1
70	95	1
119	122	1
0	0	2
116	117	2
14	28	1
101	126	1
76	76	5
58	62	1
14	15	2
84	87	1
81	82	1
34	50	2
11	12	1
20	20	4
45	68	2
106	115	1
31	33	1
1	2	2
113	118	3
94	95	1
91	92	1
56	56	4
35	36	1
12	13	2
50	58	1
0	1	1
64	97	2
61	62	2
110	110	1
82	87	1
22	22	1
130	133	1
84	94	1
85	118	1
88	94	2
80	113	1
102	126	1
47	47	1
114	115	1
46	46	1
120	120	2
44	44	1
84	88	1
91	91	3
106	134	2
122	123	1
66	67	1
68	69	1
107	131	1
70	93	1
85	95	1
126	131	1
31	32	1
35	54	2
127	128	1
50	53	1
110	131	1
56	57	1
66	66	1
8	9	1
109	131	1
67	68	1
