109	109	78
114	118	11
128	129	36
111	111	76
34	98	2
45	45	59
1	1	67
20	32	4
16	18	8
98	98	67
112	112	103
116	116	62
13	13	97
12	68	1
62	63	25
127	127	67
7	7	61
126	126	40
41	41	64
91	91	51
108	118	4
69	85	1
75	76	21
108	108	73
64	72	5
93	95	1
107	122	4
107	107	59
9	9	58
21	98	8
105	105	66
42	43	37
49	49	94
126	127	34
100	101	21
120	120	85
106	106	60
80	80	54
0	46	2
118	122	4
60	113	4
73	73	69
64	86	3
124	124	78
70	70	77
62	64	6
10	10	68
41	45	6
87	88	19
46	46	101
27	77	4
23	23	66
10	69	2
68	68	54
104	104	53
56	56	96
42	42	57
113	116	11
54	54	81
41	44	19
115	115	79
79	80	19
49	50	19
58	58	73
114	114	87
0	0	70
71	72	10
113	131	12
51	51	94
28	29	25
63	81	6
118	125	4
40	40	74
118	119	23
82	102	3
23	24	21
55	55	78
93	93	49
44	44	83
25	26	28
121	122	15
84	110	2
52	52	92
47	48	34
27	27	92
100	100	49
91	92	38
2	2	49
41	43	15
105	107	3
19	19	55
53	53	66
19	86	1
47	47	79
34	43	2
96	98	11
42	108	2
104	105	57
20	20	56
57	57	77
90	96	5
94	95	19
30	32	5
40	41	33
116	117	26
78	78	59
104	133	4
69	69	79
3	3	47
22	25	6
78	79	32
59	62	28
7	9	12
108	119	3
11	11	65
39	39	58
16	23	11
113	113	61
61	61	44
48	48	78
72	73	24
121	121	71
60	130	2
25	25	77
102	102	96
22	61	1
12	27	7
106	107	36
88	88	73
27	29	3
12	17	4
92	92	52
89	89	59
21	21	41
26	27	11
95	95	93
76	76	83
43	43	87
54	55	13
85	86	23
50	95	3
125	125	58
129	131	8
90	90	79
50	50	86
68	75	7
86	88	25
31	122	1
85	85	79
45	46	13
18	19	22
60	60	53
84	85	16
34	42	3
47	54	4
63	63	60
101	103	27
67	77	2
42	44	3
74	84	1
12	95	1
110	110	77
39	110	1
24	69	6
86	86	46
89	90	19
59	59	42
29	29	48
28	28	59
13	24	1
73	74	36
19	21	9
130	130	42
82	91	8
124	125	17
46	59	2
62	62	52
34	78	5
58	61	2
16	17	27
122	122	65
75	75	54
46	47	31
82	84	10
97	97	72
127	128	28
24	24	68
17	17	44
41	98	6
76	94	6
53	54	24
28	100	4
38	65	2
43	44	27
43	124	3
26	115	2
11	45	3
87	87	57
119	120	18
2	4	8
55	72	2
83	85	7
123	123	75
101	111	1
118	118	57
102	103	36
119	119	75
79	79	83
69	105	1
61	75	3
123	124	6
5	5	67
44	71	6
63	129	3
96	103	2
15	16	24
62	86	4
99	100	21
64	64	55
19	20	29
70	75	2
74	79	1
120	124	4
66	66	65
105	106	33
8	8	54
118	120	2
4	4	79
133	133	36
18	33	1
103	106	13
21	93	1
19	22	8
26	26	50
96	96	56
33	95	2
72	72	44
94	94	56
98	128	4
99	104	5
6	6	59
129	129	51
31	55	1
71	71	77
12	15	1
96	97	6
9	109	5
88	99	5
86	87	26
82	82	36
47	62	6
107	108	11
9	10	22
44	45	29
77	77	69
98	110	6
51	55	6
33	33	67
74	74	30
93	94	39
10	26	1
101	101	52
108	127	4
48	53	2
19	25	4
69	116	5
81	81	56
4	81	5
131	131	59
103	103	49
114	117	5
85	87	10
59	60	19
92	94	7
2	5	4
106	123	4
105	117	4
126	129	8
118	126	6
31	31	57
4	22	5
117	118	27
97	99	9
83	83	54
50	51	20
101	102	23
98	100	3
4	21	6
117	130	4
20	90	6
76	77	11
58	60	8
102	125	1
84	106	5
15	15	83
1	10	4
125	128	5
65	78	5
9	12	6
16	130	2
117	124	1
61	62	20
32	32	35
65	66	29
27	28	10
67	67	100
24	32	1
12	13	13
72	81	6
6	7	20
55	132	1
31	75	5
57	121	4
98	99	15
48	88	2
2	104	1
33	106	5
58	66	5
14	15	11
15	17	15
89	129	3
8	32	1
18	18	63
49	57	2
29	46	1
112	122	2
119	131	7
84	84	40
19	23	2
38	73	1
6	13	1
114	116	5
47	76	1
99	131	4
12	12	62
104	107	1
125	131	3
68	69	18
60	61	14
82	83	20
38	98	5
65	65	68
83	84	33
28	93	1
97	98	33
126	128	20
53	56	5
81	89	3
41	51	2
79	102	3
22	22	70
80	81	28
103	104	7
5	6	11
49	80	5
25	61	5
113	117	5
17	128	3
91	108	2
51	52	34
12	96	4
39	56	2
132	132	41
52	53	25
88	100	3
3	4	20
56	119	4
32	75	3
16	16	52
22	30	4
55	68	3
16	33	1
69	72	4
57	124	2
53	108	4
33	81	6
93	115	2
99	99	91
105	127	5
3	19	3
22	23	12
115	128	5
85	113	3
5	22	3
51	53	7
50	71	1
4	5	30
39	72	9
80	89	2
15	21	5
128	128	62
93	105	6
92	121	3
72	80	4
8	9	14
63	65	5
42	56	2
54	110	2
39	44	1
14	19	3
113	114	24
42	66	2
51	96	1
98	114	9
16	63	1
19	31	9
91	99	7
102	104	10
42	80	3
120	131	1
64	65	6
12	92	4
22	112	11
2	3	12
0	1	11
119	130	1
31	32	9
82	86	2
55	56	17
42	125	2
78	103	4
80	130	2
47	128	1
67	85	5
7	18	1
55	98	3
104	110	2
13	14	22
91	93	5
13	23	3
38	41	6
30	39	2
14	39	1
4	6	2
69	84	1
16	29	3
131	132	21
43	53	1
47	49	4
54	56	12
115	116	13
12	132	1
13	15	11
19	77	3
83	86	4
34	34	33
70	71	18
90	91	17
77	78	17
10	132	3
7	8	5
57	64	4
49	52	1
125	127	2
38	38	38
87	92	4
47	53	1
55	131	2
66	67	9
30	30	42
64	66	6
38	40	2
59	87	6
32	93	3
33	34	22
4	53	2
97	129	2
39	45	3
61	69	3
72	96	4
67	75	3
38	39	31
41	55	2
39	40	25
31	109	1
60	107	6
120	125	2
17	23	3
2	13	3
120	121	5
120	122	9
90	116	5
71	75	4
6	82	1
69	86	2
6	9	5
29	107	1
96	113	4
67	68	17
23	34	3
97	104	2
19	29	3
42	52	3
59	61	9
2	29	1
83	105	1
44	84	1
48	49	15
33	66	6
97	109	1
110	120	2
20	21	3
0	39	3
22	31	4
122	123	11
109	111	4
109	110	9
5	14	6
11	12	11
110	117	2
72	82	5
75	77	10
99	101	6
96	105	7
58	123	5
1	2	10
84	122	1
104	106	4
40	116	2
59	68	1
8	22	3
6	10	3
52	54	13
39	41	11
41	42	32
78	80	6
40	43	3
112	113	19
52	57	6
80	82	4
60	65	1
71	73	7
14	14	50
107	126	2
108	109	20
13	93	4
84	87	4
1	107	5
103	108	8
47	50	1
125	126	10
33	41	1
115	125	2
64	68	3
20	56	1
16	19	9
32	33	12
46	65	2
43	89	3
100	133	1
67	82	3
75	80	3
49	53	5
8	69	1
44	60	3
37	37	8
41	52	1
21	22	18
98	104	16
68	73	3
117	128	2
58	59	12
59	107	3
6	28	4
128	130	8
15	84	2
44	65	2
72	75	8
3	56	3
69	70	10
52	93	5
42	45	4
74	75	11
49	54	4
91	128	2
6	62	2
8	19	5
68	71	5
89	97	1
70	102	4
18	101	2
41	74	1
0	43	1
117	117	63
60	62	8
84	86	11
55	61	4
104	132	2
113	124	4
14	52	1
90	95	1
52	104	3
20	38	1
88	94	4
57	62	3
80	112	2
117	125	4
117	120	3
130	132	2
66	68	4
72	74	5
55	105	3
55	67	3
46	76	5
108	111	5
105	109	5
43	74	4
88	89	20
69	71	4
67	88	2
106	108	12
24	41	4
40	45	3
67	90	2
61	117	1
108	131	3
58	62	7
51	95	3
15	18	10
23	29	2
30	115	2
78	106	3
30	42	1
40	58	2
100	103	3
77	79	8
42	60	2
72	97	5
89	98	4
40	65	1
66	78	3
49	133	5
57	58	11
66	70	2
105	114	3
56	57	4
63	64	14
19	60	1
29	32	7
1	104	10
98	103	3
31	76	3
31	80	1
75	113	1
20	116	2
94	120	4
2	14	3
110	111	11
23	43	4
110	112	1
66	110	1
58	101	4
55	63	3
4	37	2
48	57	4
44	82	2
114	119	2
10	11	9
64	81	5
51	56	4
11	13	3
73	77	2
97	120	3
118	121	1
29	30	19
22	29	2
78	89	1
114	115	12
59	113	2
95	98	1
13	19	2
81	92	3
11	93	3
32	37	3
33	128	1
13	114	3
14	113	1
97	107	6
24	25	8
38	42	4
46	120	1
66	99	4
119	129	3
20	86	3
41	66	3
72	88	4
7	56	4
44	72	2
12	26	6
14	47	1
43	80	2
32	86	2
44	63	1
104	118	2
65	92	3
129	130	29
24	26	2
32	123	2
73	130	1
15	20	6
59	83	4
119	126	6
18	100	1
79	81	6
107	113	5
73	83	5
86	94	2
81	93	1
48	112	1
3	20	2
57	111	1
62	131	2
114	127	4
39	73	4
32	112	1
1	12	4
76	96	4
9	31	5
28	72	3
13	32	2
27	105	2
30	66	3
97	114	7
45	62	1
82	129	2
75	78	2
98	133	1
29	62	3
61	111	2
25	118	3
58	65	3
10	27	3
4	109	1
57	103	3
8	10	2
40	44	6
21	40	2
97	101	4
108	116	3
26	118	3
6	8	6
26	93	1
31	88	4
89	110	2
84	126	2
45	70	3
16	22	6
11	108	2
85	93	3
17	20	1
22	41	2
12	14	4
17	18	12
101	108	2
12	22	2
65	67	10
88	110	2
26	100	3
33	107	1
9	132	2
47	61	2
46	54	2
95	96	7
3	6	3
85	131	3
130	131	3
124	130	3
97	113	2
125	129	4
73	75	1
55	108	1
131	133	3
22	24	8
10	12	7
71	112	1
45	76	3
63	66	3
50	55	2
60	110	3
14	24	1
1	105	2
96	106	1
42	46	2
45	107	6
5	23	4
48	72	2
51	123	1
40	42	6
80	93	2
118	129	1
31	95	3
38	108	1
99	117	2
1	102	2
13	130	3
15	95	2
6	38	4
15	72	7
6	56	3
121	123	2
21	95	1
0	56	5
76	132	3
8	44	2
20	39	3
78	81	3
63	102	1
55	80	1
81	82	10
45	54	4
110	113	4
111	112	14
6	14	2
16	100	3
87	89	5
47	80	5
65	76	1
33	122	2
46	82	4
72	93	3
72	113	1
81	94	3
3	14	1
72	76	7
132	133	5
11	27	2
28	46	2
17	43	1
50	74	2
38	46	2
107	110	2
13	111	2
18	21	3
45	110	3
70	72	1
119	125	1
17	21	3
91	127	2
24	95	2
54	63	3
19	65	1
12	29	1
23	26	3
22	26	1
14	16	2
106	114	1
63	92	1
15	104	1
122	132	1
16	21	3
3	95	4
42	55	2
18	23	5
62	77	2
116	123	1
48	89	2
4	23	1
64	125	1
50	60	1
34	81	1
111	120	3
53	110	4
33	38	2
39	111	1
26	83	1
95	99	3
3	54	2
46	48	8
103	129	2
52	64	1
44	131	1
3	13	4
93	98	1
16	95	2
22	117	1
20	96	4
94	96	2
58	110	1
54	127	3
109	116	2
32	66	6
94	111	4
40	51	1
24	30	2
69	90	4
13	109	6
18	89	1
14	71	1
108	117	1
6	55	2
13	124	1
23	32	4
90	93	2
73	78	3
3	98	2
72	85	2
1	53	1
78	91	1
73	80	5
38	81	3
30	31	7
43	98	5
100	102	3
51	76	2
82	113	1
30	95	1
89	92	3
38	79	2
15	94	1
59	63	3
68	77	1
27	114	2
12	124	1
54	58	2
3	5	7
19	42	4
75	90	3
81	91	4
93	102	3
77	102	1
44	54	4
43	46	1
100	104	4
87	95	2
6	123	1
67	69	2
126	130	3
73	82	6
27	46	3
11	16	1
40	56	1
46	79	1
38	116	2
43	76	1
51	105	2
43	110	2
23	25	1
3	12	1
110	116	2
16	97	5
109	125	9
106	125	1
114	125	1
111	113	1
122	124	2
29	56	1
20	89	2
53	72	5
87	121	1
48	69	1
48	65	2
119	124	3
99	105	1
7	12	1
108	120	3
101	107	2
96	119	2
74	78	1
16	72	2
93	120	3
76	80	1
52	84	2
72	77	3
130	133	1
51	106	1
71	76	2
57	122	2
26	31	1
45	74	1
48	51	1
5	20	4
19	30	1
109	117	1
40	109	1
0	105	1
52	108	1
24	124	2
54	124	3
90	92	2
6	50	4
107	109	2
8	20	1
2	52	1
14	104	1
12	47	2
5	7	2
74	100	1
39	54	2
68	104	1
50	77	3
43	47	3
111	117	1
31	123	7
86	97	2
39	43	7
113	132	3
10	93	1
50	69	2
61	113	1
113	130	5
98	111	1
18	107	3
72	83	2
70	96	1
63	109	2
77	100	3
33	75	2
13	60	1
60	125	2
24	33	2
25	40	1
113	115	7
117	119	8
2	7	2
28	40	2
15	34	1
12	82	1
53	88	3
105	124	1
42	73	2
17	24	2
7	118	2
31	125	2
53	102	1
20	45	7
9	105	1
92	105	1
81	98	2
95	116	1
64	92	1
50	62	2
11	123	1
67	94	1
62	75	1
100	117	2
22	38	1
115	117	2
76	104	4
41	79	2
12	48	1
18	119	2
39	67	2
78	98	2
89	105	1
113	129	4
55	99	1
26	89	2
14	87	1
105	108	1
103	107	1
33	65	2
85	115	2
45	47	5
16	20	1
22	65	1
25	96	2
81	83	1
97	108	5
1	11	2
52	65	2
2	53	2
82	116	3
0	3	2
55	119	2
80	90	1
77	124	1
39	126	1
5	13	1
93	122	1
85	88	2
92	95	1
68	76	2
65	110	1
64	69	1
55	93	1
114	130	1
92	93	2
56	60	1
97	116	1
7	10	3
16	112	2
42	75	2
55	60	1
4	13	1
31	114	1
45	82	1
34	73	3
28	30	5
13	66	2
1	3	2
110	121	2
40	47	1
89	107	1
77	99	1
99	102	2
55	127	3
4	9	1
49	94	1
92	107	1
3	55	1
73	81	2
78	108	3
13	65	2
51	93	2
24	68	1
14	107	1
77	108	6
112	130	1
120	123	2
5	28	1
61	63	1
51	58	1
40	98	2
27	122	1
45	68	2
0	75	1
102	116	2
23	128	1
90	110	2
14	116	2
47	106	2
97	126	1
18	32	1
32	117	2
20	42	1
3	43	1
87	97	2
25	113	3
26	34	3
37	94	1
15	39	4
57	63	3
118	130	3
88	90	1
45	66	2
46	69	1
99	109	2
20	48	1
53	109	1
7	131	1
14	115	1
26	28	2
7	15	2
13	88	3
34	104	1
55	121	1
13	101	1
28	41	1
55	69	1
46	50	2
1	96	2
87	98	3
58	109	3
75	97	6
99	108	2
47	120	1
6	110	1
9	52	3
48	77	1
14	23	2
68	90	2
60	85	2
21	92	1
63	131	1
82	85	2
38	78	1
9	29	1
93	116	1
1	18	1
77	89	1
54	107	1
40	79	1
16	127	1
41	75	1
31	85	1
11	71	1
102	107	1
65	68	1
19	93	1
29	93	3
0	2	1
90	104	1
76	78	1
21	38	4
23	59	1
56	95	2
19	102	1
69	89	1
123	125	1
64	93	3
0	57	1
20	77	1
46	64	2
16	25	4
94	110	2
23	44	2
9	90	2
100	120	1
51	54	1
64	67	2
43	45	2
5	24	1
29	95	1
3	44	3
19	69	2
24	31	1
96	116	1
14	131	1
48	124	1
9	56	1
70	132	4
125	132	1
11	82	1
0	4	1
26	108	1
14	60	2
37	84	2
58	69	1
43	52	2
83	120	2
1	26	1
47	58	2
58	127	2
115	118	2
44	47	1
59	111	1
17	33	3
34	39	1
61	109	1
41	58	2
48	52	1
8	91	1
74	81	1
32	81	1
93	96	1
23	70	2
113	128	1
33	45	1
92	97	1
58	63	1
45	63	1
3	10	2
34	48	1
42	48	1
92	98	1
10	122	1
41	78	4
8	26	1
32	106	1
27	64	1
30	72	2
67	100	1
105	116	1
102	106	1
34	47	2
79	90	1
67	76	1
107	125	2
45	78	1
59	101	2
15	19	1
13	53	1
96	101	1
42	77	1
38	44	1
1	6	1
68	89	1
108	129	2
50	122	1
50	92	1
114	124	1
62	69	1
12	74	1
17	100	1
14	96	1
10	124	3
89	120	1
14	129	1
77	82	1
127	129	4
8	80	1
18	60	2
11	125	1
61	88	1
68	100	1
80	91	2
74	83	1
80	85	2
33	91	3
5	102	3
63	68	1
103	112	1
52	109	1
48	50	1
31	53	1
81	85	3
63	89	1
44	83	2
0	96	1
10	13	1
47	117	2
17	127	1
14	20	2
25	30	1
2	39	1
89	95	1
39	96	1
93	113	1
37	38	1
99	112	1
77	103	1
103	118	1
119	128	1
25	60	1
24	39	1
62	66	1
89	91	3
55	129	1
94	100	1
84	102	1
70	74	1
107	114	1
73	84	1
57	94	2
10	91	1
21	31	1
104	125	1
45	55	1
50	57	1
82	101	1
0	111	1
32	45	1
56	102	1
60	128	1
55	65	1
45	56	1
116	125	1
15	101	1
10	92	1
8	118	1
52	100	1
12	18	1
34	108	1
70	93	3
82	97	2
55	71	2
51	72	1
16	27	1
5	10	1
39	71	2
11	118	2
4	104	1
51	88	1
60	63	1
25	47	1
51	109	1
70	95	2
109	112	1
22	100	1
33	46	1
49	98	1
5	42	2
26	33	1
13	38	1
21	25	1
26	29	1
48	76	1
46	121	1
51	124	1
62	113	1
96	132	1
28	58	1
29	91	1
48	73	1
98	126	1
21	127	2
41	126	1
66	76	1
58	79	1
74	99	1
73	99	1
63	80	1
4	43	1
61	65	1
70	76	1
64	82	1
118	124	1
107	127	1
89	93	1
66	81	1
18	103	1
