41	44	2
71	71	6
45	45	2
134	135	2
13	13	4
81	94	1
56	57	1
86	86	7
27	28	3
21	21	11
14	14	4
18	18	3
18	38	4
5	7	3
25	139	1
86	87	8
127	132	2
33	33	9
8	8	4
55	56	4
148	148	2
75	84	2
121	122	2
111	128	1
115	117	1
138	141	1
101	141	3
96	100	1
113	114	1
65	68	2
142	142	1
25	25	10
108	108	3
22	22	8
19	19	2
14	63	2
12	13	5
81	83	2
78	78	4
20	21	1
34	34	5
71	96	2
12	35	2
81	87	3
62	62	3
83	83	8
63	63	8
63	85	2
66	67	2
101	101	3
104	113	2
54	55	2
19	50	1
94	94	14
9	9	7
141	142	4
126	132	2
97	99	3
154	154	2
51	56	2
68	68	3
81	81	13
72	94	2
72	72	1
25	27	2
45	46	4
8	15	1
33	58	5
63	65	2
96	96	4
101	139	2
82	85	4
11	84	1
105	113	3
84	85	2
55	55	3
102	102	4
100	108	1
51	51	3
30	30	4
127	128	2
97	97	5
109	109	4
126	127	3
114	114	2
139	139	4
11	77	1
151	151	5
51	68	3
36	36	5
33	34	1
40	40	2
149	154	3
23	23	4
105	106	1
28	28	2
43	43	1
58	58	2
29	29	6
39	51	1
47	103	3
42	43	1
138	138	1
35	35	6
92	92	2
80	81	5
92	119	1
63	66	6
19	57	2
42	42	11
32	55	1
69	69	5
84	84	5
46	46	6
6	6	3
38	38	5
95	154	2
54	54	5
24	24	1
20	20	3
5	5	1
78	84	1
126	126	2
67	68	5
124	124	4
26	94	5
26	30	1
3	5	5
120	120	3
103	118	2
135	135	8
20	55	1
56	56	4
70	70	5
133	133	4
101	102	3
69	71	4
11	11	3
85	85	2
68	69	2
105	105	6
116	123	4
76	76	1
11	34	1
113	113	3
67	77	2
17	45	2
9	29	1
16	17	2
57	57	4
11	12	1
78	79	2
16	18	3
95	95	6
53	53	4
49	49	3
17	17	4
35	36	1
111	143	2
22	23	1
68	70	3
25	33	1
64	64	1
53	56	1
31	33	3
110	111	1
37	37	2
120	121	3
115	115	5
104	114	1
67	76	1
80	80	8
32	32	3
120	123	2
41	41	4
56	88	2
39	40	1
31	31	1
136	136	1
106	106	1
150	152	3
63	67	2
131	139	1
80	94	4
20	80	1
94	145	1
11	43	1
112	113	2
104	105	1
26	28	1
75	75	2
121	121	2
140	143	3
36	37	1
129	142	1
44	44	2
128	128	1
89	91	2
100	100	2
85	88	1
109	113	2
139	149	1
114	128	1
17	53	4
54	56	2
65	76	1
26	26	2
49	50	3
71	74	1
88	88	2
98	136	3
49	80	1
137	137	4
27	32	3
139	146	1
94	95	3
127	127	1
118	118	3
104	106	3
44	45	1
77	77	1
48	104	3
126	145	1
73	73	3
141	141	1
90	90	3
43	45	4
103	103	1
96	104	1
76	77	1
32	33	1
72	83	3
84	86	2
136	138	4
39	39	4
93	95	1
10	10	3
4	5	4
65	66	6
74	74	3
11	63	1
58	98	3
47	47	2
140	140	1
15	15	2
29	39	1
5	6	1
16	16	3
133	142	1
110	110	4
28	29	1
16	69	1
153	153	2
3	7	1
123	125	2
34	35	2
82	82	5
9	20	2
5	29	5
23	49	1
11	35	1
65	67	2
3	28	1
65	84	1
64	88	1
21	25	1
141	144	1
13	14	1
147	147	1
63	78	3
123	123	1
107	123	1
8	9	2
76	80	1
132	133	3
19	20	1
117	130	2
64	66	1
66	66	1
136	143	1
74	75	1
87	87	1
74	78	2
4	4	2
15	16	1
49	54	1
21	42	1
144	146	1
62	64	1
130	130	2
67	67	1
150	150	3
50	50	2
93	93	2
27	27	2
69	77	1
123	128	1
50	56	1
26	27	1
125	138	1
131	134	2
65	65	1
11	40	2
88	89	1
101	108	1
10	38	1
147	150	1
39	66	1
50	51	1
27	154	1
10	27	1
152	152	1
100	101	1
119	120	1
38	55	1
106	107	1
116	117	1
99	99	1
89	90	1
98	99	1
100	136	1
76	79	1
94	98	1
76	105	1
87	88	1
134	134	2
124	126	1
17	18	1
104	104	1
7	7	1
55	57	1
50	88	1
63	68	1
40	41	1
