70	70	14
5	5	12
7	48	1
33	33	20
65	65	13
73	73	15
29	30	3
27	50	6
70	71	4
75	75	11
45	45	12
2	2	11
49	51	5
53	53	18
11	11	18
68	68	16
9	9	34
12	12	27
62	71	4
60	60	21
44	64	2
42	69	3
68	71	5
24	50	3
26	39	2
6	53	3
20	20	21
67	67	17
21	21	16
58	76	1
44	44	20
64	64	11
9	19	3
42	42	22
73	74	5
0	2	3
28	36	3
59	59	14
39	39	13
54	55	7
48	48	16
24	25	6
23	23	23
36	41	2
50	50	13
8	55	1
31	31	7
47	47	12
21	48	4
32	61	1
0	0	18
8	8	13
55	56	5
10	10	18
54	54	16
72	76	3
35	35	10
58	58	5
37	44	1
18	18	15
41	41	3
14	14	11
36	37	8
19	19	8
6	6	13
61	70	2
32	32	25
55	55	11
37	39	4
5	49	3
49	50	19
36	38	4
35	57	5
29	29	12
26	50	9
69	70	7
1	1	23
32	57	5
76	76	13
31	56	4
58	75	2
3	3	16
31	32	7
63	63	17
30	36	2
77	77	16
34	39	4
34	34	20
64	66	9
34	35	4
41	73	2
42	74	2
66	71	1
53	75	2
62	63	10
30	30	10
55	72	2
10	18	2
67	76	2
66	66	22
40	68	6
12	27	3
25	25	5
40	40	16
49	54	2
65	66	15
12	13	9
25	39	3
18	20	1
56	56	7
37	56	2
59	72	2
52	52	10
43	46	7
7	8	5
19	21	9
6	26	6
27	28	1
51	51	11
69	69	20
22	23	7
5	48	1
31	47	11
50	51	6
7	7	6
48	50	2
46	46	15
38	38	6
74	74	8
2	4	4
26	26	12
34	41	1
66	76	4
71	72	1
61	64	3
26	38	1
43	71	1
44	55	7
76	77	5
57	59	2
26	28	2
56	77	2
31	59	3
44	56	3
6	59	3
28	30	8
6	8	1
43	44	2
27	39	4
40	41	2
67	72	1
37	51	1
26	30	5
10	11	6
5	75	1
31	44	2
36	36	2
72	72	10
61	62	2
37	38	5
27	27	11
60	61	1
13	13	7
9	45	3
24	52	5
61	66	2
13	22	3
42	43	2
28	28	5
53	55	2
61	61	8
58	61	3
0	3	7
6	31	1
18	53	1
6	24	2
3	7	3
49	49	9
46	56	1
62	62	9
4	4	12
9	12	1
62	65	1
25	28	4
31	33	4
24	39	2
55	75	2
43	58	4
35	58	1
57	57	6
47	48	2
22	22	6
74	75	3
8	9	1
33	65	3
66	67	2
22	25	5
11	13	2
3	8	1
37	37	5
21	55	2
32	44	2
55	61	1
7	21	1
49	53	5
12	22	2
40	73	5
4	69	3
57	58	2
73	76	3
28	50	1
37	41	1
2	21	3
12	19	2
35	37	5
50	69	1
78	78	1
35	36	2
59	61	1
44	45	2
61	63	5
62	64	2
25	31	2
72	75	3
23	24	3
56	57	3
46	55	5
6	74	4
21	22	4
41	42	5
10	19	1
32	37	1
27	30	1
1	4	2
70	72	1
9	32	1
6	42	1
64	67	1
24	24	2
45	47	1
4	5	1
71	71	7
72	73	6
53	54	3
28	29	1
60	63	4
1	6	1
43	45	4
39	40	6
12	48	3
50	54	2
68	69	1
6	37	2
63	64	1
43	72	2
25	27	1
48	51	2
25	34	1
11	12	2
5	74	3
41	60	2
43	43	5
51	53	4
73	75	1
8	44	2
30	57	2
0	1	2
31	36	2
48	49	5
5	27	5
0	63	2
44	72	1
67	68	1
11	59	1
30	31	1
45	67	1
68	70	6
66	68	1
39	61	1
11	18	2
20	21	1
3	4	3
42	71	1
53	58	5
6	51	1
27	34	3
42	45	2
72	74	1
41	74	3
34	59	2
5	44	1
5	50	1
24	51	2
8	48	1
1	37	1
3	12	1
5	6	2
40	62	2
13	26	2
44	63	1
48	69	2
33	34	2
51	69	1
24	28	1
0	62	1
75	76	3
56	62	2
27	35	1
9	11	3
8	38	1
8	42	1
35	76	1
3	57	1
42	72	2
0	20	1
60	64	1
56	76	1
13	23	1
36	51	1
1	3	1
1	2	1
5	51	2
41	53	1
11	55	1
71	75	1
41	51	1
