91	91	7
84	85	3
117	117	6
133	133	16
93	94	3
85	85	8
115	115	2
3	3	5
10	12	5
82	82	5
125	125	5
71	119	4
96	96	13
110	111	3
102	103	5
136	136	2
111	111	8
133	134	15
5	5	6
85	104	4
12	12	11
18	18	5
131	131	8
130	130	11
116	116	12
11	78	3
119	122	1
81	102	3
97	98	3
31	31	2
112	113	6
126	126	5
128	128	8
17	79	7
137	138	2
114	114	13
116	122	3
132	132	9
123	123	11
94	94	1
81	82	2
35	36	2
100	100	7
140	140	4
37	37	4
104	104	7
74	75	2
38	38	3
87	87	6
89	90	1
94	95	5
120	120	6
102	102	9
30	32	6
3	4	2
75	76	4
106	107	3
90	92	2
97	97	5
129	129	11
117	124	4
90	90	6
107	111	1
33	33	4
24	29	1
119	119	3
107	107	2
106	116	3
89	89	6
15	18	5
80	81	3
108	108	1
138	140	5
34	34	2
138	139	3
14	78	1
7	8	1
87	119	1
121	121	2
34	35	4
92	92	1
17	23	2
77	77	4
86	86	5
131	132	6
139	139	7
100	108	3
6	6	1
31	32	1
71	72	1
91	95	2
135	136	2
30	30	1
80	84	1
71	71	5
124	131	2
83	84	3
127	127	7
74	74	7
26	26	1
20	23	2
77	80	4
101	101	6
122	122	9
135	135	3
25	25	1
108	110	5
16	17	3
123	124	3
110	110	2
13	13	5
35	35	2
134	134	4
80	80	5
125	126	2
20	31	2
21	21	1
78	79	4
29	29	3
137	137	4
102	104	3
118	118	2
4	4	2
9	10	2
103	104	5
127	131	1
23	26	2
98	98	4
114	123	1
78	80	4
112	114	2
97	100	5
129	130	3
8	11	2
75	77	2
101	102	4
1	2	1
25	26	3
16	16	1
37	38	2
6	28	1
95	96	1
113	114	3
134	139	1
34	37	1
72	73	2
10	10	1
113	113	1
23	23	2
2	3	3
138	138	3
124	124	1
134	135	2
100	101	1
86	101	2
72	72	2
17	17	1
0	0	2
103	103	1
114	115	3
92	93	3
1	7	2
106	106	3
99	99	2
28	29	1
6	7	3
109	109	3
73	73	4
88	90	1
15	15	1
8	8	2
24	24	1
94	101	3
68	68	1
118	119	2
116	118	2
20	24	2
79	79	1
121	122	1
33	34	1
19	19	1
81	83	1
120	122	1
28	28	1
125	129	1
78	78	1
95	95	1
86	117	1
94	103	1
117	118	1
95	100	1
18	27	1
85	86	1
131	133	1
29	30	1
13	125	1
79	80	1
24	25	1
2	2	2
22	23	1
