62	74	1
6	6	5
37	37	2
120	120	7
1	1	4
129	129	3
4	16	2
86	132	1
45	70	4
22	23	5
68	69	6
112	113	2
19	38	1
70	119	3
122	122	6
101	102	3
77	77	5
93	93	3
87	88	4
18	20	5
5	5	3
130	130	3
102	102	4
73	74	5
73	73	12
115	116	4
60	71	2
97	97	3
13	13	2
57	57	1
22	22	3
87	132	2
95	95	7
110	115	4
78	81	2
130	134	4
125	125	5
86	86	9
65	65	3
19	19	6
114	114	1
134	134	4
20	21	2
92	92	3
11	11	2
91	92	1
71	71	10
15	17	2
131	131	6
23	24	6
38	93	1
68	68	9
46	69	2
23	23	2
123	134	1
108	108	5
77	83	2
21	21	3
16	17	2
59	91	2
113	125	3
100	100	3
15	15	3
77	117	3
81	91	6
61	61	7
39	88	3
100	132	1
69	69	4
8	8	8
38	40	2
45	45	6
31	31	4
107	108	3
128	128	1
7	7	4
36	39	1
72	72	3
126	126	1
38	39	2
26	26	11
24	24	5
87	113	4
31	32	1
45	60	2
102	103	5
0	0	6
44	44	7
82	84	1
22	25	2
36	36	1
130	132	1
35	91	1
76	76	5
27	28	4
33	42	1
94	94	6
112	112	5
97	98	3
106	106	1
42	43	1
132	132	5
14	27	2
82	82	1
74	74	7
87	87	1
88	89	3
25	109	4
119	119	5
99	103	1
17	112	5
83	83	3
123	128	1
93	99	1
37	59	1
110	111	2
115	115	7
103	120	2
81	81	1
123	124	1
18	36	1
39	40	6
60	61	3
68	72	3
111	134	4
110	114	3
116	117	1
14	14	3
62	63	2
32	33	3
113	113	3
79	82	1
46	46	1
58	58	3
19	29	1
20	20	6
77	91	2
34	34	2
117	117	3
66	66	3
121	122	2
76	110	1
121	125	3
36	60	2
43	43	3
2	2	2
42	50	1
75	110	2
4	5	5
27	27	5
84	84	2
43	57	2
94	99	2
62	62	3
29	41	3
81	85	4
87	111	3
33	34	1
107	107	2
14	31	3
13	27	3
18	23	1
117	123	2
79	80	3
124	124	2
16	16	1
78	104	1
45	63	4
59	59	2
29	29	3
35	70	2
109	111	1
131	132	1
121	132	1
75	76	1
121	121	1
12	31	2
79	79	4
82	91	4
61	70	4
129	131	2
57	59	2
123	123	2
9	9	4
63	64	1
42	42	2
47	48	3
124	125	2
80	80	1
109	109	4
114	124	1
121	123	2
77	118	1
95	117	2
10	27	2
101	101	1
101	106	2
108	110	1
75	75	3
113	133	1
36	84	1
81	82	3
55	59	1
47	47	3
63	63	1
98	100	2
101	124	1
18	21	1
99	104	1
98	98	4
96	96	1
113	123	1
90	90	2
118	118	2
104	124	2
124	131	2
18	18	2
75	119	1
82	104	1
6	26	1
28	29	1
39	54	2
88	88	4
37	38	1
79	105	3
70	71	1
94	95	2
9	10	1
18	35	2
60	60	1
30	90	2
104	104	2
55	55	1
81	84	2
20	40	1
23	27	1
69	70	1
34	45	1
17	30	1
126	131	1
70	94	1
15	29	1
113	116	1
40	40	1
102	122	1
126	128	1
119	120	1
44	49	1
103	104	1
127	127	1
95	98	1
