62	139	3
81	82	6
165	165	19
235	236	1
77	95	1
173	174	4
141	142	3
144	144	5
166	166	12
15	16	1
20	57	2
71	71	11
236	239	4
134	134	10
52	52	12
115	115	12
54	54	5
220	220	9
212	212	14
46	47	6
178	178	8
24	25	5
163	165	4
19	21	3
29	30	9
38	39	12
225	226	3
45	45	14
204	204	10
142	142	5
156	156	2
124	124	6
198	201	3
219	219	12
62	62	8
188	208	3
189	189	8
47	47	7
99	171	2
208	209	9
150	150	7
192	192	10
96	98	1
19	19	6
189	190	4
69	69	27
183	183	9
222	230	4
100	130	1
44	45	3
36	37	1
238	238	11
48	48	5
233	233	7
196	196	14
154	154	14
201	201	7
20	20	9
18	18	10
62	63	8
161	191	3
43	43	10
127	127	8
175	175	7
222	225	2
67	67	9
57	57	6
135	135	6
127	128	2
3	15	4
46	46	6
234	234	12
190	190	7
64	64	14
211	211	6
158	158	7
148	149	3
2	107	3
27	174	2
100	100	8
106	106	6
157	157	11
214	214	4
109	142	2
30	68	1
1	1	6
187	188	1
3	64	3
2	3	3
222	231	4
184	185	5
180	180	9
75	99	5
231	231	7
213	213	14
217	218	5
181	181	10
69	70	1
30	30	5
83	83	12
6	123	2
240	240	9
77	77	5
237	237	11
180	181	5
180	190	5
184	184	11
84	86	1
149	149	5
183	184	1
237	238	4
58	58	3
228	232	2
228	228	8
224	232	2
166	172	1
51	51	4
60	65	4
198	199	1
62	71	3
119	119	2
1	28	2
21	22	4
222	222	8
179	219	2
95	172	1
25	25	6
227	227	7
226	227	4
30	32	5
56	57	1
27	29	3
82	84	1
188	205	1
146	146	9
188	197	6
86	144	3
8	17	1
216	216	8
159	160	2
16	16	6
177	177	12
137	137	5
58	59	3
128	128	4
23	33	3
103	103	3
237	239	1
169	170	4
125	148	2
82	141	4
39	39	2
131	131	2
207	208	1
193	194	2
228	229	7
125	125	6
140	140	14
111	111	4
152	187	2
223	227	4
99	99	10
137	186	1
50	64	1
29	29	11
120	175	6
84	84	4
28	41	2
222	223	4
136	136	8
13	13	9
194	194	2
224	225	3
172	172	5
145	145	8
11	11	9
139	139	4
5	5	4
36	38	3
16	17	5
224	224	1
113	242	2
53	75	2
109	109	8
42	42	9
42	43	1
63	64	2
197	242	2
215	215	4
229	229	3
44	46	2
217	217	10
44	44	8
217	238	1
86	86	4
6	6	3
115	116	5
179	180	5
152	152	8
14	14	8
49	49	10
161	161	8
74	74	14
12	12	7
129	129	8
241	242	4
153	153	6
167	167	7
113	211	3
8	74	1
70	97	3
85	85	3
32	32	8
60	60	6
223	231	2
174	174	6
187	187	3
21	21	8
11	12	3
202	202	5
1	8	3
173	178	1
30	31	4
59	60	4
190	191	1
0	11	1
188	188	6
218	218	2
108	108	8
165	188	2
68	98	1
1	2	6
162	162	9
221	221	7
16	166	2
135	187	3
64	65	4
120	120	7
40	40	4
79	79	6
198	198	8
72	72	6
68	68	5
118	118	2
108	129	3
41	41	6
80	82	2
101	101	9
140	141	2
88	88	1
241	241	2
125	128	2
177	181	2
22	23	1
63	63	11
59	59	4
81	81	6
232	232	4
49	50	4
146	147	7
170	172	6
223	224	1
148	150	2
26	85	1
223	223	12
26	26	5
201	217	2
75	78	1
122	122	8
132	132	4
38	48	1
232	233	2
115	185	1
68	69	2
73	73	11
76	80	3
24	63	2
192	193	4
145	147	1
53	54	3
233	234	1
200	209	5
47	48	3
227	231	1
39	175	1
192	198	4
25	26	3
6	7	5
73	74	5
102	102	4
102	203	1
210	210	7
18	19	3
147	147	4
199	199	2
23	23	9
132	225	2
236	237	1
78	78	9
65	65	4
159	159	15
29	31	2
82	82	6
26	27	3
44	48	2
38	38	6
125	134	1
56	56	2
178	189	2
137	139	1
28	65	1
76	76	3
33	33	5
213	224	2
211	212	2
104	107	2
187	223	2
27	27	8
200	200	7
80	80	2
194	195	3
136	224	1
147	149	3
98	98	3
112	112	11
186	190	2
163	163	5
167	168	2
199	216	1
202	236	1
4	4	2
207	207	4
179	179	1
66	66	5
97	98	1
31	31	7
146	148	2
126	126	2
242	242	4
114	114	3
148	148	2
115	238	2
26	38	2
156	157	2
151	151	4
117	118	2
70	70	8
227	228	1
45	46	2
133	133	7
25	29	1
182	196	2
200	201	6
98	99	2
0	0	7
109	203	1
236	236	3
111	125	2
83	188	1
220	221	1
214	216	2
141	141	2
4	5	4
108	109	3
136	202	3
152	182	1
215	219	2
159	162	2
141	191	1
70	71	2
199	202	1
145	146	5
215	216	1
232	236	2
53	53	8
197	197	4
173	173	5
186	186	7
116	117	6
178	180	1
133	134	1
169	169	3
13	14	3
171	171	6
60	61	4
160	160	9
171	172	4
104	114	3
96	96	9
144	186	4
182	182	6
7	7	4
111	119	3
209	209	4
75	75	3
23	38	1
153	168	1
8	8	6
9	20	1
39	48	2
157	177	1
66	67	1
99	100	1
3	3	7
14	15	3
202	203	5
164	165	5
62	148	3
95	122	1
39	47	3
240	241	6
97	180	2
134	135	4
131	135	1
152	191	3
52	53	2
182	187	1
113	174	2
50	58	1
36	36	5
150	161	1
239	239	3
205	205	3
164	164	3
165	166	2
170	170	1
202	204	1
203	203	1
119	134	1
158	159	2
226	228	1
137	138	3
170	171	2
168	168	9
107	107	6
114	163	2
155	156	2
178	182	1
20	23	8
61	61	7
155	155	5
108	115	1
28	28	3
36	168	2
36	59	2
47	148	1
113	113	4
2	55	1
119	135	1
178	181	1
97	97	2
66	78	2
148	151	1
206	206	6
112	239	1
33	36	2
40	41	5
67	76	3
138	139	2
147	150	2
131	132	2
235	235	3
117	117	7
10	11	1
197	198	3
102	104	2
119	161	1
161	162	2
149	150	2
50	51	2
180	191	1
121	122	1
2	4	1
211	213	2
113	114	2
39	42	5
203	204	2
191	201	2
238	239	4
55	141	2
43	73	3
162	163	3
46	48	3
50	50	4
123	135	1
4	6	1
115	119	1
37	37	2
215	224	1
211	215	2
43	49	1
110	110	3
104	125	2
104	105	1
104	104	2
43	69	1
142	143	1
67	121	2
189	192	3
195	195	3
55	148	4
151	204	3
99	101	1
195	198	1
205	206	1
225	225	4
119	176	1
14	124	1
19	66	1
100	141	2
74	75	2
191	191	5
103	104	3
239	240	2
33	221	3
32	88	1
55	55	3
220	222	2
106	107	2
120	121	2
219	224	1
24	24	4
229	231	3
66	88	1
135	176	1
100	108	1
153	154	1
2	12	1
15	17	1
84	85	2
114	175	1
107	109	2
116	217	2
4	23	3
118	119	1
89	89	4
12	13	2
189	214	1
65	67	1
31	133	1
67	100	2
45	68	1
133	213	3
62	64	1
69	86	1
134	212	1
123	187	1
213	229	1
167	179	1
43	223	3
139	140	5
48	55	1
178	179	2
129	131	2
208	208	1
212	213	2
123	125	2
201	209	1
114	115	1
113	115	1
119	159	2
206	207	1
165	167	2
69	76	2
190	194	1
35	175	1
105	105	3
0	16	1
58	60	1
154	157	1
63	67	1
31	211	2
140	210	2
202	215	1
39	61	1
144	147	2
159	183	3
102	103	1
22	22	3
26	63	1
45	69	1
54	62	1
8	9	1
221	222	1
130	130	2
188	189	2
5	6	1
160	197	1
127	132	1
229	230	1
216	217	1
114	208	1
170	190	1
122	125	1
197	199	1
114	174	2
231	232	3
165	169	1
143	143	1
108	134	1
118	217	1
176	176	4
182	236	1
121	154	1
107	121	1
42	58	1
43	45	2
154	155	1
80	85	1
134	142	1
9	113	2
138	144	3
51	52	1
14	123	1
200	225	1
37	38	1
105	116	1
170	202	1
192	201	2
35	35	1
115	127	1
200	216	1
185	186	1
223	225	1
43	44	1
163	164	1
19	20	1
80	81	1
50	56	1
18	22	1
48	62	1
169	171	1
28	58	2
138	138	1
105	106	1
150	164	1
41	58	1
57	58	2
116	188	1
163	177	1
71	99	1
23	24	1
119	173	1
35	36	1
114	116	1
9	9	1
193	195	1
85	105	1
74	120	1
74	80	1
56	90	1
77	79	1
107	126	1
