104	107	5
112	112	12
78	79	6
22	22	15
34	35	5
97	97	23
88	88	20
41	44	5
42	42	14
39	39	30
110	110	23
91	91	29
21	49	5
30	95	7
79	79	28
79	80	1
30	31	8
94	94	11
60	60	17
37	37	13
99	99	9
92	108	2
31	31	20
87	87	11
100	100	11
31	32	11
67	67	28
33	33	39
46	46	17
24	24	9
93	93	15
73	73	34
48	48	24
36	71	2
65	65	11
43	43	18
105	105	19
74	74	28
53	54	9
57	57	32
70	71	17
63	63	15
80	80	18
27	27	20
75	76	3
29	29	40
49	49	19
71	71	16
52	52	18
35	35	24
96	96	20
41	41	16
105	106	10
102	102	21
24	79	3
29	30	9
95	95	27
21	60	2
103	106	4
59	59	19
104	104	38
43	44	7
64	68	3
85	85	15
83	84	8
84	84	24
58	58	18
55	55	21
75	75	19
64	64	13
47	48	9
101	101	17
95	96	15
89	89	20
92	92	24
81	81	25
28	28	21
103	107	2
106	106	14
82	82	11
68	68	5
102	103	10
90	90	14
108	110	2
85	86	12
76	76	17
109	109	16
32	32	11
107	107	23
92	93	11
83	85	5
80	81	16
56	56	19
104	106	8
98	98	8
78	78	26
21	21	17
54	72	2
51	51	28
76	77	5
99	101	6
100	101	8
25	25	9
36	37	11
50	50	8
36	36	10
114	114	7
34	73	5
23	23	11
57	58	10
72	72	14
63	64	5
58	59	2
25	26	5
48	86	3
103	103	13
40	40	10
77	78	4
73	76	2
34	34	12
20	22	2
23	31	3
82	83	4
68	69	8
54	78	1
20	21	4
54	55	7
59	60	23
37	38	7
46	60	9
50	51	7
111	111	9
62	62	18
109	110	13
113	113	29
69	69	13
77	77	15
86	86	16
79	92	3
64	65	4
111	113	9
24	93	1
106	107	5
45	52	5
98	99	10
70	70	18
25	27	1
66	66	6
73	74	6
39	40	3
49	50	11
55	72	4
70	75	2
91	92	4
61	62	14
20	20	15
88	91	9
71	102	7
59	74	2
53	53	5
108	108	14
99	100	2
46	88	3
47	47	14
19	20	5
38	38	19
32	34	2
84	85	17
26	26	15
89	91	4
71	112	4
27	94	6
24	32	1
77	83	1
93	100	1
90	91	11
112	113	22
52	53	8
67	68	6
35	42	2
24	78	2
23	79	3
77	96	3
71	73	2
39	42	1
35	36	3
40	41	3
52	97	3
57	72	2
86	87	3
60	73	2
61	61	13
33	71	1
74	75	6
108	109	4
107	108	9
65	66	2
48	49	7
96	97	8
58	64	2
87	88	4
44	45	8
33	43	1
45	45	15
50	52	1
71	72	7
46	53	1
54	77	1
66	67	5
43	45	4
22	23	6
24	26	2
54	54	5
92	94	2
23	24	4
54	92	3
94	96	4
101	102	10
48	50	1
36	62	4
51	52	4
19	19	9
30	30	7
107	109	2
42	44	1
72	73	2
56	68	2
83	83	16
55	56	2
69	105	1
58	60	3
72	74	1
111	112	3
81	87	2
20	27	4
56	91	3
58	61	1
76	78	7
44	44	5
46	47	5
94	95	5
103	104	4
26	49	1
42	43	2
41	42	6
97	98	3
26	50	2
101	108	2
58	96	3
67	69	6
57	71	1
95	97	1
110	111	1
32	45	2
38	39	2
61	89	2
36	66	1
26	27	6
81	82	1
37	65	3
26	52	1
57	77	3
72	100	1
59	76	2
24	25	1
96	98	4
69	70	4
103	108	2
21	47	2
54	96	1
100	102	1
21	22	4
68	105	3
101	104	3
73	100	1
36	38	2
23	59	1
62	67	1
21	23	1
75	89	2
31	91	2
93	94	3
27	28	1
54	56	3
36	47	4
62	64	3
38	40	2
72	113	1
34	36	1
48	90	3
34	45	2
57	64	1
35	74	1
20	23	1
93	108	2
25	50	2
47	54	2
19	22	1
101	103	1
58	79	1
49	88	2
65	68	2
68	70	2
80	83	1
104	105	1
25	94	1
64	67	2
38	62	2
21	46	2
94	99	1
52	94	1
27	49	1
20	84	1
104	110	3
108	111	1
98	100	1
55	76	2
94	100	1
19	23	1
103	110	3
87	89	1
22	47	1
22	48	1
33	34	1
76	86	1
93	101	1
88	89	1
62	66	1
49	76	1
35	73	1
49	87	1
34	44	1
