191	192	3
50	50	7
169	169	7
51	51	15
113	113	4
180	180	3
47	47	14
138	138	9
29	29	10
15	15	4
19	19	9
124	124	8
122	122	9
179	179	10
45	45	12
195	196	3
53	53	5
79	79	5
49	49	10
120	131	5
63	63	4
2	2	7
188	188	2
154	154	6
103	103	6
69	69	6
57	57	10
126	126	5
195	195	15
17	36	2
175	175	6
44	44	15
123	124	8
167	167	6
157	157	2
196	196	10
147	150	1
96	105	3
159	159	15
37	37	17
33	33	17
80	83	3
14	15	1
135	135	6
18	18	5
127	127	14
150	150	9
152	186	5
63	131	2
182	183	1
95	95	2
130	130	6
30	31	2
193	194	9
70	70	8
196	197	6
15	20	2
120	120	4
108	108	4
25	25	7
17	48	2
13	14	6
34	34	5
36	36	6
14	14	9
56	56	7
82	82	4
5	5	6
127	128	7
45	46	5
125	125	12
57	78	1
124	125	3
35	37	1
59	79	3
42	42	8
153	153	6
79	80	7
129	129	2
4	4	10
52	52	8
156	156	7
95	100	3
166	166	1
136	144	3
13	13	6
114	114	3
88	88	2
10	11	3
106	107	2
182	182	8
172	172	5
128	128	11
27	27	1
55	55	10
151	153	1
46	47	8
131	132	2
58	58	7
109	109	5
117	117	4
60	60	9
103	131	2
66	66	1
123	123	3
48	170	2
181	181	6
38	38	4
54	54	8
146	146	3
40	40	9
107	107	8
189	193	3
24	25	3
192	192	18
174	174	7
129	130	1
80	84	2
142	145	1
111	111	2
115	137	1
190	190	5
4	5	1
112	137	7
49	57	3
118	118	5
77	77	4
25	27	1
141	141	4
197	197	10
67	67	7
112	113	2
65	68	3
88	89	5
32	32	9
78	78	2
11	12	2
55	56	8
60	61	1
84	84	4
191	191	5
90	125	2
24	24	6
82	108	3
11	11	4
72	72	11
164	167	2
171	171	19
81	81	4
54	56	1
37	43	4
69	127	11
156	157	2
153	186	1
0	0	3
114	115	3
115	115	4
121	122	5
192	193	5
141	142	2
101	102	3
12	12	2
16	17	2
2	42	1
132	133	2
62	62	4
194	194	12
148	148	4
135	136	2
50	51	2
33	34	2
176	178	1
112	114	3
143	143	2
53	56	2
117	118	3
160	161	1
166	197	3
137	138	3
31	31	5
118	119	1
94	94	7
170	171	2
17	17	6
103	109	2
35	35	2
61	121	1
115	116	5
121	130	1
61	68	1
110	110	3
3	3	1
54	55	1
136	136	10
8	39	2
22	22	3
60	78	1
77	125	5
21	22	1
148	149	3
61	61	7
184	184	3
2	7	2
98	98	5
89	89	2
176	177	3
51	144	2
141	154	1
133	133	4
6	8	2
59	60	1
154	186	1
58	59	2
83	84	1
131	131	7
134	134	3
135	144	1
69	70	3
99	99	4
112	112	3
160	182	4
5	6	1
83	87	2
149	150	6
48	48	8
140	141	2
10	10	2
46	46	8
116	137	1
189	192	2
6	7	4
152	153	1
38	43	1
155	156	1
109	110	1
165	167	2
145	145	6
183	184	1
23	23	3
29	31	2
71	71	3
12	37	3
170	170	2
16	16	2
115	139	1
193	193	4
1	1	2
67	68	2
173	173	5
174	176	4
61	132	2
36	37	2
165	166	1
152	152	3
105	105	1
183	183	8
7	39	2
26	26	8
0	2	5
75	76	1
139	140	2
168	168	2
142	142	5
151	151	3
134	135	4
106	106	13
68	68	2
112	138	1
52	53	2
86	87	2
155	155	2
186	186	10
87	87	3
189	191	2
68	126	1
172	173	1
9	9	2
39	39	2
59	59	5
164	164	1
140	140	1
21	21	3
101	105	2
74	74	2
185	185	1
20	23	2
62	63	3
118	132	3
41	41	4
118	131	3
186	188	1
21	23	1
142	143	1
73	73	2
160	162	3
62	123	1
94	99	1
74	75	2
161	162	1
141	151	2
81	84	1
189	189	2
9	38	3
16	20	3
187	188	1
168	194	1
65	66	2
122	123	1
119	119	2
185	186	3
173	174	3
11	44	1
116	116	4
189	190	3
103	104	2
51	143	1
86	86	2
7	7	2
178	178	2
163	163	2
171	172	1
132	132	4
94	98	1
80	80	2
51	145	1
104	109	1
101	101	1
177	177	1
96	97	2
11	38	2
115	138	1
77	123	1
105	107	3
128	129	3
48	49	1
64	64	2
53	54	1
20	20	1
146	147	1
161	167	1
83	83	2
194	196	1
49	170	1
178	179	1
159	188	2
190	191	1
67	127	2
123	125	1
61	63	1
31	32	2
176	176	1
66	68	1
60	79	1
158	158	3
149	149	2
81	83	1
116	118	1
6	6	1
89	90	1
9	10	1
147	191	1
119	131	1
16	34	1
118	135	1
150	170	1
77	84	1
3	5	1
66	128	1
61	131	1
42	43	1
38	42	1
5	42	1
61	78	1
49	50	1
