33	33	20
11	11	5
128	128	7
142	142	18
14	141	2
35	35	6
44	66	1
187	187	10
166	166	4
55	55	18
5	5	9
38	38	14
58	58	18
31	31	16
139	139	10
155	155	14
167	168	2
15	15	20
36	36	8
117	118	3
168	168	5
185	185	14
86	93	1
133	133	12
74	93	2
146	146	4
165	167	3
124	124	16
87	90	3
176	176	7
150	150	16
194	194	8
113	118	1
41	41	13
107	108	7
186	186	6
16	16	9
158	158	13
152	152	13
28	28	13
68	68	12
78	78	23
42	43	7
177	178	2
40	40	4
47	47	21
136	136	15
179	179	12
140	140	8
53	53	21
43	43	11
155	170	4
181	181	7
70	70	16
33	34	3
61	78	3
157	157	11
17	17	16
81	86	2
37	38	3
49	49	15
1	42	4
81	135	2
169	169	6
81	82	2
127	127	7
45	51	1
138	138	11
193	193	19
133	134	2
121	121	7
196	196	12
67	67	6
122	123	3
53	54	4
114	144	4
29	29	5
39	39	18
87	87	14
189	189	8
24	24	12
116	119	1
12	12	18
64	64	10
180	181	5
74	75	3
99	100	4
34	34	10
30	30	12
184	184	17
116	116	8
162	162	4
16	17	5
5	7	2
153	153	6
79	79	14
42	42	11
83	84	3
150	187	3
110	110	9
20	21	10
117	117	4
119	119	18
57	57	11
1	1	10
45	45	9
135	135	7
134	134	3
69	97	7
123	149	4
76	80	2
48	48	12
123	123	12
107	118	4
5	23	1
19	19	4
102	103	2
56	56	5
32	44	2
137	137	11
95	95	6
142	151	2
44	67	2
22	23	5
177	177	7
61	61	7
16	192	4
144	144	11
0	0	5
159	159	8
38	62	4
71	71	9
185	186	8
189	190	4
113	116	3
0	181	3
7	39	3
121	169	1
141	141	5
149	149	13
63	65	2
99	99	4
129	129	15
183	183	12
128	129	4
74	74	4
180	180	8
155	157	2
152	153	4
16	18	2
143	145	3
51	51	5
25	25	5
100	117	5
120	120	5
80	80	6
25	45	2
2	63	1
70	71	4
107	107	9
108	111	2
132	132	11
181	192	2
113	113	9
141	151	1
85	86	2
126	127	5
63	63	6
170	170	5
27	27	11
51	52	2
171	171	8
34	78	3
106	106	18
156	156	17
174	174	5
192	192	7
82	84	2
72	72	11
59	59	7
144	145	5
181	182	5
70	73	4
117	156	1
34	37	4
150	167	1
84	86	3
34	43	3
124	125	9
88	88	12
101	101	13
73	73	4
143	143	8
119	120	2
30	31	3
45	65	1
39	40	8
32	32	14
168	185	5
13	13	9
115	116	4
76	76	3
89	89	6
85	85	8
164	167	2
151	151	12
62	62	12
150	152	1
44	45	1
69	69	6
39	125	3
73	93	1
9	10	4
18	18	2
169	178	4
176	177	2
104	104	16
123	166	2
195	195	10
52	52	5
44	44	3
46	46	10
135	136	1
148	148	3
183	184	3
131	131	5
134	135	7
82	82	4
54	54	17
54	56	2
87	89	2
3	4	4
112	112	6
179	181	5
75	75	4
100	108	4
182	189	4
196	197	9
138	153	1
97	97	6
21	23	2
170	188	2
173	174	5
169	171	1
81	81	4
182	182	12
43	44	5
137	139	2
160	172	3
19	20	2
15	195	3
115	115	4
173	173	8
118	118	10
66	66	12
10	37	1
100	101	1
122	122	3
109	109	11
165	192	3
62	70	1
14	14	3
37	73	2
66	136	1
103	103	2
175	175	5
188	188	12
111	111	6
86	87	3
159	186	1
160	175	2
24	25	3
119	141	2
86	86	5
0	2	2
116	150	1
105	105	2
65	65	8
190	190	5
138	139	3
36	78	2
101	113	1
19	69	6
26	26	6
34	36	3
38	55	2
136	137	3
161	161	5
50	50	4
27	30	2
60	61	2
130	131	3
197	197	7
6	6	4
31	44	1
17	18	3
54	55	4
114	114	16
96	97	2
155	156	2
96	105	4
9	9	9
147	147	3
47	54	2
0	1	1
108	119	1
22	25	2
114	130	2
131	132	3
37	37	8
21	21	7
154	155	11
73	101	3
100	100	2
160	170	3
149	150	2
42	78	3
104	105	2
174	175	2
138	146	1
6	46	2
113	145	1
4	30	1
123	124	1
67	68	6
108	108	2
34	35	8
27	28	2
126	126	1
50	51	3
125	125	4
151	152	2
130	130	4
44	46	8
137	138	1
63	72	1
80	86	2
172	175	1
64	65	4
2	2	1
159	169	2
127	128	10
79	80	1
21	22	3
163	179	4
178	179	5
100	119	1
187	188	3
4	133	1
60	60	8
48	49	6
61	123	3
80	82	5
132	133	5
165	165	3
96	96	4
148	193	1
102	111	1
6	7	1
141	142	2
172	172	9
116	117	1
179	190	1
103	104	5
88	110	6
14	17	2
169	194	2
189	192	2
167	169	1
152	183	1
113	114	2
182	183	3
117	155	2
63	64	3
158	159	1
94	96	2
28	29	4
145	146	2
116	143	1
20	115	2
163	163	4
14	15	4
145	145	3
84	84	3
58	105	1
8	8	5
73	74	4
191	191	9
171	184	1
8	38	1
108	109	2
18	27	1
168	170	1
174	176	1
77	78	5
59	60	5
77	86	1
4	8	2
140	141	1
157	159	1
32	55	1
13	14	3
110	111	3
179	183	1
30	59	2
47	48	2
109	120	1
125	182	1
20	25	1
39	44	2
184	186	1
20	20	6
10	10	4
77	77	4
118	154	2
36	37	4
154	154	3
5	8	2
148	149	4
56	57	1
11	12	3
173	187	3
173	176	2
41	42	1
15	17	2
34	42	2
121	155	2
122	124	1
71	72	1
11	69	1
5	9	1
128	168	1
19	46	1
52	53	1
142	143	3
93	93	1
186	192	2
193	194	3
98	101	1
170	186	2
61	62	2
23	23	2
135	137	1
17	89	1
146	150	1
26	41	1
5	6	1
147	170	1
22	22	3
10	67	2
51	69	2
106	142	1
98	114	1
55	72	1
114	122	1
12	17	1
47	49	1
184	185	1
114	143	1
158	160	1
132	139	1
25	26	2
102	102	3
60	105	1
159	160	2
107	148	1
151	174	2
72	74	1
157	161	1
98	98	2
121	126	2
57	106	1
49	141	2
56	67	1
112	113	1
97	98	1
125	168	3
109	164	1
171	172	3
31	46	3
95	101	2
54	196	1
178	178	3
4	5	1
168	169	3
75	80	1
158	176	1
89	90	2
138	140	2
191	192	1
76	77	2
59	61	1
106	129	2
150	170	1
167	167	1
59	62	1
4	69	1
160	160	4
141	145	1
3	66	2
54	197	2
169	170	1
68	69	1
24	26	2
165	166	1
35	77	1
93	96	3
176	178	2
142	149	1
45	46	1
54	166	1
164	164	2
39	42	1
37	42	1
51	70	1
87	93	1
5	185	1
6	25	1
112	117	1
0	84	1
82	83	1
24	46	1
119	121	1
29	30	1
60	62	1
51	54	1
159	185	2
24	27	1
170	171	1
9	187	1
33	69	1
144	172	1
87	99	2
157	160	1
150	151	1
179	184	1
130	182	1
190	191	1
0	3	1
113	129	1
94	95	1
49	50	1
149	154	1
