80	80	4
128	128	12
60	88	3
149	149	8
65	65	3
157	157	5
168	168	11
115	116	7
188	188	9
168	215	3
95	97	2
15	58	3
194	194	10
167	169	4
111	111	6
143	144	4
186	186	8
206	218	2
101	101	3
199	199	18
234	234	9
215	215	5
24	37	4
184	186	3
72	73	1
99	99	7
146	146	12
49	49	6
233	233	4
224	224	4
207	209	6
127	205	4
21	21	11
182	182	6
172	172	3
69	69	7
147	148	5
120	188	1
54	55	3
173	173	10
221	222	8
72	72	8
102	102	4
175	175	18
172	173	5
72	235	1
145	147	2
63	69	1
156	158	1
10	10	9
19	19	2
141	142	7
26	26	8
171	171	14
211	213	3
73	73	4
9	29	1
207	207	3
201	201	16
216	216	1
192	194	1
38	39	3
225	225	20
151	151	5
175	176	9
25	25	11
145	145	8
121	121	8
33	34	7
71	71	12
220	221	9
225	231	5
135	135	10
180	181	3
72	107	1
169	169	9
159	159	6
152	152	13
40	40	19
44	44	14
172	204	5
227	227	11
31	32	6
3	87	5
218	219	5
10	28	1
69	172	2
96	181	2
138	138	10
136	150	1
185	190	1
52	52	7
140	144	2
43	44	2
96	97	2
15	15	14
214	215	8
219	233	4
96	96	6
57	57	6
31	31	15
9	9	6
103	103	5
148	149	2
220	220	13
106	107	5
196	197	6
18	18	5
86	86	6
100	100	4
136	162	1
226	227	4
16	179	3
48	48	10
56	56	11
139	139	13
27	27	10
20	20	11
229	230	8
83	83	4
212	212	21
46	46	9
73	105	1
17	18	4
153	165	1
95	107	2
134	134	4
213	213	7
195	195	7
116	116	4
6	7	3
170	171	7
204	218	2
29	29	7
138	139	4
61	64	1
217	218	5
109	109	8
153	153	8
98	98	5
203	204	3
50	52	3
240	240	5
183	184	9
178	178	14
35	35	8
160	160	7
136	136	12
16	16	3
160	173	10
204	204	10
230	230	10
12	13	4
198	198	18
220	228	5
153	154	5
176	176	13
137	137	18
210	210	8
25	43	2
5	5	4
219	219	11
77	78	2
77	79	3
61	61	8
120	120	7
97	97	8
217	219	1
229	229	4
200	200	10
166	198	3
104	104	4
146	148	4
203	203	6
30	30	10
217	217	17
32	32	6
63	63	4
5	80	1
66	67	1
137	150	7
81	82	6
62	86	3
142	143	3
12	12	3
161	161	8
118	118	7
197	223	2
189	189	15
175	186	5
177	192	2
56	179	1
122	123	3
13	14	2
155	155	6
143	143	4
112	112	5
181	181	10
227	229	1
64	64	5
180	180	15
231	231	8
235	235	4
242	242	5
0	0	12
8	8	8
14	22	1
218	218	7
20	22	2
222	222	6
120	145	3
11	13	4
183	183	7
85	85	9
47	47	5
159	176	4
209	209	3
141	141	13
85	113	3
129	129	3
179	180	3
124	125	1
59	59	2
171	204	1
58	59	2
20	37	2
14	178	1
46	47	4
8	59	2
127	127	13
206	225	2
97	150	4
123	124	5
4	4	3
37	37	5
14	14	5
105	105	5
165	166	3
39	41	6
84	84	14
129	130	7
48	49	6
120	191	2
223	225	3
209	224	1
203	211	2
191	191	14
45	242	3
40	41	2
181	183	1
198	201	4
147	147	3
74	160	3
22	22	5
44	45	3
60	61	2
175	195	4
43	43	7
41	42	1
55	113	3
112	113	1
172	222	3
92	96	4
60	60	6
197	197	13
144	144	2
119	143	2
167	168	4
228	231	3
187	187	2
167	167	9
39	40	4
30	96	2
42	49	3
113	113	11
43	46	5
162	163	2
184	184	12
210	211	3
108	108	6
205	206	6
39	39	10
38	38	3
157	162	1
183	186	3
66	66	8
237	237	4
231	232	2
172	220	3
144	189	5
28	28	9
64	65	5
119	119	1
75	75	2
24	24	3
122	122	8
140	140	2
37	38	5
221	225	3
11	11	7
71	72	2
115	119	1
9	33	1
75	81	1
8	34	2
61	62	8
99	146	2
13	13	1
196	198	2
196	196	6
223	223	9
228	228	15
204	211	2
50	50	3
34	34	2
203	235	6
116	117	2
136	201	2
131	135	1
214	214	6
11	12	4
186	187	3
6	6	6
134	200	1
1	1	1
174	174	8
127	225	1
212	213	8
136	166	4
140	162	2
190	190	6
193	193	8
205	205	3
208	222	1
19	54	3
202	202	7
182	187	1
3	3	2
75	234	2
126	127	1
0	24	2
148	148	2
23	36	3
2	5	2
68	68	2
49	50	3
208	208	6
150	150	7
23	23	5
29	31	2
196	223	2
31	33	1
17	17	9
242	243	1
130	130	3
22	23	3
53	53	4
21	40	1
209	220	6
62	63	5
85	86	1
174	228	3
31	96	2
236	237	4
139	140	2
177	178	8
149	150	1
57	58	5
108	110	1
179	179	8
63	64	1
119	120	1
235	236	13
42	42	6
95	95	5
185	188	3
151	152	4
159	184	1
172	215	1
226	226	2
12	192	3
238	239	2
74	75	3
211	211	4
41	41	1
177	177	3
16	21	2
7	7	2
71	121	3
123	123	1
152	158	2
233	234	1
11	191	1
54	54	3
188	190	4
98	99	1
166	166	5
62	62	9
154	225	5
63	85	1
125	126	4
8	9	2
110	116	1
207	212	1
238	238	6
197	198	7
11	201	3
107	107	6
114	114	3
169	171	3
229	231	3
58	58	3
141	143	2
30	31	3
42	43	5
103	105	3
174	232	1
51	51	2
48	60	1
160	161	2
78	78	3
149	158	2
3	49	1
125	125	3
50	51	4
5	6	1
135	157	1
136	138	1
137	138	7
162	162	2
36	36	3
103	142	3
160	174	2
190	191	2
19	23	3
239	239	1
236	236	5
158	158	3
223	224	7
4	5	3
68	69	1
206	219	1
24	25	1
152	153	3
88	88	1
221	221	8
45	45	5
180	182	2
155	156	5
9	10	5
176	177	1
146	147	5
95	96	4
159	161	2
64	69	2
32	54	1
144	145	4
127	184	1
98	181	1
187	188	3
67	67	3
223	226	1
152	166	4
156	156	2
159	160	1
178	179	2
1	80	2
83	84	2
109	156	2
5	8	2
135	136	2
153	156	4
165	165	4
15	191	1
222	223	1
20	54	1
140	143	3
120	189	1
29	32	1
2	2	1
174	175	1
207	208	1
145	146	2
164	164	4
131	131	1
191	193	1
158	159	2
1	3	1
141	191	3
45	63	2
141	144	3
171	213	2
70	70	7
141	146	1
115	115	5
123	126	1
19	22	1
57	59	2
104	117	3
46	48	1
24	26	3
192	192	5
49	52	2
37	39	1
219	220	1
136	137	2
154	154	1
206	206	1
15	178	2
146	188	1
133	133	4
170	170	2
167	170	1
172	186	3
232	232	9
142	142	2
224	225	3
78	84	3
195	200	1
194	202	2
81	81	1
55	55	1
67	85	3
228	230	1
201	202	2
1	2	1
127	128	6
191	192	1
137	142	1
20	21	1
214	216	1
42	51	1
185	186	2
166	197	2
232	233	2
32	33	1
100	122	1
132	132	2
64	125	3
99	100	4
12	141	2
71	104	1
185	185	1
227	228	2
199	200	2
82	82	1
110	187	2
148	186	1
152	183	1
241	241	1
25	40	1
11	25	1
3	8	2
171	212	2
140	141	1
119	146	1
14	15	1
91	91	3
1	24	1
182	233	3
74	74	1
67	68	1
225	227	1
194	195	1
154	155	1
82	83	2
124	124	1
181	186	1
177	191	2
27	66	1
7	9	1
107	108	1
59	60	1
80	118	1
16	17	1
220	224	1
166	167	1
118	119	1
119	154	1
11	58	1
106	106	2
84	190	1
163	163	1
86	113	2
0	1	1
128	225	1
80	84	1
163	164	2
9	34	1
104	126	1
183	203	1
123	203	1
80	82	1
69	73	1
70	71	1
15	17	2
4	7	1
21	236	1
51	52	1
143	164	2
1	76	1
173	174	1
18	19	1
137	145	1
22	35	1
124	191	1
214	222	1
13	177	1
76	76	1
