36	37	3
0	98	5
50	67	5
94	94	16
2	8	3
23	35	1
105	105	9
19	19	5
134	134	11
32	32	11
45	63	2
52	56	2
1	98	1
35	35	9
127	127	9
71	97	3
70	70	13
113	113	3
77	77	10
56	57	5
22	27	2
80	86	4
114	115	2
53	53	10
79	89	2
68	68	14
20	20	6
89	89	11
113	115	1
25	25	13
3	5	2
58	58	2
83	83	9
6	7	1
5	5	5
16	16	6
99	99	9
31	31	6
65	65	6
130	130	2
122	122	3
34	34	2
7	7	6
74	74	15
58	59	8
101	101	12
2	2	11
86	86	11
86	87	1
133	133	2
5	38	4
104	116	8
93	95	2
107	115	2
63	63	6
50	50	3
15	15	6
63	64	2
71	71	15
54	56	1
3	4	3
6	6	8
133	134	5
59	83	5
129	129	5
26	27	2
4	4	11
135	135	4
8	83	2
103	104	4
44	45	10
124	125	2
8	82	1
112	112	7
21	22	5
126	126	3
121	121	14
30	31	1
55	56	3
43	43	19
71	103	5
83	84	5
62	62	2
66	67	3
104	104	16
109	131	4
5	22	1
61	81	3
33	33	7
80	80	5
27	27	10
68	69	6
36	36	16
13	13	11
120	121	5
23	33	3
24	25	2
59	59	8
52	52	2
93	93	10
67	67	2
106	107	5
84	86	2
111	112	6
24	24	10
88	88	9
49	53	1
105	114	7
114	114	6
30	30	9
119	119	6
47	48	1
24	27	2
100	100	3
118	118	4
96	96	9
80	111	2
79	81	3
82	91	5
0	0	12
111	111	3
108	108	5
42	42	1
75	134	5
49	49	2
85	85	2
26	26	9
76	76	6
44	44	6
75	75	7
128	128	4
10	37	2
126	127	3
69	70	3
33	34	4
22	36	2
78	86	2
6	38	1
53	65	3
97	97	6
69	69	3
14	14	8
66	66	3
97	98	2
123	123	11
61	61	7
25	26	4
94	103	1
84	84	5
72	72	16
21	21	13
18	18	4
52	53	1
45	65	2
38	80	3
45	100	1
23	23	7
130	132	6
105	111	3
62	63	1
103	103	13
89	103	1
95	95	6
12	12	1
20	21	1
11	24	1
20	114	1
124	124	3
29	29	7
78	78	4
117	117	5
120	120	2
89	92	3
92	92	3
37	37	5
116	116	2
110	110	2
7	9	1
8	9	7
82	85	6
102	103	1
102	102	5
98	98	7
79	79	8
8	8	2
89	98	1
7	10	1
5	43	2
95	102	1
132	132	3
118	122	2
11	35	1
94	95	4
82	82	3
92	97	4
22	35	2
90	90	5
64	65	3
27	29	3
27	28	5
73	99	2
10	10	5
55	55	2
130	133	5
89	94	2
79	80	2
19	20	1
14	15	4
44	91	2
131	131	8
106	106	5
13	15	1
100	101	1
83	85	6
17	19	4
51	54	2
77	78	5
116	117	4
11	36	1
115	117	1
113	117	1
9	9	2
125	128	2
56	58	2
96	98	4
60	60	2
82	84	1
3	3	3
107	111	1
45	45	1
73	74	3
14	19	3
9	10	3
86	90	2
107	107	3
29	30	2
106	119	1
55	58	2
81	81	2
16	17	2
66	68	2
24	33	2
88	89	3
11	14	1
125	125	4
1	43	1
130	131	4
43	99	1
87	108	2
64	64	4
20	30	2
52	90	1
19	32	5
126	133	2
92	94	3
5	6	2
6	35	3
57	108	1
15	16	2
75	76	3
16	33	1
44	46	1
1	1	2
11	32	1
109	109	2
76	99	2
47	53	1
14	33	2
22	28	1
43	78	1
79	85	1
50	88	1
112	119	2
108	122	3
28	29	2
89	90	2
15	17	2
38	93	2
80	87	1
37	38	1
91	92	3
48	48	3
50	51	2
45	101	1
115	115	2
61	77	1
68	95	1
119	123	1
16	18	2
11	11	4
2	3	2
28	28	2
13	32	2
17	17	1
87	87	1
76	124	3
107	114	1
43	93	1
61	62	1
96	97	1
22	24	1
13	14	1
12	13	2
54	54	4
16	19	1
23	34	3
126	134	1
116	129	1
117	119	1
97	103	1
45	46	2
48	49	1
5	91	1
25	27	2
54	55	1
113	118	1
134	135	3
6	10	2
10	24	2
54	87	2
81	98	1
73	104	1
131	134	1
3	69	1
68	91	1
111	134	1
80	82	1
59	103	1
80	84	2
127	129	1
18	21	1
52	89	1
67	68	1
22	23	1
22	22	1
10	25	1
69	103	1
95	96	1
56	86	1
4	5	1
73	73	1
87	88	1
88	101	1
104	123	1
78	83	1
90	103	1
47	47	1
11	12	1
75	120	1
113	120	1
43	65	1
