97	99	2
98	106	3
92	92	6
36	36	16
57	57	2
37	37	4
41	41	3
1	1	5
65	65	9
127	127	6
99	99	6
82	82	7
12	17	8
0	0	3
47	47	8
101	105	2
88	89	1
11	42	3
4	4	4
81	81	4
69	116	2
63	63	10
72	112	1
92	93	1
25	26	1
15	27	3
39	39	4
91	91	6
64	64	7
14	81	7
117	117	6
124	130	2
42	42	9
9	49	2
32	32	4
37	45	7
72	72	3
116	116	9
58	58	3
113	113	5
106	107	3
17	17	1
103	104	2
29	35	2
76	76	5
107	107	4
0	46	6
2	2	5
103	103	2
48	49	3
99	110	8
15	15	5
90	91	7
19	40	2
10	43	1
119	119	4
30	33	4
108	109	2
29	29	2
62	62	7
108	108	1
16	23	3
19	20	10
45	45	3
133	133	5
127	131	2
11	11	6
72	97	2
60	61	4
122	122	6
84	85	4
13	30	2
27	28	3
30	30	5
12	12	3
78	78	7
44	44	7
11	44	2
97	98	3
11	41	2
32	35	3
13	34	2
109	124	2
128	131	2
134	134	10
75	76	3
35	35	4
108	122	3
97	97	3
43	45	3
18	18	2
27	27	5
27	29	5
10	10	3
3	3	1
13	13	3
13	29	1
83	89	2
56	58	3
124	125	1
88	88	1
46	46	3
4	59	3
10	11	2
20	39	5
83	83	4
100	104	2
22	22	8
132	132	1
94	95	2
123	126	5
56	57	1
80	80	6
103	107	2
66	66	1
22	25	3
19	19	2
75	75	4
69	113	2
100	132	4
100	100	5
23	39	1
8	8	1
22	39	1
35	37	4
78	96	2
21	21	1
124	124	4
94	110	1
126	126	3
128	128	5
8	47	1
109	109	3
96	96	1
114	114	4
120	120	5
83	91	3
40	40	10
118	118	3
89	89	1
13	42	1
24	25	8
86	86	3
102	104	3
90	90	7
20	20	2
115	115	4
131	131	4
50	50	6
95	95	1
122	123	3
79	79	3
85	85	5
123	123	2
37	38	5
48	48	6
77	78	1
6	6	9
112	112	3
72	115	3
24	46	1
48	55	3
76	77	2
56	56	3
108	115	1
34	34	4
47	48	2
77	86	6
22	23	2
17	34	1
31	31	3
57	58	1
121	122	2
16	16	2
74	74	2
9	47	4
20	38	1
16	17	2
73	73	2
14	32	1
117	123	3
77	82	1
67	68	1
98	98	1
1	2	1
61	61	1
77	85	1
71	71	2
5	8	2
107	110	1
16	35	1
37	41	3
12	44	2
55	56	1
110	110	2
129	129	2
118	124	2
93	108	1
94	108	1
8	49	2
5	5	1
23	24	2
30	32	1
11	12	1
9	9	1
71	72	1
94	94	1
26	75	1
129	130	1
79	80	2
93	93	1
117	125	1
70	70	2
68	68	1
84	84	1
69	70	1
35	45	3
23	25	1
59	59	1
125	134	1
60	60	1
78	79	2
12	45	2
26	26	1
33	33	1
125	133	1
107	111	1
7	7	1
69	69	1
10	17	2
