137	179	4
25	28	1
10	11	1
153	154	2
57	60	4
36	36	5
112	139	6
16	16	19
63	64	3
35	36	5
82	82	7
41	41	5
12	51	2
15	15	18
4	5	7
103	103	3
132	132	2
66	67	2
6	27	1
160	160	8
117	122	1
95	95	11
116	118	6
110	140	2
113	178	2
34	34	5
43	44	5
128	129	1
25	44	1
163	163	3
11	63	4
35	35	12
100	100	16
63	63	10
166	168	4
107	107	12
123	123	11
12	13	3
33	33	7
19	22	1
27	60	2
142	142	8
60	60	9
112	113	5
66	66	5
179	179	11
2	2	5
122	122	4
113	113	7
146	148	1
78	105	7
23	23	4
152	152	16
13	50	1
68	68	9
79	138	12
88	88	1
34	43	1
153	153	10
50	50	11
18	18	8
94	94	6
29	43	5
76	84	3
101	101	5
147	147	8
3	3	10
33	37	4
132	134	1
112	141	1
12	14	1
90	95	3
149	150	7
4	4	16
138	138	12
108	108	12
105	105	4
144	144	10
99	99	5
75	75	7
79	79	14
177	177	1
10	10	8
134	134	5
136	136	3
141	145	2
52	131	4
15	16	8
91	91	13
158	161	4
24	29	4
167	168	11
140	140	3
170	170	14
74	74	13
78	79	8
112	149	7
157	159	3
6	6	10
130	143	5
91	92	4
111	111	4
10	61	3
173	173	3
127	128	7
174	175	5
32	32	3
81	82	4
132	143	2
19	21	1
45	45	10
55	55	8
22	24	7
155	155	4
2	3	2
16	65	2
168	168	13
75	80	4
132	133	7
71	71	10
172	172	4
112	114	5
37	37	8
91	93	5
80	105	2
156	156	13
159	159	2
18	21	1
121	121	10
58	58	4
24	24	8
6	10	1
86	88	2
6	22	2
111	128	2
5	5	16
106	106	13
159	176	2
135	135	9
84	84	1
176	176	7
167	167	8
115	149	1
34	35	10
124	124	5
139	179	4
149	157	3
130	130	9
54	54	9
139	139	6
80	125	4
58	74	2
17	61	2
157	157	6
80	80	11
25	25	5
65	66	6
89	93	3
80	179	3
180	180	8
137	137	9
96	107	3
143	145	7
18	22	3
76	81	3
161	161	7
58	59	3
42	42	10
89	94	2
53	73	2
24	43	2
116	179	3
93	93	5
0	60	3
151	155	3
115	132	4
158	158	3
111	146	6
17	17	7
97	97	10
46	46	3
108	140	2
128	149	4
53	54	3
73	73	8
164	165	1
148	153	4
49	50	4
141	146	1
31	31	7
179	180	4
148	148	2
20	20	4
92	92	12
9	9	10
141	143	7
89	89	8
89	90	5
133	133	7
134	180	3
24	28	6
7	27	3
114	114	8
127	127	5
9	18	3
88	89	4
30	31	4
152	163	8
2	4	3
26	26	5
64	64	7
14	14	3
8	49	6
150	151	3
13	13	6
113	124	1
125	125	2
39	39	8
164	172	2
6	18	1
8	8	7
112	112	4
59	59	4
14	62	2
43	43	11
165	165	6
120	127	6
167	169	2
128	141	1
130	145	1
11	12	4
76	87	2
162	162	5
87	87	3
40	40	4
11	11	6
114	179	1
129	129	4
153	174	2
15	65	4
56	58	3
62	93	1
59	73	3
80	81	4
68	74	1
117	118	1
100	101	6
25	26	5
9	10	8
149	149	7
129	132	3
65	65	6
101	108	1
164	164	3
151	151	3
90	94	5
30	30	3
92	93	1
98	101	2
124	179	2
11	16	3
169	170	1
15	97	1
57	57	4
64	74	1
141	141	5
126	141	3
55	72	2
170	171	2
52	74	1
76	76	5
178	178	4
112	146	1
78	78	10
50	62	2
120	120	12
0	0	4
57	58	4
169	169	5
147	154	6
37	39	1
18	24	2
56	71	2
98	98	2
76	80	2
115	115	6
116	116	1
78	106	4
29	29	10
106	107	6
79	80	3
5	59	3
173	175	3
62	62	4
62	64	1
65	80	1
164	177	1
5	7	3
38	38	8
94	95	2
16	66	1
96	96	3
162	163	3
148	175	1
76	90	3
1	1	2
166	166	11
71	86	4
124	126	2
105	106	6
138	139	1
101	102	3
96	97	2
32	34	5
110	110	3
55	58	3
12	12	3
24	25	3
64	96	2
5	9	2
30	32	3
15	95	1
53	61	2
1	4	2
116	117	2
28	28	4
158	159	1
83	84	2
72	72	4
118	118	4
123	130	1
98	99	3
146	146	3
114	115	4
77	78	2
56	56	3
22	23	1
143	144	1
54	55	2
71	87	1
26	44	1
98	100	3
37	38	1
123	133	1
102	105	2
21	21	3
87	138	1
109	109	1
16	96	2
115	121	1
17	52	4
67	67	1
70	71	2
177	179	5
10	16	1
147	153	4
76	88	2
57	73	1
120	129	1
77	77	1
38	39	3
114	139	1
61	64	3
175	175	1
90	90	3
1	6	4
125	179	1
102	102	7
104	104	3
122	123	3
5	80	2
81	81	1
4	6	2
134	135	2
27	27	1
53	74	3
27	45	1
22	44	1
129	130	2
123	125	1
88	135	1
119	119	6
9	11	1
112	126	2
108	109	2
85	86	1
151	152	3
93	94	1
156	162	2
61	61	1
171	171	2
53	53	2
25	27	3
117	117	1
52	52	1
65	104	2
86	86	2
157	162	1
87	88	1
155	156	2
8	51	1
49	49	2
131	131	1
91	143	2
51	92	1
22	22	1
82	135	1
9	12	1
22	49	1
59	60	1
16	17	1
120	121	1
148	154	2
154	158	1
157	160	1
81	124	1
83	85	1
148	156	1
158	160	2
29	31	1
20	22	1
24	31	3
7	7	2
153	173	2
50	51	1
150	157	1
27	31	1
114	124	2
52	53	2
143	143	1
32	37	1
33	39	1
91	109	2
134	136	1
45	46	1
122	179	1
56	72	1
135	136	1
17	53	1
154	156	1
31	43	1
65	97	1
72	73	1
16	74	1
63	93	1
35	42	1
98	102	1
81	123	1
127	141	1
