90	90	21
13	13	7
20	23	2
38	39	8
132	132	3
155	156	2
158	159	3
29	29	12
101	101	3
16	16	5
123	123	8
89	89	8
114	114	6
120	138	1
96	96	8
114	115	1
121	121	3
3	3	4
109	109	12
61	64	3
118	118	1
38	38	5
94	95	1
44	44	11
30	31	4
77	78	7
79	79	5
134	134	10
98	98	12
76	77	1
142	142	7
34	34	9
46	46	12
80	80	4
23	23	7
131	131	3
137	155	3
0	0	2
32	32	5
19	19	8
106	121	5
94	94	8
36	38	5
139	139	10
25	25	2
15	15	4
145	145	6
25	26	7
6	101	1
107	139	3
2	4	3
98	99	1
83	83	4
27	27	7
14	14	6
104	104	12
53	53	12
146	146	5
122	122	5
111	113	4
135	148	3
149	149	4
112	112	6
137	138	5
108	111	2
150	150	6
85	85	4
137	137	11
144	145	2
23	25	4
132	149	3
40	40	5
6	6	3
125	142	2
7	7	6
1	1	1
105	105	3
140	140	4
70	72	2
43	43	9
154	154	4
35	35	8
78	89	3
151	152	6
22	22	7
12	12	10
130	130	7
26	26	8
21	21	8
67	67	4
130	131	2
41	42	3
103	104	5
109	110	1
49	55	2
105	106	4
110	110	4
149	150	4
48	49	3
124	124	5
108	108	7
49	49	6
7	40	2
45	48	2
123	124	1
132	133	9
138	138	7
77	77	6
19	21	5
136	136	19
14	15	6
41	41	5
18	19	4
28	29	7
96	101	5
116	116	16
69	69	9
117	117	13
157	158	3
28	28	7
17	19	4
111	111	2
134	144	3
83	86	2
156	156	12
63	63	2
5	5	5
93	93	10
108	121	3
11	11	9
155	155	7
69	70	5
7	103	1
99	99	16
65	65	6
20	20	8
84	84	12
39	55	4
112	113	2
68	69	3
118	119	2
135	135	5
148	148	6
63	64	1
21	22	2
4	4	5
129	129	2
141	141	4
70	70	11
51	69	2
45	70	4
24	24	4
47	50	3
88	88	7
88	89	2
48	48	6
95	95	1
12	18	1
22	23	5
73	73	2
10	10	6
91	91	4
17	17	3
54	55	2
147	147	1
140	141	3
125	125	6
151	151	3
133	133	6
92	92	4
87	87	6
90	92	2
65	66	1
68	68	9
158	158	3
107	107	6
2	2	10
123	146	1
50	71	1
109	111	3
46	56	1
106	106	4
119	120	7
46	55	1
30	30	5
121	122	5
41	103	4
47	70	1
47	47	5
115	116	2
8	40	1
68	70	2
17	30	4
56	56	3
23	24	4
51	51	5
63	103	1
103	103	2
18	26	2
152	154	1
0	3	2
110	111	1
102	113	2
90	91	1
115	115	2
95	105	1
150	151	1
152	152	2
127	129	4
81	82	3
149	151	1
31	32	3
81	87	1
78	78	1
51	52	1
18	20	2
9	109	2
123	148	1
11	12	2
101	103	2
114	120	2
156	157	4
107	112	1
39	39	4
96	105	3
64	103	2
7	8	5
82	82	1
31	31	2
37	37	3
8	8	6
40	41	3
70	71	2
135	137	2
9	10	5
38	56	2
77	79	1
1	3	1
16	29	3
121	123	1
3	128	4
143	143	5
96	100	4
157	157	1
10	13	1
100	101	6
126	140	2
7	111	3
15	16	1
66	71	1
69	72	1
96	106	1
50	50	2
66	76	1
66	66	1
52	52	6
104	113	1
71	71	2
46	54	1
16	17	1
73	74	1
134	151	4
102	102	4
97	97	2
55	55	4
131	132	1
68	71	1
148	149	2
113	113	3
37	84	1
81	81	4
51	54	2
7	127	1
126	126	4
64	90	1
75	75	2
110	123	1
50	51	1
87	88	1
66	102	2
125	130	2
119	119	3
33	34	1
45	45	2
27	28	4
92	93	2
122	133	2
42	42	6
67	71	1
80	89	2
66	67	1
54	54	2
138	140	2
80	81	3
45	55	5
128	128	1
100	100	4
9	9	1
54	67	1
78	79	1
136	137	1
64	65	1
139	140	2
12	13	3
124	142	1
86	86	2
108	110	1
94	105	1
51	70	1
18	18	3
13	15	1
20	21	1
123	125	2
43	55	2
10	124	2
77	88	1
79	80	1
72	72	1
10	11	3
33	33	3
52	87	2
5	101	1
134	148	1
67	68	3
79	88	2
68	72	1
32	33	1
97	98	1
129	140	1
21	31	1
99	100	1
120	120	1
25	28	1
36	36	1
131	144	2
35	36	1
159	159	2
106	108	1
116	139	1
101	105	1
6	7	1
42	43	1
1	2	1
16	31	1
