65	68	4
57	66	2
89	91	7
109	109	9
80	80	4
68	69	2
81	86	4
35	35	8
83	85	7
36	36	8
25	25	7
37	37	5
40	109	1
107	107	16
86	102	3
39	41	3
100	100	6
94	94	2
46	46	17
51	51	7
112	112	14
79	80	2
38	39	4
45	47	2
50	50	3
74	75	8
83	83	9
56	56	4
33	35	3
54	54	15
64	68	5
31	31	3
57	102	2
76	77	4
71	71	9
66	68	1
86	87	1
88	90	2
115	115	3
35	36	4
47	49	1
96	98	3
67	67	1
42	42	5
29	29	5
114	114	3
63	64	5
97	97	4
63	63	5
24	89	3
91	91	5
113	113	4
65	65	5
61	62	1
44	44	10
49	49	5
73	73	10
105	109	7
55	60	3
102	102	6
62	62	4
35	47	1
79	79	4
24	24	6
65	69	1
112	113	3
29	30	1
86	86	5
104	104	6
84	85	5
101	102	6
38	38	2
50	100	2
99	99	6
71	77	2
54	55	5
48	48	9
55	56	5
111	113	1
102	107	5
24	31	1
111	111	4
89	89	4
41	41	3
26	95	2
84	84	6
57	64	6
55	57	1
66	67	5
30	30	9
43	61	1
28	28	5
46	47	3
70	70	6
65	67	1
75	75	5
93	93	9
48	49	5
87	87	6
85	85	3
54	56	3
43	43	2
56	59	3
76	90	2
44	45	4
92	92	3
101	101	8
62	67	3
66	99	1
53	55	2
95	95	4
53	53	5
31	32	1
90	91	6
24	33	2
40	46	4
23	49	1
32	47	3
57	57	2
26	26	2
62	74	2
80	81	3
30	34	3
33	36	2
110	111	6
27	27	6
61	61	2
69	70	2
50	51	6
86	89	2
55	111	2
34	34	2
47	104	1
78	78	6
81	81	3
103	103	3
37	49	3
41	43	2
33	34	1
53	112	2
99	100	1
69	73	3
60	60	5
90	90	7
32	32	5
35	38	1
68	68	2
83	84	1
88	91	2
106	106	6
92	94	2
82	82	1
20	98	1
33	33	5
77	77	5
24	30	1
103	104	1
24	45	4
27	28	4
43	48	2
76	88	2
22	23	6
22	110	2
47	47	1
72	77	2
25	26	3
40	41	7
84	98	2
93	94	1
34	35	2
39	43	1
25	99	3
103	107	5
49	108	1
39	39	5
31	48	1
51	90	2
52	99	2
57	61	1
83	101	1
77	78	1
100	101	3
20	20	4
113	114	1
59	59	1
45	45	1
104	106	4
40	40	5
49	105	1
26	29	1
43	44	1
64	64	3
93	95	1
83	89	2
92	93	4
78	80	2
47	109	3
58	59	2
21	22	1
23	85	3
65	81	1
28	31	1
29	113	2
98	99	2
20	22	1
69	69	1
49	50	2
59	64	1
30	94	1
43	47	1
21	21	3
29	91	1
28	96	2
82	84	2
52	113	3
96	99	1
28	30	1
25	101	2
52	109	1
37	39	2
79	81	1
26	27	1
52	52	1
98	98	1
70	75	2
74	74	1
45	51	1
28	98	1
30	97	1
33	46	1
83	100	1
39	40	1
