238	239	14
69	116	9
237	238	3
153	153	15
63	63	25
27	27	14
173	248	2
90	95	1
189	191	6
116	116	14
88	88	23
10	10	16
204	204	29
74	121	3
246	246	17
234	235	7
178	178	45
105	105	14
218	218	18
191	191	24
231	231	15
16	16	12
42	42	15
160	160	27
84	85	12
165	165	25
53	65	1
4	4	20
22	22	17
58	69	3
64	64	18
205	205	27
91	91	20
165	166	3
5	5	27
107	107	15
175	175	28
183	183	25
189	189	21
39	39	18
30	30	18
3	3	16
152	152	21
80	80	18
179	179	20
51	70	3
237	237	30
34	35	13
73	145	2
100	100	20
50	50	19
104	107	2
56	56	16
247	247	32
88	104	4
58	58	38
213	213	15
229	229	23
196	248	1
210	210	11
114	114	10
17	17	19
21	21	11
68	68	23
60	61	16
211	212	12
194	194	21
164	164	13
187	192	2
23	23	35
14	14	27
89	89	12
145	145	12
101	101	25
201	201	19
119	119	24
79	79	18
156	167	5
118	119	12
221	221	21
239	240	13
220	221	3
235	235	21
150	150	20
181	181	26
236	236	16
115	115	4
208	208	11
15	15	13
157	157	25
195	195	15
34	34	30
166	170	1
36	36	24
52	61	2
3	4	7
112	112	30
192	192	14
174	182	2
61	61	16
12	12	18
40	48	3
154	154	17
155	155	23
29	29	13
78	78	16
245	245	13
198	199	9
6	6	13
173	173	18
187	190	11
181	182	12
51	51	28
70	70	7
26	26	24
228	228	31
229	230	6
199	199	12
99	99	17
217	217	14
162	162	12
185	185	26
20	20	37
73	118	1
198	200	5
199	200	6
224	226	4
13	13	3
163	223	2
216	217	13
213	214	12
172	173	7
25	26	10
28	28	26
197	201	1
176	177	9
109	109	22
51	52	4
62	62	22
161	162	5
67	116	5
25	25	17
200	200	27
87	88	6
219	221	3
77	77	20
55	55	20
111	112	18
241	241	17
37	37	24
15	31	2
5	6	11
215	215	22
7	7	21
111	111	29
20	21	7
44	44	17
90	90	15
176	176	22
175	186	5
173	174	8
65	68	4
206	206	12
68	70	11
15	21	5
2	18	4
166	166	13
240	240	17
84	109	4
61	118	2
236	237	5
182	183	9
81	81	20
166	248	2
94	219	4
40	40	13
97	216	5
96	97	5
239	239	47
30	36	1
94	94	19
238	238	30
172	172	23
208	209	11
73	74	6
100	101	10
6	7	10
147	147	9
95	95	28
47	50	7
195	198	2
33	33	19
214	215	8
221	222	12
220	220	21
54	54	9
49	69	3
76	76	41
210	213	4
201	204	3
59	59	29
86	86	15
24	24	9
53	53	26
72	73	7
226	227	10
186	186	12
188	188	29
83	83	5
66	117	1
65	65	22
47	66	2
5	19	4
186	187	7
69	70	12
83	84	6
14	33	4
91	92	5
168	168	17
24	25	6
41	42	4
100	171	3
232	233	14
93	94	6
227	227	15
157	177	3
167	167	14
98	99	11
8	8	26
242	244	8
149	150	5
206	207	4
87	104	3
212	212	24
62	90	3
178	197	5
224	224	21
98	98	21
153	230	2
28	29	6
30	35	1
184	184	13
169	169	21
75	75	20
225	225	8
169	170	15
15	16	2
112	210	5
117	117	9
4	5	8
204	214	5
60	60	19
6	19	1
220	224	1
93	119	5
110	111	10
16	46	2
60	65	5
76	79	3
173	247	5
56	71	2
152	228	6
76	80	4
116	117	3
177	177	15
17	19	7
222	222	24
149	149	2
98	102	4
121	121	3
196	196	13
47	112	2
33	34	14
151	204	10
156	156	19
167	168	1
41	205	4
154	231	5
232	244	1
77	80	4
203	230	1
35	45	11
9	9	11
193	195	5
42	43	6
30	31	3
38	38	14
90	118	1
21	22	8
93	93	15
14	15	6
198	244	2
202	202	22
110	168	4
231	233	2
197	197	15
35	213	2
207	208	4
41	45	3
9	16	3
78	79	10
82	83	12
213	215	7
72	72	17
43	43	11
218	219	16
73	73	14
105	106	7
37	38	18
223	223	8
198	201	8
171	172	10
242	243	18
68	71	6
19	19	9
46	46	14
47	114	3
243	246	2
214	214	13
170	170	8
154	155	6
61	62	4
32	33	5
234	234	20
57	68	2
80	81	7
12	26	1
155	233	2
81	83	2
182	182	23
74	74	11
38	39	18
219	219	10
102	102	23
173	176	6
35	36	2
211	211	16
71	71	32
151	151	18
233	233	18
112	113	9
66	67	4
36	37	2
15	52	3
48	48	9
237	239	1
163	163	27
232	232	13
87	103	4
70	72	3
91	171	2
91	95	3
198	198	13
159	159	17
81	82	5
3	6	4
96	96	8
187	187	20
158	158	15
162	167	5
82	82	10
200	201	7
203	203	16
108	108	11
90	91	4
177	178	1
104	108	5
110	110	32
90	100	1
243	244	15
170	171	5
175	178	2
92	93	3
45	46	6
37	42	6
249	249	5
167	246	3
19	20	5
1	1	14
163	164	4
197	198	12
99	106	4
79	80	8
209	209	11
233	235	2
92	92	9
35	35	19
158	159	1
82	87	1
80	82	5
93	184	2
67	67	7
30	37	7
52	184	2
180	181	7
57	58	4
171	171	12
29	30	6
52	187	2
57	57	21
32	32	15
47	47	10
56	57	4
174	175	7
190	190	14
183	185	1
94	96	4
157	159	2
191	193	4
174	174	17
89	90	12
106	106	17
228	231	6
193	194	3
14	66	1
69	69	27
180	180	5
81	109	1
31	31	16
196	198	3
115	116	14
145	147	1
13	14	1
203	236	3
223	225	4
61	186	3
95	101	2
85	231	1
194	195	5
88	90	4
47	48	8
168	169	6
15	35	4
226	226	17
103	104	5
52	52	8
18	18	26
39	40	8
102	103	1
177	186	3
1	47	3
161	161	10
90	99	7
195	196	2
79	85	1
191	209	4
113	216	3
216	218	2
54	55	4
207	207	20
155	245	1
10	17	1
94	217	7
40	47	1
151	152	9
74	75	1
81	84	2
167	222	1
236	240	1
85	85	10
214	216	1
243	243	12
97	97	9
248	248	22
237	240	3
175	176	5
89	99	2
155	249	1
86	108	3
247	248	6
187	193	3
118	118	21
42	151	1
99	100	3
232	235	2
43	44	2
172	199	2
180	192	2
218	228	4
76	77	6
84	84	12
10	19	1
162	163	13
1	19	2
104	104	8
87	106	1
8	9	2
160	162	3
190	192	4
66	66	13
1	46	1
220	240	2
67	114	2
5	13	1
2	5	1
100	172	1
26	31	3
155	156	2
231	232	2
178	179	4
193	207	3
45	45	19
230	230	19
120	220	3
49	50	9
192	193	15
55	56	4
103	103	18
234	236	3
170	233	3
87	87	5
11	11	21
193	193	17
191	231	1
203	204	1
233	234	4
64	66	4
61	81	4
70	71	9
71	72	2
67	107	4
17	22	1
7	17	2
2	15	5
205	206	9
246	247	6
113	113	7
89	107	3
73	120	2
92	184	1
41	41	7
172	174	3
47	67	3
82	84	4
49	190	1
209	215	5
157	244	4
97	115	3
79	189	7
246	248	1
27	29	4
163	165	3
159	160	8
94	117	6
106	107	3
114	115	5
225	226	2
236	242	2
178	187	3
244	244	17
86	104	3
167	245	3
76	91	1
42	44	2
149	193	2
0	0	3
179	180	6
217	218	2
64	65	9
2	4	2
242	242	9
199	245	1
35	40	1
60	64	4
85	86	6
189	208	4
18	22	1
105	107	3
93	118	5
27	75	2
202	203	5
188	189	3
57	70	3
201	202	2
195	201	1
99	105	3
178	188	3
154	230	3
48	114	1
196	197	1
230	231	3
216	216	7
161	164	3
200	202	2
58	62	1
65	66	10
95	96	4
227	228	4
63	64	3
173	187	1
26	28	1
209	214	3
7	8	2
2	3	2
113	144	1
56	72	3
18	19	10
91	94	3
110	115	2
146	146	5
3	5	5
71	76	3
80	85	1
80	107	3
54	68	1
160	161	5
235	237	3
31	32	3
157	211	3
145	178	3
95	217	1
228	229	6
88	103	2
17	18	2
178	193	5
0	1	2
63	68	4
40	41	3
157	158	7
89	104	6
76	188	4
86	87	9
116	208	6
97	98	5
180	193	1
49	49	4
113	114	4
175	185	3
240	241	4
41	43	4
117	119	1
219	220	1
222	223	1
110	112	3
155	197	2
29	37	5
104	105	2
212	243	3
98	100	2
241	243	2
55	63	2
185	186	3
150	151	3
94	114	2
184	185	3
11	26	2
186	198	1
46	48	2
203	233	3
155	218	1
204	205	4
18	44	2
6	20	1
93	97	1
152	153	2
244	245	2
58	59	3
116	120	2
11	12	7
146	147	4
143	152	1
109	112	6
154	232	5
78	80	1
187	195	2
53	67	1
36	211	1
215	224	2
110	228	3
107	108	3
101	172	2
207	212	1
150	154	4
197	233	2
171	234	1
195	197	1
154	164	1
35	111	1
6	31	1
49	121	1
209	211	2
90	96	1
73	221	4
48	66	1
65	67	3
163	226	3
204	235	1
47	54	1
190	191	5
108	109	2
180	182	2
96	110	1
153	229	4
77	78	1
77	79	4
153	228	3
204	215	1
171	173	1
3	13	1
185	197	2
194	196	4
90	106	1
156	246	1
58	119	3
33	35	4
78	81	2
213	216	1
38	42	2
192	195	1
154	233	1
48	52	3
80	86	3
150	200	3
69	119	6
34	36	1
204	238	2
55	57	5
30	32	7
60	73	1
174	176	1
210	211	5
35	44	4
90	119	3
117	118	1
71	77	3
93	220	3
112	169	2
228	230	1
102	104	3
162	168	3
93	114	1
66	93	2
152	248	2
98	172	1
179	198	1
44	45	2
14	52	2
31	34	3
9	11	1
164	165	3
88	117	1
173	199	1
62	63	2
71	75	2
3	18	1
90	97	1
238	240	1
46	54	3
151	153	1
15	17	1
115	117	1
3	19	1
23	24	1
51	53	3
84	92	2
80	83	2
14	32	3
171	179	3
189	190	3
182	184	1
15	46	1
221	223	1
211	213	3
155	246	1
90	105	4
46	80	1
173	249	1
59	168	1
206	212	1
54	65	3
112	184	2
191	192	2
215	223	2
109	110	3
94	95	1
36	45	1
17	20	2
210	212	1
99	173	5
154	156	3
30	34	2
59	60	4
7	32	3
105	109	1
90	93	1
187	188	2
12	211	1
235	236	2
173	183	2
101	104	1
32	34	2
9	27	1
35	37	1
176	196	1
47	53	1
144	144	3
22	23	1
75	76	3
41	152	1
229	237	2
205	213	1
169	171	1
177	193	1
91	93	2
57	72	2
120	120	1
6	8	1
91	119	1
165	220	1
241	242	2
2	2	1
244	249	1
48	115	1
69	74	1
94	118	1
83	228	1
176	248	3
159	170	1
186	200	2
64	68	1
92	118	1
54	67	2
225	247	2
156	164	1
110	116	2
55	71	1
113	115	1
110	216	1
205	228	1
203	205	1
119	120	1
191	208	1
75	77	2
67	117	1
208	210	1
110	169	5
196	233	1
26	27	3
20	22	2
85	93	1
4	6	2
73	107	2
36	212	1
8	113	1
108	119	2
54	105	2
214	246	1
200	244	2
245	249	1
53	185	1
110	229	1
166	167	1
3	22	2
16	17	1
220	222	2
82	85	1
168	220	1
114	117	1
98	118	1
117	145	1
167	220	1
156	245	1
170	172	1
230	232	1
117	220	1
63	69	1
88	89	1
52	53	1
69	117	1
92	94	1
87	108	1
6	18	1
152	164	1
153	155	1
174	200	1
95	120	1
178	190	1
16	21	1
47	65	1
156	157	1
48	116	1
183	184	1
151	154	1
95	97	1
