9	9	12
5	5	6
78	78	5
172	172	2
87	87	8
80	161	2
46	89	3
30	30	9
62	62	12
72	75	4
141	141	11
48	48	10
35	121	1
161	168	4
119	119	11
149	159	5
127	186	4
25	32	6
79	79	3
101	117	8
98	144	2
63	63	5
18	28	2
55	55	3
64	65	5
109	109	10
15	27	4
105	105	7
128	128	7
45	45	8
106	106	7
192	192	8
145	150	8
61	61	6
138	139	7
80	81	3
142	142	18
59	59	13
122	139	2
79	80	3
52	53	2
10	79	2
24	24	10
168	169	4
51	53	1
110	110	5
173	173	4
23	23	9
104	185	2
73	74	2
142	143	1
155	155	4
182	182	4
32	64	2
101	101	6
58	58	6
54	55	4
132	132	9
18	18	7
120	190	4
166	166	5
165	166	1
17	62	5
94	94	5
185	186	3
123	126	3
31	32	6
80	80	10
157	158	3
171	171	13
0	4	3
197	197	8
108	108	15
6	6	11
94	95	3
27	27	6
158	158	9
16	16	15
1	1	2
97	97	3
157	157	5
149	149	9
69	69	11
13	33	5
158	159	4
28	31	2
10	11	8
17	20	2
62	75	1
37	46	2
52	115	1
70	70	7
77	77	6
41	41	10
36	36	4
168	168	8
84	85	2
140	194	1
0	0	6
6	8	3
123	183	6
148	148	7
38	38	11
127	162	5
128	194	2
169	179	2
122	123	2
47	47	9
35	37	2
78	80	2
16	17	3
156	156	8
71	71	2
2	2	10
16	65	2
74	130	5
164	165	2
57	57	4
43	43	4
142	197	8
181	181	17
72	72	4
104	104	7
1	2	6
135	135	4
51	51	9
66	66	5
9	69	2
114	115	12
160	187	3
15	15	7
96	96	8
154	154	8
180	180	4
55	193	1
119	197	3
176	176	5
82	83	8
187	187	1
141	142	7
117	117	6
53	54	2
130	130	7
193	193	9
113	168	2
20	20	5
178	178	5
140	140	5
113	113	2
71	72	8
97	160	5
174	174	8
139	139	3
86	86	1
39	39	1
58	59	1
81	109	1
118	118	7
26	26	5
13	13	6
180	181	1
133	134	4
40	42	1
12	80	3
16	25	2
56	56	3
105	106	2
71	75	3
186	195	1
66	75	1
49	49	9
56	57	1
110	118	2
190	190	5
64	64	6
111	123	1
104	108	1
17	17	4
125	125	5
148	153	3
191	191	14
147	147	5
42	42	6
58	175	2
43	129	1
67	67	8
195	195	3
50	50	4
160	160	8
53	62	3
54	54	9
134	134	8
103	127	4
38	46	3
94	96	10
12	12	8
172	187	2
4	5	4
99	128	5
76	86	2
60	60	6
5	7	2
112	113	3
122	122	5
170	170	5
98	98	8
98	99	8
112	112	14
152	185	3
100	100	3
12	33	2
144	144	11
41	44	3
72	73	6
133	137	2
47	90	5
48	49	5
185	185	9
152	167	3
123	123	7
21	21	9
8	8	12
28	69	3
143	144	3
137	138	2
44	46	3
120	125	4
177	179	8
122	161	3
67	85	4
146	148	3
103	103	9
190	191	2
62	98	1
78	79	2
136	136	6
101	142	1
46	49	3
9	26	2
146	147	3
35	42	3
160	172	4
120	120	1
54	171	1
138	191	1
96	163	2
161	178	2
99	104	2
46	46	1
88	88	4
37	37	10
33	33	1
164	164	3
114	114	4
56	72	2
17	18	3
93	163	2
86	88	2
44	44	8
159	159	1
144	145	5
116	116	7
65	65	1
85	87	1
68	71	4
96	146	1
34	34	2
131	131	10
106	189	2
61	66	2
51	57	1
136	137	4
55	66	2
105	188	3
32	32	1
52	54	2
93	95	2
165	165	5
194	194	5
77	81	3
116	183	2
132	133	4
148	149	1
123	125	1
119	122	2
130	132	2
138	140	1
111	125	2
177	177	5
22	22	7
41	169	2
3	4	3
7	76	1
160	178	2
11	38	2
45	69	1
69	70	1
131	137	5
167	167	1
162	168	2
10	10	1
25	25	6
163	170	2
175	175	7
152	152	3
50	51	1
42	110	2
70	76	3
29	65	2
26	28	3
11	12	3
179	179	7
2	58	3
39	155	2
17	32	1
182	189	2
36	38	3
7	7	2
70	71	6
9	10	5
103	104	1
112	134	5
93	94	2
153	153	1
142	172	2
173	174	3
14	15	5
35	124	2
82	82	4
115	116	2
100	118	2
67	69	1
127	167	4
152	153	3
39	42	3
84	87	3
31	31	5
147	148	4
83	83	3
4	6	2
85	86	3
12	85	2
6	7	1
3	6	1
41	42	1
81	163	2
79	89	2
173	192	2
27	28	4
26	46	1
38	41	1
140	192	1
34	36	2
35	169	3
19	19	1
126	126	6
5	65	1
69	71	2
98	105	1
80	159	6
169	169	3
4	18	3
113	169	1
107	169	2
182	194	2
25	26	2
111	111	1
151	153	1
46	52	3
133	133	1
9	78	2
186	186	4
95	95	2
175	176	1
109	116	2
85	85	1
33	156	1
8	45	1
53	53	3
84	84	1
126	186	1
57	58	2
3	3	2
126	172	2
79	159	3
127	127	2
36	37	2
138	138	1
40	40	6
60	68	1
89	89	2
151	151	2
107	107	2
37	38	1
160	188	3
166	192	1
164	189	1
52	52	2
27	49	1
16	53	2
88	90	2
166	186	1
109	143	1
149	150	1
18	36	2
106	165	1
163	163	1
161	161	1
15	16	1
141	197	2
99	102	1
30	31	2
73	130	2
98	166	1
107	166	1
129	129	2
103	142	4
143	143	8
103	139	3
189	190	1
22	94	4
111	126	1
48	150	2
103	188	1
68	68	2
117	141	2
183	183	2
150	150	1
42	86	1
81	82	2
76	76	2
170	192	1
50	149	1
4	17	1
90	90	2
146	161	2
99	189	2
74	88	2
55	56	1
124	124	1
167	186	3
123	159	2
184	184	1
42	124	1
35	35	1
187	191	1
5	13	1
187	188	3
1	4	2
82	86	1
160	165	1
150	151	1
4	4	1
154	155	2
97	172	1
107	116	1
108	169	1
145	146	1
94	152	1
137	137	1
123	124	1
181	182	1
10	33	1
189	189	1
193	194	1
102	102	1
146	146	1
106	107	1
14	14	1
42	44	1
122	133	1
134	135	1
111	112	1
149	158	1
36	121	1
167	170	1
145	145	1
169	194	1
11	13	1
14	25	1
143	147	1
196	196	1
131	135	1
13	32	1
43	44	1
16	26	1
30	52	1
170	194	1
47	89	1
38	44	1
40	54	1
93	153	1
5	39	1
4	43	1
182	190	1
