57	57	19
63	63	14
39	42	2
72	101	2
73	73	10
56	56	13
23	23	11
62	87	2
104	105	2
42	42	14
42	43	4
21	21	15
37	38	3
26	30	2
94	94	7
91	91	17
54	78	2
51	51	7
74	74	13
78	78	3
39	39	17
44	44	2
45	51	2
55	55	17
79	79	4
69	69	10
90	97	2
95	102	3
51	74	1
65	65	7
55	57	4
35	35	8
51	52	9
85	85	8
90	91	5
26	27	5
89	89	9
68	68	16
98	99	5
67	67	2
71	71	10
79	83	4
103	104	5
32	32	15
37	37	10
29	30	2
47	47	6
100	100	4
58	58	12
46	75	3
57	58	3
97	97	10
41	41	7
88	90	3
31	31	8
107	107	1
20	20	4
22	45	2
87	87	3
44	45	2
59	59	4
53	53	2
35	65	5
66	66	5
92	100	1
90	98	3
61	62	4
76	77	3
36	36	4
45	45	9
96	96	5
103	103	5
20	25	3
53	68	1
52	54	2
52	52	1
22	22	13
24	24	5
23	40	1
101	102	2
98	98	4
75	75	19
65	67	4
101	101	9
55	68	6
40	40	11
50	51	5
85	86	5
26	26	10
33	34	3
56	62	3
66	67	4
92	92	3
23	32	4
88	98	1
34	35	5
25	25	7
90	90	1
84	84	8
23	24	1
77	77	3
102	102	4
73	75	1
29	29	8
99	99	3
46	47	2
25	28	2
25	47	3
43	89	1
91	92	1
102	104	1
84	86	3
35	36	1
93	93	4
20	21	3
27	49	3
80	83	5
72	72	2
53	54	1
62	62	4
70	70	6
26	47	2
95	95	4
89	91	1
61	79	1
86	86	1
60	79	1
75	103	3
45	48	3
36	59	1
104	104	5
88	101	2
80	80	7
67	72	2
69	101	1
82	82	2
61	61	2
54	54	7
26	29	3
67	100	1
42	45	2
50	50	6
86	89	2
26	69	1
52	53	1
29	38	3
20	39	2
39	56	2
88	89	1
56	67	1
66	69	1
60	60	5
42	78	2
105	105	2
48	48	1
28	28	2
62	79	1
43	43	4
56	60	1
50	100	1
58	60	1
57	68	1
34	34	1
22	43	1
38	39	1
41	82	2
59	64	1
83	84	1
44	53	1
49	49	1
74	103	2
79	80	1
59	60	1
33	33	1
20	24	1
81	87	1
50	93	1
35	56	2
64	100	1
89	90	1
97	99	2
53	59	1
55	56	2
30	30	1
64	64	1
81	90	1
38	38	1
