52	52	14
53	53	16
53	54	2
141	141	22
112	112	8
15	15	11
126	126	13
37	37	8
172	172	5
71	71	22
111	127	4
67	110	3
142	142	7
62	62	2
140	141	3
35	35	8
139	140	3
81	99	3
115	115	18
71	73	3
10	10	10
80	81	4
12	12	9
119	129	1
54	132	2
3	3	15
67	67	12
114	114	6
85	85	3
159	159	14
94	94	13
179	179	8
81	81	6
139	139	13
153	153	20
65	108	2
44	44	16
20	21	3
18	53	3
58	58	12
56	79	3
116	116	14
157	157	14
0	1	1
165	165	7
162	162	16
162	167	1
6	21	1
56	56	4
4	12	6
132	133	7
164	165	5
88	88	13
32	43	1
171	173	1
54	54	5
36	36	12
84	85	6
158	169	4
160	160	13
90	90	16
38	39	4
5	5	11
66	66	5
71	72	6
154	161	3
26	26	10
138	138	17
92	92	6
162	163	1
77	77	13
134	134	7
61	61	11
72	72	11
76	76	17
64	64	10
34	40	2
13	14	3
92	93	7
5	6	8
56	71	1
104	104	4
43	44	4
16	16	16
23	23	17
103	103	6
170	170	11
134	135	1
75	75	16
123	123	8
174	174	3
13	13	12
95	164	3
22	63	2
145	145	10
118	149	5
149	149	23
79	80	4
137	137	16
3	5	5
27	27	7
157	158	3
17	17	6
152	154	3
1	53	4
50	50	9
106	107	7
159	170	3
91	92	4
143	143	7
16	17	5
45	45	15
98	101	3
132	132	8
130	130	12
8	8	4
57	92	2
4	4	3
87	155	5
105	105	8
11	13	5
106	106	13
136	136	6
95	95	3
55	55	7
127	127	9
104	106	2
97	97	11
117	118	3
99	134	4
163	163	11
122	122	22
42	42	10
120	121	3
19	22	2
173	173	15
24	24	12
0	169	3
135	136	2
115	116	5
13	17	1
49	49	5
29	30	2
136	140	1
64	99	1
133	133	9
138	158	3
150	150	24
57	57	9
75	76	3
34	35	15
9	9	13
41	41	5
159	172	3
7	7	5
53	56	1
0	0	3
151	151	11
31	80	3
2	2	9
70	70	5
18	20	4
63	63	9
59	61	3
6	10	3
93	93	12
9	10	1
89	108	1
98	98	2
119	125	2
155	156	2
151	153	2
111	112	2
40	40	8
87	87	10
121	121	3
108	108	7
128	128	15
83	83	5
148	148	13
18	19	2
89	89	5
8	11	2
76	135	4
80	80	12
135	135	1
116	117	5
175	175	3
126	139	1
7	39	1
17	18	9
107	107	4
30	30	8
39	40	9
31	107	5
173	174	5
102	102	12
91	91	2
36	40	1
171	171	12
6	6	17
110	133	1
78	78	12
166	166	6
161	162	3
158	158	6
8	12	3
56	70	2
154	154	14
35	53	2
25	25	5
118	119	4
163	174	1
14	15	4
84	84	3
126	127	6
24	25	5
154	155	3
137	179	3
133	137	1
19	19	8
124	124	3
137	138	5
120	120	3
158	161	1
99	100	1
164	164	3
27	28	2
80	134	1
73	74	4
32	32	15
56	92	1
150	153	1
33	33	8
83	122	2
24	39	4
39	39	7
43	43	11
84	109	1
2	6	3
30	107	1
45	51	2
74	75	4
38	38	8
168	168	10
111	111	5
10	11	1
131	131	8
125	125	9
2	8	2
12	13	3
7	8	1
31	31	12
114	115	4
146	146	3
111	133	2
180	180	4
89	100	2
5	8	2
2	3	2
1	1	5
11	46	1
79	79	8
110	132	1
40	41	2
60	61	3
7	9	6
140	140	12
156	157	1
156	156	2
26	27	3
137	156	2
60	60	1
174	175	7
144	144	3
132	134	6
82	130	2
103	105	4
118	118	6
110	127	2
110	110	2
148	149	2
19	20	3
83	95	1
178	178	3
105	108	1
74	76	2
129	130	5
78	79	3
62	127	1
109	109	2
74	74	7
155	155	6
152	153	6
17	52	1
147	147	4
9	33	1
128	129	3
31	32	2
52	167	2
51	68	2
55	56	4
82	82	7
177	178	1
20	46	2
72	103	1
20	20	2
18	18	3
68	68	8
160	173	2
100	101	1
28	29	7
123	124	5
93	94	2
60	81	2
10	14	3
99	99	5
159	161	1
116	157	2
167	168	4
27	60	2
30	31	3
164	167	2
107	108	2
14	14	4
140	149	2
169	169	7
167	167	3
51	51	5
117	117	5
89	121	1
123	129	2
161	163	1
116	121	2
87	117	1
89	90	4
64	66	2
177	177	8
2	38	1
129	129	4
176	176	11
175	176	1
158	174	1
136	137	3
59	59	5
67	68	2
15	37	1
166	167	2
28	55	1
170	171	1
141	144	2
149	150	1
111	161	1
11	11	2
64	81	2
81	83	2
96	96	3
39	41	3
146	148	2
2	9	3
169	170	1
65	65	13
123	126	3
82	83	1
123	145	1
16	107	2
171	172	2
120	165	1
135	175	1
117	119	1
114	148	1
39	42	3
119	120	2
159	160	2
10	53	1
34	34	3
73	73	3
86	86	1
55	74	2
103	131	1
127	131	2
54	114	1
154	158	3
61	64	2
148	154	1
26	38	3
153	154	1
134	179	1
68	111	3
124	125	1
145	147	2
51	52	1
157	173	1
60	64	1
133	134	4
54	55	1
168	170	1
25	39	3
86	91	2
17	19	1
135	138	1
96	122	1
140	142	1
70	88	2
131	132	1
162	165	1
158	173	2
5	12	2
49	51	1
18	87	2
96	97	1
109	110	3
97	98	1
91	95	3
64	72	1
134	137	2
5	13	1
7	44	1
174	176	1
93	120	2
70	71	2
35	36	2
162	171	2
32	138	1
135	141	1
21	26	1
49	52	1
121	123	1
17	44	1
127	132	3
159	173	1
66	129	1
50	52	1
88	89	1
143	144	1
159	162	1
4	35	2
78	108	1
1	2	2
15	17	2
147	148	2
102	103	3
127	142	3
119	119	3
36	41	1
68	106	1
87	88	1
72	75	1
27	43	2
52	64	3
151	152	2
62	63	2
133	139	1
113	114	1
156	162	1
126	131	3
113	113	1
12	25	1
19	46	1
54	56	1
146	147	2
23	26	1
161	161	5
4	7	1
153	161	1
100	100	3
66	67	3
148	155	2
117	148	2
125	126	2
72	73	2
128	130	1
158	159	1
77	139	1
64	65	2
126	138	1
86	115	1
157	160	1
121	122	1
163	170	2
62	66	1
159	167	1
125	132	3
85	153	1
168	169	1
19	45	1
95	96	2
144	145	2
54	74	1
35	54	1
10	16	2
86	155	1
153	157	1
29	29	1
25	26	1
30	53	2
89	91	1
18	45	1
150	152	2
118	164	1
81	82	1
27	56	1
114	116	1
53	55	1
30	54	1
109	146	1
3	7	1
9	11	1
22	22	2
78	178	1
179	180	1
17	45	1
65	68	1
3	8	1
28	38	1
120	127	1
82	105	1
8	9	1
42	43	1
23	56	1
94	95	1
50	172	1
101	102	1
108	109	1
103	107	1
83	101	1
