72	72	2
64	64	17
29	116	2
18	18	5
36	36	3
125	127	1
87	87	6
127	127	1
129	131	4
65	65	3
93	93	3
26	27	2
31	31	8
82	82	5
9	10	2
112	121	2
126	126	9
49	50	2
96	107	2
7	7	2
33	34	2
135	135	10
77	82	5
83	84	3
26	32	4
112	114	1
105	105	1
130	130	2
107	107	1
122	122	3
115	115	2
105	111	1
1	116	3
58	58	4
134	134	3
97	101	3
12	135	1
38	39	3
93	104	2
0	120	2
18	59	2
62	63	2
33	33	10
35	35	7
68	69	2
5	5	8
25	26	2
31	32	3
44	44	3
7	9	5
13	14	2
1	29	1
95	95	4
66	66	3
90	90	7
92	93	1
88	88	5
80	80	1
64	65	3
118	119	1
59	130	4
121	134	4
104	104	6
25	25	2
57	57	4
19	19	9
26	26	4
126	128	4
24	24	2
95	105	2
19	21	3
1	33	1
66	69	1
122	123	2
75	76	4
87	107	3
100	100	8
89	89	2
55	57	2
51	114	1
70	70	4
11	11	6
92	111	3
76	79	2
130	133	2
96	96	1
70	71	3
37	37	3
71	72	3
28	116	3
16	16	9
15	16	3
74	74	8
43	43	1
60	123	2
52	108	3
2	29	1
84	129	3
53	53	7
119	120	2
93	98	1
76	80	4
43	63	2
16	21	2
114	121	1
67	67	3
28	29	2
109	109	2
123	123	9
99	99	2
130	131	2
49	83	2
37	38	3
103	103	2
117	118	2
69	69	4
112	113	2
50	50	6
92	92	2
75	75	4
116	117	2
46	46	3
62	62	9
88	126	3
20	57	2
98	105	2
112	115	2
120	120	3
89	90	1
91	112	1
51	68	1
52	52	1
30	30	4
60	127	1
42	42	2
121	121	9
125	125	1
114	114	1
128	128	5
108	111	3
4	4	3
1	1	2
113	114	1
97	111	1
18	63	1
32	32	1
29	29	3
58	63	2
14	14	4
86	128	1
18	57	3
13	34	1
111	111	5
37	39	1
55	55	6
7	24	1
23	24	5
66	67	1
52	53	2
21	57	1
8	9	2
86	86	3
95	99	2
131	131	4
128	133	2
98	101	1
124	124	3
108	108	2
103	104	2
74	81	1
34	123	1
113	113	1
79	79	2
106	106	2
129	129	3
10	11	1
22	24	1
83	83	2
28	28	2
61	61	5
27	27	2
15	127	2
1	2	2
129	133	3
63	65	1
34	34	5
49	49	2
78	96	1
98	98	2
101	101	1
73	73	1
34	35	1
65	68	1
77	85	1
29	114	1
34	134	2
96	100	1
62	127	1
4	5	3
34	61	1
19	20	2
54	54	2
77	77	4
49	86	1
91	92	1
17	17	1
87	106	1
76	76	1
56	56	3
62	64	2
81	85	1
65	69	1
80	99	1
45	45	2
6	6	1
97	97	1
127	128	1
65	66	3
129	130	1
82	85	2
53	114	1
63	63	2
109	111	1
0	135	2
52	114	1
12	13	1
36	38	1
87	88	1
20	21	2
20	20	2
8	24	1
38	38	2
47	63	1
119	119	1
123	126	1
56	58	1
94	104	2
23	23	2
59	59	1
67	68	1
16	17	1
99	101	1
77	83	1
0	0	2
50	129	1
124	125	1
83	128	1
60	60	1
53	54	1
29	30	1
22	23	1
78	78	1
28	115	1
117	117	1
