67	67	4
5	37	2
17	17	8
5	5	3
98	99	7
13	13	8
10	10	2
49	50	2
86	86	3
39	39	6
0	18	4
135	135	5
16	17	5
128	128	4
105	105	11
104	105	1
26	26	2
139	139	3
57	57	3
74	74	1
120	120	8
76	86	2
62	62	7
123	123	8
126	126	1
33	33	6
2	69	2
58	67	1
71	74	4
106	108	1
101	101	2
51	79	2
66	66	4
117	117	3
122	122	3
125	125	4
79	79	6
61	61	9
12	12	6
72	73	1
108	108	1
90	90	5
24	24	3
32	33	3
82	82	1
107	108	1
111	112	1
8	70	2
116	118	1
124	124	1
14	16	2
71	71	2
109	109	1
48	63	2
23	25	2
70	70	5
26	30	3
134	134	4
56	65	4
126	144	1
115	118	5
131	131	2
113	123	1
116	116	7
132	132	8
106	107	3
50	50	6
88	88	5
48	75	5
53	53	3
111	135	1
129	129	1
73	73	2
98	98	2
113	113	3
112	128	2
131	132	2
84	87	2
89	94	1
80	81	3
25	25	4
128	130	2
20	20	10
100	101	2
59	61	1
19	19	1
91	137	2
9	9	5
8	43	1
40	40	2
23	31	3
34	34	1
68	68	5
0	19	1
141	141	1
141	142	1
11	11	2
87	111	1
102	103	1
75	75	3
87	87	6
79	80	1
91	94	1
36	36	2
110	136	3
85	85	4
41	41	6
85	105	3
52	52	2
32	32	2
22	22	3
130	130	7
33	34	3
76	76	7
21	21	2
84	84	2
65	65	2
93	93	5
55	67	2
111	111	9
133	144	2
73	123	2
27	38	2
92	92	1
1	21	1
41	42	5
36	40	4
106	106	1
115	115	3
8	42	5
18	69	1
133	133	2
35	36	1
2	51	1
134	135	4
30	30	2
121	121	5
127	143	4
1	1	1
139	140	4
1	2	2
78	107	1
103	103	1
20	37	2
42	42	3
14	14	2
49	79	4
3	4	1
139	143	2
72	72	1
114	114	3
78	79	1
107	107	4
76	91	1
48	48	3
133	134	1
3	3	1
23	33	1
20	21	3
118	119	1
56	56	1
6	6	2
85	86	1
49	80	2
18	18	3
83	83	1
18	68	2
116	130	1
80	90	2
128	133	3
97	99	3
3	52	2
73	74	1
57	58	1
61	62	1
14	15	1
129	131	1
35	35	1
14	24	1
2	2	2
47	75	3
65	66	2
96	136	1
138	138	3
95	96	1
95	145	2
94	98	1
9	39	1
30	37	1
127	127	1
143	143	2
16	16	1
60	60	1
105	106	3
104	108	1
101	136	2
62	69	1
100	100	1
62	64	1
142	142	2
48	76	1
109	110	1
76	77	1
91	92	1
34	35	1
21	33	1
81	82	2
134	138	1
119	119	1
113	127	1
115	116	2
81	81	3
42	43	1
22	35	1
0	68	1
39	119	1
89	111	1
121	122	1
13	34	1
8	40	1
70	81	1
55	55	1
99	99	2
98	136	1
67	68	1
122	123	1
47	48	1
94	97	1
18	20	1
22	37	2
29	29	1
97	110	1
86	87	1
40	42	1
127	139	1
5	6	2
49	81	1
59	62	1
137	137	1
96	110	1
140	142	1
63	69	1
131	133	1
88	114	1
119	120	1
