174	174	14
188	189	2
114	115	3
45	45	27
160	161	5
49	51	2
157	157	19
202	203	6
121	121	4
17	17	10
70	70	8
209	209	11
85	86	1
51	65	4
130	130	7
148	148	6
194	194	3
187	188	1
133	133	3
197	197	19
170	222	5
122	122	4
63	63	9
228	228	3
88	168	2
158	161	4
217	217	13
22	56	2
196	196	10
167	167	6
163	164	1
120	120	8
65	65	12
158	196	1
242	242	8
137	138	1
233	233	8
57	68	1
20	20	11
220	220	4
215	215	5
113	136	2
189	209	2
166	166	11
8	9	2
213	213	7
21	21	9
180	180	10
170	170	5
231	232	7
29	30	1
129	132	2
183	208	1
46	46	10
144	144	3
24	24	11
62	69	2
232	232	4
11	54	1
105	135	2
7	105	1
9	9	10
7	7	3
175	175	13
127	127	10
55	55	12
60	60	7
54	55	9
198	198	9
42	42	3
49	205	4
3	3	2
68	68	6
77	77	3
195	195	10
202	202	13
95	95	1
111	111	2
29	29	11
172	173	3
151	151	6
0	5	4
201	201	16
163	163	11
26	136	3
21	78	7
23	55	4
100	100	9
145	192	5
27	27	7
191	191	8
214	214	5
40	40	15
65	66	9
36	36	18
152	195	1
58	59	2
97	174	2
36	37	5
117	117	3
161	161	10
81	81	2
219	219	2
191	208	4
204	204	14
128	128	6
106	106	7
161	163	3
185	186	4
181	181	10
8	8	4
43	43	13
28	41	2
121	122	7
204	205	6
157	198	1
207	207	8
90	90	3
49	71	3
206	206	10
4	6	5
0	61	2
157	158	8
38	38	10
10	10	5
44	44	7
155	185	2
66	67	4
49	49	10
21	23	1
4	5	2
180	204	3
57	57	11
120	197	8
86	86	8
18	20	14
212	212	11
142	143	3
117	118	1
172	215	3
156	164	1
180	182	9
233	234	6
192	192	6
16	16	4
59	59	6
88	88	2
41	41	3
4	4	4
236	236	4
10	17	2
142	142	7
85	85	7
104	104	5
177	177	7
107	107	3
28	29	1
47	47	4
235	235	1
208	208	10
161	191	2
222	223	4
57	65	4
220	241	2
137	137	8
238	238	4
190	190	11
106	125	1
62	96	1
220	221	6
139	140	12
141	142	3
128	129	1
67	67	4
52	86	2
23	24	4
88	223	1
69	70	2
50	50	8
187	187	17
179	181	3
138	138	7
144	145	8
123	123	5
152	152	7
48	48	8
193	194	3
56	56	7
125	125	6
13	14	5
107	108	10
0	2	2
226	229	2
54	54	11
169	169	2
188	188	4
152	211	9
199	201	2
178	178	5
159	196	8
152	153	8
218	218	8
53	53	7
139	139	7
98	98	8
28	138	3
220	225	2
214	215	2
147	147	6
164	197	1
52	52	4
182	182	6
86	97	4
167	168	9
224	224	1
228	229	3
159	160	6
135	136	6
206	208	4
25	26	2
162	162	4
39	39	5
39	42	4
144	210	1
69	69	14
136	162	3
97	97	3
16	23	4
11	11	9
36	149	3
60	61	1
37	38	6
15	15	4
58	58	6
33	33	6
224	227	6
40	42	4
223	228	2
76	80	3
83	83	2
54	99	1
231	231	2
173	174	2
186	186	5
61	61	12
227	227	3
216	217	4
113	122	2
176	220	2
184	209	2
208	217	2
10	100	1
144	227	1
240	240	7
223	224	2
70	71	6
175	219	1
119	119	5
179	179	9
76	85	1
181	182	1
0	6	3
173	173	2
64	64	3
217	218	3
68	69	1
182	206	4
40	85	3
104	157	2
234	235	2
2	103	3
85	98	5
12	57	3
41	77	4
169	170	5
10	54	4
148	175	2
230	231	1
210	210	2
15	110	2
143	143	1
62	62	9
166	189	5
119	197	3
71	71	7
12	12	7
209	210	6
62	167	1
77	78	2
124	126	4
115	115	3
160	160	5
212	213	6
82	82	1
145	147	3
42	43	7
193	206	2
26	27	4
184	185	8
113	113	5
116	117	5
50	51	8
239	239	10
33	83	3
163	191	4
230	230	5
64	69	5
149	149	4
129	130	2
150	150	3
222	224	2
104	105	4
21	22	3
74	128	1
139	143	2
4	8	1
139	142	1
138	149	2
40	174	2
62	67	3
14	16	1
146	146	3
114	196	2
40	84	1
201	202	5
135	135	5
224	225	2
203	204	1
96	96	4
24	39	1
141	231	4
216	216	5
98	203	5
138	144	1
168	168	5
74	74	4
73	85	3
61	62	3
67	69	1
91	214	1
11	13	1
101	101	3
212	222	3
7	8	3
114	203	1
149	162	1
4	105	1
174	220	3
79	150	4
20	120	3
84	85	5
113	128	1
75	75	3
182	205	2
0	0	1
32	33	2
74	75	5
30	30	2
147	148	3
186	187	7
118	197	1
156	157	3
34	151	1
221	221	1
159	197	1
162	199	4
151	212	4
41	42	1
39	40	2
56	57	5
45	46	5
180	219	3
8	106	3
10	69	1
10	99	1
156	156	2
166	209	2
185	189	1
179	180	2
18	18	2
153	153	7
145	145	1
28	149	2
109	109	2
124	124	3
109	110	2
158	198	1
49	160	1
19	19	7
200	200	1
96	97	6
140	143	2
10	20	2
26	26	4
103	104	4
95	217	3
22	23	4
222	222	6
135	163	4
189	190	1
173	207	1
174	175	1
90	221	1
114	116	2
51	51	3
213	215	1
2	2	6
229	229	4
66	68	2
41	80	2
161	198	2
207	218	2
73	73	3
177	180	2
72	72	5
32	74	4
106	133	1
21	118	2
84	84	6
221	222	1
158	158	3
121	238	2
184	184	8
91	215	1
189	189	10
138	139	1
140	140	3
73	74	1
45	235	2
17	117	1
31	31	2
28	28	10
135	161	1
122	124	1
29	31	1
53	72	1
10	11	3
96	165	5
17	20	1
65	69	2
185	209	1
17	79	1
176	180	1
17	21	1
24	37	1
60	158	3
162	191	2
23	23	4
53	55	3
5	5	5
159	169	3
34	34	2
9	10	2
187	209	1
46	232	3
30	32	1
49	50	2
15	16	2
118	139	1
102	156	4
31	34	1
25	25	4
162	201	1
112	169	2
11	12	1
122	125	2
116	116	3
98	99	2
225	235	2
99	99	3
218	220	1
119	124	1
183	185	3
140	142	2
190	207	1
177	178	1
126	126	2
226	228	3
102	106	2
127	129	2
67	68	2
4	34	1
16	17	1
199	200	3
165	189	1
211	211	1
166	214	2
238	239	2
142	228	1
137	139	1
79	79	2
7	21	2
115	202	1
103	103	1
32	36	1
96	208	2
115	118	2
158	188	4
0	1	1
18	19	1
176	179	2
168	216	1
148	177	2
95	214	1
155	156	1
190	208	1
76	76	1
3	105	1
42	179	1
12	56	1
113	120	2
207	217	2
160	205	1
99	100	1
150	207	1
183	183	2
154	154	1
101	158	1
152	210	1
11	57	3
80	80	3
125	127	1
150	151	2
241	242	1
111	113	1
35	35	1
55	60	1
21	30	2
165	165	2
55	56	1
15	118	2
160	191	1
222	242	2
95	166	1
172	175	1
185	185	3
214	217	2
119	120	1
157	165	1
106	134	1
102	102	1
195	196	2
64	65	1
95	213	4
154	156	2
119	139	1
172	172	1
155	184	1
78	80	2
166	197	1
19	20	1
85	151	1
80	152	1
113	127	1
230	242	1
7	10	1
152	168	1
105	106	1
14	14	1
180	181	1
105	120	1
194	195	1
43	178	1
158	197	1
31	35	1
171	171	1
13	19	1
8	79	1
236	237	1
134	134	3
80	150	1
59	62	1
40	149	1
101	108	2
48	50	1
116	118	1
183	184	1
53	60	1
158	192	1
84	151	1
183	207	2
153	155	1
9	49	1
181	218	1
193	193	1
223	223	1
3	6	2
159	192	1
123	124	1
6	6	1
132	133	1
159	161	1
179	218	1
