65	65	4
34	38	3
13	13	10
29	29	2
54	55	2
72	72	2
112	112	6
47	47	6
110	119	1
81	81	6
44	44	1
90	103	1
57	57	4
147	147	5
110	110	5
124	124	1
142	145	5
123	123	7
125	125	2
18	20	7
43	50	3
46	46	9
132	132	10
78	80	3
102	103	2
136	136	9
128	128	5
69	69	6
153	154	4
5	57	6
54	54	4
53	54	3
120	121	3
20	20	1
64	64	4
96	99	1
12	12	2
146	146	1
95	95	3
19	19	3
40	41	8
31	31	2
119	119	5
45	45	2
8	9	5
113	113	5
48	48	4
83	83	5
6	7	1
62	65	2
57	58	3
9	31	1
105	105	1
17	18	7
106	108	2
41	42	1
33	33	8
83	84	5
79	79	3
31	128	1
69	73	2
10	10	1
117	117	5
35	36	3
139	139	3
140	140	1
109	109	9
122	122	4
117	137	4
81	83	3
58	58	4
70	70	5
95	96	7
56	56	2
134	134	4
99	117	2
96	96	9
114	114	11
15	129	2
116	116	4
31	32	9
118	119	4
78	78	3
120	120	3
41	41	1
77	126	4
40	40	5
18	132	3
42	66	2
42	42	8
112	113	3
85	85	9
80	80	2
14	14	4
112	119	1
29	30	1
76	78	4
36	36	5
153	153	1
113	129	2
71	71	3
116	137	1
11	11	2
101	102	1
34	123	2
24	25	5
107	107	3
111	111	3
5	5	1
108	108	4
137	137	4
129	129	5
68	69	1
113	118	3
30	30	2
75	75	2
8	35	3
121	121	1
45	46	4
135	135	2
148	148	4
109	110	1
34	34	3
28	30	1
50	50	3
135	136	1
101	114	5
100	100	1
26	29	2
104	104	2
118	118	4
49	49	2
38	38	3
53	53	4
34	124	1
31	93	2
100	101	2
83	108	2
69	72	1
66	66	1
67	69	1
6	58	2
26	27	1
149	149	2
77	123	1
127	127	1
144	144	1
104	105	2
68	68	2
138	138	4
82	83	2
14	15	2
131	131	3
9	9	2
3	3	1
76	76	8
4	8	3
52	55	2
147	148	1
115	115	1
116	117	2
93	93	1
90	90	1
103	104	2
15	15	1
113	114	2
98	98	2
72	75	2
96	131	2
93	128	2
81	82	4
98	114	3
2	8	1
73	73	2
84	84	2
138	139	1
141	141	3
18	19	2
36	50	3
80	81	2
6	26	1
38	39	2
116	138	1
24	24	5
74	74	1
21	21	2
110	111	2
4	6	1
103	103	3
104	148	2
142	142	2
99	101	1
73	75	1
63	76	4
4	5	1
121	122	1
150	150	1
35	78	1
92	92	1
79	80	1
107	118	1
94	94	1
24	131	1
49	57	1
154	154	1
7	7	1
147	151	2
63	75	1
114	119	1
14	16	1
140	144	1
86	107	1
16	16	1
75	79	1
75	76	1
135	137	1
