61	63	1
106	107	11
132	137	6
42	42	8
55	55	5
22	22	9
88	88	8
102	103	2
61	61	6
83	91	4
38	38	11
126	126	2
19	20	4
9	9	4
0	54	4
26	26	9
56	56	3
72	86	1
37	37	7
128	128	5
14	83	3
142	142	4
87	87	4
98	98	6
59	59	6
82	82	3
75	75	9
134	137	1
35	35	4
57	57	3
104	104	2
32	51	3
121	143	2
14	72	5
67	67	7
97	97	5
58	58	2
30	30	3
36	36	3
81	98	2
80	80	6
73	82	3
41	41	6
144	144	9
36	56	2
102	111	3
53	54	1
74	78	3
79	92	7
65	65	6
141	141	11
9	56	1
102	102	4
101	101	4
61	62	3
105	105	10
89	89	2
131	131	8
64	64	3
28	33	3
16	16	7
101	141	2
47	52	1
99	105	1
0	47	3
68	69	1
104	140	3
32	50	3
47	48	1
104	112	3
77	77	3
95	96	4
10	10	2
57	58	1
94	94	4
43	43	6
127	128	2
100	106	1
68	72	6
99	100	3
29	30	4
120	120	1
11	11	15
24	24	5
57	96	1
68	68	7
119	120	2
9	10	2
81	81	4
127	137	2
5	5	4
106	133	2
85	85	3
12	12	1
99	99	9
80	86	4
2	3	7
63	63	2
54	54	5
18	18	2
55	56	1
10	17	2
96	96	6
83	84	2
53	53	4
92	92	5
67	90	8
41	42	1
26	27	3
15	67	1
91	93	3
51	51	3
133	133	5
114	114	9
14	14	4
52	53	2
133	140	1
95	95	9
123	123	6
36	37	1
19	19	4
39	39	4
48	48	10
100	100	2
6	17	1
27	34	5
76	76	2
115	115	7
69	69	1
15	90	1
110	110	5
74	74	3
17	17	6
131	137	5
62	62	2
71	71	7
32	32	5
29	29	8
111	111	3
14	56	2
8	8	1
79	79	2
27	35	2
31	31	3
91	92	2
84	84	1
140	140	2
8	22	1
22	23	6
21	21	3
13	13	1
83	97	1
60	61	1
78	78	2
75	79	2
10	11	1
80	93	2
116	116	2
66	66	3
84	86	2
119	123	4
5	6	3
126	130	1
73	79	3
91	91	10
92	93	2
33	37	1
121	121	2
79	82	1
127	134	1
23	23	2
15	15	1
108	108	2
77	78	1
97	98	1
93	93	2
104	133	2
125	125	2
119	119	2
100	107	3
105	139	2
6	6	6
27	27	5
47	47	1
52	52	7
33	33	2
112	112	2
9	15	1
143	144	1
124	124	3
73	81	1
87	88	2
60	60	1
122	122	5
135	135	1
120	121	2
66	67	3
40	40	3
9	16	1
144	145	1
76	78	1
103	103	2
62	63	1
107	108	6
20	20	3
139	139	2
2	2	4
129	130	1
16	72	1
50	50	1
114	115	2
133	134	1
25	35	3
103	108	1
78	79	1
34	34	4
77	140	1
110	111	1
83	83	2
119	122	1
70	70	1
73	73	2
80	92	2
25	25	1
77	112	2
28	28	2
10	16	1
24	72	1
134	136	3
9	55	2
145	145	4
3	20	1
83	90	1
118	118	4
66	89	3
37	38	1
79	81	4
84	90	2
42	43	1
101	132	2
3	3	2
113	113	2
20	21	1
39	40	1
17	18	2
106	138	2
98	99	2
67	68	1
25	73	1
118	119	2
143	143	3
1	41	1
20	41	1
105	112	1
130	130	2
109	109	1
127	127	2
73	74	2
0	2	1
50	51	1
129	129	1
5	18	2
20	40	1
138	138	1
108	114	1
67	86	2
59	60	1
0	0	1
64	65	1
68	86	1
22	38	1
100	110	1
34	35	1
67	87	1
90	96	1
79	112	1
58	63	1
65	66	1
