122	122	11
111	112	2
75	79	2
24	29	4
70	88	1
100	113	6
49	58	3
99	99	4
105	105	2
12	20	5
21	21	1
90	90	16
35	35	3
28	31	4
11	11	7
3	21	2
8	9	8
70	77	1
9	12	2
115	117	3
102	102	12
118	118	1
102	103	2
97	97	1
85	89	1
0	7	1
110	110	4
127	128	3
26	33	4
1	3	3
13	13	7
123	123	8
111	119	4
66	66	6
8	8	7
71	72	4
83	86	1
106	107	3
13	15	2
101	106	3
93	93	5
129	130	2
63	66	1
115	124	1
117	117	2
107	109	3
5	5	1
14	21	3
24	27	3
56	56	2
105	109	4
50	59	1
50	50	3
32	32	3
14	16	2
88	88	4
22	22	5
56	58	1
6	6	5
101	125	4
4	5	2
86	98	3
101	101	5
86	90	2
63	63	4
33	34	3
57	64	1
130	130	5
4	4	6
34	34	6
12	12	8
23	24	1
22	23	2
24	24	2
100	100	3
87	92	2
114	115	2
75	75	7
49	49	3
19	22	1
122	129	1
83	83	3
31	92	1
0	0	5
123	125	3
114	118	1
15	15	1
27	27	7
0	2	1
112	121	4
63	65	2
10	19	1
70	71	4
128	128	5
11	12	3
88	98	3
59	59	4
0	1	4
70	70	13
92	94	1
111	111	6
127	129	1
114	114	3
43	44	4
89	90	1
132	132	14
124	124	1
36	36	4
58	60	3
62	64	1
61	61	1
101	107	3
54	56	5
110	113	3
125	135	6
116	117	1
125	129	5
13	33	3
6	24	1
85	85	6
10	11	2
3	9	2
22	30	1
119	119	3
73	74	3
72	72	2
87	87	3
75	78	2
95	103	2
44	45	4
14	14	2
134	134	3
106	106	2
79	80	5
124	125	2
47	61	1
126	126	2
1	1	3
44	44	6
37	37	4
99	113	6
70	73	1
52	57	2
26	38	1
69	69	3
94	94	1
26	26	2
57	58	1
16	16	3
64	65	3
29	29	2
7	25	1
76	94	3
95	95	3
65	65	2
1	2	1
5	9	1
125	125	1
14	22	1
49	50	2
50	55	4
3	19	3
20	25	1
1	5	1
128	131	5
7	15	2
75	76	1
121	121	4
76	76	6
121	128	2
17	23	2
34	35	1
121	122	1
66	70	1
107	122	2
14	15	3
31	31	2
103	103	1
126	129	3
103	112	1
50	83	3
78	79	3
127	132	1
55	55	1
63	96	1
109	122	1
80	80	2
74	74	7
69	74	2
32	33	5
16	19	1
91	92	2
17	18	2
58	58	3
82	104	1
69	78	1
113	113	2
80	82	3
77	77	1
105	112	1
35	36	1
45	45	1
129	129	3
2	10	1
54	54	2
117	128	2
84	84	7
1	4	2
48	55	2
8	28	3
43	43	3
115	131	1
3	5	3
64	64	1
78	85	1
95	96	2
22	24	1
131	131	2
3	6	2
6	9	1
23	25	1
110	131	2
12	13	2
49	55	2
8	15	1
52	52	4
91	91	1
79	79	2
28	28	2
97	109	1
28	32	4
2	2	2
59	72	1
24	32	1
131	132	1
68	68	3
110	114	1
91	94	2
53	57	2
90	91	3
19	24	5
120	120	4
20	20	2
14	26	1
96	110	2
17	20	5
69	70	1
60	60	2
35	93	1
29	30	1
108	116	3
35	37	2
135	135	1
116	119	2
89	92	2
71	71	1
125	134	1
89	91	1
123	133	1
25	35	1
78	78	1
50	61	5
13	19	1
10	10	1
61	94	2
25	34	1
62	63	2
54	62	1
80	81	1
116	127	1
121	126	1
61	71	1
21	22	2
121	124	1
134	135	1
54	58	1
55	69	2
98	98	1
31	38	2
97	118	2
3	18	1
68	79	3
82	86	1
18	23	2
93	94	1
53	61	1
107	107	2
62	62	1
129	134	1
74	75	2
30	30	1
17	17	1
101	102	1
95	105	2
82	82	1
114	117	1
101	111	1
101	112	1
72	73	1
17	19	1
63	67	1
86	113	1
7	31	1
1	11	1
84	86	1
73	103	1
16	17	2
2	14	1
125	126	1
122	126	1
86	86	1
114	120	1
87	88	1
103	104	1
81	88	2
104	104	1
122	124	1
94	101	1
79	84	1
92	103	1
53	53	1
109	109	1
112	113	1
110	111	1
0	9	1
108	111	2
97	98	1
86	87	1
95	107	1
127	127	1
88	94	1
46	49	1
