18	19	3
96	96	2
144	145	3
197	197	5
61	62	2
72	72	5
193	194	3
171	171	3
26	28	6
116	116	4
147	147	8
70	70	3
192	192	2
45	46	6
162	186	1
137	138	1
37	37	1
177	195	1
19	38	1
67	67	4
131	131	7
1	1	7
100	116	1
29	34	5
145	145	1
39	39	5
55	69	5
156	156	5
15	49	1
77	77	4
73	73	12
4	4	3
23	23	6
135	135	4
133	163	5
6	6	6
114	114	4
28	28	2
4	6	4
117	117	3
10	49	4
62	62	5
89	90	1
38	39	1
101	103	6
43	44	1
13	14	2
27	192	6
43	43	2
101	101	8
138	138	3
84	84	4
180	180	4
185	185	2
61	61	3
22	25	3
68	69	2
94	94	4
56	71	4
181	186	1
26	26	3
158	160	2
162	190	1
93	93	2
1	189	1
27	27	6
127	127	7
71	72	1
111	111	11
7	41	2
83	83	8
161	162	2
115	115	4
130	130	5
81	81	1
112	113	7
34	34	5
146	173	3
71	71	3
146	146	2
129	129	5
124	144	1
29	38	2
145	174	5
8	8	6
72	73	2
48	48	4
76	77	3
59	60	5
196	196	4
10	10	4
166	187	2
175	175	2
110	110	1
186	186	4
96	97	5
14	14	1
68	68	3
14	24	4
36	36	3
155	181	1
54	68	3
50	50	1
169	174	1
7	7	5
182	183	8
78	79	3
9	51	5
7	8	2
141	141	5
165	168	1
158	158	4
151	157	1
2	2	5
170	170	7
129	170	2
69	76	4
11	14	4
111	112	4
137	155	1
139	139	5
0	2	3
98	98	2
23	32	2
130	147	2
82	83	6
131	132	1
4	10	1
176	179	4
181	194	1
175	176	2
53	54	4
135	152	2
181	188	3
41	41	4
5	7	2
114	146	4
3	4	1
117	118	3
18	41	2
151	151	5
15	32	3
18	18	2
19	19	4
76	86	2
21	21	2
46	46	1
79	86	1
88	88	4
103	103	3
66	66	1
22	23	5
24	24	5
32	197	3
100	118	3
168	178	1
148	149	3
147	150	3
27	191	3
158	193	3
157	157	2
166	166	8
20	21	1
183	183	2
69	84	3
159	160	4
49	123	3
88	89	2
19	39	2
143	143	4
6	21	1
3	3	4
189	190	1
40	42	1
57	57	4
51	51	7
87	87	2
103	112	3
16	17	1
101	116	1
19	22	1
54	54	3
32	32	4
77	86	3
132	157	1
122	122	4
123	179	3
74	74	3
93	97	2
104	107	2
192	193	1
55	55	4
16	93	1
99	125	1
13	23	1
59	59	4
137	137	1
108	108	5
42	42	6
106	140	1
99	99	4
118	118	4
123	124	1
11	111	3
155	155	1
168	169	1
107	107	4
146	172	1
148	148	1
49	183	1
154	154	1
4	11	1
113	113	1
191	191	2
38	40	1
99	124	2
102	102	6
136	136	1
6	7	4
10	11	2
132	133	6
101	102	3
17	18	3
13	181	2
110	111	1
10	12	1
82	82	2
66	67	1
102	110	2
186	194	4
52	52	2
5	11	1
107	114	1
5	8	1
167	175	3
187	187	4
93	121	1
19	41	1
28	29	2
150	150	2
4	5	2
174	174	1
53	62	1
148	176	1
155	156	2
143	144	3
164	177	1
40	40	4
29	29	2
165	166	1
81	83	2
80	184	1
145	173	1
129	146	1
179	179	3
133	151	1
105	105	2
103	115	4
140	140	2
130	131	1
33	33	2
97	120	2
74	75	1
25	27	1
155	194	3
0	0	1
114	125	3
115	117	1
38	38	1
12	12	2
80	81	2
133	133	2
15	39	1
135	151	1
0	12	2
98	123	1
102	109	1
55	56	1
172	173	5
40	41	3
86	87	1
24	196	2
63	64	1
22	22	3
19	20	1
13	195	2
63	63	2
13	13	2
149	150	1
157	158	3
111	114	1
142	155	3
78	78	1
26	27	1
89	89	3
105	148	2
123	178	1
162	163	1
165	165	1
167	167	2
99	114	1
123	123	1
168	168	3
54	72	1
114	171	1
16	16	1
154	155	1
118	171	1
45	45	3
173	173	2
134	149	1
119	173	1
169	169	1
23	24	2
177	177	1
131	135	2
67	78	3
142	156	1
58	64	1
62	68	1
16	23	1
0	11	1
35	40	1
67	69	2
54	55	1
23	164	1
180	181	1
81	82	4
177	187	1
105	106	1
182	193	2
184	184	1
148	175	1
69	69	2
190	191	1
148	151	1
155	193	1
142	143	2
14	23	1
33	42	1
45	86	1
112	112	1
82	85	1
69	71	1
161	163	1
7	16	1
152	158	1
3	191	1
186	195	1
58	59	1
182	182	2
67	68	1
109	112	1
83	87	1
15	15	1
44	44	1
164	164	1
134	157	1
58	58	1
53	77	1
120	120	1
107	148	1
2	3	1
5	16	1
