124	127	3
120	120	9
117	117	13
87	87	3
93	116	2
115	130	1
95	96	6
9	9	4
70	70	8
14	14	8
124	124	2
78	108	5
42	43	2
73	73	7
90	90	7
72	72	7
116	129	1
50	55	7
64	64	7
6	6	8
83	84	4
37	37	10
6	32	3
56	98	1
30	49	1
1	1	5
94	130	1
16	18	2
81	81	3
99	100	3
116	116	13
79	109	2
66	66	15
57	58	3
61	61	10
67	67	3
127	127	8
11	11	6
66	67	4
37	39	4
107	107	6
65	65	5
87	97	2
75	77	1
28	28	7
62	62	7
109	109	1
128	128	11
73	74	5
76	76	19
37	38	6
71	71	4
95	95	6
60	60	4
30	30	5
20	20	1
86	86	8
56	56	1
113	114	2
69	69	1
12	12	4
79	80	7
44	44	3
47	47	9
34	36	1
4	4	5
75	75	8
99	123	7
10	10	5
103	103	5
100	124	1
31	45	2
18	18	2
31	31	4
4	5	5
48	49	4
98	99	4
43	43	4
92	92	4
114	114	6
131	131	2
97	98	3
134	134	3
35	35	6
91	92	1
86	97	5
98	106	3
108	109	4
77	77	3
29	29	6
15	43	3
100	100	1
111	111	2
5	49	3
128	132	1
99	99	3
76	77	4
106	123	3
125	125	5
5	5	2
63	63	7
3	3	1
106	130	2
55	55	1
17	17	4
70	71	2
9	17	4
80	80	4
3	93	2
110	110	6
25	25	4
78	80	1
58	59	1
22	23	5
126	126	4
26	27	2
44	45	5
112	126	3
108	125	1
38	40	2
119	119	2
6	16	2
27	29	1
8	8	3
96	97	1
88	88	6
115	134	6
46	46	4
88	106	1
89	92	1
121	121	3
41	42	1
99	128	2
104	104	2
129	131	1
75	76	3
14	40	4
40	41	3
38	38	2
78	110	1
91	91	2
124	125	4
56	57	2
114	115	1
0	0	7
113	127	2
130	130	2
106	109	1
104	105	2
19	21	3
22	28	1
51	51	1
84	84	2
88	123	2
19	19	2
123	123	2
113	133	4
100	109	2
33	34	4
42	42	1
101	125	2
48	48	1
133	133	4
59	60	3
5	29	3
57	59	1
130	132	1
78	81	4
26	26	2
118	118	1
78	79	1
5	6	2
36	36	1
21	48	1
105	106	1
29	30	2
68	69	2
115	116	1
129	129	1
45	45	1
94	105	1
113	113	1
23	23	1
108	108	2
14	42	3
27	28	1
88	97	1
91	94	1
2	3	1
24	24	1
68	68	2
28	29	2
34	34	1
8	17	1
115	121	1
13	13	1
67	68	1
39	40	1
117	118	1
4	6	1
106	106	1
16	16	1
96	96	1
21	21	1
7	17	1
