4	4	18
111	111	16
37	60	5
69	69	23
131	131	8
112	114	3
78	79	2
124	125	7
44	44	11
24	25	8
9	9	11
88	93	4
132	132	4
84	111	3
64	65	11
66	66	9
5	5	11
30	30	13
25	39	2
77	77	9
72	72	10
1	9	4
102	119	2
102	105	3
8	8	6
2	2	4
21	21	9
112	117	2
87	88	5
134	134	5
129	129	8
32	32	7
62	62	10
45	45	15
101	101	4
100	100	8
56	57	5
106	108	1
57	77	3
76	105	1
41	43	4
109	109	11
20	20	7
23	24	6
93	110	3
119	119	16
29	29	3
34	72	2
121	121	3
113	113	5
61	61	11
5	16	5
29	30	2
84	95	4
83	83	4
108	117	3
91	91	14
68	68	9
74	74	2
31	31	5
3	17	4
121	122	4
15	15	18
127	127	17
46	131	2
26	29	1
64	64	13
105	121	1
41	41	6
59	59	4
44	62	5
124	124	7
78	78	15
102	103	1
77	78	5
75	75	13
71	71	3
76	76	13
90	91	1
126	129	2
98	98	12
115	115	5
8	10	3
57	57	14
25	30	7
94	101	1
126	132	2
13	13	10
119	122	2
133	133	7
10	10	8
121	123	1
118	118	23
86	91	8
90	93	8
98	99	8
47	47	13
12	12	10
22	22	11
34	34	20
87	87	14
82	82	4
42	56	3
90	110	5
76	77	6
112	113	8
6	6	6
43	43	7
25	29	3
27	27	16
32	112	2
39	39	7
28	59	2
58	58	9
10	11	3
22	25	6
13	14	3
109	110	8
79	80	3
2	3	2
89	127	1
88	88	3
99	99	4
89	89	6
110	120	3
114	114	11
32	118	2
101	123	2
110	112	1
132	133	1
39	40	9
79	81	3
85	103	1
75	76	3
122	122	14
19	24	1
125	125	11
25	25	10
80	80	13
68	69	2
81	81	11
24	26	3
46	63	1
57	70	2
70	71	8
40	40	11
90	105	1
60	60	6
127	131	2
96	96	9
133	134	3
17	17	4
26	30	1
90	90	9
27	30	4
16	17	4
130	131	4
129	130	2
97	97	6
116	116	18
36	37	6
79	79	10
97	98	8
113	114	3
99	100	3
24	30	1
84	84	8
33	72	2
106	107	2
95	95	4
92	105	1
50	50	1
101	103	2
36	40	2
126	126	7
30	31	2
84	85	3
119	120	2
82	83	5
6	7	1
46	46	18
42	42	5
23	127	3
13	15	4
117	117	14
3	3	3
115	120	1
107	130	2
131	134	5
107	107	11
97	107	1
73	73	2
56	56	11
17	19	2
26	27	5
94	125	4
100	101	1
80	81	2
22	23	2
25	38	1
92	92	4
38	39	3
117	119	6
37	37	11
25	26	1
120	120	6
34	70	2
108	108	3
9	10	8
110	111	2
67	95	1
5	15	5
63	63	5
11	11	6
81	92	1
39	42	1
110	110	8
8	9	2
28	28	3
103	103	7
33	33	2
2	71	3
84	86	3
86	108	3
104	105	4
58	59	3
50	55	2
65	65	7
99	101	1
102	104	2
33	37	1
72	73	4
86	86	1
132	134	1
63	64	3
85	109	2
14	14	6
8	12	1
44	64	1
29	114	2
23	23	2
104	104	4
19	19	5
130	130	6
27	32	5
123	124	3
103	119	1
101	105	3
16	18	1
92	102	2
122	131	1
70	70	6
3	71	1
127	128	5
37	38	3
14	28	2
77	84	1
4	5	5
89	90	2
117	118	1
94	94	2
35	36	11
108	109	3
111	112	2
51	54	6
126	128	1
112	112	6
110	115	4
35	60	2
14	41	3
97	99	3
90	108	4
119	124	3
20	22	4
27	28	2
105	105	5
25	49	1
7	7	3
27	45	2
41	49	1
3	4	1
35	35	4
16	16	5
26	26	4
57	58	3
77	113	1
13	16	3
43	44	2
34	57	5
96	98	1
15	44	3
116	121	2
116	120	2
101	121	1
33	116	3
72	86	4
64	68	1
94	109	1
85	90	1
71	72	3
73	75	1
106	106	2
128	133	1
20	21	1
102	102	4
121	134	2
20	48	1
55	56	2
122	127	1
55	74	3
18	18	6
85	86	3
81	82	2
94	96	1
96	100	2
123	123	1
68	70	1
94	99	3
80	91	2
67	67	3
80	94	1
107	133	1
63	76	2
67	68	1
131	132	4
109	111	1
31	32	2
85	85	2
27	29	1
104	107	2
21	22	4
114	115	3
76	84	1
87	109	2
111	113	1
100	128	1
83	84	2
61	64	1
126	134	1
0	0	1
18	33	3
93	111	1
6	28	1
97	128	2
49	59	3
33	71	1
55	59	3
11	12	1
30	32	1
69	70	2
5	24	1
105	120	2
113	115	2
16	47	1
94	106	1
128	128	4
4	23	2
115	116	2
36	36	2
45	46	4
22	37	1
94	95	1
33	35	1
94	120	1
47	63	1
131	133	1
75	116	2
107	126	1
120	129	1
48	59	1
107	132	1
93	93	1
18	44	1
122	125	1
95	96	1
118	124	1
108	121	2
42	49	1
87	132	1
35	58	1
34	71	1
20	116	1
95	102	1
57	85	1
1	1	1
89	91	1
