113	113	3
72	72	3
103	103	2
82	83	3
90	90	2
20	25	1
116	132	1
110	126	2
24	24	4
21	22	4
100	100	7
19	20	3
107	107	3
8	44	4
2	8	3
99	99	6
87	122	4
8	8	3
68	70	2
2	2	3
11	11	5
83	83	8
87	87	4
29	30	6
4	4	2
114	115	3
117	117	4
110	111	3
31	37	1
110	110	6
102	105	1
82	85	3
126	126	5
124	125	3
71	71	2
85	86	3
59	59	1
17	18	4
33	73	1
82	82	5
56	114	2
83	84	3
105	113	4
29	40	6
34	34	5
68	68	3
94	105	2
86	86	3
40	40	2
20	20	7
15	16	7
85	102	6
116	116	1
22	45	6
28	29	3
129	129	2
105	105	1
112	112	8
13	18	2
57	93	2
5	5	1
86	127	4
37	125	1
86	87	3
41	41	9
81	105	1
92	92	3
29	38	1
75	76	5
74	75	1
17	17	3
56	111	5
81	103	1
114	114	1
27	35	3
107	130	1
26	45	2
31	36	1
24	25	1
123	124	3
30	36	3
91	92	1
4	5	7
38	39	5
44	44	2
50	50	2
79	79	1
18	48	2
10	10	1
99	100	2
97	97	1
76	76	5
43	43	1
98	98	3
84	128	2
127	127	1
56	56	1
40	42	5
94	95	2
90	110	1
119	119	2
71	72	4
60	71	2
104	133	4
12	12	2
112	115	2
0	0	1
68	69	3
30	38	2
116	122	1
19	25	4
36	36	4
122	122	1
8	43	1
35	41	2
57	58	1
17	45	1
43	78	2
40	123	3
95	96	1
104	131	1
104	104	2
27	27	2
33	33	3
120	120	2
72	74	3
69	69	5
117	118	1
46	47	2
38	38	1
73	73	3
84	127	1
88	96	3
6	46	1
23	23	2
8	17	1
132	132	1
100	128	1
99	101	2
108	108	3
5	8	1
108	109	2
70	71	1
131	131	1
66	67	1
61	61	2
62	120	4
63	69	1
5	6	1
14	48	2
22	22	4
105	107	1
14	76	2
3	4	4
28	28	2
3	3	2
32	33	1
30	30	1
15	15	2
105	106	3
35	42	1
131	132	1
55	56	1
101	101	2
123	125	1
7	22	1
38	90	2
89	111	1
80	80	1
132	133	1
102	102	1
6	33	1
7	7	1
62	63	1
108	111	1
89	89	4
106	107	1
86	99	5
13	13	2
4	45	1
87	116	1
18	46	1
62	117	1
109	110	1
2	5	3
115	131	2
106	106	1
23	46	2
41	42	1
18	22	2
57	57	1
88	121	1
87	112	2
93	130	2
1	8	1
17	44	3
134	134	1
84	84	1
75	75	1
127	131	1
6	49	1
38	125	2
26	26	1
7	26	2
6	6	1
58	58	1
99	102	1
91	93	1
62	62	1
63	77	1
100	102	1
94	102	1
113	131	1
57	65	1
32	36	1
