125	141	5
20	21	7
49	49	3
39	39	3
60	60	2
59	59	3
64	64	3
124	124	2
43	122	1
77	77	5
16	37	3
64	65	7
10	10	4
25	27	2
137	137	4
58	58	5
22	22	7
75	75	2
122	122	3
41	41	3
144	144	1
126	142	8
89	89	2
4	4	1
73	73	6
28	29	2
30	62	3
76	77	5
71	71	9
108	108	5
27	28	4
8	8	7
28	28	3
118	118	3
12	12	4
121	121	10
125	125	2
23	23	1
34	36	3
106	106	2
66	66	1
38	38	18
54	57	4
69	69	4
32	32	4
90	90	8
99	99	6
100	100	6
84	85	4
68	68	10
131	131	11
43	54	1
101	101	2
9	9	2
104	104	4
55	56	1
18	35	1
92	94	2
42	60	2
52	52	2
86	124	8
62	63	1
22	37	1
30	66	3
6	6	5
103	104	3
120	120	4
87	90	2
47	47	11
14	23	2
60	61	5
103	103	4
133	133	2
116	116	9
102	102	5
101	102	1
76	76	3
53	142	2
9	11	3
13	13	6
81	83	2
145	145	4
74	74	3
16	33	2
139	139	2
82	88	3
81	81	4
49	51	1
94	95	2
40	59	1
129	130	1
11	23	4
51	51	3
84	84	2
138	138	7
35	35	4
5	5	2
129	132	1
29	29	5
31	31	3
99	100	6
119	123	3
1	10	1
3	3	3
0	0	3
139	144	1
13	20	1
120	123	4
33	34	4
73	75	1
15	29	2
47	48	2
25	25	1
95	95	2
144	145	2
53	53	4
17	140	1
65	65	3
61	61	3
30	30	2
110	111	2
49	53	1
37	37	3
107	107	1
14	14	1
20	20	2
33	33	3
94	94	3
33	35	3
26	40	1
126	126	9
63	63	2
29	30	4
8	62	1
2	29	2
109	111	3
125	143	1
57	57	1
40	41	1
49	57	2
140	140	2
56	56	2
106	111	2
80	80	2
78	78	4
24	24	4
74	75	1
88	88	3
34	34	4
72	113	1
72	75	2
3	14	1
114	115	5
42	42	1
131	133	1
41	43	1
135	135	1
142	142	3
21	21	3
92	92	2
31	32	1
20	33	2
54	54	1
130	130	5
34	37	3
1	1	1
19	20	1
85	85	2
31	63	1
7	11	1
114	114	3
63	112	1
129	129	2
111	111	1
128	130	2
9	10	1
130	131	1
130	132	1
54	55	4
63	121	1
13	15	1
112	113	1
137	138	1
63	85	1
70	81	1
96	96	1
8	10	1
101	103	1
106	107	1
39	40	1
141	144	2
72	73	1
84	112	1
26	29	1
26	26	1
86	86	1
50	50	1
53	143	1
128	129	1
72	110	1
85	86	1
16	36	1
134	134	1
139	143	1
