76	76	5
152	152	1
120	120	2
73	83	3
101	105	2
48	48	5
114	124	3
90	90	13
4	124	5
112	121	1
121	121	3
108	108	2
132	132	5
140	140	6
165	170	1
129	140	2
149	149	2
36	36	2
107	107	1
106	109	3
146	147	7
137	141	3
154	154	9
39	40	1
42	42	4
115	115	5
180	180	1
142	142	9
12	12	9
164	164	7
122	129	3
37	37	8
157	157	4
155	163	5
117	117	4
97	98	5
189	189	2
46	46	1
2	2	4
123	124	2
46	64	4
128	129	4
122	122	4
134	138	2
44	44	1
58	59	2
38	64	2
172	175	1
170	170	11
13	13	4
116	116	1
107	108	3
175	187	1
38	38	2
39	39	1
127	127	6
160	161	2
16	25	1
17	17	4
92	92	7
119	129	1
77	77	2
153	153	1
101	101	3
80	80	4
86	86	4
84	108	3
6	6	5
110	141	4
96	153	3
109	141	1
83	140	2
162	162	1
17	24	3
150	151	2
187	190	1
119	119	1
14	14	10
8	8	3
79	82	3
57	57	4
61	64	1
116	121	2
134	134	6
33	34	1
117	118	2
65	71	2
146	146	6
40	62	3
176	187	8
148	148	3
31	31	3
98	161	1
179	179	4
150	158	1
108	141	1
143	143	3
105	106	1
83	84	2
190	190	1
135	137	1
6	7	5
183	183	5
81	83	1
24	32	1
70	70	4
187	187	2
184	185	4
97	97	2
60	62	1
129	130	1
164	165	1
113	113	4
71	72	3
106	106	6
168	168	4
21	21	6
75	75	9
110	110	4
98	153	6
63	64	1
23	24	1
19	19	8
84	84	1
139	139	1
33	33	2
0	2	2
124	124	3
165	165	4
111	112	2
71	71	2
102	102	2
189	190	1
176	176	1
161	161	1
90	91	1
178	179	2
83	139	1
83	83	3
41	42	3
131	138	1
2	93	2
6	126	3
111	119	1
98	98	1
82	82	3
104	104	1
28	29	3
34	34	5
188	188	1
103	103	6
128	128	5
142	144	2
111	136	2
138	138	2
148	151	2
89	89	1
112	129	1
74	75	1
160	165	2
147	149	1
78	79	3
85	87	1
147	147	3
11	11	2
85	85	1
144	144	1
135	135	1
56	56	2
45	45	1
38	39	1
126	126	1
104	106	1
145	145	1
166	166	4
167	167	3
13	14	1
167	173	3
186	186	4
44	45	2
59	59	1
109	110	2
26	34	2
175	175	1
79	94	2
3	3	3
141	141	2
115	116	2
169	170	1
39	47	1
57	127	1
170	171	2
113	129	2
52	52	2
10	10	2
65	70	1
169	173	2
114	114	3
12	13	1
172	172	1
106	112	4
155	156	2
151	151	2
109	158	1
19	20	1
174	174	2
32	33	1
58	58	1
43	44	1
18	24	1
87	87	3
130	132	1
157	161	1
183	185	1
105	105	2
88	89	1
114	128	1
35	35	1
25	36	1
114	115	2
155	158	1
152	153	2
22	22	4
29	30	1
47	47	1
126	127	1
104	105	1
54	88	1
140	141	1
29	29	1
157	158	1
55	88	1
61	66	1
96	99	3
38	61	1
179	180	1
159	159	1
95	165	1
7	7	1
41	41	1
82	89	1
