159	159	10
93	146	1
66	105	2
78	79	7
165	165	20
40	40	16
157	157	5
114	171	1
138	138	8
177	177	7
23	26	2
57	57	9
169	169	12
176	176	7
149	149	9
39	39	9
53	120	1
87	87	4
31	32	4
50	91	2
104	104	9
42	42	8
106	106	12
66	66	3
6	16	3
170	170	5
106	109	1
90	90	22
51	63	1
103	103	3
109	109	10
4	4	7
63	84	2
92	93	6
98	99	4
37	37	14
81	81	9
43	43	7
6	11	5
112	112	5
93	93	12
64	64	4
143	143	3
90	91	4
123	123	7
4	5	5
107	107	22
95	95	12
54	54	10
164	164	16
124	131	2
24	25	3
147	147	8
171	171	4
99	101	5
96	97	4
38	39	2
119	119	8
74	74	3
77	79	1
148	148	10
174	174	6
15	81	2
170	173	5
159	174	1
145	145	5
88	88	5
130	130	8
4	42	2
173	173	7
62	131	3
24	28	8
93	152	3
33	164	3
16	16	3
159	160	3
100	110	2
118	177	2
18	18	13
116	117	7
106	120	2
58	101	4
56	56	3
136	147	6
25	25	7
6	40	4
118	125	3
1	3	6
142	142	6
20	20	10
170	171	1
180	180	2
39	40	10
100	100	7
32	32	7
62	63	7
139	140	5
46	46	1
89	171	2
83	83	7
122	122	6
163	163	9
118	118	8
79	79	5
0	0	9
135	135	9
12	12	6
19	19	6
53	53	15
21	21	13
15	15	1
18	21	5
1	17	3
127	127	9
2	39	1
146	146	10
117	117	3
90	93	3
71	71	16
92	92	5
11	11	2
132	152	1
124	151	1
163	164	9
8	8	6
52	53	4
126	132	4
42	45	4
131	148	3
155	156	9
17	17	9
158	158	10
102	122	3
150	155	2
121	122	4
74	75	6
156	156	6
142	143	4
132	132	16
113	113	5
116	116	6
108	109	5
51	150	3
81	82	4
178	178	5
16	17	11
60	60	6
152	179	2
166	167	7
71	96	3
51	146	4
41	41	5
155	155	10
137	140	1
160	167	2
26	26	3
26	87	5
52	55	4
140	140	10
152	153	2
36	36	12
97	97	4
86	130	4
9	9	5
95	112	4
120	120	6
17	18	1
10	10	8
137	137	6
173	174	3
15	16	2
165	166	1
108	108	7
129	129	7
133	133	4
31	154	1
110	115	1
131	142	1
165	176	2
132	133	1
152	152	12
76	89	3
73	76	1
10	11	3
126	126	1
167	167	8
55	55	9
30	30	3
18	19	3
5	6	2
157	158	1
51	52	2
136	136	6
6	20	1
68	123	4
75	75	5
162	162	6
130	142	2
124	137	1
110	110	5
77	77	10
50	50	7
99	99	7
128	153	2
76	76	6
58	61	1
72	72	14
125	125	8
113	114	7
5	39	3
44	44	8
101	101	7
53	94	2
81	136	1
153	154	3
127	144	1
98	98	3
153	153	9
91	91	9
53	54	3
53	57	6
109	110	2
105	105	10
107	108	4
6	6	9
85	85	3
6	39	4
169	175	2
78	78	9
28	28	5
45	148	2
80	80	2
61	62	4
150	151	1
61	61	6
125	126	1
31	31	5
3	3	8
135	150	2
23	29	1
101	151	1
120	121	5
2	2	4
167	168	2
101	112	1
95	98	6
155	157	1
23	25	2
27	87	2
68	68	3
104	109	3
86	109	1
129	155	2
171	176	2
166	166	10
71	135	1
102	102	7
113	118	3
71	134	2
152	157	4
107	110	3
141	141	6
26	86	3
14	17	1
10	37	1
14	14	2
150	150	5
174	175	4
58	58	8
159	173	1
22	23	1
34	35	3
91	92	5
164	165	4
43	44	1
45	135	1
124	125	1
161	161	14
151	153	1
54	130	4
12	42	4
51	82	2
151	151	2
52	119	1
160	160	3
60	62	1
127	146	2
113	121	3
76	77	2
142	144	4
89	89	3
134	134	1
111	111	8
56	131	1
114	151	2
100	170	7
4	18	2
35	35	2
51	51	7
115	118	2
6	41	4
3	5	2
62	62	4
168	178	3
154	154	1
52	52	7
28	31	2
116	121	4
146	147	4
166	168	1
161	162	3
51	65	1
32	33	1
130	131	4
114	126	1
57	58	2
12	13	1
95	96	1
38	38	3
73	73	6
85	101	2
22	22	5
145	146	1
56	57	3
30	43	5
63	63	2
59	95	3
144	144	2
55	151	3
52	67	4
55	67	3
121	121	8
80	81	1
34	34	2
64	90	5
24	24	5
166	178	1
27	27	5
54	136	1
92	143	2
149	150	1
102	170	2
60	96	4
21	45	1
139	139	6
170	174	2
74	174	2
52	129	4
29	29	5
114	114	2
143	144	2
96	96	3
122	127	1
31	33	3
105	171	3
117	124	2
61	136	2
13	13	2
86	95	1
112	114	1
45	136	3
124	124	6
137	138	3
41	42	3
179	179	3
127	128	2
49	49	3
100	109	2
172	172	3
15	42	2
13	14	2
134	148	1
55	56	1
142	145	1
42	43	3
133	134	3
74	178	3
18	22	3
114	118	2
63	64	2
31	66	2
72	78	3
53	67	1
115	117	2
51	81	3
68	86	2
156	157	2
110	118	1
27	28	1
25	28	2
5	5	1
175	175	2
20	34	3
135	146	2
8	33	1
88	106	1
117	118	3
94	94	6
101	109	1
60	61	2
26	28	2
16	50	3
94	117	2
128	128	3
157	176	1
14	38	1
21	135	1
106	107	1
175	176	2
97	100	2
147	148	1
61	80	1
13	50	2
56	67	3
19	21	2
173	176	2
110	123	1
157	159	2
156	160	1
169	170	1
158	159	3
36	40	1
30	31	1
33	163	1
56	87	1
109	151	1
163	167	2
90	128	3
135	148	1
96	98	1
143	146	3
131	145	1
56	68	1
17	54	2
112	113	1
15	39	2
72	173	1
59	97	2
62	96	1
127	129	2
6	36	1
21	44	1
129	151	1
23	24	1
132	151	1
110	170	2
125	128	2
1	1	3
53	93	1
72	148	1
99	150	2
170	172	1
85	120	1
144	145	1
64	65	2
46	147	1
117	122	1
119	124	1
109	119	2
45	45	3
168	169	2
103	104	1
101	169	1
137	149	1
105	106	1
77	78	1
110	148	2
92	152	1
75	175	1
154	159	1
87	104	1
33	33	1
67	67	3
7	43	2
74	148	1
38	45	1
94	134	1
79	80	1
66	82	1
35	36	1
34	65	1
9	11	1
123	124	2
52	66	1
156	174	1
176	177	2
133	148	1
163	165	1
161	163	1
138	172	2
134	139	1
98	101	2
89	125	2
168	176	1
59	59	1
86	86	2
56	89	1
3	4	1
132	139	1
88	103	1
44	147	1
54	88	1
158	160	1
88	114	1
104	105	1
62	67	1
9	20	1
51	91	1
109	170	1
171	172	1
19	20	1
