139	139	12
114	114	9
58	59	4
35	35	14
9	22	3
109	128	3
83	84	2
159	160	1
107	113	3
169	169	15
23	23	15
125	134	5
143	143	10
100	100	7
52	52	9
28	28	15
174	174	13
107	107	9
7	7	15
9	66	5
170	170	21
1	14	1
157	163	1
91	91	4
119	136	8
134	134	15
176	176	12
27	27	5
129	130	5
62	68	2
178	178	8
168	168	14
145	146	7
96	96	16
121	122	3
132	132	18
97	120	2
144	144	8
89	89	2
56	56	12
67	67	6
127	128	2
157	159	3
87	87	10
55	56	5
104	104	17
81	81	10
100	101	6
154	154	14
136	137	4
135	136	1
29	29	2
66	67	6
133	133	17
127	127	17
180	180	9
64	97	2
95	111	2
9	10	1
32	75	6
159	159	26
156	156	10
86	86	15
61	62	2
94	94	15
175	180	2
118	118	11
8	8	6
30	30	7
74	74	10
11	16	3
25	25	8
20	21	2
79	79	19
61	61	19
16	39	6
11	11	6
2	2	12
88	88	12
130	161	2
55	55	5
125	125	5
30	33	2
91	93	4
118	119	8
158	161	2
149	149	8
136	136	11
62	62	6
71	71	9
105	105	9
20	20	6
103	106	2
38	38	12
104	105	7
78	79	5
39	39	6
54	54	6
173	173	9
142	143	2
4	4	11
122	122	2
1	1	16
117	117	16
68	68	9
165	165	11
17	17	13
99	99	9
166	167	3
135	135	10
109	109	13
112	112	7
73	73	9
162	163	5
87	100	4
125	154	7
102	126	3
145	145	9
90	93	3
151	168	5
62	66	1
171	172	9
24	24	1
97	97	16
22	22	8
53	78	1
65	65	14
85	86	3
166	166	12
77	81	3
142	142	8
152	153	6
14	60	4
157	164	2
17	19	1
64	64	12
123	123	4
56	66	4
15	15	13
118	129	3
157	157	3
49	102	3
150	150	9
62	63	4
58	58	13
24	27	4
152	152	14
161	161	13
92	93	10
52	78	1
25	32	3
4	16	5
50	51	2
111	123	3
6	8	2
96	101	3
111	143	3
22	24	2
136	154	3
95	106	2
140	141	2
83	83	10
101	101	3
128	135	3
64	65	2
148	148	5
64	90	2
131	140	6
179	179	11
92	92	8
153	153	4
115	117	3
9	9	17
123	153	1
137	137	8
13	16	5
31	32	2
42	42	9
110	110	10
10	10	5
162	162	13
148	165	1
37	37	13
3	5	2
131	131	10
82	82	9
162	167	1
0	135	1
21	21	4
125	153	2
3	3	7
130	130	7
85	85	7
13	13	7
63	63	5
24	25	7
34	34	7
95	95	23
119	120	6
26	44	6
1	38	2
160	160	3
139	148	1
5	5	14
146	146	14
165	167	2
59	59	12
7	10	3
157	158	1
35	39	3
94	95	5
45	45	1
57	58	1
59	60	2
103	103	8
16	16	13
141	142	5
122	141	1
53	54	4
168	169	8
4	5	6
147	147	6
123	126	2
140	140	23
30	39	2
146	148	2
10	57	4
61	63	1
138	138	5
128	128	4
144	147	5
3	4	3
77	77	3
6	7	5
128	157	3
124	126	4
114	115	1
44	45	3
21	22	1
155	155	5
172	173	4
160	161	2
107	135	2
16	17	3
40	40	3
11	14	4
18	18	7
173	174	2
75	75	4
113	114	3
12	12	13
158	160	2
167	174	2
106	106	3
43	43	1
33	33	3
155	156	3
172	172	4
6	6	8
177	177	2
32	32	5
14	14	3
44	44	6
123	154	1
164	164	14
141	141	7
10	54	4
117	129	2
150	151	3
37	38	5
51	51	10
2	16	4
124	124	15
76	84	2
43	45	1
110	111	2
91	94	5
44	57	1
174	176	2
129	141	3
89	90	1
73	77	3
105	109	1
150	153	2
58	65	2
50	52	3
18	19	5
53	53	8
78	78	5
108	108	7
115	115	5
19	22	1
38	43	1
145	153	4
13	15	3
119	119	8
0	0	1
114	118	4
72	72	5
113	113	12
173	176	7
129	129	14
26	28	6
141	143	2
126	126	6
130	162	1
158	158	3
43	64	3
88	89	6
137	139	2
150	156	3
15	55	1
80	80	5
151	163	2
50	50	6
146	147	4
77	80	4
38	50	1
57	62	2
75	90	1
165	166	8
2	3	1
2	79	3
57	57	5
39	40	5
163	163	16
154	161	1
31	31	5
63	94	1
90	95	1
123	124	3
40	41	3
157	160	1
116	116	5
96	142	2
56	72	6
167	167	10
138	139	3
39	52	2
30	31	7
25	26	2
107	127	2
131	139	1
2	52	2
155	163	1
17	39	2
102	102	3
121	146	3
82	86	1
19	19	8
60	61	10
41	41	5
151	151	10
112	124	1
2	4	3
63	84	1
128	129	2
15	140	3
5	37	2
63	64	1
147	148	4
96	120	1
37	50	3
90	92	2
98	128	2
12	60	2
40	44	1
121	142	2
96	97	4
110	128	2
26	26	1
8	9	4
97	112	2
58	62	1
51	54	2
49	50	1
106	110	1
150	161	2
42	52	2
135	164	2
77	78	4
161	163	3
60	60	2
72	73	1
148	149	4
149	150	1
143	149	1
175	175	3
28	45	1
179	180	3
2	18	1
98	98	9
76	85	1
113	118	4
52	80	1
137	138	5
99	100	4
170	173	1
4	53	2
49	59	1
92	99	2
150	163	1
3	6	2
111	111	6
88	138	1
28	81	1
74	75	3
12	129	2
62	64	2
168	170	1
83	88	4
4	49	1
75	79	3
84	85	4
6	54	2
44	46	2
100	156	1
56	84	3
43	44	3
53	157	2
16	22	1
128	134	2
81	83	5
129	166	2
127	133	1
125	126	2
22	35	2
16	37	1
112	113	3
61	66	2
52	53	2
12	13	3
9	67	3
121	145	1
121	121	6
66	66	5
141	146	1
141	165	2
111	112	1
158	164	1
114	119	3
75	76	3
136	175	1
81	82	1
155	158	1
50	59	2
146	153	2
89	91	2
7	8	1
17	18	2
58	61	1
11	13	2
127	163	1
65	66	3
144	145	7
132	135	1
94	122	1
76	76	4
92	94	1
10	14	3
39	44	3
24	61	1
84	84	3
5	15	2
107	108	2
22	23	3
171	171	5
106	108	1
103	126	1
154	155	3
76	77	3
109	136	2
41	42	3
142	148	1
33	41	1
108	109	3
161	168	1
4	80	2
139	140	3
66	100	2
92	111	1
19	39	1
120	121	1
33	40	1
29	30	3
114	120	2
113	142	1
102	109	2
77	84	2
128	155	1
93	97	1
63	67	1
167	178	1
36	52	1
58	64	2
116	117	1
71	72	2
159	164	1
174	175	2
154	164	1
105	127	1
120	120	2
65	67	1
5	8	1
132	168	1
170	171	2
36	36	1
141	149	1
156	157	2
11	12	1
162	165	3
106	107	2
11	66	1
35	36	2
90	91	1
133	134	1
80	81	1
98	100	1
159	171	2
93	93	1
75	86	2
104	107	1
89	103	1
137	171	1
124	133	1
35	53	1
98	129	1
14	53	1
13	14	1
130	141	2
32	38	1
132	172	1
10	53	1
103	104	1
70	71	1
12	133	1
45	55	1
122	123	1
65	74	2
149	151	1
67	97	1
3	10	1
151	152	1
52	109	1
32	40	1
71	74	1
67	100	1
68	122	1
7	37	1
169	170	1
124	125	1
