78	79	2
126	134	1
76	78	5
81	102	3
91	91	3
19	19	1
141	146	4
105	106	1
66	88	2
6	6	5
14	14	2
111	111	8
15	15	6
77	77	4
113	113	2
92	101	2
70	70	3
113	119	3
80	82	3
55	106	3
62	62	3
70	100	2
102	103	4
114	123	1
88	88	5
57	62	3
165	165	6
163	164	3
131	131	2
75	75	1
77	84	2
96	96	7
108	108	3
98	98	5
140	140	1
162	162	5
92	92	2
23	23	1
125	125	7
51	52	5
79	79	2
27	27	3
77	82	1
47	47	5
162	163	2
17	17	3
35	42	1
6	7	1
75	90	5
26	27	4
11	14	2
72	159	5
44	52	2
6	52	3
144	144	6
108	113	1
62	63	3
20	22	3
94	94	3
132	134	1
160	160	6
149	158	1
129	130	1
127	134	1
102	102	2
0	50	4
69	69	4
104	104	3
154	154	3
67	69	2
73	73	4
17	24	5
167	167	1
93	99	2
46	50	3
145	146	4
130	130	3
65	65	4
145	145	1
139	147	1
73	156	1
20	20	3
10	15	1
110	133	2
58	98	2
57	57	2
82	82	2
13	13	1
152	152	4
63	63	2
41	41	1
53	53	2
35	36	1
80	80	8
66	75	1
38	41	3
122	123	1
165	169	1
135	135	1
117	117	3
166	166	3
86	86	2
46	46	2
87	100	1
18	39	1
68	68	1
156	156	7
80	160	2
51	51	2
159	159	2
67	67	2
84	84	1
71	72	1
43	43	1
13	20	3
149	150	1
90	130	1
141	141	3
95	96	2
35	35	1
13	15	1
71	78	1
77	160	2
120	120	1
15	57	3
98	99	1
74	74	1
87	99	1
10	10	2
93	93	4
109	109	2
1	9	1
45	127	2
144	146	1
64	65	1
110	111	1
128	131	2
63	89	2
8	25	2
129	129	2
77	78	3
150	150	3
50	50	2
56	56	5
11	11	2
7	7	4
155	155	1
42	42	2
155	156	2
126	127	1
87	102	1
3	3	1
11	124	1
99	121	1
128	128	2
134	136	1
16	129	1
99	99	1
109	114	1
16	128	3
52	54	1
89	89	1
87	87	2
44	45	1
151	151	1
11	13	2
97	97	1
164	165	1
48	48	1
4	4	1
136	169	1
39	39	3
91	92	1
125	126	1
16	127	1
143	143	1
136	137	1
98	126	3
37	38	1
67	157	1
144	154	1
126	126	1
13	14	3
112	112	4
52	52	3
100	101	2
134	134	4
129	131	1
36	36	2
22	22	1
24	24	1
147	148	1
49	49	1
23	57	3
110	120	1
131	132	2
62	109	1
37	37	1
145	149	1
165	166	2
99	136	1
152	167	1
145	152	1
121	136	1
25	25	2
107	107	1
1	1	1
87	98	1
12	125	1
158	158	1
162	165	1
0	96	1
8	9	2
35	132	1
15	134	1
67	154	2
55	55	1
149	153	1
116	116	1
114	114	1
71	71	1
149	149	1
18	38	3
70	170	1
25	26	1
22	24	1
62	70	1
14	15	1
39	40	1
132	132	1
