179	180	4
204	204	2
212	223	2
122	145	4
225	225	8
77	78	5
176	176	2
171	171	4
124	142	3
72	89	2
115	117	5
141	143	6
195	196	2
214	214	6
166	184	5
167	167	12
215	216	3
230	230	6
86	91	2
20	20	8
188	209	1
189	189	7
140	143	3
148	155	2
171	172	3
159	160	4
36	225	3
163	191	3
82	152	2
161	193	2
138	138	6
102	133	6
83	83	4
221	223	1
191	201	5
40	40	3
64	65	1
153	154	3
8	60	3
197	197	8
187	187	1
41	57	1
9	9	5
160	160	1
172	172	6
221	238	1
29	29	7
71	71	4
98	98	2
0	0	1
150	152	1
103	108	3
35	35	7
77	80	6
80	81	6
201	203	1
198	198	7
217	218	2
162	164	2
3	81	4
24	47	1
232	233	2
158	158	7
162	163	4
162	191	3
191	191	2
226	227	6
39	39	5
140	145	1
125	132	2
75	75	6
100	152	4
54	54	4
25	26	2
18	19	2
164	164	3
199	199	3
199	235	4
190	190	1
243	243	3
49	49	5
123	143	1
220	220	6
28	227	2
62	62	5
187	189	3
160	178	4
202	207	3
68	68	2
132	132	2
184	184	4
236	238	2
211	211	6
201	202	7
208	208	5
193	194	5
228	229	1
224	224	1
105	112	2
37	61	1
227	227	3
79	79	5
45	206	2
125	125	4
28	28	3
202	202	2
96	98	4
56	56	1
144	146	1
177	177	1
110	136	2
28	32	6
7	9	4
65	65	5
103	103	1
47	206	1
205	206	2
143	168	1
104	104	2
31	34	8
15	185	4
89	89	2
35	36	5
36	41	1
141	141	3
83	84	2
77	79	4
81	83	4
81	81	11
57	57	3
45	204	1
118	119	7
60	60	4
235	235	5
223	223	3
144	145	4
199	221	1
46	51	1
2	4	3
101	101	4
45	54	5
12	13	2
13	16	4
147	147	1
127	130	3
192	192	6
80	84	5
47	47	2
109	135	2
97	109	1
101	102	1
3	55	2
169	169	5
11	58	4
31	31	4
99	99	3
149	149	3
179	179	5
107	108	1
183	183	2
53	53	2
233	233	2
126	126	2
58	60	3
119	119	2
43	43	8
163	188	2
242	242	5
213	213	2
221	221	1
172	205	1
53	56	3
122	144	3
99	101	2
55	184	4
139	144	1
200	200	4
148	148	5
105	105	6
11	55	1
3	3	2
4	4	7
82	82	1
226	226	1
24	24	4
144	144	1
11	12	4
123	125	3
23	36	1
73	73	2
103	105	1
192	193	2
128	128	2
46	46	1
237	237	2
156	156	9
55	56	1
188	188	5
127	127	2
61	61	1
25	38	2
27	27	7
25	44	2
146	146	1
28	226	2
165	190	1
114	115	4
209	209	3
82	84	5
17	18	4
208	211	2
165	165	3
2	8	1
175	175	1
51	52	2
95	108	2
63	63	1
26	228	2
152	152	1
41	41	2
74	74	4
173	173	7
181	182	1
154	154	3
1	81	2
234	238	2
32	32	4
26	26	6
37	63	2
102	105	1
25	39	3
140	140	3
21	56	1
118	118	4
84	84	4
1	1	2
150	150	1
52	52	2
151	152	2
50	50	2
205	205	5
119	151	2
23	42	1
14	147	2
195	197	2
44	206	1
109	109	2
108	129	5
80	80	3
141	142	1
175	176	2
159	159	1
70	70	2
20	58	1
150	151	1
234	235	1
14	14	1
200	211	4
12	12	4
135	135	5
142	142	4
145	170	3
75	76	1
202	206	2
155	155	1
36	36	2
0	13	3
185	185	5
166	166	1
241	241	4
217	217	1
209	210	1
212	213	1
145	146	3
39	40	3
215	215	2
35	40	1
199	213	1
50	51	2
85	86	3
162	162	2
222	222	2
45	209	2
99	100	2
121	121	1
20	41	3
137	181	2
238	238	2
106	106	3
30	30	2
136	182	1
85	99	1
7	7	4
5	5	1
68	77	3
95	97	1
179	192	2
185	186	1
95	95	1
7	61	1
38	38	2
10	71	1
133	133	2
109	110	2
58	58	3
221	222	2
44	44	2
40	42	1
154	155	2
123	154	1
19	19	4
83	86	4
89	100	1
96	97	1
165	166	1
86	89	1
102	103	1
13	13	3
157	157	2
43	44	2
134	134	1
119	149	2
21	22	1
8	19	4
45	45	2
43	48	2
151	154	1
159	183	4
178	178	1
69	69	1
42	42	2
135	142	3
149	150	1
16	20	1
115	119	3
116	116	1
9	10	1
186	188	2
11	56	1
151	151	1
191	212	1
186	186	2
184	190	1
231	234	1
66	66	3
186	187	2
191	192	1
112	112	2
159	179	1
234	234	2
15	184	2
161	192	1
16	16	2
73	152	1
115	115	3
189	190	1
96	96	1
120	122	1
71	170	1
104	107	1
148	150	1
206	206	1
138	164	1
24	25	1
17	17	2
29	33	4
236	237	2
201	201	1
45	47	1
206	207	1
102	121	2
1	80	1
163	163	1
72	72	2
122	122	2
76	76	1
184	189	1
73	85	1
20	56	1
161	161	1
224	226	1
4	59	1
85	85	1
84	88	1
102	102	1
15	16	2
133	134	1
231	231	2
228	228	1
142	168	1
176	178	1
153	156	1
239	239	2
40	41	1
201	208	1
139	142	1
3	58	1
138	168	2
144	147	1
20	22	1
65	77	1
147	148	1
43	50	1
95	134	1
34	34	1
52	223	1
137	140	1
0	4	3
159	194	2
235	236	1
9	55	2
115	116	1
117	119	1
9	41	1
214	215	1
200	207	1
229	229	1
54	71	1
0	2	1
29	32	1
46	201	1
114	114	1
107	135	1
177	178	1
180	183	1
49	50	1
