93	93	10
93	94	5
37	37	6
61	116	1
102	139	2
44	45	1
145	146	2
30	30	6
83	83	8
143	143	2
116	116	9
147	147	5
145	145	11
28	28	16
127	134	3
59	59	5
42	53	3
165	165	9
57	57	3
111	112	7
54	54	4
50	50	12
39	40	7
148	148	7
12	12	7
44	44	9
78	78	10
30	31	3
24	139	1
36	36	3
119	119	4
144	144	9
94	94	4
2	2	1
173	173	8
170	170	3
127	127	3
109	109	4
101	101	4
24	25	5
176	176	13
29	30	4
114	114	3
130	131	3
161	161	4
60	60	7
62	97	1
149	154	4
115	115	5
171	172	1
107	107	5
120	121	1
5	5	3
41	42	2
61	101	3
82	82	5
83	85	2
166	167	6
159	159	2
39	39	6
100	100	9
80	81	4
174	174	5
66	66	8
111	111	3
75	76	4
155	155	8
56	99	1
128	128	10
152	152	3
18	18	5
102	102	10
94	95	3
123	156	3
63	95	6
124	127	3
137	137	3
175	177	3
119	121	1
7	12	1
33	34	1
148	159	6
17	18	6
146	147	3
53	54	5
45	45	6
156	156	14
81	107	2
157	159	1
35	36	8
160	160	2
31	31	9
62	63	2
55	55	8
123	124	5
53	53	6
165	166	7
121	121	2
79	107	2
167	168	2
170	171	1
140	140	5
63	63	6
56	56	12
169	169	9
23	24	5
120	120	5
46	46	4
6	6	4
98	98	2
146	148	1
150	154	4
73	73	10
130	130	3
145	147	1
148	149	3
142	142	4
173	174	4
120	122	3
26	26	4
175	175	6
3	5	3
41	41	5
172	172	1
144	145	1
90	90	9
151	151	5
76	76	3
130	134	5
101	103	1
141	141	6
85	114	1
38	38	3
73	74	2
0	0	10
74	74	12
64	64	3
8	8	7
40	41	2
3	136	1
65	66	1
122	122	8
30	139	2
33	33	13
17	17	2
8	19	1
158	158	8
49	86	2
3	4	1
39	43	1
92	92	6
132	132	3
101	117	4
157	157	5
134	134	8
152	154	3
40	40	15
75	75	11
22	23	4
105	106	2
97	98	3
10	10	3
179	179	3
67	68	5
135	137	2
88	89	3
5	6	1
91	91	4
118	128	4
22	22	2
64	65	5
146	146	5
136	142	6
35	35	3
30	32	1
89	89	5
153	153	2
126	127	9
133	133	1
28	140	1
71	72	5
77	77	5
65	65	3
125	125	3
180	180	2
163	163	9
126	129	3
101	130	5
124	124	4
56	57	3
116	117	1
125	157	5
25	26	5
133	134	3
131	131	1
106	106	3
32	33	5
9	9	5
151	152	1
177	177	4
103	117	1
158	159	2
121	123	4
147	148	3
162	163	2
71	71	4
61	61	3
85	85	3
135	136	1
2	23	4
8	18	1
110	110	7
127	129	1
87	99	2
31	103	2
103	104	2
58	59	6
163	166	1
168	168	11
112	112	4
154	154	3
14	14	5
113	114	1
126	136	3
56	109	1
150	150	3
108	108	10
171	171	3
155	157	1
86	86	8
101	102	1
42	42	2
13	13	8
118	118	8
1	25	3
63	96	2
124	141	1
72	72	5
135	141	2
88	88	2
24	24	5
58	58	6
147	150	5
138	138	2
157	160	1
1	2	1
103	103	1
5	29	1
136	136	1
52	52	5
164	164	8
125	160	2
9	12	2
87	87	2
162	162	2
85	112	2
32	32	2
136	137	1
62	62	5
135	135	2
156	157	2
16	16	3
28	139	3
123	128	1
56	108	1
92	93	1
139	140	4
171	177	1
68	68	7
78	105	3
37	38	1
115	123	1
37	51	1
150	151	1
34	112	1
113	113	1
101	113	1
56	110	4
29	29	3
81	81	5
178	178	1
129	129	2
109	114	1
99	99	3
76	77	2
168	169	2
31	104	2
43	43	3
89	90	2
79	79	4
85	111	1
79	80	4
128	137	1
77	104	1
123	123	3
163	164	1
57	81	2
158	160	2
67	67	3
38	39	1
119	138	3
31	34	2
55	56	3
42	54	2
80	82	1
126	126	1
93	97	2
42	52	3
1	138	2
101	118	2
25	138	1
153	173	1
81	82	1
96	96	4
41	52	1
51	51	2
27	28	2
172	173	1
57	61	2
170	175	1
33	86	1
9	14	1
61	102	1
1	28	3
55	76	1
34	34	1
15	15	4
87	89	2
27	30	1
84	85	1
59	60	3
115	116	2
118	119	4
61	100	1
3	27	2
0	1	1
110	115	1
128	129	3
123	125	1
8	12	2
23	115	1
89	97	1
3	3	1
1	1	1
83	113	3
100	114	1
72	75	4
98	99	3
175	176	1
26	136	1
20	20	2
164	166	1
164	165	2
2	3	1
21	21	1
137	138	1
93	96	1
101	140	1
148	150	1
132	133	1
103	119	1
49	51	1
50	51	2
126	130	1
154	156	1
16	17	1
104	104	4
49	49	1
9	15	1
131	132	2
174	175	1
138	139	1
179	180	1
70	71	1
95	95	3
6	7	1
11	11	1
