78	78	13
100	100	14
70	70	11
7	7	11
63	64	2
95	95	16
114	115	5
34	34	11
67	67	16
23	23	3
56	60	2
56	57	5
123	123	9
83	83	5
33	33	15
24	25	6
85	116	2
18	18	17
110	110	14
62	62	12
18	20	14
66	66	14
41	42	10
59	60	5
24	48	5
45	48	4
94	94	10
61	72	2
48	48	10
63	63	19
66	67	5
27	27	9
8	8	15
86	87	3
124	124	17
29	30	8
95	96	7
27	29	2
32	32	9
107	107	19
93	93	18
111	111	18
77	77	16
4	5	4
100	101	8
101	101	9
93	94	5
90	92	4
82	82	11
92	92	15
2	5	6
11	11	5
73	74	4
118	118	14
120	120	15
75	75	3
26	26	6
8	76	5
13	13	8
58	58	4
9	9	13
97	97	12
117	119	1
73	73	13
20	20	18
126	127	10
30	30	14
74	74	12
5	5	13
109	109	6
42	42	17
17	68	1
109	114	2
27	30	2
130	130	3
21	22	5
57	57	6
65	65	19
76	76	15
4	83	3
46	47	4
8	46	6
66	108	2
120	121	2
29	29	6
63	66	2
3	3	25
109	110	8
41	41	12
111	113	1
28	35	3
12	13	5
72	73	10
126	126	12
119	119	7
106	107	5
16	20	4
121	121	6
103	103	12
3	6	3
43	43	7
28	28	6
10	13	4
6	6	11
7	9	2
14	105	12
87	88	9
102	102	11
38	41	4
72	72	22
21	21	10
128	134	2
101	102	14
63	77	2
110	111	7
64	64	9
80	82	3
107	117	6
115	115	14
92	94	2
39	42	2
10	78	2
44	45	5
39	39	6
108	108	11
35	35	9
17	17	11
8	23	4
106	106	3
112	114	5
22	22	18
4	81	3
9	78	3
102	103	6
116	129	1
71	71	7
0	0	12
24	24	4
94	99	8
65	103	7
84	90	6
60	60	5
61	61	7
84	85	8
61	62	4
80	80	1
122	122	13
116	116	3
21	59	1
2	2	13
85	85	15
60	61	6
118	119	2
125	125	9
115	129	3
130	134	3
91	91	8
112	131	4
42	122	1
72	74	2
11	17	1
4	82	2
121	122	5
36	38	2
125	126	9
40	42	5
109	115	5
98	98	4
5	81	3
94	96	5
112	115	1
31	31	17
16	16	10
23	25	7
8	34	1
51	58	2
71	72	4
45	46	1
85	86	2
37	37	4
127	131	2
96	96	3
117	117	10
99	99	8
128	131	7
80	100	1
84	84	15
107	108	5
83	87	3
111	115	2
108	109	3
45	45	8
117	118	1
41	46	1
128	128	2
33	34	9
79	79	13
12	12	8
127	132	5
127	128	2
45	57	1
79	80	1
31	125	4
113	114	2
30	36	4
74	118	2
14	18	1
99	100	3
20	21	3
23	34	1
90	104	1
77	78	5
12	17	3
131	132	2
88	89	3
26	28	2
74	75	2
33	36	6
123	126	12
86	107	3
24	59	1
46	46	9
68	68	9
30	33	2
133	134	4
49	121	1
112	113	6
35	38	4
22	36	1
113	113	7
49	49	1
3	119	2
127	133	2
40	40	6
32	33	1
41	111	4
44	133	5
124	125	3
96	99	5
134	134	3
2	4	1
22	25	2
115	116	2
3	28	2
59	59	12
112	116	3
110	114	6
129	133	2
87	87	6
14	17	4
97	99	7
17	79	1
45	47	5
15	15	4
48	124	1
81	100	2
18	59	4
38	39	10
104	104	3
13	17	2
36	36	4
124	126	1
58	59	3
84	94	2
36	41	2
127	127	3
31	32	3
55	55	6
45	119	1
50	50	5
94	95	3
13	14	5
95	102	1
71	74	2
16	61	1
15	16	4
93	96	2
114	116	3
47	47	10
87	134	3
113	130	7
4	84	4
85	105	2
3	83	2
22	23	1
126	128	5
62	63	4
20	35	2
14	14	6
25	36	4
93	121	1
55	56	1
133	133	5
131	131	4
128	129	3
81	83	2
92	93	11
78	103	2
86	86	9
105	106	1
45	123	2
75	76	2
116	130	1
126	129	5
113	115	2
19	19	7
85	90	1
27	33	1
5	83	3
25	59	2
81	82	1
76	77	2
69	69	1
78	82	1
15	19	2
17	18	2
1	2	2
81	81	3
37	38	6
7	32	1
45	126	2
85	87	2
105	105	1
43	112	3
9	10	3
20	26	1
86	90	1
57	71	1
30	32	1
14	15	2
25	25	9
18	21	3
114	130	1
72	118	2
98	99	2
112	112	2
2	63	1
44	49	1
38	38	3
78	79	4
129	130	1
22	26	2
35	36	2
108	111	1
110	129	1
64	103	1
8	9	2
119	120	2
27	34	2
63	75	1
10	12	1
4	4	2
6	63	3
17	19	1
16	48	1
3	33	1
26	27	3
46	59	1
25	27	2
90	90	2
47	48	2
57	60	2
12	16	1
27	35	1
120	122	1
1	1	2
102	107	1
113	129	1
44	50	2
14	16	1
62	64	1
10	11	2
65	78	4
106	108	1
83	84	1
93	99	2
18	48	1
40	46	3
7	8	1
34	35	2
27	28	4
10	10	1
0	118	1
87	133	1
49	128	1
13	19	2
43	129	2
91	121	1
26	34	1
92	121	1
43	44	3
37	39	1
64	76	1
126	132	1
33	35	2
6	7	1
41	44	1
32	43	1
109	129	1
122	123	1
95	98	1
69	70	1
57	58	1
86	91	1
74	117	1
132	132	1
129	129	1
36	40	1
130	132	1
108	110	1
67	68	1
