139	142	1
132	132	1
90	91	3
85	99	1
103	103	7
43	44	3
48	64	3
35	44	3
66	66	7
20	20	3
168	168	8
70	70	6
65	67	1
159	159	4
6	6	10
13	13	4
109	109	3
53	55	4
129	129	3
121	122	3
106	112	4
8	8	1
3	3	8
73	73	1
75	75	4
49	56	4
8	20	1
47	49	3
2	97	1
90	98	3
102	102	10
50	57	3
25	25	1
110	110	2
81	82	2
118	118	7
107	107	6
84	84	2
144	144	4
47	48	2
140	141	7
8	18	4
76	76	15
39	40	2
53	66	3
24	25	2
101	103	2
133	133	6
76	77	3
157	157	7
62	62	1
142	142	6
151	151	7
141	141	4
162	162	11
81	81	2
37	38	1
149	149	4
52	56	3
138	143	3
123	139	3
125	125	8
14	68	1
35	35	3
142	143	6
142	144	5
70	71	4
109	110	3
119	135	1
3	4	4
169	169	2
163	166	3
132	134	3
147	147	4
73	87	3
127	128	7
153	153	4
139	140	2
145	145	7
18	19	2
114	133	3
116	116	3
13	25	2
121	121	3
134	154	2
68	68	1
34	34	4
155	156	4
116	132	6
134	134	2
75	80	1
140	142	4
46	47	2
108	109	1
1	4	4
12	12	4
56	56	4
144	145	2
69	69	3
149	150	3
162	163	2
52	52	4
152	152	3
161	163	1
51	51	7
83	83	2
23	23	2
69	70	2
64	64	4
97	97	5
124	125	2
83	112	1
5	6	4
76	78	3
135	135	1
21	21	3
117	117	8
167	167	3
123	123	5
11	25	2
124	124	4
143	143	6
139	141	1
89	89	3
115	116	1
19	21	2
105	105	4
125	136	1
49	50	3
58	61	1
44	44	2
116	122	2
110	112	2
141	142	7
33	33	3
122	146	1
54	54	2
57	63	1
20	21	3
22	23	4
99	99	1
95	124	1
55	55	4
0	20	1
13	24	1
26	26	2
50	51	4
156	162	2
2	2	4
93	93	4
7	36	2
129	130	3
170	170	3
119	119	2
91	91	5
10	119	3
147	148	2
47	47	7
15	16	5
51	56	2
28	28	2
156	156	12
14	16	1
43	70	2
160	161	1
40	40	10
63	77	2
35	36	2
94	94	3
48	48	7
114	114	6
19	19	7
146	146	5
65	66	2
148	148	5
79	84	1
38	38	3
96	96	2
155	155	1
163	164	3
165	165	8
127	127	5
0	2	1
78	78	4
91	94	3
24	24	10
128	128	3
99	108	2
22	22	4
104	105	4
82	85	2
1	1	1
160	160	4
67	67	1
85	92	2
57	77	4
161	161	3
21	22	1
114	134	2
49	57	2
158	158	2
150	150	3
140	140	2
49	58	1
86	86	2
45	46	3
1	51	1
99	101	2
100	100	3
17	18	2
117	121	3
94	162	1
121	136	3
4	4	2
128	129	4
36	36	2
138	139	2
105	106	3
150	151	1
107	108	3
124	140	3
84	97	1
57	62	1
41	41	2
101	101	1
118	119	1
91	95	2
42	42	2
72	89	1
82	82	7
48	49	1
8	9	1
144	146	1
18	53	1
43	43	1
1	2	2
56	57	1
166	166	3
14	15	1
74	74	2
63	63	2
145	146	1
126	127	1
90	90	4
128	154	1
151	152	3
19	24	1
158	164	1
1	94	1
120	121	1
11	14	1
14	14	5
38	41	1
85	85	4
152	153	2
71	116	3
72	86	2
11	18	1
15	15	2
121	137	1
40	41	2
120	120	1
46	46	1
106	106	3
9	44	2
92	92	2
117	118	1
106	109	2
115	115	1
94	168	3
141	167	1
136	147	1
161	164	1
89	114	2
26	27	1
44	45	3
4	6	1
53	53	3
112	112	4
88	89	1
164	164	2
158	159	1
163	165	1
73	74	3
23	24	1
99	113	1
94	123	2
16	16	1
36	79	2
9	9	2
7	7	3
88	115	2
154	154	1
3	97	1
97	117	1
90	103	1
138	140	1
101	110	1
168	169	2
137	137	1
106	107	1
58	62	1
71	72	3
84	85	2
84	117	2
91	114	1
91	101	2
77	77	2
54	81	1
124	141	3
157	158	1
45	45	1
10	10	1
74	75	3
119	136	1
58	71	1
122	122	1
104	104	1
94	97	2
100	101	3
0	169	1
0	0	2
96	97	1
116	146	1
139	144	1
155	157	1
67	68	1
73	80	1
89	90	1
9	12	1
112	139	1
64	80	1
20	22	1
124	146	2
129	137	1
47	51	1
76	79	1
119	120	1
130	130	1
119	127	1
7	8	1
13	35	1
3	5	1
111	111	5
126	126	1
123	142	1
99	129	1
113	113	1
110	145	1
167	168	2
146	166	1
72	87	1
50	50	1
63	80	1
18	18	1
6	9	1
137	144	1
135	136	1
91	102	1
88	88	1
93	99	1
105	125	1
1	143	1
129	138	1
