57	57	8
77	77	10
46	46	2
11	11	3
128	128	8
78	78	7
47	47	9
120	120	2
127	134	2
124	124	12
8	85	1
13	13	5
109	109	3
12	77	4
118	118	7
133	133	5
83	83	4
0	0	7
10	78	1
76	76	11
15	63	2
33	33	6
48	48	10
130	130	4
81	83	4
94	96	6
58	58	5
108	108	9
16	17	1
125	125	10
122	124	3
35	35	2
107	108	2
90	90	5
32	32	12
63	63	9
64	65	3
127	133	4
22	22	1
100	105	5
114	115	2
83	85	3
106	106	2
93	93	2
44	44	2
127	127	1
8	8	8
73	73	10
12	76	1
37	37	5
9	9	3
82	82	12
5	5	4
126	131	3
131	131	2
16	16	10
116	116	5
3	3	5
113	113	6
127	128	4
80	80	2
59	59	12
87	87	3
69	69	4
62	62	9
18	19	7
14	14	6
61	61	7
12	75	8
30	108	1
133	134	3
56	56	4
81	81	3
95	95	4
34	34	5
4	4	7
6	6	3
1	68	1
64	64	15
41	41	3
33	34	6
57	58	6
104	104	3
66	66	7
111	111	8
121	122	6
108	109	2
75	75	8
38	38	5
54	54	3
79	79	7
32	33	5
86	86	3
29	30	1
67	67	12
2	2	2
103	104	3
102	103	1
18	18	4
95	96	6
0	110	3
1	1	3
116	122	2
35	36	1
17	17	5
55	55	6
74	74	5
117	117	5
44	46	2
10	10	16
21	21	8
92	93	3
6	8	1
121	121	4
31	31	2
30	30	15
98	98	6
67	68	3
126	126	7
19	20	1
17	18	1
88	88	1
116	117	3
87	90	1
68	68	3
85	86	4
14	74	1
101	106	3
12	12	7
18	116	3
36	36	5
85	85	1
103	103	3
101	105	3
63	64	5
76	77	2
3	78	1
72	72	6
127	132	1
31	32	1
4	6	2
72	73	1
84	85	5
7	7	3
45	46	2
134	134	1
110	113	1
18	20	2
60	60	3
98	102	2
15	15	2
38	40	1
18	22	3
117	120	1
75	77	1
25	25	1
20	20	3
45	45	4
101	101	2
97	97	1
88	89	1
127	131	1
18	111	1
2	3	1
92	92	1
23	23	2
39	39	1
103	107	2
78	79	5
118	119	1
43	43	1
4	8	1
55	58	1
0	2	1
119	119	1
44	45	1
89	89	2
4	5	4
14	15	3
112	112	1
102	102	3
91	91	1
12	74	1
7	78	1
116	121	2
110	111	3
128	130	1
26	26	2
19	19	1
28	78	1
36	37	1
111	112	1
40	40	1
123	127	1
97	99	1
68	76	1
68	75	2
62	63	1
98	100	1
59	60	1
122	122	1
61	62	1
13	70	2
94	94	1
109	110	1
24	24	1
71	71	2
10	11	1
27	30	1
65	65	2
68	69	1
71	72	2
48	50	1
123	124	1
35	60	1
34	36	1
75	78	1
15	16	1
39	41	1
70	70	1
132	133	1
62	68	1
114	114	1
109	111	1
29	29	1
0	30	1
110	110	1
87	88	1
103	108	1
