163	166	6
149	149	4
105	118	2
116	122	1
171	194	4
185	185	3
37	38	1
61	61	8
150	154	6
155	176	1
181	182	2
177	180	3
55	73	1
174	175	8
22	24	4
110	112	2
66	66	1
146	147	6
128	128	3
39	41	3
104	123	8
194	195	3
2	2	4
178	178	3
33	34	5
40	41	3
4	6	3
59	81	4
75	76	2
33	64	2
167	170	6
7	9	2
57	63	1
126	130	2
139	139	3
103	105	3
8	8	6
181	181	1
30	30	3
10	11	4
141	158	4
151	152	3
158	160	5
159	160	7
103	107	2
11	11	7
111	137	2
142	142	3
182	185	3
123	123	7
155	155	7
169	170	3
65	69	1
166	172	4
121	123	3
148	166	3
31	32	3
141	147	2
192	193	2
58	74	3
102	102	6
45	46	2
106	108	5
133	166	4
175	175	11
165	166	1
105	123	7
136	136	8
107	107	7
141	159	4
116	117	2
40	40	2
4	5	6
112	114	4
19	19	5
162	164	5
138	139	2
93	99	3
117	159	1
54	54	2
140	141	2
71	71	1
103	108	4
117	118	2
36	38	3
193	193	3
37	51	5
13	17	4
95	95	3
53	53	8
117	128	2
42	44	2
124	124	2
160	160	2
172	173	2
122	126	3
183	183	6
131	133	2
68	77	1
128	129	4
1	3	2
174	178	5
31	44	1
113	114	7
0	1	2
113	113	11
166	169	2
171	185	1
9	47	2
46	69	2
164	170	2
43	45	2
57	57	3
101	110	4
6	6	6
190	190	1
43	43	5
77	77	3
112	113	2
184	184	6
188	191	2
29	37	2
156	156	3
102	112	6
134	134	4
129	130	6
152	152	5
27	49	3
166	167	4
186	187	5
53	54	3
120	121	1
17	39	7
39	50	2
191	192	2
146	148	4
100	109	2
129	149	1
93	95	5
138	156	5
27	27	3
106	107	1
142	153	5
67	81	1
110	113	2
116	116	5
75	88	3
106	118	1
117	126	2
146	149	3
192	192	2
32	33	5
48	52	5
70	73	2
141	142	2
19	20	4
188	189	1
160	181	1
74	74	6
19	23	2
138	140	2
152	155	3
40	54	4
20	20	3
150	172	2
47	51	1
144	145	1
45	60	4
26	30	2
193	194	4
79	79	6
174	194	1
156	160	4
62	65	5
57	62	6
146	146	1
54	76	3
75	89	2
193	196	4
18	21	2
170	170	4
113	116	6
166	194	2
89	90	2
140	154	3
107	114	1
52	68	3
130	134	10
75	77	4
70	75	3
186	186	2
149	151	3
5	14	2
115	117	3
110	111	2
164	166	1
156	159	2
76	76	5
176	182	2
25	26	5
129	129	3
182	183	2
66	77	1
95	98	6
97	106	1
36	54	1
132	150	4
73	86	1
36	36	2
191	193	1
20	49	1
32	32	1
81	81	5
21	26	2
133	150	2
39	69	3
176	177	1
23	23	1
161	161	4
40	70	1
72	73	1
161	168	1
126	126	7
173	194	2
156	170	2
144	148	1
51	54	3
55	70	1
39	39	2
150	150	8
88	89	3
150	174	2
125	126	3
106	110	1
188	188	2
37	37	1
123	144	1
58	63	2
10	39	1
83	84	3
78	78	2
96	97	1
61	62	1
177	177	4
86	87	2
163	179	2
169	179	4
112	112	6
100	100	1
189	197	7
38	50	2
19	22	4
180	181	3
149	156	4
135	137	2
76	80	4
114	127	2
22	22	2
123	125	2
84	84	1
84	85	5
190	196	3
118	118	2
7	7	7
185	186	1
103	121	1
174	174	2
111	138	2
97	97	3
2	14	3
104	104	3
30	31	3
162	166	7
65	72	2
184	185	1
77	79	2
29	31	5
161	169	2
8	38	3
58	79	2
122	123	1
1	2	1
183	186	1
109	111	4
138	147	2
111	111	6
68	71	3
127	127	1
7	30	1
126	139	2
117	119	2
1	1	2
62	64	1
154	177	4
195	197	4
160	161	3
28	30	2
12	14	1
132	132	2
7	38	1
182	191	3
123	124	9
56	57	1
61	72	1
44	51	2
59	71	1
150	153	1
139	143	3
38	41	1
52	67	3
166	179	5
20	43	1
9	18	2
1	24	2
176	181	3
102	108	3
147	159	1
118	119	4
52	55	1
128	130	3
70	70	2
30	36	1
96	126	6
13	15	2
51	53	2
139	140	2
58	70	1
24	25	2
114	134	3
155	157	1
118	127	1
101	101	5
138	138	4
176	183	1
127	136	1
38	39	4
109	113	1
122	138	2
137	139	4
87	88	3
105	110	3
67	67	4
44	63	1
178	179	6
19	25	1
107	108	1
176	178	2
95	96	2
98	99	2
35	35	2
33	35	2
114	136	5
120	122	5
61	64	1
32	62	1
33	37	4
131	132	1
14	24	1
73	74	1
196	197	4
5	6	3
14	14	3
167	168	2
191	191	3
4	9	2
173	173	1
31	31	2
58	85	1
179	179	5
151	153	2
3	32	2
45	45	1
154	157	1
15	17	3
12	15	3
1	32	2
108	112	2
68	85	2
56	60	2
105	124	3
115	115	1
114	114	1
127	132	1
27	30	3
73	73	1
106	106	2
71	85	1
158	161	2
159	159	1
167	169	1
5	31	2
174	177	2
130	135	2
99	101	1
41	42	3
168	168	2
46	46	1
187	187	2
180	183	3
149	160	1
16	18	1
128	135	1
8	82	2
56	61	4
57	68	2
19	26	2
42	47	3
59	64	4
9	13	1
2	31	2
16	17	2
102	103	3
129	131	2
57	59	1
26	40	2
51	63	2
31	33	4
38	82	2
140	143	2
104	106	1
156	157	2
163	169	2
107	126	1
9	23	2
108	110	2
68	68	4
48	70	2
73	88	1
94	95	2
32	65	3
190	197	1
167	171	1
138	179	3
108	108	2
13	14	2
165	165	2
65	76	1
83	87	1
179	189	2
17	25	6
3	4	2
129	161	2
180	182	1
119	123	1
15	18	1
94	99	2
149	155	3
28	50	3
174	193	1
129	144	1
42	45	1
73	87	3
61	67	4
145	163	2
10	15	1
159	177	1
182	187	4
38	63	3
175	176	2
133	136	1
47	47	7
153	169	1
143	144	2
124	141	1
124	137	2
110	123	1
36	39	1
9	9	1
175	178	1
128	151	2
75	80	2
125	145	2
101	116	1
126	131	3
14	39	1
134	135	4
24	24	3
145	150	2
5	5	4
1	8	1
66	71	1
109	126	1
125	128	1
26	26	1
11	14	2
152	153	1
7	31	1
181	184	1
100	110	3
157	158	1
147	150	2
126	127	1
79	85	1
118	122	1
41	41	1
97	103	3
59	59	1
131	131	1
17	21	4
149	150	1
57	70	1
171	172	1
100	102	5
186	197	1
25	44	1
73	75	3
18	18	2
46	54	2
12	12	2
51	61	1
65	71	1
49	49	2
154	174	1
152	177	1
2	11	3
177	178	1
6	32	1
6	10	1
153	170	1
32	45	1
176	193	1
89	89	2
112	115	1
66	85	5
131	150	2
166	168	2
132	136	1
71	72	2
183	184	1
163	164	1
132	179	3
14	17	1
93	97	1
52	52	2
40	64	2
116	130	1
96	120	2
178	182	1
38	54	2
29	45	2
69	73	2
57	72	1
105	114	2
29	29	1
139	168	1
45	51	1
26	33	1
189	192	1
34	34	3
28	28	1
158	158	1
6	17	2
135	150	2
133	133	2
66	72	3
143	143	2
149	161	1
8	36	1
126	138	1
156	177	1
3	5	1
56	62	1
28	51	2
56	63	1
121	143	1
14	30	2
82	82	1
23	25	1
161	174	2
33	33	2
54	61	1
178	184	2
4	4	2
13	47	1
164	192	1
112	117	1
93	94	1
2	5	1
69	69	1
46	47	1
15	43	1
183	195	2
22	30	1
131	147	1
100	118	1
54	75	1
87	87	1
117	121	1
143	145	1
144	144	1
47	68	1
173	174	2
72	72	1
3	24	1
9	24	1
42	46	1
70	71	1
93	98	1
67	72	1
117	117	2
129	134	1
16	16	2
114	138	1
58	82	1
84	88	3
28	33	1
106	111	1
65	73	1
15	16	1
133	134	2
137	159	2
12	18	1
119	142	2
145	161	1
139	148	1
137	138	1
112	118	1
174	176	1
118	128	1
189	189	1
181	186	2
65	66	1
108	114	1
107	131	1
121	131	1
10	14	1
10	10	1
28	31	1
136	147	1
148	149	1
53	70	1
36	48	1
34	35	1
15	15	1
49	55	2
52	71	1
115	116	1
62	62	3
136	138	1
137	140	1
114	118	1
61	81	1
102	106	1
52	53	1
120	130	1
172	190	1
119	119	1
155	156	1
60	61	1
165	169	1
157	157	1
100	121	1
104	110	1
55	55	1
49	76	2
159	164	1
103	103	2
30	33	1
126	150	1
162	162	1
32	56	1
172	179	1
42	43	1
