89	89	30
66	66	13
59	59	17
101	101	6
92	92	12
79	80	8
24	25	12
68	68	37
82	82	19
39	44	2
98	98	12
74	74	18
70	89	4
58	58	19
37	37	21
94	96	1
47	47	6
26	26	12
60	60	7
69	75	3
65	66	4
61	63	1
80	80	24
83	84	7
81	82	7
85	88	2
87	88	15
77	77	30
71	71	16
46	46	4
41	41	10
68	75	3
67	67	19
42	90	2
48	48	11
86	87	16
92	94	5
94	94	17
67	69	9
40	40	17
68	69	6
62	62	32
23	59	4
35	38	1
62	63	13
69	69	28
82	88	5
42	42	13
52	52	12
73	98	3
99	99	13
75	75	30
73	73	13
53	102	2
42	44	1
81	81	18
57	57	15
38	38	9
70	70	37
54	54	17
28	35	1
72	73	13
44	44	15
49	50	13
35	35	4
45	46	4
96	96	10
73	75	1
78	78	21
100	101	1
84	84	12
29	49	1
54	79	6
80	87	4
63	100	6
38	40	1
79	85	1
34	36	4
78	80	2
67	68	12
56	56	8
44	45	5
51	65	4
92	98	1
61	81	2
43	75	4
66	67	11
63	101	3
86	86	25
94	95	9
56	57	2
74	75	4
27	27	12
34	34	13
57	70	5
75	76	6
63	63	27
62	64	2
79	81	4
50	50	14
67	72	2
27	80	1
76	76	17
46	67	3
80	81	25
79	79	15
72	72	25
25	77	1
39	39	15
51	51	8
35	39	5
64	64	17
87	87	21
26	28	1
88	88	9
40	41	3
36	36	13
26	27	2
52	87	6
52	89	1
60	64	3
83	83	9
100	100	7
88	89	6
41	42	7
33	33	9
83	96	2
51	67	2
20	45	3
70	74	5
91	101	3
97	97	5
94	98	3
42	47	1
39	53	3
93	97	4
22	61	1
65	65	28
28	29	1
43	65	5
77	78	5
78	79	2
63	64	16
53	53	9
61	62	1
31	33	7
32	32	7
90	90	12
90	99	9
53	56	6
67	93	4
41	70	4
48	87	2
43	43	2
31	31	5
93	93	4
62	69	2
29	29	6
45	45	17
49	84	6
80	102	2
46	83	5
95	95	6
97	98	2
20	25	2
31	32	5
25	26	4
67	70	4
69	74	1
62	100	1
91	91	13
96	99	4
67	97	2
22	22	4
34	35	4
80	82	2
92	93	3
55	55	9
87	92	2
70	90	2
39	40	3
71	73	1
85	85	24
67	76	3
69	70	15
36	37	6
85	87	1
95	96	3
61	61	16
51	89	3
46	79	1
46	88	3
70	71	6
66	78	1
68	76	2
25	25	7
37	38	3
65	70	2
61	77	2
69	80	5
96	97	4
61	91	4
69	81	3
66	68	4
51	52	1
101	102	2
49	49	5
41	59	1
32	34	3
54	55	1
72	97	4
59	60	4
28	28	3
42	43	1
75	83	1
42	76	1
79	88	1
71	75	2
73	74	6
23	74	3
47	80	2
71	72	6
85	86	7
52	88	1
95	98	2
91	94	1
93	94	1
24	24	4
73	89	1
27	30	2
58	59	3
81	85	2
84	88	1
25	79	1
27	49	6
51	66	1
31	38	1
86	89	1
52	54	1
74	77	3
63	83	1
23	33	1
66	72	1
69	73	2
37	66	2
48	50	2
94	97	1
63	65	1
80	101	1
81	101	1
36	68	2
70	80	2
67	80	1
48	84	2
56	99	1
66	71	1
86	90	1
84	86	2
102	102	1
46	80	2
84	87	1
47	84	1
64	71	2
23	73	2
84	85	1
64	65	1
50	65	1
50	51	3
77	79	4
62	81	1
81	88	2
34	39	1
85	89	3
56	58	1
30	30	1
25	73	1
62	72	2
34	37	1
47	48	1
53	83	1
71	84	1
65	71	1
57	58	1
29	30	3
53	54	2
33	34	1
86	91	1
23	77	1
22	51	2
23	88	1
62	68	1
23	49	1
70	72	1
81	83	1
70	98	1
52	53	1
60	62	1
72	90	1
89	95	1
80	86	1
42	52	1
61	78	1
