61	61	9
8	8	2
46	47	4
42	50	4
17	17	9
50	50	13
38	39	6
77	77	4
65	65	11
57	58	6
75	75	13
20	21	5
71	71	15
6	16	1
78	78	14
66	66	14
64	64	10
53	53	5
5	5	2
28	29	3
6	6	5
31	32	2
2	2	15
68	68	3
12	51	5
31	31	8
25	33	5
1	1	9
80	80	7
59	59	20
55	57	2
58	58	8
60	60	8
7	16	4
32	32	9
58	74	7
25	25	4
28	28	11
45	45	10
41	41	9
10	10	7
18	18	3
13	14	14
74	74	11
7	7	6
67	67	12
53	70	2
37	37	8
33	38	2
29	30	3
63	63	8
51	61	10
80	81	4
63	64	3
46	46	14
55	55	13
74	75	2
71	72	5
47	47	4
57	66	1
34	35	4
12	12	13
14	14	7
9	9	1
58	61	2
54	54	14
51	51	2
30	31	4
56	56	13
40	40	10
58	73	2
63	66	4
53	54	4
26	26	5
73	74	2
38	38	5
53	69	2
68	70	9
73	73	3
76	77	1
26	43	2
72	72	8
70	70	8
56	57	8
45	47	3
49	60	4
49	50	7
42	45	2
40	41	1
11	26	2
34	34	3
48	48	14
66	67	7
33	33	8
16	16	3
59	60	3
21	21	7
20	20	6
35	36	5
58	63	2
70	72	2
39	39	4
27	37	1
28	31	2
36	43	1
58	59	1
36	36	6
58	75	4
55	72	2
44	44	3
8	9	3
72	79	2
59	78	3
76	76	7
3	4	3
52	54	2
45	46	1
42	42	6
0	0	4
70	71	2
68	69	5
3	15	2
19	28	1
6	7	2
56	67	1
41	42	4
61	74	3
66	70	2
15	31	1
67	68	5
27	27	5
15	15	3
55	56	3
49	49	5
65	66	1
74	78	4
45	55	5
30	30	3
9	12	3
11	21	4
52	52	6
25	26	4
3	3	3
9	10	2
39	41	2
57	67	5
72	73	3
60	61	1
26	36	2
10	12	2
4	4	10
39	42	2
26	34	1
51	56	4
72	74	2
2	5	1
69	70	6
63	78	1
7	8	2
27	33	2
13	13	2
11	11	1
40	42	1
44	67	1
53	68	1
35	55	1
28	55	1
73	79	1
76	80	1
64	65	3
19	19	4
54	55	2
19	21	2
15	16	1
22	22	1
79	79	4
47	48	2
12	16	1
34	36	1
32	52	1
58	62	1
52	53	2
43	43	2
42	43	2
61	63	1
9	11	1
10	11	2
51	65	1
64	75	2
11	12	4
36	38	2
65	73	1
26	60	1
56	62	1
69	69	1
46	49	1
60	62	1
31	49	1
12	13	1
27	29	1
51	52	1
37	38	1
36	47	1
61	73	1
35	52	2
2	3	2
32	33	1
60	74	1
44	57	1
61	62	1
48	73	1
11	31	1
35	35	2
1	12	1
64	71	1
44	45	2
29	29	2
14	15	1
57	75	1
74	76	1
64	73	1
54	67	1
7	10	1
51	66	1
57	57	1
15	17	1
32	50	1
53	57	1
