13	24	6
84	84	4
106	106	15
156	157	9
160	162	4
136	137	4
156	156	10
74	75	1
137	138	7
74	74	12
44	44	9
96	96	8
112	112	7
130	130	7
133	133	3
149	149	5
135	137	1
49	50	2
82	82	8
155	159	2
100	100	5
43	43	14
15	112	6
41	41	5
89	89	4
10	10	8
128	129	6
47	47	7
12	18	3
116	116	6
127	127	5
140	140	6
118	118	11
87	125	5
101	101	4
160	160	15
40	49	1
97	97	9
38	38	7
48	48	7
85	85	3
167	167	8
76	76	15
102	104	3
111	111	3
154	154	4
33	33	4
8	8	2
40	80	4
102	102	11
144	144	9
144	159	3
94	94	9
24	24	9
96	97	1
98	99	2
50	50	2
3	3	7
77	77	5
7	10	6
137	137	3
132	134	2
158	158	6
34	35	4
22	22	4
140	142	3
77	78	1
26	36	2
14	17	2
126	126	5
166	166	4
17	17	10
64	64	4
148	148	3
71	71	6
118	119	2
153	154	3
38	48	3
145	145	5
37	47	4
135	136	2
18	18	7
68	68	5
13	13	8
101	105	8
107	108	1
168	168	4
52	58	1
144	161	3
125	125	5
11	11	9
84	92	2
115	115	1
150	151	9
88	152	5
65	66	8
79	80	1
20	119	3
114	114	3
37	37	3
12	12	8
52	54	4
2	5	1
15	110	3
99	114	1
139	160	2
53	56	3
117	135	4
141	141	3
78	78	11
75	75	5
161	161	7
95	95	2
35	35	4
154	158	2
158	160	2
53	53	3
4	5	1
164	164	2
152	153	4
4	4	1
126	127	8
110	110	2
13	70	2
81	81	2
39	49	3
51	51	5
18	21	1
167	168	3
83	100	5
163	164	4
27	27	6
140	141	5
17	18	3
54	54	6
99	99	8
83	83	4
146	157	4
42	42	8
15	15	4
13	117	2
50	63	3
14	14	7
27	28	5
115	133	2
73	80	4
5	141	1
119	119	3
81	112	4
21	22	3
101	102	1
105	105	4
123	125	1
122	122	2
3	10	2
23	23	4
73	73	4
169	169	3
55	56	3
121	135	2
109	109	6
22	45	1
109	112	2
163	163	3
4	11	1
7	11	1
120	121	2
151	151	3
70	70	3
138	138	7
88	89	3
145	170	2
113	113	10
38	39	1
92	94	1
45	45	2
88	88	4
26	26	1
137	165	2
138	139	4
52	52	3
69	81	4
141	142	2
74	76	1
127	129	1
52	63	2
136	136	9
134	134	7
147	147	1
150	150	4
123	157	3
37	41	2
145	153	1
24	106	3
40	40	4
143	143	2
159	160	4
25	25	4
80	80	7
108	109	8
164	165	2
5	5	6
153	153	2
99	100	1
46	66	3
162	166	3
12	150	3
38	41	4
98	98	5
11	20	4
83	101	2
165	165	3
144	145	3
16	16	5
21	21	8
6	21	2
103	103	1
129	129	2
18	19	1
116	135	4
91	97	1
134	135	1
122	123	1
87	87	4
41	47	1
91	91	1
107	107	2
72	72	2
92	92	4
146	146	1
122	135	2
93	94	10
85	94	2
145	155	1
132	132	2
91	92	4
123	133	1
56	56	4
75	104	6
68	73	1
74	79	1
21	24	1
90	90	2
24	25	2
39	39	3
51	57	2
2	4	4
136	158	3
137	155	1
90	105	3
51	52	5
84	100	1
152	152	5
82	83	1
85	116	1
124	130	2
49	49	1
120	120	4
71	135	9
135	135	2
14	16	1
66	67	1
142	142	2
13	67	1
6	6	6
18	140	1
106	107	2
79	79	2
5	19	1
75	103	1
111	133	5
1	5	3
52	56	2
39	62	1
7	7	3
47	49	1
148	154	2
144	160	1
46	46	5
12	19	1
6	7	4
16	88	4
155	156	2
165	166	1
69	73	3
122	136	3
166	167	2
38	40	3
157	157	5
127	152	3
84	134	1
17	71	1
87	132	1
139	142	4
159	159	2
55	55	2
37	38	5
86	114	3
143	159	2
20	139	2
41	42	2
129	130	2
122	133	1
26	109	1
69	69	2
154	155	3
18	20	4
139	165	3
107	110	1
128	128	2
155	158	1
92	93	4
108	108	2
75	105	2
67	67	1
149	150	1
90	97	1
53	79	1
170	170	2
36	36	2
148	149	1
77	79	2
84	87	1
20	20	2
52	53	2
75	102	2
142	159	2
161	162	1
124	132	1
155	155	6
139	139	1
130	131	1
164	166	2
66	66	1
95	96	2
133	134	1
124	124	1
57	58	3
39	40	1
160	163	1
112	134	1
69	70	1
113	134	1
7	8	4
90	111	2
114	115	2
52	57	1
11	12	2
145	146	2
94	116	1
28	28	1
68	69	1
131	131	2
25	26	1
1	1	1
6	19	1
8	10	2
34	34	1
117	118	1
15	16	1
37	44	1
42	44	1
52	64	1
57	62	1
53	78	1
76	77	1
