120	120	3
37	42	1
15	16	5
102	102	2
19	27	1
43	43	2
11	11	7
26	28	2
65	72	2
98	106	1
125	125	4
46	46	3
103	104	6
26	26	2
106	109	1
109	109	10
99	104	1
78	80	2
9	10	5
29	29	3
119	121	2
22	22	4
103	103	2
114	115	3
114	114	3
42	42	2
2	35	3
90	90	7
47	47	5
27	27	6
82	83	2
9	9	7
112	112	6
126	127	3
94	94	7
84	85	6
36	94	1
14	14	3
123	124	2
82	82	2
87	92	1
96	96	5
10	10	2
81	81	2
46	61	1
35	44	1
100	116	4
110	110	3
130	130	9
35	133	3
41	41	1
121	121	6
111	111	8
106	106	3
114	130	6
47	69	1
2	2	1
16	36	1
83	84	3
39	39	4
42	43	5
98	98	2
69	69	6
48	59	1
98	111	2
69	134	1
8	8	10
126	126	3
129	129	1
91	92	3
40	40	2
81	82	4
74	74	2
1	2	1
101	102	1
122	123	1
19	19	4
85	85	1
74	134	2
74	131	2
2	44	3
107	109	1
25	25	1
116	116	5
31	31	2
33	66	1
92	132	3
115	129	4
81	123	1
13	13	8
88	90	1
63	63	4
56	94	1
134	134	3
30	30	7
24	24	2
75	121	2
99	99	6
44	44	3
33	45	1
12	12	6
80	80	4
97	98	3
71	76	2
79	86	3
59	59	8
95	95	2
18	19	2
11	12	1
79	93	1
92	94	4
101	101	7
21	22	1
92	100	2
19	21	1
81	114	1
90	91	3
46	77	1
72	72	2
75	96	1
124	124	3
66	66	1
76	76	3
4	16	2
93	131	4
112	114	4
16	39	2
35	35	1
70	73	1
15	15	2
75	76	2
27	49	2
68	73	4
101	133	2
75	75	6
101	129	6
107	107	4
105	105	1
36	38	2
1	1	3
33	33	5
110	111	2
23	23	3
90	127	3
96	130	2
127	127	2
67	68	3
54	82	1
86	114	1
126	129	2
36	36	3
85	86	1
32	33	2
19	20	3
83	83	1
60	60	1
94	99	1
33	43	2
62	78	1
72	129	1
28	28	5
58	83	2
108	108	6
12	13	2
50	50	1
92	92	1
62	117	1
26	27	1
54	54	5
70	125	2
79	129	3
118	118	5
86	122	1
56	56	6
34	35	1
92	131	1
13	31	1
68	68	2
95	111	1
93	98	5
21	21	2
102	103	3
87	87	2
20	20	2
60	84	3
133	133	3
104	104	3
73	73	3
77	86	5
57	57	2
34	34	3
77	87	1
113	130	1
61	61	4
107	108	3
54	55	1
77	79	1
6	7	4
119	119	4
5	5	1
20	24	1
19	59	1
109	110	1
65	65	2
7	43	1
62	62	1
20	22	1
6	46	2
119	134	1
20	58	1
118	119	1
10	33	1
4	4	1
32	60	1
2	33	1
34	59	1
80	88	1
98	107	2
132	132	2
5	6	1
87	123	1
38	38	2
104	105	3
45	60	1
71	71	1
86	86	4
105	111	1
73	74	1
76	119	2
13	14	4
70	70	2
97	132	1
123	123	3
96	98	1
65	69	1
79	79	1
113	129	1
92	99	1
94	132	1
112	115	1
64	65	1
81	87	1
36	89	1
84	84	1
91	91	1
27	29	1
42	86	2
117	117	1
101	116	2
57	58	1
112	116	1
26	29	1
115	124	1
16	16	1
98	105	1
128	128	1
1	71	1
5	24	1
79	101	1
88	88	1
7	31	1
106	108	1
115	115	1
15	38	1
