100	100	10
1	11	3
124	125	6
32	32	11
121	121	16
23	25	5
49	53	4
73	75	2
4	4	10
63	64	20
25	25	18
110	111	11
112	112	21
43	43	9
81	81	20
17	17	7
3	3	14
2	12	3
65	65	19
123	123	14
109	109	27
81	87	4
99	100	3
83	93	5
34	34	8
13	114	4
103	131	3
108	108	5
106	106	12
50	52	2
31	79	1
128	129	1
56	56	30
30	31	3
28	28	12
22	23	4
9	9	8
117	117	19
44	45	8
86	86	30
45	45	18
111	111	25
86	87	4
101	101	9
38	39	3
85	86	1
131	131	14
48	48	15
78	79	9
18	18	11
129	130	6
70	70	11
122	122	14
17	122	2
68	71	5
58	58	15
77	125	1
42	42	16
12	12	18
14	14	8
124	124	13
1	1	14
115	115	27
63	78	6
79	80	4
72	72	15
120	122	2
92	97	9
120	120	8
71	98	3
16	22	3
69	69	6
11	12	16
126	127	3
94	94	31
113	113	16
45	46	2
33	33	6
108	109	6
104	125	3
91	97	2
78	78	13
2	2	9
6	6	15
90	91	6
17	18	15
16	63	3
16	16	10
54	54	17
60	64	3
23	28	4
41	41	14
103	103	10
128	130	11
58	61	2
7	16	3
56	57	8
107	107	8
61	61	8
97	97	2
13	13	11
114	114	20
131	132	3
57	107	1
49	49	3
130	131	1
60	101	1
54	55	6
1	12	7
27	27	6
53	117	1
110	112	2
53	53	9
94	95	3
8	9	2
55	116	1
48	52	1
21	21	9
78	100	8
89	89	6
123	124	5
39	39	2
118	118	12
126	129	4
30	30	10
93	95	7
83	83	11
59	59	8
105	106	6
91	92	4
20	20	18
117	118	2
28	29	6
97	98	8
60	61	1
62	62	19
39	42	4
126	126	9
116	117	16
26	26	8
46	46	21
73	74	6
95	96	1
111	113	2
9	42	5
85	85	5
105	111	3
16	103	1
99	99	11
0	12	2
127	127	15
96	96	3
116	116	9
10	42	5
50	113	3
110	110	14
19	19	5
5	71	7
129	129	11
122	124	2
23	23	6
98	99	3
5	34	2
104	104	10
69	79	1
115	116	6
67	69	5
80	80	9
82	82	10
104	131	1
98	98	5
44	44	6
104	105	3
48	49	1
15	115	1
46	51	7
29	30	7
53	54	5
109	110	8
76	76	10
96	101	3
4	12	2
56	102	3
59	60	6
31	33	3
68	98	3
87	87	9
59	64	3
66	72	1
46	48	2
1	44	3
67	67	5
133	133	3
102	102	6
47	126	1
16	17	1
87	88	5
22	22	5
14	20	3
12	32	2
92	93	5
82	83	2
105	127	1
130	130	4
70	71	5
29	29	9
17	22	1
91	127	3
68	68	8
45	49	1
106	110	3
4	14	3
62	63	5
11	22	3
16	104	6
20	33	2
95	95	17
71	71	4
64	64	15
13	38	4
72	76	4
58	101	3
51	51	15
84	85	7
50	50	3
4	21	2
5	5	5
132	132	3
55	55	1
47	47	3
54	65	1
106	117	1
6	7	1
72	94	1
18	58	5
120	121	10
49	50	1
89	106	3
79	79	4
114	115	1
31	31	8
63	71	3
18	19	7
42	68	3
128	128	8
2	55	3
1	26	8
48	81	3
119	119	2
67	68	10
14	15	3
52	52	16
7	7	4
40	78	1
66	66	6
105	105	14
39	114	2
0	0	10
49	95	1
55	102	1
92	92	6
96	122	4
112	113	9
67	72	1
88	88	6
103	104	1
93	93	11
40	44	4
15	15	11
89	90	2
8	8	5
6	11	2
118	131	2
24	84	5
55	114	3
3	12	2
2	54	5
116	122	3
21	22	3
42	44	1
83	85	1
64	65	10
39	43	5
77	78	3
19	20	8
103	117	1
117	125	2
87	126	2
117	122	1
66	67	4
109	113	4
45	48	3
53	133	1
51	52	2
77	77	9
51	127	4
83	84	4
0	1	4
13	113	1
99	128	3
3	54	3
75	76	3
50	51	2
91	91	5
13	32	4
18	21	1
83	102	1
40	40	4
96	120	1
106	107	3
52	117	3
22	24	7
90	90	6
102	104	4
46	50	1
104	126	1
7	64	2
102	103	4
63	67	1
30	78	3
120	125	2
66	73	1
85	102	3
5	11	1
97	99	2
41	42	1
69	78	2
26	27	6
2	38	2
101	102	4
99	127	1
58	59	1
81	89	1
118	122	2
11	11	5
115	119	4
109	115	2
115	118	3
68	69	1
99	130	3
10	11	2
24	24	3
109	111	2
69	70	5
63	63	11
12	78	3
52	120	3
113	116	1
121	122	1
18	23	1
12	80	1
88	96	1
21	38	2
27	28	3
118	119	2
2	13	1
86	88	2
88	89	2
95	122	1
53	132	1
57	57	4
84	84	5
27	30	2
127	129	2
4	32	1
51	73	2
105	125	3
109	114	1
110	113	3
9	10	3
96	121	1
23	24	3
16	65	5
88	116	2
19	62	1
25	33	1
31	32	2
32	109	2
1	81	3
42	53	2
20	79	1
14	38	2
99	126	1
25	34	1
2	44	1
6	64	1
75	75	2
8	32	2
13	34	2
113	114	4
38	38	4
109	112	2
54	116	1
10	10	3
108	110	3
7	15	2
132	133	2
60	60	1
19	21	1
41	43	1
13	70	2
125	126	1
125	127	1
92	103	2
4	13	1
116	118	3
54	64	1
128	131	4
28	30	1
25	26	2
12	13	2
25	31	1
6	14	1
14	16	1
65	83	1
103	126	2
126	128	1
73	73	1
2	3	2
126	131	1
69	99	1
41	76	1
93	98	2
26	32	1
39	41	1
49	81	1
108	124	2
24	25	1
74	74	1
80	88	1
43	44	3
48	75	1
45	129	1
59	61	1
44	49	1
111	112	1
0	111	1
7	11	1
