82	82	8
145	145	11
5	5	12
135	138	2
138	138	3
127	127	9
109	109	6
17	18	2
85	86	3
8	16	2
113	113	2
32	45	1
128	128	8
149	150	2
100	100	8
112	112	5
117	117	3
142	145	4
7	10	2
42	43	4
103	103	10
81	81	5
43	44	1
25	25	4
111	112	5
98	156	3
116	116	6
139	139	7
48	48	6
6	6	7
142	148	1
81	84	3
140	140	21
86	86	6
56	63	1
0	1	2
114	114	11
67	152	2
96	96	6
156	157	4
147	147	10
14	14	6
135	136	4
79	79	3
69	123	2
134	134	8
23	24	2
141	141	17
97	97	8
155	155	3
26	26	10
41	46	1
137	137	2
15	49	1
87	87	8
24	24	5
7	7	4
145	147	3
89	90	1
129	131	3
80	127	3
29	29	2
41	41	5
92	93	1
132	132	12
87	107	3
110	110	7
108	108	5
87	88	1
98	98	3
46	52	3
91	94	1
107	107	5
64	64	3
30	30	7
118	119	2
44	44	8
101	101	6
27	27	8
150	150	3
122	122	3
130	130	2
46	46	6
68	69	3
117	141	1
50	50	3
118	118	4
83	84	2
45	45	3
105	105	4
99	99	9
54	54	8
93	101	1
129	129	13
146	146	9
1	1	2
19	20	3
106	106	8
27	100	2
133	133	6
136	137	3
12	12	4
153	153	7
20	53	2
95	95	6
105	110	4
145	146	2
70	70	3
72	73	2
7	51	4
136	136	3
76	76	3
131	132	2
5	6	3
96	150	1
81	82	2
110	111	2
11	11	3
157	157	4
35	35	2
36	36	2
63	79	1
2	70	2
119	133	1
137	138	1
75	75	11
120	133	3
124	124	3
55	93	1
123	124	6
23	23	10
78	79	2
19	31	2
120	120	6
3	4	2
18	18	2
120	124	2
82	98	2
135	137	1
20	52	1
2	2	1
9	10	2
21	22	4
69	70	4
19	19	2
99	100	6
17	17	2
91	91	4
22	22	4
140	148	6
84	85	4
7	9	4
149	149	3
40	40	3
9	9	5
91	92	5
27	101	3
91	95	1
4	21	1
71	72	2
53	53	5
89	89	7
148	148	6
8	8	8
26	90	4
31	45	2
15	16	2
123	123	2
13	18	1
29	38	1
33	33	1
3	3	1
97	102	1
47	67	2
122	123	5
49	49	7
52	52	4
23	34	4
140	141	3
105	106	4
108	115	1
121	122	4
63	68	1
69	69	6
115	115	5
48	49	4
37	37	8
26	36	2
36	39	1
8	26	2
104	104	2
102	102	4
123	125	1
16	16	3
131	131	6
30	35	1
41	42	4
82	110	1
90	91	3
78	78	6
29	44	1
37	41	1
121	121	7
90	90	1
65	65	3
1	66	1
5	8	2
81	108	2
7	21	2
30	31	1
68	68	2
43	43	3
93	93	7
125	125	4
139	140	2
70	111	3
119	119	1
67	67	3
129	130	1
83	83	3
14	39	1
13	13	4
7	26	2
77	77	5
67	69	2
24	25	2
126	126	3
123	126	2
141	148	1
154	154	4
20	20	1
39	40	4
34	35	2
125	126	1
144	144	1
32	32	2
51	51	4
29	30	1
28	28	3
94	94	5
45	46	2
156	156	1
71	156	3
57	57	1
54	154	1
97	98	1
14	16	1
158	159	2
12	13	2
10	11	3
142	142	2
21	26	1
39	39	5
70	113	2
96	115	4
12	24	2
108	109	1
73	73	1
4	22	2
2	6	1
108	111	1
152	155	3
107	108	3
15	15	3
153	157	1
97	112	1
143	143	4
38	38	1
116	128	1
128	129	1
24	54	2
28	104	1
10	10	1
16	23	1
47	52	1
79	101	1
56	71	1
66	66	1
31	31	1
31	32	2
153	155	1
18	22	1
55	71	1
119	120	1
21	21	1
152	153	2
71	109	1
103	104	2
120	121	1
20	51	2
71	71	1
70	121	1
12	38	2
50	51	2
85	85	2
124	125	1
109	110	1
91	100	1
144	147	2
47	47	3
21	51	1
151	151	2
4	4	1
25	26	1
4	63	1
1	44	2
96	113	1
28	35	1
151	152	1
23	26	1
14	15	1
66	154	1
38	56	1
24	104	1
77	108	1
141	142	1
70	71	1
25	27	1
40	41	1
