39	39	18
159	161	4
0	1	10
65	65	4
79	86	1
149	149	10
92	92	7
141	141	13
106	107	8
146	146	16
106	106	5
160	160	23
161	170	1
164	164	20
110	110	12
135	136	10
52	53	2
120	120	8
156	157	7
44	44	13
98	98	9
62	102	1
13	13	18
127	127	4
9	10	5
96	104	1
75	89	3
38	38	11
166	166	7
137	137	15
110	111	14
154	154	8
8	9	7
12	12	13
91	96	5
107	107	15
140	141	7
71	71	7
11	20	4
151	151	15
121	123	3
6	6	5
88	88	7
146	147	5
105	120	2
11	16	5
109	109	14
36	36	13
10	10	13
40	42	5
21	21	7
25	26	3
27	27	9
43	43	7
104	110	5
1	14	2
22	22	4
121	121	7
94	134	4
118	118	16
90	130	2
136	141	2
47	47	7
48	123	2
150	150	8
40	47	1
73	80	3
37	37	11
90	90	14
5	6	3
140	143	3
8	8	10
63	64	3
151	160	4
38	40	1
7	7	18
41	41	5
50	55	2
106	137	7
2	2	15
89	89	7
56	56	8
108	108	6
119	130	5
111	112	6
138	139	8
17	17	13
9	11	4
62	62	11
15	16	2
75	75	13
134	137	4
166	167	5
143	143	13
76	86	3
54	55	3
93	98	3
9	13	2
67	68	2
96	96	7
169	169	5
38	79	4
92	94	1
118	119	3
14	14	16
125	125	10
162	163	6
73	73	5
77	98	2
111	111	17
47	110	1
62	63	5
78	80	4
39	82	2
41	50	2
53	54	2
154	155	3
3	3	14
90	99	2
80	90	1
139	141	2
130	130	4
161	161	6
107	138	4
5	5	5
157	157	15
155	155	7
149	150	3
144	149	9
86	86	5
111	146	2
167	169	4
142	142	6
1	6	6
126	130	1
63	63	4
144	155	3
114	129	5
146	156	2
37	38	7
78	91	2
152	155	4
73	84	4
84	92	1
161	162	7
0	7	1
80	81	5
72	72	6
128	128	10
153	166	6
24	24	12
77	77	11
145	156	6
91	91	3
81	120	5
22	34	1
37	39	2
140	153	3
67	69	4
91	116	2
73	74	2
38	52	5
70	70	9
80	80	9
57	57	8
16	16	8
120	121	4
23	23	18
79	79	2
119	120	3
160	163	1
3	44	5
57	63	3
118	140	4
88	96	1
170	170	9
26	53	2
123	129	4
143	145	2
107	108	1
104	139	1
40	40	21
64	64	3
158	158	7
150	151	5
122	122	13
152	152	2
3	4	5
145	145	9
45	46	6
99	101	5
151	153	4
124	127	4
155	156	4
55	56	5
135	135	10
165	165	7
87	99	3
5	12	2
103	105	4
162	164	1
58	58	3
144	145	9
2	6	3
4	5	1
152	162	4
11	24	1
54	54	6
27	28	2
76	83	1
161	164	8
103	103	12
55	55	1
45	45	8
132	132	18
126	127	7
91	94	4
82	83	2
17	34	1
147	149	5
158	160	2
45	50	2
108	110	5
122	127	3
117	117	14
61	61	3
122	125	3
50	56	2
42	42	10
64	71	8
3	6	3
146	148	2
48	48	3
40	44	2
56	57	2
52	52	3
123	123	18
82	87	2
9	20	2
49	49	5
83	85	7
150	152	7
114	127	1
162	162	9
148	148	10
87	87	3
14	17	4
156	156	8
136	138	2
97	99	4
91	98	3
19	19	5
82	124	4
141	142	8
11	11	7
81	81	5
123	136	1
126	126	9
35	35	5
151	154	2
154	166	3
2	12	2
57	86	2
84	85	1
24	47	6
112	114	1
125	128	5
2	3	4
2	4	3
93	94	7
146	170	2
68	76	7
105	105	5
133	133	11
136	136	10
76	84	3
12	17	1
45	47	2
67	70	3
144	144	5
57	64	1
23	24	4
83	89	4
18	18	9
10	11	3
82	131	1
94	94	5
147	147	3
66	66	7
134	147	1
84	124	1
105	106	5
44	46	6
139	143	4
109	119	3
50	50	2
23	26	1
119	119	11
41	42	3
120	147	1
2	5	2
108	146	2
141	151	2
145	146	5
76	88	2
83	113	1
148	150	1
137	138	7
53	53	8
83	94	2
137	148	1
87	100	2
45	48	1
138	138	6
163	170	3
8	10	3
15	15	6
19	20	5
82	82	9
89	129	1
119	123	1
107	137	5
35	44	1
6	9	2
3	14	3
117	118	7
49	53	1
84	95	2
153	153	1
155	158	1
102	106	1
103	110	4
116	124	1
0	2	1
26	26	7
21	24	1
114	119	3
152	156	4
93	103	2
1	1	6
151	155	1
147	150	4
69	69	5
84	84	5
14	16	2
137	149	4
34	34	9
138	144	2
18	28	2
93	97	2
85	88	1
12	15	3
107	132	2
63	66	2
39	40	9
99	99	17
91	99	3
76	76	9
168	168	9
119	134	1
115	115	4
71	78	2
20	20	5
70	72	3
95	98	3
121	125	4
114	120	2
114	128	1
116	134	2
66	70	3
2	46	3
159	160	5
155	157	4
98	103	1
4	4	7
51	69	2
145	159	2
154	160	1
127	129	2
110	112	2
8	19	2
78	86	2
158	159	1
124	124	6
140	140	9
128	129	5
86	89	6
118	127	1
154	156	1
112	112	5
69	71	1
151	152	2
163	163	9
163	165	1
5	8	1
38	41	3
134	134	7
137	158	4
68	69	4
94	102	3
143	151	4
51	78	2
17	18	4
101	102	7
111	135	2
54	62	1
150	164	2
74	74	5
108	109	1
87	88	5
23	50	3
114	114	3
93	95	1
85	102	2
42	43	3
122	128	5
0	0	3
144	147	2
166	169	3
150	159	1
140	142	1
28	28	3
3	5	1
68	68	7
25	27	1
84	131	1
7	22	2
28	48	2
8	16	2
93	93	4
76	77	1
93	100	3
145	148	3
139	140	6
67	72	3
93	107	1
68	78	6
15	18	1
88	89	2
40	43	2
125	126	1
148	159	2
100	101	3
47	49	2
105	121	1
96	97	3
40	125	3
167	167	3
12	21	7
86	93	2
152	159	1
165	168	1
1	7	1
116	116	4
62	74	3
80	85	5
97	97	7
151	161	1
22	23	7
34	39	2
17	27	1
86	88	1
97	105	4
147	148	4
16	17	5
69	75	1
98	99	1
168	169	8
109	111	1
123	124	10
64	65	4
122	136	1
116	117	3
129	129	2
153	156	2
21	22	4
128	135	2
127	128	4
53	66	1
129	130	1
85	91	2
150	153	5
74	84	1
120	126	1
145	151	2
16	19	2
88	91	2
2	23	3
164	169	1
133	134	4
80	89	2
3	13	2
121	137	3
79	89	3
142	150	4
83	83	7
54	64	2
159	159	6
3	49	1
150	162	2
101	101	5
62	67	2
75	119	2
86	107	1
154	164	1
54	56	2
90	112	3
96	129	1
61	106	2
104	121	2
120	122	6
67	99	1
90	92	2
81	82	2
148	157	2
18	21	2
149	157	1
97	107	1
91	92	2
1	3	2
65	79	1
164	166	5
5	13	3
86	87	2
97	114	1
132	135	1
135	142	3
20	50	1
104	106	1
106	111	1
68	70	2
51	51	9
84	86	1
156	170	1
104	113	2
78	78	4
86	90	3
98	102	1
13	20	2
76	80	1
114	125	3
131	164	1
105	116	2
150	157	1
119	128	2
25	44	1
25	36	2
128	131	2
13	44	2
10	21	2
154	162	1
153	154	2
136	149	1
61	100	1
165	169	3
86	91	1
104	104	2
1	4	1
50	54	1
139	139	4
106	141	1
144	150	3
116	119	5
141	160	2
66	92	2
110	121	2
48	54	3
20	21	1
10	20	1
33	35	2
40	82	1
8	11	1
157	158	1
165	166	1
130	140	2
152	153	3
104	105	4
131	132	1
88	94	1
157	169	1
85	85	2
99	108	1
6	10	2
150	166	3
134	136	1
4	7	1
122	132	1
82	90	3
13	15	3
13	25	1
4	15	2
21	23	3
37	43	2
124	131	2
1	11	2
36	39	1
44	45	1
116	123	2
33	33	4
101	110	1
115	116	3
62	75	1
128	130	1
75	76	1
44	57	3
63	79	3
8	15	1
100	100	3
5	7	1
113	113	2
65	66	1
69	74	1
95	103	1
86	99	1
36	37	1
10	22	1
21	58	1
126	138	3
98	109	1
36	44	2
135	149	1
69	72	1
150	156	1
95	95	3
34	129	1
52	80	2
11	12	2
14	15	3
111	115	1
43	44	1
21	25	1
124	134	1
98	104	2
9	9	1
75	86	1
41	48	1
104	140	1
118	130	3
121	124	1
164	165	3
149	152	2
25	25	3
75	83	1
71	73	1
112	113	1
161	166	1
124	129	1
4	6	1
162	168	1
105	107	1
1	2	3
46	50	2
125	131	1
155	164	2
113	114	1
13	23	2
89	100	1
87	96	1
95	101	2
103	111	1
91	97	2
26	127	2
69	79	1
92	93	3
116	118	3
108	111	2
22	25	1
87	98	1
88	112	2
82	123	1
90	91	1
145	154	1
142	151	1
86	112	1
46	46	2
54	66	2
129	135	1
76	78	1
162	166	1
139	144	1
34	43	1
145	149	1
114	115	1
151	159	1
77	79	2
123	125	2
66	81	1
21	27	1
17	19	1
109	112	1
102	102	3
46	52	1
51	53	1
142	143	1
6	8	1
152	166	2
90	101	1
13	22	1
101	104	1
116	131	2
7	8	3
162	167	1
88	97	1
77	82	1
12	20	1
56	100	1
0	6	1
142	148	1
140	151	1
89	97	1
86	111	1
10	13	1
150	163	1
143	146	1
120	124	1
138	146	1
20	22	1
80	86	1
87	90	1
13	17	2
85	87	1
71	75	1
130	131	1
36	38	1
42	49	1
169	170	1
48	51	1
83	84	1
3	9	2
27	37	2
167	170	1
146	167	1
114	116	1
17	44	2
53	56	1
33	37	1
69	78	1
52	78	1
142	152	1
64	92	1
20	55	1
117	120	1
65	78	1
157	159	1
113	117	1
131	131	1
35	106	1
140	154	1
2	10	1
101	111	1
97	98	1
94	133	1
95	138	1
95	104	1
117	131	1
73	77	1
