42	43	1
32	38	3
9	53	5
53	53	14
16	16	7
79	80	3
111	125	5
50	51	3
119	123	1
83	84	1
78	78	6
119	120	6
133	133	6
142	144	1
135	135	6
144	145	5
63	63	9
142	142	7
10	15	3
4	5	8
39	39	12
153	153	4
29	92	2
95	102	6
130	134	2
11	55	1
33	34	5
87	93	11
26	27	3
139	139	1
141	142	1
146	149	4
12	12	13
144	144	2
113	113	6
2	51	3
100	100	7
18	18	13
19	27	2
30	30	11
35	38	3
127	128	5
118	118	6
4	4	5
146	146	5
101	103	1
110	128	3
7	7	3
12	13	2
27	27	8
69	69	6
96	96	2
25	25	6
17	107	2
21	78	4
102	102	5
94	122	2
46	46	5
22	22	7
123	123	3
107	107	10
23	23	12
35	35	4
105	105	6
4	6	4
95	131	2
101	102	4
138	139	6
18	19	2
112	115	1
151	151	3
126	126	4
36	139	1
14	14	5
101	101	1
18	41	2
128	128	7
134	134	3
28	37	5
39	102	4
36	42	2
22	135	1
119	119	5
120	120	3
138	138	8
106	151	4
40	107	5
96	99	3
95	107	3
80	115	3
82	82	4
43	44	4
130	130	6
120	129	1
33	80	1
38	48	5
24	24	13
126	128	1
70	70	6
9	10	2
47	47	3
97	97	10
39	108	1
68	68	8
38	39	1
62	62	8
10	10	5
14	50	2
43	47	2
17	109	2
145	151	2
40	40	2
15	16	2
52	52	2
111	111	4
65	65	5
6	6	3
64	64	7
31	37	1
54	54	6
94	123	3
87	88	4
11	11	8
52	58	4
99	100	3
78	79	6
17	17	6
141	151	3
18	113	1
44	45	1
81	89	2
30	63	4
139	140	4
80	112	1
16	17	4
115	139	3
31	44	2
2	2	3
22	23	5
106	106	2
93	93	4
31	64	2
50	50	4
19	19	15
116	116	3
131	131	3
114	114	7
127	127	3
76	121	2
45	45	4
89	90	1
55	55	3
48	48	3
136	142	3
102	108	1
55	56	1
103	103	2
63	65	2
10	53	1
83	83	3
84	128	2
43	43	2
36	44	2
129	129	3
44	136	1
71	71	6
17	104	1
137	137	2
99	99	3
136	136	6
32	32	3
90	90	4
77	77	4
80	80	3
74	74	3
71	78	3
15	15	3
145	145	1
141	141	1
143	144	3
35	63	1
98	102	1
20	62	1
100	103	2
118	119	1
56	56	2
112	113	3
89	89	1
113	117	1
77	131	4
148	148	4
9	9	4
109	109	6
114	117	1
132	134	2
5	5	6
3	3	2
27	28	2
28	30	1
85	106	2
85	85	5
19	71	1
150	150	6
144	151	6
132	133	1
110	110	3
137	153	4
10	11	2
92	92	4
69	70	1
86	86	3
49	49	4
79	79	1
128	130	2
44	46	5
117	117	5
147	148	2
105	144	1
122	122	4
34	34	4
96	97	4
98	98	8
125	128	2
4	7	2
76	77	1
23	28	3
140	140	2
153	154	1
66	66	7
113	114	3
147	147	2
115	115	1
75	75	3
100	101	3
32	62	1
37	37	2
92	127	1
45	46	1
5	50	2
81	81	7
36	36	3
98	110	1
71	73	1
32	105	2
67	67	4
94	94	2
4	8	2
86	128	3
85	93	1
112	112	4
119	128	1
73	73	5
51	51	1
80	81	1
124	124	4
48	53	4
67	68	2
21	21	2
17	39	1
5	8	1
56	58	1
86	92	1
3	5	2
154	154	3
13	14	1
81	94	1
44	48	2
20	21	1
72	125	1
84	136	1
29	29	5
6	13	1
121	121	2
80	92	1
38	105	1
92	141	1
38	107	1
20	28	1
121	122	1
21	65	1
122	127	1
149	149	2
38	38	4
29	63	2
25	32	2
130	135	1
22	69	2
135	142	1
62	64	1
125	125	1
143	143	1
87	87	1
28	29	1
85	86	1
71	72	1
75	135	1
29	111	1
132	132	1
144	150	1
64	110	1
35	36	2
25	69	2
20	20	1
35	105	1
41	41	1
33	62	2
88	98	1
122	123	2
31	32	1
93	111	1
29	36	2
111	128	1
10	55	1
105	106	1
29	30	1
76	76	1
62	63	1
135	145	1
136	137	2
94	105	1
34	106	1
48	49	1
22	65	1
16	40	1
84	84	2
26	62	1
22	120	1
110	111	1
27	29	1
108	108	1
105	147	1
86	97	1
76	119	1
8	8	1
22	68	1
6	66	1
81	82	1
81	85	1
87	98	1
126	127	1
27	74	1
120	121	1
104	104	1
