86	87	1
145	167	3
20	65	1
155	155	9
117	117	2
140	141	1
195	195	5
228	230	3
31	32	1
43	85	3
44	44	6
141	141	6
79	80	1
23	71	2
111	111	12
166	166	14
149	170	2
101	148	1
86	86	8
208	209	1
168	169	3
135	135	1
161	162	3
238	238	3
156	156	6
49	49	12
107	107	8
172	172	3
214	216	2
108	108	2
146	167	3
230	230	6
203	203	6
25	25	5
157	157	9
103	108	3
223	224	2
47	47	7
221	221	4
30	30	5
184	184	5
30	31	7
109	109	4
158	158	6
101	102	2
41	85	1
230	240	1
51	76	3
130	133	2
185	185	5
150	154	1
200	201	1
149	149	7
133	133	2
136	137	8
63	63	10
80	80	5
179	179	4
200	200	9
76	76	2
61	62	5
45	45	6
106	151	2
241	242	6
62	62	6
77	79	7
201	201	8
1	3	3
131	131	3
121	121	3
212	212	6
147	147	13
68	68	3
140	140	3
214	215	3
139	139	4
6	6	1
115	134	1
189	189	10
169	169	2
150	150	3
150	151	1
198	221	1
42	153	3
164	165	3
9	9	15
231	232	1
75	75	8
190	191	7
160	160	9
133	134	1
132	132	5
102	102	11
145	145	4
73	74	6
236	236	6
125	126	1
176	178	2
46	50	2
208	208	5
149	150	5
187	187	7
122	123	2
112	113	6
31	31	2
134	134	7
153	154	5
102	107	1
53	57	1
163	164	2
151	151	12
0	0	10
56	56	2
34	35	2
135	136	3
48	48	8
127	127	3
28	28	14
100	105	2
171	175	1
217	221	3
7	21	2
42	42	12
50	85	2
85	85	6
180	182	4
242	242	10
207	207	7
225	228	1
164	164	12
36	36	3
49	85	3
147	150	2
152	152	4
38	38	13
221	222	2
169	170	1
153	153	1
147	151	2
32	32	6
211	211	4
177	177	6
194	194	3
207	208	1
20	20	7
225	225	6
71	72	4
202	202	8
110	110	10
42	84	3
148	153	2
54	54	3
183	184	3
74	74	10
47	73	3
180	196	1
97	97	10
224	224	7
192	192	9
2	2	4
165	165	5
59	60	1
154	154	6
71	71	8
215	215	7
7	7	3
15	66	2
58	58	4
173	173	8
182	182	4
41	41	4
206	206	1
144	146	5
175	177	1
88	88	2
232	233	2
37	37	6
159	159	5
81	82	4
217	217	9
234	234	6
183	183	8
115	117	3
178	178	8
188	189	6
19	19	9
217	218	6
119	120	7
22	23	1
46	46	10
101	101	6
184	185	2
204	204	1
98	98	3
218	218	5
182	184	1
238	239	1
59	59	6
24	24	7
202	203	2
3	3	4
219	219	8
120	120	6
213	217	1
27	27	3
213	213	2
12	12	4
193	193	1
34	34	9
118	123	1
14	14	3
219	220	1
124	124	4
116	117	3
228	239	1
61	61	6
29	29	3
143	143	2
50	50	4
186	186	3
238	240	2
200	228	3
8	8	2
22	22	1
9	70	3
16	193	3
172	173	4
200	221	1
2	4	2
39	39	3
140	143	1
139	140	2
128	128	3
200	220	1
122	122	5
137	145	1
109	110	4
162	185	1
196	196	5
197	198	3
216	216	10
68	69	3
197	197	3
76	80	1
110	111	1
179	184	4
196	231	2
18	18	3
237	237	5
15	15	1
170	170	3
228	228	7
161	161	2
229	229	1
73	73	4
233	233	3
46	49	1
40	40	2
138	138	4
235	235	4
70	70	2
181	181	5
148	148	4
116	116	5
201	223	3
105	105	1
176	176	2
74	171	1
180	180	2
10	10	5
44	45	5
11	13	3
79	79	5
66	66	2
231	231	2
146	146	3
223	223	6
85	86	2
163	163	3
216	217	2
102	152	3
83	83	1
157	186	1
99	99	6
182	183	5
113	114	1
234	235	4
120	124	2
19	20	3
53	53	2
36	37	1
43	101	1
102	103	1
54	69	2
210	210	2
119	119	3
138	144	3
169	176	2
78	78	4
168	168	1
198	198	3
113	113	2
23	23	1
226	226	1
92	118	1
201	202	2
227	227	2
121	122	3
178	187	1
165	166	2
60	60	1
37	38	3
17	65	1
136	136	2
12	15	2
170	171	2
67	67	2
57	57	1
5	22	2
232	241	3
46	61	2
83	84	3
43	109	3
159	160	1
232	232	3
51	153	1
21	23	1
156	158	2
102	106	3
233	234	1
162	162	8
184	214	4
65	65	1
75	76	1
64	64	1
203	220	1
13	13	1
173	175	1
186	187	1
44	116	1
33	33	3
106	106	2
241	241	1
82	82	1
37	80	1
172	174	1
40	75	1
48	50	1
138	139	3
43	44	2
129	130	1
11	11	4
191	191	4
156	169	1
114	114	1
57	58	2
204	205	1
9	10	1
174	175	2
45	49	1
123	123	2
83	106	1
6	23	1
50	55	1
137	138	1
96	96	1
167	167	2
187	188	1
193	194	2
175	175	4
204	222	1
64	65	1
206	207	1
211	212	1
51	51	3
62	63	1
72	72	1
147	148	2
5	7	1
47	48	1
77	78	1
190	190	2
205	206	1
161	185	1
175	180	1
137	137	1
11	12	1
4	4	1
16	16	2
52	52	1
103	104	1
35	35	1
44	80	1
222	222	1
175	176	1
142	142	1
209	209	2
17	17	1
28	68	1
227	228	1
45	46	1
101	105	1
51	56	1
55	55	1
171	171	1
152	153	2
145	146	1
180	187	1
41	84	1
58	60	1
78	106	1
207	212	1
194	195	1
174	179	1
150	155	1
63	170	1
81	81	1
46	55	1
