65	71	2
9	28	1
34	36	1
26	26	4
92	92	1
40	40	4
5	13	2
127	132	1
107	108	4
70	70	1
36	36	2
111	111	6
103	103	2
28	28	3
72	83	3
137	137	2
130	130	8
58	59	3
69	69	4
15	15	3
104	106	1
65	65	2
127	127	2
8	8	3
118	118	6
76	77	1
138	138	4
52	57	3
13	19	2
10	11	3
12	19	1
84	84	4
4	6	1
20	20	9
24	26	5
116	116	3
55	121	1
15	29	1
129	130	5
64	66	1
141	141	3
14	14	6
108	108	6
60	60	5
18	60	3
42	42	4
77	77	1
6	6	1
47	49	1
24	24	3
15	35	4
34	34	9
4	5	2
128	130	2
122	122	3
47	50	3
109	133	4
62	62	2
140	141	1
65	66	4
39	80	2
115	116	2
89	89	11
111	113	3
107	109	1
115	131	2
42	93	1
80	102	4
100	101	2
18	142	1
57	57	2
19	19	4
64	71	1
15	30	3
73	83	2
3	3	5
61	61	3
131	131	5
73	73	1
58	134	1
46	50	5
2	3	4
35	35	5
4	23	1
11	71	2
18	18	3
53	53	5
64	100	1
79	79	3
43	43	3
110	131	3
48	126	1
49	49	4
106	129	1
13	13	3
16	16	4
66	66	2
72	74	2
93	95	4
91	91	1
93	93	5
39	43	1
119	119	3
22	22	2
137	138	4
73	75	3
39	39	1
111	142	1
135	135	2
96	97	1
108	109	1
77	78	3
81	81	9
113	114	1
50	51	1
123	123	2
42	66	2
97	97	7
126	126	4
76	126	1
128	128	1
59	59	2
32	32	2
56	56	1
97	98	2
105	105	3
60	95	1
51	51	1
0	1	6
84	109	2
143	143	5
40	41	1
11	11	2
82	128	1
115	130	1
42	65	2
23	23	2
10	32	1
5	14	1
106	140	3
96	96	1
42	55	1
0	0	3
31	31	1
102	104	1
90	132	1
33	33	4
104	105	2
106	120	5
1	1	2
2	122	1
10	68	2
9	9	3
88	127	2
98	98	3
121	134	1
29	29	1
64	68	1
15	25	2
21	21	3
118	120	2
30	30	5
3	36	2
1	3	1
69	87	1
62	63	3
133	139	1
27	27	2
113	115	1
85	85	3
48	49	3
64	64	1
132	136	1
2	2	1
101	101	1
90	90	8
87	88	1
116	118	3
41	74	1
134	134	1
71	81	1
59	60	1
72	72	2
50	50	1
62	66	1
106	128	1
58	58	1
125	125	1
96	143	1
51	53	1
38	39	1
75	75	1
54	54	2
11	125	2
109	109	2
13	37	1
19	143	2
55	56	1
80	80	3
111	132	2
35	43	1
33	71	1
124	124	1
83	83	2
37	49	1
140	140	1
65	95	1
121	121	3
41	77	2
81	128	1
86	89	1
113	113	3
106	107	2
78	102	1
9	12	1
67	67	1
36	57	1
88	88	1
91	141	1
6	7	1
66	98	1
18	19	1
129	129	1
5	5	1
107	135	2
33	73	1
23	24	1
60	61	1
139	139	1
76	76	1
63	63	1
95	96	1
