11	14	1
56	56	5
11	15	4
122	122	5
76	76	15
86	86	3
40	40	2
104	105	1
18	18	3
47	47	5
114	114	7
28	134	3
46	46	9
63	63	12
5	119	3
61	61	3
90	90	3
21	21	15
0	44	1
88	88	2
134	134	3
83	85	2
94	94	6
30	133	3
69	69	3
87	87	8
14	39	5
98	99	4
80	132	1
46	118	1
130	130	7
95	97	2
89	110	2
67	67	3
99	99	2
64	66	1
34	34	12
72	72	10
129	130	1
31	32	8
124	124	4
65	65	11
105	106	3
105	105	11
72	73	2
96	96	7
117	118	3
12	13	1
127	127	3
116	116	5
110	111	2
73	73	14
4	4	6
77	108	3
102	102	3
39	41	6
12	14	2
118	118	4
47	118	2
20	20	3
81	81	1
62	62	6
14	28	3
56	57	6
30	43	1
30	46	1
68	68	5
66	66	6
8	9	1
80	131	1
123	123	6
79	79	6
40	41	2
125	125	12
114	115	4
39	39	3
27	134	4
126	134	4
85	85	9
20	21	4
45	118	2
6	6	6
78	78	12
115	117	10
75	76	4
77	77	6
27	27	9
63	76	3
91	91	6
113	113	4
132	132	1
98	98	5
115	115	4
81	133	4
5	7	2
26	81	2
107	107	7
103	129	2
25	28	2
62	66	3
131	131	3
107	109	2
100	102	3
113	116	2
91	99	2
78	79	2
5	6	7
51	51	3
94	112	1
119	119	2
25	29	1
85	103	1
80	80	6
113	115	4
71	71	3
100	101	3
128	129	3
25	25	5
107	112	4
27	84	2
22	26	1
95	95	11
26	26	5
133	134	6
13	13	5
60	134	1
43	43	3
91	92	3
21	22	2
87	88	4
83	83	5
51	55	3
100	100	15
44	44	2
95	103	2
85	95	1
95	96	4
92	112	4
109	109	6
33	33	5
7	8	1
44	45	3
32	32	3
93	93	5
110	110	1
129	129	5
29	29	3
95	132	2
34	48	3
112	115	3
39	42	4
74	74	9
91	98	1
120	127	2
106	108	1
9	9	2
77	125	1
30	30	3
17	33	3
93	94	3
128	128	7
68	69	1
75	120	2
106	107	1
15	15	5
97	97	4
133	133	1
131	134	2
42	42	5
41	41	4
5	5	3
6	119	3
92	92	5
69	70	4
125	126	3
116	125	2
50	50	4
31	39	2
38	38	1
27	59	3
79	80	3
126	126	1
58	58	4
70	71	2
98	102	3
30	31	1
81	134	1
26	27	2
17	17	4
49	49	2
88	94	4
82	96	1
57	57	3
113	118	1
16	16	4
109	110	2
74	117	1
42	49	3
19	19	7
35	35	1
56	127	4
74	76	2
127	129	4
2	2	2
22	22	3
58	92	2
33	34	2
81	93	2
104	104	5
120	120	4
31	31	1
127	131	1
117	117	5
87	130	2
23	23	2
11	11	1
45	45	1
121	121	2
36	36	1
106	121	1
70	70	1
112	113	1
4	15	1
83	84	2
64	64	2
121	122	1
111	111	4
28	29	1
77	107	1
84	84	3
90	99	2
71	72	1
122	133	4
39	40	2
59	59	1
117	134	1
97	98	3
115	116	1
79	103	2
5	121	1
39	48	2
8	8	2
101	101	1
73	118	1
124	126	1
80	88	3
10	33	3
132	134	3
20	44	1
57	111	1
80	93	2
36	38	1
94	97	2
123	129	1
73	74	1
37	38	2
118	119	1
127	128	1
1	1	1
116	117	1
48	86	1
3	3	1
103	105	1
93	112	1
106	122	1
23	24	1
79	104	2
0	35	1
60	132	1
37	40	1
63	95	1
47	86	1
22	23	1
64	65	1
96	99	1
65	67	1
25	26	1
48	48	1
65	66	1
84	85	1
86	87	1
112	112	2
9	10	1
14	14	2
34	35	1
14	25	1
25	39	1
93	110	1
120	121	2
81	102	1
89	105	1
91	94	2
64	119	1
29	31	1
105	128	1
24	25	1
90	92	1
74	75	1
58	59	1
93	131	1
