160	163	4
179	179	12
145	151	4
192	223	3
38	38	8
33	33	16
48	49	6
209	227	4
22	22	8
32	32	14
73	73	7
8	8	21
6	91	2
200	209	2
5	34	5
213	214	12
28	29	6
34	89	5
151	151	16
79	79	11
211	211	11
197	201	10
203	203	7
69	69	15
114	119	2
48	61	3
207	207	3
63	63	5
114	114	8
35	35	12
185	185	12
177	179	2
100	162	9
103	103	4
19	19	9
97	97	8
177	182	2
205	205	20
154	154	6
228	228	3
41	42	8
102	171	1
25	25	5
201	229	6
233	233	6
98	98	13
230	231	8
174	174	2
216	219	2
172	172	5
115	115	4
74	74	15
31	31	10
24	24	9
67	68	1
91	91	4
64	65	6
36	36	9
53	53	7
181	181	7
62	62	22
158	158	9
78	78	2
225	225	13
149	158	3
101	145	1
27	27	8
113	113	8
155	155	6
55	74	2
106	107	4
117	117	3
176	176	14
51	52	6
170	170	3
246	246	8
215	215	7
17	19	3
40	40	17
232	232	32
196	196	7
30	31	2
160	161	5
105	165	1
116	162	4
219	219	7
165	165	12
85	156	3
236	236	7
168	168	12
16	40	3
4	4	4
87	94	8
174	180	5
235	235	7
82	82	5
37	37	13
80	80	6
7	14	2
115	160	8
191	192	7
173	173	7
157	157	4
163	163	7
108	112	3
93	155	4
101	171	5
50	50	16
96	102	3
52	52	5
164	164	11
45	45	12
88	88	6
87	87	3
212	213	1
85	85	21
186	186	11
222	222	2
68	68	14
217	218	5
228	229	8
78	79	6
117	161	5
193	194	2
177	181	3
86	86	8
218	219	4
184	184	13
52	62	5
76	76	7
110	164	1
96	97	9
96	96	17
65	66	9
85	155	7
216	216	4
48	64	1
5	12	3
55	55	6
229	229	14
16	16	11
149	149	1
179	180	2
95	95	8
35	39	8
94	113	1
102	165	3
42	90	2
68	70	1
65	65	11
195	216	3
104	105	5
179	189	8
36	39	1
180	180	19
144	145	3
106	106	7
58	59	1
75	75	8
229	230	4
189	193	5
51	51	8
150	151	5
153	153	10
62	68	2
115	119	12
93	93	7
189	189	1
107	107	5
187	187	7
162	167	3
202	203	10
116	165	3
171	172	5
23	23	12
34	34	6
202	202	1
213	218	3
105	106	2
76	77	5
245	247	5
43	43	3
156	156	26
227	243	2
7	42	4
240	240	7
17	17	5
27	31	1
221	240	1
46	46	8
108	115	3
115	167	2
60	73	2
208	208	5
10	10	7
206	206	5
28	28	15
166	169	2
231	231	5
161	161	7
73	74	8
207	209	1
97	98	9
1	2	2
59	59	2
50	61	2
118	119	6
199	200	5
59	72	1
38	42	4
197	197	8
202	229	4
239	239	3
50	58	4
183	183	12
150	150	11
52	53	11
110	110	9
154	155	2
95	96	1
198	198	4
26	26	8
81	244	3
218	218	10
216	217	2
237	240	3
238	239	6
107	119	2
89	89	11
220	222	2
171	171	12
201	201	2
109	157	2
175	175	14
110	118	2
187	191	4
59	68	4
104	104	7
48	48	12
86	87	4
204	204	4
242	242	2
56	57	5
49	60	2
182	182	4
6	6	5
108	110	3
69	242	3
177	178	5
75	77	4
64	64	6
14	14	5
103	104	4
94	94	5
209	209	14
59	60	7
75	80	2
77	77	1
92	93	2
215	218	1
101	101	6
226	226	8
116	116	2
232	233	1
213	213	11
151	155	3
83	85	2
100	100	17
183	184	5
108	108	8
52	63	4
198	199	2
18	18	3
11	11	9
82	83	3
165	166	4
21	21	5
111	111	8
241	241	7
192	192	2
174	176	4
39	40	4
29	29	9
85	97	3
115	168	3
56	56	9
84	85	1
162	163	3
174	175	5
237	237	2
208	209	5
156	167	2
204	205	1
245	248	3
43	90	1
12	12	8
175	176	5
90	90	3
171	174	5
114	145	5
220	220	4
247	247	5
9	9	4
234	234	5
25	26	2
185	186	1
173	176	2
107	108	2
24	25	3
221	221	3
54	54	3
58	58	2
232	241	4
43	156	2
113	114	5
207	208	2
24	26	2
145	178	4
37	38	2
145	152	2
71	71	4
1	1	5
100	168	4
223	247	3
9	10	1
81	81	6
119	119	3
23	27	3
4	7	1
50	59	2
50	60	1
47	48	3
67	67	2
166	168	5
114	120	7
226	227	8
188	188	4
85	86	2
196	197	1
223	245	7
57	57	9
81	226	3
46	51	2
160	160	9
178	178	1
164	165	2
221	233	4
169	169	4
42	42	2
217	219	2
11	15	2
223	224	2
108	119	3
199	199	3
17	38	4
39	39	3
43	88	5
61	61	3
117	118	3
197	219	1
92	92	4
86	93	3
6	7	3
166	166	2
195	196	1
69	241	4
95	100	1
48	50	1
191	191	1
4	14	1
203	209	2
167	167	11
7	7	1
231	235	4
70	70	5
194	247	3
225	226	6
176	178	3
77	244	3
57	58	3
152	153	3
58	74	2
86	88	3
3	3	3
2	14	5
184	186	1
111	112	3
212	212	5
94	95	3
220	243	4
84	84	2
145	212	2
221	222	3
20	20	5
155	225	3
27	30	2
213	216	9
45	46	1
215	219	5
197	214	3
118	118	1
224	224	3
223	223	4
68	72	3
102	102	3
178	182	1
175	177	1
190	192	2
153	158	1
109	109	2
107	111	5
17	40	1
71	73	4
75	76	2
230	230	2
68	238	2
107	112	7
101	165	4
214	215	3
179	188	4
72	72	4
192	195	2
49	57	5
42	89	1
67	72	3
92	95	1
197	198	2
193	217	1
77	78	8
112	112	2
178	180	2
152	152	3
81	83	1
81	214	1
210	227	1
238	240	4
66	66	2
246	247	2
180	188	2
43	93	1
200	200	6
53	55	2
96	226	6
59	61	1
79	171	2
210	210	4
40	41	1
28	31	2
109	156	1
71	244	2
96	98	1
101	104	3
68	69	5
103	172	1
238	238	4
171	176	1
23	24	2
86	95	3
193	193	3
86	92	3
69	70	1
233	235	2
121	145	1
189	190	2
174	181	1
40	200	2
39	42	1
27	28	3
77	224	1
151	153	1
205	207	3
157	158	1
7	8	1
195	195	4
34	35	4
50	64	1
159	159	1
41	89	2
67	241	1
232	242	3
17	37	1
101	172	2
48	51	1
13	14	1
67	242	1
163	164	2
71	75	1
52	55	1
71	78	1
18	34	2
223	244	1
232	240	4
244	244	2
180	213	1
20	21	1
200	201	2
97	225	1
87	92	1
51	68	1
63	238	1
243	243	3
52	69	1
105	105	3
87	88	2
45	85	1
172	173	1
82	170	1
211	243	1
70	71	1
41	41	3
214	214	2
224	226	1
41	88	2
39	90	1
30	30	1
118	161	2
145	145	1
248	248	2
98	99	2
216	218	2
67	240	1
190	190	1
229	231	1
99	99	1
198	219	1
70	243	1
28	32	1
118	167	1
235	236	1
5	5	3
4	90	1
16	17	1
217	217	1
229	234	1
88	91	1
115	118	1
42	43	1
19	26	1
60	62	1
112	113	1
177	177	1
68	246	1
112	157	1
245	245	1
