108	108	1
124	141	1
71	155	2
22	23	4
71	158	1
119	119	3
132	145	1
37	41	2
62	84	7
12	80	4
0	0	3
93	93	1
137	138	3
146	146	3
145	145	2
92	92	3
81	81	2
104	104	12
48	54	1
33	33	3
78	78	4
25	25	2
10	10	3
43	43	8
95	96	6
64	73	3
94	97	1
145	147	3
77	77	2
156	156	1
48	48	3
146	147	4
97	116	2
49	49	4
53	53	7
35	37	1
47	47	9
50	51	4
139	139	3
140	141	1
80	80	2
84	84	1
55	154	3
10	11	5
3	3	5
110	110	1
34	34	2
9	10	2
37	50	5
96	96	4
82	82	8
24	77	2
37	45	2
56	56	3
145	146	1
111	112	3
72	85	1
27	27	6
122	123	1
123	124	2
20	20	6
6	6	3
136	139	3
34	45	4
147	147	3
146	149	3
29	29	3
23	23	5
68	68	5
29	53	2
152	153	3
64	124	3
109	109	4
101	101	4
84	87	2
121	122	4
104	105	2
51	51	1
71	125	1
71	71	2
4	4	1
0	21	2
13	13	1
14	15	3
118	118	4
34	38	4
87	101	3
126	126	3
97	117	1
142	142	1
134	135	1
69	69	4
100	100	2
120	120	4
75	87	1
18	18	3
55	55	2
26	26	5
22	24	1
150	150	6
128	129	1
116	117	1
41	42	1
135	144	1
53	54	4
85	85	2
26	152	3
124	124	3
137	137	3
81	82	4
36	55	1
5	23	1
113	115	5
21	21	1
19	19	3
122	122	2
135	143	1
79	152	1
100	107	1
4	34	2
88	88	3
107	107	1
50	50	8
94	108	3
38	38	2
89	98	3
131	140	3
44	44	2
136	144	1
132	132	3
105	105	2
9	9	1
109	158	1
75	76	3
35	38	1
103	103	6
77	81	1
115	115	7
120	121	2
114	115	1
113	113	2
72	129	1
73	73	2
114	114	1
78	101	1
7	7	1
84	107	1
150	155	2
99	99	2
139	147	1
55	156	1
5	21	1
67	69	1
14	14	1
24	24	1
26	28	1
37	37	4
68	75	1
62	62	1
90	92	2
108	109	1
39	43	1
41	41	1
20	24	1
2	35	1
155	156	1
138	138	4
17	17	2
39	39	1
36	41	1
123	123	1
97	97	2
79	125	1
2	2	2
52	52	1
65	123	4
140	140	2
155	155	2
73	75	1
136	140	2
4	33	1
86	87	1
90	91	1
28	29	1
40	40	1
103	104	1
75	85	1
94	94	1
135	135	1
