139	141	3
111	111	25
76	78	4
125	125	33
6	8	2
126	140	5
8	10	5
31	33	8
64	64	27
91	92	21
120	120	21
109	109	21
4	4	8
81	81	45
122	122	25
70	71	14
134	134	43
53	53	47
80	103	5
107	107	18
22	22	31
9	9	22
143	143	19
49	49	20
103	103	31
112	120	2
93	93	25
145	145	45
103	122	3
73	73	39
123	123	16
99	101	14
34	34	29
131	131	41
117	123	1
117	124	4
3	5	6
77	78	9
115	115	18
10	10	31
120	121	12
27	27	48
92	92	34
86	87	3
96	96	19
57	57	24
82	82	49
95	98	5
82	83	16
41	41	37
11	11	25
128	128	18
117	117	19
94	94	34
83	83	10
10	11	2
18	18	23
100	100	12
53	59	2
60	61	14
124	124	27
75	108	5
84	120	3
39	82	8
13	14	9
12	14	2
87	87	25
20	67	6
93	94	9
84	84	23
74	74	24
42	43	2
2	3	16
0	0	5
40	41	10
48	49	8
102	102	20
67	68	16
26	26	34
121	123	6
111	113	4
90	91	12
74	75	17
17	17	33
142	143	14
69	70	23
66	66	17
15	15	17
23	23	37
20	20	33
126	126	31
88	91	2
29	29	30
10	17	2
62	63	11
47	47	28
91	95	2
38	38	58
39	48	6
5	29	6
111	112	12
80	80	34
53	68	6
75	75	26
24	24	19
4	89	2
63	63	32
39	39	23
92	93	14
105	107	6
82	104	3
79	80	6
87	130	8
56	88	3
30	30	40
56	56	44
1	31	3
127	141	2
98	98	41
146	146	9
40	55	4
96	98	1
15	16	7
28	28	59
56	58	6
115	123	1
116	121	2
31	31	29
106	132	3
80	86	1
42	42	39
2	25	3
66	69	6
94	95	11
32	32	17
8	37	3
132	132	26
143	144	7
97	97	34
50	50	22
53	117	2
135	135	22
103	104	7
130	130	40
126	127	1
133	133	17
99	100	12
110	111	16
140	140	31
10	28	3
62	62	18
4	5	13
78	78	19
58	58	16
65	65	22
91	91	32
77	77	24
75	78	9
141	141	51
108	110	1
12	60	2
121	121	36
87	88	13
20	96	6
27	28	9
13	13	32
99	102	5
123	138	6
101	101	29
47	48	5
127	128	8
107	108	14
80	117	4
75	94	5
123	126	5
38	72	3
3	24	2
74	143	9
83	84	14
2	26	1
30	33	1
3	3	29
81	128	5
61	64	8
78	123	4
18	19	8
144	144	9
99	99	49
129	129	17
81	100	3
23	31	1
95	95	21
61	81	5
114	114	24
116	116	23
12	12	11
113	113	34
59	97	2
29	40	2
51	51	19
79	79	25
71	71	35
34	106	1
67	67	33
108	108	39
69	71	1
88	111	3
110	110	33
115	116	8
125	126	10
33	33	22
6	49	1
139	139	17
72	72	25
5	5	21
16	17	12
21	22	12
100	101	8
54	54	39
24	116	3
48	54	3
51	52	6
84	85	16
106	124	4
104	135	6
105	105	29
90	90	26
66	77	1
106	109	7
60	115	2
40	56	1
91	97	2
137	138	10
56	104	4
59	59	31
80	82	7
136	138	3
91	93	8
52	52	24
86	86	23
37	37	17
40	49	3
53	108	3
61	62	8
3	4	4
69	69	12
112	112	16
61	61	34
113	114	12
113	115	3
2	2	26
118	118	22
33	35	2
68	68	32
35	47	5
25	25	23
3	19	2
6	6	22
106	106	13
38	39	10
127	132	3
111	115	4
118	120	4
57	58	10
129	130	14
101	104	3
92	131	5
18	37	7
109	110	10
103	119	6
138	139	13
122	133	3
120	126	6
73	110	3
93	98	4
65	88	4
73	74	9
10	42	1
88	89	7
1	2	5
55	55	19
16	89	2
13	34	5
140	141	19
23	33	4
76	77	17
15	82	4
120	136	5
104	104	32
28	29	14
96	130	6
116	117	8
53	55	7
81	82	11
55	56	10
9	26	4
29	30	5
114	115	7
112	137	1
58	88	1
100	103	3
14	14	13
108	109	11
17	18	3
38	40	5
117	118	6
59	60	5
14	43	2
67	121	3
110	118	1
22	42	1
68	102	2
31	32	4
82	119	5
137	139	6
49	59	2
78	79	5
41	43	6
134	136	11
35	59	3
8	8	24
9	11	1
19	51	3
120	135	3
71	101	5
74	119	1
8	9	8
81	122	1
16	38	3
36	37	8
29	43	4
76	76	22
62	99	3
105	106	8
8	42	2
17	26	4
98	110	3
104	105	6
63	106	2
89	89	23
52	54	6
65	66	5
142	142	19
47	126	4
25	26	12
13	18	3
97	121	1
116	118	4
19	19	25
66	96	1
102	129	2
53	66	5
36	55	4
59	77	1
118	119	17
54	57	2
20	33	3
138	138	20
68	118	3
58	111	2
21	21	24
136	137	12
22	74	2
14	33	7
117	140	1
127	127	12
62	91	4
60	67	1
37	38	5
20	21	11
18	72	2
60	60	23
19	21	3
24	25	6
35	35	21
57	60	6
9	10	15
10	26	3
77	79	1
136	136	22
73	78	4
70	107	2
101	103	10
32	53	4
48	75	2
22	25	2
49	90	4
71	75	7
8	72	1
70	112	2
96	97	5
32	79	3
115	117	2
102	103	8
19	34	2
73	111	1
80	128	5
80	81	9
51	106	3
65	102	3
63	67	3
96	123	1
57	63	9
15	88	3
77	102	3
70	70	21
62	103	4
74	79	2
133	134	14
75	114	2
90	99	3
141	142	5
50	52	2
23	24	15
87	89	3
69	96	4
81	107	4
0	13	11
60	82	1
37	109	7
64	97	3
16	36	1
124	131	8
48	48	21
89	131	2
22	39	4
70	88	3
85	108	3
31	56	4
0	1	9
5	25	3
108	116	4
54	56	3
95	96	10
101	102	6
137	137	14
88	88	15
102	106	9
49	58	2
19	33	2
73	92	2
54	55	11
58	61	1
16	16	20
67	69	4
123	140	3
124	135	2
35	36	10
41	92	2
72	110	5
40	40	20
128	129	13
132	133	7
74	121	3
85	85	26
89	90	5
112	113	8
28	42	2
34	35	6
8	41	4
122	124	1
36	36	10
71	112	2
32	125	1
80	126	1
17	19	3
131	133	3
6	22	2
135	136	3
102	141	3
68	70	3
104	107	2
123	124	14
73	135	1
18	20	2
89	115	6
32	62	3
60	74	2
63	64	2
78	109	7
55	67	3
41	53	3
89	91	5
80	83	3
119	119	19
81	133	1
96	131	2
90	124	2
41	99	1
109	118	3
0	40	1
113	116	2
5	34	1
33	40	3
135	137	5
131	141	1
59	61	1
82	128	1
104	130	3
22	28	1
110	114	1
16	32	3
102	124	4
68	69	6
134	135	12
1	26	2
128	133	2
75	100	4
26	27	13
110	112	1
52	97	1
43	43	16
92	94	4
1	23	6
36	56	1
13	15	1
119	120	8
106	107	1
48	99	3
91	125	1
15	37	2
62	65	7
72	73	2
14	15	3
33	38	2
131	132	3
0	21	2
52	53	2
77	109	2
39	55	1
135	138	1
60	113	1
8	71	1
99	103	5
30	31	8
28	126	3
85	87	4
65	98	1
54	104	1
17	22	2
128	135	4
136	140	2
96	102	1
1	1	7
30	56	3
94	141	1
112	114	6
105	132	2
138	140	1
22	40	2
97	98	6
100	129	2
56	57	6
92	97	3
71	72	15
41	42	8
85	109	1
68	109	4
81	129	2
47	109	2
87	131	3
9	39	1
60	117	1
70	86	2
1	122	1
117	120	3
84	87	1
73	84	2
30	40	1
132	135	3
34	79	4
74	90	1
128	132	7
91	131	3
43	57	1
0	34	5
53	57	6
15	27	3
50	61	1
107	109	5
60	69	1
16	37	3
90	97	2
75	76	4
0	19	3
74	88	1
82	85	4
66	68	1
76	79	6
11	17	3
121	141	1
98	103	2
104	126	5
98	99	7
99	105	1
49	108	2
79	133	1
6	25	1
23	25	6
19	65	2
23	41	4
122	135	2
125	134	1
21	96	5
19	20	4
122	123	10
18	21	2
61	69	6
32	83	1
141	144	1
4	20	2
28	51	3
4	15	2
28	30	10
10	72	3
74	82	3
29	74	2
128	130	7
11	21	4
55	104	3
127	131	3
20	40	2
22	23	1
97	142	1
38	96	3
91	111	1
42	71	1
92	141	1
2	6	2
113	117	4
38	91	1
0	3	2
93	95	3
29	79	1
11	13	3
14	91	2
4	13	3
127	129	5
37	41	3
48	78	3
105	127	2
90	95	1
85	86	1
60	71	1
57	66	1
16	29	1
6	27	1
20	69	4
73	141	2
73	126	1
1	6	1
124	134	1
76	114	1
11	23	3
0	4	3
19	27	1
86	130	2
103	107	1
128	131	3
68	89	2
106	119	3
100	137	4
70	110	3
99	113	3
9	30	1
58	59	7
106	117	3
64	65	6
121	137	2
29	50	2
23	117	1
49	57	1
72	112	1
93	103	2
0	31	1
124	130	5
89	107	1
50	87	3
14	25	3
35	37	4
108	111	4
36	47	2
36	80	3
122	131	2
94	122	1
62	98	2
53	107	1
63	104	1
18	30	4
70	108	1
43	54	2
53	61	1
33	36	1
6	12	1
34	43	1
41	48	2
126	131	2
52	58	2
37	127	1
134	140	3
71	113	4
22	71	1
109	111	1
0	37	1
67	105	4
82	86	1
101	114	2
77	99	1
1	18	2
58	96	2
18	31	2
67	103	2
23	28	6
82	84	1
23	27	1
74	97	2
69	119	2
71	100	4
23	90	2
53	54	8
32	33	2
43	127	2
106	123	1
75	121	1
9	20	1
8	18	1
33	54	2
87	115	3
95	99	3
33	82	2
24	119	2
61	88	1
4	39	4
38	41	2
13	21	1
136	144	2
69	97	1
104	106	1
114	136	4
22	30	2
16	30	2
56	72	3
51	84	1
71	117	1
39	40	4
63	77	2
134	139	1
82	96	1
42	127	1
49	98	2
60	105	1
16	18	1
34	36	2
72	94	1
99	134	1
96	99	1
20	23	1
83	108	1
48	126	1
25	27	2
73	102	2
18	27	3
33	41	2
61	102	2
114	137	1
4	6	1
88	128	2
115	118	1
11	50	1
56	71	2
70	72	1
136	139	1
105	141	2
17	87	4
57	59	1
73	117	1
41	129	3
67	97	1
61	80	1
105	118	1
119	135	2
40	106	1
60	81	1
124	125	2
50	55	2
102	116	1
18	59	4
15	31	5
105	123	1
98	102	1
31	39	3
88	100	1
27	30	3
60	62	1
129	140	2
75	79	4
71	73	2
53	56	1
117	119	1
11	41	1
113	120	2
2	18	1
48	79	1
102	104	1
6	55	1
39	127	1
72	74	1
52	111	1
32	55	1
23	112	1
49	50	3
29	35	1
42	57	1
132	140	1
18	120	1
74	93	1
47	53	1
2	5	1
38	55	1
1	34	2
87	90	2
133	136	1
6	19	1
92	99	2
53	64	2
8	17	2
66	67	5
47	49	1
14	41	1
27	29	3
133	138	1
74	78	2
26	29	2
1	10	1
23	26	1
117	135	3
14	114	2
27	53	1
52	59	2
79	82	2
48	56	1
38	56	1
91	94	1
1	5	1
11	35	2
27	116	1
81	111	1
4	9	1
64	89	2
20	34	1
21	33	1
6	38	1
90	98	2
24	118	1
106	110	1
97	124	1
6	39	1
93	100	2
85	107	1
111	120	2
55	59	1
55	57	1
81	83	1
14	18	2
64	79	1
52	57	1
86	132	1
100	102	1
69	112	1
5	6	1
35	43	1
130	133	1
29	56	1
24	34	1
74	77	1
62	64	1
50	88	2
99	115	1
33	34	1
74	98	1
6	17	1
121	122	1
35	48	2
51	53	1
20	50	1
8	30	2
0	24	1
92	132	1
10	23	2
114	116	1
6	37	1
4	36	2
68	110	1
108	138	1
42	54	2
20	97	1
133	135	1
130	131	1
1	36	1
71	89	1
63	96	1
117	141	1
2	4	1
61	90	1
138	141	1
8	29	1
106	127	1
37	72	1
