8	9	3
35	35	13
128	128	13
87	87	2
138	138	9
4	124	9
106	106	17
97	97	11
34	34	5
13	14	8
100	100	7
38	38	2
140	140	7
130	130	12
137	137	7
122	122	6
23	26	5
13	13	11
78	78	12
80	80	7
79	84	3
136	136	10
27	28	2
98	98	4
103	103	7
10	10	6
7	7	16
12	35	4
5	5	11
83	83	3
126	126	11
98	99	6
16	16	6
74	74	6
4	4	6
18	18	14
16	17	4
127	127	7
29	29	11
113	116	1
101	101	9
20	20	10
74	75	7
117	121	1
95	95	3
113	122	7
113	113	14
25	26	4
120	120	14
124	124	17
92	92	2
85	85	11
34	96	6
82	107	2
77	77	8
73	73	5
36	37	2
111	112	5
9	9	3
17	17	3
86	86	12
16	18	3
108	109	6
11	27	3
117	117	5
19	21	2
86	88	2
71	71	9
89	89	15
134	134	5
107	107	12
115	125	5
0	0	5
114	116	1
1	1	7
72	73	3
6	8	1
37	37	9
27	27	2
119	119	6
105	105	1
93	93	6
137	138	2
81	88	1
33	33	8
111	118	1
1	4	1
125	126	4
11	11	3
17	20	3
19	113	4
116	123	5
117	118	2
83	85	2
10	11	2
94	96	2
102	102	12
4	113	1
134	135	2
98	100	6
115	115	6
32	32	9
8	8	15
12	109	3
79	79	8
104	106	4
96	96	8
19	19	7
88	90	1
114	114	1
138	139	3
125	125	4
28	31	1
82	82	7
106	107	5
20	113	4
14	14	10
123	127	3
82	84	5
113	123	3
131	131	14
84	85	7
15	15	8
1	20	2
15	19	6
12	12	2
2	2	5
76	76	11
96	126	1
133	133	4
26	26	4
91	91	7
68	122	1
81	81	6
94	94	2
135	138	5
4	108	1
26	27	2
22	22	6
87	88	1
118	119	2
88	88	1
102	110	2
116	116	10
21	21	3
79	80	5
86	87	1
30	31	4
81	91	2
34	91	2
90	90	3
89	90	1
5	7	2
24	24	2
36	36	13
7	8	14
84	86	3
112	113	1
3	3	5
77	86	3
2	4	3
104	104	2
100	116	4
81	83	4
4	5	2
109	112	6
109	109	7
121	121	4
2	20	1
19	20	1
110	110	10
82	104	1
129	129	7
90	117	1
118	118	5
110	111	2
6	15	1
117	120	1
111	111	9
110	112	1
90	94	2
139	139	5
74	103	3
83	89	2
123	123	7
92	93	3
130	131	7
114	115	6
112	112	3
108	108	4
11	15	3
99	99	3
120	121	1
14	76	1
96	97	3
2	3	1
135	135	2
31	32	3
83	84	4
31	31	8
119	122	1
109	110	4
117	119	1
90	91	2
120	122	1
99	112	2
74	76	3
23	24	4
84	84	2
136	137	2
33	35	1
107	108	1
0	1	1
128	129	1
10	12	2
15	20	3
81	82	3
17	112	1
28	29	2
89	91	2
95	98	3
92	94	1
95	124	1
115	116	2
75	97	1
72	72	6
101	102	2
75	77	2
1	3	1
6	6	1
8	100	2
75	105	2
116	126	1
99	125	1
5	117	1
30	30	5
9	19	1
75	76	2
98	117	1
88	89	1
4	106	2
4	13	2
3	20	2
17	99	1
2	6	1
90	93	1
34	94	2
102	105	2
104	105	2
108	115	1
29	112	1
96	101	2
27	33	1
28	28	2
97	98	1
96	98	1
37	38	3
75	75	2
12	14	1
123	124	1
7	9	1
139	140	1
22	24	1
8	108	1
116	117	1
21	26	1
99	100	1
91	120	1
77	78	1
22	23	1
