122	126	5
139	139	18
8	8	8
180	180	10
110	121	7
111	111	11
134	172	2
79	79	11
104	105	3
172	177	1
175	175	10
123	135	2
14	14	23
10	11	2
65	65	14
166	166	6
136	136	8
39	39	5
134	134	15
41	41	8
5	6	3
107	112	2
24	30	2
159	160	6
84	84	4
60	60	15
73	73	13
168	168	7
19	19	13
93	93	14
162	164	2
18	18	7
56	67	1
130	130	5
11	37	5
9	111	2
143	143	10
8	38	1
15	15	13
140	140	17
126	126	8
152	152	8
102	102	15
22	39	8
106	107	2
122	139	1
158	159	3
4	4	12
130	131	5
55	56	5
34	34	1
38	38	13
154	154	12
122	122	8
72	72	10
101	101	4
174	175	6
99	109	1
2	4	3
88	88	17
91	153	2
102	130	2
107	107	7
161	161	18
157	157	11
10	15	1
150	150	6
55	139	1
131	131	9
147	147	7
149	153	3
9	9	14
132	132	15
28	29	4
162	174	2
92	94	6
123	123	22
85	85	4
165	165	16
137	137	8
64	64	8
103	103	15
72	87	2
93	94	3
52	124	6
129	129	3
50	50	8
16	16	7
105	116	2
161	162	4
44	44	7
1	74	3
20	23	7
54	139	3
176	176	6
172	173	1
149	150	6
142	144	4
140	142	1
106	106	12
43	43	2
110	139	3
138	138	11
120	120	9
177	177	4
135	135	5
43	121	6
144	148	6
30	46	1
113	113	11
91	94	3
2	3	9
28	28	5
45	45	7
153	153	18
107	155	1
63	68	2
87	166	3
172	178	5
96	96	10
36	36	8
125	142	4
99	100	5
66	67	5
11	35	7
82	84	2
50	85	2
76	77	4
155	156	1
61	61	6
80	80	17
106	131	2
145	145	3
115	118	4
126	127	5
80	81	5
37	37	11
112	112	13
76	76	12
27	28	3
171	171	3
27	27	3
51	51	4
153	163	2
54	55	3
155	155	7
74	168	1
37	150	1
169	169	14
118	138	1
123	124	1
12	38	5
152	153	1
32	32	10
153	154	5
56	131	1
90	90	12
19	21	4
154	164	4
58	58	6
31	31	14
147	154	3
82	82	5
167	167	19
170	170	7
108	108	10
86	147	3
49	60	2
77	77	5
94	94	5
92	92	12
163	167	6
162	162	5
97	97	9
1	1	13
83	84	9
52	64	5
113	114	12
78	169	1
148	152	6
117	148	7
12	12	5
153	157	1
52	52	8
149	149	14
140	148	2
144	144	7
6	6	11
119	120	3
156	157	1
147	148	1
141	141	7
120	121	3
116	116	6
89	89	10
30	30	15
125	125	7
167	168	2
29	29	11
142	143	9
139	140	3
23	23	12
94	118	1
57	58	4
63	66	5
116	123	1
117	118	1
79	114	3
137	138	5
60	61	4
33	33	10
86	91	4
154	163	3
179	179	3
52	76	1
111	113	2
87	89	1
140	149	1
54	54	6
64	65	6
6	7	4
17	119	3
98	98	7
172	172	6
114	115	3
110	110	4
10	10	14
100	105	5
66	66	9
95	154	1
26	37	3
43	59	3
168	169	4
78	81	2
103	111	1
55	116	3
114	114	7
11	11	8
51	61	4
41	110	1
130	134	3
88	89	6
160	160	7
21	21	3
72	89	1
107	108	5
124	124	7
99	99	3
68	71	2
148	151	3
169	170	2
7	9	1
133	133	13
115	133	3
24	28	1
127	129	2
95	95	8
106	115	1
0	0	7
62	63	6
18	21	3
18	19	2
11	12	4
91	91	6
74	141	1
84	91	2
102	108	1
129	147	4
154	155	7
20	20	3
90	92	3
2	2	4
35	35	5
117	117	4
161	164	2
170	172	2
67	67	5
135	136	1
133	136	1
39	40	3
17	37	1
71	121	2
34	37	2
125	149	2
71	72	4
125	127	1
25	32	3
18	20	1
129	161	1
173	173	3
137	139	6
170	171	1
8	9	8
60	65	4
81	103	8
58	155	2
98	101	1
176	179	4
156	156	11
59	59	12
53	53	11
71	71	16
108	153	1
22	22	7
79	86	1
118	119	4
3	46	2
149	173	4
7	7	11
45	46	1
127	127	9
75	75	2
145	166	2
91	92	4
105	106	4
179	180	2
13	13	8
94	105	1
142	142	6
152	154	5
42	171	5
129	136	3
20	22	3
110	128	5
165	178	3
106	114	1
54	59	2
95	162	3
128	128	3
78	78	4
74	75	3
0	1	1
81	81	5
74	74	10
87	87	13
62	62	3
32	35	2
55	55	9
116	117	3
15	27	2
134	138	1
26	26	4
90	108	1
94	104	2
3	3	6
86	87	2
59	105	2
101	102	2
154	162	1
96	154	1
145	146	2
63	63	7
4	6	1
126	135	1
122	125	1
155	158	2
103	104	2
151	151	3
33	83	2
109	110	4
56	106	1
96	110	1
36	175	2
83	109	1
114	137	1
56	104	1
58	62	3
12	13	4
119	119	4
107	115	2
2	13	2
111	112	8
85	91	1
134	135	6
124	125	2
73	89	3
53	54	1
89	90	3
6	9	2
52	97	2
151	152	3
29	30	1
110	153	1
40	43	2
80	103	5
173	174	3
65	66	6
77	80	1
5	5	4
42	42	8
95	166	2
50	99	1
142	164	3
32	39	1
124	175	1
134	136	3
25	26	1
127	128	2
78	79	7
19	20	4
148	148	4
86	86	2
55	106	1
17	18	3
74	83	1
115	115	5
52	59	2
151	153	1
141	159	1
7	11	2
18	148	1
1	2	1
42	111	1
133	160	1
55	132	1
121	121	2
132	138	2
56	57	1
74	80	1
141	153	1
50	52	1
101	110	2
127	150	3
33	39	2
77	78	2
165	166	2
109	111	4
28	36	3
22	44	1
43	60	2
51	84	1
57	57	2
15	41	1
147	158	1
40	150	1
22	24	1
7	8	1
146	146	4
36	37	2
52	77	2
104	107	3
59	104	2
105	107	6
17	17	2
153	159	1
19	42	3
61	155	1
81	169	1
158	158	3
102	135	4
159	159	4
16	27	2
110	147	1
133	134	4
108	109	1
166	171	1
104	104	4
95	133	1
143	175	1
56	56	1
164	164	7
81	84	2
67	68	1
111	153	1
88	91	2
155	157	1
178	179	1
24	26	2
129	158	2
75	169	1
3	121	1
153	158	1
67	71	1
81	176	2
11	14	2
35	85	2
38	145	2
51	169	2
105	117	3
31	32	1
163	163	1
95	98	1
16	18	1
80	83	1
24	27	1
10	18	1
144	145	1
156	159	1
128	162	1
118	118	3
1	6	1
10	13	1
60	62	1
85	88	2
178	178	4
90	91	1
98	99	2
90	99	2
57	59	1
79	94	2
38	142	1
42	44	1
170	173	1
52	53	1
67	82	1
115	116	1
100	100	2
32	33	1
35	168	2
132	134	2
74	171	2
145	147	1
27	31	2
14	15	1
128	131	1
35	141	1
4	73	1
142	152	3
138	140	1
169	174	1
16	17	2
101	129	2
117	124	1
4	5	1
94	95	2
50	61	1
101	113	1
121	122	2
124	139	2
68	68	1
148	175	1
50	51	2
81	82	1
175	177	1
10	16	1
107	110	1
36	85	1
162	163	2
27	144	1
17	28	1
104	129	1
106	127	1
120	123	1
113	135	2
129	130	1
111	114	1
105	105	2
133	178	1
92	148	1
123	125	1
162	166	2
102	105	1
25	25	1
59	62	1
14	149	1
95	101	1
86	94	1
96	130	1
74	139	1
102	109	1
119	123	1
73	149	1
