54	55	5
11	11	4
54	54	4
161	161	6
15	15	9
90	90	12
155	161	1
98	98	4
86	86	9
127	127	9
131	131	13
80	80	14
86	87	3
12	129	3
129	129	11
143	143	5
136	136	13
163	163	11
119	119	11
130	130	22
134	135	2
21	21	6
42	43	8
74	74	8
58	58	3
51	52	1
90	114	3
151	151	7
114	114	5
170	170	8
77	79	5
13	13	15
159	159	17
126	126	8
52	52	17
45	47	4
21	22	3
107	111	3
78	78	11
137	137	11
117	117	7
106	106	15
34	34	6
110	111	4
47	49	3
146	146	7
156	156	11
97	97	3
111	111	14
149	149	8
18	18	3
108	109	4
36	36	14
107	107	15
50	51	5
90	91	5
139	139	4
91	91	5
73	162	3
157	157	10
35	35	9
6	6	6
124	124	14
51	51	3
55	64	2
22	22	8
132	136	3
101	101	8
17	17	20
105	105	11
2	3	3
167	167	5
117	118	4
75	75	3
70	70	8
38	38	1
63	63	2
142	143	4
105	106	3
135	135	6
66	66	9
53	53	7
0	0	7
84	154	1
99	99	7
39	40	4
158	158	7
89	89	4
83	83	5
26	27	2
11	15	1
89	126	3
43	43	10
125	125	8
81	83	8
147	148	3
90	116	8
5	5	11
7	8	2
24	24	6
116	116	6
166	166	4
4	48	4
58	65	4
27	28	2
75	154	3
165	165	7
164	164	12
5	6	2
39	44	3
41	41	7
7	7	2
168	168	1
105	113	4
56	57	5
155	156	2
85	86	4
109	109	5
44	44	10
84	86	1
100	100	4
96	96	12
43	141	1
81	82	6
7	18	3
0	2	4
108	108	6
71	71	7
90	123	1
122	125	7
150	150	17
40	40	8
53	54	1
69	69	3
48	49	4
6	8	3
10	10	2
129	141	4
8	10	1
128	128	7
110	110	9
128	130	9
138	167	5
28	28	1
47	47	2
57	65	1
71	161	2
103	103	6
11	128	2
50	50	2
130	131	3
149	150	2
143	146	7
74	155	2
169	169	6
140	140	9
138	138	13
17	43	5
112	112	10
119	130	6
42	42	7
1	24	2
62	63	2
119	120	2
16	16	1
8	8	9
76	76	4
127	129	2
17	129	1
19	19	13
129	169	1
139	140	2
145	145	5
77	77	3
85	162	5
154	154	5
45	49	2
79	79	2
55	55	5
9	9	7
57	63	3
119	128	3
23	24	1
169	170	3
118	118	5
121	121	7
52	57	1
89	141	3
91	116	2
132	132	2
133	136	1
93	94	3
92	136	3
153	154	1
65	65	4
46	46	3
65	66	3
23	23	1
61	61	1
149	154	1
73	161	3
22	24	1
77	82	1
140	141	2
10	66	1
45	45	3
51	62	2
141	141	6
12	12	3
125	162	1
56	159	3
17	18	3
152	152	1
111	112	4
96	97	3
26	26	5
66	69	1
104	104	4
10	11	4
42	53	1
88	88	6
89	128	2
14	17	1
76	81	2
37	43	1
151	154	2
73	73	3
73	155	2
142	142	3
49	49	4
4	4	5
37	37	5
71	163	1
2	2	3
38	54	2
81	81	2
68	68	4
7	16	6
144	144	5
148	164	2
155	155	3
88	123	3
20	23	2
84	147	6
71	162	4
102	102	4
133	133	5
99	102	2
137	139	2
72	73	1
36	37	3
108	138	1
35	43	1
160	160	2
131	132	1
107	166	1
6	7	3
122	122	3
33	33	3
48	48	1
94	97	1
77	80	2
75	80	5
74	153	3
4	5	3
37	69	2
115	116	1
67	68	1
162	163	1
49	50	2
141	164	2
97	104	1
79	80	3
53	157	1
79	152	1
162	162	6
50	57	1
146	148	1
97	99	3
39	39	1
9	12	3
157	160	2
71	72	2
8	18	2
88	164	2
126	163	1
74	157	1
82	152	3
84	84	1
46	47	4
156	157	2
94	94	1
10	71	1
139	165	2
119	135	1
166	167	1
76	77	1
147	147	4
91	117	2
64	64	1
3	4	1
91	94	1
1	20	1
64	72	1
125	126	1
112	139	1
127	128	1
13	14	1
11	16	2
158	163	1
76	79	2
86	161	1
15	53	1
16	139	1
113	114	1
88	149	1
33	34	1
57	57	1
11	12	1
4	10	1
25	25	1
78	79	1
10	16	1
34	35	1
125	163	1
121	126	1
