180	180	8
12	17	1
86	86	6
213	246	2
30	35	1
205	223	3
158	160	2
205	220	2
89	89	11
191	203	1
200	200	5
215	215	8
110	110	5
77	181	2
198	200	1
217	219	8
10	11	1
159	164	4
106	107	2
14	17	3
190	190	8
4	4	5
7	7	9
192	202	4
72	72	10
81	211	1
237	238	2
7	8	5
184	190	3
36	36	3
162	162	4
242	243	3
48	48	10
170	171	2
55	55	6
66	79	3
68	68	1
214	247	4
64	64	1
185	185	6
54	54	3
211	211	7
19	19	4
116	116	7
104	104	4
160	160	6
239	241	7
9	65	2
91	92	3
106	106	6
95	97	9
217	217	8
88	88	8
34	54	1
188	188	2
191	201	3
3	3	12
48	50	5
46	46	4
232	232	3
166	166	11
205	205	4
80	211	2
248	248	6
7	19	3
26	26	2
68	209	2
100	100	9
167	167	8
87	88	6
191	194	3
39	39	8
214	214	4
102	108	4
29	29	2
223	223	5
68	70	3
183	186	2
101	101	3
24	24	4
186	186	7
4	112	6
204	204	6
93	94	5
33	33	9
220	220	5
94	94	2
237	237	8
30	30	10
109	109	1
153	154	1
236	241	1
242	242	3
98	98	2
96	96	8
157	157	4
107	107	18
118	118	8
166	167	1
185	219	3
70	77	2
195	195	2
195	212	1
244	245	3
62	63	4
227	227	9
189	189	17
194	224	5
175	175	16
202	202	6
80	118	8
22	22	13
192	193	3
180	193	1
225	225	10
236	237	3
39	40	2
227	241	5
20	20	2
32	44	1
57	171	1
14	92	2
176	176	6
145	145	8
173	173	8
92	92	2
159	162	2
52	52	4
60	61	2
199	199	4
171	171	4
21	38	2
23	23	4
204	232	3
196	196	1
6	6	3
40	40	5
168	168	2
9	29	4
198	198	7
11	11	9
79	118	4
78	80	4
231	231	5
10	10	6
5	50	5
47	47	3
102	102	3
12	54	4
18	18	4
14	91	9
27	27	6
189	192	1
115	115	4
19	49	4
101	104	4
44	235	7
57	57	6
85	85	5
33	116	1
244	246	4
9	9	6
145	154	2
29	46	3
21	21	4
91	91	2
170	170	11
169	169	3
163	223	3
56	56	4
117	210	1
227	247	1
216	219	3
16	16	5
58	173	1
49	49	2
236	240	4
186	190	2
105	105	4
112	112	4
191	192	2
15	15	5
218	218	5
9	10	3
193	194	1
19	115	1
152	152	5
26	27	3
157	160	3
66	149	4
197	197	6
16	22	1
226	229	6
119	119	13
25	25	4
33	34	3
216	216	4
96	98	1
246	246	4
66	208	2
159	167	3
1	50	1
245	245	7
168	169	4
173	210	3
81	220	5
183	183	7
77	119	4
151	183	5
208	209	4
244	244	9
227	246	1
207	224	1
187	192	1
206	206	10
69	178	3
31	34	2
211	220	5
17	91	4
179	179	7
15	49	1
41	41	3
95	96	6
232	233	2
83	83	2
172	172	5
178	182	4
4	50	5
6	36	1
154	154	2
203	203	3
218	248	1
119	206	2
17	19	4
6	112	3
150	150	7
14	14	1
189	190	5
158	158	1
83	226	1
61	172	1
57	172	2
119	177	1
236	236	3
70	70	1
190	219	1
221	222	3
32	32	4
71	71	5
31	44	1
15	17	2
44	45	2
90	90	4
46	151	1
77	179	3
230	231	5
62	62	1
75	75	6
20	34	1
209	212	1
95	98	1
67	117	1
22	52	8
36	114	1
38	38	2
194	194	2
153	153	4
225	226	2
216	218	3
195	248	3
58	61	3
235	240	2
3	29	1
207	207	5
51	51	6
153	177	1
1	54	2
66	66	4
4	5	1
156	156	3
70	206	1
30	68	2
179	183	3
179	181	2
240	241	3
63	63	1
32	42	3
42	42	7
49	115	1
240	246	2
82	82	2
28	28	6
92	94	3
237	239	1
61	61	3
80	80	3
236	246	1
187	191	2
60	174	1
207	211	1
222	223	3
184	185	3
20	35	1
72	158	1
65	65	2
219	219	3
10	32	1
12	35	1
53	53	1
103	103	1
31	67	2
57	64	3
152	177	1
13	16	2
178	179	1
213	214	1
163	163	1
57	61	1
73	74	2
47	53	1
146	146	3
233	233	6
228	230	3
11	31	5
99	99	1
164	165	1
61	62	1
56	60	1
7	37	1
33	67	4
3	41	1
56	61	3
240	240	2
226	236	1
97	97	1
226	228	1
192	203	2
17	18	1
236	239	2
18	20	1
46	179	1
54	55	3
81	82	1
187	187	2
63	86	2
73	73	5
45	116	2
200	224	1
247	247	2
164	164	1
211	212	1
70	178	1
205	206	1
120	152	3
212	212	2
192	192	2
95	95	4
13	13	1
243	243	2
8	8	1
160	224	2
197	198	1
187	203	1
151	151	3
57	65	1
237	242	2
195	211	1
72	73	2
162	163	4
152	176	1
146	147	1
22	40	3
87	89	1
64	65	2
9	90	1
17	17	2
226	226	1
159	159	1
20	115	2
241	242	2
110	145	2
187	189	2
19	47	4
111	111	2
16	40	2
210	211	2
8	56	1
76	76	2
214	244	2
229	229	1
35	35	1
45	45	1
56	171	1
8	58	1
14	34	1
88	89	1
12	50	1
180	181	1
204	224	2
79	210	1
58	171	1
80	206	1
47	48	1
209	211	1
182	183	1
60	67	1
117	117	1
66	117	1
74	74	1
77	77	1
213	248	2
22	23	3
55	56	1
74	75	2
2	3	1
30	45	1
11	55	1
37	115	2
165	165	1
147	147	1
118	176	1
2	54	1
238	238	1
21	51	1
62	85	1
37	37	1
96	101	1
108	108	1
216	217	2
161	161	1
207	220	1
59	59	1
184	184	1
238	239	1
14	50	1
38	52	1
45	175	1
51	52	1
49	50	1
223	233	1
228	228	1
