65	65	17
33	34	1
37	84	4
73	74	5
16	17	1
33	33	14
87	87	3
78	78	4
107	108	5
18	18	12
109	109	9
11	11	10
124	124	13
38	39	8
85	85	8
101	102	3
8	8	9
32	35	5
27	27	4
118	118	7
43	43	6
21	34	3
35	35	7
102	102	11
92	116	1
4	4	2
7	7	3
83	118	5
50	50	1
84	84	14
63	63	15
97	98	3
74	75	3
71	71	17
18	37	1
45	45	14
17	18	6
75	76	3
14	14	11
42	42	1
19	20	4
68	111	3
62	62	8
90	90	2
3	3	6
68	68	4
6	6	4
91	92	3
125	126	5
57	114	2
8	9	2
85	86	5
80	80	6
20	20	4
1	1	19
130	131	2
64	64	2
74	112	3
45	79	2
30	31	2
72	72	2
22	23	11
21	21	10
124	126	2
82	85	5
10	10	3
111	111	10
23	23	3
76	76	5
17	39	3
125	128	3
86	86	1
19	19	13
112	112	3
113	113	7
22	22	4
110	111	1
84	85	3
59	63	6
116	116	3
77	95	3
50	106	4
95	95	2
55	104	1
69	69	2
2	2	2
12	12	9
24	24	5
43	44	8
36	36	7
115	115	2
82	82	6
83	131	6
73	73	6
17	17	5
46	46	4
91	91	1
130	133	4
121	121	3
19	21	1
15	15	8
36	82	2
9	10	4
76	77	1
14	76	4
55	55	3
77	77	2
76	93	3
79	79	6
94	117	2
57	111	1
83	84	4
122	123	1
103	103	10
126	126	6
25	25	8
30	30	12
56	56	1
92	93	2
7	10	1
131	131	2
57	59	1
107	124	1
105	105	4
31	31	3
100	100	1
56	110	5
95	96	5
90	122	2
65	71	1
61	62	1
106	107	3
16	16	4
58	58	8
107	107	3
86	88	2
119	122	2
83	83	7
98	98	3
66	67	7
9	9	8
39	39	2
94	95	1
74	74	2
132	133	2
0	0	4
57	58	2
67	67	7
6	7	2
117	117	11
57	118	7
57	57	6
66	66	7
21	23	1
64	72	2
8	27	2
5	5	6
41	41	2
81	81	4
75	94	2
32	33	2
47	47	7
93	111	2
60	60	6
44	45	1
91	93	4
59	59	3
3	26	6
0	1	1
123	125	1
6	25	1
8	29	2
128	128	2
44	46	1
78	95	2
108	108	3
90	114	1
11	107	1
104	104	1
31	86	2
7	27	2
34	35	1
3	45	1
123	123	4
4	23	2
68	69	2
38	38	2
90	108	1
119	133	2
79	80	6
134	134	2
83	129	4
120	132	2
102	111	1
49	106	1
57	76	3
64	65	2
49	51	1
61	61	7
102	103	1
92	92	3
101	101	1
31	32	3
43	45	1
12	27	1
104	109	1
96	98	3
34	34	3
72	118	1
8	10	1
119	119	4
96	99	1
60	127	1
120	121	1
107	109	1
63	71	2
35	37	3
83	86	2
26	27	2
26	26	5
105	109	2
129	129	1
93	93	2
103	104	1
80	81	2
44	44	1
130	130	2
3	4	1
56	96	1
60	126	1
35	39	1
129	130	4
130	132	1
13	134	1
20	21	1
36	37	1
75	75	1
14	15	1
69	70	1
37	37	2
63	64	1
73	94	2
96	97	1
114	114	1
56	71	2
35	41	1
108	109	1
5	26	1
1	2	2
28	28	1
40	40	1
98	111	1
32	32	1
34	43	1
