99	99	7
41	41	7
16	16	6
107	107	21
155	155	13
124	124	12
148	148	14
32	178	2
51	51	8
84	84	8
125	126	3
137	179	2
31	31	7
124	126	1
22	22	3
45	45	7
61	61	4
39	39	11
70	70	2
85	86	6
110	111	3
138	138	17
64	64	23
28	28	7
170	170	14
130	131	7
35	36	1
32	33	8
136	163	2
17	19	2
178	178	5
176	176	10
132	146	2
105	105	2
28	39	1
66	67	11
172	172	10
16	70	2
139	140	4
112	112	9
11	12	1
27	27	12
26	26	7
11	11	11
153	153	12
68	68	9
163	163	4
79	79	23
126	126	14
2	2	8
17	17	6
135	135	9
125	125	8
133	133	16
113	114	2
32	32	4
158	158	7
139	139	6
144	144	10
59	59	4
80	80	12
72	72	7
134	134	7
50	50	6
108	108	9
142	142	3
54	54	5
147	147	9
115	116	1
14	14	14
43	43	11
173	175	2
101	173	1
174	174	8
168	168	6
145	146	2
92	92	7
87	87	10
97	129	2
130	130	19
14	17	6
131	131	15
66	66	7
56	61	2
35	35	11
82	98	3
16	46	3
160	161	6
102	102	13
96	97	1
172	173	3
92	93	2
120	120	7
102	103	4
82	147	2
16	17	2
81	127	3
96	96	7
137	140	1
136	136	3
90	90	17
129	150	3
78	79	3
15	16	3
63	63	10
74	74	10
173	173	5
116	154	2
167	168	7
88	142	2
88	91	3
151	155	2
171	180	1
3	3	2
21	21	5
55	55	16
56	150	2
152	152	5
87	90	3
73	73	6
14	33	2
149	149	3
28	29	2
26	43	1
26	27	6
51	57	2
2	49	1
83	83	6
94	94	5
10	10	6
60	60	7
75	75	9
52	53	3
71	71	12
85	85	1
122	122	7
169	169	2
18	53	5
75	150	2
137	137	11
67	143	2
65	66	3
140	140	9
134	136	2
123	123	8
7	8	1
71	74	2
57	79	1
44	44	5
124	125	3
9	9	8
82	95	2
54	64	2
1	5	1
132	133	3
100	100	9
31	32	5
156	156	6
5	6	7
154	160	1
166	166	2
146	146	7
67	67	11
129	129	7
29	29	7
128	128	6
58	59	2
149	150	4
88	88	6
143	143	5
141	141	11
132	132	4
135	137	2
82	82	5
68	132	1
15	15	9
101	101	9
125	127	3
34	34	8
161	161	5
79	80	3
157	157	7
87	102	1
98	98	5
109	109	11
1	1	3
7	22	2
37	37	10
38	38	6
65	65	12
24	25	2
177	177	4
33	33	5
30	30	7
62	63	1
56	56	3
81	81	13
103	103	11
52	85	1
116	116	13
37	38	1
159	162	1
114	114	6
64	65	2
36	36	9
133	134	5
117	143	2
53	53	11
21	22	3
151	152	3
12	12	4
52	52	11
99	125	3
0	0	5
158	171	1
30	31	4
12	13	3
117	119	3
25	61	1
106	106	4
11	20	5
65	79	1
120	121	1
77	77	12
91	92	5
60	64	1
65	99	1
8	8	8
151	151	14
121	121	8
6	6	8
80	81	1
26	28	1
40	42	1
119	119	5
72	73	3
176	177	4
81	84	1
78	78	12
158	159	5
168	169	2
97	97	7
110	110	3
4	4	7
86	156	3
45	46	3
173	174	5
127	127	10
145	145	4
104	105	3
169	172	2
71	132	3
20	20	4
95	95	2
53	55	2
57	57	5
102	104	1
159	159	3
64	74	1
157	158	1
54	96	5
174	176	8
159	160	4
42	42	2
129	130	1
36	37	4
33	36	3
170	171	1
123	124	4
164	164	8
93	93	5
90	127	2
76	80	3
64	81	1
111	111	8
9	11	5
68	70	1
89	89	2
117	117	5
56	57	5
128	129	5
77	78	4
8	21	1
27	28	3
107	112	3
138	139	2
62	62	6
8	9	2
118	161	2
163	167	1
131	132	2
53	54	4
67	68	2
160	160	4
101	103	1
115	153	3
123	125	1
135	136	4
103	105	1
63	65	1
63	64	3
13	41	1
88	154	2
2	3	3
101	114	1
23	23	6
55	57	1
116	118	1
179	179	2
142	143	3
65	120	3
35	44	2
171	171	5
90	107	1
143	144	1
12	45	1
132	134	1
109	173	4
109	110	3
76	76	5
58	127	1
167	167	2
115	122	2
41	50	1
81	82	1
161	162	1
5	5	4
34	35	2
8	19	2
118	119	1
144	145	4
180	180	6
168	170	1
133	137	3
101	108	2
29	30	4
13	38	3
13	37	1
0	1	3
154	154	6
165	166	3
10	11	1
101	102	1
40	40	5
107	108	2
24	24	2
150	150	6
163	166	1
94	143	2
1	2	4
72	138	3
61	62	2
53	59	2
126	127	1
127	129	3
53	89	1
127	128	5
92	159	1
91	127	4
7	7	4
93	94	2
64	76	2
93	96	1
13	13	3
87	88	1
63	174	2
88	89	3
134	135	1
117	118	6
108	110	2
100	101	1
19	19	8
118	118	4
55	96	2
166	167	1
52	55	1
50	52	2
128	131	1
41	42	1
6	36	1
82	99	1
25	40	1
156	161	1
145	167	1
110	119	1
41	58	1
146	157	2
59	151	1
91	91	3
6	11	1
31	50	1
23	38	1
59	128	1
81	83	3
104	104	2
90	93	2
43	49	1
87	91	1
139	169	1
43	45	1
18	18	1
121	123	2
113	115	2
25	25	2
107	141	1
5	44	1
145	158	1
51	54	1
121	122	1
6	7	2
124	146	3
55	95	1
60	61	1
139	141	1
23	41	1
100	154	2
55	56	1
165	165	1
134	164	1
155	156	2
80	172	1
55	103	1
100	155	2
169	170	2
148	150	1
4	7	1
73	75	1
74	117	2
6	29	1
4	13	1
5	37	2
7	50	1
84	92	2
113	113	1
73	76	2
115	115	9
36	44	1
80	98	1
132	152	1
114	115	3
6	21	1
59	106	1
156	167	2
124	127	1
172	174	1
53	121	2
100	130	2
91	93	1
58	58	1
89	90	3
33	35	1
24	26	1
112	114	1
59	102	1
15	24	1
66	88	2
168	173	1
49	49	3
106	107	1
159	161	1
102	119	1
150	151	1
28	34	1
110	122	2
28	44	1
108	109	1
38	39	1
95	97	1
39	40	1
52	54	1
118	133	1
3	4	1
140	142	1
12	39	1
84	170	1
129	148	2
25	26	1
107	172	1
54	55	1
73	74	1
14	16	3
71	73	1
40	41	1
104	121	1
88	146	1
10	14	1
80	166	2
115	151	1
173	176	1
146	147	1
65	67	1
