10	11	1
137	138	3
37	45	2
50	51	1
24	24	3
84	85	8
151	171	4
168	169	6
33	33	2
116	118	2
155	155	3
107	107	10
25	31	1
158	174	1
141	141	7
17	17	3
108	108	2
4	24	2
50	50	1
7	21	3
145	145	3
154	154	3
20	46	7
111	111	5
32	43	2
33	34	4
134	134	6
141	145	1
72	73	2
92	138	1
60	60	2
80	80	6
156	156	3
84	84	3
157	158	4
122	137	2
38	38	5
4	9	4
163	163	1
178	178	6
95	97	3
25	25	3
35	35	10
98	98	2
3	3	3
9	32	1
4	26	3
117	117	4
97	97	1
138	139	1
161	169	1
128	145	5
0	0	6
160	174	2
148	149	7
130	130	3
58	58	8
123	125	4
55	55	10
15	16	4
124	137	3
126	126	8
4	4	9
13	18	3
6	7	10
90	90	5
66	67	5
16	33	3
153	153	3
34	34	2
128	128	1
93	140	5
99	99	4
63	63	5
88	88	7
57	57	2
108	130	2
59	59	7
39	40	4
53	54	2
16	21	3
19	19	3
147	147	2
173	173	3
27	28	5
121	121	5
17	18	5
116	116	7
103	105	2
52	52	6
103	103	3
42	43	5
21	22	1
18	38	2
95	95	7
129	129	2
67	67	1
150	150	4
147	148	3
151	151	6
91	91	11
119	119	17
31	31	3
24	29	3
7	8	4
161	161	2
146	147	3
66	71	3
54	77	4
113	113	2
171	172	1
127	129	2
149	149	4
82	82	4
45	45	2
39	43	2
53	85	2
116	117	3
100	119	2
64	72	2
114	114	9
91	94	6
133	133	2
159	174	5
11	13	3
95	125	2
176	176	7
96	102	4
88	89	3
165	165	6
159	168	4
66	72	1
169	169	5
62	71	3
68	68	2
129	130	1
40	40	1
104	148	1
153	170	1
83	84	3
132	132	8
41	41	9
94	94	4
105	106	3
110	110	5
152	152	3
1	26	6
155	156	4
30	64	1
179	180	4
142	142	3
38	83	1
81	81	3
164	165	1
50	72	2
73	74	2
49	50	3
96	96	4
5	6	3
138	138	2
158	159	4
2	2	2
111	112	3
91	92	2
63	129	1
65	65	2
120	120	3
65	66	1
75	75	3
55	63	1
179	179	2
158	168	1
168	168	3
81	82	2
65	67	2
62	104	4
122	122	5
21	21	2
148	148	3
42	44	3
20	22	1
151	152	4
101	145	1
41	43	3
115	115	1
144	146	1
74	82	2
27	27	2
13	13	2
166	167	4
140	140	2
56	56	6
53	53	2
127	128	1
30	30	3
51	51	1
39	42	1
14	14	8
162	162	1
170	173	1
135	135	3
144	144	2
26	26	2
32	32	2
161	162	2
119	142	1
137	137	7
144	150	1
154	174	3
73	73	9
62	68	1
159	160	1
7	39	1
36	36	4
55	57	3
108	111	1
128	137	3
86	86	3
56	68	3
22	24	1
147	160	2
158	158	3
169	170	2
117	141	2
8	17	1
100	115	3
113	131	2
102	102	4
39	39	2
101	101	4
98	116	1
168	175	1
61	62	1
171	171	2
93	93	1
44	44	2
110	113	3
157	157	2
135	136	2
18	18	3
70	70	2
119	123	3
119	128	1
29	30	1
2	37	4
40	42	1
54	89	1
72	72	4
94	146	1
100	140	3
57	90	1
99	100	3
109	116	2
152	153	2
127	127	4
10	38	1
64	66	1
32	33	3
107	108	1
142	155	2
16	16	1
124	124	1
146	146	2
117	149	2
13	44	1
15	15	3
123	124	1
89	89	1
78	78	1
37	37	2
41	86	1
56	62	3
118	149	1
13	43	2
139	140	1
1	16	2
64	64	1
4	46	1
8	8	4
38	45	1
111	131	2
83	83	1
77	77	3
106	106	3
170	176	2
108	109	4
102	117	1
154	169	2
2	5	1
162	168	1
2	9	1
165	167	2
174	175	1
101	103	1
142	143	1
152	171	1
153	174	1
100	126	2
95	96	1
163	166	1
52	75	2
107	110	1
12	19	2
113	130	1
153	172	1
74	74	1
160	169	1
16	18	1
0	61	1
112	112	1
92	93	1
109	147	1
174	174	2
43	43	1
94	99	1
6	6	1
71	71	1
167	167	2
31	86	2
137	148	1
42	42	1
142	150	1
115	140	2
99	144	1
146	153	1
3	27	1
122	125	1
1	1	1
22	22	2
73	85	2
108	150	1
103	131	1
177	178	1
44	45	1
130	137	1
20	23	1
54	54	2
62	62	1
20	21	1
154	159	1
7	11	1
121	122	1
