116	118	5
121	122	4
123	123	4
150	152	5
113	113	5
48	48	1
3	3	2
4	8	1
82	82	2
11	11	3
89	89	3
161	162	2
180	180	5
5	5	6
119	119	4
5	6	10
4	4	3
156	156	4
78	81	2
70	70	3
34	34	5
143	147	3
129	129	1
63	63	4
22	22	5
103	103	1
68	68	17
100	101	4
23	23	1
80	81	8
46	54	1
148	148	2
98	98	5
78	78	9
155	155	2
85	90	2
26	27	1
51	52	4
93	95	1
148	197	1
150	163	3
78	79	2
31	31	6
141	141	5
118	145	3
163	163	1
83	83	3
79	84	3
116	117	3
70	89	1
126	126	3
38	38	3
159	159	1
130	131	2
27	27	6
1	2	4
101	102	2
113	125	1
120	122	2
98	102	4
28	28	5
183	183	4
145	145	1
54	54	1
75	75	3
4	5	5
173	173	3
72	72	2
8	8	3
34	37	7
185	186	3
134	134	3
106	106	7
15	29	3
56	56	1
143	144	1
174	174	3
180	186	3
15	15	7
149	149	2
197	197	5
135	136	3
39	39	2
40	44	4
17	74	1
103	104	2
12	12	2
49	49	3
167	167	2
59	61	3
24	25	3
117	117	2
119	120	3
6	8	4
64	64	1
32	35	2
3	154	2
165	191	1
181	184	2
121	121	1
30	30	6
73	74	1
149	167	4
115	115	2
84	84	4
155	156	2
177	178	6
187	188	2
154	154	2
159	160	2
60	60	3
93	100	3
15	128	3
50	50	3
61	62	1
79	79	1
175	176	1
11	128	1
152	152	1
133	133	5
159	161	2
185	189	2
69	69	4
107	108	7
171	174	2
105	107	1
25	26	3
158	159	7
37	37	3
121	132	2
42	42	5
124	124	3
1	1	1
108	108	2
104	104	8
101	101	2
120	121	2
132	132	1
66	67	2
14	14	1
15	38	2
178	178	5
141	142	1
180	181	2
176	176	1
36	36	5
112	124	2
157	157	3
176	177	8
54	56	1
136	136	5
0	0	4
141	144	1
108	130	1
17	106	2
20	20	5
118	125	1
27	28	1
191	191	1
171	175	1
158	158	3
45	45	1
67	67	4
114	137	3
140	140	2
172	172	1
35	36	1
170	170	5
32	32	1
80	80	6
60	62	1
152	154	2
160	160	8
58	62	2
97	97	1
124	139	1
40	40	1
110	111	2
20	32	3
23	27	1
131	132	2
164	164	4
144	144	1
111	111	2
16	16	3
57	57	1
10	10	2
125	126	1
122	122	5
112	112	2
187	187	3
53	53	4
131	131	1
122	123	4
1	10	1
95	95	2
138	146	2
137	140	2
118	119	2
45	52	2
15	16	1
94	94	6
36	37	1
47	47	3
186	186	2
127	127	2
55	55	2
161	161	1
53	57	1
160	169	5
85	89	1
161	163	2
52	53	2
7	8	1
7	9	1
23	24	3
115	121	1
189	190	1
20	21	1
143	145	1
120	125	1
64	65	2
127	135	2
41	41	2
116	144	1
123	124	1
54	55	1
88	88	1
19	19	3
155	157	1
51	51	1
76	76	1
126	128	1
10	11	1
30	31	2
166	166	1
80	95	1
151	151	2
70	80	2
89	90	1
125	125	1
65	67	1
139	139	1
113	115	1
87	87	1
186	190	1
2	2	1
96	96	3
165	168	1
86	86	1
118	118	1
138	139	1
168	168	2
61	61	2
96	97	1
81	81	3
185	193	2
83	84	1
181	182	1
104	105	1
42	43	1
62	62	1
126	127	1
98	99	1
73	73	2
46	53	1
22	23	1
61	63	1
183	184	1
49	126	1
90	90	1
103	105	1
196	196	1
4	9	1
76	77	1
189	189	1
34	35	1
13	13	1
193	193	4
153	153	1
182	183	1
148	159	1
17	18	1
128	128	1
139	142	1
77	83	1
194	194	1
99	99	1
29	30	1
195	195	1
188	188	1
