9	10	3
45	45	5
30	33	2
148	148	10
131	131	11
153	153	11
114	115	7
76	76	4
137	137	10
100	100	5
97	98	2
151	152	7
16	89	2
155	155	12
107	107	24
27	27	9
75	75	4
110	111	4
7	8	13
139	140	2
71	71	12
124	158	5
43	141	5
78	78	10
95	95	15
23	24	5
115	115	6
94	94	13
68	68	6
12	15	3
157	157	14
96	112	3
80	80	13
152	152	10
150	150	6
134	134	10
138	138	6
126	126	6
39	39	10
117	117	11
12	12	11
21	22	3
43	43	9
105	128	2
27	28	1
150	151	4
53	62	3
84	84	7
20	21	4
108	108	13
116	116	10
21	81	2
23	23	10
151	151	14
34	35	2
36	36	7
32	32	4
123	123	11
132	133	4
91	91	8
4	5	2
29	29	7
25	26	6
144	144	9
14	14	7
89	89	11
11	11	17
122	122	10
17	18	4
88	89	8
15	34	3
69	69	12
93	118	1
63	63	5
41	42	4
141	141	10
35	122	3
81	81	10
33	33	18
4	4	2
104	104	6
70	70	13
85	85	5
93	124	2
6	7	2
19	19	5
48	48	6
83	83	6
3	4	4
64	65	1
67	70	2
127	127	10
140	140	4
15	17	5
27	29	2
139	139	6
147	148	3
109	109	13
120	120	9
158	158	8
94	115	1
102	132	4
82	85	3
38	40	3
112	112	13
56	56	3
23	39	2
87	89	4
3	3	16
154	154	12
82	82	10
121	121	21
33	79	2
119	122	1
114	114	3
103	103	18
46	46	23
157	159	8
52	52	8
124	125	3
20	43	1
105	106	5
105	105	11
92	92	9
63	153	2
31	31	8
87	87	13
48	49	4
97	97	3
52	136	8
34	157	5
54	54	1
76	77	4
148	155	8
35	121	1
37	86	1
134	136	1
94	96	3
15	15	12
34	34	3
119	121	3
33	34	2
113	125	2
132	132	5
96	128	4
41	41	9
110	110	7
15	89	1
50	51	5
124	146	2
0	1	4
135	137	2
102	104	3
44	44	15
147	147	10
34	40	2
83	84	7
92	144	5
130	130	2
22	22	16
2	2	6
112	126	8
142	142	16
52	109	2
65	65	5
30	30	9
1	37	1
13	14	7
156	156	5
98	135	7
137	138	3
110	112	2
108	145	2
119	119	9
135	135	11
48	81	1
99	100	3
140	141	4
108	112	5
52	53	4
4	9	2
13	13	16
54	68	1
39	40	5
146	147	9
118	118	3
136	136	8
86	86	11
19	34	1
0	0	6
8	8	5
110	117	7
131	138	3
55	55	12
67	67	10
109	112	6
127	128	3
155	156	2
93	93	9
21	21	10
90	90	7
68	69	7
88	90	2
32	141	1
14	20	3
102	102	3
1	1	7
142	155	2
47	47	4
42	42	2
125	125	12
51	53	2
90	144	3
101	101	7
16	16	9
79	98	2
98	137	2
154	157	3
37	96	3
31	46	3
124	124	9
152	153	6
146	146	6
75	77	2
49	49	10
41	43	6
15	16	3
113	114	1
67	68	2
54	71	1
51	51	4
126	127	2
45	46	2
2	3	7
93	94	1
130	131	4
111	127	1
32	33	3
71	102	2
3	97	2
10	16	1
112	116	1
44	47	1
79	79	8
9	9	5
25	25	8
153	154	3
109	113	1
46	50	3
28	28	11
138	140	1
6	6	6
40	97	3
24	24	15
88	88	8
85	89	2
145	145	4
40	40	10
10	10	5
107	116	3
53	84	3
1	39	1
64	64	4
111	112	1
52	69	2
119	123	1
143	143	2
66	66	3
36	94	3
91	146	2
49	52	1
98	98	16
22	33	2
18	37	2
69	130	4
119	120	2
77	77	10
39	42	1
129	129	4
67	85	3
40	43	1
9	19	1
20	20	2
37	37	5
64	71	1
40	41	3
104	132	2
91	144	2
31	33	2
58	71	1
115	126	1
81	82	1
20	34	4
81	85	4
156	157	1
18	18	7
147	149	5
149	149	5
56	136	5
74	74	1
62	62	3
35	38	2
142	159	2
86	92	3
111	149	1
82	83	3
16	17	5
31	32	8
115	116	2
42	47	1
35	36	5
7	13	1
18	120	2
50	130	1
80	81	2
106	140	1
154	155	2
72	72	2
123	124	4
142	145	3
92	116	2
93	115	1
55	56	7
96	97	5
97	112	1
0	2	2
104	105	3
99	99	6
106	106	4
17	17	14
134	135	1
50	69	1
5	5	3
113	113	4
1	2	2
98	138	2
62	63	2
53	53	2
145	147	2
131	148	2
107	108	2
50	50	6
29	30	2
128	128	5
67	154	4
18	19	4
136	137	1
52	82	1
7	7	3
105	133	1
112	115	2
26	26	7
84	85	2
45	137	1
36	96	1
4	41	2
73	148	2
11	12	1
96	96	8
36	37	2
93	95	1
56	67	1
157	158	1
50	67	2
153	158	2
155	157	2
143	158	1
5	11	4
1	102	3
86	90	1
90	91	3
129	155	3
35	35	2
125	126	1
2	5	3
80	97	1
88	122	2
111	111	6
103	104	2
142	156	1
52	134	3
28	29	3
34	97	2
137	141	4
77	79	1
131	135	1
106	107	3
85	98	1
117	118	4
116	141	1
63	152	1
108	109	2
73	149	2
87	88	2
44	45	2
45	50	1
10	11	1
106	129	1
42	43	1
113	115	3
116	126	1
21	35	1
133	133	2
70	71	2
107	115	1
91	92	1
143	145	2
21	83	2
48	98	1
6	16	1
158	159	1
34	96	2
38	38	2
85	86	1
0	41	1
20	24	2
121	122	1
152	155	1
110	147	1
129	130	2
37	79	2
132	137	1
33	141	1
12	13	2
56	57	1
88	121	1
114	116	2
118	122	1
140	149	1
97	107	2
80	111	1
10	15	1
125	127	1
141	145	1
34	37	1
95	115	2
151	155	1
128	129	1
112	117	1
83	85	1
96	127	1
82	84	2
29	97	1
8	10	1
72	73	1
32	97	2
73	101	1
135	149	1
74	149	1
47	48	1
94	122	1
20	23	2
8	9	1
70	129	1
17	36	1
152	154	1
89	121	1
118	120	1
118	119	1
85	90	1
152	156	1
11	18	1
