56	56	7
46	49	1
9	9	6
61	61	22
28	33	1
50	67	4
72	72	7
57	57	3
19	41	7
42	42	3
7	79	3
69	70	2
16	17	3
46	46	5
19	19	8
32	33	8
3	8	2
49	50	5
26	26	15
21	21	1
16	16	12
60	60	9
4	4	17
64	64	7
28	28	9
55	56	3
31	31	9
37	37	10
8	8	14
33	33	6
7	7	12
49	49	5
27	27	8
57	58	3
59	59	6
5	6	9
8	11	1
40	40	17
75	75	10
58	58	14
32	32	8
14	14	2
62	62	5
28	29	2
73	74	5
54	54	5
55	55	22
0	0	4
45	46	1
6	10	6
30	30	5
65	65	9
1	39	5
31	32	10
62	63	8
31	34	4
35	48	8
63	63	12
79	79	12
78	78	16
38	38	5
44	44	3
53	66	3
2	9	4
15	15	4
43	43	5
14	69	3
77	78	6
74	74	16
30	75	1
73	73	19
18	18	16
58	59	5
48	48	10
13	21	3
39	39	8
51	53	2
69	69	5
46	47	5
76	76	5
5	5	12
27	45	2
66	67	8
20	20	2
51	51	9
29	29	11
65	70	1
2	2	3
9	71	1
55	65	1
7	17	11
11	11	11
2	40	4
17	17	7
56	57	3
33	34	1
15	69	1
36	36	4
36	41	2
44	45	5
12	12	6
29	30	3
13	13	3
80	80	14
54	65	1
67	70	6
29	73	1
47	47	5
3	3	13
1	63	4
68	68	9
38	55	7
17	25	1
29	62	1
7	8	3
67	67	3
9	12	1
10	21	1
37	45	5
50	51	3
39	50	1
45	45	3
35	35	5
26	55	1
29	32	1
52	52	6
1	76	1
13	14	2
41	41	6
49	71	1
1	73	1
26	40	2
57	63	2
66	66	5
7	41	3
76	77	1
53	53	3
10	10	2
47	65	2
57	65	2
10	12	3
37	38	1
1	2	3
2	57	1
26	73	2
9	11	2
74	76	3
66	70	2
52	67	1
4	42	4
29	31	1
53	54	2
70	70	3
14	22	1
41	42	2
59	60	1
53	70	1
0	38	2
6	7	2
46	62	2
32	35	1
3	4	1
57	73	1
67	68	1
78	79	3
50	71	1
2	41	1
10	11	1
22	22	1
71	71	2
1	62	1
2	7	3
2	65	1
12	13	2
49	64	1
9	10	1
6	78	1
30	55	2
6	6	1
25	39	1
1	1	2
5	17	1
2	10	1
2	71	1
50	50	1
1	41	1
63	64	1
19	20	2
77	77	1
30	31	1
48	49	1
49	72	1
27	28	1
30	49	1
