71	76	3
171	171	5
14	14	13
152	152	6
74	74	13
88	89	3
44	45	5
42	43	5
135	159	3
81	110	3
111	112	5
52	114	7
44	111	2
133	133	10
67	67	6
96	117	4
122	127	1
140	143	2
148	149	2
64	65	3
26	26	1
31	31	9
11	12	6
30	30	6
148	148	11
87	94	2
44	44	4
137	137	11
90	90	18
19	23	1
126	127	5
37	39	2
174	174	5
141	143	2
149	149	6
157	157	7
63	64	5
11	11	3
122	122	8
164	164	7
151	152	5
62	124	4
29	29	7
1	13	1
123	125	4
1	1	6
158	159	2
86	88	7
25	25	8
167	169	4
34	35	4
130	130	4
3	4	7
137	138	6
167	168	4
87	87	9
95	95	5
16	16	2
173	173	6
78	78	6
58	58	5
38	39	3
176	176	10
76	143	4
164	171	1
38	38	3
87	108	4
37	37	3
18	24	2
134	135	1
126	126	12
89	90	3
121	121	25
98	100	4
179	179	8
21	22	4
49	143	1
132	132	15
88	88	12
66	66	10
139	139	15
125	126	3
114	114	13
123	123	3
177	178	2
103	106	5
90	92	8
68	68	7
18	29	1
80	80	9
19	19	3
134	179	1
131	133	1
125	125	5
51	51	2
91	93	2
98	98	6
178	178	10
56	57	7
54	54	7
131	131	5
11	39	2
140	140	6
114	115	2
43	112	1
13	13	3
89	89	9
53	54	4
91	91	14
86	110	3
100	100	8
110	111	4
94	94	5
4	15	5
65	65	5
112	147	4
135	160	3
120	135	4
84	89	2
115	115	6
164	167	3
156	156	3
164	170	2
146	146	5
160	160	4
59	61	3
120	120	5
10	39	2
83	83	6
92	94	1
158	158	2
165	165	2
180	180	5
34	34	2
144	144	3
138	138	10
115	117	2
81	81	3
79	79	6
9	33	5
55	107	2
174	180	4
71	147	2
145	145	7
136	143	1
162	163	2
63	65	1
4	5	3
71	71	11
27	28	2
55	56	3
99	117	3
12	12	2
57	174	2
43	43	5
159	161	1
0	0	5
163	164	1
139	148	4
23	23	8
77	77	6
63	63	5
134	134	12
75	75	10
42	57	3
25	26	3
76	76	5
18	19	3
19	20	2
149	150	4
157	160	2
20	21	2
80	81	7
64	64	2
32	33	3
121	122	3
1	7	1
110	110	4
83	85	1
65	128	2
154	159	2
9	10	3
56	56	8
124	125	1
77	78	3
98	99	3
172	173	3
113	113	5
92	92	5
90	125	3
67	68	4
114	138	1
17	17	3
165	167	3
82	82	1
136	141	1
30	31	3
41	62	1
32	32	7
2	2	5
61	140	1
6	8	2
2	4	3
88	104	4
118	119	1
151	151	3
84	86	6
53	53	2
36	37	4
131	132	3
73	73	5
143	145	4
67	71	2
85	85	1
36	36	2
12	83	1
100	113	6
159	162	5
60	87	1
51	52	1
42	42	4
154	154	9
117	118	1
22	23	3
94	95	3
161	162	3
99	100	1
122	125	2
50	103	1
35	37	1
111	111	5
120	121	3
97	121	2
22	24	4
140	141	2
127	127	1
19	21	2
119	120	3
83	84	3
106	106	9
18	30	2
11	14	1
127	131	1
155	155	3
61	61	2
7	8	1
150	150	4
67	147	1
170	177	1
141	144	3
132	133	3
46	46	5
41	41	5
37	38	3
81	82	3
159	159	7
90	91	3
1	5	7
10	10	5
152	160	2
172	172	2
20	20	1
113	153	1
72	72	5
167	170	2
50	148	1
90	149	2
54	55	2
158	161	3
60	62	1
153	153	3
109	109	1
101	112	2
15	15	2
156	157	2
46	135	4
93	93	6
138	139	2
165	166	4
152	157	1
58	59	2
2	3	2
3	3	6
129	129	5
151	154	3
70	77	3
52	116	2
161	161	1
5	5	7
148	157	1
147	148	2
6	37	1
116	116	5
103	109	1
59	59	2
85	88	2
73	75	2
81	111	1
45	46	3
139	140	10
97	97	4
118	135	4
12	39	3
136	151	1
112	113	1
75	79	2
147	147	2
90	150	3
142	142	2
178	179	1
45	45	2
175	175	3
15	108	1
40	172	1
107	107	2
57	58	1
60	60	2
57	117	2
103	103	2
104	108	1
24	28	3
176	177	4
3	14	1
141	142	1
33	33	2
13	14	2
74	76	1
107	108	1
9	15	1
152	155	1
96	96	5
76	78	1
20	26	1
107	109	3
39	171	1
58	142	2
139	149	1
55	59	2
164	165	2
170	170	1
58	93	1
162	162	3
96	122	1
177	177	1
91	99	1
123	124	3
62	62	2
168	169	1
117	117	2
85	89	1
126	171	4
127	128	1
141	146	2
158	160	2
39	170	4
105	105	1
131	174	3
102	102	5
40	40	1
80	148	1
24	24	1
161	166	1
45	151	1
153	159	1
142	143	3
62	63	2
27	27	1
51	53	1
122	167	2
119	121	2
2	13	1
167	167	1
61	70	2
101	153	2
52	117	1
85	86	2
155	156	2
91	149	2
119	119	2
15	32	1
73	146	1
99	99	1
10	85	1
168	168	3
43	58	1
102	108	1
106	107	3
55	55	2
124	124	3
144	145	3
53	115	2
136	142	1
57	57	3
115	153	1
71	101	2
170	173	2
103	105	3
140	145	1
160	162	2
106	109	1
65	68	1
128	128	2
143	144	1
89	94	1
79	82	2
151	153	1
118	118	2
108	111	3
112	156	1
45	159	4
91	150	1
122	163	1
35	36	1
19	96	1
175	179	1
35	35	3
92	150	1
0	2	1
70	70	1
68	71	1
106	108	1
166	166	3
108	109	2
27	29	1
85	110	1
52	135	1
126	168	1
4	4	1
65	66	1
136	136	2
153	160	1
80	85	1
72	78	1
93	149	1
91	138	1
50	51	1
4	9	1
79	81	1
50	50	3
21	21	2
108	108	2
87	88	1
86	89	1
120	141	1
102	103	1
150	158	1
92	93	1
104	104	2
24	31	1
143	146	1
72	75	1
61	62	1
1	6	1
141	145	1
33	35	1
136	147	1
99	113	1
8	11	1
86	87	1
17	33	1
87	93	1
44	150	1
112	112	1
15	107	1
113	115	1
114	139	1
74	144	1
112	154	1
