98	98	12
3	34	4
125	126	2
80	84	4
147	148	3
37	37	15
41	41	8
38	38	8
96	120	3
3	3	15
43	43	7
23	29	4
129	129	14
92	92	13
80	88	1
95	95	8
44	44	13
113	113	7
133	133	6
11	11	6
8	11	3
13	13	8
129	130	3
0	106	8
103	103	10
127	127	10
133	135	1
88	114	1
31	31	7
77	77	4
137	137	8
100	100	5
156	156	5
88	88	7
97	97	7
106	106	7
146	158	7
78	98	2
145	146	5
80	80	5
27	27	7
13	14	12
105	106	3
56	106	2
120	154	1
89	89	13
88	90	7
39	39	10
23	23	5
45	45	10
47	47	9
103	104	3
3	32	3
88	89	2
33	85	8
140	140	6
36	39	3
79	79	8
18	18	8
92	94	8
151	152	6
90	90	12
153	154	5
93	105	2
8	36	8
56	56	5
90	136	1
50	53	5
68	68	5
82	82	5
24	69	4
13	17	1
11	12	3
67	67	5
20	102	1
19	85	1
26	26	7
22	22	3
142	146	1
35	35	6
18	20	1
81	96	1
114	114	8
72	73	3
2	2	2
101	101	10
67	70	3
148	148	7
142	142	2
131	131	2
105	105	1
42	68	2
124	124	7
34	34	8
21	64	1
24	128	3
112	122	5
66	70	2
53	53	5
78	81	1
42	46	2
151	153	2
102	102	5
116	121	2
54	54	7
141	141	5
36	36	9
85	86	3
25	29	1
92	93	3
33	34	2
104	104	15
26	27	1
154	155	3
145	158	2
2	29	1
90	121	1
110	110	4
83	87	3
142	145	6
70	71	3
8	9	2
31	43	2
77	117	3
96	96	7
10	10	2
129	150	2
51	54	3
1	1	7
21	21	7
98	99	2
117	117	4
55	55	10
7	8	5
154	154	2
128	128	6
8	8	7
91	91	4
20	85	3
6	6	5
70	70	7
107	108	2
48	49	2
80	117	3
71	71	8
91	122	3
16	32	3
93	97	2
10	47	2
69	91	2
31	34	2
131	136	3
25	27	3
19	19	9
90	96	1
41	42	3
155	155	10
121	122	3
16	18	2
50	108	4
89	128	1
6	33	3
79	82	4
143	157	3
99	138	1
81	82	2
17	52	4
67	71	1
32	32	4
113	138	2
146	146	2
75	101	3
136	136	1
129	139	3
120	156	3
153	153	1
111	112	3
21	65	1
99	99	4
90	118	4
108	110	5
107	107	4
15	54	3
110	116	2
82	97	4
30	30	6
136	137	5
36	68	1
145	148	7
3	13	1
158	158	6
113	115	2
80	126	1
42	45	2
2	21	1
0	3	5
73	73	11
11	34	1
111	125	1
141	142	1
69	70	3
14	34	2
125	128	2
133	134	2
120	120	9
90	92	4
128	149	1
111	111	7
123	123	4
39	68	4
128	152	1
55	56	6
132	135	5
90	91	2
8	10	3
121	121	9
23	28	2
19	20	2
5	5	6
129	157	2
119	119	7
103	105	5
32	47	4
132	137	6
93	93	5
125	125	1
46	46	4
94	94	7
75	75	1
138	149	2
79	81	1
15	15	1
48	48	6
50	50	6
3	40	1
122	123	1
88	113	2
143	143	2
129	152	1
134	134	2
83	85	1
91	114	1
20	21	4
50	110	3
108	108	7
26	105	1
100	138	2
117	124	2
111	122	4
25	26	2
132	132	1
78	79	1
28	84	1
117	119	2
124	125	3
149	150	2
136	153	4
109	109	3
122	122	5
147	147	4
17	17	5
135	135	8
2	30	1
91	123	3
34	42	1
36	41	1
85	85	16
3	42	1
12	32	3
23	24	1
54	78	1
139	139	5
129	138	1
79	92	2
144	144	5
15	50	2
121	137	1
118	119	3
128	138	4
65	65	3
1	47	3
16	35	1
12	18	1
52	52	5
152	153	1
16	16	1
83	83	2
18	30	1
7	7	1
135	137	3
51	52	2
36	67	4
82	92	2
98	107	1
112	113	1
96	121	1
63	63	3
150	151	3
40	40	5
0	4	3
145	145	6
36	43	1
67	68	5
146	147	4
64	108	2
21	22	7
112	112	5
42	42	1
123	126	1
55	107	2
118	149	2
24	29	2
82	87	1
28	129	2
137	142	1
14	15	2
111	116	2
20	23	2
29	29	6
86	87	2
75	100	1
87	87	2
15	16	2
18	22	2
86	86	1
126	126	2
62	62	2
140	141	4
13	16	2
16	38	1
17	63	2
90	114	1
7	47	2
12	12	1
92	107	1
55	157	2
96	155	1
156	157	1
37	38	3
1	3	1
35	68	1
56	157	2
56	57	2
72	129	1
61	61	2
138	138	3
88	126	1
111	113	1
54	108	3
78	78	3
110	111	2
13	35	1
49	49	3
81	81	1
15	108	1
93	103	1
100	101	1
87	109	2
131	132	1
51	51	1
51	53	3
115	115	4
1	2	1
0	2	1
36	37	4
64	64	1
76	98	1
120	155	2
77	80	1
130	130	1
142	144	2
107	140	2
129	148	2
17	49	1
33	33	2
25	25	4
45	68	3
131	135	1
45	46	1
0	0	4
91	121	1
89	135	1
119	122	2
83	86	1
15	85	1
50	141	2
28	29	1
13	56	1
117	150	1
68	69	2
86	109	1
118	118	3
3	44	1
128	139	1
147	156	1
86	108	1
84	124	1
32	144	2
1	45	1
33	49	1
89	114	1
18	55	3
0	102	1
18	21	1
157	157	1
119	120	3
141	145	1
149	149	2
109	111	1
128	129	1
81	109	1
11	13	1
22	26	1
142	152	2
126	127	4
88	92	2
151	151	2
20	56	2
24	28	1
50	105	1
106	107	2
113	114	1
115	117	4
14	14	1
62	71	1
149	151	1
78	106	1
114	150	1
88	128	1
96	97	2
144	145	1
130	139	1
76	101	1
3	11	1
19	144	1
87	110	1
111	124	1
22	102	1
64	98	1
91	137	1
23	44	1
116	138	1
52	53	1
41	56	1
32	35	1
52	54	1
134	141	1
92	97	1
157	158	1
85	110	1
22	64	1
19	51	1
7	10	1
150	150	1
38	39	1
64	65	1
154	158	1
