133	133	7
94	94	14
40	56	1
120	120	14
82	82	31
3	5	6
39	40	4
103	110	2
95	95	20
48	48	8
50	52	2
46	67	5
70	101	6
38	46	4
26	26	19
28	28	8
77	80	4
118	128	4
112	112	20
25	44	1
1	3	10
126	130	5
103	103	12
109	127	3
80	81	4
41	41	7
22	24	2
55	55	12
76	76	10
11	12	3
67	69	3
61	65	3
104	105	9
46	46	7
129	129	14
27	27	6
81	82	5
100	101	5
13	13	6
119	119	14
109	109	10
16	16	9
111	111	16
17	17	5
98	98	12
124	125	5
132	132	6
76	79	3
57	57	9
90	101	1
74	74	12
125	125	17
50	51	4
12	12	13
108	108	9
107	111	1
99	99	17
4	4	13
78	78	17
103	130	3
126	126	2
60	62	4
44	44	9
102	102	12
98	118	4
90	90	7
3	9	2
113	132	5
8	12	4
105	106	7
56	57	2
11	11	11
119	124	4
130	130	15
78	79	13
5	5	19
120	130	1
50	50	13
46	48	6
57	60	2
84	84	8
32	53	2
47	47	9
63	67	3
110	110	10
61	61	13
20	21	2
66	66	5
104	104	20
128	129	6
40	40	5
1	2	4
83	98	5
117	122	2
101	101	11
81	81	12
13	14	2
76	77	3
58	58	5
100	103	2
101	102	6
21	21	6
96	96	5
113	126	1
10	10	7
44	56	2
27	29	1
62	62	13
71	75	3
32	48	3
83	83	2
52	52	7
28	30	5
18	24	2
75	75	9
89	89	10
63	71	1
84	88	3
107	108	6
39	39	8
25	26	8
126	128	5
49	53	5
12	24	3
105	105	13
89	93	6
14	14	5
121	121	16
55	58	2
127	128	6
108	118	3
97	97	12
116	116	5
80	91	5
86	115	7
69	72	1
24	24	15
19	19	13
52	53	1
79	80	3
30	30	21
14	52	2
68	70	9
42	42	8
59	59	4
115	115	15
74	80	1
121	122	4
63	63	2
117	119	2
17	22	6
54	54	7
118	120	1
94	100	1
32	34	2
63	65	5
32	32	5
96	97	2
102	130	1
20	24	2
25	28	2
124	124	7
92	92	7
18	19	7
84	85	3
123	124	11
115	125	3
6	29	2
87	87	6
75	77	5
42	44	3
122	122	12
101	111	2
29	29	7
23	29	2
96	113	3
9	20	5
19	31	1
32	43	1
95	111	6
72	72	7
98	99	3
2	2	16
97	98	6
122	123	7
85	86	9
11	15	5
33	33	6
30	31	6
90	99	2
13	23	6
115	117	2
103	104	9
13	70	1
123	125	5
48	53	4
91	102	2
15	16	4
42	43	6
95	96	7
116	117	4
5	7	5
73	74	3
100	116	4
0	0	2
108	109	6
20	20	4
27	31	3
40	41	6
0	1	5
123	123	8
13	47	6
75	87	2
31	31	5
112	113	7
115	127	2
60	61	4
6	6	4
109	110	2
18	18	9
78	80	3
12	15	4
86	86	13
46	66	1
104	120	2
126	127	10
76	81	3
3	3	6
101	105	2
50	56	3
96	109	1
7	15	3
27	28	3
51	51	15
54	58	1
127	129	2
53	53	13
9	22	2
128	132	1
1	13	2
45	45	2
56	56	20
95	108	1
86	90	3
55	68	5
96	119	2
80	93	1
51	65	1
40	42	5
113	115	3
125	126	3
29	30	6
49	50	4
126	133	2
22	25	4
79	79	5
11	19	3
10	14	3
114	115	7
80	80	10
107	107	7
44	50	3
105	116	5
39	44	3
28	44	1
124	131	4
23	23	10
120	124	4
93	94	4
67	70	2
64	64	8
9	23	2
59	71	1
114	114	5
41	55	4
25	25	9
57	63	1
118	119	4
71	71	5
12	13	1
129	132	5
45	50	2
24	25	3
71	100	1
51	52	2
14	47	2
81	93	4
31	48	2
67	67	7
60	60	6
29	33	2
68	74	1
41	52	1
19	27	1
5	20	1
77	77	7
129	130	3
65	72	2
125	127	1
2	5	3
113	113	6
91	91	13
59	61	3
89	99	2
49	51	2
42	45	3
81	87	3
56	78	4
49	49	6
118	127	4
100	100	5
15	19	1
59	67	1
30	34	2
7	7	6
61	62	2
2	16	2
117	131	1
70	70	2
9	9	5
106	106	6
87	92	3
115	130	2
18	46	1
94	96	2
65	65	5
132	133	2
83	106	1
88	101	1
85	85	3
15	79	1
72	133	1
108	113	2
110	117	3
113	121	1
93	93	8
6	15	2
68	68	6
127	127	8
115	116	4
10	15	2
103	111	3
85	88	3
88	89	3
27	32	1
106	118	1
127	132	4
89	90	1
54	56	1
84	98	1
99	100	1
43	46	2
83	86	2
37	37	3
42	49	1
53	65	2
24	26	1
10	24	1
98	101	2
109	111	1
19	20	1
23	44	4
76	90	1
111	112	4
13	22	1
59	60	3
103	105	2
100	110	6
60	89	2
92	93	1
101	103	1
106	109	5
83	84	1
16	79	2
32	52	3
23	25	4
47	74	1
85	97	4
50	54	2
42	121	1
82	103	1
38	38	12
68	111	1
14	26	5
13	24	1
48	49	3
88	88	3
15	15	9
23	24	3
91	101	1
75	88	3
86	96	3
94	95	5
106	120	1
97	100	1
87	88	4
70	71	3
86	87	3
107	110	2
5	14	2
129	133	2
22	22	1
88	91	1
86	93	2
72	74	1
68	71	2
128	131	2
62	71	4
74	77	1
73	73	5
116	125	1
44	55	6
55	66	2
94	111	4
50	59	1
99	109	3
83	103	2
72	73	1
26	30	1
47	48	3
12	20	1
41	53	1
31	47	4
20	25	2
5	17	2
46	54	3
131	131	1
125	128	2
7	8	1
39	65	1
16	25	2
85	94	2
125	132	1
41	43	1
42	54	1
65	110	2
71	79	1
3	4	1
22	27	2
119	121	2
58	59	6
57	66	3
57	109	2
63	69	2
16	86	2
41	51	1
37	39	1
21	33	1
48	68	1
43	55	2
95	97	3
25	33	2
19	28	2
34	34	2
7	18	2
121	124	1
128	130	2
111	113	2
84	93	2
69	69	1
85	96	5
56	73	2
1	1	4
69	73	1
43	44	1
63	64	5
106	107	1
48	51	2
74	79	1
102	111	3
128	133	2
2	54	3
24	28	2
88	90	1
38	69	2
4	5	2
40	55	1
80	82	3
120	126	1
110	111	2
7	21	2
112	124	2
69	71	8
75	78	2
21	30	1
43	43	5
107	118	3
90	91	6
41	49	1
66	69	2
74	75	1
53	54	1
118	121	1
24	46	2
62	75	1
64	65	2
19	77	2
69	80	1
7	9	2
72	75	1
77	83	1
38	40	1
118	131	2
102	103	3
94	98	1
91	96	1
92	100	4
119	126	1
32	38	4
112	119	1
28	32	1
55	69	2
3	7	1
17	18	1
2	40	1
104	132	1
70	78	2
55	67	1
98	120	4
26	27	4
30	32	1
97	99	1
39	47	1
20	22	2
31	46	2
56	69	3
128	128	6
65	66	2
69	70	1
34	38	2
117	117	4
19	24	1
31	32	1
29	31	1
118	118	6
72	82	1
62	65	2
77	78	1
57	100	1
70	88	1
62	110	1
74	82	1
7	11	2
104	106	1
106	116	1
20	29	1
89	91	1
6	7	1
66	67	1
78	83	1
54	61	2
19	48	1
2	48	1
129	131	1
71	72	3
119	130	1
70	73	1
120	127	1
117	118	2
46	68	2
88	100	1
104	109	2
113	114	2
1	7	1
113	117	1
87	91	1
124	130	1
76	84	1
100	107	4
130	133	2
56	68	1
114	121	1
16	23	1
8	8	2
99	107	1
28	43	1
48	71	1
116	121	1
100	112	1
131	133	1
58	61	3
103	128	1
33	34	1
86	91	1
8	9	1
118	125	1
66	68	1
10	11	1
49	54	2
84	86	2
4	8	1
21	24	1
96	117	1
111	116	1
107	115	2
71	101	1
79	81	2
88	92	2
15	78	1
120	125	1
57	67	1
11	14	1
98	119	1
130	131	1
32	33	1
4	13	2
70	74	1
92	102	2
97	126	2
18	21	1
86	97	1
71	74	2
83	97	2
40	51	1
95	102	1
13	20	1
99	101	1
108	112	1
54	60	1
81	91	1
95	106	1
63	66	1
68	78	1
55	60	1
108	121	1
47	67	1
64	110	1
52	66	1
10	23	1
62	73	1
45	49	1
22	23	1
1	5	1
112	125	1
