124	125	4
92	102	1
125	132	2
132	132	19
89	89	15
86	86	6
127	161	4
101	101	10
2	38	2
119	168	4
18	18	9
76	80	2
94	94	23
34	35	4
160	161	7
169	169	8
139	139	12
142	147	3
105	105	3
155	155	12
36	36	7
133	134	6
161	161	13
57	98	2
2	4	5
44	44	11
79	114	1
22	62	8
87	87	23
55	57	5
169	173	5
127	127	4
7	10	3
162	162	7
56	75	3
1	2	6
83	93	3
102	104	4
17	17	15
52	56	1
111	170	1
168	170	3
133	137	7
15	15	15
134	134	10
11	11	16
116	128	3
151	152	5
23	23	10
58	59	1
108	108	14
168	168	13
5	9	4
66	68	4
43	43	9
153	153	9
179	179	6
53	53	10
61	61	9
92	94	2
99	121	3
81	81	10
140	140	4
161	163	7
117	121	1
121	123	5
163	165	1
124	124	8
110	173	2
53	54	8
125	125	10
24	27	5
25	28	5
137	137	18
145	156	1
111	117	4
58	61	5
132	138	1
28	50	2
53	57	5
5	8	9
76	79	12
63	64	5
6	6	6
3	3	10
151	151	8
141	141	5
149	149	14
84	88	2
111	131	2
173	173	11
27	27	14
81	90	1
171	175	1
22	73	7
173	174	2
70	76	4
78	81	5
113	113	14
97	97	6
143	147	7
129	129	9
78	78	6
135	140	1
133	143	1
20	30	2
155	157	1
128	128	6
176	177	2
74	74	14
112	112	19
113	114	6
123	124	4
45	45	13
30	30	6
13	43	8
157	157	9
41	41	15
54	54	16
90	90	10
119	119	14
148	148	20
28	28	10
42	44	1
108	114	1
85	95	3
110	110	12
138	138	7
127	128	8
161	162	10
165	170	6
45	72	1
146	147	5
39	46	4
18	19	1
146	161	2
146	164	6
15	21	3
105	111	4
12	25	1
153	173	5
2	2	17
57	57	6
64	64	6
3	9	4
56	98	3
80	80	16
19	19	12
117	124	2
40	40	11
115	115	6
152	152	9
59	59	6
109	109	5
1	1	7
9	9	10
4	6	1
3	12	1
16	39	3
85	125	1
16	25	6
129	174	4
160	170	1
145	147	2
178	178	20
98	100	5
61	99	4
6	38	1
79	79	12
39	39	10
150	160	2
26	82	2
147	147	4
2	6	1
137	148	4
93	103	1
83	87	2
134	149	2
90	96	4
180	180	8
65	65	2
172	173	2
0	4	2
53	56	1
31	32	7
50	51	11
160	160	15
81	84	1
38	38	11
111	111	20
116	116	7
142	142	13
32	34	1
130	137	2
11	16	11
59	98	2
102	111	1
0	1	1
85	124	4
147	154	3
19	21	5
10	64	2
19	20	3
22	24	2
66	66	6
134	137	5
141	142	4
76	76	8
135	135	6
25	36	2
97	98	3
54	66	6
60	64	2
111	113	3
14	14	14
130	145	1
100	100	10
167	167	15
4	14	3
109	119	5
85	96	2
158	158	6
84	86	6
70	70	2
39	40	5
55	56	2
81	87	2
15	20	8
71	135	2
163	163	16
12	14	5
21	77	3
169	176	1
88	88	11
16	17	2
63	63	8
68	74	1
161	168	1
95	104	3
3	16	1
113	116	4
114	114	9
154	154	13
77	79	4
104	104	9
116	166	1
22	22	7
59	65	4
133	133	5
62	62	6
104	107	3
129	130	3
34	34	4
120	120	7
143	143	14
150	150	9
110	121	2
145	146	5
76	134	3
29	44	2
32	51	2
4	4	10
170	170	5
171	171	11
103	103	8
172	172	3
176	176	21
8	11	3
90	102	1
96	96	6
16	16	10
142	151	2
50	52	2
119	130	1
157	158	6
9	17	1
72	74	2
123	123	11
177	177	4
42	42	5
144	144	6
2	3	5
75	81	3
33	33	15
52	54	7
26	27	11
78	137	4
118	125	1
34	52	1
156	158	2
50	50	11
79	90	3
132	140	3
121	128	3
2	41	1
52	52	2
98	125	4
161	169	2
106	111	3
67	67	5
136	136	7
81	100	1
151	155	5
168	172	5
94	103	1
74	75	9
159	159	10
96	101	3
93	93	3
32	32	9
9	21	1
49	62	2
124	131	1
110	125	2
136	159	5
169	172	2
93	94	4
155	158	4
3	4	6
59	68	1
126	127	4
82	124	1
54	64	7
83	83	9
145	145	11
156	156	9
42	43	9
5	6	3
134	135	3
76	88	1
21	21	4
130	130	4
146	148	3
132	169	2
125	126	4
21	45	1
103	115	1
87	89	1
126	126	7
174	176	2
99	125	2
118	118	9
12	12	19
0	6	4
96	102	2
157	160	2
38	41	2
102	102	1
98	98	3
52	58	2
95	95	7
84	110	1
10	10	12
60	62	4
91	102	1
95	97	4
161	164	5
159	160	2
165	166	8
23	76	4
79	81	4
10	72	2
6	9	2
13	15	1
161	171	1
154	166	2
140	141	6
172	174	4
82	82	10
121	127	2
87	179	3
43	44	1
56	56	14
169	171	7
175	175	4
116	121	2
153	180	3
37	37	9
174	175	1
20	59	4
1	13	3
7	92	1
101	102	1
174	174	4
75	75	11
37	125	2
99	100	9
99	99	7
57	58	4
24	77	1
167	175	1
139	141	2
57	60	1
13	33	1
102	106	1
61	86	2
121	121	11
130	133	5
74	79	1
0	5	2
128	131	3
1	4	3
89	92	3
56	57	7
128	129	4
26	28	2
85	85	11
22	26	1
17	27	1
96	98	3
27	31	2
163	164	3
106	110	2
142	173	2
134	138	2
117	118	7
137	142	1
166	166	13
31	80	6
118	128	1
6	10	2
139	170	1
22	23	5
5	5	17
152	153	6
71	71	8
8	8	4
24	24	7
101	107	3
12	20	3
15	19	3
4	5	1
167	169	2
11	79	3
35	77	2
37	39	4
118	120	1
144	151	1
148	149	4
108	109	5
35	35	9
60	60	14
7	23	3
92	92	7
6	51	4
8	88	1
27	28	7
78	79	4
167	168	9
27	79	2
1	9	4
110	117	3
109	110	3
127	139	1
61	62	4
114	128	2
41	43	1
31	31	15
58	73	1
75	77	1
68	68	2
40	41	4
82	85	1
138	139	9
6	15	3
101	115	1
10	13	2
173	178	1
84	84	3
58	58	11
68	82	1
72	86	2
61	65	2
62	63	1
84	95	2
120	127	2
3	38	5
25	27	4
7	46	1
74	76	5
91	92	5
73	76	7
165	165	7
9	12	1
38	46	1
71	75	3
80	81	3
102	103	5
84	85	9
140	174	2
103	118	3
92	93	3
40	43	2
112	113	1
86	92	1
7	71	2
105	109	1
106	106	6
19	37	2
143	144	3
177	178	5
162	173	3
110	111	5
114	115	8
39	42	6
149	151	3
107	107	5
57	64	1
25	25	10
26	26	2
170	171	5
126	130	2
18	20	3
60	61	5
175	179	3
77	77	7
99	102	3
120	132	2
73	80	2
116	117	3
54	58	1
29	29	7
8	77	1
34	51	3
168	169	4
41	42	7
67	68	2
49	49	2
58	60	1
60	133	1
72	73	1
136	139	1
32	33	3
12	45	3
85	119	1
39	41	3
54	57	1
13	19	2
35	42	2
151	156	2
13	46	1
22	86	4
144	174	2
142	175	1
169	170	2
141	152	1
149	150	3
157	173	3
108	112	2
129	137	1
152	155	1
84	96	1
36	42	1
117	119	1
134	141	3
51	51	1
66	71	1
140	155	1
98	99	2
85	110	1
90	100	3
117	117	10
2	11	1
7	8	1
142	144	1
171	172	2
121	122	4
73	78	5
129	175	1
150	159	1
130	139	3
118	124	2
158	160	1
83	127	1
6	7	2
58	95	1
88	89	7
104	105	1
135	136	3
34	76	1
23	62	1
144	152	1
113	127	2
5	11	1
67	71	2
23	63	1
53	63	1
168	179	3
96	97	4
146	146	2
79	86	1
179	180	5
107	108	2
63	73	2
164	170	1
122	122	3
111	115	1
49	58	2
7	49	2
2	42	3
168	171	2
10	11	1
98	103	1
113	120	2
175	176	1
57	73	3
4	9	1
111	112	4
102	113	2
8	9	2
81	83	2
125	127	5
159	162	1
153	165	2
91	91	4
29	30	1
55	55	7
104	112	2
33	34	4
94	106	5
7	7	3
147	164	1
67	72	1
158	159	1
155	180	1
31	43	3
131	132	2
87	120	1
82	87	1
9	39	2
66	79	1
123	125	1
167	170	1
107	119	3
140	175	3
64	66	2
141	148	4
13	17	1
139	147	1
15	18	5
50	53	2
123	131	2
153	154	2
144	145	5
60	82	1
143	149	3
67	135	2
15	27	1
35	37	2
18	22	2
25	37	2
0	8	1
177	179	3
14	16	3
119	120	6
99	115	3
30	32	2
162	163	3
73	77	1
63	65	2
134	172	2
3	6	6
86	125	2
44	72	1
106	107	1
130	136	1
12	19	3
96	110	1
156	160	1
12	13	1
70	134	1
18	30	1
112	114	1
103	104	2
128	134	1
74	87	1
42	46	2
99	148	1
98	102	2
153	163	1
35	62	1
143	148	2
67	73	2
26	86	1
139	140	3
86	88	4
52	65	1
157	164	3
150	151	7
67	77	1
63	67	1
24	26	1
79	87	2
151	174	1
26	87	1
143	163	2
110	118	1
130	140	1
107	113	2
13	59	1
68	77	2
76	78	3
83	125	2
143	154	1
51	59	1
137	140	2
137	169	1
93	95	1
65	72	1
12	26	1
117	125	1
108	113	2
136	137	3
3	10	1
119	121	1
66	67	3
104	130	1
110	169	3
119	134	2
150	171	1
147	169	1
66	72	4
121	138	2
111	129	1
86	89	3
110	114	2
108	170	1
142	148	1
86	113	1
157	161	1
76	86	1
81	82	2
24	45	1
71	137	1
92	96	1
5	22	2
60	76	2
146	150	2
175	180	2
99	101	2
93	100	1
31	36	1
120	121	2
130	144	1
23	55	2
54	55	2
148	179	1
170	172	1
136	147	5
132	139	1
28	29	1
64	89	2
127	130	1
43	50	1
56	76	1
111	128	1
61	70	2
38	44	2
52	53	5
82	93	1
85	86	3
166	167	3
103	105	1
155	161	1
135	148	1
105	108	2
71	79	1
86	96	1
84	91	1
14	36	1
106	176	2
129	132	1
160	166	4
165	172	1
27	87	1
5	16	1
132	148	1
152	160	2
0	0	4
124	134	1
100	101	2
145	154	1
6	8	2
159	170	1
22	37	2
94	100	1
102	115	1
30	44	1
138	175	2
68	89	1
9	23	1
30	31	3
7	37	2
107	116	1
79	80	2
84	92	1
50	64	1
158	162	1
90	106	1
32	37	1
140	156	1
15	17	2
118	119	2
116	118	1
12	24	1
147	162	1
90	91	1
20	20	3
109	111	1
113	121	1
5	7	2
24	25	2
127	156	1
152	173	1
52	67	2
18	34	1
97	116	1
41	50	1
138	142	2
59	66	1
135	138	1
13	18	1
21	76	1
10	23	1
165	174	1
131	141	1
75	89	1
90	93	1
162	171	2
145	149	1
135	152	1
24	28	1
2	5	1
100	108	1
137	138	1
43	45	1
19	35	1
4	10	2
155	160	1
17	18	1
27	37	2
83	123	1
117	120	1
123	132	1
51	54	1
73	73	1
117	122	1
157	159	1
85	94	2
4	50	1
92	137	2
3	7	1
89	90	1
119	123	2
123	130	1
24	55	1
93	136	2
111	139	1
114	122	1
132	137	1
131	170	1
37	38	1
92	105	1
10	17	1
19	25	1
21	22	1
150	161	1
56	63	1
134	136	1
86	103	1
13	13	1
6	14	1
164	165	1
143	152	1
67	76	1
111	116	1
0	37	1
170	175	2
16	41	1
94	95	1
25	29	1
20	35	2
4	37	1
143	146	1
40	44	1
66	70	1
98	101	1
5	51	2
72	72	1
8	13	1
51	52	1
60	101	1
80	82	1
142	155	1
96	133	1
17	20	1
137	152	2
15	16	1
11	14	1
11	13	1
115	117	1
111	114	1
130	134	1
80	89	1
138	144	1
113	158	1
22	28	1
29	82	1
166	175	1
141	177	1
