45	46	2
21	22	6
103	103	4
121	127	3
49	49	10
34	48	5
32	36	1
17	17	10
53	54	2
115	116	3
123	123	7
53	53	8
16	16	5
38	46	1
144	144	2
124	125	11
81	81	18
118	127	2
96	96	7
124	124	2
29	29	5
133	133	10
118	118	15
141	141	6
55	56	4
33	35	2
101	101	7
77	77	6
44	44	6
128	129	3
7	32	3
45	45	15
64	142	8
117	128	1
62	62	8
92	92	6
70	70	7
147	152	7
146	149	11
99	99	16
129	129	9
24	24	6
43	43	6
67	67	5
108	109	6
38	70	1
57	68	5
53	134	3
97	98	3
120	120	2
32	32	5
26	27	3
105	106	2
65	66	2
109	110	9
72	105	3
132	132	14
63	63	2
28	28	10
115	115	3
134	134	7
74	74	2
71	71	18
47	47	6
9	14	6
3	5	1
114	115	7
23	30	3
85	86	2
146	146	3
30	45	1
6	7	3
31	31	8
42	43	3
85	85	13
37	37	3
68	152	10
51	51	5
21	24	2
46	46	7
92	93	4
79	145	4
116	126	2
9	9	3
2	38	5
80	80	10
66	79	3
5	5	6
11	11	8
127	127	3
10	10	2
56	56	5
117	127	4
66	66	5
77	78	2
41	41	1
8	9	3
114	114	4
39	39	9
33	34	5
94	94	3
46	48	3
106	107	3
82	82	12
136	137	3
145	151	2
86	86	5
135	135	4
103	104	5
121	121	6
118	121	1
116	116	3
138	138	2
65	65	2
20	23	1
70	147	2
111	111	3
122	122	2
119	119	6
40	133	2
14	14	1
82	84	3
64	117	4
29	30	6
108	108	8
42	42	4
66	76	5
55	55	7
146	147	3
96	97	3
50	50	4
35	35	4
64	121	1
87	120	2
64	64	7
76	86	3
67	149	1
151	151	1
153	153	5
34	34	7
13	44	3
83	83	3
104	105	2
38	38	7
145	145	2
150	151	3
87	121	8
67	114	3
146	151	2
88	88	6
66	85	6
13	43	4
38	39	4
67	116	1
76	76	4
33	36	4
63	115	4
27	27	3
14	31	2
7	36	6
72	72	3
23	24	1
6	8	1
79	79	4
106	106	3
15	39	2
106	112	2
13	31	2
65	126	5
75	143	1
14	42	3
6	39	1
149	151	6
9	10	2
6	37	1
142	142	7
19	19	2
7	7	7
136	136	4
12	12	5
73	73	2
48	49	2
75	78	3
92	96	1
127	130	2
57	154	2
14	21	2
64	65	2
14	22	1
108	110	2
148	148	2
112	112	6
38	40	6
139	144	1
92	127	2
149	149	3
64	144	2
53	55	2
84	84	3
63	122	2
76	78	1
58	58	2
78	78	4
128	128	5
22	31	2
96	99	3
62	63	2
113	114	3
13	13	4
34	35	2
79	81	6
65	144	1
138	141	3
97	97	7
27	32	1
73	107	2
47	48	3
75	77	4
93	122	2
67	73	1
126	142	3
99	100	3
11	18	1
33	33	3
3	3	7
94	96	4
28	30	1
116	117	1
43	44	7
71	72	1
107	107	1
125	125	4
137	137	4
118	119	5
11	20	3
67	115	1
75	115	1
54	54	2
4	4	1
140	141	3
89	127	3
139	139	7
72	111	2
115	117	2
131	132	1
94	95	2
87	130	2
120	131	3
152	152	2
42	44	2
44	45	2
46	49	4
94	99	3
110	110	1
134	154	3
150	152	1
20	20	2
118	153	1
64	126	2
116	145	3
7	8	2
56	141	2
147	147	2
28	32	5
74	76	2
25	25	3
35	37	1
17	18	1
78	80	4
62	101	1
86	142	6
125	149	1
4	14	3
77	80	3
66	144	1
142	144	8
117	117	5
108	111	4
100	100	2
102	103	1
26	26	2
23	31	1
65	146	1
103	112	1
41	42	1
73	75	1
6	6	4
62	122	5
74	82	1
95	97	1
98	99	3
67	151	1
57	57	2
104	104	1
46	50	3
63	126	2
118	123	1
79	83	3
76	85	1
80	83	1
68	119	2
75	114	1
76	79	1
140	140	2
18	18	2
12	28	2
139	141	1
66	75	1
98	98	1
54	68	2
102	102	1
4	25	1
5	38	1
40	40	1
111	112	1
126	126	2
137	138	3
80	81	2
93	93	4
95	95	3
12	29	2
141	144	1
150	150	1
5	6	2
80	84	2
92	130	1
117	119	1
102	112	1
37	49	1
149	152	1
100	105	1
66	151	1
123	153	1
113	113	1
23	28	1
147	153	1
14	27	1
119	128	1
145	149	2
61	62	1
75	84	1
85	87	1
15	15	2
133	134	1
66	140	1
22	22	1
48	48	1
58	139	1
35	36	1
3	4	2
69	69	1
132	133	1
75	145	1
