193	193	1
97	97	5
166	166	8
42	42	4
71	72	2
49	49	5
37	37	9
2	2	2
33	33	7
25	26	4
184	184	5
76	166	2
15	15	2
9	9	2
55	99	2
176	184	4
74	77	1
26	26	6
100	101	5
74	74	8
10	17	2
32	32	8
103	111	2
113	118	2
29	29	7
160	160	6
133	133	7
100	100	9
146	146	4
129	129	6
14	14	17
161	161	1
19	19	3
117	118	9
100	102	2
112	112	3
44	45	4
12	12	11
104	105	2
163	163	2
16	16	8
104	111	1
88	88	4
55	56	4
113	116	3
93	93	2
34	36	9
88	89	1
167	167	2
188	188	4
23	23	5
3	3	3
50	50	5
57	57	2
13	13	4
140	140	8
65	66	2
5	8	2
9	34	1
196	196	2
41	41	5
56	56	5
47	47	8
59	150	5
124	124	2
77	77	9
118	118	13
192	192	6
66	66	3
7	8	1
155	155	2
117	117	6
186	194	2
121	123	1
176	176	3
114	114	10
175	176	2
53	53	2
24	24	9
176	178	5
69	69	2
36	36	6
113	113	8
164	164	2
139	139	5
20	20	3
150	150	7
152	152	2
111	112	1
108	141	5
144	144	3
42	43	6
146	148	2
48	48	4
54	56	2
164	166	1
70	70	5
189	190	3
104	104	7
82	87	2
172	176	2
106	106	5
165	165	6
30	30	4
64	64	2
194	194	4
122	122	3
82	83	1
138	138	3
46	46	1
134	139	1
96	102	1
98	99	1
123	123	3
60	61	1
111	111	3
143	143	6
70	155	1
62	63	1
149	149	3
108	108	2
93	94	1
143	145	4
89	89	2
33	34	3
1	1	3
95	96	1
177	181	1
46	57	4
34	34	1
95	97	1
133	136	2
107	107	5
8	160	1
14	16	2
64	67	1
7	7	3
149	150	2
110	132	1
33	143	2
159	159	6
35	35	5
18	18	2
35	178	3
8	8	6
39	42	2
55	55	5
76	76	3
27	27	2
11	16	3
40	40	2
122	124	1
135	135	2
75	79	2
179	182	2
9	33	1
162	162	5
51	52	3
102	102	6
81	81	6
81	88	2
61	61	5
134	134	6
100	112	1
145	146	2
44	44	1
180	180	1
103	103	1
147	148	3
71	74	3
137	140	2
186	186	3
179	179	1
83	83	5
60	123	2
75	78	1
104	110	3
85	117	1
3	7	1
25	25	2
85	85	1
121	136	2
158	158	4
183	184	1
56	70	3
65	67	4
60	60	3
67	67	1
132	132	1
53	55	1
169	169	2
38	39	1
146	154	2
158	160	3
95	95	2
157	157	2
122	149	1
124	125	3
156	156	5
172	175	2
193	194	1
56	57	1
173	174	2
6	6	1
187	187	1
170	170	1
94	94	1
10	10	1
171	171	6
72	72	2
116	116	1
94	99	1
50	57	1
54	54	1
58	64	3
131	131	1
51	51	3
134	140	1
180	182	1
6	36	1
156	168	1
16	17	1
94	96	1
110	111	2
152	153	1
45	45	1
73	73	1
3	4	1
11	71	1
22	26	1
121	121	1
81	82	1
102	147	2
82	82	2
173	173	1
148	154	1
132	141	1
76	77	1
105	106	1
128	133	1
151	191	1
117	119	1
28	29	1
174	174	1
34	35	1
80	80	1
39	39	1
128	128	1
79	79	1
79	87	1
105	105	2
138	139	1
4	4	1
190	192	1
181	181	1
