113	113	9
46	46	18
114	114	19
110	111	4
93	143	3
36	37	4
139	140	2
183	185	1
71	71	9
81	81	16
142	144	1
46	73	1
56	57	5
180	180	13
154	154	25
19	19	6
151	151	21
38	39	4
114	115	1
104	146	1
107	108	7
87	87	13
97	98	5
9	13	4
72	72	18
68	68	14
134	134	9
80	81	8
27	27	7
143	143	13
184	185	4
52	122	10
138	139	8
57	57	12
26	28	1
189	190	2
29	29	20
99	100	7
33	33	10
15	15	13
100	102	1
25	25	11
89	89	22
98	98	8
58	59	3
173	174	1
85	85	26
184	184	8
56	56	7
187	187	8
100	100	14
188	188	12
162	162	11
179	179	19
58	58	6
185	186	5
168	168	8
78	78	9
54	81	2
82	107	6
88	88	10
153	153	21
153	155	2
171	171	2
80	80	6
22	22	5
21	21	8
48	77	4
94	95	9
53	54	1
152	152	5
109	109	6
104	105	4
26	39	1
129	129	11
98	157	3
54	55	3
135	137	6
146	147	6
133	133	20
126	126	16
53	53	16
92	92	6
147	148	6
31	35	2
142	142	2
117	117	26
140	140	15
55	55	11
120	122	3
144	144	5
10	11	2
29	35	8
167	167	7
105	121	5
161	162	2
11	12	2
97	97	20
174	174	8
175	176	6
127	128	3
57	58	4
159	160	9
37	37	4
54	76	7
171	172	3
112	113	12
12	15	6
120	145	1
83	107	5
178	179	3
124	126	6
185	185	3
38	41	7
23	24	2
127	127	8
173	173	10
146	146	13
44	45	6
157	157	3
24	24	12
168	169	7
128	128	9
108	108	3
180	181	4
73	74	6
0	0	7
183	189	3
30	31	18
141	141	10
86	86	1
103	103	8
31	31	6
145	145	13
44	44	9
164	165	2
58	120	5
95	140	11
177	178	5
130	130	9
5	8	3
7	8	10
112	112	6
17	35	3
19	20	2
1	2	2
122	122	13
17	17	5
169	170	3
125	125	5
4	4	2
39	39	10
67	67	10
137	137	8
79	86	2
106	110	2
32	32	9
27	30	2
77	77	13
94	94	7
109	111	1
19	24	4
75	76	9
107	107	5
6	6	6
10	13	2
49	49	2
38	38	6
28	28	8
45	45	7
153	154	5
59	60	12
149	150	9
186	186	6
175	175	8
121	122	1
87	88	8
13	16	1
132	133	1
91	125	2
138	140	4
131	135	8
26	26	12
2	5	1
101	151	3
126	129	3
132	135	2
14	14	15
40	41	4
46	47	4
120	121	3
139	139	6
140	141	8
11	11	7
42	43	5
158	186	4
31	32	4
64	64	8
136	137	2
66	66	10
190	190	3
7	7	6
62	63	3
152	153	3
40	40	6
90	90	1
18	18	16
59	59	7
85	106	5
93	93	3
47	47	10
48	48	1
156	156	7
102	103	3
55	124	3
151	152	1
74	74	8
188	189	1
55	87	6
36	45	1
181	181	6
141	144	4
155	155	11
58	92	1
61	63	2
3	3	3
116	117	9
8	8	4
70	70	7
119	119	8
111	111	6
161	161	10
60	60	9
155	156	10
158	187	1
93	94	3
12	12	7
103	146	1
174	175	4
12	34	1
148	150	2
169	169	19
135	135	3
182	182	11
89	90	8
32	46	1
150	150	5
145	146	1
101	141	3
82	83	4
165	165	7
105	105	5
103	104	6
7	10	3
35	35	3
121	121	2
96	96	7
15	16	3
176	177	2
179	180	4
61	61	8
23	23	4
1	3	1
54	54	10
30	36	2
115	115	10
131	131	5
129	136	1
177	181	7
131	132	5
136	139	2
150	151	7
16	33	2
66	67	6
10	10	4
153	185	1
62	62	8
147	149	6
81	82	2
41	41	3
56	119	2
164	164	2
13	14	2
69	69	2
181	182	5
187	188	2
160	160	6
120	120	7
36	36	6
178	178	4
82	82	10
23	27	3
91	91	7
70	74	1
166	167	5
97	132	1
119	120	2
34	34	7
154	157	1
149	149	3
115	148	1
166	166	7
64	65	5
117	118	6
45	46	7
30	30	7
59	92	2
43	43	1
76	76	2
59	70	2
159	161	1
106	106	8
113	146	1
17	18	1
129	130	2
23	42	1
165	166	3
105	106	2
163	164	2
65	65	8
83	83	9
61	62	5
124	125	3
164	183	1
181	190	1
18	19	1
116	116	2
16	16	3
110	110	1
73	73	6
104	104	3
119	121	5
183	183	9
96	142	3
124	128	2
108	109	1
2	2	3
102	102	6
75	75	3
20	20	2
134	135	1
47	74	2
159	188	2
109	114	4
72	74	6
33	34	2
4	5	1
109	113	1
159	159	4
60	61	2
99	99	4
57	123	4
37	42	3
130	131	1
125	126	1
47	76	2
20	21	3
52	54	1
31	49	1
177	182	1
65	67	1
115	163	1
136	136	6
105	145	2
55	76	1
61	126	2
37	43	5
30	35	2
128	129	1
42	42	6
22	23	3
125	127	4
65	68	1
134	137	2
148	148	7
16	34	1
27	38	5
5	5	5
167	173	1
13	15	2
65	66	3
59	74	1
26	40	2
166	173	3
105	110	1
84	85	2
45	47	1
144	148	4
54	57	1
126	127	1
75	123	2
64	129	1
159	189	1
182	183	4
70	126	2
141	153	1
152	158	3
25	26	2
66	137	1
115	116	2
9	10	3
124	127	1
170	170	1
111	113	1
12	13	4
88	110	2
105	112	2
6	9	1
86	87	1
166	180	3
95	95	1
7	9	1
104	145	2
181	185	2
149	163	1
25	27	2
147	147	1
157	186	3
189	189	2
177	177	2
176	178	1
3	6	2
83	84	1
32	33	1
90	91	1
55	86	1
88	89	1
106	119	4
101	101	2
68	69	2
94	141	1
109	110	1
13	13	1
132	132	1
79	80	2
79	79	3
63	128	2
112	147	1
116	118	1
96	97	3
53	80	1
154	155	1
172	172	1
31	36	2
85	86	1
113	114	1
98	154	1
160	161	1
3	5	2
61	136	1
53	122	1
14	34	1
122	123	1
181	183	1
84	107	1
126	128	1
52	52	1
149	162	1
166	168	2
92	93	1
111	146	1
60	64	1
153	186	1
152	186	1
101	144	1
124	124	1
6	13	1
47	73	1
28	43	1
