126	127	3
110	110	7
34	34	2
11	11	2
73	80	1
159	159	3
16	17	3
71	122	8
175	181	5
79	79	2
137	137	2
89	90	3
180	187	2
104	104	8
159	170	1
89	89	4
131	131	2
5	8	1
188	188	4
142	146	1
135	135	3
119	119	2
71	71	6
22	23	1
37	37	2
141	141	2
6	7	4
42	87	4
0	1	4
140	141	1
120	122	2
25	25	6
142	144	1
71	83	4
178	178	3
139	139	8
131	133	4
167	167	11
115	115	4
66	67	2
78	79	5
175	182	1
80	108	1
26	27	2
135	136	2
25	26	3
128	128	2
59	60	3
36	37	1
156	156	10
105	105	9
175	175	1
29	34	1
44	88	3
15	17	3
173	173	5
5	7	1
177	177	5
63	63	3
187	188	2
41	41	3
142	143	3
92	92	1
173	174	3
39	39	4
37	53	2
129	129	10
162	163	5
72	72	2
43	43	3
114	129	3
97	98	1
150	151	2
156	185	1
140	140	6
182	182	2
86	86	4
157	158	1
179	181	2
142	152	3
57	62	4
37	55	3
127	128	2
99	99	3
2	2	1
155	155	5
18	19	4
0	0	3
137	138	3
38	48	3
44	44	1
186	186	3
67	75	2
98	98	2
9	13	1
113	115	3
127	127	3
165	165	2
168	168	6
153	153	2
150	150	1
100	100	2
181	181	4
19	19	2
9	9	1
176	178	3
157	157	3
170	170	1
146	146	3
101	101	2
161	161	1
125	125	2
72	75	4
27	27	2
155	189	1
79	82	1
83	84	1
24	24	5
139	140	2
2	3	2
163	163	1
148	148	2
185	185	2
182	183	1
34	35	1
123	123	4
134	134	3
42	42	3
180	181	3
115	129	1
14	14	1
111	111	2
73	74	1
149	149	1
91	91	2
143	143	1
180	180	3
16	16	2
110	140	1
53	53	1
3	3	1
132	132	1
174	174	2
9	15	1
67	67	1
68	68	1
46	47	3
110	139	1
78	170	1
78	78	3
40	106	2
40	40	4
26	30	1
95	95	1
154	154	1
120	120	2
125	126	1
23	34	1
175	176	2
46	46	3
184	184	1
90	90	3
136	136	2
142	142	3
11	14	1
184	185	3
85	88	1
73	81	1
158	159	1
92	95	1
88	88	2
166	167	1
4	4	3
96	96	1
28	30	1
74	74	1
163	164	1
149	155	2
28	46	1
80	148	2
72	108	1
151	186	2
169	169	1
118	119	2
13	20	1
118	118	1
124	127	1
13	13	1
65	65	1
158	158	1
108	108	2
17	17	2
42	66	2
171	171	1
20	20	1
169	174	1
84	84	1
56	57	1
138	139	2
83	83	1
1	1	1
116	116	1
119	120	1
102	103	1
168	174	1
38	38	1
40	103	1
62	106	1
72	73	1
