81	81	15
85	86	6
88	88	20
45	64	2
61	61	12
93	93	2
51	51	14
75	75	20
52	53	1
29	29	8
33	33	21
68	68	15
83	83	6
76	101	3
100	100	3
86	86	21
68	69	6
84	84	11
67	68	10
65	65	15
85	85	11
78	78	14
71	71	24
44	44	9
52	52	12
80	80	18
86	87	1
46	47	4
64	69	3
64	75	2
82	82	1
57	57	6
73	73	16
67	69	2
70	70	18
89	89	9
54	65	1
57	58	4
72	72	13
39	39	5
92	94	8
65	66	5
92	93	4
69	70	6
91	91	10
60	80	4
101	101	12
45	45	11
99	99	5
87	87	4
98	98	3
84	87	3
74	74	10
70	83	2
102	102	3
51	58	5
96	96	6
62	76	4
41	41	12
77	77	13
74	100	2
56	56	6
80	96	1
53	53	5
78	81	7
40	90	5
39	56	2
75	76	3
46	48	3
47	47	15
37	39	5
52	57	7
93	94	3
68	89	3
26	26	10
65	90	2
31	31	6
83	89	1
68	71	1
69	69	13
54	89	1
37	42	4
60	78	2
76	76	12
73	74	7
50	76	2
80	84	4
63	63	8
62	62	15
60	62	2
25	31	3
42	56	3
24	24	8
71	86	1
38	38	8
65	73	1
63	74	4
68	82	2
64	70	4
79	86	6
58	58	4
95	95	8
94	102	5
86	99	1
33	43	2
36	37	6
99	100	1
39	41	2
86	88	2
64	64	22
40	40	10
22	67	2
70	71	2
61	71	3
96	98	5
49	50	2
62	74	4
60	68	3
66	68	6
80	92	1
48	48	2
39	58	2
79	80	4
77	80	6
25	25	3
32	78	3
72	73	4
83	84	3
21	51	1
49	59	2
22	22	4
97	97	7
55	58	7
54	76	3
28	48	1
80	81	3
49	49	2
58	76	3
79	79	8
78	79	4
44	45	2
48	67	1
73	86	7
62	66	2
67	67	4
53	73	3
54	60	4
95	101	2
49	64	1
42	42	4
47	56	5
80	85	2
66	66	4
50	50	1
78	80	1
66	67	7
66	75	3
80	89	1
47	73	1
71	87	2
78	90	2
35	35	3
49	65	1
76	81	1
40	47	1
60	69	1
29	34	3
88	89	2
78	94	4
37	37	8
89	91	2
23	31	2
85	92	3
45	47	1
84	88	2
96	102	1
32	32	5
79	81	2
95	97	2
57	84	1
24	26	1
71	72	4
68	87	2
50	71	4
31	86	1
66	85	1
64	65	1
41	42	1
59	59	5
47	62	2
28	28	5
30	101	3
22	46	1
35	38	4
92	92	5
56	60	2
29	37	2
94	94	1
55	90	1
49	53	1
70	89	1
65	75	1
63	98	2
40	41	2
94	97	1
63	78	2
31	35	1
50	75	1
56	59	2
81	84	1
32	33	2
74	77	1
45	54	2
88	98	3
91	93	1
71	89	1
59	60	2
39	42	2
81	101	2
33	45	1
66	90	2
43	64	2
46	46	2
54	73	2
34	34	1
56	58	1
68	96	1
74	98	1
53	55	1
45	50	2
33	34	2
44	48	3
52	59	1
22	40	3
32	57	1
37	55	1
83	92	2
90	91	2
63	73	1
90	90	3
66	88	1
53	56	1
70	88	1
84	94	1
64	76	1
69	96	1
23	23	3
93	100	2
36	36	1
51	53	1
98	100	1
29	44	1
36	38	1
55	56	1
44	56	1
62	63	1
80	83	3
76	79	1
43	43	1
83	91	1
43	45	1
54	55	1
25	32	1
27	28	1
69	81	1
60	61	1
93	99	1
83	101	1
26	43	2
97	101	1
51	85	1
89	90	2
20	21	1
54	74	1
56	79	1
20	22	3
76	77	1
62	81	1
55	65	1
36	39	1
95	100	1
57	66	1
37	44	1
