63	64	14
37	38	4
98	99	4
87	87	8
70	71	10
79	79	13
81	88	4
29	43	4
50	50	2
52	52	4
44	46	2
39	39	5
73	73	12
36	36	4
81	87	4
75	75	7
47	47	2
55	56	3
77	77	19
58	59	6
96	96	8
78	78	11
64	64	12
65	88	2
87	90	3
68	68	14
101	101	15
93	93	7
89	101	2
67	67	14
60	61	2
55	83	4
20	66	4
62	73	6
52	97	3
27	44	1
57	63	2
47	100	1
50	87	5
81	81	11
79	80	4
63	82	6
65	65	3
53	53	2
65	66	3
86	86	11
44	80	3
42	42	1
44	44	4
97	99	3
50	85	2
80	84	1
48	48	7
34	78	3
62	63	6
23	47	6
76	76	8
41	41	11
70	70	2
30	30	4
96	97	4
80	80	4
62	62	5
35	35	10
56	75	3
71	71	8
77	78	2
66	68	2
55	96	2
90	90	3
86	87	7
85	100	5
48	84	3
54	91	4
25	71	3
40	40	5
82	82	4
38	38	5
47	87	2
61	102	1
83	84	2
42	43	5
24	46	2
32	32	4
25	44	1
33	33	9
62	72	2
25	75	6
72	72	4
44	47	2
84	95	3
66	69	1
74	74	10
81	100	4
48	86	3
72	73	1
63	68	3
54	54	2
97	97	4
33	79	3
61	98	1
50	81	5
26	71	1
79	82	2
20	29	3
88	88	5
59	59	10
47	48	4
31	73	5
56	71	2
34	44	1
45	49	1
49	49	4
43	43	6
99	100	1
73	74	2
86	88	1
80	81	2
52	99	5
55	91	3
60	88	3
37	37	1
87	88	2
66	66	5
27	33	2
26	26	5
69	70	2
26	63	1
27	27	2
61	88	5
68	69	2
63	83	6
56	56	9
85	85	2
50	90	1
53	99	2
92	92	2
57	57	1
31	36	3
34	34	3
61	61	1
22	57	1
33	43	2
47	61	1
41	42	1
29	64	1
87	89	1
61	63	1
41	75	1
73	86	2
22	64	1
82	102	1
76	77	4
22	51	2
95	95	1
71	75	1
89	89	3
53	84	2
62	68	2
91	91	1
51	51	6
83	83	1
67	69	1
89	98	3
69	69	2
74	75	1
94	94	2
46	77	2
71	72	1
26	27	3
28	28	1
100	100	2
60	83	2
53	55	3
70	84	2
98	98	1
35	36	1
88	89	1
54	55	1
25	70	1
23	46	1
57	83	1
31	31	2
85	87	2
66	67	1
84	86	1
60	60	1
24	84	2
85	90	1
21	33	1
67	68	1
88	100	1
63	63	1
45	80	1
22	27	1
