24	24	4
29	48	2
97	98	2
111	111	11
25	25	21
48	49	4
23	23	3
81	98	3
108	108	8
89	89	4
113	113	9
109	109	9
34	34	8
49	49	17
63	63	5
66	66	3
67	67	9
31	31	4
53	54	6
77	91	2
30	31	1
75	76	3
26	26	3
98	99	1
78	79	6
93	93	5
26	101	3
43	43	9
106	106	6
76	76	8
32	32	12
88	91	4
23	24	7
113	114	6
40	40	13
28	28	9
32	108	1
111	112	5
99	99	2
103	103	2
48	48	13
96	102	3
79	79	8
25	44	7
76	91	3
46	47	4
38	42	5
26	39	1
46	46	11
57	58	3
82	84	3
97	97	9
72	72	13
93	94	2
45	45	4
77	77	11
28	52	3
38	38	5
95	95	4
19	20	2
23	39	1
68	68	7
79	86	1
87	94	3
100	100	5
28	110	1
59	59	10
47	47	11
27	27	9
45	46	4
82	82	4
57	57	3
101	101	16
26	107	2
33	33	3
63	64	3
71	71	4
23	100	1
106	107	2
94	94	8
83	83	8
96	96	11
86	86	4
107	107	8
35	35	5
68	69	2
21	21	2
51	51	7
104	104	3
95	106	2
36	38	1
25	31	5
30	30	2
29	30	4
21	86	2
59	60	2
110	111	4
61	61	6
85	95	2
36	37	2
41	42	4
92	92	3
42	42	5
58	59	5
50	50	5
41	41	8
54	60	1
85	85	8
110	110	8
105	106	2
88	88	2
105	110	2
74	74	12
85	86	4
69	69	3
88	89	4
58	58	3
60	60	5
62	62	3
47	48	2
112	112	2
28	29	1
112	114	3
35	38	1
74	93	5
105	105	1
63	66	1
98	98	2
100	101	1
33	35	3
52	52	3
49	50	1
65	65	1
90	90	4
22	98	5
87	90	3
93	95	3
95	96	2
36	79	3
64	71	1
78	78	1
44	44	3
56	56	2
54	54	5
84	84	3
66	67	8
75	75	4
78	92	2
70	91	2
71	72	2
34	35	6
61	62	3
34	49	1
57	59	1
43	47	3
42	43	2
37	38	2
87	88	2
29	29	2
50	78	2
53	53	4
104	111	1
79	80	1
71	93	1
99	100	2
87	87	2
53	74	1
26	108	1
55	58	1
36	36	6
80	80	1
59	61	2
73	73	2
24	42	1
37	41	1
91	91	1
64	91	2
72	94	1
36	49	2
31	46	1
54	105	1
86	87	3
68	72	2
35	48	1
55	55	4
94	95	1
40	41	2
56	57	2
80	81	1
38	39	1
71	76	1
91	92	1
58	84	3
82	98	1
32	45	5
64	64	1
105	107	1
77	92	1
72	74	1
31	36	3
85	114	1
35	36	2
36	51	1
112	113	1
39	40	1
72	73	1
71	88	1
39	39	1
54	61	1
71	74	1
102	102	2
20	95	1
33	34	1
22	22	1
114	115	1
50	51	1
67	96	1
69	70	1
27	28	1
85	97	1
