39	39	4
82	83	3
20	21	7
61	63	4
32	32	8
27	32	2
104	110	2
49	51	3
35	35	7
45	47	2
64	65	6
82	82	1
110	110	4
64	75	1
84	90	3
107	107	13
60	64	2
46	46	6
21	22	6
77	82	9
73	78	5
88	88	6
104	112	1
47	54	8
87	95	5
34	40	2
44	45	3
50	53	3
80	80	4
71	71	13
29	33	1
26	31	3
64	64	11
33	38	2
79	79	5
35	44	4
55	70	4
89	95	1
59	59	3
71	72	8
66	72	9
72	72	5
51	51	2
63	75	3
86	87	4
75	75	12
32	35	8
98	98	7
45	46	7
44	49	3
82	86	4
76	80	7
63	64	2
77	77	7
111	113	2
71	81	5
21	21	3
71	76	6
58	63	4
41	43	2
112	114	2
71	73	3
75	81	1
57	59	2
103	106	1
23	29	2
111	112	2
87	90	6
111	114	3
95	98	4
109	114	3
19	27	4
102	103	5
94	95	5
105	106	1
103	107	7
33	45	4
79	83	7
88	89	3
70	70	3
52	52	4
59	60	4
104	104	5
111	111	8
78	86	6
82	89	4
46	66	3
44	54	3
50	65	2
91	92	4
92	99	4
38	40	1
48	48	5
23	23	4
29	43	3
101	104	3
100	100	8
63	63	5
109	109	3
94	104	1
99	99	4
108	113	5
68	72	1
46	48	2
109	110	3
65	65	2
30	31	6
40	43	3
47	49	1
53	54	14
69	69	7
74	87	4
67	74	1
40	49	4
106	106	7
85	95	3
92	92	6
27	28	3
34	37	2
93	95	3
33	33	8
71	78	3
19	20	3
44	46	2
113	113	7
84	89	3
96	96	2
106	107	4
93	93	3
105	111	8
69	73	6
46	47	6
114	114	2
86	95	1
84	84	6
63	65	3
80	89	2
44	44	4
110	112	4
23	31	2
105	105	4
70	76	2
73	73	2
30	30	2
59	67	1
29	30	3
99	100	6
45	45	2
59	61	3
97	97	4
36	40	1
54	55	1
95	95	6
24	24	6
46	54	8
40	44	1
42	50	3
68	71	2
56	58	3
43	43	8
41	42	7
102	110	1
24	26	4
41	41	3
32	39	6
94	98	3
32	36	5
97	99	8
67	68	2
99	113	2
25	26	1
57	60	4
56	56	3
27	33	3
27	27	2
75	76	4
99	101	3
79	82	3
61	61	2
77	78	4
54	54	1
55	58	5
80	81	2
58	66	2
84	85	5
28	34	1
105	109	9
93	99	1
36	36	3
93	98	4
49	49	7
97	98	3
37	42	1
94	94	6
90	97	3
42	42	4
62	66	2
57	61	5
62	62	3
95	105	3
99	105	2
107	108	6
37	39	2
53	53	4
38	41	2
86	89	3
37	37	11
20	24	3
89	98	4
69	70	1
69	76	2
80	95	1
92	95	7
39	41	2
48	50	2
25	27	1
94	105	2
100	101	6
58	64	3
21	25	1
67	73	3
44	51	1
23	25	3
77	84	2
69	72	6
79	87	4
99	108	2
42	52	1
50	58	4
108	109	4
101	103	5
102	106	1
63	70	2
76	83	2
78	82	8
95	97	2
94	102	1
60	63	4
26	29	2
110	113	1
30	37	2
26	27	3
62	71	3
24	28	4
89	99	1
37	43	2
100	102	2
74	74	2
34	36	1
81	81	4
103	103	1
61	65	2
96	112	1
80	82	5
36	37	3
74	83	2
28	33	2
81	85	2
21	28	2
53	57	2
70	72	1
101	101	5
55	60	2
38	46	4
75	79	3
22	26	1
77	83	4
78	84	1
91	93	3
29	34	2
109	112	2
102	113	2
93	96	6
50	51	4
27	29	2
76	85	1
60	61	2
74	80	5
40	41	3
25	29	3
104	108	1
113	114	1
28	29	1
87	87	1
86	86	1
106	108	2
90	94	2
53	59	2
103	112	1
82	90	1
40	40	3
29	29	1
34	34	1
31	35	2
71	74	1
36	41	2
96	97	2
81	86	1
57	57	1
29	38	2
20	22	2
59	62	2
56	57	2
62	64	1
63	77	2
24	30	1
90	98	1
102	104	2
58	59	2
107	110	3
92	93	2
105	107	2
33	34	3
102	102	2
21	26	2
49	50	5
93	94	2
32	33	3
78	79	1
72	74	1
47	64	1
76	76	3
72	73	1
104	111	1
100	110	1
83	86	2
81	83	2
114	115	1
66	66	1
87	104	1
35	36	1
98	99	1
55	62	1
52	57	1
22	22	2
89	90	1
35	37	1
96	98	1
90	91	1
85	89	1
60	65	1
81	84	2
31	31	2
24	36	1
26	26	1
42	43	1
100	103	1
29	31	1
96	99	2
27	31	1
27	34	2
42	49	1
59	66	1
104	105	1
19	21	1
106	109	1
73	74	2
88	90	1
23	27	2
37	44	1
101	105	1
55	66	1
23	24	2
51	55	1
47	52	2
44	50	2
82	85	1
64	72	2
63	66	1
98	107	2
53	62	2
89	89	2
72	82	1
34	43	1
36	56	1
41	44	3
99	103	1
50	50	1
81	95	2
57	62	1
60	60	1
43	47	1
31	37	1
98	103	2
73	76	2
26	30	1
54	61	1
30	32	1
53	55	1
68	68	1
63	69	1
44	48	1
70	71	1
94	108	1
46	53	1
28	36	1
20	37	1
65	68	1
45	64	2
107	113	1
76	82	1
79	80	1
79	85	2
78	92	1
25	32	1
38	38	1
38	42	1
72	76	1
20	25	1
41	45	1
80	83	2
28	38	1
74	79	1
63	76	1
37	38	1
51	53	1
