121	121	8
26	36	1
59	59	6
3	3	3
84	85	3
50	51	2
135	136	7
38	38	9
103	103	5
100	101	3
22	43	8
127	128	5
11	13	7
20	22	3
7	16	3
12	12	10
162	163	3
149	149	6
173	173	3
109	109	5
36	36	7
33	33	4
2	2	4
123	123	3
23	23	5
84	84	15
101	121	1
113	113	10
6	13	2
157	159	1
165	165	4
80	85	2
64	89	4
88	95	1
153	155	2
137	138	2
95	95	9
43	44	8
117	120	1
94	95	6
162	162	2
133	133	5
107	107	8
52	73	1
94	94	9
105	132	1
16	16	2
56	76	3
148	148	2
49	50	1
42	42	3
44	45	4
153	153	3
40	42	4
6	8	3
104	104	5
5	127	7
64	64	6
84	86	4
16	18	1
152	153	5
8	8	2
134	135	8
113	115	1
80	123	2
177	177	1
62	62	2
39	39	3
142	144	3
103	104	3
123	124	6
157	162	3
168	168	2
116	122	1
166	169	1
81	82	3
70	70	4
160	161	3
170	173	5
41	41	7
5	7	1
1	1	4
166	166	9
157	167	4
115	118	3
67	67	3
101	101	6
141	147	1
18	18	4
52	53	6
159	159	3
52	57	1
165	166	5
13	13	1
125	126	3
50	55	4
19	19	7
51	51	3
124	166	4
64	67	5
93	94	2
75	76	7
27	31	4
63	64	5
11	12	4
90	90	10
110	111	6
76	77	3
98	98	8
32	32	3
156	157	4
80	80	7
76	76	5
0	1	8
86	86	6
36	38	2
52	52	8
14	18	2
82	82	5
108	110	6
25	25	6
66	67	2
56	111	3
58	59	2
152	152	4
134	134	3
35	35	3
9	9	12
63	63	6
45	45	5
15	15	4
112	112	9
144	161	3
151	151	5
170	172	1
169	169	4
146	146	6
51	52	4
173	179	3
118	118	3
77	77	12
140	141	2
124	124	8
43	43	6
96	96	11
45	53	1
109	110	3
105	106	5
164	165	2
4	10	5
5	6	5
4	6	5
97	101	4
58	72	1
106	108	3
18	20	1
117	118	2
154	154	3
129	129	8
167	167	6
145	165	3
39	41	5
127	130	4
150	153	5
163	164	1
58	58	5
83	83	7
10	10	10
22	22	7
142	145	5
87	88	1
8	9	1
39	43	2
39	40	6
53	53	1
16	17	3
79	79	4
61	61	7
82	84	1
174	174	3
173	176	3
19	42	1
144	145	1
142	142	3
23	28	4
102	102	3
24	24	7
100	100	3
1	15	1
73	73	13
158	158	4
77	103	2
152	163	2
50	66	2
14	14	3
160	164	1
24	26	3
172	172	4
126	126	5
37	37	3
41	42	9
78	79	4
138	138	5
88	88	2
31	31	6
58	60	4
138	141	1
80	81	1
150	176	1
60	67	2
111	111	1
130	130	5
86	87	2
111	112	2
143	143	4
56	56	4
163	163	3
94	134	1
90	91	3
125	125	3
20	20	4
141	142	5
40	40	4
23	24	2
143	159	1
31	34	3
143	158	1
81	81	4
171	172	7
4	4	4
118	179	3
113	117	2
60	60	1
108	111	2
106	106	4
96	97	2
167	178	3
147	147	3
146	157	1
108	109	1
80	83	1
147	177	3
58	68	2
55	72	3
179	179	5
10	11	4
178	178	9
131	131	3
116	116	1
49	49	1
99	99	3
88	164	2
89	89	2
84	153	4
19	23	1
105	109	1
31	35	2
28	28	2
92	92	1
155	156	4
92	93	3
17	19	5
106	110	1
165	167	1
24	25	2
2	4	1
161	161	7
6	9	3
65	65	2
92	94	2
54	59	1
97	97	1
40	41	3
160	160	3
44	62	4
5	5	7
65	67	6
139	139	1
102	107	3
161	162	1
60	61	1
2	74	5
139	140	2
98	122	2
81	96	1
44	44	3
94	97	2
151	163	3
130	131	1
34	38	1
164	164	3
140	140	1
159	162	1
32	35	2
99	124	2
1	21	2
37	38	9
10	16	3
36	40	1
1	71	1
106	107	4
26	26	2
27	27	3
148	167	3
102	111	2
67	68	2
95	97	1
85	176	3
150	171	2
21	22	1
91	91	2
97	109	1
63	68	1
82	83	2
156	159	1
74	74	5
150	169	1
79	80	1
135	135	1
168	169	4
139	143	1
141	141	1
66	66	2
144	164	1
23	42	1
3	6	2
68	72	1
15	116	3
110	110	3
25	32	3
7	7	6
72	72	3
128	130	4
11	11	2
6	12	1
97	98	1
165	169	1
1	4	2
67	107	1
12	13	3
120	121	1
68	68	2
95	100	1
73	78	1
152	157	1
28	33	1
118	122	2
148	149	2
120	120	1
136	137	1
151	175	2
125	128	2
93	93	4
115	137	2
19	20	1
158	159	1
54	56	1
169	172	2
31	36	2
121	123	1
15	18	1
110	119	1
119	119	2
132	132	3
147	152	1
71	72	4
104	119	1
131	133	1
18	75	1
13	17	1
105	105	1
166	167	1
176	176	2
144	163	2
126	127	1
7	10	1
33	34	1
171	171	2
54	54	3
51	55	1
105	107	2
56	57	1
25	26	2
137	140	1
5	10	1
55	58	1
43	72	1
6	6	1
98	99	1
144	144	1
85	85	1
119	176	1
108	108	1
14	16	1
124	127	1
29	29	2
92	135	1
19	25	1
145	146	1
0	0	1
134	138	1
23	27	1
26	29	2
19	28	1
138	146	1
112	115	1
94	110	1
79	81	1
17	61	1
28	30	1
124	133	1
113	116	1
167	172	1
123	127	1
27	30	1
21	24	1
102	106	1
2	5	1
86	99	1
144	157	1
