56	56	7
112	131	2
16	16	2
122	122	4
107	107	5
102	103	5
11	12	6
87	87	10
113	114	5
26	27	5
50	50	2
9	9	3
6	6	7
42	42	9
18	22	4
73	73	4
29	58	5
21	21	3
57	58	3
73	80	3
70	70	16
60	60	3
60	84	1
127	127	15
32	32	10
21	22	1
37	37	3
23	23	3
4	5	2
108	108	8
110	110	14
128	128	9
15	16	4
129	129	6
27	28	1
109	124	5
6	7	1
7	7	14
119	119	10
58	58	6
124	124	8
121	121	6
121	122	3
123	123	2
79	79	3
109	109	5
125	125	5
19	19	8
36	36	4
0	0	6
12	19	3
26	26	8
82	82	5
77	77	5
124	125	2
12	13	2
75	75	5
118	118	12
17	17	5
0	1	4
49	49	1
115	115	8
133	133	2
35	36	2
18	18	2
57	57	5
99	99	13
18	21	7
64	67	1
28	28	4
103	105	2
132	133	4
130	131	2
61	62	2
28	29	2
79	103	2
27	36	2
22	23	4
86	86	11
14	14	5
13	14	3
100	100	9
134	134	15
78	78	7
44	44	5
80	84	2
85	85	2
130	130	13
83	83	7
24	24	2
104	104	4
109	117	3
8	8	7
98	98	5
55	55	8
114	114	2
97	97	3
58	59	3
96	96	3
91	92	8
43	43	4
40	40	5
47	47	8
10	12	3
78	105	3
22	22	11
4	88	3
131	131	5
25	26	4
74	74	3
81	81	10
105	105	7
66	66	4
79	84	2
91	93	2
130	133	1
90	90	3
39	39	1
78	79	4
68	68	4
79	88	2
64	64	10
101	101	7
112	116	2
48	48	6
109	132	2
113	131	5
69	71	3
63	63	6
89	90	1
25	25	3
76	107	2
20	20	5
29	30	6
35	35	5
46	47	6
88	88	2
116	116	7
131	132	4
1	44	2
29	29	2
59	59	5
79	105	1
65	65	5
33	33	14
62	62	1
113	113	4
46	46	4
126	127	2
27	27	9
8	69	1
5	5	6
69	69	5
36	37	5
39	82	4
125	126	1
126	126	4
80	82	1
2	2	5
111	125	1
72	72	5
10	10	6
92	92	7
39	40	1
84	85	3
57	62	4
13	13	2
78	94	5
50	58	2
126	130	3
34	34	8
110	130	1
84	84	7
45	45	7
95	95	5
64	72	1
30	30	7
114	115	5
97	98	9
81	83	1
37	67	4
103	103	7
114	116	1
77	123	3
126	129	1
92	93	1
120	120	6
103	104	4
32	35	4
93	93	3
56	69	3
76	77	2
102	104	6
34	35	1
67	67	5
95	100	1
105	110	5
110	128	4
43	61	2
31	31	3
127	131	1
37	40	1
76	76	4
16	48	1
112	112	3
117	118	1
7	78	3
82	83	1
128	129	1
36	64	1
0	63	1
13	67	1
38	38	6
11	11	8
94	94	5
66	110	2
121	123	1
25	27	3
111	123	2
126	134	1
66	67	2
14	15	4
38	39	2
31	32	2
126	128	4
96	99	3
91	91	4
41	41	2
55	56	2
117	117	5
122	134	4
79	80	5
36	58	2
68	69	3
131	134	1
132	132	5
36	41	3
120	121	6
35	56	1
30	36	3
105	106	1
79	83	1
32	58	6
51	55	1
101	102	2
27	48	2
15	15	2
75	78	2
8	9	2
95	96	1
67	68	1
13	25	1
83	132	1
40	63	3
90	93	1
106	106	1
101	103	2
73	82	2
4	4	3
73	74	3
111	111	1
40	59	1
1	1	4
3	4	1
110	111	1
2	75	1
80	80	1
71	71	1
110	132	1
73	93	3
3	69	2
81	87	2
4	89	2
82	114	1
30	35	2
36	38	1
30	64	1
116	131	1
122	133	1
99	100	1
71	85	1
40	41	3
104	107	1
19	20	1
92	119	1
25	33	1
12	12	1
13	24	1
71	72	1
79	81	1
34	56	1
108	124	1
4	86	1
102	102	1
115	116	1
