37	37	13
62	62	18
64	64	30
65	65	27
60	60	16
70	70	34
26	51	5
87	87	16
51	52	3
62	63	2
83	89	3
66	67	14
74	75	6
85	85	20
80	81	9
80	80	15
67	67	25
32	33	2
35	35	3
46	46	13
101	101	12
88	88	23
67	68	15
63	63	17
96	96	13
77	77	17
28	55	1
81	91	2
68	68	18
34	34	6
20	20	3
44	44	5
42	42	18
72	72	13
60	96	2
25	25	6
74	74	22
61	61	8
55	55	6
85	87	5
27	27	19
36	36	24
73	73	30
87	98	1
99	99	11
51	83	7
69	70	7
79	85	4
83	83	14
66	66	17
81	89	1
91	92	2
84	84	13
81	82	5
81	81	39
59	59	4
36	37	9
50	50	14
86	97	2
70	71	4
31	31	8
23	24	4
85	86	9
86	93	1
49	96	2
86	87	12
57	57	9
55	93	3
39	39	20
26	27	7
95	95	12
96	97	4
70	85	1
65	66	6
69	69	16
89	89	16
71	72	3
53	87	2
38	39	4
47	47	10
36	38	2
45	46	1
73	74	4
78	78	8
98	98	13
72	73	2
60	95	1
96	98	2
41	41	9
53	53	13
79	79	26
63	65	4
24	51	1
95	96	4
51	51	5
82	82	6
57	59	1
26	26	9
71	71	17
70	80	3
90	90	15
24	38	1
45	101	2
64	65	4
70	73	3
77	78	2
23	23	7
91	91	9
64	88	1
56	58	2
72	84	8
60	61	1
55	56	8
43	43	11
57	60	2
29	29	5
56	91	4
42	51	2
27	46	3
76	76	20
34	35	6
23	42	3
100	100	6
92	92	10
75	75	15
52	52	13
34	84	1
86	86	15
97	97	7
28	28	4
37	38	3
54	54	3
56	57	2
58	58	8
22	22	4
30	30	2
41	50	2
40	40	4
62	79	5
87	92	5
79	92	4
32	83	5
82	86	5
57	91	3
87	88	9
93	93	5
91	95	2
58	59	4
48	48	18
79	80	6
41	48	4
34	38	5
69	75	1
26	28	3
25	27	2
62	88	2
35	36	3
66	69	2
27	28	3
70	72	8
90	91	3
69	72	3
60	77	2
33	34	2
59	90	3
27	47	1
69	84	4
99	100	2
56	93	1
33	33	8
74	78	1
94	95	2
61	100	1
24	25	2
56	90	2
26	29	1
60	94	1
70	86	5
33	61	1
54	60	1
24	24	3
59	98	5
54	55	6
61	79	1
56	56	2
95	98	1
41	81	3
73	76	1
83	84	2
69	73	1
54	83	2
53	88	1
58	81	2
70	84	3
39	46	1
90	93	1
38	38	8
73	87	5
72	77	1
47	51	2
71	80	2
63	64	1
94	94	2
23	29	2
80	99	4
68	69	2
22	40	2
78	79	2
38	44	4
100	101	3
71	85	3
82	87	5
50	51	2
55	89	1
67	70	2
30	55	3
49	50	3
101	102	6
38	43	1
20	46	1
51	87	1
73	84	1
22	23	1
67	69	1
34	40	1
54	61	2
92	99	1
68	70	2
86	88	1
90	102	4
75	76	2
21	51	2
22	52	1
80	82	2
95	97	3
80	85	1
76	77	1
84	85	1
55	85	2
55	62	1
60	62	2
93	101	2
45	45	4
70	74	1
61	69	2
62	84	1
69	71	1
58	64	2
52	55	1
39	43	1
63	85	2
49	49	1
43	49	1
47	48	1
76	99	1
55	61	1
69	99	2
94	98	2
43	45	1
61	74	2
41	101	1
87	95	1
49	53	1
68	72	1
88	95	1
76	79	1
