97	97	10
48	56	4
76	76	9
35	35	2
37	37	3
108	108	3
99	99	1
27	27	9
86	90	3
109	110	2
105	105	2
50	50	4
78	78	3
34	34	11
74	74	11
28	29	3
51	51	4
69	69	4
30	31	5
98	102	2
55	55	2
91	98	5
28	28	5
33	33	20
111	112	2
79	88	3
93	93	8
71	71	2
99	100	3
49	50	1
41	43	4
31	31	3
77	77	3
61	61	5
78	89	8
86	86	6
95	95	16
46	62	3
108	109	2
34	45	2
42	42	8
76	94	2
46	46	10
40	41	7
98	98	4
63	64	3
25	26	1
109	109	6
33	34	2
43	44	4
48	57	2
52	52	3
26	27	9
88	90	4
90	90	2
69	78	3
104	106	5
31	33	1
21	22	4
44	44	8
30	30	8
21	21	4
85	85	1
66	66	7
39	39	12
94	94	5
57	58	7
82	83	1
23	23	9
34	36	5
25	25	4
111	111	6
47	47	7
96	96	12
72	72	8
82	85	2
47	56	4
100	100	6
43	43	3
54	54	2
101	103	1
46	65	1
87	90	1
75	75	12
73	74	3
95	96	4
84	84	5
42	43	2
56	81	3
68	68	4
68	69	2
67	67	6
59	59	1
35	44	2
60	60	4
81	85	3
85	86	5
41	41	6
103	108	5
55	57	5
73	73	2
89	89	5
58	58	1
61	62	1
19	19	1
32	32	2
112	112	4
30	35	1
102	102	3
45	46	3
22	23	4
40	40	8
72	73	1
76	93	1
104	104	5
80	80	5
67	71	6
33	45	2
107	107	2
45	48	1
37	40	3
79	79	5
53	53	4
106	106	1
65	68	1
88	89	4
51	52	2
65	66	1
77	93	2
94	96	2
70	70	2
114	114	2
26	26	8
112	113	5
58	62	3
92	92	2
113	113	2
71	72	4
74	77	3
45	45	2
79	80	2
47	68	1
39	40	3
77	97	6
50	51	2
78	90	3
29	35	1
36	36	4
60	62	2
29	29	3
52	54	3
48	49	4
103	104	1
64	64	2
113	114	1
36	45	2
45	54	2
87	88	1
60	61	1
96	97	4
70	77	4
79	89	3
26	28	1
46	63	1
38	38	2
26	34	1
96	107	1
73	93	2
83	102	3
35	36	1
59	60	1
57	57	2
85	88	1
47	48	2
82	82	1
75	76	3
31	49	1
46	57	1
73	95	1
43	45	1
88	88	2
83	83	1
107	110	2
101	106	1
94	95	1
47	80	1
54	59	1
98	99	1
36	40	2
105	106	3
80	87	1
46	48	2
49	80	1
47	87	1
49	49	1
36	44	1
98	103	1
73	94	1
21	23	1
22	22	1
98	108	2
44	45	1
46	47	1
31	35	1
63	63	1
72	74	1
26	51	1
101	101	1
30	51	1
30	48	1
50	52	2
48	48	1
87	87	1
