101	101	7
3	5	2
85	85	4
96	96	7
107	107	7
54	54	9
61	62	1
87	87	10
58	60	3
30	85	7
73	73	8
5	11	2
87	117	2
68	69	2
30	33	3
130	132	3
45	86	4
68	114	3
90	90	9
8	8	3
24	24	9
121	121	3
109	130	1
116	116	10
92	93	6
95	96	5
30	84	3
72	72	5
18	18	6
126	126	5
22	22	8
48	92	2
16	19	2
128	128	2
11	11	2
1	4	3
34	34	3
77	78	2
125	125	1
110	111	2
86	125	1
103	103	4
48	48	4
4	9	3
32	32	4
52	52	17
95	95	2
10	11	1
97	97	2
84	84	2
47	118	1
4	4	3
91	91	5
43	92	3
84	87	2
120	120	3
21	21	3
15	15	10
83	83	6
80	126	1
121	122	1
112	114	2
24	106	4
55	55	3
55	83	1
75	75	3
13	65	1
71	74	3
112	112	7
80	80	4
95	101	1
89	90	4
0	12	3
19	66	1
46	46	1
126	127	3
12	36	3
59	59	3
110	110	2
70	71	2
81	81	5
105	106	3
124	125	10
25	25	5
29	29	7
20	20	11
90	91	2
50	70	2
82	96	3
81	94	1
108	117	2
108	108	1
132	132	8
17	17	4
26	26	5
106	107	2
9	9	3
117	118	5
14	108	1
80	95	2
29	36	2
19	19	4
86	87	3
4	37	3
117	117	2
83	85	2
13	27	3
61	61	7
120	121	2
49	50	2
58	58	9
22	23	3
44	96	5
6	9	3
56	57	3
129	129	1
31	31	4
7	8	3
46	83	4
9	69	2
19	67	4
12	13	5
108	109	1
69	69	4
66	67	4
69	96	1
126	129	1
58	59	4
12	12	2
28	28	7
63	98	1
122	122	3
93	99	2
33	92	2
83	115	3
20	21	2
97	98	1
13	29	1
72	73	2
106	106	2
65	95	2
107	108	3
64	64	3
79	80	4
45	85	2
67	67	4
62	63	2
62	62	3
80	123	2
24	107	2
52	54	2
96	129	1
10	27	2
45	46	6
130	130	4
44	44	1
53	53	1
66	68	1
36	36	3
1	1	4
24	25	2
114	114	3
45	45	1
70	70	2
68	68	4
11	118	1
60	78	2
114	115	1
37	37	1
2	4	1
56	64	2
108	110	2
63	133	3
7	7	6
93	94	2
115	115	2
123	123	4
57	57	4
133	133	1
80	96	1
88	122	1
43	91	3
14	14	3
71	72	1
112	113	1
70	77	1
99	107	1
72	104	2
70	75	1
94	94	2
50	50	2
46	84	1
67	68	1
79	94	4
100	107	1
71	71	1
62	64	1
16	22	1
16	16	2
111	111	1
116	122	1
88	88	1
60	64	1
53	113	1
47	86	2
107	129	2
25	26	2
4	36	2
97	132	3
86	126	1
114	123	1
74	74	1
88	98	2
108	128	1
109	117	1
0	3	1
50	51	1
113	113	1
9	38	1
59	77	3
13	13	2
35	37	1
21	22	1
11	12	1
52	106	1
32	33	1
64	68	1
135	135	1
2	2	3
104	104	2
59	107	1
131	131	1
119	119	1
3	3	1
65	65	3
119	120	1
28	35	1
32	46	1
100	100	5
47	47	2
48	52	1
5	23	2
23	24	1
0	5	1
54	78	1
82	82	1
101	104	1
13	70	1
80	122	2
9	22	1
19	21	1
49	49	1
2	16	1
17	19	1
33	35	1
102	105	1
102	102	1
35	35	1
114	116	1
17	20	1
99	126	1
105	105	1
78	84	1
54	117	1
5	38	1
42	42	1
