175	175	12
93	93	13
26	36	2
53	53	14
88	110	2
156	156	11
215	215	27
8	8	10
200	200	30
29	50	2
219	239	1
193	193	11
117	117	12
42	42	15
147	150	4
208	209	6
46	46	28
236	236	9
202	203	17
48	53	3
28	28	11
227	227	12
44	44	12
224	224	14
208	208	14
216	219	4
169	170	4
209	209	12
217	217	11
245	245	21
90	91	3
93	94	8
112	113	12
94	115	5
38	46	4
23	23	13
5	5	24
59	61	6
30	36	2
179	179	10
100	109	6
48	48	13
58	61	2
94	94	22
96	96	12
225	226	5
109	109	16
203	203	22
106	106	14
232	236	4
28	92	1
185	185	14
145	151	3
58	58	8
173	173	22
164	164	20
199	199	20
70	70	22
165	165	13
27	27	11
24	24	10
218	219	4
32	32	26
183	183	25
216	216	21
38	48	4
45	45	15
210	211	3
198	198	10
7	7	24
112	112	13
242	242	11
192	194	1
98	98	13
160	160	28
78	78	12
214	214	13
229	229	15
14	14	32
189	190	3
240	241	11
79	80	6
191	191	13
51	51	18
68	68	6
82	82	13
59	59	7
42	53	4
210	210	19
184	192	3
159	225	3
16	17	2
169	169	6
65	65	15
36	37	7
172	217	10
203	204	9
177	177	17
101	101	13
34	34	7
148	149	1
76	76	16
96	101	3
101	102	4
228	228	14
17	17	23
95	95	11
87	91	3
19	19	9
181	182	5
0	14	3
167	171	3
237	237	6
182	182	17
202	202	9
20	20	6
230	231	3
21	22	7
118	118	21
68	69	9
54	54	9
31	32	5
14	16	2
194	194	5
72	72	19
111	112	8
97	98	5
32	33	8
56	82	2
180	181	11
232	232	14
57	57	10
115	116	4
77	78	3
162	168	2
58	60	3
162	162	31
18	18	19
223	223	21
21	21	31
181	181	15
247	247	10
207	243	3
80	80	8
56	56	16
99	99	9
220	220	12
118	119	9
71	71	12
163	163	13
52	52	27
160	184	1
178	179	4
116	116	12
189	189	10
88	88	7
221	221	20
174	174	14
25	25	19
91	109	1
241	241	21
239	239	5
246	246	15
36	36	15
213	213	14
201	202	7
168	168	18
75	75	22
161	162	4
108	164	8
170	178	4
86	200	2
150	150	19
82	83	4
53	59	2
231	232	1
66	66	9
181	187	2
175	176	9
199	236	1
92	100	1
242	243	13
32	45	1
100	100	8
170	170	7
98	100	2
110	110	21
155	155	22
77	77	7
103	103	6
91	92	15
83	83	15
99	165	5
5	34	5
197	197	8
180	180	22
151	152	2
62	64	4
61	61	19
49	50	7
6	7	7
31	31	13
50	51	2
67	67	10
157	157	11
86	86	18
176	176	14
212	212	33
167	168	5
197	199	1
10	10	21
64	64	6
233	235	11
178	178	21
244	245	9
245	246	12
184	185	2
153	153	12
245	247	1
95	97	6
185	226	1
201	201	19
119	119	13
243	243	5
45	47	4
55	55	16
62	63	3
90	90	7
5	37	1
116	117	2
166	166	14
186	186	19
171	171	13
75	76	9
184	184	22
30	30	16
89	89	24
222	222	7
4	4	9
33	35	2
219	219	7
74	74	18
146	146	10
196	196	11
39	52	2
12	12	21
55	57	1
111	111	11
179	180	2
69	69	17
102	102	14
206	206	8
72	90	4
29	29	8
235	235	10
3	3	14
49	49	7
102	103	4
25	26	4
72	76	6
99	100	7
238	238	8
57	61	1
227	244	3
40	40	12
149	150	3
37	37	25
197	242	5
75	157	4
154	154	12
200	201	3
206	207	12
159	159	7
109	112	1
157	159	2
93	114	3
233	233	16
44	45	6
34	35	2
211	211	8
78	79	3
240	240	12
0	0	2
105	105	1
209	210	1
92	92	9
73	73	8
176	177	7
1	1	12
65	110	4
171	172	12
60	60	8
41	41	12
205	205	15
98	99	2
204	204	5
28	36	2
172	172	8
157	158	4
110	111	3
114	114	6
35	36	5
12	15	3
65	66	8
194	196	2
87	87	4
158	159	4
177	182	4
231	231	9
168	169	10
73	74	8
46	48	3
42	45	1
241	242	3
31	38	1
229	230	6
14	15	5
160	161	4
30	31	4
38	38	9
167	167	11
62	62	9
78	82	5
109	110	4
22	22	13
146	147	6
233	237	2
157	195	5
39	40	2
230	230	7
15	15	7
165	166	7
151	151	12
85	85	5
182	183	3
93	101	3
13	14	4
152	153	7
84	84	9
171	173	4
232	233	2
50	54	5
111	115	6
177	178	1
9	9	14
57	58	2
149	149	1
243	244	5
176	191	3
13	13	2
26	27	3
113	113	11
26	37	1
220	222	2
25	27	2
97	97	3
2	2	12
11	15	4
64	66	1
54	55	5
172	173	6
42	43	1
159	160	5
87	88	10
43	43	19
224	227	2
187	187	10
173	217	6
47	47	7
198	199	4
212	232	1
248	248	7
196	197	4
35	35	22
16	37	2
194	233	1
108	108	12
92	93	4
225	225	13
58	59	2
193	195	3
218	218	4
26	26	24
159	179	1
24	45	2
105	106	1
210	234	1
248	249	3
223	224	1
222	247	1
16	19	1
226	226	6
12	21	6
15	34	1
94	95	7
234	235	5
208	247	3
215	216	1
12	171	1
70	71	11
84	85	3
2	34	1
158	158	2
49	215	3
166	167	5
197	198	1
186	187	9
169	172	2
77	80	4
50	50	4
239	240	5
153	241	5
28	29	1
6	20	1
33	34	1
204	214	1
108	109	1
82	215	3
18	24	2
1	2	2
195	195	8
29	40	2
205	230	1
29	30	3
55	83	2
201	203	2
100	101	1
163	164	10
38	40	2
28	30	3
234	240	2
6	6	16
231	242	2
192	192	9
145	145	2
91	91	9
249	249	4
69	70	3
244	244	9
56	57	5
177	221	5
216	248	2
52	53	1
183	184	4
101	161	2
6	23	2
113	115	4
233	248	3
235	236	10
159	168	4
199	200	5
151	153	1
87	89	2
230	232	2
189	191	2
107	107	5
37	38	1
151	161	3
96	97	1
207	207	5
25	47	3
233	234	2
214	215	6
53	54	7
157	224	3
101	112	1
85	86	5
218	220	2
226	227	5
176	182	3
91	108	2
155	156	1
84	214	4
162	163	2
71	72	3
152	152	8
79	79	2
175	180	2
97	109	2
91	94	1
216	217	2
174	175	6
213	214	7
169	171	3
231	233	1
18	19	6
5	6	3
96	98	2
221	222	4
188	188	7
159	161	1
61	62	7
15	16	3
213	217	1
66	111	2
104	104	3
94	112	3
88	153	1
11	11	6
69	72	2
45	46	3
33	33	15
120	120	3
170	172	1
46	47	3
11	12	3
74	75	1
39	39	4
59	62	2
180	185	2
209	247	1
107	108	1
163	166	1
86	87	3
147	147	3
74	85	4
156	197	1
150	197	2
220	221	1
97	101	2
154	155	3
110	167	1
192	193	2
109	161	2
36	46	2
39	47	1
198	205	1
114	116	4
194	195	1
102	114	2
77	120	3
2	3	2
175	182	2
35	37	3
225	238	1
156	242	5
56	62	2
117	118	4
234	234	5
75	81	6
176	190	3
49	52	2
86	214	1
66	77	1
11	36	1
161	161	12
9	10	3
81	84	1
17	19	1
238	239	4
183	226	1
212	236	3
159	224	1
184	188	1
206	242	1
16	16	2
8	9	3
162	165	3
236	237	7
232	234	2
41	48	1
156	157	3
76	220	1
76	77	3
63	63	3
74	118	2
72	73	1
4	32	3
234	236	1
223	226	1
222	238	2
164	165	5
213	220	1
55	67	2
176	188	1
226	243	5
82	87	2
75	119	1
219	220	1
73	76	2
115	115	2
170	174	4
153	154	2
195	198	2
83	85	3
81	81	4
188	189	1
85	90	1
195	233	1
223	238	2
94	198	2
12	20	3
179	193	2
76	90	1
188	190	2
60	62	3
110	161	3
174	191	1
182	185	1
59	60	3
164	169	1
246	247	1
54	61	1
234	237	1
190	190	1
86	91	2
228	229	1
70	77	1
114	115	2
35	38	1
56	78	1
158	224	1
193	194	1
174	192	1
237	246	1
185	188	1
185	191	3
27	28	2
95	100	2
190	191	2
41	46	2
90	92	2
106	107	1
171	217	2
239	247	1
214	217	2
76	78	1
58	64	1
150	158	1
192	234	1
56	68	2
81	83	3
173	174	1
38	39	1
40	41	2
61	63	1
61	64	1
56	83	1
185	186	2
49	51	3
5	35	2
212	213	2
7	8	1
68	94	1
170	171	2
0	1	1
3	27	3
105	107	2
197	235	2
66	68	1
5	12	3
95	96	1
4	30	1
238	240	1
150	151	2
222	223	2
76	80	2
214	219	1
55	56	4
184	226	1
41	42	1
149	162	1
29	31	1
80	81	1
86	201	2
198	236	2
64	65	1
22	23	1
69	97	1
26	28	1
30	35	1
174	176	1
165	167	1
48	49	1
108	168	1
89	93	1
81	171	1
164	167	1
26	204	1
147	157	1
225	227	1
207	220	1
78	80	1
175	177	2
4	5	3
211	213	1
101	103	1
78	91	1
91	93	1
56	58	1
100	102	1
175	190	1
88	89	1
101	104	1
20	21	1
99	108	2
209	239	1
113	152	1
164	166	1
67	95	1
209	240	1
113	114	1
41	45	1
67	110	1
69	77	1
79	107	1
210	249	1
206	218	1
65	67	1
80	119	1
3	47	1
23	210	1
