27	27	23
80	80	17
144	146	2
21	21	22
79	79	7
23	154	7
150	150	23
45	48	3
55	56	6
8	8	18
38	38	7
104	104	10
108	108	19
13	18	1
164	165	8
101	102	10
34	34	17
62	134	1
96	96	16
12	12	10
100	100	20
102	146	2
80	96	1
19	28	4
89	89	27
112	112	14
25	25	17
138	138	28
153	153	14
73	73	14
136	136	16
122	139	2
5	23	4
105	105	21
70	72	6
95	95	17
3	3	19
4	11	7
5	5	19
13	54	3
50	51	3
152	165	1
121	126	6
65	68	1
126	129	1
47	47	13
148	155	3
9	9	20
153	154	2
145	146	3
83	83	8
40	40	28
125	125	10
82	82	19
24	24	23
102	102	20
106	160	3
57	57	7
139	142	4
52	52	15
75	75	13
144	144	11
12	46	1
51	51	14
62	69	3
66	132	2
101	101	20
43	43	19
20	23	1
86	87	3
110	110	13
81	81	18
41	53	1
49	49	22
76	91	7
122	123	2
160	160	17
66	67	2
85	85	14
125	127	3
84	84	20
0	9	3
157	158	2
168	170	8
112	114	5
139	139	20
74	75	4
23	23	15
34	35	9
112	121	3
62	63	1
10	10	19
71	82	2
142	142	17
22	22	15
45	45	25
47	48	3
117	117	25
7	7	34
14	15	4
69	71	2
123	123	14
55	55	18
75	116	1
129	129	16
151	165	1
89	90	6
134	135	9
68	69	6
8	10	4
149	149	12
166	168	1
91	91	17
93	106	4
42	42	19
100	101	5
64	65	3
158	158	25
70	70	34
40	43	4
87	87	29
135	139	7
107	107	20
13	13	18
142	144	13
72	77	2
4	4	19
133	158	1
2	11	1
131	139	3
106	106	7
64	69	3
52	53	1
142	143	7
137	137	12
107	116	3
144	160	3
86	86	16
44	44	8
143	143	10
163	166	1
18	18	12
167	167	13
76	120	3
75	94	2
16	16	8
78	78	9
116	153	1
67	67	11
100	103	5
97	97	21
135	135	14
114	114	15
62	68	1
130	130	8
36	36	9
2	3	8
92	92	19
96	109	2
91	92	3
3	5	2
92	93	15
19	20	6
67	68	7
62	65	4
99	101	3
119	123	2
36	106	3
138	139	7
50	50	16
144	145	12
35	47	3
75	91	2
10	28	4
20	20	17
118	119	5
107	128	5
165	165	4
128	128	14
90	104	2
116	116	22
157	157	16
75	76	3
127	135	3
141	141	19
129	154	2
35	35	17
37	44	1
135	137	3
14	56	5
84	86	5
128	130	4
6	6	14
71	72	4
54	66	3
33	159	1
65	76	2
165	166	6
26	26	10
44	45	8
48	48	13
63	63	13
76	77	9
87	89	4
169	169	21
133	134	9
111	119	3
148	148	12
168	169	12
93	93	15
151	151	20
8	66	2
65	65	9
43	44	2
109	109	9
22	23	9
111	111	16
68	68	11
113	113	8
26	27	3
154	155	2
119	122	7
101	112	1
123	140	3
46	46	23
7	23	4
72	72	10
24	25	9
137	147	1
77	100	3
74	79	3
162	162	15
92	100	2
146	146	25
100	144	1
33	35	3
34	37	1
71	77	1
1	27	2
41	42	2
94	95	4
63	85	2
20	33	3
46	57	4
118	118	11
155	155	11
1	2	5
2	21	4
4	5	13
42	43	6
95	105	4
73	75	3
78	80	5
92	96	2
41	41	13
103	103	11
66	69	3
39	39	16
149	166	1
140	142	4
20	115	1
168	168	17
126	126	11
4	7	2
151	152	2
164	164	20
106	109	1
2	2	14
115	116	2
152	152	14
19	19	15
87	107	5
48	50	3
113	115	1
105	115	2
111	134	2
158	168	8
106	108	1
161	161	7
4	6	8
126	131	2
103	115	2
156	156	7
162	163	3
143	144	5
124	125	7
122	122	13
157	166	3
102	104	2
90	151	2
161	164	1
134	147	1
156	157	6
160	161	4
90	90	10
72	83	2
67	73	4
40	66	2
92	97	1
77	85	3
19	39	2
123	135	6
112	116	4
49	51	2
16	21	12
88	88	15
62	70	3
104	105	8
103	139	2
25	43	2
107	108	3
93	115	1
80	95	2
96	122	1
40	41	8
131	131	8
122	136	2
11	11	26
65	79	2
64	74	2
5	12	2
121	121	5
75	80	1
5	9	1
37	37	15
14	14	11
97	118	1
84	137	2
98	98	17
104	122	1
15	15	16
163	163	18
120	122	1
128	149	1
69	116	3
130	155	5
96	111	2
126	127	6
110	132	1
113	114	6
38	39	3
109	111	2
146	160	3
100	102	1
139	148	3
127	127	3
120	120	21
88	90	6
134	134	6
94	94	15
132	132	8
71	78	2
119	124	5
101	114	1
159	159	10
51	52	3
123	125	6
145	147	1
3	17	1
71	116	2
53	54	2
107	137	1
134	145	3
33	33	3
140	149	2
103	117	5
35	36	10
82	87	2
144	147	2
133	149	3
136	143	1
19	21	2
74	74	2
22	24	1
1	1	7
147	151	4
66	66	9
16	35	4
81	86	3
54	54	18
110	126	1
123	141	3
149	150	2
118	122	2
46	48	5
165	170	1
103	104	2
0	11	2
22	102	2
102	103	2
69	69	13
112	143	3
17	17	10
111	114	3
64	73	4
53	53	16
5	6	1
124	128	1
28	35	2
72	73	3
160	164	2
166	167	11
105	117	1
90	105	3
130	131	10
158	159	4
144	148	4
134	165	2
122	146	2
38	43	1
155	164	1
140	140	13
114	115	3
0	0	8
17	24	3
102	120	1
135	145	2
124	149	1
145	145	12
0	12	2
166	166	6
69	70	1
140	141	10
8	9	4
89	117	3
67	70	1
115	115	11
127	145	2
86	104	2
99	118	2
94	120	2
126	136	1
28	28	6
136	141	1
97	98	10
2	5	1
68	104	5
156	168	5
13	14	5
137	157	4
104	116	5
16	41	4
119	157	1
109	135	1
52	56	3
1	9	1
108	109	7
82	83	1
38	40	3
4	61	2
169	170	9
67	116	3
63	72	4
54	75	1
48	52	2
113	137	2
147	148	2
1	4	3
124	124	2
150	166	1
150	156	5
80	82	2
81	91	1
12	18	5
26	38	1
148	160	1
147	147	14
84	85	5
138	157	9
153	156	2
134	144	1
22	39	2
4	18	2
62	75	2
137	138	2
139	152	2
123	132	1
161	162	6
11	34	5
11	19	4
140	145	2
127	132	3
164	166	1
28	39	2
118	135	2
76	87	1
129	133	3
105	109	3
80	99	2
125	144	2
72	89	2
76	84	2
18	20	1
20	21	4
116	117	4
155	157	1
159	161	5
46	47	4
98	99	1
119	119	7
5	14	3
87	100	3
141	142	1
26	75	1
111	118	2
131	133	2
41	56	3
46	55	2
48	56	3
18	19	2
101	139	1
16	18	4
99	99	9
0	2	2
90	100	2
97	106	3
58	62	2
8	12	1
77	82	3
93	117	2
4	63	3
37	150	1
110	111	3
121	122	2
2	83	1
20	63	5
25	34	3
76	83	1
42	54	1
131	148	3
130	136	2
15	16	5
140	148	2
23	69	1
32	32	1
35	51	2
75	152	1
53	55	2
3	21	3
148	149	4
73	74	3
48	51	2
88	89	3
125	126	3
3	20	2
105	111	2
68	71	1
127	142	3
113	124	1
84	146	1
161	168	2
39	40	2
65	72	4
4	114	2
88	94	4
125	137	1
148	151	2
170	170	7
83	87	1
160	168	1
111	112	3
122	140	1
12	13	3
109	112	1
129	146	1
23	26	2
26	56	2
90	91	2
103	126	3
109	110	6
69	84	3
0	8	2
18	28	1
167	168	4
36	39	1
130	133	1
123	124	2
140	143	1
106	116	2
85	107	1
71	71	7
120	135	2
71	87	3
106	128	1
83	84	4
80	81	2
2	51	1
3	16	5
16	17	1
80	85	1
95	108	2
137	139	7
78	82	1
23	24	4
158	166	1
131	155	1
146	147	3
57	63	4
21	33	3
9	10	2
49	67	1
160	165	3
44	51	1
78	100	3
83	105	2
100	139	3
80	150	2
154	154	5
164	168	1
100	118	1
41	55	2
46	52	2
97	123	3
135	136	4
116	122	2
25	41	2
36	37	3
36	107	1
33	37	1
86	117	2
79	101	1
97	108	2
84	106	2
132	162	1
21	24	2
121	132	5
109	164	2
117	122	1
71	73	2
14	24	5
56	56	6
125	148	3
43	49	1
36	108	1
100	129	3
48	49	2
2	112	1
77	77	3
93	95	1
94	119	1
123	126	2
123	130	1
73	77	1
112	118	2
120	121	3
21	22	3
105	141	3
127	128	3
146	155	2
80	151	1
95	109	1
46	58	2
9	11	1
81	99	4
84	98	3
76	76	5
125	131	1
121	131	1
114	116	3
126	128	1
5	27	3
82	99	5
66	68	1
110	112	2
108	118	1
22	33	1
130	146	1
76	118	1
103	121	1
84	105	1
106	126	1
65	75	1
130	134	3
115	118	3
156	161	2
129	137	5
95	96	2
97	116	1
152	164	1
99	100	3
123	148	2
39	41	2
83	92	1
95	138	5
98	101	1
131	132	1
132	133	1
81	84	2
76	82	3
79	117	2
115	136	2
40	42	2
85	101	1
106	122	1
53	56	3
67	164	2
141	143	1
151	153	2
49	50	2
54	56	4
0	4	1
65	67	2
6	25	1
163	170	1
1	11	2
113	121	1
17	19	2
0	1	2
4	22	3
88	93	2
15	68	3
157	159	1
64	68	5
111	133	1
13	16	4
37	38	3
136	145	2
128	136	1
22	25	1
8	27	2
138	163	1
127	137	1
159	165	1
99	155	1
112	141	4
86	91	3
36	110	1
116	118	2
56	57	2
148	152	2
20	158	1
44	47	2
81	93	1
104	106	2
11	20	1
37	46	1
101	123	1
25	40	1
68	80	1
8	11	1
123	131	2
101	103	1
82	88	3
149	170	2
88	110	1
133	133	2
139	145	2
119	136	1
131	156	2
95	130	2
23	146	1
76	79	1
119	121	3
79	80	6
39	54	1
23	63	2
143	145	3
86	96	2
86	148	1
125	135	2
91	107	1
61	70	1
18	27	1
15	28	1
5	24	4
119	132	1
0	6	1
10	24	1
58	58	1
65	69	2
92	94	1
72	85	1
142	148	2
77	83	1
117	123	1
8	19	1
158	169	2
146	156	1
25	27	1
135	150	1
11	13	4
21	28	1
93	114	2
100	160	2
51	90	2
12	26	2
137	149	1
77	120	2
65	66	2
138	147	2
116	119	1
114	143	3
22	115	4
27	28	2
105	121	1
81	102	1
91	148	2
3	7	3
76	93	1
7	14	1
33	34	2
9	14	1
129	138	1
128	145	2
93	94	4
122	137	3
18	39	1
97	111	2
139	143	2
161	163	1
152	153	3
111	144	1
53	58	1
83	85	4
138	145	2
158	163	3
99	105	1
1	72	1
84	88	1
57	81	1
76	81	1
84	87	2
138	158	1
117	118	2
143	147	1
41	43	3
132	141	1
61	62	1
62	73	1
11	12	4
96	97	1
71	74	1
9	12	1
123	149	1
57	80	2
85	92	2
138	152	2
159	170	2
80	97	1
0	17	1
124	131	1
21	155	2
62	64	1
37	149	1
70	71	2
81	82	3
116	129	1
82	98	5
100	143	1
10	15	1
96	126	2
79	100	2
163	164	1
47	53	1
36	149	1
26	118	2
80	157	1
159	160	1
1	7	2
63	69	1
102	108	1
43	55	1
125	164	1
136	159	1
10	14	1
128	141	1
62	62	2
160	163	1
132	138	1
165	169	1
118	124	2
137	145	1
131	134	1
141	169	1
162	169	1
46	51	2
139	141	1
111	136	2
2	12	1
120	146	1
83	119	1
103	149	1
81	88	2
121	146	1
148	153	1
2	17	1
34	52	1
37	74	1
5	32	2
134	148	1
107	124	1
37	54	1
98	107	2
9	23	1
69	80	2
150	151	2
88	109	1
42	51	2
70	75	1
20	56	1
58	70	1
4	10	1
2	9	1
103	108	1
14	18	1
107	112	2
65	73	1
88	107	1
150	155	1
128	129	1
62	72	1
124	152	1
132	146	1
81	92	1
73	78	2
6	21	1
20	26	1
118	125	1
98	150	1
135	143	1
54	74	1
133	145	1
34	44	1
3	84	1
96	110	1
157	168	1
36	44	1
111	122	1
110	122	1
88	91	1
20	34	1
52	54	1
82	89	1
117	127	1
99	113	1
110	127	1
85	146	1
150	162	1
126	139	1
55	72	1
66	80	1
129	163	1
105	123	1
84	99	1
50	57	1
134	153	1
6	32	1
56	73	1
11	14	1
63	70	1
