98	98	8
122	122	8
105	105	4
61	61	11
93	93	13
91	91	9
4	4	3
42	43	7
27	27	6
94	94	17
131	131	10
66	66	5
121	121	14
33	33	6
22	32	4
83	83	9
71	71	9
19	20	2
3	3	13
60	60	6
38	101	1
15	15	18
106	106	14
69	69	10
100	100	12
57	57	3
77	77	5
48	48	11
79	79	14
1	1	4
65	65	9
123	124	7
25	25	12
28	113	3
129	129	7
32	32	17
114	114	4
78	78	17
68	69	7
19	19	5
102	103	2
54	54	11
52	52	13
13	14	1
53	53	11
16	17	1
7	66	4
59	60	6
39	44	4
12	13	2
96	96	4
45	45	15
45	46	4
103	104	2
53	54	6
60	61	8
23	23	4
112	112	9
103	103	5
89	89	10
67	67	4
39	39	8
122	123	7
56	56	14
101	102	3
62	63	3
118	119	1
74	78	3
102	102	12
80	80	7
54	55	3
5	5	1
93	96	3
9	9	2
43	43	15
63	63	13
115	115	6
88	89	2
127	127	1
118	118	6
104	104	10
51	51	8
31	31	2
60	62	5
82	83	3
123	123	6
33	34	3
69	70	1
74	74	7
79	81	3
4	50	6
68	68	5
72	83	4
58	58	8
89	91	2
72	76	5
30	114	6
93	95	1
108	109	3
59	59	9
2	53	1
117	117	8
17	17	4
115	116	2
55	55	5
14	14	9
50	51	2
64	64	6
82	82	2
61	102	2
14	32	2
32	69	2
111	111	9
2	2	5
43	57	3
119	119	3
86	86	5
107	107	14
78	79	4
25	76	3
18	18	4
97	133	3
7	7	5
72	74	5
59	65	1
95	95	5
22	22	8
76	77	5
20	20	4
131	132	1
109	109	7
88	88	10
9	26	3
70	70	2
46	46	4
94	106	1
126	131	1
8	8	3
33	68	1
46	52	1
113	113	9
109	110	2
81	81	15
67	68	2
74	76	1
93	122	2
16	16	10
99	99	3
47	47	11
58	97	2
38	38	6
46	47	3
51	52	4
19	21	5
91	93	1
79	106	2
56	57	3
56	63	1
90	92	3
8	31	1
28	28	5
130	130	2
60	69	4
100	107	1
85	85	5
63	71	4
55	102	4
101	101	6
125	125	5
6	7	3
92	92	2
44	44	4
70	82	2
87	87	1
108	111	1
22	23	2
26	26	7
87	88	2
126	126	1
116	116	2
8	113	1
98	100	1
97	97	5
31	72	1
9	113	1
31	32	1
0	1	1
63	69	2
41	41	3
73	73	3
48	49	1
6	66	2
121	124	2
42	42	3
97	98	5
69	91	3
79	80	1
95	96	2
80	81	2
29	107	2
10	12	1
108	108	4
75	75	5
13	13	3
3	48	2
7	31	5
124	124	9
125	131	4
71	77	4
10	10	3
42	59	1
15	16	3
10	24	1
15	77	1
90	90	2
84	84	4
57	59	1
120	121	2
49	49	8
23	25	1
96	98	1
76	76	7
67	71	2
99	100	3
77	78	4
11	12	3
0	0	1
83	86	2
30	30	2
132	132	3
47	48	1
85	86	3
6	6	1
62	62	2
59	86	2
25	33	1
17	18	1
24	24	4
40	40	2
5	6	1
70	71	5
108	132	1
12	12	7
127	128	2
50	52	1
43	44	1
121	122	2
93	94	3
23	27	1
120	120	2
27	28	1
54	102	1
96	106	3
9	10	3
83	84	5
101	107	1
11	11	9
14	16	1
63	64	3
21	21	1
75	76	2
94	96	1
66	79	2
3	53	1
76	94	5
118	120	1
128	128	1
50	50	1
29	29	2
39	100	1
117	120	1
14	23	1
14	98	1
23	24	1
29	30	1
77	79	2
18	19	1
57	58	1
111	113	1
92	93	1
108	133	1
44	96	2
106	107	1
3	4	1
32	33	1
2	3	1
66	73	2
91	121	1
69	83	1
72	73	1
42	57	1
24	26	1
33	76	1
31	91	1
54	106	1
64	82	1
126	127	1
109	111	1
113	117	1
49	50	1
94	95	1
44	45	1
71	72	1
58	65	1
7	112	1
