24	24	6
8	8	10
105	131	2
107	107	11
134	134	5
0	0	8
23	23	7
10	11	3
78	85	3
95	95	7
12	12	13
47	47	1
67	67	6
36	90	2
100	100	11
76	88	2
70	70	6
34	34	6
45	45	10
98	98	4
29	29	10
62	62	14
57	78	2
131	131	6
45	60	2
32	133	2
93	95	1
133	133	8
13	14	3
114	122	2
58	58	5
16	16	10
127	127	5
52	116	1
111	112	4
85	96	3
102	102	1
77	77	8
129	129	10
27	27	4
111	111	3
80	80	5
52	65	2
15	15	9
88	88	6
117	117	6
122	122	7
43	43	6
31	33	2
21	22	4
133	134	4
11	11	8
2	130	4
50	50	5
26	28	1
117	118	2
28	28	4
49	109	2
20	21	4
14	14	5
113	114	3
30	71	4
117	127	1
32	32	4
104	104	7
26	26	9
113	126	3
57	57	7
13	30	1
64	64	10
1	59	2
25	25	4
74	74	5
35	35	6
5	62	2
0	49	2
96	96	13
9	10	2
13	13	6
30	30	3
19	19	6
118	118	6
132	133	5
3	4	8
54	54	8
119	119	2
45	47	1
65	69	5
87	87	2
69	69	7
14	15	4
53	53	8
101	104	2
8	11	2
46	46	1
17	20	5
81	103	4
132	132	4
97	97	9
110	110	2
98	99	6
121	121	2
49	49	4
55	55	3
12	23	3
35	36	3
28	44	2
112	113	1
7	7	2
21	21	6
3	3	4
48	65	1
55	61	1
63	65	3
93	94	1
85	85	2
68	68	9
86	86	9
1	2	1
94	95	5
103	103	2
15	29	1
109	109	12
10	10	10
13	18	1
33	33	3
91	92	2
48	49	2
105	115	1
52	106	2
109	110	4
9	9	7
102	103	1
102	121	1
38	38	1
68	69	5
30	31	3
123	123	2
105	105	5
115	115	5
112	112	2
71	72	5
7	8	2
45	46	2
72	73	6
79	85	2
99	99	5
80	99	2
79	103	1
95	96	4
57	100	3
52	52	3
44	44	3
73	74	2
52	129	7
114	114	5
15	16	1
94	133	3
90	90	4
66	66	6
59	59	2
17	17	1
80	89	1
60	61	4
37	37	5
106	106	10
20	20	5
116	116	3
28	29	2
89	89	6
0	51	2
60	60	4
125	126	1
16	63	1
0	1	3
31	32	3
26	27	1
79	79	7
63	63	7
36	36	3
43	76	1
49	50	2
73	73	6
1	1	6
6	36	2
100	101	2
49	112	2
58	60	6
27	53	2
65	65	1
115	118	1
82	100	1
101	101	2
20	22	1
76	76	6
16	62	1
30	102	2
33	34	1
5	5	1
119	127	3
2	2	1
135	135	2
126	127	1
91	95	1
78	79	3
13	29	2
121	124	1
25	42	4
31	31	3
119	126	4
71	73	7
79	80	2
54	61	1
72	72	4
61	63	1
54	55	2
109	111	2
115	116	1
6	35	1
57	58	5
17	19	2
11	23	2
83	83	2
55	58	1
119	128	3
102	104	1
82	82	2
125	125	1
92	93	3
75	75	1
66	68	4
124	124	2
112	135	2
3	14	1
120	121	3
63	64	2
64	65	1
92	94	1
28	68	1
56	57	1
92	92	1
22	22	2
16	17	1
1	5	1
93	93	2
6	6	1
91	91	3
6	7	4
124	125	3
15	17	2
23	24	2
116	128	2
75	76	2
82	105	1
15	60	1
6	8	1
106	108	1
56	83	1
6	23	1
122	123	1
112	132	3
15	61	1
130	130	1
11	20	2
14	17	1
14	30	1
115	125	1
25	44	1
100	106	1
27	28	1
28	58	1
55	107	2
4	4	1
6	38	3
7	22	1
84	84	1
121	123	1
8	9	1
53	54	2
4	5	1
24	25	2
85	108	1
78	78	1
83	84	1
5	46	1
65	109	1
18	18	3
16	53	1
87	124	1
79	105	1
90	92	1
110	111	1
108	109	1
8	16	1
113	113	1
38	45	1
