150	150	5
120	154	2
36	36	6
121	121	3
56	56	5
159	160	2
83	83	4
178	179	1
167	167	5
70	70	3
62	64	2
78	78	4
52	52	10
4	7	5
106	108	2
72	73	3
112	112	1
80	90	4
13	19	2
158	161	3
115	115	9
87	88	5
137	137	14
10	70	5
130	130	6
65	65	13
146	149	1
169	174	7
171	171	4
128	128	3
120	132	2
94	94	6
1	32	3
114	117	2
160	160	12
55	56	3
68	68	4
145	145	4
64	64	3
20	20	3
7	7	1
50	50	8
105	105	2
169	169	4
126	126	9
59	81	2
40	40	11
62	62	11
108	108	15
21	21	1
124	125	9
38	38	8
147	148	3
95	95	10
90	90	22
141	142	3
26	29	6
113	174	4
161	161	4
65	72	7
158	158	6
59	59	7
101	101	7
84	85	6
112	129	4
165	165	3
154	155	3
85	85	2
15	15	12
125	128	9
130	131	5
55	55	5
118	119	6
58	127	1
75	76	3
28	28	2
12	13	5
16	16	9
26	26	4
142	147	2
61	62	2
52	53	3
106	106	6
42	42	6
174	174	7
132	148	3
8	8	4
138	139	2
8	10	7
35	36	4
135	169	5
74	133	2
132	180	3
117	120	3
5	6	1
31	31	7
14	17	4
107	110	3
30	30	10
144	145	3
71	77	6
176	176	3
72	72	2
2	2	6
147	147	10
94	97	2
64	103	2
120	120	3
2	9	3
122	122	5
102	103	1
95	97	1
167	168	2
139	165	2
137	154	3
76	87	1
6	6	7
133	133	6
132	132	3
81	87	1
37	37	3
149	150	6
112	131	1
109	110	1
149	149	12
3	3	3
162	162	4
107	107	12
145	176	3
167	170	3
148	148	2
141	141	8
137	138	9
155	156	1
176	178	1
135	135	4
92	92	11
86	86	2
60	60	5
169	171	1
8	11	2
111	112	2
3	8	3
60	77	4
96	98	4
96	96	9
151	151	2
159	169	1
66	66	2
33	33	8
102	102	11
83	153	3
163	163	3
164	165	3
139	139	8
129	129	13
134	134	7
23	23	5
103	105	4
74	74	5
124	124	6
75	113	2
15	16	3
55	57	2
54	58	2
23	36	4
78	149	3
81	82	2
75	85	3
112	157	3
91	91	3
74	75	5
81	90	3
29	35	5
170	170	4
175	175	2
53	54	3
173	173	5
146	146	6
180	180	6
27	27	2
178	178	5
118	118	2
31	32	6
77	125	3
113	113	3
10	10	6
96	99	7
144	144	6
140	142	2
114	114	5
144	146	2
127	127	6
84	86	2
123	124	4
107	108	2
58	62	2
61	61	4
108	109	3
62	65	1
13	13	8
72	90	1
84	84	4
25	26	3
138	138	5
159	159	6
169	170	4
9	11	1
93	96	2
118	131	3
17	17	7
59	61	1
11	11	3
74	76	2
81	88	3
57	127	2
172	172	4
121	122	4
51	51	6
71	82	1
24	24	9
135	136	3
32	32	3
120	123	3
35	35	7
156	157	2
5	5	5
110	134	3
85	86	2
139	167	5
104	104	1
36	37	5
131	131	4
73	83	1
98	154	3
0	0	3
168	168	4
8	26	1
81	91	2
38	45	2
12	45	2
1	3	1
88	89	1
6	10	1
19	19	3
156	162	1
2	3	4
88	88	2
157	157	4
105	107	1
71	71	2
157	169	1
113	114	2
56	57	3
59	64	7
140	178	2
123	123	3
93	93	1
138	158	3
128	130	1
63	103	4
105	106	1
77	77	11
25	25	4
111	113	3
1	2	2
136	155	3
97	98	4
113	136	4
103	120	2
119	119	5
33	88	4
117	117	4
113	173	5
54	54	1
117	161	1
3	16	2
109	109	2
119	120	1
3	4	1
77	113	5
136	136	1
80	88	2
14	14	3
101	110	2
131	158	1
133	150	1
73	73	4
97	97	3
137	167	3
158	172	2
24	25	6
154	154	2
142	142	2
3	9	2
53	53	4
80	80	6
160	161	2
68	71	3
86	87	1
24	26	4
160	168	1
6	14	2
103	103	8
1	1	2
34	34	1
116	116	1
7	13	3
156	156	2
10	17	2
56	58	1
99	99	3
125	125	1
75	75	3
59	72	4
110	113	1
143	169	1
144	174	1
82	82	1
18	40	1
120	166	1
77	78	2
159	168	1
76	79	4
143	144	5
34	37	1
152	152	4
126	127	1
87	87	2
79	79	7
93	95	2
1	14	1
8	13	1
157	158	2
10	11	1
159	162	3
17	40	2
133	149	2
168	169	2
62	73	3
98	99	1
17	21	1
58	58	3
89	89	2
100	101	2
179	179	1
177	178	1
86	94	2
161	162	4
75	114	1
157	170	2
133	178	2
164	164	2
49	67	2
4	4	3
137	168	2
67	67	2
29	31	1
33	34	2
132	137	4
103	178	1
155	155	2
62	63	1
116	118	1
150	178	1
175	176	1
14	18	1
10	14	1
166	166	5
78	132	2
110	129	1
43	43	1
63	63	2
159	171	1
24	37	1
83	84	1
113	130	1
18	18	1
20	40	2
45	45	1
86	92	1
61	77	1
80	87	2
140	145	2
73	110	2
16	17	1
106	172	1
40	41	1
92	97	3
91	92	2
170	171	1
80	160	1
53	57	1
110	110	1
6	70	2
3	5	1
131	137	1
120	121	1
72	88	1
58	61	1
101	126	1
3	7	1
9	10	1
114	130	1
143	143	1
9	20	1
83	151	1
75	111	1
140	140	1
153	153	1
171	172	1
115	116	1
