105	133	2
79	79	19
50	50	6
143	143	3
103	103	9
92	92	17
134	138	4
84	84	3
19	19	3
171	172	9
8	11	2
38	44	5
42	42	10
23	23	11
35	35	16
88	88	8
124	124	16
120	120	12
3	4	5
122	154	3
113	129	2
89	89	18
154	154	11
137	138	4
126	126	21
72	72	6
146	146	7
74	79	1
40	40	4
3	3	10
145	145	10
168	168	16
141	141	20
108	108	10
32	34	3
153	154	4
66	66	5
90	95	2
157	157	15
121	121	13
53	95	6
82	86	2
142	142	8
140	140	6
161	162	5
49	50	2
15	51	1
88	90	1
175	175	9
133	133	8
134	134	11
81	81	9
135	135	4
125	125	9
164	166	2
6	6	3
113	161	4
54	54	7
80	86	2
44	44	10
158	158	21
107	107	3
33	33	11
11	42	2
60	60	7
118	118	16
90	169	4
142	143	3
4	6	8
149	149	22
1	2	1
101	107	2
27	28	2
53	54	1
150	150	5
90	90	10
148	156	1
2	144	1
52	52	14
122	122	18
112	112	5
52	113	9
2	4	6
78	78	10
5	117	2
172	172	15
139	139	26
163	164	2
123	124	3
98	98	9
167	175	2
171	171	11
40	41	5
80	107	2
11	44	3
168	169	3
67	67	8
104	104	5
81	85	2
147	147	4
11	11	2
171	175	2
114	128	6
87	87	10
30	31	3
119	119	6
73	73	4
103	104	2
111	112	4
162	162	4
53	56	1
138	138	10
7	7	6
51	51	2
165	165	10
31	31	15
15	18	2
119	122	3
16	16	6
101	101	7
145	146	8
140	177	1
37	37	7
126	127	2
97	97	11
105	106	3
107	109	1
102	110	3
123	123	8
111	111	6
45	45	4
8	9	5
16	151	2
132	132	11
41	42	2
63	64	5
115	115	15
119	121	2
10	55	4
97	130	3
166	171	7
28	28	6
153	153	7
89	90	2
17	17	9
20	20	5
163	163	5
166	166	15
135	136	5
136	157	6
125	126	5
138	159	3
116	116	16
113	114	1
50	51	5
30	30	3
5	96	4
65	65	8
16	18	4
24	24	7
34	34	3
147	148	4
155	155	5
2	141	4
112	126	1
27	27	3
177	177	2
131	133	3
164	164	6
119	120	4
174	174	6
167	167	5
167	168	4
85	86	6
83	83	4
102	102	7
96	96	18
80	80	5
149	150	7
96	97	1
155	156	3
179	179	7
81	93	1
159	159	3
163	166	1
77	78	3
116	150	3
131	131	9
174	175	7
55	56	2
43	44	2
62	95	3
36	36	7
18	18	8
62	62	6
5	115	2
74	75	5
81	82	3
15	15	8
80	81	11
80	121	2
106	131	4
144	145	7
77	77	6
127	127	21
76	77	1
180	180	6
75	76	5
41	41	14
5	5	4
52	53	1
129	129	8
1	1	5
82	82	7
144	144	4
61	61	11
29	31	6
137	137	2
151	152	5
94	94	8
65	83	1
116	117	8
132	133	4
161	161	8
101	144	2
1	3	1
100	100	5
173	173	3
78	122	1
76	76	11
31	74	1
151	151	7
72	73	11
110	110	4
102	144	1
168	175	2
93	93	8
75	75	9
26	27	7
166	167	4
79	80	4
148	148	5
127	145	2
127	158	4
54	55	4
106	106	11
0	0	3
163	165	4
5	6	1
128	159	1
81	131	1
10	10	6
82	85	2
39	40	9
3	14	2
25	26	4
36	37	2
38	38	11
59	60	5
74	74	5
61	62	5
176	176	11
21	21	5
91	93	3
115	117	1
39	39	5
95	95	4
68	68	5
31	32	2
107	108	1
102	103	5
139	140	3
12	12	4
83	86	1
43	43	5
112	122	3
66	153	4
46	46	5
117	118	3
21	35	2
114	114	4
0	124	2
115	149	2
123	125	2
170	170	9
122	159	2
5	97	2
121	122	5
143	144	3
19	20	3
121	127	5
97	98	5
34	35	4
113	113	7
24	26	1
1	9	1
172	173	4
128	128	3
18	21	1
36	38	2
58	59	4
99	100	2
150	179	1
98	127	3
91	92	2
64	93	4
57	57	3
54	97	1
55	97	1
49	49	2
146	147	4
9	13	4
66	67	3
98	99	3
80	92	3
55	55	3
29	148	1
163	167	3
77	157	4
149	153	1
19	21	1
134	139	2
63	63	1
109	109	5
85	85	3
142	146	5
3	97	1
65	78	2
25	25	4
101	102	8
130	131	1
5	45	1
111	126	1
67	68	6
18	35	3
171	174	1
22	23	2
13	14	2
11	13	1
156	156	3
55	124	3
115	116	3
172	175	3
70	70	1
169	169	2
37	55	1
17	21	1
136	159	3
4	5	3
24	28	2
92	93	5
8	8	3
161	166	1
151	153	3
42	43	1
122	124	3
32	32	4
41	43	2
157	158	5
160	161	2
124	156	1
142	156	2
115	150	6
99	102	2
130	130	5
76	115	2
162	166	1
1	14	2
22	22	2
85	109	2
63	100	2
146	148	1
1	5	1
51	126	2
56	57	2
117	117	6
114	149	2
124	126	1
78	88	1
53	57	2
73	78	2
120	122	4
26	26	2
64	83	1
50	151	3
66	150	3
128	145	1
51	52	1
141	142	1
113	115	1
53	103	1
2	3	2
120	121	2
104	105	2
26	148	2
142	144	1
22	33	3
33	65	2
38	42	3
108	109	3
12	46	1
14	54	2
122	145	2
71	71	5
15	16	2
168	172	1
112	156	1
125	139	1
7	14	1
86	87	1
122	157	2
64	65	1
3	142	2
12	13	2
94	124	1
107	131	1
58	58	1
5	7	1
3	95	1
75	154	1
0	75	1
113	149	2
78	89	2
23	43	1
28	30	1
106	107	2
64	64	2
152	152	3
158	165	1
112	157	2
77	80	1
169	171	1
136	136	3
159	160	1
110	111	5
124	125	1
53	53	5
111	156	1
16	33	2
7	8	4
105	105	1
86	86	1
29	29	2
138	139	1
6	96	1
11	14	2
114	162	1
128	136	1
3	98	1
14	14	1
6	9	1
114	126	1
169	170	3
71	139	1
79	107	1
0	1	1
91	95	1
33	34	1
17	34	2
52	103	1
32	33	1
111	129	1
127	128	1
72	74	1
115	153	1
178	178	1
16	17	1
52	81	1
112	148	1
13	13	1
115	118	1
59	95	1
17	20	1
121	142	1
152	153	1
170	171	1
10	11	1
102	106	1
16	54	1
95	96	1
4	4	1
