112	112	2
56	56	5
28	33	4
28	28	5
42	42	5
94	94	7
92	92	4
103	106	8
87	87	14
31	106	1
82	88	1
85	85	7
97	111	2
34	68	3
111	112	3
22	22	7
88	88	10
108	108	4
102	103	5
97	97	2
53	60	3
42	98	4
68	68	1
109	110	3
95	99	2
23	27	4
55	55	6
106	106	3
46	46	8
101	101	4
74	74	2
45	52	6
71	71	3
65	65	14
90	90	5
102	102	8
60	60	13
40	58	3
55	57	3
85	86	3
79	80	5
106	107	10
27	36	3
45	45	11
44	44	10
112	113	5
57	102	3
62	62	9
77	78	5
104	104	5
47	47	3
35	35	4
76	78	4
57	57	8
97	98	3
19	19	5
64	100	2
111	111	5
33	35	1
59	59	9
80	81	3
63	94	3
88	89	7
34	36	2
41	41	2
84	84	11
25	25	4
79	79	3
40	60	1
26	26	6
78	79	2
66	67	2
23	23	2
105	105	4
29	82	4
33	108	4
99	99	9
105	108	3
95	95	4
20	20	8
93	95	1
38	38	1
44	45	3
86	86	4
67	67	9
70	70	1
89	89	13
30	30	3
33	33	4
66	66	7
104	106	4
62	63	1
22	89	2
83	83	2
98	98	4
83	85	1
106	108	2
93	97	2
49	49	6
40	40	4
55	62	3
66	68	2
55	56	1
96	114	1
40	41	8
109	109	3
76	77	7
25	26	4
23	84	2
28	77	1
36	77	1
100	100	7
78	78	3
53	53	4
36	69	3
69	70	3
58	103	1
22	25	2
34	34	1
84	85	3
42	44	2
90	91	1
50	50	8
77	77	3
63	63	2
113	113	4
81	81	5
21	21	6
52	52	5
30	110	1
21	25	2
27	27	15
36	36	1
108	110	1
66	101	1
55	67	1
103	103	5
48	53	2
24	27	1
80	80	2
48	48	2
81	109	1
22	23	1
40	43	2
110	111	1
61	61	1
74	75	2
107	108	1
54	54	2
53	62	2
67	69	1
32	32	1
82	108	2
92	97	1
81	82	2
85	88	6
21	99	1
43	77	2
78	93	3
72	72	2
39	39	2
29	29	2
51	51	4
110	110	2
38	104	1
43	43	4
27	109	2
74	86	1
114	114	1
76	76	2
87	91	1
76	97	1
42	45	2
102	106	1
93	93	1
91	102	1
35	54	1
23	24	1
28	39	2
47	48	1
82	110	1
52	75	1
36	68	2
37	38	3
107	107	2
68	69	2
60	61	1
22	66	3
72	92	1
30	53	1
20	84	2
37	37	1
33	106	2
69	69	2
49	50	1
56	63	2
43	56	1
52	61	1
73	74	1
101	107	1
91	92	1
100	107	1
65	71	1
90	92	1
43	48	2
24	24	1
75	75	1
79	89	1
20	36	1
68	71	1
86	91	1
31	89	1
29	64	1
76	96	1
45	47	1
63	93	1
57	62	1
35	58	1
83	84	1
