66	67	3
13	13	12
35	35	15
59	59	35
57	57	1
35	36	1
39	51	2
53	56	6
45	46	7
25	25	17
61	61	18
26	26	22
49	49	16
58	58	10
32	72	2
46	46	27
12	12	28
29	29	20
52	53	1
71	72	4
22	22	10
41	43	3
50	50	9
38	38	23
71	71	19
10	10	21
63	63	26
24	24	20
8	8	21
77	77	19
28	29	7
21	21	15
11	11	21
51	51	16
72	73	15
43	45	4
41	42	5
29	30	9
64	65	3
70	70	13
44	44	16
24	37	3
42	44	1
61	62	2
20	20	12
59	61	8
43	74	3
62	62	26
23	23	16
52	75	6
47	48	8
19	20	19
50	51	3
65	66	4
55	57	3
68	70	2
3	3	22
8	11	8
70	71	13
6	11	2
69	69	14
59	68	5
53	53	18
68	74	4
48	48	6
75	75	9
56	56	30
47	47	36
11	12	6
12	13	11
42	42	9
75	76	20
73	73	14
5	8	3
18	18	10
25	54	1
26	65	2
3	4	5
5	5	19
65	65	6
60	60	15
2	3	7
55	56	10
31	31	11
31	32	2
24	28	11
7	7	5
76	76	26
19	19	21
51	52	13
30	30	10
37	37	7
33	33	20
2	2	16
73	75	5
6	7	5
9	9	28
33	34	12
68	69	2
0	0	30
21	33	4
39	39	4
34	49	3
27	27	10
13	14	1
27	31	3
52	52	11
66	66	13
54	59	2
70	75	3
9	14	3
67	67	10
55	58	1
51	74	1
1	1	13
64	68	4
62	64	9
57	59	2
23	54	5
25	28	3
68	68	10
1	20	2
41	76	3
54	57	3
3	6	7
40	41	3
4	4	15
19	56	3
43	44	4
72	72	15
54	55	5
46	48	2
21	57	5
30	47	4
30	54	2
5	10	2
69	70	3
23	24	8
41	51	6
26	47	2
39	40	12
23	26	5
40	40	10
3	8	5
28	28	8
44	45	1
22	23	5
8	10	2
46	47	8
25	27	5
44	65	3
61	63	5
29	32	5
51	67	4
6	6	10
36	36	13
21	34	1
34	51	1
9	10	1
34	34	5
26	27	2
27	30	3
13	18	1
38	39	3
14	14	5
43	43	7
49	50	8
20	21	5
19	34	3
48	62	2
59	60	9
65	68	2
24	30	4
42	56	3
7	8	2
27	28	2
39	49	3
8	9	7
34	35	2
46	65	1
0	1	8
42	43	7
21	25	1
74	74	4
12	19	1
3	7	1
20	57	2
4	5	3
30	31	2
54	54	11
53	72	1
53	54	2
45	60	3
8	12	4
56	58	1
31	54	2
29	33	3
54	72	1
21	22	2
51	70	2
27	29	1
1	3	4
20	55	1
67	68	2
48	72	1
69	74	2
56	60	1
55	60	3
44	49	1
2	5	4
41	41	3
29	46	1
10	13	3
42	57	2
29	72	3
57	58	3
61	66	3
32	32	4
34	38	2
36	37	3
41	47	1
2	11	1
45	47	3
5	6	2
55	55	4
32	37	1
0	2	2
30	48	1
24	25	3
49	72	1
45	45	2
23	28	4
50	52	1
20	34	1
35	37	1
29	51	1
24	31	1
18	19	2
51	66	1
64	67	1
56	57	2
29	47	1
46	62	1
50	57	2
32	73	1
5	19	1
48	65	1
1	2	1
63	64	1
64	64	3
64	66	1
37	38	1
53	60	1
23	33	1
44	48	1
10	12	1
67	74	1
25	29	1
