19	125	1
104	105	4
130	130	13
27	27	6
16	16	3
133	133	6
139	139	6
110	110	5
8	38	1
77	78	1
134	134	7
100	100	1
99	99	5
14	38	1
96	96	5
30	30	6
108	108	9
21	21	6
73	73	5
127	127	8
20	120	4
113	113	6
72	73	3
112	113	3
108	109	2
124	125	1
72	72	4
12	12	2
109	109	6
86	88	4
9	9	7
19	120	2
37	37	7
140	140	10
0	0	4
4	5	1
114	114	4
129	129	13
15	17	1
103	103	4
33	33	6
119	119	4
75	131	3
74	74	4
117	118	4
75	75	6
136	136	10
98	98	5
104	104	3
78	78	9
91	91	5
33	34	4
106	106	3
120	120	2
1	1	7
101	102	3
11	11	8
80	80	1
81	83	1
109	119	2
90	90	4
105	110	2
132	132	1
13	13	3
97	97	2
14	17	2
20	121	2
35	35	4
137	137	5
121	121	7
138	138	6
125	125	3
88	88	2
11	13	2
71	71	7
8	8	4
127	128	2
103	106	1
122	122	5
38	38	3
120	124	3
111	111	8
123	124	3
4	4	7
11	12	6
76	77	1
22	23	3
10	109	5
23	125	5
128	128	9
124	124	5
36	37	4
37	114	4
29	30	1
106	107	1
123	123	2
20	20	1
128	129	4
17	17	2
32	32	2
24	25	3
83	83	3
84	85	1
80	81	1
31	34	1
37	38	2
114	115	2
79	131	1
87	87	1
116	116	3
19	19	4
18	19	4
3	3	2
5	5	1
115	115	10
15	32	1
36	36	3
93	93	2
107	107	1
102	102	1
19	121	3
6	88	2
29	31	1
111	115	1
92	92	2
23	26	1
18	18	4
109	111	1
131	131	2
105	105	1
7	26	1
23	23	2
71	73	2
110	111	2
10	10	2
77	77	2
94	95	1
25	25	2
91	94	2
76	83	5
112	112	2
129	130	2
82	82	1
95	95	1
81	82	2
127	129	4
139	140	1
89	89	3
97	99	1
135	136	1
84	84	1
92	95	1
101	112	1
9	15	2
7	7	2
111	113	2
8	15	2
107	108	3
31	31	3
24	26	1
73	74	3
1	23	1
38	88	1
135	135	1
20	21	1
11	16	1
76	76	1
8	13	1
7	8	1
85	115	1
17	115	1
16	17	1
36	97	1
88	99	1
