43	183	3
213	227	2
19	22	1
15	29	3
212	223	3
188	194	1
58	58	5
53	53	2
240	240	4
178	178	1
78	96	2
246	246	4
233	233	7
66	66	2
165	165	6
42	42	8
177	177	5
34	34	7
69	69	11
63	63	9
108	118	2
224	224	2
226	246	4
14	50	1
18	18	7
83	84	5
86	87	3
182	185	3
214	227	4
78	78	1
94	183	2
118	118	11
6	11	2
42	233	3
227	227	2
237	237	4
81	95	2
154	155	4
199	218	3
171	171	6
11	11	4
223	223	1
118	150	3
23	23	6
2	3	3
183	235	6
19	41	5
204	204	4
118	120	4
101	103	3
57	66	4
109	109	3
168	169	1
153	153	2
178	212	4
19	19	4
163	187	3
232	232	5
203	226	4
59	59	2
195	217	5
16	16	3
59	94	8
217	217	4
30	30	3
38	39	4
175	176	4
225	225	2
33	33	3
154	201	5
159	159	4
41	41	9
9	14	6
21	21	3
222	222	3
31	31	4
205	205	2
155	155	1
38	55	7
90	90	3
81	81	4
116	116	8
37	52	2
199	200	2
101	118	1
208	245	4
93	93	3
162	177	2
150	150	3
4	4	4
190	191	1
152	152	5
244	244	1
27	27	4
107	107	4
5	5	9
100	117	4
185	221	2
19	55	2
6	6	4
245	245	5
72	107	3
14	47	1
12	12	4
188	189	3
117	117	2
203	217	3
145	145	5
197	224	1
55	57	2
207	210	6
57	57	1
65	68	3
51	51	3
100	100	4
11	48	5
32	32	4
197	220	4
11	15	1
109	110	2
158	161	1
79	95	2
22	22	4
37	37	1
74	75	7
39	75	3
189	189	4
72	90	2
211	222	1
200	224	1
84	84	3
67	73	3
65	65	1
7	7	7
208	210	2
238	238	9
225	226	5
19	23	2
87	87	1
87	95	2
161	161	1
239	239	1
94	94	3
157	171	3
163	163	7
101	101	9
183	185	3
227	228	2
209	209	4
112	115	7
23	29	3
193	227	3
41	42	4
147	147	5
28	28	3
98	98	2
3	3	9
26	26	2
72	72	5
93	97	1
152	176	2
235	235	4
119	119	5
45	45	3
58	60	4
169	170	1
15	47	2
8	8	4
159	169	2
181	181	5
154	154	1
229	230	1
163	220	1
27	62	2
43	43	2
58	93	2
194	195	2
34	40	2
70	71	1
231	247	1
179	179	2
215	215	3
90	92	3
186	186	2
49	51	1
155	156	3
61	62	2
20	21	3
212	213	1
201	201	1
14	14	6
86	86	2
110	110	1
60	61	1
180	180	2
115	115	2
17	17	1
177	211	2
160	160	3
49	49	2
47	50	1
189	195	1
59	95	2
229	229	3
214	214	2
3	179	1
80	80	2
163	175	2
196	214	1
61	64	1
67	204	2
153	198	2
68	68	3
73	74	1
231	232	4
185	186	3
113	113	2
174	174	1
196	202	1
29	29	3
106	107	1
228	247	1
228	237	3
159	163	1
2	2	1
99	99	2
96	96	3
196	196	1
229	245	2
173	174	4
76	76	2
159	164	4
208	209	1
55	67	2
172	173	1
85	85	2
53	54	2
182	207	1
230	248	1
99	100	1
79	83	1
153	157	3
35	35	3
82	99	1
64	65	3
77	78	1
166	166	2
151	151	2
99	106	1
28	40	1
18	68	1
213	213	2
68	69	1
188	188	2
82	93	1
56	66	1
163	217	2
225	246	2
187	187	4
64	64	3
15	15	2
173	191	1
185	235	1
230	230	2
103	105	1
153	154	1
151	173	2
231	231	1
202	212	3
144	144	1
174	191	1
160	161	1
70	70	1
156	157	1
237	248	1
230	231	2
247	247	1
215	238	1
218	219	2
79	80	1
47	47	1
102	102	2
164	165	1
72	100	1
192	192	2
77	77	1
10	10	1
236	236	1
96	107	1
86	93	1
72	73	1
45	235	1
61	61	1
240	246	1
181	207	1
158	158	1
57	59	2
56	56	1
192	202	1
95	144	1
169	169	1
232	233	1
0	22	1
166	168	1
162	162	1
146	146	1
164	188	1
190	190	1
73	205	1
163	190	1
74	107	1
43	76	1
194	213	1
41	43	1
164	164	1
221	221	1
62	62	1
197	197	1
63	64	1
