24	25	6
107	107	14
154	154	18
115	115	22
149	171	1
67	83	2
155	156	2
150	153	1
60	61	4
71	71	13
98	98	6
99	99	10
14	42	3
95	95	4
138	138	9
173	173	10
110	110	16
106	106	11
148	148	5
104	106	4
17	18	2
132	132	7
163	163	7
180	180	6
34	36	2
161	168	2
72	73	12
112	114	5
150	150	6
97	97	2
126	126	5
102	102	11
112	113	5
85	85	4
96	97	5
132	133	1
93	93	8
105	106	4
128	128	2
91	180	6
159	162	1
117	117	12
161	170	2
65	65	13
123	167	8
111	111	9
27	27	6
2	4	6
117	118	7
156	159	1
130	130	5
42	42	8
140	140	16
61	61	6
21	21	4
58	58	16
59	59	7
4	23	4
43	43	10
104	104	8
132	153	1
35	35	7
82	82	11
139	139	8
148	153	6
161	161	6
38	106	1
15	16	10
12	12	8
117	120	4
170	171	5
116	116	7
36	36	12
44	44	5
136	136	17
83	84	2
158	158	4
11	11	13
37	37	5
165	165	16
33	33	15
3	4	10
144	152	9
22	24	1
40	40	10
131	131	4
124	125	4
31	32	1
72	72	5
78	79	1
112	112	13
30	30	11
81	81	8
73	73	3
79	85	2
153	153	11
92	93	4
100	174	3
166	167	6
44	45	6
106	107	2
60	60	15
84	122	2
46	79	2
84	95	3
7	83	1
2	2	18
156	156	6
16	17	2
57	57	6
32	109	2
125	125	11
84	157	1
28	29	5
134	134	3
88	89	6
159	159	8
121	122	1
168	171	9
142	142	6
21	22	2
53	112	2
122	122	7
123	123	13
133	133	5
94	95	6
155	155	14
154	162	3
108	109	1
77	77	7
164	166	3
15	18	1
142	143	6
94	154	2
54	55	4
126	127	1
98	99	6
32	32	13
17	17	6
129	170	1
143	143	20
33	39	3
97	102	6
63	63	10
3	3	8
102	166	3
31	38	1
102	103	2
82	85	3
149	149	4
79	79	15
61	63	1
86	86	3
75	75	4
23	23	7
22	22	2
58	60	7
13	39	3
9	9	12
50	51	4
80	81	2
91	176	1
135	135	3
65	84	2
119	122	3
160	160	9
120	120	5
144	144	8
74	74	8
52	110	4
91	178	2
140	141	2
126	128	6
110	111	1
97	98	6
90	92	3
91	94	2
68	68	6
29	37	6
51	86	4
18	18	6
83	86	1
76	77	5
173	174	3
50	50	6
164	164	15
179	179	11
57	143	2
100	115	9
177	177	6
100	101	1
170	170	5
148	174	3
63	143	5
15	15	9
32	106	3
6	7	5
87	87	9
5	41	3
7	7	7
39	39	7
51	52	1
54	54	16
1	1	2
178	178	7
103	107	2
29	29	11
49	136	6
62	62	6
14	43	4
174	174	3
127	127	4
53	53	13
11	12	5
38	38	7
44	76	4
37	137	2
28	28	7
90	90	6
169	169	11
100	159	1
79	80	3
130	131	8
98	159	4
89	89	9
97	151	5
109	109	9
116	117	8
36	37	3
80	80	3
66	75	1
42	44	1
86	122	3
13	13	6
56	56	8
151	152	3
66	67	4
95	98	4
34	135	2
83	83	6
145	156	1
6	24	1
91	126	2
50	52	3
54	56	2
119	120	2
59	118	1
0	16	6
9	12	8
175	176	2
78	78	9
5	5	4
172	172	4
154	159	3
151	173	1
5	12	1
114	114	9
1	2	2
84	84	6
121	121	7
123	124	8
10	11	3
136	137	6
129	129	6
77	78	2
172	173	1
76	76	10
141	141	3
125	127	3
19	20	3
34	50	1
124	124	6
113	164	2
58	61	3
5	25	1
129	168	5
39	40	4
44	75	2
53	164	1
29	30	2
94	94	2
92	92	2
6	10	2
96	124	2
95	96	4
0	7	2
157	158	1
6	16	1
42	138	3
127	128	4
34	34	8
151	154	5
88	88	10
143	147	1
24	26	3
85	86	2
153	174	2
52	52	9
176	176	3
141	142	3
7	16	3
20	20	1
52	128	3
36	39	2
130	132	1
101	161	2
126	176	1
146	146	6
115	160	3
50	135	2
6	6	4
12	13	6
161	174	1
14	18	1
37	38	4
16	18	3
39	105	2
81	95	5
57	176	4
0	17	4
58	62	3
59	70	3
118	118	6
94	150	2
137	149	3
119	119	9
45	66	5
31	31	2
66	66	4
7	8	6
133	134	2
33	34	3
127	162	2
89	131	1
23	81	2
59	62	2
145	159	2
65	67	2
65	94	1
112	131	2
35	36	4
59	142	1
43	50	5
85	95	5
0	0	5
168	174	1
35	38	1
96	96	2
27	28	2
64	94	1
62	115	2
168	168	7
26	26	3
35	135	1
166	166	13
25	62	2
20	25	1
56	57	1
118	122	3
126	177	1
5	17	5
109	158	1
53	149	1
146	147	1
9	83	1
37	80	2
131	141	2
90	91	4
38	39	2
53	110	3
44	56	2
94	176	2
41	41	5
147	168	1
53	113	1
155	162	2
152	152	5
115	170	2
91	91	2
51	51	4
116	118	2
134	135	3
55	126	2
158	174	1
9	16	1
57	85	1
87	88	1
171	171	2
82	84	2
64	91	3
127	139	4
113	113	6
32	38	1
128	171	1
22	61	1
23	27	1
7	19	1
10	10	5
22	38	1
4	22	1
114	131	1
50	139	1
90	93	1
9	20	3
32	33	2
61	67	3
51	138	2
154	156	1
67	67	1
143	145	2
157	157	4
59	60	4
55	55	6
53	111	3
64	64	1
67	68	2
4	12	3
63	64	1
149	168	1
19	19	4
147	147	4
54	140	2
24	24	6
18	39	5
152	155	1
114	115	2
162	162	4
45	81	1
65	90	2
51	142	1
38	80	1
39	102	1
5	7	2
125	145	1
59	115	1
53	139	1
159	160	3
76	89	1
8	8	4
163	167	1
70	70	2
81	82	1
108	108	3
66	74	3
13	15	2
174	175	2
93	175	1
53	128	3
103	103	3
77	104	2
52	143	2
123	125	1
45	68	1
42	58	1
143	167	2
153	154	1
141	177	1
169	170	1
14	14	3
162	167	1
107	108	1
42	85	1
4	108	1
16	16	1
145	146	4
115	116	2
71	75	2
104	105	3
34	35	1
70	71	1
39	42	1
95	97	2
40	41	1
128	176	3
4	8	2
149	170	1
105	105	2
139	140	2
160	167	1
38	40	2
132	142	1
139	141	1
52	53	1
81	90	2
76	179	2
84	90	1
33	38	1
45	45	1
144	145	1
52	138	1
137	137	1
44	78	1
178	180	1
7	13	1
54	130	1
152	153	1
71	72	3
55	56	1
17	20	2
58	130	2
109	156	1
63	85	1
57	94	2
79	101	1
81	83	1
52	149	2
36	40	1
19	41	1
99	101	1
54	131	1
115	159	1
66	86	1
49	52	1
154	155	1
91	129	1
62	67	1
83	157	3
130	165	2
129	163	1
5	15	1
120	121	1
61	66	1
2	3	1
84	85	1
146	167	2
156	157	2
59	63	3
145	164	1
128	130	1
24	60	1
54	110	1
100	161	1
11	15	1
39	87	1
108	179	1
63	145	1
4	4	1
90	175	1
152	157	1
41	42	2
78	103	1
55	139	2
63	153	1
162	168	1
35	37	1
113	114	1
