59	59	4
99	100	1
137	137	5
72	72	13
81	81	1
12	12	1
165	165	5
168	168	7
112	112	6
77	78	11
43	43	8
68	68	6
19	19	6
148	171	4
157	157	3
25	25	6
40	40	8
73	73	5
114	115	2
134	134	4
25	26	3
91	144	2
29	29	6
36	36	10
119	121	10
16	43	3
86	161	1
131	131	5
54	54	4
92	93	5
158	158	4
12	13	4
162	169	3
45	45	4
143	144	8
71	106	2
8	9	2
88	89	1
81	109	4
130	131	2
164	164	5
77	77	8
143	143	7
135	135	6
70	175	1
83	84	6
131	132	2
55	56	3
28	35	4
68	96	4
104	105	3
115	154	4
139	139	10
179	179	6
3	4	1
80	80	5
117	117	4
32	32	6
175	175	2
16	16	4
74	75	3
71	171	2
38	59	3
62	63	8
95	96	5
1	3	6
75	94	3
2	2	1
84	84	2
104	115	3
31	31	5
124	125	2
51	51	2
166	166	8
26	26	3
10	10	6
82	110	2
114	114	8
101	101	6
38	39	7
167	167	4
83	83	2
30	31	6
146	148	4
44	44	5
124	124	3
133	133	1
40	41	5
138	138	4
153	153	8
83	169	1
76	76	1
76	93	4
174	174	4
25	143	2
0	1	6
98	107	2
120	121	4
33	33	2
30	30	4
141	141	1
98	154	2
60	60	2
5	9	1
91	94	5
33	113	1
11	11	1
14	14	5
68	100	3
136	136	6
56	56	1
119	151	1
126	126	4
90	90	5
99	99	4
162	162	1
168	170	1
115	115	4
87	89	1
118	152	3
18	18	4
133	134	2
57	57	8
83	140	4
77	104	2
160	162	2
51	54	6
178	179	2
151	151	7
91	91	2
130	130	8
145	145	6
55	58	3
161	168	3
141	171	4
42	43	1
16	42	1
81	110	2
55	55	3
83	85	1
116	117	5
133	149	2
160	160	2
179	180	4
28	28	3
5	41	4
106	106	7
38	38	2
67	67	5
109	109	2
139	144	1
66	66	2
159	159	6
104	116	1
65	96	3
75	75	6
163	164	2
169	169	6
4	41	3
71	71	4
105	106	1
11	13	1
7	9	4
98	99	1
125	125	5
79	79	2
115	116	6
42	42	2
92	94	2
110	111	3
80	81	1
12	45	3
23	23	4
18	20	2
132	132	5
173	173	3
7	7	4
58	58	4
84	169	2
135	136	1
100	154	1
90	149	1
71	149	5
75	90	4
110	110	3
82	83	2
88	88	2
167	168	2
28	29	4
151	152	3
68	114	1
1	40	2
0	0	3
28	36	2
137	139	3
75	103	3
79	172	2
100	100	10
111	111	3
174	175	3
92	92	3
2	37	3
17	17	2
84	145	4
114	156	1
93	93	1
176	176	8
84	85	1
144	144	2
58	59	1
85	143	1
26	35	5
89	90	1
132	148	1
38	56	3
89	89	1
144	145	2
168	169	1
60	61	2
66	97	2
74	74	2
104	104	1
67	68	1
39	39	4
63	68	1
127	127	3
71	80	1
86	87	3
128	128	1
116	116	3
161	161	4
61	61	2
129	148	1
121	121	4
129	130	1
151	153	2
82	82	1
100	101	1
37	37	3
123	123	2
52	53	5
172	172	2
28	34	1
155	156	2
122	122	3
85	159	3
149	171	1
53	53	1
87	87	5
101	107	1
140	140	3
151	154	2
27	28	1
110	158	2
142	147	1
129	129	1
18	26	1
105	116	2
95	95	5
94	126	2
73	75	1
58	62	1
101	106	1
52	52	1
85	140	2
111	158	2
108	108	3
62	62	1
155	155	2
152	152	1
3	3	1
134	149	1
78	106	1
32	157	2
39	40	2
157	158	1
35	35	1
86	86	2
154	154	1
170	171	1
81	159	1
37	38	3
108	109	2
170	170	4
107	114	1
120	125	2
176	177	1
4	5	2
9	10	1
78	78	2
8	8	1
158	159	1
85	160	1
171	171	1
10	13	1
161	162	1
113	157	1
5	6	2
9	9	2
142	142	1
94	102	1
180	180	1
89	163	1
178	178	1
116	154	1
26	28	1
125	126	1
177	177	1
78	149	1
133	138	1
74	129	1
41	43	2
11	44	1
94	94	1
148	148	2
34	34	1
85	85	1
84	143	1
150	150	1
114	155	1
103	126	1
101	102	1
80	140	1
176	179	1
147	147	1
97	154	1
165	166	1
