4	10	2
42	42	6
131	131	3
138	153	2
117	123	2
68	69	4
77	77	12
41	41	2
79	80	3
92	99	7
145	146	3
47	48	5
10	34	7
136	136	3
84	84	5
25	25	6
37	104	3
63	63	4
137	137	4
91	91	6
103	103	1
21	21	8
117	132	3
15	38	2
93	93	10
4	8	4
144	145	6
152	152	2
40	40	9
55	57	3
70	70	5
87	87	6
39	39	3
149	149	2
78	115	3
50	58	3
95	95	4
127	127	2
16	40	1
111	111	2
118	118	6
24	24	4
33	33	3
9	23	6
93	101	1
129	130	8
68	104	2
71	71	2
146	146	7
34	34	1
144	144	4
129	129	4
78	78	4
107	113	2
130	130	4
111	113	1
133	133	5
44	44	11
154	154	7
120	149	2
106	108	1
33	34	2
35	35	8
53	53	1
18	18	6
6	7	2
96	96	4
120	120	2
62	62	1
17	17	7
104	111	5
78	79	1
79	93	3
23	23	2
136	151	1
127	136	2
142	142	1
144	146	2
67	67	1
9	10	4
116	116	2
5	22	3
30	31	4
80	80	2
107	111	1
19	19	2
5	5	2
36	36	2
7	8	2
20	20	2
99	99	2
66	77	2
91	94	3
135	135	3
3	38	4
46	64	3
83	86	1
4	4	1
141	141	2
122	122	1
28	29	3
98	99	2
150	150	1
43	43	5
117	117	3
25	27	2
79	99	1
29	139	2
126	126	4
140	140	3
37	54	1
3	50	1
57	58	5
5	8	1
11	49	1
22	22	1
42	43	3
147	149	1
30	30	4
26	26	1
3	56	1
75	76	4
50	50	1
68	113	1
56	57	2
123	123	2
15	16	5
73	73	3
128	138	1
46	46	2
110	110	8
45	70	2
86	87	1
13	13	1
42	94	1
37	37	2
121	150	1
11	11	2
38	39	3
74	74	4
108	113	3
76	76	1
3	3	1
140	141	1
124	124	6
103	112	1
109	109	2
79	94	2
128	128	3
14	39	1
29	30	6
28	142	2
69	112	2
105	105	1
43	52	1
148	148	1
145	153	3
124	144	1
139	142	2
81	82	1
97	97	2
137	139	5
104	104	1
107	143	2
49	49	3
140	142	1
153	154	1
67	104	1
102	103	1
75	77	1
118	119	2
108	108	2
125	154	3
36	37	4
110	143	1
20	25	1
62	81	1
77	79	1
27	28	3
138	146	1
20	29	1
30	36	1
45	45	1
79	114	3
121	121	2
143	143	3
31	31	2
46	47	1
113	113	1
110	140	1
66	80	1
81	93	1
108	110	1
75	75	2
134	135	3
139	139	5
119	150	1
107	108	2
72	73	1
109	110	1
82	84	1
125	125	2
41	42	1
134	134	3
84	85	2
76	82	1
108	140	2
96	97	1
29	29	1
52	52	2
81	83	1
31	32	1
34	49	1
114	114	2
74	77	1
51	52	1
151	151	1
132	133	2
57	57	1
21	25	1
38	42	1
63	64	1
24	36	1
11	34	1
6	6	1
65	74	1
14	41	1
112	112	2
70	71	1
83	83	2
127	151	1
119	145	1
101	101	1
147	147	1
