234	234	2
210	210	7
33	33	2
190	190	3
172	174	1
173	173	4
17	17	7
107	107	2
213	238	1
217	217	6
184	184	4
24	222	2
94	95	5
108	110	5
18	20	4
14	14	9
161	170	1
40	40	8
175	175	6
46	46	10
66	66	7
180	181	3
230	230	3
169	169	7
88	88	2
153	153	10
10	26	3
242	242	3
230	231	2
65	65	4
76	199	1
100	101	4
53	53	1
7	7	7
73	73	9
151	151	4
183	192	2
92	92	3
180	180	3
117	117	5
51	51	6
221	221	5
163	165	2
164	164	3
43	43	6
179	189	4
186	225	3
200	201	2
192	192	5
120	120	1
158	169	7
224	224	2
171	172	1
210	213	2
112	112	11
41	43	2
56	56	2
4	35	1
26	27	3
104	107	1
170	170	8
204	205	3
184	185	3
29	30	2
150	178	3
78	78	11
203	203	4
43	53	3
101	101	2
105	107	2
45	45	1
72	72	3
98	98	3
174	174	1
161	162	3
34	34	4
91	91	9
115	115	11
179	179	5
80	80	2
182	182	12
222	222	3
114	114	6
166	221	2
236	237	3
225	225	5
220	221	4
93	93	7
227	227	3
217	218	2
52	52	9
162	203	2
94	94	4
232	233	6
238	240	1
19	19	5
211	211	2
68	68	3
231	231	4
236	241	2
211	212	5
240	240	4
231	232	4
196	222	1
175	176	1
236	236	4
57	57	4
39	40	1
55	55	6
213	213	3
219	219	1
156	156	8
23	23	6
208	208	1
102	102	3
177	177	2
160	160	3
233	233	2
198	199	2
180	192	3
157	157	10
71	246	1
200	200	3
246	246	3
28	30	4
171	171	1
153	162	2
163	166	4
165	218	2
193	193	7
204	204	2
19	44	1
3	54	2
183	183	4
182	183	3
215	215	4
38	39	5
187	187	2
81	91	2
203	204	5
67	67	3
202	203	2
58	63	1
30	30	2
216	216	2
212	212	2
90	91	3
22	22	4
217	219	3
29	29	3
205	205	3
101	104	1
74	74	3
2	2	3
76	77	4
243	244	2
11	11	6
50	97	1
162	202	3
2	3	1
103	104	3
32	32	4
58	58	3
82	82	4
5	16	1
196	221	3
50	50	1
80	81	1
226	227	1
108	109	4
64	66	2
147	147	2
152	162	1
61	62	1
245	245	3
241	241	8
31	31	3
58	59	1
59	59	3
199	199	3
6	6	2
220	220	1
149	149	4
196	196	2
245	246	2
165	165	2
49	49	2
24	27	2
179	182	1
119	119	4
4	4	3
160	161	2
83	84	3
85	85	1
191	191	3
37	37	3
64	64	4
5	5	5
71	71	2
88	115	3
28	29	3
45	52	1
109	110	1
177	189	1
224	242	1
163	163	1
207	207	7
42	43	2
235	236	2
104	106	3
51	94	2
214	220	1
9	9	1
61	114	1
99	100	1
185	190	2
166	166	7
212	214	1
84	86	1
95	95	1
97	97	1
41	41	2
218	218	1
233	235	1
223	237	2
161	161	1
104	104	2
164	190	2
63	113	1
61	61	2
85	86	1
37	45	4
192	194	1
44	44	6
202	202	5
221	229	1
153	154	1
157	196	1
222	223	2
205	230	1
69	69	1
67	111	1
201	201	1
51	110	1
75	198	2
9	31	2
194	195	1
78	197	2
62	62	1
151	152	1
79	79	2
21	22	2
105	105	3
150	150	2
81	82	1
206	206	1
119	145	3
183	193	1
177	180	1
25	25	4
153	176	1
218	219	2
212	213	2
7	15	1
45	48	2
51	95	1
146	147	1
106	106	1
28	28	1
116	116	2
48	48	1
35	35	3
60	60	2
8	31	1
42	47	2
188	208	1
50	94	2
240	241	1
237	237	1
168	168	1
12	12	1
206	207	2
95	200	1
171	197	1
188	189	1
195	195	1
4	34	3
167	229	2
27	27	3
209	209	1
64	65	1
54	116	1
111	111	1
83	83	1
89	89	1
22	24	1
9	27	1
53	102	1
90	90	1
178	179	1
170	171	1
186	186	1
167	168	1
185	185	1
28	212	1
59	65	1
60	62	1
210	211	3
193	194	1
84	85	1
70	70	1
246	247	1
118	118	3
216	217	1
15	15	1
119	120	1
84	84	1
155	155	1
172	172	1
157	197	1
72	244	1
178	178	1
39	43	1
202	227	1
10	10	1
13	13	1
214	215	1
11	14	1
