146	146	2
79	87	1
0	1	1
157	170	1
129	129	2
149	149	3
161	161	5
159	162	2
69	69	4
136	136	11
102	102	4
106	106	7
140	140	2
124	160	1
74	86	1
14	15	3
131	132	5
71	71	13
130	130	5
122	130	1
138	138	5
70	70	5
72	72	1
17	17	15
117	117	2
153	153	2
42	43	3
113	114	4
9	9	1
40	40	3
78	86	6
104	105	3
18	45	3
110	110	5
124	156	2
7	64	3
147	147	1
167	168	2
57	57	5
169	169	1
114	114	3
122	122	6
25	25	6
28	28	2
47	47	6
89	89	3
15	15	3
109	110	3
99	99	4
155	155	2
56	56	6
107	134	3
139	139	10
137	137	2
98	98	1
82	82	4
163	164	4
143	143	6
125	125	1
156	156	3
159	159	4
158	159	1
3	3	4
36	37	3
92	92	2
126	127	4
18	18	6
5	71	2
119	136	4
144	144	2
24	25	1
50	50	3
164	164	2
23	24	3
103	103	2
99	120	2
21	23	1
83	83	1
115	116	3
11	11	3
36	36	5
151	152	1
81	81	1
66	66	4
102	113	1
124	161	1
77	79	1
35	144	1
47	48	4
135	136	4
123	123	3
74	74	2
5	57	2
141	141	7
124	125	5
48	48	3
160	160	4
107	108	5
48	49	5
1	2	4
87	88	3
94	94	3
52	53	1
128	128	6
93	93	2
111	135	2
80	117	3
151	151	6
105	112	1
103	104	1
142	142	2
36	139	2
101	102	3
26	26	4
0	0	2
64	64	3
16	17	1
163	163	1
5	86	1
79	79	4
149	150	2
127	127	3
33	33	1
128	144	2
15	43	1
130	153	1
150	150	4
131	131	3
21	21	3
44	44	6
121	136	1
78	87	2
170	170	1
37	37	3
22	22	5
78	78	2
152	153	1
142	145	2
74	75	9
166	168	1
20	20	5
96	96	4
42	42	4
143	144	2
73	73	2
100	100	2
27	27	2
165	165	1
111	112	4
158	158	4
16	43	1
130	142	2
13	13	4
33	35	1
43	43	3
129	130	5
66	67	1
132	132	1
112	112	5
130	141	3
88	89	5
52	52	3
168	169	1
41	42	3
161	165	2
118	118	2
168	170	3
18	22	1
100	137	1
105	117	2
50	51	2
8	8	1
157	158	1
80	80	1
45	45	1
7	7	1
4	4	2
109	109	2
5	5	3
1	37	3
97	97	2
53	53	1
141	147	1
89	143	3
15	16	1
106	110	1
117	119	2
1	1	1
126	126	2
140	142	2
11	54	2
19	51	1
45	46	1
120	120	3
1	118	2
134	135	2
150	151	1
119	119	1
35	138	1
138	139	1
89	91	1
54	54	1
16	28	1
41	41	2
62	63	2
145	147	1
154	154	2
45	76	1
161	169	1
96	97	2
33	34	1
167	167	1
84	84	1
135	135	2
38	39	1
84	85	1
34	34	1
152	152	1
140	141	1
37	38	1
47	94	2
21	25	2
10	10	1
95	95	1
75	75	3
137	140	1
23	23	1
137	138	1
136	140	1
144	145	1
85	85	1
65	65	1
137	139	2
115	115	1
108	108	1
136	137	1
