147	147	2
6	6	2
2	2	5
129	129	10
126	126	5
11	14	4
164	164	21
102	128	3
90	90	4
6	7	10
158	158	6
11	11	6
34	34	3
16	19	1
104	159	11
14	43	2
143	143	2
36	36	3
43	43	1
149	149	6
68	81	5
22	35	2
119	119	4
40	58	9
25	52	4
105	105	5
125	158	2
44	44	1
166	167	2
62	110	11
3	3	2
92	130	3
92	92	5
13	13	2
137	137	4
152	153	1
85	86	2
66	66	5
101	101	2
86	86	2
150	151	1
121	122	2
168	168	3
18	18	2
133	133	3
53	54	4
169	169	3
85	85	1
18	23	1
163	163	6
142	144	1
8	23	6
106	106	7
0	3	4
7	7	9
9	17	1
109	110	2
108	108	6
107	108	5
132	132	2
74	75	1
138	159	3
26	26	3
142	143	4
118	118	3
24	46	4
12	12	4
154	161	1
100	102	1
136	136	6
153	166	1
140	140	5
80	85	2
170	170	3
82	82	5
47	47	2
165	165	6
91	94	2
154	157	2
21	35	2
3	7	5
10	12	3
148	149	1
37	38	2
141	141	4
2	3	3
57	57	4
48	49	4
55	56	2
11	17	3
10	11	3
4	4	2
1	1	12
64	88	1
102	102	2
127	127	2
65	77	2
48	48	1
54	55	7
136	138	4
97	97	5
130	162	3
103	103	1
150	150	3
107	107	1
14	14	3
39	39	7
109	114	3
157	158	1
98	99	4
155	157	2
125	149	3
129	130	4
80	80	4
81	81	2
146	162	2
78	78	1
52	53	4
11	36	1
68	68	7
40	40	1
147	160	1
20	21	3
92	133	1
38	150	4
88	88	1
27	27	2
112	112	2
140	141	1
69	70	1
98	105	1
73	73	3
10	10	5
153	170	3
45	45	2
62	62	3
54	77	4
75	75	2
93	123	2
9	36	2
83	83	1
22	22	6
94	95	3
5	5	4
137	163	2
128	129	1
124	127	3
20	20	2
74	74	2
76	76	1
10	43	5
55	55	4
104	149	2
110	110	1
69	69	4
42	42	3
98	98	1
122	127	1
0	1	2
136	137	1
134	150	1
17	38	2
8	17	3
109	109	2
167	167	2
11	12	3
54	54	4
125	125	2
151	151	4
53	109	1
47	57	2
89	89	1
142	145	2
69	80	1
138	138	1
8	20	2
113	113	3
154	154	1
33	33	3
34	35	3
121	121	1
95	112	1
20	38	2
12	14	4
134	151	1
125	155	1
94	96	1
120	125	3
35	35	3
106	107	1
112	113	3
91	92	1
37	39	1
15	15	1
15	16	2
8	8	3
70	71	1
41	41	1
28	28	1
152	152	1
53	55	4
115	130	1
69	81	1
107	152	1
104	139	1
9	39	1
79	80	1
167	168	2
115	117	1
50	50	2
164	165	1
156	163	2
153	154	1
40	51	1
15	58	1
93	94	1
44	151	1
49	50	1
159	159	1
118	121	1
106	128	1
14	16	1
137	164	1
116	116	1
