124	124	12
113	113	11
25	25	2
130	130	10
30	32	4
125	125	9
84	84	4
8	8	13
71	71	13
80	80	4
81	91	3
20	21	2
31	31	8
63	63	7
95	97	4
107	107	11
103	103	10
133	133	5
35	35	4
127	127	14
20	20	9
39	40	2
30	30	3
39	39	9
83	83	7
35	37	6
44	44	15
33	33	13
66	66	4
9	9	13
59	60	7
73	73	12
66	68	2
62	62	10
72	72	4
64	64	13
65	65	10
107	108	5
108	109	5
68	68	3
58	63	3
2	2	5
3	56	5
120	121	11
91	91	6
48	48	13
132	132	5
95	100	5
79	79	7
46	47	1
3	3	2
22	22	2
3	19	6
106	107	5
106	109	4
13	13	9
74	74	15
41	42	5
82	86	3
15	15	7
123	126	1
110	110	6
40	41	7
34	34	1
111	123	5
0	0	9
56	57	6
126	126	14
77	77	4
58	59	4
70	70	6
56	58	2
69	70	2
60	74	3
44	86	1
87	87	3
50	55	3
27	27	11
2	3	3
118	119	1
40	40	2
20	22	1
98	98	3
24	24	5
36	36	6
16	16	2
37	37	4
86	86	6
56	56	4
14	17	2
22	26	4
67	68	1
14	14	6
66	67	3
114	114	3
109	109	5
92	92	6
131	131	2
120	122	4
61	62	5
23	24	3
105	107	2
41	41	7
42	42	5
65	66	6
64	94	4
0	77	1
78	80	1
45	46	1
28	28	1
95	95	8
31	32	8
95	105	4
128	129	4
75	75	4
61	61	9
101	101	4
77	78	5
17	18	4
38	38	2
100	101	5
47	47	4
109	110	1
55	55	5
82	83	7
90	93	3
90	91	6
57	57	8
58	75	1
132	133	4
123	123	8
58	91	4
19	19	4
108	108	6
121	126	4
1	1	1
97	97	3
47	78	2
18	18	8
12	23	3
6	6	6
116	116	4
37	38	1
99	100	5
60	60	3
123	124	1
81	83	2
81	81	2
113	115	3
45	45	2
84	85	3
85	85	3
82	82	3
1	2	1
80	81	1
102	102	8
119	133	2
128	128	2
120	120	5
124	130	1
39	42	3
23	23	1
7	7	10
59	76	1
21	22	3
16	17	3
129	129	3
76	76	1
58	58	6
93	93	7
121	121	1
11	11	2
13	14	1
76	77	2
38	40	4
12	12	4
42	55	3
94	94	1
94	96	2
82	91	4
32	32	3
71	72	2
67	67	6
48	50	1
69	69	4
100	103	2
29	29	2
104	105	2
56	91	1
114	117	2
46	79	1
94	95	3
36	43	4
106	106	7
29	30	1
125	126	1
117	117	7
111	111	2
112	114	1
100	100	5
9	17	1
10	22	1
4	17	1
91	92	4
10	12	2
121	122	1
75	77	2
114	130	2
112	112	3
90	90	2
15	16	1
12	14	2
122	122	2
4	27	1
4	4	2
57	58	1
84	93	2
21	21	5
38	42	1
28	29	2
78	78	3
37	42	1
21	28	1
24	25	1
134	134	1
1	3	1
69	77	1
123	134	1
96	97	2
31	33	4
10	10	2
99	99	1
97	98	2
5	5	1
115	115	1
128	130	1
115	116	1
83	96	1
110	112	2
95	98	1
28	30	1
27	29	2
117	118	1
119	119	1
112	113	1
46	46	3
85	86	1
76	85	2
16	19	1
116	120	1
10	18	1
46	63	1
