17	17	2
68	103	3
67	77	1
23	25	5
78	78	7
43	43	3
23	23	2
111	113	3
12	12	4
115	115	5
70	71	3
111	111	4
36	37	3
5	5	7
99	101	5
113	114	2
86	88	7
106	106	7
20	25	1
54	55	2
53	53	3
3	32	6
16	17	6
97	97	11
22	22	2
13	15	3
18	21	1
131	131	2
8	9	1
56	59	4
92	93	3
62	63	2
59	80	1
7	7	4
117	117	3
91	91	10
132	132	3
87	131	3
75	75	3
64	64	3
87	87	8
77	114	3
109	109	4
56	57	1
26	27	2
4	31	2
8	8	2
76	76	4
90	91	2
58	58	9
15	15	5
1	37	5
105	106	1
71	75	2
73	73	4
83	85	1
110	112	2
22	31	1
124	124	5
16	16	2
61	65	2
68	69	1
9	10	3
54	54	2
118	118	5
56	56	2
44	118	1
82	82	3
59	59	5
88	88	2
52	127	5
122	122	3
30	31	5
73	74	6
19	19	7
110	110	2
108	108	3
60	61	2
113	113	9
58	114	1
29	30	5
66	66	5
49	49	4
107	116	1
72	74	2
57	127	1
45	133	4
98	98	11
60	60	3
17	18	5
50	51	1
66	79	2
123	123	4
110	111	2
63	65	2
108	110	1
50	50	2
82	83	10
44	60	1
100	100	13
116	116	1
32	32	3
102	102	7
98	106	1
33	33	2
89	90	1
31	31	2
28	29	2
3	4	2
21	33	2
19	20	1
74	135	1
87	88	5
0	0	6
76	77	2
34	34	5
18	19	1
99	99	4
1	1	2
27	27	2
36	36	7
101	101	3
48	81	4
69	77	2
28	28	3
114	116	1
125	126	3
107	118	5
108	109	2
106	107	1
92	104	1
103	103	4
11	126	2
112	118	3
52	54	2
18	18	1
96	106	4
44	133	1
77	78	3
26	26	6
2	34	1
6	130	1
72	126	1
63	63	5
13	13	2
0	1	1
112	113	2
72	72	6
120	122	3
84	84	3
46	53	2
13	14	6
121	121	3
43	134	2
56	80	3
45	53	3
30	30	2
80	80	4
108	117	1
5	35	1
105	105	4
80	81	2
79	79	3
71	72	1
114	120	4
14	15	2
35	35	6
130	132	1
134	134	3
6	6	1
81	81	2
10	10	3
96	97	4
12	15	3
49	50	1
108	111	1
130	130	3
115	116	2
133	133	4
20	20	2
4	4	3
107	115	2
68	78	1
96	96	2
63	64	2
61	62	2
69	86	2
72	124	2
50	129	1
38	123	1
92	92	6
75	76	3
71	74	1
33	34	3
98	105	2
24	31	1
95	120	1
103	121	4
84	86	6
7	8	3
79	111	1
55	119	2
83	83	2
114	115	4
22	24	5
71	84	4
24	24	3
62	62	4
48	103	1
53	54	4
52	52	3
72	125	1
99	100	5
60	68	1
12	14	4
110	115	1
2	2	3
42	43	1
83	132	1
81	83	1
89	135	2
0	2	1
114	114	2
109	110	1
84	135	1
52	53	3
94	94	1
23	30	1
126	126	4
97	98	1
48	51	1
83	86	1
121	122	1
5	6	3
127	127	4
25	26	2
106	118	1
84	132	2
45	50	1
86	86	3
124	125	1
44	44	1
43	52	1
91	93	2
35	36	1
59	79	2
6	7	4
105	122	1
68	68	2
121	124	3
121	123	2
128	128	1
11	11	2
55	59	1
120	121	2
6	134	1
131	132	2
125	125	2
132	135	2
42	44	2
57	111	1
25	25	1
123	124	1
81	82	1
48	87	1
84	85	2
42	127	1
74	74	2
2	36	1
83	84	2
114	118	1
122	123	3
59	111	2
119	119	1
45	49	1
85	86	1
103	104	1
59	81	1
65	66	1
45	45	1
15	36	1
73	91	2
14	23	1
67	68	3
103	123	1
11	37	1
67	67	1
72	84	1
62	66	1
68	80	1
117	118	1
66	77	1
116	123	1
124	126	2
127	129	1
16	126	1
129	129	2
71	104	1
1	12	2
94	95	1
69	69	1
95	118	1
111	123	1
52	128	1
104	126	1
74	104	1
102	124	1
57	57	2
61	61	1
17	123	1
