147	156	1
44	44	1
91	113	2
22	22	4
155	155	8
126	126	6
14	14	4
110	110	7
20	27	4
152	154	2
94	159	1
122	151	2
67	103	2
52	52	4
141	145	3
96	96	1
15	21	3
68	68	1
147	147	8
55	55	5
29	29	7
122	122	3
90	91	6
111	111	11
10	10	10
94	105	3
137	151	5
5	5	6
98	105	2
120	134	5
103	105	1
156	156	7
40	55	2
101	110	2
122	157	1
109	109	6
152	152	3
141	142	5
31	33	1
48	48	5
95	96	2
77	90	3
123	123	3
9	36	4
99	103	3
104	105	1
71	71	5
76	77	1
82	90	2
37	57	3
89	89	12
109	122	2
5	15	1
158	158	6
81	83	2
65	65	5
141	144	6
157	157	6
43	43	3
144	144	5
54	54	8
68	69	1
83	91	2
93	93	4
28	28	11
115	115	1
30	30	4
111	112	5
4	40	3
104	104	7
18	70	1
17	41	6
41	46	2
124	124	6
66	66	12
106	106	4
124	142	2
87	87	9
125	127	1
42	42	3
70	71	3
71	72	1
79	79	2
132	155	5
100	104	3
98	98	4
24	24	3
27	27	4
73	73	5
14	31	4
117	117	6
138	151	4
63	63	5
42	46	2
148	152	3
99	140	3
23	23	6
12	12	1
85	87	2
136	136	4
103	103	10
106	108	1
78	78	6
48	49	4
37	38	1
116	127	1
47	48	3
45	45	8
67	67	9
115	119	1
85	90	3
28	33	3
113	127	2
153	153	6
12	22	1
108	111	1
13	14	7
8	28	8
83	105	1
12	13	1
135	135	2
15	34	4
78	94	1
26	26	4
26	27	3
54	55	1
103	104	1
97	113	2
141	143	1
25	25	3
120	136	3
113	118	2
139	144	2
122	154	1
116	118	1
150	150	7
80	80	1
72	73	2
125	125	3
50	50	8
3	14	2
23	24	3
130	131	3
94	94	3
41	41	3
13	19	1
139	143	1
132	134	1
98	114	5
70	89	2
117	126	1
85	99	6
121	128	2
77	78	2
127	142	1
124	125	2
132	132	4
0	2	2
35	55	2
65	79	3
139	139	4
84	84	3
115	117	4
125	137	2
76	76	3
120	120	4
2	2	3
95	116	2
98	113	3
114	118	1
132	152	2
6	7	2
81	81	3
77	77	3
91	93	1
34	36	4
97	112	1
32	36	2
19	20	1
20	20	4
129	131	1
91	91	4
127	127	3
4	17	2
105	126	1
105	116	2
144	147	2
145	146	3
142	142	1
18	18	4
48	54	2
7	8	2
98	118	5
10	24	1
106	145	4
9	9	1
120	137	2
23	35	2
81	87	1
47	47	2
39	39	3
148	157	1
37	54	1
142	154	1
126	144	2
126	158	2
17	17	2
102	110	1
121	140	1
73	84	4
50	54	2
42	57	1
94	98	1
108	110	7
97	98	3
132	153	2
63	70	3
127	128	1
80	90	1
85	85	6
64	64	4
21	21	3
31	31	4
149	156	1
19	19	1
70	70	2
29	44	1
156	157	1
32	32	2
100	100	1
2	6	2
1	1	2
6	6	5
18	19	2
73	75	1
9	29	2
14	20	1
112	136	1
154	154	2
8	8	3
97	97	2
149	149	1
44	48	1
91	105	1
0	0	6
93	95	1
137	149	2
114	137	1
3	3	1
88	88	2
144	145	2
140	140	6
66	73	1
149	157	1
21	22	1
145	145	1
145	150	2
30	45	1
140	142	2
21	34	2
113	114	3
40	51	4
133	151	2
131	131	3
101	121	1
86	88	1
4	49	1
19	23	2
35	39	2
38	55	3
10	11	1
113	113	1
3	46	1
81	82	1
36	37	2
75	75	2
124	143	1
34	34	5
138	157	1
23	33	2
3	40	2
34	37	1
40	40	1
87	88	1
3	4	1
111	118	2
69	69	5
116	116	1
53	53	1
10	16	1
83	83	2
18	69	1
15	28	1
117	134	1
146	147	3
56	56	1
142	145	2
107	107	1
81	96	1
49	54	1
104	138	1
13	13	2
148	150	2
38	57	4
21	84	1
7	7	2
12	34	1
128	132	1
38	38	1
84	89	1
96	112	1
63	79	2
33	51	1
46	52	1
0	4	1
33	33	3
35	36	1
0	6	2
137	152	2
11	14	1
134	134	2
51	54	2
139	155	1
131	133	1
130	148	1
55	56	1
129	129	1
92	92	1
153	157	1
122	132	1
138	155	1
96	114	2
95	95	1
129	130	1
8	34	1
85	103	1
152	155	1
51	52	1
46	46	2
106	107	1
86	98	1
24	38	1
4	8	1
0	55	1
73	83	1
113	131	1
122	135	1
25	26	1
99	106	2
24	26	1
11	32	1
72	81	1
149	158	1
105	110	1
66	67	1
10	18	2
112	112	1
7	9	1
16	16	1
121	130	1
135	152	1
133	133	1
50	52	1
131	151	1
35	50	1
15	17	1
25	31	1
