128	134	3
156	156	13
129	129	21
90	90	10
64	65	2
101	102	4
83	84	19
158	158	15
5	5	8
126	126	8
15	15	8
118	119	5
104	104	8
44	44	19
17	24	3
108	108	7
114	114	10
6	6	9
2	2	8
27	27	7
130	130	15
38	38	13
93	93	12
137	137	19
78	78	9
65	65	9
138	138	14
103	141	2
168	168	10
39	40	6
152	152	13
156	157	7
71	71	19
128	129	8
21	21	10
21	24	4
52	52	19
82	82	6
151	151	13
119	126	1
42	42	30
82	83	2
20	20	10
4	4	12
13	15	1
79	79	10
87	125	2
97	97	4
111	111	9
26	26	9
51	56	2
86	86	6
72	72	7
49	49	4
139	139	8
13	13	10
115	115	9
37	37	7
148	148	3
36	36	8
43	44	6
119	119	16
157	157	3
18	18	23
155	155	14
164	164	7
91	91	8
26	27	5
13	14	8
9	9	7
112	134	3
35	35	30
99	99	7
131	131	9
47	47	16
116	117	7
34	34	24
83	83	6
137	141	1
100	101	6
15	70	4
110	111	5
25	25	7
8	8	5
119	120	5
45	57	2
110	110	10
106	106	7
157	158	4
170	170	8
95	95	8
87	87	9
42	44	3
33	34	5
12	12	8
6	7	7
162	162	8
169	169	2
43	43	17
57	62	5
3	3	9
74	74	8
145	147	1
1	1	15
128	154	2
103	104	3
48	48	10
66	67	5
37	38	8
54	54	9
56	56	10
10	11	1
136	136	17
102	103	3
154	154	9
114	151	1
151	154	1
39	39	6
90	91	6
118	118	5
55	55	17
66	68	3
161	161	11
95	98	2
123	124	2
33	33	3
125	125	6
89	90	4
150	151	7
42	87	1
73	73	3
147	147	6
144	145	5
81	81	7
138	150	4
37	43	2
7	7	11
142	142	8
80	80	7
146	146	9
17	20	4
50	50	10
0	1	4
92	94	2
96	97	2
140	140	10
20	56	3
79	122	4
105	157	3
45	47	1
13	16	1
109	109	13
145	146	4
127	139	3
117	167	3
166	166	2
89	91	1
108	109	5
102	102	15
143	144	4
45	46	1
120	120	6
22	22	14
11	12	6
132	132	9
160	160	14
22	23	2
153	153	2
40	40	3
114	115	1
109	114	3
95	97	1
163	164	4
2	7	2
123	131	1
133	133	14
123	123	2
44	81	2
105	105	7
111	112	4
16	16	9
137	138	8
53	53	14
64	64	4
41	42	2
46	49	1
145	145	13
150	150	19
72	73	3
95	100	3
92	92	5
121	121	10
132	133	3
45	52	4
73	75	1
107	107	14
50	58	2
112	112	13
81	82	2
35	36	5
152	153	2
154	155	4
10	10	11
20	129	1
49	56	1
99	100	1
17	70	3
84	84	14
34	110	5
45	45	3
85	86	3
159	159	6
10	16	3
98	98	7
135	136	3
162	165	9
85	155	1
128	153	3
76	76	11
97	98	2
98	99	1
113	113	6
8	10	1
85	85	7
12	13	3
87	96	1
112	167	3
135	137	2
18	68	1
11	11	10
114	125	1
74	75	8
7	8	3
39	64	1
2	44	3
27	28	2
75	76	1
42	43	3
17	17	11
106	107	1
129	149	1
62	63	5
103	103	4
52	56	4
101	103	1
24	25	3
19	19	8
91	92	2
113	128	1
7	21	1
139	140	6
130	146	1
41	58	1
79	80	3
118	135	6
159	160	2
44	45	2
144	144	6
165	165	3
141	141	4
158	159	3
50	51	1
101	101	10
67	69	2
122	160	4
62	76	3
4	5	4
70	70	7
66	66	7
105	106	6
155	157	5
58	77	3
69	71	3
100	100	7
34	35	1
34	111	1
101	105	2
9	10	4
67	67	11
138	142	2
24	24	5
127	127	5
155	156	5
112	131	2
2	43	1
161	162	1
88	88	9
143	143	12
4	7	1
69	70	8
5	50	3
17	18	2
68	69	1
75	75	6
23	23	5
95	96	2
77	78	2
84	86	2
14	14	5
41	41	2
99	128	1
134	135	5
108	137	2
105	108	1
21	22	7
94	118	2
1	2	1
122	122	3
87	93	2
24	46	3
67	70	2
128	159	1
135	135	4
109	110	5
114	152	1
94	94	4
124	124	9
127	128	5
128	128	10
157	168	1
112	113	3
15	16	1
116	136	1
124	154	1
76	154	3
114	154	4
167	168	1
140	141	1
63	144	1
131	146	2
86	105	2
167	167	4
112	119	1
51	51	3
106	126	2
40	41	1
34	168	1
20	22	3
122	134	2
162	163	4
76	97	2
126	152	1
22	39	1
138	139	1
80	82	6
107	119	1
95	165	1
88	90	2
115	116	2
4	10	1
11	13	2
67	68	1
149	149	10
88	89	1
107	131	1
51	52	2
46	81	1
113	162	1
90	170	3
137	151	3
5	6	3
99	130	1
94	105	2
89	94	2
115	136	1
87	88	2
86	95	4
112	163	2
107	108	5
43	90	2
57	57	7
85	92	2
56	70	1
114	116	5
163	163	4
148	149	4
136	142	1
150	158	1
19	20	2
3	70	2
57	75	2
93	94	3
131	160	1
89	89	7
108	136	1
24	38	2
86	87	4
149	150	2
133	138	1
128	130	2
112	114	2
25	81	1
96	96	2
95	124	1
68	84	1
116	116	2
152	154	1
128	155	1
138	144	1
140	144	2
46	46	3
74	161	1
125	128	2
68	75	1
28	28	2
3	67	1
118	121	1
136	137	1
56	82	1
125	126	2
81	92	2
146	147	3
28	41	1
19	80	2
167	169	1
65	75	1
54	58	1
151	157	1
137	139	1
14	15	2
105	151	2
20	21	4
104	127	1
20	72	1
20	55	1
70	71	1
117	136	1
133	134	2
106	149	1
165	169	1
117	135	2
18	23	3
75	97	2
119	129	1
99	106	1
8	9	1
38	39	1
117	117	2
48	56	2
147	148	3
108	110	1
139	144	1
25	124	1
62	62	1
96	121	2
53	54	2
94	125	2
160	162	1
136	138	1
73	74	1
130	131	1
97	122	1
71	160	1
6	11	1
112	128	1
77	77	1
3	46	3
18	55	1
64	83	2
112	166	2
80	87	1
100	104	1
108	149	1
25	27	1
68	72	2
52	53	2
121	122	1
140	159	1
47	49	1
134	134	1
115	142	1
112	155	1
119	160	1
156	168	2
129	151	1
18	82	1
13	140	1
28	73	1
78	125	1
33	36	1
91	94	1
141	143	1
0	0	1
53	55	1
116	166	1
91	93	1
0	57	1
76	83	2
126	162	2
69	69	1
6	65	1
114	117	1
41	84	1
