37	37	14
84	112	7
69	69	15
64	70	3
52	124	1
148	148	13
22	22	15
140	140	10
74	77	1
175	180	3
177	177	11
107	107	12
84	84	10
15	17	6
138	138	4
127	127	13
167	167	7
19	19	10
43	43	11
28	29	8
110	110	6
77	77	10
175	175	2
20	20	11
130	133	1
128	129	2
134	135	6
47	47	6
85	112	5
21	21	16
14	14	8
5	5	5
143	143	9
34	38	4
35	38	3
11	25	3
46	47	2
34	34	13
122	122	23
13	16	2
28	28	17
154	154	5
56	71	4
128	141	5
181	181	8
162	162	13
180	182	4
119	143	2
93	95	4
134	134	15
129	129	5
134	137	4
101	101	11
95	95	9
33	72	1
183	183	9
120	134	8
127	133	5
54	54	11
193	193	6
35	62	6
99	99	12
196	196	10
106	106	17
93	94	5
46	46	10
35	35	27
25	25	6
58	60	1
137	139	3
57	58	2
50	50	7
105	106	4
165	165	9
159	160	13
189	189	15
88	105	6
194	195	4
112	112	11
42	42	17
44	44	9
63	63	11
159	159	23
67	68	3
118	118	7
160	160	2
19	20	5
41	41	11
18	191	2
4	5	7
39	39	11
10	45	8
26	27	4
168	168	11
107	108	6
173	173	10
55	56	5
88	89	11
176	180	2
124	124	7
26	26	8
60	60	6
40	77	2
18	18	12
187	187	16
103	103	14
38	38	9
166	167	4
117	117	11
123	123	11
141	141	10
190	191	3
190	190	7
94	95	13
166	166	9
112	114	1
61	61	10
155	155	3
59	79	1
170	170	3
48	48	22
40	41	4
188	188	10
64	64	10
24	24	8
59	59	1
26	28	1
8	25	1
116	117	17
13	13	12
100	100	8
43	48	2
164	164	12
70	70	15
73	75	1
49	49	20
85	85	7
130	131	6
152	152	23
81	83	11
51	52	3
31	32	7
101	102	2
125	125	8
65	69	4
52	52	11
16	16	4
48	56	3
59	60	6
99	157	4
7	8	4
73	73	8
75	75	4
186	186	7
181	183	2
53	124	2
43	75	5
143	146	1
126	126	11
145	145	3
95	100	4
123	124	15
3	4	5
178	181	3
176	181	2
78	111	3
86	112	1
78	81	1
13	14	3
107	112	3
103	146	2
135	136	4
44	48	2
45	48	1
0	2	2
160	161	5
20	21	3
38	63	2
171	185	3
99	151	1
66	66	7
173	175	8
68	68	11
17	17	6
111	111	12
144	144	9
176	176	4
132	132	5
165	166	6
40	40	11
138	140	4
154	164	4
184	184	20
156	156	4
86	86	15
23	23	10
158	158	6
58	58	14
166	187	2
1	1	6
9	9	6
115	115	7
16	169	3
164	165	3
83	115	4
53	53	10
45	45	10
153	153	6
139	139	4
12	45	3
62	62	9
167	171	4
135	135	6
120	120	5
132	133	7
82	82	5
109	109	7
197	197	4
74	74	3
87	87	8
67	67	14
101	151	2
23	145	1
64	68	3
119	119	5
119	120	2
55	55	11
188	189	4
142	146	4
164	167	1
110	123	2
78	79	7
133	133	5
80	80	12
54	56	4
155	160	2
89	89	2
76	76	3
33	33	7
77	78	3
171	173	2
108	108	9
95	101	2
2	2	12
21	23	1
32	32	9
182	182	5
20	147	5
126	140	2
126	127	4
146	146	3
192	193	5
7	25	7
0	0	8
59	73	1
84	87	5
102	146	2
116	116	5
81	81	12
177	178	7
83	112	4
147	147	7
65	66	3
142	142	13
169	169	21
39	40	5
161	161	2
43	44	4
17	18	1
122	126	4
37	70	8
192	192	14
38	39	3
168	169	6
82	83	5
113	113	12
150	150	7
179	179	9
53	56	1
127	135	4
44	45	1
54	57	3
1	189	2
72	72	2
35	36	4
20	146	1
110	111	1
111	112	6
28	30	2
162	163	2
81	82	8
61	62	7
171	171	7
47	48	2
61	63	3
154	170	2
75	78	1
130	132	6
2	189	3
78	115	1
129	131	3
6	6	6
27	27	5
115	193	3
94	94	4
130	130	10
4	4	2
133	134	3
102	102	10
2	19	1
83	83	6
151	151	2
170	171	8
79	79	7
165	168	1
64	65	7
155	156	12
14	17	2
24	114	2
14	139	3
124	125	1
110	112	1
126	135	7
7	23	6
152	153	3
33	35	2
96	96	4
61	83	1
11	11	8
80	81	3
12	12	7
119	133	3
131	132	5
56	56	4
39	73	4
191	192	8
153	192	2
97	97	3
122	123	2
30	30	3
59	61	3
85	86	2
8	9	1
177	179	3
157	157	4
6	26	2
161	164	2
57	57	5
66	67	4
78	78	4
104	117	2
16	195	1
151	152	2
98	98	3
166	189	2
121	126	3
27	42	2
88	88	2
90	90	2
8	42	1
23	42	2
139	140	3
176	177	2
43	74	3
161	163	6
142	147	3
71	71	6
36	36	8
94	96	3
51	51	6
60	61	2
11	12	3
5	25	4
157	158	2
143	144	4
31	31	9
2	191	1
168	190	4
174	176	2
163	163	5
22	23	2
51	53	1
175	176	2
7	7	3
10	10	5
50	51	4
174	174	2
172	174	1
20	104	3
56	57	2
3	16	2
9	44	2
119	135	1
36	38	2
102	103	2
32	72	2
156	157	2
93	130	1
180	180	2
40	42	3
195	195	1
180	183	1
114	114	4
141	144	2
33	36	2
160	162	2
136	136	2
182	183	1
61	75	1
113	118	3
48	49	1
149	149	4
112	113	1
96	99	1
186	187	1
29	31	1
95	96	2
109	110	2
105	132	2
48	54	1
134	145	2
125	129	7
168	170	1
77	110	5
111	113	1
131	131	1
83	85	1
104	104	1
2	188	2
174	175	3
196	197	7
168	187	1
172	172	2
35	40	2
66	69	1
49	50	4
128	140	1
178	178	5
156	192	1
118	134	2
195	197	1
70	71	2
72	73	2
149	150	1
83	84	2
102	104	1
3	190	3
140	141	1
9	42	2
15	15	5
51	128	3
164	192	1
54	60	2
121	121	2
76	83	1
185	187	1
8	8	3
75	76	4
171	172	1
71	72	3
173	174	2
180	181	1
55	61	2
163	167	1
114	118	1
161	162	3
115	118	1
193	194	1
185	185	2
61	64	1
65	65	4
30	31	1
86	87	2
104	105	3
185	186	3
143	150	3
187	188	2
159	161	2
121	135	5
32	33	2
64	69	1
16	17	1
127	137	2
55	73	1
102	190	4
161	173	1
74	114	1
7	22	2
0	3	2
24	42	1
11	136	1
136	138	1
14	136	2
25	26	1
162	173	1
134	143	1
58	59	1
191	191	2
136	137	1
60	64	1
89	90	1
108	109	1
120	125	2
161	172	1
88	90	1
3	3	1
9	24	1
50	114	1
34	36	1
100	151	1
33	34	1
128	128	1
76	114	1
76	78	1
142	143	1
82	84	1
54	55	1
49	120	2
96	98	1
16	139	1
137	137	1
5	6	1
148	149	1
2	190	1
45	46	1
