52	52	6
211	211	4
224	226	4
226	226	8
124	157	2
33	72	2
182	232	1
204	204	7
175	176	4
172	187	2
12	36	1
11	11	12
187	187	3
102	102	7
49	63	2
55	56	2
145	152	1
130	130	2
156	157	4
202	202	7
104	105	5
147	150	3
63	63	6
37	38	2
175	218	3
136	137	4
134	134	6
7	13	9
62	63	4
46	46	2
136	136	3
37	37	5
115	115	1
111	111	5
5	80	5
144	152	5
205	205	12
49	49	6
234	242	2
155	155	4
44	47	5
201	203	2
135	138	4
55	55	1
67	68	2
194	194	1
173	217	1
26	26	6
216	216	1
197	198	1
56	57	7
44	45	1
127	127	3
44	44	2
110	206	1
128	128	3
38	38	10
101	101	3
158	158	2
68	69	3
224	224	6
225	226	2
32	32	2
229	229	2
135	135	1
35	36	1
59	60	4
114	117	1
230	231	5
147	153	5
239	240	3
129	130	3
51	70	2
96	96	6
223	223	7
85	85	2
171	172	3
19	19	7
65	67	2
202	203	6
180	180	3
152	152	5
236	236	3
203	204	5
10	10	1
41	41	2
16	74	4
78	78	5
5	79	7
114	115	4
230	242	1
11	176	5
37	49	1
83	84	2
238	238	7
10	11	5
14	14	2
9	16	1
151	180	1
53	53	5
180	190	3
76	162	2
230	230	3
228	228	6
141	142	3
233	233	5
109	109	1
22	22	2
14	15	2
4	4	4
183	190	3
193	193	4
85	88	1
36	36	5
12	12	4
78	163	1
212	213	2
66	66	2
23	23	2
160	160	9
65	71	3
145	147	1
7	7	4
242	242	6
20	20	1
143	143	3
134	143	2
181	191	4
212	212	2
49	50	1
17	17	1
138	139	6
11	52	2
238	242	2
51	51	1
100	100	2
3	8	1
109	123	2
74	74	2
95	95	2
125	125	2
4	5	1
210	210	2
75	76	1
0	1	3
235	236	5
65	66	1
223	224	2
174	174	3
162	162	6
39	39	3
178	179	1
126	126	1
170	210	6
217	217	4
153	153	1
15	15	3
209	210	3
203	203	4
184	186	2
173	175	1
122	122	3
28	28	3
233	242	2
151	151	2
181	181	6
70	219	2
120	120	4
153	193	2
44	63	1
53	72	2
27	27	4
2	162	2
158	159	5
95	105	1
151	152	4
149	152	2
49	65	2
43	43	2
128	129	3
231	231	3
202	204	3
124	124	1
77	78	1
207	208	5
42	42	2
210	211	1
225	225	3
51	52	2
166	166	2
232	232	5
237	237	5
26	27	1
110	112	1
163	163	3
165	166	7
3	4	1
172	172	1
48	219	4
38	39	2
139	200	1
218	218	1
129	129	1
128	201	2
16	16	3
68	68	2
2	2	4
88	107	2
226	230	4
75	75	3
123	159	1
25	63	1
123	123	1
217	218	3
5	6	5
145	148	1
142	143	1
222	222	3
2	9	2
30	30	3
154	154	1
99	100	1
185	186	2
233	241	3
147	148	1
79	80	1
149	150	2
91	95	2
10	206	1
72	72	1
220	222	1
119	119	1
12	54	1
138	141	2
19	39	1
239	239	4
145	146	4
21	22	4
187	188	1
7	15	3
172	183	2
120	121	2
226	242	2
71	72	1
0	0	2
190	190	3
186	216	1
229	238	2
95	97	1
201	201	1
209	209	1
191	191	2
7	8	2
24	32	1
103	103	2
68	227	1
117	117	2
79	79	1
198	198	1
18	49	1
9	9	2
12	53	4
104	127	2
88	88	1
8	79	1
192	192	1
47	47	2
152	180	1
98	98	1
176	217	1
144	147	1
158	214	2
73	75	1
1	1	2
33	66	1
173	205	1
113	116	1
185	185	2
100	101	2
30	31	2
24	72	1
25	37	1
73	74	2
22	23	2
35	35	1
104	104	1
164	164	4
113	113	1
161	167	1
51	65	1
12	212	1
66	67	1
158	169	1
4	7	1
46	47	3
146	146	3
148	149	1
9	166	1
56	58	1
145	145	1
3	6	3
64	64	2
80	80	2
163	165	1
167	167	1
31	31	1
155	156	2
235	237	2
197	197	2
168	168	3
185	187	1
86	86	2
144	144	2
105	105	2
118	118	1
149	149	1
17	18	1
182	182	1
147	147	1
5	5	1
96	101	2
165	165	1
221	221	1
41	45	1
77	77	2
112	112	2
226	227	1
40	40	1
24	25	1
133	133	2
80	83	1
209	216	1
47	110	1
13	14	1
178	178	1
1	112	1
33	33	1
172	181	1
226	243	1
36	37	1
25	219	1
40	41	1
59	59	1
