39	41	2
53	54	8
36	36	11
111	112	6
105	106	6
52	52	6
62	62	10
77	77	18
167	168	5
117	119	8
56	113	3
5	5	12
117	117	9
61	62	12
153	154	6
147	147	6
37	38	3
142	173	1
78	79	6
111	111	16
159	159	12
21	21	8
14	15	4
173	173	16
56	56	5
145	159	2
60	62	5
18	19	9
113	113	6
55	95	1
28	30	3
102	103	11
4	4	12
27	28	5
60	60	13
188	189	10
102	102	3
34	35	10
163	163	16
131	131	5
120	120	9
135	137	1
22	22	13
123	123	8
16	16	13
187	190	4
115	115	14
66	68	3
99	100	3
28	29	1
105	156	5
20	21	4
152	152	15
134	134	17
58	62	1
8	8	11
161	163	3
106	106	8
148	150	5
13	13	7
110	110	8
3	3	8
65	66	5
62	63	4
109	109	11
26	26	10
38	38	4
100	172	1
114	114	10
68	68	18
179	179	6
145	145	6
66	122	1
13	18	4
88	88	9
184	184	15
172	172	13
137	177	2
115	116	2
170	187	2
108	109	4
136	137	5
187	187	11
124	124	5
135	136	2
72	72	13
11	11	8
130	132	7
104	104	7
89	102	3
46	46	12
160	160	8
61	190	1
113	118	4
103	104	3
61	64	1
97	108	3
151	151	23
174	175	2
99	99	8
140	140	7
141	146	1
105	107	5
128	128	3
103	103	13
109	110	3
155	155	9
6	6	8
166	166	8
89	90	7
19	21	7
95	95	18
43	43	12
58	58	10
20	41	1
80	80	6
16	103	2
74	74	10
183	184	2
122	122	5
164	165	8
147	148	9
103	180	3
57	60	2
88	102	1
131	177	8
168	168	14
147	149	2
142	174	2
79	79	12
101	101	6
78	85	3
165	165	14
76	76	7
182	183	7
47	47	7
118	118	11
17	18	8
19	19	20
13	103	1
100	100	10
84	84	4
73	73	5
96	96	19
19	20	3
82	122	1
75	85	1
59	59	6
60	121	2
94	94	12
188	188	16
24	80	1
154	154	8
83	83	4
174	174	16
148	148	6
181	183	1
18	18	5
183	183	6
31	31	8
179	180	8
57	58	2
10	40	2
54	54	7
152	153	2
48	48	22
95	96	6
2	2	9
77	126	2
81	82	5
53	53	11
113	114	6
158	158	7
160	162	3
20	20	15
40	40	9
82	82	17
1	1	9
7	7	11
12	12	14
138	138	9
71	71	6
67	67	11
15	15	2
112	114	3
167	172	3
137	138	5
45	45	19
27	41	1
112	115	1
88	90	2
45	46	1
156	157	6
87	87	11
114	129	3
146	146	11
110	116	1
150	155	4
145	165	1
142	142	5
180	180	4
173	174	7
43	44	6
107	107	8
176	177	6
97	98	5
57	120	3
151	152	5
105	105	14
86	86	6
73	124	1
94	152	1
93	93	18
182	182	13
22	23	2
168	171	2
85	85	2
82	99	3
156	156	6
64	110	1
63	64	9
84	86	1
15	16	7
0	0	7
185	185	6
153	153	12
0	1	5
163	164	12
23	23	12
34	34	5
128	147	2
59	63	3
149	149	13
161	162	4
89	89	10
150	150	13
169	172	1
80	107	3
94	107	3
150	151	1
78	78	17
66	67	1
150	176	5
120	121	5
125	127	2
146	174	2
134	173	3
10	10	16
149	152	1
148	178	1
106	179	3
145	163	4
177	178	9
157	157	7
93	95	1
140	141	4
93	153	3
16	17	10
175	175	9
157	184	3
172	173	2
92	153	6
68	133	1
80	81	4
65	65	7
39	40	4
141	141	3
90	90	4
2	6	1
128	129	5
130	131	2
171	172	4
42	43	4
101	180	6
134	135	4
64	64	7
92	92	3
54	55	3
151	186	1
97	99	3
185	187	6
83	84	3
134	136	3
27	30	4
165	166	4
143	143	8
102	180	2
168	172	1
70	70	6
136	136	10
93	96	2
133	143	3
108	117	1
171	190	1
25	27	2
6	7	1
88	89	3
135	179	2
171	174	1
135	135	5
12	13	2
186	186	17
86	87	2
184	185	3
63	63	4
180	181	5
17	36	1
152	156	1
164	164	6
108	108	5
154	155	3
97	97	3
101	111	1
127	128	3
156	158	3
101	103	1
171	171	4
181	181	11
29	31	2
79	80	3
66	66	4
5	45	2
130	130	5
24	24	13
41	41	7
42	46	4
173	180	1
152	154	1
44	44	5
166	170	4
144	145	1
122	123	3
61	61	9
170	170	9
133	133	11
144	144	1
72	73	4
129	129	7
27	27	5
28	28	2
92	152	6
132	132	11
186	188	2
82	89	6
43	48	3
64	65	3
7	8	2
102	113	5
53	82	1
33	33	5
63	190	1
99	118	2
148	149	4
166	168	1
149	155	2
115	117	1
30	35	3
162	163	3
130	134	1
42	42	5
119	120	5
157	158	3
33	34	3
74	128	1
17	17	8
146	147	3
29	29	1
170	188	4
28	85	1
28	83	3
10	12	5
126	126	6
15	48	3
14	47	3
179	181	1
187	189	1
110	111	2
11	12	5
69	131	4
178	178	16
35	35	5
53	84	5
54	111	1
73	75	1
24	25	6
157	185	1
116	116	3
56	57	2
107	108	3
189	189	5
55	55	12
13	38	3
92	93	4
77	101	1
44	45	1
37	39	3
94	154	4
14	14	1
127	127	3
95	110	2
22	36	1
95	100	4
121	122	2
36	37	3
168	169	4
63	136	1
167	167	3
161	161	13
186	187	2
93	106	1
160	163	1
98	98	6
89	91	1
136	140	2
124	127	3
133	134	1
106	107	3
43	79	1
15	17	2
97	101	3
127	146	1
190	190	1
25	25	6
67	68	3
12	14	3
164	166	1
97	102	1
84	85	1
157	173	2
91	91	6
169	169	6
133	150	1
13	14	3
59	162	1
55	56	3
117	120	2
131	144	1
139	139	4
13	21	1
54	113	1
13	47	3
79	90	1
58	144	1
177	177	7
68	71	1
58	104	1
181	182	1
141	142	2
173	181	1
161	170	1
140	175	2
71	129	1
91	92	1
73	82	1
64	143	1
30	31	2
101	175	1
150	187	1
130	142	1
47	77	5
151	153	1
76	186	1
131	143	1
20	37	2
56	112	2
6	45	3
57	57	6
85	89	1
131	137	1
37	37	7
156	168	2
86	102	1
125	125	5
91	102	1
60	68	1
71	113	2
117	147	2
8	9	1
60	64	4
29	30	3
73	74	5
159	171	2
25	26	1
39	39	2
126	127	1
107	149	3
154	165	3
30	30	3
52	90	2
66	69	1
54	114	2
74	121	1
72	159	2
178	180	2
9	10	1
139	175	6
53	55	4
159	168	2
125	126	3
175	176	4
58	105	3
58	59	2
67	132	1
149	169	1
38	44	2
123	126	3
140	184	1
112	113	2
149	160	1
101	102	3
57	61	1
77	78	1
48	49	2
93	105	1
185	186	2
15	79	1
2	3	2
32	32	2
70	122	1
60	66	1
58	61	3
130	144	1
132	133	2
124	125	3
30	80	3
142	143	1
35	74	2
101	110	1
31	36	1
43	47	1
58	110	1
95	99	2
145	147	1
129	130	3
176	176	1
8	183	1
176	178	3
158	187	1
142	144	1
10	38	1
41	42	1
137	137	5
148	177	1
70	71	1
98	99	3
119	119	3
86	101	2
126	128	1
134	165	1
28	31	1
66	135	2
82	83	2
71	72	2
122	160	1
96	109	1
160	161	4
24	38	2
45	47	1
80	102	1
33	35	2
139	187	1
159	160	1
67	134	2
163	169	2
75	79	1
12	40	1
27	31	1
138	146	1
22	37	2
74	154	2
19	105	1
107	112	1
133	142	1
44	80	2
58	121	1
135	156	1
149	184	2
75	75	2
87	100	1
118	148	1
53	76	3
104	107	1
122	159	1
37	48	1
143	144	1
122	126	1
134	154	1
20	22	1
4	5	1
137	139	1
57	72	1
112	112	1
85	86	1
66	131	1
189	190	1
100	109	1
139	147	1
79	82	1
121	121	2
162	162	1
146	149	1
75	76	1
106	147	1
17	79	1
161	164	1
21	42	1
145	188	1
118	119	1
149	151	1
160	172	1
113	116	1
82	190	1
