34	36	3
178	178	12
10	10	13
159	159	30
167	168	7
102	102	18
19	19	10
110	169	3
177	185	2
205	206	3
63	65	1
103	103	13
150	153	3
74	74	25
51	51	17
170	235	2
214	216	6
201	201	18
36	37	7
62	62	14
159	160	7
5	7	3
186	187	3
207	207	31
99	99	10
172	172	23
235	235	5
206	206	15
9	9	20
194	194	12
134	240	3
125	130	3
203	203	11
173	173	20
30	30	26
184	196	6
125	125	12
44	48	5
163	217	4
11	11	22
35	35	10
19	20	10
41	41	12
42	46	1
47	47	29
150	150	14
185	185	17
54	54	11
48	49	12
22	22	8
116	119	2
188	188	14
190	190	6
47	48	15
23	23	16
205	216	6
8	8	29
61	61	24
96	96	6
120	127	7
135	136	6
57	66	5
210	210	15
21	23	3
36	36	19
119	119	9
178	179	8
209	209	38
66	66	16
184	184	17
59	59	19
143	144	3
43	43	19
224	224	29
123	124	11
169	169	17
68	68	16
140	142	4
53	53	13
28	136	2
40	40	13
0	0	10
141	141	16
161	161	14
149	173	3
65	65	22
232	233	12
47	53	2
63	63	17
136	136	12
107	107	8
107	130	3
198	213	4
108	119	4
56	56	7
50	50	8
70	70	30
17	17	14
81	81	21
145	187	4
179	180	3
227	229	2
147	156	4
46	51	2
57	58	6
227	227	5
176	176	6
175	180	2
15	17	2
178	188	5
151	155	3
171	171	15
100	100	18
175	175	36
39	82	2
5	52	2
121	121	15
48	48	15
226	227	4
214	220	1
198	198	13
208	210	3
12	16	5
159	179	7
225	225	12
30	32	3
147	147	10
191	191	11
232	232	14
238	238	16
151	151	12
8	46	3
116	118	5
189	189	27
225	228	3
237	237	13
128	129	1
215	215	14
234	234	9
222	222	21
164	213	10
46	46	24
153	153	29
64	131	2
138	138	16
164	175	3
239	239	15
177	177	11
85	85	19
27	27	18
73	73	30
114	114	10
112	113	10
38	42	5
60	60	20
17	99	1
241	241	16
42	45	2
6	56	4
49	49	14
215	216	4
149	149	23
216	216	14
67	67	30
17	96	2
230	230	5
107	108	5
241	242	9
220	220	16
202	202	21
23	40	1
140	140	9
199	200	5
113	118	3
95	95	11
9	10	4
72	72	11
152	152	23
168	168	5
4	4	16
204	207	3
38	39	17
226	234	1
236	237	4
113	129	5
228	228	24
31	31	22
57	57	16
195	195	8
188	189	10
55	55	15
139	167	4
15	15	16
7	7	11
192	192	25
46	47	8
32	37	3
28	240	6
18	25	2
190	191	4
50	62	2
38	86	2
20	32	3
160	175	1
229	229	16
85	86	8
1	1	11
26	113	4
139	139	19
77	78	3
174	174	25
69	70	2
113	133	7
116	116	18
142	142	26
170	171	11
103	104	2
193	193	8
29	29	16
141	213	2
118	118	8
164	164	13
14	14	12
125	188	2
212	212	20
183	183	8
148	148	20
189	190	17
115	115	13
6	6	9
49	50	10
160	161	3
116	117	4
175	178	9
19	111	3
220	222	1
137	139	4
221	222	8
80	81	5
82	82	11
139	197	3
2	2	21
23	24	9
32	32	21
45	45	27
233	234	11
207	208	19
137	137	11
104	168	2
4	8	4
62	67	2
64	65	2
37	37	16
120	120	7
34	35	6
154	154	8
206	216	3
43	44	5
197	197	26
198	200	1
5	49	2
147	148	3
61	62	10
180	180	11
120	198	1
145	151	3
226	226	8
175	176	4
123	123	17
35	36	6
179	182	1
18	22	5
74	76	7
20	20	20
79	79	9
101	103	3
217	219	2
199	199	8
189	198	6
64	64	9
158	158	7
115	116	10
164	165	5
117	119	1
37	38	11
160	160	9
15	123	5
219	219	24
182	182	20
205	205	8
32	40	4
38	38	13
24	24	19
184	185	12
187	187	17
173	174	7
215	221	4
42	42	20
65	66	6
193	195	4
126	127	6
211	211	9
179	179	21
142	197	3
221	224	7
120	124	4
104	104	7
149	152	2
138	140	3
7	8	3
109	168	10
64	70	2
157	157	11
118	119	3
122	125	4
113	218	2
135	135	12
58	58	12
69	69	9
68	71	5
3	3	11
16	17	4
115	117	2
28	28	22
0	54	2
83	83	11
231	232	6
182	205	5
66	67	8
176	177	3
102	128	2
36	83	4
26	32	3
213	213	15
186	203	5
126	126	8
52	53	3
228	230	2
56	57	6
144	144	7
122	122	3
29	138	4
127	127	14
77	77	18
108	108	13
204	204	15
160	235	1
28	134	4
24	43	1
203	204	8
68	69	14
13	201	1
3	46	4
84	85	3
155	161	5
75	75	21
17	107	1
34	34	4
34	111	1
166	166	19
196	196	5
200	200	9
76	78	2
97	135	5
26	28	1
165	165	23
119	167	3
44	44	12
181	181	16
77	79	3
163	163	9
1	3	4
33	33	13
138	139	6
238	239	2
128	134	2
195	196	13
21	21	17
52	67	3
172	219	1
182	187	5
124	125	1
80	84	1
188	198	3
40	42	3
98	99	4
28	135	2
242	242	18
104	110	3
33	137	3
155	155	6
231	231	10
107	140	1
219	222	8
239	240	5
223	225	3
169	170	6
23	176	2
47	65	2
25	25	19
62	172	2
133	239	1
218	218	18
128	128	14
113	113	22
216	226	1
97	97	9
106	106	8
149	161	5
212	213	8
236	236	9
181	206	2
134	135	8
86	86	15
147	152	4
217	217	21
32	33	1
16	102	4
117	125	3
32	38	3
95	104	1
73	74	1
7	47	2
27	43	5
112	112	14
210	215	1
5	56	1
188	193	5
137	138	2
144	149	4
58	59	2
18	18	8
220	224	3
16	16	7
186	186	8
71	71	18
182	202	3
114	120	4
228	229	8
190	208	3
12	201	4
105	105	10
81	82	6
39	39	25
145	164	1
157	238	2
80	82	2
204	205	1
25	47	2
221	221	5
117	122	2
78	80	2
160	227	1
231	234	1
145	159	1
235	236	12
208	208	21
14	198	1
10	22	3
70	111	4
194	195	8
0	37	3
62	202	5
175	194	5
220	223	1
91	91	1
76	76	10
3	11	3
26	26	21
61	69	3
21	41	6
214	215	4
159	162	2
53	54	5
78	78	8
145	145	10
114	115	2
78	79	3
162	163	5
116	124	4
15	122	4
88	88	1
2	5	4
129	129	3
174	242	2
240	240	7
157	176	1
111	137	2
187	196	2
117	117	5
42	47	2
170	170	25
127	128	3
26	27	5
225	231	2
4	7	2
101	101	5
40	41	3
147	151	1
11	24	4
189	194	2
84	84	9
15	18	1
24	45	1
133	143	1
66	68	5
136	138	6
223	224	4
31	32	5
140	141	7
121	128	1
13	200	1
142	143	2
0	80	3
133	133	10
146	146	5
139	141	4
13	13	5
124	124	3
22	101	2
22	23	7
237	238	1
156	156	7
191	208	1
129	130	3
143	151	1
154	162	3
190	194	2
170	172	1
105	113	4
10	11	1
153	157	3
190	193	1
117	126	1
153	172	6
227	230	3
186	188	2
121	122	4
154	156	1
134	134	3
46	48	1
62	63	4
73	88	3
151	162	4
209	210	4
149	153	7
7	42	1
145	153	2
216	217	1
46	65	2
162	164	5
224	226	2
8	30	6
136	137	5
22	30	2
145	161	3
51	52	3
183	198	1
212	214	1
201	202	4
1	5	5
21	42	1
217	218	7
51	181	4
163	164	3
117	118	11
54	56	1
198	199	2
88	96	1
24	97	3
95	103	2
5	5	8
27	44	4
165	213	1
181	213	3
47	51	4
128	131	1
3	4	5
127	130	4
200	201	3
160	162	5
144	197	3
105	109	1
130	130	3
54	60	4
233	233	10
18	102	1
13	17	3
237	242	1
159	212	4
104	113	5
8	9	1
11	99	4
129	170	2
67	121	5
29	30	2
181	183	4
223	223	18
144	145	7
159	178	10
39	55	2
209	228	1
14	122	2
63	64	3
65	128	3
12	12	4
39	40	2
107	117	2
63	207	3
76	79	4
122	127	1
148	155	1
199	213	2
143	149	5
190	197	4
187	188	2
113	169	7
179	187	4
111	111	9
216	218	4
106	130	1
9	20	1
158	164	1
184	195	1
19	105	1
115	128	1
184	197	2
115	119	1
98	98	2
72	120	1
25	44	2
177	202	4
143	143	3
161	228	3
10	30	2
35	40	2
188	194	3
63	172	1
197	198	7
29	33	1
97	98	4
225	232	3
12	13	5
115	118	2
107	134	1
52	52	5
129	133	4
145	147	3
129	235	4
220	221	2
1	6	2
32	41	1
109	109	3
67	68	5
33	43	1
29	136	3
53	70	5
210	211	6
179	193	3
89	89	2
229	230	2
158	160	3
193	194	3
74	169	3
80	88	3
204	206	1
139	169	1
25	101	2
163	165	3
219	220	3
192	193	4
1	2	3
219	223	2
149	165	2
96	99	1
32	35	1
71	72	1
48	64	2
13	14	3
25	112	2
121	130	2
178	199	2
105	108	1
189	197	2
100	101	2
213	214	1
9	24	1
224	230	7
140	164	3
156	178	1
45	46	4
160	217	2
0	6	6
110	110	2
148	149	1
44	45	5
76	232	3
25	26	5
131	131	4
95	97	1
10	86	1
42	43	4
117	167	3
3	6	2
69	71	1
181	182	1
73	80	2
8	20	2
132	153	1
75	76	4
165	166	3
123	134	1
160	164	2
187	199	3
16	103	1
198	201	4
148	160	2
179	192	1
36	38	4
33	39	1
47	50	1
122	126	4
159	161	1
20	21	2
217	222	2
64	171	2
68	115	1
15	66	3
143	146	4
54	57	2
149	172	1
110	112	3
9	47	1
21	22	2
15	99	3
17	101	2
159	192	1
24	39	2
68	72	2
33	40	5
167	169	3
205	209	2
185	195	4
53	65	1
224	225	2
5	46	2
81	88	2
76	77	1
240	241	1
183	187	4
50	57	1
31	35	2
150	162	1
16	101	1
6	8	2
46	69	2
80	80	4
207	209	2
219	232	4
114	119	3
26	43	1
133	134	2
28	138	3
178	202	3
166	169	3
53	56	3
30	31	2
149	150	2
120	207	1
109	121	1
81	83	1
131	134	3
110	178	1
96	103	2
120	122	2
74	75	7
99	101	2
109	111	4
130	133	2
38	40	1
164	209	1
206	232	1
153	160	2
114	127	2
150	151	3
10	47	2
174	178	5
18	24	1
11	12	2
136	140	2
102	113	2
146	158	3
104	105	2
234	235	2
52	54	1
119	120	5
47	49	2
233	242	1
69	111	1
18	21	1
187	197	1
37	82	3
187	198	2
8	16	3
230	234	2
18	105	1
147	155	1
154	155	1
24	25	5
125	134	3
7	32	3
0	43	1
225	233	2
26	122	1
234	239	1
146	147	1
59	60	4
237	240	1
28	29	2
52	56	3
54	73	1
142	213	1
82	83	3
177	181	2
199	239	1
60	61	3
95	172	2
223	232	2
79	80	1
17	20	2
191	197	1
138	142	2
48	70	3
219	221	2
145	146	1
144	151	1
144	146	1
203	217	2
226	229	1
134	237	1
222	225	2
206	222	1
45	50	1
156	161	1
61	68	1
27	45	1
16	123	2
148	152	1
62	69	3
71	74	1
236	240	2
196	197	1
64	72	1
15	16	2
75	167	1
130	132	1
17	100	1
222	223	3
19	40	1
148	153	3
167	167	2
31	36	1
161	163	1
122	201	2
92	92	1
205	207	1
19	32	1
10	24	1
177	212	2
160	165	1
128	207	2
179	181	1
208	218	2
51	56	1
201	216	1
101	102	3
161	226	1
120	128	1
110	122	2
97	152	1
182	183	2
71	73	3
183	206	1
162	162	3
218	219	1
189	192	1
202	203	1
116	167	1
136	145	1
99	100	1
180	182	1
96	172	1
204	208	1
39	73	2
187	193	2
130	134	2
62	171	1
166	167	1
139	166	1
11	15	2
214	214	1
198	207	1
109	112	1
9	11	1
91	92	1
118	126	1
28	113	1
104	114	2
54	55	2
13	15	1
103	106	2
18	101	1
3	12	2
188	197	3
68	75	1
33	41	2
231	237	2
174	176	1
33	35	1
158	180	1
8	21	1
217	231	1
161	162	1
162	168	1
224	234	1
82	85	1
176	180	2
29	137	1
10	85	1
144	152	1
9	48	1
182	198	1
4	49	1
78	239	1
113	170	1
198	206	1
111	112	1
9	30	1
191	219	1
113	134	1
54	69	1
191	214	1
128	171	1
146	155	1
183	196	1
14	200	1
14	123	1
2	73	1
50	66	2
9	77	1
33	111	1
15	102	1
18	20	2
66	202	1
116	140	1
209	211	1
96	97	2
174	175	1
169	212	1
182	201	1
107	109	1
150	165	1
141	166	1
224	228	1
80	83	1
29	44	1
116	120	1
14	15	1
109	110	1
32	112	1
49	68	1
25	48	1
134	239	1
199	203	1
76	167	1
39	42	1
6	42	1
127	151	1
136	142	1
214	218	1
174	219	1
86	97	1
