49	50	4
86	93	1
38	38	3
73	74	5
37	37	2
90	90	2
35	36	2
29	29	1
71	73	3
96	96	9
76	76	3
44	47	4
99	99	7
92	94	1
77	77	15
75	75	7
57	57	7
46	46	2
94	94	11
48	48	3
49	99	3
20	22	1
30	31	3
73	84	2
68	68	1
71	71	5
60	60	2
99	100	5
39	39	7
68	83	1
88	88	12
35	35	10
61	61	3
45	50	4
31	31	10
76	77	3
89	89	3
97	97	4
87	87	8
71	79	3
27	45	2
34	35	1
62	62	11
58	62	4
85	85	16
20	51	2
81	81	11
74	77	1
83	83	4
40	40	2
80	80	8
80	84	3
22	22	1
79	79	3
91	91	4
38	40	4
44	44	4
98	98	1
38	39	3
86	86	7
56	60	2
54	56	2
63	63	7
38	41	1
66	67	4
32	33	2
69	69	9
52	52	8
58	58	5
53	55	2
87	91	1
60	61	4
66	66	9
93	93	3
85	96	2
33	34	1
64	64	10
70	70	9
82	82	3
84	84	6
61	84	1
74	76	1
88	96	1
50	100	2
95	95	7
65	65	10
22	25	1
27	93	1
54	54	4
36	36	3
54	55	3
84	86	1
50	50	1
73	73	9
77	78	2
82	83	2
88	89	3
72	74	1
27	46	1
51	52	4
72	72	6
25	25	3
43	43	4
67	79	1
87	88	2
93	94	2
33	38	1
66	72	1
27	28	2
27	27	8
45	46	1
31	40	3
32	32	3
79	80	2
39	40	4
32	47	3
55	93	2
62	80	2
65	102	2
28	28	5
69	76	1
98	102	1
34	58	1
41	50	2
60	73	1
66	73	1
66	71	1
55	56	3
80	82	1
59	59	4
34	34	2
69	72	1
80	89	2
23	25	2
98	101	2
25	30	2
100	100	4
67	67	4
85	86	1
48	101	1
43	52	2
63	64	3
67	68	2
47	47	4
55	55	1
78	78	2
41	55	3
26	26	2
72	73	2
63	91	1
46	47	3
79	81	1
42	43	2
47	101	1
52	53	1
79	83	2
44	45	2
26	28	1
40	41	1
95	97	3
40	44	1
26	58	3
47	48	1
22	47	1
80	81	2
78	94	1
55	75	1
24	47	1
27	34	1
38	57	3
24	24	1
42	42	5
49	85	1
63	79	1
74	74	1
101	101	2
69	82	1
33	33	1
24	33	1
82	84	1
26	54	1
70	71	1
75	76	1
29	93	1
92	92	1
94	99	1
89	90	1
84	89	1
29	58	1
22	45	1
50	72	1
28	96	1
56	102	1
64	78	1
71	72	1
34	97	1
64	72	2
87	94	1
69	70	1
