95	95	8
70	70	9
97	97	6
50	50	2
37	37	7
111	111	8
30	82	3
21	21	3
67	67	7
107	107	7
54	54	5
102	102	4
27	27	8
29	33	3
109	109	8
63	69	1
71	71	7
19	19	1
38	38	6
98	104	1
108	108	3
67	79	2
76	76	7
61	61	6
93	96	1
25	25	13
46	46	6
84	84	6
21	47	1
83	94	2
39	39	10
66	69	3
66	72	3
94	97	1
36	38	3
62	62	5
61	82	1
28	29	4
66	67	5
89	89	2
52	52	3
92	93	8
50	95	4
104	104	1
92	92	1
39	41	2
99	99	9
67	69	3
65	66	1
20	21	1
93	94	5
113	113	7
48	48	4
31	36	1
40	40	7
77	77	14
59	59	3
29	29	4
106	106	4
45	46	1
103	103	5
48	54	6
83	83	2
34	34	4
58	58	4
96	97	4
65	65	1
45	45	6
93	93	14
41	47	1
71	74	3
61	62	6
36	36	5
77	78	1
90	95	6
26	26	11
26	28	1
63	63	1
71	72	5
28	28	8
74	74	6
98	98	13
110	110	3
28	67	1
23	23	4
80	80	4
46	47	1
75	75	6
79	79	7
55	61	4
35	36	3
82	82	1
101	101	5
22	22	2
66	66	3
30	30	6
87	112	3
68	68	2
49	49	7
44	44	4
35	35	6
32	32	2
89	109	1
96	96	1
114	114	4
115	115	3
101	102	1
42	42	6
31	52	1
72	73	2
20	23	2
113	114	5
60	77	3
42	51	4
74	77	1
33	33	5
73	73	2
60	103	1
41	44	2
58	61	2
24	24	3
38	111	2
47	47	1
29	64	2
41	41	5
101	106	1
72	72	3
55	55	3
48	104	2
91	91	1
85	85	3
51	52	1
27	73	1
69	69	1
25	26	3
51	51	3
53	61	2
100	100	4
47	48	1
78	78	3
48	49	1
89	91	2
20	54	1
91	92	2
98	99	5
77	91	2
43	43	2
79	80	1
52	53	1
86	95	3
86	86	2
40	41	3
57	61	2
102	104	2
72	79	2
71	73	1
105	105	1
49	96	1
24	32	1
31	51	1
32	51	2
81	81	1
90	110	1
53	53	4
27	28	1
42	43	1
87	108	1
50	53	1
32	53	1
91	110	1
70	71	3
21	22	1
112	112	1
103	107	1
20	20	2
102	103	1
19	20	1
76	77	1
32	36	1
90	109	2
64	65	1
97	98	1
111	112	1
