80	80	19
72	72	18
87	88	5
27	27	10
45	45	20
65	65	31
74	74	13
64	64	20
76	76	10
59	59	13
87	89	4
93	93	12
41	41	12
87	87	17
40	40	14
43	43	19
97	97	12
34	45	1
69	69	19
64	65	6
63	81	1
81	81	14
56	56	2
66	66	23
95	95	6
73	81	5
57	65	2
27	28	2
49	49	13
98	98	1
99	99	11
84	84	9
76	89	4
47	53	6
78	79	4
63	63	17
31	31	14
46	46	5
23	88	4
52	52	11
63	83	6
34	35	5
89	89	17
47	89	3
52	85	1
82	82	3
72	84	4
25	102	4
79	84	4
68	68	13
33	45	2
75	75	13
35	35	4
50	50	7
65	66	3
63	64	5
51	51	9
20	26	3
23	24	4
26	28	6
92	92	9
85	85	18
51	53	6
61	61	7
81	83	1
90	90	13
48	48	7
73	73	8
60	60	10
70	70	20
56	57	4
33	33	3
86	87	7
88	89	8
62	68	3
77	77	15
85	86	10
83	83	10
37	38	7
67	68	5
73	74	4
61	87	2
101	101	3
67	67	25
78	78	21
97	98	2
54	54	5
100	100	3
25	25	7
80	84	2
91	91	5
63	68	1
71	71	6
42	42	9
65	76	1
96	97	3
32	32	2
86	88	6
62	89	2
33	41	3
95	98	3
26	26	8
72	74	3
47	48	4
74	76	5
47	90	3
39	39	15
79	80	3
63	69	1
52	53	3
76	77	3
57	57	7
49	53	5
88	88	13
22	22	10
50	51	1
44	85	2
39	40	2
36	36	10
96	96	9
37	37	12
81	84	7
38	38	7
31	35	3
40	100	1
92	93	1
34	44	3
35	36	3
72	73	4
65	74	3
79	79	8
22	98	2
86	86	10
74	79	3
70	71	3
29	29	4
24	24	2
23	23	1
48	50	4
87	96	1
94	94	7
47	47	14
83	85	3
65	69	1
58	58	9
21	24	1
89	91	1
83	84	2
62	62	9
34	34	7
33	40	2
76	79	2
68	69	2
35	56	1
28	28	2
32	51	1
57	59	1
66	67	2
29	31	1
71	72	1
57	58	2
44	44	2
62	88	1
26	101	3
25	26	6
38	51	1
95	96	2
94	95	3
61	72	1
73	83	1
53	54	1
62	87	2
42	43	2
77	78	2
72	85	2
64	69	2
54	86	2
81	82	2
26	102	1
75	78	6
55	55	3
49	50	2
64	68	5
69	71	1
33	34	1
62	73	1
63	65	1
69	70	4
28	33	1
61	62	2
75	80	2
31	34	1
25	27	1
90	91	1
22	23	2
30	30	2
48	51	1
73	76	2
94	98	1
60	61	2
80	83	3
61	82	2
79	85	2
82	84	5
55	56	1
77	81	1
31	52	2
38	101	1
91	92	2
82	83	2
28	45	1
36	37	2
69	86	1
93	94	1
94	96	1
69	80	1
24	47	1
100	101	1
75	76	3
68	71	1
26	45	1
91	93	1
58	59	2
45	48	1
40	49	1
20	20	1
61	71	1
72	88	1
32	34	1
94	97	1
54	55	1
