125	125	18
5	5	13
115	115	17
72	72	15
126	126	15
126	127	2
132	132	18
72	73	1
78	78	16
167	167	26
119	119	15
66	67	2
87	87	35
20	20	17
15	15	8
35	35	13
39	39	23
163	164	6
141	141	17
74	74	18
2	3	18
129	129	23
113	113	10
75	77	2
51	51	30
1	1	10
174	174	17
82	82	15
21	22	8
26	27	6
149	149	15
122	123	10
162	162	14
9	9	15
11	73	4
22	23	10
133	133	11
27	27	16
24	35	2
153	153	21
73	73	19
113	124	2
55	55	13
177	177	9
8	12	6
176	176	27
120	120	25
67	95	1
111	111	13
174	175	8
171	171	11
13	14	5
90	90	19
163	165	2
118	128	4
50	50	10
81	82	11
64	98	1
131	131	13
11	11	15
138	138	16
103	103	19
32	32	10
179	179	12
34	34	4
164	166	5
18	18	14
143	143	12
52	52	23
40	40	22
119	120	11
131	147	4
106	106	15
115	127	4
82	87	4
144	145	14
122	122	23
77	77	19
44	44	22
63	63	13
4	5	3
97	97	16
58	58	8
170	170	14
145	149	5
101	102	2
121	122	7
126	128	4
4	4	22
150	150	16
57	57	6
112	112	6
54	54	13
59	59	14
123	123	21
107	127	3
56	56	11
36	36	15
142	142	16
149	152	5
99	99	13
140	141	13
118	118	10
172	172	14
83	83	14
161	162	10
163	163	14
3	4	9
128	128	15
152	153	10
24	24	9
154	155	5
44	50	4
101	101	17
130	130	10
114	114	12
13	13	16
145	145	17
36	37	4
94	94	9
65	91	1
23	23	20
135	136	10
58	112	2
123	124	8
170	175	5
22	30	1
63	67	4
123	125	11
168	168	19
180	180	15
23	24	4
61	61	13
60	60	14
140	140	9
50	52	5
12	12	19
50	51	6
156	157	6
148	148	14
117	117	12
45	45	6
9	10	2
37	41	1
6	6	17
125	130	1
136	136	12
67	67	22
17	44	2
71	71	28
54	100	1
107	133	3
146	147	3
146	146	18
64	99	4
164	164	17
37	38	12
29	29	19
50	53	2
16	16	24
152	152	13
62	93	2
121	121	14
178	178	23
10	10	11
159	159	7
86	86	15
49	49	8
41	41	28
65	80	4
158	158	6
139	140	1
85	86	3
80	80	19
20	44	2
173	173	12
42	43	3
104	104	15
19	19	10
79	79	15
1	4	5
87	89	10
0	0	7
157	157	32
31	32	8
80	81	10
112	129	1
38	40	2
132	133	6
150	151	12
17	19	2
59	60	3
138	149	2
31	31	6
96	96	14
84	84	10
105	105	8
44	45	2
53	54	5
91	91	18
173	174	10
157	160	2
124	126	2
12	21	2
28	29	3
65	90	1
85	85	11
124	124	13
22	22	12
103	104	8
7	8	5
43	43	20
7	18	6
33	33	25
165	166	2
117	124	4
9	25	2
151	153	2
100	100	18
59	114	1
125	126	3
179	180	7
52	53	7
89	90	8
38	39	5
58	59	1
157	158	3
120	121	16
156	156	24
30	30	27
25	25	19
161	161	15
110	110	1
23	38	2
104	106	3
107	107	13
21	39	2
127	127	13
33	34	4
64	64	17
81	81	12
134	134	19
34	35	7
7	7	15
63	94	6
71	77	5
60	105	4
143	144	8
17	17	13
12	13	3
58	65	1
38	38	27
62	62	21
53	53	12
2	2	17
151	151	25
72	74	5
73	75	2
0	4	3
58	87	2
147	147	20
56	57	4
170	171	9
29	30	3
98	138	3
154	154	16
20	25	2
155	155	15
58	113	2
135	159	2
133	155	2
92	92	19
135	137	2
155	156	8
144	144	17
7	17	1
114	129	3
65	65	14
142	144	3
109	111	2
108	108	9
62	63	6
39	41	1
52	68	1
88	89	9
117	118	3
68	68	12
2	71	3
170	174	3
97	98	7
105	109	3
88	88	13
169	169	14
115	116	10
96	98	3
32	33	12
8	8	10
105	107	4
42	42	15
137	137	12
70	72	1
76	80	5
113	114	9
12	14	1
138	168	6
147	148	1
91	92	3
159	162	4
3	3	8
134	135	5
24	25	3
17	43	1
5	6	6
160	160	12
95	95	9
128	163	2
165	165	8
66	66	11
99	101	5
99	102	1
139	141	4
55	105	3
4	115	1
16	18	5
61	101	2
131	163	1
151	152	5
59	98	1
61	64	4
33	85	4
6	7	4
81	102	1
124	125	6
114	115	2
160	162	1
64	97	4
59	142	3
57	58	5
26	26	8
146	148	2
113	127	1
0	14	3
76	77	7
28	28	8
78	79	3
24	31	3
139	139	8
138	139	5
76	76	6
19	20	2
111	112	2
130	131	9
74	77	2
131	165	2
115	128	2
5	9	2
154	156	2
83	86	1
175	175	10
15	16	5
162	163	7
21	21	19
56	58	2
74	75	1
23	32	4
176	177	4
142	143	4
62	100	6
159	160	1
93	94	6
137	163	2
94	95	5
14	17	1
23	30	9
84	85	3
72	90	5
8	9	4
2	4	2
132	150	3
166	166	15
160	161	1
149	150	8
14	14	8
153	158	1
116	116	10
112	132	2
173	176	1
108	109	5
170	172	3
169	171	2
58	86	6
44	67	2
70	71	3
122	124	2
59	101	1
66	76	5
130	146	1
40	41	6
63	93	7
49	50	1
18	19	5
101	142	3
88	90	1
147	162	3
75	75	8
64	87	4
41	42	5
93	93	13
151	160	1
63	89	3
98	100	1
19	22	2
135	135	6
14	15	5
113	115	2
30	31	4
172	174	6
44	51	3
63	64	8
113	126	1
84	88	1
49	89	1
96	101	2
109	109	5
136	147	4
9	11	3
10	13	4
161	163	4
12	18	1
74	80	1
131	132	7
134	136	1
102	104	2
128	147	2
98	98	7
95	96	3
92	93	4
1	5	2
94	138	2
68	71	3
37	37	11
153	157	2
123	127	5
23	31	3
25	26	5
92	103	3
77	80	2
9	12	1
74	90	1
115	118	3
61	102	3
61	93	3
82	86	2
24	34	1
25	34	3
0	13	1
171	172	1
12	17	2
8	45	4
67	68	2
34	84	2
116	117	4
153	159	3
70	70	2
110	112	1
172	173	2
142	151	3
5	113	1
110	111	2
51	52	2
26	28	4
38	45	1
158	159	2
113	128	2
110	131	1
20	21	3
49	52	3
62	94	1
102	102	10
37	39	2
109	116	1
16	17	3
12	42	2
148	165	1
54	106	3
126	164	1
35	85	3
147	150	3
87	92	1
35	86	1
90	91	1
130	144	1
129	130	7
77	78	2
72	91	6
129	144	1
118	119	1
54	55	4
114	156	3
55	56	1
65	89	3
127	165	1
128	131	3
97	176	1
27	28	2
149	151	2
45	46	2
89	91	1
73	74	4
59	61	1
23	25	2
99	100	3
59	63	1
125	129	1
112	114	2
166	167	1
169	170	1
23	29	1
145	146	5
177	178	2
11	12	4
107	108	3
39	40	5
98	101	3
67	93	3
61	100	2
105	106	1
10	11	2
111	117	3
5	14	1
52	54	2
171	174	2
6	106	3
54	56	2
83	84	4
17	76	2
11	75	1
104	135	1
87	90	2
34	37	1
122	125	1
10	23	3
46	46	1
35	36	3
165	167	4
62	99	2
25	39	2
65	66	1
49	74	1
102	103	3
106	126	2
131	146	1
136	137	1
143	154	1
44	63	1
110	116	1
0	1	2
24	36	1
127	129	1
61	63	1
104	105	1
73	76	3
151	162	2
170	173	1
149	153	1
72	93	2
37	45	2
108	127	2
83	85	1
137	147	1
150	153	1
22	29	1
107	109	3
55	111	1
91	93	2
158	177	1
126	166	1
15	43	1
59	62	1
40	43	1
22	38	3
145	152	1
79	81	1
96	138	1
65	134	2
61	103	2
143	152	1
109	112	1
158	178	1
91	94	1
71	91	1
82	83	1
164	165	1
64	95	1
71	72	1
117	123	1
11	13	1
171	175	1
146	150	2
89	89	1
13	21	2
136	155	1
19	43	1
36	86	1
36	89	1
24	33	1
24	32	2
65	95	1
64	65	1
134	137	1
7	54	1
167	168	1
6	112	1
137	138	1
43	52	1
62	103	1
