76	79	6
56	132	3
153	156	1
67	67	3
139	139	13
70	71	3
67	68	2
95	95	3
49	52	3
30	30	5
143	143	4
102	106	3
10	14	2
6	10	1
79	130	3
82	178	4
64	64	3
113	148	5
121	121	6
176	179	6
149	149	4
45	45	13
15	15	4
155	155	7
113	113	2
129	129	4
83	168	3
37	38	3
152	152	10
174	174	7
139	140	3
103	103	5
171	171	8
133	133	3
95	127	5
55	55	2
31	32	1
39	39	4
109	109	1
25	25	4
119	119	3
118	120	5
6	6	1
158	159	1
42	42	2
2	4	1
56	57	6
61	131	4
82	179	2
75	75	3
43	43	2
65	65	2
56	56	3
110	111	3
108	123	3
80	121	5
80	80	3
168	168	1
157	158	2
168	170	2
71	71	8
144	144	3
14	14	5
161	161	5
117	150	1
179	179	7
62	62	3
177	179	2
157	157	1
9	60	3
63	65	2
145	145	2
13	14	2
163	163	6
142	142	4
8	8	8
110	122	1
124	124	6
135	135	3
170	171	3
172	172	2
27	30	3
149	153	1
141	141	5
59	59	1
114	115	1
89	89	3
21	21	1
5	6	2
167	167	4
99	99	2
84	85	1
54	59	1
134	135	9
172	177	2
76	78	3
75	76	4
37	37	5
131	131	2
115	149	3
1	1	5
8	33	2
16	30	1
80	82	2
79	79	6
136	136	4
50	66	1
87	87	6
90	91	2
73	74	3
157	171	3
140	140	6
51	63	2
68	68	1
72	73	2
116	117	5
168	173	1
132	132	5
178	179	1
176	176	2
137	138	2
10	10	1
54	54	2
9	9	3
108	108	5
114	114	6
91	91	2
156	157	1
148	148	3
131	132	3
44	51	1
36	36	4
60	60	2
125	125	1
123	124	2
28	28	3
168	169	2
80	179	3
142	143	3
32	32	2
130	131	1
22	23	5
4	4	3
12	12	3
116	148	1
150	150	4
81	81	1
138	138	1
178	178	3
126	126	5
78	88	2
53	53	3
118	118	3
88	88	5
170	170	4
134	134	2
44	94	1
16	17	1
79	134	1
77	77	2
31	31	1
53	130	1
118	121	2
128	128	4
135	136	2
102	102	3
109	123	3
149	152	1
145	150	1
84	84	1
109	122	1
73	75	3
96	102	1
92	109	1
30	31	3
127	127	1
86	87	1
122	122	1
78	79	1
76	76	1
111	112	1
61	61	1
75	121	1
12	14	2
100	100	3
21	35	2
52	52	1
166	167	1
137	137	1
97	100	1
24	24	2
28	60	1
107	107	1
121	122	2
169	169	1
107	112	1
162	172	1
123	123	1
106	106	1
27	28	1
168	172	1
51	65	1
17	17	1
16	16	1
24	25	1
160	160	1
