60	61	1
43	43	3
75	77	1
23	23	5
60	60	14
64	65	5
35	56	4
85	85	7
42	42	4
112	112	6
56	57	6
79	79	11
51	52	4
33	33	5
111	111	12
52	52	7
88	88	10
45	45	8
33	36	4
91	91	4
20	36	1
29	29	6
66	68	1
84	84	8
93	95	3
69	70	2
81	81	12
48	110	3
34	69	2
105	107	5
104	105	6
98	99	13
93	94	8
105	106	11
61	65	3
27	27	7
46	46	12
54	54	5
74	74	10
67	67	9
36	36	1
108	109	2
25	72	2
107	108	3
55	56	2
66	66	11
41	41	6
58	59	7
47	50	4
83	83	4
71	72	4
92	92	2
47	49	1
56	56	10
89	89	2
102	102	9
77	77	22
68	69	1
78	78	12
91	93	2
82	83	3
34	35	2
71	113	3
92	109	2
50	51	12
34	34	1
70	79	1
58	58	11
48	49	10
104	104	12
36	37	8
82	85	2
38	38	4
40	40	3
57	57	9
20	55	3
47	48	8
29	48	3
44	44	2
53	53	6
81	82	1
51	51	2
38	47	2
76	77	3
77	82	4
43	44	4
79	95	1
30	32	3
81	83	3
97	97	3
28	28	3
69	69	10
86	92	1
61	61	4
109	109	7
82	110	1
104	108	5
107	107	2
112	113	2
71	71	4
94	94	11
45	97	2
49	52	3
60	65	2
46	100	2
21	21	6
42	44	8
103	103	1
108	108	2
47	47	6
50	72	3
110	111	1
32	33	6
93	93	2
105	105	4
35	39	1
101	101	8
62	62	5
25	25	7
100	100	8
86	86	1
48	48	3
96	96	5
53	54	1
40	41	6
102	103	5
30	30	2
41	42	2
75	75	9
19	20	3
81	106	2
81	102	4
66	67	2
65	65	2
55	57	3
99	100	5
49	109	2
30	31	1
49	49	6
26	26	4
31	31	3
87	92	5
113	113	3
54	57	3
106	107	5
96	101	2
99	99	3
23	24	2
70	70	6
78	80	4
85	86	4
26	28	3
80	101	5
39	40	1
26	27	1
62	71	3
111	112	3
63	64	1
95	96	1
79	83	1
73	73	1
87	88	5
90	92	3
82	82	2
79	80	3
59	60	3
101	104	1
86	87	3
32	46	1
78	79	1
43	45	3
32	41	1
104	106	1
63	63	6
88	89	1
88	90	4
107	110	3
80	80	5
98	98	4
90	90	3
113	114	4
51	72	2
92	95	1
22	22	5
59	67	1
56	100	2
72	72	1
109	112	1
32	32	6
64	64	2
24	24	5
50	50	1
80	102	1
95	95	2
68	79	3
27	29	1
37	89	3
110	110	1
37	38	1
25	28	1
37	37	1
99	101	2
48	51	1
33	87	1
72	76	2
20	20	2
35	35	2
68	68	3
102	104	1
81	84	1
66	72	2
82	101	1
74	75	1
77	78	1
106	106	3
96	97	1
99	103	1
28	29	3
103	105	2
39	39	2
25	54	1
82	108	2
86	90	2
33	34	1
80	81	1
30	52	1
83	85	1
33	35	1
80	93	1
25	52	1
62	63	1
69	79	1
50	71	1
57	101	1
24	53	1
68	70	1
39	88	1
108	110	1
84	85	1
100	101	2
63	70	1
67	69	1
