75	76	3
25	27	4
128	132	10
20	25	1
92	100	5
126	134	3
79	80	2
109	109	8
10	10	12
61	64	2
83	107	2
127	129	3
88	88	15
10	13	4
7	7	5
101	101	13
16	28	4
115	115	8
2	10	4
0	0	2
110	110	16
89	90	5
127	127	7
71	81	2
122	124	1
19	19	6
1	1	10
133	133	4
75	80	4
109	112	4
5	5	5
118	129	1
122	134	1
107	107	4
102	102	6
116	116	3
57	57	6
89	104	2
120	130	2
106	106	8
95	100	3
96	96	5
104	104	5
102	111	2
34	37	2
111	124	1
122	122	12
26	27	4
14	18	2
31	31	3
24	25	2
129	129	6
78	89	6
122	131	5
93	93	7
64	74	2
86	86	6
53	69	6
29	29	1
73	80	3
37	37	7
21	21	6
122	125	7
132	132	13
4	11	1
3	11	1
45	47	1
116	125	3
58	58	6
4	4	19
14	16	3
111	123	5
35	35	8
99	107	4
101	102	8
0	6	5
98	107	2
110	123	2
34	36	2
132	133	1
125	125	11
33	33	3
9	13	2
68	85	2
122	130	2
127	134	2
4	5	1
5	10	1
11	19	2
115	123	2
124	125	2
38	38	9
131	132	2
6	21	5
71	105	1
9	25	1
50	65	1
117	122	1
73	75	3
76	94	3
115	121	2
108	129	4
70	72	6
103	103	12
63	69	1
6	26	2
134	134	3
29	33	1
130	132	6
25	25	11
113	125	2
28	42	1
120	128	2
87	87	3
55	55	3
98	98	5
110	113	2
26	28	6
72	72	8
85	90	5
2	11	1
8	8	5
76	84	1
109	124	6
54	68	2
66	68	1
106	108	5
108	108	20
43	44	3
83	83	1
126	126	5
115	122	3
85	96	3
94	100	4
113	114	8
126	127	2
128	129	3
85	99	1
87	88	3
71	79	2
21	54	3
43	43	6
36	37	1
43	67	3
1	2	5
89	91	1
13	13	2
86	89	5
93	104	6
11	22	2
130	133	3
14	14	13
55	68	2
59	61	3
38	55	1
73	86	6
9	22	3
96	100	4
127	133	1
64	65	1
75	75	2
97	100	5
118	123	4
109	110	5
48	55	4
22	22	8
58	72	5
130	131	4
15	28	3
81	100	3
27	28	1
77	87	3
49	51	1
68	71	8
85	86	3
12	13	2
111	111	3
56	79	2
122	123	6
102	103	2
77	93	2
102	113	3
103	105	3
21	22	3
87	108	5
60	73	3
106	112	5
121	121	6
118	118	2
53	55	6
57	67	2
9	33	2
82	91	4
104	113	2
90	92	1
14	26	5
112	124	5
3	23	3
30	36	3
82	101	1
66	67	1
113	116	3
113	113	5
68	69	2
32	55	2
25	69	1
120	134	1
78	80	2
16	27	2
90	90	10
73	82	5
101	107	5
105	107	3
116	127	1
2	19	4
11	13	2
50	53	3
96	115	1
23	23	2
24	30	1
42	44	1
30	30	9
29	31	2
62	64	3
120	126	2
56	56	4
35	43	1
61	67	2
16	16	7
129	132	3
121	131	6
80	80	2
11	12	4
54	57	3
9	9	8
66	71	2
6	23	2
105	105	9
130	130	7
68	72	1
95	95	4
10	12	3
15	26	1
125	130	1
0	4	1
78	90	2
2	3	4
6	11	2
33	36	4
55	56	5
85	88	2
110	119	1
3	4	7
79	82	4
82	84	3
1	6	2
76	93	1
17	17	4
6	14	1
80	90	3
99	104	3
16	29	1
74	88	4
94	97	1
93	99	1
117	129	3
131	134	2
36	45	2
29	30	1
8	9	1
120	120	6
89	89	2
14	23	1
118	130	4
16	17	3
121	123	4
113	117	7
17	19	1
3	3	7
76	79	2
66	76	1
14	27	2
29	38	3
115	127	2
13	20	2
16	18	4
82	83	3
30	34	1
63	67	2
7	19	2
28	33	2
9	12	2
11	21	2
96	97	2
97	106	2
81	81	5
8	13	1
4	7	3
112	116	1
92	116	1
63	72	2
26	26	2
48	62	1
15	23	2
110	116	2
10	35	3
52	52	2
88	90	3
81	83	2
114	114	2
109	117	1
78	79	3
117	120	3
21	49	1
88	96	1
0	2	1
90	91	3
131	133	3
97	98	5
71	71	3
50	62	1
119	123	6
43	56	1
108	111	2
71	89	1
97	97	8
49	54	2
128	134	1
123	124	6
79	92	3
87	114	1
82	85	2
14	22	1
1	4	5
52	58	2
132	134	5
100	102	1
123	131	2
84	87	1
0	17	4
106	118	5
35	36	2
94	94	4
71	107	2
120	129	2
24	28	1
117	118	1
88	97	1
54	54	4
57	59	3
77	77	8
6	6	1
59	60	2
14	17	1
68	68	6
103	104	5
100	100	4
60	60	4
125	129	3
45	50	3
1	17	2
44	47	1
32	35	1
70	71	3
10	30	1
44	44	4
55	59	4
68	83	1
78	78	2
59	67	4
34	34	1
7	15	2
125	127	3
83	87	2
8	22	1
58	75	1
43	48	2
69	69	1
79	93	2
32	32	2
95	119	2
57	58	1
64	64	2
92	96	1
12	23	2
126	135	1
104	105	1
94	104	2
112	112	3
42	45	2
62	62	5
128	131	1
1	10	2
12	12	5
110	124	4
123	123	4
53	56	2
30	31	3
70	70	4
101	115	3
27	35	1
112	113	6
74	76	2
111	112	2
125	126	2
109	127	2
63	63	4
43	47	3
73	73	4
105	112	4
25	26	2
84	85	1
102	115	2
106	115	2
124	124	6
67	69	4
28	30	2
18	19	4
105	133	4
15	15	3
115	125	1
3	31	2
115	132	1
28	31	3
121	124	1
6	10	4
32	44	1
59	71	1
134	135	1
69	71	1
82	82	6
99	134	1
1	11	1
17	31	1
68	79	2
121	122	2
117	117	2
120	133	2
50	50	3
65	75	1
115	119	1
98	100	4
77	101	1
123	126	1
33	34	2
98	108	5
23	29	2
110	111	4
12	19	3
119	134	2
22	23	3
36	44	7
0	16	1
128	128	1
133	134	1
104	108	3
115	118	1
68	88	1
0	1	2
99	105	3
122	133	1
28	28	3
61	62	1
63	66	2
8	27	2
56	67	1
50	52	2
2	2	5
6	7	2
56	69	1
72	107	2
91	93	2
73	78	2
52	56	3
77	91	1
63	65	2
29	36	1
60	65	3
93	97	1
133	135	2
67	67	2
8	10	3
74	74	3
120	131	1
3	5	1
104	110	1
65	69	2
76	77	1
87	103	1
86	115	1
51	51	1
95	117	2
61	61	1
38	51	1
94	105	1
116	123	1
87	105	1
18	28	1
1	19	1
54	61	1
10	15	2
3	9	1
127	131	1
74	75	1
92	111	1
119	132	3
8	12	2
88	101	1
15	24	2
29	32	1
0	9	1
56	70	1
84	97	2
130	134	2
63	71	1
8	11	2
109	116	4
106	116	2
84	84	3
86	96	1
28	34	2
76	76	3
122	128	2
118	126	1
47	50	1
32	38	1
45	45	1
20	20	2
92	92	3
10	20	1
128	133	1
119	119	4
114	129	3
104	109	2
9	11	1
105	106	1
105	109	2
91	94	1
9	21	2
50	61	2
63	64	1
99	103	3
115	129	1
2	18	4
60	74	1
68	70	1
117	126	1
114	125	1
13	23	1
77	88	1
14	19	3
11	16	1
105	115	3
24	32	3
64	89	1
106	107	1
5	8	1
35	37	1
122	126	1
54	60	1
97	116	1
98	101	1
103	113	1
75	79	1
19	25	1
95	107	1
6	25	1
73	90	1
95	111	2
61	65	1
27	27	1
72	83	1
12	32	2
27	36	1
96	105	2
7	8	2
75	83	1
86	93	1
107	126	1
65	74	1
2	4	1
114	115	1
129	133	3
59	59	1
67	78	1
25	29	1
60	71	1
0	14	1
75	88	1
73	84	3
96	101	1
23	33	1
115	120	1
85	89	1
122	127	2
6	18	1
12	21	2
85	85	1
120	132	1
119	122	1
9	10	1
116	124	1
98	122	1
87	96	1
67	71	1
54	58	1
76	87	1
127	128	1
70	79	1
96	99	1
3	12	2
97	105	1
71	82	2
58	59	1
21	23	1
62	77	1
14	24	1
118	119	2
44	45	1
90	100	1
29	35	1
92	93	1
111	114	1
22	30	1
71	83	1
44	46	1
79	79	1
95	99	1
109	121	1
26	35	1
65	65	1
24	33	1
24	24	1
132	135	1
5	23	1
