18	18	11
33	33	3
24	24	5
20	33	7
66	66	4
97	97	4
40	40	2
41	42	1
4	5	2
1	4	2
101	101	5
144	144	5
8	8	9
89	89	2
104	107	4
38	38	2
69	69	8
11	11	2
120	120	4
67	67	3
139	140	6
124	124	2
22	22	4
121	122	3
71	71	3
1	11	2
19	19	12
49	49	5
71	80	2
53	53	3
101	102	1
67	98	2
113	116	1
81	81	10
124	125	3
142	142	2
120	128	3
30	30	9
5	5	3
132	135	1
88	89	4
58	91	1
59	60	2
99	113	2
59	91	2
78	78	1
26	26	2
112	118	1
57	83	4
41	41	3
47	47	1
132	138	2
103	104	3
129	131	3
23	23	2
14	16	2
13	13	5
113	114	1
0	1	3
80	80	7
75	75	2
68	69	2
141	142	2
23	24	3
59	87	1
42	42	3
103	103	5
102	102	3
72	73	1
101	112	1
29	137	2
133	133	5
9	9	5
108	108	7
32	33	3
110	128	1
35	35	3
21	37	2
48	56	1
62	62	6
76	76	2
70	71	5
20	34	1
40	41	1
113	128	1
34	135	3
74	75	3
71	72	6
117	117	1
71	73	2
146	146	2
64	64	3
30	97	2
134	134	1
55	57	1
13	16	2
16	16	2
32	98	2
137	137	3
118	118	2
15	15	4
106	107	2
119	119	1
95	96	2
61	62	3
93	93	4
66	67	1
15	16	6
95	99	4
55	56	2
104	104	2
134	138	3
106	106	4
19	21	2
48	48	4
33	130	2
23	26	1
28	28	1
37	132	2
83	84	1
70	70	1
144	145	1
63	63	3
16	19	4
17	17	4
143	143	4
137	138	2
73	74	2
59	59	3
62	63	1
121	121	9
82	82	2
120	122	2
130	130	1
92	92	3
116	116	1
95	95	6
69	77	4
36	37	1
20	21	2
87	90	1
111	111	5
103	131	1
33	38	3
57	57	4
36	36	1
56	57	1
4	4	1
112	112	2
80	82	1
145	146	6
59	88	2
29	29	3
80	81	2
135	135	3
86	86	2
0	4	1
110	110	1
63	68	1
69	70	4
112	115	2
8	9	1
65	66	1
94	99	2
131	136	3
141	141	1
67	99	3
37	37	2
5	6	3
126	132	1
97	98	2
74	77	1
33	141	1
131	140	2
88	90	2
53	54	1
2	2	4
73	76	1
6	6	1
65	65	1
19	123	1
136	136	1
86	87	1
115	116	1
50	51	2
131	131	3
20	37	2
31	32	1
23	142	2
25	25	1
68	68	1
56	56	1
16	18	1
19	34	1
32	32	1
126	126	2
69	104	1
108	112	2
88	88	1
85	86	1
27	27	1
27	41	1
58	58	2
96	97	2
109	128	1
102	131	1
76	78	1
130	141	1
94	94	1
69	107	1
57	59	1
