118	121	5
52	137	4
104	169	3
73	73	4
126	126	7
92	92	5
65	65	1
7	17	4
102	169	6
1	2	2
66	71	3
12	12	4
52	52	4
27	27	2
65	156	3
124	125	4
20	47	1
78	87	1
64	113	3
62	62	16
109	110	2
52	53	3
34	34	6
158	159	5
25	25	4
7	14	1
137	137	6
152	152	1
77	80	2
109	150	4
151	151	3
26	26	4
83	88	1
35	35	4
90	90	7
40	40	4
148	148	7
71	72	7
9	9	7
43	43	6
121	124	3
152	153	1
68	68	2
24	47	1
82	82	3
7	8	3
68	73	2
117	117	1
170	170	6
66	69	1
149	149	4
147	148	4
147	147	2
155	155	1
9	28	1
93	93	6
157	157	7
2	53	2
50	50	3
26	140	1
111	111	6
10	10	5
38	40	2
100	101	2
160	160	2
134	149	3
85	124	3
85	86	3
162	165	2
87	87	3
23	24	3
53	53	3
82	161	4
17	17	1
63	63	5
132	132	5
96	96	1
88	89	3
164	165	3
135	135	7
75	169	2
16	114	1
143	143	2
103	103	1
106	106	3
36	36	5
138	139	2
72	100	2
20	20	1
57	121	2
45	45	4
15	50	1
99	99	3
53	134	2
92	122	5
13	13	1
16	58	1
54	54	3
145	145	3
55	55	1
133	133	4
77	77	4
75	75	4
166	166	5
83	84	2
19	44	5
86	86	3
42	42	3
130	139	1
49	49	9
163	163	1
20	39	1
70	70	4
5	120	1
94	157	1
42	43	2
91	91	4
51	52	2
35	48	2
5	5	6
98	98	3
1	112	3
12	18	1
1	55	2
162	162	3
158	158	2
2	2	5
65	92	2
111	112	4
66	67	1
57	62	2
75	80	6
156	156	3
57	58	1
0	1	4
81	82	2
66	66	2
56	56	4
7	7	6
21	23	4
99	165	2
11	11	2
106	166	2
57	136	2
122	125	2
84	84	2
159	159	3
6	6	1
127	127	2
66	70	4
77	98	2
168	169	1
121	121	1
39	39	2
46	46	1
67	67	2
107	107	2
1	63	2
14	14	1
38	39	2
80	161	2
16	16	2
119	131	1
141	141	7
115	115	3
65	91	2
35	132	1
146	147	4
80	80	1
125	125	1
119	129	1
85	85	3
124	124	3
144	144	2
153	153	1
115	156	1
79	79	4
113	114	1
124	170	2
45	82	1
44	45	1
76	76	2
23	23	3
168	170	1
4	4	2
45	81	1
50	52	1
117	123	3
122	170	1
112	113	1
64	116	1
68	69	1
65	115	2
98	99	1
149	150	2
117	118	2
74	74	2
4	57	1
89	89	1
6	12	1
33	33	1
119	119	2
10	11	1
108	108	1
38	47	1
87	88	1
33	34	1
107	139	2
81	81	1
36	37	1
130	132	1
118	118	1
17	18	2
12	13	1
164	164	1
75	77	1
19	20	1
44	44	1
128	132	1
41	46	1
120	120	1
43	44	1
77	78	1
