16	16	7
117	118	2
112	133	1
32	33	9
28	28	9
157	158	1
131	132	5
110	112	3
23	23	11
45	46	2
2	2	11
156	156	17
150	150	11
98	141	1
8	10	4
104	104	9
12	12	22
111	112	2
55	57	2
108	108	19
25	25	9
90	90	15
29	30	2
151	152	11
93	93	20
9	9	10
90	103	3
109	110	8
124	124	11
53	54	5
106	121	1
144	145	5
8	8	10
135	135	14
25	40	10
21	21	21
8	11	2
86	86	9
9	10	4
116	116	11
82	83	4
99	154	2
48	76	2
158	158	16
142	142	11
92	108	2
38	38	14
35	35	22
144	144	5
124	125	6
156	157	7
86	87	2
29	29	16
65	65	10
83	83	3
157	157	7
53	142	2
43	78	2
96	138	3
94	128	5
130	130	5
129	129	7
13	13	18
67	70	3
48	48	10
49	49	8
27	27	10
4	5	3
131	134	3
138	138	16
7	7	12
81	81	9
67	68	17
37	38	7
95	95	9
155	158	7
0	0	16
42	42	7
94	94	6
130	134	1
36	36	20
80	83	3
107	121	1
120	121	1
141	141	13
102	102	9
68	68	12
84	85	12
4	4	6
43	43	5
15	15	12
71	145	4
7	8	9
85	85	14
24	25	4
118	121	5
96	131	5
69	69	11
62	68	7
41	41	11
33	33	6
148	148	17
87	88	9
89	90	4
98	139	6
29	86	3
45	45	6
25	27	5
146	146	16
149	149	2
4	37	1
125	125	7
44	85	4
120	120	5
91	91	9
19	19	9
1	1	3
132	133	11
20	20	13
97	130	1
3	4	5
139	139	14
137	137	13
54	54	12
106	107	3
133	134	2
132	132	14
6	16	4
68	146	2
46	46	15
30	30	12
19	20	10
82	82	8
106	106	17
109	109	17
68	69	3
51	51	3
52	52	11
31	31	9
53	53	7
127	127	15
66	70	7
154	157	3
140	140	12
115	115	12
78	79	3
29	43	1
87	89	3
79	80	3
97	138	2
44	44	11
6	6	7
84	86	1
6	7	7
51	104	3
47	47	23
140	158	3
107	122	3
105	105	10
51	52	9
154	154	9
24	27	5
91	125	3
5	6	3
66	66	5
39	39	12
117	132	3
37	41	4
1	2	13
155	157	7
129	157	2
147	147	14
50	53	3
95	133	1
50	55	4
134	138	3
10	10	9
70	71	8
22	36	6
104	106	3
121	122	5
39	40	4
131	131	10
70	146	3
69	146	2
78	78	7
126	126	9
3	3	20
148	149	2
89	89	5
97	97	7
67	67	8
34	34	17
46	65	2
116	138	2
80	87	2
40	40	11
112	113	9
128	130	1
3	5	7
146	148	2
80	80	5
5	5	8
50	52	2
113	113	12
54	55	4
113	119	2
70	70	6
38	41	6
43	77	2
108	109	5
87	87	12
50	91	2
103	104	3
155	155	13
159	159	2
100	100	13
98	98	7
99	99	6
19	30	3
114	115	3
13	14	5
152	152	2
123	123	21
71	71	6
128	128	11
18	18	15
33	34	3
66	69	4
73	73	4
79	79	6
111	113	3
68	70	3
92	105	5
111	120	2
51	53	8
77	77	15
109	111	9
45	47	4
130	139	6
149	153	1
145	145	7
108	119	1
155	156	5
140	151	2
151	151	11
103	103	7
50	54	6
22	22	12
92	93	4
143	145	4
50	50	11
130	131	5
123	124	6
53	144	3
12	14	3
95	97	6
49	54	5
58	58	4
111	111	13
111	131	2
20	32	2
16	18	4
119	119	13
73	74	4
130	132	1
131	133	7
52	144	3
142	158	1
92	107	3
83	86	5
129	141	2
133	133	7
101	101	21
140	153	1
85	86	7
106	127	1
24	24	8
63	63	12
78	84	3
72	72	5
135	136	7
95	96	4
116	118	3
14	16	2
141	142	3
124	126	2
121	121	11
28	29	2
36	37	2
114	132	2
108	122	1
23	24	2
50	64	1
110	110	3
107	107	3
10	12	2
101	102	2
48	75	6
54	64	3
152	153	5
77	86	1
147	148	1
31	33	9
113	114	5
104	105	1
56	65	2
92	126	2
117	117	10
44	45	3
119	121	3
81	82	7
131	137	3
158	159	4
114	114	12
64	64	10
130	133	5
99	100	7
23	25	2
118	118	8
137	138	4
57	70	3
77	79	1
122	122	8
25	28	3
96	96	11
18	20	2
134	134	4
105	106	3
93	133	1
62	145	2
75	75	5
76	76	5
72	73	3
11	12	1
92	92	7
17	17	12
4	36	1
10	11	1
135	137	2
142	143	6
53	141	3
39	41	7
69	145	1
88	88	7
37	37	11
91	106	5
55	55	6
26	43	1
118	119	1
46	47	3
88	89	4
50	51	4
128	129	2
91	124	3
0	5	2
148	150	2
78	80	2
80	108	4
136	137	3
26	26	7
25	26	2
92	106	1
93	107	2
121	123	4
106	108	6
140	147	3
31	32	2
62	62	1
84	84	5
9	12	2
127	128	6
93	94	11
56	64	3
19	31	3
65	101	3
11	11	7
110	111	4
133	138	2
112	112	7
14	17	1
83	87	4
65	69	2
42	79	3
41	42	2
83	84	1
90	92	3
69	70	1
38	40	2
130	138	6
42	43	2
91	92	8
53	55	1
48	50	5
52	89	3
40	41	5
52	53	2
139	152	1
115	116	2
140	152	1
93	96	1
132	138	3
116	131	1
97	131	1
15	16	5
18	19	2
57	57	2
138	139	2
27	28	2
18	22	1
146	147	3
32	32	6
146	153	7
136	136	5
142	157	3
117	119	1
46	54	1
44	86	2
91	103	3
14	14	5
56	56	3
141	154	2
77	78	1
33	35	2
155	159	2
97	132	2
92	94	1
95	130	1
20	33	1
47	102	2
98	129	2
8	9	3
107	108	1
68	147	2
120	129	1
92	104	1
141	153	2
131	138	1
63	98	2
153	153	1
74	74	2
17	20	3
114	116	1
39	42	2
77	88	1
52	142	3
29	42	1
76	84	1
94	108	1
141	145	4
9	13	1
48	84	1
145	154	1
71	143	2
28	41	1
38	39	1
48	49	6
107	110	2
25	41	1
145	146	2
14	33	1
115	138	1
0	6	2
24	28	3
96	97	2
57	61	1
47	49	1
6	21	1
112	114	1
21	33	2
28	43	2
122	123	1
97	134	1
20	22	1
22	23	1
52	141	2
63	64	1
99	129	1
22	38	1
93	128	1
143	144	2
129	130	1
21	36	1
27	41	1
139	140	1
23	27	1
44	47	1
26	28	1
