45	122	2
71	71	11
75	75	13
127	127	15
108	108	18
44	44	18
62	62	16
111	116	2
134	134	14
120	120	23
133	134	5
73	73	28
16	16	21
74	74	11
122	122	6
113	113	14
93	94	6
64	64	22
43	56	2
45	46	5
58	111	3
123	123	19
16	17	5
109	109	14
120	121	2
14	16	3
10	10	12
30	30	9
15	15	24
64	107	1
79	108	1
24	24	5
79	125	3
129	130	6
78	78	20
102	102	12
115	115	12
107	108	15
118	118	26
116	116	33
95	95	22
126	126	25
89	89	1
72	72	11
46	46	24
92	102	6
43	43	15
32	32	21
106	124	3
7	7	5
57	57	30
18	18	18
114	116	1
129	134	2
58	58	19
41	42	5
8	8	22
12	20	2
28	31	4
17	17	29
121	121	23
72	73	8
14	14	11
79	80	6
125	125	24
101	101	11
19	20	11
23	23	6
12	21	5
56	57	2
109	112	6
61	68	6
63	63	23
68	68	11
3	4	4
22	22	6
5	5	13
48	48	9
116	117	8
46	117	9
118	119	7
104	104	13
67	68	3
88	134	3
3	3	6
90	90	20
110	116	4
36	36	5
9	46	2
91	93	4
103	103	12
35	35	11
83	83	25
27	27	14
129	129	13
15	16	20
9	10	5
64	65	11
13	88	2
26	26	10
8	9	6
103	104	4
86	86	16
70	71	5
78	93	2
81	81	12
62	63	6
94	101	2
61	67	2
27	29	3
56	59	1
97	97	14
21	21	14
37	37	12
77	77	20
100	100	17
84	84	10
13	29	5
20	23	11
124	124	24
93	93	22
57	111	1
28	37	3
59	59	22
107	107	4
60	60	26
1	1	13
47	47	18
133	133	14
9	9	16
17	115	1
12	108	4
12	12	9
73	74	5
63	64	3
39	114	4
112	112	9
128	132	8
4	33	6
107	113	5
78	80	2
77	80	3
65	71	6
33	33	28
17	38	6
0	0	14
55	55	9
110	110	18
61	61	17
116	125	1
126	127	2
125	126	6
27	30	3
95	97	2
64	67	1
4	5	6
66	66	20
65	66	11
63	72	2
99	99	12
34	34	12
17	18	5
91	91	7
22	23	5
42	44	2
84	85	3
96	96	10
119	119	23
35	42	2
13	26	3
20	20	24
96	98	4
32	33	2
95	96	3
105	131	1
115	124	1
96	97	3
64	71	6
98	98	1
10	107	3
47	48	12
102	103	1
2	2	9
112	114	4
31	32	5
61	66	6
25	25	1
40	40	5
87	88	4
127	131	7
102	128	2
132	132	6
41	41	9
65	65	19
25	29	3
115	118	2
62	69	1
9	20	4
131	131	9
41	43	1
131	132	11
128	131	2
33	116	2
116	118	1
85	85	25
96	99	4
29	29	15
59	107	3
62	71	2
76	93	2
104	105	1
83	84	2
51	55	2
106	106	9
31	31	9
88	105	1
106	114	2
25	26	6
10	11	12
60	108	2
22	26	5
45	45	15
47	123	3
92	92	15
23	25	9
73	81	1
130	130	12
58	59	6
68	69	2
131	134	3
11	11	22
28	28	18
33	115	5
67	67	5
12	22	3
76	76	24
103	111	1
45	113	3
127	130	9
91	92	9
117	117	24
82	133	3
38	39	6
42	43	3
54	55	6
49	50	5
117	118	7
69	69	16
87	108	1
77	78	9
18	32	1
87	87	13
95	108	4
82	94	1
119	124	3
21	22	3
115	121	2
124	129	1
13	13	10
106	128	1
42	42	5
97	98	4
59	60	3
119	120	5
33	35	3
57	110	4
115	116	2
106	109	3
93	95	4
111	111	7
88	89	1
58	68	1
130	133	3
43	44	2
2	3	3
126	133	4
118	125	9
38	38	3
74	75	6
62	73	5
4	4	5
20	21	4
46	111	1
70	70	9
19	24	1
15	19	2
34	41	2
40	57	4
94	97	3
18	19	4
59	97	1
128	128	7
9	32	2
47	117	1
38	40	4
19	23	3
109	116	1
80	80	9
66	67	9
56	56	6
131	133	2
89	90	2
78	82	7
91	102	1
85	88	2
108	111	5
3	36	1
6	6	5
77	91	1
99	100	2
79	81	5
113	114	8
130	132	2
92	94	5
101	102	3
27	39	3
115	117	3
109	110	5
78	133	2
61	65	3
85	86	8
129	133	3
107	115	1
27	31	1
37	114	1
86	88	3
121	122	9
80	102	5
61	62	3
29	30	6
80	107	3
46	122	1
82	83	3
96	109	1
66	68	3
82	82	22
111	112	2
76	84	1
18	114	1
103	128	4
19	25	2
11	20	1
6	36	1
13	21	4
39	40	1
104	107	2
0	1	4
19	19	5
93	102	1
15	25	7
105	105	7
74	92	3
101	112	4
103	127	4
112	113	7
94	95	1
19	44	3
48	49	1
78	92	2
17	22	3
66	69	1
33	117	1
94	94	8
26	39	1
114	114	2
127	129	1
7	24	3
5	31	1
108	109	2
28	29	2
107	109	2
27	38	1
75	76	1
108	124	5
77	125	1
104	127	4
45	56	2
34	35	4
13	28	2
34	115	1
21	25	4
60	61	1
15	28	1
40	58	1
76	77	3
17	33	1
78	79	4
76	78	1
50	50	1
55	56	1
103	112	2
18	20	1
2	16	1
103	124	1
14	19	4
100	112	2
132	133	1
4	35	1
76	85	1
14	24	2
39	39	4
90	93	2
35	36	1
120	124	3
118	120	1
103	115	1
59	117	3
62	72	1
78	85	2
57	58	1
78	91	2
121	126	1
124	128	2
70	72	2
79	95	1
48	130	1
126	131	1
8	15	1
2	4	2
45	57	1
7	33	1
105	106	2
16	28	2
5	6	1
22	24	1
60	115	1
79	109	1
45	123	1
69	70	2
84	90	2
106	127	3
27	28	2
20	25	1
65	67	1
84	88	1
126	134	1
8	57	1
16	57	1
97	108	1
19	21	3
79	82	1
92	98	1
54	54	1
96	102	2
11	12	2
37	38	2
83	86	3
75	85	1
78	81	2
117	124	2
46	47	1
62	67	2
77	92	1
71	72	1
11	89	1
113	115	1
9	14	2
17	116	2
80	94	1
56	112	1
82	96	1
8	10	1
67	69	1
33	34	2
8	19	1
82	90	2
88	95	1
126	130	1
97	107	1
79	79	1
92	99	1
3	34	1
11	86	1
