43	43	15
111	135	4
111	112	2
96	96	6
155	155	8
18	18	5
4	4	18
81	136	4
33	34	2
2	41	2
77	77	12
88	88	3
56	125	1
146	146	11
46	46	17
101	102	6
130	130	10
113	113	15
51	81	7
87	87	11
152	160	2
10	10	26
170	170	5
37	37	5
165	165	12
144	144	4
66	66	4
45	45	7
100	100	14
12	16	13
134	134	5
128	128	4
122	122	8
24	24	12
168	168	8
133	133	11
75	86	2
132	132	11
148	148	3
48	57	3
103	103	11
72	72	7
15	15	13
73	73	7
82	82	7
90	106	1
147	147	11
57	135	1
22	22	8
67	67	11
112	142	4
40	40	8
128	129	5
149	149	16
119	119	10
73	78	4
108	108	2
84	85	1
76	83	6
109	109	12
154	154	20
83	83	9
44	47	2
49	49	7
158	158	14
156	156	12
139	143	3
0	0	4
54	54	12
34	34	7
124	125	4
143	144	5
79	80	3
94	97	1
3	5	1
40	47	3
35	35	16
13	13	4
157	157	10
12	13	2
7	7	11
149	165	3
6	6	11
116	149	3
112	112	9
93	93	6
94	95	7
151	151	10
164	164	12
141	141	6
11	47	3
160	160	24
82	83	2
47	47	4
69	70	8
36	37	4
0	52	6
36	36	10
71	71	10
121	121	2
125	126	3
38	38	8
155	156	7
19	19	9
16	16	12
20	20	12
125	125	5
142	143	3
90	94	2
42	43	4
147	148	14
86	87	2
84	87	2
117	117	15
56	57	2
79	88	4
102	102	6
139	139	17
2	2	8
138	160	4
162	166	3
162	163	15
109	135	3
34	35	12
120	121	2
115	115	11
25	25	14
28	28	4
26	26	3
103	104	2
65	80	1
12	12	3
42	42	24
2	164	3
24	77	1
165	166	6
164	165	6
145	145	3
35	36	7
80	80	9
21	21	8
19	20	2
139	141	1
94	94	3
57	141	1
146	147	5
40	41	5
0	2	1
11	11	15
124	130	3
79	79	5
14	14	9
98	99	4
106	106	13
65	117	1
111	145	1
135	135	6
161	161	4
17	18	3
103	168	4
101	105	2
169	170	2
88	89	6
155	158	2
107	107	8
74	75	2
118	118	9
6	150	2
95	95	7
50	50	12
68	68	7
4	43	3
142	142	13
101	101	7
5	5	5
129	129	13
14	15	5
3	14	1
2	7	2
139	140	1
10	150	2
118	143	7
110	110	7
104	104	4
106	155	2
42	137	3
51	86	5
109	139	1
86	86	5
71	74	2
113	114	17
52	52	13
126	126	8
52	54	2
123	123	9
90	90	11
92	92	3
116	120	3
66	67	4
105	105	14
64	64	5
35	42	1
96	97	1
39	39	6
114	114	9
11	14	2
99	99	10
99	100	6
6	7	4
58	79	1
117	126	2
118	119	1
1	1	7
9	9	4
7	10	4
84	86	4
140	142	1
68	69	4
97	97	10
100	101	3
133	135	2
62	62	3
3	3	6
137	137	2
0	1	5
44	44	5
153	154	1
69	117	4
169	169	6
19	40	5
82	114	1
12	118	2
131	131	4
126	131	4
159	159	12
98	98	1
111	111	6
71	73	3
21	22	4
13	14	2
23	23	2
163	163	8
112	113	3
4	10	1
148	162	2
94	145	3
107	170	1
106	166	4
24	25	4
120	120	4
63	63	6
62	67	1
52	53	1
5	6	6
37	42	2
161	165	4
121	133	3
121	122	2
117	118	4
10	12	5
68	70	5
113	116	3
49	55	2
150	150	1
97	104	1
51	52	3
157	160	4
45	47	2
8	8	7
45	46	3
18	19	4
136	136	6
54	126	1
13	17	2
63	142	4
41	42	1
91	91	6
76	76	4
89	89	4
126	130	2
114	115	3
63	68	2
1	7	5
51	148	2
153	153	5
48	48	3
9	10	2
69	93	4
109	110	2
83	85	2
85	86	1
114	160	1
26	34	2
107	168	2
19	23	4
42	44	7
56	56	6
106	111	1
62	88	1
1	11	1
85	85	6
159	166	1
70	70	6
108	141	1
8	46	2
64	73	2
11	12	3
79	166	1
80	90	2
53	53	7
51	51	8
114	116	1
46	72	1
49	142	1
72	143	3
11	54	2
162	165	1
39	46	2
115	140	2
108	161	1
27	27	4
77	80	5
130	131	1
1	2	5
143	149	2
41	41	8
35	37	1
127	127	9
166	166	7
15	16	1
72	73	3
3	27	1
84	110	4
39	108	2
15	125	1
8	42	1
70	74	1
85	108	1
25	65	2
65	65	3
116	116	7
57	58	2
58	111	1
57	57	2
62	63	5
4	19	1
2	112	2
21	24	1
113	119	2
140	140	7
96	107	1
81	82	1
44	51	2
137	138	1
134	135	3
147	170	1
37	39	2
150	151	3
138	138	4
149	150	2
49	87	1
46	74	2
57	62	2
153	156	1
81	83	2
2	10	1
81	81	3
155	165	1
128	145	1
167	168	3
12	15	4
84	117	1
105	106	5
90	91	1
93	146	1
91	117	2
54	55	3
19	24	4
138	170	1
131	132	3
123	153	1
23	26	1
39	54	3
100	105	3
166	168	3
125	130	2
124	135	1
39	161	4
98	116	2
3	50	3
64	66	1
108	138	1
17	53	2
116	123	2
103	129	2
163	165	4
140	149	1
166	167	1
39	55	1
98	149	1
16	17	1
70	112	1
55	72	1
7	43	2
124	124	4
152	152	2
69	69	1
52	64	1
45	49	3
167	167	2
120	124	1
128	135	1
5	10	2
93	95	2
18	24	3
100	102	3
122	168	1
99	105	1
116	166	1
86	168	2
132	150	1
108	136	3
123	135	1
25	27	1
121	124	3
157	158	2
22	24	1
117	170	4
70	71	1
93	94	1
74	74	2
25	42	1
122	127	2
117	128	1
84	84	6
40	46	1
25	52	1
148	151	1
26	27	2
73	120	1
6	8	1
2	4	1
27	28	1
23	56	2
104	106	2
63	72	1
2	52	1
0	88	1
37	38	1
152	153	4
44	45	1
107	112	1
155	164	3
74	86	1
127	129	2
119	122	1
129	131	1
85	168	3
140	141	1
7	8	3
68	96	2
128	130	2
148	152	1
78	78	1
14	16	1
149	163	1
10	57	3
4	5	1
77	82	1
76	81	1
129	130	2
90	96	2
153	169	2
154	157	2
4	40	1
63	104	1
147	156	2
52	63	1
5	161	1
155	161	1
109	111	1
9	11	2
52	71	2
1	6	1
92	93	2
75	85	1
71	72	1
111	114	1
58	148	1
131	133	1
76	77	1
33	33	1
2	11	1
135	136	1
139	169	1
67	70	1
38	41	1
146	154	1
23	24	1
149	155	1
124	127	1
95	132	1
3	25	1
90	132	1
55	126	1
99	102	1
163	164	1
113	142	1
7	52	1
97	111	1
116	117	1
131	135	1
115	128	1
