132	133	1
130	131	1
57	57	2
124	124	5
99	101	1
8	8	12
26	36	5
154	154	1
90	128	3
81	85	3
75	94	4
135	141	1
72	73	4
125	137	5
84	88	2
37	81	2
58	64	2
129	129	3
152	154	1
14	15	2
44	44	2
86	96	3
151	166	3
140	156	1
56	56	2
46	46	4
4	4	6
55	55	3
33	33	5
160	164	1
90	109	1
122	122	5
40	49	4
83	95	1
119	123	2
76	76	4
16	146	1
113	113	4
13	13	2
88	93	1
41	41	1
90	107	5
51	51	3
145	145	4
86	93	1
110	123	5
76	80	2
155	155	3
132	136	4
101	105	2
132	132	10
24	24	2
54	54	1
18	18	2
155	156	2
56	66	2
86	102	3
114	120	1
64	73	2
134	140	1
137	140	2
71	71	2
63	73	3
20	39	3
113	114	2
80	80	3
24	35	2
9	10	5
153	155	1
26	26	1
127	128	1
159	160	2
137	137	2
79	79	3
17	17	1
120	136	2
7	7	5
129	144	2
168	169	4
82	96	3
38	56	1
38	48	2
68	72	1
102	123	5
16	134	3
20	20	3
120	120	3
170	170	5
2	23	2
155	165	4
75	91	1
143	143	7
121	135	1
126	148	3
107	108	1
14	14	6
159	163	2
51	56	2
91	95	2
35	35	1
34	47	3
105	105	2
75	75	3
89	89	2
79	95	3
126	139	1
13	20	4
69	69	6
151	151	1
79	96	2
9	24	1
166	167	2
92	96	3
98	113	2
149	152	1
156	160	3
8	10	4
139	146	4
165	165	2
93	111	2
121	122	1
41	58	2
78	79	2
24	43	3
118	118	3
157	157	2
7	22	4
168	168	2
16	132	6
0	1	2
15	15	2
162	166	3
114	133	1
46	47	2
34	34	2
125	133	2
87	87	7
8	9	5
1	5	2
98	118	3
65	65	2
16	16	3
7	25	2
70	83	1
92	92	7
10	14	2
151	170	2
142	142	1
72	74	1
8	142	3
99	113	1
67	67	5
116	116	4
108	111	1
9	11	4
68	80	2
0	0	2
97	97	2
141	141	1
72	72	1
47	48	2
138	141	1
21	21	2
64	82	1
147	162	1
145	159	1
149	149	5
110	110	1
5	6	4
63	63	1
87	105	2
27	39	1
96	96	1
159	159	4
73	74	2
21	26	3
62	62	1
11	21	2
50	53	2
3	23	2
8	16	1
162	162	1
93	93	1
41	42	2
136	136	1
83	83	1
20	44	1
47	47	2
137	139	1
37	38	3
53	53	2
43	43	6
36	90	2
27	54	1
62	69	1
68	85	5
61	94	3
21	38	1
156	156	1
40	51	1
68	68	1
85	87	1
65	77	4
63	77	1
25	27	2
142	146	2
2	2	1
110	111	3
127	135	1
64	65	2
112	137	2
117	117	3
108	108	2
63	69	1
23	23	2
24	28	2
67	84	2
159	169	2
87	104	1
110	125	3
35	37	3
89	103	1
161	168	1
126	126	2
112	121	1
2	33	3
46	56	2
94	111	1
15	25	1
113	116	1
86	86	1
11	13	2
148	148	2
97	98	1
110	147	2
74	74	1
161	161	2
26	28	1
134	134	1
121	121	3
85	93	1
90	90	2
114	114	1
86	89	2
66	70	3
89	105	1
111	123	1
112	129	1
132	142	1
159	168	1
82	82	1
14	24	1
154	170	2
52	63	2
52	57	1
150	170	1
22	22	2
7	35	1
8	15	1
155	169	1
164	167	3
151	152	1
117	135	1
158	168	1
74	76	1
69	76	1
128	129	2
40	40	2
10	34	1
150	150	1
2	3	1
20	22	1
16	21	2
101	102	1
6	11	1
109	109	1
81	81	1
139	149	1
27	47	1
109	122	1
8	26	1
160	162	1
100	131	1
133	147	1
100	100	1
1	17	1
121	137	1
72	84	1
