66	66	9
221	221	2
24	25	1
23	23	14
18	18	8
42	42	12
48	48	2
9	9	4
160	163	2
151	151	2
179	179	5
150	217	3
37	39	2
36	36	4
60	85	1
207	207	13
119	119	5
174	174	6
157	157	5
189	190	3
59	59	3
192	192	6
224	224	4
40	40	5
247	247	7
109	109	2
232	232	8
72	72	2
43	43	2
15	19	1
95	96	5
227	227	7
83	83	9
213	213	4
11	12	3
154	154	6
239	241	2
71	71	6
71	78	6
192	193	1
145	145	3
15	15	7
68	68	9
234	235	5
5	5	5
28	29	3
166	167	3
171	195	3
201	205	3
28	31	3
70	75	1
186	186	2
216	216	5
163	163	8
31	31	6
2	3	1
69	70	3
90	90	9
158	158	2
8	8	3
26	27	3
89	89	2
158	160	3
25	25	5
81	91	7
79	79	2
229	229	7
96	96	5
115	223	3
188	189	1
160	160	3
51	51	3
77	77	5
200	200	5
226	226	7
190	190	1
56	56	2
153	153	3
186	190	1
16	16	5
198	198	2
94	94	5
233	234	3
179	200	2
217	217	7
222	222	5
180	182	2
206	206	4
100	110	2
82	82	2
100	100	11
39	39	2
27	27	2
183	210	2
187	187	9
195	195	2
43	113	1
105	106	1
168	169	3
184	184	4
106	106	1
216	217	6
105	105	7
2	2	1
182	182	2
161	161	2
162	163	1
68	69	4
97	99	4
191	191	2
4	37	2
178	180	1
53	53	5
49	49	3
154	232	1
91	91	5
6	7	2
96	97	4
63	64	12
102	103	2
76	77	6
53	94	4
46	46	3
240	240	8
234	234	8
187	236	3
118	119	3
85	85	4
97	97	3
98	101	3
75	75	1
114	114	1
81	81	7
65	66	4
91	92	8
92	92	4
57	57	3
30	31	4
42	43	1
29	29	3
189	189	4
212	212	4
246	246	2
60	60	5
29	31	1
204	226	3
5	7	2
62	62	4
26	26	7
35	35	5
44	44	1
214	248	1
14	14	4
241	242	7
182	234	3
49	50	1
63	65	2
32	32	4
243	243	4
108	108	4
24	24	2
144	149	1
181	234	1
235	244	5
237	237	7
6	6	2
173	173	3
88	88	3
31	32	5
203	207	1
25	26	3
236	240	2
95	95	6
220	220	3
74	74	1
50	52	2
114	226	1
230	230	4
30	64	1
215	215	2
82	83	2
231	232	1
26	109	2
113	113	2
110	110	2
233	233	2
170	170	4
30	30	4
12	12	2
167	167	2
111	111	4
21	41	2
228	228	5
155	155	8
171	193	3
117	117	10
205	205	2
162	162	9
93	94	4
243	244	1
194	194	2
159	159	5
165	165	8
150	150	5
4	4	2
204	223	6
58	74	2
168	168	2
1	2	1
100	101	4
37	37	5
185	185	6
113	114	1
187	188	1
214	214	5
91	93	2
98	98	2
39	40	1
169	169	2
115	115	1
33	62	3
50	50	2
245	245	4
41	41	3
99	99	1
21	22	3
0	0	2
78	78	2
117	120	3
77	78	3
70	70	1
9	10	1
8	9	2
164	164	3
212	214	1
176	176	1
116	116	6
84	84	2
213	214	7
159	242	2
248	248	2
71	72	1
175	175	2
1	1	1
10	10	3
38	42	1
166	168	3
236	237	2
54	54	3
22	23	1
10	56	1
20	21	3
193	193	1
238	238	4
63	63	1
235	235	2
58	58	2
203	227	1
45	45	1
18	19	2
236	244	1
223	223	3
106	107	1
16	17	3
7	37	4
56	57	1
78	79	4
215	216	2
17	17	1
219	219	1
89	90	3
105	107	1
47	48	5
210	210	1
153	210	1
11	11	2
33	63	1
69	76	4
75	76	1
34	62	1
225	225	4
80	82	2
158	243	2
3	5	2
34	34	2
11	13	1
218	219	2
103	103	3
28	32	1
112	112	3
226	227	1
209	209	1
104	105	2
217	218	1
51	52	1
13	13	1
101	101	1
214	215	1
203	209	1
120	120	1
45	147	1
187	244	1
202	203	1
204	205	1
20	22	1
181	181	1
156	156	2
73	73	1
195	196	1
149	150	1
113	227	1
38	39	1
70	71	1
33	33	2
180	233	2
245	246	1
184	185	1
60	62	1
21	23	1
232	233	1
102	102	2
197	198	1
93	96	1
111	112	1
192	195	1
15	16	1
93	93	2
50	93	1
220	221	2
72	73	1
183	183	1
27	32	1
108	220	1
