39	40	2
5	5	5
137	139	5
4	127	2
5	6	2
86	86	4
44	44	4
70	122	4
102	102	3
168	168	5
53	56	2
169	169	18
122	122	4
130	136	2
27	28	1
99	133	3
70	70	6
98	108	2
68	69	7
52	52	13
164	165	2
21	24	4
112	141	3
88	88	8
128	130	3
35	35	14
166	167	10
84	84	8
93	96	5
85	85	4
9	9	6
95	95	8
76	76	11
23	25	2
26	28	1
10	10	7
101	102	2
91	91	11
20	20	6
73	124	3
13	14	3
65	65	6
16	16	2
130	142	3
24	24	1
0	85	5
91	93	1
163	165	1
39	39	6
90	90	7
143	143	2
124	124	9
36	36	4
81	123	2
74	120	1
71	71	13
77	161	6
140	140	3
27	100	3
112	152	5
127	166	1
28	48	1
126	126	9
114	114	8
165	165	1
108	108	12
155	163	1
21	21	6
144	152	1
155	155	3
123	167	4
139	140	4
68	68	7
102	112	2
43	44	1
115	116	1
33	36	2
131	151	2
18	18	3
101	101	2
51	87	4
133	150	3
24	155	1
81	122	1
127	147	6
24	100	2
98	99	5
13	110	3
26	26	5
58	62	2
23	23	10
8	82	2
50	87	1
37	37	3
71	125	1
0	0	2
15	141	4
12	45	3
98	131	4
103	104	10
80	80	6
40	40	2
166	166	4
49	49	9
53	79	2
69	70	6
73	85	1
87	87	3
118	119	1
136	136	5
107	167	1
8	85	2
13	23	4
126	147	4
148	156	2
100	102	2
158	162	1
56	80	1
163	163	6
127	127	9
139	139	5
72	147	1
152	152	2
147	148	5
39	41	1
74	74	5
76	165	3
104	115	3
64	69	2
19	69	1
138	138	5
44	107	5
22	22	3
103	103	3
149	149	12
133	133	3
20	88	1
69	69	5
97	142	2
83	83	2
119	120	8
4	4	3
70	81	3
57	57	1
12	18	4
145	145	7
97	97	6
116	121	1
117	137	3
78	79	7
118	118	1
125	147	1
27	47	2
95	129	3
147	147	9
69	159	3
119	119	6
77	113	1
94	94	2
43	43	3
164	164	5
159	159	3
42	80	3
92	92	1
83	113	5
99	99	4
142	142	3
41	41	1
33	33	4
151	151	5
148	149	2
64	64	4
8	9	2
153	153	3
129	150	1
72	157	5
96	96	1
73	73	3
98	98	6
74	104	5
46	46	9
15	15	2
77	77	5
93	93	4
25	28	1
17	53	1
86	87	2
110	152	2
155	156	2
53	54	4
13	20	1
10	86	1
122	123	3
47	48	4
53	53	5
126	157	3
96	135	1
6	7	1
34	36	6
17	17	4
25	25	6
81	81	4
42	42	4
99	156	5
113	113	3
57	62	1
2	2	6
74	77	1
161	161	9
54	54	7
107	107	3
148	148	3
76	80	2
128	128	2
23	24	2
144	165	1
128	129	1
19	70	2
134	135	2
113	141	3
87	89	1
6	39	2
67	67	2
63	63	5
28	28	3
66	66	1
55	55	3
77	78	6
137	144	1
131	137	3
18	96	4
131	138	2
76	105	5
72	72	2
130	134	4
14	15	4
167	167	1
27	132	2
9	10	5
146	146	1
0	12	4
63	160	1
40	84	2
135	135	6
158	158	1
51	51	2
24	56	3
54	55	2
2	41	1
115	115	5
92	112	1
46	135	3
20	110	5
157	162	4
38	38	3
103	112	1
120	120	2
71	73	3
100	100	2
38	162	4
48	48	3
7	10	1
70	123	3
2	3	3
89	89	3
135	136	1
97	99	2
130	150	3
7	7	2
131	131	1
22	23	4
19	111	1
63	154	2
39	81	1
110	121	4
125	125	1
82	83	3
19	19	3
130	130	1
90	151	1
76	159	2
111	111	2
154	154	3
40	41	1
123	123	1
42	82	1
114	118	3
112	112	6
63	127	1
151	153	1
113	114	2
142	150	1
162	163	3
157	157	1
16	35	1
53	55	3
127	164	1
132	154	3
76	160	1
45	46	1
72	73	2
75	146	3
94	129	1
109	109	4
127	157	2
83	84	1
121	122	4
2	167	1
38	42	2
71	127	2
38	45	1
10	39	2
124	125	1
45	45	2
38	106	1
44	146	1
106	107	1
13	13	2
10	11	1
77	104	1
114	115	2
134	134	1
62	123	3
11	11	1
62	62	1
63	165	1
44	45	2
84	91	3
7	37	1
1	85	1
144	144	2
72	77	1
148	157	1
50	50	4
105	106	1
6	135	1
6	6	2
99	100	1
97	140	1
18	77	1
46	136	1
70	73	3
1	2	1
169	170	1
95	97	1
92	103	3
17	140	2
4	66	1
12	13	2
47	162	1
18	22	2
17	82	1
137	137	1
99	138	1
27	149	2
90	120	1
105	110	1
85	87	2
76	106	1
41	42	1
114	142	1
16	84	2
42	70	1
62	63	1
82	82	2
73	83	3
75	75	1
168	169	1
71	107	1
73	81	1
4	41	2
20	79	1
131	132	2
1	1	1
14	14	2
3	3	2
91	92	1
121	124	1
140	142	1
46	47	1
55	81	1
16	17	1
20	21	1
42	43	1
67	160	1
38	39	1
4	5	1
160	161	1
40	147	1
117	120	1
132	132	1
37	38	2
15	25	1
79	79	1
5	53	1
105	167	1
117	117	1
134	150	1
18	69	1
129	129	1
72	106	1
50	51	1
48	49	1
7	12	1
