62	70	1
76	77	8
78	79	8
30	30	16
107	109	3
85	86	1
102	102	3
79	79	4
22	92	3
31	31	6
82	82	6
63	63	13
97	97	9
65	66	4
111	111	11
32	35	1
81	81	13
48	48	9
46	46	1
32	32	15
65	89	6
42	114	2
101	101	4
99	101	1
85	85	9
45	45	4
90	99	9
108	108	6
62	62	4
97	98	3
35	35	13
41	41	15
83	85	4
60	60	6
34	34	6
61	61	9
110	110	14
91	91	2
107	108	2
51	51	3
42	42	6
35	36	2
65	112	4
42	61	9
77	114	2
93	93	6
37	37	3
66	66	5
76	102	1
28	112	4
26	27	10
32	39	2
51	87	2
28	40	2
78	78	5
99	99	14
65	65	4
67	67	4
29	30	7
23	92	1
103	103	6
48	49	6
24	93	1
75	75	12
56	56	5
76	76	12
59	59	2
29	77	2
83	83	1
44	113	2
27	114	7
32	41	3
58	64	4
91	92	8
54	54	3
79	82	1
21	21	6
70	71	7
47	47	6
92	92	3
38	55	1
107	107	4
89	90	5
87	87	5
33	98	3
41	95	1
94	94	4
94	95	2
64	84	2
47	79	2
28	28	7
91	101	3
84	103	1
20	96	3
30	77	3
73	75	3
50	50	10
55	57	2
105	105	7
58	59	3
24	27	1
109	111	3
27	112	3
33	34	5
22	22	1
37	38	1
104	104	4
34	35	2
72	72	3
39	40	6
19	23	3
74	75	2
101	103	2
81	82	2
64	89	4
40	111	1
25	91	4
93	98	4
98	98	1
43	43	5
38	38	8
71	71	7
27	32	2
70	70	6
54	57	3
62	63	2
103	104	1
112	112	1
49	49	4
55	56	3
55	55	4
73	73	7
44	52	1
77	87	2
58	58	5
59	60	2
105	109	2
95	95	2
64	64	4
45	113	1
50	51	3
67	71	3
44	45	2
41	66	1
32	34	2
86	86	5
43	63	2
34	36	1
98	100	2
74	74	4
96	96	1
25	87	1
81	86	4
33	108	4
30	114	3
33	33	2
90	90	1
90	110	1
36	36	3
68	68	3
36	37	2
26	26	2
41	50	1
98	99	1
77	102	3
50	114	1
51	112	3
82	84	1
51	52	2
44	61	3
82	83	1
81	112	2
28	111	2
44	44	5
20	33	2
23	50	1
62	77	2
63	68	1
88	88	1
111	112	1
76	85	1
103	109	2
29	96	2
20	21	1
25	25	3
29	29	2
20	97	1
77	77	4
92	94	1
42	45	1
31	32	2
25	30	3
54	55	1
42	60	1
24	24	1
89	100	1
114	114	1
20	20	1
28	86	1
23	23	1
45	50	1
22	91	3
88	89	1
84	84	2
78	81	2
57	103	1
45	46	1
20	99	1
81	83	1
45	107	2
37	93	1
79	103	1
19	56	1
81	103	1
76	113	1
