28	29	4
125	125	6
13	13	8
49	52	1
99	99	14
80	80	15
98	114	2
111	111	15
49	49	7
2	5	3
115	115	8
50	51	4
1	42	7
51	51	5
4	5	6
50	50	12
38	39	3
101	117	2
74	76	3
46	46	5
98	98	5
29	30	4
31	31	5
78	81	2
55	55	8
61	61	6
41	41	8
87	87	11
82	82	8
23	23	10
96	98	2
17	17	9
11	11	1
52	52	8
14	34	1
25	25	5
92	92	9
85	86	1
116	116	6
79	79	4
5	5	7
20	20	6
12	12	4
100	101	1
11	12	10
43	43	1
121	121	2
131	131	2
0	0	6
114	114	5
107	107	16
48	48	12
3	5	2
45	45	4
129	129	10
73	74	7
103	103	13
66	66	16
58	59	3
3	3	10
59	59	7
102	103	2
22	29	4
44	44	7
109	117	1
102	130	1
63	64	3
78	79	3
72	75	2
93	123	3
91	91	11
74	74	10
90	94	2
23	25	1
10	10	4
70	71	2
29	57	7
75	75	3
56	56	7
121	124	1
106	106	15
108	108	6
124	124	10
97	97	5
2	41	2
103	128	1
119	119	5
47	60	2
24	24	6
1	1	12
132	132	8
81	82	5
125	132	2
9	9	4
57	57	3
72	74	2
117	117	5
96	110	3
56	84	2
16	18	5
91	92	8
2	6	3
31	32	2
110	110	5
81	83	1
31	45	1
67	67	6
105	105	11
1	59	6
78	78	8
108	115	2
44	45	2
42	67	2
8	8	7
101	115	2
33	33	9
126	127	5
110	122	5
87	88	1
98	105	1
52	53	1
54	54	8
63	63	6
2	3	5
53	53	6
88	89	3
130	131	3
113	113	6
16	16	5
127	127	5
5	6	4
118	120	1
88	88	5
80	88	4
81	81	3
40	40	5
31	46	2
68	68	4
32	55	3
109	109	15
59	60	2
28	28	6
104	104	3
47	48	3
34	55	2
67	68	3
94	94	8
42	46	1
96	96	1
69	83	4
47	47	2
132	133	3
56	57	1
102	102	7
118	118	4
45	47	4
100	100	10
24	40	9
12	49	2
34	38	4
64	64	1
45	55	2
75	77	1
82	88	4
53	54	2
29	29	3
114	116	1
39	42	4
42	42	6
9	18	3
62	68	4
4	4	6
80	81	4
58	62	1
85	85	8
46	55	1
22	22	4
97	98	1
6	6	4
38	38	4
9	14	3
72	72	3
128	128	5
15	15	1
45	46	4
101	101	4
41	58	3
112	112	4
30	30	4
27	27	10
69	69	4
120	122	1
71	72	1
90	90	6
49	57	1
75	78	5
59	85	1
59	61	1
15	20	2
96	100	3
60	60	5
114	115	9
87	101	1
84	84	7
103	104	1
78	88	1
62	74	2
86	87	1
105	116	4
95	96	2
2	52	1
95	120	2
19	32	2
3	4	3
27	28	6
103	131	4
11	16	1
11	14	2
82	86	1
93	93	6
72	73	3
110	117	1
30	40	1
126	131	2
68	74	2
86	86	3
23	24	1
112	114	4
95	95	2
99	100	4
9	34	2
82	83	1
123	123	2
112	113	2
19	19	2
76	76	2
94	114	1
73	73	2
111	121	1
54	56	3
29	41	4
113	128	1
59	62	3
7	7	4
89	90	1
133	133	2
96	97	3
9	13	2
19	20	1
60	61	4
48	57	1
9	10	1
115	126	2
20	46	1
33	75	1
62	62	3
125	126	2
39	39	2
38	41	1
75	126	3
120	120	2
69	85	2
12	18	6
71	71	2
106	108	1
11	13	1
130	130	8
24	41	4
58	68	1
74	75	1
90	92	2
75	76	1
40	41	2
10	15	1
76	77	2
30	44	1
29	42	3
111	112	1
31	54	1
14	32	1
104	124	1
106	116	1
57	58	3
106	107	4
51	52	1
16	39	1
0	2	2
62	64	1
53	56	2
129	130	1
75	124	1
27	29	3
11	38	2
97	115	1
75	125	2
70	70	3
18	18	1
39	43	1
65	65	5
21	21	3
47	59	2
42	43	1
117	127	1
112	120	1
60	75	1
7	21	1
2	2	1
14	14	1
31	55	1
43	44	1
41	42	2
103	116	1
58	58	2
23	29	1
60	101	1
126	133	1
42	83	2
79	123	1
105	108	1
94	95	1
89	89	1
10	13	1
28	40	1
