142	172	3
139	139	2
33	33	2
35	35	1
159	159	4
90	92	4
42	42	3
67	76	1
105	106	3
60	96	6
87	87	3
25	25	5
117	117	4
18	18	2
18	19	2
61	124	2
17	17	1
12	12	5
109	109	8
11	11	1
124	124	6
130	146	1
1	5	1
37	37	7
55	55	2
2	2	6
105	105	4
143	145	3
31	64	2
129	153	1
49	49	2
80	80	1
56	98	1
129	146	1
9	59	5
18	55	3
81	81	3
145	145	1
144	144	5
92	92	7
54	54	4
73	73	5
153	153	5
56	56	4
88	89	2
8	8	3
53	54	2
18	45	3
99	100	1
102	133	2
57	57	3
163	165	1
78	78	2
106	106	3
99	103	1
148	148	1
96	96	7
167	169	1
45	45	4
76	76	5
71	71	2
63	89	1
142	143	4
134	134	3
154	154	6
145	153	2
132	132	1
158	158	6
21	21	6
164	164	5
32	32	1
135	136	6
127	127	1
105	111	4
15	17	2
10	10	2
98	98	3
18	33	2
163	163	5
75	81	1
43	43	3
27	27	10
7	7	1
14	15	3
143	153	3
16	16	6
31	31	3
128	128	6
137	141	2
166	167	2
162	165	2
76	77	1
162	162	4
149	149	6
129	129	2
19	40	3
173	174	2
94	94	4
143	170	1
20	20	1
29	29	7
4	6	2
162	169	1
75	132	2
5	5	6
68	68	4
120	120	5
97	98	1
171	171	2
154	158	2
170	171	6
28	28	3
168	168	4
88	88	3
145	148	1
51	51	2
131	131	6
77	77	4
15	15	4
30	31	1
115	115	2
27	28	2
91	91	1
178	178	1
112	116	2
65	79	2
170	170	1
75	75	5
174	174	2
137	138	2
107	107	4
103	103	2
138	138	6
3	8	2
64	85	3
170	172	1
157	157	2
151	151	2
14	14	3
51	52	3
8	10	5
13	17	1
64	64	3
156	156	1
99	99	2
96	97	2
11	41	2
109	168	3
121	121	1
122	122	3
173	173	2
41	41	3
53	53	2
104	104	1
66	67	3
166	166	1
23	23	4
9	9	4
173	175	1
143	144	4
40	40	4
142	144	2
55	56	2
131	149	2
141	171	2
72	72	5
15	16	5
167	167	5
130	130	2
24	24	1
19	19	2
72	74	1
60	94	1
30	32	1
176	176	2
66	66	3
64	118	1
35	36	1
13	14	1
123	128	1
160	161	2
179	179	2
34	141	3
119	125	3
4	5	3
63	63	1
139	150	2
53	63	1
67	67	1
105	137	1
34	34	3
50	50	2
135	135	2
153	172	1
22	58	2
171	176	2
93	93	1
97	109	1
17	20	1
108	109	1
140	140	2
33	56	1
58	58	2
19	43	3
104	137	1
115	116	3
33	57	1
58	166	1
65	65	2
165	165	3
130	149	1
17	32	1
158	161	1
142	142	1
107	137	2
58	165	1
136	136	2
126	128	1
2	12	1
151	153	2
66	79	1
160	160	2
73	75	1
95	95	1
128	130	1
134	180	1
86	86	1
1	4	1
63	84	1
86	93	1
150	150	2
129	143	1
0	5	1
113	134	1
11	36	1
178	179	1
61	61	1
135	176	1
10	37	1
152	154	1
13	13	2
33	40	1
41	46	1
144	147	1
158	171	1
117	167	1
8	19	1
110	125	1
3	4	2
44	45	1
158	178	1
62	62	1
10	36	1
81	82	1
109	174	1
98	99	1
136	144	1
115	118	1
137	137	1
53	78	1
85	85	1
154	155	1
113	113	1
123	123	1
116	172	1
2	3	1
