124	124	4
151	151	7
101	102	6
90	90	8
94	94	24
46	67	2
35	35	6
91	91	8
66	66	7
159	159	11
88	88	12
34	34	8
68	76	7
90	99	8
125	126	11
53	53	8
75	75	8
170	170	8
18	18	12
112	112	4
44	45	2
20	116	2
115	115	6
41	41	4
117	117	3
134	134	14
57	57	3
48	49	4
23	24	6
112	129	2
42	42	9
75	141	3
132	132	10
109	110	2
84	84	5
164	164	20
85	86	2
143	143	8
165	166	4
25	52	2
33	33	8
25	25	9
128	128	5
133	134	3
140	141	4
70	70	6
79	79	8
105	106	4
86	86	13
89	89	9
127	129	2
71	71	7
147	147	16
69	69	5
8	21	3
108	108	16
136	136	18
87	87	13
121	121	10
27	27	8
8	116	7
86	87	5
118	118	4
70	92	3
11	11	24
169	169	10
68	68	6
46	47	10
38	38	8
120	121	9
3	3	12
17	129	4
21	21	6
146	146	10
119	132	3
50	50	4
158	159	1
80	80	8
130	130	7
1	1	7
122	122	14
93	93	12
22	22	9
72	85	1
42	110	1
163	163	3
19	19	11
119	136	4
123	125	1
141	141	7
104	104	2
147	148	10
100	103	1
0	1	3
71	77	4
20	22	5
23	23	11
92	92	2
138	138	13
97	97	6
37	38	6
107	160	3
43	44	3
16	17	1
55	55	6
109	109	5
2	2	7
17	17	6
4	4	8
118	121	2
142	142	9
102	102	6
146	147	2
28	47	1
26	65	2
76	124	3
137	138	8
87	106	2
47	48	2
82	86	1
106	106	4
129	129	9
39	107	2
40	40	5
70	77	7
5	5	6
144	144	8
81	81	3
133	133	5
150	151	2
162	162	4
45	45	11
168	169	7
48	48	3
48	53	2
148	148	2
39	39	7
37	37	5
3	24	2
73	73	3
5	6	4
150	150	9
53	54	1
4	6	1
20	20	7
129	130	2
14	14	2
74	107	1
8	9	4
111	111	5
135	135	7
54	96	4
96	96	9
163	164	4
155	155	8
6	7	4
117	130	4
23	63	5
38	156	1
64	65	6
14	15	3
105	105	8
65	66	4
137	137	8
7	7	5
9	9	2
98	98	14
119	137	7
42	43	5
39	108	2
65	65	3
8	8	5
2	3	1
36	36	5
79	87	3
168	168	11
49	52	3
80	105	1
70	71	5
22	23	6
82	82	3
54	54	3
67	67	2
154	155	1
103	104	4
44	44	3
79	88	3
119	121	3
167	167	10
113	113	2
24	25	1
10	10	7
10	11	2
40	41	9
74	144	1
116	116	2
152	152	9
76	126	1
126	126	5
43	108	2
47	53	1
39	151	3
167	168	2
47	49	3
108	139	6
13	13	4
118	132	7
24	24	5
74	74	2
110	110	4
142	153	4
127	127	8
78	78	1
117	118	6
2	16	3
26	26	7
0	0	2
110	111	2
157	157	4
15	21	1
166	166	10
38	39	2
21	22	4
145	146	4
145	145	11
97	100	3
89	106	3
4	5	4
8	10	3
142	143	1
75	76	2
123	124	2
93	98	2
121	134	1
143	144	2
100	100	1
131	131	8
115	116	5
71	89	1
161	161	4
16	16	5
38	40	5
120	136	3
121	122	4
17	64	1
90	94	4
140	140	7
122	141	1
57	62	2
84	86	1
123	123	16
119	138	4
135	136	2
152	156	3
35	37	2
6	6	13
22	24	1
156	157	5
113	114	1
2	25	1
82	83	3
120	120	5
46	46	5
47	47	8
1	21	1
107	107	4
52	52	7
124	125	2
166	170	2
111	136	1
69	70	1
71	73	3
151	159	2
153	154	2
123	138	1
38	107	1
3	4	1
119	119	5
140	152	1
72	72	3
160	161	1
1	2	1
44	47	3
149	149	4
138	139	1
47	67	2
81	91	2
131	132	1
43	43	3
80	81	1
39	41	1
160	160	11
2	22	2
105	149	3
62	67	1
140	156	1
83	83	3
166	169	5
110	127	1
94	95	5
73	74	2
156	156	7
71	72	1
26	58	1
33	34	3
114	114	1
12	12	5
110	119	1
8	12	1
134	136	2
158	158	2
128	129	1
102	103	1
139	139	2
28	28	1
98	103	3
82	87	1
76	76	1
97	101	1
118	120	1
160	162	1
106	107	1
42	111	1
86	91	1
40	137	2
78	79	2
15	15	1
69	126	1
98	99	1
101	101	2
122	123	2
144	145	1
49	49	2
78	92	1
5	20	1
71	78	1
165	165	3
45	94	1
27	28	2
162	164	1
56	56	1
7	15	1
107	108	2
76	77	1
71	80	2
17	18	2
80	82	2
134	135	2
100	101	1
53	55	1
161	162	1
155	156	1
2	15	2
9	10	2
34	35	1
34	36	1
2	58	1
74	140	1
88	90	1
81	99	1
107	152	2
50	51	1
17	110	1
64	64	1
145	149	1
166	167	1
103	103	1
7	116	1
96	97	1
80	83	1
77	78	1
27	39	1
7	13	1
51	51	2
93	95	1
119	133	2
17	112	1
151	152	1
93	94	1
8	11	1
68	69	1
12	13	1
4	15	1
27	109	1
122	124	1
74	150	1
