79	81	2
68	70	1
124	125	9
24	24	8
28	28	6
15	18	1
4	4	6
97	98	4
71	71	4
7	34	3
73	73	4
1	2	5
130	130	5
118	118	11
11	11	2
30	78	4
60	63	3
63	73	3
62	63	3
14	15	1
74	75	9
13	14	1
90	90	6
85	85	4
81	94	1
91	93	1
107	108	5
111	112	1
80	91	1
62	65	2
55	55	2
66	66	6
129	129	4
39	39	5
113	118	1
49	49	11
50	51	9
104	104	9
48	49	3
104	105	4
119	119	2
116	117	3
126	126	2
110	110	9
127	128	4
65	65	6
44	81	5
107	107	2
91	91	3
127	127	4
58	58	3
112	112	11
68	71	3
38	77	1
124	124	7
52	52	6
81	81	2
106	106	6
109	111	3
116	129	1
129	131	2
95	115	6
23	23	5
5	5	6
99	99	5
94	94	8
103	118	6
107	119	5
29	29	3
5	34	1
120	120	8
22	23	5
34	90	9
31	32	6
125	127	4
114	114	8
62	62	2
104	117	3
20	20	2
69	72	2
121	121	5
21	22	1
126	128	1
131	131	5
105	110	3
1	5	4
48	48	7
83	83	7
76	77	2
50	50	8
44	47	1
80	81	2
126	127	4
115	116	2
19	28	1
1	4	1
82	82	5
21	21	5
70	119	2
117	117	1
7	38	2
128	128	1
93	93	1
30	30	2
122	122	2
123	123	5
42	42	4
47	48	2
27	29	3
1	52	1
19	19	11
45	46	3
43	44	5
44	45	4
68	69	3
118	119	5
31	31	1
21	48	2
69	69	3
15	15	5
29	95	2
40	40	2
19	44	2
2	3	2
101	101	1
56	56	8
75	75	3
43	81	1
7	7	4
114	116	1
6	9	1
87	87	4
22	40	1
120	121	1
102	103	4
72	72	3
2	4	3
25	26	3
115	115	6
88	89	2
46	46	4
60	60	3
133	133	10
82	89	1
113	114	2
105	105	4
3	3	2
25	25	7
20	28	2
73	91	2
83	88	2
49	98	2
8	9	2
65	66	2
61	62	1
13	13	4
80	93	2
79	93	1
1	1	7
54	55	2
114	131	3
74	74	3
103	104	1
75	76	2
45	89	3
116	123	1
111	111	12
40	49	2
62	68	2
71	119	1
2	5	1
100	108	2
91	94	1
125	125	4
37	44	1
85	124	2
87	93	2
59	59	1
10	10	2
102	102	5
99	118	2
57	57	2
38	39	2
44	52	1
105	107	2
88	98	2
67	71	2
27	27	3
43	45	1
12	13	1
9	40	1
39	77	1
77	77	6
9	10	2
12	12	2
108	108	3
41	106	2
16	17	1
16	16	2
46	47	2
83	87	2
116	116	1
58	62	1
89	97	1
123	124	1
2	2	1
103	117	2
0	0	1
113	113	2
23	47	1
125	131	1
105	106	2
32	33	1
30	95	2
68	68	3
63	63	1
3	9	2
89	89	4
64	65	1
79	79	1
64	83	2
40	41	3
5	12	1
109	110	1
51	51	2
110	111	2
98	98	1
93	104	3
6	6	2
22	24	2
32	32	1
95	95	1
71	72	2
92	92	1
19	50	1
40	42	1
64	64	2
53	54	1
29	30	1
116	132	1
61	61	2
27	28	1
73	74	1
33	33	1
95	99	1
18	18	1
22	22	1
23	24	1
