156	158	2
21	23	5
146	163	1
66	71	2
13	18	1
46	47	1
235	235	16
222	222	10
225	233	4
195	216	1
208	208	7
0	11	1
72	75	3
23	23	15
64	64	10
71	71	4
157	157	4
37	37	4
116	118	1
4	7	6
177	203	1
116	116	13
21	21	10
118	138	2
15	40	1
186	186	7
219	219	11
52	55	2
231	231	2
63	64	9
124	133	4
126	128	3
187	188	2
200	200	8
159	215	1
18	21	8
176	177	4
159	162	2
159	159	3
207	216	5
31	31	4
208	209	4
166	190	6
204	204	4
180	182	1
10	10	1
35	35	1
182	182	2
200	224	4
118	129	4
46	46	4
206	206	5
4	4	13
145	146	6
172	177	3
26	26	3
43	43	5
120	138	3
53	67	3
104	105	12
41	41	4
83	83	3
98	105	3
151	151	13
24	24	2
19	19	4
167	208	1
207	207	9
58	58	2
48	49	6
193	206	2
170	170	6
166	187	2
73	73	5
194	194	6
66	67	12
211	211	11
99	101	6
169	169	19
40	40	8
165	166	7
175	187	2
147	148	8
180	180	4
219	228	1
70	70	5
198	198	7
41	57	5
29	29	6
165	165	4
135	136	2
18	168	6
107	108	1
58	114	6
123	124	4
220	220	2
166	166	6
109	122	5
170	171	11
193	193	4
158	162	1
173	173	3
65	65	8
0	0	2
56	56	7
140	140	5
3	181	2
78	81	2
8	12	1
67	136	2
164	165	7
232	232	5
179	182	2
227	227	8
52	99	2
53	55	4
144	146	4
217	217	14
128	128	5
3	179	1
228	235	1
22	30	3
197	217	1
220	235	3
195	212	2
116	129	2
39	39	14
117	144	1
105	128	1
153	153	3
59	68	2
208	216	1
141	143	3
25	51	1
66	116	1
27	27	4
7	14	2
79	79	1
22	34	2
53	53	5
161	161	11
82	82	3
109	116	2
226	226	3
47	88	3
96	96	3
66	68	6
177	205	3
186	187	11
172	197	2
175	175	8
120	120	2
7	12	3
49	49	1
130	130	5
48	73	2
155	185	2
113	144	3
20	20	2
218	220	3
192	192	9
190	200	2
155	157	5
227	235	5
117	118	4
215	222	2
1	36	4
160	162	4
104	114	2
173	200	4
238	238	5
184	197	2
16	16	5
197	220	2
127	145	1
44	44	7
103	107	1
104	104	5
196	196	7
181	181	8
53	92	3
152	155	5
41	42	2
15	168	10
98	141	8
18	18	3
139	151	2
126	126	2
44	53	1
157	168	2
188	188	3
221	221	2
63	63	5
148	148	4
170	174	4
140	141	4
195	213	3
154	154	4
218	224	1
74	74	7
134	135	5
162	163	5
4	14	5
233	234	4
15	17	5
7	7	11
105	106	5
141	141	8
116	130	2
190	219	3
6	8	3
242	242	4
10	11	3
143	144	2
25	26	4
8	15	2
11	142	3
156	156	2
32	35	5
104	124	5
106	106	3
152	153	2
203	205	3
12	12	4
163	163	4
63	74	1
59	59	6
189	192	2
136	136	6
44	45	3
28	28	8
61	61	4
127	133	3
27	46	2
157	159	5
3	8	3
187	187	5
222	228	4
122	122	7
52	78	5
6	6	1
143	143	5
171	171	2
184	206	1
36	36	6
82	83	10
0	13	3
109	152	3
16	136	2
192	215	2
100	100	2
123	132	1
109	145	3
26	46	4
124	126	1
71	74	4
224	225	5
59	74	2
110	115	1
25	145	2
15	15	4
191	206	1
103	106	3
57	107	2
139	139	2
210	210	5
236	236	4
202	203	3
70	72	2
114	115	2
198	220	1
99	99	7
201	201	5
69	69	5
107	107	8
142	142	4
104	130	4
133	133	5
154	155	3
44	48	1
156	181	2
116	156	1
204	206	2
99	104	4
47	47	3
137	137	4
30	31	1
224	226	3
14	32	2
45	70	3
176	206	2
193	210	1
37	49	2
197	197	1
1	10	5
75	80	4
45	47	4
11	12	7
160	160	4
169	170	4
114	114	2
108	108	6
162	162	1
0	1	2
105	134	9
107	123	4
102	103	4
4	22	3
141	181	2
197	218	6
167	167	10
85	85	1
197	219	4
54	54	7
1	2	4
216	227	2
204	222	2
59	63	2
213	214	2
210	211	6
150	150	2
202	206	3
3	31	6
178	196	2
45	45	2
158	168	2
159	164	1
101	101	7
104	125	2
35	56	2
159	160	5
199	199	3
62	62	6
51	51	2
52	52	7
113	115	1
9	179	2
125	126	3
144	144	3
191	192	4
34	56	1
145	147	2
139	143	6
84	84	3
188	213	2
75	77	1
35	40	1
24	32	4
4	6	1
167	168	4
137	138	2
104	127	2
17	18	4
38	153	1
179	179	6
19	40	1
192	193	2
60	61	2
139	140	1
133	148	1
49	81	2
177	200	6
70	96	1
177	204	4
42	56	3
61	69	3
102	102	5
97	97	5
145	148	2
32	32	5
50	50	1
77	85	3
67	79	3
144	145	5
83	85	1
170	201	3
121	136	2
154	181	2
214	215	1
204	205	2
58	60	4
64	69	1
1	1	2
224	239	2
99	115	4
68	72	2
80	80	3
134	134	2
135	135	11
172	174	1
185	185	3
159	163	3
52	59	2
162	195	1
0	22	3
148	156	2
50	53	1
7	13	6
225	225	4
142	146	2
193	194	1
52	53	2
189	189	4
160	188	2
196	197	1
181	182	3
174	181	2
17	17	2
212	212	4
13	15	3
189	214	3
17	20	1
117	117	8
11	29	2
241	241	4
215	219	1
146	146	5
107	126	1
112	112	7
30	30	2
96	111	1
195	210	2
209	212	1
33	36	1
108	133	1
172	172	6
9	24	1
16	36	5
228	229	2
118	137	1
6	180	1
223	240	1
229	231	1
160	166	3
216	216	4
63	75	1
199	206	2
101	102	2
208	211	1
174	175	3
57	57	3
140	187	1
101	120	3
65	74	1
239	239	4
35	63	1
170	178	2
196	213	4
185	186	1
62	65	2
42	43	3
154	172	2
159	161	1
17	19	2
161	163	2
22	22	2
230	230	1
71	72	1
50	61	2
212	219	3
103	103	6
207	228	5
58	59	1
7	168	2
205	205	7
81	83	1
135	152	1
60	75	2
9	10	2
50	54	4
127	127	5
14	39	1
48	48	3
81	81	3
206	242	1
57	101	2
37	39	3
161	162	3
176	176	2
118	130	2
23	24	3
8	8	2
28	30	2
2	3	1
42	51	3
125	125	4
39	55	1
198	221	1
160	161	1
117	129	1
132	132	2
124	124	2
16	58	1
201	227	1
113	170	3
75	75	5
28	61	2
147	149	2
33	33	2
223	223	3
73	84	2
107	134	2
178	182	2
38	38	5
159	166	2
175	198	2
128	131	2
203	204	1
40	51	1
101	106	2
129	140	1
176	186	2
190	198	1
46	58	4
120	130	1
229	229	5
146	147	2
168	168	1
129	135	3
47	54	1
14	14	4
9	13	1
115	115	1
52	61	1
23	31	2
104	108	2
131	131	1
11	25	1
52	57	1
46	50	1
13	14	2
141	142	2
68	95	3
202	202	3
65	69	2
5	8	2
230	234	4
67	71	2
14	33	5
154	195	1
106	107	1
193	204	3
174	174	1
40	57	4
34	34	5
40	66	2
102	105	2
81	82	3
153	154	1
174	200	1
190	192	1
135	151	2
105	114	1
55	56	1
1	6	1
166	174	1
221	222	3
173	191	2
71	79	1
80	83	1
149	169	2
41	50	1
28	34	2
118	152	1
4	5	2
68	69	1
178	207	2
17	36	1
172	190	1
167	230	1
153	155	2
117	157	1
13	70	1
21	35	1
68	68	1
9	204	1
7	8	1
178	179	1
36	40	1
158	164	3
31	180	1
161	210	2
129	129	1
178	201	2
113	113	3
172	208	1
42	42	2
190	191	1
238	240	1
164	164	2
227	228	1
39	52	4
121	121	2
72	80	3
52	63	2
88	119	1
119	119	1
31	36	1
123	123	1
125	143	6
29	30	1
132	151	2
112	114	1
157	181	2
104	133	2
41	68	1
124	125	2
170	194	1
185	196	1
231	232	1
25	25	1
152	152	2
55	55	2
40	64	1
5	35	2
5	180	1
125	142	4
138	138	1
72	73	2
105	105	2
149	240	1
109	110	1
2	2	2
215	218	1
162	165	1
203	203	4
235	236	2
183	184	1
6	183	2
10	174	1
192	206	1
46	65	1
128	156	1
109	123	3
108	113	1
77	83	2
190	215	1
218	218	1
199	200	1
64	68	1
191	209	2
123	133	2
216	226	1
103	105	1
215	227	2
53	54	1
118	118	1
33	34	1
190	224	2
118	119	2
179	201	1
11	13	1
201	215	1
98	98	1
209	209	1
214	216	1
53	79	2
21	22	1
56	57	1
190	240	1
68	78	1
189	215	1
98	99	1
47	48	1
156	172	1
60	136	1
88	98	3
85	86	2
234	234	1
149	173	1
71	81	1
97	152	1
193	222	2
236	238	1
15	16	1
133	134	1
62	78	1
3	5	1
194	209	1
179	183	2
12	13	1
163	169	1
57	106	2
33	50	1
40	49	1
115	116	1
220	223	1
168	178	1
240	240	1
159	219	1
12	24	1
193	199	2
145	145	1
106	108	1
136	137	1
161	195	1
37	60	2
182	183	1
107	156	1
166	198	1
200	219	1
192	203	1
149	157	1
239	241	1
224	240	2
52	56	1
3	3	1
194	212	1
181	202	1
20	46	1
220	227	1
18	46	1
193	213	1
26	27	1
104	131	1
191	191	1
136	140	1
197	198	1
86	119	1
164	191	1
97	134	1
177	207	1
106	120	1
207	223	1
