176	177	4
21	21	8
141	141	5
127	127	4
29	29	5
114	127	3
8	32	3
91	91	2
22	24	8
15	15	4
145	159	2
165	165	2
59	60	1
151	151	7
28	28	3
10	10	10
78	78	7
109	109	13
47	47	1
82	93	4
118	121	1
147	147	6
128	153	2
77	80	5
143	143	6
48	48	3
68	68	9
154	174	4
18	35	7
38	38	10
12	12	9
149	149	4
26	28	3
84	85	2
30	30	4
188	190	6
7	13	5
15	16	6
154	154	11
166	166	9
8	8	3
42	42	3
11	11	2
74	85	3
119	142	2
114	114	6
104	104	5
110	110	8
34	36	2
109	124	3
59	62	4
41	41	3
87	88	11
135	137	3
30	44	2
25	39	2
121	122	4
155	155	12
185	185	2
177	186	1
142	143	1
100	100	9
146	146	8
32	32	5
40	40	9
35	47	2
154	173	12
152	165	4
23	23	9
34	46	3
130	143	5
34	34	6
54	74	1
152	163	5
33	33	3
72	72	5
6	6	11
132	132	11
7	10	9
11	36	6
130	130	2
138	138	5
105	122	3
72	81	2
74	74	6
134	134	4
181	182	7
103	103	8
19	25	4
45	45	6
136	159	1
61	83	2
94	96	1
71	72	3
109	112	1
157	157	12
163	163	4
19	32	4
152	152	6
190	190	5
0	7	1
12	19	2
28	154	1
23	24	1
150	150	2
83	83	8
103	109	3
60	72	5
175	188	1
101	101	12
124	126	1
13	32	3
33	44	6
143	144	3
11	12	4
158	158	7
29	152	2
25	25	6
115	123	3
81	81	10
20	23	3
122	126	6
117	117	5
150	155	3
66	66	3
64	64	3
177	177	17
150	189	1
24	25	5
169	169	8
87	153	1
129	158	2
13	40	3
117	118	3
182	183	2
148	165	1
149	166	1
138	139	5
26	26	4
75	79	4
58	60	2
90	91	5
16	39	2
125	125	7
129	170	1
122	122	4
139	139	8
14	14	9
109	140	1
142	142	8
23	45	8
159	160	2
2	3	3
135	182	4
98	133	2
115	115	5
107	112	1
36	43	2
42	43	9
22	22	4
139	153	2
142	163	3
19	41	2
54	56	5
115	118	3
34	75	2
156	181	1
27	46	2
7	8	5
173	173	4
129	129	7
183	185	3
11	14	1
186	188	2
135	135	2
134	171	1
79	79	6
36	36	1
168	168	9
105	119	3
36	76	2
73	92	1
59	85	4
120	120	2
72	73	3
58	58	2
135	165	3
171	171	4
180	181	4
63	63	2
60	82	3
157	190	2
99	99	5
131	132	1
18	27	2
0	14	3
116	116	5
62	62	1
131	146	3
0	6	1
57	59	3
129	181	1
131	131	4
31	33	2
145	145	3
148	171	2
128	128	4
162	165	2
133	139	3
113	119	2
26	56	1
55	57	1
149	189	2
73	93	1
65	65	3
18	29	2
84	84	5
184	185	1
105	105	5
153	153	4
22	23	1
126	126	1
179	179	2
61	74	3
77	77	6
6	24	1
37	38	1
83	109	2
140	140	1
24	24	11
182	182	4
137	159	4
66	92	5
78	80	2
122	123	2
110	111	4
106	106	7
112	122	1
170	171	3
5	20	3
123	127	3
176	179	2
94	95	6
174	174	12
164	165	2
138	155	4
12	42	1
129	132	1
126	141	1
89	116	3
9	11	2
17	17	8
161	162	2
96	96	3
100	106	2
135	136	1
133	133	1
72	86	2
13	13	4
0	0	5
46	48	2
188	188	3
88	133	2
160	161	2
80	80	6
5	6	3
63	64	1
171	172	7
160	186	1
124	125	3
129	131	1
76	102	2
65	67	1
27	28	3
61	61	2
33	119	1
68	69	1
121	143	4
67	68	3
161	161	1
65	66	1
99	100	1
171	176	4
159	159	4
5	5	4
138	140	1
30	43	1
132	133	4
119	122	4
123	146	3
106	122	3
3	3	2
111	111	3
107	117	1
184	189	1
1	1	1
54	54	2
7	7	6
110	131	3
102	108	2
4	7	1
113	113	4
85	85	3
126	128	2
34	44	1
45	75	2
53	53	2
7	21	2
70	101	1
137	137	1
83	112	5
82	97	1
175	176	5
162	162	10
180	180	3
40	55	2
165	184	2
144	145	2
157	158	1
26	37	1
89	89	3
67	75	1
147	148	1
54	55	3
26	33	2
10	14	2
7	24	1
134	167	2
90	90	6
116	122	2
97	98	5
20	21	4
96	128	1
46	46	2
162	163	4
179	182	1
162	164	3
170	174	2
110	132	3
20	37	2
105	108	1
128	152	1
107	129	2
89	109	1
134	180	3
2	23	1
87	87	2
93	94	1
59	72	2
167	187	1
80	86	1
185	188	1
87	128	1
16	41	3
150	176	1
106	131	3
166	168	1
100	156	3
73	73	5
67	85	2
156	185	2
150	183	1
21	32	1
168	173	1
4	4	3
43	43	3
107	140	1
118	132	1
63	96	1
61	93	2
90	113	1
162	166	2
20	20	1
102	102	5
72	75	2
169	187	4
59	61	4
133	148	3
55	58	1
139	167	1
181	181	2
119	119	1
165	177	2
7	31	1
43	44	4
70	102	4
158	165	3
144	144	2
63	65	1
187	187	5
117	131	1
160	170	1
65	96	1
66	85	1
97	120	1
126	127	1
108	108	1
153	182	2
2	6	1
88	89	1
92	92	2
60	93	3
183	183	1
112	112	2
38	39	3
71	71	3
156	156	1
168	169	3
61	62	4
61	81	2
4	9	3
19	19	2
175	177	3
147	149	3
143	158	2
67	73	1
136	185	2
165	186	1
77	111	1
7	15	4
157	178	3
107	107	2
39	39	6
148	148	3
59	71	1
12	13	1
135	153	1
60	73	1
53	82	1
118	118	2
153	185	1
33	35	1
189	189	1
164	164	2
119	132	1
116	129	1
103	116	1
0	24	3
58	59	2
15	18	1
167	185	1
139	140	1
61	63	1
42	44	1
184	184	3
182	184	1
93	93	7
124	124	1
105	114	1
75	81	1
8	21	4
20	24	2
98	124	1
80	82	2
35	45	1
91	95	1
95	104	1
87	141	1
167	172	3
13	25	3
171	189	1
110	117	1
151	174	1
186	186	1
104	121	3
76	78	2
62	80	2
93	96	1
121	121	4
92	96	1
134	135	1
89	103	1
186	190	1
177	182	1
141	165	1
36	37	1
15	25	1
124	141	1
110	180	1
156	182	3
88	121	1
25	37	2
13	27	1
26	32	2
149	168	1
93	98	1
43	45	1
18	32	2
28	30	1
4	37	2
4	32	1
25	43	1
84	115	2
26	36	1
132	138	1
164	186	3
120	143	2
6	14	1
4	19	1
155	169	3
167	167	1
4	21	1
150	173	2
147	158	2
60	60	2
103	104	1
172	172	2
78	154	2
15	17	1
87	125	1
123	123	1
95	111	1
89	96	2
166	167	2
100	103	1
93	95	1
13	14	1
113	121	1
144	163	1
17	18	1
169	170	1
70	70	2
79	84	1
187	188	1
56	154	1
16	16	1
91	93	1
101	107	1
21	31	1
161	169	1
140	148	1
19	36	1
86	86	1
30	32	1
150	184	1
48	56	1
94	106	1
66	107	1
8	41	1
3	4	1
74	94	1
32	92	1
156	158	1
78	95	1
170	170	1
101	102	1
13	44	1
178	190	1
141	143	1
20	35	1
24	43	1
