79	79	7
44	61	4
123	127	2
6	6	11
115	116	5
134	134	3
211	225	1
152	152	9
124	124	15
209	210	5
70	100	1
195	195	3
149	149	11
35	35	9
144	146	3
95	155	4
23	23	8
142	142	7
240	240	11
139	142	3
125	126	1
117	119	4
37	63	1
66	66	12
99	148	2
202	202	4
170	170	8
143	143	11
186	186	13
209	209	8
32	32	8
231	232	3
18	69	2
210	210	10
158	161	2
204	205	3
116	117	11
220	221	1
37	38	7
62	63	6
137	138	3
115	120	2
64	65	7
78	78	12
30	30	12
190	203	3
17	17	10
26	188	3
73	73	10
114	114	10
84	84	12
66	68	4
177	208	5
231	231	11
144	144	7
191	191	7
12	15	6
12	12	12
6	7	11
105	122	5
123	123	13
227	227	10
102	119	5
63	63	10
5	5	8
146	146	12
27	28	8
208	241	2
49	49	7
15	32	3
180	182	1
54	54	10
68	68	7
55	55	8
13	13	7
31	33	1
85	155	3
157	157	5
53	64	6
175	175	12
196	196	16
57	57	4
167	167	17
67	67	16
151	161	4
179	179	6
105	123	2
139	139	9
117	117	7
235	235	10
46	60	1
187	187	2
148	148	8
211	211	11
201	202	6
57	72	2
156	157	7
145	145	11
44	45	8
198	198	10
99	99	6
23	69	4
101	101	13
53	53	5
56	56	21
10	70	6
207	232	4
169	169	11
229	229	7
214	215	11
2	4	11
110	110	6
193	213	3
33	34	6
225	225	11
38	38	5
164	165	6
99	125	1
237	237	16
77	77	15
52	53	3
114	115	8
120	158	2
151	151	13
217	219	2
143	156	5
2	188	3
86	86	16
212	213	10
73	74	6
14	78	3
203	203	12
221	221	7
138	169	3
50	71	2
130	130	6
217	218	5
184	184	11
164	164	4
88	88	9
191	193	5
161	165	1
177	199	4
14	34	1
31	31	11
173	173	4
140	143	6
95	129	4
241	241	5
7	7	1
41	42	6
11	23	1
204	204	13
62	62	13
230	230	8
200	200	7
155	155	11
122	122	5
47	47	10
111	112	3
127	130	1
154	154	5
212	225	2
11	11	5
19	19	13
242	242	12
40	40	10
176	176	10
205	205	9
157	177	3
38	63	3
206	206	3
165	165	7
193	193	13
166	166	12
234	234	7
3	3	12
212	224	4
160	161	5
20	69	5
74	74	16
9	9	7
172	172	8
22	22	12
188	189	9
121	121	12
217	217	10
183	183	6
162	162	20
134	147	3
82	82	6
206	212	1
6	8	3
39	39	9
182	224	1
46	46	14
61	61	20
119	119	21
100	100	8
179	180	9
91	91	5
238	238	8
76	77	8
25	25	8
76	99	4
201	201	11
136	136	5
97	97	4
158	169	2
27	27	13
19	20	7
150	150	8
28	28	12
37	37	10
14	19	4
215	215	1
188	188	6
0	11	2
240	241	1
15	29	4
7	31	4
129	129	8
70	71	4
81	81	3
143	175	2
134	135	7
21	23	5
26	26	12
120	121	2
69	69	9
75	75	2
96	96	6
195	200	1
228	230	1
114	123	3
209	235	3
144	145	2
131	131	3
15	33	7
22	27	2
180	183	2
219	220	6
186	187	8
40	41	5
236	239	1
16	16	7
103	103	3
146	241	3
231	242	2
154	186	9
130	131	7
179	224	4
39	41	4
181	181	5
192	193	4
107	133	1
137	165	2
7	8	7
22	23	4
89	163	3
174	187	4
71	71	6
158	159	14
150	197	5
3	4	1
228	229	5
152	157	3
222	233	2
125	125	12
212	222	2
96	100	4
168	168	7
102	102	5
55	237	2
80	82	1
59	60	6
223	223	6
72	73	9
177	218	2
4	4	10
197	197	7
45	47	1
3	16	2
132	132	4
10	24	3
155	160	2
163	202	3
134	158	3
55	56	3
239	239	5
113	113	8
105	105	3
155	164	1
98	113	3
209	228	2
70	70	4
128	128	3
206	207	8
213	216	3
44	44	3
29	66	1
138	166	1
159	159	11
221	223	1
116	116	6
121	135	4
13	14	7
60	60	4
18	19	2
203	204	3
98	98	9
48	49	4
208	208	10
20	22	2
219	219	11
75	77	2
76	76	6
41	41	5
107	108	8
226	227	1
29	30	8
158	158	7
1	1	10
232	232	14
197	198	1
85	85	5
187	188	8
58	58	14
76	98	2
8	31	2
101	119	4
2	5	6
65	68	2
148	161	4
236	237	4
174	194	3
107	107	4
36	37	1
173	175	5
117	118	1
101	102	3
74	75	4
156	164	2
142	154	2
170	228	1
104	105	4
151	152	2
79	80	5
83	83	3
143	152	4
183	202	2
20	20	4
138	209	1
171	171	4
137	183	2
163	163	2
181	182	2
111	111	3
71	72	7
234	235	2
120	122	4
103	118	5
153	153	9
9	10	11
221	228	3
15	69	2
156	156	2
140	163	3
75	78	2
160	168	2
27	37	1
159	179	2
67	70	2
224	224	7
109	109	8
75	79	1
126	145	2
104	104	5
97	120	6
190	196	1
216	216	4
206	208	4
118	118	3
214	214	6
45	46	5
178	194	2
35	37	3
59	59	4
8	8	5
166	167	1
138	138	11
155	157	3
199	199	2
43	43	5
42	42	10
243	243	1
182	188	6
207	208	1
1	74	3
189	190	6
190	190	12
76	125	1
0	21	5
147	148	5
222	222	1
8	9	6
20	65	2
101	116	3
108	109	1
179	200	4
186	188	4
5	6	5
50	50	1
154	155	2
148	190	1
141	142	1
165	175	1
62	86	1
185	189	3
123	124	3
136	171	1
25	159	1
41	51	4
215	232	1
51	51	16
212	212	7
99	145	3
185	191	2
108	108	10
61	85	3
64	64	11
81	84	3
146	147	3
28	29	2
140	142	3
48	48	2
105	106	1
104	123	2
32	82	2
126	127	5
45	45	8
51	53	3
209	229	2
172	206	1
241	242	3
44	46	1
19	23	2
157	162	5
3	69	7
115	115	6
4	34	3
1	3	2
1	22	1
226	229	2
30	31	2
205	206	5
175	177	2
0	77	5
133	134	3
80	80	7
24	24	13
143	209	1
113	128	1
125	127	1
139	143	1
224	225	5
38	152	2
237	238	3
166	168	3
230	231	2
127	127	2
13	78	4
184	185	4
55	57	6
182	182	2
53	54	1
74	77	1
69	70	1
171	194	1
162	163	2
81	82	3
228	228	2
0	74	1
116	146	3
48	50	1
161	161	2
143	170	1
88	153	2
144	147	1
192	192	4
215	242	1
221	222	2
72	72	4
139	140	6
220	220	5
52	52	1
135	135	7
140	140	4
113	164	1
79	81	1
26	69	3
166	169	1
2	2	3
102	120	2
106	109	3
67	68	6
66	67	2
136	137	1
152	155	2
218	219	2
140	141	3
0	2	1
207	207	5
239	240	1
145	208	1
150	151	5
141	141	2
153	154	1
170	171	2
161	162	2
19	21	2
229	230	3
137	171	5
185	185	2
73	100	1
144	148	2
14	14	2
46	47	4
205	227	2
120	123	1
195	207	2
102	124	1
135	166	1
127	129	1
34	34	3
177	177	5
129	130	1
214	216	3
137	137	3
24	25	1
185	187	3
78	79	6
120	120	6
65	65	5
160	160	2
5	14	1
143	155	1
119	121	5
203	229	3
119	132	3
8	25	2
56	57	2
95	127	2
33	68	1
233	234	3
180	180	4
219	224	3
16	25	2
103	104	2
115	117	3
95	95	2
160	177	1
26	61	4
112	112	4
179	228	3
212	216	3
233	233	3
138	140	1
79	130	1
215	221	1
6	35	2
131	133	3
35	36	3
141	167	1
224	230	3
126	129	1
97	108	4
121	131	2
25	43	2
145	146	3
11	12	2
33	36	1
2	15	3
144	169	1
147	147	2
82	83	2
27	96	2
135	149	1
0	76	2
11	14	3
18	18	2
29	29	3
13	15	2
5	16	1
160	166	1
57	58	1
106	106	3
214	217	1
61	86	2
170	176	1
156	160	1
158	178	1
161	166	1
51	201	1
180	223	1
216	242	3
48	65	1
12	22	2
230	232	2
174	174	3
42	45	2
214	220	1
122	131	2
133	136	2
211	212	2
113	238	1
32	81	1
182	212	3
218	220	2
13	40	1
133	133	4
15	27	3
194	195	2
157	158	1
21	21	2
0	12	3
84	85	2
0	1	3
14	18	2
39	61	4
107	209	1
224	226	2
192	194	1
155	158	1
209	230	1
181	185	2
36	36	4
51	58	1
153	184	1
110	127	1
137	166	1
149	197	1
176	218	2
49	222	1
25	26	1
226	226	4
157	159	1
102	116	1
165	167	1
36	86	2
31	80	1
178	178	4
83	84	1
74	76	2
204	225	1
154	163	1
68	86	1
30	32	1
182	209	2
24	26	1
1	11	1
32	83	1
236	236	1
60	61	1
108	133	1
10	10	3
123	126	1
138	139	2
212	219	1
2	3	4
63	64	1
119	168	1
166	196	1
113	239	1
200	201	1
8	24	1
156	167	2
216	218	1
106	125	1
137	174	1
46	53	1
75	84	1
11	21	1
34	190	1
195	196	1
215	224	2
29	68	1
34	67	1
14	29	1
159	161	1
4	6	1
198	200	1
151	156	1
115	127	1
40	58	2
74	84	1
213	213	1
23	41	1
213	217	1
77	79	1
218	218	2
21	33	1
223	225	1
32	96	1
103	123	1
