115	116	4
210	210	18
61	62	3
173	173	14
226	227	9
196	196	10
239	241	2
108	108	7
38	38	5
224	239	7
148	149	8
176	176	7
228	228	5
231	231	11
41	41	12
5	5	5
128	128	16
42	43	9
183	184	1
139	145	3
74	75	4
202	230	2
50	52	2
218	218	18
221	221	12
170	170	11
182	182	15
53	53	15
190	211	1
164	165	3
0	0	10
154	155	3
104	104	10
58	58	10
41	79	6
179	179	11
30	32	4
64	65	4
53	54	2
129	130	6
208	213	1
41	53	2
225	226	4
140	141	13
27	27	8
238	238	8
2	2	16
150	150	13
172	172	13
42	109	7
62	63	2
79	80	3
66	66	13
21	25	1
180	180	6
33	34	2
18	18	4
36	36	19
64	66	1
236	236	14
14	222	5
216	216	23
189	196	3
42	42	12
13	13	5
72	73	2
60	236	3
78	78	3
51	51	24
187	214	1
169	169	18
81	83	2
3	11	7
57	223	2
5	6	7
204	204	15
168	168	19
116	118	4
152	152	6
157	157	25
232	239	4
105	105	8
52	52	11
23	24	7
121	127	2
240	242	4
156	156	7
200	201	4
158	158	20
175	175	27
115	177	2
112	113	4
57	57	12
4	68	8
86	223	1
123	123	8
56	62	2
146	146	19
16	16	7
187	187	20
160	160	9
141	141	19
38	39	4
181	183	1
109	109	3
46	52	3
99	99	25
15	17	1
81	81	8
59	59	3
170	171	8
1	1	14
222	222	12
10	65	1
112	134	1
241	242	9
147	147	18
26	26	15
101	101	15
158	196	1
29	30	4
24	24	13
95	96	2
11	11	11
33	33	4
162	239	1
9	223	1
195	195	19
135	135	3
54	71	5
11	57	6
236	237	2
159	202	1
110	110	8
137	138	3
232	232	14
113	120	3
182	183	7
116	116	26
202	202	14
1	7	3
215	215	15
167	235	6
63	63	16
210	211	3
212	212	17
203	204	2
121	121	6
214	214	15
128	129	2
9	14	4
23	23	14
151	151	18
54	67	3
103	103	9
199	199	14
198	198	6
167	168	5
113	152	2
134	134	17
39	40	6
86	87	1
119	119	10
32	33	7
10	10	16
226	226	10
220	221	5
209	209	7
224	224	6
81	82	1
155	241	2
20	20	11
188	197	4
99	100	4
59	238	2
147	149	1
171	171	9
208	208	21
84	84	22
61	61	10
180	181	3
43	45	3
144	145	7
34	35	2
174	174	12
164	164	23
46	46	12
112	112	14
120	121	4
188	210	6
191	193	1
30	30	6
187	211	2
234	234	14
205	205	9
92	220	2
8	8	4
185	185	12
169	177	3
190	190	16
82	83	3
184	184	12
9	9	19
71	71	7
62	62	7
103	105	4
215	216	3
60	60	8
32	159	2
155	200	1
142	143	3
45	45	19
82	82	12
133	133	7
186	187	5
43	44	4
76	76	14
241	241	6
135	136	5
181	181	7
25	86	1
73	73	11
78	80	2
47	75	6
193	193	10
66	68	6
126	127	2
32	71	5
217	217	18
17	67	3
242	242	3
75	75	5
163	163	6
15	15	11
43	53	2
227	227	6
186	214	2
225	227	1
64	69	6
115	115	21
8	90	1
219	219	12
10	28	2
48	48	8
32	32	13
213	214	3
138	138	19
95	95	4
100	161	4
185	187	5
24	25	4
119	125	1
124	124	14
113	113	7
49	49	10
125	132	2
230	231	4
166	166	11
37	38	10
122	125	1
25	25	8
50	50	14
170	191	1
142	146	2
149	149	21
143	143	14
229	232	5
213	213	6
77	77	6
223	223	12
43	102	3
125	130	4
158	200	3
167	167	5
197	198	5
27	28	8
41	82	1
198	215	2
231	235	3
125	126	3
14	85	1
207	207	8
134	202	4
193	195	1
54	80	3
102	102	4
194	194	11
72	167	3
180	217	8
75	82	1
43	43	12
153	153	6
21	21	10
220	220	9
4	4	6
175	178	3
121	218	1
154	154	19
155	155	12
13	15	3
206	206	14
199	211	4
106	107	3
74	74	12
58	59	1
207	208	4
230	240	2
227	238	3
40	40	14
140	140	10
147	148	5
39	202	4
98	98	10
115	121	3
39	39	14
162	162	6
47	74	1
240	241	3
7	7	13
138	173	1
21	29	4
111	111	9
129	151	3
64	68	1
156	161	5
2	107	2
97	97	16
168	218	1
79	79	5
79	84	1
191	192	8
14	76	1
176	187	1
27	56	1
148	148	3
68	68	16
126	126	7
53	82	1
161	161	9
117	117	7
184	209	1
136	136	23
158	159	12
116	165	4
128	238	3
3	8	3
129	129	15
81	221	1
118	118	7
122	123	1
57	126	1
110	200	4
142	144	2
100	118	3
172	174	2
232	233	1
139	139	15
4	8	2
161	235	4
156	157	4
169	192	7
183	183	10
223	224	3
83	83	15
35	35	7
187	203	2
105	106	2
96	161	1
130	130	4
165	165	5
56	57	2
31	167	3
104	107	1
125	129	2
189	189	11
105	229	1
11	80	4
69	69	10
47	47	9
209	211	7
128	151	2
12	92	2
33	159	4
144	144	9
172	238	1
100	100	7
15	222	1
102	103	2
160	199	1
32	168	1
38	179	2
132	132	3
85	85	3
153	159	1
70	70	5
111	184	1
155	178	2
18	136	3
85	86	6
19	73	1
109	176	3
88	89	2
86	86	7
95	161	2
64	80	3
186	217	2
5	7	2
3	3	13
52	54	3
212	213	4
119	120	7
114	114	14
55	55	5
125	125	1
66	73	1
106	109	2
173	242	1
145	145	16
177	179	3
34	34	6
121	122	3
97	219	6
28	28	12
78	79	1
152	164	1
6	6	9
152	153	4
182	217	1
150	151	4
201	201	5
22	42	2
103	111	4
137	137	8
53	79	3
15	30	6
22	23	4
127	151	2
16	101	1
128	200	4
102	105	1
53	103	1
106	106	8
31	168	2
16	64	2
127	129	3
206	208	5
26	27	2
12	12	15
165	238	2
14	14	11
3	107	2
21	23	7
101	184	2
113	117	2
124	129	2
11	12	2
149	150	5
70	71	7
8	9	2
67	67	5
191	191	13
66	79	2
15	64	1
42	102	3
82	86	2
134	155	1
37	37	8
202	232	2
169	170	1
128	130	2
177	177	9
66	143	7
54	54	6
85	166	3
166	239	2
214	215	4
12	13	5
31	31	14
129	150	1
157	206	4
203	203	2
239	240	3
65	65	6
20	72	4
14	92	3
69	70	7
192	192	8
138	139	4
30	31	6
136	139	3
199	200	3
227	229	3
26	43	2
54	55	4
120	120	8
98	101	1
225	228	1
197	197	4
50	51	2
157	165	2
170	178	2
145	146	10
188	188	4
98	210	1
25	88	2
176	206	5
1	129	1
88	107	2
9	40	1
26	172	1
18	19	2
27	29	2
186	200	2
29	62	1
59	66	1
60	62	2
17	17	4
159	204	1
143	152	1
99	223	3
100	109	2
183	187	1
209	212	3
20	21	5
18	35	1
178	179	2
99	176	1
120	219	4
19	19	3
136	137	2
181	219	3
131	131	2
39	48	5
73	75	1
166	167	1
75	76	1
129	145	2
42	44	1
117	229	1
225	225	11
132	133	1
154	204	3
115	117	2
182	225	1
119	121	3
188	227	1
136	182	1
77	80	3
64	64	3
205	206	4
30	115	1
155	165	1
17	68	3
198	201	1
219	220	2
236	239	1
239	239	5
190	191	2
157	158	1
156	164	2
88	88	3
1	11	1
179	180	4
80	81	3
54	76	2
98	99	3
54	65	2
179	201	1
212	214	1
7	8	5
233	234	2
22	22	5
194	195	1
234	237	2
132	135	1
234	239	1
107	108	3
24	39	1
3	68	1
54	56	1
2	3	4
46	74	1
148	154	1
228	232	3
46	101	2
103	108	2
219	233	2
111	121	1
136	149	3
121	155	4
59	60	3
150	187	4
57	98	1
105	109	1
95	164	1
109	110	4
14	34	1
166	169	1
167	169	4
147	168	1
29	73	1
152	194	1
185	197	1
142	142	5
86	219	3
11	54	1
115	144	4
56	56	2
77	79	1
161	162	1
157	160	2
176	177	1
31	169	1
22	137	3
3	44	2
184	201	3
15	63	2
224	225	6
240	240	2
51	53	1
4	77	1
121	217	3
232	235	2
187	215	1
79	81	1
163	165	1
104	105	2
25	85	1
44	46	1
95	221	3
192	193	3
115	118	2
73	74	2
80	80	1
66	130	1
127	127	5
61	63	2
36	37	4
89	91	1
201	202	2
153	190	1
32	172	1
232	240	1
108	109	1
211	211	4
162	227	4
13	80	3
16	17	1
17	56	3
83	84	2
217	218	3
155	159	3
13	16	2
96	165	4
70	75	1
220	235	1
200	200	18
42	49	1
81	88	3
10	59	1
1	2	1
187	188	2
125	127	1
88	162	2
189	191	1
178	213	2
19	20	2
7	9	1
52	83	1
180	193	2
233	233	6
207	239	2
178	178	4
159	159	4
18	20	1
140	223	1
237	237	5
119	144	1
43	116	2
228	229	2
180	230	2
41	42	1
120	229	1
223	231	1
100	220	2
116	117	4
56	100	1
152	165	2
14	16	1
116	122	1
164	238	3
72	80	1
122	122	4
108	110	6
52	53	4
110	123	1
186	186	6
192	196	1
174	175	1
20	23	1
218	219	2
28	78	1
32	167	2
52	67	2
15	58	2
95	121	1
19	55	1
23	206	4
225	238	1
4	6	1
129	153	2
126	133	2
67	79	1
9	65	1
21	22	2
57	78	2
4	89	1
161	219	2
104	180	2
81	104	2
222	223	3
185	198	3
138	230	1
150	152	1
182	198	3
51	52	3
131	153	1
235	235	4
180	194	1
101	199	1
231	240	1
6	35	1
181	226	2
229	229	2
177	178	3
161	208	2
180	234	1
138	199	1
140	224	1
102	107	1
58	78	1
192	225	1
16	119	1
101	116	2
230	230	2
103	106	1
113	115	3
186	216	1
42	46	1
96	96	3
226	228	1
177	184	2
122	153	1
192	224	1
117	124	2
68	69	1
134	135	2
141	142	4
44	44	6
51	104	1
11	16	1
12	26	1
66	67	1
18	80	1
7	74	1
115	152	1
17	47	1
60	237	2
88	108	2
104	175	1
18	34	1
128	218	1
43	101	2
157	161	2
0	223	1
168	169	1
28	75	3
103	179	2
3	86	2
6	7	1
190	210	1
107	107	4
24	33	2
237	238	1
41	49	3
185	186	3
204	207	1
133	202	1
17	81	2
12	33	1
160	174	1
157	164	1
159	160	2
11	58	2
131	202	2
122	229	1
229	231	1
56	81	1
198	234	1
85	89	1
224	240	1
23	25	1
147	166	1
120	160	2
45	52	1
100	101	2
156	159	2
233	241	1
33	167	2
53	65	1
70	232	1
15	60	2
138	224	1
18	53	1
161	239	3
174	178	1
29	29	1
27	243	1
48	49	1
109	124	2
202	229	2
36	50	2
44	52	2
156	211	2
136	140	1
147	167	1
20	180	3
171	222	1
161	207	1
68	130	1
161	231	2
189	197	1
161	228	1
79	83	1
121	150	1
114	121	2
197	202	1
190	203	1
40	42	1
203	206	2
14	15	2
235	236	1
95	162	2
56	82	1
27	34	1
3	66	1
109	155	1
86	165	1
54	86	2
40	41	1
46	51	2
104	111	1
202	231	1
102	233	1
120	122	1
130	192	1
127	128	2
114	241	1
184	216	1
88	225	1
35	36	1
62	84	1
16	102	1
42	45	1
169	242	2
122	202	1
99	177	1
100	140	2
45	54	1
67	192	1
49	54	1
140	228	1
175	184	1
160	218	1
140	142	1
15	62	1
174	202	2
101	102	1
204	222	1
127	130	1
84	212	1
28	82	1
32	73	1
153	156	1
195	196	1
26	58	1
173	205	2
110	120	1
24	32	1
43	47	1
221	222	1
10	11	2
161	229	1
134	140	1
150	171	1
135	202	2
146	147	1
183	197	1
42	101	2
133	134	1
125	133	2
113	151	1
72	75	1
69	73	1
9	10	1
187	210	1
2	106	1
46	118	1
61	74	1
31	32	1
107	134	1
123	151	1
89	108	1
67	68	1
0	1	1
65	128	1
82	84	1
211	212	1
16	45	1
5	8	1
81	84	1
1	107	1
233	238	1
