7	7	18
36	36	15
1	1	4
18	18	13
18	19	3
35	40	2
23	25	2
9	9	10
5	57	2
4	53	2
4	4	9
31	42	3
41	41	6
10	10	10
8	8	9
59	59	12
21	41	1
35	37	1
45	46	5
10	11	2
52	52	14
37	37	12
30	30	14
52	56	2
39	40	2
16	17	7
15	15	18
19	19	4
6	6	6
32	32	8
53	53	10
44	44	17
56	58	1
0	0	12
56	56	10
38	38	11
31	31	3
14	17	2
12	12	7
14	15	9
35	35	10
5	5	3
58	58	12
22	24	3
33	33	21
14	14	10
48	50	4
2	2	14
14	50	1
51	51	5
31	32	3
24	25	6
6	11	2
11	29	2
49	49	3
50	53	2
1	2	9
42	42	3
55	55	11
47	47	9
38	42	6
44	45	1
33	34	7
21	23	3
3	60	3
47	48	8
22	22	12
38	39	3
15	23	4
8	14	1
24	24	13
9	10	5
16	16	9
0	23	4
21	21	6
3	4	1
17	17	7
21	40	6
38	40	4
7	9	7
43	45	3
34	36	3
58	59	3
13	14	3
62	62	11
11	11	11
5	6	6
47	50	1
13	55	3
12	51	3
54	59	3
19	21	1
31	33	3
34	34	9
37	38	7
61	62	2
43	43	4
22	25	1
52	54	4
50	52	6
8	35	1
56	61	1
32	45	8
25	25	11
14	16	4
3	3	21
18	20	3
54	55	2
12	57	2
13	13	7
30	38	1
39	41	3
4	56	1
17	19	2
16	20	3
53	54	6
51	52	1
54	56	2
57	62	3
44	48	1
5	7	1
21	22	3
39	39	5
42	43	2
0	31	4
10	22	4
35	47	3
21	62	1
60	60	11
5	12	1
43	62	1
0	5	2
23	23	7
46	46	1
12	13	9
34	35	3
57	59	1
0	8	2
15	17	1
20	21	7
3	61	1
13	19	5
53	62	1
12	19	5
6	8	3
3	34	1
14	52	2
39	42	7
43	61	3
50	56	1
31	44	2
32	33	3
19	52	1
52	55	1
59	60	1
5	9	2
13	22	3
0	2	1
38	41	2
2	8	4
8	25	2
45	47	2
55	56	2
36	38	2
49	51	2
29	30	1
46	47	4
47	53	1
20	53	1
20	20	1
40	40	7
34	49	1
6	7	3
13	15	3
33	35	2
48	51	2
10	24	1
29	29	8
37	44	1
30	60	1
8	48	1
40	60	2
23	60	3
35	51	1
8	9	1
57	57	2
45	45	2
35	36	5
1	20	1
0	17	1
1	5	1
50	51	1
48	48	2
54	54	3
12	56	1
48	49	3
1	8	2
1	3	3
7	8	1
18	24	1
7	20	1
40	59	2
8	13	2
20	25	1
53	55	1
4	5	1
21	50	1
19	23	1
61	61	2
44	50	2
18	37	1
30	32	1
5	55	1
15	20	1
49	50	2
29	38	2
5	53	3
34	37	1
26	26	1
51	53	2
32	34	1
35	62	1
15	16	1
4	18	1
13	53	1
34	44	1
17	21	1
5	56	1
50	50	1
41	48	1
5	8	1
37	39	1
34	38	1
19	22	1
9	12	1
21	24	1
53	58	1
10	23	1
8	10	1
