34	35	7
64	64	2
56	56	8
33	33	2
37	37	12
27	27	11
111	112	2
111	111	8
105	105	6
25	25	8
63	63	6
45	45	7
30	30	5
70	71	3
28	29	3
21	21	2
38	38	10
22	22	5
51	81	1
40	40	11
79	80	5
93	97	1
41	72	3
86	87	4
61	62	7
109	110	3
72	72	3
112	112	10
43	62	3
37	38	2
114	114	5
58	58	5
69	69	2
102	103	9
42	47	1
113	113	13
59	64	2
86	100	5
103	103	12
24	28	1
93	93	2
113	114	3
23	23	5
47	85	2
74	74	2
77	77	4
98	99	3
46	46	13
42	49	2
47	47	8
71	72	3
98	98	12
56	83	6
64	65	5
42	42	6
66	66	4
73	73	2
87	96	2
24	24	3
101	101	2
75	75	13
84	97	5
53	53	1
85	85	5
93	101	1
86	89	12
31	31	5
97	97	5
43	72	2
73	74	1
91	91	8
93	94	7
67	69	2
55	55	2
62	62	4
30	83	1
27	29	1
34	34	1
43	47	4
48	48	9
108	109	4
80	80	2
84	85	3
96	96	8
61	61	8
79	79	7
60	63	3
21	30	3
59	60	5
84	84	6
54	54	6
32	47	2
50	52	4
24	61	1
76	76	3
39	44	3
66	67	3
46	51	3
47	48	5
40	72	3
95	99	1
39	39	4
51	51	4
66	68	2
94	108	6
69	74	3
27	28	2
107	107	1
96	97	6
50	51	5
35	86	2
33	34	3
29	29	5
100	100	2
60	60	9
25	26	5
94	94	3
28	28	10
49	49	3
94	102	1
76	77	3
20	20	4
52	52	3
19	19	3
110	110	1
50	50	3
67	67	2
50	65	2
41	42	2
20	30	1
97	98	2
44	45	3
51	52	1
35	44	3
81	81	3
108	108	3
43	50	2
68	68	5
78	78	1
70	70	5
99	100	1
95	97	1
93	108	1
92	101	3
21	22	1
91	92	2
51	80	1
67	68	1
36	36	2
51	53	1
29	30	1
22	29	2
46	47	3
60	82	1
98	111	2
99	99	4
54	55	1
21	25	1
50	67	1
95	95	1
88	88	1
101	102	4
23	24	1
32	33	1
41	41	1
90	90	2
44	46	1
49	51	1
37	71	1
94	97	3
89	89	1
57	57	1
82	82	2
100	101	2
60	61	2
48	86	2
43	43	1
38	39	1
26	26	1
65	65	2
53	81	1
46	53	2
51	78	1
111	113	1
20	48	1
25	27	1
76	79	1
49	50	1
110	111	1
94	95	1
