101	101	11
71	71	15
25	28	2
21	24	1
64	64	31
90	90	14
93	93	12
54	54	23
78	95	2
63	63	31
68	68	32
96	96	7
58	87	2
48	48	16
78	78	30
85	93	1
46	46	7
70	71	8
87	87	18
58	58	9
49	77	1
26	27	6
57	67	1
37	37	8
38	38	16
51	71	1
74	74	28
88	88	25
86	86	25
94	94	10
65	65	43
62	62	31
69	69	16
35	35	11
81	81	15
83	83	15
84	84	14
52	52	13
73	73	25
20	24	4
50	50	8
56	74	1
79	79	23
84	88	4
79	80	7
64	65	6
41	42	7
78	97	2
100	100	9
72	76	1
80	81	8
25	29	3
66	66	24
41	41	22
61	61	15
47	47	16
75	75	33
67	72	1
32	34	4
54	55	7
65	69	4
85	99	4
72	88	2
50	51	3
75	76	4
52	53	6
97	99	1
55	55	9
68	69	8
28	29	1
52	64	1
72	72	27
76	76	25
60	69	2
96	97	2
99	99	19
91	95	1
46	47	6
80	80	20
59	59	11
45	45	6
70	70	16
29	41	2
32	32	14
34	34	16
78	79	4
62	63	12
93	101	5
83	88	1
68	77	1
56	56	17
85	98	5
85	85	26
75	90	1
57	57	14
78	94	4
97	97	9
71	72	4
59	66	2
51	55	2
79	100	2
95	95	6
23	23	2
32	33	1
67	69	4
72	84	1
51	51	10
77	77	31
29	29	9
70	87	2
33	33	10
22	25	1
26	55	3
79	86	2
75	79	3
67	67	19
55	57	2
56	60	2
73	94	1
49	66	2
92	94	3
24	24	6
25	39	1
82	89	1
80	98	4
71	91	1
52	57	2
25	25	11
24	48	1
73	77	1
39	39	15
92	92	7
88	89	6
62	83	6
49	50	6
79	90	2
63	79	5
63	72	1
77	78	10
38	40	2
89	89	10
53	53	23
73	81	3
41	62	3
62	65	2
67	68	3
42	42	10
87	88	15
38	39	8
49	49	7
26	26	7
79	83	2
81	82	1
40	40	20
100	101	8
60	61	4
36	36	9
86	87	3
61	92	2
96	100	6
98	98	10
36	37	5
101	102	7
68	91	2
57	60	2
44	44	10
91	91	19
23	37	4
72	96	1
53	54	2
24	25	4
41	64	2
72	87	1
28	28	5
31	52	3
65	74	1
52	65	1
86	89	1
76	77	13
77	79	6
93	94	1
63	64	3
95	96	6
60	60	6
68	73	2
95	102	2
71	81	2
72	77	2
85	88	3
79	84	1
48	49	3
72	74	7
22	23	1
35	36	3
45	49	1
38	47	2
58	94	2
45	66	3
90	92	1
42	61	1
94	100	3
80	92	1
62	81	3
82	82	4
55	60	3
86	101	3
75	85	1
49	57	2
47	61	1
92	93	2
43	43	6
40	64	1
38	52	1
84	87	1
74	76	1
36	76	3
75	83	2
67	79	3
36	65	1
47	53	1
33	34	2
25	26	1
54	58	3
73	75	4
44	59	2
64	81	3
97	98	2
55	81	1
93	97	1
53	83	4
66	76	4
72	89	3
78	80	4
87	89	1
73	74	3
31	31	10
70	88	3
61	63	2
74	75	8
35	39	1
86	88	2
49	64	3
31	48	3
54	56	3
71	89	2
56	64	2
58	59	3
86	93	1
27	27	11
44	45	3
24	26	5
22	22	4
75	78	2
65	76	2
30	30	2
51	66	1
27	28	1
85	89	1
57	91	6
69	70	2
84	98	1
25	27	1
42	49	3
68	85	1
82	86	2
40	58	1
83	86	1
61	62	3
47	48	2
91	100	1
28	46	1
22	65	1
40	41	1
50	75	2
67	85	1
84	85	1
31	33	3
94	95	1
61	81	2
36	53	3
23	39	2
75	77	3
42	43	3
51	52	2
81	98	3
57	64	3
95	101	1
46	50	2
83	87	1
89	94	2
33	46	1
24	35	3
23	24	2
68	70	3
83	102	1
29	46	2
78	83	3
60	86	2
35	37	3
52	69	2
58	91	4
35	65	1
34	42	2
48	51	2
48	91	2
102	102	2
33	47	1
70	78	1
57	85	1
71	92	1
52	75	2
62	77	1
65	66	2
48	95	1
41	45	1
92	102	2
41	43	1
58	64	2
29	30	1
65	71	2
89	90	3
62	87	2
63	67	2
33	66	2
83	85	4
63	80	1
73	82	1
67	78	1
66	81	1
66	70	1
59	91	3
79	102	2
91	92	1
43	44	1
89	101	1
64	77	1
99	100	1
55	74	1
41	56	1
43	49	1
20	40	1
27	29	1
52	91	2
45	56	2
62	64	1
81	87	2
74	81	1
52	70	2
57	61	1
23	27	1
45	74	1
60	62	1
25	31	1
68	80	1
52	83	1
52	56	1
74	88	1
42	48	2
25	52	1
73	78	1
80	88	1
60	66	1
59	61	1
64	74	1
64	85	1
75	80	1
61	82	1
76	78	1
40	42	1
68	72	1
53	79	1
79	89	1
61	80	1
51	84	1
42	51	1
68	90	1
