87	87	15
30	30	6
56	56	20
50	50	18
80	81	11
50	80	1
37	38	7
48	48	8
80	84	3
89	89	13
40	97	1
93	93	13
36	36	11
28	28	7
43	43	1
60	60	5
60	62	5
77	78	4
83	83	14
97	98	3
46	49	2
79	80	4
73	74	3
59	59	13
102	102	18
48	50	4
65	65	15
85	87	2
103	103	16
100	101	5
105	105	18
46	46	13
82	84	7
29	58	2
22	70	2
75	75	12
98	99	3
75	77	1
29	29	6
92	94	1
67	92	3
54	80	3
45	46	1
78	78	9
74	76	9
54	56	9
34	34	9
98	98	11
32	86	4
61	104	3
22	22	11
100	102	3
40	40	13
64	64	10
73	73	14
27	28	5
63	93	4
89	95	2
104	104	16
100	100	11
55	55	11
20	20	3
91	91	11
44	44	12
23	23	12
90	90	20
38	38	7
88	88	13
34	35	6
77	77	10
81	82	1
101	101	10
65	68	2
67	68	4
70	73	3
91	92	4
70	70	2
80	80	8
65	67	2
57	57	13
47	48	3
30	31	2
86	91	8
63	64	9
58	58	16
46	47	2
65	92	2
79	79	6
94	94	13
54	54	13
49	49	10
37	37	12
21	23	3
54	55	11
36	37	8
52	52	13
99	99	10
92	92	10
21	21	8
33	33	11
25	25	18
56	58	3
90	96	1
35	35	11
97	102	4
103	104	3
33	34	4
32	43	5
32	32	14
58	59	3
50	51	5
47	47	7
32	81	4
74	74	11
31	85	1
44	45	2
46	59	1
89	105	3
34	68	2
85	86	2
20	47	5
23	24	6
40	42	7
46	48	2
51	51	15
81	89	1
40	59	3
54	57	2
107	107	2
40	41	9
39	87	1
95	95	14
41	42	7
63	63	12
39	39	16
41	41	13
71	73	5
93	94	2
31	31	13
52	53	1
24	50	1
85	85	5
46	90	1
68	68	6
89	98	1
57	75	5
21	28	1
50	52	2
48	95	2
62	62	10
35	37	3
66	69	1
97	97	4
104	105	6
70	72	2
33	37	3
43	44	3
66	67	8
106	107	1
49	52	3
55	95	2
82	82	8
93	95	2
89	90	3
94	95	5
45	45	9
62	93	2
56	57	6
82	86	1
21	76	4
58	79	4
34	36	2
92	93	3
20	21	13
22	24	5
31	86	3
51	97	1
50	55	2
57	58	4
69	69	5
26	86	1
29	34	2
91	95	5
71	71	6
25	28	2
41	60	2
23	83	2
83	97	1
67	67	7
38	87	3
49	50	1
45	48	2
26	50	1
24	24	3
90	92	2
51	52	1
45	88	2
56	81	4
55	56	1
35	39	2
38	39	2
42	42	3
37	90	1
72	72	2
36	90	1
26	27	1
24	71	1
61	62	1
76	76	1
24	73	2
87	99	1
27	53	3
62	63	5
27	27	2
82	85	1
93	105	1
53	54	1
88	89	5
96	96	5
83	84	2
29	53	1
40	106	1
27	47	3
68	96	2
28	33	4
89	107	3
24	32	1
81	86	3
82	101	1
81	83	3
86	87	2
79	87	3
90	93	1
94	98	1
67	70	1
90	91	1
79	88	1
53	96	2
86	88	2
86	86	2
106	106	2
29	106	1
55	90	1
55	57	2
83	86	1
53	53	3
41	44	1
65	69	2
54	81	1
91	93	1
41	49	2
80	83	1
91	94	1
88	90	3
57	62	1
78	87	1
40	87	1
81	81	1
29	99	1
47	93	1
69	95	2
39	99	1
56	75	1
74	75	1
29	30	1
66	68	1
21	22	3
84	84	1
39	40	1
58	62	2
78	79	1
35	94	3
26	26	1
22	30	1
31	79	1
45	59	1
52	54	1
51	53	4
82	88	1
27	63	1
67	90	1
92	101	1
34	64	1
66	66	1
51	100	1
25	26	1
49	59	1
76	78	1
38	88	1
40	60	1
87	97	1
60	61	1
