208	209	3
177	177	5
7	8	3
135	152	3
208	216	5
38	42	1
83	83	4
188	188	3
197	208	4
66	66	3
125	125	3
32	32	8
233	233	4
46	62	1
226	227	2
206	206	2
169	169	7
179	179	6
144	144	1
77	77	1
63	63	2
113	113	6
134	135	1
15	21	2
4	80	3
2	35	2
60	146	4
42	42	5
4	4	7
95	95	2
31	32	2
137	139	1
180	180	2
193	193	1
236	236	4
68	68	1
44	44	1
170	172	4
150	181	3
5	7	1
122	122	8
166	166	8
152	152	4
3	37	2
65	65	4
183	183	9
119	122	2
36	38	2
33	34	1
22	22	2
54	54	4
97	97	4
156	156	2
189	189	3
11	11	8
137	137	3
29	29	2
69	69	2
128	128	4
171	171	9
220	220	2
81	81	10
1	83	3
207	207	5
136	136	2
162	163	2
161	163	1
173	174	3
117	117	3
99	99	6
214	215	2
27	27	7
6	18	1
173	173	6
70	97	2
21	23	5
114	114	2
60	60	5
30	32	1
71	71	5
154	182	3
232	232	9
239	239	5
72	72	6
157	158	2
37	38	4
204	204	9
174	175	1
176	176	7
78	78	1
61	61	6
120	159	1
147	147	4
79	79	4
145	145	1
151	190	4
130	130	5
149	149	4
241	241	4
76	76	6
64	64	2
205	205	5
167	167	4
222	223	1
227	227	2
209	210	3
24	24	1
5	5	2
168	169	3
58	58	3
38	38	13
18	19	4
107	108	6
211	211	8
145	146	3
115	115	2
197	197	2
36	37	2
216	216	2
106	113	4
118	119	2
121	121	4
225	225	5
52	53	3
158	162	1
186	186	3
127	127	1
148	148	2
103	103	4
143	150	1
242	242	3
209	209	2
48	48	3
184	184	3
199	200	3
54	143	1
138	138	1
6	6	2
164	164	4
67	67	6
76	77	2
56	56	8
238	238	4
178	178	9
145	178	2
143	144	2
58	168	4
137	148	1
75	75	3
43	64	2
76	83	1
72	78	3
191	191	4
49	49	1
217	217	4
34	34	2
201	201	5
208	208	1
44	139	2
12	12	1
100	100	7
195	195	3
115	126	4
135	136	1
156	157	2
145	180	2
172	172	5
138	139	2
59	59	4
182	182	6
35	35	2
171	173	2
31	84	1
219	219	4
84	85	1
222	228	4
65	86	3
10	10	1
14	18	1
194	237	3
36	42	3
96	96	3
241	242	2
181	181	6
55	55	11
157	157	5
42	44	1
218	218	2
26	26	4
14	14	1
202	202	5
24	26	1
107	107	1
109	110	2
46	47	1
203	204	1
200	231	3
196	196	5
194	194	4
136	137	2
139	148	2
135	135	6
128	152	2
108	108	2
98	99	2
209	216	2
65	66	1
161	161	4
111	111	4
54	55	2
122	128	1
62	62	4
179	207	2
105	105	1
177	230	2
224	224	1
3	6	1
231	231	1
40	40	3
223	223	5
220	221	2
198	198	1
168	168	2
20	21	3
14	15	5
52	52	5
43	43	4
46	46	1
3	3	2
74	74	5
99	100	1
160	160	4
155	157	2
82	82	2
197	204	2
190	194	2
7	18	1
162	162	2
16	16	2
134	134	1
19	20	2
66	67	1
3	18	1
174	174	3
151	234	2
213	213	4
89	89	1
19	19	2
50	50	7
59	60	1
228	230	1
125	126	3
102	103	1
104	126	2
17	37	1
63	64	1
74	75	2
11	12	4
18	18	4
28	28	2
41	41	2
139	141	1
122	145	3
132	201	2
45	45	2
141	141	4
70	70	3
8	8	1
206	207	1
161	169	3
189	191	1
234	234	1
150	150	1
215	215	4
101	101	6
21	22	3
53	53	4
49	50	5
9	9	1
117	190	2
165	165	3
155	156	1
215	216	1
102	102	2
36	36	2
230	230	3
175	175	2
110	179	1
12	20	2
224	231	2
105	118	1
192	195	2
53	143	1
175	176	2
105	108	1
155	200	1
142	143	2
152	181	2
138	157	1
110	110	1
30	30	1
147	148	1
50	51	2
25	25	1
114	115	1
158	190	1
152	180	1
226	226	3
119	119	1
27	42	1
218	220	1
15	15	5
154	183	1
197	202	1
0	1	1
112	112	3
203	203	1
239	240	1
34	35	3
187	194	2
150	152	1
67	68	2
240	240	7
23	23	2
20	20	1
185	185	1
198	200	2
140	140	3
114	116	2
167	168	3
39	39	2
177	178	1
174	176	1
210	210	2
17	18	5
22	23	2
153	153	2
193	201	2
13	14	1
133	134	1
195	196	1
142	142	1
37	37	1
23	34	2
109	153	2
161	165	1
31	31	1
238	239	1
155	155	2
235	235	1
60	147	1
137	138	1
13	15	2
128	149	1
159	159	1
196	204	2
109	109	2
191	231	1
45	232	1
128	131	1
57	57	1
160	232	2
181	224	1
85	85	1
160	161	2
9	10	1
190	190	2
151	151	2
168	228	2
228	228	2
53	119	2
109	113	3
201	208	2
33	33	2
139	146	1
25	26	2
111	175	1
66	68	2
198	202	1
21	21	1
165	166	2
224	228	1
56	166	1
106	106	1
120	120	1
32	38	1
117	118	1
109	114	2
116	116	2
147	149	1
91	92	1
207	225	1
71	72	1
98	98	1
102	106	2
102	105	2
135	190	1
140	142	1
189	194	1
200	200	1
187	187	2
61	148	1
103	105	1
128	135	1
159	203	1
8	65	1
48	50	1
162	165	1
103	115	1
222	222	1
214	214	1
12	222	1
2	4	1
154	154	1
9	86	1
210	211	1
143	145	1
181	231	1
221	223	1
58	59	1
86	86	1
72	166	1
190	191	1
163	163	1
129	130	1
173	175	1
183	210	1
157	174	1
140	141	1
16	23	1
