16	55	1
82	82	7
28	29	6
73	73	6
162	163	2
113	113	27
42	70	3
19	19	8
66	66	7
68	69	3
57	108	5
138	146	2
60	68	5
43	79	2
145	145	13
63	63	4
128	128	9
189	189	12
61	62	5
182	183	3
154	154	20
90	90	12
120	124	2
87	106	5
15	38	4
4	5	7
64	65	2
104	104	7
184	184	3
151	151	8
75	75	7
180	180	6
169	169	11
158	158	13
117	124	1
188	189	6
0	0	3
111	111	10
58	148	3
134	140	1
53	53	4
109	109	6
29	29	4
73	74	6
136	136	3
12	18	4
185	185	10
140	140	16
151	189	8
24	25	2
48	48	12
92	116	2
164	165	5
115	115	1
137	137	7
131	131	6
78	78	12
153	154	5
97	98	6
24	24	12
54	54	6
112	112	9
46	46	2
20	20	13
94	94	6
75	76	4
152	153	3
61	61	14
22	22	9
176	176	9
26	26	13
13	14	5
35	36	2
184	185	2
65	77	3
146	170	3
164	169	2
165	165	8
176	190	3
77	83	2
25	25	18
181	182	4
138	139	11
154	158	2
161	166	2
52	53	7
166	167	2
172	172	8
20	52	1
102	172	1
178	181	4
18	18	18
45	45	12
55	55	9
56	56	9
76	76	5
128	183	1
83	83	8
143	143	4
100	100	4
32	32	5
7	7	9
77	104	5
4	4	13
9	14	4
159	160	4
13	13	15
21	27	1
45	46	6
33	33	7
105	105	11
79	79	4
170	183	1
57	64	1
23	23	13
95	95	8
98	99	7
168	168	9
91	94	2
110	110	10
40	40	8
166	166	7
40	41	2
101	101	6
42	42	8
122	141	2
106	106	8
57	79	5
89	91	3
133	136	2
36	36	7
174	174	4
98	98	6
187	187	12
167	167	8
20	21	7
141	159	4
133	133	6
59	138	3
87	87	14
122	122	4
181	181	10
169	170	5
39	39	9
178	178	4
152	189	2
10	10	10
141	141	6
117	117	11
79	122	3
13	79	2
67	67	8
6	7	2
113	114	7
175	180	1
38	38	5
165	187	5
148	149	2
15	15	14
149	149	13
109	111	1
162	162	11
34	56	1
150	150	12
78	112	1
183	183	13
109	110	7
65	67	8
128	147	1
157	157	4
127	175	2
164	164	5
167	168	1
80	83	4
30	30	11
85	85	4
96	98	3
179	182	2
86	86	2
55	94	1
72	72	3
3	3	6
92	92	7
172	173	6
66	100	1
124	139	1
161	162	3
47	47	12
156	165	3
98	163	1
123	123	6
61	63	2
175	176	3
57	57	9
104	113	2
72	73	2
46	47	3
58	61	2
70	71	3
67	115	2
174	185	1
18	19	3
160	171	2
31	31	2
88	88	1
0	1	3
185	186	1
190	190	7
66	144	2
156	156	9
144	189	2
158	159	4
77	77	12
67	113	2
129	129	7
103	103	14
26	54	3
170	171	2
113	136	5
58	58	9
9	10	6
68	71	3
126	126	2
160	162	3
134	134	8
161	161	8
160	167	2
119	120	2
2	3	1
28	32	1
54	122	3
16	135	1
6	6	4
19	21	2
179	180	6
71	71	9
160	160	3
179	190	1
79	118	4
62	62	13
136	139	2
103	184	6
22	24	4
1	1	7
186	187	1
129	130	2
65	116	2
27	27	5
175	175	7
96	97	5
12	13	5
173	186	1
3	10	3
104	105	3
45	92	2
114	114	3
156	158	2
170	170	9
15	21	2
117	118	2
178	179	1
41	76	2
151	152	2
146	146	2
140	141	10
186	186	8
115	184	2
96	117	3
150	151	1
119	119	8
150	155	4
52	57	2
153	153	8
13	16	4
129	149	4
28	74	1
116	117	5
47	48	3
13	15	2
77	113	1
59	61	1
116	116	7
99	99	11
27	28	3
90	100	3
38	87	4
25	26	2
21	22	2
86	89	3
58	62	1
39	40	1
48	123	1
16	16	8
187	190	1
90	91	1
29	35	3
77	79	1
150	169	3
74	75	2
102	112	1
25	42	1
152	152	7
76	88	2
104	106	4
41	77	2
88	91	4
58	116	2
74	79	1
14	46	2
48	85	3
17	19	5
59	59	6
41	41	6
127	127	5
125	126	1
160	161	3
91	101	2
47	115	4
120	120	6
85	96	2
87	142	1
148	148	7
183	186	4
10	13	2
65	113	3
161	163	4
37	37	12
177	177	3
17	18	1
89	89	5
146	185	2
160	164	1
135	135	6
7	14	1
155	155	13
118	118	7
34	34	8
56	95	1
8	8	2
108	109	5
66	67	2
42	100	2
178	184	1
144	144	4
35	35	3
130	130	4
63	66	1
91	91	9
79	94	6
149	150	3
157	159	7
30	31	6
158	167	1
87	88	7
159	159	6
40	42	4
64	64	6
147	147	3
86	90	1
88	89	3
149	151	3
43	43	3
29	30	1
125	125	4
15	26	3
44	44	2
173	173	4
188	188	10
10	11	3
7	8	4
23	24	6
149	186	2
10	12	4
84	84	6
148	150	3
142	186	1
5	8	1
105	106	4
22	71	2
91	155	2
163	163	3
86	155	1
129	141	1
108	108	3
103	107	1
168	187	1
156	157	1
56	85	4
26	43	2
2	2	5
96	96	4
140	152	2
92	138	1
86	87	1
146	148	1
136	153	1
154	155	1
157	165	5
60	61	3
110	148	4
84	110	3
152	154	1
74	74	5
97	97	3
55	57	3
154	160	1
151	154	2
43	96	2
67	68	3
102	102	1
68	113	1
189	190	1
78	79	1
77	96	1
12	12	4
66	68	1
112	140	1
84	95	2
141	170	2
182	182	6
2	26	5
31	32	1
95	96	2
28	28	2
123	127	1
58	66	1
139	148	3
150	176	1
187	188	4
38	39	4
126	175	5
139	139	4
20	32	3
59	106	4
153	156	2
124	124	7
81	81	7
62	84	1
168	170	2
133	134	4
83	84	5
18	37	1
11	12	2
81	82	1
104	182	5
131	147	2
68	70	1
65	65	3
25	47	1
57	106	1
118	120	1
7	15	2
174	182	4
102	190	2
80	117	3
9	9	2
138	138	8
14	14	3
110	114	3
166	175	2
80	80	3
106	107	1
120	187	1
170	189	1
133	139	3
102	103	6
165	166	1
174	189	2
126	188	2
34	35	3
29	57	1
141	154	4
128	140	1
37	46	2
7	18	1
49	49	1
173	174	3
130	164	6
91	92	3
25	84	1
14	15	1
17	20	3
171	172	1
92	168	1
171	187	2
92	94	2
138	153	1
6	22	1
65	66	2
91	95	1
70	70	2
71	72	1
68	104	1
120	176	2
53	54	1
98	125	1
47	123	2
130	136	2
85	104	2
81	129	1
5	5	5
11	11	2
59	64	1
13	45	1
44	45	1
129	188	1
38	84	2
159	178	2
89	90	2
103	156	3
81	117	1
4	24	1
33	34	3
16	17	3
104	107	3
43	75	1
64	67	1
129	185	1
102	151	2
6	41	1
107	107	1
124	146	1
87	92	1
157	158	2
54	55	2
80	108	1
148	151	2
68	106	1
95	149	2
91	142	1
74	103	1
5	6	2
164	175	1
169	174	2
65	80	1
18	43	1
17	17	1
90	102	2
93	93	1
43	45	1
106	108	1
21	21	3
31	37	1
103	104	1
149	179	1
42	93	3
141	185	1
141	184	1
76	77	1
69	69	1
132	133	2
71	73	1
136	143	1
116	174	1
159	162	1
16	95	1
155	156	1
70	73	1
34	45	1
66	115	1
148	172	2
84	85	1
10	16	1
77	78	1
148	165	1
94	138	2
135	136	1
9	13	1
173	183	1
95	97	1
171	175	1
104	109	1
61	138	1
131	133	1
55	70	1
171	171	1
176	177	1
137	140	1
100	169	1
54	102	1
54	77	1
44	54	1
60	60	1
59	107	1
92	93	1
68	68	1
