128	128	15
5	5	6
24	24	13
118	118	17
48	50	5
173	178	2
4	136	5
127	127	7
9	38	2
185	185	10
1	1	13
43	43	9
116	117	2
16	21	6
191	191	14
116	116	14
96	97	6
155	155	12
72	72	14
88	88	10
33	33	11
125	125	11
20	37	2
55	58	4
109	109	9
170	170	16
15	15	14
73	73	6
42	123	1
119	119	8
160	161	1
51	51	6
81	82	1
27	27	13
168	169	10
61	80	2
18	19	6
129	129	6
113	159	1
36	36	7
99	105	1
126	126	6
47	48	3
79	79	19
135	136	6
130	133	7
181	181	12
171	172	3
56	78	4
72	73	5
168	168	26
67	67	8
0	0	10
87	154	6
14	14	11
52	52	10
137	138	3
99	100	4
25	25	11
180	180	13
43	98	4
190	190	4
193	193	17
161	161	6
30	30	10
82	144	7
84	146	1
101	101	21
34	36	5
69	150	5
131	131	8
94	94	8
10	61	3
143	143	6
28	121	2
56	127	2
85	85	5
97	97	6
48	49	10
168	195	3
33	141	2
33	70	5
59	144	3
27	37	6
57	57	7
13	13	13
100	120	1
80	154	3
23	23	13
87	87	13
88	89	4
152	152	3
69	149	3
112	112	2
192	193	1
29	30	3
54	55	2
189	190	2
167	167	7
75	76	3
80	80	2
125	126	5
145	145	14
178	178	10
174	175	1
123	156	7
55	55	13
138	138	18
117	159	1
158	158	11
12	12	14
192	192	14
32	86	1
132	134	2
65	65	9
143	145	11
99	99	12
74	74	10
136	136	15
84	147	2
15	16	4
173	185	1
144	145	6
9	9	11
105	106	3
169	169	12
4	4	10
46	46	12
20	20	8
138	139	1
191	192	6
14	139	2
166	167	1
104	104	3
153	159	3
2	2	9
53	53	5
37	37	2
98	108	2
115	115	8
133	133	10
17	17	7
54	62	2
48	48	5
194	194	12
44	44	6
182	182	14
54	61	3
103	104	5
46	99	1
29	87	1
47	47	20
64	64	7
106	106	16
23	25	3
89	89	6
117	117	5
170	187	4
156	156	9
77	77	3
176	176	9
41	41	4
35	35	4
157	158	4
154	154	12
21	22	5
68	68	8
26	37	5
150	150	5
123	124	7
102	104	1
140	140	4
100	100	8
73	76	1
19	19	6
130	131	2
82	83	1
183	183	8
85	196	2
161	167	4
49	49	12
14	129	1
6	6	11
28	28	6
169	185	4
95	145	2
27	28	1
129	133	1
44	45	4
29	29	13
102	102	13
114	114	6
85	86	3
76	76	10
12	16	3
96	96	4
87	88	2
16	17	1
108	109	2
159	159	9
150	169	1
32	32	10
191	193	5
50	138	2
58	58	4
171	171	10
31	31	18
11	12	2
90	90	1
26	26	12
123	123	6
41	54	3
100	158	3
108	108	9
141	141	7
38	39	2
155	156	3
149	150	3
78	78	5
31	32	1
38	38	6
170	171	5
70	70	13
126	158	4
53	54	1
120	120	4
39	39	10
115	117	1
124	125	4
166	189	2
142	143	5
173	173	3
168	173	4
81	83	1
60	60	9
56	56	2
11	72	2
8	8	3
33	34	1
22	26	1
187	187	9
142	142	2
16	86	2
104	105	1
0	160	2
196	196	11
33	149	1
15	71	1
67	74	2
166	166	3
83	147	3
185	186	6
27	66	1
184	184	9
125	143	3
83	85	3
110	110	5
172	172	10
107	107	5
21	27	2
147	147	2
107	108	1
121	121	3
175	175	5
132	132	2
143	144	3
55	56	2
50	136	3
100	101	4
16	16	4
188	188	4
162	162	6
179	179	6
46	116	4
71	71	7
48	52	2
45	45	4
179	181	2
146	147	3
45	116	4
189	189	6
118	119	1
22	22	6
124	168	1
187	193	1
120	122	2
21	21	9
69	69	11
116	153	2
140	141	5
98	98	2
53	56	4
108	193	3
94	147	3
45	72	5
170	172	4
153	153	6
155	172	1
43	44	4
30	31	4
58	128	2
164	164	3
11	11	7
101	102	6
69	74	5
188	189	4
117	122	1
160	160	9
93	96	1
86	87	6
34	34	7
128	140	1
144	144	4
165	165	13
10	10	5
167	168	2
56	60	4
64	197	3
113	113	12
162	164	1
144	149	3
152	153	2
82	82	5
18	18	5
94	97	1
154	169	1
137	140	6
84	84	5
68	149	3
125	179	3
65	73	6
39	50	2
173	174	4
135	135	3
148	150	4
151	151	9
70	75	1
107	111	1
50	50	10
98	101	3
146	146	2
42	124	2
0	1	5
175	193	2
68	150	1
170	186	1
122	122	4
188	194	1
54	54	2
197	197	7
43	158	5
38	54	2
196	197	5
39	63	3
79	80	3
3	187	3
129	135	1
187	194	1
81	81	7
17	18	4
186	186	7
76	77	5
114	165	3
114	139	2
62	62	9
109	110	1
128	141	3
3	3	4
2	186	1
81	85	5
98	102	2
165	166	2
115	116	3
79	89	3
65	151	2
0	21	1
26	27	2
39	62	2
67	68	1
106	108	3
84	85	1
56	57	1
13	14	1
73	142	2
169	171	2
23	37	3
163	164	6
111	111	2
181	182	4
10	128	2
6	7	1
137	194	3
148	187	4
2	5	1
70	71	2
94	95	5
167	173	3
42	168	3
178	191	1
64	66	2
42	63	3
26	34	2
59	59	6
42	125	1
95	147	2
83	84	5
181	183	1
50	135	2
66	74	3
64	65	2
151	190	2
184	185	1
41	63	3
64	78	2
38	42	2
149	149	3
118	155	2
152	157	1
86	89	1
153	157	1
27	29	2
51	197	1
19	22	1
137	139	4
12	33	1
195	196	2
126	157	1
53	127	2
95	95	4
177	177	5
54	146	1
55	61	1
65	70	3
57	58	1
134	135	2
77	78	1
42	60	2
118	120	3
176	177	2
63	63	10
40	40	4
113	164	2
130	130	10
128	129	1
10	149	1
71	77	1
111	119	4
125	142	1
27	31	1
124	124	1
58	59	2
7	63	1
2	187	1
54	78	1
147	148	2
78	89	1
5	6	2
75	139	1
43	123	3
99	107	1
0	16	3
120	121	2
17	37	1
116	118	3
105	108	3
32	33	1
52	53	1
103	103	2
32	141	2
124	179	1
103	111	2
122	123	3
56	58	2
168	170	4
121	132	1
195	195	8
34	35	2
86	86	1
148	148	1
114	158	1
190	193	1
131	132	3
110	111	6
27	36	1
7	7	3
64	68	3
160	167	2
161	164	2
16	27	1
115	167	1
7	39	1
20	24	1
9	60	1
148	154	1
12	86	1
189	191	1
50	82	1
66	70	1
148	149	1
159	160	1
42	42	1
83	83	2
95	148	2
25	37	1
112	113	2
77	88	2
161	162	1
105	105	3
172	173	1
22	65	2
113	119	1
93	149	1
64	151	1
11	126	2
157	157	1
94	96	1
12	13	1
0	2	1
55	60	1
73	131	1
133	134	1
41	78	1
67	78	1
94	146	2
137	137	1
59	60	1
33	35	1
150	151	1
35	36	1
117	118	1
20	26	1
109	111	1
54	56	1
179	180	1
100	119	1
38	65	1
7	38	1
133	135	1
42	71	1
12	70	1
30	122	1
151	154	1
61	79	1
