34	36	4
3	3	4
33	34	2
165	166	1
178	190	3
77	104	2
175	177	3
151	152	1
79	80	3
13	13	4
136	144	2
23	23	2
106	106	11
197	197	1
102	109	3
137	142	3
37	42	1
116	118	5
22	149	5
172	172	12
40	40	5
135	136	3
118	118	8
64	64	13
166	185	6
66	67	2
8	193	2
70	70	10
134	185	3
112	112	7
65	67	7
132	132	8
22	26	7
60	60	8
4	14	3
180	189	1
86	90	1
134	134	5
107	108	3
10	37	7
31	48	4
5	5	12
13	28	2
37	37	12
96	97	6
0	17	3
166	166	18
154	154	9
54	55	2
104	104	10
143	143	6
175	175	6
108	109	1
75	75	3
126	126	9
161	162	2
122	124	2
2	8	1
83	88	4
83	83	6
140	141	5
1	1	8
38	38	6
144	145	2
114	114	16
86	86	11
95	98	3
120	120	10
171	171	9
140	196	3
96	96	10
160	189	2
134	154	5
68	68	9
173	173	9
19	19	5
42	42	13
32	35	1
174	174	9
157	157	4
47	47	10
8	17	4
81	83	5
190	192	4
69	69	6
64	65	6
148	149	1
27	27	13
117	126	3
145	145	7
124	127	3
140	186	2
53	55	1
20	20	12
40	55	2
85	106	2
139	139	6
85	87	5
151	192	3
165	167	5
30	55	4
158	159	9
170	170	12
181	183	1
186	187	4
178	178	8
166	186	2
35	35	16
97	119	1
130	186	1
34	115	3
74	86	4
27	28	6
19	176	1
85	85	3
127	127	10
143	146	6
165	165	9
93	101	2
151	168	2
55	61	2
39	73	4
132	134	5
0	0	11
134	167	4
65	65	13
127	165	5
169	169	4
32	32	18
117	117	7
119	119	8
87	87	4
54	54	6
129	129	14
148	148	5
6	192	3
26	194	2
61	61	13
130	148	3
62	114	4
42	51	3
26	27	1
82	82	3
188	189	9
103	104	6
191	193	3
192	192	18
144	144	10
39	72	3
123	159	1
95	95	8
88	89	9
114	115	3
9	9	10
93	123	3
135	164	2
25	76	1
185	185	8
7	7	9
38	43	1
180	181	4
76	102	4
162	162	13
72	72	11
9	13	5
139	180	2
17	17	15
13	26	5
26	26	5
4	4	10
48	48	5
28	29	3
181	181	13
89	89	3
12	51	3
98	98	4
195	195	5
123	123	4
146	160	1
27	113	2
102	129	4
42	82	2
124	187	1
50	52	1
1	2	2
14	133	2
94	94	3
121	121	9
80	86	2
93	93	8
153	153	4
87	88	2
10	10	4
191	191	5
156	156	13
39	39	9
97	125	3
187	187	14
175	176	1
131	131	7
38	40	1
143	144	8
24	28	1
101	111	3
181	197	3
29	30	3
162	163	4
50	129	3
132	155	3
168	168	17
194	194	3
8	8	7
102	102	6
58	60	5
15	45	2
14	14	7
176	193	2
55	56	3
159	160	3
117	132	1
77	81	2
34	35	5
50	50	5
41	41	6
190	190	2
76	77	4
43	57	2
24	24	14
166	181	3
46	47	2
62	63	4
23	54	5
137	150	8
155	155	8
61	86	3
57	58	4
133	133	6
29	29	6
39	40	2
53	54	4
128	154	1
41	58	3
142	142	2
183	183	8
84	85	5
14	170	1
95	96	2
52	52	9
42	79	5
161	161	1
103	103	4
97	97	4
158	160	3
179	179	3
15	15	2
111	112	2
28	68	3
38	41	3
105	105	3
31	31	9
8	132	2
182	183	2
18	18	10
63	63	4
144	152	1
12	123	2
189	189	5
146	162	2
5	7	3
110	110	12
96	101	2
116	116	9
159	159	9
58	58	11
138	138	5
164	165	1
74	74	5
111	111	3
188	188	1
49	49	9
27	184	3
40	54	3
65	66	3
134	156	2
140	179	5
147	180	2
84	84	5
172	173	9
30	85	1
63	64	5
0	6	3
147	147	9
77	78	3
8	9	2
140	140	2
125	159	5
114	130	2
113	113	3
140	143	3
107	107	1
46	46	6
46	53	1
95	99	5
7	8	5
25	25	6
33	33	3
16	18	3
146	146	6
86	88	2
78	78	5
11	11	4
191	192	5
10	133	1
74	76	1
3	5	3
99	115	3
131	152	3
59	61	3
99	129	6
85	86	6
71	71	3
149	149	11
134	138	1
21	179	4
180	182	3
124	184	1
41	42	3
184	184	5
14	184	3
147	158	1
164	164	2
23	24	2
152	153	4
184	186	1
193	193	17
23	185	3
88	88	4
55	55	4
142	194	1
167	167	3
8	190	6
139	140	2
112	149	2
44	44	8
173	174	2
2	2	2
10	36	1
108	149	7
140	146	1
20	119	1
130	156	1
34	34	2
117	118	2
81	81	1
157	158	2
105	106	1
47	194	2
73	79	1
163	174	4
10	109	3
133	141	1
51	51	7
33	114	2
126	161	2
160	160	7
28	31	3
5	6	2
172	197	2
128	135	1
4	177	1
107	119	3
182	182	5
86	121	1
69	111	1
20	186	1
102	111	1
183	196	3
190	194	4
189	193	3
32	43	2
41	70	3
57	57	7
176	177	2
118	120	1
66	96	3
180	196	2
135	135	2
36	111	1
121	136	1
53	53	1
4	8	3
136	138	2
125	126	1
137	143	1
14	15	1
180	180	1
96	105	2
149	152	3
14	129	2
56	57	3
74	80	3
19	48	2
26	63	2
68	69	2
13	18	4
59	85	1
9	124	4
36	129	2
175	178	6
79	81	1
139	142	1
0	182	1
104	105	1
146	147	6
115	115	7
22	22	5
8	22	2
11	43	1
4	12	1
61	77	1
125	125	4
43	43	4
174	186	1
136	193	1
36	36	1
42	81	1
73	73	9
82	83	3
82	86	4
177	177	1
142	143	2
67	122	1
72	73	2
67	67	6
95	122	1
33	112	2
40	71	3
150	151	3
135	189	3
186	188	1
131	132	3
137	141	2
74	75	2
143	157	1
178	180	2
122	171	1
135	170	2
100	100	4
72	81	1
36	101	2
11	12	5
185	187	3
109	110	7
99	99	6
105	112	3
177	178	1
28	28	1
61	87	2
10	27	2
108	108	5
160	161	2
196	196	8
18	122	1
136	136	4
38	42	1
12	126	1
89	121	1
79	79	1
35	99	2
24	25	2
93	98	1
155	169	1
42	86	3
113	115	1
105	146	1
41	68	2
43	46	1
124	124	6
37	38	2
134	161	1
101	115	3
38	39	2
41	74	2
16	16	1
53	56	2
161	163	3
66	80	2
105	120	1
52	53	1
186	186	2
1	3	3
158	158	1
145	160	1
25	185	1
100	109	1
10	39	1
8	127	1
101	101	2
13	129	4
133	135	1
177	182	1
134	189	1
95	102	2
11	42	1
139	157	1
30	78	1
171	185	2
2	5	1
70	112	2
8	191	2
16	34	3
172	174	1
6	35	3
106	108	1
98	101	4
123	124	2
153	154	2
140	182	1
66	66	2
69	70	1
101	102	2
130	149	1
160	177	1
55	76	2
122	122	1
62	62	3
128	129	2
115	116	2
73	80	2
123	128	2
187	189	1
25	30	1
169	170	1
137	137	2
12	13	1
12	12	1
23	53	1
11	29	1
171	172	1
145	164	2
11	39	2
69	73	1
15	16	4
193	194	1
137	140	1
116	160	2
149	150	1
34	113	3
65	72	2
9	33	1
163	163	2
35	129	1
174	176	1
21	21	3
116	117	1
30	31	2
9	10	1
98	113	1
127	148	1
36	102	1
8	124	1
165	197	2
100	115	1
60	89	1
174	189	2
68	79	2
20	21	1
76	76	1
137	181	2
183	184	1
64	70	2
138	193	4
59	59	3
154	155	1
9	11	2
37	54	1
9	23	1
185	186	2
6	6	1
138	160	1
104	107	3
109	111	1
83	104	1
146	164	1
95	112	1
17	19	1
7	15	1
12	45	2
38	68	1
142	181	1
133	148	1
55	74	1
30	30	1
32	33	1
170	172	1
20	120	1
174	188	1
179	180	1
118	121	1
138	139	2
20	22	1
102	103	5
39	44	1
47	48	2
75	76	1
7	35	1
130	187	1
115	117	1
37	45	1
27	45	1
186	194	1
25	116	1
15	29	1
26	184	1
78	79	1
46	60	2
23	28	1
42	45	1
40	73	1
29	193	1
164	166	1
25	28	1
69	72	1
65	71	1
63	70	2
27	65	1
107	121	1
158	171	1
60	61	1
6	17	1
124	125	1
