80	80	4
39	39	19
56	56	7
114	114	5
90	90	5
166	168	3
32	32	6
78	78	13
54	55	1
176	177	7
92	92	5
112	112	5
135	135	3
176	176	5
20	22	4
183	184	4
111	112	4
35	35	4
57	57	3
155	156	8
6	8	2
94	119	4
59	59	2
149	150	3
134	135	6
161	161	8
102	102	2
157	159	1
76	81	2
83	83	3
147	150	4
26	34	1
41	41	4
77	77	10
136	143	7
43	43	3
165	165	7
172	172	7
116	131	1
130	131	7
52	52	2
164	164	2
99	99	9
23	37	2
85	90	3
17	18	1
109	109	3
33	34	2
140	140	4
72	72	1
140	152	2
17	17	2
26	26	3
79	79	16
38	38	4
150	151	4
146	146	4
28	28	5
169	173	4
94	94	11
89	89	4
113	153	3
14	14	3
177	179	1
107	121	3
151	151	8
129	129	5
142	143	3
111	111	3
144	144	6
143	143	3
31	32	2
15	15	11
54	54	7
88	88	7
125	127	2
87	87	6
3	4	7
81	82	3
169	171	3
86	86	5
172	173	4
153	153	8
103	103	1
29	29	1
65	65	6
68	68	9
148	148	5
121	121	2
145	145	7
4	4	8
156	158	1
118	148	1
3	3	4
169	182	1
39	40	1
177	177	1
181	182	3
30	32	2
177	178	1
88	89	5
187	188	5
16	38	6
114	148	1
84	89	4
159	165	2
108	108	3
132	132	2
141	141	2
127	127	9
182	183	2
19	35	3
8	10	6
117	118	1
97	98	2
19	19	2
40	40	5
164	182	1
1	1	2
140	141	4
83	84	2
126	127	6
62	62	7
79	80	4
166	181	6
183	183	7
100	101	1
82	82	3
29	47	6
139	139	5
168	168	7
81	81	5
11	23	2
139	141	1
30	47	1
61	61	1
100	100	7
48	63	2
95	119	3
91	91	3
133	133	3
189	189	5
186	186	2
107	107	7
0	0	4
66	66	2
12	14	5
142	142	3
5	6	3
159	159	4
73	76	2
167	173	3
44	44	6
57	58	2
171	188	1
45	46	2
152	153	8
13	13	6
188	189	5
71	119	3
157	157	5
86	87	4
119	119	11
24	25	3
163	164	6
23	23	8
128	128	5
162	162	1
67	67	7
175	180	1
105	105	4
95	95	5
69	70	3
86	109	2
88	119	2
155	155	1
31	47	1
27	28	2
71	84	3
4	5	1
147	147	2
142	167	4
7	8	3
37	37	6
103	105	4
136	137	3
9	9	1
77	78	1
35	37	2
36	36	1
87	154	1
86	107	2
34	36	1
163	163	2
22	22	4
138	139	3
174	181	1
44	45	3
5	5	2
150	152	1
88	109	1
7	7	1
118	118	3
110	110	3
27	27	3
65	98	2
106	106	4
18	20	2
190	190	5
136	136	4
126	126	3
18	18	3
171	174	1
23	36	3
105	106	3
152	159	1
9	18	1
19	20	1
102	105	2
138	138	5
60	61	1
48	54	2
70	70	5
147	154	1
154	157	1
57	63	4
58	58	4
149	149	6
144	145	2
123	164	1
46	46	3
25	27	2
126	128	1
80	81	1
143	159	1
169	169	7
121	122	1
25	28	3
16	37	2
24	37	2
117	149	4
45	45	1
124	124	2
21	21	1
13	15	1
169	170	1
182	182	2
56	84	1
93	93	2
131	131	6
181	181	3
108	109	5
53	53	2
185	185	2
173	173	1
42	42	7
5	7	1
106	107	1
70	71	2
162	163	2
97	97	1
2	3	2
76	79	1
130	130	5
97	105	1
96	97	2
62	63	6
83	85	2
71	71	1
53	54	4
10	11	2
123	125	3
59	118	1
90	122	2
52	73	1
101	101	6
89	125	2
8	8	1
186	187	1
56	74	1
11	11	2
139	166	1
103	104	1
151	181	1
161	163	2
6	6	1
115	115	3
180	180	2
84	88	2
96	113	1
152	152	1
123	123	2
67	69	4
141	159	2
2	2	2
145	164	1
21	47	1
73	73	3
175	175	3
173	174	1
25	26	2
1	62	1
34	35	5
86	110	3
36	43	1
16	16	4
20	20	1
43	44	1
20	37	1
167	182	1
67	68	2
13	14	2
104	104	3
24	27	1
149	151	2
179	180	4
102	103	1
154	154	3
166	166	1
64	65	1
168	171	1
47	47	4
82	108	1
116	156	1
69	69	2
27	46	1
160	161	2
15	17	3
122	125	1
25	25	1
124	125	1
30	61	1
141	162	1
119	120	1
60	64	1
137	137	1
30	30	2
6	7	1
156	156	1
110	111	1
61	62	1
22	27	1
75	75	1
84	84	2
146	149	1
110	113	1
98	98	2
30	36	1
3	6	1
12	12	1
74	74	1
66	67	1
60	60	1
123	153	1
146	164	1
113	113	1
34	34	1
36	37	1
171	171	1
55	56	1
35	42	1
150	150	1
21	35	1
125	164	1
4	6	1
94	95	1
