72	72	4
96	101	3
6	6	6
7	8	7
99	100	1
84	84	6
117	117	3
106	107	11
13	13	4
21	30	1
15	15	2
34	34	12
85	85	3
25	25	3
101	125	1
39	39	7
26	27	2
66	66	8
69	69	5
28	34	3
102	108	2
130	130	9
15	40	1
129	129	10
116	117	7
108	111	2
4	95	3
86	87	3
22	35	2
50	50	7
59	59	10
28	28	6
48	48	1
122	122	2
101	101	2
132	134	2
0	1	2
73	73	12
113	113	7
28	48	3
62	62	3
33	45	2
131	132	2
103	106	1
41	41	5
106	106	8
7	7	7
112	112	2
78	78	4
124	124	4
38	40	8
16	16	4
4	4	2
44	44	5
62	63	1
110	110	7
122	123	3
86	86	3
115	116	2
90	94	1
124	133	4
121	121	3
30	30	10
83	84	5
96	96	2
127	127	4
15	30	2
50	54	1
33	34	2
107	108	4
109	110	3
126	126	4
103	103	1
120	122	1
57	59	2
46	46	4
71	71	6
112	113	4
114	114	3
14	38	1
128	129	5
111	114	3
92	92	4
45	45	10
68	68	3
29	29	7
47	93	2
12	12	7
92	93	3
81	81	6
118	134	2
80	80	4
3	3	2
40	41	4
133	133	8
129	130	4
115	115	3
101	102	1
65	65	3
20	22	1
64	64	4
45	72	3
104	104	7
107	122	3
43	43	2
65	66	1
102	125	1
8	9	1
23	23	1
61	61	4
107	107	3
119	120	3
42	42	1
14	14	3
40	40	6
87	97	2
87	87	9
134	134	6
32	126	1
66	67	2
9	76	1
4	5	3
55	55	3
97	97	4
12	129	2
99	99	5
19	30	3
31	31	3
82	82	3
131	131	6
49	49	2
50	55	2
69	70	1
13	16	1
108	108	8
35	35	2
97	124	3
97	98	2
9	10	4
91	92	3
30	31	1
56	56	10
32	33	3
130	132	7
8	117	2
47	58	1
75	76	5
77	77	6
8	8	2
90	90	7
100	126	1
90	93	2
87	96	2
28	50	1
123	123	3
15	38	3
68	69	2
100	100	3
20	20	1
27	27	6
26	26	6
11	11	8
17	18	2
10	10	1
117	118	2
70	92	3
94	94	2
13	14	4
84	85	9
9	120	2
44	73	1
71	72	1
36	36	8
35	40	4
35	36	1
41	55	6
124	125	3
93	94	2
59	60	3
68	105	2
46	93	2
24	25	9
41	42	1
54	55	4
125	125	3
21	21	6
63	63	2
80	81	3
51	79	2
2	2	1
95	95	3
80	101	2
46	47	1
23	24	2
32	49	1
15	16	3
74	74	1
70	70	2
67	69	1
28	29	2
12	73	1
12	20	1
25	26	2
98	99	2
7	20	1
5	6	1
98	98	3
1	1	3
109	109	4
111	112	1
6	7	3
31	32	1
100	124	1
108	109	1
61	95	1
5	5	3
83	83	3
56	80	3
76	76	2
19	19	3
114	115	1
88	88	2
93	93	3
120	120	2
16	17	4
3	5	3
18	18	3
19	20	1
63	71	3
22	26	3
3	4	2
33	73	1
113	114	2
105	105	1
13	29	1
20	77	1
9	9	3
124	127	1
91	104	1
100	101	1
62	91	1
10	11	2
56	58	1
95	103	3
80	106	2
37	37	1
121	122	1
8	75	2
57	62	1
1	19	2
18	19	1
11	12	1
106	127	1
27	28	1
57	57	2
101	127	1
43	44	1
0	0	1
74	80	1
31	42	1
58	58	1
2	3	1
38	38	1
119	123	2
35	49	1
3	67	1
45	70	1
61	63	1
100	113	1
68	75	1
32	32	2
14	15	1
61	70	1
109	131	1
104	105	1
57	58	1
46	59	1
115	122	1
22	22	1
45	67	1
110	126	1
114	131	1
39	40	1
87	104	1
21	29	1
