35	35	5
41	42	7
65	65	10
31	76	5
73	73	11
51	52	3
28	29	8
61	61	6
44	62	1
49	49	13
8	14	1
36	36	8
61	62	8
43	43	16
63	63	10
9	33	4
0	1	2
0	72	2
2	2	13
18	18	5
20	21	1
38	38	13
76	76	10
5	5	12
20	20	5
1	77	3
41	70	5
72	77	1
36	37	6
3	23	2
63	64	5
25	28	4
1	1	5
62	62	9
62	63	4
34	34	4
21	21	5
23	24	5
30	30	11
25	38	2
56	56	11
44	44	4
55	76	6
53	53	10
28	28	15
1	2	2
56	58	3
10	10	12
5	8	3
33	34	3
34	36	4
68	75	1
23	23	12
35	36	4
65	66	4
3	3	10
53	68	1
40	40	15
57	57	10
7	7	8
18	19	2
50	50	4
58	61	4
27	28	3
39	40	2
24	25	3
41	41	8
23	70	3
24	24	15
2	3	4
33	33	5
54	54	9
5	21	6
52	52	7
57	61	1
72	72	9
65	75	1
9	9	11
51	58	2
13	19	1
27	27	7
36	38	5
51	54	7
36	39	3
1	4	2
39	39	9
58	64	1
30	67	2
12	13	6
56	57	5
4	5	2
44	45	2
58	58	4
12	12	9
55	56	2
59	59	17
25	26	6
30	31	3
67	67	3
6	6	7
23	26	4
47	48	5
68	68	4
48	48	9
38	39	2
5	44	6
13	34	3
10	21	6
65	67	2
69	74	3
64	64	3
25	25	8
43	45	2
51	69	2
32	76	1
36	40	3
34	39	2
42	42	14
4	8	4
48	49	3
32	43	3
47	66	4
47	47	5
1	45	2
50	58	1
11	13	1
11	11	2
0	0	5
29	29	6
24	26	2
56	62	4
70	71	3
22	22	3
60	60	5
32	32	11
46	47	4
10	12	2
35	50	1
31	31	10
59	61	2
22	25	1
66	66	2
2	45	1
19	19	4
55	55	7
46	46	11
74	74	3
8	57	3
3	56	3
53	54	1
19	21	4
11	12	1
20	49	1
20	40	3
58	59	4
69	69	10
75	75	2
18	60	1
64	74	1
71	71	6
70	70	5
4	4	8
13	14	2
51	51	2
39	53	1
6	7	6
33	61	1
64	67	2
4	71	2
19	20	1
12	37	3
3	57	1
26	26	8
6	8	3
48	70	3
33	65	1
23	72	1
55	57	1
52	53	2
29	67	1
45	46	1
23	25	2
13	35	1
37	37	1
61	63	2
74	75	2
54	60	2
75	76	3
8	8	1
3	8	5
19	50	1
53	69	1
24	71	1
35	38	2
45	45	2
3	55	2
57	58	3
22	72	1
48	51	1
0	22	2
77	77	1
45	61	1
26	27	1
13	13	1
31	64	2
22	24	1
34	38	4
42	76	1
22	23	1
51	57	1
46	48	2
64	68	1
66	67	2
2	4	1
59	60	1
29	30	1
20	71	1
51	53	1
36	42	1
72	73	1
58	63	1
50	69	1
