90	90	14
78	91	4
123	130	2
25	25	5
18	21	1
114	114	7
78	90	1
110	110	1
48	58	1
122	122	12
159	160	2
38	38	13
87	87	5
8	148	2
13	13	3
80	87	5
6	63	3
2	2	14
0	0	5
146	146	5
82	87	2
5	5	16
130	130	4
94	95	2
90	91	1
114	116	5
76	76	6
142	143	8
24	24	3
66	66	6
116	170	8
15	15	9
47	49	1
139	140	2
135	136	10
56	56	12
126	126	1
91	91	6
106	107	4
27	27	14
3	3	10
131	131	3
64	64	6
111	111	9
23	23	6
146	149	2
121	121	3
58	61	2
123	123	9
88	88	15
6	62	2
72	104	4
138	138	8
40	40	4
167	169	2
72	73	5
10	44	4
124	125	4
165	167	3
11	50	3
3	66	1
109	109	4
169	170	2
34	34	2
162	163	7
40	149	1
0	66	2
168	169	5
134	134	8
52	142	2
50	50	2
103	103	2
17	23	3
8	8	4
120	120	6
7	39	2
21	22	4
16	151	2
4	67	4
135	135	8
106	106	1
14	142	2
114	115	1
164	164	9
99	100	4
154	154	6
165	165	8
10	35	2
55	55	7
139	139	15
112	112	7
17	17	5
79	91	8
36	36	6
125	126	7
129	150	3
69	70	3
83	83	2
143	143	6
40	50	2
77	81	7
137	137	7
12	12	2
20	21	2
63	63	2
74	102	1
11	11	8
119	119	4
155	155	5
83	91	2
79	79	3
49	50	5
40	51	2
9	10	1
39	39	1
42	42	13
43	44	1
103	169	2
55	56	3
36	37	2
167	168	3
108	108	7
100	100	5
48	48	9
152	152	2
89	157	4
63	65	2
14	14	6
157	157	8
116	117	1
35	52	1
41	151	3
107	169	6
136	136	4
68	68	9
159	159	3
156	162	3
65	65	2
128	128	8
167	167	4
78	85	1
97	99	1
46	46	7
77	77	4
71	71	4
163	163	10
101	101	1
141	141	3
78	78	9
70	70	3
168	168	3
4	44	4
119	121	2
77	78	1
80	80	6
26	27	2
125	125	5
110	164	4
93	101	2
134	142	4
80	90	1
70	112	3
8	147	1
11	56	1
44	44	4
98	98	3
149	150	3
109	157	2
149	149	4
81	86	3
18	24	2
164	165	1
105	169	1
93	94	3
7	8	1
52	52	8
53	54	3
4	4	1
56	57	3
122	149	3
77	82	1
40	41	5
120	124	1
45	45	8
107	108	1
74	116	1
19	19	1
26	28	2
9	9	3
86	92	2
62	155	3
44	64	1
54	54	6
111	113	3
95	104	1
51	51	5
67	67	3
81	119	2
22	23	6
166	166	6
39	148	2
81	117	3
140	140	4
18	18	2
49	49	3
2	78	1
78	82	3
110	161	1
43	43	3
142	150	2
126	129	2
121	149	1
152	153	3
53	53	2
142	142	1
38	151	1
70	114	4
78	80	4
87	89	2
105	107	2
93	93	1
97	97	2
122	146	2
96	96	2
65	112	3
105	105	1
126	161	2
1	1	4
147	147	4
75	75	3
2	152	2
51	146	3
101	104	1
124	124	5
72	72	1
82	82	3
85	94	2
79	89	2
130	141	2
42	155	2
86	119	2
92	92	2
22	35	1
158	158	3
150	150	3
9	45	3
153	153	2
130	131	1
119	147	2
65	67	1
37	37	4
13	122	1
95	95	1
64	71	1
104	104	1
132	132	4
14	15	1
18	46	3
41	41	1
76	78	1
118	148	1
151	152	1
118	118	2
129	130	1
156	156	3
22	22	3
108	168	2
101	169	1
34	35	1
105	106	2
118	154	4
16	16	2
3	43	1
1	148	1
7	7	5
70	115	3
99	170	1
6	64	1
7	34	2
95	103	1
74	170	1
50	51	2
127	131	1
83	90	1
160	160	1
6	6	1
73	73	1
140	141	1
27	42	1
90	93	2
11	12	1
50	146	1
109	156	1
129	129	4
133	133	1
49	53	1
109	165	1
20	22	1
85	85	2
15	17	1
56	58	2
89	89	3
3	44	2
115	115	1
79	80	1
156	161	1
156	165	1
86	86	1
109	166	2
121	122	1
2	3	1
28	28	2
44	45	1
69	113	1
113	113	1
110	165	3
10	10	2
84	84	1
47	47	1
35	41	1
