5	5	3
41	41	5
88	88	2
45	45	5
62	98	1
46	46	2
86	86	4
18	29	1
50	50	2
85	85	4
2	5	1
63	64	4
124	132	1
71	101	6
123	124	1
95	96	3
76	76	2
70	70	12
60	60	8
17	19	4
100	100	4
78	78	1
68	68	3
44	45	4
19	106	2
89	89	4
58	82	2
7	32	3
63	63	2
59	82	3
60	130	3
67	96	4
44	110	1
102	102	7
64	70	1
115	115	1
116	117	1
29	29	3
79	79	6
13	14	2
58	73	1
28	30	1
58	58	2
67	67	6
108	108	9
74	74	3
27	108	3
123	123	6
89	90	4
98	103	3
106	106	10
10	10	3
109	125	3
88	91	1
18	108	3
25	25	2
73	99	2
99	99	3
107	107	5
83	83	7
41	88	3
4	43	2
95	95	3
114	115	5
69	77	3
27	28	1
113	125	1
24	32	3
94	94	1
105	106	6
14	16	1
112	112	3
11	11	2
16	16	4
71	94	3
69	69	8
82	82	3
9	9	3
125	126	2
126	126	1
93	93	3
72	99	1
97	97	1
121	132	3
101	101	1
15	15	4
51	51	3
84	84	7
44	79	1
60	127	2
85	86	2
72	72	3
53	53	4
45	48	2
43	43	8
63	66	2
109	113	2
14	27	2
112	113	4
55	55	5
30	30	2
18	18	5
22	24	3
122	123	1
93	94	5
59	59	1
90	90	3
125	127	1
67	68	1
119	125	1
66	77	3
88	89	6
39	107	2
105	113	1
61	99	2
79	80	2
41	42	1
14	32	1
55	119	3
87	87	2
6	12	1
49	49	3
38	38	1
127	128	2
64	64	2
130	131	1
121	121	4
40	109	4
14	14	1
15	16	2
118	119	3
113	114	2
113	113	1
44	44	1
63	118	2
48	96	2
73	73	1
58	104	1
20	20	1
71	71	9
92	92	2
114	120	1
76	77	2
91	91	5
81	83	3
45	46	2
116	116	6
56	115	2
4	41	1
79	104	3
22	22	1
4	6	2
120	120	3
103	103	6
124	124	3
19	19	4
111	111	5
59	69	1
77	77	1
58	83	2
119	119	4
114	114	2
77	98	3
32	32	2
18	27	1
13	13	3
117	117	3
7	7	2
110	110	3
1	1	1
4	5	1
68	75	2
39	59	1
69	71	1
78	96	2
72	101	3
28	28	1
56	79	2
104	104	2
97	98	1
56	56	2
53	56	1
75	97	1
30	31	1
60	61	1
94	95	2
11	12	1
64	106	1
80	104	1
74	101	2
0	0	2
31	64	2
83	85	2
39	39	1
61	61	1
109	115	2
125	125	1
69	99	1
8	85	1
25	122	1
23	23	4
105	105	2
52	53	1
1	4	1
90	92	2
59	83	1
66	66	2
45	80	1
68	71	2
71	77	1
107	128	1
114	118	1
39	66	1
9	80	2
58	59	1
109	109	1
87	88	1
86	89	1
4	4	1
103	130	1
79	83	1
6	7	1
16	70	1
26	32	2
90	91	1
128	128	1
54	54	1
18	21	1
132	133	1
26	28	1
66	68	1
62	62	1
17	17	1
71	76	1
129	129	1
91	92	1
