9	10	4
95	95	9
98	98	7
104	107	10
60	60	12
74	76	4
92	92	8
86	87	5
70	71	2
103	103	10
124	124	14
106	106	11
129	129	8
126	132	2
26	26	11
108	108	17
37	37	20
15	15	15
31	31	6
97	97	11
75	75	7
125	125	13
29	29	11
113	113	10
90	90	10
120	130	1
84	84	8
89	91	3
56	84	3
116	116	4
81	81	10
125	126	6
75	118	1
83	83	15
66	66	25
100	100	7
4	21	2
78	100	1
68	68	11
110	110	9
18	18	21
85	85	16
80	80	4
13	13	11
60	86	5
6	6	7
48	49	2
115	116	3
96	100	8
27	27	16
121	122	5
63	63	19
96	127	2
76	76	24
39	40	2
36	37	5
97	98	4
104	104	7
86	86	14
59	60	5
64	64	20
99	100	8
48	87	2
96	96	18
30	30	5
41	42	5
73	73	18
46	46	9
13	14	11
120	120	9
19	80	1
29	30	11
89	92	1
48	48	8
108	109	6
114	114	2
78	78	11
11	11	8
24	25	1
94	94	7
131	132	8
99	99	12
34	41	1
128	129	6
19	19	8
11	44	2
130	130	5
8	17	2
134	134	6
38	51	5
12	12	16
117	118	4
102	102	5
16	16	12
97	129	2
72	72	28
9	9	15
18	85	2
51	51	5
10	10	15
117	117	13
114	123	2
33	33	13
14	14	11
14	18	6
118	118	11
82	82	5
57	58	3
31	32	1
11	12	6
2	3	2
74	74	8
68	76	4
58	58	4
69	69	6
57	57	12
16	17	2
59	59	14
22	22	7
17	17	11
35	35	6
10	13	2
6	26	2
4	56	3
123	124	3
47	47	11
101	101	3
42	42	7
116	125	3
107	111	3
27	28	6
70	70	8
93	93	19
24	24	21
23	24	3
109	109	3
3	4	4
7	7	8
107	107	13
33	34	2
77	95	3
50	50	3
82	83	4
67	67	18
22	25	4
127	128	1
119	119	15
19	40	2
77	77	20
8	8	14
62	63	4
8	79	2
132	132	14
39	41	2
32	32	9
60	107	3
45	45	11
83	88	2
49	49	3
78	126	2
2	2	7
55	55	8
42	43	2
117	125	3
1	2	2
105	134	2
44	44	11
34	45	1
133	133	6
112	113	5
34	34	20
36	36	3
13	20	3
71	71	11
40	40	6
75	76	6
11	65	2
90	92	9
14	15	1
98	127	1
33	56	2
121	121	6
80	81	1
33	60	3
7	10	6
113	123	1
5	5	4
56	56	11
94	95	4
79	79	6
98	112	1
81	101	1
23	25	2
0	0	7
39	39	4
105	105	5
25	25	2
103	105	2
107	108	3
68	69	1
82	133	2
65	65	5
7	79	1
38	38	4
20	20	5
72	73	3
126	131	3
127	127	2
46	48	2
123	129	3
5	27	1
35	43	2
20	22	2
79	108	1
31	49	4
110	111	1
111	115	2
3	3	6
76	125	3
21	21	10
112	112	8
79	80	3
132	133	2
113	129	5
120	123	3
20	21	5
123	123	7
33	46	1
73	74	2
47	61	1
41	41	6
111	111	5
116	128	1
19	20	3
115	115	7
51	56	2
93	94	2
131	131	3
23	23	8
118	119	2
10	11	2
84	85	2
28	29	3
28	28	5
8	19	1
90	112	2
81	100	2
105	114	1
108	110	3
22	24	1
77	82	1
95	110	1
12	25	3
104	132	1
117	119	4
12	13	3
8	9	1
100	104	2
112	124	1
129	132	1
43	45	1
63	64	1
22	26	3
62	62	4
128	128	5
83	86	1
78	120	1
61	61	11
103	104	2
35	36	3
32	33	2
94	112	1
126	126	5
122	126	2
105	106	2
38	39	2
6	20	1
59	83	2
71	72	4
80	83	1
15	16	3
71	126	2
55	103	1
91	92	3
20	57	3
76	77	2
25	29	1
94	123	1
12	44	1
55	104	1
67	119	1
4	25	1
68	94	1
116	133	1
18	19	3
92	124	2
4	4	1
79	84	1
95	98	2
7	82	2
113	114	1
79	103	3
6	83	1
124	126	2
76	117	2
69	70	4
107	109	2
43	43	6
95	96	1
124	125	3
48	79	1
94	97	1
93	125	2
6	7	4
95	129	1
61	62	1
114	115	2
103	108	2
88	88	3
83	84	2
37	43	1
6	30	3
92	119	1
82	86	2
87	87	1
7	8	1
66	67	1
59	101	1
107	110	1
103	121	1
90	122	2
109	110	2
105	111	1
98	99	2
62	108	1
104	108	3
126	127	2
122	122	1
87	101	1
46	47	1
21	56	3
38	40	1
64	65	3
93	116	1
49	50	2
63	118	1
35	40	1
44	45	1
111	112	2
126	133	1
56	57	2
54	55	1
17	18	2
87	124	1
116	117	2
19	56	1
7	19	1
4	22	1
27	29	2
36	38	1
8	48	1
98	106	1
92	122	2
112	127	1
37	38	1
84	103	1
77	78	2
98	100	1
96	130	2
48	57	1
18	20	2
48	80	1
74	117	2
16	58	2
6	82	2
113	115	1
8	20	1
17	70	1
3	9	1
68	120	1
82	101	1
78	101	1
98	128	1
95	115	2
