84	84	11
107	108	3
81	123	4
39	39	8
109	109	18
36	36	9
134	134	20
20	21	7
74	75	3
35	36	16
102	102	23
30	30	12
130	130	11
26	37	2
91	91	15
21	21	30
56	56	7
6	6	10
12	12	25
0	1	3
111	113	6
84	118	4
115	116	13
114	117	1
88	88	6
78	78	11
51	51	2
77	77	18
130	131	7
4	37	1
4	5	6
99	99	15
105	105	20
132	133	8
122	122	16
120	120	7
91	92	5
104	104	3
39	41	6
125	126	4
62	63	6
121	121	11
84	85	5
22	22	9
92	93	4
76	108	5
19	19	18
13	13	15
115	115	7
19	20	5
58	59	5
58	58	5
87	87	5
5	5	7
98	98	20
5	6	2
127	127	13
65	65	17
111	112	6
73	73	11
24	24	6
127	132	4
117	117	13
34	34	15
125	125	16
89	89	7
98	103	4
45	45	12
85	85	13
13	14	6
127	128	5
75	84	1
75	111	2
62	62	18
69	70	2
63	63	6
111	111	14
4	35	4
110	110	4
109	110	2
9	10	5
112	112	10
70	70	10
33	33	6
0	0	15
27	28	8
112	113	6
35	35	11
24	25	4
97	97	18
42	43	10
22	29	4
90	91	1
95	95	9
91	104	4
128	129	12
66	68	5
92	92	10
23	24	5
11	19	5
129	129	11
96	96	8
36	80	3
10	10	28
43	44	1
75	75	6
39	109	1
48	48	5
18	20	5
82	82	10
86	86	6
131	131	12
94	94	10
90	90	6
2	2	4
18	19	6
22	25	1
25	25	11
60	61	4
35	38	4
116	117	9
97	98	9
113	115	4
106	113	1
108	109	4
110	111	9
5	38	9
44	45	4
8	9	1
38	38	8
56	60	5
27	29	1
16	16	5
71	72	2
50	50	13
25	26	3
128	128	11
56	58	10
102	103	8
81	81	12
77	79	1
77	84	1
15	15	8
9	9	19
97	100	3
60	60	7
92	113	1
23	23	8
79	79	8
37	37	9
11	12	8
114	114	9
96	97	9
80	80	10
2	9	4
5	34	5
34	38	1
75	117	2
92	104	1
101	101	14
83	109	4
17	17	2
59	60	2
76	76	13
82	110	2
38	79	5
26	40	3
7	7	7
51	56	2
18	18	12
95	97	4
56	57	6
40	42	3
26	29	6
90	104	2
38	39	1
29	29	5
8	8	7
26	26	16
20	20	7
104	105	3
78	79	4
106	106	9
40	40	8
4	4	5
47	47	6
100	100	8
71	73	2
124	125	6
44	44	7
59	59	6
32	33	9
92	114	4
12	13	3
82	83	3
93	94	4
72	72	6
90	115	9
3	3	8
21	22	8
11	11	11
112	115	7
126	126	11
119	120	7
57	59	5
73	83	3
5	37	1
43	43	11
28	28	3
66	66	11
76	82	2
86	87	4
99	100	10
27	27	9
61	61	8
86	121	3
57	57	4
32	42	3
92	116	2
85	119	1
133	133	9
74	74	3
30	72	3
58	105	3
67	68	2
64	65	5
36	37	5
59	105	2
103	104	1
104	106	7
32	32	14
123	123	10
31	31	7
14	15	2
67	67	7
13	24	4
5	7	1
20	23	2
72	78	5
119	119	13
1	1	1
30	38	3
118	119	3
17	43	5
34	36	4
71	81	1
124	124	5
71	71	7
101	102	4
5	26	1
28	40	1
49	50	4
123	125	1
94	95	2
87	129	5
26	27	2
29	33	1
3	26	1
88	89	1
36	79	4
3	35	1
89	113	3
81	82	6
118	118	8
120	128	7
36	77	2
42	109	6
93	93	1
82	121	2
90	103	2
117	118	1
29	34	5
57	61	1
131	132	3
83	83	4
76	118	2
16	17	2
32	40	1
41	41	3
1	8	3
22	42	1
17	18	1
68	69	3
11	23	2
42	42	2
98	99	2
120	121	1
82	109	1
83	87	3
75	76	3
122	128	4
116	116	2
103	103	8
132	132	1
72	77	4
21	28	2
14	132	3
43	108	1
46	46	8
76	107	1
113	113	5
14	14	4
108	108	1
20	22	2
64	64	5
55	58	4
121	122	6
57	60	2
40	41	2
48	49	1
126	128	2
57	58	3
35	37	2
77	78	2
122	124	1
63	64	3
91	106	1
14	16	2
19	21	2
17	19	2
2	33	3
92	106	2
109	111	1
112	114	2
3	6	2
24	27	1
28	31	2
105	106	1
66	67	1
4	36	4
88	110	4
39	40	2
89	116	1
31	33	1
44	46	2
65	66	2
6	7	1
107	107	1
30	40	2
79	80	2
30	34	2
14	23	2
41	42	3
35	77	1
88	111	1
97	101	1
48	50	4
28	29	2
0	3	3
32	45	1
9	11	2
76	84	1
87	121	1
2	8	1
91	103	1
128	131	1
122	123	1
