36	36	6
9	17	4
102	102	8
13	14	4
11	11	4
16	16	9
125	125	8
56	68	3
127	127	7
110	110	6
128	130	5
89	90	3
134	134	6
18	18	5
81	82	1
11	12	2
52	53	5
100	101	4
132	132	3
0	1	1
12	12	14
116	116	3
83	84	6
8	9	1
39	39	7
150	150	8
15	15	3
73	130	1
25	25	11
3	4	3
130	130	2
111	111	5
26	26	7
67	153	1
117	117	3
54	54	9
38	39	4
123	123	2
71	71	5
104	105	4
112	112	4
0	0	9
114	114	3
151	151	20
145	146	7
42	42	3
73	73	9
38	38	13
22	24	1
84	86	3
30	81	1
129	129	7
84	157	1
2	3	1
7	7	3
140	141	2
96	97	1
147	147	7
81	81	9
141	141	2
85	85	3
91	122	4
22	22	9
37	55	2
107	108	4
106	107	9
14	14	2
80	80	7
147	149	2
47	48	2
130	131	5
75	75	8
13	15	7
118	118	2
33	36	2
101	101	3
54	55	3
140	140	5
91	91	3
76	77	2
76	76	2
113	114	2
32	32	2
108	109	3
98	98	4
108	108	6
46	46	3
30	47	1
82	82	2
11	16	1
83	83	6
9	10	3
18	20	3
21	21	2
29	29	10
148	148	3
135	135	6
67	70	4
78	78	8
144	145	4
100	100	7
115	115	2
13	13	6
67	71	1
79	79	9
141	145	6
5	6	2
19	20	1
133	133	4
79	82	1
33	33	3
17	17	5
51	51	8
128	128	9
69	69	7
93	94	1
27	28	2
154	154	4
110	111	1
86	86	3
70	71	3
62	62	1
92	92	12
46	53	6
122	122	6
119	120	2
125	126	2
156	156	7
32	33	4
25	26	2
132	133	7
31	46	4
64	64	3
65	65	5
44	45	2
144	144	6
8	10	2
11	13	2
66	66	3
45	124	2
138	139	6
132	135	1
24	27	4
105	105	4
43	43	4
107	107	2
34	34	3
80	81	1
151	152	1
142	142	4
2	2	6
4	4	5
106	125	1
131	133	2
136	153	2
131	131	8
88	88	2
99	99	3
41	43	1
61	62	1
45	45	2
41	41	2
28	28	6
103	103	5
158	158	6
75	80	1
40	43	1
20	20	2
120	120	5
38	45	1
116	128	1
124	125	1
28	29	6
129	130	4
32	55	3
87	88	2
23	24	2
152	152	1
139	139	1
106	156	1
51	122	1
29	30	1
88	89	3
9	9	4
155	155	3
150	151	2
53	54	1
90	90	2
146	146	2
94	94	3
97	99	1
47	47	1
67	67	1
148	149	1
69	70	1
123	124	2
8	8	2
120	121	2
89	89	3
22	23	3
42	43	1
95	96	2
43	44	2
68	68	2
29	82	4
44	44	2
17	18	1
104	104	2
94	95	1
91	92	2
5	5	4
66	96	1
143	147	1
128	131	1
77	77	3
30	30	5
72	73	1
35	35	1
64	158	2
48	50	2
37	37	2
146	148	4
72	72	1
57	154	1
114	149	1
33	35	1
41	125	1
116	127	2
25	75	1
137	137	1
48	48	3
23	23	2
112	120	1
112	149	1
10	16	1
27	75	1
46	47	1
21	23	1
47	50	1
49	50	1
93	93	2
142	143	1
6	6	1
24	24	1
68	136	1
132	134	1
131	155	1
5	69	1
137	138	1
96	96	1
23	27	1
