153	160	13
106	107	2
35	39	2
26	26	3
125	172	3
100	100	8
79	79	19
179	179	9
57	146	9
5	6	5
61	61	14
148	148	15
72	72	20
121	121	22
10	10	8
92	92	22
17	17	8
154	155	4
60	174	2
164	164	17
24	24	14
130	159	5
106	106	6
56	67	2
77	77	20
87	88	10
117	118	5
149	149	12
22	22	4
65	65	16
17	32	2
179	180	7
35	35	9
106	124	3
132	132	18
43	43	15
16	31	5
76	143	5
125	125	20
128	162	1
36	37	3
34	35	5
14	14	10
166	166	15
81	81	11
119	119	10
143	152	1
168	170	1
83	114	1
75	75	20
120	146	7
174	174	14
14	30	1
72	147	4
1	1	9
129	130	1
12	19	4
177	177	10
140	140	19
98	106	3
56	84	3
62	63	5
160	160	7
178	178	12
64	64	13
44	111	4
64	123	2
13	13	7
108	108	11
97	98	6
141	142	6
163	164	3
118	120	5
91	91	11
152	155	2
144	144	10
37	40	5
130	130	11
42	43	6
82	82	13
37	37	6
24	25	3
33	40	3
43	44	8
91	92	7
109	109	7
122	123	4
104	104	15
85	85	8
112	113	8
108	110	4
172	172	11
96	97	4
119	120	4
142	143	2
89	89	20
86	86	9
141	141	13
122	173	3
133	133	1
114	114	15
123	123	8
50	51	8
129	163	3
122	122	16
138	138	17
161	167	2
54	54	5
57	81	2
130	165	2
88	88	27
42	42	12
93	93	8
165	165	6
146	146	7
39	45	4
26	27	5
74	76	7
153	154	5
112	112	5
96	96	12
71	72	3
102	102	17
3	3	11
104	105	7
138	139	7
104	106	6
28	29	1
40	40	8
14	32	4
87	87	16
61	177	2
124	124	8
161	163	2
143	143	10
144	147	1
154	154	24
162	162	14
159	159	16
83	83	5
16	16	15
167	169	3
62	62	4
111	111	9
110	110	9
0	1	4
52	53	8
29	29	4
7	10	9
150	151	1
4	11	5
56	82	2
160	162	3
105	105	5
73	74	3
171	171	8
33	33	4
66	68	3
135	135	4
142	142	11
155	155	12
9	9	8
89	90	1
117	117	15
128	161	3
124	171	5
95	95	10
90	90	16
153	159	13
149	158	2
150	159	2
128	160	13
64	65	1
1	2	4
105	106	5
28	28	1
2	4	11
52	52	13
136	137	2
82	112	3
66	66	17
73	144	4
53	54	6
71	71	22
80	80	15
176	176	16
8	8	12
116	116	8
98	99	2
113	113	14
16	21	2
54	114	2
151	160	6
133	134	4
147	147	4
150	150	18
111	112	6
120	120	3
150	174	2
76	76	12
60	61	3
8	19	4
56	57	7
81	82	5
80	81	3
56	56	6
131	131	9
37	43	5
121	122	7
8	18	1
11	15	1
139	176	3
14	21	2
127	171	5
148	154	6
57	58	2
91	116	5
60	60	13
169	169	6
72	74	9
102	103	4
9	10	2
30	30	4
5	5	7
32	32	6
38	38	12
161	169	2
10	44	3
73	73	17
51	51	7
115	115	12
105	125	3
35	36	2
39	40	5
139	165	1
2	2	9
168	168	12
31	31	15
36	41	3
123	125	3
86	87	2
158	158	14
134	134	5
59	174	6
126	126	8
143	144	2
62	122	2
112	132	4
107	107	14
123	124	3
2	14	5
101	101	5
99	108	2
15	16	3
72	104	1
52	115	1
16	24	2
6	42	1
64	126	2
127	160	1
98	100	1
173	173	5
79	89	2
33	38	2
27	27	8
105	117	1
131	164	4
34	34	10
55	55	17
92	93	4
5	32	2
51	114	2
163	173	2
25	25	10
7	8	4
67	67	4
132	169	1
68	68	13
157	157	2
136	136	1
135	144	5
153	153	13
106	117	2
108	116	2
61	116	3
137	139	2
131	168	2
165	166	5
6	10	2
156	157	4
97	97	6
45	45	6
131	141	3
121	173	1
71	130	1
103	103	8
110	113	4
128	140	4
93	94	3
16	17	5
62	120	2
157	158	7
41	41	14
4	4	5
11	45	2
14	15	2
127	127	10
167	167	2
93	100	7
110	111	6
19	19	4
36	36	23
108	109	14
129	129	9
83	85	3
34	44	2
44	45	5
37	41	4
57	144	1
57	57	10
17	31	6
74	74	4
173	174	2
132	133	1
9	44	3
93	99	2
6	6	6
92	96	1
0	0	6
163	163	5
18	18	6
55	56	3
74	78	2
130	139	8
55	82	2
15	15	2
9	14	1
89	106	3
66	67	5
118	118	7
151	153	1
107	109	1
25	26	3
60	120	4
94	94	2
152	163	3
59	60	1
81	113	6
108	112	2
68	70	2
21	28	3
75	76	1
7	7	4
148	151	1
168	169	2
54	112	2
21	21	1
156	156	9
25	30	1
58	58	2
152	157	2
170	171	2
60	154	1
133	135	1
93	98	1
15	17	1
18	19	1
22	23	3
156	158	1
58	59	1
54	107	2
70	130	1
93	114	2
131	132	1
23	24	1
128	128	3
95	96	5
108	115	4
38	41	1
83	84	4
159	160	2
144	145	4
33	34	2
143	145	2
142	154	4
59	59	4
163	170	1
61	120	4
155	156	1
60	118	1
164	167	1
139	139	12
15	20	4
42	75	2
104	107	3
137	137	10
170	170	2
163	168	3
131	143	2
115	116	3
78	78	3
151	152	1
41	42	1
82	144	2
44	44	7
151	151	1
78	79	4
145	145	6
11	11	3
24	30	1
153	158	1
126	127	3
36	40	1
2	3	4
17	21	3
32	33	3
22	29	1
152	152	2
121	126	1
80	145	2
161	161	6
148	159	1
167	168	3
121	146	3
59	63	3
126	175	1
50	50	1
174	175	1
100	103	1
60	141	1
101	102	1
39	39	5
72	148	1
74	77	2
165	167	2
158	159	4
105	124	1
172	173	4
167	170	6
0	17	2
114	115	2
84	84	3
44	108	2
152	153	2
79	80	2
22	32	2
114	116	3
8	11	2
23	23	1
12	12	1
94	95	2
149	159	2
106	108	1
118	125	1
151	162	1
91	93	3
18	24	2
6	19	1
103	107	2
117	179	1
141	145	1
131	167	1
154	156	1
91	96	1
131	160	1
180	180	1
56	72	1
146	147	1
175	175	4
164	165	5
39	41	4
119	121	1
63	63	3
72	146	1
29	30	1
149	174	1
98	98	3
134	145	2
138	145	1
35	40	1
177	178	1
1	14	2
32	38	1
71	142	1
175	176	1
71	173	1
99	99	3
30	31	2
67	68	1
35	38	1
155	157	1
94	97	2
54	102	1
113	132	1
140	146	1
24	51	1
177	179	2
70	70	2
101	110	1
167	172	1
110	137	1
163	167	2
135	142	1
99	100	1
100	106	1
175	178	1
129	151	1
159	162	1
65	123	1
54	56	2
160	161	1
152	161	1
99	101	1
109	110	2
14	31	2
103	104	2
116	117	1
127	128	1
129	157	1
135	145	1
90	95	2
56	73	2
74	75	2
138	141	1
25	31	1
90	106	1
38	39	1
10	32	1
4	14	1
56	118	1
72	155	1
139	171	1
40	44	1
96	98	1
