123	123	17
60	61	11
134	134	8
36	36	25
41	57	3
20	20	9
79	81	5
85	87	1
61	61	23
103	103	16
11	13	2
118	118	16
29	29	21
124	124	9
3	55	2
78	78	17
75	75	20
113	114	2
106	106	13
16	18	1
23	23	10
131	134	9
10	11	1
15	38	3
110	110	13
105	113	3
21	21	19
23	24	7
46	47	7
92	92	9
5	5	12
33	33	27
69	69	6
62	62	6
87	117	4
121	121	11
9	10	6
40	58	1
28	28	10
77	77	11
114	115	5
114	117	16
96	96	9
34	35	5
122	122	7
35	35	5
45	45	13
16	16	13
10	10	10
32	33	10
79	79	5
49	56	3
108	108	4
11	11	8
129	131	4
38	72	1
17	17	18
93	93	5
92	93	11
94	95	7
117	117	3
70	71	9
87	114	1
112	113	6
108	109	2
6	6	10
115	115	9
3	3	9
44	48	1
104	110	2
44	44	9
120	122	3
32	32	21
91	91	9
85	85	4
38	40	8
18	18	4
14	14	21
0	0	12
39	55	3
129	134	3
83	86	7
88	89	8
35	39	2
41	41	9
19	19	22
70	70	8
44	45	4
40	56	3
111	111	22
78	79	7
86	87	4
27	30	8
86	89	5
128	129	1
89	89	4
0	68	2
99	101	5
91	125	6
40	42	2
88	88	5
126	126	6
28	34	6
131	131	12
114	114	6
91	92	17
103	105	3
22	22	14
4	5	2
101	101	5
74	74	11
129	129	5
126	127	7
125	125	13
66	66	8
132	132	9
25	25	12
13	15	3
83	106	8
97	98	3
37	37	15
40	40	9
21	27	1
99	99	7
10	12	2
2	42	3
57	57	3
80	80	11
100	101	8
46	46	8
107	107	9
98	98	9
102	105	3
104	104	15
78	81	3
55	55	6
76	76	13
112	116	8
19	26	3
14	15	9
127	127	2
92	118	2
109	110	4
63	70	2
95	96	9
42	44	2
102	104	6
81	81	3
8	9	3
12	12	9
47	47	9
128	128	7
120	121	5
130	130	7
60	60	5
121	126	2
119	119	8
13	13	9
19	27	2
112	112	6
72	72	3
121	122	11
123	124	2
112	114	2
125	126	1
69	72	4
1	77	3
38	39	3
100	100	2
71	71	2
7	7	3
21	22	2
15	15	13
13	38	6
120	125	6
27	29	1
62	64	1
1	1	8
104	105	2
41	42	4
87	112	2
115	116	7
36	37	6
119	121	2
81	83	2
42	42	6
57	59	4
113	113	16
86	86	5
73	73	7
16	17	9
26	28	1
68	68	8
9	9	4
43	43	16
132	133	1
131	132	4
64	68	5
120	120	3
28	32	1
59	59	6
26	27	3
95	99	1
117	118	2
125	127	2
36	38	2
3	44	2
27	27	17
82	82	8
86	88	3
8	10	9
58	59	1
40	41	1
57	58	2
93	95	1
97	101	1
58	58	9
30	30	4
102	112	1
73	74	1
22	24	4
102	102	6
49	50	2
1	78	1
96	97	3
5	80	2
43	45	2
24	26	3
90	125	1
124	127	3
133	133	3
4	40	1
84	85	3
11	12	3
94	94	1
37	41	5
87	113	1
87	88	7
18	32	3
120	124	4
39	40	5
77	80	2
86	95	1
3	4	2
13	14	1
83	85	1
116	116	4
90	93	5
7	8	2
34	48	6
26	26	2
90	91	3
43	44	2
106	113	1
67	67	4
35	36	4
34	36	2
83	83	10
6	123	2
65	65	7
102	116	4
126	128	2
48	48	2
82	85	9
38	41	2
39	39	2
34	34	7
30	35	1
19	20	4
69	70	1
17	18	1
97	97	9
31	32	2
6	7	2
76	80	2
37	38	5
65	69	4
81	88	1
4	4	2
8	8	4
65	67	3
38	38	1
120	126	1
10	13	3
9	45	2
16	34	2
101	102	3
28	30	3
63	63	1
19	21	1
88	91	3
12	40	1
29	31	1
90	92	9
103	104	3
130	131	4
18	33	1
6	124	2
37	39	5
20	21	5
132	134	3
102	115	3
23	25	3
78	86	2
105	105	6
2	2	6
2	3	2
90	94	2
5	6	3
33	35	1
51	56	1
66	68	1
24	24	3
116	117	1
29	36	2
68	72	1
64	70	4
77	78	1
62	63	3
127	128	4
82	83	2
55	56	2
71	72	1
48	50	2
105	114	1
99	100	2
45	100	1
100	102	1
25	26	1
56	56	4
17	32	1
97	99	2
84	86	3
50	58	1
64	64	2
101	116	1
90	98	1
62	71	1
56	57	2
24	25	1
89	95	2
61	62	3
66	70	3
104	112	3
49	49	2
84	84	1
75	76	1
42	56	1
107	109	3
3	42	3
94	128	1
13	39	2
126	129	1
77	79	1
104	106	1
45	48	1
98	100	2
35	56	2
90	90	1
76	77	1
87	87	1
76	78	1
31	31	1
94	97	1
8	13	1
119	120	2
17	33	1
18	19	1
15	31	1
48	49	1
89	93	1
16	36	1
89	90	1
131	133	1
97	100	1
41	43	1
41	55	1
92	120	1
48	60	1
