74	76	2
2	4	5
112	112	11
97	99	1
89	89	11
2	2	11
96	96	2
34	34	10
91	92	11
14	16	1
93	93	3
31	32	8
22	24	4
32	38	4
4	5	3
91	91	2
22	23	8
78	78	7
25	25	12
9	9	7
140	140	2
138	138	5
1	1	3
88	88	2
102	102	10
76	118	1
27	27	3
130	130	11
72	73	8
12	15	1
73	73	9
20	20	5
18	19	12
107	108	3
94	95	2
125	125	3
116	116	9
114	115	4
114	114	6
136	136	16
4	4	1
4	99	5
35	35	19
7	8	4
18	18	8
32	32	8
124	124	14
105	105	2
111	111	10
3	4	3
115	115	6
19	19	5
31	31	5
123	123	8
74	74	6
139	139	10
13	13	7
5	98	1
77	77	7
8	8	3
113	114	5
33	33	12
101	117	1
103	103	9
7	7	8
128	128	7
72	72	11
122	122	7
74	91	1
131	131	7
75	75	8
95	95	5
17	19	1
98	98	7
101	101	12
99	100	5
108	121	2
22	22	1
7	9	3
94	94	3
10	37	2
127	127	6
10	10	3
26	26	5
80	81	4
104	121	6
24	25	7
16	27	4
37	38	3
81	81	1
79	118	1
76	76	7
121	121	11
110	110	5
90	90	2
75	77	2
119	119	8
107	107	3
97	123	5
11	11	8
23	23	7
129	129	6
0	2	3
132	132	3
108	108	3
77	122	1
100	100	2
77	119	2
76	78	3
126	129	2
104	108	2
17	18	1
137	137	1
36	100	2
20	27	1
12	13	1
38	38	4
17	20	2
28	31	2
25	26	4
80	80	2
6	6	2
23	24	3
132	133	2
36	36	5
107	115	8
37	37	4
117	117	3
6	7	1
34	35	3
12	12	3
131	132	2
82	82	1
120	120	6
16	16	1
1	2	3
87	88	1
5	5	1
86	86	8
36	37	1
29	30	1
113	113	2
134	134	9
118	118	5
124	132	2
133	133	2
87	87	5
86	90	1
19	27	1
109	109	7
26	27	2
120	121	2
126	126	3
83	84	2
118	119	1
123	124	3
127	129	1
79	79	4
109	122	1
111	112	3
24	24	5
79	80	6
3	3	3
74	75	2
8	18	1
17	17	1
116	117	3
17	27	2
29	29	3
34	105	3
78	79	3
110	111	1
5	8	1
99	99	2
78	82	1
102	103	1
18	38	2
19	20	1
4	6	2
11	12	1
130	132	1
84	85	2
100	101	1
34	107	2
0	1	1
110	112	1
102	104	1
106	106	1
101	102	1
85	85	2
114	127	1
15	16	2
14	14	1
18	22	1
86	87	1
109	124	1
1	3	1
90	91	1
83	83	1
21	22	1
97	97	1
83	90	1
