137	137	3
8	9	1
58	58	1
95	98	3
54	70	5
26	136	1
56	74	2
82	85	1
139	146	2
11	19	2
56	76	3
130	130	6
100	139	7
37	37	1
127	127	1
31	33	2
120	120	3
17	32	3
88	112	4
97	115	2
110	129	2
81	81	1
63	63	5
52	93	4
113	135	3
89	89	2
144	144	7
0	2	2
89	104	2
101	101	7
137	138	6
122	144	5
63	67	3
63	64	2
128	130	2
3	3	2
1	19	4
24	39	1
5	10	6
74	74	4
81	92	2
106	125	1
142	142	2
25	27	1
119	125	2
23	139	1
129	130	2
62	75	1
83	97	1
1	5	1
71	71	4
123	123	2
14	14	4
125	125	1
25	41	3
14	39	4
26	33	2
53	58	4
28	28	1
52	77	2
15	24	1
80	80	5
102	102	1
17	33	2
38	38	6
100	100	6
66	83	2
41	41	7
90	90	1
62	80	2
49	63	2
6	18	1
83	91	3
127	143	1
10	10	2
63	68	1
53	76	4
118	118	4
75	92	5
68	80	1
71	99	1
137	143	3
102	131	3
98	100	1
87	87	3
132	132	1
119	120	3
35	35	4
119	119	4
134	134	4
116	130	2
108	112	3
61	62	2
80	127	2
6	65	1
133	133	3
100	110	1
135	139	2
66	100	2
132	143	1
49	49	2
4	4	1
29	43	1
42	65	1
96	96	1
79	83	3
35	40	1
29	29	4
73	81	1
50	57	1
136	145	1
30	30	2
69	69	2
2	2	3
106	116	1
99	115	4
11	11	2
55	55	4
110	128	1
143	143	1
35	39	1
114	115	1
25	40	1
65	78	2
94	101	1
110	127	1
53	59	2
67	67	3
82	88	1
69	90	3
136	136	1
133	140	2
9	11	1
23	96	1
9	9	1
20	34	2
9	13	1
87	98	1
139	139	1
97	114	1
16	18	2
96	108	2
95	108	1
34	37	1
38	42	1
106	106	3
79	90	1
123	145	1
105	130	2
47	59	2
34	34	1
25	25	4
67	86	1
15	20	1
83	83	2
109	113	1
96	97	1
100	113	1
13	35	2
129	129	3
60	60	1
54	60	1
105	105	1
31	31	2
77	94	1
68	100	1
124	124	2
8	15	1
72	85	1
70	91	1
47	48	1
11	16	2
109	139	1
113	130	2
27	29	1
8	29	2
125	145	3
141	141	1
80	93	1
82	84	1
54	54	3
97	97	1
131	131	3
11	13	1
16	33	1
32	32	1
98	130	1
79	111	2
64	65	1
95	95	1
90	104	1
55	57	1
70	76	1
79	79	2
133	145	1
6	36	1
98	111	1
10	42	1
114	114	3
15	16	1
91	91	1
17	19	1
1	1	1
5	26	2
95	111	2
72	75	1
69	84	1
14	28	2
103	123	2
104	106	2
116	134	1
63	71	1
70	72	1
118	133	1
37	64	1
117	117	1
84	85	1
57	58	1
77	115	1
128	128	1
50	59	1
130	132	1
66	75	1
86	89	1
128	136	1
105	120	1
117	135	1
