65	66	8
114	116	5
86	86	10
9	9	19
114	136	2
68	68	12
97	98	8
25	31	2
80	144	4
80	142	1
66	66	4
131	131	19
84	84	17
139	139	22
69	94	6
12	12	10
20	21	3
118	118	20
87	92	1
14	14	15
68	106	3
154	154	12
96	96	11
79	79	8
130	130	23
95	95	13
36	36	10
10	10	6
22	22	4
111	111	8
53	53	7
115	115	14
20	20	11
127	127	9
147	147	5
128	128	13
30	43	1
129	129	8
3	3	4
73	73	15
119	120	4
93	93	9
122	123	3
128	130	3
36	37	10
122	122	11
13	13	6
47	47	19
82	82	6
95	96	6
67	67	13
114	114	9
128	129	4
69	69	10
119	119	11
42	42	17
48	48	14
142	142	6
35	36	4
11	11	16
136	136	23
121	121	3
134	134	13
85	86	3
113	113	21
141	153	4
5	5	8
30	30	6
48	110	3
100	100	12
108	108	8
79	151	2
62	62	10
112	112	8
135	135	10
15	15	14
26	26	7
26	27	2
149	149	30
42	43	6
29	29	14
50	51	2
35	35	6
21	21	19
39	40	2
3	11	3
78	81	1
52	52	5
40	47	1
98	98	7
18	18	21
75	81	3
137	137	9
128	148	2
135	138	1
132	132	13
143	143	9
6	7	5
114	115	1
85	85	16
18	19	4
140	140	5
5	55	6
125	127	5
68	69	3
115	137	8
19	19	13
107	108	3
74	74	7
49	55	3
16	16	16
122	141	3
20	109	4
124	124	21
117	117	11
109	110	4
26	43	1
24	113	3
6	6	11
7	7	3
77	77	25
120	122	4
27	27	3
4	42	2
49	49	14
96	97	8
83	83	14
141	141	10
66	67	3
131	133	5
76	78	4
64	65	7
17	17	14
38	38	7
2	2	2
80	93	4
37	37	11
94	94	8
8	50	3
103	103	13
39	39	5
153	153	16
139	148	9
117	118	2
50	50	6
55	55	2
99	99	7
30	31	1
4	5	4
63	63	16
25	32	1
144	151	4
24	112	2
116	117	8
108	111	1
4	55	1
41	41	17
104	104	7
54	54	6
124	125	8
109	109	19
71	71	15
4	4	5
106	106	6
25	25	3
150	150	11
28	28	9
133	133	20
64	64	7
10	11	1
28	44	1
100	101	3
84	85	8
41	42	5
103	110	1
51	51	4
17	120	3
140	144	3
100	119	2
84	86	4
77	96	4
49	150	4
102	136	1
5	56	1
110	110	7
144	145	2
88	88	3
54	56	2
15	16	5
81	82	4
40	40	8
11	12	5
88	89	1
28	29	3
123	123	10
107	117	1
63	75	2
72	72	9
145	146	8
6	8	1
21	22	1
108	109	1
23	23	16
120	120	8
83	84	3
86	149	6
30	52	2
78	78	4
100	122	4
76	76	5
23	27	4
24	24	9
43	43	15
111	112	1
46	46	2
29	44	1
97	97	9
136	137	2
151	151	11
140	142	3
129	130	5
133	134	4
116	116	10
102	102	4
5	7	7
71	72	7
147	148	1
146	146	4
69	70	9
64	90	2
67	100	2
45	46	2
27	28	1
38	39	6
2	50	4
75	75	2
45	45	7
86	150	4
128	139	1
42	50	1
151	152	3
32	32	10
34	36	2
105	110	1
76	77	2
119	129	4
93	94	1
92	92	9
36	61	3
135	136	8
6	27	7
106	109	2
123	124	7
122	150	2
120	121	4
70	71	2
63	64	1
4	146	2
62	66	1
44	44	8
3	10	1
119	121	2
115	116	3
70	70	7
28	30	2
42	52	1
8	8	12
65	65	3
62	94	3
105	106	3
4	34	1
75	93	3
152	152	7
94	144	4
78	79	2
19	48	4
81	143	1
145	145	3
77	148	6
107	107	1
76	82	1
62	75	1
99	100	5
105	105	3
98	99	2
130	133	2
23	154	2
19	108	4
121	126	1
126	126	8
9	55	2
129	135	2
118	139	1
20	27	1
16	18	1
22	27	6
29	30	1
106	107	5
17	18	5
119	128	1
140	141	2
118	149	2
119	150	2
109	121	3
42	55	2
125	126	4
146	151	1
141	151	1
35	55	1
104	105	6
77	78	4
40	48	6
20	22	1
39	41	1
2	3	2
130	131	5
148	149	2
56	56	6
41	50	3
62	84	2
23	68	1
55	56	2
4	35	1
61	65	3
20	25	3
22	101	1
90	90	1
125	148	2
40	53	2
22	23	6
31	31	9
130	134	1
80	80	2
136	138	2
77	99	1
87	87	5
108	116	2
19	109	2
10	14	1
126	127	4
94	140	1
3	43	3
75	80	2
11	14	1
33	33	1
152	154	1
27	32	2
67	68	5
18	117	1
101	138	2
24	106	4
9	10	3
91	92	3
88	104	2
118	128	2
19	20	2
75	82	1
43	44	2
137	138	3
128	150	2
19	117	2
103	104	1
37	38	1
33	48	2
5	26	1
142	143	2
7	25	3
6	34	1
72	73	3
35	146	2
13	38	2
8	56	3
50	55	2
102	138	2
4	8	2
4	26	2
86	87	2
64	67	1
130	135	3
33	34	1
35	37	2
138	138	3
21	41	2
128	149	1
75	76	3
3	50	2
63	88	4
14	85	1
28	45	3
30	57	1
111	117	1
130	132	1
69	101	4
68	95	2
141	142	1
112	113	2
142	147	1
138	139	2
5	6	3
47	49	1
131	132	4
19	42	1
14	15	1
29	42	2
126	148	1
57	58	1
41	48	3
73	74	1
80	95	2
45	64	1
94	122	1
18	20	1
144	144	1
3	7	1
54	55	1
80	100	1
12	85	1
8	35	2
106	111	1
115	117	1
117	151	1
67	80	1
101	101	1
46	84	1
11	36	2
24	25	1
100	137	1
26	112	3
113	114	2
123	127	1
9	11	1
4	43	1
47	48	1
3	4	3
77	79	2
3	6	1
144	150	1
10	56	1
73	151	1
57	57	1
123	129	2
153	154	1
78	83	1
102	115	1
34	35	1
119	122	1
110	112	1
118	119	1
118	134	1
135	139	1
