126	126	1
24	24	5
103	103	7
81	85	5
55	55	9
25	25	9
83	83	2
65	65	6
92	92	8
99	99	5
14	14	5
115	115	5
63	63	17
27	27	15
82	82	6
122	122	5
18	20	6
6	6	10
80	80	5
119	119	11
57	57	6
55	91	1
7	7	3
11	11	5
59	59	2
49	49	14
107	108	6
95	98	6
69	69	4
53	57	4
28	28	3
64	65	2
93	94	5
52	88	2
84	84	1
80	81	2
107	109	5
67	68	5
109	109	6
13	13	7
119	132	2
110	121	3
52	87	8
46	46	7
12	12	9
107	107	9
66	67	7
101	116	1
58	58	7
89	91	2
127	128	2
53	53	4
124	125	2
95	95	5
120	120	3
97	98	10
19	20	6
81	82	2
70	70	9
98	98	8
11	74	5
47	47	12
27	28	2
34	34	3
96	96	9
66	66	5
26	26	7
67	127	1
21	21	5
68	68	7
9	20	4
78	78	5
97	97	4
50	51	3
93	93	4
100	100	4
38	38	5
45	48	1
128	128	2
1	2	3
119	120	6
45	46	1
106	109	1
40	40	3
48	51	1
116	116	6
38	48	2
129	129	5
112	112	6
9	10	4
1	1	6
131	131	4
3	3	6
76	76	8
41	41	3
85	85	6
50	50	3
100	101	2
0	31	4
71	76	2
99	101	1
77	77	2
52	52	8
7	8	1
25	26	3
43	43	5
111	111	6
23	24	2
18	18	5
18	19	2
0	0	5
105	106	2
125	125	10
119	125	2
79	81	3
55	83	3
105	105	5
7	18	4
81	81	1
31	31	6
67	67	2
87	87	4
15	16	4
3	27	1
133	133	3
2	3	2
123	123	4
124	124	3
94	94	2
63	64	2
29	31	1
73	73	5
10	10	2
22	23	1
22	22	6
132	132	1
28	30	2
118	118	1
15	15	5
42	58	2
86	86	6
46	48	3
104	104	3
17	18	1
127	130	5
113	114	4
93	116	2
60	62	2
111	112	1
2	2	3
88	88	3
46	47	2
68	69	5
40	43	1
47	62	4
101	107	3
70	71	2
31	38	1
131	132	1
62	62	1
64	64	5
43	44	4
87	88	2
4	4	1
7	28	2
55	92	1
10	11	5
17	17	2
12	15	4
90	91	2
52	81	2
54	54	1
82	84	4
117	119	1
106	108	1
114	114	1
101	102	1
114	116	5
104	105	4
94	115	2
44	44	1
89	92	1
121	122	1
9	49	1
71	71	1
58	81	1
117	117	1
25	27	1
45	45	2
49	69	1
79	79	1
8	37	1
44	45	2
30	31	2
8	8	1
29	29	2
115	116	1
39	39	1
74	74	1
0	1	1
63	71	2
9	9	2
121	121	2
108	108	3
30	32	2
92	93	1
110	110	1
33	40	1
42	45	1
78	79	1
76	77	1
95	102	2
116	121	1
8	73	2
56	56	1
72	72	1
22	24	2
52	53	1
73	74	2
110	112	1
8	29	1
117	118	1
84	85	1
113	113	1
20	20	1
110	111	1
47	60	1
