122	124	12
8	8	10
30	31	2
6	17	1
56	56	7
78	78	7
57	110	2
33	33	5
32	32	9
76	76	5
21	22	6
86	87	4
71	71	11
9	9	9
11	11	7
79	118	3
50	52	6
4	20	4
128	128	4
13	13	13
23	24	14
8	10	1
125	125	6
66	107	1
58	59	7
98	102	5
25	25	9
97	97	9
35	35	6
100	106	2
77	78	5
15	15	1
74	74	4
123	123	5
2	2	14
5	14	3
110	110	1
66	67	1
107	107	3
100	101	2
10	10	3
68	68	6
13	14	4
115	116	6
87	90	4
12	12	4
127	127	8
20	20	4
21	21	17
65	67	3
85	133	1
84	84	1
5	5	12
124	124	4
33	34	4
129	131	4
107	108	3
1	15	5
23	26	2
53	53	5
56	108	1
26	26	3
81	81	1
16	17	3
1	14	2
74	79	8
101	106	1
7	9	4
84	92	3
134	134	4
50	77	2
61	61	4
120	126	2
67	107	8
0	5	1
86	97	3
88	88	14
126	126	3
80	84	2
0	0	8
115	115	2
37	37	5
21	23	3
54	55	3
50	53	3
13	21	4
116	116	3
122	123	6
60	60	2
45	54	4
64	64	3
4	4	6
22	23	1
23	23	4
18	18	5
120	120	6
5	13	1
126	129	2
86	86	4
75	79	2
76	79	2
58	58	3
100	117	4
59	59	10
72	72	6
80	82	4
5	88	1
57	57	2
67	67	7
22	22	8
44	114	1
120	122	1
89	89	1
3	4	5
91	91	5
18	20	1
131	131	7
38	38	4
55	113	3
129	129	1
83	85	2
132	132	4
102	102	2
99	99	3
69	107	1
30	30	8
35	36	2
121	121	1
62	62	2
129	130	3
67	101	1
54	54	3
3	5	3
79	79	1
111	111	5
28	29	11
34	34	2
25	26	4
98	123	1
61	109	2
17	95	4
43	55	3
66	118	3
127	128	1
130	132	3
109	109	4
73	104	1
7	8	3
11	12	1
19	20	2
96	96	1
46	46	1
36	36	3
106	107	4
94	94	4
96	98	3
11	21	1
130	130	1
108	110	2
105	105	2
57	109	1
13	88	1
55	56	3
75	75	6
69	109	1
52	53	4
11	23	1
122	133	3
29	29	6
23	25	1
112	112	2
90	90	4
3	3	2
119	119	1
109	110	1
36	37	1
77	77	5
87	98	1
45	113	1
124	128	1
104	105	1
14	14	3
100	100	5
103	103	3
47	47	2
25	37	1
30	38	3
82	82	2
47	77	1
118	118	2
82	91	2
81	96	2
69	69	2
67	68	2
82	84	1
2	3	2
101	101	1
86	90	1
101	102	1
66	100	2
98	98	6
65	68	1
43	44	1
85	119	2
87	87	1
80	80	4
68	69	1
83	96	2
48	78	2
62	110	1
104	104	6
120	127	5
98	100	1
89	96	1
95	95	1
24	24	3
29	30	3
8	9	2
69	70	1
106	113	2
48	63	2
114	114	3
52	52	2
24	26	1
63	115	1
108	108	1
60	110	1
6	88	1
106	106	3
48	115	1
19	19	2
123	128	1
20	24	2
50	50	2
70	70	2
1	13	2
6	21	1
62	113	2
81	82	1
35	126	2
110	111	3
82	118	1
24	25	1
58	110	1
6	18	1
87	95	1
102	124	1
58	60	2
1	1	1
98	122	1
58	61	1
28	28	1
119	120	1
65	104	1
1	5	1
82	90	1
12	13	1
9	10	1
80	81	1
10	19	1
44	50	1
125	129	1
45	46	1
