17	17	5
65	65	11
63	65	3
127	127	3
67	68	8
48	49	2
80	80	3
9	44	8
24	24	8
50	50	3
112	112	7
9	9	4
100	101	3
53	53	10
66	66	8
23	23	3
2	2	7
17	18	7
57	57	8
45	45	2
0	0	6
111	112	2
124	125	5
15	23	4
119	119	3
6	6	4
109	109	5
18	18	6
6	7	4
115	115	5
33	33	8
70	70	7
102	102	6
52	52	13
94	94	5
86	87	8
3	4	3
107	107	4
11	13	6
131	133	1
34	127	3
51	51	10
1	1	1
108	108	5
6	49	6
121	121	17
43	43	6
118	118	5
89	89	11
58	58	1
84	84	4
110	110	9
49	49	6
89	93	2
90	91	2
96	96	6
8	8	14
131	131	7
126	128	2
5	61	1
27	27	1
130	130	5
44	44	8
114	114	6
78	133	1
109	113	1
2	64	3
97	97	5
77	77	3
93	94	8
77	90	3
26	27	4
99	115	3
76	76	7
76	78	2
66	67	3
78	78	8
10	11	2
93	93	1
48	48	5
128	128	6
3	3	18
88	88	1
15	22	3
81	85	1
82	102	1
88	89	3
104	104	9
84	85	1
122	122	9
44	120	3
46	46	3
105	106	2
63	64	1
54	54	7
7	48	4
126	126	2
42	43	1
20	21	3
107	108	3
4	12	1
105	105	6
11	16	1
117	117	3
11	11	3
99	99	1
123	123	4
69	69	3
43	44	2
14	22	1
27	43	3
85	85	2
52	66	1
75	117	3
23	31	1
83	84	3
33	45	1
12	12	8
56	57	7
40	41	5
72	73	2
5	5	9
19	20	2
72	72	2
101	101	4
115	116	3
41	42	2
119	120	2
70	71	2
13	13	3
33	34	1
83	83	10
53	54	3
61	62	1
6	66	2
82	82	1
58	62	3
21	21	3
56	56	6
81	81	4
100	100	8
12	53	3
70	119	1
6	13	1
79	80	5
120	120	4
71	129	1
106	107	1
50	51	2
5	6	1
55	56	1
3	115	2
111	111	2
64	65	1
133	133	6
91	107	2
125	125	4
45	46	1
54	123	1
42	42	7
32	32	3
64	64	4
2	118	1
29	30	3
25	26	3
66	98	1
25	27	2
79	79	2
109	111	2
108	114	2
58	59	1
95	95	5
81	125	1
38	42	1
106	106	3
71	98	1
106	108	2
29	29	5
122	123	1
120	121	1
68	125	2
103	104	1
40	40	1
25	25	1
115	117	2
113	114	4
113	113	4
73	75	1
66	69	1
98	98	1
7	8	4
0	6	2
71	85	3
68	131	1
90	90	1
30	30	2
60	60	2
51	52	1
57	58	2
92	92	1
121	125	1
63	63	2
87	91	1
77	102	3
18	29	2
0	1	2
108	109	1
126	129	1
100	118	2
62	118	2
116	116	1
72	76	2
89	90	1
130	131	1
20	20	1
60	64	2
79	128	1
4	4	1
124	124	2
92	96	1
47	48	1
80	81	1
74	75	1
110	111	1
22	27	2
81	82	1
20	46	1
91	93	3
68	69	3
5	121	1
67	126	2
116	117	1
71	103	1
104	105	1
66	99	1
71	130	1
102	103	1
7	7	1
75	75	1
34	34	1
98	99	1
53	65	2
31	31	1
24	27	1
31	43	1
63	83	1
12	28	1
75	100	1
