28	28	4
95	100	2
92	93	1
10	10	4
107	112	2
68	68	3
135	135	3
36	36	2
93	93	14
131	132	2
16	16	10
70	70	2
65	66	4
59	59	7
24	24	5
31	31	4
119	119	4
1	3	1
88	88	7
33	35	1
71	71	5
64	76	2
28	30	2
33	34	5
82	82	4
57	57	7
9	9	4
119	120	2
13	13	8
22	22	13
86	128	1
62	63	6
71	123	3
79	79	6
117	117	8
89	89	3
49	53	1
123	123	16
106	125	3
104	104	5
25	25	6
105	111	3
66	68	1
0	15	1
95	95	14
94	94	4
80	80	9
63	63	9
107	107	9
98	98	18
121	121	6
72	74	1
2	2	9
45	52	1
48	73	1
34	34	6
68	69	1
72	72	7
126	126	9
110	118	1
53	53	3
87	87	4
116	117	3
15	37	1
66	66	6
101	101	10
49	84	3
89	96	3
20	20	6
7	12	4
114	114	2
74	74	2
65	65	6
12	13	5
125	126	2
81	122	2
21	21	4
103	103	12
2	5	5
92	92	5
122	123	7
44	44	7
14	14	4
33	33	5
66	121	1
16	17	4
84	84	9
25	26	3
99	125	1
11	12	3
11	11	5
116	118	9
66	67	3
44	62	2
55	55	4
37	39	1
77	77	4
27	27	7
0	0	3
112	112	4
75	76	3
54	65	2
23	24	1
122	122	7
61	61	2
29	29	4
68	98	2
42	125	3
45	45	1
127	127	5
35	35	3
94	95	4
90	90	12
11	13	2
1	4	2
102	102	10
9	10	3
45	53	1
133	134	1
61	62	3
12	12	8
125	127	5
120	120	6
96	127	2
73	73	10
106	112	4
19	20	4
113	115	2
64	77	3
69	69	4
11	126	1
126	129	1
0	35	2
99	100	3
116	127	2
132	132	1
38	38	5
78	79	4
50	83	1
118	118	4
100	112	1
134	134	3
106	106	11
86	86	5
113	113	10
48	57	3
59	128	1
3	20	2
2	3	1
120	131	2
130	132	1
10	28	1
125	125	3
81	81	3
1	10	6
54	58	1
47	54	1
104	105	1
52	65	1
12	14	2
115	115	5
43	43	5
0	1	1
124	124	2
52	52	5
26	26	8
117	121	3
14	29	2
30	32	2
79	120	2
99	99	2
22	23	2
10	16	1
44	45	1
8	8	3
108	108	7
86	88	1
1	1	3
6	6	3
6	14	1
103	104	2
64	64	2
91	91	4
97	97	5
5	6	4
10	13	1
16	105	2
3	3	2
21	23	1
134	135	1
23	23	3
76	76	3
66	99	3
89	100	2
48	53	1
129	130	2
72	75	5
18	20	2
129	129	1
73	75	1
7	7	3
78	120	1
92	131	1
50	50	4
106	118	1
109	109	3
85	85	2
130	134	1
84	85	6
15	15	2
36	37	1
32	32	3
21	37	1
20	38	1
130	131	3
128	128	5
47	47	3
1	90	1
2	16	1
63	83	1
6	27	1
90	91	2
60	60	3
6	125	1
37	37	1
67	68	1
58	58	4
52	83	2
127	128	1
48	48	2
105	105	2
105	106	1
38	76	1
75	75	1
54	54	3
5	5	1
2	4	1
107	120	1
14	36	1
20	31	1
128	133	1
109	110	1
7	8	3
77	80	1
128	129	2
54	64	2
100	100	1
88	93	1
106	120	1
64	65	2
98	99	1
131	131	2
85	121	2
112	115	2
43	62	1
115	116	1
5	73	1
71	72	1
3	72	2
102	103	3
67	67	1
26	28	1
56	56	3
28	29	3
12	114	1
111	111	2
26	36	1
30	33	1
133	133	1
131	133	1
3	38	1
132	133	1
74	75	1
94	103	1
130	130	2
70	123	1
85	119	1
89	126	1
88	89	1
78	78	1
104	124	1
44	58	1
80	83	1
79	87	1
97	106	1
57	58	1
114	115	2
73	74	2
96	106	1
94	102	1
15	75	2
43	63	1
88	101	1
91	92	1
110	110	1
30	30	1
23	86	1
66	122	1
50	84	1
72	123	1
53	54	1
101	102	1
35	88	1
109	126	1
100	111	1
89	97	1
12	101	1
51	59	1
