142	142	8
64	64	3
68	68	3
13	13	2
91	91	3
15	15	4
34	34	2
2	20	1
111	111	6
108	108	3
80	80	6
47	86	2
3	3	2
72	73	2
63	63	5
5	5	3
41	42	2
17	19	3
78	79	1
0	0	4
35	35	1
94	95	2
8	9	3
65	88	6
31	31	2
71	71	4
97	97	1
22	22	8
78	78	3
96	96	3
107	108	3
55	55	5
119	119	1
53	53	8
99	99	2
93	93	9
10	10	2
28	28	3
72	72	6
75	76	3
53	54	1
20	37	2
125	125	2
23	24	4
48	48	7
114	116	2
20	20	5
81	82	3
80	82	1
37	40	2
130	131	1
123	124	1
8	8	6
102	102	2
16	16	1
134	139	2
101	102	2
114	114	2
106	106	2
126	130	1
78	84	2
116	116	3
132	135	1
42	42	6
19	20	5
5	6	4
76	76	4
2	3	1
126	128	3
48	49	2
49	49	6
59	63	1
93	95	1
80	81	1
70	70	5
30	54	2
4	4	2
129	130	2
139	140	2
88	90	2
61	61	1
52	52	6
95	95	4
50	66	4
134	135	3
84	84	4
113	119	2
105	105	3
129	129	4
68	69	1
128	129	2
120	121	1
23	23	2
74	74	4
120	120	3
106	128	2
127	127	2
82	82	5
17	17	6
27	27	4
112	118	3
134	134	2
131	141	1
121	121	5
63	66	3
33	33	5
1	1	5
79	82	2
38	38	1
52	63	1
65	65	2
66	67	1
131	136	4
18	19	1
2	36	3
33	58	2
74	75	3
35	57	2
77	79	1
81	81	1
64	66	2
9	48	2
97	102	3
29	29	3
52	53	1
115	115	1
127	128	1
75	78	1
135	135	1
106	110	1
67	67	1
124	124	2
143	143	1
21	22	1
95	96	1
10	86	1
107	107	1
128	128	2
25	56	2
36	36	1
100	100	3
51	66	1
67	68	2
132	132	4
110	127	1
144	144	3
32	59	2
75	75	1
104	104	2
70	71	2
113	113	3
62	62	3
66	66	3
12	12	2
115	128	1
145	146	1
93	94	3
132	140	1
49	54	1
111	122	2
138	138	1
96	99	1
37	37	1
76	77	1
123	125	1
21	56	1
109	109	3
85	85	2
139	139	2
92	94	2
2	2	3
98	99	2
77	78	1
110	124	2
124	125	1
59	98	2
132	136	1
118	118	1
118	119	3
117	117	1
102	103	1
83	84	1
98	102	1
136	136	1
62	63	1
141	142	2
21	21	1
48	54	1
69	70	1
81	98	1
137	137	1
11	11	1
19	19	3
101	101	1
69	72	1
73	73	1
94	123	1
123	123	1
