170	172	3
182	182	9
9	9	8
170	171	8
124	124	4
158	158	2
30	31	5
155	176	2
119	119	13
96	97	5
87	87	5
126	126	2
93	93	2
51	118	4
100	100	5
155	157	1
94	94	9
191	191	5
174	175	7
17	17	3
2	2	5
32	32	1
46	46	3
84	109	1
121	121	3
99	101	1
77	77	3
123	123	6
116	117	10
86	86	4
142	142	11
73	73	8
114	115	5
162	162	2
129	129	6
65	77	4
10	11	3
172	172	11
184	184	4
60	60	8
67	67	11
34	34	2
5	5	10
81	82	5
89	89	1
109	114	3
149	150	6
51	51	8
51	113	5
177	177	6
144	144	8
58	89	3
188	188	3
142	144	4
194	194	4
183	183	13
4	5	4
128	128	5
169	169	5
97	97	6
138	140	2
89	90	1
23	24	3
114	114	6
59	61	2
153	153	4
21	22	5
66	75	2
4	4	12
85	88	3
39	39	4
79	81	2
31	31	6
44	44	4
137	138	2
63	63	7
138	139	5
22	22	3
116	116	3
38	38	5
120	120	6
6	8	1
167	167	4
161	161	9
16	16	7
40	43	4
122	122	6
155	155	6
71	72	8
147	163	1
2	40	3
118	118	3
137	137	4
172	180	2
171	172	3
24	45	1
150	150	1
64	64	6
148	148	8
74	75	3
175	175	2
13	13	4
117	117	7
56	56	3
165	165	1
69	69	3
148	149	2
195	196	3
33	35	1
110	111	3
197	197	2
96	96	1
30	30	4
81	81	3
76	77	3
24	25	5
163	163	1
146	146	7
131	135	3
58	58	9
136	136	2
42	44	1
117	124	2
179	180	2
66	66	6
0	0	8
55	182	5
173	174	1
67	68	3
88	88	5
14	72	2
110	110	7
85	85	9
164	164	3
42	42	5
60	89	3
18	18	2
143	144	6
131	131	5
98	98	7
28	29	5
68	100	1
115	115	7
149	159	2
76	76	6
90	90	2
186	187	4
0	38	2
22	24	2
74	74	3
146	147	3
160	160	11
157	157	4
71	71	8
151	151	2
176	176	4
99	99	3
52	183	2
170	170	4
101	108	1
148	160	1
104	106	2
152	152	5
9	10	4
19	20	4
190	190	7
70	71	3
14	15	4
149	149	6
40	41	3
43	43	3
166	166	1
118	119	1
75	75	3
114	124	2
133	133	5
132	132	6
54	54	9
8	8	3
82	83	2
6	6	2
82	82	6
129	130	2
192	193	1
150	171	1
35	35	6
24	24	3
20	44	1
195	195	4
147	147	1
156	156	6
127	127	4
44	45	4
20	20	3
80	81	3
15	16	2
101	101	4
159	159	11
168	168	6
93	98	1
133	134	4
122	140	2
29	29	3
177	178	2
72	72	7
186	186	6
76	78	3
179	179	1
159	160	1
54	182	2
192	192	7
187	188	4
196	196	4
174	174	5
79	80	4
21	21	3
187	190	3
61	61	2
27	27	3
178	178	2
120	121	7
159	161	1
41	41	2
27	28	3
0	37	1
144	163	1
180	190	6
1	2	3
45	45	5
37	38	6
196	197	2
27	39	3
14	45	1
118	185	4
115	117	1
158	159	1
136	137	2
173	173	2
152	178	2
52	52	1
119	120	2
130	130	1
111	111	2
178	180	1
54	181	1
163	164	3
1	3	4
37	37	3
10	10	3
180	180	5
113	113	3
141	141	4
171	171	1
38	39	3
64	65	3
116	141	1
152	154	1
152	153	2
184	185	2
28	28	3
11	11	3
134	135	4
193	193	9
5	6	1
154	156	2
2	3	1
99	100	4
26	26	3
152	180	1
19	19	4
102	107	1
40	40	6
66	69	1
130	131	1
188	189	3
134	136	2
70	70	3
151	153	1
117	123	2
53	54	1
65	66	1
155	156	1
61	109	1
32	33	1
36	36	3
48	48	3
108	109	2
180	182	2
49	111	1
122	169	1
175	176	2
150	169	1
181	181	3
49	49	3
55	55	2
139	139	3
145	149	1
26	27	1
59	60	2
131	134	1
34	35	1
127	128	3
117	184	1
130	133	2
23	25	2
26	39	1
22	43	1
108	108	4
17	18	2
19	41	1
162	163	1
57	57	2
57	58	1
52	117	1
15	15	3
47	47	4
107	107	2
158	160	1
11	12	1
55	194	1
84	85	3
190	192	1
1	40	1
65	65	1
110	113	1
75	78	1
25	25	1
193	194	3
185	185	3
116	123	3
87	88	4
187	187	2
51	124	1
138	138	2
74	76	1
53	53	3
61	62	4
151	170	1
43	44	1
134	134	4
23	39	1
3	3	1
149	170	1
163	168	1
50	50	1
48	49	2
100	101	1
152	170	1
109	110	1
18	20	2
141	142	1
39	43	1
152	155	1
153	154	1
59	59	1
174	192	1
78	78	1
151	154	1
125	128	1
104	105	1
122	139	1
20	21	1
111	112	1
166	167	2
93	99	1
181	182	1
54	55	2
106	107	1
135	135	2
140	140	2
65	67	1
62	63	2
68	68	1
102	102	1
78	79	2
23	23	1
85	86	1
115	116	1
88	107	1
142	167	1
55	195	1
93	94	1
154	154	3
39	40	1
112	113	1
162	166	1
63	110	1
131	133	2
117	118	1
98	100	1
112	112	1
58	59	1
26	29	1
