101	101	7
119	119	2
31	31	7
187	187	3
191	191	9
11	66	2
18	18	5
48	48	2
160	166	2
164	166	2
40	41	3
2	22	1
178	182	4
49	49	6
173	175	1
11	12	4
11	11	5
72	72	6
53	53	2
26	27	4
26	26	4
12	47	4
116	117	4
33	33	6
180	181	5
163	163	1
172	173	2
35	35	4
169	169	4
165	188	1
194	194	12
173	173	2
114	114	1
60	60	6
176	176	2
143	147	1
19	60	2
22	22	3
61	64	3
63	63	3
186	186	4
89	89	4
52	52	4
144	145	7
156	156	6
98	104	3
94	94	2
103	103	3
166	191	2
128	128	8
162	165	2
163	177	1
7	7	5
67	67	4
24	24	4
103	118	1
2	28	2
110	110	3
142	142	4
47	47	2
36	36	2
188	188	5
21	21	2
23	23	2
10	10	4
88	88	6
4	18	3
19	19	3
113	113	4
74	74	4
130	166	2
4	27	1
105	105	4
121	121	1
168	168	6
81	81	6
54	55	5
141	141	8
153	154	3
6	6	10
122	122	3
159	160	1
99	99	6
146	146	3
102	151	4
106	106	1
8	8	1
120	131	3
83	83	1
163	188	2
148	148	2
25	83	2
2	2	4
66	66	2
136	136	6
95	95	1
9	9	5
111	149	6
154	155	1
137	137	3
39	102	1
133	133	2
59	59	3
30	30	3
168	169	2
68	68	5
69	69	8
51	51	3
112	112	3
57	57	3
0	0	5
160	161	1
17	17	6
41	41	1
56	56	1
76	76	3
132	148	1
175	175	4
16	119	2
154	154	13
170	170	1
66	67	2
55	55	3
97	97	1
25	25	7
35	101	2
133	172	2
98	98	2
141	144	3
15	115	1
174	176	3
132	133	3
95	101	2
42	43	1
144	144	1
14	14	4
32	32	4
77	77	3
3	4	3
193	193	2
1	19	1
124	150	2
101	102	1
34	34	6
189	189	3
99	100	1
65	65	3
30	115	2
31	44	1
138	169	2
179	180	3
109	109	4
45	45	1
149	155	3
64	64	4
93	93	3
9	10	2
103	116	1
84	84	2
155	155	1
70	70	1
34	36	1
181	181	1
165	166	1
159	159	1
80	80	6
132	132	3
125	125	1
6	8	2
88	89	2
186	187	2
38	38	2
134	134	1
176	180	1
20	20	2
27	27	1
71	71	3
150	150	1
111	138	3
42	42	7
187	189	5
44	44	3
178	178	1
21	55	1
59	60	1
123	123	2
160	160	3
83	84	1
16	96	1
56	98	1
153	171	2
117	117	3
155	157	2
18	121	2
153	153	1
1	1	3
45	130	1
76	85	5
7	19	1
150	151	2
3	3	1
47	48	1
134	135	3
60	65	1
171	171	1
103	148	1
151	152	1
157	175	1
183	183	2
152	152	2
176	177	1
131	131	2
196	196	3
165	187	1
188	190	1
51	61	3
7	8	1
146	152	1
58	58	1
145	145	1
8	86	1
125	126	2
0	2	2
46	46	1
95	96	1
164	164	3
96	96	3
11	77	1
100	101	2
97	100	2
178	192	1
120	120	2
125	150	1
111	111	2
128	160	1
82	83	1
5	26	3
62	62	1
12	12	1
56	102	1
182	182	1
10	47	1
142	177	2
96	97	5
161	162	1
143	145	1
33	50	1
39	39	3
104	104	1
26	77	2
73	73	1
61	61	1
75	75	1
29	29	1
156	157	1
84	85	1
23	24	2
88	90	1
94	95	1
64	128	1
129	129	1
174	174	1
100	100	1
16	16	1
142	149	1
2	25	2
20	59	1
184	184	2
33	47	1
9	34	1
132	158	1
90	90	1
173	180	1
117	119	1
74	78	1
17	24	1
195	195	1
