168	170	1
105	156	5
188	188	2
9	9	11
22	22	5
68	175	1
114	183	3
157	161	4
6	74	3
24	24	8
132	133	2
94	94	9
102	102	14
107	129	1
130	130	16
174	174	7
113	113	2
6	6	9
59	59	20
0	0	3
41	41	3
191	194	2
21	167	1
100	104	3
70	170	5
177	178	7
145	145	11
109	109	5
88	88	4
14	63	6
94	102	2
16	147	4
53	135	3
54	56	3
187	188	7
67	68	2
85	85	7
120	120	11
167	167	4
180	190	1
17	17	3
38	38	16
72	72	2
56	56	3
60	163	1
26	27	4
192	192	11
96	96	16
172	172	18
87	87	4
42	45	2
104	104	6
99	99	10
94	99	6
78	78	7
135	135	9
187	187	4
111	157	5
125	125	10
155	156	6
161	195	3
123	123	9
178	178	4
74	74	4
76	147	4
76	83	5
136	136	12
196	197	2
52	52	7
3	3	8
22	39	3
194	194	11
134	135	3
16	16	9
144	144	5
44	44	13
134	134	5
58	58	3
161	162	3
183	183	5
65	170	2
100	193	4
16	17	4
80	166	5
100	100	3
132	132	13
163	163	1
9	41	2
55	55	11
190	193	3
7	7	6
73	74	8
8	35	5
128	128	9
34	34	3
113	192	1
57	57	4
89	89	7
94	95	3
156	157	2
114	114	4
20	21	5
190	190	4
52	136	1
32	32	8
93	102	1
31	32	7
41	43	5
28	29	2
71	126	7
156	156	11
106	155	3
27	86	2
110	160	3
41	42	6
75	147	8
96	97	5
158	158	2
43	45	1
1	29	4
50	51	3
40	40	2
1	1	5
57	72	4
137	137	5
150	151	4
107	108	4
13	13	3
128	197	4
160	160	1
86	87	4
170	175	5
68	169	6
67	67	5
14	15	4
112	164	6
12	12	1
136	137	4
13	171	4
2	29	6
126	126	5
70	71	1
101	101	2
74	166	1
20	167	4
64	67	1
112	182	3
11	14	1
65	67	2
27	27	2
196	196	4
96	148	4
31	88	1
111	118	5
79	79	1
181	181	5
111	159	1
75	75	7
79	82	3
79	165	1
151	151	3
152	152	2
119	119	3
20	20	5
107	161	3
171	171	5
155	161	2
11	175	3
54	55	3
0	27	1
104	192	1
106	107	2
183	184	2
83	83	5
106	106	5
84	85	2
195	196	2
176	177	1
112	112	1
147	150	1
27	85	1
193	194	1
81	166	3
192	194	5
161	163	4
69	69	2
27	84	3
50	50	7
2	2	5
4	4	6
161	161	4
33	45	4
115	122	5
166	166	3
62	62	6
66	169	1
115	181	3
104	164	1
1	85	3
18	18	10
48	48	7
133	133	1
170	170	3
191	191	1
189	189	7
118	118	6
94	96	7
185	188	1
192	196	2
112	161	3
87	89	1
129	129	3
177	177	6
17	18	4
173	176	2
111	120	1
82	82	5
4	23	2
86	86	9
140	141	3
135	136	2
10	70	3
142	142	1
15	15	7
68	68	7
45	45	3
184	184	1
71	71	4
113	163	2
157	181	3
21	148	3
66	66	3
81	81	1
7	40	1
25	27	1
112	115	5
127	127	2
171	177	1
63	72	2
25	84	2
43	43	2
38	47	1
51	53	1
51	69	4
146	151	1
150	150	2
5	44	1
155	155	9
115	184	1
147	147	1
47	47	7
96	98	1
36	36	4
193	193	4
8	9	1
175	175	1
111	112	2
29	29	4
155	195	2
78	195	2
53	136	1
15	64	1
115	115	6
81	83	4
42	42	1
6	34	1
157	157	3
175	176	2
61	70	1
15	58	3
114	115	5
59	61	1
185	185	5
60	60	1
126	197	2
162	193	4
5	34	3
138	138	4
97	97	5
118	120	1
124	124	2
36	44	1
5	5	2
47	48	2
113	162	5
197	197	3
31	31	3
76	76	4
168	168	3
31	90	3
11	11	3
163	164	1
131	131	4
152	153	3
27	36	3
105	164	6
2	40	3
16	58	1
98	99	2
140	140	5
112	196	1
154	154	3
62	66	1
128	129	3
189	190	2
14	62	4
65	65	5
21	22	1
25	33	2
127	196	2
63	63	3
179	179	2
1	2	2
103	104	1
76	77	2
162	162	3
95	95	3
61	62	2
38	39	3
12	13	2
168	169	2
59	133	2
101	194	1
186	187	2
116	116	6
123	125	1
159	160	1
122	122	1
64	64	1
55	57	2
105	106	1
70	72	2
23	23	2
138	140	1
79	80	1
105	152	1
6	20	1
4	75	1
151	154	1
141	141	1
69	70	3
20	40	4
37	38	1
126	196	1
108	108	2
12	46	2
156	192	1
97	98	1
80	81	3
93	194	1
149	149	2
133	135	2
158	159	1
62	71	4
148	149	2
18	64	1
145	146	2
182	182	2
19	167	1
58	67	1
139	140	1
80	80	10
151	152	2
105	105	2
66	68	1
98	189	2
84	84	2
100	194	3
179	180	1
61	134	3
107	155	3
61	61	2
8	41	2
110	110	1
68	70	5
106	160	1
120	158	3
7	39	1
88	90	1
174	175	1
113	114	3
29	88	2
93	100	1
97	177	1
112	181	1
5	82	2
40	41	1
131	132	1
98	98	1
15	17	1
11	65	1
77	77	1
111	111	2
105	107	1
18	100	1
26	84	1
117	120	1
3	5	1
130	131	2
57	59	1
54	127	1
55	70	1
37	46	1
173	173	1
129	154	1
159	159	3
54	54	1
49	49	2
19	148	1
74	75	1
19	147	1
192	193	1
190	192	1
16	79	1
14	72	1
149	150	1
33	36	1
169	169	1
