140	140	4
166	167	2
95	99	1
148	148	2
100	100	3
9	9	3
6	7	4
114	114	3
15	15	6
126	130	1
33	33	7
85	85	4
146	147	2
90	91	2
62	62	3
123	124	3
132	132	11
34	34	12
82	84	2
12	12	3
45	45	6
43	44	6
24	24	6
148	149	6
102	102	9
37	37	9
160	169	2
155	155	3
21	21	1
19	19	4
165	165	6
118	118	2
19	20	5
36	36	7
2	11	4
135	135	4
142	145	6
4	5	1
136	136	4
6	11	3
20	20	3
157	159	3
141	141	6
168	168	9
126	126	12
3	3	2
7	7	1
155	157	2
78	79	3
151	151	6
69	69	4
72	167	1
41	42	3
53	53	10
10	11	4
47	47	4
101	102	3
164	164	4
83	83	7
110	110	7
125	125	4
57	57	4
137	137	13
44	45	3
57	170	3
146	146	3
21	22	2
86	120	5
145	145	1
125	136	3
71	71	7
3	162	6
73	168	1
64	64	4
56	56	1
78	80	3
130	130	3
65	65	4
73	109	2
39	40	1
134	139	3
22	22	3
49	50	2
17	17	4
52	52	2
97	97	2
96	97	3
122	122	1
99	99	4
152	152	5
35	35	6
119	119	4
121	122	4
109	109	3
107	107	6
5	5	5
63	119	4
158	158	2
77	77	2
166	166	2
133	133	11
167	168	1
44	44	4
149	150	2
15	52	1
11	11	1
90	90	7
131	131	2
68	68	2
40	40	5
90	97	3
92	93	2
43	43	7
41	41	2
159	159	3
95	95	2
92	92	1
17	24	4
66	69	4
18	18	7
142	142	2
6	8	6
80	81	1
104	104	1
111	111	2
140	148	2
73	73	3
105	105	1
6	162	5
39	39	3
162	162	5
134	135	1
74	125	5
24	25	3
4	4	3
14	14	3
129	130	4
76	76	3
147	147	2
100	136	2
25	25	9
91	99	4
46	70	3
1	16	2
42	42	2
68	116	2
84	101	4
101	101	4
80	80	6
15	16	1
140	147	4
63	63	3
118	119	3
114	115	1
43	53	3
27	27	1
10	12	3
105	135	1
56	57	1
108	119	2
38	41	3
156	156	1
124	142	1
38	38	4
154	160	2
160	160	5
91	91	5
1	1	3
74	74	1
66	70	1
51	51	4
50	115	1
90	136	1
150	151	1
90	131	1
55	58	2
45	69	1
4	161	2
76	141	1
112	112	2
98	98	1
62	63	2
87	87	2
6	6	2
33	34	3
121	121	3
108	108	2
49	49	3
77	81	3
66	66	2
129	143	1
136	137	2
94	94	2
149	149	3
88	88	1
65	70	2
63	109	1
16	16	1
143	143	1
24	39	1
50	50	1
7	10	1
78	78	1
2	2	1
7	8	1
102	103	2
98	99	1
8	8	1
110	168	1
76	140	2
46	46	2
26	26	1
89	89	1
2	71	1
127	129	1
139	139	1
79	79	1
7	9	1
167	167	1
126	129	1
