9	142	3
112	173	1
85	140	3
53	53	8
144	144	6
57	57	2
184	196	1
21	21	8
110	111	4
135	135	5
191	192	11
32	32	7
109	109	12
122	122	8
77	78	3
185	185	8
121	121	5
113	179	5
29	29	6
132	132	3
171	171	4
154	154	2
179	181	5
194	194	3
110	110	5
24	24	3
101	101	3
106	107	2
52	52	10
5	8	1
100	100	12
90	149	2
80	80	4
33	33	3
11	11	12
142	142	6
140	140	5
125	128	3
42	42	3
64	68	1
48	48	7
149	149	5
17	18	4
104	109	3
143	143	3
37	37	5
97	97	7
155	156	4
66	66	2
169	169	3
10	10	7
35	36	4
152	154	2
25	25	7
21	22	3
81	81	3
1	1	7
125	127	3
45	45	3
14	48	2
192	192	1
36	36	13
34	79	5
115	115	3
94	96	3
40	41	3
133	133	4
44	44	8
163	163	5
152	152	3
0	1	4
4	45	6
27	72	1
59	77	3
187	187	5
116	117	1
188	188	3
18	18	2
96	96	5
121	122	1
81	83	1
38	38	5
85	85	5
145	146	3
97	144	1
164	184	3
127	128	3
162	162	3
76	77	5
148	172	2
27	27	5
33	71	2
60	60	4
168	168	9
105	108	1
113	113	7
164	164	2
146	166	2
49	49	3
88	159	1
6	11	2
77	77	6
179	182	2
178	178	3
19	19	7
60	61	1
23	23	2
195	195	8
123	124	3
5	6	2
190	193	2
108	108	3
15	19	3
94	94	2
126	126	4
130	130	3
156	156	6
165	166	1
8	9	1
103	103	1
40	96	4
43	43	5
170	170	7
4	5	5
40	43	2
155	155	5
160	160	2
99	99	4
169	196	1
1	90	1
107	120	3
193	193	5
9	86	3
89	89	9
82	83	2
54	54	3
117	117	9
130	133	2
84	84	3
67	68	2
111	111	2
144	145	5
183	183	4
110	149	1
123	131	2
22	60	7
102	103	3
167	184	6
186	186	2
88	88	4
50	197	1
102	102	3
131	134	3
34	34	8
181	181	1
7	7	5
183	191	1
168	171	5
138	138	5
55	55	3
9	9	4
68	68	2
124	130	1
61	61	7
64	65	3
124	129	2
82	82	4
26	26	1
12	12	2
25	26	3
128	128	4
196	196	4
158	158	3
59	59	9
161	161	3
134	134	1
12	30	2
70	70	3
118	118	8
161	163	1
50	50	3
175	175	1
13	13	4
65	97	2
77	79	2
3	3	3
97	143	2
0	0	2
146	146	3
180	182	1
148	148	2
135	159	2
147	163	1
14	14	4
114	114	2
107	107	2
31	142	4
104	108	2
123	123	5
37	43	3
80	81	1
74	74	4
105	105	5
66	67	1
112	180	2
39	40	3
54	56	2
15	15	1
64	143	3
84	85	2
79	79	4
129	132	3
96	97	4
34	77	3
43	44	2
108	122	1
73	75	1
86	157	3
85	157	2
47	142	1
78	78	3
64	64	1
3	9	1
17	19	3
157	158	4
86	86	4
169	170	4
113	114	2
51	52	2
10	28	1
4	69	1
129	129	4
94	95	2
59	63	2
56	56	1
39	96	1
181	182	2
116	118	2
2	2	5
16	17	3
41	42	2
182	182	3
130	132	3
170	171	2
74	168	4
72	72	1
14	15	2
99	166	2
172	172	2
59	60	1
104	104	2
7	83	2
153	153	1
174	174	1
18	53	1
13	75	2
3	4	1
165	167	1
173	173	6
120	120	1
193	194	1
190	192	4
63	63	2
41	41	2
179	179	7
79	80	2
117	119	3
111	178	2
17	52	2
1	8	1
111	112	2
147	169	3
153	154	2
143	144	1
4	34	2
21	54	1
87	88	1
165	165	2
6	83	1
83	85	1
128	137	2
196	197	1
161	181	1
30	69	2
65	65	1
5	5	1
90	142	1
153	157	1
94	143	2
128	129	1
76	76	3
8	8	1
4	4	1
147	168	1
67	167	1
16	16	1
57	58	1
125	126	2
180	181	1
148	173	1
112	114	2
46	46	2
65	68	1
47	47	1
150	150	1
5	11	2
13	33	1
47	73	1
16	19	1
30	30	3
50	98	2
28	30	1
9	29	1
44	73	1
131	132	1
120	121	1
164	167	1
127	127	1
37	57	2
109	111	1
157	157	2
10	71	1
197	197	1
5	9	1
32	33	1
101	186	1
20	55	1
98	98	1
161	162	1
189	189	1
20	54	1
62	62	1
