16	16	3
93	94	3
61	61	4
75	75	6
3	28	2
78	78	11
98	98	11
5	40	8
149	149	11
124	124	6
82	82	9
151	151	9
137	140	3
13	13	1
100	100	4
79	80	3
11	11	2
12	12	6
53	53	15
158	158	6
63	136	2
1	2	3
136	140	4
54	143	9
150	150	5
72	72	9
57	172	4
68	171	3
27	27	15
21	23	1
45	45	10
88	89	16
77	78	7
50	50	7
33	33	11
81	81	9
127	127	6
55	56	4
105	107	4
23	23	7
169	169	9
129	130	7
152	152	9
41	41	7
123	123	24
106	106	7
77	77	14
73	73	11
24	25	2
29	29	9
134	134	5
66	66	10
144	144	5
163	163	3
76	76	6
26	28	3
28	28	9
24	24	7
3	4	4
135	136	2
142	142	9
125	125	14
86	86	1
166	166	8
172	173	2
108	108	7
63	112	3
162	162	7
82	94	2
2	41	4
126	126	12
175	175	2
117	117	6
15	15	5
137	138	7
52	52	8
78	79	10
21	41	3
71	93	5
18	36	9
57	66	4
94	169	3
32	32	5
65	131	5
150	151	2
113	113	5
25	25	5
144	152	1
21	21	4
114	133	9
102	103	5
157	157	9
174	174	6
14	14	7
57	57	7
146	146	9
128	128	19
30	30	8
156	157	3
60	87	4
111	111	9
131	131	5
91	93	6
29	30	5
110	110	4
124	125	5
91	92	1
92	93	4
82	91	3
9	11	5
161	167	3
133	133	12
92	94	4
155	155	2
177	177	2
8	10	4
35	35	6
155	156	4
60	61	4
114	114	14
97	97	19
122	122	6
103	103	5
17	17	1
58	64	2
71	71	17
3	26	1
94	94	2
103	115	7
41	154	2
1	1	10
63	102	1
147	147	2
146	148	1
93	93	5
73	74	1
137	137	7
109	109	7
161	161	2
38	39	4
126	128	6
119	119	5
168	168	9
106	119	4
129	129	8
85	86	5
68	68	3
146	173	7
10	10	7
142	172	5
158	159	8
159	159	6
15	37	1
12	13	6
141	141	4
82	157	1
62	63	2
101	133	2
105	106	6
64	87	4
58	59	3
22	22	8
56	56	5
26	26	5
139	139	4
151	156	1
74	94	4
7	7	1
39	39	6
50	51	2
83	83	4
55	174	7
53	54	5
163	164	2
37	37	11
89	89	2
73	96	4
132	139	7
140	140	12
24	30	3
59	59	3
91	91	2
134	135	8
156	158	1
6	6	12
154	156	4
67	171	1
64	64	5
108	109	3
18	19	2
92	92	6
112	115	3
143	143	12
156	169	1
7	11	2
164	164	8
143	144	4
35	36	3
105	129	2
124	126	1
79	79	2
121	125	1
84	84	1
81	85	4
67	142	4
62	140	5
154	154	4
154	169	2
88	88	5
34	43	2
14	16	3
5	6	2
135	135	3
9	9	3
138	138	3
23	24	3
33	46	1
74	74	6
27	157	1
117	118	7
176	176	6
42	42	5
115	141	3
146	172	1
127	128	6
55	145	1
56	67	2
56	170	5
144	145	4
173	173	1
153	153	10
67	67	4
55	57	7
104	104	4
112	112	6
25	44	4
142	144	3
173	174	4
180	180	10
172	172	5
96	96	3
95	95	6
63	113	2
132	132	5
98	100	3
170	170	6
51	55	5
126	127	4
19	45	7
18	18	6
52	53	4
107	107	5
114	131	3
1	22	3
59	113	2
29	31	5
50	52	3
145	174	3
161	162	1
156	156	6
30	31	2
147	148	1
101	101	3
121	121	8
62	62	4
99	99	6
136	136	1
36	37	2
178	178	2
5	5	2
32	153	1
70	71	6
116	118	3
89	170	1
119	120	2
83	86	3
72	81	2
34	34	4
38	38	1
11	20	4
16	19	1
7	8	2
115	115	2
22	23	1
164	165	1
59	134	5
56	156	1
108	110	2
44	44	5
139	140	2
60	134	3
65	67	6
65	86	3
3	3	4
115	117	2
120	121	1
28	29	1
67	151	5
125	126	1
117	122	3
87	87	6
29	155	5
64	65	1
130	130	8
2	4	2
145	145	7
179	179	1
54	54	2
146	147	5
8	8	3
31	31	1
99	168	2
17	24	2
56	172	1
120	120	1
116	117	4
23	39	1
120	122	1
141	143	2
131	132	2
109	127	5
141	150	4
0	0	1
10	13	3
104	130	1
20	20	6
105	105	2
74	80	3
80	81	7
143	152	1
2	3	4
118	118	6
178	179	4
73	95	1
162	167	3
57	84	3
15	16	3
80	160	3
31	32	2
102	136	3
40	40	2
60	83	1
61	62	2
158	170	1
105	118	1
133	134	3
114	129	2
151	155	3
148	148	4
31	43	3
145	173	1
171	171	2
134	140	1
103	112	1
57	85	2
33	34	1
1	41	2
154	155	3
20	40	2
131	133	3
112	132	2
66	85	1
96	98	2
55	175	2
33	153	1
51	53	2
57	158	1
81	90	1
18	44	2
35	44	1
157	158	1
11	15	1
54	150	1
28	154	3
160	160	2
1	39	1
65	65	4
4	4	3
94	168	1
146	150	1
55	152	2
20	38	2
104	105	2
103	105	1
63	140	1
108	121	3
149	150	3
25	42	2
167	167	3
23	25	2
63	137	2
160	161	3
155	158	1
0	31	2
21	22	3
102	112	1
144	173	3
84	94	1
56	153	1
115	118	1
151	154	3
80	161	2
65	66	1
21	24	1
132	133	1
13	15	1
90	167	2
118	119	1
85	85	2
26	42	1
51	51	1
58	140	1
24	41	1
120	125	1
43	43	1
59	63	2
84	90	1
55	55	1
101	113	1
169	171	1
19	19	1
49	145	1
115	133	2
8	11	1
58	169	2
112	113	1
142	150	1
33	152	1
162	163	1
21	39	1
160	163	1
