155	156	1
40	40	6
120	121	2
228	228	6
2	6	2
212	212	5
103	103	4
140	140	4
28	180	1
0	13	4
220	221	6
117	117	2
214	214	12
200	200	7
49	49	1
8	8	7
86	87	1
154	154	1
166	166	7
16	16	2
116	117	6
99	99	5
127	127	1
235	235	7
138	140	1
173	173	2
15	15	7
142	142	2
152	152	4
88	88	2
224	224	3
30	181	2
101	101	9
182	183	1
194	195	4
39	39	7
128	128	5
79	79	4
10	10	5
189	189	4
97	97	4
183	183	6
59	59	8
160	160	2
197	197	1
175	176	3
162	162	9
163	163	7
139	139	3
25	25	2
106	106	2
179	232	5
172	173	2
181	234	1
19	19	5
138	139	3
43	43	10
232	232	1
23	23	2
36	36	7
67	67	1
198	199	2
46	46	2
179	179	4
60	60	11
155	155	5
85	85	3
81	81	2
11	180	4
40	148	2
209	210	3
184	210	2
144	147	3
134	134	5
226	226	1
143	143	2
80	80	3
236	236	2
33	33	3
200	201	3
177	177	10
123	133	1
62	62	3
131	131	1
218	233	7
55	55	2
56	57	2
219	219	6
171	171	3
83	83	1
49	51	5
238	239	1
4	4	2
73	74	1
206	207	5
176	176	1
187	217	1
24	24	6
147	147	1
21	21	1
211	211	8
31	31	3
191	191	2
180	181	1
19	37	2
118	118	2
121	122	4
184	184	12
78	78	4
198	213	1
65	66	3
239	239	4
24	26	2
84	84	2
70	70	7
191	230	3
51	51	4
113	113	2
202	203	4
145	146	3
42	42	8
58	155	1
109	110	2
146	146	5
231	231	4
5	6	1
178	178	3
102	102	2
198	210	2
3	7	2
159	159	5
44	44	3
48	48	3
148	149	3
165	166	2
230	230	3
82	82	4
37	38	1
215	216	1
34	35	3
30	30	2
123	123	1
54	54	5
182	182	3
24	25	1
166	169	2
145	145	2
173	174	1
7	9	1
159	171	2
26	26	11
120	120	5
137	138	4
202	202	1
108	117	4
175	177	1
149	149	8
174	174	4
213	213	2
36	145	2
70	83	2
12	12	8
72	72	2
85	86	3
164	164	1
7	187	1
95	95	1
188	188	5
112	112	1
73	84	7
24	45	1
139	140	1
234	234	9
66	66	6
121	121	2
96	97	2
45	45	2
104	104	3
32	32	3
210	210	2
53	53	5
187	188	1
208	208	2
100	100	4
108	108	1
135	135	1
169	231	1
222	224	7
177	178	1
167	168	6
27	27	7
3	3	7
162	183	4
76	76	4
201	201	4
1	2	2
175	175	8
50	50	2
229	229	1
186	186	5
8	188	2
207	207	6
2	4	1
190	190	2
158	159	1
170	171	2
167	216	1
223	223	2
113	114	1
17	36	1
113	120	4
96	96	3
53	55	1
238	240	1
3	11	2
56	56	2
233	233	3
36	146	1
41	147	2
203	206	2
13	36	2
169	169	4
111	112	1
117	120	3
209	209	4
38	38	3
167	191	1
156	157	4
185	185	3
148	148	2
10	11	3
154	155	2
136	136	1
67	145	1
141	141	2
50	51	1
0	0	2
21	23	1
167	167	1
216	216	1
7	10	3
75	75	4
225	225	7
40	67	3
133	133	1
164	165	1
127	128	2
193	193	1
129	148	1
198	198	2
214	215	1
152	153	2
196	196	1
11	11	1
16	29	2
42	72	1
205	205	4
29	29	2
197	198	2
65	65	3
153	154	2
47	47	5
68	68	4
61	61	2
227	228	3
215	215	3
172	172	1
137	137	7
174	175	1
195	227	2
74	102	1
46	47	1
106	127	1
109	109	2
122	123	1
1	3	2
165	165	1
106	107	1
76	77	1
161	161	4
74	76	1
42	149	1
183	184	1
26	27	3
224	225	1
13	17	1
227	227	4
110	123	1
189	190	1
153	153	3
25	26	1
22	60	3
206	206	2
36	140	3
163	165	2
64	64	1
242	242	3
25	96	2
119	119	3
28	28	3
98	98	1
223	224	1
187	187	1
179	218	3
162	185	2
63	63	5
191	206	2
71	71	2
58	58	2
180	180	1
14	14	2
145	189	2
220	220	4
68	69	2
56	66	1
41	41	1
82	83	2
11	16	1
170	170	3
73	73	3
125	125	1
71	83	2
80	82	1
36	138	1
62	71	1
86	86	1
77	77	3
4	6	1
1	8	1
156	156	1
144	146	1
62	63	1
144	145	4
203	203	2
41	67	1
199	199	1
19	68	1
74	86	1
32	51	1
66	68	5
16	60	1
59	60	3
71	72	1
170	191	2
171	178	2
20	20	1
58	59	2
186	187	1
221	222	1
163	182	1
13	35	1
77	81	1
28	43	1
154	208	1
195	198	2
141	145	1
168	168	1
33	37	1
158	162	1
126	126	2
49	50	2
103	105	1
150	176	1
44	135	1
105	105	1
186	217	2
117	118	1
138	138	1
180	217	2
15	16	1
96	122	1
116	116	1
131	132	1
74	74	1
7	7	1
38	136	1
166	168	1
54	55	1
40	42	1
42	43	1
182	184	2
150	150	1
151	151	1
22	29	2
122	122	1
110	110	1
167	186	1
46	54	1
79	80	1
18	19	1
181	181	1
80	81	1
112	113	1
169	191	1
