99	119	3
101	102	5
65	65	18
119	134	1
46	46	13
71	88	2
125	127	4
55	57	1
24	24	4
30	38	2
96	112	4
9	9	15
122	122	11
32	32	12
47	47	10
106	107	4
86	86	5
12	12	5
114	120	2
10	10	8
126	126	5
119	119	21
66	66	14
39	39	20
35	35	12
134	134	8
104	104	11
59	59	16
16	16	18
15	15	7
97	97	9
90	90	17
124	125	4
95	95	11
73	73	21
49	49	2
4	4	12
18	37	1
28	28	10
85	85	30
5	62	2
31	31	7
117	118	1
116	134	3
114	114	16
115	115	11
75	75	18
5	15	1
108	108	14
96	98	1
58	58	16
17	17	14
79	79	27
133	133	19
14	15	2
95	96	7
110	111	9
58	61	1
101	101	15
82	82	16
45	45	7
72	73	2
92	92	8
44	44	15
25	37	1
99	99	15
34	34	17
86	91	4
128	128	7
67	67	12
83	83	6
110	112	2
124	124	18
90	95	4
86	100	2
42	42	7
1	15	3
63	63	10
19	19	19
110	113	6
87	87	5
118	118	14
77	77	12
11	11	9
46	47	7
14	14	16
70	71	6
22	23	1
132	132	13
75	77	2
112	112	12
84	84	8
13	13	8
96	111	1
83	120	4
0	44	1
101	104	8
86	87	1
105	105	16
131	131	21
15	16	10
63	79	2
25	25	6
0	0	12
74	74	13
55	55	9
127	127	7
62	63	5
32	33	2
86	110	2
19	24	2
69	71	1
63	64	3
126	127	2
127	129	4
75	76	2
42	58	2
32	37	1
116	126	3
87	88	7
14	18	3
4	39	1
33	36	2
5	5	16
7	7	15
85	119	4
94	97	5
58	63	1
90	105	2
1	1	4
46	60	1
94	110	1
37	37	11
98	98	13
18	18	12
73	86	1
50	56	3
22	22	5
10	12	10
19	20	5
113	113	13
123	127	1
7	8	2
94	94	16
29	29	8
56	70	2
7	13	1
6	6	5
117	119	5
27	28	7
125	125	17
33	33	7
6	28	1
8	8	11
117	117	13
123	123	8
9	10	1
35	62	1
103	121	2
79	90	3
91	92	4
112	115	9
114	116	1
23	23	10
57	57	12
13	14	13
35	47	1
17	48	6
84	85	6
68	68	7
91	91	8
58	70	1
81	83	5
36	40	1
43	49	1
60	60	7
64	65	3
113	127	1
3	44	2
62	62	12
113	115	3
17	36	5
39	49	3
87	97	3
30	30	11
64	64	19
79	89	1
109	124	1
74	98	1
2	44	5
3	4	3
26	27	6
69	69	10
100	111	4
39	40	4
92	93	4
130	130	10
104	125	2
76	76	16
4	17	3
21	22	4
34	36	7
38	38	8
90	91	7
121	121	19
100	112	2
100	103	3
72	72	6
102	129	1
38	40	2
8	44	3
11	32	2
106	110	3
6	90	1
65	72	2
124	130	4
36	47	1
76	94	1
80	100	2
77	79	2
6	122	1
125	129	2
15	28	2
72	118	5
101	133	2
111	111	16
18	47	4
57	58	4
100	101	5
64	68	1
36	36	5
29	40	5
86	99	3
16	17	2
126	133	3
93	93	8
39	57	1
23	38	1
80	80	11
12	32	3
61	62	2
22	24	4
87	99	2
45	46	7
2	3	3
116	116	9
113	117	1
110	110	11
130	131	6
20	21	1
25	40	3
78	78	10
127	128	5
29	35	4
116	124	4
20	20	10
61	61	8
101	134	2
6	24	1
9	43	2
3	15	2
129	131	1
27	90	2
119	120	2
68	79	3
83	86	2
43	43	9
2	2	5
77	107	2
56	63	1
40	40	11
4	6	2
15	58	3
4	70	4
1	2	2
33	41	3
99	102	1
6	8	1
15	21	1
107	107	4
101	123	2
19	80	1
65	77	2
94	112	1
82	90	2
43	45	2
77	81	1
85	111	3
81	109	1
117	120	4
17	22	2
35	41	3
50	54	2
28	29	3
101	108	2
34	38	3
99	122	1
26	26	8
19	43	4
112	117	1
85	92	3
102	102	6
32	39	2
129	129	6
7	31	3
126	129	5
132	134	1
19	66	1
49	50	3
31	41	2
107	108	3
46	57	2
76	122	2
18	33	2
54	55	3
6	99	1
59	60	1
106	127	2
109	109	5
89	97	2
106	106	4
79	80	6
97	100	3
29	33	3
25	31	1
82	85	2
83	85	3
103	105	3
72	88	1
0	72	3
43	63	1
0	21	4
8	70	3
104	105	7
133	134	2
4	31	3
3	3	7
36	44	1
12	40	2
68	69	6
96	96	5
81	82	7
32	34	2
103	103	5
77	113	1
81	84	2
56	56	6
108	109	1
74	96	3
37	38	3
125	126	4
55	59	2
82	83	2
39	42	3
75	91	1
27	29	2
108	125	1
0	18	1
63	92	1
10	27	2
48	48	3
85	89	4
74	120	2
62	70	4
4	5	1
111	124	2
98	111	2
121	122	4
96	103	2
44	77	2
8	80	1
43	44	1
31	44	1
98	107	1
23	36	2
20	23	2
24	25	1
115	116	1
63	67	1
93	101	5
121	123	1
33	42	2
109	110	4
123	130	2
102	125	3
56	58	1
78	84	1
2	5	1
25	26	1
59	61	2
44	45	1
105	107	1
93	102	4
7	14	1
71	71	2
86	90	1
127	132	1
117	126	3
78	101	1
93	105	2
27	27	8
22	44	1
54	63	2
98	102	1
43	54	1
8	10	1
92	97	2
14	20	1
96	99	3
34	60	2
83	84	3
130	132	1
74	75	4
41	41	4
81	81	7
84	108	1
64	94	2
121	125	1
59	82	1
23	129	1
88	88	3
109	111	1
113	114	4
48	49	2
5	28	1
114	131	2
128	130	2
107	110	1
8	37	1
25	33	3
125	128	1
115	125	3
101	109	2
39	48	2
116	119	1
124	129	2
86	88	4
63	86	2
71	75	2
113	126	1
3	46	1
68	82	2
47	56	1
19	39	1
113	118	1
3	72	2
66	68	3
43	59	1
44	76	1
0	61	1
60	72	1
9	11	2
109	130	2
18	19	2
1	22	1
29	30	3
64	77	1
5	19	1
23	25	1
11	80	2
122	123	1
37	47	1
71	95	1
104	122	1
33	38	1
123	134	4
44	64	1
76	77	2
100	100	1
95	97	3
105	106	1
33	40	1
21	45	3
120	120	2
103	104	1
128	132	2
110	124	3
101	120	2
29	32	1
34	41	2
48	60	1
81	103	1
26	29	1
97	107	1
41	55	1
70	70	4
57	94	1
5	6	2
11	12	2
86	101	1
41	58	2
3	13	1
94	116	1
1	19	3
57	59	1
12	13	1
23	65	2
17	18	1
61	111	2
122	125	1
93	94	1
42	43	1
60	61	1
18	20	1
21	21	1
5	14	2
39	41	2
15	112	1
4	15	1
37	39	1
33	67	1
73	120	1
30	37	2
18	24	1
5	30	1
100	108	1
80	94	1
107	125	1
127	131	1
24	27	2
6	7	1
77	93	1
120	123	1
67	68	1
35	36	1
131	132	1
107	126	1
99	100	1
78	79	1
44	48	1
84	122	1
105	113	1
71	72	1
104	109	1
58	59	3
97	133	1
70	72	1
125	131	1
114	127	1
112	113	1
79	92	1
62	72	1
62	64	1
67	69	1
5	22	1
14	60	1
69	70	1
76	78	2
63	75	1
57	71	1
104	106	1
111	117	2
16	20	1
29	80	1
84	92	1
6	15	1
88	97	1
111	115	1
100	115	1
41	81	1
