70	70	10
103	104	4
65	65	11
67	67	4
81	81	8
65	100	5
60	62	4
85	85	7
83	83	14
50	51	5
22	22	3
66	66	11
59	59	10
98	98	11
42	43	1
102	102	5
100	100	3
39	40	3
103	103	9
76	77	8
53	55	2
37	81	3
95	96	5
102	103	3
106	106	16
83	84	2
26	26	11
99	99	4
24	24	9
35	35	13
90	90	4
54	54	12
97	97	8
56	56	13
80	81	5
42	44	5
40	80	3
44	45	2
76	76	16
93	96	2
44	44	4
36	40	6
73	73	8
68	68	22
69	69	11
49	49	7
41	41	5
74	75	3
21	24	1
26	41	1
61	73	1
31	31	5
66	68	1
51	51	20
63	63	7
40	41	1
63	66	2
72	79	4
50	94	1
46	46	8
79	80	3
66	67	6
80	87	1
94	94	7
63	93	3
69	70	3
85	86	5
50	50	4
74	74	17
55	101	1
31	32	3
20	21	2
99	101	3
73	74	4
96	96	9
78	79	3
35	36	4
95	95	7
100	101	4
82	82	16
34	34	7
62	63	8
56	57	2
60	60	11
94	95	3
58	58	7
89	91	6
47	47	6
93	95	1
90	91	4
101	101	9
22	23	1
68	69	2
47	68	2
65	66	5
45	48	13
42	42	10
76	106	1
36	37	3
80	80	7
48	48	5
32	32	12
79	79	6
28	66	4
87	87	7
86	86	3
50	77	2
33	34	2
72	73	5
55	55	7
64	64	9
67	79	2
37	95	3
57	82	1
27	28	3
27	27	9
76	103	2
84	88	3
61	61	5
67	100	2
84	86	6
43	43	6
92	93	1
68	103	2
29	29	4
99	100	2
66	78	3
88	88	7
36	45	1
40	42	4
38	38	2
70	77	1
105	105	4
28	87	1
25	25	2
82	83	3
57	68	5
39	54	1
53	53	9
26	27	5
28	29	1
92	92	3
84	85	2
61	95	1
72	72	5
25	26	3
63	64	5
57	57	4
91	91	8
22	24	1
47	48	9
33	33	2
28	28	4
82	84	2
75	76	4
21	27	1
21	21	9
53	78	4
55	72	2
60	63	1
71	71	7
78	90	1
24	31	1
24	26	3
84	84	1
30	30	7
75	75	2
48	81	5
97	99	3
23	23	5
39	39	8
29	31	1
39	45	2
46	47	1
59	84	2
29	30	2
98	99	2
36	36	4
72	80	1
55	62	1
68	73	1
78	78	2
20	20	2
34	50	1
87	88	2
36	103	2
104	104	4
35	69	1
89	89	7
36	51	1
37	78	2
88	98	2
61	62	1
20	24	1
99	104	1
40	40	3
41	42	1
26	40	1
72	74	2
60	106	2
93	93	3
62	62	4
21	32	1
45	45	1
71	100	2
52	76	2
71	72	2
33	35	1
35	91	1
59	61	1
64	67	1
52	52	2
93	94	1
83	86	2
38	80	3
36	82	2
26	30	3
23	39	1
21	106	2
54	55	1
38	46	1
76	99	1
36	73	1
86	87	1
20	31	1
39	42	1
67	77	1
89	90	1
39	47	1
69	94	1
47	95	1
61	90	1
32	33	1
70	81	1
107	107	1
80	99	1
49	71	1
25	41	1
