82	82	5
137	137	7
84	85	1
36	36	6
13	13	3
128	129	2
38	40	3
7	7	3
70	70	4
120	122	4
30	30	4
111	116	2
50	55	5
127	131	2
13	24	1
109	134	1
145	145	5
144	154	1
27	30	3
103	103	4
39	39	4
148	149	6
139	139	4
124	145	4
22	25	7
48	48	1
104	104	13
144	145	4
77	80	3
149	149	5
102	108	3
62	64	3
96	96	7
3	63	2
47	47	5
28	28	6
114	114	5
43	43	3
56	56	3
144	144	9
15	23	1
12	12	5
136	136	6
133	150	7
154	154	3
121	122	2
41	41	3
116	116	8
48	65	1
106	106	4
147	148	1
108	120	8
95	95	4
81	81	7
6	33	3
34	34	6
97	104	3
118	118	3
43	45	2
22	23	5
127	130	3
15	26	1
146	146	5
6	25	1
63	63	3
61	63	1
44	45	3
43	57	1
102	102	15
85	85	1
152	152	4
19	23	1
46	51	2
100	101	2
43	55	4
142	142	1
121	146	3
38	38	3
64	64	1
113	122	2
54	54	4
50	50	2
119	119	3
12	25	5
80	80	6
44	63	1
4	4	4
134	134	1
40	40	2
110	122	2
66	66	3
129	129	11
11	11	3
145	146	3
57	58	3
19	19	1
130	141	1
55	55	2
21	21	1
101	101	4
14	15	6
71	71	2
131	143	5
153	153	4
93	94	3
111	112	1
141	151	3
6	11	1
115	121	7
117	117	4
120	120	1
13	17	2
43	44	6
34	57	1
122	131	3
132	132	3
90	90	1
81	132	1
18	18	2
42	45	2
57	57	6
56	67	1
73	77	2
93	93	4
24	25	1
48	51	3
127	136	3
26	31	3
9	9	1
65	65	1
113	113	1
16	145	2
110	121	1
98	98	2
33	35	1
107	120	3
127	128	1
10	10	3
75	77	4
83	90	3
27	27	1
36	38	4
26	27	1
20	35	3
31	31	3
114	142	2
25	25	2
72	72	4
110	110	2
131	132	5
128	128	2
125	145	3
26	26	1
53	53	4
74	74	2
9	21	2
49	50	4
95	147	1
4	5	4
35	35	5
42	42	1
95	99	1
128	149	1
72	75	1
124	135	1
140	140	1
86	86	6
148	148	2
131	131	2
127	127	1
130	130	2
50	66	3
118	119	1
141	141	1
130	143	1
3	44	1
31	33	1
83	83	2
24	24	1
115	117	1
96	99	1
115	115	2
7	18	1
37	37	2
139	153	2
135	135	1
16	16	2
23	45	1
92	149	2
147	147	2
5	5	1
95	132	1
111	111	2
127	150	3
12	22	2
8	10	1
124	144	1
96	97	1
104	105	1
45	45	1
74	75	1
112	112	2
133	134	1
112	119	1
41	42	1
11	33	1
32	33	1
51	51	1
133	133	1
133	153	1
56	65	1
138	138	1
79	80	1
7	19	1
128	135	1
