68	90	3
107	118	2
19	34	1
54	79	8
138	138	5
74	77	4
132	139	1
103	103	2
99	109	4
24	55	4
59	59	3
23	26	2
124	124	2
2	2	6
82	82	10
60	60	5
71	72	2
135	137	1
27	39	4
16	16	6
106	108	3
74	74	9
42	42	3
64	66	1
59	71	2
129	129	10
72	85	5
106	106	3
69	79	4
22	25	2
113	123	2
120	139	3
4	4	5
77	77	8
30	30	6
136	140	1
18	20	3
26	26	2
61	76	4
89	93	1
63	77	4
35	35	7
131	131	4
1	3	1
127	140	1
78	78	8
75	75	4
21	21	5
92	92	4
34	47	2
33	33	7
15	32	1
55	55	8
111	111	3
122	135	1
67	67	2
104	129	1
19	19	3
133	144	3
110	120	4
88	88	1
144	144	10
34	35	2
15	17	2
114	122	1
75	76	2
30	51	2
106	117	2
105	109	2
62	62	3
95	95	5
79	91	3
96	102	4
33	34	1
1	11	2
11	13	3
141	141	8
18	18	4
130	141	1
31	35	2
39	39	7
10	10	8
127	127	7
41	42	6
71	76	4
70	86	1
112	119	4
52	62	1
30	31	4
43	43	1
95	113	2
133	134	6
101	107	2
121	121	4
113	126	1
84	84	6
101	113	1
82	109	2
67	78	1
29	29	7
58	89	2
132	132	2
57	76	1
0	0	3
121	128	3
114	116	2
142	142	3
74	90	2
5	12	3
125	125	6
77	87	3
88	104	2
99	104	1
3	42	3
139	146	4
52	53	5
132	141	2
130	130	2
61	61	5
17	18	1
3	28	3
56	59	4
13	36	2
13	14	2
145	145	2
9	10	2
100	100	2
122	122	5
105	119	2
82	87	8
102	103	1
81	97	3
56	56	3
12	12	3
102	126	2
65	85	2
105	107	2
4	31	2
20	20	4
14	23	3
48	48	1
14	14	2
31	31	6
87	92	2
66	74	1
52	55	1
23	40	2
125	138	1
119	119	2
79	97	2
82	98	2
67	82	2
107	107	5
57	70	2
114	114	1
59	108	1
6	6	7
112	118	2
52	52	8
68	69	1
136	138	2
29	30	6
69	83	4
112	115	2
116	131	1
4	20	1
27	40	1
36	38	2
8	29	2
104	104	4
123	125	2
102	102	8
94	103	3
41	41	2
143	144	1
84	85	2
77	92	1
9	9	6
101	103	1
27	27	4
90	92	4
73	73	4
49	49	1
37	41	1
13	21	1
49	110	1
79	94	1
67	84	2
85	85	2
123	124	1
134	135	1
64	70	1
36	40	2
132	135	1
97	98	1
0	3	2
116	116	4
51	54	1
128	141	1
54	54	2
4	18	1
87	104	2
23	38	2
96	96	5
60	71	1
64	75	3
127	141	1
20	39	2
123	136	1
121	141	2
83	84	4
35	36	2
128	134	1
68	80	1
93	93	2
63	63	4
96	99	3
32	32	4
15	15	1
47	47	3
113	143	1
82	93	4
87	88	1
105	105	1
20	35	1
131	132	4
123	142	3
137	137	3
141	145	4
15	23	2
131	135	1
81	101	1
115	127	1
91	110	1
73	84	7
57	64	1
126	126	4
94	104	3
98	98	1
37	37	2
104	110	2
71	73	1
72	84	1
114	130	2
17	17	1
38	40	1
90	90	7
13	25	3
67	98	1
0	5	3
57	62	1
81	85	2
14	32	1
57	67	4
71	71	1
126	133	3
64	80	3
22	38	2
33	36	3
108	115	1
64	64	3
124	139	2
3	3	3
62	67	1
53	53	1
43	52	1
107	114	1
128	128	2
121	131	2
62	73	3
32	61	1
89	98	1
6	11	1
66	66	3
100	101	3
27	35	3
72	72	2
36	36	2
94	111	2
117	131	1
113	121	1
137	138	2
40	43	4
136	136	4
49	74	4
98	103	1
79	80	1
132	146	1
113	113	2
57	57	3
121	132	1
114	131	2
23	24	1
28	28	2
23	23	2
110	110	2
58	58	1
19	35	2
80	92	1
34	40	2
55	59	1
37	53	1
53	54	3
69	73	1
80	81	1
32	38	1
139	139	1
52	60	1
18	29	2
13	13	2
2	13	1
70	83	3
38	38	1
68	98	2
72	86	2
15	31	1
109	112	2
19	36	2
99	105	1
0	11	1
18	54	1
22	22	1
3	24	1
146	146	1
72	80	2
130	135	1
132	133	2
109	109	1
40	40	2
11	23	1
143	143	2
77	81	1
60	76	1
113	114	2
113	130	1
66	72	1
112	112	1
53	57	1
65	65	1
3	12	2
2	10	2
105	106	1
140	145	1
72	83	1
87	90	1
80	80	1
120	132	2
113	127	2
1	8	1
22	36	1
79	79	1
74	80	1
83	83	1
111	133	1
9	29	1
123	123	2
69	81	1
53	55	1
116	127	1
51	51	1
28	29	1
64	98	1
5	22	1
35	47	2
127	145	1
99	108	1
65	81	1
127	142	1
11	11	1
50	70	1
112	120	1
43	51	1
60	63	1
87	87	1
110	114	1
104	117	1
70	70	1
122	124	1
86	87	1
101	101	2
108	108	1
58	75	1
101	137	1
58	63	1
104	120	1
54	64	1
13	31	1
101	135	1
130	142	1
125	136	1
25	26	1
57	78	1
5	5	1
105	122	1
74	79	1
88	106	1
125	128	1
65	66	1
65	82	1
