191	191	10
11	11	4
103	103	6
54	54	9
59	59	4
61	61	8
220	220	12
160	160	14
88	88	2
186	187	5
67	67	4
120	137	2
219	219	10
146	152	2
162	171	4
148	148	5
121	121	4
175	176	7
154	156	5
66	66	3
158	158	11
17	18	4
104	107	9
22	22	8
150	150	1
134	206	2
185	186	3
178	230	2
24	25	4
242	242	7
203	203	5
231	231	5
182	182	4
218	218	9
189	189	2
134	134	12
204	208	3
205	206	10
10	10	13
117	117	9
57	57	3
128	129	1
105	105	13
221	221	10
81	81	6
181	182	5
17	19	3
41	42	2
16	84	6
213	213	6
40	42	2
166	166	4
35	38	4
207	207	5
16	85	1
58	60	3
183	183	3
166	168	4
147	148	3
56	219	2
155	155	8
98	98	2
236	237	2
202	203	7
3	19	1
125	193	2
178	180	2
199	199	2
40	41	3
122	212	3
21	21	5
214	216	5
79	79	5
19	85	4
72	76	3
106	106	6
156	157	5
181	181	6
35	36	4
124	125	3
9	82	4
61	65	3
5	5	5
11	15	1
53	53	2
175	175	12
201	201	12
215	215	9
32	32	1
235	235	5
121	152	3
197	198	1
27	27	16
1	22	1
221	222	7
60	116	3
144	145	5
172	172	5
162	162	3
136	136	3
136	223	3
4	13	6
99	99	1
143	143	6
137	138	4
78	78	12
33	33	4
153	162	1
118	123	1
169	169	14
31	31	13
159	159	9
43	43	13
59	60	3
170	170	6
202	202	10
188	188	5
111	112	5
6	6	5
31	59	9
195	195	3
34	88	2
19	84	2
197	205	5
171	184	2
22	23	7
153	154	3
185	187	2
122	125	6
49	49	5
46	47	4
188	189	11
156	156	5
240	240	3
233	233	10
153	153	9
86	86	6
173	173	4
55	55	5
20	20	9
57	131	3
126	139	2
228	229	4
153	164	6
72	72	1
84	84	6
232	232	8
32	70	3
129	133	5
46	46	5
34	34	4
119	176	5
26	64	7
35	35	3
194	194	10
196	216	3
69	75	7
159	168	3
209	209	8
195	207	3
198	198	1
167	168	6
226	227	1
206	206	5
65	65	6
109	113	4
83	83	5
75	75	8
164	164	1
109	110	2
151	151	4
123	212	2
64	64	4
9	108	4
197	197	5
160	161	1
100	100	6
0	148	2
190	190	5
113	144	3
163	170	1
60	60	5
138	138	4
77	80	5
72	80	5
66	68	2
82	83	2
80	80	8
177	177	8
229	229	5
36	36	4
217	217	10
174	232	3
26	27	4
225	226	4
44	44	6
70	70	7
237	238	1
128	128	3
101	101	13
225	230	2
57	142	1
137	137	6
28	28	5
224	229	3
3	20	8
50	53	8
38	38	5
199	213	1
154	164	2
118	137	5
69	69	11
205	205	1
50	50	4
95	96	3
42	146	2
133	133	9
226	226	5
174	174	2
195	216	5
28	34	3
125	143	2
171	171	6
68	68	7
204	206	2
62	62	7
177	231	1
96	101	3
32	33	9
82	82	2
228	228	2
237	240	1
205	207	1
160	162	2
34	79	1
24	26	1
235	236	2
69	79	2
124	124	5
40	59	2
97	97	3
57	203	3
185	188	1
127	142	1
132	132	1
56	57	1
45	46	6
164	165	3
10	240	1
134	212	1
83	84	1
85	85	3
20	23	1
102	102	2
197	201	4
47	47	5
173	174	3
48	54	1
159	167	3
130	134	1
129	129	3
54	55	2
96	105	3
75	76	2
10	239	1
39	73	1
51	51	5
174	176	3
202	213	6
109	174	1
11	100	1
124	210	3
111	111	7
45	45	2
57	198	1
70	71	2
19	20	4
127	127	1
236	238	1
116	116	2
178	231	2
12	12	5
148	149	3
17	17	2
60	65	2
230	230	3
60	68	1
43	44	1
15	16	2
144	152	1
109	179	5
145	146	3
2	2	1
18	18	4
225	225	2
180	180	4
192	219	2
31	41	2
23	23	4
66	210	3
16	17	3
48	52	1
43	129	3
120	120	5
33	36	1
238	238	2
223	223	2
213	214	2
46	159	3
181	183	3
120	147	2
75	80	1
36	78	2
137	139	1
215	216	2
211	211	2
114	119	2
82	85	2
0	0	2
101	102	6
163	164	1
101	103	1
7	12	3
115	139	2
163	187	1
200	200	4
241	241	3
60	128	3
222	223	3
211	221	1
39	39	4
133	134	2
209	211	2
64	140	1
119	143	1
59	114	5
121	148	1
235	242	1
110	120	1
198	202	1
87	88	5
166	167	1
132	133	4
71	73	2
118	125	2
185	185	3
138	210	4
120	121	3
102	104	3
56	56	3
225	229	3
28	30	1
236	236	3
199	200	5
167	171	3
56	204	1
163	186	5
134	136	2
170	171	3
42	42	3
184	184	1
109	109	3
116	121	1
43	145	1
1	1	2
159	184	2
74	74	3
23	86	1
175	223	1
30	31	1
95	151	3
120	124	4
14	15	5
122	122	3
73	73	1
149	149	5
132	135	2
122	176	1
0	1	1
57	134	4
154	185	1
59	116	3
179	179	1
234	234	3
58	58	1
34	80	1
37	37	2
107	107	2
47	49	1
63	63	6
28	31	7
46	53	2
51	52	1
102	103	2
111	134	2
14	81	1
105	106	2
158	161	3
24	24	3
9	9	1
176	176	1
123	174	3
3	17	1
11	99	3
217	218	1
78	79	1
63	66	3
124	211	3
192	196	2
48	48	2
99	233	1
124	212	1
50	52	1
115	115	2
216	216	5
33	40	1
44	129	1
6	11	1
235	238	1
3	21	3
27	30	1
199	211	2
135	135	6
7	7	1
2	100	1
204	218	2
57	206	1
75	78	3
239	239	1
214	218	1
156	189	1
160	181	1
153	183	2
124	126	2
184	185	1
59	68	1
167	167	2
116	150	3
55	219	2
198	217	3
119	122	3
13	13	2
225	231	1
151	152	2
137	210	1
185	220	3
196	213	1
158	160	1
21	22	2
33	69	1
65	66	2
192	192	1
169	231	1
237	237	1
215	217	2
25	25	1
114	115	1
205	221	1
193	194	1
188	190	1
33	79	2
159	166	1
126	137	1
146	146	2
12	107	2
95	118	1
234	235	1
3	18	2
103	106	1
23	88	1
194	215	1
58	59	1
212	212	2
214	215	1
154	157	1
60	61	1
60	139	1
225	228	1
20	21	1
59	130	1
30	116	1
119	120	2
174	175	1
139	139	1
147	147	1
113	233	1
238	239	1
0	21	1
44	131	1
154	155	1
198	199	1
114	114	1
13	14	1
42	147	1
77	77	1
96	96	1
105	108	1
