38	38	11
107	107	21
142	144	3
39	39	16
87	87	20
126	127	14
69	71	4
96	96	12
123	125	8
19	19	15
102	102	17
141	141	18
40	40	21
27	27	27
11	11	9
104	104	22
5	43	5
2	24	5
2	2	16
36	36	9
118	119	7
23	23	13
83	85	1
28	28	12
125	125	20
85	86	2
108	109	3
84	85	9
103	103	12
110	110	20
113	113	10
24	24	21
26	26	6
13	13	7
73	74	9
12	13	10
90	90	15
60	60	7
135	135	11
17	18	2
124	124	28
111	111	12
128	128	21
48	48	14
117	117	15
97	97	14
47	51	5
98	99	3
72	72	13
81	81	24
51	51	14
76	104	4
129	129	12
136	136	21
22	67	7
36	38	2
127	127	11
32	52	3
59	60	10
59	59	10
111	112	5
38	39	2
95	95	12
134	134	19
120	134	4
104	105	20
29	29	13
130	131	9
53	54	3
18	18	16
17	17	11
123	123	11
5	35	1
62	62	9
86	86	10
26	27	7
83	83	11
89	89	16
75	76	5
50	75	1
74	74	10
80	88	3
123	124	2
57	58	5
41	41	21
92	93	3
54	54	6
146	146	8
30	30	17
101	102	2
26	58	3
6	6	14
49	73	6
35	36	3
108	108	10
49	49	21
79	80	7
30	96	2
112	113	3
121	121	11
132	133	10
61	61	19
98	98	15
82	82	11
80	80	19
125	128	2
99	99	10
144	144	7
120	121	2
14	16	1
131	131	15
21	21	13
25	26	3
67	67	10
78	79	7
97	98	16
130	130	23
34	51	3
71	71	22
58	58	8
65	65	12
113	114	5
43	43	7
82	83	5
24	56	1
70	70	8
50	50	24
143	143	8
100	101	5
133	133	10
84	84	14
32	32	18
77	103	1
87	88	10
4	14	2
33	33	16
37	37	14
80	81	1
87	90	4
118	118	15
135	140	4
10	10	8
141	142	2
91	91	15
91	92	3
100	100	4
47	47	8
57	57	6
25	25	21
88	88	5
129	133	5
70	73	1
127	129	3
111	114	2
10	11	1
115	115	2
73	73	14
81	114	4
137	137	8
101	101	20
42	59	1
106	107	11
97	136	5
145	145	7
32	33	2
140	141	4
0	0	6
138	138	7
63	63	16
122	123	2
5	37	3
64	65	14
20	20	5
13	16	2
56	56	10
41	42	2
1	1	9
55	56	6
70	71	6
105	105	8
53	72	2
99	117	2
3	36	2
60	61	3
105	135	1
68	68	11
2	3	11
16	16	15
76	77	3
94	94	14
79	79	17
94	98	2
5	5	4
3	3	9
85	85	14
132	132	15
125	127	1
104	106	2
135	136	4
1	3	2
8	8	10
72	76	2
74	75	12
5	114	2
137	139	3
142	142	5
18	19	2
27	29	2
139	140	3
23	24	6
93	98	1
17	25	2
37	63	2
129	130	5
61	66	4
46	48	2
93	93	12
77	79	7
9	10	1
79	117	3
116	117	7
117	118	5
26	102	5
120	132	2
12	12	7
120	131	2
34	34	7
31	31	5
50	52	1
4	5	3
16	17	4
55	55	14
109	109	7
77	77	3
120	120	7
64	64	4
78	78	17
1	2	8
119	133	4
62	63	7
75	75	2
120	130	2
14	14	4
9	9	9
53	53	12
23	54	9
72	122	5
131	132	4
66	66	6
96	97	2
47	48	1
25	42	3
110	112	2
75	77	5
106	106	5
116	116	9
87	89	1
123	128	1
21	23	3
99	100	3
14	34	2
114	114	13
14	24	3
0	22	2
122	122	11
56	85	2
1	65	2
42	42	9
4	33	2
63	64	5
47	52	1
28	29	3
5	6	1
93	94	8
21	22	1
115	117	2
80	82	1
140	140	11
92	94	4
54	55	3
119	119	13
126	126	6
48	50	3
16	76	2
76	76	11
52	80	2
52	64	4
95	96	3
19	42	1
25	27	1
118	133	3
6	43	2
16	19	5
4	36	5
49	85	1
8	10	2
133	135	1
1	4	1
17	41	1
6	39	1
58	63	2
92	92	11
104	137	2
99	102	1
113	115	3
112	112	7
15	15	10
124	125	3
4	13	1
75	121	4
34	35	2
87	95	1
110	111	4
119	139	1
26	67	1
59	87	2
10	38	1
61	63	3
89	96	1
134	135	1
4	4	3
0	1	4
4	34	1
88	89	3
50	51	4
14	35	2
80	115	5
89	90	4
30	32	2
18	25	2
27	88	4
80	114	3
106	108	1
20	21	1
11	17	2
58	59	5
1	23	2
30	65	2
83	84	3
39	40	3
36	96	2
18	37	2
52	52	8
102	103	3
90	91	2
78	141	2
32	57	2
42	43	1
71	72	3
35	35	6
139	139	4
55	59	2
107	108	2
50	109	2
49	50	3
82	85	3
34	54	1
61	141	1
0	2	1
2	12	1
22	23	1
111	115	3
56	57	1
27	28	3
95	97	2
143	144	1
25	74	1
90	101	2
16	18	1
25	80	1
18	42	1
66	67	4
2	18	2
109	110	4
128	129	3
13	53	2
32	81	1
22	22	6
38	94	4
136	138	1
137	138	6
75	105	1
2	6	2
52	53	3
86	98	2
136	140	3
142	143	5
37	38	1
12	39	3
5	34	2
69	69	2
99	142	1
57	62	1
121	131	1
24	55	3
17	106	1
22	68	2
105	137	1
20	34	4
66	69	1
74	125	2
138	140	1
33	53	2
61	62	2
65	66	2
72	73	1
68	69	2
3	23	1
121	122	2
56	86	1
28	30	3
80	102	1
27	87	1
81	96	1
71	74	1
129	134	1
103	104	2
36	37	1
145	146	1
22	39	1
70	72	1
8	9	1
82	110	2
75	78	1
24	25	1
51	55	1
71	124	1
74	91	1
61	137	2
15	16	1
16	145	1
63	72	1
89	91	1
51	76	1
19	20	1
26	53	1
67	70	1
11	108	2
114	115	2
2	39	1
15	19	1
62	67	1
31	67	1
130	134	1
79	115	1
19	37	1
54	56	1
29	68	1
31	32	1
24	54	1
