88	88	12
99	99	8
151	158	4
44	44	14
59	59	6
148	148	8
52	62	2
164	164	8
121	121	6
66	157	4
139	141	2
115	118	3
45	45	11
127	127	10
4	21	1
106	106	8
163	163	2
162	163	4
0	0	7
103	103	7
107	107	5
31	32	3
115	116	4
43	104	4
88	166	1
96	97	6
104	106	3
146	146	16
141	141	17
101	102	1
4	5	2
162	162	15
131	131	13
128	128	14
73	73	3
36	36	18
63	63	11
159	159	12
102	103	5
85	85	4
64	64	10
13	13	10
133	133	12
3	5	3
39	40	6
150	169	3
176	176	2
118	118	9
105	105	3
70	73	1
31	31	15
60	60	11
131	132	10
168	168	16
153	153	6
53	53	11
94	94	9
60	61	10
33	33	15
86	86	9
126	126	10
38	38	6
74	74	5
173	173	17
58	58	4
81	164	1
50	50	5
41	41	9
116	116	3
158	158	10
145	145	13
27	28	4
137	145	3
169	169	6
155	155	12
119	119	5
130	130	14
156	156	6
166	166	5
42	42	15
99	100	4
6	6	2
27	27	8
30	104	1
70	71	4
15	115	3
93	93	14
57	57	4
96	96	7
140	140	7
106	107	9
150	150	10
39	39	4
157	157	12
143	153	8
167	167	4
174	175	3
111	111	6
23	23	9
66	66	3
113	128	2
97	98	6
37	37	14
150	159	1
25	27	3
34	34	13
4	4	3
72	72	8
98	123	5
147	148	9
24	24	10
178	178	5
132	132	18
1	3	1
16	16	6
113	114	2
124	124	17
80	80	2
129	129	3
9	9	6
15	44	1
120	120	13
161	162	5
90	93	4
43	112	2
15	15	2
55	55	5
42	105	2
56	121	5
97	97	5
2	3	4
137	137	9
14	14	19
112	112	9
28	30	2
61	61	8
180	180	7
89	89	11
100	100	3
149	149	15
107	109	6
35	35	10
29	29	2
125	125	14
156	157	3
121	124	4
154	154	2
174	174	10
40	40	10
144	144	1
1	1	5
73	75	2
91	91	6
53	58	1
104	104	12
6	43	1
154	155	3
11	11	4
123	123	18
117	118	6
179	179	2
37	39	1
160	162	1
14	107	1
83	85	3
165	165	12
102	102	5
19	19	3
172	172	8
54	54	4
84	86	3
113	113	7
87	87	9
9	10	2
138	138	13
114	114	3
164	174	2
53	62	1
52	52	7
135	135	2
31	107	3
70	70	2
153	155	3
107	108	3
30	33	2
65	66	3
19	20	4
58	59	5
1	179	1
99	101	5
147	147	2
130	135	3
83	91	2
57	68	1
113	180	2
68	68	2
64	66	2
62	63	5
175	175	5
83	83	3
108	108	1
51	52	1
6	8	4
108	112	1
52	53	2
85	159	4
7	7	7
137	139	1
56	56	9
105	107	6
16	110	3
82	85	3
91	94	1
55	57	4
56	57	1
19	21	2
98	98	4
166	167	1
103	105	1
66	90	1
72	74	3
132	133	5
6	84	3
105	106	6
144	145	9
77	136	3
68	90	2
3	74	2
133	150	3
44	91	1
140	149	3
95	128	2
49	167	1
55	140	5
18	24	4
116	118	3
68	169	4
167	168	2
76	77	3
93	94	2
136	137	1
107	122	3
176	178	1
75	75	3
110	111	3
26	26	1
78	78	11
21	21	2
33	34	3
78	80	1
140	142	1
25	26	10
32	32	5
127	159	6
28	28	5
22	23	3
114	116	3
108	109	3
81	82	8
65	65	3
57	66	2
161	161	2
66	67	4
71	77	3
0	1	1
44	90	1
51	51	3
135	171	1
134	168	1
92	93	2
22	22	2
26	37	2
16	114	2
148	150	2
67	67	3
62	81	1
159	160	3
24	26	3
171	173	2
114	115	4
43	43	4
40	41	1
90	92	1
63	160	3
82	82	12
119	120	1
56	145	3
34	35	1
65	72	2
94	98	2
22	25	1
29	30	3
122	122	6
115	115	3
154	156	3
81	81	3
134	134	5
87	88	2
10	10	5
164	166	1
134	150	2
170	171	2
171	172	2
110	110	1
3	3	3
35	43	1
160	160	4
15	50	1
43	107	1
65	90	1
77	173	2
16	50	1
117	117	7
95	95	9
82	83	1
111	112	2
121	122	1
80	162	1
175	176	8
42	110	1
71	72	3
146	153	2
132	158	2
30	30	8
8	8	5
117	120	1
170	172	1
10	13	2
66	156	1
23	40	5
82	92	3
154	157	2
136	144	1
23	26	1
24	25	4
79	80	1
79	79	10
151	151	3
127	128	6
4	12	1
55	56	3
76	76	3
151	159	2
155	156	8
130	177	1
84	84	4
145	146	1
82	163	4
152	152	1
29	31	4
77	135	2
137	138	1
77	79	3
77	78	1
17	24	2
21	111	2
90	90	2
41	42	2
118	119	1
44	113	1
138	139	2
63	66	1
139	139	3
24	104	2
116	117	3
92	92	4
35	36	1
162	168	2
2	2	3
8	9	3
176	179	2
109	109	1
18	110	2
84	85	2
27	30	2
23	24	2
65	156	1
130	174	1
172	174	2
177	178	4
8	10	1
21	22	1
9	12	2
62	160	3
143	143	3
27	37	1
171	171	1
86	158	1
4	8	1
177	177	1
43	114	3
50	52	1
98	99	2
63	65	1
77	77	1
62	161	2
49	64	2
57	147	1
128	130	1
170	170	3
72	75	1
148	153	2
22	24	1
128	129	1
91	93	1
61	62	1
90	91	1
3	4	1
62	62	2
164	165	1
30	35	1
109	122	2
130	131	1
59	61	1
83	84	1
104	105	3
35	37	2
15	113	1
28	29	1
84	95	1
26	39	1
85	95	1
8	12	1
60	72	1
157	158	1
134	149	1
112	113	1
26	27	1
11	14	1
30	31	1
53	92	1
62	162	1
161	163	1
22	41	1
