96	101	2
77	82	1
34	34	15
130	130	13
87	87	10
15	15	7
6	7	8
35	35	3
72	72	12
82	84	3
71	114	2
125	125	3
83	83	9
84	84	10
15	120	2
13	119	1
28	28	20
26	26	8
2	92	3
71	71	5
2	2	9
82	82	7
96	98	1
5	14	2
28	29	2
17	19	5
85	85	10
17	18	6
108	108	2
101	101	17
134	135	1
14	129	2
127	127	13
31	31	10
17	17	6
26	37	2
84	85	4
38	38	4
137	137	3
103	103	15
131	131	13
126	126	8
102	102	8
91	92	1
11	11	17
76	76	2
12	129	1
101	111	3
91	118	4
7	7	7
18	18	3
113	125	2
73	73	6
29	30	8
3	3	4
74	74	7
16	17	5
111	111	9
132	132	5
25	25	10
116	120	1
21	21	6
114	114	8
26	27	6
113	113	5
123	123	7
23	24	6
121	121	4
119	124	2
87	93	3
89	89	10
94	94	2
118	118	2
20	20	11
19	20	1
99	99	4
81	81	10
119	119	14
106	106	10
133	133	5
19	21	6
78	78	7
15	21	4
23	29	3
75	130	5
16	16	6
14	127	2
19	19	19
92	92	7
88	88	11
110	110	7
135	135	5
115	115	3
8	8	9
124	124	11
23	23	5
89	90	2
91	93	5
29	29	4
136	136	7
6	31	1
36	36	4
109	115	1
128	129	8
136	138	3
118	121	2
136	139	3
127	128	2
27	27	8
90	90	3
8	9	3
105	106	4
10	10	4
77	77	5
81	84	2
6	13	3
73	113	2
75	75	7
91	91	2
12	12	4
79	79	4
109	110	5
97	97	4
107	107	2
22	23	3
27	28	4
25	26	2
95	95	5
11	29	3
8	13	2
85	113	2
95	96	1
32	32	8
129	129	9
37	38	3
102	103	1
77	78	2
112	112	7
139	139	5
89	92	2
37	37	5
80	113	1
87	88	6
13	127	2
80	80	10
86	87	1
14	22	1
87	123	4
71	76	2
109	109	5
20	102	4
123	124	4
103	104	2
33	33	10
12	14	1
5	5	8
104	104	1
108	110	4
8	22	1
140	140	6
81	83	5
133	134	1
97	99	1
103	112	3
9	9	4
93	115	1
86	115	2
104	105	7
72	73	5
117	117	5
36	37	1
4	4	5
90	91	1
93	93	8
130	131	4
30	31	1
128	128	1
6	29	1
83	121	3
114	125	1
98	98	3
97	98	5
114	121	3
134	134	1
120	122	2
0	76	1
108	109	2
118	120	4
80	82	1
13	13	3
74	98	1
100	108	2
86	86	2
6	6	2
0	21	3
88	89	1
27	31	1
121	122	2
7	14	1
14	14	2
113	114	1
94	95	2
129	130	1
8	23	3
133	135	1
73	119	2
111	116	1
30	32	1
3	88	1
104	113	2
94	110	1
89	124	2
105	105	5
24	24	2
95	109	1
109	111	2
102	112	2
122	122	2
23	25	2
31	32	3
83	85	2
77	130	2
96	97	2
138	138	1
114	115	1
102	110	1
30	30	1
84	115	3
16	28	2
86	94	1
73	74	3
14	36	2
81	82	4
125	126	2
73	98	2
115	120	4
3	90	1
76	77	1
96	100	1
4	6	1
102	109	1
0	0	1
7	8	3
83	99	2
91	96	1
117	121	1
98	101	2
118	119	1
24	26	1
74	75	2
21	22	1
15	16	1
108	118	1
116	116	2
92	93	1
79	97	2
0	126	1
89	105	1
104	114	1
3	4	1
4	12	1
69	69	1
22	22	2
1	1	1
79	115	1
86	91	1
100	100	1
97	110	1
73	82	1
100	101	1
6	8	1
