12	12	7
92	92	4
88	88	10
215	217	2
65	74	3
166	166	7
231	231	6
83	83	2
104	105	3
7	7	4
63	79	4
109	109	9
38	38	3
18	18	4
16	31	7
22	23	7
88	92	1
90	93	3
5	5	9
214	214	17
78	78	5
186	194	1
151	152	4
117	117	18
8	8	11
81	81	6
193	218	4
96	96	5
163	165	3
37	37	16
82	82	3
204	205	1
119	120	3
6	6	3
218	230	2
235	236	2
170	170	4
236	236	5
246	246	12
71	72	2
233	233	7
94	94	6
52	52	18
73	73	9
40	41	1
45	45	7
229	229	10
46	46	12
247	247	4
29	29	5
187	187	3
21	22	2
196	196	11
93	119	1
80	84	1
238	238	5
87	87	1
66	66	4
9	9	6
174	174	2
75	75	9
224	224	8
95	95	6
85	85	8
178	178	4
162	162	5
176	176	4
225	225	9
209	209	15
89	89	7
245	245	6
91	91	5
116	116	5
111	111	12
60	61	2
86	86	4
69	119	2
228	228	4
171	204	5
41	41	6
232	232	9
47	47	5
98	119	8
104	108	1
198	198	13
101	101	2
182	221	2
203	204	2
192	192	11
93	93	12
29	207	2
43	43	8
72	72	6
169	181	2
206	207	4
77	77	4
198	200	1
166	234	3
226	226	5
158	158	12
19	19	10
164	164	8
205	205	4
67	90	1
217	217	2
59	60	4
186	193	3
201	201	7
160	179	1
219	230	2
169	169	3
204	204	4
10	10	6
21	21	2
30	172	1
1	3	4
234	234	2
53	54	3
24	24	2
241	242	5
26	26	9
166	235	3
59	59	4
172	172	4
71	73	4
160	160	4
191	191	8
212	212	8
179	222	3
61	61	2
221	222	5
154	154	13
31	31	3
37	38	2
68	88	3
66	67	1
60	62	1
230	231	9
23	23	6
215	215	15
105	201	1
25	25	7
116	118	6
213	213	7
40	40	6
25	75	1
64	65	3
65	65	2
191	195	1
119	119	2
223	223	7
110	110	7
28	28	9
232	233	3
45	46	3
33	33	8
193	194	6
82	83	7
67	68	6
114	115	5
241	241	1
48	48	2
29	30	5
60	236	2
246	247	2
197	198	1
215	216	1
5	6	4
163	164	1
111	115	1
30	30	6
20	183	3
182	182	10
31	171	1
23	24	2
224	225	3
90	90	8
112	112	3
24	25	4
112	115	4
10	203	1
90	91	2
159	159	3
56	67	2
210	211	2
188	189	3
115	116	4
111	116	5
84	85	1
142	142	2
31	32	4
116	117	2
151	151	9
162	224	2
184	184	2
211	211	4
159	177	4
16	16	4
42	42	7
184	185	7
35	36	3
85	244	3
244	244	12
185	185	12
159	160	3
96	97	5
156	156	7
181	181	5
180	180	2
77	78	2
202	202	4
25	38	4
232	247	2
210	210	8
81	83	1
160	161	2
220	220	6
46	47	2
61	62	2
189	189	2
222	223	2
100	111	5
218	218	2
80	80	2
203	203	6
165	165	7
2	2	2
104	107	1
100	100	12
51	103	3
199	199	4
153	153	4
173	174	2
170	171	7
90	92	4
79	80	4
32	32	7
84	84	7
227	227	5
20	20	5
14	18	2
200	200	5
168	170	2
150	150	4
242	242	5
197	218	5
203	220	1
72	73	5
182	183	1
88	93	2
200	221	3
54	54	4
152	152	6
5	7	1
64	64	6
154	155	4
171	171	2
44	44	1
219	231	2
10	18	1
7	204	3
14	15	3
18	19	1
53	85	2
174	175	1
226	227	5
62	62	5
110	111	3
183	183	4
47	174	3
167	167	1
70	71	1
187	188	1
80	81	4
113	115	3
167	234	2
27	27	3
70	74	6
64	79	3
67	67	6
145	145	1
236	237	1
179	179	5
166	239	5
34	34	1
57	57	2
81	82	2
69	118	2
213	214	3
165	166	2
86	87	2
208	208	4
53	243	2
88	101	3
87	120	1
78	79	2
53	53	1
68	68	4
115	115	3
14	14	6
191	192	3
74	74	2
168	183	2
62	81	2
73	76	4
65	100	2
104	104	2
207	207	5
56	58	2
44	45	3
95	96	4
234	235	3
223	224	5
104	121	1
64	77	1
175	175	3
183	184	2
198	199	2
60	245	1
20	21	1
82	84	4
25	26	1
95	101	1
113	114	9
52	54	1
94	95	1
225	226	2
199	200	3
75	76	1
172	173	5
149	153	1
35	35	4
214	215	4
91	92	4
160	227	2
121	121	3
206	206	2
155	155	4
120	120	3
71	71	6
149	150	1
10	32	1
112	113	2
244	245	3
79	79	1
8	31	1
185	194	2
145	154	1
100	101	1
32	33	4
85	86	1
15	15	1
168	181	3
167	235	1
85	87	1
240	240	1
243	243	1
147	147	1
179	183	2
190	190	2
173	173	3
51	51	2
181	221	1
32	205	2
76	76	1
56	57	1
158	175	2
180	181	2
219	220	2
181	209	1
11	11	3
12	246	1
27	173	1
114	114	2
1	1	2
145	153	1
203	205	2
176	177	3
248	248	1
189	190	1
230	230	1
216	216	2
34	38	1
99	118	2
55	55	1
231	232	1
26	27	1
229	230	1
160	223	2
233	234	1
82	85	2
63	64	1
60	60	1
162	189	2
15	19	1
61	82	1
247	248	2
160	226	1
188	190	1
157	157	1
188	188	1
158	159	1
8	9	1
153	157	1
211	212	1
181	222	1
192	232	1
164	165	1
17	19	1
168	169	1
232	234	1
22	22	1
108	108	1
55	84	1
10	11	1
105	106	1
194	194	1
240	241	1
48	174	1
193	233	1
101	109	1
39	39	1
12	20	1
195	195	1
