168	168	3
152	163	3
125	125	10
22	23	7
1	1	14
116	133	1
95	96	1
114	114	4
47	47	12
24	24	16
163	163	3
154	164	3
174	174	16
153	154	2
87	87	14
13	13	11
16	16	5
158	158	8
95	95	6
123	126	2
6	26	6
57	99	2
55	55	8
63	63	4
175	176	9
119	119	14
41	41	13
6	6	16
85	87	3
135	135	9
70	70	5
145	145	13
3	3	6
166	166	4
13	87	1
56	56	7
183	183	19
15	15	13
109	110	3
188	189	5
157	157	21
132	134	2
113	116	2
91	92	9
26	26	1
108	109	3
64	74	3
130	130	15
149	149	19
57	115	5
89	89	9
176	184	1
76	78	5
152	152	9
158	174	2
18	19	2
65	76	3
172	172	5
60	60	10
89	99	6
33	34	10
62	62	8
122	135	2
54	54	3
98	99	1
105	107	6
125	128	3
80	80	7
28	28	8
25	27	2
36	36	5
83	98	2
170	170	9
19	19	16
35	35	10
173	176	2
89	90	7
22	22	8
187	188	3
78	78	16
95	112	1
2	2	13
101	102	7
26	35	3
1	6	1
134	145	1
110	111	6
7	7	4
40	128	4
29	29	13
63	64	2
40	41	2
178	179	8
83	83	6
116	116	12
186	186	4
89	141	5
157	171	3
169	169	16
102	102	5
56	63	2
157	158	13
44	139	2
80	81	8
167	182	2
78	79	4
54	60	3
122	133	1
138	138	16
144	144	8
145	146	3
131	131	16
185	185	13
161	169	5
117	119	2
20	27	5
57	57	2
187	190	1
172	174	2
21	21	10
54	99	4
85	89	4
148	152	5
117	117	6
107	125	2
75	76	7
127	133	3
159	174	5
132	135	3
141	156	4
154	155	3
59	60	3
0	0	17
136	138	2
189	189	8
111	117	5
42	42	11
112	112	5
14	15	6
30	33	2
164	164	5
55	73	2
10	27	2
20	20	12
100	100	7
18	24	3
169	171	9
26	30	2
23	23	7
69	150	8
167	167	5
132	132	5
190	190	6
148	148	8
12	36	6
42	124	1
1	8	2
110	119	1
143	143	9
151	152	11
138	142	1
44	44	2
85	85	12
144	145	4
138	139	2
58	58	7
79	79	14
8	8	5
65	74	3
66	67	1
163	167	2
52	72	2
90	106	1
64	64	2
179	179	10
88	88	9
113	113	7
6	24	2
74	74	13
139	139	8
96	97	6
21	22	10
128	148	5
4	4	1
24	38	4
108	108	13
68	68	12
116	122	5
40	40	2
13	14	1
68	69	3
151	151	9
34	40	4
180	182	6
159	181	1
175	175	4
134	159	1
112	121	3
33	33	10
153	153	9
88	111	3
86	111	3
184	185	4
82	85	1
12	12	15
21	24	2
104	117	5
155	168	2
166	167	7
180	180	3
177	177	7
69	72	3
25	25	4
56	61	1
89	103	4
61	64	8
59	91	4
177	178	6
65	65	4
121	121	9
126	126	5
182	183	6
172	186	2
73	74	7
147	149	3
75	75	13
137	146	4
184	187	1
39	39	5
29	120	2
73	73	6
90	115	4
84	84	7
149	154	2
167	169	1
55	59	3
155	156	5
122	122	5
32	32	13
180	181	10
170	180	3
92	92	9
140	155	1
153	155	1
173	173	11
162	182	2
27	27	5
47	49	1
187	187	18
31	31	11
101	117	3
189	190	8
160	161	6
68	147	3
67	151	6
160	180	6
148	149	6
150	158	2
154	154	11
174	183	1
124	125	2
103	117	4
66	68	3
48	88	4
96	111	2
22	24	1
118	139	1
156	156	2
10	10	4
45	133	3
81	93	4
106	106	5
128	128	12
88	89	4
25	138	3
46	46	10
127	138	4
81	95	5
83	85	1
102	103	1
117	118	9
182	182	10
11	11	4
119	120	3
86	87	5
129	148	3
107	107	6
0	8	1
160	160	5
32	33	8
88	92	3
10	26	4
14	14	1
18	18	11
11	37	2
7	9	1
142	142	6
66	66	18
17	17	7
110	110	10
61	63	4
154	157	2
53	53	14
25	38	3
118	118	20
48	48	17
73	86	1
112	125	2
87	88	6
0	191	3
178	178	6
78	85	2
72	73	3
171	171	9
27	29	9
45	45	10
54	62	2
53	122	1
69	70	2
45	135	2
43	47	4
77	77	5
136	136	6
65	66	5
105	105	3
93	94	7
79	82	5
43	43	6
188	188	2
1	9	1
21	23	3
164	165	2
89	140	2
150	150	8
129	129	7
134	135	5
76	77	4
181	181	3
44	45	7
100	123	2
124	129	5
26	29	1
102	104	2
184	190	2
37	37	6
90	105	3
39	44	6
184	184	6
168	180	3
85	116	3
64	81	5
33	36	4
101	101	8
65	151	5
53	67	2
151	160	1
36	138	1
35	37	4
80	166	1
74	79	2
144	151	1
173	185	3
56	58	3
148	150	2
5	5	3
81	81	9
58	85	2
30	38	1
103	104	5
62	63	3
161	161	4
58	59	2
57	102	1
30	30	7
121	138	2
68	98	3
141	142	3
94	103	1
134	143	2
100	105	3
176	185	3
118	120	1
104	104	12
123	125	5
85	97	2
94	94	6
1	83	2
29	119	2
84	86	1
159	163	5
4	5	2
71	115	1
125	126	2
4	25	2
16	17	4
45	46	6
169	170	3
37	39	1
111	111	1
64	65	2
1	2	2
19	22	2
115	116	3
90	90	4
176	176	3
158	170	1
90	101	2
133	133	2
140	141	3
110	112	4
100	102	1
63	66	1
148	153	1
2	103	3
67	67	8
129	130	5
53	54	2
93	93	7
119	128	4
5	16	5
15	134	3
111	112	2
157	160	1
188	190	2
98	98	2
161	164	2
172	173	2
82	82	7
148	151	2
160	162	2
156	171	1
116	117	2
120	120	3
182	187	2
75	117	1
163	177	1
59	59	3
164	167	2
176	178	1
136	137	4
87	101	1
31	85	1
158	171	1
124	148	2
126	130	2
91	106	5
105	106	7
16	39	3
143	144	4
137	137	8
78	80	2
92	94	1
173	177	2
25	29	2
16	135	1
165	165	1
79	92	2
88	122	2
137	138	1
23	37	3
144	148	5
97	108	3
31	36	1
168	169	4
53	123	1
128	134	2
40	47	2
155	155	7
17	18	3
17	137	3
147	147	6
134	134	4
177	184	3
171	172	3
181	182	1
70	96	1
133	137	4
104	131	1
174	185	1
52	74	1
146	146	5
186	190	1
56	57	2
0	23	3
102	117	2
109	109	4
183	189	2
163	164	3
97	146	1
171	175	1
102	108	2
175	177	5
11	12	2
171	182	1
28	67	3
115	127	1
127	136	2
61	61	9
143	156	7
92	98	3
114	115	1
13	138	1
129	133	2
40	133	1
164	168	1
157	182	3
21	39	1
142	175	6
182	188	2
97	97	3
59	64	3
87	98	1
4	141	1
2	84	2
91	93	2
94	108	1
27	28	3
63	98	2
43	44	3
24	25	2
178	185	2
107	111	1
99	109	1
7	22	2
25	37	3
67	68	2
174	175	1
141	141	4
112	144	1
140	140	2
94	95	4
115	144	2
169	183	2
23	138	1
99	99	5
45	54	2
14	44	1
63	81	1
5	6	2
36	37	2
123	138	1
150	156	2
31	32	2
55	56	3
19	28	4
72	72	3
143	155	1
124	138	1
123	123	2
174	177	4
63	151	4
127	127	4
124	124	4
129	134	1
134	144	2
162	163	2
88	141	1
7	8	1
77	78	1
137	143	3
61	67	1
100	107	2
97	98	1
142	160	1
0	77	1
88	140	3
159	159	3
130	131	1
162	162	2
27	42	2
96	106	2
45	47	1
96	113	1
125	127	2
126	148	1
34	34	4
25	44	1
13	139	1
177	187	2
159	170	1
62	85	1
70	87	2
60	61	1
54	55	1
71	87	1
86	86	2
162	165	1
26	140	1
45	123	2
97	105	1
181	186	2
16	138	1
186	187	2
48	66	1
110	117	1
156	170	1
178	186	1
88	90	3
8	22	1
157	172	1
153	170	1
126	128	1
73	98	2
73	76	1
94	96	1
91	94	2
109	124	1
41	52	1
41	54	2
153	169	1
172	180	1
38	45	2
165	166	1
4	31	1
41	55	1
59	93	1
118	119	1
171	173	1
57	58	1
179	183	1
7	21	1
5	10	1
167	168	1
115	115	1
58	86	1
75	92	1
71	79	2
24	26	2
98	146	2
101	107	1
6	13	1
19	39	1
69	69	2
82	92	1
167	177	1
109	111	1
96	96	1
110	120	1
99	107	1
23	39	2
71	71	1
114	123	1
122	123	2
149	169	1
67	77	1
3	71	1
48	56	1
107	108	1
12	136	1
134	139	1
55	124	1
42	48	1
64	67	1
7	24	1
55	61	1
169	184	1
109	116	1
63	72	1
81	166	1
97	111	2
102	109	1
12	13	1
8	9	1
101	103	1
108	121	1
6	11	1
127	129	1
147	148	1
91	91	1
