50	50	27
29	29	27
77	77	54
93	112	2
20	20	32
110	110	58
81	81	27
79	79	51
139	139	39
7	7	37
104	104	34
45	46	4
123	124	17
3	3	18
62	63	1
104	105	10
38	39	15
134	134	40
84	84	33
87	87	35
8	10	4
8	8	37
118	119	9
76	76	7
27	27	27
4	4	29
26	26	38
16	16	26
118	118	25
48	48	32
68	69	13
136	137	11
39	40	22
18	18	31
85	85	25
82	82	26
93	111	3
119	119	25
137	137	34
143	144	1
37	37	17
102	103	11
79	82	3
149	150	3
82	110	6
105	105	77
145	147	4
26	27	8
38	38	25
105	128	3
105	129	3
140	140	33
130	130	31
33	33	16
122	122	42
122	123	6
24	70	2
135	135	29
44	44	41
86	87	8
13	14	14
87	93	3
88	88	40
133	133	38
68	73	1
83	114	1
24	77	1
19	19	41
108	111	10
126	132	6
99	100	10
103	110	4
22	23	15
124	124	32
145	148	4
45	77	3
22	22	28
14	33	9
82	83	7
41	42	9
96	96	12
94	94	36
117	117	29
21	21	49
13	32	6
106	143	5
73	73	29
21	32	1
30	30	39
10	11	17
51	53	2
103	103	53
29	30	13
98	98	25
108	108	18
154	154	14
131	132	10
85	88	1
124	125	10
143	143	39
25	140	4
86	90	1
40	40	26
28	38	3
12	12	33
134	137	4
5	5	22
9	9	25
129	129	51
107	107	37
16	17	17
0	158	2
37	38	12
119	142	1
107	108	7
156	158	3
3	13	5
125	133	2
68	68	24
101	101	43
147	148	23
45	49	3
6	6	31
91	91	38
50	53	4
123	123	37
31	31	30
92	93	7
9	47	1
81	82	7
126	126	54
21	53	3
71	71	24
93	93	27
36	36	31
132	132	37
91	107	4
145	152	2
54	54	35
15	16	15
95	95	55
24	24	44
153	153	23
47	47	17
116	116	29
51	52	9
134	140	2
67	70	10
137	138	33
151	151	29
2	3	10
67	144	4
35	35	25
51	65	2
7	18	7
23	23	43
9	10	12
143	145	4
150	150	28
15	20	7
70	70	39
17	23	2
109	109	32
54	55	12
110	112	7
90	91	17
53	99	3
32	32	13
157	157	15
142	142	23
66	66	16
25	34	1
22	80	1
87	88	10
67	109	6
0	0	23
152	152	39
46	46	26
53	53	30
24	25	5
128	128	18
156	156	27
39	39	28
2	2	39
10	10	41
109	110	25
4	5	5
105	107	9
70	146	2
40	43	2
120	120	24
38	43	3
32	154	1
42	42	27
94	111	5
11	11	22
141	142	1
88	89	6
25	25	21
94	117	2
127	127	34
43	43	37
114	114	29
116	140	5
67	67	32
100	100	40
29	101	4
95	96	19
25	27	1
158	158	21
119	134	4
63	96	1
148	148	23
111	112	7
133	138	3
102	145	5
105	106	10
63	63	8
137	150	2
49	49	31
119	120	9
73	74	4
37	41	1
83	83	28
132	133	11
76	150	2
86	86	39
145	145	16
141	141	33
100	101	7
66	67	8
103	106	2
15	15	21
29	107	3
117	119	2
12	13	13
65	116	1
52	52	26
93	147	2
21	22	15
31	38	2
78	79	19
81	83	2
8	12	2
44	92	2
112	115	3
10	44	1
16	18	5
138	138	21
11	12	13
28	45	7
17	17	29
53	54	10
90	127	1
6	30	2
25	116	9
69	69	22
77	78	10
144	144	19
10	49	3
78	78	26
68	70	12
41	41	52
145	150	2
28	28	42
83	84	6
97	97	25
94	97	4
31	107	1
113	113	28
75	75	39
27	28	11
62	62	18
1	1	27
33	39	2
43	143	1
47	56	5
78	80	7
34	37	3
140	141	15
123	126	3
115	115	17
18	19	33
111	130	1
92	103	3
110	111	2
14	14	16
32	33	12
17	18	14
147	147	22
32	34	4
126	131	5
13	13	14
42	43	8
36	37	3
116	150	1
99	99	30
133	134	6
113	114	4
159	159	5
66	154	3
73	92	4
90	90	24
112	112	40
90	125	2
64	64	23
102	102	17
106	106	34
93	113	4
126	127	10
37	49	2
65	65	13
17	19	8
67	68	16
130	131	22
112	113	8
30	31	6
50	85	5
125	125	28
96	97	3
97	115	2
155	156	12
30	37	2
108	118	4
108	112	3
103	104	14
18	26	3
94	137	3
80	147	2
46	70	2
6	40	4
89	89	25
48	49	5
121	121	21
54	107	2
80	81	9
143	148	3
12	14	8
45	45	21
31	106	5
127	151	2
64	95	4
151	152	16
146	146	39
13	34	2
126	141	8
156	157	7
153	155	2
8	9	11
3	4	13
91	94	2
126	130	1
116	117	4
71	72	10
69	70	3
35	55	6
18	117	5
56	72	1
92	92	39
15	17	6
85	110	1
18	32	1
50	51	12
87	89	5
20	21	18
55	56	6
97	105	1
121	123	10
5	6	5
6	45	1
136	138	2
11	48	2
123	125	3
115	116	11
81	95	3
30	36	9
40	48	1
35	37	5
89	121	1
76	77	4
33	52	1
93	94	6
69	155	3
123	127	4
87	137	5
26	43	2
87	91	3
84	105	3
29	31	2
64	139	5
32	138	2
93	96	5
28	70	5
13	15	2
85	92	7
49	50	3
31	44	1
9	16	3
146	147	21
131	131	20
34	35	11
108	117	2
54	67	4
7	44	1
2	4	3
0	1	11
72	73	3
7	8	9
37	154	3
83	105	1
108	109	10
56	64	4
39	42	3
77	97	2
89	90	7
86	93	3
106	150	2
106	128	1
56	71	2
155	158	6
95	97	7
51	51	16
118	135	4
52	54	3
129	137	5
145	146	7
11	70	6
64	66	1
22	65	4
144	145	7
127	128	8
34	46	2
117	149	5
75	76	2
22	24	6
80	80	12
84	120	1
30	39	6
136	136	14
84	94	1
18	31	2
88	90	3
102	132	3
53	67	1
77	135	1
129	138	2
128	129	1
55	69	3
50	52	7
37	152	4
85	125	1
96	120	3
31	117	3
89	129	1
142	143	7
118	121	4
38	42	3
6	7	6
56	68	1
0	86	1
85	117	4
153	154	8
98	101	10
47	91	1
1	6	2
91	134	4
31	32	11
25	28	2
111	111	14
118	122	2
1	2	9
55	66	6
5	7	6
103	151	2
40	41	3
117	150	4
154	155	3
76	83	2
40	82	2
3	41	4
15	145	3
155	155	7
0	157	5
47	67	2
28	29	13
149	149	7
22	48	6
19	20	10
125	126	15
129	130	5
30	47	3
52	81	2
134	135	6
71	141	2
47	92	1
11	15	1
51	81	1
148	149	9
22	140	7
124	129	2
29	36	1
48	53	2
84	85	5
42	45	2
56	57	3
48	51	4
21	156	3
6	43	2
34	34	10
70	71	8
85	86	12
0	7	2
38	40	7
110	115	4
12	16	3
79	80	7
3	156	1
133	135	3
56	56	2
40	42	1
47	48	5
69	150	1
44	45	9
84	113	3
108	110	3
98	99	5
2	27	2
109	152	1
49	54	3
119	132	3
101	107	4
8	11	3
63	68	1
82	92	4
135	137	4
13	16	2
87	101	1
136	141	1
91	140	2
33	46	1
93	104	2
122	148	3
4	69	1
9	69	1
34	86	2
89	123	1
55	55	7
98	149	3
4	6	2
105	116	5
93	146	2
69	100	1
157	159	1
132	134	3
13	33	3
92	94	2
109	142	1
39	156	2
112	114	4
22	25	5
94	95	4
121	122	16
27	30	2
107	109	4
23	25	2
130	137	1
22	28	2
8	16	6
11	68	3
36	116	3
56	61	1
15	49	1
8	34	3
91	93	1
122	131	1
26	28	5
114	139	2
94	107	1
33	37	1
46	47	7
26	101	3
0	4	2
94	96	1
119	136	1
49	88	3
13	35	6
123	142	2
112	122	3
38	54	2
0	52	1
117	152	1
24	29	1
85	89	1
96	133	1
28	64	1
64	136	1
31	47	3
78	118	3
49	63	2
79	136	3
27	101	1
8	79	2
154	156	3
54	56	3
75	77	2
130	132	2
17	34	2
41	49	2
13	30	1
151	154	1
50	54	3
135	136	7
83	85	4
38	154	3
90	134	1
138	145	2
92	143	1
4	70	6
44	55	2
69	141	1
30	45	1
155	157	2
6	35	2
56	142	5
65	66	4
93	97	2
7	46	6
96	134	1
84	92	2
49	134	2
83	86	1
9	51	1
67	142	4
81	86	5
152	156	2
27	38	1
31	64	2
64	71	1
66	68	2
3	27	2
14	15	7
44	72	4
84	86	7
119	148	1
110	140	1
2	6	1
104	116	1
106	107	9
82	86	1
141	143	3
16	39	1
130	141	1
117	147	5
152	153	2
42	86	2
52	53	10
110	122	3
1	49	2
23	26	2
21	29	5
113	141	3
127	132	1
6	13	7
14	49	2
71	158	2
123	143	4
82	120	3
91	138	3
87	152	3
24	27	3
62	70	3
11	69	1
27	29	1
35	49	3
37	39	2
77	79	2
72	72	7
150	155	3
16	19	2
92	145	2
45	64	2
52	64	1
114	115	2
120	137	4
93	95	3
34	36	1
128	143	2
45	47	2
92	123	2
104	123	1
98	136	1
36	155	1
62	98	2
32	46	1
19	25	1
106	122	1
77	103	1
17	31	1
31	35	6
36	40	2
37	115	1
70	149	2
42	142	1
42	55	1
86	107	2
54	89	1
108	139	1
92	146	1
130	140	1
42	54	1
93	151	3
18	121	1
91	104	2
150	151	4
55	99	4
95	105	1
72	80	1
19	31	1
28	30	2
92	95	4
4	12	2
128	140	5
22	29	1
68	153	1
64	155	2
41	48	2
20	22	4
9	70	2
108	116	1
107	110	2
96	131	1
84	118	2
33	35	2
16	48	4
43	44	1
103	121	2
39	68	2
36	45	2
46	67	2
76	138	3
76	85	2
8	35	2
8	28	1
42	70	1
139	140	4
54	105	2
109	111	1
11	138	1
23	24	5
84	123	3
140	142	3
0	3	1
131	136	2
50	64	3
56	66	2
118	120	4
9	17	1
37	50	1
106	132	1
41	55	2
17	32	1
153	156	3
77	118	1
66	155	1
122	136	1
8	29	1
4	158	4
117	127	1
9	12	1
65	152	1
67	71	2
7	158	1
19	21	3
5	66	1
23	71	1
85	134	3
8	127	1
31	37	3
67	154	2
1	157	2
134	141	2
138	139	1
69	92	2
115	121	1
16	20	1
10	12	3
111	113	3
92	107	3
7	11	2
43	72	5
119	137	3
92	113	1
153	158	1
5	12	1
36	143	1
116	127	1
146	158	2
142	144	1
115	152	1
19	29	1
2	5	1
88	137	1
157	158	3
22	126	1
11	117	1
94	133	3
67	155	1
54	99	1
86	88	1
53	55	1
57	57	1
78	87	2
70	72	1
51	148	1
104	140	1
79	81	1
2	158	1
92	105	1
65	138	1
135	138	1
65	141	2
39	155	1
120	122	1
18	20	3
70	147	1
35	40	1
106	108	2
77	127	1
112	142	2
14	36	1
17	25	4
123	132	2
116	123	2
102	122	1
9	11	1
38	141	1
25	26	3
76	139	2
120	133	1
119	146	2
66	101	1
37	148	2
147	157	1
139	143	1
79	107	1
39	43	1
75	129	1
55	109	1
14	31	1
74	83	1
49	85	2
125	128	1
65	77	1
64	153	1
36	49	1
32	83	2
128	151	1
69	116	1
8	17	1
77	82	1
152	154	1
84	124	1
84	91	3
90	144	1
120	128	1
27	70	1
110	152	2
66	71	1
101	102	1
55	111	1
128	150	1
7	43	1
137	141	1
84	107	1
17	21	1
88	125	1
31	67	1
30	64	2
34	40	1
133	136	1
8	33	1
16	33	1
77	80	1
120	132	1
137	139	2
87	107	3
119	121	1
111	131	1
93	114	1
14	37	1
75	83	2
155	159	1
44	47	2
33	36	1
86	116	1
43	47	1
30	150	2
124	141	1
74	75	1
74	74	1
131	138	1
11	147	1
16	22	1
32	52	2
41	43	1
128	131	1
29	80	1
111	116	1
139	141	1
55	61	1
41	54	1
89	139	1
55	97	1
73	75	1
11	13	1
11	42	1
40	156	3
83	113	1
25	120	1
42	49	1
100	102	1
6	8	1
86	113	1
102	104	1
37	46	1
143	150	1
32	69	1
11	14	1
31	34	1
87	90	1
12	31	1
115	117	1
38	156	1
92	124	1
52	55	1
79	135	1
61	142	1
129	139	1
12	35	1
130	135	1
37	42	1
128	139	1
35	47	1
41	46	1
