123	124	4
23	24	3
77	78	4
112	132	4
101	101	8
74	74	6
75	85	3
118	119	10
125	127	8
101	103	6
15	16	2
11	12	4
17	17	18
25	26	6
36	38	2
10	10	6
102	102	13
93	93	3
105	105	12
14	14	19
2	5	1
71	71	8
112	116	11
124	124	17
97	97	15
79	83	5
109	109	7
1	8	2
123	125	2
123	123	12
107	107	20
108	108	21
138	138	11
127	127	7
95	95	9
119	120	3
4	6	5
79	79	5
88	88	7
87	87	5
36	36	11
22	22	11
125	126	8
131	131	6
37	38	10
91	93	6
126	126	7
1	2	5
126	127	7
76	76	6
20	20	17
16	17	4
6	11	3
20	21	11
116	119	5
28	28	16
75	80	3
128	128	4
108	109	1
117	117	6
18	19	14
8	9	6
6	6	5
122	122	6
111	111	7
104	109	4
135	135	10
72	72	15
81	81	4
16	18	1
106	106	6
112	112	17
24	26	4
98	98	11
13	13	15
38	38	5
99	99	15
33	33	22
118	118	12
89	113	2
133	133	3
0	0	8
84	84	8
21	21	11
120	122	4
86	86	6
12	12	9
128	129	4
36	37	4
75	75	8
11	11	11
111	114	6
24	24	7
110	110	8
130	130	8
3	4	5
113	114	7
34	73	4
13	20	7
103	110	1
27	27	14
96	96	4
10	11	3
117	119	1
116	118	5
4	72	1
3	106	3
26	26	11
114	120	3
110	111	2
19	19	16
106	107	4
97	98	3
7	9	6
33	34	10
134	135	1
116	117	1
18	18	21
98	110	2
80	80	9
107	110	3
92	92	4
35	36	2
37	37	9
83	83	3
22	23	4
98	99	4
120	121	3
99	104	1
25	25	3
29	31	6
16	19	2
13	14	6
35	35	13
138	139	5
87	117	3
13	15	4
23	26	2
34	34	23
93	94	5
7	8	9
136	136	6
73	73	14
88	93	3
107	108	10
4	106	3
0	71	4
4	105	2
74	85	2
1	106	6
1	1	25
12	15	1
5	5	12
102	103	4
6	105	2
105	106	9
100	100	6
16	16	10
114	114	14
9	9	13
94	94	5
24	25	5
17	18	4
26	32	1
27	31	4
129	130	8
4	4	9
134	134	6
104	104	11
6	32	2
3	3	4
101	102	4
124	125	4
90	90	6
121	121	2
108	111	1
16	20	4
2	2	7
75	79	3
23	23	7
103	103	6
85	85	4
7	7	4
14	15	1
111	112	2
119	119	2
13	21	8
36	100	2
100	107	1
82	125	2
77	77	3
139	139	13
138	140	2
112	113	8
7	38	2
21	22	8
76	77	3
89	89	5
19	20	7
109	111	5
30	30	4
80	86	3
108	110	1
116	116	10
2	8	4
15	15	2
103	112	6
87	93	2
38	72	1
30	66	3
81	82	2
5	6	8
112	118	2
78	78	3
10	19	1
84	121	2
80	81	7
28	29	11
89	90	1
140	140	5
137	137	3
9	11	1
35	95	1
132	132	7
27	29	2
74	86	1
76	80	1
77	79	2
97	99	1
125	125	5
0	73	1
3	31	5
37	97	1
34	35	2
77	114	1
74	75	6
100	104	3
2	3	1
98	100	1
102	104	3
74	116	1
122	123	3
120	120	4
79	119	1
32	32	2
136	138	1
114	116	2
118	122	1
111	113	1
121	122	2
30	31	3
3	28	1
95	96	2
15	20	1
135	136	1
23	29	1
89	91	4
84	117	3
123	126	2
73	74	1
88	109	1
3	27	2
82	82	1
77	123	2
88	101	4
5	32	2
112	121	1
2	18	4
81	83	3
113	118	1
34	72	2
75	118	2
12	31	2
36	101	1
77	116	1
117	118	2
17	19	2
6	12	1
93	99	2
131	134	2
96	100	2
14	20	1
113	116	1
86	87	1
108	121	3
115	116	1
0	38	1
36	97	1
31	31	2
91	91	3
76	87	2
3	30	1
71	72	3
109	121	1
109	110	1
99	100	2
99	103	1
92	93	1
113	113	2
75	81	1
87	89	2
132	133	1
13	24	2
15	22	2
72	73	1
27	28	2
121	123	2
89	118	1
15	18	3
29	29	1
136	137	1
33	36	2
15	29	2
0	21	1
104	105	1
9	12	1
88	100	2
14	19	1
86	88	1
10	20	1
13	23	1
83	84	1
114	115	1
1	19	1
123	127	1
26	27	1
