113	116	2
113	113	9
122	122	17
127	128	3
102	102	10
32	32	10
62	68	5
116	119	4
63	63	5
14	17	3
73	74	5
95	95	11
93	93	6
72	73	10
61	62	5
76	76	11
81	81	5
97	98	6
121	122	8
71	74	4
65	76	3
41	43	7
94	100	4
25	25	9
62	62	12
49	49	19
7	7	20
80	85	3
103	130	6
68	71	4
29	29	19
121	121	8
65	71	3
54	54	9
19	25	1
41	42	4
120	120	16
108	108	2
81	82	3
61	61	4
77	78	5
2	4	1
88	88	8
51	51	19
125	125	1
50	120	1
98	102	4
39	40	1
60	61	1
28	30	5
110	110	13
72	74	1
84	84	7
72	77	1
112	112	9
79	79	17
13	17	2
67	71	6
79	80	3
15	30	1
122	131	1
26	107	3
100	100	1
46	46	5
4	4	3
82	82	6
124	124	15
97	100	4
73	73	6
53	53	12
72	102	4
115	115	4
7	9	2
80	80	6
10	11	5
65	66	3
18	19	6
104	108	1
10	10	3
106	109	2
29	31	2
114	115	4
31	31	4
13	19	2
116	116	16
111	111	17
6	6	9
50	51	6
111	115	1
28	29	3
56	56	13
45	45	4
26	26	7
101	101	8
2	2	9
75	76	1
121	132	4
41	45	1
16	16	4
54	74	2
52	52	8
79	85	2
63	64	1
59	60	3
54	55	2
8	38	2
23	23	10
8	8	8
65	65	4
64	64	7
58	59	5
104	129	2
78	78	6
16	109	2
82	84	4
89	131	2
28	28	8
8	39	2
66	66	3
25	85	2
19	88	5
128	128	4
3	4	4
104	104	5
18	90	1
57	58	3
99	99	3
5	5	8
4	5	2
56	58	3
92	92	5
11	11	10
19	19	10
90	131	1
40	40	4
88	89	3
46	47	10
75	75	4
20	20	4
69	69	6
123	123	6
14	14	4
60	60	5
14	15	3
64	66	1
63	77	2
80	82	2
32	33	1
89	89	1
67	67	3
38	47	2
12	12	3
48	48	9
3	7	3
94	94	6
33	33	5
67	68	2
105	106	4
60	62	2
131	131	3
59	63	2
70	71	1
117	117	3
94	95	5
64	65	2
109	109	5
30	30	4
105	105	9
55	55	3
70	74	3
71	71	2
44	44	3
13	13	7
114	114	3
89	90	1
16	108	2
66	67	1
106	106	3
33	44	1
6	13	2
42	42	6
131	132	9
132	132	3
68	68	4
3	3	4
1	1	7
97	97	9
119	119	3
111	112	1
125	131	2
57	59	2
74	74	5
90	90	2
91	93	1
41	41	4
123	124	6
118	118	5
8	9	5
120	121	5
6	7	1
56	79	3
84	85	3
54	72	4
63	65	1
82	83	1
0	109	5
107	108	2
93	95	1
24	24	3
95	96	4
80	81	2
86	86	1
23	106	3
37	38	1
5	15	3
72	72	3
94	102	1
74	76	2
55	56	2
16	17	1
83	83	2
58	58	8
76	77	3
71	73	1
77	77	2
91	132	3
30	62	1
43	43	6
88	104	1
55	57	1
85	85	4
93	102	1
46	48	1
57	57	4
87	87	3
125	126	8
113	115	3
125	127	2
126	129	1
96	96	1
64	71	2
26	27	4
53	59	2
24	106	1
2	22	3
33	43	1
79	86	1
101	103	2
25	26	4
114	116	1
69	70	2
31	32	2
102	103	5
23	45	3
26	48	1
22	22	2
50	50	9
131	133	1
70	70	4
55	69	1
118	119	1
48	76	2
49	50	1
108	109	2
28	31	1
34	34	1
90	132	1
123	125	2
21	22	1
52	53	1
27	27	2
66	71	1
106	107	2
59	59	1
127	129	1
92	93	4
0	2	2
82	85	1
9	9	2
46	49	1
49	76	1
109	110	2
40	47	1
28	82	1
54	56	4
34	44	4
41	73	3
125	128	1
7	12	2
82	87	3
39	39	2
51	133	2
70	100	2
34	37	1
122	123	3
81	85	1
21	23	3
133	133	2
69	74	1
97	99	1
93	100	2
91	126	4
66	68	1
3	27	2
27	49	1
18	18	1
126	126	4
57	62	1
42	73	1
116	120	1
47	47	1
96	98	1
92	131	1
98	98	1
0	0	3
111	116	1
19	21	1
33	63	2
43	44	2
87	89	1
104	105	1
12	13	1
64	79	1
115	117	3
78	79	2
22	107	1
85	86	1
87	88	1
21	21	1
39	47	1
91	100	1
113	114	1
126	128	1
45	47	1
107	107	1
9	10	1
85	87	1
15	16	1
83	84	1
