116	137	5
156	156	8
77	94	2
64	64	11
10	26	1
120	124	5
37	37	19
6	43	4
139	139	12
65	65	16
88	92	2
56	56	4
40	40	14
19	19	17
52	52	14
132	132	14
3	10	1
77	79	3
118	130	4
12	13	3
12	14	9
88	88	12
40	73	1
38	38	12
70	70	12
139	140	5
135	135	13
23	23	19
99	99	19
144	144	10
51	51	4
26	26	11
29	29	15
18	18	16
34	34	16
129	129	19
146	146	14
150	151	1
121	122	4
82	82	14
151	151	5
68	69	6
100	100	17
79	79	15
126	126	11
31	32	5
68	70	2
2	98	1
28	128	4
159	159	2
41	41	14
39	39	13
62	62	9
111	112	4
117	117	18
21	21	9
55	55	1
17	27	2
113	114	7
15	15	18
9	24	4
132	133	4
103	106	4
96	96	17
146	147	6
150	157	3
120	120	9
16	72	2
28	28	14
149	149	7
38	39	3
153	157	4
45	45	13
95	96	9
107	112	2
83	84	7
49	49	23
66	66	12
39	47	2
109	109	11
68	68	25
129	133	2
94	94	7
39	40	4
44	45	4
134	155	4
134	134	15
8	39	1
157	157	17
77	77	14
7	7	3
30	32	2
81	81	12
136	136	13
149	154	1
121	121	10
9	10	7
36	93	2
107	139	3
38	40	2
65	85	4
24	55	2
93	93	19
39	48	3
0	0	7
24	48	1
16	16	12
152	153	2
27	27	16
106	106	10
130	131	6
30	30	15
154	154	15
79	105	3
133	134	1
78	98	2
137	137	8
0	1	2
84	84	10
127	139	3
54	54	13
42	42	14
127	127	12
48	48	8
132	143	4
90	90	11
50	50	5
70	71	3
12	12	9
2	2	7
11	12	2
138	148	2
142	143	10
11	24	1
112	112	11
79	81	3
53	54	5
103	103	15
108	108	7
158	159	1
31	31	11
85	85	9
148	148	16
17	17	10
98	98	16
81	88	3
63	63	2
116	116	4
99	131	1
36	36	11
114	115	4
89	89	7
131	134	1
20	20	16
126	127	4
153	158	2
154	158	3
108	120	1
122	141	8
86	86	6
46	46	8
5	5	9
140	140	10
44	44	10
51	54	3
144	145	2
45	46	8
47	54	4
4	4	4
91	96	3
66	69	5
73	73	9
65	67	6
83	83	14
80	80	11
144	156	1
135	136	6
71	71	12
120	134	2
134	143	2
116	120	4
97	150	1
78	105	3
148	149	3
101	101	13
0	3	1
95	95	9
128	128	8
86	133	4
118	120	2
147	147	7
53	53	5
119	119	13
149	150	6
15	16	3
27	29	4
133	133	6
25	25	11
106	107	4
32	34	1
27	41	1
72	72	9
81	83	2
152	152	9
90	98	2
140	142	1
18	19	1
9	13	5
3	44	2
8	11	1
92	93	3
113	137	4
8	25	4
5	15	1
4	6	2
65	75	3
141	144	2
11	16	1
41	42	5
0	2	1
28	83	1
155	155	7
104	105	7
18	85	2
153	153	16
11	11	16
81	82	4
158	158	6
145	145	9
83	88	3
0	4	3
20	21	3
122	147	1
153	154	2
138	138	12
101	128	1
88	90	2
77	81	3
3	14	5
47	50	2
150	150	10
14	14	4
24	42	1
34	38	1
134	140	1
32	32	3
33	33	8
145	147	4
116	124	2
107	107	14
6	6	6
40	50	4
123	143	5
125	125	14
47	47	18
123	123	17
15	25	3
34	35	3
110	111	2
137	146	1
37	89	3
104	109	3
75	75	17
124	140	1
151	156	2
115	115	13
9	9	6
131	132	3
112	114	1
55	56	1
145	146	3
114	116	2
105	120	1
141	141	7
107	150	2
107	110	1
93	101	1
5	89	3
33	36	5
67	67	11
104	104	2
117	118	1
13	13	5
135	158	3
78	79	3
48	49	7
2	6	2
114	117	3
8	8	11
17	18	9
119	136	1
134	158	2
91	115	1
51	100	4
2	5	1
113	113	4
143	145	1
140	157	1
105	105	16
78	99	2
17	20	2
111	111	4
73	86	2
68	71	4
155	156	2
34	46	2
124	124	3
111	136	3
104	136	3
24	24	11
111	139	1
74	74	6
110	110	10
122	142	1
51	52	3
83	92	3
28	32	1
33	34	1
26	27	5
141	146	2
93	106	2
22	28	1
22	22	6
11	19	2
130	130	5
78	78	6
2	66	1
126	150	2
133	135	3
8	51	1
103	138	1
36	38	2
97	99	2
80	155	2
1	1	6
33	49	1
123	125	1
50	52	3
46	47	1
2	4	3
103	115	1
137	156	3
46	50	1
137	138	6
45	53	1
132	159	1
23	46	1
23	49	1
42	50	1
128	129	2
98	104	1
83	155	2
91	95	3
69	83	1
41	71	3
86	91	2
91	91	14
93	94	5
10	10	12
153	156	5
63	70	1
64	67	1
149	156	2
73	74	3
50	51	2
131	131	7
108	141	1
125	138	1
90	131	2
101	102	3
92	94	1
99	135	2
108	114	1
42	45	2
122	126	1
51	56	1
89	119	2
42	51	2
101	107	3
123	128	3
105	130	1
119	120	4
37	46	4
23	24	5
129	158	1
69	88	2
114	150	1
139	145	1
92	92	13
127	134	2
114	114	6
33	53	2
64	65	1
133	152	4
121	146	1
42	49	1
14	15	2
25	128	4
105	124	1
22	54	2
126	136	2
122	123	4
128	130	1
67	71	3
1	2	3
156	158	1
97	97	3
116	117	4
116	144	1
122	136	2
123	135	2
103	135	1
10	12	4
136	151	1
101	120	1
100	101	4
71	72	1
33	37	1
11	14	1
22	132	2
7	8	1
40	57	1
78	90	2
141	142	4
13	25	3
93	98	1
111	141	1
112	113	1
90	91	2
19	20	1
40	47	1
102	152	1
30	31	2
122	122	5
53	57	3
28	29	3
102	109	1
133	154	2
105	134	1
32	56	1
125	126	2
39	50	2
79	90	1
98	99	2
98	136	3
65	66	5
93	112	1
113	145	1
53	55	5
28	30	1
63	80	1
154	155	2
67	68	1
14	20	2
90	97	2
32	55	1
20	63	2
107	115	2
110	125	2
92	104	3
80	93	1
3	32	1
149	152	1
121	147	1
132	146	1
117	144	2
153	155	2
142	144	2
85	86	4
54	56	2
111	148	2
129	140	2
115	139	1
69	70	2
18	83	1
137	143	2
87	87	4
63	67	1
119	121	2
11	23	1
57	57	1
64	68	1
89	98	1
15	39	1
32	33	4
138	139	6
115	116	1
115	143	1
150	153	1
45	63	1
44	46	1
18	36	1
39	58	3
112	141	3
135	152	1
95	97	1
67	70	1
125	130	2
93	96	1
7	140	1
105	106	1
2	3	3
49	70	1
129	130	5
84	85	4
102	102	3
120	121	2
88	111	2
19	87	1
126	149	2
29	64	1
109	110	1
39	54	1
80	82	1
103	113	1
83	87	3
47	63	1
83	94	2
33	93	2
25	29	2
104	110	1
47	49	1
125	134	2
68	88	2
89	95	3
41	49	1
109	120	1
127	152	1
52	55	3
124	139	1
40	55	1
102	132	3
12	16	1
135	142	1
36	39	1
121	141	2
54	144	2
95	114	1
26	129	1
61	61	2
11	25	2
37	40	3
17	36	1
35	35	3
54	67	1
144	146	1
48	52	1
48	50	1
52	54	1
79	98	1
7	30	1
138	154	1
121	145	1
140	141	1
45	69	1
49	56	1
41	51	2
112	142	2
94	112	1
14	39	2
91	94	1
118	118	4
49	68	1
89	97	1
82	98	1
3	3	2
26	41	1
29	84	1
9	25	1
144	152	1
91	101	1
27	73	1
42	44	1
45	48	1
16	22	2
130	134	1
66	68	1
31	63	1
102	114	2
140	144	1
96	97	2
82	84	1
119	122	3
78	80	1
16	40	1
88	89	2
81	97	1
80	81	3
69	69	5
28	44	1
70	72	1
108	121	1
123	126	1
43	43	2
89	105	1
40	45	1
25	27	2
78	85	1
95	98	2
111	123	1
81	98	1
51	53	1
143	143	3
8	9	2
108	111	2
80	100	1
50	140	1
108	109	1
34	61	1
143	144	1
62	70	1
20	50	1
96	140	1
104	119	1
35	52	1
35	46	1
8	35	1
28	75	1
63	71	1
86	87	1
154	156	1
132	134	1
42	48	1
140	149	1
65	81	1
2	89	1
41	50	1
40	48	1
99	112	1
29	34	2
142	142	1
12	18	1
10	13	1
92	97	1
147	155	1
88	109	1
41	73	1
142	157	1
87	103	1
17	24	1
6	24	1
7	20	1
151	153	1
132	155	1
40	41	1
25	26	1
87	99	1
120	139	1
17	28	1
113	121	1
123	140	1
103	136	1
