153	153	13
100	100	4
106	106	18
155	155	7
141	141	10
12	12	14
140	141	1
10	11	7
88	88	7
104	104	4
114	136	2
31	51	3
75	75	4
20	22	4
19	21	2
50	50	5
39	39	14
66	66	2
40	55	6
146	147	2
19	20	2
89	103	3
128	128	6
10	10	7
10	25	7
44	44	11
30	30	9
14	15	1
85	86	8
109	112	7
10	18	6
93	95	3
108	108	5
68	68	4
107	152	2
4	4	9
122	123	5
87	87	17
81	81	5
11	11	13
121	122	6
67	69	3
95	96	2
102	102	1
14	14	7
133	133	7
147	147	19
122	122	7
119	119	12
52	52	12
67	71	4
46	46	10
30	51	4
43	46	3
136	149	3
72	100	4
124	124	10
74	74	3
131	132	4
38	43	4
127	127	11
22	22	10
46	55	1
9	27	4
26	27	1
112	112	13
38	38	8
83	83	4
113	113	2
134	150	2
26	28	2
85	85	2
31	41	1
154	158	6
154	157	6
36	36	8
123	155	2
86	86	11
110	110	14
103	103	13
67	68	7
29	29	6
50	66	1
70	70	5
78	115	2
132	132	3
143	143	1
97	97	4
57	63	2
19	19	1
36	48	1
81	105	2
98	99	6
71	86	3
28	28	2
65	66	5
79	105	3
33	33	15
85	97	4
43	43	5
158	158	10
120	120	5
104	107	2
80	80	4
3	151	2
1	1	8
103	104	2
119	123	2
98	98	7
48	48	10
136	158	3
102	144	6
97	107	3
23	23	4
146	148	4
61	64	1
110	111	1
1	32	1
137	138	1
28	30	4
45	45	10
13	13	8
138	138	5
55	55	2
131	139	1
149	149	5
28	32	3
129	129	10
105	105	7
41	52	1
108	109	3
2	2	2
26	26	2
80	81	2
156	156	5
111	111	2
113	122	2
79	102	3
95	95	5
131	131	4
115	116	1
115	126	3
77	78	2
24	24	7
21	23	3
78	78	3
12	25	3
138	139	4
67	67	13
55	56	4
125	125	6
36	45	6
90	90	4
16	16	2
34	34	13
157	157	9
136	136	1
145	146	2
109	109	5
37	53	2
88	89	17
18	21	3
108	116	4
117	122	2
42	43	3
152	152	12
65	65	2
29	31	1
6	6	7
110	112	3
118	123	5
81	82	1
17	19	1
125	126	2
50	65	1
83	84	2
20	20	5
82	82	8
0	31	7
29	30	6
112	116	3
73	73	3
71	71	9
114	120	3
114	156	4
152	157	1
146	146	6
154	154	3
153	158	3
148	148	15
130	130	6
154	155	2
77	107	2
25	25	5
84	84	2
101	134	2
4	23	3
7	30	5
106	150	4
94	94	4
81	91	1
32	32	5
79	80	2
150	150	3
139	139	12
62	62	2
116	121	3
78	108	4
119	120	5
31	52	3
36	70	1
40	62	3
32	34	1
142	142	2
142	144	3
115	115	6
53	53	3
54	54	4
18	18	4
43	57	3
9	9	7
120	148	2
85	111	2
84	93	1
123	142	3
101	101	4
104	149	3
40	41	5
36	37	4
79	117	8
68	71	3
5	5	8
109	110	2
131	157	1
51	52	2
90	91	3
123	123	5
86	88	1
37	40	1
30	50	3
3	3	7
126	126	8
0	0	1
131	145	1
109	111	2
25	66	3
1	2	3
66	103	3
100	101	4
9	10	4
17	34	3
118	119	3
51	51	1
2	4	2
144	149	1
96	96	5
113	115	1
147	149	1
98	107	1
144	144	4
83	104	1
0	4	1
42	63	2
123	124	1
120	140	1
94	95	3
131	155	2
107	107	5
134	134	2
33	55	1
133	137	3
118	118	2
40	42	2
106	107	1
42	42	4
7	8	3
17	21	2
135	135	1
49	50	4
15	15	1
137	140	1
80	82	3
50	51	1
113	159	2
93	93	8
130	150	1
26	30	1
108	121	1
99	99	3
82	139	5
80	104	3
156	157	1
31	31	2
14	18	3
22	23	2
120	121	2
76	76	1
68	69	3
128	140	3
83	112	1
116	117	2
145	145	5
33	37	2
26	100	3
114	115	1
27	30	3
132	133	2
80	144	2
105	134	1
84	95	1
121	121	3
41	41	1
126	140	1
151	152	2
93	94	1
155	158	2
122	144	3
87	89	1
4	16	2
18	33	1
94	96	2
140	143	1
92	92	5
62	63	1
78	80	1
142	143	1
8	9	2
151	151	4
143	144	2
129	137	1
77	82	2
35	35	2
33	57	1
111	112	2
97	98	2
33	34	2
12	14	2
91	91	1
95	103	3
37	41	1
127	155	1
8	8	4
103	106	2
114	123	1
51	53	3
14	19	1
118	139	2
116	116	1
72	72	1
78	103	4
7	27	2
139	140	3
114	118	2
129	141	2
32	52	1
63	63	1
17	151	1
122	126	1
72	85	1
35	46	1
41	55	1
77	101	1
137	137	8
115	139	1
117	117	1
139	150	1
8	16	1
51	54	1
134	135	3
47	48	2
108	149	3
128	129	2
118	120	1
47	47	1
16	19	1
6	17	1
105	127	1
99	104	1
9	12	1
98	106	2
140	140	4
149	152	2
76	77	1
144	146	1
159	159	1
90	92	2
50	54	3
54	122	1
115	156	1
143	145	1
91	92	3
77	77	1
95	97	2
41	67	3
40	40	3
84	106	1
69	69	1
31	44	2
37	37	2
63	69	3
7	38	1
86	111	1
131	154	1
66	68	1
20	21	1
114	114	1
41	42	1
40	53	1
2	151	1
4	5	2
104	105	2
31	32	1
75	78	1
117	118	1
139	149	1
77	92	1
45	55	2
35	40	1
156	159	1
18	20	1
147	154	1
15	17	2
111	117	1
40	63	1
8	38	2
63	71	1
136	155	2
46	64	1
34	41	1
113	152	1
29	33	1
97	110	1
53	55	1
99	101	1
79	87	1
130	131	1
39	40	1
92	97	1
