97	102	1
135	135	4
27	27	15
77	77	4
87	104	1
9	9	4
75	75	13
142	142	10
76	76	9
95	96	2
82	82	10
102	107	2
131	131	10
79	79	6
48	48	12
143	143	3
127	129	4
90	90	5
104	104	8
135	137	2
138	139	5
74	75	4
84	93	6
64	64	4
59	77	4
1	1	5
94	95	7
120	120	13
27	37	1
107	122	2
39	40	4
60	60	11
81	81	10
134	134	14
38	38	8
24	37	3
138	138	8
101	103	3
98	98	5
67	68	4
33	47	4
53	54	3
25	38	4
74	79	5
26	26	3
41	41	3
19	20	6
27	42	1
129	129	2
117	133	1
140	140	6
33	104	2
40	105	1
58	58	3
70	70	4
37	37	13
123	124	2
141	141	8
12	12	4
99	100	3
139	139	1
16	16	6
50	50	1
4	4	3
39	39	9
8	8	6
83	83	2
104	105	2
28	28	4
32	32	3
28	30	3
89	89	3
98	101	3
69	69	7
97	98	5
18	18	4
53	81	3
6	6	10
31	33	4
88	88	5
96	96	6
128	128	7
3	3	7
77	78	2
25	25	14
99	99	7
102	102	3
66	66	5
30	31	2
28	29	11
82	94	1
75	78	2
110	111	6
132	132	6
23	125	4
30	41	1
124	124	8
57	57	5
85	109	1
20	21	1
68	68	11
20	20	18
29	29	6
67	67	12
123	123	3
79	81	2
51	51	4
119	132	5
133	134	3
61	63	1
71	93	2
121	121	1
126	127	4
42	42	10
114	114	11
2	3	3
144	144	9
17	18	2
63	64	2
79	80	4
126	126	7
39	105	1
82	83	5
106	122	2
112	117	5
36	37	1
15	16	9
51	52	2
102	104	1
113	113	10
108	108	11
52	81	1
89	90	1
87	87	2
56	56	6
65	65	4
130	130	7
74	76	2
61	69	2
9	10	4
106	107	2
80	81	4
4	34	3
107	108	4
91	91	3
61	107	3
90	92	1
125	125	5
72	73	5
80	93	3
142	143	5
109	109	3
14	14	7
95	95	5
55	55	2
58	59	3
80	80	5
49	50	2
67	79	4
72	72	3
94	103	1
116	130	2
107	107	3
4	5	3
112	112	1
10	10	7
115	116	3
1	2	5
35	36	2
27	31	1
141	142	1
30	30	6
117	117	5
53	53	4
91	144	2
43	43	4
32	33	2
140	142	1
67	69	3
40	41	5
133	133	5
50	51	1
94	94	7
37	142	2
49	49	3
18	19	3
33	33	3
111	111	1
74	74	2
127	127	5
113	116	2
65	66	1
116	116	3
119	119	8
5	5	7
136	136	3
4	6	1
69	70	2
32	38	2
92	92	4
81	110	2
133	138	2
22	24	1
13	20	3
85	85	2
106	133	2
96	106	1
110	110	1
114	115	3
11	11	9
25	26	1
23	23	2
88	120	1
68	69	2
62	84	1
132	133	1
101	101	2
22	22	3
124	141	4
68	70	1
62	76	2
90	96	4
54	54	1
47	140	2
144	145	2
118	118	2
91	95	2
102	103	1
84	84	1
29	41	1
101	123	2
93	93	1
36	138	2
90	102	1
105	105	2
47	47	1
35	35	2
29	30	1
9	29	1
59	59	3
34	35	1
134	135	1
86	87	2
24	25	1
73	74	1
137	138	2
78	78	3
92	94	1
86	110	1
68	79	1
13	14	1
56	57	2
59	131	1
84	110	1
97	97	1
87	88	3
19	19	1
57	59	2
71	71	1
42	43	1
24	24	1
122	123	3
55	72	1
61	61	2
118	119	1
91	92	2
109	134	1
120	121	2
86	86	1
101	102	1
35	37	1
12	13	1
145	146	1
40	40	1
82	140	2
71	91	1
143	144	1
77	79	1
5	47	1
52	139	1
140	141	1
104	108	1
92	133	1
41	42	1
33	35	1
43	135	1
93	94	1
96	97	1
0	0	1
10	11	1
59	61	1
5	30	1
135	141	1
