13	15	5
37	38	1
56	56	14
31	33	4
50	51	9
35	35	14
33	34	5
12	14	16
3	3	8
68	71	3
32	52	1
34	35	5
72	72	12
29	65	3
64	64	18
66	67	9
5	5	16
46	48	1
38	38	16
4	4	16
0	0	14
78	78	8
67	67	8
34	34	3
61	61	8
47	52	4
46	46	8
6	6	8
11	11	3
31	31	10
68	69	2
52	52	8
50	52	4
32	32	9
75	75	12
2	2	6
58	58	2
38	49	2
21	21	6
7	7	13
59	61	3
14	15	7
45	45	11
37	41	1
57	57	4
76	76	5
33	37	1
28	28	4
26	26	8
17	18	1
38	39	7
15	54	5
68	72	4
71	71	5
16	18	1
1	1	8
42	42	27
27	27	9
30	30	6
40	40	13
18	20	1
54	54	5
28	65	6
68	70	4
50	50	13
47	47	13
26	66	7
28	70	2
2	4	1
1	55	1
3	4	4
80	80	8
67	68	9
59	59	10
52	54	5
69	69	5
13	51	2
62	63	3
26	27	9
57	59	1
8	11	4
49	50	7
72	75	4
61	62	10
66	69	2
25	25	8
52	53	13
58	60	1
77	77	4
42	45	5
74	74	9
71	73	1
65	65	5
51	52	1
17	17	5
55	59	2
39	39	5
8	9	6
30	65	3
66	72	2
36	79	1
29	29	7
29	66	5
56	58	1
50	54	1
16	16	11
13	14	8
31	65	2
16	17	3
1	2	1
35	37	4
61	63	3
18	18	6
51	51	6
63	64	6
37	37	2
13	13	7
54	55	3
5	6	7
48	49	7
9	12	4
3	5	1
19	19	4
39	46	4
48	53	3
9	10	3
57	61	1
41	45	3
55	55	8
76	77	5
10	10	7
46	51	1
26	60	5
12	16	2
41	42	2
12	15	4
36	36	6
49	49	6
70	71	1
29	73	5
63	63	9
30	33	1
42	44	3
19	21	2
7	9	2
73	73	5
48	54	6
0	56	1
1	3	3
4	7	3
12	12	1
37	39	1
41	41	5
30	60	3
79	79	9
72	73	3
31	32	4
71	72	2
25	26	3
69	72	3
8	8	5
14	51	1
14	14	3
22	22	5
53	53	8
7	11	1
12	13	5
15	15	2
26	28	3
37	80	1
58	59	7
56	59	1
32	65	1
66	66	4
7	8	3
28	29	3
16	55	2
59	63	2
33	33	5
48	50	2
60	60	1
42	47	3
43	45	1
27	28	1
69	71	2
77	78	1
32	35	1
53	59	2
52	56	3
69	70	6
73	74	3
9	14	1
74	79	1
8	10	2
81	81	1
13	53	1
11	17	1
43	43	3
45	48	1
9	9	3
8	13	1
42	46	1
65	68	7
27	58	2
55	56	6
74	77	4
6	7	2
76	78	1
55	57	1
68	68	5
10	13	1
42	52	2
55	58	1
36	40	1
70	70	2
40	41	2
71	74	1
32	50	1
46	47	2
14	53	1
5	8	1
51	53	1
28	71	2
38	40	3
30	31	1
11	13	2
26	68	1
31	54	1
8	12	1
48	48	2
48	51	1
4	5	1
62	62	1
9	11	1
39	48	1
32	34	1
10	11	1
72	76	1
44	48	2
65	66	1
42	48	1
0	1	1
56	57	2
60	61	1
44	45	2
40	44	1
49	51	1
