41	41	4
63	63	3
7	7	9
2	2	4
23	23	9
38	38	4
98	98	2
42	42	3
47	47	18
11	11	2
21	21	7
48	49	7
68	68	3
154	156	2
123	124	3
113	113	3
73	73	10
119	136	1
124	124	4
9	32	1
26	26	4
90	90	9
100	101	4
20	20	3
127	127	4
7	40	2
118	119	1
147	147	3
154	157	3
15	15	2
151	151	8
150	150	5
27	27	1
119	119	3
101	102	4
153	154	1
131	131	3
78	78	3
70	70	9
40	41	1
5	5	6
46	46	6
118	121	2
95	97	1
148	148	8
143	143	3
95	95	5
82	83	8
148	149	4
40	40	5
52	96	1
2	5	4
51	51	1
102	102	5
134	134	9
129	130	4
118	118	5
94	94	4
18	121	1
138	138	7
30	30	4
108	108	1
29	29	5
109	110	2
119	120	8
70	71	2
148	154	2
17	19	4
57	63	2
100	100	9
123	127	3
92	93	1
90	93	1
105	137	4
53	53	5
107	107	4
101	101	8
137	137	10
25	29	2
106	106	3
71	71	3
28	28	10
25	28	1
16	16	5
102	103	1
98	100	2
99	99	3
28	29	1
122	126	3
48	53	4
47	147	3
9	14	1
87	88	4
136	137	2
133	133	5
67	69	1
26	27	8
137	138	6
1	1	6
11	15	2
34	35	7
108	112	3
128	128	6
0	0	3
81	82	4
144	144	5
147	154	1
69	134	4
141	141	3
94	124	2
92	92	3
82	86	3
112	113	2
157	158	3
66	67	2
33	34	1
96	121	2
105	105	8
28	44	2
115	116	2
110	111	3
79	123	2
66	73	3
151	153	2
149	149	3
140	145	2
43	158	1
115	115	5
32	38	1
139	139	6
152	153	1
80	80	5
18	22	3
94	95	5
56	56	1
97	99	2
135	137	1
128	129	2
39	39	2
140	140	6
41	42	4
48	48	2
18	19	5
77	81	2
43	43	4
117	119	1
21	22	7
36	37	2
18	18	1
17	17	2
57	57	5
103	113	2
35	36	1
87	87	2
123	123	7
144	150	3
158	158	1
42	66	3
143	145	6
22	22	7
101	127	6
52	55	1
105	128	1
69	85	4
27	28	1
77	77	3
136	148	1
67	67	1
34	36	2
14	14	5
53	54	2
104	104	2
50	50	1
78	79	5
85	85	2
44	44	3
88	88	4
84	84	2
81	81	2
129	129	2
130	130	2
47	48	1
155	155	5
46	47	3
89	89	1
82	82	4
12	13	1
16	17	2
52	98	2
43	66	1
154	155	4
96	96	2
73	132	1
33	33	4
104	105	2
56	71	3
23	25	2
12	12	3
48	51	2
85	86	1
103	103	6
144	145	1
93	95	2
38	39	1
0	1	1
18	97	1
135	149	1
52	97	2
130	131	1
10	12	2
154	154	3
114	114	4
37	38	2
126	126	1
22	23	2
146	147	2
113	114	1
117	122	4
33	39	1
146	146	2
24	24	1
37	41	2
120	121	2
121	121	2
110	110	5
156	157	2
132	132	1
19	19	2
122	123	1
9	9	1
32	33	2
78	80	1
141	142	1
73	74	1
8	8	3
105	113	2
116	116	1
83	83	2
117	117	3
65	65	4
111	122	1
121	122	1
14	15	1
31	32	1
141	155	2
84	86	2
52	52	1
65	84	1
91	95	1
106	107	1
99	101	1
136	136	1
95	122	1
67	68	1
8	41	1
74	74	1
156	156	2
42	43	2
122	122	1
153	153	2
102	104	1
80	85	1
49	55	1
17	18	1
10	11	2
35	35	1
18	70	1
125	125	2
25	25	1
10	10	1
93	94	1
64	64	1
29	44	1
3	3	2
68	94	1
48	134	2
151	158	2
153	155	2
30	31	1
89	91	1
131	134	1
4	6	1
31	31	1
20	35	1
56	66	1
49	49	1
66	66	1
9	31	1
69	84	1
113	115	1
91	91	1
13	14	1
108	109	1
120	122	1
79	94	1
65	75	1
