88	88	8
73	73	4
28	29	4
39	39	3
51	53	2
33	33	16
50	55	3
79	79	2
113	113	3
93	94	6
98	100	3
77	123	2
75	82	2
64	64	5
37	42	2
65	65	3
80	80	10
67	74	1
24	25	2
87	87	3
95	96	4
26	27	10
93	93	9
15	41	2
129	129	4
137	137	2
127	127	2
39	40	4
67	67	9
29	30	3
99	100	4
144	146	2
64	101	1
61	79	4
71	71	5
59	62	2
83	102	10
77	77	4
19	19	5
30	30	7
80	116	1
63	81	2
18	18	9
90	91	3
2	2	4
92	92	2
122	122	8
81	81	5
75	75	3
58	58	3
23	24	2
99	99	3
95	102	3
116	117	3
136	136	6
78	80	2
8	10	5
138	138	10
132	133	1
141	141	4
1	28	1
4	9	3
53	53	10
38	39	2
140	140	8
92	93	1
72	72	7
32	52	1
84	84	6
126	126	8
131	131	6
6	6	1
68	69	5
107	109	2
8	8	13
2	8	1
22	22	2
60	63	3
97	97	6
127	128	1
111	111	6
76	78	2
137	138	1
112	114	2
38	38	5
23	37	1
14	14	5
26	26	5
31	31	6
104	104	6
91	91	6
72	75	1
14	60	2
129	140	3
95	98	5
74	83	1
62	63	4
109	109	4
10	10	3
8	9	2
87	95	1
34	34	7
3	14	2
10	28	2
117	119	1
116	119	2
117	118	2
10	20	4
59	78	2
12	12	2
26	31	1
69	78	1
32	36	1
85	85	3
14	77	1
62	68	2
140	141	1
117	117	5
132	132	2
48	64	1
20	26	5
95	95	2
115	132	1
18	19	1
17	31	1
123	123	5
59	59	6
10	13	2
58	63	2
120	123	2
78	79	1
19	26	2
108	136	2
58	70	1
142	143	3
32	33	2
68	68	4
124	124	5
134	135	8
130	137	3
8	17	1
29	29	6
123	137	4
81	84	2
23	23	4
125	125	5
49	55	1
121	121	4
100	100	4
138	139	2
59	79	5
110	111	2
111	114	3
145	145	1
28	30	2
107	107	4
42	42	3
96	96	7
25	26	1
22	37	1
112	127	1
51	52	4
36	38	2
12	13	4
74	76	3
48	48	2
105	132	1
131	136	4
129	130	1
56	56	2
14	15	3
85	86	1
98	98	3
48	49	5
95	118	3
103	106	2
36	37	1
61	65	1
118	118	9
82	93	1
33	36	1
137	139	2
100	117	1
62	66	2
123	127	1
59	60	3
31	54	2
9	10	2
116	130	1
120	120	1
0	0	2
49	50	1
96	103	2
133	133	4
16	16	8
27	27	1
37	38	4
13	23	2
20	20	6
125	127	2
80	81	2
40	40	5
29	40	1
47	56	1
55	55	4
65	84	1
129	134	3
139	139	1
145	146	1
128	128	1
6	13	4
11	41	2
26	32	4
35	41	3
50	50	1
136	145	1
69	84	1
21	21	1
90	90	3
86	125	1
57	57	3
3	6	6
27	29	2
130	130	2
22	23	3
118	126	2
15	15	5
110	115	2
12	15	2
88	89	3
91	92	1
143	144	2
64	72	1
32	32	2
112	122	2
102	115	2
107	110	1
90	95	2
86	86	4
25	25	3
34	36	2
76	79	2
13	13	1
8	21	1
43	43	3
25	41	1
89	89	2
122	123	3
76	84	1
126	142	1
64	65	1
142	142	1
108	109	2
24	24	4
108	110	1
83	83	2
9	9	2
32	43	2
78	112	1
58	78	1
53	54	1
76	77	1
36	36	1
60	113	2
79	100	1
125	126	4
69	79	1
98	99	1
35	37	1
105	105	2
73	77	1
69	69	3
47	47	3
9	39	2
70	74	1
85	101	1
49	49	2
52	52	2
78	78	3
119	119	3
32	35	2
10	11	2
121	123	2
41	52	1
77	78	2
98	104	1
110	116	1
10	42	3
96	113	1
48	68	1
17	17	7
66	66	1
74	74	3
91	100	1
110	140	1
71	72	1
79	80	1
57	61	3
95	114	3
76	76	3
114	114	5
59	64	1
58	67	1
89	90	1
37	37	2
112	112	1
48	61	2
127	141	2
60	60	2
73	96	1
68	71	2
81	87	1
97	98	2
57	70	1
22	27	1
52	53	1
20	27	3
42	43	4
105	122	1
39	89	1
97	115	2
89	96	1
141	142	1
110	110	1
138	140	1
103	103	5
116	116	2
100	101	2
108	135	1
29	32	1
47	51	3
77	83	1
74	75	1
118	131	1
36	39	1
54	54	2
5	5	4
57	79	1
3	4	1
82	82	2
70	79	1
31	32	2
139	140	1
96	115	1
56	84	3
102	135	1
79	82	2
67	82	1
69	70	1
62	67	1
0	9	1
106	106	1
59	73	1
60	80	1
94	109	2
49	56	1
108	108	2
4	5	1
10	37	2
15	16	1
94	94	2
61	61	2
114	117	1
104	132	1
34	43	1
67	68	1
11	37	2
63	63	1
70	78	1
10	88	2
119	120	1
0	48	1
126	144	1
11	23	1
4	4	2
19	34	1
61	67	1
85	94	1
50	51	1
136	142	1
122	129	1
62	62	1
111	116	1
113	115	1
16	18	1
120	136	1
0	12	1
125	136	1
107	115	1
