102	102	9
13	14	10
1	1	9
126	126	15
80	87	8
86	86	10
30	32	1
110	111	5
20	20	2
13	13	10
78	78	8
88	88	6
31	32	9
127	127	4
76	76	9
114	115	3
104	104	15
102	110	1
79	79	10
12	79	1
84	85	3
74	74	11
76	77	1
128	128	3
11	11	9
12	12	9
6	6	11
73	97	4
83	83	3
112	112	5
36	36	14
3	3	7
73	73	3
131	131	6
133	133	4
94	94	6
28	84	2
87	87	8
3	7	3
100	100	7
31	31	3
5	5	5
139	139	14
89	89	10
88	94	1
81	81	6
7	7	10
81	83	1
25	33	1
126	132	1
110	110	7
87	129	1
30	30	5
115	115	5
96	131	6
33	34	7
130	130	11
23	23	4
38	38	7
108	113	3
34	34	9
72	116	3
26	26	6
89	101	3
78	79	1
117	117	5
4	4	4
71	77	1
35	35	6
35	36	1
75	75	15
125	125	6
83	85	4
4	5	1
0	0	17
86	96	3
16	97	5
24	24	7
90	91	9
21	21	2
99	99	12
19	19	15
111	112	1
32	33	3
111	115	4
37	131	2
124	124	2
37	37	6
36	86	2
93	94	3
104	109	4
135	135	2
132	132	10
9	9	6
78	86	4
71	71	4
13	75	2
137	137	7
99	100	4
140	140	6
116	116	9
91	92	8
36	92	1
134	134	3
18	18	1
27	27	4
98	98	5
87	117	1
79	118	3
90	90	7
129	132	1
10	10	3
12	15	4
103	103	10
95	96	4
120	122	2
77	93	1
88	138	3
16	16	1
25	26	3
114	114	10
112	122	1
136	137	2
136	136	5
15	15	3
74	76	1
112	113	1
113	113	5
8	8	2
104	107	1
88	90	3
119	119	1
113	114	2
122	123	9
129	130	4
108	110	2
96	97	2
108	109	11
28	28	6
3	37	1
106	106	2
71	86	5
82	87	1
77	77	2
12	19	1
72	72	3
21	27	1
28	81	1
22	23	3
115	116	2
5	6	1
14	31	1
118	123	2
25	25	9
79	84	1
15	16	7
7	99	1
19	20	1
34	35	2
0	2	2
121	122	3
0	112	3
79	80	1
105	105	6
129	129	2
74	75	3
120	120	4
97	97	9
111	111	3
2	3	2
106	113	3
16	21	1
16	17	1
27	31	2
13	15	3
138	138	2
110	123	2
33	33	5
85	87	2
82	83	3
22	22	3
15	33	1
122	122	4
117	119	2
7	9	3
71	85	1
96	96	2
116	117	5
134	135	2
90	129	2
7	8	2
138	139	1
82	82	4
74	103	4
101	103	2
14	14	1
85	85	2
27	28	1
121	121	1
72	114	1
119	120	1
2	2	4
109	109	5
72	73	2
34	117	1
108	108	1
22	24	1
92	93	2
123	123	2
86	108	1
79	101	2
94	122	2
84	84	3
124	125	3
23	24	1
113	116	1
23	25	1
23	26	1
106	107	1
11	12	3
28	119	1
10	11	2
109	115	1
82	84	3
98	99	3
37	132	1
76	78	2
24	118	3
111	132	1
86	88	1
9	15	2
14	15	2
127	128	1
124	126	1
28	29	1
17	17	1
91	91	1
103	106	1
3	4	2
77	78	2
32	32	1
93	93	1
88	89	1
107	107	1
74	94	2
126	127	1
23	119	1
29	100	1
75	76	1
117	118	1
100	114	1
110	117	2
101	101	2
30	85	1
