10	11	2
83	83	4
111	113	5
113	122	5
75	84	5
27	27	3
128	130	4
20	36	3
26	26	3
10	12	1
78	84	1
135	148	2
17	26	2
28	28	1
26	34	4
18	18	2
71	92	4
23	23	4
124	124	1
135	135	2
47	53	4
120	133	1
29	31	2
18	19	2
95	95	5
30	31	4
77	77	3
102	113	1
4	18	2
115	115	3
30	41	1
80	80	7
6	6	3
31	36	2
94	96	1
70	93	4
126	148	2
29	36	1
100	122	1
78	81	3
150	150	2
107	119	1
38	48	2
110	110	2
46	46	3
20	27	2
116	129	3
134	139	1
126	126	2
97	97	2
72	73	1
135	136	1
62	62	6
11	11	6
144	146	6
108	109	2
100	100	1
112	112	3
94	95	5
39	39	2
9	10	2
142	144	1
72	93	1
40	40	3
51	57	3
5	88	1
132	136	3
141	141	3
123	124	3
132	134	2
138	150	4
62	63	2
111	121	3
15	26	2
110	112	2
14	14	4
128	128	2
24	24	1
42	42	1
93	93	2
119	119	4
121	123	1
15	24	2
142	143	1
16	16	2
124	137	1
136	138	1
31	31	1
70	82	1
132	141	1
116	118	2
66	71	1
126	132	1
137	137	4
99	108	1
122	123	3
7	7	1
122	122	5
15	15	3
145	145	4
116	116	1
113	125	3
112	113	1
19	20	5
125	133	1
8	8	2
11	25	1
101	102	3
78	78	2
88	99	1
5	17	2
31	72	1
138	149	1
124	130	2
44	53	1
4	17	1
41	42	2
97	102	1
86	93	2
85	85	3
138	147	1
124	128	2
152	152	1
35	35	1
3	14	1
103	103	1
74	75	1
43	55	2
102	102	3
65	65	5
4	9	2
12	16	1
32	33	1
48	48	1
36	54	1
33	34	1
130	130	1
110	117	1
131	132	1
50	52	2
44	56	1
50	50	3
146	147	2
29	29	5
53	53	1
37	37	1
44	51	2
81	81	2
151	154	1
17	19	4
137	138	1
2	2	2
18	25	1
120	131	2
140	142	2
119	143	3
118	127	1
105	105	1
44	55	2
73	76	3
152	154	1
149	149	1
75	80	1
10	44	1
21	34	2
132	133	1
45	46	1
105	106	3
114	114	3
30	30	1
102	105	1
74	74	1
12	13	2
23	32	1
29	98	1
19	28	1
24	27	1
76	78	1
2	13	1
33	42	1
4	4	1
83	97	1
11	15	1
109	110	1
96	109	3
37	47	2
17	25	1
108	108	1
98	109	1
113	113	3
100	121	1
66	78	1
67	67	1
125	127	3
107	107	1
84	94	2
22	31	1
32	46	2
74	79	1
136	137	1
32	34	1
56	65	1
14	15	1
3	25	1
134	136	1
9	20	1
119	135	1
47	47	1
144	151	1
127	136	2
147	154	1
142	142	1
139	141	1
41	43	1
84	84	1
68	69	1
2	4	1
