32	40	8
73	74	9
20	22	7
68	68	9
141	141	7
101	101	23
106	136	2
71	72	6
37	71	1
100	100	8
137	137	9
8	9	4
94	94	4
26	26	10
62	67	1
104	104	5
134	134	2
42	42	12
91	91	8
125	130	4
18	18	10
119	120	1
95	95	14
83	83	6
8	8	11
85	91	1
82	83	7
96	96	13
111	112	7
33	33	12
87	88	6
16	18	3
40	126	5
128	129	4
77	77	4
33	36	5
10	11	3
35	35	13
2	6	4
21	136	3
61	61	5
64	66	3
20	20	8
47	47	3
49	49	5
112	116	3
5	5	6
131	134	3
123	123	14
71	71	6
22	22	10
76	80	3
12	26	3
62	62	12
134	135	4
38	38	10
113	113	4
110	125	2
15	141	1
60	60	5
135	136	7
112	112	10
85	85	5
72	72	3
76	76	2
67	67	13
19	23	3
37	37	6
127	127	15
109	109	5
77	79	2
135	135	3
28	28	7
100	101	3
100	110	8
81	81	6
18	19	2
119	119	7
122	123	3
70	71	3
71	92	4
17	17	18
142	142	5
35	37	1
108	116	5
59	85	3
90	90	3
78	78	17
80	80	4
63	64	2
138	138	5
66	67	4
89	89	9
84	85	1
31	31	9
29	30	2
126	128	7
120	127	6
57	57	4
70	70	3
72	94	4
68	69	3
61	90	1
131	131	12
15	15	7
58	59	2
36	36	3
73	73	2
9	9	2
110	110	3
120	121	4
21	21	2
117	117	3
2	2	3
64	64	4
4	6	2
84	84	2
125	131	4
27	28	4
130	130	8
101	102	1
94	97	4
145	145	5
37	41	2
120	132	1
25	25	6
11	25	2
54	55	1
85	87	3
114	114	4
60	63	4
116	116	2
30	30	8
99	99	4
3	4	6
48	94	2
43	118	1
21	146	3
93	93	7
120	120	3
88	90	2
35	36	3
115	115	6
0	25	1
63	63	14
48	99	3
53	61	8
19	19	9
73	107	1
16	16	1
128	128	1
144	144	5
112	131	2
34	36	5
87	87	2
48	100	1
125	135	2
114	115	2
41	41	4
26	27	6
10	10	4
82	82	4
117	118	4
132	133	4
39	39	3
69	71	2
9	10	1
133	133	3
108	108	6
102	104	8
19	22	1
1	20	3
34	34	4
143	143	4
13	13	10
75	75	3
85	86	1
105	110	2
29	29	3
43	43	5
42	43	7
68	70	1
1	1	2
42	84	1
138	139	3
81	82	3
16	94	2
47	77	4
55	65	1
61	62	2
92	92	2
11	11	6
13	21	1
19	29	2
137	138	5
38	39	3
38	80	1
84	86	1
27	27	3
103	103	2
118	118	4
132	138	1
15	92	1
2	3	1
79	79	7
65	65	1
1	2	4
124	124	3
28	30	1
65	67	2
87	91	2
62	63	6
59	59	2
75	107	2
52	100	2
37	80	1
78	79	2
105	106	2
121	121	5
111	111	1
53	53	1
18	27	2
31	32	8
108	109	1
42	96	2
123	135	2
26	37	2
24	26	3
120	138	1
6	6	1
51	58	1
23	23	4
115	117	1
101	103	5
4	8	1
140	140	1
119	121	3
69	95	1
48	48	1
15	16	1
59	60	1
123	136	1
49	50	3
88	88	4
39	76	1
25	37	1
55	55	1
27	144	1
74	75	1
50	50	1
56	56	2
39	133	1
0	0	1
98	98	2
134	142	2
144	145	2
51	51	1
140	141	1
119	127	1
30	31	1
126	126	2
3	3	1
55	99	1
106	122	1
126	127	1
33	40	1
126	129	2
75	76	2
74	74	1
80	81	1
47	94	1
39	40	1
127	131	2
113	121	1
32	35	1
64	87	1
106	108	1
51	52	1
90	91	1
29	33	1
25	26	1
53	101	2
23	24	1
28	29	1
