120	121	3
5	25	2
33	138	1
116	122	1
23	24	3
122	122	13
38	39	8
99	99	3
63	71	1
51	51	6
84	102	3
147	147	4
45	45	9
117	118	2
129	129	8
1	1	10
33	33	9
75	75	6
22	129	3
15	28	2
109	111	1
145	145	5
0	0	2
107	107	15
27	157	5
23	25	2
54	54	6
27	27	14
116	116	8
137	138	2
104	104	6
140	140	7
108	108	4
78	79	3
80	81	5
121	121	5
36	36	3
77	142	4
120	120	3
20	22	3
136	137	9
65	65	15
153	153	2
32	34	2
66	66	2
15	16	1
155	156	3
68	69	2
29	29	14
149	149	5
2	2	6
94	105	5
28	55	3
95	95	4
2	29	4
41	41	3
132	132	9
39	41	9
34	34	5
135	158	4
110	111	3
63	64	5
90	90	9
30	56	3
48	48	16
158	158	12
117	117	4
6	6	10
5	9	1
131	131	7
75	76	5
156	156	5
22	128	3
35	136	1
22	22	8
97	97	9
98	99	8
67	67	10
62	62	3
152	152	6
30	33	1
82	83	3
7	7	12
73	73	6
99	100	6
70	70	17
18	18	8
97	99	2
23	23	6
87	87	19
27	151	2
44	44	8
103	104	3
56	56	8
111	111	3
137	137	11
123	123	4
119	119	8
80	80	11
70	127	1
17	20	2
9	9	4
84	84	12
111	112	4
139	139	8
127	127	13
103	103	9
138	138	5
0	151	5
43	43	5
16	16	7
44	45	3
47	47	1
89	106	1
46	46	4
94	95	3
39	40	7
123	124	6
81	82	3
4	4	5
50	50	7
5	6	1
17	18	2
111	113	1
9	10	3
147	148	2
25	70	4
42	47	1
158	159	2
106	106	5
106	108	4
133	133	6
68	68	7
11	70	1
146	156	6
46	48	1
13	13	3
87	106	5
39	39	7
151	151	7
24	73	1
157	157	3
101	101	8
151	152	6
80	117	1
152	154	1
84	85	4
31	31	16
107	108	8
57	61	1
40	40	4
2	6	2
1	26	2
90	91	3
144	144	6
100	101	5
21	21	7
85	92	1
104	105	3
29	30	7
88	88	6
79	79	3
28	30	1
10	10	4
83	83	3
142	142	7
26	26	10
106	107	1
146	147	4
14	14	4
123	125	2
19	19	6
94	109	1
134	134	4
78	78	1
67	69	4
148	148	1
73	74	4
36	37	2
130	134	3
121	122	9
79	145	4
29	150	5
90	93	2
47	49	2
30	30	6
3	50	3
155	155	3
18	145	1
136	150	1
91	91	11
102	102	5
4	27	1
130	131	3
2	50	2
42	43	7
99	101	2
126	126	3
25	26	7
38	38	2
43	44	4
6	51	1
131	133	2
22	120	2
54	55	2
25	128	3
94	94	11
21	71	1
74	74	3
6	45	5
154	154	3
13	14	1
63	63	4
12	25	2
81	81	1
128	128	5
0	152	6
82	82	3
48	54	2
15	17	4
4	55	1
69	69	2
92	92	7
115	122	3
81	117	1
5	7	7
98	105	5
113	123	3
77	77	5
147	156	2
3	4	1
100	100	6
135	148	4
23	129	3
127	128	1
73	128	1
85	103	2
53	53	5
146	146	5
11	11	4
113	114	3
2	3	4
125	125	3
24	25	1
52	53	2
107	109	3
68	70	3
44	46	2
47	51	2
10	63	3
12	13	1
105	106	1
19	20	1
112	113	1
65	74	2
145	146	1
31	33	1
11	71	3
71	72	2
55	55	4
11	64	1
150	150	3
18	25	3
115	115	2
42	52	2
24	24	2
130	135	1
72	72	1
114	114	3
3	3	4
141	141	1
67	68	5
43	46	1
14	18	1
116	117	1
1	2	1
16	56	3
84	103	3
27	158	3
68	71	5
141	143	1
82	116	1
32	32	4
49	49	3
76	76	2
113	113	4
65	69	2
20	21	3
13	57	2
88	89	1
9	64	1
30	32	1
108	112	1
17	17	3
0	26	2
41	42	4
4	30	1
6	7	1
13	27	2
96	105	2
98	98	5
103	106	1
132	134	2
12	67	2
35	35	2
119	120	2
84	104	1
44	64	1
9	11	2
105	105	4
43	45	2
95	96	2
66	67	1
118	121	1
17	153	1
129	146	1
18	19	1
145	156	3
64	64	2
16	152	2
11	23	2
42	42	2
13	69	1
121	123	1
27	56	2
140	141	3
109	109	1
71	71	1
133	134	1
50	51	4
48	50	1
13	56	1
69	70	2
17	154	1
51	52	3
11	12	1
129	130	1
4	38	2
37	37	2
129	157	1
13	15	1
134	135	1
86	86	1
78	145	1
132	133	3
15	15	1
125	126	3
23	128	1
23	76	1
137	152	3
96	97	1
28	28	1
86	88	1
70	71	2
74	75	1
52	52	1
138	139	2
130	158	1
145	148	1
115	116	3
81	142	1
95	99	1
87	94	1
85	89	2
156	157	1
65	66	1
126	127	1
28	54	1
96	96	1
28	56	1
136	136	1
5	5	1
100	104	1
99	104	2
40	53	1
131	139	1
122	123	1
76	77	2
102	103	1
31	32	1
153	157	1
33	34	1
145	157	1
