33	33	25
116	117	2
111	112	3
47	59	3
59	59	16
48	48	20
134	134	10
87	87	6
15	15	25
106	106	12
45	45	10
112	112	9
106	107	4
31	31	18
55	56	4
11	15	1
62	62	14
76	76	19
4	5	5
7	7	16
122	122	15
114	114	15
133	133	11
68	69	2
21	21	7
92	92	5
57	57	21
70	70	11
27	30	2
13	13	15
131	131	14
21	22	14
39	39	21
18	18	15
26	26	7
84	84	16
25	25	5
111	111	21
95	105	3
126	126	24
60	66	2
37	37	2
24	24	17
86	131	2
37	42	3
43	43	13
20	20	16
89	92	4
67	67	12
84	85	6
117	117	15
86	87	5
120	120	11
78	78	10
116	116	19
102	102	14
129	130	2
90	90	12
41	45	1
6	6	17
10	10	22
132	132	12
31	32	4
105	112	4
42	42	12
0	0	12
97	97	11
26	27	2
119	125	5
88	88	14
68	68	21
121	123	5
93	123	3
23	25	3
99	99	16
85	86	7
19	19	13
95	95	8
55	55	12
59	60	19
16	16	16
123	124	6
60	60	6
4	4	7
11	11	14
81	81	17
36	38	2
40	40	8
73	95	6
83	84	2
81	90	6
6	7	3
104	109	4
77	77	9
17	17	19
128	129	3
78	80	5
1	1	10
96	133	2
107	107	16
101	101	9
127	127	12
93	93	17
72	73	4
30	30	12
119	119	15
35	36	3
115	115	16
28	31	3
59	68	3
24	25	10
72	72	7
36	36	14
40	41	7
22	22	15
124	125	11
12	23	2
108	109	7
123	123	24
133	134	2
46	47	5
72	125	4
80	85	1
9	9	15
33	42	5
87	88	1
46	46	8
96	96	7
66	103	1
28	42	2
70	72	7
33	35	2
105	105	5
47	47	19
68	109	4
30	37	6
97	98	3
3	4	1
107	108	3
36	37	10
14	14	8
72	133	2
121	121	17
88	100	1
59	131	2
119	120	14
11	12	1
2	2	8
35	40	1
12	12	15
43	55	7
28	29	2
96	97	4
98	98	5
66	66	11
62	63	9
113	113	6
19	20	2
124	129	5
78	100	1
48	78	1
74	74	10
73	73	7
80	81	4
129	129	9
38	38	6
124	124	8
128	128	18
117	127	2
22	23	6
27	29	2
104	127	5
87	129	2
65	65	20
5	7	3
28	28	10
54	54	1
89	111	2
75	75	9
41	41	9
58	59	11
23	24	4
45	75	3
85	85	15
103	104	2
125	127	2
55	58	6
101	103	4
58	61	5
86	86	13
20	23	2
56	106	1
118	118	6
37	38	1
29	42	6
56	97	4
94	127	1
101	104	2
20	27	3
11	19	1
90	91	3
65	111	3
74	109	1
42	44	3
69	69	3
51	51	3
23	27	1
40	43	7
33	38	2
114	115	6
62	101	2
130	130	5
8	8	15
30	38	6
104	104	10
103	105	1
25	42	1
11	41	2
13	15	5
110	110	10
92	94	3
121	122	1
81	82	6
34	34	4
125	125	7
27	28	2
13	34	1
29	29	4
91	91	4
12	13	6
58	62	1
131	132	7
122	125	7
2	3	2
37	40	2
72	108	3
79	132	1
97	100	3
27	27	9
122	123	2
19	60	5
44	109	4
41	54	1
57	58	9
70	122	2
75	134	2
38	39	3
48	49	3
14	15	5
84	87	1
88	89	1
71	120	1
57	113	1
43	44	8
94	133	2
67	68	2
3	3	4
58	58	5
43	45	5
64	102	2
82	83	10
127	128	4
31	37	1
61	62	2
87	100	1
23	43	2
25	28	2
14	39	5
44	44	15
89	89	2
131	133	2
32	33	3
36	44	6
64	64	5
122	127	4
82	82	4
109	109	9
61	61	6
35	35	6
22	27	3
41	44	3
58	103	2
71	72	4
127	130	2
56	87	2
34	35	6
70	71	5
12	31	2
47	48	4
29	30	5
17	41	5
80	80	14
96	101	1
100	100	13
105	123	2
5	5	5
91	93	4
44	55	1
74	75	2
71	71	6
103	103	1
79	80	5
8	32	3
112	113	6
11	37	1
22	24	1
99	100	1
104	105	2
31	36	1
95	97	1
45	76	2
78	120	1
26	36	2
93	94	3
92	93	6
76	103	5
56	56	11
94	94	7
63	63	5
42	43	2
14	17	2
58	116	2
14	16	5
55	132	1
14	31	1
30	44	4
75	76	5
32	37	1
13	36	2
44	45	1
7	13	4
14	27	3
99	103	3
3	32	1
77	120	3
43	51	1
57	59	2
117	120	1
45	65	3
11	49	1
39	40	2
49	50	2
95	96	4
100	103	2
11	40	3
45	46	2
111	126	3
77	128	1
83	83	7
95	98	1
83	85	1
54	55	1
88	112	1
82	84	2
21	24	1
94	95	1
91	102	4
36	42	3
63	64	1
22	26	3
69	122	1
69	74	4
80	82	2
120	121	2
0	2	1
95	102	1
88	103	1
5	6	2
45	63	2
16	17	2
57	62	1
109	110	1
86	113	7
23	23	3
114	131	1
17	18	4
106	114	2
45	47	1
98	99	3
18	19	3
87	103	1
79	79	9
28	33	2
32	32	2
4	13	2
117	118	4
8	9	5
96	122	1
79	81	3
59	61	1
56	57	2
114	127	3
67	69	3
7	8	1
64	65	2
73	120	4
21	27	1
126	127	2
105	106	1
108	110	1
25	26	1
17	39	1
49	49	2
80	100	1
64	95	1
102	105	2
15	16	3
69	118	2
81	83	1
76	123	1
91	92	1
86	102	1
50	50	1
125	126	1
13	43	1
81	91	2
102	103	1
11	27	1
113	116	4
20	22	2
94	117	1
41	55	3
74	108	1
75	128	1
112	132	1
83	127	2
11	35	1
69	70	2
86	129	1
30	39	2
93	130	1
1	2	4
85	132	1
14	36	1
7	9	1
36	43	1
66	74	1
34	39	1
0	1	3
56	58	1
44	108	1
26	31	1
62	95	1
123	125	2
89	110	2
108	108	2
106	124	1
15	21	2
119	121	3
106	133	1
111	115	1
51	56	2
60	61	2
67	110	2
26	37	1
129	133	1
13	14	1
98	100	1
10	11	2
132	134	1
22	28	2
114	123	2
113	114	1
118	121	1
46	77	1
