111	111	14
228	228	9
74	88	5
60	60	11
23	23	22
12	12	15
57	57	14
32	32	15
229	229	14
76	79	1
202	202	18
220	224	3
47	47	9
173	173	11
55	56	4
47	91	1
149	149	5
118	118	6
20	20	17
54	85	1
245	247	3
227	227	9
7	7	21
166	166	10
89	89	9
198	198	7
162	162	14
188	204	2
85	98	4
176	177	11
217	217	16
41	93	4
85	85	27
229	241	2
219	219	10
177	191	5
28	28	24
201	225	3
181	181	11
62	62	14
35	37	2
92	92	13
231	231	10
37	75	2
117	117	19
84	106	1
108	108	6
172	175	2
192	192	13
242	245	3
91	114	2
41	41	14
235	237	3
77	77	12
234	234	15
96	96	8
36	36	10
216	216	12
1	21	3
109	109	17
165	168	6
165	166	10
160	160	7
63	81	4
10	10	20
224	225	4
33	33	26
155	155	14
101	101	17
84	84	7
244	245	1
151	175	3
43	43	13
223	235	2
193	193	7
151	162	1
165	165	21
0	0	1
66	67	4
61	61	13
87	89	1
83	95	1
19	20	7
72	72	9
213	214	10
194	197	5
211	220	1
73	80	5
92	95	2
54	55	7
68	71	1
87	87	14
54	54	11
40	40	9
71	71	24
204	230	2
94	94	15
102	102	17
9	9	18
70	70	14
205	239	1
6	6	16
201	218	5
241	241	12
102	104	12
74	74	14
185	186	8
214	214	7
201	202	10
221	221	14
169	169	11
25	25	7
245	245	9
211	224	3
156	161	4
144	153	1
144	145	3
233	233	18
232	232	6
20	23	5
31	32	6
226	226	13
172	173	3
31	31	19
98	99	6
80	80	11
153	175	5
220	220	15
180	200	1
209	220	1
120	120	2
110	114	4
29	68	2
213	213	8
109	160	2
53	54	2
44	44	13
187	187	9
183	183	18
100	103	2
45	45	7
244	244	15
27	27	13
178	178	14
172	172	10
91	106	3
18	19	7
68	78	5
103	112	4
22	22	11
189	189	6
201	201	13
119	119	9
75	75	12
116	116	10
112	112	17
115	115	10
113	118	2
9	11	2
88	88	12
222	223	4
59	59	7
221	222	9
15	15	12
20	21	1
34	34	13
215	215	12
108	112	1
63	67	1
29	30	1
161	165	6
93	94	3
184	184	13
95	105	2
87	88	1
11	35	1
230	230	14
76	76	7
167	167	11
8	9	1
6	19	4
197	197	18
205	205	5
92	93	5
81	81	8
212	213	2
146	146	1
163	165	2
117	170	2
221	224	1
21	21	15
207	207	16
95	95	21
224	224	12
113	168	4
44	161	1
37	37	8
220	230	1
170	170	11
12	151	9
157	157	9
239	240	4
64	64	9
199	199	10
63	63	17
235	235	24
175	178	6
227	242	2
145	151	2
10	42	5
159	159	10
18	18	3
35	35	11
85	86	2
103	103	9
163	163	12
191	192	6
222	222	12
147	147	12
61	62	2
58	98	3
4	21	1
223	223	15
209	209	14
151	151	15
37	56	1
153	153	18
225	225	11
145	145	16
189	208	3
233	237	3
42	42	9
240	240	8
11	11	7
60	61	4
171	171	11
70	83	2
19	42	1
29	29	11
49	49	7
74	84	3
51	51	14
76	77	11
202	204	8
3	6	1
185	185	14
46	86	4
203	205	5
90	91	3
221	249	1
209	219	1
57	58	1
154	154	10
158	158	2
195	195	4
166	167	1
106	111	4
61	71	4
73	73	13
236	236	14
204	248	1
95	112	2
96	98	1
114	117	2
68	69	5
17	18	7
97	97	17
191	191	7
115	119	1
48	48	8
20	175	1
164	178	2
1	1	14
19	21	5
232	233	8
227	228	3
46	46	17
117	144	2
47	49	2
4	16	1
177	177	17
38	38	7
38	40	1
26	26	21
162	163	4
64	82	1
247	247	15
150	150	16
6	32	1
47	72	1
35	36	1
11	30	1
175	175	8
5	5	18
220	232	4
76	100	1
114	115	12
53	72	2
17	17	18
180	180	9
57	62	1
220	245	1
204	204	9
205	218	5
189	207	6
164	164	11
238	238	14
179	182	2
194	199	1
156	177	1
51	88	2
66	66	9
3	181	3
186	186	4
67	67	12
68	68	11
167	168	6
48	56	3
37	38	1
51	52	5
79	79	1
226	241	1
72	162	2
94	111	4
10	11	3
55	55	9
227	243	2
19	19	6
50	50	5
170	173	1
53	53	20
44	45	5
227	235	2
179	179	9
3	3	3
207	231	2
55	207	3
5	6	3
15	37	2
216	234	4
46	48	2
66	68	4
161	161	9
49	73	1
89	94	2
211	211	9
55	75	2
161	163	1
217	218	5
113	113	10
210	210	7
117	118	9
111	116	6
170	182	1
117	119	2
82	82	18
151	152	2
173	233	1
202	205	2
152	152	11
105	108	2
226	227	5
150	180	3
104	104	7
164	165	3
99	117	1
100	101	6
110	110	17
182	187	2
214	232	3
63	94	1
25	29	1
105	107	4
32	35	3
163	167	2
21	29	1
107	112	3
76	91	3
52	52	9
214	226	1
230	231	2
4	4	7
157	163	2
39	54	3
91	91	8
27	156	5
98	98	7
94	95	3
158	160	3
69	80	2
206	223	4
232	242	2
246	246	8
90	90	6
86	86	16
59	71	1
200	200	10
65	65	7
99	99	4
89	161	2
218	218	5
83	83	9
208	211	3
16	19	6
30	30	11
158	183	1
174	192	1
238	239	3
69	70	9
106	106	6
215	234	1
220	221	1
152	157	1
192	198	2
82	109	5
176	176	17
55	71	3
170	172	2
208	208	11
210	213	5
152	174	2
169	171	1
65	66	8
15	46	3
77	84	2
150	171	1
230	234	1
61	81	2
49	50	8
38	39	6
52	154	2
77	81	2
248	248	6
5	181	3
203	204	5
5	24	3
237	237	8
56	56	8
13	14	2
197	241	1
54	62	1
100	100	6
7	200	2
189	190	3
84	85	2
227	241	2
229	242	3
71	74	2
157	158	1
59	64	2
16	16	3
2	35	1
209	214	3
85	117	1
202	234	2
161	169	2
205	212	2
58	61	2
221	223	2
12	244	2
67	89	2
47	98	5
160	173	3
179	189	1
89	169	5
175	176	1
58	84	2
100	117	1
190	190	7
209	226	2
208	210	3
8	8	7
19	32	8
105	105	5
151	156	4
224	226	1
95	115	2
15	16	2
28	156	2
100	119	2
28	32	3
243	245	1
29	48	1
61	94	1
70	71	2
60	62	4
192	200	1
175	180	1
153	204	1
206	207	2
121	121	1
154	155	7
110	111	4
15	33	1
237	238	2
154	156	3
198	200	1
185	187	1
224	234	1
49	59	2
7	10	2
1	3	2
233	234	5
230	238	1
102	114	3
181	182	2
64	79	3
74	77	1
88	106	2
182	183	3
150	151	1
96	115	3
86	87	5
81	105	2
69	69	8
93	93	8
22	23	3
220	225	3
71	72	4
52	66	4
23	24	3
45	46	1
90	101	1
160	165	2
16	17	2
178	179	6
74	75	1
8	201	1
59	60	4
9	23	1
55	57	3
36	41	3
210	227	2
31	156	1
207	208	2
159	173	3
180	192	2
95	98	3
6	12	1
208	209	3
51	53	2
40	42	2
55	91	2
1	110	2
97	118	2
182	201	1
104	111	2
207	210	1
29	87	1
240	244	7
71	75	3
48	80	3
206	236	2
55	65	1
18	43	2
30	46	1
32	44	2
48	49	2
237	246	1
179	181	2
154	227	1
170	191	4
210	211	4
55	62	7
224	229	4
89	105	1
188	188	3
177	184	1
111	120	3
55	86	1
239	242	1
220	240	3
196	198	1
184	192	2
107	107	11
82	191	1
62	69	1
236	237	5
165	167	2
242	242	10
97	115	4
212	224	1
205	215	1
81	87	2
145	162	1
56	210	1
205	231	1
90	94	3
169	192	2
160	161	5
65	91	1
193	194	7
157	159	1
24	24	6
168	169	5
197	198	5
56	92	2
150	152	2
176	185	2
79	96	3
188	192	1
182	245	1
180	181	4
85	97	3
208	247	2
236	240	4
228	229	3
204	205	2
105	106	5
63	75	2
64	74	1
63	65	3
95	109	1
30	31	4
108	113	3
171	204	2
25	63	1
120	153	1
150	159	1
15	27	2
95	120	1
111	114	1
106	108	5
78	79	2
34	115	2
229	230	2
117	120	2
168	185	1
111	113	2
16	26	3
59	76	2
163	164	7
217	246	2
41	43	3
5	9	3
47	57	2
156	156	7
85	109	1
112	113	2
29	50	1
91	102	1
44	57	1
177	178	4
212	216	1
246	247	4
43	44	3
52	53	3
10	24	2
118	120	2
42	43	2
102	103	3
85	99	1
243	243	12
168	168	5
212	225	3
193	195	4
174	174	6
39	55	1
179	198	1
200	223	1
67	69	1
188	203	3
186	187	2
23	25	3
203	248	4
46	47	6
58	58	5
69	95	3
203	203	3
26	27	2
194	195	1
114	114	8
168	187	2
26	37	1
38	43	1
27	29	2
188	206	3
240	241	2
249	249	2
222	232	2
106	159	1
155	156	4
160	164	1
218	219	2
225	241	1
155	229	3
40	44	4
68	75	1
242	244	1
60	72	1
59	90	1
30	156	1
110	146	2
193	241	2
80	97	3
192	194	3
3	203	1
68	90	1
224	245	1
31	35	1
20	39	1
176	192	1
97	112	3
26	28	2
62	167	1
239	246	1
184	185	4
207	237	1
14	14	1
149	151	1
212	212	5
210	220	1
243	244	5
42	44	2
102	119	1
108	111	1
228	240	1
179	180	3
232	241	1
222	224	1
95	99	2
5	32	3
193	247	2
64	77	2
214	235	4
196	243	2
62	162	1
226	236	1
93	95	2
153	176	2
142	142	1
168	182	1
164	185	1
204	244	1
106	107	3
144	144	1
55	59	1
2	2	2
75	106	1
223	224	2
161	204	1
95	96	2
96	97	3
109	111	2
69	71	1
10	21	1
210	246	2
214	215	1
22	42	1
179	187	1
216	218	1
177	183	1
5	160	2
192	193	3
203	225	1
49	67	3
113	117	1
36	37	1
157	225	1
4	5	3
231	235	1
206	206	3
180	182	3
182	182	2
3	15	1
234	235	3
12	14	4
182	200	1
226	228	1
191	197	1
223	228	2
155	159	1
55	70	3
223	237	1
36	42	2
112	120	1
196	196	1
38	61	2
73	75	1
83	84	2
30	47	1
43	63	2
111	112	3
94	100	2
227	229	3
64	66	2
49	64	2
19	47	1
209	210	3
1	7	4
61	74	1
217	241	2
19	43	1
85	88	4
78	78	6
38	101	1
75	79	1
37	48	3
57	66	1
189	200	1
45	59	1
34	35	1
208	227	1
107	108	1
77	78	1
170	171	2
164	189	1
68	89	2
219	231	2
156	160	4
65	74	1
77	79	2
16	31	1
29	33	1
9	12	1
164	177	1
227	247	1
34	67	2
115	116	1
76	102	2
33	35	1
91	107	2
225	226	2
20	177	1
93	98	2
5	159	1
206	209	1
217	232	1
101	117	2
202	203	1
63	66	1
171	222	1
240	242	1
182	204	2
195	196	3
42	93	2
41	42	4
67	68	1
205	240	2
15	28	3
182	186	1
19	38	1
64	91	1
238	240	3
154	166	1
50	77	1
157	224	1
13	13	4
102	105	1
5	8	1
214	216	2
41	46	1
114	121	1
11	14	1
186	214	2
120	180	1
55	190	2
64	78	1
214	225	1
63	72	4
101	102	1
110	120	1
99	100	2
159	160	2
58	66	2
213	244	2
58	60	3
56	61	2
99	101	3
216	217	1
3	4	1
187	188	2
67	70	2
112	159	1
165	201	1
58	62	2
53	93	2
189	195	1
194	194	4
230	246	1
188	214	1
11	41	1
91	101	1
66	72	2
32	33	2
202	206	1
12	31	1
12	33	1
103	114	1
210	222	1
3	5	1
56	64	2
39	43	1
5	34	1
93	116	1
162	165	1
18	183	1
40	41	1
6	9	1
7	35	2
66	188	1
70	75	1
215	219	1
196	240	1
96	110	1
211	214	2
212	214	2
47	48	1
2	8	1
247	248	1
75	91	1
40	54	1
231	232	2
217	220	1
49	80	1
193	203	2
43	61	1
54	59	1
18	42	1
211	212	1
212	238	2
156	169	1
72	73	2
6	109	1
27	47	1
75	76	1
190	191	1
175	234	1
101	113	1
69	78	2
56	58	1
17	19	2
73	94	1
120	145	1
79	81	1
166	187	1
56	216	2
237	239	1
16	78	4
174	176	1
222	249	1
182	191	1
83	108	3
35	109	1
154	159	1
59	92	1
224	232	2
10	204	1
195	200	1
186	189	1
185	190	1
200	210	1
96	114	1
80	102	1
2	3	1
174	185	2
191	201	1
179	184	1
15	31	1
100	114	1
221	238	1
116	117	2
89	110	1
175	181	1
105	120	1
239	239	1
179	197	2
225	234	1
201	204	1
11	15	1
46	94	1
50	61	1
101	110	1
198	199	1
29	32	2
63	73	1
29	85	1
94	116	1
211	217	1
226	242	1
176	194	1
244	249	1
163	172	1
73	74	1
57	216	1
156	168	1
161	172	1
51	151	1
