75	75	11
17	18	2
171	172	4
139	139	2
216	216	1
9	25	2
49	49	10
20	27	1
228	228	11
18	18	9
36	36	3
2	8	1
121	122	1
129	129	1
0	0	6
60	60	4
233	233	16
206	206	13
10	10	11
192	193	3
78	84	2
5	8	3
193	194	6
81	81	4
46	46	5
158	158	3
176	176	6
205	205	6
180	184	4
98	98	12
236	236	3
20	20	9
199	199	6
51	51	8
23	30	2
208	211	3
28	28	4
99	103	3
44	57	4
45	45	10
184	189	3
147	148	8
35	41	1
183	185	3
84	84	6
118	150	2
130	131	1
221	222	3
178	178	8
61	61	1
121	121	9
13	16	6
21	21	6
68	69	3
4	31	9
53	53	11
79	79	12
210	215	2
156	156	4
197	207	1
74	74	9
14	14	7
5	13	4
47	47	5
117	118	5
168	168	4
237	237	2
3	3	3
235	236	5
145	145	8
136	145	4
155	157	3
9	9	16
212	213	3
104	113	4
163	163	10
168	189	6
173	173	18
49	55	1
238	238	7
4	4	5
104	105	6
177	177	8
174	174	6
102	102	4
118	119	5
220	222	5
133	133	5
58	59	4
17	17	11
148	148	9
222	223	4
21	41	1
141	141	6
154	154	5
33	41	3
107	130	4
217	218	8
54	54	11
171	171	8
4	14	2
209	209	10
83	83	12
172	172	3
127	127	4
197	198	8
234	234	2
217	217	4
191	191	2
230	230	6
41	41	10
68	68	11
236	237	2
26	26	8
63	63	5
45	46	5
109	109	4
67	70	2
175	175	14
2	2	8
56	56	5
134	134	6
166	166	3
61	62	3
162	162	6
40	40	13
136	136	5
182	182	12
32	32	7
50	67	2
80	80	12
210	210	13
218	218	13
190	191	1
25	25	9
53	58	1
110	110	8
52	66	1
126	126	20
146	150	4
103	104	3
156	157	3
191	194	1
171	181	5
188	188	11
14	22	2
70	73	2
151	151	2
219	230	4
36	38	1
165	189	2
100	101	5
68	102	2
201	201	10
135	135	1
74	75	6
199	209	2
226	227	3
71	71	13
13	14	2
99	109	4
136	138	2
193	205	3
230	231	3
1	1	1
105	105	3
200	206	2
210	231	3
102	107	1
85	86	1
200	208	3
54	55	4
73	73	6
124	133	1
72	78	4
137	137	4
17	32	4
118	184	1
21	167	3
159	160	1
30	30	4
201	214	4
172	174	6
63	82	6
195	196	6
58	58	4
120	120	9
220	225	2
184	187	2
95	95	5
81	82	8
178	179	3
236	239	3
101	101	7
165	165	10
213	216	2
164	164	9
75	121	2
179	181	3
49	50	4
0	79	3
185	185	13
85	224	1
78	78	7
51	52	3
142	142	6
35	35	6
212	212	11
189	189	6
183	183	5
56	74	2
16	16	8
233	236	1
189	192	3
122	122	11
226	228	3
65	106	1
5	5	5
66	84	2
101	102	6
140	141	10
70	71	10
75	76	3
66	66	10
8	8	6
221	223	2
170	170	1
179	184	2
84	88	2
107	117	2
65	65	7
15	15	4
220	221	1
213	225	2
2	49	2
231	231	8
13	13	2
131	132	3
164	165	3
63	83	2
62	62	10
140	140	7
18	19	3
119	123	3
52	52	6
114	114	1
101	104	2
4	5	6
205	215	3
95	96	1
131	134	2
17	197	1
208	215	2
48	48	3
198	198	9
4	35	2
38	38	10
161	162	4
209	213	6
225	226	1
117	117	7
152	152	16
2	5	1
224	224	3
37	37	13
211	212	5
128	178	3
77	79	2
196	196	8
238	239	1
181	181	9
169	179	2
144	145	3
118	163	3
161	161	19
0	1	3
22	54	2
34	34	3
212	217	1
112	146	1
86	86	5
62	64	2
227	229	2
29	29	8
23	23	9
40	165	2
24	25	6
54	139	2
42	43	3
39	39	5
221	221	3
193	206	5
88	109	1
99	99	2
60	61	3
67	67	1
21	52	2
27	27	7
149	150	2
150	150	8
118	124	4
109	113	2
8	9	2
91	91	3
104	104	5
119	146	3
19	198	1
119	120	1
31	31	4
57	57	3
29	30	2
34	35	4
80	81	4
92	104	1
120	121	3
39	50	3
157	159	4
68	101	3
115	115	4
128	173	1
229	229	5
235	235	6
10	48	1
133	137	1
106	165	2
231	232	2
204	204	5
19	19	2
47	48	1
207	207	9
112	112	2
22	22	5
239	240	3
147	147	3
239	239	3
149	151	1
43	62	3
51	67	1
189	190	3
170	171	1
23	25	2
124	154	3
200	214	2
204	206	2
143	146	1
122	124	2
222	230	2
192	192	8
201	202	7
203	203	5
72	72	8
103	103	3
35	50	2
144	144	3
219	232	6
174	179	2
82	83	2
3	34	2
67	78	1
57	58	2
111	111	5
215	215	5
159	159	3
23	28	3
154	157	5
0	2	1
148	149	1
123	146	2
150	160	3
103	119	1
149	149	8
182	183	1
125	130	1
97	97	3
24	24	7
75	89	1
198	208	3
195	197	1
42	42	3
88	88	5
124	124	5
128	128	6
64	66	4
43	43	7
22	23	3
196	197	2
123	184	2
216	230	1
10	11	1
182	190	2
134	135	1
15	17	3
239	241	1
126	129	4
202	203	4
20	22	1
179	180	7
35	45	4
211	216	3
55	55	5
39	53	4
214	214	6
187	187	3
138	138	8
195	195	4
109	115	1
210	230	1
124	139	2
103	115	3
236	238	1
201	220	1
113	113	6
233	239	1
225	225	6
125	125	3
60	64	1
77	84	4
184	186	3
146	146	7
200	212	1
214	230	1
234	235	2
3	36	1
174	181	2
188	222	1
69	69	5
237	242	2
180	182	4
119	125	3
120	122	1
62	63	2
33	33	2
236	242	3
185	186	1
113	152	1
203	204	1
73	75	1
99	127	2
216	221	3
130	130	5
208	213	1
240	240	2
68	74	1
153	153	7
227	227	5
77	77	3
116	116	2
31	33	2
101	111	3
200	200	3
106	124	1
6	6	8
9	15	1
108	108	2
106	108	2
21	22	6
202	215	1
58	80	2
205	206	1
232	232	2
140	145	2
5	30	1
179	230	1
15	24	3
201	206	4
116	117	2
39	43	2
21	30	1
211	211	5
106	117	2
99	124	2
198	217	2
11	11	2
138	139	4
50	79	1
216	226	3
133	135	1
23	29	1
160	160	2
147	149	1
137	138	1
3	12	4
199	200	6
108	109	4
171	187	1
208	208	2
216	229	3
169	169	4
223	224	3
36	41	2
196	199	2
5	7	3
113	160	4
123	162	3
188	192	1
82	82	5
34	37	1
199	211	4
219	220	3
164	189	2
201	215	1
155	155	4
107	113	1
157	157	3
124	125	2
14	17	3
202	202	5
48	79	2
125	126	1
143	143	1
166	190	2
182	207	1
170	187	1
75	79	1
52	53	5
220	220	3
44	44	6
84	85	1
171	173	1
105	113	1
234	236	1
126	134	4
33	34	1
154	225	2
226	226	2
125	146	1
75	169	2
202	204	1
28	166	1
65	102	1
24	28	1
105	121	2
13	30	1
97	110	1
64	64	1
211	215	1
194	195	3
158	159	1
213	227	1
45	48	1
214	228	1
173	179	2
5	9	1
4	16	3
46	68	2
123	125	1
155	158	1
95	104	1
36	56	2
39	40	2
175	176	1
14	15	3
222	222	3
126	130	2
57	66	3
58	60	2
50	50	2
111	112	1
191	192	1
108	124	1
74	120	1
124	138	1
125	139	1
65	101	1
179	179	2
54	68	1
67	69	1
117	124	1
220	223	2
219	219	3
86	118	2
131	142	1
66	103	2
174	175	2
205	208	2
124	127	1
182	231	1
193	214	1
170	174	1
241	241	1
2	6	2
81	83	1
141	155	1
207	208	1
117	123	1
59	59	2
5	29	1
232	233	1
40	51	1
118	118	1
106	107	2
34	41	2
27	28	1
55	71	1
85	85	1
19	20	1
155	162	1
68	73	1
232	235	1
96	99	1
2	3	1
54	71	1
64	65	2
134	142	1
118	162	2
221	229	1
127	167	1
193	196	1
99	100	2
11	49	1
16	17	2
192	204	2
10	26	1
28	29	1
54	57	2
220	230	1
22	25	1
12	21	1
204	208	2
20	29	1
210	212	1
111	161	2
168	170	1
107	107	1
176	178	1
122	128	1
194	194	3
38	170	3
123	142	2
70	70	2
131	131	1
20	207	2
114	156	1
27	30	1
242	242	1
31	32	1
123	123	2
200	201	1
7	7	2
204	205	1
233	234	1
141	142	1
69	102	1
103	110	1
47	56	1
173	232	1
223	223	2
17	21	1
105	116	2
104	119	2
12	12	1
135	186	1
17	22	3
39	71	1
100	109	1
169	188	1
222	224	1
114	115	2
91	118	1
24	27	1
10	13	1
37	43	1
167	168	1
51	164	1
24	37	2
185	230	2
184	184	2
48	76	1
119	119	1
113	116	1
124	126	1
119	163	1
212	230	1
3	7	1
217	231	1
186	186	1
7	8	1
17	34	1
80	82	1
44	55	2
222	228	1
18	30	1
147	157	1
139	146	2
129	130	1
1	34	1
76	76	1
107	118	1
135	136	1
198	200	1
171	182	1
67	72	1
107	108	1
33	59	1
22	31	1
