35	35	3
70	70	3
53	53	7
62	62	4
29	29	2
77	77	1
122	122	3
19	19	2
116	116	5
77	109	1
71	71	5
97	97	2
103	104	6
122	123	3
34	34	3
112	134	1
52	52	4
72	72	7
93	93	3
21	21	3
64	64	4
4	4	4
108	108	3
95	95	17
82	82	3
81	82	3
91	114	3
135	135	1
80	81	3
12	12	9
8	25	3
79	79	7
124	124	10
90	90	8
109	109	9
10	11	4
66	66	3
61	61	5
105	105	13
72	103	3
63	63	11
96	97	7
126	127	1
13	27	2
134	134	8
24	24	7
133	133	5
99	100	4
106	106	5
73	74	2
74	74	4
117	117	5
102	102	3
76	76	9
112	112	5
23	23	14
54	54	1
116	122	5
33	33	6
95	102	1
79	106	2
44	44	8
2	7	2
101	118	2
61	76	2
84	84	1
101	106	2
92	92	12
130	130	7
2	2	3
23	36	1
63	67	2
43	43	4
83	85	4
14	14	6
18	21	4
11	11	4
68	68	3
125	127	3
87	88	5
65	65	3
27	27	10
21	22	5
28	29	2
75	76	5
119	120	1
32	32	3
28	28	6
97	98	6
1	1	4
104	120	4
120	120	7
20	20	7
83	84	1
86	114	1
80	80	10
1	34	4
101	101	4
98	98	4
30	37	1
116	117	2
91	92	3
26	26	2
6	11	1
6	6	8
60	60	7
11	12	2
107	107	8
30	33	3
30	30	2
100	101	2
117	131	2
121	121	2
71	73	2
99	99	4
96	96	3
117	120	1
5	5	11
70	75	2
24	25	2
126	126	2
94	94	6
113	115	2
91	91	4
103	103	7
1	22	2
54	56	2
125	125	3
73	73	7
78	78	2
127	127	3
61	63	1
9	9	1
76	80	2
22	22	6
82	83	4
7	33	2
115	115	4
64	65	2
3	3	5
7	7	4
7	10	2
7	8	1
120	121	5
90	132	1
121	122	3
123	123	3
57	60	2
128	128	7
83	83	2
2	24	1
101	105	2
100	100	6
3	26	3
14	20	1
0	0	6
37	38	3
30	32	2
69	69	4
13	26	1
45	45	5
108	111	3
132	132	3
125	131	3
12	13	1
109	128	2
1	3	1
107	133	2
134	135	1
14	24	2
131	131	4
29	32	2
22	23	3
97	125	1
106	107	2
55	55	1
98	134	1
14	15	1
92	94	1
67	67	1
125	130	1
62	63	1
88	88	3
11	25	2
87	87	2
61	129	1
87	124	2
120	122	1
57	57	5
113	118	1
61	128	1
68	69	1
30	70	1
92	93	3
127	128	1
16	16	1
31	114	2
93	94	1
119	119	2
3	37	2
10	10	1
17	17	1
15	38	1
34	74	2
56	56	2
44	49	1
6	7	1
109	110	1
37	64	2
111	113	2
36	36	1
92	108	1
111	114	2
8	8	1
90	119	2
31	31	1
70	101	1
8	9	1
13	13	1
26	27	1
77	78	1
71	72	2
1	44	1
108	110	1
93	129	2
15	15	2
84	126	1
59	59	1
88	115	1
89	89	1
18	18	1
75	75	1
1	25	1
58	58	1
124	131	1
114	114	2
104	104	1
114	115	1
30	43	1
104	106	1
84	85	1
129	129	1
44	45	1
2	44	1
54	61	1
20	33	1
128	129	1
5	8	1
14	36	1
16	18	1
97	123	1
70	103	1
