95	95	9
28	28	13
19	28	1
129	131	5
91	91	13
115	115	5
117	117	11
136	136	8
8	9	3
25	25	11
20	29	1
96	97	3
13	13	7
114	114	14
74	82	2
27	27	16
9	11	5
83	83	22
90	91	3
2	3	4
11	12	4
17	18	3
84	84	5
38	38	12
76	76	6
130	130	7
20	20	4
29	29	7
32	32	6
100	117	2
131	131	8
15	16	14
105	107	3
15	20	2
119	119	12
80	82	7
14	18	3
82	83	3
1	13	2
27	28	7
107	108	8
93	94	9
86	86	13
108	108	10
123	123	8
115	116	6
1	1	18
123	124	3
85	86	1
22	22	6
35	35	20
81	81	5
34	34	15
85	85	9
25	26	10
8	14	1
95	108	1
126	127	4
18	27	2
138	138	16
74	80	2
95	98	1
102	107	1
79	79	14
14	16	5
101	101	7
29	32	5
122	122	8
81	82	7
107	111	2
75	75	3
139	139	5
14	14	7
71	71	12
19	27	2
92	92	8
118	118	5
120	120	14
18	25	1
128	128	5
78	79	12
10	11	2
28	32	5
19	20	2
33	34	6
24	25	3
17	19	1
9	9	14
37	68	1
96	96	7
129	129	12
118	120	4
92	123	1
108	109	3
98	99	5
31	31	11
92	93	3
33	33	12
97	97	11
13	15	4
79	80	8
81	84	4
97	101	2
9	19	2
24	24	1
100	100	10
116	120	4
15	18	4
1	8	1
5	5	6
102	112	2
0	124	1
103	106	2
74	77	6
36	36	18
83	84	3
127	129	3
117	118	1
0	0	7
0	90	1
34	35	4
132	132	4
6	6	8
106	106	8
74	81	1
124	124	9
117	122	1
73	77	2
32	33	2
22	28	1
26	26	9
80	80	5
136	138	3
95	123	4
122	123	8
37	38	7
15	15	11
1	2	9
127	127	5
125	126	3
98	98	13
140	140	8
23	23	7
106	107	3
7	7	12
27	30	4
115	120	4
125	125	6
8	13	4
19	138	3
77	77	9
87	87	13
77	93	1
0	13	1
89	95	3
117	120	4
71	76	2
10	10	9
100	106	2
113	113	4
110	111	5
77	112	2
116	116	8
4	6	1
116	118	3
27	33	6
111	111	6
21	22	5
8	12	2
103	103	12
104	104	8
89	89	6
18	19	3
84	92	3
116	128	3
25	31	4
74	75	4
86	87	3
123	125	1
135	135	4
25	29	2
82	82	3
30	31	1
16	17	2
72	72	11
21	27	1
88	88	9
35	36	5
19	19	11
137	137	4
121	121	8
11	11	4
74	74	10
9	12	5
120	121	3
88	90	3
94	125	1
84	85	7
23	27	1
121	123	3
17	20	4
136	140	1
77	78	7
20	30	6
4	5	3
73	80	1
20	21	3
82	91	5
116	125	1
13	16	2
113	116	5
23	26	2
133	133	8
114	115	2
3	4	8
111	113	3
91	92	3
94	94	8
76	111	1
89	92	5
77	110	3
72	73	5
16	33	2
108	110	1
21	21	10
107	107	7
23	25	2
112	119	2
99	101	2
124	125	1
138	139	7
79	97	2
80	81	1
126	126	14
73	74	2
30	33	3
94	97	2
22	23	3
90	95	5
24	32	4
23	30	1
112	113	1
104	108	4
99	99	7
106	108	3
0	4	2
6	12	4
101	105	3
73	100	1
111	117	3
122	124	8
134	134	2
88	121	1
77	79	1
75	78	2
112	112	5
12	19	6
78	78	3
13	34	1
108	112	1
105	105	8
91	93	8
17	17	8
71	78	2
121	122	2
68	68	2
16	16	12
99	116	5
23	24	2
4	4	2
25	27	1
72	127	3
12	12	6
112	116	1
88	94	1
135	138	2
72	77	1
109	111	3
97	100	1
15	17	1
18	18	3
119	122	4
25	28	1
28	29	2
110	110	11
14	15	1
104	106	6
34	37	2
91	94	2
10	17	2
100	115	1
94	118	1
37	37	4
29	30	1
76	77	2
90	100	1
113	120	5
1	3	3
36	44	1
35	37	1
8	8	4
33	35	4
116	123	2
94	109	1
100	101	6
93	93	3
87	88	3
103	105	3
20	31	2
95	126	1
133	134	3
119	121	5
93	97	1
120	124	1
113	118	1
109	109	7
85	92	7
3	37	2
16	18	2
86	89	2
3	3	5
122	125	2
107	110	4
90	94	1
96	99	2
11	16	1
135	139	1
31	32	2
136	137	3
121	124	1
73	73	3
126	128	1
102	102	4
117	119	1
94	113	1
92	95	1
131	132	1
133	137	2
2	4	3
115	117	4
13	14	5
86	123	1
71	130	1
21	32	2
90	90	4
128	131	1
102	123	1
130	131	2
105	113	3
112	120	1
34	36	1
118	119	1
95	100	1
13	20	2
75	100	2
44	89	3
86	129	1
125	127	1
22	26	1
75	101	1
1	6	1
95	96	1
91	100	2
78	95	1
3	18	2
76	112	1
102	106	1
29	33	1
128	132	3
74	76	1
102	105	1
85	87	1
99	114	2
105	108	1
71	72	1
5	7	1
5	35	2
113	114	1
99	100	2
87	89	1
100	114	1
114	117	1
120	125	1
104	105	3
30	35	1
7	8	3
4	10	1
93	116	1
119	120	1
2	31	1
2	2	3
118	122	1
94	114	3
7	9	2
94	106	1
137	138	1
26	27	2
88	95	1
94	95	1
119	126	1
110	123	1
100	108	2
101	123	1
0	7	1
118	124	2
128	129	1
113	117	1
71	75	2
139	140	1
36	37	1
126	129	1
88	123	1
14	21	1
4	9	1
73	101	1
73	105	1
28	31	1
