238	239	6
208	209	2
209	248	2
55	116	2
99	99	16
36	36	2
37	37	5
177	177	7
150	150	10
213	213	13
61	61	4
33	36	3
186	187	1
59	102	5
172	185	5
42	96	2
203	203	8
162	162	11
92	92	12
52	52	4
189	236	2
206	206	5
49	201	4
158	158	5
244	244	8
175	179	1
102	103	4
212	212	8
56	115	1
0	1	6
153	153	12
33	35	3
176	191	3
8	8	19
22	23	4
111	112	1
120	120	5
209	228	1
192	192	3
5	5	5
220	244	1
55	55	5
225	230	1
40	40	15
240	240	8
16	16	6
97	97	20
111	111	26
85	85	12
176	176	7
36	37	1
78	78	10
119	119	13
185	185	5
219	219	9
240	241	4
53	54	4
94	97	6
12	12	3
225	226	2
200	200	13
96	101	4
63	63	12
216	216	1
236	237	3
84	85	4
168	179	9
8	9	2
214	223	1
97	98	7
175	176	3
80	80	6
205	205	17
204	204	8
5	6	5
174	236	3
241	241	18
211	211	6
76	76	13
81	81	12
90	107	2
39	39	15
19	19	8
25	25	9
20	240	7
38	62	5
46	46	4
6	7	2
218	219	8
167	173	3
52	94	3
23	23	7
242	242	14
50	50	8
237	237	9
27	204	5
210	211	5
35	35	6
44	44	12
109	109	7
166	166	10
59	99	4
112	113	1
207	212	2
176	201	5
90	90	11
79	79	7
32	32	11
187	187	12
84	84	8
230	230	22
15	15	18
102	115	3
11	11	2
26	26	15
207	207	6
14	14	10
87	87	6
38	38	15
109	110	5
41	41	4
246	246	18
183	183	26
115	115	5
74	76	8
173	173	3
203	237	3
208	208	9
229	230	3
117	117	6
56	56	5
179	179	3
169	169	16
171	172	3
31	32	5
209	223	1
69	150	4
89	89	12
20	20	13
68	68	11
6	6	8
29	29	9
235	235	10
4	5	11
48	48	10
34	34	5
110	110	16
172	172	5
18	101	2
69	69	9
108	108	6
156	156	7
58	58	14
202	203	2
112	115	3
71	71	8
35	66	7
65	65	14
163	163	7
83	83	5
210	210	4
202	202	4
155	155	5
22	22	18
186	186	10
194	196	5
113	113	13
151	193	1
18	23	2
69	73	2
32	33	2
167	244	2
35	36	2
181	183	1
181	181	7
145	145	3
180	180	5
31	31	7
107	108	5
191	191	7
94	95	1
237	238	3
171	236	2
96	96	7
37	43	3
77	87	1
53	53	10
28	28	10
77	78	7
216	247	1
30	116	4
63	72	2
161	161	2
180	196	1
55	111	3
21	21	6
164	164	7
178	178	2
166	167	3
183	184	6
0	0	1
101	104	6
95	95	6
39	97	3
170	183	6
83	84	6
73	77	4
226	226	10
225	225	5
10	10	6
41	42	3
201	201	7
93	93	8
94	94	8
34	49	2
205	227	2
198	198	8
88	88	4
45	45	2
79	86	5
182	183	3
208	223	6
214	214	10
209	209	9
168	180	4
199	199	10
154	154	8
4	4	18
12	19	4
245	245	13
76	87	1
171	173	3
206	212	8
47	47	5
189	189	2
224	225	5
175	199	2
215	215	9
175	191	2
7	38	2
73	73	10
166	171	1
217	217	6
42	42	3
3	3	4
103	103	5
247	247	5
13	13	3
235	244	2
118	119	4
62	62	7
160	247	3
14	15	5
7	7	14
197	197	10
119	154	2
51	51	7
228	228	6
69	70	2
33	57	1
107	107	13
221	223	6
74	74	13
181	182	2
102	102	6
239	241	2
149	149	1
238	243	1
221	221	5
42	43	2
211	221	5
30	52	1
182	182	2
211	228	1
91	112	1
116	116	9
160	160	9
37	99	2
154	206	2
232	234	4
105	106	5
169	193	2
79	164	1
50	51	1
88	90	1
174	174	4
0	94	6
64	64	6
101	101	11
18	18	7
45	95	8
201	204	1
152	222	2
114	114	4
208	219	1
236	236	9
41	64	3
57	237	5
205	228	1
39	42	2
72	75	3
170	170	6
11	12	1
17	114	2
36	64	5
72	89	3
245	248	1
3	37	1
186	191	1
167	167	3
67	67	10
214	222	2
32	36	1
193	193	7
194	194	4
156	212	1
70	70	11
60	60	2
98	98	5
33	33	9
166	192	1
24	24	16
41	43	3
10	31	5
227	227	4
171	171	7
58	114	1
93	116	1
218	218	10
96	100	2
30	30	3
223	223	6
29	115	1
233	233	9
154	155	5
147	147	2
176	178	3
222	222	7
68	73	2
234	234	5
95	100	2
43	43	7
184	184	6
59	59	4
203	220	1
57	95	4
31	115	1
190	190	5
49	51	3
17	19	1
237	239	1
179	200	8
105	105	2
196	197	6
155	156	3
54	54	1
79	81	1
221	222	4
66	66	6
42	51	2
34	35	5
91	91	6
35	101	1
104	108	2
38	98	1
248	248	5
217	218	5
72	88	5
214	215	2
168	169	2
223	237	2
236	243	2
38	61	1
111	177	1
52	54	1
48	56	2
167	234	1
210	248	3
62	105	1
158	160	2
67	72	1
184	185	1
17	101	2
29	31	3
174	175	1
66	73	2
15	115	2
106	106	6
180	183	1
158	211	4
29	47	1
166	191	1
58	101	1
169	216	2
85	92	1
66	68	2
12	101	1
61	77	1
76	83	7
158	159	2
61	62	4
220	220	2
37	63	2
72	72	2
11	17	2
17	17	5
86	86	3
9	10	1
81	82	1
79	80	1
64	66	2
2	3	3
51	57	2
243	243	10
37	38	2
168	168	4
113	114	1
165	176	3
230	231	5
39	44	2
11	66	1
95	96	1
165	165	5
242	243	2
177	179	1
79	114	2
243	244	2
225	229	1
29	149	2
161	162	1
11	41	1
146	146	3
4	7	1
231	231	1
1	2	6
13	31	1
49	49	1
170	193	1
11	33	3
27	47	1
175	175	5
34	60	1
165	175	1
60	105	1
198	199	2
5	90	1
72	73	4
144	145	1
177	178	3
106	107	4
212	247	2
117	181	2
57	57	5
4	105	3
25	26	1
209	249	1
167	179	2
37	39	3
157	212	3
39	40	2
157	157	4
35	48	1
49	56	2
163	164	3
174	184	1
117	119	1
223	224	1
172	236	1
208	212	3
68	75	1
168	190	1
24	26	2
170	190	2
159	160	2
63	92	1
216	217	4
185	242	3
96	97	3
208	249	2
48	50	2
238	238	2
56	57	1
49	50	1
6	10	2
229	229	3
159	159	5
14	82	3
169	187	1
48	181	5
159	209	4
173	175	3
108	111	1
22	25	1
85	86	3
173	174	1
217	219	2
223	236	1
29	226	4
169	179	1
151	151	9
77	77	10
10	70	2
14	57	3
195	195	4
167	233	3
200	202	1
229	231	1
92	117	1
20	21	1
204	220	2
11	109	2
197	198	1
87	88	2
104	104	1
213	220	1
207	208	1
46	50	1
197	201	1
118	118	4
3	5	1
36	81	3
156	157	1
174	185	2
104	106	1
31	94	1
34	57	1
152	220	1
91	107	1
48	49	2
19	20	2
3	39	2
29	30	1
153	236	1
88	89	2
194	195	1
212	224	2
100	100	2
11	65	1
87	89	2
75	75	3
171	185	3
70	71	3
53	117	1
41	65	1
90	91	2
121	121	1
184	233	2
195	196	1
9	9	3
224	224	2
30	51	1
226	227	1
175	195	2
192	199	2
170	196	3
241	242	1
157	207	1
168	216	1
215	217	1
208	214	2
210	214	2
16	19	1
82	113	2
28	110	2
5	106	1
221	236	1
185	199	1
228	229	1
47	48	1
163	165	1
167	190	3
167	191	4
166	178	2
30	32	1
43	97	1
16	17	2
55	110	1
55	56	1
221	231	1
41	46	2
35	182	2
53	179	1
211	212	2
4	87	1
118	153	1
212	213	1
219	221	1
152	230	2
192	193	1
59	60	2
36	182	1
58	100	1
94	98	1
188	199	1
204	205	1
203	242	1
176	177	1
45	149	1
34	52	1
78	82	2
21	81	1
214	224	1
173	236	1
1	1	1
162	164	1
226	236	1
205	206	1
33	63	1
239	239	1
70	75	2
33	34	1
71	89	1
0	62	1
93	98	2
153	155	1
50	52	1
32	66	1
249	249	1
114	115	1
60	100	1
112	177	1
120	155	1
20	26	1
103	113	1
31	51	2
28	204	2
38	39	2
99	101	1
187	188	1
119	233	2
35	181	2
111	192	1
35	43	1
147	150	1
196	196	1
27	27	1
82	101	1
204	244	1
118	121	1
33	52	1
245	247	1
185	186	2
219	230	1
172	173	1
227	236	1
0	93	1
165	178	1
58	60	1
35	52	1
2	2	1
230	232	1
73	74	1
55	174	1
178	179	1
97	99	1
192	196	1
49	93	1
29	51	1
