76	77	5
83	84	2
59	60	1
111	112	2
13	13	2
83	107	1
64	64	4
92	92	6
21	22	4
97	97	8
18	18	2
63	64	3
0	1	4
9	17	1
127	127	4
95	95	1
2	30	2
104	104	7
91	91	2
3	3	5
40	40	6
99	99	4
61	63	5
60	61	2
3	4	2
129	129	9
54	54	10
109	123	2
32	33	1
12	13	2
61	61	9
84	84	1
106	106	6
57	57	4
63	63	1
46	46	3
48	49	2
102	102	2
112	112	2
75	75	9
124	125	2
75	76	3
96	106	3
79	82	2
0	5	2
18	19	1
74	99	2
26	26	1
72	73	5
100	101	4
17	17	3
116	116	4
49	50	1
1	7	1
88	88	3
44	45	3
47	126	2
102	126	4
128	128	3
9	10	5
70	70	3
31	33	1
62	62	5
54	58	3
80	81	2
44	46	3
65	66	1
113	113	3
103	103	4
82	82	3
52	53	2
67	67	1
96	96	3
52	52	3
42	42	2
94	94	3
89	93	2
63	65	1
74	75	3
14	14	4
6	7	6
76	78	3
7	132	3
68	68	2
21	21	9
40	47	1
123	123	5
76	97	1
31	31	4
40	60	3
10	10	3
91	93	2
78	119	1
7	7	2
13	19	2
68	108	2
109	124	1
69	70	1
92	99	3
19	20	4
54	56	4
19	26	2
1	4	2
24	24	12
51	52	2
55	55	4
85	85	2
87	87	5
47	47	6
11	30	1
6	9	1
93	105	1
130	131	2
26	27	2
43	43	2
121	121	1
114	114	3
40	55	2
27	27	4
110	110	1
89	89	7
86	100	3
100	100	3
48	48	1
33	33	2
81	89	2
119	119	5
10	19	1
4	5	2
120	120	4
29	29	4
104	105	2
14	15	2
28	28	4
13	14	2
126	126	3
101	101	7
20	21	2
86	89	3
83	87	2
108	109	3
122	122	3
16	17	4
57	71	3
96	120	3
23	23	1
9	9	4
56	66	2
66	70	2
12	12	1
71	71	3
79	79	2
98	98	3
90	92	2
90	90	3
96	97	1
77	77	3
73	75	2
72	79	2
22	22	3
28	41	1
87	88	2
72	119	1
16	16	2
127	129	1
56	59	1
11	11	2
41	43	1
131	133	1
77	79	2
44	52	1
108	108	4
60	60	2
105	108	1
53	53	2
80	82	2
72	114	1
105	105	1
111	120	3
112	125	1
102	103	1
43	72	1
86	86	1
38	38	2
18	23	1
22	24	2
81	94	2
40	70	1
6	25	1
83	83	3
40	41	2
49	65	1
104	112	1
29	30	1
64	69	1
50	55	2
74	117	1
59	61	1
71	73	1
71	116	1
115	115	1
95	107	1
93	93	1
99	113	1
32	42	1
108	113	1
2	2	1
53	112	1
106	110	1
39	59	2
26	31	2
95	96	1
19	19	2
116	117	1
30	30	1
55	65	1
58	61	1
21	27	2
15	15	2
43	55	1
58	59	1
107	107	1
78	78	1
28	30	1
0	0	1
84	85	1
