53	53	9
180	180	5
139	140	5
102	102	7
71	71	11
6	6	14
103	103	12
75	91	5
12	34	5
84	85	7
181	182	2
8	8	5
3	3	13
154	154	5
47	47	6
96	97	1
87	87	17
145	146	4
111	111	4
54	54	8
91	92	4
181	184	2
99	99	14
27	27	7
24	24	14
17	17	13
167	167	5
184	184	11
37	37	13
4	4	8
140	153	3
39	39	13
158	159	3
26	28	5
59	60	3
170	170	8
30	30	3
85	112	3
28	47	4
123	128	5
175	175	7
96	148	1
174	174	12
160	160	10
168	168	10
124	125	2
64	65	5
159	159	4
23	24	8
2	184	2
132	132	3
1	1	5
45	45	16
0	0	6
86	132	1
1	2	2
181	186	4
153	184	5
130	130	6
135	136	3
170	171	3
131	131	6
59	63	2
30	47	3
86	86	10
2	2	11
17	116	4
12	66	2
56	140	1
112	112	9
179	190	2
60	60	5
144	144	4
118	157	1
16	17	9
84	84	8
15	106	4
164	164	4
164	165	7
95	95	6
38	38	3
178	178	6
182	182	7
13	14	11
47	58	8
123	124	5
16	62	8
156	157	3
134	135	4
98	98	10
85	156	3
42	42	12
115	130	10
43	44	1
110	110	15
163	163	14
12	13	3
157	182	5
13	13	11
114	114	10
25	25	17
190	190	6
22	42	3
82	82	5
40	40	4
123	177	3
139	141	2
26	26	10
141	141	12
15	17	4
88	88	19
6	7	3
13	77	3
66	68	2
32	35	2
181	181	7
29	29	8
173	190	2
11	11	11
48	48	12
189	190	1
83	83	11
12	63	1
103	104	9
101	101	4
182	183	4
62	63	6
48	70	2
89	151	3
7	7	13
6	84	1
137	137	7
117	120	1
185	188	4
112	114	4
100	100	12
89	90	4
117	117	1
6	77	2
113	114	9
62	62	2
189	189	9
177	178	3
164	172	3
96	98	5
28	30	2
72	73	3
21	21	1
183	183	4
22	22	7
123	123	7
112	138	1
85	85	6
14	15	8
34	39	3
152	152	7
79	177	3
63	64	6
130	131	6
105	107	3
30	45	1
186	189	3
24	25	4
52	92	2
18	80	3
155	155	9
161	162	3
124	124	12
86	116	1
164	167	2
67	68	3
122	122	4
74	74	7
56	62	1
139	139	2
119	119	7
71	72	9
113	113	3
160	166	2
125	125	8
160	162	1
115	117	1
68	68	3
91	93	3
27	28	3
106	106	6
178	190	1
93	93	1
123	125	5
33	97	8
131	175	3
46	55	3
177	179	4
85	157	2
117	118	9
59	59	1
66	66	7
151	152	1
129	129	5
94	129	2
12	116	1
5	5	4
88	141	5
66	67	2
20	42	1
171	172	3
92	92	3
53	75	2
132	170	1
147	147	9
134	176	3
135	135	4
16	44	2
181	185	2
163	168	2
80	81	3
153	153	1
140	142	1
73	74	1
140	140	4
121	121	1
5	8	4
17	33	1
109	109	4
172	172	5
55	55	17
65	67	4
166	171	1
20	110	2
157	157	5
76	77	1
78	81	2
57	57	6
76	76	6
77	77	10
89	89	2
148	151	1
188	190	16
97	97	3
35	41	2
35	37	1
175	176	4
143	144	1
91	94	3
159	160	4
166	167	3
75	75	5
65	65	2
63	63	1
134	175	1
188	188	7
104	104	11
27	47	1
74	92	2
97	98	5
0	1	1
149	149	5
186	186	6
90	90	8
81	81	3
80	80	2
72	72	9
138	138	8
20	23	3
173	173	5
112	113	2
115	115	9
12	57	2
58	61	5
142	143	2
94	94	3
187	187	2
11	12	3
46	46	2
84	159	5
171	188	7
66	73	5
9	9	2
176	176	5
126	127	1
45	46	1
115	136	5
79	79	7
91	91	2
171	171	4
22	43	1
47	48	5
179	179	4
35	35	2
91	147	5
56	57	1
143	143	1
58	58	5
62	74	3
76	103	2
15	15	3
33	36	3
31	32	2
77	87	1
118	118	5
9	69	1
92	102	1
165	165	2
149	150	4
19	19	2
74	76	4
21	22	1
146	146	5
30	31	1
25	53	1
16	119	1
151	151	3
96	129	1
167	170	1
127	127	10
177	177	3
162	162	7
78	188	2
23	23	2
137	139	1
11	76	4
161	163	3
141	142	2
39	41	2
12	12	6
156	184	1
185	185	7
12	106	1
136	136	2
18	18	10
123	176	1
29	35	4
139	151	6
93	94	2
78	107	1
116	119	2
105	105	2
34	34	1
20	45	1
173	174	1
95	96	4
10	70	4
78	78	5
105	106	2
18	78	1
152	153	2
14	23	1
163	164	3
120	120	1
90	91	4
17	20	2
73	73	3
171	189	1
156	156	2
157	183	1
122	123	2
185	189	3
169	169	5
114	151	3
165	182	2
94	148	1
179	182	1
169	170	4
138	139	3
176	180	1
31	31	2
133	133	2
92	147	1
130	132	1
79	123	1
27	30	2
89	147	3
90	95	1
167	168	4
27	36	1
161	161	2
130	133	1
153	170	2
141	144	2
157	158	2
120	187	4
39	40	2
88	143	1
35	36	2
78	187	1
85	169	2
64	64	5
65	68	2
124	160	1
122	187	2
133	136	3
164	166	4
22	48	4
20	38	3
164	176	2
129	157	3
155	167	3
158	158	8
29	56	2
46	100	3
8	56	1
26	70	1
12	68	3
42	44	1
55	73	1
98	99	2
158	164	2
92	94	1
41	41	5
79	80	1
126	126	2
170	172	2
168	169	2
58	60	2
56	56	3
78	79	2
5	149	1
157	159	6
129	136	2
87	113	1
20	43	1
108	110	2
148	149	1
115	116	1
101	111	4
33	34	2
174	178	1
128	156	3
120	134	1
30	32	3
54	102	2
59	62	1
67	67	1
128	185	2
84	157	1
19	20	3
56	60	2
117	182	4
87	107	1
48	103	2
32	99	1
119	140	3
61	61	2
44	44	2
47	70	1
111	130	1
46	47	2
88	154	1
14	14	5
25	54	3
119	160	1
127	185	1
148	148	3
42	98	2
145	147	1
68	73	1
159	164	1
114	116	1
127	128	1
77	124	1
37	38	1
28	28	2
80	179	1
25	26	2
148	150	1
56	113	1
54	55	1
97	99	1
133	138	1
42	48	1
96	96	1
36	36	3
9	10	1
44	47	1
107	107	1
1	165	1
88	104	1
91	140	1
136	137	2
140	141	1
107	108	1
113	148	1
114	120	1
36	37	1
16	16	1
17	18	1
31	36	1
88	89	1
134	141	1
19	21	1
83	84	2
99	100	1
180	181	1
21	53	1
100	102	1
156	158	1
88	123	1
7	151	1
108	108	1
39	45	1
121	130	1
78	106	1
104	124	1
144	152	1
6	109	1
187	189	1
4	7	1
16	25	1
108	112	1
121	122	1
119	120	1
