125	126	2
6	64	3
53	53	11
107	111	3
83	83	8
138	149	3
8	9	1
104	104	9
144	153	4
76	76	8
77	78	3
131	131	5
2	3	7
64	64	16
86	94	2
107	107	11
95	100	2
56	56	5
134	134	7
16	16	8
72	72	3
70	70	11
99	119	5
63	87	2
121	122	4
122	122	6
71	77	2
46	46	3
9	57	2
15	15	6
50	51	2
39	39	8
15	16	7
25	25	11
124	124	16
74	74	8
78	78	4
148	150	2
130	130	8
81	132	2
117	118	2
128	154	5
115	150	4
142	142	8
152	152	6
100	100	11
98	98	3
96	96	5
66	66	7
9	10	4
81	81	6
114	114	5
117	117	6
10	10	8
95	95	5
7	35	3
82	82	9
9	55	3
27	29	3
30	30	10
22	22	7
63	63	7
35	35	5
153	153	7
43	43	3
9	9	11
148	148	5
151	151	5
44	44	12
138	145	6
101	101	5
124	125	3
20	20	1
34	34	2
24	24	13
85	85	2
80	80	4
40	47	4
133	133	5
135	135	11
14	14	7
116	116	11
37	37	6
116	145	1
100	101	1
36	37	4
79	99	2
46	102	2
137	139	1
79	87	1
20	30	1
68	106	2
102	102	6
86	86	8
105	105	11
16	17	2
39	41	4
6	36	2
57	66	1
85	123	3
48	48	5
149	149	14
42	42	12
62	63	6
7	7	3
131	132	6
39	40	5
54	55	1
23	23	2
62	101	3
3	3	4
45	45	7
116	127	2
77	77	2
47	47	5
138	150	3
38	38	6
128	128	9
13	16	3
143	144	3
132	152	2
132	132	6
138	138	16
65	65	13
120	122	4
116	151	2
12	40	2
143	145	4
5	104	3
73	73	4
147	147	13
95	97	1
44	48	4
44	45	1
53	54	10
112	113	2
17	46	1
141	146	2
147	148	9
54	54	2
68	107	1
137	137	5
67	148	4
26	26	3
139	139	8
150	150	2
106	106	4
21	21	3
19	19	3
97	97	7
91	102	2
84	115	1
125	128	2
81	84	1
113	113	14
18	18	4
83	84	3
66	138	3
12	12	2
91	112	1
45	46	4
33	33	10
144	144	3
134	135	2
6	6	4
94	108	1
21	113	3
65	127	1
75	75	1
38	39	10
81	113	1
41	44	3
109	110	3
73	114	4
68	68	5
125	125	5
111	113	5
62	62	6
110	113	5
84	122	4
97	140	2
25	61	3
49	49	1
145	145	1
119	120	3
97	105	3
96	99	1
98	99	5
138	144	1
128	131	1
23	24	10
39	79	1
141	142	3
20	105	1
87	90	6
57	57	6
26	28	4
136	136	3
110	110	7
140	141	1
145	146	3
40	40	2
111	111	6
147	152	3
17	17	5
27	27	1
25	27	1
122	148	1
108	109	1
4	5	2
97	99	3
87	87	4
40	41	1
88	88	2
63	114	1
112	112	9
95	99	2
92	94	4
118	118	6
121	140	4
84	84	7
88	113	2
3	49	2
37	38	3
25	28	4
27	30	2
5	49	3
86	113	1
64	149	1
70	71	3
55	113	3
67	69	3
138	141	1
25	57	1
109	109	4
30	53	1
133	134	2
129	129	3
8	8	2
123	123	3
146	146	2
138	139	2
67	72	1
108	108	4
4	4	6
42	44	2
66	67	3
118	150	1
10	13	4
8	66	1
41	41	3
23	29	1
73	79	1
85	126	1
72	76	2
5	64	2
72	73	1
76	77	2
94	94	2
71	106	2
118	119	4
21	55	3
115	117	2
127	127	2
28	29	1
21	23	1
55	56	2
11	12	1
133	136	3
121	121	1
2	2	1
37	51	1
28	28	3
37	81	1
49	50	1
80	82	2
102	107	3
20	21	1
43	68	2
84	85	5
68	69	3
55	55	4
66	76	1
106	112	1
86	96	1
93	99	1
5	31	1
18	19	2
114	115	1
135	144	2
81	99	1
125	151	1
99	105	2
12	81	1
43	46	1
76	110	2
123	151	1
71	100	3
27	28	1
104	105	2
146	148	1
124	146	1
48	50	2
10	14	1
29	29	1
65	72	3
64	66	1
14	15	1
129	131	2
131	136	2
75	100	1
93	108	2
103	103	1
69	70	1
121	153	1
124	128	1
57	73	1
150	151	1
9	34	2
52	96	1
143	143	1
12	39	3
67	68	1
99	99	2
119	119	4
118	122	1
31	31	1
13	29	1
38	51	1
71	115	1
32	35	3
9	13	1
21	24	1
13	15	2
82	83	1
103	113	1
82	131	1
5	6	2
141	144	1
46	47	1
11	11	2
123	126	1
127	128	1
96	100	1
29	46	1
61	78	1
54	102	1
51	51	2
52	52	1
50	50	1
42	49	1
63	107	1
32	32	1
