65	66	1
95	95	2
82	85	1
79	79	15
98	99	3
76	77	2
113	113	6
145	145	5
32	32	1
93	93	4
17	17	7
84	85	5
23	23	4
26	26	12
33	42	2
144	144	5
64	64	10
59	59	4
89	89	9
109	109	13
22	22	6
115	115	2
25	25	8
62	63	3
61	61	4
116	116	4
131	131	16
79	80	4
97	98	4
77	77	9
143	143	3
133	133	4
55	55	4
99	99	10
120	132	1
47	47	3
117	117	5
37	37	15
109	110	3
52	53	4
14	14	5
100	100	10
74	74	4
100	101	1
92	93	6
111	111	14
112	113	5
90	90	1
126	126	7
28	28	8
73	73	3
33	33	9
3	3	4
57	57	2
140	141	1
67	81	2
136	136	6
8	22	2
56	82	8
18	18	5
6	6	4
29	29	6
86	86	1
70	70	7
83	83	5
110	110	8
76	76	6
140	140	6
80	80	5
75	75	7
21	24	2
66	66	2
52	67	3
6	41	2
13	13	9
87	87	5
94	94	2
19	20	3
60	60	9
99	112	3
123	123	5
105	106	3
20	34	1
18	19	1
52	52	6
5	5	8
125	126	2
32	33	2
34	35	4
125	125	4
38	39	1
14	51	3
64	66	1
78	78	6
124	124	12
71	71	6
110	111	4
70	74	4
114	115	6
27	27	11
82	82	5
103	104	2
100	114	3
8	8	6
69	69	5
36	36	6
39	39	11
108	108	5
53	53	4
40	40	6
133	140	3
56	81	3
136	140	2
9	9	10
37	95	3
128	128	6
56	56	6
41	62	6
43	43	7
98	98	7
133	139	2
2	2	5
136	137	5
54	54	5
15	15	6
16	16	12
51	52	2
123	124	3
30	30	3
75	76	5
48	69	2
27	28	2
59	60	9
18	25	1
72	72	5
2	3	2
104	105	1
96	96	2
71	72	1
9	10	3
47	72	2
115	118	1
19	19	4
134	134	6
95	97	4
105	105	8
84	92	1
121	123	1
121	121	9
103	103	6
41	42	1
21	22	1
48	48	8
112	112	16
18	24	1
62	62	3
50	53	3
97	97	9
50	51	3
88	88	2
83	85	6
94	103	3
89	90	1
122	123	4
60	61	3
11	11	6
94	95	2
130	130	9
23	24	3
24	24	6
58	58	2
81	81	2
25	26	1
91	91	5
101	104	2
93	103	2
104	109	4
73	74	5
134	135	2
40	41	1
10	10	3
104	110	4
105	107	4
114	114	10
124	129	3
67	67	7
55	56	1
107	119	1
31	31	3
35	35	8
41	41	4
36	40	3
142	142	4
65	65	2
104	104	4
21	21	4
70	99	2
41	98	2
102	102	3
50	73	2
79	84	1
4	24	1
2	9	3
19	24	2
12	12	4
3	61	1
8	9	3
101	101	2
128	129	4
139	139	3
121	122	2
59	88	1
87	88	3
25	31	1
108	109	2
69	70	5
127	127	3
17	18	2
120	121	7
107	108	1
120	120	4
118	118	2
14	15	3
60	62	2
46	47	1
50	50	2
34	34	1
35	36	1
135	136	1
135	135	2
59	62	1
15	16	2
12	13	2
35	40	4
0	0	1
137	137	5
51	51	5
17	19	1
90	115	2
20	20	2
58	59	1
106	107	1
74	120	1
91	111	1
90	116	1
122	122	4
92	92	3
96	97	1
8	28	2
53	55	1
128	130	1
138	139	1
13	14	5
68	68	6
61	63	1
55	69	1
10	11	6
138	138	1
42	42	2
132	132	3
119	120	5
137	139	3
89	113	1
16	17	1
134	140	1
20	32	2
36	37	1
132	133	3
117	141	2
119	130	1
47	49	3
61	62	1
84	91	1
57	58	1
87	90	2
59	77	1
5	6	1
117	118	1
78	93	1
34	36	2
78	79	1
38	38	1
63	63	1
69	72	1
93	112	1
93	94	1
104	107	1
85	86	1
57	78	2
85	85	1
82	83	1
57	59	1
140	142	1
2	4	1
99	100	1
4	4	2
19	23	1
118	136	1
72	73	1
81	131	1
49	49	1
67	68	1
127	128	1
31	32	1
99	101	1
8	19	1
53	67	1
