21	21	19
41	41	6
13	21	4
96	96	6
19	43	8
132	132	18
163	163	6
145	145	11
30	38	2
115	129	3
142	143	8
141	142	6
94	96	5
99	100	10
33	33	23
103	169	5
104	112	5
119	121	3
134	135	5
27	36	7
160	161	9
153	189	1
99	185	4
91	91	18
156	156	12
169	179	2
7	7	9
26	26	13
31	31	14
26	39	2
83	83	9
106	106	12
176	176	14
93	93	21
159	160	3
93	95	10
166	166	17
73	73	12
145	171	1
143	144	4
4	32	2
24	24	10
89	90	2
140	169	4
44	44	5
64	64	8
155	156	5
45	120	5
73	74	6
155	155	14
148	148	14
137	137	7
184	184	5
35	35	19
188	189	4
12	20	4
150	160	4
119	122	4
113	113	3
115	115	19
43	43	5
76	77	7
121	122	10
84	85	12
81	81	10
84	84	6
154	169	3
22	25	3
93	117	7
0	35	7
45	45	9
108	108	23
42	42	5
66	66	4
5	5	11
37	37	14
11	11	13
123	123	4
83	121	4
105	105	9
31	75	2
67	68	8
167	168	7
157	157	8
131	132	3
103	104	8
43	44	7
180	180	11
156	165	3
61	61	8
19	45	5
12	12	14
162	164	4
186	186	9
28	28	14
130	177	5
0	3	2
13	153	2
181	185	7
147	147	12
40	40	17
142	142	5
28	29	8
109	110	10
165	165	4
150	165	5
104	178	2
149	151	10
161	166	4
48	99	1
98	98	19
21	22	2
144	144	10
109	109	5
71	71	2
13	13	13
7	8	6
110	113	3
181	181	11
168	168	6
86	86	12
130	131	8
4	183	2
120	128	2
16	73	1
36	36	9
101	101	5
3	8	3
88	88	3
178	178	22
82	82	14
38	38	13
47	49	3
130	130	24
90	90	10
111	111	4
29	82	5
43	46	3
19	23	9
13	43	2
107	111	6
59	59	5
59	60	11
100	113	6
19	19	8
95	176	1
4	4	4
81	85	8
168	180	3
78	83	3
70	79	3
28	44	5
17	66	3
27	29	5
91	112	8
85	88	5
139	153	6
70	71	11
117	118	13
83	119	4
160	162	3
53	54	4
27	72	3
171	175	3
75	76	9
137	139	6
114	136	2
68	68	11
53	102	1
148	150	4
175	175	9
141	154	2
171	176	3
176	177	3
98	133	4
165	180	3
139	184	3
140	140	9
34	35	11
128	150	2
1	24	3
139	170	2
30	31	15
13	159	7
62	90	2
122	122	6
168	174	1
87	87	9
60	63	1
98	174	2
104	104	15
90	91	1
139	140	7
80	81	9
115	117	6
72	72	11
57	57	2
169	169	12
182	182	6
9	9	11
10	162	1
78	79	2
14	21	2
58	60	3
172	177	9
26	27	2
94	95	11
46	46	21
47	55	1
44	45	4
76	123	4
71	99	2
96	175	5
107	107	24
116	116	3
77	77	7
91	92	8
107	108	5
101	103	4
22	22	22
125	125	13
101	102	3
63	65	4
124	124	9
161	161	11
64	68	2
0	0	10
127	127	15
90	157	2
96	115	4
154	166	5
100	100	3
81	84	6
170	179	4
184	185	3
73	99	3
17	72	7
11	12	6
3	6	2
97	98	5
54	55	14
14	48	2
164	170	5
187	187	5
119	119	9
92	94	2
158	181	4
100	114	5
27	31	5
172	175	2
157	158	3
12	13	5
62	67	3
99	112	3
70	70	17
6	6	11
168	169	5
71	72	7
88	181	1
177	179	2
74	74	15
97	97	6
67	67	10
138	143	3
100	116	5
41	42	5
162	162	7
23	42	2
110	182	2
72	73	6
65	67	6
73	113	6
29	31	5
113	186	2
5	22	2
171	172	7
84	88	1
94	97	4
34	34	4
177	177	21
138	138	6
103	174	4
14	14	14
85	85	1
154	167	2
167	171	4
96	98	2
109	116	2
134	134	8
13	45	2
112	112	7
147	155	2
110	116	4
169	175	3
27	28	6
135	181	2
100	115	1
114	114	4
165	166	3
162	165	1
150	150	17
4	25	5
100	103	2
76	76	15
61	77	4
28	83	3
103	180	6
139	139	1
158	158	3
123	142	3
114	128	3
10	10	16
147	156	3
17	18	9
149	149	5
47	47	7
33	34	11
16	16	4
118	118	4
23	23	7
62	63	13
136	138	7
0	25	3
160	160	6
28	31	2
90	111	3
184	190	1
21	32	3
95	95	12
164	164	10
87	184	3
89	165	3
161	162	8
169	170	1
126	127	1
30	72	4
58	59	3
36	37	10
41	49	4
54	54	8
121	154	11
114	119	2
74	97	1
6	7	1
182	183	3
83	160	1
58	58	5
98	116	4
67	87	3
94	94	15
146	146	11
167	169	7
29	78	1
132	136	3
144	145	7
93	130	3
132	133	9
45	47	7
57	60	4
40	47	4
137	158	4
26	72	2
14	20	8
10	11	4
1	76	4
163	165	4
75	119	3
173	177	5
121	121	10
99	113	3
125	167	1
96	99	5
149	150	6
132	162	1
4	23	2
10	154	2
52	100	1
84	90	1
136	136	15
128	135	3
48	56	5
60	60	7
117	141	3
91	111	1
28	40	4
142	144	4
64	66	3
6	128	2
172	172	5
133	134	7
163	178	4
29	29	15
173	178	5
6	57	7
121	158	2
78	85	2
117	123	3
8	24	5
103	105	2
61	76	2
13	48	3
3	3	1
85	159	2
147	171	1
99	99	7
52	53	2
65	71	2
56	90	2
173	173	5
15	47	4
127	135	1
77	83	5
35	36	2
169	173	3
88	157	2
129	129	7
44	47	4
6	88	1
16	41	1
104	105	4
174	175	3
141	182	4
114	120	1
13	39	3
91	93	5
48	119	1
76	79	2
116	118	3
163	164	1
167	167	6
79	82	2
75	75	3
56	120	1
159	159	5
90	113	4
89	89	6
140	170	3
15	19	1
64	109	2
18	18	9
93	94	6
73	78	1
174	174	8
80	80	9
89	91	1
164	165	9
0	4	1
149	161	3
108	110	6
62	64	9
18	71	2
100	104	4
76	126	1
103	103	5
30	30	4
104	106	3
129	183	1
85	89	2
133	135	6
29	30	4
48	53	3
68	69	3
135	158	1
84	159	1
178	179	6
179	179	2
187	188	5
55	55	9
153	153	5
8	54	3
56	56	6
164	179	2
17	45	2
108	111	2
186	187	4
122	142	5
135	182	2
170	173	5
155	163	2
76	78	1
17	17	6
170	174	3
150	162	3
155	168	1
120	120	4
23	38	2
18	19	4
108	131	3
142	154	4
39	41	4
188	188	2
94	177	3
133	181	1
146	176	5
6	89	3
61	91	1
27	30	6
185	185	2
102	175	6
119	125	3
131	131	8
54	140	3
169	182	2
118	122	4
32	33	5
61	66	1
93	159	2
45	46	1
124	136	4
41	47	1
32	32	4
99	114	7
117	126	3
154	154	5
17	26	1
140	141	4
40	41	2
134	181	1
168	181	2
175	177	1
77	79	1
8	9	2
136	137	1
86	89	1
97	136	2
14	15	4
156	162	1
79	79	3
126	138	1
46	47	6
92	92	5
130	132	1
100	111	3
67	88	2
126	130	4
57	75	1
166	176	2
57	58	9
83	84	5
131	168	2
132	134	2
152	158	2
102	102	4
182	184	3
20	20	6
28	30	3
152	187	1
78	178	1
95	102	1
57	114	3
171	179	2
171	173	6
17	71	2
75	83	2
106	107	3
125	127	2
31	32	1
160	163	3
154	155	1
145	147	3
95	173	2
2	2	3
151	157	1
101	139	1
171	171	5
63	63	1
23	24	4
140	182	1
93	115	4
81	83	2
79	83	1
69	71	1
65	66	3
117	117	4
110	110	2
145	166	3
78	78	7
133	133	3
10	12	10
151	151	2
26	40	1
122	184	2
153	156	2
183	184	2
133	136	7
105	106	1
48	48	7
162	163	5
15	21	3
112	114	3
19	44	2
131	169	1
111	112	2
22	23	2
139	174	2
163	177	4
93	96	4
56	58	2
95	96	5
134	136	3
99	111	3
148	149	3
156	160	3
133	175	1
103	190	3
42	47	3
138	181	4
141	141	8
5	14	2
32	36	2
6	8	1
163	180	2
189	189	3
125	126	2
56	57	4
33	35	1
114	159	2
113	114	2
177	178	6
166	170	1
17	31	1
110	170	1
65	65	2
60	62	3
15	41	1
128	132	2
147	163	3
24	38	5
81	87	3
76	83	1
98	137	2
53	55	2
136	151	1
88	158	1
122	138	3
182	186	3
135	183	2
135	135	2
26	30	3
52	60	1
39	39	2
27	38	4
108	109	2
70	74	3
39	40	2
25	25	3
42	43	3
172	173	1
80	82	6
44	48	1
17	27	2
101	113	5
131	138	1
119	120	2
21	27	2
52	55	3
10	22	1
129	130	3
91	107	3
16	74	2
62	65	3
79	80	2
148	151	1
114	115	2
14	19	3
61	75	1
117	130	3
61	63	4
13	28	1
46	48	1
146	154	2
97	99	5
12	29	2
33	36	1
46	120	4
112	116	4
27	71	1
53	53	6
128	128	5
181	184	3
118	119	1
119	127	1
105	178	2
190	190	6
31	34	1
21	25	4
20	44	9
135	137	1
31	38	1
187	190	1
163	176	2
173	176	1
63	64	2
143	143	2
151	152	5
22	31	1
169	180	2
83	152	2
126	128	1
135	136	2
102	170	2
123	124	1
153	188	1
95	100	1
12	44	1
6	127	1
32	78	2
113	184	1
57	63	2
72	74	1
58	74	1
123	152	1
18	48	3
137	183	3
66	67	5
68	78	1
146	147	1
48	141	1
1	1	1
18	72	3
102	110	1
19	20	3
61	64	2
115	118	3
149	159	2
138	152	1
89	156	1
79	119	3
157	159	1
152	152	2
74	96	1
56	63	2
180	181	2
92	180	2
183	183	2
78	96	1
37	38	1
114	135	1
178	180	1
81	82	4
18	62	1
1	2	2
103	173	2
149	156	1
137	151	2
145	164	1
85	86	5
82	83	2
59	61	2
157	181	1
87	90	2
13	14	3
57	76	4
24	25	1
120	125	1
11	22	1
75	78	2
90	183	1
156	163	1
148	156	3
134	137	1
115	116	2
169	181	3
16	22	2
20	21	3
98	175	1
55	66	1
183	187	2
121	136	2
77	95	1
141	167	1
170	170	1
48	55	3
125	142	1
89	105	1
13	121	1
56	114	1
57	90	1
155	167	2
139	183	1
96	97	4
5	6	1
11	13	1
115	130	2
75	79	1
135	151	2
173	174	1
86	87	1
121	142	1
184	186	1
1	3	2
133	148	1
129	132	1
181	182	1
11	119	1
134	169	2
175	176	2
136	152	1
114	129	1
76	119	1
166	171	3
88	89	1
7	24	3
18	44	2
154	173	1
74	75	1
170	184	1
91	114	1
152	153	1
116	128	2
99	108	1
83	85	1
151	156	4
185	186	1
126	126	2
4	5	1
139	182	1
106	111	1
145	180	1
61	92	2
15	15	1
16	17	3
79	84	1
56	68	1
30	75	1
84	121	2
179	180	2
138	154	1
106	112	2
54	100	1
95	117	1
0	7	1
94	112	2
154	168	2
149	160	1
88	186	1
70	75	1
157	160	1
143	156	2
142	148	1
61	62	1
52	56	1
56	70	1
98	99	1
8	8	1
67	76	1
175	178	2
43	120	1
63	70	2
76	120	1
110	117	1
146	165	1
57	61	2
18	20	1
48	139	1
134	138	1
103	154	1
82	85	1
17	22	1
153	154	1
114	126	1
119	141	1
109	112	1
141	143	1
174	178	1
32	35	1
40	42	2
120	126	1
