16	16	7
24	24	17
13	13	16
82	82	9
125	125	10
40	41	2
135	136	3
93	95	5
89	89	9
18	18	7
111	112	7
161	161	6
127	127	8
133	133	10
99	100	6
86	86	12
140	140	6
109	109	10
115	116	2
164	165	5
123	123	7
49	135	4
69	69	17
20	21	5
43	43	11
131	131	16
12	13	1
36	36	13
112	112	30
105	105	10
118	122	1
141	141	9
48	48	4
114	114	12
113	114	8
127	156	4
17	18	1
75	76	2
70	70	18
42	42	13
160	160	13
128	128	16
68	68	3
36	150	3
79	80	8
136	136	14
101	101	8
56	56	7
166	167	3
145	145	9
57	57	7
43	44	4
7	7	15
0	1	3
153	154	10
98	98	11
80	80	5
150	150	8
27	27	11
0	0	8
143	143	18
20	20	7
156	156	6
107	108	1
16	17	6
26	26	7
100	100	12
129	130	3
80	82	4
121	121	3
159	160	7
23	23	3
46	47	4
62	62	5
95	95	2
77	77	7
164	164	10
71	71	13
1	1	15
4	5	5
9	9	5
5	5	15
63	63	2
113	113	16
118	118	3
124	124	6
27	119	2
84	84	13
115	115	4
116	118	6
20	22	6
121	152	4
109	110	4
162	166	3
135	135	20
54	54	5
137	137	4
99	99	5
12	12	7
162	162	11
140	141	7
168	169	2
90	99	5
134	134	11
41	41	16
96	128	5
139	139	7
21	21	9
54	56	2
4	4	16
108	109	4
2	2	11
45	45	8
155	156	1
78	78	4
70	71	3
91	125	1
139	143	1
142	142	15
5	6	1
0	83	3
106	106	5
83	84	3
35	35	12
85	85	2
92	107	1
14	15	4
85	143	1
91	122	3
49	49	6
8	9	4
48	135	2
163	163	6
67	67	9
132	133	6
134	136	2
147	147	3
86	122	1
162	164	4
26	27	2
47	48	7
22	22	9
65	65	7
116	116	12
86	120	2
6	6	4
66	66	7
134	150	1
125	126	2
129	129	2
92	93	4
27	28	4
100	101	2
21	22	2
152	152	9
18	19	5
12	74	2
149	150	6
3	4	7
108	108	13
161	162	2
114	115	4
97	97	7
88	88	6
139	140	9
133	134	3
117	117	4
127	132	3
14	14	12
169	169	3
125	127	4
166	166	9
88	89	5
74	74	12
1	11	5
119	119	4
64	65	2
132	132	12
119	122	5
5	145	6
122	122	1
159	159	11
110	110	4
72	72	3
37	37	13
15	15	23
157	158	7
64	64	5
163	164	2
148	149	2
148	148	6
53	53	12
81	82	2
154	154	10
83	83	9
10	24	2
167	167	8
85	146	5
104	104	2
25	25	12
157	157	5
67	126	4
87	87	3
24	47	5
158	158	5
152	156	3
7	8	1
169	170	3
132	145	6
17	17	3
165	165	5
26	106	3
11	12	1
126	126	6
102	102	4
67	68	1
130	130	3
66	67	2
46	46	6
62	63	3
138	139	4
56	57	6
155	157	7
15	16	1
38	38	9
106	108	2
61	62	3
40	75	5
138	138	5
55	56	8
124	126	4
129	142	3
107	161	3
168	168	1
78	79	2
129	136	3
102	104	8
93	93	8
70	126	1
73	74	5
151	152	6
3	3	6
73	127	2
149	149	7
11	11	6
5	15	1
166	168	3
52	52	3
155	155	4
91	103	6
9	137	3
14	16	2
39	40	3
90	90	5
52	56	2
144	145	3
105	162	2
44	44	1
40	40	1
35	36	4
28	28	3
122	123	3
8	8	2
75	84	1
91	91	6
75	75	4
103	103	3
24	25	6
107	107	4
82	83	3
68	70	2
1	3	1
113	125	2
96	165	1
86	87	5
112	113	1
57	58	2
86	104	1
74	76	1
117	119	1
156	157	2
132	146	5
34	35	1
147	153	2
79	79	3
138	155	1
39	39	2
87	122	3
170	170	2
146	146	3
119	120	6
53	149	2
136	137	3
147	152	3
45	50	1
62	73	1
82	147	1
130	131	1
78	143	2
101	103	2
9	45	6
7	12	1
120	120	6
119	123	4
66	117	3
119	148	1
74	75	2
76	76	4
91	99	1
41	76	1
3	13	2
14	21	1
65	66	1
140	143	1
55	55	4
50	55	1
1	2	3
18	20	1
137	141	1
106	107	2
110	111	1
167	168	4
10	10	4
87	91	2
0	4	1
64	69	1
91	93	2
102	103	1
44	51	2
50	50	2
96	99	2
77	79	1
98	99	2
150	151	1
51	52	4
57	63	2
83	148	1
72	73	3
92	95	1
80	152	2
144	156	1
10	71	1
81	86	1
36	37	2
53	54	1
55	79	1
151	151	2
2	14	2
85	86	2
28	111	1
6	7	1
101	102	2
50	52	2
111	111	2
42	43	2
123	124	1
133	150	2
40	56	2
101	104	4
34	34	1
50	51	1
47	47	1
97	128	1
142	143	2
86	105	1
67	74	1
103	104	1
69	70	1
130	139	1
144	153	1
6	138	1
128	132	1
129	132	1
58	58	2
18	23	1
52	53	1
33	33	1
37	39	1
131	144	1
155	158	1
142	155	1
37	38	1
66	84	1
73	73	1
140	144	1
91	92	1
4	6	1
44	46	1
128	129	1
109	112	1
69	126	1
68	69	1
