28	28	8
98	107	3
95	119	1
17	29	1
130	130	5
133	135	4
102	102	4
124	124	9
59	60	5
11	23	4
76	78	3
33	35	1
37	37	5
84	84	3
106	112	4
137	137	7
96	108	4
129	130	5
104	104	7
18	19	6
127	127	3
123	123	8
57	57	4
105	105	2
93	141	3
27	27	2
109	111	2
82	82	6
81	81	2
111	111	7
14	15	2
130	134	1
41	83	2
136	136	5
16	16	4
77	78	3
79	79	4
132	134	2
89	91	3
30	30	5
126	126	2
29	29	8
54	59	6
80	81	1
74	74	7
87	87	3
132	133	4
122	122	1
12	13	6
11	11	4
20	20	3
77	77	2
22	29	4
33	65	5
38	38	5
96	97	2
98	98	2
117	139	1
100	107	2
140	140	1
42	42	19
84	91	6
3	3	4
60	60	1
118	118	12
80	80	2
61	61	8
126	127	6
94	94	10
145	145	3
93	95	3
89	90	1
97	98	1
96	96	3
95	95	1
69	70	2
32	34	1
73	73	5
21	30	1
119	120	6
118	119	1
62	66	4
50	51	3
101	101	6
1	4	1
133	133	2
93	93	1
116	117	9
125	132	1
131	134	2
18	18	1
31	31	2
91	92	4
110	110	1
89	97	3
67	67	2
143	143	2
134	135	2
38	95	2
49	49	1
130	131	4
137	139	2
142	143	2
72	72	3
32	33	2
70	71	5
53	61	2
128	133	1
37	39	3
53	53	2
100	114	4
135	135	1
24	24	3
20	56	1
134	134	5
99	99	2
29	37	1
65	67	2
8	8	1
97	97	2
35	79	2
50	50	3
111	127	1
9	9	4
21	75	1
114	114	1
26	132	1
64	64	3
132	132	1
91	91	1
133	134	2
41	48	3
142	142	1
6	12	5
78	78	2
113	113	2
57	78	3
54	56	2
115	115	1
52	52	1
28	62	3
54	95	6
28	29	1
23	27	1
38	39	1
141	141	2
21	21	4
22	23	2
68	68	4
4	6	1
63	63	4
99	104	1
17	27	1
53	54	1
74	75	1
107	107	1
33	33	4
100	100	1
126	130	2
60	61	1
88	89	2
22	22	3
24	135	1
89	103	2
25	129	1
83	84	1
131	131	1
1	1	2
138	139	1
71	71	3
103	103	3
110	118	2
9	10	1
58	58	1
62	63	4
32	32	1
103	104	1
34	34	2
29	31	2
139	140	2
56	56	3
74	81	1
41	77	1
9	23	1
40	40	2
17	17	1
69	69	1
25	26	2
27	128	1
18	58	1
33	63	1
29	30	1
117	140	1
90	95	1
53	65	2
114	115	1
89	89	2
35	136	1
123	124	1
115	141	1
117	117	1
41	41	2
51	51	1
72	75	2
39	43	1
48	51	1
26	38	1
87	89	1
43	43	1
137	138	1
55	55	1
19	19	1
72	88	1
112	126	1
92	92	3
74	90	1
95	98	1
126	131	1
88	108	1
15	18	1
32	36	1
25	27	1
51	95	1
