28	28	41
122	125	5
13	33	3
108	108	19
65	78	7
36	125	1
15	15	26
84	84	25
33	33	15
103	103	35
11	11	23
37	37	21
90	115	5
76	76	18
110	110	27
20	20	38
44	44	34
98	98	55
16	16	37
81	82	5
32	32	45
69	69	25
106	109	4
53	54	3
80	81	23
133	133	13
126	126	69
115	115	29
18	18	30
104	121	3
34	34	33
59	60	10
74	104	3
84	110	6
52	52	20
89	134	1
29	29	35
12	12	50
21	22	8
112	112	43
79	81	3
10	10	42
19	19	31
24	34	3
112	113	17
63	63	31
89	89	28
75	103	3
21	21	49
13	13	33
106	106	32
6	18	1
86	87	11
49	50	13
124	124	35
6	35	4
114	114	36
131	131	38
61	88	2
50	50	47
49	55	1
43	43	28
91	118	3
56	56	22
28	30	1
23	65	2
16	17	11
47	47	16
81	101	1
90	90	30
22	22	23
22	23	24
60	60	28
29	31	6
30	77	2
92	92	35
11	12	4
75	76	18
118	119	15
27	27	28
10	11	9
0	0	35
80	80	35
14	14	31
5	5	42
4	4	19
63	64	9
7	20	4
42	64	3
78	79	7
122	126	10
121	121	41
119	132	1
23	23	24
67	68	19
94	103	1
35	35	37
127	129	6
123	127	4
32	33	8
6	34	2
109	110	12
33	35	1
85	85	23
61	61	38
100	100	20
102	102	39
127	128	13
72	91	1
70	71	18
59	59	58
124	129	3
135	135	15
57	57	21
128	128	30
33	74	1
77	77	30
19	21	7
108	109	7
100	133	3
1	56	1
65	66	7
30	30	31
72	72	25
121	130	3
107	107	22
127	127	18
43	108	3
95	95	26
26	30	2
75	123	2
74	75	6
70	70	48
13	16	3
103	104	18
74	74	43
82	82	36
77	78	8
122	131	5
33	34	19
52	53	10
72	124	1
71	71	27
2	2	22
13	14	8
1	1	25
36	36	26
14	43	3
27	28	14
23	34	2
25	25	36
69	70	10
4	36	3
45	117	2
45	55	5
106	119	5
17	17	28
36	121	1
60	85	1
42	43	4
61	63	1
0	1	12
134	134	36
123	123	47
94	94	42
31	31	47
80	122	2
65	65	30
88	120	5
105	105	42
132	132	26
122	122	31
75	75	33
94	95	13
118	118	33
3	3	22
120	120	26
59	71	5
2	50	2
68	68	32
79	79	40
26	27	7
59	107	2
116	116	32
88	88	29
119	119	23
24	25	8
3	4	8
92	93	12
2	10	3
14	15	9
47	49	9
91	91	45
78	83	1
97	97	25
11	43	1
72	73	11
9	29	2
83	83	35
58	59	11
27	69	3
90	120	10
113	113	14
111	111	15
62	116	1
5	14	5
55	57	7
63	117	3
8	9	7
94	127	1
1	43	4
62	62	26
90	91	4
64	65	3
26	26	34
97	98	18
101	101	34
114	115	14
29	36	2
74	76	1
130	130	20
20	25	3
104	104	16
117	117	22
99	101	7
78	86	1
120	122	1
78	78	16
0	13	10
55	55	27
9	10	23
56	61	2
66	66	23
18	23	3
24	24	25
91	93	7
17	18	10
109	109	29
83	84	4
95	96	14
3	9	2
50	110	1
79	111	1
56	57	8
102	103	11
20	43	3
63	113	5
20	35	1
98	105	5
72	125	1
9	9	33
97	131	5
84	85	9
5	10	2
22	104	4
53	55	7
30	31	4
23	24	11
125	125	16
49	49	7
5	18	3
94	105	7
87	87	24
87	125	2
12	14	5
99	105	5
53	53	11
62	82	1
3	8	2
43	44	1
99	100	10
95	97	3
91	116	5
31	69	4
89	90	5
20	21	10
7	11	5
22	26	4
106	107	14
44	47	4
7	7	33
111	114	14
60	62	3
50	112	3
5	20	4
74	120	1
65	68	1
6	6	24
15	94	4
109	113	7
75	93	1
97	107	4
110	129	5
85	86	6
35	36	2
70	112	3
7	10	5
121	126	2
121	129	2
93	93	24
55	56	8
126	127	10
120	121	7
44	45	9
106	128	1
6	48	3
65	67	6
108	118	4
85	87	10
50	116	5
3	10	2
119	120	14
28	29	10
43	121	2
48	82	1
73	73	35
122	129	7
122	123	7
113	115	8
1	4	4
61	90	1
90	102	2
54	54	31
62	63	26
102	114	5
4	19	3
99	99	27
23	57	1
8	8	17
15	16	5
85	99	2
50	53	7
96	96	13
1	2	14
115	118	3
83	106	3
18	24	1
89	105	2
115	116	7
90	113	8
64	64	29
81	81	11
130	132	5
127	130	3
86	131	3
61	89	3
77	88	2
68	69	8
70	74	4
60	61	7
57	58	9
10	25	2
128	129	18
55	60	5
2	3	6
36	38	3
91	115	1
71	72	8
86	86	24
69	110	2
130	131	5
109	112	1
5	6	12
84	109	3
54	59	5
21	23	4
93	94	15
129	129	19
5	9	1
37	38	8
108	133	3
18	20	1
100	108	2
71	73	2
51	51	6
82	83	5
10	119	5
7	8	12
117	120	2
16	72	2
116	128	2
96	134	1
107	132	2
97	99	3
108	111	3
123	125	6
54	55	4
88	90	2
102	104	9
69	111	2
13	27	2
95	107	2
24	58	1
98	99	6
124	125	11
52	96	2
34	35	6
23	76	1
21	24	3
18	37	1
66	69	5
43	46	2
121	127	4
71	79	2
23	36	2
95	101	5
16	36	2
50	88	1
102	115	5
99	126	2
0	80	1
3	5	1
20	45	1
50	54	2
12	13	10
77	82	1
19	28	4
121	122	9
106	117	6
124	130	3
131	133	6
45	45	16
26	33	3
34	72	3
58	58	13
37	86	2
5	7	7
6	7	7
100	101	7
52	54	2
30	86	1
35	43	2
131	135	5
96	97	7
62	113	1
101	102	3
61	62	6
45	82	2
38	38	9
27	30	9
66	67	6
62	70	2
6	16	1
89	123	1
67	67	14
45	114	6
110	116	3
43	111	2
31	32	5
90	105	6
36	37	4
107	111	3
48	48	3
49	84	2
53	83	5
10	23	3
3	6	1
131	132	6
107	108	4
10	14	3
26	45	3
30	32	4
107	122	1
72	92	1
83	88	5
26	66	3
62	91	6
2	55	1
108	127	2
28	134	2
62	84	1
20	22	2
88	93	2
112	114	6
91	92	4
133	134	2
51	69	1
63	65	6
8	80	1
73	104	2
82	84	2
80	124	3
89	91	4
94	107	1
80	92	3
105	134	1
15	105	1
50	87	9
91	97	4
88	97	2
28	45	5
5	114	4
12	57	2
12	36	3
65	76	1
55	58	3
121	123	3
15	44	1
73	90	5
111	112	6
88	91	1
51	56	1
16	38	3
90	123	1
17	70	3
86	88	4
45	51	1
1	3	8
60	96	2
90	92	6
49	81	1
15	42	2
26	31	4
113	114	6
112	115	4
9	106	1
80	85	2
53	115	5
17	78	2
72	74	5
12	21	3
80	84	1
45	76	1
68	70	4
32	35	1
77	85	10
50	52	7
92	96	1
101	111	3
112	128	1
129	130	5
104	130	1
59	68	1
111	123	3
77	79	4
4	20	5
63	76	2
21	75	1
97	133	1
30	114	4
110	111	4
107	130	1
78	108	2
132	133	3
0	28	2
117	118	3
71	124	1
75	104	2
106	133	2
85	128	5
28	59	4
75	126	1
66	77	2
117	129	1
30	36	3
87	88	4
36	55	2
9	17	2
22	28	1
22	24	2
18	26	1
30	44	1
16	18	1
15	17	2
58	62	3
32	72	1
123	124	5
87	116	5
6	11	2
100	106	1
77	113	3
125	127	7
68	90	2
60	115	3
16	20	3
83	116	3
15	30	2
30	33	3
23	38	1
128	134	2
104	122	1
48	86	4
2	13	2
59	86	2
95	109	2
3	11	2
87	108	1
88	124	2
49	52	3
85	124	1
57	92	2
122	127	3
62	115	1
25	130	1
53	86	2
47	88	3
78	113	1
105	106	3
18	81	1
113	127	1
67	129	3
0	29	1
54	71	2
76	77	6
29	60	1
67	69	1
76	104	1
88	119	1
100	102	2
93	102	3
20	37	2
130	133	6
92	94	2
114	116	2
6	33	1
84	131	2
54	57	1
79	121	1
25	38	3
66	113	1
1	50	3
51	64	3
19	44	3
26	28	1
17	28	1
0	12	1
38	55	1
48	52	2
30	76	2
17	20	1
79	86	1
103	114	2
80	107	3
100	131	1
50	65	1
116	117	12
67	70	1
95	100	2
95	130	1
50	85	2
24	38	1
78	81	3
85	88	1
126	133	1
106	108	2
8	17	1
124	132	2
104	105	2
11	18	2
62	76	3
16	118	2
46	63	2
1	18	1
50	55	1
120	126	1
8	118	2
91	105	1
9	25	2
108	131	1
94	100	2
22	27	3
19	80	3
134	135	3
38	42	1
66	68	6
54	108	1
47	48	2
25	26	5
56	81	1
44	116	1
65	121	2
48	108	2
66	108	1
86	120	1
93	95	4
27	38	1
82	87	4
1	13	2
125	129	1
9	11	1
101	115	1
19	20	1
70	131	1
69	87	4
116	119	1
85	115	4
47	134	1
49	63	3
10	67	2
107	117	1
93	104	1
2	85	1
82	85	2
63	89	2
50	102	1
15	71	1
62	89	1
70	89	1
34	38	1
54	58	2
70	109	1
90	96	2
83	107	2
70	88	2
5	30	1
20	23	1
108	110	3
71	81	1
6	92	1
31	82	1
14	72	1
3	48	1
80	111	1
32	71	1
34	92	1
123	126	2
27	56	1
60	76	1
74	123	1
103	105	1
76	88	1
0	59	1
102	105	1
85	89	1
19	37	1
30	83	2
53	85	1
100	104	1
110	128	1
8	34	2
44	119	1
53	65	1
129	132	2
17	77	1
28	62	1
87	99	2
96	98	1
28	33	1
53	87	1
46	46	1
54	56	2
6	38	1
11	14	2
89	102	2
75	94	1
63	67	2
99	104	1
45	87	2
56	58	2
29	33	2
94	97	2
62	92	3
6	93	1
117	123	1
91	101	1
71	100	1
96	126	1
28	126	3
116	118	2
55	59	1
4	6	1
0	6	2
82	86	3
87	117	1
99	113	2
17	35	1
122	124	4
105	124	1
22	62	1
90	97	1
42	130	1
7	29	1
2	9	1
79	80	1
120	127	1
101	103	1
30	117	1
107	118	1
26	32	1
104	111	1
88	125	1
36	44	1
29	30	1
23	56	1
91	94	1
8	10	1
4	8	1
14	93	1
101	129	2
119	121	2
119	127	2
96	100	2
63	78	1
22	135	1
86	89	1
56	60	1
6	36	1
27	35	1
90	99	1
107	124	2
65	83	1
31	38	1
83	130	1
76	121	1
6	19	1
77	107	1
45	46	1
73	74	1
16	81	1
58	61	1
50	70	1
101	114	1
2	12	1
83	87	1
