45	45	7
167	167	3
154	154	17
149	153	2
157	157	12
176	180	2
94	94	3
90	90	7
172	176	3
159	159	5
48	48	12
115	115	16
53	54	5
61	61	4
17	17	7
152	155	3
65	78	5
123	124	5
105	105	6
168	173	1
94	132	3
78	78	11
89	89	9
59	59	12
21	21	11
108	109	1
80	80	17
171	172	3
145	145	9
146	148	1
19	22	2
128	128	8
73	74	6
56	97	2
54	62	2
15	85	2
167	168	4
111	111	6
134	176	1
47	47	14
79	82	1
174	174	2
129	129	3
77	77	9
69	173	4
141	141	10
166	167	2
8	77	3
114	137	1
41	41	9
161	162	2
184	184	5
125	125	14
144	152	1
43	44	6
171	175	2
153	155	5
172	172	6
57	61	1
178	178	5
152	152	4
110	111	7
60	60	9
107	139	3
77	101	2
73	94	6
171	171	4
58	61	2
133	133	3
96	102	2
13	15	2
185	186	2
5	136	8
142	145	3
39	39	12
20	34	2
168	169	1
156	162	8
63	82	2
109	110	2
170	170	9
79	81	12
106	107	1
86	86	10
109	109	14
64	64	8
12	12	3
98	98	10
147	147	13
35	35	3
92	118	1
117	117	5
112	144	1
165	165	5
42	42	2
21	47	1
32	36	4
31	31	8
149	149	11
7	7	9
98	101	3
94	130	2
127	127	3
105	106	5
112	112	6
80	83	1
178	179	1
119	123	1
149	152	3
57	88	4
142	143	6
170	174	1
162	162	2
180	180	7
73	73	13
120	120	1
180	181	1
137	137	5
75	90	4
43	43	5
82	82	9
79	90	1
3	76	5
30	32	5
7	12	2
136	136	12
57	89	2
126	126	6
162	169	1
4	4	3
185	185	2
71	178	1
37	42	4
53	53	5
141	147	1
176	176	4
63	64	5
79	79	8
71	71	2
133	163	5
4	69	2
93	93	9
131	137	4
77	90	3
60	84	4
28	28	5
77	80	3
173	174	1
24	53	2
130	130	6
60	62	4
161	164	1
131	144	2
62	62	6
148	149	2
139	144	3
184	185	4
134	175	2
43	46	1
126	137	2
131	131	5
6	6	5
148	150	2
97	98	9
148	148	2
12	28	5
110	163	3
102	102	7
27	27	6
67	71	2
31	44	1
9	9	3
146	183	1
7	88	3
66	67	6
84	85	4
101	101	6
153	153	15
93	126	1
183	183	1
114	120	2
65	65	5
104	104	11
121	142	1
142	142	3
124	124	4
45	97	5
26	26	7
34	36	2
14	15	9
173	180	5
151	151	17
161	163	7
84	87	4
81	81	8
96	96	8
46	46	4
179	179	4
150	166	2
3	3	6
70	70	10
76	85	1
64	79	2
152	165	1
19	19	3
102	103	2
57	57	6
29	35	2
14	14	5
123	123	9
62	63	4
115	153	3
133	143	3
58	84	4
31	33	1
130	132	3
10	12	1
64	77	2
80	82	1
38	38	6
101	116	1
163	163	3
116	121	3
146	146	12
92	92	9
173	173	11
143	144	1
155	156	2
187	187	7
46	78	2
20	21	1
24	27	4
78	79	4
85	86	5
123	128	2
147	176	2
11	11	10
158	159	8
164	165	4
151	181	3
17	20	4
111	114	3
93	95	4
64	82	3
10	189	3
10	10	11
171	178	2
106	106	14
13	86	2
143	143	10
45	100	3
33	34	8
11	16	2
114	115	2
116	117	1
3	12	3
161	161	7
186	186	7
112	138	2
68	70	1
20	32	2
13	13	3
16	17	1
190	190	5
6	177	2
1	4	1
92	122	2
171	173	1
85	85	7
66	68	5
29	30	2
108	108	11
115	118	1
25	26	6
80	81	3
30	36	4
119	140	4
99	99	7
150	150	4
60	117	3
22	45	4
64	93	2
118	118	4
42	158	3
72	72	10
72	173	2
19	20	3
35	36	4
64	80	2
2	2	2
42	97	3
18	22	2
142	144	4
154	166	5
99	100	1
139	139	1
122	122	8
116	122	1
5	5	3
27	35	5
95	95	6
83	94	1
103	103	1
137	150	1
56	89	3
162	176	2
134	134	3
77	89	3
24	25	4
68	68	4
23	70	2
66	70	4
171	176	1
54	55	1
54	54	3
22	27	3
100	116	1
182	182	8
30	35	2
99	121	1
25	86	3
164	164	4
98	121	2
134	142	2
66	154	1
152	154	3
154	155	3
8	8	1
23	47	2
118	163	1
76	76	3
139	148	2
181	181	2
58	58	2
138	138	2
40	40	6
45	46	2
47	52	1
93	94	2
121	123	1
83	83	7
78	85	2
67	68	1
124	125	4
77	100	3
33	33	2
81	136	3
174	181	2
67	67	5
77	82	5
90	91	2
10	11	2
56	62	1
3	10	1
117	122	3
16	24	1
113	113	3
11	14	4
74	80	3
110	124	2
31	37	2
73	75	1
6	10	1
47	54	2
1	15	2
4	8	2
182	183	3
167	171	2
12	24	2
44	44	5
70	154	1
116	120	3
134	184	1
16	16	3
122	125	1
84	84	6
146	147	2
162	177	1
87	87	1
157	158	1
162	164	1
11	23	4
21	23	5
91	91	3
101	103	5
127	128	2
65	94	1
112	114	3
101	102	3
63	65	1
151	168	4
38	41	2
111	123	2
88	88	6
169	170	1
113	141	1
30	30	1
69	69	1
105	107	2
104	116	2
38	42	1
100	100	1
97	97	3
157	159	2
0	0	3
167	177	2
147	156	1
175	175	1
6	132	2
156	156	1
26	47	1
166	166	3
169	169	1
155	155	3
123	125	2
22	22	4
121	121	2
125	126	1
11	32	3
140	140	2
66	66	2
156	163	2
97	99	5
70	122	1
132	136	4
36	36	1
188	189	1
117	121	2
24	87	1
56	56	3
158	158	2
52	52	3
32	32	4
103	105	2
133	146	2
30	31	3
37	38	1
114	141	1
7	8	1
78	81	1
168	176	2
149	150	4
12	47	1
20	20	5
109	125	1
131	171	2
75	92	3
149	165	1
176	178	1
96	98	2
122	132	2
187	190	1
188	188	2
43	86	1
175	179	3
144	146	2
5	10	2
166	168	1
74	74	2
72	75	2
2	17	2
25	25	1
29	29	3
108	136	1
9	10	1
68	79	2
12	27	1
148	179	2
189	189	1
34	35	1
53	104	1
177	177	1
91	93	1
18	19	1
125	127	3
83	84	4
18	18	2
11	27	1
62	67	1
23	23	2
4	90	2
8	74	1
81	86	1
0	13	1
21	45	2
78	80	1
1	13	1
151	182	2
151	154	1
135	137	1
132	132	1
20	43	3
157	179	1
168	168	1
63	63	1
65	72	2
118	120	1
107	107	2
141	142	2
4	73	1
61	154	2
63	88	1
104	105	1
55	55	1
134	135	1
106	108	2
10	23	1
142	179	1
61	63	1
117	162	1
0	3	1
138	139	2
23	45	1
175	180	1
97	121	1
90	98	1
6	76	1
173	178	1
10	24	1
114	126	1
37	37	1
105	116	2
12	13	1
146	181	1
80	91	1
178	180	1
137	168	1
10	190	1
162	167	1
4	137	1
141	186	1
72	78	1
