235	235	18
88	88	14
182	223	3
162	162	5
62	62	15
180	180	24
105	107	5
234	235	13
203	204	8
53	53	7
185	195	1
30	30	7
178	179	11
209	209	3
42	42	9
42	43	21
70	70	6
111	112	6
80	80	10
219	219	19
26	26	24
39	39	6
37	95	4
71	71	17
24	30	5
87	87	21
156	156	23
175	175	12
76	76	8
114	114	23
213	214	7
205	205	12
166	232	3
210	210	1
38	39	4
29	29	5
44	44	26
47	51	3
29	30	2
16	18	2
40	40	26
237	238	3
179	179	10
99	99	7
3	3	9
181	181	9
67	97	2
9	9	21
74	74	3
68	68	20
177	177	5
22	72	6
247	249	1
55	55	3
21	22	8
36	36	23
88	149	2
83	111	4
6	6	20
221	222	7
203	203	16
2	2	3
41	44	4
20	20	5
53	54	8
94	94	14
101	101	12
105	106	7
239	241	3
99	100	3
229	230	3
113	113	21
15	15	17
64	64	10
78	101	3
86	89	4
183	183	32
150	151	4
80	82	4
224	224	19
201	201	11
43	43	17
55	60	6
15	38	6
180	197	3
176	176	6
86	86	10
47	47	4
199	199	13
241	241	11
59	59	5
151	153	12
117	117	27
231	231	23
180	181	6
154	155	4
179	199	1
46	46	12
83	83	3
54	55	5
27	27	26
212	213	9
52	53	13
24	24	12
21	21	17
207	207	5
41	41	16
14	14	2
33	33	8
81	81	11
102	102	14
158	159	4
240	240	11
73	103	4
93	93	13
55	57	4
116	116	4
66	66	6
146	147	6
52	52	19
155	155	15
15	40	6
31	31	4
170	170	4
44	45	3
216	216	12
57	79	5
25	30	3
185	185	9
158	207	1
182	182	9
46	110	2
190	190	7
90	90	16
197	215	5
237	244	3
107	107	1
92	111	1
239	239	6
61	63	4
5	6	5
112	112	18
103	103	3
11	11	32
202	203	5
2	18	2
204	204	29
92	93	5
85	85	29
208	208	10
23	23	20
222	222	6
63	63	18
4	5	6
225	225	12
19	40	3
213	213	16
249	249	2
44	53	2
246	246	7
215	215	18
193	193	14
165	166	5
50	50	8
96	97	5
173	173	27
12	12	14
59	60	4
169	174	3
167	167	20
235	236	5
78	80	2
218	218	2
22	22	8
165	165	1
237	237	6
66	73	2
168	168	19
86	90	1
212	212	22
160	160	12
41	52	4
214	214	5
162	178	5
189	189	2
61	61	32
18	18	12
110	110	8
117	118	9
160	161	9
49	50	5
209	211	7
220	220	14
10	41	4
56	58	1
111	111	12
176	177	3
185	186	3
168	174	5
26	28	4
109	109	18
84	84	28
64	65	23
178	178	9
184	184	10
184	187	6
171	171	1
32	39	4
95	154	3
19	19	10
64	66	3
188	188	2
22	23	5
107	111	3
17	17	6
98	98	9
214	215	10
178	231	2
35	35	9
195	195	5
54	54	9
181	208	1
166	166	1
117	157	5
51	55	1
158	158	7
10	10	6
159	160	4
100	100	15
150	150	8
157	225	1
238	240	1
50	56	5
228	229	3
34	34	12
26	27	2
118	118	3
244	244	6
1	1	12
114	115	3
3	14	2
85	86	4
200	200	9
68	72	3
83	152	1
91	91	6
230	231	5
183	184	10
236	236	5
115	115	8
229	229	5
79	108	4
242	242	9
164	164	6
95	96	1
93	94	7
60	64	2
117	156	4
205	206	7
25	25	9
193	194	5
56	78	2
58	58	14
56	57	3
9	10	6
187	188	3
65	65	6
157	157	9
35	99	3
246	247	1
97	97	3
48	48	11
87	99	2
84	85	2
91	98	1
78	79	2
197	197	14
177	181	8
151	151	14
25	31	4
82	82	6
109	110	5
225	233	2
11	14	2
93	154	1
16	17	2
102	103	2
28	28	7
196	197	4
184	185	1
88	89	7
95	97	5
211	225	3
239	248	3
204	229	3
200	209	3
15	39	2
2	5	3
88	99	1
245	245	8
240	241	2
35	173	1
39	40	6
68	120	2
44	116	2
211	212	3
233	233	4
187	187	10
67	72	5
161	172	3
214	222	4
76	78	1
48	49	4
200	211	4
74	75	1
75	75	5
223	224	2
31	32	8
5	5	16
178	181	2
9	116	2
43	44	9
17	18	1
172	174	3
160	163	1
82	84	2
57	58	8
192	192	13
83	112	1
168	169	9
153	153	24
222	231	8
28	29	7
161	161	11
3	7	5
94	95	8
205	229	1
179	180	3
86	111	1
175	179	3
80	81	5
196	196	5
9	94	3
185	188	1
211	211	6
37	37	4
241	248	2
227	229	1
18	22	2
159	159	14
90	92	2
119	119	4
220	221	4
217	217	5
209	212	5
154	154	5
160	209	3
21	23	6
92	155	5
228	228	6
191	191	3
177	178	6
195	197	3
234	234	12
38	38	19
75	77	4
72	72	3
105	105	5
174	174	2
190	191	3
161	163	4
1	4	2
231	234	2
237	239	9
112	115	1
187	191	2
60	62	4
104	104	3
198	198	7
214	229	3
26	32	4
67	67	6
42	52	2
181	224	2
35	43	4
145	145	16
34	165	1
96	96	11
120	120	4
152	152	7
16	16	5
108	109	3
232	232	3
210	211	3
92	92	2
73	76	6
56	59	2
106	106	4
51	51	9
216	220	2
218	220	2
89	89	11
51	52	6
9	15	3
14	15	8
225	232	8
79	81	3
189	190	1
45	46	3
83	84	6
78	81	1
4	7	5
180	208	5
58	75	1
35	42	2
232	240	2
199	215	4
209	224	1
83	93	2
244	245	10
73	73	2
60	60	10
61	62	4
71	74	2
200	205	1
111	114	1
19	20	6
35	163	1
182	208	2
160	169	6
173	184	2
89	96	4
219	222	2
193	198	2
104	159	1
165	167	2
31	40	3
202	202	11
108	108	10
63	64	5
182	183	2
11	12	3
238	238	3
241	242	4
1	3	1
221	221	2
222	234	1
235	238	3
157	160	5
186	186	4
227	227	6
193	197	1
56	56	4
77	77	5
78	78	5
238	239	2
160	167	2
7	7	4
232	234	4
161	170	2
215	216	4
195	196	5
216	217	4
157	158	4
32	32	12
113	114	3
15	18	1
199	200	2
159	206	1
224	231	3
236	237	9
163	163	7
194	197	1
194	196	5
238	247	1
186	189	2
73	74	2
121	144	1
233	238	3
49	49	5
66	67	2
226	226	8
48	51	3
32	40	3
3	5	1
163	165	3
65	101	2
221	235	1
178	180	4
117	149	1
42	179	2
30	31	2
73	105	7
68	70	3
116	117	3
50	57	2
80	112	4
35	38	3
15	17	1
17	20	1
118	119	3
204	228	2
45	45	10
9	96	3
172	173	3
201	202	4
11	65	1
173	174	4
232	233	9
233	234	4
118	153	4
95	95	3
4	6	1
112	151	2
219	220	4
93	115	2
79	79	1
80	83	1
247	247	1
199	203	6
82	143	2
93	110	2
69	101	2
152	153	4
104	158	1
104	106	7
25	26	2
4	8	1
169	169	6
48	58	2
96	109	2
147	147	2
186	190	6
34	42	2
102	111	1
175	177	2
76	77	2
169	170	2
199	210	5
230	236	2
239	240	4
67	70	3
34	35	3
167	168	2
46	48	2
78	107	1
18	19	1
154	156	2
182	198	2
155	225	2
72	74	2
44	46	1
32	36	2
56	76	2
197	198	1
225	226	1
8	8	2
117	161	1
85	90	1
164	165	2
184	186	1
226	227	2
2	3	1
229	236	2
90	110	1
20	23	4
88	90	1
175	176	1
50	51	1
110	114	2
101	104	2
57	57	6
243	244	4
102	160	1
35	36	4
172	172	1
4	4	3
113	115	1
68	101	1
60	61	1
10	11	1
76	80	1
158	168	1
162	163	1
154	157	1
62	65	2
2	4	1
72	76	1
162	177	3
116	145	1
226	234	1
8	9	1
161	162	1
112	113	2
20	21	2
55	76	3
74	104	2
214	236	3
205	228	1
194	195	4
36	41	2
77	103	1
153	154	2
177	199	1
195	224	2
215	236	1
107	108	1
15	98	1
81	82	1
200	203	3
86	92	2
223	231	2
38	41	1
237	240	1
67	96	2
197	214	4
10	39	1
42	48	1
237	245	1
71	100	3
179	181	1
181	209	1
247	248	2
32	33	2
86	88	1
40	41	2
173	180	2
162	167	2
191	192	1
165	242	2
39	41	1
54	64	1
26	36	4
70	71	1
42	54	1
201	229	2
188	189	2
172	182	1
86	91	1
84	110	1
28	30	1
69	69	7
194	194	1
36	39	1
230	230	1
58	76	1
55	71	1
29	31	1
119	120	1
110	115	1
155	205	1
59	101	2
91	92	1
237	246	1
100	109	1
35	166	1
57	75	1
85	89	1
27	42	1
170	171	1
164	225	1
102	106	2
33	34	2
229	235	2
73	78	1
151	152	1
68	69	1
6	7	1
158	160	1
201	211	1
76	103	1
159	225	1
89	90	1
245	246	1
156	160	1
183	189	1
217	220	1
243	243	1
25	29	1
55	73	1
101	109	1
