35	35	9
11	11	14
17	18	9
80	80	17
96	97	3
16	16	9
132	139	2
130	140	3
37	46	5
102	102	1
99	99	15
134	151	1
115	116	7
39	49	7
80	150	8
113	113	1
82	83	5
134	134	9
118	118	10
70	71	4
51	51	9
0	1	3
8	9	7
121	139	3
18	19	3
37	61	2
78	78	7
27	28	7
104	104	5
150	150	17
89	89	10
95	95	16
99	102	4
43	43	8
110	110	11
153	154	7
154	154	13
133	133	22
97	97	3
132	133	7
145	145	16
127	129	8
98	98	14
121	121	20
71	121	5
149	151	2
7	8	5
120	120	10
52	52	9
110	112	6
87	87	11
8	8	13
139	139	7
17	17	10
146	146	16
136	136	17
93	94	1
67	67	12
137	137	15
25	30	6
38	38	11
23	24	10
89	90	2
157	158	10
70	70	27
117	117	12
88	88	20
79	79	10
147	147	9
123	123	8
125	125	5
30	30	11
126	126	14
51	53	3
40	40	13
49	49	18
102	131	4
155	158	4
39	39	10
53	53	15
96	96	14
13	13	13
3	3	14
111	111	4
158	158	9
136	137	6
112	112	9
119	120	10
83	83	9
24	24	6
99	133	4
133	151	2
14	14	7
14	15	6
129	130	3
41	49	1
15	37	1
92	92	3
27	27	11
57	57	4
156	157	7
54	55	8
95	96	10
116	117	3
29	29	5
84	84	3
148	148	7
40	47	5
85	85	9
103	133	1
53	54	9
91	91	9
144	145	5
80	81	4
12	12	8
48	48	14
123	124	7
90	90	10
4	4	7
34	34	15
38	56	4
23	23	4
128	128	10
154	155	4
26	26	8
18	18	12
21	21	16
24	110	2
19	20	2
25	25	7
5	5	16
153	153	2
65	66	3
138	138	5
114	114	1
6	8	2
97	106	4
85	86	10
25	29	1
31	31	10
38	48	2
87	88	5
126	133	1
6	7	4
131	134	3
50	52	8
68	130	3
33	33	14
10	10	14
64	64	10
68	148	4
90	149	3
12	14	5
7	7	8
122	122	1
54	54	15
22	22	4
98	99	2
11	12	1
70	72	6
152	152	7
73	104	6
158	159	1
141	141	16
131	131	7
142	142	13
67	130	8
65	107	5
86	87	8
51	52	10
15	40	3
87	89	4
69	141	10
37	37	7
9	9	4
2	2	5
109	109	6
143	144	10
156	156	5
77	77	8
48	49	5
82	82	8
46	46	13
155	155	6
124	124	14
133	134	7
67	68	12
22	112	1
131	133	12
4	34	1
99	134	4
129	141	1
129	129	5
13	14	3
32	32	5
132	132	15
120	121	5
1	1	2
73	129	4
76	76	3
97	98	1
55	55	4
85	87	4
77	78	6
37	38	6
6	13	5
65	65	8
40	41	1
62	111	1
153	156	2
21	23	3
151	151	8
32	33	1
138	139	4
80	155	4
135	137	5
12	56	6
120	143	1
75	83	2
90	91	4
51	57	2
12	13	3
5	15	1
107	107	5
130	145	1
36	37	3
11	52	3
73	73	9
75	75	10
71	118	2
44	44	9
86	86	9
78	93	2
116	116	2
56	56	5
152	153	3
88	149	2
6	6	9
119	146	4
86	89	2
68	68	6
144	144	9
94	94	3
98	105	1
69	69	7
121	128	1
80	83	4
83	85	1
13	39	4
119	119	13
15	15	4
34	35	3
134	139	4
45	45	4
103	134	1
88	118	3
125	135	1
30	62	4
91	153	3
72	138	2
121	141	2
12	52	4
76	93	5
1	2	4
72	87	3
115	115	8
120	144	1
130	130	3
36	55	1
72	89	1
73	140	6
4	5	7
18	40	1
126	127	4
101	101	17
41	41	7
2	33	1
19	19	10
118	146	1
13	38	7
105	106	1
135	136	3
127	128	3
99	104	7
79	151	3
100	100	14
155	157	2
110	113	1
38	40	1
42	42	11
56	57	2
128	143	1
52	53	2
49	53	2
33	48	2
106	106	11
151	153	4
135	135	8
85	89	2
72	91	3
140	141	5
69	140	6
47	47	8
71	71	7
83	84	3
108	108	11
3	33	3
127	127	7
139	140	4
16	17	1
63	63	2
69	148	1
70	73	1
38	47	1
17	40	5
9	10	2
128	129	7
125	132	3
20	22	3
36	36	4
75	76	2
13	51	3
140	140	2
71	122	2
89	116	1
24	25	2
14	50	1
10	11	8
16	19	1
155	156	3
108	109	7
131	132	1
86	88	1
133	138	1
72	139	1
91	154	4
80	82	2
20	20	9
9	11	1
141	144	2
0	0	8
137	138	6
68	69	3
106	107	1
156	158	1
41	46	5
141	143	4
103	104	3
39	40	5
15	38	1
87	136	1
70	119	3
120	140	5
29	109	1
118	119	2
24	109	1
90	92	1
36	56	1
95	97	3
148	152	1
103	103	2
84	86	2
7	11	2
81	83	1
99	100	4
12	51	2
148	149	2
107	108	5
15	41	1
50	50	7
15	19	1
90	148	3
26	27	5
66	130	1
124	138	1
33	37	2
27	29	2
73	130	4
141	142	2
100	101	1
68	149	4
67	69	1
39	50	2
72	72	2
131	141	1
62	62	1
71	87	2
149	149	3
0	33	1
29	65	1
124	126	2
14	38	2
157	157	1
22	24	1
76	77	1
2	3	3
105	105	2
104	105	1
140	143	1
69	73	1
88	90	5
3	4	2
31	32	2
79	80	2
114	115	1
24	112	1
69	139	2
33	34	1
39	47	1
37	56	2
146	148	2
93	93	3
125	140	1
35	36	1
147	148	1
76	78	1
117	118	1
41	42	2
102	103	1
17	41	2
62	63	2
143	143	3
66	66	1
103	150	1
113	114	2
142	143	3
125	126	1
15	16	1
70	88	1
18	43	1
34	38	1
92	93	1
66	117	1
138	140	1
118	145	1
50	51	1
1	32	1
84	90	1
91	155	1
39	48	1
78	151	1
101	102	1
90	154	2
4	36	1
41	47	2
81	81	1
21	22	2
68	151	1
128	144	1
102	133	1
67	152	1
