116	128	2
44	49	3
87	109	3
7	19	1
50	58	4
103	121	3
91	91	1
58	64	3
97	97	2
116	119	1
118	119	3
103	127	2
129	129	1
35	38	1
9	68	5
34	34	2
10	12	1
76	77	2
110	135	3
69	91	3
57	65	3
100	100	5
115	115	3
5	8	4
86	100	5
132	132	5
52	53	4
29	29	3
45	59	2
116	116	3
62	62	6
10	13	2
127	131	1
6	14	1
22	68	2
2	14	4
52	52	2
82	120	1
133	134	2
119	119	5
98	98	1
102	127	3
95	98	2
90	113	1
75	76	4
128	132	1
63	63	2
109	109	2
89	89	3
8	31	3
10	27	2
94	95	3
19	35	1
11	30	5
99	100	1
50	54	2
109	132	3
60	71	2
105	130	1
16	25	4
121	121	1
6	77	1
15	18	4
120	120	2
23	23	2
13	28	2
107	108	3
3	10	3
110	110	1
54	56	2
127	127	2
48	57	2
78	78	4
55	55	3
50	56	4
118	118	4
7	14	2
2	2	1
26	38	2
126	127	2
83	92	1
114	114	5
115	119	1
26	127	2
120	126	1
4	4	2
68	68	5
77	82	5
128	128	6
16	64	1
31	32	3
122	131	4
124	124	4
13	14	1
66	66	6
72	72	3
48	48	2
89	90	2
50	50	2
116	118	2
69	92	3
118	130	2
20	20	6
19	26	3
117	128	2
95	100	2
57	66	3
82	85	1
134	134	3
35	35	3
72	84	1
54	61	3
3	20	2
0	0	3
44	45	1
72	108	4
11	11	2
24	30	1
66	82	2
7	26	2
126	134	1
33	33	3
77	77	1
27	27	1
110	121	1
25	33	2
28	31	2
46	54	4
90	90	1
93	94	1
65	65	4
83	83	5
111	122	1
82	104	1
113	125	1
126	129	2
98	104	1
81	81	3
87	87	2
69	71	1
110	111	2
94	133	2
36	37	1
83	91	1
87	100	2
99	104	2
4	8	2
84	84	3
21	26	1
102	111	3
77	94	2
14	14	1
123	126	1
6	10	1
127	129	2
25	27	1
92	92	1
10	32	3
74	75	2
64	65	2
87	91	1
108	109	1
21	22	2
68	91	2
124	126	1
4	7	1
95	96	1
96	104	2
110	119	1
9	9	1
110	123	1
49	64	1
11	16	2
10	10	1
43	68	1
100	109	3
63	73	1
96	110	1
30	33	3
50	81	1
64	68	1
121	122	2
92	107	2
84	99	1
80	80	1
63	88	1
2	19	2
27	37	2
1	1	2
130	131	1
64	66	1
2	6	3
8	8	1
42	42	2
7	8	1
105	105	1
87	99	1
61	61	1
65	70	1
117	117	1
102	116	1
106	106	1
3	18	1
3	17	1
96	113	1
43	75	1
47	52	1
86	114	1
15	15	1
72	93	1
