97	97	4
112	112	3
152	152	7
171	171	10
95	102	4
137	163	5
134	162	1
65	65	1
22	22	3
39	62	2
174	174	4
220	220	6
14	14	3
5	5	2
186	186	3
17	18	2
12	12	4
54	229	1
28	73	1
95	95	1
113	113	1
207	207	7
241	241	8
184	185	1
220	224	6
104	104	5
128	128	6
196	196	3
202	225	2
115	115	3
214	216	4
7	20	2
46	110	1
217	217	8
10	10	8
0	0	2
26	26	4
229	229	3
40	40	7
81	84	5
206	206	8
161	161	11
149	159	1
233	234	2
65	66	1
168	219	4
59	61	1
62	172	1
135	135	2
128	130	3
23	81	1
221	221	5
213	227	2
155	156	2
120	120	4
23	23	8
58	59	5
179	180	2
30	53	1
50	50	1
242	242	5
122	138	5
43	43	2
213	213	4
143	143	4
208	208	3
140	140	2
188	189	4
123	123	2
26	27	11
125	126	1
199	200	4
45	45	6
42	42	4
39	68	2
37	41	1
18	19	4
72	75	5
168	169	3
200	200	4
86	86	4
231	231	4
64	64	1
216	216	3
78	180	1
160	160	3
52	81	1
9	202	1
29	29	5
171	225	1
101	101	4
158	158	1
100	100	4
199	199	1
215	216	2
33	83	2
107	108	3
173	178	2
137	139	1
44	44	3
9	234	1
48	48	7
207	208	4
175	178	1
26	86	2
53	81	2
185	186	1
174	207	1
145	152	1
178	178	3
151	151	5
151	152	1
39	39	4
237	237	1
53	53	5
111	111	4
173	173	4
194	194	3
157	158	4
65	136	4
76	76	1
32	37	1
4	85	2
198	198	9
8	8	2
140	143	2
12	197	2
102	102	3
23	234	2
36	36	5
116	118	2
79	80	1
2	5	1
170	170	2
224	230	3
25	49	6
193	196	1
23	82	5
9	9	3
185	185	5
234	234	5
167	167	1
6	6	2
69	69	1
111	112	1
182	182	3
138	138	3
153	153	4
166	183	3
63	63	2
145	145	4
55	174	1
74	74	7
172	172	15
147	147	4
49	49	4
183	183	1
57	129	3
72	72	1
70	71	1
224	224	4
223	223	2
230	239	1
235	235	4
220	241	1
175	207	1
215	215	3
224	225	1
82	82	2
110	110	3
70	70	3
198	230	2
67	162	2
36	56	2
84	84	4
212	213	1
34	34	3
168	168	2
181	182	1
107	107	2
126	126	5
177	177	1
60	60	3
149	152	1
16	16	1
40	41	1
166	206	2
239	239	1
3	32	3
154	166	2
165	165	2
170	206	1
157	157	1
133	133	3
188	188	2
233	241	3
148	153	1
203	218	2
121	128	1
71	73	3
180	180	3
201	201	2
6	34	1
0	1	3
206	207	3
41	41	1
108	108	4
203	203	2
24	24	3
137	137	1
211	211	2
20	20	5
106	106	1
27	27	5
174	175	1
159	159	3
130	130	2
136	136	1
21	21	2
232	233	1
237	238	1
170	171	1
85	85	6
10	160	2
173	174	1
4	91	1
219	219	1
168	226	1
184	196	1
210	210	1
220	221	2
187	187	3
138	139	2
157	196	1
230	230	2
221	223	1
18	18	3
197	197	3
105	105	1
72	141	1
147	185	1
171	172	1
61	61	5
146	146	2
81	83	1
204	206	2
3	34	2
191	191	2
68	68	1
54	54	3
207	218	1
99	133	1
199	237	2
47	47	5
228	229	1
151	178	1
81	81	1
27	75	2
168	171	1
28	28	1
179	182	1
61	162	1
139	142	1
98	99	1
189	189	2
125	125	2
181	181	2
7	18	1
47	48	1
186	187	1
107	127	1
214	214	1
176	178	1
223	236	1
238	238	3
35	80	1
86	131	2
219	238	2
232	232	1
99	99	1
103	103	1
175	176	1
37	38	1
185	196	3
50	84	2
124	124	1
210	211	1
25	25	2
103	126	1
239	240	1
203	228	1
140	142	1
59	59	3
108	129	1
117	117	1
234	242	1
104	126	1
66	133	1
96	96	2
233	233	2
155	158	2
66	67	1
55	75	1
60	61	1
212	212	1
118	118	1
175	175	1
136	137	1
200	211	1
80	80	1
62	62	2
148	148	1
17	162	2
37	37	1
56	56	1
166	186	1
83	83	1
199	231	1
133	134	1
151	169	1
182	229	1
77	77	2
235	237	1
119	120	1
209	210	1
61	62	1
169	169	1
46	46	1
129	129	1
43	128	2
123	124	1
203	204	1
202	202	2
67	67	1
162	162	1
227	227	1
38	38	1
30	30	1
190	190	1
