88	88	28
22	22	9
51	51	13
70	70	30
100	100	19
24	24	11
40	40	8
35	35	11
94	94	3
57	65	2
64	90	1
27	27	6
86	86	22
50	50	9
58	58	9
41	42	4
84	84	16
43	43	8
52	53	7
27	28	6
72	72	19
82	86	1
89	89	16
31	72	1
49	49	7
41	41	19
37	37	10
68	83	3
63	63	30
85	85	18
61	87	2
33	34	6
34	35	6
33	33	15
31	31	14
57	57	6
98	98	15
46	46	11
49	50	4
81	82	5
92	92	13
42	42	11
71	74	1
52	52	26
75	75	29
65	66	6
64	64	19
29	29	12
91	99	2
60	60	15
54	54	3
76	76	27
95	95	15
86	87	6
44	44	11
50	81	1
40	43	2
54	55	2
36	36	13
64	68	1
93	93	5
69	69	13
66	66	12
90	90	12
62	62	16
74	74	14
65	65	27
81	81	20
68	68	20
25	26	5
56	56	8
96	96	4
101	101	18
87	87	22
39	39	9
61	72	5
80	80	14
102	102	1
83	83	10
87	88	12
64	65	3
79	79	18
99	99	13
61	86	4
58	59	4
62	63	4
34	57	5
53	53	7
38	38	11
59	59	17
50	52	6
45	45	4
43	90	3
73	73	20
23	24	3
70	71	4
33	60	5
67	67	26
91	92	8
71	71	31
48	48	6
34	34	15
77	77	8
24	34	2
67	68	4
66	67	4
97	97	10
68	77	1
22	25	3
32	35	3
82	82	16
25	48	3
84	96	1
51	52	2
58	60	1
73	80	2
83	95	1
34	95	2
41	89	2
93	97	4
75	76	4
66	73	1
69	70	8
87	89	1
82	87	1
68	74	1
40	41	1
68	69	7
21	25	1
53	56	1
45	46	2
29	31	4
86	88	2
23	23	7
66	74	2
64	72	2
39	58	4
91	93	1
25	25	11
27	37	3
39	55	3
73	74	11
55	55	11
61	61	10
23	33	1
47	47	14
57	58	3
71	72	4
27	87	4
50	63	1
31	32	3
61	88	1
36	62	3
47	48	6
35	37	2
78	78	9
73	75	3
28	28	3
83	99	3
60	101	1
26	26	8
53	55	1
74	75	2
81	85	3
72	74	4
37	38	4
76	77	6
57	93	4
62	64	1
60	64	2
82	83	2
94	98	1
25	27	3
58	61	2
50	51	4
26	35	1
36	37	4
90	91	2
64	85	1
85	87	1
99	100	1
22	52	2
71	73	1
44	45	2
69	71	1
80	81	7
83	84	1
30	30	1
40	55	2
64	67	1
56	57	3
42	74	4
51	53	3
83	85	1
67	70	1
40	89	2
43	88	2
42	48	1
100	102	7
23	26	1
91	91	1
36	38	1
33	88	1
95	97	1
89	97	1
35	96	2
52	96	1
55	73	1
61	62	3
33	35	1
26	49	3
89	90	1
69	78	2
53	97	1
86	99	1
26	29	1
47	69	1
86	89	1
84	92	1
79	80	1
39	84	1
38	40	1
91	96	1
42	43	1
81	94	1
41	90	1
29	72	1
72	76	1
59	60	2
84	86	2
45	78	1
63	66	1
63	67	1
32	33	1
45	69	1
35	46	2
26	27	1
68	79	1
31	35	1
20	53	1
94	96	1
38	39	1
35	45	1
24	98	1
65	68	1
