117	117	1
5	58	2
87	87	2
95	95	9
66	66	6
49	49	17
0	0	2
6	6	4
63	63	3
106	106	3
18	102	7
87	92	5
134	135	3
43	43	2
39	39	1
65	65	5
85	118	1
60	93	1
76	81	1
61	72	4
71	71	4
26	26	2
33	35	2
57	57	4
11	110	1
11	47	1
127	130	5
6	112	4
73	73	2
50	50	14
94	94	1
115	115	1
20	20	4
29	29	6
122	122	1
119	119	8
134	140	2
10	10	4
34	36	1
41	41	6
129	129	4
9	9	8
142	142	1
58	58	4
42	100	2
30	30	3
134	141	2
86	86	1
92	92	1
87	89	3
21	22	3
55	55	6
125	125	5
75	75	2
67	68	3
88	89	1
17	17	3
2	20	2
22	22	3
108	109	2
64	65	2
43	86	2
42	42	4
112	113	3
68	69	4
57	58	6
35	36	1
50	52	2
60	61	1
20	25	3
59	87	4
110	110	2
79	79	5
27	27	1
127	127	2
125	127	2
10	15	2
97	98	3
81	81	2
61	93	2
90	90	10
111	111	9
1	97	2
109	133	1
123	131	4
69	69	3
38	38	7
18	18	2
136	141	4
53	53	5
2	4	2
82	90	1
36	36	4
137	137	2
4	22	2
108	108	5
114	115	6
113	114	2
8	8	2
11	11	1
61	94	2
15	15	2
114	114	4
75	117	1
136	137	1
127	128	4
144	144	2
99	99	1
1	13	3
30	35	2
2	2	1
28	29	1
31	33	2
10	84	1
128	129	2
109	112	1
132	132	6
111	131	2
36	41	2
40	40	8
61	71	2
134	134	4
122	131	2
110	132	1
133	133	4
82	89	3
138	138	2
18	101	1
61	86	3
108	140	3
97	97	1
98	99	1
23	23	1
141	141	1
14	14	1
15	22	3
135	135	1
64	64	1
112	114	2
81	84	2
0	43	1
74	74	4
142	143	1
111	133	1
82	86	1
48	48	1
101	101	1
89	90	1
93	93	4
88	88	3
128	128	1
127	129	1
4	13	1
62	62	1
70	70	1
27	37	1
85	93	1
105	121	1
61	68	1
83	117	1
80	117	1
2	3	1
8	140	1
9	15	2
96	106	1
120	120	1
135	140	2
24	123	1
32	33	1
84	117	2
60	60	1
138	139	1
17	100	1
10	118	1
104	120	1
61	61	1
47	77	1
126	126	2
66	74	1
136	139	1
116	117	1
111	128	1
65	72	1
140	140	1
99	101	1
