115	124	4
15	57	3
163	163	10
160	160	8
99	99	1
128	134	4
29	29	4
188	189	4
23	25	5
122	122	7
67	76	5
73	82	3
19	19	3
178	178	4
91	91	13
46	46	3
156	156	4
40	40	12
130	130	8
71	134	3
58	120	1
67	67	11
10	12	3
95	153	4
118	118	7
145	145	2
92	164	5
67	123	2
74	74	19
180	180	6
63	79	3
109	109	6
149	149	7
107	107	5
95	118	4
16	16	16
112	113	1
148	148	9
141	144	2
83	83	8
20	20	9
53	53	8
8	108	1
164	165	2
99	100	3
117	117	6
75	75	6
11	11	10
15	15	3
15	31	4
43	43	13
137	138	5
147	147	24
34	36	2
131	132	8
101	125	4
82	82	3
4	4	2
124	125	7
108	108	10
13	13	5
57	57	7
23	23	6
167	167	8
104	104	6
2	2	10
2	114	6
39	41	2
105	105	16
36	39	5
63	80	3
24	24	5
100	100	7
103	183	1
56	56	4
142	143	1
95	95	7
58	59	9
17	17	9
177	182	1
15	16	1
116	117	2
173	173	5
54	54	2
89	89	10
11	12	4
152	152	3
183	183	14
116	122	3
124	124	8
71	137	1
186	187	5
105	166	1
136	137	7
161	161	5
55	55	20
27	27	12
40	42	4
185	185	6
18	18	10
115	115	8
59	82	2
169	183	1
36	36	6
160	163	1
146	148	5
159	162	8
81	82	2
189	189	7
22	22	5
3	113	3
82	83	2
48	48	9
125	125	8
137	137	8
92	92	9
135	135	2
174	177	2
171	171	3
73	73	6
139	139	9
132	132	2
167	178	5
138	138	5
144	144	4
91	92	1
79	79	2
72	72	9
87	87	6
26	28	3
94	94	9
77	168	5
89	100	1
88	88	6
40	41	2
108	109	1
20	132	2
132	133	2
134	135	4
33	89	4
93	146	2
61	61	5
187	187	3
32	32	6
179	179	8
92	108	2
63	63	6
103	103	8
59	59	11
78	111	3
44	44	11
158	164	3
84	85	2
134	134	6
10	13	9
13	57	3
42	42	2
147	154	4
9	10	3
76	77	3
38	38	7
138	139	1
85	110	5
111	111	1
150	158	2
35	35	9
59	60	1
37	38	3
128	128	9
159	160	2
152	182	5
101	102	11
58	58	6
58	73	3
119	122	1
28	30	2
22	23	1
161	174	2
66	66	3
39	39	6
102	125	1
73	103	2
78	78	5
97	97	3
53	121	7
156	157	5
103	136	2
41	42	2
70	70	3
3	110	2
146	146	2
134	139	1
126	128	5
129	129	3
9	58	2
149	151	2
165	165	3
170	173	6
177	177	6
188	188	3
41	41	3
96	99	2
31	31	6
18	21	1
148	150	2
25	25	5
177	181	1
155	178	1
160	162	1
112	130	2
29	30	7
164	168	1
181	183	3
115	120	2
37	134	1
77	77	7
166	166	6
110	111	4
84	96	2
155	155	4
190	190	4
9	57	3
91	135	3
1	1	3
80	80	6
91	94	7
130	131	4
7	7	8
120	120	3
22	25	3
117	119	3
28	126	2
87	124	2
25	106	1
14	14	11
39	42	2
102	106	4
91	96	3
160	164	8
112	112	1
28	28	7
131	131	6
110	110	3
148	155	6
12	39	4
162	163	1
53	54	4
122	178	1
98	98	5
156	174	4
170	170	5
62	62	3
89	140	2
58	62	2
150	150	10
155	169	3
100	121	4
121	121	6
123	123	10
14	24	6
160	174	1
184	184	1
10	10	6
32	33	5
175	175	7
28	108	2
12	14	1
172	172	6
72	83	1
157	183	2
5	5	11
27	30	2
59	64	2
109	114	2
77	123	1
93	93	3
168	168	6
115	130	2
156	190	2
110	113	2
155	176	2
154	154	3
9	47	4
95	124	2
174	175	2
168	170	2
33	35	1
90	96	1
68	122	3
92	94	6
169	172	1
33	33	1
127	128	4
11	47	4
123	139	2
72	130	1
55	120	1
164	164	8
17	18	3
92	129	1
45	46	2
8	8	4
7	40	2
121	179	1
176	176	4
162	162	3
77	124	1
21	23	1
61	62	5
37	37	7
142	158	1
116	116	4
56	57	2
8	130	3
81	81	7
144	145	1
89	99	1
45	45	3
141	141	7
116	118	4
34	34	6
135	138	1
90	134	1
28	29	1
96	96	2
143	143	4
97	175	1
43	44	1
103	104	4
144	175	1
79	123	2
89	138	3
159	173	1
8	53	1
22	145	2
26	26	2
73	74	3
157	157	5
60	61	1
3	3	2
88	181	1
167	177	1
72	82	3
184	186	1
44	80	1
150	187	2
159	159	1
181	181	5
10	45	2
76	76	1
182	183	1
90	160	2
158	183	1
121	122	3
55	118	2
8	86	1
85	98	1
4	6	3
74	103	2
104	105	2
127	127	1
117	123	4
30	31	5
168	169	2
31	32	1
23	54	3
101	101	4
22	24	1
172	176	2
150	151	2
46	47	1
179	189	1
86	151	1
74	79	3
40	88	3
96	106	2
94	95	1
88	159	2
151	152	2
171	172	3
113	113	2
83	84	3
129	130	2
109	166	4
90	94	2
98	140	5
123	137	1
133	134	3
119	120	2
88	162	3
160	161	1
57	109	1
102	102	1
119	119	3
62	77	2
162	169	1
175	188	1
102	126	2
155	156	1
76	79	1
143	146	2
101	124	2
118	119	2
15	19	1
106	106	2
173	174	2
70	138	1
70	111	1
74	76	1
123	127	1
60	60	4
64	64	1
66	88	3
151	151	1
14	21	1
152	153	2
140	140	6
133	133	1
109	115	4
30	30	3
74	75	1
178	180	3
179	180	2
104	166	1
153	182	1
66	67	2
71	71	5
16	46	1
144	180	1
6	6	1
69	136	1
34	37	1
171	173	2
84	84	3
159	174	1
122	179	3
52	58	1
177	180	2
7	8	1
68	68	2
180	181	2
153	153	1
146	147	1
136	136	1
177	178	1
5	110	1
101	121	2
90	104	2
90	90	2
18	19	1
166	175	1
169	169	1
147	148	1
21	21	1
114	115	1
174	174	1
12	12	1
85	113	1
142	142	1
116	128	1
93	133	1
161	162	1
106	108	1
1	2	1
100	161	1
109	159	1
148	159	1
111	112	1
76	83	1
