180	181	6
164	164	19
59	59	8
167	167	9
35	46	1
76	76	8
133	133	6
31	31	7
20	203	6
63	63	13
117	118	1
242	242	8
186	186	6
176	200	2
26	26	7
84	84	8
33	36	2
153	156	1
29	29	11
221	221	3
66	68	2
185	185	9
76	79	1
189	222	1
15	15	8
184	184	8
216	216	4
119	119	3
140	141	3
204	223	2
81	82	6
218	218	5
75	188	5
157	157	5
197	197	12
75	75	9
113	113	1
16	17	5
13	13	12
166	166	15
43	43	7
131	131	7
178	178	15
30	30	18
10	10	10
75	76	7
113	115	2
15	16	6
142	142	10
0	0	6
152	170	1
14	71	3
133	134	1
227	231	2
124	125	5
192	208	3
111	120	5
6	6	11
67	80	2
39	39	23
143	143	6
170	170	6
116	116	16
32	36	1
204	204	12
103	105	3
159	159	8
36	36	16
169	169	7
163	163	7
45	45	9
161	162	3
96	96	8
126	126	6
11	11	8
16	16	4
174	174	11
132	135	2
2	2	8
213	214	1
82	84	4
115	118	6
152	152	9
121	121	4
135	135	9
124	124	2
64	64	14
232	232	12
43	70	3
80	84	3
85	85	17
106	139	5
42	42	2
38	38	7
2	6	5
191	208	5
28	28	6
156	221	3
102	135	3
99	99	8
73	86	4
226	226	8
192	192	9
67	67	12
23	69	4
34	34	6
114	223	3
80	80	9
164	209	3
21	21	13
156	222	1
74	203	2
239	239	3
196	197	3
99	122	3
78	78	2
129	224	3
47	69	3
191	191	8
128	153	3
151	151	11
29	30	7
103	135	5
237	237	4
168	202	4
79	79	11
114	144	2
74	74	22
25	25	12
42	43	3
50	50	19
172	201	5
88	88	8
191	192	4
227	227	8
109	111	1
44	47	3
21	68	3
67	68	4
17	230	4
65	67	2
26	28	3
136	199	2
168	168	8
202	202	11
222	222	16
3	65	2
170	208	2
6	66	8
144	145	2
108	108	13
200	200	10
230	230	7
229	230	12
76	77	2
27	27	14
199	200	2
130	130	9
3	8	5
22	23	5
161	161	21
37	221	3
125	125	7
15	48	4
104	104	9
136	169	2
83	83	10
214	214	14
160	160	15
114	114	9
42	71	4
217	217	10
69	69	5
116	118	7
187	197	2
239	240	2
147	169	9
191	197	6
163	164	3
70	70	4
145	192	4
228	228	7
49	49	17
159	164	2
79	225	1
134	134	13
176	176	10
233	239	5
48	203	2
51	54	1
123	206	2
22	22	2
238	239	3
128	128	17
105	105	10
147	147	7
173	175	5
47	172	3
113	142	2
133	135	2
230	231	3
9	20	1
138	141	4
87	91	5
177	177	10
207	210	5
209	210	5
65	65	11
152	153	5
104	114	1
136	136	15
53	53	3
144	147	4
57	58	2
102	103	3
189	189	8
223	223	4
114	131	1
76	78	1
17	18	2
225	225	9
66	67	9
215	215	6
116	130	4
156	220	4
122	122	6
195	195	10
125	126	1
148	149	8
100	100	13
171	171	7
141	142	2
81	83	5
152	216	3
95	96	3
36	67	3
138	139	2
183	188	1
134	143	2
145	146	2
131	135	2
172	172	4
213	216	3
106	106	16
141	141	10
224	224	10
35	35	2
118	118	6
148	148	20
114	224	2
220	220	2
117	117	4
60	60	11
37	38	1
182	183	2
120	120	4
155	155	8
182	182	7
123	126	1
68	68	6
139	139	8
9	11	2
165	165	15
216	227	5
189	190	1
208	208	6
111	111	5
204	205	2
74	75	9
25	28	2
101	101	7
102	102	8
30	45	2
73	73	6
23	23	7
180	180	12
7	7	5
62	101	2
161	189	5
171	206	2
79	113	2
24	24	20
26	27	1
157	158	3
145	145	11
84	226	2
40	40	6
32	32	7
140	140	6
236	236	11
218	219	1
222	225	3
203	204	3
15	17	5
61	61	14
3	3	6
195	196	7
132	132	7
188	190	4
33	33	3
210	210	9
99	128	2
183	183	8
144	144	9
127	127	5
58	237	2
85	226	2
175	178	1
129	130	1
198	199	2
17	50	2
8	8	6
153	153	10
24	75	4
88	234	3
115	199	4
198	198	8
187	187	9
107	107	8
86	86	6
48	48	7
12	12	2
166	210	3
197	199	2
196	196	5
235	235	8
212	212	8
97	97	6
190	190	2
52	52	6
21	69	1
6	8	2
98	98	3
81	81	9
47	47	4
201	202	2
123	123	3
75	86	2
41	41	13
51	51	6
156	156	5
12	13	5
59	204	2
24	85	2
114	177	5
30	31	8
154	157	1
136	137	2
170	207	9
78	79	6
198	201	2
231	231	9
156	157	3
14	75	4
114	200	2
0	8	2
5	83	4
65	68	3
18	53	2
179	179	4
144	200	2
138	138	3
77	85	3
54	64	2
32	33	1
240	240	1
78	82	2
48	98	1
171	203	5
82	82	11
123	128	1
79	80	5
181	182	1
161	192	1
219	219	4
54	155	2
146	146	7
145	151	6
19	21	3
124	126	2
18	18	7
170	171	5
211	211	10
127	137	2
77	78	2
24	25	2
18	65	2
79	117	4
92	95	1
193	194	2
218	233	2
201	201	2
155	157	2
179	180	3
167	168	8
14	15	3
206	206	13
207	207	8
220	221	3
128	129	4
109	109	4
16	70	1
77	77	5
119	199	2
104	105	1
27	85	6
5	8	3
24	65	2
43	88	3
224	225	2
27	207	1
48	62	2
138	142	2
114	222	2
158	159	2
20	20	3
185	186	5
199	199	15
1	1	2
216	217	3
154	154	3
192	218	2
233	233	5
20	65	1
114	122	1
55	55	6
1	26	2
12	22	1
14	14	5
7	14	4
48	110	3
17	17	5
106	107	7
213	213	3
110	110	3
197	198	1
188	188	9
151	238	1
50	165	3
1	8	1
203	203	2
55	64	4
18	51	4
173	173	4
85	116	4
217	219	3
58	58	5
232	236	1
160	191	4
149	150	4
181	181	3
2	3	6
139	144	2
129	129	1
115	119	1
66	66	6
116	117	2
225	230	3
123	205	1
222	223	1
23	24	1
193	193	3
146	151	1
62	62	6
194	194	1
59	155	3
99	123	2
68	69	2
42	97	1
234	237	1
136	138	2
214	216	5
161	163	1
195	217	4
147	210	1
11	15	1
9	9	5
110	111	1
39	54	2
64	65	7
84	228	2
214	215	3
115	129	6
234	235	3
114	115	8
63	64	4
106	165	5
178	179	2
5	5	5
150	150	7
33	80	1
58	97	2
15	81	5
208	209	3
1	7	2
144	152	1
147	148	6
154	155	6
215	216	1
119	194	3
122	127	1
18	48	1
208	217	3
128	224	3
6	67	2
65	85	1
141	195	2
61	64	2
186	188	1
175	175	7
137	137	4
234	234	5
72	72	1
44	44	6
19	19	6
221	223	2
232	233	2
174	201	3
176	197	1
220	222	2
42	157	2
205	205	2
136	144	2
47	162	1
233	236	1
205	219	5
103	167	3
50	161	4
115	204	1
37	37	6
139	140	2
184	185	2
171	201	1
52	54	2
234	240	1
22	168	1
165	201	1
11	42	3
207	208	3
211	212	3
60	61	2
168	173	1
238	238	3
95	100	3
153	154	2
129	225	1
193	200	1
228	231	2
45	46	1
78	80	1
4	4	4
104	119	3
123	124	1
20	67	1
62	63	1
136	149	1
150	159	2
129	177	1
16	231	1
190	215	1
223	225	1
46	46	1
149	149	6
52	53	5
46	51	2
48	159	1
181	211	1
66	81	2
35	36	1
98	99	1
241	241	1
80	82	1
166	167	1
210	211	1
9	18	1
34	84	3
49	50	6
3	84	1
9	15	4
188	189	1
146	193	2
219	220	1
169	171	2
11	12	3
1	20	2
241	242	1
107	108	4
141	201	2
77	89	1
10	86	1
159	161	1
38	42	1
39	55	2
46	97	2
15	231	3
63	218	1
51	213	5
56	56	3
166	202	1
44	45	1
57	59	2
27	63	1
177	178	1
15	100	1
141	179	2
225	226	1
103	103	1
169	170	2
103	104	2
131	132	2
23	110	2
109	110	1
71	71	2
119	133	2
206	207	2
150	152	1
43	44	1
31	32	1
111	112	1
46	162	2
153	155	1
50	162	1
57	236	2
13	18	2
176	187	3
164	166	1
148	169	1
175	176	2
78	113	2
138	143	1
236	238	1
11	13	2
116	200	2
128	131	1
115	117	1
40	41	1
20	49	1
162	165	2
9	10	1
145	165	1
15	47	1
166	201	1
159	173	1
54	54	2
27	30	3
92	204	1
123	169	1
69	70	1
124	127	2
61	62	1
64	157	2
57	241	1
157	172	1
205	206	2
113	141	1
129	211	1
142	144	1
138	144	1
50	148	1
149	220	1
12	23	1
56	236	2
55	96	1
15	70	1
113	140	1
217	218	1
82	83	1
185	222	1
97	128	1
163	196	1
232	237	1
39	75	1
112	113	2
97	99	1
26	37	1
42	88	1
7	18	1
138	169	1
218	232	1
195	199	1
178	180	1
231	232	1
42	86	1
54	55	1
127	167	1
0	82	1
34	43	1
