42	67	3
30	30	5
33	33	6
82	82	11
69	69	17
80	80	28
83	84	3
61	61	21
37	37	7
39	40	4
68	68	28
99	99	14
55	55	6
70	70	25
83	83	19
62	62	30
40	40	7
35	37	1
72	72	31
56	83	1
42	43	5
84	99	1
38	40	1
69	70	14
49	49	11
91	92	3
77	81	2
86	88	5
77	78	5
31	31	17
25	25	11
86	87	4
42	42	13
75	75	22
98	98	4
96	96	13
63	63	26
96	97	3
51	51	6
31	32	1
23	24	6
45	49	2
49	50	6
48	49	1
50	51	2
92	92	25
65	65	24
92	95	4
31	41	3
72	74	2
71	72	8
60	61	5
64	64	46
87	88	5
63	90	1
77	77	29
66	66	26
67	67	23
74	74	35
57	57	6
43	43	10
71	71	23
85	85	21
45	56	3
45	45	12
68	70	3
88	88	24
81	81	15
44	44	6
73	73	16
59	60	2
101	101	11
101	102	8
76	77	9
36	36	15
35	35	7
78	78	22
26	48	1
86	86	25
52	53	2
85	86	5
89	89	14
94	98	9
48	48	10
60	60	7
22	88	2
93	93	15
36	37	7
41	41	11
27	27	10
91	91	21
81	91	3
53	55	2
94	94	4
38	92	5
26	26	12
39	39	9
90	90	13
38	44	1
81	82	3
40	44	2
95	95	6
51	52	6
32	32	9
63	75	3
68	69	3
80	81	7
56	56	5
87	87	9
54	54	2
22	22	7
83	90	2
34	35	2
75	76	1
58	58	6
20	20	1
76	76	14
90	91	3
79	79	15
97	97	4
70	71	9
67	72	1
41	42	3
52	80	4
46	47	7
93	94	1
59	59	5
86	89	1
38	38	3
64	65	5
50	55	2
52	52	6
69	71	4
34	34	8
73	74	3
50	50	13
99	100	6
28	86	5
33	34	1
24	25	1
68	71	2
61	62	4
84	84	5
79	86	6
95	97	3
67	68	5
79	84	1
63	64	3
100	100	4
51	83	1
53	53	3
65	66	5
102	102	3
75	78	2
63	67	1
35	36	2
52	78	3
59	61	2
61	81	2
94	99	2
53	54	1
42	62	1
22	46	2
58	59	2
80	86	2
62	63	1
92	93	3
72	75	1
79	81	4
52	83	1
45	46	2
20	22	5
57	86	2
100	101	3
79	80	1
25	26	1
89	93	1
88	89	2
56	81	1
74	75	4
95	98	4
37	38	1
84	86	4
78	79	1
35	38	2
23	23	2
29	29	2
99	101	1
62	81	1
61	88	1
89	90	2
45	57	1
61	63	1
68	76	1
46	46	3
20	55	1
70	76	1
95	99	1
38	39	1
51	87	3
26	39	1
59	64	1
61	87	1
66	67	1
44	45	1
43	69	1
80	82	1
