163	165	3
155	159	4
67	68	1
152	152	3
126	126	2
162	162	6
65	68	1
183	185	1
132	132	1
8	12	8
184	184	12
148	148	3
95	173	3
48	48	6
103	103	4
82	82	5
141	141	3
172	174	1
142	181	2
168	168	6
3	3	4
113	113	7
5	5	4
84	84	3
8	8	12
125	125	8
37	37	4
183	184	3
129	129	11
12	14	8
140	141	6
120	120	8
167	168	7
130	133	1
57	101	2
170	172	3
186	186	4
174	174	5
161	162	5
131	131	2
74	74	3
92	92	2
71	71	6
93	109	3
146	146	5
21	22	3
97	104	5
138	139	2
17	17	3
23	23	2
98	100	2
94	95	2
154	159	4
122	123	5
40	40	11
168	187	7
90	153	3
188	189	7
177	177	7
16	16	8
180	181	5
10	10	9
125	126	6
157	157	1
110	110	6
0	0	2
84	108	3
154	155	1
21	21	4
4	4	9
57	60	1
67	74	4
93	93	8
166	166	3
14	14	2
102	103	3
189	190	1
89	89	10
108	108	8
95	95	7
18	19	1
9	10	1
38	38	4
113	114	5
55	55	3
99	100	1
109	111	2
58	59	1
39	39	4
112	139	2
148	149	2
118	118	2
56	56	2
2	2	2
111	111	5
83	83	2
141	164	6
16	18	2
42	42	2
15	16	1
180	183	1
96	96	4
170	170	3
163	163	1
44	44	2
93	139	2
169	175	8
98	98	2
77	78	1
112	112	3
122	125	5
180	180	3
160	160	5
149	149	4
39	41	1
78	79	2
159	159	3
79	79	6
13	19	1
105	105	7
128	128	2
87	88	2
80	80	1
93	98	1
6	6	5
12	12	2
86	86	2
133	135	1
130	131	1
68	68	1
24	24	2
181	183	1
175	175	2
81	81	4
171	172	2
71	73	1
35	35	4
13	16	1
62	62	1
172	172	4
99	99	6
95	99	1
134	134	1
140	140	1
91	139	1
154	160	8
7	7	1
144	144	6
103	104	2
154	154	3
187	187	4
100	100	1
88	89	1
9	9	2
74	75	3
75	76	1
165	165	2
139	139	2
17	18	2
176	176	1
118	119	2
56	61	1
6	7	3
31	31	3
109	110	1
173	173	4
96	97	1
170	176	5
174	175	2
155	155	2
23	24	1
159	164	1
87	87	2
73	75	2
155	160	3
133	133	2
127	127	2
59	62	4
127	128	5
75	75	1
117	118	2
26	26	1
43	43	1
30	33	3
18	18	3
57	57	2
58	83	2
138	138	1
164	164	1
49	49	1
97	97	3
123	124	2
131	132	1
85	85	1
107	107	1
20	26	1
19	19	2
77	77	1
153	159	1
137	137	1
102	102	1
149	161	2
45	45	1
21	31	3
67	67	2
80	81	1
123	123	1
47	47	1
92	110	1
185	185	1
87	94	1
22	22	2
187	189	2
179	179	1
90	90	1
13	13	1
164	165	1
136	136	1
124	124	1
188	190	1
58	80	1
58	85	1
25	25	1
63	63	2
55	57	1
86	87	1
155	156	1
110	111	1
73	73	1
101	101	1
135	172	1
182	182	1
