24	24	5
21	22	2
64	91	5
97	124	1
138	139	1
96	96	14
152	152	6
108	108	5
58	62	1
31	71	5
69	69	3
12	12	2
136	136	3
105	128	1
15	15	7
45	45	10
7	12	3
100	126	4
19	19	4
8	8	8
98	98	13
70	70	4
105	105	1
100	100	1
108	153	1
32	32	4
18	19	5
133	135	6
101	101	5
32	34	3
8	22	3
66	66	4
84	84	11
21	21	11
85	85	2
120	121	1
151	151	11
4	55	3
10	10	3
122	122	3
144	146	3
87	88	3
64	67	2
38	44	3
104	137	1
95	96	5
50	50	3
26	27	5
110	110	1
20	20	4
49	49	2
109	151	1
40	41	2
131	132	3
139	145	3
38	38	2
92	103	2
36	57	2
62	62	2
83	84	3
115	116	5
104	117	4
114	114	7
78	82	2
94	125	2
65	65	5
121	121	4
57	57	5
61	63	3
63	63	8
120	120	5
100	118	5
73	74	4
75	75	1
150	150	4
45	55	2
5	5	1
106	147	1
42	42	6
55	55	1
33	66	3
20	21	1
111	111	7
94	96	3
7	7	4
103	104	5
43	43	1
135	135	1
133	133	7
16	18	1
113	113	2
11	11	2
37	57	2
27	30	3
33	33	2
127	127	4
42	43	3
118	119	4
35	36	1
13	14	6
44	44	5
39	39	2
142	142	5
63	64	1
17	18	4
9	9	1
41	41	8
95	97	5
139	146	6
77	77	3
35	69	1
11	15	3
80	80	4
104	104	1
35	35	5
104	105	5
101	128	1
112	112	6
146	146	2
115	115	3
74	85	2
93	125	5
62	63	1
54	55	2
18	18	4
37	123	2
86	86	2
109	154	4
3	3	2
74	75	2
107	107	6
153	153	2
138	138	3
4	4	4
106	106	4
72	75	4
144	145	2
52	52	2
131	131	1
143	143	1
84	85	3
51	51	4
107	149	2
77	80	2
37	37	1
14	78	2
32	33	2
92	126	6
140	140	1
64	137	2
34	58	1
103	105	4
25	26	1
129	129	1
25	25	2
141	141	1
62	118	2
16	19	1
9	10	1
40	40	1
16	17	1
102	128	1
133	134	1
109	109	3
116	144	1
113	114	5
37	56	1
36	49	1
47	47	2
87	87	2
29	29	4
78	78	2
124	124	1
118	118	2
90	90	2
109	150	1
82	82	6
139	143	1
83	83	1
64	65	2
55	56	1
28	28	3
16	16	5
30	30	5
11	56	2
34	35	1
127	128	3
13	13	1
79	82	1
116	116	1
68	68	1
112	147	1
10	14	2
108	149	1
74	74	1
36	36	1
134	134	4
92	128	1
6	6	2
101	127	2
103	103	3
92	125	1
11	14	2
5	7	1
137	137	1
98	125	1
26	26	1
23	23	4
119	119	1
79	79	1
11	50	1
38	39	1
81	82	1
147	147	1
41	42	2
117	117	2
15	55	1
100	146	1
93	94	1
67	67	2
27	27	2
132	132	1
96	97	1
124	125	1
52	69	2
92	94	1
117	138	1
57	58	1
130	143	2
94	126	1
105	112	1
48	48	1
130	130	1
47	50	1
73	76	1
140	141	2
100	127	1
110	115	1
92	138	1
132	133	1
