137	137	5
138	141	3
49	107	3
110	110	7
125	132	2
13	13	7
3	3	6
16	38	3
11	11	10
124	125	2
121	121	3
130	130	6
103	103	1
136	138	1
57	57	4
7	10	1
82	86	7
20	20	4
140	140	2
7	41	2
86	86	7
101	101	4
91	134	2
141	141	6
72	75	1
93	93	5
64	72	1
14	14	4
106	106	3
69	69	2
17	17	1
26	26	4
132	140	2
128	129	5
139	141	1
82	84	2
73	73	11
72	74	1
148	148	3
39	50	2
19	19	9
143	143	6
139	139	5
20	22	3
131	131	3
89	89	5
10	112	1
15	106	2
39	54	4
120	121	2
5	5	11
71	73	1
81	81	4
165	166	5
133	134	7
10	15	1
103	132	1
8	8	3
45	48	3
97	99	7
52	57	3
17	22	2
39	39	4
154	154	1
135	136	2
168	168	12
44	44	3
133	133	6
11	111	2
132	132	6
18	18	6
145	145	4
47	47	2
43	43	4
124	124	17
118	165	1
151	152	1
40	54	5
64	64	4
102	102	8
24	25	1
92	92	6
12	12	2
23	23	2
103	142	5
113	167	3
75	75	3
55	55	2
125	142	2
46	46	2
22	157	1
105	116	1
76	79	2
87	87	5
98	98	6
168	169	3
121	122	1
8	9	2
34	34	7
153	154	4
161	161	7
90	90	8
5	25	5
120	120	5
150	160	4
169	169	1
52	53	3
78	78	2
14	110	1
146	147	2
119	144	4
128	168	2
41	50	5
97	97	8
122	130	2
84	84	2
81	82	7
87	88	2
147	148	2
108	138	3
119	119	1
67	70	1
105	105	3
36	36	4
52	52	3
6	46	1
42	43	1
123	124	1
126	126	2
54	54	11
150	152	2
35	35	3
70	75	2
82	83	1
9	9	5
14	155	1
70	70	2
108	137	2
167	168	4
124	140	2
112	114	2
70	71	1
116	116	2
101	102	3
122	122	3
40	40	4
14	111	2
67	67	3
6	6	1
45	47	3
4	4	3
152	154	1
10	47	2
63	63	1
86	88	1
158	163	2
108	108	1
10	10	1
65	77	2
48	48	2
83	83	3
94	103	1
140	144	3
9	21	1
7	7	4
136	136	2
3	16	1
115	116	2
76	76	2
104	104	5
130	151	1
91	91	5
12	13	1
16	157	1
38	38	3
118	160	1
71	71	2
124	139	2
79	79	2
154	155	1
118	150	1
37	37	4
140	141	1
24	24	8
16	40	1
164	165	1
71	76	2
96	96	2
23	24	2
10	25	3
69	70	2
37	38	3
127	130	1
159	159	3
65	69	2
12	24	1
155	155	3
81	85	2
65	65	1
52	130	5
103	104	1
93	94	1
15	15	2
45	46	2
14	15	1
72	73	1
77	87	3
22	22	3
151	151	1
99	99	1
53	53	3
114	114	4
33	33	2
124	134	1
83	90	1
21	21	1
27	27	1
53	55	1
77	77	1
123	123	2
166	167	1
91	93	1
73	91	2
54	107	1
152	153	1
94	94	1
162	162	2
150	159	2
126	127	3
18	28	4
1	1	1
122	165	1
115	115	1
120	146	1
68	77	1
111	111	1
17	19	1
54	156	1
50	51	1
95	95	1
88	89	2
42	42	2
71	75	1
9	12	1
41	42	1
74	108	2
138	138	1
109	109	1
100	100	1
74	75	1
74	74	1
122	131	1
16	54	1
88	88	2
126	151	1
21	24	1
159	160	1
132	136	1
10	14	2
15	43	1
123	139	1
152	152	1
98	99	1
114	170	1
47	48	2
75	92	1
110	116	1
117	117	1
16	106	2
96	97	1
127	127	1
155	161	2
71	90	3
67	68	1
95	148	2
85	85	1
41	41	1
78	85	1
56	108	1
149	149	2
161	170	1
36	37	1
117	118	1
119	120	1
68	68	1
99	100	1
105	106	1
81	93	2
95	147	1
120	145	1
109	110	1
45	45	2
95	99	1
128	128	1
3	4	2
133	135	1
134	134	1
0	0	1
