9	9	6
170	170	3
63	65	3
156	156	1
93	93	2
160	162	2
51	51	2
152	152	5
7	8	4
90	90	6
154	154	3
91	91	4
115	116	1
115	117	4
94	108	3
119	120	1
70	71	4
167	167	3
12	12	3
137	163	5
105	105	2
55	55	3
25	25	6
78	79	1
49	49	5
108	108	1
68	122	2
80	80	3
15	15	5
17	18	4
148	148	2
103	120	2
4	4	1
136	136	2
149	152	1
118	118	5
112	118	3
44	45	1
169	170	2
57	58	1
161	162	2
88	98	1
112	116	2
128	133	1
89	89	3
84	85	1
42	42	2
102	103	1
15	16	5
142	142	4
46	49	1
19	22	2
162	162	1
152	153	2
127	165	1
25	145	5
101	103	3
76	150	4
159	159	2
105	156	3
124	124	2
90	119	1
92	92	1
62	63	3
112	113	1
111	111	2
34	34	1
9	160	1
37	37	3
149	149	1
34	35	1
146	146	5
97	116	1
65	83	1
127	128	1
56	66	2
42	45	4
72	127	2
4	6	1
1	3	2
7	7	4
83	84	1
90	114	2
84	91	1
82	82	3
158	158	2
5	5	5
70	80	2
151	151	1
67	67	2
68	69	2
8	8	1
110	114	1
130	130	1
131	136	3
23	23	1
84	84	7
50	144	1
74	74	1
73	73	1
144	145	1
90	96	2
13	18	3
169	169	2
140	140	2
12	16	2
25	148	1
8	160	4
100	114	1
38	43	1
131	132	1
0	0	2
76	105	3
155	155	4
11	11	4
118	119	2
161	161	2
157	157	4
13	15	2
33	33	1
17	17	4
90	111	2
110	110	4
104	104	3
33	36	2
40	40	3
120	120	2
39	39	12
86	86	4
96	96	3
145	145	3
117	120	2
102	115	4
135	136	2
150	150	3
19	19	1
27	27	1
65	65	4
137	137	1
76	76	1
105	121	1
70	70	2
90	92	1
85	85	1
12	18	2
75	124	1
105	125	3
75	75	2
100	100	2
116	117	2
127	136	4
25	73	1
54	54	2
83	83	1
41	96	1
81	95	1
163	164	3
101	105	3
158	160	1
7	73	2
135	135	4
6	6	1
101	101	1
69	69	1
13	13	1
138	149	1
26	72	1
25	27	3
138	138	1
48	150	3
120	121	3
87	87	2
38	49	1
155	161	1
90	91	2
65	67	1
38	108	2
24	26	1
35	35	1
3	6	2
47	47	4
160	160	2
125	125	2
43	170	1
125	136	3
49	50	1
153	153	3
14	15	3
134	135	1
47	57	1
0	1	1
91	92	2
127	127	3
44	44	1
133	134	1
16	16	2
88	88	2
72	82	1
118	121	1
47	139	1
165	165	1
36	36	2
77	143	1
113	113	2
3	50	1
83	93	1
143	143	3
139	140	1
72	72	1
141	141	2
53	53	1
2	2	1
68	68	1
71	105	1
93	121	1
41	41	1
51	146	1
38	38	2
132	134	2
38	46	1
58	93	1
107	107	1
10	10	1
133	136	1
85	86	1
158	167	1
103	103	2
102	102	1
158	159	1
77	77	1
164	164	1
3	4	1
78	78	1
