74	74	5
185	185	8
239	241	1
23	23	2
96	96	2
201	201	11
19	19	7
51	51	5
201	203	2
196	196	13
78	78	6
208	209	2
178	180	4
221	222	4
164	164	6
64	64	6
236	244	1
228	229	1
220	220	4
194	194	4
2	2	2
53	53	11
186	197	1
38	42	2
227	228	1
215	215	4
240	241	3
115	115	6
52	52	4
71	81	1
187	188	1
17	19	1
104	105	3
22	23	1
36	36	5
2	8	1
121	121	2
176	176	6
28	28	5
70	71	5
49	60	4
245	245	3
189	189	1
195	195	1
204	204	2
83	83	5
202	202	5
88	88	1
22	22	3
50	50	1
88	101	1
223	224	4
6	6	3
47	47	3
233	234	3
63	63	5
117	118	1
48	48	2
116	117	2
31	33	2
32	59	1
197	197	5
159	159	3
167	167	5
80	81	2
112	112	4
87	101	1
175	175	8
218	219	1
11	12	1
158	158	2
45	45	4
21	21	2
113	113	4
175	178	1
203	203	5
14	37	3
100	115	1
109	109	2
56	56	4
145	145	2
93	93	2
84	85	2
244	244	1
232	232	2
79	81	3
114	114	4
37	37	8
58	58	3
10	10	3
171	171	2
24	24	5
174	198	1
108	108	2
102	104	2
176	177	8
1	1	2
107	107	1
153	153	3
78	81	2
105	105	3
71	72	1
208	208	5
57	57	11
180	182	4
166	167	2
11	11	4
236	240	6
5	5	2
7	46	3
166	166	1
173	173	1
81	81	2
191	191	5
217	219	1
80	84	2
181	181	6
24	25	1
62	62	3
233	233	2
111	225	2
59	59	2
7	8	1
44	44	6
80	82	1
170	170	2
26	26	6
87	88	2
62	72	3
116	204	3
98	98	6
234	234	3
160	160	2
236	236	2
73	73	6
28	36	2
80	80	1
99	99	1
117	161	2
186	186	3
216	216	1
172	172	1
41	42	1
151	151	5
116	116	2
162	162	3
213	213	1
33	33	6
165	166	4
235	235	5
108	109	4
205	205	6
60	60	3
154	154	1
77	77	2
61	61	1
27	28	1
188	188	3
31	31	3
198	198	4
168	170	1
16	36	1
230	230	2
27	27	1
178	178	3
34	34	2
163	164	1
184	230	1
161	161	1
9	10	2
149	149	1
177	177	5
9	13	2
25	25	3
18	19	2
215	216	3
178	196	1
72	76	3
224	226	2
219	219	7
21	22	3
231	231	6
79	80	3
205	220	2
71	75	1
70	70	3
120	144	1
120	120	1
94	95	1
106	106	2
227	227	2
69	69	3
82	82	2
32	32	1
34	56	2
45	59	2
183	230	1
150	150	3
211	211	1
39	39	1
218	218	1
57	59	3
60	61	2
199	199	6
44	63	3
228	228	3
242	242	2
41	41	1
85	85	9
241	243	2
67	68	4
222	223	1
193	193	2
43	43	3
76	80	1
68	68	1
187	187	3
206	210	1
63	65	1
184	231	1
89	90	1
237	237	3
206	211	1
204	219	2
17	17	1
98	100	2
95	95	2
182	182	3
154	155	1
241	242	1
200	200	2
50	56	1
155	155	1
175	176	1
91	91	3
27	40	3
240	244	2
169	216	1
29	36	1
207	207	1
224	224	3
165	165	1
65	65	3
29	29	5
63	88	2
183	183	5
107	158	4
158	208	1
46	47	1
31	32	1
72	72	1
168	168	1
198	200	4
74	106	2
188	192	1
242	243	1
74	75	1
184	184	4
207	208	1
37	44	1
39	41	1
190	191	1
119	119	2
117	117	3
88	89	1
15	31	1
87	87	3
106	107	1
35	35	2
14	39	2
169	169	1
213	214	2
223	223	3
89	97	1
205	211	1
102	113	2
105	106	1
71	71	2
47	48	1
46	46	1
207	209	1
209	209	3
4	4	1
8	8	1
180	196	1
81	85	1
152	152	2
218	243	1
226	226	1
55	55	1
112	114	1
220	221	1
99	103	1
111	111	1
235	236	2
48	49	1
34	35	1
96	97	1
203	219	3
18	18	1
78	79	4
74	76	2
67	82	2
20	20	1
7	7	1
64	87	1
30	30	3
113	116	1
16	16	1
212	212	1
163	163	1
180	181	1
185	186	2
45	57	1
118	220	1
210	210	2
240	240	1
56	58	1
49	49	1
46	145	1
85	86	1
85	87	1
160	161	1
247	247	1
67	84	1
54	54	1
167	169	1
9	9	1
