5	6	4
73	76	2
58	59	4
39	41	4
23	23	8
26	27	4
60	61	7
7	51	2
70	70	4
53	53	16
33	33	18
42	43	5
67	67	7
53	54	4
0	0	18
64	64	9
49	49	5
66	66	9
41	41	5
65	65	13
39	40	6
25	25	4
46	46	14
48	48	6
27	28	6
61	61	12
71	72	2
20	20	18
76	76	7
1	1	20
13	13	8
22	22	15
48	49	4
56	60	2
69	69	5
52	53	3
19	39	3
3	31	5
26	26	8
55	55	5
31	31	6
35	68	1
36	36	2
29	29	13
72	72	10
24	25	3
37	37	10
1	2	7
6	10	1
42	42	5
14	73	3
40	40	9
49	50	2
67	68	3
2	3	3
59	59	5
46	47	2
24	24	8
3	5	1
67	77	1
19	51	2
5	5	5
20	31	2
63	63	6
32	32	6
5	24	2
25	26	2
60	60	7
9	10	3
38	38	7
51	56	1
52	52	9
3	3	10
10	10	11
74	75	8
69	70	1
7	8	1
68	70	1
4	4	1
62	62	8
71	74	2
22	23	1
5	10	2
54	54	8
10	11	2
41	44	1
35	35	5
2	2	6
56	56	10
73	75	1
74	74	2
71	71	2
27	57	2
32	62	4
75	75	4
34	56	3
76	77	2
44	45	6
19	19	6
6	6	3
37	38	1
73	73	7
5	12	3
47	47	9
21	63	4
20	24	1
9	9	7
7	7	2
27	61	1
44	44	3
34	34	7
36	39	3
29	30	4
11	12	2
32	33	2
29	41	1
57	75	1
0	1	1
60	65	2
77	77	3
18	18	6
11	11	4
23	40	1
58	77	1
28	40	1
35	37	1
23	76	2
57	57	5
21	21	4
27	27	6
6	57	1
43	43	3
36	38	1
55	56	4
13	43	2
50	51	2
30	72	1
6	7	1
47	54	1
35	39	1
73	74	1
22	37	1
28	28	3
0	2	2
66	67	3
34	60	2
1	25	4
45	45	5
39	59	2
38	39	2
23	68	1
40	47	1
8	9	2
63	65	1
39	39	3
66	75	2
51	51	7
36	37	2
8	8	3
62	64	1
23	24	1
30	68	1
18	19	1
11	62	2
43	44	3
12	12	3
30	30	2
57	58	2
20	21	1
10	29	1
45	50	1
62	63	1
21	23	1
39	58	1
10	12	1
14	14	2
25	65	1
4	52	1
21	32	1
8	75	1
70	72	1
32	61	1
32	76	1
6	72	2
20	34	2
68	69	1
53	55	1
33	34	5
8	13	2
19	20	1
65	66	2
35	63	1
66	69	1
51	55	1
37	69	1
28	49	1
6	50	1
22	48	1
8	59	1
48	52	1
61	65	1
5	30	1
58	58	1
5	7	1
0	68	1
0	25	1
