25	25	13
166	166	32
111	112	6
31	31	17
86	185	4
32	32	12
158	189	5
106	109	3
63	76	2
160	160	6
114	141	3
13	13	9
147	147	11
189	189	15
20	20	14
180	181	8
89	99	4
75	80	3
70	71	3
47	47	26
182	183	5
168	168	13
24	24	8
118	118	18
156	156	6
154	154	23
8	8	11
27	31	3
163	163	12
167	167	14
172	173	4
109	120	2
6	48	4
97	98	7
155	155	18
55	121	5
110	110	27
22	22	11
17	17	14
102	102	20
139	139	6
27	27	9
7	7	14
90	91	7
56	64	9
131	131	11
81	81	9
144	144	13
85	112	3
97	97	6
186	186	8
90	90	10
141	141	25
152	152	26
140	140	14
55	56	3
58	60	2
135	135	5
40	41	9
119	119	15
66	166	6
104	104	14
58	68	1
0	188	3
93	187	3
42	44	7
26	26	10
164	164	19
146	146	16
151	151	23
34	34	6
129	160	3
10	10	6
105	107	7
185	185	21
44	45	6
13	14	6
21	21	12
147	148	4
86	86	14
74	74	22
11	36	2
171	171	7
30	30	5
123	154	1
11	11	10
126	128	4
55	66	1
148	150	3
27	97	2
92	92	16
108	109	7
66	169	2
120	120	11
75	76	8
9	21	2
60	60	9
101	189	2
87	87	14
58	119	2
62	62	6
124	125	8
149	149	14
42	43	6
188	188	9
59	59	11
184	189	3
89	89	3
123	124	2
53	53	15
178	178	24
99	99	14
65	68	6
3	3	16
90	92	4
46	46	13
84	84	32
80	80	14
16	16	17
84	126	1
187	187	5
117	117	7
1	1	14
99	100	4
27	30	4
181	182	3
24	91	6
73	73	21
94	94	5
71	75	6
134	134	16
162	162	3
1	99	2
72	155	4
107	107	7
70	70	7
128	128	6
134	135	14
36	36	14
42	42	13
75	75	11
165	165	13
95	96	4
77	82	2
181	181	14
95	114	2
12	13	2
77	77	14
119	120	5
14	14	12
135	137	2
18	18	10
12	36	3
142	143	5
184	184	13
163	176	3
177	177	10
161	172	1
119	142	3
82	118	3
73	121	6
0	18	2
114	115	2
77	79	3
10	11	8
57	119	4
106	106	14
10	25	5
114	114	8
97	114	1
55	70	1
5	11	2
11	12	10
43	43	7
93	93	10
179	179	12
52	52	6
23	23	3
17	98	2
91	147	2
173	173	20
113	115	6
76	77	1
109	114	2
47	62	2
133	133	13
63	150	1
126	127	2
170	170	13
71	71	8
101	101	16
13	30	1
92	155	2
17	18	15
108	108	18
82	114	4
45	45	19
118	119	2
9	32	3
101	158	3
63	63	10
169	169	10
44	44	12
113	113	19
37	37	11
190	190	2
154	156	1
131	153	2
39	39	28
121	122	7
77	78	4
142	142	9
14	15	6
126	126	5
158	159	9
19	20	3
121	121	2
159	159	4
163	165	1
105	105	11
102	111	6
168	169	2
95	95	18
148	148	9
15	16	6
101	157	3
171	172	12
55	55	12
73	74	3
138	138	10
74	75	4
100	188	3
15	15	5
111	111	4
130	130	4
115	115	7
110	111	2
84	85	5
67	67	5
83	83	15
158	188	3
177	179	3
82	108	6
147	149	1
71	115	3
86	104	4
41	41	10
12	14	2
20	27	3
128	186	4
100	100	14
68	68	18
171	174	1
72	72	11
68	69	9
59	62	2
95	98	1
133	184	1
94	95	2
153	153	8
48	48	8
25	26	2
63	64	3
127	127	7
40	40	15
34	35	10
67	68	3
161	162	3
57	57	14
59	61	2
60	64	7
23	24	4
109	109	20
169	175	4
136	138	2
138	139	5
27	34	3
106	157	2
102	110	1
175	176	2
89	90	3
183	184	6
65	65	12
84	187	6
33	33	3
85	85	8
91	161	2
182	182	5
98	128	1
105	108	2
0	0	13
124	165	3
139	140	10
130	160	3
180	180	12
48	54	1
15	17	1
1	2	2
116	116	6
103	103	2
140	159	1
139	159	4
150	173	1
179	180	10
98	115	5
72	149	5
64	64	11
112	112	7
41	113	5
125	125	24
94	154	2
145	145	12
79	79	4
12	25	3
112	113	4
9	9	8
16	17	11
120	121	4
122	122	9
183	183	7
165	173	1
137	139	3
87	95	3
30	41	2
122	149	4
94	104	3
30	31	6
4	5	4
156	157	6
41	42	3
24	46	1
157	158	4
38	38	10
12	12	8
177	181	3
125	141	1
53	54	11
175	175	4
103	156	6
188	190	3
35	35	8
37	38	6
103	105	3
89	93	2
129	129	13
154	164	3
132	135	4
47	58	1
33	34	3
135	156	2
52	53	2
20	26	1
96	98	2
161	175	4
159	160	2
16	20	2
75	81	1
29	30	2
116	119	1
157	157	7
6	6	9
79	83	1
155	161	2
91	175	2
149	163	1
26	29	1
140	141	1
143	143	10
20	25	7
78	79	6
98	98	7
46	47	3
63	67	1
11	13	1
85	88	1
93	107	3
56	56	11
102	103	6
123	123	9
62	83	4
97	113	1
130	131	6
165	170	2
3	47	2
137	137	10
131	175	1
124	124	2
65	67	2
0	1	7
13	15	1
150	150	6
29	29	9
103	190	2
100	108	4
5	5	5
153	155	4
185	186	3
17	47	1
136	136	6
52	56	1
91	95	5
122	146	1
4	4	3
187	188	1
123	148	1
101	113	3
117	118	2
71	72	4
132	132	3
100	110	3
64	65	4
88	88	8
106	130	3
174	180	1
178	180	3
83	87	1
28	30	3
169	171	2
7	26	1
178	179	2
139	176	1
126	129	4
68	79	1
126	187	3
128	134	2
54	54	5
93	169	1
86	96	4
175	177	6
88	127	2
101	102	4
95	113	1
184	185	5
72	76	1
160	161	5
108	156	1
155	156	2
158	184	1
13	81	1
101	103	2
78	78	8
176	176	4
9	11	1
68	70	2
21	26	2
104	107	2
95	125	3
3	8	1
1	39	1
32	37	3
38	48	2
66	68	1
138	175	1
142	146	1
93	94	6
96	96	3
89	95	1
172	174	6
159	162	1
161	161	6
126	186	1
8	10	5
18	19	1
127	147	2
122	123	4
110	120	2
127	128	3
83	108	3
128	129	1
22	25	2
73	116	1
66	66	7
104	130	1
91	92	3
158	158	5
124	153	2
109	157	3
171	173	1
174	175	3
147	162	1
54	85	3
166	167	3
135	136	2
164	170	3
156	161	1
132	179	2
112	126	1
158	164	1
151	158	2
134	136	5
113	114	3
189	190	8
9	10	2
2	2	3
53	55	1
104	115	2
49	49	2
132	134	3
172	172	3
39	40	8
81	82	2
120	148	5
142	176	3
71	73	1
173	174	2
133	190	1
84	162	1
11	14	1
111	185	1
12	15	2
111	126	1
165	167	2
60	61	1
9	35	1
131	137	1
19	19	10
147	174	2
107	108	1
47	54	4
57	58	1
90	93	4
45	46	3
43	44	6
84	123	2
91	91	6
56	57	4
28	81	1
86	98	5
84	190	2
106	107	2
20	21	4
11	25	1
26	96	1
105	171	3
66	67	1
43	45	2
137	138	3
141	150	1
151	152	1
146	161	3
132	133	1
142	180	2
157	161	3
160	171	1
154	155	3
149	153	1
104	156	2
131	136	2
15	19	5
176	177	2
21	22	2
134	138	1
89	100	1
55	58	5
15	36	1
76	76	7
90	187	3
141	180	1
119	128	1
74	106	1
82	82	5
84	185	1
91	169	2
174	174	5
99	111	1
61	61	2
109	110	4
53	68	1
28	73	3
82	83	3
176	178	1
135	138	1
54	111	2
124	186	2
168	170	2
79	81	2
1	4	1
110	113	1
8	23	2
19	21	1
69	80	3
48	53	1
111	127	1
146	147	2
79	80	1
13	28	2
62	63	1
177	178	1
59	60	4
47	53	1
31	33	1
93	95	2
17	44	1
58	58	3
169	176	1
101	154	2
136	188	1
163	177	2
14	53	1
55	65	4
32	35	2
3	4	2
159	171	2
87	96	1
28	28	3
176	179	2
131	176	1
132	188	1
6	29	1
14	26	1
187	190	3
16	18	2
92	93	1
149	150	2
104	132	1
104	123	1
12	31	2
58	59	2
71	74	1
37	39	1
126	188	1
57	151	2
6	83	1
93	154	1
91	94	1
28	29	2
25	30	1
74	121	1
143	144	1
188	189	2
82	117	2
156	158	1
167	168	2
148	149	1
168	171	1
131	158	2
170	171	1
161	189	1
30	33	1
169	177	1
165	166	1
128	159	1
19	26	2
90	123	2
21	23	1
55	115	1
89	151	1
105	148	2
99	129	1
92	169	1
27	96	1
11	29	1
130	134	1
95	97	1
83	84	1
153	154	1
95	102	1
95	115	1
104	105	1
28	31	1
164	168	1
84	87	1
141	174	1
16	26	2
158	185	1
88	89	1
62	151	1
155	160	1
36	37	1
163	167	1
35	36	1
34	41	1
76	79	1
87	107	1
26	28	1
38	39	1
46	119	1
88	167	1
186	188	1
48	110	1
74	117	1
8	29	1
27	28	1
1	20	1
8	25	1
152	153	1
129	130	1
24	73	1
125	126	1
166	175	2
165	190	1
0	149	1
41	169	1
77	110	1
