26	33	1
103	103	13
31	31	23
46	46	14
77	77	7
44	44	13
51	52	3
48	48	6
40	40	3
96	96	9
104	104	10
35	35	6
96	101	3
52	53	2
28	66	3
85	85	5
79	79	9
97	97	16
78	106	2
87	87	7
53	61	4
56	56	16
71	90	3
90	90	9
27	27	11
104	105	3
99	99	13
37	37	3
32	32	6
23	62	2
42	42	9
20	89	3
23	23	12
101	101	11
91	91	7
42	96	5
53	53	10
20	20	1
22	24	5
70	87	2
69	69	12
93	94	3
20	22	2
54	56	1
47	47	31
73	73	14
101	102	9
25	25	8
53	103	3
55	64	4
76	76	17
64	64	8
72	72	1
63	63	13
61	61	9
95	95	24
40	42	2
65	65	7
50	50	15
33	33	12
58	58	9
66	66	7
68	68	8
93	93	8
30	37	3
39	39	11
34	34	13
78	78	3
32	102	4
30	30	10
71	71	12
75	75	14
30	31	4
82	83	2
86	87	5
52	52	8
78	79	6
57	63	1
90	92	2
96	97	6
52	104	5
97	98	5
31	34	2
59	59	7
49	49	8
28	28	4
85	86	4
38	38	4
33	34	4
21	21	5
54	73	1
107	107	2
62	62	7
89	89	10
51	51	19
50	56	3
40	50	4
41	41	7
98	98	11
97	99	3
88	88	9
40	101	1
26	26	9
57	57	13
68	78	4
36	38	3
25	26	6
79	80	5
58	60	1
67	67	2
80	80	10
61	62	1
64	65	6
99	100	1
21	83	1
34	55	3
74	74	3
34	91	5
53	54	4
70	70	8
102	102	3
105	105	8
59	60	2
50	58	4
89	90	1
47	49	4
100	100	4
106	107	2
82	82	8
45	46	7
81	81	14
27	37	2
23	105	1
55	55	7
81	82	4
72	73	2
83	83	3
48	102	2
70	72	5
38	39	1
25	28	2
86	86	8
41	100	1
22	81	4
56	57	4
23	24	2
70	71	10
66	67	3
95	100	2
60	60	5
39	40	4
101	106	5
51	56	1
94	94	9
29	29	6
21	85	3
65	72	3
22	47	3
84	84	4
48	94	3
54	57	2
37	66	2
24	59	3
44	45	2
90	91	2
72	78	1
49	87	4
62	81	5
81	85	1
36	36	8
48	56	2
31	91	3
24	37	1
48	49	1
42	97	1
45	45	4
65	66	4
54	54	8
24	24	1
54	105	2
55	56	1
82	84	2
50	51	5
62	63	3
61	102	1
81	87	2
41	42	2
34	51	1
54	55	1
50	59	2
50	57	1
79	106	2
106	106	4
27	69	3
38	48	2
54	104	2
76	77	1
75	76	1
92	93	6
27	28	2
35	58	3
84	100	1
34	96	4
93	100	1
24	107	1
25	59	1
71	72	3
23	63	2
39	44	1
53	68	1
42	95	2
37	50	1
34	104	1
53	58	1
80	81	1
83	85	1
78	87	1
46	49	1
43	52	1
45	50	1
53	56	1
81	100	1
28	29	1
40	41	1
55	65	1
29	30	1
23	56	1
43	64	1
32	92	1
37	93	1
91	105	1
22	71	1
36	62	1
25	29	1
80	103	1
