48	51	3
29	29	3
9	10	3
71	71	6
57	58	3
75	75	2
38	38	6
9	9	10
49	55	2
137	137	7
8	9	3
34	34	2
114	132	3
16	16	9
123	124	8
100	100	6
154	154	3
103	105	2
55	57	2
79	79	5
11	11	8
24	27	3
44	44	1
10	10	4
62	62	8
37	37	2
2	3	2
146	146	7
148	148	2
93	94	1
90	90	2
128	128	7
94	94	6
130	130	8
82	83	2
30	30	2
97	98	2
127	127	7
43	43	10
77	79	5
80	80	3
152	152	3
71	72	2
143	143	2
128	129	2
129	130	2
4	4	3
105	105	2
53	53	6
134	134	7
22	24	3
102	102	9
20	20	6
116	117	1
51	53	6
136	138	1
72	105	1
33	33	2
76	102	4
5	15	4
119	119	3
68	68	4
86	86	7
13	13	3
29	30	2
114	117	4
108	108	12
78	78	4
147	148	5
104	104	3
49	49	6
92	92	4
139	139	2
47	49	3
138	139	1
65	65	10
130	147	1
39	39	1
100	101	3
120	122	1
5	8	3
147	149	1
17	18	3
111	111	2
124	128	3
37	39	1
98	98	6
31	32	2
19	21	3
112	112	6
32	32	4
145	145	7
28	30	5
55	65	1
73	73	3
21	21	4
149	149	13
5	5	6
38	39	1
118	119	8
146	148	3
41	43	3
104	105	2
96	96	7
63	67	3
39	62	3
19	19	10
114	114	1
101	102	4
147	147	5
53	54	3
77	82	1
9	12	1
32	33	2
153	153	3
96	97	6
120	147	3
25	25	3
48	49	7
75	115	3
115	115	1
26	37	4
87	87	4
117	118	1
79	80	3
53	68	1
145	146	2
13	14	2
72	76	3
102	103	3
117	117	11
109	110	1
23	23	3
103	104	2
15	15	2
135	135	2
123	123	7
83	83	4
36	36	3
22	22	3
140	140	2
72	72	7
40	40	5
97	100	4
72	86	3
101	101	1
14	14	7
106	106	3
74	127	1
95	96	1
129	129	6
7	7	3
114	118	1
33	34	5
150	151	1
26	27	2
109	112	2
142	143	3
46	46	3
49	52	2
50	51	1
18	18	2
98	99	3
39	64	3
69	69	9
42	42	6
50	50	2
77	78	3
132	132	3
151	151	2
105	106	1
31	31	3
123	127	2
6	6	3
19	50	2
10	11	2
109	109	3
136	136	2
50	68	1
66	80	2
33	35	2
120	120	8
134	135	2
108	109	1
73	79	3
17	17	3
42	43	2
3	3	2
126	127	3
56	64	1
93	93	2
130	131	1
110	110	5
121	121	1
86	118	3
26	26	1
138	146	2
132	136	1
111	112	5
131	131	4
67	67	1
146	149	3
149	150	1
53	55	1
16	17	1
84	85	1
99	99	1
153	154	2
100	102	2
85	93	1
98	101	2
110	111	1
58	58	2
54	54	1
144	151	1
65	67	1
85	118	1
93	95	1
121	128	2
67	81	2
52	70	2
37	38	1
41	42	1
140	146	1
84	84	1
85	85	2
103	103	2
122	122	1
118	118	1
74	74	1
75	79	1
30	32	1
141	141	1
24	24	2
3	5	1
40	46	1
95	99	1
72	136	2
138	138	1
142	142	2
43	45	2
111	113	2
80	81	1
83	84	1
76	76	2
