145	158	9
39	39	3
103	105	9
126	133	2
95	95	4
12	43	3
28	30	1
17	25	5
86	88	2
12	13	5
118	134	3
17	17	5
35	35	5
153	153	8
106	135	2
111	111	4
107	107	16
145	150	2
8	10	2
81	81	12
123	158	3
45	45	13
47	47	5
108	112	10
48	51	3
146	157	3
35	48	2
53	53	4
85	85	7
131	131	3
94	94	8
87	87	12
41	42	7
67	67	9
71	153	2
1	1	6
73	73	7
28	28	10
1	2	3
3	8	2
34	41	5
106	106	5
126	141	2
49	49	5
33	36	5
34	34	15
117	117	6
122	122	8
123	136	5
47	51	1
149	149	6
143	145	2
72	91	1
124	125	3
9	12	2
105	105	4
123	123	11
142	142	3
140	156	5
29	30	5
79	92	1
64	67	2
101	115	2
140	142	2
4	4	13
97	97	13
105	116	3
135	139	4
24	25	8
93	93	8
16	17	3
110	113	2
63	63	7
153	159	2
110	110	3
99	99	6
33	40	1
135	135	11
87	94	1
66	66	11
128	138	1
96	96	3
80	89	1
67	71	1
118	118	3
16	121	2
51	51	4
24	24	3
88	89	1
15	15	7
128	156	2
128	128	3
109	109	7
18	124	2
122	156	3
118	119	1
37	37	6
37	43	1
148	148	11
36	39	4
41	57	2
137	141	2
21	37	4
98	98	2
113	114	2
103	103	9
91	91	8
80	88	5
155	158	2
15	29	3
108	131	2
127	127	13
101	101	3
146	146	1
7	45	4
122	123	1
129	129	7
141	151	1
151	151	5
143	143	8
5	5	9
1	9	7
69	70	6
130	143	2
78	78	4
71	150	1
36	37	6
69	69	7
152	154	6
79	81	3
1	20	4
124	124	3
36	36	4
1	11	4
84	95	4
16	81	3
9	10	2
83	128	2
101	111	1
113	131	5
66	68	1
14	14	1
110	111	1
126	126	7
128	143	2
18	31	1
84	84	6
11	11	3
150	150	9
112	118	3
79	79	7
79	101	1
38	39	3
146	159	3
75	78	3
96	107	1
126	127	3
18	127	2
18	84	2
106	107	3
0	9	1
129	130	13
154	155	5
140	140	9
92	103	4
29	29	8
88	88	9
104	109	1
143	147	1
70	71	5
156	156	3
1	8	1
144	144	7
138	151	1
14	16	1
79	134	1
96	110	5
9	9	4
40	40	6
125	136	5
130	130	1
9	42	2
75	84	3
94	95	3
20	20	7
142	144	2
76	78	3
90	90	2
157	157	3
155	155	2
31	31	6
96	98	1
128	154	2
146	155	3
123	138	3
119	119	8
122	139	1
62	70	1
124	142	3
40	47	4
141	154	5
26	26	4
100	100	5
77	77	2
30	30	4
132	134	2
93	108	1
97	119	5
119	120	2
67	150	1
3	3	7
68	68	5
149	150	3
154	154	2
140	155	4
66	69	7
33	34	4
97	101	4
32	70	2
131	133	3
2	18	4
3	53	2
133	135	1
95	105	3
146	156	3
7	7	1
132	142	5
7	27	2
61	67	2
72	89	1
147	147	7
63	87	2
79	102	1
112	114	5
12	12	10
5	7	1
145	155	3
118	130	2
100	101	1
44	49	2
42	43	2
10	13	2
83	84	1
142	145	1
140	152	1
137	138	9
2	9	2
136	136	6
125	126	3
117	118	1
41	41	10
15	27	2
114	114	3
51	90	1
0	18	1
146	147	4
132	132	9
127	139	3
34	38	2
132	133	4
52	52	3
50	50	3
54	54	2
138	141	3
51	52	2
74	74	3
3	49	7
55	126	4
111	116	2
80	81	1
45	54	5
8	9	1
38	57	4
11	107	4
152	152	4
75	75	2
27	27	4
19	19	4
5	47	1
6	10	2
151	154	1
6	6	7
112	113	4
20	55	1
137	137	4
150	155	2
153	155	3
95	96	2
114	126	2
38	41	1
42	42	5
86	92	2
22	22	4
34	53	3
134	134	6
38	38	4
126	132	2
138	138	3
34	54	3
73	104	3
76	76	1
48	52	3
2	20	1
25	25	3
23	23	1
105	120	2
13	13	6
104	104	4
116	117	4
86	105	2
56	56	1
155	157	2
43	46	3
2	8	3
44	44	3
113	116	2
71	71	1
98	104	1
70	70	2
141	153	3
34	52	3
139	139	3
46	46	4
66	70	2
20	21	4
1	5	3
0	126	1
3	15	2
65	66	1
0	1	2
21	32	1
75	97	2
127	135	2
70	154	2
56	71	2
18	18	1
126	138	1
50	54	2
34	37	2
80	80	1
11	15	3
154	158	1
122	128	2
22	33	7
55	55	1
86	102	2
27	29	2
62	67	1
6	7	6
92	105	2
75	98	1
39	43	2
101	118	2
79	89	2
128	131	1
125	125	1
41	44	3
25	98	2
108	108	3
79	85	2
20	36	1
8	8	3
16	30	1
112	131	2
116	132	1
53	71	1
87	99	1
23	28	1
50	61	3
37	38	1
111	118	2
134	141	1
69	73	1
133	147	4
119	137	1
75	80	1
136	157	4
15	54	3
115	115	3
75	99	1
84	86	3
111	128	1
92	92	3
38	40	1
131	139	3
29	31	1
16	16	3
138	139	2
70	82	1
40	41	5
69	84	3
8	44	1
152	153	1
120	120	2
82	82	6
10	10	2
118	121	2
89	89	3
50	51	1
86	86	1
86	101	2
9	36	2
66	71	1
145	154	4
93	98	1
128	141	1
128	132	2
65	69	3
11	103	1
16	132	2
81	90	4
100	107	2
11	12	2
0	17	2
28	52	2
17	124	1
32	32	2
4	48	1
87	88	2
119	133	1
81	91	1
69	121	2
57	57	1
124	137	2
5	98	2
41	46	1
113	113	3
93	115	2
21	21	2
26	27	5
62	62	2
6	16	1
98	103	2
25	42	2
0	33	1
100	111	2
47	48	2
131	147	3
88	93	2
69	88	2
47	92	1
111	117	1
0	0	1
3	10	1
36	52	2
108	137	1
17	121	1
7	29	2
77	78	2
12	15	1
145	145	1
142	153	1
80	133	1
92	110	1
107	108	2
64	64	2
19	126	1
76	80	1
116	116	2
63	121	1
125	140	1
89	90	1
10	106	1
32	33	1
84	99	2
10	14	3
112	125	1
82	91	2
55	56	1
31	33	1
78	79	1
75	77	2
138	145	1
133	136	1
122	124	2
134	135	2
95	112	1
128	129	1
109	113	2
108	120	2
93	105	1
31	49	1
141	141	2
103	133	3
27	45	1
82	83	1
83	110	1
21	22	2
150	157	1
21	35	1
133	133	2
83	83	3
3	22	2
0	2	1
142	154	1
71	146	2
114	116	1
94	110	1
52	55	1
35	36	2
135	136	1
151	152	2
99	100	1
130	141	1
23	27	1
54	55	1
93	94	1
112	112	1
101	119	1
56	83	1
115	137	1
100	116	1
55	57	1
111	129	1
17	28	1
98	100	1
77	79	1
33	39	1
95	106	1
21	48	1
122	132	1
125	156	1
124	138	1
33	33	1
66	116	1
63	64	1
63	122	1
14	17	1
148	155	1
18	33	1
