107	107	5
118	118	4
66	66	3
123	125	6
45	45	16
41	41	11
154	154	11
58	58	1
110	111	2
33	58	2
134	134	7
19	19	3
64	65	3
127	127	9
97	97	3
39	39	11
43	45	1
15	15	5
14	20	6
71	150	2
81	81	8
71	71	4
13	13	9
45	47	6
12	12	2
30	30	7
5	18	2
152	152	11
34	34	5
141	142	4
15	16	4
115	115	2
102	102	3
17	18	4
79	79	10
108	108	5
152	153	1
92	98	3
145	145	6
43	43	6
135	135	5
36	79	5
116	116	8
149	150	7
120	145	3
28	28	2
111	111	4
70	70	5
76	76	5
85	85	1
127	137	7
10	11	1
42	42	6
101	101	3
38	38	3
56	58	1
93	93	7
10	10	3
100	145	3
46	54	3
99	99	3
69	69	3
30	31	2
108	127	2
92	92	8
50	50	3
8	8	1
131	137	1
100	100	6
54	54	5
125	125	7
9	9	4
147	148	4
107	108	6
86	86	2
84	84	5
78	79	2
150	150	14
110	110	2
130	133	4
90	114	3
14	15	1
132	132	6
39	40	7
24	24	2
37	152	2
16	16	8
21	23	3
139	140	2
23	25	1
96	96	4
106	106	3
117	118	7
29	29	1
51	51	3
83	83	6
140	140	2
131	131	8
113	113	4
94	99	3
102	107	6
69	70	4
63	63	6
146	146	2
119	119	7
148	148	2
73	149	3
72	74	1
4	4	6
138	138	5
102	103	4
118	119	1
94	95	2
5	5	2
26	26	6
3	14	2
76	149	3
66	67	4
142	143	1
151	151	6
89	142	2
92	116	1
11	11	1
98	98	7
32	148	7
147	147	2
128	128	3
153	153	7
31	32	3
34	35	1
120	120	7
54	55	2
112	112	4
103	103	5
7	23	2
12	13	2
139	142	2
123	124	2
71	151	1
65	67	1
67	67	2
52	57	1
107	129	1
34	58	1
3	3	1
42	46	2
149	151	5
56	56	1
37	37	2
7	7	6
147	153	4
46	55	2
11	12	3
26	27	2
55	55	3
17	17	6
38	40	2
130	149	1
46	46	5
109	109	6
65	65	5
35	58	1
117	117	2
123	123	4
70	71	2
136	136	2
94	94	5
22	22	4
109	110	1
107	127	1
19	20	2
126	127	1
113	144	4
153	154	1
104	104	5
114	142	2
102	104	1
141	143	2
42	43	1
111	112	3
95	97	5
20	20	5
44	46	1
81	82	1
80	82	1
75	75	8
144	144	4
143	144	1
25	25	3
124	124	4
40	40	3
130	130	3
47	47	3
72	95	2
126	126	5
74	143	1
44	44	2
12	28	4
114	114	2
137	139	1
103	104	1
87	87	3
72	72	1
31	31	3
92	93	2
38	57	1
53	53	3
140	142	1
142	142	3
6	6	5
150	152	4
74	74	2
3	17	1
54	96	1
129	133	1
95	96	2
39	53	1
50	51	1
7	8	1
35	35	2
120	121	1
140	141	2
98	99	1
36	77	1
133	133	1
32	149	1
131	139	1
2	3	1
129	149	1
127	136	2
82	82	1
11	22	1
81	133	2
127	128	1
74	75	1
8	21	1
35	36	2
42	44	1
108	109	1
5	6	1
71	85	1
125	126	1
77	79	1
57	57	1
95	95	1
23	23	1
73	88	1
66	95	1
35	66	1
