106	106	13
58	58	15
12	12	10
55	55	7
17	46	7
56	56	8
3	92	8
84	84	5
0	1	5
133	133	2
52	52	1
85	90	2
11	11	3
20	22	2
13	14	5
81	81	7
17	17	9
15	101	2
70	70	13
27	28	3
61	61	4
71	71	11
39	39	8
25	25	3
59	60	1
89	90	2
79	79	5
88	89	6
118	118	4
54	54	2
29	29	6
49	49	9
3	3	5
48	55	5
38	38	6
107	107	6
121	121	6
113	124	3
43	47	1
89	89	9
63	63	8
77	77	12
87	89	1
105	105	15
62	71	3
126	128	4
73	75	2
101	101	14
116	116	7
66	66	1
80	109	3
98	98	5
96	107	2
60	61	2
24	24	4
18	51	5
86	86	5
12	22	3
118	126	1
67	88	4
9	9	3
111	111	1
72	72	13
54	102	1
13	17	2
26	26	5
110	110	6
66	71	4
87	87	3
27	27	5
117	119	3
76	107	5
2	2	5
97	97	7
131	131	10
98	99	1
43	43	2
109	109	5
18	18	10
32	32	14
5	5	6
11	22	1
31	85	3
82	83	3
75	89	4
129	130	2
66	74	3
14	14	5
130	130	10
31	32	2
15	41	2
119	119	5
41	41	4
33	33	3
69	69	8
1	1	4
109	111	1
85	85	4
128	129	4
16	46	4
128	128	7
122	122	6
42	42	2
115	117	4
93	93	2
8	8	3
120	120	7
30	30	6
117	124	2
129	129	6
125	125	4
13	13	9
105	111	1
62	62	3
116	117	1
40	40	4
87	107	2
48	49	3
14	43	1
115	115	3
15	45	1
38	40	1
96	96	6
67	68	1
132	133	2
80	80	7
2	41	2
95	95	7
15	15	4
16	44	1
54	55	3
60	60	3
7	7	4
4	4	3
2	46	1
94	99	5
0	0	6
4	7	3
13	18	4
114	114	1
118	125	2
9	20	2
6	6	3
124	125	2
102	103	3
122	123	2
55	102	2
68	68	1
97	99	2
117	117	3
67	77	5
58	94	1
75	77	2
49	52	2
14	102	4
71	74	1
90	93	5
20	20	5
126	126	1
32	83	6
100	100	6
19	19	4
2	99	3
103	104	3
55	56	2
108	108	3
33	39	4
90	90	4
67	69	2
50	50	3
100	101	5
43	45	3
105	112	2
123	123	2
93	100	2
78	78	1
30	76	1
92	92	3
99	99	3
0	27	3
10	10	4
41	99	4
25	28	3
76	79	1
108	109	2
4	6	1
50	51	2
80	81	1
23	26	2
80	110	1
67	67	2
62	74	3
28	28	2
90	98	1
21	23	1
104	104	2
65	65	6
90	97	1
75	75	1
127	127	2
40	58	3
5	6	1
23	23	2
15	102	1
51	52	1
66	73	2
97	98	2
34	60	2
82	82	1
112	112	3
43	44	1
16	16	2
22	22	2
41	100	1
93	95	1
13	46	1
18	19	1
94	94	2
124	124	1
132	132	3
65	74	1
69	70	2
88	88	2
127	129	3
127	130	1
10	11	1
112	113	1
94	95	1
92	111	1
113	125	1
114	116	1
54	104	1
29	42	2
89	107	1
106	112	1
113	113	1
43	57	1
31	31	1
14	15	2
24	26	3
47	47	1
119	120	1
6	7	1
41	42	2
38	75	2
102	102	1
14	46	1
95	96	1
57	57	1
4	99	1
30	85	1
91	91	1
65	66	1
87	90	1
76	76	2
3	41	2
