99	102	2
22	22	13
125	125	16
10	10	7
127	128	1
69	69	4
143	143	11
66	66	10
97	99	1
106	106	6
19	19	5
15	15	8
103	103	8
86	86	5
138	138	12
145	145	5
5	5	5
119	119	5
87	88	2
85	114	4
48	48	1
108	108	12
133	133	6
140	140	9
38	38	11
39	39	8
102	102	10
12	13	3
160	160	9
52	52	12
132	132	12
147	148	2
21	21	3
120	120	16
42	42	12
92	92	13
124	124	9
101	101	2
123	124	3
110	110	12
119	120	3
156	156	1
77	80	1
44	44	7
80	81	7
41	41	7
26	26	6
160	167	3
14	15	5
70	87	1
89	89	6
133	135	4
82	82	10
107	109	3
76	76	8
6	6	6
71	71	8
20	20	4
108	109	3
10	12	2
167	167	6
12	12	7
71	80	3
16	16	4
90	90	4
156	157	2
36	36	16
152	152	9
22	23	3
122	150	1
148	148	11
107	107	3
97	150	1
113	134	2
9	9	11
162	162	3
67	67	13
148	151	1
4	4	6
150	150	11
82	83	3
49	52	2
88	88	7
99	100	9
91	96	2
148	149	2
117	118	6
111	111	1
34	34	8
86	87	5
83	83	4
98	98	4
8	8	11
91	91	5
109	110	3
154	154	8
73	73	5
0	139	1
100	101	8
44	45	5
146	147	5
70	70	7
76	145	6
112	135	2
164	164	14
12	23	3
17	17	9
102	142	2
126	126	1
72	72	2
0	1	6
74	74	5
85	85	6
96	127	4
33	34	3
128	128	10
27	27	6
68	68	6
47	47	7
53	53	3
45	45	3
78	78	1
2	2	7
44	51	4
105	106	1
18	19	4
70	114	5
139	139	8
129	129	4
56	57	1
158	170	3
151	151	1
45	50	2
65	65	5
36	42	1
56	56	6
15	17	4
24	24	11
37	37	2
14	14	9
79	79	9
146	146	4
116	116	2
81	81	2
71	142	3
161	163	4
88	89	7
99	99	3
33	35	4
46	46	4
50	50	6
169	169	3
11	49	3
53	54	1
130	130	11
79	124	1
122	123	4
154	155	7
62	63	2
67	69	1
104	106	3
141	141	12
13	13	1
11	64	2
168	168	7
112	112	3
95	96	2
117	117	8
7	38	2
15	16	3
80	80	5
153	153	8
134	135	4
69	70	3
1	1	5
11	11	2
135	135	2
70	71	4
121	128	2
144	145	5
147	147	1
80	112	2
40	75	2
106	107	3
78	79	3
25	25	2
142	142	5
97	100	3
115	166	2
165	165	6
163	163	2
170	170	1
77	77	2
93	93	4
101	144	1
78	125	5
23	23	4
54	54	8
75	76	1
114	116	2
99	146	1
64	64	3
113	113	6
47	48	1
20	23	2
75	75	2
109	109	1
98	99	2
124	127	6
158	161	3
114	114	3
20	22	3
100	100	2
44	47	2
46	164	2
130	131	1
86	162	2
105	128	2
103	150	4
93	159	2
158	159	1
112	123	5
119	129	2
166	166	2
105	111	2
82	117	3
34	35	2
87	87	5
71	79	4
64	65	2
84	84	10
54	55	3
161	161	6
159	159	5
51	51	3
155	156	1
37	38	2
117	151	1
110	111	2
167	168	4
164	165	3
49	49	5
40	41	2
85	86	3
116	123	2
117	123	3
131	131	2
144	144	1
94	95	1
149	150	1
42	70	1
98	151	3
18	18	6
99	145	2
66	112	1
96	96	2
114	164	1
73	143	1
7	7	3
152	153	1
84	85	4
94	94	6
128	130	2
134	134	2
92	93	2
122	122	1
106	129	4
101	102	3
79	82	2
113	116	1
74	77	2
43	43	1
161	165	3
42	114	1
57	58	6
1	2	2
97	98	2
107	111	1
162	163	7
138	140	1
127	127	2
25	127	1
95	95	1
78	80	1
28	28	1
49	51	2
73	74	2
72	73	1
137	137	2
162	166	1
113	135	2
129	130	3
16	20	1
12	49	1
13	26	2
114	115	3
155	155	1
159	160	1
143	151	2
27	38	1
103	104	3
123	123	1
24	25	3
33	33	1
165	166	1
136	136	1
157	161	1
139	140	1
99	140	1
10	11	3
125	126	3
0	0	1
20	37	1
20	21	1
38	40	1
158	158	1
157	157	3
21	22	1
85	87	1
57	57	2
55	55	1
122	130	1
65	66	1
160	161	1
118	118	1
97	97	1
36	37	1
117	152	1
71	72	1
9	10	1
14	38	1
35	35	1
149	149	1
13	14	1
6	57	1
90	111	1
151	153	1
7	37	1
57	61	1
