43	43	8
30	30	10
67	67	11
42	42	23
6	6	18
77	77	5
44	44	9
37	37	6
57	57	11
54	54	25
11	11	15
22	23	7
26	26	6
60	65	4
19	20	3
34	34	18
46	46	21
35	36	1
38	38	18
26	63	2
40	68	4
56	56	11
22	22	12
38	43	2
73	73	18
62	62	10
28	28	11
31	33	4
8	76	3
18	22	8
35	35	10
3	4	10
55	55	21
24	59	6
14	14	7
31	31	16
65	65	11
47	47	25
70	70	5
59	59	15
39	39	16
1	2	4
12	12	26
40	40	19
1	1	21
63	63	17
64	64	11
11	12	1
25	63	2
4	5	9
75	75	18
41	41	8
26	27	7
33	33	3
21	22	5
0	0	10
25	26	3
3	3	19
45	45	29
49	49	15
27	28	6
65	66	13
61	62	8
61	61	24
69	69	17
52	54	2
29	29	10
7	7	15
30	33	2
10	11	2
60	60	16
67	68	4
25	25	7
72	74	2
5	6	6
72	72	7
42	73	1
5	5	17
68	69	1
66	66	12
10	13	3
60	61	8
32	32	14
33	36	2
29	33	3
9	9	12
20	20	12
71	71	8
4	4	27
18	18	3
64	66	5
75	76	7
10	10	26
51	51	12
2	2	12
23	23	19
25	62	2
20	24	6
32	33	7
50	50	7
74	77	1
34	37	2
74	74	8
70	72	1
7	8	5
58	59	3
28	37	2
40	53	4
46	48	3
38	39	4
44	52	2
36	36	14
45	51	2
13	45	1
29	30	5
32	66	3
24	24	10
25	30	1
19	19	10
55	56	6
0	32	2
66	67	5
33	35	2
34	35	1
27	35	3
71	72	5
52	52	8
41	42	8
21	24	1
56	57	3
23	24	2
9	26	2
48	48	14
53	53	16
21	21	13
39	40	6
28	29	9
0	1	2
36	37	6
39	41	1
68	68	11
47	49	2
21	67	2
45	48	2
35	65	2
18	19	6
31	32	7
26	35	1
22	36	2
63	64	6
43	64	1
12	13	1
50	51	1
76	76	9
23	34	2
21	40	2
27	27	2
13	13	14
49	50	1
59	61	2
6	7	3
19	23	3
76	77	3
74	75	2
11	51	1
25	28	1
31	67	1
41	55	1
32	42	2
2	3	2
8	8	5
57	58	5
6	22	1
8	9	8
19	24	2
4	24	2
42	48	2
61	66	2
30	31	3
33	34	7
4	19	2
21	45	2
68	71	1
28	34	3
44	45	5
24	43	2
42	72	1
62	63	5
53	54	3
58	58	5
6	13	2
22	34	1
9	10	1
37	38	4
28	39	4
14	15	3
70	71	2
1	8	3
43	44	2
37	61	2
46	47	2
8	10	1
33	42	5
72	73	3
59	75	1
15	15	1
54	55	1
68	72	1
71	74	1
60	74	2
36	40	1
61	72	1
34	69	2
22	28	1
20	27	1
41	72	1
18	23	1
59	76	1
45	46	1
0	2	1
36	38	1
21	26	1
