116	117	3
134	168	2
86	86	8
85	85	6
123	124	8
157	157	4
153	157	1
59	59	4
125	125	2
103	104	3
142	142	2
194	195	1
29	29	2
200	237	3
150	151	2
153	155	3
7	72	3
167	168	3
158	158	1
152	152	1
75	236	2
151	151	5
11	11	1
48	48	2
129	130	4
184	184	3
61	63	2
121	121	3
182	182	5
231	233	1
20	23	5
5	8	1
64	64	4
50	191	1
18	59	4
28	62	3
0	0	1
153	153	1
41	42	5
218	235	5
148	148	3
67	68	2
80	80	3
196	196	2
119	180	2
100	102	1
40	40	2
179	187	1
123	123	5
50	50	2
108	108	5
201	218	1
200	200	5
145	147	3
2	84	4
19	23	1
224	225	3
13	14	6
43	43	11
101	101	6
229	229	3
143	143	1
16	29	1
76	197	2
99	99	2
140	140	5
28	55	1
205	205	2
173	232	1
24	24	8
139	139	4
67	67	3
37	37	8
223	223	1
102	102	4
179	179	1
27	61	3
149	150	1
183	194	2
201	201	5
39	74	1
11	13	1
11	31	1
79	80	2
55	55	7
221	230	2
74	74	4
36	36	3
39	39	6
63	63	2
29	30	6
37	85	2
199	199	1
191	191	2
61	61	3
97	97	1
193	193	2
82	84	4
77	77	2
101	108	1
181	181	2
133	134	1
42	42	2
202	203	2
220	222	2
229	231	3
130	130	2
208	212	2
33	104	3
78	78	1
131	131	1
219	219	1
149	149	4
82	82	3
97	98	1
219	220	2
105	105	2
19	64	1
26	26	1
70	70	3
211	212	1
100	100	1
192	192	6
114	117	1
30	31	3
107	113	1
15	16	1
39	40	3
220	220	3
224	224	3
74	232	2
214	225	7
2	2	1
12	12	1
96	97	3
185	185	2
124	124	3
81	173	1
175	175	1
1	11	1
9	9	2
107	107	1
193	197	2
3	10	2
3	3	2
106	106	3
178	178	9
4	4	1
213	213	3
171	171	4
172	173	4
137	141	1
132	132	3
233	233	2
41	41	3
16	17	2
225	225	1
128	128	2
126	128	1
166	166	5
144	145	2
116	116	3
21	57	1
84	84	2
145	148	3
42	174	1
96	100	1
75	75	2
206	206	1
154	156	3
10	10	2
99	105	3
6	42	2
189	189	6
73	73	1
25	25	2
123	140	1
209	212	1
146	147	2
10	73	1
109	109	1
168	168	2
2	4	1
129	129	3
231	231	1
43	85	1
200	201	1
136	136	1
81	81	1
232	232	1
52	53	1
3	84	2
21	22	3
104	104	3
127	127	1
176	176	4
132	134	2
137	138	3
198	198	1
95	104	3
49	49	2
160	161	1
218	218	3
53	53	4
11	38	1
101	113	3
195	195	3
210	225	1
14	14	2
240	240	1
17	23	1
122	122	1
200	218	1
155	155	1
3	83	2
172	172	4
190	190	3
138	138	4
37	43	1
132	133	2
165	169	1
237	237	2
148	149	3
30	32	2
181	192	2
20	20	1
43	44	1
233	242	1
240	241	1
186	186	1
85	112	1
71	71	1
203	204	1
141	142	1
138	139	1
49	181	1
164	165	1
115	118	1
12	14	1
135	168	1
32	105	1
135	142	1
135	135	2
100	103	1
0	70	1
174	174	1
12	13	1
45	174	3
44	44	1
9	10	1
206	207	1
28	37	1
38	38	2
133	156	1
38	70	1
153	154	1
230	231	1
147	148	1
117	117	1
190	192	1
78	199	1
239	239	3
135	167	2
79	79	1
223	226	2
238	238	1
169	212	1
221	221	2
188	188	1
6	6	1
162	215	1
212	212	1
119	119	1
137	160	1
126	126	2
222	223	1
139	140	1
234	234	1
138	159	1
120	121	1
213	214	1
137	137	1
64	65	1
202	202	1
42	74	1
