58	58	8
24	25	3
13	78	1
114	114	6
36	36	5
91	91	29
79	79	7
110	111	6
76	76	7
100	101	2
34	34	7
69	69	7
4	77	2
37	37	9
123	123	6
54	72	2
24	24	9
31	31	3
5	17	2
3	19	4
23	23	8
92	95	3
98	98	9
1	77	3
45	45	4
119	120	4
30	30	3
22	74	1
30	35	11
85	85	6
25	28	2
128	128	2
88	125	5
33	33	3
69	70	4
107	107	9
99	100	6
86	88	2
53	54	4
70	124	5
25	25	3
27	80	1
11	83	1
50	50	8
19	19	11
2	5	1
70	70	9
92	93	4
0	0	6
61	62	2
116	122	3
117	117	4
19	20	2
43	44	5
26	30	2
4	4	8
72	72	11
28	28	6
99	99	4
5	27	1
7	7	8
111	127	4
3	3	7
101	101	3
1	2	1
93	93	10
81	81	8
56	56	6
82	82	2
102	102	2
32	32	5
102	110	2
109	109	10
43	43	2
65	65	5
13	55	2
56	73	1
117	122	2
75	90	1
29	31	1
3	4	7
54	54	6
121	122	2
133	133	7
28	35	1
108	108	4
50	97	2
61	61	6
122	122	14
44	45	1
123	124	1
55	55	6
12	16	10
9	60	1
36	37	6
106	106	9
131	131	12
109	110	3
55	56	5
11	12	3
134	134	7
16	16	1
89	89	4
103	103	5
92	92	7
76	77	3
66	66	2
88	123	2
118	122	1
1	1	7
103	134	3
46	46	1
84	84	3
57	86	1
59	59	6
75	75	6
18	18	7
44	135	1
130	130	4
7	12	1
13	15	1
65	68	2
12	72	1
115	116	5
112	112	1
45	48	2
25	26	2
2	2	10
11	11	3
114	115	5
86	86	6
3	20	2
9	49	1
44	44	5
26	26	5
43	85	2
76	91	2
94	114	6
122	133	2
52	52	6
0	22	4
55	73	2
49	50	3
97	97	6
53	53	5
0	57	2
104	104	7
117	119	1
25	29	2
116	116	6
43	117	1
18	19	3
62	63	3
88	89	2
77	77	3
80	130	4
78	79	2
14	71	3
21	22	1
10	66	2
7	57	2
50	54	1
124	124	9
66	67	3
102	111	2
72	74	1
97	98	1
17	17	1
26	36	4
101	102	5
1	9	2
16	19	3
38	38	2
29	29	3
61	72	3
57	57	5
57	96	1
66	125	3
9	75	3
95	95	5
0	3	1
64	72	5
80	91	2
22	24	1
10	83	6
103	104	5
119	119	5
105	105	4
28	29	3
87	125	2
8	8	6
18	64	2
59	75	3
111	130	2
27	27	6
78	78	3
96	107	1
58	134	1
8	52	1
68	69	3
89	99	7
62	62	7
106	107	10
108	110	2
10	10	10
104	105	3
10	82	2
113	113	4
100	100	8
51	53	5
35	36	2
118	119	2
5	7	1
8	10	4
116	117	3
14	15	1
90	122	4
20	20	5
80	80	6
4	48	1
14	78	2
96	97	1
97	107	3
58	59	3
110	110	3
90	90	2
121	127	1
111	111	2
30	53	2
68	68	5
127	128	3
52	66	5
77	79	1
0	56	5
120	120	2
71	86	5
9	9	2
79	116	1
98	131	1
15	15	4
125	125	6
27	47	3
17	23	2
69	75	3
77	78	3
49	53	2
96	96	5
111	115	1
121	121	7
24	26	2
32	33	3
4	58	1
91	113	1
13	64	4
20	21	3
128	129	3
78	87	2
6	6	3
13	13	1
97	129	2
9	67	1
56	78	2
82	110	1
119	128	2
61	65	1
124	125	2
91	92	1
126	126	1
35	37	3
8	84	4
112	114	2
8	30	1
103	116	2
0	14	3
13	76	1
98	129	1
88	135	1
89	91	1
83	84	1
7	31	4
12	12	1
63	67	1
8	16	1
92	113	2
23	26	1
60	73	1
74	74	2
107	108	3
64	71	1
57	72	1
48	48	2
120	128	1
89	133	2
73	73	4
88	88	1
35	35	2
104	120	1
21	21	2
5	5	1
60	60	3
79	117	1
53	96	1
131	132	1
23	24	1
20	70	1
31	56	1
50	120	2
31	32	1
63	63	2
82	85	1
2	77	1
116	120	3
95	106	3
132	132	1
42	42	2
102	127	1
127	127	1
126	132	2
28	31	1
9	82	2
54	120	1
11	20	1
60	96	1
27	45	1
79	118	2
64	70	1
118	118	1
31	83	1
129	129	1
0	23	1
83	83	1
16	73	2
22	22	3
29	30	1
84	85	1
38	78	1
64	69	1
4	15	1
67	67	1
129	131	1
54	85	1
89	126	1
97	130	1
44	117	1
60	74	1
