13	13	7
72	72	7
101	102	6
117	117	3
88	88	4
29	29	4
40	40	14
32	40	2
101	101	7
89	89	10
83	83	8
28	28	14
80	80	9
121	121	5
19	19	5
61	61	6
132	132	2
93	93	2
12	12	8
38	38	1
15	15	9
0	15	5
68	70	4
79	79	2
76	76	13
130	132	5
1	6	3
21	21	10
99	100	5
123	124	2
59	64	2
91	91	10
119	119	2
84	84	5
144	144	4
26	26	5
11	11	4
70	70	7
118	118	7
112	119	3
79	80	1
93	94	5
4	4	6
71	73	1
103	108	1
105	129	5
50	50	9
126	133	5
69	70	5
59	59	3
120	120	2
82	82	5
9	15	2
56	56	8
36	36	10
103	103	10
88	99	2
98	99	5
68	68	5
14	20	1
116	117	2
114	114	1
47	47	11
137	139	1
87	87	3
35	51	4
126	127	2
8	11	4
81	82	1
78	78	3
138	140	1
5	73	2
35	38	3
135	137	6
135	138	4
132	139	5
64	64	7
116	116	10
32	32	10
10	10	11
106	107	1
30	30	4
2	29	4
123	123	8
111	111	14
116	141	3
57	58	3
97	98	4
108	108	2
120	127	2
140	140	5
14	15	2
50	66	1
129	132	3
5	5	4
126	126	5
129	129	6
106	108	4
87	88	3
141	141	6
135	135	3
143	144	1
25	25	4
3	4	3
6	8	1
97	97	4
128	131	2
96	96	3
50	73	2
125	125	4
23	31	1
58	61	2
75	75	2
62	73	3
125	126	1
76	78	3
52	52	10
31	31	4
134	134	1
127	127	6
92	92	6
92	94	2
37	37	3
59	106	2
98	100	2
116	118	2
67	74	3
62	63	6
39	39	3
99	99	2
73	78	3
0	1	1
120	122	2
138	139	4
10	13	1
19	21	1
53	54	3
66	66	3
115	116	3
98	98	4
136	136	4
9	10	2
64	91	3
112	112	5
10	11	2
131	131	4
55	56	1
27	27	5
54	55	3
73	130	6
128	128	5
80	81	4
8	9	2
34	34	1
38	41	2
67	70	5
42	42	1
141	142	1
5	6	3
115	115	2
68	91	1
111	132	1
21	22	3
54	54	6
33	38	1
107	109	1
34	36	2
138	138	2
137	137	2
142	143	1
20	20	8
17	17	3
74	75	3
121	126	1
36	37	3
2	2	4
114	115	4
89	94	1
3	20	1
23	23	3
33	36	1
22	22	7
65	65	3
10	12	1
48	48	2
73	73	3
86	86	1
102	102	1
47	49	1
33	54	1
2	3	1
70	74	1
69	69	1
33	33	5
72	75	2
30	93	1
68	69	2
63	63	1
101	143	3
89	90	1
35	43	1
101	103	2
14	14	3
143	143	3
10	26	2
96	98	2
15	17	1
130	130	1
119	120	1
71	71	4
124	124	3
24	25	2
120	121	5
16	16	3
109	109	4
142	142	1
9	9	2
61	62	1
64	110	1
78	89	1
136	137	4
0	0	2
117	121	3
91	92	1
0	2	3
139	139	2
129	130	3
37	39	1
49	49	3
83	85	1
23	25	1
66	68	2
90	90	1
18	18	6
37	47	2
24	24	1
77	77	2
15	23	2
132	133	1
51	51	1
145	145	4
55	55	2
34	35	2
5	23	2
95	95	1
64	65	1
140	141	3
43	43	1
81	81	1
56	57	3
78	79	1
1	1	4
11	15	1
113	114	2
65	91	1
71	72	1
29	33	1
50	52	1
120	126	1
67	68	1
67	72	2
122	122	2
107	107	1
37	38	1
58	58	2
79	85	1
24	50	1
35	35	3
58	59	1
102	104	1
21	48	1
34	40	1
105	106	1
112	114	1
57	57	1
128	129	1
102	105	1
132	138	1
47	48	1
54	62	1
96	97	1
73	74	2
110	111	1
16	18	1
146	146	1
