139	140	4
121	121	9
18	40	3
17	118	2
147	147	12
163	163	17
36	36	15
157	157	16
59	59	12
119	119	15
20	41	3
82	82	14
90	91	4
26	27	13
37	38	3
32	32	12
13	13	20
147	170	1
104	104	9
91	92	5
153	153	21
161	161	11
96	96	16
139	139	12
73	73	13
113	113	12
77	78	5
30	31	2
30	123	2
41	41	15
63	73	3
9	10	2
14	14	20
170	171	7
25	25	8
10	10	17
62	63	1
86	86	6
164	164	11
8	8	10
122	122	3
3	3	7
179	180	3
46	46	2
19	19	10
41	43	3
145	145	15
146	146	17
84	85	10
78	78	4
24	24	7
84	84	4
138	138	9
35	35	15
63	63	12
75	75	9
33	33	22
109	109	12
102	117	3
83	83	10
76	76	15
1	1	11
23	23	22
30	51	1
124	124	7
151	154	3
104	105	6
177	177	10
68	68	4
172	172	11
141	141	20
100	100	9
95	95	10
124	125	7
70	71	1
71	71	11
86	122	3
131	132	5
4	4	12
126	126	10
26	71	4
98	99	3
74	74	13
14	38	1
174	175	5
40	40	11
59	60	9
157	159	4
72	138	2
137	137	12
60	60	11
75	76	2
38	39	4
82	154	3
110	114	3
114	114	15
39	39	3
67	73	3
56	56	8
37	37	6
89	139	2
171	171	16
106	106	3
33	35	1
131	133	7
130	131	1
12	12	5
117	119	2
128	128	14
65	65	8
119	125	6
61	173	1
178	178	10
45	45	8
135	135	14
95	103	2
67	95	1
63	64	4
115	117	3
125	126	5
104	107	2
132	171	1
128	129	1
172	173	1
29	31	3
144	151	3
52	52	8
143	160	1
6	89	4
169	169	10
2	10	2
28	30	5
6	7	3
53	164	1
107	107	11
148	148	10
32	33	3
122	126	5
55	55	11
103	104	6
70	72	2
29	71	1
28	28	8
12	20	2
156	160	3
76	77	2
39	41	5
158	158	11
42	43	3
43	122	1
53	53	17
143	143	19
38	38	14
103	108	2
132	132	14
11	12	9
175	175	7
130	142	1
154	156	2
120	120	8
5	5	19
35	36	4
147	168	1
81	81	6
174	174	6
146	174	4
22	23	6
34	34	9
9	123	2
117	117	9
64	65	1
121	122	10
85	85	8
136	136	7
127	127	8
72	136	6
150	150	16
2	2	3
54	54	8
176	176	7
149	150	3
169	170	4
94	95	2
27	27	8
118	119	7
65	66	5
167	167	6
102	103	1
160	160	9
150	168	2
27	28	4
24	105	2
176	177	3
51	51	6
42	42	13
144	144	24
141	149	2
129	130	8
31	31	11
145	146	4
116	116	11
91	97	2
94	94	8
22	22	5
127	128	2
44	44	8
158	159	3
37	66	4
169	171	3
166	166	13
11	11	5
83	85	6
94	96	3
77	77	3
39	40	4
123	125	3
103	103	4
56	57	4
6	6	7
94	148	1
7	7	5
154	155	3
107	108	7
93	93	4
86	87	5
80	90	2
54	55	4
24	97	2
142	142	7
62	62	16
150	151	5
80	80	7
143	148	3
133	133	8
154	154	8
98	100	9
110	110	7
115	118	4
112	112	8
14	15	9
9	9	7
67	67	6
1	3	3
64	64	9
35	106	1
151	151	11
25	26	1
18	19	3
101	101	6
167	174	2
16	16	6
89	94	2
4	6	1
25	42	1
22	25	1
97	108	1
87	87	7
17	68	2
11	20	1
8	9	2
18	18	7
30	30	13
106	107	4
111	112	2
99	100	1
45	46	4
89	90	4
72	72	3
45	68	4
26	26	5
105	105	4
155	155	3
113	114	2
152	152	9
92	92	13
126	127	3
107	158	2
24	25	4
60	61	1
156	156	5
173	173	6
50	50	6
169	172	5
97	97	2
158	176	3
170	170	11
120	152	1
71	72	5
148	149	6
61	61	8
15	15	12
63	66	4
62	81	2
88	88	7
17	42	1
153	154	3
134	134	8
95	96	1
102	102	12
105	106	7
177	178	3
12	14	4
17	18	5
21	21	5
89	91	5
85	86	2
165	165	10
101	102	1
16	17	8
11	13	3
162	162	4
129	129	11
111	111	8
91	91	10
21	22	1
142	143	2
2	3	1
119	120	5
49	49	2
49	50	1
28	29	3
17	43	1
115	149	5
43	43	2
13	14	1
97	109	4
132	133	9
133	134	1
33	37	4
96	99	7
151	152	1
29	30	3
115	146	3
92	94	1
146	147	4
91	101	1
137	138	2
156	157	4
159	160	8
110	121	1
168	174	1
98	98	7
131	131	3
123	123	8
73	75	1
10	43	1
3	14	1
55	56	6
90	90	1
34	35	5
6	41	5
9	13	1
6	8	2
90	94	2
125	125	4
61	141	1
6	10	6
118	118	4
79	79	5
140	140	9
65	68	3
28	33	1
80	81	6
89	89	8
92	93	5
20	20	3
3	4	3
33	34	2
41	42	4
139	158	4
4	8	2
149	149	5
168	168	5
159	159	13
78	89	2
62	174	1
118	120	2
45	71	2
22	119	2
58	58	2
115	115	1
33	36	3
66	66	4
136	137	1
165	170	1
100	101	3
108	109	9
135	136	6
75	78	2
6	172	1
1	124	2
103	107	3
122	152	2
130	130	9
25	27	4
116	167	1
5	14	3
171	178	1
29	39	6
5	9	2
171	180	2
7	8	3
70	70	2
91	93	1
23	24	2
134	135	2
116	117	2
145	157	3
8	24	1
92	98	1
107	172	1
166	167	3
28	39	2
12	13	5
15	16	5
93	150	2
83	158	3
114	115	3
90	93	2
155	156	9
144	145	2
163	164	1
81	96	2
113	154	3
39	43	1
105	121	2
164	166	2
8	126	1
131	141	2
36	37	4
141	151	1
157	158	1
49	56	2
180	180	6
109	110	3
93	96	1
54	100	1
38	40	3
3	9	3
173	174	4
7	91	2
143	144	5
57	57	5
4	119	4
43	131	2
17	34	2
139	144	2
29	29	2
0	176	1
92	106	1
157	160	2
25	37	1
0	1	3
19	21	3
179	179	2
21	39	2
86	120	3
50	56	1
162	163	3
98	128	2
13	41	1
31	35	2
15	30	1
107	110	2
110	136	1
172	174	4
108	136	2
142	146	1
31	32	1
168	169	4
153	159	2
150	167	1
138	139	3
152	154	4
99	99	2
1	2	3
171	172	3
141	142	1
100	102	1
41	44	2
9	45	2
54	177	1
175	176	2
50	127	1
118	133	2
78	141	1
87	166	1
82	96	1
102	104	1
25	35	1
66	67	1
88	93	1
140	141	1
53	63	1
106	141	1
86	96	1
114	151	1
132	174	1
111	150	1
52	53	1
110	111	2
110	112	1
67	72	1
123	124	4
94	99	1
11	17	2
18	44	3
87	89	1
148	150	1
50	175	1
120	122	1
114	139	1
5	6	1
80	82	1
82	83	1
59	98	2
111	115	1
6	126	1
73	74	4
141	152	1
117	118	1
167	168	1
19	41	1
111	113	1
5	8	4
112	140	1
137	139	1
110	117	2
136	140	1
12	46	1
107	109	1
113	133	1
8	10	2
77	142	1
4	5	1
147	148	1
27	53	1
61	62	1
34	38	2
114	141	1
154	159	1
98	101	1
119	121	1
50	51	1
34	40	1
2	54	1
67	68	1
122	124	1
108	108	1
82	153	1
114	148	1
10	12	1
79	81	1
16	37	1
18	45	1
14	122	1
9	42	1
54	56	1
123	138	1
51	55	1
112	142	1
110	150	1
66	74	1
98	108	1
72	74	1
168	171	1
