24	31	3
80	80	6
68	68	9
164	184	3
11	12	2
64	65	1
92	92	6
180	180	5
183	183	15
16	17	8
109	110	7
137	138	4
33	33	12
73	74	2
177	181	2
35	46	2
56	68	1
185	185	5
30	31	1
146	149	2
20	20	6
59	59	8
157	157	13
120	120	5
25	25	4
83	83	13
126	126	5
10	44	2
147	172	1
178	178	15
113	113	11
89	89	23
47	47	23
109	109	8
67	68	4
57	57	16
80	81	2
13	13	10
164	164	9
108	108	5
98	109	2
118	119	2
34	41	1
182	182	5
142	143	4
9	11	3
69	69	2
30	30	11
159	159	2
2	2	13
158	158	11
81	81	11
102	102	11
78	86	1
7	7	3
95	125	1
124	124	9
60	106	1
162	162	8
160	160	3
23	23	3
116	116	14
143	143	11
107	107	6
80	85	3
187	187	12
95	129	5
131	131	5
91	91	11
111	118	1
86	86	8
0	2	5
94	155	4
9	13	3
116	164	1
185	186	2
140	141	4
22	47	1
71	71	8
119	119	11
83	107	2
60	60	8
73	75	3
135	135	14
65	127	2
19	19	16
168	173	1
61	62	2
55	60	2
12	12	7
188	188	9
99	99	8
154	154	10
114	114	2
36	36	8
181	182	4
19	20	3
190	190	5
86	87	1
170	170	3
40	78	2
28	29	3
39	40	1
84	84	5
127	128	4
177	177	14
11	11	5
131	151	3
72	72	7
53	54	2
6	32	1
100	100	7
188	189	5
122	122	11
181	188	2
62	66	2
112	112	8
130	130	2
141	143	2
115	115	7
112	163	5
155	155	11
161	162	1
11	36	1
168	168	10
105	105	1
76	78	2
98	98	3
136	136	4
10	12	2
48	48	7
8	8	8
150	150	7
54	54	7
110	110	6
159	160	6
113	114	1
147	176	5
144	145	2
1	1	11
160	166	4
42	42	2
103	104	3
139	139	11
115	116	1
127	127	14
114	187	3
106	106	10
178	179	2
147	148	1
1	76	1
129	130	3
134	135	3
15	15	5
156	162	3
27	27	15
63	63	7
129	129	11
18	28	3
167	169	1
43	43	5
142	170	1
55	55	4
134	136	2
16	16	4
167	167	5
88	88	2
148	148	13
151	151	24
189	189	10
70	90	1
39	39	7
141	141	10
111	111	3
31	31	4
86	97	1
76	76	8
144	144	5
169	169	5
174	174	11
125	127	1
131	134	1
121	129	1
93	93	9
18	19	1
172	172	7
85	86	3
138	181	2
175	175	6
17	17	16
4	4	7
100	104	2
60	61	4
7	24	1
38	42	2
94	103	6
18	18	5
138	138	18
32	32	7
106	108	1
24	26	2
125	151	2
40	40	5
56	56	8
6	6	8
87	87	5
45	47	3
149	150	3
175	176	6
118	118	7
186	190	2
123	158	3
78	79	7
62	63	4
180	181	3
59	62	2
86	105	2
90	90	7
165	165	8
85	96	2
34	34	4
28	28	16
120	134	3
139	175	1
160	168	1
125	125	10
41	41	6
123	123	11
0	0	6
71	72	6
169	170	4
3	7	3
14	14	6
35	35	9
110	158	2
101	101	9
58	94	4
43	44	3
156	156	2
186	187	3
182	184	4
64	77	2
71	73	6
96	96	4
143	150	3
159	163	1
6	7	1
178	181	1
171	172	2
40	41	7
72	81	2
74	74	4
85	85	3
121	121	5
171	171	6
163	174	4
145	145	9
67	67	4
167	168	5
56	66	1
10	10	3
89	99	1
30	115	3
73	73	3
73	121	2
148	149	4
160	175	3
0	26	2
159	177	2
175	183	2
53	53	7
25	26	8
77	77	3
42	44	5
82	82	8
36	37	1
123	156	2
13	15	2
62	62	5
46	46	5
11	71	1
137	137	3
147	147	4
24	48	1
38	39	2
17	18	1
64	76	2
97	99	2
9	9	1
94	94	7
38	38	15
122	123	5
163	163	9
133	133	7
148	150	3
139	154	1
151	155	1
58	58	2
95	148	1
65	80	1
139	140	1
57	60	5
156	164	2
117	118	5
20	25	1
97	97	6
142	142	8
54	55	4
146	146	9
140	140	7
78	78	12
75	75	3
152	152	13
4	5	6
6	36	2
68	89	3
21	21	3
1	2	4
41	42	4
109	140	1
134	134	3
70	70	3
72	136	1
63	90	1
112	114	4
163	164	5
108	111	2
45	45	3
100	102	3
26	26	7
12	55	1
104	104	3
56	57	2
24	25	4
27	32	1
171	173	2
102	103	1
90	104	3
135	137	2
60	76	1
65	65	7
170	173	1
91	93	2
108	148	3
108	123	1
20	26	1
68	108	4
46	82	2
138	139	1
64	64	4
70	71	3
2	3	9
35	36	2
153	153	2
67	76	2
29	30	3
6	8	3
189	190	1
129	131	2
131	132	1
157	164	2
136	143	1
130	145	3
58	60	2
117	117	6
139	181	1
45	46	1
14	15	1
92	121	1
119	120	3
184	184	1
152	153	4
181	181	2
52	53	2
187	190	2
104	106	3
81	112	1
74	81	2
6	90	3
23	24	4
29	29	4
24	32	1
10	20	2
58	61	2
11	89	1
149	149	3
14	42	1
24	34	1
146	147	1
74	127	2
164	165	4
161	163	4
166	167	1
68	71	3
128	128	8
54	98	1
4	32	1
88	123	1
61	61	3
40	77	2
184	186	2
116	118	3
155	156	3
22	25	1
93	144	2
120	121	1
3	5	1
109	130	1
79	79	2
92	93	3
102	106	2
157	160	1
135	159	1
105	106	2
122	124	1
94	97	1
165	170	1
103	103	1
173	173	5
63	124	1
68	127	1
13	14	3
62	105	1
166	166	5
41	43	4
126	144	1
58	86	1
132	132	2
128	138	2
4	130	2
164	185	1
104	105	2
87	88	2
120	122	3
37	37	2
158	182	1
136	137	2
89	119	2
170	183	2
150	160	2
33	36	1
18	33	2
22	22	2
61	63	2
101	102	1
71	75	1
21	43	2
142	175	1
141	153	1
108	119	1
3	3	6
116	117	1
17	22	1
24	24	3
175	185	1
187	188	1
95	95	2
109	113	1
95	140	1
71	79	1
110	114	1
121	149	1
86	96	1
170	182	1
176	176	2
11	19	1
111	171	1
135	136	4
63	64	1
4	6	3
186	186	3
100	101	2
162	180	1
15	88	2
57	148	2
38	54	1
134	184	1
160	162	1
16	116	1
159	169	2
106	107	2
83	84	1
102	124	2
140	170	3
156	180	1
70	76	1
115	154	1
81	147	2
139	178	1
70	81	2
46	47	1
17	73	2
159	171	1
113	117	1
184	185	1
144	156	1
87	124	1
71	76	3
83	87	1
84	94	1
6	42	1
64	79	1
67	108	2
122	154	1
100	109	1
141	142	1
133	134	1
54	65	1
67	98	1
9	10	1
123	131	1
101	103	2
6	15	1
125	158	1
134	150	1
82	94	1
104	107	1
133	135	1
31	33	1
179	179	2
20	44	1
12	16	1
147	150	1
30	114	1
26	28	1
138	153	1
94	142	1
95	171	2
44	44	2
156	157	1
34	35	1
108	121	1
160	161	1
53	56	1
134	153	1
99	117	1
150	165	1
75	88	1
140	182	1
112	161	1
165	169	1
83	101	1
145	146	1
68	134	1
183	184	1
84	166	1
55	56	1
177	178	1
5	5	1
58	126	1
