116	117	6
104	105	9
123	123	2
100	100	9
122	122	4
99	99	18
110	110	4
119	120	1
126	126	13
36	36	9
72	73	4
18	18	4
0	0	9
117	117	4
115	115	10
116	116	9
115	123	6
134	134	19
35	35	9
6	7	3
33	33	4
110	114	2
111	111	7
22	22	6
8	8	6
128	128	16
71	85	11
138	138	7
103	106	4
112	115	3
32	32	6
17	17	15
88	88	4
135	135	5
94	94	12
19	21	4
135	136	3
4	4	4
136	136	10
81	82	3
102	102	4
86	87	1
20	20	13
81	81	8
133	133	6
106	107	4
107	107	8
34	34	4
114	114	12
127	128	5
7	8	12
73	73	6
7	7	1
132	132	3
16	17	2
14	16	3
15	27	3
2	3	7
109	111	4
75	75	11
113	114	3
17	24	2
3	3	20
1	2	6
95	95	11
37	37	6
16	22	1
77	77	8
30	31	4
17	18	2
72	72	5
5	5	7
115	120	4
71	80	3
76	76	3
30	30	6
1	1	5
84	84	12
107	108	7
74	74	7
85	85	2
35	36	2
108	108	2
90	90	1
88	90	4
13	16	3
124	124	9
27	33	6
118	118	5
130	130	5
76	77	2
36	37	3
16	16	1
73	75	3
23	23	3
9	9	4
117	118	1
15	15	10
138	139	6
28	28	3
38	38	4
86	86	5
77	79	2
27	28	4
10	10	5
96	96	4
17	21	3
31	31	2
93	93	5
10	11	1
31	38	6
75	77	4
26	26	16
1	25	1
103	103	3
2	2	7
109	109	2
97	98	4
100	123	1
130	131	5
103	114	1
111	113	2
31	32	1
127	127	9
98	98	7
106	106	1
104	104	4
120	120	1
137	137	3
89	89	4
82	82	3
4	5	4
22	23	9
131	131	2
86	94	2
83	83	3
0	2	1
97	97	1
26	27	1
27	27	6
129	129	4
87	95	1
121	121	2
75	76	1
121	122	2
92	92	4
13	13	1
125	125	2
5	27	3
99	100	2
29	32	2
71	71	3
79	79	1
24	34	2
22	24	1
139	139	2
11	20	2
140	140	2
112	112	1
21	21	2
80	80	1
19	19	3
87	87	2
18	75	1
6	31	1
66	82	1
131	132	1
36	128	1
96	97	4
14	19	1
112	122	1
113	113	1
110	115	1
15	28	1
124	126	1
101	101	2
116	118	2
29	30	1
120	121	1
137	138	1
9	11	1
82	83	1
92	100	1
101	112	2
126	127	1
38	117	1
114	115	2
92	93	1
128	129	3
5	6	1
11	11	1
