54	99	3
94	102	2
19	19	28
75	75	28
9	34	2
59	60	9
109	109	8
59	59	19
126	126	24
31	31	17
107	107	19
74	74	21
130	130	26
48	48	14
36	36	29
0	15	2
120	120	15
28	29	4
128	129	10
120	127	1
123	123	17
22	41	1
93	95	1
64	99	4
20	21	9
70	70	6
3	3	22
129	139	4
24	24	13
141	141	19
29	29	16
129	129	26
54	54	19
4	4	17
124	125	2
49	49	17
132	132	9
20	20	17
139	139	25
106	106	12
141	142	6
30	30	22
89	90	6
2	36	3
40	40	12
15	47	1
53	64	6
9	10	7
22	22	24
11	25	4
35	35	20
113	113	27
93	94	6
8	17	3
112	112	16
128	145	4
67	67	16
63	63	19
92	93	9
37	38	4
91	96	3
11	23	1
140	140	7
32	32	23
41	41	11
136	136	45
102	103	11
4	6	8
8	10	5
112	117	2
128	128	18
57	58	2
118	118	5
1	1	22
128	131	3
102	126	6
88	88	12
106	107	7
85	85	9
18	18	15
78	78	4
13	13	14
15	17	1
125	125	13
52	52	11
25	26	4
52	86	3
136	139	1
0	0	13
5	26	2
116	116	13
58	74	6
73	73	26
62	93	3
125	126	9
138	139	19
60	60	23
70	84	3
124	124	13
99	100	4
73	143	3
108	110	3
29	30	2
76	76	27
9	9	9
77	82	3
14	24	3
6	15	2
125	131	2
6	10	2
94	94	35
138	138	6
56	56	17
53	82	4
80	138	3
80	81	4
138	140	6
3	4	4
134	134	20
17	17	22
118	121	4
113	115	7
6	13	5
1	22	6
115	115	17
21	34	5
69	73	5
83	83	15
30	31	10
131	131	13
64	64	15
66	66	16
25	34	1
108	108	11
82	87	1
111	140	2
2	17	3
6	92	1
104	104	18
111	111	25
118	127	4
18	85	3
55	64	4
121	121	15
91	92	8
51	51	13
5	6	6
38	39	5
51	62	5
110	125	1
8	23	2
6	8	2
8	8	27
25	25	18
117	117	23
114	124	2
100	123	3
91	91	23
115	126	2
73	85	4
22	34	3
0	1	2
119	122	2
55	56	3
135	135	17
90	90	20
61	62	4
116	117	6
51	52	10
101	101	17
133	133	9
10	11	3
131	133	1
130	143	2
104	109	9
100	124	1
26	60	2
64	65	2
57	82	2
93	118	2
84	84	11
14	14	12
135	141	1
61	61	25
103	130	4
78	92	3
16	16	19
134	142	1
77	98	1
120	132	5
54	66	1
53	54	4
31	34	3
10	12	3
105	109	4
58	58	17
18	21	2
36	37	10
86	91	6
17	20	3
33	33	15
76	79	4
98	99	4
100	100	18
26	27	4
37	37	27
69	74	1
87	87	24
67	74	1
38	38	17
146	146	4
135	136	7
105	105	20
130	131	16
57	66	5
72	72	8
47	58	3
28	36	3
115	133	2
125	128	2
53	84	2
116	118	2
50	57	3
71	71	19
134	140	5
86	86	13
96	96	20
80	82	6
15	15	21
122	124	3
57	57	6
6	21	2
5	33	5
23	35	1
120	123	3
55	55	19
8	19	2
43	132	3
102	116	3
12	21	3
50	50	7
41	61	3
24	27	6
119	136	3
104	123	3
120	137	6
21	21	18
69	83	4
94	99	3
21	29	5
30	33	2
3	65	1
26	41	3
107	132	3
145	145	10
73	93	2
103	103	18
91	95	9
9	13	1
28	28	17
29	35	4
24	32	1
19	117	3
65	65	12
5	20	2
119	119	16
6	6	10
53	53	20
58	68	4
52	67	1
28	38	5
92	92	20
140	141	3
112	127	2
129	142	7
57	63	1
74	92	4
73	98	5
9	23	1
113	132	2
122	122	18
2	2	25
3	20	2
65	66	9
107	126	2
26	35	2
64	96	4
55	89	1
76	77	7
0	33	2
118	120	2
124	128	3
17	24	3
5	16	2
106	113	6
110	118	2
133	134	5
95	96	8
49	50	5
108	123	1
18	19	3
27	27	11
48	67	1
20	24	7
47	47	19
15	120	3
113	114	8
107	112	5
98	98	15
95	99	3
51	65	1
8	42	4
115	144	1
83	85	1
9	12	1
91	103	2
79	79	5
49	52	1
30	34	5
5	24	2
79	82	2
6	106	1
80	108	2
17	25	1
119	127	2
71	92	3
55	69	1
8	9	3
21	43	3
23	23	21
111	137	1
11	43	7
99	99	28
97	97	10
58	59	4
78	82	2
104	111	3
134	141	4
4	5	3
21	30	1
8	36	3
144	144	18
86	94	3
4	12	1
65	67	3
12	12	11
38	41	3
17	18	7
17	19	2
127	133	4
10	10	19
79	80	2
77	77	7
132	134	2
109	110	5
79	96	1
69	69	16
88	90	4
76	116	1
55	57	1
35	36	7
72	73	3
135	140	8
141	144	1
143	143	8
50	67	1
17	21	2
60	62	1
82	127	1
26	58	1
82	82	6
145	146	3
16	28	1
78	109	2
129	130	2
106	112	4
25	42	1
59	75	3
142	144	2
39	39	27
1	20	2
11	11	11
84	126	1
39	66	1
1	18	5
69	103	5
80	99	4
30	32	5
1	3	2
144	146	3
97	98	3
132	140	3
60	74	2
5	92	3
137	138	2
111	124	5
4	21	1
54	55	3
107	120	2
47	48	7
1	2	3
136	138	3
52	53	4
84	103	1
0	85	6
81	82	3
9	35	4
71	72	6
104	117	3
48	64	2
115	116	5
62	63	9
62	62	13
21	37	3
34	37	2
106	110	3
136	137	10
128	143	1
95	95	13
115	139	3
134	135	6
71	113	1
114	114	6
34	34	7
113	135	3
6	93	3
91	97	2
26	36	2
96	97	12
107	133	4
36	43	1
112	131	2
62	99	1
25	41	2
42	42	31
2	31	2
59	74	4
136	140	7
76	93	6
5	5	10
15	141	3
86	96	1
90	109	3
80	80	13
4	22	2
22	38	1
74	87	1
133	137	2
50	56	2
68	68	16
13	19	1
18	32	2
90	91	5
64	66	8
21	36	1
91	100	1
12	13	5
2	3	7
56	67	3
79	85	3
6	14	1
68	86	2
55	65	1
114	115	1
98	100	5
61	80	4
47	97	3
121	122	1
51	68	2
23	37	1
110	113	2
127	127	7
17	38	4
17	77	1
107	113	2
51	73	2
116	131	3
85	91	2
3	15	1
0	2	3
114	136	1
11	31	1
131	144	2
53	66	1
96	103	5
102	110	1
27	28	1
0	4	5
5	7	2
14	32	2
27	60	4
140	143	1
21	56	1
134	136	1
20	25	1
67	115	2
73	79	3
29	43	2
85	100	1
67	69	1
78	79	2
10	47	4
95	97	5
6	23	3
83	125	3
39	40	1
132	133	5
92	105	3
86	87	3
1	17	2
81	132	2
60	61	2
85	122	1
6	22	1
102	102	25
72	93	5
16	33	5
56	94	3
74	75	4
104	138	3
104	105	4
11	19	4
105	106	3
23	30	1
15	28	2
3	21	3
26	26	18
116	126	2
133	139	1
49	94	2
31	43	2
75	78	1
139	141	5
13	28	5
42	53	3
74	78	3
111	114	6
82	89	1
93	93	8
25	29	2
86	92	1
20	22	1
121	144	1
2	16	1
103	104	2
0	86	1
52	64	1
49	58	1
73	78	4
17	42	2
15	20	4
101	103	1
135	142	1
3	26	1
86	93	1
110	110	8
106	127	1
114	137	1
34	35	4
93	119	3
14	15	2
12	60	1
75	76	8
72	75	2
65	99	1
30	37	1
11	32	4
25	36	1
142	142	4
27	38	1
85	86	6
72	142	3
92	103	4
111	128	4
43	52	2
127	130	1
68	70	3
50	51	7
60	80	3
21	24	2
78	108	2
25	33	1
6	36	2
11	33	5
28	39	2
93	123	2
101	122	2
40	139	1
42	146	2
69	70	2
100	101	1
39	47	3
99	113	2
137	137	9
84	85	1
73	76	1
81	81	9
18	127	2
78	83	3
4	17	3
119	120	1
134	138	3
13	14	3
28	47	2
119	135	2
14	16	1
6	20	2
85	141	3
19	26	3
129	132	1
88	95	2
121	129	3
19	33	1
65	70	1
111	127	1
108	132	1
70	74	1
30	46	3
0	12	3
131	132	4
103	135	2
16	94	2
54	62	4
9	63	1
104	126	2
127	129	3
111	113	2
139	140	1
85	92	2
117	118	1
99	102	3
104	131	2
53	71	3
83	139	1
30	62	1
51	67	1
84	99	4
121	138	1
81	89	2
51	69	3
53	62	2
129	141	1
65	80	1
63	94	2
94	97	4
49	68	5
74	80	1
89	89	5
0	11	2
101	132	1
64	71	1
67	96	1
47	70	2
83	84	1
93	112	4
121	123	1
30	36	4
69	142	2
104	133	4
119	137	4
16	39	3
0	20	2
118	119	5
9	11	4
130	144	1
52	65	2
16	21	3
41	53	1
19	21	1
73	91	3
32	34	2
37	51	3
90	103	4
40	61	2
48	58	3
116	121	2
121	145	1
69	84	1
30	41	2
9	19	2
77	83	2
54	56	1
39	54	1
0	111	1
10	82	2
124	126	3
85	87	2
101	102	7
119	129	2
72	88	1
78	89	1
81	136	2
56	92	1
31	32	2
29	34	2
8	12	1
2	19	1
63	64	1
8	60	2
8	93	3
77	78	2
120	121	6
81	90	2
2	5	1
122	123	8
68	120	1
55	111	3
57	71	1
39	42	1
107	136	1
49	64	2
20	34	1
99	114	1
132	143	1
18	22	3
16	104	1
80	92	2
68	69	5
19	34	1
22	28	2
79	105	2
63	97	1
116	123	1
87	88	1
79	108	3
1	30	1
59	61	3
65	115	1
73	74	4
14	55	1
128	144	1
102	134	3
4	9	1
120	128	5
27	144	3
53	59	1
66	104	1
78	96	1
22	143	1
52	93	1
9	60	3
24	25	2
0	34	1
81	84	2
79	106	1
134	139	5
94	95	3
49	63	1
131	134	1
17	122	1
0	32	2
57	67	1
59	87	1
51	76	2
63	68	5
16	19	3
74	79	3
50	70	1
75	90	1
118	128	1
10	24	1
23	24	5
53	61	2
93	100	1
5	15	2
72	98	2
5	91	2
19	116	1
134	137	2
110	111	2
126	140	1
47	56	1
89	98	1
137	140	3
67	68	2
123	124	3
1	78	1
95	98	2
6	40	2
47	72	1
118	134	1
20	23	3
61	81	3
83	123	1
104	121	1
88	91	1
123	133	3
53	74	1
57	72	1
6	24	1
120	135	1
120	130	2
114	132	2
78	97	1
99	101	5
103	134	5
70	85	1
102	123	2
55	58	1
32	33	1
12	26	2
50	52	2
48	96	1
13	27	1
29	32	1
33	48	1
2	50	2
78	91	1
16	42	1
4	20	1
16	110	1
15	128	1
47	50	1
48	59	2
36	77	1
34	36	1
87	91	1
21	38	1
48	49	3
4	8	1
70	78	1
33	37	1
122	130	2
4	98	1
123	127	2
4	25	1
109	125	1
2	4	1
117	136	1
86	126	1
108	109	1
109	111	1
22	42	1
15	26	2
42	43	2
40	54	2
88	92	1
3	98	1
34	53	1
29	65	2
78	98	2
116	128	2
21	23	1
33	39	1
8	61	1
29	62	2
15	36	1
85	94	2
23	28	1
113	131	1
114	133	1
135	137	1
121	128	2
77	93	1
104	113	2
50	69	1
62	72	1
53	72	1
91	109	1
73	142	3
13	29	1
52	56	4
33	43	1
59	70	1
113	117	1
142	143	1
33	34	2
85	95	1
115	130	1
2	140	2
141	143	2
24	38	2
1	15	1
129	145	1
84	92	1
115	137	2
50	68	1
97	103	1
87	89	2
43	79	2
43	127	2
24	34	1
36	39	1
104	144	1
15	23	2
101	112	2
53	58	1
27	30	1
68	97	1
84	87	1
15	16	3
84	140	1
28	30	2
94	111	2
56	64	1
48	124	1
40	41	3
126	131	1
124	127	1
31	38	2
8	102	1
79	107	2
92	125	1
119	131	1
80	94	3
107	108	1
36	38	1
8	15	2
100	127	1
65	114	1
35	43	2
48	72	1
121	142	1
65	98	1
108	133	2
28	42	1
77	105	1
89	117	1
3	23	1
127	132	2
12	27	1
10	15	1
133	136	1
49	59	2
10	21	2
54	69	1
116	124	2
55	60	1
73	90	1
8	30	1
20	128	1
10	18	1
58	67	1
109	131	1
128	130	2
115	141	1
52	70	1
14	23	1
51	55	1
113	122	1
18	33	1
136	143	2
19	25	1
13	23	1
72	85	1
118	132	1
72	110	1
30	35	1
24	43	1
0	128	1
15	111	1
70	97	1
128	141	2
94	105	1
83	94	1
2	20	1
50	58	1
90	139	1
70	80	1
13	63	1
16	23	1
101	108	1
24	26	2
67	95	1
119	144	1
131	135	1
50	63	1
67	79	1
69	93	1
106	111	1
54	73	1
3	16	1
18	36	1
43	43	1
121	143	1
81	139	1
77	89	1
105	112	1
92	126	1
61	99	1
43	48	1
19	24	1
1	91	1
83	87	1
21	22	1
110	117	1
42	59	1
67	85	1
4	32	1
116	139	1
62	66	1
138	144	1
2	10	1
68	84	1
119	141	1
57	62	1
10	16	1
17	59	1
39	41	1
133	135	1
102	109	1
24	54	1
58	110	1
