133	133	12
108	110	3
24	26	5
130	130	6
87	87	8
85	85	13
115	115	13
0	0	10
14	25	3
33	34	11
25	25	8
129	133	2
18	18	8
62	63	3
32	32	23
9	10	6
98	98	9
34	34	8
65	66	9
97	97	11
82	83	8
11	24	1
71	71	21
67	68	9
55	55	10
10	10	8
45	47	4
89	89	10
82	82	12
105	105	10
32	35	4
73	73	6
50	53	4
93	93	7
103	103	11
67	67	18
110	112	1
12	12	12
13	13	11
20	20	20
120	120	15
107	107	6
127	127	15
92	93	4
11	29	3
84	85	5
64	65	15
78	78	6
125	125	16
68	68	18
79	81	3
59	59	11
130	131	6
48	48	3
44	56	6
60	61	10
77	77	14
27	27	9
76	76	11
119	119	8
84	84	6
64	64	7
26	27	5
44	44	22
90	90	20
12	33	2
52	60	4
120	121	6
72	72	13
32	33	1
21	21	10
8	8	10
56	56	8
126	126	15
3	4	2
1	2	6
29	29	6
92	92	12
38	38	8
132	132	2
52	106	4
54	54	13
6	6	20
128	128	7
33	35	2
29	55	4
16	16	16
11	32	5
112	112	16
8	9	4
28	37	3
49	52	2
23	23	13
98	101	2
91	91	11
83	130	3
11	11	6
36	37	1
106	107	3
131	131	12
18	27	3
112	120	4
79	79	13
61	61	12
50	50	4
102	102	6
112	113	2
129	129	6
37	37	4
91	92	6
30	30	2
80	80	9
44	45	3
73	135	5
79	130	5
124	126	4
27	57	1
107	108	3
83	85	3
57	57	8
119	120	2
74	75	1
24	24	8
1	1	6
15	16	4
87	91	1
72	73	4
21	26	5
15	26	2
13	22	3
53	53	7
68	108	2
99	102	3
21	23	3
122	122	10
96	96	6
17	17	10
10	11	7
109	109	8
6	34	3
82	132	3
16	23	3
94	95	5
7	7	10
28	28	11
31	31	6
100	100	6
43	100	1
111	119	4
29	30	3
19	21	2
88	88	10
101	102	8
124	124	5
109	115	1
117	117	14
70	121	2
121	121	7
101	101	8
94	94	5
33	33	5
19	19	9
76	77	1
61	97	2
21	27	4
106	106	10
113	114	3
14	14	20
65	86	3
19	26	2
28	29	2
99	129	1
116	116	7
15	15	11
111	132	2
6	48	4
51	51	13
36	36	5
61	62	2
96	97	3
14	22	2
105	113	2
45	45	16
131	133	5
75	80	3
97	98	1
63	63	13
116	119	1
65	65	11
114	114	6
8	10	2
75	75	11
20	23	4
102	104	2
71	80	6
77	83	2
52	52	5
19	20	4
63	106	3
73	104	1
55	56	1
60	60	7
67	69	1
69	69	4
118	118	8
87	96	2
61	96	1
119	121	7
87	119	1
57	61	2
24	28	4
87	93	2
5	7	1
14	27	2
63	81	3
120	122	5
135	135	1
81	81	3
72	134	3
35	35	11
63	96	1
79	82	5
111	111	3
26	26	8
75	105	4
43	43	6
123	124	2
4	48	1
106	129	1
9	9	2
32	36	3
98	99	1
104	104	5
45	46	1
22	22	10
108	132	1
134	134	10
113	113	9
26	58	1
82	87	6
5	6	2
114	115	5
86	86	3
74	74	5
15	22	1
87	89	1
63	77	4
70	70	11
87	118	1
30	31	1
68	69	7
2	4	6
118	119	4
63	64	1
116	118	2
58	58	1
3	3	7
95	96	4
57	97	2
107	132	2
85	100	4
131	132	2
10	22	2
2	3	5
108	119	2
89	93	2
115	116	3
28	55	2
5	5	4
7	43	1
109	119	1
24	25	6
99	99	5
122	124	3
73	102	2
104	134	3
54	56	1
10	30	2
70	104	1
58	60	1
37	38	3
37	49	4
43	50	2
3	9	2
22	23	1
47	47	4
7	8	2
79	83	2
66	66	8
102	103	2
49	49	4
86	87	4
111	131	3
66	67	5
60	92	2
123	123	5
70	124	1
94	98	2
80	134	2
128	130	2
73	75	1
69	80	1
82	84	3
78	108	2
51	52	1
13	33	2
25	32	1
2	2	3
108	108	5
99	100	1
88	120	1
110	132	1
113	115	2
74	89	1
68	78	4
7	49	3
52	54	1
52	53	2
10	13	1
126	127	3
104	120	2
86	117	1
13	30	3
85	129	3
77	80	2
110	133	2
121	122	2
23	24	1
57	58	6
61	98	2
106	112	1
48	49	2
105	135	1
9	14	1
62	62	6
105	133	1
28	30	1
4	4	4
110	122	2
60	73	1
86	133	1
0	5	2
16	18	3
57	101	1
65	76	2
73	95	2
74	102	1
27	54	1
95	95	5
9	11	3
84	87	1
74	101	2
95	102	1
50	60	1
112	114	1
103	104	1
21	123	1
43	48	1
87	88	2
49	50	1
61	91	2
2	33	1
70	71	1
128	129	3
90	91	1
38	49	1
11	34	1
56	57	1
73	74	1
116	117	1
0	4	2
47	52	2
79	80	1
46	49	1
12	34	2
53	78	1
72	102	2
53	106	1
11	38	1
0	35	1
53	56	1
83	84	1
26	28	1
83	83	1
74	80	1
42	42	1
113	135	1
36	38	1
65	69	1
31	32	1
42	78	1
52	63	1
17	18	1
13	32	1
71	72	1
63	85	1
