88	88	16
29	29	8
61	73	1
90	90	10
36	36	2
26	27	8
66	66	9
84	84	8
42	74	1
95	97	3
66	72	3
80	80	7
74	74	9
86	86	7
77	77	15
49	49	11
74	75	3
63	63	14
35	35	13
70	71	1
54	54	9
24	24	6
72	72	12
70	70	23
66	67	6
44	54	7
53	53	3
67	67	19
92	92	10
79	79	13
37	37	5
40	40	12
69	71	10
28	28	4
59	89	1
55	55	8
71	71	25
75	75	15
51	51	6
46	52	2
69	70	4
25	25	8
85	85	9
64	64	14
48	48	5
89	89	19
69	69	11
67	69	3
59	87	2
59	73	4
59	59	13
78	78	13
30	43	2
87	87	9
94	94	6
79	87	15
60	95	6
62	62	5
81	81	14
55	56	8
52	52	5
68	68	8
96	96	6
99	99	7
47	47	8
24	25	5
77	78	7
83	84	4
65	65	14
33	33	6
81	100	2
62	82	3
80	81	12
46	47	12
52	89	3
35	38	9
68	70	4
75	78	1
81	82	2
95	95	2
80	89	2
95	98	2
51	80	5
91	91	7
38	55	2
48	50	4
76	76	10
100	101	7
42	42	9
38	38	3
27	84	5
34	44	1
100	100	5
25	26	2
93	95	1
45	55	3
32	88	1
98	98	15
96	97	5
31	31	3
45	52	4
82	82	7
69	72	1
66	70	1
72	91	1
52	55	4
93	93	5
40	41	6
83	83	8
57	89	1
37	56	3
68	73	1
61	61	11
54	56	5
22	22	4
39	39	11
70	72	5
30	30	3
56	56	2
34	34	4
26	62	3
46	46	4
41	42	8
94	95	4
73	81	3
20	22	3
59	68	4
46	87	2
87	89	1
43	54	3
43	43	4
76	78	5
33	85	2
33	34	1
52	60	4
70	89	3
45	45	4
101	102	1
93	100	1
51	52	3
53	55	4
57	68	1
73	73	12
71	72	10
66	69	2
73	74	3
76	83	2
60	60	6
59	60	1
47	55	3
85	88	2
74	84	1
58	58	1
88	89	1
26	26	5
90	93	1
91	93	1
47	56	1
57	57	2
90	97	2
97	100	2
31	32	1
79	80	3
80	100	1
98	100	2
61	88	1
82	84	2
76	77	5
63	64	2
51	57	1
48	49	3
93	99	4
41	41	3
61	78	2
59	102	1
52	81	4
68	69	1
95	96	2
61	87	1
97	97	5
52	54	4
51	87	2
88	102	2
87	88	2
81	99	3
70	90	2
27	27	1
60	83	2
41	75	1
45	53	1
37	38	3
50	50	2
36	48	2
57	62	1
39	49	2
78	88	1
20	26	2
28	29	1
89	96	1
36	38	1
62	71	3
91	92	2
101	101	2
99	101	1
41	67	2
71	76	1
42	50	2
57	84	3
70	75	1
49	50	1
54	79	1
61	62	1
23	34	1
56	57	3
46	55	1
29	47	1
81	88	1
96	98	2
90	91	2
54	55	1
54	89	1
62	72	1
77	85	1
42	49	1
61	72	2
86	87	1
61	74	1
26	58	1
68	74	1
20	21	1
89	97	1
75	89	1
60	61	1
60	69	2
37	41	1
92	94	1
41	80	1
61	80	1
44	44	1
46	85	2
55	87	1
91	94	1
77	84	1
61	95	2
20	25	1
79	88	1
59	61	1
