28	28	10
101	101	8
125	125	9
76	76	7
124	124	8
118	132	3
105	105	4
121	121	3
31	31	14
126	126	6
98	98	7
60	60	2
59	85	6
27	27	11
22	22	4
92	94	2
118	118	5
54	84	1
122	123	4
50	134	1
114	116	3
64	64	6
53	86	2
123	123	1
94	94	3
11	22	2
76	77	2
81	85	4
53	64	2
13	14	3
38	45	3
6	6	5
102	102	5
77	77	5
119	119	1
48	110	1
1	2	10
86	86	4
26	26	6
104	105	2
81	82	1
93	93	4
0	0	7
70	70	4
11	11	4
52	133	2
49	82	2
53	53	2
9	9	3
50	129	1
34	34	7
87	88	5
56	111	9
52	52	5
4	4	3
96	97	8
61	61	2
104	104	2
12	12	12
62	63	2
21	21	6
99	99	8
96	96	4
122	129	3
120	120	5
45	46	3
92	92	5
110	110	2
36	36	2
109	109	10
11	20	1
82	82	12
83	83	1
68	69	4
82	116	1
13	32	2
14	15	1
45	45	3
10	20	3
3	3	6
62	62	4
7	7	6
50	82	2
122	126	1
30	30	5
24	24	10
13	13	1
26	29	2
10	10	7
65	65	4
35	35	4
86	130	2
85	85	4
51	51	2
15	15	4
14	14	3
77	78	2
120	121	2
19	19	3
134	134	5
103	103	2
108	113	4
80	80	4
46	83	8
89	94	1
72	72	3
32	32	7
89	90	4
106	107	4
85	87	4
63	63	6
32	33	2
111	116	1
22	23	2
78	78	2
50	50	2
131	134	1
52	129	3
25	25	4
126	129	7
27	28	6
43	43	9
49	49	2
46	98	3
6	7	4
75	75	6
19	20	1
113	113	3
131	131	1
61	63	2
114	114	2
124	128	2
23	23	5
3	8	2
130	132	3
73	73	3
3	4	2
24	25	1
122	122	1
117	118	4
64	65	2
38	43	3
57	58	2
59	59	3
69	69	6
117	117	1
127	128	4
44	44	2
7	13	1
53	54	1
97	97	1
50	133	3
30	34	2
2	2	6
31	32	2
5	5	5
72	102	3
128	128	4
49	54	1
44	45	2
37	45	1
90	90	2
38	51	1
5	6	1
91	91	2
29	29	4
117	130	1
116	116	2
74	74	4
111	111	1
90	94	1
127	127	3
95	95	4
27	32	1
127	129	1
15	16	3
55	58	1
72	73	1
120	129	3
38	38	3
74	75	2
53	60	1
20	20	4
129	129	2
52	53	1
45	47	1
56	56	1
18	18	6
116	118	6
16	16	1
35	36	3
65	67	1
67	69	2
110	111	1
37	37	1
112	114	2
89	93	1
50	100	2
112	113	2
83	85	2
68	68	2
21	22	1
5	18	1
101	105	1
114	131	2
54	55	2
33	33	3
65	69	2
46	111	1
73	94	1
26	27	2
1	1	1
106	106	2
115	115	2
114	115	1
54	82	1
54	131	1
82	85	1
54	54	3
76	95	1
3	6	1
23	25	1
67	67	1
114	130	1
16	31	1
133	133	1
29	30	3
3	19	1
3	7	1
13	91	1
59	63	1
89	89	1
108	108	1
16	18	1
2	3	2
57	57	1
28	29	1
2	4	1
65	66	3
14	31	1
97	109	1
61	126	1
52	132	1
60	62	1
118	119	1
130	130	1
95	108	1
17	18	1
58	58	2
123	124	1
8	8	1
55	56	1
53	130	1
92	93	1
93	94	1
64	105	1
