76	76	2
20	20	4
103	103	3
81	84	5
4	4	3
86	186	2
82	82	2
164	164	13
57	57	3
43	44	1
43	43	8
26	26	4
35	35	2
39	39	5
160	160	3
129	129	6
53	53	11
157	159	1
42	53	1
6	7	1
5	8	2
145	146	14
174	174	2
12	13	3
150	150	6
72	73	2
38	38	14
25	25	6
17	17	6
71	71	8
22	22	3
97	97	3
11	45	1
43	58	1
169	169	6
138	139	5
40	40	2
112	112	4
101	101	1
169	171	1
134	135	5
122	122	6
119	119	4
148	148	1
78	79	2
121	121	15
11	11	7
10	10	4
44	44	9
34	34	5
152	152	2
183	183	3
153	153	6
117	119	4
178	178	4
147	147	5
45	45	3
93	93	2
92	92	6
6	42	1
154	154	2
13	13	3
38	168	3
80	80	3
134	134	3
188	189	2
23	24	5
150	151	1
59	59	5
1	1	3
67	68	2
31	32	3
23	23	1
45	48	2
180	187	3
99	99	5
171	171	2
145	145	9
172	174	3
33	33	2
187	187	2
141	141	9
169	170	3
62	62	6
34	35	7
125	127	4
76	133	1
77	77	1
85	128	2
79	79	5
139	139	1
98	103	1
48	83	2
47	47	2
90	90	6
94	94	1
83	140	1
54	55	6
103	104	6
78	78	5
84	84	4
27	28	3
135	135	6
90	106	1
177	177	4
68	133	1
62	63	2
7	7	5
124	125	1
178	179	5
131	134	1
29	29	4
110	110	2
155	156	4
3	3	2
8	10	1
27	27	5
91	91	10
66	110	3
41	41	2
160	163	3
88	88	4
81	81	5
61	65	2
69	69	1
113	113	4
168	184	3
108	111	1
180	180	1
107	107	5
170	170	4
104	105	1
149	152	2
21	64	2
65	65	2
128	128	3
118	118	1
6	6	4
21	24	3
78	80	2
163	164	2
190	190	1
73	73	4
186	186	3
83	101	1
123	123	2
133	136	2
42	42	3
105	105	1
111	112	1
105	107	2
46	46	5
155	155	1
136	137	3
52	52	2
166	166	5
6	56	4
33	188	3
117	117	1
93	94	1
30	31	5
25	31	1
48	48	1
32	32	4
102	165	4
86	86	2
58	58	4
102	102	2
3	5	1
96	96	1
79	88	2
61	61	2
173	173	4
45	92	3
126	126	3
155	157	2
188	188	2
114	134	1
40	110	2
177	187	1
164	165	1
183	184	3
2	2	2
146	146	3
104	104	2
7	8	1
140	140	2
68	68	5
4	5	1
179	179	2
108	108	3
176	183	1
35	91	1
176	176	2
17	22	1
72	72	1
19	19	2
12	12	1
45	46	1
148	161	2
182	182	1
189	189	2
151	151	3
76	110	1
20	106	1
46	63	2
157	157	2
164	183	1
0	0	2
136	136	1
177	181	1
100	100	2
60	60	1
101	103	2
149	185	1
104	130	1
184	184	1
172	173	2
66	66	1
125	125	1
161	184	1
44	61	2
87	90	2
115	115	2
162	162	1
84	85	1
141	144	1
28	28	1
26	29	1
5	6	1
62	129	1
121	122	1
173	174	1
160	161	1
146	147	1
