49	49	8
28	28	5
21	28	3
74	74	9
20	20	7
62	62	5
60	60	3
78	79	5
20	50	4
26	28	3
58	58	10
89	90	4
94	94	10
105	105	6
35	35	9
104	104	9
96	96	12
82	82	7
26	48	7
68	68	10
21	21	5
75	93	3
66	66	7
41	43	3
23	70	4
23	65	1
51	51	7
31	31	7
61	96	12
68	73	4
79	79	5
41	45	1
71	81	4
81	83	2
99	99	14
103	105	1
21	49	2
95	96	1
22	22	12
103	103	12
53	53	7
69	69	18
43	43	5
56	72	1
81	86	3
78	78	1
45	49	2
90	90	10
71	80	7
73	73	10
21	22	2
21	56	3
73	104	4
58	94	6
60	82	3
86	86	5
51	57	3
59	59	6
34	34	4
19	19	3
54	66	1
84	84	6
63	71	1
41	44	8
54	54	4
71	71	3
60	64	3
63	63	16
52	52	3
38	46	3
104	105	9
47	47	6
51	81	6
93	93	2
67	67	4
44	44	8
20	25	2
24	26	2
22	97	1
40	45	1
74	100	1
83	83	12
97	97	3
55	55	4
66	69	2
101	101	4
54	102	3
44	45	5
76	76	6
100	100	2
45	53	2
22	32	2
57	93	2
24	24	4
92	94	2
42	45	5
36	36	9
40	40	4
40	52	4
87	87	9
75	75	8
89	89	2
98	98	5
32	36	2
61	105	2
24	36	1
95	95	1
35	73	1
27	27	4
81	81	7
92	92	3
87	90	2
48	86	1
85	86	3
29	40	6
39	60	3
96	99	3
20	39	4
25	25	5
88	102	2
30	30	5
42	42	5
46	47	1
56	56	10
77	77	4
61	61	9
64	81	2
55	57	1
28	47	2
79	97	1
73	74	2
29	30	3
25	87	1
50	70	3
80	80	2
39	41	3
46	46	3
30	42	2
102	102	5
50	50	4
91	91	9
106	107	1
70	70	5
62	73	1
74	75	1
49	51	1
39	42	1
83	98	3
69	90	4
82	85	3
32	32	3
44	67	2
84	85	4
68	90	2
62	79	1
22	29	1
39	48	1
45	52	1
100	101	1
85	85	5
75	77	3
23	23	2
45	46	1
70	71	5
72	72	3
31	36	1
99	102	2
59	60	3
41	41	4
77	78	2
24	96	1
37	37	1
30	31	1
27	81	2
41	48	1
38	38	4
98	99	1
62	63	1
66	88	2
87	97	1
37	47	1
37	107	1
102	103	2
23	79	1
37	39	2
26	69	1
22	25	2
65	66	1
52	56	1
64	64	4
58	92	1
57	94	4
41	60	1
24	80	1
52	57	4
57	57	4
22	99	2
28	41	1
96	101	3
78	94	1
21	42	1
62	87	1
20	61	1
88	88	1
21	50	2
63	84	1
93	94	2
65	90	1
72	73	3
40	41	1
20	43	1
83	85	1
39	39	1
25	48	2
77	99	1
52	84	1
59	82	1
87	88	1
