70	71	2
88	88	4
78	78	3
89	91	2
38	38	2
57	57	13
2	2	8
123	124	3
104	104	22
22	22	6
57	58	2
99	100	1
77	78	8
70	70	6
69	70	5
79	81	1
100	107	1
107	107	5
56	56	13
102	102	9
0	0	12
48	48	14
86	86	2
92	92	9
66	67	4
101	120	3
70	78	2
123	123	5
118	118	9
27	27	6
132	132	4
20	20	5
112	112	12
102	133	3
69	69	9
0	46	3
1	2	1
109	110	5
87	88	6
105	105	15
24	24	12
29	29	10
40	41	1
79	79	10
117	117	3
9	9	7
106	107	1
73	73	6
81	81	5
78	86	1
122	122	6
124	125	2
23	23	8
61	68	1
8	8	2
106	106	4
127	127	4
126	126	4
50	106	2
33	34	3
25	34	1
114	116	2
75	75	6
68	68	11
121	121	9
116	117	1
11	11	4
73	74	5
105	106	2
130	131	3
111	111	10
113	113	8
80	80	4
112	113	1
44	44	5
101	101	4
127	129	3
62	62	5
124	124	12
33	33	2
63	63	1
14	14	5
10	11	3
70	73	3
51	57	1
12	12	15
101	102	3
78	79	1
100	100	13
120	121	3
5	14	1
4	33	4
106	110	2
64	97	1
64	64	8
66	66	5
109	109	7
16	16	6
99	99	10
49	49	6
53	53	6
120	120	4
83	89	2
30	30	2
115	115	6
87	87	2
93	98	2
72	73	1
26	26	4
125	125	7
50	50	12
67	100	5
98	108	1
126	127	4
71	73	1
71	71	1
19	19	6
55	55	6
80	81	3
93	93	6
128	128	5
95	95	5
110	110	10
76	76	4
22	25	1
72	72	2
3	3	11
25	25	2
64	98	1
104	110	4
86	87	3
39	39	9
83	84	1
114	114	2
103	103	8
128	129	5
98	98	5
116	116	3
82	82	13
89	89	5
23	106	2
89	90	2
115	116	6
98	102	3
61	62	3
13	13	2
8	13	2
42	42	5
23	42	5
97	97	6
131	131	7
33	38	5
86	88	2
43	44	1
93	99	2
97	98	3
69	77	2
47	47	6
94	96	1
117	118	3
52	52	7
44	45	2
65	65	6
94	95	1
29	33	4
96	97	4
91	91	5
61	61	5
67	67	2
84	84	2
59	59	3
96	98	2
113	114	2
77	77	4
46	77	1
85	88	1
100	102	1
128	130	6
31	31	2
14	15	4
119	126	2
43	43	3
56	57	3
98	106	2
22	23	1
55	108	2
52	112	2
42	43	4
32	32	5
117	125	1
31	32	1
82	83	1
95	96	1
104	111	2
89	96	1
4	4	4
107	108	6
69	80	1
10	10	1
46	61	1
39	62	3
25	28	1
80	85	6
15	15	4
51	51	3
90	91	2
40	40	1
46	47	1
129	133	1
44	63	2
94	94	5
78	115	1
58	58	1
61	69	1
62	63	3
49	50	2
68	69	1
92	93	2
63	72	2
46	46	4
41	41	1
102	124	1
122	123	2
0	1	1
5	5	1
16	19	1
54	54	5
90	90	1
51	52	3
89	93	1
6	48	3
64	65	1
18	19	2
132	133	1
17	17	1
111	112	3
1	1	3
28	28	1
65	67	2
85	85	2
83	111	1
19	20	2
83	83	3
84	85	1
18	18	2
2	7	2
127	128	1
100	101	1
45	47	3
58	60	1
52	58	1
118	125	2
95	113	1
71	86	1
60	64	1
96	96	2
118	132	2
118	119	1
97	99	2
6	6	1
86	93	1
90	99	1
63	64	1
15	16	1
25	41	1
123	125	1
17	18	1
24	106	2
106	108	1
16	21	1
54	61	2
28	31	1
118	131	3
24	50	3
48	49	1
7	48	1
9	49	1
60	60	1
88	89	1
95	116	1
93	94	1
81	85	1
3	39	1
108	109	2
79	85	1
7	7	1
63	93	1
78	89	1
30	32	1
32	33	2
54	59	1
12	13	1
38	46	1
108	122	1
59	64	1
24	107	1
21	22	1
88	93	1
31	46	1
89	92	1
18	20	2
119	119	1
120	124	1
49	51	1
78	96	1
130	130	1
30	41	1
102	103	1
