181	182	13
171	171	16
105	105	15
124	124	23
115	115	16
183	183	19
82	82	23
162	162	12
125	125	14
61	62	7
103	153	3
87	186	2
131	131	14
139	139	17
88	88	22
188	190	3
80	80	23
74	74	20
187	187	26
134	134	32
90	90	29
179	179	31
126	126	15
127	127	12
177	178	3
54	129	4
116	182	4
20	20	15
59	59	20
18	23	2
84	84	10
95	95	6
152	153	11
66	66	19
1	1	17
173	173	23
86	86	14
58	58	19
159	160	9
7	7	24
67	67	19
137	156	8
134	135	14
2	126	2
47	47	18
26	26	24
166	166	24
143	155	6
42	55	5
179	180	2
8	8	4
101	103	4
39	39	16
93	93	20
10	25	2
2	2	8
92	92	25
63	64	3
18	31	14
159	185	2
117	117	27
12	12	26
66	67	9
20	21	5
65	72	3
87	117	1
79	79	14
27	27	29
60	64	3
142	143	10
151	153	4
15	15	16
122	122	25
107	107	16
105	107	12
22	22	24
89	90	9
14	14	22
128	135	3
80	105	2
167	167	10
63	101	2
190	190	22
188	189	12
174	174	27
39	40	7
104	104	12
35	35	12
15	17	7
38	38	20
154	154	17
96	96	27
112	114	5
0	1	8
48	48	26
149	149	13
170	170	8
46	66	7
157	157	16
115	116	5
0	82	3
34	35	4
58	59	11
64	65	6
57	57	20
141	143	6
85	128	2
26	30	2
25	25	9
17	31	5
113	113	18
91	92	13
61	63	14
158	158	10
145	145	15
83	83	21
142	142	31
128	129	4
29	30	15
120	120	10
77	77	27
144	144	18
153	153	20
155	156	6
180	181	12
75	75	25
13	15	4
27	28	10
18	18	21
70	140	2
68	68	11
169	177	2
99	99	17
67	140	3
16	40	4
173	177	3
145	148	3
28	28	29
123	123	19
40	40	27
176	176	33
186	186	24
94	95	8
117	121	2
94	94	20
63	63	20
42	42	16
87	89	5
137	137	14
127	128	5
81	81	16
150	150	35
5	5	23
159	159	14
124	125	11
165	187	4
16	57	3
68	72	3
130	131	11
175	176	5
130	149	2
160	160	14
60	60	8
46	48	7
65	66	12
65	68	11
78	78	23
17	17	16
103	103	9
125	126	7
117	118	8
41	42	6
16	16	24
22	54	4
10	12	5
100	100	15
146	146	9
137	139	2
98	99	7
188	188	23
34	34	4
148	158	2
36	37	6
21	21	15
24	24	14
113	161	3
41	43	4
38	39	5
53	54	4
114	115	4
136	138	8
110	110	11
5	6	1
115	161	2
164	165	10
32	32	10
178	178	21
10	10	19
102	154	7
86	87	4
181	181	12
147	147	32
101	101	23
97	153	3
30	30	25
108	112	5
178	179	3
167	179	2
164	164	16
36	36	16
72	72	21
83	84	7
52	52	4
85	85	14
114	114	16
136	139	1
42	56	3
80	81	8
31	31	17
151	151	12
157	158	1
16	17	13
95	96	8
33	33	9
148	151	2
168	168	24
85	127	1
23	23	18
3	3	13
78	122	5
119	119	12
170	172	5
90	98	2
15	30	3
183	184	3
120	131	3
13	28	5
100	107	5
184	184	19
10	13	10
41	44	4
72	73	6
19	19	20
101	104	4
86	118	2
13	13	30
98	98	16
93	177	2
77	79	4
169	169	13
5	7	8
99	163	1
165	165	16
39	129	2
144	146	5
62	62	11
110	111	9
118	119	15
56	56	26
102	103	6
4	85	1
54	54	14
132	132	18
171	172	9
82	96	2
147	155	2
99	100	4
41	59	1
26	27	4
41	41	20
44	44	18
63	77	3
114	160	1
121	121	15
94	96	4
45	45	17
74	155	2
109	109	8
53	53	9
168	169	6
88	89	5
84	85	9
117	120	2
71	71	14
124	127	2
83	123	3
130	130	16
185	185	9
27	29	1
22	150	4
97	97	25
11	11	9
43	43	10
80	149	6
13	14	6
0	0	13
23	149	1
11	27	2
76	157	2
11	12	6
21	48	1
133	133	10
89	91	9
46	46	25
172	172	16
22	23	10
143	143	15
3	83	5
91	175	2
106	180	9
47	48	12
136	136	2
146	147	6
154	155	5
75	156	11
82	130	6
90	95	1
182	182	15
170	173	1
37	38	4
126	128	2
103	104	6
106	106	10
173	174	6
10	17	2
65	67	5
145	146	6
30	31	13
53	74	2
28	29	7
42	53	4
111	111	5
169	170	6
70	70	13
21	22	3
75	76	3
138	138	5
64	64	12
101	105	2
14	16	1
87	88	5
153	155	4
23	150	3
128	128	12
156	156	21
56	57	9
55	55	12
43	44	8
35	36	1
6	7	7
87	87	11
93	190	2
184	185	11
160	180	4
171	174	2
153	154	4
116	116	17
163	164	3
40	52	2
148	148	13
163	163	9
90	96	1
140	141	5
6	6	18
25	26	15
175	175	8
119	120	5
170	176	4
142	145	1
115	129	2
129	130	4
63	98	4
94	169	4
160	161	3
65	65	10
105	106	6
169	174	5
8	9	2
136	137	10
16	31	4
114	162	5
140	140	11
103	110	3
86	102	5
148	155	2
31	33	2
135	135	7
10	14	3
14	15	4
88	101	2
4	4	10
9	9	2
122	124	2
82	83	7
135	137	4
163	166	3
91	91	23
9	14	6
123	125	2
53	57	2
109	111	2
1	2	2
89	89	17
19	31	1
125	153	3
76	76	33
35	146	2
187	188	10
13	47	3
124	126	4
155	155	23
77	120	2
162	184	3
23	37	2
11	15	1
46	47	3
120	121	4
96	97	7
86	88	1
183	189	2
96	98	2
163	180	3
80	153	1
16	25	2
112	112	10
21	47	2
73	73	6
60	104	2
32	33	7
24	25	6
37	37	14
80	100	7
162	185	2
189	189	12
60	62	1
102	107	2
172	173	13
181	183	6
5	127	5
88	109	2
104	105	2
182	183	3
129	129	10
104	154	2
180	180	15
150	151	6
99	116	8
61	107	3
12	18	1
137	154	3
70	155	2
71	161	2
80	132	3
17	27	1
40	42	1
65	88	6
62	110	2
125	152	3
177	177	5
83	96	4
29	29	8
54	56	1
152	152	13
187	189	4
102	102	8
55	56	3
45	46	3
97	98	5
138	139	8
77	131	3
91	93	6
7	8	2
52	55	2
114	159	3
77	81	2
58	76	2
132	135	1
8	13	3
4	152	2
108	110	2
86	152	2
112	113	2
101	148	3
54	81	1
85	86	1
100	102	1
79	130	1
149	182	5
148	150	2
17	25	6
15	20	2
22	151	1
34	146	4
111	112	4
159	184	1
63	107	2
161	162	3
99	101	1
106	110	1
108	108	8
92	93	9
118	118	10
63	112	3
73	110	5
19	20	5
68	69	1
20	153	2
141	141	13
62	63	10
114	183	3
137	138	10
161	161	3
133	138	3
19	34	2
147	148	7
4	7	7
104	155	4
62	108	1
68	73	3
133	160	3
98	170	2
18	19	5
140	156	2
107	108	3
55	57	3
126	127	3
161	180	3
94	189	6
176	182	2
72	113	2
100	164	2
14	110	1
19	23	1
67	68	5
12	13	1
54	82	1
40	41	2
60	61	6
33	34	6
36	134	1
156	157	1
119	141	3
189	190	5
79	153	1
116	117	1
157	160	5
22	147	2
151	152	1
71	109	2
141	144	2
168	170	1
40	127	1
73	74	4
79	82	2
170	171	2
66	88	2
126	129	5
95	97	5
105	180	5
88	98	1
67	92	3
169	175	1
57	78	2
100	106	1
37	41	1
32	74	3
109	110	2
54	151	2
88	96	1
28	30	3
77	156	1
77	78	3
69	70	2
162	163	3
141	142	3
98	115	2
77	153	2
21	37	1
59	74	8
86	116	1
42	44	1
12	15	1
10	11	1
149	151	3
110	151	1
9	13	1
104	158	2
134	137	2
57	110	2
44	56	1
182	184	3
70	110	1
179	181	3
73	114	1
79	81	2
72	112	7
165	167	4
186	188	2
85	121	2
122	123	6
135	136	11
99	115	1
16	54	1
116	118	2
160	181	2
59	75	1
32	34	2
34	48	1
1	6	1
23	24	3
30	64	2
48	49	3
34	36	4
163	165	1
106	107	3
161	190	2
79	121	2
131	160	3
154	158	1
1	38	1
52	53	2
98	116	1
173	175	2
172	174	1
21	46	1
57	109	2
71	111	1
17	26	3
4	5	2
137	147	1
53	55	5
132	133	3
146	156	1
147	156	1
176	183	1
98	169	1
86	185	1
148	149	2
131	149	2
71	72	2
163	187	2
118	174	1
1	3	2
117	176	3
134	157	1
93	176	5
12	38	1
16	35	1
139	140	4
57	58	1
75	121	1
78	79	4
178	182	3
42	48	3
2	3	1
63	75	1
115	158	2
84	86	1
8	16	2
15	16	1
73	76	3
165	178	1
62	64	2
178	183	1
169	171	1
166	167	3
157	185	3
75	120	4
73	75	1
34	40	1
80	135	2
61	61	9
73	112	1
96	99	2
114	158	1
57	59	1
101	151	3
70	71	5
146	155	1
133	134	1
119	175	1
12	27	1
55	95	1
121	127	1
173	178	1
94	178	1
81	113	1
32	65	1
141	176	1
77	80	2
27	30	2
14	29	2
37	47	2
13	46	1
41	57	1
90	91	1
111	183	1
62	150	1
174	175	2
22	129	1
44	45	1
19	113	1
114	129	2
101	106	2
101	150	1
84	97	1
18	30	1
119	122	2
66	68	3
60	63	1
143	144	1
79	155	1
81	100	1
63	109	1
72	111	1
140	146	1
121	142	1
83	97	1
76	77	1
64	89	1
166	179	1
118	176	1
5	8	1
148	180	1
77	122	1
113	160	1
79	80	1
160	162	2
66	90	2
140	145	1
71	138	1
122	131	1
78	155	1
127	135	1
113	114	1
129	161	1
21	38	1
58	75	1
117	119	1
42	59	1
130	135	1
