108	108	11
149	149	3
144	144	5
160	160	10
23	23	8
13	14	2
143	143	2
31	42	2
125	133	2
99	99	5
19	19	4
164	164	5
152	152	5
163	163	7
45	45	5
12	50	2
25	26	2
34	59	4
65	65	2
171	171	6
176	176	6
150	150	4
186	186	11
166	166	2
116	116	6
145	145	6
28	28	4
73	114	3
99	114	1
111	111	3
48	49	3
154	154	5
31	32	2
24	24	6
123	123	6
169	184	3
168	169	3
141	141	8
112	112	6
105	109	2
135	135	5
100	100	11
98	118	2
30	30	5
58	110	3
184	184	4
126	126	6
16	16	11
153	153	3
193	194	3
32	32	4
121	121	6
107	108	4
87	88	3
160	161	4
139	140	5
194	194	15
114	115	4
133	166	4
10	10	3
2	2	3
37	38	2
187	187	2
36	36	4
65	68	5
159	160	2
18	19	1
96	120	4
162	162	1
156	156	6
79	79	4
111	112	1
120	123	1
192	192	4
53	53	5
63	63	6
188	188	4
180	180	10
155	157	1
60	60	6
196	196	13
88	89	2
77	77	5
21	21	4
143	145	2
22	35	3
77	86	3
189	189	10
85	85	3
29	29	2
15	15	2
51	51	1
94	94	3
56	56	2
31	31	13
46	46	5
130	130	3
129	129	2
123	139	1
155	155	9
195	195	4
115	115	4
120	120	6
71	72	1
106	106	4
149	150	1
133	133	4
168	168	11
8	8	1
109	128	3
125	128	1
100	112	2
179	179	3
107	148	3
69	69	7
188	189	2
41	45	1
140	140	3
34	34	5
167	168	2
98	120	3
172	172	9
54	55	3
5	6	6
62	144	2
132	132	3
128	128	4
22	25	1
73	73	3
16	45	2
182	182	5
137	137	7
52	52	1
97	118	2
121	122	3
6	6	2
81	83	1
26	62	1
5	5	5
34	35	2
51	52	1
110	122	1
58	58	6
175	176	4
179	181	1
157	158	1
0	0	5
45	57	1
89	89	4
21	23	2
46	52	4
152	155	1
54	54	1
42	42	8
25	25	2
78	78	5
185	185	9
76	76	2
50	51	1
14	14	6
47	47	5
177	178	1
127	127	3
177	177	5
18	18	3
194	195	2
181	181	4
135	136	1
6	8	3
130	133	3
61	61	5
121	123	4
183	183	10
32	119	1
116	117	1
109	109	2
83	83	1
12	24	1
172	173	1
192	193	2
171	178	2
72	72	2
161	161	8
32	33	2
39	40	2
103	103	2
148	149	1
146	146	2
171	176	1
174	174	1
183	193	1
99	115	2
62	63	1
38	39	1
27	28	1
13	13	1
62	62	2
101	102	1
11	11	8
174	175	3
17	18	2
57	57	5
8	54	3
144	145	2
187	188	6
186	195	1
107	179	3
96	121	1
142	142	3
97	132	1
76	77	3
18	31	2
123	140	1
120	166	1
0	4	2
122	122	1
79	117	1
173	174	1
67	67	1
110	110	5
80	80	5
159	159	3
13	51	1
120	121	2
27	30	1
74	74	1
125	169	1
101	101	5
49	49	2
71	71	2
77	78	1
193	193	4
81	88	2
14	59	3
27	32	2
0	1	1
152	163	1
185	186	3
88	121	1
41	46	2
195	196	1
59	140	1
66	66	1
26	27	1
138	160	1
125	125	1
43	44	1
55	55	4
165	166	2
134	134	1
150	184	5
56	58	2
114	114	2
37	37	1
130	134	1
111	113	1
66	73	1
64	64	1
123	124	2
41	41	2
6	7	2
96	96	2
36	37	3
12	13	3
119	119	2
119	120	1
169	180	1
31	37	1
15	60	2
24	27	1
97	121	2
58	59	1
165	165	1
170	170	4
15	17	1
157	159	1
131	132	1
50	50	2
1	1	3
129	138	1
4	4	1
169	169	3
162	164	1
117	117	2
23	27	2
26	26	2
125	186	1
25	151	2
147	152	1
55	58	1
109	139	1
141	170	2
100	101	1
113	113	5
190	190	1
103	117	2
16	31	1
23	35	1
148	155	1
99	152	1
12	12	1
46	71	1
121	144	1
148	148	2
1	2	1
9	9	1
24	25	1
154	155	2
67	68	1
59	59	1
3	3	2
27	27	3
35	35	1
97	97	1
124	124	1
110	111	1
155	156	2
163	165	2
103	118	1
197	197	1
88	88	2
151	151	1
81	82	1
19	23	1
15	16	1
118	118	1
14	71	1
156	157	1
95	96	1
102	110	1
48	50	1
20	36	1
141	142	1
143	144	1
158	158	1
43	43	2
142	159	1
178	178	1
47	152	1
95	95	1
53	57	1
38	38	1
84	84	1
8	9	2
125	171	1
138	138	1
93	97	1
29	63	1
181	182	1
69	74	1
78	85	1
99	104	1
48	48	1
