77	77	5
120	120	5
90	90	5
88	116	3
30	31	9
22	23	3
123	123	15
131	132	2
107	107	11
89	113	1
113	113	3
89	89	1
16	16	3
2	2	2
36	37	7
80	80	4
96	96	7
95	95	6
12	14	3
99	101	1
79	79	6
74	75	9
37	80	1
75	75	1
134	135	4
116	116	11
23	26	1
16	21	1
126	126	1
92	92	5
114	119	3
130	130	8
31	31	10
81	90	2
125	125	6
111	111	2
73	73	4
38	38	12
133	133	3
121	121	4
81	83	4
78	78	8
83	83	4
81	81	8
110	111	7
103	103	5
122	122	17
36	36	7
88	107	4
84	84	2
112	112	12
7	7	9
97	97	8
73	74	2
22	22	3
12	13	3
132	132	6
93	93	2
108	109	1
34	36	3
129	129	6
35	35	7
87	87	3
106	120	4
10	10	3
29	30	2
27	27	5
23	24	1
103	104	8
25	25	1
86	86	3
38	80	5
17	17	5
17	19	4
12	12	1
38	44	2
140	140	3
104	104	3
87	88	9
94	96	2
34	34	5
117	123	1
125	126	1
128	128	2
37	37	3
98	98	3
0	1	2
29	29	1
13	16	1
116	126	5
91	91	3
139	139	2
89	115	3
0	0	1
19	20	1
2	34	1
124	124	1
97	98	5
101	102	5
20	20	4
124	126	3
99	99	3
94	94	4
93	94	3
28	28	1
6	6	1
34	35	2
3	3	2
72	72	3
79	91	3
37	38	4
17	18	9
76	77	5
13	13	3
138	139	4
85	85	2
21	21	1
24	25	1
33	34	1
94	95	2
74	74	11
112	113	4
26	27	5
13	14	1
89	90	1
134	134	3
120	122	3
33	33	3
95	96	2
127	127	2
14	15	2
22	32	1
82	85	2
29	84	1
106	106	2
110	110	5
23	23	2
84	85	3
113	114	3
75	77	1
119	121	2
106	107	6
1	1	6
128	129	1
101	128	1
78	79	1
137	137	3
7	13	1
30	30	1
80	87	2
108	108	1
13	15	1
6	9	1
15	15	1
8	8	2
2	32	1
118	118	1
11	11	1
102	102	2
115	123	1
94	115	1
88	88	1
81	89	2
117	119	1
82	83	2
135	135	7
5	25	1
15	16	1
116	122	1
119	119	1
100	101	2
83	85	2
119	120	2
35	125	1
18	18	2
117	117	1
32	32	1
120	121	1
31	32	1
104	105	2
5	27	1
14	14	1
114	114	1
81	82	1
118	119	1
80	82	1
136	136	1
109	109	1
98	126	1
