118	118	11
6	6	10
60	60	19
16	17	10
106	106	12
119	119	11
21	21	14
9	10	14
79	82	3
87	87	11
6	133	2
129	129	10
44	117	2
89	90	6
134	134	27
79	79	16
131	131	18
123	123	24
114	115	11
69	69	8
107	107	13
10	38	2
18	19	4
85	86	7
29	29	18
105	105	10
9	9	23
94	94	12
33	33	10
114	114	23
5	85	2
54	54	23
92	95	1
7	13	3
65	65	19
120	120	10
27	27	11
118	120	2
13	73	1
61	61	27
97	98	6
78	78	4
112	113	3
30	30	24
3	3	7
115	115	7
88	88	9
124	125	6
60	61	6
127	128	7
7	7	18
34	34	19
72	72	20
101	121	1
28	29	9
68	132	3
7	9	5
16	31	4
14	14	20
102	103	9
30	32	6
44	45	1
75	75	24
23	23	6
42	44	2
8	26	5
62	62	15
14	15	1
73	73	18
11	11	14
56	109	1
50	86	2
15	15	11
8	9	1
116	116	9
50	85	1
120	121	7
24	25	7
79	118	1
86	86	11
31	31	10
22	22	11
128	128	2
25	25	10
95	107	4
104	104	17
120	127	1
102	102	12
111	112	4
19	20	7
93	94	3
117	117	10
122	122	7
96	96	21
121	127	1
16	16	6
113	113	1
5	5	21
107	117	3
96	118	8
103	104	5
53	86	6
53	54	5
126	133	3
96	119	4
34	35	11
110	110	6
98	98	15
44	44	12
90	90	9
33	34	5
72	73	3
121	122	8
50	50	11
88	89	4
0	0	10
32	64	2
130	132	7
97	108	1
45	45	4
53	129	13
30	36	3
52	128	3
82	95	2
11	25	2
35	35	2
68	68	8
10	83	4
59	59	12
30	31	2
121	121	8
32	33	5
44	67	3
81	81	11
36	36	12
20	20	12
13	14	14
59	60	4
19	19	10
120	122	7
113	121	4
80	80	15
95	96	18
127	127	5
106	129	2
101	101	6
124	128	3
43	43	9
55	56	2
98	99	7
86	87	4
67	133	3
108	108	11
125	125	16
92	92	16
79	80	3
118	119	9
72	76	4
69	70	4
12	12	13
26	26	7
100	100	10
28	36	3
68	69	2
116	121	3
89	89	2
8	8	4
124	124	8
58	61	3
59	63	2
63	66	4
132	132	4
122	123	4
24	24	9
12	13	4
73	74	8
66	67	1
49	49	6
53	87	1
95	95	9
32	32	15
2	2	6
80	81	1
59	61	6
55	55	11
50	51	3
76	76	5
45	131	1
1	5	3
14	64	2
74	74	9
126	134	3
99	99	2
38	84	4
112	112	11
97	97	6
113	116	6
91	91	9
18	18	18
99	100	3
1	1	4
82	82	3
126	126	6
62	102	2
93	93	5
27	28	1
26	27	11
101	114	1
111	111	18
109	109	8
133	133	5
56	57	2
6	130	4
49	85	4
30	34	4
129	133	3
82	107	1
71	72	5
10	10	1
109	110	5
70	70	9
37	38	1
58	59	6
63	64	2
61	62	6
50	65	2
13	13	5
16	79	2
42	42	2
84	84	6
23	31	4
96	108	3
62	63	2
135	135	5
126	127	16
92	93	3
0	134	1
11	35	5
90	92	8
30	105	2
17	19	4
74	93	2
2	11	3
43	80	2
57	57	2
4	5	2
130	131	1
31	34	3
10	35	1
106	128	3
25	65	1
49	67	1
31	33	1
130	130	2
1	84	2
25	26	3
104	105	3
88	92	4
86	96	3
55	59	1
48	49	3
103	103	9
73	135	2
31	32	5
9	11	3
1	9	3
94	95	1
0	7	1
71	71	9
91	92	2
5	12	2
16	38	1
56	108	2
35	36	3
119	120	4
76	96	2
45	116	1
5	6	2
124	131	1
50	116	3
64	64	13
96	97	7
16	34	4
105	120	1
27	65	1
110	113	6
52	96	2
24	32	3
10	11	2
17	17	6
29	65	1
82	84	2
115	116	1
7	8	1
85	85	2
5	45	1
62	66	2
9	26	2
28	37	1
68	87	1
134	135	2
57	107	2
43	47	1
4	132	1
36	38	2
28	34	4
20	21	2
91	120	1
15	38	1
38	80	1
82	83	1
90	121	2
63	63	1
19	21	2
25	64	3
29	30	1
78	79	3
128	133	2
54	125	1
4	9	2
75	76	3
4	4	3
23	24	1
112	121	3
38	38	3
2	42	1
89	123	1
112	119	2
125	132	3
67	67	2
3	37	1
105	123	2
109	126	1
8	10	3
52	52	1
17	18	2
70	71	2
57	58	2
27	64	3
53	53	4
100	126	4
3	43	1
56	122	2
44	113	2
0	3	2
20	55	1
0	1	2
59	118	1
100	109	1
2	37	1
2	43	1
100	127	1
5	63	2
50	84	3
56	83	2
58	58	2
106	107	1
54	57	1
125	126	4
28	28	2
26	28	1
37	37	1
58	63	1
11	12	2
15	16	5
52	53	1
122	124	2
108	113	2
83	84	2
43	78	1
21	22	1
107	127	2
77	78	3
6	35	1
21	23	3
29	33	3
9	24	2
73	94	1
44	114	1
45	46	3
43	87	1
29	36	1
17	32	2
5	35	2
22	23	3
101	102	1
77	77	3
77	79	2
77	83	1
37	77	1
13	15	2
123	124	1
66	66	3
43	89	1
6	7	1
63	65	2
5	36	2
43	86	1
79	84	1
87	88	2
52	117	1
56	56	1
49	84	1
85	130	1
97	110	1
11	24	1
22	54	1
121	124	1
20	31	1
90	91	1
112	120	1
28	30	1
124	133	1
