114	114	11
110	110	5
21	21	10
169	174	3
139	139	20
61	61	2
128	128	7
145	145	19
113	146	2
112	112	16
33	33	16
35	35	15
57	57	10
96	96	12
36	37	6
29	31	2
71	71	10
138	138	13
62	97	3
133	134	3
123	125	6
15	31	4
176	176	12
9	9	12
111	114	7
89	89	18
116	116	10
126	126	27
32	32	3
111	116	2
164	164	4
152	154	3
88	89	11
43	43	14
153	154	5
50	50	7
116	117	4
67	67	8
163	163	8
95	95	21
87	108	7
161	161	6
25	25	4
148	176	3
54	57	2
54	86	6
3	3	8
179	179	19
81	87	2
3	6	1
86	100	6
148	148	20
0	7	1
72	72	11
156	156	9
80	91	4
154	154	6
56	57	9
19	45	1
156	157	6
175	175	7
94	94	6
99	109	2
50	59	3
16	33	1
155	157	2
140	140	9
76	77	8
174	174	17
24	24	7
29	29	13
54	65	1
14	38	3
35	36	4
124	125	7
7	7	15
124	124	17
51	121	1
11	45	4
53	53	4
82	82	15
106	106	9
150	150	17
152	155	2
168	168	4
23	29	3
87	87	13
18	96	1
162	164	2
61	97	2
53	57	3
30	109	3
128	157	2
125	134	1
73	73	11
130	130	9
59	59	5
159	159	13
151	152	6
105	105	8
153	153	25
141	141	7
18	18	8
101	101	9
84	88	1
77	77	4
91	92	7
17	17	3
14	14	8
61	180	1
143	143	10
29	33	2
99	99	4
36	36	12
24	25	8
157	165	4
51	51	11
146	146	10
0	0	8
14	68	4
58	58	3
60	60	4
157	157	9
55	56	4
135	135	11
147	178	5
173	173	5
10	31	1
81	81	8
106	119	5
31	31	8
67	68	3
86	92	2
23	23	5
167	167	20
109	109	10
135	157	2
68	68	5
99	100	1
65	92	2
85	100	4
34	34	5
162	163	5
138	140	2
105	106	5
98	98	7
133	133	8
63	64	3
31	96	1
64	64	12
107	107	8
104	104	8
78	126	1
143	159	5
38	38	5
174	176	4
111	161	1
171	171	7
178	178	17
21	27	2
3	4	3
22	22	3
42	42	7
49	51	1
79	79	12
172	174	3
93	159	2
83	89	3
37	37	12
15	15	10
9	10	4
76	76	12
4	4	10
97	98	8
75	75	16
134	134	10
10	14	4
147	148	3
2	106	1
27	27	12
4	43	1
113	123	2
127	127	5
143	145	3
65	65	15
157	158	3
20	21	1
117	117	16
174	175	1
154	156	1
90	90	5
121	122	2
111	112	6
66	66	16
98	132	4
13	13	13
64	65	2
23	28	8
59	61	3
155	165	2
165	166	3
11	11	4
91	91	5
49	49	2
120	120	12
121	121	9
92	94	6
102	102	11
8	22	2
144	144	9
37	38	9
10	30	4
2	71	1
76	176	3
149	154	2
130	131	6
11	25	2
131	133	2
3	45	2
10	10	16
96	109	2
6	33	1
57	125	2
123	136	3
77	101	2
85	86	2
137	137	15
165	170	2
83	84	5
88	88	12
136	136	5
66	69	1
129	129	6
18	52	2
80	81	5
62	63	5
78	78	6
124	126	2
150	151	6
83	159	1
100	101	3
146	172	1
102	110	3
31	32	1
6	15	1
2	2	14
87	109	1
125	125	11
178	179	2
52	139	1
27	28	9
62	62	13
51	52	1
75	151	3
6	124	2
152	157	1
122	122	8
78	123	5
5	7	3
3	33	6
10	11	2
53	74	2
63	63	9
10	40	4
94	95	4
131	131	8
5	12	3
101	108	2
165	169	6
38	68	1
83	83	7
33	49	2
55	55	10
37	40	4
169	169	7
147	175	2
39	40	4
88	107	2
149	149	9
12	26	3
80	84	2
73	74	6
76	146	1
44	44	10
84	101	1
113	128	4
74	74	14
74	76	2
8	8	2
97	97	2
84	84	1
22	95	2
165	165	3
12	13	8
19	19	11
101	107	1
103	110	1
66	70	1
26	27	1
173	177	3
96	131	2
78	121	2
52	52	4
58	60	2
92	92	16
154	155	7
28	29	7
103	104	7
5	43	3
130	148	1
128	159	3
94	97	1
156	165	3
171	172	4
49	82	2
56	56	8
2	13	7
1	1	5
62	107	1
145	172	1
86	108	3
45	45	6
40	40	4
108	108	3
75	76	2
112	149	5
13	14	7
88	91	3
89	90	3
164	165	4
143	144	6
92	93	4
132	132	6
56	66	1
118	119	1
103	103	2
95	96	8
148	153	1
50	51	4
0	77	1
62	108	3
64	66	5
55	120	2
60	87	3
73	132	3
104	105	4
41	41	7
115	116	3
39	39	6
116	140	2
157	164	4
122	137	4
147	163	1
12	12	8
108	109	2
172	172	6
131	148	1
151	151	6
75	159	3
170	170	12
118	118	12
142	142	3
58	72	1
130	145	1
126	127	4
158	158	8
83	120	2
177	178	2
142	172	2
99	131	1
28	28	5
85	127	1
77	78	1
36	39	1
110	116	4
79	80	5
152	152	5
131	160	2
6	6	13
180	180	3
64	83	1
135	136	1
36	40	3
80	80	7
132	134	2
3	35	3
123	123	4
164	166	1
7	10	2
107	130	5
50	52	2
82	83	1
177	177	2
148	152	3
5	5	5
166	166	7
113	113	4
151	156	2
70	71	2
2	16	2
49	79	3
49	135	2
148	150	1
164	167	3
81	121	1
16	17	7
23	50	3
1	3	1
145	146	3
102	104	4
112	179	1
169	171	5
16	16	1
52	53	3
114	115	1
128	130	1
86	87	4
96	97	4
28	123	2
144	145	5
93	121	3
101	173	4
127	128	2
20	20	2
92	107	2
30	30	3
106	107	1
109	110	1
1	2	4
34	35	3
112	118	1
22	51	1
86	131	1
147	147	5
129	136	4
107	109	1
98	170	2
11	12	1
114	122	1
119	123	1
24	123	2
93	94	3
22	50	1
53	55	1
75	145	2
148	157	6
81	82	6
104	106	3
90	94	2
119	119	3
76	78	2
84	110	1
145	163	3
32	75	2
50	60	3
126	128	1
30	31	3
1	7	1
16	21	1
53	54	5
107	108	2
62	71	1
141	179	4
160	160	4
83	100	1
160	176	1
117	118	1
162	172	2
152	153	1
162	176	1
75	160	1
81	135	1
118	120	1
112	113	2
29	30	1
132	133	4
65	94	1
9	16	1
86	128	2
129	134	1
102	103	2
113	120	4
115	129	1
110	119	1
157	163	1
113	114	1
128	129	1
35	41	2
111	128	2
19	20	2
19	96	1
110	128	1
38	39	2
164	169	1
5	26	1
111	111	2
66	67	1
59	60	3
63	140	1
60	61	2
90	138	1
155	156	3
131	132	1
37	67	1
31	64	2
146	147	3
21	22	2
136	137	1
26	26	1
126	171	1
70	70	2
51	78	1
103	107	3
71	72	5
93	93	2
168	176	1
12	20	1
115	128	3
125	127	2
112	167	1
157	172	1
158	162	2
154	157	1
49	60	2
137	155	4
75	79	2
137	141	1
111	167	3
59	81	2
18	19	2
5	124	5
34	41	2
49	81	1
90	93	1
84	120	1
160	163	5
119	121	1
66	68	1
23	24	1
6	37	1
0	39	2
65	91	1
146	174	1
62	126	1
50	87	1
97	177	1
88	124	1
46	46	1
148	149	3
68	76	1
5	33	1
100	100	3
114	124	2
158	171	4
83	114	2
132	150	2
16	105	1
144	175	1
32	49	1
1	40	1
5	6	1
162	162	2
25	29	1
54	56	1
168	169	1
91	95	3
130	153	1
177	179	2
58	61	1
101	145	4
113	116	1
106	122	2
25	26	1
100	107	1
173	174	1
9	11	1
74	145	2
91	109	1
2	3	1
36	41	1
55	134	1
62	96	1
141	158	1
76	110	1
68	74	1
34	36	1
1	5	1
26	43	1
68	110	1
175	176	2
115	115	4
118	135	1
169	170	2
167	168	1
160	165	1
54	68	2
134	149	1
52	81	2
64	82	2
92	121	2
68	92	1
31	42	3
92	108	1
85	115	1
2	12	1
14	15	1
128	158	1
80	88	1
160	161	2
107	135	2
55	139	1
42	43	2
51	87	1
96	108	5
59	74	1
54	60	1
98	162	2
7	14	2
0	78	1
17	52	1
116	135	2
82	135	1
19	125	1
15	17	2
8	11	1
85	85	1
63	99	1
157	174	1
155	155	1
26	64	3
72	73	1
94	176	1
6	7	2
175	177	1
142	179	1
41	116	1
32	112	1
170	174	3
80	134	1
123	124	1
114	146	1
99	106	1
14	78	1
64	67	1
83	86	1
94	148	1
122	125	1
147	152	1
5	9	1
57	58	1
101	102	2
32	33	1
27	29	1
89	93	1
142	170	1
54	54	1
15	26	1
7	24	1
148	168	1
86	109	1
71	75	1
164	175	2
154	175	1
155	166	1
99	127	1
28	86	1
62	64	1
72	139	1
88	93	1
16	19	1
133	135	1
60	95	1
