96	98	6
68	69	15
64	64	20
74	74	19
76	76	19
96	96	11
36	81	3
69	69	17
55	59	2
25	26	8
70	70	33
61	62	4
100	100	12
42	50	2
70	71	9
43	43	13
26	29	4
85	85	20
48	48	21
30	30	3
62	62	15
67	67	24
99	99	22
40	40	8
58	58	7
67	69	2
57	58	5
78	78	24
93	94	6
80	80	27
63	72	1
47	47	10
46	46	13
24	24	12
58	59	4
81	100	1
57	57	9
77	77	27
79	79	20
91	91	11
40	41	2
35	35	9
26	39	4
60	61	3
53	53	13
90	91	2
70	91	5
68	68	12
52	52	8
64	85	2
82	82	8
65	77	2
33	94	3
74	75	2
74	77	2
94	94	20
42	43	4
62	85	2
39	39	11
71	71	27
73	73	16
39	47	1
71	72	4
88	88	33
65	65	19
55	55	10
68	70	1
59	60	5
29	29	11
94	95	3
49	49	15
89	89	11
47	82	2
91	94	5
86	86	17
53	58	3
46	88	1
86	87	10
69	70	7
90	90	14
101	101	18
59	59	9
33	33	15
31	31	16
60	60	6
92	93	14
50	50	13
75	75	20
44	84	2
66	66	35
45	76	2
27	27	12
28	28	5
84	84	4
63	90	4
61	61	15
84	94	2
72	72	26
25	25	17
65	66	12
55	78	1
96	97	3
50	79	2
33	42	8
81	82	4
97	98	12
34	34	6
53	61	5
87	88	14
39	46	4
64	73	4
88	101	1
55	56	2
64	65	5
79	80	4
62	63	8
51	51	13
52	53	5
54	54	13
86	89	4
23	25	2
76	89	1
36	37	2
76	77	9
73	74	10
83	83	13
68	73	4
65	69	1
72	93	3
37	37	5
50	83	3
83	84	2
63	63	23
75	78	1
36	36	9
41	41	11
89	93	1
31	32	1
66	67	7
58	89	1
47	48	5
81	81	17
33	34	3
61	63	1
78	79	10
87	87	20
61	81	2
65	67	1
64	66	1
24	25	3
58	65	6
81	88	2
44	44	4
99	101	1
95	95	11
38	38	5
86	98	1
47	57	1
75	76	5
56	59	1
60	62	1
22	24	2
51	71	2
42	42	4
34	40	1
49	83	3
93	93	4
58	64	1
33	39	2
97	97	2
76	84	1
79	81	4
62	77	1
59	92	2
27	29	2
95	96	2
67	79	4
23	23	2
41	42	3
35	48	1
88	89	7
81	83	1
44	45	3
64	90	2
27	28	8
26	26	5
69	71	3
60	79	1
28	35	1
66	88	2
45	45	4
46	47	1
20	53	1
66	68	1
49	50	3
52	73	1
72	84	1
67	68	4
56	56	3
29	34	3
35	37	2
39	40	2
65	70	2
77	78	4
32	32	7
46	57	2
39	42	1
89	90	2
59	64	1
46	85	1
25	32	2
74	90	2
98	98	3
63	64	1
58	94	1
81	87	1
78	81	1
80	83	1
53	54	2
96	99	3
46	55	1
58	74	2
66	71	1
92	94	1
95	97	1
22	99	2
26	28	1
60	67	2
55	92	1
82	84	1
70	72	1
29	30	3
34	85	2
101	102	1
92	92	2
85	86	2
32	33	2
79	84	1
45	57	1
37	81	2
82	83	2
84	85	3
46	89	1
51	52	1
77	102	2
67	72	1
25	35	1
77	101	1
55	87	1
56	57	1
44	63	2
52	90	1
80	87	2
82	100	1
46	56	1
94	97	1
77	88	1
85	87	1
75	77	1
