125	131	1
14	23	1
70	76	1
109	109	2
40	40	9
111	146	2
129	129	6
33	33	2
20	22	2
65	102	1
69	69	6
37	70	2
98	99	2
113	113	2
126	137	1
3	3	3
79	79	3
36	36	1
73	73	6
53	53	2
95	136	2
96	97	3
99	99	2
41	48	1
109	154	1
9	9	3
85	133	4
147	152	1
102	102	5
142	151	3
71	78	1
151	151	2
33	38	2
19	19	6
123	123	5
138	145	2
113	114	5
15	21	2
111	111	5
11	11	4
108	110	1
30	31	4
127	146	3
121	128	2
24	25	2
4	56	1
37	69	2
37	37	4
124	124	2
130	130	1
39	39	1
68	68	6
138	140	2
109	114	1
135	139	2
13	13	2
105	121	4
94	94	1
87	87	4
75	76	2
68	82	3
135	135	4
80	80	1
110	110	6
117	118	2
140	141	1
26	32	1
25	25	1
11	19	6
16	40	2
24	24	1
145	146	1
36	93	2
93	93	9
48	52	3
147	147	2
51	51	4
32	32	1
62	65	1
97	97	4
11	33	1
45	46	1
38	39	4
43	131	1
47	95	3
107	110	1
70	70	1
103	103	2
41	41	2
51	88	5
10	58	1
128	128	4
98	98	1
126	126	2
76	121	2
22	76	3
13	23	1
62	62	1
54	54	3
112	118	1
27	27	3
108	109	2
146	146	1
124	141	1
105	105	3
74	74	1
140	140	1
10	10	2
141	141	3
104	108	1
100	100	2
119	119	2
145	145	2
21	69	1
118	118	1
6	6	1
125	137	1
67	67	1
69	77	2
21	23	1
33	150	3
132	136	1
96	132	3
107	108	3
78	80	3
94	148	3
51	56	1
20	21	2
111	137	1
84	89	5
145	150	1
74	115	1
125	125	2
36	37	2
81	82	2
30	30	1
101	101	2
132	132	3
86	86	1
35	35	1
63	85	2
9	11	2
75	75	2
149	149	1
143	143	1
80	83	1
34	34	1
29	31	1
104	115	1
19	20	2
46	46	2
16	18	2
114	116	2
58	58	2
18	18	3
9	10	2
10	12	2
44	44	1
127	136	1
25	26	1
92	104	1
70	75	1
47	47	2
140	142	1
26	73	1
117	117	1
64	107	1
152	153	3
89	90	2
44	45	1
139	139	1
34	35	1
76	76	1
32	36	1
134	134	1
29	29	2
22	22	2
34	151	1
77	101	1
50	52	1
74	76	1
33	35	1
154	154	1
116	116	3
136	136	1
16	16	2
90	101	3
88	98	1
109	147	1
97	154	2
87	89	2
70	74	2
21	21	1
84	84	2
106	106	3
106	117	1
95	95	1
15	17	2
28	29	1
26	26	2
41	44	1
39	61	1
142	150	1
39	40	1
93	94	1
88	96	1
152	152	1
40	76	1
35	67	1
31	32	1
115	129	1
38	38	1
22	74	1
45	132	1
54	56	1
94	95	2
84	91	1
121	122	1
43	50	1
17	17	1
74	75	2
89	89	1
