106	106	7
2	2	15
53	53	3
116	117	1
163	163	10
127	127	2
127	160	3
80	81	5
77	79	1
9	9	5
148	148	1
12	12	5
71	72	4
150	150	4
141	141	2
86	148	3
105	163	3
70	71	3
134	145	1
0	0	3
157	157	4
3	108	2
69	69	11
116	116	2
169	169	4
130	131	2
14	14	6
37	38	7
55	56	3
112	112	8
167	167	2
99	108	3
139	140	4
119	119	10
168	168	3
94	94	6
152	154	4
96	96	5
92	92	6
109	110	4
3	3	3
23	24	2
5	45	1
119	123	2
47	47	5
132	144	2
146	146	4
66	66	2
22	22	1
122	123	1
155	155	5
122	122	2
55	55	4
38	40	1
132	170	1
91	92	2
42	42	7
106	108	1
44	44	2
76	76	2
34	34	7
56	138	1
70	70	3
100	102	2
163	164	3
73	74	3
15	16	1
137	137	5
107	107	8
46	46	3
56	56	2
18	18	6
104	164	7
19	19	1
28	28	8
144	144	4
83	136	4
125	127	2
169	170	1
170	170	4
134	134	3
145	145	4
88	88	5
63	64	2
64	121	1
38	39	2
74	117	2
105	112	1
40	41	2
90	90	3
110	110	3
6	6	7
51	51	3
15	15	2
72	72	4
135	135	1
2	25	2
39	40	1
143	143	3
27	27	1
1	18	1
48	49	1
147	162	1
37	37	2
128	128	5
25	25	2
65	117	1
99	99	3
33	33	2
131	131	2
127	128	1
39	39	6
65	65	3
114	116	1
57	57	2
35	35	2
93	93	3
112	126	2
26	26	2
67	68	3
64	65	2
97	97	6
62	62	4
54	54	2
97	105	2
49	169	3
95	110	3
50	50	4
36	42	1
65	116	1
8	9	3
49	49	3
86	86	3
91	93	4
160	160	3
93	165	1
128	156	1
50	51	1
118	118	1
129	129	2
132	132	1
17	17	1
164	164	5
140	141	1
85	85	4
10	10	2
54	55	2
36	36	6
90	94	2
41	41	3
4	4	3
121	122	2
84	147	1
153	154	3
98	98	3
64	64	2
82	83	1
148	149	1
76	85	1
66	70	1
125	125	3
80	80	2
128	151	1
71	71	3
113	113	1
100	100	5
139	168	2
21	22	1
47	48	1
101	119	1
20	23	1
131	134	1
74	116	1
142	143	3
124	124	1
98	118	4
138	139	3
17	18	1
2	95	2
159	159	3
7	7	1
139	150	2
112	113	1
77	77	2
21	21	3
3	44	1
121	155	1
42	43	1
83	133	2
108	111	3
42	44	2
78	79	1
6	7	1
81	81	3
83	83	2
131	144	1
141	144	1
152	152	5
120	128	1
148	161	1
147	148	2
135	145	1
52	52	1
22	27	1
112	123	1
148	160	2
133	133	3
75	75	3
111	165	3
66	145	2
119	124	3
111	123	1
105	105	1
166	166	2
162	164	1
147	160	1
121	121	2
115	116	2
40	40	2
13	13	1
84	84	2
1	1	1
44	45	2
48	48	3
161	161	1
44	47	1
1	95	1
45	46	1
63	63	2
139	142	1
58	62	1
9	64	1
84	85	1
144	145	1
42	45	1
135	143	1
168	169	1
5	5	1
131	159	1
24	24	1
90	109	1
113	114	1
87	148	1
140	143	1
101	101	1
122	128	2
25	26	1
79	81	1
12	13	2
147	147	1
95	95	1
5	119	1
105	113	2
104	162	1
10	11	1
111	126	1
82	82	1
102	105	1
128	159	1
97	124	1
89	89	1
109	109	1
134	135	1
74	74	1
43	44	1
4	5	1
126	127	1
