128	128	11
115	120	2
237	238	2
26	26	3
203	204	2
9	200	5
191	195	6
0	41	2
155	155	5
73	73	8
208	208	8
15	36	5
13	40	1
119	119	14
228	228	5
128	130	2
187	187	3
64	65	4
113	119	8
184	185	5
38	38	6
194	194	8
66	76	2
3	8	3
138	139	2
99	101	1
22	23	3
218	218	13
59	60	4
176	177	5
106	119	5
85	85	3
221	222	4
213	214	6
29	29	10
125	125	5
212	212	5
83	83	2
63	63	10
135	135	4
85	86	2
205	206	11
232	232	6
35	76	4
77	77	5
31	32	5
173	176	3
204	204	6
191	192	1
9	39	2
147	149	5
156	156	3
235	236	10
141	141	13
102	102	5
202	202	8
169	170	5
185	189	2
19	19	5
40	40	14
182	182	5
61	61	7
201	201	10
141	142	3
160	161	1
138	138	7
240	240	6
58	58	14
230	230	10
150	155	6
197	197	11
134	135	4
104	105	1
173	173	6
121	122	3
13	13	2
198	200	7
27	48	1
67	67	3
198	198	3
43	43	8
50	50	6
32	32	10
86	86	5
136	136	5
237	237	9
213	213	4
55	55	1
201	202	4
136	169	4
241	241	6
144	146	10
145	145	4
171	233	4
125	129	3
217	218	7
157	157	10
191	200	1
100	100	9
190	190	8
230	231	6
88	88	9
62	63	5
196	196	5
101	102	1
80	80	1
187	188	1
60	60	4
186	186	3
44	45	2
11	11	7
17	17	2
54	55	7
1	1	7
124	124	5
211	211	4
169	169	3
100	232	1
135	137	5
216	216	5
146	147	2
22	22	5
33	34	4
31	79	6
163	163	4
207	207	13
113	114	2
217	217	1
180	180	6
10	10	5
2	19	2
143	154	4
214	214	1
137	139	6
179	189	2
41	41	3
201	203	6
189	190	2
122	123	4
161	161	11
194	195	2
106	230	2
237	239	2
144	150	4
6	7	2
75	75	10
117	117	11
9	10	7
107	107	5
229	229	7
16	17	3
7	7	2
139	139	2
168	168	8
8	24	3
24	25	2
167	184	4
70	70	5
12	12	10
188	192	2
136	139	4
15	15	4
102	106	2
235	235	10
10	16	2
0	6	3
39	39	6
198	199	3
154	155	8
53	53	11
123	129	5
47	48	2
220	220	8
33	33	5
144	144	3
147	147	2
27	28	8
20	20	4
71	79	2
3	3	7
165	165	3
4	4	4
71	71	6
19	20	2
145	147	3
69	72	4
104	107	4
143	143	10
200	201	3
224	224	8
64	64	5
98	98	8
115	117	1
18	18	5
46	46	4
206	206	5
241	242	11
159	159	6
23	23	7
165	167	2
146	146	5
108	109	2
45	46	6
209	211	1
120	120	5
26	47	1
95	95	1
70	71	3
188	188	3
43	45	6
69	69	1
222	222	7
42	42	2
51	51	4
99	99	7
210	210	5
59	59	4
215	215	9
115	115	1
207	208	1
66	66	2
236	236	13
149	150	2
99	121	1
218	219	2
48	48	8
101	110	3
185	192	3
5	5	7
62	62	3
179	180	1
227	228	4
225	226	2
101	101	6
12	19	4
40	42	1
18	36	2
82	82	5
32	69	9
137	137	4
15	16	1
220	221	1
122	122	3
200	200	3
53	54	5
209	209	6
21	21	2
172	172	8
116	117	4
9	9	5
118	118	3
50	51	3
53	58	1
30	30	2
227	227	4
81	88	2
0	2	2
106	106	9
13	15	2
47	47	1
199	200	8
63	64	1
148	149	2
153	153	3
108	125	2
148	148	13
159	206	2
167	167	2
4	6	2
190	191	6
27	27	7
57	57	4
76	76	2
146	148	4
137	138	2
8	9	2
31	33	1
113	113	8
57	58	4
177	178	4
34	77	3
8	8	5
25	25	8
228	231	3
223	223	1
238	238	3
104	104	2
104	130	3
116	116	3
139	141	1
72	72	3
162	162	10
76	77	2
24	24	1
97	97	2
37	49	3
164	164	3
205	205	10
45	67	3
36	36	7
44	44	2
170	170	3
226	226	2
109	119	4
191	201	2
2	2	2
29	75	1
106	115	1
186	187	2
130	131	1
131	161	2
14	15	1
95	134	3
65	66	1
174	174	1
28	28	5
150	154	2
74	75	3
134	134	5
151	153	2
103	133	2
81	81	2
34	35	1
46	64	1
102	109	3
176	176	6
215	216	1
2	58	1
98	242	2
177	177	2
117	118	1
193	193	4
195	195	6
0	1	1
182	183	2
58	59	3
142	156	3
7	8	2
181	202	1
149	149	6
143	146	2
31	31	2
154	154	3
14	20	2
101	180	4
153	154	1
181	203	2
121	121	1
150	150	4
203	203	3
110	110	2
29	30	5
188	193	1
112	112	3
74	74	2
212	213	3
204	220	1
64	69	3
189	189	4
242	242	3
183	231	1
151	151	2
175	175	7
26	237	1
184	184	1
81	84	2
191	191	1
37	37	3
56	56	1
114	115	3
140	143	7
211	213	1
175	176	3
188	226	1
12	13	1
28	38	3
204	205	4
52	52	3
98	99	1
55	56	3
99	100	1
140	141	3
217	223	1
89	89	3
158	159	2
71	72	2
0	0	2
105	133	3
98	128	1
24	45	3
129	129	2
205	219	1
163	164	1
107	108	2
105	105	1
101	113	2
104	126	3
47	236	2
118	164	1
29	31	1
65	65	5
172	174	1
3	20	1
16	16	1
11	14	1
11	20	2
6	6	2
33	35	1
187	193	1
74	76	2
123	123	1
117	199	2
105	157	1
181	182	1
171	171	1
114	133	1
23	24	1
176	178	2
165	200	1
54	54	1
78	79	1
47	64	1
215	222	1
142	160	1
56	57	1
140	140	1
36	37	1
221	221	1
45	45	1
122	129	1
160	160	1
164	165	1
73	74	1
95	96	3
180	182	1
79	80	1
1	8	1
127	130	1
42	44	2
185	185	1
24	44	1
109	110	1
165	171	1
219	219	1
84	85	1
117	198	1
195	200	1
10	11	1
83	84	1
14	14	1
122	165	1
