144	144	12
94	98	1
38	38	15
48	53	4
119	119	10
8	8	14
153	154	3
88	88	2
76	79	4
130	134	1
146	146	3
152	152	4
11	11	7
135	135	11
13	13	16
12	12	9
99	99	7
119	120	5
109	109	2
80	80	9
81	81	3
57	63	1
133	133	13
3	3	6
103	103	6
29	29	12
104	120	4
73	73	5
7	127	2
100	100	5
142	150	1
64	66	1
35	35	7
87	87	5
42	42	11
53	53	12
153	153	5
94	94	7
137	138	2
29	31	3
99	100	4
145	146	3
16	16	14
148	148	8
3	55	4
129	129	4
125	125	3
11	12	5
50	50	18
13	14	1
85	85	9
98	100	1
110	115	3
154	154	7
66	102	4
149	149	19
66	66	4
68	68	8
120	120	7
40	40	3
118	118	16
79	79	2
111	111	2
70	70	14
151	151	1
76	78	1
74	75	2
9	10	9
147	147	12
92	120	1
123	123	14
10	10	16
44	44	4
57	57	16
32	32	7
114	114	11
41	41	14
74	74	5
98	137	4
127	127	2
115	117	5
74	100	3
96	97	4
126	146	6
82	82	10
77	77	7
137	139	2
93	97	4
64	64	11
7	7	4
48	48	7
74	101	5
20	24	3
39	39	12
66	67	2
134	134	6
125	128	1
27	27	6
51	51	8
143	146	2
97	100	3
147	148	5
150	150	7
112	113	4
94	97	4
81	82	4
84	148	2
152	154	1
14	14	5
113	114	5
2	67	2
98	98	15
103	147	2
107	110	2
49	49	2
63	64	3
4	5	3
3	19	7
98	99	1
55	67	1
20	114	1
50	57	1
14	15	2
102	102	7
74	104	4
67	67	6
29	30	4
95	95	4
140	141	2
106	107	3
42	43	3
20	26	3
18	18	1
69	69	5
28	29	2
112	112	11
132	132	9
23	23	3
4	4	1
22	23	5
84	85	2
33	33	4
84	84	8
97	122	1
86	93	3
97	97	5
71	73	2
37	37	6
45	45	2
101	103	3
105	106	4
107	107	3
63	63	4
111	113	3
137	137	6
15	15	10
26	26	2
35	38	1
16	38	2
12	13	1
122	123	3
23	24	1
96	99	1
21	21	2
20	20	6
97	98	3
124	124	3
126	126	3
139	139	4
116	120	4
104	104	5
43	43	5
52	56	2
18	19	8
143	144	7
110	110	6
67	68	2
101	102	4
43	44	3
121	122	3
136	136	7
9	39	1
113	113	16
10	11	2
83	83	6
25	26	1
85	147	1
38	39	3
78	78	7
106	106	3
17	17	5
11	15	8
91	147	2
12	14	1
95	96	4
125	126	3
91	91	1
131	131	3
9	9	1
6	42	3
69	70	2
131	135	3
76	76	7
83	105	4
120	122	2
61	63	4
4	6	5
4	44	2
141	141	1
84	86	1
93	93	2
24	25	1
46	46	6
73	74	3
132	133	6
130	130	5
19	84	2
74	143	1
45	46	3
115	115	2
138	138	8
121	121	3
55	55	3
67	109	2
11	14	4
73	116	2
91	98	4
32	34	4
7	42	1
54	54	5
25	25	8
2	40	1
27	29	2
68	72	1
30	31	1
36	37	1
68	103	3
19	19	4
150	151	2
34	36	3
49	57	2
15	16	2
28	28	1
48	50	1
9	11	2
67	85	1
24	24	3
20	21	2
13	40	1
7	8	4
142	142	2
124	125	2
65	66	1
36	47	1
51	55	1
33	35	2
108	108	4
46	77	2
48	49	1
2	2	5
149	150	1
6	7	3
101	101	2
61	62	2
17	54	2
69	115	1
140	142	1
75	78	2
8	34	1
85	137	1
14	43	1
76	77	2
139	140	2
6	6	1
55	56	1
23	57	2
117	117	2
13	126	1
143	148	1
56	57	3
82	108	3
21	24	2
123	124	2
75	75	1
102	104	3
144	150	1
145	145	2
135	136	1
64	80	1
62	62	1
8	9	1
75	76	4
128	128	7
46	78	2
103	104	1
40	41	2
56	56	1
30	30	2
39	40	1
46	75	1
81	101	1
144	145	1
12	125	1
53	54	1
54	55	1
118	119	1
16	17	1
79	150	1
130	136	1
122	122	1
46	47	1
3	18	2
108	111	1
111	112	1
79	81	1
22	22	2
36	36	1
87	126	2
64	65	1
42	44	1
128	139	1
96	96	2
105	105	1
33	34	1
115	133	1
124	128	1
