45	45	11
130	131	1
82	114	2
22	114	2
116	116	9
49	49	8
112	112	5
62	62	6
3	30	3
42	76	2
23	23	4
65	65	5
93	94	3
70	70	6
53	97	5
27	27	5
86	86	10
50	50	5
118	118	4
11	11	7
50	62	1
75	75	5
41	80	1
19	56	1
90	90	5
82	82	7
32	32	4
13	13	4
97	98	5
42	43	3
47	48	6
59	59	7
45	46	1
57	57	8
100	100	5
48	88	3
46	47	9
15	15	2
44	44	7
97	126	3
95	95	9
125	125	5
44	45	5
131	131	9
108	108	10
30	30	2
7	7	7
109	109	2
7	10	1
2	6	3
91	92	4
10	11	1
96	132	3
78	78	2
105	107	3
60	60	5
1	1	9
87	87	9
101	101	8
91	91	5
17	17	4
128	130	5
79	101	1
104	104	8
79	79	6
99	99	7
60	61	3
30	31	2
102	102	10
49	76	4
43	44	5
41	43	3
77	77	2
0	0	9
51	51	3
95	123	3
89	89	4
108	109	9
123	123	15
17	23	2
48	48	3
114	114	6
41	42	1
21	21	1
130	130	8
56	56	6
67	67	3
8	9	1
92	92	3
8	8	4
3	6	2
73	73	3
31	34	2
42	44	2
47	47	2
115	116	1
127	129	3
92	125	2
20	22	5
74	102	1
67	68	3
20	20	8
124	124	6
132	132	8
93	93	5
2	3	1
4	10	3
55	55	6
84	84	1
105	108	2
16	64	2
106	106	3
98	98	2
73	76	1
46	46	8
4	5	3
12	13	4
128	128	3
110	110	3
21	70	1
34	102	5
10	13	1
72	76	1
120	120	4
21	44	4
42	113	2
100	101	2
38	38	2
45	47	8
96	125	5
6	6	2
62	63	6
53	53	1
69	69	1
32	56	5
107	107	3
66	67	1
110	117	2
25	25	5
9	9	2
93	131	2
49	118	3
121	121	6
76	76	1
32	33	2
65	73	2
65	80	1
28	28	9
105	105	3
79	80	2
107	109	2
105	110	1
39	39	2
58	58	9
103	103	2
117	117	3
82	83	1
51	105	3
16	60	2
12	12	2
22	22	8
127	127	3
85	85	3
92	107	1
50	108	2
69	120	3
51	93	2
92	95	2
40	41	3
19	50	2
23	24	2
65	112	1
67	111	1
59	67	1
91	97	3
48	85	2
39	41	2
113	113	3
101	102	2
40	40	2
126	127	1
105	106	1
65	96	1
83	83	6
38	63	1
96	124	1
89	117	1
73	74	1
81	81	2
31	31	7
51	94	2
4	4	2
114	115	7
86	127	2
126	130	9
70	113	1
16	20	1
11	12	1
69	76	1
8	10	2
85	100	1
92	94	4
127	128	1
23	30	3
64	76	1
42	42	4
104	107	3
33	33	2
88	129	1
43	43	1
90	91	1
14	14	3
53	55	1
23	33	1
5	7	1
2	2	1
85	86	1
32	131	1
106	108	2
17	18	1
102	103	1
54	55	1
24	24	1
64	64	2
22	26	1
10	14	1
89	90	2
44	76	2
119	119	2
87	129	2
19	19	2
29	30	3
78	128	1
15	16	1
115	115	2
91	93	3
77	83	1
64	117	1
59	62	1
31	32	1
90	129	2
128	129	2
71	71	3
108	117	2
94	94	3
0	17	2
58	59	1
97	101	1
102	104	1
75	77	1
69	114	1
33	34	1
86	108	1
110	120	1
90	130	2
54	111	1
111	111	1
0	76	1
62	75	1
88	89	2
113	114	3
54	54	1
118	119	1
101	103	2
64	105	1
65	66	1
124	125	1
13	14	1
33	44	1
49	120	1
47	61	1
23	28	1
75	76	1
