16	16	6
69	69	22
93	94	11
166	166	16
71	72	3
126	127	2
1	108	1
131	131	8
97	105	4
108	108	10
120	120	9
12	12	12
115	115	4
26	26	11
126	143	1
153	153	12
76	76	8
0	1	1
48	48	16
165	170	3
0	15	3
75	75	10
65	65	9
109	109	4
139	139	11
110	110	10
64	64	19
154	156	3
67	67	16
114	114	11
2	2	10
20	20	12
126	126	12
54	54	8
92	92	10
124	125	14
69	159	4
15	15	15
113	113	8
72	72	10
162	163	4
50	50	5
148	148	11
27	27	24
19	19	15
168	169	2
124	124	19
89	89	7
112	113	3
98	98	11
134	135	5
1	1	11
41	41	6
5	5	14
73	73	11
13	13	13
42	42	7
18	42	3
100	101	5
64	76	2
118	118	17
23	23	6
13	19	3
117	117	8
125	126	7
100	100	7
160	160	10
37	38	5
9	10	5
64	100	1
163	163	9
23	110	3
145	145	20
88	105	1
62	62	10
22	22	11
40	45	1
13	17	2
133	133	10
147	147	18
77	77	14
52	52	12
167	167	15
144	144	22
140	140	9
95	123	1
128	128	5
70	70	16
138	138	10
162	162	13
56	57	3
136	142	11
41	52	7
145	147	3
168	168	4
55	56	6
44	44	6
99	99	4
160	169	1
90	90	6
103	103	5
123	123	12
20	23	2
76	118	3
53	53	12
146	146	9
132	132	6
86	87	2
67	111	3
129	129	14
140	144	4
107	110	1
47	48	12
76	77	3
45	47	6
115	116	7
87	88	2
24	24	17
98	99	2
79	81	4
37	37	10
4	4	21
127	127	10
53	54	10
23	25	4
10	11	2
19	20	2
90	91	2
155	155	11
25	34	3
8	8	13
104	105	9
169	170	4
21	21	10
12	13	5
109	110	2
97	154	3
151	152	4
36	36	11
39	41	2
10	10	12
138	158	7
43	43	14
11	12	5
66	67	4
96	97	4
34	35	3
82	82	2
123	124	1
45	45	7
102	102	10
115	123	3
72	89	2
84	119	3
41	42	4
91	92	4
63	63	6
97	98	2
91	91	9
71	71	12
108	110	4
149	149	11
105	105	18
6	6	10
26	108	6
26	27	1
100	103	6
143	143	9
87	87	12
107	107	12
70	71	3
64	73	1
120	121	3
135	135	5
74	74	2
136	136	13
128	129	2
76	154	1
12	47	1
144	145	9
119	120	8
10	53	3
82	83	1
101	102	5
45	49	1
95	95	2
93	93	11
25	110	1
121	122	9
72	117	2
47	47	8
76	78	6
81	82	8
43	90	2
138	167	1
0	20	2
88	122	2
57	62	6
150	150	7
25	28	1
79	79	9
40	40	13
13	14	4
88	88	5
9	9	8
121	130	4
63	64	3
63	92	1
98	154	4
54	55	4
137	163	2
112	112	10
169	169	6
66	135	2
134	134	14
80	83	2
51	51	5
78	146	1
94	95	7
141	143	1
14	47	2
66	66	6
4	111	5
116	120	5
68	68	6
104	104	20
159	159	7
150	151	1
84	84	2
25	25	6
5	21	1
148	149	2
151	154	5
63	71	5
65	68	1
3	141	3
62	85	2
117	118	5
130	130	11
88	89	5
44	45	5
57	58	3
116	116	6
114	162	2
143	145	1
152	152	10
3	10	1
56	56	9
137	137	2
143	144	4
2	11	2
154	154	6
17	18	3
39	39	6
121	124	1
49	49	8
136	137	4
93	96	1
128	143	2
80	80	6
102	103	5
133	134	2
102	106	2
164	164	10
126	169	1
3	3	12
132	137	1
69	158	3
23	53	2
0	0	15
68	111	5
167	168	2
168	170	7
156	158	3
78	79	3
157	158	9
7	8	2
122	123	3
137	138	1
96	96	6
128	170	3
46	46	9
123	137	1
170	170	3
8	9	1
161	161	5
3	4	2
119	119	4
16	18	2
113	114	4
23	52	3
78	78	4
4	6	1
5	6	6
163	164	2
86	86	7
18	18	12
35	35	5
1	65	2
155	156	5
146	148	2
26	157	3
34	34	8
102	109	1
18	35	2
0	12	1
142	143	10
67	136	3
121	142	2
164	165	3
17	17	11
35	52	6
129	130	3
51	91	2
49	90	1
129	154	1
101	101	7
63	125	1
14	14	2
20	22	2
35	42	1
83	84	5
17	22	2
141	142	1
1	53	1
118	131	1
6	8	5
24	26	2
16	39	2
103	106	4
28	28	4
151	153	1
45	51	1
13	16	2
81	81	6
7	7	3
106	106	2
117	120	1
125	125	3
12	54	2
151	151	8
1	2	5
115	120	1
55	78	3
57	57	5
81	132	3
11	11	11
75	76	5
145	146	4
158	158	2
64	87	1
95	137	2
157	157	3
127	129	3
74	75	1
18	24	1
97	97	3
80	81	2
76	86	1
122	122	4
1	45	2
77	146	2
161	162	2
65	69	4
35	37	2
159	168	3
64	98	1
23	24	5
93	105	3
69	70	4
114	115	2
26	48	2
77	147	2
129	170	2
167	169	1
55	55	2
141	141	3
118	119	2
19	38	6
27	126	1
145	150	2
45	46	2
86	97	1
74	104	1
111	111	4
55	74	2
33	33	3
140	141	1
94	94	3
76	144	2
130	152	1
34	39	1
89	97	1
138	149	2
158	160	3
14	45	2
123	136	1
24	109	1
90	113	3
56	75	1
74	117	1
34	36	3
163	165	4
121	121	3
65	93	2
50	51	6
65	76	3
111	112	3
119	165	2
4	20	1
74	76	1
3	13	2
124	140	1
100	107	3
52	55	5
68	69	2
64	65	1
64	114	1
25	26	1
85	85	3
16	17	5
152	158	2
123	140	1
57	94	2
124	136	1
142	164	1
138	139	1
42	43	3
2	34	3
38	45	3
156	156	2
43	79	2
127	130	2
38	38	2
58	98	2
158	161	2
38	39	1
99	170	1
13	46	2
136	138	2
102	111	1
5	19	2
110	157	1
89	90	5
127	132	2
135	137	2
39	40	2
116	124	4
4	21	2
18	19	1
79	82	2
104	112	1
135	139	1
65	120	2
77	117	3
132	133	1
79	80	1
13	15	1
126	130	3
35	36	4
117	121	3
58	58	4
83	83	2
91	121	1
25	47	2
66	113	1
58	74	1
55	58	2
73	74	2
66	108	1
4	58	2
6	7	2
20	106	1
12	23	2
42	45	2
108	109	2
138	144	1
74	137	3
94	114	1
27	141	1
122	143	1
147	148	1
14	17	2
21	22	2
154	155	1
57	85	2
94	121	1
130	131	2
12	92	1
138	166	1
42	44	2
129	136	2
105	106	3
51	110	1
38	89	1
152	159	2
3	74	1
43	89	2
142	142	1
110	112	1
139	159	1
107	108	1
86	93	1
26	123	1
91	116	1
43	44	2
39	45	2
138	143	1
99	100	1
136	166	1
2	38	1
159	169	1
52	53	1
63	72	2
134	151	1
37	39	1
165	165	1
86	146	1
99	168	1
36	37	1
18	20	1
10	21	1
166	167	1
127	128	1
73	122	1
74	82	1
6	9	1
132	136	2
22	23	2
46	47	1
22	27	1
44	48	2
19	24	1
145	153	1
10	17	1
139	140	1
84	85	1
