0	36	2
91	91	5
54	55	6
122	153	2
103	103	10
185	185	10
157	158	8
167	169	4
130	158	5
28	43	2
116	116	2
12	13	3
112	112	7
25	27	2
125	125	8
136	136	9
138	138	7
155	155	5
70	99	1
54	54	8
182	182	7
71	71	14
161	161	7
55	55	9
179	180	5
152	152	13
134	139	3
16	16	2
19	33	3
10	27	2
115	115	11
44	45	1
42	54	4
71	107	6
73	73	11
22	22	6
83	139	2
116	117	3
95	95	5
150	152	4
3	3	7
17	46	1
106	141	5
64	64	7
81	81	9
98	98	11
176	177	7
75	78	4
168	168	5
122	151	2
72	72	7
70	71	3
3	8	3
156	156	8
141	141	13
82	86	4
123	123	8
96	99	2
144	145	1
67	80	1
155	160	3
7	8	5
23	23	7
64	65	3
154	154	7
45	45	6
148	150	4
87	87	15
16	38	2
11	31	2
178	178	10
112	130	2
89	89	9
60	64	3
146	160	2
60	60	1
14	14	9
80	80	7
146	146	9
165	165	4
142	166	3
39	42	6
55	56	9
103	169	1
175	175	7
150	150	6
24	24	17
5	16	4
166	166	6
170	170	11
121	121	5
158	158	5
24	38	2
66	67	3
169	169	3
149	150	4
144	144	3
71	72	3
13	13	11
101	104	2
92	92	11
74	74	11
27	35	1
19	19	7
164	164	3
101	102	2
177	177	10
96	96	4
150	165	2
99	99	16
41	41	17
27	27	7
136	187	2
160	160	9
96	97	2
21	21	3
120	120	3
131	131	5
71	76	3
101	101	17
183	183	8
133	133	9
65	65	2
66	97	2
47	48	4
155	166	2
36	36	8
38	41	2
43	43	6
68	69	4
128	128	8
33	35	2
149	149	7
91	133	1
35	35	2
37	54	3
6	30	3
5	5	9
114	133	1
155	156	1
40	40	4
39	39	12
33	33	7
102	102	5
39	40	2
48	48	5
62	62	12
0	0	10
157	178	4
59	60	5
56	56	10
76	76	1
46	46	9
11	11	14
113	113	6
186	186	7
20	20	4
140	140	17
85	85	6
94	94	6
55	74	4
10	10	7
159	159	1
29	29	6
150	151	1
129	155	1
152	182	1
114	115	5
158	159	1
118	120	5
130	135	1
42	48	1
111	111	7
130	131	2
154	155	2
123	124	1
172	172	7
167	177	2
124	125	3
75	75	5
132	132	9
0	1	4
6	6	10
85	133	1
73	113	4
112	115	1
122	122	5
181	182	4
152	154	1
62	63	1
68	81	2
182	186	2
101	155	5
105	130	3
18	19	1
87	95	3
7	7	1
13	29	1
159	160	10
143	143	6
156	159	3
186	188	4
91	92	6
25	26	3
71	83	2
41	48	2
178	186	4
11	27	3
89	90	7
112	120	1
97	99	3
118	126	9
107	107	2
117	117	2
124	124	11
77	78	1
173	173	4
57	58	6
63	68	2
102	162	5
153	153	9
47	47	11
100	102	2
176	176	2
65	84	1
19	23	1
163	163	5
178	179	6
17	31	2
2	41	2
146	185	3
108	108	3
84	85	3
175	176	5
32	33	4
57	77	2
149	183	3
11	46	3
162	162	2
114	114	2
149	173	1
66	66	4
168	179	1
167	176	3
177	185	3
67	67	6
57	57	6
127	128	2
19	20	5
153	176	4
36	38	2
150	154	1
17	17	7
86	86	2
151	152	1
119	120	5
34	35	6
148	148	12
79	81	1
87	88	1
42	42	6
131	159	5
136	137	2
4	4	4
118	118	7
22	25	4
148	149	3
6	23	2
24	25	3
126	126	6
152	153	3
20	21	3
64	66	2
44	46	1
102	104	2
155	162	1
70	97	2
82	131	5
159	162	1
77	79	5
95	96	3
60	79	1
187	188	5
189	189	10
30	30	8
25	25	3
104	104	3
18	43	1
83	83	4
76	88	2
60	67	3
125	128	4
120	142	1
164	165	3
155	159	1
151	151	3
45	46	4
169	170	3
157	188	3
77	77	8
188	188	3
111	112	4
179	179	6
58	58	5
123	163	2
184	184	6
0	23	4
169	184	2
163	189	4
58	75	2
91	134	4
23	24	1
171	173	9
180	181	7
137	138	5
171	172	4
52	55	1
0	24	4
142	143	2
76	77	1
97	100	3
91	94	4
134	134	3
162	163	1
68	68	2
17	18	3
21	36	2
136	157	4
61	61	5
167	171	5
34	34	4
130	134	7
105	105	6
109	109	5
61	62	2
190	190	2
183	184	2
4	6	4
153	175	1
169	187	2
72	107	2
75	79	3
13	37	1
64	100	3
115	125	1
129	129	3
130	130	3
107	120	4
3	7	6
74	113	1
159	175	4
27	55	1
4	17	2
113	135	1
117	152	1
15	37	3
10	36	3
92	93	1
90	105	3
93	94	5
117	118	4
15	15	3
146	162	2
32	32	7
109	119	3
0	10	4
142	156	1
31	32	3
108	156	3
5	13	1
75	76	4
135	135	5
20	28	2
174	174	3
126	127	3
28	29	1
185	187	1
93	93	2
71	81	2
167	167	4
106	112	5
149	164	2
143	160	2
188	189	5
81	91	2
63	63	3
187	190	4
68	73	1
148	159	1
9	23	1
138	167	3
88	89	2
3	6	1
123	162	1
103	158	2
104	132	3
119	119	3
47	97	1
142	173	2
43	45	1
155	169	1
18	58	1
185	186	2
138	139	2
25	33	1
19	45	2
118	119	3
27	31	2
69	69	2
20	22	1
175	179	2
106	107	2
12	30	2
109	110	1
114	116	2
62	85	2
74	76	1
18	18	3
59	59	4
88	88	3
75	95	4
84	84	2
26	26	4
26	27	1
134	142	1
26	28	2
36	37	3
90	90	1
42	46	2
40	52	1
160	168	2
86	87	1
181	181	2
82	82	4
141	147	1
3	17	1
31	31	2
171	171	4
63	65	1
94	111	1
102	164	4
143	174	1
65	99	1
110	130	1
143	164	1
163	164	1
16	47	2
97	97	2
63	99	1
13	15	6
65	66	1
157	157	5
139	139	2
92	130	2
79	79	5
110	111	1
22	27	3
172	174	2
13	23	1
86	113	1
36	59	2
16	41	2
18	44	1
127	127	2
124	126	2
6	7	1
71	98	4
12	37	1
89	91	1
78	80	1
56	65	2
8	26	1
11	26	1
9	54	2
85	136	1
125	162	1
177	178	1
78	78	4
92	129	3
159	163	1
68	71	3
157	190	1
131	172	2
101	103	2
120	132	2
161	162	1
69	104	1
81	104	1
35	75	3
2	2	1
95	135	1
16	17	2
143	185	1
26	29	1
142	170	1
137	137	2
7	30	1
10	23	1
135	136	1
168	175	1
175	177	2
46	63	1
102	130	1
124	162	1
91	101	2
72	90	1
126	128	1
4	5	2
42	43	1
88	98	1
80	109	1
55	80	2
70	70	2
12	35	1
45	58	1
100	100	1
133	155	3
179	190	1
16	18	1
67	70	1
175	186	1
37	37	1
21	22	1
73	74	2
60	110	1
26	30	1
48	56	1
147	147	1
70	101	1
108	109	1
86	88	1
166	167	1
95	98	1
131	143	1
2	6	1
57	80	1
105	106	1
70	73	1
69	70	1
52	52	1
23	27	1
136	153	1
117	129	1
9	10	1
