9	9	7
11	11	5
93	93	9
63	64	2
9	10	5
128	131	3
127	132	1
78	78	7
111	112	1
6	7	10
64	64	15
95	95	6
89	89	2
47	47	16
55	56	3
119	119	9
18	27	6
43	43	4
68	68	6
11	12	4
70	72	1
60	83	1
133	133	4
77	78	1
98	134	1
69	69	8
100	128	1
68	70	1
19	20	3
28	28	9
86	110	2
74	120	1
111	111	8
57	77	3
1	1	7
62	62	6
76	121	5
35	36	5
65	65	15
44	44	5
10	12	1
17	20	2
36	38	2
2	6	4
34	35	3
14	14	5
76	76	2
106	109	1
12	35	6
86	88	4
120	120	10
72	72	11
78	89	3
94	95	3
70	70	1
117	117	17
128	128	8
90	97	2
40	40	3
25	25	1
32	32	4
110	110	5
84	84	4
74	76	2
61	61	2
91	92	4
101	102	1
81	82	2
77	77	3
129	130	6
71	71	5
132	132	7
2	10	2
13	13	3
3	3	4
109	110	1
22	26	2
7	7	4
19	19	5
2	2	7
99	99	3
24	48	4
74	75	1
0	0	5
106	106	9
122	122	1
29	30	3
26	28	3
11	15	2
76	116	1
17	17	3
103	103	5
30	84	1
8	13	1
41	41	4
56	56	3
77	95	1
121	121	5
89	92	3
75	75	6
107	108	3
123	124	1
31	31	5
111	121	3
130	131	3
22	27	3
23	23	4
116	116	3
79	79	6
66	67	3
58	59	1
34	36	1
23	26	1
81	81	4
44	82	3
45	45	1
83	83	3
125	125	3
118	118	4
73	73	6
82	86	6
28	33	1
26	29	3
5	5	3
127	130	3
42	43	2
33	75	3
27	49	2
46	46	3
37	38	3
74	74	2
71	72	2
68	69	3
97	97	3
78	119	1
75	76	1
8	8	1
110	111	3
82	88	1
34	34	5
15	15	4
44	45	7
12	12	1
66	66	3
124	125	1
14	20	1
23	24	3
82	84	2
129	131	1
131	131	4
113	117	1
105	105	2
100	101	3
37	43	1
86	86	1
97	126	2
123	123	6
83	116	1
55	57	2
40	41	3
19	47	2
4	8	1
114	116	3
60	60	1
129	129	1
129	132	1
132	134	2
84	125	2
2	3	3
78	94	1
24	25	1
126	126	2
108	110	1
97	98	1
55	55	2
41	42	2
16	17	1
112	112	3
127	127	4
114	114	1
27	48	2
126	129	2
82	82	4
91	91	2
49	55	1
119	120	2
81	104	1
131	133	1
60	113	1
93	95	1
130	134	1
58	115	1
65	66	5
133	134	3
58	58	2
101	101	1
77	83	3
75	121	2
131	134	1
66	120	2
47	71	2
18	19	1
64	66	1
92	124	1
15	38	1
72	73	1
87	87	3
108	125	1
66	118	1
113	113	2
48	49	1
60	112	1
6	6	1
22	22	1
10	11	1
31	33	3
32	41	1
44	85	1
26	26	2
100	114	2
61	67	1
89	126	1
98	98	2
27	27	3
63	63	3
70	71	1
18	45	2
80	82	1
37	39	1
4	5	3
77	79	1
26	33	1
26	34	1
106	107	2
60	61	1
107	107	1
130	130	1
27	57	2
31	32	1
15	37	1
92	123	1
57	57	1
67	67	1
