95	96	10
25	25	10
23	23	2
64	64	4
79	79	2
35	49	3
135	144	9
40	40	6
67	69	4
33	56	3
37	37	5
63	63	6
6	6	4
99	99	9
71	71	14
130	131	3
117	117	3
12	13	6
53	53	1
122	122	8
62	62	2
94	95	4
68	68	14
16	16	5
28	30	2
18	18	8
144	145	4
87	88	3
132	147	2
100	101	2
105	107	2
134	134	5
120	120	8
141	141	10
135	135	7
51	51	1
100	106	3
15	15	8
21	22	4
98	98	6
41	41	5
55	55	9
121	121	4
147	147	2
37	38	5
25	26	8
67	67	8
139	139	8
45	45	2
26	27	5
29	29	6
98	99	1
111	111	4
105	105	6
121	122	4
3	3	11
63	64	3
126	126	5
11	11	4
81	81	1
148	148	2
142	142	7
73	73	1
70	70	4
124	146	3
143	144	4
68	69	1
119	120	2
74	74	1
77	85	2
110	110	4
106	106	8
130	130	12
48	48	1
9	27	3
104	106	3
82	82	1
121	137	2
151	151	5
129	129	6
112	112	3
5	6	4
39	39	6
66	66	10
31	31	3
69	69	8
146	146	7
3	4	2
128	130	6
20	21	5
55	88	4
47	47	6
96	108	2
57	57	9
17	17	7
44	44	7
136	136	7
5	17	2
76	76	8
14	14	6
107	107	6
50	50	9
28	28	5
78	86	1
103	122	4
36	36	9
32	32	4
51	53	3
98	104	2
95	97	4
114	114	3
143	143	8
25	57	3
20	20	3
102	125	3
97	97	4
97	98	4
35	35	1
115	117	2
2	2	5
8	8	2
139	140	4
105	117	4
22	23	1
38	38	4
77	77	4
103	103	1
7	8	3
121	136	2
116	116	4
5	5	6
132	132	4
64	84	2
19	19	1
69	113	1
63	79	6
67	92	4
149	149	3
9	9	4
93	93	2
11	12	1
82	83	2
88	88	8
104	104	2
90	90	4
13	13	9
49	50	1
118	134	4
127	127	5
27	27	2
86	86	1
104	115	5
137	137	4
10	23	1
124	125	2
34	36	1
145	145	9
148	149	3
93	111	6
131	131	5
96	96	10
65	66	3
84	85	4
83	85	1
96	97	1
94	94	4
108	115	2
150	150	2
147	149	1
96	98	1
152	152	5
50	141	2
57	58	3
106	129	1
9	23	3
33	33	3
4	4	2
78	82	2
102	103	2
100	100	2
43	43	6
84	86	3
146	150	1
125	125	6
92	111	1
106	107	1
83	86	2
27	31	1
117	118	3
118	118	4
11	14	2
119	119	3
123	124	1
6	17	1
84	84	1
32	33	4
33	53	1
128	128	8
22	22	3
100	105	2
77	79	1
122	123	2
131	132	3
46	46	3
26	31	2
16	20	1
62	89	3
56	56	1
26	26	2
140	140	2
50	140	1
99	112	2
72	72	3
105	106	2
87	87	5
117	119	1
72	75	1
78	79	2
54	55	1
124	124	3
23	27	1
94	115	2
144	144	6
103	104	3
105	116	1
117	136	3
12	12	3
94	113	2
137	139	1
62	83	3
136	137	3
21	23	3
138	138	1
95	98	2
101	120	1
10	10	2
67	80	1
152	154	1
78	78	2
27	28	2
138	140	2
109	110	2
8	9	1
110	111	3
51	52	1
109	109	3
85	85	2
30	30	2
75	75	1
93	94	2
43	44	1
133	149	1
108	108	1
80	82	1
81	82	2
123	145	1
18	19	1
30	31	1
149	150	2
42	42	2
103	132	1
38	39	2
43	45	1
79	80	1
64	65	2
5	22	1
93	138	1
54	54	1
98	105	1
133	133	1
100	121	1
54	88	1
3	6	1
83	84	1
120	136	1
39	40	1
44	45	1
126	129	1
101	116	1
105	115	1
24	24	1
102	127	1
123	123	1
