127	127	15
163	163	16
34	34	3
186	186	18
45	71	1
4	20	4
126	126	15
185	185	10
115	115	11
59	59	7
106	106	11
145	145	28
155	156	2
19	19	12
129	129	15
4	5	3
68	85	2
82	83	7
172	172	13
98	98	2
135	135	10
122	122	14
11	12	5
188	188	12
40	42	1
175	176	6
40	73	5
58	58	21
40	74	1
16	16	17
165	167	4
43	43	22
69	72	3
120	120	12
6	6	9
102	103	4
87	88	7
18	69	1
33	33	22
141	141	20
72	72	7
43	45	4
21	21	10
113	114	6
40	40	24
156	156	21
142	142	9
180	180	22
119	190	2
17	21	1
138	138	15
130	130	2
148	148	9
151	152	13
143	169	4
151	151	21
14	14	17
193	193	15
65	65	15
73	73	12
41	74	8
74	74	13
95	97	1
49	49	16
9	61	2
69	69	5
124	125	9
107	107	19
0	0	19
9	9	29
27	27	16
162	163	1
168	179	4
127	128	6
1	2	12
20	20	14
61	62	6
4	7	2
24	24	15
114	115	7
23	33	3
152	152	16
29	35	4
18	71	4
80	80	6
133	133	21
121	123	5
191	191	7
44	63	1
96	133	2
7	7	3
50	50	12
155	155	9
197	197	15
66	67	8
178	178	3
99	99	27
38	38	9
65	66	6
55	56	8
89	89	5
97	97	14
82	84	2
68	68	13
148	150	4
123	123	15
46	60	5
181	181	19
171	171	14
56	56	17
52	52	25
169	169	9
24	30	2
68	72	4
116	177	1
101	101	25
174	174	16
164	164	11
6	7	11
71	71	12
38	93	2
49	50	4
13	13	15
45	72	5
23	23	20
118	192	5
37	37	14
32	32	21
107	108	7
48	48	6
132	132	25
4	82	1
81	85	1
173	190	5
144	168	4
17	20	2
61	61	5
11	69	4
161	161	29
100	100	8
192	192	13
25	26	10
145	167	6
15	63	8
50	51	4
60	60	11
113	113	23
8	8	10
51	51	18
115	116	5
168	169	13
150	151	6
29	29	14
124	124	24
57	57	17
28	29	4
69	70	4
182	182	14
47	47	20
109	109	8
39	103	1
30	30	13
136	137	11
1	158	3
105	105	8
174	176	4
116	116	12
150	150	13
126	127	5
144	167	2
159	159	26
47	139	4
154	155	6
62	62	4
194	194	15
15	15	3
128	128	8
165	165	6
57	187	2
196	196	17
66	66	9
20	22	3
194	195	5
184	184	9
161	162	7
180	181	8
20	21	1
55	55	20
43	140	4
182	183	2
77	78	6
3	4	6
17	70	3
157	157	6
41	84	3
110	110	9
95	95	6
26	26	8
45	45	11
187	187	16
173	174	15
42	42	13
189	189	11
112	112	6
109	110	2
47	123	2
57	64	5
46	46	9
64	64	24
84	84	11
18	18	14
10	10	11
142	143	4
147	147	8
95	96	5
123	126	5
85	86	5
105	106	3
12	12	7
4	4	22
147	148	7
85	85	8
1	1	6
90	90	9
114	114	14
89	94	1
158	158	7
29	30	4
82	82	5
160	160	9
108	108	10
101	102	4
111	112	3
149	149	15
79	80	13
181	182	2
148	172	6
183	184	13
0	136	2
5	6	3
38	41	1
70	71	10
196	197	4
42	69	4
86	86	3
175	175	9
168	168	14
11	11	16
68	69	9
125	125	10
45	47	2
37	45	1
110	111	7
25	25	13
3	33	4
58	61	1
40	41	3
125	127	1
148	149	8
77	79	3
77	77	16
35	106	2
96	96	16
88	89	1
44	44	12
22	22	4
53	150	4
30	31	4
79	79	12
117	118	4
163	164	8
98	106	5
0	8	1
54	56	3
121	135	1
149	150	5
139	139	25
76	77	12
144	144	17
118	168	1
116	117	7
94	94	4
190	190	2
149	160	3
24	60	1
43	44	2
103	106	2
183	183	5
143	145	4
139	140	4
137	137	12
173	173	11
31	31	7
120	173	3
114	170	3
53	121	3
12	45	4
3	23	5
54	54	15
34	35	4
63	63	7
45	141	2
7	28	2
166	166	6
19	20	3
101	105	1
19	77	9
172	180	5
78	108	3
133	165	2
11	42	2
45	46	1
157	168	2
96	97	5
4	24	4
17	158	5
53	53	13
146	146	11
41	41	9
135	136	3
173	176	2
193	194	17
55	159	3
119	119	7
53	54	10
175	178	2
83	84	3
170	170	9
23	31	2
37	38	1
100	101	9
111	111	8
146	151	5
76	76	18
130	131	1
48	123	1
19	22	1
59	62	2
33	36	7
38	43	3
54	55	6
37	39	1
5	80	1
52	124	3
9	58	3
18	19	1
46	47	4
142	168	2
12	13	3
17	17	11
167	168	15
48	49	3
78	78	7
75	75	1
8	9	10
14	140	2
137	139	4
118	160	2
24	33	1
143	143	6
118	119	2
26	27	5
81	82	3
145	146	8
94	95	1
68	76	2
28	28	6
176	193	2
56	158	3
43	136	1
167	167	14
133	134	6
192	193	8
52	53	4
78	79	3
20	23	2
39	42	2
19	159	2
35	35	9
17	18	5
121	121	1
99	100	3
131	131	7
179	179	9
143	171	2
61	69	5
172	174	1
148	151	1
22	23	5
8	62	5
15	31	1
14	15	3
187	188	5
158	164	3
12	70	2
64	188	3
8	38	4
70	70	13
149	170	6
57	123	1
45	73	1
99	113	2
59	61	8
84	85	1
45	136	1
75	84	1
109	111	5
172	173	2
142	171	4
43	138	2
0	137	2
2	3	1
9	56	2
171	172	2
49	54	2
143	144	5
15	64	1
93	132	2
143	155	4
40	103	2
176	176	7
9	38	1
25	27	1
41	42	5
0	108	3
143	168	2
174	179	2
14	138	5
42	156	2
87	87	3
49	52	4
51	121	4
108	112	1
29	55	3
143	146	1
137	138	6
47	55	2
41	157	2
81	81	7
87	158	2
11	140	1
32	79	1
115	179	3
8	58	1
47	50	1
5	5	6
108	109	3
64	65	2
22	79	1
9	10	3
49	196	5
134	156	3
136	136	8
22	28	2
33	34	1
169	193	1
136	145	1
51	140	1
126	129	3
69	71	2
142	155	2
2	2	3
115	182	1
39	39	3
171	173	2
36	36	5
20	76	1
134	135	5
3	3	10
170	171	2
96	113	1
117	117	3
144	154	1
6	8	3
177	177	3
50	153	2
64	66	4
152	188	2
102	102	4
13	66	2
93	93	3
153	154	3
112	195	1
178	179	4
58	63	1
162	162	2
51	155	1
96	153	3
121	134	3
103	103	9
73	84	1
133	142	1
3	5	2
36	78	2
117	161	3
172	190	2
0	1	1
72	73	7
177	178	2
45	137	1
157	158	2
55	157	2
166	167	1
94	133	2
81	87	2
120	161	2
129	133	1
18	158	4
15	16	4
119	154	2
22	34	2
31	32	3
153	153	1
121	181	2
122	123	1
9	14	2
61	68	4
49	53	2
9	142	2
14	77	4
115	188	3
140	140	8
186	187	3
78	80	1
117	174	3
44	139	2
41	104	2
133	143	1
191	192	3
85	88	2
73	83	1
5	7	2
93	101	3
52	151	4
189	190	3
123	124	1
103	107	3
99	109	1
4	33	2
117	177	1
185	187	1
13	14	2
112	113	4
159	164	1
97	98	4
125	126	1
47	48	2
55	147	1
122	125	2
8	43	2
156	158	4
99	105	1
39	40	2
156	157	2
114	152	1
67	69	2
29	78	3
42	43	1
5	82	1
116	161	1
43	142	1
59	60	2
70	72	2
186	188	1
158	159	2
67	67	2
154	164	1
97	132	2
83	83	5
32	80	1
176	177	2
73	81	3
100	102	2
63	187	1
98	111	2
131	132	1
9	62	1
134	157	2
107	113	1
114	194	2
52	150	1
34	79	1
19	23	2
30	46	3
72	78	1
114	171	1
120	153	1
159	160	1
162	171	1
8	29	1
119	160	1
145	168	1
56	123	1
38	39	1
188	190	2
38	47	1
184	187	1
132	133	1
42	70	1
86	87	2
120	154	1
119	120	1
88	145	1
154	154	5
16	17	1
23	24	1
32	60	3
34	36	1
51	120	1
93	168	1
60	61	1
62	63	1
12	43	1
8	28	1
24	25	1
173	191	1
4	32	1
38	86	1
5	24	1
32	33	1
149	193	1
66	148	1
80	81	1
188	189	1
187	189	1
145	155	2
104	104	1
48	178	2
138	139	1
9	31	1
146	163	2
121	157	1
73	74	1
36	74	1
152	166	1
58	62	1
50	122	1
51	154	1
