100	101	7
27	27	7
125	126	3
90	90	20
37	37	8
23	24	10
79	80	1
13	14	15
22	37	2
72	73	9
120	120	5
79	79	19
13	13	10
18	25	2
19	21	2
81	81	7
86	86	12
3	3	8
29	29	4
89	94	2
101	101	7
24	87	7
12	12	4
121	121	16
35	36	8
100	100	7
103	103	8
87	87	17
72	90	2
124	124	14
98	98	11
89	89	18
1	85	2
8	9	1
73	73	11
18	18	7
20	36	3
129	129	8
74	75	6
22	22	12
82	92	9
80	80	14
0	1	5
115	116	3
30	30	11
138	138	7
86	87	5
29	30	5
123	129	1
5	6	3
35	35	13
2	12	5
134	134	9
36	133	1
129	130	1
74	74	14
1	1	14
127	127	7
96	96	3
22	34	4
2	2	15
91	129	4
117	117	12
15	29	6
91	92	4
11	12	4
133	133	5
75	75	8
14	15	9
122	122	11
102	103	8
7	8	3
106	107	4
36	36	13
26	26	4
108	108	2
25	26	11
2	3	18
9	29	1
16	16	7
28	28	9
0	85	6
111	111	1
110	110	7
28	29	3
14	16	3
27	30	5
15	30	2
116	127	3
125	125	10
1	2	4
130	130	9
116	117	2
118	130	1
21	22	9
112	112	6
23	23	1
121	127	2
28	31	2
6	6	7
17	21	2
15	102	3
118	118	9
135	135	8
101	102	1
20	20	6
36	132	1
71	71	5
18	32	3
10	12	3
72	72	8
106	106	3
132	132	11
4	4	18
90	91	6
81	84	2
107	107	6
104	105	4
74	76	3
0	0	9
21	21	7
75	80	7
0	82	6
128	128	8
119	120	4
33	37	4
140	140	6
100	103	7
126	127	4
95	95	2
16	30	3
31	31	7
119	121	3
92	124	2
105	105	6
76	80	2
85	85	2
14	14	6
84	84	10
76	77	4
7	7	8
105	113	1
83	83	6
114	122	2
78	78	12
22	36	2
10	10	5
106	110	1
88	88	5
90	132	2
111	112	5
126	126	8
9	9	7
19	19	5
18	21	9
21	23	2
25	32	3
91	91	7
71	74	3
102	102	6
17	18	2
34	36	6
87	88	1
25	25	1
108	109	5
114	114	5
87	102	2
17	17	8
104	104	4
92	94	2
99	99	8
136	136	6
119	119	8
85	86	1
24	24	6
30	31	2
97	97	4
82	82	6
78	88	1
77	77	5
103	104	1
9	14	4
101	103	2
18	22	1
71	90	3
18	19	7
77	78	1
8	8	2
113	126	2
93	93	11
34	34	9
27	28	7
123	123	3
136	137	2
94	126	2
83	84	2
30	32	1
107	117	2
92	126	1
33	34	4
94	94	2
10	11	3
114	115	1
139	139	1
26	27	3
33	33	7
15	15	3
19	45	1
81	83	2
116	125	1
86	98	3
81	102	2
7	12	3
100	110	1
0	27	1
93	95	1
106	125	3
5	5	2
7	13	1
133	134	1
18	26	2
96	99	2
79	81	1
109	111	2
71	73	2
131	131	3
116	116	3
113	113	5
128	129	2
78	79	3
121	122	4
38	71	2
98	100	1
5	18	1
32	32	1
26	30	1
104	111	1
123	125	2
105	119	2
92	92	2
138	139	2
71	72	2
117	118	5
83	86	2
86	111	3
81	82	1
86	106	2
109	109	1
8	33	1
19	20	4
71	91	3
117	121	1
3	4	1
118	119	1
18	33	2
115	122	1
133	135	1
130	131	2
31	32	2
14	29	2
7	32	1
114	117	1
120	121	4
6	35	2
84	85	2
4	5	1
15	16	4
137	137	2
89	90	1
1	28	1
83	89	1
139	140	1
117	119	1
105	106	1
116	123	1
6	7	1
38	38	1
75	76	1
