96	96	9
91	91	9
9	9	4
35	35	13
5	5	6
32	32	5
37	37	8
18	18	7
84	84	5
88	88	15
94	94	4
18	29	2
17	17	14
132	132	4
83	83	7
79	79	16
97	98	1
17	18	2
15	15	1
13	16	4
82	83	5
114	114	12
14	14	7
130	134	2
4	5	3
137	138	1
117	117	11
135	135	4
13	13	3
122	123	4
116	117	1
109	109	5
10	10	5
100	100	8
6	6	1
111	111	5
115	115	3
123	124	3
127	127	11
90	90	4
105	117	5
12	13	5
30	31	3
75	75	8
72	73	2
93	94	3
116	116	10
105	109	2
81	82	2
1	18	1
31	31	6
134	134	11
27	28	4
139	139	8
77	77	3
126	127	3
126	126	8
34	34	5
27	27	5
36	43	1
102	102	5
23	27	5
75	76	1
89	89	6
101	101	1
3	92	3
131	133	5
130	131	3
14	15	2
10	16	3
95	95	6
10	12	1
113	113	3
12	12	1
76	76	7
26	27	2
102	104	1
101	116	2
114	115	6
128	128	3
3	3	2
73	74	2
112	112	11
107	115	1
29	37	1
87	90	4
138	138	2
123	123	15
36	36	4
107	107	7
121	121	9
87	87	3
2	3	1
28	29	6
86	86	4
29	29	5
29	32	3
4	4	6
109	120	4
73	73	3
23	23	1
80	80	6
72	72	6
18	32	3
136	136	6
93	93	3
8	95	1
95	97	2
22	23	4
80	81	4
106	106	4
134	135	5
5	8	1
20	20	9
137	137	5
2	95	3
33	33	7
85	85	8
108	108	3
33	34	5
111	112	5
107	108	4
103	104	2
0	0	2
120	120	1
19	19	6
133	133	6
107	116	1
112	113	1
107	113	3
81	81	5
104	104	2
106	107	2
0	88	3
35	36	2
0	1	3
140	140	1
125	125	9
124	125	2
125	126	2
5	7	2
131	131	3
118	119	2
18	20	2
119	119	6
122	122	4
0	90	3
97	97	3
6	7	1
21	28	1
71	71	11
99	99	1
125	127	2
110	110	1
38	38	1
17	30	2
8	8	4
74	74	1
130	132	2
16	17	1
28	28	4
124	124	4
103	103	1
82	82	1
21	21	2
7	7	4
126	129	2
129	130	1
84	85	3
27	32	2
4	36	1
98	98	4
119	120	2
90	91	1
77	78	2
7	8	2
3	4	1
12	66	2
1	2	3
4	95	1
22	22	1
102	103	3
24	25	1
121	122	1
27	29	2
24	24	1
29	31	1
138	139	1
102	115	2
20	32	2
126	128	2
114	116	1
43	67	1
118	118	1
130	133	2
109	116	1
128	129	2
88	89	1
11	13	1
12	14	1
132	133	1
105	106	1
87	88	4
37	38	1
74	75	1
4	110	1
129	129	1
25	26	1
2	92	1
