138	138	9
14	14	6
44	44	4
167	167	7
11	45	3
154	154	7
152	152	8
102	102	4
40	40	3
197	197	3
156	156	2
196	196	7
38	38	4
129	195	5
31	31	11
37	37	1
151	151	7
175	176	2
20	23	4
17	17	9
80	81	3
168	169	5
166	167	1
37	38	6
129	129	4
57	57	9
117	117	10
79	79	4
116	116	9
26	26	2
3	3	10
177	177	3
130	149	1
13	118	3
42	42	1
30	96	1
55	55	6
25	26	3
49	50	1
25	133	4
101	101	4
194	194	2
147	147	8
23	30	3
85	121	2
131	131	6
109	109	1
54	56	1
51	51	7
133	133	6
55	56	1
27	27	2
150	150	3
76	95	2
10	117	2
35	37	3
43	44	2
69	69	3
50	50	10
43	43	7
45	45	6
176	176	4
45	46	5
21	176	2
195	195	4
99	100	1
21	21	4
180	180	8
66	78	4
36	36	1
114	114	5
122	122	4
161	161	5
7	7	2
30	30	7
141	141	6
144	144	5
28	28	7
31	33	3
147	153	5
96	97	3
175	182	2
114	115	4
160	180	2
165	165	7
64	86	2
76	76	3
185	186	5
162	162	3
48	74	5
99	99	4
185	185	3
2	2	4
67	80	2
160	160	5
39	40	1
164	171	8
184	184	9
169	170	6
143	143	10
112	112	4
126	126	1
96	96	3
70	70	2
107	122	1
149	149	3
10	46	5
154	158	3
53	121	2
124	124	4
35	35	4
135	136	4
61	64	4
119	119	7
123	141	1
66	66	3
20	21	4
104	105	8
29	29	1
58	58	3
0	1	1
46	46	6
181	181	6
72	72	4
140	142	7
130	130	3
50	51	7
22	23	6
5	5	7
163	169	5
41	41	5
8	34	4
194	195	3
166	166	5
132	133	2
174	174	3
41	42	6
19	19	6
71	71	4
23	23	2
117	118	2
60	66	3
136	138	3
115	116	4
38	46	1
151	158	7
183	183	7
166	193	1
187	188	2
137	145	2
0	15	1
82	83	4
26	144	2
183	184	2
16	16	6
61	62	2
83	83	3
116	117	3
5	6	7
135	138	3
98	121	1
191	191	3
34	34	4
193	193	3
10	195	5
80	80	3
135	135	2
66	68	1
186	195	3
14	17	2
78	89	1
121	159	3
190	190	4
158	163	3
57	83	1
23	24	2
9	10	3
33	63	1
11	65	1
154	156	3
136	136	6
179	179	2
114	152	1
33	37	3
60	60	7
163	164	2
95	101	1
54	55	7
64	87	4
121	121	1
65	150	1
128	128	5
169	169	1
113	141	4
128	158	2
44	55	1
118	118	1
192	193	6
6	6	4
74	76	4
57	59	2
166	169	1
175	183	3
15	193	3
111	112	2
78	78	5
61	63	7
151	159	2
104	104	3
106	106	3
88	88	7
120	120	4
72	73	1
124	125	1
150	187	2
134	135	3
133	141	4
44	49	4
12	12	2
192	192	7
1	2	1
59	150	1
69	149	2
157	157	4
9	34	1
163	178	2
73	74	1
113	113	2
3	24	3
132	132	3
27	28	1
72	142	3
13	15	3
16	64	1
69	119	1
125	127	3
186	197	1
106	120	4
1	1	7
165	167	3
77	107	4
107	137	6
4	19	5
48	48	4
153	154	1
152	155	1
140	140	3
164	180	1
165	172	1
140	141	5
82	86	2
103	103	4
56	56	2
72	74	2
14	135	2
26	27	6
53	53	1
94	106	1
75	119	2
14	21	1
175	175	11
56	57	3
145	146	3
142	143	2
153	153	1
100	100	3
22	22	2
112	131	2
103	106	2
2	190	1
32	32	4
3	6	1
62	63	2
64	64	4
186	192	2
107	107	2
86	86	1
170	171	3
113	156	3
8	9	3
52	53	1
93	94	1
123	123	2
158	158	4
108	108	4
137	137	1
134	139	1
111	111	2
123	131	1
127	128	2
187	191	1
15	66	2
106	117	1
135	190	2
81	81	3
32	142	2
13	13	2
46	75	2
52	52	1
51	127	1
29	33	1
189	191	1
155	155	2
5	39	2
148	153	1
168	175	1
54	54	1
130	131	1
163	171	1
127	127	5
100	102	1
9	12	1
164	164	2
68	68	4
39	46	1
25	25	1
133	134	3
4	5	1
47	47	1
82	85	1
86	87	3
65	83	1
70	141	2
93	136	2
119	120	1
50	108	2
77	78	1
134	188	1
115	115	2
98	122	2
9	9	1
56	152	2
58	64	2
85	85	1
22	35	1
176	178	1
143	144	1
84	84	1
105	105	2
63	65	2
77	77	1
79	80	1
93	93	2
98	98	1
186	186	2
165	166	1
151	157	1
19	27	1
161	163	1
183	185	1
126	128	1
18	18	2
34	35	1
94	115	2
16	17	2
190	191	2
13	67	1
83	84	2
150	158	1
124	154	1
188	188	1
151	153	1
47	84	1
113	114	1
153	159	2
74	74	2
73	77	1
101	102	1
61	61	2
65	65	3
11	121	1
152	157	1
139	139	1
19	173	1
74	110	1
62	62	1
45	57	1
11	139	1
15	15	2
68	69	2
100	103	1
59	59	1
120	159	2
33	33	1
17	64	1
20	20	1
154	164	1
40	41	1
81	82	1
47	65	1
103	104	1
189	189	1
170	170	1
87	87	1
159	161	1
156	197	1
49	49	1
