139	139	10
122	122	8
109	111	2
78	79	4
134	134	10
32	32	23
111	111	8
12	12	6
27	27	23
118	118	12
138	138	9
88	89	2
89	93	8
120	120	16
10	10	8
82	82	20
4	14	5
127	130	1
80	86	4
23	27	6
115	117	5
76	77	10
0	1	14
126	126	19
103	103	12
25	25	6
80	80	9
38	38	4
108	109	6
125	125	18
116	116	12
129	129	15
114	114	6
112	114	3
18	18	8
0	0	7
89	89	16
31	32	6
5	6	3
83	87	2
130	130	13
106	107	3
1	1	18
124	124	12
92	92	1
77	77	8
83	83	5
93	93	6
95	95	12
19	19	20
24	25	12
73	73	23
97	100	10
115	118	2
34	35	3
127	127	11
14	14	8
15	18	4
122	127	2
85	85	11
79	79	8
107	107	5
80	109	2
97	98	2
30	30	7
21	21	2
37	92	1
105	105	9
4	4	8
24	26	2
85	86	5
128	128	6
132	132	10
133	133	7
76	78	9
35	35	6
82	83	2
9	14	5
13	13	4
10	11	13
5	5	3
94	95	15
84	84	4
86	89	3
15	15	10
90	91	6
122	123	7
119	119	9
16	17	12
19	24	1
8	8	8
96	97	3
107	111	2
71	72	9
15	17	2
91	123	4
121	123	2
83	85	3
113	113	10
104	105	7
83	84	7
99	101	1
79	108	1
3	5	1
9	10	8
109	112	3
115	115	7
88	88	5
13	14	8
96	96	10
106	108	1
90	90	5
87	87	9
126	127	4
119	120	7
28	28	8
88	91	3
81	81	13
93	94	3
2	2	15
116	117	10
91	94	6
122	125	4
101	101	11
37	37	9
74	75	9
72	72	5
18	19	5
117	117	9
89	98	3
102	106	3
14	32	3
108	111	3
85	87	4
89	90	7
4	5	4
128	130	6
128	129	5
109	109	4
32	33	4
74	74	5
123	123	10
23	28	4
135	135	13
16	16	13
29	31	3
27	28	8
129	132	2
97	99	1
14	15	4
100	100	18
137	137	7
134	135	4
104	104	3
110	110	7
90	92	3
98	98	6
101	104	2
3	3	13
108	114	1
36	37	6
120	121	5
86	86	4
22	26	2
11	11	15
110	114	5
81	83	3
136	136	11
25	28	4
11	12	2
71	73	2
112	113	4
17	17	9
113	114	1
87	88	6
3	35	2
118	119	4
112	115	2
106	106	3
84	85	10
112	112	5
6	6	4
140	140	5
119	124	2
36	36	4
3	30	2
26	27	3
1	2	11
31	31	8
82	104	1
2	3	4
14	35	1
93	98	3
116	126	2
99	99	6
28	29	5
78	78	16
20	20	4
7	9	2
131	131	7
74	78	1
30	31	4
109	114	2
73	74	7
120	122	2
31	33	3
102	102	3
15	36	4
108	115	4
109	115	1
76	76	6
33	34	2
9	9	3
24	24	4
84	86	1
80	83	3
0	2	6
103	104	7
109	110	1
133	136	3
23	26	8
119	122	5
7	13	3
136	138	2
107	112	2
134	136	4
117	118	5
92	94	2
121	121	6
76	102	4
19	20	1
38	93	1
33	33	11
75	75	3
20	21	2
1	3	1
94	94	3
106	109	3
29	30	3
123	125	2
91	91	5
99	100	2
17	33	1
92	95	2
104	106	1
36	38	3
103	105	2
138	139	3
79	100	3
86	87	2
137	138	2
2	4	2
80	84	1
115	116	3
121	122	8
10	12	1
107	108	2
3	4	2
111	114	3
35	37	2
34	34	6
98	99	5
7	7	4
97	97	6
3	6	1
131	132	4
136	137	2
9	13	2
21	23	3
100	107	1
81	84	1
4	32	1
86	88	1
108	108	3
66	126	1
73	76	4
113	120	3
74	76	1
80	85	1
89	94	1
20	22	1
117	119	4
17	18	3
71	71	1
4	34	3
23	23	8
89	91	1
88	127	1
90	93	4
72	73	5
38	86	1
96	99	2
90	94	4
139	140	1
18	20	1
79	80	3
88	95	1
107	113	2
100	104	1
110	111	2
102	104	6
0	3	1
8	9	3
89	92	1
88	123	1
77	78	5
75	79	1
75	76	2
88	97	1
96	98	1
130	131	2
6	13	2
7	8	1
110	123	1
15	16	1
82	125	2
88	125	1
79	102	1
30	35	3
91	92	1
128	132	3
88	93	1
80	82	1
26	26	2
108	110	1
22	22	1
72	74	1
37	38	3
98	100	1
126	128	1
21	24	1
80	106	1
111	112	1
23	24	1
16	20	2
105	106	2
7	10	2
86	92	2
124	126	1
102	105	2
25	26	1
24	27	1
91	93	1
17	35	1
0	7	1
100	101	1
31	34	2
80	104	1
80	107	1
