92	93	2
145	145	2
26	95	4
199	249	2
174	174	3
118	118	3
100	100	7
4	7	2
183	184	3
245	245	11
78	176	1
85	85	6
201	203	2
240	240	3
68	69	3
243	245	1
25	25	1
62	62	3
214	214	8
56	99	2
189	189	5
157	158	3
29	29	2
58	58	8
116	116	4
187	187	4
166	237	4
56	57	3
20	22	2
32	32	3
27	27	9
156	156	6
77	77	7
190	191	2
81	83	6
53	53	12
220	220	11
191	191	4
152	152	8
4	4	2
175	175	6
173	213	3
178	210	2
14	14	1
162	166	4
6	7	4
197	233	6
31	31	11
71	71	2
166	166	4
95	95	2
216	216	3
158	205	3
169	232	2
158	159	1
57	58	4
58	76	3
195	195	3
36	36	4
57	57	1
207	207	1
77	83	3
60	61	5
212	212	5
158	158	1
204	208	1
90	91	1
71	73	6
169	169	4
247	248	7
37	107	1
163	233	3
208	208	4
213	213	2
239	239	9
59	76	2
184	185	1
81	82	3
55	55	5
1	1	2
168	236	2
45	51	1
194	194	4
162	162	2
241	242	1
246	246	4
233	236	1
108	108	2
236	236	6
119	222	4
42	43	1
34	47	1
44	44	2
149	177	1
20	20	3
185	185	2
203	203	4
233	233	2
109	109	4
244	244	4
53	82	1
209	219	3
50	51	2
231	232	2
52	52	4
177	177	3
182	182	7
117	117	1
192	192	3
113	113	2
47	109	3
106	106	6
98	99	1
187	188	2
26	26	3
79	90	1
11	227	4
161	161	3
107	175	1
29	30	5
197	198	1
38	38	5
211	211	2
87	88	1
80	104	3
187	191	1
18	19	2
61	118	2
63	63	2
186	186	4
60	60	2
166	169	5
101	101	1
69	69	2
209	220	1
151	151	2
76	79	2
48	50	2
196	196	1
155	155	3
19	19	2
9	11	1
172	172	2
78	81	1
49	50	3
27	209	1
199	199	1
158	216	2
238	240	4
31	35	1
59	62	2
89	90	3
114	114	1
58	75	2
33	33	2
174	175	4
241	241	2
2	2	4
163	165	2
40	145	1
3	3	1
95	97	1
11	11	4
176	193	4
162	201	3
61	61	1
199	200	3
97	104	3
193	194	1
4	15	1
50	50	1
1	26	1
68	68	1
4	5	2
188	188	4
245	246	3
87	87	5
82	82	1
5	11	1
215	215	5
197	197	2
82	83	3
181	181	1
222	222	6
234	247	1
218	218	2
17	17	3
23	23	2
59	59	3
56	56	6
231	231	3
51	54	2
158	208	4
167	167	4
66	66	1
84	84	3
232	232	1
163	163	3
243	243	1
86	101	1
119	119	2
180	181	3
94	94	4
94	95	1
72	72	1
192	201	4
62	66	1
108	120	1
42	44	2
197	231	2
108	117	1
37	37	3
2	7	1
226	228	3
206	206	5
28	69	1
219	220	3
227	228	3
107	107	2
35	35	5
64	64	4
79	80	2
159	208	1
247	247	1
9	9	1
45	46	2
16	23	2
40	41	1
224	224	4
144	144	2
93	94	1
219	219	1
70	70	5
36	45	1
62	65	1
205	205	1
163	197	1
31	69	1
176	195	2
201	226	2
105	105	1
47	47	3
54	54	2
7	26	2
234	234	2
208	210	2
58	72	1
22	22	1
65	65	1
156	214	2
144	145	1
84	100	1
243	244	2
168	168	1
112	112	2
70	81	1
169	199	1
157	157	1
195	199	2
8	8	2
237	239	2
40	40	1
52	94	1
90	90	1
46	46	2
202	202	1
165	165	3
78	78	2
176	194	1
110	212	1
110	110	1
100	101	2
26	27	1
56	90	1
86	87	1
6	6	1
170	171	1
158	211	1
157	207	1
181	183	2
210	210	2
39	40	1
98	98	1
198	198	2
4	6	1
48	49	1
13	13	2
234	248	1
77	105	2
9	169	1
235	235	1
160	160	1
178	178	1
54	55	1
84	85	1
215	216	1
25	26	1
57	77	2
90	235	1
209	209	1
88	88	1
60	62	1
92	92	1
204	205	1
77	79	1
30	31	1
62	63	1
104	104	1
175	222	1
54	102	1
103	104	1
30	30	2
26	53	1
4	12	1
91	91	1
179	191	1
64	65	1
