122	122	7
96	163	3
168	168	6
130	131	6
14	14	11
109	109	2
145	145	2
83	83	3
30	32	11
194	194	1
108	108	3
94	96	1
140	140	4
180	180	6
87	89	4
108	109	4
141	169	3
169	169	6
24	24	2
58	63	2
132	153	2
34	34	6
85	85	11
19	34	2
29	31	1
107	108	2
9	10	2
118	118	2
95	165	1
47	47	4
31	31	4
77	78	1
39	74	2
126	126	4
67	67	4
152	161	1
163	163	1
189	189	5
81	82	4
37	58	1
7	15	2
173	175	1
141	141	5
41	41	5
120	137	1
72	72	2
87	87	1
63	63	3
135	184	2
33	57	1
58	58	9
59	69	1
79	79	2
170	170	1
36	36	5
116	116	3
176	176	5
18	18	9
164	171	5
128	130	1
84	85	2
192	194	1
181	181	4
44	45	1
8	8	7
113	113	7
196	196	4
184	184	5
61	62	2
95	95	6
73	73	2
18	22	4
38	82	3
174	175	4
4	67	3
112	112	5
3	3	3
149	149	9
45	49	2
85	87	2
46	46	10
42	42	5
130	130	2
76	87	4
95	134	1
143	169	2
136	186	2
44	71	2
161	163	2
138	138	1
165	165	1
16	18	3
100	180	3
95	98	2
123	123	4
5	5	11
133	133	2
173	174	3
56	56	4
21	21	14
71	71	3
66	66	1
26	27	2
98	164	2
128	128	2
60	60	4
2	2	4
95	186	2
133	138	1
129	132	2
105	106	2
53	55	1
107	109	1
120	178	1
121	121	6
65	66	7
10	54	2
166	166	4
186	186	4
1	74	1
0	75	3
36	64	1
121	126	2
103	103	3
170	186	2
15	15	3
30	33	1
168	169	2
46	49	1
62	69	3
43	73	5
117	117	3
104	143	4
89	89	6
24	26	1
18	188	3
39	39	10
79	80	2
7	7	3
173	173	1
98	167	5
54	55	7
77	77	5
40	42	2
50	75	3
5	7	3
106	190	2
29	30	1
119	136	2
191	191	1
106	106	4
144	145	3
47	49	1
104	104	4
173	180	1
175	176	3
16	106	1
101	102	1
101	101	3
32	37	3
99	106	2
39	73	2
107	113	8
183	183	5
45	45	5
155	155	4
41	42	3
164	164	2
65	65	2
24	28	3
119	156	1
152	159	1
69	69	4
153	153	3
58	62	1
33	34	2
140	160	4
16	22	1
107	107	4
96	166	5
124	133	3
55	55	2
1	2	3
192	192	3
11	11	3
43	68	2
10	106	3
177	177	2
146	168	1
30	30	4
0	1	2
123	149	1
99	99	1
93	120	3
141	143	2
54	54	6
174	174	3
74	74	4
132	132	1
96	158	5
29	29	9
110	110	5
157	157	2
17	17	5
52	52	9
3	7	2
59	60	6
43	44	1
61	61	1
169	180	2
71	72	4
124	126	3
190	194	3
103	104	4
64	64	4
50	50	6
44	68	2
67	68	2
121	124	1
185	185	2
123	159	1
154	155	2
135	136	1
139	139	1
78	79	2
20	20	1
13	14	2
38	51	4
96	157	1
27	27	3
74	83	4
123	135	1
32	32	3
175	186	1
190	190	5
116	117	2
169	194	5
14	188	2
124	124	2
6	8	2
177	183	1
6	7	1
171	171	4
11	20	1
83	86	2
116	159	1
147	148	4
23	23	2
99	192	1
8	181	3
53	57	2
139	140	2
138	195	3
129	129	2
20	22	1
105	143	1
142	142	2
185	186	1
48	49	1
49	49	1
25	25	1
147	147	2
158	158	1
177	180	1
134	165	1
122	129	1
33	60	2
8	17	4
189	190	2
105	191	1
29	32	1
175	175	1
94	161	3
54	175	2
135	135	1
154	154	1
86	86	2
78	78	2
150	150	1
153	159	1
112	113	1
96	96	1
36	60	1
46	83	1
65	70	2
125	125	2
64	66	2
10	136	1
117	152	1
156	166	3
139	149	1
107	115	1
74	110	1
79	88	1
4	4	2
97	97	2
156	157	1
7	39	1
34	40	2
44	72	2
102	102	1
114	114	1
137	140	1
126	132	1
50	51	2
76	78	1
5	6	1
67	172	1
180	189	1
12	13	1
19	40	1
81	81	2
105	194	1
98	165	1
153	155	1
127	127	1
164	188	1
160	160	3
21	99	1
141	196	1
43	43	3
183	184	1
152	152	1
127	128	1
17	35	1
36	65	1
144	191	3
11	13	1
151	151	1
11	30	1
9	72	1
17	18	1
3	4	1
107	185	1
31	32	1
105	142	1
0	2	1
31	33	1
159	168	1
162	162	1
70	71	1
