64	66	1
135	135	1
97	97	7
23	23	12
44	44	4
45	45	7
74	74	7
62	62	10
169	184	4
153	153	5
49	49	4
55	55	13
154	154	9
24	24	12
12	12	6
177	177	3
11	12	5
33	42	2
10	10	2
17	18	3
54	55	4
132	132	9
14	15	2
141	141	1
5	7	2
148	148	13
117	117	11
59	60	3
168	168	2
27	27	15
176	176	9
51	52	2
11	39	3
123	134	3
10	12	3
54	54	8
72	72	9
107	107	7
50	51	2
6	6	5
119	122	1
12	13	7
107	116	1
112	118	9
46	50	2
172	175	3
45	46	2
87	87	6
194	194	7
86	87	2
125	126	10
46	46	3
160	160	8
101	101	9
182	186	4
140	140	4
121	121	6
171	171	7
147	147	3
10	11	2
39	39	5
183	183	11
182	187	2
2	2	5
187	187	9
123	123	9
112	112	2
36	36	13
73	73	2
58	124	1
42	42	7
132	133	6
60	61	5
151	151	9
88	89	3
88	88	11
157	157	2
109	152	8
162	163	3
40	40	4
64	65	3
6	7	1
86	86	7
112	113	4
29	49	3
56	56	7
125	125	3
170	185	2
192	192	10
142	142	12
70	70	9
13	50	1
188	188	6
124	125	8
38	41	3
41	41	9
100	101	7
65	127	4
190	190	6
30	30	5
135	136	4
194	195	3
109	153	2
192	194	1
90	90	3
109	109	4
60	60	5
116	117	4
22	22	3
84	86	3
19	19	9
158	159	4
98	98	13
77	77	11
147	148	9
170	171	16
178	178	8
26	26	5
59	59	13
8	9	4
15	15	15
53	57	3
38	39	1
137	137	6
169	170	2
133	134	3
52	52	12
100	159	8
185	186	2
45	55	4
191	192	3
184	184	7
24	27	4
197	197	1
40	41	2
109	111	5
29	29	12
172	173	4
21	21	2
149	151	2
8	22	5
39	47	1
178	181	3
100	100	8
61	61	2
82	84	4
144	144	5
122	122	10
113	159	4
61	126	3
168	173	4
5	5	10
128	128	8
111	111	9
69	70	3
67	67	14
85	87	2
33	33	10
103	105	7
174	193	3
1	1	7
37	37	8
79	79	5
48	48	7
185	185	13
75	75	2
13	13	10
119	119	13
106	106	7
131	131	8
191	191	12
61	62	2
179	180	2
118	118	9
23	24	3
17	17	4
115	115	10
108	108	10
172	172	11
156	156	10
68	68	8
105	107	1
37	43	6
82	82	6
113	114	1
133	133	14
16	17	1
123	124	6
16	16	2
65	72	1
47	94	3
53	53	9
0	0	4
109	110	2
129	129	6
25	25	6
170	170	2
19	156	2
0	22	2
195	196	1
163	163	3
39	46	1
65	66	5
162	162	10
152	152	1
169	194	1
113	134	2
94	94	2
189	190	9
164	164	2
4	4	1
116	132	3
181	181	2
67	68	3
193	193	6
130	132	6
119	120	1
15	16	3
143	144	2
130	131	5
31	43	2
39	40	1
63	63	12
114	114	5
41	45	2
177	193	2
196	196	3
28	30	3
149	159	3
134	134	7
165	167	4
89	90	1
167	167	8
26	28	2
47	47	6
182	182	7
149	149	6
60	62	2
93	93	6
52	55	3
179	179	5
56	57	3
78	78	6
136	166	1
77	78	3
187	188	4
127	127	3
85	86	1
107	159	1
145	145	4
163	164	1
138	138	2
107	108	3
116	116	6
49	50	4
165	165	3
101	102	1
78	79	1
71	71	9
98	154	1
81	90	1
61	127	1
113	113	1
37	38	1
66	66	6
64	64	5
174	174	2
60	63	2
152	153	1
89	89	4
87	88	3
186	187	3
139	140	3
184	185	1
28	28	4
20	20	5
62	73	1
196	197	2
32	188	3
120	120	3
78	80	2
110	110	1
161	161	3
44	45	1
43	44	9
126	127	5
96	96	6
66	67	2
50	50	6
69	69	3
55	56	1
195	195	7
9	10	4
82	83	2
99	101	4
8	8	1
10	15	2
35	35	2
10	19	1
139	139	5
45	69	2
95	96	1
143	143	4
151	152	2
127	128	1
158	158	1
35	36	1
136	165	2
53	54	2
150	151	2
181	182	1
180	180	6
189	189	1
77	86	3
105	105	2
186	186	1
146	146	1
124	124	2
111	113	2
176	177	2
61	77	3
106	158	3
102	112	2
14	14	5
116	135	3
58	58	2
108	155	4
102	102	2
26	27	4
134	135	1
173	192	1
11	40	2
24	25	4
130	130	3
57	57	4
62	80	2
32	32	1
175	175	4
104	104	1
175	176	1
38	38	1
99	99	2
5	19	2
173	175	3
141	142	1
161	162	3
18	18	4
43	43	2
167	168	3
32	33	3
42	62	1
20	21	2
131	132	3
183	185	1
154	155	1
66	71	1
11	11	1
55	123	1
2	4	1
81	82	3
74	75	1
5	8	2
19	124	1
9	9	2
71	88	1
95	95	2
62	63	1
76	76	2
166	166	2
126	126	2
155	155	3
129	138	1
47	144	1
181	183	1
188	189	1
106	110	1
7	8	2
101	106	1
67	70	1
180	181	1
131	135	1
4	8	1
58	59	1
157	158	1
66	79	2
103	104	2
42	43	1
159	159	1
136	136	2
73	74	1
0	1	1
99	159	1
173	177	1
4	5	1
93	147	1
159	160	1
166	167	1
71	72	1
11	16	1
33	186	1
173	173	1
117	138	1
154	157	1
109	150	1
130	168	1
48	49	1
