114	115	5
139	139	6
136	136	13
9	9	5
124	141	3
94	102	4
18	18	8
117	117	12
25	25	12
47	48	5
63	63	8
13	13	8
147	147	2
97	97	8
10	19	2
138	138	9
111	111	5
106	113	4
3	17	3
107	107	8
8	8	6
83	85	11
19	19	5
101	101	8
10	10	9
103	131	1
121	122	4
149	150	3
42	42	10
41	41	11
62	82	1
105	112	2
53	55	3
15	15	9
95	95	7
49	49	6
113	113	5
106	106	7
53	54	2
51	51	6
112	112	7
9	29	5
73	74	5
36	37	4
53	53	8
116	116	7
122	123	7
108	108	5
102	102	6
28	28	13
76	76	11
81	82	4
38	38	7
13	14	2
103	103	10
50	50	13
154	154	14
92	101	2
46	46	6
96	97	7
88	100	5
74	75	6
10	11	3
67	67	10
115	115	8
81	81	5
83	83	4
117	118	4
37	37	12
62	62	3
9	25	1
140	140	8
93	93	5
150	150	23
128	148	5
115	116	1
87	88	1
85	85	3
78	79	4
128	128	5
70	70	3
152	152	15
69	69	6
46	50	3
54	54	13
32	32	5
107	113	5
27	27	2
38	40	9
114	114	7
45	45	7
39	40	1
123	125	2
109	109	7
47	49	2
86	86	9
12	12	4
8	19	2
132	132	1
99	99	3
29	29	11
11	12	7
145	146	9
124	124	7
43	44	2
21	21	7
94	144	1
126	146	6
108	110	4
24	24	17
17	19	3
102	103	5
96	96	3
126	126	3
126	127	2
55	55	3
127	127	3
66	66	12
41	42	5
72	72	13
77	78	5
6	30	4
40	40	4
90	90	2
7	7	7
112	113	2
137	137	7
97	98	6
107	108	2
67	69	2
130	131	1
39	39	7
105	125	2
16	16	7
30	30	4
76	78	2
9	24	2
71	71	11
73	84	3
77	77	4
15	16	3
45	46	4
144	145	6
149	149	14
80	81	2
122	122	5
6	8	1
111	128	1
91	91	2
74	76	1
106	121	2
124	132	2
4	30	1
125	126	4
151	151	4
106	114	4
132	152	1
111	112	2
121	121	10
44	44	11
14	14	2
142	144	1
100	101	4
104	104	7
104	105	3
149	154	1
136	137	3
79	79	7
130	130	4
69	96	2
123	131	4
67	77	4
110	110	2
84	84	3
31	31	4
45	50	2
11	11	7
64	66	2
145	147	1
18	20	2
130	133	1
125	128	2
118	118	4
75	75	10
140	141	1
133	133	8
56	57	1
68	75	1
68	68	8
137	138	7
90	99	2
9	10	2
35	35	2
103	142	5
144	144	7
131	132	8
125	125	2
49	50	3
20	20	7
98	98	8
64	64	6
115	117	2
6	6	1
123	124	2
74	82	1
94	103	2
28	29	2
78	78	4
67	68	1
92	92	1
45	47	2
22	22	5
73	73	2
73	75	5
103	129	2
134	134	2
142	142	4
129	129	4
83	84	3
47	47	6
69	70	3
44	46	2
17	17	6
64	65	4
148	148	2
3	19	1
123	123	5
70	71	2
94	94	1
111	127	2
8	25	1
82	82	2
145	145	2
142	145	3
134	153	1
135	139	1
103	122	1
7	8	1
80	80	5
109	110	2
4	4	1
69	73	1
71	72	1
100	100	4
143	143	2
146	146	4
6	9	1
151	152	2
66	67	2
43	43	6
37	38	5
25	26	1
2	3	1
32	57	1
64	80	2
147	148	2
40	41	1
129	131	1
106	107	4
119	120	3
58	58	1
48	49	2
147	149	2
19	24	1
95	98	1
35	36	2
125	127	4
89	89	1
93	102	1
84	86	3
40	46	1
36	36	2
7	9	3
120	120	5
103	124	1
3	3	1
5	6	1
13	19	1
12	13	2
103	104	1
48	53	1
39	57	2
150	154	1
141	141	1
79	80	1
50	51	1
116	118	1
21	22	1
105	123	3
57	57	2
34	34	2
21	32	1
57	58	2
131	131	3
31	32	1
95	99	3
135	135	1
65	66	1
75	76	2
105	105	1
