140	140	5
76	76	7
152	152	3
9	9	3
141	146	6
15	15	5
154	179	4
50	51	9
123	123	4
84	86	2
37	37	4
100	100	9
31	31	3
28	28	4
81	81	9
62	62	6
125	125	4
11	11	4
0	76	4
148	148	7
145	145	7
136	136	6
173	173	8
175	175	6
108	108	1
13	13	2
86	149	1
123	125	1
18	18	8
17	18	2
54	54	4
63	87	1
60	60	5
130	130	6
107	107	6
160	165	1
155	155	3
6	8	1
134	147	1
144	147	1
142	147	1
154	177	1
164	164	6
96	96	5
74	74	3
86	173	1
62	131	6
42	42	3
169	169	3
159	169	2
101	102	1
122	129	2
92	92	1
114	114	3
10	10	3
29	30	5
162	162	3
115	170	2
43	43	6
171	176	3
150	151	7
141	143	2
22	22	4
156	156	2
85	152	8
111	111	4
86	86	2
83	149	3
94	95	3
37	38	3
14	14	12
104	104	6
148	149	2
158	158	3
36	44	4
108	174	4
57	57	4
139	139	2
141	145	2
122	122	6
38	38	3
53	53	3
112	135	9
60	65	3
132	133	1
131	131	1
5	5	2
97	97	4
166	166	2
72	72	4
138	139	3
71	71	3
154	154	4
120	121	1
99	103	3
144	144	1
8	9	10
52	52	3
35	35	2
9	12	1
67	67	2
159	166	2
71	72	5
91	91	4
0	0	2
129	129	7
134	172	2
85	140	1
89	89	1
127	127	3
41	41	2
78	78	3
42	43	2
24	26	1
25	25	2
161	161	4
106	106	8
95	95	5
12	12	2
4	4	4
142	144	3
124	124	2
61	64	1
122	132	3
144	146	1
146	146	6
116	116	4
84	85	2
115	142	3
92	93	3
7	7	4
18	19	1
4	19	6
119	130	4
125	129	2
98	98	3
3	3	6
95	96	2
29	29	2
93	96	2
30	30	3
149	149	4
73	73	1
58	58	2
82	82	3
20	21	1
163	163	2
142	142	1
150	150	5
151	151	3
65	67	1
94	94	3
73	76	1
121	121	2
152	173	2
50	50	5
84	84	1
36	36	3
75	75	2
143	147	4
6	9	1
87	89	2
6	20	3
66	66	2
32	32	6
2	21	1
115	118	2
85	86	2
146	149	1
119	122	1
102	102	1
68	68	4
81	82	2
88	88	1
34	34	1
175	176	2
165	166	3
147	147	2
13	51	2
92	177	1
64	64	4
112	113	1
152	174	1
160	160	1
54	71	3
79	80	1
155	171	2
32	37	3
103	104	3
1	1	2
45	45	3
6	49	1
81	140	2
171	171	2
86	152	1
106	107	2
37	40	2
23	26	1
133	133	1
110	110	1
176	176	2
157	158	1
61	65	3
37	43	1
126	126	1
63	63	1
8	8	1
90	90	1
96	98	1
86	87	1
17	17	1
176	179	1
33	33	2
159	160	2
60	71	1
136	170	1
15	17	1
87	87	2
62	64	1
34	43	1
95	97	1
11	14	2
132	132	1
91	109	2
27	27	1
117	168	1
58	59	1
83	173	1
93	93	1
34	35	2
19	19	1
15	16	1
158	165	1
