147	147	5
85	85	3
113	113	2
42	42	14
123	132	3
89	89	5
97	97	7
131	132	2
93	94	6
124	124	10
129	129	10
4	4	6
82	130	2
47	48	6
119	119	11
26	26	5
150	150	16
118	124	2
83	83	13
122	132	1
153	153	8
148	148	9
106	106	7
149	150	1
20	20	10
162	163	1
133	134	6
108	109	8
144	155	3
165	165	2
39	39	3
37	38	2
36	36	7
17	17	11
36	79	1
13	126	2
86	86	6
10	11	2
159	159	5
114	116	1
149	149	1
109	136	2
117	118	6
123	135	3
75	75	5
53	66	2
142	142	9
21	21	9
77	77	3
80	80	4
143	143	11
12	12	8
24	24	4
53	53	14
135	138	2
50	50	3
139	139	5
104	104	11
137	137	6
64	64	8
110	110	19
145	145	3
93	95	4
158	158	8
113	114	4
98	99	3
57	61	3
138	138	6
156	156	18
15	15	2
8	8	8
11	11	13
107	107	6
114	114	2
94	94	4
34	34	10
10	25	1
125	126	1
2	2	13
20	21	3
90	90	9
155	156	6
16	21	2
107	135	3
168	168	8
130	130	3
125	128	2
151	157	3
49	50	3
109	109	7
119	151	2
166	166	5
130	132	1
78	78	2
148	161	1
48	49	3
52	52	8
63	64	1
14	14	4
88	89	5
127	127	4
117	165	4
35	35	12
90	92	1
167	167	3
36	80	1
129	139	2
111	111	5
68	68	1
142	149	3
84	86	4
135	135	4
129	156	1
161	161	2
149	151	1
26	27	2
82	83	3
22	22	3
118	118	4
134	134	3
91	91	5
20	24	5
99	99	10
89	132	2
68	69	1
125	130	3
126	128	3
140	140	2
151	151	2
92	136	2
49	49	2
41	41	4
165	169	3
71	71	7
92	137	1
156	167	2
102	102	8
105	105	6
51	51	3
163	163	5
134	135	3
132	132	3
133	133	3
68	70	1
3	54	1
170	170	2
28	28	8
16	16	7
11	12	1
45	45	6
19	19	3
85	99	3
56	56	8
147	148	2
105	119	2
91	94	3
34	35	5
129	164	1
152	163	3
10	10	8
92	92	5
139	140	1
116	116	10
142	168	2
122	122	6
117	117	9
48	51	1
152	153	4
17	159	3
18	18	9
128	129	2
144	145	1
62	62	2
51	52	4
55	64	1
1	1	5
91	122	1
44	44	3
55	55	6
89	133	2
5	6	2
152	154	3
123	123	4
91	103	4
123	134	2
155	155	7
44	46	1
88	88	7
105	107	1
120	120	5
128	158	1
43	43	10
37	37	6
164	164	6
16	104	1
44	45	2
93	93	5
114	115	3
129	142	2
33	33	1
127	140	1
119	122	2
6	6	5
154	154	3
54	65	1
101	101	6
76	76	2
136	136	3
121	121	2
91	101	1
133	140	2
95	95	2
169	169	3
38	38	3
18	19	1
103	103	2
79	110	1
89	90	2
133	135	2
41	70	1
2	57	3
90	123	2
100	100	4
128	128	4
40	64	2
112	112	4
96	96	3
54	54	3
66	66	4
125	129	2
91	92	2
116	117	3
152	166	1
46	47	3
119	120	2
85	98	1
109	134	1
54	56	2
25	25	2
17	22	1
121	122	2
135	136	1
83	123	2
141	141	4
123	124	1
23	23	2
81	81	1
22	23	2
3	3	5
93	124	1
5	55	3
101	102	2
79	79	2
82	82	4
119	121	1
10	26	2
66	67	1
146	146	4
3	66	4
116	118	1
13	85	4
83	124	3
7	7	7
85	100	3
73	73	1
2	41	1
2	3	2
157	157	4
8	9	1
4	5	1
143	144	1
153	160	1
13	13	2
111	137	2
152	160	2
160	160	3
134	136	4
122	123	3
98	98	5
23	24	1
74	76	2
65	65	2
150	151	1
23	25	1
7	50	2
27	27	2
8	25	1
97	98	1
70	70	2
138	139	1
107	108	2
131	131	1
84	84	2
126	126	1
151	152	1
162	166	1
116	165	1
24	41	2
8	11	2
126	127	1
130	131	2
35	36	3
7	23	1
107	137	1
137	139	1
108	108	2
87	89	3
139	157	1
9	16	2
132	143	1
83	84	1
8	24	1
24	25	2
66	68	1
17	142	1
42	106	2
12	81	1
6	23	1
144	165	2
140	141	1
14	15	1
144	146	1
146	164	1
9	10	3
41	57	1
117	143	1
100	101	1
87	87	1
144	144	3
141	142	1
143	166	2
57	57	1
18	51	1
45	46	1
48	48	1
106	135	1
150	159	1
9	9	3
64	70	1
83	132	1
40	40	2
58	58	1
47	47	1
152	152	1
162	164	1
101	105	1
115	115	2
79	113	1
52	53	1
113	125	1
87	88	1
21	22	1
136	138	1
39	64	1
0	0	2
126	140	1
47	81	1
94	134	1
5	5	1
162	162	1
95	96	1
74	74	1
0	1	1
86	97	1
