186	186	9
73	73	3
35	42	3
126	126	5
127	127	3
186	193	1
181	181	5
58	58	6
112	112	10
43	44	3
125	127	3
50	51	2
69	69	7
135	135	5
99	102	1
39	40	1
30	30	2
116	150	6
63	63	3
136	137	2
22	22	6
3	3	1
189	189	2
16	16	6
117	117	11
176	177	1
82	82	1
70	70	10
15	16	4
143	143	12
188	188	3
55	55	3
182	183	5
29	178	3
129	129	6
35	35	6
6	6	1
0	175	3
148	148	3
61	61	4
94	95	10
33	141	2
170	170	6
140	140	11
176	176	6
2	2	3
2	4	2
19	19	7
23	177	2
51	51	16
154	154	9
7	8	2
29	177	6
4	5	1
10	10	3
95	95	5
159	159	12
70	72	1
142	142	8
34	36	1
169	170	1
12	12	5
171	171	5
56	57	1
149	149	5
100	100	2
182	182	3
93	94	4
44	47	3
164	164	3
64	64	6
118	118	6
15	182	1
106	138	5
38	38	3
97	98	7
141	180	2
197	197	8
47	181	1
39	41	7
108	109	3
190	190	3
101	138	3
76	76	1
37	37	5
168	168	5
190	193	4
16	17	3
116	116	4
124	124	2
171	172	10
63	64	9
114	124	4
6	7	5
88	88	2
59	77	4
53	53	3
115	115	4
166	166	2
134	134	4
66	66	2
173	173	1
108	187	7
62	62	3
196	197	6
47	47	5
169	169	9
17	17	6
102	102	5
14	173	2
120	120	5
97	97	1
181	182	2
136	136	5
34	35	2
144	144	4
185	186	1
14	14	6
119	120	5
53	54	2
103	103	2
111	111	2
31	31	9
175	175	1
7	7	1
121	121	3
17	19	2
195	195	7
105	106	3
14	180	2
39	39	3
138	138	5
178	178	7
65	65	7
60	60	4
101	101	3
118	119	2
42	42	6
7	9	2
89	89	3
48	49	1
133	133	5
107	108	1
34	34	2
67	67	4
119	119	3
108	188	2
22	177	3
7	10	2
48	48	6
131	131	2
114	115	10
78	78	6
29	29	2
184	184	7
43	43	3
187	187	4
127	128	2
36	36	4
153	153	2
145	145	2
0	10	2
157	162	1
54	54	1
167	167	4
5	52	1
117	118	2
154	155	1
25	26	4
105	138	1
72	72	1
185	185	5
57	57	3
116	117	2
153	154	1
50	50	3
149	150	3
32	149	6
21	21	3
161	162	2
15	15	3
85	86	2
150	150	4
109	111	4
142	143	2
179	179	1
84	84	1
131	132	4
33	33	4
19	22	2
114	158	4
18	18	2
28	177	1
183	183	5
66	68	2
26	26	1
40	40	2
98	98	1
59	59	4
191	192	3
174	175	1
19	20	2
156	156	5
132	132	1
121	122	2
46	46	1
105	105	4
59	60	1
171	179	3
32	32	8
172	172	2
147	147	3
104	104	3
8	9	2
125	125	3
180	180	2
26	28	1
126	141	1
45	45	1
161	161	1
11	11	1
134	135	1
81	82	1
140	167	1
118	150	1
141	141	2
20	20	4
162	162	2
184	186	1
49	50	3
124	149	1
1	1	4
51	55	1
193	194	1
122	122	1
64	73	1
192	192	1
0	0	6
115	168	1
131	133	1
174	174	1
188	189	2
10	47	1
68	68	1
44	44	1
52	52	1
62	75	4
109	110	1
102	138	3
157	157	1
87	88	1
3	4	2
87	87	2
113	113	1
144	147	1
9	173	1
70	71	2
86	87	1
115	167	1
151	159	1
144	145	1
191	191	2
8	8	2
96	96	1
165	165	2
71	71	2
33	34	1
6	10	1
104	107	1
175	176	1
27	27	1
160	160	2
60	79	1
135	192	1
97	175	1
49	49	2
113	116	1
27	28	2
24	47	1
162	163	1
141	142	1
16	182	1
193	193	1
139	139	2
155	156	1
94	94	1
104	106	1
41	41	2
132	133	2
16	20	1
22	93	1
158	158	1
86	86	2
40	41	1
88	89	1
168	169	2
146	146	1
