54	58	2
117	122	1
75	75	5
93	93	15
28	29	3
124	124	11
39	41	5
123	125	2
27	28	3
13	16	7
39	39	19
66	66	10
105	107	2
79	79	5
76	76	7
92	93	7
146	149	4
25	27	4
99	99	6
94	94	18
109	110	3
123	126	1
34	37	2
70	71	3
99	122	2
122	122	9
13	13	9
138	138	18
85	86	3
142	144	4
14	19	3
63	63	9
27	27	11
19	19	8
78	84	4
7	35	4
84	84	6
140	141	5
62	68	6
136	136	10
24	24	6
17	17	21
5	5	14
151	151	4
142	143	11
117	117	5
10	10	15
10	12	1
109	109	9
110	110	2
131	133	6
128	128	6
138	139	16
144	145	7
20	22	6
68	68	10
114	114	9
150	150	7
8	8	15
11	11	7
99	102	1
137	141	5
84	87	3
90	90	2
6	7	1
135	135	23
148	149	10
115	115	6
145	145	17
14	15	9
30	31	6
21	21	7
72	74	2
3	3	17
106	106	9
48	54	4
82	82	14
78	82	4
85	108	5
38	38	10
21	22	8
62	63	7
50	52	2
142	146	4
74	74	3
4	6	5
83	86	1
83	97	7
89	93	2
94	95	1
8	11	3
129	129	12
73	74	3
99	101	3
110	115	2
125	125	3
15	17	5
27	29	9
31	31	10
71	74	5
22	26	6
33	33	11
5	7	2
126	126	13
84	85	4
117	127	2
119	119	8
111	111	12
118	120	1
49	50	7
42	43	7
48	49	4
111	113	9
5	6	5
64	66	4
39	40	8
50	51	10
20	25	6
74	75	4
121	125	5
108	108	6
28	28	12
95	95	10
83	83	9
126	127	8
137	137	14
112	113	7
23	23	8
118	118	15
69	72	4
88	108	3
53	54	4
144	147	5
42	42	9
84	86	1
112	116	1
57	57	2
37	37	8
114	119	3
35	35	5
11	12	3
48	48	9
100	102	4
125	126	2
18	19	7
80	80	12
143	143	9
86	86	6
102	103	5
75	80	3
66	67	6
146	148	3
132	150	2
75	76	2
20	20	13
98	98	5
96	96	14
81	84	4
35	38	4
54	56	2
62	65	3
11	15	2
101	101	13
26	27	1
85	98	3
72	73	4
16	16	5
116	117	7
71	71	11
15	15	2
132	141	5
107	108	6
130	130	3
107	110	3
83	113	3
147	147	7
103	103	6
132	132	9
50	50	4
82	107	1
46	47	2
121	121	9
150	151	4
24	25	3
152	152	10
41	42	5
86	87	1
64	64	6
146	147	4
149	150	3
24	27	2
44	47	1
29	29	10
79	81	4
67	68	2
120	120	15
116	120	2
128	150	2
54	54	4
80	83	2
93	95	2
42	44	3
53	55	1
137	145	3
105	113	3
47	47	16
85	106	4
44	44	4
24	29	1
123	123	13
12	12	11
81	110	2
23	28	4
80	82	4
62	64	4
40	45	4
20	21	9
140	140	4
135	136	9
141	141	14
153	154	1
146	146	12
45	47	3
10	15	2
112	114	1
112	112	11
78	102	3
76	77	6
51	51	6
58	58	7
77	77	8
52	52	7
75	77	3
77	78	5
25	30	4
4	4	5
122	124	1
118	125	4
122	123	1
71	73	2
63	64	13
7	9	3
87	87	12
147	148	6
38	39	3
86	89	4
53	53	8
154	154	7
64	68	1
43	46	2
40	41	5
26	28	1
45	51	4
99	113	2
104	104	7
111	112	3
32	32	6
93	94	6
18	32	1
120	122	2
55	57	13
40	40	13
65	65	9
109	111	6
33	34	4
6	6	8
116	116	9
136	137	8
95	96	4
65	66	3
97	108	4
31	34	1
7	31	1
123	150	4
123	124	3
88	113	3
25	25	4
70	70	7
41	45	2
25	28	3
14	17	3
118	121	5
153	153	7
3	5	2
78	78	6
61	62	2
116	118	3
18	18	14
102	109	1
105	106	5
36	36	9
81	81	7
26	30	2
141	143	4
131	131	4
33	36	6
10	11	2
123	149	3
101	103	6
79	82	5
68	71	5
28	32	1
137	138	3
30	30	1
66	69	3
152	153	8
50	53	2
145	148	2
101	107	1
8	9	4
16	17	3
67	70	2
78	86	2
115	117	3
19	20	1
29	45	2
36	39	3
139	140	1
144	146	4
87	108	2
22	30	2
64	67	1
118	129	3
137	140	1
17	18	2
144	144	9
145	150	1
2	3	1
102	104	5
49	72	1
135	141	3
90	92	5
67	67	3
47	48	3
91	91	2
81	103	2
7	7	8
22	25	2
69	69	3
26	26	2
33	35	2
121	122	8
43	47	2
41	41	4
139	139	4
85	85	4
145	147	3
22	22	8
136	141	1
105	105	3
53	57	1
97	102	2
81	82	6
13	14	2
117	129	2
45	46	2
69	73	2
65	68	4
34	36	3
85	88	1
66	68	2
56	56	5
41	43	3
43	43	5
97	98	4
24	48	2
94	96	4
19	24	2
145	146	4
82	83	3
126	133	3
13	70	1
28	31	1
147	150	4
15	16	2
55	56	1
14	14	2
127	127	4
9	10	6
98	99	3
84	108	1
25	26	1
95	113	1
28	38	1
106	108	1
78	79	2
119	129	3
79	84	1
48	50	2
56	58	1
132	140	2
2	4	2
72	72	3
37	39	1
22	23	1
23	26	1
40	46	2
83	84	2
139	142	2
4	8	1
121	124	2
35	37	1
98	111	2
3	7	1
127	130	4
132	149	5
97	111	1
102	102	4
14	16	6
13	19	1
36	38	2
12	14	1
110	111	3
92	110	2
37	38	7
74	105	2
49	52	4
140	142	1
148	148	4
34	35	1
95	100	4
11	19	1
21	26	3
34	34	3
51	53	2
103	105	3
62	62	3
11	17	3
19	22	2
113	117	2
146	150	2
7	71	5
129	130	3
9	9	1
7	8	2
39	46	1
110	113	2
101	122	3
91	92	1
106	107	2
118	119	2
53	56	6
120	121	1
16	73	1
113	113	2
78	81	2
70	72	3
31	32	1
131	132	2
22	29	2
97	97	1
64	65	1
46	46	1
56	57	3
49	51	1
124	125	2
84	106	2
73	73	2
38	40	3
125	127	1
21	25	2
139	143	2
4	5	1
5	8	1
75	82	1
30	47	1
26	31	2
134	147	1
25	29	1
133	133	1
119	122	1
61	64	1
142	148	1
54	75	2
96	99	1
72	75	2
23	47	1
107	107	3
96	97	2
3	109	1
141	142	3
142	142	1
122	127	1
28	33	1
91	109	1
81	86	1
69	71	1
108	109	3
79	83	1
134	135	1
47	55	1
36	37	1
114	115	4
119	120	1
55	58	1
95	97	1
144	150	1
116	119	1
127	128	1
138	145	1
130	133	1
88	89	1
99	112	1
96	98	1
84	97	1
69	70	1
51	56	1
134	134	1
74	76	1
3	4	1
143	145	1
6	35	1
55	55	2
76	78	1
91	105	1
115	118	1
110	114	1
79	80	1
49	49	1
61	63	1
151	152	1
128	133	1
125	131	1
