150	150	1
37	66	2
131	133	4
76	76	2
169	169	12
165	167	6
130	130	9
100	100	5
86	86	7
158	158	3
72	98	1
46	46	13
38	38	5
109	128	2
23	23	6
27	83	4
121	121	4
62	62	8
110	110	10
93	103	2
56	56	6
152	152	2
89	89	4
64	64	4
17	17	2
2	2	6
23	27	2
74	75	6
36	118	2
159	159	2
15	15	4
107	107	6
84	142	2
49	50	3
129	129	2
143	143	6
11	65	4
131	151	3
19	19	5
26	26	6
47	50	1
135	135	6
166	168	3
22	22	3
123	139	3
121	129	3
146	146	3
92	92	2
70	70	5
68	69	1
155	155	7
7	10	3
146	165	1
4	11	4
123	123	5
45	68	3
45	107	1
89	152	1
21	23	6
170	170	6
153	154	1
149	149	6
86	152	4
154	155	3
144	144	6
101	147	2
99	100	4
0	36	2
8	9	1
81	115	2
67	67	4
134	134	3
118	122	7
25	25	6
161	161	3
133	133	3
140	141	1
108	108	4
55	55	14
34	34	8
73	73	1
145	145	3
42	42	6
106	106	3
52	63	2
84	100	4
132	135	2
22	23	7
125	126	1
24	51	4
93	143	2
81	82	2
128	128	4
51	51	7
116	116	1
37	37	8
21	21	4
26	27	1
76	81	3
108	141	3
35	36	1
75	76	1
129	131	1
131	136	5
35	37	2
50	52	5
63	63	5
112	112	2
62	121	1
135	137	2
119	120	2
1	2	2
11	11	2
51	56	4
80	82	2
54	55	2
153	153	2
124	134	1
94	94	3
98	98	3
130	131	7
45	45	4
83	89	3
131	134	2
10	10	2
90	90	5
19	20	2
72	92	3
163	163	1
71	93	2
87	169	4
39	41	1
153	162	2
125	139	2
109	145	5
72	72	5
91	160	2
69	90	4
156	156	8
20	20	2
119	136	3
142	146	1
66	68	2
4	14	2
47	47	11
167	167	2
1	1	2
148	148	2
85	147	1
105	107	1
48	57	1
3	26	1
133	134	1
23	112	2
85	85	3
72	73	1
8	8	4
11	24	1
70	72	1
3	138	1
24	24	5
165	165	5
103	103	1
46	48	2
104	104	5
79	79	6
33	33	3
85	103	2
49	49	2
78	79	1
93	93	2
160	169	2
164	170	2
75	85	2
105	140	1
147	147	5
12	71	1
4	116	1
161	168	1
2	3	3
92	142	1
168	168	4
102	110	2
109	110	1
36	43	2
113	113	1
100	148	3
96	97	2
154	154	4
80	81	1
84	96	2
136	136	8
118	118	1
144	145	2
2	21	2
70	71	3
164	165	3
18	46	2
69	91	4
5	34	3
26	38	1
1	124	2
159	160	2
125	125	5
37	38	4
140	140	1
81	81	3
35	43	1
64	82	1
18	18	2
83	83	1
90	147	2
39	40	2
128	161	2
154	159	1
7	15	1
7	34	3
74	143	2
155	157	2
140	158	2
14	14	4
38	39	1
40	44	5
77	77	3
74	74	2
93	142	2
86	99	2
72	75	2
66	66	1
152	160	2
13	15	1
54	54	4
164	164	3
5	5	2
18	48	1
142	143	1
41	80	1
109	112	2
143	167	2
40	40	1
6	6	1
2	24	2
85	91	2
66	92	2
3	4	3
78	78	5
82	82	2
4	7	2
121	127	1
86	160	1
118	119	1
27	27	6
129	142	1
71	127	3
7	7	1
84	97	1
124	133	1
16	34	2
137	138	2
157	158	2
132	132	1
24	48	1
64	119	1
11	13	2
26	41	2
157	161	1
10	56	1
86	90	1
1	38	2
68	68	2
113	140	1
2	111	1
143	145	1
6	135	1
39	80	2
91	92	1
127	160	3
105	106	1
105	105	1
41	42	2
12	38	2
109	109	1
111	111	2
114	141	2
47	48	1
97	97	2
25	48	1
80	113	2
119	119	3
101	101	1
14	16	2
110	111	1
143	144	1
79	148	1
129	151	1
0	6	1
120	122	1
0	0	1
166	166	1
12	21	1
94	106	1
116	165	1
4	4	1
11	12	1
12	12	2
6	124	1
6	10	1
77	82	1
52	52	1
150	159	1
123	126	1
27	84	1
155	156	1
65	67	1
115	127	1
61	67	2
162	163	2
64	137	1
65	65	1
123	137	1
46	47	1
16	17	2
104	105	1
82	88	1
62	115	1
44	45	3
64	70	1
77	85	2
21	24	1
53	53	1
6	126	1
9	9	1
80	107	1
131	150	1
151	151	1
124	124	1
67	68	1
71	71	1
62	82	1
16	56	1
110	112	1
19	50	1
0	123	1
127	141	1
89	101	1
149	150	1
1	49	1
80	108	1
