40	40	5
106	107	2
81	81	6
90	93	1
90	97	6
101	101	7
116	116	4
14	22	8
5	5	6
68	69	5
39	39	5
116	126	1
121	121	8
82	82	8
86	87	4
97	98	6
0	0	4
33	33	13
50	50	13
69	70	4
110	110	8
90	90	3
53	56	2
115	115	8
125	125	3
62	66	3
47	47	8
23	24	2
59	59	5
25	27	3
2	42	2
111	111	14
51	51	7
81	82	1
27	27	11
96	96	4
94	94	2
80	80	8
19	19	10
76	76	10
21	21	4
104	129	3
65	65	3
68	84	2
100	100	4
54	54	5
41	41	6
10	10	2
126	130	3
67	73	1
70	71	1
29	41	4
9	10	6
112	112	10
49	49	6
77	77	3
42	43	2
56	56	8
109	109	13
114	114	10
28	29	3
7	7	11
11	11	5
105	105	15
93	93	3
17	17	6
22	23	4
34	34	6
48	48	10
28	28	2
127	127	4
22	22	3
87	87	2
22	24	5
53	53	5
27	45	7
2	2	8
61	62	3
124	124	6
58	59	6
26	27	9
15	16	3
4	4	1
70	70	9
76	79	1
47	75	1
103	103	3
128	130	3
89	89	5
60	60	4
59	91	2
8	8	2
52	52	3
71	72	5
66	66	8
61	61	11
46	47	6
88	89	2
68	70	2
75	75	4
68	68	2
71	91	3
102	102	4
108	108	1
119	119	5
59	60	5
74	75	1
13	13	8
91	91	2
25	26	1
45	45	6
128	128	8
16	16	2
57	57	1
129	129	5
29	29	4
18	18	5
67	68	3
114	124	2
66	67	2
110	122	2
99	99	1
29	30	2
5	6	3
43	44	2
1	1	5
24	25	1
72	72	5
88	88	3
132	133	1
4	79	4
98	98	4
95	95	9
44	80	1
72	73	2
100	101	1
73	73	4
31	32	1
95	96	5
126	126	3
124	125	3
71	71	7
47	48	3
55	55	1
62	63	2
43	43	4
84	84	3
42	42	2
62	62	4
19	20	2
27	28	3
104	106	1
132	132	3
106	106	6
69	69	5
117	117	2
20	20	2
14	14	3
74	74	2
123	123	5
122	122	1
67	67	2
45	47	2
91	92	6
97	97	5
85	89	2
89	98	1
46	46	5
24	24	1
83	85	2
121	127	1
125	128	1
14	15	2
70	91	1
107	107	1
44	44	2
79	79	3
104	105	4
11	12	1
30	31	2
15	30	1
103	104	1
115	131	3
10	11	2
125	126	1
2	5	1
1	7	1
114	115	1
12	19	2
78	116	2
83	84	1
131	131	1
52	53	1
83	83	1
15	18	2
54	56	1
78	79	2
21	30	1
92	92	3
122	125	1
104	104	5
133	133	3
45	46	1
9	133	1
8	28	2
113	113	1
69	83	1
55	60	1
66	75	1
111	112	3
3	4	6
108	127	1
41	44	1
57	94	2
49	76	1
16	18	1
23	23	2
80	81	1
9	115	2
49	53	2
6	7	1
44	47	1
9	32	1
58	60	1
126	127	2
77	78	2
30	30	2
92	100	2
18	19	1
27	41	2
12	12	3
62	68	1
44	78	2
117	118	3
40	41	1
95	100	1
31	33	2
126	129	1
126	128	1
50	52	1
110	111	1
6	6	1
107	108	1
8	133	1
58	71	1
117	120	1
54	62	1
82	116	2
88	98	1
73	77	1
71	81	1
74	77	1
89	90	1
12	18	1
97	99	1
26	26	1
57	102	1
0	1	1
