112	113	3
17	28	3
38	38	3
170	170	5
119	120	2
148	148	8
112	112	5
133	133	9
65	67	3
30	30	9
41	41	8
73	81	5
74	81	5
28	28	5
33	33	3
81	89	4
102	103	1
175	176	3
45	45	4
92	93	2
54	54	3
71	71	7
9	10	4
13	14	1
2	3	14
0	0	4
31	31	18
91	93	4
81	82	3
145	145	2
37	121	2
67	68	2
9	9	9
75	75	2
87	87	1
106	117	2
19	20	4
51	52	5
172	172	3
90	91	4
59	59	2
2	2	8
136	136	1
67	67	8
106	109	3
76	76	2
104	104	2
84	85	1
106	106	2
140	140	3
113	113	1
149	150	4
159	160	4
3	3	5
107	107	7
119	119	4
124	124	1
103	103	2
7	9	2
10	11	4
136	143	1
91	92	4
149	149	5
158	159	4
44	45	4
130	130	7
176	176	5
17	17	5
14	14	7
10	13	1
154	154	1
95	135	1
102	119	2
43	44	2
90	119	2
65	114	2
163	164	5
126	127	2
129	130	3
118	118	2
144	145	3
82	82	3
114	114	3
43	43	7
34	35	2
100	100	1
80	81	4
37	38	2
32	33	1
126	126	1
11	11	2
180	180	3
23	23	8
8	8	6
52	52	13
101	101	6
86	115	3
8	13	1
168	168	5
25	25	2
143	145	2
142	142	2
79	88	1
153	154	2
66	85	1
62	62	8
89	89	2
143	143	9
93	93	3
151	153	4
10	10	2
90	165	1
132	133	6
134	134	2
79	80	3
36	36	6
65	65	9
104	106	1
61	61	2
20	20	3
141	141	6
122	122	5
55	56	3
100	101	2
59	60	3
178	178	3
1	1	4
111	111	6
170	172	3
150	150	4
60	61	1
163	165	1
19	19	2
161	161	5
12	12	5
19	24	2
100	163	1
73	73	3
117	117	2
73	75	2
87	99	1
72	72	3
27	28	1
81	83	2
132	132	2
120	126	2
53	53	8
83	83	4
50	50	3
85	85	7
52	53	3
115	121	1
127	127	3
40	42	2
88	88	3
26	33	3
6	7	2
146	147	1
135	135	4
77	77	2
29	31	3
84	84	1
174	174	8
171	171	1
82	98	1
35	35	1
109	110	3
90	90	1
8	128	2
99	99	1
17	18	2
62	64	5
137	137	1
80	83	1
24	28	1
39	40	2
107	108	4
115	115	4
51	51	6
78	78	8
60	60	5
89	165	1
173	173	3
94	94	3
24	24	1
32	32	1
39	50	2
123	124	3
91	91	2
158	158	2
89	121	2
139	139	1
80	80	3
5	5	1
16	16	1
6	6	2
92	137	2
138	166	2
96	96	2
147	148	2
27	27	3
20	21	2
68	68	2
146	146	2
138	141	2
94	142	2
105	108	2
12	13	3
131	132	1
177	177	4
141	142	1
167	168	2
94	141	1
155	155	1
123	123	1
61	62	2
64	65	5
157	157	3
108	108	2
79	137	2
164	166	3
89	90	2
123	125	3
97	97	1
5	35	2
157	158	2
153	153	3
78	79	2
151	151	2
17	30	1
32	34	2
128	177	1
125	125	2
4	4	2
15	15	2
5	15	1
159	161	1
120	120	2
75	77	1
80	89	2
169	169	2
105	105	1
155	156	1
23	24	1
14	15	1
74	85	1
0	4	1
179	179	1
81	81	2
159	159	2
104	105	1
167	167	1
164	164	1
152	163	1
122	126	1
88	89	1
57	58	1
149	167	1
152	152	2
101	119	1
163	163	1
95	96	2
148	149	2
62	65	1
115	116	1
162	162	2
113	114	1
136	144	2
109	109	1
44	44	2
138	138	2
22	22	1
175	175	1
138	139	1
128	129	3
95	95	1
9	130	1
121	121	1
174	175	1
13	23	1
74	75	1
37	37	1
63	65	1
116	116	1
103	121	1
142	143	1
112	118	1
145	146	1
114	116	1
130	131	1
