89	89	1
110	110	5
123	124	2
64	64	7
56	56	6
59	115	2
66	66	3
96	100	1
86	86	10
18	96	2
78	124	2
30	30	1
9	9	3
101	118	2
75	75	5
28	28	5
57	116	3
118	118	5
11	66	2
61	120	4
13	31	1
97	98	2
89	107	1
11	11	1
18	18	4
93	93	3
63	70	3
9	13	3
94	105	3
119	119	7
3	7	1
34	34	5
121	121	3
59	59	4
69	70	3
73	73	2
70	70	1
60	60	1
20	20	8
78	78	10
106	133	4
89	127	3
72	108	1
108	108	4
19	122	1
104	105	6
29	33	1
80	81	2
96	96	1
92	92	3
100	100	3
10	10	4
104	104	3
111	111	1
38	38	4
101	102	3
118	120	4
109	112	2
23	23	6
91	91	8
88	88	4
69	69	6
20	21	3
17	18	1
32	32	3
130	130	5
29	29	4
107	107	6
94	94	5
34	131	2
126	126	3
28	32	2
93	127	1
15	16	1
113	114	7
107	111	1
134	134	2
15	15	4
71	116	2
40	40	3
72	72	5
74	74	7
94	122	3
109	109	1
87	87	3
22	23	1
110	111	7
6	38	2
58	58	5
7	7	4
37	37	5
44	44	5
26	26	3
13	32	2
28	31	2
57	72	1
91	92	5
122	122	1
49	49	5
117	134	1
73	128	3
16	26	3
86	104	2
68	122	2
2	2	3
112	112	3
39	40	3
98	98	4
56	123	1
42	42	3
5	13	1
11	121	3
66	67	1
113	113	12
22	22	5
57	58	8
127	127	4
114	116	1
62	123	2
25	25	2
47	69	2
27	28	2
15	42	2
72	120	1
21	31	2
0	12	2
109	110	1
123	125	3
118	119	1
125	126	2
124	124	8
6	7	2
45	45	2
131	131	1
130	131	2
47	47	2
128	129	1
82	82	3
102	102	4
129	129	2
104	134	1
119	120	2
70	125	3
49	114	2
26	29	2
57	57	2
68	124	1
59	125	3
81	93	1
18	19	3
39	39	1
123	123	3
129	131	5
84	84	2
133	133	1
1	1	2
83	93	1
55	55	3
82	83	4
8	8	1
81	88	1
83	83	3
71	71	1
33	61	1
103	103	3
78	85	1
27	27	3
117	117	1
50	80	1
103	126	1
14	14	3
71	72	2
111	112	3
14	99	1
35	76	1
16	17	1
43	43	1
19	120	1
99	99	1
61	61	2
56	82	2
41	43	1
78	80	3
6	6	2
128	132	1
16	28	2
116	117	2
108	134	2
79	80	3
114	119	1
89	131	3
6	74	2
56	91	1
66	125	3
79	79	5
114	115	3
5	6	1
85	85	2
91	104	1
85	98	2
76	76	7
7	36	2
8	9	1
113	115	1
115	115	1
50	81	1
2	41	2
122	129	1
126	127	1
81	81	1
33	33	2
55	56	1
42	43	1
128	128	2
11	43	1
41	42	5
132	133	1
102	118	2
101	103	1
132	132	2
64	66	1
46	46	1
87	88	1
24	24	2
96	98	1
49	50	1
41	41	1
21	22	2
75	130	2
18	121	1
60	124	1
0	0	2
58	112	2
15	34	2
61	125	2
95	122	1
35	128	1
19	19	1
96	119	1
64	99	1
62	62	2
36	36	2
102	103	1
37	38	2
66	68	1
89	92	1
13	95	1
48	103	1
89	91	1
73	102	2
35	36	1
26	27	1
51	51	2
75	77	1
29	31	1
58	123	1
15	28	1
