1	1	10
4	4	8
39	39	19
46	46	26
26	26	6
3	3	10
5	5	14
32	32	9
27	48	1
51	51	2
5	6	6
72	72	9
76	76	7
37	37	15
70	70	23
42	42	32
64	64	11
80	81	2
16	16	14
63	63	10
2	2	13
28	28	18
48	48	10
19	19	19
27	45	1
54	54	10
10	34	2
78	78	11
73	73	9
27	41	2
8	8	4
10	10	4
68	68	9
62	62	15
29	30	15
7	46	3
45	45	12
64	65	7
63	67	2
61	63	1
40	40	9
33	33	3
80	80	17
60	60	3
59	60	8
21	21	7
9	10	6
25	25	6
69	70	6
14	14	22
59	61	4
29	29	15
43	43	3
11	52	5
55	56	3
5	32	2
55	55	16
52	67	1
50	51	2
12	12	9
26	28	3
42	44	1
74	74	19
7	8	6
39	55	1
37	38	8
56	66	4
66	66	11
27	27	13
15	15	6
31	31	3
63	66	2
39	41	1
40	41	1
2	7	1
69	69	9
7	7	9
27	28	7
59	59	17
52	52	4
79	79	7
31	32	2
8	25	1
13	13	2
30	30	2
63	64	2
9	9	9
61	61	15
65	65	16
57	57	6
0	0	5
31	33	4
77	77	10
51	67	3
34	59	3
26	30	4
4	18	1
36	62	1
32	70	1
49	52	1
1	20	3
42	43	2
0	1	1
35	35	10
71	72	4
19	43	2
17	17	4
4	5	4
9	14	2
18	45	2
41	45	2
53	53	10
60	61	8
31	54	2
3	4	1
15	16	5
74	79	2
52	53	3
79	80	4
51	52	3
53	54	6
67	67	2
38	38	14
26	35	1
70	72	3
6	6	6
49	49	5
28	32	1
34	34	2
39	40	3
41	42	3
49	67	4
57	58	5
19	48	2
70	71	2
51	68	2
47	48	2
16	53	1
5	68	3
42	45	1
63	68	1
47	47	9
9	25	3
1	2	1
50	50	4
68	70	4
54	71	3
56	56	2
58	58	2
30	72	2
10	15	1
71	71	3
65	66	3
67	68	2
0	28	5
5	26	1
41	41	9
15	25	2
49	51	1
1	8	1
67	70	2
11	69	1
75	75	2
25	53	1
37	53	1
28	55	3
45	46	3
16	33	1
40	57	3
9	49	1
5	18	1
51	53	3
26	65	2
6	29	1
20	20	2
17	21	2
27	29	2
12	51	2
11	11	3
5	72	2
25	52	1
27	47	1
14	50	1
77	78	2
0	15	1
26	54	1
50	53	1
47	57	1
48	49	1
18	19	1
48	70	1
49	53	2
68	69	3
26	56	1
8	49	1
45	48	1
66	67	2
28	41	3
18	18	1
21	70	2
67	69	1
19	64	2
14	21	2
17	46	2
66	70	1
13	14	2
18	46	1
32	36	1
9	11	1
27	43	1
11	68	1
18	20	1
25	49	1
21	51	1
26	29	1
74	75	1
66	72	1
6	8	1
4	29	1
40	42	2
4	26	1
48	52	1
36	36	1
49	50	1
46	75	1
17	47	1
