121	121	10
74	74	6
111	111	11
17	17	5
123	124	3
1	1	8
41	42	2
140	147	3
113	113	8
100	138	5
98	98	7
53	54	4
1	2	3
141	141	2
124	126	7
151	151	3
26	26	16
86	108	1
63	67	3
114	114	7
109	109	4
81	81	12
79	79	4
112	112	8
63	63	2
23	24	6
80	80	3
24	66	3
133	133	6
140	141	12
5	8	3
15	15	7
143	144	7
12	13	1
13	14	10
3	3	12
62	70	4
157	158	4
62	62	5
68	68	7
137	138	2
44	44	5
66	67	2
47	47	3
3	4	4
130	130	4
94	94	8
127	127	3
51	51	4
136	136	5
87	87	12
50	52	1
26	28	1
32	33	3
8	8	6
31	37	3
106	107	3
2	2	4
83	83	3
119	120	4
93	95	5
27	27	2
30	31	3
49	63	2
67	67	6
132	153	2
110	111	2
149	149	10
145	147	5
88	88	1
68	69	4
49	49	2
144	144	4
124	124	2
94	95	2
90	90	5
50	50	1
101	101	8
16	17	3
112	114	1
121	137	2
105	106	2
64	85	2
134	151	3
7	7	4
42	42	3
65	81	1
70	70	1
8	11	3
156	156	4
73	73	5
134	134	8
13	13	4
21	22	2
83	84	2
103	103	3
32	37	2
102	102	1
69	69	3
132	133	5
155	155	7
34	40	2
95	96	1
6	7	3
126	126	5
89	89	1
23	23	4
4	7	5
18	18	2
0	0	3
61	61	2
32	39	2
12	36	1
104	104	4
134	135	1
35	35	4
142	142	1
40	40	7
29	29	3
26	27	1
4	4	5
138	138	4
124	146	2
20	21	1
37	37	2
48	48	3
119	119	4
31	31	2
38	38	6
129	130	1
106	106	8
14	14	4
14	37	4
20	20	1
139	139	3
108	108	6
154	155	1
8	142	3
91	92	6
67	68	1
113	114	2
146	147	1
18	19	4
99	104	1
9	9	2
128	128	4
65	66	3
20	22	1
39	39	2
159	159	3
47	48	2
147	148	2
47	69	3
123	123	3
82	82	5
131	153	1
92	92	8
117	117	1
153	153	5
100	101	1
53	53	2
53	55	2
128	129	3
105	105	1
27	28	1
93	93	2
7	35	2
12	12	2
56	56	2
121	136	1
103	104	4
32	34	1
79	144	1
43	43	6
46	46	3
99	99	1
147	147	1
16	16	1
85	85	5
52	52	5
97	98	6
17	18	2
129	129	2
54	54	2
155	156	2
16	26	3
148	151	1
24	24	3
156	157	4
112	113	1
137	137	10
107	107	3
148	148	3
46	71	3
157	157	1
21	21	2
39	103	1
158	158	4
100	100	1
120	120	2
150	150	1
6	6	1
12	124	2
122	123	2
123	146	1
148	149	1
140	140	2
0	1	1
121	122	2
120	135	1
91	91	3
125	125	2
73	74	1
137	147	1
7	76	3
132	132	3
17	25	2
131	131	1
25	26	2
116	116	2
28	28	6
90	91	3
65	70	2
37	38	1
10	10	1
125	126	2
107	108	3
33	33	1
95	95	1
92	96	2
41	43	2
135	136	1
109	113	2
120	137	2
45	45	1
93	94	2
84	85	1
110	110	1
84	84	1
18	125	1
65	65	1
19	20	1
77	77	1
5	7	1
5	5	1
70	71	1
15	37	1
25	25	1
106	110	1
145	145	1
149	150	1
124	125	1
96	96	1
147	149	1
122	122	1
40	41	1
46	61	1
