97	97	4
0	0	3
65	65	9
24	24	5
43	44	3
36	36	2
116	116	5
22	25	3
93	93	7
13	14	6
33	33	2
86	112	2
84	84	2
71	72	2
23	24	1
71	71	8
118	118	3
105	114	4
83	83	9
115	115	2
68	68	8
125	134	2
92	92	4
105	105	7
17	17	3
61	61	6
96	99	5
130	130	7
38	38	9
59	59	3
90	90	5
79	80	1
2	2	4
92	93	5
116	117	1
36	58	5
15	15	4
86	87	1
132	132	4
124	125	4
113	113	10
68	74	2
63	63	13
99	113	3
97	98	1
107	107	10
96	113	1
16	16	5
50	50	3
5	5	9
115	120	2
19	19	8
99	99	6
27	28	4
123	123	5
114	114	5
128	128	11
96	96	6
79	79	7
111	111	9
117	117	9
129	129	10
125	125	6
31	31	8
10	10	6
121	121	9
117	120	3
94	94	8
74	74	12
115	117	1
22	28	2
127	127	4
124	124	9
45	45	8
104	124	2
12	12	3
134	134	2
72	73	3
69	71	2
62	62	3
8	17	1
37	37	4
39	39	4
20	22	5
133	133	3
64	64	5
29	37	3
49	49	1
30	30	4
105	132	1
55	55	3
48	48	5
1	1	5
109	109	9
86	86	7
78	85	2
91	92	4
55	56	5
58	58	10
112	112	13
34	38	3
106	106	8
78	78	3
110	110	3
25	25	8
76	76	8
6	6	8
9	9	2
82	82	6
45	46	4
122	122	2
100	100	4
34	34	3
126	129	3
31	32	3
101	101	5
39	40	2
46	46	9
102	102	1
58	90	3
66	66	6
26	26	4
100	102	3
69	69	5
47	47	6
8	18	1
14	18	3
56	100	1
61	62	2
109	111	1
75	75	8
4	4	4
6	7	2
43	43	2
35	35	5
42	42	3
77	78	2
37	38	3
129	133	1
11	11	7
20	20	3
56	56	1
103	107	3
80	84	1
40	48	3
7	7	5
96	130	1
120	121	4
66	68	4
75	76	3
57	102	2
10	11	3
118	119	4
28	28	3
113	114	2
26	28	2
34	36	1
44	46	3
60	60	8
74	75	1
4	5	1
126	126	3
119	119	7
119	121	2
87	87	3
30	31	2
3	4	2
72	72	5
46	47	2
94	95	1
131	131	2
107	108	2
84	110	1
32	33	2
44	44	4
99	100	2
114	122	2
108	108	3
66	67	1
21	21	1
95	96	1
120	120	4
14	14	3
77	77	7
85	86	1
91	91	7
67	70	1
84	85	2
23	23	2
89	90	1
78	80	2
15	36	1
81	81	2
119	120	3
114	115	1
100	129	1
123	124	1
3	3	3
67	67	3
19	20	5
90	92	1
30	33	2
86	111	1
70	70	3
115	134	1
12	13	1
57	58	2
24	28	1
121	122	1
51	51	1
59	60	1
13	24	2
28	29	2
18	18	2
110	111	1
40	40	1
102	124	1
8	8	1
112	113	1
11	12	1
80	80	1
23	27	1
57	57	3
87	88	1
27	27	1
8	9	3
13	13	3
29	31	1
104	106	1
9	10	3
91	114	2
105	107	1
96	97	1
33	34	1
20	26	2
101	102	2
25	26	1
95	95	1
103	104	1
130	133	1
125	126	1
41	42	2
4	6	2
93	103	1
7	10	1
43	57	1
71	118	1
62	63	1
93	94	1
5	6	1
32	32	1
