76	76	27
77	77	22
63	81	2
102	102	6
43	43	12
87	87	12
32	44	1
80	102	3
86	88	5
89	89	8
33	33	12
56	63	2
51	51	12
28	28	6
36	36	3
93	96	4
49	50	5
26	26	6
38	39	4
68	68	30
25	25	12
44	44	5
80	92	5
72	73	4
61	61	15
41	41	13
94	98	1
67	67	22
60	71	1
44	93	4
87	89	1
81	81	20
20	20	3
87	88	14
73	73	25
94	94	4
72	72	15
58	68	4
65	65	23
20	21	2
42	42	11
75	75	13
80	80	9
48	50	3
99	100	8
22	22	8
64	64	17
63	64	5
62	62	22
45	45	9
73	74	8
58	58	16
79	79	22
42	43	3
53	53	6
100	101	3
39	39	15
78	84	4
74	74	18
71	71	17
99	99	8
35	35	6
76	77	8
66	66	8
83	84	5
54	54	13
80	81	6
82	82	10
54	55	5
32	32	2
78	78	16
88	88	16
64	66	3
86	87	4
31	31	6
48	101	4
48	48	12
68	69	8
67	68	12
74	76	3
61	89	4
86	86	15
24	24	8
85	85	8
22	24	2
33	34	4
38	38	10
29	29	6
66	67	3
70	70	10
63	70	2
72	77	2
40	40	13
63	63	11
49	49	6
60	61	5
45	46	1
25	26	2
62	63	7
95	96	4
50	50	13
81	84	2
47	50	1
42	91	1
64	76	3
71	72	6
46	46	12
77	90	1
65	66	3
56	56	3
34	34	4
83	83	20
92	92	10
51	70	1
101	101	7
95	95	11
39	40	4
81	82	3
60	60	7
59	59	5
77	78	2
93	93	6
52	54	2
52	52	8
32	68	1
46	47	1
95	97	6
84	87	1
100	100	3
96	96	5
50	51	4
35	37	2
79	81	1
69	69	10
66	89	2
37	37	8
76	78	2
84	88	5
61	71	1
98	98	2
85	86	2
90	90	3
56	64	2
69	76	6
84	84	6
61	62	4
51	53	5
66	78	2
44	53	2
77	96	1
56	58	2
36	38	2
47	101	2
55	55	6
88	98	1
23	24	1
36	37	3
62	72	3
55	58	1
35	38	2
91	91	2
71	73	3
51	52	2
69	70	2
56	57	1
68	75	1
84	86	3
98	100	3
101	102	1
48	49	6
35	36	2
92	97	2
20	45	1
24	25	4
97	99	1
44	45	2
88	95	1
97	97	4
94	95	1
64	65	1
31	77	1
30	38	1
87	98	1
41	76	2
37	85	1
30	39	2
64	73	2
30	63	2
83	85	1
53	86	1
45	97	1
30	30	3
63	65	1
88	89	2
78	83	1
57	80	1
24	29	1
58	59	2
57	57	4
90	93	1
77	85	1
47	47	4
66	79	1
45	79	1
50	86	2
70	74	1
42	76	1
34	93	1
32	70	2
92	93	1
91	93	1
79	80	1
42	77	1
69	74	1
47	48	2
71	76	2
67	71	1
47	51	1
44	46	1
34	78	1
61	74	1
80	98	1
52	53	1
80	96	1
91	92	1
