15	23	3
49	52	5
141	141	5
140	140	6
106	107	4
139	139	3
140	141	4
82	83	2
16	16	10
59	59	10
8	9	2
98	98	8
2	19	2
66	66	7
79	104	2
37	59	1
92	92	8
142	142	4
106	106	4
59	60	4
100	106	5
38	73	2
81	81	6
109	140	3
17	17	1
29	29	7
95	95	1
48	48	6
0	43	3
135	136	2
70	70	6
96	97	7
128	128	10
116	119	5
86	86	4
24	34	4
119	119	6
47	90	3
40	40	8
137	137	4
18	35	3
123	123	11
15	15	7
87	87	2
12	12	6
68	93	5
136	136	5
68	68	3
27	27	7
30	30	21
38	95	6
34	35	2
109	138	6
55	55	9
57	59	2
69	69	10
108	141	2
54	99	2
115	115	4
28	28	5
50	106	3
124	124	9
130	130	7
26	26	6
49	49	8
122	138	3
5	15	4
102	102	3
135	135	5
62	62	2
79	134	1
31	32	3
18	18	5
96	106	3
96	98	1
83	84	3
103	103	9
52	52	16
134	136	1
74	75	6
62	63	4
18	19	3
72	102	4
132	132	12
24	24	5
113	113	6
79	142	3
10	41	2
138	141	1
32	32	15
28	40	3
76	77	7
54	106	3
99	99	5
10	10	5
108	142	2
41	41	3
55	78	4
63	65	2
120	120	3
83	83	6
42	42	8
43	47	1
11	25	1
34	46	2
15	17	1
13	13	2
131	131	7
53	53	8
74	74	1
130	132	5
126	126	5
60	60	13
110	110	6
101	101	5
102	104	6
39	39	8
127	127	4
107	107	5
138	138	1
3	14	4
37	74	3
14	14	4
31	38	8
38	38	4
93	93	1
144	144	6
52	106	1
133	133	3
94	94	7
36	98	3
26	34	2
3	3	4
31	31	2
104	105	2
69	86	1
88	88	5
108	108	6
134	134	7
90	90	1
2	20	2
135	137	1
20	23	1
64	64	7
71	104	2
112	112	4
80	80	1
71	103	1
66	68	3
82	104	1
84	85	5
125	126	1
59	75	3
90	93	2
9	10	9
81	118	1
51	52	3
55	101	2
1	1	1
84	86	4
49	95	5
32	39	1
37	38	1
65	66	1
125	125	2
145	145	7
20	20	3
4	18	3
2	24	2
63	74	1
122	122	2
11	41	7
33	33	4
2	25	3
136	142	1
72	72	4
2	40	6
22	23	1
52	100	3
2	21	3
11	28	4
28	41	9
91	91	3
118	119	2
68	72	1
53	105	2
56	78	3
39	42	2
5	5	1
121	122	6
82	109	2
13	14	4
100	100	1
73	102	2
97	99	1
6	6	2
63	63	2
116	117	2
114	117	1
131	132	2
55	99	3
139	143	2
113	114	1
3	25	2
121	121	2
11	40	1
96	99	2
72	104	2
92	95	4
19	23	1
77	77	4
54	54	4
50	100	1
58	58	3
12	13	1
82	82	4
11	26	1
0	3	1
56	56	2
73	96	1
65	65	1
118	118	1
75	75	2
22	22	4
2	3	2
3	27	1
17	18	2
59	78	1
20	21	1
30	39	3
80	110	4
25	26	2
110	133	1
62	98	1
104	104	1
10	11	1
117	118	3
56	58	2
96	96	4
56	76	1
30	40	2
4	24	1
41	42	2
79	79	3
78	78	3
82	141	2
117	119	1
9	9	1
54	55	1
36	99	1
109	109	1
2	2	3
55	106	1
110	118	2
32	59	1
81	141	2
61	61	1
49	93	1
8	8	1
140	142	3
67	67	1
134	142	1
111	111	1
57	57	2
92	94	1
14	20	1
26	40	2
37	37	1
50	50	1
4	34	1
128	129	1
37	57	1
26	29	1
29	84	1
16	18	1
33	40	1
129	129	1
122	130	1
50	51	1
123	128	2
109	119	1
64	66	1
34	34	1
27	41	1
88	90	1
133	134	1
116	118	1
51	53	1
85	85	1
