112	113	5
56	56	7
72	72	6
203	203	11
84	85	1
5	5	10
33	33	14
20	20	11
208	234	1
54	54	9
225	225	8
114	114	17
18	18	15
9	10	5
176	176	10
168	168	5
235	235	5
2	2	4
65	249	2
216	216	14
186	225	3
229	230	10
70	70	9
242	242	13
24	24	6
64	64	7
161	161	10
15	15	22
42	42	6
224	224	11
221	221	14
145	145	6
192	192	11
208	208	16
152	152	15
151	151	4
158	158	14
186	187	1
102	103	2
60	61	1
241	241	13
41	43	1
81	81	7
218	218	5
157	157	9
89	93	2
82	82	14
38	39	8
187	187	6
211	211	10
21	22	3
196	196	1
36	36	9
97	97	12
99	99	11
197	197	10
187	188	5
116	116	9
167	168	3
21	21	13
35	35	19
27	27	4
89	90	2
204	204	22
219	219	12
104	107	12
154	154	18
233	233	6
30	31	2
116	117	3
198	198	6
54	65	2
145	222	1
94	94	13
236	241	3
232	232	3
205	205	6
109	109	4
167	167	17
105	105	9
106	121	1
10	11	3
200	200	7
100	100	9
227	227	15
58	58	9
52	53	6
93	94	2
245	246	2
67	242	1
90	90	6
58	106	1
41	41	17
46	46	11
35	36	5
49	49	19
12	12	11
238	238	5
95	96	9
89	89	7
14	15	7
224	225	6
38	38	4
103	103	4
157	158	3
201	202	2
53	53	10
32	32	11
106	107	4
44	44	11
189	212	2
95	95	7
181	181	8
172	172	6
199	199	11
11	11	12
244	244	8
150	150	16
188	189	4
209	209	20
159	159	9
25	25	12
41	42	2
90	206	3
108	108	9
163	163	4
110	110	4
217	217	7
28	31	5
202	202	7
54	88	3
17	18	5
3	3	7
199	212	3
210	210	11
34	34	8
173	173	3
170	179	3
55	55	9
118	118	7
46	55	2
167	180	1
111	111	8
6	6	8
57	57	3
218	220	2
175	176	6
56	76	2
186	186	7
19	20	2
67	67	14
17	17	9
59	59	17
179	179	16
246	249	1
222	222	4
62	72	4
220	220	8
28	28	7
26	26	9
86	89	2
155	155	8
115	116	1
172	174	3
177	177	15
64	66	1
52	52	12
61	68	3
229	234	4
207	207	8
213	213	6
222	223	2
229	244	3
232	233	2
214	215	3
189	189	6
19	29	2
239	239	3
168	181	2
201	204	2
234	234	16
68	68	7
153	153	11
99	100	3
48	208	1
182	183	6
215	215	10
234	235	9
87	87	1
231	233	4
97	98	4
191	191	4
56	81	1
93	93	6
103	104	7
111	112	2
247	248	3
3	48	2
248	248	6
112	112	13
38	45	3
201	201	10
193	193	5
50	50	1
92	96	3
156	156	7
185	186	3
171	171	13
16	16	17
209	226	3
160	160	14
21	212	2
246	246	8
48	48	9
91	91	5
226	226	7
8	8	7
205	229	1
48	58	1
69	69	7
88	89	7
60	66	1
62	62	7
37	37	7
241	246	1
74	75	1
47	47	5
96	96	10
45	46	3
172	173	3
17	245	2
29	29	17
209	210	2
85	85	9
55	56	1
19	19	12
72	103	1
144	144	7
162	172	1
185	185	6
18	21	1
62	63	3
204	205	3
55	109	1
238	239	2
83	83	5
88	88	8
170	170	8
91	224	1
180	180	7
228	228	8
237	240	4
229	229	10
2	154	1
166	166	10
80	80	8
188	188	7
231	247	2
115	115	10
30	30	5
47	92	3
56	57	3
3	11	2
63	63	7
7	7	8
26	27	5
163	164	3
51	52	3
101	101	10
119	119	4
70	89	1
217	218	6
180	183	2
31	31	5
89	96	1
92	116	3
206	212	2
174	174	8
98	98	5
191	242	2
63	64	3
212	212	8
214	214	12
34	36	3
237	237	4
247	247	11
164	164	4
194	196	1
79	80	4
227	228	1
236	244	1
15	16	2
57	76	1
151	242	1
236	236	3
16	52	2
49	59	2
32	71	2
33	35	1
75	239	1
162	162	11
75	75	11
6	47	2
147	147	6
61	61	10
70	90	2
74	74	9
81	91	1
75	76	3
146	146	3
43	44	4
231	231	2
161	162	2
23	151	1
86	86	9
22	22	10
170	194	1
159	226	3
211	212	8
16	18	3
96	97	5
243	243	5
23	23	12
183	183	7
35	39	2
51	51	6
206	207	2
194	194	6
75	77	2
167	236	2
37	38	1
8	9	4
55	66	2
77	77	6
120	120	6
177	178	2
118	119	5
1	1	4
40	40	3
35	47	2
226	227	3
189	190	4
150	151	2
73	73	7
9	9	6
212	225	1
242	243	1
45	45	10
39	39	12
187	189	1
5	6	1
213	214	5
71	71	8
171	172	1
73	75	1
194	195	6
230	231	4
169	181	1
16	162	1
107	151	1
92	93	2
114	156	1
178	178	7
48	57	1
58	143	1
92	92	3
59	60	2
106	106	7
175	175	6
215	216	6
78	79	4
85	87	2
175	182	1
36	37	1
114	115	8
227	242	3
195	195	8
90	93	2
43	43	8
21	160	3
76	77	2
157	159	2
228	229	1
73	80	1
65	66	2
32	44	1
14	14	8
49	91	1
183	210	2
237	238	6
165	165	8
174	196	2
25	26	3
56	60	4
99	103	2
211	244	1
184	184	8
98	107	1
79	79	2
192	226	2
91	206	2
110	111	2
18	20	3
81	82	2
199	200	3
151	152	1
67	68	3
58	74	1
60	68	2
223	223	1
82	83	2
113	113	2
193	219	2
245	245	5
70	115	3
109	116	2
30	120	1
77	78	3
225	227	2
208	209	4
169	170	1
117	118	3
166	169	2
173	192	1
165	167	2
84	84	11
153	154	1
168	242	1
23	24	2
59	62	1
120	153	1
219	220	2
66	66	6
240	240	5
243	244	3
191	192	5
107	107	1
2	6	1
45	84	1
205	207	3
169	176	1
196	197	3
175	177	3
3	6	3
18	157	3
92	212	3
160	221	3
36	43	1
198	199	1
232	246	1
205	208	1
157	210	1
49	89	3
177	207	1
59	164	1
59	76	1
208	231	1
61	62	2
40	63	2
104	106	1
192	195	2
163	221	1
109	110	2
97	154	1
91	92	1
17	162	1
34	37	1
242	244	3
179	180	1
168	170	1
216	217	5
179	185	2
186	189	4
203	242	2
105	107	1
206	206	4
85	86	1
19	21	1
180	181	1
210	211	1
107	115	1
65	65	7
63	199	1
176	179	2
76	94	1
102	102	5
64	65	2
58	59	2
117	117	1
57	60	2
59	61	2
211	242	2
4	4	1
64	80	1
10	10	7
39	42	1
48	225	2
44	45	1
108	109	2
170	171	3
186	188	1
87	88	4
54	55	1
43	45	1
213	218	2
76	76	4
168	222	2
196	198	1
46	53	2
190	190	2
22	23	1
174	197	1
217	219	2
27	28	1
27	29	1
97	103	1
169	169	4
69	101	1
6	8	1
82	95	3
94	96	1
96	102	1
42	43	3
218	219	2
18	19	2
70	71	1
78	78	4
96	111	1
38	51	3
8	10	1
207	208	1
233	237	1
181	182	4
90	92	2
4	5	1
168	169	1
1	163	1
59	71	2
204	213	2
207	242	1
182	185	1
39	41	1
64	81	2
168	180	1
57	96	1
89	94	2
160	161	2
60	60	1
165	166	1
80	83	2
157	227	2
27	45	3
28	109	2
22	28	2
198	216	2
242	245	2
204	206	1
209	224	1
244	245	1
106	108	1
189	247	1
33	38	5
152	160	2
29	30	1
57	59	1
221	222	2
192	193	2
180	188	2
4	14	1
109	155	1
71	72	1
237	245	1
99	104	1
171	177	1
158	195	2
76	93	2
169	172	1
214	228	1
38	42	2
195	196	1
166	168	2
210	219	2
237	239	1
159	233	1
6	76	1
152	161	1
215	218	1
10	12	1
235	247	1
168	224	2
107	108	2
157	162	1
189	191	1
99	154	1
233	234	1
185	187	1
60	71	1
183	184	1
60	62	1
202	207	1
55	67	1
239	240	1
67	71	1
75	78	1
166	167	1
160	220	1
174	198	1
150	155	1
46	47	1
185	222	1
48	49	1
13	13	1
172	208	1
36	38	1
205	234	1
152	153	1
158	220	1
97	99	1
54	89	1
26	45	1
