94	107	2
53	53	2
77	79	13
91	91	16
66	66	9
94	94	18
62	62	13
18	18	18
71	74	4
79	79	2
140	140	18
116	116	2
59	59	8
27	27	6
68	68	15
97	98	2
35	57	5
4	11	5
59	75	1
76	83	4
5	6	4
115	115	11
137	137	7
103	103	13
135	136	4
2	8	4
41	41	10
87	88	8
104	104	4
25	26	9
80	82	2
0	0	6
74	75	5
15	18	2
37	37	9
120	121	5
42	131	3
18	110	3
28	28	16
114	114	7
108	109	9
53	56	4
10	10	14
12	12	4
55	56	8
41	57	3
28	112	2
30	31	4
9	9	8
78	78	5
138	139	7
133	133	7
82	100	5
125	125	4
4	4	7
64	64	12
20	21	5
39	41	3
70	70	15
114	118	6
103	117	2
58	58	9
135	137	1
107	107	10
55	107	1
106	107	2
20	20	6
84	84	5
112	112	4
128	128	9
29	29	4
98	98	14
33	56	2
26	41	3
9	10	6
38	38	15
30	30	5
2	13	3
33	33	9
127	140	4
13	16	6
124	124	14
95	95	6
42	42	10
107	108	4
34	34	12
66	67	7
79	101	5
69	69	5
15	17	1
74	74	15
92	132	1
146	146	2
69	70	2
76	78	12
90	90	5
62	63	6
50	89	4
122	122	8
32	35	2
48	48	11
23	23	6
2	2	8
106	106	8
130	130	5
27	29	1
35	35	9
101	101	11
134	135	2
105	118	3
127	127	5
132	132	7
130	132	1
134	134	9
35	36	5
40	40	10
42	43	5
127	139	2
65	66	4
105	105	10
50	55	2
73	73	11
41	42	2
52	88	1
56	116	4
21	21	7
126	132	4
85	87	1
112	115	7
144	144	4
111	114	4
2	3	6
119	119	5
87	134	4
80	111	4
49	49	7
50	51	2
14	15	2
8	8	6
65	111	2
20	32	5
71	72	4
99	101	2
126	126	11
61	146	2
59	60	4
76	76	6
108	108	11
23	24	4
121	122	2
131	131	16
25	25	11
100	100	3
60	61	3
48	49	3
108	114	2
104	115	1
14	14	22
92	94	2
34	57	2
72	111	2
50	52	4
120	123	1
141	142	2
57	57	6
126	127	4
128	130	5
11	22	2
128	136	2
97	97	8
71	71	9
73	74	8
88	89	6
26	27	6
81	81	6
27	28	6
75	75	8
52	52	2
61	61	5
32	32	1
98	99	5
28	29	4
18	19	2
96	97	2
54	54	9
95	96	3
40	41	3
3	4	3
31	31	4
36	36	4
10	29	1
67	132	2
35	47	2
126	141	1
24	24	2
93	93	15
127	130	4
56	63	1
55	65	2
17	17	7
82	103	1
52	53	2
83	83	13
51	51	8
68	94	7
35	58	2
120	120	6
135	135	5
141	141	4
107	109	2
72	72	6
27	144	2
75	78	3
28	75	2
86	87	2
82	83	1
122	123	5
108	110	1
80	80	4
92	92	6
54	109	5
136	136	1
22	22	8
114	121	3
43	43	6
120	138	1
40	63	2
31	33	3
13	55	3
144	145	4
129	129	6
61	62	4
91	94	2
8	9	2
92	128	2
112	113	5
4	6	2
79	82	2
106	109	5
52	57	1
26	26	5
109	109	7
68	124	2
86	86	1
55	115	1
67	67	2
39	40	6
110	110	2
72	81	1
13	13	7
119	138	2
49	50	2
3	3	3
12	55	1
63	63	4
104	105	2
115	117	7
68	69	2
29	30	1
142	142	8
74	98	3
17	18	4
102	104	2
26	28	1
0	20	2
85	88	1
84	85	4
0	1	1
28	59	2
34	35	2
1	21	2
129	141	2
75	76	5
6	6	2
134	141	1
93	108	2
67	113	1
8	97	1
102	102	7
85	86	2
118	118	1
104	107	2
103	119	2
88	88	2
100	101	3
40	42	1
123	124	1
42	67	1
98	101	4
21	113	1
51	52	2
128	134	1
47	47	1
15	15	1
1	1	3
55	55	1
139	139	2
120	133	5
137	139	3
4	8	1
16	16	3
5	5	2
90	129	1
21	31	1
47	49	4
73	111	1
78	79	2
145	145	1
58	59	1
113	113	1
54	111	1
71	111	5
82	85	1
21	97	1
65	106	1
32	33	1
55	64	2
54	55	1
115	116	1
109	110	1
59	61	1
37	38	4
131	132	1
97	99	1
19	19	2
138	138	1
67	123	1
36	60	2
94	108	2
13	14	1
119	134	3
51	54	2
3	9	2
85	91	1
61	63	3
68	121	1
102	103	2
37	71	2
103	131	1
83	84	3
117	117	1
106	110	2
121	121	1
37	49	1
63	73	1
32	132	1
53	54	1
103	118	1
119	135	2
19	20	1
80	81	1
110	119	1
76	92	3
77	77	5
83	111	1
37	41	5
134	136	1
89	89	2
111	112	1
47	48	1
52	56	3
126	131	1
6	19	1
11	11	1
70	92	1
36	58	1
99	99	2
42	112	2
5	14	1
10	22	1
86	94	1
128	133	4
73	88	1
39	39	1
85	85	1
3	5	1
140	141	1
62	64	1
87	87	1
72	91	1
4	5	2
137	140	2
136	137	2
64	65	1
60	60	1
58	76	1
15	16	1
4	13	1
94	106	1
88	106	1
110	111	1
73	87	1
25	41	1
129	130	1
