71	72	1
6	6	9
103	106	4
118	119	1
104	106	2
38	42	3
7	7	8
0	0	6
99	99	7
5	15	5
43	43	5
46	47	1
103	108	2
91	91	2
133	133	10
57	76	2
36	60	3
42	42	8
59	59	3
18	35	1
8	8	8
91	94	3
73	73	7
13	13	11
132	133	1
110	130	2
34	34	5
30	42	6
91	92	2
110	110	11
44	58	1
36	36	9
110	133	6
97	99	3
9	9	5
59	101	4
120	122	1
119	119	10
122	122	7
24	24	6
90	90	7
74	74	10
93	105	5
72	72	2
22	25	5
44	68	3
42	49	2
58	60	7
63	82	1
47	48	5
98	98	3
69	69	10
109	131	3
108	109	2
31	31	1
1	45	4
21	21	9
85	121	1
36	39	3
104	104	7
132	132	10
5	5	7
12	12	13
92	92	8
66	66	8
75	75	3
75	82	6
23	24	8
83	110	2
87	87	3
45	45	7
100	103	2
29	30	8
134	134	5
93	93	3
70	70	9
85	85	7
99	113	3
57	58	2
72	73	1
44	44	19
18	18	5
59	76	4
85	87	9
1	1	3
131	131	6
26	26	1
105	105	8
72	90	1
63	63	3
46	46	4
76	76	8
79	79	7
31	43	2
114	131	2
102	130	1
32	32	3
27	27	8
107	107	4
0	3	3
79	91	6
40	41	5
63	100	3
111	125	2
101	102	6
71	71	7
55	56	2
84	84	8
119	131	2
95	95	4
67	67	2
74	102	1
90	91	2
125	125	7
43	77	2
10	10	11
82	82	3
112	124	2
58	58	8
12	35	1
29	31	1
110	111	1
109	110	4
83	120	3
35	37	4
14	21	1
61	61	7
93	107	1
57	57	3
81	122	4
86	86	7
99	130	1
76	89	3
27	29	2
108	118	3
76	80	2
111	111	4
59	61	2
94	99	1
114	133	3
5	26	5
60	60	4
48	48	8
83	105	2
126	126	3
90	99	2
13	31	4
28	28	4
2	32	2
42	46	1
20	34	3
83	109	1
129	129	4
38	41	3
55	55	7
115	115	7
96	123	4
112	133	6
115	126	1
49	49	4
6	30	1
116	130	1
124	127	2
120	120	3
81	109	1
127	127	2
33	33	6
8	46	2
0	9	1
1	19	2
118	118	5
120	125	3
36	37	2
34	38	4
38	38	2
15	16	1
117	117	7
113	134	1
99	120	1
29	29	4
107	119	6
123	123	2
47	60	2
128	128	6
98	101	3
117	118	1
101	103	3
80	107	4
59	85	3
2	45	1
109	132	3
79	94	4
130	130	5
94	94	1
61	77	2
11	12	4
100	104	2
10	108	2
108	108	2
2	2	7
10	36	1
102	102	6
62	62	6
121	121	4
6	16	1
65	93	1
103	103	1
15	20	1
97	98	1
7	26	2
106	107	3
123	128	3
57	60	6
81	81	5
115	130	2
57	78	2
30	30	5
113	113	3
17	17	7
12	16	1
84	85	3
110	114	1
18	37	4
6	10	2
22	27	2
96	111	1
67	119	1
71	74	2
87	121	1
19	22	1
101	101	3
22	22	4
83	83	4
90	96	2
68	72	2
74	77	5
65	90	3
57	61	2
25	25	3
82	121	4
9	124	1
23	23	3
31	32	3
111	112	4
65	65	3
96	98	2
97	97	1
71	83	1
0	16	2
77	104	1
25	28	1
47	59	1
35	59	1
112	112	7
97	123	2
99	129	2
47	47	8
34	37	1
78	78	1
77	78	2
78	86	3
64	64	4
34	35	2
114	115	1
8	17	1
82	95	1
62	86	2
14	15	2
25	29	2
41	41	1
105	122	1
62	69	3
23	25	3
78	100	2
43	71	1
105	132	1
56	56	2
3	10	1
4	26	1
28	29	1
105	106	4
19	19	4
85	86	1
97	130	2
63	64	1
89	105	3
13	14	1
6	14	1
109	124	1
88	88	1
68	68	4
21	22	3
83	93	1
15	15	1
124	133	2
114	114	3
11	35	3
117	130	1
51	56	2
119	121	2
16	16	1
112	113	1
21	23	1
98	111	1
110	122	2
97	133	1
81	87	1
79	111	2
80	100	2
115	134	2
4	5	1
76	90	2
80	80	5
73	74	2
108	114	1
115	123	1
5	27	3
10	112	1
6	28	1
28	47	1
45	46	2
133	134	1
20	21	1
131	133	2
124	126	1
9	10	3
14	14	1
49	50	2
87	109	1
36	63	2
74	105	1
7	13	1
126	127	3
9	80	1
100	100	1
112	131	2
82	102	1
37	134	2
123	131	1
60	86	1
88	107	1
102	113	1
84	87	2
27	28	1
114	132	1
103	104	1
22	26	1
85	105	1
81	105	1
43	70	1
40	57	1
34	36	1
77	77	1
112	134	2
40	42	1
106	123	1
111	119	1
12	14	1
94	103	1
89	89	2
84	86	1
124	124	1
88	99	1
38	39	1
83	126	1
120	127	1
128	130	1
11	17	1
13	33	1
32	73	1
20	33	1
21	35	1
33	34	1
43	44	1
85	108	1
11	11	1
