55	56	2
4	49	5
38	39	6
50	137	3
90	90	5
55	55	4
4	5	2
108	125	2
71	153	3
42	43	1
67	67	5
8	8	7
83	84	2
33	33	2
69	69	5
79	79	17
107	108	2
47	48	4
91	91	7
20	20	7
4	7	1
25	25	4
68	70	5
137	137	1
7	8	2
92	92	5
98	98	1
79	117	3
158	158	2
109	110	3
5	5	6
7	7	12
38	41	5
87	87	3
41	41	6
128	129	2
118	118	2
31	31	7
77	77	10
27	27	1
135	135	1
148	148	1
74	74	2
149	150	3
45	45	1
88	89	1
108	116	2
131	133	2
41	46	2
50	136	6
89	91	1
12	12	4
101	101	6
131	131	1
36	36	4
132	132	3
50	50	3
51	51	3
117	118	2
99	99	3
9	9	4
127	127	3
22	22	2
29	29	6
31	32	3
7	11	3
71	71	9
20	32	1
109	109	3
47	47	3
16	20	1
35	35	4
126	126	4
117	117	5
94	107	2
51	52	3
50	134	5
140	148	2
118	121	1
70	71	2
65	65	5
18	18	2
124	124	3
110	110	9
43	43	3
34	34	2
21	21	6
153	153	2
62	62	3
130	131	3
151	153	2
16	17	2
2	52	3
42	42	7
116	125	1
94	94	1
56	56	2
2	42	1
108	108	3
141	144	3
8	9	2
148	150	1
112	112	2
3	52	4
86	86	8
32	32	5
51	134	1
27	131	1
67	69	2
121	121	4
9	49	4
40	40	1
6	6	3
83	105	2
73	73	2
85	85	5
68	69	3
111	111	2
25	26	3
152	152	7
106	106	2
52	137	3
64	64	3
19	19	4
44	45	2
155	155	2
1	1	3
113	113	2
140	142	1
97	97	1
98	129	2
95	95	3
133	134	3
1	2	1
2	2	4
81	114	2
93	93	2
114	114	4
114	115	4
28	29	6
57	136	1
142	142	5
139	140	2
3	10	3
71	154	1
147	147	1
24	24	2
18	19	1
48	49	5
52	52	4
123	124	4
93	116	1
32	33	3
16	18	3
154	156	1
16	16	3
150	151	2
13	15	1
79	81	1
28	28	4
46	49	2
4	4	1
129	129	1
14	14	4
70	70	1
13	14	3
24	26	2
46	46	1
115	115	1
78	78	3
48	53	1
149	149	3
128	128	2
39	39	2
38	38	4
96	97	4
66	66	3
108	113	2
140	158	3
49	49	1
156	156	2
31	36	3
141	141	8
17	17	1
136	137	2
119	119	1
7	9	1
10	10	1
104	104	2
8	122	3
48	48	1
97	98	1
32	36	1
139	139	1
116	126	1
141	142	2
108	115	2
103	103	4
107	107	2
23	24	1
83	85	2
81	81	1
35	36	1
53	53	2
22	24	1
92	93	3
145	146	1
96	96	1
146	147	1
80	81	2
6	28	1
75	99	1
32	39	1
84	84	1
2	3	2
9	10	2
37	41	1
140	140	1
143	143	1
91	94	2
134	152	1
42	49	2
116	124	2
151	152	1
22	23	1
122	122	2
125	126	1
34	35	2
100	100	3
125	125	1
9	48	1
151	157	1
75	75	1
5	6	1
155	156	2
124	126	1
13	13	1
67	71	1
139	148	2
37	46	1
146	146	1
115	116	1
50	55	1
132	133	1
