142	142	6
117	117	6
103	103	2
36	37	1
66	69	2
22	22	8
111	111	7
34	34	8
26	39	5
126	126	6
63	63	9
112	113	3
131	131	4
50	50	7
132	133	3
99	99	9
92	92	5
118	119	1
9	10	5
77	78	7
145	148	3
121	121	4
79	81	1
116	116	2
140	141	1
27	27	2
17	18	3
87	87	1
21	22	5
31	155	1
110	112	5
42	42	3
113	113	12
8	9	5
110	110	3
120	120	2
14	15	3
141	141	4
155	156	1
101	101	5
124	124	4
82	82	5
22	23	5
68	69	2
125	126	5
45	45	4
56	69	1
1	1	1
144	144	7
44	44	2
51	55	3
119	120	2
20	20	4
11	12	6
87	92	1
51	53	4
92	93	1
41	41	6
38	38	1
85	85	4
118	118	10
32	45	3
157	158	5
81	81	5
36	43	1
104	104	9
123	123	2
135	154	3
12	12	4
75	75	8
76	76	2
73	93	1
153	153	3
117	118	2
143	144	7
152	154	5
33	33	1
151	151	7
81	82	3
148	148	10
24	25	1
113	114	1
149	149	5
11	11	6
65	65	3
120	137	2
12	18	1
135	135	2
104	105	1
46	46	4
136	136	3
31	31	3
91	91	5
144	146	5
17	17	5
10	10	6
54	54	1
53	53	2
17	47	2
80	80	6
155	155	12
44	45	1
0	5	3
67	68	4
157	157	6
23	23	7
110	121	2
55	55	4
150	154	1
80	81	2
5	26	3
13	14	1
76	77	3
150	150	2
52	52	6
26	158	3
19	20	5
119	119	1
87	90	2
25	25	4
36	36	2
135	141	2
116	158	2
68	68	4
88	90	3
87	88	1
49	49	3
28	28	3
3	3	2
112	112	6
122	122	6
48	48	1
105	106	3
141	142	3
137	141	1
134	134	3
32	33	6
50	120	1
29	29	3
77	77	6
153	154	1
79	79	1
26	27	2
11	18	1
154	155	1
64	64	6
140	143	3
43	52	1
39	148	2
4	157	2
117	144	2
139	139	3
99	100	2
15	15	6
118	141	3
47	48	1
56	67	2
114	114	5
0	156	1
34	75	2
48	49	1
124	125	1
16	16	7
85	86	2
51	51	3
127	127	5
30	30	2
111	112	4
128	128	3
5	20	2
105	105	3
45	47	1
24	24	1
78	79	1
90	91	2
83	83	2
114	115	2
98	98	2
139	140	1
45	46	3
23	24	3
145	146	1
117	152	3
2	2	5
132	132	3
97	97	6
14	14	2
73	73	2
26	26	1
116	145	2
18	18	2
135	150	1
30	87	1
33	34	1
0	0	5
32	156	2
86	86	9
69	69	1
105	116	1
109	122	2
115	116	3
36	46	2
145	147	2
13	19	2
45	48	2
106	108	1
5	5	2
93	93	7
126	127	1
131	133	2
129	129	1
88	88	5
5	29	1
137	137	2
78	78	2
116	147	1
52	53	2
37	37	3
100	100	3
14	112	1
47	47	5
110	113	1
23	34	1
108	109	1
110	134	1
66	66	3
12	13	2
8	8	3
29	30	1
95	95	2
156	156	2
6	6	1
66	68	1
55	71	1
19	19	4
39	39	3
13	13	4
13	15	2
21	21	1
73	74	1
107	107	4
43	56	2
46	47	2
66	67	1
96	96	3
75	76	2
50	51	2
45	50	1
20	22	1
43	43	1
94	97	1
56	56	1
145	145	4
147	148	3
120	121	1
9	9	5
133	133	1
109	143	1
109	109	2
116	152	1
89	91	1
67	67	1
68	70	1
104	141	1
69	70	1
94	94	1
140	140	2
108	108	1
47	49	1
71	71	5
3	26	1
28	29	1
110	111	1
154	154	2
107	108	3
87	96	1
9	11	1
77	110	1
44	52	1
13	20	1
156	157	1
35	35	1
30	33	1
80	88	1
18	19	1
121	140	1
138	139	1
79	80	1
152	152	1
95	97	1
20	21	1
88	89	2
3	5	1
108	125	1
72	158	2
68	71	1
34	35	1
111	135	1
119	136	1
97	98	1
70	70	1
125	127	1
70	71	1
30	40	1
124	126	1
94	96	1
