48	48	6
25	25	6
140	140	4
124	124	3
72	72	14
1	1	8
57	57	6
59	59	4
64	64	1
29	29	4
1	2	2
86	92	2
137	137	3
42	42	4
142	142	4
48	59	2
62	62	13
72	76	2
68	101	2
55	55	3
19	20	1
66	66	4
116	117	2
61	61	1
133	136	2
26	26	5
95	95	2
34	36	3
87	88	2
65	65	3
77	77	2
108	111	1
128	130	1
35	35	5
82	83	2
131	131	7
113	113	4
30	30	2
49	49	2
113	115	1
67	97	2
81	81	3
0	10	1
90	90	2
126	126	8
121	121	3
15	15	4
97	98	6
20	20	6
108	108	4
52	52	4
69	69	2
112	112	5
83	97	2
68	68	3
136	136	1
66	67	3
33	35	3
17	17	4
81	87	4
136	138	1
39	39	2
93	93	1
18	19	3
50	50	1
11	11	3
27	27	5
57	58	1
51	52	2
103	104	2
143	144	4
47	48	1
84	85	1
12	12	1
70	70	2
112	118	2
67	103	3
2	6	2
54	55	2
31	31	1
34	35	2
71	71	2
33	33	3
133	133	3
3	3	2
108	117	2
74	74	5
115	116	1
104	104	1
17	33	3
115	115	1
23	26	3
109	110	2
67	68	1
120	125	1
4	4	1
24	24	1
85	101	1
120	122	2
74	75	2
134	135	1
91	91	2
107	107	1
4	6	1
38	38	1
36	36	2
124	126	2
18	18	5
124	129	1
100	100	3
144	144	2
131	133	1
98	98	3
75	75	1
129	129	2
40	40	2
58	59	2
90	91	1
71	72	2
136	137	1
139	139	2
86	86	1
63	63	1
52	65	2
123	124	2
120	120	2
59	60	2
80	81	1
53	54	2
65	66	1
28	28	1
80	89	1
84	97	2
113	131	2
21	22	1
119	121	1
22	22	1
99	99	4
21	21	1
89	89	2
141	141	4
92	92	1
49	55	3
103	106	1
9	10	1
10	10	1
16	17	1
34	34	1
67	67	1
40	52	1
54	54	1
23	23	1
80	80	2
134	136	1
42	43	1
94	94	1
120	121	1
22	23	1
122	123	1
19	24	1
11	35	1
104	106	1
67	81	1
66	83	1
9	9	2
126	131	1
12	13	1
92	96	1
132	136	1
18	20	1
118	118	1
119	120	1
60	61	2
8	8	1
86	95	1
53	53	1
48	50	1
