1	1	8
10	45	2
25	25	9
83	83	12
114	116	2
87	87	6
161	161	11
136	139	1
17	44	4
101	102	8
10	10	1
136	136	6
168	168	2
53	84	3
119	119	2
155	156	8
152	152	11
23	23	6
96	97	1
15	41	2
107	108	8
76	76	5
151	151	11
48	48	2
137	138	9
6	6	2
65	65	6
140	140	12
44	44	20
7	7	15
85	85	6
84	101	4
75	144	3
35	35	9
17	18	7
11	13	3
5	7	8
138	138	12
83	84	4
3	90	2
33	33	9
170	170	4
151	152	2
9	9	2
144	152	2
101	101	5
35	42	3
76	77	4
24	24	8
46	46	5
21	22	3
86	86	8
137	137	5
154	154	5
64	64	7
15	15	7
19	19	6
42	42	6
157	157	12
107	107	12
88	96	5
73	73	7
53	54	3
167	167	11
141	142	3
130	166	4
66	66	10
146	146	5
3	5	2
56	57	4
11	12	2
135	135	11
24	80	3
45	45	11
71	100	2
97	97	2
6	27	4
165	165	7
146	147	2
28	28	2
102	107	3
12	39	2
154	156	3
165	166	1
75	75	3
152	162	4
90	90	8
128	130	3
14	14	2
169	169	3
108	108	12
130	130	4
52	106	1
150	150	16
36	36	9
142	142	8
33	34	1
19	63	4
123	124	5
55	69	2
158	158	12
77	77	3
38	38	9
89	89	6
79	80	1
88	89	6
19	58	2
40	41	3
129	129	5
11	11	8
112	116	3
125	129	1
124	125	3
1	2	5
163	163	11
162	162	3
91	91	2
153	153	3
147	147	11
141	141	3
56	70	1
67	68	5
39	39	7
18	23	1
74	74	6
23	78	2
26	26	5
100	100	4
145	145	5
121	122	1
12	12	4
72	72	6
133	133	3
95	95	1
63	115	3
20	21	1
134	135	6
36	166	8
5	5	9
79	157	4
67	67	4
109	111	2
26	28	2
125	125	4
132	133	2
22	41	4
120	120	3
156	157	1
47	47	4
26	27	3
74	75	1
98	145	2
52	70	3
56	56	5
37	37	6
99	99	4
111	111	11
54	54	4
164	164	2
80	80	4
112	112	7
116	129	1
140	142	4
109	109	2
120	122	1
167	168	2
139	139	10
34	34	2
118	118	3
50	72	4
94	120	4
110	110	1
130	165	1
114	114	4
41	66	1
38	41	2
24	78	3
55	55	4
46	47	2
57	62	1
19	20	5
154	155	4
90	158	2
21	41	2
79	152	2
16	16	7
40	42	3
143	143	7
55	57	1
109	167	1
20	20	1
2	2	3
40	40	8
132	132	3
82	82	3
4	4	13
39	40	1
70	70	10
22	22	4
51	51	8
102	103	1
43	43	8
92	93	3
77	147	1
84	84	5
8	8	1
69	69	2
113	114	3
16	56	1
117	123	4
101	112	3
134	134	3
159	159	2
114	127	1
123	123	5
105	106	1
62	67	2
3	3	4
44	45	1
160	160	3
156	156	2
137	139	6
91	92	3
5	149	2
72	104	1
6	9	1
18	19	2
41	41	3
12	13	1
104	105	2
81	156	2
127	129	1
71	71	1
168	170	2
98	98	3
149	149	1
62	128	2
4	118	1
52	52	3
20	45	2
21	21	6
54	55	2
53	55	2
75	76	3
128	129	1
74	112	4
103	103	2
88	88	3
92	92	2
37	38	1
80	159	3
53	53	4
62	62	1
107	111	1
96	96	3
95	155	1
105	105	5
67	102	2
68	68	4
19	46	1
18	18	3
71	106	2
15	107	3
130	168	3
94	122	3
35	36	1
155	155	5
13	13	2
73	75	1
93	93	1
112	115	2
117	169	1
131	132	1
102	164	1
94	94	1
116	123	2
75	86	3
42	43	1
130	131	3
79	79	2
106	107	1
0	73	1
124	124	1
106	106	2
9	45	1
1	46	1
0	1	1
126	126	2
144	144	1
103	104	1
27	27	2
125	127	2
73	74	4
76	78	1
79	83	1
104	166	1
4	5	1
52	56	1
0	0	3
17	17	1
53	70	1
113	113	1
14	15	1
36	151	1
127	160	1
2	3	1
164	165	1
161	162	1
62	63	1
36	167	1
153	156	1
13	39	1
51	106	1
24	75	2
166	166	1
8	10	1
144	145	1
45	65	1
153	160	1
138	139	1
169	170	1
117	117	1
15	27	1
131	131	1
139	140	1
89	158	2
56	74	1
143	146	1
