99	99	3
147	154	3
24	25	1
36	37	2
33	33	5
163	163	4
136	174	5
57	58	4
20	20	4
168	169	4
5	7	5
2	35	1
119	159	1
61	100	2
153	153	6
23	23	4
45	47	2
32	32	1
123	123	11
8	9	1
45	45	4
29	29	3
66	72	1
61	62	5
14	14	4
95	95	2
134	135	2
112	112	3
80	80	4
43	44	1
35	36	5
158	158	1
71	71	1
94	94	7
23	74	1
152	152	4
129	129	3
141	183	1
3	3	5
124	124	3
22	22	8
189	189	9
37	37	8
16	16	1
146	146	7
12	12	3
78	78	4
143	191	4
70	70	8
47	58	1
193	193	3
174	174	2
0	46	3
109	111	2
72	72	5
72	73	1
86	87	5
47	52	1
165	166	2
168	168	2
117	118	1
84	84	1
119	168	4
83	86	1
137	137	6
41	41	2
161	161	4
176	176	8
19	19	4
50	50	3
188	188	3
56	56	3
42	48	5
182	182	4
104	105	2
86	86	3
142	157	3
2	38	2
181	182	2
81	84	2
26	26	4
85	85	9
190	190	3
57	57	3
41	89	1
132	132	4
113	117	4
138	190	1
122	123	1
143	144	7
66	68	1
42	139	4
29	32	3
136	136	5
58	58	4
180	180	5
39	44	1
30	30	1
17	18	1
71	116	3
59	61	3
195	195	5
165	167	1
182	183	3
187	187	2
126	126	1
160	160	2
168	172	3
119	119	5
183	184	2
162	172	2
39	40	5
64	64	1
148	179	4
68	68	10
151	151	4
61	89	1
130	130	5
196	196	3
20	21	2
108	197	1
142	181	3
145	179	3
171	171	1
44	48	2
77	197	2
88	88	6
167	167	7
67	67	4
109	177	1
164	164	3
95	112	5
152	153	1
33	37	1
124	189	2
189	190	2
59	130	2
6	9	3
114	114	5
59	59	2
101	101	2
178	178	8
71	72	4
124	188	2
20	22	1
65	65	3
70	71	2
76	76	8
101	103	2
179	180	2
53	53	3
8	8	3
121	121	2
105	105	1
137	161	3
38	38	1
13	13	2
142	142	9
28	74	1
131	131	2
162	163	1
194	194	3
32	33	2
1	1	3
60	62	2
97	97	3
16	57	2
116	118	4
112	113	8
48	48	2
173	173	2
122	134	2
127	127	6
63	63	2
5	76	3
59	103	2
34	68	1
113	113	3
73	83	1
178	179	1
118	119	1
49	49	10
61	61	3
20	25	1
87	87	2
156	156	6
111	111	5
5	5	2
183	183	2
12	48	1
161	183	1
185	185	1
54	54	2
146	157	1
133	139	3
11	51	2
74	78	2
53	183	5
0	4	1
186	190	1
115	132	1
125	126	2
45	49	4
18	18	3
60	60	2
184	185	3
115	115	5
81	117	1
71	73	2
39	39	4
52	52	4
27	27	6
73	74	4
0	0	1
105	121	2
42	42	3
22	25	3
141	141	3
128	129	1
94	117	2
110	110	2
94	95	1
36	36	5
69	69	2
6	7	1
144	156	1
125	185	1
21	22	1
150	150	4
94	96	1
99	100	1
38	60	1
43	189	2
108	108	1
82	83	7
125	125	5
175	175	3
43	68	2
51	51	5
79	80	2
133	134	1
162	166	2
109	109	3
98	98	1
157	157	1
54	56	2
192	194	2
44	116	1
103	103	1
139	139	3
187	188	3
8	71	1
3	25	1
9	83	1
25	25	1
20	40	1
9	9	1
100	113	1
113	114	2
128	128	1
83	83	1
197	197	1
170	182	2
54	57	3
155	155	1
48	49	1
27	67	1
17	57	2
79	79	3
120	120	1
18	73	2
24	75	1
107	107	1
95	121	1
19	23	1
76	84	2
140	140	1
179	181	2
77	170	1
27	76	2
71	93	1
186	186	1
3	5	1
160	179	1
57	130	1
79	83	1
113	189	2
20	43	1
14	15	1
120	139	1
20	66	1
133	133	1
163	164	1
0	34	1
191	191	2
196	197	1
145	145	1
19	20	1
28	28	2
66	69	1
32	125	1
134	134	1
160	191	1
192	193	1
77	77	1
35	35	1
193	195	1
39	63	2
155	193	1
67	68	1
139	186	1
169	169	1
10	50	1
96	103	1
62	63	2
