142	189	3
133	148	2
47	71	4
6	7	2
10	10	9
187	187	2
101	101	2
60	60	3
149	149	8
79	79	4
174	175	2
68	71	1
99	99	9
112	112	2
153	153	10
141	141	7
117	177	4
63	64	4
95	100	1
35	35	10
4	5	4
53	53	8
87	87	5
99	115	1
114	114	7
169	169	1
108	168	2
27	27	5
117	150	2
27	31	1
182	183	1
76	85	1
82	82	4
37	37	6
120	129	3
77	84	2
31	31	2
179	179	2
175	175	2
82	87	1
23	23	5
94	94	4
77	77	2
34	34	5
29	89	3
134	135	5
33	35	2
12	13	1
143	162	2
18	18	3
156	158	2
32	32	4
42	52	1
151	151	5
121	121	5
10	46	1
155	155	2
98	98	5
21	105	4
92	105	6
7	28	2
155	165	1
186	186	1
89	89	5
164	188	2
71	71	1
41	89	1
173	173	10
132	133	1
73	92	5
44	46	3
64	64	5
176	177	2
58	58	7
0	30	3
68	68	1
95	96	4
133	135	3
93	93	7
26	29	1
91	91	2
89	189	1
94	100	1
106	109	1
27	30	2
13	13	4
52	53	2
151	174	2
80	80	1
154	154	2
40	48	1
164	164	1
151	176	2
55	87	2
177	179	1
66	68	1
37	138	1
17	21	1
173	174	4
20	21	1
107	152	1
184	184	1
150	150	2
14	14	1
182	182	2
136	136	1
119	119	2
22	24	1
44	44	2
12	12	6
117	121	1
83	84	3
149	150	3
3	3	1
106	107	1
40	40	6
85	85	1
130	133	2
15	36	4
22	105	1
5	7	2
70	70	1
33	36	2
88	89	3
125	126	2
39	39	2
130	137	2
112	136	2
105	105	1
115	115	3
61	62	4
158	159	1
109	115	1
167	170	1
28	28	2
58	70	1
180	181	1
178	178	5
72	72	2
4	39	1
180	180	2
4	33	1
30	30	1
123	123	3
20	112	1
143	150	3
20	30	1
41	71	1
188	188	1
136	137	5
95	101	1
67	67	4
167	187	1
45	45	2
55	56	3
83	83	1
142	143	1
24	24	1
30	31	5
11	16	1
103	103	1
119	128	2
7	7	2
11	11	1
4	28	1
39	54	1
16	20	1
57	57	1
38	42	1
62	64	1
139	140	1
154	174	1
115	143	2
90	90	1
141	160	1
176	176	3
25	25	2
161	161	1
188	189	1
3	4	1
75	82	1
33	34	1
142	142	1
134	134	1
142	190	1
160	163	1
140	140	1
162	162	2
90	107	1
184	186	4
139	139	4
76	118	3
33	33	1
125	141	2
74	75	1
76	76	3
169	188	1
106	181	1
124	124	5
113	113	1
61	63	1
36	36	2
167	167	1
144	145	1
122	122	2
189	189	1
171	171	1
8	10	1
43	83	1
149	157	1
145	145	2
137	141	2
163	163	3
109	110	2
7	16	1
106	180	4
59	59	2
185	185	3
21	111	1
43	87	2
97	97	1
65	65	1
140	141	1
101	103	1
120	120	3
94	111	2
102	137	1
5	29	4
84	109	2
22	22	2
27	77	1
47	47	1
2	3	1
107	179	1
43	43	1
73	96	3
143	143	1
126	127	3
185	186	1
14	15	1
89	96	2
107	107	2
19	19	1
146	146	2
125	127	1
116	118	1
161	162	1
16	19	2
81	81	1
101	102	1
179	188	1
182	184	1
100	101	1
37	131	3
149	156	1
39	90	1
109	111	1
118	118	2
4	4	1
130	132	2
47	76	1
105	107	1
21	23	2
104	107	1
17	17	1
118	120	1
66	66	1
183	184	1
0	0	1
147	156	1
103	104	3
28	29	2
99	100	2
55	86	1
87	88	1
106	106	1
111	189	1
86	86	1
177	183	1
129	156	1
88	115	2
41	41	1
144	146	1
9	11	1
129	129	1
167	186	1
123	146	1
117	146	1
162	188	1
149	165	1
159	160	1
57	62	1
74	74	1
