70	76	3
7	7	10
4	4	14
59	77	3
18	19	2
60	60	14
11	11	7
38	38	11
35	59	7
24	24	9
54	55	3
38	39	4
3	4	4
13	13	17
28	28	9
49	50	4
60	61	1
34	34	3
47	47	9
36	36	8
68	76	4
45	45	4
29	29	10
56	56	12
6	6	4
20	20	8
39	44	3
41	65	5
19	19	18
61	61	6
35	35	7
39	39	4
68	68	9
50	71	3
30	30	5
43	43	12
31	33	3
69	70	2
72	72	5
25	28	3
26	26	24
12	13	3
41	41	13
30	31	8
5	13	2
3	3	11
74	74	7
2	2	14
50	51	3
5	5	6
5	33	3
62	62	10
77	77	4
14	14	5
10	10	7
65	65	2
39	67	3
53	58	1
50	63	2
53	69	2
35	36	8
70	70	5
8	28	1
43	47	1
66	66	10
9	9	7
51	53	4
55	55	7
43	44	4
19	62	1
21	33	3
54	54	13
7	11	1
12	12	14
8	8	7
58	58	9
5	15	2
69	69	8
40	61	1
60	66	1
73	74	1
40	40	8
37	39	1
24	29	1
22	22	9
53	76	3
74	76	5
52	64	2
52	69	2
71	73	3
29	31	3
75	75	8
9	10	3
46	46	5
6	70	1
3	30	2
0	0	1
50	50	8
47	59	4
45	46	1
49	53	2
21	21	12
1	1	4
36	37	6
74	77	1
1	53	2
22	23	4
49	49	5
57	57	8
64	64	3
10	11	1
51	58	2
36	39	3
7	50	1
63	63	7
32	32	5
67	68	3
6	7	2
41	60	2
23	23	5
55	56	4
53	77	2
44	44	3
65	66	1
42	42	5
53	53	1
21	45	4
59	60	4
20	21	1
44	46	3
1	36	1
64	66	1
52	76	3
70	71	3
21	55	1
26	55	2
25	26	1
42	57	4
28	35	2
68	70	2
37	38	3
25	25	2
67	67	3
70	72	1
41	59	2
5	7	3
72	73	4
18	18	5
36	38	1
29	32	1
59	61	3
48	65	1
52	54	3
73	73	1
57	75	3
51	72	1
52	52	4
24	30	2
37	59	3
5	11	1
8	11	2
9	48	1
60	65	1
27	27	5
4	6	1
39	40	2
4	12	1
52	67	1
32	33	5
40	41	1
26	48	1
61	62	2
31	50	1
8	48	1
53	68	1
36	41	1
20	25	1
33	33	2
36	56	1
37	48	2
9	69	3
38	53	1
71	71	1
1	10	1
9	24	1
25	27	1
3	39	1
56	70	1
51	52	2
37	37	2
19	21	1
39	41	1
2	3	2
65	67	2
31	48	1
36	40	1
31	42	1
51	51	1
44	45	1
56	67	1
66	67	2
59	59	2
52	63	1
57	61	1
33	34	1
21	63	1
9	18	1
32	45	1
74	75	1
42	73	1
