31	31	6
4	4	6
7	7	12
10	10	12
11	120	2
23	25	2
99	100	2
49	86	1
71	72	2
87	87	14
10	88	1
83	103	6
0	0	12
66	66	8
32	32	15
84	84	7
86	86	7
55	55	15
72	72	13
73	73	20
91	91	12
34	35	3
2	3	2
19	19	10
60	60	8
101	101	20
93	93	15
127	132	2
84	113	3
5	5	10
44	44	16
133	133	3
96	97	2
23	23	10
23	83	6
61	66	2
81	81	2
21	88	1
31	32	2
79	79	10
16	16	15
125	125	8
102	102	9
26	26	8
19	20	3
92	92	13
36	36	14
22	22	4
121	122	3
118	132	5
26	38	3
57	101	4
118	118	4
45	45	8
68	68	12
17	61	5
43	43	6
100	100	11
24	24	3
9	9	17
60	117	4
59	111	3
65	65	14
100	130	1
122	123	3
67	67	10
26	27	9
112	132	4
42	42	3
55	98	3
122	122	9
75	75	8
101	102	3
100	112	5
63	63	11
59	59	9
27	28	5
41	41	8
47	47	3
63	73	8
99	99	6
126	126	14
3	3	7
48	50	4
12	12	12
11	11	10
14	61	1
13	123	2
6	49	8
6	6	8
80	80	6
113	114	3
129	130	3
97	97	9
15	15	18
5	119	2
96	131	3
76	76	7
97	98	3
88	88	11
75	77	2
94	94	5
18	50	3
60	128	2
124	124	5
129	129	5
123	123	15
120	120	10
69	118	4
55	131	2
38	38	4
112	112	6
102	131	2
60	114	4
134	134	7
14	122	1
10	13	2
117	117	13
82	83	3
78	88	2
64	64	11
39	40	11
73	102	1
56	133	5
72	75	3
20	48	2
101	132	6
128	128	4
69	70	2
44	45	6
94	95	5
21	21	17
2	36	1
18	18	8
115	130	2
105	105	12
28	42	3
106	106	7
64	97	2
126	128	5
119	119	3
27	27	2
69	69	3
104	123	1
29	29	6
62	62	7
72	116	2
10	44	1
39	39	2
37	38	2
116	117	6
121	127	2
121	121	2
130	130	8
111	133	3
42	43	3
21	22	2
14	14	7
113	113	6
79	94	1
61	61	1
41	42	5
65	66	5
63	74	5
60	110	4
8	8	11
20	20	8
59	60	3
8	43	6
82	84	1
25	25	4
97	103	3
117	133	6
29	30	8
94	96	4
2	2	4
131	131	12
33	33	6
38	40	1
74	74	5
43	45	2
79	80	2
15	17	5
77	114	2
27	45	5
82	82	4
111	111	13
66	67	1
114	114	2
83	83	5
30	30	4
56	59	2
12	121	4
55	132	2
127	127	5
10	11	2
16	122	1
40	40	4
119	120	1
1	1	4
77	77	10
68	120	8
122	124	2
78	78	15
46	46	16
112	116	1
100	133	1
46	47	6
57	110	2
10	22	1
109	110	3
116	116	9
41	44	1
34	34	10
57	115	2
68	119	2
8	18	1
42	44	2
36	37	2
10	73	1
70	84	2
59	118	8
59	104	5
130	132	2
58	110	1
103	103	5
6	7	4
12	13	3
87	88	3
95	96	4
86	95	1
74	95	1
81	82	4
132	132	6
57	114	2
84	117	5
68	69	2
88	113	1
90	90	10
72	113	1
61	62	1
131	132	2
54	54	2
33	45	2
10	91	1
66	125	1
89	93	1
6	8	1
113	116	5
95	113	3
107	107	1
43	44	6
61	96	1
48	48	4
96	96	6
90	118	4
98	99	1
37	37	9
48	69	1
116	133	1
34	37	2
17	17	6
56	56	6
87	93	1
128	129	2
78	80	1
71	71	1
14	15	2
19	50	1
103	107	1
41	43	2
104	104	4
115	115	4
27	44	1
16	17	2
118	134	2
116	134	2
75	76	1
108	111	1
62	118	1
70	70	2
13	13	2
50	50	1
54	55	3
102	103	2
75	84	1
17	20	2
113	130	1
104	122	1
91	123	1
77	78	1
111	114	1
58	101	1
84	133	1
35	35	1
4	44	1
74	99	1
18	20	1
112	113	2
102	109	1
127	130	1
85	85	4
28	28	5
32	45	1
23	27	1
68	116	1
27	32	1
12	17	1
51	115	3
86	93	2
13	15	4
84	103	3
86	87	1
58	58	4
110	110	1
102	106	1
72	93	2
17	18	1
60	133	1
70	127	2
32	44	1
112	129	1
7	80	1
71	95	1
5	44	1
56	57	2
71	126	1
74	101	1
85	87	2
98	98	1
28	36	1
104	115	1
22	26	1
78	79	2
75	78	1
3	34	1
15	16	1
57	133	2
35	36	2
89	89	1
10	120	1
