51	60	2
179	181	2
86	86	11
111	112	6
62	68	8
38	38	11
97	97	8
91	92	6
28	29	4
158	159	7
215	215	8
220	220	9
165	165	4
218	218	9
208	208	7
104	104	5
9	9	5
218	219	4
111	111	6
12	12	5
221	221	7
23	23	3
92	92	2
233	233	9
19	19	9
228	228	3
187	188	8
192	192	4
177	177	4
236	237	3
231	231	4
229	230	4
65	66	3
54	54	5
181	181	11
15	17	1
79	98	2
7	203	1
157	157	11
206	206	7
116	116	4
78	79	11
8	92	2
36	36	2
26	26	3
101	102	5
52	52	12
38	39	3
9	15	3
95	96	1
54	212	2
64	65	1
190	191	3
154	154	5
54	55	1
213	236	3
32	32	5
241	241	8
234	234	10
176	176	8
238	238	8
240	240	4
188	189	1
202	202	5
98	99	7
230	230	4
30	30	7
203	209	2
62	62	5
115	115	6
10	10	3
68	69	3
118	118	2
191	197	7
244	246	4
247	247	4
180	183	2
5	5	7
43	43	8
114	114	10
165	166	9
27	28	2
66	66	5
173	175	2
23	30	3
226	226	8
106	106	5
13	14	3
7	93	6
94	94	7
227	227	9
163	163	8
232	234	1
219	219	4
15	18	1
80	81	4
80	80	8
93	183	9
10	19	11
152	152	2
71	76	2
120	120	2
9	205	1
239	242	3
86	94	2
160	160	3
59	59	2
109	153	2
33	34	1
220	232	3
102	102	6
22	30	4
212	212	6
68	68	9
44	45	3
96	96	4
65	95	1
239	239	5
41	42	1
60	60	3
36	37	8
66	67	5
95	95	5
171	176	2
235	236	2
4	4	1
93	93	16
213	214	7
77	77	10
97	98	4
27	29	2
178	179	3
71	71	10
214	214	8
152	153	3
15	15	7
8	208	2
224	225	5
30	31	7
152	174	3
248	248	9
200	201	3
62	63	6
7	7	9
40	40	7
214	218	2
109	109	8
71	75	1
116	117	5
31	31	12
31	44	2
230	234	5
42	42	6
76	76	2
58	58	2
116	118	8
171	171	7
144	144	1
224	224	7
55	55	5
69	94	1
84	84	7
14	15	8
75	76	1
189	189	5
84	85	2
184	185	2
34	210	2
165	182	3
52	53	9
169	191	3
79	81	4
71	72	3
150	151	2
174	174	3
230	248	2
73	73	8
153	153	7
214	237	1
247	248	8
74	74	3
199	200	1
118	119	2
85	85	3
33	211	3
46	46	2
34	34	2
60	61	4
101	101	8
215	217	4
37	38	9
229	229	3
17	18	3
77	78	2
179	179	5
16	16	4
150	150	12
98	98	1
224	232	6
23	24	8
22	22	4
224	226	2
30	207	4
145	145	2
7	8	1
225	230	1
88	88	4
167	176	2
104	115	5
62	70	1
159	159	2
183	183	7
75	75	11
232	236	1
46	48	5
170	170	1
109	117	5
3	5	3
63	70	2
70	70	9
92	93	2
49	49	1
210	210	6
68	76	2
81	81	3
237	237	6
18	18	13
246	246	10
65	185	4
155	155	8
237	238	2
233	237	2
185	185	7
179	180	3
65	65	2
158	163	1
219	237	1
78	78	13
191	191	3
38	243	2
26	27	2
175	175	9
209	209	1
180	180	8
168	168	2
93	235	1
48	49	1
166	190	2
151	151	2
223	223	1
37	210	2
42	43	3
144	145	1
106	107	1
33	33	3
192	193	3
63	63	4
162	175	3
99	99	3
53	54	6
41	41	5
37	37	13
76	90	2
186	188	1
57	57	11
193	196	4
199	199	4
214	235	3
83	89	1
103	103	4
22	23	2
59	91	4
234	235	4
169	199	2
91	91	10
61	61	6
217	217	5
169	170	3
221	222	2
235	235	2
216	216	5
74	193	1
196	196	1
38	210	2
201	202	5
47	48	4
3	3	6
166	167	1
9	18	4
82	82	9
90	90	7
178	190	1
168	169	1
47	47	2
230	231	2
26	43	3
67	67	2
210	212	2
66	78	2
4	7	4
50	51	3
57	59	2
60	90	4
105	105	4
201	201	4
195	195	7
164	164	2
64	64	2
61	76	2
187	187	4
232	233	2
234	237	4
50	50	1
110	117	1
58	90	2
74	215	1
156	156	3
56	57	3
208	209	3
59	90	3
172	172	2
197	198	1
35	35	3
203	203	8
156	157	2
238	240	1
11	14	1
190	190	2
33	207	2
213	213	2
204	204	1
186	192	1
55	91	1
90	91	4
158	158	4
188	191	2
109	110	1
69	70	6
39	39	4
8	8	12
69	69	3
164	182	2
14	14	4
243	243	3
72	76	2
6	86	1
58	61	3
24	35	1
172	173	3
149	150	1
215	216	3
226	227	1
110	110	4
103	115	1
12	15	1
24	25	1
89	90	1
214	236	3
178	178	5
236	236	4
100	101	2
119	119	4
89	89	1
109	116	1
242	244	1
65	78	1
17	17	1
34	35	1
243	246	3
1	2	1
222	222	2
117	118	3
79	79	4
186	187	3
179	182	2
222	223	3
171	173	2
27	27	3
211	211	2
54	211	3
173	176	1
149	149	1
55	56	1
191	192	2
113	114	2
7	14	1
177	187	1
244	244	1
5	7	2
87	88	1
36	38	1
86	87	3
43	184	2
162	163	2
6	6	2
62	69	1
45	46	2
239	247	1
21	21	2
166	166	2
11	17	1
197	197	2
18	20	2
207	209	2
175	178	2
48	50	2
26	28	1
87	87	2
113	113	2
161	162	2
210	211	2
180	188	2
63	69	1
186	186	1
68	70	3
227	228	2
82	83	1
7	12	1
97	99	2
35	37	4
48	48	1
120	144	1
61	68	2
4	5	2
108	118	1
162	162	1
9	11	1
1	3	1
223	234	3
40	41	2
28	28	4
77	89	1
1	70	1
72	72	1
59	60	1
10	11	1
230	233	1
49	56	1
64	67	1
117	117	2
226	228	1
166	176	2
110	111	4
218	237	1
216	235	1
175	176	1
173	173	1
169	169	3
248	249	2
49	50	1
212	213	1
56	56	4
25	25	4
52	54	1
146	146	2
21	45	1
72	75	1
18	19	1
216	217	3
167	167	1
159	160	2
59	75	1
219	220	1
99	159	3
196	221	1
157	164	1
181	183	1
45	45	4
182	182	1
108	108	1
205	205	1
239	240	1
207	207	1
4	6	1
240	241	1
23	33	1
170	171	1
58	59	2
107	143	1
157	158	1
35	38	1
238	239	1
177	188	1
151	153	1
43	45	1
78	95	1
185	186	1
203	204	1
220	238	1
217	234	1
61	77	1
83	84	1
