103	103	4
60	60	7
119	119	5
106	106	3
46	76	5
64	64	2
16	16	9
0	0	5
37	38	1
5	5	2
116	131	4
26	39	1
80	80	2
100	100	5
7	8	1
57	57	3
63	63	8
69	69	4
19	19	3
45	45	18
124	124	3
62	62	14
83	83	8
46	46	6
59	59	10
82	82	4
93	96	2
133	134	4
86	111	1
49	49	3
85	85	1
34	38	2
33	33	3
113	123	2
109	110	8
86	86	1
6	6	5
39	39	3
90	131	2
71	71	4
45	60	5
50	98	3
120	121	1
11	17	1
113	133	3
44	45	5
132	132	4
13	37	1
78	94	2
56	56	4
75	77	3
99	114	2
35	35	4
40	40	3
116	132	6
113	113	5
14	14	4
12	13	3
117	118	2
123	123	4
58	58	6
86	102	2
62	119	2
112	133	1
50	70	5
15	15	4
19	33	1
90	90	6
4	13	1
30	57	1
122	122	3
9	9	5
47	47	3
27	59	6
7	9	6
70	70	5
91	91	2
70	119	1
15	16	6
9	10	1
20	41	2
114	114	2
11	11	8
3	3	5
31	31	4
58	60	2
68	68	4
68	69	2
97	97	7
48	49	1
96	96	3
38	38	2
6	21	2
35	88	2
56	101	2
62	98	3
17	17	2
7	7	5
79	79	2
92	92	3
91	92	3
84	84	2
111	128	1
13	14	1
49	50	2
35	48	4
78	78	5
43	44	5
115	115	2
82	116	1
36	36	1
30	30	5
71	72	1
23	23	7
28	28	5
13	13	3
115	116	11
30	31	3
45	46	9
34	35	2
83	132	1
18	18	3
67	67	3
94	111	1
99	99	1
79	105	2
34	34	7
101	101	4
126	126	2
65	65	2
41	45	3
49	97	1
107	107	1
120	120	4
35	37	4
125	126	1
2	74	2
129	130	5
105	105	3
12	12	2
29	30	2
29	29	2
39	96	3
86	87	4
1	1	2
61	61	2
111	111	8
89	101	1
118	118	3
88	88	2
78	111	1
5	6	3
100	101	1
20	20	1
13	17	2
32	32	2
87	104	1
94	96	1
109	109	2
114	116	1
110	110	4
26	26	3
1	74	3
61	122	1
73	73	3
131	131	2
99	101	1
128	128	1
23	24	2
44	44	2
79	127	2
102	102	1
87	87	1
72	117	1
3	6	1
130	130	1
61	120	1
82	113	1
108	110	1
134	134	1
62	63	1
8	8	2
77	118	3
79	125	1
89	89	1
72	73	2
116	116	1
98	108	1
98	100	1
76	76	1
21	22	1
1	11	1
88	101	1
103	134	1
95	96	1
19	20	1
59	125	1
19	24	1
92	126	1
11	12	1
115	126	1
10	11	1
95	97	1
66	66	1
82	134	1
