120	123	1
5	5	4
48	48	4
129	129	6
111	111	7
77	104	2
68	117	2
17	70	4
39	39	2
112	112	3
115	142	1
118	118	8
121	121	12
36	36	2
52	52	15
80	80	7
8	48	1
128	128	3
157	157	5
85	85	5
153	156	3
68	68	3
119	119	1
139	140	2
104	104	10
147	148	2
135	135	2
68	115	4
26	99	4
19	19	2
131	154	5
158	158	6
99	99	5
116	120	2
20	51	4
32	32	9
75	91	5
87	109	2
8	8	1
30	30	6
34	43	5
35	46	3
70	70	3
132	142	1
31	31	5
141	146	4
34	34	5
69	69	1
122	123	5
0	0	3
71	71	2
28	28	3
13	13	5
110	158	2
138	138	7
95	95	4
17	65	2
73	73	4
81	82	7
126	135	2
129	154	3
110	110	1
156	156	3
23	23	5
33	33	3
23	40	1
79	79	4
16	17	4
19	63	2
54	54	2
96	98	2
4	4	2
109	109	1
121	127	1
89	129	3
30	32	3
124	124	7
31	32	2
6	7	1
78	78	6
126	152	1
35	47	4
69	114	2
35	35	6
9	9	11
82	82	2
100	100	1
98	98	1
114	118	2
75	75	5
106	106	5
44	44	4
105	106	1
125	125	2
40	40	2
42	42	4
131	131	4
103	103	4
62	62	2
92	97	2
20	21	1
43	43	3
92	92	3
102	102	4
20	31	2
66	119	1
94	94	3
81	111	1
33	47	1
113	113	6
122	152	1
122	122	4
91	91	2
44	45	1
67	67	3
48	49	3
13	16	1
97	98	1
37	42	1
63	64	2
151	153	1
3	53	1
145	145	1
29	29	1
117	118	1
16	16	5
25	25	1
35	37	1
148	148	2
105	105	4
107	107	2
95	139	3
117	117	2
85	87	1
14	14	2
24	33	2
140	141	2
10	10	2
103	104	1
12	12	3
38	39	2
146	146	2
108	108	2
12	18	2
132	132	3
145	158	3
83	84	3
54	55	3
83	83	5
144	144	2
67	119	1
79	141	3
123	124	1
15	69	3
136	137	2
143	143	2
81	158	1
13	18	1
77	79	1
69	70	1
84	107	2
150	150	1
41	43	1
140	140	1
93	94	3
29	30	1
118	134	3
57	58	3
2	47	1
144	154	1
118	142	2
76	77	2
25	26	1
68	136	2
38	42	3
47	47	1
152	152	1
125	153	2
155	156	4
134	134	2
15	67	1
67	113	1
66	66	2
57	57	5
126	126	2
85	86	1
115	115	2
18	19	3
127	137	4
8	9	2
88	109	1
7	7	1
73	98	2
155	155	2
135	153	1
17	17	1
81	87	3
136	136	3
88	88	1
33	54	1
6	6	2
51	51	2
4	5	2
70	143	1
27	28	1
4	55	2
70	147	1
22	22	1
53	53	1
133	133	1
113	145	1
114	131	1
24	24	1
144	145	1
147	147	1
89	158	1
38	38	2
155	158	1
56	56	1
21	22	1
129	149	1
36	44	1
