199	199	6
114	114	6
105	134	5
200	200	6
164	165	4
8	8	3
192	192	13
82	82	14
108	108	8
185	240	5
238	238	4
11	11	6
23	23	8
40	65	1
15	16	5
210	230	5
181	182	4
19	19	10
6	58	5
73	73	5
218	218	4
3	3	6
95	149	3
108	237	4
7	8	2
121	121	2
38	38	4
193	209	5
37	37	8
126	126	6
142	142	7
104	104	6
191	191	3
226	226	3
72	72	8
153	153	16
134	241	1
216	217	1
196	196	14
168	191	4
165	165	6
33	164	1
10	10	8
14	14	9
30	161	1
18	18	13
208	208	2
68	71	3
151	151	5
26	54	1
111	111	4
231	234	7
25	25	3
141	141	14
61	61	8
204	205	4
83	84	3
7	7	9
191	210	8
63	64	4
62	64	2
140	233	3
67	220	6
108	176	2
172	172	3
113	113	13
125	125	10
236	236	5
166	166	12
129	220	7
148	149	1
220	222	3
49	49	13
16	18	1
216	216	12
166	170	1
171	171	2
101	101	4
144	144	5
33	35	2
77	78	3
22	22	8
112	176	5
51	52	2
229	229	8
192	193	3
138	138	8
214	215	6
12	12	12
33	153	1
216	224	1
75	75	10
190	212	1
52	52	2
46	46	3
219	221	1
202	202	10
191	229	3
124	198	3
79	87	2
69	70	5
114	115	3
218	224	1
197	198	3
104	115	3
69	69	5
153	175	4
84	86	1
3	59	2
134	242	4
201	206	1
116	142	4
204	204	13
2	3	4
117	117	4
24	24	3
187	187	7
25	58	1
120	192	1
201	202	3
123	125	5
4	6	3
98	99	2
35	35	17
65	73	3
186	186	1
143	143	5
128	128	9
168	168	10
29	34	2
10	221	2
4	4	9
159	159	5
127	127	4
5	5	6
162	162	3
107	238	2
192	229	4
157	157	7
107	231	7
40	41	1
174	174	3
201	201	3
59	59	8
216	223	4
68	130	2
17	17	4
80	80	8
60	60	7
40	161	4
200	205	7
36	36	10
138	184	1
220	221	1
169	169	6
167	192	2
203	203	4
233	233	5
157	159	1
116	141	1
236	239	1
21	21	5
9	9	4
8	12	1
145	145	6
229	231	2
231	231	9
47	50	2
152	178	2
2	2	3
140	142	2
29	131	6
15	55	3
119	120	5
103	103	3
39	39	5
133	134	2
9	25	1
194	194	8
124	195	2
70	71	2
193	193	4
199	208	3
209	209	12
36	159	4
110	110	2
56	56	10
41	168	1
219	219	14
122	122	10
127	228	2
108	235	2
178	178	4
147	148	7
122	222	7
16	55	1
42	42	9
123	124	2
207	208	1
233	234	4
31	31	6
217	218	9
203	205	1
161	161	9
99	99	5
217	226	3
115	202	2
126	127	3
55	55	4
211	211	5
130	130	1
43	43	4
69	72	4
57	57	5
177	177	3
123	123	6
15	15	1
139	184	6
72	73	2
134	152	1
207	207	2
201	205	3
195	195	4
163	163	5
228	228	10
197	197	4
176	177	1
35	75	1
179	179	5
32	174	4
40	164	4
54	54	10
137	137	3
89	133	1
65	65	2
43	46	3
71	71	12
42	43	6
221	222	3
30	31	6
44	44	3
175	176	4
164	164	3
53	53	7
192	228	4
41	164	2
76	83	5
139	139	8
18	19	6
144	145	2
169	191	1
57	58	7
109	109	4
167	169	3
80	81	1
212	213	5
70	70	4
148	180	4
170	170	2
138	139	3
30	154	2
131	131	6
178	230	2
102	102	4
154	155	5
49	50	4
237	237	6
22	23	2
231	232	1
16	24	2
103	133	2
19	56	2
225	225	4
76	76	4
235	235	4
109	110	4
33	154	1
104	142	3
106	233	1
20	59	4
161	166	4
210	210	7
224	224	1
141	142	1
111	123	4
83	83	3
189	189	3
63	194	6
144	241	3
79	80	2
182	182	10
36	37	5
27	27	5
20	23	1
61	62	1
230	230	8
217	217	4
140	140	1
6	66	2
96	101	1
136	136	4
128	129	3
98	98	3
28	28	5
63	208	1
18	56	1
34	34	4
134	135	5
120	121	3
1	2	1
139	185	2
137	138	2
190	190	1
115	115	3
167	219	2
225	226	1
73	74	5
103	105	1
108	118	1
96	144	1
36	84	2
20	21	2
183	184	1
182	183	2
113	186	2
125	221	1
124	124	2
221	223	4
107	230	2
161	165	1
1	1	6
48	48	3
179	180	4
0	60	4
5	19	3
132	132	1
76	89	2
159	160	2
64	64	3
111	112	2
158	158	1
222	222	1
220	226	2
40	40	3
4	20	1
106	106	6
38	39	2
167	168	2
84	84	2
214	214	2
81	81	3
124	125	1
12	221	2
213	213	3
106	134	3
0	59	1
112	112	1
209	210	2
85	85	1
113	235	2
195	199	5
232	232	9
231	239	1
46	47	4
106	149	1
178	231	1
32	161	1
30	90	1
237	238	1
63	195	1
226	228	2
8	59	2
30	30	5
16	56	2
193	194	1
45	45	3
146	146	2
129	129	2
175	175	1
61	208	1
123	198	2
3	196	2
174	175	3
116	116	2
31	161	1
76	77	1
173	173	1
168	169	1
239	240	2
58	58	1
42	131	1
147	147	3
60	66	3
12	218	4
0	0	1
152	152	2
101	106	1
145	180	2
38	42	1
12	19	1
232	233	2
9	10	1
70	72	1
223	227	1
34	133	1
86	86	1
105	232	1
88	160	1
26	26	3
230	231	3
67	198	1
25	26	1
60	71	1
103	149	3
194	195	1
33	34	2
39	74	2
128	219	3
54	55	5
62	62	1
120	123	1
34	78	2
4	57	3
206	206	2
188	189	1
23	25	1
183	183	2
213	215	1
234	234	2
232	239	3
150	150	2
20	20	4
28	74	1
176	211	1
6	59	2
113	118	1
242	243	1
67	222	1
107	242	1
139	181	1
176	186	1
67	125	1
160	161	1
36	88	1
27	38	1
25	59	1
199	200	1
30	163	1
29	89	2
10	25	1
62	208	2
220	225	1
156	156	1
150	153	1
63	120	2
172	173	1
144	180	1
28	39	1
201	203	1
167	167	1
135	135	1
8	19	1
144	146	2
116	140	2
240	240	2
66	68	3
18	20	1
103	106	1
63	63	2
28	164	2
173	175	1
106	232	1
241	242	2
167	191	1
215	215	3
68	73	1
233	238	1
88	88	1
74	74	1
66	222	2
148	148	1
39	40	1
154	156	1
134	178	1
28	88	1
166	168	1
9	26	1
119	119	1
218	219	2
118	118	1
139	241	1
81	82	1
58	60	1
205	205	1
12	15	1
10	11	1
203	204	1
107	107	1
200	207	1
120	120	1
75	78	1
110	202	1
200	202	1
31	154	1
242	242	1
79	79	1
63	65	2
