85	85	5
43	43	4
124	124	3
122	122	2
132	133	5
147	147	1
146	148	1
133	133	1
139	139	5
51	52	2
47	47	6
17	17	7
28	28	3
139	140	4
121	121	5
113	113	21
108	108	5
149	149	11
119	119	5
57	57	7
13	13	2
136	136	4
131	132	1
135	135	5
67	68	3
97	98	2
69	69	2
54	54	8
65	65	2
78	78	8
145	145	1
125	125	1
87	87	1
98	98	2
71	114	2
26	26	3
148	148	6
132	132	7
50	50	4
40	40	6
9	9	8
95	95	3
57	64	3
92	92	3
14	14	2
110	112	2
102	103	4
62	62	2
30	30	7
51	51	5
12	12	6
96	96	2
10	10	3
107	108	6
83	83	5
45	46	3
129	129	2
41	42	6
21	21	13
77	109	2
64	64	3
93	93	2
109	109	3
110	110	2
42	43	1
57	65	2
71	71	3
18	19	1
66	66	2
131	131	4
147	148	4
42	42	3
102	102	1
48	48	1
80	80	3
104	104	2
41	41	2
74	74	3
18	18	3
114	114	2
63	64	1
39	39	2
62	150	3
97	97	3
22	22	3
28	29	1
23	23	2
108	109	2
115	116	1
126	127	3
104	105	5
68	68	8
145	146	4
70	70	3
143	143	3
138	139	2
131	133	2
121	122	3
111	113	3
30	32	1
128	128	2
150	152	5
78	111	5
29	29	6
85	86	1
153	153	7
107	107	2
37	50	1
7	7	3
123	123	4
71	78	3
20	21	2
137	137	1
40	41	4
96	99	5
115	115	2
105	108	7
63	69	2
64	66	2
117	117	9
45	45	1
36	38	3
125	126	1
107	109	1
62	69	1
48	77	1
106	106	3
112	113	6
44	45	1
43	44	1
75	75	5
79	80	4
69	118	1
24	24	1
25	25	3
82	84	4
71	73	1
70	102	3
84	133	1
120	128	2
112	112	6
15	16	1
88	88	1
94	94	2
53	53	1
103	103	2
120	120	3
149	150	2
116	116	5
11	11	1
6	6	1
84	85	1
20	20	3
99	99	4
151	151	1
14	20	1
55	56	2
126	130	1
76	76	2
65	150	1
3	3	1
36	36	2
48	49	1
82	83	2
73	73	1
119	129	1
56	56	1
81	81	3
92	93	1
153	154	1
106	107	3
130	130	2
143	144	1
65	69	2
14	15	2
27	28	1
79	79	1
82	82	1
111	112	2
67	67	2
111	111	2
150	151	2
136	137	1
31	31	1
71	75	1
144	144	2
138	148	1
101	101	2
142	144	1
98	99	1
110	111	1
94	95	1
47	106	1
44	44	1
31	32	1
130	147	1
109	110	1
47	48	1
6	26	1
130	131	1
54	56	1
137	147	1
27	27	1
5	5	1
