6	6	6
163	189	3
106	106	11
65	65	4
84	84	15
69	69	10
170	170	10
176	176	6
184	185	8
128	128	8
85	85	5
125	125	10
144	144	4
132	132	12
56	79	5
190	190	9
150	150	6
126	126	6
113	138	5
182	182	5
7	7	4
166	166	4
14	14	7
40	183	3
63	65	4
105	106	5
5	25	5
188	188	7
105	105	3
5	7	1
115	115	25
18	18	7
99	99	6
126	127	2
123	124	3
30	30	10
89	89	2
148	148	3
134	134	11
147	158	8
19	135	2
8	9	6
95	99	3
191	191	5
133	160	2
130	140	1
1	1	2
178	178	4
182	183	2
116	171	3
33	123	5
83	83	10
110	110	3
74	74	7
11	25	2
42	42	8
13	14	5
100	100	1
125	140	2
11	12	4
97	98	1
24	24	4
36	36	2
96	104	5
172	173	3
116	117	6
5	18	4
64	65	8
95	178	2
147	154	1
161	161	2
18	23	9
31	31	5
192	192	5
187	187	8
145	158	2
70	77	5
133	133	9
20	121	2
112	120	4
34	34	7
165	165	8
1	82	4
39	72	2
39	45	9
73	73	3
155	155	4
69	72	6
149	149	5
177	178	1
193	193	4
29	29	2
174	177	4
189	189	4
48	48	7
7	19	1
183	183	3
179	179	4
43	46	2
46	46	2
66	66	7
35	35	6
173	176	6
177	177	6
60	66	4
18	28	3
45	45	5
181	181	3
165	166	3
47	47	10
32	80	2
132	169	2
196	196	4
56	83	4
39	39	3
50	51	3
145	145	12
129	129	2
67	86	2
8	8	7
68	87	2
67	68	1
38	48	3
13	122	1
78	78	6
69	79	4
82	82	9
56	56	8
2	2	5
94	99	1
148	159	2
64	64	4
4	4	6
101	167	9
130	130	3
86	87	4
133	167	2
100	159	2
127	130	5
121	122	7
104	106	3
102	103	5
120	120	2
141	141	6
23	23	2
67	87	1
68	85	1
71	71	9
52	52	16
71	171	4
134	135	1
121	121	7
104	104	1
167	167	5
3	3	4
12	12	4
101	165	1
20	20	6
58	60	5
55	56	6
18	121	3
49	49	2
191	192	4
117	133	4
96	96	9
36	37	2
7	11	1
169	169	7
118	118	3
4	5	4
139	194	3
100	107	5
195	196	1
119	119	5
163	164	1
58	61	3
117	118	4
98	102	3
163	194	1
151	151	2
53	53	11
17	17	5
40	46	4
83	90	1
33	33	3
13	13	4
150	151	2
54	55	6
96	103	2
24	121	8
62	62	1
0	0	2
141	143	2
9	30	5
20	24	6
127	127	3
76	114	1
87	87	1
164	165	4
60	63	3
170	171	4
162	189	2
138	138	4
103	103	3
186	186	8
149	150	2
59	60	2
94	95	1
35	87	2
59	63	1
151	152	1
79	79	5
156	157	1
58	59	1
9	9	5
98	132	1
82	83	2
152	155	3
48	49	3
123	123	1
184	184	3
50	73	1
143	143	3
185	185	3
173	173	6
149	195	2
156	156	3
56	66	2
117	132	2
116	170	4
37	37	5
194	194	2
98	98	2
36	63	1
108	108	8
181	182	1
146	146	5
62	63	4
94	94	1
122	122	3
60	65	2
128	141	1
186	194	5
94	171	2
55	74	1
180	189	2
121	123	2
153	153	4
166	169	2
16	16	6
117	169	2
154	190	5
41	43	1
141	149	2
109	109	3
197	197	2
70	170	2
70	71	2
44	44	3
146	147	4
123	125	1
10	31	5
140	140	5
80	81	3
37	74	1
64	66	4
101	101	5
106	134	3
76	87	1
148	149	2
17	79	2
161	190	2
66	69	3
77	119	1
14	81	1
81	90	4
68	68	4
111	120	1
23	138	3
124	129	1
28	28	2
13	119	4
111	111	5
88	88	2
141	145	2
81	81	3
168	169	2
73	74	1
114	114	2
42	125	2
78	109	2
14	52	1
24	138	1
3	18	1
80	80	5
16	17	1
133	140	3
98	99	1
25	27	5
117	119	2
10	10	1
63	63	3
142	142	1
116	116	1
79	84	1
40	185	1
136	137	1
79	88	3
161	179	1
159	160	1
153	158	1
154	163	1
152	152	1
157	157	4
96	97	1
164	164	1
12	13	1
65	88	1
166	167	1
16	112	1
127	160	1
26	27	2
79	80	3
67	112	2
112	113	2
195	195	1
107	107	3
124	124	2
108	119	1
1	2	1
145	146	1
22	22	3
64	77	1
67	89	1
2	3	1
45	168	1
167	168	1
60	61	1
6	22	1
32	32	1
109	119	1
5	6	4
136	136	1
55	55	2
42	46	3
44	49	1
106	137	1
22	23	1
15	17	1
112	112	3
102	113	1
67	67	2
40	40	1
5	27	1
65	102	1
160	160	1
45	167	1
28	29	1
50	50	3
42	183	1
11	11	2
168	168	1
147	147	2
61	61	1
10	121	2
55	69	1
13	18	1
174	174	2
180	181	2
58	62	1
141	147	1
27	27	1
155	158	1
77	78	1
127	129	1
41	42	3
162	178	1
113	114	1
44	132	1
152	153	2
113	113	2
54	81	1
124	128	1
43	43	2
78	79	2
87	109	1
188	192	1
57	57	1
78	88	2
72	72	1
38	38	1
0	23	3
171	171	1
52	56	1
130	132	1
37	76	1
41	41	2
88	89	1
114	115	2
65	86	1
132	168	1
151	191	1
104	159	1
142	145	1
59	59	1
45	126	1
141	196	1
