135	135	19
118	118	17
95	95	12
120	120	7
25	25	4
22	22	6
80	82	3
8	8	13
92	93	3
125	126	6
4	8	2
113	114	7
20	20	8
93	93	8
129	129	8
34	34	13
30	30	11
22	23	11
14	14	11
28	28	4
18	18	9
4	4	8
133	133	8
36	36	8
2	5	5
109	110	2
32	33	3
115	116	1
19	19	17
13	13	9
3	3	8
122	122	7
132	133	5
37	37	6
97	98	2
23	23	11
121	121	2
34	35	6
110	110	6
78	85	1
26	26	2
112	112	8
99	123	1
137	138	2
107	109	2
98	98	4
75	76	8
117	117	8
103	103	11
73	73	7
111	112	8
12	12	5
83	85	1
17	20	4
24	25	7
119	120	2
10	11	4
89	104	4
26	28	3
7	8	7
71	73	4
21	21	1
101	122	4
104	104	4
128	128	10
103	104	5
9	9	12
126	126	9
17	17	11
32	32	5
72	72	7
108	108	9
110	111	2
100	100	18
74	74	7
31	32	5
109	109	7
31	129	4
73	75	2
120	122	1
127	127	7
95	96	1
78	78	20
76	76	2
81	81	4
1	10	2
85	85	2
2	3	2
82	82	10
134	134	6
88	88	5
15	15	4
74	76	4
102	102	10
130	130	12
0	0	2
73	77	1
123	123	6
87	90	1
113	113	6
17	18	4
128	129	7
75	75	10
71	71	2
28	31	2
103	106	1
135	136	2
2	2	15
98	115	3
97	97	7
13	14	2
117	118	1
87	87	4
139	139	9
89	89	5
3	88	2
125	125	12
83	84	4
140	140	7
114	114	10
1	2	3
94	95	4
83	83	1
6	12	7
22	71	2
105	106	3
5	6	1
27	31	1
33	127	2
111	120	4
129	130	5
134	139	2
7	7	8
27	27	5
96	96	6
11	12	2
112	119	1
137	137	3
6	6	4
94	94	12
20	21	1
100	101	4
87	89	2
31	31	2
23	24	2
90	101	1
101	114	2
16	16	10
33	33	5
20	85	2
136	137	7
24	24	5
5	85	2
115	115	5
74	92	3
107	107	3
80	80	10
107	108	2
127	129	2
1	1	5
29	29	3
5	5	6
81	83	3
116	116	10
30	31	3
35	91	2
86	86	8
25	26	3
81	82	1
7	24	1
75	90	3
99	99	4
131	132	1
132	132	1
123	124	1
91	92	5
35	35	3
6	7	1
96	97	1
123	130	1
100	118	1
138	138	6
2	4	2
12	83	4
77	77	2
3	9	1
37	38	3
4	5	4
27	28	1
123	129	1
86	87	1
107	121	2
96	98	1
0	1	1
21	22	3
136	136	4
0	10	1
114	119	3
98	99	4
105	105	2
74	89	1
14	93	3
74	77	3
11	11	3
120	121	2
130	131	1
111	111	3
38	38	1
134	138	2
89	93	4
4	14	1
82	83	7
106	106	4
102	103	3
104	105	1
89	92	1
17	38	1
12	23	1
19	23	2
101	113	1
127	128	1
112	116	3
119	119	4
10	10	2
124	125	4
84	84	6
37	71	1
33	100	1
131	131	4
117	126	1
81	84	1
102	110	1
118	119	3
3	4	1
77	78	1
82	85	1
79	79	2
12	13	1
18	19	1
92	92	1
87	88	1
101	102	1
115	118	1
112	117	1
27	32	1
101	101	1
88	113	1
98	100	1
91	101	1
95	108	4
91	93	2
90	90	1
26	27	1
76	105	1
27	37	1
14	35	1
33	78	1
102	104	1
116	117	1
