27	29	2
75	75	1
5	10	1
53	64	3
17	18	8
41	42	2
94	95	3
60	60	3
3	16	2
124	127	3
118	121	2
101	115	1
10	25	3
0	0	6
116	116	6
90	92	2
112	112	11
81	90	6
69	78	1
69	73	2
70	70	5
93	93	2
99	99	5
74	74	3
86	98	4
127	129	1
28	31	6
116	119	4
51	51	1
0	82	1
129	130	3
73	73	1
7	10	4
44	44	7
2	11	2
91	92	2
120	129	1
93	96	2
30	30	1
12	20	1
90	90	2
75	76	5
76	76	5
59	60	2
14	22	1
113	127	2
47	53	1
77	83	3
29	30	2
55	59	2
72	84	2
29	31	3
102	106	4
89	103	2
82	82	4
68	78	2
114	128	1
63	77	3
55	65	3
80	80	2
50	50	2
39	40	2
1	26	1
27	28	3
21	26	2
45	46	4
102	103	4
92	99	3
100	106	1
66	78	1
53	53	4
61	61	1
107	115	1
38	38	2
128	133	2
42	44	2
86	87	1
88	96	3
55	62	1
122	122	1
97	124	1
127	127	3
81	81	4
29	29	3
43	44	4
5	5	3
58	60	2
41	50	1
93	95	1
102	104	1
25	25	3
4	4	3
65	71	2
100	100	4
71	80	6
12	13	2
32	33	6
113	126	1
0	1	4
32	32	1
77	92	1
11	16	3
20	26	1
86	90	3
74	85	1
40	43	3
119	119	1
80	92	3
69	72	4
12	17	3
17	19	2
77	79	1
132	133	2
80	81	3
119	121	3
50	51	2
52	52	2
47	47	1
91	91	2
100	101	1
86	86	4
82	84	3
117	117	2
6	61	1
95	95	4
102	102	7
110	122	1
105	129	4
2	6	2
92	93	1
18	18	5
59	59	3
45	56	1
23	28	1
1	2	2
23	27	6
125	126	2
55	57	1
61	65	1
42	42	3
100	115	2
43	43	4
3	7	3
111	121	4
1	3	1
119	126	2
110	110	3
63	80	1
88	88	1
30	32	5
71	73	1
101	113	1
91	94	2
83	83	1
70	73	2
119	122	3
64	79	2
110	114	1
119	128	1
67	70	1
21	22	2
89	93	2
67	87	2
26	26	2
62	62	1
1	10	1
65	66	1
60	61	1
23	24	1
21	29	1
46	53	2
40	41	4
15	15	4
17	21	2
111	118	2
11	11	4
82	94	1
52	66	2
68	72	3
46	55	1
73	75	1
95	99	1
54	55	1
14	14	2
76	87	2
2	16	2
58	61	2
113	117	1
104	104	2
106	106	1
60	62	5
11	12	1
9	13	4
52	68	2
115	117	2
105	112	1
121	130	1
83	97	1
99	102	1
68	70	1
100	105	1
40	58	2
120	123	1
46	57	1
12	19	4
108	108	1
14	26	1
29	42	2
85	97	3
119	129	1
4	5	1
83	88	2
118	119	1
103	104	2
91	102	1
74	76	1
47	76	1
20	20	3
47	77	3
5	12	1
104	115	2
75	87	2
7	12	1
65	68	1
86	91	1
59	66	1
108	110	1
3	6	1
113	113	2
52	60	1
45	45	3
124	128	1
41	57	1
89	89	1
116	131	1
11	17	1
106	110	3
119	123	1
60	65	2
9	15	1
47	62	1
67	72	2
95	103	1
3	73	1
109	118	1
61	69	5
49	49	1
79	86	2
11	25	1
63	74	1
9	9	1
34	34	2
87	100	1
56	56	1
41	41	2
23	23	2
65	73	2
131	131	3
79	79	1
85	100	2
2	8	1
54	56	2
59	64	2
13	25	2
47	63	2
64	65	1
67	67	1
16	18	1
63	64	1
72	72	4
20	29	1
90	96	1
94	103	1
115	129	1
8	8	1
14	25	1
62	64	1
15	18	2
101	102	3
1	1	1
128	128	3
43	45	1
49	60	1
75	85	1
99	110	1
75	78	2
49	51	2
122	129	1
67	71	1
122	128	1
55	71	3
0	16	1
91	93	1
111	111	1
51	66	1
55	72	1
42	47	1
70	76	1
22	29	1
125	125	3
65	67	1
72	80	1
20	21	1
79	88	1
63	68	1
115	124	2
46	54	1
21	24	1
28	32	1
116	126	1
48	51	1
72	92	1
111	124	1
41	43	1
130	131	2
28	33	1
109	119	1
47	61	1
108	120	1
95	98	1
13	15	1
40	40	1
78	79	1
121	121	1
13	24	1
116	121	2
120	120	2
34	38	1
105	107	1
31	31	2
12	27	1
4	15	1
121	133	1
28	46	1
4	9	1
111	123	1
1	5	2
116	132	1
114	116	1
85	95	1
99	101	1
12	12	2
124	124	1
117	120	1
93	94	1
112	113	1
123	124	1
18	24	1
58	59	1
46	58	1
109	121	1
105	118	1
118	118	2
79	81	1
6	12	1
