159	164	4
94	94	7
86	88	2
131	131	15
101	101	9
109	109	10
145	145	19
160	160	18
18	19	4
114	117	2
57	57	20
140	140	16
106	149	2
21	23	3
139	147	2
4	5	6
48	53	4
164	164	7
119	137	4
2	151	4
2	3	7
118	120	3
35	35	7
80	84	2
127	127	8
7	8	6
152	152	12
104	105	6
106	107	2
65	65	8
132	132	15
44	46	15
40	40	7
141	141	17
120	120	4
158	158	6
41	42	5
139	139	9
17	18	2
54	54	7
99	100	3
38	40	2
104	104	10
76	92	1
81	81	12
12	13	2
115	115	6
114	125	3
167	167	5
22	22	10
38	38	15
91	91	13
36	36	13
143	149	2
149	150	4
130	130	9
99	99	10
83	83	5
45	48	4
101	102	11
74	74	6
51	54	5
97	99	5
9	12	1
39	39	7
143	143	10
149	149	8
41	41	6
151	151	10
5	5	9
3	8	2
124	128	3
8	12	1
153	153	8
57	62	1
170	170	5
117	117	10
100	100	20
116	116	3
101	137	3
70	70	4
129	129	11
105	149	3
138	138	12
141	143	4
127	128	1
167	168	7
153	154	3
125	138	3
45	45	14
101	103	3
20	163	2
124	124	8
84	84	17
113	118	1
4	4	5
161	167	5
44	52	4
80	80	12
97	97	12
87	87	5
139	142	4
132	133	7
14	52	2
41	155	5
142	142	4
18	24	3
134	134	6
145	149	1
44	50	3
72	72	7
3	51	2
157	157	13
37	37	5
22	27	2
3	3	5
19	19	8
35	41	5
20	20	7
134	139	7
102	102	6
89	89	9
1	11	2
73	73	5
55	55	6
36	37	4
100	101	3
136	136	9
114	114	6
21	25	1
144	146	4
150	152	5
107	107	11
94	95	3
69	73	4
168	170	4
34	34	15
15	17	6
71	71	6
26	33	2
88	89	8
112	112	8
8	13	7
140	153	3
135	135	11
90	90	9
10	13	3
115	116	3
168	169	8
52	52	7
1	26	2
165	166	5
38	39	8
151	152	2
48	49	5
111	111	5
19	25	2
108	108	9
115	124	5
111	119	3
6	13	4
151	154	1
76	77	3
157	160	4
89	90	11
25	56	2
62	62	8
23	23	14
73	75	6
91	94	1
153	159	3
163	167	3
33	34	3
47	53	1
43	43	14
76	94	1
14	58	2
105	105	10
100	102	5
127	141	1
78	99	2
89	93	4
1	1	6
23	25	8
46	46	10
51	58	2
10	15	2
18	18	17
78	83	3
162	162	9
23	27	2
64	65	3
131	151	3
77	78	4
50	50	9
114	115	2
26	26	2
77	92	2
138	139	4
67	67	7
122	123	3
108	110	5
77	77	4
124	125	6
52	56	3
125	125	11
16	44	1
44	45	7
121	129	4
8	8	8
12	14	6
56	56	18
42	42	12
86	86	6
96	97	4
153	168	2
152	154	2
39	70	1
78	80	1
0	1	3
148	148	10
75	90	1
116	120	1
162	167	1
75	75	7
82	82	11
126	126	12
51	52	1
125	128	3
116	117	6
155	156	7
144	144	7
165	167	2
0	3	1
22	23	2
111	117	1
40	70	4
42	44	4
47	47	7
20	21	4
17	17	8
101	144	2
2	44	2
98	98	8
28	28	1
49	50	3
70	71	5
35	36	8
125	142	2
161	161	4
164	165	7
155	155	8
118	118	14
95	105	3
122	122	2
83	120	1
162	163	4
122	137	1
53	63	1
85	85	14
102	107	2
17	38	1
61	62	3
135	145	5
142	146	1
33	33	3
34	42	3
45	47	2
81	85	4
51	51	10
65	71	2
137	143	2
25	51	3
129	132	1
7	7	12
110	111	2
134	137	2
80	81	8
166	166	21
11	11	6
126	127	3
161	163	4
125	141	1
117	127	2
139	144	4
15	38	1
80	86	4
45	52	2
123	124	5
11	42	3
159	162	2
72	73	5
53	56	9
76	76	4
79	109	2
26	27	2
46	74	2
12	12	5
9	11	4
37	39	1
129	130	4
148	169	1
152	166	3
159	159	5
53	53	18
144	145	8
58	62	2
90	148	2
49	49	4
142	143	6
86	91	2
98	129	2
47	48	1
98	100	3
154	158	1
14	14	13
130	131	5
142	144	3
110	110	12
9	9	4
163	164	2
118	121	2
105	107	6
25	25	6
119	121	5
4	17	1
88	93	2
135	136	6
49	55	1
75	76	5
78	154	3
7	11	1
134	156	1
52	53	3
105	135	1
108	109	2
65	66	3
107	161	4
137	139	1
20	23	3
66	66	3
21	21	9
46	47	7
4	103	3
139	140	5
96	98	1
65	68	2
83	86	1
128	128	8
95	95	4
91	97	2
8	11	1
62	77	3
150	151	2
119	119	7
158	161	4
147	148	6
154	154	6
113	121	2
64	74	1
1	87	5
50	51	1
141	144	5
15	15	3
126	139	3
42	53	1
79	80	3
74	81	3
9	18	2
0	0	10
46	50	3
145	146	3
6	6	5
149	169	1
168	168	8
14	15	1
77	79	2
106	106	7
160	161	1
13	13	4
166	168	2
34	36	4
86	90	3
122	134	2
136	138	2
11	13	3
24	46	1
88	92	2
20	24	2
134	135	2
13	87	1
40	41	1
56	57	3
46	53	1
0	89	3
119	120	2
135	137	3
169	169	9
88	88	5
57	67	3
10	10	4
139	141	7
139	155	5
7	103	1
16	17	5
156	163	1
97	98	8
166	167	1
71	73	4
24	57	1
163	165	2
35	105	1
151	156	1
77	132	2
136	139	2
123	123	9
144	169	1
13	20	5
105	106	4
2	2	2
112	114	3
152	153	5
76	80	1
76	82	3
15	18	2
39	40	1
83	108	2
6	7	1
36	53	1
132	150	1
87	136	1
53	55	2
94	97	1
114	118	2
81	104	1
3	74	1
19	39	2
69	71	3
68	68	5
125	140	2
113	113	17
55	73	1
116	125	1
40	44	2
83	84	2
114	137	2
34	37	2
42	155	10
66	67	1
81	88	2
110	138	3
133	133	5
96	96	7
112	137	1
63	63	2
49	53	2
92	92	3
156	157	2
128	129	4
146	146	3
98	101	2
3	24	1
38	70	1
7	91	2
44	44	7
27	54	2
49	52	3
24	24	10
140	142	3
64	66	4
169	170	4
74	76	1
73	74	1
83	85	1
11	12	3
78	78	3
133	135	4
72	75	1
68	69	1
161	162	5
11	15	1
57	64	1
158	159	1
10	11	5
119	125	3
5	7	3
22	54	1
79	100	1
159	160	2
1	74	3
11	35	3
13	15	3
48	48	5
81	84	2
53	72	3
47	49	1
58	58	1
27	27	4
34	35	3
12	16	1
3	159	2
107	108	4
107	138	4
74	79	1
135	139	1
19	22	4
128	135	1
158	160	2
127	140	1
131	138	1
73	76	1
11	86	2
15	42	4
23	46	2
64	64	9
5	11	1
117	119	1
24	25	2
40	43	1
125	126	1
91	96	5
106	108	1
99	154	2
101	105	2
90	91	3
6	51	4
41	44	1
62	63	2
117	169	1
55	57	1
4	7	1
85	147	2
152	162	3
36	43	1
4	88	2
128	139	1
69	69	3
154	155	2
3	44	2
3	54	1
37	42	1
143	144	2
91	146	2
57	68	2
23	24	2
57	91	1
102	103	2
17	20	4
113	138	2
41	52	1
2	11	1
24	26	1
92	94	1
86	146	4
101	147	2
129	133	1
3	5	1
3	154	1
56	58	1
74	75	3
156	159	2
83	146	5
148	149	1
75	88	1
138	140	1
76	132	2
42	47	2
1	71	1
127	129	1
111	121	1
139	146	1
148	150	1
121	134	1
91	92	3
137	142	1
1	2	2
121	125	2
52	54	1
38	41	2
50	55	3
18	20	1
147	147	2
98	99	1
66	68	1
121	122	1
153	156	1
78	124	3
81	121	1
75	80	2
153	169	3
134	136	3
136	137	1
25	52	2
153	157	2
67	99	2
85	121	2
45	46	3
122	142	2
107	109	2
37	44	1
137	137	1
109	112	1
99	138	1
112	113	1
130	134	1
82	83	1
140	147	3
71	77	1
132	134	1
8	9	3
142	155	1
6	12	1
156	156	2
80	148	3
6	11	2
97	103	1
125	136	2
106	137	1
6	9	2
125	131	1
7	9	2
103	103	1
130	133	1
77	123	1
165	165	2
99	101	1
93	100	2
24	44	1
111	123	1
119	146	2
163	163	3
63	68	1
57	61	2
7	57	1
150	150	3
77	80	1
43	44	2
81	86	1
124	138	1
114	124	1
46	49	1
13	23	1
79	90	1
90	93	2
126	129	1
82	84	1
70	108	1
76	105	2
122	124	1
33	40	2
130	132	1
104	120	1
1	46	1
33	35	1
124	126	1
16	22	1
114	116	1
102	140	1
13	39	1
2	7	1
67	71	2
56	75	1
2	156	1
4	6	1
79	104	1
126	131	1
11	153	1
42	43	1
67	98	1
138	142	1
86	145	2
95	96	2
160	164	1
19	24	1
113	114	1
76	155	1
35	37	1
134	157	1
50	56	1
2	12	2
70	75	1
14	16	1
11	56	1
93	94	1
87	90	1
65	67	1
97	149	1
120	134	1
105	112	1
37	41	1
1	6	1
164	166	1
121	121	2
41	43	1
143	147	2
5	6	1
164	169	2
1	90	1
124	130	1
110	114	1
80	108	1
162	165	1
160	163	1
81	87	1
143	151	1
115	119	1
87	88	1
161	164	1
2	5	1
126	128	1
46	106	1
13	111	1
21	27	1
44	47	1
