32	33	3
100	104	1
66	66	3
167	167	9
6	6	7
109	110	5
198	199	2
152	152	8
19	22	2
67	68	7
76	118	1
208	208	1
73	73	3
28	28	3
190	190	1
30	30	7
22	29	3
160	160	11
107	109	3
11	11	6
236	236	5
18	18	9
51	216	1
64	64	7
77	77	8
154	155	4
174	174	8
85	92	3
203	203	5
66	77	1
149	149	4
151	153	1
13	15	2
199	200	2
71	79	1
234	243	2
232	234	2
65	65	2
52	54	4
89	90	2
50	50	8
213	213	8
94	94	7
169	171	1
226	226	10
48	48	6
116	117	4
191	191	3
185	185	7
68	68	9
15	15	1
74	75	3
31	31	5
207	207	6
161	161	4
116	116	5
16	17	4
76	76	5
232	232	7
171	172	2
171	171	8
93	94	1
225	225	6
113	113	7
87	87	5
217	219	2
10	10	6
12	235	1
10	52	3
234	234	7
62	88	3
26	26	6
95	95	2
224	224	4
172	192	2
51	51	1
84	84	2
146	147	2
162	163	5
162	227	3
150	150	3
108	119	4
2	3	5
63	66	4
159	159	5
149	216	4
183	242	3
67	85	6
49	86	3
60	60	2
50	111	1
221	221	3
3	3	3
4	4	5
194	194	10
99	99	8
115	115	8
92	92	9
81	81	10
182	182	3
44	48	2
180	188	3
9	9	2
101	102	6
18	22	1
223	225	1
61	61	5
85	85	7
49	49	2
235	235	5
31	56	6
27	94	2
54	54	2
41	41	2
11	19	2
187	188	1
105	105	2
112	112	11
100	117	2
21	21	4
166	175	4
181	182	3
56	59	3
247	247	3
156	156	7
32	205	3
194	197	1
165	165	5
182	183	2
97	97	3
216	216	6
13	13	2
109	109	9
173	173	6
15	24	1
48	50	3
40	40	9
193	193	3
228	228	3
48	49	1
204	205	2
36	37	1
192	193	2
154	154	1
230	230	1
227	227	4
69	69	5
153	153	7
67	67	12
200	247	3
54	60	1
34	50	2
55	59	4
178	178	7
237	238	1
195	195	2
167	216	4
246	249	5
33	33	5
185	203	2
45	45	6
39	39	1
201	226	2
218	219	1
170	171	4
90	90	5
188	189	2
57	60	2
46	46	10
183	183	4
80	81	1
239	240	1
198	198	2
14	14	1
49	50	1
202	220	1
200	202	2
32	32	2
179	179	6
55	55	7
225	226	2
203	212	2
29	29	5
44	44	1
233	248	1
0	184	1
22	114	2
59	59	3
165	168	1
98	99	1
204	204	4
241	241	1
89	91	1
1	1	3
101	101	2
237	242	3
94	95	3
53	54	2
84	217	2
112	113	1
156	159	1
15	16	1
192	192	5
38	38	1
73	74	1
78	103	1
76	77	3
4	58	1
121	121	1
158	158	4
24	24	5
219	219	5
157	160	4
26	99	1
31	155	1
188	188	2
52	52	4
106	106	5
119	119	3
51	52	2
158	160	1
32	36	3
197	199	1
111	112	5
239	239	1
60	62	1
23	23	3
187	194	1
205	205	1
195	196	2
98	98	2
153	156	2
231	234	2
235	236	3
233	233	4
16	16	2
174	177	2
177	177	8
202	247	4
238	238	2
47	70	5
186	186	3
220	220	7
12	238	1
56	58	3
114	117	2
27	27	2
223	223	2
11	37	4
56	57	4
23	69	1
73	195	6
5	58	1
192	194	2
67	71	1
246	246	4
30	58	2
72	72	6
166	168	3
62	62	3
82	82	1
233	241	2
6	16	1
14	65	1
82	83	1
158	181	1
185	195	3
56	56	2
6	32	2
204	221	2
217	217	4
64	65	3
242	243	1
176	177	1
42	70	4
35	35	1
63	63	4
167	176	2
112	119	2
59	60	2
200	200	4
99	100	2
202	202	1
36	42	1
102	103	2
180	180	3
201	201	1
113	114	2
26	27	1
229	229	4
231	231	4
175	175	3
70	71	1
114	208	1
58	60	3
209	210	1
8	8	2
227	228	2
165	166	2
47	47	3
64	67	1
79	79	1
184	184	1
19	19	6
246	247	1
157	157	4
12	12	3
117	117	1
155	155	6
51	62	1
203	219	2
78	78	1
150	154	1
71	116	1
43	43	3
57	58	1
15	30	3
151	152	2
72	73	1
1	183	1
36	86	1
214	215	1
175	176	2
7	12	2
208	210	1
84	86	2
215	216	2
210	210	2
88	88	2
47	71	1
203	208	1
243	243	1
37	37	4
145	145	4
194	211	2
222	222	5
244	245	2
230	231	1
245	245	1
26	29	3
77	79	2
166	166	1
74	118	1
22	22	1
53	53	2
14	60	1
242	242	4
173	174	1
181	181	1
201	244	2
248	248	1
42	68	2
206	206	1
169	169	4
36	36	1
23	110	1
11	12	1
245	246	2
2	5	1
203	224	2
114	115	1
78	82	1
195	210	1
236	237	1
209	209	1
96	96	2
213	214	2
112	229	1
63	85	1
22	31	1
193	194	1
50	71	1
179	180	1
218	218	2
170	214	1
98	149	1
240	240	1
6	17	1
88	107	1
186	223	1
201	234	1
181	234	1
168	175	1
181	231	2
196	196	1
70	70	1
95	97	1
93	93	2
212	212	2
24	25	1
164	164	1
76	116	1
26	98	1
26	117	1
151	151	1
172	173	1
23	24	1
238	239	1
146	146	1
150	151	1
28	31	1
56	62	1
111	111	1
26	85	1
86	86	1
109	180	1
