12	12	5
109	109	21
94	95	8
119	119	11
76	76	13
122	122	20
64	64	13
112	118	2
13	13	4
124	124	8
125	131	4
10	11	1
43	43	10
8	8	6
29	30	4
114	114	3
58	58	16
33	34	2
2	2	5
16	67	2
95	95	23
103	103	5
42	43	6
55	55	4
6	6	16
54	54	9
50	50	8
23	24	10
22	22	3
72	72	3
26	26	7
113	113	12
81	81	8
30	30	3
18	33	1
58	63	2
109	131	7
108	108	1
62	62	8
87	87	12
24	24	6
68	72	1
100	100	6
17	17	9
2	5	3
132	132	8
10	10	23
28	28	14
65	66	5
105	105	7
84	84	4
0	1	4
106	107	4
78	79	5
78	78	6
0	0	16
126	127	5
104	104	4
77	81	3
80	106	6
111	111	10
123	123	9
85	86	3
44	87	3
19	19	10
71	71	4
41	41	4
66	67	2
53	53	12
26	29	2
104	106	1
96	97	2
7	9	1
69	96	5
32	39	2
49	49	5
67	71	1
57	57	5
130	131	4
72	74	5
96	96	13
7	10	2
99	99	4
90	91	1
14	14	7
130	130	7
15	16	5
7	7	2
119	120	3
125	125	12
63	66	2
5	5	5
67	70	4
89	89	4
21	21	11
77	101	5
46	86	3
15	15	3
61	61	7
3	57	1
87	89	3
94	94	8
42	83	4
90	90	4
56	56	11
107	107	4
103	128	1
72	99	1
69	76	3
70	70	6
114	115	6
2	8	1
73	73	3
129	130	4
15	67	5
41	42	2
9	13	3
49	57	3
68	78	2
32	33	3
15	63	1
25	25	8
88	89	9
28	29	12
19	32	2
52	97	4
42	64	2
18	19	3
29	29	8
112	112	18
111	133	4
76	99	3
42	42	5
4	4	4
97	97	11
59	61	5
67	68	3
40	40	3
77	78	3
8	10	1
23	23	4
25	26	2
131	132	4
72	75	3
40	41	2
120	123	4
1	6	1
64	66	2
69	69	7
27	27	9
14	24	3
27	28	3
15	20	6
105	125	3
117	117	7
38	39	1
85	87	3
0	3	3
65	68	1
91	91	4
47	47	4
43	44	4
11	12	2
51	54	1
89	90	6
129	131	2
2	3	3
105	132	2
120	121	3
128	128	3
44	47	4
46	85	4
6	21	3
17	46	3
46	48	6
32	32	7
28	31	3
74	74	2
133	133	1
93	106	2
79	80	4
7	8	1
3	56	1
38	40	4
68	97	3
83	83	1
44	44	6
120	120	1
71	99	4
48	48	8
80	80	5
63	63	5
79	82	1
38	58	1
75	75	1
19	58	1
55	56	5
19	63	2
69	97	1
8	9	1
120	122	2
95	96	3
52	52	4
76	77	4
120	133	7
95	110	4
128	129	1
93	101	3
73	128	3
105	106	1
11	11	1
54	66	1
57	58	5
91	100	3
47	71	2
86	87	3
65	65	6
68	80	3
118	133	3
131	131	3
79	79	7
3	3	2
26	27	1
12	13	2
20	20	2
17	18	3
94	106	2
118	118	6
16	16	1
82	100	3
82	82	4
104	105	2
7	49	4
86	86	6
60	62	1
66	66	2
48	98	2
59	59	2
127	127	3
103	104	2
75	99	3
93	94	1
126	126	2
126	130	3
33	33	4
1	1	5
48	69	1
85	85	2
102	102	2
68	68	1
81	106	2
19	33	1
92	92	5
60	61	2
9	10	1
5	15	2
69	84	1
123	124	2
93	107	2
43	84	1
97	98	1
110	110	2
31	31	2
63	64	1
74	99	1
42	63	1
18	18	1
17	62	1
53	56	1
104	132	1
100	101	2
60	63	2
104	109	1
16	62	1
43	45	2
44	45	1
113	116	2
22	33	1
86	88	1
58	59	1
4	58	1
46	71	2
124	132	2
46	47	2
102	127	1
51	51	1
98	98	1
45	46	3
118	119	1
46	46	2
108	130	2
77	77	1
93	93	2
16	46	1
88	88	4
109	132	1
39	39	1
121	121	1
115	116	1
103	127	3
107	130	1
17	71	1
39	40	1
62	63	2
88	90	1
27	29	1
14	22	3
34	34	1
75	77	1
95	97	1
15	17	2
105	124	1
19	22	1
4	8	1
92	102	2
45	45	2
20	21	1
47	60	1
116	116	3
73	76	1
117	118	1
110	111	1
72	92	1
16	19	1
108	109	1
47	48	1
