63	87	7
118	120	3
15	17	2
139	139	8
22	22	4
87	88	6
2	40	1
71	71	5
90	91	10
38	38	12
32	34	4
111	122	2
28	28	11
86	134	7
121	133	2
24	35	1
101	101	5
61	61	11
116	134	3
66	66	19
120	131	2
46	46	2
92	113	2
137	137	7
20	22	3
118	131	3
20	30	2
117	126	1
16	16	6
104	128	2
128	129	5
122	135	3
64	65	8
41	123	1
135	135	4
68	69	2
98	98	8
58	125	4
37	91	2
48	48	6
69	94	2
124	124	4
75	77	3
80	80	9
48	66	1
100	103	3
22	27	4
17	17	21
144	144	2
59	59	5
9	31	3
4	9	3
39	39	9
93	93	10
37	38	2
119	119	11
134	139	2
87	87	6
79	79	11
41	43	3
105	107	2
35	35	10
52	55	3
14	24	2
33	79	1
118	118	4
76	79	1
55	77	2
61	66	3
73	79	1
135	138	3
122	133	3
117	117	7
130	130	5
42	42	2
57	57	1
81	81	5
92	92	5
88	111	2
87	102	2
129	129	12
130	138	2
8	8	5
112	112	7
76	76	12
134	144	1
126	126	16
54	54	7
140	140	4
123	126	1
86	96	2
142	142	13
110	110	10
41	41	11
14	14	8
102	102	6
31	31	5
62	65	7
3	5	2
27	27	5
126	143	2
120	132	1
120	130	4
129	130	5
23	23	1
127	132	5
63	63	3
96	96	6
32	32	3
96	100	1
18	18	9
62	63	3
74	74	5
91	104	2
51	110	1
86	86	5
51	84	6
97	97	10
103	103	2
9	10	1
50	73	2
97	106	4
79	82	3
128	132	4
110	115	5
65	66	6
65	65	9
70	70	6
50	116	1
127	136	1
47	93	2
132	135	5
135	140	1
88	94	2
67	69	1
11	11	8
64	86	2
134	134	5
118	119	1
120	120	12
91	101	3
67	67	8
93	94	8
72	72	12
91	102	1
78	78	16
20	40	2
80	81	2
116	116	3
72	95	1
87	133	4
144	145	1
13	13	8
85	85	5
69	71	4
2	3	3
42	88	4
43	114	1
82	82	6
114	114	4
38	42	4
105	108	2
78	79	2
0	3	1
23	30	2
111	127	1
110	132	1
119	131	1
113	113	3
86	89	1
99	99	5
109	109	3
91	91	2
94	94	6
9	9	11
95	102	2
0	10	3
70	73	1
117	139	4
67	68	6
22	30	1
122	122	3
111	111	6
12	13	2
140	143	3
15	16	4
133	133	3
86	124	3
24	27	2
131	131	9
88	89	2
2	19	2
40	41	7
26	33	1
21	22	4
123	135	6
71	72	3
105	105	4
58	58	6
71	77	1
24	33	1
15	15	3
143	143	4
49	49	6
1	2	2
101	102	3
95	95	6
32	33	3
5	22	3
125	130	2
21	25	1
12	12	10
106	106	3
54	66	1
17	30	1
104	104	3
56	80	2
0	0	3
33	33	7
92	93	1
64	96	2
75	75	1
6	10	2
79	80	2
66	74	2
20	20	9
111	129	1
97	98	1
37	37	6
48	51	4
108	109	1
28	31	3
33	37	2
132	132	9
24	32	2
68	68	5
114	117	4
90	122	3
135	136	6
53	55	1
116	136	2
84	84	2
121	121	5
92	98	1
141	142	2
109	115	1
29	29	11
1	3	2
25	25	1
39	41	1
87	91	3
23	35	1
47	85	1
97	104	4
28	33	1
65	72	3
27	35	3
13	14	5
56	71	3
88	88	6
36	36	3
5	5	3
64	64	2
19	20	1
55	55	7
2	2	10
77	78	4
136	136	4
141	141	5
127	137	1
117	136	1
50	66	3
23	26	1
17	26	3
47	47	7
31	47	1
24	24	6
13	34	1
108	112	3
28	68	1
53	53	4
118	123	4
58	62	2
33	36	2
93	126	1
140	141	2
119	121	2
48	84	3
2	4	1
24	34	2
19	19	9
73	83	4
66	70	2
89	89	6
14	36	1
29	30	2
76	80	3
99	100	5
40	40	2
77	85	2
104	135	1
42	89	1
85	132	3
138	139	1
36	37	4
128	140	1
80	133	3
10	10	2
31	91	3
128	128	6
4	4	7
3	11	3
51	52	1
91	100	2
107	107	3
106	107	2
21	23	3
73	73	3
80	85	3
60	61	2
42	87	1
128	133	1
71	80	3
93	125	1
115	115	2
92	100	4
131	132	1
123	124	1
23	24	1
26	26	5
113	133	1
62	64	3
127	133	2
56	56	1
51	73	1
136	140	3
108	111	1
110	126	2
119	120	2
75	76	1
60	60	2
18	20	4
134	138	1
30	30	8
2	20	1
51	51	4
143	144	1
117	119	1
127	130	1
59	62	2
34	34	6
86	133	1
123	123	3
139	140	2
31	33	1
48	49	1
89	110	1
77	77	4
53	56	1
87	105	2
29	31	1
112	127	1
88	101	1
89	90	1
74	125	1
33	34	1
103	111	1
91	95	1
63	69	3
6	9	1
90	90	1
53	62	1
113	116	1
89	111	4
125	134	2
51	59	1
134	137	1
116	120	2
96	107	3
3	35	4
116	117	3
20	35	1
120	129	1
108	108	6
28	32	1
80	122	1
51	54	1
142	144	2
51	56	1
50	52	1
5	25	1
21	91	3
91	112	3
79	114	2
14	20	1
77	86	2
119	133	2
24	25	4
99	117	1
4	5	2
71	75	2
58	59	4
69	125	2
67	74	4
119	132	1
88	91	1
80	132	4
128	130	1
145	145	1
22	35	1
39	40	1
115	116	1
18	19	1
69	69	1
56	76	2
18	41	1
34	36	1
83	83	1
134	136	1
60	71	1
131	134	1
113	114	1
114	116	1
136	138	1
35	36	1
75	79	1
0	1	3
5	23	2
92	126	1
91	94	3
124	133	1
49	57	1
43	43	1
127	127	2
101	120	1
135	143	1
50	57	1
55	80	1
130	136	1
79	96	1
28	29	1
69	70	2
55	56	1
127	129	1
53	54	2
55	58	1
128	131	1
14	39	1
107	108	1
124	135	1
100	101	1
1	1	2
91	93	1
120	133	1
50	74	1
77	84	1
72	77	1
111	119	1
118	128	1
2	35	1
125	125	1
25	32	1
101	105	1
68	94	1
43	111	1
25	111	1
