75	77	6
73	110	1
81	82	5
18	18	7
82	82	3
23	23	8
30	30	3
90	91	2
100	100	4
124	126	3
84	91	1
103	103	5
138	138	6
14	14	4
71	72	1
5	5	5
16	129	1
11	11	2
75	75	5
20	20	11
28	32	3
74	74	7
9	9	3
71	71	3
93	93	2
8	14	3
101	102	2
77	77	10
131	131	6
77	124	1
37	37	2
12	31	3
95	95	2
12	12	3
106	106	3
35	36	1
104	106	4
85	104	3
7	8	4
5	8	2
22	25	3
33	33	10
101	101	4
85	85	4
35	38	3
128	128	3
28	28	3
98	98	5
127	130	2
136	139	3
135	135	12
119	119	12
9	29	3
87	90	5
105	105	3
19	20	2
25	25	4
83	83	5
7	7	4
118	122	1
88	90	2
102	103	3
17	17	11
34	34	3
74	78	2
80	80	2
81	85	1
10	11	1
26	26	1
76	77	1
3	5	1
21	28	1
132	132	8
113	113	1
6	8	3
108	108	2
115	115	6
21	21	4
119	124	1
94	104	1
110	111	3
97	97	2
21	120	2
72	96	1
16	16	4
130	130	2
107	107	2
140	140	4
86	86	6
81	81	3
84	86	4
20	21	1
8	8	3
23	24	2
78	78	6
119	120	4
9	13	1
102	102	2
35	35	5
127	128	2
80	86	4
0	0	2
18	19	1
36	36	3
111	113	2
1	10	1
13	21	2
118	119	5
112	112	1
111	111	4
79	80	1
13	14	2
32	32	4
29	30	1
1	120	1
109	109	5
22	22	3
120	121	2
93	106	1
99	99	7
31	31	2
35	72	1
118	118	4
124	124	5
115	118	3
24	24	2
87	87	4
92	96	1
1	1	3
15	15	1
105	108	1
88	102	1
76	76	5
88	91	1
120	123	1
4	17	3
93	94	4
92	106	1
74	75	3
77	83	1
93	101	2
76	78	1
24	106	2
27	27	3
104	104	2
5	40	1
9	12	2
16	37	3
19	19	4
84	84	4
139	139	1
134	134	2
135	138	2
73	73	3
89	105	1
44	44	2
120	120	3
88	88	3
16	17	5
99	100	1
97	103	1
79	79	3
92	92	1
80	104	3
6	6	2
38	38	3
77	102	3
2	3	2
107	108	3
102	120	1
129	129	1
31	34	2
128	131	1
11	22	1
80	81	2
13	16	1
95	107	1
10	10	2
3	3	2
105	106	2
102	104	1
123	123	3
127	127	2
113	117	1
96	97	1
37	79	1
84	117	1
108	112	2
109	131	1
17	18	3
10	21	1
78	102	1
136	136	1
101	110	2
125	126	1
114	116	1
37	38	1
89	89	2
69	129	1
96	96	1
83	85	3
4	4	1
13	13	5
18	114	3
116	116	3
116	117	1
91	109	1
72	75	1
104	105	3
93	115	1
90	105	2
2	2	4
130	132	1
19	28	1
95	101	2
94	94	2
4	128	1
22	28	1
10	29	1
83	84	1
133	133	2
9	11	1
130	131	1
114	114	1
30	31	1
10	15	1
122	124	1
106	107	1
13	17	1
91	101	1
1	5	1
78	81	1
9	16	1
89	109	1
102	107	1
90	90	1
100	103	1
89	90	1
25	26	1
1	3	1
117	117	1
71	131	1
127	129	1
23	115	1
25	115	1
87	91	1
73	119	1
17	31	1
