141	141	12
100	125	2
123	123	4
160	160	3
97	99	2
25	25	1
151	151	4
102	104	1
108	109	7
73	73	2
87	169	2
1	45	1
152	153	6
14	14	4
56	56	3
68	162	6
138	139	3
39	41	1
16	16	4
139	158	2
150	150	6
10	10	3
46	46	2
37	37	8
131	131	2
105	106	3
166	166	5
76	76	11
161	161	1
109	116	1
21	21	8
116	116	3
126	126	7
119	119	8
15	15	3
64	159	1
118	146	5
0	0	2
8	8	2
118	118	8
110	110	1
129	163	1
101	101	7
82	83	3
43	43	1
77	77	2
102	102	4
5	5	7
40	40	7
7	7	1
142	142	6
97	97	3
63	63	2
89	89	5
96	107	1
95	95	6
157	157	3
105	105	9
28	28	6
21	22	4
154	154	10
7	10	4
98	98	7
9	9	3
62	87	2
85	86	3
44	53	2
86	87	1
113	145	3
11	139	4
133	133	5
135	155	5
35	36	6
20	24	4
74	74	1
88	88	3
2	3	2
55	55	6
94	145	3
96	108	4
109	109	5
156	156	1
138	138	6
135	135	2
45	45	1
114	114	4
17	22	2
101	124	1
11	12	3
143	143	3
4	4	10
86	86	6
22	22	2
48	48	2
91	143	4
129	129	4
9	10	2
106	106	4
41	42	3
19	23	2
101	109	3
96	126	2
107	108	2
71	72	3
133	134	1
107	112	2
144	144	7
154	155	1
94	102	3
39	40	6
155	156	2
33	34	2
94	126	2
72	72	1
137	137	15
129	149	1
130	130	1
97	108	1
122	122	6
4	48	2
47	52	2
155	155	3
149	149	9
81	82	2
139	142	1
57	57	1
2	2	1
159	159	7
101	126	1
70	91	1
122	126	2
138	140	2
103	103	3
104	104	4
27	27	7
120	128	1
8	9	2
124	126	1
50	50	4
117	117	4
124	124	1
17	17	4
145	148	2
7	51	1
66	137	2
78	78	4
1	44	2
83	83	1
5	57	1
108	108	3
135	156	1
99	99	3
72	73	2
42	42	14
27	28	2
85	87	2
23	23	2
17	18	2
19	19	1
7	9	1
20	20	7
18	24	1
140	141	2
64	65	2
111	111	2
44	44	2
34	34	3
100	100	1
66	69	2
79	80	3
146	146	2
10	41	2
67	67	2
132	132	1
169	169	7
160	166	3
91	93	3
87	88	1
155	163	1
147	148	4
12	12	1
26	27	4
47	47	2
91	108	2
95	96	3
39	39	2
2	52	2
74	79	1
71	90	5
24	25	1
35	35	4
66	66	4
128	128	1
13	15	1
38	54	1
24	24	4
134	134	7
75	75	1
158	159	5
164	164	2
114	155	3
149	166	1
58	61	1
145	165	4
121	121	1
136	136	2
7	8	3
81	81	2
13	13	4
83	84	1
155	158	1
148	149	2
41	41	4
74	75	1
162	162	1
107	107	6
123	124	1
51	56	1
94	108	2
156	157	1
104	105	1
26	26	1
114	144	4
65	69	2
8	50	1
3	4	1
68	69	1
21	24	2
152	152	2
89	91	1
147	147	3
11	11	3
3	3	2
4	5	2
163	163	3
77	80	1
130	131	2
13	58	1
47	48	2
25	26	1
64	69	1
17	25	1
113	113	1
26	74	3
70	70	3
167	167	2
36	36	1
78	79	1
126	129	1
6	13	1
17	58	1
111	114	1
134	155	1
125	126	1
132	133	1
168	168	1
0	1	1
117	132	2
38	41	1
46	47	1
112	112	2
113	134	1
18	18	2
70	90	1
94	144	1
135	136	1
4	52	1
5	22	1
38	38	3
7	57	2
72	89	1
68	68	1
134	135	1
91	91	1
125	127	1
113	133	1
149	150	1
62	62	1
38	39	1
49	49	1
100	101	1
69	160	1
131	132	1
110	117	1
73	74	1
148	148	1
145	145	1
