174	174	6
171	171	6
163	188	2
83	89	2
146	147	1
124	181	2
5	5	2
157	158	5
110	110	3
103	103	12
108	108	7
141	141	5
3	77	1
26	26	8
24	24	3
177	177	6
45	45	4
134	134	3
8	8	1
120	130	3
111	112	2
56	56	12
63	63	4
88	94	3
113	113	5
106	106	6
82	82	8
99	116	2
67	67	3
66	66	2
175	176	4
56	116	1
29	29	4
153	153	4
13	15	5
73	74	3
88	88	9
48	48	10
85	85	8
55	116	1
144	144	2
147	148	1
3	6	2
140	140	3
60	60	4
37	37	4
44	44	4
71	71	1
158	158	5
42	42	6
152	152	7
131	166	3
25	25	3
61	62	1
54	57	4
23	37	1
114	114	10
40	40	2
25	114	4
115	117	1
84	84	4
183	183	7
94	104	1
64	64	1
54	55	2
116	116	2
146	146	3
21	23	1
9	22	1
138	138	4
2	2	5
125	125	6
187	187	2
78	78	16
166	174	2
100	101	4
123	125	3
156	156	1
18	177	2
184	184	2
160	160	4
27	28	3
61	61	2
67	107	4
58	59	3
150	162	1
92	93	1
162	165	1
74	75	1
130	133	1
111	111	3
188	188	2
103	111	4
65	67	1
63	169	2
145	145	4
26	84	4
102	102	2
109	152	2
123	123	3
166	168	1
87	87	8
90	90	1
117	117	1
162	162	6
16	90	3
46	46	4
156	162	3
154	155	1
124	127	1
151	151	2
139	154	1
186	186	1
77	77	9
135	135	2
109	151	2
19	19	3
25	77	5
25	26	1
78	79	2
34	34	1
95	114	1
182	182	7
62	65	2
117	119	2
16	16	2
139	139	2
127	160	1
129	129	1
171	172	3
41	41	3
85	120	2
126	183	5
130	130	4
101	101	2
155	155	2
120	120	2
93	93	1
15	40	1
23	23	2
164	167	1
1	2	3
56	74	1
47	47	4
164	164	1
157	157	1
4	25	2
170	170	1
181	181	1
45	47	3
15	16	2
73	120	2
4	4	2
172	172	3
24	49	1
132	132	4
58	58	2
120	136	1
49	49	1
147	147	1
148	148	1
92	92	2
131	131	2
6	6	5
115	115	1
18	44	4
90	109	1
96	96	3
180	180	4
99	101	3
38	38	3
62	63	4
149	155	1
53	56	3
161	161	3
91	92	5
59	60	3
185	185	2
121	173	1
120	174	1
104	104	3
162	163	1
97	97	1
63	170	2
28	29	1
23	24	1
165	165	2
179	179	1
166	166	1
91	91	3
158	178	1
112	112	2
54	54	1
72	72	1
93	107	1
176	177	1
118	119	2
128	128	2
52	78	1
136	137	1
137	137	3
70	71	1
123	124	1
118	118	3
85	86	1
142	143	2
57	60	1
17	17	3
159	160	1
76	76	3
88	89	1
34	36	2
167	167	1
79	79	1
127	127	2
10	11	1
57	57	1
155	156	1
39	39	1
81	82	1
80	87	1
95	95	1
38	39	2
53	53	1
166	180	2
175	175	1
84	85	2
32	32	1
110	146	1
86	87	1
154	154	1
52	52	1
9	37	1
56	57	3
109	113	1
21	21	1
68	115	3
13	13	1
94	114	1
136	136	1
166	167	1
26	30	1
1	1	1
16	167	1
96	97	1
126	126	1
109	109	1
19	44	1
64	167	1
14	14	2
127	128	1
189	189	1
75	83	1
18	18	2
28	78	1
125	151	1
145	146	1
145	166	1
133	133	1
28	28	2
165	174	1
33	33	1
30	31	1
68	68	1
125	126	1
94	95	1
156	157	1
177	181	1
