182	183	3
151	151	4
180	183	1
197	197	3
216	217	1
15	15	2
181	181	4
71	75	3
80	81	2
28	29	6
207	208	7
172	173	2
120	120	6
208	213	1
178	179	5
135	135	4
3	24	1
74	74	4
156	156	1
13	13	1
150	151	1
65	67	1
217	218	4
199	202	2
137	166	3
167	167	1
28	28	1
11	11	2
141	142	2
223	223	4
95	105	1
183	183	2
17	17	3
221	221	1
157	157	6
30	31	2
239	239	1
204	204	5
81	82	6
241	242	3
169	170	1
55	55	6
179	179	2
168	169	3
152	152	6
128	128	2
29	34	1
236	236	2
237	237	2
16	16	1
170	170	1
225	225	6
233	233	2
98	98	3
203	203	2
232	232	2
175	175	3
59	59	1
142	143	1
242	242	2
234	235	1
32	32	3
198	200	1
171	172	2
178	178	3
18	18	3
122	122	2
240	240	4
12	12	1
231	231	3
178	181	5
14	14	7
138	139	3
47	47	1
227	227	3
67	67	6
4	7	2
131	131	3
136	137	2
149	149	5
26	26	5
147	149	1
45	45	2
217	217	7
7	8	1
4	4	2
190	190	1
44	54	1
36	36	4
185	185	3
2	2	5
51	51	1
209	230	1
207	207	1
103	105	1
115	115	2
43	43	1
236	237	3
235	235	3
183	187	1
173	173	4
198	201	4
29	29	3
28	33	2
171	171	3
164	164	3
6	22	2
168	168	1
140	142	2
155	155	2
134	134	2
205	207	1
165	166	2
158	167	3
118	135	1
101	101	4
186	187	1
165	165	1
26	28	1
137	137	2
137	158	1
222	223	5
161	161	2
3	3	6
114	114	1
224	224	4
48	48	1
9	231	1
142	142	1
19	19	3
50	50	3
72	72	3
46	46	3
154	154	2
0	224	1
138	144	2
173	174	4
70	70	3
127	128	3
219	219	1
174	175	2
210	210	3
61	62	2
202	202	5
240	242	2
154	155	1
73	73	3
24	24	2
212	217	1
172	172	1
140	144	1
26	27	1
85	85	2
100	100	1
146	147	1
10	11	1
119	122	2
4	224	1
139	151	3
188	188	2
146	146	2
16	22	1
76	76	5
195	195	2
39	40	1
108	108	1
55	56	2
139	139	2
205	205	2
213	213	3
115	117	1
186	186	2
1	1	3
121	121	2
41	41	1
127	134	1
156	169	1
48	240	1
147	148	2
228	229	1
163	164	2
65	66	1
192	192	2
30	30	1
9	232	1
39	43	2
207	209	3
128	132	1
12	22	1
27	27	1
62	62	1
99	99	1
42	42	2
49	49	2
117	117	1
177	178	2
54	55	2
160	160	1
162	164	2
106	106	3
179	180	2
13	15	2
187	187	2
39	39	3
77	78	2
12	16	1
220	220	1
166	166	1
56	57	1
79	124	1
158	158	2
54	54	2
162	172	1
210	230	3
135	162	1
183	184	1
229	229	1
15	16	1
205	206	1
191	192	2
109	109	1
54	234	2
27	28	1
180	181	1
4	6	2
38	208	1
29	32	1
68	68	1
168	185	1
161	182	1
13	14	1
120	183	2
82	82	2
37	38	1
196	206	1
174	174	3
75	75	1
54	56	1
66	67	1
143	144	1
206	206	1
9	208	1
20	20	2
180	180	1
12	21	1
160	161	1
7	22	1
222	222	1
162	163	1
28	34	1
59	60	1
193	194	1
