102	102	3
54	54	10
33	77	2
27	27	4
91	91	6
40	41	7
74	74	5
42	42	4
110	110	1
43	44	8
59	59	8
105	106	2
46	47	1
83	83	3
36	36	3
113	113	3
54	57	2
36	42	2
93	94	3
51	51	6
61	61	7
86	86	15
62	88	3
93	95	3
80	80	4
19	20	6
53	53	11
77	77	5
63	63	8
90	91	5
105	105	3
52	52	11
97	97	3
95	95	4
25	25	10
62	63	3
47	48	3
20	20	3
101	101	15
40	74	1
47	111	5
51	52	7
103	103	10
60	60	4
93	93	16
92	92	4
82	82	6
54	55	7
38	38	3
65	66	4
28	86	4
99	99	3
82	84	1
107	107	8
40	40	16
104	104	9
88	89	3
104	105	3
88	88	2
79	109	3
100	101	2
33	33	11
64	65	4
56	56	1
76	76	4
26	26	7
21	21	11
34	34	6
28	28	4
31	31	8
46	46	8
48	98	2
40	78	2
69	69	1
45	45	7
79	91	3
101	102	3
29	29	17
73	73	4
37	80	2
68	68	3
72	75	4
78	78	4
81	85	1
43	43	2
65	65	7
74	77	1
67	67	3
79	79	9
106	107	3
69	73	4
55	55	9
30	30	7
98	98	2
106	108	5
78	79	4
84	92	5
109	109	4
61	62	1
72	73	5
59	60	3
41	41	5
111	111	10
90	90	8
24	24	3
39	40	3
64	64	3
94	94	5
106	106	5
85	85	3
32	32	3
110	111	6
100	100	3
19	19	2
53	54	5
70	73	3
48	48	6
49	49	5
31	32	3
101	103	1
89	90	2
30	100	3
71	71	3
50	51	1
22	22	2
99	100	2
67	69	4
73	74	1
109	110	3
39	39	8
81	82	3
42	43	2
94	96	1
66	66	3
35	35	5
48	49	2
21	24	2
101	105	2
72	72	4
75	76	2
24	25	4
39	44	3
44	44	1
67	72	2
108	109	1
79	87	1
30	113	2
62	62	4
70	108	1
87	87	2
71	72	4
47	97	1
38	57	1
69	70	3
20	113	2
77	78	1
75	75	9
45	47	1
34	82	2
57	57	2
21	54	1
114	114	2
49	50	1
68	70	1
92	93	2
98	99	2
73	82	1
63	72	1
105	107	1
66	68	2
45	64	1
111	112	2
80	81	1
83	85	1
81	81	1
108	108	1
33	37	1
103	104	1
33	101	1
86	87	1
97	99	2
65	67	1
19	109	1
41	54	2
84	84	2
88	91	1
39	61	1
24	95	1
98	102	2
53	60	1
32	33	2
77	111	3
44	45	1
41	42	1
103	105	2
74	75	2
81	102	1
96	106	1
21	27	1
66	93	1
96	96	1
