11	11	9
20	22	2
105	105	8
7	7	15
29	30	4
114	114	10
23	23	7
130	130	6
77	85	1
39	42	4
108	108	6
93	94	5
48	49	5
45	46	4
16	16	14
58	58	6
31	31	4
96	96	8
115	115	8
13	13	6
89	89	7
62	72	1
65	65	11
131	131	5
122	122	13
70	70	13
46	46	7
33	57	3
106	106	10
11	12	8
68	68	13
60	62	2
60	60	3
48	48	11
14	15	5
94	95	5
50	52	1
93	93	10
2	5	1
77	78	4
51	51	2
9	18	2
12	13	4
50	50	3
85	85	12
5	5	7
99	102	1
115	117	6
29	29	5
103	103	5
55	55	10
14	14	7
18	18	9
87	87	10
63	64	8
57	57	5
6	6	16
125	125	6
14	43	2
88	89	5
129	130	3
12	12	9
124	125	6
116	116	9
46	47	9
118	118	12
127	131	2
27	27	2
50	51	9
103	126	1
40	41	9
44	44	11
92	92	17
102	102	12
19	19	2
99	99	5
80	80	9
30	30	5
128	128	3
3	3	11
78	79	5
42	43	3
2	57	4
109	109	8
21	22	8
28	28	6
107	107	5
2	2	4
100	100	6
95	95	5
71	71	14
24	24	5
17	18	5
84	84	3
17	17	6
42	42	3
104	120	3
53	53	7
9	10	3
54	54	13
44	45	6
32	32	10
126	126	6
52	53	3
71	72	1
112	112	5
126	127	2
124	124	12
105	125	2
33	34	3
39	39	9
69	69	8
67	67	8
82	82	9
123	123	5
8	8	4
115	116	11
10	11	3
128	129	3
72	73	5
133	133	2
19	20	2
76	77	1
112	113	3
120	120	9
121	121	4
22	22	3
70	71	1
90	95	3
114	115	2
31	32	2
18	19	5
113	113	6
68	69	2
60	61	5
73	74	2
5	33	5
4	4	13
87	88	3
38	40	4
64	65	3
79	79	8
111	111	11
127	128	6
7	26	1
26	27	3
82	95	1
83	84	1
97	99	1
116	117	8
81	81	6
94	94	1
34	34	3
119	119	8
9	9	4
77	77	7
69	73	5
67	68	2
10	10	9
58	59	6
56	56	2
78	78	1
101	101	2
61	61	2
59	59	10
125	132	1
26	29	3
104	119	4
15	15	3
22	38	6
110	111	3
13	14	1
49	49	13
105	118	1
25	25	2
98	98	9
27	28	3
86	87	1
39	44	2
98	99	3
104	104	5
108	109	2
73	73	2
72	72	2
53	56	2
75	84	2
61	62	3
66	75	7
40	40	5
20	20	3
74	75	2
75	76	1
33	33	3
83	115	1
127	127	2
110	110	8
2	4	1
119	120	1
7	32	2
97	97	6
104	125	3
64	64	1
41	41	5
83	116	2
23	24	2
82	93	1
25	26	2
85	97	2
117	117	1
120	121	2
86	86	2
107	108	3
81	83	1
56	69	1
40	42	1
90	129	3
75	75	3
56	57	3
102	103	2
66	66	2
88	95	2
47	47	6
62	62	1
129	129	2
132	132	4
76	85	1
37	59	1
83	83	1
91	91	2
52	52	7
39	40	3
53	54	1
105	106	2
76	76	5
24	25	2
43	43	4
3	4	1
92	93	2
44	46	1
89	92	2
32	34	1
56	71	1
88	88	4
63	63	3
1	1	3
31	34	1
43	55	2
107	118	1
85	86	4
33	56	2
114	121	1
23	29	1
21	28	3
45	45	1
23	27	2
52	111	1
108	117	1
108	121	2
125	130	3
41	42	3
89	99	3
87	89	1
65	66	1
57	58	1
38	54	1
111	112	1
18	43	1
96	97	1
91	99	1
20	41	1
1	2	1
56	70	1
44	47	1
70	74	1
26	31	1
17	28	1
66	67	1
9	21	1
65	75	1
96	102	1
22	23	1
65	86	1
114	124	1
49	53	1
125	126	1
118	121	1
