177	178	1
178	201	3
49	50	3
204	204	8
183	184	1
211	211	3
4	45	2
36	36	3
83	84	9
175	175	4
68	118	4
28	28	7
188	196	3
3	3	8
4	58	7
52	53	1
235	235	1
230	230	3
115	116	1
210	211	7
7	7	1
223	223	5
57	57	5
79	80	4
109	109	8
70	71	1
98	98	3
41	54	2
189	190	2
41	41	4
150	150	11
31	32	4
175	177	1
189	216	2
247	249	3
111	111	10
213	213	6
100	100	5
46	46	5
87	87	3
226	239	3
17	17	9
19	19	11
178	179	2
94	106	4
247	247	8
71	71	1
21	21	5
63	63	4
164	164	5
48	50	3
112	112	5
96	97	1
15	15	5
120	120	3
191	198	1
180	213	2
207	207	3
87	88	2
200	200	10
168	168	11
63	64	1
72	72	6
158	166	3
200	201	1
60	61	4
61	61	8
194	248	3
194	198	2
165	199	1
78	80	2
205	206	5
181	183	5
154	155	1
155	155	7
221	221	6
108	108	2
232	232	10
238	239	6
68	97	1
203	203	3
47	47	4
176	185	1
16	16	4
208	208	6
209	209	7
86	86	2
81	82	1
158	163	2
151	151	8
156	156	9
185	186	4
205	205	2
34	34	5
93	195	3
167	235	3
184	213	3
163	163	3
113	113	3
26	42	8
227	228	6
242	242	2
168	169	5
193	197	2
216	218	2
72	111	2
237	237	5
241	241	2
226	226	6
42	42	6
225	225	2
178	178	11
239	239	6
117	118	2
14	14	8
202	229	2
229	229	7
18	18	3
244	244	6
199	199	8
178	192	2
78	78	4
146	146	1
216	216	2
104	104	4
219	219	4
60	60	1
114	114	2
171	171	3
232	233	10
77	77	2
76	76	3
145	145	5
179	206	2
153	153	1
195	195	5
73	108	3
165	165	5
104	109	2
4	65	1
18	25	6
161	164	3
150	210	1
149	185	3
49	49	13
200	232	3
98	119	1
62	62	4
96	96	1
1	1	1
201	223	1
12	97	2
82	82	1
186	186	4
41	230	3
20	37	2
26	26	2
119	119	3
172	215	1
84	84	4
233	233	1
170	175	1
228	228	9
50	50	7
214	215	1
194	194	3
42	116	3
32	46	1
59	61	1
70	70	3
217	217	1
169	170	5
4	34	1
237	247	3
234	236	6
81	83	1
201	201	1
42	90	3
44	44	4
231	231	2
176	176	7
99	99	2
6	6	3
45	200	2
34	105	2
92	101	2
38	38	3
173	173	2
241	242	5
3	14	1
103	103	3
238	238	4
149	177	2
21	22	1
7	52	1
248	248	5
116	116	5
177	181	4
70	97	2
46	47	1
245	246	1
208	209	3
59	60	4
100	208	1
20	20	5
227	244	1
226	241	1
1	22	1
182	182	2
164	165	1
9	44	2
32	32	4
91	92	3
183	183	1
86	151	3
45	45	3
25	39	4
33	117	3
104	105	2
150	167	2
227	227	4
159	159	2
11	25	1
53	174	1
15	52	1
37	38	1
40	40	3
177	177	4
88	88	3
247	248	3
110	110	2
106	106	6
8	9	2
48	65	3
15	35	1
206	206	2
181	181	1
178	199	2
191	199	2
34	35	1
153	155	1
157	213	1
67	67	3
236	237	2
65	65	1
167	169	2
240	240	1
2	4	1
152	152	3
85	156	1
172	174	2
43	44	1
30	30	3
85	85	1
13	14	1
87	94	2
173	182	1
21	238	2
83	83	2
173	174	5
198	198	3
159	196	3
229	233	1
37	37	2
90	90	2
66	78	1
151	152	2
222	223	3
69	112	1
25	25	3
11	52	4
39	39	3
2	3	1
216	219	1
18	19	2
168	202	2
44	116	1
159	163	1
52	52	1
25	43	2
160	160	4
65	100	4
37	62	1
211	212	1
218	218	4
192	197	1
193	194	1
184	184	3
68	98	2
32	54	1
197	214	1
114	115	3
167	167	1
1	59	1
27	29	1
3	162	2
88	97	1
188	188	2
15	116	1
72	75	1
212	212	2
215	215	1
170	176	1
70	72	1
107	107	3
99	107	2
33	33	1
205	230	2
33	39	1
196	196	2
53	53	2
187	190	1
157	157	2
59	59	3
214	218	1
8	8	1
66	66	2
158	158	1
93	93	1
179	226	1
27	27	1
11	12	1
43	43	1
36	37	1
98	104	3
35	36	1
153	154	1
11	11	1
62	63	1
30	31	1
167	216	1
216	217	1
224	224	1
148	158	1
74	74	1
88	103	1
33	44	1
214	214	1
