79	92	1
7	9	1
10	15	2
77	78	7
123	123	3
92	110	1
0	0	2
18	18	5
121	122	3
135	135	5
90	90	10
21	21	4
1	38	1
76	76	7
89	89	8
94	100	1
91	91	3
133	134	4
119	122	4
108	109	6
96	96	3
77	77	3
102	102	24
19	20	3
114	125	1
78	81	1
11	11	4
9	24	1
108	108	1
122	122	3
122	124	2
133	133	5
85	85	3
112	113	4
7	7	9
73	73	3
29	31	6
114	115	1
2	2	6
107	107	4
81	81	6
72	72	4
88	89	1
23	23	9
10	10	4
112	120	4
119	125	2
32	32	1
124	125	4
118	119	4
83	96	3
4	4	10
113	113	3
24	24	13
98	98	4
13	14	3
14	33	2
103	103	4
6	23	5
91	94	1
13	13	4
20	24	2
101	121	2
28	32	1
106	106	6
36	36	1
3	7	2
29	29	4
95	97	2
80	80	7
78	79	10
35	77	2
25	26	1
77	92	1
4	22	1
118	124	1
32	33	2
123	124	4
71	71	7
9	9	5
15	26	3
95	96	1
126	126	7
25	25	10
136	136	3
5	36	2
120	120	7
6	12	1
78	78	4
130	130	2
3	3	6
112	125	2
115	118	1
132	132	7
20	20	7
19	19	6
2	38	3
83	105	2
87	87	3
129	130	3
124	124	4
101	101	4
33	35	1
95	95	4
109	124	2
137	137	6
16	17	2
138	138	2
73	97	2
85	103	4
86	86	2
17	18	2
27	27	8
21	22	5
92	107	2
111	111	1
88	88	2
121	124	6
121	123	3
75	75	3
93	106	1
12	12	8
11	26	2
26	26	6
118	130	4
21	37	1
92	92	2
116	116	6
125	125	2
19	37	1
94	109	1
30	31	1
12	27	1
76	77	2
16	16	3
117	117	7
134	135	3
84	121	2
84	84	3
112	112	6
127	127	3
118	123	1
128	128	3
93	93	2
29	30	1
22	23	2
81	93	3
76	105	1
16	26	1
7	13	1
74	80	3
77	89	1
80	82	2
20	22	1
81	83	1
91	101	1
84	86	1
3	4	1
81	94	2
3	18	1
86	91	1
89	90	2
37	37	4
131	131	3
19	22	1
3	9	1
106	110	2
75	80	2
22	24	2
18	20	2
128	129	2
7	22	2
107	111	1
127	129	3
130	132	3
94	94	3
1	1	2
4	8	2
82	82	2
124	128	2
80	91	1
23	32	1
35	36	2
8	16	4
122	127	4
37	38	2
118	127	4
30	30	5
98	100	1
78	86	1
92	109	1
92	93	1
76	79	2
14	14	2
10	12	1
74	74	3
95	102	1
34	35	3
140	140	2
72	97	1
9	10	1
87	103	2
107	114	3
100	111	3
118	120	1
119	119	3
34	34	5
87	88	1
129	129	3
118	122	1
84	117	1
97	113	2
97	122	1
113	125	2
3	22	1
80	86	1
8	9	2
107	113	1
107	116	1
116	117	1
4	73	1
38	38	1
17	19	2
109	109	1
3	21	1
130	131	1
19	28	1
9	25	2
36	38	2
117	129	1
97	97	3
100	101	2
108	110	1
135	136	2
31	33	1
5	8	1
83	85	1
19	21	1
118	118	2
110	110	2
112	115	2
104	104	1
16	20	1
8	12	1
85	95	1
85	104	1
97	116	1
117	131	1
126	130	1
94	96	1
29	37	1
73	77	1
113	127	1
107	110	2
111	113	1
100	112	1
110	111	1
100	115	1
103	104	1
98	128	1
5	19	1
35	35	1
93	94	1
119	130	2
90	100	1
127	128	2
101	103	1
7	23	1
10	11	1
109	133	2
72	75	1
17	37	1
115	120	1
6	9	1
85	89	1
8	34	1
79	80	2
19	91	1
84	99	1
17	17	1
0	1	1
27	78	1
102	103	1
2	8	1
8	8	1
126	127	1
106	107	1
2	9	1
2	3	1
17	33	1
