129	129	11
106	139	4
143	146	2
73	96	3
30	32	3
36	55	4
21	31	2
135	135	3
4	4	15
131	131	8
135	146	2
80	80	3
67	83	3
134	134	1
144	148	1
27	28	2
77	96	1
137	137	8
145	145	3
23	44	5
100	102	2
70	70	5
132	133	3
113	113	7
114	151	1
87	87	5
121	121	5
8	27	3
12	15	7
96	100	4
4	34	7
3	3	7
44	57	5
35	36	3
112	139	1
142	142	6
20	21	2
138	138	6
127	151	2
97	97	4
65	65	8
17	43	1
109	124	3
98	119	2
150	150	3
95	113	1
149	154	3
36	36	5
96	96	6
108	109	2
153	153	6
117	152	3
140	140	6
25	25	7
114	149	3
29	29	3
6	7	3
6	11	3
15	15	5
110	110	3
148	151	4
8	9	7
107	107	7
93	106	3
33	36	6
44	45	2
84	84	14
63	87	3
41	45	2
48	48	6
83	84	4
6	22	2
99	99	3
38	38	5
148	148	9
104	104	4
90	90	3
126	126	3
33	37	3
75	81	7
143	150	2
81	90	4
115	145	1
99	121	1
79	121	2
8	31	4
114	114	6
53	53	5
124	129	2
120	122	4
115	116	4
43	43	1
128	128	9
125	136	4
74	74	1
92	121	1
42	118	1
9	9	6
117	120	2
6	6	3
64	64	5
7	7	5
11	14	2
32	32	5
112	112	7
47	88	3
133	135	2
143	143	4
47	76	2
144	144	5
13	13	8
136	136	10
54	58	4
32	96	2
75	78	2
3	8	2
13	119	4
78	81	1
7	20	3
103	104	3
57	57	5
127	127	8
66	67	5
22	29	3
2	8	3
126	127	7
115	133	1
39	39	3
124	124	7
98	105	2
50	51	2
86	86	6
146	148	1
141	142	3
9	20	1
94	106	2
4	7	2
63	63	8
149	149	3
98	125	1
18	44	3
54	55	3
75	92	2
50	50	3
15	16	1
138	141	2
18	20	2
127	143	2
10	11	1
82	82	14
84	104	1
35	35	3
125	128	2
47	47	9
66	66	7
47	48	2
14	15	6
40	132	2
71	71	3
96	97	2
94	94	2
62	80	2
145	151	5
103	122	3
68	69	2
125	125	1
21	48	7
73	73	4
33	33	4
12	130	3
98	98	2
78	79	3
40	40	5
54	57	2
67	67	7
110	127	4
53	57	3
24	24	4
111	112	1
26	26	5
65	78	2
16	16	2
50	67	2
47	66	2
14	32	3
138	153	1
63	83	5
14	14	9
88	121	1
64	81	3
125	142	1
128	129	1
65	104	1
72	72	8
74	103	1
5	5	3
93	94	5
99	152	3
74	94	2
109	120	4
31	44	1
20	24	1
119	119	4
74	95	4
114	117	2
106	106	4
122	131	5
19	44	1
23	33	1
152	152	7
27	34	3
99	151	1
48	50	2
97	98	1
34	50	1
8	8	4
22	32	3
63	76	2
41	41	5
47	50	1
80	103	2
83	83	8
37	37	2
4	6	1
30	52	1
71	103	1
41	42	1
36	53	3
18	19	1
75	121	2
67	82	1
3	108	3
100	100	5
147	147	7
68	72	1
74	75	2
146	153	1
4	17	1
126	151	2
76	76	3
71	97	1
58	87	1
22	22	2
47	94	3
95	119	1
123	136	2
17	17	4
127	148	2
120	121	3
5	25	2
2	27	1
20	28	2
24	28	1
45	67	1
102	103	1
117	131	1
9	31	5
78	86	3
72	90	2
6	111	2
105	105	2
119	138	4
18	18	2
62	120	2
35	62	2
136	151	1
125	129	2
28	33	3
154	154	3
44	46	5
81	94	4
122	122	1
56	56	2
88	95	1
22	23	2
68	68	2
11	30	1
147	148	3
93	97	2
99	100	4
10	10	4
79	106	1
140	142	2
97	108	2
96	120	3
55	55	2
65	67	4
20	107	3
45	45	2
62	81	2
56	57	1
15	25	1
9	24	2
78	103	3
138	139	1
132	132	3
12	13	2
63	85	1
110	132	3
95	95	5
74	78	2
120	120	4
26	51	1
67	68	1
142	143	3
110	125	1
136	143	1
26	32	1
153	154	2
107	137	4
17	64	1
70	83	1
101	122	2
90	122	2
77	77	2
117	117	2
125	141	1
37	57	1
85	85	2
98	100	1
124	130	1
9	23	2
146	147	2
134	144	3
11	56	1
146	146	2
13	14	3
42	42	3
114	133	1
140	150	1
126	138	1
102	102	1
85	87	1
12	14	3
62	62	2
64	82	1
123	123	2
77	84	2
130	130	6
62	63	1
31	32	1
110	152	1
30	30	1
75	75	1
54	54	1
139	139	1
34	57	1
93	112	1
32	34	1
8	28	1
75	76	1
115	117	1
109	109	1
109	152	1
69	69	2
115	115	3
7	8	3
147	149	1
118	118	1
68	77	1
112	115	1
32	58	1
112	113	1
105	127	1
55	56	1
111	114	1
80	106	1
99	103	2
33	34	1
64	83	1
6	33	1
108	108	4
64	68	1
44	44	1
14	37	2
133	134	1
140	141	1
29	30	1
57	87	2
12	12	1
92	113	1
66	85	1
80	81	1
43	57	1
8	19	2
38	40	1
34	34	1
51	52	1
78	100	1
31	31	1
25	26	1
71	96	1
115	144	1
28	29	1
5	6	1
141	141	1
27	108	1
30	31	1
23	23	1
134	145	1
6	34	1
107	130	1
