119	119	6
22	22	3
105	105	17
2	2	18
78	78	3
11	12	6
83	83	10
104	104	10
49	52	6
150	150	12
72	72	6
141	141	5
67	67	8
42	42	3
53	53	4
126	158	5
97	97	4
10	10	8
89	89	13
127	127	18
134	147	1
1	2	4
51	51	3
117	117	11
117	144	2
9	9	10
96	97	4
125	127	6
83	101	3
66	70	7
103	103	9
129	129	2
69	70	1
109	124	4
108	108	2
106	106	7
34	34	8
157	157	10
148	148	3
47	51	5
123	137	3
19	19	11
111	140	1
110	112	4
94	94	8
16	18	2
32	33	6
114	114	13
17	17	7
69	80	1
19	21	1
124	125	8
124	126	4
31	32	2
29	29	3
12	12	4
12	17	1
82	119	1
68	68	10
125	125	5
85	86	5
26	27	4
70	71	3
50	53	9
147	147	8
99	105	2
54	54	6
121	121	4
48	48	15
80	80	8
140	140	6
49	49	5
155	155	5
110	110	6
101	101	9
73	73	7
115	115	5
54	96	3
35	54	7
52	52	2
69	69	3
134	135	4
7	8	7
20	21	3
130	131	1
78	87	2
122	123	3
36	36	5
126	126	8
112	112	4
145	145	1
99	99	2
144	144	2
21	21	4
7	7	4
135	135	4
39	39	8
13	13	6
44	45	3
153	153	2
134	134	13
20	20	2
125	126	4
50	51	2
46	47	2
88	88	7
8	9	4
66	69	1
44	44	11
57	57	1
122	122	9
18	18	4
123	123	5
12	14	3
73	101	2
62	62	2
123	138	3
98	98	8
19	20	2
17	18	5
151	151	3
37	37	4
115	144	2
34	63	3
46	46	19
1	1	4
24	24	4
66	66	7
73	74	2
100	100	1
107	108	2
70	70	5
111	128	2
40	40	1
30	31	1
123	136	3
35	36	1
130	130	5
137	137	9
52	53	2
36	40	1
4	4	3
79	79	3
65	66	3
79	82	2
73	100	2
57	63	1
91	97	2
90	90	5
5	5	6
55	63	4
121	122	4
79	81	1
13	14	5
103	104	3
76	101	1
132	132	4
87	87	5
152	153	1
134	148	2
69	92	2
76	76	3
107	107	1
111	111	4
54	91	1
109	126	2
109	145	2
106	107	5
35	35	5
64	69	2
143	144	2
32	32	1
83	84	4
128	128	2
45	45	1
84	85	3
16	16	6
147	152	4
46	48	2
143	143	3
153	158	3
38	90	2
117	145	3
109	109	2
108	124	3
118	118	7
54	95	1
23	24	2
11	11	7
95	144	1
77	77	5
43	43	4
133	133	4
27	27	1
71	71	4
156	156	3
25	25	3
9	11	3
142	142	4
81	81	6
47	48	2
33	33	3
16	17	1
155	156	2
25	26	2
68	69	1
86	86	2
92	92	4
89	90	2
31	31	2
126	127	1
89	92	2
132	134	2
23	29	2
136	137	1
48	50	4
17	20	1
105	107	1
44	46	1
64	64	4
64	65	2
149	149	1
82	83	1
84	84	1
14	14	2
38	38	1
140	142	3
105	106	1
152	152	1
131	132	2
95	95	1
98	99	3
77	78	1
21	22	2
110	111	2
75	75	2
17	21	1
33	38	1
55	55	1
25	29	1
124	124	1
120	120	3
111	113	2
75	105	1
8	8	1
90	91	1
85	85	1
50	50	2
153	154	2
108	144	1
151	152	1
112	113	2
85	89	1
91	91	2
41	49	1
151	156	1
4	29	1
0	23	1
40	41	2
113	124	3
155	157	1
29	97	2
127	157	1
127	153	1
90	143	1
129	130	1
41	46	1
98	111	1
3	3	1
26	26	1
34	35	1
154	157	1
116	116	1
113	113	1
