83	83	3
46	46	3
27	28	4
104	110	3
93	93	9
70	70	2
72	73	5
33	48	5
37	37	6
28	114	7
51	51	10
81	111	1
81	89	1
78	78	5
54	54	11
76	78	3
53	53	6
67	108	1
113	113	9
85	85	4
80	82	6
97	97	4
68	68	2
48	48	16
35	35	9
90	90	6
96	96	4
79	79	4
54	64	3
50	51	2
44	44	13
23	91	3
40	41	5
51	58	1
40	40	1
76	76	11
20	23	2
61	70	6
32	36	6
64	82	1
22	23	7
37	109	7
96	100	6
79	81	1
53	54	7
88	88	3
99	99	4
104	104	5
71	71	5
110	110	3
42	42	4
23	23	10
28	97	1
61	63	2
57	57	2
20	20	5
91	91	1
92	92	8
36	114	1
29	29	3
33	34	3
78	79	6
37	38	5
92	103	2
63	63	1
73	102	3
33	59	2
37	42	2
64	77	1
20	90	5
81	88	3
21	21	10
80	81	1
22	22	5
25	25	7
86	87	3
26	26	6
59	59	5
86	86	14
90	91	3
107	107	9
31	31	10
64	64	5
80	91	3
59	60	2
34	113	2
107	108	6
39	39	4
35	36	2
43	50	2
111	111	4
48	49	3
73	73	6
71	85	2
69	70	4
38	38	2
28	28	14
30	30	2
45	53	3
60	60	6
45	45	5
86	88	1
72	72	4
109	109	5
100	100	1
62	89	2
56	56	4
38	71	2
29	31	1
29	30	3
75	77	4
38	108	2
105	105	3
65	65	4
37	46	2
77	78	9
106	106	1
61	61	7
94	94	6
19	19	3
109	110	6
39	111	1
108	108	8
62	63	2
57	79	2
54	79	1
81	84	4
105	106	6
47	47	8
66	77	1
104	105	2
75	75	4
49	49	6
107	112	4
98	98	2
44	54	3
84	84	2
87	87	4
93	102	1
68	69	1
66	108	2
83	85	1
30	32	1
54	69	2
58	89	3
61	62	7
29	101	2
27	27	5
95	95	4
84	85	1
63	79	4
77	77	5
55	56	5
81	87	1
104	109	1
112	112	3
114	114	2
41	41	1
44	50	2
102	102	3
73	108	2
100	103	2
34	111	2
64	65	2
106	107	5
96	99	1
42	44	1
102	103	2
66	66	4
96	98	4
67	67	3
89	105	1
31	32	7
100	101	1
52	55	1
77	79	1
81	81	1
62	62	2
101	101	5
115	115	1
27	99	1
111	113	1
55	55	4
83	84	2
39	54	1
25	26	1
34	34	2
111	112	1
27	95	2
67	77	1
74	75	1
62	71	2
93	95	2
46	47	2
34	37	1
35	103	1
74	74	3
74	110	3
65	90	1
89	112	1
32	32	2
105	112	1
75	83	1
68	84	2
62	70	1
29	38	1
24	24	1
82	82	4
37	114	1
57	63	2
91	92	1
82	83	2
56	59	1
92	102	2
43	43	2
89	89	1
28	30	2
89	91	1
51	59	1
43	44	1
65	66	1
95	99	2
81	112	1
79	80	1
68	76	2
68	77	2
35	37	1
37	113	1
82	87	1
37	111	1
47	48	1
34	46	2
44	45	1
72	82	1
79	89	1
35	98	2
58	58	1
97	103	1
23	25	1
66	67	1
36	37	1
104	106	1
81	82	1
32	103	1
92	108	1
109	113	1
19	58	1
40	49	1
103	104	1
