7	9	1
175	175	2
116	116	6
121	122	5
165	165	5
71	71	3
161	166	6
168	171	4
123	123	5
118	118	2
115	115	4
154	154	7
7	10	1
12	33	4
125	125	3
1	1	5
106	106	7
74	74	2
144	144	9
66	66	10
40	40	6
64	65	9
116	119	7
94	96	3
99	112	1
121	129	3
151	151	9
174	174	8
159	159	10
184	184	7
138	138	4
58	81	1
105	105	6
3	3	4
134	164	3
130	138	1
12	13	7
104	109	1
35	35	3
9	30	7
162	163	3
39	39	4
70	70	2
94	95	4
146	148	1
22	22	9
19	19	1
18	191	3
31	31	9
96	96	3
123	126	3
145	175	3
58	60	2
116	117	3
168	168	9
69	69	10
150	150	2
34	37	4
155	167	2
1	2	3
135	135	11
64	64	6
133	134	6
8	15	3
85	85	7
6	6	5
155	155	6
24	26	1
152	153	1
125	126	1
56	80	2
19	31	5
153	153	2
42	42	4
30	30	5
180	187	2
65	67	3
48	48	5
127	128	3
161	163	3
30	41	2
119	119	7
79	79	10
143	145	1
43	43	5
81	82	2
11	12	2
132	133	5
53	53	4
41	42	2
57	58	1
193	193	1
65	69	4
56	94	3
130	132	4
134	136	7
134	134	3
137	170	3
190	190	2
78	78	1
80	81	7
148	148	4
13	13	2
168	169	6
75	94	2
52	52	2
111	112	5
138	168	2
72	73	1
34	34	1
55	143	2
134	135	3
194	194	9
112	112	5
181	181	5
23	23	9
62	62	1
53	54	2
109	112	2
170	170	3
36	36	2
39	84	2
99	99	5
158	158	3
109	111	2
3	187	3
104	104	6
145	145	3
29	41	4
114	114	8
49	49	3
102	102	8
97	99	3
27	28	5
113	114	5
20	21	3
1	6	3
72	126	4
170	172	4
187	188	5
41	41	3
0	6	5
141	141	2
178	178	2
129	129	1
60	60	6
104	105	1
98	167	2
154	167	1
126	127	4
17	20	2
163	167	5
6	28	5
89	89	2
126	126	5
33	33	3
181	191	3
80	80	7
109	110	5
67	67	2
0	24	4
0	1	4
37	38	2
192	192	1
150	175	4
98	98	3
127	127	4
172	172	3
182	182	2
59	59	4
81	83	5
17	17	3
18	75	1
5	20	4
95	95	3
32	45	2
160	160	3
72	72	14
136	136	1
53	78	1
181	184	3
83	86	1
84	85	3
61	62	1
180	180	2
188	188	2
151	152	3
179	189	2
143	144	4
108	110	1
61	61	4
21	21	6
105	106	1
73	73	8
14	14	5
12	12	3
137	137	2
122	122	6
64	71	3
191	191	4
11	183	1
63	71	2
8	21	5
150	176	4
25	26	2
140	140	4
82	83	2
37	37	1
114	153	3
111	111	8
96	101	2
182	190	1
85	86	1
153	154	4
182	195	1
16	20	3
51	51	2
40	46	2
149	189	1
120	120	2
121	121	4
161	164	1
146	151	1
56	56	6
171	171	1
27	27	6
84	84	5
142	145	1
65	65	2
25	25	7
186	186	2
108	108	5
40	84	1
5	7	2
101	101	2
6	15	1
173	173	2
53	80	4
108	157	3
9	9	5
116	120	2
56	75	1
162	164	2
187	187	4
162	167	1
130	131	4
189	189	1
185	187	1
10	44	1
79	80	1
26	26	2
10	10	2
68	68	4
143	143	1
167	167	2
2	4	2
183	183	2
116	118	1
150	173	1
14	15	1
97	97	5
133	133	1
76	76	3
5	5	1
8	16	1
98	99	2
149	149	2
60	87	1
54	54	2
177	177	1
34	35	1
106	163	1
129	140	5
75	75	2
156	159	2
178	188	3
78	79	4
106	115	1
96	102	3
152	155	1
54	193	2
146	146	5
55	142	3
16	28	1
88	90	1
24	179	2
104	157	1
113	160	1
145	156	1
81	81	1
95	96	1
58	59	1
181	190	1
53	74	1
2	2	2
95	192	1
32	32	2
138	169	1
100	100	3
54	55	1
87	87	2
10	46	1
195	197	1
133	135	2
29	30	1
22	24	3
164	164	1
127	141	2
65	66	1
47	48	2
180	181	1
43	45	1
58	58	2
115	119	1
179	183	3
114	115	2
96	156	2
70	71	1
157	158	1
35	46	1
189	190	1
29	82	1
39	85	1
99	153	1
142	142	1
45	46	1
118	119	1
153	158	1
163	164	1
11	11	2
143	154	1
153	157	1
173	175	1
26	27	1
107	119	1
47	47	1
185	186	1
78	80	1
22	23	1
50	50	1
127	139	1
156	156	1
7	7	1
18	20	1
