36	36	4
50	51	2
62	62	6
153	154	2
112	116	1
1	1	2
134	134	4
173	174	6
25	26	4
78	79	4
28	40	2
53	56	4
25	25	3
29	30	5
5	5	3
154	159	3
73	74	1
190	190	5
98	98	6
83	83	2
177	178	1
48	48	1
106	106	3
150	164	4
125	140	3
100	100	4
42	83	3
95	102	1
119	119	4
9	122	1
30	30	8
58	58	1
172	176	1
50	63	4
159	159	1
106	107	3
55	55	2
141	152	2
141	141	3
183	183	6
163	174	2
30	31	1
144	181	6
108	124	2
12	12	3
166	191	3
21	21	4
41	42	3
154	154	5
103	103	3
88	88	2
161	162	2
67	67	4
194	194	9
168	169	4
157	157	5
107	107	9
99	99	4
126	127	4
18	100	4
118	118	7
20	20	6
66	66	2
137	140	1
14	16	2
33	35	2
138	138	4
192	196	2
4	4	3
11	11	2
42	42	5
116	117	4
14	14	6
186	186	3
2	2	11
65	72	2
50	50	4
84	85	3
11	146	4
10	10	1
29	40	2
123	127	6
44	44	5
17	18	3
112	114	1
35	35	1
105	105	6
38	77	2
47	47	1
102	103	1
168	194	2
23	41	3
23	23	10
149	174	1
173	176	1
22	22	9
40	40	5
165	192	1
30	40	7
60	60	5
188	194	1
145	145	2
37	38	1
170	170	3
65	65	2
175	176	4
161	172	1
193	193	3
7	7	5
24	25	7
108	122	2
9	9	3
24	27	2
137	154	1
181	182	1
8	23	1
167	167	4
104	104	4
39	67	5
121	121	3
105	106	1
113	113	6
128	128	4
192	192	3
30	38	3
80	88	4
189	189	3
20	21	1
122	126	1
166	166	7
79	79	1
70	70	2
107	121	1
99	107	5
152	152	3
34	34	2
54	54	2
27	27	2
101	102	6
140	140	1
108	108	8
116	119	3
110	111	2
68	68	2
110	110	5
94	94	1
175	177	2
5	19	3
179	181	1
109	109	1
27	28	1
116	116	1
61	61	3
132	132	1
52	52	1
67	72	3
69	69	3
137	142	1
5	6	1
56	59	1
126	126	1
122	122	2
187	187	3
105	124	1
17	17	1
89	89	2
95	96	2
120	134	1
76	76	2
102	102	2
139	152	1
133	147	2
193	194	2
77	78	1
3	22	6
127	127	2
6	6	6
26	26	3
168	168	4
62	67	3
157	189	2
123	195	1
40	79	2
43	43	2
150	150	2
29	29	2
103	106	1
44	46	1
64	64	1
37	37	4
193	195	1
144	171	1
15	16	3
67	68	4
61	82	3
131	141	1
177	177	3
81	84	1
131	131	1
76	80	1
137	137	1
19	96	3
7	11	2
136	151	3
81	82	2
57	57	1
81	88	1
171	171	7
102	105	3
95	107	1
129	129	2
183	184	1
83	84	2
5	22	2
3	189	1
33	33	2
71	71	1
74	75	3
69	87	2
173	173	1
162	166	1
120	120	3
134	143	1
18	18	3
10	26	2
4	10	3
16	16	1
156	156	3
57	59	1
146	146	2
173	175	1
172	197	1
50	58	1
149	159	2
172	174	1
1	2	2
107	108	1
149	153	2
59	61	1
106	108	2
10	18	2
78	88	1
31	31	2
125	181	2
64	65	3
131	132	1
110	122	2
8	9	1
130	131	1
45	46	1
73	73	1
32	34	2
143	154	1
119	134	1
167	168	3
26	27	1
114	114	5
143	144	2
178	178	2
29	36	2
135	135	1
123	123	2
32	33	2
114	122	2
196	196	1
0	0	2
28	29	1
4	6	2
77	77	1
40	42	3
191	197	2
44	108	2
121	123	2
132	135	1
163	166	1
101	101	2
44	45	3
79	80	2
66	86	2
3	3	4
94	110	2
185	185	2
113	114	1
43	44	4
41	41	2
192	195	1
108	111	1
191	191	2
59	89	2
160	160	1
161	161	2
147	147	1
122	123	1
70	71	3
181	181	2
138	141	1
8	8	2
31	48	1
72	76	2
88	89	1
85	85	1
3	5	2
53	53	2
136	142	1
121	136	2
54	69	1
99	100	1
12	146	2
165	165	2
56	67	1
84	86	1
23	24	1
41	82	1
97	97	1
118	133	1
147	175	1
184	184	1
113	123	2
179	192	1
117	118	1
4	5	2
197	197	1
22	23	1
13	13	1
186	187	1
155	155	2
95	95	2
72	72	1
74	74	1
38	40	1
170	171	1
151	151	1
163	176	1
24	24	1
169	169	2
179	179	1
178	179	1
14	15	1
130	130	1
169	170	1
104	114	1
189	190	1
97	98	1
86	86	1
168	179	1
