108	109	3
47	52	3
156	158	1
7	10	3
11	11	10
109	110	6
46	46	9
124	124	3
13	33	4
25	26	1
155	158	7
116	116	3
88	88	4
100	100	12
106	106	5
27	28	4
112	113	4
127	127	3
28	29	2
132	133	2
109	122	5
48	71	3
79	79	9
37	64	4
76	151	3
129	129	6
114	114	2
95	95	5
5	6	2
103	103	3
127	128	3
36	65	1
79	141	2
30	30	5
2	2	11
82	82	9
149	150	6
107	138	2
98	98	8
23	23	5
31	31	3
80	80	13
109	109	2
87	88	4
137	137	9
41	41	4
78	78	8
20	20	8
139	139	8
71	92	2
35	91	6
93	94	5
41	42	3
92	92	10
0	1	7
45	45	5
154	154	2
73	73	8
65	65	5
110	110	1
93	93	8
118	118	7
85	85	3
117	117	6
153	154	2
4	4	5
122	123	4
29	30	2
134	135	4
95	102	9
44	44	5
125	125	7
133	134	4
158	158	3
134	148	6
146	146	8
32	32	3
47	47	15
97	97	15
79	106	8
44	45	2
71	71	4
144	145	5
11	12	2
19	19	12
6	6	9
37	38	6
150	150	3
21	21	5
39	40	7
117	119	2
112	112	8
90	90	2
26	26	3
128	133	1
66	67	4
17	18	1
25	25	8
5	5	2
1	1	10
38	38	3
14	14	2
55	55	2
128	129	3
12	13	13
35	36	7
69	69	5
66	66	3
102	102	10
147	147	4
86	87	1
131	133	1
84	118	4
92	93	6
28	28	2
77	77	3
144	144	9
114	119	5
32	93	8
97	98	2
36	90	3
24	25	1
114	121	3
67	67	6
75	75	5
152	153	1
70	72	2
102	103	2
123	124	2
140	140	7
122	122	9
10	11	2
108	149	2
50	50	1
7	7	8
17	17	4
89	105	3
89	90	1
147	148	2
141	141	6
43	43	4
84	84	14
48	48	1
99	130	1
88	90	2
91	91	4
40	41	2
142	143	5
20	40	1
82	83	1
8	11	2
10	10	5
105	117	2
81	106	4
72	72	2
9	10	3
36	36	5
33	33	3
49	49	4
101	105	3
143	143	1
111	111	2
40	40	3
96	139	1
73	82	1
149	149	2
133	133	5
71	86	1
40	42	3
10	71	2
139	144	5
81	81	4
157	157	3
12	12	1
67	69	2
151	152	5
104	105	1
52	52	5
156	156	6
86	86	4
76	77	2
113	113	6
105	107	3
138	138	11
131	132	6
29	29	1
22	22	2
96	131	1
106	142	4
124	125	8
11	69	3
132	132	4
99	99	3
56	57	2
104	106	3
96	96	1
155	155	1
42	42	1
8	22	1
157	158	1
14	15	4
34	62	1
78	79	1
111	112	1
33	37	2
3	4	1
123	123	2
87	87	1
151	151	1
12	39	1
95	96	3
153	158	1
51	51	5
89	89	5
68	69	3
144	147	2
55	72	2
126	126	2
54	54	2
80	106	1
110	133	3
105	105	2
121	122	4
154	155	4
27	27	3
36	37	2
32	33	3
145	148	1
83	84	2
67	68	1
107	109	1
107	148	4
28	30	2
137	138	3
93	106	1
24	24	2
8	8	2
26	30	6
119	119	1
46	64	1
13	13	2
49	53	2
134	134	3
83	83	3
11	13	2
38	43	2
2	4	4
115	115	4
138	140	2
135	137	1
3	3	3
128	128	4
14	33	1
18	19	1
39	39	1
23	24	4
53	54	1
15	15	3
36	38	1
37	71	3
109	111	1
1	2	2
19	20	2
10	12	1
76	76	1
7	8	2
152	152	6
13	14	1
100	101	1
88	89	2
104	104	1
118	156	1
80	81	1
135	135	1
137	140	1
35	35	1
136	136	1
129	156	2
47	49	1
121	121	2
34	34	1
148	148	1
68	68	1
75	99	1
107	149	4
139	140	1
118	119	1
31	67	3
14	29	1
26	27	3
101	101	2
64	68	1
13	97	1
140	141	1
119	156	1
7	25	2
21	22	1
108	108	1
92	133	1
8	23	1
107	107	2
51	52	1
96	97	1
13	70	1
21	23	1
145	145	1
37	37	1
80	107	1
62	62	1
6	29	1
80	142	1
0	0	1
