102	102	12
109	109	12
38	243	3
71	71	13
187	191	1
70	71	6
3	14	3
94	105	6
88	89	7
195	195	16
8	8	12
54	63	3
194	194	14
145	149	1
86	86	10
93	93	3
238	239	6
241	241	1
4	181	4
166	166	14
5	181	11
178	222	5
112	113	6
183	184	5
97	101	5
206	206	4
246	246	13
102	103	5
84	84	5
228	228	9
61	61	15
166	208	3
47	47	10
186	186	4
69	70	4
225	225	12
82	82	12
244	244	7
154	154	9
171	171	11
95	109	5
203	204	2
52	53	7
74	79	1
87	88	7
55	55	5
188	190	4
180	180	16
70	70	5
116	116	7
76	76	19
17	17	12
68	68	11
157	157	8
48	51	1
92	92	21
234	234	12
58	58	15
67	67	12
22	22	23
152	152	9
34	34	9
38	39	3
89	89	12
110	112	4
94	95	2
119	119	8
83	83	2
75	75	5
227	228	8
81	174	2
66	72	6
21	21	12
80	80	7
205	205	9
37	37	9
57	57	11
23	23	20
171	217	2
32	32	7
200	200	9
96	96	9
118	118	18
90	216	3
212	212	5
56	58	2
227	227	8
77	77	18
115	115	7
201	202	5
87	87	6
81	82	6
24	25	2
189	190	6
27	27	21
214	214	13
113	113	17
59	59	5
117	117	10
5	7	4
41	41	5
109	110	5
244	245	2
53	53	8
216	217	4
202	202	12
192	200	1
65	65	9
57	58	3
1	1	8
219	220	2
29	29	13
44	44	12
95	95	9
167	167	5
6	6	16
9	182	3
45	45	3
163	164	12
183	183	20
48	49	3
56	57	2
56	56	9
187	187	5
72	102	3
26	26	12
175	210	2
201	201	16
48	48	10
158	158	5
197	197	10
179	179	3
156	156	13
207	223	3
173	173	7
17	18	6
174	174	6
51	51	11
7	7	6
78	85	5
4	4	8
193	194	9
104	106	4
107	107	11
207	207	13
162	162	2
20	34	2
54	54	6
175	175	11
9	9	6
206	207	6
247	248	4
222	222	9
174	175	1
191	192	9
155	155	6
91	103	3
108	108	7
1	2	2
243	245	2
248	249	7
71	73	4
231	231	6
184	184	3
39	39	9
30	34	6
153	153	8
88	88	6
182	223	6
42	42	6
218	220	2
3	11	3
50	51	1
104	104	9
235	235	25
59	60	6
43	43	8
90	90	19
204	204	5
55	57	5
66	68	3
61	62	6
18	19	5
30	30	6
209	209	12
232	232	16
177	177	6
221	222	4
176	176	7
12	12	2
230	233	1
8	93	2
79	79	9
79	80	2
239	240	6
78	84	2
171	172	6
106	106	2
92	93	3
74	74	9
44	244	1
65	69	2
187	210	2
69	69	11
105	107	3
151	155	2
189	189	10
19	19	9
249	249	4
81	90	3
213	213	11
33	150	3
81	81	5
88	93	11
187	189	2
2	2	12
167	180	1
63	64	3
185	185	1
23	28	1
203	205	3
121	121	5
218	218	4
28	29	7
203	203	6
241	242	1
105	105	4
163	163	4
98	98	4
229	229	11
181	181	8
221	221	10
35	35	9
223	223	5
99	99	7
165	165	12
1	11	1
49	77	4
2	3	1
181	222	1
202	203	2
231	233	1
236	237	2
18	21	2
112	112	10
220	220	4
162	163	2
14	14	6
146	146	1
20	21	1
62	63	7
149	150	1
198	198	8
216	216	9
194	195	10
239	241	2
100	100	12
226	227	3
247	247	14
46	46	14
120	144	5
49	50	7
245	245	21
52	52	9
94	94	1
224	224	9
177	214	3
172	177	2
161	161	11
236	236	11
230	230	3
90	93	1
191	191	3
80	90	4
169	169	10
243	243	12
61	66	9
25	26	6
215	216	2
212	213	1
6	7	3
166	167	1
40	40	6
196	228	1
52	64	1
240	240	6
65	66	5
93	219	5
97	97	4
226	226	12
233	233	6
183	213	1
159	159	6
210	210	10
163	165	2
5	6	1
110	110	6
175	176	5
66	66	2
54	55	5
73	73	3
242	242	17
60	60	4
215	215	3
188	188	11
187	188	5
77	79	7
91	92	6
112	114	1
172	172	1
238	238	7
12	182	8
184	185	8
97	110	2
56	60	1
200	201	2
81	186	2
196	196	3
114	114	2
150	150	13
107	108	5
40	41	2
160	160	10
39	43	3
248	248	8
96	97	4
75	78	1
106	107	1
99	100	2
38	242	1
15	15	9
72	72	3
159	160	3
142	142	3
245	246	4
97	109	1
168	168	4
197	225	2
217	218	2
193	193	4
3	3	2
18	18	8
10	202	1
20	20	10
36	150	1
19	20	5
210	211	3
10	11	2
31	32	2
85	186	2
78	79	2
16	16	2
32	33	1
214	215	3
205	206	2
84	85	3
30	35	1
116	117	1
185	186	2
93	94	2
63	63	4
174	214	2
219	219	8
38	38	8
31	35	3
34	35	4
113	219	2
94	107	4
179	180	2
76	80	1
24	24	1
174	177	3
204	205	3
120	120	3
166	168	2
86	90	1
57	59	1
29	30	1
75	76	3
49	49	5
144	145	1
98	101	2
14	15	5
14	204	3
240	241	5
55	56	4
53	54	2
118	119	10
11	11	13
237	237	4
41	42	2
115	117	3
60	65	1
59	62	2
101	101	3
192	193	6
69	71	2
86	87	1
37	229	3
147	147	1
46	47	2
207	208	2
209	210	1
89	93	3
33	33	6
15	202	2
225	226	4
190	191	1
160	161	2
33	35	1
151	151	4
10	10	5
2	11	1
110	111	3
97	98	3
218	219	2
119	171	1
31	31	3
154	155	1
88	216	3
188	189	1
171	220	3
81	83	4
208	208	5
17	34	1
102	104	1
67	68	2
96	98	1
167	168	1
5	5	4
82	89	1
64	65	1
151	152	2
111	111	4
211	211	4
60	62	3
78	187	2
95	96	2
195	226	1
242	243	4
190	190	1
233	234	4
107	119	4
206	223	1
170	170	1
199	199	5
18	35	4
173	174	2
82	215	1
81	84	1
52	54	3
153	154	2
150	151	3
47	78	2
6	9	1
74	76	1
76	77	5
78	78	3
164	224	3
173	176	1
62	62	4
64	64	6
91	91	2
74	75	1
197	226	1
192	192	5
24	26	4
187	199	2
43	44	2
74	77	2
48	50	2
184	187	1
58	59	1
52	189	2
12	202	4
33	34	1
199	200	2
9	12	1
4	12	1
80	82	1
158	159	3
174	215	2
193	198	1
11	12	2
184	186	3
1	230	1
33	151	1
164	164	2
217	217	1
82	83	1
68	71	2
47	49	1
105	106	2
228	231	1
75	90	4
37	39	1
55	59	2
178	178	3
59	63	1
6	181	2
173	218	1
3	6	1
111	112	1
169	170	3
27	33	1
243	244	1
176	177	1
67	69	2
26	27	1
62	67	1
197	198	2
162	164	1
195	248	1
234	235	1
28	28	2
229	231	5
50	50	1
145	145	2
36	36	1
36	37	1
157	158	3
13	14	1
9	10	1
51	65	1
71	74	1
234	245	1
37	38	4
106	217	2
237	238	1
13	204	2
160	195	1
213	214	2
99	101	2
103	103	1
98	99	2
52	65	2
96	102	1
174	176	1
151	154	1
234	236	1
23	24	1
152	153	3
63	65	1
222	223	1
237	245	2
87	218	1
198	200	1
0	1	1
85	85	1
208	209	1
179	222	1
4	5	1
183	212	2
200	224	1
156	157	1
89	106	1
77	84	2
48	77	1
17	19	2
108	109	1
146	147	1
22	23	2
68	69	1
32	152	1
238	240	1
65	68	1
34	153	1
31	41	1
228	229	1
95	108	1
79	187	1
40	44	1
72	73	1
105	216	1
19	30	1
