46	47	1
0	31	2
238	238	4
166	166	3
156	156	1
135	135	1
75	81	3
40	40	5
11	11	5
8	8	5
202	203	3
150	151	8
99	99	6
146	147	5
230	230	4
133	133	7
242	242	3
66	67	4
25	25	7
10	10	4
192	192	4
234	234	7
16	16	3
104	107	3
57	58	1
97	97	8
181	181	8
199	200	6
122	128	6
186	186	10
1	31	1
58	58	7
213	213	9
185	185	4
189	189	18
80	80	3
60	60	5
220	222	2
7	7	5
32	32	5
144	144	2
101	102	1
236	236	4
106	106	4
195	195	3
127	133	4
183	183	7
0	30	4
160	171	2
71	72	2
161	161	5
197	197	6
188	215	3
123	123	17
172	172	2
218	239	2
79	79	10
21	21	2
140	140	8
9	13	2
223	223	2
214	215	2
1	3	5
207	208	2
19	19	2
12	36	3
184	184	7
33	33	6
88	138	2
23	23	6
211	211	6
59	68	3
82	82	4
173	173	2
200	200	2
63	64	5
154	155	2
162	163	1
75	75	2
238	239	1
38	38	8
13	13	8
66	68	1
175	175	5
81	81	1
138	138	2
177	202	1
92	92	4
198	198	2
187	187	1
30	30	18
0	0	3
115	116	1
226	227	2
126	126	6
7	13	3
162	162	7
99	113	2
219	220	1
173	174	3
170	170	1
178	178	4
164	164	5
140	142	2
136	136	9
136	137	6
165	222	1
240	241	4
143	144	4
131	134	3
228	228	3
187	210	1
153	153	7
79	81	2
145	145	2
20	37	2
241	241	2
201	202	4
0	8	1
42	42	3
202	204	3
191	205	3
24	25	2
2	2	3
83	84	7
214	216	2
200	201	1
188	216	6
107	108	4
129	129	1
219	219	6
28	28	6
161	162	4
145	164	5
182	182	3
71	71	2
63	65	2
69	69	7
128	129	2
29	29	8
199	199	2
193	195	1
38	45	1
211	212	1
9	9	5
50	50	2
131	131	4
39	50	3
76	76	2
152	152	3
203	203	9
19	20	1
21	22	2
102	102	7
6	6	3
45	70	1
159	159	5
98	98	5
202	202	2
1	2	1
1	1	7
47	49	2
3	3	3
180	180	6
138	139	3
115	115	1
165	165	7
158	158	4
43	43	5
236	237	4
150	150	3
36	36	5
227	228	1
152	153	1
128	149	1
118	118	5
214	214	7
172	173	5
142	142	4
86	86	7
130	130	4
20	20	8
164	165	4
24	24	5
44	70	2
200	223	3
135	160	2
204	206	6
191	191	2
210	211	6
46	46	2
113	113	12
14	16	1
22	22	6
196	197	1
49	49	2
122	122	1
27	27	12
232	232	11
11	38	2
73	73	1
237	237	2
63	63	3
7	8	3
109	110	1
139	139	4
110	110	1
171	171	2
205	205	4
193	193	3
218	218	3
117	117	1
61	61	5
164	198	2
83	83	2
177	177	3
18	18	4
22	23	2
134	134	3
220	220	5
179	179	2
26	26	2
217	217	2
101	101	1
174	174	2
154	154	4
155	157	1
17	36	4
84	84	1
233	233	5
224	225	2
167	167	7
47	47	5
114	115	1
13	36	1
177	192	1
11	16	3
44	44	3
190	190	2
212	212	1
1	4	2
235	235	4
118	119	6
67	68	2
151	151	3
33	34	1
144	198	1
18	19	2
99	100	4
128	128	7
155	155	1
204	204	1
25	26	1
194	196	2
133	134	4
212	230	1
239	239	4
63	81	1
73	74	3
17	117	1
194	194	1
169	169	3
140	141	2
56	56	4
209	209	1
72	73	5
175	176	1
0	1	2
190	191	6
81	83	1
222	222	2
76	85	4
58	69	1
8	9	1
72	72	5
88	89	1
105	105	1
3	6	1
160	162	3
147	158	1
232	233	1
81	82	1
66	66	1
168	168	1
62	74	2
9	28	1
9	10	1
157	157	2
176	176	2
221	221	1
206	206	4
209	210	2
226	226	4
68	68	2
196	198	2
52	52	2
95	115	2
127	129	2
76	86	1
88	88	1
206	220	2
123	135	2
143	169	3
151	152	2
17	18	2
62	62	3
188	188	2
46	70	2
28	29	1
96	96	3
160	160	2
179	181	1
96	97	1
17	37	3
205	206	3
188	190	2
148	148	1
230	232	1
73	100	1
212	231	1
208	208	2
114	114	1
218	219	2
201	201	1
54	54	2
237	238	4
240	240	2
121	134	1
217	237	2
51	52	1
124	124	1
108	108	3
183	184	2
10	11	1
39	39	1
217	218	1
47	48	1
229	229	2
72	113	2
20	38	1
37	38	2
85	86	2
170	223	1
57	57	3
138	172	2
197	198	1
215	215	2
156	158	2
63	66	2
30	37	1
196	196	3
182	185	1
14	14	1
56	57	2
125	126	2
228	229	1
142	164	3
225	226	1
55	55	1
17	17	1
219	234	1
67	67	1
99	114	1
204	205	1
54	55	1
27	29	1
231	231	1
15	16	1
149	149	1
135	137	1
31	32	1
64	64	1
143	143	1
47	50	1
201	242	1
