98	99	4
141	141	13
9	10	2
106	127	2
3	9	5
81	82	8
137	137	3
175	181	1
146	146	7
76	81	2
162	162	15
97	123	2
11	11	17
185	185	4
102	106	2
56	65	5
71	71	8
63	63	11
201	201	11
67	67	10
111	111	4
169	170	1
175	175	10
205	206	10
235	235	10
152	152	7
70	71	1
104	105	4
131	136	5
159	159	4
105	105	11
20	21	4
133	134	11
103	109	1
58	61	4
220	220	23
72	72	14
32	64	1
77	77	9
103	105	5
105	145	1
219	219	21
4	13	1
198	198	12
240	240	5
139	139	15
6	21	4
214	220	8
132	134	8
164	165	15
171	174	5
99	99	11
56	56	11
59	60	6
19	26	1
19	20	6
118	125	2
27	28	5
182	182	14
1	2	7
97	97	5
129	129	14
199	209	1
138	151	3
147	148	7
5	5	9
21	22	3
86	86	7
23	31	1
10	30	4
161	161	10
143	144	8
9	40	3
4	5	5
121	122	9
39	66	1
53	53	9
233	233	14
103	112	2
200	200	11
162	165	6
216	216	9
24	24	10
216	218	6
38	41	4
29	30	12
28	28	3
77	78	9
227	227	13
42	51	3
159	160	6
204	204	8
13	15	4
50	50	7
80	80	12
12	13	4
242	242	16
40	40	7
48	51	4
64	64	10
217	242	6
85	85	20
194	194	12
221	221	12
225	235	1
186	187	5
174	218	1
126	130	3
197	199	3
104	104	12
44	150	2
193	193	6
140	141	4
235	236	4
97	100	4
190	190	9
168	168	9
22	23	1
173	204	1
23	24	4
7	8	8
153	154	4
221	236	2
29	29	7
51	99	4
116	117	8
183	183	15
35	35	7
0	0	8
112	113	3
14	14	18
41	41	11
47	47	16
78	78	12
152	153	4
206	208	10
142	142	5
224	238	4
27	57	2
180	181	2
6	10	3
128	129	2
187	187	5
1	31	4
5	6	4
40	49	3
217	217	8
163	164	2
27	27	7
176	176	5
199	199	7
100	100	7
22	22	14
220	222	3
201	211	3
7	7	10
125	125	8
62	63	4
228	228	7
62	62	16
59	59	3
65	65	23
16	16	14
165	166	2
115	119	1
76	76	8
75	106	4
10	10	12
116	144	3
80	81	1
181	183	5
128	128	7
69	69	8
129	150	2
196	196	6
169	193	3
6	6	7
43	43	12
210	211	1
222	232	2
154	201	2
174	175	3
121	121	7
239	239	3
108	115	6
232	232	6
172	172	11
212	212	11
75	75	10
23	30	10
124	124	10
223	223	6
52	52	2
108	108	4
205	205	6
209	214	2
107	107	5
229	230	3
114	118	2
22	30	4
3	42	3
207	207	5
16	18	2
99	100	10
30	31	5
178	218	5
221	234	3
229	229	14
228	231	6
164	190	1
46	46	13
119	136	2
212	216	3
147	147	4
189	197	6
17	18	3
48	48	10
83	84	4
224	233	3
107	108	14
82	82	4
162	163	1
207	217	8
81	99	2
99	102	1
234	234	10
144	146	8
213	214	7
196	201	2
204	211	3
16	17	1
2	15	2
217	234	5
58	60	2
172	174	2
74	74	15
34	144	3
82	89	3
119	120	5
105	114	3
31	38	2
51	51	7
56	64	3
20	20	10
179	179	12
147	149	3
192	192	6
102	102	7
97	102	6
3	3	18
33	51	1
4	4	7
219	242	4
54	54	6
174	180	4
123	129	2
194	196	5
70	72	2
117	125	3
211	211	2
139	149	4
32	33	4
198	209	1
24	34	3
2	3	4
139	141	7
189	189	6
198	201	4
151	151	13
44	45	9
96	100	2
60	176	3
209	210	10
76	78	4
226	230	1
166	171	1
127	127	11
144	144	9
208	209	1
73	77	3
52	59	3
166	167	4
59	61	3
133	133	6
221	224	3
216	217	8
103	106	7
138	143	1
148	148	5
42	42	6
189	202	1
174	179	2
25	25	17
209	212	6
45	50	2
114	149	4
134	135	4
214	216	4
28	40	1
119	123	5
26	28	5
127	133	1
218	218	3
160	160	17
197	198	7
25	26	2
77	82	1
31	31	7
41	46	1
97	98	2
36	36	11
104	108	6
241	241	7
57	68	1
218	219	2
143	145	10
116	119	7
11	13	3
238	239	1
118	118	8
120	120	7
55	70	1
58	58	6
196	202	4
237	237	10
158	158	12
143	143	8
213	220	2
61	62	1
100	104	4
220	231	2
164	168	2
186	186	3
223	225	2
210	212	1
215	215	15
169	192	1
190	193	1
45	47	2
167	167	4
36	51	3
138	138	7
227	228	5
207	211	2
9	9	10
17	17	15
229	231	7
220	238	2
202	205	3
152	154	3
68	68	2
89	99	1
73	73	6
154	154	2
13	13	14
157	158	2
30	30	7
1	3	2
32	48	2
193	209	4
183	184	2
35	144	4
206	207	7
105	120	2
136	136	15
223	224	3
217	237	1
184	184	4
201	202	3
230	230	5
186	197	3
103	103	5
57	58	1
197	197	9
174	174	9
221	223	6
157	157	4
84	84	4
109	109	4
48	49	5
238	238	17
135	135	8
231	231	4
185	194	6
6	16	1
181	182	5
34	34	11
81	81	4
128	174	2
163	170	3
232	236	1
3	35	4
68	69	2
97	134	1
49	49	5
11	12	5
3	10	2
168	169	3
140	185	2
145	145	5
202	202	7
23	26	3
101	102	4
64	75	3
23	35	7
115	118	3
26	26	10
177	178	2
114	120	2
144	145	13
140	140	5
51	52	2
157	162	4
28	29	3
149	149	10
57	57	14
82	84	4
1	1	9
39	43	1
116	116	7
34	44	1
106	106	12
39	39	10
175	176	7
95	98	5
69	76	3
240	241	5
177	177	5
0	12	5
226	236	2
98	98	5
225	238	1
169	172	3
114	116	1
118	144	4
241	242	4
128	144	3
186	200	4
38	49	1
44	44	7
123	130	4
111	118	5
12	21	4
60	62	3
188	190	1
180	185	5
150	154	1
177	219	1
127	138	1
184	185	5
142	152	3
61	69	3
172	235	4
64	65	5
43	44	4
81	83	1
206	206	8
165	165	5
70	70	9
56	58	7
125	128	2
156	182	4
215	220	5
186	194	2
191	191	6
201	209	3
166	166	5
236	236	14
66	66	11
197	202	4
149	150	7
137	138	5
238	240	6
97	104	2
170	171	4
2	5	2
222	230	1
155	161	3
116	118	2
106	115	1
206	221	2
153	164	4
44	69	1
168	196	5
45	46	6
12	67	4
179	180	4
232	234	4
66	67	1
43	140	2
157	159	3
222	236	3
230	234	1
83	89	2
1	184	2
212	230	1
138	139	6
115	115	3
113	114	5
1	24	1
6	8	3
181	224	3
200	204	3
226	226	5
125	126	4
38	46	4
97	101	4
114	114	3
104	120	3
187	198	3
170	170	4
1	6	6
188	192	1
44	53	5
171	171	14
223	230	2
200	206	2
207	208	4
199	203	1
0	1	6
10	15	2
8	22	1
75	77	3
158	159	4
9	39	1
129	130	3
231	234	1
171	207	2
78	79	11
39	40	3
0	6	1
225	225	5
224	224	4
50	64	2
26	27	1
163	163	6
231	232	4
194	208	2
37	46	4
237	242	4
199	210	1
231	239	2
118	139	2
130	132	1
116	124	1
18	27	1
197	205	8
178	232	1
222	231	2
189	191	6
182	184	2
162	164	5
3	43	1
214	214	7
121	123	2
8	8	3
218	232	1
204	207	2
208	210	1
21	41	4
37	37	8
164	164	10
22	28	1
178	179	4
113	113	2
193	197	2
84	86	3
157	170	3
23	23	10
38	38	7
21	21	8
106	118	1
2	2	6
114	123	1
55	55	17
158	160	4
165	171	2
178	178	8
74	75	1
89	89	3
119	121	2
12	12	8
202	203	10
80	110	1
119	119	7
72	74	1
46	48	2
201	204	1
204	214	6
27	67	2
100	103	3
124	163	1
61	61	6
153	159	1
135	141	1
39	44	1
195	196	4
189	214	2
60	60	5
232	241	1
113	120	2
37	44	4
187	191	2
101	101	9
2	4	2
133	147	2
63	64	9
225	237	2
71	81	1
232	233	4
218	237	3
3	5	2
143	146	1
205	217	3
134	134	9
191	197	2
10	11	2
88	88	4
167	168	2
35	46	4
56	57	1
220	228	2
210	219	2
96	96	7
10	70	2
205	207	3
15	15	5
114	136	1
185	195	3
11	24	2
56	66	2
160	161	2
44	46	3
75	76	2
58	68	3
161	167	2
156	159	3
76	77	3
215	216	3
191	199	3
221	222	4
51	62	3
1	11	3
113	116	2
208	211	3
130	140	1
132	142	1
7	36	3
52	70	2
45	52	3
56	63	2
155	157	2
50	61	1
209	209	3
191	203	1
57	69	1
41	42	3
215	218	3
195	195	3
51	145	3
212	223	1
141	158	3
154	155	4
96	123	2
194	195	1
222	229	3
151	179	1
164	187	4
231	233	5
20	42	2
46	58	2
126	126	4
45	48	2
115	149	1
213	213	4
85	86	2
131	131	4
185	186	3
173	176	2
95	95	1
8	11	2
4	7	3
139	142	4
17	67	3
232	242	3
22	31	2
233	235	2
56	61	2
153	161	2
108	117	3
109	128	1
34	145	1
174	178	2
118	136	3
222	222	8
138	147	2
220	242	1
27	68	1
39	71	5
54	55	3
223	226	2
122	131	1
121	171	1
224	225	2
12	29	1
168	174	1
140	158	1
164	167	1
195	214	1
156	158	5
199	211	1
177	231	1
188	188	8
206	211	3
189	195	2
31	34	4
206	229	1
236	242	3
176	177	3
5	23	1
91	107	1
173	173	8
3	6	2
49	50	3
200	201	1
120	136	2
180	202	1
57	59	1
170	173	1
19	226	3
150	150	4
179	181	1
156	161	2
165	175	1
43	67	3
227	231	1
208	208	3
16	24	1
173	175	2
226	239	1
100	109	1
95	99	1
95	101	2
110	133	3
25	29	4
212	213	2
210	228	3
133	138	1
155	162	1
147	155	2
57	66	2
233	234	1
210	210	4
122	122	3
3	7	1
23	29	1
208	218	3
100	101	2
185	189	1
229	241	1
188	199	4
203	203	5
124	130	3
135	140	2
42	44	2
2	11	1
67	68	2
4	14	1
187	188	3
234	238	1
148	151	4
99	103	2
101	109	3
146	157	1
111	112	2
10	21	1
13	14	1
21	30	1
190	197	2
44	47	2
124	127	2
96	97	1
19	19	4
202	225	1
192	193	2
230	232	1
214	215	3
124	154	2
129	134	1
47	48	4
220	221	4
183	187	4
124	125	2
74	98	1
181	181	1
55	58	1
38	40	1
112	112	2
117	139	1
226	238	2
155	155	3
10	12	1
143	147	1
34	36	3
220	232	1
122	178	2
198	202	1
225	236	2
37	42	2
234	237	2
179	188	5
203	208	3
223	236	1
201	203	1
60	61	1
73	78	2
101	108	1
122	159	1
234	242	2
200	219	1
7	13	4
136	138	1
115	125	2
61	222	1
155	158	1
234	235	2
165	168	1
193	232	3
108	129	2
211	213	2
163	201	1
221	228	2
33	33	6
196	203	2
40	41	1
18	18	5
139	140	1
43	148	1
195	206	1
32	156	2
237	239	1
0	4	2
67	77	3
49	53	1
167	231	2
235	237	1
144	149	3
54	57	2
56	74	1
172	233	2
157	161	2
77	80	1
68	72	3
203	204	1
129	133	1
127	128	2
228	230	1
187	189	2
113	134	2
215	228	1
188	195	4
237	240	2
167	200	1
65	70	2
71	73	1
145	146	2
218	220	1
168	170	3
167	184	1
202	208	1
169	169	3
218	239	2
225	226	2
128	131	1
222	239	1
18	20	2
102	105	2
220	239	1
43	143	1
0	185	1
107	125	2
49	51	3
158	161	4
23	27	1
37	47	2
86	87	1
103	104	2
178	184	2
178	182	3
73	84	3
5	20	3
153	153	6
114	137	1
191	196	1
22	24	1
24	26	3
27	41	3
22	25	3
159	164	1
80	84	2
32	34	2
220	223	1
129	149	2
237	238	2
73	74	2
15	23	1
162	168	2
140	142	1
121	128	2
1	35	2
12	202	2
14	55	1
172	187	2
142	144	2
186	188	3
179	183	1
36	41	2
12	15	2
50	105	1
35	53	2
169	171	1
106	108	2
62	64	1
214	218	2
26	38	2
114	138	1
190	201	2
79	79	4
178	217	2
15	18	1
202	230	1
196	197	2
52	53	4
194	200	1
5	41	2
142	145	1
98	104	1
15	16	1
41	51	1
5	7	1
239	240	1
185	196	2
198	199	4
5	16	3
162	169	1
0	179	1
13	19	3
35	48	1
82	83	1
199	204	1
114	115	1
135	137	2
75	81	1
44	63	1
165	174	2
66	70	1
101	103	1
153	156	3
188	198	3
11	201	1
219	239	1
179	186	1
123	123	3
4	11	3
45	58	1
79	104	1
1	18	1
124	135	1
190	199	1
160	165	1
39	59	3
47	55	2
24	25	1
11	14	1
29	38	1
100	116	2
16	27	1
155	182	1
30	36	2
2	12	1
45	45	2
173	177	4
205	208	1
56	75	1
105	109	1
139	158	1
226	227	1
11	21	1
84	85	1
88	89	1
164	169	1
53	145	1
28	31	1
5	22	2
21	24	1
224	235	1
7	9	1
194	205	1
74	79	1
28	33	1
227	234	1
161	162	2
36	184	1
43	47	3
9	55	2
139	144	1
224	230	1
27	37	1
185	188	1
156	156	2
158	162	1
155	156	1
65	69	1
216	219	1
44	49	1
125	134	1
219	234	1
15	20	1
172	176	1
213	215	1
65	68	1
76	98	2
234	240	1
103	122	1
37	38	1
131	137	1
30	63	1
172	238	1
199	206	1
186	195	1
3	24	1
226	228	1
55	64	1
99	116	1
220	224	1
167	196	1
34	52	1
36	37	1
114	133	1
117	124	2
147	168	1
14	20	1
43	50	1
50	58	1
220	234	1
46	47	1
229	233	1
129	163	1
42	43	1
0	17	1
2	9	1
186	192	1
129	152	2
45	147	2
117	118	1
97	113	1
78	81	1
76	80	1
181	202	1
219	221	1
117	128	1
28	182	1
180	180	1
13	18	1
122	137	1
135	136	1
38	45	1
200	209	1
167	178	2
108	118	1
194	197	2
175	183	1
120	121	1
24	68	1
119	126	1
141	186	1
76	84	1
173	217	1
14	26	1
226	237	1
171	172	1
50	51	1
25	31	1
208	217	1
171	192	1
197	206	1
44	56	1
115	116	1
67	72	1
176	179	1
111	113	1
47	54	1
133	142	1
