133	136	1
10	13	2
149	149	11
158	158	6
3	3	14
102	103	7
90	91	6
75	75	9
71	71	10
120	121	6
74	74	15
120	120	9
1	1	16
134	134	7
159	160	7
22	22	11
112	112	18
84	84	8
105	105	9
21	21	10
136	136	13
137	138	5
40	112	4
25	25	11
13	15	2
11	11	7
117	117	8
166	166	5
74	75	4
4	4	10
109	109	10
50	50	11
164	165	6
75	113	1
130	131	4
9	9	7
19	19	6
148	148	4
143	146	3
129	130	6
162	163	5
159	159	8
66	66	7
121	143	3
76	76	10
142	143	3
76	126	2
84	88	1
142	142	13
141	141	15
69	69	7
99	162	2
108	108	6
72	102	2
10	10	5
128	131	3
135	135	6
170	170	10
101	101	6
157	158	1
20	20	7
14	14	11
71	72	1
55	63	1
132	132	7
93	93	8
67	67	12
38	38	6
108	128	1
159	166	2
76	108	1
66	67	3
74	91	5
0	0	12
83	132	3
106	106	14
42	42	18
84	147	1
86	86	9
155	157	3
98	99	5
125	153	1
7	55	3
35	35	8
104	104	11
51	51	6
2	3	6
27	27	10
102	102	6
34	35	7
151	151	21
116	116	7
124	124	14
94	94	13
152	152	5
34	34	11
88	88	7
140	141	2
157	157	4
134	135	6
55	56	1
156	157	7
155	155	9
95	95	7
53	53	18
37	38	6
99	99	12
112	114	3
13	13	14
97	97	6
145	154	4
77	77	2
78	78	8
131	131	4
6	7	4
77	78	4
137	137	13
80	80	10
114	115	3
168	169	6
92	92	15
138	138	8
46	46	3
23	23	9
90	123	4
41	42	3
100	101	1
86	93	6
44	44	11
44	45	1
156	156	3
45	45	7
73	73	2
137	144	5
124	125	6
39	39	10
85	85	4
64	124	2
41	41	8
0	20	2
98	100	1
2	2	8
111	111	9
6	8	6
16	16	5
130	130	6
113	142	2
90	98	2
63	63	2
52	53	2
91	91	5
150	151	5
104	116	1
15	15	2
110	110	5
127	127	3
34	138	1
48	87	1
168	168	5
114	114	6
133	133	6
166	167	2
28	28	5
111	112	5
8	8	4
35	48	1
70	70	12
123	123	8
140	140	5
67	100	1
20	23	3
47	47	3
7	7	7
52	52	13
7	155	1
2	108	2
107	107	7
82	86	2
128	130	1
90	90	11
83	83	9
167	168	7
56	56	11
98	98	4
161	162	5
68	68	5
141	142	1
96	96	2
154	154	13
167	167	1
139	139	10
36	36	6
90	111	2
17	17	6
103	103	8
139	140	4
102	123	1
121	121	5
8	9	3
116	147	1
125	125	3
40	40	5
20	22	2
143	143	1
88	94	2
80	149	3
57	57	5
54	54	11
39	40	3
107	144	1
129	129	17
101	102	3
144	144	7
164	164	4
17	18	1
45	46	2
53	54	3
56	57	5
17	24	2
148	149	7
2	17	1
163	164	2
36	110	1
116	135	2
11	17	2
126	127	2
54	55	5
158	160	3
87	96	3
50	51	5
151	152	3
89	138	2
168	170	1
12	13	2
113	113	4
136	139	2
125	126	2
20	139	1
97	99	1
116	165	2
156	169	2
37	37	3
92	95	1
91	92	3
164	169	1
150	155	2
79	79	3
42	53	1
144	145	3
153	153	7
115	116	4
145	153	5
76	80	2
115	115	5
20	21	8
147	147	7
5	18	3
147	148	2
43	43	4
8	10	1
164	170	2
131	132	4
67	68	3
161	161	2
139	142	2
25	26	3
162	162	5
122	123	2
10	11	1
14	15	4
155	159	1
165	165	5
80	81	2
62	63	2
82	82	1
18	19	2
46	52	2
160	161	2
94	95	3
122	122	7
52	83	3
6	6	2
48	49	3
37	42	2
105	106	6
65	141	2
70	71	6
4	21	2
118	121	2
89	89	9
136	141	1
43	44	2
160	160	3
58	58	5
12	12	2
117	118	2
128	129	5
110	151	1
127	144	1
108	109	6
65	65	3
119	119	4
55	55	1
141	147	1
158	161	1
100	100	4
3	27	1
46	49	2
106	166	1
10	18	2
57	92	2
17	137	1
5	6	2
94	118	2
41	112	1
76	133	1
11	13	4
12	136	1
128	128	4
149	151	1
35	36	1
53	55	1
119	120	3
24	24	3
79	80	4
109	111	2
10	28	4
10	17	2
146	146	9
15	16	3
163	163	5
42	43	4
150	150	2
116	117	2
79	88	2
145	145	4
150	158	1
25	68	1
105	119	1
143	145	3
119	121	1
111	128	1
100	157	2
73	75	2
118	120	2
135	136	2
18	18	6
5	5	1
2	4	2
120	123	3
107	114	5
151	157	1
58	106	2
95	97	2
67	70	1
85	105	2
118	118	1
120	132	1
76	163	1
98	109	1
81	81	2
16	17	4
69	70	2
39	51	1
113	119	1
14	16	1
38	107	2
126	126	2
115	121	1
123	124	1
63	125	1
88	99	1
82	85	2
0	1	3
58	96	2
1	2	3
77	165	2
0	4	1
134	147	1
72	72	1
67	85	1
20	25	1
52	64	1
6	23	3
89	157	1
83	84	2
82	139	1
77	81	1
162	165	2
76	140	1
50	98	1
136	154	1
88	119	1
81	82	1
48	48	2
80	82	2
64	64	2
93	149	1
146	154	2
2	21	1
48	72	1
138	139	1
121	145	1
92	115	2
70	72	2
137	141	1
7	8	2
41	43	1
120	153	1
62	62	2
147	152	1
3	4	1
47	48	2
126	128	1
46	50	1
49	49	1
109	110	1
87	89	1
112	113	2
9	19	1
162	166	1
36	37	1
33	33	3
160	168	2
26	26	1
39	54	1
161	164	1
161	166	1
81	106	2
5	145	1
114	118	1
100	105	2
76	87	1
38	39	2
50	73	1
22	55	2
64	69	1
136	142	1
156	159	1
87	88	1
88	145	1
81	84	1
95	100	1
97	100	1
112	127	1
121	122	2
100	113	1
13	14	1
155	156	4
87	87	1
155	158	3
106	107	2
48	51	1
19	47	1
113	130	1
117	155	1
89	119	2
128	136	1
34	145	1
46	51	1
133	134	2
136	137	1
21	24	1
76	143	1
169	169	1
102	106	1
109	161	1
96	106	1
41	128	1
42	106	1
73	74	1
6	25	1
146	168	1
161	163	1
