95	95	5
110	111	9
18	18	11
5	6	2
99	99	11
79	79	13
128	128	20
138	138	9
14	14	15
8	8	11
38	38	13
89	89	17
13	112	3
4	5	1
80	80	18
78	78	11
83	83	4
84	86	7
22	26	6
12	13	4
88	88	10
98	98	5
121	121	15
7	7	16
80	81	2
9	11	1
81	81	16
31	31	21
24	25	4
36	36	11
88	89	6
25	26	3
4	7	2
27	27	11
20	20	16
25	25	18
117	117	6
26	26	17
10	10	21
109	109	15
108	108	6
97	98	3
3	3	22
109	110	3
81	82	5
113	113	23
18	19	9
74	74	12
85	85	7
1	1	10
127	127	7
133	133	16
23	23	15
78	81	7
26	33	2
19	19	8
1	2	4
34	34	8
16	19	2
137	137	7
9	9	14
116	116	4
91	93	5
8	18	2
110	110	5
135	135	13
94	94	14
90	90	2
7	8	4
96	101	3
4	71	7
75	75	5
97	97	8
97	100	1
112	113	3
36	73	2
125	126	1
107	107	12
13	13	16
82	82	5
37	37	6
125	125	18
129	133	2
76	76	6
2	3	10
71	72	4
120	120	4
72	72	7
130	130	11
35	35	4
134	135	6
78	79	4
132	132	12
86	86	3
15	17	2
78	82	7
32	33	2
29	30	3
112	117	4
21	28	3
71	71	6
134	134	5
84	84	6
111	111	8
21	21	11
116	117	7
101	102	3
96	96	2
10	11	10
90	91	4
122	122	7
88	100	5
96	131	3
117	118	6
30	30	13
15	109	1
28	28	8
16	83	2
11	11	16
123	123	12
98	131	3
115	115	10
22	22	6
5	5	6
17	18	3
107	108	4
16	16	23
124	125	1
75	77	1
21	22	2
29	29	5
91	91	7
12	29	2
24	24	8
33	33	5
140	140	9
1	11	1
101	101	14
30	31	7
120	121	10
2	23	9
11	22	1
85	102	4
135	137	1
106	106	3
24	35	2
23	28	1
103	103	10
84	85	6
10	16	4
114	116	2
15	15	16
9	12	1
6	6	17
105	106	3
110	112	3
131	131	8
25	28	1
11	12	6
14	15	2
101	103	1
89	91	1
105	105	4
112	114	3
13	99	2
22	23	8
10	12	5
81	88	3
2	2	13
17	17	12
136	136	6
120	122	3
27	30	3
137	138	1
75	76	8
6	23	1
4	4	9
93	94	3
83	88	4
82	83	1
11	21	1
93	93	8
6	19	1
118	118	6
73	73	7
104	124	1
103	104	2
104	104	7
124	124	8
136	140	2
103	105	5
15	16	4
124	127	3
119	119	5
23	24	4
82	122	1
121	122	5
108	110	6
129	129	6
138	139	3
136	137	7
73	74	3
102	102	4
129	130	1
94	95	1
99	100	2
120	123	2
85	88	3
3	17	4
32	32	4
118	119	4
10	20	2
27	29	2
87	88	2
68	68	1
8	35	3
126	126	4
95	130	3
19	20	2
127	129	1
9	23	1
35	36	1
29	34	1
113	114	3
10	27	1
95	100	1
7	36	1
76	79	2
80	102	2
8	9	7
28	32	4
38	84	2
92	125	1
79	82	1
14	27	1
16	20	1
87	87	2
23	26	3
131	132	1
9	10	1
10	13	2
112	112	3
77	78	2
28	29	6
74	80	2
111	114	2
80	82	4
92	92	1
100	100	5
66	66	1
12	12	1
139	139	2
3	4	2
7	17	1
86	88	1
14	21	1
6	7	2
20	21	1
98	99	3
72	73	3
115	119	2
83	84	1
100	101	3
2	32	1
37	38	1
75	86	1
104	121	1
8	27	2
2	6	1
5	8	1
128	129	1
16	73	1
14	96	1
17	82	2
1	4	1
2	4	1
6	32	1
127	131	1
18	23	2
81	85	1
136	138	1
105	115	1
11	27	1
127	130	1
13	97	1
3	8	1
75	85	1
96	125	1
77	77	1
36	37	1
114	114	1
77	80	1
126	127	1
13	14	1
