66	66	21
29	29	18
54	94	3
23	23	13
31	31	18
51	52	11
58	58	16
72	81	6
71	92	1
74	78	2
21	21	12
94	95	9
47	47	13
82	82	28
57	77	4
38	46	1
67	67	14
50	69	4
57	71	5
57	61	2
37	37	9
74	74	18
73	73	35
31	37	4
74	75	4
105	105	25
69	69	26
35	38	3
53	74	3
44	44	10
50	51	14
65	66	6
22	22	25
87	89	3
71	107	5
76	76	25
84	88	1
100	106	3
94	94	42
104	104	12
63	64	13
90	90	31
36	36	39
41	41	24
63	68	1
50	55	1
48	48	9
71	71	22
50	50	20
72	80	3
56	57	3
99	99	19
103	104	7
103	103	34
101	101	25
91	91	19
28	48	2
83	90	2
36	58	2
80	80	16
30	50	1
60	60	17
94	98	1
24	57	3
53	56	2
78	79	11
81	81	13
22	94	2
24	56	1
98	99	9
57	75	5
85	87	4
20	20	17
77	77	17
61	61	15
45	45	24
64	64	36
37	40	1
63	63	18
49	56	1
25	28	2
73	93	2
69	74	3
42	42	21
68	68	22
99	107	5
88	88	38
84	84	26
23	24	1
79	79	20
86	86	18
61	65	1
92	92	22
25	26	2
51	51	29
71	73	3
26	56	1
67	103	1
90	105	9
35	36	5
51	55	1
20	21	9
77	96	2
46	46	18
95	95	20
56	56	22
70	74	3
61	67	1
78	78	21
102	103	4
62	70	9
88	91	3
60	69	4
93	94	2
102	102	10
97	98	11
31	33	1
39	39	8
43	44	10
87	87	18
67	68	1
62	63	8
85	85	17
100	100	26
28	30	6
22	41	2
40	40	12
32	32	18
106	106	12
98	98	18
92	93	2
65	65	24
27	45	2
34	56	2
59	60	8
47	69	2
47	68	1
22	58	3
62	62	20
33	33	13
92	102	3
82	83	3
42	91	1
89	89	10
66	67	4
61	62	5
88	98	4
53	93	3
64	68	2
27	27	21
75	77	3
40	59	1
73	74	2
84	87	2
97	97	22
101	102	6
26	33	2
63	80	3
42	100	2
93	105	2
43	100	1
34	34	8
83	87	8
24	24	18
58	59	1
70	70	23
64	66	7
61	98	2
52	53	2
88	101	7
38	47	2
80	81	8
26	26	6
24	34	3
35	54	3
28	28	9
52	52	12
76	104	2
92	100	2
53	53	20
45	48	4
38	38	8
29	60	2
68	69	3
100	101	13
85	86	4
74	95	2
51	74	2
29	30	5
55	55	18
51	54	2
76	77	5
52	80	4
26	55	1
83	83	9
30	31	3
36	39	3
62	82	7
52	93	3
33	34	8
71	82	4
71	97	2
54	54	29
37	38	4
43	43	14
53	54	6
97	99	4
52	55	6
57	57	23
25	38	1
49	70	6
39	46	6
97	106	4
46	49	2
65	75	3
99	100	6
48	61	4
82	101	2
64	73	4
27	30	3
29	39	3
84	86	1
47	48	8
47	82	4
68	85	1
72	72	16
21	24	3
35	35	24
25	25	8
81	99	2
69	79	1
95	100	2
80	88	1
66	69	3
83	86	4
65	94	3
55	74	1
79	87	1
49	65	4
63	69	3
78	105	5
40	41	4
27	41	4
42	46	3
69	100	4
75	75	16
69	86	4
49	59	3
93	93	22
42	45	1
21	59	5
32	33	4
36	37	6
49	49	10
25	27	1
30	37	4
57	58	6
70	75	1
69	75	6
38	45	1
80	98	3
86	101	1
66	68	5
69	78	3
74	91	3
66	86	2
82	84	1
48	91	4
31	32	5
64	67	5
89	102	3
76	91	1
75	76	4
75	96	2
63	75	1
54	95	3
27	49	4
36	57	1
56	67	2
77	105	1
38	59	1
60	61	3
68	70	3
19	19	1
73	82	5
84	85	5
71	90	3
83	84	6
99	102	1
70	88	3
61	66	2
24	51	4
20	44	3
49	80	2
68	104	2
56	58	1
77	82	3
79	80	2
21	23	4
46	48	1
77	89	2
79	83	2
33	37	5
96	100	4
48	60	3
35	39	2
77	85	4
89	90	6
21	57	1
71	72	1
29	31	4
46	61	2
23	25	1
39	40	4
82	103	3
46	60	1
72	73	5
39	54	2
81	90	3
59	59	8
48	96	1
30	30	18
25	58	1
24	25	3
66	73	5
47	49	5
48	80	1
61	70	1
91	96	2
79	82	4
94	101	2
19	25	4
95	97	2
27	39	1
97	102	2
26	27	4
72	76	1
70	92	1
28	47	3
62	91	2
74	98	3
66	70	3
75	80	5
27	29	6
32	37	2
29	56	1
53	64	1
51	60	2
21	26	2
26	39	2
35	61	1
77	78	2
35	55	2
72	75	6
61	63	1
64	100	7
81	84	5
86	89	1
64	65	2
45	49	1
20	48	2
44	52	1
36	60	1
65	85	1
71	81	2
70	85	5
57	84	2
48	51	2
73	89	2
83	91	1
60	65	3
65	68	3
72	96	1
33	91	3
75	82	1
94	100	2
55	69	1
75	91	1
87	88	1
88	107	2
60	75	4
38	39	4
81	82	5
92	97	1
45	99	1
48	49	6
43	65	2
41	42	1
79	86	1
83	85	1
66	104	1
81	93	2
32	57	2
50	78	2
45	46	2
62	71	3
44	74	1
43	48	1
85	102	2
101	107	2
89	95	2
48	65	3
66	87	1
36	40	1
90	97	2
62	67	1
73	83	1
101	106	1
74	77	4
93	96	2
96	96	9
72	92	3
61	76	4
67	86	2
79	81	4
78	106	5
27	46	1
55	96	1
82	90	2
86	98	2
33	38	3
76	81	2
28	36	2
99	104	1
102	105	1
86	99	3
36	59	2
69	70	8
24	48	4
85	100	1
22	55	1
88	89	3
98	107	1
66	80	1
44	45	5
93	98	1
86	96	2
36	56	2
75	90	2
27	28	6
23	78	3
66	96	1
43	45	2
78	86	3
76	97	1
76	79	1
71	99	1
38	60	1
33	35	3
87	100	2
49	53	2
24	41	1
44	50	1
82	89	2
75	97	2
50	75	2
24	44	3
55	56	4
73	86	2
64	74	2
51	79	1
26	29	3
71	80	1
67	70	1
31	36	1
78	87	2
28	54	1
31	60	1
46	85	1
61	107	1
56	93	1
52	64	1
83	101	1
30	32	1
90	91	2
93	97	1
21	22	3
31	43	2
66	79	1
54	63	2
39	47	1
82	98	1
103	105	1
86	87	4
67	85	1
100	103	1
49	50	1
42	43	4
75	79	1
43	55	1
68	100	1
44	55	1
35	59	1
27	48	1
94	106	1
31	38	1
64	69	1
44	46	1
35	53	1
29	48	1
24	37	1
62	64	2
82	99	1
29	42	1
82	106	1
28	46	2
63	87	3
83	89	2
38	56	1
34	36	1
55	77	1
61	97	1
70	71	1
27	43	1
91	92	1
79	88	2
91	106	1
47	59	3
79	90	1
48	55	1
66	75	1
50	74	2
34	40	1
27	31	2
94	102	1
65	102	2
42	63	1
106	107	1
53	57	2
71	76	3
27	50	1
54	73	1
47	61	2
85	89	1
22	36	2
97	100	1
30	36	2
47	75	1
64	91	3
77	79	1
56	84	1
95	96	2
48	64	1
44	98	1
53	59	1
85	90	1
104	105	1
81	83	1
94	103	1
44	99	1
20	39	1
69	94	1
90	106	1
82	91	1
58	84	1
67	91	1
59	79	2
22	44	1
107	107	1
46	47	1
23	44	1
72	82	1
92	95	1
22	66	1
76	96	1
52	84	1
41	56	1
90	101	1
78	90	1
91	104	1
59	95	1
45	60	1
72	74	1
25	29	1
83	96	1
75	83	1
69	85	1
66	95	1
