11	11	11
103	104	2
91	91	3
56	56	12
10	20	3
65	65	2
77	77	1
14	15	1
84	85	6
18	19	1
47	47	5
60	60	8
75	76	4
75	75	1
21	31	3
34	84	4
31	104	2
18	78	1
105	106	4
33	86	2
95	107	2
59	59	2
70	82	3
51	56	3
39	88	1
114	114	5
73	74	6
93	93	4
96	96	8
22	46	2
18	18	3
42	42	5
13	25	2
13	13	4
26	26	5
58	58	2
46	46	2
35	39	6
90	90	5
9	9	3
40	86	2
94	94	3
38	38	7
73	73	1
21	21	10
58	86	9
12	12	3
126	128	3
72	72	2
15	30	3
106	106	2
61	61	2
120	121	2
15	31	2
9	11	2
82	82	1
83	93	4
25	25	4
81	81	2
2	2	4
118	119	3
115	115	6
30	33	5
32	102	4
127	132	2
82	83	5
119	119	5
126	133	2
30	30	2
99	99	3
99	100	4
17	17	5
44	44	1
84	84	1
55	55	3
33	85	1
80	80	4
14	36	4
108	109	6
40	40	3
61	77	1
97	97	4
27	27	2
88	88	3
31	103	2
105	105	5
8	8	3
22	23	3
40	50	4
125	125	1
101	107	3
67	67	1
57	59	5
92	92	2
45	45	5
69	70	2
100	100	7
112	114	2
16	16	3
37	39	4
83	85	2
0	0	6
16	44	4
43	43	1
21	104	2
101	101	9
91	92	6
108	129	3
29	30	2
1	2	1
81	86	3
94	107	3
121	122	4
29	44	1
43	45	1
62	63	8
64	68	4
23	23	3
6	6	1
87	88	2
89	90	1
58	90	1
1	1	2
120	125	2
98	98	3
69	82	4
56	81	1
17	20	4
34	34	1
16	29	2
41	42	1
28	28	4
62	62	5
66	66	1
118	118	1
78	79	2
57	81	1
27	45	3
113	113	4
4	6	1
10	10	3
79	79	2
28	29	1
7	8	1
77	83	1
6	7	1
105	108	2
20	33	2
13	21	2
95	95	4
86	86	1
3	61	2
127	128	1
128	128	1
107	107	3
127	127	2
5	5	1
32	32	1
7	26	2
23	27	1
7	7	2
108	108	2
11	12	2
12	24	1
19	30	1
113	128	1
117	128	2
36	37	1
59	86	1
70	81	1
33	33	1
106	115	3
111	112	2
111	111	2
115	116	1
124	124	5
40	49	1
72	74	2
121	130	1
51	55	1
122	122	1
95	98	1
18	95	1
105	109	2
92	99	1
121	124	1
8	23	1
102	102	1
41	41	1
13	14	1
56	87	1
9	17	1
131	132	1
59	84	1
114	127	1
76	76	2
29	29	1
103	103	2
5	6	2
19	95	2
102	104	1
63	63	2
39	49	1
46	73	2
106	114	2
44	45	1
68	69	1
69	83	1
51	51	1
59	81	1
37	38	1
68	68	1
98	134	1
22	22	1
8	9	1
