158	158	4
143	144	4
36	36	4
30	30	2
167	167	7
54	145	2
5	5	8
121	121	4
192	192	4
32	32	5
182	182	1
134	134	7
176	178	7
153	153	8
78	78	10
62	63	6
22	68	2
51	51	2
79	113	2
196	196	7
170	173	2
39	39	7
169	182	3
28	28	9
111	111	8
138	139	8
9	13	8
176	176	1
29	29	2
169	169	2
48	48	2
144	150	2
119	119	2
166	167	2
16	63	3
59	59	3
34	34	9
86	87	4
132	132	4
187	187	7
140	140	1
25	36	2
144	144	6
130	132	5
147	148	9
96	103	3
98	100	4
148	165	4
24	25	4
165	167	2
63	63	16
2	4	2
18	67	1
8	27	2
162	163	5
73	73	4
104	106	2
191	191	4
123	123	1
177	177	2
76	80	4
12	12	2
142	143	6
102	115	1
89	89	2
162	177	2
55	56	8
175	175	7
40	40	6
88	88	4
135	171	1
2	2	1
93	93	3
164	164	4
122	130	5
56	56	6
118	118	4
179	179	6
171	171	10
150	152	1
22	22	4
155	155	10
149	150	4
101	102	1
0	1	2
85	85	1
194	194	4
8	8	6
88	109	3
81	81	7
22	69	6
188	189	2
75	75	6
162	162	5
113	114	2
35	35	5
131	131	8
19	20	1
95	95	6
14	14	2
164	182	1
107	107	3
152	153	1
168	168	6
101	103	3
160	160	4
8	25	2
148	148	5
152	152	3
150	150	10
66	66	8
60	61	5
117	117	2
70	70	2
100	100	1
128	128	2
190	190	10
114	114	2
6	20	4
154	154	3
65	65	11
121	122	1
139	139	2
147	147	4
96	96	3
82	83	1
23	69	1
21	21	5
63	160	2
105	106	2
163	173	3
115	115	3
149	154	2
6	34	1
95	96	7
76	76	1
42	155	2
104	105	4
45	123	1
0	0	3
186	186	4
13	40	2
141	141	3
110	110	6
10	10	4
61	61	6
18	18	2
11	43	2
68	68	4
149	149	4
31	31	1
183	183	2
62	178	3
66	67	2
108	108	7
131	134	2
20	20	1
14	42	6
134	138	3
10	44	2
76	77	1
24	69	3
40	42	2
31	56	1
126	129	4
62	156	2
16	16	4
35	83	7
143	143	2
1	1	4
80	81	2
112	115	2
35	84	1
39	152	4
25	67	3
169	170	1
79	79	4
8	26	2
157	158	2
122	145	2
27	37	6
14	16	1
7	41	3
98	98	2
72	72	4
129	130	1
191	192	1
49	49	4
166	166	2
9	80	3
135	136	1
1	14	2
5	66	1
160	177	1
99	99	2
148	149	2
21	131	2
3	41	6
14	155	2
123	140	2
10	60	2
151	151	3
98	99	2
116	118	1
126	126	2
119	120	2
123	142	3
6	6	5
173	173	2
197	197	4
43	45	3
62	158	2
34	35	2
3	7	1
63	157	5
47	47	8
40	152	5
125	125	3
77	77	2
94	96	2
174	174	6
11	58	1
16	17	5
12	142	5
42	154	1
181	181	2
109	109	3
106	107	1
163	163	4
141	143	4
28	29	3
105	105	3
39	40	1
87	87	5
86	86	2
20	63	1
175	176	1
193	194	3
168	169	4
100	101	4
20	21	1
5	67	2
8	24	2
70	71	1
15	156	2
127	130	3
87	88	1
52	53	3
83	83	3
58	58	3
0	6	2
172	172	5
80	80	2
104	104	5
159	159	1
106	106	3
133	133	5
12	43	1
26	26	1
187	191	1
9	9	3
113	113	1
50	51	1
116	116	6
12	42	5
89	113	1
139	140	1
18	19	2
25	25	3
101	144	2
42	42	3
67	67	3
45	45	2
117	118	1
161	161	4
0	67	5
23	23	5
81	83	1
33	55	2
74	74	5
45	197	1
124	126	2
69	69	4
104	122	1
63	159	4
26	27	1
130	130	6
149	153	1
28	36	2
62	64	3
163	181	3
67	68	3
34	39	4
187	190	6
45	46	1
161	162	2
30	37	1
174	178	1
123	126	2
137	137	5
6	26	1
122	122	3
138	140	1
127	127	2
3	4	1
56	72	1
34	83	1
50	50	1
39	82	3
33	33	1
33	83	2
55	55	1
19	19	1
137	138	1
127	128	2
29	30	1
57	77	3
115	116	2
74	75	2
30	85	2
185	185	2
46	46	1
138	138	1
153	154	1
4	4	2
1	2	4
66	133	1
124	197	1
27	39	1
82	82	1
180	181	1
84	84	1
2	159	1
159	177	3
2	3	1
120	130	1
161	174	3
148	164	1
112	113	1
170	170	3
162	182	1
194	195	2
171	172	1
43	46	2
104	120	1
169	173	1
134	137	1
7	26	1
55	72	1
90	90	1
34	38	1
93	94	1
193	193	1
166	177	1
180	189	1
85	86	1
157	178	1
94	97	1
39	81	1
136	182	1
38	38	2
82	152	1
1	3	1
47	196	2
37	39	1
164	180	1
159	160	1
129	129	2
144	149	2
172	175	1
124	124	1
79	101	2
23	24	3
27	38	1
101	112	1
77	78	2
110	111	1
34	82	2
34	36	1
37	37	2
184	184	2
196	197	1
41	41	2
133	135	1
7	7	1
31	73	1
190	191	1
170	171	2
71	71	1
129	141	2
60	60	1
123	128	1
15	15	1
130	131	1
38	39	1
15	155	1
173	188	1
94	102	1
