51	51	17
73	73	8
82	90	2
79	79	2
55	55	9
90	90	6
58	58	9
22	22	8
29	29	6
100	101	6
71	72	10
54	81	2
76	76	13
31	32	6
50	50	12
59	59	12
42	42	11
70	70	12
23	23	12
54	54	11
41	41	4
66	66	9
56	57	2
77	77	10
22	23	1
64	64	13
94	94	12
85	85	7
65	65	8
67	67	13
99	99	9
91	91	10
40	41	2
62	62	6
20	21	2
72	72	8
95	95	14
86	86	8
100	100	15
60	60	9
47	47	2
31	31	15
90	91	6
43	45	2
26	86	2
36	37	1
43	43	2
22	26	3
97	99	5
37	37	5
41	42	5
99	100	1
96	97	4
32	33	6
102	102	10
91	106	1
25	38	1
70	73	2
57	57	9
38	42	2
82	82	3
33	33	12
87	90	5
33	60	4
24	48	2
101	101	10
96	96	7
92	92	11
81	81	7
64	65	1
88	88	8
63	63	5
38	45	5
104	105	1
35	35	5
56	56	9
57	58	2
39	39	5
97	97	6
89	90	2
34	34	16
25	25	12
105	105	10
74	74	13
91	99	4
68	68	10
27	29	2
24	24	9
24	41	3
93	94	1
60	61	4
30	72	2
84	84	9
37	38	3
43	44	8
26	87	1
21	21	6
22	86	1
78	78	5
103	103	11
58	59	1
80	80	5
50	74	1
93	93	11
83	84	2
92	93	1
37	42	1
54	55	2
44	45	3
101	102	2
22	29	1
67	68	1
72	73	4
53	55	1
96	99	3
31	33	1
33	34	2
27	27	7
36	36	10
88	98	1
61	62	2
30	30	4
21	40	1
49	49	6
30	31	1
91	92	4
72	81	2
53	53	4
56	83	2
69	69	3
30	41	2
82	83	2
88	90	1
63	64	1
52	52	7
70	71	1
61	61	4
23	64	3
58	60	1
31	85	1
89	89	9
27	42	2
32	34	2
65	66	5
40	40	4
91	95	2
48	48	4
36	55	1
106	106	3
39	42	2
98	98	4
90	103	1
51	52	3
45	54	1
89	92	2
22	35	3
32	32	3
97	98	4
20	20	1
107	107	1
82	86	1
75	75	5
39	79	1
74	75	3
46	49	2
69	77	2
63	69	2
68	95	2
68	74	1
26	27	5
28	28	1
35	50	1
21	70	1
104	104	8
73	74	2
35	36	1
38	38	2
63	71	1
59	60	2
54	80	2
41	81	6
69	80	2
82	89	1
103	104	2
95	97	1
45	51	1
84	85	4
45	53	1
81	99	3
33	85	1
35	37	4
37	85	2
47	49	2
85	86	1
45	45	3
29	40	1
46	46	4
75	76	2
100	105	1
49	83	1
77	93	2
75	77	1
23	24	3
19	19	1
40	42	2
92	96	1
71	71	1
58	78	1
83	85	1
56	73	2
46	62	1
24	43	3
47	48	1
31	35	1
66	67	2
24	38	1
46	52	1
29	30	3
22	24	1
85	90	1
100	102	1
106	107	1
76	77	1
20	42	1
52	53	1
27	49	1
94	100	1
21	74	1
25	87	2
30	99	1
25	60	2
21	69	1
64	71	1
29	38	1
25	26	1
29	84	1
21	50	1
89	91	1
20	37	1
87	87	1
29	39	1
