121	121	2
45	45	6
116	116	6
68	68	4
77	77	4
117	151	3
126	145	1
66	67	3
168	170	3
50	54	10
28	48	2
33	33	3
159	159	1
3	19	5
95	95	3
117	150	4
66	66	6
96	96	1
55	55	1
165	165	2
11	11	10
74	110	6
72	87	1
103	128	5
76	76	4
117	118	3
18	18	3
5	6	7
25	25	7
147	154	2
4	6	1
34	34	4
79	86	1
160	160	3
40	40	6
113	113	3
41	41	4
3	3	13
64	95	1
28	28	3
42	53	2
23	24	7
101	105	2
90	90	3
163	168	2
144	144	9
19	19	6
78	78	9
81	81	7
151	152	3
136	136	5
134	134	4
97	97	5
71	71	11
122	122	5
139	139	13
47	47	8
124	124	4
118	119	4
44	51	5
154	154	4
20	20	3
123	127	6
148	164	2
24	25	1
120	146	1
145	168	4
110	110	4
138	138	7
27	41	1
16	40	1
35	41	2
126	127	3
164	168	4
24	24	6
27	36	1
0	0	4
150	150	6
106	125	1
108	108	4
64	65	1
72	81	1
97	98	7
123	143	3
75	85	6
73	73	6
149	156	3
111	111	6
106	108	2
129	129	2
62	81	2
2	39	2
11	12	3
147	148	1
162	164	4
83	109	2
137	137	18
34	93	1
143	159	3
104	104	8
38	39	3
149	149	12
44	44	6
123	124	5
151	151	16
92	92	3
18	19	4
3	9	4
106	132	3
9	10	3
110	131	2
66	75	2
75	75	5
36	36	2
13	13	6
50	50	6
132	132	4
71	88	3
22	22	2
129	142	5
135	135	3
114	116	5
57	57	3
122	124	9
84	98	1
131	131	13
101	101	7
168	168	3
37	37	7
126	126	4
106	106	2
39	39	5
145	145	2
35	56	2
170	170	4
131	132	2
103	104	3
21	36	3
26	26	8
22	135	1
82	82	4
23	49	9
49	49	9
82	95	3
83	94	3
90	107	1
125	125	10
84	84	4
121	126	1
110	124	2
139	140	5
27	27	5
155	155	6
56	57	4
148	149	3
136	155	4
107	107	3
117	117	2
91	116	1
129	130	3
127	127	1
86	99	2
75	100	2
116	134	1
55	56	3
45	51	1
133	137	2
128	135	5
75	84	4
118	118	2
2	18	3
123	123	6
161	166	2
40	50	4
85	102	1
61	81	3
148	165	5
161	163	2
166	168	1
126	128	3
116	132	1
100	102	6
103	124	1
151	155	1
91	117	1
2	2	2
76	100	2
98	98	5
109	113	3
86	86	2
77	81	2
91	92	1
102	105	3
138	153	1
38	40	2
146	146	7
1	8	1
69	86	3
13	20	2
19	22	2
165	168	1
7	8	3
21	21	5
121	122	6
148	148	4
89	90	2
3	22	1
36	37	3
41	42	3
52	52	5
5	27	3
16	16	1
2	4	1
106	107	3
42	42	4
3	27	2
133	133	2
82	120	2
74	74	5
95	102	1
143	143	6
164	164	5
64	64	3
46	70	5
144	145	2
153	154	2
63	63	1
53	159	4
102	103	6
67	77	3
87	88	3
149	158	1
62	77	2
48	48	4
105	120	2
123	126	3
8	8	6
99	99	4
45	46	3
44	73	2
20	39	1
125	126	1
64	66	1
149	157	2
61	68	1
62	78	2
80	80	3
155	156	3
28	47	1
119	141	1
88	97	1
70	71	1
129	131	1
118	143	4
88	88	3
63	71	3
91	91	8
159	161	3
153	153	1
136	156	1
157	157	5
130	131	6
50	69	2
23	25	2
10	35	3
104	121	3
121	128	2
4	9	2
68	87	2
16	17	4
124	125	4
96	152	4
57	145	3
9	9	4
140	166	1
105	106	1
40	48	2
66	78	5
63	64	4
95	103	3
136	162	1
51	77	1
99	100	2
143	158	5
21	35	1
92	123	2
19	39	3
116	121	3
143	144	2
51	73	4
16	56	1
52	55	3
4	19	3
168	169	2
7	7	5
56	56	3
129	135	1
46	54	1
87	87	3
0	8	3
93	93	2
12	15	1
156	157	1
117	141	2
161	165	2
10	12	2
71	109	2
163	163	2
105	112	1
48	49	1
1	2	1
8	9	2
132	156	3
149	150	1
137	138	1
116	130	1
67	89	2
122	126	1
123	150	2
97	114	1
105	109	1
98	99	3
89	89	1
129	132	2
0	7	2
64	69	1
85	87	1
146	159	1
142	143	2
97	101	2
21	24	5
27	47	4
115	115	4
109	109	13
117	159	1
43	43	5
4	39	3
42	56	3
5	12	2
93	95	2
90	105	1
53	55	1
72	72	4
119	119	7
21	41	1
169	169	2
37	41	2
57	93	2
45	74	2
88	90	1
132	135	1
10	10	2
6	6	2
11	17	1
45	54	1
39	40	2
147	153	2
135	136	2
4	8	5
142	142	2
167	167	3
5	9	4
15	17	3
65	65	4
56	73	1
52	74	1
12	13	2
85	88	1
64	82	2
51	54	1
57	72	1
70	102	4
63	69	2
44	71	1
103	121	2
43	158	1
136	164	2
136	147	2
42	50	2
129	133	1
26	48	1
61	61	1
78	79	1
37	40	1
112	112	1
23	23	3
126	152	1
100	100	5
17	17	2
118	161	2
38	132	1
84	110	1
147	147	2
64	68	1
15	15	2
88	100	2
106	109	1
140	163	3
70	70	1
139	168	1
117	167	1
116	122	1
16	50	2
2	41	3
3	38	1
115	121	1
24	77	1
33	56	3
114	114	1
112	126	1
5	10	3
94	94	1
145	169	1
92	122	5
50	62	1
152	154	1
51	57	1
66	68	1
120	120	3
166	166	1
101	102	2
62	63	1
111	135	1
158	159	2
107	135	1
162	162	1
8	16	2
51	69	1
18	20	1
14	15	1
13	14	1
112	117	1
143	145	1
79	81	1
142	160	1
103	103	3
105	131	1
74	120	1
107	111	1
114	153	1
54	77	1
23	156	1
73	75	2
77	82	1
98	111	2
71	95	1
64	67	1
118	144	1
63	77	1
51	51	1
18	21	1
27	34	3
131	133	2
84	86	1
83	85	1
128	129	1
50	55	1
97	110	1
121	141	1
90	96	2
81	91	1
136	141	1
3	4	1
57	144	1
136	161	1
49	54	2
128	128	1
85	95	2
1	1	1
91	115	1
87	89	1
69	74	1
91	107	1
85	85	1
130	130	1
83	83	1
