213	213	6
75	109	3
79	111	3
79	101	6
55	59	5
178	179	5
145	145	10
208	208	33
81	118	7
10	10	17
11	11	14
61	152	3
69	70	7
31	31	3
50	50	14
38	50	2
97	97	16
78	91	2
62	164	5
74	74	11
26	64	1
12	12	19
75	89	5
61	61	10
158	177	7
87	211	2
54	57	6
18	19	11
71	86	2
178	226	5
80	80	14
169	169	18
33	33	19
87	88	8
213	222	5
1	72	3
172	226	1
24	116	9
178	216	2
114	114	21
162	173	1
28	28	19
227	228	3
240	241	4
161	161	10
115	181	5
92	109	4
232	233	9
225	225	12
195	243	5
155	195	4
116	116	30
233	233	15
204	204	12
188	195	4
73	73	10
42	42	15
108	108	9
231	233	2
244	244	11
182	182	15
6	6	9
191	192	2
235	235	9
191	205	5
161	207	3
56	232	2
181	181	17
47	47	9
146	149	2
45	45	21
178	178	15
30	30	13
241	248	1
175	176	1
46	185	4
207	214	3
115	115	18
175	175	12
55	58	1
180	222	7
191	191	11
1	1	11
206	206	5
37	37	25
76	117	3
58	106	2
218	232	2
201	201	23
14	14	10
89	89	8
118	118	6
53	53	17
170	229	1
110	110	15
99	100	3
21	21	8
76	76	14
51	51	11
66	66	19
156	156	23
180	182	3
77	109	1
193	213	2
148	163	2
173	175	2
105	107	3
60	120	2
18	90	6
64	64	18
68	68	19
65	74	2
82	96	2
65	107	1
15	15	6
24	24	20
5	116	3
17	17	9
36	36	12
9	9	9
58	58	22
210	241	7
209	216	4
162	162	20
99	99	10
40	55	4
99	102	1
99	186	1
160	161	4
174	175	3
22	22	11
156	167	10
215	237	4
92	110	5
6	104	2
56	75	4
37	38	4
157	165	4
47	48	12
211	211	13
236	236	11
149	151	4
201	202	16
202	204	9
78	78	8
180	225	2
111	118	7
21	24	3
153	153	10
173	196	3
176	213	1
43	43	13
172	172	15
205	205	15
9	10	3
74	109	1
98	98	10
218	218	9
19	103	2
5	5	20
26	27	3
184	184	20
5	19	3
118	119	4
180	180	14
109	109	7
82	91	2
179	233	3
35	35	11
171	171	13
82	82	10
215	215	30
49	49	11
67	67	16
203	204	9
203	203	7
208	239	6
176	176	18
73	233	2
90	95	3
44	58	1
239	245	2
117	117	8
248	248	10
73	112	7
158	158	22
72	73	7
229	229	11
42	68	1
176	217	1
23	23	8
74	94	1
66	67	3
34	34	19
40	41	1
80	98	2
67	107	4
210	210	2
210	229	3
73	77	4
69	107	5
3	3	7
195	195	7
69	69	24
4	4	14
119	119	14
101	101	6
39	39	7
64	92	1
152	199	3
50	76	2
226	226	11
46	46	21
7	41	3
235	236	6
87	87	4
64	66	5
4	5	8
94	94	14
180	237	3
163	163	7
106	243	8
97	98	7
241	241	11
157	157	13
26	26	17
31	32	3
71	232	2
48	48	26
59	61	6
212	235	2
90	90	21
61	64	3
7	8	2
244	245	7
112	112	14
52	52	25
44	53	2
197	197	4
20	116	2
88	88	11
41	112	2
185	185	14
104	104	3
104	106	2
193	225	3
20	20	5
20	27	4
8	8	12
57	57	9
182	186	5
181	199	6
68	69	8
167	240	1
151	151	17
171	226	3
146	146	9
56	72	5
4	11	2
5	84	3
237	237	25
115	145	2
76	107	4
168	202	10
246	246	12
52	83	3
93	94	4
12	84	7
226	227	3
41	41	8
86	90	2
77	112	2
79	152	4
187	188	5
62	63	3
94	112	4
56	70	3
220	220	14
107	107	17
75	76	6
19	19	24
180	192	13
217	243	6
50	64	1
182	191	1
111	111	12
245	245	7
83	83	14
80	85	2
145	231	3
145	160	7
66	110	2
29	109	1
72	92	4
28	29	4
162	191	4
196	197	8
154	196	4
194	194	5
54	203	3
181	190	1
74	117	2
170	170	21
207	207	12
91	91	5
144	160	2
49	50	2
156	177	4
160	160	6
217	218	12
180	221	4
71	110	2
4	116	5
225	235	7
181	221	4
14	47	3
192	194	9
103	191	2
247	247	16
209	238	2
183	200	2
45	46	12
33	38	3
65	238	5
193	193	8
155	168	2
86	87	8
93	93	18
12	14	4
92	96	6
177	177	18
187	187	11
34	175	4
82	86	1
70	71	8
194	212	2
112	186	5
17	18	3
113	113	7
219	219	15
187	207	6
199	203	3
168	168	7
204	214	1
85	85	25
182	200	2
221	221	15
61	177	3
46	52	4
154	175	4
246	247	3
157	187	4
154	154	9
199	205	6
10	14	5
63	64	7
222	222	11
87	109	1
237	240	5
45	155	2
60	61	4
238	239	4
109	110	10
55	55	10
247	248	7
105	105	7
45	67	2
224	224	13
209	249	1
179	245	1
18	30	5
78	95	1
176	229	2
51	52	3
64	65	10
17	19	3
217	227	2
32	32	3
68	71	2
216	218	4
53	55	4
165	165	8
156	165	4
34	36	3
178	243	1
67	68	6
175	187	1
193	214	1
77	77	9
210	222	3
41	56	5
2	2	4
33	41	5
155	173	3
225	244	1
23	37	2
150	151	7
100	100	11
232	232	15
196	207	2
55	118	1
198	198	12
84	107	2
219	234	4
32	203	1
63	66	3
4	85	4
58	92	1
54	54	23
213	239	3
1	2	5
38	87	2
193	196	3
216	216	5
213	243	4
56	198	3
1	156	2
80	116	2
81	81	16
244	246	5
60	181	4
197	199	1
194	198	3
115	118	4
85	88	5
152	169	3
16	67	1
65	239	3
8	23	3
228	246	5
63	200	7
65	66	3
84	85	6
89	90	3
164	164	8
212	212	7
194	200	2
239	239	7
58	64	1
167	167	7
77	78	2
209	242	5
29	30	4
60	71	5
25	27	3
223	223	12
31	33	1
106	106	11
77	90	4
66	149	3
199	220	1
96	96	17
185	186	3
71	71	12
97	150	2
178	210	2
63	115	6
53	112	1
107	108	3
82	83	9
182	246	2
96	98	5
2	26	5
229	234	2
61	63	3
88	236	2
12	22	1
15	18	4
11	79	5
234	236	3
14	68	3
223	236	1
42	160	1
202	210	2
156	194	3
59	59	14
217	220	1
167	168	3
168	246	1
180	244	2
167	204	2
189	190	3
115	116	11
199	199	6
17	100	3
183	183	6
234	234	11
241	246	2
228	229	3
67	119	2
194	197	1
152	154	1
80	82	6
161	208	2
65	65	7
113	114	1
106	119	3
3	8	3
223	225	3
55	70	4
152	152	4
30	31	3
196	198	3
38	39	5
83	84	5
183	184	1
184	200	5
154	169	3
66	76	3
223	233	1
64	79	1
90	91	1
187	204	3
74	77	2
73	85	6
155	155	9
1	225	7
15	16	3
24	185	1
62	225	1
150	150	9
65	89	3
111	112	2
230	231	2
92	153	7
209	246	1
173	208	2
166	166	6
74	91	3
192	200	1
33	45	1
75	105	2
215	218	2
169	171	4
105	186	2
95	95	12
6	7	2
181	182	2
242	242	8
182	193	2
70	116	2
34	49	1
91	110	2
71	72	5
231	248	2
67	95	4
207	208	2
78	106	4
208	224	2
50	96	1
191	248	1
95	97	5
175	212	2
104	152	1
206	207	2
162	168	1
183	210	6
210	249	1
213	227	6
1	82	3
198	220	3
175	177	3
63	98	3
2	79	2
66	106	1
58	186	4
195	224	3
204	215	2
36	201	2
189	189	23
58	63	5
59	96	1
117	118	3
86	86	13
208	234	4
157	209	7
209	209	5
184	210	1
217	221	4
42	117	2
162	207	2
31	102	3
112	153	4
15	60	2
156	166	5
229	246	1
202	202	4
1	28	6
213	235	3
49	51	3
156	161	5
196	196	2
106	107	2
217	228	1
92	92	7
53	117	5
223	224	3
83	96	1
163	164	5
95	115	1
36	37	5
196	199	1
40	40	7
150	170	2
4	7	4
74	92	1
221	249	2
43	160	2
207	223	2
159	159	5
88	89	4
172	214	4
209	228	1
221	247	4
85	112	1
204	211	1
59	109	3
67	70	1
198	199	4
17	20	3
43	52	7
80	103	2
53	61	2
172	225	1
232	234	1
177	198	3
112	225	3
108	244	2
75	77	6
220	221	6
227	227	9
158	163	2
35	37	2
20	236	2
240	240	9
186	189	2
18	18	8
156	160	1
57	75	1
15	22	2
213	232	2
82	97	2
166	234	4
174	187	1
169	204	4
49	118	1
107	112	2
158	168	3
175	178	3
101	155	4
35	53	4
153	155	3
116	117	1
183	189	4
199	204	2
27	27	12
21	23	7
212	221	6
65	108	1
86	115	2
214	215	3
193	246	1
67	73	2
25	25	5
5	11	3
242	246	2
154	178	2
85	86	4
71	92	1
176	177	2
182	245	8
35	49	2
167	178	2
41	45	1
74	232	2
20	26	3
81	83	3
44	202	1
239	240	1
213	214	1
113	119	4
173	174	4
72	72	7
32	33	1
106	108	2
71	176	3
243	245	3
34	35	5
7	7	15
3	83	3
229	230	11
179	193	2
31	92	1
74	119	3
22	28	2
71	93	1
160	227	2
181	197	1
70	70	7
179	179	4
16	37	1
166	203	4
7	66	1
120	144	1
178	217	3
31	101	1
49	176	5
104	183	3
208	240	3
154	234	1
60	155	2
179	232	1
173	209	4
149	169	2
165	166	3
218	219	7
63	63	10
35	156	1
179	247	1
182	183	3
230	230	4
213	228	3
193	224	1
236	239	1
187	189	5
71	73	3
67	99	3
28	151	5
166	172	3
56	86	1
19	104	1
208	214	4
36	57	2
164	231	5
219	220	5
56	74	3
93	159	2
42	49	1
169	170	10
6	20	1
77	105	1
62	101	2
219	243	1
76	77	6
184	188	7
62	89	5
224	243	2
72	76	4
79	79	8
16	109	1
67	168	2
210	211	4
60	60	5
43	54	2
39	67	3
11	234	1
186	186	3
44	67	1
53	113	4
44	44	11
195	203	2
62	62	14
102	108	3
160	226	2
174	174	4
28	53	4
81	82	2
212	230	1
196	216	3
208	211	2
59	60	6
89	91	4
95	96	1
12	28	2
157	158	4
243	243	1
89	99	2
24	84	2
65	80	1
29	29	8
57	64	1
58	244	3
56	56	5
190	190	6
18	100	3
5	6	2
36	55	2
224	242	1
211	222	2
187	194	3
28	150	5
55	56	3
182	194	2
156	196	2
184	186	3
158	175	1
24	25	3
181	243	2
149	149	4
155	170	3
75	75	3
91	92	2
8	41	2
165	246	8
40	52	5
82	90	2
188	190	1
226	230	2
224	227	1
63	99	1
192	193	6
173	244	1
24	33	2
50	101	3
218	231	5
72	110	1
208	241	1
86	117	2
217	241	1
36	68	2
111	113	1
145	151	4
219	240	2
158	172	1
38	44	1
32	150	2
4	20	1
103	103	3
64	107	2
204	213	1
6	24	1
78	100	1
236	237	1
78	90	3
40	43	1
217	217	3
82	85	5
170	171	2
238	238	10
48	87	6
218	234	3
15	25	1
200	200	6
38	38	7
88	93	1
98	100	3
2	3	3
145	177	1
84	110	2
171	212	1
192	206	2
189	194	1
241	242	2
64	71	3
41	117	2
99	230	1
205	243	2
70	117	1
10	100	3
25	26	6
83	95	2
103	186	3
161	162	1
28	97	1
222	224	1
60	68	3
80	83	1
69	94	2
42	43	3
221	244	1
213	229	1
207	235	2
163	167	2
230	241	1
10	110	2
17	89	1
55	62	2
179	190	1
30	43	1
156	186	1
34	37	1
225	231	1
15	30	3
209	220	1
214	214	2
35	43	2
242	245	2
63	87	2
61	71	2
34	54	1
174	188	2
67	101	2
34	177	1
47	88	2
112	113	4
111	232	2
63	67	2
55	84	1
225	229	1
175	179	1
15	36	1
50	119	4
33	43	4
48	58	3
108	109	1
62	100	1
193	194	3
106	152	2
62	102	1
200	202	1
168	169	6
74	105	2
41	51	1
171	172	1
67	71	2
3	6	2
151	152	2
72	115	3
169	173	3
63	101	1
173	193	4
75	120	1
161	191	1
12	69	1
38	41	2
150	159	3
228	228	7
85	157	1
62	65	1
13	13	1
180	243	2
211	242	1
39	60	2
245	246	2
34	176	1
162	163	2
233	235	1
167	233	1
158	209	2
165	167	2
11	14	2
228	242	2
49	87	2
231	232	3
77	80	1
213	244	2
55	75	3
18	104	1
231	236	2
213	242	3
16	107	2
114	115	1
173	178	1
179	186	1
68	70	4
35	39	3
224	225	4
78	145	2
166	187	1
11	93	2
29	56	1
89	108	3
164	165	4
215	221	2
98	150	2
19	115	2
166	168	1
24	26	2
158	205	2
145	208	1
161	167	2
178	218	1
44	204	2
157	207	2
28	60	2
200	201	1
195	197	1
145	163	1
45	104	1
102	102	4
120	120	2
216	221	1
164	225	1
147	147	3
216	240	1
81	109	3
29	57	2
75	90	4
212	217	2
45	184	1
25	114	2
36	49	1
47	90	1
22	32	2
28	98	1
163	170	1
209	239	1
35	46	1
231	231	6
66	232	1
28	32	1
176	178	1
149	153	1
162	208	2
84	84	3
144	149	1
29	31	3
44	167	1
86	94	1
36	50	2
170	195	3
209	210	2
91	93	2
201	205	3
34	42	4
38	52	1
48	86	2
211	241	3
50	98	3
161	192	1
154	156	2
198	213	2
44	112	1
156	229	1
50	118	1
48	120	2
62	93	1
40	64	2
166	246	2
4	82	2
211	214	1
50	120	1
94	197	1
47	49	2
112	116	2
200	243	2
220	246	2
150	171	1
81	97	1
47	50	2
88	207	1
233	234	3
211	213	2
195	204	3
166	240	1
22	25	2
110	184	1
236	241	2
216	249	1
181	224	1
101	156	1
235	237	1
77	113	3
23	53	1
237	241	1
174	178	1
46	204	2
79	80	2
72	113	1
2	8	2
3	85	1
145	186	1
7	86	1
7	106	1
29	108	1
98	190	3
191	193	2
6	26	1
110	204	2
119	177	3
178	190	1
46	85	1
32	102	2
18	29	1
195	196	4
70	118	1
85	108	1
75	116	3
160	198	1
20	37	2
95	101	1
89	103	1
157	168	1
59	186	3
21	22	1
14	26	1
77	236	2
51	97	1
11	24	2
50	87	3
214	225	1
166	199	1
192	222	1
15	44	1
210	221	1
234	235	2
20	21	2
157	161	1
1	93	1
50	102	1
162	209	1
110	211	5
94	104	2
168	175	2
72	86	1
158	160	1
17	23	2
37	39	1
91	97	2
188	188	1
71	94	3
12	85	2
157	228	1
176	230	1
6	84	1
208	209	2
115	229	1
4	80	3
207	239	1
145	198	1
10	11	1
100	101	1
73	115	2
75	92	1
227	237	1
194	213	1
167	173	1
78	92	2
58	70	3
197	198	2
12	16	1
149	205	4
59	98	1
99	113	1
238	242	2
190	191	3
201	204	1
61	167	1
239	241	1
177	213	1
35	41	1
225	238	1
114	118	1
46	53	1
89	104	1
161	170	2
157	159	1
20	235	3
165	193	1
23	34	1
146	147	2
89	230	2
192	192	1
57	77	2
16	16	5
242	244	1
48	49	2
32	41	1
87	212	1
227	249	1
209	211	1
103	118	1
59	152	1
57	180	2
34	51	1
172	174	2
160	195	1
173	173	2
96	186	1
77	107	3
11	17	1
249	249	1
11	176	1
155	185	1
32	95	1
15	64	1
187	210	1
152	159	1
103	183	1
152	153	3
168	171	1
5	7	2
57	181	1
179	208	1
113	118	1
77	93	2
11	12	2
80	81	2
36	38	1
180	210	1
114	117	1
33	39	2
198	221	2
157	172	1
41	102	1
78	89	1
95	99	1
100	103	1
88	99	1
178	180	1
92	93	1
65	88	1
71	151	1
158	164	2
227	246	1
45	82	2
54	67	1
115	186	1
61	205	1
73	75	1
222	237	1
2	4	1
9	11	1
64	74	1
31	38	1
23	26	1
67	102	2
243	244	1
205	207	1
110	189	1
53	58	1
160	164	1
216	217	2
198	219	1
47	58	1
165	225	2
112	184	1
154	155	1
27	28	1
84	149	1
113	203	1
90	162	1
71	120	1
240	242	2
166	179	1
15	47	1
175	211	1
82	89	1
166	167	2
33	60	1
45	66	1
121	232	1
215	228	1
53	57	1
110	118	1
211	228	1
110	111	1
235	242	1
12	70	2
167	234	1
80	105	1
58	76	1
95	104	1
219	221	2
20	28	1
38	236	1
76	119	2
163	174	1
44	63	2
163	165	2
66	154	1
50	86	1
219	224	1
166	183	2
48	50	1
67	96	1
195	225	1
19	114	1
161	178	1
236	238	1
144	145	1
64	75	1
62	243	1
76	94	1
88	92	1
63	102	1
94	100	1
194	221	1
10	26	1
114	145	1
109	113	1
200	205	1
166	225	1
203	210	1
157	173	1
101	104	1
180	181	1
209	229	1
