64	65	4
107	108	13
103	104	12
111	111	32
20	20	21
101	101	15
96	97	18
153	153	14
132	132	19
101	118	4
63	63	21
93	94	10
34	35	15
66	142	4
29	29	12
20	22	6
108	108	9
5	6	1
130	131	15
22	23	8
143	144	1
104	104	11
33	33	21
13	14	2
65	65	26
19	19	16
4	4	24
105	105	11
93	123	7
10	10	17
124	125	11
71	71	13
70	118	4
137	137	29
10	14	5
116	116	18
23	24	3
50	50	14
129	129	15
128	128	23
38	39	13
53	53	18
154	154	25
35	36	4
140	141	18
24	24	12
77	78	21
80	80	25
6	6	23
8	9	3
80	81	5
87	93	2
77	79	13
141	141	9
38	38	25
93	93	12
67	67	28
66	66	13
11	11	23
43	43	14
5	5	19
43	44	6
10	11	9
130	130	18
123	137	5
47	47	17
115	116	10
21	21	23
39	39	29
137	138	13
95	95	21
148	152	9
146	146	15
80	82	8
83	83	30
74	80	3
7	9	4
122	122	30
34	34	8
15	15	30
87	87	16
38	41	7
13	13	28
143	143	17
96	113	3
145	145	18
99	99	13
37	37	18
25	26	7
71	73	7
17	17	12
68	68	14
12	12	9
106	106	19
119	119	18
35	35	17
142	142	18
69	69	17
152	152	17
100	101	7
39	40	8
133	133	18
27	27	12
148	148	21
27	28	9
49	49	14
90	90	8
108	109	5
86	92	1
56	57	17
141	143	7
62	62	12
14	15	11
63	64	7
138	138	26
40	40	29
24	25	19
114	114	9
121	143	3
64	68	5
151	151	21
88	88	9
54	133	3
28	28	5
69	71	9
45	46	6
100	100	14
118	118	25
144	145	7
75	76	14
31	31	14
102	116	1
111	113	5
110	110	13
68	77	2
75	75	15
87	125	6
42	42	14
96	96	14
96	99	3
117	117	18
129	130	7
136	137	8
123	123	9
30	32	1
97	98	15
56	56	20
40	51	1
47	48	2
11	12	16
83	84	11
121	121	20
131	131	27
72	72	13
150	151	12
26	26	13
98	98	19
64	64	11
33	34	16
43	46	1
102	102	11
13	135	2
63	74	2
25	25	7
53	54	6
9	9	5
86	87	2
113	113	21
134	134	22
152	153	4
7	7	9
66	67	11
81	81	24
73	73	13
78	78	19
84	84	19
107	107	8
57	57	4
52	54	3
5	7	5
3	7	2
139	139	22
54	54	6
84	86	7
147	147	18
21	32	3
113	130	2
105	106	5
16	16	15
89	108	2
4	22	4
41	50	4
65	79	4
14	14	13
109	112	4
22	22	15
48	49	8
30	30	26
50	112	4
110	113	4
99	101	6
108	115	5
125	125	15
8	11	7
24	29	4
55	56	4
115	115	18
8	10	4
44	44	20
18	18	19
83	120	2
3	3	6
54	55	6
55	62	9
121	142	6
127	128	7
69	70	8
139	142	3
81	82	5
36	36	12
45	45	7
135	135	15
8	20	2
76	76	17
46	46	18
12	13	5
9	22	1
141	142	2
107	109	1
105	108	2
102	117	7
117	118	5
5	9	2
68	72	7
77	77	10
124	124	10
32	32	8
148	149	8
102	107	2
42	55	1
74	74	23
3	21	1
85	86	13
106	107	4
3	5	2
103	103	24
23	23	8
124	127	3
79	80	5
15	37	6
109	110	7
128	129	5
50	51	3
102	103	8
127	127	15
126	126	12
92	92	7
144	144	25
9	36	1
38	79	3
54	132	4
111	112	3
70	71	2
89	90	2
86	86	13
13	136	2
122	139	1
19	20	3
46	50	1
40	50	1
131	132	8
28	29	9
8	8	5
79	79	7
39	51	1
113	114	9
94	94	18
46	49	2
68	78	6
9	71	8
6	7	11
142	144	1
141	144	8
145	146	9
28	37	3
146	148	1
73	114	1
7	8	6
14	69	3
123	136	9
73	74	8
142	146	6
122	124	4
73	75	3
102	105	4
47	70	5
67	68	4
81	102	5
39	52	1
30	31	4
150	150	14
53	133	1
53	55	2
119	136	6
25	43	2
97	97	23
122	140	2
98	99	4
3	4	2
99	100	1
16	36	2
31	32	2
9	10	4
24	49	1
39	53	1
37	38	4
42	43	15
36	37	3
136	136	14
18	31	3
6	20	2
41	104	2
48	48	24
74	79	2
40	41	2
135	136	2
15	64	2
3	9	1
54	62	2
138	139	10
115	117	4
9	16	2
76	77	4
69	72	10
17	28	1
85	85	14
83	121	1
139	140	3
98	113	1
48	50	2
120	120	3
109	109	13
29	30	2
125	126	3
30	33	5
34	36	2
84	87	2
75	77	4
48	70	3
24	30	5
74	77	1
18	20	3
55	55	9
49	51	1
40	77	1
52	52	4
47	50	3
21	23	4
62	63	5
17	19	7
91	91	1
153	154	4
74	78	2
36	38	1
53	77	2
103	117	3
65	67	7
70	70	10
46	47	1
74	75	3
24	43	3
57	58	10
86	113	2
82	82	11
125	128	4
87	89	3
121	128	1
25	28	4
28	41	1
140	140	8
136	138	7
32	33	2
118	135	3
65	68	5
13	68	2
102	133	5
106	114	2
147	148	5
112	114	6
47	69	2
4	23	1
58	81	2
92	93	6
138	150	1
149	150	1
41	41	7
34	38	1
19	32	3
15	16	2
104	105	4
142	143	9
26	29	3
38	43	1
112	113	3
94	123	1
16	57	2
99	117	2
52	53	2
85	112	1
110	117	3
90	93	1
106	119	2
54	117	1
47	71	1
117	130	4
68	69	3
100	102	2
17	57	1
41	42	3
44	46	1
111	115	3
94	110	1
16	17	7
106	116	2
109	113	3
103	106	1
101	102	4
53	70	2
122	148	1
27	30	3
135	149	1
69	73	2
112	112	6
58	58	2
107	119	1
53	64	2
79	82	4
139	148	2
149	149	11
3	18	1
16	64	3
29	36	1
129	135	1
62	74	4
49	115	3
76	118	1
23	31	2
42	111	1
79	81	2
78	100	1
17	18	9
63	83	3
119	122	1
51	51	4
71	72	3
16	37	1
44	45	2
3	53	1
96	112	1
13	16	1
102	106	1
71	76	2
130	132	1
92	124	3
121	126	1
85	93	2
48	53	1
92	144	1
128	150	3
98	100	3
40	55	2
88	107	1
114	117	2
72	73	9
51	52	4
134	135	1
18	29	1
25	57	2
144	151	1
87	124	1
65	66	2
77	118	2
144	146	1
139	146	1
75	78	1
78	79	2
144	150	1
140	146	1
7	19	2
46	48	1
10	13	1
126	127	2
61	62	4
77	135	1
118	119	3
27	36	2
141	145	2
53	72	1
50	52	1
16	38	2
19	28	2
6	8	2
28	30	1
112	116	3
72	74	2
9	26	1
21	22	6
100	117	2
147	151	1
120	121	2
96	98	4
25	29	1
107	115	2
67	120	2
114	115	2
121	122	2
107	130	2
78	117	1
36	57	2
66	83	1
6	18	3
121	137	2
133	134	1
2	2	3
9	11	1
56	58	2
139	141	2
132	133	1
92	123	1
74	83	2
9	14	1
149	152	2
50	72	3
66	137	2
108	112	2
38	55	2
52	68	1
68	73	2
18	19	1
130	135	3
17	64	1
42	104	1
83	86	2
95	98	1
116	117	1
6	9	1
123	124	1
57	81	2
101	106	1
41	56	1
13	40	1
41	43	1
11	14	1
29	44	1
35	37	1
42	51	1
113	117	1
52	55	1
71	81	1
110	116	1
24	45	1
128	130	1
140	144	1
124	137	1
144	147	1
142	145	1
26	28	1
82	136	1
