216	216	11
34	34	13
203	204	6
205	205	10
155	155	15
43	52	1
84	85	4
156	156	10
99	155	7
225	225	3
232	232	7
162	163	2
40	40	9
62	62	13
203	203	14
244	244	17
119	151	1
234	234	18
8	158	2
70	70	12
174	177	6
236	236	13
58	183	7
38	39	7
172	172	12
117	117	6
104	105	5
8	8	6
243	244	5
55	55	11
31	31	11
10	35	2
153	153	8
161	161	2
76	76	7
189	189	6
164	164	9
176	177	2
43	44	8
202	202	9
186	186	9
14	14	10
18	30	2
52	52	9
45	45	15
118	118	13
110	110	10
92	92	11
184	185	4
80	82	1
45	46	2
187	208	3
44	52	1
47	48	4
170	170	8
151	225	4
92	93	4
41	101	1
28	28	12
51	52	4
120	120	4
90	100	3
186	189	3
149	185	4
56	56	3
105	106	8
150	150	10
198	198	12
173	173	8
182	183	3
99	99	5
229	229	12
152	152	14
15	25	3
145	145	3
37	37	5
33	33	14
157	157	7
204	204	11
19	19	13
214	214	27
212	212	5
192	202	4
193	193	2
174	174	8
53	53	10
163	164	6
11	11	10
80	81	4
225	226	5
82	82	9
99	101	4
70	71	4
30	30	14
23	23	2
224	224	6
175	175	13
59	60	1
187	187	1
24	24	12
85	85	3
200	201	3
12	12	11
67	67	9
233	233	13
183	183	8
47	111	4
156	212	3
185	185	6
208	208	9
77	77	7
210	212	2
19	23	2
168	209	4
66	70	2
17	30	1
190	190	11
69	71	4
83	83	4
156	158	1
41	171	2
182	182	16
10	19	2
11	35	1
32	32	9
1	1	3
0	0	5
218	218	15
168	169	5
219	219	4
237	237	9
199	200	5
146	147	3
96	96	8
179	179	7
97	97	8
192	194	2
74	75	4
154	154	6
158	158	5
95	95	13
160	160	8
75	77	1
72	75	3
27	27	6
212	213	2
217	217	7
63	63	7
38	38	7
199	199	5
83	84	7
113	119	2
20	20	8
192	192	4
210	213	3
26	63	3
207	235	2
147	147	5
46	46	19
164	165	11
59	183	6
245	245	7
104	107	1
165	165	13
42	94	2
224	225	5
119	143	1
220	220	5
65	67	4
18	154	6
181	181	3
213	213	10
42	119	1
108	108	1
177	177	9
180	180	7
54	54	7
196	196	6
31	32	4
227	228	3
39	202	3
13	14	2
79	81	5
39	39	7
22	22	6
35	35	12
52	80	2
13	13	5
59	59	12
21	21	3
90	90	7
151	154	7
77	78	4
152	157	8
43	43	12
18	18	9
44	44	6
16	16	6
222	222	3
29	30	2
18	19	4
91	169	6
217	218	10
161	164	2
48	48	3
238	238	6
22	23	4
73	74	3
146	146	8
66	66	10
211	211	6
214	226	1
117	151	1
52	53	5
179	180	1
73	75	6
73	73	3
116	116	14
47	47	8
88	88	12
91	91	10
15	15	8
214	215	8
101	101	7
29	31	6
95	101	2
61	171	3
215	215	10
52	114	3
87	87	3
32	48	4
218	219	4
157	158	1
91	92	6
66	68	5
4	4	4
195	195	4
5	6	1
51	51	6
5	5	8
231	231	3
36	36	7
240	240	12
79	163	4
94	94	14
61	61	6
41	41	10
218	222	7
184	184	14
87	88	7
103	103	5
52	94	3
192	193	6
209	210	3
209	209	9
10	10	10
68	69	1
44	45	4
176	176	3
4	7	3
99	100	3
213	214	11
98	99	3
151	151	9
98	104	1
89	205	4
194	195	5
66	69	1
200	200	3
191	191	2
102	102	6
80	80	5
26	27	4
231	234	2
154	156	3
115	115	4
227	227	3
228	229	5
51	84	1
242	243	1
208	227	1
111	111	7
207	207	4
201	201	18
36	62	2
235	235	9
75	238	1
194	197	2
6	6	3
63	65	4
42	44	4
50	51	3
103	189	1
202	203	2
25	25	5
37	168	2
169	170	4
63	64	3
86	86	2
97	101	2
168	168	8
211	233	2
109	109	5
189	240	1
85	86	2
120	230	1
172	174	4
12	13	2
34	35	1
40	167	1
73	76	2
56	165	5
69	69	6
226	226	4
106	107	5
69	85	1
86	87	6
114	115	1
167	167	2
20	21	2
30	31	2
26	26	9
84	84	1
25	26	2
14	15	1
56	87	1
6	33	2
75	76	2
180	227	3
158	159	1
162	168	3
194	194	2
83	85	1
79	79	2
28	29	2
66	67	1
94	101	1
60	64	1
65	65	5
241	241	6
47	54	4
182	184	1
42	42	5
178	178	4
226	227	5
29	32	1
163	163	10
169	169	4
149	149	3
54	111	3
102	152	2
81	82	3
9	36	1
96	98	1
89	89	2
171	171	3
184	191	3
58	58	2
208	209	2
207	208	2
46	52	3
116	151	1
57	57	5
190	191	3
242	242	5
59	152	1
215	219	1
96	97	3
118	119	4
175	177	1
27	28	1
231	232	1
78	87	1
37	38	2
61	62	2
26	29	3
173	174	1
93	93	1
85	197	1
209	215	1
81	81	2
50	50	1
145	154	1
106	106	4
112	112	4
188	188	1
228	228	3
65	66	3
78	78	10
68	68	2
62	170	2
9	9	6
240	241	1
225	241	1
175	176	3
15	16	1
162	162	5
210	210	10
47	49	1
213	225	1
244	246	3
53	150	1
65	85	3
112	113	2
71	71	13
246	246	6
53	80	4
42	43	1
159	159	4
5	34	1
181	182	3
96	99	5
92	94	1
184	190	1
39	162	2
114	114	1
121	121	1
68	70	1
186	187	3
206	207	3
44	173	2
233	234	2
113	113	7
180	231	2
17	17	4
109	180	2
56	58	1
224	227	3
97	104	1
100	100	4
45	173	3
54	150	1
109	110	1
178	179	3
183	184	2
54	55	1
64	64	5
117	118	1
197	198	1
41	42	3
10	11	1
80	110	1
197	197	6
2	3	2
25	204	2
15	41	2
52	100	4
223	225	2
103	107	2
45	160	3
168	171	1
24	25	5
6	7	3
37	169	1
4	5	6
232	233	1
149	152	1
17	27	1
177	179	3
64	65	2
230	230	2
174	175	1
75	75	2
207	239	1
98	98	2
57	170	1
120	152	2
100	101	7
248	248	2
82	83	1
45	52	1
117	160	2
58	237	1
53	82	2
10	27	1
239	239	1
2	2	2
217	242	2
237	238	1
117	200	1
49	110	1
221	221	1
194	248	1
58	62	1
72	72	2
34	45	3
11	12	1
211	212	3
195	200	6
180	181	1
95	193	1
208	210	1
89	92	1
175	178	2
49	49	1
8	214	2
220	221	1
49	113	1
101	156	1
247	247	1
0	1	1
239	240	1
47	51	2
95	99	1
51	233	1
16	171	2
188	208	2
116	117	1
111	112	1
161	168	1
79	80	1
29	29	3
71	75	1
82	84	1
58	60	2
178	223	1
247	248	1
110	111	1
44	101	1
166	166	1
58	77	1
224	240	1
111	116	1
7	7	1
208	219	1
165	166	1
39	40	1
3	3	1
44	159	1
205	206	1
193	194	1
221	222	1
216	218	1
222	224	1
119	171	1
