127	128	9
61	61	7
80	80	39
60	60	21
157	161	3
167	167	27
17	17	12
109	109	23
32	32	17
130	130	13
177	178	2
149	149	18
163	163	4
165	165	15
36	95	3
141	141	12
137	165	8
106	107	3
158	159	9
6	13	5
154	154	10
87	87	30
50	50	10
16	18	4
115	115	10
73	73	16
66	66	21
4	4	4
18	20	1
113	113	21
7	8	3
24	25	4
28	28	16
21	21	16
159	159	10
124	124	11
138	138	7
77	77	11
102	102	9
32	33	2
13	13	11
122	122	19
38	39	7
168	168	24
9	9	7
72	72	18
134	134	17
34	34	5
56	58	7
106	106	18
100	126	2
41	42	5
62	63	9
7	7	10
16	16	17
100	100	7
127	129	5
177	177	6
98	100	5
107	108	12
167	170	2
24	24	20
157	158	9
41	41	13
95	134	1
84	84	10
94	126	2
20	20	13
113	155	6
175	175	13
163	165	4
55	55	23
180	180	28
111	111	16
90	119	4
10	10	24
39	39	12
119	121	4
120	125	5
121	122	4
52	52	14
72	73	2
149	150	2
95	95	11
127	127	7
13	14	8
173	173	20
24	26	2
179	179	23
120	120	10
121	121	19
52	111	5
168	175	4
33	33	29
143	143	20
16	106	3
155	156	3
147	150	7
40	40	14
128	128	16
131	131	18
61	62	4
81	81	25
9	10	15
85	103	4
114	114	25
27	101	2
30	30	19
163	167	5
74	74	17
113	114	4
0	1	6
42	42	17
60	61	5
63	63	13
64	64	10
101	101	15
143	147	3
148	156	1
6	6	9
96	96	17
16	23	5
71	71	27
132	132	16
155	155	19
87	89	4
14	63	1
93	96	3
41	45	4
59	59	13
137	137	19
71	72	1
126	127	6
26	27	12
70	70	14
37	38	3
156	156	18
23	64	2
2	2	12
171	171	22
38	38	16
103	103	5
133	133	28
176	176	44
22	22	20
90	90	31
169	169	14
43	43	18
31	32	7
161	162	5
118	118	19
108	120	4
76	76	12
108	110	2
80	81	1
126	126	11
2	15	1
167	169	2
36	36	7
119	119	11
100	111	1
137	140	3
110	110	4
151	157	2
178	178	13
8	9	10
11	11	14
104	104	3
139	139	24
65	65	8
125	158	5
176	177	14
58	58	6
153	154	8
101	127	2
126	144	6
160	160	25
123	123	20
16	17	7
68	68	11
152	152	7
79	80	8
91	91	13
1	40	1
102	104	3
117	119	4
108	108	17
76	79	5
170	170	16
68	77	2
79	79	23
174	174	22
117	118	5
148	148	16
92	93	5
42	44	1
116	125	1
92	92	16
117	117	12
53	53	14
102	103	3
5	5	15
62	158	2
2	3	3
135	135	13
147	164	6
135	147	1
89	90	7
54	54	9
153	153	17
28	76	2
99	99	7
1	6	4
97	97	5
147	147	6
92	126	4
23	23	10
107	107	13
150	150	26
31	31	21
55	56	2
172	172	27
113	128	2
94	94	11
90	132	1
93	94	5
11	62	2
67	67	10
75	75	13
157	157	7
37	37	12
14	54	1
39	40	12
9	18	1
55	60	4
57	58	3
52	59	4
112	112	10
15	15	8
94	96	4
170	171	8
27	28	4
105	110	4
118	119	3
2	4	3
3	63	2
45	45	12
98	101	1
16	68	1
67	68	5
78	78	15
89	123	2
87	118	16
102	106	1
79	105	2
81	99	3
97	174	4
132	134	5
53	54	4
88	88	6
22	66	3
62	64	4
131	132	3
129	134	2
86	118	3
26	39	1
4	46	1
149	157	3
123	125	1
152	153	8
26	26	11
41	49	5
158	160	1
19	19	10
3	3	7
98	98	3
130	131	4
90	122	2
164	164	9
105	106	8
142	142	5
128	129	4
27	27	10
89	124	4
104	107	1
138	140	4
86	117	5
65	72	3
64	65	5
1	64	2
90	114	1
91	92	9
41	43	12
173	174	5
111	112	7
8	8	5
166	167	8
163	166	6
125	125	13
87	88	10
1	7	9
0	0	9
148	149	5
56	72	3
35	36	3
103	104	3
138	149	2
50	70	7
165	166	2
4	5	6
164	166	2
170	174	6
23	65	5
148	153	7
45	46	3
25	25	4
166	166	9
44	45	4
167	171	5
104	106	3
151	151	11
146	146	9
57	57	11
141	146	1
70	71	3
11	12	4
5	7	7
85	85	6
58	59	1
1	1	9
112	132	1
136	136	9
81	95	6
7	42	2
161	161	12
130	149	3
15	17	5
122	125	1
93	93	8
100	130	2
68	178	4
22	23	17
14	14	4
140	140	9
93	105	9
36	37	2
140	168	1
102	110	3
52	53	3
151	152	3
28	29	2
83	83	7
51	52	3
145	145	10
13	49	2
51	113	1
159	160	1
115	117	5
21	22	3
42	43	7
84	121	3
56	61	3
154	156	2
51	51	5
86	92	1
77	178	1
104	105	5
102	111	5
142	147	3
150	157	3
83	84	6
167	168	4
14	15	3
92	121	1
100	101	6
171	172	9
40	41	7
135	136	5
18	18	10
51	71	2
34	37	2
145	146	4
96	98	3
122	124	2
0	9	4
158	158	17
12	12	8
1	11	2
148	164	3
94	95	8
52	55	4
19	20	2
137	170	4
11	63	5
62	62	4
51	62	3
16	180	4
63	72	7
96	103	1
89	89	3
29	32	3
151	156	2
9	43	2
129	129	2
5	9	2
68	179	2
141	142	5
34	35	2
107	112	2
125	126	4
116	116	16
38	66	3
60	108	2
162	162	6
0	60	3
174	175	1
18	19	1
136	137	4
102	109	1
58	62	3
170	173	4
108	109	2
179	180	7
1	17	5
78	79	9
35	35	8
154	155	3
94	175	2
84	95	2
17	106	4
169	174	1
123	124	2
160	161	1
76	77	6
44	44	6
136	142	3
66	72	1
77	78	3
136	168	3
13	15	2
53	61	2
2	44	1
0	6	2
86	87	1
5	39	1
124	157	4
107	121	1
82	82	5
14	20	3
53	55	1
91	120	3
85	100	1
141	148	1
39	67	1
81	100	1
143	146	4
61	63	3
164	167	4
114	155	7
127	147	5
54	61	1
63	66	1
88	97	1
116	118	3
46	46	4
33	39	2
3	5	2
81	111	3
98	99	1
76	176	1
90	124	1
10	11	1
82	96	1
90	92	2
152	157	1
101	111	3
72	122	1
143	144	3
84	98	3
124	134	3
87	119	1
38	67	1
83	109	3
51	61	3
88	89	2
78	176	3
83	118	1
59	60	2
92	124	1
22	32	3
30	31	2
175	178	1
125	149	2
86	86	5
58	61	2
36	81	3
166	171	4
10	19	1
153	157	3
89	94	2
50	51	2
11	21	2
122	132	1
25	26	5
134	170	4
56	63	1
86	109	1
112	115	2
90	93	2
115	116	3
66	67	2
152	156	3
138	162	1
122	134	2
56	109	4
35	37	1
9	19	1
24	33	3
84	96	1
24	66	2
80	99	3
140	167	1
136	140	3
60	180	2
84	99	2
143	148	1
98	129	2
126	134	3
94	111	1
133	175	3
26	32	2
28	110	1
7	18	1
29	29	6
20	22	2
125	134	1
126	129	1
145	150	2
101	134	2
144	158	5
141	144	1
101	110	1
110	111	2
86	100	1
131	148	1
49	49	1
173	175	3
56	56	7
61	64	2
137	139	1
88	93	1
114	128	1
134	142	2
3	40	1
127	131	1
87	116	1
4	8	3
5	6	7
145	148	2
140	145	1
5	41	1
88	114	1
164	165	1
56	71	1
78	103	2
105	108	1
96	175	2
1	9	4
90	91	3
126	130	2
56	82	1
19	21	3
63	73	1
137	164	1
112	131	1
17	180	1
101	102	2
81	94	3
18	66	1
6	7	1
131	149	1
44	62	2
25	132	1
11	13	2
33	65	2
117	120	1
33	40	1
153	156	2
148	150	3
27	36	1
95	96	5
1	3	1
36	101	4
3	4	1
93	121	1
12	13	1
98	169	2
113	130	1
102	107	1
108	119	1
125	132	1
13	18	2
138	165	2
26	67	2
169	172	2
66	68	1
138	139	2
91	105	1
67	179	1
119	124	1
3	45	1
110	112	1
82	98	1
122	131	1
15	21	1
142	167	3
33	34	2
159	162	1
22	25	2
140	149	3
137	147	2
127	130	2
136	160	1
7	41	1
52	60	1
89	91	1
168	173	3
32	132	1
172	174	2
136	143	1
103	109	1
168	174	2
130	146	1
57	59	1
132	133	1
2	45	1
56	57	2
144	144	2
105	105	1
91	121	1
92	119	1
121	166	2
79	81	1
53	84	2
112	113	1
16	39	1
114	115	2
0	180	1
49	111	1
52	54	1
10	12	1
4	45	3
159	161	1
139	140	1
101	135	1
10	39	1
147	151	2
29	30	2
137	159	1
90	153	1
97	101	1
15	16	1
56	107	1
73	75	1
43	44	1
60	106	1
17	18	1
163	168	1
147	148	1
