169	169	29
93	93	16
182	182	12
229	230	3
61	89	5
10	10	15
246	247	10
210	222	5
42	43	15
247	247	13
14	14	12
91	92	5
238	245	5
58	58	11
119	208	6
12	14	6
82	82	13
236	236	25
64	64	18
36	37	3
59	107	1
209	212	4
220	221	6
181	181	22
65	65	19
30	31	8
11	11	20
242	242	9
24	24	16
54	54	18
41	41	12
238	238	12
147	147	6
34	34	25
31	31	5
84	86	1
214	214	12
239	239	20
111	111	18
19	19	29
100	105	3
240	244	1
39	39	13
56	57	9
222	222	7
171	171	14
239	247	4
209	211	10
59	60	9
70	70	11
50	119	2
168	168	15
29	30	2
83	84	4
159	159	19
115	116	4
167	169	3
180	180	10
105	105	13
71	72	10
196	196	11
14	15	13
200	201	5
224	224	5
95	95	10
145	147	4
120	208	4
89	89	16
21	23	1
183	183	9
240	240	6
79	83	7
218	219	4
234	235	6
12	160	4
174	175	4
37	37	10
231	231	10
245	245	7
44	44	11
209	210	6
55	55	12
48	152	3
226	226	19
202	206	6
172	173	11
213	213	25
33	33	7
50	50	2
77	77	17
103	103	16
92	92	13
36	36	10
81	81	12
235	235	10
30	30	17
189	189	17
243	243	9
241	241	16
78	78	16
110	111	8
57	58	14
103	104	10
233	233	12
91	91	11
183	194	1
26	227	4
20	20	21
49	49	28
163	163	11
8	8	22
62	63	8
165	165	8
110	110	10
35	36	3
55	58	2
43	43	16
59	59	16
47	47	8
106	106	9
200	200	6
28	30	1
161	161	16
176	177	15
34	53	2
146	147	4
72	72	20
191	191	14
231	233	3
0	1	6
191	192	9
16	16	12
63	63	7
9	9	8
42	42	15
98	98	14
189	190	1
223	223	4
178	178	5
190	191	3
76	77	11
204	205	2
202	202	11
54	115	5
100	100	16
237	237	10
94	103	2
175	216	2
18	18	12
67	67	7
144	231	1
174	174	21
96	96	27
176	176	10
248	248	7
155	155	6
66	66	15
30	32	3
80	80	13
96	97	10
245	246	8
99	100	12
215	215	11
197	197	22
244	244	21
211	211	10
211	212	7
183	184	13
119	119	3
13	155	4
195	195	17
49	118	3
52	53	4
25	25	15
187	192	5
104	104	12
172	172	14
145	229	5
66	67	12
49	50	11
29	31	2
40	40	11
107	108	15
187	187	27
111	114	4
175	176	3
228	229	6
225	225	7
168	214	5
221	221	11
67	68	4
180	181	4
219	219	14
83	83	8
147	229	2
201	202	2
100	101	2
69	69	24
85	86	4
198	198	15
222	223	5
195	196	13
160	160	19
68	68	19
49	119	2
59	106	5
204	204	11
202	207	5
42	45	6
69	74	3
51	165	2
179	180	3
116	116	13
116	117	6
46	47	7
14	16	3
102	103	2
178	181	4
170	170	9
117	118	4
193	194	16
102	102	10
199	199	9
104	105	13
98	100	1
193	195	3
42	234	5
212	212	25
12	12	14
237	241	13
116	205	5
48	48	22
246	246	25
32	32	11
151	151	18
215	217	3
74	84	4
88	88	11
41	235	2
145	145	7
145	207	7
175	175	13
145	231	3
190	190	5
61	62	13
113	113	17
229	229	5
154	229	2
168	211	2
107	107	16
167	167	11
156	157	3
71	73	9
179	179	8
235	236	9
152	152	9
210	210	9
38	55	2
201	201	24
108	108	15
43	44	5
60	61	5
34	38	5
167	168	5
118	119	4
47	163	2
45	45	5
8	9	7
87	88	15
185	185	5
69	70	4
22	23	5
118	232	2
186	186	11
101	101	7
79	79	14
193	193	11
27	27	17
17	17	6
85	85	7
95	96	10
241	242	4
60	60	5
50	234	2
87	89	11
70	71	4
21	21	10
57	57	18
98	99	5
226	228	3
62	62	14
79	84	8
28	28	11
216	217	4
75	76	5
19	20	2
206	206	9
162	162	4
86	86	5
175	179	1
197	199	2
84	84	25
187	190	2
227	227	13
157	157	3
240	241	2
93	94	5
117	206	1
56	56	12
50	164	1
216	218	6
242	243	9
82	83	8
94	190	3
6	7	4
230	230	8
81	82	9
51	51	4
212	213	3
118	166	1
59	100	1
232	233	4
166	209	2
76	108	3
40	46	1
51	234	8
120	120	9
111	112	13
155	156	1
51	52	4
58	99	1
218	218	11
2	2	4
52	52	11
177	177	14
214	216	4
73	73	3
194	194	11
90	103	5
217	221	3
53	53	8
86	89	4
29	29	13
144	144	2
37	39	2
25	26	2
114	114	12
100	104	1
115	115	9
158	158	11
42	52	3
232	232	16
76	76	12
178	220	2
39	40	2
230	231	5
192	192	3
177	180	3
182	184	2
86	87	4
50	232	1
46	235	4
236	237	9
217	217	15
4	4	7
68	69	7
157	161	3
26	26	8
205	206	2
23	23	10
80	81	2
87	87	6
28	29	3
185	186	3
112	112	12
156	156	6
185	198	3
237	244	6
179	182	6
38	39	3
156	160	1
90	90	4
74	76	4
59	112	1
178	179	6
73	74	2
20	23	2
188	190	4
153	154	1
44	45	1
176	217	3
236	241	2
71	71	10
13	14	5
106	107	4
179	196	1
182	216	2
63	64	5
96	103	2
26	205	4
154	154	6
38	38	9
59	105	3
178	182	2
4	5	1
67	85	1
166	166	6
15	15	9
48	163	3
237	242	1
24	203	2
184	185	7
20	21	2
207	207	5
74	75	5
49	163	4
158	159	4
60	104	3
245	247	1
184	184	9
210	213	4
219	223	4
243	244	7
198	199	3
27	30	2
118	233	1
109	109	6
55	57	1
203	204	2
67	69	2
150	150	3
223	224	12
213	214	1
174	177	3
238	239	3
75	75	9
97	97	12
213	216	1
152	154	7
72	73	6
199	200	4
226	227	1
73	75	5
53	54	3
35	37	3
23	24	4
153	153	6
81	83	4
221	222	3
89	92	1
109	114	2
63	65	5
240	249	1
35	35	5
50	165	2
40	41	1
156	159	4
220	220	7
212	220	2
10	17	1
170	171	7
41	243	1
188	189	4
114	205	1
213	215	2
164	164	8
109	110	2
11	14	3
237	238	1
33	41	2
94	95	4
69	71	1
152	153	2
48	153	2
7	18	4
28	44	1
44	235	3
210	211	3
119	120	2
170	215	3
7	7	4
222	224	4
60	106	3
57	105	4
168	170	4
94	102	1
31	146	1
113	115	5
72	74	1
202	203	4
76	107	4
183	218	1
228	228	4
97	102	1
216	216	1
157	159	4
40	234	2
94	94	4
238	240	2
2	222	1
146	150	2
80	86	1
99	99	5
203	205	2
234	234	11
34	35	3
28	31	3
95	97	2
59	111	3
150	151	5
183	193	8
112	113	1
238	244	3
39	41	2
22	22	6
73	78	1
113	114	3
45	46	1
186	187	8
78	79	8
53	115	5
89	90	3
74	74	4
192	194	3
177	195	2
72	107	2
68	70	1
25	32	1
152	162	3
152	230	2
208	209	3
52	234	2
81	86	3
50	118	3
3	3	6
185	191	1
10	15	1
41	244	1
32	116	1
169	170	2
218	220	1
188	188	6
101	102	1
173	173	9
168	209	1
217	220	5
178	218	2
194	195	2
61	61	5
3	5	2
118	118	9
208	208	3
6	6	6
92	95	3
240	242	3
192	193	6
70	72	4
62	90	1
64	196	1
1	1	7
6	19	2
176	178	4
80	89	3
73	76	4
11	15	2
37	38	7
15	16	1
147	227	1
110	112	1
167	171	2
206	207	1
105	106	3
26	27	2
5	5	3
120	145	2
203	203	6
221	224	2
114	115	2
231	232	5
65	66	2
168	169	2
17	18	4
59	101	1
27	44	1
27	29	1
22	24	1
101	103	2
165	166	5
79	82	1
30	40	3
80	83	1
153	232	3
47	164	3
187	188	1
164	165	4
174	196	2
1	2	3
236	243	1
148	229	1
84	85	6
32	33	2
239	242	1
106	108	3
58	105	1
174	195	3
46	46	1
50	51	1
24	32	2
162	163	1
61	80	1
210	221	2
117	117	1
91	104	2
80	84	2
61	73	2
33	116	1
48	49	4
90	102	1
175	178	3
33	42	1
60	62	1
184	186	4
157	162	1
55	56	1
88	89	1
213	217	1
21	31	2
156	161	1
117	119	1
232	234	2
146	146	1
209	209	1
183	185	2
80	92	1
198	200	2
156	158	1
13	15	1
75	160	4
77	78	2
239	246	2
202	205	1
213	221	2
176	179	1
32	41	2
167	208	1
70	107	2
179	218	2
62	88	1
20	22	1
31	44	1
117	205	1
52	118	1
25	203	1
186	192	2
173	174	1
215	221	1
79	85	1
224	225	1
240	248	1
239	244	1
228	231	2
203	227	2
63	66	1
113	206	1
7	19	1
153	163	1
92	94	2
205	205	2
215	216	1
185	194	1
202	204	1
41	42	1
9	45	1
214	215	1
42	235	1
9	10	1
166	167	1
62	64	1
57	99	1
241	248	1
69	75	1
61	90	1
157	158	1
62	89	1
46	234	1
42	44	1
53	55	1
81	85	1
81	88	1
117	208	1
120	144	1
90	91	1
97	98	1
