81	82	5
68	68	5
17	20	1
78	147	2
95	96	3
150	150	5
43	66	5
128	128	4
141	149	2
131	146	1
21	21	5
81	81	3
18	23	5
98	98	9
155	156	1
41	41	5
94	94	11
71	71	2
46	47	2
154	155	6
111	116	1
17	21	3
144	144	11
70	70	2
151	156	1
76	76	2
75	75	13
46	46	7
141	141	10
134	134	12
136	136	6
139	140	9
65	97	4
86	87	1
130	130	14
126	126	2
29	82	1
15	15	10
73	73	6
24	25	6
17	93	2
57	57	3
121	151	1
64	64	2
149	149	8
85	85	10
1	1	10
1	18	2
141	142	3
55	55	6
103	103	15
99	99	9
19	19	7
142	143	5
10	156	1
30	30	7
107	126	6
65	65	1
68	96	3
132	132	5
154	154	8
104	117	4
130	131	2
27	28	2
42	42	6
34	34	4
113	113	7
122	122	3
7	8	2
119	127	5
91	91	11
146	147	1
14	14	6
157	158	6
107	107	1
35	35	2
27	27	5
51	51	7
54	54	8
50	54	1
100	100	6
121	121	3
25	25	7
158	158	3
83	83	2
114	114	1
109	110	5
57	92	2
11	12	3
128	151	1
11	11	6
140	140	4
22	23	2
37	37	3
53	53	9
145	145	1
147	147	8
5	5	8
89	151	4
67	67	5
44	44	5
109	109	1
131	135	3
141	152	5
2	2	4
96	107	1
82	83	4
20	20	3
25	117	2
127	127	6
134	135	5
55	97	3
66	68	3
105	105	11
115	115	4
122	123	3
108	108	10
108	110	3
0	31	1
94	104	1
53	54	2
32	33	5
105	135	2
69	110	3
110	110	4
9	9	5
108	109	13
108	112	2
4	17	6
86	109	2
152	152	7
62	62	1
70	71	2
137	146	2
86	110	2
48	48	4
9	12	1
101	101	8
77	77	9
87	87	5
119	119	6
52	52	8
36	40	2
39	47	4
131	141	4
51	52	5
43	78	3
135	136	3
36	39	3
80	80	1
112	112	5
78	78	4
111	111	3
18	18	5
97	97	2
133	136	5
142	142	1
40	40	5
88	89	1
30	31	4
124	124	3
69	69	11
33	33	3
29	30	1
107	109	2
95	95	6
133	133	2
28	65	1
119	120	3
35	77	2
22	22	8
135	135	3
137	137	5
128	130	1
148	148	3
31	31	10
19	35	2
104	104	6
154	156	1
43	43	2
99	101	3
125	127	1
94	95	1
40	42	2
0	47	2
6	6	2
7	51	1
66	66	5
112	113	1
73	75	5
21	34	1
25	44	2
115	156	3
8	12	2
18	34	1
20	21	3
24	24	3
26	27	1
39	39	5
29	29	2
20	47	1
3	3	4
17	111	3
118	120	4
52	53	1
38	46	1
92	92	4
129	129	5
103	134	1
118	126	1
153	153	7
56	56	3
47	47	5
63	73	4
102	102	1
35	36	2
141	143	1
110	113	2
96	96	4
41	42	2
87	154	1
84	84	1
107	112	1
49	51	2
92	103	1
123	123	4
105	124	2
147	148	5
123	142	1
30	157	1
120	126	1
104	138	1
19	20	1
50	50	2
125	125	4
38	39	3
104	135	1
25	26	5
78	79	1
1	2	1
12	12	1
50	53	2
77	78	1
120	120	1
150	152	1
40	78	2
0	0	4
120	121	3
52	56	1
93	93	1
80	81	6
86	108	1
78	145	2
70	148	1
32	32	5
90	90	2
86	86	4
34	41	2
157	157	5
139	139	4
106	106	4
133	134	3
21	116	1
46	55	1
154	158	1
88	88	2
23	23	2
54	154	2
151	151	7
142	148	2
72	72	2
5	25	1
1	75	3
87	88	3
93	94	1
25	27	3
112	150	3
10	157	1
91	126	2
51	85	1
107	108	1
38	38	3
15	34	1
83	84	2
7	19	1
8	8	3
4	5	2
122	124	1
155	155	3
36	37	4
24	27	1
16	18	1
6	7	3
21	156	1
28	28	1
88	91	1
30	32	1
118	119	1
0	113	3
15	16	1
116	116	1
132	134	1
101	133	1
79	79	2
123	126	1
107	120	1
36	36	1
9	48	1
117	120	1
33	116	1
105	120	1
26	125	1
145	148	1
47	51	1
4	4	2
96	105	1
83	85	1
145	146	1
118	123	1
26	26	2
126	127	2
3	15	1
6	22	1
9	10	1
127	142	2
2	30	1
102	104	1
26	73	1
89	89	2
18	99	1
96	97	1
12	13	1
131	131	1
45	45	1
7	53	2
42	79	1
71	127	1
17	17	1
109	112	1
62	154	1
107	110	1
