46	47	4
168	188	3
10	10	2
2	2	12
108	125	2
91	92	2
23	23	5
132	133	4
184	184	4
130	174	2
41	41	4
22	45	2
48	48	7
15	112	3
78	78	1
0	0	3
131	131	6
93	118	5
109	110	6
157	159	1
145	149	1
10	24	4
129	129	2
22	46	3
179	179	6
58	115	2
164	164	2
43	43	7
187	189	3
12	12	5
28	29	2
151	151	3
177	177	5
55	55	2
114	114	6
123	123	3
52	52	2
190	190	5
100	133	1
183	183	1
108	108	1
113	120	2
11	12	4
105	107	6
29	29	3
178	178	5
81	100	1
185	185	4
123	124	6
111	114	2
112	112	6
87	89	2
131	175	3
105	105	5
40	40	2
149	172	4
148	149	2
146	146	4
161	161	1
8	40	1
92	93	3
28	28	3
146	147	1
56	119	6
92	92	2
134	135	2
44	59	2
100	107	1
113	114	1
25	38	2
79	102	3
168	168	4
20	38	4
72	74	1
149	150	1
116	116	8
87	95	1
36	36	1
29	30	3
115	115	3
3	3	4
22	31	3
82	122	1
130	175	2
189	189	2
66	66	3
54	55	2
117	118	10
118	118	3
176	183	2
26	26	6
93	93	3
19	19	4
109	146	3
167	170	1
111	111	5
173	173	1
14	28	3
69	70	1
61	61	3
147	148	4
111	112	3
174	175	2
117	117	1
175	181	3
115	172	1
10	151	2
57	57	3
18	25	2
109	112	2
176	176	2
10	11	2
27	27	1
99	99	2
128	152	3
65	66	1
18	20	1
65	65	2
159	162	3
126	135	1
154	154	4
103	127	1
89	89	2
186	186	1
76	76	6
16	16	3
122	122	4
16	17	2
141	186	3
13	13	1
69	69	1
101	102	1
130	168	1
164	165	1
62	62	1
130	132	1
90	90	1
113	113	2
117	119	4
16	47	5
141	141	3
40	41	1
75	75	3
166	167	2
66	68	2
12	32	3
13	48	1
141	142	2
15	15	4
124	125	2
94	94	2
6	6	3
18	18	1
82	93	1
127	127	2
46	46	4
54	114	1
164	169	1
22	24	2
33	33	5
28	30	2
38	38	1
27	28	4
75	76	3
175	177	2
33	34	1
121	121	3
37	40	6
127	135	1
112	121	2
81	81	1
187	187	3
145	145	1
171	173	1
79	79	2
91	91	1
172	172	2
22	23	3
13	18	2
36	38	1
71	71	1
14	15	1
162	165	2
3	7	2
70	70	2
104	130	1
11	11	2
140	140	3
84	84	1
82	83	1
159	159	2
160	168	1
163	163	2
26	47	2
90	91	1
33	70	1
48	120	1
160	163	2
1	1	2
9	15	1
65	72	1
45	45	1
98	106	1
86	94	1
84	85	2
20	39	1
82	123	1
89	90	1
81	96	1
160	160	3
164	174	1
99	105	1
61	62	1
139	183	2
106	107	2
15	16	1
36	37	3
87	91	1
14	17	1
26	27	2
13	27	1
42	42	1
20	20	1
31	31	1
56	56	2
47	47	2
59	94	1
156	159	1
129	130	1
178	180	1
39	41	1
97	97	2
76	88	3
22	22	1
13	30	1
141	143	1
101	101	1
58	64	2
117	123	1
75	92	2
102	102	1
95	95	1
104	104	1
99	107	1
27	30	1
63	63	1
186	187	1
49	49	1
104	117	1
73	73	1
149	163	1
83	92	1
