39	39	3
16	16	2
228	228	1
12	12	6
214	215	3
75	82	5
204	205	1
99	99	5
63	63	2
236	237	6
206	207	1
115	116	5
163	163	2
21	169	2
145	145	1
14	30	2
50	54	2
48	48	2
124	127	4
193	196	3
237	237	3
158	159	6
12	13	6
235	236	6
125	126	4
138	138	4
242	242	8
66	66	4
218	218	6
166	190	4
41	41	2
170	171	2
28	28	2
208	208	7
233	239	4
109	109	11
153	153	2
24	26	1
104	105	2
224	227	1
15	15	9
0	0	8
45	63	2
168	168	4
7	7	3
157	157	6
43	43	6
71	175	5
206	206	4
139	139	2
144	148	1
21	21	4
155	177	1
199	213	9
75	75	7
162	184	1
179	180	4
52	179	2
52	85	8
91	91	1
163	168	5
200	200	6
133	133	6
158	158	7
239	239	6
15	16	2
162	162	6
104	108	1
31	31	4
190	190	3
81	82	1
29	29	7
115	118	2
232	232	3
68	69	1
196	196	6
19	166	6
174	174	4
171	173	2
193	206	1
73	86	2
193	194	3
42	45	3
103	103	1
235	235	8
106	106	5
42	42	5
77	77	3
40	58	2
30	30	2
87	176	3
51	51	1
201	201	6
69	69	11
151	151	3
79	80	3
104	104	4
74	74	9
82	84	4
158	178	2
54	54	2
133	144	2
56	57	4
49	49	1
220	222	2
184	185	5
52	53	3
196	197	2
8	9	3
197	197	1
210	210	6
53	75	3
172	208	2
38	75	1
40	41	5
114	114	4
159	181	7
74	157	1
160	180	6
126	126	1
0	29	2
204	208	3
209	229	2
81	81	7
68	68	2
54	55	2
73	73	3
200	216	2
187	187	3
202	203	3
224	224	10
64	64	2
134	135	1
28	193	2
62	62	4
67	71	1
108	109	1
32	32	4
233	234	2
152	153	1
211	211	3
0	1	1
26	27	1
120	127	3
121	121	8
98	121	2
47	47	4
166	166	5
49	73	1
161	161	4
53	85	1
27	27	3
160	160	3
192	192	5
16	35	4
152	152	5
25	25	2
227	227	6
6	6	3
131	132	2
100	100	7
147	164	1
116	116	2
63	65	3
203	204	2
178	178	9
165	165	3
50	51	3
205	205	1
222	222	3
8	28	2
4	19	3
22	22	1
118	120	6
205	207	1
216	216	6
26	174	1
1	5	1
7	28	4
32	85	1
59	60	5
107	107	6
147	147	5
145	150	3
56	56	4
152	154	2
34	34	7
172	173	2
231	231	4
4	18	3
3	3	2
226	228	4
101	128	1
86	86	3
169	169	9
2	4	1
188	188	2
233	233	3
72	72	4
238	238	4
219	220	1
21	22	4
221	228	1
14	33	1
52	52	2
101	120	2
199	200	2
134	143	1
183	183	7
81	85	4
135	135	7
198	198	5
164	165	3
150	151	3
78	79	6
2	33	1
4	6	1
187	188	2
19	143	4
217	217	5
100	137	4
48	68	1
217	234	2
137	150	4
204	204	2
164	164	3
36	57	2
13	34	2
28	29	1
5	5	1
50	50	4
195	195	2
214	214	4
229	229	7
236	236	1
172	207	1
13	35	1
123	123	2
185	186	3
169	190	2
107	115	2
14	14	5
101	101	2
211	212	2
173	186	2
128	128	2
148	158	3
4	4	2
39	55	1
129	129	2
133	143	1
182	182	3
2	2	1
125	125	4
58	58	4
59	59	1
145	164	2
100	114	1
173	190	2
131	136	2
67	67	2
96	96	2
21	167	1
221	229	2
224	225	1
48	54	2
177	177	2
15	33	3
23	23	2
33	33	2
161	165	1
105	105	1
113	114	2
155	178	1
74	106	1
12	31	4
39	58	2
30	191	1
108	108	2
215	216	2
199	199	1
71	86	4
170	193	1
156	156	2
29	38	1
197	198	3
122	122	2
138	142	1
161	204	1
180	181	1
205	211	1
239	240	1
6	21	2
196	201	1
38	50	1
84	84	1
0	18	2
39	76	1
102	102	3
100	124	1
186	186	1
79	79	4
123	129	1
97	155	2
98	99	1
40	40	5
35	35	1
104	107	1
144	209	1
117	117	3
22	23	4
130	130	1
173	173	1
52	74	2
35	81	1
14	15	1
175	175	1
77	82	2
2	6	1
160	184	3
220	220	1
198	212	1
107	108	1
17	17	1
171	172	2
146	147	1
34	35	2
95	95	3
153	156	1
112	112	2
146	146	4
157	159	1
215	215	2
137	137	2
119	120	1
34	36	2
18	18	2
233	235	1
227	228	1
136	136	1
213	214	1
77	78	2
1	1	1
142	142	2
86	174	2
139	140	2
173	183	1
186	225	2
186	231	2
4	21	1
143	143	3
226	227	3
184	184	3
5	21	1
36	36	1
76	78	1
226	226	2
162	167	4
0	20	1
16	34	1
171	171	1
1	3	1
78	78	2
170	170	1
0	30	1
141	142	1
132	132	1
196	212	2
147	186	1
155	155	2
140	140	3
118	118	2
143	146	1
24	24	1
196	203	2
186	187	1
216	233	1
120	120	1
2	5	1
108	116	1
104	116	1
147	148	1
45	62	1
136	137	1
213	213	1
232	233	3
203	208	1
128	129	1
26	26	1
7	8	2
192	194	2
181	181	2
4	5	1
221	221	1
150	150	1
162	185	1
138	139	1
119	124	1
171	191	2
165	166	2
2	29	2
162	163	1
208	231	1
49	53	1
38	38	3
66	67	1
88	88	1
37	37	2
97	97	1
230	231	1
81	83	1
24	201	1
55	57	1
157	182	2
126	134	1
99	122	1
60	60	1
194	194	1
70	70	1
9	174	2
187	196	1
129	130	1
44	45	1
85	85	1
53	53	1
180	180	1
148	151	1
185	185	1
25	26	1
148	149	2
7	31	1
3	169	1
102	116	3
209	220	1
179	179	1
76	76	1
0	3	1
126	127	1
124	136	1
160	220	1
44	44	1
20	20	1
123	127	1
11	47	1
9	27	1
208	210	1
88	177	1
