184	184	10
92	92	6
91	122	2
140	147	2
174	181	7
153	153	6
154	171	4
103	176	3
87	87	10
83	85	3
39	39	9
7	7	5
82	84	8
16	16	3
120	120	2
46	46	6
11	32	8
129	129	6
107	179	6
110	110	5
127	128	2
11	11	3
95	100	2
16	32	3
152	154	5
74	97	2
16	17	11
25	25	2
142	142	8
78	79	1
163	163	4
181	182	3
126	126	4
127	127	2
118	118	3
83	86	1
181	181	11
124	125	2
53	118	4
104	104	2
119	119	9
4	4	3
59	59	3
94	108	3
35	45	1
23	24	2
169	169	4
77	86	2
28	45	2
109	110	2
165	168	1
147	147	7
0	0	6
176	176	5
5	75	5
72	96	1
81	82	5
66	67	2
25	46	1
150	173	2
77	77	7
58	58	6
102	102	4
190	190	5
14	14	2
165	165	6
32	32	6
189	189	5
167	168	6
182	182	5
157	157	4
155	155	4
144	146	2
80	80	4
139	145	3
16	70	2
123	123	4
148	149	5
120	121	1
169	171	4
34	48	1
170	170	6
162	162	4
146	187	5
105	105	4
11	15	2
133	133	5
62	137	2
22	65	1
79	79	2
167	167	2
76	98	1
107	107	2
36	36	2
78	138	2
67	67	3
53	53	5
158	158	3
29	29	1
6	6	6
13	55	1
160	174	5
37	37	7
22	87	2
44	46	1
131	131	2
124	124	1
148	188	3
36	37	4
5	82	4
121	174	2
63	92	2
137	137	1
145	145	2
112	112	1
105	119	3
22	23	3
34	106	2
174	175	3
180	180	1
138	139	1
168	168	8
44	44	4
81	84	3
56	56	2
183	184	2
150	150	3
174	174	4
77	82	1
94	112	1
35	36	1
88	127	1
20	20	6
24	24	5
55	91	2
26	26	2
168	170	1
141	141	4
166	168	1
138	138	1
91	91	1
35	35	2
109	109	3
112	114	1
176	177	1
15	15	1
110	111	4
157	158	5
165	182	3
66	66	3
40	41	3
162	187	2
22	22	1
188	189	3
169	180	2
103	103	2
40	40	2
134	135	3
108	108	3
110	113	1
117	147	1
18	28	2
149	149	2
43	43	4
10	14	1
25	47	4
38	38	2
10	10	6
15	40	1
10	74	1
4	6	2
57	90	1
21	21	6
82	82	2
59	174	1
86	86	2
186	187	2
85	85	3
29	30	1
27	28	1
21	22	3
2	4	1
22	24	2
14	21	3
31	32	1
102	108	3
5	38	2
188	188	3
70	70	4
72	72	6
42	42	1
157	164	4
23	23	3
151	152	2
117	117	2
72	93	4
141	142	2
30	30	2
17	18	2
64	64	2
5	149	2
122	160	2
41	41	2
15	17	2
116	121	1
19	19	1
5	148	1
130	130	1
31	31	1
13	13	1
7	13	1
134	134	2
179	179	2
61	61	2
135	135	1
140	140	1
149	150	5
156	169	3
60	60	1
156	174	1
144	144	2
84	84	1
5	36	1
95	95	1
139	139	1
108	186	1
48	127	1
111	111	2
76	77	1
72	95	1
75	98	2
46	153	2
173	174	1
57	122	1
188	190	1
3	94	1
10	12	1
73	73	2
97	97	1
120	122	1
135	138	1
88	88	3
56	60	1
71	71	1
185	186	1
57	57	3
0	92	2
2	2	1
151	154	1
11	43	1
148	148	1
101	102	1
143	144	1
12	118	1
175	176	1
81	83	1
132	132	1
119	147	1
152	152	1
18	63	1
124	126	2
104	113	1
149	186	1
47	47	1
143	148	1
179	185	2
83	83	1
92	129	1
18	18	1
