34	34	1
147	147	2
47	47	11
15	22	4
132	152	4
13	14	4
137	138	2
115	115	7
149	149	5
32	34	4
24	24	4
148	148	2
16	25	2
147	148	3
137	137	6
41	41	2
116	116	1
35	35	1
69	69	3
7	7	1
93	93	3
21	22	3
135	135	7
64	64	3
106	106	4
21	41	1
91	91	1
92	92	5
151	154	1
98	98	5
71	71	2
36	36	7
131	131	2
18	18	2
129	144	1
27	39	4
12	12	4
11	64	4
17	50	2
142	146	1
131	140	2
124	124	3
122	122	7
17	17	4
48	49	1
75	76	3
89	129	1
106	115	1
57	57	2
4	5	2
120	120	1
10	124	2
30	30	2
42	43	3
64	65	3
48	48	3
113	114	2
126	127	6
114	114	3
103	104	8
111	111	2
138	138	3
140	141	2
127	127	5
115	127	2
5	5	5
8	62	3
136	136	1
104	104	5
94	95	1
87	88	2
74	74	2
107	108	1
54	54	2
145	145	1
142	142	5
103	103	2
96	96	2
130	130	1
80	86	1
96	97	5
121	122	1
123	125	1
10	10	6
15	24	3
115	121	1
5	6	2
20	21	2
53	53	7
109	111	1
79	82	2
87	87	2
16	66	1
80	80	5
18	19	2
100	100	7
15	25	1
107	107	1
86	87	4
67	67	2
65	65	6
74	78	3
105	105	2
76	82	2
68	82	1
141	141	2
139	141	3
101	102	1
71	73	1
32	33	2
125	125	3
132	132	2
25	26	2
24	25	2
75	83	2
32	32	1
119	119	5
102	103	2
68	68	3
33	33	7
131	132	1
113	128	5
16	16	6
99	109	3
120	121	2
8	8	1
12	13	2
45	45	4
139	139	2
27	27	3
6	8	1
81	82	2
80	81	3
77	77	5
29	40	2
118	118	2
123	123	2
5	51	1
13	64	1
121	121	2
67	68	2
3	3	6
119	120	1
66	66	4
112	112	4
110	110	2
4	50	1
19	19	1
66	68	1
3	4	1
93	100	1
40	40	1
79	79	2
41	42	2
106	107	1
100	101	2
43	44	1
76	76	3
85	143	1
44	44	1
45	46	1
141	143	1
143	144	1
64	66	1
80	83	1
8	10	1
85	85	1
78	78	3
87	89	1
105	106	1
21	21	1
83	83	1
73	132	1
69	70	1
97	97	2
99	99	2
50	50	1
95	147	1
26	26	1
6	6	1
86	134	1
7	63	1
38	39	1
114	118	1
23	23	1
2	3	1
3	5	2
12	65	1
70	70	1
15	18	1
152	153	1
153	153	1
152	152	1
128	128	1
56	57	1
