97	97	7
30	30	6
79	79	16
72	73	9
81	81	3
134	134	3
121	122	5
61	61	9
115	115	14
64	65	4
84	84	2
72	72	7
75	75	7
108	108	5
50	56	4
118	118	14
133	133	11
21	21	10
8	8	6
5	35	1
121	121	7
71	71	8
35	35	7
55	56	2
98	98	13
18	18	10
94	94	13
101	101	9
85	85	5
58	58	2
135	135	2
34	34	4
49	49	5
69	70	1
63	63	4
111	113	1
64	64	4
25	25	4
36	36	4
1	2	2
12	12	6
6	6	4
70	70	10
128	130	1
68	68	4
11	11	4
45	107	3
104	104	9
5	5	10
28	28	16
75	76	4
80	113	1
29	29	4
82	103	1
96	96	3
44	120	2
4	5	5
58	59	2
17	17	4
59	60	2
45	45	2
91	91	10
7	7	3
26	26	10
69	124	1
80	86	1
100	100	7
113	113	6
33	102	2
58	110	1
21	22	8
6	18	2
90	93	1
26	44	1
27	27	11
120	121	7
32	32	1
115	135	2
2	2	7
105	105	6
61	120	1
90	91	5
22	22	5
93	93	12
122	122	6
1	5	1
24	24	9
53	53	5
15	15	4
3	4	3
9	10	7
64	114	1
117	117	5
106	106	6
90	90	5
0	1	4
9	11	3
131	133	2
47	47	4
2	7	2
33	33	17
98	99	1
77	116	1
31	31	6
95	95	7
19	21	4
73	74	3
100	101	4
107	107	2
13	13	4
44	44	5
86	86	9
129	129	11
114	115	4
80	80	2
23	23	2
0	0	8
62	113	3
46	47	1
19	20	2
125	125	3
55	55	4
119	119	12
112	113	4
126	127	1
19	19	2
27	28	2
57	60	2
30	31	3
131	131	5
86	87	5
82	102	5
35	81	2
57	57	2
58	109	4
102	102	7
6	7	4
114	114	9
126	133	1
36	43	1
111	112	2
10	10	4
44	45	2
97	98	3
74	74	4
5	78	1
63	64	2
92	92	4
78	79	10
52	112	2
106	107	3
22	84	2
15	16	3
11	12	1
50	108	1
65	92	3
98	101	1
117	118	1
35	62	2
123	123	6
61	62	5
24	44	2
9	9	8
82	82	3
69	104	2
132	132	1
16	16	5
127	128	2
127	127	4
65	65	6
95	115	2
56	56	2
73	73	6
133	134	1
109	130	3
78	78	9
62	65	1
106	110	2
110	124	1
103	103	9
111	111	6
128	128	1
99	99	3
56	110	1
12	13	2
54	63	2
79	105	1
17	27	3
14	14	3
18	27	2
50	129	2
106	108	1
89	94	2
52	52	3
35	106	3
1	1	7
23	95	1
87	88	1
125	126	5
63	91	2
93	94	1
46	48	1
124	124	3
33	34	6
76	76	3
116	116	1
7	14	3
62	63	2
95	98	1
34	81	3
22	23	6
28	45	1
71	103	1
45	91	3
34	35	3
120	123	2
89	89	1
84	85	2
27	33	3
91	92	2
27	29	1
88	88	5
5	6	2
95	96	2
99	101	1
104	105	1
83	83	5
24	25	3
42	100	1
4	4	3
116	120	1
3	3	1
115	121	2
116	121	1
53	54	1
36	37	1
109	110	2
85	86	1
2	11	2
82	91	2
69	69	4
108	110	1
59	59	2
14	28	1
87	87	1
121	126	1
102	103	3
28	29	3
20	20	1
105	131	2
83	84	2
75	120	1
77	114	1
25	26	1
86	88	1
28	33	1
113	121	1
112	112	2
21	23	1
130	133	1
29	30	2
115	122	1
14	21	2
1	22	3
67	68	1
11	22	1
71	72	1
2	23	1
101	102	1
32	95	1
130	130	1
59	66	1
