26	26	12
30	30	10
91	91	7
11	11	14
150	150	8
66	81	4
67	67	3
85	152	5
121	169	4
130	130	7
76	76	5
117	117	3
145	145	11
91	95	3
160	160	6
129	129	4
97	97	9
2	102	4
2	3	4
57	57	17
101	101	6
90	90	9
22	22	2
66	66	8
116	116	6
114	120	3
113	113	8
106	125	2
21	25	1
180	180	13
169	173	2
24	24	3
10	10	10
100	100	7
39	43	6
161	161	10
14	14	7
10	59	4
124	142	2
132	132	10
167	167	7
154	154	8
50	52	1
15	62	13
83	83	4
156	159	8
80	96	3
176	176	16
55	55	4
35	35	4
79	79	2
80	134	5
51	86	4
86	133	6
16	16	4
91	92	7
133	169	4
99	100	3
17	17	9
68	68	9
151	151	12
5	5	20
49	51	1
98	103	3
51	51	12
10	62	3
71	71	9
179	179	5
13	44	1
89	119	3
171	171	9
19	20	4
77	77	25
123	123	8
25	25	2
65	137	3
9	59	1
1	1	6
108	108	1
169	169	7
0	0	1
31	31	5
88	89	4
36	36	3
112	115	1
19	27	2
25	43	4
23	36	4
90	119	4
95	96	2
129	130	7
68	129	1
9	10	1
78	78	4
111	152	2
140	170	2
142	146	2
135	135	7
52	88	3
117	131	3
12	23	8
5	16	4
120	140	1
90	101	2
143	143	7
125	125	9
28	28	4
38	38	7
32	32	9
6	6	14
152	152	18
5	41	3
178	178	7
42	42	1
159	165	3
70	71	3
7	39	2
175	175	7
156	156	1
153	153	4
44	45	1
35	36	2
75	89	2
92	92	3
2	2	6
13	14	2
27	28	3
10	22	5
39	60	3
52	52	14
162	173	3
140	140	9
63	63	2
7	7	9
62	63	1
15	15	11
125	126	5
151	153	5
160	161	3
157	164	3
74	74	5
131	132	1
76	123	4
37	37	9
101	174	2
12	45	2
107	107	5
136	136	6
143	144	3
50	51	1
169	170	2
167	170	4
86	86	4
30	36	4
105	107	4
117	118	1
140	148	1
95	95	15
11	23	1
109	110	2
99	99	12
150	151	1
142	147	4
84	100	1
31	64	1
65	74	6
113	117	2
124	141	3
127	127	6
168	175	6
31	32	7
33	180	3
14	29	1
120	120	5
88	180	4
66	67	2
121	122	5
77	124	1
55	132	1
62	62	1
62	71	1
75	75	2
151	152	2
141	141	3
122	122	2
50	50	7
101	102	5
131	174	2
111	111	7
102	102	3
64	64	9
162	168	2
22	44	4
5	24	1
95	146	2
112	112	9
63	74	1
147	147	2
82	119	4
133	134	1
114	114	5
75	126	2
174	174	8
126	126	11
170	170	4
153	159	2
63	72	4
80	143	1
98	98	7
54	54	4
24	43	1
26	28	1
112	132	2
102	126	2
102	103	1
132	133	2
117	134	1
162	162	6
106	107	2
124	124	5
76	179	1
84	98	1
27	27	5
42	43	7
89	89	3
105	110	2
115	117	1
58	58	3
171	172	2
107	150	1
163	170	4
77	175	2
169	171	3
14	24	1
84	84	8
30	31	2
96	96	2
6	43	3
17	42	2
103	103	2
160	173	3
121	121	3
116	117	4
19	19	2
16	19	3
114	115	9
59	63	2
97	155	3
133	170	1
150	177	2
104	106	1
85	109	1
29	29	6
23	23	2
109	109	2
12	12	1
55	139	3
11	13	1
51	53	1
54	72	3
65	65	8
119	119	3
146	160	5
118	127	3
98	164	3
3	3	4
13	13	4
73	73	1
61	67	1
120	169	1
128	130	3
2	59	1
4	8	2
163	163	4
0	82	1
30	32	1
18	19	2
173	173	6
74	80	1
82	83	5
33	33	9
163	169	3
16	43	3
106	106	2
85	167	2
89	107	1
92	95	3
149	149	1
115	121	1
163	173	5
158	158	2
82	108	3
81	82	4
3	16	2
86	159	3
61	61	2
127	131	5
143	146	1
4	4	3
112	113	4
82	82	1
157	157	3
10	67	1
44	44	2
61	129	2
104	124	2
43	43	4
139	169	4
134	135	1
81	81	1
71	84	3
33	70	3
27	37	4
164	166	2
5	50	4
179	180	3
24	45	2
6	25	4
138	138	3
83	84	3
155	155	1
172	173	3
73	139	1
75	149	1
144	144	3
38	39	2
93	93	4
40	40	3
134	137	4
67	71	1
98	156	1
137	137	2
79	134	2
121	157	5
41	41	7
87	87	5
164	164	2
56	136	2
123	126	1
148	148	2
100	101	1
88	88	3
86	87	2
88	98	2
8	8	2
2	130	2
109	112	1
52	54	2
58	59	2
80	80	2
110	157	2
154	165	1
172	172	2
159	159	4
56	137	3
74	75	2
10	14	1
71	72	3
51	52	2
16	148	1
1	24	2
61	63	2
59	82	2
77	125	1
93	174	2
103	104	2
165	165	8
104	105	4
59	59	2
82	118	1
60	62	3
59	81	1
4	25	2
21	100	1
22	23	2
1	4	1
139	173	2
53	53	5
155	158	2
94	94	4
22	28	2
149	178	7
72	72	2
64	139	1
111	156	1
60	60	1
77	150	1
81	122	1
146	146	2
84	128	2
105	105	1
54	55	2
85	85	2
2	6	3
139	139	2
23	44	2
140	160	1
70	70	1
109	131	2
160	163	3
132	172	2
99	101	1
88	94	3
98	118	1
104	104	1
77	179	1
154	170	2
108	133	1
2	8	2
51	88	1
77	78	4
8	13	1
9	62	1
79	149	1
24	25	1
142	142	2
134	134	2
138	171	5
79	178	1
9	9	3
140	165	1
36	37	4
163	165	1
165	166	1
123	179	1
79	133	1
105	154	2
87	168	1
45	45	2
154	168	2
110	110	3
49	49	2
1	6	1
142	145	1
57	136	1
10	15	1
161	170	1
16	17	1
35	38	1
1	82	2
14	17	1
113	114	1
56	56	2
11	19	1
163	164	1
57	59	2
39	39	1
139	142	2
5	6	1
52	53	2
96	133	1
2	71	1
66	75	1
138	169	1
127	136	1
61	68	1
133	133	1
117	135	1
102	104	1
73	80	1
173	174	1
53	54	1
2	39	1
