94	132	2
3	3	18
138	139	5
130	130	12
17	17	7
80	81	5
153	163	2
37	37	13
135	138	4
124	151	3
166	166	5
62	62	5
131	131	3
112	115	2
10	10	9
143	144	3
47	47	5
156	165	3
46	50	2
79	80	3
123	123	4
50	53	3
167	167	5
56	56	7
110	111	7
21	21	3
19	19	13
91	93	3
26	26	3
140	141	4
81	83	3
1	1	8
119	120	4
145	145	3
71	71	4
169	169	6
21	23	6
111	111	10
140	140	5
6	6	13
139	141	3
134	134	6
54	54	8
14	15	5
6	7	3
128	129	12
77	92	7
52	52	7
86	86	5
39	39	4
99	116	3
137	138	1
167	168	1
11	11	8
14	14	9
76	116	1
48	48	8
42	42	4
106	106	10
92	93	2
94	94	5
113	113	5
138	138	6
75	75	9
146	146	3
120	121	2
66	66	2
63	71	3
78	78	5
77	77	8
95	95	4
143	143	8
76	89	5
137	137	2
7	7	6
9	9	13
151	151	10
64	64	3
112	112	4
20	49	3
102	102	8
158	158	4
25	25	6
145	169	1
12	70	2
53	54	4
145	146	2
113	114	3
100	115	1
68	68	4
124	124	10
121	121	6
40	86	3
39	58	2
78	79	2
154	155	3
149	149	2
168	169	7
105	105	5
1	2	7
130	131	5
101	101	3
150	150	7
69	69	17
35	91	4
110	110	5
82	83	2
58	63	1
12	12	3
47	49	1
65	65	4
134	139	1
103	104	2
38	38	7
39	88	3
23	24	4
141	141	13
156	159	2
87	88	3
24	24	13
99	147	5
163	163	13
4	5	2
28	28	3
67	67	3
164	164	4
105	167	1
13	13	3
16	16	6
125	125	11
132	132	7
20	21	2
144	144	6
128	128	4
123	162	3
40	40	8
139	140	14
112	114	2
22	22	3
97	97	9
162	162	4
139	139	2
170	170	4
79	79	3
20	20	4
122	123	1
74	78	2
57	57	10
98	98	4
11	12	2
92	92	6
81	81	8
133	133	12
44	45	1
114	114	1
24	25	6
35	36	1
82	82	3
125	152	2
135	135	1
96	97	1
21	24	2
73	73	2
90	91	1
100	100	1
77	88	2
18	18	9
27	27	4
0	1	7
23	23	2
148	148	4
33	33	4
154	158	1
152	152	4
139	142	1
18	49	2
133	134	6
84	85	8
105	111	1
56	65	2
53	53	4
34	35	4
136	145	3
97	118	2
37	89	3
99	148	2
122	122	2
147	147	7
2	11	1
88	88	5
99	111	2
104	104	6
87	87	4
46	46	3
134	135	1
16	17	3
107	108	2
156	156	6
76	76	5
91	91	5
35	35	4
85	85	6
99	99	2
5	5	3
39	61	1
83	83	1
136	137	1
111	148	2
136	138	2
44	44	1
70	70	4
36	36	8
135	136	1
57	58	1
120	120	5
139	143	4
41	41	6
142	142	3
127	127	3
118	119	2
95	133	4
155	155	4
22	23	2
72	72	2
160	161	1
1	11	2
128	130	2
84	84	6
136	136	2
81	82	3
164	165	3
43	43	3
8	8	4
45	45	3
96	96	10
37	136	1
160	160	7
159	160	2
76	78	2
14	69	1
112	113	2
41	42	1
119	150	1
36	135	1
161	163	1
132	133	2
74	141	4
57	64	2
1	132	1
107	107	1
117	117	5
41	62	2
115	115	3
118	118	5
57	65	1
96	119	2
156	161	2
109	110	6
47	50	1
115	148	1
74	161	5
63	64	1
129	129	3
144	148	1
75	76	3
96	120	1
115	122	4
101	163	1
135	145	1
55	55	3
93	93	2
153	153	6
74	74	4
97	117	1
4	6	3
13	14	3
50	54	2
66	67	1
0	0	4
165	165	1
15	15	2
115	116	2
21	22	2
13	70	1
9	10	2
108	108	2
101	102	1
43	46	2
86	87	2
37	38	4
39	87	1
42	46	1
98	118	2
42	43	1
98	116	1
36	134	2
75	141	1
17	18	1
52	54	2
46	56	1
49	49	2
35	90	3
119	119	5
11	71	1
25	26	3
161	161	1
98	99	2
126	127	3
77	143	1
62	70	4
11	34	1
72	73	1
103	103	1
87	89	2
13	15	2
154	154	1
100	114	2
5	7	2
135	143	1
38	135	1
20	22	1
166	167	1
142	146	1
102	103	1
81	86	1
135	146	1
123	151	1
39	40	1
101	123	1
123	124	2
165	166	1
10	132	1
114	115	1
159	161	1
89	89	1
90	136	2
2	2	1
135	140	1
98	148	1
152	164	1
134	143	1
46	55	1
120	126	1
146	169	1
38	39	1
116	116	1
158	159	1
73	75	1
168	168	1
15	16	1
138	141	1
9	93	2
17	48	1
157	157	1
109	109	1
112	142	1
146	147	1
144	145	1
50	52	1
