69	81	2
115	133	3
69	69	5
96	96	1
24	26	2
25	28	2
103	132	2
60	60	1
99	99	8
3	22	4
53	53	3
15	26	5
50	50	10
95	111	1
7	11	3
4	45	2
68	68	1
72	73	4
113	128	5
77	86	1
124	125	5
71	73	2
61	67	2
13	15	1
27	30	2
86	86	4
28	28	3
129	129	11
8	130	1
27	27	7
130	134	2
47	50	2
16	17	2
120	133	4
49	49	3
118	119	5
11	11	4
57	63	6
89	89	2
26	26	3
18	18	5
91	92	2
58	58	3
59	63	2
54	54	5
44	44	5
73	74	2
96	107	2
4	21	4
102	104	3
83	87	5
111	112	3
55	60	1
1	2	2
119	131	1
68	73	1
115	119	1
91	91	4
92	95	6
4	94	2
22	23	7
131	131	5
52	73	3
53	55	1
113	113	2
36	36	10
63	64	3
106	106	7
8	8	4
91	123	3
19	19	1
66	68	4
92	92	4
56	56	8
50	62	6
84	95	2
5	5	4
44	50	2
43	45	3
35	35	1
64	65	2
21	21	8
79	79	5
27	28	1
9	24	2
98	98	6
106	109	2
23	30	3
36	38	2
117	117	4
45	45	7
62	67	4
67	67	5
118	123	1
101	115	5
75	85	2
48	56	6
108	109	1
56	68	1
12	27	4
16	16	7
125	125	9
81	98	2
37	37	7
11	25	7
4	4	4
104	105	6
34	34	6
80	80	3
67	79	1
130	131	7
84	117	6
89	90	1
66	66	3
115	115	6
128	128	6
32	38	2
91	93	1
59	61	2
127	127	7
112	112	4
54	58	4
102	105	4
113	115	2
94	108	6
104	108	3
33	35	1
65	70	2
126	129	5
109	112	1
122	123	5
71	91	1
134	134	1
95	106	3
74	91	4
132	132	7
113	124	4
94	106	1
14	14	5
109	110	1
72	82	2
25	27	6
120	124	4
54	68	4
94	94	6
9	126	1
95	95	6
115	132	2
107	108	2
93	93	1
100	100	4
118	118	6
65	68	3
31	31	2
96	101	1
123	123	9
64	64	6
75	75	4
38	38	2
6	10	1
87	108	4
62	64	5
28	29	2
130	130	6
79	87	2
121	121	2
98	115	4
101	109	3
94	95	4
76	76	4
112	123	1
22	22	3
12	14	2
87	87	3
32	32	6
99	108	1
36	55	3
4	23	3
25	30	5
70	70	5
31	56	1
8	13	4
51	51	3
77	80	1
48	61	2
53	63	1
23	23	2
82	82	3
124	124	2
7	13	3
19	23	2
131	132	2
5	20	1
7	23	2
71	71	2
99	101	1
69	75	2
123	132	1
110	111	3
114	114	5
31	32	4
92	94	4
134	135	4
63	63	5
14	25	4
97	99	6
122	132	3
127	133	3
59	59	2
58	69	1
52	52	2
10	14	4
111	111	3
44	48	2
66	67	3
100	114	1
14	16	3
105	105	6
36	37	2
74	76	1
48	80	1
3	4	1
55	58	2
1	7	2
97	98	5
25	25	2
9	26	2
103	103	3
76	79	5
26	27	4
70	73	4
97	97	14
32	33	4
108	110	2
3	16	3
66	73	1
1	1	3
65	66	2
30	30	4
116	116	7
122	122	1
6	9	3
73	73	3
17	28	1
84	94	1
67	76	3
17	17	5
95	113	1
55	55	2
117	121	1
110	110	1
17	29	3
1	68	2
57	57	1
68	90	1
92	93	3
90	91	1
2	16	1
111	129	2
104	117	2
114	116	2
88	97	3
111	128	1
93	94	1
62	63	7
48	48	1
79	93	3
50	54	3
82	99	1
49	59	2
82	88	2
54	57	4
58	61	2
77	82	1
112	127	2
102	102	2
87	88	1
127	134	1
52	54	1
59	60	1
8	9	1
6	8	2
81	92	1
86	98	3
90	100	2
82	116	4
43	43	3
13	14	2
85	96	1
37	38	1
61	69	1
61	61	1
48	53	1
47	60	1
57	77	1
30	38	1
6	6	3
115	126	1
2	2	3
119	119	2
109	109	2
84	101	2
2	4	2
124	126	2
8	126	5
10	10	6
33	33	2
34	35	4
109	120	2
18	19	1
83	97	2
120	120	4
127	132	2
43	57	2
21	31	3
119	124	1
77	78	1
11	22	2
11	13	4
95	108	1
35	37	1
55	57	2
90	106	4
129	131	1
3	8	1
110	129	2
86	120	1
11	27	2
77	77	3
44	52	2
22	24	3
25	26	1
93	123	1
90	90	1
43	52	1
72	124	1
47	51	1
105	106	1
104	113	1
116	133	3
127	130	1
102	126	1
61	80	3
17	25	1
66	76	1
99	116	4
96	97	3
13	26	2
49	64	1
71	83	1
3	5	1
83	83	3
53	65	1
85	107	1
45	95	1
77	79	1
100	107	2
18	20	4
86	87	1
29	32	1
56	57	1
91	97	1
15	15	1
36	72	1
57	78	1
33	34	3
33	72	1
29	29	1
19	30	1
98	99	3
68	70	1
69	80	1
128	133	2
20	23	1
16	33	1
78	79	1
28	36	1
106	123	1
46	46	3
13	13	1
33	38	1
74	74	2
32	45	1
126	127	1
82	114	1
88	88	2
32	35	1
85	85	2
45	47	1
130	135	2
0	5	1
49	55	1
88	98	1
68	86	1
62	62	2
82	83	1
74	93	1
88	90	1
19	24	1
99	112	1
115	121	1
101	119	1
53	78	1
95	110	1
78	78	1
100	105	1
8	10	1
66	77	2
47	96	1
69	70	1
113	116	1
72	72	1
12	12	1
66	78	1
45	55	1
53	73	1
5	12	1
85	90	1
