20	22	1
69	109	1
7	11	5
9	22	4
8	27	4
83	84	4
84	87	4
87	92	1
27	27	7
45	46	2
10	10	4
54	99	3
112	114	2
96	96	3
14	14	4
137	139	1
98	99	1
72	72	2
26	26	8
22	23	5
50	50	1
45	45	1
34	36	2
109	110	2
96	97	2
32	33	2
65	144	3
120	120	1
17	18	5
31	31	4
76	77	1
136	136	5
104	104	5
88	88	7
111	111	3
79	128	1
124	126	6
109	109	4
94	110	3
33	50	2
128	128	5
18	18	8
20	20	1
32	32	3
47	52	1
64	66	1
140	140	3
58	143	2
83	142	1
10	13	1
66	66	1
17	19	1
16	16	4
146	150	4
81	82	6
79	124	2
22	22	4
103	104	4
33	33	10
46	46	4
51	97	3
40	40	6
3	21	2
12	13	1
124	124	2
6	6	1
83	83	3
4	5	2
79	79	4
102	102	4
85	85	5
91	92	5
63	63	3
12	17	2
64	64	5
92	93	4
12	15	2
65	65	3
105	105	1
34	34	3
35	36	3
130	130	3
138	138	4
80	80	2
146	148	4
68	68	3
108	110	3
34	35	2
67	154	1
117	117	5
152	153	4
79	81	1
116	116	7
144	144	7
26	28	1
134	134	1
94	95	3
86	86	4
69	69	2
114	119	2
38	38	3
73	74	5
108	109	4
8	8	1
82	82	4
64	103	1
11	11	6
94	94	8
19	23	4
146	146	6
55	55	1
9	9	4
94	108	5
133	133	8
49	101	2
23	23	1
77	77	2
139	139	11
67	105	1
76	113	1
132	137	1
40	41	3
52	55	4
83	93	1
66	93	1
43	43	2
131	131	8
123	123	1
97	100	2
39	39	4
28	28	4
96	98	3
19	19	3
126	126	5
93	93	2
68	69	4
147	147	6
76	76	3
4	7	1
150	152	1
78	78	1
53	54	2
132	142	1
29	30	6
124	125	1
9	19	1
121	121	4
24	117	2
77	78	3
113	113	2
53	56	4
73	73	1
23	25	2
4	31	1
48	51	4
23	29	3
74	143	2
99	99	4
100	101	2
147	148	3
36	102	1
47	51	1
5	8	1
32	62	1
114	128	1
83	144	1
44	44	3
137	137	3
78	122	1
4	6	4
151	151	1
14	15	4
110	134	1
17	17	1
91	93	1
13	15	4
42	94	3
50	133	1
84	141	1
138	139	2
79	80	2
137	138	4
70	70	3
133	141	3
150	150	1
108	108	2
48	50	1
113	114	3
130	132	4
145	145	2
77	129	1
80	81	2
42	98	2
129	130	1
117	119	1
36	36	3
51	61	1
122	122	3
13	13	1
15	15	6
112	113	3
149	152	1
35	51	2
9	10	1
152	152	2
149	149	1
57	65	1
15	16	5
57	57	3
30	50	1
72	73	4
114	116	3
97	97	2
33	36	3
123	125	1
115	115	1
47	48	2
30	32	3
37	38	1
104	105	2
142	142	3
13	16	1
58	108	2
48	48	6
35	104	1
130	131	1
113	154	2
75	75	2
32	34	1
95	97	1
49	105	1
77	87	1
56	99	1
104	137	2
80	127	2
71	71	2
37	102	1
20	29	3
65	66	1
81	81	3
73	128	2
66	100	1
76	128	1
54	54	1
112	119	1
104	136	2
100	100	1
6	7	2
101	104	2
39	40	2
131	132	1
118	118	4
84	137	1
54	96	3
75	113	1
30	30	1
8	9	3
7	31	1
114	114	1
4	33	2
75	77	2
16	32	1
7	29	2
43	44	1
13	14	2
94	102	1
42	110	1
2	19	1
78	83	1
41	41	4
35	137	2
28	115	1
132	141	1
97	102	1
139	141	1
79	121	1
85	86	1
81	151	1
3	19	1
6	31	1
139	144	2
36	104	3
73	113	1
74	74	1
86	87	1
65	105	2
133	135	1
56	56	2
41	98	1
24	24	2
80	144	3
63	144	1
27	28	1
23	64	1
119	119	1
24	25	1
121	122	2
77	93	2
84	85	1
87	87	2
135	135	1
73	77	2
84	143	1
16	17	1
71	74	1
125	125	2
149	150	1
51	143	1
18	19	1
95	96	1
127	128	1
115	116	2
107	107	1
14	17	1
69	70	1
136	137	1
57	66	1
41	53	1
84	140	1
29	29	1
33	37	1
49	49	2
56	108	1
28	29	1
74	75	1
67	109	1
37	37	1
90	119	1
35	35	1
32	51	1
131	133	1
41	94	1
42	42	1
79	123	1
64	85	1
25	25	1
57	64	1
132	132	1
96	108	1
26	29	1
