124	125	2
137	137	14
2	3	4
11	11	2
34	34	6
35	57	7
108	128	7
93	93	3
38	38	4
88	90	2
33	57	4
96	96	7
101	102	6
89	90	4
5	38	2
106	107	6
117	117	4
25	26	3
15	15	4
64	64	7
102	102	3
49	49	4
43	56	5
27	30	2
75	75	11
88	91	1
72	72	5
106	106	12
31	31	6
124	124	3
83	83	2
118	135	7
66	66	12
35	36	7
84	84	4
142	142	6
13	13	8
41	41	2
14	16	2
89	89	11
138	140	3
74	74	2
111	112	2
20	21	4
109	109	11
120	121	1
99	99	4
63	63	4
141	141	7
126	131	1
127	127	4
60	61	2
119	120	2
138	138	11
107	128	1
62	63	1
3	22	5
75	99	3
1	4	4
59	61	2
108	109	10
116	116	1
70	71	6
104	110	2
14	41	3
76	76	7
32	33	4
53	54	4
144	144	2
5	5	6
23	23	6
36	36	10
81	82	2
120	123	1
95	99	1
18	36	1
9	9	4
68	69	5
85	85	9
1	5	2
26	31	1
133	133	2
17	17	7
56	57	1
30	42	2
69	70	2
73	74	7
30	60	1
56	56	3
96	102	2
39	39	5
1	37	2
62	66	3
129	129	7
4	4	3
78	105	1
107	108	3
140	140	11
58	58	8
64	65	1
15	16	1
102	103	1
41	98	2
107	107	1
96	98	1
87	87	4
32	36	3
28	67	2
143	144	3
100	101	1
29	35	1
131	131	4
51	51	8
131	139	2
6	6	5
122	123	3
27	42	3
53	53	5
20	37	2
82	82	6
120	124	4
114	114	2
141	142	2
72	73	9
118	134	2
25	25	4
34	35	4
105	109	1
119	119	7
126	126	3
67	102	4
144	145	2
29	57	6
53	73	2
55	88	2
120	120	4
130	130	2
18	23	1
58	60	2
4	5	4
123	123	2
59	65	2
47	56	3
0	1	7
97	97	4
121	121	3
134	137	4
0	0	4
112	113	3
14	15	5
112	112	8
56	66	1
118	119	2
3	3	2
100	100	5
18	18	9
128	128	3
16	16	5
55	82	3
73	73	7
30	48	3
28	28	3
83	84	7
42	102	2
49	51	3
80	103	1
21	25	3
34	43	5
17	18	1
86	87	1
24	24	3
21	21	4
29	29	2
104	104	3
115	115	3
122	122	6
10	10	5
0	32	1
88	89	4
134	134	3
18	19	1
59	59	1
79	99	2
126	130	1
92	93	4
81	102	1
3	5	5
68	68	4
117	118	1
115	131	1
48	50	2
111	111	2
26	26	3
90	90	6
9	16	2
8	8	1
3	4	3
12	12	1
54	54	2
65	65	7
6	38	1
60	60	2
77	99	1
103	103	1
32	32	3
118	118	2
94	94	2
63	65	1
117	140	3
123	135	3
90	91	2
136	136	4
70	91	2
14	14	2
114	116	3
62	117	4
119	138	1
47	47	5
64	66	2
125	130	3
75	94	2
48	48	2
79	79	2
33	34	2
113	114	1
74	91	4
81	81	3
82	83	2
101	101	3
61	61	1
131	132	2
20	20	2
33	35	1
119	134	1
106	110	1
127	128	2
31	32	1
126	132	1
114	115	1
43	59	2
46	46	2
135	135	2
22	22	1
79	104	2
132	132	1
40	40	2
132	139	2
28	42	2
20	31	1
108	108	1
33	33	2
91	91	3
6	32	2
6	34	1
2	2	1
116	117	2
50	87	1
1	6	2
49	50	3
33	36	1
39	40	1
74	94	1
110	110	3
56	82	2
49	88	1
111	127	1
134	135	1
67	68	1
69	69	2
70	70	1
77	77	1
117	131	2
0	37	2
133	135	2
131	141	1
5	47	1
106	128	1
142	143	1
115	116	1
19	23	1
79	80	2
35	43	2
138	139	1
14	108	1
78	78	1
54	55	1
66	84	1
125	133	1
29	30	1
42	42	1
67	81	1
