107	107	4
83	85	3
5	7	5
22	74	4
94	95	6
64	70	2
41	44	1
8	8	3
24	24	6
117	117	5
136	139	1
18	19	2
66	82	2
98	98	3
77	80	1
41	70	3
136	138	2
12	12	1
150	150	2
17	63	2
66	66	9
49	49	4
30	30	5
93	93	3
135	135	3
127	127	2
7	7	2
128	128	7
119	119	7
72	72	7
35	35	4
3	4	1
84	84	4
42	42	5
69	88	1
26	26	3
18	39	3
22	22	5
86	108	2
33	34	2
140	143	6
57	57	7
146	146	9
86	86	3
39	39	4
54	54	6
147	148	3
102	109	4
83	125	2
76	76	3
84	134	1
41	41	4
136	136	4
118	118	3
73	73	2
139	139	2
63	63	2
79	127	4
83	83	6
154	154	3
118	119	1
55	56	1
138	138	5
15	15	2
12	93	1
78	78	2
67	68	6
71	71	3
27	30	1
138	146	1
64	64	6
43	48	3
49	50	1
132	132	3
31	32	2
16	16	3
110	110	4
9	9	2
153	153	3
4	4	2
17	17	3
85	127	3
23	70	1
65	66	2
41	144	2
131	131	5
58	111	2
26	81	5
122	123	3
26	28	2
56	57	1
97	97	2
107	108	1
25	25	1
152	152	5
93	140	1
70	70	1
18	18	3
36	56	2
88	97	1
130	139	1
124	124	3
106	106	5
21	65	2
143	145	1
101	106	2
69	132	4
85	134	1
11	11	2
91	91	2
128	138	1
46	69	2
23	30	1
92	93	1
80	81	1
67	143	2
45	45	1
105	105	1
143	143	2
13	13	2
112	133	3
87	101	3
104	104	4
98	111	2
87	104	2
71	72	1
43	43	1
50	51	4
74	78	2
99	100	1
6	6	2
104	105	1
53	53	1
80	134	1
5	6	1
87	106	2
125	125	1
30	31	1
62	76	1
17	19	1
52	109	1
36	37	1
80	110	1
98	146	1
90	91	3
119	131	1
20	23	1
129	129	4
130	150	3
103	108	1
9	98	4
29	29	6
137	139	7
115	115	2
142	148	1
97	148	1
133	135	1
36	66	1
136	141	3
100	134	4
85	85	1
38	63	2
64	104	2
103	128	1
76	80	2
122	147	2
67	144	2
137	141	1
48	110	1
50	50	2
135	136	1
143	144	1
102	102	1
131	132	3
142	144	2
3	13	2
12	13	2
111	111	3
43	44	1
9	12	1
19	20	1
49	52	1
47	47	1
34	81	1
37	37	1
123	125	1
13	100	2
46	46	2
29	33	2
10	10	1
130	130	1
68	90	1
28	28	3
88	90	4
39	40	2
64	65	1
19	19	2
41	42	1
99	99	3
44	44	1
29	32	1
109	109	1
48	48	1
21	63	1
44	45	1
82	82	2
144	144	2
79	79	1
101	102	2
66	68	1
82	127	1
140	140	1
137	138	1
113	113	1
114	114	1
81	81	1
41	67	1
144	145	1
67	67	1
125	127	1
3	8	1
42	53	1
97	99	1
40	42	1
