67	68	6
27	27	7
13	14	4
9	9	4
128	128	10
10	14	2
38	39	2
108	113	3
86	86	7
90	92	3
151	151	6
78	102	2
8	12	3
89	135	2
118	122	5
69	69	4
94	94	16
8	8	6
93	95	4
6	6	5
103	103	10
45	45	4
150	154	1
46	46	3
71	105	5
140	140	5
135	135	14
153	153	3
0	67	3
28	57	3
73	73	4
120	120	11
153	154	3
139	157	1
111	113	2
144	145	3
37	40	2
148	151	1
90	96	1
93	114	2
137	137	10
95	96	3
31	31	11
29	29	3
106	106	6
111	111	4
87	112	2
34	55	1
94	140	1
11	11	9
37	37	6
40	40	7
64	64	1
130	132	3
34	35	3
83	87	3
156	156	13
8	27	4
118	118	8
107	107	9
114	114	4
63	63	3
90	90	10
53	53	8
152	152	11
149	152	1
89	99	1
141	142	2
133	133	4
48	51	5
20	21	5
84	88	6
144	151	1
95	141	2
64	138	4
115	139	1
108	108	9
98	98	4
112	112	3
88	103	1
127	152	2
111	112	2
34	34	4
67	136	4
2	2	2
22	23	5
77	77	1
48	48	3
3	64	1
83	83	9
80	80	6
13	13	4
41	41	2
25	25	1
49	49	5
50	50	13
91	147	7
77	102	3
108	109	11
0	0	2
95	95	4
144	144	5
119	123	3
29	30	3
145	145	6
54	55	1
24	24	9
149	149	4
0	50	4
87	88	3
21	24	4
110	112	3
34	48	2
76	103	3
81	81	2
18	18	5
110	110	4
119	120	3
148	148	6
132	146	1
124	127	2
69	150	2
16	16	1
2	3	2
3	4	2
82	111	1
12	12	6
125	152	2
98	99	1
75	75	6
119	121	2
109	109	11
19	20	2
129	131	4
38	38	5
127	127	5
136	136	2
118	121	5
81	82	2
155	155	6
154	156	4
140	141	3
91	91	4
78	78	4
119	119	3
87	87	9
123	124	6
135	148	3
21	21	6
146	147	5
93	138	3
1	1	6
78	116	1
10	10	4
142	142	4
92	93	4
100	100	7
81	105	1
135	145	7
20	56	1
18	51	1
23	23	7
70	70	2
72	72	2
54	70	1
96	97	4
138	138	5
71	145	2
77	78	3
95	97	1
113	113	4
19	19	2
88	88	2
115	115	5
107	147	5
17	54	2
20	31	2
107	109	1
130	130	5
83	88	2
109	110	2
30	43	2
157	157	2
82	82	2
99	99	1
97	97	3
15	45	2
158	158	6
116	116	6
130	131	4
138	139	3
45	46	2
70	134	2
94	147	1
36	37	5
22	27	1
144	146	3
52	52	2
15	41	5
62	62	2
106	112	1
3	3	8
121	127	4
79	79	6
14	103	3
39	39	5
85	86	2
147	148	4
116	139	2
17	19	3
143	151	3
139	139	4
134	134	2
42	49	2
41	49	2
88	89	1
22	24	1
108	110	1
63	70	2
15	21	1
70	92	1
78	106	3
2	20	3
121	121	2
7	90	1
133	149	2
132	134	4
148	149	1
7	7	2
70	117	1
132	133	1
76	124	1
14	15	3
14	14	6
85	85	6
37	55	2
51	51	3
81	112	4
106	107	2
93	93	7
112	117	1
79	80	1
22	22	1
5	5	2
2	108	1
105	105	4
66	66	3
48	49	3
125	125	6
4	4	1
31	49	1
133	134	2
21	31	2
124	156	1
80	115	2
146	146	4
26	26	3
46	113	1
36	36	1
30	30	2
51	52	2
68	68	3
152	153	2
89	89	2
144	148	3
79	140	1
11	14	1
123	123	3
77	103	1
33	33	1
126	126	2
117	158	3
91	92	4
108	114	1
119	146	1
43	43	1
81	86	1
123	127	1
107	152	1
117	154	1
64	67	3
106	142	2
150	150	1
80	83	2
21	43	2
18	20	2
44	45	1
64	134	1
17	33	1
92	92	2
151	152	1
30	31	1
143	143	2
114	116	2
39	41	1
124	124	1
132	132	1
2	98	1
155	156	2
101	101	1
71	153	2
118	119	1
102	102	1
41	42	4
154	154	4
147	147	1
40	43	3
44	44	1
132	152	1
125	131	1
16	45	3
104	104	1
81	143	2
55	56	2
69	139	2
156	157	2
152	154	1
21	50	1
47	52	1
110	111	1
4	48	1
95	98	2
20	52	1
15	16	1
39	110	1
134	148	1
42	42	1
15	40	1
93	94	1
117	117	1
133	148	1
57	57	1
94	110	1
118	144	1
