95	95	14
73	94	1
27	32	1
3	3	12
7	7	23
85	85	15
119	119	12
72	73	9
9	9	21
25	25	23
31	31	25
17	18	3
73	73	14
86	86	12
35	35	15
100	100	29
83	84	6
130	131	4
103	104	5
93	94	4
38	112	5
10	107	4
131	131	5
34	34	15
117	121	9
119	121	6
77	78	5
109	109	18
9	10	8
1	2	5
35	36	1
24	27	12
24	29	6
74	95	3
78	83	2
13	14	6
23	24	8
78	103	1
24	24	19
122	122	3
71	72	8
13	13	8
19	20	4
102	103	3
16	16	28
83	83	13
121	121	21
136	136	14
87	87	13
118	118	22
112	112	15
137	137	12
74	79	6
124	125	7
97	97	10
17	19	13
85	89	5
74	82	8
33	33	6
10	10	19
112	113	2
12	14	4
15	15	11
101	103	8
114	114	7
2	2	16
32	33	3
105	105	16
111	111	18
88	88	11
71	71	10
33	34	11
6	7	7
25	26	4
137	138	3
89	90	3
93	93	23
14	15	6
79	79	28
102	104	10
80	81	12
89	102	5
76	76	11
21	21	25
11	11	10
24	26	3
113	113	11
91	94	4
125	125	3
0	0	16
117	118	5
77	77	6
38	38	15
26	26	23
134	134	4
27	29	1
17	17	4
27	28	5
132	132	8
88	92	2
116	116	10
94	94	5
78	85	3
37	37	17
88	93	4
91	91	11
125	126	3
108	108	15
11	12	4
88	89	3
14	14	14
77	102	8
107	119	1
108	109	3
122	123	2
76	101	6
86	90	3
14	21	3
123	123	22
4	6	2
30	30	21
134	135	5
27	27	13
18	19	2
74	74	25
140	140	8
4	4	13
5	5	9
21	22	4
102	102	12
34	35	15
74	78	2
138	138	7
115	115	9
22	22	9
8	8	5
74	94	3
18	18	9
3	4	2
126	126	10
26	27	6
106	106	18
107	110	10
116	122	7
98	100	7
2	4	1
10	11	3
79	91	2
10	118	3
116	117	5
89	91	1
25	27	1
22	23	13
12	12	3
20	20	4
96	96	9
120	120	14
110	110	19
117	117	12
7	8	3
36	36	9
115	116	2
104	104	7
132	133	7
104	105	16
30	31	1
89	89	25
98	99	7
98	98	13
78	79	3
129	129	4
19	19	5
130	130	5
29	32	5
77	103	4
74	101	4
29	30	5
4	5	8
84	85	1
28	28	5
7	9	7
32	32	12
78	91	2
101	101	14
111	117	2
92	92	4
86	89	2
128	128	8
127	127	8
99	99	8
90	91	2
25	28	2
110	118	1
112	114	5
6	6	17
76	78	5
105	107	5
103	103	6
36	37	1
124	124	10
96	109	2
14	38	3
104	106	1
29	29	8
85	91	3
84	84	8
80	80	5
91	101	2
109	111	2
118	119	6
96	97	4
135	135	12
0	1	1
100	101	2
107	108	2
136	138	3
24	25	3
6	8	3
10	12	1
117	119	2
99	100	1
37	38	7
15	38	2
75	75	4
23	23	5
15	17	1
133	133	6
1	1	3
83	85	2
94	101	3
79	94	4
119	120	3
8	10	1
72	72	6
139	139	5
27	31	1
31	32	5
139	140	5
15	21	1
19	22	2
115	124	1
28	32	5
12	13	1
75	101	2
87	88	4
127	128	1
118	120	3
85	86	2
121	122	3
81	81	3
107	107	8
2	5	1
16	17	2
102	105	4
97	98	4
2	3	4
127	129	6
94	100	2
8	14	4
20	21	2
90	102	3
135	136	1
37	45	1
88	90	1
3	15	4
95	100	2
23	26	1
101	102	1
30	35	5
89	105	1
15	16	3
73	75	1
82	82	3
106	107	7
5	14	2
79	83	1
75	76	2
1	16	1
113	114	1
3	6	2
6	20	1
133	136	1
95	101	2
4	14	1
13	21	1
1	15	1
66	71	1
78	94	1
27	30	1
30	32	1
95	102	1
78	78	3
86	88	1
4	38	1
72	75	1
92	93	1
9	111	1
85	88	1
5	15	1
73	74	1
126	130	1
