117	117	3
148	149	5
66	66	11
37	40	8
6	7	4
160	161	5
148	150	4
1	13	1
109	110	4
84	84	10
39	39	3
83	83	9
107	109	2
109	114	1
130	130	5
25	84	1
121	122	3
105	105	6
69	70	8
3	3	4
128	128	5
120	120	5
144	144	11
107	107	10
156	156	10
157	157	1
124	124	7
5	47	3
101	101	7
49	49	9
134	134	2
156	157	5
34	34	3
13	13	13
97	97	3
127	127	4
21	21	7
140	147	7
144	146	1
57	57	13
108	108	5
21	22	5
33	33	1
126	126	1
68	68	9
109	109	6
102	109	4
106	107	3
125	125	9
26	26	4
91	91	7
94	95	4
100	103	4
55	55	6
74	74	3
126	131	1
162	162	2
81	81	3
118	118	4
43	43	13
46	47	3
137	137	7
44	44	5
163	166	2
129	167	2
135	135	8
51	51	5
166	166	6
113	113	4
131	132	3
74	75	1
158	163	1
25	25	6
95	95	1
54	57	2
131	131	11
41	42	1
3	4	5
54	56	1
1	1	4
159	159	12
50	53	1
0	0	3
162	163	7
152	152	12
129	129	6
163	164	5
143	143	6
168	169	4
20	20	6
144	147	1
21	34	2
125	126	3
46	46	3
27	27	9
96	97	1
87	87	7
121	121	4
119	122	7
101	115	5
80	80	8
13	56	3
167	168	4
147	152	3
48	49	11
122	122	2
155	155	6
25	80	2
36	36	6
45	45	6
163	165	2
17	17	3
110	110	1
23	24	1
71	71	6
71	72	1
151	151	6
90	90	4
151	159	1
92	92	2
5	6	4
44	49	1
151	153	1
146	146	3
62	64	3
122	128	6
131	134	4
170	170	4
140	140	4
24	24	4
16	49	1
139	140	6
147	147	4
73	74	2
2	11	3
102	102	1
2	10	2
6	6	6
35	35	6
4	4	7
116	116	8
99	100	4
99	99	3
72	73	4
14	14	4
82	82	6
86	86	5
110	111	4
139	139	1
142	142	2
148	151	4
101	102	8
144	157	2
143	146	5
19	20	6
116	117	7
89	89	3
2	12	1
65	68	2
38	38	6
103	104	3
75	75	2
88	89	5
140	141	2
8	8	7
144	145	5
4	5	5
93	112	3
137	138	1
23	23	5
11	11	6
158	166	5
2	2	2
88	88	5
18	50	6
48	48	5
101	116	2
38	41	2
0	1	5
57	63	3
15	15	2
1	2	1
53	53	1
67	67	3
77	77	3
93	93	2
37	37	2
165	165	2
116	123	2
18	18	7
134	135	1
154	155	3
20	24	1
16	48	2
111	113	2
128	129	1
17	18	1
12	13	1
16	54	4
64	65	2
164	166	1
164	165	2
45	46	1
123	126	2
6	8	2
117	118	1
65	65	1
85	85	2
44	45	5
135	136	1
12	12	2
119	119	5
136	136	5
87	90	3
47	47	2
161	163	3
83	84	1
161	161	5
150	150	1
118	119	2
132	135	3
79	79	2
3	11	2
111	111	2
70	70	4
62	63	1
5	5	3
16	16	1
18	57	2
113	114	1
133	133	2
41	41	2
36	37	2
42	43	4
28	28	3
106	106	3
78	79	2
26	81	3
108	109	1
144	150	2
16	53	1
103	103	3
10	10	1
70	86	1
140	148	1
161	164	1
89	90	1
122	130	1
62	62	1
143	145	3
158	158	2
67	69	1
73	110	1
7	7	1
19	19	2
69	69	5
64	64	2
52	53	2
64	66	1
42	42	4
52	77	1
114	115	2
52	52	4
152	153	1
100	100	3
73	116	6
70	89	2
98	98	1
40	40	1
64	67	1
158	159	1
20	23	1
114	114	3
131	135	1
86	87	1
98	99	2
165	166	1
141	142	2
132	137	1
45	47	1
111	112	1
90	111	1
115	115	1
26	27	2
24	57	1
97	98	1
57	80	2
132	132	3
43	44	1
12	55	1
91	92	1
164	164	1
120	162	1
92	93	2
160	160	1
166	169	1
76	76	2
155	160	1
105	106	1
149	149	1
16	55	2
66	67	1
89	91	1
66	75	1
133	141	1
134	136	1
58	58	2
151	170	1
82	83	1
56	56	2
38	40	2
37	38	1
155	159	1
1	8	1
21	137	2
73	73	1
147	148	1
145	145	1
