116	116	9
95	95	7
3	3	6
77	77	10
79	79	13
129	129	24
91	91	21
22	23	2
30	81	3
83	84	8
135	135	7
37	37	5
80	80	3
108	109	2
31	31	2
21	22	4
81	81	5
74	74	8
37	38	7
125	125	8
21	21	6
76	121	1
75	77	3
71	71	1
98	98	13
118	119	5
103	103	13
130	130	15
121	121	10
102	102	14
133	133	2
78	111	1
23	24	3
90	90	4
112	112	8
117	117	6
120	122	12
139	139	9
15	27	2
1	5	4
35	101	1
14	14	13
106	107	3
83	85	3
113	113	1
85	90	3
23	23	3
109	109	10
87	102	3
3	12	2
76	77	6
12	12	4
100	100	3
80	81	5
25	25	10
10	10	6
134	134	6
20	21	2
66	66	1
87	103	3
91	101	4
132	132	14
118	122	2
4	4	5
128	128	3
127	127	7
86	88	3
22	28	1
17	17	6
104	106	5
24	24	2
2	2	4
4	128	1
6	6	8
106	119	2
13	13	2
76	76	15
93	93	7
92	93	3
114	114	6
26	27	3
72	72	7
7	7	6
87	87	3
122	122	2
9	9	7
137	138	2
2	8	4
26	26	10
0	21	3
121	122	1
93	94	4
124	125	2
10	12	6
130	131	2
3	13	1
28	28	4
12	13	3
107	108	4
96	96	3
120	120	2
131	131	2
9	12	2
140	140	1
138	138	4
81	82	3
86	86	3
32	32	1
30	31	6
85	106	2
14	15	2
89	90	5
34	34	9
125	126	1
35	35	7
2	3	5
5	6	1
22	22	3
83	83	3
92	92	6
27	28	4
27	27	15
36	36	4
18	18	1
117	119	3
123	123	5
75	75	5
128	129	7
36	37	3
111	111	3
19	22	1
1	28	3
107	107	5
72	73	2
119	119	4
87	88	1
117	118	1
84	85	3
17	18	3
73	73	4
71	72	5
110	110	2
88	88	2
88	90	2
38	38	3
36	97	2
115	115	6
20	20	3
29	29	3
90	91	3
118	118	4
7	9	1
107	123	3
29	32	1
8	15	1
33	33	3
107	119	1
19	19	6
35	99	2
16	16	2
140	141	2
89	113	1
19	20	1
111	112	1
98	99	1
92	94	2
71	123	2
71	110	3
36	127	2
106	106	2
99	100	2
15	15	2
137	137	1
30	30	5
114	115	3
33	34	2
73	115	2
126	126	2
1	1	6
1	22	1
89	101	1
94	94	5
81	84	2
80	85	1
88	89	1
123	124	1
5	5	2
31	32	4
34	128	1
81	85	1
71	107	1
75	120	1
124	126	2
74	75	2
136	137	1
0	0	2
120	121	3
82	85	1
35	104	1
76	100	1
16	17	1
2	27	4
34	38	1
16	19	2
85	85	3
86	87	2
76	78	1
113	115	2
3	26	1
29	30	1
15	21	1
8	8	1
97	97	1
112	118	1
23	25	1
38	39	1
89	89	1
139	140	1
105	105	1
27	31	1
130	132	1
3	4	1
7	8	1
102	104	2
78	121	2
112	114	1
11	13	1
18	32	1
