52	52	11
33	33	11
28	104	2
71	71	14
29	35	2
54	57	2
108	108	6
46	46	17
44	112	1
25	49	6
84	84	8
61	61	19
78	78	5
92	100	2
62	63	3
64	64	13
63	64	6
73	73	7
60	77	1
21	23	3
111	111	10
38	38	10
95	95	16
37	37	20
102	102	11
79	80	1
30	95	3
30	46	2
35	96	1
84	85	4
73	105	2
57	57	11
74	98	2
30	33	6
54	54	8
20	21	4
45	45	10
58	58	6
36	36	18
105	108	3
82	82	14
99	100	4
40	40	18
44	44	7
67	85	12
75	80	2
27	28	3
70	70	22
104	106	2
86	87	5
41	41	6
94	95	2
79	79	3
91	91	6
22	22	13
109	109	7
106	106	10
55	57	3
27	109	3
63	63	17
68	73	2
60	60	13
68	72	2
101	101	11
86	86	8
65	65	7
48	97	7
37	38	6
50	50	17
59	62	3
59	60	10
47	47	16
47	92	2
67	88	7
77	85	3
24	24	7
89	89	14
44	45	3
93	93	6
26	26	14
62	62	16
56	57	4
42	42	8
48	48	12
24	26	3
71	72	2
92	92	11
105	107	4
106	107	2
112	112	12
74	74	20
51	55	2
38	39	4
67	67	11
30	31	6
77	78	4
61	62	6
99	99	11
32	32	19
88	88	5
20	20	5
81	82	3
96	97	3
66	88	4
27	75	2
31	31	10
49	49	9
107	107	2
87	87	7
56	65	1
58	73	5
50	53	3
19	88	2
96	96	13
114	114	3
85	85	13
58	60	2
25	45	4
43	43	4
72	72	10
69	69	20
21	21	11
34	97	4
32	33	5
73	75	1
103	103	7
67	70	6
32	34	2
83	83	9
62	64	2
36	101	1
87	104	2
27	74	2
89	94	1
85	86	10
77	77	4
50	51	10
65	76	1
55	55	8
57	58	5
39	39	11
86	88	2
28	94	5
90	92	2
66	80	1
51	51	20
98	98	6
30	85	1
110	111	5
97	97	12
46	110	4
81	81	13
66	66	8
46	113	1
68	69	13
28	31	2
71	97	1
24	95	1
33	34	3
84	101	4
45	92	2
75	76	10
100	100	4
106	109	3
26	50	2
53	57	1
82	83	3
71	108	4
28	28	6
29	77	5
25	27	2
27	29	1
24	44	1
90	90	5
20	25	3
19	20	2
49	56	2
47	65	3
81	84	3
76	76	3
110	110	11
30	48	1
93	105	2
108	111	2
25	25	8
92	105	2
113	114	3
23	23	10
27	27	5
67	74	3
103	106	1
55	104	2
64	65	3
40	41	5
58	59	7
49	51	1
94	94	7
95	96	1
109	112	2
40	43	1
22	23	1
104	105	3
57	59	2
59	80	1
34	34	3
31	45	2
56	80	2
75	79	1
28	76	1
37	39	1
52	54	1
51	96	1
66	67	1
35	35	5
105	105	6
84	95	3
85	88	1
53	97	2
82	114	1
49	103	1
53	54	2
55	87	2
22	76	2
19	79	1
90	100	3
97	98	2
108	114	1
107	114	1
80	81	6
67	75	3
42	111	2
59	59	14
89	105	1
38	61	2
100	101	2
109	110	2
104	104	11
37	46	1
68	68	9
70	71	2
76	77	3
34	35	2
50	99	1
19	19	1
29	87	2
25	30	1
47	50	2
93	94	3
32	98	1
55	56	2
47	91	3
47	49	3
83	95	2
65	74	2
20	98	2
19	26	2
83	84	1
80	100	1
83	88	3
26	39	1
63	74	2
36	37	1
20	71	3
32	37	1
112	113	1
42	43	5
30	30	2
26	87	1
48	103	1
83	96	2
24	25	4
60	62	2
30	36	2
52	73	2
36	96	1
66	74	1
80	80	1
99	102	1
53	53	3
56	56	3
97	100	1
73	85	3
28	30	1
89	91	2
28	112	2
89	95	2
28	29	2
88	89	1
73	76	4
88	105	2
102	103	1
107	108	2
99	101	1
54	55	1
74	76	1
111	112	2
55	80	1
54	112	1
98	99	2
53	55	1
48	102	2
73	74	1
103	107	3
19	78	2
29	104	3
92	93	1
32	35	2
30	35	2
75	77	1
48	50	1
55	68	1
54	70	2
22	24	2
60	61	1
81	98	1
26	85	1
65	84	1
83	89	1
44	110	1
29	29	2
20	26	1
22	103	1
46	107	1
83	85	1
74	75	1
113	113	1
115	115	1
74	80	1
67	71	1
105	111	1
21	95	1
75	91	1
51	52	1
106	110	1
93	95	1
