80	80	11
49	51	5
144	144	14
97	152	4
91	91	4
20	20	14
50	51	4
5	6	3
144	146	1
1	23	4
66	66	4
76	79	4
158	158	5
142	142	10
17	17	11
50	69	1
42	79	2
16	16	10
7	8	9
90	90	7
128	128	15
34	34	14
150	150	5
10	10	16
98	98	15
96	96	5
15	15	5
134	134	14
110	110	7
97	97	9
138	138	9
71	103	2
32	35	4
42	50	1
0	0	24
30	31	3
76	97	1
137	137	6
12	52	6
139	139	9
47	47	12
144	155	1
105	105	21
93	93	9
83	83	4
154	154	15
146	147	8
76	91	2
146	146	8
6	7	1
73	73	9
68	70	3
26	26	16
74	75	1
17	18	6
121	150	1
118	123	3
132	132	13
92	92	9
81	93	2
52	52	6
111	112	1
155	156	6
106	106	9
22	23	5
83	84	9
40	40	5
45	45	6
49	49	7
47	48	3
133	133	9
100	100	6
0	4	1
65	66	4
116	116	12
107	107	5
87	87	15
129	129	20
56	56	4
125	125	12
39	39	5
4	10	1
42	42	4
21	21	7
32	33	4
38	38	9
111	111	4
117	117	10
4	5	2
69	69	13
21	22	7
36	55	1
122	131	1
32	55	6
103	103	10
118	119	2
93	95	4
45	47	1
69	139	1
29	29	16
134	135	4
69	70	3
103	121	1
25	25	19
127	127	7
67	68	4
95	95	4
147	147	9
85	86	4
71	71	9
91	138	2
142	143	13
87	88	2
34	41	1
45	85	1
78	78	6
92	103	2
48	48	4
114	121	3
43	51	2
31	31	9
131	131	7
89	105	6
120	120	9
43	43	6
2	2	11
38	39	3
109	109	8
134	138	3
65	65	11
104	113	4
73	100	2
86	86	4
123	123	10
88	131	1
148	148	8
85	90	2
62	63	3
87	138	1
13	14	2
122	122	9
152	152	2
114	114	7
88	88	11
10	13	2
66	67	3
112	115	5
84	85	10
8	15	2
26	27	6
16	17	6
50	50	14
110	135	5
156	156	8
68	68	5
35	35	19
8	14	3
14	14	1
24	25	7
37	43	3
84	84	7
2	6	1
12	21	4
84	103	3
70	70	21
139	141	1
16	18	5
4	4	8
155	155	11
99	99	7
51	51	2
115	115	7
41	42	2
141	141	10
135	141	5
53	147	6
79	142	3
135	135	7
35	43	2
31	104	3
104	104	6
114	115	1
1	2	5
103	104	4
67	104	1
23	24	2
154	155	3
137	138	4
75	75	5
64	69	3
23	23	14
147	148	7
63	142	2
17	19	1
72	72	8
138	139	3
82	82	3
120	121	2
24	24	15
0	1	4
113	121	2
13	13	4
27	27	16
138	140	1
36	36	4
46	46	6
28	29	2
92	93	8
144	148	2
90	106	1
136	136	5
92	151	1
124	127	4
113	113	4
130	134	3
112	142	4
157	157	12
30	43	2
86	87	6
98	99	2
11	11	10
70	71	5
12	55	3
54	54	1
140	140	5
123	126	2
14	31	2
83	86	3
34	42	1
94	94	8
67	67	4
9	9	2
8	8	7
17	144	1
55	55	2
46	47	3
62	62	12
3	4	1
5	5	4
53	54	2
28	28	9
63	64	1
77	77	6
121	121	2
133	141	3
6	6	1
87	90	2
110	111	2
125	126	1
13	19	1
151	151	5
41	77	4
118	124	2
88	152	4
32	36	1
110	112	3
148	149	2
18	39	2
36	37	7
36	41	2
41	54	1
10	11	5
102	103	1
1	1	9
40	41	5
38	53	2
34	35	3
0	11	1
21	118	3
101	101	3
118	118	7
28	72	1
9	10	3
108	132	1
90	91	2
24	43	2
18	18	2
41	41	3
22	22	3
159	159	2
19	19	7
79	79	4
123	136	2
110	115	4
153	153	2
91	107	2
80	87	3
85	98	1
79	80	2
47	108	2
44	44	9
158	159	1
51	52	4
104	105	3
23	105	1
93	113	1
34	37	3
96	152	2
36	47	3
38	50	3
76	76	1
33	33	3
112	112	5
32	32	2
112	153	1
25	30	2
46	49	1
106	107	6
91	104	2
105	106	5
7	54	1
89	91	1
76	128	4
12	12	6
36	66	3
126	126	6
37	37	2
131	140	1
133	134	4
148	151	1
115	116	4
11	12	2
121	122	3
22	89	4
138	146	2
88	89	3
25	26	1
38	40	3
48	50	2
122	140	2
3	54	2
128	139	2
132	137	1
20	21	2
73	101	5
71	105	1
124	125	2
50	83	1
7	7	4
31	58	1
5	18	6
128	129	7
12	15	3
99	100	2
149	149	3
12	24	1
63	67	1
121	138	1
117	122	2
99	101	2
31	32	3
108	108	6
45	46	4
107	128	1
39	47	4
49	50	1
105	139	1
42	43	2
84	127	2
151	152	4
37	67	1
15	23	2
3	3	4
111	135	1
150	159	1
12	16	2
81	83	1
64	79	1
37	45	1
112	141	1
108	117	2
104	150	1
0	75	1
143	143	1
56	100	1
154	156	1
95	96	4
102	154	1
22	24	1
88	92	1
129	131	3
122	123	2
41	43	1
22	31	2
156	157	2
150	151	2
66	104	2
126	127	2
39	124	1
124	124	3
89	90	1
100	101	2
68	69	3
80	81	6
2	4	1
66	69	1
108	109	1
75	151	3
130	131	2
26	158	1
93	94	3
27	30	4
8	9	1
15	46	1
97	98	2
64	64	5
83	94	2
93	121	2
153	154	1
155	157	1
3	32	1
56	71	1
84	92	1
80	88	4
63	63	1
0	5	3
123	124	2
85	85	1
34	36	2
21	31	1
12	13	1
108	112	1
11	51	1
124	133	1
69	107	1
151	158	1
14	15	1
57	57	2
145	145	1
41	46	1
36	44	1
93	122	2
103	156	1
115	117	1
32	156	1
18	19	3
88	107	1
107	124	1
42	53	2
116	117	1
47	103	1
67	141	1
46	53	1
145	153	1
128	138	1
90	137	1
96	99	3
97	140	1
130	130	1
48	86	1
105	116	1
2	3	1
86	95	1
117	119	2
66	68	1
92	129	1
140	141	1
31	57	1
130	152	1
36	43	1
88	104	1
38	69	1
48	49	2
88	91	1
97	105	1
26	30	1
81	81	1
131	148	1
122	143	1
116	152	1
