23	60	1
23	24	11
18	19	6
49	49	9
24	24	28
17	17	14
47	47	28
55	55	14
60	61	8
36	37	3
6	6	34
31	31	22
4	4	30
38	38	21
55	56	4
32	32	19
7	7	24
32	33	3
12	12	23
12	13	8
39	56	1
16	16	16
60	60	15
20	20	14
37	55	4
2	2	18
21	22	14
17	62	4
34	34	21
41	41	9
15	19	3
6	10	12
21	21	10
54	54	19
44	44	23
24	25	6
13	13	30
48	48	20
33	34	8
45	46	13
6	8	6
35	35	12
51	53	7
36	36	19
53	54	10
51	51	26
8	9	4
34	35	7
15	17	2
1	1	18
45	45	12
15	16	11
14	14	30
14	16	4
0	0	19
23	23	12
48	49	20
8	8	21
20	21	3
25	25	18
57	58	4
35	36	6
26	26	2
37	37	3
58	58	23
36	56	3
46	46	13
5	5	8
55	57	5
40	55	3
22	22	21
30	31	2
43	43	14
11	11	16
39	39	16
37	57	4
0	1	11
61	61	4
19	19	18
9	9	42
7	9	7
38	59	5
42	42	19
52	52	21
38	39	8
38	54	6
62	62	9
52	53	6
3	3	11
17	19	4
55	58	4
18	18	17
37	39	3
29	29	4
50	50	27
22	59	4
22	23	11
47	48	4
10	10	16
16	21	2
41	59	9
15	15	4
16	20	7
33	33	17
39	41	8
53	53	15
10	12	8
42	61	4
56	56	11
50	51	5
11	18	1
29	53	4
43	44	15
13	14	7
35	37	5
17	18	3
30	30	13
44	45	2
33	57	4
59	59	12
3	62	2
1	44	3
10	11	2
16	19	4
3	17	1
39	58	2
7	10	2
38	41	3
21	23	3
2	3	5
11	12	2
57	57	13
51	52	7
9	10	3
52	54	6
16	42	2
8	21	1
59	61	2
46	47	11
37	38	4
41	42	2
18	52	3
49	50	13
3	4	3
43	61	1
6	7	2
37	52	6
15	18	1
54	55	3
22	58	1
42	43	2
58	60	2
45	47	3
42	44	1
24	59	6
11	13	3
59	60	14
39	40	4
31	35	1
40	41	7
1	48	2
12	17	5
40	40	16
0	62	2
7	8	3
3	43	1
5	21	2
21	42	6
9	42	2
16	17	5
36	58	1
13	55	4
11	16	2
39	54	1
15	20	4
50	54	1
19	41	2
55	60	4
31	32	1
14	15	4
56	60	3
41	56	2
3	5	3
1	2	1
22	41	1
20	60	2
37	40	1
22	24	2
1	62	1
15	21	1
23	25	1
22	25	3
0	43	1
19	20	3
44	61	2
33	61	1
34	49	1
48	50	2
21	60	2
39	53	1
22	60	1
36	55	2
45	61	1
38	40	2
17	51	1
13	43	2
4	5	2
37	51	1
18	54	1
2	48	1
12	19	1
1	61	2
6	49	1
5	17	2
25	60	1
0	45	2
32	57	2
36	52	1
18	43	1
30	37	3
10	51	2
12	16	1
9	12	1
29	38	1
12	14	1
24	60	1
56	57	1
5	6	1
51	54	1
1	43	1
33	55	1
56	59	1
21	41	2
11	51	1
