163	163	2
203	208	3
109	110	1
125	125	3
171	171	7
17	18	3
232	233	5
148	148	12
177	179	2
42	42	3
27	232	4
203	203	13
157	157	6
64	65	1
173	173	5
224	224	4
72	72	4
135	135	2
184	184	4
136	164	1
21	21	3
201	201	11
64	64	8
143	143	6
168	169	2
31	31	2
9	9	2
152	152	5
56	56	3
116	123	3
35	35	6
216	216	5
99	100	1
156	156	5
24	24	10
49	49	5
46	46	5
55	55	3
210	210	3
27	27	8
235	235	3
20	20	2
210	228	2
101	101	1
169	201	2
237	237	3
1	28	2
7	7	3
155	155	4
179	179	5
153	156	1
186	187	2
36	36	2
219	219	5
86	87	1
83	83	2
18	19	1
75	75	1
34	37	1
58	58	3
156	157	9
16	16	6
189	189	6
158	159	3
199	199	2
128	128	8
20	35	1
225	225	4
180	181	3
37	39	6
16	18	3
208	208	2
241	241	3
232	232	6
166	166	5
39	43	3
165	165	5
4	4	2
136	136	3
3	3	3
24	26	5
209	227	1
192	219	3
133	134	2
174	174	6
18	21	1
98	98	7
39	39	4
151	151	4
183	183	2
23	23	3
148	149	1
57	200	2
66	66	2
79	79	2
180	182	3
168	202	1
128	138	2
160	160	2
181	182	1
144	145	4
202	202	5
177	177	3
17	19	5
63	63	4
24	27	5
69	69	1
223	223	2
44	60	2
73	73	7
70	71	2
134	135	1
137	138	3
65	65	7
147	148	1
104	104	2
56	57	4
169	171	4
0	1	4
33	33	1
78	80	1
164	164	1
8	8	2
178	178	6
128	169	8
176	177	2
169	203	1
71	71	3
73	80	1
209	209	2
231	231	4
227	227	3
22	23	1
193	219	2
125	131	1
197	197	1
116	118	2
226	227	1
85	86	2
173	174	2
60	60	3
172	172	3
168	168	2
67	67	3
25	25	2
10	10	7
49	50	3
224	225	1
97	97	3
165	170	3
140	141	5
104	105	1
235	236	3
51	54	1
136	137	2
87	88	2
170	170	2
197	199	1
121	121	2
54	54	4
26	26	1
21	32	3
194	194	4
68	68	4
172	174	2
146	146	2
129	129	2
145	160	1
102	105	1
61	61	1
167	169	2
138	138	1
127	127	3
29	29	2
116	116	3
44	70	3
238	238	2
177	178	2
80	80	5
158	189	1
100	101	3
117	117	4
82	83	3
113	127	1
119	119	3
160	162	2
182	183	1
215	216	1
182	182	3
120	120	6
74	74	2
242	242	5
113	122	1
125	126	2
8	11	4
111	111	2
205	205	1
213	213	3
1	208	1
139	139	5
130	130	2
50	51	1
18	18	5
123	123	4
11	230	2
43	43	4
191	191	2
76	76	2
103	103	1
128	170	1
70	70	3
221	221	2
190	196	2
186	186	1
122	123	1
143	167	2
115	116	1
102	102	1
121	122	2
207	208	1
144	144	1
198	198	1
148	172	1
32	32	3
31	32	2
158	158	2
45	45	1
36	37	1
239	240	3
169	169	3
115	115	3
40	49	1
16	22	1
77	77	1
150	151	2
139	141	1
26	27	1
130	131	1
187	187	1
52	52	3
215	217	2
170	171	2
51	51	1
181	181	1
30	30	4
218	218	3
48	48	2
167	167	1
145	145	1
214	216	1
172	173	1
109	109	1
103	105	1
0	0	1
3	17	1
51	53	1
45	51	1
107	107	1
147	147	2
71	90	1
118	118	2
199	223	1
233	233	1
133	204	1
62	62	1
122	122	1
228	228	1
154	188	1
150	179	1
15	15	1
175	175	2
161	202	1
190	200	1
41	46	1
239	239	1
77	78	1
178	179	1
59	59	1
234	234	1
204	204	1
38	38	1
22	22	1
220	223	1
200	200	1
50	50	1
195	195	1
17	22	1
240	240	1
147	173	1
