95	95	10
3	35	2
132	132	5
109	109	8
120	127	4
96	96	12
102	103	8
130	130	10
4	79	2
98	115	5
72	72	7
16	17	1
6	6	6
117	117	10
6	78	3
127	128	5
3	3	6
116	116	17
34	34	8
121	121	10
74	74	10
123	123	8
13	14	3
26	26	7
29	30	7
129	129	15
77	120	4
6	37	2
77	77	2
115	115	11
114	114	7
76	77	6
1	2	4
133	133	8
76	76	2
21	21	20
138	138	7
71	71	15
124	124	11
96	97	4
17	17	6
140	140	2
23	23	10
15	15	10
128	128	6
32	32	8
75	79	2
82	82	6
102	102	5
87	87	20
106	106	1
35	35	23
14	14	6
123	124	4
91	93	3
99	99	4
78	79	4
4	6	3
28	28	4
132	133	2
81	85	2
5	6	2
112	112	24
6	7	5
79	79	10
135	135	7
2	2	2
30	30	1
19	19	8
3	65	4
104	104	3
114	115	1
88	88	7
104	116	4
38	38	9
100	100	7
118	131	2
31	31	2
37	37	6
125	125	10
0	1	3
108	108	5
94	94	6
100	101	4
27	30	1
7	8	2
80	96	4
134	134	18
27	27	4
98	98	11
7	7	5
107	107	6
94	116	2
136	136	11
79	80	2
133	134	3
75	75	6
8	8	6
28	31	2
131	131	9
78	78	7
101	101	6
137	138	1
30	98	4
126	126	8
118	120	4
81	81	15
16	16	4
36	36	3
137	137	5
111	111	9
122	124	3
1	10	1
80	81	10
16	22	1
24	24	4
22	22	13
92	92	4
110	110	13
0	0	5
91	104	2
12	89	1
13	90	5
2	3	5
12	13	5
128	129	2
36	37	3
3	4	5
93	94	1
12	12	1
38	95	2
96	115	1
86	87	2
83	83	7
136	137	5
14	86	2
115	116	2
97	98	4
9	9	9
87	89	2
108	109	1
73	74	4
16	21	2
93	125	2
33	33	3
119	124	4
85	85	10
8	9	3
81	82	3
127	127	9
15	16	1
139	139	1
6	79	1
34	36	2
10	11	6
86	86	6
18	18	9
0	2	5
18	20	4
72	74	3
35	97	3
17	22	4
5	5	6
118	119	1
110	111	1
136	138	3
91	91	5
109	113	2
97	97	5
1	1	3
19	20	2
118	121	5
139	140	2
84	85	1
22	23	6
113	113	4
80	80	1
81	83	3
88	89	1
105	106	3
21	27	2
73	73	5
71	73	4
98	99	1
31	99	2
21	24	1
0	79	1
126	131	2
4	5	3
9	73	1
84	84	1
89	91	3
106	107	3
13	13	6
122	122	1
89	90	2
4	4	4
93	93	3
78	81	2
89	89	1
4	7	1
91	92	2
33	35	1
23	84	1
117	119	3
0	78	1
24	97	1
27	114	2
11	11	1
119	119	2
17	26	1
20	106	1
135	136	1
30	32	1
20	20	1
15	86	5
71	72	1
87	102	1
33	34	1
34	38	2
37	93	1
68	68	1
20	21	1
74	118	1
11	12	2
5	21	2
21	32	1
28	98	2
120	122	1
74	75	1
22	84	1
87	120	2
115	117	1
94	95	2
83	84	1
90	90	1
96	133	1
112	113	1
85	86	1
88	103	1
120	121	1
18	38	1
124	125	1
105	105	1
122	126	1
118	118	1
8	11	1
95	96	1
