47	47	20
71	71	9
37	38	8
73	76	1
52	54	2
30	30	8
59	59	8
27	27	5
23	23	23
52	53	2
2	2	15
26	27	3
9	9	18
51	52	2
21	21	10
37	37	13
44	45	10
41	41	12
56	56	3
43	43	22
50	51	2
33	33	10
67	67	9
58	58	20
45	45	11
10	10	9
74	77	2
0	0	9
62	62	23
63	63	11
7	7	17
25	47	2
74	75	2
19	21	1
60	60	17
69	69	11
19	19	10
18	20	4
44	44	11
28	53	1
30	47	1
28	29	3
29	29	20
24	24	7
26	28	1
55	55	21
6	6	13
63	68	1
49	49	13
8	8	14
42	42	15
12	12	11
73	73	30
36	36	13
33	39	1
34	34	10
5	7	3
72	72	4
40	41	2
54	54	8
76	77	8
75	76	8
61	62	8
53	53	23
6	7	8
61	61	23
11	11	13
66	66	9
32	32	17
40	40	6
41	75	2
31	74	3
58	59	8
25	25	13
76	76	28
43	44	8
36	37	12
41	42	2
63	74	5
30	31	3
67	68	7
18	18	5
26	69	4
4	4	10
38	38	12
24	25	3
68	68	9
72	73	3
27	49	4
48	54	1
57	59	1
75	75	10
0	2	3
39	40	5
25	26	5
28	28	12
42	69	2
4	5	11
35	36	9
40	42	1
51	51	12
67	76	4
64	64	7
63	64	2
5	49	5
39	39	2
62	64	2
5	5	14
13	13	9
21	22	3
77	77	5
52	52	8
59	68	5
31	32	1
61	63	6
62	63	5
32	34	2
18	19	5
31	31	6
20	21	4
12	59	1
19	20	3
42	75	2
10	11	2
25	48	1
55	56	6
27	28	3
71	73	1
3	3	11
56	76	2
38	40	3
70	71	1
50	65	2
50	67	1
0	1	4
28	30	2
32	40	3
70	70	6
42	70	2
53	54	6
41	74	6
46	46	5
43	74	1
40	76	2
38	39	6
26	26	4
60	67	2
33	34	6
48	48	1
1	2	6
50	66	2
69	70	2
22	23	2
29	48	2
34	35	2
60	61	1
23	44	1
50	50	3
1	1	3
74	76	2
56	57	7
57	57	6
18	72	4
68	69	3
46	47	2
33	37	6
49	50	3
7	11	1
9	10	3
70	73	2
70	76	2
19	33	2
57	58	4
48	49	2
20	20	10
7	8	1
57	64	1
12	13	2
11	12	3
25	30	2
65	67	2
55	66	1
65	66	3
47	48	4
3	4	1
4	49	1
19	47	1
36	38	5
23	30	3
22	43	1
35	35	1
23	24	3
29	47	3
29	30	2
48	50	1
71	75	2
57	65	2
24	67	1
22	22	2
24	72	2
61	66	1
8	11	1
35	37	1
74	74	2
32	74	1
65	65	5
49	67	1
36	40	2
13	14	3
5	6	2
42	43	2
26	53	1
66	67	2
71	72	3
48	52	1
54	55	2
31	75	2
42	72	1
39	66	1
61	68	1
22	24	1
24	26	2
19	60	1
13	19	1
24	69	1
24	68	1
24	58	1
