145	145	9
93	93	11
53	53	8
83	83	5
13	46	4
11	21	6
24	24	11
42	46	1
72	74	6
129	129	16
45	45	15
102	102	5
99	100	5
96	96	12
43	43	6
39	40	10
98	98	8
146	146	11
113	113	4
132	132	18
116	131	4
13	13	12
68	68	9
77	78	7
37	37	11
29	29	13
67	69	2
95	96	2
104	104	8
8	8	1
10	10	10
22	23	5
12	12	1
109	109	13
99	99	10
120	122	5
87	87	20
21	22	2
40	46	2
58	58	1
96	129	2
119	120	5
145	147	3
118	124	2
118	118	8
117	117	13
104	112	4
12	13	1
34	34	8
116	116	12
82	82	5
121	121	10
61	63	2
16	17	2
138	138	8
32	33	1
135	135	2
68	71	1
125	125	2
127	127	8
72	72	4
103	103	7
11	11	16
143	143	12
144	144	2
94	95	2
9	9	6
56	56	2
135	140	4
54	54	3
23	24	7
19	19	17
39	39	10
120	120	1
138	139	7
123	127	1
106	107	3
18	18	6
15	15	3
21	24	3
101	104	4
57	114	3
17	17	3
31	32	3
75	76	5
153	153	8
14	21	1
70	71	3
47	48	2
100	100	7
63	63	1
80	109	5
65	65	8
44	44	14
76	76	8
141	142	2
7	133	1
81	81	7
123	123	8
119	119	3
120	121	4
128	128	7
86	106	3
34	35	1
50	51	2
6	18	1
107	107	12
85	86	3
142	142	19
41	41	5
88	106	4
84	84	20
133	133	29
57	57	11
20	22	4
78	78	6
48	49	10
56	65	1
33	33	9
36	36	5
147	147	3
47	47	2
85	85	13
79	79	3
84	85	3
25	26	3
148	148	7
38	38	6
114	114	22
14	14	10
146	149	4
137	138	5
31	31	13
10	43	1
132	133	11
42	42	5
94	97	1
66	67	6
23	25	2
36	39	2
137	137	6
134	135	3
33	35	3
143	146	1
13	15	2
111	111	2
80	125	2
35	35	6
14	15	3
56	57	2
14	31	1
72	85	4
26	26	7
92	126	2
95	99	2
118	119	2
150	151	3
16	16	6
69	73	1
7	134	1
113	117	2
46	46	12
7	9	2
57	58	1
94	94	9
81	83	8
110	112	3
8	11	6
135	136	4
73	73	11
75	79	3
68	85	2
149	149	5
70	70	3
97	97	3
66	68	4
117	119	1
4	5	1
20	20	4
30	31	2
142	143	11
133	134	6
63	64	7
86	88	1
131	132	2
77	77	5
50	50	7
10	11	5
64	66	5
112	112	3
63	113	2
136	136	9
91	92	4
112	129	1
3	3	7
25	25	9
28	28	5
94	99	2
89	106	2
70	112	3
23	23	7
116	120	1
114	115	2
116	117	10
5	5	1
7	139	1
47	67	1
55	56	1
83	117	3
75	80	1
64	64	1
3	4	2
27	27	6
105	105	7
9	43	3
100	102	2
30	30	3
128	129	1
93	94	4
148	149	4
81	107	3
63	65	1
83	105	2
128	144	3
19	20	3
56	84	5
20	21	3
18	35	1
95	95	6
55	101	3
115	150	5
68	69	1
42	44	1
76	77	1
92	95	2
94	100	2
8	17	2
124	127	4
107	108	4
79	80	5
81	82	2
110	110	3
78	81	3
106	106	8
80	82	1
28	29	1
112	113	4
67	67	3
90	90	3
134	134	9
131	131	1
130	131	1
72	73	1
140	142	1
92	92	2
83	84	1
108	108	7
115	117	1
147	148	1
51	51	2
40	54	1
7	140	3
49	51	4
12	38	1
150	150	7
76	96	1
81	85	1
32	35	5
10	39	1
4	4	1
74	143	4
33	34	3
42	43	3
29	30	6
91	97	2
4	41	1
69	70	3
103	104	2
121	130	2
154	154	7
14	20	1
37	41	2
32	32	3
75	75	4
108	111	1
24	25	1
86	87	2
69	69	2
115	115	3
149	150	2
50	53	2
140	140	5
37	40	2
126	151	4
51	54	1
115	118	1
6	6	4
80	81	1
129	139	1
55	55	4
145	146	3
62	63	4
146	147	2
132	135	2
115	131	1
11	13	4
118	122	2
105	147	1
87	107	3
21	21	6
88	107	3
27	29	1
130	130	1
108	145	1
41	42	1
118	131	1
57	149	1
40	41	2
16	38	1
65	66	2
40	40	1
71	71	3
7	21	2
22	22	3
17	19	2
40	42	1
43	45	1
97	99	1
151	151	7
135	137	1
19	21	2
127	145	2
86	123	1
62	78	2
49	49	4
15	16	2
83	106	2
19	30	3
91	91	1
54	67	1
8	9	2
51	53	1
124	124	5
36	37	4
61	65	2
145	149	1
150	152	3
16	18	2
126	126	3
95	98	2
62	109	2
92	93	1
64	73	1
6	139	3
148	150	1
113	114	1
21	28	1
125	129	2
26	27	1
77	79	1
115	116	2
46	77	1
110	113	1
3	14	1
53	54	3
110	111	2
21	31	3
18	36	2
6	55	1
75	77	2
5	11	1
43	44	2
124	125	1
86	86	2
85	104	2
144	145	1
112	143	1
78	79	1
105	128	1
88	88	2
15	30	1
145	148	1
88	108	1
88	144	1
97	100	1
122	123	1
11	12	1
13	30	1
63	108	1
122	122	1
98	99	1
153	154	1
80	107	1
48	51	1
68	76	1
2	5	1
96	98	2
87	89	1
4	11	2
110	144	1
46	118	1
139	141	2
110	114	1
78	91	1
