74	74	10
38	40	7
43	43	5
27	34	2
32	32	14
26	26	14
65	65	22
21	21	7
4	4	16
34	56	2
12	12	10
1	1	13
7	76	4
10	10	7
20	21	4
27	27	14
11	11	19
79	79	16
63	67	2
42	43	3
0	38	1
41	41	10
35	35	6
3	3	15
30	30	9
74	76	1
4	20	3
46	46	19
53	57	2
53	54	8
59	60	3
77	77	7
54	54	7
66	70	3
56	56	22
59	59	13
73	73	14
68	69	4
51	51	11
66	66	14
47	57	4
37	37	11
14	14	11
75	75	25
77	78	3
7	7	21
73	74	8
45	47	1
76	80	4
12	13	2
11	12	4
48	48	12
26	27	1
17	17	9
5	5	5
27	62	1
2	5	4
55	55	12
29	29	4
31	32	4
58	58	4
42	42	15
28	29	1
38	38	11
57	57	17
52	55	3
2	3	4
36	36	11
52	53	7
76	76	12
80	80	21
13	13	5
34	35	3
69	73	2
47	52	2
13	14	3
66	67	3
26	55	2
45	45	9
71	71	5
72	72	12
55	56	6
33	33	3
39	39	19
20	56	1
36	41	5
57	59	2
19	19	5
64	64	13
74	78	1
9	9	3
9	11	4
49	49	11
47	48	9
28	28	12
15	21	2
37	42	4
1	3	2
49	60	3
35	36	4
25	25	7
61	63	1
2	38	1
38	39	7
2	4	4
15	17	1
26	30	4
67	68	4
8	12	3
6	6	5
10	11	7
67	67	5
50	50	4
5	6	1
0	1	6
17	18	2
58	59	12
33	71	7
61	61	9
60	63	3
7	8	7
18	18	4
40	40	4
8	13	2
25	26	2
62	62	6
34	34	6
70	71	4
5	66	1
60	60	10
37	41	2
2	2	14
9	21	2
70	70	8
46	64	2
47	47	7
16	16	13
53	53	7
49	71	4
8	8	6
69	72	2
20	20	2
6	11	1
31	31	10
29	35	3
47	49	3
28	57	1
78	78	2
57	58	2
0	0	10
29	78	2
6	35	1
45	49	1
40	51	1
12	15	5
21	70	2
6	7	3
67	72	2
10	13	2
8	70	2
46	47	4
37	39	4
50	69	1
70	72	2
60	61	4
63	63	6
8	15	1
35	37	3
64	65	4
52	52	4
26	62	2
62	66	1
9	10	2
3	6	4
76	77	1
68	70	1
47	62	2
8	65	3
63	68	1
54	55	2
0	2	1
27	29	2
40	80	2
5	17	1
8	9	4
48	50	2
59	61	4
37	79	2
26	74	3
39	40	3
69	69	4
54	59	1
16	19	1
53	55	1
22	67	1
32	54	1
72	73	1
6	15	1
67	70	3
7	10	1
48	49	3
47	54	2
64	72	1
42	76	2
36	37	1
40	41	3
38	45	2
51	54	4
30	33	1
63	72	2
56	59	1
67	69	3
9	33	1
13	15	2
41	42	1
8	14	2
12	14	1
17	19	1
55	60	1
63	64	1
0	25	1
31	37	2
3	4	2
52	54	1
15	15	4
11	13	1
15	30	1
31	76	1
30	36	2
68	68	3
4	7	1
8	20	3
19	20	2
8	11	1
11	16	2
0	15	2
16	17	2
51	52	1
15	18	1
8	19	3
78	79	1
8	10	1
37	43	1
4	6	1
30	42	1
7	22	1
54	70	1
57	63	2
64	74	1
62	64	2
10	21	2
50	51	1
22	22	1
40	62	2
46	59	1
63	65	1
71	72	1
25	35	1
15	20	1
31	53	1
51	53	1
13	20	1
59	73	1
50	54	1
50	70	1
53	56	1
39	41	1
