103	103	11
55	55	29
97	97	45
143	143	49
26	26	43
25	25	43
182	182	57
32	87	2
128	145	5
124	125	13
152	152	55
148	148	36
64	68	6
42	152	1
60	78	3
31	31	42
160	160	62
95	158	3
49	49	34
119	119	43
95	95	35
186	186	42
119	185	3
127	128	16
50	50	21
138	138	30
83	84	20
16	74	2
14	14	42
101	101	50
29	29	35
195	195	22
177	178	10
99	99	33
68	96	8
178	178	40
27	27	50
21	43	2
171	172	25
57	57	42
14	15	11
174	174	38
185	186	33
167	167	36
66	67	23
166	166	25
172	172	32
87	87	34
77	78	27
134	134	41
106	138	4
10	11	7
30	190	3
142	143	18
190	190	45
75	75	22
74	77	4
147	152	6
67	95	6
138	156	2
1	1	25
43	43	51
34	34	50
56	57	9
134	135	21
102	102	17
32	32	45
153	153	40
27	79	1
130	132	8
51	51	45
137	138	6
118	119	10
122	122	62
118	118	39
99	101	5
10	10	24
3	3	26
123	123	44
142	193	6
48	48	45
24	25	15
41	41	34
117	159	2
108	108	19
193	193	38
30	30	25
140	140	40
69	142	3
110	110	29
113	113	46
145	145	32
142	190	1
101	102	32
58	58	37
194	194	42
106	187	2
187	187	52
67	68	18
6	7	5
137	137	28
115	115	60
1	12	2
132	132	30
47	48	13
176	176	36
142	142	52
86	86	37
111	111	30
126	154	1
161	161	47
173	173	26
8	25	3
192	192	29
100	100	58
149	149	33
126	127	9
23	64	7
183	183	34
105	115	2
40	40	49
5	5	19
129	129	23
0	0	44
35	35	29
76	77	16
170	170	36
74	79	2
121	121	40
71	72	22
99	135	9
56	186	4
170	171	18
107	107	30
36	36	35
124	124	31
37	37	51
181	181	37
157	157	60
60	69	2
116	118	4
163	164	7
168	168	47
151	151	43
139	140	26
115	117	10
197	197	22
10	50	4
29	122	3
23	23	62
78	78	65
11	78	4
155	155	48
125	125	29
42	42	33
84	84	31
177	177	31
74	74	54
48	127	4
162	162	12
29	158	1
144	145	7
135	135	29
89	90	5
69	69	52
53	53	35
64	64	38
186	187	17
157	166	11
66	163	1
81	81	47
47	47	63
9	113	1
161	162	13
105	167	8
11	11	47
143	178	5
44	140	7
196	197	11
18	19	16
21	21	34
60	60	30
119	120	13
54	54	39
106	107	12
56	56	40
63	63	50
69	73	3
108	109	17
137	141	5
16	16	33
114	114	67
44	44	45
29	87	3
179	179	23
133	134	5
104	105	4
158	158	24
163	163	19
39	40	16
65	65	29
118	121	3
147	148	15
85	85	38
94	94	26
184	194	1
39	39	47
55	56	9
13	13	30
66	66	47
185	185	38
64	146	3
88	90	10
106	106	28
74	75	8
28	29	10
149	150	12
33	33	32
145	146	10
65	66	7
157	163	7
190	194	3
160	165	1
100	101	17
51	57	5
4	4	42
103	189	4
165	165	19
62	62	33
60	164	5
107	165	7
59	59	46
81	82	25
30	31	16
8	8	21
130	131	21
186	193	3
52	52	59
156	166	1
130	130	31
150	150	37
129	130	9
24	24	38
196	196	19
71	71	43
158	163	3
89	89	20
46	46	39
188	188	32
169	169	45
22	31	8
133	133	54
95	96	9
73	73	28
56	158	1
179	180	10
133	194	2
102	103	17
59	61	4
38	38	33
15	72	4
28	28	35
31	85	3
105	106	13
85	86	15
57	86	3
93	153	2
106	166	8
157	158	17
43	150	4
112	113	18
195	197	6
20	21	16
20	20	34
184	185	7
0	54	4
24	76	4
17	17	36
167	179	1
176	177	16
19	19	29
110	111	6
77	86	2
187	188	10
112	169	2
76	76	27
35	37	2
152	153	10
128	149	5
98	99	14
180	180	64
77	77	30
147	150	4
170	177	1
111	113	3
114	115	8
12	12	37
39	43	4
120	120	34
119	149	1
178	179	25
171	171	44
138	139	5
136	136	36
34	35	24
37	38	17
35	153	4
15	34	5
127	127	36
30	36	4
79	79	31
139	152	5
71	155	3
72	72	49
7	7	17
31	32	14
63	67	6
194	195	9
12	33	1
70	128	2
156	156	44
5	36	2
41	133	5
78	79	19
172	173	10
191	191	49
162	167	5
5	23	3
109	110	20
175	175	42
109	159	2
169	170	3
42	64	6
70	71	23
27	73	7
8	9	13
45	45	30
96	96	45
115	175	2
87	88	11
144	144	18
50	71	5
111	118	4
141	141	21
178	180	5
124	184	4
4	10	1
155	156	19
67	67	30
139	139	32
143	169	1
182	183	11
103	106	5
68	68	35
61	63	2
42	43	14
154	155	20
97	98	17
36	37	10
57	80	3
82	82	29
82	83	12
160	167	2
26	35	2
11	12	12
93	157	10
99	100	6
103	167	4
43	125	2
188	189	14
1	151	8
27	28	11
17	18	15
107	139	2
146	146	9
162	176	2
2	20	2
151	152	17
95	97	2
164	164	30
147	147	32
193	194	19
64	147	3
126	126	26
175	176	10
55	123	4
104	104	18
134	182	3
189	190	4
0	48	3
117	191	2
159	159	28
56	81	1
37	126	8
53	54	12
158	160	4
21	39	1
191	194	4
23	26	1
37	102	3
184	184	24
43	44	16
117	117	38
107	160	2
9	9	48
98	98	50
152	190	3
29	30	11
105	113	1
5	8	12
25	30	4
70	70	18
95	153	4
33	85	4
141	153	2
80	98	3
113	114	15
120	169	7
62	120	6
15	15	21
25	27	11
40	41	17
131	187	4
143	144	17
21	37	4
149	154	4
18	18	30
64	66	3
66	84	6
148	149	5
128	128	35
168	169	19
15	49	3
6	8	10
72	77	5
55	78	1
113	119	2
9	56	2
98	173	1
154	154	32
169	183	3
160	161	16
189	189	14
69	71	2
146	161	5
80	80	55
109	109	40
159	160	5
123	124	19
161	165	3
3	5	4
68	105	4
61	61	24
131	131	32
58	61	10
20	22	8
107	108	6
102	189	3
115	116	13
64	179	1
107	153	4
9	10	7
109	116	8
44	62	1
190	191	11
103	104	7
67	157	1
113	115	4
60	62	6
20	67	2
135	136	7
13	14	7
88	88	30
4	7	2
138	141	8
45	46	9
65	86	4
116	116	31
3	24	2
66	161	3
100	153	4
166	167	3
30	32	4
191	192	5
79	82	3
23	79	2
153	155	2
5	7	6
24	72	2
31	194	2
98	137	4
79	85	12
25	26	9
184	191	2
88	89	7
61	160	5
161	167	6
70	73	1
177	188	2
6	6	11
139	171	2
142	186	2
150	151	10
168	178	2
56	196	4
142	160	1
112	112	23
55	196	2
156	157	9
79	95	2
184	186	2
62	63	16
97	147	2
66	118	1
3	8	13
70	120	2
51	52	9
74	80	2
34	36	7
143	161	1
117	157	5
104	106	15
42	44	4
70	77	6
15	16	13
55	149	1
61	126	2
111	117	3
107	173	1
41	42	14
38	43	4
143	147	5
154	157	2
151	154	6
23	69	1
54	149	2
22	23	12
76	87	8
118	191	3
94	96	1
136	137	5
81	84	2
67	156	1
3	4	22
32	86	2
83	83	14
21	81	4
124	128	3
37	113	7
51	71	2
54	55	22
7	113	2
43	132	2
82	98	4
56	157	4
81	157	1
62	76	4
49	51	2
128	136	4
163	176	6
180	182	1
38	112	3
65	67	10
138	153	2
70	72	6
174	175	8
97	149	4
181	182	11
13	15	1
43	45	4
183	184	12
107	168	2
5	24	6
63	64	5
64	168	4
132	188	4
70	155	2
141	142	10
140	141	9
136	140	3
132	139	1
132	133	10
96	97	6
83	116	1
110	159	1
55	82	1
69	70	10
170	174	7
68	144	2
165	166	5
26	89	3
59	60	18
38	99	3
161	166	5
2	4	4
23	125	2
107	138	2
164	168	2
12	13	7
93	93	6
143	146	5
38	40	1
69	85	2
66	159	3
37	82	4
105	158	1
12	121	2
105	182	3
130	148	1
66	162	1
27	130	6
10	196	2
64	81	2
158	159	10
73	122	1
64	65	12
105	140	6
171	173	1
75	88	3
7	36	2
107	187	5
116	160	3
64	160	1
103	107	1
1	34	2
38	39	6
43	62	2
48	50	10
109	161	2
41	135	2
68	83	3
56	82	2
109	182	1
113	181	1
60	61	13
27	87	1
144	149	5
22	22	15
14	123	5
69	144	1
9	114	1
50	51	4
36	41	4
18	25	2
125	126	4
43	82	1
108	139	5
29	83	8
146	147	4
98	176	5
69	72	1
130	134	3
105	105	29
23	31	2
146	155	4
103	168	2
4	5	15
102	164	1
96	137	1
137	139	4
117	120	4
37	41	7
32	54	2
156	169	5
88	122	1
144	171	1
158	170	2
35	36	2
37	128	3
162	163	9
61	62	10
3	22	3
95	118	2
110	169	4
73	75	2
128	184	2
182	186	2
100	191	2
69	157	6
52	53	11
44	85	1
114	180	4
56	150	3
168	179	2
162	177	3
39	42	5
124	127	3
62	79	3
185	194	3
26	157	1
84	85	5
185	190	3
61	77	2
67	82	1
101	179	8
56	58	1
51	56	1
80	83	1
69	82	4
40	151	3
133	135	2
127	129	3
176	178	7
67	97	1
23	24	6
10	13	4
44	45	7
94	95	8
123	135	1
141	159	3
33	34	4
44	84	1
187	192	2
173	176	1
19	43	3
26	27	13
134	181	3
118	159	7
23	74	4
9	112	3
117	160	4
25	29	1
15	33	1
0	3	3
126	128	3
11	58	2
0	81	3
109	170	2
58	64	2
17	19	2
89	180	1
170	178	7
134	187	4
21	22	7
57	65	2
3	81	4
55	158	2
89	96	2
108	170	2
37	84	3
12	120	4
73	74	6
116	117	13
168	189	2
99	154	2
31	84	1
119	168	5
40	98	5
90	121	1
105	187	1
58	63	2
60	76	1
115	118	3
190	192	11
79	80	7
131	132	7
117	118	14
19	20	10
174	176	5
107	174	3
33	88	3
11	14	4
191	193	2
189	191	1
52	195	4
11	173	1
93	95	4
111	112	10
63	118	2
96	154	2
133	156	1
0	55	2
131	149	6
108	110	2
2	2	14
36	115	6
112	115	1
156	168	4
167	168	10
82	100	1
39	44	1
153	169	2
20	73	2
66	68	4
42	73	3
105	186	3
109	115	1
75	76	5
14	73	1
58	60	3
115	167	3
173	174	5
54	193	1
1	4	1
177	187	2
93	121	2
139	185	2
53	149	5
86	87	2
163	166	1
121	122	9
74	89	3
144	146	3
15	89	3
192	193	15
133	142	1
7	8	3
108	169	3
40	129	8
132	138	2
122	123	2
102	104	6
116	119	1
143	149	5
35	93	1
111	116	4
100	103	2
79	149	1
46	47	3
41	152	1
181	183	3
37	93	3
1	2	6
10	21	3
154	156	3
63	65	2
99	134	2
159	169	5
26	188	1
185	191	9
133	147	3
112	117	6
3	97	1
32	33	4
114	118	1
68	157	1
71	81	2
52	194	3
181	196	3
65	85	1
160	181	1
81	151	2
57	161	4
104	108	3
84	88	1
195	196	7
105	108	1
180	181	3
164	165	3
169	178	1
128	141	4
87	95	4
136	141	1
49	52	7
21	41	3
13	17	1
160	162	3
59	157	3
172	174	8
88	156	1
61	69	1
117	119	2
48	125	1
163	165	1
158	168	9
61	76	5
115	181	2
27	31	3
170	172	2
63	81	2
101	166	4
67	105	2
94	164	2
147	161	3
79	94	3
174	177	1
37	74	1
74	82	3
105	178	2
67	80	1
20	42	4
33	124	1
56	163	3
40	130	2
63	160	2
102	107	3
119	148	3
143	193	2
188	190	2
157	164	3
110	119	2
78	81	1
72	73	4
143	192	3
75	90	1
2	3	5
101	189	1
127	154	1
24	78	1
67	158	3
169	192	2
55	71	1
121	160	1
21	23	2
41	165	4
105	168	2
10	22	2
153	192	2
57	58	3
159	184	1
102	138	1
180	183	2
63	80	3
105	157	3
9	19	2
0	151	2
38	84	3
19	35	2
54	139	3
36	85	3
95	157	4
176	185	1
67	117	5
138	186	4
63	120	2
19	66	7
136	154	2
140	146	4
149	192	2
136	146	2
156	182	1
53	195	2
111	173	3
47	54	1
121	124	2
28	188	2
23	32	1
31	88	6
138	140	4
152	154	2
37	81	3
16	123	3
57	160	2
29	79	4
145	154	1
153	154	3
47	69	2
105	107	1
60	94	1
25	78	3
93	94	2
0	2	3
90	90	3
37	83	1
12	72	1
143	154	1
19	42	2
113	125	2
48	124	1
46	124	1
37	43	3
167	181	3
3	25	1
65	69	2
23	118	3
65	68	7
69	141	2
127	155	2
109	181	4
72	120	4
125	127	1
143	180	2
66	160	2
114	175	3
79	81	2
116	161	1
119	121	2
65	81	4
60	131	1
145	194	4
148	154	2
108	173	2
27	80	1
106	108	1
113	168	4
100	152	2
128	129	5
107	116	3
135	184	1
149	151	4
107	159	1
23	37	1
24	142	1
21	72	3
12	77	1
69	139	4
171	175	1
74	88	4
173	175	4
184	197	1
48	49	3
120	121	3
72	121	2
50	55	2
98	154	1
76	80	1
48	126	1
159	161	1
27	89	1
27	29	4
81	98	1
97	136	2
55	157	1
64	118	2
147	154	2
70	81	1
18	36	3
123	150	2
68	69	5
33	76	1
64	76	2
30	185	1
55	59	1
93	166	2
146	150	1
95	148	3
31	125	2
55	61	2
11	23	1
47	60	2
14	16	2
180	197	1
84	86	2
185	197	2
57	89	2
87	89	2
125	150	1
125	153	1
128	131	1
135	138	1
8	57	1
54	140	1
56	139	3
38	47	2
104	138	1
55	151	3
84	87	2
144	179	1
158	192	1
101	153	1
97	151	2
31	57	1
39	165	1
26	88	1
155	157	1
131	133	1
16	17	4
108	183	1
73	81	2
37	124	1
178	181	1
156	186	1
89	131	2
83	85	5
58	89	1
169	187	2
102	167	1
159	190	1
106	139	1
183	196	1
28	30	2
27	88	1
93	163	2
64	161	1
47	49	1
85	89	2
47	124	1
93	99	1
171	178	1
24	115	3
145	160	1
158	169	1
166	168	2
54	56	1
0	191	1
82	151	1
46	48	1
11	22	1
93	165	1
73	142	1
24	36	1
147	149	1
57	61	1
67	121	2
129	133	2
17	33	1
37	150	1
134	137	2
103	105	2
166	169	1
108	193	1
123	125	2
168	194	1
142	168	2
42	137	1
58	122	1
159	167	2
9	12	1
23	25	2
172	175	1
87	96	1
100	186	1
118	160	1
1	3	1
135	137	1
75	77	1
93	150	1
108	168	2
29	84	1
27	30	2
31	37	1
23	111	1
12	14	4
9	196	2
143	172	2
40	42	1
159	163	1
44	64	2
95	99	3
112	114	2
62	86	1
26	74	1
14	45	1
62	64	2
16	25	1
9	78	2
187	189	1
21	143	1
38	113	1
29	31	1
128	130	1
142	146	1
49	50	2
21	67	1
61	89	1
101	104	1
10	49	1
148	191	1
99	152	1
176	184	1
7	111	2
55	77	1
133	189	1
0	1	2
30	77	1
31	86	1
22	24	2
42	128	1
8	56	1
114	125	2
135	183	1
193	197	1
162	164	1
29	123	2
168	187	1
43	124	2
118	148	1
69	81	1
43	133	1
76	78	1
24	73	2
9	72	1
24	35	1
102	109	1
106	188	2
121	162	2
107	176	1
55	60	2
6	113	3
82	97	1
43	139	2
119	156	2
61	88	1
26	77	1
28	88	1
13	33	1
147	157	1
96	99	1
69	146	1
40	107	1
77	82	1
145	196	1
143	145	1
76	89	1
45	122	4
89	95	2
45	124	1
93	156	1
35	94	1
176	188	2
0	152	1
194	196	1
106	182	1
0	35	1
114	120	1
159	166	1
60	79	2
87	122	1
12	61	1
158	167	1
24	77	2
1	33	1
98	135	1
77	147	1
60	71	1
161	164	1
95	156	1
136	138	1
73	89	1
3	96	1
148	161	1
69	156	1
66	72	1
