41	52	1
19	19	10
39	54	2
51	51	5
35	44	2
38	41	3
12	51	6
43	62	1
13	13	10
38	38	11
60	60	2
34	59	3
3	3	11
57	58	2
2	4	2
23	23	13
39	41	2
3	23	5
56	56	13
36	36	18
40	40	6
22	22	9
55	55	7
9	15	6
45	45	6
44	44	6
55	60	1
37	40	3
58	61	1
2	2	6
40	49	4
21	22	4
47	48	1
22	24	3
53	55	3
24	24	8
41	45	3
54	58	7
51	62	3
1	4	1
4	4	11
46	57	2
6	6	3
47	47	9
16	16	11
62	62	3
42	50	4
5	5	4
20	21	1
30	30	10
49	52	4
14	16	6
43	59	1
7	50	1
17	17	10
8	12	3
10	10	13
45	49	1
30	36	1
33	33	6
55	56	2
20	20	8
15	17	1
61	61	2
44	45	4
31	39	3
41	53	2
18	19	5
39	51	3
52	62	5
1	1	6
49	49	4
34	34	13
15	15	10
15	21	5
34	36	3
11	50	2
38	51	1
30	35	1
17	20	5
53	53	5
49	51	1
25	25	8
58	58	9
12	14	1
33	38	1
25	39	2
48	48	10
18	18	7
1	6	4
8	9	3
14	14	4
42	42	1
3	22	1
4	21	1
21	21	1
4	5	2
54	59	4
34	53	5
8	8	10
30	37	1
38	46	2
56	57	2
51	55	3
23	24	3
35	35	3
36	56	2
43	43	9
4	18	7
3	13	3
48	58	3
39	39	6
47	49	3
38	43	3
38	53	1
40	41	5
17	18	6
4	12	3
9	9	5
40	47	2
30	31	2
13	52	3
54	54	2
41	42	1
54	60	1
31	32	3
3	4	2
7	7	4
33	35	1
39	42	1
0	22	2
41	41	6
23	39	3
47	58	5
52	53	4
30	32	3
10	58	1
43	58	3
56	60	1
14	25	1
44	48	1
45	46	2
3	11	1
5	9	4
56	58	4
14	36	1
34	42	1
32	32	4
52	54	2
19	20	3
24	25	1
46	48	5
31	31	2
11	11	5
52	58	2
6	24	2
10	11	2
15	26	1
3	14	1
45	53	2
18	23	5
6	14	1
3	18	2
9	10	3
46	55	1
19	23	1
33	45	3
1	17	1
15	23	2
59	60	1
59	59	3
11	58	1
61	62	1
33	36	1
30	33	1
6	35	3
5	8	2
50	50	4
52	52	5
2	3	1
20	24	4
10	18	3
51	54	1
16	19	3
37	42	1
10	12	2
8	56	1
57	57	3
40	57	1
11	19	2
5	6	1
3	20	1
11	61	1
15	20	1
41	43	1
44	58	2
12	12	1
9	18	1
10	54	3
7	20	1
49	57	1
14	20	1
1	3	1
13	15	4
21	25	1
8	58	1
41	50	1
46	46	2
2	21	1
7	8	1
20	22	1
22	25	1
7	56	2
15	18	1
0	17	1
35	38	1
37	48	1
49	50	1
0	0	3
13	19	1
5	21	1
39	40	1
