95	95	3
104	104	16
82	84	1
22	23	2
22	22	12
80	81	13
50	50	18
64	64	9
62	66	1
56	56	19
29	32	1
55	58	2
42	43	8
84	85	12
60	60	22
61	61	17
78	80	1
82	83	12
44	47	4
30	30	6
26	29	2
30	39	3
45	45	6
71	73	5
94	95	7
86	86	19
84	91	3
60	89	1
44	89	9
62	70	3
46	47	5
20	20	6
79	79	14
66	66	10
75	100	7
87	87	9
43	45	8
94	94	16
96	96	8
48	49	11
28	28	6
24	32	5
61	62	6
33	34	5
29	29	15
98	106	9
70	73	5
26	35	3
83	86	3
102	103	2
75	81	3
85	85	16
36	37	3
32	33	4
58	58	11
40	41	18
48	48	11
47	47	22
97	97	13
72	79	1
69	70	8
93	103	1
50	67	3
82	82	13
44	44	18
49	50	3
74	74	8
34	34	9
53	54	10
55	55	12
47	64	1
84	84	27
39	40	13
94	97	1
72	73	8
76	77	2
32	32	15
85	86	1
33	33	10
19	19	3
91	92	11
34	35	5
67	69	2
96	100	9
81	81	17
23	23	7
73	73	14
99	99	13
65	69	10
95	96	5
98	98	27
106	106	11
42	107	4
97	99	7
78	78	6
27	27	8
73	78	3
42	42	11
72	72	10
51	51	17
102	102	8
37	38	4
77	77	6
63	64	3
86	88	1
26	27	14
88	88	12
97	107	5
67	67	7
71	71	12
29	30	11
22	27	1
70	100	3
70	70	12
37	41	4
21	37	5
54	54	10
65	91	3
74	94	3
49	49	12
37	37	23
20	21	6
66	90	4
76	76	11
39	39	23
89	89	6
29	51	6
23	29	1
66	68	2
62	64	2
90	90	17
33	100	2
29	39	4
50	51	8
68	69	8
70	71	8
23	50	3
41	41	10
25	25	10
52	52	16
40	42	5
89	93	1
42	45	2
75	75	3
83	83	13
43	62	2
69	99	7
79	80	14
41	42	5
57	57	6
21	31	2
49	53	3
62	62	16
82	85	2
30	48	4
23	24	12
38	38	13
69	101	3
95	102	1
26	26	9
36	36	7
92	93	6
56	58	3
46	46	5
72	87	1
78	79	15
100	100	2
89	94	5
27	35	3
96	106	3
22	36	3
59	59	6
62	63	13
29	99	2
52	54	3
38	39	18
21	21	6
40	106	5
31	31	2
36	39	2
80	99	1
73	74	4
25	26	9
20	37	1
90	93	1
24	24	5
21	22	2
31	33	3
24	46	2
28	39	2
30	52	4
98	100	1
65	65	7
89	90	6
77	103	3
60	61	1
23	25	1
45	50	2
52	53	4
89	92	1
24	25	8
24	28	2
22	24	3
53	53	19
31	32	2
92	92	10
42	44	1
54	55	2
35	35	3
27	28	4
62	88	2
38	40	1
84	98	2
42	105	5
42	94	3
57	59	3
81	82	1
80	80	17
57	60	2
29	36	2
39	42	4
68	68	4
90	91	5
105	105	3
65	66	7
55	56	5
24	26	6
88	97	1
97	98	3
69	69	12
74	76	2
50	91	4
26	28	1
60	92	4
93	94	3
39	89	1
63	63	12
43	44	6
66	91	1
103	103	2
56	57	5
35	36	5
83	85	4
97	103	4
24	45	6
59	60	8
47	56	1
61	65	1
67	103	2
68	70	1
93	105	1
29	38	3
32	34	1
56	65	2
101	101	5
65	92	2
46	48	3
40	40	6
28	29	7
82	86	4
75	76	3
65	89	1
44	60	1
61	88	1
99	100	2
29	44	3
86	87	1
21	34	2
64	65	1
87	88	2
43	43	5
36	76	2
43	63	6
47	48	3
46	50	5
47	65	3
73	87	2
73	92	1
88	89	1
91	94	3
31	51	1
30	51	1
28	36	4
69	98	1
62	87	2
91	91	7
59	104	3
31	56	3
30	36	3
79	81	2
54	66	1
55	57	1
76	85	1
104	106	3
76	96	1
50	93	1
51	52	1
104	107	1
44	48	2
58	59	2
25	48	1
81	84	1
31	99	4
83	87	1
53	55	2
78	83	2
58	64	1
24	27	1
93	97	1
89	95	2
81	83	2
100	101	4
75	90	2
51	58	1
39	41	1
37	40	1
28	45	1
71	72	7
50	65	1
93	93	1
44	45	1
45	46	2
23	90	2
25	46	1
23	31	1
56	59	2
70	72	2
26	48	1
31	50	1
90	95	1
67	68	1
45	58	1
81	85	1
