47	47	11
28	29	1
241	241	6
1	3	2
10	10	10
147	148	4
23	23	2
34	35	3
151	151	3
203	204	4
204	204	5
140	141	1
209	209	2
214	224	2
40	40	12
1	4	1
63	63	6
178	179	4
177	177	9
20	23	3
5	5	2
219	219	6
202	203	5
118	135	3
205	220	1
233	233	15
15	108	3
30	30	4
148	148	3
172	173	4
24	25	1
198	200	5
24	24	5
74	74	5
164	164	1
59	69	5
16	16	3
98	98	3
217	217	7
37	37	3
33	33	22
182	182	9
106	106	3
205	206	4
15	15	4
228	228	4
210	210	3
187	187	2
33	38	4
149	149	13
80	82	1
29	29	5
193	193	2
64	64	4
50	57	1
207	208	3
122	122	4
71	71	5
88	180	3
184	185	5
106	135	2
180	180	5
54	61	2
170	171	3
119	119	4
79	79	3
217	218	2
201	201	6
172	172	3
112	112	4
7	7	3
104	104	3
32	32	4
48	48	8
49	52	1
77	78	2
59	60	4
213	213	2
81	85	11
134	134	11
208	208	1
232	232	6
26	26	12
200	210	1
113	113	6
145	145	5
239	240	4
32	38	2
121	121	5
25	25	6
155	155	12
138	142	4
242	242	5
139	177	1
39	39	5
183	183	4
18	20	4
149	150	4
95	96	3
4	4	2
35	41	1
29	30	4
50	59	3
158	158	3
73	78	2
48	49	3
23	24	1
130	142	1
181	191	2
68	68	6
156	156	1
128	138	6
226	226	2
183	186	2
96	97	2
58	58	7
133	133	2
165	166	2
38	38	2
158	168	1
85	128	4
49	49	3
124	126	1
70	70	2
98	115	2
165	165	2
1	1	1
66	68	4
185	187	2
12	34	3
231	232	2
101	101	10
239	239	2
178	178	3
100	100	3
73	73	5
235	235	2
52	52	3
152	152	1
12	12	5
166	166	3
4	5	3
161	161	5
157	157	4
99	99	2
191	191	5
35	38	2
77	79	2
56	56	4
136	139	2
160	160	2
130	130	1
235	236	2
37	71	3
240	240	2
173	173	7
153	153	2
30	36	5
140	145	2
141	142	3
45	47	2
192	197	4
183	188	3
92	92	1
196	201	1
196	196	7
41	41	3
227	228	8
141	141	4
194	194	1
146	149	2
155	156	4
99	159	2
122	124	3
61	61	8
77	77	5
18	31	1
207	207	2
117	117	4
214	215	7
21	24	1
225	226	3
9	9	5
136	137	2
109	134	3
233	234	3
184	184	3
0	1	1
150	150	5
215	215	5
22	23	6
157	227	1
62	63	1
14	16	4
169	170	1
111	111	1
51	51	5
237	239	1
180	182	4
192	192	8
18	19	3
42	42	7
164	177	2
190	193	1
108	108	3
20	20	6
41	42	2
241	242	1
118	155	3
62	62	3
3	32	4
189	190	2
115	175	1
51	52	3
19	19	4
140	140	2
71	98	1
28	28	4
222	223	1
153	169	1
144	145	1
14	15	3
118	118	1
65	67	1
191	192	1
11	11	6
107	107	1
190	190	1
101	151	1
159	159	3
127	128	1
13	14	1
140	146	4
137	139	5
189	214	3
14	14	4
69	69	5
222	222	2
98	100	1
26	47	1
36	38	1
37	38	4
61	62	1
76	81	1
225	228	1
39	43	6
105	105	2
3	3	1
109	115	1
234	237	1
150	166	1
162	162	1
187	209	2
223	223	1
238	240	3
76	76	4
138	144	2
62	70	3
55	55	2
14	106	4
229	229	2
58	73	1
118	119	3
111	113	1
143	143	4
88	88	1
234	234	5
105	106	1
169	169	2
139	140	3
179	179	2
114	114	5
131	131	3
116	116	1
71	187	1
58	59	2
214	214	5
8	8	2
78	78	2
74	75	2
45	45	6
175	175	5
209	213	2
176	176	3
97	98	2
100	118	1
238	238	2
18	18	2
163	167	1
231	231	2
216	216	2
192	215	1
42	45	1
49	50	2
128	128	3
11	28	2
125	126	2
221	222	1
50	50	4
236	237	1
53	53	2
71	152	1
198	198	2
57	57	2
32	35	2
211	212	2
221	221	1
89	90	4
10	46	1
77	221	1
192	200	3
118	154	2
35	37	2
132	132	1
43	43	4
193	195	1
79	89	1
44	45	2
112	113	1
146	146	1
144	144	2
202	208	2
139	166	1
123	126	3
227	227	1
156	157	1
201	202	1
203	233	2
203	205	1
188	216	1
197	197	2
27	27	1
162	168	2
6	6	3
7	9	1
230	230	2
192	194	1
135	136	1
20	85	1
31	31	1
174	174	2
71	102	1
31	32	2
189	189	1
149	152	1
187	191	1
154	155	2
97	97	1
206	206	2
85	85	2
211	211	2
237	240	3
54	55	2
3	8	1
14	28	1
199	215	1
129	129	1
188	188	2
199	199	2
205	205	2
123	123	2
188	192	1
164	174	1
206	222	1
73	74	1
54	54	2
226	227	1
66	66	1
25	26	1
65	71	2
125	125	1
81	84	1
193	196	1
124	137	1
76	124	1
126	126	1
138	139	1
2	2	1
215	216	1
65	96	1
171	173	1
224	224	1
27	96	1
46	95	1
34	34	1
67	67	1
128	130	1
28	37	1
35	35	1
115	170	1
96	96	1
195	196	1
26	27	1
