103	103	9
23	23	9
100	100	5
25	28	4
37	37	7
93	93	14
34	63	7
62	62	8
52	52	4
92	92	1
64	64	8
91	91	13
99	101	3
85	85	14
72	72	9
61	62	5
50	50	3
74	76	7
32	32	10
102	103	4
29	29	1
94	95	2
85	86	2
68	68	11
55	55	6
96	96	19
51	51	30
65	81	1
50	59	1
74	74	3
39	39	3
67	94	3
38	38	3
35	35	11
21	21	4
46	48	2
95	95	3
73	74	11
31	31	3
68	69	4
26	27	6
104	104	7
77	77	7
73	73	6
94	94	4
88	88	2
60	60	14
105	105	10
31	33	4
67	67	6
54	54	9
89	89	12
94	102	1
24	24	7
36	36	8
70	70	10
69	69	4
59	60	1
25	25	4
91	100	6
83	83	3
56	56	5
40	40	2
66	66	9
59	59	10
79	80	6
72	73	8
34	93	2
36	96	1
80	81	5
91	101	5
86	87	4
56	58	3
44	44	4
86	86	7
63	64	4
56	57	1
22	22	8
35	36	3
42	42	2
90	94	2
100	101	13
22	26	1
91	92	2
87	87	7
49	50	1
46	47	6
106	106	9
29	30	2
57	57	12
106	107	3
61	61	6
30	30	3
47	48	4
65	65	6
27	32	2
78	78	3
23	24	6
43	44	2
63	63	5
84	84	2
101	102	4
25	26	6
60	63	7
44	45	4
62	81	3
34	94	1
47	59	2
71	72	2
99	100	3
31	36	2
94	99	2
62	94	2
20	20	3
41	41	2
24	35	3
51	52	3
53	54	2
54	56	4
40	41	3
104	106	1
52	53	1
99	99	6
103	104	4
53	53	5
58	58	7
33	33	7
39	61	2
51	53	4
98	98	6
27	27	2
71	71	3
75	76	2
55	57	3
60	61	1
45	45	4
55	99	3
90	102	2
25	27	1
49	49	2
81	82	1
21	22	1
23	34	1
66	67	4
82	82	2
101	101	1
37	39	3
62	66	2
83	84	2
55	58	2
80	80	1
81	81	2
28	28	1
69	70	4
20	22	3
62	63	4
36	95	1
77	78	3
48	49	3
64	79	2
68	72	1
61	98	1
54	58	1
28	29	3
34	34	1
32	41	1
37	45	2
73	76	1
38	42	1
29	32	1
90	90	2
24	79	1
33	61	1
42	44	1
69	71	2
42	43	1
64	94	1
37	96	1
21	24	1
82	88	1
102	102	3
76	77	1
100	106	2
93	94	1
32	33	2
97	97	1
45	46	1
91	103	1
32	40	1
20	25	1
91	93	1
