73	118	1
80	83	7
56	56	10
125	125	8
16	16	7
28	29	3
15	42	1
46	46	7
43	44	10
114	126	4
90	100	1
57	59	3
129	129	8
7	33	2
107	107	3
11	13	5
108	108	5
93	134	8
96	97	5
41	41	1
127	127	6
37	45	2
122	122	6
17	84	1
120	122	4
83	83	9
133	133	4
71	111	2
25	25	1
61	61	2
114	114	1
84	98	2
117	118	8
12	14	4
20	59	2
35	36	3
2	11	1
10	10	3
58	59	7
106	106	12
51	51	4
108	112	2
25	28	8
21	24	2
26	99	7
21	22	4
30	87	1
128	128	15
131	131	5
13	15	3
4	16	4
66	66	6
119	124	4
2	15	2
34	35	6
5	35	1
31	39	4
43	43	5
115	117	2
42	48	6
6	7	4
64	65	3
8	18	1
99	120	2
64	64	5
1	7	3
123	123	3
112	112	3
102	119	1
77	77	6
1	112	3
119	119	7
30	30	5
122	126	2
99	100	2
33	71	4
74	75	4
117	131	5
62	84	8
57	58	1
56	63	1
74	107	1
37	37	3
2	19	2
26	27	5
115	115	6
116	116	9
79	79	6
106	109	2
118	132	3
95	95	8
51	64	4
118	118	2
73	85	2
67	68	2
15	15	3
31	31	4
124	124	4
101	102	3
78	79	9
49	49	1
12	21	5
0	0	4
113	125	3
126	126	6
92	109	3
18	18	2
70	83	6
90	101	1
77	94	2
117	119	4
32	45	7
17	85	1
63	64	4
97	98	5
93	93	2
47	47	4
9	9	3
23	23	5
4	33	1
87	88	8
93	107	1
107	119	5
75	75	6
77	88	3
121	127	2
93	105	2
60	62	3
117	129	2
103	121	2
90	90	4
76	76	12
8	8	4
106	122	8
11	18	1
65	83	4
19	19	4
28	42	3
44	44	3
66	68	2
68	68	5
91	92	4
99	114	2
112	113	10
64	87	1
123	124	3
101	101	8
2	2	5
86	86	11
12	22	2
110	112	3
4	10	2
27	43	4
41	50	3
97	109	1
76	80	1
13	21	3
3	3	5
108	118	1
105	105	2
76	86	3
19	22	1
66	67	2
20	20	4
108	111	1
121	121	5
26	29	1
80	106	1
40	40	5
82	83	7
74	87	3
66	84	1
81	81	2
102	123	1
38	41	4
60	73	5
91	94	1
126	134	1
12	13	3
107	109	1
39	40	2
118	134	1
25	27	2
7	7	4
56	59	2
112	120	3
59	69	1
102	102	4
81	111	3
12	12	4
64	66	1
45	45	2
71	71	3
126	127	1
84	85	2
116	123	2
9	24	4
8	10	2
110	111	2
77	78	1
101	131	1
33	45	1
109	109	2
63	63	3
60	63	2
73	96	3
93	94	4
66	82	5
118	122	1
16	20	2
107	132	1
61	69	1
126	130	6
92	93	1
7	8	5
124	128	3
32	48	2
104	105	3
120	120	3
95	98	1
94	94	3
82	82	6
57	69	1
67	67	3
114	131	1
129	133	4
113	116	1
126	132	1
130	130	1
65	65	2
130	134	1
117	125	1
36	36	5
40	44	2
97	116	2
42	42	5
11	23	2
67	80	2
61	70	2
34	34	3
76	91	1
68	113	3
33	44	1
130	131	1
20	36	4
88	91	1
36	62	2
8	9	1
67	77	3
2	9	1
14	81	1
124	125	1
28	41	2
12	30	6
71	107	1
104	104	1
131	132	1
91	97	1
32	64	1
5	7	1
13	14	2
117	132	1
127	134	2
78	78	2
90	104	1
63	91	2
22	36	3
49	50	4
19	31	1
21	21	4
112	124	2
30	86	4
124	131	1
31	44	1
124	132	6
106	110	2
9	17	2
15	16	2
68	69	2
33	36	2
98	114	2
94	101	3
86	87	4
97	97	2
117	130	1
21	32	2
61	66	3
93	101	1
41	42	1
13	22	1
134	134	2
117	123	6
107	117	1
47	55	1
73	73	4
76	104	1
19	58	1
59	61	3
101	115	2
55	55	1
126	131	2
111	111	4
74	113	3
91	107	1
83	88	2
88	88	1
91	93	1
64	91	1
90	91	1
28	28	2
119	125	2
39	39	1
35	35	4
6	28	1
132	132	2
95	130	1
74	74	1
4	34	2
15	19	2
119	122	1
60	60	2
125	130	1
4	4	1
45	56	1
61	71	2
9	10	2
27	28	1
2	4	1
74	91	2
46	48	1
113	124	2
116	120	1
33	35	1
110	110	2
32	32	7
104	131	2
13	13	1
72	72	2
2	16	2
90	96	2
102	103	1
71	77	3
95	111	1
81	90	1
116	133	1
72	84	1
17	20	1
74	79	1
92	92	2
90	107	1
68	74	1
30	32	1
68	71	1
74	84	1
48	50	2
5	5	2
129	134	3
84	86	1
80	86	1
130	133	2
97	110	1
10	19	1
84	87	1
34	47	1
102	106	3
59	59	1
72	81	1
123	130	1
33	33	1
65	68	1
79	87	1
71	108	1
82	85	2
11	12	2
2	14	1
116	127	1
87	87	3
117	117	3
29	30	1
105	114	1
98	98	1
82	92	1
33	82	1
26	26	1
25	51	1
117	133	1
57	57	2
64	72	1
10	11	1
6	18	1
91	91	3
69	69	1
6	21	2
103	105	4
111	134	1
69	81	1
108	109	1
132	133	1
78	80	1
0	2	1
98	100	1
76	105	1
22	22	1
28	33	1
119	120	1
66	71	4
10	13	1
26	32	1
100	112	1
26	37	1
78	90	1
15	29	1
43	60	1
69	124	1
96	96	1
2	3	1
62	62	1
1	3	1
86	97	1
14	26	1
102	109	1
114	132	2
109	124	1
73	74	1
0	5	2
2	60	1
69	78	1
5	9	1
22	27	1
25	29	1
110	130	1
18	41	1
65	70	1
104	115	1
27	27	1
76	77	2
88	92	1
116	117	1
81	86	1
64	68	1
125	126	1
83	101	1
99	99	1
