94	94	4
115	116	10
36	36	5
14	14	4
61	61	5
122	122	2
74	74	5
30	30	5
60	76	4
10	10	8
114	120	2
116	119	1
23	127	4
112	126	1
44	87	1
133	134	7
103	128	2
121	121	3
1	2	1
133	133	2
85	85	6
36	37	8
43	43	5
82	84	3
17	17	3
55	92	2
56	57	3
113	114	7
55	55	3
22	24	1
12	12	6
102	131	1
66	66	4
21	80	1
120	121	2
105	131	1
113	116	3
109	109	3
28	28	1
72	73	1
97	97	3
102	102	6
67	125	1
77	77	3
111	111	7
101	133	2
75	89	2
98	132	2
31	40	4
105	125	1
95	95	11
107	108	4
111	112	4
84	85	4
24	24	6
96	98	4
21	21	7
54	55	3
71	71	1
4	4	2
115	115	6
127	127	3
25	25	3
3	25	1
26	26	5
107	130	2
20	20	3
40	40	3
36	38	7
108	109	1
49	49	2
9	9	4
62	62	4
100	132	3
128	128	5
9	10	2
128	130	4
107	107	5
57	57	1
105	105	2
129	130	1
91	93	3
57	60	1
128	129	4
92	92	6
35	36	3
123	123	4
120	122	3
91	91	4
86	86	7
22	80	2
73	73	1
116	117	5
101	127	2
98	99	4
41	114	1
56	56	6
101	101	6
81	81	4
103	103	4
43	44	5
46	46	5
17	18	1
13	13	1
92	97	2
49	78	2
120	120	8
6	6	6
11	12	2
89	126	3
18	18	1
90	90	3
31	43	1
83	84	2
83	92	2
43	45	2
130	131	2
84	92	2
70	70	5
106	106	6
15	15	2
82	93	1
134	134	6
60	74	3
16	19	2
34	35	2
1	35	3
21	22	1
41	41	3
94	95	3
119	123	4
118	119	3
47	47	3
16	17	4
97	102	4
91	92	1
59	92	4
118	118	9
59	82	4
61	127	1
114	114	7
84	90	2
103	130	2
19	22	3
19	20	2
41	116	1
104	106	3
68	70	1
78	79	2
19	19	4
84	84	4
5	5	4
74	75	1
90	91	3
50	80	2
129	131	2
100	100	3
23	23	3
77	78	2
29	30	3
73	77	1
132	132	2
39	39	5
89	127	2
26	27	3
125	125	2
68	68	2
93	94	3
4	29	2
63	63	3
1	1	3
46	47	1
37	39	2
5	13	2
132	133	1
130	132	1
105	133	2
16	24	3
109	123	1
45	74	1
129	129	2
25	26	1
110	110	1
42	43	1
101	102	4
29	43	2
72	72	2
27	28	2
14	24	2
125	133	1
131	131	8
44	44	2
106	131	1
108	108	5
94	96	1
20	79	1
85	89	2
45	45	4
32	41	2
38	38	1
6	7	2
15	16	1
130	130	1
113	113	2
34	34	3
58	74	2
26	129	1
35	37	1
42	42	3
14	15	3
64	67	1
42	114	2
3	5	2
86	126	4
78	78	2
119	120	2
128	131	3
15	18	2
24	25	1
12	13	2
5	39	2
59	75	2
24	81	1
95	96	3
73	74	3
96	96	2
18	20	1
121	122	4
40	113	1
127	131	2
50	50	2
48	49	2
68	69	1
2	2	2
97	98	4
23	24	2
47	77	1
61	64	1
115	117	2
101	132	1
104	104	1
91	104	1
38	39	3
119	119	1
11	11	3
7	7	5
90	104	2
85	90	3
117	117	3
87	88	2
124	131	2
2	6	2
23	49	1
75	75	1
24	80	1
64	64	2
90	134	2
32	32	2
69	70	2
18	19	1
104	124	2
31	116	1
106	107	1
93	93	4
46	77	1
100	101	1
26	81	1
33	33	2
8	8	1
58	58	2
44	45	3
99	100	1
28	44	1
6	33	1
103	105	1
26	28	1
17	19	1
83	83	3
46	59	1
29	89	2
55	56	1
82	83	3
56	96	1
65	66	1
65	67	1
43	91	1
98	133	1
99	101	2
40	41	1
80	80	1
65	65	2
112	112	1
117	119	1
2	4	1
26	102	1
57	71	1
63	70	1
63	67	1
25	27	1
60	60	1
37	38	2
37	37	1
8	9	1
88	88	1
112	116	1
104	105	1
27	88	1
59	91	1
99	99	1
55	93	1
33	35	1
98	134	1
79	79	1
