48	49	7
54	54	5
111	114	2
18	18	15
20	20	12
136	138	3
118	118	2
18	19	3
75	77	4
115	115	17
55	55	5
5	5	31
13	13	13
63	64	7
81	82	2
100	103	3
124	124	21
108	109	16
123	123	8
112	116	1
8	8	8
12	12	10
126	127	3
127	127	13
76	76	5
40	42	5
133	133	13
50	50	12
96	96	4
67	67	15
74	125	4
114	115	7
42	73	2
62	62	17
40	40	9
80	80	12
106	106	9
71	71	15
16	17	4
64	65	5
109	109	19
101	123	3
9	48	1
124	125	9
128	129	4
74	74	8
3	3	2
61	61	13
145	145	4
73	74	2
94	95	2
71	72	3
53	73	5
1	4	3
22	31	1
58	58	14
14	14	9
131	131	7
101	101	13
122	123	6
111	115	5
85	85	10
117	117	11
102	102	9
37	37	13
90	128	4
59	59	7
104	104	4
6	6	6
113	113	10
91	91	25
8	9	9
58	138	2
27	27	9
42	42	15
75	75	10
23	32	6
100	100	8
9	27	3
107	107	18
1	1	3
132	132	18
50	51	2
57	135	5
3	4	7
135	139	3
1	35	2
9	10	4
19	19	10
76	126	3
48	52	2
93	93	10
142	142	10
141	141	10
104	105	1
28	29	4
64	102	1
29	29	13
2	17	2
6	19	2
95	97	2
17	17	11
28	28	5
99	100	6
137	138	3
87	88	4
135	141	2
140	140	18
121	121	8
97	97	12
137	137	11
22	22	5
97	98	9
47	47	4
111	113	2
13	35	1
4	4	9
25	25	11
114	114	3
73	82	1
30	30	16
64	64	6
84	88	4
36	37	5
51	51	4
87	87	4
135	135	3
121	122	3
110	129	1
93	97	1
125	141	3
9	9	6
136	136	14
79	79	3
120	121	1
116	118	2
15	17	2
39	39	7
82	86	1
63	63	6
0	23	2
74	75	7
113	114	5
56	143	3
134	134	5
22	94	2
126	140	2
10	11	4
70	144	2
129	141	3
69	70	2
107	135	1
72	136	3
32	32	7
49	49	7
82	82	3
130	130	15
80	108	3
4	10	2
38	38	15
5	38	4
82	105	1
60	60	4
36	36	6
5	37	1
10	10	6
127	138	2
126	126	9
83	83	11
128	128	7
59	60	2
119	119	6
109	119	4
105	108	3
118	119	4
53	54	3
92	124	1
68	68	8
90	91	3
57	57	6
105	105	6
31	31	1
50	52	2
84	84	5
11	73	3
66	66	11
58	59	2
108	108	9
48	48	10
76	82	1
130	138	2
34	34	5
133	134	3
21	21	19
85	90	5
28	38	2
49	50	9
138	139	4
103	103	8
47	49	2
98	98	10
143	143	6
33	36	3
49	51	3
131	141	2
25	26	4
74	140	2
95	95	6
116	116	5
17	51	1
115	118	1
132	133	11
15	16	7
23	23	8
35	36	1
138	138	11
22	23	2
19	21	3
54	86	1
52	52	6
69	69	10
66	67	1
28	30	7
120	120	6
5	36	3
23	24	8
104	109	3
86	86	5
91	128	2
112	112	5
91	92	1
2	72	1
78	78	7
35	35	4
43	43	13
139	139	5
107	110	1
49	66	3
87	90	2
122	122	8
29	30	2
14	141	1
129	133	1
125	140	6
119	124	5
110	110	7
136	142	3
15	15	6
111	111	10
49	58	1
82	112	2
58	144	2
3	35	2
129	129	5
112	115	4
98	120	1
56	57	7
81	86	1
62	66	2
137	140	1
133	139	4
33	34	5
59	135	3
77	77	6
132	137	5
50	71	6
76	109	1
58	131	2
56	56	6
92	130	1
52	53	5
96	97	1
129	130	8
89	90	3
11	11	7
69	71	2
33	33	3
16	16	10
66	87	1
139	143	1
24	24	5
81	81	14
108	110	3
70	71	5
65	65	4
123	124	7
14	15	3
59	131	3
49	65	2
32	34	1
82	83	3
90	121	4
5	6	6
20	21	3
24	25	4
134	135	3
39	40	2
41	41	9
142	144	3
4	5	2
90	90	9
70	70	7
113	115	3
117	121	2
73	134	2
12	33	1
72	74	1
104	133	3
136	137	2
92	92	5
60	61	2
83	87	4
76	78	7
94	94	3
112	113	3
74	96	4
4	21	6
93	123	2
76	79	2
23	33	1
26	26	10
58	135	2
58	134	2
46	47	2
74	141	3
54	133	1
86	146	1
21	31	2
132	134	4
6	43	4
60	65	1
60	77	1
36	42	3
119	120	3
42	136	3
103	130	3
89	105	2
39	79	3
63	71	2
50	83	1
77	78	1
19	70	3
53	55	1
142	143	2
15	134	1
53	53	4
26	41	4
23	48	1
79	80	2
75	96	1
37	38	2
22	41	1
73	73	2
42	54	2
99	99	1
80	82	2
100	101	4
87	92	1
82	106	1
116	117	2
127	132	1
103	110	1
125	125	4
83	105	1
100	115	1
20	26	1
133	135	3
145	146	1
8	10	2
81	112	1
126	128	1
0	4	1
35	41	2
60	80	2
17	18	2
27	28	2
8	48	2
67	69	1
138	141	1
85	87	3
0	34	2
55	82	1
144	144	3
51	52	1
17	52	1
25	33	2
25	34	2
102	103	1
10	86	1
22	92	1
16	18	3
26	27	3
57	81	1
23	36	1
9	13	2
54	55	1
24	30	1
108	136	4
105	134	1
48	50	1
58	132	1
120	124	1
124	126	1
56	72	1
128	144	1
11	27	1
115	138	1
3	19	2
55	66	1
88	88	1
17	50	1
125	134	1
64	66	1
59	144	1
80	81	1
1	3	1
10	63	1
114	117	1
107	121	1
36	41	3
38	39	1
57	131	1
25	37	1
88	90	1
78	86	1
24	41	1
89	89	1
103	119	1
49	99	1
