235	235	4
224	224	3
236	237	1
150	154	3
150	150	1
194	194	9
238	241	7
173	174	2
212	212	3
161	162	4
218	225	4
58	58	4
157	157	4
47	47	5
8	8	7
242	242	1
8	17	2
6	6	3
175	175	6
236	236	2
102	102	5
7	7	6
43	43	4
151	151	2
96	96	9
17	204	2
22	22	1
236	240	1
186	186	2
5	158	4
36	36	1
54	71	1
217	217	9
49	56	3
25	25	4
94	94	1
29	29	5
159	172	2
81	81	3
6	7	4
16	16	9
85	85	3
237	237	2
59	60	3
36	40	2
214	215	3
4	209	2
182	182	8
168	234	1
231	231	5
46	46	3
238	238	8
95	95	1
34	34	1
171	171	1
69	108	3
110	117	6
203	203	2
39	89	2
192	197	3
98	98	4
24	46	4
194	195	1
51	56	2
3	11	2
163	163	4
95	98	1
62	152	5
190	190	6
26	26	5
12	12	2
33	33	4
209	209	2
20	204	1
249	249	2
92	92	1
209	247	2
159	159	2
30	30	2
233	233	4
65	96	2
211	211	2
186	188	1
230	230	2
31	31	3
198	198	4
102	105	2
118	119	2
66	72	3
41	41	2
208	208	3
229	229	1
109	109	1
25	43	1
89	89	1
18	31	1
73	73	4
225	226	1
2	2	7
63	63	3
4	17	1
49	57	1
48	48	3
159	209	2
163	165	3
14	15	1
197	197	5
181	185	2
69	69	3
225	225	1
40	40	1
198	199	3
71	72	3
117	117	2
233	235	1
158	210	2
183	183	3
189	189	7
65	65	1
172	172	2
111	111	2
10	10	2
55	73	2
163	164	2
177	177	1
205	220	2
66	67	6
4	4	2
55	74	2
97	98	1
40	70	2
193	193	1
225	243	6
201	201	3
159	160	2
9	9	3
67	70	2
232	233	2
44	204	3
188	190	1
165	166	1
79	79	2
35	35	1
232	232	4
214	214	2
156	201	2
244	244	4
55	55	1
116	116	2
177	233	1
243	243	5
5	208	1
46	203	5
11	11	3
187	187	2
158	158	3
65	66	2
110	110	4
174	174	2
213	244	2
159	208	1
71	71	4
150	155	2
240	241	2
168	169	2
90	90	1
38	67	2
21	21	5
179	180	4
188	188	2
23	23	4
53	54	2
39	40	2
101	108	2
67	67	1
83	83	3
27	27	2
178	184	4
42	42	3
157	158	1
193	194	1
210	247	1
59	59	2
41	65	2
21	41	1
99	99	3
103	103	4
67	68	2
15	15	1
209	248	1
45	45	4
196	224	2
24	226	1
6	11	1
64	64	1
234	234	1
212	213	2
164	165	3
86	86	1
206	206	4
179	179	1
207	242	7
210	248	1
231	233	2
191	192	1
1	1	5
240	240	5
1	24	1
44	109	1
62	64	1
155	155	1
162	163	1
27	32	2
117	118	1
19	20	1
215	216	1
187	213	1
227	227	2
173	181	2
156	178	2
77	77	2
9	202	2
34	64	1
218	220	1
152	152	1
204	204	2
185	185	3
66	73	3
38	38	2
230	231	2
68	68	3
56	57	1
212	235	1
189	190	3
79	112	1
6	161	1
95	96	1
5	5	3
19	19	1
115	115	3
229	234	1
168	168	1
241	242	1
164	223	1
47	49	1
89	112	1
217	222	1
80	82	2
196	196	1
75	75	4
84	91	2
87	96	2
185	187	1
63	64	1
90	93	2
145	156	1
51	69	1
152	194	2
202	202	2
18	18	3
28	28	1
189	223	2
160	160	1
166	166	1
200	200	1
245	245	2
213	214	2
181	181	1
110	114	1
43	203	1
0	115	1
32	32	1
201	202	1
38	40	1
104	166	2
3	3	1
105	105	1
118	118	1
210	210	2
239	239	1
155	231	1
199	199	1
238	239	1
154	154	1
108	108	1
76	86	1
76	76	1
12	20	1
80	80	1
152	153	1
81	82	1
39	66	1
242	245	1
