26	26	8
32	32	5
45	57	3
33	33	17
72	72	14
15	35	2
108	108	16
82	125	1
59	59	11
61	95	4
117	133	4
108	109	3
43	43	4
93	93	12
10	65	2
114	114	1
57	57	10
76	76	8
111	111	8
6	6	9
63	133	4
9	10	1
110	110	8
25	27	6
104	104	11
1	1	16
46	63	2
14	14	5
56	57	3
133	133	7
3	34	1
123	126	1
8	8	20
84	85	5
60	60	5
77	77	8
119	119	18
55	129	4
33	85	6
91	91	2
93	96	2
66	67	4
29	29	9
113	113	3
71	71	5
63	63	10
9	9	11
88	93	2
10	67	1
10	10	9
67	91	2
20	20	15
25	26	4
71	72	7
84	84	5
132	132	4
86	86	10
105	105	10
56	83	2
120	121	11
116	116	11
102	102	2
83	83	6
21	23	5
125	125	7
78	78	12
134	134	16
23	23	8
74	75	3
27	27	6
76	77	3
124	124	8
120	120	6
103	103	9
2	3	3
130	132	2
12	12	15
22	25	6
26	27	3
101	117	2
55	56	3
5	26	5
121	122	1
40	41	5
67	67	7
0	0	10
133	134	2
128	128	4
11	27	1
82	83	9
24	24	10
8	12	3
7	7	12
61	120	2
132	133	1
5	83	1
46	47	3
69	69	3
17	17	13
95	95	9
34	43	1
112	133	6
121	129	6
118	118	7
32	35	1
103	104	1
98	102	2
6	106	1
47	107	3
4	7	1
50	55	4
92	92	4
85	85	14
59	60	4
120	122	6
107	108	5
57	82	3
89	89	2
121	121	5
22	24	1
121	127	1
44	44	14
107	107	6
10	36	1
73	73	9
100	100	2
122	128	3
123	129	5
114	121	3
98	99	9
41	41	6
89	91	8
72	118	1
33	82	3
17	88	2
16	31	2
94	94	12
102	117	1
40	42	1
28	33	1
91	92	2
82	82	7
115	115	7
4	4	8
39	40	1
85	88	4
8	9	2
127	127	3
62	64	2
1	2	1
75	75	8
73	74	2
21	21	1
80	128	1
68	68	3
81	81	4
87	87	3
18	18	3
38	39	1
47	63	2
45	59	3
19	19	12
125	126	5
62	68	1
13	17	2
106	106	3
3	3	8
121	128	3
77	119	1
84	93	3
78	117	1
14	42	4
117	117	10
17	19	1
64	64	6
79	79	7
41	43	2
20	82	2
17	18	4
61	110	3
101	101	5
74	74	11
93	95	2
116	117	2
110	111	2
31	92	3
16	18	2
45	45	7
56	123	1
118	120	1
102	111	1
31	93	4
62	62	2
98	100	2
65	65	10
13	25	1
30	31	2
131	132	5
34	34	9
115	116	4
99	99	5
20	85	2
63	76	2
35	35	3
97	97	8
117	120	2
47	47	3
90	91	2
55	57	1
18	84	3
56	56	5
117	118	3
25	25	5
35	39	1
61	77	2
30	30	2
12	23	3
120	126	3
80	80	3
122	122	3
66	66	3
101	106	5
49	49	4
88	88	4
121	123	1
29	30	3
123	127	1
5	5	6
60	62	5
11	11	2
13	23	1
91	93	2
62	95	1
20	105	1
48	96	2
111	112	4
58	58	3
116	134	2
131	131	7
46	46	2
106	107	4
77	89	2
20	84	5
79	108	1
126	126	5
61	61	6
19	26	1
58	86	4
63	77	4
15	36	4
56	128	1
112	113	1
81	82	2
41	42	2
75	76	2
36	36	3
55	58	1
12	13	1
24	29	2
75	77	1
5	20	3
7	8	2
92	93	1
70	71	3
0	1	3
10	12	2
16	16	4
94	95	3
9	89	1
55	123	1
3	33	1
104	112	4
45	56	3
5	28	1
61	84	4
123	130	1
38	38	1
118	119	5
55	55	2
95	108	2
32	33	3
77	107	2
112	112	4
112	122	1
93	134	1
123	123	1
89	93	3
13	24	1
128	129	1
61	62	2
76	118	2
43	44	2
16	17	3
20	21	1
49	50	3
77	116	1
7	27	1
100	101	2
122	127	1
0	27	3
32	34	2
78	120	1
40	43	1
79	80	2
27	28	2
75	119	1
6	107	1
111	133	1
85	86	2
125	129	1
48	48	1
94	108	1
19	20	1
10	38	1
30	39	1
2	2	3
104	105	1
106	111	1
58	60	1
60	124	4
37	37	1
123	124	2
21	26	1
66	118	1
36	42	1
4	6	2
112	114	1
68	69	1
113	131	1
81	126	1
44	64	1
35	42	1
97	111	1
20	28	1
17	31	1
108	110	1
122	123	1
95	100	1
10	27	1
120	125	1
78	124	1
40	44	1
15	15	1
13	43	1
3	19	1
45	46	1
6	26	2
78	116	1
96	110	1
27	29	1
24	25	1
83	86	1
