25	26	3
49	89	1
93	93	14
51	75	5
69	69	17
61	61	20
64	64	46
71	71	17
70	70	12
31	31	3
79	79	14
50	50	12
73	74	8
78	78	39
83	83	18
48	99	3
57	86	3
39	39	7
92	92	16
54	54	8
82	84	2
23	25	3
80	80	19
55	55	14
88	88	18
77	77	30
48	88	3
95	96	5
73	73	17
89	99	4
65	65	27
45	75	3
52	52	19
84	84	12
67	69	1
79	83	4
50	51	2
63	63	18
61	87	6
36	38	9
64	65	3
68	68	15
68	71	5
51	51	14
37	37	6
89	89	19
101	101	4
65	66	5
87	88	5
44	45	2
94	97	3
76	76	49
81	81	15
40	41	10
45	45	5
26	27	3
51	52	5
66	79	2
62	63	4
44	89	2
41	41	14
42	44	4
94	94	10
75	76	6
44	44	13
80	81	18
45	60	1
82	82	9
81	87	2
67	70	1
85	85	19
75	75	17
40	40	18
38	38	10
65	67	4
48	60	1
86	86	14
74	74	27
80	84	5
27	29	1
56	56	5
66	69	2
72	72	21
46	47	3
27	27	5
51	53	3
79	80	7
60	60	12
94	98	3
63	64	1
29	29	4
23	23	4
98	100	2
33	33	11
74	75	2
64	80	1
62	62	19
61	88	9
51	63	3
48	48	14
69	72	3
42	51	3
66	66	12
81	84	3
59	59	12
94	95	1
43	43	7
40	68	4
70	75	3
31	32	4
47	50	3
72	73	6
33	95	3
57	57	28
53	53	12
47	48	1
97	97	6
24	27	2
99	101	4
91	91	12
26	32	5
79	82	9
63	77	2
77	78	2
28	28	1
27	56	3
58	58	1
22	27	1
42	42	15
95	95	13
81	86	4
44	74	7
58	59	2
29	30	4
87	87	5
68	70	4
50	63	3
38	69	1
56	70	6
48	50	2
59	85	1
81	82	5
47	47	4
88	89	3
69	75	1
56	57	1
57	58	5
35	36	1
90	91	5
57	59	4
98	98	15
34	34	3
22	22	8
98	101	1
33	39	3
67	68	6
37	57	1
44	75	2
50	100	3
66	67	3
99	100	3
48	63	1
53	62	1
84	87	2
48	98	4
26	26	7
49	50	5
46	46	9
30	33	1
51	55	3
69	70	4
64	66	3
62	96	2
29	33	2
27	46	1
42	67	4
46	60	1
67	67	10
34	35	1
71	81	3
86	87	4
95	97	8
71	73	3
20	20	4
25	25	12
42	43	8
59	75	4
59	89	1
99	99	6
100	100	8
74	76	1
71	72	4
52	80	2
62	95	1
87	98	2
91	94	1
36	75	1
45	89	1
53	54	2
50	99	3
92	93	4
56	59	2
65	78	3
66	84	1
47	60	4
33	96	6
96	96	3
53	79	2
75	85	2
38	59	1
72	74	2
70	71	1
60	73	2
90	90	11
25	87	1
81	83	5
86	99	1
79	87	1
91	93	2
22	28	2
76	77	4
49	85	2
93	97	1
89	90	3
49	49	1
56	87	1
56	60	1
50	89	2
65	74	1
50	54	1
63	93	1
35	38	1
32	32	3
78	79	1
55	100	2
92	95	1
53	55	1
50	59	1
51	99	1
52	65	2
102	102	1
92	96	2
80	82	1
49	63	4
37	38	1
35	35	2
91	97	1
33	34	2
44	49	3
85	93	3
24	24	1
37	69	3
98	99	2
91	92	4
62	64	2
61	64	2
78	102	3
48	49	4
52	57	2
24	25	2
49	58	1
68	69	2
37	71	1
41	67	1
52	59	1
68	80	2
27	28	2
60	88	2
36	36	2
36	82	2
47	88	1
24	26	1
70	73	2
61	62	2
23	29	1
70	72	1
62	97	2
40	70	1
30	30	2
54	55	1
32	34	1
57	71	1
52	64	2
47	49	1
49	98	1
83	84	1
66	83	1
50	101	1
71	82	2
37	82	1
32	33	2
64	75	1
56	100	1
52	83	1
29	39	1
46	48	1
24	88	1
52	79	1
55	56	1
90	93	1
80	87	1
21	21	1
93	94	1
