85	154	1
68	119	2
116	172	1
72	72	4
137	141	3
163	164	3
125	125	9
71	71	6
88	88	2
24	24	7
140	144	2
13	63	3
23	24	3
134	134	7
15	25	1
62	62	3
77	77	7
25	25	3
30	30	4
21	22	3
124	125	2
135	135	6
145	145	5
152	154	4
92	93	4
29	29	7
35	35	1
54	54	2
6	12	4
4	5	1
19	19	4
11	14	3
57	58	5
58	134	4
147	147	3
135	137	1
101	101	6
163	163	5
122	125	2
5	5	10
151	159	4
113	113	1
118	119	3
42	42	7
38	38	5
9	9	3
75	80	1
99	99	3
143	146	2
64	64	3
71	72	2
68	121	2
75	75	4
50	50	3
100	100	4
68	68	4
60	60	8
86	153	2
132	132	9
140	140	9
40	40	6
56	56	15
30	167	2
55	56	4
105	106	3
173	174	10
51	129	1
35	36	6
130	130	8
106	106	5
157	157	6
33	33	3
82	82	2
167	167	7
144	145	2
165	165	5
177	177	1
153	153	10
73	73	8
144	144	6
39	83	3
103	103	9
5	29	2
57	57	10
91	91	7
160	160	2
127	132	3
63	156	1
1	4	1
90	96	1
27	27	1
7	10	2
4	4	5
177	179	2
141	141	6
109	109	3
94	95	2
177	178	3
17	43	1
88	89	1
98	98	4
15	23	2
168	168	3
146	146	7
114	116	3
92	97	2
22	22	3
164	164	4
148	148	4
75	89	2
169	173	3
41	41	6
120	155	2
120	121	2
18	19	2
59	59	2
96	102	2
117	117	8
161	161	6
119	119	3
105	105	3
176	176	10
73	179	1
169	170	4
66	117	2
81	82	3
2	4	2
59	61	4
122	122	3
66	68	3
92	92	2
103	104	1
139	140	3
133	133	4
20	126	1
118	124	1
2	3	3
157	159	9
67	67	5
10	11	3
61	61	8
180	180	8
167	169	2
81	81	3
32	32	4
28	28	3
102	105	4
158	158	2
78	78	1
8	8	7
162	166	2
117	118	3
14	15	3
151	151	4
175	175	3
169	172	2
170	170	4
52	52	3
34	34	5
159	160	1
157	158	5
7	8	1
7	7	3
36	36	9
139	139	5
93	93	4
12	62	2
168	169	4
154	154	6
84	86	1
83	100	1
14	16	4
158	159	2
6	6	5
5	6	5
64	123	2
150	150	3
83	98	2
128	131	1
63	64	1
18	41	1
86	86	2
137	138	1
13	22	3
63	63	1
164	168	1
9	38	2
79	79	7
1	2	1
11	11	2
119	155	3
45	80	3
38	44	1
172	172	7
27	28	1
2	58	1
151	152	2
125	126	2
121	121	3
12	123	4
43	43	5
149	149	3
136	136	3
23	116	1
36	37	5
0	0	2
37	37	8
108	110	1
64	158	2
126	127	3
53	53	4
62	137	2
52	61	1
179	180	3
129	130	3
83	83	1
58	58	2
142	145	1
7	9	1
167	172	2
136	137	1
1	1	4
169	169	1
121	155	1
112	115	1
126	126	4
162	162	3
152	159	1
94	96	2
68	141	1
77	93	1
174	174	5
49	50	1
84	85	2
110	110	3
88	96	1
3	4	5
39	41	2
53	61	2
144	146	1
149	150	2
21	21	3
146	149	3
173	173	4
66	70	1
141	142	1
118	120	1
87	150	1
142	144	1
66	67	1
129	129	3
20	20	3
12	63	1
50	73	2
16	16	2
171	176	1
15	126	1
91	93	2
98	105	1
22	26	1
81	106	3
46	110	2
74	74	1
85	86	2
155	155	2
118	118	1
58	65	2
62	67	2
84	100	1
90	92	1
156	156	3
111	111	2
86	150	1
129	131	2
24	25	1
26	26	3
104	105	1
3	3	3
12	13	2
80	81	3
29	73	2
154	155	1
170	172	2
153	159	1
145	177	1
115	116	1
142	142	1
31	31	2
120	124	1
62	68	2
100	101	1
147	149	1
66	66	1
108	112	1
161	162	3
41	42	1
179	179	2
83	96	2
98	115	2
51	52	1
91	171	2
50	51	1
116	117	1
141	147	1
78	81	1
108	108	2
134	141	4
62	63	2
9	53	1
155	156	1
93	94	2
105	107	2
132	135	2
29	50	1
70	134	1
18	18	1
135	136	1
32	75	2
119	153	2
2	2	2
51	142	3
30	31	2
123	123	4
153	154	2
131	132	1
86	96	1
45	45	2
40	42	2
85	150	1
51	61	1
143	145	1
112	112	2
130	131	3
132	133	1
23	26	1
50	115	3
13	14	2
25	26	1
178	178	2
110	111	3
172	174	1
55	55	2
75	82	2
144	147	3
85	153	1
107	107	1
143	161	1
4	56	1
30	174	1
70	70	2
99	107	1
17	17	2
107	125	1
9	29	1
128	132	1
24	26	1
98	100	2
114	153	1
111	125	1
34	35	1
134	137	2
116	124	1
51	51	1
52	59	1
39	100	1
63	158	1
154	156	1
173	180	1
52	53	1
107	108	1
150	154	1
67	68	1
76	76	2
7	11	2
38	84	1
114	115	1
30	79	1
175	180	1
64	65	1
116	116	1
113	124	1
127	129	1
83	84	1
32	105	2
108	125	1
80	80	1
12	12	1
13	23	1
5	27	1
91	92	1
117	120	1
166	175	1
44	45	1
166	166	1
86	89	1
51	178	1
114	114	1
120	154	1
39	40	1
90	95	3
113	114	1
159	159	1
165	166	1
18	20	1
130	132	1
103	105	1
128	128	1
41	125	1
31	73	1
65	66	1
41	111	1
