6	72	4
5	5	9
86	86	8
137	137	16
11	28	1
75	76	1
13	14	13
31	32	8
118	118	8
104	104	8
95	95	3
104	105	4
30	30	17
106	106	8
1	1	13
102	102	12
130	131	3
105	106	4
126	126	16
98	109	5
0	0	11
98	107	2
132	132	2
95	96	2
90	90	4
3	4	2
78	84	5
127	127	8
87	93	3
3	7	6
12	12	15
29	29	2
20	20	13
108	108	6
131	131	3
22	26	3
89	102	8
79	80	3
30	31	7
74	74	13
135	135	6
89	89	15
4	5	5
93	93	1
25	25	6
100	100	14
12	14	3
2	2	18
96	99	2
88	88	7
33	33	17
72	72	7
21	21	5
4	37	4
121	121	9
10	12	8
98	98	7
130	130	10
22	22	2
71	72	10
76	76	10
105	105	10
37	37	7
124	124	16
118	119	2
139	139	8
109	109	8
26	26	1
11	11	8
80	80	10
94	94	3
138	138	5
13	13	10
74	80	1
18	18	13
111	111	2
87	88	1
87	87	11
78	83	6
22	23	5
92	92	6
35	35	4
85	121	4
4	4	5
100	101	3
9	9	5
10	10	5
91	91	6
134	134	17
134	135	3
32	32	5
71	71	13
117	117	5
36	80	1
110	111	4
85	120	1
102	103	4
136	137	1
94	100	4
72	73	3
24	24	4
23	23	5
33	35	4
78	90	1
14	25	1
78	78	3
129	129	6
6	71	1
34	34	5
29	30	1
36	37	3
107	108	3
38	38	8
6	6	15
97	98	8
16	16	4
107	107	2
84	84	4
5	6	5
114	114	5
96	96	3
4	33	1
33	34	4
119	119	1
14	14	7
97	97	1
89	90	5
36	36	7
101	101	9
93	113	1
7	8	3
1	2	1
21	22	3
7	7	1
16	23	3
125	125	10
81	81	3
115	116	5
94	113	1
12	13	3
77	78	3
5	37	3
4	7	6
120	121	3
27	27	3
11	25	2
128	128	6
74	77	1
11	29	1
98	110	1
78	119	4
113	121	4
96	124	1
107	112	3
115	115	5
138	140	7
106	107	2
88	89	6
97	110	1
135	138	2
131	132	3
3	3	6
112	112	10
30	32	1
8	31	2
122	122	2
9	13	1
85	85	7
96	97	6
137	140	1
101	102	3
108	109	2
34	35	5
8	80	1
99	99	4
110	110	2
82	82	6
116	117	1
112	113	4
0	1	2
116	116	5
99	100	5
12	25	2
91	92	2
126	127	3
76	77	2
128	129	6
2	3	5
4	13	3
8	8	2
94	95	2
137	138	1
114	122	3
35	81	2
111	112	1
15	16	1
103	104	1
37	38	3
28	28	2
106	110	1
133	133	4
136	136	3
16	17	2
35	36	1
80	81	6
33	36	3
103	112	1
18	19	2
120	120	1
34	36	7
7	10	1
136	140	2
86	87	1
11	26	2
73	73	5
139	140	1
31	31	2
89	101	1
17	19	2
123	123	2
117	122	1
17	22	2
86	117	2
0	37	2
7	9	1
78	81	2
29	32	1
117	118	1
93	94	2
25	26	2
4	36	1
18	20	4
98	99	1
97	112	1
15	15	1
7	29	2
17	21	1
109	110	2
7	13	3
9	29	1
83	83	1
33	38	1
73	74	1
78	125	1
75	77	2
108	110	1
113	113	1
27	28	1
100	115	1
140	140	1
16	22	1
19	19	1
