90	94	2
28	34	1
122	122	4
87	87	25
71	74	3
12	12	14
33	33	13
95	100	1
32	32	18
89	108	3
25	101	5
26	26	11
131	131	13
79	79	20
17	17	16
135	135	9
87	90	1
6	10	4
28	28	14
35	38	3
105	120	2
115	123	3
85	85	7
76	108	3
2	2	18
17	18	7
23	23	13
30	30	9
130	130	20
7	8	5
8	8	11
10	11	6
127	127	16
120	121	4
123	123	31
119	121	2
15	15	8
72	74	1
90	90	8
3	25	2
109	110	4
25	25	16
38	38	4
124	125	3
95	95	5
139	139	9
24	24	3
105	106	6
9	9	3
21	24	2
16	17	6
92	92	8
90	91	4
112	129	2
112	112	12
115	115	19
35	35	13
27	31	2
140	140	7
112	113	7
24	25	7
114	114	19
12	13	6
29	29	6
112	121	1
98	115	2
4	4	9
98	98	15
124	124	18
119	120	9
88	88	15
111	122	1
83	83	22
98	112	2
97	97	10
82	85	1
129	129	15
31	31	11
107	107	13
19	19	5
111	111	5
120	128	2
103	103	20
73	73	8
27	36	5
111	112	1
101	101	21
113	113	15
27	27	17
72	72	13
74	75	9
125	125	10
127	130	1
95	101	2
74	74	11
106	108	4
16	16	11
138	138	11
72	97	2
120	120	19
86	93	2
101	126	4
89	89	16
135	137	5
117	117	5
14	14	13
109	109	13
96	97	10
100	100	13
27	28	4
13	13	19
114	129	4
10	10	4
137	138	4
82	84	7
120	131	1
136	136	9
104	105	5
6	20	2
96	96	11
0	0	7
116	116	8
110	110	12
111	124	3
120	124	5
3	3	13
123	124	2
97	109	2
31	32	2
76	118	3
95	96	3
5	6	6
18	19	10
36	37	6
85	101	2
99	100	4
18	18	13
29	32	3
75	90	1
83	85	2
81	81	24
4	6	4
20	20	7
92	93	4
77	77	1
137	137	8
84	85	2
90	92	3
115	116	9
1	2	5
22	23	2
32	34	4
73	77	3
22	22	8
1	1	4
82	82	19
80	80	4
37	37	8
128	128	2
72	96	3
83	84	4
21	23	4
93	93	4
6	9	2
21	33	1
34	34	19
20	21	8
85	86	7
101	115	1
81	85	7
128	129	3
21	95	1
134	134	19
119	119	12
21	21	18
28	29	1
120	122	12
119	122	1
87	114	1
75	91	2
76	76	6
126	126	5
105	121	1
135	136	8
70	92	1
108	129	1
134	135	3
71	73	2
78	78	10
4	17	2
20	22	1
90	117	5
75	75	14
94	96	3
34	95	5
36	36	5
96	101	2
7	7	3
88	92	2
71	71	16
6	7	9
3	27	3
37	38	2
87	88	4
132	132	16
9	11	1
5	24	2
80	101	2
14	16	2
134	137	3
78	86	3
99	99	8
14	18	2
4	19	4
5	5	4
119	132	2
6	23	1
74	90	1
6	12	1
101	102	2
78	79	2
6	6	11
72	73	3
14	15	7
81	112	3
112	127	3
108	108	5
20	25	2
71	76	2
102	102	4
113	115	4
33	116	1
109	111	1
102	113	1
136	138	2
106	106	4
77	93	2
133	133	5
112	116	3
11	14	3
77	79	2
99	114	2
129	130	5
133	134	4
24	71	2
13	16	1
96	113	2
13	25	1
15	16	3
87	104	3
93	103	1
27	89	2
14	30	4
112	115	1
25	26	4
136	140	2
1	3	1
24	27	3
33	34	2
84	105	3
113	124	2
32	33	3
30	31	5
107	108	1
118	118	1
105	105	7
71	72	2
105	111	4
100	127	1
15	34	3
18	26	2
127	128	2
10	19	1
6	18	1
116	117	3
111	115	1
8	9	2
126	127	7
72	92	1
29	30	2
121	122	1
75	77	2
97	111	2
104	104	9
90	93	1
96	116	1
80	99	1
122	123	3
130	131	3
91	94	2
9	13	1
107	124	1
81	86	4
132	133	2
0	5	4
75	81	2
119	123	2
91	91	5
79	102	2
32	71	8
121	121	6
81	83	2
13	14	4
76	78	1
108	110	2
33	111	4
14	28	1
96	109	2
86	86	7
79	112	1
101	104	1
21	22	2
73	80	1
114	115	5
96	99	2
12	14	3
77	78	2
98	100	1
102	122	2
0	4	5
112	125	2
3	7	4
73	74	1
19	20	2
111	119	2
78	81	1
2	3	3
106	107	2
26	38	1
30	32	1
101	112	2
10	18	1
77	87	1
94	94	6
88	104	1
129	132	1
11	11	2
116	119	2
119	124	2
26	27	3
76	96	2
28	32	1
86	89	1
10	24	3
74	77	2
8	25	1
26	94	2
113	127	2
32	72	2
3	119	3
82	89	3
21	76	1
3	9	1
117	118	1
4	9	1
131	132	3
5	15	2
100	108	1
82	96	1
10	12	3
113	126	1
13	94	1
118	119	1
108	109	1
120	123	4
116	129	2
98	126	1
110	111	1
8	10	1
76	83	1
0	15	3
26	75	2
85	106	1
89	90	1
96	98	1
111	126	1
87	93	1
99	105	1
103	114	2
134	140	1
111	127	2
101	103	2
12	15	1
11	13	1
95	114	2
119	130	2
99	129	2
74	80	1
34	35	1
94	95	1
111	129	3
19	21	1
137	140	2
102	103	1
105	126	1
110	130	1
34	38	3
90	105	1
23	72	1
74	86	1
79	90	1
38	98	2
81	82	1
0	2	1
74	76	2
13	120	1
30	33	1
3	35	1
109	126	1
116	121	1
16	21	1
78	91	2
117	120	3
93	112	1
2	121	1
118	125	1
80	100	1
79	81	1
98	123	1
4	5	2
116	123	1
78	114	1
115	129	1
104	106	1
84	84	1
75	118	1
15	25	1
75	76	1
34	132	1
73	117	1
116	133	1
23	104	1
110	113	1
21	104	1
33	73	1
22	103	1
110	129	1
