23	23	2
77	77	6
129	130	4
10	18	3
86	86	12
14	14	9
76	126	4
34	34	7
73	110	3
99	105	1
23	26	4
0	1	3
28	28	7
35	37	5
140	140	5
71	71	4
92	92	5
74	74	6
2	36	3
6	21	2
34	43	5
138	138	3
102	104	1
11	12	3
80	87	6
115	115	1
71	93	5
139	139	4
135	135	5
94	94	3
124	124	4
2	35	4
20	20	5
101	101	14
97	128	1
139	140	2
79	114	5
2	2	2
79	126	3
16	19	1
117	121	6
119	119	6
72	72	6
116	116	6
11	11	8
75	116	5
37	37	2
99	99	6
80	90	6
130	130	3
125	125	9
85	86	3
90	90	14
20	81	4
137	137	6
68	68	4
91	91	7
93	100	3
87	87	7
17	18	4
24	76	5
120	122	3
24	25	3
133	133	7
1	16	3
119	125	5
88	88	4
77	126	5
26	26	6
112	112	1
134	134	5
79	79	1
75	75	3
1	1	4
35	35	8
4	4	6
21	81	3
74	121	3
30	30	4
4	34	2
24	28	1
0	0	2
98	98	8
127	127	5
6	10	2
25	25	5
8	83	1
128	128	4
73	73	4
114	126	1
119	120	1
136	136	3
100	100	1
16	32	1
27	27	4
1	30	4
24	91	2
124	125	1
24	31	1
81	83	1
93	93	3
7	7	6
129	129	11
74	113	4
32	32	1
118	119	1
3	35	9
7	9	5
121	121	3
84	84	3
126	126	4
118	118	6
22	22	1
83	132	4
23	24	2
33	33	3
131	131	4
30	31	2
75	119	3
94	100	1
17	38	3
123	123	3
113	120	1
8	9	1
5	5	4
76	76	2
115	116	2
109	109	2
83	83	1
84	88	2
120	120	6
110	127	3
36	36	7
76	78	1
26	29	2
76	79	2
98	99	3
37	38	4
12	12	7
11	79	1
105	107	1
105	105	3
122	122	1
97	129	2
73	89	1
24	24	1
3	3	2
112	113	2
33	36	1
79	81	1
19	24	1
27	28	2
110	110	2
132	133	3
9	78	1
18	18	1
25	26	2
82	91	2
5	21	3
9	21	2
117	125	5
82	83	2
81	90	2
134	135	2
6	7	2
92	93	1
91	114	1
94	95	2
96	96	2
128	129	3
12	14	1
4	35	4
8	8	2
80	82	2
13	13	1
118	121	2
79	80	2
137	138	1
95	96	2
131	132	1
113	113	1
104	104	2
3	4	1
102	102	1
76	77	1
31	33	1
99	100	1
23	28	1
130	131	1
13	14	1
75	120	1
108	113	1
80	80	1
95	98	1
9	9	1
10	12	1
132	132	1
26	33	1
