132	133	4
68	68	9
74	74	8
184	184	6
57	60	2
48	48	6
112	112	4
22	24	1
93	94	5
103	103	10
130	144	9
14	14	8
163	163	11
155	155	4
140	140	7
3	6	5
28	28	4
57	57	7
80	80	1
60	60	3
143	143	7
78	79	3
15	15	4
146	146	9
162	162	3
21	21	7
45	45	12
107	112	3
72	72	18
170	170	7
58	59	3
140	141	1
183	183	4
94	94	10
35	35	7
95	95	10
133	134	4
105	105	11
39	39	8
116	117	2
175	177	6
139	139	14
93	100	3
182	182	16
90	90	11
170	171	3
147	147	4
120	120	9
167	167	13
41	41	21
142	143	8
5	6	3
47	47	15
185	185	9
80	82	1
186	186	13
134	149	4
106	106	5
123	124	4
77	90	3
189	189	5
66	66	6
178	179	8
113	114	1
102	103	7
71	71	5
156	156	12
73	73	17
66	115	1
83	84	2
104	105	7
53	106	2
89	111	4
88	113	2
109	109	8
174	175	8
183	187	5
154	170	4
55	55	4
173	174	7
55	56	5
129	137	4
35	36	4
36	41	2
59	59	7
68	70	11
183	186	7
126	127	2
32	33	10
46	46	5
58	58	4
101	101	10
115	115	8
22	22	9
137	142	5
190	190	9
81	81	5
23	23	13
149	149	5
87	87	12
33	35	1
70	76	2
115	119	1
53	53	9
169	169	13
36	36	3
67	68	3
77	85	5
73	75	1
0	0	5
162	163	5
75	75	9
141	141	10
161	163	7
90	91	2
42	42	6
119	119	8
132	132	8
34	34	9
145	145	3
141	155	3
54	54	14
79	82	11
153	153	9
40	40	11
61	61	10
180	180	7
28	29	3
93	101	4
56	56	6
97	97	9
102	102	6
125	125	8
160	166	8
113	113	13
19	20	2
7	45	2
79	79	3
151	151	7
16	16	2
150	151	2
89	93	4
114	119	1
99	100	7
39	40	13
157	160	7
156	162	1
6	30	1
135	137	3
2	165	1
14	15	3
16	36	5
146	148	3
2	2	7
45	53	1
160	161	2
176	176	8
25	29	2
157	157	4
109	113	2
43	47	3
168	169	1
122	122	7
82	82	2
33	36	2
61	62	1
62	62	3
84	84	6
179	179	7
98	100	2
91	96	3
12	20	4
188	188	2
142	142	5
23	27	5
27	28	2
112	113	6
151	153	7
19	19	2
13	21	1
25	25	7
92	100	1
52	55	3
171	172	9
86	86	6
87	90	1
180	181	1
30	30	1
154	157	3
127	127	5
173	173	10
158	158	5
1	1	5
159	159	2
148	149	1
5	5	2
109	151	1
125	126	5
152	152	13
62	63	3
131	134	6
187	187	6
31	37	5
44	44	2
42	48	3
109	110	3
168	168	11
130	130	5
12	12	7
161	161	3
28	38	1
132	149	4
43	43	2
117	117	7
34	35	6
182	183	1
136	136	1
135	135	5
129	129	1
155	169	3
20	20	4
167	168	3
23	26	5
27	27	3
167	169	7
166	166	11
157	158	2
118	118	9
77	77	16
96	99	1
10	10	3
45	49	1
128	153	3
29	29	2
12	17	2
6	7	7
121	121	10
136	148	2
148	148	10
181	181	4
133	151	2
124	124	8
47	101	4
6	6	2
156	171	1
184	185	3
154	155	2
72	74	3
78	78	6
57	71	3
90	111	2
10	11	1
114	114	4
134	136	6
187	188	2
91	91	7
1	2	1
104	104	4
185	186	9
47	100	2
121	123	2
156	174	2
4	45	3
17	18	6
8	8	5
26	27	5
154	159	3
154	154	2
31	31	3
139	140	8
42	100	3
89	89	4
110	110	8
129	139	6
100	100	3
56	58	2
3	29	2
100	106	2
22	25	1
99	99	6
18	20	4
131	133	7
131	135	3
150	150	5
123	123	4
159	165	1
22	23	2
69	114	1
31	36	1
13	13	5
8	54	2
145	171	3
137	137	4
93	93	3
177	177	3
38	40	1
124	126	2
65	65	7
115	116	2
115	120	2
63	63	5
89	109	1
9	30	5
96	98	2
144	144	1
33	42	3
24	24	5
116	116	1
35	40	2
23	25	1
62	113	1
75	76	3
11	22	1
93	112	1
138	138	4
18	18	3
113	118	2
85	85	4
71	75	1
45	46	3
69	71	1
117	126	1
120	123	1
181	183	2
21	28	3
70	70	5
65	67	5
126	126	5
142	170	3
11	13	2
138	170	3
92	92	3
16	17	2
89	90	2
18	19	4
105	106	1
53	55	5
98	98	1
179	188	3
88	111	4
64	65	1
44	53	2
13	15	2
128	128	5
8	9	3
122	152	4
82	83	3
95	96	4
37	37	5
48	53	3
28	37	1
165	165	1
109	153	2
43	44	2
135	136	2
171	171	5
8	31	1
146	147	1
133	135	2
188	190	1
57	61	1
86	94	5
11	14	1
145	147	4
67	67	3
21	25	1
180	182	3
111	111	1
20	21	1
114	115	1
97	98	2
155	171	1
10	30	6
160	169	2
133	133	2
151	152	1
62	64	4
155	160	1
76	76	2
163	164	3
186	187	1
160	168	2
25	26	1
77	86	1
33	33	2
164	164	2
48	99	3
11	35	2
78	82	1
138	143	2
138	144	1
32	32	2
14	35	1
25	40	2
141	170	3
21	22	1
59	60	1
74	76	1
66	119	1
3	8	2
161	162	1
6	38	1
15	17	1
16	35	1
33	34	2
147	150	1
5	7	1
121	153	2
32	36	1
174	174	1
83	83	1
42	55	1
166	167	1
94	95	5
42	106	2
29	39	1
164	165	1
131	131	1
24	25	2
30	31	2
72	75	1
139	141	1
130	131	1
79	80	1
32	37	1
3	3	2
135	146	1
8	36	1
11	11	1
4	5	1
36	37	1
71	73	1
120	122	1
52	52	1
57	67	1
108	124	1
92	93	1
0	1	1
55	63	1
138	139	1
184	186	1
80	83	1
48	100	1
80	81	1
16	41	1
172	173	1
176	179	1
154	167	1
8	38	1
109	111	1
108	109	1
