67	67	17
10	10	2
111	111	13
102	102	6
124	124	9
123	123	10
95	95	12
132	146	2
117	117	17
96	96	11
109	119	1
76	76	13
150	150	6
22	22	6
41	41	8
121	121	12
68	68	11
56	56	8
82	82	2
43	43	15
44	44	9
135	135	21
40	40	9
72	73	4
42	45	2
100	108	2
13	13	7
48	48	13
23	23	4
134	134	5
65	135	2
20	21	8
81	126	3
130	130	1
7	22	4
41	49	2
114	114	11
148	149	3
38	40	2
92	92	3
83	106	2
12	12	6
80	122	1
63	63	9
11	11	14
77	77	9
146	147	3
116	116	5
46	46	15
33	35	2
130	131	12
145	146	1
113	117	1
95	97	3
28	28	4
47	48	4
106	106	11
55	55	8
39	39	7
65	65	5
126	127	3
107	108	6
71	80	2
100	103	3
85	85	9
119	119	10
103	103	5
120	120	6
100	120	5
45	46	8
53	53	4
131	133	3
80	81	5
137	138	1
114	115	4
70	70	2
26	34	1
40	41	4
17	17	4
38	38	10
97	98	1
30	41	1
129	129	12
104	138	3
128	128	7
136	136	4
141	144	6
83	83	8
5	5	3
69	69	9
138	139	4
112	112	11
100	100	15
115	115	5
132	132	12
49	49	4
85	95	2
21	21	4
139	139	11
28	29	5
103	119	2
6	6	7
11	13	3
125	128	2
84	84	10
9	9	10
72	72	5
122	122	5
69	70	5
30	30	10
140	140	6
65	67	7
11	16	4
20	20	3
81	81	2
104	104	5
4	4	4
118	118	21
147	147	7
153	153	4
94	94	12
26	148	2
49	50	3
48	53	1
84	86	3
131	134	4
78	79	3
23	24	2
138	138	11
35	36	3
75	75	6
113	113	10
99	99	1
48	49	5
3	3	10
131	131	14
83	101	3
107	107	4
96	100	3
41	45	1
29	29	8
93	93	5
27	27	9
47	47	9
6	8	3
3	11	1
98	98	6
109	122	2
66	141	4
141	142	1
2	2	2
125	127	1
6	26	3
80	80	8
4	8	2
149	150	8
7	7	1
32	32	7
140	141	3
51	51	5
112	114	3
85	86	3
64	75	1
54	54	1
64	64	7
25	26	4
138	143	2
73	73	3
96	97	6
87	87	8
148	148	7
46	49	1
18	19	2
93	94	1
138	140	2
146	146	12
71	72	2
2	3	2
10	11	3
121	147	1
99	100	4
4	5	2
25	53	1
43	44	7
44	46	2
141	141	4
128	129	2
17	18	3
132	147	3
110	144	1
146	149	1
3	7	3
101	101	4
110	116	3
42	43	4
95	98	5
108	109	1
151	151	2
11	12	4
132	133	4
70	75	2
108	108	3
18	24	3
139	145	3
104	106	1
30	32	3
98	99	4
8	9	2
19	19	7
68	69	1
48	50	1
109	109	10
95	116	1
76	77	1
50	50	5
33	33	2
8	8	4
71	71	4
152	153	1
86	86	2
145	145	9
128	149	2
54	147	1
119	120	2
36	37	3
29	30	3
66	67	3
18	18	5
23	54	1
94	98	3
79	79	4
66	66	3
78	78	7
14	15	3
102	128	1
126	126	2
27	28	2
124	125	2
97	97	3
68	74	1
110	110	5
76	82	1
110	118	2
137	142	1
24	25	3
133	133	2
57	58	1
5	78	2
35	35	1
112	113	4
94	100	2
95	96	1
23	26	1
10	16	3
99	108	1
23	29	3
140	148	2
122	128	1
120	121	3
137	137	9
74	74	4
49	53	1
110	147	1
62	65	2
63	64	4
64	65	1
47	49	4
14	51	2
142	151	1
37	37	1
15	43	1
81	87	1
34	35	1
113	114	5
31	129	1
127	127	1
76	80	2
149	149	4
8	10	2
80	128	2
56	58	1
110	111	2
31	31	1
62	62	8
34	34	2
144	146	3
51	54	1
94	95	4
74	75	2
43	55	1
63	65	2
113	115	1
12	14	1
54	55	4
64	67	1
52	53	2
128	148	1
41	42	4
6	11	2
25	32	1
131	132	2
28	30	1
115	117	1
154	154	2
6	30	1
126	128	2
82	83	2
22	56	1
77	79	1
39	40	2
102	109	1
147	151	2
45	45	3
19	20	2
28	130	2
15	16	3
25	25	3
4	25	3
152	152	1
105	121	1
80	136	1
98	108	2
106	107	4
119	151	3
135	136	1
122	123	2
122	147	4
109	151	1
62	77	2
78	82	1
139	140	4
31	32	1
84	85	2
120	122	2
109	120	2
103	106	2
144	145	1
53	56	1
71	114	1
129	130	2
62	63	1
8	36	1
41	43	1
133	150	1
77	78	2
38	39	2
36	42	1
115	116	1
43	125	2
30	130	1
111	112	2
120	126	1
36	36	4
90	132	2
111	113	1
16	16	2
26	27	1
79	80	1
14	55	1
68	71	1
14	14	1
75	79	2
44	45	1
73	74	1
31	34	1
24	24	2
56	57	2
103	122	1
82	139	1
22	23	1
6	7	3
112	116	1
23	25	1
136	137	1
150	151	1
108	112	1
87	144	1
139	149	2
20	22	1
99	122	1
147	148	1
49	51	1
15	23	2
15	15	2
85	93	2
42	44	1
13	39	1
74	85	1
87	88	1
14	38	1
7	25	1
