50	50	14
142	143	3
96	99	2
91	91	17
97	97	3
22	22	19
85	91	3
38	38	6
76	77	4
4	23	2
9	9	6
11	11	7
102	103	2
40	40	2
29	30	7
27	28	5
144	144	8
52	52	1
64	65	3
66	66	7
2	23	1
27	40	2
95	95	7
104	104	7
128	128	4
135	139	1
3	3	8
20	25	5
130	130	2
65	65	2
101	131	3
125	125	1
16	16	10
77	77	11
58	58	6
75	76	15
103	103	9
126	128	3
37	39	3
126	126	15
26	26	4
43	47	3
4	5	6
63	63	7
37	38	4
5	5	4
99	99	5
110	110	4
137	140	4
8	61	3
136	138	1
28	28	9
113	113	2
12	19	3
55	56	2
59	60	5
64	66	5
76	79	7
56	68	9
97	132	1
92	92	7
146	146	4
19	23	2
141	142	3
35	36	1
72	72	1
9	10	8
116	117	5
1	1	5
53	53	13
60	60	11
88	89	3
82	85	4
57	57	2
96	132	2
20	21	3
139	139	4
15	15	6
107	126	6
71	73	2
112	113	3
21	22	3
120	121	8
115	116	6
18	19	3
113	122	3
55	55	4
2	2	9
75	75	2
0	35	2
131	131	13
109	109	2
82	82	12
10	10	4
42	42	7
123	130	3
17	18	12
98	98	4
67	67	5
140	140	2
71	71	6
108	108	1
92	93	2
90	91	3
37	40	2
115	115	4
13	20	2
65	123	2
110	130	5
115	117	2
136	140	1
129	129	1
30	33	1
34	35	3
33	33	2
18	18	3
59	75	7
107	107	8
74	74	7
93	94	2
108	126	2
46	47	3
61	61	6
114	116	2
31	33	3
80	81	6
141	141	6
25	25	3
14	14	8
92	94	1
6	6	4
94	94	6
123	123	3
89	95	6
135	135	5
76	109	2
78	78	7
80	80	9
111	125	2
64	113	1
82	83	2
70	70	7
80	82	3
104	136	2
132	138	3
101	101	3
87	87	4
90	90	6
99	100	1
22	131	4
96	97	2
103	141	3
140	141	1
43	43	4
37	37	5
87	88	4
118	118	2
27	27	4
134	134	6
101	102	5
50	51	4
22	26	2
102	128	2
114	114	9
2	31	2
108	109	3
23	24	2
62	69	1
75	131	4
93	93	6
21	21	9
41	41	2
53	80	4
132	132	6
104	105	1
97	98	2
130	131	1
79	79	3
69	70	2
51	51	1
145	145	4
38	39	2
116	124	1
62	77	1
112	112	4
111	111	6
108	127	2
117	117	4
77	106	1
8	9	3
131	132	1
103	108	1
102	102	3
76	76	3
75	141	4
105	106	2
88	91	1
85	85	7
38	42	2
13	13	1
143	143	3
97	131	2
113	123	3
100	100	1
8	8	6
29	29	3
13	14	1
96	96	6
2	3	1
108	122	2
23	23	2
63	66	1
124	124	4
35	35	1
4	6	3
91	127	1
143	144	1
134	137	2
17	17	4
106	107	4
133	133	2
116	116	3
73	129	2
83	84	2
122	123	1
47	47	2
137	138	1
119	119	3
134	139	1
54	54	4
125	127	1
69	69	1
104	106	2
48	67	1
56	77	1
20	20	1
49	55	1
17	19	1
33	35	1
123	126	1
98	99	4
73	74	1
95	96	1
55	79	2
25	27	2
83	83	3
105	105	1
120	120	6
40	136	1
78	114	1
131	135	1
81	81	1
3	5	1
64	70	1
65	68	1
119	120	1
55	57	1
113	114	1
42	68	1
63	72	1
18	53	1
108	131	1
32	32	1
73	73	2
137	137	1
59	140	1
109	110	1
58	59	2
1	28	1
5	61	1
56	57	1
102	127	1
92	119	1
28	29	1
49	49	1
12	40	1
20	115	1
2	27	1
