108	108	9
57	95	2
128	128	15
71	71	9
102	102	10
9	9	4
59	94	2
41	43	1
55	55	8
25	25	5
78	84	1
66	68	1
83	84	5
23	23	7
22	24	3
101	101	10
78	79	10
11	12	8
6	6	4
125	125	19
104	104	12
113	113	8
2	18	5
32	32	10
2	2	16
12	12	7
20	21	8
12	43	2
28	28	10
103	103	7
64	65	2
100	100	5
85	85	10
88	88	4
58	87	9
69	69	6
95	96	2
133	133	7
72	72	12
11	11	11
56	56	5
27	29	2
76	76	12
61	62	4
73	73	16
57	57	10
12	14	1
75	75	17
15	36	1
117	117	26
19	19	7
113	118	5
12	15	1
77	77	13
121	125	3
66	66	13
65	65	12
30	30	8
72	75	2
79	79	10
114	116	3
134	134	4
107	111	1
121	122	9
93	93	24
125	128	1
36	36	13
8	8	6
94	131	1
104	130	4
63	63	11
3	3	12
131	131	7
87	87	7
78	78	10
71	76	3
46	46	6
94	129	2
7	7	11
26	26	5
61	61	13
117	118	6
98	99	2
116	116	14
50	50	3
103	104	2
106	107	6
13	16	4
5	6	4
115	115	6
96	96	1
118	118	6
75	76	14
37	37	6
122	122	12
80	81	2
60	60	9
5	5	11
105	114	4
86	86	21
96	97	7
106	128	5
107	122	7
24	24	2
12	44	1
119	129	1
107	107	14
15	15	4
27	30	1
42	43	6
4	4	10
51	51	3
47	77	1
105	130	3
45	45	13
13	28	2
31	57	3
33	36	5
113	114	5
118	119	13
33	33	11
34	34	7
123	124	3
81	81	3
29	29	11
114	133	1
42	42	2
127	127	4
19	27	1
59	59	8
54	55	2
46	47	2
82	82	9
47	47	16
121	121	7
110	110	13
109	109	12
59	63	1
17	17	10
68	68	9
126	126	5
57	86	1
21	30	5
14	14	7
83	128	2
2	17	2
35	35	6
107	109	4
31	31	8
16	16	4
58	58	2
111	111	11
49	55	4
116	117	2
125	126	3
62	62	9
70	70	2
109	110	7
11	20	2
18	20	2
7	31	3
35	38	1
80	80	6
95	95	7
30	31	1
127	131	1
132	132	6
81	82	2
67	67	2
15	83	3
95	99	2
31	83	1
94	128	2
126	127	1
22	22	3
112	134	3
120	121	11
96	99	3
49	49	2
90	92	3
62	63	4
57	58	2
114	114	2
57	59	3
65	71	3
111	116	2
60	70	4
44	45	2
59	68	2
4	6	3
72	73	3
11	28	3
72	76	2
19	20	1
27	27	5
122	125	4
64	64	9
8	32	2
9	30	2
65	66	2
64	75	2
84	120	2
43	82	6
17	18	5
68	69	6
7	30	2
112	112	10
117	121	5
59	125	2
84	84	4
98	98	8
94	95	8
10	30	1
100	101	5
13	13	9
74	75	3
31	43	1
69	70	3
83	83	5
11	43	2
17	30	1
10	11	4
79	80	2
30	91	1
92	115	1
48	83	1
34	35	2
102	124	2
99	99	1
33	34	5
63	64	1
107	133	2
47	49	3
77	78	1
21	25	4
89	90	1
120	120	4
27	34	1
113	134	1
100	102	5
90	90	7
105	106	2
97	128	1
66	69	1
91	91	5
123	123	5
0	0	7
59	93	2
105	123	5
47	48	9
114	132	2
124	124	8
20	20	3
59	134	1
131	133	1
130	130	3
87	88	1
1	18	1
21	21	6
15	16	1
129	129	4
105	105	4
26	28	3
27	28	1
7	8	2
113	133	1
115	133	1
22	27	6
116	123	1
11	16	1
99	130	1
12	19	1
117	122	2
49	93	1
97	127	1
60	95	1
86	92	1
119	120	3
73	74	2
109	111	3
67	68	1
70	73	2
64	66	1
101	102	1
108	109	1
20	28	2
83	121	1
94	94	4
68	118	1
18	18	2
20	26	1
6	32	1
43	43	1
115	132	2
1	2	2
61	75	1
29	30	1
1	1	2
18	19	2
44	44	9
30	32	2
36	56	1
111	112	2
9	10	1
58	82	4
80	128	3
40	41	1
16	17	1
76	77	4
38	39	1
13	35	1
122	123	2
10	10	3
58	88	1
97	125	4
55	56	3
56	86	3
85	86	2
92	92	6
59	72	3
39	39	3
61	67	1
74	74	4
119	119	3
47	78	1
35	36	1
84	85	5
96	130	2
79	81	2
14	40	1
17	61	3
110	112	2
23	24	3
128	130	1
59	92	4
114	134	1
106	106	3
89	89	1
107	108	1
75	124	4
77	95	1
10	25	1
113	131	2
57	79	1
93	94	3
109	130	1
12	34	2
107	129	3
24	25	1
21	22	2
97	97	1
47	71	1
114	115	1
23	26	1
48	48	3
79	87	1
132	134	1
38	38	1
49	91	1
30	85	1
103	129	1
123	125	2
50	129	1
102	103	1
33	129	1
11	19	2
25	26	1
47	93	1
97	98	1
56	57	1
41	41	1
8	33	1
103	130	1
43	44	1
111	118	1
106	133	1
12	18	2
96	98	1
31	48	1
63	74	1
59	60	1
61	68	1
45	46	1
6	7	1
113	130	1
12	23	1
