26	62	3
62	65	2
19	57	3
46	47	6
60	60	12
56	57	8
30	31	7
4	18	3
64	65	1
19	19	18
79	79	13
32	56	1
80	80	28
33	33	14
76	76	21
13	13	25
40	40	11
31	55	3
33	72	3
47	49	2
26	33	2
53	53	22
62	62	13
74	74	21
8	11	4
29	29	21
15	16	2
32	50	2
42	42	22
3	3	12
46	46	16
39	39	6
17	43	1
27	61	7
78	79	11
4	36	1
5	5	6
77	78	2
1	1	17
6	15	1
8	8	11
75	75	17
64	64	9
38	38	24
4	4	24
47	47	20
48	49	3
49	49	17
10	12	8
35	56	8
59	59	18
73	73	15
7	19	1
7	7	9
77	77	17
43	43	6
65	65	12
40	41	8
37	37	11
21	21	11
56	56	18
71	72	4
48	48	11
8	10	2
1	2	1
28	28	13
69	69	16
52	63	4
2	2	10
47	55	3
57	57	7
27	27	22
16	16	13
52	52	19
68	68	14
67	67	7
28	29	5
0	74	8
25	25	7
2	3	1
39	56	3
5	6	3
42	43	2
51	66	2
30	30	11
76	80	1
21	47	3
70	70	15
57	58	16
9	9	8
11	11	13
67	70	1
15	15	10
45	45	12
75	76	2
55	55	10
37	39	2
26	53	4
62	64	1
61	61	15
50	50	11
66	67	9
10	68	5
78	78	27
66	66	16
26	63	4
38	74	6
36	36	12
21	73	1
6	16	1
26	26	9
1	79	4
50	51	4
42	56	2
46	48	5
35	35	15
51	51	6
12	12	3
63	63	19
57	59	4
71	71	5
53	64	6
55	65	4
21	69	5
41	41	10
15	51	2
54	64	5
51	52	5
1	42	3
17	36	1
51	63	6
34	34	3
56	62	2
68	77	3
3	60	4
17	17	14
80	81	2
6	55	1
40	73	1
72	73	3
28	37	1
79	81	5
29	30	2
62	63	3
60	61	2
9	10	6
49	50	1
12	13	1
26	61	5
13	14	8
59	61	3
14	14	14
32	32	9
39	40	4
49	52	3
8	26	6
20	20	4
72	72	7
56	65	1
26	32	2
27	59	3
9	12	2
20	21	3
28	30	2
19	25	1
32	33	1
13	15	1
17	52	2
32	34	1
6	6	7
58	58	10
13	71	3
37	57	3
70	71	4
15	71	1
3	6	3
0	0	16
11	12	6
3	5	9
76	77	4
8	21	1
15	21	1
28	59	3
10	13	2
5	56	1
62	72	1
21	62	1
58	59	2
11	32	2
29	58	4
63	64	1
13	50	1
14	66	1
39	41	2
50	71	3
26	57	3
21	66	1
41	73	2
59	60	4
67	68	3
60	66	1
6	30	1
38	39	1
35	57	2
10	11	5
31	48	1
54	54	7
47	48	3
12	69	2
29	80	1
18	18	2
14	22	1
67	76	4
13	68	3
26	64	1
28	36	1
38	41	2
34	35	2
53	70	1
17	65	3
18	36	1
41	42	2
4	17	2
65	71	1
32	72	2
10	14	2
36	56	1
65	73	1
48	62	1
17	49	1
19	73	2
32	48	3
38	75	1
30	38	1
9	69	1
18	41	1
75	81	2
16	73	1
44	44	1
7	8	1
79	80	1
1	45	3
55	66	1
50	54	1
63	66	1
25	53	1
14	15	1
54	65	1
25	54	1
65	66	2
21	22	1
32	54	1
5	41	1
8	33	2
42	73	1
13	49	1
1	77	1
9	21	1
12	68	1
31	31	1
38	45	1
10	10	1
