104	104	6
122	122	6
24	24	8
126	126	10
73	73	7
3	4	4
78	78	6
23	23	2
75	115	2
72	73	6
102	102	12
21	21	12
128	128	12
36	36	7
20	20	5
100	101	5
75	75	8
10	11	9
105	106	2
121	121	6
3	3	6
2	24	1
91	122	3
115	119	2
103	103	6
120	121	5
88	90	6
125	126	3
120	122	4
1	2	1
126	127	1
100	100	3
25	26	3
79	79	5
131	132	1
73	74	8
98	98	9
129	129	5
101	101	11
7	9	6
13	13	6
130	130	4
77	77	3
31	106	2
38	38	4
25	25	3
30	77	3
119	119	3
83	84	6
31	109	3
31	32	6
27	27	6
92	92	12
22	22	10
9	9	8
133	133	3
139	139	1
71	73	3
110	111	3
14	15	2
110	110	5
18	19	3
105	105	6
9	128	3
83	83	6
36	37	3
27	32	3
84	84	2
106	106	9
129	130	3
107	107	7
111	111	10
135	136	3
140	140	7
87	88	4
93	94	3
116	119	2
19	19	3
113	113	8
127	128	6
4	6	1
79	80	7
76	76	3
87	87	15
94	120	2
80	80	6
108	108	9
135	135	13
94	94	6
2	2	2
131	131	6
76	77	2
72	99	1
99	99	1
112	113	4
118	119	3
15	17	1
7	7	5
87	89	2
73	76	2
88	88	4
114	114	4
83	85	7
73	107	4
85	85	10
82	83	6
28	28	10
116	116	9
72	72	3
24	25	5
94	116	2
2	80	2
34	34	2
32	32	7
75	76	2
96	97	8
115	116	2
112	112	5
117	119	6
106	111	3
75	84	4
22	23	2
93	93	6
6	6	5
123	123	8
21	22	4
3	5	2
117	118	4
17	102	2
124	125	7
76	85	4
74	74	6
104	106	3
91	91	5
138	139	6
15	15	6
0	1	2
127	127	4
17	17	10
16	17	1
137	137	9
114	115	1
97	97	3
20	22	2
33	33	5
128	129	2
108	110	2
90	91	1
1	24	3
1	1	4
138	138	3
81	81	2
92	96	1
29	32	3
92	103	2
2	4	1
72	114	5
37	37	8
138	140	1
0	0	4
103	107	2
35	37	1
34	38	3
29	29	4
26	26	7
109	109	11
112	114	2
118	118	1
26	27	2
30	31	3
85	86	3
124	124	5
8	8	6
74	75	2
20	23	1
78	113	1
95	95	6
10	126	3
104	105	2
117	120	2
10	10	3
89	89	4
86	86	1
90	90	4
1	28	2
10	108	1
35	35	5
72	132	1
130	132	3
11	11	3
35	96	1
84	85	1
120	120	5
4	4	3
92	95	1
119	120	1
14	14	4
130	131	2
26	108	1
7	8	3
134	135	3
12	14	1
108	109	2
31	31	1
73	111	2
28	30	2
93	122	1
132	132	4
3	26	1
74	76	2
86	125	2
9	10	1
13	14	1
90	93	3
3	38	1
33	107	1
23	24	2
96	101	2
89	90	1
79	84	1
121	123	1
90	123	1
5	5	2
81	82	1
32	73	1
16	16	1
10	12	2
80	84	1
125	125	2
101	126	1
96	96	4
12	19	1
116	121	2
31	107	1
117	117	2
71	71	2
27	29	1
106	107	1
12	12	1
134	134	2
107	108	1
72	115	1
136	140	1
27	74	1
137	138	1
27	28	1
77	83	1
97	98	1
123	124	1
0	33	1
35	36	1
