76	77	10
71	71	17
38	38	12
119	119	10
101	101	12
130	130	6
1	1	5
140	140	16
115	115	6
41	42	3
136	136	11
100	100	8
123	123	11
70	74	3
32	32	15
36	36	12
110	110	10
107	107	14
26	26	6
108	108	19
30	32	2
80	141	1
69	99	1
34	34	10
70	71	3
28	28	13
83	83	13
68	68	8
132	132	8
129	129	8
92	102	1
87	88	17
59	94	3
50	50	16
83	84	6
2	24	6
126	126	15
55	55	6
24	27	3
128	132	2
25	25	15
142	142	16
135	138	6
18	19	9
29	29	4
65	126	1
11	11	20
22	22	12
5	5	6
130	131	5
20	20	31
114	116	4
51	51	9
87	87	23
121	135	1
59	100	6
136	143	1
144	144	2
106	106	15
30	30	5
54	54	7
92	98	3
131	131	9
134	136	9
23	27	1
1	47	7
18	18	7
88	90	2
53	53	21
31	31	11
134	134	9
140	141	9
56	127	1
102	102	13
119	120	9
90	90	11
89	89	21
125	125	7
114	114	15
93	104	2
75	75	20
120	127	2
107	137	2
0	0	1
90	93	1
0	70	1
121	121	4
59	95	5
84	84	6
53	84	4
91	91	16
27	28	4
1	46	1
51	52	1
4	5	3
137	137	5
122	130	6
8	8	14
14	14	7
121	122	3
76	82	2
105	105	11
72	73	8
1	21	3
67	87	5
33	39	1
118	118	10
17	18	2
82	82	12
109	109	15
123	124	4
115	116	6
117	117	11
120	121	5
95	95	5
22	23	7
72	110	1
60	60	12
111	112	5
145	145	11
78	79	3
47	47	9
16	16	19
25	26	7
116	135	2
15	16	5
29	37	6
9	9	4
133	134	4
60	98	2
15	26	2
76	76	16
77	77	8
55	56	16
23	23	13
39	39	7
63	63	10
99	99	6
37	37	14
62	100	3
119	121	4
141	141	4
79	79	5
24	24	17
133	133	13
87	90	1
108	109	3
74	74	10
98	99	6
61	62	4
93	93	4
98	98	5
46	46	4
57	57	13
69	69	5
124	124	18
118	119	3
142	143	7
128	128	8
78	78	2
37	145	1
114	115	1
73	74	5
3	35	2
145	146	6
124	125	2
120	126	3
94	94	4
87	89	4
41	95	1
66	66	10
6	88	2
4	4	6
95	96	3
49	49	11
111	111	8
88	88	9
40	94	4
56	56	5
27	27	12
116	116	8
17	89	1
41	93	2
96	96	16
83	99	3
103	103	14
15	25	2
96	98	3
124	126	3
62	62	4
2	2	6
68	75	2
21	21	11
97	97	15
76	137	2
1	27	2
31	32	7
0	1	3
6	43	1
107	108	5
0	35	4
143	143	5
0	2	2
33	34	4
40	41	2
4	13	1
41	41	12
9	10	2
54	97	1
141	144	2
129	130	6
56	130	1
16	21	1
58	59	4
72	72	6
73	109	1
113	118	3
88	91	3
29	30	6
21	75	6
112	116	4
56	61	2
135	135	11
67	67	10
21	22	2
80	80	10
128	129	4
0	9	4
12	12	5
17	17	9
125	132	1
137	139	13
112	113	5
140	143	2
38	39	1
62	63	5
19	19	7
40	40	15
97	137	1
79	116	5
136	137	7
67	85	2
139	140	6
32	140	4
107	109	1
81	81	9
102	103	3
69	126	1
116	118	3
65	65	11
1	20	1
134	139	5
120	120	9
72	100	4
42	42	12
10	10	16
22	26	1
13	13	2
65	66	7
22	101	2
115	117	4
110	136	1
5	13	3
14	57	3
123	125	1
134	135	5
22	29	2
54	55	7
69	70	5
33	33	7
70	70	7
72	122	3
77	125	1
3	3	11
52	52	8
73	73	5
75	76	2
64	64	3
59	130	3
116	117	5
14	15	6
85	85	10
110	121	3
32	33	6
141	142	1
35	42	5
78	125	2
23	95	1
35	36	5
115	118	2
97	98	2
71	101	4
2	3	5
122	122	8
127	127	14
49	51	1
10	11	5
100	101	4
16	91	1
104	105	2
93	118	2
33	37	1
110	111	2
71	72	6
61	61	3
67	68	2
125	141	1
128	131	1
24	25	6
59	138	6
58	58	11
52	58	1
1	31	1
20	35	2
75	89	1
113	126	3
105	109	2
30	31	6
135	136	4
106	107	1
3	13	1
113	113	2
88	96	1
24	63	2
113	114	1
2	26	2
51	93	1
139	139	4
11	54	1
57	59	4
59	59	1
122	123	4
123	129	1
104	109	2
60	61	1
84	85	1
138	138	4
29	39	1
129	131	1
88	97	3
32	77	2
61	66	3
79	112	3
34	41	2
37	39	4
96	97	3
55	122	2
93	94	2
0	34	2
42	95	2
61	68	1
71	102	2
104	104	9
38	42	3
92	92	2
26	59	1
95	102	1
36	37	4
89	90	1
34	35	3
68	71	2
112	118	1
49	87	2
25	102	3
111	113	2
99	100	2
56	129	1
91	94	4
15	19	1
129	135	5
77	145	2
60	63	1
15	15	4
6	6	5
56	57	4
137	138	1
90	94	3
20	21	2
83	88	1
131	133	1
132	133	1
6	18	1
72	104	2
80	81	2
63	64	2
8	15	1
109	110	2
35	35	1
50	52	3
36	96	1
33	36	3
123	127	1
14	16	1
27	41	3
43	43	1
124	139	1
57	60	4
43	96	1
131	132	1
14	18	1
42	68	1
3	24	3
83	86	3
117	118	2
64	66	1
39	50	1
59	122	1
77	135	1
59	60	4
55	57	1
59	68	2
82	83	4
62	101	2
80	84	2
70	72	2
129	141	1
3	21	2
26	27	2
25	27	1
3	4	1
8	144	2
85	86	4
89	99	1
15	17	2
48	49	2
80	111	1
53	54	2
0	12	1
47	48	2
25	30	1
5	6	2
86	86	5
34	51	1
71	103	1
124	141	1
48	48	3
129	140	1
14	55	1
4	9	1
139	143	1
112	112	3
49	85	1
104	110	1
4	25	3
88	89	1
121	127	1
50	90	1
103	104	2
88	132	1
59	98	2
136	138	1
126	129	1
115	124	2
50	51	1
50	55	1
35	49	3
6	61	1
14	95	3
53	55	1
35	54	2
99	101	2
6	71	1
16	87	1
65	135	1
108	121	1
66	67	2
2	16	3
27	29	1
37	40	1
144	146	1
127	128	2
82	90	1
104	119	1
103	133	1
87	92	1
70	124	1
92	93	3
30	40	1
122	132	1
105	110	1
14	19	1
89	91	1
16	17	1
77	79	1
56	116	1
99	118	1
70	100	2
91	114	1
68	69	1
19	26	2
122	128	1
116	120	1
90	91	1
57	58	1
135	139	1
