126	127	6
116	116	19
135	135	5
186	186	14
38	38	17
90	90	23
128	128	9
81	81	12
33	67	1
7	85	2
54	63	2
68	69	1
123	123	29
124	124	5
0	0	10
30	30	8
114	114	16
28	42	4
84	91	1
185	185	4
87	87	16
122	122	6
180	181	11
98	98	15
28	83	6
124	125	6
117	118	2
172	172	9
173	173	13
154	154	21
142	142	23
77	77	13
139	139	19
152	152	13
84	84	21
86	87	11
17	24	2
164	165	15
99	174	6
9	10	1
16	75	2
45	45	7
10	12	2
169	173	3
53	53	15
99	99	18
71	71	8
184	185	19
112	115	4
148	148	6
40	40	18
31	31	13
187	188	3
119	119	11
46	46	10
18	18	8
75	78	7
42	42	19
120	122	5
90	118	9
157	178	1
67	150	4
52	73	2
134	134	12
36	37	2
181	181	14
145	169	3
170	170	22
56	56	18
53	71	1
146	146	20
101	102	2
16	16	7
161	161	8
141	142	5
20	20	13
37	67	7
103	103	15
75	75	7
157	157	14
10	106	7
55	56	5
140	140	19
93	94	3
54	54	14
133	133	5
102	103	5
79	80	3
120	120	13
160	160	9
77	83	7
99	171	3
163	163	5
141	152	3
110	110	23
76	76	18
95	96	2
81	82	2
25	25	9
42	45	1
89	89	16
48	49	7
99	181	1
174	181	2
57	57	10
32	46	6
160	161	6
4	4	19
112	112	27
123	139	2
85	85	8
59	60	4
16	42	2
155	155	9
28	28	18
126	126	9
33	36	2
182	182	23
84	124	6
6	24	4
158	158	12
62	62	11
17	18	6
167	167	9
58	58	12
31	33	3
106	106	11
52	90	5
178	178	15
101	101	26
8	165	2
76	77	4
115	115	14
88	141	3
15	15	12
94	96	2
123	128	3
4	7	1
165	165	11
71	164	2
108	108	7
104	104	10
72	72	7
150	150	11
117	117	7
148	149	5
137	137	19
125	125	10
36	36	10
46	47	7
151	151	18
89	90	2
79	81	5
83	83	17
74	74	8
121	121	9
13	47	2
141	141	20
181	183	3
47	47	18
122	129	2
103	133	2
16	44	5
30	31	3
152	153	3
82	82	12
38	39	4
33	33	25
157	158	8
8	90	4
86	86	5
123	126	7
158	159	5
109	110	3
118	118	10
122	126	2
87	138	1
91	92	13
21	21	4
27	79	5
54	56	2
184	184	15
156	156	19
65	65	7
135	136	7
94	94	6
60	60	11
61	63	6
63	63	3
2	3	6
56	59	1
17	17	12
107	107	10
10	11	4
139	165	1
47	48	4
43	43	6
130	131	5
100	181	3
112	120	1
87	88	9
19	70	2
169	170	3
176	176	8
40	41	9
39	40	2
52	53	4
43	44	4
127	128	11
68	71	4
102	156	5
6	6	17
46	106	1
97	140	5
48	48	19
13	31	2
16	17	3
68	68	5
39	39	29
171	171	11
9	49	1
101	103	5
36	75	5
142	169	1
24	25	3
153	153	11
23	23	3
176	177	2
84	89	3
11	11	8
67	95	7
64	72	1
35	36	4
166	166	11
114	115	4
78	78	9
187	187	18
178	180	1
169	169	19
162	162	6
55	55	6
164	164	11
22	23	1
181	182	2
129	129	13
113	113	26
166	169	3
3	3	8
54	55	6
91	122	5
93	93	6
125	128	4
64	65	7
141	169	4
12	13	7
79	79	3
110	111	6
11	12	9
31	45	2
24	24	12
13	13	26
102	123	2
127	127	11
13	40	2
104	105	3
138	138	5
153	178	3
88	89	6
85	86	2
148	171	6
119	120	4
111	112	5
117	156	2
2	2	6
171	172	2
175	175	4
9	9	4
26	78	1
149	149	7
88	88	7
125	126	3
159	159	2
7	7	13
177	179	3
27	27	14
74	78	3
141	153	2
61	61	14
30	62	4
91	91	9
53	55	2
183	184	4
115	116	4
138	139	7
22	22	13
123	136	2
74	81	1
154	155	5
113	114	5
143	146	1
111	113	3
166	167	5
83	84	7
123	129	6
48	72	3
29	32	6
64	66	5
92	92	1
145	147	4
151	175	3
91	95	6
48	165	1
67	68	2
41	41	9
73	82	6
180	180	11
5	86	4
100	100	8
173	174	5
35	37	2
134	135	1
109	109	19
10	10	14
183	183	11
188	188	7
8	139	1
69	69	3
54	73	2
143	143	1
5	6	2
87	144	6
18	19	6
3	5	1
34	34	7
107	108	9
28	29	6
71	72	2
20	24	2
149	150	1
66	66	4
141	144	2
84	86	3
119	128	3
97	97	7
99	115	2
14	31	1
59	59	7
102	102	9
119	181	1
139	140	4
61	66	3
116	189	1
61	62	4
178	179	3
118	155	1
76	83	1
14	14	4
26	26	10
27	42	1
101	115	6
27	78	2
8	8	5
174	174	10
85	99	2
144	170	2
108	109	8
7	88	2
137	138	4
179	180	1
84	85	9
70	163	1
59	61	2
84	118	3
64	64	9
147	147	8
159	160	4
132	132	8
91	98	2
175	176	1
174	177	2
19	21	1
153	185	2
75	76	4
145	145	5
154	188	3
55	57	1
78	81	2
1	1	9
97	98	5
16	41	1
67	67	4
177	177	6
95	95	7
101	104	1
143	144	1
136	139	1
57	58	2
171	173	4
126	129	1
142	143	2
14	15	4
69	70	3
101	114	3
19	20	1
31	34	2
73	101	4
41	42	10
58	59	3
154	185	1
19	48	1
128	129	6
40	83	2
89	139	1
91	120	2
56	57	3
99	100	1
80	80	4
4	6	1
102	133	3
12	12	3
6	86	1
100	115	1
34	36	2
107	112	1
189	190	3
162	163	3
5	5	3
147	148	1
150	151	4
127	137	2
172	173	1
173	175	3
174	182	1
173	183	2
139	152	1
110	113	1
130	136	2
190	190	7
104	106	1
146	147	4
78	79	9
131	131	2
37	37	16
32	32	3
8	84	1
62	152	1
67	149	1
130	132	2
99	173	2
127	132	5
63	64	2
31	32	3
72	73	1
100	120	1
168	168	2
30	45	2
134	136	1
44	44	1
105	105	5
73	73	3
136	137	5
62	63	3
39	42	2
20	137	1
96	143	3
74	123	1
153	180	1
92	93	1
108	130	3
30	67	1
106	113	1
135	137	2
1	2	2
5	7	1
124	139	2
169	171	1
174	175	5
85	89	1
100	180	1
88	140	1
21	24	1
108	112	2
111	111	2
166	168	2
80	81	1
95	142	1
20	165	3
105	106	1
140	154	2
92	95	1
85	87	2
182	183	2
27	82	2
137	165	1
86	140	2
92	137	2
4	5	3
62	64	1
123	132	2
154	180	1
55	132	1
8	40	1
20	21	3
17	23	1
83	126	1
132	133	4
29	29	3
117	120	2
15	30	2
10	14	2
52	75	1
189	189	4
11	78	2
112	113	2
31	43	1
86	171	1
163	164	2
23	27	4
18	78	1
44	45	1
123	124	1
87	142	2
90	91	1
55	60	1
143	145	2
97	172	2
72	74	1
38	40	2
121	122	1
6	53	2
62	95	1
153	154	3
156	161	1
11	81	1
103	104	2
144	173	1
86	88	3
8	15	1
144	149	1
54	133	2
57	111	3
96	96	2
102	159	1
161	164	1
102	125	2
144	148	2
126	131	1
84	128	2
34	35	1
155	178	1
160	164	1
52	76	1
96	97	1
63	65	2
94	95	1
35	76	2
68	94	1
48	71	1
20	47	1
152	177	1
56	58	1
87	93	1
61	94	2
156	157	2
99	119	1
161	162	1
140	141	2
119	157	1
19	19	1
84	126	1
100	113	1
152	169	1
146	148	2
70	70	1
169	184	1
154	181	1
58	62	1
27	37	1
72	81	1
85	88	1
101	120	1
168	172	1
90	122	1
82	83	1
83	85	1
95	152	1
155	156	2
16	78	1
124	138	1
5	8	1
153	177	1
