65	66	7
128	129	3
125	125	2
74	74	5
99	99	4
79	80	1
121	121	3
96	101	1
139	139	3
120	120	6
106	106	7
5	22	5
39	40	3
137	137	3
124	124	6
152	152	5
68	68	2
102	105	2
94	94	6
44	44	6
100	100	6
75	75	8
161	161	5
85	85	2
171	171	4
175	175	5
177	177	9
95	95	9
122	154	2
111	111	2
87	87	6
107	108	1
104	105	2
42	43	2
103	103	5
53	54	1
2	2	3
111	148	1
97	124	5
56	56	4
128	128	4
30	30	4
26	27	2
150	150	2
24	25	5
11	12	1
66	67	3
149	149	4
38	38	6
16	16	2
155	155	2
92	92	7
162	162	3
126	126	6
51	51	5
6	7	1
84	86	7
15	15	7
146	146	4
58	58	3
85	86	4
54	56	1
163	163	2
61	131	2
59	59	4
135	136	2
180	180	5
170	170	1
168	168	4
11	11	4
140	140	12
151	151	3
83	111	4
17	19	2
100	101	8
122	122	5
124	125	3
61	61	2
78	78	6
54	54	1
14	14	3
26	26	3
179	179	1
132	132	2
66	66	3
89	116	1
154	154	3
53	53	6
121	153	2
90	90	3
120	156	4
164	164	7
91	91	1
64	64	3
73	74	1
89	101	3
39	39	6
127	127	8
155	156	4
150	178	1
77	89	1
119	155	2
37	37	4
85	113	5
62	62	1
12	13	1
167	169	1
38	42	2
89	90	1
120	121	4
174	174	2
176	176	1
135	137	1
81	82	4
167	170	4
178	178	1
96	98	2
31	31	3
88	89	1
37	45	3
74	76	7
105	105	4
123	125	2
95	126	2
168	173	3
61	127	3
140	143	1
27	27	2
61	64	3
71	71	5
4	4	2
36	36	3
165	166	2
172	172	4
111	160	4
89	89	1
159	159	4
169	170	1
88	88	3
145	145	4
133	133	2
29	29	1
129	129	2
8	12	2
32	32	2
75	76	2
115	116	2
156	156	3
55	55	2
117	125	3
43	43	5
117	117	1
13	14	4
151	164	3
121	122	5
132	133	2
88	104	2
144	144	1
113	162	4
95	96	1
59	60	1
50	50	4
29	30	1
147	147	3
97	97	3
98	98	1
134	137	3
141	142	1
67	67	1
135	135	1
20	21	3
115	151	1
9	23	1
141	143	1
61	132	4
63	63	2
80	122	2
158	158	2
16	17	3
80	150	1
138	138	2
134	134	2
91	92	2
148	148	1
82	82	3
62	64	1
118	118	10
141	141	2
79	79	2
45	45	1
149	171	1
72	72	2
116	116	3
24	24	2
119	119	1
8	18	1
158	159	1
66	95	1
68	72	2
9	9	1
78	179	1
2	3	2
84	84	2
107	147	1
167	167	2
101	102	3
152	154	1
82	84	1
15	16	2
160	170	1
118	124	2
23	23	3
5	5	1
151	163	1
98	124	1
173	173	3
22	22	1
146	147	1
130	132	1
30	31	2
21	23	1
40	40	4
10	11	1
103	145	1
112	113	2
131	132	2
81	81	2
123	123	4
73	73	4
177	178	1
83	84	2
158	166	1
10	23	1
32	33	3
91	94	5
28	28	2
98	116	1
19	19	1
78	79	1
25	25	2
103	139	1
143	143	1
66	134	3
109	109	1
65	65	1
164	165	1
107	148	1
140	144	1
18	18	1
60	60	1
33	33	2
34	34	1
88	98	1
18	19	1
82	83	1
83	86	1
66	92	1
16	19	1
158	165	1
10	44	1
78	89	1
