4	5	4
113	113	4
71	78	1
60	123	1
44	44	1
173	175	1
111	112	2
42	42	4
8	23	4
151	152	2
36	130	3
172	172	3
144	144	4
163	163	1
118	118	8
155	156	1
42	43	5
79	79	3
62	63	4
146	147	2
111	111	2
36	129	4
100	100	6
56	56	1
46	138	1
161	162	2
94	95	4
66	69	3
152	153	4
173	174	2
33	33	8
24	25	3
192	193	1
85	85	2
119	120	6
77	78	2
143	143	8
152	154	1
120	132	3
96	97	2
18	18	4
76	76	2
122	122	2
71	71	3
25	25	3
120	120	1
68	68	5
179	179	2
53	53	3
188	189	3
49	49	3
16	16	5
105	105	2
151	151	1
109	178	2
15	15	3
139	140	1
67	76	3
187	187	6
195	197	2
190	191	1
73	75	2
16	19	3
64	65	4
37	59	2
129	129	2
164	164	3
185	185	3
143	144	2
26	44	1
26	26	1
186	187	2
107	108	1
82	82	1
141	142	3
145	145	2
57	114	2
136	136	1
104	121	2
44	125	2
62	89	2
183	183	4
62	62	3
176	176	4
186	186	2
137	138	1
98	112	1
191	191	4
109	110	1
73	73	9
119	119	3
173	173	3
116	169	1
24	24	4
184	184	2
43	44	3
64	64	3
126	127	1
96	96	3
25	29	2
35	35	3
30	30	6
12	128	2
146	146	5
46	46	4
143	168	2
160	161	1
109	168	2
32	33	1
72	73	2
39	39	1
162	162	2
133	134	2
154	154	1
63	63	5
64	178	1
127	127	3
38	38	3
184	187	1
97	97	4
22	22	2
52	52	1
117	117	2
10	10	2
55	73	1
21	23	1
16	17	3
23	23	2
17	17	3
181	182	3
121	121	2
152	152	1
18	21	2
148	148	1
39	161	1
59	60	1
55	55	1
166	166	1
178	178	4
0	0	1
134	135	3
4	8	5
94	94	1
50	50	2
65	65	2
40	40	5
128	128	1
158	158	3
138	139	1
20	20	1
110	162	2
72	72	2
37	38	1
107	107	2
48	48	1
27	27	2
37	64	1
67	67	2
160	160	4
80	80	2
74	74	2
119	140	1
74	86	1
189	190	2
150	150	1
5	5	1
58	115	1
193	193	1
192	192	2
50	51	2
21	21	1
1	1	2
153	153	1
78	78	1
97	98	1
114	115	2
38	132	1
187	188	1
168	168	2
112	112	4
42	145	3
14	14	2
158	166	1
2	3	2
88	88	2
6	7	4
141	141	4
149	149	2
71	72	2
26	29	1
66	68	1
54	55	1
66	77	1
140	140	3
123	123	1
57	58	2
54	54	2
74	88	1
4	4	2
170	180	1
159	159	1
142	142	1
24	26	2
108	108	1
146	188	1
191	192	1
98	98	2
109	171	2
45	127	1
171	172	1
60	61	1
189	189	2
77	77	1
75	81	1
130	130	1
45	45	1
102	102	2
99	112	3
174	174	3
19	22	3
169	169	1
167	167	2
156	156	1
180	180	1
30	33	2
58	58	1
138	138	1
83	83	2
1	4	2
87	87	2
177	177	2
158	159	1
31	31	1
59	59	2
1	3	1
41	41	2
64	129	1
80	83	1
116	116	1
156	181	1
12	12	1
143	169	1
157	159	1
181	181	1
135	135	1
37	37	1
5	6	1
101	101	1
29	29	1
159	160	1
