37	38	3
128	128	14
24	25	12
41	41	14
146	147	10
113	113	24
138	138	17
13	13	24
176	182	2
108	108	17
94	94	19
39	39	17
38	39	11
141	141	28
168	168	21
121	121	23
177	189	1
172	174	9
131	134	5
43	47	3
52	52	4
83	83	20
184	184	15
139	139	13
10	10	27
65	65	11
90	90	13
24	24	19
161	161	20
79	79	10
18	18	9
152	152	15
72	73	4
23	23	14
0	0	7
38	38	6
117	118	12
82	82	12
15	15	17
122	136	4
43	43	10
135	136	5
160	168	6
107	107	14
28	28	5
173	173	11
164	164	26
96	96	13
110	119	2
125	125	16
188	188	11
150	185	1
85	85	14
88	89	6
181	181	14
151	151	12
129	129	17
185	185	11
14	14	12
123	123	13
189	190	7
153	153	17
12	12	7
62	63	4
33	62	1
166	166	16
171	171	10
105	105	9
127	127	25
109	141	2
20	20	17
140	140	10
142	175	5
84	86	7
19	19	19
17	17	15
159	186	1
156	180	4
134	134	19
131	131	16
73	74	2
45	45	13
35	35	18
129	138	1
57	59	2
22	22	11
147	147	3
92	92	2
29	31	3
163	163	20
186	186	10
138	139	6
36	36	2
37	42	4
10	55	7
130	131	11
78	83	1
170	170	15
88	88	18
40	40	22
3	111	4
146	146	13
108	118	3
42	42	22
114	134	8
58	59	4
118	118	13
165	165	6
189	189	7
163	165	3
73	73	11
171	177	3
118	168	2
31	32	5
137	137	17
110	110	17
169	169	17
130	135	3
55	55	15
106	106	10
98	98	17
56	72	7
144	144	10
180	180	12
9	9	11
156	156	11
87	88	5
56	56	22
149	186	3
1	1	3
30	31	7
11	12	6
111	127	5
63	63	19
54	54	22
5	5	26
116	116	15
175	175	12
62	62	15
75	151	1
27	27	8
32	32	9
72	72	7
55	62	4
181	183	3
34	34	15
115	115	6
18	43	3
162	170	4
155	177	1
182	182	17
178	178	8
160	160	12
103	103	17
6	8	5
149	152	2
134	135	7
135	135	5
124	124	14
27	35	6
87	87	19
143	143	10
143	144	6
6	6	10
89	89	11
10	11	6
71	71	8
122	122	3
188	189	10
37	37	10
164	167	5
151	155	1
155	156	8
67	67	21
53	54	6
84	84	6
25	28	2
16	16	9
87	122	4
145	147	2
115	125	4
18	45	3
148	154	3
74	75	2
174	174	11
155	173	2
78	78	15
96	99	2
84	89	10
180	181	4
59	105	2
131	132	4
156	162	3
19	45	1
109	110	3
161	168	11
156	158	3
80	80	14
168	169	6
91	91	11
149	149	25
113	126	2
112	112	9
75	75	8
102	102	10
76	76	18
183	185	2
168	180	1
68	68	8
95	95	19
81	102	2
65	66	5
44	46	7
104	104	11
136	139	1
122	134	3
145	145	14
83	91	1
74	74	14
159	159	11
25	25	7
11	11	9
182	183	5
136	136	9
101	102	4
71	72	4
120	167	4
174	175	4
117	166	1
176	178	3
187	188	5
158	158	4
150	150	9
154	154	6
15	16	1
127	128	9
68	69	5
157	157	5
111	111	9
44	44	13
151	152	4
100	100	15
2	104	3
118	119	7
20	21	2
108	119	1
98	99	1
164	165	1
115	165	2
152	154	2
64	64	11
125	126	8
85	139	2
109	109	8
4	60	1
183	183	11
4	4	10
155	155	12
185	186	4
24	26	2
94	98	1
88	138	5
26	26	11
19	20	8
115	169	1
57	57	10
119	119	3
144	175	3
106	107	3
53	53	6
122	130	4
155	157	1
25	29	1
62	65	1
154	155	7
19	46	3
150	156	2
97	97	11
66	66	7
41	42	3
2	3	7
56	71	4
8	8	11
172	172	5
90	96	2
44	48	3
122	129	1
21	21	3
59	60	2
142	142	3
108	110	1
19	44	2
86	86	10
111	133	2
15	18	4
13	30	3
96	97	4
157	158	6
99	100	1
6	61	2
96	105	7
176	179	1
111	112	4
148	148	10
46	46	9
121	122	2
84	85	1
74	80	4
99	99	25
161	167	5
101	101	13
7	7	10
16	17	7
120	120	10
126	126	5
57	72	3
4	5	2
125	139	5
15	37	2
56	58	1
125	128	1
8	60	4
175	178	4
177	177	10
7	23	3
159	160	3
96	104	6
90	91	1
0	2	2
96	100	2
75	124	3
163	164	2
154	174	2
96	103	3
113	141	1
187	187	11
47	47	10
132	132	6
119	165	2
167	167	6
28	30	3
141	170	2
105	106	3
61	61	3
108	121	1
140	170	1
2	2	9
6	7	5
171	172	8
45	46	3
75	76	10
91	106	1
13	15	1
52	53	2
60	60	12
93	93	4
33	37	2
120	121	6
74	76	4
28	29	3
126	127	2
0	94	2
19	22	1
97	98	6
120	129	2
58	58	16
13	28	4
151	185	1
114	114	4
33	35	3
25	26	3
23	53	2
3	3	15
54	60	2
91	105	3
149	150	3
82	122	3
56	103	3
126	128	2
149	185	1
187	190	6
142	147	2
141	142	2
179	179	2
117	117	5
162	163	3
33	63	3
156	163	1
5	54	3
38	42	1
47	48	2
21	46	1
110	171	2
2	106	3
113	139	1
125	137	2
89	123	1
33	33	6
66	67	1
86	87	2
184	185	8
166	167	1
1	70	3
60	61	3
94	95	5
144	150	3
63	64	2
42	43	4
61	62	4
78	79	3
85	88	1
70	94	1
12	13	3
101	150	2
156	157	4
9	107	3
74	79	2
41	44	2
43	45	1
176	176	4
77	77	6
145	146	2
128	129	2
56	67	1
153	154	2
13	14	5
144	145	5
44	45	1
149	151	2
34	35	4
80	82	1
117	168	2
16	19	3
32	33	5
61	63	2
133	133	4
15	23	1
98	121	1
176	177	3
145	148	2
53	67	3
65	67	1
43	64	1
7	8	3
113	114	2
109	147	1
30	30	7
124	137	2
87	110	1
180	182	2
17	25	3
123	129	1
48	61	1
78	91	1
122	123	1
160	187	1
48	48	3
181	182	5
157	180	1
92	93	2
34	36	1
18	25	1
65	69	1
56	57	2
99	108	1
100	107	3
144	146	2
142	143	3
81	82	3
129	140	3
62	64	4
131	133	2
171	179	1
115	133	2
123	124	3
124	164	1
77	79	3
152	153	2
15	17	1
2	58	1
63	66	2
28	31	3
15	19	1
134	137	2
124	183	2
142	170	1
44	47	1
137	138	2
174	178	2
172	173	8
93	94	1
113	129	2
29	29	3
142	171	1
101	104	1
71	103	1
150	153	1
1	2	1
64	65	1
23	24	1
179	180	1
162	162	4
2	6	1
190	190	5
116	162	3
32	36	2
12	14	1
97	100	1
144	157	1
18	42	1
29	30	2
7	24	1
43	44	1
146	148	1
124	139	2
38	43	2
8	53	3
46	47	2
0	58	1
175	177	2
147	154	1
12	56	1
70	70	4
70	78	3
75	123	1
145	171	2
25	27	2
24	41	3
129	130	2
55	56	3
175	176	1
114	115	1
77	137	1
169	170	1
94	106	1
54	55	2
171	175	2
113	128	1
83	138	3
181	186	1
59	59	2
65	68	2
125	182	1
129	136	2
91	92	2
36	37	2
21	22	2
100	101	2
156	161	2
22	53	1
84	90	1
88	106	1
123	140	1
32	37	1
110	118	2
104	105	3
110	111	1
121	167	1
32	43	1
129	131	1
160	161	1
46	48	2
144	149	1
52	56	1
157	159	1
74	78	2
117	162	1
123	125	1
79	80	1
122	124	1
130	136	1
112	176	1
31	35	1
128	138	1
39	42	1
11	13	1
111	154	2
111	177	1
158	183	1
1	8	1
140	141	4
114	155	2
53	64	1
40	41	1
55	60	2
89	105	1
145	175	1
130	130	4
164	166	1
17	42	2
7	66	1
77	78	1
158	160	1
8	59	1
14	15	1
158	159	1
109	133	1
5	6	1
55	103	2
165	166	1
76	123	1
148	174	1
76	77	1
32	35	1
71	73	1
26	27	1
124	125	1
129	132	1
186	188	1
143	145	1
