126	126	5
58	71	3
48	48	17
5	6	1
144	144	17
27	27	4
2	3	6
28	69	2
113	113	11
128	128	2
30	30	5
132	132	15
2	2	6
92	93	1
134	134	18
75	75	9
15	19	5
103	103	8
36	36	10
140	140	10
94	95	3
8	9	5
114	114	6
118	118	9
78	126	3
72	72	4
121	121	16
92	123	4
14	24	3
34	35	3
10	10	2
49	49	7
24	25	4
29	29	17
57	61	4
12	12	5
79	79	5
25	26	5
34	34	2
89	89	11
79	80	5
33	33	12
32	32	6
11	20	4
133	133	7
138	139	5
57	57	3
16	16	15
21	21	11
53	69	2
1	1	6
5	5	11
91	91	8
64	64	15
95	95	3
115	115	9
76	90	3
125	125	6
61	62	8
82	82	10
75	81	1
88	88	5
60	61	4
25	30	7
53	53	4
65	66	3
20	20	12
19	19	12
139	140	1
140	141	2
31	31	9
66	66	5
135	135	3
11	21	2
109	109	4
17	17	12
137	138	2
116	116	9
142	142	3
71	71	6
141	142	1
54	81	2
122	123	7
87	87	8
74	79	1
62	62	6
105	105	6
114	115	8
99	100	2
100	100	6
127	131	3
93	93	9
60	73	2
124	124	3
72	82	2
28	67	2
97	98	2
28	29	1
88	89	4
23	23	9
3	3	9
11	11	1
15	16	2
101	101	5
145	145	8
73	73	13
83	83	7
27	70	3
133	136	1
125	126	1
80	84	4
61	61	3
16	17	1
123	123	11
41	54	1
26	51	2
57	72	2
131	131	8
78	79	7
10	11	1
99	124	3
40	41	2
18	18	16
9	9	4
64	118	1
129	129	9
85	85	1
120	120	8
40	75	1
58	58	9
59	59	12
97	97	9
80	80	5
58	59	6
92	92	8
114	116	2
69	69	6
26	27	6
93	94	7
36	37	3
102	102	6
60	60	3
59	60	4
99	99	12
104	104	6
80	81	2
77	78	1
17	19	4
76	77	3
61	63	2
76	76	3
61	124	3
25	25	5
63	63	4
37	37	9
41	42	3
6	20	2
101	102	1
88	90	1
32	33	2
50	50	2
13	13	4
57	74	2
128	129	5
21	22	4
39	40	2
39	81	4
42	48	1
67	68	1
42	116	1
77	126	4
129	137	4
28	28	9
141	141	11
39	39	1
143	143	9
135	136	3
56	89	1
50	52	2
77	90	1
24	24	3
65	65	8
75	79	2
86	87	2
55	55	4
12	13	1
51	52	4
54	55	1
33	34	4
22	22	8
94	94	1
62	63	1
102	103	3
69	70	1
82	84	2
8	8	5
83	84	8
98	98	8
82	83	7
100	106	1
77	77	9
112	113	9
123	124	4
110	110	5
6	6	5
121	122	3
56	57	9
130	130	12
115	116	2
0	0	2
137	137	4
142	143	3
106	106	2
59	122	8
94	99	3
115	117	2
70	70	5
17	20	1
130	134	3
65	71	3
131	133	1
68	70	2
27	28	1
107	109	2
78	90	3
74	74	3
52	52	10
30	31	1
90	96	3
119	120	2
78	78	2
135	140	1
99	101	1
62	92	2
43	43	3
122	122	2
49	52	4
96	96	1
38	40	2
110	112	1
66	67	4
51	51	2
3	5	1
38	38	5
92	99	1
77	91	2
9	33	1
130	132	1
90	90	5
17	18	3
76	79	4
53	55	2
40	54	2
84	84	2
67	67	4
110	118	1
128	130	1
39	80	2
100	101	1
41	41	4
8	27	1
108	108	6
42	42	1
15	15	2
47	48	2
1	23	3
33	82	2
96	98	2
14	14	1
100	125	2
23	24	2
58	64	2
33	57	1
57	58	3
40	40	3
20	25	1
139	141	1
103	105	4
124	125	3
64	65	1
54	70	1
82	85	1
60	74	4
84	85	1
1	3	3
56	56	3
118	120	1
27	69	1
139	139	3
71	72	1
64	71	2
73	74	2
109	110	1
133	135	2
30	67	1
74	75	2
97	101	2
40	81	2
9	19	1
59	61	2
3	68	3
73	75	1
95	96	2
38	88	1
8	53	1
60	82	2
38	87	1
7	31	1
136	139	1
127	127	1
26	52	1
81	81	1
121	127	1
108	109	1
59	123	1
4	13	1
116	117	2
26	26	1
118	119	1
52	53	1
53	54	4
66	114	1
81	82	1
37	90	1
111	111	1
98	130	1
37	38	1
140	142	1
130	131	2
133	139	1
49	51	1
110	111	2
0	3	1
27	67	1
54	54	1
52	82	1
57	59	1
0	4	3
131	134	1
117	117	1
4	5	1
55	56	1
10	20	1
72	73	1
107	107	1
71	83	1
86	86	1
65	117	1
