64	64	7
204	204	9
175	175	17
216	216	17
169	170	2
221	223	4
170	170	20
154	204	1
20	22	2
244	245	6
53	53	10
187	191	2
65	65	6
23	44	1
174	174	3
92	92	7
72	75	2
66	66	12
205	205	10
151	152	2
49	49	3
244	244	8
78	78	10
118	118	9
183	183	9
247	247	18
145	234	1
200	200	10
215	216	3
208	220	1
63	63	5
100	100	11
28	28	5
15	15	9
87	87	7
224	224	6
190	190	8
69	72	1
218	220	1
185	238	2
27	28	2
243	244	6
93	95	2
3	46	1
147	147	4
195	195	11
81	159	1
243	245	3
188	188	11
182	182	7
236	236	21
165	165	9
192	193	2
34	34	13
14	35	3
115	115	10
62	63	3
183	184	6
225	225	9
40	40	16
213	213	11
177	177	4
197	197	5
216	217	7
116	116	10
165	195	3
12	12	15
166	175	4
237	237	4
170	201	2
85	101	1
157	157	5
34	36	2
24	26	2
223	225	2
232	232	8
19	19	13
107	107	3
32	32	4
112	113	5
21	32	2
246	246	7
77	77	9
203	203	7
180	182	1
7	11	5
9	9	12
81	82	6
153	181	1
6	6	5
239	240	5
87	109	1
197	198	1
74	74	8
226	226	4
99	99	13
95	95	14
156	156	15
72	72	2
37	38	7
38	39	3
35	48	2
71	71	3
168	168	9
16	16	6
119	230	3
44	45	2
17	17	8
172	174	7
208	208	13
14	15	1
218	218	10
201	201	14
91	91	8
230	230	12
174	215	5
94	94	5
223	223	12
73	79	2
113	113	19
187	247	4
15	17	1
86	87	6
27	27	5
181	182	1
32	225	1
56	119	1
22	22	11
178	207	3
87	88	4
102	102	9
34	35	4
228	228	9
94	98	4
85	89	1
232	233	7
243	243	7
29	29	7
226	227	2
23	23	3
33	35	1
173	173	18
84	84	5
215	217	5
99	100	1
11	11	9
83	83	5
50	50	7
214	242	1
18	30	2
245	245	13
194	234	1
178	178	1
22	23	2
114	114	10
228	229	3
241	241	5
199	213	2
154	154	6
83	85	5
5	5	13
18	19	3
209	232	2
191	191	3
172	172	5
53	55	3
30	30	7
10	30	3
248	248	2
75	75	3
210	210	6
199	199	7
13	14	4
48	48	4
220	220	3
224	226	2
193	193	9
219	219	8
51	52	6
194	195	3
69	70	4
90	92	1
32	36	1
218	219	3
96	96	7
115	205	2
188	240	2
196	196	1
192	195	1
12	32	1
163	164	4
90	90	6
119	119	4
173	174	3
210	222	3
54	55	3
192	192	8
83	84	4
189	189	6
51	89	2
198	199	5
41	41	7
101	101	3
221	221	9
36	36	7
54	54	6
89	89	13
229	233	1
65	88	3
195	196	6
162	162	6
214	215	3
229	230	5
217	217	16
167	167	5
83	100	2
222	222	8
8	8	4
149	150	3
169	173	2
31	31	5
219	222	3
168	169	11
81	97	2
98	98	5
169	169	10
33	34	3
161	185	2
234	234	10
81	178	1
71	95	1
20	20	11
1	1	4
92	93	6
63	90	2
79	91	1
12	13	3
209	210	3
207	207	4
48	49	5
5	50	5
52	53	4
29	30	2
144	178	2
69	69	10
38	38	4
188	189	3
61	61	16
6	7	4
160	161	1
77	79	3
109	109	9
180	181	2
47	48	7
48	211	2
159	160	2
119	199	1
209	209	6
51	53	2
80	80	4
119	180	2
9	10	5
153	153	3
4	4	5
52	52	3
112	112	8
45	45	9
53	233	2
15	36	1
238	238	4
111	112	1
44	44	6
149	149	2
163	189	1
51	51	9
209	212	1
111	111	11
235	235	4
166	236	2
46	46	8
35	35	5
39	39	12
117	117	2
84	87	4
33	46	2
110	111	6
172	208	1
180	180	5
26	26	2
166	169	3
68	68	9
55	55	2
104	104	5
152	152	5
233	233	8
76	76	3
47	47	6
101	118	2
187	187	7
69	83	2
59	59	8
185	185	9
198	225	1
4	5	1
206	206	8
164	214	3
49	76	1
218	229	1
76	79	2
224	236	1
68	204	2
234	235	6
24	24	8
202	202	3
23	24	3
184	184	4
210	211	2
47	86	1
55	57	2
56	59	7
52	244	2
101	104	4
190	191	4
14	14	7
160	180	1
82	82	5
81	81	7
203	208	1
10	10	8
106	110	2
205	207	3
151	151	4
118	119	11
104	106	2
33	33	5
242	243	1
207	228	2
219	220	4
55	56	3
215	215	7
7	7	6
66	67	1
56	56	1
15	19	1
70	75	1
68	200	2
54	70	2
79	79	12
95	96	1
70	85	2
145	147	2
53	64	1
164	164	5
27	29	1
163	163	5
76	121	2
200	201	3
171	171	3
15	16	3
73	75	1
240	240	7
20	21	1
47	157	5
43	87	2
179	179	5
201	215	2
212	229	4
168	180	2
71	89	1
24	25	2
21	22	1
179	180	3
160	160	3
110	112	1
30	31	2
6	34	2
23	27	1
21	21	12
85	85	4
37	37	3
239	239	4
33	225	1
158	159	1
200	202	1
214	214	4
166	166	5
31	33	1
226	228	1
56	57	4
66	69	2
41	42	3
71	72	2
161	161	5
54	62	3
209	219	2
211	211	1
106	106	1
157	158	4
240	245	2
60	60	11
61	96	2
81	160	1
18	18	6
203	204	3
165	166	5
175	227	1
154	220	1
147	148	1
93	96	3
155	155	2
62	100	2
20	168	1
113	114	5
67	68	3
172	173	3
182	247	1
209	211	1
237	238	1
120	120	1
62	62	6
4	50	2
157	160	1
222	224	1
185	186	4
224	225	1
110	114	1
114	115	2
36	39	1
86	86	6
152	153	1
193	198	1
181	181	5
99	101	2
204	206	3
196	207	2
42	42	3
223	232	2
108	108	6
3	3	1
212	212	5
42	43	1
159	159	5
11	12	3
177	195	2
168	174	2
163	192	1
70	70	2
241	242	2
2	49	2
150	150	2
145	145	4
0	1	2
175	176	3
25	25	5
203	234	1
246	247	1
245	246	3
242	242	1
32	243	3
100	118	2
58	59	2
52	168	2
78	79	2
186	188	1
163	165	3
240	241	2
51	212	1
59	115	1
203	206	1
209	225	1
105	106	2
38	40	2
57	57	5
43	43	3
183	185	2
77	78	2
158	187	3
84	85	3
105	107	1
225	231	1
97	97	1
215	235	4
229	229	1
70	71	2
88	88	5
87	89	1
11	203	5
51	111	1
157	204	2
58	58	3
98	99	2
218	222	1
208	223	1
238	239	1
56	60	4
150	207	2
15	32	2
2	3	1
57	102	1
63	64	2
188	190	3
242	244	2
194	194	2
88	89	2
34	47	1
196	197	1
182	183	1
166	167	1
214	235	2
234	236	1
193	209	1
104	105	4
5	11	3
177	208	3
176	176	5
237	239	2
153	180	1
184	185	1
186	186	2
173	175	1
233	234	1
81	85	2
181	236	1
61	62	1
97	98	1
164	222	1
3	154	1
73	76	3
115	116	1
115	236	1
8	82	1
25	26	2
154	228	2
53	151	1
151	237	2
82	109	1
80	81	2
146	147	1
93	94	1
211	212	1
247	248	2
154	202	2
215	218	3
155	203	1
225	226	2
198	198	2
50	64	1
15	35	2
61	63	1
79	80	2
103	103	5
158	158	1
115	149	1
40	41	2
63	65	1
51	85	1
231	232	1
185	187	1
28	32	1
229	231	2
151	153	2
174	240	1
80	118	1
40	42	1
189	207	1
197	199	1
144	144	1
102	106	1
65	86	1
153	156	2
85	86	1
227	227	3
175	177	1
65	66	1
74	75	1
156	228	1
102	104	2
75	76	1
108	111	1
48	214	1
2	46	1
55	207	1
156	177	1
210	214	1
51	110	1
170	207	1
110	110	2
105	105	1
187	188	1
170	176	1
21	23	1
23	26	1
11	32	1
110	118	1
40	48	1
5	223	1
220	222	1
5	241	1
186	247	1
106	107	1
17	18	1
52	167	1
101	102	1
17	39	1
17	37	1
4	236	1
