129	129	5
108	111	3
98	99	4
7	9	2
83	83	3
139	140	2
16	16	7
11	11	8
120	121	3
78	115	1
8	9	3
75	75	2
100	100	4
90	90	3
118	118	3
85	85	9
115	116	4
136	137	1
36	36	14
13	13	10
24	24	7
80	80	7
36	37	3
87	87	10
13	15	2
14	14	12
134	134	2
19	19	5
86	86	4
107	108	2
15	15	3
101	101	10
81	82	3
92	102	1
126	127	4
122	122	4
103	103	1
6	6	3
126	126	4
91	91	5
113	113	3
26	26	4
89	89	4
7	7	4
22	22	10
79	117	1
89	105	4
127	127	8
112	113	3
4	4	8
114	114	10
24	26	5
120	120	6
5	5	4
138	138	5
37	38	6
121	121	9
12	12	1
131	131	10
90	91	5
111	111	3
124	124	9
31	32	1
70	85	4
82	83	2
0	0	3
96	96	4
119	119	10
11	27	1
100	101	2
125	125	7
27	27	5
71	71	10
79	79	5
34	34	4
23	24	2
117	117	5
74	74	4
123	123	1
77	77	4
66	115	3
10	45	2
21	22	3
29	32	6
30	31	2
5	6	2
84	84	9
3	4	1
136	136	3
29	30	2
30	30	5
72	72	5
99	99	6
7	8	6
3	3	2
28	28	2
1	1	3
25	26	2
105	105	1
21	21	1
110	110	3
137	137	4
89	90	4
32	32	8
21	75	2
102	118	1
17	17	5
23	23	3
108	109	3
115	115	4
33	33	5
92	92	1
107	107	5
73	127	2
108	108	2
106	107	2
78	78	4
87	105	1
93	93	6
119	120	4
96	98	2
118	119	5
8	8	1
88	104	1
112	112	2
80	82	3
12	13	1
88	88	5
32	33	1
120	122	3
110	111	5
15	17	3
73	121	2
10	10	4
98	98	3
76	76	2
102	102	1
130	130	4
128	128	6
33	34	1
113	114	1
16	18	3
132	132	6
38	38	3
104	104	1
25	25	2
86	116	2
119	121	2
22	23	3
93	101	2
116	116	1
73	73	1
95	95	1
75	76	3
139	139	2
7	28	2
74	75	1
94	94	2
73	123	1
115	123	3
10	11	1
82	82	3
35	35	2
9	9	2
82	85	3
6	21	2
114	116	2
4	6	2
140	140	1
18	19	1
87	88	1
137	138	3
14	29	1
18	18	1
7	21	1
109	109	2
29	29	1
116	125	1
77	78	2
30	32	1
102	104	2
115	119	1
121	122	1
6	9	1
79	118	1
124	125	1
117	118	1
9	10	1
23	77	1
123	125	1
78	103	1
2	2	1
