27	27	3
74	74	12
75	75	6
24	24	22
4	7	1
118	118	14
34	34	16
43	43	4
64	78	8
134	134	7
40	68	7
98	99	6
92	116	3
67	83	1
127	127	6
122	132	5
145	145	15
31	31	4
139	139	6
108	110	1
66	66	7
69	69	6
90	93	9
67	67	4
128	150	1
51	51	2
35	35	8
11	43	3
12	12	6
17	17	11
144	144	7
38	39	4
75	79	4
3	6	2
131	131	14
100	100	7
3	32	5
104	138	2
45	46	9
53	69	2
102	103	2
94	94	7
109	110	4
70	70	8
114	115	1
130	130	9
19	20	5
11	12	8
113	113	6
4	31	7
125	125	13
56	56	12
138	138	8
102	116	2
81	81	8
39	118	1
151	151	7
123	123	7
72	74	2
105	120	3
7	31	3
20	21	4
98	98	11
110	110	5
137	138	3
73	74	5
83	83	11
64	69	2
8	8	3
124	127	1
76	77	6
71	71	1
5	35	3
64	64	12
122	122	3
105	105	3
40	40	10
100	118	2
114	114	9
2	13	4
9	9	9
33	34	2
99	100	7
105	107	7
30	31	2
104	121	1
148	148	1
54	54	3
72	76	6
5	5	4
55	63	5
81	82	6
10	43	2
4	6	3
20	20	12
46	46	10
103	103	2
115	117	6
25	25	3
116	116	5
21	22	5
100	110	3
29	30	1
2	2	2
97	97	8
142	150	3
15	15	2
69	70	4
109	109	8
57	58	4
37	46	2
102	135	1
50	50	2
135	137	3
22	22	8
13	13	7
2	26	2
140	141	4
7	27	1
82	136	2
137	139	5
47	53	3
88	88	5
133	133	12
41	41	3
71	130	4
68	68	10
23	23	6
106	106	7
129	152	2
39	39	3
53	56	4
34	35	3
87	87	5
128	128	11
47	48	3
71	141	2
17	20	3
83	84	3
136	137	2
129	129	9
27	127	1
33	33	4
112	113	4
10	11	4
17	18	2
48	49	1
124	149	1
72	72	4
32	35	1
53	53	4
136	136	7
143	143	3
103	108	3
36	36	6
152	152	5
21	56	1
124	124	2
39	40	2
14	14	1
49	49	11
152	153	1
96	98	4
140	140	8
121	121	1
6	6	2
24	45	7
78	79	1
18	19	4
71	131	2
137	137	4
102	102	5
3	3	5
90	90	3
96	97	3
37	37	2
10	10	4
19	51	5
150	150	6
132	132	18
111	112	1
4	32	4
48	48	5
122	123	1
63	65	1
100	117	5
94	115	4
39	84	2
62	86	3
57	57	7
73	73	4
139	141	1
93	93	1
23	37	4
124	125	3
95	102	2
28	28	2
6	35	2
10	41	2
130	142	2
135	135	3
104	137	1
76	76	5
108	116	2
128	149	2
16	16	2
19	19	8
45	45	3
142	143	1
93	115	1
142	148	4
150	151	1
2	24	3
126	126	2
3	36	1
72	154	1
117	117	3
80	80	5
119	119	5
112	112	4
115	115	8
153	153	5
136	138	1
40	41	2
64	66	3
8	9	2
37	38	3
141	142	3
15	24	1
86	88	7
57	70	4
101	101	1
64	65	3
92	112	3
102	110	3
82	82	5
38	38	2
35	36	2
92	115	1
85	86	2
89	93	1
44	44	5
21	21	9
96	96	1
95	95	4
107	109	1
5	6	2
105	106	3
78	78	7
49	132	2
42	42	3
26	26	2
73	75	1
67	68	3
120	138	1
48	55	1
61	62	1
99	99	2
139	140	2
122	144	1
132	134	1
4	4	3
20	23	1
71	79	4
86	86	1
150	152	3
44	45	2
79	79	1
82	102	1
50	51	2
105	119	2
119	139	3
7	7	1
108	109	1
108	117	2
147	148	1
129	130	5
55	64	1
119	138	3
65	65	1
46	47	1
84	84	1
116	117	1
36	37	2
109	116	2
71	129	2
11	11	1
11	13	2
48	56	1
57	63	1
131	132	1
12	37	1
108	108	1
144	146	1
106	137	1
104	107	1
20	38	1
5	31	1
18	18	2
128	129	4
119	121	1
106	107	1
80	81	1
7	9	1
121	122	1
82	140	1
63	63	3
79	80	1
82	101	1
77	77	1
53	55	2
18	50	1
38	56	1
125	128	1
85	85	1
27	28	1
71	80	3
91	112	1
112	117	1
94	107	1
70	135	1
49	51	1
92	92	1
121	146	1
128	148	1
114	116	1
30	30	1
125	126	1
19	47	2
5	32	1
106	138	1
103	117	1
104	104	1
12	36	1
