64	64	5
102	127	1
135	136	2
146	147	3
121	121	3
46	109	8
173	173	7
159	159	8
36	36	4
132	132	4
9	9	3
88	88	4
180	180	4
128	128	9
51	51	6
13	13	6
177	177	2
74	74	6
169	169	14
84	84	5
29	30	4
115	178	7
150	150	3
57	57	7
114	114	3
94	94	7
79	79	6
112	160	2
160	160	10
99	99	13
60	61	5
124	125	2
103	126	4
125	126	4
191	191	8
52	52	12
46	46	11
14	14	13
104	161	1
93	93	1
142	142	1
50	50	5
12	12	3
61	61	6
53	53	5
29	29	1
89	89	9
43	43	4
30	31	2
105	106	1
114	178	1
138	138	12
55	55	6
48	48	8
11	18	2
30	30	9
165	165	10
45	45	10
41	41	8
108	109	6
125	125	2
137	137	3
27	27	5
58	58	5
87	87	4
151	151	4
67	68	2
26	26	12
197	197	2
62	62	26
25	26	1
83	83	12
42	43	1
163	163	9
116	147	4
185	186	4
4	9	5
16	54	3
173	176	2
33	34	1
143	144	3
130	130	1
76	131	2
17	17	4
77	78	3
184	184	2
126	126	5
130	131	3
58	59	1
69	69	5
148	148	4
25	25	1
161	161	5
10	10	4
54	55	1
150	154	4
186	187	6
165	167	4
47	47	4
119	120	2
3	4	4
149	149	6
15	18	2
5	5	4
42	42	4
186	189	1
96	176	4
33	33	10
161	162	2
178	178	6
68	132	1
81	81	6
96	96	6
111	112	1
183	183	12
8	8	5
194	194	3
150	167	6
57	69	5
133	133	4
116	141	1
153	153	1
138	139	2
47	50	2
141	141	1
46	68	1
23	24	2
35	35	3
145	145	3
94	160	1
186	188	2
42	67	2
6	6	4
59	59	6
151	152	2
101	101	2
57	58	1
142	148	4
85	86	1
23	23	2
16	16	3
29	90	1
139	139	6
187	188	3
46	54	7
110	111	2
152	186	1
107	128	5
189	189	4
107	172	3
166	166	2
71	71	1
34	34	5
157	185	1
63	63	2
134	135	2
98	133	3
0	0	5
154	154	1
44	45	3
185	185	6
97	171	3
111	111	3
65	65	10
15	15	6
4	4	1
68	126	3
186	186	3
105	174	4
76	76	3
19	22	1
98	98	4
129	129	3
109	109	5
11	14	4
188	188	2
116	118	1
40	40	2
95	97	4
22	23	3
144	144	1
39	39	3
133	134	7
135	135	6
5	8	4
131	170	3
124	124	1
113	169	1
24	25	5
130	170	3
79	137	1
70	70	4
78	79	3
51	194	1
85	85	5
28	28	2
95	95	3
146	146	1
30	32	2
162	162	4
97	134	2
7	27	1
168	169	2
81	82	4
103	110	1
167	168	1
160	177	1
143	197	2
1	2	2
38	38	4
29	31	3
83	84	1
129	130	2
77	77	3
32	32	4
8	9	1
42	68	1
125	127	1
89	137	1
168	173	1
107	107	5
54	54	4
153	154	1
100	100	5
178	179	2
1	1	8
170	170	2
39	40	2
98	134	3
171	172	1
167	167	1
80	80	1
123	135	2
11	11	1
152	153	3
192	193	3
26	27	1
13	97	1
195	195	1
84	85	1
120	120	2
147	147	1
181	182	1
182	182	3
116	116	1
49	49	2
31	36	2
152	152	1
190	191	2
0	2	3
140	140	3
37	37	1
158	158	3
111	169	2
44	44	3
156	156	1
42	44	2
28	30	2
193	193	3
174	174	2
18	18	4
113	113	3
154	191	2
46	128	1
6	23	1
170	171	2
40	41	1
68	68	2
31	31	4
175	175	4
12	13	6
65	66	3
89	139	1
176	177	3
112	112	1
158	192	2
45	125	1
140	142	1
106	106	3
37	38	1
20	20	1
135	173	2
98	163	1
180	182	1
73	74	1
194	197	2
123	134	2
112	169	2
72	72	2
6	21	2
108	108	1
66	66	2
150	184	1
76	136	1
56	56	2
122	122	1
71	72	2
42	64	1
157	189	1
34	36	1
19	19	2
46	111	1
174	176	1
112	182	1
13	128	1
67	72	1
7	7	1
24	27	1
155	155	1
134	134	1
110	110	1
22	22	2
136	136	1
56	69	1
58	81	2
172	172	1
122	132	1
196	197	1
63	132	1
115	115	1
131	131	1
113	114	3
196	196	1
102	105	3
182	183	2
10	55	2
177	178	1
1	16	2
165	177	1
24	24	1
127	128	1
151	188	2
43	45	2
49	50	1
61	62	1
126	127	1
5	6	1
103	111	2
194	195	2
32	39	1
15	81	1
19	23	1
166	177	1
154	186	1
53	54	1
173	174	1
87	88	1
157	157	1
9	10	1
