38	38	7
110	110	13
63	63	5
45	45	6
17	17	14
98	99	3
130	130	4
93	93	1
116	116	2
57	58	3
110	122	2
133	133	3
31	31	2
10	10	4
68	68	6
97	97	9
85	85	14
110	111	3
84	113	3
22	22	4
93	136	1
135	152	4
49	49	6
121	138	3
35	35	4
69	69	5
13	13	7
96	96	3
129	130	2
118	118	4
140	141	3
65	65	3
42	42	8
55	56	1
76	76	6
95	95	6
36	36	6
94	94	4
30	56	3
23	76	3
120	121	4
66	66	3
87	88	2
119	119	5
33	34	1
20	130	3
34	34	9
150	150	5
111	111	4
83	84	3
138	139	3
3	3	8
51	51	3
94	122	1
19	19	5
134	134	3
124	136	1
37	37	3
103	107	2
9	10	8
141	141	2
151	151	3
55	58	4
46	113	7
33	33	2
122	122	2
47	47	3
72	72	1
53	53	5
136	136	2
120	140	3
24	25	1
25	25	8
57	57	2
54	54	2
129	129	8
14	15	2
15	103	2
132	132	11
79	79	1
135	136	4
23	129	3
47	48	2
93	94	4
30	32	2
14	14	2
87	89	1
4	5	2
144	145	5
45	76	2
16	16	1
125	125	2
103	105	2
81	82	6
75	75	3
139	139	4
10	41	1
142	143	1
112	112	4
6	8	1
148	149	1
80	97	2
11	132	1
144	150	1
101	101	2
12	31	1
20	42	3
123	124	4
53	54	4
149	150	4
70	73	2
115	116	1
28	28	3
74	74	3
27	27	4
32	33	5
5	5	4
10	11	4
121	121	1
103	104	1
56	56	5
36	37	3
126	126	3
117	117	2
55	57	1
74	75	1
26	26	1
39	70	1
120	120	3
5	8	1
94	95	2
20	21	3
46	46	1
124	124	3
119	120	3
44	45	1
114	114	1
40	40	3
48	48	4
106	106	4
39	39	2
17	18	2
75	77	1
13	36	2
12	12	3
9	56	1
100	100	1
85	86	2
146	146	1
127	127	1
82	82	4
153	153	2
48	49	2
135	135	1
80	80	1
67	68	3
24	24	2
40	41	1
137	138	4
12	130	3
7	7	5
73	73	2
97	98	1
145	145	2
6	13	1
9	9	3
118	134	2
108	108	1
75	84	2
62	62	2
147	148	4
52	57	2
23	23	1
89	90	2
126	141	1
99	100	1
70	71	1
21	21	1
84	85	2
142	142	2
111	112	1
41	41	1
67	67	1
131	131	2
112	113	1
18	18	1
154	154	2
12	13	1
138	138	3
25	27	1
67	69	1
98	98	1
126	143	2
29	30	3
55	55	5
57	62	1
89	89	1
130	133	1
43	43	2
11	41	1
105	105	1
64	64	2
30	30	1
77	77	1
45	46	1
6	6	1
109	110	1
43	44	2
22	23	3
91	93	1
122	123	1
144	144	2
39	40	1
113	113	2
106	107	1
79	80	1
147	147	2
4	4	3
3	5	1
99	99	1
82	91	1
84	84	1
80	81	1
15	16	2
103	103	1
42	43	1
15	15	1
115	134	1
143	144	1
