97	97	6
34	34	6
65	65	9
100	100	5
78	82	2
91	91	7
30	33	1
34	93	1
43	43	5
57	67	6
26	26	17
84	85	7
27	28	2
26	28	4
96	97	1
38	71	12
64	65	7
55	70	2
29	29	19
65	67	2
68	68	10
102	103	4
41	41	9
48	48	9
104	104	4
29	30	9
78	79	4
47	47	6
36	36	5
23	23	7
35	35	3
57	57	11
82	82	18
96	96	4
55	56	4
85	86	4
74	74	9
93	95	7
20	20	7
56	56	10
77	77	8
95	95	7
50	68	6
57	100	3
66	66	5
62	62	23
73	77	1
40	41	7
82	83	9
83	84	4
100	102	2
80	83	3
71	71	21
67	67	8
53	61	2
84	84	8
24	24	4
79	79	10
102	102	6
61	61	8
103	103	5
63	63	5
91	105	3
106	106	2
27	29	1
33	41	1
58	58	10
27	27	7
35	36	2
52	52	12
69	69	4
78	78	5
43	44	5
100	101	6
91	93	1
73	73	8
20	41	4
39	39	6
42	43	3
58	59	5
93	94	7
50	50	16
89	90	4
92	93	5
57	103	2
79	81	1
33	33	4
64	64	1
33	83	6
66	70	3
89	91	2
25	25	17
26	27	8
81	81	10
55	55	14
79	98	1
98	98	3
32	34	4
80	80	7
54	61	2
45	45	9
49	49	4
54	60	3
37	37	6
55	67	2
24	26	2
60	60	1
31	31	7
73	74	2
76	76	11
55	76	1
38	38	11
33	34	3
99	99	8
20	21	3
44	44	5
86	87	2
85	95	4
37	38	1
72	72	3
22	22	13
32	32	7
86	90	4
65	95	2
33	82	4
21	60	1
52	54	6
25	28	2
105	105	5
80	81	5
38	77	1
60	61	3
87	87	4
34	35	1
42	42	11
89	89	5
64	83	2
84	86	1
92	94	6
61	62	6
31	34	1
53	53	5
79	80	6
59	60	5
59	59	7
41	43	3
39	41	3
75	75	8
50	100	2
88	90	5
87	88	1
68	69	3
75	76	3
104	106	4
85	85	4
45	54	1
40	45	1
21	21	14
45	46	3
70	70	2
49	72	1
63	64	2
53	54	3
21	26	2
88	91	2
64	70	2
90	90	3
78	81	2
85	96	1
25	27	1
83	83	3
47	61	1
29	31	1
49	50	1
69	70	1
35	40	2
29	36	2
70	71	6
94	94	2
42	45	2
92	92	2
84	91	1
90	98	2
45	53	2
45	71	1
54	55	1
67	68	1
51	51	5
47	54	1
33	93	1
97	98	1
38	39	1
56	57	1
49	58	2
55	57	2
46	50	1
36	60	1
20	23	1
47	49	1
107	107	1
54	54	3
76	77	2
52	53	1
46	46	1
56	80	1
93	93	1
91	98	3
51	52	1
78	80	3
57	102	1
61	67	1
62	63	2
69	76	1
62	78	1
50	51	1
64	82	1
98	99	1
32	35	1
31	32	1
