127	127	13
65	65	10
110	110	7
81	81	11
44	44	8
57	57	6
1	1	6
23	23	9
43	43	4
91	91	13
71	71	8
89	89	13
124	124	6
8	8	6
84	84	3
80	81	8
55	55	2
15	15	17
119	119	9
104	104	3
13	13	14
3	108	3
75	75	1
116	117	3
41	41	8
75	77	3
66	66	11
76	76	7
33	33	16
109	109	11
80	80	21
72	73	1
3	3	15
126	126	12
47	47	13
70	70	8
54	131	1
99	100	4
77	97	4
88	88	5
64	64	5
93	96	5
96	96	3
98	98	2
104	105	3
78	79	4
75	91	4
6	6	7
21	22	5
82	83	2
42	45	1
106	106	9
42	42	3
52	52	7
55	82	5
63	63	8
129	129	11
38	39	6
4	4	4
58	59	1
117	117	4
22	22	12
17	17	4
77	77	13
28	28	10
88	89	5
112	112	5
125	125	4
114	114	14
82	82	6
11	11	9
63	64	2
11	13	5
116	116	11
72	74	2
24	24	5
45	45	1
60	60	6
102	103	2
55	103	2
94	96	3
41	120	2
79	117	3
120	120	7
44	45	3
12	102	4
123	123	6
108	108	5
111	111	7
78	78	7
69	69	5
30	30	6
122	122	4
68	94	2
8	49	7
124	125	9
94	94	12
87	103	4
14	15	7
78	88	2
27	27	1
16	18	8
104	120	3
74	74	10
78	80	1
128	128	9
20	20	6
88	97	1
107	107	3
51	51	7
121	121	9
17	18	2
113	114	3
85	85	7
7	7	6
114	116	4
131	131	8
40	113	1
68	92	1
34	127	2
54	54	4
123	124	1
95	95	9
74	75	4
71	133	4
19	20	6
86	86	6
5	30	3
19	21	4
83	83	10
84	85	7
58	62	1
119	120	4
97	98	7
130	131	6
18	18	3
67	94	3
93	93	3
48	101	8
8	14	2
31	129	3
73	74	3
50	50	3
60	61	4
67	68	3
86	102	3
24	25	1
0	108	3
65	66	6
6	28	2
67	76	2
126	128	1
53	53	2
61	67	3
32	96	3
62	62	5
115	116	4
5	5	6
55	87	4
39	40	2
48	49	8
100	100	4
67	67	5
32	69	3
42	43	2
52	53	3
91	92	1
92	92	9
2	2	7
68	69	4
88	103	2
74	91	1
90	90	2
101	104	3
73	73	4
64	66	4
39	113	2
102	104	2
93	94	2
0	2	4
41	44	3
42	99	3
0	0	2
1	124	1
87	88	6
126	127	1
99	117	5
34	74	2
29	31	1
87	87	3
11	12	5
51	121	1
31	127	3
23	24	1
107	108	1
67	74	2
73	130	3
31	31	3
116	124	1
32	32	8
103	103	3
110	111	1
47	55	1
14	14	5
12	12	5
105	105	3
44	47	2
79	79	2
125	126	3
84	86	1
120	122	2
57	67	1
49	49	2
79	98	3
26	27	1
19	19	3
7	15	1
5	29	2
52	105	2
63	65	1
40	40	8
43	44	1
10	100	2
12	13	3
73	91	1
102	102	2
95	96	8
16	17	2
25	25	1
70	71	3
102	118	1
112	113	1
29	129	2
17	92	2
38	38	1
46	47	1
10	14	1
82	89	5
68	68	5
2	108	4
85	86	1
69	71	2
130	130	5
133	133	1
41	42	3
75	89	6
59	60	2
54	57	1
54	80	1
26	102	2
101	101	3
117	120	1
63	66	1
51	52	3
52	104	1
56	56	1
37	38	1
77	98	2
59	59	3
48	105	2
51	104	1
71	130	1
94	95	2
3	113	1
97	97	2
70	130	1
55	104	1
132	132	3
83	84	3
1	108	2
106	117	1
64	74	2
29	29	1
26	26	2
31	32	1
46	48	3
69	70	2
42	98	1
26	28	2
68	91	2
74	97	3
85	88	2
42	126	3
98	127	1
69	92	1
103	119	1
62	65	3
77	93	1
48	48	2
125	127	1
46	46	1
33	34	2
16	16	2
81	89	1
32	127	2
66	67	1
75	90	1
18	20	1
72	72	2
86	88	2
68	93	1
9	11	1
59	131	1
4	5	1
101	102	2
69	72	1
127	128	1
118	120	1
15	47	1
25	26	1
34	128	1
88	118	1
