83	83	4
32	56	4
85	112	1
74	74	19
80	80	35
18	18	16
42	43	5
73	99	1
12	12	24
130	131	3
33	96	2
21	22	10
102	111	3
44	44	21
69	69	16
1	1	10
79	87	3
13	13	40
78	78	11
5	5	24
94	94	18
104	121	1
21	21	24
88	123	3
85	113	4
101	109	3
43	43	13
1	107	5
20	20	12
129	129	7
134	134	11
47	50	6
22	95	1
65	66	10
97	97	17
17	17	15
129	133	3
70	70	22
64	64	12
116	116	8
88	89	3
110	111	6
106	111	1
71	71	27
69	80	3
87	87	20
114	115	10
88	88	13
102	103	1
127	127	6
92	92	6
25	25	20
104	104	20
128	128	12
125	125	14
105	105	37
132	133	3
121	121	24
77	77	17
74	111	2
27	27	9
23	23	10
17	20	6
77	117	2
126	126	33
82	113	6
35	35	12
114	114	29
93	101	4
45	45	6
56	56	6
36	132	4
92	95	3
103	103	28
59	60	2
124	124	16
36	36	9
29	29	20
133	133	12
62	64	9
126	127	8
14	27	5
11	11	39
123	123	31
106	106	5
30	32	10
30	30	18
95	95	32
100	103	2
65	67	4
111	111	10
99	99	18
65	65	6
50	50	10
90	90	24
108	117	3
124	125	8
120	121	4
86	86	19
81	104	5
122	122	4
17	19	5
50	51	2
98	98	37
94	111	2
95	96	6
33	34	6
96	109	1
108	132	2
5	20	6
61	61	39
7	26	9
76	76	23
19	19	3
83	92	1
1	2	6
8	8	19
10	10	14
115	118	3
55	56	5
76	77	5
3	106	4
4	107	5
38	38	2
62	62	17
60	86	6
33	33	17
87	88	7
14	14	14
34	109	4
87	117	2
0	0	16
22	22	8
111	112	7
26	31	6
73	75	4
8	20	7
118	120	5
102	102	17
26	30	9
97	98	11
60	60	21
74	94	3
119	120	8
33	95	2
59	59	15
120	120	11
103	104	8
4	4	5
28	29	7
54	54	11
81	88	2
82	85	1
12	13	1
67	69	3
24	24	13
92	100	1
69	90	4
0	43	6
24	52	1
26	26	8
18	19	3
1	111	3
38	133	3
125	127	8
113	113	25
17	18	2
16	16	23
131	132	2
91	92	3
82	82	15
13	21	5
81	81	8
96	96	2
109	109	14
75	75	15
53	54	2
58	69	3
3	3	14
119	119	21
36	111	3
46	46	5
49	49	9
77	78	8
60	99	3
70	73	2
27	31	2
77	85	7
117	117	5
131	133	5
52	52	14
127	133	4
2	4	4
8	13	5
52	53	4
115	116	6
132	132	2
124	131	4
118	118	19
66	67	1
7	7	3
31	31	8
83	90	6
73	102	2
43	74	1
86	123	2
130	130	14
127	129	2
22	26	1
72	72	23
34	34	16
135	135	5
8	19	2
101	107	6
84	84	11
112	123	2
106	110	1
35	131	2
6	7	4
78	96	2
7	8	2
110	110	10
67	81	2
18	20	5
35	36	3
20	21	2
2	2	10
130	133	4
107	107	3
10	11	3
123	129	4
73	73	17
93	94	5
11	22	4
59	65	2
109	112	3
49	50	7
100	100	4
0	2	4
58	58	4
108	108	10
109	110	8
34	35	10
63	64	7
81	105	4
11	12	6
96	97	5
131	131	2
5	44	2
91	96	3
32	32	10
16	17	6
9	9	8
95	97	5
56	57	10
99	100	3
106	107	7
127	128	4
21	28	4
28	28	14
30	57	1
61	64	2
42	42	2
76	85	2
9	10	7
42	85	4
6	6	6
89	89	13
16	20	1
94	95	7
119	131	3
75	111	3
117	122	4
15	23	2
10	14	8
54	55	6
109	117	2
15	24	4
68	68	11
115	115	6
79	79	15
30	31	9
60	65	5
72	73	7
91	93	1
123	133	1
27	33	2
94	101	5
54	58	2
62	63	8
75	76	1
15	16	1
37	37	6
25	27	2
85	87	4
10	16	1
73	74	4
3	18	2
66	66	17
62	125	1
113	122	1
62	121	6
86	117	2
62	72	2
43	108	1
22	23	1
83	125	2
60	73	3
19	28	1
80	82	2
88	90	2
118	119	4
4	7	2
96	130	1
26	28	4
27	28	2
63	63	6
71	134	2
118	121	3
22	25	1
101	101	8
97	107	1
59	93	2
65	69	4
85	85	14
67	67	12
102	107	2
60	105	2
100	106	7
61	62	3
6	78	2
53	53	1
23	24	3
72	90	5
77	79	5
78	79	2
69	119	4
14	15	3
9	17	2
66	69	4
29	30	7
43	45	3
100	107	2
36	131	7
65	68	3
94	98	1
3	4	2
101	102	5
112	112	15
102	112	1
82	86	1
114	116	3
124	127	4
93	93	4
104	105	2
114	118	2
6	61	2
116	130	1
55	59	2
2	3	3
45	50	2
19	20	5
48	50	1
114	117	1
122	123	2
64	124	4
76	98	2
57	57	9
108	133	2
76	95	2
124	128	6
103	106	2
42	83	2
69	70	3
70	71	1
97	133	2
14	58	1
99	135	2
77	82	1
123	126	2
20	22	1
83	87	2
18	21	1
98	134	2
63	70	4
80	81	2
26	29	2
108	130	4
103	105	1
79	80	2
16	24	1
15	15	5
59	94	1
82	87	1
83	93	1
74	102	5
76	78	1
71	90	3
71	72	2
80	104	1
88	121	2
7	11	1
55	55	4
12	35	1
63	128	2
31	56	1
58	59	1
85	114	1
72	103	1
126	134	1
22	59	3
110	132	1
121	122	1
0	51	4
12	95	1
125	129	1
75	99	1
37	124	3
61	121	1
36	37	3
33	37	1
5	18	1
125	126	2
107	108	2
9	45	1
60	75	2
86	119	2
43	82	1
134	135	4
64	65	2
107	110	1
43	105	2
23	25	1
83	113	2
14	44	2
32	34	1
8	44	4
7	9	1
7	13	1
61	71	1
82	112	1
15	27	2
8	45	2
54	59	6
91	91	1
1	7	2
12	32	1
0	55	1
0	106	2
10	27	1
24	25	2
57	58	3
72	89	1
29	34	3
83	84	1
116	119	3
67	68	3
4	106	3
84	85	4
54	75	1
5	7	1
124	130	1
13	14	2
63	73	1
31	32	2
74	100	1
112	113	1
95	98	1
125	128	1
128	129	3
75	105	2
105	114	1
116	117	2
11	19	1
86	87	3
95	99	2
23	39	1
72	102	1
102	105	1
68	69	1
102	120	2
79	88	1
56	75	1
19	22	1
92	93	2
130	132	1
32	55	1
62	124	1
72	74	1
59	95	1
108	111	2
115	117	1
26	45	2
106	108	1
127	134	1
120	123	2
20	28	1
107	116	1
9	44	1
50	111	2
63	74	1
0	17	1
10	58	1
63	69	1
91	99	1
29	94	1
21	25	1
43	53	2
44	50	1
18	22	1
37	38	1
90	92	1
12	75	1
0	61	1
5	76	1
