75	77	6
0	7	8
71	74	4
21	40	3
13	13	9
65	66	4
3	11	1
47	47	7
11	11	7
10	35	4
29	31	3
47	49	3
19	19	2
49	66	1
34	35	7
40	43	1
49	64	2
23	25	2
42	48	8
62	62	2
66	71	2
24	31	3
44	60	4
26	26	3
51	65	2
12	14	2
53	53	2
43	63	3
60	60	4
64	66	1
2	13	1
23	27	3
25	35	2
54	54	2
23	23	2
0	5	1
30	30	1
71	71	2
44	44	2
49	63	4
54	65	1
7	11	2
48	62	1
24	24	1
33	39	3
1	1	7
32	32	5
68	68	7
75	76	5
66	76	4
42	58	3
49	69	3
61	76	1
52	52	6
42	42	5
72	73	3
54	67	2
0	1	7
55	75	2
38	40	2
64	64	3
34	47	2
23	38	1
3	14	2
58	60	1
19	21	2
66	66	2
77	77	5
43	46	2
40	50	3
36	37	2
28	32	2
27	27	2
38	38	7
65	65	1
39	40	3
24	37	2
1	10	1
10	13	2
5	5	5
47	67	5
72	75	5
29	29	5
74	74	7
25	26	2
25	25	1
73	73	5
7	9	2
58	58	2
61	64	3
4	5	7
21	21	1
65	76	2
9	9	7
38	41	1
68	70	8
52	71	4
70	70	4
34	34	1
36	36	1
18	18	2
58	72	3
34	36	7
73	75	4
72	72	4
58	75	2
58	62	2
24	25	5
40	42	1
52	67	2
51	61	1
40	41	3
42	64	1
55	55	1
9	13	1
31	35	2
46	46	5
69	70	2
50	65	2
45	61	1
36	39	2
3	3	3
72	76	2
56	56	3
59	77	1
45	48	2
26	37	3
55	72	1
4	4	4
63	63	4
54	73	2
6	8	2
69	69	2
48	48	7
54	58	1
24	38	1
59	59	1
75	75	1
32	33	1
55	56	3
39	39	3
20	27	3
8	8	3
30	36	2
57	61	2
51	53	2
21	25	1
50	50	4
57	75	1
24	30	2
54	55	1
2	4	1
44	58	3
36	50	2
43	56	1
32	48	3
20	37	1
43	43	2
0	0	3
12	12	3
41	47	4
23	42	1
44	77	1
23	24	2
37	63	2
57	58	1
50	59	2
31	38	1
0	8	2
41	46	1
34	49	1
67	67	1
71	73	2
19	20	1
60	74	1
6	11	2
56	71	3
61	69	1
26	56	1
39	41	1
33	50	2
7	7	4
61	61	1
0	14	2
42	56	3
64	65	1
50	51	1
19	42	1
45	60	2
35	35	2
27	29	1
60	61	1
50	71	1
33	34	1
46	60	1
2	3	2
27	35	1
31	40	2
20	20	1
29	30	3
33	33	1
20	36	1
34	71	2
18	19	1
6	6	1
27	28	1
22	35	1
49	73	1
28	28	1
76	76	1
48	50	1
62	63	1
