129	130	8
1	1	7
133	133	5
67	67	6
71	92	1
112	112	6
89	90	3
81	81	7
6	111	2
85	134	4
24	24	8
33	34	5
120	120	4
34	34	1
49	49	3
30	33	5
74	109	6
76	77	2
62	74	4
125	125	2
17	17	9
141	141	5
118	119	1
139	139	9
118	118	1
50	50	4
72	72	3
29	29	6
113	114	1
70	70	5
89	89	2
61	61	3
79	80	3
127	127	6
98	119	3
20	21	2
96	96	1
131	131	1
85	85	2
81	84	5
2	42	2
116	122	1
128	129	1
31	33	4
63	63	5
23	83	2
59	60	2
87	87	4
43	47	2
134	136	2
91	91	7
32	32	2
27	41	3
116	116	4
55	125	1
3	3	4
81	82	4
101	101	6
65	65	1
12	14	1
85	138	4
77	82	2
16	37	3
141	142	4
31	32	2
102	102	11
19	19	7
3	134	3
113	113	2
76	76	5
104	104	3
88	88	3
117	119	4
95	131	3
106	107	1
100	100	2
2	2	3
4	25	2
56	56	4
16	16	2
108	109	2
35	35	2
2	9	5
51	52	4
40	40	4
98	100	1
102	106	1
37	37	5
57	94	3
129	129	3
136	136	1
24	32	2
108	108	3
50	52	1
65	122	2
4	4	1
27	27	1
83	83	1
92	123	1
60	61	2
8	8	2
77	77	5
57	57	3
134	134	3
111	111	7
135	135	4
121	122	5
32	83	3
73	138	1
119	119	2
94	121	4
57	71	1
30	30	4
103	103	7
36	36	2
128	128	2
33	33	4
52	52	3
20	20	6
58	136	3
132	132	7
11	11	4
90	90	1
8	70	3
93	94	2
104	105	5
54	54	5
107	107	9
95	121	3
89	91	1
14	16	1
98	98	4
124	124	5
23	23	3
135	137	1
61	70	1
19	22	5
14	17	1
23	34	4
74	113	2
114	117	4
36	87	1
71	93	2
137	137	8
94	113	1
16	36	1
68	68	4
82	82	2
26	27	2
38	38	2
57	59	3
10	10	2
113	118	2
0	1	4
40	42	2
29	30	1
55	56	1
28	28	1
138	138	1
57	58	1
65	79	2
62	94	1
69	69	3
24	42	1
9	58	1
97	117	1
74	116	1
18	18	2
52	90	1
116	117	1
118	120	2
31	83	2
56	126	2
123	123	4
6	110	3
17	38	3
41	41	3
37	38	1
71	72	1
105	105	2
115	121	2
68	70	2
73	109	2
97	119	1
80	80	1
49	56	1
136	137	1
86	87	4
26	33	4
25	25	2
144	144	1
79	81	1
84	84	2
17	37	1
102	103	2
2	59	1
62	77	1
92	92	3
1	24	1
25	26	2
111	137	1
26	81	2
109	133	1
82	83	1
62	63	1
27	28	2
108	122	1
75	75	2
76	123	2
50	51	1
99	99	3
58	58	1
137	138	3
75	122	2
24	37	1
117	117	1
98	103	1
123	124	1
8	85	1
2	25	1
126	126	1
114	114	1
59	70	1
90	91	1
115	115	1
131	142	1
113	138	1
54	56	1
22	22	2
18	41	1
130	130	1
108	112	2
24	35	1
78	79	1
84	137	2
94	95	1
109	136	1
86	86	3
95	95	1
9	9	1
47	48	1
93	93	3
14	87	1
110	110	2
14	15	1
126	130	1
2	36	1
47	47	1
73	73	1
28	70	2
26	77	1
42	42	1
51	51	1
139	141	1
106	106	1
39	39	1
5	5	1
48	91	1
