17	17	6
64	64	13
19	23	10
104	119	3
27	27	4
133	134	8
141	141	7
18	18	5
125	135	6
31	32	5
48	56	3
115	116	6
34	35	11
110	111	4
80	80	6
96	97	3
134	134	17
84	85	10
142	144	1
4	35	9
102	102	3
76	76	8
70	71	1
132	134	6
143	143	3
145	145	2
114	114	13
51	52	8
61	61	22
32	32	16
98	99	5
142	142	11
58	59	4
107	107	8
110	110	4
85	85	14
78	78	5
42	42	5
114	115	3
122	123	12
66	66	14
72	72	8
137	138	9
4	4	14
48	51	7
105	105	12
79	79	12
81	81	16
71	71	12
126	126	10
22	34	4
118	118	27
105	106	10
33	33	14
20	21	7
87	88	11
61	62	4
50	51	2
80	81	14
9	10	4
47	47	8
73	73	10
112	112	10
14	14	13
113	114	3
117	118	3
29	29	15
93	93	20
31	31	10
19	19	11
120	120	8
106	106	7
113	113	13
55	56	4
135	135	4
93	95	4
86	86	8
35	35	14
109	109	14
13	13	19
140	141	19
37	38	5
116	117	4
16	57	7
63	64	6
41	41	8
73	74	4
130	130	10
89	89	22
90	90	13
38	38	20
92	92	14
93	94	6
13	57	2
141	144	6
3	4	8
24	24	4
39	110	2
78	79	9
129	129	9
66	67	3
91	91	9
26	26	3
136	138	6
21	21	9
23	23	14
96	98	4
125	126	4
57	57	19
84	84	17
8	8	6
77	78	4
22	23	3
75	75	7
135	136	1
144	144	9
24	26	7
104	105	4
119	138	6
123	123	16
117	119	2
128	131	2
48	48	13
5	5	13
108	116	4
85	140	1
28	29	3
42	65	6
60	64	4
33	34	9
128	128	2
116	142	2
30	30	10
109	110	5
0	0	7
11	11	7
54	54	8
25	25	7
74	75	14
67	68	7
16	16	8
63	63	3
99	99	4
91	92	7
86	125	3
9	9	7
127	127	3
62	62	8
20	20	15
41	42	3
100	100	9
58	58	4
131	132	2
130	131	9
71	112	3
134	137	1
81	83	5
108	109	8
59	60	7
136	136	8
91	104	4
71	72	2
131	131	8
56	59	1
85	123	4
117	117	11
97	99	3
3	3	6
76	78	1
118	120	1
57	58	5
55	105	3
63	99	1
3	57	2
69	70	4
101	102	1
101	101	11
51	55	4
88	89	6
13	14	6
119	120	1
12	12	3
56	56	10
133	137	2
15	16	3
39	41	6
22	22	11
118	119	6
70	70	10
83	84	3
39	39	10
59	59	5
49	50	10
32	33	3
41	59	4
140	140	16
51	95	2
124	140	1
1	2	7
14	15	4
52	52	5
28	28	9
1	1	6
51	53	4
115	118	2
34	34	5
2	2	17
12	13	6
99	101	1
18	19	5
103	103	9
60	60	4
64	65	11
133	133	7
55	55	2
15	15	6
53	53	8
2	24	5
132	133	9
3	6	5
3	32	4
122	122	5
6	42	1
126	128	4
75	76	2
92	101	8
111	111	9
19	22	3
115	115	4
15	17	1
121	121	7
108	108	6
5	32	4
111	112	2
67	67	13
37	37	6
94	94	12
98	98	6
2	3	9
88	104	1
25	26	3
93	102	1
95	95	7
88	88	6
88	119	4
12	50	5
13	50	4
119	119	7
60	61	4
36	36	3
120	122	1
6	6	6
129	130	3
48	61	7
65	71	3
30	31	1
4	32	2
11	97	3
74	74	9
142	143	4
54	94	2
83	83	8
104	104	11
62	63	4
62	64	3
0	42	1
0	1	4
40	40	9
62	66	1
120	123	5
48	49	1
121	122	5
4	37	1
77	77	7
135	137	1
124	124	6
10	96	6
32	35	3
137	137	4
40	43	6
81	82	3
10	10	5
17	57	2
132	135	3
23	24	1
43	47	3
70	115	1
93	103	1
65	65	5
26	37	3
138	138	5
47	55	1
69	113	1
50	50	4
60	73	1
125	125	3
88	90	3
100	102	1
96	96	6
82	83	9
87	137	4
94	95	1
97	97	4
19	20	2
106	107	2
40	41	4
25	37	5
112	113	2
1	25	1
36	38	1
123	136	1
67	117	1
64	116	1
132	132	7
10	11	1
128	129	1
42	56	2
124	125	1
97	98	1
54	55	3
101	141	2
109	111	4
122	137	3
62	67	1
47	56	1
68	68	6
99	100	2
80	111	2
36	37	5
3	36	3
119	122	3
121	141	2
119	137	1
49	49	3
102	103	1
100	101	3
134	135	2
3	19	1
5	39	1
102	141	1
5	35	1
91	93	1
61	108	2
84	134	2
10	98	3
124	141	2
93	100	1
125	128	1
26	27	1
43	43	3
64	117	2
63	66	3
82	82	1
85	138	2
73	110	1
102	104	1
63	98	1
3	58	1
2	4	2
62	65	2
63	65	1
18	58	1
81	113	1
17	19	1
3	5	3
135	138	1
9	63	1
65	66	1
86	87	2
11	95	1
89	90	1
123	124	2
127	128	2
120	121	1
103	104	3
92	93	2
6	23	1
134	136	1
68	69	1
122	138	1
2	25	1
114	121	1
43	57	1
116	116	1
53	54	1
17	18	1
144	145	1
102	118	1
79	114	1
141	142	1
