147	148	3
21	22	8
33	33	12
46	51	1
103	103	9
105	105	5
48	48	7
50	50	9
6	7	5
21	21	7
145	145	10
134	134	8
113	113	8
1	4	2
127	148	1
137	137	2
154	154	9
150	150	17
55	55	3
81	81	2
53	54	9
11	29	3
42	45	1
132	133	2
11	11	4
43	43	12
13	13	16
123	123	7
14	14	4
77	77	7
23	23	9
158	158	9
46	49	1
117	117	8
44	44	13
146	146	1
67	67	12
86	87	2
26	26	8
68	157	2
143	143	4
138	138	5
61	61	4
131	131	2
100	100	7
62	76	2
17	17	7
99	100	3
46	46	4
136	136	8
40	40	7
65	66	7
119	132	1
151	151	7
152	158	3
120	120	12
111	111	4
31	31	6
82	82	6
121	121	7
115	117	1
18	18	1
22	23	4
126	127	4
45	45	4
34	34	7
103	104	8
16	16	3
141	141	7
109	109	7
22	22	11
155	155	6
85	86	4
134	135	4
51	51	4
102	102	4
87	87	10
28	29	4
139	141	1
91	91	4
68	68	8
96	96	5
28	28	5
101	104	6
2	2	3
101	101	4
44	45	6
73	73	4
48	49	1
126	131	6
80	155	3
25	27	3
124	125	7
155	156	3
93	93	9
135	135	5
15	15	7
144	145	3
11	19	3
83	83	9
47	47	4
115	115	10
2	5	1
84	84	3
79	79	5
103	133	2
89	89	5
39	53	3
129	129	3
26	27	14
64	66	2
35	36	3
114	114	6
141	142	1
25	138	3
36	39	2
119	119	5
121	122	4
70	70	5
21	23	3
64	77	3
16	17	4
69	69	4
71	71	3
127	130	3
149	150	6
126	126	5
80	111	4
143	150	3
82	86	2
46	50	1
49	118	1
56	56	11
79	83	1
142	143	2
106	107	1
125	125	2
68	69	1
118	119	4
143	144	3
62	70	2
64	106	5
71	76	2
28	134	1
37	37	4
18	19	3
78	78	4
68	70	4
36	36	6
115	121	2
142	142	3
31	35	2
153	153	3
40	47	2
9	13	3
28	135	4
98	98	9
20	55	1
39	39	8
24	24	3
140	142	1
40	44	2
94	95	3
8	9	7
155	158	2
110	110	7
105	106	2
36	37	2
49	49	6
83	86	1
41	41	9
24	29	3
7	7	8
73	152	1
20	21	6
157	157	2
92	94	1
80	80	7
54	65	3
0	0	1
19	19	5
148	148	2
47	52	2
51	52	2
92	97	5
152	154	3
23	24	2
153	154	3
3	4	1
12	12	2
130	130	4
21	24	2
139	139	9
94	94	9
94	122	1
146	147	3
129	130	6
92	92	4
96	98	1
106	106	6
37	55	3
52	52	6
3	3	4
86	125	1
90	90	4
62	62	2
66	66	3
15	17	3
67	68	6
128	128	4
1	17	3
124	124	3
94	96	2
3	21	2
17	21	1
154	155	2
20	45	3
87	89	4
64	64	6
54	57	2
8	16	1
116	116	5
135	136	1
41	53	1
40	45	2
99	99	6
141	143	1
128	129	1
4	4	2
147	147	5
45	50	1
50	51	7
91	92	4
9	12	3
138	139	1
132	132	3
66	150	3
156	156	4
47	51	1
32	35	2
8	10	3
100	128	3
30	30	8
70	71	1
108	108	1
82	85	2
95	95	1
7	129	1
43	48	1
1	1	1
77	101	2
131	138	1
107	107	1
133	133	1
10	10	5
123	124	1
27	27	4
9	10	6
35	35	3
29	29	1
109	110	3
124	130	1
6	6	1
13	14	1
15	43	2
145	146	4
20	22	1
8	8	4
132	138	2
20	31	2
98	99	1
123	133	2
88	89	1
95	96	2
80	82	1
67	156	1
24	36	1
28	30	2
5	5	2
85	85	6
37	38	1
111	112	7
53	53	4
115	119	2
88	88	1
3	34	2
52	53	2
138	140	1
154	157	5
3	19	1
55	56	1
32	33	1
47	48	2
21	30	2
153	158	1
119	120	2
67	157	1
24	65	1
63	63	6
80	81	2
38	39	5
9	9	2
112	145	3
67	70	2
122	122	2
112	112	4
114	135	2
135	137	1
91	133	2
41	42	2
25	25	4
118	118	3
20	47	1
114	122	4
86	86	1
19	20	1
90	91	1
108	122	1
25	29	2
45	55	1
42	42	2
80	107	1
32	117	1
22	30	1
104	104	1
81	112	1
12	13	2
25	28	2
52	54	1
63	64	1
20	20	2
8	11	3
63	158	1
50	53	1
32	32	2
140	148	3
38	38	1
0	30	1
114	137	1
3	17	1
82	90	2
82	87	1
15	16	2
158	159	2
140	140	2
65	105	1
35	38	1
12	19	1
30	47	1
123	138	1
51	61	1
78	79	1
21	42	1
52	55	1
97	97	1
