57	57	6
102	103	6
118	118	10
63	63	5
86	86	4
77	78	5
46	46	6
117	117	13
120	121	5
74	74	3
73	75	2
19	28	4
93	93	2
4	5	5
47	47	5
101	101	4
125	125	16
45	45	2
61	63	3
112	113	9
87	87	2
18	18	14
103	103	6
112	112	4
0	0	9
124	124	13
4	4	10
54	55	2
127	130	5
14	15	2
19	29	1
99	99	4
36	36	10
90	91	1
57	115	6
57	58	5
49	54	2
78	79	1
45	46	4
128	129	3
76	76	5
85	85	5
64	124	3
97	97	2
28	28	3
59	60	3
110	110	2
61	61	6
84	84	1
44	125	4
60	60	8
105	105	6
113	120	4
127	127	7
9	9	4
109	109	5
13	13	6
104	104	2
67	96	2
60	61	2
16	16	7
104	131	2
9	10	1
74	78	4
106	106	4
35	80	3
30	30	5
11	11	5
103	104	3
49	49	2
72	72	3
68	68	8
28	32	2
92	92	5
92	93	3
102	102	3
33	38	5
117	118	4
8	80	3
21	23	1
41	41	6
78	78	9
72	76	5
7	26	2
6	6	4
81	81	1
15	15	3
39	39	3
47	48	3
78	108	2
100	101	2
123	123	4
73	73	2
110	127	4
55	55	1
56	98	1
56	115	2
62	63	3
110	126	1
7	7	3
133	133	9
33	33	5
21	21	3
129	129	3
97	98	8
66	66	11
67	67	2
129	130	3
77	107	1
21	79	2
70	70	2
31	31	5
19	19	3
85	107	3
128	128	3
112	117	1
59	59	2
8	8	6
77	85	4
132	132	3
45	124	2
113	113	2
88	88	3
113	132	1
3	3	1
5	5	1
125	126	1
29	29	3
97	100	2
131	131	2
77	77	4
41	42	2
121	124	2
104	105	4
58	114	1
101	104	1
130	131	6
1	1	1
107	107	1
50	123	2
58	58	2
34	34	5
40	40	2
46	124	1
65	65	8
22	22	6
111	111	3
27	27	5
74	76	2
100	114	1
20	20	1
120	120	2
91	91	2
121	123	3
115	116	1
134	134	2
95	116	2
42	43	2
96	120	1
29	32	1
95	121	2
114	123	1
86	108	3
126	126	1
14	16	2
133	134	2
88	94	1
94	94	2
101	123	1
108	108	2
6	8	3
99	102	6
59	114	2
112	132	2
96	96	2
64	64	2
12	13	1
79	79	2
94	95	2
62	64	1
10	11	3
105	107	4
12	12	2
37	38	2
128	132	1
34	38	2
80	80	2
100	100	1
71	73	2
116	121	1
106	107	2
77	108	2
110	128	1
105	106	2
73	74	1
43	44	1
23	23	1
116	116	3
116	120	2
8	24	1
3	6	2
27	28	1
26	26	3
83	83	1
71	117	1
86	110	1
124	125	1
31	32	1
6	7	2
14	14	1
84	85	1
81	82	1
92	95	2
82	85	1
72	77	1
57	59	1
102	120	1
33	34	1
4	6	1
109	110	1
62	62	1
82	82	1
88	90	1
41	43	1
