5	5	6
64	64	6
31	32	3
56	56	5
113	135	3
45	73	1
9	10	1
141	141	13
8	8	5
159	163	5
26	26	11
137	137	4
119	121	3
17	19	1
14	14	11
30	30	5
101	101	5
34	34	4
5	24	2
49	54	3
146	146	12
31	45	2
115	116	2
133	134	7
23	23	14
68	70	2
133	133	12
15	15	4
73	74	9
117	117	5
174	175	1
76	77	2
122	122	6
121	121	8
44	44	7
74	74	17
125	125	10
112	112	5
116	116	6
173	173	3
134	134	12
156	156	18
0	0	7
105	105	6
17	17	11
67	67	13
3	3	9
170	170	9
7	7	8
121	125	3
16	16	6
166	166	2
2	4	7
86	86	11
140	140	15
153	153	10
115	115	13
81	101	3
135	167	3
155	156	1
159	159	4
142	142	7
144	144	7
150	150	7
64	65	2
19	21	4
89	89	13
19	19	7
128	128	9
145	145	11
118	121	4
11	11	3
50	50	4
13	13	7
172	172	7
76	76	3
131	131	5
53	53	11
148	148	4
95	115	3
17	59	2
53	61	5
162	162	9
83	85	1
109	109	9
71	156	5
6	6	8
111	111	12
60	61	4
142	143	5
147	148	1
135	135	7
51	51	1
8	10	1
90	90	21
98	135	4
164	164	6
60	62	1
118	118	9
132	132	3
92	94	2
36	36	6
106	106	11
40	40	6
80	80	6
171	173	3
158	158	4
87	87	8
4	13	2
176	176	13
149	150	5
102	102	4
54	55	4
12	13	9
30	31	2
42	42	7
147	147	23
14	15	5
107	107	4
21	45	3
96	96	11
167	167	8
32	32	4
68	68	6
91	91	9
52	56	1
38	38	8
137	138	10
27	30	2
73	73	5
61	61	18
80	82	2
42	43	7
102	125	3
160	160	3
33	33	6
161	161	7
179	179	7
88	89	3
114	116	4
160	161	3
89	100	4
180	180	5
128	129	2
78	78	4
29	29	4
141	150	1
79	129	2
146	147	3
4	4	2
59	67	3
92	92	4
75	75	8
71	72	5
81	81	3
94	94	8
54	54	7
77	77	8
56	88	1
127	127	7
94	95	1
102	103	2
109	165	3
22	23	8
43	80	2
173	174	10
111	129	7
123	123	5
37	38	11
2	2	5
65	65	13
157	157	6
57	57	7
65	83	1
129	130	4
124	124	19
154	160	3
114	126	1
52	53	4
107	108	6
116	118	1
9	9	8
89	93	4
93	93	3
122	123	2
163	170	2
80	81	3
175	175	2
171	172	5
39	42	1
124	125	2
130	130	3
97	98	6
10	10	7
59	59	8
161	162	3
67	90	1
178	178	5
126	126	9
168	168	12
20	21	1
113	113	4
99	99	3
108	108	3
120	120	6
73	75	7
8	12	4
116	122	1
118	119	2
35	36	1
88	99	4
166	167	2
171	171	13
83	83	4
55	56	2
24	24	8
79	79	16
52	52	6
1	3	4
121	126	2
72	72	3
152	152	9
63	63	6
21	21	3
24	26	2
131	132	2
103	103	6
5	40	1
39	39	4
35	40	2
143	143	7
132	133	5
40	41	7
4	22	1
22	22	2
108	157	1
95	95	1
97	129	1
123	124	2
127	159	2
167	177	2
55	159	3
141	175	1
54	68	2
117	119	2
108	147	3
108	148	2
98	98	3
124	137	1
41	41	4
37	37	15
125	128	1
172	175	3
74	77	3
117	130	1
72	76	2
82	100	1
35	35	5
66	67	2
100	101	1
114	114	4
91	93	2
78	79	7
3	130	1
11	18	6
74	75	7
84	84	2
96	133	1
81	106	1
55	55	2
92	107	2
82	136	2
55	87	1
27	27	4
55	60	1
43	43	3
18	18	4
145	146	2
77	78	5
86	87	4
174	174	6
27	42	2
108	149	1
65	68	2
110	110	6
146	151	1
97	97	5
132	174	4
80	90	3
139	140	1
28	29	3
26	39	3
62	63	5
57	155	1
111	112	4
3	16	1
18	19	2
83	84	4
138	138	7
82	99	2
5	7	1
33	34	1
99	136	2
126	142	2
17	18	4
43	44	2
163	163	2
140	145	5
96	97	2
60	60	2
112	114	4
108	137	1
111	179	3
169	169	4
151	153	2
7	8	1
121	122	2
66	66	4
71	71	7
4	20	1
138	176	2
109	110	4
59	61	1
103	104	1
64	101	1
94	110	2
168	170	1
36	38	2
112	136	1
127	128	2
148	149	2
165	165	2
167	171	2
119	144	1
125	126	2
140	142	1
119	120	2
168	171	3
155	155	2
137	139	1
56	57	2
68	135	1
2	3	2
75	91	1
79	80	1
88	88	3
32	33	1
6	9	2
6	7	1
110	111	2
37	51	1
56	58	3
96	98	1
108	109	5
50	54	2
165	166	4
172	179	1
24	25	3
112	131	1
151	152	2
149	149	5
89	90	1
57	58	2
134	179	2
124	145	1
21	29	1
24	95	5
97	145	2
119	142	2
25	25	2
2	18	2
67	71	2
49	62	1
31	31	9
98	102	2
64	66	3
16	90	1
139	139	3
8	44	1
21	32	1
15	16	1
129	129	2
92	93	1
118	137	3
0	1	1
144	145	3
153	159	1
170	173	2
2	14	2
111	127	1
99	101	2
58	58	2
65	66	3
154	173	2
23	24	1
132	175	1
88	92	1
96	102	1
151	151	2
38	61	1
151	175	1
53	54	2
115	117	1
147	153	3
91	100	1
7	38	1
85	160	1
117	155	1
107	149	1
45	45	2
90	91	2
4	7	2
20	20	2
85	85	3
93	116	2
126	163	1
90	92	3
1	18	2
127	141	1
49	49	1
62	62	2
177	178	1
175	176	1
32	41	1
28	28	1
60	64	2
75	80	1
141	142	1
44	59	1
72	73	1
154	154	2
12	20	1
100	100	1
10	24	1
45	46	1
134	135	1
51	52	1
137	166	1
52	54	1
79	162	1
164	165	2
139	141	1
162	171	3
135	136	1
93	94	1
34	88	1
119	119	2
104	114	1
64	102	1
138	139	1
80	162	1
123	125	1
169	172	1
136	136	3
65	74	1
89	92	1
126	127	1
31	89	2
143	144	2
12	12	1
138	141	2
14	17	1
79	81	1
168	169	1
16	17	1
117	128	1
90	93	1
30	32	1
105	106	1
0	37	1
172	173	1
82	83	1
91	92	1
