134	135	4
52	52	20
50	50	10
111	113	3
184	184	9
104	105	3
106	107	8
53	53	5
37	72	4
122	122	4
45	45	8
73	73	5
65	66	5
61	63	2
179	185	1
43	44	2
124	125	8
160	181	1
73	77	1
190	191	7
102	102	8
171	171	9
141	141	14
149	149	6
48	184	3
42	45	2
72	72	11
121	159	1
175	175	4
123	123	6
181	186	7
57	57	5
5	5	1
28	28	2
169	169	12
121	122	9
38	38	4
188	188	3
178	178	6
36	36	8
120	120	1
158	179	5
127	127	14
65	65	10
82	82	6
168	169	10
33	33	5
171	172	4
39	41	2
42	43	4
44	44	14
64	72	3
117	117	5
80	80	3
70	70	6
26	26	4
77	79	1
136	137	1
187	187	5
33	35	2
64	64	9
155	155	12
36	73	1
156	183	1
20	21	3
182	183	12
152	180	4
142	149	5
179	179	12
19	19	7
81	81	6
41	42	7
2	83	1
196	197	3
119	120	1
87	131	4
54	55	9
7	7	1
85	85	16
58	58	3
140	165	4
6	7	4
11	11	7
144	146	1
131	131	5
24	24	3
59	61	6
142	151	4
169	181	3
83	84	1
191	191	4
109	114	1
145	145	13
191	193	6
158	158	10
21	77	6
98	106	6
43	45	2
43	43	2
34	36	4
12	14	7
123	142	3
47	47	3
37	37	5
8	9	10
127	159	5
69	70	2
124	140	2
154	154	9
84	84	2
176	177	8
130	131	5
46	46	6
67	67	6
42	44	2
177	178	1
132	157	2
180	180	5
31	31	10
134	134	3
78	78	3
136	156	2
108	108	5
105	105	5
135	135	7
124	124	9
60	60	5
59	59	3
62	63	6
42	42	5
32	32	12
178	179	6
85	86	4
100	136	1
55	55	10
22	22	3
142	143	3
181	181	5
132	133	4
103	104	2
151	152	6
189	189	10
193	193	7
82	83	2
142	142	7
190	190	3
93	137	4
64	70	1
4	4	7
8	8	10
15	52	2
32	33	4
115	138	1
194	194	12
146	146	2
126	126	4
60	62	3
137	137	1
144	144	4
6	6	5
126	127	6
68	68	3
112	112	4
97	97	7
192	193	1
154	157	5
121	138	1
158	159	4
185	185	3
13	13	11
2	2	1
84	85	8
94	197	3
70	71	2
110	110	4
132	167	1
41	41	8
33	34	12
160	160	3
118	119	4
113	113	4
56	56	2
83	83	2
17	82	1
170	170	3
129	131	1
167	168	2
10	10	7
23	24	2
16	17	6
48	49	1
150	150	1
54	54	15
105	106	4
114	114	3
132	132	10
3	3	3
162	162	1
57	64	5
56	64	1
122	124	4
137	140	3
115	115	11
33	73	5
107	108	2
166	189	5
59	128	1
40	177	1
31	74	2
134	155	2
128	128	5
24	148	1
74	74	6
30	30	5
109	109	6
172	172	5
87	87	6
98	98	4
122	159	1
15	16	8
10	11	2
155	156	4
20	20	7
13	50	2
114	138	2
16	80	1
146	148	2
71	71	7
197	197	5
108	113	1
93	93	3
102	103	2
59	60	5
63	64	3
100	101	2
2	5	1
12	12	4
127	128	2
99	99	5
3	154	1
116	117	2
182	182	4
18	18	11
154	155	6
106	106	3
156	156	8
138	138	6
15	15	4
53	54	5
170	171	2
9	10	2
111	111	2
77	78	2
11	65	1
16	16	7
168	181	3
88	88	2
147	147	2
40	43	2
107	114	1
192	192	7
1	1	2
125	125	2
130	133	1
151	151	2
133	134	7
25	26	2
51	74	1
60	61	1
186	186	7
95	96	1
131	167	3
31	52	3
183	183	5
159	159	3
182	184	1
186	187	2
49	49	5
48	48	5
25	25	3
79	79	6
136	140	1
76	76	1
165	166	5
61	62	2
55	57	1
143	143	1
116	116	4
66	66	7
159	160	2
73	75	3
53	56	1
58	61	2
104	104	4
174	175	1
17	25	3
179	186	2
143	148	3
54	57	1
14	15	1
30	32	2
149	150	2
153	180	3
40	175	3
86	87	2
61	61	2
87	109	2
55	56	2
27	27	1
86	86	1
76	77	1
153	153	5
7	8	2
65	67	2
115	139	1
28	30	1
23	70	1
14	51	2
167	167	3
100	115	1
143	144	1
177	177	3
128	138	1
196	196	2
9	9	3
51	51	4
71	72	2
138	139	3
63	83	1
115	118	3
38	73	1
119	119	4
136	136	1
181	182	1
3	9	2
168	168	4
40	41	4
4	7	4
171	192	2
1	2	2
163	164	1
121	121	3
11	12	1
109	119	2
131	161	2
180	186	1
187	188	3
48	183	3
62	62	4
39	154	2
17	17	1
100	100	2
39	39	2
88	138	1
34	34	3
144	147	3
164	167	3
152	152	3
94	94	1
49	57	2
135	157	1
127	129	1
195	195	1
148	149	2
8	28	1
142	184	1
89	89	4
112	114	1
166	166	2
14	14	2
34	37	1
130	130	2
121	137	3
98	111	1
109	113	1
81	82	2
70	72	1
112	119	1
185	186	2
101	101	3
31	32	1
21	22	1
176	176	3
129	129	1
89	107	1
3	39	1
126	128	1
193	194	1
139	140	1
169	170	2
139	139	3
47	48	2
95	98	1
14	52	2
14	30	1
24	25	3
157	157	1
23	23	1
72	73	1
133	133	2
93	95	1
47	124	1
50	55	2
107	107	1
155	184	1
78	79	1
177	180	1
54	130	2
30	31	1
51	52	1
38	46	1
33	81	1
160	190	1
81	119	1
154	158	2
14	50	1
180	181	2
195	196	1
59	87	1
126	139	2
69	80	1
151	159	1
116	119	1
169	172	1
6	26	1
20	24	1
118	118	1
77	77	1
48	50	1
13	14	1
23	27	1
93	94	1
110	111	1
116	118	1
53	85	1
