30	30	2
84	106	4
6	18	3
13	14	5
82	82	3
95	95	10
10	10	4
18	18	6
102	138	1
113	113	3
152	152	3
95	113	2
17	17	7
129	129	4
130	130	21
138	138	9
5	30	4
55	57	7
96	96	17
31	34	2
57	57	3
15	15	8
24	54	1
81	83	5
126	126	4
73	73	8
100	100	8
105	106	7
134	134	3
54	54	2
4	8	6
48	48	12
128	128	3
54	76	3
66	66	9
91	94	5
132	132	7
117	122	3
135	135	13
28	28	9
65	72	4
96	98	4
133	133	9
76	76	4
14	14	1
65	65	3
93	93	3
12	13	2
74	74	4
16	17	2
109	109	6
100	101	8
137	137	4
8	8	10
145	145	9
36	36	4
146	146	6
143	143	6
85	85	3
119	122	2
21	23	2
131	131	3
98	98	7
78	78	5
103	103	8
106	106	8
110	110	5
99	99	2
41	53	1
53	53	9
115	115	7
67	67	4
41	41	8
53	54	2
111	112	1
94	94	1
147	148	4
111	111	3
104	104	9
111	143	2
112	113	13
140	142	2
142	142	4
13	13	7
117	118	5
85	86	2
23	24	1
98	105	3
12	12	11
62	78	2
101	127	5
21	21	8
152	153	6
135	136	4
69	120	3
40	40	3
148	148	9
63	81	5
56	56	9
69	69	3
5	6	2
97	97	5
75	75	4
36	58	3
144	144	2
76	79	2
136	136	2
13	27	4
70	70	8
139	139	6
153	153	5
113	133	1
118	118	8
7	7	4
139	146	1
119	119	5
34	38	2
123	123	4
4	18	4
46	46	7
80	83	3
40	48	1
84	85	2
6	19	3
26	26	8
124	124	7
58	58	2
24	24	8
30	32	2
14	110	2
143	145	3
71	71	5
136	137	4
144	145	3
97	117	2
65	67	2
29	30	2
20	20	7
117	117	2
4	4	1
68	68	14
29	29	10
100	102	4
3	11	2
20	32	1
120	121	3
8	11	3
50	58	3
123	126	3
99	119	2
114	114	2
122	122	3
66	129	2
17	18	2
19	19	3
39	40	2
151	151	4
86	86	5
116	116	1
123	139	2
108	108	4
9	9	2
33	51	2
133	134	4
142	146	10
39	39	9
31	31	5
147	147	1
33	34	3
44	45	2
107	107	6
23	23	2
50	50	2
22	28	2
127	127	9
16	16	2
57	58	2
43	45	3
154	154	4
14	15	3
38	38	6
105	105	3
81	85	1
63	63	1
22	25	1
40	77	2
34	36	2
15	112	3
106	112	2
79	88	1
15	110	2
120	150	2
31	83	5
34	34	3
42	69	1
43	43	6
107	112	3
64	66	1
35	35	2
37	37	3
87	87	4
134	139	2
48	49	3
5	5	5
22	23	6
43	74	2
19	20	2
81	82	6
6	6	4
42	68	1
80	106	1
87	88	1
73	76	3
102	102	3
125	139	1
26	27	2
124	125	2
120	120	2
11	27	2
51	55	1
44	44	5
104	128	2
15	26	2
115	125	1
63	69	3
38	58	4
78	84	1
9	12	2
7	9	3
83	83	1
37	46	1
149	149	3
125	125	6
72	72	3
118	122	1
17	37	4
33	33	3
41	42	1
72	73	4
32	32	3
31	131	2
98	99	1
150	150	1
77	78	1
64	74	1
17	36	1
66	67	1
86	106	1
106	111	1
120	133	3
65	66	1
16	110	1
49	49	2
13	42	2
85	87	2
77	77	1
25	25	2
25	27	1
122	123	1
87	106	1
37	45	2
32	83	2
84	84	1
109	144	1
94	111	2
39	64	2
121	121	1
108	138	1
41	67	1
120	122	1
118	121	1
43	44	2
64	64	5
22	22	2
4	5	1
27	28	1
79	79	3
41	43	1
34	85	1
29	40	3
26	28	1
122	141	1
123	124	1
55	55	1
42	42	2
80	113	1
9	27	1
5	7	1
27	27	1
75	76	1
2	2	2
134	152	1
148	153	2
132	133	1
121	122	1
149	151	1
15	16	2
69	70	1
43	46	1
34	51	1
8	28	1
