15	15	9
97	97	5
21	21	10
77	77	8
16	16	8
79	80	6
120	121	2
33	33	10
132	132	15
57	57	17
125	125	7
46	46	9
32	33	1
53	53	16
123	123	14
120	120	13
109	109	17
39	39	2
8	8	12
76	95	4
83	83	8
16	49	9
0	0	7
64	64	4
44	44	3
114	114	11
127	128	3
28	30	6
67	67	10
34	34	5
99	99	6
44	54	5
24	25	1
108	116	2
11	12	7
46	55	4
107	118	5
10	10	6
9	9	5
71	71	4
112	112	21
121	121	5
75	75	17
2	2	6
89	89	8
2	3	8
88	88	14
62	62	4
30	30	11
111	111	6
75	77	2
90	90	7
124	124	9
115	115	5
68	68	2
14	14	8
126	126	8
78	78	6
52	52	7
93	93	13
75	76	3
104	105	15
40	54	3
82	82	7
40	40	2
131	131	3
118	119	1
100	100	6
63	64	3
56	56	6
28	28	5
98	98	4
90	92	2
80	80	8
13	15	1
72	76	1
58	58	2
132	133	1
41	43	5
104	104	11
67	97	1
115	118	1
117	117	6
94	97	2
123	124	7
4	4	4
85	85	3
63	63	13
5	5	6
93	94	5
76	76	5
11	14	2
4	13	3
46	47	4
8	10	4
107	114	6
6	6	11
11	11	6
26	26	14
103	103	3
70	125	1
1	2	2
62	63	2
70	71	5
106	106	3
12	12	10
107	111	2
60	60	1
6	7	3
64	65	4
1	1	6
69	69	4
39	47	1
103	108	2
118	118	5
98	99	1
50	51	2
22	22	8
15	16	4
23	23	4
61	61	3
88	97	3
59	60	1
13	13	1
65	66	2
61	92	5
116	116	3
5	14	4
9	10	1
108	108	10
43	43	7
94	94	6
70	70	10
54	54	6
100	102	1
92	93	6
21	22	4
83	84	4
86	86	4
18	18	4
44	46	5
58	59	3
54	56	1
91	92	3
12	13	1
96	96	5
65	65	3
55	59	9
49	50	5
39	40	2
129	129	11
73	73	7
97	98	8
50	50	4
25	25	3
102	102	4
16	18	3
82	84	1
2	27	1
133	133	4
92	92	5
54	55	1
3	3	6
19	19	1
16	39	3
110	120	1
39	56	4
66	66	4
72	72	7
55	55	3
48	48	1
41	41	3
95	95	5
88	90	2
105	105	1
49	49	3
130	130	4
42	42	1
103	115	1
27	29	1
81	82	1
41	42	1
66	119	2
56	57	2
14	15	1
72	77	2
115	117	1
28	29	2
101	101	4
7	7	8
17	17	2
3	6	1
56	59	1
18	19	4
79	79	1
98	101	1
126	128	2
110	110	4
47	47	3
69	70	2
113	113	3
4	25	1
43	44	3
66	120	1
51	51	4
38	58	1
126	131	2
86	87	2
109	116	2
100	101	1
109	118	4
87	87	4
41	44	1
42	63	1
82	83	1
84	88	2
74	74	2
52	53	3
33	34	2
57	58	2
68	124	2
76	77	1
45	45	1
7	49	3
13	14	1
23	24	3
99	102	2
20	20	3
24	24	5
9	24	1
69	98	1
107	107	2
121	122	3
116	117	2
110	111	3
29	31	3
70	99	1
29	29	1
119	119	3
38	47	1
5	6	1
107	119	1
79	81	2
105	106	1
38	38	1
73	79	1
106	115	1
99	119	1
87	88	1
47	54	1
111	112	2
7	10	2
131	132	1
72	74	1
95	96	1
10	12	1
122	123	1
22	34	1
66	69	1
88	93	1
91	91	1
66	70	1
114	116	1
88	96	1
89	90	1
