85	86	3
103	120	3
70	70	5
120	120	4
54	58	5
115	115	7
63	63	7
119	120	4
89	89	4
45	45	16
64	64	14
27	27	6
98	100	3
91	91	6
114	115	11
34	34	11
45	60	6
135	135	5
114	114	6
16	16	18
15	15	12
60	60	14
118	118	6
7	7	9
0	0	21
98	98	5
58	59	9
60	61	5
127	127	6
87	87	15
31	31	7
17	17	6
12	13	4
91	92	2
133	133	3
71	72	6
109	109	5
108	121	3
85	124	3
93	93	5
61	61	3
128	128	3
97	97	8
113	117	7
122	123	12
133	134	7
106	107	7
21	21	10
68	68	6
4	4	9
79	79	6
14	14	1
92	92	7
49	56	4
73	73	6
43	43	11
76	76	15
100	100	12
72	72	21
48	48	5
97	100	6
14	15	6
64	111	2
68	69	2
53	53	12
126	126	8
89	90	1
75	76	7
23	24	2
1	2	3
122	122	1
33	33	11
50	50	2
80	131	1
65	65	6
1	1	12
105	105	8
104	105	3
113	113	8
102	102	6
28	29	8
92	93	2
95	101	7
99	100	4
61	62	3
131	131	4
112	113	6
78	78	4
106	106	10
28	28	14
10	11	5
71	71	8
96	96	8
5	5	19
86	87	5
13	13	5
11	114	1
102	103	4
3	3	10
9	38	2
128	129	5
132	133	1
24	24	9
17	25	2
90	90	5
56	56	7
111	125	3
32	32	11
11	18	1
86	86	5
35	37	4
54	54	14
49	49	3
104	120	1
119	119	8
11	13	2
80	81	4
12	12	9
32	33	5
6	6	15
29	29	3
88	88	5
10	10	4
112	123	2
36	37	4
116	121	1
108	110	3
113	124	2
107	108	1
15	16	1
130	130	6
11	14	9
65	69	2
108	125	2
126	127	8
123	124	6
90	121	3
79	127	2
14	18	1
97	98	3
30	30	6
110	110	6
116	116	15
95	95	4
50	105	2
117	117	2
39	45	2
22	22	7
103	103	3
44	44	1
52	109	3
43	44	3
99	99	5
111	111	5
95	127	1
95	96	4
121	121	4
5	7	2
69	69	4
74	74	4
88	89	1
66	67	8
31	32	2
25	26	2
113	121	1
104	104	2
4	37	3
8	44	3
13	17	1
94	94	3
105	121	4
48	50	5
49	50	3
83	83	7
33	34	5
35	36	1
124	124	3
110	124	2
69	81	2
92	129	1
5	6	6
87	121	3
77	78	8
81	81	3
109	110	3
27	28	4
94	95	2
69	77	1
57	58	2
52	52	1
129	129	8
57	57	5
56	57	6
47	47	2
35	35	3
134	134	8
83	84	1
59	59	5
101	102	3
90	91	3
67	67	3
19	19	4
20	20	2
52	106	3
28	60	4
117	121	2
77	77	6
129	131	1
29	60	4
27	33	1
112	112	2
7	34	2
3	11	3
47	57	3
25	25	6
50	56	4
4	26	2
20	24	1
87	122	2
8	9	2
66	66	1
48	55	1
85	85	2
22	23	2
63	64	2
30	33	4
71	75	1
2	2	2
78	84	4
46	46	2
26	27	2
80	80	2
45	47	1
87	91	1
86	130	4
54	55	1
103	104	2
11	11	5
28	54	1
59	60	1
132	132	1
75	75	3
77	79	2
52	121	2
87	127	4
84	131	1
34	35	1
49	55	1
7	14	2
64	65	1
84	85	1
131	133	2
107	107	2
6	7	3
55	55	1
38	38	2
105	117	2
65	66	1
79	133	1
86	106	1
37	38	1
26	26	1
106	123	1
124	125	1
58	58	1
23	23	1
3	26	1
36	36	1
113	116	1
79	82	1
35	38	1
18	18	1
94	99	1
84	84	1
45	61	1
5	26	1
8	8	1
