60	60	13
52	95	5
99	99	10
46	48	1
42	43	4
82	82	9
22	43	2
83	84	1
85	85	5
68	69	4
83	83	6
24	24	14
96	96	11
106	106	5
72	73	3
99	100	6
26	26	7
37	37	8
21	65	2
55	55	4
33	33	5
43	43	4
91	91	6
94	94	4
86	86	9
60	101	2
34	34	13
28	28	12
23	24	4
89	89	5
27	27	3
49	49	6
70	70	9
78	79	3
46	78	4
27	73	3
27	28	6
29	79	5
97	97	9
73	74	7
73	73	11
93	93	11
65	65	12
45	45	7
68	68	10
52	52	9
80	81	1
92	92	10
106	107	2
93	96	2
51	51	10
22	48	2
62	63	4
57	57	8
32	32	3
105	105	5
77	89	3
51	53	2
36	37	5
30	30	4
64	64	7
95	95	11
71	73	3
53	53	14
77	77	13
91	92	3
102	102	8
42	42	8
86	87	3
82	83	5
37	38	2
69	90	1
35	35	6
38	38	7
58	58	7
72	72	4
57	58	2
85	86	4
67	67	10
101	102	4
51	52	1
93	94	1
100	100	6
74	75	5
39	40	1
21	21	10
60	66	1
30	62	4
43	44	2
23	23	3
32	68	4
79	79	6
23	41	1
95	96	1
77	78	8
27	77	3
71	71	5
101	101	6
36	83	4
84	84	6
90	90	4
74	74	3
56	56	2
22	42	4
44	44	5
104	105	2
50	69	3
53	54	2
98	98	5
63	68	2
32	33	4
49	50	1
61	94	2
89	90	2
45	49	2
52	53	4
75	75	1
59	90	1
103	103	3
26	28	2
60	62	1
78	78	6
69	70	4
31	31	4
80	87	2
79	80	3
98	106	3
88	90	2
76	77	6
71	106	1
88	89	3
88	88	6
21	23	1
48	48	4
81	81	3
68	104	1
60	61	1
20	23	1
66	69	1
36	36	6
24	39	2
50	50	2
64	65	2
51	97	4
43	45	1
21	39	2
87	87	6
47	47	5
69	76	2
21	53	1
22	22	2
55	64	2
20	20	3
76	76	3
70	71	3
39	39	3
40	41	2
66	68	3
61	62	1
98	107	1
33	34	1
94	95	3
96	102	2
45	46	1
98	99	2
29	29	4
46	46	1
48	49	2
22	61	1
100	106	1
69	69	4
66	66	1
59	60	1
62	62	11
76	90	2
61	61	3
83	86	2
82	87	1
71	93	3
54	57	1
20	61	1
35	36	1
54	54	4
90	92	1
66	67	4
104	104	3
41	41	2
26	106	2
59	59	3
27	94	1
24	27	1
80	80	3
84	86	1
102	103	3
51	71	1
60	96	1
92	104	2
27	98	1
32	34	1
34	36	1
21	48	1
21	82	1
56	67	1
50	51	1
26	98	2
25	25	2
63	65	1
35	90	1
62	64	3
90	91	1
67	68	3
100	105	1
63	63	2
58	60	1
21	91	1
99	101	1
87	88	1
74	78	1
44	46	1
60	71	1
57	68	1
20	59	1
20	80	1
80	88	1
70	72	1
22	29	1
