145	151	3
107	107	7
148	148	6
9	10	2
25	57	3
78	78	1
94	94	3
5	5	2
110	111	1
107	119	1
68	68	5
22	22	7
56	56	4
116	116	8
42	42	7
26	27	5
141	141	1
62	152	3
133	133	2
55	55	2
22	43	1
41	45	2
96	96	7
6	50	1
6	12	4
32	32	1
129	129	3
112	112	6
119	119	1
2	3	1
66	128	1
140	142	2
65	65	4
126	126	3
12	12	9
82	94	1
119	122	3
99	102	2
45	45	1
137	137	3
18	18	7
124	125	3
41	41	5
121	122	2
32	34	3
83	83	2
151	152	4
132	132	4
132	133	1
64	102	3
91	106	1
48	53	4
137	138	1
126	127	1
102	123	4
106	106	1
68	130	4
46	62	4
142	142	2
11	22	1
26	26	5
48	48	9
141	142	1
95	96	8
43	43	8
92	121	5
39	39	2
86	94	1
98	104	5
109	109	1
85	85	4
20	21	2
76	128	2
152	152	1
24	24	4
86	86	2
125	125	1
100	123	1
37	37	1
129	144	2
63	63	2
87	87	1
131	131	2
58	58	3
99	99	2
4	26	2
79	92	3
14	14	1
101	102	1
44	45	2
90	93	2
110	110	2
73	75	5
32	131	3
144	144	5
3	31	2
64	128	1
17	18	2
104	104	4
67	67	5
133	134	2
150	150	1
87	91	1
78	143	1
71	102	1
11	11	1
65	66	3
106	128	1
19	19	6
18	19	8
81	84	2
118	118	4
26	32	3
40	41	1
21	21	1
8	34	3
129	130	3
8	8	2
66	145	5
66	66	1
98	99	2
74	75	1
125	151	1
100	101	2
121	121	3
64	64	4
48	62	1
12	25	1
137	144	1
92	93	4
50	66	1
123	124	1
11	42	1
75	75	2
109	117	1
125	128	1
138	138	1
78	79	2
113	114	1
125	126	1
62	62	2
82	82	1
55	56	1
54	54	1
7	14	1
130	130	1
118	149	1
80	81	4
71	110	1
106	109	2
149	149	4
123	123	1
122	126	1
14	21	2
4	4	1
115	116	1
31	31	2
98	98	1
31	58	1
15	16	1
11	34	1
79	80	1
79	99	2
77	80	1
124	149	1
84	88	1
20	20	3
100	100	1
120	120	2
70	70	2
135	135	3
81	81	1
4	51	1
67	68	1
117	129	1
56	126	1
6	14	1
103	104	1
63	64	1
79	83	2
113	149	1
17	17	1
103	103	1
8	28	1
134	135	1
145	145	1
93	93	1
94	97	1
66	68	1
69	130	1
98	105	1
12	15	1
100	104	1
9	12	1
