18	18	13
120	120	3
130	131	5
28	29	1
10	10	3
70	77	4
119	120	2
106	107	10
99	99	9
55	55	2
154	154	4
80	80	2
23	23	4
91	91	8
21	21	7
50	53	6
96	97	1
82	82	4
22	24	3
24	24	4
100	100	13
115	118	1
32	32	4
150	152	2
2	2	8
96	96	5
129	129	8
111	111	13
93	154	3
12	12	6
133	135	4
2	42	2
123	123	4
13	20	2
127	127	6
125	126	2
41	41	8
20	20	4
67	67	10
133	133	6
13	13	9
45	47	1
43	43	8
125	125	3
38	39	2
120	141	4
115	115	4
15	15	3
122	122	4
90	90	4
22	23	9
137	144	2
43	44	6
122	141	4
28	28	6
81	82	2
119	119	5
145	149	6
19	19	3
73	75	2
97	98	1
78	78	2
36	36	5
87	112	4
117	117	3
64	64	8
19	20	2
149	149	5
122	123	1
155	155	4
118	120	1
85	86	3
80	81	5
8	21	2
131	131	3
30	30	10
0	1	3
142	142	3
82	83	6
3	3	4
116	134	2
79	111	2
29	29	2
69	70	2
150	150	10
55	56	3
150	153	2
144	145	1
124	125	2
38	38	14
116	116	8
141	141	4
35	36	4
156	156	4
8	8	4
33	34	6
46	46	4
40	40	4
72	112	4
117	137	2
22	26	1
82	111	9
87	89	4
3	34	1
69	108	3
107	108	9
76	80	2
140	141	3
51	78	3
26	26	2
69	69	1
124	124	4
39	39	7
68	68	11
135	135	2
100	103	3
139	139	12
137	137	4
44	50	2
102	102	5
22	25	3
23	24	3
40	42	4
118	118	1
1	1	2
11	12	6
77	77	9
33	33	2
114	115	3
99	100	4
130	130	4
95	95	22
97	127	1
129	132	2
7	7	5
109	110	1
6	6	2
112	112	6
100	102	5
79	79	7
42	43	3
138	154	7
136	137	5
47	66	3
139	140	3
120	121	3
123	124	2
113	118	1
113	119	2
132	132	3
87	120	1
106	119	3
31	31	4
114	119	2
108	108	2
103	103	4
83	83	8
114	114	7
21	26	1
128	128	3
147	154	2
68	107	5
44	44	3
65	66	2
88	88	3
129	131	4
49	49	3
94	94	7
47	47	3
93	93	2
7	11	1
144	155	2
151	151	2
87	141	2
157	157	2
77	78	5
94	98	2
105	105	4
98	98	3
140	140	3
103	105	1
86	89	3
37	38	1
56	56	2
9	10	3
104	104	6
92	94	1
148	148	2
89	112	1
42	42	6
126	127	1
47	48	3
24	29	2
98	101	4
143	144	3
135	137	1
35	35	4
109	109	5
6	7	1
146	146	14
87	87	5
10	11	4
104	105	2
54	54	5
98	128	3
92	93	1
97	97	2
114	130	5
138	138	4
91	127	2
73	111	1
61	63	3
68	69	1
95	96	2
73	77	1
38	40	1
113	114	3
9	9	3
65	65	3
144	154	1
69	107	2
81	81	2
107	107	1
147	147	3
4	4	1
45	49	2
83	101	1
137	138	1
137	146	4
121	122	2
135	136	2
134	134	2
8	9	3
132	135	1
22	22	2
84	84	1
50	51	3
152	153	1
39	41	2
13	14	1
83	111	3
0	0	1
155	156	4
79	81	1
24	25	2
50	50	2
151	152	1
91	122	2
66	105	1
34	34	2
118	119	3
17	17	3
5	5	2
87	128	3
18	19	1
93	94	2
21	22	2
151	155	1
48	48	4
70	70	3
7	27	1
27	27	3
45	45	2
9	53	1
147	149	3
29	30	3
71	72	3
92	92	3
126	126	2
12	16	4
9	30	2
111	129	2
156	157	1
70	78	1
138	148	1
147	155	1
13	15	1
90	91	1
133	134	2
110	110	2
146	147	2
76	76	1
127	128	2
94	151	1
136	136	1
53	53	2
21	23	1
90	127	1
110	111	1
41	43	2
124	126	1
100	101	1
79	80	1
111	112	1
158	158	2
142	145	2
25	26	1
37	54	1
50	77	1
1	2	1
56	64	3
152	152	1
61	61	1
103	104	1
66	70	1
75	75	3
147	148	1
12	13	1
93	152	2
148	149	1
15	16	1
77	81	1
27	28	1
96	124	1
105	106	1
52	52	1
