163	163	10
214	215	3
27	28	2
226	229	5
211	211	6
79	79	11
50	75	1
231	231	7
14	14	4
76	76	3
163	164	7
9	9	8
213	229	3
170	185	2
229	229	7
68	68	11
42	42	18
243	244	6
51	56	5
66	68	1
112	112	9
189	189	6
215	215	8
175	175	3
81	81	6
220	220	6
105	105	2
160	160	7
23	24	5
216	216	6
37	37	8
43	43	3
15	16	2
2	2	4
23	27	2
114	115	2
5	50	2
113	113	1
110	110	14
57	64	2
41	41	9
34	34	7
3	3	3
209	209	7
151	151	4
234	234	7
155	155	3
173	209	2
184	184	5
241	241	8
233	234	2
245	245	5
202	202	5
92	92	7
58	59	1
185	186	5
177	177	3
15	15	6
186	187	1
192	211	6
171	171	10
59	62	3
207	207	1
77	79	2
201	201	4
230	230	7
118	118	3
64	64	12
116	117	2
94	111	1
232	233	1
84	84	11
44	44	10
172	172	5
198	198	1
52	90	1
47	51	2
8	9	3
87	88	2
198	199	2
153	153	1
102	103	5
8	8	9
99	99	14
170	172	2
160	161	9
44	46	1
193	193	7
197	198	2
174	175	2
227	229	3
208	208	3
159	159	8
45	45	6
18	18	9
164	200	2
22	22	11
109	109	9
100	117	3
154	154	1
89	89	10
226	227	1
183	183	3
146	147	1
96	99	2
219	219	6
188	188	3
242	246	2
52	52	4
153	154	6
100	100	5
196	197	2
248	248	3
3	31	3
193	194	2
65	65	9
59	59	8
181	181	4
72	72	7
180	182	1
83	86	6
11	11	5
112	113	2
74	80	3
167	167	5
186	208	1
212	231	1
169	170	1
191	191	4
107	107	4
85	85	4
119	120	4
157	157	4
217	217	4
82	82	3
220	222	2
176	176	8
240	241	5
243	245	1
17	20	1
73	75	2
213	242	1
65	71	1
45	46	6
152	153	1
169	169	8
88	88	6
75	81	2
72	84	1
187	187	6
210	210	6
103	104	2
111	111	3
12	205	1
38	40	1
150	244	2
170	170	3
179	180	1
56	56	5
48	48	3
150	150	5
167	168	3
6	6	6
21	21	2
185	185	9
73	80	2
172	191	2
212	213	1
168	168	2
184	185	2
84	85	2
164	164	5
67	68	7
94	97	1
85	88	1
244	244	5
152	232	3
27	27	7
187	188	4
114	114	4
14	228	1
48	50	2
165	168	2
161	162	1
61	62	2
192	192	7
165	165	6
94	98	4
73	73	2
10	244	1
218	218	1
183	184	6
203	203	5
67	67	6
214	216	4
65	75	2
224	224	1
5	49	1
90	90	2
156	156	7
222	222	5
101	101	1
119	119	1
201	231	2
181	182	1
212	212	3
38	38	5
55	55	6
229	244	1
35	35	3
25	26	2
74	75	2
213	214	2
232	232	3
204	204	3
19	19	4
4	4	1
57	57	3
33	34	4
163	201	1
235	235	2
200	200	2
28	28	8
55	57	3
69	69	5
70	72	1
239	239	4
102	104	1
58	66	4
239	240	3
93	93	9
87	87	8
88	109	1
237	237	5
60	62	1
144	145	1
94	107	2
81	237	1
12	15	2
35	235	1
32	32	3
53	54	7
96	96	7
58	60	4
197	197	5
83	83	1
100	154	1
12	12	1
204	205	3
26	43	3
71	71	5
20	21	4
216	241	2
30	34	1
3	4	2
87	100	3
233	233	2
70	70	9
7	7	6
179	179	5
85	86	1
199	199	3
94	94	3
182	182	9
238	247	2
111	112	3
120	120	4
40	40	7
173	173	4
163	168	2
106	106	4
95	96	1
205	227	3
29	29	3
16	19	1
88	89	5
175	207	2
62	63	3
1	1	2
14	227	1
61	61	1
115	115	6
64	65	3
158	158	3
58	64	1
33	33	4
22	23	4
101	232	1
214	242	2
213	213	2
232	234	1
180	181	4
116	154	4
116	116	6
86	247	2
29	31	1
246	246	7
97	97	4
24	24	2
228	229	2
77	77	1
173	221	1
68	71	1
39	39	3
98	98	5
20	20	3
63	63	3
190	190	4
146	146	1
236	236	2
25	27	1
93	102	1
5	5	3
54	55	4
66	66	2
97	98	2
194	194	1
242	242	3
80	237	1
243	243	3
192	193	2
93	147	1
209	242	1
117	117	4
205	205	2
30	31	1
36	36	2
110	114	1
30	32	3
178	178	4
25	25	2
196	245	1
2	38	1
150	154	1
11	34	2
93	146	1
28	29	3
231	232	4
196	216	2
225	225	1
99	100	1
39	40	4
54	54	1
226	226	9
177	188	1
218	219	2
75	75	2
80	80	1
72	73	1
195	198	3
228	228	2
195	195	1
221	225	1
234	245	1
238	238	1
109	147	3
7	32	1
62	62	4
93	109	2
16	16	1
223	224	3
223	223	3
166	166	2
5	51	2
36	37	1
213	230	2
82	86	3
217	222	2
241	242	1
91	91	3
202	203	2
216	217	1
203	204	1
94	110	1
1	37	1
87	101	2
152	152	1
210	211	1
95	95	3
170	171	1
227	227	1
217	220	3
86	234	2
201	202	1
232	245	2
101	108	1
165	166	1
100	101	2
220	221	2
46	47	1
26	26	3
70	71	2
47	47	1
231	245	1
206	206	1
197	245	4
10	10	5
78	78	1
78	79	1
230	244	1
101	105	1
214	214	1
238	249	2
240	248	1
86	86	1
44	45	1
113	114	1
178	179	1
118	119	1
240	247	1
211	212	2
229	230	1
2	37	1
234	235	1
115	154	2
200	201	2
72	75	1
176	208	1
53	55	3
76	80	1
145	145	3
4	77	1
104	107	1
188	189	1
162	162	2
47	50	1
85	90	1
194	195	1
4	78	1
242	243	1
31	31	1
7	8	1
51	52	1
201	212	1
58	58	1
112	114	1
56	57	2
102	102	1
48	55	1
52	89	1
150	151	1
119	232	1
9	10	1
246	247	1
186	186	1
24	25	1
117	118	1
242	245	1
240	240	1
