135	165	2
233	234	4
198	199	1
62	63	4
8	31	2
217	234	2
1	239	4
52	52	6
227	227	17
201	229	3
74	74	4
150	151	3
17	17	7
197	198	2
178	179	8
31	33	8
17	20	1
158	158	3
123	125	2
5	5	4
123	166	3
208	216	4
83	83	2
1	1	2
206	206	4
143	155	1
197	199	4
2	12	2
221	221	5
207	218	6
185	185	3
2	6	5
230	231	1
160	160	3
115	115	3
205	238	2
37	40	4
198	198	5
43	67	2
224	233	2
35	214	4
154	156	1
202	229	2
11	11	5
144	144	4
184	210	1
13	13	1
213	213	3
3	9	4
9	128	1
143	143	3
217	217	8
166	167	1
164	164	2
149	149	4
77	77	4
38	38	4
59	69	2
128	128	2
238	238	13
65	65	2
138	138	3
203	223	5
44	80	2
10	212	3
39	40	2
148	148	1
28	30	1
27	27	8
155	198	1
28	28	5
157	157	5
43	43	3
98	98	6
108	108	1
206	207	1
79	79	4
201	201	1
196	196	2
191	191	2
216	216	4
186	187	2
207	207	2
212	213	3
88	89	4
21	21	1
22	31	5
117	118	1
100	168	2
83	109	1
133	133	3
171	172	2
223	229	3
80	81	4
156	156	8
6	6	5
32	63	1
236	236	4
154	154	7
231	237	3
152	153	1
209	210	2
9	19	2
202	204	3
163	163	3
79	113	5
37	41	1
220	221	5
231	231	4
133	137	3
23	23	2
200	202	2
78	78	5
56	57	3
44	45	1
48	53	1
95	95	3
123	170	3
195	196	3
224	227	1
82	82	1
218	241	2
97	97	4
75	76	3
70	70	2
57	57	2
100	172	1
226	233	3
17	104	1
197	197	1
239	239	5
70	97	3
141	141	3
218	238	3
230	230	6
69	69	3
122	122	1
32	32	1
12	12	3
15	15	1
81	81	3
195	205	2
144	148	2
121	121	4
104	104	2
211	211	3
30	42	3
173	174	5
55	55	3
234	234	2
153	155	3
196	197	2
24	24	7
218	218	3
232	233	2
188	188	2
119	127	1
7	7	2
57	76	2
225	227	1
107	107	2
134	134	1
103	104	4
217	237	2
215	215	8
219	219	2
236	241	2
168	205	3
47	56	3
35	35	6
51	51	2
117	117	2
5	6	5
103	137	1
204	204	1
179	233	2
190	191	2
70	106	9
200	200	3
111	111	1
20	31	1
118	118	2
139	139	2
209	209	7
214	216	1
175	175	1
50	50	1
123	123	8
120	120	1
150	150	2
193	193	2
215	216	2
168	168	2
12	40	1
182	195	3
41	41	1
88	88	5
64	65	4
186	195	2
20	20	1
9	9	3
178	178	3
55	73	8
48	48	3
149	150	2
58	59	3
0	0	2
19	19	2
16	104	1
236	238	1
106	106	1
134	135	2
195	195	2
210	210	4
81	84	1
208	210	4
19	22	1
146	147	2
167	167	2
79	83	4
119	119	2
107	108	2
170	170	4
17	18	4
62	150	1
119	134	1
223	225	1
204	236	3
58	63	1
37	237	1
156	187	2
43	66	2
103	103	4
77	78	1
76	76	1
165	165	1
23	39	3
33	35	1
69	97	3
59	60	2
140	140	2
124	168	3
194	235	1
36	36	5
135	135	1
217	218	2
130	130	3
140	141	1
20	23	1
7	19	1
211	213	1
1	15	1
121	170	3
100	100	4
101	101	3
170	217	2
194	194	1
65	67	1
43	64	1
183	183	2
6	14	2
139	143	1
67	67	2
197	231	1
63	63	3
80	84	2
63	150	1
161	161	2
148	159	1
0	58	1
24	26	1
104	105	3
77	107	4
58	72	3
14	15	3
147	148	2
127	127	1
66	150	1
207	208	1
72	85	1
124	124	1
222	222	5
168	169	1
30	30	1
64	64	1
208	214	1
126	166	2
159	160	1
68	71	2
102	102	1
124	166	1
16	127	1
38	39	3
69	71	1
70	75	1
108	133	1
159	159	2
45	45	1
211	212	1
229	237	2
115	117	3
145	145	1
165	167	2
86	86	2
50	59	1
189	189	1
174	174	1
25	25	4
16	16	3
40	40	2
220	223	3
26	26	1
78	80	1
123	130	1
32	42	1
72	126	2
61	61	3
72	72	1
60	161	1
76	78	1
71	76	1
129	129	1
38	234	1
179	179	2
27	222	1
136	137	2
142	155	1
152	152	1
29	30	1
58	58	1
220	220	1
7	12	1
206	216	1
104	143	1
79	80	1
80	80	1
31	31	1
194	195	1
3	14	1
