29	29	5
5	5	9
72	72	8
154	154	9
42	42	12
151	151	4
62	62	8
158	159	10
68	71	7
170	174	4
109	110	1
126	143	1
171	172	4
155	156	7
145	145	10
67	68	5
168	168	11
146	146	15
91	91	8
118	118	5
136	136	4
65	67	3
74	74	9
57	57	3
71	71	18
33	33	8
56	57	4
30	32	2
51	51	5
170	170	7
95	95	3
96	96	8
148	149	3
12	40	2
124	125	4
80	80	9
59	62	3
80	106	2
8	8	3
117	117	7
29	34	6
52	52	13
178	180	3
54	54	10
35	38	2
143	144	4
8	9	1
172	172	10
16	16	5
15	15	9
133	133	3
127	127	5
87	87	6
114	114	6
129	129	4
132	133	3
79	87	3
53	53	7
35	35	13
119	120	3
139	139	4
162	162	9
4	18	3
32	33	5
110	110	2
50	50	13
7	7	3
178	178	15
123	125	3
102	102	2
104	105	3
39	40	4
67	67	8
115	115	6
68	68	8
94	94	5
28	31	3
108	117	2
44	44	5
148	148	8
134	134	6
115	119	3
123	123	4
56	56	12
55	85	2
76	110	3
12	13	10
55	55	10
150	150	9
122	122	8
37	39	1
83	85	2
115	116	6
78	79	1
137	137	4
9	9	5
112	112	14
174	174	5
116	117	5
174	175	2
86	87	4
93	94	3
173	173	4
37	37	4
112	113	1
137	138	6
85	85	11
14	15	1
66	119	5
124	124	13
11	45	1
180	180	9
53	136	1
28	30	3
84	85	2
36	36	9
107	107	8
177	177	9
13	13	9
90	91	2
82	86	5
138	138	7
83	83	5
76	76	11
44	49	2
126	126	12
34	34	4
103	103	5
61	61	5
20	21	1
66	66	4
93	112	4
105	105	5
151	163	1
53	107	2
146	148	2
2	2	15
40	42	1
88	88	8
33	53	1
97	98	2
173	174	1
39	39	4
111	111	7
128	128	4
1	1	7
6	13	5
106	106	4
120	121	2
14	67	1
6	6	8
36	76	3
24	24	2
130	131	3
124	141	4
166	166	5
31	32	5
108	109	3
159	159	7
5	19	4
102	106	3
18	18	15
64	64	4
30	30	9
25	25	8
156	156	2
135	135	7
160	160	8
132	132	11
96	98	2
41	42	2
139	175	2
167	167	4
164	164	5
42	43	2
55	170	2
5	6	4
116	116	15
50	95	1
93	93	9
7	8	3
126	127	2
16	140	3
144	144	1
113	113	4
145	149	4
84	84	3
45	45	9
89	89	3
139	141	1
75	75	10
55	135	2
161	162	8
143	143	16
70	70	2
85	114	3
101	101	2
115	118	5
151	153	4
32	32	11
28	29	1
32	34	1
43	43	7
3	3	5
33	52	3
149	149	5
23	23	1
10	38	1
98	104	1
155	160	3
163	163	11
53	54	3
94	126	1
171	171	10
109	117	3
38	38	7
130	130	3
90	90	10
152	152	6
9	45	2
157	173	1
172	173	1
27	27	6
133	178	3
140	140	5
32	38	1
90	96	3
158	169	2
51	53	2
129	147	2
109	109	4
73	73	10
125	149	5
16	17	3
93	117	1
19	39	3
94	147	3
167	168	2
77	78	1
27	31	2
28	41	2
127	128	2
66	71	4
161	161	4
49	49	2
22	50	3
173	175	3
4	144	1
9	10	2
153	153	7
74	75	2
98	100	3
17	17	3
153	154	4
148	159	1
129	130	1
132	178	3
99	122	1
27	62	2
125	125	10
99	101	3
165	165	1
175	175	6
72	73	2
79	79	8
21	21	4
49	50	1
87	90	6
142	142	10
155	155	2
15	40	4
148	158	1
40	40	3
52	53	2
131	132	3
11	12	2
131	131	3
34	36	1
121	121	8
145	157	1
63	64	3
22	27	1
164	171	1
158	158	4
70	71	2
148	175	1
122	123	2
63	63	1
106	112	2
31	31	3
140	161	2
10	30	4
164	170	3
73	142	1
22	22	3
99	99	2
65	65	3
74	102	1
59	59	4
80	84	1
53	81	1
76	77	1
14	62	3
35	36	4
121	128	1
92	92	6
157	157	5
176	176	2
79	80	5
123	133	2
148	179	2
96	97	1
120	120	3
179	179	4
17	33	4
0	101	1
10	10	2
15	136	2
106	108	1
83	84	1
22	29	2
141	141	3
55	86	2
108	108	7
60	150	1
60	61	1
0	0	1
150	151	4
59	61	2
64	96	2
31	39	1
143	145	4
78	78	3
33	34	1
94	114	2
146	147	5
147	147	3
26	26	3
23	24	2
175	176	1
121	122	1
134	178	2
50	51	2
147	162	1
57	62	1
72	150	1
153	158	1
81	86	2
40	44	1
71	72	4
94	145	1
116	120	2
41	41	5
50	52	1
157	158	1
98	98	2
51	52	1
30	31	1
27	157	1
62	63	1
155	158	3
38	39	1
12	45	2
24	28	4
81	149	1
19	19	4
136	154	2
145	146	2
150	167	2
114	115	3
77	77	2
138	156	1
80	81	3
94	144	2
81	81	1
11	13	4
100	100	1
7	9	1
121	123	1
30	174	1
118	121	1
147	148	1
57	58	2
152	158	1
68	100	2
55	166	1
119	121	1
144	157	1
44	45	1
162	165	2
103	104	1
100	101	2
102	120	2
160	163	1
164	165	2
169	169	1
109	128	1
54	55	1
14	147	1
174	176	2
22	23	1
122	159	1
0	63	1
29	45	1
61	153	1
86	88	1
18	44	1
112	114	1
148	171	1
166	169	1
115	151	1
31	43	1
8	12	1
95	100	1
170	171	3
58	58	1
80	83	2
133	141	1
18	38	2
3	7	1
0	156	1
82	82	2
99	148	2
92	93	2
145	164	1
93	133	1
3	6	1
150	162	1
74	76	3
107	110	1
160	162	3
123	124	1
14	14	1
91	92	1
118	159	2
86	86	2
127	144	1
64	102	1
105	106	1
121	127	2
16	44	1
73	74	1
68	73	1
149	150	3
28	28	3
105	109	2
162	163	1
33	39	1
102	108	2
121	124	1
91	93	1
59	108	1
97	97	1
29	30	2
99	100	4
101	105	1
98	99	2
87	88	1
3	166	1
131	171	1
60	62	1
17	24	1
11	11	1
115	156	1
26	27	1
40	41	1
163	164	1
92	94	1
36	37	1
55	56	1
25	26	1
142	143	1
4	4	1
36	38	1
10	148	1
60	60	1
31	105	1
28	97	1
