8	8	15
82	82	9
2	5	6
6	6	22
124	124	15
103	105	5
1	79	4
10	10	4
57	57	11
78	79	1
28	28	15
51	51	13
121	121	8
73	128	2
18	18	9
97	98	5
50	50	17
94	94	7
89	89	7
48	110	5
59	61	3
116	117	7
93	94	6
103	103	14
83	83	15
59	59	2
129	130	5
16	16	9
95	95	17
56	56	11
34	34	4
82	95	4
15	15	6
53	53	10
93	93	19
10	11	2
114	114	11
47	47	12
56	57	8
81	81	29
77	77	8
12	12	11
46	47	3
130	130	5
129	131	3
81	82	2
43	69	1
5	6	2
15	16	3
53	54	1
46	46	16
50	121	5
56	61	3
24	24	10
18	21	2
70	71	8
110	110	12
59	60	3
50	132	2
20	20	7
8	9	8
66	67	5
29	30	17
123	123	11
112	113	7
65	67	1
65	65	8
31	31	11
64	64	10
105	105	6
91	93	1
38	38	3
113	119	1
90	92	1
51	52	4
71	71	8
62	63	9
133	133	7
124	125	3
38	44	2
97	99	5
1	124	1
17	18	6
132	132	7
63	64	3
104	105	3
70	70	8
52	52	8
94	95	3
105	106	4
84	84	12
126	127	1
40	40	12
1	1	5
2	48	6
8	94	6
128	130	3
60	60	6
91	92	5
2	33	3
48	48	10
92	92	11
17	17	9
42	69	7
39	40	1
63	63	15
90	90	16
115	116	6
78	89	8
86	86	6
78	78	7
27	27	7
4	119	1
98	99	6
106	107	1
116	133	4
62	62	4
54	54	6
120	120	12
79	81	1
118	119	5
58	59	3
77	113	1
120	129	2
5	119	3
7	26	3
129	129	8
116	116	13
131	131	3
107	108	5
32	34	4
99	99	11
79	79	5
65	66	2
61	61	3
102	102	9
7	7	10
42	42	8
41	41	7
66	68	3
57	59	2
87	87	1
19	19	8
47	72	1
31	32	4
23	24	6
21	97	1
69	76	2
44	44	6
30	30	11
2	3	3
130	131	3
21	110	2
2	2	8
119	119	7
58	61	1
80	94	2
49	49	6
80	80	10
13	16	4
13	13	5
104	109	3
106	106	5
17	19	1
113	117	6
74	74	2
58	58	14
97	97	9
118	118	4
43	43	5
45	45	9
88	88	8
66	66	5
109	109	5
42	64	2
108	108	5
25	27	4
83	87	2
32	33	6
23	23	6
75	75	9
89	90	3
75	76	5
107	107	10
79	80	3
72	73	1
75	114	5
9	9	3
71	75	3
16	18	4
122	122	6
77	78	4
3	3	3
0	79	1
41	69	3
121	122	2
115	115	3
11	11	6
112	112	10
32	32	10
69	69	6
111	111	1
49	51	1
12	13	2
63	84	4
95	96	2
22	22	3
125	125	5
58	60	1
73	75	1
83	84	1
25	25	6
97	100	1
50	133	3
117	118	2
68	68	6
57	58	1
119	120	2
42	43	4
26	26	5
29	29	7
126	126	15
94	113	4
40	41	5
55	128	2
88	89	1
14	15	2
76	76	5
27	28	3
85	85	14
2	4	4
98	98	7
87	91	3
21	22	1
42	63	1
62	84	2
16	17	3
13	15	1
73	74	1
46	58	2
4	77	3
0	32	4
113	113	6
119	125	3
39	61	4
118	125	2
49	50	2
2	126	2
61	62	3
31	49	6
20	22	1
79	89	1
21	21	5
25	26	6
77	112	2
37	37	1
52	133	1
104	104	12
60	61	3
87	88	3
63	65	1
92	93	3
14	14	9
79	130	2
114	116	5
59	68	6
45	46	3
73	73	3
117	117	6
101	102	1
96	96	3
56	63	2
41	62	1
41	47	2
108	109	5
1	32	1
14	68	2
76	113	3
12	83	2
37	38	1
101	101	3
26	27	4
32	116	1
47	71	1
38	70	1
34	47	1
9	93	2
87	89	2
22	26	1
89	91	2
80	81	1
22	24	2
55	111	2
55	55	1
120	121	1
30	31	1
18	84	1
50	124	1
0	0	1
1	50	1
84	85	2
41	42	1
100	100	3
39	39	1
60	62	2
22	23	1
48	55	2
13	68	3
122	123	1
27	87	1
72	72	1
44	45	1
76	117	1
88	94	1
75	77	1
109	126	1
32	114	2
96	97	1
86	87	1
5	118	1
59	62	1
12	95	3
5	5	1
96	98	2
89	94	1
1	49	2
33	33	1
123	124	1
84	93	1
4	4	2
110	111	1
11	12	1
73	92	1
64	73	1
9	10	1
