207	207	24
117	140	5
159	185	5
233	233	2
22	22	15
120	193	3
206	206	6
147	148	4
117	117	14
26	26	8
57	57	7
123	123	6
4	5	3
29	29	9
12	14	5
161	161	11
136	137	14
65	65	5
146	146	9
42	42	12
184	184	3
177	177	8
68	68	12
28	74	1
105	179	2
160	170	5
100	100	5
34	34	8
187	215	5
49	49	8
18	18	11
175	175	9
226	226	8
44	44	9
235	236	5
143	143	9
3	3	11
122	122	14
31	31	10
212	219	2
147	147	18
25	25	15
121	121	10
136	150	1
239	240	6
223	223	14
54	54	14
13	14	3
119	212	1
26	88	4
182	182	15
45	45	12
114	162	3
84	84	7
132	132	1
205	205	9
198	198	10
75	75	8
79	79	4
161	242	2
185	185	6
190	190	4
172	205	2
235	235	23
238	238	17
209	209	7
139	145	1
6	6	11
47	47	5
171	171	8
107	126	5
220	220	12
101	200	3
203	203	10
199	200	6
109	129	3
217	218	11
124	126	2
227	227	15
49	55	3
111	111	13
6	17	3
9	9	10
213	214	7
144	212	3
224	240	1
156	156	4
19	19	7
63	63	15
157	157	8
9	11	6
150	151	3
78	78	9
0	22	2
64	66	1
20	57	3
136	152	5
97	98	4
125	193	8
21	21	8
9	10	7
200	201	8
138	138	10
108	120	3
197	197	20
148	149	3
80	80	18
70	70	7
5	5	3
153	156	3
79	135	3
194	195	3
134	135	2
129	129	6
115	115	1
22	81	3
57	78	4
224	226	1
141	141	8
7	7	10
33	33	18
204	204	21
165	236	3
230	231	4
128	130	5
123	124	2
116	139	5
170	185	2
22	80	1
63	67	5
178	220	6
192	192	2
217	217	7
105	168	4
168	178	4
225	228	6
27	47	2
173	173	14
198	201	2
224	224	9
168	168	4
192	202	2
24	24	7
25	26	2
118	133	2
23	23	8
214	215	6
62	62	8
102	103	6
31	53	3
131	207	4
20	20	8
169	179	2
46	46	11
234	234	9
28	31	7
28	46	3
81	81	4
105	178	5
106	107	2
75	157	3
131	206	2
54	65	5
39	42	2
0	60	2
163	168	2
131	131	6
163	163	12
194	194	11
36	80	2
104	108	4
51	52	5
212	213	4
181	181	9
103	107	2
211	211	11
148	148	20
213	213	8
157	170	1
146	170	2
208	208	7
224	225	9
115	117	2
57	63	5
2	22	1
73	73	7
18	19	12
145	146	3
64	75	3
174	174	15
149	150	1
116	155	2
107	118	3
133	152	2
230	230	12
134	134	6
76	76	7
14	83	4
221	222	15
37	37	9
56	82	2
159	159	7
28	29	5
188	189	5
152	152	9
63	64	5
107	108	6
183	183	7
162	183	3
193	194	5
105	241	1
43	44	1
115	162	1
50	50	6
40	41	9
128	128	10
143	165	3
13	85	4
28	28	7
13	13	3
118	118	7
176	176	3
102	175	4
52	54	1
104	117	2
207	209	4
13	57	2
233	234	4
83	83	7
29	72	3
225	231	1
98	99	9
50	52	4
82	82	7
121	211	3
145	212	2
168	170	5
16	69	4
151	151	10
3	10	5
72	72	4
128	207	1
217	232	3
165	185	1
172	172	6
133	133	12
216	216	9
30	30	11
71	73	1
103	131	1
1	1	11
92	92	3
218	239	1
167	223	2
144	165	5
153	153	4
106	106	10
159	160	2
4	218	5
39	39	3
3	34	4
167	167	10
218	231	3
43	43	18
229	229	6
1	23	2
166	166	9
61	72	5
64	156	2
109	109	12
186	186	11
200	200	11
217	224	1
38	38	6
140	140	4
135	135	7
104	105	1
196	196	7
163	165	2
114	133	3
16	16	5
51	112	2
109	122	3
96	105	1
135	152	4
0	45	2
108	108	1
69	74	2
35	35	4
78	79	4
119	119	11
30	47	4
180	180	4
237	237	10
155	155	16
28	33	2
237	240	2
176	177	2
130	130	4
105	105	7
18	79	2
218	223	1
188	188	8
97	97	3
53	54	2
144	144	7
221	237	4
100	101	2
148	166	1
51	210	1
204	235	1
153	155	3
98	98	2
24	32	1
118	149	2
201	201	1
74	74	16
210	210	5
225	227	3
49	53	2
179	179	7
187	187	14
38	39	3
64	84	5
11	11	7
5	107	2
181	232	6
77	77	9
56	56	7
53	81	1
21	83	1
183	186	3
181	213	1
127	127	10
162	164	5
184	186	4
123	204	3
143	211	4
170	217	2
47	127	6
3	7	3
7	36	4
220	239	2
8	8	3
149	149	10
140	141	4
106	131	2
142	142	7
154	155	7
217	231	4
142	231	5
63	158	3
192	193	5
57	76	4
30	31	4
168	228	1
155	156	2
99	237	2
232	232	7
16	83	1
4	4	4
195	196	4
239	239	8
39	40	1
95	95	2
191	191	10
51	51	9
32	55	4
81	82	2
106	117	4
202	203	5
137	137	9
195	195	3
165	215	1
139	139	7
147	151	2
139	140	3
127	128	4
109	113	1
12	77	3
210	211	2
120	192	1
14	15	3
185	186	3
113	124	2
112	113	1
90	105	1
10	11	5
105	109	2
36	36	5
136	138	3
24	33	2
22	70	1
60	60	3
153	154	2
101	199	2
149	212	8
225	225	8
181	182	3
141	159	4
66	81	2
7	45	2
145	158	2
219	230	3
160	160	7
172	179	3
95	114	4
121	122	1
166	179	1
24	68	2
59	59	7
202	207	2
9	85	4
52	52	6
139	147	1
48	49	2
26	27	2
212	212	3
61	61	11
104	104	7
10	10	11
215	215	3
55	55	3
21	85	2
148	208	2
150	204	3
40	40	2
116	116	7
58	78	2
32	54	2
162	214	3
162	162	5
41	41	4
120	204	5
106	115	2
99	99	7
113	113	5
167	168	4
104	129	2
89	89	3
189	189	4
133	134	1
17	17	5
176	180	8
14	14	5
114	115	1
47	109	6
0	0	3
139	196	2
165	165	5
161	164	1
45	46	2
158	158	6
236	236	5
10	15	1
145	145	10
11	228	1
141	145	2
48	48	1
1	15	1
27	27	7
100	205	2
53	184	3
2	2	3
151	152	1
33	34	4
137	138	4
205	206	3
170	212	4
202	202	6
160	197	5
201	202	1
24	46	2
31	84	1
143	171	2
169	169	6
54	64	2
85	85	4
4	59	1
227	230	4
28	55	3
37	38	3
8	27	1
164	165	2
37	41	1
99	123	1
75	76	1
62	63	2
66	84	1
125	125	7
19	78	4
72	73	1
26	48	2
114	167	9
119	191	2
56	80	3
5	34	3
108	126	3
185	187	1
212	230	1
15	82	3
86	86	6
101	122	1
146	165	3
12	12	12
135	136	5
236	237	1
164	164	2
97	205	1
114	114	1
31	36	3
107	107	8
32	32	8
131	211	2
104	106	1
7	16	2
240	240	4
219	219	6
149	152	1
167	170	3
68	69	1
71	71	4
106	116	2
64	64	6
173	174	2
73	74	1
224	228	1
36	37	4
9	83	1
228	228	2
120	120	2
58	79	1
37	42	3
15	15	1
138	202	1
172	174	3
199	199	1
12	17	1
123	154	1
234	236	6
129	130	1
3	15	1
43	45	4
0	15	2
99	156	2
9	225	1
164	175	3
56	57	1
140	142	2
173	194	1
237	238	2
10	16	1
99	102	2
100	131	1
23	32	2
242	242	5
96	96	3
52	53	1
79	80	5
156	159	3
211	230	2
3	17	1
154	156	4
95	98	1
133	161	2
5	8	1
156	157	4
103	130	1
113	118	1
97	172	1
53	53	10
29	32	5
0	24	1
47	111	2
167	230	2
217	240	1
62	217	2
20	60	2
35	56	5
125	127	2
163	214	6
58	72	2
7	18	1
214	230	3
58	73	2
67	68	2
107	119	1
24	37	5
149	165	3
155	159	2
69	69	9
61	62	3
13	60	1
149	155	1
209	210	4
103	104	1
210	229	1
71	72	3
197	198	1
183	191	3
101	173	2
182	197	1
62	81	2
221	221	1
114	118	2
69	70	3
171	172	1
165	237	2
36	128	4
115	161	3
105	117	1
4	33	3
24	25	3
188	190	1
44	45	1
151	175	1
141	153	2
31	80	2
186	195	1
119	120	3
35	45	3
67	67	6
142	153	2
95	102	2
101	101	4
231	231	7
97	100	1
58	58	3
105	106	2
186	189	1
168	216	1
6	8	1
76	82	1
35	80	1
4	34	1
218	224	3
180	203	3
123	125	3
200	204	1
4	6	1
17	77	4
82	84	2
228	229	1
211	229	1
83	84	1
147	208	1
122	128	1
11	12	1
241	241	2
218	218	4
147	149	1
102	102	3
80	81	1
142	143	3
218	240	2
82	83	1
34	57	1
11	15	1
2	3	2
103	123	4
159	170	1
124	193	3
19	20	1
107	125	4
85	116	1
216	225	1
26	73	1
189	190	1
175	177	1
100	192	1
74	75	1
213	231	1
19	79	1
226	231	2
29	154	2
103	103	2
3	21	2
118	167	2
122	125	1
5	56	4
117	136	1
6	15	1
2	78	1
168	208	1
88	88	4
51	148	2
142	161	2
166	187	1
189	224	1
160	175	2
16	22	1
99	154	1
154	154	1
116	141	2
104	110	1
6	57	1
110	112	2
96	98	2
58	59	1
117	123	1
70	71	1
155	201	2
134	152	1
165	186	1
30	32	1
193	200	2
10	224	2
147	212	1
197	202	1
0	1	1
48	112	1
48	133	2
101	196	2
225	230	1
218	219	2
33	36	2
179	180	3
213	223	4
38	41	2
182	236	2
138	139	1
181	197	1
61	70	1
160	213	1
217	220	1
184	235	1
106	109	1
12	225	1
169	204	1
124	125	1
160	181	1
59	85	1
222	222	2
7	85	1
147	172	1
115	134	1
232	233	1
53	83	1
50	54	2
7	72	1
13	22	1
175	176	2
226	230	1
138	155	1
126	126	2
70	73	1
190	234	2
226	229	1
2	80	1
9	74	1
115	169	1
116	117	1
16	21	1
67	80	1
10	213	2
98	103	1
96	118	1
136	136	1
238	239	1
217	234	1
135	137	1
186	194	1
140	164	1
46	66	1
213	241	1
137	159	1
178	178	1
183	195	1
14	31	1
65	66	2
119	132	2
144	179	2
108	206	1
119	149	1
214	214	1
124	124	1
145	213	1
198	200	1
21	22	2
236	240	1
149	169	1
175	231	1
13	15	1
29	95	1
213	218	1
102	173	1
64	68	1
29	65	1
215	230	1
4	16	1
15	17	1
0	65	1
180	222	1
32	68	1
55	154	1
204	206	1
7	8	1
46	89	1
178	222	1
214	216	1
219	222	1
