127	127	3
37	37	9
175	175	6
148	148	11
57	57	7
144	144	3
3	3	2
22	23	1
134	136	2
143	143	8
72	76	1
54	54	17
85	85	15
64	86	3
107	109	2
25	25	14
90	91	1
134	134	14
171	173	2
81	105	2
112	112	15
115	115	14
1	1	10
100	162	3
104	104	2
113	113	19
11	11	3
105	106	5
100	100	6
101	101	5
80	80	9
68	68	6
61	61	6
73	74	2
159	173	5
45	45	2
168	168	3
176	176	17
116	116	12
108	110	2
155	155	7
50	50	5
79	81	3
26	26	4
125	125	6
173	173	11
5	5	7
123	165	2
132	132	23
49	60	1
158	158	8
145	158	1
170	170	16
138	138	20
77	78	7
73	97	5
133	133	9
139	139	7
33	34	3
94	94	4
26	27	4
108	108	13
33	33	8
30	30	3
121	121	12
39	40	7
126	154	2
66	131	5
44	44	2
90	90	16
114	114	9
131	132	4
95	170	1
76	76	2
124	162	3
58	58	2
129	135	3
95	95	6
14	15	4
113	114	7
80	89	2
16	16	4
0	1	7
145	154	3
178	178	6
9	9	1
99	100	1
18	18	3
103	103	10
13	13	5
11	139	2
28	30	4
162	162	12
180	180	10
75	76	3
93	93	10
72	72	7
152	153	7
159	159	10
74	74	5
153	153	11
80	81	9
140	140	11
151	154	2
106	106	10
171	171	1
43	44	2
117	117	4
5	6	2
124	124	5
137	137	10
126	126	12
50	51	13
84	84	3
24	24	8
146	149	3
17	17	3
91	91	6
105	105	8
143	144	4
162	165	6
20	20	9
40	92	2
160	160	15
56	56	7
19	20	8
96	97	2
145	145	13
123	145	2
154	154	4
44	61	1
145	146	3
134	148	2
156	156	6
4	6	2
72	73	2
89	94	1
139	145	1
149	173	5
67	67	4
97	101	2
96	166	2
52	152	1
5	14	1
119	119	6
66	129	1
11	14	2
35	35	7
118	121	1
118	118	15
10	10	7
89	89	13
106	107	4
72	77	3
14	14	3
81	81	5
169	169	12
115	175	1
63	81	4
159	171	2
60	60	3
75	75	7
51	51	2
30	31	6
133	134	9
72	75	7
161	161	11
27	27	6
150	150	6
35	36	1
159	168	2
92	93	5
165	165	18
150	170	6
134	135	3
5	17	1
129	129	6
79	80	5
9	10	6
37	39	2
52	102	4
135	166	2
23	25	4
12	13	1
19	21	2
87	87	11
55	55	13
61	80	2
141	163	3
169	171	3
49	51	4
163	163	7
58	59	3
31	31	4
116	130	5
54	60	1
170	171	8
159	174	1
60	61	5
121	151	4
19	19	2
167	168	5
177	177	8
107	107	15
77	77	9
50	54	2
143	158	3
1	3	1
111	111	5
11	12	1
110	113	3
147	164	2
32	33	2
154	156	2
64	65	4
38	39	2
87	96	1
103	104	2
142	163	3
38	38	4
59	59	9
139	143	1
141	141	4
49	49	3
71	161	3
8	8	5
149	149	12
158	172	1
154	158	1
136	168	1
114	131	4
169	170	5
136	136	1
121	122	1
167	167	7
52	118	1
53	53	9
130	131	5
80	112	2
64	64	9
7	42	2
37	38	1
93	94	2
5	41	3
29	30	6
107	132	2
71	75	3
82	99	4
118	120	1
123	123	3
143	145	6
86	100	2
66	125	1
8	9	4
39	39	6
34	34	8
89	90	5
2	3	1
140	142	1
157	158	2
108	109	4
166	166	10
42	42	6
33	90	3
71	77	2
147	147	9
117	118	5
115	116	3
165	166	6
65	66	4
89	102	6
146	146	11
0	0	3
17	31	3
97	97	4
29	29	6
40	40	4
52	153	3
134	149	4
135	135	9
135	136	4
79	79	7
80	103	2
78	79	1
8	10	1
36	36	1
166	167	1
84	85	4
122	122	2
110	111	1
96	96	3
80	105	7
71	72	1
63	63	1
10	11	1
52	103	2
100	102	1
36	44	1
97	98	2
178	179	2
102	102	3
94	95	2
65	65	9
7	9	2
152	172	1
179	179	3
102	103	1
61	139	2
88	89	1
73	73	6
66	66	4
133	149	2
124	125	7
25	106	1
55	94	1
71	71	2
91	93	1
23	23	4
20	21	2
108	147	1
141	142	1
159	175	2
84	86	2
3	4	3
142	143	2
122	123	1
16	17	2
21	21	4
146	148	2
66	115	2
99	99	5
162	164	1
5	7	3
142	144	2
6	6	4
152	152	2
61	62	1
162	163	3
68	107	4
157	157	6
118	119	1
15	15	4
173	174	4
137	149	2
65	81	1
63	64	2
65	106	4
83	86	1
78	78	11
0	2	3
62	125	1
98	99	2
67	108	2
38	40	4
18	19	1
28	28	2
146	168	3
80	86	1
151	172	1
151	151	9
136	137	1
55	95	1
139	165	1
82	112	1
131	131	3
117	121	3
130	130	8
86	86	3
43	43	2
62	67	1
82	82	2
174	174	4
127	128	2
89	132	2
63	80	1
53	99	1
174	177	2
83	83	2
151	152	4
82	98	2
7	41	3
118	137	1
154	157	1
83	84	1
107	108	1
81	85	1
139	141	2
31	32	2
40	43	1
101	102	3
12	12	2
140	141	3
23	106	2
43	45	1
104	105	2
62	62	5
24	31	3
24	76	1
179	180	2
140	144	1
174	175	1
10	15	2
109	109	1
155	156	1
17	30	1
62	82	1
56	62	1
92	92	1
15	16	1
22	22	1
11	62	1
150	151	1
115	118	1
15	127	1
75	166	1
76	77	1
172	172	2
119	121	1
27	52	1
109	110	1
23	91	1
133	172	1
4	8	1
124	165	1
156	157	1
123	146	2
159	160	1
53	54	1
66	86	1
6	7	2
142	142	1
68	109	1
56	57	1
7	7	3
125	126	1
66	84	1
41	42	1
73	96	1
52	53	2
24	111	1
67	125	1
40	41	1
134	137	1
73	76	1
2	2	1
98	98	2
54	55	1
15	38	1
28	50	2
34	57	1
71	73	1
75	161	1
116	117	1
16	40	1
17	18	1
25	26	1
163	164	1
1	8	1
172	173	1
112	114	1
89	93	1
119	120	1
13	14	1
120	120	1
148	172	1
151	153	1
79	88	1
