117	117	3
111	111	5
7	7	3
98	98	4
9	9	1
92	93	1
117	127	2
4	4	2
100	101	3
102	126	1
119	119	5
110	110	8
27	27	2
81	125	2
54	55	1
120	120	2
15	15	1
87	109	1
52	55	2
61	61	1
127	127	2
50	50	2
112	129	1
56	57	3
72	74	1
21	22	5
16	22	1
129	129	5
52	70	1
114	114	2
121	127	2
74	74	6
8	8	2
89	90	1
106	106	3
62	73	2
71	110	2
60	63	2
25	49	2
8	44	5
7	11	1
99	99	6
23	23	6
103	103	1
90	93	4
67	107	1
95	95	2
80	80	4
108	111	1
1	45	2
89	89	2
21	21	4
87	108	2
45	50	1
28	28	4
15	20	3
90	99	1
104	104	3
9	10	1
62	68	4
96	117	1
86	86	2
116	116	1
55	55	5
32	32	1
22	23	2
111	130	1
25	26	3
129	130	1
49	68	1
58	59	2
45	45	3
79	109	2
82	82	1
57	66	2
109	109	3
119	123	1
121	121	2
55	57	4
91	92	1
62	72	2
74	101	1
59	68	2
85	107	1
56	56	1
54	54	2
113	117	2
58	58	1
115	115	1
0	34	1
25	37	1
29	30	1
134	134	1
132	132	1
10	55	3
54	107	2
90	102	1
23	24	1
7	29	1
92	110	1
108	109	1
70	70	3
48	83	1
124	124	1
1	44	1
54	60	1
121	122	1
92	100	2
102	102	6
60	61	1
106	107	2
67	67	2
125	126	1
35	45	1
44	112	2
63	63	1
69	69	2
72	72	1
61	62	1
128	128	2
77	79	3
78	113	1
11	11	2
68	109	1
93	93	1
98	121	1
104	116	1
58	92	1
81	128	1
44	134	2
58	60	2
84	92	2
97	97	2
75	78	3
91	91	3
19	44	4
71	72	1
96	96	3
14	15	1
34	34	1
83	110	1
10	10	2
16	16	3
100	113	3
114	115	1
73	74	1
0	0	1
96	127	1
3	3	1
33	33	1
123	123	1
87	90	1
74	115	1
50	69	2
25	25	1
49	55	1
77	78	1
75	75	1
101	101	1
36	84	3
1	106	1
35	35	3
50	63	1
3	4	1
95	96	1
97	98	1
79	80	1
52	52	2
78	87	1
88	88	1
117	128	1
104	105	2
89	95	1
53	53	1
15	54	1
2	2	1
60	65	1
81	87	1
130	132	1
5	5	1
36	83	2
126	126	1
10	52	1
24	38	1
5	13	1
91	117	1
115	118	2
107	107	1
