130	132	3
61	61	47
27	27	40
84	112	6
28	28	43
23	23	27
21	23	4
94	94	38
88	94	4
4	4	22
35	36	18
106	106	31
103	103	43
67	68	13
123	124	5
75	76	10
16	32	6
76	76	27
71	71	29
113	113	26
85	85	38
49	106	2
13	13	36
54	54	56
110	110	26
17	17	40
129	130	7
98	98	47
63	64	7
31	31	58
111	111	38
33	33	42
60	79	2
124	125	22
55	55	33
131	131	44
112	112	53
32	37	1
24	24	34
63	121	3
93	94	14
21	22	10
60	60	50
102	102	53
127	127	28
105	105	46
64	64	43
109	109	64
6	6	39
101	101	26
84	116	4
8	8	35
95	95	33
129	129	44
96	130	3
57	57	32
122	122	35
114	114	46
8	33	6
57	58	12
86	86	19
11	11	44
35	35	38
120	121	16
70	70	32
69	69	37
17	26	9
34	34	30
104	104	25
20	20	34
26	27	10
27	28	17
130	130	34
120	120	28
46	46	6
14	14	36
74	75	7
99	99	42
37	37	24
119	119	40
79	79	32
3	3	29
74	74	36
29	29	45
19	19	35
107	111	4
53	53	37
7	8	14
21	21	52
20	24	8
24	25	12
37	38	8
80	81	10
66	96	8
97	104	5
66	66	23
117	117	32
67	69	5
118	118	21
10	11	15
21	35	9
33	70	4
16	16	45
15	16	16
23	24	8
117	119	5
78	78	35
108	111	9
20	23	2
11	12	9
49	49	26
91	91	40
95	109	3
36	36	36
36	38	5
80	80	42
90	90	53
7	7	26
103	115	3
125	125	42
65	121	8
59	105	1
3	4	11
116	116	39
106	116	5
52	60	2
2	2	17
73	73	46
59	59	26
15	15	49
34	44	2
29	30	23
32	32	33
126	126	29
28	29	13
67	67	34
82	95	2
77	77	28
12	13	12
75	75	24
70	72	1
72	72	34
33	34	18
112	114	12
5	60	1
87	110	1
60	61	15
115	115	41
83	83	16
44	44	24
65	66	8
11	59	8
25	27	9
66	69	1
118	130	6
9	26	4
49	131	2
61	90	2
32	34	2
10	10	46
127	128	10
13	14	6
134	134	40
130	131	17
93	93	27
85	107	2
123	123	33
48	79	3
18	18	18
63	116	4
66	67	8
132	132	46
24	68	2
85	86	15
1	1	19
128	128	28
18	97	2
16	26	18
58	58	33
108	110	10
106	129	2
48	109	3
126	127	18
82	110	3
72	73	8
106	107	7
9	10	7
93	128	3
88	89	5
25	81	1
12	14	1
87	87	17
22	22	30
5	5	27
68	68	34
52	132	1
62	63	23
97	97	25
107	113	2
125	127	8
38	38	25
48	120	6
80	123	2
27	33	4
43	77	2
18	21	5
50	50	20
22	23	23
60	112	7
56	56	43
79	80	10
119	120	13
78	79	6
107	131	4
74	101	7
45	127	1
116	117	6
43	60	8
72	93	1
103	104	12
122	123	15
25	26	4
97	127	14
9	9	31
5	125	4
87	88	14
22	28	2
121	123	3
117	131	4
62	90	5
94	95	18
46	67	1
42	42	6
102	116	6
92	92	30
45	45	34
70	98	3
58	118	4
110	111	9
52	52	21
25	52	6
88	88	17
23	60	3
54	55	20
60	109	9
43	43	48
30	99	5
62	62	23
53	106	6
111	113	7
49	50	10
86	87	4
89	89	17
114	115	14
46	79	1
77	107	3
82	82	28
60	105	2
26	26	40
7	14	4
50	114	1
69	129	2
45	101	2
12	12	38
66	68	4
5	43	2
64	65	23
78	86	3
64	71	1
78	129	4
5	58	1
58	59	12
83	85	5
59	61	1
100	100	27
25	25	40
0	2	1
110	124	1
30	30	27
127	133	4
20	29	7
2	45	3
135	135	12
124	124	25
97	98	7
115	117	3
70	71	12
63	63	37
79	95	5
27	32	2
72	99	4
88	90	3
21	43	2
31	32	7
107	107	15
11	13	6
133	133	10
93	113	3
52	53	8
55	65	1
0	1	13
68	69	8
19	20	14
61	62	14
129	132	5
31	50	5
73	101	7
109	110	10
66	121	5
81	86	3
27	100	4
60	94	3
83	84	12
79	94	3
45	74	1
116	121	2
53	118	5
34	35	12
102	103	10
81	81	11
37	44	3
86	88	4
43	45	6
77	78	13
117	118	6
1	66	3
44	45	6
59	60	4
21	103	2
106	113	3
49	111	2
15	34	6
70	81	3
129	133	9
54	56	5
89	90	14
104	105	7
72	101	6
18	102	2
6	8	4
35	37	11
14	15	7
44	100	4
121	122	7
53	113	1
98	99	5
7	13	2
109	113	2
43	59	7
30	31	4
18	38	3
66	124	1
127	129	6
118	119	17
49	85	1
91	127	3
93	101	5
0	0	30
31	44	8
3	35	4
121	121	44
62	87	4
80	98	1
49	114	1
73	74	6
29	101	1
85	111	3
71	122	2
54	111	6
112	122	2
81	116	2
71	98	10
92	93	5
1	2	6
24	84	4
4	5	7
28	30	6
106	125	1
133	134	4
114	127	3
54	84	2
42	43	1
30	69	4
27	101	6
2	8	3
1	3	6
50	52	11
16	35	2
78	113	2
51	127	2
0	15	1
34	72	5
113	118	1
131	133	5
82	87	1
72	100	3
111	117	5
31	33	3
39	45	5
58	60	5
80	101	6
128	129	4
87	90	2
129	131	4
107	125	1
91	92	6
20	21	7
84	103	1
67	119	6
83	107	5
75	81	3
31	99	1
99	127	4
34	68	5
15	115	1
91	121	1
131	132	7
45	51	3
83	111	3
43	73	1
46	99	3
108	132	2
1	65	2
115	121	5
65	65	24
51	64	1
63	115	2
2	4	3
114	116	3
73	75	1
81	115	2
44	78	1
33	36	7
116	118	6
80	105	5
22	80	4
43	44	6
56	57	2
61	71	9
65	67	9
26	101	3
17	18	5
2	3	6
47	49	2
108	108	8
115	116	9
1	51	1
1	13	2
50	112	2
132	133	17
127	131	3
44	50	5
44	66	2
71	72	6
1	103	2
48	48	7
20	31	7
51	62	4
68	96	2
7	11	5
54	127	2
76	77	2
16	70	2
77	82	1
48	111	1
19	22	2
6	10	5
84	84	16
96	96	13
31	127	1
111	122	1
24	26	2
64	66	5
94	112	2
37	39	2
54	58	3
79	96	1
1	55	1
80	131	1
67	124	2
5	6	11
112	117	10
124	126	8
59	112	1
16	19	2
45	47	5
47	50	1
102	121	3
6	9	1
49	132	4
8	9	12
36	46	1
88	129	1
27	69	2
91	123	3
54	116	8
54	59	2
81	82	4
45	78	4
59	93	1
134	135	2
21	26	1
112	119	2
50	79	5
6	7	11
95	126	2
3	38	1
68	131	1
49	83	1
122	126	5
108	109	4
47	131	1
78	89	3
24	65	3
54	64	5
8	28	3
63	118	2
16	25	4
73	99	3
2	34	1
89	93	1
79	135	1
99	100	6
84	117	1
18	22	1
83	112	3
60	104	1
53	108	3
90	92	2
6	43	9
2	44	3
45	46	6
32	33	10
35	103	4
42	78	1
100	101	2
119	123	8
38	73	2
45	81	3
67	88	4
109	112	1
79	93	1
29	31	4
110	113	2
71	97	2
52	86	1
3	45	3
38	42	2
108	113	2
60	113	3
19	31	2
21	24	1
69	118	2
104	123	1
106	128	2
48	75	2
0	104	1
0	75	2
31	34	1
65	87	2
23	26	2
61	63	1
62	91	3
122	125	1
82	108	1
95	105	4
72	90	3
51	77	2
79	113	5
97	124	4
75	79	1
36	65	1
113	116	3
32	45	2
61	115	2
1	45	2
116	130	3
69	70	8
75	89	4
0	8	1
24	103	2
125	133	3
18	19	4
49	112	1
20	25	5
79	114	2
118	129	2
33	35	2
62	88	3
122	124	2
82	105	4
54	65	3
111	112	6
77	87	3
48	132	1
25	102	3
35	97	1
67	92	4
113	130	2
8	26	1
23	25	3
65	122	2
87	109	1
10	58	5
98	127	1
60	86	1
16	17	2
95	96	3
106	108	1
101	102	4
27	31	2
11	102	1
37	48	1
76	78	2
76	114	3
0	5	1
71	88	2
25	119	1
64	121	3
30	34	1
47	47	2
96	101	2
8	15	1
112	113	7
113	131	3
51	51	1
47	68	1
53	59	1
125	126	1
73	76	1
111	114	4
86	90	4
74	102	2
62	82	1
96	116	2
19	21	1
43	97	3
63	82	2
3	34	3
76	125	1
63	86	2
7	19	2
2	66	2
67	87	3
14	18	2
72	80	1
7	15	2
7	9	2
63	65	2
9	14	2
0	103	1
106	127	2
62	119	3
115	122	1
44	77	1
22	104	2
53	90	2
17	25	1
25	53	1
82	124	1
112	131	1
88	124	1
43	94	1
79	100	2
32	36	1
63	81	2
126	134	5
90	91	1
73	100	1
96	126	1
5	102	1
77	133	1
121	124	1
24	33	2
7	21	3
79	101	1
43	96	1
46	47	1
52	111	1
113	114	1
87	95	1
64	69	2
95	97	5
54	57	1
46	51	1
1	37	3
24	81	4
96	107	2
44	85	2
30	35	2
65	69	1
101	118	1
52	83	2
85	116	1
99	103	1
65	133	2
52	131	1
63	70	3
111	124	1
77	125	1
18	20	2
10	15	4
1	43	1
114	119	2
23	27	2
49	107	1
44	92	3
107	133	2
101	121	1
95	121	1
3	54	1
60	106	1
97	126	1
124	127	1
87	94	1
63	117	2
55	56	2
15	32	1
30	33	2
82	83	1
115	119	2
61	87	1
47	65	1
81	123	2
66	118	3
20	36	1
77	128	1
101	103	1
107	132	1
81	93	2
19	36	1
24	45	1
92	94	1
14	17	1
112	133	1
95	122	1
62	64	1
44	67	2
0	74	1
50	100	1
57	59	3
83	106	1
54	113	2
118	131	1
6	33	1
17	30	1
31	45	1
54	109	1
117	120	1
54	133	1
61	105	1
53	132	1
112	118	4
36	42	1
13	61	1
65	89	1
50	61	2
87	91	1
85	114	2
114	117	1
7	16	2
22	75	1
2	38	1
8	16	1
115	129	1
5	73	1
56	58	1
21	102	1
53	54	1
84	110	1
95	123	1
83	113	1
16	38	1
52	130	2
96	131	1
18	35	1
44	68	1
18	103	1
96	97	1
94	126	1
76	79	1
78	131	1
17	20	1
27	50	1
54	85	1
82	85	1
