37	39	1
37	37	2
76	76	4
59	59	1
126	126	2
42	42	2
66	120	10
121	121	7
56	127	4
69	69	3
78	79	3
86	86	8
61	97	4
63	63	4
131	134	2
4	5	2
95	95	5
118	118	5
128	129	5
95	111	2
96	115	1
23	23	3
35	44	3
117	118	2
16	18	2
36	39	1
0	0	5
98	133	2
103	103	4
47	47	2
104	105	2
17	19	5
15	15	3
48	84	3
11	123	3
123	124	3
54	54	3
5	5	2
38	40	1
107	107	13
37	38	4
110	110	4
119	119	5
46	47	4
32	32	4
71	71	4
8	8	3
131	131	2
51	88	4
113	113	6
20	20	2
4	4	3
96	96	5
123	129	2
81	81	4
13	15	1
9	9	3
108	108	5
39	39	4
87	88	1
92	92	6
111	111	4
47	48	1
93	93	2
129	129	3
77	77	2
22	41	3
66	77	1
133	133	6
94	95	4
73	73	1
7	7	4
91	91	3
44	44	5
31	40	2
0	1	1
116	116	2
68	68	2
114	114	5
25	42	3
28	40	2
96	133	2
15	90	1
41	41	5
10	10	3
27	35	2
63	64	1
65	65	4
56	122	1
18	18	3
21	22	1
2	117	3
124	124	6
72	72	5
13	13	4
130	130	1
89	92	2
35	41	3
61	61	1
55	87	2
1	2	1
24	101	1
20	91	3
35	36	2
6	109	2
0	63	1
102	102	1
79	80	4
48	86	2
29	29	4
104	104	2
98	107	2
26	42	1
22	30	1
132	132	2
46	46	2
106	106	1
66	66	3
66	121	1
30	30	2
80	80	4
75	75	2
88	90	1
6	93	2
109	109	9
43	43	2
112	112	5
45	45	4
26	30	3
83	84	5
79	79	1
120	121	3
93	111	3
7	27	1
15	91	2
51	129	1
35	35	2
67	67	3
27	41	1
7	108	4
11	84	2
103	104	2
98	98	1
1	64	4
56	56	1
55	55	2
37	40	2
105	106	2
114	134	1
97	99	2
134	134	1
57	65	2
37	44	1
95	101	2
86	87	1
17	18	1
4	91	2
128	130	1
113	130	1
78	78	4
36	40	2
22	24	2
87	87	1
77	121	1
28	28	4
101	101	4
9	47	2
26	26	1
105	105	1
97	98	2
99	99	1
1	1	2
30	42	1
14	14	2
25	25	2
91	92	1
82	123	1
123	123	1
34	34	1
17	34	1
122	122	2
32	33	1
117	117	1
19	19	2
90	90	1
18	33	2
18	19	1
3	3	2
88	123	1
28	30	1
33	33	1
78	121	1
41	42	1
112	114	3
98	111	1
2	2	1
127	127	1
4	93	2
100	111	1
31	32	1
100	101	1
