10	39	2
155	220	1
98	98	1
44	109	1
171	173	2
45	45	6
16	26	2
103	103	3
230	230	1
22	23	4
223	223	4
206	206	2
148	150	1
32	33	3
231	231	7
9	16	1
171	174	5
3	3	3
71	71	4
137	137	6
175	175	6
194	227	3
43	66	3
29	29	5
9	14	3
200	200	2
100	100	2
31	31	4
56	56	4
147	147	3
57	57	1
18	18	1
34	35	1
67	67	6
63	73	3
5	5	5
232	232	3
73	75	4
59	60	1
106	109	2
57	60	3
80	80	3
202	202	5
154	154	1
191	192	3
76	76	4
147	148	2
13	13	12
31	34	4
207	207	4
62	62	4
51	52	1
146	149	2
40	40	3
54	62	1
221	222	3
60	60	2
97	97	4
36	37	2
216	216	3
227	229	2
148	149	8
150	150	3
62	63	2
161	189	1
7	7	15
219	219	3
58	58	5
10	11	2
215	215	3
161	165	2
17	17	4
188	190	1
167	188	1
81	82	2
197	198	2
117	117	4
55	55	3
169	182	1
161	161	1
198	199	2
25	225	7
141	141	8
236	237	1
170	171	4
113	113	1
114	117	1
163	165	2
159	171	2
36	39	1
123	123	1
228	231	2
95	95	2
210	210	1
40	49	1
145	145	2
155	157	3
34	34	4
79	80	1
6	6	2
35	60	1
155	155	1
56	57	1
151	152	3
146	146	4
41	41	2
44	44	3
208	208	3
133	141	1
42	66	2
117	118	1
229	229	6
100	101	2
186	187	1
25	25	2
19	19	4
21	22	3
23	74	5
143	143	4
10	16	2
149	190	2
129	129	1
83	103	2
9	10	1
145	146	2
14	187	3
50	53	1
82	82	2
121	121	6
240	240	3
21	21	5
113	123	1
226	227	1
75	102	2
224	226	1
201	217	1
20	29	2
51	51	3
193	193	4
78	78	1
35	59	1
41	78	5
148	148	5
213	229	2
168	168	3
143	188	2
15	37	2
133	138	2
4	6	2
41	54	1
140	158	1
237	240	1
234	234	3
136	137	3
233	233	5
105	105	3
20	20	3
191	237	1
0	0	2
35	36	2
125	134	3
30	42	3
83	83	1
48	49	1
111	116	3
193	196	2
173	212	1
3	225	2
42	42	1
200	203	1
237	237	1
10	10	2
140	140	2
167	167	5
154	155	1
226	226	5
202	220	1
81	83	3
136	159	1
212	212	5
72	73	4
135	135	2
196	196	2
200	209	1
9	9	4
192	193	1
49	49	2
139	141	1
108	108	2
31	59	5
102	126	2
225	225	3
7	8	1
227	227	6
241	241	1
215	217	1
20	22	1
185	185	2
90	99	1
172	174	1
149	163	5
54	54	1
120	126	1
39	59	4
54	66	1
189	189	2
4	4	2
174	174	2
36	64	2
147	168	3
130	131	1
176	208	2
85	85	4
54	55	1
37	38	1
84	84	4
194	211	4
136	136	2
137	138	2
202	204	1
3	76	2
33	51	3
142	142	3
204	204	2
152	158	1
48	48	4
217	217	3
132	133	1
196	207	3
11	23	1
193	194	1
71	72	2
171	171	2
79	79	1
152	160	1
68	69	2
65	65	6
32	32	1
188	188	1
15	15	2
157	160	1
127	127	1
87	88	2
190	190	3
57	59	1
213	213	2
122	126	4
69	69	3
18	21	2
197	197	2
63	63	2
46	46	3
34	38	2
175	189	3
124	125	2
145	147	1
222	222	4
80	118	1
44	45	5
88	88	2
169	169	2
9	24	2
153	153	1
4	5	5
76	106	1
106	106	3
236	238	2
201	201	2
1	75	1
122	124	1
180	180	2
2	2	4
33	33	1
166	166	2
37	37	1
209	216	2
80	103	1
203	207	2
220	220	4
211	211	1
120	121	7
173	174	1
107	107	1
22	22	2
54	68	1
164	164	3
131	132	1
19	64	1
77	78	1
204	220	2
229	234	1
23	23	2
43	54	1
238	239	1
195	211	1
43	65	2
31	33	2
134	148	2
5	7	1
191	191	1
122	122	2
163	163	2
43	43	2
233	234	1
102	103	1
121	123	1
176	176	1
102	111	1
218	218	3
138	138	1
191	207	2
63	69	1
135	151	1
198	200	2
155	206	1
11	11	1
1	1	1
101	101	1
196	202	2
44	68	1
24	74	1
153	192	1
104	104	1
173	210	1
28	28	1
13	214	1
1	4	1
224	224	1
142	151	1
153	168	1
128	129	1
216	218	1
156	156	2
54	65	1
18	20	1
185	222	1
15	27	1
178	180	1
135	136	1
160	181	3
33	34	1
34	46	1
147	189	2
201	212	1
156	157	2
187	187	1
67	75	2
103	106	1
132	132	1
23	24	1
205	205	3
86	86	1
58	59	1
203	203	1
212	218	2
12	12	1
21	23	1
52	53	1
177	207	1
159	159	1
0	12	1
9	21	1
155	172	1
224	225	1
47	47	1
158	159	2
13	187	1
24	26	1
84	85	1
142	144	1
153	154	1
