63	63	6
91	92	7
24	24	4
11	11	20
94	94	10
23	31	1
4	4	4
88	88	6
33	35	2
52	114	1
95	95	15
97	98	1
86	88	1
36	36	14
108	111	3
131	131	11
118	119	6
77	77	8
33	33	12
93	93	19
83	117	2
22	23	4
119	119	13
74	74	6
124	130	5
132	132	7
33	34	7
35	36	3
44	82	3
18	21	3
125	125	1
54	63	2
69	69	11
8	8	10
115	115	2
122	128	2
21	22	3
64	65	3
100	100	13
82	84	3
84	84	10
13	13	10
70	71	4
109	109	5
56	56	3
22	22	5
99	135	1
96	96	6
75	75	10
70	93	1
105	105	3
115	122	2
30	30	3
15	19	5
15	75	2
94	99	6
64	64	6
13	16	3
44	87	1
28	29	5
79	79	8
45	114	2
7	9	1
10	10	2
29	30	5
5	5	6
72	100	4
15	15	3
102	102	12
70	114	5
117	117	4
52	62	1
78	78	4
122	123	6
1	2	1
7	11	3
54	55	7
11	34	1
35	35	6
106	106	6
127	127	3
28	30	1
89	89	1
65	66	10
81	81	4
55	63	1
44	86	2
92	92	3
116	116	1
124	124	1
120	120	1
20	20	8
134	134	4
98	114	2
73	104	7
12	12	8
57	57	6
72	72	10
63	64	4
101	101	6
91	91	3
37	38	2
98	98	7
91	102	1
62	63	3
114	114	12
90	93	1
17	19	5
27	27	8
24	32	7
100	101	2
123	123	4
54	66	6
49	130	5
69	70	2
103	103	17
2	4	5
49	132	4
125	126	9
68	71	5
67	68	1
50	132	1
114	115	2
133	133	2
88	114	4
32	32	6
104	104	2
112	113	4
43	43	5
25	27	4
44	84	7
26	26	7
121	121	7
43	85	3
126	130	3
76	76	5
69	98	2
0	0	1
82	117	2
106	111	1
60	60	3
6	42	3
6	6	3
8	35	3
48	49	2
65	71	5
92	133	3
28	28	5
102	103	3
10	11	2
12	76	2
19	20	7
25	25	6
16	16	7
115	116	2
127	130	2
44	44	6
90	91	4
9	9	7
85	85	1
23	23	7
80	80	12
70	70	8
25	32	6
26	27	3
124	125	3
118	118	7
53	113	3
59	59	13
84	85	2
73	73	3
21	21	6
71	72	1
108	108	3
113	114	2
70	91	4
97	97	2
31	31	3
110	111	6
9	11	1
4	5	2
52	112	5
48	48	2
48	52	1
135	135	6
95	97	2
56	63	2
65	72	1
15	104	1
86	86	2
70	88	1
6	7	5
5	20	2
13	23	2
119	120	2
99	99	4
68	68	2
87	109	1
2	2	7
49	83	2
9	10	2
87	108	2
89	92	2
125	130	4
80	110	1
108	110	1
96	97	3
128	128	6
54	54	4
77	78	7
8	9	2
59	73	1
107	108	2
110	110	6
50	53	1
90	90	4
66	67	2
62	62	5
130	130	3
125	133	2
46	114	3
90	121	1
124	129	1
18	18	4
60	106	5
96	131	2
1	1	2
61	61	4
5	43	1
83	83	4
35	37	2
91	133	1
44	88	1
101	104	1
61	62	1
92	93	1
13	21	2
34	34	5
54	69	1
13	22	4
61	106	1
87	87	2
37	37	4
111	113	1
55	114	2
115	129	2
17	17	4
116	124	1
15	16	2
49	124	1
64	67	1
105	106	1
87	110	1
34	35	1
113	113	3
105	112	2
31	37	2
29	31	2
128	130	1
50	124	2
126	126	5
75	76	2
71	71	2
7	35	2
24	31	2
116	117	1
107	107	1
128	129	2
82	82	2
27	28	1
58	58	1
44	81	1
21	25	2
111	111	1
130	132	1
58	59	1
112	112	1
123	124	1
53	53	1
106	107	1
106	108	1
45	82	1
54	98	1
66	71	1
129	129	1
124	128	2
11	22	1
130	131	1
132	133	1
32	33	1
54	65	1
88	111	1
72	73	1
104	105	1
15	103	1
14	16	1
94	95	1
116	122	1
23	24	1
91	104	1
65	65	1
