179	179	13
182	183	2
57	59	3
161	162	4
169	169	3
140	140	20
104	104	2
46	47	3
183	183	8
10	10	7
85	86	3
22	22	2
156	156	9
95	105	1
154	154	7
97	97	8
120	120	2
136	137	6
119	119	7
64	81	4
48	68	2
160	162	2
126	127	11
188	188	8
143	143	9
122	123	1
21	23	1
7	7	6
30	30	1
186	186	14
146	146	4
58	58	15
163	163	2
173	173	6
74	74	5
159	159	7
85	146	1
147	147	5
127	127	12
166	168	6
15	15	2
64	72	3
185	185	4
178	178	10
23	68	1
55	56	1
41	41	9
52	52	4
161	166	1
27	27	4
96	96	3
155	155	4
87	87	1
105	105	6
25	25	10
31	31	7
43	44	5
152	152	8
62	127	2
25	26	5
103	103	4
16	16	13
126	128	3
12	13	4
75	76	3
39	39	11
85	90	1
181	181	17
48	48	13
35	36	1
91	148	3
4	4	4
152	153	2
40	40	4
153	153	6
64	64	3
147	182	3
78	78	11
82	82	5
156	158	3
18	18	4
134	134	2
96	98	3
148	148	2
21	112	2
139	140	2
180	181	6
66	71	1
29	33	1
2	2	15
8	29	7
112	112	6
101	101	2
186	189	3
123	123	11
40	54	3
151	151	10
70	70	5
91	91	9
8	8	10
29	29	12
177	180	1
86	140	2
33	34	2
26	26	5
164	164	2
8	11	1
114	114	9
55	55	16
130	131	3
158	159	3
88	88	18
76	77	6
108	108	9
21	105	1
139	139	6
5	5	4
130	130	4
113	114	2
89	141	2
86	183	3
121	121	15
17	18	5
14	14	3
102	103	2
157	157	2
94	148	1
181	183	8
142	142	2
27	48	9
40	48	7
59	59	3
142	144	2
124	124	10
182	182	6
40	41	2
29	30	2
90	90	7
32	33	3
172	172	6
166	186	2
6	6	7
150	150	3
62	62	6
87	183	4
57	68	1
125	125	5
164	190	2
84	141	10
79	79	3
138	138	6
100	100	8
38	41	1
121	138	1
129	129	4
83	83	3
23	23	10
125	126	3
12	12	4
0	1	3
107	107	7
65	65	2
10	27	3
71	124	2
177	181	2
80	80	1
7	34	1
47	47	2
170	171	1
87	123	2
149	149	4
56	56	9
137	137	4
57	57	5
169	170	4
138	139	6
37	41	1
173	174	1
17	17	9
78	95	2
142	145	1
101	102	6
23	32	2
36	36	9
187	187	1
75	75	8
97	98	2
84	84	8
99	99	3
1	4	1
121	123	2
57	103	3
86	86	10
136	136	7
42	43	2
72	72	2
94	150	2
128	128	5
28	34	5
92	139	3
61	78	3
70	75	2
124	125	3
34	35	2
93	93	3
188	190	4
34	34	3
62	63	2
147	168	1
63	63	6
117	117	9
48	54	2
54	54	5
45	45	3
95	95	10
77	77	7
28	28	8
76	76	11
59	60	3
141	154	2
73	73	7
95	96	3
104	105	3
127	128	1
28	29	3
90	91	2
185	186	1
79	136	1
2	3	1
3	6	2
135	139	1
175	175	9
64	79	1
167	170	1
134	135	5
35	35	6
124	178	2
56	96	2
183	184	2
78	82	3
84	85	2
38	42	3
137	138	1
171	171	1
110	110	3
83	88	4
37	37	3
149	150	2
95	124	3
169	173	3
71	71	5
88	182	3
174	174	6
82	130	1
18	19	2
71	72	4
21	21	2
174	175	6
109	110	1
161	161	2
60	60	4
24	25	2
156	157	1
56	57	5
20	21	2
68	68	2
30	33	2
184	184	4
12	15	3
45	48	2
89	89	3
110	113	1
84	147	2
92	92	4
53	53	1
170	170	5
63	98	2
19	19	2
89	130	1
88	89	6
83	128	1
85	85	5
101	103	3
79	141	2
83	140	1
164	165	2
65	73	1
64	65	2
111	111	1
0	0	6
121	137	1
179	180	6
158	161	2
87	88	2
70	94	2
36	37	1
79	147	2
132	133	2
118	173	4
42	68	2
115	116	1
46	48	3
131	131	7
114	115	3
31	32	1
186	187	3
177	177	2
173	177	1
157	159	4
106	106	3
158	158	2
61	62	2
94	94	3
178	180	1
79	82	4
38	38	3
113	113	7
46	46	1
115	115	1
69	69	2
176	176	6
171	172	2
20	20	2
28	33	1
180	180	4
66	67	1
87	90	3
30	48	1
112	173	3
169	185	2
122	176	1
91	121	1
71	105	1
80	84	1
157	184	2
54	55	3
16	18	3
24	24	6
11	11	3
125	178	2
118	118	2
72	94	1
71	76	1
178	179	1
63	76	2
171	174	1
85	151	1
32	32	3
136	138	2
136	139	1
179	187	2
109	109	2
163	164	1
165	165	9
3	3	1
153	154	2
119	120	2
141	141	2
88	129	1
75	77	2
190	190	2
24	31	4
142	143	1
68	109	1
29	34	1
160	160	1
166	178	2
144	144	1
157	158	3
122	122	4
69	70	1
21	22	1
16	17	1
67	182	3
151	152	2
26	34	1
102	102	1
44	44	2
164	166	1
95	107	1
10	11	1
48	56	1
72	73	1
123	129	1
91	122	1
142	154	1
27	30	3
13	13	3
135	135	2
162	162	1
132	174	2
55	115	1
172	173	1
167	168	1
79	80	1
60	102	1
70	71	2
189	190	1
110	140	1
57	77	2
81	83	1
1	6	2
143	144	2
47	48	1
70	130	1
4	6	1
57	98	3
134	137	1
148	149	2
84	168	2
88	122	1
132	176	1
61	102	1
43	47	1
11	12	1
132	132	1
1	1	2
43	43	3
61	61	2
95	99	1
98	98	1
112	113	1
81	81	6
108	111	2
133	133	1
160	189	1
140	141	2
26	36	1
117	174	1
161	179	2
22	48	1
22	68	1
90	110	1
77	95	1
129	131	1
166	166	1
105	106	1
122	132	1
24	38	2
34	36	2
27	36	2
116	116	1
126	141	1
74	76	1
141	159	1
65	66	1
89	96	1
129	160	1
91	98	1
2	53	1
92	93	1
70	123	1
167	167	1
84	146	1
98	106	1
87	141	1
168	168	1
21	24	1
