65	65	2
35	36	2
119	121	4
75	75	15
111	126	4
34	35	9
24	24	3
15	19	2
17	20	2
82	88	1
23	27	2
36	37	1
5	32	2
37	38	6
51	102	1
77	77	2
120	120	3
97	97	4
116	117	2
56	103	3
110	127	1
29	80	1
17	18	2
123	127	1
122	122	3
23	23	2
119	119	1
121	121	2
122	123	3
28	28	3
44	44	3
28	45	1
64	64	4
130	131	1
109	109	3
67	67	2
61	61	1
127	127	4
124	132	2
68	69	1
105	110	1
45	45	7
35	35	1
88	93	3
46	46	4
102	103	2
3	4	1
103	103	4
107	107	3
80	80	1
88	99	9
0	0	6
102	116	1
131	131	3
95	95	5
15	115	7
7	19	3
12	12	3
88	89	4
33	33	6
65	66	1
63	123	1
78	94	3
35	40	7
68	68	3
120	125	3
43	43	3
113	113	2
72	72	3
117	117	6
36	38	1
59	119	9
61	62	2
129	130	2
108	108	1
9	9	1
8	8	1
14	14	2
66	66	2
99	99	4
62	62	1
91	91	2
27	28	3
27	27	4
26	26	9
21	21	3
19	19	6
76	76	6
11	11	2
83	88	2
70	70	2
30	30	2
18	18	4
104	104	5
31	91	1
96	105	2
5	5	1
4	4	1
36	44	2
123	128	1
0	36	1
47	47	3
82	82	2
96	97	2
57	58	6
8	32	1
83	84	1
96	96	1
34	34	1
32	33	2
81	81	2
45	50	2
114	115	1
1	1	5
133	133	3
36	73	5
77	117	1
124	124	3
44	45	2
36	45	2
111	111	3
111	118	2
34	73	2
55	102	2
63	63	2
78	78	2
67	68	3
37	39	3
73	73	5
115	116	1
93	93	2
36	36	2
41	41	1
79	80	4
54	56	1
74	74	2
42	42	4
38	38	4
128	128	2
49	70	1
16	16	1
2	3	2
118	118	2
129	129	6
124	125	1
133	134	1
20	22	1
26	29	1
60	60	1
63	64	3
120	130	2
21	22	2
69	69	1
18	20	2
128	130	1
84	84	1
57	57	2
87	134	1
109	110	1
15	16	1
100	101	1
17	17	1
126	126	1
7	18	1
32	32	2
7	7	2
55	101	1
56	56	1
5	27	3
39	43	1
114	114	3
90	90	1
68	77	1
49	50	2
55	114	1
57	116	1
33	79	1
66	67	1
4	27	1
24	35	2
31	31	1
25	25	1
82	99	1
45	71	1
127	131	2
55	55	1
58	121	1
48	70	1
8	9	1
6	6	1
14	16	1
57	107	1
