113	114	3
101	101	3
99	104	2
68	84	1
34	34	2
43	45	5
46	47	4
54	55	6
38	38	7
90	91	1
68	69	4
49	49	4
80	80	2
54	94	1
26	27	2
101	108	2
105	108	2
30	42	2
97	97	8
84	84	3
29	29	4
109	109	1
42	42	5
27	27	4
83	83	8
25	47	2
108	108	6
55	59	1
47	62	2
21	31	6
47	47	10
81	82	3
43	43	3
78	88	1
66	66	2
59	59	6
25	30	3
45	46	7
24	24	4
98	99	2
86	104	4
35	37	2
78	78	9
73	74	2
74	75	7
55	58	5
22	22	1
90	90	1
94	94	6
93	93	5
79	79	2
97	113	2
21	23	1
98	102	2
103	103	4
40	50	3
49	65	2
37	39	2
76	76	7
51	65	1
58	58	6
28	29	5
55	55	3
71	71	10
111	111	7
47	60	1
109	110	1
104	105	1
70	70	4
54	54	5
75	75	4
62	62	2
111	112	2
43	57	1
43	44	4
25	28	2
26	26	3
42	43	1
30	30	3
107	107	6
40	41	1
25	26	3
25	32	2
21	21	4
50	50	4
41	42	1
82	83	3
91	103	1
57	73	1
43	56	1
67	69	2
46	46	1
19	19	1
81	81	3
40	42	2
102	104	2
108	109	3
67	94	2
99	101	3
79	85	1
69	69	6
41	41	3
85	86	9
75	76	2
81	110	1
69	89	1
51	51	3
43	58	2
102	102	7
47	61	3
76	78	1
86	90	2
107	112	1
37	38	1
27	29	2
77	77	2
33	33	4
23	51	1
46	48	2
58	69	1
106	106	2
59	72	1
22	25	1
88	91	1
59	61	2
95	95	3
39	40	2
85	95	1
71	72	2
23	25	3
67	68	3
82	86	1
68	68	5
45	62	2
86	86	4
44	44	5
112	113	3
53	54	4
52	55	4
92	95	1
65	67	2
98	98	4
43	61	1
112	112	2
33	55	1
28	34	2
35	40	2
25	25	2
89	96	1
69	94	1
71	77	1
28	45	1
66	94	4
103	108	3
31	40	1
92	93	3
35	35	4
55	62	1
38	44	1
36	37	1
100	101	1
55	56	1
28	28	4
71	87	3
83	102	2
99	99	3
22	23	1
102	109	1
58	77	1
61	72	1
32	32	3
73	77	2
57	65	1
113	115	1
53	55	1
20	22	1
72	74	2
57	57	2
65	69	2
31	32	3
60	71	1
50	70	1
51	52	1
56	56	1
78	87	1
45	45	1
19	26	1
85	100	1
59	60	1
81	83	2
83	84	2
91	99	1
50	51	1
78	89	1
107	109	2
67	67	2
80	86	1
20	20	2
33	34	1
97	98	1
95	114	1
102	103	1
96	97	3
20	28	2
60	61	1
48	48	3
66	69	1
54	68	1
34	35	1
53	53	1
50	53	1
73	104	1
21	27	1
63	64	2
88	90	1
60	73	1
47	49	1
74	74	1
60	76	1
64	64	1
110	110	1
110	111	2
59	64	1
69	70	4
30	31	1
87	104	1
111	113	1
98	107	1
42	65	1
99	100	1
105	105	2
57	58	2
93	94	1
47	59	1
74	89	1
98	114	1
67	82	1
19	20	1
82	91	2
100	100	2
56	57	1
56	58	1
31	31	1
91	91	1
71	73	2
32	40	1
82	109	1
43	68	1
20	21	1
55	73	1
37	37	1
36	40	1
32	33	2
96	98	1
96	96	1
74	83	1
26	29	1
114	114	1
70	82	1
97	100	1
45	48	1
47	48	1
49	51	2
39	39	1
67	70	1
58	76	1
105	106	1
