187	187	2
1	3	1
148	150	3
38	97	5
111	111	7
9	9	3
178	179	4
175	175	6
3	4	1
88	88	2
104	145	1
184	184	6
108	108	1
141	141	5
112	113	4
34	34	4
127	127	1
151	152	3
5	6	6
167	167	2
117	117	3
30	31	2
82	82	3
64	64	6
13	15	3
121	121	1
41	41	5
50	50	8
82	83	9
100	100	1
119	119	4
183	183	4
21	21	1
29	32	1
69	69	1
16	66	3
73	73	4
39	72	2
106	106	3
63	64	3
192	193	3
140	140	2
115	168	2
179	181	1
138	139	3
156	157	7
81	81	10
144	144	2
18	18	3
196	196	5
168	168	5
1	1	3
185	185	2
14	14	3
45	45	8
177	177	5
4	4	7
124	124	3
47	47	5
7	7	2
58	58	3
170	181	4
37	38	1
31	31	5
24	25	3
83	83	1
113	113	7
99	100	3
63	63	3
179	179	2
8	8	1
34	35	1
40	75	5
66	71	3
19	19	8
176	177	4
101	102	2
169	169	2
188	189	6
27	27	3
5	5	4
4	6	6
153	153	4
98	98	4
160	160	4
53	55	3
194	194	6
42	43	5
72	72	3
30	30	5
11	12	2
75	75	2
15	50	1
67	68	3
121	122	4
53	53	1
156	168	1
16	16	3
148	148	3
24	24	2
68	68	3
42	42	2
25	35	5
190	191	4
107	145	2
61	61	2
167	168	2
108	110	1
69	71	1
65	125	1
40	41	2
174	174	9
53	54	1
61	62	4
129	129	3
89	89	1
137	137	1
55	58	3
165	166	1
113	131	4
87	87	1
163	165	2
48	128	1
54	54	4
133	136	1
118	157	4
123	123	5
40	40	6
90	90	1
189	189	1
9	10	3
152	153	1
104	104	3
70	70	2
163	163	4
173	173	2
119	158	2
96	96	6
15	15	1
57	57	3
188	188	3
114	115	2
155	155	2
143	144	1
132	136	2
2	3	4
195	195	3
95	95	2
44	100	4
132	133	1
69	93	1
146	146	4
23	23	5
38	38	2
66	66	5
157	158	3
193	194	2
134	134	1
39	39	3
118	122	1
124	125	3
20	20	1
159	159	2
132	132	4
178	178	1
193	193	2
13	13	2
116	117	3
139	142	3
147	147	1
145	145	1
25	31	2
16	19	2
130	131	2
123	128	1
128	128	3
78	80	1
174	178	1
15	20	1
110	142	1
181	182	3
115	178	1
114	182	2
175	177	1
94	98	2
191	192	1
118	118	3
73	74	2
52	61	2
168	169	2
69	70	5
143	149	2
33	153	1
138	138	2
0	1	1
168	184	1
43	73	1
133	135	1
95	96	1
33	33	1
15	16	3
188	191	1
11	11	1
190	194	2
49	49	3
84	85	1
84	84	1
149	150	1
83	84	2
143	143	1
107	108	2
77	77	3
133	134	2
35	152	1
88	89	3
99	99	4
139	139	1
135	135	3
150	150	3
25	25	1
28	28	2
36	146	1
152	152	1
17	66	1
109	110	1
14	59	1
3	6	1
157	157	1
38	39	1
115	116	1
179	182	1
59	61	2
51	51	1
89	90	1
122	122	1
102	102	1
130	134	1
186	186	2
60	60	1
162	190	2
74	74	1
195	196	1
52	53	1
125	125	1
52	52	1
183	184	1
119	121	1
177	178	1
