95	95	1
24	24	8
0	1	3
145	146	1
66	68	1
71	142	2
32	32	6
11	11	11
136	136	7
81	81	6
103	104	5
20	20	2
127	140	1
14	16	1
105	105	1
87	87	3
79	79	13
64	65	11
97	98	3
98	135	2
118	118	3
144	144	10
80	81	8
104	118	2
17	17	12
29	29	2
65	66	2
50	50	4
16	16	13
52	52	7
120	120	3
43	43	7
14	15	3
100	101	8
71	71	10
27	27	8
90	91	4
131	131	9
18	18	6
127	132	4
106	106	6
117	117	8
72	72	8
19	19	8
134	134	3
129	133	1
141	141	8
122	122	7
2	2	8
35	36	2
128	128	4
28	30	4
98	99	1
67	68	5
18	19	3
10	10	7
91	91	1
65	65	7
128	130	5
140	141	1
105	139	5
53	53	6
97	97	5
26	26	6
92	93	2
38	38	13
115	115	8
67	69	4
43	122	2
14	14	1
107	120	7
113	113	4
108	128	1
49	80	1
60	61	3
103	103	13
62	62	4
72	123	2
96	96	7
26	27	5
110	110	7
80	80	16
94	136	2
140	140	9
85	109	2
102	103	4
136	140	3
51	51	10
112	118	2
122	138	2
81	82	3
61	61	3
60	67	3
145	145	1
40	98	2
43	136	1
139	139	3
130	131	4
26	28	1
127	139	2
129	129	4
5	6	4
133	133	5
99	100	3
125	125	3
56	56	8
117	118	1
13	13	7
31	32	2
57	57	11
25	30	1
127	128	2
129	130	3
134	135	2
47	47	4
69	69	3
50	51	3
71	74	1
128	129	3
70	70	2
48	81	2
76	119	1
118	126	1
28	28	9
71	140	5
137	139	2
143	144	5
102	102	2
143	143	4
9	9	4
119	121	1
142	142	2
84	101	1
83	84	1
89	89	7
42	136	1
49	50	1
58	58	1
75	130	2
130	130	4
88	89	2
40	40	7
15	16	4
3	4	4
94	94	4
144	145	1
85	85	9
107	107	5
4	4	3
1	23	3
123	123	3
53	105	1
2	5	1
113	115	3
83	83	2
78	80	2
52	53	1
70	72	2
101	101	6
55	56	5
54	54	6
85	108	3
32	92	3
61	68	3
116	117	2
42	42	4
1	1	4
88	88	3
108	108	5
105	106	2
119	119	9
99	99	3
34	34	5
25	25	3
55	55	6
92	92	6
75	75	3
100	135	3
53	63	2
107	109	2
66	67	2
96	97	3
112	112	2
62	63	1
3	23	4
23	23	4
15	93	1
120	121	1
113	118	1
9	10	3
126	126	1
112	113	6
101	141	1
74	74	5
31	31	5
25	26	1
132	133	6
87	121	3
26	31	3
59	59	3
124	124	4
82	82	5
11	22	3
109	111	1
36	36	3
68	70	2
118	129	1
71	126	1
23	92	1
0	23	1
57	58	2
63	63	5
132	132	5
60	60	3
33	33	2
53	54	2
2	3	2
64	64	5
114	114	2
106	119	4
67	67	5
74	81	1
49	49	1
98	98	3
23	91	2
76	118	2
77	77	1
21	21	2
109	109	5
137	138	2
84	85	2
138	138	1
72	140	2
37	37	1
106	128	1
32	95	1
43	47	1
68	69	1
22	22	4
20	21	7
17	18	3
79	81	2
37	38	2
138	139	1
57	67	1
118	119	1
7	11	1
10	11	2
24	31	2
6	6	5
28	29	2
66	66	4
62	66	1
123	124	1
21	37	1
30	32	2
21	22	3
118	128	1
111	118	1
33	39	1
31	91	1
97	128	2
51	52	1
73	123	1
137	137	2
124	125	1
135	135	2
24	35	1
42	43	2
105	107	1
21	38	1
36	39	1
73	73	1
121	121	1
40	41	1
48	48	2
87	88	1
47	94	2
73	124	1
98	124	2
127	134	1
104	104	1
108	110	1
93	93	1
4	5	1
20	42	1
41	42	1
57	113	1
