41	43	3
102	110	6
99	99	23
76	79	1
37	37	26
113	113	21
33	53	3
63	64	5
29	29	9
91	91	18
111	111	4
55	55	26
61	61	16
87	87	12
31	32	13
80	85	8
38	38	19
65	65	26
56	57	5
96	97	9
21	21	9
38	39	8
60	61	2
23	23	9
88	88	12
44	46	4
88	91	3
30	30	23
98	98	26
93	107	8
36	36	11
101	101	21
77	77	14
71	72	2
62	62	22
109	110	16
46	46	21
34	41	6
106	106	10
85	85	11
60	60	12
76	76	18
92	92	11
24	37	2
79	80	7
74	74	16
20	20	7
66	66	26
36	40	2
67	67	16
80	98	1
35	35	15
84	85	3
69	69	22
94	95	1
26	40	5
95	100	1
81	81	8
113	114	8
32	32	12
49	49	13
83	83	12
68	111	5
52	52	4
112	113	4
43	43	7
79	79	11
50	51	15
58	58	10
94	94	11
22	22	8
57	57	15
112	112	9
100	100	15
90	91	2
28	39	1
102	103	5
67	109	2
77	97	2
82	82	27
75	75	8
85	86	10
103	103	20
48	54	7
111	112	6
96	96	12
29	30	3
39	39	14
47	47	8
50	50	15
107	107	19
52	53	6
54	55	6
53	53	11
58	59	6
41	41	9
73	73	7
78	85	5
80	81	14
47	48	6
106	107	8
56	85	2
104	104	13
89	89	13
43	44	2
83	85	3
27	27	9
89	90	4
67	76	1
35	39	4
57	58	10
19	22	2
48	49	3
102	102	19
84	84	7
24	24	7
74	75	8
28	28	7
42	42	16
45	45	5
40	40	7
46	50	4
39	40	2
103	105	2
73	113	1
64	65	5
23	37	1
55	84	6
69	109	1
38	55	1
97	97	12
75	76	4
20	23	3
72	72	8
26	26	12
70	70	17
90	90	11
58	60	2
54	54	5
28	36	1
77	78	8
38	56	2
21	22	2
64	64	5
68	68	14
75	98	1
57	60	1
46	47	4
51	51	6
19	20	1
78	79	7
28	35	3
106	108	2
92	107	1
19	19	2
20	38	1
104	105	12
27	28	3
101	102	4
31	31	9
59	59	5
61	86	1
32	34	3
105	107	1
98	102	1
65	76	2
81	82	2
87	91	7
29	97	2
34	34	5
87	92	3
37	39	2
99	101	2
35	38	2
97	110	1
25	26	4
68	69	8
78	78	7
93	94	12
21	23	4
20	25	1
107	108	3
32	51	2
61	64	3
69	70	1
77	80	4
76	77	7
42	46	2
27	31	5
73	74	3
19	23	2
28	29	1
67	110	2
87	93	2
83	84	2
63	63	12
78	80	2
25	25	9
87	88	3
73	98	1
71	73	1
51	53	2
21	24	1
91	92	1
51	52	4
82	84	2
105	106	11
52	61	4
108	109	1
76	80	5
33	33	5
81	83	3
88	89	1
94	107	3
30	31	5
67	73	1
53	54	9
37	38	6
32	33	1
54	84	3
56	83	1
51	80	2
33	34	9
108	108	3
35	36	4
80	80	4
93	93	7
63	107	4
60	95	1
92	94	3
59	77	2
54	85	2
69	111	1
20	39	4
45	47	3
52	60	2
36	37	3
82	83	5
70	71	5
29	31	3
66	74	6
95	95	4
62	63	1
110	110	3
24	25	2
104	106	3
49	50	3
44	44	3
104	109	2
22	23	1
79	98	1
35	41	3
40	82	1
47	50	4
55	57	3
59	60	3
34	35	1
104	108	2
114	114	6
95	97	2
29	36	1
44	45	2
66	97	1
21	39	1
31	88	3
55	56	2
40	41	1
62	86	1
70	72	1
21	25	1
109	109	6
63	106	3
34	60	1
72	74	3
105	105	2
54	57	1
41	48	1
71	71	7
109	111	2
62	77	3
57	89	2
32	58	2
31	36	1
88	90	3
66	67	5
34	59	2
48	50	1
36	56	1
20	26	1
97	98	2
26	27	1
30	35	2
71	74	1
101	109	1
25	40	2
56	56	8
33	35	1
35	56	1
100	101	2
75	78	4
35	40	1
107	109	1
73	112	1
46	49	1
42	47	1
78	86	1
48	48	2
63	97	1
61	77	1
36	38	1
34	50	1
76	78	3
59	61	2
24	40	1
67	69	1
40	55	2
108	110	1
87	94	1
