65	68	6
227	227	9
8	34	3
59	67	4
100	100	11
37	38	5
215	215	25
3	40	3
163	163	3
119	119	6
0	0	3
136	137	12
51	76	2
220	220	7
138	138	2
202	202	10
239	239	4
152	152	10
224	227	2
13	13	11
232	232	3
39	42	7
33	35	1
164	164	5
141	141	6
170	170	16
84	85	2
242	242	12
139	139	12
51	52	7
38	42	11
12	12	19
42	42	6
219	219	5
166	167	2
148	148	6
160	160	11
144	145	18
193	193	8
118	118	6
11	25	5
213	213	8
13	14	8
28	28	3
138	145	2
124	124	13
19	19	4
64	65	11
158	166	1
51	69	7
97	97	6
18	18	12
3	3	18
158	158	7
176	177	5
57	68	7
155	157	5
57	57	9
210	210	13
171	171	9
12	35	5
1	30	4
30	30	10
58	58	9
176	176	2
225	225	7
127	143	2
7	8	7
164	165	11
116	119	2
193	194	12
16	17	8
203	203	14
23	151	3
146	146	5
178	178	6
204	204	8
22	23	6
147	147	11
126	128	4
134	134	4
161	161	6
155	156	5
24	24	8
56	57	3
25	30	3
31	31	14
44	45	4
149	149	8
75	76	6
180	182	6
123	132	2
218	219	7
5	6	4
14	15	2
202	203	6
161	162	1
115	115	12
16	16	3
21	23	6
62	63	6
68	68	9
137	137	7
56	56	12
185	185	7
217	217	7
65	66	5
122	122	12
105	105	13
223	223	11
217	219	2
85	85	14
199	199	14
96	98	6
199	210	3
59	59	8
77	78	6
234	234	12
95	141	2
75	148	8
10	25	1
223	224	7
174	174	3
66	67	8
21	21	18
153	154	3
9	10	1
170	171	1
159	159	8
80	80	22
133	133	11
10	10	10
63	64	4
191	191	6
195	196	6
206	206	20
147	149	1
6	6	14
154	154	11
22	22	20
143	145	7
233	234	9
32	32	5
82	82	9
172	172	10
54	54	10
113	114	7
41	41	11
110	110	3
48	48	4
235	236	1
98	98	1
58	59	6
126	132	5
140	140	7
53	75	1
20	20	10
40	40	13
226	227	9
5	5	8
52	74	7
107	117	4
211	211	2
220	222	2
52	52	5
195	195	7
205	205	5
155	155	5
29	29	6
55	55	5
204	206	2
55	56	8
130	130	5
205	222	4
116	118	2
222	222	8
109	110	5
236	236	14
135	135	12
222	234	2
1	5	1
27	27	10
60	60	11
144	144	10
158	159	4
189	189	19
25	25	6
241	241	3
15	24	3
183	183	5
181	181	11
11	12	11
231	231	8
76	77	6
102	102	14
108	108	6
55	74	1
48	148	3
173	174	1
33	33	12
187	187	13
16	19	4
216	216	5
31	38	4
128	128	1
209	209	14
63	63	11
209	211	4
226	226	14
186	186	2
164	182	2
38	39	3
122	149	5
61	62	4
217	218	3
199	200	3
1	6	3
162	165	5
214	215	12
82	84	2
39	39	13
30	38	5
58	81	3
10	11	6
169	169	16
135	136	10
98	99	6
9	11	3
230	231	6
240	240	3
109	143	3
197	198	2
159	160	3
65	69	5
53	76	2
167	167	3
186	187	3
142	142	7
26	26	8
62	62	9
184	186	9
124	134	3
86	87	4
207	207	3
163	165	7
51	56	1
83	85	3
197	197	15
34	34	8
214	214	7
228	228	18
46	47	8
177	179	5
192	192	9
74	75	4
208	208	7
97	99	1
136	138	5
111	112	2
19	188	2
125	125	9
9	9	19
76	76	7
111	111	13
69	69	8
84	84	6
117	117	6
37	37	12
238	238	2
189	193	4
166	166	7
23	23	9
59	60	5
237	239	1
187	194	1
80	81	5
120	120	4
77	79	5
78	78	10
105	106	5
225	226	10
12	66	1
29	31	5
175	176	3
86	86	9
4	5	14
81	82	5
77	77	6
122	124	1
47	47	3
114	114	5
156	156	7
100	135	2
101	120	2
221	222	5
52	53	1
83	83	5
13	15	1
124	153	4
11	11	16
198	200	7
130	131	4
27	28	5
65	65	1
17	17	14
73	74	8
212	212	6
159	184	3
3	4	6
200	211	4
179	179	6
67	67	8
32	34	3
17	43	1
46	46	3
58	60	5
151	151	6
70	70	8
224	224	8
205	206	16
135	147	3
49	49	11
218	228	1
96	97	2
50	52	5
75	75	8
198	199	5
175	175	11
25	26	4
201	201	1
83	86	1
2	4	2
51	51	4
103	103	8
213	214	2
43	43	8
126	129	3
124	133	1
237	237	11
45	45	6
168	177	2
206	210	1
1	17	2
137	139	1
85	86	4
40	41	4
67	68	4
115	118	3
228	230	2
215	216	4
79	79	5
33	34	1
208	223	1
239	240	3
2	2	10
1	3	1
4	4	4
7	7	8
1	2	2
131	131	7
205	209	2
196	196	4
173	173	4
111	117	5
188	188	3
203	204	5
127	128	1
191	192	5
64	70	2
46	170	2
112	112	3
180	180	9
181	203	1
126	126	8
15	15	3
16	22	2
17	18	3
196	197	6
4	6	4
132	154	2
173	176	2
192	193	4
64	64	3
70	71	3
200	200	8
8	8	8
194	195	6
24	25	2
31	37	3
162	163	1
129	129	7
1	1	3
18	21	7
38	38	4
104	104	9
1	37	2
20	21	4
73	73	13
177	178	2
96	96	1
35	35	9
71	71	12
53	54	1
136	136	5
66	66	4
10	24	1
207	208	5
65	67	3
203	207	1
68	69	11
223	231	6
224	225	7
229	229	14
237	238	3
0	6	1
119	120	3
95	95	2
72	72	5
50	50	3
36	36	3
152	183	2
8	38	1
31	32	2
49	50	9
7	9	3
229	230	3
59	80	2
15	16	1
139	142	1
122	123	4
30	39	1
103	104	4
88	88	4
123	123	10
139	143	3
11	56	3
144	147	1
197	200	1
55	61	1
168	168	10
184	185	1
109	109	3
123	124	3
32	38	1
212	213	3
83	84	9
227	230	1
78	80	1
179	180	2
168	176	1
233	233	7
204	207	1
60	61	1
193	196	2
235	235	5
187	188	4
240	241	7
199	211	2
106	107	2
16	21	2
1	4	3
53	53	9
143	143	6
74	74	3
81	81	8
119	134	1
145	147	1
32	37	3
44	44	3
39	43	3
121	121	6
223	225	1
89	89	2
116	116	2
153	153	5
190	193	2
122	168	2
222	231	1
102	115	1
36	37	4
190	190	6
139	140	3
134	147	3
151	152	6
137	144	4
100	101	2
150	152	1
21	22	4
124	125	1
26	27	2
58	77	2
165	165	3
14	14	3
238	239	1
182	182	3
208	209	4
230	230	6
136	148	1
8	9	3
173	187	1
217	220	2
25	54	2
11	54	1
113	113	8
133	134	8
49	55	2
16	18	5
140	142	3
123	150	5
202	213	1
105	146	1
206	222	2
0	42	1
122	150	1
76	124	2
220	221	2
200	201	3
12	69	1
32	33	2
20	187	1
123	154	1
210	212	1
11	55	2
194	194	7
42	43	1
6	7	4
0	17	3
198	198	3
218	218	2
133	148	1
165	183	1
161	168	2
162	162	2
127	127	4
67	69	4
111	113	1
61	61	1
59	68	1
154	155	2
123	151	1
0	24	1
150	150	3
104	106	7
82	83	6
199	214	1
205	217	3
101	134	1
26	28	1
137	138	2
141	142	1
124	126	2
196	214	2
168	170	1
104	109	1
184	188	2
225	228	4
59	81	2
156	157	3
106	109	2
15	48	1
145	145	1
107	107	2
141	143	1
188	189	3
125	130	1
102	103	1
235	241	2
178	179	3
126	127	2
57	59	1
101	101	2
79	107	2
139	141	4
138	142	2
143	144	1
133	146	1
102	117	2
78	79	1
96	107	1
212	218	1
191	219	1
114	115	2
92	92	1
203	205	1
142	143	2
206	207	1
201	214	1
11	51	1
104	139	1
189	190	3
232	233	2
118	119	1
15	21	2
0	5	2
200	213	1
37	43	2
109	134	2
104	105	2
129	130	4
152	154	1
150	151	3
146	147	3
33	69	1
205	207	1
50	55	1
49	151	2
104	108	2
171	174	1
218	222	1
221	221	4
121	122	2
4	34	1
34	37	2
207	211	1
157	157	1
208	211	1
85	89	1
59	66	1
53	55	3
57	58	3
167	168	1
98	100	1
124	150	1
203	212	1
95	96	4
107	108	1
60	81	1
153	158	1
133	135	1
213	216	1
79	134	1
18	20	1
154	157	1
47	171	1
182	193	2
5	43	1
125	127	1
190	192	1
106	106	1
51	67	1
13	50	1
184	184	1
48	49	1
159	166	1
207	210	1
