46	46	9
85	86	5
33	99	4
69	70	14
94	95	2
59	59	2
94	94	10
42	42	11
57	58	2
84	84	5
80	80	15
79	79	19
79	80	7
50	51	4
42	43	3
43	43	6
54	55	1
91	92	4
41	41	14
53	53	9
57	57	2
32	32	3
39	39	5
71	71	15
35	36	7
66	66	7
22	22	5
80	82	2
85	85	17
99	99	6
64	66	1
76	77	9
60	62	2
55	55	5
48	48	3
47	48	7
38	38	9
61	62	6
58	92	1
24	25	2
73	76	2
74	74	10
53	89	3
89	89	10
98	99	1
86	86	20
86	88	5
47	49	4
73	73	7
81	81	8
62	62	8
52	52	5
95	96	2
76	76	11
92	92	11
76	81	1
63	63	14
39	80	4
99	100	6
69	69	14
58	59	11
77	77	21
60	61	4
58	58	4
101	102	4
83	83	5
51	51	5
33	33	9
68	68	6
45	45	3
64	64	8
34	35	1
72	77	2
75	75	8
38	39	6
54	58	1
78	78	7
48	53	3
35	35	4
49	49	5
61	61	14
82	82	6
55	58	4
64	65	7
70	70	9
84	98	7
67	68	9
87	87	11
84	88	2
79	81	2
66	67	5
60	60	11
41	42	2
54	57	2
55	56	3
58	61	1
88	88	3
97	97	3
27	53	2
101	101	10
77	80	3
81	82	4
89	91	1
56	56	5
24	24	5
31	31	3
90	91	1
70	71	8
93	93	8
63	77	2
77	78	2
98	98	3
52	53	8
27	27	1
72	76	1
90	90	8
22	23	1
80	81	8
33	34	1
48	49	5
63	64	9
56	94	2
97	98	2
35	75	1
37	37	1
37	81	1
40	40	7
47	47	1
93	94	8
65	65	2
53	55	2
36	75	1
96	96	4
71	72	2
50	50	6
78	79	4
82	83	1
100	100	3
37	61	2
72	72	4
71	73	3
75	76	3
100	101	1
44	44	2
84	94	1
64	67	1
69	72	1
74	75	3
87	88	3
25	25	4
64	72	2
79	89	1
72	74	3
57	60	1
59	78	1
66	72	2
34	34	2
48	57	1
85	88	3
78	90	3
26	36	1
75	79	2
48	50	1
92	93	2
26	26	4
59	60	1
76	89	3
67	67	1
44	68	1
74	79	3
54	54	1
43	69	1
89	90	4
39	40	2
44	45	2
23	87	1
86	87	3
86	98	1
59	91	1
27	87	1
62	64	1
39	58	1
95	98	1
55	65	1
73	74	1
32	33	1
102	102	1
20	68	1
31	91	1
27	85	1
26	27	1
44	69	1
