88	88	4
118	118	2
241	241	2
23	27	2
115	127	1
171	188	7
56	76	1
19	36	4
71	73	4
69	80	4
168	168	4
175	189	1
233	239	3
201	215	2
176	176	4
23	28	1
39	39	4
152	152	4
19	19	2
106	106	2
198	198	2
164	170	2
42	42	3
7	7	9
130	130	1
46	46	5
57	58	1
208	208	1
204	206	3
133	149	2
68	68	6
82	83	1
96	98	1
155	155	5
180	199	6
27	27	3
99	125	2
194	214	1
212	229	1
144	144	2
134	134	3
207	207	7
231	235	1
43	45	1
197	198	1
14	15	2
55	55	3
221	230	4
122	123	2
150	150	5
138	138	9
39	203	3
21	21	7
51	52	3
67	67	10
153	153	2
100	100	3
14	30	2
156	160	5
141	143	3
116	131	1
214	214	3
219	221	1
21	22	3
5	22	3
217	219	4
26	39	1
51	51	4
15	15	6
22	22	2
177	177	5
85	102	1
222	222	6
227	227	2
68	77	1
183	183	2
217	222	1
179	193	2
210	212	9
81	81	3
24	45	6
193	193	2
7	8	4
8	8	6
242	242	5
83	83	6
3	216	1
183	196	5
224	224	5
201	201	2
188	188	3
79	79	3
96	96	2
141	156	2
105	105	7
192	194	1
64	64	1
76	76	3
57	73	2
28	30	4
4	4	2
66	80	3
181	181	2
198	199	1
74	86	3
115	115	3
8	13	2
159	159	2
71	71	5
169	183	2
37	50	2
29	72	1
210	228	4
9	9	9
156	159	2
158	158	1
122	122	8
13	34	4
40	40	3
223	223	3
146	152	5
69	81	3
212	212	6
87	107	1
230	230	4
25	25	2
148	176	1
139	139	2
183	185	3
170	170	2
174	174	5
210	213	3
184	184	3
215	229	4
169	169	1
73	73	3
16	16	2
57	57	4
78	78	7
13	13	3
231	234	1
16	26	1
69	70	7
232	232	5
37	37	7
204	204	5
186	199	2
80	80	2
208	216	2
139	140	4
80	83	1
215	222	3
11	11	3
126	134	2
65	74	4
109	109	5
200	200	2
23	23	4
225	225	3
203	227	3
53	56	2
140	140	6
36	36	4
33	33	1
199	199	7
104	104	4
180	180	2
145	158	3
116	117	2
197	215	1
167	175	2
75	76	4
20	49	1
172	172	3
57	67	4
161	169	1
130	155	2
158	160	2
236	239	3
164	164	2
144	145	1
207	213	1
50	66	2
197	197	9
176	177	5
116	130	1
216	217	2
137	138	1
79	85	1
114	138	2
146	146	6
221	226	3
78	98	2
114	114	2
174	175	3
70	181	2
204	213	2
62	62	7
173	173	9
2	22	3
54	107	1
216	222	1
163	163	3
144	164	2
191	204	1
70	70	2
157	157	1
135	153	1
81	101	2
202	239	1
129	145	1
184	187	3
152	161	5
229	229	5
117	117	1
24	24	5
45	45	4
211	211	3
162	175	1
23	25	1
133	152	3
168	169	2
98	130	2
1	9	5
49	49	1
71	72	2
52	79	3
47	47	1
62	63	2
219	219	4
222	228	1
3	218	2
60	75	2
196	228	2
161	166	1
218	218	1
179	179	4
220	220	4
24	46	5
38	43	2
122	125	1
81	82	3
194	238	2
210	211	1
179	181	4
195	225	3
221	221	1
231	231	1
60	60	2
5	215	2
47	48	1
10	15	2
122	148	2
59	75	2
211	213	1
54	106	1
179	198	1
37	48	2
12	12	4
57	71	1
216	216	2
222	230	2
234	242	1
41	41	1
105	121	1
214	216	1
192	193	2
128	128	2
53	55	1
4	27	1
142	148	1
59	60	6
105	124	1
231	242	2
58	219	2
153	159	1
171	186	2
112	112	1
136	137	1
66	68	3
153	197	2
102	102	3
21	227	1
186	186	4
170	172	1
17	18	3
61	61	3
149	155	3
100	106	3
14	40	1
178	178	4
106	122	2
106	142	5
180	194	4
4	8	3
11	12	2
151	152	1
126	126	1
36	47	2
105	106	2
18	18	2
151	158	1
148	166	2
116	116	3
111	120	5
46	65	1
161	161	2
99	99	1
35	35	1
104	116	1
226	241	2
165	168	2
20	21	4
154	187	1
166	166	2
202	203	1
239	239	1
136	136	1
38	38	1
119	140	1
192	192	3
153	163	1
145	145	2
167	183	2
68	73	1
20	20	2
85	85	4
186	206	3
42	46	3
20	50	1
236	238	1
175	187	1
191	191	2
203	203	3
238	239	1
56	56	3
211	212	2
83	85	3
64	65	2
101	105	3
219	226	2
213	213	2
150	152	1
156	156	1
149	173	2
225	231	2
3	3	3
77	81	1
205	223	2
106	127	1
130	141	2
57	61	2
2	2	1
237	239	2
19	24	1
117	127	1
150	162	2
228	228	2
171	172	1
147	147	2
117	124	2
154	160	2
90	104	1
223	236	2
137	137	1
97	111	1
133	133	3
67	73	1
217	227	1
200	207	1
75	115	1
80	105	2
3	39	1
28	28	2
130	137	1
187	188	3
80	82	1
189	200	1
71	106	1
50	60	1
187	187	1
135	137	2
106	159	4
189	228	1
157	175	1
11	31	2
217	217	3
52	67	1
131	152	1
82	82	2
235	235	2
42	43	4
72	72	3
202	236	1
123	123	2
107	108	2
167	168	2
104	130	1
32	32	1
59	59	1
103	105	1
171	171	2
52	52	1
141	141	2
29	29	1
189	189	3
123	140	1
52	55	1
46	48	1
48	53	2
84	84	3
165	165	1
29	31	1
206	206	1
212	217	1
28	31	1
139	142	1
4	7	1
103	103	1
191	197	2
0	4	1
68	69	1
36	54	1
219	220	1
113	113	1
225	226	2
100	105	1
9	24	2
32	60	2
49	50	1
37	38	1
172	207	1
111	111	1
75	83	1
162	177	1
70	81	1
17	17	1
208	222	1
135	135	1
17	25	1
203	214	1
167	167	1
66	66	1
195	196	1
149	149	3
214	220	1
100	117	1
56	58	1
10	10	3
59	63	2
17	23	1
187	189	2
56	75	1
120	120	1
151	151	1
97	97	1
73	75	1
191	200	1
230	232	1
139	157	2
2	13	1
4	31	1
65	65	1
235	236	1
234	240	1
48	65	1
34	36	1
135	208	1
47	67	1
236	240	1
240	241	1
205	205	2
220	221	1
74	74	1
72	107	1
46	66	1
14	32	2
51	65	1
19	20	1
5	5	1
106	124	1
15	31	1
101	101	1
224	240	1
37	60	1
120	138	1
107	117	1
105	115	1
146	147	1
32	49	1
155	160	1
115	117	1
53	53	1
138	207	1
32	33	1
41	66	1
115	136	1
