124	125	3
24	34	3
2	2	2
49	52	1
10	31	2
23	23	11
80	80	5
50	53	4
70	71	8
81	81	20
52	52	11
129	129	4
131	131	12
137	141	1
124	124	18
134	140	7
66	66	6
135	135	7
114	114	9
122	122	7
86	86	4
99	99	13
75	76	4
13	32	1
101	103	4
85	86	3
128	128	9
65	65	11
117	118	3
128	130	2
70	70	6
10	10	11
96	96	9
85	85	7
31	31	6
54	55	12
53	53	3
54	54	8
34	34	11
35	36	4
142	142	8
23	24	5
126	126	10
102	102	7
119	119	7
67	126	5
95	95	5
18	19	2
69	70	1
1	2	6
41	42	2
73	73	16
26	125	2
18	18	11
143	143	12
39	39	7
55	55	4
29	29	15
22	22	14
112	113	1
76	77	4
68	68	7
35	40	3
15	16	7
84	86	2
96	116	7
144	144	6
38	38	9
19	19	4
1	1	4
9	9	7
113	113	6
110	110	12
75	77	1
68	71	4
135	143	2
68	69	4
22	42	1
63	66	2
84	100	3
40	40	7
25	25	8
118	118	14
14	24	1
49	49	6
88	88	6
103	140	2
8	8	14
48	48	3
57	57	9
17	22	3
22	38	6
62	62	7
50	50	5
71	71	7
138	138	7
8	9	1
14	14	9
94	94	14
117	117	7
111	112	5
39	42	3
105	105	9
21	21	8
101	136	3
67	69	2
56	56	19
31	33	1
21	43	2
108	121	2
101	102	3
57	58	5
121	121	8
48	58	3
67	85	1
63	72	1
116	142	1
74	74	7
98	98	10
104	104	10
22	33	3
4	4	6
33	33	4
126	128	3
97	97	3
12	34	3
130	130	5
119	144	2
0	19	1
28	28	3
125	125	1
16	16	7
59	59	13
111	111	7
89	90	6
32	32	10
87	87	9
47	48	2
134	134	6
51	51	1
26	26	14
60	61	9
112	112	3
30	30	5
40	41	2
67	127	1
117	120	1
11	11	9
13	13	12
53	54	3
58	59	8
61	61	5
141	141	13
50	87	3
39	40	3
67	67	3
123	141	5
41	41	6
6	6	5
71	72	10
26	27	3
83	84	1
93	93	11
64	64	9
132	133	4
15	37	2
115	117	2
59	71	2
129	131	4
106	106	6
37	37	15
17	17	7
91	110	1
83	83	4
62	63	3
102	108	3
116	117	6
61	70	2
132	132	7
92	92	6
42	42	13
146	146	1
77	77	4
127	128	6
10	28	1
3	5	3
91	101	1
47	47	5
100	100	12
128	129	2
128	144	2
82	82	3
59	67	1
133	138	2
109	112	1
14	25	4
42	102	3
2	10	2
109	109	3
76	78	1
51	87	1
130	131	6
42	95	1
113	114	4
114	119	1
120	121	4
75	75	9
13	15	1
134	135	4
107	107	4
133	133	4
50	52	2
1	23	1
90	90	3
89	89	1
59	70	3
136	138	1
101	101	1
107	108	2
92	93	1
116	124	1
133	141	3
95	145	2
106	116	2
138	139	3
109	110	5
27	28	3
13	33	1
27	27	4
55	56	4
3	6	5
61	63	7
100	101	3
140	141	4
78	78	1
26	29	4
86	87	1
102	103	2
116	116	7
136	136	2
72	73	3
48	140	1
136	137	2
10	30	3
143	144	2
120	120	2
15	15	3
61	69	1
79	79	4
23	118	1
14	39	5
98	123	6
24	31	1
80	81	5
91	91	9
63	63	3
65	66	5
53	55	1
69	69	13
33	118	1
56	72	2
137	137	3
79	80	2
58	58	7
18	55	1
4	5	4
31	32	3
134	136	2
21	22	2
38	39	4
33	34	2
135	140	1
90	91	6
109	123	5
50	51	1
10	20	2
0	3	2
97	100	5
91	104	1
23	134	1
56	82	2
72	72	6
135	139	1
0	1	2
5	5	9
24	24	1
51	52	2
141	142	2
28	30	1
67	81	1
90	108	1
14	21	2
76	79	1
48	122	1
127	127	6
99	100	4
129	132	3
76	76	4
60	62	2
36	36	1
115	115	2
20	22	2
93	94	2
84	84	4
95	135	3
10	19	1
53	140	2
78	81	2
23	25	3
22	23	5
103	103	1
12	17	1
81	125	1
106	107	2
100	102	3
41	70	2
139	139	5
14	37	1
1	35	1
17	20	1
116	134	2
142	143	2
100	137	2
95	115	1
54	62	1
111	119	1
82	84	1
20	20	1
50	62	1
123	123	6
13	14	1
117	119	3
1	47	1
88	91	1
83	85	1
145	145	2
104	110	1
99	135	1
95	120	1
66	67	1
73	74	1
41	81	1
75	143	1
37	40	1
126	130	1
72	74	1
140	140	4
113	115	1
121	130	1
66	110	1
131	132	1
9	11	2
91	92	2
144	145	2
63	65	1
47	120	1
28	31	1
19	36	1
84	85	1
35	35	1
10	21	1
74	75	1
54	117	1
20	21	1
35	49	1
30	32	1
61	62	1
37	39	1
136	141	2
53	87	1
135	137	1
108	108	1
123	139	1
10	11	1
115	116	2
87	88	1
99	102	1
18	56	1
19	25	1
82	83	1
108	109	1
123	140	1
118	120	1
