80	80	6
65	66	4
196	196	6
60	60	8
125	126	2
170	171	3
45	45	15
45	118	3
185	186	10
159	159	20
220	220	3
105	105	8
152	153	8
137	138	5
228	228	15
46	46	2
175	175	9
143	143	11
236	236	13
5	6	2
167	167	5
229	229	3
36	36	6
20	21	9
186	186	9
217	217	6
241	241	6
238	238	8
33	33	6
54	54	6
100	101	5
206	206	8
131	131	4
182	182	11
231	231	11
219	219	9
185	185	3
183	183	14
136	144	3
81	81	6
25	174	5
191	191	7
67	137	6
101	156	3
19	19	16
142	142	7
101	162	7
151	151	12
106	106	5
209	210	1
146	146	7
128	174	3
123	123	10
216	217	3
76	76	11
37	157	3
100	100	16
187	187	4
78	78	8
226	226	9
137	137	6
230	230	11
27	27	9
187	188	2
211	211	21
156	156	3
221	221	1
150	150	14
201	201	4
98	98	6
134	134	9
199	212	1
40	40	8
242	242	4
44	44	10
215	216	3
109	112	1
15	15	6
29	29	10
56	56	10
170	173	2
174	174	4
33	34	2
74	74	12
130	130	13
109	110	6
18	18	7
14	15	7
179	180	4
47	48	2
181	181	12
214	214	11
152	152	8
108	109	1
10	10	10
229	230	4
57	63	3
210	210	10
111	111	7
32	32	7
162	162	11
192	192	7
101	101	12
186	188	6
195	195	19
63	63	6
123	129	5
197	198	4
199	199	4
158	158	3
127	127	9
23	23	17
180	181	12
81	82	7
84	84	6
191	195	2
139	139	9
37	37	4
25	25	4
102	105	1
237	237	9
235	235	7
175	176	4
136	136	9
35	35	5
120	120	5
117	117	9
178	178	11
209	209	7
169	169	15
113	113	5
183	196	1
26	27	2
128	128	2
26	172	1
192	193	1
55	55	8
112	113	5
27	218	2
50	62	7
27	28	3
197	197	4
58	60	3
139	140	3
49	49	7
202	202	8
146	147	4
113	114	2
218	218	10
173	174	5
168	168	10
234	234	5
109	116	4
12	12	9
136	145	6
183	184	4
233	235	1
154	154	11
42	42	4
28	28	7
177	213	5
78	139	1
222	232	1
156	158	2
115	115	9
86	141	5
60	157	2
47	47	4
223	223	12
55	57	2
202	203	3
180	191	2
172	172	14
64	71	4
42	43	5
189	190	3
119	119	1
21	22	2
103	105	2
224	224	9
82	82	9
69	69	15
201	202	3
184	184	6
171	171	8
207	207	7
151	152	2
173	173	8
10	197	4
97	97	6
232	232	10
30	30	8
24	24	8
86	86	5
150	184	4
41	41	12
122	122	10
180	201	6
122	123	1
45	119	3
76	79	3
48	49	1
21	169	5
211	213	3
22	23	2
29	119	1
163	163	12
135	135	5
31	31	10
124	124	6
149	149	2
205	205	14
22	22	14
162	163	2
30	129	1
97	167	2
46	120	2
222	227	3
112	112	3
8	8	11
161	161	8
172	173	1
154	155	6
141	141	6
165	166	2
21	21	10
11	11	12
225	225	5
61	61	6
31	126	4
67	67	7
109	113	1
33	102	2
42	44	1
17	17	11
179	194	1
102	157	1
48	48	6
240	240	5
20	20	10
53	53	4
58	59	2
71	71	1
148	149	2
38	38	3
62	62	5
43	43	6
7	7	1
114	115	4
99	99	10
38	40	1
208	210	2
26	26	3
101	157	2
39	60	3
35	211	4
157	157	19
9	9	6
227	227	5
11	74	2
54	55	4
158	159	3
177	177	7
138	141	1
144	163	4
102	102	8
52	53	5
148	148	10
75	75	8
175	217	2
190	191	4
0	0	5
88	88	11
119	120	8
122	174	2
177	212	2
216	218	2
144	144	5
160	160	4
3	96	2
104	126	1
135	136	3
97	98	2
153	153	7
52	52	9
56	57	5
70	70	5
236	237	6
164	164	2
190	190	1
4	4	2
204	205	2
65	65	6
203	234	2
226	227	6
179	179	4
66	66	7
224	225	4
8	9	6
6	6	1
14	14	11
26	203	3
109	129	1
116	117	3
198	198	6
136	159	1
59	59	6
68	140	1
29	168	1
115	117	1
30	121	3
138	139	2
132	132	1
207	208	4
15	17	1
70	136	2
39	101	1
0	15	3
237	238	2
79	79	5
13	13	3
75	78	4
116	116	4
36	37	2
128	130	2
123	124	1
177	178	3
171	172	2
50	50	7
69	78	4
154	212	2
74	75	1
204	237	2
77	77	3
191	193	2
215	215	5
176	176	8
135	145	7
51	52	3
109	109	8
132	134	1
121	121	3
1	1	1
223	225	1
39	39	5
18	19	2
110	110	2
169	170	3
140	141	3
177	197	2
2	2	4
238	239	3
107	107	3
82	83	3
170	170	2
239	239	3
151	186	3
73	237	1
36	156	4
104	105	2
230	231	4
37	161	2
29	30	2
38	162	1
136	160	1
153	154	1
5	5	1
77	80	3
145	147	3
216	216	9
132	149	5
58	66	2
233	233	3
2	17	1
64	64	4
133	133	4
140	140	2
25	173	1
160	166	1
75	76	4
182	200	1
62	63	3
118	120	2
157	158	5
133	134	4
204	204	5
80	81	2
136	146	3
152	182	1
30	31	3
155	155	1
102	103	1
164	165	2
120	215	3
129	129	5
72	72	2
34	124	3
179	201	2
166	166	7
185	198	3
58	58	3
125	129	1
11	15	2
141	142	2
131	153	1
103	130	1
51	51	5
239	240	3
57	67	1
173	218	1
31	33	1
145	145	4
136	137	2
61	62	1
108	108	1
38	105	1
24	25	3
148	150	1
161	162	1
12	14	3
28	201	3
107	125	1
134	150	2
178	209	1
186	187	2
34	108	3
103	129	1
59	63	4
32	102	2
241	242	3
196	197	1
189	189	6
213	213	7
4	5	1
212	213	6
130	153	1
175	182	1
39	50	1
60	61	1
61	160	2
222	222	5
147	147	4
118	118	5
18	20	1
157	159	1
107	126	2
225	237	3
12	13	2
161	165	3
84	85	4
3	22	1
134	135	1
18	23	2
66	138	1
49	50	3
35	36	3
27	217	1
2	15	1
208	208	4
115	116	1
124	125	3
73	73	4
167	168	1
208	209	1
29	170	2
24	96	1
0	1	2
176	211	1
180	180	1
50	60	2
203	204	2
70	73	1
101	105	1
38	101	2
85	85	2
228	229	2
9	85	1
135	147	2
156	157	3
127	200	3
89	89	4
219	220	2
108	122	3
76	80	3
9	10	1
177	179	2
104	104	1
211	212	3
10	11	1
31	32	1
17	206	1
114	114	1
131	134	2
43	118	4
67	68	1
174	175	3
193	193	2
64	70	2
99	129	1
131	133	1
80	113	2
96	97	2
221	222	1
9	84	1
161	164	1
71	73	1
205	206	2
48	50	1
70	72	1
227	229	1
210	211	1
13	14	1
168	173	2
75	139	2
13	123	2
200	200	1
202	207	2
87	87	1
109	119	2
183	187	1
123	126	3
126	126	1
74	139	1
210	213	2
38	156	1
44	45	3
34	103	1
188	188	3
217	218	1
135	187	1
105	125	1
180	190	1
196	198	1
37	156	1
77	79	1
220	221	3
76	81	2
31	34	1
72	95	1
103	103	1
200	211	1
152	180	1
46	121	1
8	86	1
240	241	2
103	124	1
207	234	1
231	232	1
194	194	1
41	100	1
154	240	1
83	83	2
77	81	1
38	100	1
61	64	1
179	209	1
204	224	1
205	207	1
59	64	1
144	146	1
