167	167	3
129	129	5
125	125	15
111	111	4
18	18	11
115	115	7
153	153	6
190	190	10
117	117	6
34	35	7
38	38	15
18	19	2
52	54	5
171	171	4
177	177	7
182	182	6
41	41	13
173	174	4
55	55	7
167	181	3
39	39	8
59	59	2
60	120	1
187	187	15
151	151	7
59	129	5
99	99	6
70	70	8
71	71	8
143	149	2
152	152	4
60	60	10
55	121	4
161	162	3
124	124	7
44	45	10
30	30	5
193	193	16
146	147	6
17	77	1
130	130	10
97	97	6
112	112	7
148	148	8
30	33	1
77	114	3
187	191	3
57	57	9
165	166	6
25	25	9
19	19	10
42	43	3
55	72	2
108	108	5
54	126	1
130	192	4
22	23	1
72	114	3
51	51	6
182	183	2
143	193	2
181	181	17
82	82	4
83	83	10
6	6	3
118	118	12
64	65	4
93	93	4
20	20	4
46	47	5
194	194	9
187	188	6
162	162	2
197	197	12
81	81	8
145	145	12
136	136	6
4	4	6
11	11	4
50	51	1
93	100	3
176	176	10
80	104	1
141	142	2
43	43	2
164	165	1
102	142	2
25	28	4
5	7	2
167	191	4
166	166	8
33	81	1
142	192	2
143	143	9
188	193	3
37	37	6
186	186	9
76	79	2
140	140	9
21	147	2
100	104	1
149	150	2
174	175	8
24	33	3
61	61	4
156	156	3
101	132	1
138	138	13
63	63	2
76	76	7
60	129	4
155	155	2
135	135	2
106	108	3
139	140	2
7	21	4
15	24	8
20	144	1
59	66	5
150	196	3
7	7	9
77	77	3
143	150	3
104	104	3
21	21	5
126	127	5
9	10	1
3	3	1
89	90	7
187	193	2
23	23	8
123	123	13
62	120	1
174	174	4
185	186	5
33	33	10
71	112	4
32	32	18
109	109	2
161	161	4
191	192	3
74	75	2
14	14	4
87	87	6
66	66	5
169	169	9
162	190	3
185	185	3
64	64	3
67	70	2
16	18	3
29	29	4
49	49	11
142	143	1
170	182	3
116	116	9
142	142	5
156	179	3
111	112	4
26	26	5
13	14	2
8	8	5
105	105	1
1	1	4
73	74	2
55	56	1
137	139	3
53	57	3
98	105	5
70	71	3
0	0	4
180	187	5
171	183	1
132	132	4
44	44	2
77	78	5
150	150	7
96	96	2
168	168	10
100	100	2
90	90	2
57	58	5
73	99	1
79	84	1
173	175	2
142	196	3
146	146	5
136	137	1
67	67	6
49	64	1
23	24	6
30	39	1
76	77	2
151	152	3
79	83	4
62	71	1
169	193	2
160	160	4
58	58	4
72	72	17
104	136	4
13	13	12
21	36	2
115	116	4
51	62	6
34	36	4
164	164	4
122	122	8
95	96	6
191	191	4
85	85	8
178	179	4
31	42	1
85	86	4
59	60	6
148	178	1
80	80	7
136	152	1
52	52	5
104	111	1
103	103	4
73	73	13
104	106	2
165	181	2
152	153	2
79	79	3
188	189	6
48	49	4
29	45	2
134	154	5
178	178	7
47	47	4
5	5	6
32	98	5
60	71	2
22	36	4
53	53	9
36	37	6
59	61	2
54	54	5
176	177	1
101	101	7
89	89	5
131	132	3
134	134	8
61	63	2
66	76	3
144	144	1
65	65	7
9	9	6
170	170	9
106	106	4
32	118	1
74	74	7
34	34	7
121	121	4
16	16	5
81	84	1
190	191	2
147	148	2
179	180	4
127	127	4
24	26	4
36	36	5
6	8	3
192	192	10
121	122	1
194	197	2
31	41	2
150	151	3
73	76	3
156	158	4
137	152	2
63	121	1
31	31	13
39	40	1
133	133	3
181	182	1
103	114	1
167	168	9
12	17	3
166	167	4
141	141	2
18	20	2
188	188	3
149	175	1
95	113	5
170	171	2
126	126	5
159	160	2
33	78	1
173	173	5
98	98	3
20	21	4
76	101	2
165	167	2
139	139	2
17	17	2
99	115	1
74	97	2
23	28	3
40	41	7
119	120	6
95	95	3
122	146	1
161	167	2
189	189	7
135	136	5
114	114	3
15	15	7
45	45	3
153	154	2
62	63	3
83	84	3
34	39	1
178	181	3
193	194	2
73	75	5
128	128	5
110	110	10
131	131	6
9	36	2
9	12	2
151	197	2
54	59	2
166	188	1
124	173	2
4	5	5
24	24	5
162	167	2
28	28	4
165	165	4
56	71	2
65	66	1
24	77	1
107	107	4
196	196	6
149	149	4
101	142	1
157	158	3
78	117	2
175	175	3
158	158	11
100	114	3
10	10	4
78	78	1
55	122	2
133	151	2
42	42	6
40	42	2
102	102	3
192	193	3
167	189	2
168	195	2
99	100	3
107	108	1
120	120	4
138	139	2
158	159	3
23	78	1
60	61	5
69	69	2
184	184	5
112	113	3
68	68	2
2	6	2
143	148	2
33	85	1
2	2	3
13	23	3
40	40	5
186	197	1
133	158	2
11	13	3
133	152	1
73	118	1
61	97	1
5	8	1
134	135	5
12	12	1
168	193	1
73	114	4
124	125	1
168	169	2
145	146	1
179	179	1
28	29	2
195	195	1
55	74	1
15	120	1
47	48	4
125	193	1
191	193	1
102	117	1
19	147	1
169	171	1
88	88	5
35	36	3
46	46	1
8	37	1
143	146	3
41	83	1
53	70	1
108	110	2
171	172	1
4	20	2
162	164	1
163	163	3
183	183	3
10	11	3
8	9	2
6	20	3
77	104	1
94	96	2
13	24	2
4	7	1
176	178	3
53	54	1
29	41	1
70	75	3
27	27	2
32	37	3
62	62	2
81	85	1
100	132	3
177	192	2
79	112	2
25	34	2
148	176	1
149	191	1
57	122	1
27	104	1
9	13	2
128	129	2
132	150	1
48	48	2
9	34	2
54	129	1
156	157	1
167	170	2
30	31	1
119	119	2
82	106	1
25	26	2
63	64	2
56	75	1
154	155	1
50	50	2
0	2	1
82	83	2
103	104	1
32	33	1
162	166	1
106	107	1
67	69	1
25	29	1
189	190	2
45	47	3
120	121	2
15	16	1
129	191	1
155	159	1
10	120	1
82	84	1
29	30	1
159	159	5
94	94	2
89	114	1
35	35	1
9	11	1
143	145	2
76	78	1
81	82	2
77	79	1
52	53	2
56	59	1
134	155	1
176	192	1
58	59	1
6	7	1
103	115	1
172	172	1
45	46	1
192	194	1
27	28	1
132	133	2
29	32	1
65	67	1
69	70	1
27	29	1
25	88	1
161	163	1
165	189	1
33	34	1
27	119	1
38	124	1
61	62	1
169	170	1
129	133	2
116	172	2
88	89	1
114	118	1
