30	30	20
194	194	15
204	204	12
20	22	1
230	231	2
58	58	11
192	193	9
61	61	7
205	205	7
88	89	6
80	81	4
77	77	11
201	202	14
181	181	16
171	172	9
15	16	3
184	184	9
181	183	2
229	229	9
185	188	2
86	88	8
229	231	2
109	109	6
190	192	9
84	85	11
178	178	12
28	28	5
64	64	9
238	239	5
56	58	4
111	112	4
67	67	12
78	82	1
106	107	3
153	153	8
182	182	8
5	5	12
33	33	9
35	35	16
60	62	2
213	213	6
34	34	8
114	119	5
179	182	5
200	201	9
14	19	1
218	218	11
90	94	4
99	100	6
38	39	9
100	102	5
102	103	4
84	100	5
113	114	2
176	177	9
237	238	4
219	219	8
29	29	5
156	156	4
14	14	11
81	82	5
247	247	20
20	20	11
21	23	1
173	173	7
189	189	9
26	26	17
50	50	4
175	177	2
168	168	3
117	117	12
40	40	7
163	163	8
10	11	4
214	218	4
192	192	12
89	90	7
71	71	2
157	161	8
95	96	6
218	220	14
196	196	14
113	113	7
145	145	8
114	114	5
99	99	22
191	191	12
93	99	1
221	222	9
24	25	7
195	196	10
212	212	8
240	240	8
242	242	6
37	38	11
95	97	5
42	42	5
237	244	2
75	76	5
183	202	6
238	238	12
92	92	9
53	54	2
197	199	3
39	40	6
166	167	5
210	211	2
32	32	4
185	191	4
158	159	13
185	185	15
154	159	1
191	192	3
240	242	7
82	84	13
13	15	4
60	63	5
157	157	3
88	88	16
246	246	8
239	242	3
186	186	8
72	72	5
199	199	10
27	176	1
5	6	8
156	158	1
174	175	7
44	45	7
205	206	3
24	24	4
234	234	8
211	211	10
23	23	19
44	44	25
50	51	2
11	11	5
236	236	11
158	165	4
93	96	2
241	244	7
15	15	4
155	155	12
237	248	2
186	189	4
16	17	6
93	94	6
67	68	7
38	40	10
216	216	3
74	75	8
146	147	1
111	115	4
70	74	4
43	43	12
188	189	6
55	64	1
186	190	5
177	178	1
69	69	6
110	110	21
78	78	8
206	206	10
94	94	10
177	177	15
84	84	13
174	174	10
239	239	13
18	20	6
79	80	11
1	2	2
164	164	9
17	19	4
169	171	5
165	165	15
27	27	7
229	230	2
207	207	10
204	207	2
46	48	2
212	239	1
93	98	1
191	198	2
168	169	2
103	105	2
74	76	1
174	177	1
10	10	11
156	175	3
112	112	9
47	49	2
167	169	3
113	116	2
68	68	7
116	116	15
6	6	7
41	42	4
208	208	5
232	232	3
71	72	8
92	94	4
188	190	3
70	76	6
217	217	2
54	57	8
31	33	1
42	45	3
82	82	8
70	71	2
248	248	8
18	18	14
45	46	5
201	203	6
81	81	10
49	49	12
48	48	8
91	91	17
230	230	12
181	182	8
83	83	10
214	215	8
69	73	5
1	1	7
217	218	6
56	57	1
66	67	7
236	239	1
161	165	7
76	79	3
99	101	5
49	63	2
80	80	10
107	107	4
159	167	1
55	57	6
2	2	9
86	89	1
206	210	4
12	12	6
169	170	5
203	203	8
226	226	7
119	144	4
231	231	11
4	5	10
106	106	8
234	238	2
50	57	5
227	228	7
55	55	8
111	116	4
246	247	2
52	52	6
120	120	5
216	227	1
159	159	15
115	115	6
14	15	12
172	172	9
223	224	4
151	151	10
49	50	11
3	6	3
95	95	3
103	103	5
177	179	3
223	223	8
158	158	9
21	22	2
244	244	8
157	158	12
172	174	1
118	144	1
211	212	4
201	201	12
60	60	13
210	216	2
113	115	2
74	74	4
162	171	4
197	197	20
104	104	9
234	236	6
111	111	5
228	229	12
209	209	8
215	220	2
202	202	11
161	162	3
101	104	1
105	105	17
60	61	2
203	204	2
201	218	1
146	146	5
231	233	3
30	31	4
69	70	2
218	239	3
185	186	2
161	161	4
36	36	2
89	94	2
92	93	2
179	202	4
5	8	10
90	90	4
147	151	1
47	47	7
89	89	5
109	115	1
48	49	6
196	198	2
42	43	11
172	173	5
58	59	8
194	195	6
175	175	7
47	51	2
170	170	19
37	37	4
204	209	2
6	7	3
237	237	8
47	107	1
34	36	1
33	35	5
154	155	4
166	166	6
227	227	13
85	85	13
210	212	6
173	174	2
104	105	5
241	243	4
162	163	2
161	166	2
154	154	10
173	186	3
214	214	7
167	167	7
66	66	9
208	209	4
207	208	5
194	230	3
168	172	3
198	227	1
154	156	2
226	227	3
169	172	3
190	193	3
9	9	8
159	165	3
17	17	5
170	171	13
23	24	4
78	81	10
16	16	16
101	101	9
165	166	5
248	249	1
73	74	5
174	178	4
109	110	5
95	110	3
183	183	8
218	224	1
114	115	3
33	34	4
190	190	4
25	26	5
63	63	4
90	93	4
82	86	7
34	37	5
152	152	5
108	110	1
160	160	7
46	47	7
57	57	6
222	222	4
97	98	2
68	69	5
2	5	2
28	30	1
31	32	3
73	73	2
222	224	5
162	174	3
90	91	6
59	62	7
76	76	4
53	53	5
98	99	6
64	67	2
80	89	2
150	150	3
230	232	4
11	202	1
45	48	3
228	228	5
43	44	3
98	98	6
165	168	4
175	176	2
74	77	2
155	156	4
211	213	3
75	75	4
31	34	2
100	100	7
219	225	7
226	228	1
181	188	1
183	189	4
240	246	1
235	240	4
161	164	5
212	235	2
78	80	4
218	222	6
41	41	8
177	180	1
72	73	4
162	162	4
72	74	2
30	41	1
27	28	10
117	120	1
38	38	15
216	217	7
11	15	2
165	167	3
156	160	4
230	233	3
2	4	4
7	8	4
235	235	7
29	32	2
89	92	4
150	151	7
115	116	3
25	25	5
118	118	6
119	151	4
100	103	3
169	169	8
237	239	5
97	107	3
93	93	4
32	34	3
164	167	5
152	154	2
117	118	8
244	245	2
198	226	1
219	220	4
171	171	7
221	221	5
163	166	1
66	69	2
65	65	5
86	86	6
1	5	2
217	244	6
58	60	4
81	86	4
102	102	7
220	221	3
232	233	1
176	176	13
67	69	1
220	220	2
83	93	3
198	199	1
207	209	3
202	203	7
187	190	2
109	111	1
45	45	8
111	113	1
20	21	6
48	50	1
218	238	1
15	151	2
155	159	2
57	59	4
169	174	5
224	224	5
146	150	3
190	231	1
108	108	6
200	200	12
14	179	1
168	170	3
242	243	2
158	161	3
59	60	3
53	56	1
240	244	6
62	62	7
96	97	1
7	14	1
220	222	1
59	59	3
203	208	2
29	30	1
201	207	2
215	215	4
211	214	3
219	227	2
56	56	13
218	228	2
30	34	3
209	211	2
180	180	4
65	66	2
51	51	1
26	28	3
39	39	12
54	56	1
54	55	1
83	84	5
224	226	4
206	213	4
178	179	2
149	149	3
165	196	2
147	147	4
166	168	4
237	246	2
77	79	4
159	160	3
0	1	2
192	194	6
21	21	5
198	228	1
8	8	5
96	96	7
107	108	3
51	54	1
242	244	4
156	159	2
77	80	2
4	4	3
235	236	3
228	234	1
151	152	1
16	39	2
12	15	1
205	207	2
241	245	2
18	19	3
3	3	7
210	213	1
0	0	3
152	153	3
79	79	3
52	68	1
160	161	3
70	70	7
203	207	1
53	91	2
166	169	1
218	219	5
164	165	1
213	214	2
9	217	1
177	202	2
151	153	2
168	174	2
188	208	2
75	77	1
54	54	6
209	210	1
220	229	4
90	95	3
237	242	1
210	233	2
186	187	4
76	77	6
243	244	2
145	149	1
149	154	1
98	107	3
105	106	2
157	159	3
204	205	2
76	80	2
102	104	1
87	87	4
217	243	1
160	164	1
172	176	2
111	120	2
81	84	1
219	222	2
46	46	2
243	245	1
112	113	2
184	198	1
190	191	1
25	28	1
198	198	4
173	184	1
187	189	2
210	210	2
79	81	2
162	165	3
35	36	2
120	144	1
91	93	1
173	176	1
98	105	1
168	171	3
180	181	1
55	63	4
22	22	8
154	167	2
195	230	2
49	58	2
182	183	4
230	234	1
41	44	3
45	49	1
71	73	2
186	208	1
222	226	2
152	155	1
42	44	2
95	99	1
74	102	2
55	58	1
239	240	1
11	214	2
119	145	2
27	29	1
159	161	4
4	6	3
182	191	1
37	40	2
95	98	2
162	164	2
18	21	2
36	37	1
110	113	3
187	188	5
150	153	5
188	203	2
215	216	2
22	23	1
114	118	1
97	103	1
154	165	1
196	197	2
56	63	1
245	245	3
94	98	2
212	213	1
220	235	1
97	105	1
95	109	1
189	195	2
12	14	1
8	9	2
41	43	2
195	195	3
205	232	1
91	92	2
55	59	1
83	85	2
187	187	4
13	13	1
188	206	2
164	196	1
245	247	2
1	7	1
179	180	1
219	221	4
28	29	1
191	193	1
193	194	3
180	182	1
95	107	1
45	47	1
63	66	1
14	17	1
18	22	1
233	234	2
34	35	1
182	184	3
32	33	1
222	223	1
205	214	2
207	213	1
19	19	1
73	103	1
92	96	2
93	95	1
163	164	1
82	83	2
183	188	1
193	193	2
237	249	1
110	111	2
15	203	1
196	199	1
14	16	1
80	94	1
233	233	1
7	7	1
87	88	1
32	36	1
31	31	1
197	203	1
109	113	1
44	63	1
47	48	1
193	199	1
12	16	1
171	175	1
64	65	1
34	39	1
223	226	1
172	175	1
