54	54	17
31	32	9
78	79	16
78	78	27
64	64	37
25	26	6
47	47	19
38	38	13
63	63	41
44	68	4
87	89	3
34	34	14
64	72	5
53	53	24
68	68	37
75	75	40
37	72	2
51	51	17
56	56	14
35	37	9
87	87	32
83	83	30
42	42	32
63	64	17
80	80	45
88	89	10
53	54	7
62	89	6
83	84	3
25	25	25
52	52	25
70	75	1
45	45	5
43	43	20
74	74	25
61	62	6
65	65	54
89	90	5
62	63	18
100	100	27
88	88	51
67	67	32
85	85	29
49	49	18
69	69	32
52	56	3
67	68	8
73	73	26
42	62	2
57	57	31
36	37	3
33	34	5
64	65	7
81	81	36
58	58	24
73	76	6
67	73	2
91	91	8
33	33	20
63	66	2
51	52	5
57	58	2
92	93	7
68	85	1
92	94	4
72	72	30
35	35	19
31	63	2
36	36	22
76	76	35
46	46	29
60	61	10
87	88	8
91	101	4
60	60	18
61	61	35
34	66	2
77	77	51
54	55	8
84	84	19
35	36	4
36	38	4
37	38	2
38	98	4
26	26	15
70	70	34
46	47	18
41	41	17
66	76	5
71	71	33
96	97	10
72	74	10
86	86	38
30	30	10
49	50	13
48	48	17
31	31	3
80	81	16
42	43	11
97	97	20
29	29	13
75	77	3
98	99	5
50	60	1
24	63	3
95	96	7
44	45	4
79	79	22
73	77	5
71	72	15
94	94	24
22	22	20
58	59	4
66	66	39
50	50	23
79	95	1
101	102	11
102	102	11
76	100	6
55	55	7
25	27	7
27	27	23
24	25	13
44	90	3
82	82	12
70	71	4
23	24	4
91	94	6
59	59	12
75	78	5
22	46	1
90	93	10
81	82	11
37	37	8
44	67	3
43	69	1
73	74	9
76	78	2
72	73	4
63	65	3
85	86	7
39	39	21
97	98	3
79	80	5
44	44	16
48	49	9
24	24	15
95	95	17
55	62	1
40	40	15
86	87	18
45	90	5
45	52	9
52	53	7
37	57	7
91	92	10
23	27	3
36	39	2
71	73	1
74	75	11
90	90	14
50	52	4
92	92	14
50	51	9
98	98	15
68	69	5
62	62	29
100	101	8
76	77	14
41	42	8
77	78	1
41	62	5
89	89	29
58	62	3
66	68	2
52	63	1
96	96	22
94	95	2
61	63	3
22	92	1
93	93	22
51	90	7
84	97	7
101	101	19
99	99	11
35	40	14
45	48	1
86	91	3
86	88	13
26	29	6
45	51	4
36	79	2
66	67	10
94	96	1
80	101	1
45	46	2
61	66	3
69	70	2
52	55	4
83	88	2
69	73	1
23	23	5
39	40	4
65	67	7
96	98	1
57	60	2
53	87	4
37	40	6
56	89	3
72	100	1
41	65	2
60	65	1
20	22	4
76	82	1
74	76	2
50	89	3
29	30	3
91	93	2
99	100	11
59	60	1
56	60	1
47	50	1
40	83	2
71	76	1
33	35	3
38	39	2
45	64	3
74	78	7
64	70	1
46	48	1
45	50	2
77	79	5
49	52	1
20	20	5
65	66	9
76	79	1
65	70	3
81	91	2
73	86	3
43	70	2
82	102	3
62	74	1
33	75	1
84	94	5
47	54	2
52	89	2
69	77	6
80	82	1
41	71	2
75	79	1
78	100	4
51	65	4
75	76	7
66	70	2
45	53	2
30	101	1
78	80	1
82	85	2
26	56	1
56	88	3
28	28	3
62	88	1
75	82	2
39	58	2
51	60	2
86	92	1
40	102	2
42	82	1
32	32	1
40	90	1
90	91	1
26	28	1
50	56	1
66	74	1
59	64	1
63	74	1
22	44	1
82	90	1
34	86	2
56	58	1
94	97	1
93	94	2
35	38	1
50	61	2
33	86	1
98	100	1
63	75	1
94	98	2
32	43	1
65	71	1
71	78	1
48	50	1
36	59	3
95	97	1
81	100	1
34	35	1
84	96	1
57	65	1
43	44	2
52	90	1
70	74	2
26	78	1
84	93	1
22	51	1
30	31	2
55	56	1
25	78	1
71	77	1
40	41	1
80	84	1
23	25	2
22	48	1
79	81	1
33	63	2
80	91	1
64	66	1
86	89	2
44	74	1
30	64	2
90	92	1
79	82	1
