28	28	8
33	33	5
135	136	1
114	114	13
105	106	4
5	5	5
131	134	3
98	98	4
131	131	6
115	115	4
123	127	3
136	136	4
82	83	2
128	128	4
47	47	8
20	20	20
108	108	3
70	70	4
97	97	8
85	86	5
13	39	5
25	26	1
22	28	1
93	95	1
44	44	7
134	135	5
130	156	4
142	143	3
117	117	9
93	93	9
32	33	6
67	67	8
88	88	13
124	127	7
31	46	3
68	69	9
30	30	5
25	25	4
16	16	14
126	126	3
88	89	12
152	153	3
76	77	2
100	100	8
78	79	4
101	101	7
93	94	4
49	49	4
13	13	5
157	158	2
156	156	5
138	138	6
18	28	4
153	153	1
124	125	10
127	127	4
130	139	3
151	151	3
23	23	6
47	72	4
139	139	4
3	3	7
21	21	5
86	86	7
125	126	2
125	125	17
154	154	5
116	117	6
48	49	1
96	96	2
48	48	5
132	132	11
85	85	5
69	71	5
148	148	2
94	110	5
69	69	4
90	90	2
7	8	8
145	145	5
90	110	2
41	41	10
50	50	5
140	141	3
122	137	3
144	144	1
155	155	10
150	150	4
145	146	1
105	105	7
133	133	3
70	71	3
65	66	5
117	118	2
1	3	3
24	29	2
40	41	6
106	106	2
116	116	8
72	72	5
36	36	3
44	45	6
100	101	2
62	81	2
17	18	3
19	19	5
17	17	3
22	23	1
147	154	3
121	121	12
34	36	2
8	8	4
75	75	3
52	52	4
45	47	1
57	61	1
2	2	2
134	134	7
119	119	6
135	135	4
91	91	2
142	142	10
71	71	4
63	64	2
37	37	3
113	113	5
32	32	6
97	98	5
6	6	5
86	87	3
69	70	1
112	112	6
42	46	1
92	92	3
82	82	3
123	124	3
26	26	3
147	147	1
118	118	8
109	110	1
8	11	3
112	117	1
138	139	2
40	40	3
153	154	3
14	15	4
83	83	4
120	120	4
109	111	2
56	56	4
102	102	3
89	89	1
31	36	2
65	65	2
91	92	3
42	42	5
47	48	2
141	141	5
27	28	3
108	109	4
130	130	6
135	139	3
107	107	3
7	7	2
157	157	1
34	34	5
50	82	1
11	12	1
4	4	10
148	154	1
48	56	2
130	140	1
94	94	3
122	122	6
35	35	2
3	4	1
152	152	1
78	78	2
9	10	2
38	38	4
88	102	1
107	117	2
150	151	3
87	87	2
90	91	1
158	158	4
111	112	1
34	35	4
104	104	2
36	38	4
81	82	4
51	51	2
140	140	2
67	140	2
22	22	3
77	77	4
130	131	1
49	52	1
77	78	1
154	158	1
9	9	2
119	120	1
114	115	3
113	114	1
80	81	2
51	52	1
77	80	2
20	35	1
38	40	2
124	124	4
95	106	1
43	43	2
67	70	1
107	108	1
91	110	1
35	36	1
37	38	1
24	24	3
50	90	1
137	138	2
19	20	2
62	62	1
68	70	2
149	151	1
65	67	1
79	79	3
97	113	2
99	99	3
68	68	1
31	31	2
43	48	2
146	147	2
123	136	1
50	51	1
113	117	1
149	154	2
0	0	1
66	66	3
96	112	1
27	27	1
92	103	1
111	111	1
84	84	1
155	158	2
149	152	1
122	123	1
53	81	2
91	94	1
31	70	1
41	42	1
52	101	2
129	130	1
98	99	3
33	35	4
45	45	1
120	121	1
49	91	1
126	144	1
2	4	1
14	14	1
50	102	1
10	10	1
63	63	1
78	82	1
42	43	1
15	16	2
55	56	1
8	10	1
53	53	1
131	135	1
112	113	1
39	40	1
81	81	1
106	116	1
