109	110	6
141	141	4
105	106	1
80	80	3
112	162	2
44	45	7
154	158	5
2	2	6
146	153	3
154	171	2
27	28	4
32	64	2
107	107	10
5	5	2
145	145	7
108	152	2
104	104	22
37	37	5
9	10	1
126	126	4
68	87	1
43	44	4
36	36	7
140	154	1
137	176	2
139	139	4
177	178	5
162	174	1
75	76	2
16	16	1
101	102	2
137	138	3
128	129	5
51	51	4
163	164	1
73	74	2
150	151	2
65	66	2
175	176	2
157	173	6
1	2	2
179	179	7
91	91	2
72	72	4
39	142	4
121	121	3
171	172	3
55	58	3
26	27	4
73	73	3
157	157	2
52	62	3
16	36	1
79	79	3
135	135	3
81	82	3
5	6	4
110	135	1
41	134	6
141	146	1
49	54	2
80	81	5
149	149	8
113	113	5
109	152	2
81	123	4
10	15	4
64	64	1
25	73	4
158	159	3
5	7	4
9	11	1
71	72	4
130	130	6
116	116	17
159	159	9
32	32	2
109	112	1
140	140	5
81	81	4
17	17	3
7	7	3
41	41	3
91	93	1
132	134	1
17	97	4
90	116	4
98	98	10
73	89	3
170	170	2
8	8	1
172	172	1
159	160	3
146	146	5
9	12	2
160	160	3
71	76	2
70	70	6
147	147	4
21	31	1
143	144	4
111	159	3
39	39	2
148	149	3
151	164	1
165	165	7
148	173	1
75	131	1
171	171	5
0	0	2
20	21	2
34	65	2
94	94	4
136	136	6
63	63	1
65	67	7
169	170	2
148	148	4
127	127	7
132	132	6
157	158	4
108	108	1
54	55	5
140	146	3
95	95	7
55	56	1
35	35	3
139	149	3
177	179	2
60	60	3
37	40	1
57	58	4
37	42	1
124	124	3
40	41	2
111	111	3
74	86	2
146	176	2
83	86	2
129	130	2
178	179	1
144	144	2
120	123	1
10	10	1
130	131	1
112	112	1
61	62	2
150	152	4
12	12	5
18	18	4
102	102	3
3	3	2
117	129	1
0	1	1
103	106	3
148	151	1
99	99	1
67	82	2
34	35	1
74	74	1
31	34	2
74	87	1
96	98	4
90	115	1
144	145	5
65	132	3
178	178	2
138	138	3
27	27	2
28	28	3
2	3	1
87	88	1
4	4	2
117	117	3
30	30	2
76	76	1
54	54	2
178	180	1
125	125	4
95	96	5
75	75	3
113	115	2
1	6	1
134	134	7
28	34	1
62	64	1
29	29	3
71	71	1
22	22	3
137	137	2
176	176	5
123	123	1
169	169	1
158	158	3
97	98	3
164	165	1
166	167	1
39	149	1
59	60	1
6	6	2
31	31	1
35	36	1
154	156	1
174	175	1
114	114	2
161	161	5
79	88	2
163	163	2
106	106	1
96	106	1
57	57	3
102	103	1
87	87	3
37	39	1
125	136	3
152	152	1
143	145	3
89	89	1
112	122	1
23	24	2
75	136	1
135	150	2
173	173	3
51	58	1
115	115	1
13	13	1
131	132	1
179	180	1
95	105	1
97	135	2
180	180	1
162	167	1
160	168	1
35	65	2
11	13	2
25	33	1
82	82	1
50	54	1
77	77	1
155	155	1
19	23	1
1	60	1
96	96	1
168	168	3
118	118	1
167	168	1
74	76	1
84	90	1
63	71	1
19	20	1
77	78	1
38	38	1
103	103	1
92	115	2
155	157	1
62	62	1
58	58	1
100	100	1
