2	3	1
3	9	1
37	39	1
42	42	13
27	27	16
65	65	7
16	16	2
17	20	2
66	66	15
9	9	4
59	60	6
21	21	1
56	74	3
32	32	5
36	37	5
40	40	10
71	71	1
52	68	1
49	51	3
25	52	3
74	74	10
46	46	4
8	8	6
56	56	10
47	48	3
28	35	1
60	60	3
60	62	2
80	80	7
39	39	8
38	38	16
26	26	9
49	49	9
34	55	2
76	76	5
1	1	3
20	21	1
7	8	2
57	57	7
73	73	13
20	20	1
41	42	4
41	41	10
61	61	7
37	38	4
15	69	3
33	33	4
70	70	10
5	70	3
29	49	1
27	28	3
32	33	1
64	64	7
3	3	4
13	13	2
33	34	3
9	29	4
33	56	3
3	20	1
54	54	6
48	48	6
2	2	9
15	15	4
1	2	6
26	27	4
51	51	2
42	61	4
77	77	4
26	30	2
12	12	3
79	80	3
10	10	5
11	13	1
5	5	4
72	73	4
19	19	7
50	50	7
31	65	2
51	66	2
29	30	3
29	29	17
31	52	2
75	77	5
48	71	1
31	31	6
37	37	11
58	59	2
68	69	5
12	71	2
16	21	1
28	28	12
53	53	3
45	45	5
27	29	4
4	4	2
28	30	5
72	72	4
40	42	1
58	58	6
78	78	3
34	34	4
47	47	7
35	55	2
35	35	11
30	31	6
56	76	5
12	13	3
17	53	4
15	44	3
63	63	5
45	47	1
6	6	4
52	52	1
8	9	3
50	52	5
50	54	1
11	12	2
6	71	2
7	7	12
25	47	1
3	27	3
15	55	2
18	18	1
30	48	2
16	53	2
46	47	6
11	63	1
62	62	2
76	78	5
57	73	1
55	56	1
27	49	1
40	41	2
17	17	5
70	71	1
77	79	3
20	46	1
2	41	1
26	47	2
0	6	2
2	59	2
53	72	1
5	76	1
50	64	1
10	13	3
6	11	1
0	0	5
69	69	2
0	3	1
10	20	2
17	47	1
40	43	2
17	72	3
61	66	2
26	28	3
52	70	1
16	20	2
21	70	1
6	77	2
4	65	2
55	63	1
3	78	2
6	8	2
12	15	3
29	48	2
25	25	5
17	18	1
6	78	1
0	60	2
55	55	1
13	14	1
49	50	2
45	46	1
65	66	1
32	55	2
61	77	3
67	69	1
54	55	1
51	55	1
16	18	1
78	80	1
59	59	1
33	63	2
64	65	1
1	42	1
78	79	1
68	68	1
25	69	1
52	64	1
51	52	2
4	5	1
8	26	1
2	42	2
15	47	1
9	12	1
10	11	1
38	40	1
36	39	1
3	6	1
48	53	1
33	35	1
28	65	1
9	15	1
73	78	1
