83	83	9
23	27	2
82	82	6
110	120	1
125	125	9
116	122	4
34	35	2
6	6	19
46	46	9
120	120	8
64	64	15
114	114	9
0	0	5
95	96	2
21	21	5
76	76	4
68	85	5
75	76	3
33	33	16
65	65	17
117	117	12
9	9	7
130	130	5
78	79	5
4	4	4
112	112	20
27	28	5
59	59	10
35	35	3
79	109	1
77	78	4
29	42	1
27	27	13
17	17	9
102	102	10
116	117	5
109	110	1
12	12	15
16	16	4
56	56	13
45	45	9
34	34	10
118	118	15
78	88	1
132	133	5
37	37	6
3	61	1
48	48	3
23	23	9
112	113	7
29	31	1
4	59	4
131	131	4
122	122	12
31	34	3
60	60	6
62	62	13
97	97	8
17	37	2
122	123	2
3	3	7
109	109	10
38	48	2
107	107	13
94	94	6
97	119	2
84	84	14
71	71	8
119	124	1
27	44	1
68	71	2
13	13	6
30	30	4
87	87	6
110	110	7
7	44	1
2	2	7
126	127	1
38	38	7
116	116	7
111	118	5
93	93	4
126	126	6
11	11	5
43	44	4
45	46	10
74	74	12
112	114	4
73	74	5
71	72	3
84	85	8
97	98	1
75	75	8
77	77	7
70	70	7
5	5	3
104	104	11
10	11	5
125	126	2
2	69	5
119	119	5
19	27	2
71	94	4
104	105	3
47	47	9
8	8	10
31	31	8
133	134	3
14	15	3
81	81	12
108	108	21
36	36	14
134	134	9
26	26	5
74	75	3
87	94	1
36	37	1
104	106	2
24	31	1
85	85	3
88	88	2
108	110	4
10	10	10
57	57	7
30	31	2
5	22	3
111	111	7
73	73	6
124	124	10
68	68	5
18	24	2
55	55	7
107	126	2
28	30	2
95	95	10
12	13	3
106	127	3
128	129	3
58	58	8
19	19	6
36	39	1
93	97	1
120	134	3
7	108	2
115	117	2
42	42	7
72	72	8
16	17	3
50	50	6
90	104	1
4	11	7
1	1	6
61	61	9
56	57	2
63	63	4
39	71	1
78	78	11
67	93	2
90	90	2
25	25	4
106	107	9
49	49	1
41	43	4
2	9	4
131	132	6
85	86	5
78	109	3
56	133	1
7	48	2
15	15	11
41	42	2
100	100	2
20	20	7
18	18	1
11	12	2
103	103	6
19	20	2
33	40	1
17	23	2
128	128	7
129	129	10
32	32	7
19	33	2
6	7	7
22	22	4
63	64	4
68	69	2
10	64	2
9	120	4
84	95	2
70	71	3
91	91	8
81	82	3
14	14	5
66	66	11
79	79	3
70	77	3
14	35	1
113	113	7
132	132	7
59	89	3
83	122	1
92	92	2
54	55	2
23	24	1
28	29	2
106	106	4
79	122	1
129	133	2
81	90	1
76	124	4
95	97	5
71	74	3
11	15	3
0	65	1
11	13	1
105	106	6
37	38	3
7	7	4
110	111	3
115	128	2
64	66	2
4	6	1
62	68	1
108	124	2
86	101	4
44	44	3
40	40	4
113	114	2
99	99	3
57	85	1
20	109	3
64	72	2
83	119	1
127	130	2
39	41	2
27	31	3
129	130	2
92	96	2
98	98	2
69	69	5
36	42	1
62	63	1
130	132	4
10	17	2
101	101	5
11	16	3
67	67	6
127	131	1
101	102	2
43	43	5
61	64	2
48	49	6
72	78	1
82	87	2
72	74	2
121	122	4
48	61	3
94	106	1
59	126	1
102	104	1
28	28	8
3	30	2
20	21	2
86	107	3
115	115	8
68	70	1
8	9	3
86	86	3
0	95	4
114	128	1
63	65	2
93	94	2
28	82	2
97	107	3
42	124	1
61	62	1
70	75	1
40	42	1
80	108	1
120	121	2
64	65	1
37	91	1
124	128	2
42	43	3
130	133	1
61	71	2
77	80	1
84	86	1
29	29	3
80	81	1
76	125	1
35	36	3
105	105	6
37	43	1
72	73	1
41	41	7
87	109	2
8	45	1
123	123	4
108	109	1
28	108	2
23	32	1
77	85	1
26	44	2
47	83	1
78	80	1
16	36	1
71	75	1
87	92	1
114	115	1
7	8	2
27	109	1
82	92	3
87	88	1
107	108	1
3	5	1
46	60	3
90	91	2
57	84	1
90	109	1
112	115	1
51	51	1
7	46	1
30	60	2
100	102	2
96	96	2
55	56	1
31	36	1
94	101	1
39	39	1
102	107	2
133	133	1
75	110	1
106	109	1
82	83	1
77	108	1
35	38	1
2	46	1
131	133	1
97	109	1
126	134	1
91	92	1
51	56	1
73	111	1
76	77	1
108	113	1
130	134	2
83	87	1
