40	40	10
67	72	2
79	79	10
156	156	8
87	87	3
67	67	5
78	78	2
148	149	2
121	129	1
126	127	2
45	45	6
12	13	1
158	158	12
160	161	3
86	86	6
105	105	12
3	3	5
75	76	2
8	8	4
137	138	2
105	106	5
41	57	2
116	116	5
135	135	14
75	75	10
57	57	3
35	35	7
114	114	2
81	124	1
109	109	4
111	111	10
92	120	3
150	150	7
128	128	4
20	20	6
38	38	3
72	72	6
64	68	3
50	50	5
138	138	22
43	44	4
116	137	2
112	112	4
148	148	4
71	71	4
100	103	8
137	137	12
82	121	3
130	130	2
10	10	10
108	108	6
42	44	1
94	94	2
169	170	6
121	121	3
136	152	3
39	40	4
130	131	2
92	92	2
143	143	1
154	154	1
152	152	6
139	169	1
167	167	1
99	99	2
140	140	4
65	65	2
136	149	6
151	151	4
3	27	4
126	126	7
147	148	4
41	43	6
45	46	3
90	90	6
4	4	2
92	134	2
51	52	5
107	108	1
103	103	2
124	124	7
81	81	9
117	133	3
53	53	3
11	11	6
46	49	1
89	89	4
19	19	4
122	122	1
141	141	6
36	36	8
136	136	10
77	77	8
84	85	3
125	125	2
33	33	3
141	142	1
40	41	2
8	9	3
133	133	4
39	39	2
27	27	7
16	16	2
6	7	3
70	70	2
90	107	1
73	73	14
164	164	2
155	155	2
149	149	4
42	42	4
82	82	3
34	110	3
9	10	2
66	67	1
145	145	3
52	52	4
34	34	2
160	160	1
67	70	2
142	143	2
100	100	3
161	161	3
83	83	5
53	65	2
56	56	1
139	139	1
16	17	2
1	2	6
170	170	12
66	66	1
40	47	5
13	13	4
110	110	3
63	63	2
55	55	3
149	154	4
93	93	9
10	11	4
142	160	1
134	134	4
94	107	3
135	136	2
153	153	1
123	123	2
111	151	2
84	84	1
69	69	5
58	62	1
16	28	1
21	170	1
106	106	8
1	1	5
129	130	1
85	85	11
63	64	1
79	107	2
144	144	1
12	12	3
117	121	2
61	62	3
122	123	2
123	125	2
49	50	3
162	163	1
47	47	1
100	101	4
26	26	5
74	74	6
33	34	4
166	168	1
136	150	1
113	116	1
48	49	2
9	9	3
26	27	1
22	167	4
169	169	3
52	64	1
98	99	5
53	66	2
120	121	1
129	129	3
163	164	1
14	14	5
80	80	5
74	75	1
118	119	1
88	88	5
83	115	3
74	126	2
43	43	2
134	150	3
168	170	2
77	91	1
142	142	3
122	135	2
0	0	6
15	15	4
48	48	2
112	137	2
142	147	1
143	145	4
10	13	2
168	168	1
155	156	2
97	97	1
147	147	2
113	114	1
117	117	1
76	76	2
115	115	3
35	36	1
102	105	2
17	18	1
125	126	1
146	146	3
68	68	1
37	37	1
6	9	1
51	51	1
6	12	1
37	89	1
168	169	1
2	2	2
85	86	2
162	162	3
92	133	1
53	55	2
138	139	2
161	162	1
81	82	1
80	83	1
64	65	1
122	136	3
10	165	1
107	107	2
4	18	1
112	135	1
111	112	1
82	115	1
139	140	2
137	158	1
7	7	1
117	135	2
49	75	1
67	71	1
80	92	1
159	159	1
53	56	1
150	151	1
10	20	1
21	22	1
