134	134	4
122	128	2
99	99	4
115	116	3
127	127	7
122	123	4
90	90	6
84	85	1
55	56	3
120	121	1
78	78	15
102	102	5
108	108	13
28	28	6
86	107	4
27	27	1
13	15	2
84	93	2
37	37	4
87	104	2
43	43	7
67	67	4
14	14	9
65	65	4
135	135	11
72	73	4
85	86	5
141	144	2
36	36	8
137	137	8
130	130	9
109	109	4
108	110	2
31	35	2
22	22	6
131	131	2
73	74	8
149	149	5
64	65	8
148	149	2
118	118	4
3	9	2
28	29	1
41	41	2
16	16	2
123	128	5
12	12	3
49	49	1
89	90	1
117	118	1
123	124	6
82	98	2
36	63	1
55	102	3
57	57	2
126	126	2
80	80	6
47	47	7
143	146	1
24	24	2
86	103	2
54	54	1
82	120	1
70	70	6
82	122	2
26	26	2
19	19	10
31	37	1
95	96	3
111	111	3
97	118	2
63	63	6
106	107	5
83	83	7
10	10	4
107	107	6
37	39	4
13	13	7
64	64	8
125	127	5
93	94	7
138	138	5
119	119	2
9	10	1
114	114	2
147	147	7
23	23	4
122	139	1
73	73	2
139	140	1
83	103	3
7	11	1
145	145	5
71	71	4
24	25	4
77	78	3
117	117	8
110	110	4
113	113	13
79	79	3
53	53	4
4	6	2
123	123	8
40	40	6
18	18	3
124	149	1
18	19	1
89	102	1
9	16	1
76	78	3
15	16	2
136	136	1
85	94	1
125	126	3
94	94	6
96	96	7
112	112	7
118	119	2
38	38	6
124	125	3
102	103	1
45	45	2
146	149	2
99	122	1
116	117	1
87	88	2
42	42	2
141	141	4
140	140	7
46	47	3
86	106	3
75	77	4
120	120	3
6	7	3
81	122	2
21	22	2
143	143	4
48	48	5
97	97	3
151	151	8
86	86	8
42	45	1
104	108	4
72	102	1
31	31	3
140	141	1
124	126	2
139	139	3
48	49	2
144	145	3
3	3	3
88	108	1
95	95	6
4	4	2
74	75	4
147	148	1
148	148	8
113	114	4
135	136	2
100	100	3
124	128	3
49	50	9
138	139	3
152	152	2
68	69	2
50	50	4
84	84	7
121	123	1
86	87	1
141	147	2
47	58	2
137	138	1
129	129	3
128	128	2
77	77	2
20	21	5
31	32	1
72	72	1
124	124	1
122	122	3
68	68	1
62	62	3
52	53	1
99	128	1
5	5	2
66	68	4
7	7	5
33	35	1
20	20	5
75	75	1
106	106	2
122	149	3
146	146	2
8	15	3
57	66	1
46	46	3
154	154	6
145	146	2
29	29	5
39	39	3
30	30	3
43	44	3
34	36	1
139	149	3
65	66	2
6	6	3
38	41	1
7	10	1
45	46	2
15	73	1
23	24	4
111	112	2
95	97	2
15	15	3
132	134	2
103	103	3
125	125	1
11	12	3
20	23	2
43	57	2
21	30	1
139	148	3
17	17	3
27	28	2
101	101	3
74	74	4
14	26	2
133	133	2
28	41	1
131	132	1
92	93	2
97	98	2
9	15	1
105	105	2
121	122	1
150	151	1
85	106	2
82	82	1
69	70	1
109	110	1
104	105	2
88	88	2
55	55	1
144	144	1
99	121	1
24	27	1
29	38	1
95	119	1
11	11	4
93	93	1
22	23	2
40	44	2
36	37	2
35	35	2
85	85	1
99	100	1
28	90	1
136	137	1
20	30	1
19	20	2
9	9	4
110	111	1
146	147	1
8	8	1
94	95	2
122	129	1
2	16	1
13	14	1
21	27	1
13	74	1
150	150	2
13	73	2
81	82	1
26	27	2
116	116	1
85	93	1
115	115	1
30	39	1
12	13	1
132	132	1
130	134	1
76	77	1
66	70	1
143	144	1
94	120	1
11	78	1
44	44	1
14	15	1
