192	213	2
59	59	2
48	48	4
233	237	6
227	245	1
12	52	3
180	180	8
56	81	1
99	101	2
57	57	5
175	175	7
208	209	7
82	82	5
210	210	2
160	183	3
91	93	4
104	105	2
87	112	2
233	234	5
226	229	3
24	24	7
102	102	9
156	156	11
19	19	8
41	41	15
97	97	6
218	218	7
244	244	4
32	32	12
46	46	2
207	214	2
234	234	6
151	151	13
192	193	5
23	23	5
90	90	9
75	75	1
31	31	8
120	120	2
65	66	4
109	109	10
193	193	10
21	21	10
37	37	6
155	155	6
40	41	2
165	167	2
74	113	3
118	118	5
237	239	2
207	207	1
219	225	4
6	6	10
3	6	3
9	10	5
9	9	12
32	33	9
179	179	11
101	108	2
200	201	6
240	241	1
165	166	1
26	26	7
33	33	9
27	27	5
107	107	7
26	28	2
237	238	5
239	240	1
78	78	4
106	106	7
174	174	2
66	77	1
171	171	2
178	178	4
184	184	6
235	235	13
100	100	6
85	85	11
228	229	4
203	204	2
175	177	9
109	112	2
237	237	6
165	165	2
15	15	2
11	11	7
30	31	3
28	28	8
209	213	4
247	248	2
245	246	4
88	88	4
206	210	1
22	22	10
187	188	4
70	71	2
16	16	5
184	186	1
92	93	1
146	147	4
53	53	3
84	84	8
225	225	6
186	190	7
65	65	6
161	179	2
173	173	4
47	48	2
162	162	2
197	197	5
68	72	4
55	81	2
176	176	4
111	112	3
220	220	9
95	95	7
161	161	4
31	32	2
222	223	2
72	72	2
29	29	4
168	180	4
184	185	2
54	54	14
202	202	4
160	160	3
61	113	2
58	76	6
2	2	5
67	102	4
198	199	2
61	62	8
10	10	7
188	188	4
50	51	5
18	18	11
157	227	10
152	205	1
118	119	5
154	155	2
104	104	2
176	179	4
42	42	6
39	39	4
217	217	9
156	168	6
246	246	5
144	144	4
10	17	3
30	30	5
185	186	1
186	186	2
60	64	2
44	44	9
94	94	1
95	98	1
144	145	2
214	214	4
38	38	8
64	65	2
9	54	2
189	189	3
239	239	1
155	156	3
175	179	1
90	105	2
56	56	2
167	167	6
87	87	2
80	80	4
168	170	2
50	50	1
242	242	1
110	110	6
226	226	7
14	14	1
215	219	2
212	212	2
63	63	7
4	5	4
229	230	3
68	75	1
0	1	5
118	205	3
66	66	3
180	201	2
158	159	2
68	68	5
102	112	2
27	28	2
209	210	2
184	246	3
20	20	5
203	203	5
104	108	2
183	183	9
229	229	4
76	79	3
221	221	2
74	74	2
181	181	1
59	66	2
238	239	3
234	241	2
206	206	1
95	96	2
35	37	2
1	2	1
70	70	2
75	91	1
96	96	2
36	36	3
177	177	1
207	228	1
55	55	10
113	113	4
241	242	2
218	225	3
41	60	3
163	163	4
164	164	2
186	187	2
170	170	4
169	232	3
5	5	3
189	191	3
206	225	3
216	221	5
152	153	3
43	46	2
99	99	3
81	81	4
45	48	2
46	235	1
187	187	1
227	227	4
243	243	2
107	108	3
45	45	4
211	211	4
106	108	2
119	119	3
194	194	4
3	3	4
61	76	1
241	241	3
216	216	2
52	52	4
34	34	5
93	93	7
42	43	8
160	246	2
166	183	2
238	240	1
157	226	3
3	159	1
80	81	4
79	79	5
182	182	3
243	244	3
200	200	6
94	98	2
73	74	2
37	49	2
25	25	2
45	150	4
57	58	6
52	113	1
163	208	2
8	8	9
81	82	3
151	152	4
55	56	1
154	154	5
0	0	1
209	209	2
12	92	1
215	215	2
62	62	5
162	166	1
39	51	1
26	43	2
188	193	1
53	54	7
195	197	3
11	12	4
40	40	3
48	49	2
115	115	4
26	27	2
5	30	2
81	91	1
76	76	8
34	86	4
109	110	4
214	226	3
61	61	2
62	117	2
201	201	3
234	236	1
53	245	1
114	114	1
34	158	1
160	165	1
239	247	4
145	145	3
66	67	5
178	191	1
218	219	4
7	7	1
158	182	1
9	41	4
89	89	3
17	17	3
199	199	3
32	227	1
56	197	1
188	190	1
223	223	3
189	205	2
177	181	2
245	245	3
159	159	2
92	92	5
196	196	3
183	184	2
149	180	1
13	14	2
28	44	1
49	49	1
157	158	5
58	58	4
175	176	2
86	87	2
177	182	2
34	50	1
110	112	3
207	210	1
213	213	3
101	150	1
177	225	3
75	108	1
45	228	1
228	228	3
34	35	1
232	232	1
209	229	2
152	152	3
150	150	4
163	164	2
78	115	1
28	33	2
166	166	3
194	218	3
168	168	1
26	32	1
216	217	1
101	101	2
164	165	3
200	212	1
198	198	1
223	246	1
111	111	2
240	240	3
56	66	1
191	246	1
229	244	2
112	112	2
24	25	2
30	32	2
172	172	2
38	39	2
238	238	1
149	150	2
10	11	3
205	205	1
103	103	1
179	195	1
5	11	1
8	9	2
110	111	2
214	215	1
114	115	1
75	169	2
95	234	1
199	221	1
245	247	2
33	226	1
153	153	2
86	86	1
107	110	1
236	237	3
112	236	1
51	51	1
105	106	1
179	180	4
12	12	2
120	144	1
49	74	2
68	91	1
3	5	1
59	60	2
24	120	1
185	185	2
209	238	1
247	247	2
213	214	1
219	219	2
212	214	1
71	71	2
206	211	1
205	212	1
231	232	4
117	117	1
166	167	1
186	191	1
204	204	2
195	195	1
116	117	1
66	109	1
230	248	1
198	220	1
43	45	1
93	94	1
1	1	2
16	21	2
7	8	1
43	43	1
47	49	1
57	59	1
39	40	1
203	226	1
189	190	1
207	208	2
190	192	1
3	45	1
57	60	2
75	76	1
67	69	1
187	189	1
36	40	1
208	208	1
86	90	1
15	39	1
160	186	1
29	30	1
77	172	1
46	236	1
14	34	1
146	146	1
61	81	1
