78	79	4
99	118	1
139	139	23
91	91	5
131	132	5
20	21	2
0	3	6
23	23	10
134	134	10
116	116	16
20	36	5
94	94	6
86	112	5
146	146	11
56	56	10
5	5	10
86	86	10
78	86	2
34	35	4
41	41	16
114	155	5
42	43	5
86	110	2
101	110	3
24	25	1
35	38	3
18	19	6
123	123	6
142	142	8
20	20	13
7	7	25
55	56	6
30	30	5
54	55	6
49	55	1
10	39	4
41	49	4
26	27	7
12	22	3
122	122	12
137	138	5
17	18	10
96	96	7
106	107	2
73	90	2
90	91	8
68	93	4
70	86	3
91	92	2
44	44	11
55	55	13
19	64	4
46	46	16
122	124	3
18	18	8
118	118	10
36	36	15
148	149	3
83	85	2
11	11	9
114	115	2
89	89	7
95	95	15
99	99	5
52	53	2
77	78	1
26	26	13
29	31	4
142	149	5
68	69	4
40	41	7
93	93	10
8	11	1
135	157	3
17	17	7
49	49	8
117	117	13
103	104	6
107	108	9
29	30	6
85	85	6
87	96	2
111	136	4
133	133	9
92	95	1
110	110	22
48	48	5
124	125	4
1	1	5
152	152	9
70	93	2
113	114	3
106	111	5
10	10	5
103	114	1
121	121	10
73	73	9
12	12	9
152	155	8
108	108	6
140	140	8
75	75	7
116	123	5
69	102	2
28	28	12
80	81	9
145	146	4
117	142	2
25	25	8
84	85	12
122	135	4
83	83	8
147	147	6
82	82	20
50	54	7
156	156	13
109	109	8
156	157	2
4	127	3
67	67	11
31	31	6
12	39	1
11	12	5
27	27	10
3	10	7
101	101	15
42	45	2
87	87	14
51	52	5
5	18	5
125	125	6
42	55	4
66	66	3
125	138	3
130	131	3
120	121	1
28	29	4
10	24	2
13	13	4
144	146	3
123	136	3
119	119	10
132	132	5
133	134	2
52	52	5
84	84	4
112	112	15
4	4	10
51	51	3
17	57	4
67	68	10
155	155	15
153	157	2
105	106	4
116	117	3
87	118	2
47	47	10
4	9	1
20	62	5
53	53	2
154	154	9
14	22	1
98	98	3
6	9	1
134	135	4
17	112	5
63	63	2
35	35	6
138	138	8
47	48	2
70	70	6
70	71	6
48	50	2
129	156	5
126	126	4
145	149	4
114	114	5
65	65	6
80	82	3
6	6	3
0	5	1
90	90	3
25	26	3
32	32	7
12	30	3
32	140	2
100	100	9
136	154	4
79	85	3
150	150	13
137	137	7
144	144	4
68	85	2
139	149	1
90	158	2
132	133	8
30	104	1
39	40	6
22	22	7
129	130	4
39	39	7
0	0	11
86	87	8
34	39	2
148	148	12
24	139	2
149	152	3
25	28	2
103	103	10
24	24	10
97	98	6
56	57	7
23	48	2
25	104	3
78	78	4
15	49	1
35	41	1
53	54	6
157	157	8
18	89	3
2	2	10
66	85	1
14	15	2
36	64	3
111	112	3
87	120	1
132	134	5
3	3	7
115	115	9
64	65	3
19	20	3
4	5	2
111	111	6
81	82	4
106	106	5
54	54	7
129	158	2
40	40	4
153	155	5
15	15	8
0	1	1
81	81	3
9	10	5
26	139	2
118	120	2
38	38	6
1	23	3
68	86	3
2	5	3
107	107	4
30	31	2
12	13	3
36	37	7
70	131	5
120	120	14
80	80	3
79	79	4
147	148	7
124	124	5
20	46	1
11	14	2
36	63	2
130	154	1
131	131	8
112	113	2
4	15	3
26	55	2
92	92	2
97	97	3
105	105	3
151	152	5
104	104	2
109	110	2
118	119	4
71	71	5
9	9	7
123	124	2
3	5	3
68	70	5
75	77	2
113	115	6
126	127	4
7	8	12
69	69	1
154	155	3
33	33	2
31	32	3
144	145	1
113	113	1
101	105	3
77	77	6
22	23	10
128	128	3
79	80	4
123	155	1
93	94	1
77	87	3
117	118	2
146	148	3
108	109	4
28	44	3
135	135	6
25	48	1
31	105	4
75	96	5
67	71	1
105	114	2
18	21	1
19	19	2
71	93	3
87	116	1
42	42	3
68	71	6
38	41	2
8	8	4
94	132	1
66	69	4
45	46	2
109	127	1
88	89	1
26	48	3
127	127	6
45	45	6
71	72	1
2	4	4
14	21	1
15	16	3
25	51	3
16	17	2
13	34	1
14	14	6
72	91	3
100	101	3
34	34	5
122	145	3
14	36	1
70	73	1
15	94	2
86	111	1
50	50	6
76	76	2
154	158	1
34	143	1
33	141	1
141	141	6
136	137	2
68	68	2
95	96	2
3	4	3
128	158	2
140	142	1
1	2	2
122	136	3
141	142	4
64	64	2
43	51	1
118	135	2
153	153	2
79	81	2
158	158	1
11	40	2
43	66	2
146	147	2
74	89	1
27	28	1
41	42	3
43	43	5
58	58	1
92	127	1
46	54	2
29	29	4
21	23	2
135	136	2
24	31	4
25	27	1
15	24	3
113	139	2
21	30	1
52	54	2
27	103	2
34	45	1
12	23	1
135	158	2
122	144	1
16	16	2
10	54	1
113	116	1
9	14	1
45	47	2
129	129	1
136	136	1
21	21	2
83	84	2
10	22	1
155	156	1
108	110	1
72	103	2
149	151	1
92	94	1
12	36	2
32	37	1
19	71	1
49	50	1
154	157	1
95	97	1
73	89	1
136	147	4
145	145	1
127	129	2
99	100	1
73	119	1
37	37	3
98	99	2
149	150	1
29	33	1
69	71	1
43	44	1
90	132	1
43	56	1
31	104	1
1	29	1
89	95	1
84	119	1
150	157	1
104	105	1
3	14	1
140	157	1
93	101	1
94	95	1
26	67	1
151	155	1
80	83	1
72	131	1
102	102	1
107	110	1
51	53	1
