66	71	2
1	5	1
119	120	1
31	77	1
27	27	5
121	123	1
14	16	2
26	26	3
12	12	8
131	131	5
34	36	5
60	60	7
61	66	1
67	70	1
108	109	2
69	96	3
85	92	3
87	88	6
12	123	2
66	68	1
117	117	3
10	10	3
115	116	1
11	11	3
113	113	2
13	13	10
108	108	3
121	121	1
64	85	1
72	72	1
14	14	4
112	112	4
122	122	8
91	91	3
96	96	8
60	61	5
98	98	2
104	111	3
109	112	1
107	107	6
113	115	1
74	74	3
3	5	1
16	33	1
84	84	2
93	93	4
77	77	1
86	87	2
68	74	2
58	58	3
75	89	1
120	120	1
56	57	4
27	28	3
62	62	1
28	28	2
111	114	3
109	110	3
118	123	6
107	111	1
103	103	2
106	119	1
15	15	3
118	119	5
90	90	3
125	125	4
85	85	6
78	78	5
83	84	4
7	7	2
49	50	2
104	109	3
19	19	6
72	85	1
57	66	1
32	32	6
6	13	2
127	129	1
23	25	1
101	101	7
120	121	1
135	135	2
123	123	3
124	124	2
43	53	5
49	62	2
110	116	1
62	63	1
118	120	2
64	64	1
99	100	2
99	99	2
25	35	1
31	31	1
86	86	3
43	51	2
114	114	4
8	8	2
94	101	2
109	109	1
43	43	2
6	10	2
104	127	1
54	54	4
100	116	1
53	53	1
73	76	8
79	80	1
3	12	2
75	82	1
33	33	2
83	83	1
92	93	2
95	95	2
87	87	4
33	35	2
8	10	1
56	61	1
17	18	1
83	108	1
65	75	2
133	133	1
64	78	2
44	44	1
12	119	1
5	6	3
13	20	1
76	76	2
45	49	1
116	118	3
84	86	2
68	69	2
35	38	2
9	10	2
63	65	2
22	24	1
92	92	4
119	119	2
130	130	3
111	125	1
132	133	2
116	117	1
84	85	1
113	114	2
132	132	2
61	61	1
71	80	1
111	111	2
9	9	2
7	13	1
33	61	2
104	104	2
20	22	1
106	111	2
15	16	2
55	55	2
47	62	1
98	119	1
57	57	1
50	50	1
102	103	2
65	65	1
114	116	2
25	34	2
82	106	1
71	71	3
110	110	3
82	82	1
47	50	1
4	5	2
67	87	1
70	70	4
106	107	1
70	95	2
0	97	1
1	12	1
115	115	3
7	8	1
100	104	2
128	128	1
127	134	2
27	35	1
25	25	1
80	80	1
49	49	2
82	85	1
25	26	3
98	99	1
36	50	1
102	102	1
44	58	2
22	22	1
7	9	1
1	1	1
100	109	1
106	114	1
66	67	1
126	126	1
69	69	1
128	132	1
5	15	1
81	81	1
21	22	3
18	19	1
97	97	1
16	16	1
23	23	1
30	36	1
14	20	1
84	107	1
13	16	1
54	63	1
