136	136	18
85	85	6
132	133	10
79	80	10
120	122	5
11	12	3
50	121	3
61	61	4
108	108	10
96	96	8
127	127	6
116	116	26
43	130	3
12	12	12
104	104	6
31	31	8
31	41	2
68	148	3
143	143	10
5	56	1
23	24	14
49	110	1
18	19	4
114	116	1
21	22	6
65	65	24
105	105	15
36	92	5
69	147	3
41	41	11
10	13	1
38	38	23
103	105	3
83	150	6
142	142	10
87	151	4
85	125	2
66	66	10
111	114	2
75	95	6
115	115	18
124	124	11
106	126	5
135	135	13
53	53	9
15	15	17
12	131	9
20	26	1
32	32	28
28	29	15
137	142	3
78	151	4
111	111	18
13	33	1
102	104	7
84	84	10
106	112	5
39	81	1
71	135	1
95	97	3
109	113	15
68	73	7
8	8	9
2	112	3
42	50	1
49	52	1
29	30	5
147	148	9
41	50	7
6	6	33
85	131	4
150	150	15
122	122	8
3	6	2
74	83	2
24	24	17
101	101	15
147	147	6
18	51	2
48	48	6
117	118	7
70	80	1
40	40	13
83	131	3
13	14	7
5	54	2
83	83	8
69	136	3
101	141	2
50	50	8
100	100	12
153	154	11
43	43	14
62	127	6
70	137	1
104	129	1
41	43	1
45	45	18
80	80	9
30	30	17
105	106	2
34	34	8
116	139	3
29	29	19
113	147	1
126	126	12
7	27	3
70	70	14
52	52	5
97	99	3
133	133	23
66	83	3
117	120	3
128	128	7
14	14	13
8	103	6
6	7	5
30	154	4
152	153	1
69	69	10
5	5	15
4	26	7
110	146	5
118	136	5
113	113	24
68	68	10
38	40	3
3	3	10
39	40	1
75	75	9
29	140	1
94	94	13
28	28	24
123	135	3
5	34	2
47	47	22
92	149	3
123	123	7
134	135	4
109	109	20
10	11	14
13	13	5
83	85	3
3	26	1
131	132	6
39	39	12
113	114	5
73	147	1
130	130	14
79	79	9
121	122	6
129	129	9
71	71	9
6	121	5
125	125	6
2	63	3
11	11	8
22	22	25
34	154	2
76	147	3
73	73	3
26	26	22
2	2	6
19	20	4
43	45	3
33	35	6
70	74	3
4	76	4
152	152	5
82	126	6
40	132	5
66	67	11
140	140	5
125	128	4
139	142	2
97	98	10
27	49	7
114	147	2
149	149	13
9	133	2
57	57	8
97	97	14
20	20	6
27	27	13
81	81	15
119	125	3
117	117	11
102	102	11
21	21	5
13	35	1
148	148	10
102	105	3
97	151	5
141	141	4
81	131	2
30	130	5
110	110	9
94	128	1
20	21	7
87	87	7
47	81	2
10	17	5
12	19	3
111	112	9
19	19	17
80	84	1
144	145	4
107	107	7
61	126	2
12	132	2
144	147	4
134	134	7
37	37	19
25	25	14
144	146	7
30	105	9
51	64	3
45	120	3
18	18	5
26	49	3
107	140	3
96	107	5
93	108	1
31	102	1
38	39	9
92	93	5
92	92	10
16	44	2
112	113	4
77	77	6
38	49	3
56	56	12
104	105	5
98	98	9
145	145	13
49	50	11
20	23	3
147	149	3
35	35	22
5	7	3
5	6	3
23	23	8
7	9	1
116	117	7
67	67	4
77	85	5
110	124	1
10	10	1
54	54	8
31	44	1
31	152	2
47	90	2
118	119	3
57	154	4
119	119	13
63	63	28
46	46	9
133	134	5
33	33	6
114	114	19
7	7	20
47	48	2
116	120	1
71	152	4
62	64	2
54	55	2
89	115	2
102	103	4
16	54	10
35	56	1
129	130	5
23	30	2
81	120	1
74	122	1
82	106	2
37	65	2
80	95	2
125	144	4
29	117	1
82	97	5
78	152	3
95	110	1
9	134	2
64	64	4
28	153	5
83	126	1
137	137	14
69	125	2
83	84	5
106	106	13
115	116	8
55	56	2
10	12	10
48	143	5
82	123	3
95	151	5
85	108	3
96	99	1
17	19	9
146	146	7
4	31	2
42	42	14
147	154	3
138	140	3
95	95	9
154	154	10
119	139	1
40	41	4
72	72	10
125	149	4
126	127	5
32	127	3
74	84	3
112	112	13
115	117	6
121	121	12
38	48	11
26	27	3
116	153	2
103	117	4
99	99	6
55	67	3
138	139	9
82	144	3
118	118	8
83	86	3
100	151	4
112	122	1
124	125	8
90	90	11
118	139	2
43	143	3
119	137	3
48	49	3
17	17	15
94	141	1
77	124	2
151	151	6
132	138	3
87	88	3
71	74	2
98	123	8
51	128	2
113	137	1
2	31	3
44	45	6
139	139	6
36	38	3
3	10	5
132	132	7
12	13	3
53	54	1
94	95	3
74	74	5
8	32	3
47	53	1
138	138	4
116	127	4
72	98	1
76	135	2
75	76	2
39	49	2
78	78	8
32	96	3
43	57	1
42	43	4
94	116	2
44	127	2
27	66	1
3	4	9
57	75	3
111	154	2
37	48	2
74	147	2
9	9	6
150	151	2
47	119	2
122	123	1
75	77	4
86	87	2
73	105	1
47	52	1
117	138	1
119	135	3
32	33	8
46	84	1
29	96	2
42	46	3
74	76	1
83	118	2
45	49	1
74	150	2
133	138	2
73	84	1
77	78	3
24	25	4
68	137	3
102	136	2
87	144	6
89	89	3
84	96	3
64	66	3
68	144	1
153	153	12
15	16	1
70	136	2
81	82	9
92	114	1
107	108	3
86	86	9
73	75	6
16	16	9
44	44	13
84	134	4
71	146	2
126	144	5
94	114	2
121	137	1
44	53	2
93	95	1
9	151	1
26	63	2
84	115	2
64	67	2
9	130	3
79	151	1
145	152	3
37	131	3
89	144	2
76	76	10
120	126	5
142	154	2
77	147	2
9	77	1
120	120	4
36	56	5
4	30	3
96	152	4
87	105	2
67	86	2
8	26	4
123	126	4
94	112	4
7	25	1
31	130	3
102	134	1
77	122	2
51	53	3
16	23	3
77	80	3
8	9	3
22	23	3
11	14	2
142	147	1
76	148	1
95	98	5
53	122	1
74	75	3
82	82	14
29	31	4
137	139	3
93	142	1
51	122	1
27	34	1
85	116	2
5	70	2
30	31	5
75	88	2
58	58	1
70	86	3
79	98	2
56	57	4
40	51	2
54	56	5
26	62	1
57	144	3
39	48	3
66	84	2
86	107	1
113	117	1
97	148	1
17	18	2
49	49	4
79	87	1
58	146	1
102	141	1
105	142	1
50	51	4
122	128	1
110	154	4
31	32	2
128	151	1
37	38	2
144	144	6
127	128	3
53	55	2
57	108	1
80	86	2
55	55	3
53	119	1
48	51	3
131	131	6
35	57	3
41	42	2
96	100	2
27	50	2
135	136	4
45	47	2
45	53	1
105	123	1
27	125	1
103	114	1
11	25	2
40	130	1
37	51	5
85	96	2
31	33	3
83	87	2
119	136	1
74	128	1
119	124	2
75	78	3
30	96	1
85	135	5
35	58	1
46	85	1
79	153	3
146	147	1
101	105	1
67	68	3
33	75	1
32	41	7
102	110	3
54	103	2
68	136	1
140	142	1
57	76	1
33	36	4
122	138	2
14	33	1
77	132	1
111	137	1
57	80	1
56	133	2
77	134	2
92	99	2
111	117	2
22	24	1
72	73	1
123	138	2
6	20	1
83	145	2
103	103	2
93	149	2
45	46	2
99	142	1
149	150	5
121	143	1
11	112	2
141	142	2
136	138	1
119	129	1
34	35	1
73	123	4
78	150	3
3	5	3
62	62	6
27	57	1
43	46	2
37	81	1
93	150	2
21	40	2
20	22	4
27	37	1
92	124	5
8	12	5
50	55	1
42	130	2
87	97	2
142	146	1
36	58	2
21	23	1
128	133	1
14	15	5
36	52	1
93	93	1
54	105	6
140	141	4
106	110	1
72	151	2
7	12	3
33	154	1
75	147	1
13	15	2
99	141	1
97	108	3
2	26	2
51	120	4
95	96	2
68	125	1
96	97	1
62	63	1
26	65	1
34	76	2
41	53	1
6	8	2
47	65	1
57	92	4
97	107	2
51	51	1
82	115	1
141	143	2
105	141	1
132	149	1
4	4	6
56	79	1
42	128	3
48	80	2
76	98	1
112	116	1
14	20	1
98	99	4
9	128	3
83	93	1
78	98	1
92	151	1
128	129	1
79	115	2
136	152	2
47	131	1
148	149	3
77	144	1
121	127	1
96	151	1
85	86	2
84	152	3
106	107	4
135	138	2
27	58	1
68	69	1
108	154	1
70	118	2
101	104	1
86	108	2
117	139	1
90	142	1
137	141	2
89	101	2
8	27	1
80	131	1
13	56	1
42	57	1
5	20	1
78	127	1
78	133	2
94	111	1
36	36	5
70	122	1
73	74	2
57	150	1
11	13	1
93	128	1
88	144	2
145	153	2
70	138	1
27	28	2
127	143	1
41	46	1
55	66	1
48	50	1
143	144	2
25	30	3
109	110	1
50	57	2
38	43	1
102	112	2
63	122	2
35	38	1
46	47	1
115	139	1
49	120	1
130	137	1
120	121	1
28	95	1
102	135	1
78	153	2
136	139	2
25	36	1
94	98	1
71	150	2
78	108	2
124	126	1
2	3	1
80	132	1
114	123	1
111	115	1
110	145	1
115	119	2
98	125	1
84	140	1
36	145	1
134	139	1
90	110	1
49	57	2
66	68	1
32	97	1
116	128	1
35	36	1
73	77	1
92	128	1
72	131	1
100	102	1
100	116	1
73	130	1
25	26	2
4	12	1
78	79	1
50	119	1
25	27	1
33	102	1
48	68	2
99	108	1
72	145	2
5	55	2
69	74	1
103	104	2
74	126	1
85	140	1
97	153	1
116	151	1
48	57	1
48	63	1
13	53	1
36	50	1
35	127	1
106	111	2
66	89	2
118	152	1
27	36	1
29	108	1
12	17	1
15	121	1
115	152	1
30	32	1
96	109	1
43	44	2
84	124	1
97	104	1
88	147	1
32	44	1
6	55	1
104	116	1
85	151	1
92	142	1
48	124	1
85	144	1
65	66	1
28	33	1
95	146	1
22	32	1
39	131	1
