51	51	20
86	86	7
58	58	15
35	37	4
111	111	8
79	79	19
30	31	6
73	74	17
80	80	14
68	95	3
45	45	16
76	109	2
31	101	6
83	85	6
104	106	11
75	78	3
32	32	12
51	52	9
61	82	3
89	107	2
67	94	2
31	100	2
41	43	3
48	48	13
55	55	5
26	101	5
35	35	7
74	78	4
39	39	13
64	72	6
31	31	9
107	107	11
44	44	46
79	80	3
93	105	5
48	49	6
43	43	29
56	57	1
101	101	9
105	106	3
22	22	17
51	72	3
40	41	5
93	93	8
24	24	11
60	60	22
25	80	3
25	25	18
69	69	14
37	38	2
72	73	6
100	100	20
67	68	4
42	42	19
28	50	3
76	76	28
77	102	2
100	110	3
19	19	7
81	81	21
46	46	27
62	62	10
54	67	1
76	77	8
109	109	17
99	99	22
29	29	9
113	113	31
53	54	9
78	78	11
23	46	4
33	33	25
31	32	10
74	74	33
97	97	17
22	43	9
68	69	4
24	79	3
73	73	7
47	48	4
21	21	23
63	71	4
82	83	3
89	90	5
28	30	2
41	41	29
56	56	19
64	65	4
106	106	3
75	75	23
23	27	1
98	98	14
87	87	14
29	30	6
25	74	2
74	86	3
44	59	1
36	37	1
102	102	18
110	110	15
47	47	22
53	53	10
108	108	11
52	52	17
20	21	7
57	57	7
95	96	8
30	74	1
61	62	4
83	83	20
37	48	8
68	68	18
61	61	17
85	88	3
100	102	2
99	100	14
72	72	3
23	43	3
86	87	7
50	50	9
80	85	6
27	27	20
43	58	6
62	97	2
28	31	3
49	54	2
30	90	2
34	35	6
37	95	5
45	54	3
67	67	15
78	84	1
98	99	12
77	77	19
100	101	7
36	40	4
50	51	3
88	88	15
96	100	2
59	59	15
63	65	5
54	55	2
70	70	12
80	88	5
92	92	6
107	111	2
50	58	2
37	37	35
77	83	4
88	110	4
46	47	3
71	71	19
39	95	3
105	105	14
89	89	17
58	59	5
23	41	4
32	101	1
55	56	5
114	114	11
82	82	8
28	28	5
40	42	3
68	92	3
25	26	2
30	30	26
38	38	11
25	73	6
63	63	6
104	104	8
84	84	3
75	81	6
80	81	2
95	95	12
36	36	29
103	104	1
78	82	9
107	108	2
54	54	6
62	63	2
69	70	5
43	44	8
40	40	8
44	45	11
46	73	3
36	44	3
26	26	11
57	59	11
37	96	4
52	72	3
36	96	2
21	22	1
74	79	1
64	64	10
27	99	1
49	49	7
81	90	2
37	49	2
68	72	1
65	66	6
23	24	5
27	28	11
91	96	4
95	97	2
108	109	2
24	43	3
110	111	4
59	65	3
101	103	2
20	23	4
108	110	4
31	50	4
91	91	9
92	93	7
74	80	9
90	91	1
103	106	5
42	46	3
76	91	2
67	75	1
36	55	3
101	108	4
33	100	2
22	23	1
50	61	1
112	112	10
29	102	6
25	27	3
32	33	6
89	91	2
46	113	1
35	47	5
94	95	3
92	98	2
25	113	2
65	65	6
87	88	6
57	63	3
23	23	5
91	92	2
71	72	3
77	86	1
83	84	5
105	112	3
37	40	2
64	90	1
59	62	1
25	46	1
36	95	1
101	113	5
57	58	3
102	107	2
108	111	2
77	87	1
92	109	2
96	96	10
89	110	2
61	66	1
101	102	7
47	73	4
75	86	3
111	112	3
46	67	3
34	44	2
84	85	5
41	42	4
89	111	2
41	45	2
76	87	2
81	89	1
94	97	4
33	34	6
101	104	4
42	43	3
107	110	1
66	66	7
34	36	3
23	111	2
109	110	6
28	113	3
49	50	4
56	77	3
19	23	1
34	34	10
28	29	7
26	27	1
51	67	2
23	110	3
90	90	3
80	83	1
30	102	5
25	33	3
36	45	1
78	79	3
34	101	2
60	61	1
103	103	4
34	41	3
108	112	1
32	34	2
96	97	5
67	96	2
22	109	4
46	103	1
85	85	4
21	41	2
36	60	1
97	100	1
45	57	1
98	105	1
27	29	2
104	105	2
66	90	1
44	67	1
73	75	1
78	85	2
66	72	2
75	79	2
93	94	1
65	91	1
56	60	1
20	35	2
70	71	2
103	111	2
66	67	2
77	78	2
104	107	2
49	60	4
62	95	2
52	53	1
98	100	2
20	20	1
52	71	1
104	108	1
35	41	2
76	105	1
61	73	1
22	41	1
77	92	1
64	67	1
45	46	1
26	31	2
114	115	1
88	90	1
91	104	2
90	105	1
22	54	1
71	73	1
36	57	1
52	102	1
62	65	1
97	98	1
31	33	1
29	31	1
30	77	1
43	45	1
63	69	1
74	75	1
26	100	1
55	72	1
27	100	1
20	22	1
52	67	2
64	92	1
54	56	1
26	73	1
60	62	1
56	58	1
