69	69	1
114	165	3
58	58	5
20	20	4
10	29	1
56	57	7
53	55	2
63	91	1
166	171	4
100	100	5
46	89	3
10	11	2
11	11	3
15	95	1
72	73	6
91	119	4
141	141	9
117	169	3
4	5	1
137	137	7
142	142	12
83	84	2
169	169	3
106	108	1
165	165	3
184	184	7
14	31	2
115	123	3
113	113	5
151	151	4
14	43	3
121	122	5
37	58	1
123	123	3
81	85	2
160	162	3
82	86	3
176	176	2
27	37	7
146	186	2
95	99	4
85	85	3
39	62	4
107	112	4
23	43	3
148	155	1
31	43	1
150	150	8
152	152	4
52	52	2
96	96	7
27	28	6
171	174	1
110	110	10
59	59	12
19	32	2
17	64	4
43	43	3
38	38	7
112	112	6
124	124	1
12	12	3
131	131	3
39	39	3
141	158	2
161	167	3
94	94	4
139	139	5
13	48	4
130	132	1
68	100	2
125	125	4
187	188	3
145	146	3
159	159	2
28	64	3
74	74	2
96	97	1
88	88	5
25	25	7
19	65	1
21	48	1
120	121	2
189	189	7
42	42	5
13	22	2
119	130	2
121	121	5
101	101	4
65	65	6
132	182	2
151	154	3
132	132	1
48	48	7
3	3	3
153	153	5
53	53	4
77	77	3
145	145	2
71	71	4
82	92	2
143	143	2
67	99	3
149	187	4
28	28	3
179	179	4
118	118	2
36	36	2
98	116	1
2	20	3
185	185	6
114	114	4
150	187	1
40	40	7
64	64	3
23	23	2
86	90	2
140	186	4
140	140	3
15	94	1
58	67	1
30	31	1
73	73	5
108	108	2
99	116	1
93	94	1
101	124	1
18	18	7
46	47	2
0	21	2
6	6	8
136	137	2
4	4	1
3	13	1
156	156	7
128	129	2
149	149	5
16	17	1
133	134	1
37	41	1
14	18	3
148	149	5
35	47	4
95	96	2
126	129	2
25	26	1
78	103	4
70	86	4
44	44	6
118	170	4
35	35	8
178	181	1
157	157	4
104	104	3
138	168	3
186	186	2
177	179	2
79	79	2
58	77	2
148	148	5
183	183	1
26	147	3
30	30	5
109	110	5
181	182	5
149	150	1
19	19	4
66	66	2
172	172	4
116	116	4
88	89	5
11	12	3
67	126	2
60	66	2
163	163	2
11	44	4
25	38	2
32	34	1
81	81	2
101	125	2
114	119	1
108	109	2
35	77	2
181	181	2
114	166	2
135	135	1
16	30	1
17	96	2
68	68	2
5	5	3
188	189	2
104	105	2
84	140	4
81	82	1
7	9	1
133	175	3
46	46	3
164	164	6
83	83	1
135	136	2
82	82	3
62	62	1
5	20	3
76	78	3
106	106	3
170	170	1
2	4	2
133	169	4
54	54	3
161	161	3
66	67	3
170	171	1
54	56	2
17	17	3
7	7	1
61	61	1
13	13	1
84	85	2
175	175	8
103	103	2
53	54	2
5	16	1
22	22	2
114	139	3
12	32	3
66	86	1
172	173	3
102	102	1
121	143	1
134	134	1
15	16	3
142	190	1
156	159	2
75	75	3
33	33	1
93	107	1
84	86	1
111	162	1
171	173	1
100	145	2
142	143	2
188	188	1
185	186	1
89	89	1
105	172	1
108	163	2
10	10	3
21	21	1
77	79	2
95	153	1
122	122	4
63	64	1
131	163	1
34	34	1
41	41	1
94	145	1
90	137	1
60	71	1
49	54	2
121	138	1
74	75	1
32	47	1
117	168	1
84	126	1
155	155	1
24	42	1
180	188	1
102	130	1
95	95	1
112	171	1
71	72	1
72	76	1
69	107	2
111	112	2
23	75	1
130	160	1
111	113	1
93	93	1
79	80	1
92	92	1
23	34	1
12	79	3
64	119	2
173	173	1
180	181	1
0	35	2
126	127	1
80	80	2
96	98	1
116	167	1
138	145	1
32	32	1
109	139	1
41	62	3
62	90	1
135	145	1
154	154	2
182	182	1
29	29	1
47	47	1
188	190	1
102	103	1
108	172	1
115	115	1
74	76	1
78	78	1
179	181	1
79	107	1
132	166	1
63	63	2
124	125	1
9	9	1
14	14	1
1	1	1
