160	160	8
46	46	6
47	47	5
105	106	2
82	82	8
52	73	2
153	153	9
179	179	4
97	174	5
106	106	14
90	95	5
170	170	6
29	29	10
95	96	2
78	81	4
40	40	10
130	130	4
157	157	6
155	156	2
118	118	2
27	27	7
169	170	4
182	182	7
169	169	6
160	163	4
138	139	2
177	181	7
151	153	5
57	57	9
144	144	6
158	158	7
17	17	9
122	123	3
153	154	9
99	171	8
49	73	7
86	109	2
118	119	4
54	54	12
124	124	4
186	187	7
89	89	8
119	119	5
8	44	5
74	74	2
79	81	1
43	44	2
155	155	6
137	137	3
183	183	7
90	90	6
98	159	1
40	41	4
55	55	4
9	14	5
87	87	12
60	60	9
88	90	2
119	120	3
176	176	6
87	138	1
18	18	6
85	85	4
130	133	2
64	137	2
71	71	4
18	20	1
110	111	1
146	146	4
115	120	1
13	45	2
178	179	4
113	114	5
161	161	3
154	154	5
84	84	19
190	190	1
24	24	8
134	134	6
109	109	7
69	69	1
13	13	11
77	77	7
72	73	7
142	142	6
21	22	4
152	152	6
79	133	2
167	168	6
26	26	7
27	30	3
24	25	3
83	84	3
10	10	3
141	141	14
67	67	6
183	184	4
99	102	1
74	143	1
123	123	9
4	4	8
110	119	1
11	11	7
129	129	3
127	128	1
93	175	6
16	16	6
2	2	9
160	162	3
58	58	4
139	139	9
123	124	4
168	168	5
32	32	2
140	140	11
185	186	2
81	81	2
59	60	2
174	174	9
63	63	4
105	105	1
111	118	2
62	62	4
66	67	1
88	89	3
14	14	8
121	171	5
88	159	2
83	83	2
99	99	8
181	181	5
90	141	3
48	48	7
125	125	5
98	98	7
187	187	3
56	57	4
22	24	3
97	97	4
123	174	2
143	144	2
58	61	3
184	184	13
100	107	4
122	122	6
114	114	4
76	76	3
113	113	8
35	35	3
120	120	8
141	148	3
6	6	9
115	115	4
185	185	6
38	75	2
114	120	4
101	102	3
86	86	8
186	186	3
113	120	3
115	118	5
66	66	2
22	22	1
19	162	4
177	177	4
42	42	2
46	47	4
130	136	2
61	61	7
9	10	3
48	73	2
108	108	7
9	9	2
156	156	2
143	143	4
188	188	2
164	172	2
178	181	1
39	76	3
149	150	2
15	15	4
133	133	4
19	20	2
121	121	2
127	127	6
63	141	3
99	172	3
99	100	2
15	83	2
161	162	2
92	92	10
91	91	4
188	190	2
45	45	7
8	8	6
120	123	3
25	25	8
22	36	1
139	149	1
28	28	5
96	98	2
126	126	3
65	65	1
163	163	5
132	133	2
95	106	2
34	81	4
166	166	4
77	85	4
150	151	1
85	165	1
105	163	1
147	148	1
126	136	3
133	134	5
25	42	1
187	190	2
6	48	1
32	33	3
104	105	2
2	84	2
88	162	2
31	46	1
131	132	6
148	148	2
33	35	1
180	180	3
141	143	1
101	101	2
131	133	4
104	104	2
136	136	1
151	151	4
15	20	3
93	93	1
178	178	2
171	171	5
179	189	1
68	68	3
96	96	3
19	19	2
56	56	2
78	78	5
30	30	1
157	158	2
137	138	2
175	176	3
79	130	2
88	88	2
58	74	1
4	5	6
135	135	2
99	159	1
96	154	3
90	106	3
110	110	4
139	141	2
81	83	1
25	36	1
100	100	3
108	160	3
62	141	1
131	131	3
32	35	2
12	47	3
79	134	3
100	161	1
111	111	1
149	149	3
28	29	1
136	137	3
88	91	1
93	94	1
41	41	5
5	5	2
85	166	2
147	147	2
11	12	1
82	83	3
162	174	1
138	138	2
4	141	2
75	75	2
59	63	2
12	12	3
35	38	3
167	167	3
128	128	3
104	108	1
153	157	1
53	53	5
89	151	1
134	136	1
163	164	1
55	75	3
95	95	1
159	159	4
72	72	2
14	46	2
91	106	1
71	72	2
97	98	1
34	34	1
96	174	1
39	184	1
14	15	2
165	165	3
99	161	2
124	185	1
36	36	5
99	107	1
32	36	1
67	134	1
103	172	1
159	160	2
71	91	2
103	103	2
38	38	1
79	79	2
189	190	1
33	34	1
101	157	2
100	101	1
19	23	1
21	21	3
130	131	4
45	46	1
94	95	2
111	123	1
90	150	1
94	176	2
92	94	2
99	103	1
116	116	1
24	34	2
127	137	1
71	73	1
20	82	1
60	63	1
31	31	1
164	164	2
187	188	2
28	44	1
105	107	1
78	80	1
73	73	1
89	153	3
12	71	2
70	70	1
22	23	1
54	55	1
118	120	1
56	128	1
63	64	1
137	151	2
14	48	1
37	37	1
20	20	1
100	158	1
31	32	1
177	182	1
157	175	1
102	103	1
11	45	1
128	129	2
39	39	1
20	21	2
58	60	1
12	13	1
97	189	1
111	124	1
3	141	1
114	189	1
96	97	1
2	4	1
0	0	1
59	59	1
1	1	1
