37	37	10
72	72	18
41	41	23
32	33	2
47	61	9
64	64	16
43	43	23
51	51	27
67	67	17
23	23	11
58	58	13
30	30	20
46	47	7
59	59	23
52	53	8
25	28	7
54	54	24
44	44	6
74	74	17
56	56	18
60	60	4
72	73	4
71	71	13
34	35	7
27	27	8
44	80	1
61	62	15
76	76	21
33	33	16
50	69	6
31	51	8
31	33	3
47	80	4
42	43	6
29	45	4
65	65	12
67	68	4
31	31	12
35	35	21
40	40	14
46	79	2
39	77	6
50	50	5
77	77	18
22	22	7
26	29	6
35	73	2
49	49	17
23	24	3
79	80	4
32	57	2
70	75	3
36	37	8
74	75	8
68	68	19
42	42	17
22	59	2
76	77	4
69	69	8
21	21	8
73	73	25
79	79	9
45	45	9
75	75	15
32	34	2
29	29	9
33	34	4
53	53	13
62	62	17
55	57	4
65	66	7
73	74	2
30	64	4
61	61	18
32	71	5
38	38	18
42	52	3
39	41	7
23	31	3
78	80	1
20	21	5
39	70	2
59	72	3
47	47	4
68	69	9
70	70	12
55	55	7
30	47	1
59	63	1
32	32	14
48	79	2
66	66	14
45	47	4
57	57	13
43	44	6
37	70	1
73	78	1
45	50	2
32	51	2
34	34	9
46	46	3
75	76	6
63	63	13
39	76	3
58	66	5
28	29	5
49	60	1
48	48	3
36	36	15
78	78	15
26	26	3
21	63	3
52	52	8
30	31	3
42	45	6
40	70	1
30	46	2
22	62	3
30	44	2
50	51	5
31	78	1
66	67	5
40	41	5
55	59	1
27	62	1
28	33	1
57	58	4
38	71	2
25	25	2
31	52	1
41	77	2
63	64	2
80	80	5
44	45	4
53	54	2
41	42	2
70	71	3
81	81	2
36	71	2
39	40	3
78	79	1
23	55	3
80	81	2
20	20	5
28	28	7
37	73	3
38	72	1
64	65	5
41	45	3
72	78	2
32	70	6
71	72	2
22	71	1
31	67	1
39	39	5
62	64	1
58	67	2
31	71	1
33	51	2
35	74	2
56	57	1
22	24	3
20	25	2
55	56	1
53	55	1
69	77	1
27	29	2
61	63	1
21	22	2
29	64	2
29	33	1
32	35	1
40	43	1
46	80	1
31	34	3
36	39	2
31	32	1
69	76	1
37	38	1
30	51	1
24	24	3
23	58	1
30	49	1
46	61	1
24	25	1
70	74	1
20	26	1
43	73	1
59	60	1
