77	77	6
107	107	5
10	10	19
15	19	4
123	123	5
61	75	3
7	7	10
43	43	6
79	79	11
120	120	4
32	121	2
44	44	5
109	109	5
112	112	8
66	75	2
54	57	2
71	71	10
110	111	7
51	53	6
104	104	13
116	116	6
67	73	4
105	105	2
49	49	3
48	48	9
12	12	11
130	130	1
43	62	3
67	67	4
56	56	17
13	39	6
117	120	5
111	111	4
85	87	2
80	81	5
40	64	3
81	81	9
63	115	3
29	46	1
78	79	4
24	24	5
2	7	1
114	114	7
4	4	15
124	124	11
27	27	14
11	13	4
99	99	8
19	97	1
96	104	4
44	111	2
5	5	9
42	42	8
117	117	4
14	119	5
33	33	5
2	3	3
21	21	1
17	78	2
32	32	13
108	108	6
29	29	10
16	19	4
16	16	4
50	58	2
57	57	11
88	88	10
118	118	2
95	121	1
110	110	9
95	96	2
102	102	15
106	106	11
38	38	7
40	40	3
54	54	17
101	101	5
1	1	8
23	24	5
51	51	5
85	85	9
93	93	7
115	115	2
9	9	8
95	98	4
53	54	5
6	100	4
107	108	8
126	127	6
22	22	8
39	39	10
94	101	5
115	116	5
108	109	2
55	55	3
100	101	7
41	115	1
88	89	11
98	98	5
100	100	11
2	2	6
89	89	9
13	118	4
31	31	5
0	84	1
31	32	3
46	48	2
58	58	6
75	127	2
90	91	6
82	82	3
17	67	4
13	13	3
84	85	16
62	82	2
122	123	3
127	127	5
95	99	3
29	43	1
74	74	5
120	121	4
46	78	6
47	47	6
99	100	2
40	88	5
125	125	8
95	95	4
76	76	12
26	26	9
30	31	3
38	88	2
87	93	5
94	94	7
104	105	2
63	82	1
42	48	1
97	97	7
78	78	8
65	75	1
21	23	1
58	94	2
60	88	1
124	125	4
109	112	1
128	128	5
6	7	1
18	18	7
93	105	3
60	85	1
40	85	2
63	64	6
65	65	2
19	69	1
65	76	3
81	93	2
47	52	3
86	86	1
40	83	2
96	102	2
55	104	2
119	119	3
132	132	6
52	52	5
121	121	6
45	45	3
61	61	4
75	76	3
47	48	8
30	30	7
11	11	10
19	19	10
8	9	1
23	23	11
83	83	6
86	87	3
50	50	7
125	126	2
64	64	2
9	10	3
109	113	3
20	23	1
92	93	5
3	4	5
65	74	2
65	73	3
0	0	5
20	20	1
62	62	3
17	17	3
104	109	1
46	85	3
109	110	2
63	74	2
98	116	3
18	19	4
131	131	7
4	8	7
17	32	1
91	92	1
71	72	4
92	92	5
30	33	1
80	80	4
25	25	5
3	53	3
6	6	8
54	108	1
7	8	3
78	82	1
133	133	3
65	72	4
14	14	4
3	3	9
69	71	3
96	103	1
47	49	1
53	53	2
131	132	1
104	113	1
25	26	3
4	52	1
69	75	3
125	131	1
117	118	1
113	113	7
46	80	1
69	69	8
54	55	3
105	106	1
63	63	3
1	31	2
97	98	4
66	68	2
118	119	2
40	86	2
129	129	4
116	117	3
125	132	3
16	21	2
96	96	4
50	73	3
5	6	2
72	72	2
128	129	2
83	107	1
32	118	4
103	109	1
52	114	2
72	76	1
17	79	3
12	122	1
39	84	1
94	95	1
81	82	2
25	45	2
41	41	2
70	70	2
48	51	1
15	15	3
11	12	1
89	90	2
76	77	2
46	46	1
93	116	2
117	119	1
14	32	1
81	90	1
122	122	6
44	45	4
2	8	1
24	25	4
40	41	1
81	84	1
65	117	1
81	106	1
41	91	3
90	90	3
6	79	1
59	61	3
88	91	2
6	110	3
58	84	1
21	22	1
19	78	2
34	34	3
112	113	2
96	109	2
59	59	1
12	14	1
39	83	1
60	60	1
102	105	1
102	103	1
97	99	1
129	131	1
58	59	3
43	81	1
75	75	3
56	57	1
93	94	2
20	46	1
126	126	3
110	112	3
42	43	1
49	51	2
86	116	3
42	72	3
50	85	2
54	56	1
62	84	3
69	124	1
23	28	1
113	114	1
75	100	1
48	81	1
26	27	1
15	16	3
42	88	3
45	50	2
79	80	1
62	63	1
13	121	1
124	133	1
29	48	1
129	130	1
72	73	1
20	70	1
33	34	1
15	17	1
64	115	1
55	109	1
25	29	1
