94	112	8
2	2	2
65	65	5
4	20	3
5	10	1
115	115	5
3	18	9
44	44	5
104	127	1
112	112	5
29	41	5
42	129	7
17	31	2
27	27	3
81	81	2
71	73	2
102	102	8
0	32	2
20	25	2
124	124	7
15	31	2
114	114	3
93	93	2
62	118	3
29	30	2
37	38	1
17	17	2
0	0	3
100	100	2
131	131	6
7	7	5
35	35	5
101	101	5
123	123	1
90	91	8
56	117	4
82	105	7
47	47	6
69	70	1
123	124	2
84	84	6
117	118	2
109	109	4
96	96	1
9	10	5
107	107	5
106	129	3
113	114	4
24	39	2
41	41	3
43	102	2
125	126	2
94	94	6
132	132	4
98	102	2
19	19	3
100	114	1
91	107	10
75	75	8
29	31	3
72	72	3
23	39	4
26	26	2
1	29	1
78	78	7
6	6	8
24	83	3
27	30	1
74	75	1
106	112	1
28	39	4
113	113	3
116	116	5
15	15	8
45	47	1
11	33	1
109	110	1
7	29	1
96	119	2
19	44	1
9	9	4
120	120	7
81	82	1
43	43	1
22	22	3
82	82	7
37	64	3
0	18	4
108	108	6
84	87	2
42	50	1
83	105	2
91	93	6
19	28	2
59	61	3
99	118	3
126	127	1
5	5	6
46	46	5
29	29	3
16	17	1
108	110	3
125	125	11
79	79	2
24	28	4
5	13	3
98	98	5
95	108	2
121	124	3
80	80	1
116	117	2
119	119	2
103	109	3
36	36	5
91	91	5
13	21	4
107	111	1
45	45	8
77	77	9
25	71	3
90	109	2
82	83	1
41	43	3
128	129	1
98	119	2
84	119	1
95	95	5
39	40	3
55	55	6
131	134	2
11	12	1
50	50	2
42	101	1
76	76	3
130	130	6
10	10	10
84	95	2
70	70	3
89	89	1
41	105	5
55	64	1
11	11	1
48	48	3
21	21	6
110	126	2
75	85	4
71	72	1
118	118	5
67	67	2
36	46	6
63	70	4
68	68	2
0	17	1
92	103	2
83	113	1
71	96	2
85	123	2
70	86	1
8	25	2
131	132	4
4	4	7
20	31	3
85	105	1
129	129	2
67	103	3
70	87	3
68	72	2
12	33	1
103	103	1
56	56	9
106	106	1
7	12	2
100	101	1
12	25	3
78	110	1
43	118	1
110	110	5
43	57	2
87	111	1
20	20	3
32	36	3
72	73	1
118	126	1
66	123	2
130	132	1
81	98	1
10	25	6
109	126	1
11	58	2
127	132	2
85	85	3
38	38	3
92	95	2
16	39	1
98	101	2
99	100	2
55	74	1
73	73	1
82	93	1
71	94	2
56	65	1
79	99	1
61	69	3
60	60	5
105	119	1
14	14	2
4	29	5
43	44	1
14	18	1
5	24	1
66	72	2
14	17	1
41	87	1
85	87	2
36	47	2
38	39	1
69	69	3
19	27	1
108	109	5
111	112	1
13	13	3
63	63	4
1	11	2
7	22	1
108	123	1
102	116	3
63	74	1
10	11	6
86	87	2
62	108	2
127	127	4
28	32	2
111	134	1
59	60	1
79	91	1
32	32	1
102	109	1
37	37	1
24	134	2
23	23	3
68	80	5
3	3	1
104	104	5
92	116	1
40	48	1
1	6	4
5	107	1
41	56	2
79	80	6
70	71	1
115	118	1
97	97	3
10	23	1
23	24	1
69	71	3
69	109	1
120	133	2
133	133	1
46	59	1
104	106	1
134	134	3
60	64	1
102	119	1
34	35	1
26	44	1
112	132	2
98	100	1
38	72	1
3	19	2
64	64	2
34	34	5
92	94	1
38	44	1
126	131	2
48	119	1
24	25	1
69	90	1
46	47	1
62	67	3
88	98	1
23	34	1
105	111	1
106	108	4
62	75	1
30	132	1
28	28	4
118	134	1
74	74	4
32	34	1
8	20	1
49	127	1
3	21	2
114	116	1
70	119	1
40	130	1
56	103	1
131	133	2
5	6	1
30	44	1
43	101	1
87	88	1
71	79	1
91	111	2
1	1	1
24	86	1
7	18	1
22	33	2
62	62	1
42	42	1
123	126	1
48	124	2
84	85	1
81	88	1
24	82	3
116	125	1
44	118	1
129	130	2
72	76	1
9	11	1
74	80	1
96	99	1
5	36	1
15	19	1
8	18	1
16	16	1
76	93	1
86	134	2
83	90	1
47	62	1
73	74	1
13	43	1
86	107	1
42	48	1
70	80	1
91	99	1
24	26	1
27	106	1
26	43	1
66	66	1
