97	97	7
69	69	4
39	39	5
40	41	4
80	80	8
88	88	4
38	38	10
101	102	1
60	60	4
85	85	3
39	94	1
43	94	1
79	79	10
103	103	8
65	71	1
51	51	7
25	97	2
56	56	5
49	70	2
57	58	2
95	95	2
44	45	6
45	46	2
81	81	6
33	33	3
20	46	2
63	63	3
89	89	7
66	67	3
84	84	9
31	72	3
59	59	5
82	86	2
89	105	2
93	102	3
40	81	3
57	57	1
50	50	4
98	98	8
31	31	6
92	92	8
25	27	1
84	86	1
82	98	1
74	74	3
102	102	9
52	52	8
66	66	10
46	47	4
29	99	1
79	97	2
22	22	4
41	41	4
40	46	1
30	63	2
49	93	2
90	90	6
37	40	2
76	77	1
36	36	8
55	56	4
64	88	2
45	45	3
38	42	6
70	70	1
67	67	8
54	106	1
68	78	2
38	87	1
27	30	2
58	58	3
99	99	6
26	84	1
42	43	3
26	82	3
68	68	6
49	49	3
37	38	1
20	20	2
53	54	3
60	61	1
21	21	10
78	78	5
37	50	2
28	28	3
84	85	1
29	89	1
68	74	1
35	35	1
42	51	2
55	55	3
46	46	2
57	90	1
97	99	3
87	87	5
43	43	3
57	60	2
67	69	2
54	54	7
22	23	2
65	65	4
58	63	1
100	100	4
26	57	2
95	98	1
60	81	1
83	83	3
96	96	5
71	71	4
26	86	1
64	64	6
40	40	4
91	105	1
61	63	2
32	33	3
35	36	1
21	93	1
50	51	1
27	99	3
106	106	3
48	48	3
76	76	2
94	102	1
51	52	5
78	79	2
30	35	1
24	24	2
102	103	3
73	74	1
95	96	1
65	66	2
61	61	5
62	62	2
58	62	1
26	88	1
70	71	2
105	105	1
23	78	1
33	34	4
70	72	1
31	32	1
40	45	2
77	77	3
51	99	3
29	30	1
31	33	1
29	29	2
58	72	2
41	44	2
21	23	1
30	30	5
39	86	1
53	53	3
66	103	1
92	93	1
20	24	1
48	92	2
93	93	3
82	85	1
82	82	2
27	27	2
34	87	1
72	73	1
34	34	2
58	98	2
82	84	3
24	47	1
43	44	1
68	72	2
68	69	3
37	42	1
39	84	1
94	94	3
52	93	1
86	86	1
80	81	2
61	67	2
26	98	2
20	21	1
79	80	1
75	75	1
20	49	1
32	32	1
84	96	1
104	104	1
76	104	1
72	72	1
91	99	1
96	99	1
47	48	1
25	25	1
60	71	1
42	42	1
89	90	1
