60	61	4
6	6	6
9	11	7
48	48	2
11	13	2
23	31	4
62	68	1
33	33	2
4	5	3
69	76	2
23	23	2
81	83	3
26	26	4
62	63	1
25	53	4
67	74	4
24	57	1
4	7	4
17	25	2
2	3	3
68	81	2
83	83	7
70	71	4
77	77	6
78	79	1
51	57	2
53	58	3
71	71	5
49	62	1
75	75	5
78	81	7
10	10	6
14	23	4
66	67	4
25	25	3
0	2	3
6	46	2
71	74	3
54	81	1
67	67	2
69	72	1
54	70	2
8	8	5
10	12	4
48	49	2
0	0	5
13	13	4
19	27	2
85	85	7
66	75	4
73	75	8
63	68	2
1	9	11
3	5	2
76	81	1
1	80	1
66	68	4
5	31	2
25	46	1
66	66	4
8	16	2
58	83	1
7	26	2
52	57	2
81	84	4
2	13	2
53	53	3
0	4	2
34	57	3
29	30	3
16	19	2
86	87	5
82	82	4
28	54	2
49	53	1
5	32	3
1	51	2
48	58	5
5	7	1
17	20	2
61	80	1
1	1	2
80	80	8
48	50	1
49	75	1
20	20	11
58	79	2
51	56	3
83	84	4
57	61	3
2	2	5
70	70	4
9	15	3
9	10	1
56	66	1
67	71	3
22	27	3
68	69	3
59	59	3
58	59	1
80	83	2
4	4	3
63	63	6
59	60	2
52	71	2
53	54	1
82	87	2
51	79	1
54	62	2
84	84	1
51	78	1
64	84	2
78	86	2
71	73	3
57	82	2
69	88	1
52	55	1
10	11	5
79	89	2
74	74	2
87	87	2
85	89	1
28	28	3
3	6	3
62	62	2
9	19	3
3	3	1
0	8	1
26	31	1
22	22	1
19	19	4
47	53	4
49	67	2
0	1	5
17	24	1
56	78	5
64	64	4
63	65	1
65	67	1
67	77	1
75	81	2
61	61	2
78	87	3
79	79	7
56	62	5
51	53	1
29	29	2
8	12	1
1	12	4
47	52	1
8	10	2
30	30	2
50	50	2
50	61	3
47	56	2
56	83	1
3	4	2
57	83	1
24	25	2
71	72	1
18	22	2
7	10	1
64	66	1
88	90	1
15	27	2
4	25	3
63	78	3
70	74	2
55	57	2
17	19	1
79	80	2
15	15	4
48	77	1
80	84	3
82	83	2
28	30	1
6	13	1
61	86	1
77	89	2
54	59	2
23	28	1
78	78	2
76	79	1
77	78	3
7	8	2
55	66	2
25	48	1
77	80	1
49	51	4
46	49	1
5	13	3
50	79	1
89	89	3
74	75	3
5	5	1
12	19	1
6	12	1
57	62	1
1	11	2
74	81	1
74	77	2
66	73	2
54	61	1
76	78	1
30	46	3
60	86	3
69	70	1
74	76	1
67	69	1
75	76	1
85	86	2
6	53	1
24	24	1
23	49	2
53	84	3
49	55	1
68	68	1
88	89	1
6	27	1
1	22	2
51	54	1
46	54	1
66	74	1
86	86	2
8	25	1
57	78	4
81	89	2
52	52	1
1	7	1
80	88	1
7	19	2
13	20	1
57	60	1
57	79	1
77	83	1
52	53	1
24	52	1
34	34	1
17	26	1
72	89	1
50	55	1
28	29	2
61	62	1
47	72	1
65	66	3
21	24	1
4	11	1
7	15	1
84	85	1
11	12	1
14	14	1
