10	10	5
98	98	15
80	80	12
19	20	4
5	6	4
116	116	11
101	102	10
6	6	12
54	54	15
67	67	2
36	71	3
53	55	1
94	97	1
88	88	14
120	127	4
26	27	4
24	24	15
109	109	15
128	128	6
50	50	13
101	101	15
79	79	14
124	125	4
0	1	5
10	47	4
133	134	3
62	62	1
104	104	7
35	35	13
27	28	8
64	65	2
18	19	6
34	34	11
23	26	2
115	115	12
14	14	10
106	118	5
106	106	9
19	19	8
56	56	2
93	95	3
90	90	35
57	57	4
77	77	10
85	85	9
28	28	4
112	112	12
98	99	6
61	85	3
110	111	3
16	16	12
56	92	3
16	18	5
108	108	11
2	36	1
2	2	3
65	65	8
22	23	8
19	30	6
134	134	8
106	114	1
20	20	15
5	5	23
91	92	3
111	122	1
61	62	6
111	118	1
122	122	6
102	102	14
96	96	5
17	18	3
76	76	1
118	118	3
87	87	6
93	93	7
25	25	3
28	65	3
81	81	12
68	69	2
45	45	3
13	13	7
104	105	6
23	24	4
3	3	1
61	61	6
111	111	12
123	123	14
131	131	9
105	105	11
65	68	2
55	55	6
11	11	8
59	59	7
124	124	8
94	94	12
84	85	4
97	99	2
49	130	7
31	33	3
69	69	8
129	130	3
33	33	17
80	120	5
30	32	2
70	71	3
18	18	15
1	1	7
64	64	4
36	36	2
7	11	5
47	47	2
19	31	1
21	76	3
78	78	4
2	55	2
126	126	10
50	132	2
29	29	12
129	129	8
60	79	2
19	22	2
82	85	5
114	114	7
92	92	10
107	107	3
132	133	4
1	11	4
91	91	4
58	58	6
97	97	7
3	6	1
127	128	2
111	121	2
1	4	2
119	119	6
89	114	4
106	107	8
62	63	2
84	84	5
83	83	7
82	84	1
90	101	3
31	34	5
2	39	1
7	8	2
121	121	20
82	83	3
27	27	4
94	95	4
22	22	11
17	29	2
7	7	9
114	122	2
32	34	1
23	23	12
0	13	2
105	114	4
60	60	5
68	68	6
49	50	4
73	73	1
110	110	2
82	82	14
4	83	7
21	22	2
72	72	1
134	135	2
31	32	4
15	16	9
120	120	8
9	9	2
42	82	4
95	95	13
5	87	2
53	81	2
99	99	4
63	63	5
44	45	2
133	135	5
66	66	3
74	74	4
20	91	3
50	88	2
106	129	3
5	33	7
2	26	4
120	121	1
113	118	2
56	59	2
20	25	2
89	89	6
99	102	4
10	11	1
54	57	4
103	104	2
114	115	1
105	107	1
26	28	1
70	70	7
15	15	4
14	15	5
83	132	1
37	37	4
93	94	9
115	119	1
120	126	1
77	78	4
15	19	2
59	98	2
32	32	3
86	88	3
105	118	3
122	123	4
108	109	3
86	86	2
56	79	2
80	121	1
113	113	12
54	55	4
58	59	2
79	135	3
33	34	7
14	27	1
117	117	2
97	105	2
117	119	5
21	21	10
116	117	4
111	112	2
0	29	1
109	110	6
100	100	3
52	52	8
133	133	6
86	87	3
57	92	2
100	104	2
130	132	2
38	43	2
111	114	2
59	60	2
6	7	4
42	42	1
81	97	1
8	8	6
68	75	1
135	135	2
45	55	2
61	68	2
110	122	3
16	17	6
17	17	6
59	80	1
31	31	4
46	49	1
90	91	7
102	103	3
25	26	3
109	122	1
30	30	5
44	52	1
52	53	1
120	122	5
43	82	1
44	44	1
28	32	1
92	93	2
53	54	1
76	80	3
3	90	1
38	38	2
53	85	2
57	89	2
104	119	2
57	58	3
125	126	2
125	125	4
79	80	3
58	92	2
43	45	1
0	0	5
109	111	3
62	81	2
130	130	6
99	127	3
53	53	2
93	98	2
59	100	1
11	12	2
90	92	3
0	92	1
44	83	4
18	20	2
32	33	3
97	116	4
71	71	5
108	110	2
127	127	1
12	12	4
78	79	1
8	48	2
11	34	2
11	13	2
62	102	2
43	44	1
1	26	1
43	43	5
34	35	3
77	122	1
20	30	1
69	70	1
111	115	1
97	102	3
24	25	1
0	11	1
8	9	1
83	85	2
6	72	2
105	127	1
46	46	1
108	113	2
51	93	1
80	81	1
4	4	1
73	103	1
130	131	2
53	84	1
30	31	1
15	25	1
65	83	1
87	90	1
97	98	3
108	119	2
28	29	3
17	21	1
27	29	1
3	91	1
26	26	1
56	58	1
115	117	1
87	88	1
44	102	1
54	56	1
106	132	1
101	106	1
7	10	1
96	99	1
12	13	1
24	28	1
119	120	2
118	119	1
15	17	1
101	103	1
21	23	1
65	82	1
102	105	1
99	100	2
128	129	1
72	73	1
60	80	1
115	121	1
101	129	1
112	113	1
29	31	1
29	30	1
24	26	1
117	121	1
3	4	1
29	86	1
55	72	1
28	75	1
104	131	1
111	116	1
