59	59	3
69	69	18
53	53	12
54	54	7
14	15	6
65	65	9
40	43	1
122	122	14
92	92	9
116	116	3
70	71	7
34	34	4
96	101	6
39	39	6
106	106	14
91	91	15
101	128	1
65	67	4
31	52	1
21	23	3
97	97	9
72	72	13
44	44	5
15	80	1
7	7	8
14	14	8
73	74	2
131	131	6
38	38	5
61	61	1
88	88	3
32	124	2
41	42	6
93	94	8
63	63	13
108	128	2
17	43	5
94	95	1
51	51	5
83	83	3
9	12	4
106	107	6
62	62	7
12	54	4
29	29	8
87	87	2
18	18	7
38	94	2
103	103	12
120	120	11
23	23	2
72	128	2
21	27	2
128	128	3
31	31	10
73	73	10
63	103	2
58	62	1
110	110	10
60	60	7
16	19	1
127	127	11
129	129	13
2	91	1
68	69	3
19	20	7
66	66	8
86	86	7
29	30	4
89	89	11
82	92	1
61	102	5
10	12	2
132	133	3
112	113	5
9	9	13
4	53	2
5	89	4
92	118	1
24	49	3
111	111	20
99	99	7
90	90	10
112	112	20
43	44	5
102	130	6
95	95	7
77	99	3
22	22	12
15	81	3
10	17	3
76	76	12
27	27	11
22	23	3
6	7	1
108	108	14
60	97	1
70	70	5
29	32	2
126	128	2
49	49	10
1	2	4
77	78	1
48	48	14
66	69	5
55	69	5
68	68	3
13	13	13
56	64	5
40	77	3
119	119	13
55	132	1
15	15	12
70	75	4
27	46	1
98	114	3
20	20	2
46	46	10
80	80	12
115	115	2
75	76	3
83	84	4
40	41	7
38	39	2
105	105	8
73	83	2
45	46	4
126	127	8
106	112	3
126	126	12
74	100	2
49	51	1
58	58	5
121	121	9
16	26	2
71	71	12
114	115	4
19	19	10
25	25	7
16	80	1
1	76	5
38	76	3
45	45	4
1	1	17
2	2	16
79	80	4
124	124	9
105	108	2
98	99	2
129	130	6
123	123	6
105	106	4
95	96	2
92	93	2
123	125	1
118	129	2
119	120	3
84	85	3
22	45	2
91	94	3
130	130	8
77	77	11
3	4	5
50	50	12
107	107	9
82	93	1
60	61	4
97	117	2
8	59	1
42	81	1
75	100	5
8	8	10
11	16	7
72	74	1
117	127	2
78	78	4
30	73	2
7	8	5
50	51	6
4	4	5
107	119	5
107	127	2
65	66	5
28	30	2
46	47	5
18	85	1
28	111	9
101	101	5
88	93	2
100	115	3
84	84	10
32	41	1
117	117	8
39	76	4
74	75	4
94	94	9
32	32	11
109	109	10
70	80	2
110	120	1
20	58	2
71	72	4
18	86	3
56	56	11
98	116	1
57	57	6
85	85	5
64	104	3
67	114	2
81	82	2
43	43	11
31	131	1
12	13	4
127	128	3
76	77	1
65	102	1
22	46	4
6	76	5
96	98	1
6	58	1
55	66	2
5	6	2
31	120	2
125	125	2
118	118	16
2	3	5
9	53	1
128	129	9
97	131	2
0	0	8
42	42	3
67	68	1
49	68	2
21	21	4
16	16	11
49	120	3
33	120	3
97	98	5
28	28	9
114	121	1
109	114	4
93	127	1
7	11	2
47	47	5
105	112	4
88	91	1
53	123	1
61	130	3
24	24	3
2	5	3
75	75	10
114	114	9
57	58	2
100	116	1
81	81	12
46	111	1
3	3	7
25	72	2
41	41	3
64	64	10
54	77	1
64	67	1
64	96	1
69	130	3
71	128	1
12	46	4
104	104	6
21	22	4
102	102	10
1	96	2
11	11	4
32	120	2
92	96	3
10	10	2
4	57	1
57	69	2
17	17	3
88	89	4
26	125	1
73	81	4
79	79	7
5	5	6
51	121	2
58	104	1
118	119	1
106	108	2
39	77	1
98	98	4
82	82	3
55	133	1
91	93	1
67	67	1
24	113	1
6	6	7
127	129	2
0	1	2
61	131	3
128	131	1
79	110	1
131	132	1
0	95	2
43	78	1
81	132	1
72	133	2
17	18	1
60	130	2
82	83	1
11	12	3
65	104	2
31	129	1
52	52	7
75	80	4
93	93	8
18	126	1
6	69	3
1	39	1
62	132	1
30	53	4
26	27	2
107	120	2
30	30	4
74	81	3
117	119	1
12	12	7
132	132	1
25	93	3
10	11	3
52	53	1
76	92	1
13	15	1
113	116	1
63	70	1
96	96	4
1	3	1
31	32	1
9	11	2
2	52	1
44	47	3
113	113	2
16	27	1
24	133	1
49	133	1
26	33	1
81	92	1
56	57	1
40	40	3
49	50	1
23	26	1
102	103	1
55	55	2
38	127	1
15	86	4
34	108	1
23	24	1
61	132	1
63	64	1
55	68	5
108	109	1
103	111	1
57	67	1
106	118	1
118	127	2
74	99	1
32	130	2
41	43	1
71	76	2
20	31	1
33	33	2
26	26	2
72	81	1
9	10	1
27	29	1
18	81	1
72	77	1
42	43	1
44	45	1
51	53	2
62	81	1
86	87	1
103	119	2
64	106	1
40	42	1
0	52	1
17	44	1
71	80	1
128	130	1
0	27	1
74	74	1
45	47	2
25	102	1
101	125	1
133	133	1
13	44	1
3	57	1
45	93	1
93	119	1
83	85	1
4	5	1
