97	97	4
217	218	2
39	62	1
219	222	2
69	69	7
8	8	11
242	242	3
0	59	3
136	138	3
15	15	9
84	84	7
153	161	1
192	192	5
214	214	8
200	200	7
125	125	3
185	185	4
45	46	2
177	177	1
7	7	12
81	81	8
226	228	1
107	108	3
156	157	2
70	70	3
82	82	1
73	73	8
151	154	4
148	204	2
44	45	2
225	227	1
4	6	3
209	210	2
115	115	4
47	47	1
117	117	6
70	112	2
231	231	2
179	180	3
20	21	1
30	192	2
37	37	2
188	227	3
103	153	4
29	29	4
71	113	5
74	74	4
239	240	3
172	172	2
135	135	6
217	217	3
179	179	4
116	117	1
18	18	7
165	203	2
224	225	2
188	189	3
60	60	5
219	220	4
26	26	4
52	52	4
165	165	3
190	190	6
121	157	5
13	13	2
88	88	3
31	31	2
45	71	3
51	51	4
30	30	5
38	38	8
96	96	4
49	49	5
238	238	7
196	198	1
106	106	2
48	48	7
40	40	7
198	198	2
95	112	2
160	161	2
131	131	2
234	234	6
73	74	2
224	227	2
181	189	1
23	23	3
236	236	2
146	146	4
203	203	2
122	136	2
207	207	12
80	80	2
222	222	1
101	102	3
162	163	1
180	183	2
44	44	9
146	148	4
99	99	5
21	31	2
3	5	4
169	169	5
36	36	3
55	55	5
64	202	2
40	128	7
176	176	7
212	228	2
59	59	1
157	157	3
180	207	1
51	52	1
219	219	5
88	135	3
43	43	2
21	21	3
170	171	3
170	170	2
221	222	2
56	56	2
171	171	8
187	187	3
201	201	9
110	111	2
140	141	4
24	24	2
2	2	3
149	150	2
110	110	2
16	17	6
218	218	7
180	180	4
145	151	3
152	152	4
71	71	6
216	217	2
27	27	2
161	204	2
153	155	1
65	202	2
64	70	5
153	153	5
178	179	1
161	161	5
11	11	3
186	186	6
66	66	2
101	121	1
52	53	2
40	62	3
16	16	5
48	49	1
124	125	3
240	240	5
3	36	4
36	60	2
139	141	1
226	227	2
147	148	2
50	50	2
132	134	2
189	190	1
141	141	1
208	235	2
39	40	3
39	39	2
72	81	2
112	112	2
121	121	3
154	154	1
180	232	1
5	8	4
162	162	2
4	5	4
228	228	4
221	221	2
166	166	2
35	35	9
240	241	5
25	26	2
185	208	3
119	119	1
144	146	3
123	124	1
121	122	3
32	33	1
153	159	2
100	100	3
239	239	3
85	85	3
86	86	2
230	230	2
241	242	3
180	186	2
163	163	3
181	181	1
45	45	1
204	206	1
77	77	2
241	241	1
67	67	2
101	101	8
68	69	3
9	9	2
133	134	3
189	189	3
3	3	2
151	151	1
182	190	1
67	68	1
62	62	5
117	157	2
102	153	1
204	205	1
41	43	2
206	207	1
143	159	2
143	165	1
225	225	1
126	127	1
46	46	2
188	190	3
124	124	2
164	200	1
216	223	3
211	211	1
147	147	2
70	172	1
39	70	1
65	65	2
232	233	1
209	235	1
45	85	2
160	160	3
199	200	1
25	30	1
11	36	1
123	157	1
158	158	2
182	231	1
41	44	1
234	235	2
126	126	2
135	136	1
204	204	4
153	154	1
18	19	1
86	113	1
194	194	1
133	133	3
27	202	1
78	78	1
19	19	2
188	188	2
181	182	2
25	25	2
215	215	1
27	28	1
33	34	1
42	42	1
138	138	1
208	208	3
25	29	1
196	196	2
142	142	1
205	205	1
139	169	1
123	123	2
38	74	1
212	214	2
5	6	1
168	170	2
237	237	1
97	99	1
223	223	3
230	232	1
9	10	1
49	50	1
162	164	1
155	157	1
164	165	1
120	121	3
227	227	1
24	26	1
64	64	1
191	196	1
114	115	1
78	79	1
61	61	1
210	210	2
103	103	2
109	128	2
235	236	1
178	202	1
184	184	2
122	122	2
228	229	1
239	241	1
136	136	2
102	155	2
61	170	1
149	149	1
112	113	1
202	202	1
10	36	1
139	166	1
36	58	2
57	57	2
38	55	1
32	32	3
10	10	1
3	16	1
212	227	1
55	75	2
42	55	1
220	222	1
4	15	1
74	75	1
3	9	1
59	142	1
175	175	1
164	206	1
174	207	1
128	128	2
72	72	1
115	134	1
206	206	1
152	153	1
156	156	2
144	165	1
137	137	1
105	105	1
23	24	1
161	162	1
224	224	1
6	7	1
145	145	1
209	209	1
22	194	2
37	38	1
183	184	1
140	140	1
