44	44	12
187	187	4
160	209	2
246	246	12
225	243	1
107	107	5
61	62	10
230	231	4
213	217	2
194	194	10
235	244	1
25	26	7
49	69	5
186	186	3
109	109	6
64	64	7
95	96	6
66	66	6
23	224	3
211	211	6
15	16	3
60	60	2
94	94	5
184	186	4
86	86	14
111	111	7
181	182	3
1	1	12
162	162	5
82	83	2
85	85	11
82	82	12
146	153	4
73	74	1
243	244	6
147	152	2
220	229	2
247	247	2
197	197	15
78	92	1
217	217	13
19	43	2
42	42	8
95	95	7
246	247	3
88	88	8
37	37	5
225	225	7
17	18	2
63	63	7
210	211	1
184	197	6
164	164	5
21	29	2
238	238	5
167	167	11
218	218	5
151	151	5
188	188	4
155	155	8
113	114	6
68	68	7
201	206	6
198	199	10
226	227	2
64	65	8
60	61	1
7	11	3
220	220	5
49	49	4
87	88	7
207	207	8
35	35	16
105	105	7
212	212	3
5	66	2
156	157	3
179	179	13
78	78	5
81	81	3
21	21	6
25	25	8
52	52	15
239	239	4
52	71	5
34	34	5
221	233	1
180	180	8
57	57	7
215	217	3
19	19	11
237	237	6
67	67	8
219	219	5
77	78	3
74	75	9
25	28	2
236	236	6
51	62	1
71	71	10
104	104	2
91	91	8
61	61	5
56	56	3
92	92	8
199	200	4
223	223	10
240	240	6
201	201	10
76	76	10
193	193	6
69	69	8
198	198	7
157	158	4
84	85	10
29	29	8
182	182	20
48	50	2
43	43	12
7	7	4
171	171	7
215	215	14
216	216	6
55	55	3
80	80	5
79	79	3
30	31	4
161	161	4
183	183	6
216	233	4
182	183	2
189	190	1
242	242	1
47	47	10
94	97	3
196	196	3
85	92	3
191	192	2
11	11	12
85	91	4
3	3	5
229	229	6
220	232	2
93	93	7
168	168	11
26	26	5
159	211	4
158	213	4
12	12	15
41	41	14
201	202	7
40	40	9
173	210	4
153	153	5
110	110	9
112	112	9
52	53	1
228	228	6
167	168	2
157	218	3
203	204	1
234	234	4
235	235	3
200	200	9
8	8	13
159	210	3
20	21	6
219	220	1
45	45	5
6	8	3
101	101	13
38	38	4
23	24	1
161	207	2
64	71	2
62	62	5
89	89	9
117	117	10
23	23	6
108	108	5
170	170	1
113	113	5
214	220	1
159	159	4
154	155	6
72	72	2
192	193	4
109	110	3
150	150	7
44	45	4
213	214	2
77	77	11
9	9	3
6	184	1
3	246	2
208	209	9
213	213	11
17	17	10
62	68	3
94	107	1
216	217	3
228	229	5
243	246	5
96	97	5
90	90	4
118	118	6
182	184	1
53	53	5
174	174	2
15	15	5
114	114	5
211	212	1
110	111	6
17	64	1
156	213	3
192	235	1
168	169	2
172	210	3
161	208	2
178	179	3
238	239	8
199	199	9
85	116	4
224	224	10
200	201	5
79	82	2
203	203	8
208	208	10
32	32	4
163	163	6
73	73	5
30	30	2
225	242	2
160	161	3
185	185	1
158	158	6
17	37	2
32	33	1
5	5	3
162	168	2
180	181	3
72	108	2
193	195	2
46	83	1
12	15	4
222	223	2
24	24	3
47	48	2
8	53	2
36	36	5
157	181	1
189	219	1
28	28	7
49	50	1
229	230	5
99	99	2
94	108	1
248	248	7
205	205	4
56	57	2
41	42	3
48	48	1
237	239	4
226	244	3
190	219	5
93	102	2
18	18	8
204	204	5
157	157	13
163	164	2
224	244	1
100	100	4
178	178	4
147	147	2
27	27	7
174	175	4
145	145	5
230	230	10
119	120	4
144	145	2
227	228	3
5	67	3
245	246	1
19	20	2
191	234	5
52	229	5
172	172	8
152	152	1
97	97	4
46	46	3
89	118	2
204	205	2
45	46	1
45	115	2
20	20	2
9	64	2
101	117	1
184	184	5
31	31	6
97	98	3
183	184	3
54	55	3
92	107	4
226	226	7
2	3	6
74	74	1
116	116	3
159	173	2
39	39	3
195	196	5
160	160	4
70	71	7
209	209	11
205	206	2
51	57	2
221	222	2
177	177	2
178	180	3
190	191	1
50	50	4
98	98	1
102	102	1
202	202	6
244	244	4
108	109	1
192	192	2
90	113	1
154	154	6
153	154	2
231	240	1
114	116	1
50	51	2
19	112	2
45	114	3
48	49	1
16	16	2
103	103	4
65	66	1
9	10	2
54	54	4
46	61	2
20	43	2
210	210	2
120	120	3
166	166	3
147	153	2
232	233	1
107	108	1
233	233	1
194	238	1
33	33	10
115	116	1
94	95	3
174	177	1
156	156	2
209	212	1
160	208	1
170	171	2
84	84	4
4	14	2
165	166	2
1	7	2
163	199	2
62	70	1
28	29	1
6	11	1
22	23	2
72	73	4
58	58	3
245	245	1
169	169	2
166	168	7
44	114	2
2	243	2
65	65	4
165	165	1
59	74	1
43	44	3
111	249	1
3	5	3
231	233	2
42	43	4
235	236	1
182	212	2
194	195	1
234	235	2
192	238	1
5	14	1
88	89	1
4	4	7
22	22	3
146	146	2
72	78	2
215	231	1
187	190	1
4	5	2
89	90	3
175	176	1
176	176	1
78	79	1
7	9	1
33	34	1
24	25	2
106	107	2
185	186	2
2	2	4
7	224	1
8	16	6
51	51	3
182	211	2
83	83	4
95	105	1
236	238	1
52	55	1
42	151	1
23	39	2
112	113	1
184	198	2
57	222	1
101	102	1
6	7	1
48	224	2
47	49	1
47	67	1
67	68	1
51	108	1
63	70	4
231	234	2
166	167	1
179	180	1
154	215	1
158	181	1
99	100	1
48	69	3
6	6	1
92	106	1
162	163	3
57	58	1
160	211	1
51	75	1
174	176	2
59	59	2
185	189	1
92	93	2
237	238	2
206	206	1
150	151	2
236	237	2
115	115	1
241	241	2
36	180	1
68	70	1
224	225	1
59	60	2
10	10	1
175	179	1
39	40	1
243	243	1
215	216	1
100	101	1
55	58	1
14	14	1
51	52	1
