69	69	17
83	83	12
82	82	7
45	45	2
25	25	12
96	96	12
91	91	8
28	28	5
73	74	7
50	50	11
49	50	6
73	73	11
84	84	9
89	89	14
71	72	9
84	92	3
62	62	4
55	55	5
48	49	12
40	90	1
76	76	9
56	57	5
68	69	5
54	54	4
43	43	10
62	78	1
79	79	9
97	97	3
57	58	3
64	64	7
22	24	1
39	39	6
94	94	6
60	60	8
29	29	1
55	56	1
75	75	19
42	42	19
101	101	13
80	80	12
67	67	17
71	71	15
75	76	5
52	52	9
43	90	1
20	20	2
76	77	3
77	77	12
72	72	12
84	87	2
39	40	5
63	64	6
92	93	2
85	85	2
99	99	12
66	77	3
40	40	13
30	30	2
70	70	21
86	86	11
50	62	3
61	61	9
63	63	8
66	67	2
50	51	2
40	41	1
31	31	9
51	51	10
38	38	13
36	36	9
47	47	3
64	91	3
95	99	1
32	32	1
23	26	3
74	75	2
58	60	4
81	81	6
74	74	16
59	59	18
20	22	3
82	83	2
85	89	1
92	92	3
88	88	6
44	45	6
37	37	13
41	41	2
86	87	1
88	89	2
93	93	7
100	100	6
48	48	10
33	33	9
94	98	2
59	60	4
56	56	6
69	73	4
95	95	4
65	68	3
59	62	6
65	65	8
44	44	4
26	26	2
63	79	5
61	100	4
25	26	9
61	78	1
99	101	1
63	91	1
90	90	3
98	99	3
61	79	8
35	37	3
22	28	1
83	85	2
34	34	6
87	87	5
53	54	1
53	53	3
72	73	1
46	47	3
87	96	2
90	91	4
56	60	1
25	86	1
85	86	4
66	66	7
26	87	1
24	24	2
68	70	2
95	98	2
65	66	2
101	102	2
69	70	3
35	38	4
74	78	2
57	57	9
64	65	3
73	79	2
40	52	3
78	78	11
87	88	4
97	98	1
55	79	1
86	88	2
41	42	3
32	49	2
38	52	1
67	81	4
78	79	2
81	84	4
63	68	1
72	76	3
98	98	2
61	101	5
71	90	1
22	25	1
88	96	1
49	49	3
32	41	2
20	27	1
62	63	2
94	95	1
94	97	1
34	36	1
56	79	2
84	91	3
99	100	1
34	35	1
29	30	1
33	49	1
66	73	1
46	46	3
96	97	1
95	101	1
64	90	1
60	61	4
78	83	1
20	98	1
23	23	1
51	52	2
22	100	1
77	78	2
68	84	2
65	76	1
83	84	1
31	32	1
51	54	2
62	80	1
83	96	1
52	101	1
96	102	1
54	78	2
35	35	1
68	68	2
63	78	1
62	69	1
53	56	1
52	81	1
