168	168	7
75	84	4
165	165	2
85	85	6
82	82	6
154	154	9
120	120	5
90	90	11
167	168	3
108	108	15
62	63	1
3	56	2
1	2	4
144	148	10
126	126	2
43	43	19
128	162	7
77	78	3
78	78	7
134	134	3
53	54	3
47	47	3
79	81	2
72	72	2
99	99	5
128	128	4
170	170	11
119	119	12
161	161	2
148	148	4
107	107	11
152	152	4
114	114	6
28	28	4
45	45	5
10	14	1
42	44	4
38	39	5
64	64	15
131	131	1
0	0	4
41	42	14
65	65	5
25	25	2
33	33	8
20	20	5
156	156	5
39	39	1
105	105	3
4	4	3
36	36	9
16	16	5
140	140	8
115	115	3
102	105	2
136	136	6
67	67	5
100	100	2
42	42	11
105	107	3
153	166	5
62	62	6
7	105	5
58	62	1
10	10	4
162	162	1
135	135	5
118	118	2
17	20	3
94	96	1
159	159	7
36	155	7
46	46	3
1	41	1
137	138	4
80	106	7
20	23	3
24	126	1
35	35	7
37	37	10
129	129	12
98	98	4
18	18	7
150	150	2
113	116	1
41	99	2
65	66	6
83	83	5
122	128	3
38	73	3
72	75	1
88	88	7
67	68	5
163	163	11
49	51	1
154	165	5
127	127	3
112	115	2
14	15	1
74	82	2
147	147	12
23	23	3
149	149	2
1	5	1
139	139	5
122	122	3
6	7	3
145	145	5
166	166	4
138	138	7
7	7	3
54	55	1
114	115	5
35	36	2
1	129	1
125	125	2
18	20	4
52	74	2
56	56	1
22	22	4
169	169	3
151	151	11
95	95	6
136	162	5
17	17	3
68	69	5
140	160	4
62	71	1
3	170	2
75	133	1
47	49	2
87	88	4
160	164	1
95	98	2
8	9	2
157	157	5
130	163	1
101	101	5
57	58	1
44	45	1
66	66	3
97	98	3
108	109	1
8	8	1
169	170	1
73	73	1
101	102	1
24	24	2
77	77	5
93	96	3
122	124	3
52	52	9
49	49	7
1	1	6
111	167	1
130	131	6
132	132	1
125	143	2
57	71	2
68	144	1
109	153	2
26	26	3
111	111	2
71	154	2
109	110	2
62	154	2
113	113	2
74	74	1
51	51	2
12	12	3
111	112	4
5	24	2
138	139	3
137	137	5
87	87	3
85	151	3
146	146	5
153	153	5
90	93	1
69	158	1
50	50	6
141	142	3
5	160	1
110	110	6
89	89	3
100	101	1
104	104	3
13	13	3
113	161	2
160	166	2
34	34	7
23	165	2
95	96	2
143	143	3
89	90	1
92	96	6
91	91	4
102	102	2
15	16	1
148	149	3
9	51	1
138	160	1
18	165	1
69	69	3
112	112	4
125	136	4
34	35	2
63	64	1
117	117	1
167	167	1
64	65	2
17	24	1
33	158	2
28	39	2
10	11	2
0	39	1
0	1	2
2	2	1
142	142	2
3	43	2
51	56	2
55	55	1
75	75	2
78	79	1
11	88	1
63	100	3
70	155	2
11	11	1
131	165	2
137	150	1
158	158	3
53	53	2
14	14	2
110	161	2
62	64	1
2	3	4
120	124	1
71	71	2
21	21	1
122	163	2
93	94	1
8	11	1
52	57	2
40	41	1
17	19	1
103	103	1
65	71	1
52	53	1
151	154	1
44	44	2
78	90	1
110	111	2
39	98	1
39	41	1
94	95	3
90	97	1
105	120	2
110	138	2
130	143	1
9	10	2
133	133	1
63	74	1
42	43	3
39	72	1
132	133	1
125	135	1
121	121	1
3	11	1
19	19	1
6	8	1
159	160	1
27	28	1
48	51	1
87	89	1
5	6	1
1	39	1
41	41	2
113	115	1
13	18	1
27	27	1
11	12	1
145	146	1
