148	149	2
57	57	5
182	182	8
13	13	7
43	65	2
43	43	4
187	188	7
111	111	3
31	31	5
89	99	2
48	48	4
79	127	2
21	22	5
96	98	1
19	19	3
157	157	7
140	178	1
181	182	6
107	107	8
143	154	2
56	56	2
188	188	6
173	190	4
80	83	3
163	169	2
124	141	1
134	134	6
67	67	8
155	155	4
177	177	6
66	66	2
127	127	7
140	179	4
112	143	4
187	187	4
159	159	10
154	160	3
30	42	4
120	121	1
169	185	3
152	174	1
34	61	4
45	45	6
75	75	3
46	46	5
96	96	3
66	67	1
28	28	2
131	136	4
26	173	2
11	44	1
27	27	2
176	190	1
94	94	1
84	84	3
37	39	1
53	77	1
99	147	3
141	153	2
99	99	4
151	182	2
152	152	4
127	128	3
63	68	1
73	73	3
76	118	2
147	148	3
10	45	1
22	22	4
30	121	1
95	109	4
92	92	5
99	110	2
68	68	2
77	77	4
71	71	7
178	178	10
95	96	3
93	93	1
163	163	2
84	178	1
15	15	9
17	76	2
59	100	7
52	126	3
171	172	5
58	58	9
131	132	2
139	166	2
72	74	3
30	119	5
29	39	1
67	115	1
100	105	2
110	110	5
119	119	3
25	25	2
2	2	5
105	105	3
122	123	2
182	186	2
76	76	3
20	20	2
5	37	1
53	126	2
85	176	1
108	133	2
26	26	3
34	34	5
86	88	5
130	130	5
136	136	1
20	148	3
158	158	2
91	108	6
184	184	15
19	63	2
11	12	5
186	186	3
6	7	2
112	113	3
40	67	3
16	16	7
54	78	3
0	38	5
162	181	2
121	121	2
1	38	5
151	151	5
58	118	2
99	117	1
144	145	3
23	23	3
39	42	1
128	128	1
95	95	2
85	85	1
124	142	2
105	133	2
10	10	6
130	133	5
103	146	3
165	165	2
65	65	1
130	131	3
38	38	4
62	68	1
161	161	2
142	142	5
97	130	3
9	61	2
175	175	1
16	76	2
90	106	1
45	47	2
106	136	3
183	185	2
139	139	2
90	90	3
65	149	4
120	120	2
16	48	1
35	35	2
75	91	1
62	62	2
113	113	3
83	125	1
71	75	3
11	45	1
140	140	1
19	62	2
70	76	2
130	139	2
105	108	2
33	33	2
103	103	2
106	106	3
166	166	1
157	165	1
44	44	3
90	102	2
22	63	3
135	136	3
154	155	2
121	122	1
36	37	1
71	90	1
113	177	2
137	137	2
157	166	1
141	142	2
103	110	2
143	147	1
57	156	2
87	143	2
12	12	4
184	185	3
184	186	1
109	110	1
6	6	2
123	124	6
62	90	1
162	164	3
53	128	1
1	2	3
65	88	2
130	132	1
1	1	4
158	160	3
40	65	1
4	37	2
188	189	2
145	145	2
53	53	2
146	147	2
177	178	1
133	135	2
71	106	2
53	129	1
72	73	2
56	123	2
183	183	1
179	180	1
33	37	1
42	42	2
10	65	1
102	139	2
10	44	3
64	64	1
17	17	3
90	104	1
90	119	1
29	29	4
104	104	2
176	176	1
63	90	1
33	61	2
70	70	1
117	126	1
83	84	1
16	61	1
27	29	2
123	123	3
47	72	1
59	59	1
96	133	2
6	13	1
125	156	1
154	178	1
13	14	2
144	144	2
113	143	1
31	39	2
72	72	1
111	147	1
133	133	2
126	156	1
3	5	1
170	170	1
157	158	2
71	116	3
48	74	1
27	123	1
89	156	2
7	8	1
154	157	1
135	135	1
125	127	1
138	139	1
21	31	1
8	41	1
10	66	1
5	5	1
111	156	1
150	151	1
25	30	1
148	168	1
24	42	1
105	107	1
161	188	1
181	181	3
86	87	3
81	81	5
83	89	1
26	175	1
140	153	1
8	8	1
22	23	2
32	32	1
160	163	1
21	25	1
32	66	1
175	176	1
135	137	1
140	141	2
92	118	1
70	74	1
158	159	2
88	178	1
129	129	1
23	27	1
68	104	1
114	114	1
89	89	1
37	38	1
167	167	1
190	190	1
109	109	2
74	74	1
160	165	1
25	175	1
88	88	1
172	174	1
78	117	1
122	122	1
100	110	1
85	124	1
24	79	1
47	74	1
37	37	3
140	152	1
88	89	1
186	187	1
58	70	1
78	81	1
0	120	2
139	162	2
179	179	1
115	115	1
101	101	1
