23	23	18
70	70	2
3	4	7
30	32	3
119	119	4
113	113	20
5	5	11
11	15	2
3	3	8
63	64	1
99	100	9
79	80	10
129	129	7
71	75	2
49	50	2
15	15	2
64	64	5
63	63	4
124	124	10
127	127	4
62	92	1
12	12	5
128	128	10
84	84	2
62	91	5
2	2	10
33	33	3
81	81	3
40	41	5
1	1	3
99	127	2
114	114	7
49	49	4
116	129	2
56	56	6
54	55	5
57	57	11
66	94	3
72	73	3
94	94	5
21	22	1
0	0	8
78	79	2
87	87	12
65	65	4
25	26	2
112	112	12
80	80	1
59	59	1
85	85	10
117	130	5
100	100	5
108	108	7
6	27	5
118	118	2
41	41	4
79	79	5
43	43	2
50	50	7
45	45	2
57	92	4
101	101	6
5	46	2
9	9	10
122	122	10
19	19	1
111	111	7
21	21	10
95	95	7
126	126	11
2	3	1
51	51	3
80	81	1
24	24	2
88	88	6
52	52	2
67	67	5
31	31	2
97	97	10
123	123	9
70	75	1
82	82	2
125	125	5
67	91	5
128	129	1
73	75	3
50	51	2
131	131	4
30	30	1
82	83	1
48	49	1
121	121	3
120	120	3
112	113	2
8	9	2
72	74	3
27	27	1
126	127	3
120	121	1
38	38	1
97	103	1
48	48	2
94	96	3
118	120	1
125	126	2
75	75	7
42	42	6
32	32	7
78	78	1
75	76	2
102	103	1
17	17	1
93	93	10
132	132	2
81	82	2
79	81	2
98	103	2
61	66	4
8	8	2
110	110	5
61	61	2
41	42	2
117	117	6
11	14	3
109	110	2
1	34	2
0	1	3
99	99	2
6	6	2
123	124	1
17	19	1
83	83	3
53	54	1
28	28	2
46	46	2
56	57	4
14	15	1
7	7	2
68	68	1
61	67	2
115	129	1
30	33	2
115	116	2
30	54	1
13	13	3
62	67	1
53	53	1
32	54	1
25	25	3
18	19	3
109	109	1
87	88	1
107	108	2
10	28	1
22	22	3
6	21	2
98	108	1
118	119	1
118	131	1
115	115	1
61	75	2
106	106	2
13	14	1
102	102	1
20	20	1
54	54	1
34	34	1
58	93	1
78	82	1
76	76	1
85	86	2
103	103	3
126	129	1
130	130	1
16	16	1
22	23	1
18	20	1
80	89	1
4	4	1
105	105	1
