39	48	2
52	52	5
117	134	3
97	97	5
119	119	2
92	93	3
79	79	4
100	103	2
162	162	4
13	14	6
103	114	2
136	136	2
142	148	2
92	92	2
125	131	5
127	134	7
156	167	1
122	122	8
148	150	2
27	35	1
92	103	1
33	33	1
105	112	5
124	124	8
7	7	1
146	147	3
168	168	5
112	126	3
97	122	3
124	125	2
14	23	4
131	131	1
12	12	3
165	165	3
80	80	2
133	148	4
116	116	5
7	16	3
117	119	6
94	103	2
9	9	1
133	133	2
75	83	2
153	153	4
147	147	3
63	78	1
110	132	3
4	21	3
113	115	1
23	23	3
106	112	1
2	3	2
104	116	1
3	10	2
49	65	3
24	24	3
5	5	2
115	115	2
45	53	1
4	4	2
62	62	3
71	71	6
73	73	1
120	120	3
0	0	5
71	72	2
114	125	1
10	10	4
86	86	1
158	167	1
100	100	2
38	100	4
155	165	3
145	148	1
44	49	2
72	72	7
163	163	3
27	27	1
20	39	1
69	81	3
103	105	2
14	14	2
87	87	2
78	83	4
90	90	3
12	16	1
4	12	1
152	162	4
83	83	2
56	56	1
7	9	3
74	83	3
101	103	1
80	92	1
83	88	1
99	99	1
100	107	7
167	167	1
159	169	3
119	122	2
110	118	4
153	165	2
12	15	2
133	134	2
147	155	1
34	47	1
116	126	1
42	43	3
26	26	1
127	127	1
146	157	2
92	111	3
5	17	1
8	9	2
140	147	3
38	38	1
8	8	2
135	139	3
40	40	1
164	164	3
136	139	2
109	117	1
123	135	2
109	109	5
101	160	1
166	166	2
151	151	4
156	159	1
130	139	4
40	54	2
4	13	2
65	85	3
8	16	1
132	133	1
45	50	1
48	48	2
10	20	1
148	148	2
74	82	3
96	97	1
2	2	1
55	56	2
113	113	2
4	6	2
91	110	1
125	125	1
104	104	2
21	21	1
137	137	2
118	119	1
44	44	1
66	108	2
37	45	1
94	94	1
118	122	3
131	137	1
4	16	1
15	26	2
4	14	1
2	9	1
77	101	2
170	170	1
152	152	3
126	126	1
132	140	2
65	70	1
145	147	1
16	20	5
78	82	1
74	90	2
51	51	1
127	128	2
39	70	3
36	36	1
42	42	2
155	155	5
161	162	2
160	160	1
126	137	1
48	53	1
84	86	1
164	165	3
4	5	1
90	111	2
20	20	1
149	161	1
140	140	1
16	17	1
113	114	3
129	131	2
74	79	1
97	100	2
35	35	1
131	144	1
107	108	1
5	27	1
139	139	2
86	96	1
90	98	2
112	117	1
17	22	1
51	52	1
15	15	1
106	107	1
142	151	1
102	102	1
143	152	1
105	119	1
102	104	1
149	149	1
163	167	1
25	26	2
8	19	1
98	98	2
23	34	1
103	103	2
138	138	1
118	118	1
94	108	1
150	162	1
69	69	1
36	77	2
5	23	1
101	107	1
122	131	1
148	159	1
130	143	1
44	46	2
76	89	2
104	113	1
135	142	1
4	7	1
119	135	1
128	130	1
50	52	1
13	13	1
34	56	1
146	146	1
10	22	1
