6	6	13
74	74	7
131	131	13
102	102	2
10	12	1
8	9	2
22	23	4
104	104	11
81	84	8
3	3	31
23	23	6
95	95	6
0	23	5
115	115	6
108	108	20
114	114	5
88	88	8
84	93	8
101	102	3
35	35	11
0	0	9
8	28	5
1	14	1
98	98	4
139	139	9
27	27	4
109	110	9
2	2	16
84	84	9
133	133	7
79	86	2
128	129	6
1	1	5
21	21	10
19	19	7
113	114	2
71	71	14
84	92	2
87	87	11
79	79	7
117	117	11
103	103	6
111	111	5
101	103	1
97	97	10
22	22	9
25	25	2
34	34	11
106	107	2
127	127	10
80	81	2
130	130	13
123	123	11
92	125	2
124	125	6
134	134	15
107	113	4
11	11	4
105	113	5
18	18	4
9	10	1
38	38	6
94	96	3
16	19	6
132	133	2
119	120	2
119	119	11
119	121	2
26	26	3
75	76	4
81	81	7
7	8	1
118	118	6
13	13	4
107	108	3
37	37	12
135	135	6
126	126	15
92	92	8
34	35	1
7	32	3
24	26	1
90	90	8
129	129	11
15	15	4
97	127	2
7	7	3
85	87	2
8	27	3
45	74	2
33	33	10
86	86	3
15	22	1
104	114	4
31	31	4
107	107	2
27	28	1
100	100	12
120	120	3
138	138	8
114	119	2
0	1	4
93	94	7
133	134	6
127	128	3
5	5	4
111	112	6
75	75	8
72	72	7
19	20	2
15	16	1
76	76	5
140	140	12
80	80	17
122	123	4
36	36	12
96	96	3
79	90	7
77	86	1
12	13	4
91	94	2
10	10	1
123	126	3
115	122	2
73	73	3
138	139	3
99	99	1
90	125	2
99	100	3
106	106	8
111	115	1
134	135	4
33	37	6
36	116	1
85	91	2
81	95	4
4	4	5
16	16	4
125	125	2
112	112	4
110	111	5
78	79	3
102	103	1
113	117	2
135	136	2
37	38	4
14	14	6
105	112	1
14	15	2
109	109	2
25	26	5
116	116	7
109	111	2
17	17	2
91	124	2
80	93	3
114	115	1
9	9	9
30	32	6
137	138	4
101	101	2
90	121	2
3	4	4
73	74	7
105	105	4
127	129	4
80	94	1
18	19	2
105	106	3
94	94	6
78	78	1
86	87	1
122	122	3
116	117	1
85	85	3
23	24	1
112	114	3
72	73	2
115	123	3
87	91	1
97	123	1
2	14	1
123	124	2
128	128	4
29	30	3
112	113	3
97	99	1
8	8	2
15	23	1
13	14	3
2	3	1
83	83	1
129	131	2
129	132	1
93	120	3
89	89	3
77	77	2
124	124	2
30	31	2
75	123	3
114	122	1
108	109	2
3	16	1
12	12	1
77	81	1
93	125	1
111	124	1
132	132	3
24	25	5
137	137	1
116	123	1
117	119	1
28	28	1
74	75	2
90	91	2
123	125	1
2	71	3
4	5	1
85	86	1
113	115	1
2	16	1
10	11	2
32	32	3
34	126	2
136	136	3
113	113	1
33	34	2
95	96	1
15	26	1
129	130	1
117	118	2
131	132	1
114	124	1
82	94	2
20	21	1
5	6	2
19	23	1
81	82	1
