91	91	8
23	24	7
76	79	4
106	115	5
114	114	13
18	18	9
62	64	7
82	85	1
22	22	14
81	86	2
72	73	2
106	107	6
83	84	2
94	94	7
79	80	6
63	63	7
132	132	1
136	138	4
92	94	2
20	20	12
51	52	3
92	92	7
106	106	8
123	134	1
85	102	1
28	31	1
40	41	7
128	129	7
55	55	11
123	123	12
23	26	1
55	56	3
16	17	4
41	41	15
51	51	8
96	103	4
144	144	13
48	48	10
108	140	1
118	118	14
131	131	20
31	65	6
35	35	6
13	13	5
11	11	15
104	104	10
17	30	4
114	115	1
105	112	1
146	146	1
49	49	19
91	92	19
24	24	20
114	127	6
96	96	19
129	129	14
119	119	4
80	85	1
104	113	1
39	40	12
114	119	1
61	61	10
134	137	1
75	75	5
100	101	7
141	141	7
70	81	4
87	90	1
16	16	3
61	62	1
88	89	4
108	109	3
111	112	4
122	123	4
73	73	15
3	3	4
68	68	5
97	97	5
143	144	2
128	140	4
2	2	14
64	64	9
14	14	7
15	15	9
63	76	4
128	132	7
130	131	2
126	126	11
87	87	9
19	19	18
75	78	2
74	107	2
105	105	4
43	43	12
131	144	2
140	140	6
67	68	17
59	72	1
124	125	3
100	100	5
10	14	3
30	67	3
98	144	2
30	30	6
29	32	4
124	124	8
42	42	9
34	35	13
67	81	5
76	76	8
29	68	1
29	31	2
125	139	4
90	90	13
4	23	3
88	88	9
36	36	7
50	83	4
142	142	10
130	130	11
5	6	1
121	122	4
38	38	15
58	58	8
61	71	7
122	122	9
27	37	4
119	123	1
70	70	8
25	25	9
133	134	6
101	105	3
118	120	1
15	16	2
78	78	11
29	29	8
125	125	14
110	122	5
77	78	7
143	143	8
31	32	3
75	79	2
38	68	1
83	85	3
107	128	1
84	84	4
128	128	6
40	40	11
85	91	1
34	46	3
122	124	1
8	37	1
85	85	6
31	34	2
62	63	2
52	53	3
67	74	1
83	98	6
6	11	7
47	52	1
24	25	3
93	93	5
99	99	7
82	94	3
54	65	4
109	109	6
39	39	6
80	91	3
110	126	2
36	63	3
85	86	9
113	124	3
123	127	1
62	65	1
53	54	2
135	135	8
118	119	4
37	37	3
50	50	13
110	110	14
90	91	5
4	4	4
12	27	1
77	77	5
139	142	1
57	66	3
124	140	1
60	99	2
106	109	5
33	33	3
2	4	2
81	91	6
59	63	3
60	98	2
47	48	3
49	80	2
141	143	1
32	36	4
89	89	4
81	84	5
21	21	11
125	126	1
98	105	1
12	14	2
21	32	2
62	62	1
131	133	4
122	144	1
112	112	3
137	140	2
0	0	7
103	103	6
113	113	3
67	67	10
102	109	1
10	11	5
37	38	1
111	127	2
74	123	2
104	105	6
138	138	6
19	20	3
74	82	2
58	84	1
46	47	2
71	71	8
84	85	6
64	70	2
49	62	5
102	107	2
28	28	6
111	125	2
107	118	1
27	28	3
21	22	5
32	32	8
34	34	12
9	20	1
141	144	5
27	27	5
8	8	16
111	114	1
33	38	8
35	40	2
119	121	2
13	26	1
134	134	15
111	111	8
145	145	4
117	117	7
109	110	2
95	95	5
53	53	5
112	113	1
137	139	7
59	59	6
0	9	1
105	117	2
96	99	2
119	127	2
88	90	3
120	120	11
130	132	4
70	71	2
66	67	3
81	81	12
102	102	5
76	77	5
38	52	2
73	87	2
126	127	4
73	74	1
75	80	2
25	29	2
123	124	6
138	139	3
135	139	5
98	98	3
62	70	3
65	67	4
117	119	2
121	121	13
17	17	6
52	75	4
79	79	4
66	66	10
74	88	3
64	65	3
69	70	1
138	140	3
92	93	3
48	50	4
21	30	1
107	109	7
20	27	1
72	72	4
115	116	2
103	109	1
79	81	7
28	48	1
123	137	1
26	31	3
94	95	3
108	117	1
107	107	4
133	133	10
74	74	8
65	65	3
53	84	1
56	56	5
117	118	1
58	81	6
47	47	1
13	32	4
101	101	7
13	19	2
57	58	3
139	141	2
92	110	6
98	99	3
53	56	2
125	129	1
28	33	1
80	80	7
99	101	1
21	34	6
101	102	2
61	65	1
10	121	1
115	115	10
8	10	1
96	141	1
85	93	2
137	137	8
61	63	3
127	132	4
59	84	3
37	42	1
56	100	3
26	37	5
20	31	2
38	39	1
52	55	1
5	9	5
60	68	2
66	76	2
58	68	1
32	33	1
114	118	2
99	102	2
136	136	10
35	61	1
36	47	2
13	23	1
116	117	4
9	9	3
76	78	1
51	83	1
127	127	4
78	99	1
119	133	1
113	115	3
50	53	2
63	65	2
89	90	3
36	41	2
100	130	1
19	21	3
11	41	3
2	9	2
17	19	1
78	81	4
77	96	3
35	36	2
130	140	1
123	129	1
32	34	1
58	59	4
69	69	9
102	103	6
106	108	3
124	136	1
35	41	2
109	111	1
15	32	2
70	93	5
2	33	2
54	58	2
57	57	8
37	40	4
30	51	1
93	100	2
29	37	4
136	140	3
31	57	2
54	77	1
33	55	2
57	61	1
110	119	2
42	124	4
115	129	2
118	135	1
132	140	2
65	66	3
137	138	2
77	91	1
123	142	2
50	89	2
8	15	2
35	43	3
57	59	4
99	100	10
13	14	1
68	73	1
1	5	2
117	120	2
59	60	2
28	29	3
4	5	3
1	114	3
86	86	4
129	130	1
27	48	1
29	67	2
104	109	1
26	27	1
135	136	4
31	58	2
18	19	4
31	125	4
26	26	3
71	72	2
1	21	4
72	82	1
77	115	1
128	133	1
105	106	2
118	127	1
3	16	2
120	132	1
132	144	1
133	143	2
74	87	4
117	126	1
124	127	2
96	121	1
128	137	1
39	42	2
25	34	3
2	3	9
115	140	1
37	39	3
115	141	3
56	57	7
68	69	6
52	52	5
83	83	5
74	92	2
95	96	1
100	102	3
129	135	4
18	30	1
89	96	1
23	29	1
134	141	3
128	141	4
140	142	1
59	76	2
42	43	1
1	1	3
102	105	1
30	31	2
93	96	1
50	61	4
31	38	3
60	60	1
58	64	2
141	142	3
131	132	3
56	64	1
2	118	2
41	43	1
76	80	1
16	30	2
25	39	3
26	60	5
122	128	2
4	8	4
82	86	1
127	128	1
15	18	1
119	126	3
36	42	2
67	69	3
77	87	2
8	9	2
133	145	2
55	73	2
51	55	1
24	26	2
10	86	1
0	1	4
105	108	1
79	94	1
78	83	3
11	100	3
74	79	1
54	54	3
100	112	3
39	87	1
120	124	1
132	133	2
11	35	1
139	139	4
28	37	3
108	113	1
98	102	2
29	69	2
18	20	2
33	34	3
26	36	1
130	135	3
8	12	2
70	96	1
53	55	1
3	31	2
77	82	1
63	75	1
136	141	2
127	134	2
119	125	2
11	15	2
22	25	3
120	121	5
3	33	1
5	5	7
54	88	1
0	11	1
117	125	2
63	69	1
110	127	1
10	41	1
16	28	2
60	62	3
75	77	4
89	117	1
10	10	2
17	23	1
105	109	3
23	23	1
17	29	2
87	97	2
88	100	2
58	60	2
130	133	1
130	144	1
9	10	3
122	127	2
48	49	1
35	87	1
113	125	2
70	95	2
100	103	1
107	108	2
121	124	2
87	88	2
31	33	3
115	128	2
27	29	1
63	84	1
120	129	1
94	100	3
80	87	2
23	27	2
27	39	1
68	74	1
75	76	3
4	6	2
40	43	1
37	48	1
125	138	1
56	75	2
93	122	1
116	116	1
87	92	2
29	30	1
118	121	2
11	85	1
32	38	2
55	68	1
130	137	2
108	108	2
115	136	1
20	25	1
6	6	1
49	61	1
24	36	2
66	70	1
87	103	4
74	76	1
142	143	2
82	82	2
103	104	1
16	19	1
74	75	1
106	128	1
55	58	4
21	73	2
53	85	1
30	33	1
12	12	1
112	118	1
26	28	2
6	69	1
14	15	1
2	5	1
104	107	1
96	106	1
86	87	1
13	24	1
1	19	2
25	37	1
1	3	2
126	129	1
65	70	2
97	106	2
118	122	1
113	131	1
110	112	2
124	138	1
110	113	1
132	142	2
103	107	1
104	116	2
110	118	1
33	47	3
95	99	1
131	142	1
110	116	1
114	142	1
12	35	1
34	36	1
62	69	1
32	73	1
31	31	2
114	125	1
134	139	1
35	39	1
130	134	1
125	128	1
75	87	2
106	117	1
111	116	2
97	105	1
31	126	1
9	11	1
103	108	1
81	87	1
123	128	2
87	94	1
95	103	1
145	146	1
20	34	1
116	128	1
3	9	1
106	134	1
47	55	1
136	139	1
66	71	1
87	89	1
112	120	1
9	15	1
33	56	2
127	133	1
126	133	1
111	124	1
92	96	1
109	140	1
4	24	1
129	132	1
54	62	1
139	140	1
111	120	1
3	4	1
13	33	1
92	102	1
