11	14	2
40	41	15
189	190	4
120	120	13
13	30	4
16	20	3
70	70	3
6	7	5
132	132	13
26	26	14
22	22	12
137	139	5
27	29	4
141	141	8
1	24	5
37	37	14
158	158	3
147	147	5
148	148	3
2	2	8
47	47	9
84	84	11
114	114	4
44	44	6
134	134	11
138	150	2
167	167	21
72	74	3
123	123	7
182	183	4
108	108	11
71	72	1
107	119	2
184	185	4
114	125	1
5	5	13
98	99	4
193	193	21
117	117	8
99	101	7
196	197	3
123	148	4
143	143	8
151	161	1
186	191	4
160	160	4
111	127	3
6	14	3
155	155	12
145	145	8
32	44	1
18	26	6
123	124	2
140	141	2
53	53	8
129	169	1
35	35	12
31	31	16
25	26	4
120	124	2
115	117	1
161	161	17
117	128	5
133	133	15
172	174	1
10	10	20
168	169	1
77	77	13
190	191	3
167	175	4
132	148	1
95	95	7
179	179	6
88	110	5
113	113	5
27	39	2
182	182	9
99	99	14
9	19	3
173	174	7
171	172	4
33	33	17
144	163	3
49	49	11
131	131	6
89	90	5
0	0	3
98	98	6
59	60	7
146	146	8
123	144	4
125	125	11
104	105	7
20	21	10
122	122	7
3	3	10
29	29	4
97	97	8
94	106	4
157	161	2
194	194	16
196	196	12
105	113	3
167	168	5
8	8	7
152	159	4
96	96	13
42	42	16
34	35	12
12	13	4
133	146	3
118	118	7
50	51	2
51	51	14
11	12	2
88	89	3
79	79	5
186	186	11
150	150	8
59	61	1
193	194	2
162	162	8
177	179	3
64	65	3
96	97	2
172	172	7
45	45	13
40	40	10
133	139	3
1	2	4
128	128	4
191	191	18
144	144	15
183	183	12
164	164	10
109	110	7
18	18	8
189	189	17
127	127	5
11	13	4
88	88	3
38	53	1
25	25	6
46	47	4
126	139	1
73	73	5
135	135	7
54	54	8
141	145	7
165	172	3
110	110	6
177	177	13
165	165	12
36	166	2
170	172	2
67	77	1
103	105	4
19	19	11
94	94	4
180	180	24
52	52	11
162	168	5
4	5	5
138	138	13
93	93	7
171	186	2
1	1	12
6	18	1
77	78	4
163	163	7
125	129	1
60	64	1
7	7	16
59	59	13
115	129	4
101	102	7
60	60	3
134	139	2
32	32	10
68	69	2
141	143	2
94	108	4
111	114	2
67	67	12
134	137	10
6	9	3
138	140	4
174	174	9
194	195	3
99	100	3
159	167	2
122	125	2
118	124	12
154	155	5
62	63	5
191	196	5
139	139	19
61	61	11
133	140	5
155	157	8
55	55	7
56	56	9
9	9	12
30	30	14
162	175	2
176	176	4
30	32	9
20	20	3
87	99	1
94	98	5
63	63	10
96	98	2
171	171	3
23	32	1
67	71	2
125	130	2
167	169	4
133	149	1
5	8	3
67	68	6
148	153	3
2	3	10
161	178	4
112	113	4
14	14	4
154	154	7
103	123	2
41	41	3
181	182	5
153	153	9
146	149	3
103	147	2
25	38	1
197	197	7
100	100	8
68	70	1
177	178	5
14	27	1
161	163	1
131	140	3
95	98	3
133	138	2
4	11	2
109	111	2
175	175	11
103	103	14
8	18	3
187	195	1
143	145	2
140	178	3
190	197	2
27	27	9
80	80	7
36	106	3
106	106	7
52	53	3
28	28	1
148	149	3
142	145	2
184	187	3
180	182	4
48	48	3
24	34	7
87	87	4
74	75	7
100	101	6
119	119	1
28	30	2
21	21	11
85	94	1
63	66	7
0	31	1
50	50	5
86	86	8
169	169	6
125	126	7
181	181	16
20	26	1
187	188	1
76	96	3
6	28	1
17	17	5
149	193	3
159	159	3
183	197	1
158	159	7
59	74	4
140	143	2
75	75	3
74	74	12
5	6	5
16	16	8
138	153	2
72	72	13
166	166	6
46	60	4
192	192	6
62	62	9
23	38	2
14	16	1
110	111	5
117	119	2
119	122	4
176	177	3
161	176	2
129	129	2
120	131	1
147	148	2
41	42	3
106	166	2
61	62	7
65	67	2
136	137	4
104	121	3
78	78	5
6	6	15
57	57	8
83	83	18
57	61	2
71	73	1
110	112	4
30	44	2
134	169	3
68	68	5
152	152	6
66	66	3
80	83	2
17	19	3
66	73	1
157	157	2
36	87	1
131	139	1
89	115	2
71	74	5
126	142	2
169	172	1
15	16	4
82	82	3
146	166	2
52	60	2
0	2	4
126	130	2
109	109	3
68	75	3
81	81	4
71	71	8
130	130	9
121	122	1
49	50	4
116	116	6
195	195	4
184	184	3
39	40	6
126	126	7
69	70	2
116	119	4
156	156	7
112	116	1
8	23	1
44	45	1
51	52	5
42	51	3
22	34	2
56	69	2
136	151	3
120	121	2
52	55	2
17	20	1
161	168	3
163	178	2
179	180	5
12	140	2
133	135	1
3	6	4
158	160	2
145	149	2
159	178	2
23	86	3
17	82	4
127	193	4
150	151	2
84	85	2
30	41	1
173	173	3
84	86	3
124	124	3
159	174	2
88	90	4
144	146	1
0	3	3
102	102	3
37	38	7
89	89	5
71	85	6
103	104	4
57	64	3
104	148	1
83	84	8
103	108	5
185	185	14
58	60	4
117	118	6
12	12	4
60	74	2
45	46	1
38	44	2
65	73	3
136	136	2
170	185	1
24	24	12
60	70	1
38	38	8
6	17	2
115	130	1
49	51	4
55	69	1
56	70	1
9	21	1
23	23	4
7	21	1
146	189	1
90	115	1
128	154	1
9	10	4
140	151	3
14	21	2
53	59	5
116	122	4
139	164	1
103	122	3
81	83	1
83	85	2
85	93	2
58	58	4
101	101	2
132	167	1
37	87	3
37	105	5
4	4	11
154	185	1
168	168	2
29	38	4
142	166	1
156	162	1
143	144	1
63	80	3
149	149	9
40	50	4
119	120	1
170	171	6
43	155	1
145	146	2
139	155	1
18	22	3
105	105	6
59	67	4
153	157	1
43	43	4
164	168	1
15	43	1
46	53	1
116	117	6
104	146	1
23	141	1
58	59	2
122	124	4
26	28	6
119	168	2
79	80	3
104	104	7
46	46	8
170	175	3
84	94	5
34	44	1
151	171	4
167	174	1
65	65	4
9	52	1
79	84	2
136	138	1
86	89	2
27	28	3
43	47	1
142	144	1
115	115	4
32	39	2
121	126	3
90	95	1
104	129	1
39	39	6
15	15	4
148	190	5
65	66	5
109	116	2
89	105	1
70	71	1
111	113	2
54	55	2
57	69	2
11	11	7
107	142	1
140	140	2
183	186	1
181	196	2
64	66	2
1	14	1
146	147	3
112	112	5
115	119	1
8	17	3
103	114	1
81	82	2
33	142	2
37	84	1
44	46	7
137	146	1
77	79	3
144	145	2
140	154	3
32	138	3
24	32	3
31	32	3
113	123	1
178	178	3
25	35	1
178	179	1
108	109	4
4	17	2
45	109	2
149	192	2
59	69	3
77	88	1
129	189	1
134	168	1
30	31	4
132	136	1
14	15	1
115	118	3
129	140	2
137	137	3
155	156	5
55	58	1
105	145	1
43	82	1
113	127	2
74	83	1
84	110	3
60	61	2
1	13	1
18	29	1
170	170	5
111	111	3
174	175	3
56	72	2
188	188	3
187	191	1
100	106	2
102	118	1
172	175	2
84	88	2
36	36	4
124	126	1
34	34	1
185	186	3
73	74	1
159	168	3
11	26	3
58	67	4
134	135	1
29	31	1
128	188	1
190	190	3
191	192	1
71	82	1
126	154	2
12	28	2
138	139	1
74	99	2
188	189	2
133	167	1
89	111	1
53	55	2
57	67	1
151	187	2
58	84	3
168	172	1
142	143	1
169	175	1
25	29	1
40	49	1
134	150	2
95	97	1
95	96	2
57	62	2
73	75	1
103	116	1
177	186	1
1	15	1
36	142	2
195	197	2
23	35	3
158	180	1
102	109	3
140	147	1
13	14	1
48	49	3
16	81	1
90	90	1
141	144	1
108	111	1
152	157	1
21	36	3
13	27	1
151	151	2
154	187	1
125	127	1
134	136	1
138	168	1
128	169	1
35	166	2
96	114	2
194	196	2
66	100	2
14	108	1
191	197	1
159	160	1
171	182	1
49	69	1
10	11	1
122	128	1
36	37	2
156	157	3
106	107	1
135	150	3
128	129	5
53	56	1
0	1	1
186	197	1
64	64	4
16	18	1
87	88	1
161	167	1
188	193	2
29	30	3
185	187	2
93	94	1
72	81	3
3	5	2
2	6	1
24	25	1
0	32	1
3	23	2
156	159	1
142	142	2
111	112	1
69	69	1
174	176	1
32	140	1
108	121	1
1	6	1
55	64	1
19	192	1
45	48	1
25	32	1
175	180	1
174	183	1
166	181	1
105	108	1
150	152	2
63	65	1
63	75	1
53	54	2
121	121	1
72	82	1
16	17	1
63	87	1
135	136	1
87	89	1
163	168	1
163	175	1
22	35	1
59	73	1
77	96	1
