78	78	5
103	126	5
111	111	12
126	126	14
55	55	1
6	8	4
97	97	6
63	119	6
39	39	10
95	120	6
73	75	1
128	128	5
61	126	2
25	26	7
86	109	2
90	122	3
85	85	3
76	76	7
15	23	3
101	101	14
63	125	3
87	87	5
26	27	5
23	24	6
117	117	12
46	46	4
34	34	2
62	64	3
37	37	4
31	32	7
108	109	3
65	65	16
107	107	4
66	66	19
103	105	1
7	7	4
2	2	2
60	82	2
22	130	4
33	33	8
77	78	2
32	33	1
98	100	1
75	75	2
122	122	9
121	121	1
55	111	2
123	123	3
47	47	6
134	134	10
19	19	7
108	108	2
13	14	2
38	38	4
90	107	7
115	115	10
82	82	2
62	62	3
68	68	5
12	13	3
22	23	1
41	41	6
124	124	5
63	63	9
21	134	4
16	16	6
30	30	2
95	100	1
116	116	6
58	58	14
28	28	7
112	113	3
114	114	6
47	117	5
112	112	9
107	108	3
6	6	3
92	92	7
111	112	2
57	57	21
81	81	5
72	72	7
43	43	15
80	80	4
56	56	14
110	110	7
88	88	9
99	100	4
56	59	2
4	4	3
71	72	2
64	64	9
73	73	8
5	6	10
78	117	3
45	45	7
109	109	6
70	70	8
27	27	2
23	37	3
25	25	18
7	8	5
42	42	4
83	83	12
3	4	4
91	91	7
84	84	8
127	128	3
70	96	2
86	86	4
96	96	7
55	56	2
130	130	14
119	119	11
61	63	4
105	106	3
24	24	4
131	131	4
111	116	1
19	24	2
60	60	7
5	31	2
22	134	3
48	50	1
71	71	4
97	98	4
74	74	4
36	37	2
12	12	4
104	105	3
59	63	1
130	131	3
129	129	9
43	44	2
74	120	4
9	20	1
103	103	8
95	95	4
21	21	6
106	106	3
45	46	3
104	104	5
94	94	6
10	10	5
11	11	9
98	122	1
27	28	9
14	14	5
40	40	1
132	132	6
8	9	3
67	67	3
18	19	2
118	118	1
75	85	2
120	121	2
31	31	2
89	90	2
105	105	8
13	46	1
26	26	2
91	92	3
90	90	3
64	73	1
59	59	3
93	93	4
10	11	2
73	80	3
96	97	1
66	67	5
15	40	3
125	125	2
14	15	4
18	18	2
42	43	2
124	125	1
36	38	1
59	64	1
117	118	2
8	19	5
19	20	1
127	127	3
5	38	1
44	44	2
70	95	1
20	20	6
40	41	3
1	1	3
79	79	5
38	39	2
116	117	3
1	34	1
77	79	3
69	70	1
64	115	3
0	0	5
25	131	1
113	113	6
131	132	2
100	100	2
9	9	3
11	12	2
23	23	1
3	35	1
133	133	3
35	35	3
103	125	1
107	120	1
118	120	2
103	104	2
106	107	1
7	34	2
97	102	1
54	55	1
14	43	2
20	21	2
79	80	1
115	116	1
3	34	1
74	123	2
73	74	2
77	80	1
62	126	1
33	34	1
20	34	1
101	124	2
58	130	3
99	99	3
95	96	2
47	80	1
73	79	1
3	3	2
24	25	3
22	24	2
17	17	1
62	63	2
9	10	1
5	5	3
59	103	1
81	82	6
29	29	1
28	30	1
62	65	2
61	61	1
18	24	2
13	13	1
101	105	1
46	47	1
12	43	1
14	134	1
71	120	1
122	123	1
120	120	1
50	111	1
82	114	1
32	32	1
60	83	2
99	123	1
57	58	1
80	116	1
77	81	1
119	120	1
125	126	3
60	63	1
54	54	1
77	77	1
74	82	1
83	111	1
48	48	1
114	115	1
42	133	1
69	69	1
