50	50	14
123	131	2
121	133	3
128	128	6
55	55	6
93	93	4
43	43	2
34	34	3
17	36	1
5	5	14
11	11	2
15	38	4
127	141	3
130	153	3
140	140	7
42	47	3
86	90	2
7	8	2
114	114	7
4	4	7
28	28	2
27	31	4
48	54	1
69	81	3
4	6	2
124	124	6
84	84	6
99	123	4
79	92	1
65	65	3
125	149	2
69	87	2
10	12	4
21	21	3
30	31	3
87	107	2
105	105	2
150	154	4
63	64	4
70	96	1
48	57	2
2	3	2
98	99	3
141	141	2
67	81	4
10	20	3
115	131	2
109	112	1
18	18	2
131	131	7
9	9	6
63	67	4
27	28	3
103	128	3
106	109	4
14	16	6
117	129	8
117	136	2
40	40	7
22	22	4
114	138	1
64	64	2
13	18	1
61	61	6
3	5	2
54	54	2
138	138	10
30	30	8
35	75	3
110	112	3
15	33	2
151	153	2
27	27	7
120	121	6
125	125	4
104	104	4
114	122	2
33	33	3
93	99	2
132	132	2
114	133	4
108	108	5
95	111	2
84	88	1
31	31	2
10	10	7
92	98	1
18	35	5
149	149	4
53	65	3
97	97	3
133	133	5
24	24	2
9	22	1
21	31	2
135	137	7
109	126	2
20	21	6
13	31	2
127	127	4
148	148	2
45	45	4
14	14	4
147	147	3
106	122	2
109	110	4
9	17	4
111	113	6
81	83	5
108	130	1
106	106	4
77	101	2
126	126	2
13	13	1
17	17	5
96	116	1
131	148	3
104	113	2
152	152	2
18	20	2
69	69	3
94	105	1
69	84	3
107	107	9
96	96	8
19	19	4
117	117	4
44	54	2
11	17	1
106	111	1
105	130	3
28	46	2
128	149	4
138	153	1
23	23	2
111	111	4
52	52	4
53	53	5
137	137	1
134	134	4
120	128	1
7	7	5
84	85	3
9	20	2
31	40	4
23	30	3
94	122	1
17	22	1
78	79	3
150	150	4
16	16	7
138	139	4
70	70	1
118	125	5
25	25	3
23	28	5
113	135	1
92	92	1
14	29	1
17	33	2
86	93	2
69	83	2
21	27	1
64	85	1
142	142	5
38	38	1
11	12	3
68	71	1
125	126	2
102	102	1
49	55	2
12	15	2
18	36	2
15	16	3
93	116	2
107	111	2
39	57	2
95	110	3
57	70	1
105	115	2
136	136	4
82	82	4
48	48	1
82	110	5
88	107	1
51	129	2
68	80	1
113	115	4
65	81	2
16	36	1
68	68	3
72	72	4
35	36	2
14	15	5
83	83	4
94	94	5
14	21	2
50	63	2
76	76	3
36	36	1
151	154	1
17	20	1
123	123	3
31	33	3
153	153	1
54	104	3
112	112	3
82	87	2
8	21	2
52	62	2
144	147	2
70	71	2
25	30	5
145	145	6
70	133	1
62	64	2
29	30	1
6	6	3
126	141	1
118	121	4
141	144	3
75	75	3
113	123	1
8	8	5
12	26	1
90	96	1
13	39	2
106	108	1
121	131	2
35	35	3
56	56	4
135	139	1
122	135	2
11	22	6
67	67	3
130	130	2
42	42	2
86	98	2
40	41	1
126	143	4
3	3	7
138	152	1
3	11	2
125	128	1
36	64	3
15	30	1
113	125	1
30	32	2
15	34	1
11	23	2
44	44	3
71	80	1
62	65	2
13	26	1
75	95	1
41	41	3
129	129	1
138	146	1
35	38	3
75	76	1
78	78	2
65	74	2
81	81	1
132	134	1
133	149	1
20	20	2
3	4	4
95	95	2
110	110	3
83	98	4
13	17	1
119	119	2
69	89	1
22	31	4
145	149	1
108	109	2
10	19	2
135	135	1
34	35	1
106	119	1
128	148	1
49	49	5
64	67	2
140	144	1
135	136	1
104	109	1
50	53	3
37	42	1
39	39	3
100	100	1
85	105	1
2	22	2
62	73	2
134	137	1
115	116	2
77	77	3
44	45	1
101	101	3
107	119	2
16	33	1
16	19	2
113	122	1
121	121	4
134	149	2
126	131	1
86	86	1
36	47	1
76	78	1
77	100	2
108	128	1
87	97	2
12	48	2
12	30	2
79	80	2
101	103	2
31	65	1
123	153	1
113	118	1
105	116	2
32	40	1
67	79	1
134	142	2
83	97	2
31	39	1
17	23	2
14	17	1
119	128	1
105	122	1
97	114	2
113	132	1
56	58	2
65	69	1
116	116	1
5	34	1
106	107	1
15	15	1
45	48	1
143	143	1
89	118	1
111	112	1
97	103	1
84	109	1
23	24	1
94	97	1
16	38	1
85	85	1
9	11	1
67	68	1
102	129	1
51	55	1
76	96	1
73	73	2
131	141	1
122	122	2
144	144	2
26	38	1
36	95	1
95	96	1
103	103	2
16	39	1
144	149	3
8	14	1
5	8	1
8	32	1
139	139	1
46	47	1
128	144	3
94	95	2
35	77	1
102	123	1
105	117	1
99	121	2
22	27	1
69	97	1
32	32	1
131	137	1
151	151	1
121	124	1
25	125	1
3	22	1
25	36	1
77	94	1
72	80	1
120	123	1
96	97	1
98	109	1
13	125	1
46	46	1
15	21	1
