136	136	3
111	111	4
101	101	4
85	85	4
90	92	3
3	3	4
115	115	5
133	134	2
173	174	7
122	139	2
95	95	4
12	13	4
166	166	5
120	126	1
91	91	10
90	99	2
0	1	2
102	102	5
7	34	2
9	9	5
18	20	3
13	13	8
106	106	6
145	145	3
179	180	1
115	116	3
60	60	3
137	137	6
36	36	2
170	176	1
119	119	9
7	33	2
34	35	3
148	148	3
20	20	6
125	125	2
22	22	5
147	147	1
143	144	2
114	114	5
42	42	4
61	62	2
40	43	3
8	33	2
163	166	4
103	104	2
76	77	2
131	131	10
140	141	2
88	88	2
149	149	6
74	75	3
93	93	1
36	37	6
55	56	1
108	109	1
6	6	2
99	99	4
89	122	5
56	56	3
107	107	5
171	171	4
71	72	2
172	172	1
45	62	2
5	5	4
176	176	2
29	29	3
63	63	3
80	138	3
117	117	3
138	138	4
64	64	4
147	148	4
130	130	3
35	35	8
43	43	2
133	135	1
11	11	1
77	78	1
112	134	2
75	76	1
93	144	1
33	55	1
28	28	4
58	58	2
33	33	7
24	26	4
119	126	1
144	144	1
65	97	2
31	31	1
15	15	2
19	19	4
96	98	2
121	121	2
141	141	3
96	96	5
66	66	3
124	124	4
50	51	1
73	73	2
111	112	2
128	128	2
1	34	1
50	50	3
13	14	1
81	82	2
126	126	1
55	55	3
135	135	2
3	4	2
118	118	1
52	52	8
53	54	1
37	42	1
17	18	2
179	179	4
24	24	3
150	151	2
105	143	4
0	4	1
10	10	2
37	38	3
8	19	1
12	40	2
177	177	2
139	139	1
32	32	3
100	100	2
140	143	1
97	98	2
21	32	1
164	164	2
165	168	3
126	127	2
129	129	5
10	98	3
17	17	5
12	12	2
112	112	5
57	57	1
142	144	2
8	9	1
87	87	3
118	119	1
39	40	2
7	53	2
162	162	1
54	54	6
91	92	2
23	26	5
174	174	1
142	142	5
75	75	2
32	33	3
36	38	1
139	140	4
39	68	3
139	146	1
87	89	1
62	62	4
171	173	2
2	2	4
71	71	1
41	41	4
127	127	2
8	11	2
132	132	1
63	65	1
132	135	2
162	176	2
37	40	1
88	99	3
93	94	2
77	77	1
104	105	4
159	165	1
83	121	2
143	143	2
38	38	3
8	46	1
80	80	3
85	120	1
167	170	1
164	165	2
165	165	1
44	44	1
168	168	1
161	171	1
44	45	1
158	159	1
103	108	2
72	72	1
66	67	1
106	155	2
87	125	1
123	125	4
134	136	2
90	90	1
2	3	1
37	37	1
22	30	1
7	19	1
108	110	1
180	180	1
61	61	1
152	154	1
88	124	2
105	109	2
95	96	1
1	5	1
113	134	3
67	67	1
81	81	2
154	158	2
26	28	1
78	79	1
156	156	1
8	8	2
46	54	1
98	98	1
150	152	1
70	72	1
11	44	1
160	162	1
0	0	1
83	127	2
63	64	1
40	44	1
95	97	1
94	95	2
150	156	1
150	150	2
142	143	1
36	53	1
5	6	1
110	110	1
151	151	1
169	171	1
112	136	2
165	166	1
5	37	1
168	170	1
55	59	1
41	62	1
169	169	2
157	157	1
103	118	1
14	14	1
51	51	1
133	133	1
92	92	1
161	161	1
122	122	1
64	65	1
104	104	1
56	57	1
27	28	1
9	11	1
140	140	1
