51	51	9
58	67	1
114	114	18
105	105	12
47	47	22
121	121	24
110	110	23
9	9	6
82	82	10
62	65	3
24	24	32
101	101	17
9	10	2
63	63	7
68	71	5
27	27	21
81	81	12
118	119	6
12	12	19
20	21	2
120	125	2
62	62	5
15	15	22
25	25	11
125	125	18
97	97	6
65	65	17
67	72	5
33	33	10
75	76	7
78	97	2
71	71	14
89	89	19
123	123	13
39	58	5
74	74	6
116	116	17
88	89	2
95	95	12
16	17	10
92	92	9
113	114	7
10	19	5
79	79	7
77	77	12
94	97	6
120	121	5
23	23	14
94	94	19
50	51	9
29	29	26
83	84	6
65	66	3
9	18	3
80	80	7
69	69	11
56	56	19
11	26	8
11	11	13
2	25	3
93	94	12
98	99	5
67	67	10
106	106	7
112	112	15
111	111	16
127	128	7
38	39	8
4	5	8
98	98	12
28	28	29
107	107	11
83	83	12
8	49	5
68	68	14
13	13	21
19	19	10
39	39	10
78	78	11
58	65	1
69	70	5
115	116	8
97	98	2
41	42	3
3	3	8
58	59	5
76	77	2
11	12	8
120	120	11
16	16	8
72	72	13
70	75	2
62	63	8
109	109	14
102	102	19
129	129	13
58	58	14
76	76	23
124	124	18
48	48	13
41	41	9
54	54	11
66	88	1
51	52	6
79	80	6
43	45	8
53	53	16
100	100	14
29	30	6
115	115	24
117	117	8
107	110	4
38	38	5
108	108	5
21	22	2
64	64	8
70	70	17
12	13	2
32	32	20
49	50	2
50	50	30
57	57	20
49	49	25
44	44	17
58	63	3
99	99	17
93	93	5
18	18	24
22	26	1
28	29	3
85	85	9
60	86	4
70	113	3
101	102	8
32	33	5
6	6	14
22	24	5
22	23	5
122	122	13
70	93	6
16	18	5
41	45	4
104	109	4
80	107	2
41	47	1
49	51	3
127	127	8
73	73	10
23	24	6
26	26	9
66	66	10
53	54	8
88	88	16
95	116	2
52	52	23
5	5	5
114	116	10
104	105	7
55	55	13
43	43	13
4	4	19
18	19	2
61	61	8
110	111	5
128	130	4
87	87	6
31	31	10
93	102	2
47	48	4
111	113	3
118	118	9
14	15	13
69	80	3
119	119	12
78	79	8
0	0	13
81	82	7
41	46	2
121	122	4
8	8	14
112	113	7
3	5	3
17	17	13
103	104	6
131	132	4
60	60	1
133	133	5
67	88	1
52	121	4
58	62	2
72	73	13
5	22	3
119	126	2
75	75	4
45	46	3
114	115	5
68	69	2
128	128	5
1	1	6
46	46	9
77	85	1
113	113	19
55	75	2
90	90	3
64	65	12
21	21	3
106	107	4
85	88	3
117	118	5
29	47	4
43	46	2
127	129	1
123	124	5
2	2	12
4	6	4
132	132	14
130	130	2
42	42	3
132	133	1
21	25	8
56	64	3
131	131	12
63	64	7
24	25	4
119	130	4
83	85	7
78	95	2
87	132	3
8	12	3
27	30	1
114	118	3
14	26	1
67	71	3
123	125	2
84	84	4
19	21	3
86	86	4
73	101	2
67	85	2
103	130	1
81	83	4
2	3	8
14	14	13
17	18	6
92	93	2
99	100	5
79	95	1
30	31	4
56	57	4
26	27	2
33	34	2
109	110	3
104	119	1
74	103	1
15	28	3
75	104	4
104	130	1
108	109	2
77	80	4
31	32	4
105	108	4
106	109	5
54	57	2
21	26	2
73	74	1
85	86	3
62	84	1
57	58	2
68	83	2
100	112	1
22	22	6
6	7	3
103	119	1
62	66	1
30	30	11
51	54	5
91	91	7
59	62	2
34	34	3
115	118	1
56	62	1
7	8	2
63	65	2
70	71	2
89	133	3
107	118	1
60	87	2
85	91	4
103	103	3
7	29	1
20	20	5
6	72	2
55	91	5
55	66	1
104	104	3
122	124	1
81	91	2
8	9	3
1	26	3
10	11	1
71	72	2
105	106	4
107	108	2
27	74	2
100	101	2
22	27	1
11	19	1
40	42	2
94	96	2
38	50	1
98	100	1
86	87	2
77	91	1
42	44	2
77	98	1
52	53	1
63	74	2
2	5	2
60	61	5
80	121	3
51	124	2
54	77	3
42	67	1
27	29	3
80	82	2
87	88	3
105	109	1
63	73	3
46	69	1
99	101	1
70	100	3
75	83	1
72	74	1
66	67	1
104	118	2
103	126	1
84	88	1
96	96	1
27	28	3
59	60	5
70	80	2
3	132	1
58	64	2
86	89	3
124	125	1
42	43	3
114	119	1
13	15	2
95	96	3
71	74	2
75	91	1
8	50	1
55	128	1
17	34	1
10	10	2
1	3	2
101	124	2
70	99	2
67	68	1
92	99	1
126	130	1
120	126	1
94	95	1
107	109	1
17	19	1
53	56	2
45	45	2
0	85	1
59	59	1
6	31	1
76	99	1
0	91	1
52	108	1
120	123	1
52	105	1
116	119	1
40	40	1
67	86	1
13	16	1
116	117	1
108	110	1
57	64	1
11	18	1
25	26	1
120	127	1
62	110	1
68	84	1
67	87	1
126	126	1
77	92	1
6	49	1
