160	160	7
169	170	6
165	165	8
94	94	3
125	125	12
49	49	10
124	124	7
135	135	10
44	44	5
22	23	7
23	23	15
111	112	8
129	129	4
130	130	10
33	35	1
74	75	1
148	148	5
106	112	4
27	27	4
164	164	9
127	128	10
1	1	6
126	126	8
105	117	2
79	85	3
38	38	12
18	19	3
46	53	3
76	76	9
156	157	1
121	135	2
40	43	5
84	95	1
133	133	19
145	145	11
6	124	2
159	159	11
159	162	3
47	56	2
82	83	3
114	138	1
0	8	2
5	16	5
64	64	7
108	108	7
106	107	7
57	68	2
64	69	6
3	9	1
141	141	9
152	152	5
127	127	13
35	50	2
96	108	4
105	151	5
110	110	14
93	126	3
66	67	1
68	156	2
73	80	4
96	119	2
122	122	3
156	156	29
148	168	1
10	24	2
90	90	9
8	57	5
4	4	4
3	3	5
11	11	9
3	8	2
47	48	6
69	69	3
100	100	7
66	66	4
44	45	8
139	139	2
6	141	7
139	149	5
54	54	9
132	132	4
50	50	10
56	56	2
93	108	2
69	74	1
20	20	8
5	25	2
85	117	1
78	110	3
78	79	4
14	15	7
16	17	5
71	113	2
16	16	9
15	17	3
84	84	9
19	20	3
169	169	7
140	142	1
34	46	3
73	73	5
84	92	3
93	93	6
113	124	1
9	9	4
18	18	5
117	133	1
95	95	3
85	118	3
64	68	3
79	137	3
12	14	2
83	83	11
167	167	2
96	141	3
88	126	1
73	94	1
85	85	3
111	125	2
155	156	4
143	143	8
48	51	3
105	106	1
66	70	2
0	5	2
48	48	10
42	42	6
160	162	7
38	39	1
106	106	4
119	142	4
36	36	2
37	37	5
86	86	4
162	162	5
112	141	5
119	131	7
35	35	3
4	5	1
28	38	2
146	146	14
15	18	1
28	28	5
82	82	14
149	149	9
26	26	10
151	151	11
81	81	11
11	12	2
34	34	11
77	114	5
128	143	5
2	19	2
144	157	2
150	151	2
40	40	3
109	110	12
86	89	1
22	106	2
72	115	2
103	162	3
53	53	10
0	0	4
27	41	1
10	10	7
102	114	3
37	43	1
131	131	13
140	141	2
22	22	3
132	133	1
82	99	1
20	21	1
33	47	2
104	118	2
102	142	4
7	7	4
153	153	5
140	148	2
155	155	3
2	2	8
97	97	8
68	75	4
110	125	5
24	25	3
77	77	11
111	122	1
54	57	3
80	82	3
13	13	13
118	132	3
110	123	2
124	141	3
88	98	5
123	144	3
147	147	6
142	142	7
55	55	4
89	90	5
139	140	2
79	100	2
123	125	3
161	161	8
105	105	7
91	127	2
57	64	1
64	71	3
139	143	1
72	72	3
101	102	2
96	140	2
138	140	1
36	46	2
39	84	2
123	147	6
138	138	4
139	141	2
157	157	8
21	21	5
4	16	7
62	73	1
108	119	1
51	52	2
14	18	2
118	118	2
6	6	6
116	116	9
39	39	7
123	129	5
82	93	2
78	78	4
109	109	7
81	94	6
72	134	5
119	146	1
92	92	5
35	51	2
24	34	3
5	149	3
82	144	1
75	75	2
89	105	6
64	67	2
72	74	4
38	40	4
4	19	3
47	47	12
88	88	3
48	49	1
36	41	1
96	139	2
98	103	2
73	115	3
162	164	1
157	158	3
52	52	3
62	78	4
1	2	3
97	104	2
84	87	3
115	115	4
91	91	2
112	132	1
21	32	2
136	137	4
96	106	2
150	161	1
63	73	1
124	164	3
74	91	3
43	43	8
70	92	5
166	170	9
52	90	2
113	147	3
63	67	2
87	87	8
24	24	13
133	134	1
166	166	10
68	71	2
122	149	2
15	15	3
45	46	2
104	139	2
128	128	1
104	104	5
77	79	2
135	137	3
43	45	4
101	101	4
33	51	3
150	159	5
138	139	6
102	132	2
167	170	1
117	117	6
123	123	3
145	146	3
6	7	3
78	156	2
136	161	2
154	169	3
81	146	1
120	120	2
40	52	1
149	160	1
93	104	2
43	56	1
99	99	5
45	55	1
25	25	7
42	44	4
3	13	1
9	17	1
151	163	2
148	166	2
102	116	3
40	67	2
137	137	1
134	135	5
8	8	7
68	68	3
80	86	2
137	151	2
0	1	1
166	168	2
163	165	3
103	116	1
121	121	1
133	137	3
137	150	3
149	162	1
1	166	3
62	63	2
74	74	7
100	103	2
11	23	5
115	128	1
94	97	2
97	98	1
24	133	1
115	155	4
114	134	2
110	133	1
12	12	3
96	97	1
119	120	4
102	102	6
11	20	1
45	45	1
81	92	1
80	80	3
46	51	1
62	62	3
18	22	1
51	72	2
123	124	7
81	86	2
114	114	7
24	75	2
126	147	3
140	163	2
88	99	3
100	101	2
7	11	4
11	18	4
3	4	1
35	38	1
113	113	2
143	144	2
103	112	1
168	168	3
76	103	3
21	38	2
48	65	3
103	142	2
65	160	3
137	169	3
112	112	5
66	88	1
54	58	2
65	65	4
149	151	3
106	108	1
163	164	2
14	14	2
119	134	1
156	158	2
149	163	3
158	158	5
136	151	2
65	67	1
100	139	2
89	89	4
154	154	7
87	92	3
24	106	3
11	24	2
127	137	1
19	19	2
16	116	2
17	76	1
159	160	3
101	133	2
112	129	1
96	96	2
126	129	2
130	136	1
98	99	4
73	87	2
7	98	3
93	111	2
111	111	4
67	160	2
71	73	2
50	62	1
56	110	1
111	133	1
71	134	1
26	36	2
23	24	3
78	115	1
136	136	2
92	127	1
109	122	5
72	156	1
33	33	2
106	117	2
113	114	2
156	159	2
87	110	2
124	148	1
128	154	2
144	163	4
100	121	3
5	5	1
109	158	2
129	158	2
163	163	2
55	56	1
71	71	1
168	170	2
16	22	1
140	140	4
2	167	1
63	71	1
119	143	1
40	41	1
61	65	1
38	51	2
15	16	3
27	28	5
2	84	1
160	161	1
53	56	1
107	129	1
99	100	1
118	134	1
139	163	3
94	95	1
72	94	2
3	164	1
50	55	1
99	114	1
69	75	1
36	105	1
35	45	2
62	65	2
36	56	1
18	156	4
46	48	1
9	19	1
121	125	1
118	119	1
147	159	3
144	145	1
35	46	3
118	135	1
69	133	1
138	153	2
35	48	1
156	162	1
86	107	1
131	146	1
93	95	1
71	92	2
51	51	1
27	39	1
128	137	3
153	169	1
65	69	1
86	93	1
112	118	2
134	134	3
79	107	1
80	88	2
118	138	1
63	72	1
128	136	1
69	70	2
79	102	2
93	121	1
130	131	1
93	94	2
6	20	1
42	99	2
137	160	1
50	51	1
113	135	2
77	94	1
158	162	1
121	124	1
107	134	1
81	115	1
1	84	1
49	55	1
9	18	1
154	155	1
2	10	1
17	17	4
20	22	2
131	143	1
5	161	1
75	76	3
138	150	1
98	135	1
19	38	1
105	161	2
13	19	1
154	156	3
83	93	1
36	75	1
91	116	2
113	131	2
122	146	1
146	150	1
6	140	1
44	77	1
20	26	1
45	47	1
68	84	1
130	154	1
95	96	1
5	8	2
2	5	1
4	17	1
107	151	2
68	78	1
36	93	2
145	153	1
136	155	1
40	50	1
119	126	1
118	133	1
11	26	1
41	41	1
166	167	1
69	71	1
97	99	1
110	157	1
98	106	1
124	126	1
146	147	1
55	94	1
133	142	1
147	148	1
73	74	1
168	169	1
15	117	1
89	99	1
156	168	1
41	42	1
141	142	1
130	159	1
125	126	1
46	46	1
150	150	1
147	151	1
80	147	1
36	40	1
135	136	1
7	21	1
88	90	1
113	134	1
74	96	1
98	142	1
3	7	1
57	57	1
89	110	1
68	100	1
137	154	1
