46	47	1
100	100	5
29	29	6
0	0	7
15	15	6
3	22	2
101	101	2
65	65	12
79	79	1
41	41	8
120	120	2
72	72	8
112	112	7
3	46	1
68	68	5
106	123	2
89	89	11
86	88	3
6	6	7
53	53	6
52	53	9
18	19	5
16	62	5
3	18	2
74	74	1
49	49	3
19	20	4
67	67	7
91	130	6
2	2	10
27	27	3
107	107	8
44	46	3
116	116	2
118	119	1
126	128	3
107	126	2
57	57	11
105	105	10
39	76	2
3	7	1
110	110	4
118	118	9
92	98	5
104	104	5
51	51	3
3	3	6
30	31	2
28	28	5
121	122	4
50	50	4
79	81	4
121	121	1
40	40	3
43	43	6
19	19	2
1	1	7
119	120	6
46	46	6
52	52	4
99	99	6
25	73	3
122	122	7
133	133	1
93	124	3
59	59	6
38	76	2
11	11	6
63	64	5
25	25	7
69	69	6
13	13	5
18	18	2
119	119	6
47	60	3
64	64	5
9	9	3
6	9	1
63	104	3
108	119	2
71	76	3
90	90	6
88	92	3
30	30	5
2	18	1
10	11	3
90	115	3
8	8	2
125	126	7
63	66	3
21	21	1
130	130	2
94	94	3
118	126	5
13	14	1
71	96	2
131	131	2
88	89	4
73	73	2
56	56	2
50	53	1
26	27	3
84	84	5
69	74	3
89	90	2
4	4	3
77	77	5
87	88	1
47	47	1
98	98	2
82	82	3
4	5	1
40	46	9
86	86	1
108	118	2
124	124	7
98	101	2
72	73	2
132	133	3
53	54	3
113	116	2
86	87	1
21	60	1
126	126	3
0	1	1
45	46	4
113	113	3
79	80	2
12	12	4
106	106	6
81	81	6
15	17	3
97	100	1
127	127	3
92	92	6
132	132	4
32	32	2
90	119	1
11	124	2
57	124	1
48	49	3
114	115	5
73	74	1
39	45	2
123	125	3
91	92	4
81	85	1
9	21	2
39	39	3
98	120	1
108	108	2
110	132	1
94	95	2
97	98	1
88	99	2
49	120	1
60	61	1
114	117	1
81	88	2
109	110	1
111	112	2
56	122	2
49	122	1
12	13	1
103	103	1
64	65	1
22	22	2
125	125	1
130	132	1
121	123	2
122	123	1
16	121	1
24	24	2
117	118	2
57	123	1
119	129	1
41	44	2
85	85	1
71	71	1
44	45	1
71	72	1
80	80	1
109	125	1
26	26	1
60	60	1
58	58	1
31	31	1
42	43	1
128	129	1
