72	72	10
77	79	2
22	23	6
126	126	3
16	16	3
110	113	7
35	35	5
8	8	8
67	71	1
14	14	6
96	96	9
118	118	9
82	129	3
60	60	3
131	131	7
134	134	12
101	107	2
65	74	2
43	43	11
16	38	7
19	19	1
127	128	2
9	10	2
7	7	2
53	53	2
100	100	8
97	109	4
123	129	1
33	51	2
80	80	8
103	103	1
26	26	2
52	52	10
97	98	5
123	123	12
15	22	4
10	21	1
123	124	6
65	85	1
116	116	4
84	85	2
12	31	4
109	109	8
124	124	9
132	132	10
92	92	8
69	69	7
50	70	2
29	68	1
55	55	6
70	85	4
87	88	1
127	127	16
63	63	5
106	109	3
82	126	1
114	114	5
1	21	5
97	97	10
66	87	5
122	122	2
59	61	3
107	111	2
3	3	2
81	81	9
14	15	2
93	96	2
33	34	4
34	35	1
118	119	2
126	129	1
82	128	7
17	24	1
74	74	13
102	102	1
84	84	1
106	124	1
45	46	4
93	93	9
30	30	1
31	31	4
95	95	3
10	10	6
75	75	2
101	101	6
89	89	5
49	50	1
107	115	2
4	19	6
12	12	8
0	15	2
117	132	2
92	93	5
104	104	2
89	90	1
85	85	4
81	89	4
44	44	2
94	116	4
33	59	2
68	69	2
30	92	4
119	119	3
87	87	4
22	22	4
11	11	3
83	129	1
5	6	8
49	72	9
53	54	2
88	116	2
90	90	8
74	88	1
73	82	2
77	78	3
50	71	1
91	92	3
57	60	2
3	23	1
64	65	2
83	85	2
76	99	4
83	83	4
34	58	2
108	110	9
121	121	6
57	69	1
85	91	1
15	15	8
21	21	5
113	113	7
0	5	1
106	120	2
67	67	4
0	0	6
62	62	3
49	49	3
27	27	4
130	130	6
44	45	1
94	95	1
67	74	1
36	47	4
98	98	5
135	135	5
128	128	3
59	59	5
91	91	1
64	83	5
17	17	4
84	98	2
56	56	7
20	53	1
5	5	2
33	33	5
111	111	7
105	106	3
18	18	3
34	57	1
23	25	2
13	13	8
53	57	9
76	76	6
21	22	4
99	122	2
106	122	1
32	32	3
133	133	5
6	6	5
1	17	1
20	22	3
30	42	3
120	123	1
11	15	1
25	25	3
23	27	2
125	132	1
73	93	1
125	130	3
59	68	2
27	48	1
121	122	2
123	131	2
114	124	3
111	134	4
99	100	2
32	34	2
108	108	5
50	50	6
124	129	2
22	24	3
120	121	5
26	35	1
108	132	2
35	45	1
130	132	1
78	78	2
79	79	5
73	73	4
59	69	2
31	32	2
119	127	1
75	94	1
55	59	2
78	100	1
52	54	2
12	14	2
66	89	1
28	29	1
44	46	1
86	86	2
74	93	7
85	86	2
52	57	3
2	22	1
131	134	4
77	100	2
64	64	2
77	77	4
110	111	3
37	38	1
33	58	1
57	57	1
114	125	2
129	129	3
94	94	1
101	102	3
43	73	2
122	123	1
1	1	3
71	71	3
46	46	2
64	66	2
65	65	7
67	87	1
32	33	2
4	4	4
1	4	1
110	120	1
115	115	2
112	113	1
54	56	3
78	79	1
68	68	3
116	122	1
6	7	2
14	39	2
98	133	1
24	24	1
86	87	1
18	28	1
89	127	1
87	120	2
54	54	1
38	38	1
43	55	2
63	64	1
110	112	1
110	110	3
10	26	1
112	112	1
12	18	1
19	20	1
62	74	1
8	30	1
5	29	1
56	114	1
56	61	1
65	66	1
52	80	1
128	130	1
92	105	1
101	105	1
34	72	1
71	72	1
2	4	1
116	117	1
61	67	1
44	68	1
67	68	1
