157	157	14
117	118	6
143	176	2
27	62	6
15	161	4
97	115	3
149	150	14
83	84	2
174	176	2
90	90	2
182	183	2
20	23	3
171	172	4
55	55	3
5	5	7
114	115	6
26	26	19
67	68	3
15	27	3
155	156	9
27	27	9
54	54	16
2	3	12
88	88	9
123	128	1
179	179	15
62	62	9
124	143	1
153	153	13
189	190	9
178	178	20
93	93	6
94	94	16
66	67	1
1	1	11
190	190	10
24	25	5
161	161	8
52	52	18
121	147	7
151	151	15
124	124	10
187	187	12
40	40	16
20	20	15
184	186	2
161	164	2
163	164	23
14	14	25
72	72	30
152	152	9
146	146	19
79	79	22
147	147	10
68	68	16
172	172	16
110	110	12
51	51	16
17	18	7
43	44	7
133	134	9
59	60	5
173	174	9
43	43	24
45	45	20
133	133	13
83	83	4
149	149	17
106	106	21
11	55	2
0	17	1
155	155	16
83	110	3
120	120	8
29	30	2
148	148	9
71	71	14
57	57	12
28	28	9
37	38	5
48	48	23
119	119	14
23	23	17
186	186	16
130	130	13
118	120	1
0	0	20
127	128	8
26	27	7
13	13	7
133	154	4
120	146	4
103	103	11
64	65	1
42	43	4
180	181	13
54	55	4
101	103	8
190	192	2
181	181	14
67	67	20
109	150	2
38	38	24
10	10	29
163	163	15
69	69	25
76	76	16
132	132	10
131	131	15
125	128	1
157	158	6
142	174	1
143	143	14
40	44	1
15	18	1
150	169	1
153	154	4
115	115	10
77	78	8
176	176	17
24	24	13
53	126	2
140	190	1
139	139	14
53	53	8
194	195	6
36	36	23
46	61	2
22	22	13
107	108	7
123	141	5
137	138	6
80	80	11
65	66	1
121	122	3
179	180	2
131	139	6
151	167	4
140	141	3
32	32	7
164	165	6
117	121	7
105	107	1
108	108	10
8	23	2
48	59	6
95	117	1
6	6	7
102	102	16
70	71	4
25	25	17
53	54	6
150	150	10
117	117	15
163	165	1
141	141	19
160	190	3
104	104	18
171	171	17
63	63	16
137	137	20
129	129	23
148	165	3
106	107	2
80	81	3
136	136	12
100	100	24
8	8	12
125	127	1
164	164	12
42	42	15
124	147	2
6	8	4
129	130	3
189	189	21
73	73	7
123	125	3
130	131	5
177	177	10
96	138	8
124	184	2
53	56	3
141	142	5
73	74	2
7	7	15
78	78	7
38	122	5
15	16	1
0	18	2
5	6	3
77	77	6
89	89	12
49	49	27
34	35	5
44	44	11
58	60	6
27	30	2
16	55	1
168	168	18
124	140	2
141	197	1
128	129	2
128	128	3
30	30	21
112	112	18
87	87	8
88	89	6
194	194	7
4	4	20
176	190	3
153	157	4
85	85	13
107	107	6
50	50	9
95	160	1
33	33	19
3	3	18
142	176	3
22	23	5
19	19	6
154	154	13
99	100	8
122	125	4
178	188	2
39	39	11
101	102	3
123	123	16
116	117	7
81	81	11
4	6	1
39	51	3
162	162	12
38	51	8
192	193	4
61	62	2
6	23	2
185	185	14
82	82	15
30	120	3
45	61	3
33	34	5
98	99	4
97	97	1
119	120	6
66	66	13
111	111	5
138	138	14
121	128	3
49	50	4
58	58	10
1	3	2
193	193	16
130	139	2
35	36	1
94	95	7
159	159	17
37	64	4
155	172	3
85	111	1
16	17	3
183	183	17
145	146	3
31	31	16
127	127	12
18	20	6
81	86	5
112	113	1
138	174	8
109	109	5
40	42	4
158	159	3
74	74	8
174	174	11
160	161	8
140	140	15
31	51	1
9	9	6
122	123	4
50	57	2
95	145	7
118	149	2
55	56	6
114	114	5
21	21	12
30	31	10
151	153	1
86	86	4
196	196	11
118	119	7
156	157	4
101	101	15
56	57	5
143	144	2
156	156	19
135	143	2
131	132	8
116	116	7
11	11	5
11	12	4
15	15	9
184	184	7
165	165	9
129	140	3
144	144	2
3	23	6
158	158	12
74	75	2
195	195	11
154	155	4
29	31	2
191	192	6
23	24	9
98	189	6
47	51	3
95	148	5
70	70	11
11	16	2
63	64	1
139	191	3
117	160	1
172	175	3
36	48	1
135	135	18
105	105	5
9	16	1
94	128	2
41	41	9
37	37	3
165	167	1
59	59	8
120	121	2
182	182	7
21	22	3
31	114	6
169	170	4
157	170	3
102	103	8
169	169	11
170	170	9
36	37	6
60	85	2
98	100	5
31	161	2
174	175	5
128	160	1
58	59	2
98	197	1
117	122	4
33	49	2
113	116	3
169	171	2
87	89	1
47	47	21
169	179	1
126	126	21
22	24	1
26	146	2
125	125	9
65	120	3
150	168	1
126	127	13
75	76	3
113	113	8
97	99	3
142	142	5
123	124	3
18	18	7
105	106	5
9	17	6
137	156	2
79	80	3
31	32	7
97	123	1
76	80	6
12	15	2
45	47	2
49	64	1
29	29	16
2	2	5
24	114	1
39	40	6
113	114	8
190	191	3
39	56	1
95	129	6
39	123	3
41	42	7
152	165	7
126	131	2
180	180	12
197	197	10
95	144	4
96	96	6
129	136	1
144	145	12
78	79	3
170	171	3
134	135	1
158	160	1
151	152	10
93	95	1
61	61	10
104	106	2
12	12	16
10	40	2
30	115	2
99	99	6
27	28	5
37	45	1
118	118	6
60	60	3
124	125	2
17	17	14
13	15	2
9	10	3
139	193	2
117	119	5
40	56	1
188	188	8
82	83	1
96	150	1
16	16	12
142	178	2
176	177	2
142	169	1
84	85	4
87	88	2
39	41	1
181	182	1
175	175	8
97	138	1
173	173	10
24	31	2
142	143	1
94	145	4
84	84	4
171	196	3
89	90	5
137	159	2
160	160	6
34	34	6
38	39	4
60	61	3
132	139	2
134	134	12
106	109	2
59	62	1
99	197	3
11	164	2
25	27	1
188	189	2
172	173	2
35	35	5
190	196	2
52	65	1
107	122	5
47	60	2
195	196	4
121	123	3
125	126	1
176	178	2
97	98	4
109	110	5
175	176	4
32	34	2
2	4	6
147	164	4
97	125	4
15	17	2
55	123	4
69	77	6
82	111	1
101	107	2
96	97	2
99	104	1
5	8	6
20	24	3
154	192	1
100	101	3
65	65	10
116	118	1
192	192	18
45	46	1
93	94	2
161	162	4
108	113	1
40	45	2
46	46	10
42	44	3
173	175	3
119	164	1
142	191	1
56	56	4
10	11	2
167	167	12
20	21	9
132	148	1
182	186	4
1	2	4
80	87	6
67	69	3
159	165	1
166	166	4
193	194	1
50	51	2
64	64	9
137	144	1
45	49	3
9	40	2
116	133	1
123	140	2
104	105	4
166	167	2
149	165	3
13	14	6
167	176	5
52	54	4
40	41	6
26	36	1
44	119	2
173	195	1
95	95	7
98	98	8
121	142	2
95	96	4
138	139	1
145	145	5
192	195	2
36	39	2
118	121	2
100	110	4
133	155	2
121	121	7
146	147	1
148	166	2
122	122	6
121	145	1
180	183	1
141	188	1
168	169	8
85	86	2
96	121	1
115	133	1
27	196	1
25	26	1
114	120	2
62	64	1
128	133	1
20	22	4
18	23	1
196	197	1
98	152	2
32	65	2
18	162	2
53	65	2
118	147	1
46	120	1
6	28	1
73	76	1
142	144	1
63	65	2
8	29	1
152	153	1
75	75	1
161	163	3
19	168	2
26	101	1
2	6	5
28	29	1
8	9	2
110	111	1
62	65	1
74	81	1
93	123	2
138	141	3
113	118	1
102	113	1
44	59	1
179	188	2
45	48	1
5	7	1
147	148	1
56	61	1
96	122	1
152	157	1
141	179	1
12	44	1
117	128	1
177	178	1
149	155	2
183	184	3
164	167	1
149	158	1
137	142	1
190	195	1
167	168	1
59	63	3
117	149	3
94	147	1
191	191	5
79	85	7
107	116	5
4	5	3
46	57	1
123	167	4
27	34	3
81	87	1
98	151	1
4	7	1
124	142	1
73	147	1
47	63	2
111	163	1
129	141	1
62	71	1
112	157	2
0	181	2
108	110	1
83	87	3
0	159	2
126	184	2
99	105	1
168	174	1
140	146	1
81	82	1
70	80	1
105	150	1
120	151	1
170	180	1
99	114	1
186	196	1
115	150	1
159	160	2
143	179	1
49	60	3
86	87	1
71	74	1
14	15	1
21	25	1
134	149	1
12	17	1
40	121	1
81	84	1
104	107	1
69	70	2
144	146	1
170	172	1
9	18	1
20	124	1
96	125	2
125	165	1
4	8	1
29	99	1
74	78	2
124	139	1
8	19	1
137	160	1
125	140	1
32	35	1
131	148	1
19	20	1
123	127	1
103	105	1
130	184	1
42	124	1
186	187	2
176	189	1
6	22	1
10	42	1
120	147	1
48	55	1
53	67	1
181	188	1
185	186	2
60	62	1
109	113	2
16	19	1
78	81	1
27	99	1
36	38	1
32	118	2
38	56	1
156	171	1
80	83	1
