0	0	7
107	108	2
13	24	1
5	25	3
44	52	5
55	55	8
125	129	3
32	32	2
93	93	3
2	3	3
8	9	3
36	36	7
68	68	5
18	23	1
67	92	7
110	110	2
120	120	3
5	5	5
95	96	2
125	130	4
53	53	6
128	128	1
69	69	3
52	53	3
131	131	1
43	44	2
18	29	1
122	122	4
31	31	2
35	35	2
63	63	7
22	22	2
1	2	3
101	101	4
123	123	4
113	113	9
11	26	1
64	64	6
15	16	1
36	97	6
83	83	6
130	130	10
10	35	1
38	119	1
108	112	3
49	50	3
93	94	4
0	27	4
114	118	1
13	25	1
20	20	3
93	121	4
37	43	1
62	62	3
14	14	1
54	54	3
34	34	5
122	123	5
106	106	2
93	112	3
27	27	2
35	96	2
73	73	1
119	121	2
5	36	2
90	90	4
123	124	1
103	103	2
105	105	2
82	83	2
60	60	1
127	127	4
58	58	3
2	2	4
65	66	7
108	120	1
125	126	1
9	23	3
67	69	4
13	102	3
111	111	5
0	126	3
25	25	4
52	52	5
12	12	4
107	111	1
7	95	1
97	99	1
72	74	4
111	112	2
20	31	1
75	100	2
8	99	1
17	29	2
64	65	1
80	84	1
103	104	6
10	28	1
109	111	1
109	110	2
126	132	2
36	43	1
8	14	2
28	28	1
91	92	2
54	55	2
10	14	4
44	45	2
19	19	2
10	26	2
85	85	1
70	70	3
130	133	1
53	54	2
114	121	2
108	108	1
78	82	2
6	98	1
81	81	2
67	91	2
107	107	4
58	66	2
87	87	3
17	17	1
80	87	1
13	33	1
9	9	2
9	20	2
76	76	2
75	75	3
54	117	1
23	23	2
24	24	2
114	115	1
45	97	1
73	74	1
118	118	2
125	125	2
29	29	2
15	15	1
98	98	1
12	13	1
115	115	3
105	129	2
118	119	1
37	38	1
5	99	1
56	57	1
45	45	1
12	35	1
7	7	2
36	96	1
124	125	2
94	94	1
48	48	3
50	50	1
46	121	1
61	61	4
18	18	1
108	111	1
88	89	2
109	109	2
8	33	1
84	84	1
134	134	1
65	65	1
97	98	1
88	90	1
78	85	1
43	43	2
132	133	1
49	49	1
123	126	1
98	99	1
58	65	1
126	128	1
80	82	1
35	82	1
47	51	1
129	129	1
74	74	1
80	80	1
71	71	1
8	82	1
95	97	1
123	125	1
96	97	1
25	35	1
22	23	1
6	96	1
112	116	1
8	36	1
57	57	1
