6	6	2
71	71	1
143	144	3
148	149	2
26	26	3
110	110	9
6	39	9
1	62	3
13	166	2
38	40	3
38	38	5
27	27	8
142	142	8
161	161	9
49	49	4
0	91	3
112	112	4
18	20	4
5	18	2
105	105	11
51	51	11
113	113	6
85	85	6
158	158	10
3	3	5
17	135	5
38	41	7
81	96	4
157	157	5
119	119	15
40	40	6
138	138	6
127	128	4
24	131	4
25	25	5
159	159	8
9	9	10
56	56	17
14	20	2
78	78	5
0	0	2
114	114	7
117	139	1
18	18	4
92	94	7
111	111	8
133	162	2
13	14	3
71	72	5
145	145	3
81	81	10
98	125	3
94	94	3
158	159	5
64	64	3
82	82	3
143	143	2
54	83	4
137	138	4
166	166	3
124	124	3
97	97	4
63	64	1
168	168	4
145	169	1
37	37	8
129	131	6
53	53	5
149	149	6
108	111	3
167	167	2
47	49	2
22	22	7
133	133	8
51	55	1
118	118	2
96	96	3
169	170	2
86	86	7
70	71	7
90	91	6
122	123	5
44	49	2
11	12	1
147	148	4
8	10	1
17	18	4
100	100	5
47	47	4
24	24	4
25	52	2
79	79	7
155	155	4
139	139	4
33	35	5
130	130	19
14	15	1
93	134	4
8	8	8
90	94	1
103	103	5
20	20	2
35	35	8
73	73	1
115	140	2
15	15	5
15	16	1
150	151	3
7	9	6
84	84	4
7	7	2
39	39	3
135	136	5
19	23	1
28	135	3
69	69	4
95	95	6
90	90	12
136	145	5
17	17	11
45	45	3
93	93	4
99	103	2
12	12	5
127	127	2
106	106	6
125	125	3
89	89	3
87	88	3
98	98	3
91	91	5
104	104	1
136	136	7
34	34	1
134	147	2
121	127	2
10	10	2
87	87	1
0	57	2
160	160	1
90	113	4
43	44	10
18	117	1
12	14	1
19	168	4
122	134	1
153	153	1
41	43	5
46	46	3
87	153	1
11	167	3
2	39	2
126	126	3
154	154	4
94	95	3
45	154	2
159	160	4
13	13	6
122	122	3
109	109	2
77	93	1
74	74	3
55	55	1
155	156	3
92	92	3
80	91	1
102	102	2
150	150	4
4	6	4
24	119	2
116	116	2
123	123	8
35	36	4
55	88	1
135	135	1
101	102	1
2	2	4
56	57	3
98	100	1
134	134	2
124	125	6
106	109	2
1	1	2
164	164	2
135	138	1
43	151	2
50	50	5
79	85	1
117	117	3
162	162	2
16	16	2
94	112	1
37	38	1
14	14	3
157	158	2
99	104	2
146	147	3
76	120	1
132	132	4
152	154	1
89	90	2
156	156	3
148	148	1
17	148	2
128	128	3
11	14	2
17	158	1
108	108	11
149	150	1
113	115	4
27	147	1
139	145	2
54	89	1
52	52	2
128	129	2
78	95	2
127	134	2
163	165	1
117	122	1
117	141	1
107	108	4
36	90	4
79	84	3
47	85	3
20	21	3
70	72	2
77	77	1
33	33	2
112	113	1
122	133	1
161	164	2
1	125	1
101	101	1
121	122	1
107	107	1
70	70	1
123	147	3
99	99	1
1	2	1
54	54	4
41	41	8
76	76	1
5	5	2
80	80	2
144	144	4
56	97	1
53	55	1
137	137	5
115	116	1
36	36	2
84	85	1
163	163	1
42	42	3
44	46	4
82	107	1
1	87	2
138	154	1
94	132	1
46	49	1
151	152	1
17	143	1
52	53	2
110	155	2
68	68	1
142	143	1
74	75	1
115	122	1
152	152	2
19	120	2
83	83	1
134	135	1
14	169	1
