67	68	2
33	39	3
67	126	3
133	134	6
43	43	7
30	32	5
1	1	4
158	159	2
45	53	1
34	34	3
85	86	3
171	171	7
172	176	1
112	116	2
175	175	4
30	30	12
111	154	3
9	9	8
71	71	10
172	172	10
64	65	3
12	12	3
165	165	1
24	82	2
166	167	7
140	141	5
60	60	10
174	175	3
136	153	4
64	96	1
21	21	3
160	161	7
166	166	4
17	18	2
82	90	2
61	61	7
167	174	2
103	104	2
63	63	5
27	27	5
57	100	2
162	174	3
92	92	7
52	52	9
95	95	4
150	150	6
84	85	2
135	136	5
74	74	5
16	16	3
65	126	2
130	130	8
161	165	4
93	106	6
111	111	6
65	157	1
56	56	11
89	89	13
122	122	11
131	131	3
75	75	11
2	3	3
23	23	4
4	7	1
32	32	7
126	147	5
94	94	1
150	151	2
107	108	7
103	103	2
159	166	1
83	89	5
155	156	1
173	174	4
113	114	6
160	160	3
15	18	3
6	7	4
81	81	8
85	85	1
66	154	2
104	106	3
91	91	6
53	55	1
174	174	4
150	159	2
125	125	3
76	79	5
54	54	7
130	131	3
166	173	2
41	41	10
145	145	8
43	44	3
11	11	7
14	14	3
25	25	7
90	90	14
133	133	14
109	156	2
58	58	9
165	166	4
137	137	13
157	157	7
65	65	1
98	118	3
113	113	6
96	98	5
84	151	6
127	149	1
46	46	3
80	80	5
152	152	2
7	9	2
37	37	8
147	148	1
109	114	1
59	85	1
62	125	1
51	54	1
17	36	2
158	169	4
139	149	2
124	124	2
115	115	7
87	87	6
149	149	4
147	147	1
53	53	2
91	98	3
151	151	9
24	25	1
115	118	10
178	178	4
76	77	2
51	90	1
120	120	8
55	110	1
22	23	5
177	177	6
142	142	1
106	106	6
173	173	3
139	139	2
106	107	2
156	156	4
14	15	1
70	71	7
159	159	6
138	138	7
55	55	6
45	113	1
66	148	2
161	162	3
78	79	1
36	36	4
61	180	1
129	129	3
26	26	4
58	91	1
146	146	2
39	39	4
60	61	3
167	167	2
100	101	4
126	126	2
57	57	3
145	148	1
102	102	4
178	179	3
44	44	2
161	161	4
58	126	1
100	100	3
40	40	6
176	176	4
128	128	5
144	145	5
26	27	2
78	124	1
55	67	2
152	153	1
145	159	3
142	151	3
134	177	1
179	180	2
153	153	4
37	38	3
153	177	1
140	140	9
119	119	8
105	105	4
11	12	1
134	134	4
52	57	2
146	147	1
88	88	5
7	24	1
15	16	2
38	39	4
73	73	7
31	36	4
13	13	5
10	10	3
167	168	4
91	94	1
19	110	1
148	148	1
4	4	2
158	158	1
2	2	4
127	127	1
62	112	4
141	141	1
107	107	2
169	170	1
132	132	9
179	179	6
163	163	2
80	83	1
78	78	1
87	89	4
77	77	2
66	109	2
79	107	5
122	123	2
43	78	2
169	169	1
114	114	2
90	93	1
167	170	3
77	78	1
108	108	1
82	93	2
56	68	1
109	113	2
38	38	2
31	31	8
98	98	2
68	68	4
22	52	1
80	88	2
156	157	2
6	6	2
67	71	3
93	93	2
6	64	2
71	72	1
73	74	1
8	8	4
129	136	4
144	144	1
59	60	1
153	154	1
65	66	1
22	36	1
164	164	3
59	59	3
66	68	1
143	144	2
161	174	1
93	94	2
128	130	1
36	37	2
55	56	3
134	141	1
99	99	1
84	84	3
38	75	1
22	22	4
170	170	1
131	159	1
29	29	1
121	121	1
42	43	1
44	109	1
44	117	1
28	28	2
36	39	3
1	18	1
90	151	1
13	19	1
139	176	1
153	172	1
35	35	1
131	132	4
76	76	2
105	146	1
12	20	1
24	24	1
95	98	1
96	97	1
24	36	1
145	146	2
62	62	1
104	104	1
118	118	1
79	79	1
19	30	2
64	64	1
44	63	1
6	61	1
0	1	1
135	135	1
53	117	2
74	76	1
72	72	1
159	160	1
16	17	1
116	118	1
99	100	1
111	125	1
17	17	1
131	134	1
2	17	1
143	174	1
