184	184	4
31	50	1
38	63	5
114	119	1
151	177	2
152	152	5
53	58	9
160	160	9
134	134	4
161	161	4
148	149	7
59	61	3
66	66	7
12	177	6
1	1	11
54	54	8
131	134	4
2	2	8
4	46	2
160	162	1
131	131	11
150	152	2
189	189	7
51	58	4
96	97	5
171	171	13
87	87	10
88	89	5
155	157	6
122	122	6
100	100	10
102	106	4
23	25	1
150	150	11
99	99	3
21	21	6
180	180	3
10	10	10
142	142	6
110	111	8
158	158	13
84	85	3
113	182	1
27	150	4
88	88	4
42	75	1
139	140	3
165	169	1
177	181	4
32	32	14
78	83	3
50	50	8
173	174	4
101	138	1
67	67	7
76	76	10
113	114	6
144	144	4
117	118	3
187	187	15
162	164	2
104	115	3
29	30	4
7	7	9
114	176	1
20	21	3
161	163	1
65	186	2
53	53	19
3	3	13
72	72	7
14	16	3
11	56	3
105	105	9
54	56	8
183	183	10
110	110	9
60	60	4
35	35	7
96	96	6
0	36	1
7	34	1
14	45	5
65	65	4
197	197	7
25	25	11
180	181	4
117	117	9
83	83	4
112	112	13
108	135	2
137	137	5
85	85	7
0	0	3
107	107	11
30	141	4
54	118	3
102	102	1
3	4	6
34	34	7
32	112	2
13	47	3
135	136	1
47	47	9
52	53	3
78	78	6
153	188	5
160	164	1
17	56	3
156	157	3
36	36	8
138	139	10
125	125	3
8	82	1
166	166	3
134	187	1
25	165	2
64	64	10
107	110	3
103	162	1
114	114	9
184	185	1
0	1	4
18	20	7
146	163	2
34	37	1
0	2	4
83	84	3
173	173	7
179	179	2
67	133	2
176	176	6
17	17	1
84	84	11
145	145	10
105	106	2
132	132	6
133	133	9
118	118	7
55	56	4
40	45	3
21	165	1
82	82	1
126	126	3
67	134	2
16	33	1
38	51	3
119	173	4
141	141	5
30	30	1
50	51	2
128	128	5
138	138	4
102	105	3
34	55	2
185	186	5
103	158	1
164	164	5
159	159	7
48	49	3
79	79	4
8	8	2
123	123	4
2	68	3
11	11	5
151	151	6
89	109	2
144	184	2
20	20	4
70	70	5
18	18	7
186	188	1
23	23	10
129	129	8
102	103	7
26	27	4
106	171	3
162	162	7
15	101	2
43	44	1
56	57	3
134	154	2
47	48	3
14	14	12
147	147	2
100	101	5
15	55	3
71	71	14
41	89	2
21	78	4
189	190	3
38	39	2
21	43	3
118	119	2
74	74	3
104	175	6
124	143	1
9	18	4
116	118	1
22	22	3
101	114	2
45	45	1
69	70	4
93	161	2
68	68	3
18	43	2
169	169	5
108	108	7
6	6	6
135	135	1
111	111	5
46	46	8
177	177	1
58	58	6
120	154	1
176	177	3
122	123	4
150	177	1
123	157	1
13	39	2
62	73	3
29	37	2
3	192	3
73	73	7
188	188	3
80	80	6
1	2	4
15	15	3
36	37	2
166	189	6
5	5	3
70	71	7
76	77	1
193	193	3
30	32	3
8	15	5
40	40	4
26	153	5
17	19	2
22	24	3
182	182	3
123	133	1
64	187	2
192	193	1
17	18	6
59	59	9
21	23	4
15	34	3
100	151	5
4	4	4
172	172	7
143	173	2
144	145	1
1	20	2
167	168	4
60	72	2
34	83	1
104	104	5
136	136	9
5	22	2
11	53	3
170	170	1
61	62	2
103	103	3
124	126	1
5	7	5
39	39	6
178	183	3
36	42	3
65	178	2
52	73	1
66	74	2
120	120	4
109	110	4
38	38	1
165	172	6
97	98	3
180	182	3
61	61	7
44	58	3
157	157	5
124	125	5
116	136	4
178	182	2
50	107	1
112	192	5
16	16	4
41	42	4
196	196	5
71	74	2
42	42	1
133	181	5
186	186	6
59	72	1
11	18	1
68	72	3
37	87	4
153	153	4
34	35	4
33	33	1
127	127	1
139	139	4
142	195	1
165	165	5
51	53	3
146	146	6
181	181	1
182	183	4
12	12	3
101	113	1
172	175	1
9	44	2
89	127	1
0	65	2
42	44	3
167	167	6
29	29	9
192	192	2
121	121	2
101	102	3
148	148	2
58	59	3
134	140	1
121	151	4
80	86	2
48	48	5
100	116	2
16	53	3
143	144	2
194	194	2
3	44	4
106	115	2
27	100	5
95	95	10
154	154	3
181	192	2
33	34	2
146	148	2
5	8	1
62	63	10
152	153	4
46	50	1
124	124	2
28	63	1
24	24	4
81	81	5
151	194	3
97	97	3
97	119	1
38	43	2
144	179	2
19	20	2
94	98	1
149	184	1
94	94	8
96	118	1
178	180	1
179	194	2
108	138	1
87	103	1
163	177	2
69	72	2
150	188	3
120	121	5
69	71	2
63	169	2
44	44	8
87	90	2
123	130	1
94	151	1
27	187	1
142	175	5
89	89	2
61	63	2
1	22	2
175	175	1
31	31	4
66	67	1
114	120	3
173	191	1
57	57	6
140	178	2
33	63	3
126	128	3
116	120	1
6	7	5
40	42	4
107	169	1
131	185	1
82	83	2
3	5	1
63	63	2
149	149	1
123	185	3
32	50	1
160	163	1
9	9	2
94	96	1
89	102	1
54	55	1
176	182	1
177	179	4
58	73	1
140	140	2
130	130	3
13	13	6
178	179	1
37	37	5
124	127	1
158	188	1
20	46	4
155	161	2
39	56	5
58	71	1
125	133	1
62	62	4
86	86	1
156	156	1
166	170	3
56	56	1
2	4	1
41	43	1
22	25	1
41	41	2
43	43	3
69	69	3
3	6	3
81	82	3
5	64	1
106	106	1
98	98	2
77	77	1
115	116	1
156	171	1
98	100	3
147	149	2
155	155	1
48	110	2
26	162	1
143	179	2
137	148	1
12	49	5
128	182	3
58	61	1
64	185	1
145	146	2
109	111	1
181	182	1
51	51	2
173	175	1
95	96	2
122	146	1
118	139	1
149	150	1
17	187	1
26	26	3
0	35	1
174	175	3
179	180	1
100	188	1
40	41	2
13	38	2
119	133	1
55	63	1
21	70	2
105	166	1
151	195	1
39	43	1
59	60	1
193	194	1
178	178	1
145	167	1
65	66	1
23	60	3
33	43	1
123	124	1
31	37	1
30	31	1
51	106	1
12	39	1
93	151	2
132	182	1
94	150	2
183	184	1
106	114	1
185	185	1
5	71	1
40	46	1
135	147	1
19	19	3
192	194	1
53	130	1
148	156	2
1	46	2
67	68	1
55	131	1
173	183	2
68	186	1
60	109	1
57	58	1
173	189	1
3	7	2
117	119	1
140	157	1
51	102	1
28	28	1
15	30	1
139	149	1
191	191	1
127	128	1
119	120	2
101	101	1
65	190	1
196	197	1
128	141	1
8	62	1
171	172	2
111	112	2
81	88	1
101	195	1
15	111	1
120	135	1
88	90	1
76	95	1
108	109	1
143	174	1
107	154	1
66	100	1
115	181	1
16	31	1
52	52	1
166	167	1
81	83	1
124	186	1
126	196	1
152	168	1
144	182	1
107	172	1
158	189	1
132	154	1
111	140	1
159	171	1
187	188	1
15	73	1
15	16	1
