63	63	35
91	91	36
65	65	26
22	72	8
23	24	10
24	24	18
35	39	2
57	57	21
44	44	37
73	73	37
38	40	6
45	45	19
82	83	23
54	54	39
101	101	34
21	21	37
53	53	26
78	83	2
68	69	16
89	89	60
92	100	5
58	60	10
41	42	16
82	82	32
30	30	39
71	75	4
79	79	52
43	44	8
94	94	35
38	38	35
107	107	11
87	87	16
24	50	9
51	51	37
92	92	20
40	40	28
58	58	17
80	80	27
30	31	7
70	71	5
76	76	25
69	70	8
96	96	37
43	43	35
104	104	31
66	80	5
57	58	8
102	102	27
93	93	46
26	27	19
61	61	21
66	106	3
73	74	16
79	80	16
40	56	11
98	99	12
76	77	9
102	103	20
35	35	41
37	40	4
52	53	15
46	82	5
49	49	48
33	33	27
32	32	37
78	78	35
20	20	9
67	67	20
28	28	11
75	76	7
21	28	2
81	84	3
85	87	3
100	100	19
31	32	11
55	55	20
89	90	17
85	85	35
45	46	4
34	84	1
94	95	8
29	29	33
97	97	30
67	68	2
90	90	35
71	101	3
81	81	39
86	86	31
68	68	29
97	99	6
46	55	1
98	98	17
41	41	27
53	57	8
84	84	37
105	105	21
32	33	9
58	59	15
80	88	1
47	48	8
24	25	11
84	85	33
42	43	6
66	67	17
37	38	15
103	103	25
90	106	3
81	82	6
74	78	1
41	100	1
42	42	22
62	69	2
50	50	49
59	59	40
34	34	50
74	74	27
60	67	3
48	48	23
91	100	3
66	66	25
78	79	9
65	66	12
52	52	40
79	81	6
95	95	31
48	82	3
62	62	35
67	93	3
73	80	3
27	80	1
72	72	30
56	56	34
55	56	12
61	62	15
51	52	9
61	83	1
64	64	30
78	82	6
44	54	3
73	75	6
47	49	3
57	68	4
99	99	28
27	85	3
75	75	43
36	36	14
71	71	32
62	63	27
102	104	1
23	23	50
43	98	2
69	69	46
27	27	25
22	22	38
30	82	6
77	102	7
74	75	15
31	31	26
80	81	5
27	31	7
72	80	1
62	79	3
25	28	11
60	60	20
100	101	14
88	89	8
57	59	7
44	45	13
26	26	17
50	105	8
77	78	5
77	77	22
54	86	3
78	98	2
70	70	18
42	44	5
39	39	22
59	96	2
79	89	1
32	34	5
35	45	2
66	70	3
61	88	2
61	72	5
28	30	2
83	84	19
92	93	9
25	25	27
37	66	3
34	85	3
88	88	12
83	83	23
59	60	10
81	83	2
52	103	1
41	43	6
72	100	4
50	104	2
40	85	7
42	54	2
34	38	3
74	97	1
32	41	2
32	81	6
106	106	22
79	88	4
37	99	3
48	49	6
92	94	2
50	89	3
46	49	4
47	47	10
92	102	9
34	99	4
75	77	2
68	70	1
96	101	1
30	45	1
53	58	5
59	67	2
92	101	4
53	54	2
84	86	5
48	106	2
34	79	4
54	55	3
37	37	17
39	40	7
95	96	4
35	36	7
91	92	14
65	75	5
51	103	2
72	73	12
53	104	6
69	73	3
36	57	2
56	95	2
63	76	1
86	87	4
21	22	2
33	34	5
29	89	1
106	107	3
40	41	9
21	38	2
46	46	9
46	47	6
63	64	12
23	54	3
31	65	3
21	43	2
26	29	4
56	83	5
44	84	7
40	94	5
61	71	3
51	106	1
63	89	5
36	37	9
65	80	1
22	29	3
45	47	2
29	45	2
22	88	4
24	79	1
42	45	4
51	105	5
21	89	3
49	56	3
40	54	5
21	60	2
38	47	2
50	52	2
35	50	8
54	83	2
40	44	14
39	59	2
49	50	6
36	51	1
71	73	6
33	60	2
20	21	2
74	76	4
85	86	2
22	48	6
34	50	1
60	83	2
89	91	3
26	44	5
28	29	2
52	55	6
22	90	4
26	31	2
27	29	2
20	26	4
34	60	3
40	42	6
87	98	3
50	51	6
74	92	2
38	39	5
40	45	1
33	35	2
95	100	1
66	71	5
22	82	1
90	92	2
73	77	5
84	88	3
43	56	1
68	93	2
61	77	2
71	72	6
22	24	5
25	81	1
35	91	2
72	74	2
25	106	1
67	69	2
101	102	3
105	106	4
22	23	6
69	105	7
93	94	4
60	84	2
51	94	3
99	100	3
90	91	7
20	28	1
103	104	3
94	100	2
56	57	10
35	51	2
78	97	3
90	93	2
33	38	1
22	50	2
88	90	3
39	41	1
20	103	2
62	68	1
94	99	1
45	56	4
23	94	2
70	72	3
53	55	2
27	28	4
36	39	1
51	93	1
73	78	1
20	69	2
30	89	1
60	61	3
26	89	3
44	86	2
86	88	2
60	82	2
87	106	1
64	94	1
46	56	3
37	78	1
23	78	1
56	81	1
75	104	2
21	61	1
83	86	2
50	54	1
55	84	2
61	63	1
45	49	3
23	50	3
36	40	4
21	29	1
55	73	1
25	27	3
37	39	3
65	93	1
74	77	3
23	90	1
24	54	5
66	79	2
33	49	2
43	48	3
23	91	1
91	94	2
33	84	1
35	86	2
69	72	2
71	97	1
97	98	2
68	71	3
22	89	1
51	54	1
104	105	2
34	49	1
31	33	1
30	103	2
60	97	3
39	45	2
100	102	1
82	85	3
33	58	1
22	66	2
48	80	1
25	54	2
24	78	1
56	76	3
24	45	1
53	106	2
34	35	1
61	89	1
31	89	1
39	44	1
72	97	2
27	89	3
59	97	3
28	33	1
37	51	2
97	100	1
64	79	4
30	85	4
25	88	1
70	73	1
83	85	3
22	107	2
100	103	2
52	57	1
22	38	1
82	88	2
93	102	1
29	31	1
22	99	1
44	89	1
29	30	2
50	106	2
63	95	2
26	53	1
29	34	1
35	84	1
77	90	4
49	106	1
43	58	2
87	88	5
78	80	1
28	81	1
76	104	1
39	46	1
29	84	1
63	86	1
40	100	2
28	89	1
22	106	1
24	106	1
22	37	1
58	76	1
105	107	1
32	51	1
88	106	1
84	87	2
56	71	1
94	101	4
25	29	1
38	48	1
32	100	1
64	65	1
22	26	1
21	66	1
54	68	1
45	102	1
24	80	1
64	93	1
80	95	1
37	80	1
30	44	1
62	67	1
74	89	1
