28	28	15
24	24	7
57	57	16
66	66	7
22	23	6
40	67	3
36	38	2
2	9	4
7	10	2
52	53	9
29	69	5
19	22	6
24	58	1
64	67	2
2	2	10
66	67	5
41	76	3
21	74	2
26	34	2
75	75	6
51	51	6
39	40	2
52	52	2
3	4	1
44	44	13
19	19	6
27	42	1
0	26	2
24	25	11
56	56	9
58	58	10
76	77	3
34	34	8
4	4	10
55	73	3
46	46	6
61	67	3
47	47	8
5	6	14
26	26	5
41	57	2
67	67	15
40	40	5
77	77	6
6	7	11
3	3	6
1	10	3
25	26	2
60	75	5
8	8	9
7	20	7
50	50	10
69	69	5
37	37	22
41	41	10
13	13	1
32	32	8
73	73	19
72	72	7
33	36	9
23	32	2
22	56	2
35	35	8
36	36	3
50	71	3
39	41	3
42	42	7
31	31	13
37	56	3
40	74	3
19	51	2
76	76	7
11	12	5
38	54	1
34	35	7
8	9	3
21	26	3
42	58	6
45	45	6
45	47	2
1	2	1
65	66	4
8	13	3
68	74	2
64	64	8
46	47	2
61	69	2
22	22	9
69	74	4
71	72	5
1	3	2
53	58	2
4	12	6
28	42	1
50	51	7
19	26	3
27	27	9
45	49	1
53	53	11
47	65	3
74	74	7
8	10	2
21	21	8
6	29	4
5	5	2
37	69	2
65	65	2
30	30	11
18	28	4
5	29	2
24	42	3
5	10	6
49	76	6
57	72	1
23	23	5
23	26	1
21	25	3
71	71	2
66	74	3
70	73	3
23	74	1
15	15	1
55	55	7
28	69	2
24	36	1
14	22	1
9	9	1
11	11	10
1	1	2
40	41	1
2	12	4
46	75	4
63	63	4
52	54	2
25	60	1
68	70	3
10	32	2
68	75	3
23	37	1
23	38	5
64	75	3
19	37	1
59	59	3
26	27	2
61	68	3
18	56	2
42	60	3
37	57	2
8	30	1
5	13	1
48	48	4
29	47	2
20	36	1
6	30	2
43	56	3
63	75	2
49	49	6
23	43	3
9	13	2
61	63	3
71	75	1
23	25	2
13	43	2
30	31	1
38	38	6
43	43	2
41	42	3
19	34	3
19	20	1
49	52	1
1	4	4
6	6	3
19	62	1
26	29	2
25	25	4
54	54	4
14	14	2
55	77	3
49	62	1
9	29	1
46	50	1
36	39	1
75	77	3
28	48	3
60	60	4
72	73	4
0	8	2
23	30	2
29	29	2
72	74	1
20	20	2
70	71	2
0	1	1
35	39	2
29	35	1
12	12	2
39	39	5
26	42	3
39	57	1
32	52	2
3	13	3
48	72	1
38	51	1
3	5	1
12	36	1
33	48	1
62	66	2
57	73	1
66	76	2
41	75	3
64	66	1
49	54	1
34	71	2
34	38	1
47	48	1
23	57	1
19	29	1
30	35	1
28	47	2
68	68	4
68	71	1
61	61	1
49	50	1
31	51	1
55	72	1
35	36	1
64	68	1
42	45	1
34	75	1
37	40	1
