30	30	10
21	21	3
95	95	6
111	111	9
5	11	4
129	129	4
18	32	1
104	104	2
76	76	5
26	26	12
88	88	3
127	129	5
79	80	5
20	20	11
1	3	3
107	108	5
101	101	8
124	124	9
130	130	4
7	7	6
98	98	7
10	10	5
140	140	4
36	126	4
8	93	2
15	21	2
91	91	9
24	24	3
114	114	4
37	98	2
117	118	5
17	18	1
24	25	2
92	93	7
15	15	10
102	115	2
13	98	2
126	126	5
75	75	2
90	90	1
29	32	3
28	28	5
2	2	3
83	83	3
36	36	4
122	122	3
14	14	4
81	81	10
27	27	5
118	119	6
87	87	6
79	81	2
22	22	3
96	97	1
80	81	2
134	134	2
80	112	1
11	11	5
71	101	2
84	113	2
12	21	4
100	100	4
72	72	6
73	73	2
93	93	9
86	114	1
133	133	1
92	92	2
71	116	3
116	116	5
112	113	5
96	96	4
128	128	4
73	117	2
111	113	2
120	120	8
128	129	2
80	83	1
75	107	3
16	19	2
90	93	2
79	79	1
137	138	1
106	106	4
102	102	2
86	87	2
9	66	1
122	124	3
119	124	5
76	105	1
121	122	1
127	127	11
34	35	1
108	109	3
29	29	3
31	31	4
33	33	3
75	118	1
35	35	6
9	20	6
1	1	3
81	85	1
121	121	2
17	17	6
34	34	6
99	99	1
109	110	2
118	122	3
82	82	4
2	4	1
110	110	2
131	131	1
74	117	1
72	117	6
7	8	2
8	32	2
77	77	3
84	84	2
19	19	2
5	5	1
38	38	4
78	101	2
23	23	3
20	21	4
74	101	2
98	99	3
85	113	1
139	140	3
16	28	6
103	104	1
87	104	2
89	89	4
15	17	1
119	119	2
123	123	1
104	117	1
90	92	4
83	86	1
25	27	1
16	16	3
71	130	2
123	124	2
68	68	2
130	131	1
75	123	1
19	20	2
135	135	1
18	18	3
8	9	4
124	125	3
21	38	1
122	123	1
109	109	4
36	97	1
37	37	2
33	96	3
81	83	1
108	108	1
29	31	2
78	78	1
107	107	4
17	20	2
116	129	2
71	118	1
126	131	1
101	102	1
9	19	1
31	88	2
22	23	2
82	83	1
115	115	1
74	118	1
117	129	1
116	117	1
76	107	1
3	3	1
36	37	2
95	96	1
103	103	1
6	95	1
15	22	1
25	25	2
10	15	1
125	125	1
136	136	2
110	113	1
113	113	2
30	32	1
12	14	3
138	138	1
31	32	1
87	101	2
8	19	1
77	104	1
12	22	1
105	105	1
8	91	1
132	132	1
97	97	1
83	113	1
33	34	1
86	86	1
