39	40	8
26	26	9
74	74	2
139	141	8
20	20	2
139	139	6
23	24	2
138	140	1
128	129	2
112	132	2
129	129	9
48	70	1
32	33	2
145	145	8
96	96	3
63	103	1
134	134	3
14	14	3
5	5	10
32	32	3
4	5	2
80	87	1
10	10	2
72	72	5
20	21	3
153	154	5
54	55	2
12	12	1
115	115	9
129	130	4
29	29	8
142	144	5
55	65	3
58	58	4
55	55	1
9	9	3
149	150	3
3	34	3
146	151	3
135	136	1
118	118	6
4	4	2
123	149	4
76	77	4
32	37	1
64	65	3
87	87	5
64	68	2
78	95	2
128	128	6
136	136	1
35	36	3
67	67	6
71	71	4
67	68	1
7	104	1
152	152	3
22	23	3
113	141	2
17	17	8
22	22	4
3	3	4
6	9	4
142	143	5
80	80	4
48	48	3
150	150	3
133	133	3
40	40	3
27	29	3
23	23	3
51	51	3
53	54	5
16	16	3
85	85	4
39	39	3
117	118	2
99	100	2
61	137	3
141	142	1
114	115	4
112	113	1
119	119	3
53	53	6
153	153	4
127	127	1
108	144	1
68	69	3
50	50	6
7	7	1
121	121	3
140	140	7
120	122	1
112	112	11
48	112	1
147	147	2
2	2	3
19	24	3
42	42	8
135	135	3
104	104	2
37	37	3
108	108	7
17	19	5
18	18	2
99	99	1
69	69	2
138	138	3
98	99	3
132	132	5
144	144	7
103	103	6
54	93	2
62	102	2
143	143	3
129	131	1
131	132	2
27	27	1
55	61	2
94	94	2
108	110	2
79	80	3
36	90	1
105	106	3
115	116	3
123	123	1
12	14	2
66	66	8
33	33	3
87	88	2
89	89	1
97	98	2
15	15	1
151	151	5
38	38	2
122	143	6
95	95	1
21	21	2
46	46	2
120	120	1
73	73	2
25	25	5
55	58	1
6	6	2
24	24	3
57	57	2
114	114	2
12	13	1
11	11	1
21	37	3
70	70	2
132	134	1
106	106	5
123	124	1
138	139	3
83	84	3
107	118	1
68	68	4
124	125	1
81	82	1
28	29	1
154	154	3
13	17	1
54	54	2
43	53	1
84	84	2
36	36	1
119	120	4
65	66	4
97	97	4
126	141	4
19	19	1
81	81	3
76	76	3
144	145	1
146	146	6
8	8	3
43	46	1
130	130	3
38	40	1
113	113	6
7	105	3
123	125	2
71	75	1
35	35	3
150	151	1
31	32	1
94	96	1
3	4	1
45	45	3
103	142	1
48	50	1
113	116	1
109	110	1
117	117	2
125	125	1
71	72	3
26	27	2
73	74	2
71	96	2
82	82	3
148	150	3
146	149	1
46	48	1
14	15	4
130	141	1
5	6	3
85	86	1
132	133	1
13	13	1
43	54	2
36	38	2
107	107	1
62	63	1
8	10	1
125	150	1
8	9	1
12	29	1
38	43	1
78	78	3
77	88	2
110	110	1
93	93	1
6	106	2
80	82	2
4	9	1
122	123	3
69	70	1
113	142	1
143	145	1
5	8	1
45	46	1
111	112	3
70	112	1
142	142	1
98	98	1
30	30	1
29	30	1
115	145	1
10	30	1
74	77	1
96	99	1
109	113	1
95	98	2
94	95	2
109	132	1
130	132	1
24	39	1
94	99	1
148	148	1
