12	12	7
23	23	5
136	136	2
43	110	1
76	78	3
107	108	5
7	7	9
130	130	9
159	159	3
50	51	2
134	135	3
58	63	1
127	128	3
101	102	3
139	149	2
106	165	6
145	146	3
18	18	3
95	95	1
55	55	1
48	48	2
65	65	2
120	169	2
162	162	3
123	123	5
113	114	4
164	165	2
140	140	1
137	137	1
164	164	4
46	143	5
56	56	6
108	109	5
69	69	3
86	86	6
116	116	5
51	51	1
117	118	1
113	113	2
114	114	8
107	107	6
17	17	4
15	16	1
56	80	2
131	147	4
137	143	3
71	71	4
151	151	4
144	145	2
98	98	9
156	156	10
130	131	3
108	108	7
98	99	5
128	129	4
8	10	1
102	102	9
151	152	5
95	96	1
74	74	5
111	111	4
1	2	2
115	116	3
0	45	2
15	15	12
13	13	2
128	128	6
75	75	4
133	133	10
110	110	2
112	112	10
37	38	3
114	115	2
36	37	4
44	44	4
123	127	5
27	34	4
65	66	2
83	83	6
88	88	6
155	155	4
132	132	11
124	124	5
76	111	1
39	39	4
16	20	2
152	154	2
41	56	5
1	1	7
88	90	1
25	25	7
17	18	3
113	156	2
131	131	4
14	15	3
100	100	3
43	43	8
40	40	6
144	144	5
94	143	1
143	143	6
151	167	1
24	25	1
82	83	3
34	35	1
139	139	3
84	84	5
5	5	3
120	154	1
94	152	1
122	122	3
160	167	3
141	141	2
126	132	2
7	8	3
167	167	2
79	79	1
169	169	4
138	138	3
7	45	3
111	157	1
125	126	3
8	8	1
35	35	3
78	79	1
45	45	5
10	10	6
16	148	1
118	118	5
75	76	1
7	46	1
80	83	3
161	161	3
80	80	2
67	67	1
2	14	1
105	105	7
121	121	4
106	106	4
58	65	1
53	83	1
16	16	5
163	163	2
153	153	1
36	36	3
50	50	3
19	20	1
129	129	2
166	166	2
41	52	1
137	139	3
132	136	1
10	17	2
81	150	1
122	144	2
152	153	2
78	78	4
57	62	2
44	139	3
40	41	2
168	169	2
57	63	1
83	84	7
126	126	5
53	53	4
6	6	4
52	52	1
77	77	2
37	170	1
101	101	5
47	48	5
118	119	3
90	90	1
85	140	2
158	158	1
0	1	2
9	9	4
40	47	1
42	112	1
62	64	2
94	94	3
22	24	5
72	72	1
38	38	1
44	68	1
100	101	2
109	109	3
126	127	1
146	146	5
20	20	3
133	134	2
122	128	2
26	26	1
41	43	1
120	121	1
41	41	1
64	64	1
70	70	2
119	152	2
97	98	1
66	69	1
24	24	1
89	89	4
87	87	4
39	40	2
81	81	4
75	98	1
57	57	2
93	94	2
117	117	3
161	162	2
79	147	1
139	143	2
136	137	1
115	115	2
141	142	1
128	130	1
1	37	1
90	91	1
51	87	1
149	149	1
82	82	2
72	101	1
131	132	2
126	143	1
19	19	1
99	99	4
44	109	1
97	97	4
103	103	2
95	99	1
39	42	1
74	75	1
18	19	1
40	115	1
147	148	1
74	118	1
157	157	1
124	155	1
39	41	1
125	125	3
55	151	1
4	84	1
13	15	1
135	135	1
11	149	1
53	54	2
33	33	2
95	98	1
97	145	1
140	143	2
84	90	1
27	27	2
8	12	1
52	53	1
45	46	1
147	151	1
83	164	1
47	47	1
22	22	1
4	5	1
0	0	1
27	28	1
0	38	1
24	26	1
14	14	1
3	3	2
53	89	1
123	124	1
44	164	1
127	127	2
21	21	1
11	11	1
79	84	1
46	144	1
49	54	1
150	150	1
