169	169	6
71	71	1
115	120	3
189	190	5
181	186	1
23	24	4
136	136	8
116	117	2
30	31	5
34	34	3
15	60	3
48	48	5
190	190	4
167	181	4
183	185	3
142	142	6
56	56	2
141	141	9
76	76	4
148	149	1
28	28	8
67	67	7
4	4	4
136	137	1
60	60	4
33	179	1
46	47	6
191	191	2
1	79	2
124	124	3
70	70	6
85	87	2
171	171	12
80	80	4
123	123	7
45	45	8
39	40	2
1	1	1
70	73	3
95	98	3
117	117	1
160	160	9
110	159	2
174	175	5
5	81	5
57	57	5
26	93	3
89	89	2
139	140	5
107	108	2
108	108	3
105	105	6
138	138	2
58	58	1
116	132	3
43	126	1
100	100	10
115	115	5
172	172	1
137	159	1
3	4	2
40	40	6
24	93	2
29	29	1
109	154	3
94	94	3
145	145	2
146	147	2
87	87	10
153	159	4
8	38	7
31	31	2
163	174	1
65	86	3
178	179	2
112	112	1
121	121	4
165	165	4
145	146	2
126	126	4
111	172	2
62	63	1
155	155	4
11	12	4
21	21	2
193	193	5
110	110	5
147	147	6
173	174	2
50	184	4
177	177	10
152	152	2
43	43	3
66	66	4
81	81	5
192	193	5
8	8	4
130	195	1
55	55	2
153	155	1
131	135	3
36	36	11
13	13	5
62	62	7
149	150	8
104	104	4
116	116	5
179	179	1
187	189	2
100	121	2
67	68	3
134	135	3
24	24	3
125	125	3
188	189	1
51	52	3
65	65	1
5	8	7
68	68	10
183	194	4
12	15	1
112	113	3
143	143	2
28	36	2
104	145	3
144	155	2
119	179	4
3	3	2
63	64	2
134	134	5
44	44	2
70	71	1
14	76	1
185	185	4
54	128	1
128	128	6
12	12	3
10	10	3
73	73	7
124	126	2
142	150	3
32	32	4
44	63	1
154	155	2
23	23	2
22	22	6
129	129	6
175	177	3
196	196	1
2	2	1
177	179	1
6	7	1
41	41	2
106	106	2
36	37	2
194	194	3
171	173	2
189	193	3
175	175	2
122	122	5
49	52	1
118	166	6
19	24	1
111	141	3
126	130	1
0	0	9
103	103	4
139	139	1
43	68	1
126	136	1
77	77	1
120	172	1
20	60	6
181	181	3
107	107	8
175	179	1
38	38	1
197	197	2
146	146	2
126	134	2
50	51	2
37	37	5
109	109	1
49	51	2
158	158	1
71	72	1
54	55	2
187	187	5
149	149	1
30	30	1
176	176	2
47	47	3
50	50	3
166	175	2
70	93	2
75	75	1
163	163	1
2	78	1
18	18	1
161	175	2
94	148	2
130	131	2
43	67	1
187	190	1
16	69	3
65	99	1
124	140	1
123	143	1
0	1	1
130	130	2
27	95	2
42	84	1
15	16	1
115	116	1
184	184	3
82	82	2
7	74	3
72	93	2
188	188	2
150	150	1
23	33	1
72	72	6
32	33	1
135	136	2
112	140	3
70	75	1
150	151	1
121	123	1
51	51	5
35	84	2
99	99	3
54	54	1
127	134	3
66	67	1
11	137	2
126	133	2
180	191	1
179	180	1
22	75	1
131	131	1
98	98	2
40	46	1
61	61	2
31	39	3
12	77	1
165	166	1
116	119	1
6	40	2
97	97	2
18	19	1
162	178	1
54	59	1
156	156	2
7	7	1
23	67	2
173	173	2
11	11	1
79	183	1
135	135	1
196	197	2
46	46	1
39	39	1
90	90	1
154	154	1
149	153	1
14	14	3
109	112	2
54	127	1
111	111	1
119	119	1
114	114	2
94	106	1
27	37	1
137	170	2
169	170	1
15	15	1
11	76	1
173	176	1
20	20	1
49	50	1
44	46	1
127	155	2
5	37	1
16	17	1
72	73	1
69	69	1
4	80	1
49	49	1
27	28	1
63	63	1
78	78	1
19	28	1
63	86	1
9	9	1
74	74	2
185	186	1
37	38	1
44	56	1
89	90	1
180	180	1
