28	30	3
210	213	5
199	203	3
209	215	6
71	75	2
208	217	2
20	20	3
28	28	4
233	234	5
187	190	4
16	25	2
121	129	4
195	199	1
133	135	1
159	159	6
69	69	9
78	111	6
6	9	4
198	204	4
22	24	8
74	83	2
241	241	12
227	227	12
126	128	1
140	140	3
7	15	7
167	177	5
98	100	2
171	171	6
238	240	8
96	103	1
6	8	8
235	236	4
221	230	4
111	119	2
213	214	4
42	45	4
99	101	1
205	208	3
109	118	3
234	238	3
45	46	2
154	155	10
155	156	5
4	6	6
79	81	2
3	3	8
81	81	11
26	27	4
15	24	7
207	208	3
186	186	8
22	23	3
43	61	2
108	112	4
70	70	3
97	104	1
162	162	5
145	153	3
236	236	6
146	146	6
25	27	4
159	160	4
25	28	6
42	47	3
55	60	2
69	79	1
138	139	4
239	241	5
145	157	3
150	152	2
234	235	2
34	43	7
30	30	2
1	1	3
57	57	5
22	22	2
231	233	5
155	157	4
157	170	4
108	108	7
212	212	12
141	141	15
76	82	3
217	217	4
98	101	3
151	151	5
16	16	4
1	4	5
214	217	3
122	122	10
84	84	8
11	11	3
54	57	1
167	167	9
22	28	4
136	136	5
4	12	1
208	210	4
192	192	4
165	169	2
201	201	4
164	168	2
175	175	4
145	147	4
46	46	7
37	37	2
145	151	4
173	175	1
198	199	1
0	6	7
219	228	5
121	125	7
109	109	7
69	70	6
179	179	4
12	12	7
202	209	7
34	35	3
136	142	8
197	197	10
104	106	4
16	17	8
170	170	8
8	14	8
183	185	3
5	11	1
169	169	13
48	56	2
58	59	1
104	104	5
208	209	6
217	219	6
176	178	2
30	31	4
134	134	3
66	67	1
64	65	5
150	151	4
187	187	6
7	7	4
191	194	2
108	109	7
85	85	5
8	8	3
172	176	2
2	13	1
14	24	4
191	197	5
41	42	2
9	10	2
139	139	1
170	171	2
23	23	11
211	211	5
52	62	6
203	203	6
140	148	2
113	116	2
178	181	6
215	216	5
26	29	3
27	30	7
54	54	9
51	52	3
161	173	1
74	79	2
140	142	2
215	215	7
14	20	1
71	71	7
146	147	2
71	81	5
103	111	2
234	236	4
128	129	6
220	225	1
50	63	2
116	120	2
122	128	4
150	154	6
31	31	5
125	125	1
220	221	6
221	221	8
44	45	1
69	77	2
225	225	7
62	68	1
68	68	5
42	42	11
81	85	3
216	224	2
145	149	3
24	25	3
13	13	3
134	135	2
179	183	5
231	236	6
128	136	3
169	172	6
201	202	9
187	189	3
51	54	10
70	76	7
232	234	8
20	24	3
230	233	2
4	9	7
194	194	5
73	78	5
114	116	1
111	118	1
226	227	5
150	160	3
238	239	5
128	128	4
79	83	4
0	1	3
232	232	4
19	24	2
23	26	7
33	37	1
43	43	5
224	225	7
72	79	1
12	19	3
31	36	5
197	198	1
74	76	2
113	117	2
117	121	2
67	76	1
193	193	5
146	153	5
99	106	2
141	143	6
171	172	6
195	195	7
108	115	2
204	204	4
126	127	5
214	215	7
169	183	2
171	173	1
39	39	6
0	13	4
68	70	4
74	77	3
236	238	7
60	60	6
58	63	1
232	237	4
161	161	7
97	98	1
200	200	3
239	240	1
32	35	3
114	126	5
15	15	3
208	208	7
147	148	8
102	107	1
230	240	4
103	103	8
97	99	2
137	145	3
58	60	5
153	154	2
173	174	5
133	140	3
45	51	3
29	36	2
72	73	1
219	222	2
114	122	1
34	34	13
8	11	5
149	151	1
65	65	5
101	101	1
136	138	6
177	177	8
232	241	6
21	24	3
135	135	8
225	227	9
128	135	4
34	38	7
50	59	1
231	231	5
1	3	7
8	16	3
215	224	2
53	54	4
82	82	7
75	81	2
9	17	4
102	102	1
158	160	3
189	191	5
148	152	3
8	20	1
201	207	3
41	43	7
32	38	1
223	224	2
43	52	1
237	242	2
198	203	6
11	13	1
152	152	1
155	155	2
164	166	1
199	204	2
157	160	3
27	29	4
131	136	3
222	222	7
6	6	7
84	86	4
189	193	1
6	7	9
44	44	2
219	220	5
139	140	3
149	149	3
59	61	4
170	172	7
117	120	3
98	108	3
67	71	5
233	233	6
138	138	5
77	78	6
178	187	4
37	38	2
119	119	1
164	169	1
131	139	4
80	84	2
35	35	4
228	229	6
168	168	3
129	130	3
111	112	1
9	11	3
239	239	2
38	38	8
1	6	3
201	204	2
66	66	5
122	124	1
127	138	1
121	121	11
154	154	10
59	60	2
152	154	1
153	153	3
60	70	1
162	169	2
74	75	3
97	100	3
56	63	4
79	84	3
195	200	1
185	199	1
10	19	1
157	157	6
198	200	2
40	47	3
240	240	5
234	234	3
200	201	2
173	173	6
158	169	2
42	46	4
98	99	7
157	159	3
101	109	2
211	221	1
214	214	6
234	240	3
182	186	3
139	147	1
19	25	3
166	166	6
218	219	4
29	35	1
188	200	1
102	106	9
122	123	3
121	122	7
47	56	1
117	117	3
96	97	1
127	131	1
153	155	8
137	138	2
199	201	4
190	191	6
24	34	1
172	174	6
69	76	5
180	187	3
21	21	4
198	198	5
136	137	3
107	120	1
70	73	3
100	101	2
51	51	8
164	165	6
229	229	7
5	5	5
169	170	3
59	68	1
105	109	4
164	164	3
32	34	2
183	184	3
69	71	3
184	185	4
221	229	5
14	15	3
162	185	2
40	43	9
131	133	5
33	36	9
236	239	2
172	172	3
194	197	2
141	142	6
228	228	2
35	41	2
230	231	4
59	64	3
205	212	3
227	236	2
204	210	4
177	199	2
18	23	4
2	3	11
75	76	2
238	242	6
140	141	2
45	53	1
61	61	2
63	63	3
38	46	2
171	180	1
54	55	4
24	26	3
170	175	3
159	170	1
12	14	4
225	226	6
149	150	6
160	164	7
60	62	3
199	200	4
136	139	5
135	136	1
205	205	10
218	218	8
12	15	3
62	72	4
167	168	3
129	132	1
201	209	1
15	19	1
119	126	1
167	175	2
29	33	3
62	62	2
29	29	3
29	31	3
199	199	3
33	38	4
12	16	2
175	179	2
202	204	3
98	107	2
117	119	2
223	223	10
27	32	2
194	198	3
70	72	2
17	19	5
186	223	4
188	190	4
232	233	2
191	192	2
21	28	1
191	199	1
6	16	1
223	225	3
49	58	3
38	39	2
130	134	2
206	212	1
207	209	1
179	186	4
79	85	2
194	195	1
219	221	4
68	73	1
147	151	2
181	181	1
174	175	10
137	137	5
99	110	5
195	197	1
62	65	3
2	2	3
203	208	6
190	211	3
49	54	3
37	40	3
24	24	6
49	51	3
186	187	4
147	149	6
11	18	3
128	133	1
235	238	1
205	213	3
61	65	3
148	149	3
169	174	2
129	133	2
53	56	1
240	241	4
0	11	2
177	178	3
65	66	8
33	39	2
18	18	1
199	205	5
186	193	1
74	82	2
131	131	6
30	33	2
220	222	9
167	169	2
101	105	1
17	17	8
184	190	2
225	234	1
180	185	2
20	30	3
114	115	3
42	48	1
115	122	2
8	18	5
7	23	2
34	44	1
20	31	3
4	5	3
32	33	4
212	216	1
216	216	3
33	33	2
8	9	4
206	206	2
81	114	1
163	170	1
220	226	6
176	176	5
159	161	2
45	47	3
80	82	6
62	64	1
57	65	3
5	14	1
22	30	1
144	144	2
129	129	2
97	97	4
161	166	3
128	137	1
156	156	4
63	65	2
20	25	2
124	127	5
42	43	4
169	171	4
193	199	2
96	106	2
34	36	2
220	228	2
31	33	5
213	216	2
151	154	3
43	46	4
2	14	3
237	239	1
66	68	1
96	100	2
179	181	6
188	189	5
241	242	5
153	158	4
108	118	1
187	192	1
80	85	2
73	99	2
79	79	4
75	75	2
125	133	1
166	170	1
10	12	5
220	237	1
147	147	3
31	37	3
192	194	3
14	16	5
160	161	3
195	196	3
227	228	4
86	88	1
40	40	2
123	128	1
13	21	1
190	190	2
190	194	3
128	138	3
50	50	5
142	142	1
100	100	1
103	104	2
31	32	8
59	59	2
178	178	2
13	17	3
227	233	1
88	88	5
209	211	5
46	53	3
217	224	1
214	216	6
8	17	2
165	166	3
134	137	1
228	233	1
235	235	2
192	196	1
45	48	3
154	157	5
81	84	3
0	0	1
181	183	2
123	123	2
52	63	1
143	150	1
116	119	3
131	140	2
44	54	1
19	33	2
55	55	2
113	114	2
176	177	4
62	66	1
63	64	1
231	234	4
193	194	1
77	81	3
27	27	2
235	237	3
81	83	11
5	10	1
99	99	3
151	155	1
115	115	3
88	89	3
217	218	2
77	105	2
49	49	3
61	64	3
197	204	2
203	207	1
138	143	2
197	201	1
170	173	2
151	163	2
215	222	2
21	26	3
119	129	2
120	120	3
77	80	4
136	149	2
124	124	3
173	178	1
33	44	1
193	198	1
107	111	1
191	191	1
136	143	1
71	82	2
76	83	1
162	163	4
231	241	2
109	113	1
106	108	3
230	232	2
49	52	1
118	120	1
67	67	3
197	203	2
165	168	1
15	16	2
238	238	5
79	86	1
152	153	6
221	231	2
216	217	1
21	23	2
5	18	2
120	122	3
151	152	2
48	50	1
198	207	2
102	104	1
28	34	2
210	214	1
196	200	1
23	32	2
157	161	1
4	14	1
114	114	2
228	235	1
55	58	2
36	36	3
174	174	2
226	239	1
123	141	1
4	15	1
137	140	1
212	213	3
37	39	1
184	189	4
218	224	5
70	75	2
26	31	1
163	165	2
199	208	1
10	11	5
200	207	2
196	196	6
144	149	1
141	149	2
228	230	2
186	192	3
191	198	1
182	205	1
221	227	2
3	6	3
188	188	1
2	4	4
27	35	3
224	226	3
169	175	1
29	34	1
169	176	2
205	211	1
33	46	2
121	133	1
78	78	1
54	60	1
226	226	2
180	180	3
30	40	1
77	83	2
7	8	2
41	45	4
194	196	3
54	63	3
237	237	6
125	127	6
202	211	3
209	213	1
95	96	3
83	84	2
18	20	1
142	149	3
77	77	6
210	215	1
17	26	3
37	48	3
60	68	1
149	152	3
174	181	1
113	118	3
102	103	1
67	74	1
208	212	1
125	138	2
233	236	2
50	65	1
111	111	2
138	140	1
140	151	3
70	74	1
182	185	1
72	74	2
123	125	2
219	233	1
168	172	3
182	187	1
95	99	1
104	114	1
213	213	1
35	43	1
157	164	1
64	64	4
184	211	1
141	147	1
39	41	1
163	172	2
225	235	3
9	9	4
148	157	1
58	62	3
185	188	2
166	169	2
20	29	1
53	58	2
106	107	1
4	198	1
10	10	2
158	164	1
23	25	1
214	224	2
182	183	2
148	150	1
66	70	2
139	142	3
67	69	2
145	145	1
202	202	1
102	109	1
159	166	1
145	152	4
25	35	1
56	57	1
0	14	2
144	153	1
133	134	4
190	196	2
163	173	1
169	177	2
46	48	2
48	51	1
44	46	2
49	59	1
185	186	3
141	148	2
192	207	1
182	204	3
208	214	1
21	22	2
57	68	2
16	24	2
39	40	2
191	195	2
183	183	3
123	130	1
4	4	3
78	84	1
215	217	2
1	13	1
11	14	1
138	146	1
148	151	2
10	18	2
125	129	1
10	15	1
45	45	2
54	64	2
171	175	3
39	48	2
151	153	2
183	186	1
77	86	1
237	238	2
74	104	1
144	148	1
57	61	2
175	181	1
206	208	1
23	31	2
213	224	1
48	58	1
65	67	2
146	152	1
227	230	1
203	215	2
81	82	1
130	135	1
41	41	2
124	132	1
225	228	1
195	201	1
197	199	2
7	18	1
28	29	1
21	32	2
78	85	1
17	18	2
219	219	2
52	55	2
73	73	1
99	102	1
126	126	1
142	145	2
56	60	1
19	20	2
52	52	1
108	119	1
76	80	2
223	227	1
102	105	5
192	193	1
129	142	2
200	202	1
185	189	2
109	117	1
211	215	1
140	143	1
229	235	1
58	58	1
128	131	1
95	95	1
145	148	2
76	77	1
16	20	1
0	5	1
39	42	1
189	195	1
106	106	3
107	117	1
169	182	2
146	159	1
77	88	1
86	103	2
47	51	1
71	77	1
224	224	3
185	191	2
51	53	1
218	221	3
180	188	1
63	69	1
30	37	1
86	86	1
164	167	2
141	145	1
187	191	1
180	182	1
40	58	4
156	157	1
112	115	1
189	199	1
226	231	1
150	159	1
212	215	1
217	220	2
130	133	2
19	19	2
133	133	1
40	41	1
205	207	1
183	190	2
105	105	1
162	170	2
113	113	2
145	146	2
29	40	1
203	204	1
132	134	1
60	66	1
182	188	1
47	50	1
53	60	1
213	222	2
211	223	1
48	55	1
229	231	1
65	68	1
42	44	1
74	74	1
174	176	1
169	185	1
129	134	1
68	71	1
185	185	1
228	231	1
127	135	1
190	193	1
229	230	1
236	242	1
121	124	1
165	165	2
9	15	1
130	130	1
29	42	1
11	21	1
127	128	2
160	160	1
96	96	1
158	173	1
6	11	1
72	80	1
64	66	1
180	181	1
215	218	1
28	43	1
177	179	1
210	218	2
239	242	1
220	220	2
162	171	1
183	211	1
134	143	1
60	61	1
12	13	1
32	32	1
131	138	1
196	197	1
24	33	1
68	69	1
45	56	1
118	118	2
202	207	1
217	222	1
143	143	1
48	57	1
226	236	1
197	205	1
131	134	1
8	12	1
