63	63	10
107	107	7
129	129	7
93	96	5
175	175	9
101	102	6
121	121	7
86	108	2
58	58	6
146	146	1
136	137	5
57	57	1
74	74	14
27	28	4
154	154	2
27	55	2
162	176	6
13	13	5
82	83	7
5	42	2
155	155	5
106	107	5
55	56	5
13	20	4
14	14	7
12	27	5
189	189	2
64	70	4
69	69	1
91	93	6
183	183	3
12	13	4
158	158	4
79	113	1
64	64	2
71	113	3
139	139	4
134	135	6
65	75	6
0	0	4
31	31	10
47	47	3
59	60	1
72	72	2
103	103	3
20	39	2
120	122	1
53	54	2
36	36	1
173	173	8
137	137	6
17	17	6
185	185	6
71	112	3
1	110	2
19	19	3
136	136	7
0	48	2
68	112	5
84	181	2
143	143	3
142	143	3
96	97	7
144	144	3
121	151	3
75	76	1
7	38	2
174	174	5
178	179	1
152	154	2
159	159	4
134	134	3
83	83	1
156	157	4
121	134	5
11	28	5
21	21	1
6	47	4
4	42	3
35	35	2
122	178	4
181	182	1
20	20	6
77	77	3
45	45	4
73	112	2
78	80	4
149	149	4
93	94	1
91	91	5
122	122	6
78	92	1
164	164	5
141	142	1
114	114	5
40	40	5
55	55	2
98	99	2
40	41	4
10	21	1
85	85	8
25	25	5
170	174	1
32	42	1
178	178	4
38	38	8
182	182	5
126	126	1
148	148	3
2	95	2
25	26	6
184	185	2
107	109	1
39	39	6
97	97	4
133	133	2
111	111	4
184	184	6
127	151	1
94	95	1
95	99	4
151	151	3
15	16	1
16	16	2
129	186	2
76	82	3
30	32	4
160	160	1
61	62	1
169	169	4
52	55	1
33	33	5
96	96	2
0	190	1
104	105	1
26	26	1
165	167	3
166	166	2
168	168	1
100	100	2
131	179	4
88	88	6
11	14	2
185	186	2
23	23	3
39	40	2
4	41	2
163	163	2
179	180	1
17	20	2
140	142	2
44	44	3
8	8	1
118	119	2
160	177	3
141	141	6
76	114	1
48	48	2
164	169	1
23	25	1
142	142	2
27	27	6
29	29	3
97	98	4
2	2	6
28	29	1
99	100	2
30	30	4
152	152	3
5	5	1
35	45	3
128	151	5
137	185	1
128	134	1
89	89	1
164	170	2
19	20	4
53	55	2
127	127	4
165	165	2
8	9	1
132	132	1
9	9	2
81	131	2
15	15	2
130	131	1
95	95	1
71	72	1
18	19	2
42	42	2
43	43	3
73	138	1
76	76	2
65	113	3
46	47	2
28	28	3
75	75	3
92	96	2
119	120	1
128	128	4
157	158	3
166	167	2
56	56	2
94	94	2
1	1	2
170	170	1
66	66	1
91	102	1
69	78	1
82	82	2
83	133	3
150	150	1
152	153	1
182	183	1
90	90	4
54	54	4
91	95	1
62	63	1
7	15	3
90	101	2
166	183	1
66	82	1
130	130	3
19	31	2
69	71	3
67	67	1
153	153	3
73	74	2
145	145	1
34	34	2
6	45	1
18	18	1
71	71	1
125	125	2
78	78	1
187	187	1
33	34	1
162	163	2
171	172	1
26	53	2
38	39	1
145	146	1
98	98	2
90	98	1
95	97	2
18	20	1
117	118	1
120	120	1
62	62	1
17	18	2
2	29	1
87	87	1
77	107	1
94	99	1
119	119	1
37	37	1
181	187	1
122	155	1
4	32	1
16	38	1
88	89	1
73	73	1
77	90	1
