36	36	3
30	34	2
59	72	6
37	38	2
69	69	12
26	26	6
37	37	4
24	50	8
32	34	4
42	42	6
71	72	4
84	93	3
82	88	2
40	41	8
39	39	2
81	86	1
23	23	7
89	90	8
61	71	2
28	28	8
25	59	2
32	35	2
80	81	2
66	66	4
29	96	3
50	50	8
45	46	2
55	97	2
97	97	8
20	20	3
62	62	12
41	43	1
31	91	4
30	30	5
76	78	2
84	84	8
59	59	4
53	57	2
29	29	3
98	99	3
94	94	9
64	65	7
38	39	6
33	34	5
68	68	3
25	25	1
93	93	5
76	94	3
75	75	9
79	79	3
75	77	1
78	88	1
40	40	5
24	24	5
99	100	5
49	49	6
89	89	5
104	104	4
38	38	9
97	100	2
99	99	4
60	64	1
29	30	2
79	80	3
72	72	5
26	106	1
103	103	5
49	89	5
94	101	2
65	65	10
85	85	1
55	56	3
57	57	3
90	99	3
67	75	3
33	35	1
88	88	4
64	64	9
37	39	1
62	87	3
47	48	1
71	71	2
61	73	4
67	67	1
53	53	2
23	24	2
68	69	5
61	98	2
31	31	4
66	71	2
66	72	2
95	96	3
96	96	6
100	100	3
97	99	3
47	47	4
60	106	6
82	84	2
90	90	4
33	33	2
32	32	5
77	78	3
78	90	2
42	43	1
53	66	4
74	74	7
44	45	1
88	90	2
88	91	3
34	34	6
60	67	1
104	105	2
43	43	4
31	34	3
56	56	1
59	74	1
76	76	7
21	21	4
99	103	1
31	80	4
102	102	4
45	45	4
73	73	1
35	36	1
71	73	1
67	71	1
67	68	4
61	61	1
25	97	3
25	29	3
19	86	1
86	86	3
82	83	2
93	94	4
44	44	3
52	52	3
32	36	2
82	82	6
46	48	1
50	56	1
25	26	3
64	66	2
60	60	3
95	105	1
102	103	2
40	45	4
80	80	3
51	51	2
85	86	4
27	27	1
94	95	1
50	51	2
70	71	3
22	51	1
91	92	2
31	32	2
27	98	1
60	66	1
25	28	2
105	105	2
91	91	3
69	71	2
57	97	2
41	41	1
48	48	1
106	106	1
78	78	3
65	67	1
47	54	1
47	90	1
27	28	1
76	80	1
20	50	1
22	22	2
77	77	3
63	83	1
100	101	2
84	86	1
46	61	1
92	93	2
70	73	2
70	70	1
29	59	1
55	55	1
90	97	1
59	106	2
26	59	1
96	98	1
62	64	1
53	54	1
42	44	1
