52	52	6
78	79	1
173	173	4
160	160	7
86	86	3
74	74	4
121	121	2
17	90	1
5	5	3
13	13	2
136	136	3
95	95	12
94	94	4
128	128	5
138	139	3
139	141	1
114	114	5
153	153	3
132	132	5
83	83	9
92	152	1
169	170	5
104	106	2
66	66	10
90	90	7
159	160	3
157	158	4
114	116	3
171	171	5
129	130	4
111	112	4
98	104	2
130	130	1
61	62	2
111	111	9
86	109	2
78	78	8
109	109	6
17	19	2
91	91	3
125	127	4
16	18	4
135	135	2
140	141	2
53	53	7
168	170	2
71	71	3
172	172	1
88	89	2
95	109	1
22	22	8
91	92	1
6	7	2
31	31	4
110	110	3
144	145	1
103	103	4
144	151	1
77	77	2
72	74	3
23	23	3
177	177	5
53	58	4
136	137	3
58	59	3
179	179	2
157	157	5
163	163	1
174	174	2
65	66	4
16	16	2
134	135	2
148	148	6
104	105	2
55	56	3
64	67	4
108	109	2
129	129	9
66	67	1
37	49	2
163	164	5
72	102	1
9	9	4
126	127	3
112	116	3
17	18	2
35	35	3
92	94	1
88	88	2
101	102	4
51	51	3
156	156	5
84	84	2
141	141	4
125	125	4
137	137	3
21	22	1
133	133	4
55	81	2
138	143	1
17	17	2
57	59	1
55	55	1
83	84	1
96	96	6
113	113	5
124	125	1
166	168	1
7	7	3
62	62	1
12	12	2
33	66	2
127	127	7
165	168	2
20	21	2
115	115	2
13	14	1
142	142	1
89	89	1
165	166	1
143	144	3
73	75	1
87	88	5
80	80	4
77	78	1
117	117	1
164	167	2
14	142	3
152	152	8
134	134	2
41	42	3
80	81	1
32	54	1
145	146	2
139	139	8
9	15	2
71	73	2
39	40	1
26	26	3
98	98	4
15	15	6
40	58	1
130	155	4
120	120	3
10	10	4
87	89	1
167	168	2
169	169	3
52	53	2
6	6	1
122	126	2
176	176	3
119	119	7
153	155	2
146	146	2
81	81	1
57	57	4
97	109	3
54	54	1
2	2	2
144	164	2
87	87	5
158	159	3
20	20	4
150	150	2
61	84	3
168	168	2
133	134	1
62	84	2
51	52	3
43	45	1
24	25	2
45	45	5
10	16	5
1	2	1
150	151	3
96	108	2
55	57	2
149	150	3
177	178	1
145	145	2
113	114	4
161	168	2
94	111	1
98	101	1
23	24	3
141	142	2
59	59	5
113	115	1
10	139	1
161	167	2
124	124	3
24	24	1
140	140	1
85	89	2
98	99	4
14	14	1
25	25	2
126	126	1
168	169	1
0	1	1
39	64	1
157	170	2
75	75	3
142	143	2
2	3	3
174	175	3
157	160	1
16	138	2
135	160	1
26	148	1
155	156	2
107	107	1
115	120	1
3	3	3
27	27	1
8	8	1
73	73	2
129	131	1
29	29	2
7	11	2
34	34	2
37	40	1
81	82	2
43	43	1
22	24	1
93	111	1
44	44	2
11	15	1
9	10	1
120	121	1
65	65	1
171	172	2
112	112	1
8	11	2
118	118	3
143	143	1
103	104	2
146	150	1
130	131	2
29	51	2
36	36	1
162	162	1
119	120	1
86	87	1
100	100	1
38	38	2
90	93	1
132	133	1
99	99	1
108	110	1
92	150	1
61	83	1
