143	143	6
123	123	4
141	142	4
3	10	3
156	156	4
66	72	1
3	3	11
9	10	4
125	126	6
126	128	2
85	89	3
37	43	1
23	34	3
102	103	2
16	21	4
51	51	6
100	104	1
123	151	1
68	98	2
116	132	1
68	80	5
121	126	1
106	107	6
48	51	3
124	140	2
63	63	2
63	68	2
79	81	4
146	146	6
110	116	5
81	81	7
0	46	2
5	5	4
5	6	4
115	115	6
147	147	5
79	79	5
98	98	3
7	9	4
40	52	2
101	101	25
1	2	2
35	35	13
8	10	3
15	15	5
111	112	2
86	86	6
20	20	5
120	135	2
145	152	1
140	141	1
103	103	14
15	16	3
137	137	5
119	121	2
23	23	2
97	100	1
61	78	3
137	138	2
10	10	10
25	27	1
71	88	2
38	38	3
132	132	8
138	138	21
89	89	10
34	34	14
134	135	5
3	96	3
63	108	1
124	124	4
147	148	1
70	96	3
36	38	2
69	69	5
99	100	2
39	46	2
113	113	13
126	126	3
144	148	1
7	26	1
122	135	2
116	116	4
42	49	4
133	133	13
28	77	4
8	8	7
142	144	1
105	105	9
9	9	7
79	101	3
153	154	1
91	91	5
44	54	1
104	106	3
90	91	2
2	35	1
11	11	2
31	31	4
82	84	2
52	64	5
151	151	12
123	142	2
95	95	8
21	21	7
0	0	2
113	115	5
52	52	9
42	42	6
32	32	2
148	148	3
139	139	6
17	17	3
39	49	2
37	37	2
10	11	3
111	113	4
66	75	2
128	128	11
151	157	7
1	1	5
24	157	1
92	92	8
30	30	11
34	43	3
10	13	2
63	79	3
82	85	5
72	72	4
13	31	1
80	82	1
143	158	4
41	45	1
155	156	7
114	153	3
150	151	3
106	109	2
18	22	4
114	141	4
112	114	6
110	113	3
122	122	7
126	127	7
102	152	1
109	110	2
64	78	3
14	17	2
145	156	5
85	90	1
0	15	2
46	46	6
99	99	12
1	86	5
67	67	5
130	131	2
102	102	4
47	50	1
45	51	3
66	71	2
96	97	3
129	130	9
95	111	1
79	80	2
118	119	3
44	44	1
133	138	2
153	153	5
17	19	2
77	86	1
129	129	7
154	158	5
154	154	8
145	146	1
36	36	6
123	135	6
128	133	3
64	64	1
12	12	4
12	151	2
150	159	2
41	46	2
8	9	3
2	43	1
19	19	7
109	157	2
85	96	1
25	26	4
6	37	2
87	95	3
109	111	1
82	100	2
26	37	1
80	86	4
37	39	5
70	70	1
33	56	5
110	131	4
24	24	4
109	112	2
50	52	4
22	22	3
68	93	3
107	122	2
153	156	1
44	45	4
27	122	1
86	97	3
25	25	8
29	41	2
97	97	3
21	42	4
65	65	10
67	69	5
150	150	10
3	8	1
72	139	2
50	57	1
32	46	1
5	8	1
108	109	1
97	101	1
152	155	6
108	108	8
72	79	3
19	20	2
15	136	1
149	152	1
119	119	4
107	108	3
98	103	1
70	71	2
94	101	5
45	45	1
111	156	4
142	151	2
16	16	10
56	56	3
28	28	3
27	29	2
39	39	3
29	141	3
7	10	3
95	97	2
109	109	3
84	84	2
135	137	2
132	133	1
71	72	1
120	122	5
29	30	1
88	88	9
103	107	2
100	105	4
50	53	4
100	100	4
156	157	2
110	157	2
85	85	3
125	133	1
144	156	1
131	131	14
93	93	3
64	70	1
130	145	1
19	158	1
153	158	3
156	158	6
157	157	5
13	13	3
55	62	1
0	123	2
105	107	1
99	115	1
103	113	5
16	17	6
131	132	10
117	133	2
14	27	2
1	130	1
152	156	5
7	7	3
16	26	2
27	27	5
112	156	5
138	139	4
43	43	1
110	111	2
47	47	5
140	140	7
29	99	1
105	106	3
117	129	1
50	50	3
135	135	9
33	33	4
67	68	3
137	148	1
90	90	7
113	120	2
81	82	1
56	57	1
49	49	7
55	57	2
51	61	1
77	83	1
120	120	5
134	145	4
119	120	1
147	158	4
96	96	10
115	122	1
81	90	1
12	22	1
118	120	3
104	105	4
91	92	4
111	111	1
106	106	4
104	143	1
20	21	5
140	157	3
46	51	1
13	21	3
6	6	1
2	2	4
118	118	2
114	114	4
88	90	4
25	157	3
120	158	3
6	38	1
117	123	1
13	152	2
32	142	1
141	141	8
114	118	3
82	82	5
132	139	2
63	71	2
13	16	4
41	50	1
121	121	2
30	42	2
84	88	2
69	70	1
84	128	1
121	124	4
102	106	3
125	129	1
71	71	10
149	149	1
87	87	4
129	136	2
48	49	5
39	45	3
38	39	1
108	111	3
110	126	3
4	12	2
31	45	2
0	10	2
143	156	1
39	41	3
43	44	1
14	14	4
7	8	3
22	24	2
124	136	2
140	146	2
136	137	1
31	41	2
77	77	2
106	110	1
22	33	1
84	85	2
17	20	1
53	53	3
108	112	1
124	125	3
28	37	2
117	117	4
142	143	2
130	130	4
18	21	1
50	51	2
42	57	2
121	123	2
133	143	1
123	131	1
53	78	1
42	50	3
21	22	5
35	40	2
145	145	2
100	111	1
110	112	4
57	57	2
151	152	2
129	139	1
133	153	2
134	134	4
96	103	2
120	121	2
42	43	1
40	46	2
123	136	2
0	31	1
94	94	4
87	89	2
38	46	2
70	75	1
4	9	2
131	148	3
90	95	4
158	158	4
123	138	3
142	146	6
70	99	2
103	104	2
131	154	1
48	61	1
24	27	2
142	142	1
45	49	1
54	126	1
4	4	1
82	83	1
41	41	3
110	110	3
93	102	1
115	118	2
48	52	4
104	104	2
99	140	1
0	1	3
127	127	6
139	141	2
4	28	1
134	136	3
133	144	1
16	18	1
29	40	2
117	125	1
101	103	1
81	109	3
145	149	1
27	96	1
21	24	1
82	90	1
124	126	2
136	146	5
93	101	1
23	35	1
91	93	2
33	34	2
32	34	1
125	125	2
107	107	2
22	23	1
10	15	1
22	28	1
157	158	1
41	42	1
77	78	1
116	118	2
146	147	1
103	105	3
51	78	3
70	90	5
31	46	1
18	18	3
115	144	2
101	105	1
114	124	4
0	8	1
152	152	1
78	78	2
145	148	1
79	99	1
113	135	1
123	130	2
89	90	2
48	48	1
112	112	2
3	54	1
21	77	2
129	137	1
8	26	1
54	56	1
115	147	1
66	69	1
62	63	2
14	15	2
131	146	3
2	56	1
87	94	1
116	117	2
55	56	1
134	143	1
128	136	1
130	134	1
15	19	1
113	148	1
68	69	1
20	26	1
110	137	2
118	132	1
23	24	1
48	53	2
83	84	2
95	110	1
73	73	2
23	28	1
86	93	3
30	44	2
133	137	1
152	157	1
154	155	1
9	15	1
146	152	1
12	14	1
91	98	1
29	29	2
3	17	1
80	81	3
98	111	1
131	136	1
40	47	1
54	54	1
110	136	1
16	24	1
100	107	1
7	37	2
84	89	1
64	101	1
154	157	1
106	114	1
12	18	1
88	91	3
2	3	3
80	99	1
134	138	1
112	113	1
66	70	1
157	159	1
129	135	2
107	118	1
15	26	1
13	45	1
29	51	1
42	46	2
141	156	1
75	75	2
35	49	1
89	92	1
126	135	1
32	33	1
37	50	1
111	117	1
49	53	1
13	48	1
73	78	1
64	79	1
51	54	1
20	23	1
23	147	1
