78	78	4
2	16	9
11	11	6
75	75	8
87	87	3
131	131	3
74	74	17
99	99	4
101	102	2
77	77	6
55	56	5
47	47	2
71	71	6
81	81	8
23	23	2
103	103	9
102	102	18
111	111	8
121	121	9
19	19	7
3	4	4
11	13	3
119	119	12
131	132	2
70	70	5
114	114	5
44	45	9
56	58	2
1	2	8
21	21	5
127	127	8
104	104	23
3	3	9
121	133	1
66	68	1
12	12	11
122	133	2
122	122	3
45	45	2
24	24	11
79	80	7
134	134	4
58	59	13
80	80	5
105	105	11
12	13	3
62	62	3
68	69	12
62	63	3
122	132	1
125	125	5
26	26	9
20	21	4
55	59	3
72	72	10
8	8	1
8	9	2
112	112	9
53	53	4
70	71	11
31	32	3
16	17	2
73	74	3
52	52	4
7	7	9
67	68	5
36	36	9
63	63	13
94	95	4
98	98	11
50	50	4
6	11	3
108	117	3
61	62	2
60	60	8
93	93	11
106	106	9
50	85	4
76	81	4
13	14	4
9	10	4
102	103	5
22	22	4
96	96	8
94	94	9
13	13	2
120	120	14
85	88	5
76	76	8
99	100	4
63	108	3
85	85	4
49	79	4
123	123	10
17	17	7
80	113	4
89	89	4
110	127	2
17	26	1
49	87	1
97	97	5
122	131	5
117	117	12
16	16	2
88	88	4
43	43	6
117	128	4
115	115	2
121	130	2
22	59	1
69	69	5
63	64	4
44	44	5
96	97	3
16	35	1
91	91	2
25	25	9
51	51	3
58	58	3
115	116	3
31	31	4
77	78	3
2	2	10
63	117	3
132	133	6
17	21	5
74	75	3
73	73	6
101	101	9
21	23	2
66	112	4
68	68	2
33	33	8
28	28	5
123	124	4
15	15	5
11	12	2
50	84	1
60	120	3
62	118	3
35	36	4
106	107	1
55	55	8
2	3	6
84	84	6
5	12	4
95	95	11
30	30	3
7	9	4
34	34	4
57	57	3
21	84	2
133	133	2
126	126	7
21	22	8
77	115	2
65	65	1
6	6	3
125	126	1
63	116	1
18	23	1
18	29	2
129	130	2
38	44	2
53	116	3
19	20	1
7	8	5
37	37	3
32	32	6
49	49	4
83	83	6
53	115	1
84	85	6
10	10	6
125	129	2
15	30	2
100	100	3
18	35	2
84	87	2
66	66	4
36	37	3
32	34	4
116	116	7
124	125	1
62	116	1
78	79	1
64	64	5
121	134	5
79	79	3
61	61	3
85	86	1
29	43	8
75	105	1
106	109	2
0	1	2
91	92	2
92	92	1
52	60	1
4	4	4
128	128	1
91	93	2
123	134	3
57	58	3
66	111	2
107	115	1
45	87	2
128	129	1
124	124	4
107	109	1
27	27	6
109	109	1
48	80	1
88	89	4
113	113	6
52	53	2
110	110	2
0	0	5
97	98	2
55	57	3
16	36	3
135	135	2
30	32	1
60	71	1
10	14	1
71	72	3
78	80	2
32	33	1
108	127	3
122	123	1
108	110	1
74	104	1
52	116	3
64	65	2
121	131	3
114	115	5
24	27	1
29	30	3
37	38	1
39	45	1
33	34	2
132	132	4
99	101	2
54	116	5
29	29	1
2	4	1
43	46	1
82	82	3
67	67	2
5	5	1
66	113	1
119	120	2
120	121	2
84	86	1
14	14	3
87	88	2
2	15	1
130	133	1
108	108	2
98	100	1
112	114	1
61	120	1
118	118	1
53	54	2
107	107	2
8	10	1
54	56	1
15	29	1
37	45	1
69	70	2
52	89	2
19	83	2
50	86	2
112	113	1
56	56	1
96	98	1
1	1	1
103	104	2
15	31	1
50	88	1
23	24	2
49	89	1
49	78	1
19	28	1
2	5	1
60	61	1
125	132	1
130	132	1
86	87	2
107	113	1
129	129	1
28	29	1
18	18	1
