87	87	11
68	68	6
13	28	3
77	77	6
27	27	12
63	63	13
12	12	8
60	65	3
9	27	5
14	84	6
47	89	1
74	74	11
83	83	10
58	58	8
28	28	7
57	57	16
26	26	5
86	86	10
76	76	10
27	81	2
8	8	10
55	55	9
34	34	2
75	75	7
63	64	12
24	27	4
72	72	3
13	13	10
22	22	3
61	63	1
10	17	2
9	9	3
64	77	1
82	82	16
7	17	1
85	85	7
67	67	18
28	29	3
75	76	9
6	7	7
48	48	7
90	90	5
9	17	4
22	23	8
6	15	2
56	57	5
0	0	9
8	80	5
56	56	8
66	88	1
70	70	3
3	4	3
68	74	1
30	30	14
80	81	1
2	2	10
4	4	9
8	9	5
31	34	4
47	47	8
50	51	10
33	33	2
62	62	8
20	33	1
78	78	6
79	79	5
69	69	4
19	22	4
17	26	2
11	11	3
82	83	3
25	25	8
19	20	5
24	24	4
12	18	2
8	25	1
9	11	3
20	20	8
59	59	18
61	61	10
71	75	3
52	52	9
71	72	2
11	14	1
29	29	2
49	49	6
16	16	2
10	16	1
84	84	14
46	47	4
71	71	3
25	30	1
3	3	9
21	22	5
81	81	16
51	87	1
25	28	3
14	14	9
60	71	1
52	74	1
14	20	2
56	70	2
5	13	2
65	73	5
51	53	3
5	5	3
28	30	6
47	48	4
1	62	4
23	23	10
86	87	6
23	88	1
7	7	5
30	31	1
54	55	4
47	61	1
19	19	10
15	15	8
24	26	2
50	50	4
27	28	2
2	11	1
51	51	13
66	66	8
49	82	2
32	32	5
72	74	5
1	81	2
64	64	8
24	28	2
21	21	2
1	1	14
12	13	2
89	89	6
65	65	8
64	65	4
15	23	3
18	65	4
9	12	1
46	46	2
65	86	4
54	79	5
20	24	1
20	88	1
25	78	4
34	66	1
80	80	4
53	54	1
67	71	2
15	20	1
76	77	1
64	78	3
4	12	3
31	31	10
10	10	7
17	32	2
54	61	1
1	90	3
54	54	4
48	85	2
79	82	2
88	88	1
17	17	3
27	30	1
80	83	1
29	30	1
14	70	1
5	27	1
1	2	3
26	27	2
17	31	1
53	53	3
61	66	2
23	24	1
51	69	4
70	72	1
73	76	1
59	80	1
73	74	2
6	6	8
69	88	2
59	86	1
34	35	1
71	79	1
60	77	1
63	66	2
59	87	1
59	60	1
46	60	1
7	13	1
78	79	5
81	84	1
83	88	1
9	10	3
8	17	1
5	8	2
60	64	2
24	25	1
60	60	2
26	31	2
72	73	1
72	79	1
68	71	1
6	13	1
59	61	1
15	16	1
25	82	1
55	56	3
60	79	1
4	5	1
53	70	2
61	79	1
74	77	1
47	81	1
7	10	1
20	23	1
73	73	1
18	24	1
25	26	1
51	86	1
52	53	1
61	89	1
15	84	1
11	28	1
15	30	1
6	33	1
16	71	1
78	80	1
