153	166	1
166	166	2
83	99	2
63	104	1
74	74	7
88	88	4
1	1	5
121	122	1
152	152	4
68	69	3
84	86	4
33	35	4
163	165	5
72	73	3
137	138	4
111	128	8
133	133	5
35	35	4
25	26	2
147	152	2
104	118	4
81	81	4
130	130	5
69	69	8
124	125	1
143	143	3
97	97	6
84	84	2
52	52	5
104	104	5
5	5	6
115	124	5
3	3	8
143	144	6
2	164	2
98	98	6
136	136	3
73	73	8
105	117	7
155	155	8
121	121	8
101	101	6
63	63	4
149	149	3
19	19	3
154	166	1
83	83	6
100	101	2
50	51	5
39	40	14
66	66	11
144	164	1
140	159	1
54	54	7
148	148	9
112	113	7
33	33	3
53	53	2
69	71	4
11	12	4
167	168	6
11	11	7
6	6	3
105	105	7
135	135	4
114	114	2
23	46	2
142	161	1
23	23	1
22	22	4
48	48	7
139	157	2
25	25	1
122	124	2
108	141	4
27	28	2
20	21	5
125	125	4
111	114	4
151	151	6
39	39	5
146	170	4
89	89	8
74	75	7
150	150	4
119	119	7
128	129	5
109	109	4
37	37	5
102	105	1
91	91	6
90	91	3
27	103	1
146	146	1
110	110	5
106	106	1
6	7	4
10	11	2
138	138	4
76	77	4
42	42	6
89	112	5
47	47	2
27	155	3
96	96	10
8	8	2
161	161	5
153	153	4
131	147	5
50	50	6
99	119	2
106	107	4
65	76	1
56	56	4
20	20	3
99	99	5
1	2	6
11	41	4
76	81	4
51	52	6
12	12	2
80	80	4
163	163	9
62	62	3
150	163	3
90	90	6
155	157	4
13	13	7
100	102	2
25	44	3
56	57	1
65	65	5
75	75	2
9	9	3
137	137	8
51	51	8
117	117	2
44	46	3
15	15	4
71	74	1
87	87	3
55	56	3
116	116	4
2	2	3
168	169	4
113	113	6
67	70	2
93	93	1
52	53	4
112	112	6
41	41	3
27	156	1
72	72	1
89	90	2
49	49	4
24	44	1
66	77	5
79	79	5
135	156	3
151	152	7
13	41	3
166	167	1
92	125	1
118	119	1
55	62	2
2	5	2
101	105	5
84	112	1
4	5	2
56	67	2
146	154	2
62	63	2
25	50	2
80	81	2
62	65	1
103	105	1
158	158	2
77	77	3
36	36	4
120	120	2
71	71	1
154	154	1
84	85	3
13	37	2
139	141	3
9	12	2
18	21	2
5	6	4
16	16	2
164	165	1
126	126	1
86	117	1
54	55	1
160	160	5
170	170	3
122	122	3
88	89	2
25	51	3
25	27	3
147	154	2
27	27	5
109	110	3
28	132	1
24	51	2
78	78	3
55	55	5
168	168	1
98	99	2
45	46	3
94	95	2
156	156	2
107	109	3
72	78	1
88	125	2
108	108	3
0	2	1
62	66	2
16	17	1
87	89	1
69	70	1
24	24	5
102	132	4
50	70	1
158	159	2
165	166	1
165	165	2
169	169	3
43	45	1
74	76	1
160	162	2
145	164	2
151	153	1
10	10	2
7	7	2
52	54	1
155	163	1
45	45	3
69	72	1
86	86	3
2	4	1
150	151	1
20	52	1
34	34	2
67	67	1
14	15	3
95	96	1
83	84	1
18	18	2
85	85	2
57	62	1
157	157	1
144	145	1
103	103	2
147	148	1
37	38	2
28	28	3
131	164	3
128	128	2
112	114	2
96	97	1
11	13	1
117	118	2
4	7	2
57	57	1
149	150	1
100	140	1
68	68	2
56	62	1
136	138	1
26	26	2
138	157	1
107	107	2
85	97	1
48	49	2
53	67	1
162	162	2
65	77	1
129	129	1
40	40	2
100	106	1
142	142	2
58	58	1
131	131	1
154	155	1
56	64	1
45	52	1
92	112	1
100	143	1
164	164	1
132	132	1
108	109	1
159	159	1
36	137	1
124	124	1
141	141	1
12	44	1
140	158	1
140	140	1
85	98	1
