97	97	12
120	120	7
47	47	10
11	12	2
67	69	1
64	84	3
153	153	12
133	154	3
32	36	1
149	149	18
148	149	2
72	83	2
72	113	3
130	130	4
76	76	8
128	152	3
64	64	10
136	136	3
140	141	3
26	26	5
3	3	9
6	13	1
99	99	5
51	51	3
106	106	18
94	96	3
14	14	4
110	113	3
102	109	1
42	42	7
29	30	5
20	20	6
84	91	2
13	13	13
66	66	13
96	96	8
124	124	5
49	49	10
151	151	5
7	7	10
23	23	8
27	27	9
47	48	6
142	145	1
80	80	11
74	83	4
118	131	2
144	148	4
121	121	4
95	117	2
132	133	2
55	63	1
96	106	4
48	49	3
135	135	7
19	19	17
41	41	9
39	40	9
63	145	2
129	130	5
73	73	3
16	30	3
148	148	6
84	84	15
123	123	9
71	150	1
72	73	3
85	86	6
115	117	3
127	127	7
116	117	4
4	6	3
83	83	8
129	129	10
88	146	1
146	149	3
69	69	10
40	40	14
25	25	9
105	105	20
35	35	5
83	84	3
45	46	4
67	68	3
34	35	4
68	68	13
16	16	9
122	122	8
107	147	4
18	19	6
95	95	5
132	132	9
138	138	7
114	114	3
24	24	6
36	37	5
78	78	2
92	92	3
29	29	10
28	28	3
87	88	1
147	147	10
111	111	7
32	33	1
140	140	6
31	32	2
21	27	1
50	50	11
43	43	5
41	93	1
117	117	4
7	9	4
58	58	7
44	44	10
20	21	5
112	122	1
65	65	1
139	144	2
97	98	2
33	33	10
141	144	4
73	74	3
142	144	6
77	77	11
119	119	10
135	136	5
109	113	4
74	74	6
15	15	10
150	150	5
94	112	3
87	87	9
68	69	4
31	31	8
118	118	11
45	47	2
93	97	1
99	104	3
139	139	3
104	104	9
110	128	1
102	102	8
152	152	8
151	152	6
131	131	7
107	108	1
54	54	7
11	23	9
18	18	8
65	67	3
98	105	3
9	9	12
111	112	2
51	54	1
24	25	6
53	54	5
110	110	1
23	24	2
62	62	6
69	70	4
15	16	5
72	72	9
80	96	1
130	131	3
101	101	8
34	34	7
56	56	3
67	67	11
48	48	4
70	70	6
68	129	1
77	78	10
134	134	9
14	15	2
144	145	4
8	12	1
120	151	2
115	115	6
88	89	1
81	81	5
137	140	3
88	88	1
113	120	1
129	154	1
21	21	7
37	37	5
118	143	1
103	147	2
150	151	2
145	145	6
133	133	12
137	137	6
85	85	8
46	46	7
103	103	2
30	30	14
22	23	3
11	11	5
17	17	11
136	137	2
143	145	1
100	100	2
63	63	10
113	114	5
112	113	1
114	117	2
66	141	2
79	83	4
145	146	1
48	50	4
107	107	3
41	45	1
104	146	1
20	22	2
75	75	4
69	118	2
75	79	5
44	47	1
87	89	3
92	93	1
87	120	1
53	53	3
121	122	5
113	113	8
150	154	1
99	100	2
79	95	1
146	146	8
10	10	10
43	44	1
42	45	2
20	39	1
11	15	1
7	8	2
25	49	3
44	45	1
6	6	5
39	39	13
109	110	5
15	20	3
116	125	3
52	57	2
49	62	1
143	143	3
57	57	10
34	58	4
19	20	2
86	86	9
50	51	3
24	29	2
75	113	2
108	108	5
79	79	5
94	94	4
65	143	1
3	24	1
97	113	3
38	38	7
106	107	1
70	71	7
46	64	2
68	82	1
80	81	6
121	128	3
63	64	3
141	142	3
77	82	2
154	154	2
13	15	3
64	66	2
115	116	2
130	132	1
9	10	1
119	120	2
22	22	12
94	108	1
5	5	2
26	27	2
112	120	3
141	141	4
93	93	5
139	140	4
146	147	1
128	128	4
97	107	1
71	71	7
42	72	1
8	8	2
14	16	2
11	20	2
51	52	1
101	111	1
68	149	1
116	116	5
25	26	2
49	53	4
45	45	7
137	142	1
23	29	2
112	112	6
21	22	1
145	150	2
129	131	1
98	99	2
147	148	6
64	65	5
13	16	2
18	28	1
120	125	4
23	26	1
75	76	1
149	150	7
125	125	4
69	122	5
82	82	6
98	98	7
81	137	3
12	14	3
144	144	2
113	123	1
49	50	1
94	110	2
86	108	1
115	124	1
5	7	1
32	32	4
37	38	1
37	57	2
142	143	3
45	63	1
153	154	2
78	79	1
48	52	2
118	132	2
10	11	2
57	62	2
12	12	4
125	143	2
96	98	1
120	121	1
117	118	1
94	95	2
144	154	1
80	95	1
65	66	1
77	95	2
76	77	4
118	130	1
41	72	3
111	122	1
44	52	1
79	80	1
84	85	4
25	52	1
146	150	1
96	97	3
7	22	1
109	109	2
4	7	2
35	36	1
57	87	2
40	53	1
36	38	2
117	121	3
147	153	4
144	146	1
11	14	1
46	153	3
102	103	2
64	152	2
13	14	1
103	104	2
2	25	1
16	17	1
65	87	2
126	127	2
38	57	1
127	128	1
53	56	1
89	92	1
68	123	2
51	57	1
116	146	1
83	102	1
136	138	2
102	152	1
122	123	2
117	123	1
142	142	1
2	2	1
33	34	1
87	90	1
75	78	1
127	152	2
151	153	1
115	118	1
63	67	1
84	150	1
74	75	1
40	91	1
5	6	2
112	114	1
56	103	1
15	17	1
138	144	1
111	119	1
21	65	1
55	55	1
128	129	2
128	135	1
33	65	1
134	135	1
95	96	1
