148	148	13
98	133	5
107	123	3
73	73	8
70	70	11
111	113	1
25	25	11
129	129	9
14	51	1
91	91	13
87	145	2
90	90	3
130	130	14
71	71	9
41	41	4
128	128	6
52	52	4
28	28	4
123	154	6
88	127	2
64	64	2
105	106	2
16	46	2
19	19	5
71	151	10
29	38	3
65	70	3
49	49	9
50	50	3
91	95	3
26	26	8
18	18	11
13	14	8
50	54	2
98	99	2
14	14	7
3	3	11
24	25	1
133	133	12
127	127	16
34	41	5
86	86	3
35	35	7
96	96	2
106	106	12
102	105	2
38	38	12
113	113	10
40	45	4
83	142	4
68	69	4
99	99	8
44	44	11
31	33	2
1	1	14
55	55	6
4	4	6
94	94	6
126	145	2
45	45	5
67	81	2
72	144	4
137	137	8
80	80	11
126	126	5
116	116	6
107	107	8
20	37	3
152	152	7
115	116	2
104	105	1
105	105	13
31	37	3
147	147	4
31	31	3
72	148	6
152	155	1
41	42	1
79	81	1
34	34	9
135	151	6
92	92	5
149	149	5
83	84	3
23	24	2
118	120	2
122	122	5
146	146	6
108	109	4
71	126	1
115	126	6
62	126	3
19	33	3
150	150	4
135	150	1
21	21	9
37	37	3
54	55	4
131	139	2
30	30	8
85	142	1
66	67	1
53	85	4
117	117	6
2	2	5
81	81	6
24	31	6
157	157	3
88	88	3
89	89	4
31	32	2
108	156	4
40	44	6
6	6	9
0	0	4
17	48	3
87	87	5
70	114	3
133	158	1
151	151	7
139	139	11
155	155	3
109	109	3
114	114	4
12	12	6
108	125	1
46	46	6
12	14	2
137	139	4
144	144	6
0	1	2
20	22	1
23	23	4
36	46	1
78	106	2
145	145	10
91	105	2
14	19	4
11	11	3
8	8	12
94	103	2
20	20	6
104	104	10
0	30	2
107	114	1
68	68	6
79	79	12
120	141	1
115	115	15
134	157	2
19	28	2
38	41	7
158	158	8
43	43	3
115	125	4
147	158	1
119	119	3
53	86	2
123	124	3
8	36	2
25	44	3
123	123	6
126	127	1
97	100	2
92	128	2
115	132	2
77	78	2
150	157	1
131	131	8
74	74	2
100	133	3
62	62	9
78	79	3
98	98	10
24	24	3
77	77	4
64	97	3
63	71	1
16	17	6
107	138	6
69	111	2
90	147	2
70	71	8
76	76	3
125	126	3
84	113	5
142	142	3
9	10	6
9	38	8
98	157	1
103	103	3
2	3	1
72	73	2
6	51	2
1	32	2
132	158	2
113	115	2
140	140	5
30	32	1
93	93	7
67	132	4
118	118	3
90	142	6
54	54	3
109	110	9
108	144	2
114	122	1
16	84	3
134	150	2
69	96	4
0	2	1
94	95	5
28	49	3
30	130	2
120	121	5
6	27	4
18	30	1
32	38	3
1	100	1
97	98	2
15	38	3
75	75	3
66	68	1
43	54	2
14	47	2
82	82	3
15	15	2
109	124	1
2	4	6
150	154	3
100	104	5
123	137	2
18	80	2
96	98	2
42	42	1
78	78	4
97	97	2
20	25	5
153	153	5
115	134	1
71	132	1
86	88	2
66	75	1
115	146	3
67	67	5
67	141	2
103	154	2
124	124	4
147	159	2
16	22	1
108	110	2
56	56	6
156	156	5
134	145	1
7	7	4
40	66	2
37	38	3
56	62	3
64	82	2
77	154	2
107	124	3
79	80	3
101	101	1
138	138	7
151	152	2
1	2	3
71	148	3
146	147	1
2	41	5
50	55	2
13	15	1
47	47	3
124	156	1
7	8	4
72	72	1
132	132	2
16	83	1
32	33	1
88	94	1
33	33	2
35	36	4
84	85	2
27	27	3
128	131	1
110	118	4
51	52	3
69	69	4
73	104	4
102	104	3
100	100	2
39	39	3
136	136	3
43	44	3
87	158	3
67	68	1
108	143	2
31	52	4
84	93	5
61	67	4
51	51	6
92	146	1
117	125	4
103	104	3
77	112	1
118	122	2
119	122	1
136	137	2
18	19	2
115	124	3
38	39	1
6	10	1
10	47	4
83	83	2
90	91	2
157	158	1
127	144	2
97	138	2
7	14	1
134	134	4
68	131	1
88	89	3
22	23	2
64	69	5
82	94	4
48	49	1
28	137	2
120	120	3
65	65	3
121	121	3
67	69	4
108	108	2
117	122	3
128	132	1
24	78	2
122	123	2
154	154	3
39	42	6
81	95	1
5	44	1
132	133	2
110	117	2
53	53	1
30	31	2
69	148	2
40	40	2
10	11	3
122	130	6
29	30	2
145	146	2
11	39	3
66	66	3
152	153	1
97	129	2
1	5	1
70	158	1
16	16	1
112	113	1
30	33	2
65	80	1
129	132	4
12	13	1
9	39	2
111	118	1
52	103	1
91	135	2
122	151	1
82	95	3
36	36	3
141	141	1
85	92	1
25	34	1
22	36	3
116	133	1
1	27	4
33	55	1
106	108	1
3	4	1
134	136	1
53	54	2
16	42	2
2	42	1
67	96	2
90	144	1
122	154	2
139	141	1
1	70	1
52	54	1
82	83	1
142	144	1
87	90	3
0	6	1
45	47	1
111	111	1
83	148	1
79	111	2
148	149	1
122	133	1
107	115	1
98	135	1
69	95	1
36	81	2
113	140	1
143	143	2
52	53	1
82	93	1
55	58	1
46	47	3
7	47	3
109	125	1
141	150	3
36	37	1
154	158	1
66	138	1
36	40	1
24	39	2
113	142	1
64	80	1
92	93	2
155	156	2
33	40	2
131	157	1
25	51	1
115	135	2
9	45	1
63	64	1
20	21	1
24	30	1
73	138	1
75	150	1
132	135	1
17	18	1
64	125	1
17	17	1
44	66	1
5	5	1
78	137	1
5	6	2
34	37	1
84	87	1
118	123	1
144	145	1
110	110	1
50	56	1
89	136	1
17	51	1
