149	200	1
175	175	3
78	78	9
238	240	2
41	66	2
102	243	1
214	214	10
16	16	1
160	161	1
125	126	3
81	81	7
12	14	2
122	160	1
115	116	5
23	23	5
136	136	5
52	53	2
133	135	2
124	124	3
65	95	1
118	118	8
176	177	3
220	220	2
201	201	7
219	219	7
147	147	3
8	68	1
186	186	1
21	108	4
222	223	3
223	240	2
235	236	1
175	177	1
173	174	2
179	179	3
134	134	9
191	191	6
35	35	5
213	213	3
136	184	1
190	190	2
221	221	13
212	212	2
9	9	8
199	199	5
66	67	2
142	142	4
236	237	4
8	31	2
80	80	4
64	64	8
221	224	1
70	125	4
42	187	3
109	117	4
231	234	4
86	86	4
232	232	6
106	163	1
107	119	1
28	68	1
228	228	5
34	35	1
173	232	2
56	56	4
144	145	4
198	198	8
135	135	7
70	70	5
1	1	6
2	109	1
182	182	4
224	230	2
126	126	5
11	11	2
17	42	4
129	129	4
44	45	8
41	41	7
100	100	6
203	218	3
202	202	2
222	222	6
144	144	2
65	65	9
128	128	3
141	175	1
68	68	3
11	167	2
109	109	2
151	151	4
74	74	8
19	109	3
206	206	6
3	3	3
197	217	1
43	175	1
209	209	4
74	75	2
48	48	7
115	115	6
170	170	5
116	175	2
4	4	8
240	240	3
76	76	10
54	147	1
165	190	3
101	208	1
132	220	4
182	183	2
105	105	5
27	27	5
159	171	3
109	110	2
53	53	2
42	190	1
76	134	2
181	181	9
28	69	1
57	57	3
160	218	1
51	51	3
208	208	2
44	44	4
130	130	3
147	210	1
72	72	4
111	111	7
174	175	4
14	14	4
2	3	5
205	206	3
83	83	3
71	71	5
2	106	2
169	169	6
172	172	4
153	153	3
99	110	4
111	112	2
73	73	5
133	133	3
105	118	3
44	48	1
40	40	5
51	52	2
149	150	5
117	117	4
233	233	4
3	83	1
134	135	2
45	46	2
149	149	5
18	20	3
59	59	3
17	18	3
211	211	10
137	137	3
183	183	3
29	29	7
15	15	4
172	173	1
12	12	7
4	84	2
82	82	9
32	32	3
191	192	3
22	68	2
226	226	1
188	188	3
146	154	1
103	103	5
128	217	2
160	173	2
0	157	1
50	50	6
215	215	5
13	14	2
178	178	5
76	220	6
101	101	8
145	145	2
49	67	2
11	13	2
20	116	1
221	222	4
85	98	1
195	195	5
97	100	2
26	26	8
58	60	3
79	79	5
44	46	1
37	37	6
242	242	6
156	156	4
77	77	1
139	208	5
237	237	8
107	107	3
36	197	1
215	226	3
25	179	1
66	66	5
141	142	2
104	125	1
216	216	11
33	35	1
200	201	1
26	58	1
130	131	2
210	210	10
19	21	2
7	7	9
13	13	3
225	225	3
162	162	1
230	232	2
54	54	4
119	119	4
200	200	4
85	88	1
102	114	1
217	217	3
123	123	6
197	198	6
85	85	3
27	28	2
95	95	2
5	82	1
225	226	2
11	77	1
207	207	7
103	156	1
215	216	2
33	38	2
162	189	1
152	152	5
95	96	1
226	227	3
174	174	2
221	223	2
180	180	2
138	208	1
60	60	5
109	119	3
146	146	3
35	78	3
106	157	1
103	104	2
86	208	2
77	78	1
202	218	1
148	148	3
46	46	2
99	99	3
222	241	1
164	164	3
192	192	2
62	62	3
71	72	1
168	171	1
131	241	2
88	88	2
31	31	2
31	33	3
157	157	2
42	47	2
189	189	2
167	167	1
235	235	1
78	194	1
120	188	1
229	231	1
31	66	1
122	122	3
44	149	1
223	238	2
204	206	1
7	66	3
12	22	1
137	139	3
128	191	2
163	207	2
5	5	2
21	21	4
146	152	1
146	147	1
37	38	2
17	77	1
181	215	1
5	6	2
24	24	1
17	17	5
194	196	2
187	188	1
2	5	1
12	16	1
65	68	1
61	61	4
176	182	3
17	118	2
74	211	2
162	236	1
127	181	2
19	20	1
166	166	1
41	163	2
117	175	2
218	221	1
47	47	2
18	18	2
162	220	2
159	178	2
221	225	1
155	155	1
115	117	1
8	8	3
158	158	3
153	201	1
25	123	1
102	102	2
229	229	2
143	143	2
22	23	1
7	8	2
227	234	1
227	238	4
53	97	1
168	173	2
138	140	3
239	239	2
204	204	2
171	235	1
220	225	2
148	154	1
98	98	1
0	0	3
49	50	1
65	127	2
139	141	2
127	127	1
10	41	1
42	42	4
100	101	2
100	119	2
104	104	3
83	123	1
197	197	4
81	82	4
69	69	3
1	83	1
55	55	3
57	119	1
145	146	1
62	63	2
0	15	2
217	222	2
49	49	1
50	52	1
6	79	4
23	88	2
219	242	1
83	84	2
47	65	2
52	52	1
184	184	3
77	82	1
194	194	3
6	8	2
182	184	1
218	218	3
41	57	1
48	50	1
86	87	1
65	88	2
34	34	1
167	187	1
171	171	3
9	85	1
18	77	2
4	6	1
13	23	3
199	200	2
14	17	2
120	198	2
208	224	1
234	234	4
171	172	1
216	217	1
234	240	1
14	15	1
114	114	1
125	125	5
41	42	1
74	202	2
135	193	3
163	167	5
161	161	2
37	39	4
226	230	1
14	56	1
16	101	1
148	242	1
104	183	2
48	51	1
105	115	1
30	30	5
102	122	1
205	205	2
67	96	1
187	187	1
156	157	1
230	230	3
31	36	1
75	75	1
4	83	1
71	73	2
154	154	2
72	73	1
228	230	3
129	130	2
176	176	2
7	242	1
73	91	1
238	238	1
106	106	3
6	6	4
163	185	2
137	138	2
191	193	1
143	204	1
155	156	1
75	76	1
223	223	1
108	163	2
148	149	2
227	227	3
224	224	1
76	133	1
192	206	1
139	139	1
25	159	1
67	240	1
228	232	2
241	241	1
214	215	2
32	194	2
108	108	1
0	76	1
134	137	2
47	68	2
35	41	1
231	231	1
181	206	1
21	104	1
39	61	1
153	154	1
213	221	1
164	165	2
140	140	2
21	199	1
103	183	1
19	154	2
108	118	2
202	204	1
15	27	1
134	182	1
198	199	1
67	239	1
43	43	2
24	125	2
220	223	1
126	127	1
185	185	2
88	89	1
217	219	2
105	107	1
68	69	2
4	8	2
155	160	3
117	118	2
110	110	1
21	106	1
107	122	1
116	116	4
21	23	1
217	218	2
15	22	1
214	226	1
220	221	1
0	35	1
226	240	1
30	166	1
99	102	1
14	109	1
127	164	1
177	177	1
145	232	1
123	159	2
28	28	1
187	189	1
16	106	1
56	57	1
165	168	1
84	84	1
14	57	1
3	56	2
238	239	1
47	70	1
165	165	1
158	197	1
113	113	1
44	145	1
231	235	1
99	204	1
191	215	1
150	150	1
186	187	1
51	220	1
81	84	1
47	51	1
5	104	1
14	165	1
9	55	1
208	209	1
163	188	1
51	53	2
59	60	1
124	156	1
19	19	1
31	77	1
13	186	1
202	239	1
172	235	1
30	44	1
143	241	1
225	237	1
41	79	1
136	137	1
3	84	1
