125	125	11
1	2	4
0	0	15
84	84	4
111	111	15
73	121	1
133	133	10
72	72	10
93	93	9
38	38	5
128	128	3
90	91	5
97	98	2
6	6	5
35	35	8
79	111	2
7	7	9
118	119	1
90	115	2
126	126	4
28	28	7
138	138	7
137	137	9
137	138	5
21	21	5
25	25	12
85	87	5
76	132	5
71	72	3
103	103	8
78	88	2
118	121	1
107	109	3
17	32	3
79	79	4
22	22	10
83	104	2
130	130	5
21	22	5
113	114	4
22	112	3
115	115	7
109	109	5
73	73	4
18	24	1
119	119	6
10	11	3
30	31	2
29	91	2
5	5	6
88	88	4
116	117	6
24	24	6
3	3	5
118	118	5
120	120	3
11	11	9
91	118	1
91	91	11
127	127	3
71	115	2
106	106	5
86	95	1
96	96	6
101	102	3
110	110	6
92	92	7
77	77	4
27	27	4
13	13	5
117	118	3
86	99	4
104	108	3
124	127	4
74	74	7
93	119	4
71	71	2
102	111	3
30	30	1
84	85	2
74	75	1
85	88	4
80	83	1
77	82	3
15	15	10
85	85	3
90	90	10
136	136	3
74	123	1
86	86	6
105	105	6
107	107	4
36	74	1
83	83	5
34	34	1
87	89	3
130	131	1
19	19	4
14	14	7
32	32	6
36	36	8
81	81	2
113	113	4
75	77	1
26	26	10
73	117	4
2	2	5
113	120	4
33	33	3
103	105	4
78	86	2
79	84	1
80	112	2
139	140	4
101	111	2
77	85	1
127	133	2
115	119	3
71	76	1
87	90	2
120	121	3
24	33	2
1	1	6
104	105	3
122	122	7
10	12	7
87	88	3
23	25	3
78	79	2
98	98	2
114	114	4
25	26	2
105	106	1
4	5	1
9	9	3
37	37	1
81	83	3
22	23	3
20	105	1
28	84	2
82	83	2
72	73	1
140	140	2
94	119	1
82	82	6
14	15	3
100	121	4
6	21	4
126	127	1
75	112	1
112	112	4
113	119	1
100	100	3
80	81	1
13	100	3
31	32	1
116	116	2
122	123	1
139	139	3
13	14	4
83	84	1
37	38	1
113	118	1
131	131	3
124	124	3
104	109	3
84	110	1
89	89	4
137	140	1
12	12	3
30	90	4
12	16	1
115	116	2
100	123	1
135	135	1
128	129	1
31	31	2
18	18	3
124	129	1
132	132	8
27	28	1
25	27	2
106	109	1
5	21	1
102	121	1
106	107	1
30	92	2
10	101	2
8	38	4
135	136	6
15	120	2
114	116	1
123	123	2
26	38	1
121	121	2
88	132	1
3	5	2
10	10	1
27	115	1
33	34	1
124	126	1
101	101	2
0	72	2
87	87	2
26	27	1
34	35	2
8	8	1
4	6	1
12	13	4
23	28	1
134	134	2
112	114	1
99	99	1
117	117	1
129	129	1
29	29	1
78	78	1
94	94	1
5	38	1
27	32	1
16	16	2
102	102	1
119	120	1
36	37	1
73	76	1
89	93	2
76	76	1
85	99	1
100	104	1
79	110	1
69	69	1
111	123	1
93	122	1
18	32	1
91	122	1
76	88	1
31	90	1
