223	223	1
7	8	2
16	16	5
53	54	1
33	33	4
20	20	3
36	36	8
208	230	2
56	58	5
98	98	5
57	208	2
115	115	2
222	222	6
28	28	6
38	38	10
44	44	9
241	241	2
45	172	3
36	37	3
94	94	2
63	63	5
177	194	3
220	220	11
39	39	7
17	18	2
108	108	1
48	58	2
191	191	2
11	11	10
156	156	11
95	95	6
66	66	5
182	183	3
5	5	2
36	70	2
110	110	10
31	31	12
45	45	5
35	35	5
160	160	5
100	100	9
62	62	7
145	156	2
96	96	5
194	199	1
52	52	1
17	17	3
25	25	5
65	78	2
154	154	4
113	113	6
153	153	3
150	150	3
68	68	1
111	111	5
77	78	4
225	225	4
221	221	3
158	159	4
12	12	5
109	109	7
167	167	3
106	106	3
87	87	1
212	212	6
92	93	2
192	192	2
73	73	7
99	100	3
187	190	3
51	51	6
66	67	2
13	45	1
55	55	4
179	184	2
229	229	2
67	86	1
92	92	3
189	189	1
52	62	3
180	212	3
46	95	1
217	217	5
232	232	1
119	119	1
60	60	4
29	29	4
8	9	1
193	193	5
164	165	1
201	201	3
116	116	5
172	172	6
155	179	4
90	90	6
179	186	1
55	56	3
26	26	9
115	117	4
46	46	6
188	214	1
18	18	2
183	183	9
89	89	4
67	67	5
32	32	7
9	9	8
166	166	4
155	155	4
14	48	2
191	214	2
193	214	1
211	211	1
43	43	1
184	185	1
47	48	2
205	205	11
32	33	3
85	85	2
161	161	3
12	14	2
167	168	4
79	79	4
191	193	1
208	208	2
181	211	1
31	33	1
191	192	1
224	225	3
216	216	2
246	246	4
114	115	1
184	184	3
39	40	3
96	97	3
7	38	1
96	159	1
168	170	3
31	32	2
72	72	1
9	40	1
44	45	2
84	84	4
207	207	3
244	244	1
203	203	5
203	227	2
11	226	3
4	14	3
111	112	2
86	86	1
152	152	6
182	182	5
228	228	5
158	158	2
242	244	6
163	165	1
58	61	2
45	46	2
210	210	1
65	66	2
144	144	2
168	230	3
92	114	2
101	101	2
78	78	5
156	157	4
233	233	4
112	160	1
21	195	1
176	176	4
153	154	1
236	240	2
80	81	1
109	112	1
112	112	6
44	53	1
169	170	1
34	34	2
4	4	5
168	206	3
224	224	1
71	71	2
163	163	1
19	19	4
62	63	2
145	145	2
165	166	4
49	50	3
198	198	1
164	164	2
157	158	1
170	170	4
181	182	1
37	53	1
41	41	2
144	145	1
209	209	4
117	117	2
159	160	2
114	114	1
192	197	1
186	195	1
108	157	2
101	103	2
70	103	3
151	151	4
33	82	3
29	68	1
7	35	2
74	74	2
53	53	5
99	99	3
105	115	3
201	203	3
171	171	2
186	198	2
10	10	5
89	90	2
204	204	6
76	157	1
213	214	1
195	196	2
187	200	1
185	185	3
35	203	2
152	153	1
6	6	2
196	196	1
61	61	1
13	13	1
8	8	1
243	243	3
219	219	2
168	168	1
56	56	4
51	55	3
12	17	1
180	187	1
237	237	2
21	156	1
93	93	3
97	98	1
202	202	1
21	23	3
50	50	1
87	93	1
82	82	5
158	160	1
110	111	6
23	171	2
20	21	3
116	117	1
214	214	2
113	115	1
242	242	1
169	196	1
21	21	2
234	234	2
31	93	2
160	161	2
70	70	4
57	57	1
1	2	4
227	227	1
218	219	2
26	69	3
230	244	1
180	180	2
5	34	2
212	245	1
25	26	1
77	96	1
47	63	1
105	114	1
150	226	1
181	181	1
157	157	1
73	74	1
27	27	3
238	240	1
199	199	1
14	15	1
12	53	1
24	24	1
12	67	1
52	53	1
70	100	1
38	40	1
61	62	1
71	72	1
156	173	1
24	90	1
179	179	1
48	48	1
226	226	1
213	213	2
205	212	1
171	190	1
177	177	1
23	23	2
175	176	1
91	91	1
231	231	1
208	235	1
4	5	1
242	243	1
3	3	1
197	197	1
47	47	1
212	213	1
7	7	1
245	245	1
226	228	1
238	238	2
181	194	1
32	93	1
243	244	1
181	183	1
80	80	1
121	165	1
195	195	1
147	147	1
54	54	1
65	65	1
