10	10	7
3	16	1
19	19	19
116	127	3
7	7	10
12	13	3
108	110	6
118	119	7
34	34	19
127	127	11
4	4	8
127	128	5
24	24	8
21	21	10
17	17	8
43	43	7
23	23	2
56	57	6
52	52	5
120	120	5
13	102	1
88	88	8
98	98	20
119	119	11
83	83	4
111	111	5
96	97	2
24	25	1
87	129	2
62	98	4
54	54	13
29	29	8
19	132	4
45	45	11
59	59	10
112	112	2
31	31	9
33	37	5
53	53	7
57	57	7
103	105	1
30	31	4
21	24	1
66	86	3
131	131	7
61	76	1
56	56	3
44	45	4
84	84	8
109	109	7
9	9	7
70	105	1
62	62	10
47	79	4
108	108	11
124	124	6
68	117	3
34	35	2
62	63	5
101	101	19
80	80	3
132	132	2
11	14	2
71	73	1
0	0	6
28	28	10
6	6	8
30	30	10
59	63	3
16	16	5
29	30	1
3	5	2
15	17	2
8	8	9
105	105	8
31	58	2
76	76	4
109	110	13
4	7	2
54	55	4
34	88	2
74	74	7
93	134	1
16	32	1
65	67	2
77	77	6
15	15	2
3	3	9
79	79	9
72	72	5
126	126	5
43	58	2
112	113	5
123	123	7
128	128	6
82	82	5
25	25	4
75	75	2
122	125	1
129	129	8
18	18	6
69	69	6
114	133	1
102	102	7
68	68	13
64	64	7
37	37	6
13	13	6
122	122	5
7	12	1
22	22	3
68	87	4
83	117	3
23	25	3
1	3	5
74	75	4
104	105	1
44	44	1
11	11	1
97	98	2
133	134	2
10	11	6
71	71	5
11	13	4
12	12	16
2	2	2
77	78	2
130	130	5
125	129	3
60	60	8
73	74	9
110	110	4
64	93	2
116	116	9
28	37	2
20	97	2
70	125	2
63	94	3
87	134	2
89	90	6
54	56	3
14	14	5
122	124	3
31	32	2
35	36	5
33	34	6
90	90	4
1	2	1
94	94	7
88	133	5
14	17	2
63	63	5
95	100	4
93	93	3
65	65	2
72	73	2
96	96	3
6	7	2
42	107	3
54	60	2
1	4	2
16	17	6
118	118	2
7	22	2
14	89	1
2	22	1
11	25	2
42	44	3
20	22	2
95	95	5
106	106	4
107	113	2
89	89	3
63	90	2
63	64	3
92	92	7
26	26	2
32	32	5
124	126	2
114	114	3
4	20	1
105	106	4
17	32	1
134	134	7
14	15	4
129	130	1
5	95	3
103	103	4
50	50	5
80	81	1
87	87	1
55	55	4
86	86	5
94	117	3
55	60	1
20	21	3
82	83	3
110	116	2
121	121	4
92	94	5
48	48	1
3	4	5
99	99	5
78	86	2
18	25	2
55	61	3
117	118	4
91	92	1
104	104	3
33	33	4
113	113	1
70	118	2
125	125	5
70	109	1
133	133	1
24	36	2
109	123	6
111	116	1
85	85	3
81	82	4
62	90	2
61	61	5
57	59	1
116	120	1
106	108	1
22	100	2
121	122	1
119	120	3
55	58	2
15	16	2
107	107	2
5	97	1
95	96	4
114	115	1
43	60	1
107	131	3
68	69	1
68	118	1
116	117	1
130	132	5
79	80	4
85	106	1
122	123	5
97	97	4
38	38	4
131	133	1
103	104	1
17	95	1
4	5	1
9	11	1
73	73	6
121	123	1
7	9	2
66	69	2
83	84	3
85	117	3
27	28	2
4	6	1
12	34	2
26	27	3
123	124	1
34	86	2
92	93	2
77	114	2
50	53	1
29	104	1
33	88	1
35	35	2
66	67	4
15	100	2
1	1	5
94	109	1
14	105	1
36	36	4
58	58	1
124	125	4
117	117	2
32	86	4
72	120	1
71	75	1
63	93	4
8	12	3
108	109	2
16	100	1
78	78	3
127	129	3
60	61	3
96	135	1
91	91	2
67	69	3
89	103	1
99	103	1
71	109	1
74	104	1
53	54	1
64	72	4
11	23	2
42	43	1
2	3	2
85	118	2
70	70	2
110	111	1
6	11	2
5	5	1
64	68	1
84	85	1
52	96	1
49	49	1
111	112	1
108	112	1
47	47	1
27	27	2
16	22	2
100	101	1
24	35	3
97	105	1
85	115	1
86	109	2
34	65	2
112	124	2
10	25	1
132	133	1
123	126	1
0	1	2
11	12	1
77	115	1
118	120	2
31	44	1
7	15	1
20	20	3
86	87	1
24	30	2
107	108	1
53	61	1
71	72	1
