68	68	5
138	138	9
101	131	2
115	115	1
62	62	3
13	44	1
106	140	1
176	176	5
167	171	4
22	22	3
162	162	2
124	124	5
179	179	16
128	128	16
101	123	3
140	140	4
142	142	2
173	173	8
54	65	7
14	14	6
29	29	7
173	177	3
72	94	2
9	26	2
75	101	3
58	87	2
5	26	2
124	125	1
159	159	4
151	151	4
107	107	4
17	17	8
16	16	10
30	31	2
172	172	10
102	102	3
77	77	5
180	180	6
134	134	8
64	64	8
43	43	1
115	131	1
6	6	7
124	150	1
117	117	11
12	13	3
122	127	3
32	44	2
143	144	3
105	105	16
70	70	3
127	128	5
37	37	9
171	171	4
112	112	5
50	50	1
112	132	2
24	24	2
163	170	1
110	133	5
133	133	4
158	158	8
122	130	4
163	163	3
2	17	3
152	158	2
39	39	2
116	116	3
68	89	4
142	155	1
17	19	2
160	162	2
19	19	12
99	109	2
52	62	2
139	157	2
25	26	4
60	77	2
81	82	2
40	40	2
96	140	3
101	105	2
74	74	5
93	94	1
118	119	4
161	162	2
116	118	3
113	113	4
98	99	4
108	108	4
157	160	3
141	141	2
22	23	1
170	170	5
123	150	3
11	11	4
89	102	1
67	89	3
120	141	3
137	137	3
13	23	2
80	80	3
175	175	1
39	41	1
85	85	10
167	167	1
39	40	2
81	81	5
161	164	2
157	157	4
52	52	10
3	3	6
107	128	3
97	97	4
50	51	3
130	130	6
36	36	7
91	91	2
52	56	3
146	146	5
52	71	2
126	156	1
79	86	5
88	89	4
98	122	4
152	152	3
150	150	2
31	31	4
124	142	4
61	65	2
122	122	5
85	121	3
8	9	5
88	103	5
44	45	7
58	75	2
12	30	3
56	78	1
99	99	3
100	100	3
55	73	2
123	125	3
104	106	4
139	149	3
34	34	3
13	21	3
148	148	6
30	30	2
96	96	1
12	12	5
124	145	5
56	56	5
32	43	1
106	106	17
93	93	4
134	136	2
52	53	1
66	67	1
65	65	3
145	170	1
168	168	9
132	151	3
134	135	5
107	135	1
24	35	1
110	110	3
177	178	3
171	172	2
56	57	2
81	106	2
30	32	3
126	126	4
56	86	2
123	123	2
156	157	2
95	96	1
130	133	1
5	5	1
139	139	3
78	78	2
1	1	6
28	28	1
18	43	2
79	79	5
76	76	1
163	180	3
73	73	8
117	118	1
106	116	3
165	166	6
74	78	4
26	27	2
156	156	3
111	116	2
64	68	1
92	92	4
89	89	3
15	16	8
137	147	3
98	98	2
130	132	3
173	178	4
137	161	2
15	43	1
97	140	2
128	155	2
54	54	4
18	26	2
95	95	4
8	8	4
61	61	5
121	121	3
11	30	1
15	15	12
162	179	1
61	68	2
89	90	5
131	154	1
57	103	2
101	129	4
153	154	2
129	155	2
135	142	3
16	18	2
76	101	1
121	122	2
101	120	1
179	180	1
166	166	1
10	23	1
137	171	3
148	155	4
32	32	1
9	9	1
127	140	3
125	148	1
25	40	3
83	109	1
90	90	5
151	155	2
13	13	3
149	149	4
169	170	2
120	124	1
99	140	3
93	98	1
90	92	1
75	75	2
173	175	2
32	51	2
145	173	3
136	136	3
27	31	4
140	159	1
170	172	3
25	25	2
71	72	2
90	94	3
23	23	5
131	131	3
160	160	3
80	86	2
100	123	1
145	145	8
8	10	3
138	157	2
104	104	1
7	10	1
4	4	1
72	96	1
7	7	3
111	111	2
116	117	3
63	63	3
168	172	1
53	54	2
91	98	3
6	25	2
98	121	2
9	10	4
59	59	2
0	1	3
153	178	1
2	3	3
17	33	1
88	121	1
72	95	1
21	21	1
134	156	2
147	148	2
101	127	1
57	61	1
58	58	5
33	49	2
38	38	2
118	118	6
147	149	3
87	89	1
155	156	1
4	8	1
74	75	1
111	137	1
12	31	3
129	129	5
174	174	1
41	42	2
45	45	2
85	86	5
147	147	1
111	123	1
7	11	1
67	67	4
10	10	2
35	38	1
68	81	1
144	144	2
80	106	1
118	134	5
153	153	2
109	109	2
99	100	2
175	176	1
167	174	1
117	131	1
107	132	1
118	124	1
144	150	1
138	139	2
61	67	2
143	143	1
125	169	2
136	141	1
169	169	2
56	73	3
83	83	1
90	91	1
131	148	1
112	133	1
60	61	3
73	93	1
6	9	1
21	22	1
154	161	1
30	45	1
125	125	1
163	164	1
71	71	1
94	95	1
55	56	1
102	106	1
60	60	1
72	72	1
4	20	1
153	167	1
91	118	1
174	177	1
83	84	1
138	153	2
20	20	1
165	168	1
63	88	1
135	167	1
94	94	1
28	29	1
177	177	1
0	0	1
13	14	1
127	127	3
71	96	1
98	119	1
130	156	2
35	59	2
127	156	2
161	165	1
21	26	1
57	57	2
146	172	1
126	160	1
101	102	2
133	148	1
17	43	1
157	158	1
35	35	1
145	146	1
73	74	1
97	123	1
27	27	1
23	33	1
143	172	1
7	12	2
135	149	1
95	102	1
136	137	1
140	146	1
95	117	1
118	150	1
103	104	1
5	28	1
120	133	1
119	120	1
112	113	1
2	2	1
24	26	1
