163	163	8
60	60	13
105	105	12
152	152	5
41	41	6
47	48	3
112	113	2
74	74	8
18	18	5
106	106	6
125	126	2
82	82	3
179	179	5
94	94	14
57	58	4
152	153	3
5	7	1
113	118	2
164	164	7
119	119	8
23	44	3
27	28	2
175	180	5
109	110	6
93	150	2
128	128	12
10	12	5
143	144	2
7	8	2
15	54	1
70	70	3
20	22	1
6	6	6
39	41	6
99	100	11
0	0	3
38	38	8
153	153	7
163	164	7
13	22	2
113	113	8
185	185	17
43	44	14
78	79	2
170	170	6
162	174	1
141	141	7
160	160	11
175	175	10
123	123	6
135	163	3
61	63	1
130	130	8
107	107	7
188	188	6
25	25	9
53	53	16
167	167	9
158	158	10
115	115	11
58	58	5
59	189	8
169	169	11
143	143	8
86	87	3
146	147	1
140	140	9
91	91	8
189	189	14
150	150	8
153	154	5
79	79	12
155	156	2
140	141	10
142	171	3
19	20	5
34	35	4
81	139	6
111	111	2
144	144	6
44	44	4
13	15	3
16	16	9
28	28	4
169	172	2
121	123	1
82	83	5
89	94	1
87	87	17
90	90	8
56	56	12
57	59	1
78	127	6
108	123	1
89	120	1
58	67	1
17	18	6
17	186	4
160	161	4
103	103	5
149	149	18
131	131	4
2	3	1
35	35	5
82	97	2
90	109	1
162	164	8
47	47	24
115	119	1
146	148	1
84	140	1
92	92	4
171	171	7
161	161	4
5	6	4
66	79	3
88	88	7
75	82	3
134	137	2
121	121	8
32	32	3
132	132	3
59	60	5
181	189	1
36	36	2
155	155	11
80	80	8
89	89	5
166	166	3
126	128	3
159	159	7
13	16	5
189	190	5
159	160	1
31	32	4
184	184	3
78	78	12
177	179	4
100	103	3
95	99	1
139	139	13
42	42	4
92	93	4
184	185	4
137	137	3
71	71	13
141	142	7
107	153	6
48	48	12
56	187	1
142	174	1
85	111	1
112	112	5
134	139	2
127	127	4
124	125	11
21	22	8
123	124	1
13	21	4
2	2	5
147	147	3
40	40	4
174	175	1
15	15	4
64	64	2
126	126	5
19	19	7
63	64	2
83	83	5
8	21	1
14	14	7
59	59	6
140	181	3
118	119	2
117	118	5
129	151	1
114	114	10
136	154	2
156	156	5
75	126	2
148	148	9
165	165	4
181	181	12
97	97	3
177	178	2
22	22	2
13	13	3
16	18	4
138	138	10
134	134	3
66	66	6
10	13	2
188	189	4
173	173	8
118	118	2
39	40	1
167	168	1
58	69	2
116	117	2
8	8	13
108	108	7
26	26	3
32	36	8
172	173	1
91	94	3
187	187	8
3	3	11
117	119	1
43	43	5
114	116	1
52	53	3
109	109	14
92	151	1
125	127	3
16	17	5
39	46	2
71	77	3
32	76	2
92	94	4
75	80	4
176	177	3
29	30	5
151	151	4
186	186	2
122	123	5
94	96	2
157	157	5
27	43	2
68	68	1
164	165	1
171	172	6
180	181	3
84	84	4
83	152	1
73	73	4
110	111	1
190	190	1
46	47	3
154	156	1
58	64	2
38	42	2
78	128	2
13	23	5
107	108	5
132	133	4
180	180	1
85	85	5
122	122	5
10	10	7
81	81	6
94	113	3
176	176	4
43	46	3
6	18	3
31	31	4
30	30	6
100	100	2
146	146	1
37	37	3
41	42	1
124	124	4
142	143	4
15	18	3
63	63	3
76	76	5
185	186	2
130	133	2
65	65	2
1	3	1
24	24	2
142	142	3
17	17	6
162	162	5
14	15	4
6	8	4
120	156	1
15	16	1
63	78	3
20	20	4
121	122	6
86	86	3
69	72	3
108	125	1
119	120	1
1	2	2
120	120	1
174	174	5
145	145	7
140	168	4
62	62	5
75	75	1
138	139	2
29	70	2
85	88	1
52	55	1
100	101	2
86	183	2
94	115	2
82	90	1
129	129	3
88	151	1
12	23	1
139	154	1
75	76	1
28	32	3
154	154	5
28	36	1
39	39	5
64	72	2
67	67	3
178	178	5
123	125	4
4	4	4
134	135	2
79	130	2
55	55	6
108	153	4
104	105	2
132	134	1
166	188	2
40	41	2
26	52	1
166	167	2
103	128	1
35	36	1
25	26	1
125	125	6
114	115	3
68	78	2
152	158	1
179	180	4
99	99	2
10	11	3
57	57	5
183	183	2
102	103	1
34	34	3
157	158	1
155	158	3
38	40	1
1	47	1
33	54	1
25	27	2
101	101	1
143	146	2
7	7	5
24	43	4
120	152	1
172	172	2
10	30	2
162	163	2
12	13	3
17	22	3
128	129	3
77	78	3
149	150	1
21	21	5
6	20	1
2	7	2
143	147	1
67	127	1
31	46	1
94	95	2
117	117	1
98	98	3
37	38	1
0	48	4
73	74	1
61	62	1
10	25	1
177	177	1
148	149	2
93	93	4
33	34	1
18	21	1
97	113	2
22	23	2
88	89	3
79	80	1
133	148	1
72	78	1
80	151	1
125	153	1
93	94	2
139	140	2
74	79	1
96	99	1
76	82	2
104	156	1
66	80	1
168	169	1
137	138	1
80	150	1
93	104	1
77	152	2
111	120	1
104	160	1
1	1	2
4	9	1
105	131	1
76	77	2
54	55	1
182	182	2
90	149	1
95	95	3
89	90	2
122	147	1
77	80	1
65	71	2
62	64	1
140	170	1
156	159	2
53	54	1
130	171	1
27	27	2
128	148	2
144	145	1
14	18	1
72	74	3
35	57	1
131	163	1
133	133	1
23	24	1
129	140	1
129	136	1
173	187	1
5	12	1
70	72	1
45	46	1
29	68	1
170	185	1
186	187	1
89	106	1
72	72	1
0	1	1
87	88	1
183	188	1
168	168	1
73	80	1
110	110	1
165	186	1
24	44	1
77	97	1
126	127	1
83	84	1
182	183	1
104	155	2
13	129	1
82	174	1
26	48	1
102	102	2
112	114	1
54	54	1
37	47	1
63	130	1
26	29	1
48	49	1
11	11	1
40	48	1
106	130	1
56	57	1
77	77	1
