69	69	2
17	18	1
164	164	13
204	204	7
104	104	9
49	49	2
129	129	6
25	25	6
20	20	4
229	229	5
47	47	8
41	41	3
159	159	3
122	123	3
51	51	3
201	201	11
74	74	2
102	102	5
14	16	3
131	131	12
61	82	3
169	169	3
167	168	1
228	229	5
167	167	2
72	112	3
122	122	3
190	190	7
142	143	3
65	109	1
121	121	6
39	39	4
68	78	2
61	61	9
126	127	2
41	42	5
171	171	13
224	224	5
99	100	1
240	240	12
220	220	5
84	142	1
3	5	3
76	76	12
23	23	6
205	205	8
240	241	3
175	175	6
85	85	5
138	138	8
107	107	6
4	9	6
159	160	11
214	214	2
84	84	3
234	234	13
31	31	5
60	60	3
209	211	1
183	186	5
77	77	3
37	38	1
231	231	12
233	234	3
108	108	6
75	75	7
219	219	1
194	194	3
83	142	2
65	66	2
19	19	9
88	88	5
60	61	3
5	6	5
184	184	4
197	197	4
36	36	6
136	136	8
101	103	5
225	225	5
193	195	2
111	111	3
96	117	1
197	198	1
189	190	3
153	153	5
70	73	4
140	140	6
56	56	3
0	1	1
2	3	2
40	40	9
176	176	2
118	118	3
181	193	1
95	118	1
53	53	8
80	80	8
84	139	2
183	183	4
236	237	2
125	125	12
224	225	1
166	167	2
141	141	6
1	1	4
0	0	4
115	115	13
213	213	10
14	19	5
160	160	3
96	97	1
107	126	9
189	189	5
64	64	5
79	80	2
212	213	2
144	146	3
235	235	4
217	217	3
36	55	6
81	82	2
206	207	3
234	241	2
145	213	1
150	150	7
21	22	3
66	67	7
147	160	1
168	228	3
165	165	1
21	21	7
234	235	3
15	48	1
7	7	10
158	159	1
167	215	1
157	157	5
210	210	7
5	5	7
178	180	2
173	173	5
97	97	6
98	98	5
168	168	10
233	233	3
109	109	3
166	215	1
24	24	4
57	75	1
203	203	5
114	116	2
162	162	4
117	117	3
27	38	2
14	58	2
230	230	7
73	73	1
144	144	4
52	52	3
215	215	7
63	63	4
146	213	2
158	158	4
236	236	4
12	12	2
170	170	4
202	202	5
179	179	7
59	59	6
25	43	1
34	34	3
61	83	2
11	11	2
190	191	7
187	188	2
177	177	13
207	208	2
143	144	3
166	222	2
54	54	2
209	209	3
186	187	2
69	73	1
146	146	4
86	122	1
160	202	1
68	68	4
11	209	1
15	16	2
202	203	6
98	174	2
62	62	8
41	47	2
65	80	1
172	178	4
99	99	2
124	124	7
74	75	4
110	121	2
6	21	1
222	226	1
98	99	3
144	212	1
69	77	4
135	136	3
51	57	2
139	145	2
142	142	5
50	50	4
79	88	2
101	101	10
15	15	3
211	212	4
222	222	4
48	63	1
127	127	7
70	70	5
169	170	2
136	161	2
10	11	3
86	86	5
116	116	6
127	134	2
118	121	1
43	45	1
67	68	4
159	207	1
4	4	2
43	43	3
225	226	7
187	223	1
27	27	4
117	118	1
230	231	4
211	211	6
145	155	3
214	215	2
187	187	3
64	86	1
113	113	2
123	137	8
96	96	6
140	143	1
16	16	1
21	24	1
13	13	5
186	186	8
133	133	3
138	145	1
8	8	6
153	154	7
133	134	2
225	227	1
139	143	3
80	118	1
46	115	2
120	120	2
24	61	1
78	78	4
0	2	2
232	241	3
154	169	2
164	213	1
73	74	2
98	227	2
30	31	5
101	102	1
67	67	9
82	82	5
165	213	1
181	181	1
160	161	1
104	132	5
154	154	2
36	37	1
227	231	2
123	123	2
32	32	2
221	221	4
4	5	2
100	100	4
142	205	1
184	185	1
114	117	2
155	155	2
106	126	3
166	166	9
15	21	1
2	2	2
170	171	1
75	76	3
139	139	1
238	239	3
18	18	5
57	57	1
114	114	3
22	23	1
232	233	2
10	157	1
58	58	3
6	7	2
148	148	4
9	9	7
206	206	3
128	203	2
50	55	4
149	174	1
71	71	1
239	240	1
14	48	1
212	212	3
105	105	1
65	65	4
203	204	4
191	191	2
200	200	1
119	119	3
238	238	3
185	186	4
227	227	3
147	147	2
237	238	1
16	17	1
60	62	1
52	68	2
30	30	6
145	211	4
137	137	3
21	23	2
132	132	2
124	125	3
175	202	2
180	180	2
140	141	2
228	228	3
218	219	1
38	55	3
184	193	1
185	187	1
173	178	1
164	165	2
191	192	2
19	20	1
35	37	3
190	215	1
22	22	3
85	86	2
13	15	1
216	216	2
65	67	1
10	10	1
3	23	3
48	48	2
185	190	2
143	165	2
193	193	2
79	79	6
182	242	1
167	169	1
105	106	3
68	69	3
53	68	1
46	46	2
14	63	3
199	199	2
171	172	5
161	212	2
241	241	3
119	122	1
199	201	3
86	123	2
64	70	2
118	119	1
64	65	1
103	103	1
172	173	1
221	223	2
63	70	1
64	81	1
26	26	2
62	63	2
189	214	1
109	124	1
120	121	1
14	21	1
195	195	2
147	157	1
225	236	1
135	135	3
17	32	1
162	165	1
146	147	1
42	42	1
102	136	1
80	88	1
128	135	1
70	76	2
58	59	1
223	223	3
95	96	1
144	209	1
31	34	1
103	131	2
81	84	2
6	6	1
179	180	1
118	205	1
177	218	2
158	212	1
49	51	1
163	163	1
170	219	2
151	151	2
178	242	1
38	38	1
121	122	1
110	111	2
44	44	1
33	34	1
28	29	1
53	78	1
24	25	1
56	57	1
145	145	1
196	197	1
155	156	2
143	143	2
237	237	1
134	134	2
207	207	1
182	217	1
29	30	1
66	66	2
96	118	1
163	164	1
198	198	1
242	242	1
110	110	1
172	172	1
7	9	1
96	136	1
149	152	1
20	28	2
35	35	1
