143	143	2
145	145	4
81	82	1
63	137	5
50	102	2
133	133	6
20	20	5
33	33	3
149	150	2
43	51	2
128	128	10
67	69	2
50	50	4
80	80	10
149	149	10
115	116	3
57	57	7
66	66	5
69	69	2
135	136	3
83	83	11
97	97	3
84	85	4
112	112	6
107	107	9
138	139	3
15	15	14
100	101	5
42	42	5
105	146	6
142	142	2
20	21	2
100	100	4
109	110	6
88	92	3
15	31	2
139	139	11
74	74	3
147	148	6
153	153	4
65	86	2
130	130	5
104	104	3
73	74	6
94	94	13
64	64	8
116	116	15
75	76	6
95	95	4
118	118	7
28	28	6
84	99	5
47	48	3
75	75	3
85	85	3
126	128	1
98	99	1
65	104	3
120	120	4
141	142	2
127	127	3
109	109	3
65	65	6
68	69	4
84	84	6
92	92	4
68	68	9
38	38	5
117	118	5
9	9	2
3	10	3
148	148	10
10	13	6
135	135	6
38	39	4
44	44	2
132	133	3
71	139	1
93	93	1
53	53	8
90	90	1
46	47	1
94	95	8
140	142	1
76	76	3
117	119	1
76	77	5
115	115	8
40	40	7
114	115	2
62	83	1
147	147	12
136	136	8
63	67	3
10	11	2
18	39	1
107	137	2
121	121	10
40	41	4
132	132	3
36	36	4
111	111	2
93	100	2
86	87	1
87	93	2
151	151	7
82	82	3
19	19	3
112	117	3
152	153	2
23	24	4
19	33	3
16	16	5
80	108	3
129	129	2
133	134	2
108	109	1
112	113	2
52	106	3
31	31	5
96	96	2
119	119	4
7	7	2
66	67	2
47	47	1
115	150	1
73	73	7
27	27	6
108	110	1
123	125	1
102	103	1
103	103	3
50	55	2
11	14	1
8	22	2
152	152	1
131	131	3
150	150	5
46	46	3
43	43	4
24	24	3
75	84	1
39	40	1
66	92	1
98	148	1
85	86	2
24	25	3
27	28	1
5	9	3
18	32	1
67	67	2
38	40	4
117	117	1
83	84	5
26	26	1
141	141	4
63	64	1
35	35	1
22	22	1
67	138	2
48	139	2
70	70	7
72	72	4
82	83	1
63	63	5
66	138	1
130	132	3
99	99	5
63	104	2
19	20	2
122	124	1
86	144	1
10	12	2
114	114	3
14	14	1
144	144	2
78	78	4
86	86	1
23	23	5
39	39	2
81	81	1
113	119	1
112	114	3
105	106	1
4	6	2
2	3	1
138	138	2
7	17	2
102	102	4
45	50	1
37	37	2
53	55	1
11	11	1
115	152	2
154	154	1
69	100	2
7	16	2
83	103	1
126	126	4
10	10	1
14	27	2
150	154	2
104	146	1
113	113	4
6	8	1
51	51	1
48	48	1
21	21	2
15	16	2
80	103	1
75	81	3
124	124	5
106	106	2
128	130	1
139	140	1
32	33	2
95	98	3
35	39	2
39	116	1
106	121	2
30	30	1
3	3	1
9	15	3
119	122	1
137	137	3
105	105	1
101	101	2
48	49	1
95	96	1
11	25	1
77	78	1
76	78	4
105	142	1
129	130	1
51	102	2
111	118	1
71	71	1
109	119	2
29	29	1
124	125	1
125	126	1
6	7	2
110	144	1
79	80	1
96	97	1
57	124	1
77	77	1
107	139	1
124	126	2
52	133	1
34	34	1
13	13	1
64	81	1
79	104	1
69	70	1
125	125	1
58	58	1
83	106	2
131	133	1
144	145	1
88	88	2
102	106	2
134	135	1
98	98	2
6	6	1
41	43	1
62	139	1
32	32	1
114	149	1
73	83	1
