62	64	7
107	107	2
123	123	8
39	78	1
2	2	4
60	60	5
76	76	4
30	30	12
106	106	2
83	84	3
40	40	2
99	102	1
49	49	6
89	91	6
92	93	3
120	120	7
11	11	8
132	132	4
119	119	5
127	127	6
103	129	4
44	44	6
83	85	3
15	16	2
95	95	4
91	92	3
67	67	7
41	42	3
10	10	3
117	117	4
126	127	1
47	47	9
25	26	5
57	57	6
24	25	1
66	78	2
73	75	4
40	86	4
132	133	6
99	100	1
101	104	2
121	121	12
102	102	9
33	39	3
114	115	5
89	89	2
106	107	4
42	42	5
102	127	2
100	100	11
131	131	1
61	92	1
62	62	3
54	54	3
50	50	2
77	77	7
44	78	2
53	123	3
97	97	6
101	102	2
111	111	2
78	79	5
50	81	1
16	16	2
81	82	6
53	53	2
90	90	3
69	69	9
13	13	6
125	125	6
14	14	7
94	94	2
98	98	1
13	15	3
69	70	7
43	43	3
39	77	5
9	10	3
26	26	4
9	9	4
27	43	1
110	110	4
11	12	4
33	69	2
58	61	5
33	33	3
38	38	3
124	125	3
108	108	7
122	122	4
12	12	2
7	7	6
58	58	2
46	46	1
15	15	6
63	66	3
23	24	3
63	63	7
31	32	2
29	29	3
109	122	2
88	88	4
17	18	2
45	45	3
25	25	2
17	17	3
43	44	3
117	119	1
31	31	2
56	108	2
83	83	2
111	112	3
20	20	1
37	38	2
104	104	3
4	4	1
118	120	3
79	89	1
24	26	1
70	70	2
71	74	1
5	26	2
126	130	7
1	1	1
86	86	2
71	71	2
89	93	1
79	79	1
116	116	5
124	124	3
103	128	1
21	21	6
52	53	3
63	96	1
34	34	1
104	126	3
5	7	1
49	65	2
6	6	3
72	73	2
96	96	9
72	72	6
20	21	1
83	89	3
93	93	1
22	23	1
129	129	2
53	55	3
56	112	1
84	84	3
64	66	2
108	109	4
103	126	2
70	71	1
105	105	4
126	126	2
2	24	3
32	32	2
109	109	2
71	72	1
98	99	2
85	86	1
5	5	2
50	80	1
50	51	4
88	89	4
22	22	1
27	27	3
59	59	4
103	104	3
59	60	1
126	131	2
24	24	4
115	115	3
105	124	4
39	67	1
116	117	2
48	48	1
85	85	1
80	81	1
92	92	1
75	75	2
86	87	2
29	31	2
131	132	4
28	28	1
65	65	2
64	64	1
87	87	2
104	129	3
55	55	1
105	106	1
118	118	1
133	133	2
16	21	2
7	8	1
68	68	4
104	125	2
95	96	3
65	76	1
101	126	1
113	115	1
105	107	1
59	86	2
6	7	1
78	78	1
57	112	1
121	122	1
51	51	1
0	0	1
113	113	2
22	24	1
73	73	1
3	4	1
10	11	1
32	45	1
77	78	1
78	86	1
29	34	1
21	22	1
