91	92	2
199	199	7
198	199	7
67	107	1
85	85	15
204	204	5
211	211	7
79	114	1
46	46	5
231	231	4
144	145	3
81	82	1
156	156	11
229	229	11
33	33	6
55	55	5
169	169	4
68	106	4
71	71	5
41	41	10
53	53	11
187	187	3
244	246	6
172	227	1
45	46	1
39	41	3
238	244	4
168	171	2
5	5	6
98	98	6
35	35	4
154	154	6
82	82	5
19	19	6
80	80	4
63	63	8
245	245	6
181	181	6
200	212	2
77	77	8
51	87	4
118	118	5
69	69	5
174	174	2
26	27	2
92	207	2
180	197	5
183	183	2
117	117	5
23	23	6
106	106	5
152	167	4
157	158	1
10	11	6
221	221	2
242	242	11
87	88	3
210	210	4
109	109	3
75	242	3
92	118	1
36	36	7
223	223	7
240	241	1
150	212	4
74	74	7
185	186	4
243	243	11
16	92	2
54	54	10
232	232	11
100	241	2
229	230	2
114	115	2
43	43	10
116	116	11
186	186	8
28	28	5
239	239	8
235	235	11
76	77	8
205	205	4
84	229	2
84	84	5
106	107	2
81	81	4
151	151	3
248	248	9
145	145	9
4	5	5
40	40	8
91	91	2
227	227	4
67	67	5
31	31	6
161	161	4
179	179	5
47	47	2
37	37	3
182	182	9
109	110	2
247	249	1
63	109	6
184	184	5
11	11	5
104	104	3
52	53	1
216	216	5
105	105	5
62	67	3
168	168	2
200	200	11
112	113	1
167	194	1
27	27	4
8	8	6
97	98	1
102	102	2
193	193	8
203	203	7
91	162	3
175	212	1
162	162	2
167	167	3
158	207	6
153	154	1
194	195	1
232	233	5
30	30	4
121	121	3
44	44	5
15	77	1
224	225	4
201	201	7
27	31	2
42	42	4
202	213	2
6	6	7
60	60	10
155	155	7
21	21	3
94	95	1
85	172	1
241	241	10
104	243	1
241	244	2
109	113	6
12	15	1
17	17	2
11	90	3
69	70	5
83	84	2
146	146	1
175	175	4
71	116	2
87	87	3
185	185	3
68	68	8
97	97	3
192	193	3
102	103	1
103	103	2
190	223	2
172	172	6
110	110	3
52	54	1
99	101	2
75	76	1
166	166	5
195	195	3
102	242	1
89	89	4
55	80	2
1	1	4
177	177	4
160	160	7
226	226	6
224	224	4
177	178	2
247	248	5
112	112	2
17	21	2
192	192	7
238	239	9
95	95	5
183	184	3
34	34	5
47	49	2
57	114	1
72	75	3
220	220	5
90	90	3
25	25	4
237	238	3
58	58	4
34	37	3
65	65	4
55	57	3
112	117	2
88	88	7
24	24	5
48	91	4
189	189	2
170	170	3
230	247	2
66	67	2
45	45	6
179	187	1
168	169	6
95	97	3
190	191	3
80	81	2
17	20	4
213	215	2
208	208	2
154	207	2
85	88	2
150	150	9
100	101	2
99	99	2
107	108	3
50	50	4
178	178	9
233	236	1
178	205	1
24	25	3
174	227	2
48	157	1
153	153	4
91	158	1
100	100	5
29	29	1
218	219	10
220	221	2
54	113	3
24	29	1
26	26	5
59	59	2
173	174	1
32	32	4
22	22	6
99	100	2
155	156	2
176	176	5
15	110	1
47	50	2
73	73	3
1	8	1
20	20	2
233	246	3
100	238	3
177	212	1
92	93	2
238	238	4
150	151	1
18	18	5
229	249	1
202	202	5
236	236	3
82	85	3
78	78	1
235	236	2
154	156	1
198	198	2
146	147	1
72	73	3
110	111	2
175	177	1
9	9	6
194	194	1
200	201	3
47	161	1
10	10	12
41	161	2
245	249	2
42	43	1
20	111	3
72	244	1
212	212	2
102	104	2
92	92	1
76	76	3
105	106	2
87	167	3
159	159	2
209	209	1
179	192	3
247	247	4
244	247	1
82	89	2
17	18	1
185	187	1
108	109	2
90	166	3
25	26	1
222	222	2
75	75	2
201	202	1
244	244	3
93	94	1
8	9	2
199	200	1
197	197	4
38	38	1
86	117	1
237	237	3
104	105	4
57	79	4
233	233	1
79	108	2
57	57	2
13	13	1
164	164	3
180	185	3
34	35	3
230	231	4
197	198	2
115	116	1
230	230	3
49	208	1
67	68	2
86	86	1
185	190	1
74	236	1
101	101	1
23	26	1
49	209	1
94	241	4
182	186	5
79	79	2
153	161	4
178	179	1
180	180	2
151	205	1
60	61	1
182	187	1
12	12	1
193	195	2
41	42	2
115	115	3
175	178	1
114	114	1
60	62	1
52	52	1
1	145	1
249	249	2
213	213	2
97	100	3
65	66	2
187	191	1
56	56	2
88	172	1
166	210	1
29	31	2
53	86	1
182	192	1
219	219	5
217	217	3
177	224	1
72	72	1
214	214	2
246	246	2
85	171	2
165	172	1
111	111	1
104	106	2
174	176	2
190	192	2
45	47	1
180	194	2
218	218	2
43	44	3
56	60	1
206	207	3
173	173	1
157	161	2
113	114	1
240	242	5
71	76	1
61	62	1
113	113	3
53	116	2
96	96	2
237	242	1
72	82	1
83	83	1
238	240	1
94	94	2
165	165	1
21	22	1
226	232	2
99	104	2
149	149	1
188	188	2
111	113	1
171	171	1
183	224	1
192	248	1
196	227	1
189	190	1
166	209	2
215	215	1
216	217	1
69	106	1
203	204	1
225	225	1
192	196	1
16	109	1
61	109	1
214	215	1
75	106	1
221	222	1
101	104	1
14	112	2
167	168	1
2	3	1
204	213	1
107	107	1
172	173	1
70	70	1
73	84	1
165	209	1
167	171	1
16	16	1
183	186	1
7	147	1
74	244	1
