91	91	6
63	63	5
75	76	2
25	25	4
112	113	9
55	55	9
81	82	5
77	78	2
16	18	10
44	44	13
109	109	6
120	120	6
17	17	3
65	65	13
119	130	2
104	104	8
111	111	15
66	66	5
108	108	15
87	87	4
59	60	2
69	104	3
38	39	2
12	12	9
7	15	8
58	58	7
2	32	1
46	47	4
29	29	10
44	62	3
84	85	3
48	48	4
114	114	9
16	16	5
102	102	11
103	103	8
71	97	4
111	112	2
73	74	5
54	54	3
76	76	6
125	125	9
95	95	27
49	106	1
31	31	8
88	88	4
27	27	8
105	108	6
59	59	5
10	10	9
89	89	5
110	133	2
46	46	16
103	104	2
72	102	1
2	3	6
83	83	7
114	115	7
55	56	1
104	109	1
108	130	2
50	50	8
106	106	11
13	14	6
26	26	5
52	52	13
102	104	2
76	77	4
60	60	6
69	69	7
41	42	12
23	23	10
13	128	2
100	100	7
112	112	3
73	73	1
2	2	9
20	20	8
68	74	4
91	92	3
22	25	1
79	79	10
92	92	7
61	130	4
4	4	17
70	71	1
75	75	3
82	83	3
1	1	7
0	0	5
27	28	4
108	120	1
50	51	2
94	94	2
132	132	4
123	123	5
58	125	3
21	22	2
72	72	4
66	67	9
6	6	3
131	131	5
84	84	2
117	117	8
107	107	6
38	38	5
93	94	3
115	115	7
58	69	2
119	119	2
70	70	10
92	93	1
113	113	5
68	69	7
128	129	4
4	5	1
18	18	7
116	116	6
67	73	4
87	89	2
54	56	3
67	68	1
126	130	2
90	90	7
89	93	1
47	47	1
70	124	1
8	8	5
114	118	2
3	4	7
99	99	8
46	89	6
120	122	3
104	105	6
52	53	2
89	100	2
127	127	3
40	58	2
115	116	3
47	61	1
80	80	5
129	131	1
121	121	7
129	129	3
65	66	1
83	84	7
76	94	2
90	91	4
118	118	1
78	78	3
15	15	3
105	105	1
29	30	4
19	20	5
82	82	3
106	107	3
98	98	2
124	125	2
61	126	2
38	40	2
102	103	2
63	64	1
128	130	4
28	28	4
57	112	1
42	43	4
86	87	5
40	41	2
105	132	4
5	6	1
7	7	9
122	122	1
99	100	3
67	67	3
81	81	5
31	34	2
61	129	1
77	77	4
8	9	4
101	103	2
21	21	9
14	116	1
91	93	1
108	109	4
87	90	3
9	9	7
62	62	5
18	20	2
99	133	1
104	108	1
114	117	1
39	39	4
94	96	2
96	99	2
32	33	3
41	41	10
44	65	2
124	124	5
24	24	3
93	93	7
75	84	1
126	126	4
110	111	2
127	130	3
82	84	1
42	62	1
43	43	3
11	13	2
42	42	3
101	101	3
6	7	2
72	75	2
74	74	2
87	97	2
88	89	4
5	5	3
109	110	4
22	22	5
7	116	2
49	52	1
133	133	5
32	32	7
10	11	3
4	69	2
3	116	1
9	11	2
33	33	3
6	115	1
58	95	1
58	59	1
13	13	6
120	121	3
71	102	1
30	30	3
40	117	1
40	40	4
126	127	4
57	57	2
63	118	1
14	16	2
110	110	10
92	94	2
46	124	2
68	68	6
116	117	3
95	96	2
89	92	4
97	102	1
70	98	1
123	124	2
38	42	1
40	46	1
97	98	3
58	131	1
7	115	2
8	16	1
53	54	2
48	98	1
75	77	2
71	71	1
78	91	1
95	109	2
118	119	2
52	106	1
80	81	2
64	64	2
49	50	1
51	52	1
26	30	2
49	49	4
90	93	1
11	11	2
3	9	1
56	56	5
9	10	1
24	27	1
86	86	1
15	16	1
26	33	1
74	75	1
4	32	1
131	132	1
4	42	1
58	116	1
29	132	1
51	51	1
58	133	1
125	127	1
65	67	1
97	97	1
70	99	1
130	130	1
112	114	1
18	19	2
129	130	1
40	129	1
23	24	1
102	119	1
7	16	1
107	121	1
122	123	1
52	122	1
48	95	1
14	14	2
83	89	1
9	16	1
82	92	1
85	85	1
128	128	1
84	107	1
13	125	1
