0	0	1
3	3	2
49	61	2
224	224	2
123	123	8
223	223	12
186	187	1
166	166	5
173	173	6
63	63	5
38	41	7
174	174	2
168	168	10
46	46	7
233	233	1
203	203	7
170	170	7
184	187	1
241	241	5
107	108	1
223	224	4
40	40	7
4	8	1
151	152	2
81	81	3
19	59	2
49	50	3
188	189	5
150	150	5
105	138	1
214	215	2
169	169	7
240	240	3
98	98	5
106	129	5
165	165	5
26	26	9
78	117	4
104	108	2
44	45	2
60	60	1
21	23	1
59	59	2
158	158	3
66	66	1
191	213	1
97	178	1
164	164	5
96	131	1
74	74	6
181	208	4
234	234	2
77	78	1
5	5	2
77	83	1
223	232	1
39	39	5
129	129	2
127	127	2
207	208	3
101	204	5
209	209	2
9	9	3
138	138	6
179	204	5
207	207	6
179	180	1
210	210	5
42	42	3
230	230	3
182	182	11
35	141	3
141	141	4
232	232	9
101	101	2
28	28	1
190	190	8
147	147	4
171	174	2
221	222	1
13	13	3
18	19	1
126	140	2
229	229	1
203	204	3
211	211	1
192	194	1
196	212	3
181	181	4
134	134	4
222	222	2
53	78	1
142	142	4
128	138	2
119	120	1
103	103	5
151	151	4
175	176	6
106	141	3
196	196	4
2	2	1
171	173	1
43	43	6
142	157	3
38	39	5
77	116	2
154	155	2
45	45	8
212	216	6
50	58	1
16	16	2
167	167	4
201	201	9
15	15	1
125	126	2
188	188	2
149	149	1
78	78	3
164	165	4
60	176	1
29	29	2
27	27	13
9	10	3
4	4	1
114	114	5
216	216	4
192	192	2
5	6	1
225	229	4
131	132	2
8	8	2
157	157	6
30	46	3
101	179	1
215	215	1
232	233	4
172	172	6
133	143	1
218	219	3
112	114	2
180	182	1
126	130	6
191	196	1
177	177	5
191	191	3
148	148	3
4	7	2
135	135	3
176	176	5
231	231	4
144	144	7
161	161	4
202	203	2
40	41	4
10	10	1
194	194	1
40	42	2
25	25	2
160	160	2
170	182	1
242	242	4
137	138	1
36	37	2
14	14	1
38	38	1
213	213	1
33	104	1
179	179	1
181	182	2
39	40	4
208	209	3
79	79	2
222	230	3
107	107	2
211	213	1
183	183	4
118	119	2
100	158	3
12	13	1
64	68	3
146	146	4
198	198	1
212	212	1
68	68	3
58	59	2
202	202	6
17	206	3
192	193	1
150	151	6
159	180	2
199	200	1
184	211	9
213	216	1
145	146	1
227	227	1
136	136	4
163	163	1
65	65	1
109	112	1
228	228	2
22	33	2
37	37	5
70	70	2
105	105	1
185	185	3
34	35	2
17	17	1
120	121	3
171	175	1
15	16	2
58	58	1
173	191	2
220	220	2
36	102	2
206	206	1
171	171	3
80	80	2
219	233	1
174	175	1
106	107	2
170	183	2
3	7	1
162	163	2
172	173	1
76	77	5
193	193	1
178	178	1
13	15	2
51	66	1
182	185	1
132	143	1
203	208	1
48	49	1
177	178	1
106	106	1
117	117	4
48	48	3
155	155	1
131	131	1
95	127	1
175	175	1
226	229	4
45	46	6
23	31	1
184	185	1
230	231	1
219	219	1
128	128	2
116	116	2
35	35	1
179	207	1
139	139	2
152	152	1
32	36	2
199	209	1
47	47	1
197	209	3
204	204	1
218	222	1
196	216	1
199	199	4
137	137	1
77	77	2
82	83	2
99	99	1
225	225	1
28	205	1
174	178	2
36	105	2
55	55	3
55	57	1
9	208	1
117	119	1
198	212	1
184	184	2
97	177	2
50	50	1
16	206	1
204	207	1
145	145	1
190	191	1
113	113	1
148	149	1
186	186	1
110	136	1
72	72	1
73	153	3
28	29	2
162	162	1
182	199	1
52	52	1
72	73	1
9	222	1
