198	198	4
44	44	9
181	194	1
163	164	6
53	53	11
191	194	4
101	101	7
55	55	6
74	74	4
48	48	12
159	209	2
182	196	8
113	113	18
209	209	6
23	23	10
64	64	6
11	11	28
91	92	1
151	151	16
18	18	15
52	53	4
10	16	6
10	234	6
62	62	13
107	107	5
79	92	2
195	195	13
96	98	5
33	33	11
56	58	3
82	83	6
188	188	5
238	244	2
189	206	4
32	32	16
157	164	1
182	183	5
235	246	4
32	33	6
196	198	1
109	109	7
222	222	7
244	244	10
76	79	3
150	150	12
55	56	2
81	81	11
54	54	11
234	241	7
219	246	2
27	27	7
18	22	7
37	37	9
73	73	12
238	238	5
40	40	12
155	155	7
173	174	2
200	200	14
110	110	14
237	237	5
25	26	6
47	47	4
117	117	10
2	2	8
217	217	6
0	0	1
195	196	1
55	82	1
6	234	4
192	193	3
177	180	1
174	174	13
198	199	4
29	29	6
99	99	5
63	63	8
28	200	6
161	161	8
68	68	9
20	20	2
154	154	7
193	199	6
118	118	8
100	100	11
17	17	7
159	173	3
40	41	3
26	26	10
57	87	9
183	183	12
239	240	5
248	248	2
176	176	6
180	180	6
45	45	8
247	247	7
172	172	4
226	226	5
39	63	3
20	33	2
219	219	5
213	213	4
47	48	2
97	98	10
168	169	3
74	75	4
223	223	7
39	39	7
82	82	7
67	67	5
116	117	9
168	225	2
212	213	3
78	91	2
229	229	7
35	35	2
45	46	4
239	239	8
221	222	4
215	217	10
184	185	1
30	65	1
78	80	3
19	210	6
206	206	5
49	49	5
67	70	3
165	231	2
197	198	4
205	205	12
87	89	3
10	220	5
215	215	11
46	75	2
89	90	2
32	199	3
166	170	4
189	189	2
14	248	3
199	200	4
171	171	7
175	175	9
111	111	5
184	184	7
114	117	5
8	8	16
115	115	4
50	50	4
21	21	4
8	9	4
191	191	5
202	202	4
12	44	1
25	25	5
51	51	4
19	19	4
169	169	2
233	233	9
29	52	2
215	246	7
58	58	7
203	203	8
225	226	6
245	245	2
164	188	1
52	52	8
54	68	3
3	3	4
193	193	3
245	246	5
81	82	2
47	69	5
108	108	4
170	171	2
60	60	7
79	79	7
194	194	5
119	119	3
22	22	4
12	12	5
167	172	3
98	98	3
1	1	4
187	187	8
24	53	1
153	153	7
106	106	5
233	234	1
24	24	3
214	214	8
192	192	7
83	83	5
194	195	3
232	232	1
56	57	1
242	242	9
20	38	3
115	150	3
27	29	1
80	81	3
177	177	5
194	247	3
76	77	4
15	16	2
30	30	8
203	204	5
63	64	2
57	57	6
54	85	2
164	164	7
5	5	8
231	232	7
231	231	12
180	181	4
214	215	6
160	160	6
4	14	4
241	242	5
84	84	3
109	118	1
185	186	3
36	36	6
41	41	15
62	69	3
160	231	4
175	176	4
146	146	2
145	148	1
210	224	2
165	165	3
85	85	8
168	168	5
34	35	2
102	102	7
179	179	6
42	42	4
34	34	8
218	218	7
78	79	2
235	236	6
227	227	6
89	91	4
112	115	2
8	11	1
6	15	4
193	194	1
201	212	1
18	213	3
59	78	3
5	60	2
190	211	1
180	186	3
42	43	6
207	207	2
4	4	5
43	43	1
100	153	1
101	204	6
9	9	11
6	6	5
163	163	1
172	175	1
77	78	4
46	46	6
56	56	6
89	89	1
246	246	4
37	38	2
167	167	3
214	223	1
185	232	2
24	89	2
88	94	2
26	27	3
197	197	9
166	166	10
213	214	2
169	170	3
228	229	3
35	36	2
156	161	3
113	116	4
235	235	9
55	70	5
20	64	1
178	179	2
172	173	4
27	156	3
104	107	1
90	90	2
6	17	1
71	71	10
188	190	2
83	85	3
82	85	1
182	182	3
91	91	5
177	178	4
21	95	2
26	110	2
86	87	4
7	234	2
196	196	4
152	152	4
62	150	1
28	28	12
49	50	4
190	190	7
61	61	4
87	88	4
221	221	2
10	10	11
10	11	2
217	219	2
236	236	4
36	40	3
77	77	6
167	200	2
31	31	11
151	152	1
204	205	4
15	35	2
214	226	1
26	28	1
114	114	6
220	222	3
65	66	2
201	201	2
78	78	1
87	93	2
69	69	1
18	19	1
73	76	3
159	159	3
60	61	2
29	32	1
66	66	4
240	240	5
186	186	7
183	233	2
199	199	3
20	21	1
232	233	3
12	14	2
105	105	1
212	214	2
70	70	9
35	64	2
74	76	3
53	80	1
165	187	4
84	90	1
190	192	1
201	228	1
164	190	2
164	165	3
103	103	4
75	75	2
54	56	2
21	57	1
200	201	1
39	41	1
96	96	3
92	92	5
98	102	1
17	224	3
178	178	1
95	95	4
52	69	3
7	7	3
20	77	1
226	227	2
55	67	4
8	18	1
93	93	2
190	210	2
61	65	2
75	76	2
173	196	3
246	247	3
104	104	9
174	192	1
60	64	2
182	186	1
21	22	3
120	120	3
14	15	3
224	224	3
184	228	1
88	88	6
17	202	2
153	169	2
34	73	1
225	225	2
18	149	1
181	191	2
176	190	2
221	223	3
4	5	1
18	224	1
102	103	2
86	86	2
157	201	1
93	117	1
99	205	1
221	247	1
11	12	4
172	200	1
162	163	1
236	237	1
65	79	2
87	87	3
201	202	2
15	15	3
50	51	2
60	65	1
243	243	1
208	208	6
247	248	2
210	210	3
236	238	1
34	60	2
73	80	2
217	218	3
112	145	1
237	248	3
1	2	2
163	180	1
166	230	1
185	185	2
212	212	5
24	185	2
56	87	1
152	208	2
2	16	3
97	101	1
55	58	2
56	86	3
31	36	1
7	213	4
16	16	3
242	243	1
154	155	1
149	224	1
239	241	1
14	14	1
155	204	1
61	66	2
68	69	2
119	120	1
204	204	1
173	173	1
110	113	2
158	233	2
21	27	1
15	247	1
18	211	2
179	200	1
112	112	1
208	209	1
39	47	1
96	97	1
47	72	1
232	235	1
218	219	1
72	76	2
97	97	2
6	19	1
4	248	1
68	70	1
65	65	1
59	60	1
49	75	2
211	211	1
81	90	1
186	242	2
93	94	2
215	226	1
111	112	2
167	204	1
149	150	1
72	72	2
144	153	1
48	69	1
235	245	1
113	114	1
67	68	1
30	57	2
181	181	2
59	67	2
22	26	3
29	33	2
144	145	1
38	39	2
147	147	1
20	60	1
21	89	2
61	99	2
234	234	2
215	235	3
102	104	1
179	180	2
12	15	1
109	120	2
37	77	1
168	174	2
14	34	1
6	205	1
16	73	1
105	106	1
144	144	1
116	116	1
156	156	5
241	241	1
39	40	1
197	199	1
2	44	1
173	234	1
30	58	1
145	145	1
188	212	1
38	48	1
118	119	1
20	59	2
27	52	1
51	54	1
112	113	1
81	101	1
6	201	1
216	221	1
172	204	1
26	96	1
152	222	1
152	153	1
112	152	1
