177	177	6
13	88	2
95	97	5
143	143	3
105	180	4
34	109	2
105	130	3
101	101	5
11	44	2
120	120	3
49	49	1
99	172	1
113	113	8
53	53	4
193	193	7
161	167	3
85	87	1
104	105	3
78	78	8
45	45	9
96	193	3
13	13	3
176	193	3
192	193	6
122	122	3
106	180	2
66	66	7
119	147	2
36	36	1
134	134	1
26	38	1
39	40	4
76	76	5
2	7	1
3	3	9
60	60	5
25	53	3
1	106	2
55	61	1
145	197	2
98	98	2
109	109	9
23	23	10
83	83	8
67	68	1
122	132	4
195	195	3
0	0	3
21	42	3
108	110	3
4	4	6
76	178	2
159	160	5
86	86	3
159	159	5
149	149	3
180	180	11
34	73	2
6	23	2
179	179	8
102	166	1
126	126	7
112	112	5
14	14	3
17	17	7
165	167	4
48	48	2
100	100	3
134	137	1
71	71	3
114	148	3
113	150	3
140	140	4
135	135	5
33	79	6
179	180	4
102	102	2
94	172	4
30	31	2
83	84	3
2	2	4
108	108	3
70	70	5
89	89	10
26	26	2
55	56	2
99	163	3
54	56	2
54	54	6
156	183	2
19	39	2
22	159	1
124	131	3
98	146	2
194	194	11
127	127	4
140	141	1
39	80	2
114	114	3
31	32	2
151	155	3
118	118	2
41	41	4
165	165	3
157	158	6
40	40	7
174	174	5
171	186	3
40	41	4
20	21	3
181	181	9
83	90	2
60	61	7
50	50	4
148	149	2
129	129	7
116	116	1
77	78	1
28	28	5
134	164	2
57	64	6
3	41	1
161	161	5
149	150	2
43	56	1
39	43	1
36	73	2
25	25	7
16	21	3
112	113	2
10	13	5
39	39	12
106	106	4
96	123	1
152	152	1
40	149	2
30	32	1
81	82	1
103	104	1
51	52	5
191	191	9
147	147	1
98	164	3
105	105	3
27	76	2
17	26	4
143	151	3
136	137	3
121	121	2
90	93	2
120	187	1
121	122	1
120	178	2
22	22	1
38	38	1
118	178	1
158	160	1
93	123	1
133	133	7
18	64	1
163	164	4
87	87	4
128	128	2
75	75	7
4	5	1
133	156	1
95	123	1
166	186	1
1	80	4
163	165	2
27	27	1
139	140	4
184	186	2
132	192	2
102	165	1
164	164	3
156	156	6
142	142	4
137	137	2
163	163	2
119	187	2
169	169	13
153	155	2
65	65	12
2	4	4
35	35	5
153	162	1
12	12	4
57	57	2
9	14	3
18	18	6
73	73	3
43	43	3
30	89	1
101	168	2
101	102	2
9	9	1
16	27	4
10	43	2
113	114	1
81	81	1
94	94	5
88	88	1
138	138	7
155	170	1
184	184	2
12	63	3
171	187	2
7	8	1
134	187	1
10	44	4
74	74	3
97	97	2
115	117	2
190	190	1
84	86	1
97	193	1
96	100	1
10	59	1
173	176	3
85	85	1
157	161	2
156	182	3
72	72	2
5	5	4
110	110	3
0	2	1
47	47	4
1	2	2
59	59	3
74	75	9
127	181	2
5	8	2
151	151	5
105	106	2
71	78	1
122	123	2
145	145	3
163	191	3
18	66	1
30	52	1
167	167	2
111	111	3
137	138	2
150	150	3
14	57	1
4	23	1
14	43	2
187	188	1
76	77	2
192	192	3
143	145	3
10	10	3
3	40	1
190	191	3
104	189	2
19	19	4
160	197	1
93	125	2
68	68	7
148	148	3
104	123	4
1	119	1
169	191	1
172	172	5
21	40	1
121	123	1
44	44	3
8	8	1
99	99	2
52	52	1
43	54	2
70	72	1
113	115	1
12	129	1
57	65	1
171	171	4
107	169	1
65	66	1
125	197	1
17	36	1
6	72	1
34	34	2
157	181	1
20	22	3
46	57	2
170	171	6
94	133	1
11	88	1
66	73	2
30	30	2
20	23	1
155	155	5
4	83	3
196	196	2
122	124	1
119	144	2
58	62	2
8	24	4
32	40	3
35	36	1
132	156	1
188	189	1
138	191	3
160	162	1
19	20	1
131	131	1
181	182	2
125	127	2
162	162	2
132	189	2
84	84	1
136	188	1
173	175	4
8	21	1
80	80	1
68	90	1
131	181	2
17	85	3
104	197	3
9	10	1
46	54	2
193	194	1
29	29	3
7	7	2
109	110	1
178	185	1
130	130	1
99	133	1
117	146	1
144	144	1
16	16	4
104	104	1
0	23	1
69	77	1
168	195	1
141	141	1
63	63	1
44	58	1
117	132	1
12	151	1
124	124	1
15	58	1
7	69	4
143	144	1
183	183	2
5	23	1
0	4	1
14	44	2
26	34	1
51	182	1
119	119	1
107	108	1
11	37	1
77	80	1
64	64	1
42	43	1
154	154	1
161	164	1
109	111	1
133	191	1
119	179	2
156	170	2
102	103	1
135	137	1
137	144	1
123	191	2
8	44	1
185	185	1
54	96	2
93	93	1
6	6	2
172	173	1
24	24	1
106	127	1
138	187	1
188	188	2
105	139	1
66	69	1
178	192	1
168	170	2
93	169	1
127	129	1
34	74	1
141	164	1
158	158	1
55	55	1
37	86	1
5	6	1
146	146	1
79	80	1
1	1	1
123	123	1
152	153	1
82	83	1
99	164	1
139	139	1
180	189	1
