201	213	5
52	56	3
46	46	4
229	231	2
204	206	1
56	56	11
47	48	2
234	235	5
221	221	10
14	34	6
28	28	12
24	24	13
131	131	3
167	168	1
140	193	1
5	12	4
167	167	9
189	189	6
236	238	1
241	241	5
17	17	3
190	190	5
1	1	8
170	171	4
22	22	7
55	55	7
176	184	1
35	35	4
196	196	7
206	212	3
16	74	8
19	20	6
5	5	3
63	63	4
109	109	4
72	73	1
75	76	5
146	146	6
43	44	3
113	113	8
44	45	3
217	218	4
15	15	4
40	40	17
215	216	5
18	19	18
8	8	13
19	19	5
31	34	2
45	45	12
197	198	5
125	126	8
168	168	6
122	122	7
149	149	6
58	64	4
165	175	3
185	185	6
66	67	10
27	27	6
154	154	8
238	238	3
120	121	10
14	15	1
68	68	4
52	59	1
20	20	8
31	31	3
193	196	3
42	42	10
230	230	5
205	212	2
240	240	1
37	37	6
214	226	2
220	220	6
138	138	4
156	194	3
173	173	5
100	126	2
33	34	3
184	184	6
59	60	2
59	59	9
163	163	8
225	225	7
36	67	3
57	58	3
163	196	2
198	200	1
3	3	9
201	201	5
208	210	5
14	68	4
187	187	8
26	26	3
39	40	6
49	49	8
65	65	9
134	134	14
207	207	21
121	135	4
202	202	7
183	183	7
200	201	9
217	219	2
234	234	8
73	73	6
205	205	6
175	175	5
12	12	3
128	129	4
208	209	5
69	69	8
44	44	13
133	134	11
137	216	3
208	208	2
55	56	3
36	155	2
30	32	3
38	38	13
37	145	1
234	241	1
144	145	5
72	72	6
17	38	3
145	190	3
64	81	2
102	102	7
78	78	7
78	79	2
103	107	2
164	164	4
66	81	3
138	162	2
116	118	1
223	223	8
114	138	1
227	227	4
7	7	8
107	107	4
199	199	6
105	105	3
74	74	8
13	15	7
118	119	4
9	10	3
170	195	2
138	139	9
140	140	7
85	85	3
179	179	6
14	28	4
166	168	3
209	210	2
115	117	3
113	145	3
28	29	1
60	85	2
200	205	5
150	150	16
36	37	2
19	29	1
28	78	2
165	165	7
70	70	6
25	26	6
81	81	9
99	99	6
75	75	6
64	64	5
192	192	9
30	31	2
239	239	9
235	235	8
0	1	1
21	21	2
27	100	2
114	114	7
84	223	5
176	198	1
233	233	7
29	29	7
45	74	1
206	206	9
211	211	9
101	149	1
119	119	15
1	3	1
213	213	11
207	209	1
46	70	4
48	48	11
103	103	9
49	78	4
101	104	2
143	188	1
55	61	4
4	4	8
50	80	1
145	146	1
235	236	3
198	216	4
11	11	7
86	86	8
98	98	6
172	172	10
169	191	4
178	197	2
180	183	1
82	82	2
198	198	4
179	180	4
180	182	7
215	215	4
168	169	3
82	123	1
18	18	8
139	153	1
97	97	3
224	224	8
106	106	4
37	38	3
23	28	2
83	84	6
229	230	2
159	159	6
156	156	9
161	161	4
64	65	5
112	137	3
52	52	2
237	237	5
180	180	5
242	242	7
194	195	1
170	170	4
42	145	1
168	170	1
225	226	2
124	126	1
181	184	1
226	226	8
14	14	5
223	224	1
218	218	12
228	228	5
23	23	8
25	47	4
81	84	3
217	217	7
28	30	2
2	2	5
178	214	1
203	203	3
153	153	6
221	222	4
21	100	1
153	154	4
204	204	11
188	188	4
26	27	5
9	9	6
162	164	4
157	157	4
16	16	1
108	109	5
238	239	5
155	155	7
36	36	5
117	117	4
224	225	3
193	193	4
177	177	2
49	50	1
208	237	2
129	129	5
70	71	6
14	16	2
144	160	5
233	234	2
79	79	2
37	89	3
112	112	4
15	69	4
142	142	4
57	68	2
184	214	3
47	47	5
169	171	1
115	141	5
192	193	1
165	166	1
169	192	1
63	68	1
128	128	6
203	204	1
214	214	9
50	50	2
12	15	1
135	159	3
178	198	3
140	156	2
61	61	7
58	58	8
88	88	3
11	13	2
54	55	3
201	216	3
29	30	1
39	39	3
177	216	1
110	111	3
181	182	3
152	152	3
144	168	3
100	100	3
11	68	4
152	153	4
41	41	8
151	152	2
209	209	3
57	59	2
123	123	8
43	43	4
114	135	3
76	76	1
60	60	8
196	197	3
219	219	2
77	80	5
167	190	1
101	101	3
174	174	11
32	32	2
66	66	3
84	85	4
51	51	6
195	211	1
121	122	2
117	118	1
141	141	4
185	187	4
84	84	1
216	216	11
1	4	2
26	243	2
153	157	2
175	176	3
147	147	4
151	151	9
103	104	2
41	44	6
188	189	9
80	81	2
230	232	2
200	200	4
25	28	2
13	13	5
12	74	1
124	124	4
33	33	9
166	191	2
47	235	1
66	68	3
11	69	1
182	214	2
118	158	3
230	231	2
163	164	3
113	133	2
201	212	2
195	200	4
15	21	2
115	115	4
176	182	2
111	111	4
96	99	1
195	195	1
36	133	4
186	186	2
53	88	2
182	182	5
161	162	2
135	187	2
183	184	1
165	196	3
135	161	2
141	142	1
206	209	3
124	127	2
19	71	3
96	106	1
6	6	6
173	175	1
215	230	6
162	162	3
141	150	2
158	194	2
156	158	3
22	23	2
80	80	6
143	144	1
204	210	1
16	79	1
136	136	7
15	16	1
116	161	3
157	158	2
139	139	4
194	194	1
77	77	4
49	53	2
179	200	2
220	228	3
22	51	2
130	172	2
212	213	2
30	30	9
158	158	4
53	53	1
228	231	2
76	77	2
163	167	1
177	178	1
155	158	2
54	54	2
12	13	1
146	149	2
218	219	1
21	23	1
82	83	3
186	187	1
20	31	1
0	0	9
89	89	1
57	57	4
227	228	1
48	75	3
200	211	1
20	21	2
191	191	3
145	145	4
97	100	1
118	118	2
15	72	1
154	157	1
174	175	1
169	169	1
157	159	2
15	42	2
50	52	1
164	165	2
120	120	3
192	194	1
14	89	1
143	158	2
105	106	1
85	109	1
179	219	1
214	225	2
207	208	1
17	46	1
114	134	2
62	62	4
220	221	2
20	27	1
142	187	2
231	231	1
143	159	2
114	115	1
82	84	1
25	27	2
188	195	1
219	220	3
136	138	1
190	192	2
107	108	3
86	88	1
82	145	4
15	38	1
144	162	1
3	7	1
84	100	1
182	225	1
222	222	7
95	104	1
81	82	2
39	88	1
216	226	1
38	99	1
58	61	3
124	131	1
1	2	3
215	225	1
104	104	3
2	4	3
2	9	1
160	161	1
143	145	2
212	212	2
214	216	1
171	172	3
52	63	1
172	202	3
181	183	2
210	211	2
176	176	1
137	137	2
121	121	3
209	211	2
32	85	3
58	85	1
4	16	1
205	216	1
23	24	2
11	32	1
29	34	1
67	69	1
215	226	2
178	178	2
126	126	4
71	71	1
34	34	3
219	232	2
113	161	2
179	181	1
56	58	1
108	108	2
119	138	3
58	59	1
8	10	1
116	116	3
37	43	1
166	166	2
68	69	2
57	85	2
25	25	3
150	151	1
228	229	2
130	130	2
197	199	1
103	105	1
184	185	1
37	133	3
44	99	1
2	6	1
27	60	1
236	236	2
139	156	1
209	214	1
200	217	1
52	53	2
178	201	1
143	148	2
85	86	1
16	17	1
229	229	5
20	75	1
202	204	1
149	150	1
148	149	2
159	165	1
16	38	1
159	190	1
125	127	2
201	202	1
214	215	1
123	132	1
40	41	2
232	232	2
60	62	1
15	18	1
159	161	1
122	144	1
108	112	1
102	150	1
204	211	1
23	34	1
49	51	1
193	194	2
159	168	1
241	242	1
143	143	1
24	27	1
202	222	1
239	240	1
163	168	1
115	134	1
146	147	1
219	222	1
135	135	1
11	14	1
171	171	1
227	229	1
202	203	1
20	23	1
122	125	1
137	186	1
210	210	1
156	157	1
56	66	1
108	138	1
136	137	1
