208	208	8
156	156	10
205	206	4
117	117	5
61	61	13
35	35	6
67	191	4
143	143	5
204	204	14
115	115	10
153	155	3
16	16	7
158	158	8
189	191	5
203	204	1
98	217	5
161	194	1
147	148	5
23	23	3
240	240	16
205	205	4
34	34	4
68	84	3
3	30	2
103	103	13
15	17	3
199	211	3
163	163	7
36	57	9
217	217	12
40	40	4
104	123	2
226	227	2
38	41	1
24	24	10
238	238	15
47	47	11
44	45	4
12	17	4
141	162	1
170	171	4
88	88	7
119	120	4
115	117	2
181	181	6
45	45	21
7	7	12
133	133	18
56	124	3
161	243	8
203	203	7
127	130	3
211	211	8
209	209	10
229	229	5
49	176	2
26	27	1
137	228	2
84	109	8
167	194	2
154	173	4
48	101	1
86	86	11
202	205	1
72	72	13
226	226	12
12	35	8
61	64	3
105	105	8
1	1	8
167	167	10
32	35	4
119	119	20
42	42	11
30	31	7
43	43	4
173	174	1
62	62	12
199	199	16
157	201	3
230	230	5
59	169	3
201	201	7
172	172	10
68	68	5
219	219	11
223	223	7
136	136	6
201	208	2
60	67	3
37	69	2
2	2	4
179	179	6
41	41	19
3	3	4
154	154	10
159	199	4
225	226	1
138	149	4
96	96	1
164	164	4
53	53	2
16	73	4
183	184	1
106	123	5
138	138	10
206	206	16
77	78	5
81	81	6
107	112	4
103	106	5
50	50	7
239	240	5
74	75	2
83	83	4
9	118	2
175	175	14
36	37	5
177	177	8
103	123	7
28	28	7
85	85	8
11	11	7
73	73	5
17	30	2
71	71	11
14	56	2
105	106	2
182	211	2
10	10	15
216	216	4
158	200	2
133	210	3
43	47	2
52	52	16
58	58	3
198	198	7
100	100	2
162	162	3
137	137	1
233	233	4
182	182	3
106	106	6
74	74	7
104	105	4
82	82	3
139	139	4
22	61	2
26	26	6
10	68	5
215	215	5
46	46	11
176	176	9
18	18	3
44	44	6
196	196	5
212	213	3
7	16	3
63	74	3
100	237	3
33	33	4
157	157	5
25	25	2
84	84	4
76	77	3
100	130	2
166	169	1
109	179	3
39	148	6
185	185	6
136	137	5
25	29	5
235	239	2
12	125	2
171	220	1
221	221	5
107	107	10
31	31	9
62	153	1
122	122	2
30	30	3
197	197	3
123	123	13
222	222	3
201	218	3
199	201	1
32	71	4
19	78	3
123	177	4
37	41	4
25	50	3
27	28	3
72	153	4
233	234	7
213	225	2
23	139	1
210	212	3
165	165	4
8	8	4
231	231	7
153	200	4
9	10	6
54	64	1
214	214	3
35	76	4
148	153	1
2	36	2
39	39	6
158	222	4
40	42	5
172	173	3
128	128	8
22	236	1
125	127	2
214	222	2
194	194	7
3	76	2
185	189	8
38	38	3
124	124	4
113	114	1
17	17	5
135	136	1
10	75	2
166	166	3
173	173	5
17	23	1
108	109	2
82	194	2
103	124	3
22	22	13
55	92	1
181	182	6
148	149	2
49	49	10
114	122	4
239	239	7
101	101	5
78	82	1
32	32	9
170	219	3
192	192	2
237	237	6
99	99	5
35	36	4
187	231	2
157	238	4
69	69	16
14	30	3
135	135	13
178	178	4
29	30	4
65	73	2
217	218	3
34	35	3
55	77	1
234	234	10
39	232	2
15	79	1
12	12	5
66	66	8
201	217	5
11	88	3
77	79	2
68	69	4
23	102	9
9	48	1
151	152	2
3	8	3
57	193	3
162	169	2
59	59	2
19	80	1
16	33	2
20	20	8
209	210	2
116	116	4
39	61	3
106	200	4
234	235	3
165	187	3
179	181	4
174	176	9
164	184	2
18	229	2
53	242	2
136	224	2
158	199	2
178	179	1
113	113	2
108	108	4
75	75	3
121	122	2
183	183	3
65	120	2
112	112	3
242	242	9
197	229	4
179	180	6
36	36	5
22	151	1
136	164	1
202	202	9
14	14	7
180	180	2
156	201	3
211	213	2
19	19	5
8	71	2
124	125	3
144	145	2
144	166	1
203	206	5
202	218	1
30	72	4
80	80	8
60	66	4
142	142	5
220	220	3
193	193	3
215	224	3
202	204	3
228	235	3
198	213	1
0	0	4
32	58	1
67	119	3
21	140	2
96	176	3
228	229	5
200	200	4
106	116	2
70	70	4
20	134	1
38	68	4
106	199	4
152	200	1
174	174	7
186	186	4
33	36	3
236	236	2
79	79	2
80	82	2
23	71	1
15	15	7
86	193	6
212	212	7
161	193	3
241	241	7
34	36	3
125	125	3
106	112	4
98	98	1
114	115	3
144	144	3
143	144	3
146	181	2
218	218	3
60	125	1
227	227	6
152	219	1
114	188	1
152	152	6
170	195	8
228	234	5
102	104	5
233	235	3
159	160	3
65	65	4
131	131	2
10	11	2
149	149	1
156	158	2
201	202	1
16	20	1
120	120	2
42	44	1
194	195	3
67	68	2
147	222	2
4	16	3
165	185	2
140	150	2
53	58	3
99	100	3
54	54	2
40	41	3
102	145	2
120	160	1
37	40	2
175	177	3
163	195	2
184	184	4
42	98	1
30	33	1
20	77	4
81	83	1
148	148	2
27	27	4
70	237	2
11	31	2
138	139	1
109	113	3
176	177	3
104	104	3
161	161	3
33	34	1
81	111	1
55	58	1
173	177	1
58	59	2
130	130	4
171	171	5
201	215	1
155	155	5
134	198	3
159	159	4
160	182	1
196	197	2
118	144	1
80	84	1
195	195	3
104	115	1
169	169	4
111	111	2
146	146	1
77	119	2
153	153	4
99	178	3
193	226	3
203	242	2
67	67	3
228	228	2
100	191	1
42	46	3
10	64	1
131	135	1
181	185	2
154	155	1
55	55	2
9	9	3
41	108	2
21	141	1
158	159	1
102	103	2
150	151	3
155	221	3
149	222	3
209	219	4
10	61	2
27	81	2
7	72	2
6	92	2
48	48	7
17	230	1
20	21	2
20	30	1
136	146	3
133	134	7
88	89	2
29	73	2
71	72	1
191	198	3
20	142	2
191	199	1
224	224	2
235	235	4
208	211	1
4	4	1
170	220	3
27	85	1
49	50	5
13	53	1
207	207	1
145	145	1
122	124	2
159	183	1
12	150	2
101	120	1
42	49	1
190	190	2
71	73	3
47	99	1
5	5	1
194	196	7
29	35	3
187	225	1
95	241	2
214	215	1
55	56	5
47	62	1
26	125	1
38	84	1
53	96	1
146	216	1
153	223	3
13	59	1
5	7	3
97	97	1
127	131	2
81	84	2
106	185	2
6	6	1
229	230	2
164	165	1
207	208	1
54	75	1
184	197	2
22	77	1
37	64	3
192	193	2
237	238	2
39	66	1
57	57	1
2	7	1
83	109	1
100	132	1
22	23	1
172	174	1
192	194	2
58	153	1
21	144	2
170	170	3
133	225	1
78	79	2
83	84	1
61	149	1
127	136	1
63	122	2
191	191	2
102	105	1
230	231	1
0	68	2
102	102	1
29	29	3
17	33	1
118	124	2
140	223	1
112	117	2
103	107	1
0	2	1
31	53	1
30	73	1
147	153	1
160	161	2
118	125	2
132	132	1
156	157	2
60	60	1
7	8	2
235	236	1
200	203	1
112	113	1
98	179	1
12	60	2
135	148	1
121	193	1
83	193	1
121	121	2
201	222	1
189	189	2
208	209	1
12	66	1
37	37	2
57	78	1
154	210	1
151	177	2
5	77	1
173	216	1
66	74	1
139	148	1
232	234	1
76	76	1
147	198	1
33	35	1
160	165	1
8	75	1
51	52	1
128	197	1
202	242	1
89	103	1
126	139	1
232	232	1
187	229	1
