183	183	3
133	136	6
184	184	22
128	128	15
53	111	1
144	144	9
125	125	14
131	131	5
34	42	1
69	72	3
2	3	2
98	185	4
188	189	7
142	142	12
30	43	4
152	185	2
24	25	8
36	36	11
179	180	4
112	112	10
55	63	3
113	113	10
117	117	7
30	30	13
151	151	20
29	36	3
120	149	2
19	23	3
156	160	4
28	36	2
124	124	8
150	150	7
166	166	24
99	99	28
159	159	8
146	146	15
14	14	8
134	138	1
11	37	6
115	115	10
111	112	7
3	3	5
140	149	2
29	31	4
1	2	4
7	10	2
112	113	4
84	84	9
40	41	8
31	31	8
22	22	9
18	24	5
150	156	5
31	32	2
45	45	3
83	83	3
128	138	1
138	138	12
156	156	16
86	93	4
172	172	11
63	63	3
164	167	1
57	57	3
130	133	5
54	54	5
83	165	6
178	181	1
39	39	18
47	47	8
16	16	8
177	177	17
134	134	5
92	153	3
79	79	6
102	126	2
102	127	1
0	3	6
103	156	2
121	134	2
15	22	1
76	76	9
79	80	2
53	53	13
15	17	5
98	186	1
190	190	15
26	26	4
48	48	3
176	176	9
119	120	3
73	73	7
101	101	7
154	156	2
74	74	6
71	190	4
108	108	4
2	2	9
56	56	20
9	37	2
69	69	4
126	131	3
20	25	4
66	66	5
35	35	9
60	61	4
157	158	8
37	37	12
42	43	2
131	132	5
7	7	8
19	20	9
36	39	3
154	154	9
78	146	3
135	135	16
114	115	2
144	155	4
137	137	6
139	139	10
86	87	2
48	90	2
10	10	9
6	16	3
122	126	6
164	164	11
139	186	3
86	91	2
171	171	9
105	105	1
153	164	2
63	66	2
131	139	3
88	113	2
150	151	4
70	70	16
145	146	1
166	169	4
163	163	5
77	78	5
95	95	10
103	103	7
140	141	3
17	27	3
65	67	2
126	127	2
91	93	6
74	139	2
182	182	7
148	148	6
14	16	3
22	23	3
80	81	4
165	167	1
153	153	18
87	90	2
81	81	8
66	67	8
60	64	3
82	84	1
138	139	8
70	76	1
124	126	3
7	118	1
173	174	10
87	87	3
6	6	14
186	186	16
104	104	8
130	131	2
78	173	2
27	27	1
162	162	5
60	60	6
170	175	3
2	6	1
150	152	2
118	122	8
181	182	4
185	185	8
123	124	4
136	144	2
155	156	3
88	90	1
109	109	21
175	181	7
59	86	4
110	110	13
89	89	10
82	83	3
9	10	6
163	174	1
113	115	6
65	65	11
189	190	6
54	74	4
28	29	4
80	80	6
24	30	1
166	168	3
106	106	9
102	108	1
121	121	4
181	183	5
4	5	6
23	24	12
91	94	1
111	111	4
2	120	1
11	22	2
5	45	4
143	159	1
13	13	4
160	160	13
84	85	10
83	170	1
155	163	3
142	143	3
159	161	5
170	170	3
41	143	2
128	130	4
167	185	3
12	12	5
123	123	5
104	149	2
6	83	1
141	141	8
174	180	2
43	46	6
114	116	3
186	187	1
14	81	5
47	105	2
59	59	7
54	55	3
141	150	4
176	186	3
19	22	3
181	181	15
156	158	2
168	169	3
41	140	2
46	46	12
119	119	6
42	42	9
87	88	3
161	161	13
28	28	10
73	159	1
10	12	7
62	63	1
130	130	9
36	37	4
91	92	1
175	175	9
188	188	7
157	157	4
65	90	1
20	20	8
101	102	3
55	55	5
80	160	3
58	62	1
37	58	4
41	42	4
71	71	4
94	98	2
141	145	2
161	176	4
68	126	1
12	14	5
32	32	3
73	75	2
64	65	4
102	105	3
7	11	2
5	5	9
170	172	1
137	138	2
83	84	8
132	132	3
86	88	5
95	98	1
18	18	7
92	131	3
165	165	5
10	11	6
115	116	3
92	94	1
127	127	2
141	146	2
131	135	3
174	175	9
53	57	2
159	162	4
169	175	2
114	119	3
173	184	6
6	8	3
86	86	2
21	22	4
152	154	1
102	103	5
118	119	1
0	0	13
107	107	2
76	138	3
154	164	3
85	182	1
152	160	1
123	131	1
159	160	3
68	68	6
65	113	3
123	130	4
140	140	8
9	12	1
124	128	4
57	62	4
65	66	1
149	153	1
8	8	6
25	31	3
173	173	7
85	85	5
39	44	3
39	40	4
29	35	1
82	88	2
25	25	4
174	179	3
1	1	8
189	189	3
91	91	7
26	28	3
92	92	7
78	80	1
136	138	4
126	126	3
55	56	6
110	128	2
142	146	4
19	21	3
154	157	3
76	137	2
52	117	3
144	161	2
93	139	4
71	144	1
104	106	1
41	144	1
168	168	5
152	159	2
118	118	6
1	119	1
11	11	10
108	115	2
169	172	3
21	105	1
3	5	1
149	149	6
99	103	1
77	77	1
88	89	2
182	183	4
10	31	3
21	23	2
61	177	2
40	40	13
122	122	5
129	129	8
18	19	4
63	65	3
143	143	12
178	179	2
126	129	3
12	17	4
13	14	5
19	19	8
84	178	2
97	97	5
64	64	5
176	178	3
57	71	2
17	17	8
144	158	2
44	44	4
129	130	4
56	58	2
86	177	1
41	41	7
26	56	1
174	176	2
57	190	1
185	186	2
169	173	4
123	126	2
0	21	3
136	140	1
21	21	8
34	67	1
87	100	1
111	113	6
125	126	7
58	59	3
115	161	2
25	97	2
70	145	1
10	28	1
142	161	2
62	65	1
76	85	1
156	157	1
121	124	4
153	185	2
75	76	1
160	161	3
23	28	2
184	190	2
187	190	5
93	93	4
123	125	4
116	116	3
130	132	5
145	163	3
58	58	12
96	98	3
179	182	1
184	185	2
16	32	2
63	64	5
6	7	5
35	37	3
38	38	4
141	143	2
155	186	3
20	21	4
93	177	1
90	90	5
100	100	3
28	30	7
101	106	1
116	120	1
162	163	3
62	108	3
116	117	3
17	21	4
78	79	1
48	126	2
173	176	3
148	149	2
153	154	4
12	20	3
2	4	5
4	16	3
85	132	1
152	152	5
114	114	6
133	144	1
136	136	7
68	144	2
23	23	3
15	15	8
46	47	2
95	96	3
7	12	3
149	150	7
3	4	1
58	63	1
170	171	5
100	101	1
175	184	2
169	169	9
110	111	1
102	102	9
62	62	4
67	67	3
155	162	1
86	182	1
45	48	2
94	94	6
8	13	2
127	128	4
34	34	2
151	153	1
105	109	1
59	64	2
34	38	3
12	13	1
108	114	2
131	133	1
74	75	2
92	145	1
60	177	1
172	173	2
61	86	1
141	149	2
155	187	1
137	146	2
24	24	1
101	118	1
26	46	1
124	125	4
38	40	2
171	172	1
20	33	2
161	165	3
27	28	5
187	189	6
109	110	3
179	179	2
147	152	1
78	78	8
145	145	4
181	190	2
178	180	4
61	71	1
155	158	1
107	175	2
144	150	5
136	137	2
93	106	2
157	160	2
40	44	1
175	176	1
4	6	5
147	147	2
165	169	2
15	20	1
125	128	1
142	149	2
33	33	4
112	116	2
167	167	4
4	4	7
176	177	2
68	69	1
53	55	1
61	61	1
87	152	1
153	157	2
93	178	1
22	113	1
96	106	1
77	170	3
22	25	1
155	155	1
105	107	1
158	167	1
86	89	3
96	96	3
45	46	1
91	96	5
29	32	1
90	91	3
35	36	3
164	168	3
158	159	3
1	43	1
5	44	1
181	187	2
3	48	2
26	48	1
144	147	2
24	27	2
76	79	2
4	45	2
141	144	1
27	43	1
65	74	1
4	8	3
66	185	2
10	13	4
75	84	1
75	77	1
18	21	3
120	121	5
3	43	1
2	119	2
23	32	1
52	57	2
74	76	4
167	175	3
140	150	1
16	17	1
164	165	7
33	38	1
22	139	1
111	121	2
140	148	2
2	5	2
165	170	1
6	76	1
177	181	2
71	73	2
16	27	2
94	139	1
158	177	3
165	168	1
108	109	1
185	188	1
60	62	5
38	58	2
106	122	2
166	170	2
13	15	2
107	108	3
86	132	2
70	71	3
134	142	1
29	39	1
147	151	2
76	80	2
78	83	4
115	118	1
112	120	1
45	58	2
52	54	1
113	114	2
72	171	1
159	164	1
96	170	1
72	148	2
180	180	2
179	186	3
99	182	1
113	116	1
2	52	4
57	58	2
154	155	1
38	46	1
5	6	2
93	95	2
120	123	1
25	127	2
2	30	1
24	26	1
165	175	2
167	169	2
80	82	3
96	97	2
133	133	1
140	169	2
164	184	1
119	154	1
7	21	1
70	72	3
88	88	3
104	110	1
108	112	4
139	140	2
131	134	1
142	147	1
142	173	2
158	158	2
144	148	1
100	103	3
167	168	1
99	101	2
43	43	2
140	186	1
175	186	2
68	71	3
169	170	4
105	110	1
44	45	1
72	73	1
52	119	2
98	98	2
161	162	1
27	30	1
32	33	2
13	45	1
121	123	1
23	120	1
56	63	1
43	44	1
187	188	1
152	158	1
113	117	1
152	156	1
14	15	3
64	67	2
39	84	1
149	156	1
121	122	2
34	35	2
99	102	1
160	172	1
0	1	3
168	171	1
87	101	1
154	165	3
81	158	1
139	142	1
11	12	1
52	53	2
169	174	2
187	187	2
109	112	1
168	179	1
6	10	1
82	82	2
171	173	1
1	5	1
141	142	1
168	172	1
133	137	1
104	184	1
160	177	1
169	176	1
170	179	1
86	181	2
68	88	1
184	187	1
142	148	2
28	33	1
56	57	1
166	180	2
9	17	1
75	131	1
158	162	2
67	78	1
110	125	1
38	84	1
22	30	1
182	184	2
76	141	1
149	155	1
178	178	1
152	155	1
53	131	1
159	167	1
53	54	1
103	110	1
22	96	1
57	60	1
25	128	1
0	43	1
73	74	1
134	135	1
88	93	2
92	93	1
143	149	2
72	72	1
149	187	1
17	18	1
127	137	1
166	167	1
149	188	1
22	32	1
140	143	1
24	28	1
71	145	1
174	174	1
37	39	1
159	163	1
113	163	1
170	173	1
