205	226	4
76	78	2
228	228	6
8	8	6
158	167	2
105	105	3
35	36	2
64	64	5
98	99	2
14	15	3
30	33	1
18	18	1
92	92	7
97	102	5
167	167	5
60	64	3
73	75	2
145	145	9
236	236	8
166	167	1
44	44	12
86	86	4
46	224	3
169	169	6
180	180	4
70	70	4
32	32	10
209	210	4
48	51	5
11	11	11
35	35	7
175	175	6
24	24	6
207	215	2
26	202	1
245	245	6
202	202	4
152	152	4
238	238	4
209	209	2
242	242	4
200	200	5
58	78	1
237	246	4
85	86	2
25	180	1
50	50	2
104	105	2
153	154	1
206	206	8
241	241	1
88	88	5
150	150	5
23	23	6
74	74	5
10	10	2
72	72	3
54	54	2
210	210	9
114	114	2
73	73	2
161	161	5
234	235	3
56	57	5
34	37	2
27	27	4
204	204	8
203	203	11
2	35	2
102	102	8
24	205	2
61	61	2
240	240	18
151	151	3
9	9	5
237	242	1
62	62	1
184	184	5
237	237	3
58	58	3
197	198	3
34	34	7
208	209	2
194	194	4
169	195	2
231	231	2
22	22	7
76	76	5
175	194	2
163	163	6
157	173	2
220	226	3
33	33	5
201	201	1
16	16	2
89	89	1
49	49	2
31	32	4
109	109	8
159	159	3
31	55	4
24	235	1
216	217	2
38	38	10
62	88	2
165	165	7
60	90	1
82	82	2
233	235	3
196	197	6
18	20	3
207	208	5
234	234	3
179	191	1
94	94	2
85	85	3
96	97	2
155	155	12
33	53	2
111	111	5
164	164	2
60	60	2
45	205	2
43	43	2
235	235	4
5	5	6
68	68	6
207	207	2
172	172	4
162	165	1
187	188	4
193	198	1
50	199	3
150	151	1
52	120	2
39	40	1
198	202	2
169	176	2
41	41	4
88	89	5
36	36	4
80	81	3
53	53	5
40	40	4
118	120	3
6	7	4
2	5	1
232	232	5
32	120	1
224	224	7
45	226	2
162	162	4
101	101	6
229	229	5
156	156	8
153	153	2
115	115	1
181	181	1
1	1	5
166	166	1
28	177	1
4	4	2
78	79	4
87	87	6
154	154	5
117	117	6
19	20	5
168	168	3
216	216	3
113	113	9
111	120	1
191	191	3
176	176	2
29	30	1
17	17	3
67	95	2
29	29	2
160	161	6
66	66	4
20	36	1
78	78	4
99	101	2
48	50	1
174	174	2
54	201	1
72	74	2
214	214	4
63	65	1
119	159	1
79	79	4
234	236	1
21	21	6
147	147	1
50	219	1
154	155	2
225	225	3
61	63	1
199	200	1
179	180	1
77	112	4
185	185	3
12	15	3
68	70	2
176	177	5
190	193	1
227	229	2
247	247	5
155	156	3
236	247	1
59	95	1
37	37	4
100	100	3
185	186	1
160	160	3
239	239	1
170	171	4
53	100	1
189	189	5
98	98	2
171	171	1
181	204	1
22	27	1
57	93	1
28	28	2
25	26	3
208	221	3
144	144	3
75	75	1
71	71	2
187	192	6
47	96	1
196	196	2
30	30	5
65	220	2
57	57	1
104	104	1
76	77	1
49	219	1
6	6	2
213	213	2
14	14	4
177	194	1
51	51	4
69	69	2
40	84	1
67	67	5
8	227	2
214	215	2
38	51	2
228	229	1
177	177	2
205	206	1
42	42	1
228	231	1
45	45	6
55	55	5
48	48	2
159	163	1
95	95	1
171	173	1
31	56	3
222	224	1
173	173	1
183	183	2
184	217	1
25	25	2
31	31	2
210	215	1
193	203	1
220	220	2
83	83	2
210	213	1
159	162	3
3	200	1
26	179	1
45	225	2
101	102	1
170	176	1
97	97	1
12	17	1
50	200	1
229	230	1
199	199	1
39	39	1
219	219	1
65	65	1
157	157	2
194	195	1
59	59	1
198	198	1
215	215	2
208	208	1
207	209	2
156	157	2
220	221	2
229	231	1
170	170	1
120	120	1
163	164	1
47	47	1
60	66	1
226	226	1
77	77	1
198	199	1
47	48	2
218	221	1
23	231	1
243	243	1
119	119	1
105	107	1
118	118	1
59	64	2
117	118	1
222	222	1
29	55	1
59	60	1
207	240	1
149	149	1
212	212	1
218	218	1
12	12	1
43	239	1
167	168	1
101	117	1
207	221	1
187	187	1
