93	111	5
9	29	1
31	37	3
54	58	3
56	64	3
72	75	5
55	62	2
188	189	10
24	25	2
168	173	4
127	128	4
6	6	7
101	106	4
53	53	6
148	151	7
26	26	5
162	164	3
120	124	4
106	106	7
44	44	4
156	165	2
64	65	3
97	103	3
124	128	4
14	15	8
114	116	3
133	135	5
71	76	3
35	43	2
131	131	2
153	153	3
3	5	2
101	101	5
122	132	1
148	148	8
82	96	2
120	142	3
157	159	4
77	92	2
138	140	2
75	75	1
178	179	3
146	163	4
90	90	13
56	86	1
39	39	3
144	166	2
36	37	5
154	173	3
185	185	6
128	129	2
22	34	2
161	164	4
152	153	2
168	169	1
146	148	6
175	182	2
105	105	1
6	10	3
88	88	7
157	158	2
55	55	7
171	171	2
37	42	2
85	85	3
86	96	2
166	170	7
42	45	4
70	74	4
125	132	3
79	97	1
107	125	7
5	30	2
181	181	3
78	82	5
168	168	5
66	66	5
39	44	1
13	13	6
152	154	8
117	117	2
143	143	7
22	23	2
99	100	1
73	76	1
144	144	5
125	126	3
24	27	4
4	5	4
101	104	2
48	48	2
16	17	4
53	54	2
4	6	3
179	182	2
144	146	1
145	151	1
106	107	4
184	184	13
62	64	2
46	46	4
71	72	1
41	41	3
66	71	2
112	116	6
103	103	3
166	171	4
0	2	1
44	47	5
181	182	6
161	162	5
176	183	1
101	105	1
153	154	5
45	45	2
146	147	6
85	91	3
124	137	3
169	169	2
29	32	2
87	87	2
139	146	6
85	183	2
137	137	3
25	96	4
155	167	2
22	27	2
188	188	5
183	183	2
96	96	5
109	120	6
163	176	2
115	117	4
180	183	3
117	121	2
10	27	6
43	44	4
72	74	2
111	112	2
170	170	12
95	105	1
151	185	4
28	96	2
103	151	2
52	52	7
135	136	2
36	36	5
45	188	2
164	178	5
124	125	4
167	167	4
182	186	2
25	25	4
28	36	6
158	165	1
135	135	6
56	57	5
57	90	4
118	131	1
111	111	2
29	33	3
87	88	4
114	120	3
116	121	1
80	98	2
104	104	1
22	26	2
107	108	2
118	122	1
16	16	5
42	47	3
24	26	8
26	46	1
54	54	3
20	20	1
79	80	1
89	95	1
11	12	2
112	115	2
184	185	2
182	182	3
119	119	3
14	22	2
160	184	3
139	154	4
82	87	2
35	114	3
126	143	2
172	173	7
118	128	3
118	119	2
156	158	2
90	91	4
30	33	4
152	156	2
24	24	9
157	157	6
18	19	1
52	53	2
94	110	2
3	4	6
75	76	4
186	187	4
159	159	3
146	159	1
88	92	1
158	183	7
47	47	1
96	100	5
93	97	6
102	106	2
40	42	2
160	176	4
99	99	2
177	184	1
71	74	3
141	141	1
100	120	2
66	90	2
135	142	5
187	188	3
3	29	4
14	40	1
158	161	3
25	48	2
9	10	2
74	185	2
128	131	1
172	176	2
167	174	3
57	58	1
56	56	3
128	128	1
32	32	4
6	24	2
19	19	3
79	87	1
137	138	4
79	99	2
107	131	2
87	91	1
4	4	4
27	28	2
119	123	1
57	57	4
155	156	1
90	94	1
151	151	7
25	104	1
186	188	1
67	67	2
179	179	3
34	35	3
134	148	1
59	61	2
70	76	2
5	6	1
159	166	1
175	175	3
157	175	5
3	22	2
17	17	5
159	186	3
115	116	2
74	77	3
68	120	1
87	89	3
13	37	1
151	156	8
100	114	2
10	12	1
82	82	2
113	113	1
122	134	2
177	179	5
72	79	5
117	134	4
71	71	2
121	125	1
60	62	2
138	150	2
9	27	1
47	48	1
10	10	1
59	74	3
81	105	2
160	162	2
15	15	3
94	95	2
127	127	7
7	8	3
11	18	3
118	132	1
143	145	2
116	184	3
90	92	2
37	38	12
81	91	4
139	139	3
30	32	1
168	174	1
113	128	4
57	60	1
122	143	3
17	22	1
189	189	2
116	117	1
111	130	3
190	190	10
158	171	4
145	147	2
81	82	2
113	130	1
161	167	3
12	29	1
17	19	1
80	87	2
137	139	4
23	45	2
186	186	1
178	184	1
2	2	1
104	105	2
99	101	3
0	0	2
157	162	1
33	34	2
144	155	1
17	26	4
63	66	2
115	115	2
61	66	4
128	143	1
69	186	1
98	100	2
48	96	1
104	111	3
103	139	1
12	12	1
66	76	1
185	187	3
133	134	1
31	34	2
54	60	1
60	73	2
188	190	2
91	94	6
56	63	1
6	9	3
108	189	3
149	151	2
14	18	3
164	164	1
32	34	2
5	27	4
96	97	2
59	66	4
5	29	1
12	15	2
74	95	2
30	34	2
164	170	1
55	58	2
128	151	1
53	61	2
185	186	1
135	139	1
6	8	2
122	122	5
0	24	1
58	90	4
33	33	3
113	116	2
56	61	3
6	7	6
105	106	2
70	78	1
147	147	1
182	188	1
140	146	1
175	176	3
141	143	3
60	67	2
20	21	3
84	84	5
138	142	5
82	86	4
34	34	3
21	23	1
31	36	1
147	150	3
0	30	3
127	129	4
180	182	2
73	79	2
77	81	2
55	56	2
182	183	3
82	84	3
165	165	3
66	68	1
56	67	1
119	158	1
78	79	2
35	40	2
72	72	4
173	174	2
126	126	3
127	132	1
118	118	2
81	81	4
173	175	1
74	76	4
20	38	1
126	133	1
152	170	1
19	21	2
99	122	2
66	86	2
23	39	2
60	63	3
108	108	3
130	141	1
152	157	1
112	113	2
26	27	3
90	105	1
2	30	1
23	24	1
7	9	1
166	166	4
174	177	2
163	182	2
177	178	3
25	28	1
93	131	1
5	19	5
86	90	1
117	123	2
39	42	1
6	12	1
152	152	2
27	41	1
12	16	3
65	90	1
115	151	3
13	28	3
172	177	1
142	146	1
160	166	1
24	29	4
120	122	2
154	160	2
3	3	2
97	97	4
0	10	3
103	105	1
183	184	3
187	187	2
62	63	1
142	148	1
136	136	2
92	112	1
35	37	2
132	135	2
21	21	1
83	88	2
60	60	1
36	48	1
14	16	1
75	186	2
128	133	1
10	32	2
35	46	2
109	109	3
37	113	1
80	99	2
35	35	1
68	77	2
57	59	1
78	78	1
159	172	1
142	147	1
31	35	1
86	87	2
32	36	1
108	109	1
55	64	1
153	169	1
86	93	1
130	145	1
85	184	1
115	123	1
85	98	3
158	163	2
13	20	2
54	64	1
114	121	2
27	33	1
116	119	2
115	121	1
140	142	1
82	89	1
133	136	1
84	85	1
91	92	1
153	162	2
133	133	2
144	161	2
7	7	2
30	46	1
80	80	1
131	132	1
162	163	1
185	190	3
130	143	1
98	98	3
129	129	1
112	117	1
62	62	1
78	98	1
67	151	1
88	91	1
146	146	1
5	17	1
113	118	1
40	40	1
22	39	2
12	18	1
70	87	1
13	18	1
31	31	1
112	112	2
97	99	1
0	1	2
134	139	1
121	122	1
53	55	1
35	94	1
15	113	3
5	7	2
18	32	1
89	101	1
152	186	1
171	176	1
184	186	4
157	172	1
20	24	2
93	95	2
17	23	3
130	156	1
12	14	1
86	86	1
113	114	2
46	47	1
12	13	1
130	150	1
23	27	1
120	120	2
122	137	1
144	160	1
154	158	2
70	82	1
100	100	2
134	135	1
175	183	2
99	102	1
108	122	1
29	30	2
158	160	2
40	41	1
131	135	1
117	120	1
18	109	1
150	186	1
77	79	1
162	185	1
61	65	2
79	79	3
14	114	1
176	178	1
59	59	1
172	172	1
67	86	1
111	116	1
11	11	1
160	187	1
56	62	1
89	94	1
28	48	1
110	124	1
53	62	1
94	94	1
159	164	1
152	155	1
151	161	1
175	177	1
155	159	1
168	172	1
103	128	1
57	89	1
15	16	1
40	97	1
