77	77	1
157	175	5
52	52	3
15	30	3
178	178	5
209	219	4
227	229	4
95	96	1
91	115	6
20	20	2
57	57	5
116	119	2
100	114	3
106	106	13
202	202	7
107	115	3
84	84	8
162	162	2
34	41	1
181	184	1
208	208	10
192	192	4
38	54	8
95	95	7
7	23	2
163	164	1
200	200	4
210	219	4
173	173	5
196	204	4
64	64	2
60	66	5
64	75	1
225	246	2
14	14	3
179	179	2
156	156	2
56	56	4
204	225	2
99	112	3
60	85	4
9	9	3
178	184	4
217	220	2
195	210	3
80	80	8
231	232	7
189	192	6
3	3	7
176	182	2
161	161	2
29	62	2
214	226	1
196	196	9
218	219	8
204	210	1
213	213	3
221	221	2
200	201	2
6	23	3
52	71	2
172	200	4
2	17	1
110	110	4
186	188	1
85	85	1
69	93	3
243	243	5
223	223	3
3	30	1
35	35	6
31	40	1
48	48	4
22	22	3
107	108	3
100	103	4
182	187	3
225	225	3
169	190	1
98	98	1
57	61	6
44	44	5
49	66	2
17	17	10
205	224	2
9	19	3
28	31	2
96	98	2
237	238	7
175	179	1
80	84	5
5	5	3
46	48	2
146	165	1
14	18	2
73	73	2
175	175	2
171	191	2
170	178	4
227	227	4
171	182	1
190	199	1
161	201	1
59	69	3
9	21	1
88	88	3
9	10	3
109	109	1
209	230	2
60	74	2
223	235	1
38	41	3
190	190	8
155	155	5
197	215	1
81	81	4
185	202	1
186	186	2
65	65	3
101	108	8
99	101	4
35	47	2
228	228	3
191	210	2
95	98	2
26	26	4
9	37	5
87	92	2
244	244	2
210	234	1
7	15	1
37	55	5
117	117	5
197	217	2
36	224	4
114	114	6
29	40	3
180	180	2
188	200	1
233	241	3
11	16	1
205	205	1
64	73	1
173	174	2
66	67	2
174	178	2
210	222	4
210	211	2
25	39	1
89	89	4
204	204	2
1	1	9
30	30	2
58	58	6
194	205	2
69	69	6
70	73	1
105	105	2
5	8	5
26	31	1
181	181	3
33	39	1
169	211	1
192	205	3
221	222	3
10	15	6
15	15	5
70	70	2
13	13	5
229	230	1
103	103	2
169	187	2
83	99	3
24	218	3
197	204	2
13	21	2
65	163	3
30	45	2
146	146	2
4	4	9
115	115	7
234	234	7
210	237	2
207	207	5
228	229	3
188	207	1
193	206	1
150	157	1
164	179	2
18	19	3
200	205	1
105	106	2
175	189	5
177	189	1
50	77	4
29	29	2
58	153	4
83	83	7
230	230	2
156	159	3
44	57	2
25	25	1
219	219	4
150	150	4
50	50	1
241	246	1
8	11	1
9	22	4
97	97	1
186	191	1
193	198	2
52	54	2
185	185	2
177	177	3
240	248	3
100	100	10
71	72	3
175	190	1
84	99	1
33	46	1
93	98	1
72	72	4
166	172	3
82	82	3
55	61	4
230	231	1
113	113	2
144	145	1
29	41	2
209	232	3
75	94	1
154	154	4
159	166	2
164	164	2
51	51	6
159	177	1
234	244	7
209	209	5
59	75	2
107	145	2
196	199	3
224	224	2
202	203	1
206	222	2
60	60	3
197	197	4
186	216	3
230	240	1
36	36	1
54	65	2
84	85	2
163	163	2
45	45	5
224	230	3
216	227	1
31	31	4
16	17	2
234	245	3
211	236	2
64	85	1
240	240	1
80	111	1
168	169	1
11	11	1
65	83	2
229	234	3
236	236	8
102	111	3
194	195	1
233	235	1
95	155	3
198	198	4
41	63	1
103	107	2
230	244	3
118	119	3
231	231	7
195	212	2
107	107	1
86	86	1
215	215	10
101	101	1
158	162	2
32	32	2
94	94	1
177	182	2
223	238	5
72	86	1
62	67	5
149	152	1
68	68	6
50	68	2
185	191	5
8	23	1
52	206	2
98	111	3
44	56	1
179	183	1
177	187	1
151	151	4
12	18	4
14	26	1
229	244	3
242	242	2
34	38	1
195	195	4
24	24	3
220	248	1
28	30	2
99	99	3
12	32	4
176	176	3
202	208	4
229	245	1
210	210	1
21	22	3
189	203	1
64	81	1
181	199	1
169	169	4
207	209	1
159	163	1
74	74	3
62	65	3
42	42	2
79	79	2
150	154	1
40	57	2
94	158	1
186	209	2
48	81	3
238	238	4
53	74	1
193	195	3
205	225	1
174	203	2
217	218	4
190	192	2
40	42	1
197	212	1
214	214	3
103	116	3
22	53	4
178	188	2
157	166	1
21	30	1
45	54	1
95	109	2
85	86	5
19	20	2
227	240	1
30	42	3
57	73	1
46	46	8
2	4	2
145	151	2
87	87	3
142	142	1
62	62	1
219	228	1
223	247	4
90	90	6
226	226	1
245	245	3
49	61	1
34	35	2
108	115	1
40	40	2
59	59	1
19	19	3
189	206	3
16	16	4
97	104	2
98	100	1
184	184	1
207	217	1
162	190	1
7	7	5
246	246	3
160	184	2
207	227	2
48	61	2
63	63	4
155	156	2
43	48	1
92	92	8
20	22	2
10	10	1
212	245	3
235	235	4
225	238	1
95	114	1
227	235	1
53	53	2
42	45	2
65	79	1
44	52	1
179	181	2
54	66	2
195	244	2
206	206	2
39	39	3
204	221	1
194	208	1
172	172	4
64	176	2
205	217	3
170	170	3
61	61	2
190	191	1
1	20	1
55	56	2
220	220	3
96	97	2
79	86	2
106	109	1
232	233	2
165	173	1
34	39	2
108	108	1
191	206	3
224	229	2
96	96	2
56	153	1
31	47	2
54	76	2
38	43	2
76	76	3
50	57	1
94	155	3
218	227	1
215	220	1
219	221	1
9	23	2
104	107	1
199	219	2
225	226	1
81	159	1
181	208	1
23	24	2
60	65	1
49	49	3
161	163	2
234	241	1
103	115	1
32	179	1
150	171	2
43	43	1
151	166	1
18	18	2
217	221	1
30	211	1
40	52	1
153	153	1
166	184	1
203	203	4
216	216	1
230	232	1
55	60	2
10	13	2
219	220	1
40	41	2
69	82	4
200	210	3
96	109	3
77	91	2
151	153	3
58	68	1
207	216	1
78	83	2
163	187	1
188	202	4
86	110	1
197	226	1
190	201	1
212	223	2
78	95	3
15	26	1
161	178	1
193	204	1
27	31	1
4	19	1
114	120	1
86	102	2
97	108	1
63	168	4
106	111	1
199	203	2
152	152	1
172	199	1
66	69	1
67	67	1
44	47	1
70	85	3
199	200	3
52	75	1
80	109	1
235	244	2
75	75	3
218	218	4
93	93	3
231	240	1
181	190	1
12	19	1
91	91	2
198	216	2
207	211	1
225	231	2
206	210	2
191	209	1
147	147	1
184	187	1
78	80	1
93	109	5
79	83	1
218	220	1
229	240	1
162	163	2
41	41	1
87	88	1
232	232	4
197	202	1
217	217	2
78	78	1
47	60	1
242	243	4
37	37	2
186	203	2
209	210	2
54	54	1
222	238	1
36	54	1
183	199	1
94	109	2
75	93	1
54	74	1
8	8	2
97	99	2
217	236	1
242	247	2
116	116	1
112	113	1
28	28	1
68	73	1
224	240	1
3	7	1
173	190	1
166	167	1
119	119	2
194	194	1
157	157	1
98	103	1
145	165	1
55	55	2
87	105	1
74	79	1
26	46	1
41	42	3
29	42	1
216	217	1
237	237	2
189	189	3
224	226	1
36	41	1
190	212	2
209	214	1
46	63	1
151	152	1
56	87	1
234	248	1
183	183	1
76	78	1
99	105	1
7	20	1
15	47	1
218	224	1
1	2	1
12	36	1
115	118	1
93	96	2
27	42	1
103	109	1
1	16	1
167	182	1
47	47	1
45	57	1
198	221	1
208	220	1
62	180	1
51	53	1
47	59	1
243	248	2
230	233	1
233	233	1
3	18	1
160	164	1
9	14	1
104	106	1
29	31	1
84	86	1
82	83	1
169	176	2
50	62	1
20	25	1
144	150	1
9	17	1
6	26	1
39	67	1
80	101	1
7	11	1
187	202	1
244	245	1
