87	106	2
170	170	8
62	63	9
29	29	7
183	184	5
47	47	9
18	19	9
59	59	7
55	55	11
154	154	15
99	99	12
176	176	15
95	95	7
44	44	5
124	125	2
36	36	8
5	6	6
39	39	9
27	28	6
122	124	4
7	8	2
53	65	1
159	159	11
126	127	1
77	77	9
182	182	9
122	122	5
42	53	5
17	17	6
156	156	6
108	108	17
3	3	7
141	141	7
42	42	5
68	68	6
33	33	6
158	158	9
152	153	3
4	4	8
57	57	6
90	90	6
78	78	7
121	122	2
88	88	3
6	6	6
40	48	5
62	62	1
152	152	18
151	151	8
86	88	3
109	113	1
27	27	12
18	31	1
63	65	1
183	183	6
185	185	14
128	128	11
45	45	5
132	135	2
130	130	8
0	0	3
16	17	8
116	117	3
176	177	4
178	178	7
131	131	4
117	117	5
141	142	7
5	5	6
24	24	4
58	58	7
35	35	9
91	91	5
82	83	4
38	62	2
14	14	2
136	136	13
53	53	7
52	52	4
124	157	2
101	101	10
123	124	5
54	54	6
167	167	9
38	38	7
57	67	6
26	26	8
13	13	15
169	169	12
22	22	12
127	127	6
146	146	5
122	123	4
166	166	8
119	120	4
180	180	4
104	104	5
129	129	3
83	99	5
105	105	8
149	149	3
112	114	2
1	1	1
28	28	16
100	100	4
85	85	14
96	96	6
179	179	4
123	123	11
172	173	7
25	25	8
33	34	2
43	44	2
180	181	2
61	61	10
140	140	13
147	151	2
177	178	10
134	134	5
15	54	1
27	31	6
118	119	5
97	97	4
151	172	3
114	114	3
120	120	7
87	87	6
109	127	2
40	40	4
157	157	3
23	23	4
107	107	11
127	133	7
9	9	2
79	79	2
10	10	5
174	174	6
161	161	3
15	32	3
181	182	2
162	162	9
145	146	2
21	22	3
123	154	8
53	54	3
106	106	8
73	73	8
106	136	2
124	124	9
184	184	8
98	98	12
43	43	10
65	65	3
34	34	5
148	148	11
3	41	2
171	172	2
109	109	13
2	2	4
112	112	4
42	43	6
189	189	1
142	142	2
71	96	3
169	170	8
113	114	3
138	138	10
145	151	1
52	65	4
137	138	1
96	97	6
41	41	8
89	89	7
188	189	5
86	86	4
172	172	1
186	186	10
74	74	4
92	92	5
72	74	5
7	7	4
150	150	8
60	60	6
119	129	5
181	181	7
121	121	5
55	63	5
140	156	1
122	154	1
174	175	2
139	139	3
46	46	4
67	68	3
171	171	4
136	137	3
23	24	3
182	183	3
90	95	4
64	64	8
160	160	4
16	16	4
36	37	4
175	175	9
126	126	2
168	168	6
77	85	1
148	151	1
121	154	2
20	20	3
103	103	3
75	75	3
147	147	3
133	133	6
122	155	3
32	32	2
97	98	3
58	59	3
12	13	3
27	32	5
110	111	1
128	140	4
134	135	2
187	187	3
155	155	4
3	40	2
149	150	7
43	52	1
131	132	5
178	182	2
168	169	7
144	156	1
167	168	4
75	96	4
93	93	3
35	36	2
4	17	4
128	149	4
95	113	3
87	103	1
71	72	4
185	186	2
93	94	3
148	150	1
42	48	2
156	158	2
15	15	2
32	34	1
135	135	2
119	119	3
80	82	1
98	99	3
177	177	5
9	10	1
164	164	3
138	139	2
46	76	3
54	62	3
118	118	5
162	163	3
46	78	4
151	185	3
134	136	1
0	1	1
76	76	8
55	57	1
107	108	3
66	66	5
145	172	1
123	155	2
63	64	1
48	48	2
145	145	5
45	79	3
122	146	3
11	12	1
8	8	2
143	143	4
92	93	1
66	67	3
65	74	1
152	156	1
87	138	2
22	23	3
6	7	6
125	126	2
81	81	4
131	133	4
24	25	1
106	138	2
125	125	3
102	109	1
78	81	2
162	165	3
137	137	6
12	78	2
77	84	4
109	110	1
12	12	3
146	147	1
94	94	5
106	137	1
21	21	2
83	85	2
35	37	4
23	30	2
163	177	1
106	130	1
110	110	4
187	188	3
47	76	2
57	62	1
29	30	1
156	157	1
159	160	1
18	18	3
68	69	2
166	167	5
48	57	2
103	104	3
86	87	2
76	77	1
152	157	2
56	56	2
55	67	3
19	19	1
26	27	1
21	23	1
190	190	1
63	63	2
3	4	1
61	63	1
115	115	5
14	15	1
6	54	1
165	165	2
0	8	1
91	99	1
89	90	3
19	20	1
11	11	3
119	126	1
113	127	2
144	144	3
111	112	1
17	34	2
133	135	4
157	158	1
6	8	2
129	139	1
148	149	1
142	143	2
75	76	3
146	155	1
31	31	1
91	95	1
92	108	2
102	104	1
127	128	3
111	111	1
108	130	1
163	164	1
38	39	2
173	190	2
17	18	1
82	82	2
91	130	1
140	141	1
173	173	2
142	144	1
103	106	1
83	100	2
37	37	1
7	44	1
130	134	2
125	127	2
4	5	1
175	176	1
91	94	1
40	42	1
115	116	1
164	165	1
132	132	1
54	55	1
157	159	1
13	14	1
153	153	1
71	74	1
44	46	1
74	75	1
102	106	1
16	34	1
27	33	1
