57	132	6
72	73	1
31	31	6
126	126	7
124	124	17
12	12	7
23	23	12
93	93	9
6	7	5
94	132	3
28	34	3
11	11	10
54	54	14
41	41	12
83	83	5
123	124	3
17	18	14
87	88	3
55	55	7
84	84	13
56	87	6
33	41	3
78	85	4
65	65	3
85	86	3
50	50	10
78	86	3
59	59	9
18	18	11
119	119	10
62	62	5
21	21	4
82	86	1
121	121	15
118	118	10
60	61	4
30	30	8
94	94	10
45	47	4
78	78	6
53	53	11
131	131	8
61	61	11
2	2	9
67	67	3
58	59	4
89	95	3
105	105	5
132	132	6
86	86	11
39	100	2
57	79	3
48	48	3
63	63	9
71	71	8
10	10	7
113	113	18
91	91	5
55	104	2
27	27	4
56	56	7
17	47	5
54	56	4
68	68	12
99	99	10
110	110	10
60	60	8
49	49	11
51	52	1
126	130	5
104	104	18
89	92	3
38	38	7
3	3	16
22	26	7
42	43	5
120	120	3
58	58	9
28	29	8
6	6	4
47	48	1
5	5	6
11	26	2
26	26	6
49	50	1
32	32	5
89	102	4
45	87	2
44	45	4
85	85	4
59	62	1
76	76	5
94	109	1
101	101	5
44	44	7
45	45	5
15	15	9
4	4	6
40	102	1
59	60	6
66	66	12
9	9	2
31	43	2
125	128	3
79	132	1
122	122	7
112	112	9
17	17	3
40	40	4
100	100	14
97	97	9
7	8	4
7	22	4
83	84	8
4	5	2
33	33	6
98	98	7
117	117	5
125	125	7
1	1	14
74	74	3
79	85	2
62	63	4
79	79	6
73	76	2
106	106	14
80	82	9
102	102	3
75	76	3
67	68	6
73	74	2
129	129	4
52	52	10
91	92	1
42	42	7
115	116	5
13	13	10
116	116	4
8	9	5
22	25	3
11	14	2
47	47	7
7	7	13
57	57	3
111	111	3
27	28	2
78	83	1
8	24	3
96	96	1
90	103	2
14	14	4
20	20	9
46	46	2
9	10	2
43	43	7
97	102	4
0	1	2
65	81	1
31	54	5
131	132	5
94	105	1
77	77	9
109	109	5
114	115	8
88	88	15
64	81	1
114	114	3
65	66	2
23	24	6
81	82	2
16	17	5
10	11	8
0	0	5
117	119	3
80	81	1
49	51	4
92	93	1
5	7	2
98	120	2
114	131	1
45	51	1
81	81	1
126	127	2
108	109	3
72	72	12
18	19	2
77	78	1
7	9	5
29	31	2
46	76	1
86	87	3
69	69	5
33	40	3
95	106	4
88	89	1
80	124	2
117	118	5
99	100	2
112	116	1
89	90	3
84	85	4
127	127	3
58	82	3
57	87	4
44	54	1
42	104	1
51	76	2
96	104	1
73	77	1
59	63	6
54	55	3
28	28	4
115	115	7
29	29	3
17	51	1
31	32	2
105	106	3
133	133	2
64	64	11
52	53	2
124	125	2
70	70	6
80	80	10
44	55	1
106	107	4
16	16	9
126	128	2
87	87	6
18	51	2
109	110	3
68	69	4
112	113	2
56	103	4
57	58	1
95	98	1
97	98	7
63	81	2
80	85	3
114	116	1
61	130	2
34	34	4
93	94	3
108	108	9
43	53	6
92	92	7
46	75	1
59	86	2
55	86	1
100	121	1
49	76	1
51	51	1
88	92	1
42	102	1
56	86	1
24	24	1
82	82	3
31	42	2
118	119	6
30	31	2
58	85	2
24	25	1
19	22	1
90	90	8
75	75	1
13	14	2
102	103	1
94	95	4
95	95	3
19	19	2
57	92	2
93	105	1
103	103	2
61	126	3
23	26	1
22	22	2
11	12	1
97	103	1
8	8	2
73	73	1
38	39	2
10	26	1
77	85	2
67	118	1
78	79	1
98	100	1
18	21	1
123	123	3
32	41	1
77	83	1
105	108	1
121	122	4
93	95	1
39	39	3
5	6	1
22	30	1
79	80	1
37	38	1
39	42	1
26	29	2
50	51	1
59	61	1
122	133	1
108	131	1
25	25	1
96	106	1
23	33	1
10	20	1
32	54	1
21	22	1
55	103	2
98	99	1
46	47	1
104	105	1
50	52	1
128	130	1
41	42	1
7	23	1
79	93	1
15	16	1
111	112	1
