23	23	7
117	117	9
78	78	8
38	119	4
109	109	4
87	87	13
12	12	10
9	9	4
21	21	11
65	65	10
99	100	13
60	60	10
131	132	4
88	88	3
75	75	8
10	10	7
78	80	5
72	73	13
39	40	3
106	106	11
119	122	3
25	30	2
35	35	14
55	55	9
25	25	9
70	74	2
56	56	4
113	113	6
19	19	7
33	33	6
79	79	13
75	76	3
11	21	11
73	107	2
134	134	6
11	11	5
0	27	3
105	130	4
111	115	8
93	93	17
22	22	2
74	74	12
21	22	3
105	109	1
84	84	8
106	107	14
63	63	6
17	17	7
1	2	2
20	23	1
45	45	7
125	125	2
124	129	2
23	25	4
48	49	3
6	6	8
20	20	9
103	103	14
17	20	2
42	64	1
105	106	1
62	62	2
73	73	3
7	7	3
57	58	4
59	59	6
38	38	4
127	130	4
15	17	7
108	108	9
126	126	4
31	33	5
95	102	3
16	17	4
89	89	4
111	111	15
19	23	5
2	5	2
58	62	3
112	112	2
59	60	4
85	86	3
16	18	1
47	47	2
37	40	2
124	124	8
84	88	3
95	95	2
8	8	10
18	35	5
9	11	5
82	87	4
118	120	1
71	71	4
18	47	1
123	124	1
104	105	2
69	71	2
122	122	7
17	19	3
4	5	2
14	14	1
83	84	5
20	27	3
4	113	3
70	72	5
81	82	1
128	128	4
72	72	6
4	133	3
50	50	4
34	36	3
28	29	1
32	32	3
16	119	1
79	80	4
110	110	5
13	13	2
69	70	1
100	100	3
64	67	3
41	41	5
108	110	5
82	82	6
0	2	2
104	104	6
31	56	1
70	70	4
64	64	4
81	81	8
45	46	4
66	66	2
36	36	4
75	112	4
108	109	4
19	20	2
56	113	5
92	92	2
24	25	5
35	36	7
9	12	1
11	12	5
13	28	2
31	31	1
5	5	3
120	120	9
15	15	12
131	131	3
16	16	5
87	122	3
28	28	4
117	118	1
114	114	2
49	49	2
89	93	2
71	74	9
41	42	4
133	133	8
59	109	1
70	73	3
27	27	3
6	14	2
37	37	9
32	33	2
93	100	1
129	129	7
126	128	2
67	67	2
9	10	2
97	103	2
42	42	2
80	80	4
39	41	2
57	57	1
30	30	5
1	10	2
119	119	3
22	30	6
76	76	3
118	118	3
4	124	2
51	55	2
13	15	2
2	117	6
29	29	3
77	77	2
116	116	5
100	102	2
42	43	2
14	17	3
8	38	1
83	86	5
68	72	4
111	112	1
36	43	2
70	125	1
62	63	1
74	75	2
103	109	3
98	98	4
123	123	3
43	43	3
85	87	3
102	104	2
105	105	2
48	48	3
121	130	1
7	8	5
113	114	1
84	85	3
10	11	2
15	42	3
31	32	2
0	0	2
5	6	1
26	26	1
42	46	1
112	115	3
116	117	1
125	126	2
132	132	1
117	120	1
105	107	1
44	47	1
43	57	2
27	29	1
65	67	4
121	121	2
113	115	1
115	115	3
43	46	1
85	85	4
125	129	1
20	21	1
92	96	1
72	80	1
24	24	3
40	40	1
56	88	1
101	101	2
14	15	1
2	2	3
65	66	1
20	25	2
24	26	1
97	98	3
115	116	2
83	83	1
11	31	2
7	28	4
97	107	2
19	25	2
37	41	2
123	133	1
74	120	1
21	23	2
17	18	1
19	30	1
107	107	2
124	133	1
34	35	4
96	99	1
47	48	1
46	46	1
130	130	3
124	125	1
94	95	2
69	69	3
99	99	3
97	97	1
59	63	2
13	14	5
58	58	1
106	130	2
0	59	2
126	127	1
15	16	1
95	96	1
0	46	1
131	133	1
95	103	2
57	88	1
94	94	1
12	44	1
18	18	2
93	95	1
79	87	1
90	90	1
31	36	1
37	38	1
130	131	1
84	86	2
98	122	1
86	86	1
8	10	1
39	39	1
58	60	1
132	133	2
68	68	1
119	120	1
68	119	2
3	3	1
75	111	1
75	114	1
124	126	1
13	16	1
61	61	1
99	102	1
66	68	1
43	44	1
18	30	1
78	79	1
7	12	1
124	128	1
29	37	1
79	84	1
34	34	1
95	132	1
108	111	1
