197	205	1
64	65	2
196	196	3
45	45	9
112	112	2
82	82	5
30	31	2
67	67	4
150	150	5
50	57	2
189	189	3
213	213	4
31	31	3
175	175	5
182	206	4
151	169	1
178	210	2
38	38	3
166	171	2
91	91	3
164	178	2
92	92	2
194	218	1
34	34	6
74	74	3
56	74	1
209	211	1
201	201	3
4	7	1
216	217	4
23	23	4
193	210	4
218	219	5
80	114	1
79	105	3
43	212	1
195	195	1
111	111	9
172	172	1
91	92	7
101	102	2
63	86	3
112	118	3
103	117	2
65	104	5
175	222	3
53	101	1
159	167	5
205	205	4
51	71	2
66	104	1
223	244	2
183	215	1
167	170	2
2	2	2
89	91	2
245	246	3
108	111	3
56	174	1
33	62	3
43	228	1
16	16	2
15	45	2
185	185	4
173	211	2
90	105	1
89	89	5
87	87	7
177	225	1
9	71	3
37	37	3
233	233	9
42	242	3
110	110	3
216	216	8
79	79	3
94	96	1
19	19	2
61	62	1
159	159	2
42	175	3
203	204	1
92	97	4
49	49	7
226	226	5
219	219	7
76	77	2
231	235	2
115	115	11
61	61	4
24	24	3
53	54	1
40	212	3
183	183	7
165	165	6
55	56	2
245	245	1
64	64	8
247	248	1
43	242	3
170	171	4
72	72	4
226	229	2
211	225	1
227	229	2
232	232	7
179	179	5
185	205	1
175	176	4
145	151	5
218	218	2
15	39	1
152	154	4
78	78	5
194	194	5
52	54	1
82	212	2
117	117	2
154	185	4
13	14	2
107	107	5
149	205	1
222	227	3
3	7	1
113	114	3
152	152	4
63	63	3
235	249	4
234	234	1
9	70	4
20	20	6
200	217	3
5	5	4
161	161	1
145	169	3
96	96	8
217	217	9
56	56	3
33	52	1
59	59	1
156	185	2
9	9	4
21	22	2
9	10	3
231	231	1
19	20	2
143	153	3
97	99	1
192	192	1
150	151	5
188	192	1
150	183	1
186	191	5
150	154	5
32	32	4
200	203	3
15	17	1
239	239	2
118	119	4
44	226	2
6	6	4
233	234	5
178	228	2
180	180	4
33	33	5
195	208	4
2	3	4
165	195	2
203	203	5
189	190	4
209	210	3
42	47	3
106	107	5
177	211	9
156	156	3
166	169	3
7	47	2
104	113	5
43	45	5
191	191	2
105	170	1
220	244	1
43	43	3
14	15	1
33	116	1
42	42	2
75	75	4
96	98	2
58	59	3
71	73	1
4	241	1
18	18	7
50	50	2
173	180	2
25	25	5
11	11	2
16	17	2
177	210	2
53	86	1
42	56	3
238	240	2
202	202	2
170	170	3
6	50	3
200	200	1
44	217	3
244	248	1
227	228	1
10	10	3
11	37	3
196	210	2
199	216	1
191	192	1
167	167	2
231	233	1
154	154	1
248	248	1
166	166	5
237	237	5
74	75	3
244	245	3
222	228	1
174	175	4
183	208	1
114	114	1
68	68	3
8	8	2
222	222	4
212	229	3
39	39	3
197	198	1
20	21	1
156	157	3
65	105	1
47	243	4
35	75	2
159	160	4
210	210	2
209	209	7
35	82	3
194	197	2
168	169	4
50	56	1
77	78	2
211	211	4
176	228	1
51	80	2
83	184	3
42	74	1
64	105	1
83	172	5
109	109	2
94	94	1
227	227	3
111	112	1
80	80	1
239	240	3
236	236	3
231	234	4
228	229	1
57	57	3
75	76	1
55	55	2
163	206	1
195	197	1
186	188	1
160	166	3
51	51	1
230	230	2
196	211	2
184	185	1
178	178	2
198	198	4
33	54	1
23	110	4
65	89	3
40	40	1
33	34	1
174	174	3
40	213	1
224	226	4
86	86	3
247	247	1
203	205	1
234	249	1
58	58	3
18	19	1
178	179	2
41	41	2
109	111	2
181	181	2
93	96	1
35	35	2
172	238	1
227	237	2
169	170	3
242	242	4
87	101	1
108	112	2
58	76	1
15	15	1
89	106	1
147	147	2
59	60	1
14	14	2
21	32	1
240	240	1
186	186	1
9	11	1
208	208	3
6	7	1
188	188	3
104	105	3
204	204	1
164	164	1
225	225	3
62	62	3
73	75	1
224	227	2
72	77	5
110	111	1
52	52	1
22	66	1
189	217	1
73	81	1
163	164	1
233	247	2
13	45	2
66	66	2
221	231	1
244	244	1
158	168	3
60	62	1
44	44	2
165	184	2
44	46	2
10	86	1
47	47	1
22	22	1
83	169	1
211	226	1
29	29	3
70	78	1
224	229	1
243	243	1
213	216	1
101	116	4
158	169	1
198	211	1
6	42	1
4	4	2
52	85	1
163	198	1
115	169	2
207	207	1
194	210	1
159	168	1
42	176	1
163	197	1
17	18	1
4	5	1
165	180	1
65	66	1
54	82	2
197	197	1
160	160	1
4	50	4
163	163	1
78	79	1
22	23	2
177	178	1
36	46	2
222	241	1
98	98	1
48	48	3
24	26	1
119	119	1
192	194	2
173	173	1
174	179	2
93	93	1
101	101	2
162	197	1
87	88	1
186	187	2
90	90	1
171	171	1
76	76	2
109	118	1
221	221	1
177	177	1
176	177	1
113	115	2
7	175	1
190	192	1
168	171	1
35	55	2
57	74	1
169	169	1
228	239	1
205	208	2
116	116	1
8	176	1
83	212	1
27	27	2
246	247	1
145	145	1
197	199	1
23	29	1
35	71	1
114	116	1
51	72	1
188	189	1
54	76	2
7	7	1
69	78	1
115	152	1
164	173	1
163	194	1
249	249	1
96	99	1
235	235	1
182	209	1
60	61	1
41	212	1
