76	76	15
24	24	3
18	18	2
68	90	4
2	3	6
169	169	3
135	155	5
113	153	2
56	56	4
165	167	1
11	12	2
61	61	7
88	89	2
121	122	7
130	134	1
52	52	5
4	9	5
4	4	8
145	145	12
66	66	17
172	172	4
171	172	3
33	33	13
155	155	4
29	60	2
123	123	5
9	11	2
37	37	9
127	127	18
105	113	1
18	25	2
20	20	3
31	31	5
73	73	14
6	7	2
56	93	7
135	153	4
17	17	6
26	26	4
158	158	7
90	90	14
60	60	6
133	133	3
132	133	6
165	165	15
75	75	7
142	142	10
143	144	3
128	157	1
163	164	1
80	81	3
168	169	7
125	125	1
95	96	4
121	121	6
66	86	2
88	88	2
8	9	3
130	132	2
14	14	5
79	80	2
94	94	15
150	172	1
131	132	6
150	150	9
6	6	7
99	99	9
129	129	10
133	134	3
104	104	7
30	31	3
67	67	4
166	179	5
63	63	15
143	148	7
152	152	8
50	50	3
159	159	10
175	175	4
89	90	2
60	66	2
162	162	9
146	146	9
42	42	19
97	97	5
10	10	8
173	173	11
34	34	6
36	40	3
135	135	7
115	116	3
54	71	3
79	165	2
11	42	2
13	17	1
134	166	1
145	146	3
109	111	6
180	180	6
108	109	4
51	51	12
113	114	6
93	93	10
108	108	17
96	96	3
141	141	4
103	127	3
154	154	12
109	110	1
22	22	4
101	101	5
30	30	7
151	151	6
37	40	2
95	95	9
58	63	2
10	11	2
93	94	3
176	176	8
164	164	6
137	138	2
112	113	5
93	102	5
119	120	2
79	79	15
162	163	2
167	171	2
171	171	6
75	76	3
59	59	3
1	1	3
92	92	10
126	127	10
58	65	1
49	65	2
142	178	4
103	103	6
21	21	3
1	10	2
134	135	2
178	178	6
117	117	9
128	129	8
42	44	3
43	43	10
125	127	6
161	162	2
83	86	2
170	171	3
148	148	1
124	125	2
128	128	4
2	61	3
7	13	4
86	86	3
105	107	6
115	115	13
61	62	4
140	142	2
57	57	1
65	66	2
115	139	2
150	153	4
65	86	7
3	3	6
65	65	13
132	132	5
128	131	1
174	174	6
13	13	3
45	45	3
23	23	5
2	2	3
102	102	4
55	55	9
89	89	4
106	170	2
140	140	6
22	50	5
105	105	3
49	49	1
5	5	2
82	82	12
167	167	5
125	126	4
156	156	12
21	49	3
49	52	6
70	70	5
95	107	1
119	119	10
73	78	2
76	95	1
142	143	1
58	58	5
3	93	4
17	52	1
134	149	9
17	19	1
143	158	2
35	35	8
107	107	4
130	135	2
18	23	4
67	68	1
4	50	4
28	28	4
9	9	4
150	151	4
170	172	2
157	157	2
143	143	6
72	72	6
134	139	2
136	151	2
71	79	2
150	152	2
139	139	5
27	27	17
123	124	1
130	130	4
67	84	2
161	177	2
12	12	5
60	87	3
49	57	1
100	101	1
137	137	9
90	92	1
77	77	3
149	149	7
136	153	2
111	111	9
61	64	1
17	22	1
50	51	3
153	153	5
5	6	4
170	170	10
32	32	9
74	74	8
55	71	5
110	112	2
53	53	4
102	103	3
84	85	2
42	43	2
61	90	4
99	100	2
141	143	1
98	99	7
54	57	1
86	87	5
40	40	4
59	81	4
161	161	4
166	166	5
106	106	10
122	122	6
164	165	3
39	39	1
28	31	2
7	12	2
89	102	4
5	9	3
33	34	3
23	24	4
62	91	4
19	19	2
34	35	1
50	52	3
11	21	2
78	98	1
143	151	1
8	13	3
134	134	4
40	41	3
112	112	5
78	78	3
94	105	1
5	32	3
113	113	3
62	62	5
78	115	4
36	42	1
134	137	4
131	135	1
31	88	4
167	172	1
100	100	1
73	75	3
116	116	4
59	60	6
76	77	4
119	121	2
130	131	2
81	85	2
112	114	2
83	83	3
131	131	3
107	108	2
24	28	4
63	65	1
105	109	1
98	98	2
91	91	1
137	157	2
177	178	1
38	38	7
25	27	3
62	93	6
56	58	1
14	16	1
159	160	3
0	0	3
106	164	1
51	89	4
162	165	2
49	50	1
139	158	3
162	164	1
91	92	3
7	7	2
149	150	5
65	74	1
36	36	5
144	145	3
61	99	2
5	42	1
64	64	5
102	106	1
158	162	2
145	148	3
36	41	2
168	168	6
71	71	3
163	163	5
54	55	1
16	18	1
60	89	1
7	27	4
58	93	4
139	140	1
41	41	3
23	25	4
78	126	1
102	105	1
118	119	1
126	130	1
160	160	3
15	16	3
147	147	8
112	115	2
122	123	1
15	15	1
95	98	3
61	66	2
140	148	2
17	18	2
87	89	2
100	102	2
177	177	1
108	134	1
25	44	1
106	165	1
120	120	3
118	120	1
96	98	1
118	118	5
29	30	1
169	171	1
63	67	3
97	113	2
134	138	1
92	101	1
115	127	2
39	40	1
18	45	1
14	53	1
8	8	1
126	132	1
138	138	2
129	135	1
62	88	1
53	54	1
63	86	1
54	54	1
44	44	1
67	87	2
120	121	2
80	111	2
138	140	1
158	159	2
168	170	3
109	112	2
29	29	2
88	90	1
84	84	1
1	3	2
116	127	2
9	43	1
68	68	3
149	154	2
120	122	1
104	114	1
51	54	1
162	170	2
144	144	2
114	115	1
1	34	1
106	169	1
102	115	1
54	56	1
106	107	1
45	46	1
9	13	1
167	168	1
87	87	3
157	159	1
7	8	1
102	116	1
108	112	1
81	82	1
85	85	1
127	128	1
59	83	1
146	149	1
2	94	1
159	179	2
68	71	1
176	177	1
63	64	1
73	74	2
115	126	1
172	173	1
41	43	2
2	41	1
114	114	2
68	89	2
25	30	1
16	16	2
157	158	1
109	109	3
35	54	1
138	139	1
80	80	1
0	10	2
116	117	1
136	155	1
133	177	2
116	119	1
74	75	1
117	118	1
80	119	1
64	88	1
64	95	1
31	32	1
