74	74	24
50	50	20
73	73	26
85	85	27
65	66	6
10	10	19
50	51	16
60	60	12
53	55	3
59	59	34
26	26	8
21	22	11
67	67	26
20	23	5
87	87	21
54	54	12
26	31	3
56	56	30
6	6	17
15	15	9
52	78	1
72	74	14
78	79	9
53	53	14
5	5	18
76	76	29
47	81	2
75	75	25
19	20	3
82	82	26
61	61	12
49	59	3
85	86	9
9	10	13
55	55	34
52	53	9
20	20	15
57	58	8
80	80	28
75	77	2
80	82	11
27	27	14
69	69	21
2	2	9
78	80	8
67	68	9
67	69	6
19	19	33
12	12	17
83	83	18
62	62	24
52	52	15
27	31	6
0	0	14
4	8	1
3	4	6
25	25	13
8	8	24
22	22	25
13	14	1
12	78	3
6	8	3
34	34	12
1	1	12
71	71	15
24	24	26
2	23	1
54	55	5
47	47	17
72	72	25
58	58	13
55	87	3
54	56	2
20	21	4
51	51	20
63	64	4
66	67	9
62	63	6
46	52	1
8	9	6
29	30	10
82	83	9
68	68	20
72	73	6
86	86	22
23	57	4
66	66	30
79	79	14
50	56	1
3	3	31
4	67	5
49	49	23
46	59	4
64	66	2
16	16	3
52	62	10
81	81	28
30	30	17
56	58	4
53	54	12
89	89	30
17	25	7
48	48	23
68	69	2
14	14	14
77	77	5
23	23	19
51	78	1
13	79	7
0	1	5
30	72	1
53	67	1
8	10	2
7	13	2
55	57	3
84	84	19
60	61	6
87	88	14
26	27	1
4	27	3
48	50	1
21	23	3
65	65	3
57	57	9
17	26	8
64	64	4
47	50	1
69	71	2
24	25	1
85	87	3
2	3	4
89	90	3
70	71	3
81	85	4
19	23	1
20	22	6
23	24	5
24	28	5
55	56	10
79	80	9
12	13	7
28	28	4
46	47	5
84	85	4
30	31	4
50	53	1
59	64	1
2	15	3
53	77	3
15	19	1
24	26	2
78	88	2
71	74	3
63	63	9
21	21	9
29	29	10
52	63	3
27	30	5
77	78	1
64	65	6
58	59	3
70	72	2
61	62	10
5	7	4
27	28	11
1	3	3
11	12	8
11	11	14
53	57	2
46	46	5
8	63	1
77	81	1
0	21	1
10	11	2
14	15	1
68	83	2
59	79	5
13	32	1
70	74	2
60	64	5
31	83	3
51	53	3
16	17	1
13	17	3
5	23	2
2	72	3
14	79	2
49	76	2
25	47	3
58	61	4
17	17	20
25	26	3
31	31	18
11	83	2
69	75	1
8	31	2
63	65	1
26	47	2
48	49	10
10	13	6
66	69	2
5	33	1
59	80	2
7	8	7
15	16	3
3	30	2
7	7	2
11	31	2
47	51	4
5	8	4
74	75	6
9	9	15
12	18	1
47	49	2
28	33	1
73	74	3
10	71	2
13	13	11
11	81	2
34	35	4
2	4	3
56	57	8
81	82	4
6	64	2
78	78	1
5	30	2
82	86	2
5	10	1
46	48	3
35	35	2
14	30	1
70	70	2
47	48	2
6	32	2
49	83	1
4	4	8
78	82	5
55	66	1
49	50	3
15	17	2
4	5	3
1	28	6
51	52	3
18	18	2
8	79	2
28	30	4
32	33	2
51	56	7
6	7	2
66	75	2
47	54	1
75	76	4
72	81	1
72	77	2
88	88	2
12	15	1
50	55	2
7	9	1
28	29	1
81	84	1
8	82	1
50	80	2
15	73	2
10	12	3
15	18	1
8	47	2
59	61	1
59	60	3
66	68	4
80	81	2
19	24	1
69	70	1
7	17	2
53	61	1
8	17	1
66	70	1
64	80	1
47	78	1
61	64	2
49	51	1
12	72	1
50	52	1
24	47	1
48	53	1
35	79	1
22	23	1
51	62	1
6	13	1
88	89	1
63	66	1
4	85	1
1	2	1
17	31	1
17	24	1
86	88	1
4	66	1
66	84	1
5	75	1
14	67	1
18	19	1
