64	64	13
17	17	7
25	25	10
45	45	13
119	119	21
69	69	5
180	180	11
145	145	7
78	78	2
139	140	5
19	23	5
134	136	4
1	2	2
164	164	18
44	44	14
81	86	3
33	102	2
16	17	4
38	38	3
152	192	3
140	140	18
138	138	8
153	153	9
134	134	15
42	42	7
33	100	7
72	72	6
10	10	11
167	167	6
6	56	2
179	179	16
193	193	3
146	146	15
224	228	6
149	149	13
170	170	5
221	221	7
104	105	4
205	211	2
121	121	14
169	169	5
61	61	21
206	207	6
223	223	6
228	229	7
4	5	6
79	79	12
6	6	11
198	198	1
205	209	2
210	210	7
85	85	8
58	58	5
204	204	14
213	218	4
34	34	1
73	73	5
19	20	4
10	11	3
85	86	3
151	183	2
175	179	11
107	107	4
171	172	5
62	62	11
190	191	8
29	29	13
242	242	10
76	82	1
107	108	5
122	122	12
80	95	4
131	132	2
229	230	3
126	126	8
50	50	13
200	200	15
68	160	3
220	227	2
46	76	4
226	227	4
56	57	9
205	212	3
141	141	6
12	15	2
203	203	10
232	232	18
59	59	10
108	108	5
47	70	4
191	192	1
103	103	11
102	102	9
114	114	10
143	143	15
91	91	1
186	188	8
37	37	22
157	157	10
160	160	11
29	30	7
51	52	8
39	39	9
203	207	5
185	185	11
109	109	11
36	36	15
55	55	9
233	233	16
125	158	3
241	242	8
158	158	5
200	214	3
66	165	2
216	216	5
5	16	6
127	127	16
55	61	2
208	208	13
120	135	1
238	238	9
148	148	14
139	139	4
16	170	7
227	227	2
58	59	2
81	82	2
151	151	7
201	201	11
15	15	13
46	46	3
99	99	5
212	212	6
97	97	8
184	184	7
142	142	3
77	77	2
31	108	1
205	205	5
100	101	9
202	202	8
2	4	6
3	6	7
177	177	2
173	179	3
125	159	1
187	187	2
78	90	2
180	181	11
41	41	7
27	27	4
38	39	2
112	112	6
26	26	7
239	239	2
114	119	3
180	184	3
234	234	7
32	104	2
171	171	8
100	100	4
181	181	11
86	86	9
106	106	5
43	98	2
114	116	3
185	193	5
9	10	9
75	77	2
147	148	6
35	92	1
123	132	6
129	129	8
33	35	8
30	30	5
128	128	11
118	134	1
128	142	3
137	137	17
210	227	2
5	5	7
12	12	11
50	58	1
53	53	4
194	194	5
38	85	3
82	83	3
38	84	2
190	190	5
21	23	6
65	65	13
158	163	5
85	97	2
28	29	2
24	24	4
159	161	1
184	185	3
197	201	3
138	139	9
237	238	3
69	122	5
83	86	2
95	96	2
202	203	9
65	68	2
104	104	11
70	70	9
128	130	5
69	121	3
82	82	3
140	141	8
80	81	1
9	9	19
220	220	2
113	129	1
67	68	4
51	56	5
175	175	4
111	129	2
219	219	6
224	224	10
111	111	2
207	209	1
235	235	11
62	174	5
118	118	6
47	47	9
239	240	3
98	98	7
178	178	6
67	67	5
173	175	7
72	111	2
207	208	2
191	191	5
46	100	1
32	32	10
18	18	9
183	183	4
96	97	4
121	122	2
183	188	5
113	113	3
214	215	10
224	225	2
73	112	2
43	43	10
103	104	2
125	125	4
96	96	6
75	78	4
83	83	3
13	13	4
102	103	6
62	63	3
133	133	3
40	41	3
31	31	4
32	103	3
53	54	7
51	57	2
70	71	1
7	7	4
213	215	4
202	204	1
172	172	6
219	220	3
29	109	3
220	221	6
165	166	2
28	28	3
48	48	9
116	116	7
231	231	6
40	119	1
122	152	4
210	222	5
30	70	6
163	185	4
25	26	2
4	4	2
4	167	1
81	81	4
219	239	7
215	240	2
160	161	1
30	109	4
35	161	2
66	66	11
2	2	6
196	196	10
152	153	2
43	71	3
32	70	2
188	188	4
33	33	6
239	241	1
20	20	2
198	199	5
64	66	4
172	176	2
200	213	4
101	101	8
24	25	7
157	158	3
140	197	6
193	194	1
21	21	3
234	236	2
195	196	1
71	71	6
237	237	3
39	115	2
240	240	5
115	115	3
50	60	2
125	126	8
212	213	3
17	19	4
54	54	6
182	182	5
1	1	3
40	40	10
69	70	6
124	126	1
213	213	6
75	76	3
170	171	3
48	100	1
105	121	1
205	206	1
14	14	4
0	0	3
77	78	1
19	19	3
229	229	8
228	228	5
156	156	2
195	195	4
1	16	1
23	23	8
209	210	1
143	144	3
132	136	3
124	124	7
150	151	3
11	62	3
222	222	6
183	187	2
11	11	6
13	17	2
185	189	1
206	206	4
199	201	3
145	201	1
166	168	4
68	69	2
6	68	1
188	189	1
74	74	4
241	241	6
61	62	3
49	50	1
17	171	3
32	105	5
116	117	4
207	207	2
51	51	1
211	213	2
34	35	4
166	166	2
142	152	2
56	59	2
204	206	1
49	49	3
50	54	1
238	239	2
196	198	2
69	152	3
54	55	4
20	23	7
8	8	3
162	162	1
70	121	3
30	154	2
64	67	2
68	161	2
230	230	4
79	80	3
120	134	1
225	229	7
176	177	2
225	225	5
144	145	4
6	66	2
132	133	1
141	152	3
39	40	1
52	65	2
46	101	1
178	215	2
152	152	3
115	118	2
4	66	3
215	215	6
150	150	3
64	165	1
119	120	4
91	96	2
217	218	4
35	35	3
14	15	6
36	37	1
41	102	1
200	201	8
103	105	2
208	209	2
48	50	2
176	179	2
75	75	1
177	178	1
4	165	2
36	68	4
82	99	1
190	194	1
217	239	1
159	159	1
225	230	2
70	154	4
232	233	1
194	195	4
49	52	2
205	208	1
44	45	5
111	112	1
204	209	2
144	146	1
161	161	5
60	60	4
71	121	2
185	188	1
168	181	1
144	144	4
53	56	1
15	16	4
66	67	2
163	163	3
84	99	1
174	174	3
192	192	2
136	136	2
7	62	3
125	127	3
7	8	3
161	162	2
146	147	3
217	226	1
155	156	1
117	117	3
185	192	1
165	165	3
122	123	1
22	22	6
34	68	2
23	24	2
72	107	1
225	226	1
69	124	3
55	70	2
220	228	1
153	160	1
56	58	2
197	197	2
163	186	1
109	110	3
68	165	1
189	203	1
120	136	2
63	63	9
231	232	1
123	136	3
72	106	1
149	151	1
151	193	1
38	136	1
169	171	3
196	197	2
199	200	1
179	216	1
39	119	1
21	22	1
197	199	4
120	120	4
36	44	1
68	68	2
32	161	1
206	211	2
11	12	4
131	136	2
80	82	1
50	51	3
122	124	2
152	160	1
31	154	6
111	113	4
137	138	3
3	3	1
169	170	1
66	195	2
199	213	1
37	38	2
80	80	3
135	137	1
193	195	2
204	205	2
48	55	1
78	79	1
155	155	1
42	160	1
0	7	1
214	216	1
5	7	2
60	61	1
149	157	1
65	66	1
218	240	3
178	179	1
189	190	1
68	162	2
15	18	1
35	36	2
69	125	2
79	95	2
176	176	1
191	194	1
147	147	2
127	152	1
65	162	1
127	141	2
105	105	1
218	218	2
10	62	2
134	137	1
147	201	2
124	137	1
191	197	1
183	184	2
97	113	1
74	77	1
125	150	2
7	13	1
145	198	2
123	123	2
153	157	1
141	142	1
174	175	2
17	167	1
158	159	4
31	106	1
26	172	1
151	192	1
20	171	2
123	124	1
87	89	1
56	56	2
211	211	1
140	195	1
135	135	1
154	155	1
106	131	1
139	141	1
199	199	1
86	89	1
158	160	1
22	23	1
106	128	1
115	119	1
164	165	1
114	208	1
57	58	1
68	104	1
168	168	1
236	236	1
32	42	1
57	57	1
226	226	1
1	7	1
