58	58	2
48	48	5
100	100	9
20	52	4
66	67	2
0	0	5
86	87	2
53	53	5
76	120	1
137	137	3
63	69	3
66	66	2
63	64	6
86	124	6
83	83	4
142	142	7
57	71	5
35	36	5
143	143	5
49	51	3
105	106	7
19	19	9
87	153	4
159	159	1
145	147	4
114	115	4
147	148	7
136	136	3
126	126	3
105	170	3
128	128	3
87	88	1
162	162	1
65	65	3
91	92	2
82	85	4
112	112	2
109	109	4
36	37	3
128	129	5
57	57	6
46	46	7
105	105	2
33	35	1
154	154	10
47	47	4
55	56	2
114	114	3
38	38	4
87	87	4
149	151	1
25	26	2
40	40	2
151	151	7
33	33	3
88	125	3
156	156	5
9	9	5
15	17	1
144	144	1
149	150	1
148	148	6
69	115	1
69	117	3
116	139	2
72	75	4
83	85	3
63	63	7
120	120	1
18	18	3
48	49	3
45	45	2
50	51	5
47	48	2
75	75	1
138	138	5
128	132	1
24	25	3
145	145	2
73	74	4
16	17	4
129	129	1
106	128	2
20	20	2
27	27	3
113	113	1
149	153	6
40	131	4
45	101	1
74	75	5
70	70	2
43	43	2
102	129	1
124	134	2
81	82	5
15	15	4
36	36	4
132	132	7
123	160	2
72	74	5
80	81	3
111	112	3
52	52	3
44	46	2
45	52	2
165	165	1
43	44	1
166	166	1
127	168	1
27	28	3
92	92	2
123	124	4
21	23	1
88	88	1
150	151	3
37	37	1
84	86	2
133	133	5
90	90	1
131	135	1
129	169	1
14	16	1
161	164	1
79	116	2
87	142	1
81	124	2
24	24	8
162	163	4
101	101	4
57	76	1
21	21	3
22	22	2
94	95	2
124	125	1
140	140	2
141	145	3
98	98	3
51	51	2
34	35	2
35	35	3
23	23	1
67	67	6
95	96	1
163	163	2
83	86	2
34	34	2
14	14	1
69	69	1
39	39	2
63	70	6
80	133	2
14	15	2
82	82	2
68	85	1
17	19	3
42	42	2
4	5	2
117	117	1
25	25	4
98	99	1
67	69	2
54	54	2
161	163	1
62	62	1
126	127	1
55	55	1
156	157	3
72	73	2
78	78	5
158	159	1
96	96	2
150	150	3
166	167	1
130	130	1
64	64	2
86	86	2
136	137	3
86	153	2
6	9	1
126	128	1
124	124	1
141	141	6
119	119	4
10	24	1
42	43	2
155	156	1
78	119	1
134	134	1
25	52	1
10	12	1
10	10	1
152	152	1
145	146	1
83	151	1
91	130	1
39	100	1
46	56	2
162	164	1
81	81	2
116	116	2
123	123	3
7	9	3
49	50	1
1	3	1
127	127	1
147	147	1
76	76	1
40	91	2
135	135	1
81	87	3
3	3	1
127	128	3
132	135	1
45	46	1
74	74	2
167	167	2
121	121	1
110	110	2
78	79	1
116	117	1
146	146	2
22	23	1
13	25	1
160	160	1
40	102	1
118	118	2
81	107	1
151	160	1
106	106	1
44	49	1
13	13	1
