14	27	4
42	42	5
68	69	4
25	26	7
45	106	2
75	75	7
129	129	9
57	57	11
83	83	7
115	115	13
4	4	6
9	9	6
59	59	9
85	94	5
68	68	11
5	5	11
26	43	3
114	114	5
37	40	1
67	67	14
65	66	1
131	131	13
14	42	6
47	47	9
121	121	6
18	18	13
45	46	6
10	42	2
108	108	7
37	37	7
87	87	11
109	109	9
4	5	1
97	97	8
45	73	2
122	124	5
10	11	6
112	112	7
29	29	6
29	31	3
64	64	12
9	94	4
5	6	7
45	45	10
62	63	4
43	44	5
72	72	10
47	68	3
89	89	1
21	21	14
77	77	4
13	114	1
10	10	12
81	130	3
20	20	10
56	58	2
14	30	2
8	8	9
14	57	7
134	134	8
58	115	5
22	22	9
65	65	11
102	113	3
14	15	2
119	119	15
39	39	12
61	61	15
15	15	11
122	122	6
106	106	10
79	81	3
3	12	6
63	63	4
113	113	9
55	91	2
94	95	7
6	6	6
126	126	7
79	82	5
86	86	4
76	76	4
127	133	1
99	99	7
2	2	3
71	72	2
73	73	8
91	91	10
94	94	7
90	90	7
12	12	6
82	82	9
108	109	4
6	7	3
58	58	10
1	1	3
7	7	3
22	134	2
9	10	3
32	32	10
80	80	3
71	71	1
13	27	3
102	102	5
16	75	3
14	14	7
66	66	16
62	62	5
103	112	6
16	20	1
93	94	6
60	60	13
24	25	3
22	40	2
118	118	7
19	19	6
15	90	2
11	11	9
86	134	4
111	111	8
75	76	2
82	125	2
124	124	10
12	14	1
79	133	3
18	62	2
12	26	1
101	101	2
19	50	4
45	107	3
49	49	6
76	77	3
100	100	7
31	31	3
4	106	1
47	124	2
19	20	3
16	16	4
130	130	6
28	28	3
24	32	6
43	43	3
56	56	6
17	18	1
125	125	4
116	117	2
3	3	4
55	55	3
61	113	2
38	40	4
127	127	1
25	25	4
105	105	20
87	128	1
29	42	4
93	93	7
14	58	2
74	74	2
18	74	1
103	103	8
88	100	5
115	116	7
35	43	1
48	48	6
36	36	7
82	83	7
70	70	5
19	121	2
78	80	5
46	46	6
78	81	7
42	55	1
40	40	9
117	117	4
61	110	3
29	30	3
96	96	3
44	44	10
78	78	3
78	128	1
48	49	3
69	69	11
33	33	7
100	119	5
30	30	6
8	97	1
45	48	2
83	85	3
87	88	7
41	41	5
84	84	5
107	110	1
81	86	4
20	39	1
21	124	3
25	90	3
38	38	5
57	58	7
23	23	2
107	107	1
35	35	6
22	89	3
104	127	2
121	133	1
101	102	1
101	129	2
80	81	5
100	129	1
19	26	4
116	116	4
13	29	5
12	13	1
125	127	1
60	117	1
86	132	2
17	17	7
112	113	7
24	36	1
12	23	1
84	94	2
123	123	2
91	93	2
120	120	8
92	92	4
126	127	2
111	123	1
19	21	2
31	40	4
55	114	2
44	47	1
45	114	2
13	18	3
0	0	2
117	118	2
26	47	2
79	80	3
114	115	3
98	98	7
2	12	1
13	25	2
36	87	1
78	133	2
36	39	2
40	41	2
128	129	2
24	24	4
109	110	3
128	131	2
26	35	2
96	97	1
80	130	3
15	59	1
128	128	1
125	126	4
16	92	1
58	59	2
47	48	1
11	23	5
94	96	4
104	105	1
6	99	2
122	131	1
118	119	3
61	117	2
19	132	1
100	101	1
6	13	1
3	4	2
20	123	1
18	61	1
78	131	1
5	10	2
15	57	1
31	37	3
71	74	2
51	51	3
104	104	1
88	99	2
42	45	2
131	133	2
95	96	2
72	134	1
16	23	2
107	111	3
119	120	2
15	16	6
95	97	2
18	58	1
56	99	2
110	123	1
16	124	1
82	84	1
59	75	1
42	47	2
87	99	1
110	111	1
83	94	4
27	27	5
13	13	4
85	85	8
86	123	1
59	60	2
8	9	3
27	28	1
108	134	2
7	103	1
108	123	4
97	98	2
89	130	1
26	26	3
48	106	2
74	133	1
29	44	2
20	47	3
4	14	1
22	130	2
22	129	2
22	128	2
127	130	1
9	33	1
88	88	5
110	110	2
81	81	5
98	99	3
16	58	1
105	115	1
90	132	1
34	34	4
62	109	1
66	67	1
104	106	1
54	115	1
20	92	1
21	123	1
71	115	1
15	91	1
23	35	1
13	14	2
113	115	2
20	21	1
120	124	1
31	39	1
32	40	1
24	90	2
50	106	2
85	86	1
70	126	1
87	94	1
54	57	1
13	43	1
5	8	2
106	107	1
124	125	1
19	75	1
77	78	1
33	70	3
84	85	2
37	38	1
55	115	1
121	126	1
132	132	1
92	93	1
130	131	1
16	17	1
23	32	1
108	110	2
27	30	1
122	123	2
45	72	1
78	121	1
105	116	1
37	39	1
10	12	1
70	134	1
51	70	1
