118	118	24
130	130	24
72	73	2
23	23	12
89	91	4
117	117	26
78	78	20
89	89	10
22	22	5
3	14	5
106	107	10
126	126	11
122	122	7
29	29	19
91	93	4
25	25	16
87	88	15
108	108	12
114	115	4
73	74	17
80	80	22
95	95	17
25	26	12
76	76	14
109	109	7
0	0	9
94	94	9
8	8	10
18	18	5
139	139	5
91	92	5
128	129	7
128	128	10
136	139	5
17	17	14
35	35	15
24	25	2
82	84	3
103	103	15
84	86	3
106	106	10
24	24	10
9	9	17
86	86	15
14	14	9
9	10	4
71	71	16
5	6	3
1	1	12
138	138	8
121	121	12
75	107	3
15	15	7
32	32	9
1	2	2
37	37	18
127	127	11
20	20	9
97	98	4
19	20	3
89	90	9
87	87	8
72	72	13
111	113	3
19	19	14
110	110	14
84	85	5
140	140	8
3	3	17
97	97	12
118	121	3
34	34	11
124	124	14
92	92	5
131	131	5
81	97	1
15	16	3
118	120	5
36	36	17
96	96	6
90	90	13
85	121	1
84	96	2
136	136	12
105	105	9
101	101	20
116	116	10
123	123	8
99	99	8
13	14	6
80	83	6
82	82	21
98	98	24
7	7	16
23	25	4
113	118	7
111	111	16
35	36	10
112	113	3
102	102	15
123	125	1
9	12	5
115	116	1
112	116	1
5	5	12
137	137	13
18	19	5
30	30	14
129	129	16
118	119	4
11	12	4
137	138	8
15	26	2
28	29	7
75	75	15
86	94	1
4	22	4
102	121	3
2	7	5
105	108	2
73	73	7
119	120	3
85	85	16
16	17	5
85	86	4
2	2	2
76	121	1
28	28	8
6	6	7
120	120	21
112	112	13
8	24	1
101	102	1
74	74	13
12	13	5
116	117	4
68	82	1
119	119	7
8	9	5
107	107	6
98	99	8
33	33	13
135	135	2
100	100	8
123	124	2
88	88	5
7	8	2
26	27	5
135	138	2
93	93	8
130	131	5
115	115	18
36	37	11
110	112	1
72	74	3
21	21	7
125	129	2
84	92	5
132	132	12
15	18	1
76	77	4
122	123	5
16	27	1
89	92	1
10	10	9
13	13	4
94	95	9
15	43	3
2	4	5
74	75	6
117	118	6
4	4	3
121	122	6
91	91	9
104	104	7
77	77	15
71	73	1
78	80	2
95	124	1
81	82	2
83	97	1
0	22	1
103	108	2
111	112	7
17	18	4
134	134	4
109	110	2
84	84	17
31	31	5
113	113	6
83	98	1
38	38	11
79	79	16
107	108	3
17	92	1
10	12	4
133	133	16
8	23	2
21	22	2
83	90	1
27	27	13
72	107	1
104	105	14
137	139	2
3	4	2
96	100	4
81	81	7
108	109	2
82	122	1
71	107	1
104	106	2
38	94	1
100	101	2
12	17	4
105	106	4
101	110	3
30	93	2
7	9	4
90	91	2
16	16	8
23	26	1
4	6	1
77	103	4
76	82	2
88	89	4
11	11	7
13	82	2
6	8	2
12	15	4
86	88	1
116	119	2
5	7	1
110	111	1
77	102	2
125	125	4
85	92	4
27	76	5
33	36	4
89	94	3
77	78	1
29	77	1
109	111	2
15	22	2
19	21	1
127	128	6
75	77	1
75	76	2
103	107	1
95	96	6
8	11	2
80	116	1
134	137	1
6	7	3
22	85	2
12	12	2
101	112	3
76	116	6
20	21	2
36	38	2
2	28	2
111	118	4
103	104	5
9	23	1
93	94	4
5	9	1
0	3	3
71	72	1
26	26	5
78	106	2
27	32	4
83	85	1
81	83	2
78	79	5
85	95	3
114	114	5
11	14	2
82	96	2
10	14	1
33	34	1
77	79	3
32	87	1
26	33	3
127	130	1
106	108	3
68	118	2
124	126	4
4	5	1
75	102	1
27	30	1
103	112	1
76	102	2
112	114	1
17	21	1
101	104	3
29	32	3
17	20	1
75	117	1
21	86	1
25	27	2
105	107	1
29	31	1
119	121	2
18	20	1
68	91	1
134	135	4
20	86	1
22	23	3
10	11	4
79	111	1
83	83	6
104	107	2
12	14	2
80	114	1
83	104	1
124	125	2
13	15	3
101	120	1
105	121	2
120	121	1
95	117	1
103	120	1
68	68	1
72	106	2
27	28	1
126	127	1
120	122	1
29	81	1
27	91	1
129	130	2
83	84	1
99	100	1
124	127	1
16	18	1
128	131	1
82	85	1
139	140	1
30	31	1
100	106	2
109	113	1
1	23	1
132	133	1
80	81	2
101	121	1
125	130	1
34	36	1
3	22	1
22	24	2
113	114	1
66	99	1
125	127	1
31	90	1
88	90	1
71	74	1
82	95	1
