97	100	2
236	248	4
172	179	2
63	65	2
16	17	8
66	84	3
210	234	4
100	100	6
42	56	4
67	72	4
221	226	3
240	241	8
78	78	1
19	21	2
242	244	2
228	229	4
166	173	5
157	158	8
62	62	7
21	236	4
88	96	1
85	89	1
18	29	2
66	75	4
66	66	4
27	48	1
177	179	1
231	242	1
157	183	3
41	41	4
221	232	4
242	242	6
34	35	7
209	211	3
63	63	5
64	64	13
1	1	5
215	219	6
14	14	7
214	216	3
191	193	3
171	171	7
75	75	4
3	3	5
163	163	4
156	156	4
71	72	1
97	99	1
164	180	6
74	74	3
190	190	5
220	230	3
66	69	6
208	210	6
107	107	4
68	76	4
210	210	5
74	79	2
152	152	3
69	83	2
20	22	6
184	202	3
38	38	4
93	94	3
55	194	3
160	168	4
235	235	10
61	61	5
81	95	3
165	181	6
195	198	2
171	172	4
23	24	6
217	227	3
193	214	3
8	8	4
233	246	2
17	17	11
54	54	11
55	247	1
191	223	5
177	181	3
104	113	3
168	168	4
70	80	3
173	175	5
48	48	8
222	222	1
241	241	5
4	9	5
64	66	2
34	47	7
64	65	8
212	220	5
203	203	17
59	77	4
154	167	2
225	225	8
78	86	4
178	185	3
144	161	2
84	109	3
228	238	4
191	196	3
223	234	4
21	21	1
154	205	4
10	18	2
93	96	3
24	48	1
230	236	2
187	201	10
2	14	1
183	199	2
187	204	1
45	56	5
101	104	4
5	5	11
33	44	2
212	212	7
164	189	4
47	57	10
213	213	7
30	30	5
225	238	2
239	240	4
170	170	4
150	150	4
34	40	2
4	20	1
187	195	5
154	154	4
161	164	5
49	62	4
9	9	6
2	13	1
226	229	1
229	244	6
54	82	5
104	104	4
242	245	12
18	18	7
89	90	3
8	10	5
107	108	1
209	209	2
42	43	1
98	98	10
46	48	2
86	86	1
214	214	10
159	162	4
177	177	10
152	154	3
32	44	3
155	162	6
24	32	3
117	117	7
39	46	5
13	13	2
37	53	4
204	205	6
55	61	3
37	37	7
228	228	6
232	232	3
246	246	8
32	46	2
67	67	6
225	235	4
68	68	8
155	172	2
202	203	2
70	70	3
4	14	2
175	178	5
164	170	1
172	181	1
236	238	5
198	208	2
161	165	2
213	221	1
4	6	1
145	146	4
70	92	3
165	178	2
33	46	1
179	179	5
161	161	4
201	203	6
159	160	5
6	14	2
119	119	3
63	74	1
104	181	1
58	62	1
92	93	7
86	94	3
106	112	3
61	73	3
82	84	4
34	36	3
27	27	10
5	18	1
66	82	3
186	186	6
120	210	1
184	184	14
167	174	3
184	197	2
171	185	2
219	219	7
39	40	3
148	151	2
151	163	7
102	107	5
172	172	2
18	21	2
72	77	3
182	201	1
8	9	4
200	200	6
208	220	3
6	17	4
4	8	3
161	176	2
56	64	1
169	169	4
26	30	3
193	202	1
227	228	4
224	224	4
173	191	2
19	28	2
11	11	3
47	47	3
201	215	2
66	79	3
194	200	5
60	63	1
96	220	3
233	234	1
230	233	3
167	179	2
237	238	2
15	18	1
238	247	3
70	83	4
83	93	1
183	201	3
170	171	2
223	223	4
225	228	6
79	79	5
97	101	1
200	202	1
87	87	4
186	197	2
44	55	1
224	236	2
153	154	1
167	182	1
25	26	5
45	49	2
220	221	6
39	39	2
17	23	6
190	195	4
215	217	5
19	19	7
12	18	3
218	224	3
37	51	1
94	94	4
206	207	1
66	85	1
156	161	7
249	249	8
166	167	2
18	234	1
36	49	2
235	241	5
191	192	2
208	209	3
63	73	2
37	47	5
228	231	1
82	82	6
46	46	5
51	52	3
47	51	2
207	226	3
195	196	2
37	45	6
231	233	3
91	119	2
58	77	1
106	106	4
49	61	2
101	102	7
55	72	2
211	223	3
226	226	4
3	6	2
211	211	8
32	32	7
166	190	2
38	40	2
230	230	7
218	218	5
8	22	2
204	226	3
6	228	1
165	183	1
97	97	4
217	217	5
229	240	2
45	51	2
209	223	1
185	185	3
162	163	6
2	8	1
198	200	10
21	29	1
35	40	1
207	220	1
214	222	5
110	120	1
58	71	3
5	16	7
186	188	6
229	230	5
232	241	6
47	54	4
91	91	3
241	244	3
165	166	2
21	27	5
150	155	1
36	36	4
2	2	10
165	168	1
208	222	3
23	25	2
208	208	10
95	96	2
169	171	4
151	162	6
150	164	2
173	188	2
45	46	2
211	212	5
74	77	2
178	178	10
182	187	5
1	2	2
218	228	1
87	146	3
5	7	2
16	16	2
236	249	3
88	94	4
219	222	6
212	215	1
156	158	3
245	245	8
173	173	5
36	46	1
172	173	6
8	14	1
159	159	4
182	203	1
236	236	4
8	21	4
43	43	2
92	109	3
91	95	2
187	187	3
242	247	1
10	12	9
178	189	6
24	25	5
154	166	1
40	41	3
52	62	2
178	184	1
37	42	5
17	19	2
210	224	5
34	48	2
61	70	2
26	27	1
78	99	2
244	247	4
56	57	3
164	174	1
231	236	2
38	39	2
87	97	1
203	205	2
54	58	3
186	194	6
247	248	5
241	242	2
206	206	7
183	200	3
69	79	1
86	97	3
208	212	3
56	68	2
158	160	2
193	207	5
7	7	6
66	68	4
32	33	2
90	112	1
190	214	2
38	41	6
80	202	1
96	173	1
22	23	1
227	230	2
34	42	1
46	49	2
192	193	7
246	249	1
213	218	8
112	112	6
5	6	2
203	207	4
187	189	3
25	27	2
11	12	5
109	113	4
33	33	6
151	151	8
192	192	3
181	181	6
70	72	2
72	176	1
28	29	3
153	162	2
52	53	2
14	15	5
210	211	4
4	4	3
81	86	1
112	120	1
147	147	1
247	247	9
12	17	4
15	24	2
214	217	2
80	80	7
29	29	6
175	180	1
180	180	3
70	71	6
39	47	5
233	240	3
30	217	8
21	22	1
15	16	3
15	15	5
146	147	7
194	195	5
184	188	1
174	174	8
229	229	4
196	206	3
95	95	4
113	114	3
72	87	4
32	40	4
23	23	4
91	113	1
221	231	3
189	189	11
115	120	2
213	222	1
157	157	2
118	119	4
53	65	1
74	75	1
221	221	2
42	70	2
150	151	3
179	185	6
159	185	1
164	177	1
88	175	3
63	80	1
212	221	2
228	236	2
167	169	1
204	207	2
78	162	2
12	22	4
224	227	1
172	175	2
31	42	2
55	55	8
156	167	5
57	57	2
159	161	3
76	76	6
208	214	4
36	47	2
239	244	5
198	198	2
236	240	1
10	10	7
209	217	1
225	226	3
201	201	5
240	240	3
77	179	1
52	65	1
160	160	5
116	116	4
237	237	4
207	213	1
26	29	4
3	18	2
183	183	6
110	114	3
58	58	1
242	243	3
212	213	1
154	174	5
196	198	1
192	206	3
158	174	3
179	188	4
18	19	6
168	182	1
28	194	2
152	163	1
27	29	5
160	174	1
64	77	2
242	248	2
244	244	7
192	203	3
153	170	4
197	198	2
213	215	2
6	42	2
77	78	1
194	210	2
202	211	1
32	34	6
88	169	2
51	63	3
162	162	5
229	231	1
176	185	3
195	195	2
19	38	4
33	40	2
184	189	1
203	204	3
69	87	2
174	179	1
153	181	2
192	218	2
160	165	2
220	222	2
183	187	1
220	220	3
44	64	3
20	20	5
238	248	2
181	182	5
163	164	2
213	217	2
22	25	1
175	175	4
235	245	2
199	199	9
49	53	1
43	77	2
14	17	2
202	205	1
226	234	1
74	82	1
111	112	5
65	77	3
215	227	1
25	45	1
216	219	1
55	58	3
227	239	2
245	247	3
3	10	1
79	98	1
59	59	9
169	173	2
111	114	3
224	234	6
189	199	3
28	28	4
93	95	2
45	45	8
204	216	2
158	158	1
199	212	3
186	198	3
27	28	4
235	236	6
50	73	1
119	120	3
176	190	2
180	184	3
92	111	2
87	88	5
192	213	3
164	176	1
49	49	7
242	246	3
86	88	2
27	30	2
44	68	2
83	83	1
24	28	1
60	75	2
2	4	6
80	94	3
115	115	2
194	196	2
198	201	2
213	220	1
164	179	1
83	95	3
12	21	2
44	46	1
94	104	2
77	90	1
84	86	2
212	216	2
69	72	3
50	62	2
221	224	2
36	37	3
31	54	1
74	88	2
193	194	1
107	111	2
146	146	3
68	69	1
159	168	2
196	196	4
239	239	7
53	73	1
235	237	1
60	60	2
188	208	1
48	51	1
22	31	2
188	197	1
105	118	2
188	190	3
98	100	4
24	29	1
60	71	2
62	68	1
34	39	1
93	99	1
33	54	2
86	90	1
25	29	3
17	26	1
91	97	3
76	86	2
42	61	2
165	165	3
89	89	7
154	169	2
100	108	1
233	248	3
86	166	1
34	34	6
201	211	2
58	68	2
213	216	1
110	111	2
207	207	4
217	233	1
194	201	1
234	234	2
238	240	1
39	42	1
215	215	3
6	8	2
3	244	2
198	206	2
237	247	2
167	167	4
12	12	5
31	31	5
184	216	2
167	168	3
191	199	2
147	159	3
67	75	4
228	239	3
90	90	4
53	57	1
33	36	1
3	4	2
46	63	1
241	246	1
191	191	8
7	9	5
37	43	3
84	85	1
109	110	1
48	50	2
80	90	1
157	161	1
75	78	6
150	163	1
194	209	3
166	169	2
184	190	3
53	63	1
80	98	1
55	68	3
40	52	1
10	22	2
120	120	5
49	57	2
92	107	1
14	23	3
20	21	4
4	10	2
189	190	1
149	161	1
48	49	2
30	44	3
59	68	2
84	92	3
164	172	1
24	35	1
88	93	1
184	203	1
217	226	1
12	14	2
230	231	3
56	56	3
153	168	2
231	231	3
202	216	1
54	78	1
196	197	1
41	43	2
202	202	5
89	105	1
94	96	2
187	193	2
183	195	2
50	57	1
166	168	1
153	167	6
31	53	1
87	94	3
244	245	2
216	217	5
200	203	3
199	200	1
91	98	1
151	152	4
155	158	1
91	114	1
100	112	1
155	167	1
205	205	6
201	212	2
76	78	2
41	45	1
197	197	2
101	111	2
73	73	7
6	31	1
160	180	3
96	175	1
158	159	2
216	216	3
6	7	2
228	235	3
61	62	2
83	91	1
208	224	2
163	176	1
35	37	4
69	73	2
207	212	4
31	44	1
174	185	2
247	249	1
226	240	1
9	10	3
146	150	1
219	221	4
107	112	1
16	26	1
245	246	2
51	64	1
107	116	3
35	35	2
46	61	1
109	111	3
84	105	2
88	88	1
194	207	3
26	26	1
183	196	2
91	111	1
25	25	5
37	46	1
197	202	2
4	17	1
237	240	2
8	11	2
78	94	1
52	55	1
5	17	1
81	81	1
157	162	1
224	232	2
164	168	2
65	70	1
101	119	2
212	218	1
209	237	2
31	46	2
152	157	1
58	60	2
59	72	2
80	110	3
43	44	5
96	96	2
13	18	1
90	104	2
39	54	2
200	212	3
6	15	3
113	115	3
7	18	3
30	43	1
228	234	3
33	34	1
52	66	1
98	112	1
183	185	4
51	51	3
19	26	4
10	20	2
217	221	1
4	18	1
232	244	2
27	40	1
196	207	2
165	169	1
74	86	2
85	87	3
48	61	2
201	202	1
80	86	1
51	57	2
101	113	1
209	210	2
22	22	4
195	209	5
176	176	1
197	203	2
110	110	2
88	90	1
218	219	1
158	171	1
202	212	1
225	227	2
49	54	3
237	239	4
63	69	1
182	199	1
62	63	4
85	85	3
70	73	1
170	173	1
100	101	1
229	247	1
176	177	1
215	229	2
225	229	1
155	155	3
44	45	3
238	238	1
55	64	3
65	72	1
194	208	3
232	242	2
88	89	2
2	3	3
205	227	1
171	174	1
0	18	1
179	184	3
198	218	1
150	162	2
178	195	2
84	84	4
56	238	1
167	176	1
99	108	1
91	94	1
80	87	1
204	206	5
166	175	2
88	95	1
36	51	1
199	213	1
172	191	1
85	91	1
97	98	2
154	170	2
180	181	1
54	62	1
52	69	1
65	65	3
234	240	2
28	40	1
47	50	1
187	188	1
25	28	3
16	42	1
54	59	2
233	233	1
89	181	2
68	73	2
6	16	1
234	245	1
172	182	1
223	235	3
202	214	1
8	20	1
63	86	1
240	245	5
227	227	2
16	19	1
209	236	2
1	14	1
225	239	2
44	50	1
103	114	1
212	219	1
21	23	2
219	224	3
38	53	2
217	225	1
53	53	4
167	180	1
188	188	1
183	202	1
202	225	2
216	226	1
32	47	1
12	24	4
57	60	2
21	32	1
46	55	1
216	220	1
197	217	1
241	243	1
188	200	4
233	245	2
184	204	2
154	177	1
240	242	1
186	195	1
248	248	1
227	232	2
114	114	1
37	52	1
164	164	1
7	11	2
59	60	2
213	219	1
98	99	3
3	5	2
6	234	1
6	6	1
50	51	1
222	225	1
93	103	1
10	17	2
180	182	1
45	57	1
92	118	3
81	87	1
95	105	1
79	90	3
170	182	1
99	100	2
21	36	1
216	218	1
31	43	1
155	166	1
108	108	1
74	78	2
223	225	1
190	213	1
169	180	1
220	224	2
98	109	1
101	145	1
158	162	2
221	233	1
92	110	1
32	45	2
84	94	1
88	102	1
218	225	1
78	79	2
44	44	2
165	173	1
24	43	1
96	106	1
21	24	2
109	114	1
37	41	1
178	179	1
56	65	1
197	216	1
25	51	1
191	205	1
239	241	1
81	110	1
55	56	1
24	24	1
59	80	1
81	89	1
106	109	1
13	15	1
179	189	1
209	222	1
81	84	1
20	33	1
238	244	1
215	216	1
79	91	1
30	42	1
168	185	1
94	99	1
66	80	1
80	193	1
99	99	1
29	41	1
86	89	1
65	82	1
181	189	1
239	242	1
59	67	2
234	243	1
147	150	1
43	45	1
40	57	1
45	47	2
175	177	1
24	36	1
205	213	1
243	243	1
156	175	1
39	51	1
54	65	1
65	68	1
77	77	1
207	223	1
155	169	1
243	244	1
100	102	1
40	55	1
22	26	1
62	70	1
106	115	1
110	118	1
101	106	1
195	210	1
189	210	1
197	209	1
220	235	2
72	72	1
7	16	1
20	28	1
166	171	2
61	64	1
204	211	1
18	20	1
102	113	1
210	218	1
51	62	1
12	23	1
218	226	1
114	120	1
47	48	1
33	47	1
238	239	1
79	85	1
70	95	1
201	221	1
91	92	1
157	167	1
160	171	1
86	87	1
149	154	1
170	183	1
27	31	1
187	202	1
244	248	1
79	248	1
39	50	1
160	164	1
198	199	1
99	102	1
197	200	1
232	243	1
198	214	1
219	226	1
23	28	1
230	241	1
76	88	1
231	235	1
174	177	1
241	245	1
67	84	1
110	113	1
200	213	1
187	199	1
