229	229	10
108	108	15
238	238	13
16	16	29
138	139	15
158	158	6
65	65	17
218	232	4
154	155	4
122	122	10
141	147	7
206	206	16
0	0	4
207	207	8
14	14	11
122	146	6
39	39	6
29	168	2
188	188	7
158	185	3
176	176	11
171	171	26
231	242	5
121	122	16
31	32	3
64	65	7
84	85	2
164	166	4
175	176	5
4	4	11
107	107	18
166	166	21
145	145	4
226	229	3
4	69	2
192	193	12
20	21	5
213	226	2
227	227	17
61	61	7
81	81	29
54	55	12
219	228	3
140	140	10
135	136	9
32	32	23
48	64	3
55	55	9
35	36	5
47	47	19
73	73	12
108	109	2
228	229	13
34	88	4
160	160	12
51	60	3
195	195	7
141	187	1
104	107	5
34	34	8
198	199	5
164	164	34
12	21	7
214	215	12
149	150	2
21	21	19
128	128	13
85	85	10
45	45	6
154	154	32
158	159	4
233	233	7
9	20	4
193	212	5
178	178	12
225	226	2
106	106	6
99	99	12
24	47	7
201	201	17
61	64	4
23	23	15
186	186	21
8	8	15
143	143	7
137	161	1
10	11	3
172	172	11
233	234	6
75	76	10
161	161	16
157	157	7
145	156	3
50	203	2
17	17	9
202	202	14
177	177	13
76	78	1
104	104	1
30	30	15
220	233	3
28	29	7
29	30	9
152	152	6
99	176	6
212	212	5
226	227	10
137	137	17
59	59	12
117	123	5
242	242	16
185	185	7
33	33	8
149	149	11
193	193	9
13	13	8
126	126	9
105	107	10
29	74	3
223	223	3
115	115	14
181	181	14
231	231	12
48	48	7
18	18	16
195	197	6
111	112	3
190	209	5
133	141	3
136	136	9
12	13	8
117	117	17
211	212	11
52	53	3
204	205	2
99	112	1
32	79	10
41	41	23
5	5	21
135	135	8
46	46	5
18	19	6
38	38	22
37	40	4
79	84	1
29	29	10
30	168	5
52	54	11
205	207	3
239	240	1
156	158	3
122	149	3
124	124	13
20	20	7
98	171	4
63	64	7
196	211	8
77	77	8
215	227	2
139	140	13
83	85	2
150	150	9
11	12	15
222	230	6
133	133	23
168	168	10
28	28	6
9	10	12
35	35	14
2	66	4
80	81	14
74	74	16
120	120	17
127	135	1
155	156	6
181	182	5
38	39	3
166	167	13
47	56	2
27	27	20
47	49	1
7	7	16
11	11	9
122	123	3
9	15	1
189	189	12
179	179	9
175	175	4
78	78	24
163	163	17
123	142	3
9	9	3
56	56	5
2	3	3
116	122	15
71	71	10
86	86	10
221	221	17
214	214	24
151	151	12
167	168	6
198	198	12
12	12	25
42	42	15
138	142	5
62	231	4
141	142	10
82	83	19
73	172	1
127	129	2
3	8	1
62	232	6
225	225	20
121	127	3
148	149	4
162	162	9
52	198	3
208	209	2
200	200	3
115	116	18
28	171	1
14	15	7
106	165	5
54	54	4
209	209	12
236	236	5
80	82	12
89	89	5
146	146	12
55	57	8
230	230	8
26	26	13
210	210	14
117	118	11
19	42	3
176	177	6
199	199	14
37	38	3
135	148	2
184	184	14
165	165	7
116	116	7
219	230	1
130	130	7
124	139	3
165	166	7
121	121	10
220	220	15
235	235	20
64	69	2
67	67	10
28	172	3
116	123	1
48	54	4
102	120	3
224	224	10
123	123	11
6	6	13
193	211	1
240	240	12
227	229	5
27	73	3
1	1	21
102	102	14
183	183	11
18	56	8
143	146	1
179	180	4
120	121	4
1	2	7
140	159	4
215	215	6
77	79	3
221	222	12
95	95	5
51	51	13
194	213	3
168	169	15
147	147	7
103	117	2
205	205	14
125	125	18
119	121	1
58	58	17
78	82	5
219	219	10
85	86	7
133	150	11
218	218	8
37	37	16
119	120	3
62	63	6
217	218	4
213	213	4
70	70	21
167	167	21
30	169	6
137	162	6
170	170	17
15	15	3
197	213	3
211	211	12
27	95	3
66	66	10
221	223	2
133	160	4
238	239	2
195	198	1
240	241	2
218	235	2
7	8	10
68	69	6
49	97	3
144	145	5
43	55	4
110	110	9
234	239	2
190	190	6
60	60	7
122	135	2
10	45	3
159	185	2
118	143	1
157	158	4
156	157	6
59	67	1
116	144	4
3	68	1
30	31	3
123	124	9
39	42	7
220	221	3
171	172	3
2	65	1
46	54	6
43	45	5
51	52	9
232	239	2
192	192	6
98	99	4
75	128	3
203	203	11
226	226	13
153	153	14
129	191	1
61	62	1
147	148	1
139	139	5
57	57	5
19	19	10
225	227	1
196	196	11
134	134	15
197	197	8
184	186	1
52	52	12
116	117	10
175	240	1
217	217	6
166	168	1
159	159	6
142	145	3
146	147	7
122	124	3
141	159	1
186	187	4
75	75	11
212	213	14
72	72	18
139	160	2
48	63	4
65	66	2
34	35	3
0	9	3
220	222	7
216	216	13
156	156	15
5	6	1
159	161	4
140	142	12
36	36	7
25	54	2
55	100	2
234	240	3
180	180	5
9	22	3
58	59	6
98	172	5
4	5	5
10	10	8
239	239	7
162	163	4
222	228	2
231	241	2
197	198	2
165	167	6
134	135	9
113	113	7
1	69	2
54	100	5
74	171	6
26	73	3
36	37	5
86	87	3
22	22	7
21	22	10
80	80	9
24	48	3
124	163	4
24	55	2
237	238	5
124	125	3
52	199	2
82	82	8
79	79	7
122	148	2
32	33	3
234	236	3
15	43	1
174	174	13
235	237	2
100	100	6
26	45	1
62	62	5
220	223	3
83	84	11
48	70	2
106	109	4
105	105	10
170	171	4
209	210	1
101	180	4
43	43	8
40	40	10
222	225	1
32	83	4
228	228	3
33	34	8
106	108	4
72	173	1
222	222	7
215	217	5
112	112	5
173	173	10
188	189	11
117	189	3
124	126	3
32	82	3
222	223	5
224	225	3
187	187	11
98	98	7
129	129	19
128	162	2
145	157	6
128	130	2
31	77	1
195	213	6
16	66	3
125	126	4
148	148	15
155	155	8
31	31	12
173	174	1
81	86	1
63	63	7
29	96	3
191	212	4
182	182	4
24	42	2
2	23	2
25	25	5
202	238	8
205	235	1
104	105	2
138	138	6
219	222	3
71	73	4
191	191	9
56	57	5
199	213	4
115	144	2
53	53	12
72	73	7
231	232	5
242	243	3
142	142	10
4	7	1
102	115	3
195	211	4
169	169	9
151	152	2
228	230	7
75	169	7
48	55	2
5	69	2
119	119	12
41	42	3
49	62	7
26	27	4
204	204	4
130	131	4
109	110	8
88	88	3
111	111	13
124	127	1
221	229	5
103	103	11
152	153	6
144	183	1
109	200	2
164	165	4
208	208	13
199	200	4
197	204	6
219	233	3
105	164	1
237	237	8
14	19	4
24	24	6
145	146	3
190	210	1
64	64	5
122	141	1
114	114	7
144	144	4
8	9	2
53	109	2
184	185	2
189	190	6
134	152	2
229	231	7
23	64	2
127	127	10
238	240	6
221	224	4
68	68	5
57	58	2
25	47	1
105	106	4
221	230	3
46	52	2
116	149	2
102	151	3
37	44	2
88	89	4
59	60	8
101	101	7
218	231	1
153	154	7
4	6	3
235	236	2
2	2	1
177	239	3
106	166	2
81	82	1
35	37	1
99	175	1
144	146	3
232	233	3
164	169	1
11	20	2
120	169	2
194	207	2
136	162	2
106	107	5
83	83	3
223	224	2
57	110	1
44	44	3
127	170	2
76	76	2
18	57	4
28	170	3
51	61	2
199	201	3
213	215	3
103	123	3
66	67	6
76	168	5
140	141	5
104	123	1
241	241	1
34	41	1
53	57	2
196	199	1
29	86	4
134	150	1
98	111	1
141	143	2
195	209	2
182	183	1
203	204	6
232	232	9
60	61	6
206	207	2
86	95	2
10	20	3
35	84	2
126	128	1
196	208	1
30	32	2
125	136	3
72	174	1
0	70	3
205	206	5
145	183	3
136	137	7
126	139	1
8	189	1
153	155	1
144	156	1
109	199	1
3	9	2
50	50	6
24	25	8
73	171	1
124	138	1
185	186	1
118	119	4
194	212	2
229	230	4
196	207	3
234	234	4
219	220	4
216	217	2
54	238	2
95	96	3
129	130	1
196	212	3
133	134	3
143	147	2
207	208	3
132	160	2
218	233	4
128	129	4
144	147	3
17	18	2
99	178	4
149	152	3
43	88	1
14	22	1
49	51	2
54	199	2
109	109	3
13	14	2
36	40	1
122	142	1
97	97	3
122	138	5
49	50	2
1	70	1
57	165	1
61	213	2
75	170	2
3	7	2
137	139	3
112	113	2
201	202	3
13	19	2
100	238	2
53	199	1
137	138	2
141	146	1
101	178	1
59	66	1
49	72	1
9	45	1
135	137	1
13	21	1
16	17	2
60	66	1
141	141	9
119	149	2
142	143	1
25	27	1
129	162	1
125	164	1
79	82	2
49	242	1
96	96	6
101	113	4
191	207	1
147	189	1
163	164	3
46	48	3
79	81	4
50	51	1
145	147	4
39	40	3
155	157	1
2	68	2
76	77	2
142	146	2
215	216	1
27	28	1
120	134	2
42	43	1
137	143	1
148	182	1
60	67	1
204	218	1
149	151	1
141	153	1
154	157	1
69	69	5
210	211	4
28	74	2
23	66	2
33	79	2
153	158	1
228	231	2
43	62	1
39	43	3
123	144	1
6	68	1
101	102	2
147	150	1
102	119	2
235	238	1
204	236	1
53	58	1
197	206	1
230	231	1
145	181	1
204	217	1
31	33	1
7	9	1
188	190	2
160	161	1
118	118	3
169	170	2
104	125	1
48	49	3
114	115	1
86	88	1
54	112	1
6	7	1
43	85	2
2	6	1
145	182	1
161	162	1
108	166	2
56	58	1
219	231	1
117	212	1
194	195	1
90	90	1
25	173	1
5	68	2
3	3	1
126	129	2
125	135	2
118	188	1
20	39	1
194	194	4
195	196	1
190	212	2
220	229	2
192	211	1
0	1	1
138	161	4
174	175	3
103	105	2
96	97	1
98	100	1
114	199	2
60	62	2
173	176	2
99	100	2
14	21	1
139	141	1
92	92	1
196	206	1
103	122	1
71	72	2
100	176	1
34	86	1
100	112	1
101	179	1
19	20	1
132	138	1
194	196	1
53	198	1
218	229	1
40	41	1
49	49	1
60	63	2
194	205	1
15	16	2
215	230	1
84	84	1
55	56	1
187	188	1
19	89	1
236	238	1
145	149	1
190	211	1
193	196	1
78	81	1
206	237	1
112	119	1
3	69	1
218	219	1
198	200	1
238	241	1
150	151	1
