51	57	5
95	96	3
59	59	21
99	99	8
37	37	15
50	50	7
38	38	12
88	89	5
80	84	4
55	56	2
87	88	3
61	74	1
45	50	2
88	88	2
64	64	18
31	31	10
90	91	7
34	82	3
51	51	9
73	73	12
20	20	9
62	63	2
53	53	10
45	46	3
68	68	11
21	22	1
61	62	4
98	98	15
58	63	4
62	95	1
48	48	13
25	25	6
104	104	16
64	65	1
60	60	11
94	94	7
65	66	4
29	29	9
32	104	1
91	91	3
56	57	10
29	76	1
69	69	11
43	44	3
44	44	9
89	90	6
93	93	15
61	63	7
66	72	1
91	92	7
71	71	18
34	42	3
96	96	15
36	36	8
84	84	14
74	74	19
95	95	13
66	66	13
61	61	10
82	83	3
59	61	1
54	54	14
28	28	18
32	105	1
71	95	3
105	105	9
85	85	7
63	63	20
62	62	14
66	67	1
92	93	4
80	80	14
67	72	6
43	43	5
33	33	15
23	23	15
29	55	2
72	87	3
34	34	12
89	89	6
52	52	13
97	98	3
21	75	3
53	59	4
39	39	5
58	58	13
26	26	7
95	102	5
49	59	2
70	70	9
46	46	6
102	102	13
35	35	6
42	42	6
94	95	1
49	49	15
37	39	1
55	55	16
40	41	2
51	77	7
98	99	5
65	73	2
104	105	3
76	76	12
100	102	3
80	81	2
33	34	2
46	64	3
97	97	9
61	64	1
76	92	1
20	58	5
31	33	5
72	72	6
32	32	13
86	86	16
101	101	2
59	63	1
72	100	1
41	77	3
51	52	4
92	92	15
68	69	1
30	43	1
63	77	1
27	27	4
82	82	16
69	71	6
23	50	1
83	83	7
63	95	1
21	77	6
52	54	4
99	104	2
26	27	4
81	83	1
106	106	5
93	94	1
43	45	2
84	85	11
40	42	1
23	73	1
25	48	3
96	98	1
66	103	2
93	106	2
57	57	12
85	86	3
77	77	3
87	87	11
30	30	14
30	70	3
39	40	2
45	45	14
23	38	2
67	67	7
58	59	5
65	104	2
25	47	3
54	55	3
21	21	4
22	22	4
23	49	1
56	56	10
30	31	2
89	91	4
80	87	2
22	87	1
81	81	5
30	73	1
58	60	4
22	33	1
40	43	1
38	73	5
75	75	11
20	21	6
31	32	2
47	47	8
32	65	1
44	45	1
103	103	9
101	104	2
58	65	1
46	50	4
65	65	6
40	40	5
36	37	2
70	71	3
24	24	11
76	77	2
69	95	1
28	29	2
24	34	1
90	90	4
41	41	3
78	78	7
52	58	1
41	79	1
33	35	1
24	73	2
101	102	1
29	32	3
32	38	2
32	103	2
100	101	1
42	86	2
74	75	1
56	58	1
24	70	1
61	69	2
27	68	2
103	104	1
26	42	2
92	96	1
22	23	4
20	45	2
96	104	1
60	63	3
62	69	1
33	39	1
46	49	2
100	100	1
20	25	3
95	101	1
21	33	2
20	76	1
47	48	3
37	38	3
30	41	1
39	84	3
32	39	1
23	51	2
66	76	1
33	57	1
92	106	1
82	88	1
46	48	1
27	29	1
42	43	1
28	59	1
34	36	1
54	64	1
97	99	2
21	78	1
30	33	4
74	76	1
79	79	2
49	97	3
51	86	1
69	94	1
27	42	1
29	30	2
93	104	2
27	28	1
81	82	1
79	81	1
83	85	1
98	103	1
35	38	1
48	49	2
38	39	3
34	35	2
46	47	2
53	73	1
27	32	1
59	60	1
19	49	2
41	89	3
67	80	1
46	60	1
32	33	1
80	83	2
26	71	1
24	74	2
64	76	1
54	58	1
25	81	1
27	39	1
35	40	1
24	37	1
51	65	1
71	72	1
30	71	1
21	31	1
65	74	1
