12	12	4
10	12	3
88	88	2
32	32	7
150	150	8
75	76	5
165	166	3
122	123	1
59	59	3
4	4	4
127	129	2
103	103	4
89	89	3
111	112	4
165	165	2
153	154	6
93	93	2
61	91	3
36	37	1
170	170	5
149	149	12
175	176	7
141	141	4
53	53	4
78	78	3
156	156	4
66	143	3
96	96	2
89	93	6
138	138	5
58	58	2
119	119	6
65	66	1
152	152	9
106	106	4
30	31	2
109	110	4
116	116	5
135	136	2
127	127	2
113	144	4
61	61	6
145	145	2
111	111	4
114	165	3
42	42	3
0	0	2
110	126	2
13	24	4
120	121	2
67	67	10
168	175	1
70	71	1
134	135	2
75	75	4
79	79	3
121	121	3
111	145	3
122	125	1
155	156	3
3	13	3
54	55	1
71	71	8
179	179	8
80	80	7
76	76	3
143	143	7
140	141	3
154	154	3
110	136	4
95	96	2
117	117	11
155	157	3
128	128	3
50	50	7
134	134	4
40	40	2
137	137	2
40	41	3
107	107	1
70	70	3
68	68	3
2	4	7
148	148	5
33	33	5
2	2	3
158	159	2
128	136	2
130	132	1
147	147	2
133	133	7
168	168	9
36	39	1
139	139	1
150	151	4
15	15	4
167	168	2
127	128	3
108	108	2
95	95	5
74	74	7
160	160	1
71	72	8
38	38	6
88	93	4
59	93	1
132	132	5
60	60	3
103	104	4
62	62	6
3	36	1
79	82	3
106	124	1
3	50	1
29	31	2
65	65	1
20	140	1
86	86	2
89	90	5
11	13	1
161	161	2
143	144	4
83	84	2
56	75	4
59	61	1
124	124	1
97	97	2
132	133	1
156	159	2
42	45	1
0	1	1
144	144	2
125	125	4
75	79	1
55	56	1
62	92	1
151	151	2
126	128	2
17	22	1
157	157	5
73	73	3
171	175	1
91	91	6
155	155	2
110	117	2
11	12	4
16	16	2
84	84	1
163	165	1
14	14	2
122	122	2
38	39	2
82	82	2
35	35	3
31	32	1
17	18	4
44	45	1
28	29	4
114	114	2
156	162	2
84	86	2
154	156	1
112	112	2
176	176	2
55	55	2
20	20	1
130	130	2
61	86	1
5	5	1
34	38	1
157	162	1
19	19	3
33	34	2
173	173	2
136	136	1
148	160	2
164	165	3
126	126	4
174	174	1
152	153	3
160	162	1
90	90	5
129	129	4
177	177	2
8	8	1
67	111	1
12	26	2
20	22	2
172	175	2
2	8	1
77	77	2
81	83	2
45	46	1
118	118	1
172	172	1
167	167	1
118	126	4
39	39	2
101	107	1
9	9	3
88	89	1
140	140	1
23	23	2
54	54	2
74	75	2
21	22	1
162	162	1
64	68	2
26	26	2
161	162	2
173	175	2
87	87	2
24	26	1
62	89	1
170	171	3
31	33	1
166	167	1
110	110	1
119	120	1
12	14	1
79	80	1
33	38	1
39	40	1
6	7	3
120	124	1
151	152	1
57	57	2
65	67	1
50	51	1
113	114	1
31	31	3
139	140	1
16	141	1
131	131	1
42	43	1
5	11	1
54	75	1
36	38	1
180	180	1
153	153	2
146	146	1
65	143	1
115	116	1
27	27	1
30	30	1
37	37	1
1	6	1
163	163	1
