176	176	6
143	143	3
122	152	1
81	99	2
78	78	6
67	69	2
22	22	3
68	68	4
62	62	8
20	20	6
85	85	2
98	99	6
41	41	7
3	6	2
70	71	8
74	74	6
168	168	4
64	65	7
149	149	5
143	145	1
95	95	5
9	9	5
172	173	12
114	115	4
126	127	4
177	177	13
47	58	1
46	56	1
69	70	2
43	58	1
11	11	3
83	83	2
142	142	5
176	177	5
67	67	7
58	58	4
151	151	7
11	12	1
164	186	3
108	108	7
60	61	4
159	159	1
164	164	4
184	184	6
71	71	15
82	82	3
113	113	6
13	13	6
154	155	6
124	124	4
112	112	3
166	166	5
10	10	16
110	110	4
172	172	7
84	85	3
43	43	11
32	37	1
60	60	11
129	129	6
178	179	2
116	116	8
190	190	4
189	189	9
3	3	3
56	56	4
118	118	4
31	31	6
51	51	3
65	65	3
105	105	3
89	115	4
131	131	11
52	53	4
55	55	7
178	178	2
32	33	7
135	135	3
97	98	6
25	25	3
31	32	4
64	67	3
107	107	9
119	119	2
48	48	10
150	150	1
79	79	3
130	130	4
3	4	2
116	117	4
17	17	16
106	106	6
39	129	4
132	132	2
114	114	4
183	183	5
49	49	5
19	19	4
57	58	2
146	146	2
109	111	3
76	76	7
43	44	4
187	187	3
132	192	1
40	40	5
82	84	1
175	175	2
170	171	2
99	99	6
130	131	2
4	46	3
138	138	4
168	179	2
155	155	5
7	7	10
180	180	1
126	126	4
34	34	5
177	178	1
22	23	6
23	23	5
197	197	6
134	135	4
30	31	2
12	12	7
133	133	5
139	139	6
35	35	2
166	179	4
109	109	5
46	57	3
115	115	4
33	33	8
104	104	2
126	172	2
193	193	8
100	100	2
23	24	1
161	162	5
161	161	7
46	47	3
86	86	3
157	157	5
194	194	2
134	134	6
76	142	1
128	128	9
158	158	3
94	95	1
153	153	4
2	35	3
103	104	2
168	178	2
13	43	1
171	171	5
47	47	2
149	150	2
6	6	5
80	80	6
98	100	4
37	38	3
143	146	1
2	34	2
99	104	1
141	142	1
122	123	1
14	14	6
140	140	7
4	28	6
129	145	2
63	63	6
97	97	3
41	42	7
59	59	4
4	4	4
122	122	6
117	117	5
94	94	2
154	162	2
77	78	3
79	86	1
5	6	2
28	28	4
140	141	1
70	73	1
12	58	1
192	193	3
152	152	5
37	37	4
58	63	3
54	54	3
107	108	2
179	179	3
1	1	3
93	93	1
50	50	5
179	186	2
58	60	3
196	196	2
145	146	7
115	119	2
5	5	5
157	181	3
132	133	2
72	72	1
164	165	4
120	151	2
163	187	4
139	140	3
76	77	1
102	102	4
181	181	5
28	29	3
145	145	2
29	29	9
188	188	2
18	18	8
180	185	2
147	147	7
108	122	2
146	147	5
27	27	2
81	81	4
69	69	6
120	120	2
182	182	5
87	87	7
15	193	1
183	184	12
144	144	7
39	39	4
60	62	3
38	38	5
31	37	3
166	177	1
88	89	2
42	42	5
94	97	3
173	190	1
192	195	4
136	137	1
180	181	1
87	88	2
61	61	3
169	169	4
54	56	2
79	80	1
156	156	9
81	82	2
131	132	3
64	64	10
17	18	2
89	89	8
121	121	4
192	192	4
30	32	1
111	111	3
30	30	3
154	154	4
77	85	1
127	169	2
196	197	2
98	98	3
170	170	5
70	124	1
72	73	1
185	185	1
135	136	1
176	178	1
157	158	1
23	54	1
15	16	4
14	120	1
54	55	1
96	102	2
127	128	2
113	114	1
8	9	1
114	118	2
182	183	2
35	40	1
148	148	6
16	16	5
162	162	5
109	110	3
165	167	1
101	101	4
75	138	2
137	137	1
57	57	2
186	187	1
11	32	1
22	25	2
38	39	2
125	125	2
75	76	3
86	87	1
105	147	1
195	195	2
63	68	1
153	154	1
18	19	2
120	121	2
165	166	1
15	15	2
41	80	2
186	186	3
139	141	1
102	143	1
147	190	2
168	169	1
165	169	1
52	52	4
82	99	2
156	157	3
87	149	2
116	139	2
37	59	1
160	160	1
112	113	2
32	32	7
129	172	2
179	182	1
167	168	1
120	123	2
141	141	1
166	167	3
32	105	2
111	150	1
84	84	2
33	40	1
43	46	2
1	29	1
191	191	4
88	88	3
173	174	1
112	114	1
117	118	1
44	44	2
26	26	2
151	162	1
25	54	4
131	139	2
0	0	2
64	109	1
66	66	4
175	176	1
36	36	2
167	167	1
69	72	1
165	165	1
136	138	1
93	102	2
2	2	2
163	163	4
24	24	3
106	107	1
162	163	3
137	138	2
124	150	1
44	45	1
127	127	1
75	77	1
80	81	1
19	21	1
132	139	1
0	2	1
154	157	2
13	15	1
121	122	1
50	51	2
66	89	1
134	138	2
46	46	3
96	96	1
61	62	1
8	54	1
173	175	1
8	27	1
62	63	1
150	151	1
159	160	1
20	23	1
4	6	1
158	159	1
55	56	1
185	186	1
96	97	1
73	74	1
33	36	2
67	68	1
10	12	1
53	53	2
113	115	1
118	119	1
20	21	2
125	126	1
42	44	2
169	170	1
114	119	1
105	106	1
39	40	1
169	171	1
