69	69	11
81	82	2
34	34	6
57	72	4
59	59	8
27	27	9
55	55	13
105	105	17
72	72	5
53	54	5
56	56	10
44	60	4
57	57	14
73	73	14
92	92	6
50	50	15
87	87	4
75	75	12
100	100	8
65	65	10
81	81	17
84	84	4
74	74	7
70	76	3
31	31	11
22	23	4
29	29	7
99	99	13
71	72	2
54	54	8
98	98	7
51	52	3
50	58	1
21	22	9
96	96	14
47	47	2
61	61	4
37	37	1
30	30	13
59	73	3
54	73	3
44	44	6
23	23	4
99	101	3
94	94	20
32	33	2
33	33	7
83	85	2
46	46	5
45	45	2
51	51	12
20	20	11
54	55	4
79	79	3
31	33	2
77	78	6
26	29	3
48	48	8
53	53	14
71	71	7
87	88	2
82	82	8
68	68	8
65	91	1
83	84	7
20	21	2
21	21	5
20	39	4
24	24	8
70	70	4
65	70	1
67	78	2
103	103	12
36	36	6
95	95	17
55	56	2
45	71	2
41	41	6
40	40	11
70	95	4
40	41	1
22	22	6
56	63	2
32	32	11
42	49	6
64	64	12
44	45	5
21	100	1
106	106	2
42	43	4
90	102	3
39	39	5
26	27	4
92	93	1
84	86	2
93	93	3
97	104	2
26	26	1
67	67	8
102	102	7
91	91	22
62	65	4
39	101	1
100	101	2
35	36	3
85	86	4
90	90	4
74	76	2
35	35	7
68	69	5
49	49	5
97	99	5
88	88	2
51	55	3
34	36	1
43	43	4
76	76	6
27	31	2
83	83	2
46	49	2
97	97	7
69	70	3
35	74	5
72	73	1
78	78	8
65	66	2
91	103	2
62	79	1
71	79	1
22	30	1
25	25	5
66	68	2
85	96	1
62	63	2
104	104	8
52	53	1
50	51	3
35	93	2
66	66	3
38	38	3
77	100	2
36	37	5
85	85	5
97	98	1
25	26	5
60	61	1
29	46	4
75	77	2
66	67	2
34	55	1
52	54	1
101	101	9
60	60	2
104	105	2
82	99	1
82	83	3
98	99	1
38	40	3
91	95	1
65	77	1
86	87	1
84	85	2
87	95	1
67	68	2
100	102	4
63	63	2
68	76	2
76	77	3
20	68	1
22	80	1
33	46	2
73	74	2
94	95	7
89	89	4
93	94	1
46	47	2
49	88	1
50	55	1
50	60	2
64	65	1
50	53	1
37	69	1
83	88	1
20	32	4
33	35	1
86	86	1
58	58	1
22	79	1
71	76	2
70	106	2
91	92	3
77	77	4
90	91	3
21	70	1
62	80	1
42	42	1
79	81	2
80	80	2
23	24	1
52	52	1
62	62	1
65	67	1
80	81	1
45	46	1
88	89	1
70	77	1
