185	185	6
65	65	7
7	7	10
100	101	9
50	203	3
24	115	4
161	163	5
12	12	6
30	30	2
138	140	3
27	205	1
202	202	8
102	102	3
6	8	4
234	234	5
174	174	7
197	229	3
202	205	10
187	187	10
64	64	7
223	224	5
184	202	1
46	46	2
88	124	3
20	21	3
18	20	2
169	169	5
59	59	10
54	54	14
102	127	6
89	89	4
219	241	4
235	235	3
13	14	3
74	74	7
21	22	1
111	111	2
157	157	8
118	119	5
15	16	5
53	53	4
195	195	2
70	70	4
47	47	5
18	18	6
230	230	3
159	160	3
180	180	3
69	69	2
29	52	3
160	164	4
131	147	2
198	209	4
193	193	6
177	199	1
148	148	5
166	166	8
65	83	2
29	29	10
199	199	7
125	125	2
151	151	6
1	20	4
0	0	16
100	100	6
119	159	6
121	160	3
216	216	13
26	27	1
181	181	2
99	103	2
107	107	3
98	98	2
25	25	3
188	188	8
170	175	1
184	201	5
68	68	6
227	227	1
50	50	5
43	69	2
8	8	16
184	237	1
178	201	1
190	190	3
105	105	6
42	42	1
14	14	5
146	146	4
231	231	4
162	162	5
55	121	3
77	77	6
13	15	2
239	241	5
40	41	4
11	19	1
30	157	2
160	160	1
190	191	4
183	183	5
71	72	1
60	60	2
116	168	2
43	43	7
139	139	5
184	184	7
189	191	2
48	49	3
24	24	6
106	147	5
122	124	6
21	186	1
241	241	2
173	173	12
115	115	5
104	105	2
39	39	6
63	63	6
170	171	6
227	230	3
165	165	8
78	79	5
208	209	3
25	26	6
98	127	1
211	211	4
13	34	1
197	226	5
81	81	6
219	242	2
163	163	8
101	101	6
13	38	2
218	218	2
121	168	2
114	114	3
123	154	1
134	135	3
196	196	2
172	172	1
130	130	8
117	146	2
10	192	7
119	119	5
177	241	4
20	20	6
2	4	1
111	169	5
152	152	4
215	215	5
213	213	5
27	206	2
23	24	1
126	127	4
100	103	2
3	3	5
106	106	7
150	150	1
56	57	2
201	202	1
17	33	3
104	108	4
79	79	3
113	113	1
104	104	2
26	26	5
80	80	6
62	62	7
201	201	2
203	203	4
48	48	5
223	223	5
117	133	1
158	158	6
119	131	3
57	60	4
49	50	1
38	39	3
168	168	12
202	203	3
183	200	1
175	175	3
131	167	4
120	120	7
145	145	7
198	198	8
73	74	5
200	200	2
205	205	2
11	11	4
215	216	4
67	67	3
203	204	1
101	142	1
164	164	2
66	67	4
133	133	2
192	193	2
126	126	4
186	226	1
48	50	1
144	144	2
20	24	4
187	189	4
153	153	7
23	31	5
103	107	3
236	236	8
219	240	2
35	35	1
76	76	8
178	184	2
140	140	2
77	78	1
40	40	4
138	138	9
163	166	3
222	222	7
192	192	7
34	41	1
73	73	5
35	57	3
219	219	5
65	76	2
37	46	3
123	123	3
194	194	1
124	125	4
198	199	1
126	153	1
78	78	5
33	56	4
27	27	7
195	230	2
145	147	2
212	212	3
131	134	1
226	226	4
144	146	1
13	13	3
121	121	3
34	40	1
155	155	3
6	7	1
209	211	1
9	9	8
37	37	4
123	129	1
50	52	7
187	194	2
21	194	2
224	224	4
65	66	4
147	148	3
186	186	3
30	31	3
186	200	1
237	237	3
23	23	3
100	139	2
76	77	1
30	189	6
15	15	2
199	241	1
191	194	3
234	236	2
210	210	9
210	217	3
200	236	2
15	50	1
138	141	4
137	137	3
220	220	5
178	239	5
155	157	1
206	207	5
214	214	2
167	168	8
159	162	4
239	239	3
6	6	2
71	73	1
124	124	1
182	182	1
84	84	3
232	233	2
128	128	3
236	237	3
108	109	2
32	32	3
232	232	3
146	148	2
85	85	3
103	127	3
137	143	3
108	152	2
1	6	3
241	242	3
44	44	4
66	66	2
240	241	1
22	193	2
182	183	1
132	132	4
176	176	3
171	172	3
82	82	2
143	143	3
147	168	2
15	36	1
161	161	3
115	118	1
41	41	2
174	175	3
21	21	1
171	173	1
80	85	4
10	10	3
86	86	6
16	37	1
104	107	2
97	109	1
214	215	5
17	38	3
117	117	5
26	208	4
60	96	1
95	162	1
47	49	3
239	240	2
165	181	4
189	189	4
207	207	1
1	10	2
33	35	2
213	218	2
171	171	4
178	178	1
221	221	1
139	141	2
2	12	5
144	147	1
242	242	1
136	143	2
227	228	1
151	152	2
115	136	2
30	121	1
34	34	1
121	183	1
98	153	2
119	120	1
133	166	1
33	33	1
33	39	1
131	157	1
112	170	2
217	218	3
54	184	1
114	125	1
83	83	5
176	179	4
52	52	3
62	63	2
84	89	1
162	163	3
108	108	3
135	167	1
117	118	3
211	238	1
4	4	2
137	138	2
214	216	2
225	225	2
55	189	1
220	221	3
2	2	5
79	80	1
3	195	1
108	113	1
238	238	1
122	123	1
112	112	1
123	125	1
136	136	1
184	187	2
197	198	1
18	51	2
63	75	5
105	106	3
221	222	1
192	235	1
106	113	3
234	240	2
134	134	1
21	190	1
72	73	1
160	162	1
57	57	1
107	108	1
79	81	1
57	59	2
23	59	3
76	79	2
148	150	3
46	48	1
2	5	1
228	228	1
141	142	1
163	164	1
31	60	1
101	103	2
109	109	1
72	72	2
41	67	1
219	239	1
205	206	1
16	16	3
32	33	3
47	51	1
58	129	2
31	31	1
156	156	1
17	17	1
84	85	2
164	166	3
190	225	1
18	19	1
170	170	1
209	209	1
193	195	1
7	8	1
200	202	1
39	42	1
102	125	2
29	30	1
128	129	2
127	127	2
109	152	2
101	141	1
23	60	1
158	162	1
54	183	1
177	177	1
155	156	1
9	28	1
129	129	1
10	11	1
2	7	2
36	36	1
190	196	2
154	154	1
19	50	1
4	6	1
19	52	1
180	209	1
202	240	1
224	225	1
57	58	1
225	226	1
192	236	1
56	56	1
45	45	2
110	114	1
174	180	1
55	55	1
26	28	1
