115	115	1
23	38	1
4	5	1
98	98	9
84	84	5
17	21	3
66	144	1
30	30	7
69	69	8
7	7	3
97	99	1
150	150	1
122	124	1
19	19	4
12	13	3
35	41	1
136	137	4
83	83	10
108	108	6
148	148	2
123	141	3
19	20	3
120	120	5
123	123	5
49	55	8
95	97	1
16	16	6
136	136	4
67	67	14
6	23	1
105	106	1
20	20	7
150	151	4
65	65	5
116	117	5
41	41	5
38	42	1
41	42	4
111	111	8
45	109	2
21	21	5
96	99	6
26	33	6
121	121	5
113	113	5
73	99	2
45	46	5
121	122	2
9	43	4
134	134	4
30	83	2
53	53	5
143	143	7
20	21	1
39	39	3
86	86	8
61	124	2
44	44	4
77	79	2
12	37	3
105	105	8
7	27	4
85	86	3
26	26	5
122	133	1
11	16	3
137	137	4
22	22	10
122	122	6
111	112	2
103	103	2
12	16	3
4	10	3
40	40	16
73	132	4
93	93	9
4	4	11
36	58	5
19	23	4
45	45	7
66	66	13
10	10	11
133	141	1
127	127	8
25	51	1
115	152	1
109	109	7
35	35	8
98	100	5
64	93	2
70	128	2
107	139	1
80	80	4
146	147	3
74	74	6
95	113	3
71	111	4
35	43	7
43	43	3
117	119	3
14	14	4
68	69	4
154	154	3
76	76	10
7	8	3
24	108	2
22	23	3
12	12	3
15	16	7
83	101	2
46	46	4
5	5	10
147	147	6
9	9	7
137	138	2
6	45	5
106	106	4
24	24	8
6	75	3
62	62	6
62	129	2
36	102	1
17	17	5
129	129	4
75	127	1
10	38	4
32	32	5
95	95	5
32	37	3
22	25	4
93	147	1
151	151	2
63	74	2
57	57	2
52	52	7
32	33	1
77	123	1
100	113	4
73	73	2
153	153	6
133	133	3
142	143	2
25	33	3
16	18	1
151	154	5
2	110	2
37	46	1
20	22	5
13	13	7
135	140	2
123	152	1
25	25	4
79	79	2
115	148	2
146	146	7
29	29	9
18	20	2
69	143	1
54	54	2
80	154	2
2	34	2
36	36	3
106	124	1
145	145	5
87	87	2
33	47	3
126	132	4
6	16	3
6	6	2
32	107	7
144	144	7
108	138	3
149	150	4
138	138	9
33	56	4
35	103	2
55	55	4
129	130	2
42	43	3
106	107	3
31	32	2
47	110	4
13	34	4
71	71	9
14	15	1
71	149	5
130	130	4
74	107	1
49	49	6
13	23	1
8	8	6
75	121	1
78	79	1
102	113	1
132	132	6
69	144	2
42	42	4
6	7	3
26	50	2
48	50	3
84	105	2
118	118	5
149	149	4
45	110	1
81	81	2
28	28	3
74	93	3
77	124	4
8	9	3
102	102	2
98	99	5
135	135	4
42	54	1
112	118	1
34	34	2
30	31	2
31	31	5
11	11	3
90	111	1
119	133	3
65	66	5
66	90	1
6	26	2
63	107	2
97	97	6
62	115	2
79	80	5
107	107	5
36	103	2
63	71	4
9	107	3
92	92	2
3	3	2
112	112	5
38	38	9
81	109	2
48	48	4
119	119	2
41	43	1
126	126	1
36	44	2
117	117	10
122	123	5
116	116	4
43	44	2
70	75	1
81	82	1
71	110	2
6	46	1
68	68	2
17	126	1
89	89	1
85	105	1
50	50	4
64	65	3
12	14	2
152	152	3
66	75	2
94	94	1
124	124	4
4	44	1
5	57	1
114	114	5
25	37	3
58	58	2
64	64	1
15	15	3
22	38	2
42	44	1
69	70	1
139	139	2
96	96	6
67	128	2
26	34	2
63	143	3
12	29	1
73	106	2
28	94	2
100	104	1
72	142	1
87	103	1
81	152	1
24	25	1
48	51	2
14	58	1
117	118	3
20	24	1
38	41	2
7	44	1
14	48	1
130	131	4
107	108	3
33	34	2
123	124	2
31	39	2
119	135	1
28	29	3
107	109	2
114	123	2
78	104	3
21	23	2
11	12	1
125	143	3
102	103	4
136	150	1
37	37	2
122	125	1
65	142	1
14	93	1
141	145	1
77	78	1
49	52	1
64	76	3
75	75	3
100	101	3
8	37	1
70	106	1
56	56	5
10	11	1
11	37	1
36	41	1
15	76	1
14	26	1
124	128	2
66	139	2
42	58	2
128	128	2
107	138	2
88	105	1
36	57	6
50	56	3
87	113	1
106	139	1
100	100	2
146	148	1
36	37	1
36	42	1
7	13	2
85	85	1
23	23	2
77	141	1
50	51	1
83	105	1
82	82	1
19	143	1
50	54	2
8	38	1
7	9	2
9	47	1
83	108	1
5	6	1
95	96	1
83	113	1
47	53	1
148	149	1
62	125	1
44	62	1
54	55	1
19	22	1
26	37	1
45	89	1
109	110	1
142	144	1
37	54	1
64	75	1
32	54	1
119	120	1
121	145	1
118	130	1
87	122	1
2	2	1
26	51	1
44	52	1
8	23	1
18	18	1
26	41	1
35	44	1
94	95	1
