56	56	22
49	59	5
72	72	18
28	28	25
36	36	27
10	11	6
53	53	19
47	48	9
40	41	7
52	67	6
13	14	19
62	62	18
48	48	22
70	70	19
7	7	23
61	61	27
69	69	13
58	59	9
75	75	18
2	2	19
53	54	15
64	64	26
39	39	15
41	41	43
27	27	23
0	6	2
63	63	27
9	63	1
1	1	20
33	33	17
7	73	5
52	52	9
76	76	19
45	45	28
55	55	21
30	30	7
0	1	2
43	44	1
6	6	15
43	54	1
51	52	2
5	5	24
31	31	20
17	17	19
56	57	5
27	28	4
14	14	7
51	51	9
20	20	11
73	77	2
47	47	21
54	54	28
2	42	1
19	20	2
3	3	27
73	75	5
29	30	7
52	66	2
40	40	18
9	52	3
38	38	11
19	19	15
48	57	8
43	43	7
12	15	1
11	11	21
78	78	24
5	6	9
32	33	4
46	46	37
37	41	4
45	46	4
4	4	23
66	66	13
68	68	11
14	20	1
8	8	35
33	45	5
28	72	1
42	42	28
35	39	2
36	39	1
15	16	3
33	34	2
15	53	2
15	15	7
26	26	21
67	68	8
62	64	2
73	73	17
13	13	15
58	58	22
49	51	1
55	65	1
29	29	8
71	71	16
65	70	1
65	65	16
9	9	9
0	0	25
35	45	2
28	30	7
11	12	4
35	35	13
60	60	7
50	50	22
66	67	4
80	80	14
57	57	15
19	52	1
49	49	13
34	34	13
54	55	2
9	37	2
11	14	1
74	74	24
18	18	10
59	59	26
65	66	2
21	21	8
4	5	2
49	66	4
72	73	4
26	27	8
53	57	4
5	30	1
17	20	2
34	38	2
12	12	20
46	47	1
25	25	12
59	61	5
60	61	13
17	26	1
3	42	2
30	31	10
11	15	6
61	62	6
17	71	2
80	81	3
58	61	5
68	70	4
67	67	21
44	45	4
2	6	2
1	2	11
33	46	4
25	26	1
33	73	1
44	46	2
13	15	4
16	16	10
28	29	5
79	79	14
77	77	7
37	37	10
32	72	1
70	71	9
10	10	12
51	54	6
59	60	3
16	18	2
32	73	2
10	52	1
32	32	12
34	36	2
34	35	1
33	55	4
27	30	2
56	71	2
64	65	4
53	67	5
20	21	7
69	70	2
79	80	3
49	53	1
44	44	6
19	21	2
71	72	6
15	55	1
12	14	11
50	67	3
50	69	5
12	54	3
36	38	1
34	48	1
74	75	7
38	41	2
49	58	11
51	55	1
9	50	4
1	35	2
49	50	3
55	72	1
30	74	2
36	37	2
27	31	4
60	63	3
46	48	1
8	42	3
9	15	1
9	10	2
0	3	1
29	75	2
10	13	2
18	20	2
55	56	3
9	70	2
41	42	1
32	34	1
31	55	1
2	3	4
37	40	1
73	74	7
9	36	1
34	81	3
74	77	1
52	54	3
19	26	3
15	70	1
25	54	2
0	7	1
7	8	2
55	73	1
51	53	2
3	6	1
36	41	1
63	64	3
37	70	1
8	15	1
6	7	3
14	15	2
62	63	2
48	49	1
45	75	1
6	30	2
31	32	3
20	25	2
70	72	3
65	67	1
43	45	2
73	76	1
20	32	1
21	54	1
3	33	1
9	13	1
57	63	2
37	38	2
70	75	1
11	13	1
68	69	3
22	71	1
9	53	3
19	51	2
75	76	1
42	43	1
50	51	3
54	67	2
38	39	1
31	62	1
16	17	1
4	32	1
13	69	1
67	71	1
57	58	1
76	79	1
39	40	1
