69	72	4
77	78	3
136	136	25
9	9	13
106	106	13
19	19	15
118	132	1
85	85	15
140	140	22
119	132	4
101	101	12
121	125	3
35	35	12
48	71	2
135	140	2
114	114	13
78	78	14
120	126	2
121	121	11
122	124	1
14	35	8
95	102	2
18	18	13
137	137	9
26	26	16
117	117	12
105	110	6
86	90	3
37	38	6
95	95	17
114	116	1
80	80	11
55	68	2
114	115	3
96	96	16
89	89	7
10	20	1
76	136	2
118	137	10
82	85	2
143	143	4
93	96	2
130	130	18
24	36	6
20	40	2
57	58	5
134	134	12
71	71	13
20	20	10
16	18	10
65	65	18
10	11	1
66	66	20
132	135	7
68	71	1
52	53	1
124	124	18
72	73	1
107	108	11
3	20	8
122	123	7
85	118	3
2	5	3
42	42	18
21	21	8
19	37	2
68	68	17
133	133	12
99	101	3
20	36	4
11	43	4
3	3	4
77	77	15
74	74	8
52	72	5
19	25	4
128	133	5
21	47	4
24	24	5
30	30	8
5	18	4
75	75	12
83	84	9
53	53	9
22	22	16
10	10	6
23	23	7
110	111	5
4	4	12
96	119	1
81	81	20
85	86	10
64	64	8
56	56	14
35	42	1
70	70	13
29	29	19
38	38	12
11	11	5
8	8	6
58	58	19
14	18	2
40	40	9
111	113	4
105	106	14
73	73	11
111	111	11
61	61	23
64	65	10
87	87	11
99	122	3
93	94	4
63	63	12
59	59	20
17	17	18
123	139	3
65	66	11
34	36	9
16	16	3
53	68	1
105	105	13
94	94	13
138	138	7
63	104	5
118	118	8
128	130	6
100	105	2
51	51	8
139	139	6
47	47	5
74	77	3
93	93	6
19	26	3
132	137	3
144	144	3
97	132	5
107	107	6
63	102	2
3	5	2
36	36	9
92	96	8
104	110	2
135	135	4
78	121	1
126	126	17
16	25	3
61	91	5
140	141	5
131	132	9
10	19	3
11	13	1
32	32	13
15	16	4
115	115	9
39	39	5
4	5	1
64	87	4
122	140	2
81	89	3
48	48	19
120	120	10
135	139	1
132	132	9
76	76	10
100	100	11
49	50	5
132	133	4
37	37	4
57	57	7
30	40	1
142	142	13
29	40	3
101	102	13
49	49	16
127	127	11
104	104	12
85	115	3
96	118	5
19	24	3
32	38	7
126	127	2
40	41	4
103	103	10
102	102	14
12	28	2
70	131	2
80	83	2
123	123	4
28	28	10
31	32	3
8	39	3
50	50	5
27	27	15
92	94	3
35	38	3
90	109	1
67	67	7
113	113	10
78	141	3
117	123	1
128	129	6
41	41	5
112	112	10
92	95	2
3	32	3
91	91	7
138	139	2
125	125	8
28	30	2
0	3	1
98	98	2
76	124	5
79	83	2
72	72	16
52	52	6
6	20	4
122	128	4
60	60	9
50	76	3
27	28	1
13	35	1
14	136	3
144	145	1
55	81	1
5	5	14
14	77	3
66	113	1
111	112	5
5	8	2
121	138	7
106	133	6
51	78	1
55	55	5
76	139	2
4	18	2
36	41	1
122	122	9
87	89	7
35	41	1
122	127	2
56	57	2
1	1	1
92	92	4
135	136	1
54	57	6
63	66	2
6	6	6
87	92	2
108	108	7
14	14	5
75	141	1
119	120	2
79	79	2
36	39	2
20	35	1
49	72	6
74	94	1
35	36	10
97	98	7
86	86	8
82	83	2
60	67	2
141	141	12
120	142	1
99	99	9
81	100	2
70	71	4
62	62	11
97	97	3
82	82	5
97	118	1
82	140	2
118	120	6
109	109	10
21	133	4
59	68	3
120	138	3
83	83	20
75	124	2
64	109	4
0	5	4
115	118	1
51	66	4
127	134	3
90	108	7
34	40	8
116	116	5
121	122	6
11	21	2
0	12	3
120	124	7
98	131	2
75	139	1
118	135	1
81	140	1
2	2	11
55	56	5
131	131	11
49	74	1
55	72	7
21	35	2
110	112	2
88	89	5
48	49	1
20	21	3
80	81	4
127	133	3
60	62	2
128	128	4
15	18	2
25	26	4
106	107	6
127	140	3
25	25	4
50	51	4
110	110	10
124	125	1
134	137	1
24	28	2
136	139	1
64	72	2
81	104	2
119	122	2
0	4	2
88	88	6
99	100	5
115	116	6
116	117	2
67	101	2
66	104	1
56	61	2
52	85	1
52	73	5
42	132	2
34	35	2
129	129	2
58	59	3
104	108	3
0	39	1
95	142	2
94	116	1
90	90	5
115	117	1
54	54	8
87	103	1
84	84	6
30	41	4
90	112	4
2	3	4
128	136	3
120	139	1
119	119	8
58	79	3
69	70	3
91	110	2
60	61	1
1	12	1
76	78	3
4	12	1
36	37	2
107	109	3
50	52	3
96	113	3
15	17	1
93	105	1
24	26	2
31	31	11
92	93	3
53	65	3
93	97	1
91	107	1
128	139	1
88	104	1
49	52	2
71	72	2
106	134	2
13	13	9
91	96	1
63	109	3
71	131	2
68	69	1
33	33	2
80	82	1
124	127	3
127	132	2
2	4	1
120	121	2
117	118	5
1	2	1
78	79	1
88	96	2
70	128	1
67	104	1
102	103	5
134	135	6
146	146	2
64	67	2
83	85	3
62	102	2
61	88	4
4	15	2
62	109	3
98	101	1
27	40	3
67	105	2
84	85	1
125	128	3
68	70	1
74	75	4
71	80	1
77	79	3
26	27	1
131	134	1
62	63	6
122	125	1
75	138	1
88	90	1
4	34	2
92	132	4
104	113	2
104	105	3
97	131	1
3	35	1
97	142	2
73	74	5
132	134	2
99	104	1
4	14	2
96	132	1
29	30	4
57	59	2
58	126	1
56	64	4
37	41	3
65	109	1
79	80	2
20	31	1
89	100	1
70	93	1
43	43	3
4	33	2
54	59	1
13	23	2
49	71	1
67	91	1
71	129	2
94	111	1
108	109	3
58	60	2
11	133	2
2	6	2
3	6	2
114	118	4
81	83	4
20	28	2
95	96	1
15	15	4
56	111	2
56	68	1
49	53	2
47	72	2
5	6	1
92	119	1
120	135	1
105	111	2
30	38	1
92	97	1
21	29	1
91	98	2
50	53	2
54	80	1
126	129	1
12	12	4
8	9	2
34	34	2
123	128	1
90	116	1
145	145	2
19	20	1
113	114	1
139	141	1
113	116	1
60	111	1
47	58	3
112	113	2
80	85	3
120	133	1
89	92	1
41	42	1
66	67	1
65	104	2
66	115	2
112	115	2
102	141	1
93	98	2
104	109	1
136	138	2
121	130	1
118	119	4
5	43	1
137	138	2
79	81	4
33	41	1
70	92	1
76	140	1
89	90	1
145	146	1
82	101	1
56	72	1
95	97	1
120	122	3
69	117	1
74	83	1
81	82	1
0	0	2
59	60	1
62	103	1
18	19	1
69	74	1
60	116	1
21	134	3
130	131	2
129	136	1
13	20	1
8	17	1
56	59	1
22	23	1
124	126	1
17	18	1
52	74	1
95	116	1
14	16	1
130	138	2
60	63	1
137	139	2
0	34	1
99	102	1
136	137	1
105	107	1
91	92	1
93	95	1
113	118	1
14	15	1
53	56	1
53	54	1
14	33	1
54	81	1
123	124	2
94	95	1
55	70	1
39	43	1
24	41	1
40	43	1
32	33	1
55	110	1
52	82	1
9	39	1
58	62	1
100	104	1
28	29	1
53	67	1
54	72	1
87	114	1
12	34	1
132	139	1
119	138	1
72	129	1
12	47	1
121	124	1
75	76	1
67	92	1
95	103	1
55	69	1
