74	74	4
71	71	6
179	179	6
138	138	3
109	109	3
223	224	2
113	113	9
206	206	11
129	160	1
179	180	3
101	103	2
134	162	2
14	14	2
183	183	6
26	26	4
111	111	6
54	55	8
68	69	8
177	177	3
97	97	4
175	175	8
202	202	3
23	23	1
3	8	2
218	219	4
130	130	3
136	136	10
32	32	13
141	141	4
225	225	1
17	157	3
57	57	6
173	176	1
134	134	11
191	191	5
98	100	5
153	153	3
55	55	5
45	45	7
13	13	1
20	24	3
203	204	2
202	203	3
104	109	3
23	24	4
46	46	5
61	61	13
56	57	1
65	68	2
242	242	2
128	153	1
229	230	2
72	72	3
189	189	11
184	184	18
70	70	6
107	107	2
63	64	4
50	50	6
196	196	1
103	126	2
147	186	1
122	139	2
180	180	3
15	15	4
37	37	3
39	39	12
38	38	7
172	172	3
102	103	3
84	84	2
44	44	9
47	48	3
144	164	2
135	137	6
51	52	1
2	5	2
54	54	6
62	62	9
178	179	1
208	224	3
127	127	4
133	134	9
2	3	1
192	192	8
209	209	1
168	168	3
165	166	3
68	68	4
180	183	2
236	237	6
29	155	2
108	108	5
58	58	8
199	200	7
234	234	11
106	106	4
73	73	7
156	157	3
123	123	6
0	1	6
100	100	4
178	178	2
201	201	8
235	235	16
35	155	2
104	105	9
162	162	4
221	221	2
8	39	1
105	109	2
181	181	2
169	170	3
157	157	4
170	170	15
208	208	4
28	28	10
213	213	2
129	158	4
233	233	3
88	107	1
182	182	6
132	132	2
120	120	9
21	21	9
49	49	6
166	166	3
207	209	4
199	199	2
10	10	8
152	190	2
169	169	6
11	15	2
137	137	5
21	57	2
214	216	2
49	50	6
17	17	2
219	219	4
158	158	2
150	150	8
122	122	4
161	161	7
192	193	2
197	197	2
193	197	2
58	59	1
88	88	3
149	149	7
67	67	8
5	6	2
120	141	1
55	86	2
144	146	2
119	120	1
173	173	3
3	3	3
230	230	1
66	66	6
26	28	2
40	40	4
16	16	7
190	190	6
223	223	6
7	55	1
110	110	2
66	67	2
51	51	7
194	195	2
99	101	2
137	138	3
11	22	5
17	18	2
148	149	2
152	152	4
198	198	6
238	239	3
101	101	11
75	77	1
206	207	4
4	4	4
27	27	9
237	237	5
85	85	5
207	212	1
1	2	2
115	115	7
236	236	6
217	217	2
151	151	2
0	62	6
42	52	3
142	143	1
30	30	13
48	48	5
19	19	5
136	137	2
73	86	1
185	196	1
147	147	4
218	218	2
22	23	2
181	233	2
16	20	2
207	224	1
134	136	1
52	53	4
21	23	1
75	75	3
25	25	2
149	150	4
69	69	6
26	152	2
227	227	3
12	12	1
171	171	8
186	186	2
196	197	4
222	222	4
128	128	3
220	220	5
205	205	9
24	24	5
204	204	7
29	31	4
84	107	3
205	206	4
118	118	1
174	174	6
211	211	4
6	68	5
7	53	2
104	104	2
8	8	4
6	6	2
239	240	1
176	176	3
240	240	4
3	63	1
81	81	3
177	178	3
115	116	3
133	133	1
80	80	3
124	127	1
216	216	4
126	132	5
36	36	3
165	165	3
200	227	1
40	54	2
6	8	5
79	79	2
29	29	3
138	139	3
187	187	3
78	108	2
33	33	6
160	160	3
196	198	3
53	53	4
103	123	1
20	20	10
203	203	6
224	224	4
72	73	2
0	63	1
96	96	2
37	38	4
240	241	1
58	60	4
128	150	2
119	119	6
31	31	2
89	89	1
195	195	7
220	222	4
124	125	3
35	35	1
210	223	2
99	99	2
190	191	1
32	33	2
17	19	3
79	107	3
14	22	2
26	237	2
118	119	3
140	142	4
239	239	6
139	142	3
148	148	1
26	153	3
207	208	1
135	135	4
3	66	2
200	200	3
64	70	4
170	172	2
114	116	4
53	54	2
180	235	1
170	217	1
103	103	5
8	9	2
9	9	3
5	5	1
125	133	1
226	227	4
96	122	1
167	167	2
7	7	1
102	102	2
226	226	1
96	160	1
96	97	2
238	238	1
172	176	2
42	42	1
43	43	5
76	77	3
18	18	4
65	65	3
139	143	1
185	187	2
3	6	5
129	130	4
241	241	4
128	160	1
140	140	4
100	101	1
87	110	1
80	82	3
16	17	2
31	33	3
142	142	1
25	26	1
64	64	3
88	106	1
43	44	1
204	205	1
183	187	2
21	22	1
86	86	3
188	188	1
79	82	4
120	121	4
160	236	2
212	212	3
108	109	2
5	8	1
101	110	1
214	215	1
164	165	2
63	69	1
200	201	1
1	1	2
164	164	4
98	98	3
214	214	2
121	122	1
129	145	1
60	60	1
232	232	1
126	133	1
44	45	1
173	175	2
144	144	1
70	71	1
140	141	1
168	170	2
166	167	1
144	145	2
62	63	2
0	0	1
171	178	1
143	143	1
145	163	1
116	116	1
83	83	1
129	188	1
63	70	1
74	75	1
174	175	1
10	11	1
103	141	2
71	72	2
109	123	2
181	234	1
202	204	1
47	47	3
167	203	2
117	118	2
242	243	1
232	233	1
228	228	1
206	216	1
41	42	1
199	225	2
212	214	1
147	203	1
121	121	2
159	160	1
17	23	2
176	178	2
27	241	1
147	148	1
103	127	1
126	126	2
237	239	1
146	147	1
157	158	1
200	225	1
197	198	1
76	76	1
169	171	1
112	112	1
