19	20	7
122	123	16
22	22	18
92	92	14
69	69	12
17	17	19
30	30	30
102	102	15
31	43	2
13	14	4
15	15	9
86	86	24
118	118	16
112	134	1
84	85	13
50	50	11
65	65	20
79	80	6
80	113	4
40	40	9
14	14	16
6	20	5
73	73	11
126	126	17
6	7	6
20	21	6
34	34	10
119	120	4
73	74	2
72	73	5
114	122	1
66	66	29
29	29	14
46	46	15
4	4	14
9	9	16
33	34	4
79	85	3
85	85	7
123	123	20
16	16	9
117	117	26
8	8	30
121	121	10
86	120	2
119	121	7
110	112	4
64	64	24
124	124	15
91	91	8
57	57	11
112	112	15
93	100	2
120	123	9
62	62	13
0	1	2
122	124	4
61	61	13
32	32	5
75	77	4
71	71	13
24	25	5
80	80	9
60	60	20
128	128	10
111	111	16
31	39	3
97	98	11
47	47	23
78	78	36
110	110	8
109	110	2
10	10	31
34	37	2
44	44	9
0	45	2
43	44	5
120	120	13
7	7	23
95	102	7
16	17	14
63	63	17
59	59	22
55	55	6
132	132	9
56	57	1
10	11	6
26	26	5
79	79	9
40	41	2
12	12	14
28	28	12
82	83	7
77	117	4
59	103	2
83	83	8
26	27	6
6	30	4
47	66	3
5	41	2
84	84	6
88	89	2
86	88	9
11	11	12
41	41	15
80	115	2
19	21	4
36	36	12
78	100	4
71	121	3
75	78	2
81	81	6
82	82	9
45	45	8
132	133	6
56	58	5
91	131	3
101	108	1
87	87	5
95	96	13
111	113	4
118	123	4
24	24	17
33	33	11
11	12	8
5	5	5
130	134	1
56	56	8
79	122	5
57	59	2
117	118	2
45	46	4
75	75	11
93	123	5
116	116	9
96	96	6
6	6	12
27	27	13
77	78	2
19	19	7
48	48	5
59	60	10
34	36	2
44	48	1
109	109	4
34	35	7
79	81	4
101	101	2
2	3	5
42	42	12
20	22	2
49	49	3
0	0	15
3	3	4
131	132	17
75	76	6
18	109	5
98	99	2
127	130	4
38	40	4
108	108	7
76	76	9
103	104	3
103	103	20
35	60	3
78	120	5
84	107	2
88	119	1
98	98	5
20	20	13
77	77	12
14	44	4
1	2	1
13	13	10
106	107	8
2	2	19
95	95	6
25	25	8
72	72	15
115	122	2
58	58	7
57	58	11
6	24	1
24	36	3
63	64	5
5	40	3
81	83	4
115	115	23
89	121	2
74	75	3
81	114	4
19	26	3
87	88	8
10	125	3
97	100	15
88	115	2
133	133	7
57	78	1
66	67	6
23	23	5
124	125	6
36	39	1
112	113	5
93	93	5
32	33	8
35	38	1
47	58	2
90	90	3
96	100	3
129	129	10
62	64	1
107	107	15
49	130	1
121	122	2
104	104	9
42	43	1
41	42	3
128	129	3
93	106	10
94	96	1
100	106	4
114	114	11
0	46	2
38	39	3
43	43	8
57	69	2
81	96	5
74	76	3
8	12	2
128	130	4
67	118	1
104	105	2
35	39	2
81	121	3
120	121	9
86	92	2
91	92	4
69	70	6
127	127	5
15	18	1
86	115	1
64	65	4
74	74	9
37	37	10
23	24	5
126	133	2
131	133	2
97	97	10
22	26	1
98	100	4
107	108	3
24	35	2
35	56	2
76	96	1
55	56	4
82	96	1
7	9	2
102	103	1
14	17	3
67	68	1
105	105	3
18	18	10
78	113	3
44	45	5
35	36	9
39	40	7
16	117	3
30	33	3
105	106	6
33	36	2
25	43	1
6	47	3
125	126	5
113	113	12
134	134	6
106	106	9
114	115	3
7	8	2
130	130	6
79	107	7
116	126	1
67	67	9
62	63	3
34	51	2
103	106	1
47	125	3
70	70	7
37	38	4
39	39	7
58	105	1
11	18	5
47	77	1
13	21	2
86	90	1
19	43	3
125	125	11
80	82	3
21	22	1
130	131	4
57	119	1
91	133	1
68	68	10
86	116	4
70	71	4
32	41	4
7	29	2
1	1	5
83	84	5
9	17	6
31	31	4
73	77	2
23	47	1
32	61	6
29	30	1
28	30	3
83	87	2
111	112	1
51	54	1
129	133	2
77	118	1
7	28	1
8	20	2
71	72	2
60	62	1
78	108	3
102	107	2
31	33	3
83	105	4
15	17	1
130	132	1
115	116	5
21	21	1
85	86	1
75	92	2
68	69	1
47	72	2
44	71	1
60	61	5
108	134	1
91	95	1
70	131	2
56	78	1
127	131	2
18	45	2
12	70	3
99	104	2
36	40	2
94	94	2
100	100	5
114	127	1
121	129	1
96	99	2
40	60	3
123	124	3
81	82	1
119	129	1
10	13	2
76	107	5
126	127	1
13	19	3
58	59	1
4	40	2
36	59	2
28	29	3
4	19	1
38	38	5
71	76	2
40	42	1
101	107	2
8	21	3
18	21	2
103	111	2
75	93	1
93	122	1
63	65	1
92	93	1
118	122	1
50	132	2
56	86	1
108	111	1
25	30	1
92	134	1
110	133	2
105	115	1
88	88	2
15	128	1
9	46	2
31	32	1
18	44	1
10	17	1
30	31	1
40	48	1
33	35	2
113	134	3
90	109	1
36	60	1
81	105	1
116	117	1
62	65	1
114	126	1
123	126	1
90	92	5
99	107	2
6	50	1
65	67	2
56	88	1
48	58	1
26	30	1
122	122	1
76	78	1
45	47	1
47	79	2
14	21	1
61	62	1
108	128	1
113	128	1
120	122	1
0	9	1
115	127	1
3	4	1
99	99	2
78	107	1
4	42	1
66	68	1
119	119	3
101	102	1
35	35	1
65	66	1
59	101	1
76	84	1
31	42	1
41	45	1
89	90	1
7	30	1
99	101	1
64	73	1
18	19	1
104	106	1
33	39	1
64	74	1
113	114	1
88	100	1
