50	67	7
49	55	3
9	10	9
41	41	11
46	47	8
64	64	17
40	40	23
26	26	26
0	1	9
78	78	16
33	40	2
20	20	14
34	34	13
53	53	19
25	72	2
50	65	3
4	19	2
71	71	11
14	14	19
10	10	32
59	59	31
73	73	31
71	72	8
74	75	5
16	16	11
5	6	11
63	63	15
46	46	22
70	71	10
30	30	19
51	52	7
51	51	9
74	74	19
70	70	19
68	68	7
29	29	18
14	21	1
35	35	18
12	14	8
38	52	3
58	60	7
75	76	8
62	62	13
38	38	21
76	76	9
29	49	3
36	36	22
19	19	17
32	32	16
20	49	3
68	70	2
32	37	2
55	55	19
28	28	25
75	80	1
47	49	2
20	56	2
69	69	20
6	6	23
33	39	5
0	2	1
15	15	11
48	48	12
35	55	3
67	70	2
39	40	6
79	79	27
40	47	4
65	65	21
31	35	4
45	72	4
2	2	12
45	47	3
43	43	3
34	37	2
61	62	1
31	46	1
53	54	7
47	47	24
35	45	4
55	78	3
28	42	4
31	31	8
35	38	3
64	67	3
60	60	26
8	8	23
0	13	2
13	13	12
26	28	2
52	52	9
59	60	5
59	66	4
47	73	5
3	3	15
67	68	6
69	70	10
1	1	19
80	80	18
9	9	20
63	67	4
15	21	1
42	42	27
30	49	3
56	76	1
27	27	28
32	33	4
18	27	2
57	57	13
66	66	14
30	47	1
25	25	3
7	7	10
57	61	5
28	76	1
37	38	2
0	0	17
56	56	24
3	4	1
56	78	4
37	64	3
64	65	3
10	12	9
46	60	4
11	11	18
39	46	2
57	79	5
41	52	2
4	4	27
33	33	14
45	45	15
77	77	8
50	50	22
49	49	20
75	75	18
61	61	9
22	22	4
13	14	5
58	58	24
21	21	7
35	49	4
28	29	5
26	30	2
39	56	1
71	77	5
71	78	1
59	80	5
62	63	5
50	69	2
11	14	2
75	81	4
38	49	1
17	19	4
37	40	4
79	80	6
63	65	3
6	38	2
15	71	1
27	28	2
68	71	1
4	13	1
54	54	17
73	74	5
56	66	1
17	17	13
52	67	1
39	41	1
16	71	3
68	69	6
54	61	2
59	70	7
8	17	1
39	39	18
48	49	10
27	38	1
14	16	1
72	72	15
1	14	4
10	11	4
76	77	6
66	73	3
3	27	3
39	47	1
11	13	2
1	62	3
41	47	4
44	44	3
61	70	2
16	65	1
63	64	5
37	37	16
58	64	1
5	5	6
51	56	1
19	20	4
12	15	3
17	49	2
13	31	3
20	42	2
19	58	1
0	9	2
49	54	3
26	72	1
74	80	1
46	51	1
70	72	6
7	79	3
77	78	8
49	50	3
73	80	2
72	78	1
66	71	1
1	13	3
47	48	4
3	47	4
17	34	2
14	53	2
56	57	3
70	75	2
45	79	2
36	57	2
14	15	2
18	73	2
62	68	2
40	41	3
76	78	1
1	2	4
8	9	4
78	79	5
31	47	4
38	50	1
21	22	2
29	30	9
67	67	12
30	35	4
0	5	2
31	36	1
10	25	2
21	51	2
62	73	2
33	34	4
48	69	2
68	72	1
21	25	2
52	53	7
38	40	4
6	12	7
8	15	7
50	68	3
67	73	2
25	26	8
51	67	2
65	66	3
51	54	5
61	63	1
52	63	2
48	71	3
28	49	1
49	52	1
61	73	2
57	64	1
43	57	1
67	69	1
55	57	2
58	59	2
6	21	1
15	17	1
20	21	2
70	74	1
12	12	5
73	75	1
8	16	1
42	74	3
27	29	2
17	55	3
17	35	2
9	53	2
42	43	5
6	8	3
53	69	3
41	42	1
66	67	3
14	19	1
16	17	3
55	72	3
31	57	2
53	65	2
56	61	1
50	52	2
5	13	5
71	73	1
26	34	3
64	66	1
36	42	4
39	51	2
56	64	1
13	15	1
29	34	2
7	8	2
28	41	1
12	13	2
34	47	2
0	65	2
49	51	1
17	48	2
26	35	4
41	54	4
9	15	3
26	65	2
35	36	3
1	10	2
60	61	6
49	64	2
27	34	2
30	31	2
16	28	1
29	48	4
0	63	1
13	22	2
16	20	2
32	40	1
60	65	1
2	10	4
35	43	1
9	14	2
41	74	2
32	39	5
54	63	3
57	59	1
55	73	1
19	51	1
26	73	1
49	68	2
6	9	5
30	38	1
27	30	1
17	18	1
69	72	1
7	78	1
37	39	3
31	32	1
0	21	1
45	55	2
17	36	2
15	16	1
66	68	1
65	75	1
14	18	1
37	76	1
18	21	3
32	43	1
25	33	3
35	62	1
4	6	1
29	42	1
6	7	1
6	15	1
63	70	1
54	56	1
51	61	2
47	61	1
51	53	3
30	39	2
2	3	1
75	78	2
17	59	1
21	42	2
28	50	1
38	39	1
9	11	1
58	68	1
40	59	1
54	65	2
7	10	1
10	49	1
55	76	2
62	72	1
50	74	2
8	25	1
48	68	1
20	51	1
56	80	1
61	66	1
11	21	1
26	33	1
66	72	1
17	40	1
47	56	2
41	51	1
59	68	1
3	66	2
34	36	1
34	73	1
31	48	1
59	63	1
35	60	1
2	13	1
18	55	2
1	20	1
48	53	1
56	72	2
40	48	1
42	48	1
54	59	1
49	75	1
55	62	1
6	17	1
