160	162	1
56	56	9
171	171	4
5	5	7
72	72	4
159	159	5
81	82	7
131	161	5
146	146	3
46	46	3
125	126	3
166	166	4
135	135	4
24	24	5
139	149	2
22	22	4
36	36	1
120	120	7
119	119	8
16	17	3
117	143	2
127	128	3
135	136	5
20	35	4
11	11	3
52	52	6
126	127	2
45	46	4
99	99	1
101	128	3
174	175	4
5	8	1
64	65	3
151	152	3
152	153	2
15	15	5
143	143	4
102	103	2
90	90	7
73	74	3
97	98	4
151	151	9
128	129	1
25	25	4
48	48	1
32	32	7
173	174	2
120	121	4
149	150	4
114	115	2
17	17	3
63	65	1
131	131	3
68	68	3
83	84	1
164	166	3
22	32	2
11	12	3
184	184	2
88	88	2
175	175	1
183	183	1
91	92	6
27	27	2
160	161	2
176	176	1
185	185	3
10	10	2
154	155	2
3	3	4
26	30	3
116	120	1
22	23	4
39	43	1
18	18	5
59	59	2
16	16	4
162	190	4
67	67	4
148	148	2
31	31	3
171	175	1
138	138	2
121	122	3
20	20	2
81	81	3
187	188	2
73	73	1
128	128	2
100	100	3
67	101	2
133	137	2
177	184	4
109	109	3
178	178	2
144	144	6
187	190	4
0	0	1
23	23	7
147	148	1
64	106	1
140	140	1
172	173	1
97	97	8
52	59	2
66	67	2
104	104	3
71	72	1
25	32	1
79	79	3
162	163	1
9	9	8
155	155	1
2	3	1
139	139	3
84	84	4
70	70	3
10	12	2
88	89	3
114	142	2
136	136	3
26	31	2
129	133	2
59	60	3
66	66	4
172	172	6
26	26	5
136	137	3
142	149	2
145	145	3
30	30	4
127	127	5
88	92	1
150	150	2
29	29	5
37	37	4
168	168	5
47	47	2
177	177	5
158	158	2
28	30	1
75	75	1
85	86	3
42	42	5
60	70	2
187	187	1
103	103	3
83	85	2
161	161	6
172	175	1
87	87	2
176	178	2
186	187	1
65	65	1
78	78	7
17	18	1
137	137	2
34	36	2
141	141	3
114	114	2
181	188	2
78	79	2
57	57	2
53	54	4
142	142	3
116	116	2
124	124	1
185	186	3
7	7	2
104	133	1
166	183	1
54	54	1
18	21	1
18	40	1
101	101	2
35	35	2
105	106	1
178	179	1
162	162	1
10	11	2
156	156	3
153	153	1
167	167	5
44	52	2
180	180	5
22	25	1
12	12	2
19	20	2
7	9	2
163	165	1
109	110	1
86	86	3
174	174	5
162	188	2
14	72	2
40	41	2
89	104	1
91	91	3
104	113	1
21	22	1
134	134	1
167	169	3
34	34	2
129	129	1
18	19	2
92	92	6
160	187	2
74	74	2
182	182	2
161	188	1
131	132	2
147	147	1
104	128	1
20	37	1
62	62	1
94	95	1
3	4	2
83	83	2
190	190	1
25	42	1
77	77	4
52	53	1
153	154	1
148	151	1
46	47	2
64	64	2
110	110	1
38	38	1
32	36	1
119	121	1
61	62	1
5	7	1
0	1	1
170	170	1
175	176	4
8	58	2
76	78	1
90	92	2
138	139	1
21	21	1
152	152	1
126	126	1
142	143	1
46	49	1
4	5	1
68	69	1
9	59	1
23	24	2
76	76	2
103	104	1
112	112	1
115	116	2
82	83	1
106	106	1
60	60	1
34	35	1
105	108	2
114	124	1
125	125	2
10	13	1
108	108	1
154	158	1
89	98	1
93	93	1
84	88	1
25	26	1
44	44	1
43	44	1
116	142	1
43	43	1
138	141	1
