96	96	3
127	138	2
73	73	8
79	79	11
122	123	6
133	133	6
105	105	11
19	19	19
62	62	6
65	65	16
72	73	3
81	81	1
100	100	18
164	164	3
118	118	2
159	159	6
77	78	5
133	134	2
161	163	2
108	108	6
13	14	10
23	23	4
184	185	2
54	54	5
173	173	8
130	130	7
106	107	2
172	187	4
69	69	7
175	187	4
30	30	5
162	164	3
41	41	5
138	140	3
177	178	5
146	146	11
168	168	2
136	136	11
80	80	4
31	33	3
8	8	6
152	164	4
36	36	7
104	147	1
66	181	3
168	171	2
155	155	7
157	157	9
144	144	4
124	124	9
38	100	3
116	120	2
25	25	5
89	90	1
35	36	1
139	140	2
56	56	7
128	128	6
4	4	2
121	123	4
190	190	7
16	16	8
11	11	2
120	120	10
139	139	9
138	139	3
109	109	7
155	159	7
15	15	7
13	13	11
39	39	6
156	156	9
54	77	1
153	153	9
120	122	4
155	156	4
113	113	3
125	125	8
20	21	1
169	169	3
22	22	4
185	185	3
118	120	1
8	38	4
111	130	2
66	66	6
34	91	1
102	102	3
14	15	1
49	49	2
130	131	18
177	177	7
74	108	1
174	174	10
176	190	2
137	137	3
69	74	2
113	114	2
57	57	5
74	74	5
24	43	6
136	137	2
68	68	5
47	47	7
99	99	7
35	35	6
33	35	1
27	47	5
163	163	4
164	166	1
59	59	9
182	182	8
1	40	2
151	151	5
76	77	1
61	62	2
160	160	6
148	148	9
42	42	9
78	107	1
18	18	6
82	82	6
103	103	9
29	29	3
24	24	7
107	107	7
129	129	15
29	30	7
55	55	10
85	85	2
178	178	9
105	106	3
97	97	7
184	184	4
77	77	13
111	111	2
18	24	2
130	132	3
143	143	4
61	63	2
62	63	2
37	37	1
172	172	4
138	138	9
127	127	4
90	90	2
185	188	4
64	66	1
87	127	2
47	59	2
32	32	2
60	60	4
173	186	1
95	95	5
61	61	5
86	146	4
78	78	7
56	71	1
102	103	7
33	33	3
187	190	3
58	59	8
84	157	1
18	19	4
155	172	5
40	63	1
32	33	4
37	105	5
26	28	2
17	17	7
22	36	4
26	26	8
121	122	2
118	119	2
56	59	2
77	90	2
180	180	4
87	88	4
126	126	5
115	115	3
176	176	5
34	34	2
137	159	1
119	119	1
110	110	7
98	98	5
63	63	1
113	117	2
40	40	9
87	87	1
38	105	1
21	22	2
6	6	6
122	134	2
114	117	2
48	48	5
111	112	3
166	166	6
88	88	5
175	177	3
92	92	5
123	123	2
104	146	1
46	46	6
112	112	8
157	158	2
87	93	1
109	110	1
151	152	2
1	1	5
175	175	13
85	86	3
122	122	4
38	111	2
93	98	2
93	93	9
41	42	2
148	149	2
188	188	7
185	186	5
120	149	3
100	104	3
175	180	8
121	149	4
173	188	1
182	185	1
68	74	4
166	168	1
100	110	1
5	31	4
150	161	3
161	161	6
106	106	4
7	7	7
40	41	4
9	9	3
142	142	7
76	90	1
75	91	2
32	92	2
131	131	6
145	145	9
116	117	2
15	16	1
129	130	1
148	177	2
104	105	3
75	75	1
154	157	1
153	157	1
45	45	2
11	73	1
117	117	4
180	181	6
131	133	1
31	32	6
156	157	2
147	147	2
189	190	4
146	161	3
167	168	2
22	24	4
117	150	2
101	101	7
101	108	1
182	183	2
91	91	7
84	84	3
152	152	5
84	109	1
25	26	1
154	189	2
6	15	2
19	79	1
68	90	2
175	181	2
114	115	6
113	129	1
170	170	7
3	3	3
5	27	1
75	76	5
31	36	1
138	142	2
54	57	3
183	183	4
1	154	4
91	92	4
0	38	1
39	111	1
43	43	3
5	5	4
186	186	3
103	116	2
187	187	5
138	151	2
135	135	2
142	143	7
158	162	2
185	189	1
153	160	2
77	79	1
11	12	3
84	85	2
5	75	1
83	83	3
149	149	5
170	183	1
86	86	2
27	27	4
12	15	4
103	147	2
84	108	2
114	114	5
102	104	4
14	14	3
87	128	2
97	181	1
165	167	2
70	71	1
150	150	4
86	87	2
171	172	1
158	158	2
64	170	1
155	162	3
143	145	2
11	13	2
86	100	1
43	44	1
178	179	2
32	94	1
89	89	3
135	137	1
119	149	1
108	151	1
100	101	2
37	146	1
12	13	1
92	93	3
76	101	1
188	189	1
72	72	3
28	32	1
0	1	2
104	150	1
74	78	4
70	82	1
2	40	1
5	93	5
5	48	1
116	116	2
53	53	3
134	134	5
34	36	1
63	106	2
94	94	8
42	56	1
13	73	1
165	179	2
90	91	1
0	0	1
27	28	2
114	116	1
141	143	2
76	76	1
19	20	4
70	83	2
99	125	1
181	181	2
44	44	2
160	167	1
42	57	3
145	150	1
71	71	2
42	46	2
60	61	1
33	34	1
163	179	1
146	147	1
154	154	1
4	93	2
66	180	1
149	151	1
0	39	1
93	94	4
173	190	2
35	92	1
155	161	1
7	8	1
41	47	1
114	128	2
174	175	2
3	6	1
122	132	1
165	165	1
140	141	3
79	189	1
9	10	1
45	46	2
37	57	1
67	68	1
59	82	1
85	109	1
28	28	2
155	173	1
126	129	2
162	162	1
143	144	1
58	60	2
171	171	3
132	132	1
139	156	1
67	67	1
131	132	1
91	93	1
141	141	1
114	129	1
112	115	1
70	70	1
183	185	1
159	168	2
34	37	1
59	61	1
18	34	1
111	131	1
162	166	1
173	183	1
163	164	1
26	29	1
56	57	1
37	38	1
23	36	1
108	109	1
140	156	1
116	146	1
16	18	1
53	54	1
140	140	1
36	111	1
89	96	1
136	142	1
