16	17	3
39	39	16
158	158	16
139	139	18
140	157	1
31	31	5
22	25	3
92	92	13
56	92	1
143	154	1
41	44	4
166	169	3
56	56	7
130	132	2
83	83	15
176	178	3
97	97	9
160	160	17
169	169	18
136	136	16
132	132	8
148	148	33
66	66	20
51	51	11
96	116	1
103	105	1
180	180	7
90	149	3
5	5	17
172	172	19
133	133	19
81	81	20
3	3	11
151	151	10
11	12	1
53	53	19
18	45	4
6	7	4
172	173	6
121	121	28
62	66	2
156	156	9
103	104	7
65	65	13
146	147	1
83	126	1
178	180	1
100	104	4
6	9	3
72	72	6
18	19	10
35	35	13
176	176	25
79	79	20
63	78	3
105	106	3
116	116	7
124	125	5
42	100	4
57	57	9
77	77	12
130	130	8
63	79	3
163	163	10
132	133	3
174	174	9
10	10	16
103	103	13
57	71	3
175	176	5
93	112	3
140	170	6
94	94	8
61	61	11
131	131	14
123	123	10
163	167	2
154	155	7
16	60	2
22	40	1
179	179	14
6	6	21
2	3	8
76	76	7
146	151	1
171	171	18
107	125	1
105	105	18
9	9	8
133	134	9
54	54	23
24	24	20
137	140	2
138	160	3
71	71	9
39	40	9
85	86	3
33	33	4
43	44	4
101	101	8
113	113	11
49	49	5
37	68	1
103	175	3
63	67	2
112	112	24
171	173	2
152	152	4
147	165	1
167	168	6
108	109	3
44	44	7
128	129	8
8	9	3
97	128	2
29	29	13
73	73	9
137	137	15
26	58	2
102	102	13
17	19	1
28	29	3
157	166	2
138	138	18
124	124	15
33	43	2
63	63	12
85	139	4
10	18	2
95	95	19
136	163	2
27	27	14
19	19	6
141	141	16
7	13	2
149	152	1
129	130	4
16	73	2
23	177	3
10	37	1
23	23	19
60	60	13
74	74	7
173	173	13
140	148	4
159	162	4
72	73	3
39	41	2
31	43	6
159	159	10
106	107	2
8	8	14
122	122	9
71	72	1
111	113	1
82	86	2
147	147	10
84	84	9
177	177	10
22	23	11
24	56	2
129	129	11
78	78	18
73	75	3
59	62	3
121	145	3
122	137	3
149	165	3
127	127	10
125	133	1
81	83	6
4	4	10
169	171	2
115	115	17
87	87	18
70	71	4
147	170	3
128	142	3
62	74	2
40	40	6
25	25	5
99	127	1
83	86	4
74	75	3
149	149	21
119	119	12
56	117	3
130	131	8
5	22	3
85	85	14
67	67	10
114	115	7
12	12	24
140	140	5
136	141	3
80	80	6
32	35	2
126	151	1
117	117	4
4	15	2
89	90	6
96	98	4
115	116	4
68	68	10
104	105	5
89	89	14
161	161	14
107	107	20
123	125	2
9	12	4
125	177	1
38	38	11
126	126	3
168	168	12
150	153	3
114	125	2
84	126	3
88	88	3
72	101	1
144	144	6
62	62	11
178	178	8
35	44	2
43	43	24
13	13	12
1	10	1
41	41	12
170	170	13
149	150	5
171	177	3
75	78	1
93	93	9
94	119	1
36	36	6
90	94	1
35	36	2
19	33	2
3	4	7
96	104	7
9	130	1
39	50	6
0	0	6
139	154	4
61	78	2
110	111	7
134	134	17
58	60	2
17	17	23
86	86	6
31	34	1
146	146	10
7	7	7
19	84	3
15	16	3
72	88	3
16	16	11
176	177	1
101	102	4
140	142	2
41	42	3
171	176	3
151	158	4
14	14	9
120	121	4
59	72	2
175	175	3
28	31	1
152	156	2
109	109	6
132	136	3
42	43	3
136	138	2
42	42	13
154	154	7
10	17	3
44	53	1
119	121	2
88	114	1
13	14	4
126	130	1
79	80	6
118	118	14
139	140	6
106	106	12
156	159	3
3	30	5
166	166	7
53	56	1
11	18	1
109	138	1
11	11	9
142	149	1
128	136	1
107	122	2
99	112	1
106	126	3
58	58	6
30	30	22
108	108	16
160	161	3
111	111	11
2	2	18
36	37	5
161	162	6
156	157	7
1	1	4
110	110	6
32	32	8
92	93	3
7	12	4
142	142	4
27	31	4
116	117	5
171	174	2
116	118	8
109	119	2
18	18	10
173	174	11
84	85	9
107	120	3
165	167	2
82	99	3
78	80	2
64	64	10
110	140	2
90	95	4
5	26	2
50	51	2
123	124	10
34	49	2
163	166	7
55	56	5
22	22	2
41	72	2
86	97	2
21	88	1
26	26	12
162	162	7
121	122	12
106	114	2
56	68	1
95	117	2
125	126	3
100	119	3
57	66	4
145	145	9
143	143	5
158	161	3
37	45	1
82	83	2
63	64	3
52	52	18
50	50	7
78	79	8
68	73	3
157	157	8
6	19	3
24	45	2
38	39	3
118	119	2
45	45	4
81	100	1
67	77	3
126	134	3
80	94	2
20	20	5
3	6	4
75	75	10
23	68	4
167	169	2
147	157	2
158	180	3
125	127	1
140	160	1
165	165	12
8	21	2
150	150	14
2	75	2
132	150	2
76	77	7
130	135	5
153	171	2
66	72	6
166	170	1
34	34	5
13	32	1
60	61	2
21	22	5
160	162	2
164	164	4
70	100	3
3	85	2
155	161	1
81	95	2
22	24	3
32	115	1
7	24	3
37	71	2
37	51	1
114	118	2
104	104	4
31	44	1
158	175	2
5	28	2
62	73	2
121	139	2
34	96	2
24	30	1
165	166	3
105	108	2
1	73	1
12	13	3
169	170	3
91	110	3
76	87	5
43	56	2
58	79	1
134	138	1
37	87	2
125	125	5
96	96	11
158	159	5
167	167	6
40	60	1
25	32	3
24	62	2
21	23	1
80	112	1
102	111	1
54	55	3
108	121	2
37	38	4
166	179	2
162	167	2
61	72	2
21	21	2
116	134	2
88	97	1
89	101	5
3	12	1
75	76	3
31	36	2
30	31	2
116	119	2
170	177	1
145	174	3
99	107	1
10	20	1
57	58	2
18	35	3
85	115	1
154	159	2
141	153	3
120	120	14
50	66	3
95	112	2
81	112	2
33	34	4
15	15	7
87	88	2
155	156	5
92	112	1
10	14	2
31	33	1
114	142	1
8	12	3
52	54	4
4	5	4
14	16	1
155	155	5
135	135	10
148	163	2
150	170	1
101	106	2
159	163	3
157	158	2
172	177	1
22	26	1
107	110	2
107	109	5
24	25	4
7	66	1
59	80	1
55	55	4
28	64	1
39	42	3
104	108	1
174	179	7
98	102	1
63	84	1
2	10	1
90	91	1
142	161	3
19	23	1
88	89	4
25	63	2
142	145	1
151	152	1
174	175	1
21	29	2
151	172	2
131	143	1
35	37	1
88	94	4
114	130	2
109	113	1
9	10	1
95	130	1
136	168	2
12	63	1
41	62	2
107	108	2
37	37	8
137	138	4
122	141	5
66	68	3
95	111	1
109	177	3
28	28	3
26	42	1
142	144	1
81	82	1
109	123	3
9	13	1
115	127	5
8	10	2
83	84	2
128	128	6
2	30	2
137	141	2
32	33	4
155	157	3
64	84	2
31	32	13
162	163	3
115	126	2
5	7	1
74	77	2
26	27	2
56	60	2
14	24	1
44	45	2
10	11	1
144	160	2
158	162	1
98	116	4
33	39	1
163	164	1
57	63	1
99	102	3
157	159	1
59	59	7
135	136	3
139	164	4
25	26	3
1	4	2
65	66	7
90	112	1
109	110	2
130	143	2
138	156	1
141	142	1
71	101	6
159	161	4
89	94	1
20	22	2
122	123	1
145	146	1
91	91	5
91	92	3
27	34	1
177	178	1
102	120	1
115	148	3
71	117	2
62	64	2
117	118	3
73	78	2
91	101	2
163	170	1
150	174	2
148	175	1
79	132	1
133	135	2
58	63	1
4	7	3
129	131	1
2	4	1
159	164	2
110	180	2
8	13	1
62	63	2
124	126	2
154	163	1
164	167	2
51	52	1
146	148	1
16	33	2
7	14	2
20	83	1
25	35	2
89	105	2
71	81	1
161	180	1
73	79	1
120	122	2
104	107	2
23	24	1
11	20	3
96	97	3
0	10	3
144	173	2
81	86	2
117	124	2
28	77	4
106	145	3
99	104	1
135	151	5
173	177	1
46	46	8
86	107	2
15	38	4
150	152	2
160	177	3
79	86	2
81	98	1
132	153	1
50	63	1
49	64	3
145	147	1
79	81	2
168	170	2
119	120	1
117	120	1
52	87	2
143	146	1
153	153	4
70	70	4
7	8	2
72	75	3
0	1	2
171	180	2
100	106	2
24	41	2
142	143	1
140	153	2
147	155	1
51	53	1
80	81	1
64	83	1
139	141	3
99	99	12
82	82	2
127	129	2
57	62	1
159	167	1
10	16	1
5	39	1
63	80	1
166	167	1
6	37	1
153	158	2
105	133	2
15	17	2
120	175	1
100	103	1
169	179	2
30	67	1
165	170	1
95	96	1
27	64	2
138	140	1
25	43	1
157	173	1
2	33	1
148	154	1
13	38	1
93	94	4
90	90	4
106	119	2
148	165	3
134	137	2
88	112	1
97	98	2
153	156	1
28	61	2
115	119	1
29	33	1
165	169	1
88	93	1
144	147	1
32	72	2
136	139	1
5	10	2
59	66	2
4	12	1
6	30	1
101	113	1
150	177	1
22	68	1
112	115	1
13	42	2
122	124	1
24	64	3
162	164	2
11	26	1
9	24	1
100	118	1
52	82	1
19	21	2
33	45	3
122	134	1
16	19	1
127	128	2
9	11	5
129	143	1
67	93	2
44	49	1
29	38	2
15	36	1
91	94	2
82	87	1
140	146	1
147	148	1
90	100	2
163	169	2
16	22	1
13	21	2
71	86	1
98	98	2
85	114	1
122	138	1
73	76	1
143	152	1
146	171	1
111	124	2
102	121	1
89	95	1
171	172	1
29	31	1
33	41	1
19	74	1
106	108	1
24	26	2
118	124	1
13	36	1
14	19	1
134	139	1
90	97	1
136	151	2
64	81	1
10	24	1
137	156	2
85	87	2
55	65	1
100	101	1
111	132	2
22	31	1
56	57	2
170	174	1
71	132	1
38	44	1
9	17	1
152	154	1
118	121	2
118	120	1
84	124	1
45	57	1
114	114	2
134	135	2
19	20	2
67	86	2
23	61	1
100	100	1
40	42	1
67	92	1
107	119	1
77	78	1
120	129	1
96	114	1
21	42	1
10	68	1
153	163	1
110	118	1
86	98	1
13	16	1
43	115	1
153	160	1
67	68	1
56	59	1
132	135	1
136	149	1
114	139	1
170	171	1
152	153	1
35	118	1
64	65	1
