183	183	10
74	74	6
146	146	11
44	45	1
58	58	7
117	120	5
188	188	7
131	132	10
70	70	13
94	98	1
149	150	8
55	65	3
161	162	8
178	178	12
50	51	5
130	130	4
101	101	5
165	185	3
165	165	4
5	7	2
176	178	2
14	32	2
105	105	15
64	64	10
43	43	5
177	177	4
127	128	2
156	156	3
158	158	10
149	149	11
86	86	6
12	49	7
104	104	6
63	63	6
128	136	2
68	69	3
11	51	6
120	168	3
174	175	6
126	126	7
153	153	7
51	86	1
161	161	12
110	173	3
142	143	7
99	99	11
55	55	4
107	107	9
173	173	7
84	85	1
185	186	12
98	99	5
155	157	1
172	172	6
130	131	4
188	189	9
172	174	3
57	58	4
95	116	2
145	145	6
168	169	5
124	153	9
42	42	5
100	104	4
87	99	2
163	167	2
9	9	5
49	51	3
47	47	4
182	182	1
160	191	8
150	150	15
96	97	6
62	62	11
54	54	14
186	186	10
29	29	3
154	155	8
111	138	3
189	189	8
145	146	5
98	98	9
83	84	4
88	90	1
29	40	2
25	25	3
29	194	1
33	33	4
172	178	2
2	6	6
5	5	4
144	144	10
97	141	3
115	115	19
96	105	1
35	36	4
138	141	4
110	140	1
97	97	12
163	164	7
143	143	13
109	109	8
66	66	14
72	72	6
33	39	3
119	119	12
8	8	8
140	140	7
38	38	5
37	37	4
129	130	5
7	7	4
165	166	3
69	137	1
187	189	3
86	87	6
98	174	3
99	107	5
48	49	2
179	179	8
114	114	5
103	107	4
162	163	2
67	67	4
15	24	3
43	50	1
194	194	7
108	108	12
159	159	9
144	145	5
41	41	5
181	191	1
118	121	2
100	123	2
2	45	1
197	197	1
138	138	6
152	152	13
141	141	3
174	188	6
65	156	2
148	148	10
171	172	1
112	154	4
0	4	2
31	61	2
39	39	8
11	11	3
59	61	3
171	171	11
134	134	8
83	83	10
192	192	11
4	4	4
183	190	1
176	197	2
176	176	9
71	71	9
59	62	2
49	49	2
107	108	10
87	87	6
82	83	3
139	175	4
89	172	2
112	113	2
100	101	3
44	44	5
27	28	12
14	51	3
143	144	5
20	20	9
120	120	7
178	179	5
124	155	2
55	56	2
76	84	6
181	181	13
36	36	2
124	124	14
6	43	1
182	190	2
102	102	9
123	123	9
35	35	4
95	96	3
59	60	4
160	160	11
187	187	14
164	164	9
14	16	2
100	102	2
154	154	8
4	37	3
130	154	3
82	84	2
17	31	2
108	110	3
15	47	2
135	135	2
177	178	5
4	5	1
94	94	14
118	118	3
195	195	6
100	100	8
101	102	7
165	168	6
84	84	2
111	158	2
49	50	7
148	159	2
65	65	8
28	28	7
88	88	7
59	59	7
156	157	7
136	136	13
135	136	11
132	133	5
48	51	1
121	121	7
184	184	8
117	117	10
140	142	1
155	155	2
64	65	10
18	24	4
134	153	2
58	59	1
6	7	4
51	51	5
169	169	9
122	122	7
27	27	4
87	88	1
137	151	1
133	134	13
96	100	3
133	133	8
81	84	6
40	40	2
164	170	1
12	33	2
164	180	3
54	72	1
146	147	7
56	56	5
40	41	1
190	191	6
97	160	1
125	127	1
112	112	4
95	95	4
73	73	7
128	129	4
79	79	5
74	75	4
16	21	1
3	65	2
54	63	1
53	53	13
113	113	8
52	52	9
1	9	3
141	157	3
6	34	1
132	132	3
50	50	6
90	115	3
191	192	1
173	174	8
159	160	6
18	21	2
116	119	1
60	60	5
157	157	11
113	197	1
157	158	3
94	116	1
77	77	1
137	145	4
14	14	3
40	44	5
139	139	10
106	106	7
110	111	7
25	39	2
170	170	4
60	61	3
41	42	3
150	152	1
7	35	3
85	97	1
1	1	5
185	193	4
9	35	3
11	30	3
190	190	7
167	176	1
32	37	1
139	140	8
121	193	1
67	68	5
174	174	3
116	116	5
89	89	5
48	48	3
189	190	2
187	188	3
98	178	2
75	78	3
132	147	2
128	128	13
2	41	2
88	89	6
133	150	2
23	50	2
103	106	6
147	147	5
123	125	1
137	137	3
69	69	6
81	83	4
111	111	5
24	24	1
125	126	1
103	117	1
20	30	2
127	127	3
167	167	5
60	63	6
105	106	1
13	25	2
174	176	3
54	71	4
111	112	2
89	132	2
116	120	2
186	188	4
68	125	3
3	3	3
103	103	7
156	160	3
82	153	2
109	130	2
56	57	2
99	175	3
69	84	2
81	81	2
62	63	2
21	24	1
53	54	3
142	158	4
70	71	5
186	189	1
0	21	3
30	82	3
122	123	1
96	102	3
158	159	4
161	175	7
180	180	5
81	152	1
142	144	1
76	134	2
160	161	1
141	142	1
192	193	2
181	182	5
94	96	3
118	120	5
32	38	1
172	173	3
171	174	1
150	158	1
34	94	1
3	11	1
68	68	4
51	126	3
163	163	2
193	193	4
57	69	1
29	41	1
66	83	2
110	112	1
77	86	1
195	196	1
13	51	1
94	104	1
166	166	6
153	154	1
30	30	1
38	56	4
1	4	2
139	142	3
18	39	2
138	139	4
69	71	3
46	46	5
142	142	2
61	63	5
66	75	1
74	81	1
40	70	1
112	153	2
6	30	1
125	125	4
76	81	3
101	109	2
43	45	3
12	12	4
61	109	2
118	119	3
169	171	2
0	49	1
157	189	1
81	89	1
56	59	2
13	13	4
143	146	1
133	137	1
2	2	3
15	15	4
125	154	3
76	76	5
8	13	1
9	10	2
72	73	2
160	180	1
104	143	1
181	192	1
73	75	2
11	36	4
104	105	2
58	77	1
26	27	2
129	129	4
23	23	3
157	176	2
182	183	1
180	181	1
96	96	5
41	45	2
182	191	2
31	82	1
95	100	2
85	86	1
10	11	2
2	20	1
24	31	1
0	5	1
53	66	1
109	110	1
181	193	3
0	9	5
80	80	3
28	38	1
185	185	1
104	119	3
61	62	2
110	172	2
56	64	1
55	71	2
149	151	2
106	107	1
72	128	2
185	192	1
3	36	3
4	36	1
196	196	5
151	151	1
25	43	1
162	171	2
20	168	2
152	154	2
85	87	2
70	125	2
170	196	3
33	37	1
24	49	1
17	34	1
82	82	2
35	42	1
90	116	2
134	137	1
119	123	3
3	5	2
183	185	1
60	62	1
26	39	2
136	137	2
76	133	1
185	190	1
80	95	1
141	171	1
76	128	2
19	19	1
14	28	1
34	34	1
23	25	2
128	154	2
10	13	1
150	154	1
130	133	1
11	194	1
161	166	1
22	22	2
82	116	1
31	31	2
76	85	1
187	192	1
168	170	2
10	18	1
26	26	1
93	106	1
21	21	2
127	130	1
38	187	1
137	148	1
11	31	1
141	158	1
4	10	1
59	88	2
116	117	1
151	152	3
126	127	3
56	65	1
15	32	2
194	195	1
18	19	1
16	16	1
75	76	1
57	57	1
135	187	1
138	140	1
94	97	1
0	2	1
152	153	1
11	52	1
65	66	1
100	106	2
95	112	1
3	38	1
137	189	1
193	194	1
99	177	1
179	180	1
26	36	1
20	22	1
23	44	1
13	24	1
157	171	1
38	40	1
110	110	1
162	162	1
100	176	2
48	50	1
33	55	1
99	173	1
78	79	1
32	32	1
175	175	1
103	160	2
12	188	1
2	3	1
122	167	1
96	160	1
