90	91	5
103	126	5
123	124	17
13	26	3
55	57	1
82	82	3
68	68	6
30	117	4
100	100	7
96	148	4
113	113	6
16	16	11
99	121	2
39	39	5
50	50	7
128	128	8
48	48	5
112	112	7
88	89	6
96	96	10
126	150	8
13	13	5
78	81	2
52	71	5
18	18	12
20	20	8
85	86	15
131	131	5
45	47	3
133	133	10
23	24	2
7	7	8
115	118	4
32	32	7
71	71	8
15	15	8
135	135	3
150	151	5
120	120	9
5	5	3
79	127	4
146	148	1
80	80	7
108	135	3
54	70	3
8	10	5
48	49	3
36	36	7
30	39	4
94	157	1
115	116	4
55	55	2
106	106	11
51	83	1
152	153	3
22	23	1
116	118	8
1	1	12
94	113	2
102	102	2
66	80	1
35	35	1
140	140	7
12	12	6
136	136	10
45	49	5
78	78	11
46	46	4
109	109	4
24	24	4
108	110	4
149	149	2
123	123	2
14	21	1
117	117	10
79	89	3
29	50	4
144	144	3
126	132	3
63	63	11
127	127	8
144	147	2
9	9	12
134	134	5
129	129	4
70	108	1
102	124	2
90	90	4
69	69	1
38	38	12
44	44	5
130	132	1
42	42	2
53	76	4
27	47	5
140	142	2
13	27	1
31	31	8
93	93	10
66	105	2
30	30	6
113	114	8
121	123	1
126	126	2
83	83	5
84	84	4
95	95	5
6	44	2
53	53	2
128	158	4
154	154	5
45	46	3
130	130	8
86	86	6
101	101	2
67	67	6
50	75	1
44	45	3
2	54	2
110	110	8
86	91	1
146	146	1
138	138	7
65	65	6
86	90	1
10	10	4
37	37	6
124	124	3
153	154	4
144	146	4
152	152	5
85	114	4
134	136	4
136	156	2
141	141	3
121	121	5
105	114	1
54	54	7
46	47	7
45	45	5
2	2	3
28	28	4
157	159	2
27	27	7
21	22	5
33	43	3
127	131	2
46	85	3
107	107	12
108	108	6
88	88	6
136	152	2
119	140	1
61	61	2
94	95	1
64	64	4
66	66	4
120	122	1
95	152	5
82	83	3
97	148	5
113	136	1
143	143	3
12	13	1
11	11	1
136	154	4
80	144	2
142	142	4
43	50	1
18	44	2
23	23	2
30	31	2
41	41	2
22	22	1
52	52	1
105	111	6
65	67	2
8	51	2
8	9	5
84	90	3
17	48	1
57	61	1
70	70	1
80	88	2
157	157	2
98	127	4
114	114	9
118	118	5
31	36	1
147	147	9
47	83	2
132	132	1
109	113	4
25	25	5
0	0	4
28	29	3
8	43	1
103	151	3
155	155	4
117	118	4
66	71	3
92	156	3
95	157	3
97	142	3
80	81	6
19	19	12
148	148	3
79	79	6
33	33	3
99	99	8
54	67	3
124	125	3
77	77	3
3	71	1
66	84	1
104	124	3
152	158	3
133	134	5
64	106	1
19	45	1
66	69	2
122	122	4
137	141	1
51	51	1
116	140	3
95	140	1
92	92	2
57	57	2
116	119	1
98	98	3
32	33	5
75	75	3
17	46	2
136	138	1
21	21	6
54	55	3
80	131	1
73	99	1
85	91	1
18	27	1
47	51	1
82	89	1
47	48	3
66	70	1
94	94	5
89	89	4
154	158	2
73	73	3
47	47	1
1	2	1
120	141	4
115	135	2
29	85	2
79	100	3
94	152	1
92	136	1
112	135	2
15	52	1
153	157	2
9	10	4
34	34	3
92	135	1
137	137	5
128	129	4
62	67	1
38	42	1
43	43	4
153	153	1
32	75	1
121	122	3
54	62	1
70	82	1
17	17	3
37	39	2
6	6	4
156	156	1
92	111	1
52	82	1
13	25	2
66	68	2
25	26	2
26	26	3
0	1	1
123	144	1
99	139	1
112	136	1
28	47	1
121	130	1
4	51	1
20	21	1
33	42	1
19	25	1
8	8	1
13	28	1
122	145	1
112	113	1
90	114	1
100	126	2
136	137	5
35	37	2
85	113	2
3	6	1
11	12	1
129	130	1
105	105	3
41	43	1
66	67	1
97	97	4
139	139	2
72	72	1
40	42	1
3	67	2
94	111	1
53	71	1
72	106	1
104	123	1
52	78	1
25	27	1
155	156	2
79	131	1
106	107	1
84	85	1
33	50	1
104	104	1
105	112	1
76	77	1
126	151	1
87	105	1
