49	49	11
57	62	4
36	73	1
42	42	16
62	62	7
47	47	13
31	31	4
83	85	3
27	31	1
73	73	15
32	33	10
37	37	9
36	36	16
64	82	2
112	112	2
70	71	1
72	73	4
35	92	4
65	66	6
70	70	11
76	76	13
33	33	11
23	94	1
38	58	1
50	50	15
31	38	2
87	89	6
38	38	9
95	95	6
56	56	8
46	46	5
69	69	8
19	19	7
105	106	2
40	50	2
80	80	7
20	20	17
26	26	7
34	35	11
32	32	3
72	76	2
74	75	9
91	91	6
39	51	2
43	43	7
82	82	12
97	97	2
64	65	9
92	92	2
32	51	1
108	108	5
61	61	9
67	67	5
66	66	16
30	30	16
34	34	5
29	29	11
114	114	9
41	41	5
89	89	6
32	36	3
41	64	2
60	60	9
59	60	4
39	39	6
79	79	7
85	85	4
27	27	5
71	71	10
41	67	1
75	79	1
41	42	1
45	45	15
65	65	9
25	25	5
74	74	6
44	70	3
41	71	5
21	21	8
39	62	2
46	52	2
58	58	9
35	67	1
90	106	4
84	85	4
20	21	3
103	103	6
35	36	5
77	78	5
84	84	3
69	70	2
37	39	5
27	29	1
26	44	1
44	45	6
23	23	15
113	113	4
54	54	5
53	53	5
36	37	2
75	76	1
28	28	11
63	63	1
57	57	9
105	105	4
33	69	2
65	68	2
31	77	1
47	52	3
81	81	8
63	74	3
88	89	1
55	55	4
47	55	1
61	70	2
98	98	3
49	77	1
59	59	11
93	93	2
53	61	7
24	25	3
83	83	6
75	75	2
103	104	3
77	77	7
58	86	3
40	65	2
19	60	1
52	52	10
22	22	4
27	32	1
36	40	5
24	24	9
53	55	3
33	34	1
100	100	1
51	52	7
44	44	2
35	95	1
50	51	5
68	70	1
65	108	1
62	63	6
37	47	2
57	61	4
32	34	8
89	90	1
90	90	1
87	110	4
93	95	1
49	50	4
72	72	6
96	96	5
106	106	4
19	75	2
88	88	3
21	54	1
53	54	4
63	64	1
28	52	3
59	83	1
51	51	7
21	22	1
78	78	2
111	112	1
64	64	1
94	94	2
48	48	5
28	31	2
107	107	2
35	35	2
67	68	3
23	37	1
20	41	2
47	48	1
71	72	2
101	101	1
87	87	3
62	65	3
78	79	1
47	51	2
41	109	2
97	98	2
35	91	1
63	76	1
32	69	2
39	40	1
26	33	1
41	45	1
93	94	2
56	57	1
54	61	2
47	76	2
25	35	1
38	63	1
22	87	2
43	70	1
52	114	1
19	22	1
54	55	1
59	86	2
58	59	1
20	78	2
76	78	4
82	83	2
86	86	1
22	23	1
25	84	2
100	103	1
104	104	1
48	78	1
61	62	2
86	87	2
53	60	1
73	75	1
40	41	1
102	103	1
99	99	1
43	44	2
33	63	1
65	82	1
32	35	1
36	45	1
26	27	1
48	115	1
51	61	1
23	68	1
20	48	1
61	67	1
