68	71	4
91	91	2
11	11	8
141	141	3
141	144	2
130	130	4
147	147	2
67	68	3
134	134	6
56	56	4
38	38	6
37	37	9
7	43	2
36	36	5
3	3	6
42	42	9
145	145	1
97	99	2
21	21	1
113	113	6
10	11	2
143	143	3
167	168	2
17	17	10
53	54	3
28	39	3
44	44	7
141	142	2
0	0	8
13	13	8
39	65	2
51	51	3
152	152	12
101	101	6
47	47	8
86	86	6
118	118	9
7	7	8
89	89	4
102	148	4
90	90	8
93	93	4
94	94	1
99	100	2
156	156	5
153	154	5
33	35	1
44	45	2
5	5	4
19	45	1
110	110	9
69	69	2
98	124	2
1	1	9
85	85	5
168	170	2
92	92	5
104	106	2
130	149	4
93	94	3
54	54	14
126	126	10
70	70	8
87	119	1
58	63	1
26	26	7
151	152	2
166	166	11
38	51	5
22	22	3
4	5	5
34	35	2
73	73	4
168	169	2
35	35	8
143	144	2
41	41	4
66	66	1
121	121	8
114	115	1
107	109	3
0	3	3
24	24	6
105	105	11
163	164	4
27	28	1
55	55	6
22	34	2
42	167	1
84	105	3
98	103	1
77	84	2
9	9	8
101	110	2
25	52	1
119	119	6
149	149	6
34	34	4
49	49	4
48	48	3
148	170	3
22	23	2
63	63	5
14	15	1
71	71	9
56	109	3
161	162	1
130	131	5
8	10	2
127	135	3
19	19	5
154	155	5
2	2	8
146	146	5
76	77	1
74	74	9
86	87	4
100	121	1
151	154	2
16	17	4
58	58	2
84	85	1
91	93	3
159	159	9
169	169	5
23	23	3
124	124	4
105	108	3
106	109	3
90	91	1
87	87	4
12	17	1
18	18	6
125	125	5
64	64	5
106	106	13
148	148	9
5	19	1
40	46	6
41	76	1
150	150	8
105	112	1
108	108	12
80	80	1
25	25	8
102	102	5
165	165	5
109	109	5
163	163	4
79	79	4
120	122	2
131	131	8
157	157	2
97	100	1
105	110	4
47	55	2
144	144	3
99	112	2
5	6	3
133	133	4
17	18	6
28	28	1
1	44	1
142	143	3
105	143	2
102	113	2
21	22	4
73	91	2
100	100	3
17	48	3
98	98	7
68	69	4
24	50	1
162	162	3
8	8	7
48	49	2
99	99	6
116	116	6
84	84	7
105	107	1
112	112	3
12	12	2
1	2	2
140	140	5
88	88	4
75	75	5
53	53	8
142	142	1
83	84	2
116	126	1
78	78	1
127	127	1
43	44	1
71	80	4
47	49	4
132	132	7
138	138	2
139	139	7
13	14	2
143	159	6
9	45	2
52	52	2
144	167	1
126	168	1
128	150	2
107	137	3
49	102	1
158	158	8
45	159	2
85	87	1
144	145	2
42	43	3
43	43	5
165	166	1
16	16	5
160	160	4
128	149	2
65	65	4
123	123	4
128	129	2
27	27	4
142	159	2
116	120	2
67	67	1
96	96	7
56	110	1
134	135	2
123	126	1
155	155	3
157	158	2
137	137	5
84	88	3
42	90	1
135	135	3
13	16	1
129	135	1
122	122	1
22	44	1
77	78	2
15	16	3
72	73	1
81	81	2
150	155	1
117	117	2
140	141	4
129	130	2
39	39	4
111	111	3
117	119	2
97	98	2
45	45	5
134	137	1
48	131	2
105	106	2
170	170	4
73	74	3
38	39	2
99	122	3
168	168	1
25	26	1
67	111	2
7	8	1
75	114	1
10	20	1
114	116	1
129	129	1
107	107	5
14	14	2
16	132	1
67	108	2
20	21	3
157	167	3
137	138	2
79	99	1
167	167	4
143	167	1
33	34	1
7	45	1
113	114	1
4	4	4
83	118	3
46	46	4
97	97	6
157	168	1
49	98	1
74	75	2
62	62	1
123	143	1
72	91	1
82	82	1
73	76	2
6	6	2
138	139	1
114	114	1
131	155	1
20	24	2
116	138	2
38	134	2
20	20	2
114	144	3
25	37	2
95	95	1
118	119	1
152	154	1
72	72	4
3	4	3
96	97	1
102	146	2
110	111	1
104	104	1
10	10	1
98	99	1
90	114	1
57	62	1
58	68	1
66	70	1
103	104	2
68	68	3
76	88	1
83	88	2
47	56	1
130	146	1
75	76	1
136	136	1
101	102	1
33	33	2
88	119	1
75	91	1
124	142	1
45	158	1
169	170	1
79	96	1
42	111	2
83	83	2
116	121	1
103	103	1
88	89	1
66	102	1
50	50	1
57	108	1
142	165	1
