73	73	2
34	34	13
52	52	4
145	145	8
130	131	4
152	152	4
141	141	8
71	71	1
96	96	2
144	144	6
31	32	4
127	127	7
78	79	4
76	76	8
66	69	9
69	73	1
60	62	6
110	110	4
176	177	4
186	186	2
60	60	4
193	193	16
180	181	3
157	157	8
175	177	5
56	58	1
95	115	2
162	162	2
151	152	7
109	110	4
68	68	2
44	45	2
39	40	3
63	63	18
139	141	2
187	188	5
133	133	10
30	30	4
65	65	4
181	181	4
128	128	12
31	31	6
8	9	2
131	135	6
124	135	1
63	93	1
89	89	5
118	119	4
138	138	3
121	121	12
29	29	6
176	176	4
123	123	1
173	173	10
173	174	4
184	184	11
113	113	4
147	147	9
159	161	4
39	39	3
120	120	6
116	117	6
7	7	15
87	87	4
28	28	5
159	171	2
84	84	2
153	153	8
162	164	2
43	43	2
97	97	6
158	162	5
134	134	10
148	148	6
9	9	7
104	106	2
24	24	5
151	156	1
79	79	2
100	100	1
95	121	2
112	112	7
177	180	2
101	104	3
146	148	4
118	118	6
55	55	7
150	150	2
99	100	4
27	27	2
61	62	1
104	104	5
16	16	3
179	180	1
32	33	1
156	156	5
34	35	6
58	113	2
4	4	7
22	22	5
109	123	3
85	85	4
125	125	5
61	61	1
131	131	7
118	121	3
107	107	5
161	181	2
152	153	2
48	48	8
45	46	1
180	180	13
14	14	9
116	116	6
69	78	5
68	87	3
53	53	4
99	99	7
126	126	5
196	197	2
63	64	2
125	126	3
40	41	2
98	98	2
86	89	1
49	49	9
75	80	2
108	111	1
13	13	5
82	82	7
25	26	3
171	171	8
183	183	2
178	178	2
60	61	1
140	140	2
77	77	3
29	30	4
189	189	7
61	66	2
18	18	5
62	86	5
95	95	5
135	135	5
26	26	8
121	122	6
57	57	5
178	179	4
26	38	1
19	19	3
170	170	6
112	113	3
186	193	4
147	149	1
158	158	9
128	129	4
112	114	1
146	146	9
161	161	7
143	143	8
88	88	6
187	187	2
131	132	3
149	150	4
21	23	3
83	83	6
193	194	3
39	41	4
56	57	2
32	32	4
94	95	3
56	56	9
67	67	8
17	17	4
37	37	2
41	41	4
35	35	2
174	175	2
134	135	1
161	168	3
149	149	7
6	22	2
25	25	2
25	28	2
119	120	4
69	69	5
58	61	2
44	44	3
25	39	1
81	82	1
163	164	2
1	2	7
131	133	1
166	181	3
86	86	3
77	78	6
115	115	4
58	58	2
62	62	5
64	66	1
154	154	5
132	142	1
191	193	4
101	101	5
11	11	4
20	20	2
42	42	4
103	104	3
81	81	2
3	3	3
48	51	1
190	191	8
115	117	2
51	51	1
118	122	2
70	70	6
108	108	4
13	46	1
155	156	1
124	124	6
98	99	5
74	81	2
77	80	3
89	90	5
185	185	3
0	0	1
130	130	1
82	84	2
162	179	3
27	38	1
50	51	3
10	10	4
189	190	3
38	38	7
12	12	2
27	30	2
23	23	6
169	186	4
3	6	1
129	129	2
0	1	5
123	124	1
194	194	4
173	176	2
71	79	1
45	45	7
20	21	3
196	196	2
139	139	4
167	182	1
59	60	4
66	67	1
3	19	1
167	169	4
67	87	1
100	101	1
76	80	2
106	106	5
36	36	8
62	64	1
195	195	5
7	24	1
137	137	5
41	42	1
8	10	2
177	177	6
50	50	2
166	166	2
119	121	1
169	169	2
140	141	1
15	15	1
6	7	1
84	89	3
175	175	2
78	78	1
62	113	2
59	61	2
174	174	1
6	6	5
102	103	2
74	74	3
181	183	1
143	144	5
155	155	2
2	2	2
17	18	1
80	80	3
93	95	1
14	42	1
117	118	2
175	176	2
136	137	7
26	27	2
13	14	3
191	191	1
4	5	2
5	5	2
33	33	1
102	102	1
142	143	2
164	164	2
194	195	1
46	46	2
7	30	2
8	8	1
185	186	2
73	74	1
169	170	3
114	114	2
156	157	1
48	50	1
167	170	1
144	145	1
154	155	1
151	151	2
56	79	2
191	192	1
54	54	1
68	84	1
87	89	1
163	163	1
159	183	2
72	73	1
30	31	5
159	160	4
158	186	1
105	105	3
76	81	1
167	168	2
75	81	2
72	72	4
175	179	1
64	65	1
111	122	1
44	46	3
43	44	4
80	81	2
117	117	2
108	109	1
172	180	1
28	34	1
93	112	2
107	108	1
84	85	1
197	197	1
54	55	1
24	25	1
96	108	1
142	142	2
22	24	1
55	56	1
165	165	1
110	111	2
20	41	1
97	98	1
56	71	1
21	43	1
36	38	1
169	185	1
111	111	1
