66	67	6
48	48	20
25	25	7
54	54	14
51	65	5
69	69	9
25	60	5
46	46	9
32	32	11
71	72	8
77	77	10
29	30	2
50	50	9
19	20	13
18	21	4
27	58	7
18	18	10
56	56	20
46	56	4
12	13	8
2	2	5
24	24	18
33	33	12
6	7	6
6	6	13
43	43	12
27	28	5
59	61	7
35	35	12
65	66	1
12	14	2
48	67	4
28	74	3
41	42	14
37	37	9
1	1	9
63	63	8
10	10	6
36	46	8
74	74	20
38	38	13
11	11	14
34	36	1
54	55	8
36	36	21
31	31	23
29	61	6
44	45	2
0	0	13
30	60	1
7	7	16
5	5	16
3	3	15
8	9	11
26	27	7
25	26	16
21	24	2
65	67	7
21	22	3
65	65	19
27	27	12
52	67	4
38	39	8
49	49	14
57	57	9
20	20	3
1	2	2
76	77	1
24	25	4
68	68	6
1	6	1
55	55	10
18	19	4
31	52	5
62	62	6
21	21	24
36	37	12
22	22	9
34	34	13
32	38	2
49	50	8
7	10	1
8	8	8
37	40	10
51	51	9
70	71	2
30	30	7
53	55	1
50	51	10
30	61	4
34	40	9
59	60	1
21	53	4
19	28	3
44	44	13
3	4	7
59	59	19
10	71	1
30	68	4
62	64	6
72	73	2
14	14	11
31	50	6
47	48	7
19	19	7
43	44	6
30	31	2
59	68	1
22	38	4
30	65	3
3	7	3
52	53	5
29	59	6
75	75	12
70	70	8
60	60	4
58	58	14
70	72	1
71	71	17
42	43	8
9	9	12
10	11	13
46	54	4
19	77	4
39	39	7
47	47	9
18	72	3
35	36	5
63	64	6
55	61	2
53	53	11
13	13	9
31	57	1
11	12	6
4	4	9
2	5	5
66	66	16
57	67	1
69	70	11
46	47	4
46	55	5
56	64	2
26	69	1
26	26	14
53	54	6
42	42	11
39	40	8
40	41	7
52	52	11
67	67	7
51	58	6
6	14	1
20	26	2
43	51	2
32	34	2
29	29	5
11	15	2
6	11	1
0	5	3
71	73	3
7	8	8
37	38	3
22	31	2
43	46	1
41	41	8
27	30	2
0	3	1
69	73	1
73	73	5
1	4	1
68	69	1
61	61	5
9	11	3
40	40	9
37	39	4
72	72	14
58	67	1
30	62	3
35	37	7
45	45	3
33	34	4
13	18	8
23	23	9
40	42	2
54	56	2
4	8	3
12	19	1
64	64	8
31	37	6
9	73	3
56	60	5
26	57	2
26	29	2
55	56	3
6	10	7
50	52	4
72	76	2
31	39	1
57	68	3
31	40	2
1	5	11
6	13	4
23	24	6
28	28	2
54	57	2
0	1	2
72	74	2
12	12	2
32	39	6
26	28	1
13	15	4
5	6	2
48	49	1
58	68	2
29	60	1
9	15	1
27	62	1
58	59	4
40	51	3
25	59	1
35	38	6
54	64	1
55	60	1
36	38	2
8	10	1
4	5	3
37	41	1
48	51	2
61	62	4
22	52	3
70	73	3
25	53	2
76	76	1
19	29	2
22	23	1
53	62	1
34	35	1
31	68	1
56	57	1
30	66	1
67	68	1
30	63	1
28	76	1
33	38	1
22	24	1
27	60	1
57	59	1
53	60	2
58	60	1
50	67	1
51	57	1
35	39	1
54	63	1
42	51	1
18	28	1
