4	4	2
16	16	5
105	106	1
128	150	4
27	27	5
126	126	3
136	136	11
23	23	15
107	149	3
82	142	1
131	132	4
143	143	4
132	132	8
20	25	6
127	127	3
38	143	3
111	111	5
44	133	1
69	70	1
47	47	4
41	41	9
142	143	4
55	55	3
15	16	2
39	75	3
82	141	2
42	80	3
26	26	5
76	77	3
39	79	2
137	137	3
43	43	7
26	27	4
77	77	7
130	130	10
5	5	7
63	63	2
36	36	5
95	95	5
67	94	1
35	36	4
130	138	1
4	27	5
120	122	6
113	132	4
39	39	6
51	51	3
112	113	2
2	2	3
53	53	2
63	64	1
124	124	2
131	131	3
154	154	3
106	106	6
145	146	5
63	67	6
113	131	3
112	112	6
44	44	11
97	98	4
8	8	4
48	49	6
104	104	1
139	148	3
150	150	6
130	135	1
96	96	8
115	117	1
77	78	3
153	154	3
111	113	4
76	78	2
147	147	3
107	107	4
55	56	3
74	82	1
54	56	5
139	139	8
122	123	4
71	93	4
117	117	2
75	142	2
150	151	6
140	140	5
113	147	2
9	10	1
9	12	2
17	17	2
144	145	3
76	79	3
100	100	2
38	144	1
45	45	6
33	33	3
5	26	2
12	13	7
86	86	1
23	27	1
84	84	3
30	30	1
138	139	3
123	123	4
4	26	2
129	130	5
76	76	4
133	133	5
9	9	1
97	97	3
3	3	2
28	28	3
146	146	2
94	94	1
25	25	2
65	69	1
135	135	2
65	93	1
13	15	11
24	24	8
121	121	1
136	148	2
123	124	3
35	35	2
3	9	4
14	14	1
104	120	3
18	18	1
56	77	4
107	108	4
151	152	1
74	80	2
128	152	7
43	133	4
144	146	2
56	57	1
92	92	1
92	144	3
21	22	2
29	29	3
50	50	6
125	150	2
119	119	3
70	90	2
8	26	3
7	7	3
65	87	1
74	74	4
21	21	5
73	73	7
35	45	1
53	54	2
122	122	5
69	69	4
67	67	1
118	118	3
99	99	1
100	104	4
70	70	4
86	142	3
151	151	2
82	82	5
85	86	4
10	10	1
12	12	1
84	86	2
30	32	2
87	90	1
104	108	2
115	115	4
40	40	3
66	67	2
129	129	6
114	114	3
49	49	4
94	96	2
72	81	1
128	128	2
102	102	2
27	30	2
72	75	2
6	32	5
135	137	1
45	53	1
73	118	3
105	105	5
103	117	1
71	71	2
99	104	2
81	81	1
109	110	1
113	113	1
100	122	1
103	103	1
90	90	4
62	64	1
66	87	1
64	64	1
87	87	2
93	93	2
124	125	2
109	109	1
23	29	3
98	98	1
80	141	1
128	138	2
36	63	3
135	147	3
40	41	1
83	84	1
134	134	3
101	104	1
78	78	2
43	44	2
62	62	1
62	63	1
78	84	1
145	148	1
54	54	1
65	68	1
101	102	1
109	145	1
101	101	1
25	26	1
125	125	1
110	146	1
19	20	1
75	79	1
120	121	1
24	25	1
41	132	1
71	72	1
34	65	1
46	46	1
149	149	1
118	119	2
75	90	1
