21	24	2
20	39	4
131	137	2
84	101	5
79	79	6
145	149	2
102	103	6
142	155	7
101	105	4
21	22	4
63	63	7
141	141	7
80	80	11
127	151	3
176	176	6
43	51	1
162	163	5
161	162	6
91	91	3
85	86	3
89	90	4
97	97	5
58	59	4
105	105	1
114	120	3
26	26	4
148	158	4
10	23	3
74	76	4
105	140	4
90	90	11
91	94	2
112	127	4
110	124	8
119	119	3
31	31	8
67	107	1
75	76	5
32	33	8
133	151	2
75	82	1
149	149	10
91	92	2
77	79	3
152	152	5
156	161	3
68	68	4
51	51	4
158	178	2
13	13	13
109	109	3
75	75	4
36	37	2
41	41	4
86	86	7
174	174	3
53	54	2
19	179	3
164	165	4
44	44	11
155	155	1
55	55	13
101	110	1
83	102	3
130	131	1
166	166	5
145	146	4
170	171	2
74	75	2
26	27	6
3	12	2
30	35	3
59	59	10
115	137	3
42	43	4
144	144	10
114	157	2
15	15	7
72	72	6
131	158	2
142	145	3
129	129	7
33	33	7
32	32	7
44	92	1
135	136	1
93	93	5
152	174	3
19	20	1
61	61	3
71	71	12
169	169	5
8	22	5
132	132	13
145	145	4
1	1	1
114	115	3
5	5	5
54	61	5
38	39	2
65	65	6
160	160	7
130	130	3
157	158	3
146	146	4
97	126	5
28	28	2
33	37	5
24	24	8
162	172	4
19	19	1
135	135	5
123	124	7
78	82	5
20	38	2
22	24	3
134	149	5
169	178	1
73	82	6
1	23	2
127	144	4
59	84	2
117	117	1
99	118	4
150	150	4
78	78	10
167	167	3
112	112	6
94	94	6
27	28	5
114	122	2
153	153	2
153	161	3
51	79	3
131	131	2
116	116	7
10	13	4
125	126	2
37	37	1
131	146	4
42	42	3
83	83	1
22	23	4
113	113	2
95	99	1
158	163	2
14	24	3
71	95	5
127	157	2
28	35	1
168	180	2
118	120	3
25	28	2
27	39	6
137	137	6
53	53	2
3	3	9
134	134	3
10	10	13
174	175	6
133	133	5
121	141	2
133	134	1
16	21	1
5	10	1
5	18	3
151	151	2
58	67	1
29	29	4
142	142	6
4	4	7
119	123	2
80	81	1
168	168	8
70	70	1
125	142	1
4	25	3
57	79	2
143	143	2
150	168	1
127	127	3
0	11	1
165	176	2
163	163	8
81	84	2
118	118	7
121	121	5
147	147	10
124	124	3
63	64	1
155	175	1
146	168	1
71	100	2
25	25	1
128	150	1
74	74	4
36	104	2
67	96	1
23	23	6
60	60	1
11	11	5
27	41	2
85	90	1
125	125	6
7	21	2
109	129	2
159	178	2
19	41	1
9	11	1
11	21	4
8	8	4
6	10	1
130	146	3
4	11	1
73	90	3
163	168	3
68	79	2
7	7	4
145	148	1
83	99	2
166	179	3
74	81	4
88	88	9
67	67	5
148	153	3
96	96	5
151	163	3
8	40	1
32	80	3
27	27	4
111	111	2
30	31	2
102	118	1
161	161	1
159	162	2
11	14	3
104	105	1
172	176	4
87	94	1
64	64	2
91	95	1
61	62	3
163	164	1
129	135	1
124	147	1
86	98	1
54	58	1
52	81	3
153	169	3
171	171	5
20	46	2
179	179	3
129	139	2
126	126	3
2	11	5
93	116	1
139	139	4
114	114	5
111	114	2
178	179	1
109	117	2
150	156	2
34	35	2
146	149	5
159	159	2
92	92	4
114	139	2
76	103	3
144	157	1
3	13	3
43	43	3
169	176	1
100	114	1
112	119	2
55	78	3
173	173	1
137	142	4
155	156	2
6	19	2
21	25	1
154	154	4
71	102	4
41	91	2
26	41	2
1	2	1
6	6	4
172	175	2
18	18	3
140	140	3
164	167	2
154	159	3
25	41	1
41	43	3
143	144	2
178	178	3
138	138	9
62	100	1
0	32	2
49	59	2
52	72	3
145	147	3
82	82	3
0	1	1
165	165	3
15	16	2
58	58	3
45	50	1
97	98	4
16	33	1
66	66	3
35	35	5
78	85	1
126	141	1
76	100	2
94	111	1
117	118	1
10	11	1
99	100	2
98	98	2
115	122	1
38	38	4
108	109	1
165	179	1
7	19	2
99	99	2
92	99	1
45	49	3
40	40	3
101	101	1
52	53	1
83	116	2
14	15	2
136	144	1
96	97	2
135	141	2
9	173	1
172	173	4
62	73	1
170	170	1
106	110	3
45	45	4
54	55	2
131	151	2
106	106	4
95	95	1
160	173	1
82	88	2
114	141	3
87	87	2
44	45	2
57	80	1
12	32	1
96	128	1
28	29	3
74	105	3
77	77	4
1	4	1
109	144	1
12	12	1
162	162	1
31	32	1
38	46	1
154	172	1
109	116	3
167	168	1
73	73	1
134	138	1
139	141	1
16	26	2
72	85	1
9	20	1
23	25	2
126	127	1
104	122	3
57	57	1
146	148	1
114	125	2
164	164	1
169	170	1
116	117	3
59	66	3
56	111	2
150	167	1
151	154	1
114	136	1
3	10	2
134	141	4
2	4	1
85	88	1
120	120	2
50	86	1
131	155	2
122	124	1
102	123	1
128	155	2
73	95	1
93	111	2
1	21	1
83	110	1
70	71	1
34	34	1
23	170	3
103	107	1
2	2	1
68	86	2
30	42	1
4	21	1
35	36	1
154	155	1
55	61	1
73	75	1
102	119	1
60	77	1
115	145	1
165	167	1
82	111	1
90	104	2
127	155	1
122	136	1
80	99	1
161	175	1
108	108	2
5	6	1
84	117	1
82	95	1
171	172	1
36	36	2
176	177	1
136	136	1
15	29	1
39	39	1
133	137	1
172	172	3
157	164	1
128	146	1
6	26	1
13	14	1
171	176	2
152	154	1
20	40	1
168	169	1
79	80	1
14	14	1
50	58	1
57	101	1
9	10	1
146	150	1
7	18	1
163	178	1
71	82	1
61	80	1
115	126	1
153	154	1
