96	96	8
140	140	4
101	126	2
99	105	1
75	83	4
34	34	3
101	101	13
135	135	4
71	71	2
28	28	7
90	90	9
87	87	7
122	122	6
1	1	3
6	112	4
17	18	5
88	89	5
131	131	3
15	15	10
35	35	6
83	83	8
83	85	2
79	79	8
10	71	1
19	19	4
10	11	3
134	134	11
120	120	6
16	16	3
107	121	3
73	74	4
27	35	2
128	129	1
9	108	1
78	78	6
109	109	9
121	121	3
112	112	6
71	96	1
13	14	7
129	129	1
116	117	1
19	21	5
36	36	8
103	104	2
24	24	4
1	31	1
98	98	8
23	26	5
72	88	1
71	89	5
105	120	4
7	8	4
113	114	5
17	17	5
133	133	2
118	119	4
33	33	1
13	13	1
37	37	4
102	128	3
5	5	5
12	12	4
118	118	3
128	128	2
81	82	6
125	125	3
77	77	2
9	131	4
104	111	3
8	8	6
80	101	4
99	100	1
12	13	2
22	22	5
81	81	3
114	115	4
14	14	7
97	97	4
94	94	6
11	12	5
73	73	3
139	139	2
82	82	2
111	111	5
4	4	4
2	3	5
99	99	2
77	88	5
115	118	1
20	20	9
79	82	2
3	3	7
116	116	7
72	89	5
90	91	2
7	7	5
129	130	3
106	106	4
113	113	3
30	30	3
6	28	2
4	33	1
132	132	4
95	95	3
135	139	1
27	31	2
27	34	3
3	7	3
103	117	1
2	2	4
102	102	1
13	76	2
77	89	1
115	115	3
105	110	2
135	136	2
93	93	2
127	127	1
132	133	1
10	77	2
76	82	1
25	28	1
106	117	1
38	38	1
91	91	1
32	32	4
25	25	3
86	88	1
36	111	1
137	137	3
12	76	1
10	10	2
88	88	2
5	127	1
11	11	4
101	102	2
1	11	1
97	98	1
73	76	2
74	77	2
105	105	1
34	35	1
24	25	2
2	10	1
130	132	1
134	135	1
81	90	3
22	24	1
6	6	2
112	113	1
107	108	1
2	12	2
1	28	3
6	27	2
75	77	2
98	99	1
110	120	1
123	123	1
4	8	3
76	76	3
25	111	1
100	100	1
18	21	2
5	33	1
106	110	3
104	104	1
119	119	2
103	107	1
86	119	1
86	86	1
21	21	3
105	106	2
114	114	1
78	79	1
85	89	1
75	75	1
79	80	4
106	108	1
109	110	1
103	106	1
100	101	1
14	24	2
119	120	1
83	87	2
75	78	1
9	9	1
111	117	1
130	131	1
95	97	1
115	119	1
118	121	1
28	29	1
117	127	1
