104	104	15
75	75	13
69	71	3
131	131	4
114	133	1
56	56	7
8	8	29
20	26	2
81	81	5
99	100	3
103	127	3
6	7	10
104	129	3
9	9	8
108	109	10
53	53	16
2	15	4
85	85	17
24	24	25
36	36	6
103	126	1
17	17	7
29	29	9
90	90	5
26	27	1
0	3	3
97	99	5
122	122	11
72	72	6
76	76	21
78	78	5
109	109	13
77	77	21
88	88	13
5	5	25
110	119	1
117	118	7
15	15	7
68	69	8
116	116	5
87	87	11
91	91	14
127	127	10
65	65	12
15	18	1
11	12	1
87	88	7
106	111	1
14	14	5
66	66	8
62	62	2
97	107	4
3	3	17
111	111	4
21	21	5
9	10	10
84	84	3
97	97	16
20	20	24
55	56	2
60	62	2
113	133	4
113	113	14
13	14	4
70	70	10
28	29	2
93	129	9
130	131	5
127	129	8
68	68	6
25	26	10
100	100	7
8	85	5
31	31	12
50	50	20
19	19	6
134	134	10
8	9	8
107	117	1
86	87	5
11	11	13
25	25	8
47	47	5
55	60	6
95	95	5
20	21	12
44	44	8
130	130	23
71	71	15
78	79	10
34	34	8
27	27	1
7	7	10
119	121	2
98	100	1
122	127	8
124	124	11
118	118	8
128	128	7
126	126	15
57	57	7
114	114	9
132	133	5
122	123	12
43	44	8
79	79	7
94	134	3
89	89	7
29	36	1
30	30	18
35	35	12
132	132	8
120	120	2
123	124	6
27	28	6
82	82	6
86	86	6
94	96	4
5	43	3
108	108	7
23	23	4
69	69	10
98	98	12
44	84	1
92	94	4
0	74	2
33	60	5
102	103	7
108	110	3
2	2	10
81	82	5
6	9	5
3	38	1
64	64	8
67	67	8
101	101	8
54	54	5
30	35	4
16	17	9
44	91	4
103	103	10
52	53	6
80	80	17
13	13	7
33	33	12
32	32	5
29	30	7
126	127	1
17	18	5
95	96	6
120	121	9
115	115	14
4	4	10
22	22	6
44	85	1
95	112	7
54	55	1
28	30	3
119	119	7
12	12	6
59	60	3
72	73	3
21	22	6
54	71	2
57	59	2
123	123	13
58	58	8
14	15	3
12	13	2
92	92	7
61	61	15
53	69	2
10	10	11
46	96	5
60	60	9
38	38	5
53	66	5
74	74	4
128	129	2
96	96	9
117	117	10
4	38	3
102	102	2
59	59	6
1	13	1
59	66	3
106	106	4
128	130	1
69	70	2
129	129	3
42	42	5
46	46	5
105	105	7
66	68	5
112	112	9
1	2	5
61	74	4
55	55	4
43	85	3
3	13	1
129	130	8
0	0	9
82	91	7
110	110	10
56	57	2
14	19	3
26	28	1
135	135	4
76	77	3
7	11	2
2	3	3
66	67	4
8	87	3
103	125	7
106	107	2
8	43	5
54	67	4
124	126	3
52	52	8
63	75	3
37	37	2
10	11	1
16	16	6
62	70	2
0	29	4
84	86	3
3	4	9
44	45	2
33	62	5
130	133	1
83	86	2
0	38	2
94	94	8
83	83	4
62	65	2
125	134	1
44	86	7
1	1	7
63	69	4
18	18	14
26	26	4
110	111	3
62	63	2
104	127	3
6	6	3
90	92	1
21	27	3
28	28	2
77	79	1
8	10	5
52	68	2
55	57	2
45	45	3
132	134	1
104	105	5
89	90	4
85	86	4
116	117	2
0	2	1
93	107	3
76	78	3
120	131	1
37	38	4
47	100	1
53	67	3
93	126	1
22	23	4
80	81	3
115	116	1
101	102	2
118	119	2
63	72	2
2	4	1
21	25	2
115	118	1
23	24	3
44	82	4
54	56	3
75	76	2
7	9	1
97	108	2
77	78	1
74	75	4
50	99	5
5	6	1
20	22	2
36	62	2
43	43	1
4	5	5
107	107	1
48	48	2
6	11	2
9	11	4
52	89	1
11	83	1
19	20	1
64	87	1
49	49	7
5	9	2
33	34	2
5	38	1
95	113	2
82	84	1
67	69	2
94	95	2
84	111	1
63	74	2
8	45	3
24	25	1
36	64	1
125	125	1
73	73	2
5	44	3
71	72	1
115	117	1
65	69	1
108	111	1
73	74	3
106	110	3
27	33	1
30	34	2
83	84	1
3	5	1
43	45	1
15	16	2
34	61	1
72	79	1
54	59	1
35	37	1
127	132	2
119	120	1
44	96	1
105	106	1
47	92	1
122	129	4
46	48	1
82	92	1
2	37	1
97	101	1
94	112	1
4	37	1
9	37	1
2	16	1
84	85	1
91	92	2
16	28	1
