183	183	7
188	190	1
107	108	7
108	112	6
159	187	3
43	46	5
135	140	1
146	149	3
123	123	9
24	34	1
130	130	9
175	179	4
30	32	1
138	191	5
69	69	21
43	44	5
117	118	6
144	144	5
46	149	1
145	145	9
132	132	6
191	191	10
75	75	10
3	3	12
187	188	7
34	40	2
26	27	4
21	23	2
180	193	2
15	22	3
34	35	7
185	185	13
81	81	7
23	56	1
38	38	6
80	80	7
192	192	14
87	87	13
158	159	4
15	15	8
0	8	4
12	32	1
122	128	4
37	37	8
86	86	9
142	143	3
106	108	2
174	174	6
11	11	19
166	166	7
68	68	6
15	48	2
119	119	12
48	51	8
114	114	9
10	13	3
195	195	5
1	1	8
17	17	17
184	185	9
175	175	14
112	112	7
150	154	10
63	63	14
164	164	6
46	46	10
21	32	6
165	167	4
53	53	11
10	10	8
8	10	1
40	41	10
62	63	6
3	4	6
24	32	3
101	101	18
167	167	10
138	140	1
161	161	9
189	189	11
98	120	4
9	9	21
57	57	14
188	189	4
141	141	9
154	185	3
79	80	8
128	128	13
139	139	3
75	76	3
64	95	4
1	3	1
71	71	12
135	135	9
25	25	10
175	177	2
19	19	9
96	96	9
171	172	7
153	195	2
17	18	11
149	149	24
4	124	3
49	51	3
153	186	3
178	178	5
56	56	8
33	35	5
117	122	3
82	85	2
186	191	2
153	157	1
18	19	3
180	180	10
169	174	1
154	155	2
101	102	7
157	159	6
110	113	2
145	160	5
19	22	1
94	95	3
157	157	14
66	134	2
152	152	8
7	7	13
16	16	14
39	150	2
58	58	14
80	87	6
36	36	19
117	117	6
46	103	3
45	45	8
13	13	9
103	103	8
132	133	7
136	136	22
97	97	8
19	82	1
55	55	13
7	8	10
12	34	2
163	164	4
38	39	2
40	55	5
33	33	17
142	185	1
170	170	4
161	162	5
44	46	8
137	137	11
130	151	5
102	110	3
108	113	2
68	69	2
158	158	6
186	193	1
99	100	7
134	134	15
65	66	5
137	139	3
177	178	9
69	70	6
120	120	12
159	159	4
140	140	6
43	43	8
18	28	3
66	66	4
196	196	13
197	197	3
20	20	14
146	146	9
115	130	4
70	71	2
109	112	7
31	31	6
143	144	6
83	84	2
165	166	7
191	192	7
112	113	6
179	179	9
39	58	2
149	154	2
172	173	5
10	14	5
135	139	2
82	82	7
107	107	3
61	61	4
50	50	8
28	28	5
47	47	7
33	57	2
30	31	2
74	74	2
180	191	5
83	83	4
71	74	2
172	172	11
27	28	5
18	18	7
21	21	8
111	112	2
47	49	3
94	148	7
60	60	6
88	88	5
190	190	1
5	9	3
166	170	5
141	149	1
42	55	3
0	0	9
173	173	12
27	32	4
170	171	1
173	176	8
99	107	1
22	22	12
129	129	10
30	33	1
66	67	3
6	45	4
177	177	7
20	22	2
49	49	7
68	71	8
102	103	6
182	182	14
84	84	9
119	186	3
12	12	13
169	169	12
94	94	7
135	137	1
29	30	3
75	84	6
73	73	6
59	65	2
102	102	9
155	189	2
127	128	2
142	144	9
170	174	1
55	56	6
156	162	5
106	110	2
125	125	6
13	50	2
160	193	2
150	150	8
110	110	6
109	110	5
53	64	1
115	115	4
1	131	4
147	151	4
181	181	7
20	24	2
186	186	12
82	83	2
118	118	11
102	107	2
194	197	5
39	39	8
100	101	2
109	109	5
175	180	1
48	48	20
79	79	9
73	76	1
127	127	9
116	116	5
33	39	3
19	66	3
168	168	8
6	6	9
25	32	3
72	72	11
184	184	14
16	17	1
48	49	7
34	34	2
27	164	5
138	141	4
67	67	7
144	145	4
130	150	1
1	2	3
11	12	6
30	30	11
52	56	4
154	154	6
33	37	3
2	7	5
46	47	3
47	55	1
51	52	3
9	10	1
81	84	9
111	115	3
4	5	4
7	9	2
103	108	2
188	188	7
13	86	1
76	77	2
98	99	2
33	36	1
173	184	6
155	158	4
142	145	1
143	174	1
29	29	6
128	156	2
117	171	3
79	136	1
68	72	1
6	8	5
2	2	7
17	56	4
111	111	7
41	41	2
12	13	3
189	190	2
132	148	1
122	122	8
160	160	6
25	26	7
64	64	4
171	171	4
142	142	3
107	119	3
123	128	1
112	115	2
89	89	9
23	24	7
187	189	1
11	17	1
102	137	4
122	124	5
176	176	13
24	33	5
125	127	2
30	68	2
167	168	2
105	110	1
0	5	3
39	43	6
80	81	2
28	29	2
5	5	9
125	126	5
168	171	2
85	86	4
5	37	1
195	196	2
59	59	6
6	28	1
155	159	2
196	197	2
44	59	5
186	187	9
54	59	4
50	51	2
70	70	16
40	45	2
19	60	2
159	186	4
163	169	1
124	169	2
17	23	4
47	50	1
131	131	2
192	195	2
26	26	14
183	184	3
20	23	2
4	4	4
99	99	13
8	8	6
169	193	4
100	100	3
44	44	6
76	76	9
23	28	4
122	191	1
39	151	3
139	140	4
78	78	5
75	77	1
78	79	1
22	23	2
20	30	2
138	138	3
17	133	1
0	1	4
14	14	9
162	163	3
17	60	2
58	63	2
105	111	3
119	124	1
159	193	3
17	19	1
108	121	1
170	172	1
81	82	5
42	42	9
13	16	3
121	121	2
24	25	2
53	54	7
129	130	2
191	197	3
120	123	2
126	129	1
124	168	2
174	178	2
103	157	2
155	155	9
142	147	1
77	77	1
108	108	4
159	163	1
133	134	7
140	141	1
18	20	2
32	32	6
136	137	3
102	106	1
6	43	2
145	167	1
16	48	3
108	116	2
114	141	3
119	121	1
12	51	2
170	173	3
103	115	3
159	162	1
10	12	1
1	123	3
153	168	2
95	100	1
194	194	8
93	97	3
28	68	6
115	116	7
182	183	5
165	189	1
31	36	2
151	153	3
146	154	2
54	55	2
143	143	10
130	131	7
169	176	3
105	105	5
98	98	3
173	180	2
159	160	3
181	182	5
119	120	1
70	74	1
174	189	3
130	133	4
40	40	12
6	7	2
184	187	2
33	47	3
38	42	2
157	163	7
58	59	2
44	45	4
145	146	2
176	177	1
117	172	2
18	31	6
23	23	8
52	52	13
176	179	4
5	34	3
106	107	2
162	162	6
26	30	1
40	43	5
156	156	9
132	159	3
33	45	2
116	117	2
38	43	5
35	146	1
85	85	8
37	146	4
120	121	2
31	45	1
78	84	4
35	161	2
114	149	2
126	126	4
151	154	3
102	104	1
149	150	5
51	51	8
124	124	5
81	145	2
15	54	3
27	27	5
4	35	1
150	153	4
17	31	1
4	52	2
41	42	5
94	147	1
83	87	1
122	126	2
150	157	4
60	61	3
60	62	1
122	123	6
93	93	1
116	189	5
62	62	5
101	107	2
113	113	6
136	140	2
155	160	2
88	89	2
0	2	2
64	65	3
49	59	3
47	117	2
47	48	2
35	35	7
77	79	4
134	135	1
144	160	1
97	98	4
48	69	1
13	85	2
164	167	2
67	68	3
50	55	1
50	52	3
24	24	6
82	84	2
134	136	2
19	130	1
63	134	1
72	77	3
95	95	3
76	86	1
5	36	2
99	101	1
163	167	4
80	83	1
15	19	2
93	101	1
166	169	5
39	104	1
99	103	2
8	11	1
108	110	1
138	147	2
7	177	1
121	124	1
181	186	2
53	55	1
19	24	3
0	33	2
32	129	2
106	106	7
95	96	2
107	110	2
45	48	1
130	147	1
109	111	2
160	180	1
5	8	4
118	139	4
8	90	1
141	194	2
103	106	1
141	145	3
123	127	3
6	13	1
54	54	3
85	87	3
119	189	3
76	79	1
123	145	5
164	184	1
65	65	4
71	77	1
35	36	2
34	38	7
170	186	3
119	140	1
165	165	4
46	52	2
53	65	3
20	77	1
124	127	2
42	58	1
5	6	2
153	153	3
153	169	2
54	69	1
127	130	1
159	161	1
17	68	3
1	12	1
38	150	1
5	11	1
111	184	1
190	197	4
143	157	2
25	40	1
121	140	1
151	151	1
6	18	4
81	83	1
154	159	3
55	62	1
181	183	2
119	122	4
43	50	3
133	133	3
143	146	2
59	60	3
104	105	3
185	191	2
32	33	2
37	147	1
154	156	4
32	46	1
45	149	4
114	120	2
0	147	5
12	48	3
109	120	1
99	102	2
169	170	2
74	79	2
148	148	1
16	86	2
106	119	1
18	22	2
42	43	3
164	165	2
61	62	2
102	139	1
119	141	1
12	89	1
123	161	2
105	106	5
33	34	1
52	54	1
188	191	2
104	104	2
161	174	2
170	180	3
31	75	2
126	194	1
54	58	1
161	186	1
163	163	1
111	114	1
178	181	1
172	174	2
101	197	1
144	168	1
59	62	1
46	48	2
104	106	4
32	156	3
158	166	1
10	11	2
78	87	2
111	123	2
128	129	3
32	52	3
46	64	1
4	21	1
28	87	1
56	68	1
108	181	1
119	192	1
178	179	2
20	21	1
25	27	2
123	124	1
133	146	2
161	188	1
62	70	1
22	24	1
116	192	3
43	59	1
59	61	2
1	130	2
10	125	4
93	96	1
187	190	3
113	118	1
89	111	1
35	40	1
114	118	1
155	163	1
151	182	1
41	65	1
27	29	2
65	68	1
17	54	1
105	124	1
138	139	1
176	180	1
119	191	1
156	159	3
147	147	4
2	4	2
152	158	1
103	140	1
16	21	1
125	145	2
146	148	2
52	53	3
88	126	1
129	131	2
4	34	1
0	34	1
144	146	1
98	149	1
193	193	4
16	20	2
16	18	1
130	135	1
11	16	1
13	17	1
35	72	1
146	150	2
102	194	1
135	141	2
57	68	1
153	164	1
117	123	1
121	129	1
174	175	2
77	83	2
152	153	1
90	90	1
8	133	1
45	46	1
19	83	1
116	128	2
156	157	1
146	156	2
17	20	1
152	161	3
146	147	1
81	144	1
30	50	3
187	191	1
22	27	1
104	140	1
71	79	1
122	127	1
11	15	1
193	197	1
28	30	2
34	36	1
101	191	1
12	16	1
81	87	1
63	64	1
66	69	1
129	133	1
131	132	1
71	72	1
39	105	2
49	50	1
93	113	1
173	174	1
3	9	1
31	47	1
159	177	1
66	68	1
133	138	1
71	73	1
113	114	2
2	43	1
100	103	1
51	54	2
29	87	1
104	115	2
142	165	3
21	25	1
13	14	2
102	134	1
8	34	1
39	40	1
7	12	1
17	35	1
148	154	1
187	187	4
9	14	1
111	155	1
84	86	2
28	32	1
8	12	1
32	89	2
160	161	1
40	44	1
10	18	1
115	147	1
35	160	2
143	173	1
143	158	1
33	38	1
34	122	1
130	132	1
74	75	1
185	186	1
86	89	1
128	194	1
108	109	1
56	111	1
147	148	1
81	85	1
15	16	2
27	65	1
37	145	1
152	154	1
151	152	1
