62	62	17
70	75	5
83	83	7
13	93	3
131	131	14
29	29	14
19	20	5
13	13	15
91	91	13
97	97	11
55	58	6
4	83	2
6	6	20
71	72	3
63	68	1
63	63	17
99	99	27
127	127	13
124	124	17
1	1	9
24	24	25
10	11	5
21	21	19
9	9	12
120	120	10
103	103	7
80	80	11
54	55	2
68	68	12
28	28	18
22	27	5
0	1	2
9	11	4
72	72	20
126	126	8
20	20	13
24	38	2
57	57	12
90	90	23
14	47	3
2	24	3
80	85	3
44	44	10
59	59	12
23	23	10
88	92	1
33	34	4
55	55	6
89	90	1
6	47	2
10	10	13
92	92	33
102	102	16
71	104	2
119	120	6
17	18	4
116	116	12
63	77	2
111	111	12
30	30	18
48	50	5
52	52	11
100	112	2
27	27	16
68	69	1
84	84	8
106	106	14
86	86	9
93	94	7
0	79	4
113	117	5
5	5	11
11	89	3
101	101	14
57	66	3
4	80	2
6	7	3
5	6	4
87	88	3
103	126	4
62	75	2
134	134	13
70	70	10
15	93	1
36	38	1
34	34	14
7	61	4
87	87	5
79	80	3
105	105	11
20	92	1
45	45	4
112	112	15
132	133	7
35	35	18
103	114	4
90	92	2
4	7	4
16	20	3
113	113	10
74	74	6
92	97	3
131	133	3
77	77	5
104	104	15
94	94	13
94	95	5
108	108	12
71	105	4
38	38	4
129	129	7
121	121	16
32	32	9
33	33	17
132	132	4
53	53	10
54	54	11
123	123	12
59	90	2
118	118	10
31	31	10
11	88	3
52	54	9
4	4	8
16	16	5
99	100	1
100	129	8
15	15	6
122	124	2
126	127	4
81	87	3
78	79	7
115	115	8
85	88	2
117	117	8
104	105	2
59	64	1
71	71	10
37	37	7
129	133	2
86	96	2
67	68	4
98	98	8
23	24	3
25	81	1
43	79	6
8	9	5
15	91	5
50	117	2
106	112	5
43	43	7
125	125	7
106	129	3
49	49	2
64	64	10
5	14	1
112	116	1
7	8	9
27	28	5
22	22	6
115	116	3
76	76	9
69	69	9
44	45	4
95	95	10
65	65	17
133	133	4
91	92	3
17	17	5
73	73	13
34	36	1
78	78	9
56	56	12
25	25	12
24	25	3
3	39	5
48	115	1
85	85	6
106	107	6
131	132	1
14	19	4
107	107	2
11	21	3
82	82	3
70	71	1
31	32	2
116	117	1
16	17	1
17	19	4
75	76	2
115	117	4
101	119	2
6	45	2
82	83	7
36	36	4
7	7	11
60	60	20
1	2	6
49	50	1
8	8	2
18	19	2
63	64	9
59	61	2
98	104	4
102	103	2
15	92	1
117	124	2
89	89	13
107	128	2
61	61	8
12	12	17
100	100	2
96	96	10
75	75	14
67	67	5
61	62	5
90	114	1
92	93	4
107	129	2
36	37	1
12	13	2
111	117	2
74	99	1
23	25	3
30	35	2
79	79	6
111	132	2
18	21	2
32	37	2
16	18	2
116	118	2
130	130	10
32	33	4
103	104	2
115	118	4
90	91	4
58	64	3
54	60	2
122	122	7
50	50	2
101	102	2
29	30	2
128	128	6
55	59	1
45	47	1
100	121	2
114	114	3
108	110	2
42	42	2
50	69	3
46	46	4
3	3	6
107	112	2
114	115	2
89	91	1
63	89	3
0	0	6
58	82	3
18	56	2
107	113	1
56	68	2
14	15	3
11	48	3
73	74	5
20	93	2
112	129	1
7	19	2
109	110	3
84	87	1
133	134	1
111	116	1
81	88	1
105	112	2
82	86	1
58	58	6
3	4	3
128	129	3
119	119	16
11	11	4
64	65	2
113	124	2
16	19	2
101	126	1
34	35	1
30	109	2
70	94	1
98	99	4
72	73	1
117	119	3
65	68	1
12	27	1
8	18	4
90	112	3
66	66	2
6	60	2
37	38	2
95	96	2
1	4	3
50	53	5
65	67	1
105	126	1
96	128	1
57	64	1
2	15	2
109	109	4
86	88	1
54	69	5
121	122	2
107	108	1
1	24	5
110	111	3
6	20	4
106	113	1
10	22	3
96	97	2
114	121	1
57	58	2
19	19	3
77	78	5
103	123	1
115	119	3
106	128	1
93	93	3
109	112	2
1	25	1
130	133	1
52	59	2
76	78	2
89	114	2
55	64	1
9	10	4
5	20	3
8	29	1
57	67	2
109	122	1
2	2	2
97	110	1
55	57	1
130	131	2
26	35	1
65	115	3
54	64	3
18	93	3
1	22	1
95	103	1
81	81	2
2	5	1
101	103	1
120	121	1
58	83	1
43	97	2
122	129	1
98	100	1
126	129	1
59	60	1
2	80	1
13	62	1
4	37	1
80	81	1
30	36	1
28	75	1
5	19	1
4	15	1
28	77	2
96	99	1
79	96	1
2	3	2
26	36	1
88	89	1
132	134	2
62	63	3
66	81	2
62	94	1
37	97	2
75	88	2
61	65	1
66	82	1
131	134	1
6	80	1
16	32	1
112	117	1
30	73	1
58	63	1
87	96	2
54	56	1
58	59	1
19	21	2
122	123	1
84	85	1
127	129	2
13	15	1
112	113	1
110	110	1
1	5	2
88	88	1
106	122	1
123	135	1
105	106	1
54	116	2
129	130	1
110	121	1
3	81	1
11	20	1
127	128	1
120	122	1
