104	111	3
12	12	6
18	35	4
39	40	2
134	134	11
129	129	3
39	39	1
113	114	4
58	58	5
56	57	3
98	129	2
119	119	5
70	116	3
73	73	2
81	82	2
78	116	2
21	48	2
100	100	1
97	98	3
117	117	2
81	81	1
32	32	2
97	97	4
62	62	4
25	25	3
111	130	1
78	78	1
132	132	5
80	80	4
33	34	2
8	13	3
111	115	6
118	118	3
93	93	8
3	47	1
112	112	3
14	75	1
14	14	2
0	1	1
31	32	2
57	58	2
22	41	4
57	57	1
121	121	5
6	36	3
22	22	3
75	75	6
27	27	3
96	123	3
38	41	3
23	24	3
101	101	2
85	85	9
68	68	4
4	48	1
26	27	4
110	110	5
44	44	2
95	122	1
26	45	3
79	79	5
59	59	4
25	27	2
103	103	2
112	114	5
79	107	3
123	124	1
96	97	1
23	23	2
93	94	3
4	4	2
21	21	5
46	46	4
128	132	2
17	17	1
122	132	2
107	107	3
63	63	4
49	49	3
127	127	2
110	111	1
74	74	3
13	39	3
67	67	3
105	105	2
128	134	2
40	40	6
77	77	4
16	16	3
92	92	2
0	20	1
48	48	1
72	72	3
98	98	5
115	123	4
2	3	1
43	47	3
80	81	2
45	45	2
46	47	2
60	102	1
73	87	2
6	8	2
90	90	1
88	88	6
106	106	1
77	78	2
84	95	1
16	88	3
14	15	3
24	24	1
131	131	3
27	44	3
108	108	2
112	120	1
69	94	1
36	36	2
15	37	1
126	131	3
123	123	2
130	130	5
109	112	1
40	42	1
13	47	1
31	31	2
116	117	2
7	7	1
61	97	1
40	41	5
61	61	4
76	76	2
117	126	1
95	95	4
101	128	2
66	67	2
58	60	1
125	126	1
107	108	2
82	82	1
37	37	4
89	89	1
127	129	1
116	131	4
55	66	2
118	119	1
18	18	3
4	5	1
8	8	1
125	125	2
9	93	2
34	34	7
96	96	1
129	132	1
93	106	3
80	83	2
120	120	2
3	3	2
91	91	1
105	111	1
87	89	2
129	134	1
63	64	1
91	124	1
117	131	3
28	29	1
84	84	1
116	116	1
103	110	2
25	49	1
64	64	1
70	70	3
28	43	1
124	131	1
115	115	1
15	133	1
20	20	2
128	128	2
66	83	1
9	9	2
105	112	2
4	32	2
60	60	1
44	45	1
70	131	1
80	86	1
86	87	1
75	130	1
122	122	1
18	21	1
9	36	1
58	90	1
30	30	1
45	46	1
108	125	1
4	33	1
126	133	2
68	71	1
