131	131	5
20	21	3
13	20	5
132	133	1
132	132	7
33	84	3
159	159	3
105	105	8
74	79	10
125	125	8
155	155	10
11	11	5
155	160	7
170	170	3
42	42	14
169	170	3
110	110	2
148	148	2
135	135	15
107	107	3
10	10	6
136	136	8
15	16	2
88	88	7
88	90	3
149	151	3
97	97	5
18	20	4
96	100	1
12	16	3
102	102	4
53	53	13
158	158	13
34	34	11
27	28	4
34	35	7
157	157	12
3	3	9
37	37	11
19	54	2
137	138	5
48	52	2
33	33	3
93	93	6
1	1	8
167	168	2
18	19	5
94	95	1
86	86	4
2	2	7
54	54	6
41	87	5
35	36	4
118	118	3
130	133	4
106	106	5
101	101	2
121	121	7
39	40	3
149	149	12
44	44	3
50	51	5
45	46	6
43	43	8
36	37	7
86	87	4
84	84	3
47	49	4
163	163	7
75	85	5
22	22	9
121	123	2
35	35	8
16	16	1
21	22	1
138	138	5
126	126	8
145	145	9
12	12	3
15	15	12
26	28	2
57	57	1
109	110	5
100	100	2
5	5	8
162	162	2
20	20	9
70	70	8
27	27	4
123	126	9
164	165	2
148	151	4
80	80	3
48	49	2
141	142	4
70	74	1
47	50	4
135	136	3
156	156	6
129	130	4
122	122	4
65	65	2
133	133	2
143	143	5
83	83	2
147	153	3
104	104	3
122	123	2
147	148	2
128	128	7
114	158	1
89	89	9
157	158	5
147	147	4
146	146	5
43	87	3
103	103	7
165	165	7
1	2	7
154	160	6
127	127	13
127	158	4
8	11	3
76	76	9
43	44	4
12	15	2
80	81	2
100	102	2
127	135	2
149	163	4
4	5	1
151	151	1
112	159	1
9	9	2
168	168	3
13	15	4
155	156	5
96	96	1
128	129	3
84	85	4
153	156	1
25	27	2
104	105	1
85	85	3
75	76	3
52	53	2
57	136	2
48	48	4
9	10	2
93	138	1
13	14	3
79	79	4
18	26	1
8	8	2
68	68	1
128	150	4
13	13	7
72	74	1
7	7	2
77	80	1
162	163	1
160	160	1
45	45	2
144	167	1
117	117	4
55	55	1
99	99	2
123	123	2
56	56	3
57	140	1
41	41	3
36	36	4
87	87	4
115	115	2
160	161	6
139	139	4
164	169	3
50	55	1
58	58	1
7	9	1
146	149	3
125	151	1
164	164	6
52	55	2
166	167	2
69	69	2
119	158	1
17	52	2
138	139	3
90	90	6
72	72	5
130	130	6
6	6	1
119	119	4
151	153	2
110	128	1
17	17	5
78	80	1
102	146	3
70	71	2
98	99	2
5	6	2
111	111	4
63	63	4
38	40	1
57	135	2
112	112	1
129	129	1
65	66	3
57	137	1
134	134	1
109	109	4
70	75	2
82	82	4
125	126	2
107	167	4
25	25	4
169	169	1
88	89	2
101	102	1
67	68	4
158	159	2
3	4	3
79	80	1
121	124	2
37	38	1
152	156	1
116	122	1
142	142	1
76	78	1
38	38	2
165	166	1
131	136	1
41	89	2
0	0	1
40	68	1
54	56	2
168	169	3
14	14	1
95	96	1
108	108	6
92	138	1
19	19	2
116	116	2
79	98	2
64	68	1
140	141	2
4	4	2
151	152	1
141	141	2
108	149	2
77	77	4
83	84	1
19	55	1
152	152	1
150	150	1
16	24	1
77	79	1
47	47	1
66	66	1
106	108	1
48	50	1
103	104	1
43	89	1
17	20	1
47	48	1
0	1	1
119	124	1
58	140	1
131	132	1
98	98	1
142	152	1
110	111	2
7	8	1
113	113	2
51	51	1
140	140	1
81	81	2
44	53	1
137	140	1
133	135	1
96	97	1
106	167	2
153	162	2
147	151	1
13	21	1
163	165	1
89	93	1
82	83	1
101	106	1
93	151	1
64	64	1
94	144	1
56	57	1
92	92	1
44	45	1
74	77	1
101	107	1
68	69	1
112	155	1
159	160	1
