107	107	3
136	155	2
50	51	5
74	74	12
14	14	4
74	75	5
88	89	4
167	167	3
110	110	7
122	122	6
54	54	8
116	116	7
66	66	7
88	88	2
38	38	9
151	151	14
15	15	4
159	173	6
27	28	1
38	51	1
60	60	4
60	62	1
29	30	2
143	143	3
16	16	7
24	25	2
20	22	2
1	4	5
148	149	5
64	64	6
86	87	1
101	101	9
51	108	2
118	118	1
83	83	3
53	53	1
93	93	5
124	125	5
2	2	1
43	44	3
161	161	8
126	145	2
71	71	12
36	50	2
2	43	1
125	125	13
12	12	1
173	174	5
115	115	15
98	100	2
165	165	4
96	96	7
4	6	4
156	156	4
50	50	1
28	32	2
114	114	5
104	108	3
161	163	2
148	148	9
40	40	3
59	59	3
91	91	2
102	103	1
166	167	2
94	94	3
31	31	9
96	97	3
26	27	2
73	73	9
158	158	5
179	179	5
70	90	3
79	79	5
120	121	5
164	164	4
139	139	5
77	77	9
25	30	5
141	141	9
80	80	14
65	65	2
16	17	6
149	149	13
17	17	4
169	170	7
100	100	3
22	27	2
161	162	5
145	145	4
19	19	6
87	88	1
90	91	1
15	18	3
35	35	8
180	180	5
113	113	2
168	168	7
119	119	3
6	6	5
36	44	4
130	130	2
9	9	6
124	124	4
3	75	2
131	132	6
56	56	4
8	36	2
107	108	2
178	178	3
56	57	4
3	3	4
4	5	4
129	170	1
78	79	3
153	153	8
28	28	7
17	18	5
33	33	6
108	108	5
8	8	3
146	146	4
171	171	8
45	45	4
102	106	2
58	58	9
114	115	4
41	42	2
5	5	8
169	169	5
95	95	6
61	61	4
131	131	8
104	104	5
22	22	4
120	120	7
7	7	2
144	144	2
23	142	2
75	75	3
68	75	3
19	45	4
13	14	1
154	156	4
117	117	10
99	101	3
121	121	1
57	57	5
4	4	8
0	0	4
51	52	2
109	109	6
26	146	4
163	163	3
24	112	1
36	36	2
5	8	2
159	174	2
75	76	1
128	129	4
157	174	1
127	127	4
22	23	2
95	134	1
89	107	1
145	148	1
36	37	1
96	152	2
11	35	3
52	53	2
5	6	1
64	76	3
133	133	3
176	176	15
137	137	5
123	156	1
132	132	6
143	144	10
145	154	7
150	150	7
63	63	4
42	54	2
123	144	4
126	129	3
55	55	3
29	29	5
83	86	3
89	89	5
96	154	3
154	154	6
65	81	1
129	129	2
10	14	1
111	111	3
53	54	1
43	43	7
123	123	2
82	85	1
157	160	2
80	81	4
12	21	1
57	68	2
53	65	1
1	1	1
163	167	4
66	78	1
84	85	3
44	44	10
134	134	8
37	37	7
99	100	1
100	101	2
6	44	2
68	68	1
81	82	5
156	164	3
101	102	2
87	87	5
76	76	3
136	136	1
123	124	4
153	171	5
142	142	5
20	21	3
172	172	2
66	80	1
49	49	1
112	112	2
27	146	2
159	159	3
70	70	3
160	160	6
128	132	1
106	106	7
59	130	1
51	51	6
26	26	5
119	121	2
174	174	5
143	145	1
30	30	1
114	132	1
123	149	1
163	164	3
173	173	3
138	139	4
152	152	5
97	133	2
82	82	1
149	150	2
84	86	1
144	145	6
63	108	2
10	10	7
31	125	3
41	41	4
79	80	1
124	127	5
42	76	1
38	45	1
90	90	5
18	18	4
113	115	4
35	43	1
103	103	2
171	176	5
171	172	5
122	151	2
32	32	7
147	148	4
77	92	1
98	146	2
125	143	1
150	163	1
130	177	2
26	125	1
52	65	1
157	157	4
179	180	1
36	71	2
99	132	1
35	39	3
98	98	7
78	78	5
12	16	1
54	102	1
160	161	1
83	87	1
92	92	4
25	108	2
59	60	2
21	21	3
85	91	1
24	24	4
136	143	1
141	143	2
116	117	3
132	133	1
178	179	1
13	13	2
6	10	2
156	159	1
167	168	1
58	65	3
157	170	1
151	152	3
81	81	4
39	39	1
13	21	3
159	168	2
10	11	1
108	110	2
32	33	2
138	138	1
166	166	2
42	42	4
4	41	1
12	13	1
170	170	2
68	74	1
127	167	1
81	87	2
61	65	1
113	114	2
159	161	1
62	72	1
112	122	1
137	138	2
35	50	1
52	52	2
126	127	2
147	153	1
174	175	1
34	45	1
88	93	1
8	45	2
55	58	2
169	175	1
83	85	1
97	97	1
24	105	2
67	67	1
11	12	1
72	88	1
63	66	1
170	173	1
79	102	1
98	117	2
135	136	1
61	63	1
128	128	1
147	147	4
7	13	1
52	55	1
42	43	1
177	178	1
116	118	1
39	40	1
61	73	1
54	55	1
27	30	1
27	27	1
129	132	1
106	107	1
128	130	1
144	147	2
10	33	1
3	4	1
5	14	1
28	29	2
60	64	1
60	61	2
118	121	1
158	159	1
88	94	1
84	84	1
142	143	1
77	93	1
145	152	1
155	155	1
118	120	1
93	94	1
152	153	1
3	43	1
40	41	1
59	65	1
141	142	1
86	86	1
126	133	1
98	116	1
25	25	1
