85	85	9
23	23	8
138	138	2
19	19	8
10	30	5
131	131	6
12	128	1
116	116	9
90	90	5
2	2	3
87	88	5
16	16	12
75	75	6
123	123	2
85	87	7
96	96	3
32	32	17
114	114	11
118	118	4
117	117	3
125	125	3
1	2	4
112	112	13
0	0	15
105	105	1
137	137	8
134	134	12
34	35	2
123	124	2
0	23	3
14	21	2
94	96	6
10	10	8
89	89	3
34	34	13
128	128	19
14	14	8
97	99	2
74	74	5
81	81	8
20	20	6
18	18	4
104	106	1
10	31	1
22	25	4
79	123	4
91	94	1
24	24	3
3	3	2
31	31	7
71	71	13
103	103	6
98	98	6
106	107	7
88	89	4
139	139	9
82	93	3
8	115	3
11	11	6
14	16	2
78	79	2
81	85	5
86	86	5
0	31	1
22	22	7
0	24	3
133	133	2
115	115	8
75	77	3
119	120	3
119	119	12
80	80	3
81	93	3
6	132	2
30	30	12
77	130	3
124	125	1
82	85	4
135	135	12
130	130	6
5	72	3
24	25	3
4	4	12
78	78	5
9	113	3
71	74	4
15	16	4
110	110	2
83	83	3
7	114	1
14	24	2
124	124	6
132	132	2
9	9	3
8	8	4
8	25	6
105	113	3
120	121	4
15	15	10
125	127	1
6	79	1
29	29	6
4	6	3
72	72	8
22	23	1
104	104	8
110	111	6
97	97	7
6	7	1
87	87	7
129	129	1
84	84	6
88	88	5
29	31	3
93	93	5
13	24	1
92	92	1
113	113	6
85	120	1
11	12	7
10	28	3
120	120	14
109	114	2
36	36	10
73	73	6
127	127	3
122	122	6
124	129	2
35	35	6
79	79	10
126	126	4
80	85	1
8	9	1
35	36	2
103	115	2
95	96	1
101	117	2
122	123	2
120	122	1
5	79	1
107	107	5
95	95	7
79	96	1
26	26	4
96	108	3
111	125	2
116	121	3
17	17	1
100	100	2
138	140	2
12	12	2
23	24	3
109	109	7
28	28	9
121	121	5
13	17	3
78	130	1
127	131	1
2	83	1
94	94	6
28	29	3
7	7	9
97	98	2
89	106	5
78	128	2
80	93	3
102	102	2
9	116	1
3	30	4
31	32	2
30	31	4
76	77	3
21	21	2
91	91	5
136	137	1
93	94	2
12	84	1
110	124	1
9	10	2
77	77	2
37	37	2
75	117	1
5	76	2
9	23	2
11	13	1
71	78	1
101	101	3
116	117	3
6	6	4
108	108	4
112	118	1
79	99	1
111	111	1
5	100	1
71	120	2
30	32	3
3	36	2
13	14	2
115	128	1
126	127	1
33	33	2
76	118	1
12	28	4
29	32	4
88	91	1
2	116	1
107	108	1
38	38	3
77	113	1
102	104	3
92	93	2
1	3	1
97	126	1
90	99	1
83	86	1
1	1	1
23	28	1
23	25	1
8	12	1
73	74	1
117	121	1
87	91	1
99	99	1
105	107	3
134	135	1
18	26	1
76	117	1
10	32	1
82	82	1
