125	125	7
137	137	5
60	61	2
188	188	8
83	86	2
55	56	4
86	86	11
83	83	3
100	137	3
149	149	7
180	180	12
56	130	1
2	2	10
162	162	10
114	114	8
157	157	9
175	175	8
152	153	3
142	142	7
89	89	6
115	128	3
134	134	8
6	6	8
30	30	28
63	87	1
58	58	1
102	109	5
101	101	3
161	182	2
36	36	16
176	179	1
88	88	5
94	94	9
96	97	6
19	20	3
173	174	3
61	61	8
112	135	5
37	38	10
113	114	1
148	149	10
174	174	12
14	14	10
175	183	1
104	108	4
163	164	3
63	63	5
35	36	1
169	171	3
95	110	2
90	90	10
20	21	4
56	114	1
87	101	1
32	46	3
173	173	21
93	98	4
79	79	14
15	15	9
28	29	5
93	93	9
92	92	10
177	177	12
96	96	2
159	177	1
121	121	9
87	87	5
178	178	9
57	57	6
170	170	12
102	103	2
121	122	3
116	166	2
118	118	5
78	85	3
47	47	10
138	139	6
64	64	4
184	184	5
29	29	12
89	101	1
84	84	4
113	135	4
18	64	1
62	62	3
140	140	20
148	148	15
5	5	12
136	136	13
21	46	1
159	159	10
84	86	4
70	70	6
168	168	16
18	18	12
141	149	2
123	123	8
59	60	2
52	61	4
68	75	6
178	179	4
76	104	1
82	84	2
13	20	2
65	65	4
85	85	6
104	107	5
183	184	4
113	113	8
150	150	10
32	33	2
53	53	5
98	99	4
52	52	7
167	167	8
19	19	5
172	172	12
189	189	3
94	155	1
160	161	1
40	40	4
102	102	8
131	133	3
154	155	1
44	45	4
109	109	17
104	104	3
44	44	5
155	155	12
105	105	1
3	5	2
6	7	9
76	77	2
80	91	6
95	95	9
174	179	5
75	75	4
6	41	7
63	64	4
26	26	8
0	107	3
34	34	8
16	17	2
179	179	8
27	27	8
111	111	4
120	120	10
56	57	5
39	39	7
43	43	3
165	165	9
48	48	5
46	46	9
171	171	6
91	92	5
158	158	10
31	32	2
16	16	6
190	190	13
182	183	8
144	144	5
150	151	2
112	112	4
7	7	9
138	138	10
67	68	7
76	76	10
122	122	9
185	186	3
54	64	2
61	62	5
143	143	1
69	69	5
67	67	10
115	116	2
91	91	5
80	80	11
95	159	3
11	12	1
100	136	1
133	133	5
103	103	9
124	126	2
56	56	9
44	47	3
38	38	3
94	96	3
144	153	3
129	129	9
95	96	3
62	63	5
4	4	4
108	108	1
166	168	4
139	139	5
160	176	1
22	22	9
17	17	17
30	33	2
118	119	6
145	145	13
113	164	1
127	128	5
55	55	10
115	130	3
3	3	9
98	98	8
41	41	6
99	99	13
25	25	10
126	126	13
110	110	8
4	5	1
6	40	8
119	119	8
146	147	2
48	68	2
57	139	1
119	120	2
122	123	1
72	72	5
151	152	4
160	160	6
95	158	4
111	138	2
18	19	6
167	190	2
142	151	8
166	166	3
165	182	4
77	77	5
163	163	3
73	74	8
81	81	10
84	85	3
111	136	1
114	128	2
141	141	5
1	1	4
165	169	1
8	47	1
3	4	1
19	86	2
18	84	3
59	61	3
97	97	11
106	106	4
57	133	4
169	170	1
112	163	3
24	32	4
59	59	2
116	124	3
151	151	7
82	82	5
93	94	4
18	82	5
58	59	1
117	117	5
90	101	3
58	62	5
94	95	3
130	130	6
147	148	4
12	12	15
76	83	3
6	69	3
147	150	2
153	153	6
99	137	1
160	182	2
74	75	4
13	13	3
65	103	1
100	100	7
35	35	7
24	24	7
20	53	4
116	118	2
112	113	3
9	21	4
28	28	4
135	137	3
153	154	4
135	138	2
185	185	2
124	124	7
107	107	3
176	177	6
141	155	2
117	118	2
93	142	4
170	171	2
128	128	6
127	127	6
133	136	1
159	180	2
156	156	4
172	174	3
164	170	3
164	165	3
8	22	1
169	169	4
115	115	5
136	137	5
113	115	3
24	25	2
15	16	4
103	108	7
62	87	2
10	10	12
25	26	2
7	41	4
146	146	3
131	137	2
25	27	2
123	124	2
12	13	2
64	86	4
162	169	1
181	183	4
98	111	4
17	20	1
3	108	2
0	0	6
78	83	6
56	62	6
54	129	2
147	147	5
83	84	3
105	107	1
2	103	1
132	132	8
29	39	2
83	85	1
75	76	2
68	69	5
66	66	1
66	68	2
55	130	3
155	156	2
161	161	1
65	68	2
114	117	2
21	53	1
90	140	2
109	139	2
79	81	1
110	113	1
82	83	3
161	162	2
76	108	1
78	88	2
73	73	3
32	32	1
148	150	1
29	32	2
134	135	2
96	177	1
171	175	5
124	125	1
23	24	1
184	185	4
181	182	1
57	62	3
162	165	2
9	19	2
113	159	2
13	22	5
157	178	7
110	137	1
34	36	2
131	131	4
111	159	2
143	154	1
41	42	3
140	151	2
188	189	2
58	60	2
169	189	2
186	186	2
156	177	3
187	188	3
149	150	3
160	162	1
31	39	1
95	156	6
187	187	3
20	20	1
74	74	8
60	60	4
61	137	3
21	47	3
120	123	1
158	182	1
186	187	1
72	78	1
80	88	2
54	57	2
162	163	4
177	178	3
37	37	2
174	181	2
71	72	2
31	36	1
133	163	1
87	88	1
19	53	1
5	48	1
79	80	1
109	110	1
128	129	1
111	134	3
5	6	3
154	154	3
182	182	1
34	35	1
142	150	1
141	152	1
8	9	1
165	175	1
160	175	1
54	54	1
92	100	1
172	187	2
142	154	1
11	11	3
141	142	1
63	100	1
14	23	1
10	61	1
95	141	1
47	48	3
63	86	2
42	128	1
88	137	2
118	164	2
114	125	2
45	46	1
95	97	2
66	67	1
33	36	1
0	191	1
112	162	1
175	176	1
75	108	3
77	102	1
62	99	2
151	153	1
21	22	1
176	176	3
43	44	2
48	125	1
118	166	2
0	1	2
36	37	1
71	71	1
114	118	1
90	91	1
95	155	1
79	85	1
82	85	1
54	59	1
124	128	1
152	152	2
112	136	1
56	129	1
42	44	1
10	11	1
55	137	1
108	109	1
30	32	1
83	88	1
23	23	1
172	173	1
39	40	1
135	135	1
114	130	1
123	125	1
3	109	1
174	180	1
93	99	1
14	15	1
7	8	1
110	157	1
101	137	1
12	21	1
183	185	1
158	159	1
113	162	1
176	178	1
115	129	1
159	161	1
11	21	1
