79	79	15
23	72	4
218	218	17
15	15	28
208	208	28
68	113	1
178	178	22
23	23	15
104	104	13
28	74	2
106	106	10
146	146	12
167	168	4
190	209	2
216	221	7
38	39	1
158	158	5
97	97	22
194	195	4
16	17	4
74	74	29
172	172	22
18	172	2
18	18	16
33	58	3
225	225	24
63	63	10
83	83	15
19	19	28
166	166	22
227	238	3
72	84	5
217	229	4
11	11	19
151	166	2
16	19	4
154	155	5
136	137	8
10	10	14
235	236	1
22	22	18
210	211	3
184	185	7
153	154	8
116	121	8
22	33	2
82	82	6
238	238	31
59	75	1
226	227	8
54	76	4
193	194	11
133	133	22
46	47	4
61	84	1
24	146	4
6	7	4
163	163	25
159	159	14
176	186	4
242	242	21
158	159	9
232	233	8
184	187	1
203	204	6
179	179	18
27	32	4
235	237	3
9	62	2
80	81	10
160	160	13
9	36	6
136	203	5
200	228	4
26	26	18
42	97	4
82	86	3
56	56	17
177	178	4
59	86	8
207	207	20
144	151	3
43	43	12
2	2	20
175	175	17
237	237	18
165	176	1
119	119	18
173	173	15
217	218	17
17	28	6
48	58	1
8	12	1
143	169	1
35	35	18
73	73	14
59	83	3
123	123	14
73	97	1
213	213	16
213	216	5
24	25	7
0	14	4
196	208	2
129	129	8
130	133	1
209	209	7
98	99	8
229	231	3
46	113	1
206	206	23
235	235	19
200	201	13
14	14	24
137	139	2
202	202	17
86	86	12
4	4	22
28	113	1
40	45	2
35	36	7
44	44	26
62	62	38
204	207	1
20	20	14
203	203	22
35	45	3
64	64	23
70	70	29
144	144	12
2	14	2
24	24	14
193	195	10
111	118	3
59	60	6
212	215	7
109	109	5
2	6	7
31	32	5
34	34	11
30	30	24
76	76	14
81	82	7
49	58	1
172	173	2
65	65	23
75	75	17
166	168	5
202	215	3
99	120	2
28	28	6
15	16	5
145	145	12
176	179	3
221	222	3
82	83	7
84	84	24
197	197	15
111	111	7
192	192	18
197	198	8
58	58	20
120	120	26
165	178	3
43	60	1
223	224	3
3	4	9
47	49	4
102	102	11
41	41	6
168	170	1
160	171	6
138	138	14
210	210	10
165	166	4
241	242	5
49	50	7
13	221	2
52	57	3
177	177	21
222	222	34
65	172	4
223	223	16
163	168	6
45	59	2
3	238	1
186	187	9
136	157	4
99	99	24
162	227	1
215	215	21
212	212	28
16	16	13
44	60	4
20	24	2
161	161	19
12	13	7
100	100	15
149	151	1
44	51	7
182	190	5
214	214	11
185	185	11
108	108	19
157	157	23
12	12	19
103	107	4
153	171	5
63	64	6
134	134	26
65	68	7
187	208	5
3	21	2
169	191	5
163	165	2
6	6	29
6	28	2
76	212	1
3	46	1
36	66	1
20	30	1
80	80	22
18	223	1
232	232	19
46	46	18
113	114	3
154	171	2
200	202	2
25	25	24
194	208	3
165	171	1
27	41	4
217	217	23
171	171	31
182	182	21
231	231	20
48	50	6
11	20	1
211	226	3
52	52	14
220	220	26
174	174	26
198	201	2
113	113	12
216	241	3
17	165	2
162	186	10
122	122	13
122	134	1
56	57	6
158	170	1
217	219	7
0	3	1
104	105	1
155	157	1
125	125	13
96	96	16
69	69	22
183	183	22
219	219	27
174	185	5
54	69	1
240	240	19
126	127	5
49	49	19
13	14	8
9	9	35
205	210	4
117	117	8
190	190	17
127	169	2
21	21	12
156	156	15
140	140	9
137	137	15
195	196	7
233	233	10
184	186	6
111	126	3
106	107	6
18	65	1
63	108	5
221	221	23
141	142	5
28	47	7
160	161	2
126	126	10
226	229	2
55	55	18
23	36	2
183	189	1
220	240	2
157	159	3
71	71	9
217	221	1
75	79	3
78	78	22
181	181	25
185	194	2
207	211	1
17	34	3
33	34	9
33	33	14
127	127	9
156	161	3
188	189	2
66	69	2
27	27	20
6	14	3
179	204	1
51	51	17
200	200	16
37	37	13
57	57	17
138	155	2
141	141	10
16	20	4
7	8	15
13	13	10
121	121	22
9	218	2
21	45	1
181	241	3
167	167	15
198	198	20
176	176	10
66	66	13
105	106	3
41	56	3
150	150	25
156	175	2
241	241	14
140	158	2
172	195	2
183	185	1
47	98	8
103	104	2
40	40	8
32	40	1
234	234	27
140	141	7
16	27	7
115	115	20
149	152	2
193	193	10
27	60	1
208	212	5
189	201	2
184	184	34
211	211	23
48	48	11
55	57	1
152	153	6
217	222	2
58	61	10
153	153	14
101	101	7
170	170	20
230	230	11
148	161	1
227	227	17
79	85	3
221	223	4
201	202	5
20	58	1
47	47	25
39	53	1
0	4	2
97	102	5
193	226	2
199	200	9
148	148	17
196	196	16
189	190	10
210	231	3
180	180	11
63	212	2
169	202	2
15	237	3
29	30	3
174	175	2
190	205	1
54	55	13
188	201	1
212	226	3
165	168	3
32	32	12
54	86	1
103	126	4
95	95	6
199	199	16
215	225	6
164	178	1
7	15	2
239	239	10
121	140	3
214	215	9
85	157	1
59	59	10
185	206	3
43	45	2
106	110	1
21	165	1
204	206	8
23	85	2
38	38	23
231	233	1
203	217	1
49	52	3
236	241	3
128	180	2
187	187	15
116	116	13
34	58	2
45	52	3
29	29	9
234	235	9
185	191	3
196	197	9
56	58	1
190	191	4
41	54	3
8	69	5
135	136	3
105	105	17
9	238	2
40	41	6
156	157	7
154	154	11
155	155	15
157	158	2
25	27	2
149	149	7
169	169	30
142	208	3
104	127	4
107	137	2
27	73	3
208	225	3
148	149	6
139	139	14
63	65	7
180	183	3
162	163	12
179	214	1
70	75	3
187	188	7
135	135	26
164	165	5
42	48	2
240	241	2
0	15	2
136	136	14
40	69	2
103	103	25
60	60	19
30	36	1
201	201	13
61	69	3
142	142	13
42	42	12
166	167	3
161	162	7
61	62	3
201	212	2
45	47	2
152	152	9
99	100	1
170	173	2
171	182	7
22	23	3
67	67	13
228	228	13
153	163	1
168	197	5
146	147	19
13	32	1
177	202	1
206	218	3
47	201	1
88	88	15
209	214	2
71	72	3
124	126	3
122	138	3
192	193	9
230	238	2
162	162	10
234	237	2
7	10	1
108	109	3
228	237	3
66	86	2
194	197	4
34	35	5
179	208	1
64	232	2
17	18	2
217	225	1
204	204	21
103	129	4
85	86	4
37	43	2
220	221	6
227	228	2
144	208	2
151	151	7
231	241	4
143	151	1
8	8	11
136	142	1
25	29	2
218	235	3
116	153	1
145	163	1
35	40	3
103	122	3
181	182	7
39	39	22
107	127	9
61	61	14
137	138	7
147	147	12
124	124	4
35	55	2
5	9	4
229	229	22
83	97	1
198	199	16
98	98	5
107	107	11
78	85	1
166	170	2
164	164	8
53	53	13
28	124	1
6	68	3
122	129	9
223	239	4
218	240	4
14	28	3
80	85	3
117	134	3
190	204	1
108	124	3
203	214	2
28	131	4
131	132	2
85	85	12
63	73	1
50	50	17
208	216	5
178	192	1
153	158	8
154	169	3
201	203	1
16	37	2
205	205	13
99	144	1
239	241	5
228	235	1
208	220	2
2	3	9
231	232	8
22	69	4
119	126	1
100	102	5
105	115	2
123	137	7
10	129	3
117	120	3
10	25	2
113	149	1
143	166	3
179	180	7
45	45	11
57	68	3
0	1	5
224	224	19
42	218	2
87	87	1
206	210	1
225	226	5
67	68	5
113	115	6
99	166	3
236	236	10
71	124	1
133	134	3
213	225	1
116	117	7
102	107	5
173	175	7
14	16	2
215	218	5
217	226	2
104	120	3
191	191	19
71	75	2
102	135	1
70	71	4
8	9	4
40	54	3
51	58	3
202	227	5
130	130	1
122	125	4
168	168	19
68	69	4
239	240	12
100	101	1
154	164	2
49	59	2
102	127	3
135	169	3
49	86	2
190	203	4
190	193	2
16	25	2
43	47	1
209	210	6
17	23	2
66	85	3
183	184	4
196	199	1
72	72	4
174	211	1
43	240	2
117	118	6
136	139	5
123	133	2
144	226	1
189	202	3
172	176	6
219	224	9
113	178	3
110	110	7
116	154	1
216	216	18
15	70	3
48	59	3
167	170	3
63	69	4
70	79	1
4	5	4
194	194	8
7	7	14
121	150	5
193	205	2
162	175	1
9	26	3
210	213	1
32	85	4
81	81	6
0	0	17
101	102	5
186	186	12
1	11	3
144	171	4
142	143	3
42	131	1
5	5	5
29	31	7
175	195	3
45	56	6
170	181	4
204	205	6
7	31	2
121	122	4
5	6	9
116	136	2
123	124	5
163	170	1
44	47	1
130	131	2
109	110	3
119	120	3
32	35	4
123	154	3
76	95	2
122	127	1
150	151	4
222	236	4
208	233	1
101	111	2
102	110	1
165	165	4
26	35	2
102	111	6
77	77	12
207	208	4
36	36	24
73	86	3
28	75	5
54	54	15
29	46	2
14	39	3
39	97	3
62	68	4
65	71	5
59	238	2
238	239	1
164	167	4
50	56	3
236	238	5
20	209	1
185	200	1
236	237	6
69	70	9
148	207	2
173	181	3
28	51	1
17	33	1
145	146	4
144	146	5
34	43	1
143	146	2
26	71	1
105	152	3
187	235	3
12	15	3
61	64	3
110	149	2
20	26	1
6	9	1
68	68	14
69	104	4
152	175	1
50	51	5
114	114	7
47	153	1
174	184	3
61	70	1
36	43	4
173	174	8
25	172	2
53	55	2
82	84	2
31	31	4
139	140	7
109	128	2
3	5	1
31	39	2
27	31	2
143	144	6
43	51	1
208	227	2
174	186	4
180	204	2
210	227	1
5	17	2
178	180	2
226	226	10
72	86	2
137	149	7
0	11	1
206	207	5
14	222	1
32	86	3
124	125	7
46	68	1
173	185	4
163	164	3
37	57	2
138	140	5
21	22	4
2	5	1
74	96	7
229	230	8
180	181	6
128	144	3
107	126	1
41	218	1
191	193	2
54	71	1
30	31	4
114	121	1
116	124	2
43	50	1
28	42	1
102	103	3
160	166	5
4	21	1
131	131	7
128	128	10
75	83	3
210	212	2
51	53	4
224	237	1
118	120	3
208	209	1
123	140	3
57	216	3
171	181	6
115	116	2
25	26	2
63	71	3
74	76	3
51	57	1
17	17	13
204	224	1
95	109	3
104	125	2
80	91	2
195	195	11
130	134	3
52	53	4
40	42	2
148	162	4
138	142	2
103	239	2
159	160	5
21	46	3
76	77	6
228	229	8
83	107	1
169	174	3
41	42	1
144	148	5
213	228	2
51	56	3
21	23	5
17	67	1
147	168	3
217	220	1
149	155	2
84	95	2
0	7	3
0	6	2
143	143	13
158	164	3
139	147	4
112	128	1
112	180	1
140	201	2
63	79	1
23	33	2
212	213	3
143	153	1
153	160	3
206	215	1
48	61	1
111	112	2
74	75	4
145	148	4
216	237	2
217	223	3
113	118	1
30	65	2
24	155	3
211	228	1
234	236	1
33	61	2
39	40	5
236	239	2
3	3	4
84	97	2
20	83	3
223	241	1
233	234	3
144	166	1
147	152	2
221	237	6
118	136	3
115	118	2
57	64	5
200	212	3
37	44	1
2	241	1
189	189	13
46	56	3
114	135	1
24	39	2
13	19	1
176	177	4
159	174	1
222	229	2
73	241	1
20	41	2
6	35	3
7	140	1
70	85	2
19	33	4
120	153	1
95	101	1
170	171	2
128	131	2
83	84	1
125	129	2
144	149	3
165	192	1
22	83	6
3	25	1
64	65	4
232	236	3
222	239	1
74	81	1
64	80	1
85	89	1
190	197	1
224	226	3
10	242	2
150	160	1
224	241	1
154	159	2
80	82	5
132	132	3
47	48	4
209	213	1
235	242	1
235	240	1
19	230	2
103	162	2
190	199	1
205	216	2
63	125	1
119	125	2
112	112	5
7	60	1
32	100	3
9	12	1
216	217	2
2	8	2
192	196	1
28	130	2
66	71	1
146	209	1
230	235	3
32	62	5
179	200	1
80	108	1
5	15	1
6	19	3
202	214	2
192	214	1
117	155	4
2	13	1
192	211	4
205	207	4
96	179	2
202	226	4
138	141	1
147	169	1
157	190	2
172	177	1
118	118	10
101	110	4
6	22	1
188	188	7
3	7	6
151	153	1
86	105	2
155	156	9
113	152	1
10	222	1
209	216	3
122	131	1
109	113	1
224	227	2
0	13	1
45	53	3
125	131	1
65	66	13
162	165	3
194	196	3
53	54	2
208	219	1
136	143	5
4	13	2
203	212	1
215	216	2
114	115	3
155	171	1
60	61	3
41	97	1
14	15	10
195	213	1
27	44	2
214	216	2
42	73	2
21	29	4
125	126	1
53	72	1
19	35	1
18	19	2
20	22	1
10	17	3
103	108	2
105	116	2
51	52	1
105	140	1
177	185	3
147	148	5
217	235	5
0	5	1
13	16	3
41	55	1
163	175	3
79	80	5
37	66	3
91	91	2
23	27	2
154	166	1
136	175	1
182	183	2
105	237	3
173	182	1
155	207	1
121	169	1
7	126	1
8	13	3
149	159	3
47	61	1
198	200	2
117	133	1
13	38	2
209	215	2
107	125	4
118	125	2
44	46	1
126	152	1
99	134	1
209	211	2
153	183	1
138	192	2
20	21	4
171	180	2
107	108	7
155	162	4
42	44	1
122	168	2
55	60	2
66	68	5
135	147	1
127	153	2
147	163	2
144	159	2
207	216	4
228	231	1
176	190	1
133	140	4
172	182	3
208	210	1
140	142	1
164	186	2
106	122	3
170	187	1
17	83	2
160	162	2
56	61	6
146	166	2
181	208	2
15	32	1
29	113	1
81	83	3
49	51	4
18	25	4
10	124	1
153	155	1
11	109	1
95	124	1
150	165	2
69	102	2
178	197	1
202	205	2
206	217	3
105	112	1
7	21	1
146	164	1
196	200	3
83	101	2
4	6	2
11	123	1
189	205	1
111	128	1
85	97	1
53	57	1
96	97	1
189	192	3
21	41	1
44	56	1
97	240	1
15	31	3
56	59	4
71	90	1
49	201	2
66	67	3
78	79	3
19	171	4
9	10	8
211	212	4
136	168	1
116	118	1
26	72	2
166	172	1
65	80	8
71	85	2
183	199	2
16	22	1
187	195	2
11	71	2
50	55	1
230	231	2
177	197	1
114	118	3
37	45	1
114	129	2
129	133	2
157	161	2
129	130	2
72	82	1
44	201	2
185	211	2
1	6	2
159	161	1
207	226	1
79	84	2
204	242	1
176	185	2
42	43	1
229	236	1
200	207	2
190	192	5
44	233	1
139	141	1
6	222	4
3	26	4
169	170	1
54	56	2
205	212	1
165	172	2
53	85	3
183	211	2
65	72	2
3	223	1
56	60	1
42	45	1
11	133	3
206	238	5
214	227	1
213	214	3
127	139	1
10	12	2
44	45	1
27	28	1
140	225	3
36	49	1
10	20	3
99	175	3
120	132	3
49	72	1
9	25	1
205	220	1
104	129	1
52	58	2
45	46	3
5	14	1
142	211	1
138	139	4
180	198	1
99	115	1
100	103	1
196	210	5
95	151	1
160	193	4
177	200	1
207	215	1
172	183	2
31	109	1
222	224	2
123	141	1
218	239	1
121	147	1
187	189	2
76	84	1
205	208	2
237	240	1
183	200	1
115	133	3
30	32	5
105	170	1
216	218	1
87	103	1
105	120	1
73	116	2
37	68	1
177	189	2
136	140	1
183	202	2
28	73	3
2	223	1
169	177	1
149	157	2
89	89	1
63	83	4
23	40	3
109	126	1
197	209	1
204	213	1
152	159	1
152	169	1
63	91	1
11	12	2
158	160	1
141	144	2
40	139	1
108	123	3
49	200	1
90	91	2
71	73	2
74	83	1
113	127	1
163	194	1
2	7	3
176	189	2
12	221	1
65	88	2
206	208	1
127	138	1
104	130	1
78	84	1
175	176	3
145	167	1
67	74	1
43	46	1
230	239	1
1	5	3
220	222	2
42	54	1
191	192	2
77	78	1
49	74	1
142	161	2
178	179	6
201	205	2
32	38	1
13	31	3
53	74	2
126	130	1
118	123	1
65	82	1
168	177	2
145	151	2
103	123	3
6	36	1
110	158	1
228	230	2
116	120	1
74	89	2
159	168	1
4	16	1
6	205	1
168	191	1
29	131	2
27	33	1
129	143	1
228	239	1
23	24	2
157	186	2
37	88	1
206	211	2
60	67	4
26	30	1
163	167	5
16	50	1
32	41	1
37	65	1
64	85	1
181	188	1
206	220	1
83	85	1
16	18	1
230	234	1
9	11	3
14	230	2
202	203	1
68	124	1
224	225	3
149	154	1
140	143	1
217	233	2
200	211	1
102	126	2
2	22	1
123	131	1
204	210	2
146	153	2
15	222	1
225	229	2
57	58	1
67	79	1
181	232	1
155	160	1
197	210	1
30	34	3
18	35	2
48	53	1
107	110	1
18	50	1
32	55	1
140	159	2
126	133	2
195	208	1
62	67	1
148	170	1
200	224	1
24	32	1
4	17	2
200	203	1
58	60	1
1	1	5
23	102	1
148	156	1
5	21	1
101	112	1
25	41	2
138	156	2
233	237	1
202	211	1
135	142	1
222	223	1
172	175	2
32	33	2
131	135	1
199	211	2
79	81	2
47	59	1
28	46	1
2	63	1
164	191	1
117	126	1
144	145	1
147	166	1
134	139	3
81	108	1
72	78	1
109	136	1
139	192	1
54	77	1
104	107	1
205	227	1
192	197	2
212	225	2
65	170	1
38	129	1
112	129	1
11	16	1
149	153	1
168	179	2
122	141	1
150	178	1
95	97	1
73	77	1
79	119	2
46	101	1
228	241	2
99	110	1
108	113	1
12	22	1
33	36	1
135	203	1
222	240	2
178	189	1
10	13	2
206	214	1
219	237	1
170	175	1
102	121	1
115	117	1
88	142	1
80	84	2
169	173	1
160	173	3
144	227	1
185	203	1
208	213	2
125	128	1
86	99	1
139	169	2
97	101	1
234	241	1
63	66	1
114	128	1
116	125	1
62	63	1
102	119	1
227	230	1
85	96	1
102	109	2
201	207	3
76	236	1
43	44	1
148	155	1
172	178	2
147	164	1
182	185	2
210	214	1
88	96	1
211	230	3
3	39	1
19	41	2
50	52	1
219	220	1
127	128	1
7	30	1
42	58	1
31	110	2
18	204	1
16	21	1
175	183	1
19	169	2
72	80	2
45	51	2
36	37	2
62	84	1
3	62	2
18	20	3
137	148	1
218	219	1
75	76	1
106	169	1
78	86	2
160	164	2
129	134	1
48	49	2
49	67	1
1	8	1
226	236	1
201	226	1
19	220	2
29	84	1
36	48	1
26	69	1
167	179	1
161	172	1
54	64	1
62	85	1
124	159	2
201	211	1
224	235	2
48	55	1
223	240	1
7	9	1
217	237	1
72	85	1
4	14	1
25	32	1
206	233	1
123	158	1
211	229	1
149	150	1
155	172	2
100	121	1
6	13	1
181	185	2
75	108	1
162	177	2
174	195	2
80	83	1
215	227	1
99	181	1
163	180	1
145	159	1
222	231	1
122	123	2
63	68	3
45	60	1
104	140	1
194	210	1
167	183	1
11	24	1
206	221	1
181	190	1
220	227	1
132	133	1
16	48	1
10	41	1
232	234	1
55	159	1
203	207	2
126	159	1
222	228	1
12	17	2
151	152	1
4	30	1
15	20	1
183	187	1
71	82	1
164	172	1
95	107	1
41	130	1
175	199	1
10	11	2
223	225	1
120	122	1
120	124	1
178	198	1
22	162	1
211	213	1
8	29	1
147	172	1
52	54	1
2	21	2
178	225	1
58	69	1
176	183	1
178	196	1
44	48	1
6	46	1
206	216	1
200	204	1
114	136	1
217	234	1
