15	15	8
184	184	6
236	240	1
10	89	2
167	167	2
29	29	6
168	171	2
46	46	8
77	77	3
216	217	2
157	159	2
106	106	3
229	230	2
88	88	3
245	245	3
183	183	3
105	105	2
69	69	5
1	1	2
240	240	4
84	84	5
158	158	7
55	55	6
237	237	4
4	4	3
191	191	2
186	196	2
174	175	2
147	147	4
99	100	3
163	163	6
209	224	2
94	236	2
233	233	1
207	207	4
154	154	1
28	28	4
160	160	3
187	187	6
36	36	3
11	11	6
28	36	2
168	169	2
249	249	1
152	153	3
196	196	2
115	115	2
68	70	3
8	9	5
199	199	8
81	86	1
1	46	2
78	78	5
195	195	4
10	11	2
247	247	5
218	219	2
203	203	3
163	208	1
179	179	2
94	94	1
49	49	2
95	96	2
18	18	1
53	53	3
19	19	7
170	240	1
30	30	7
58	58	4
97	98	2
61	61	2
219	219	2
71	71	2
188	188	4
99	99	2
209	209	3
182	182	3
217	217	7
111	115	5
119	119	5
229	229	3
103	154	1
235	235	6
13	14	3
171	245	1
236	237	3
113	114	3
62	63	2
100	101	3
60	60	2
200	200	1
109	109	1
34	113	3
197	197	2
32	32	1
102	102	3
210	210	3
43	43	5
152	152	4
23	23	5
57	57	4
152	158	3
153	153	1
88	229	4
47	47	1
81	82	3
74	74	5
178	178	3
41	41	4
180	180	3
232	233	2
24	24	3
187	188	3
227	227	4
166	166	5
96	96	2
14	54	2
87	89	5
22	25	2
207	215	3
24	25	7
193	201	1
176	176	4
197	198	2
20	42	2
14	14	2
70	70	2
230	230	3
34	38	3
80	80	1
48	108	1
31	31	4
160	161	5
42	42	2
165	209	3
112	112	1
45	45	1
238	238	6
211	211	2
198	199	5
68	73	2
225	226	2
59	59	4
169	169	4
22	23	3
66	66	5
80	82	1
215	215	4
34	34	5
48	48	3
25	41	1
59	60	4
173	173	3
169	171	1
33	114	2
222	222	3
97	99	3
162	162	1
156	156	4
205	205	3
199	201	3
178	245	1
5	5	1
246	247	2
7	7	2
57	62	2
236	243	1
175	175	2
4	5	1
25	25	2
64	64	1
212	215	3
65	66	1
216	216	4
101	101	1
69	70	3
63	63	5
242	242	3
8	8	5
235	236	1
202	202	4
110	110	2
204	204	2
226	226	1
168	168	3
103	153	1
37	37	1
169	170	2
9	9	2
106	107	2
47	77	2
68	68	1
227	228	3
219	240	2
199	200	1
85	85	2
213	214	1
82	145	2
13	13	1
116	116	3
67	67	4
171	244	1
18	19	2
65	111	1
186	186	1
118	119	1
161	203	2
35	35	1
144	145	1
49	50	1
190	191	2
21	21	3
10	92	2
217	219	2
48	49	1
227	234	1
241	241	2
208	208	1
208	209	2
242	243	2
22	22	2
159	159	2
220	221	1
165	165	3
212	212	1
120	120	2
29	30	1
67	70	2
105	106	1
12	14	1
151	151	2
1	60	1
54	54	1
44	44	1
224	225	1
111	111	1
194	195	2
104	166	1
104	152	1
1	59	1
164	164	1
27	27	1
23	24	2
93	93	2
38	39	1
234	234	1
47	48	2
220	220	1
189	189	2
30	31	1
21	22	1
163	203	1
16	16	1
104	104	1
83	83	1
89	89	1
98	100	1
221	221	1
212	213	1
81	81	1
174	174	1
87	88	1
38	38	1
