47	47	12
57	58	2
41	41	6
11	12	3
1	11	7
44	44	12
28	29	4
45	77	1
24	24	8
32	40	4
25	37	2
9	12	1
36	36	6
1	8	4
30	30	13
22	22	17
20	20	6
1	2	6
24	25	6
69	69	5
39	40	5
26	28	2
48	48	7
54	54	5
32	32	8
49	51	2
20	50	2
4	5	3
75	76	4
31	40	2
64	65	4
29	29	8
10	10	9
43	43	4
27	27	10
11	21	2
27	28	7
61	64	7
1	1	14
43	44	3
36	38	3
13	13	12
63	63	14
7	7	20
30	40	3
70	71	3
73	73	15
67	67	12
65	65	3
23	23	4
9	10	6
22	23	8
56	56	4
27	30	8
56	59	2
11	11	7
19	19	8
61	62	6
70	72	6
62	62	13
68	69	7
25	27	6
34	34	6
51	52	11
3	3	5
47	54	3
38	38	6
39	39	7
53	53	5
61	63	3
33	33	11
55	55	13
46	47	3
57	57	11
11	13	2
54	55	5
7	11	2
4	31	1
67	75	3
71	71	4
77	77	10
48	49	4
64	64	6
63	67	4
24	27	2
25	25	4
48	51	1
72	72	4
8	10	7
41	42	5
33	34	4
63	64	4
31	31	5
45	45	6
48	52	2
23	24	3
45	59	1
36	39	1
29	58	2
51	51	8
14	50	4
0	0	2
8	9	3
18	18	5
2	2	14
15	15	5
6	6	5
28	47	2
68	70	4
66	71	2
19	20	3
59	59	3
49	55	4
46	46	3
76	76	5
8	8	11
4	4	11
12	21	3
19	55	1
38	39	4
73	74	3
61	67	4
33	43	1
18	19	2
61	66	1
50	50	5
5	5	2
56	57	4
49	49	3
48	54	6
68	68	6
20	22	3
28	28	5
74	75	1
32	43	3
62	63	1
75	75	1
61	61	3
3	52	2
66	72	3
12	12	8
70	77	2
59	74	2
70	70	4
22	76	2
1	3	2
71	72	2
61	76	5
2	9	5
73	75	5
52	53	1
28	58	1
74	77	3
26	48	3
30	69	2
3	4	1
40	40	6
54	56	1
25	36	4
35	35	6
57	73	1
72	75	3
74	74	2
6	14	1
36	37	5
42	42	3
57	59	1
59	73	1
2	3	2
26	29	3
70	75	3
20	54	2
5	13	1
66	66	3
34	43	3
61	75	2
35	36	1
44	69	1
26	26	5
61	68	1
64	66	1
70	74	1
35	39	1
18	50	1
60	60	2
58	58	4
34	42	1
35	42	3
32	39	2
60	67	1
0	20	3
49	50	1
48	50	1
6	7	1
30	77	1
51	53	1
37	38	2
30	31	1
61	65	1
2	13	1
21	21	3
65	66	1
22	24	1
47	55	1
22	25	1
56	58	1
53	70	1
37	37	2
31	32	1
60	75	1
51	72	1
72	74	2
52	76	1
41	43	1
