96	97	4
85	85	7
8	135	1
107	107	4
103	103	4
128	128	11
58	58	7
98	98	5
121	121	9
131	131	4
34	34	3
84	85	1
40	40	3
23	47	7
130	130	6
42	42	7
1	1	6
9	9	7
69	71	3
101	101	5
116	116	9
77	77	5
69	69	4
51	51	7
134	134	3
61	61	7
50	50	5
141	141	6
51	139	5
125	125	4
56	56	12
18	18	3
32	33	1
73	73	2
23	23	3
65	66	6
145	146	1
123	123	2
95	95	6
16	16	2
43	43	8
36	36	2
70	70	5
26	26	6
114	117	3
64	64	7
68	68	5
0	0	2
8	8	7
49	50	2
96	96	9
128	132	2
19	19	3
20	21	6
144	144	3
38	38	7
97	97	1
107	108	4
138	138	2
143	143	1
112	112	4
99	101	4
122	135	6
75	78	2
137	137	6
71	71	2
87	87	2
127	127	9
50	52	4
99	99	4
118	119	6
140	140	8
24	24	6
66	66	1
116	120	5
117	118	2
120	120	7
69	74	3
53	73	4
48	48	9
66	84	1
60	61	4
77	78	2
3	3	11
104	104	12
124	124	6
33	33	7
138	139	1
65	96	5
52	53	3
59	59	7
86	87	1
82	84	5
93	94	7
0	43	3
86	86	3
2	37	1
80	80	4
60	60	4
99	102	3
6	29	5
81	82	2
10	10	5
78	78	8
102	102	6
25	25	2
114	118	3
109	109	7
74	74	5
114	114	7
130	133	4
52	52	5
30	30	3
122	123	2
113	118	3
59	89	1
101	102	3
57	57	7
76	81	2
21	21	3
136	139	1
100	100	1
28	29	2
92	92	2
126	126	2
136	136	2
142	142	5
100	125	2
135	135	2
80	81	3
89	89	5
81	90	3
63	64	1
8	9	3
11	11	2
76	106	1
41	42	1
91	92	1
51	52	1
71	76	2
55	56	1
113	114	1
6	6	1
41	41	3
121	123	1
117	117	5
35	35	3
16	17	2
91	91	5
105	106	3
145	145	1
131	132	1
115	116	4
17	22	2
58	89	5
11	49	1
32	59	1
139	143	1
110	115	3
88	88	3
14	14	6
28	28	5
97	108	5
5	5	6
105	105	1
23	46	1
93	93	1
2	40	1
65	65	4
66	67	2
35	37	1
75	76	1
115	115	4
81	81	4
62	63	4
139	139	4
142	143	6
116	117	1
129	129	3
12	12	2
57	81	2
78	79	3
33	34	1
22	22	2
131	133	1
53	53	1
67	67	4
69	70	1
5	26	1
121	124	2
90	90	3
62	62	4
1	2	1
55	55	1
72	73	3
137	138	1
30	59	2
127	128	1
6	27	2
51	128	4
121	129	1
126	132	1
103	104	1
113	119	1
63	63	3
6	26	1
17	17	3
0	1	1
2	5	2
92	93	2
29	29	1
49	49	1
85	109	1
60	84	1
1	5	2
31	31	3
27	27	2
108	108	2
2	4	2
132	134	1
124	125	1
129	130	2
74	75	1
27	29	1
98	115	1
20	31	2
108	109	1
67	69	1
39	39	1
113	113	3
38	39	1
114	115	2
37	37	1
19	21	1
76	76	1
146	146	3
79	79	1
55	66	1
70	72	1
104	107	1
10	49	1
97	107	1
59	92	1
84	84	1
