93	94	1
74	124	5
71	72	1
74	76	7
60	61	7
96	104	2
134	134	6
53	53	2
97	99	1
106	107	9
78	82	3
138	140	2
135	136	2
120	125	6
37	37	7
14	14	5
101	101	12
2	66	2
74	79	1
24	24	4
98	98	10
50	51	4
85	85	7
140	140	11
70	70	3
48	49	4
57	59	4
65	71	2
116	116	8
5	5	14
39	39	2
75	81	2
20	20	5
75	75	11
87	89	2
17	18	1
104	104	15
60	60	11
0	1	3
11	11	4
38	38	3
53	83	2
32	34	4
57	57	6
67	68	7
66	66	1
80	86	3
74	74	11
81	81	7
1	47	7
90	91	2
87	104	2
40	40	8
102	102	16
84	84	3
117	120	4
77	77	8
69	69	8
118	118	5
133	133	6
102	107	2
95	96	7
88	88	4
29	29	4
122	128	3
93	95	6
29	30	6
88	89	5
118	120	6
28	28	4
1	4	4
109	110	2
54	54	4
33	33	6
130	131	1
142	142	1
58	59	4
28	82	2
131	134	2
102	103	1
25	28	2
57	62	1
19	19	9
121	121	1
3	3	3
143	143	4
71	71	7
136	139	3
78	79	3
97	97	6
137	140	4
126	126	14
25	25	2
117	117	6
55	55	10
109	124	2
119	119	6
10	12	1
86	86	7
16	16	6
68	69	3
63	63	6
131	133	7
6	8	2
52	53	4
139	139	11
123	123	5
127	130	4
136	136	4
37	38	3
114	140	5
32	33	3
78	78	1
50	53	3
122	123	4
59	61	2
93	96	5
5	8	2
72	72	6
8	8	12
27	27	8
138	139	1
127	129	3
52	52	6
13	14	3
51	51	4
80	80	2
105	105	6
61	64	3
126	127	2
57	58	5
68	71	1
122	122	5
125	126	2
12	12	2
128	131	2
100	126	2
112	112	3
107	107	5
22	29	2
115	115	4
94	94	5
82	83	3
65	65	2
62	63	3
15	15	3
132	132	5
35	35	3
134	136	2
11	13	3
94	116	4
131	131	10
25	26	2
82	82	4
39	47	2
3	132	4
114	114	4
129	135	2
137	139	2
128	133	1
140	141	4
125	125	5
124	124	6
51	106	4
115	119	4
96	96	5
90	90	7
36	43	1
89	89	2
67	67	10
31	32	2
20	21	4
2	3	1
102	108	3
69	77	2
1	37	2
134	139	1
17	17	2
80	82	3
13	16	1
8	10	1
136	140	1
76	79	4
48	48	1
6	12	6
35	108	2
34	34	3
87	90	5
78	85	2
96	105	2
48	50	5
130	130	5
13	13	4
129	129	2
50	50	4
82	84	3
34	122	2
41	41	9
112	113	1
76	125	1
109	109	5
38	39	1
42	42	5
110	110	3
76	76	4
0	0	3
77	78	2
108	108	1
118	122	3
67	69	1
55	58	1
124	125	3
11	43	1
22	24	1
27	33	5
144	144	4
99	99	4
83	83	2
55	61	3
32	36	5
19	21	5
47	105	1
6	9	2
93	93	7
141	144	4
129	141	2
133	140	2
79	79	1
63	71	3
73	73	4
118	119	1
97	101	3
51	138	3
117	122	4
105	107	2
114	117	1
116	117	1
100	100	2
119	120	1
74	77	3
41	42	1
33	34	1
14	15	2
114	118	3
138	138	1
73	74	1
36	37	1
120	120	1
53	115	1
55	57	3
9	10	1
21	21	5
137	138	2
42	74	1
100	101	1
102	106	2
6	6	5
81	86	1
111	127	1
111	111	3
116	118	2
115	116	1
4	9	1
91	93	1
85	86	1
35	58	2
68	70	1
133	134	1
109	111	1
120	121	3
128	128	1
49	61	1
62	62	3
126	130	1
131	132	2
22	22	2
129	139	1
141	141	4
2	2	1
53	54	2
56	58	1
52	114	1
34	36	3
58	58	2
3	4	1
20	22	2
49	49	2
5	6	2
1	3	1
25	34	1
53	141	1
54	55	1
16	17	1
63	65	1
4	4	2
31	31	2
39	40	4
97	100	2
46	48	1
71	79	2
80	81	1
17	19	1
91	91	1
10	11	1
43	43	1
83	120	1
126	128	1
9	9	1
11	28	1
18	18	1
137	137	1
43	96	1
95	95	1
28	29	1
80	87	1
64	65	1
64	121	1
1	80	1
87	87	1
64	64	1
92	94	1
146	146	2
6	23	1
106	106	1
69	70	1
13	15	1
32	32	1
22	30	1
15	20	1
72	90	1
6	25	1
