19	19	17
103	103	14
37	37	12
65	114	2
14	27	2
147	147	6
65	65	3
52	55	2
15	23	2
63	152	1
44	44	10
132	132	15
37	46	2
17	17	7
42	43	1
142	143	2
14	15	1
14	14	8
23	23	7
33	33	5
68	92	5
33	65	2
5	5	11
134	134	12
97	97	11
26	26	6
95	133	7
18	19	2
76	93	3
22	23	12
71	152	2
151	151	8
25	25	9
103	130	4
131	132	8
141	141	7
8	8	3
99	141	1
81	81	8
57	95	6
143	144	4
105	105	5
57	151	3
13	13	17
47	150	5
7	29	5
129	132	1
76	76	9
135	135	14
20	20	9
53	103	5
128	128	23
24	30	2
45	57	5
116	116	6
53	54	4
31	31	21
128	129	7
109	109	1
146	146	1
8	10	1
124	139	5
69	70	4
146	150	5
92	113	2
85	154	1
111	112	3
112	112	10
12	12	8
33	151	1
21	21	9
3	3	5
20	21	3
101	101	7
67	69	3
116	128	2
42	42	6
54	54	3
58	58	4
115	115	5
32	151	3
117	129	2
107	109	3
18	18	11
14	20	4
41	42	6
4	5	2
49	49	6
108	108	13
121	121	6
56	56	9
50	51	2
40	40	3
135	153	2
95	114	8
87	88	8
50	50	10
137	137	3
48	51	7
110	110	10
130	130	7
38	39	6
97	140	1
89	89	3
4	4	5
39	54	2
28	32	2
104	104	6
125	125	3
109	110	4
39	39	11
3	22	1
43	66	3
75	75	2
131	131	6
117	117	5
122	122	5
29	29	14
145	145	8
106	106	10
56	104	2
100	104	1
152	152	12
11	11	6
56	103	3
57	57	9
45	45	7
84	85	1
94	94	14
27	28	5
72	72	12
48	54	2
74	75	3
13	15	9
34	35	2
75	84	1
55	55	6
96	138	3
95	96	5
111	131	5
77	126	6
95	95	6
15	15	5
107	107	6
93	93	1
140	140	5
77	77	5
113	114	7
103	104	4
4	6	5
149	149	15
102	102	7
83	84	3
49	50	2
31	32	5
48	48	4
129	129	11
74	74	1
39	43	2
80	141	1
138	139	4
47	48	2
93	95	3
2	2	1
15	25	2
151	152	2
87	87	6
81	87	5
91	91	2
2	3	2
113	113	7
126	128	4
68	68	7
138	138	7
36	151	2
97	133	1
150	151	8
144	145	3
64	64	3
63	63	3
53	154	3
38	38	10
22	22	4
96	133	2
78	78	8
133	133	7
70	70	3
22	24	4
120	121	5
102	135	1
150	150	12
118	118	5
85	85	7
27	27	14
119	119	5
129	153	7
38	54	7
57	93	1
134	138	2
106	125	1
42	44	3
16	16	3
41	41	11
148	149	2
84	84	5
127	152	2
154	154	3
79	85	4
24	24	8
100	100	6
101	105	2
146	148	1
54	56	1
80	82	2
83	83	4
128	151	1
32	149	2
6	6	2
153	153	9
63	154	6
129	130	3
121	135	1
46	152	1
80	84	1
88	88	2
144	144	10
28	30	2
38	64	1
140	141	3
136	136	7
82	90	5
122	151	2
100	102	5
43	44	3
62	65	3
130	144	3
126	126	3
28	29	2
11	12	2
30	30	4
24	27	2
23	24	1
10	11	2
36	58	4
45	54	3
28	28	5
99	99	4
9	9	4
117	118	6
39	40	1
100	135	1
102	103	1
142	142	3
92	92	5
111	111	4
39	61	5
148	148	9
16	19	4
43	43	8
67	76	1
33	34	1
114	114	3
17	21	2
102	122	1
48	150	2
33	48	1
17	18	2
21	22	3
36	36	2
62	62	5
14	19	1
123	123	2
123	124	1
63	94	1
125	139	2
53	55	2
65	66	1
37	38	1
81	82	5
53	94	1
80	83	5
58	151	2
21	25	2
42	96	4
105	108	2
55	56	3
47	47	6
43	65	3
100	138	2
107	108	2
73	73	1
78	130	1
110	130	2
93	94	2
108	142	2
8	26	1
49	57	3
116	121	2
6	7	1
63	64	1
73	76	2
79	146	1
100	101	2
98	98	5
118	129	1
148	153	2
72	100	1
25	26	2
45	64	2
113	117	2
114	115	2
52	52	1
96	96	5
89	126	1
73	74	1
48	50	2
46	50	1
69	69	2
107	110	1
46	46	1
53	53	3
14	30	2
38	149	2
10	10	7
80	81	3
48	49	3
13	14	4
147	148	3
139	143	3
82	82	1
37	149	5
51	51	2
65	67	1
9	11	1
66	136	1
146	149	1
44	50	1
127	127	1
80	80	2
86	127	1
34	34	2
36	37	2
71	73	1
2	13	1
3	4	1
30	31	1
86	86	1
124	125	1
101	108	1
110	111	2
48	151	1
46	47	2
67	143	1
66	105	1
47	91	2
139	139	1
106	153	2
90	90	1
32	47	2
71	71	1
48	152	1
94	115	1
133	138	1
126	151	1
7	7	2
102	108	1
45	53	1
106	107	1
127	128	1
86	146	1
36	149	1
74	99	1
21	24	1
73	98	1
103	114	1
83	148	1
88	91	1
9	29	1
67	67	2
8	9	1
118	119	1
