64	66	1
23	24	2
112	112	3
116	167	2
29	29	7
36	95	4
158	158	8
118	118	5
52	52	6
157	157	6
147	148	6
94	94	1
3	3	4
61	61	6
34	34	9
126	126	5
6	13	3
124	125	1
118	119	2
10	10	11
106	106	5
76	76	6
26	27	3
148	148	6
130	130	7
125	125	6
141	141	4
114	127	3
70	70	4
39	64	1
57	85	1
128	128	2
95	95	5
43	43	4
127	127	4
12	12	9
160	161	4
154	154	7
33	33	5
168	168	4
76	86	3
19	19	5
56	56	4
64	65	2
30	30	6
2	3	2
135	136	1
171	172	4
132	133	2
34	35	1
96	97	2
139	139	3
160	160	2
22	22	4
134	134	13
149	175	1
110	110	3
5	6	6
4	4	5
179	179	5
91	94	8
116	116	2
79	79	5
8	9	2
57	57	3
154	155	2
39	40	1
131	131	3
87	87	7
167	167	2
122	124	1
27	27	3
165	165	9
155	155	2
98	101	1
171	171	5
135	135	4
37	37	4
29	30	6
72	73	3
73	73	2
160	170	3
55	56	4
150	159	1
78	79	3
88	88	3
90	90	5
28	29	3
159	159	5
118	121	1
7	10	1
113	113	6
78	86	1
111	111	2
24	26	1
149	149	2
132	132	2
150	150	2
114	141	1
68	68	3
60	60	8
152	153	2
6	6	4
96	96	5
179	180	2
142	142	3
121	121	3
74	74	3
161	169	2
103	105	5
176	176	7
13	13	3
67	67	10
1	1	2
151	159	2
124	124	2
38	38	6
17	17	4
76	77	5
37	95	2
38	61	2
144	144	5
4	6	2
4	5	2
36	36	5
83	83	4
129	129	4
80	81	1
120	153	1
32	32	2
11	11	4
98	153	1
2	4	2
108	108	5
6	18	1
85	85	6
86	86	2
170	170	3
161	174	6
103	103	2
115	116	1
151	152	3
66	66	2
114	130	2
91	91	3
59	59	2
81	81	5
102	103	3
15	15	2
105	105	3
133	139	1
20	20	2
151	151	1
169	169	5
120	121	4
114	114	1
30	31	1
5	13	1
160	173	1
7	9	1
178	178	2
68	71	1
8	8	6
156	157	1
28	28	2
123	124	2
51	51	2
54	54	1
165	166	2
84	100	3
172	172	6
9	13	4
98	99	1
170	173	6
2	2	2
118	148	2
99	99	6
127	140	1
80	80	9
119	161	1
102	102	3
41	41	2
31	31	3
121	122	5
107	107	2
5	5	2
161	161	3
164	164	2
87	103	1
32	62	1
156	156	5
78	78	1
38	66	2
121	141	1
16	16	3
41	58	2
52	83	1
145	145	1
10	22	3
75	75	2
38	62	2
153	153	1
76	82	1
143	144	1
98	98	2
145	146	5
65	65	4
152	152	4
173	173	1
56	63	2
93	93	3
131	132	2
162	162	2
138	138	4
89	89	2
115	115	2
121	148	2
132	139	2
9	9	4
67	72	3
37	38	1
71	71	4
174	174	1
88	89	3
162	170	1
166	166	2
95	96	1
83	84	1
121	147	1
175	176	2
26	26	1
109	110	1
114	128	1
64	64	4
56	57	1
8	13	2
137	137	1
73	82	1
45	45	1
136	136	2
66	68	1
104	104	1
54	55	1
65	66	2
122	122	1
119	121	2
143	143	2
118	144	1
18	18	1
174	175	3
154	156	2
116	131	2
126	141	2
58	58	1
40	58	1
180	180	1
57	160	1
115	144	1
177	177	1
51	54	1
19	20	1
0	0	1
42	42	1
133	133	1
75	76	1
40	40	1
159	170	1
0	1	1
166	167	1
58	59	1
144	169	1
90	96	1
163	164	1
1	3	1
25	26	1
37	71	1
