115	115	7
113	113	10
182	182	2
109	110	6
169	170	2
236	237	3
223	223	7
220	240	5
240	240	6
54	54	10
65	65	4
20	21	2
221	221	6
146	147	7
26	26	1
232	232	4
85	85	6
200	214	4
40	40	1
236	236	5
60	60	11
32	32	1
228	228	7
77	78	5
181	181	2
97	97	3
219	219	8
234	234	6
85	182	1
31	184	1
170	170	3
118	118	6
68	70	1
177	178	3
169	169	2
82	175	7
75	75	3
52	53	4
15	15	2
204	204	3
116	116	2
111	114	2
43	43	2
116	117	6
110	110	9
77	77	7
184	184	4
90	90	7
229	229	6
42	57	1
49	56	2
219	220	1
16	16	6
188	188	8
202	224	1
23	24	2
155	155	4
242	242	1
46	46	7
56	56	7
48	48	4
210	210	4
80	80	4
155	160	2
244	244	3
67	68	4
220	220	2
42	43	6
81	81	7
71	72	3
3	3	1
163	174	2
37	37	4
8	8	8
244	245	2
161	161	8
233	234	5
47	47	7
174	174	6
218	220	7
180	182	4
59	59	1
92	115	1
105	105	2
230	231	4
239	239	2
47	54	2
38	38	6
163	163	4
42	42	4
93	94	10
154	154	4
1	1	4
224	234	2
173	173	5
207	208	3
157	181	1
51	52	8
234	235	4
76	78	3
45	183	1
61	62	1
15	32	4
151	151	3
89	89	5
157	158	2
92	92	3
16	18	2
55	59	2
97	105	5
169	171	1
160	167	2
155	156	3
63	63	3
166	167	3
108	108	3
12	235	3
19	19	4
98	104	1
62	62	4
12	12	4
21	22	2
28	156	1
66	66	2
20	20	2
32	33	2
65	184	1
21	21	3
185	185	4
220	221	4
165	165	1
212	213	1
196	196	2
91	103	7
35	51	1
227	227	1
91	91	1
109	109	2
94	107	2
178	178	2
95	107	1
96	96	2
48	53	4
192	192	3
24	24	9
153	153	5
69	69	1
95	95	5
187	188	7
164	164	3
231	231	2
9	9	2
27	27	3
235	235	3
87	88	3
117	117	8
81	84	3
44	44	6
94	95	6
41	41	4
65	158	5
178	180	6
78	78	6
243	243	2
203	203	5
90	97	2
6	6	6
203	226	2
216	216	1
77	99	2
160	165	4
102	102	3
238	239	2
204	205	3
246	246	5
9	10	1
33	33	2
30	30	2
5	5	2
72	72	3
85	176	3
53	53	3
96	103	2
109	145	3
224	224	2
93	93	1
74	75	1
179	179	3
112	112	2
199	199	1
10	10	4
32	200	3
46	47	1
247	247	2
185	197	1
71	73	4
227	228	3
92	94	2
81	83	2
77	81	2
96	107	4
23	23	3
86	86	3
55	55	1
200	201	1
82	84	1
158	181	4
207	209	1
212	212	2
48	58	5
34	34	4
99	99	4
151	153	3
7	7	3
48	54	2
75	76	1
84	85	2
25	26	2
31	32	3
13	14	1
192	196	1
23	202	1
168	168	4
218	219	1
44	69	2
17	17	3
82	82	7
120	120	2
152	152	2
217	217	1
43	70	2
52	52	1
64	64	2
211	212	1
39	39	1
80	174	1
240	246	4
191	191	3
80	81	3
86	87	1
178	179	2
62	63	1
240	241	1
55	56	2
164	167	1
119	119	2
211	236	2
111	111	1
114	115	1
157	179	2
56	58	1
186	187	1
70	70	1
91	115	2
238	238	1
111	112	1
151	170	2
51	51	2
11	12	1
31	194	1
16	32	2
226	226	2
199	214	1
188	190	1
226	227	2
67	67	1
213	214	1
225	225	2
158	175	1
241	242	3
217	219	1
79	79	1
88	88	1
61	197	1
108	111	1
29	188	1
68	68	1
83	83	1
81	82	2
215	216	1
98	99	3
84	158	1
94	94	2
176	181	1
186	186	1
172	173	1
218	218	1
45	66	1
224	225	1
156	156	1
169	173	1
197	197	1
100	101	1
208	208	1
100	100	2
55	57	1
35	35	1
204	227	1
12	245	1
25	25	1
144	145	1
203	204	1
241	241	1
14	61	2
110	111	1
35	36	1
166	166	1
190	190	1
79	88	1
157	180	1
