20	20	6
78	79	6
59	59	8
57	57	9
68	68	16
85	85	8
12	12	14
49	49	11
63	64	3
69	69	13
1	30	2
51	79	3
13	13	13
59	60	6
25	25	15
17	17	7
28	87	2
21	21	6
7	8	7
61	61	19
48	48	7
61	87	1
0	0	10
79	79	4
6	7	3
6	6	11
4	4	25
24	62	3
81	81	21
23	25	4
0	1	7
58	58	12
11	11	20
54	54	9
73	73	11
19	19	10
71	71	14
56	56	25
89	89	13
26	64	3
56	67	4
24	24	30
5	15	2
65	65	15
6	25	1
81	83	7
16	57	4
6	10	1
53	53	11
84	84	11
90	90	1
7	7	8
70	70	15
3	3	10
31	31	8
58	67	1
47	47	17
9	13	5
76	76	8
27	77	3
50	50	15
60	61	3
9	10	14
52	60	3
25	27	4
29	29	3
47	48	6
14	14	16
62	66	2
19	25	3
3	14	4
64	65	7
22	23	1
22	22	18
56	66	2
49	50	4
67	68	1
77	77	8
28	28	6
24	66	2
64	64	19
46	77	2
56	57	2
1	1	11
10	11	2
52	53	2
88	89	4
34	49	4
66	66	2
6	13	2
62	63	4
80	81	4
9	9	5
26	26	10
27	27	11
24	55	1
88	88	11
57	63	1
54	55	10
52	52	7
87	87	10
30	30	10
25	67	1
22	55	1
13	14	2
24	56	8
11	74	1
52	59	1
2	2	11
72	72	5
51	51	8
34	34	4
3	87	4
78	78	2
68	69	9
83	83	10
46	83	3
59	61	9
23	23	17
15	15	1
17	27	5
82	82	8
70	71	2
67	67	8
17	64	3
0	89	1
26	34	2
62	62	3
19	23	4
75	75	10
20	25	4
67	69	2
7	9	2
74	74	10
5	5	6
18	18	3
48	81	1
27	58	1
18	19	5
48	79	1
47	56	3
48	80	4
8	9	3
6	17	2
24	63	3
3	18	4
3	69	2
6	8	1
60	60	5
53	55	3
8	8	11
61	62	2
33	33	1
57	58	3
51	65	4
10	10	5
69	85	1
46	47	1
7	18	1
5	6	3
66	79	1
86	86	5
51	52	2
25	34	2
47	50	8
66	68	1
50	80	2
7	31	3
76	77	2
63	66	2
12	13	7
60	62	2
69	70	3
59	74	2
66	75	3
58	62	3
61	64	4
51	82	2
70	74	3
17	32	1
52	84	1
49	52	1
3	4	1
33	58	1
4	67	2
14	16	1
15	30	2
25	26	2
79	80	3
72	74	1
19	27	4
35	35	3
61	63	1
25	28	1
67	72	2
20	31	3
58	75	1
75	84	1
46	48	2
86	87	2
64	86	2
23	27	3
51	59	1
67	85	1
24	25	1
81	85	1
65	66	1
82	83	1
85	86	2
60	88	1
46	46	4
23	31	1
58	65	2
1	2	2
0	50	1
50	83	1
14	15	1
17	19	1
14	23	2
19	20	2
80	80	4
23	24	1
24	27	1
1	9	1
17	47	2
72	73	1
53	54	2
58	76	1
64	79	1
52	83	1
56	85	1
19	24	1
49	80	1
16	17	1
69	84	1
5	7	1
75	77	1
63	63	1
29	30	1
9	12	1
2	13	1
12	55	1
63	81	1
16	16	1
32	32	1
34	46	1
16	31	1
