17	17	4
171	171	15
203	203	16
23	23	30
64	65	8
184	184	9
162	162	13
41	46	2
81	116	5
109	109	9
22	22	17
114	114	8
9	9	9
95	95	11
241	241	6
92	92	9
30	34	3
154	154	13
61	62	6
70	71	4
93	94	7
98	98	6
192	193	3
156	156	10
5	248	2
190	222	4
4	6	3
91	91	15
6	6	12
26	26	5
225	226	6
118	118	11
160	160	25
68	111	2
110	111	6
229	229	5
101	101	8
228	228	6
186	187	3
88	88	13
110	110	17
212	212	12
246	246	7
231	231	11
170	170	6
161	171	3
107	107	10
224	229	1
45	45	10
216	240	3
97	97	7
96	97	6
84	84	7
120	120	5
66	67	3
96	96	13
193	193	8
114	115	4
199	199	8
204	205	8
174	180	3
44	44	12
113	113	10
152	213	6
170	171	4
117	117	15
38	40	5
109	110	3
82	82	14
240	240	14
68	68	11
237	237	6
219	219	9
163	171	6
116	116	15
192	192	24
60	65	3
65	192	1
199	246	2
105	105	4
24	24	7
25	25	11
207	207	10
85	85	8
23	24	1
187	231	3
185	234	4
20	20	12
29	46	3
28	29	2
14	14	8
119	247	3
216	216	4
188	188	10
22	33	1
178	178	9
46	46	15
114	178	4
15	15	8
145	145	11
74	76	3
211	212	5
7	7	15
55	55	17
222	224	2
70	70	9
104	104	2
215	215	11
177	177	6
16	16	13
205	205	8
152	223	2
12	12	13
169	219	1
199	200	3
1	1	5
40	46	1
120	246	2
164	164	9
172	173	4
97	168	1
6	7	3
182	182	4
38	39	9
94	94	16
241	242	5
226	226	4
198	199	7
60	62	1
213	213	9
64	185	1
19	19	16
243	244	3
2	2	9
32	32	6
161	161	10
221	222	14
28	28	9
120	232	3
77	77	10
40	40	23
198	198	13
33	33	10
65	66	2
7	8	6
223	223	17
41	52	5
163	175	4
217	222	1
72	72	3
99	99	7
157	157	12
190	220	3
83	83	4
17	18	2
97	99	6
58	59	3
112	112	16
66	75	9
81	81	5
60	115	2
151	151	14
36	37	1
69	69	5
89	91	9
52	52	7
109	117	3
197	197	5
84	85	9
181	181	6
116	117	5
220	222	5
90	90	12
224	231	1
19	84	5
104	105	4
115	116	3
22	52	2
9	10	6
238	238	8
166	174	1
198	241	6
221	231	1
41	41	6
78	116	5
159	163	1
73	74	8
35	35	12
78	78	13
220	231	11
168	187	3
86	86	5
246	247	16
217	217	15
76	76	3
54	204	2
42	43	12
195	238	1
22	23	5
57	238	3
15	171	1
232	232	10
247	247	14
193	194	3
101	102	5
87	88	5
220	220	15
31	32	2
206	211	2
54	206	1
166	166	5
15	16	4
224	225	5
197	200	5
230	230	14
34	48	3
43	43	9
153	160	8
37	39	3
191	191	13
67	67	2
92	93	4
184	185	5
60	110	3
96	168	3
215	217	7
74	74	7
85	86	7
187	187	6
165	165	6
41	42	1
60	60	5
205	242	2
243	243	5
165	181	7
0	0	2
119	120	2
227	227	15
66	110	4
189	189	14
67	74	3
171	173	7
56	57	5
119	119	8
58	58	4
75	76	5
27	27	8
208	210	2
247	248	4
31	146	2
217	231	2
196	234	1
8	8	8
237	238	7
97	167	2
96	229	1
179	179	7
203	205	5
84	86	5
30	30	4
18	18	9
80	80	4
12	14	4
79	79	7
166	167	6
29	29	4
38	38	12
105	106	7
245	245	17
29	33	4
64	85	3
162	175	3
222	222	4
73	73	7
233	234	6
207	208	1
214	214	13
182	183	5
160	161	6
78	88	2
13	14	2
40	45	1
222	238	1
183	184	2
47	47	10
154	174	1
240	241	2
237	239	1
23	25	6
210	210	6
102	102	8
223	224	9
224	227	7
45	64	5
169	187	3
37	46	3
39	43	2
16	173	1
183	183	13
160	219	1
180	180	7
239	239	4
87	87	5
75	83	1
219	225	2
214	225	5
113	145	1
114	206	2
40	49	1
158	158	8
94	112	1
195	195	9
63	224	2
108	108	5
155	155	7
171	219	2
174	175	1
200	245	7
201	213	2
95	96	6
78	87	3
238	239	3
3	3	10
49	49	2
234	234	7
150	151	4
82	85	1
75	75	4
163	164	4
36	36	13
204	245	2
225	225	5
68	69	1
89	90	4
67	111	1
118	249	1
144	145	5
81	82	6
68	73	4
173	173	11
175	175	6
176	181	1
59	116	2
180	203	3
224	224	6
54	54	14
119	248	4
36	50	1
21	22	3
201	243	3
190	218	3
14	15	3
165	174	1
20	44	1
167	167	6
69	167	2
93	93	12
3	6	6
50	56	3
10	11	3
51	51	11
77	78	6
4	247	3
99	100	2
60	207	1
51	181	1
87	111	2
172	172	5
235	235	13
59	59	19
244	245	1
40	41	8
37	37	10
200	201	3
207	240	3
42	53	4
31	31	5
36	38	1
115	115	8
112	113	5
150	150	16
37	49	1
109	111	3
30	49	3
201	202	1
232	233	2
41	53	3
68	93	1
180	181	6
167	174	2
37	48	2
235	236	3
178	179	4
216	217	4
229	230	1
149	149	1
180	182	3
160	241	3
78	81	2
152	153	7
230	232	1
152	159	1
72	74	6
173	181	2
201	201	14
56	106	1
200	200	7
99	245	5
222	223	2
3	52	1
50	50	7
164	215	3
63	63	5
19	20	1
43	89	2
53	54	3
89	89	2
209	209	10
31	34	1
208	209	3
239	240	1
170	230	1
21	21	5
218	219	3
157	160	1
190	191	2
11	36	1
16	174	1
218	218	7
198	242	2
5	5	1
175	214	9
58	115	1
167	229	1
154	155	2
27	28	3
91	93	2
10	53	1
242	242	9
55	58	5
44	46	1
95	183	1
21	52	2
195	233	1
105	107	3
187	232	1
58	182	1
102	109	2
153	153	5
220	235	2
147	202	1
91	92	6
72	73	4
50	106	1
40	44	2
159	159	1
168	219	1
202	202	5
63	175	1
65	190	3
204	204	4
24	25	3
30	31	2
111	113	3
48	48	5
183	185	2
169	169	1
233	233	5
203	204	4
13	13	4
157	178	3
184	186	1
98	99	1
113	114	4
176	176	9
186	188	3
116	234	2
232	237	2
29	30	1
88	89	6
55	246	2
179	202	2
57	58	2
63	206	3
186	186	4
217	225	4
236	238	1
51	52	1
111	111	6
59	207	1
161	169	1
37	47	1
4	5	3
65	65	4
99	201	2
236	236	4
39	39	12
42	42	7
44	45	3
33	34	3
248	248	1
169	170	1
71	71	5
211	211	5
43	44	3
10	15	3
234	235	3
106	106	2
177	178	3
76	77	1
50	67	4
19	43	2
57	57	2
51	53	2
151	168	1
62	62	7
209	247	1
5	55	1
38	47	1
82	117	2
8	9	1
158	165	2
244	244	2
149	150	4
212	244	3
202	226	5
226	227	4
35	48	5
25	26	1
86	90	1
48	49	3
115	234	4
76	88	2
220	221	1
61	116	1
58	111	2
55	56	1
29	31	2
152	214	1
170	172	2
4	4	5
59	60	2
16	90	1
175	213	1
100	246	1
61	61	3
52	53	5
10	10	1
11	78	2
81	110	2
145	147	1
62	63	2
147	213	2
219	221	4
54	62	3
213	242	1
58	107	1
39	175	3
228	229	2
181	182	2
56	56	1
3	19	1
209	210	1
147	147	3
173	174	2
86	89	2
192	207	2
227	228	4
34	35	1
48	51	4
4	11	3
190	190	2
168	168	2
232	235	1
205	244	1
162	217	1
200	236	1
201	244	3
198	210	2
208	208	2
226	228	1
161	168	1
45	110	2
187	188	3
248	249	2
158	163	1
81	117	1
94	95	2
30	32	1
12	16	3
113	116	1
63	185	5
185	185	1
40	42	3
174	181	1
174	174	3
27	32	2
153	175	1
65	75	1
111	114	1
87	95	7
153	154	2
64	64	5
36	39	1
54	246	1
66	66	3
82	83	2
56	165	1
71	72	3
53	53	4
26	46	2
41	44	1
88	101	1
162	163	2
218	220	2
152	152	5
193	195	3
202	203	3
11	11	1
168	169	2
76	85	1
151	235	2
96	100	1
81	184	1
19	44	1
47	50	1
220	227	1
97	229	1
200	212	1
158	187	1
157	159	3
214	218	1
177	214	1
219	232	1
212	213	2
36	51	1
19	85	2
200	244	1
31	181	1
198	200	1
48	50	2
19	81	2
58	102	1
13	15	2
120	247	2
63	233	2
189	194	1
236	237	3
97	182	1
52	165	1
199	245	1
188	189	2
2	40	1
85	184	1
195	207	1
3	4	1
168	183	2
144	144	1
51	54	2
3	5	1
220	223	1
195	196	1
212	242	1
223	231	1
165	176	1
220	237	1
5	6	1
23	52	2
76	92	1
77	87	1
103	103	2
28	32	1
213	217	1
222	239	2
149	201	1
95	97	1
224	242	1
187	189	3
112	114	1
145	201	2
30	182	2
210	247	1
96	230	1
7	54	1
63	207	1
67	167	1
188	233	1
189	190	1
195	234	1
196	238	1
83	84	2
52	204	1
204	212	1
198	209	1
201	242	1
10	54	2
45	63	1
54	55	1
187	191	1
54	165	1
96	167	1
164	171	1
193	237	1
196	209	1
56	104	1
157	180	1
194	194	1
28	31	1
57	59	1
198	240	1
232	234	1
73	248	1
104	106	1
114	121	1
216	241	1
79	109	1
35	47	1
204	244	1
