146	147	7
157	158	6
172	177	2
53	53	31
65	65	24
231	231	29
232	232	23
40	40	23
30	30	17
43	43	19
105	157	3
64	64	12
103	104	3
63	63	21
26	26	26
92	93	5
60	60	16
207	207	10
1	1	13
65	74	1
219	219	14
180	180	27
85	85	25
92	94	2
50	50	14
237	237	17
2	3	9
241	242	2
96	97	3
233	241	4
5	11	3
197	198	5
160	160	33
183	183	34
89	89	12
195	195	9
35	35	28
27	27	21
15	246	1
211	211	17
37	37	14
38	38	17
23	23	14
113	113	19
110	202	2
3	3	12
11	11	17
66	67	3
16	16	14
66	228	7
22	22	14
31	31	27
188	188	6
93	93	22
101	101	14
95	95	20
245	245	22
17	17	11
172	176	5
184	184	32
78	78	24
213	214	8
110	110	20
159	159	21
213	213	16
95	244	6
48	48	15
177	202	8
46	46	25
162	162	8
215	215	11
69	69	26
159	170	3
8	8	15
7	121	1
248	248	8
47	47	13
25	25	24
14	14	9
227	227	18
232	233	19
89	90	4
185	197	5
174	174	4
236	236	12
101	183	3
233	234	1
154	154	13
111	181	3
204	204	46
151	151	27
116	117	8
114	114	30
101	104	9
210	210	20
153	153	20
104	104	17
93	94	15
155	156	8
87	87	17
218	218	24
40	52	1
44	44	29
84	84	19
170	171	11
74	74	16
38	39	11
182	235	2
111	111	25
82	83	8
67	67	15
54	55	3
216	216	11
70	70	13
239	239	17
15	16	4
214	220	4
16	29	3
177	177	11
179	183	3
55	55	8
228	228	20
167	167	11
27	32	2
213	226	2
171	171	18
241	241	11
169	169	4
209	210	4
166	166	4
118	119	7
194	194	13
220	228	1
6	7	11
224	233	3
40	53	3
205	211	1
200	200	16
156	156	34
119	162	2
182	194	2
161	161	14
68	68	33
112	112	17
87	88	9
59	60	9
225	231	7
179	179	24
62	63	4
61	61	17
168	168	15
154	155	9
18	31	2
153	154	6
91	91	8
79	81	1
217	217	18
196	196	13
54	54	11
88	88	31
187	191	4
32	32	35
147	147	9
4	4	10
230	230	11
245	246	9
178	195	3
41	205	2
165	173	12
211	218	3
71	71	18
15	15	8
97	98	7
19	19	16
45	45	34
181	181	17
182	182	39
164	166	3
24	25	2
235	236	7
186	190	1
203	204	17
36	36	20
172	174	1
164	193	2
167	171	3
161	224	3
26	28	10
9	9	34
56	58	5
163	163	4
224	225	6
182	223	4
52	108	2
209	209	12
70	77	1
18	20	1
201	201	8
20	20	43
78	95	5
103	103	11
187	187	16
220	221	5
64	65	13
72	92	6
199	199	13
7	7	16
244	244	19
60	70	5
10	10	13
112	114	1
12	25	3
11	35	1
110	203	1
94	95	5
52	52	14
118	118	9
15	29	1
183	184	21
233	233	42
82	82	10
181	193	5
213	229	6
107	111	2
54	82	4
62	84	6
163	234	4
9	155	8
86	86	12
73	74	5
61	83	3
36	38	3
186	194	2
171	178	2
106	111	3
49	158	3
153	157	1
222	237	1
168	178	7
220	220	15
116	116	38
223	223	12
81	82	11
29	36	3
155	184	2
144	239	1
228	229	16
168	177	1
193	195	3
242	242	9
214	214	21
66	66	17
100	101	3
60	64	1
226	227	6
168	169	6
70	72	5
188	189	5
71	75	3
49	49	11
87	211	8
203	203	27
51	51	3
34	34	11
176	177	5
41	41	17
221	221	13
117	118	1
171	176	2
43	44	5
231	234	6
108	109	3
158	158	13
182	195	4
105	114	7
96	96	16
145	145	15
19	36	5
20	23	2
56	60	3
154	180	2
79	79	13
173	174	1
24	24	28
120	120	16
5	5	16
229	229	10
165	166	2
95	96	12
102	102	15
27	28	2
155	155	10
19	31	11
240	240	16
146	146	9
80	81	2
65	75	2
242	246	2
193	227	6
56	56	6
231	236	2
150	150	16
76	76	7
170	170	11
205	205	6
105	112	4
93	95	5
106	106	11
160	161	4
67	197	5
53	54	9
226	226	16
218	219	4
10	11	6
95	154	6
247	247	14
8	9	10
17	18	15
10	155	4
56	59	2
18	30	4
28	212	3
189	203	2
0	1	1
117	150	4
28	28	18
152	152	18
19	23	2
231	233	4
22	24	2
224	229	3
58	58	11
70	73	3
12	150	3
95	111	3
80	80	6
12	14	3
62	81	3
173	173	18
238	238	10
14	16	6
2	6	4
120	145	3
198	198	9
117	117	16
191	192	3
183	224	3
59	59	5
182	224	1
92	92	12
18	18	10
29	29	11
202	203	5
117	212	2
88	89	7
12	12	27
69	93	2
58	73	4
150	151	10
160	244	2
178	178	13
27	33	3
97	97	16
77	77	8
181	182	4
43	165	1
197	197	13
81	81	19
78	79	1
54	86	5
21	21	18
61	71	2
144	145	1
76	78	3
98	99	2
26	213	3
92	95	3
28	30	3
60	84	3
68	69	3
164	164	14
225	225	16
70	94	2
29	31	2
22	23	5
193	194	5
171	172	3
59	71	6
145	160	4
78	81	4
192	225	2
25	170	2
73	73	13
234	234	7
6	6	20
186	186	7
57	57	6
55	56	3
42	44	2
175	175	5
56	57	4
94	94	23
5	6	3
90	90	9
65	177	3
200	203	2
232	247	4
42	42	13
156	183	2
75	75	8
246	246	8
70	71	2
157	157	7
99	99	4
147	167	7
100	100	7
90	91	6
184	185	4
110	114	3
99	167	3
71	93	7
14	33	9
216	217	5
1	2	3
98	107	2
114	115	5
96	101	2
109	109	31
190	201	5
98	109	1
239	240	8
169	170	6
39	39	14
62	64	2
41	42	8
221	222	3
189	200	2
36	37	5
97	107	1
83	83	11
102	103	3
52	112	4
176	176	14
3	6	2
61	68	4
178	196	1
65	199	5
109	110	4
113	114	6
68	92	1
215	229	2
151	152	3
154	224	1
107	107	9
11	40	2
235	235	19
101	106	3
115	150	3
52	54	1
223	228	1
63	64	2
18	19	6
79	82	8
103	243	4
186	244	2
62	62	17
222	222	6
30	36	3
219	220	10
78	87	2
40	41	1
243	247	1
57	83	5
85	91	4
212	212	25
50	51	6
18	167	2
169	171	10
83	86	4
193	193	5
2	2	8
67	68	8
202	202	17
224	224	10
105	105	9
177	178	5
55	57	3
100	107	1
236	238	2
4	5	7
180	233	2
28	29	5
146	157	4
184	188	3
195	196	2
238	240	5
105	117	6
185	203	2
108	108	5
113	115	3
183	244	2
191	191	4
73	75	3
242	243	8
24	169	1
57	58	6
2	41	1
67	70	1
60	78	1
223	232	2
151	212	5
91	155	4
70	96	3
65	96	2
208	208	5
154	218	4
101	102	2
32	33	3
51	109	3
28	31	5
26	170	1
75	76	3
154	205	4
199	200	7
49	157	2
200	207	3
192	220	1
166	193	3
229	230	5
189	202	6
165	165	5
71	82	1
232	242	2
34	35	5
227	228	6
190	191	4
154	206	6
159	172	4
216	219	5
191	219	1
75	77	2
184	226	1
201	202	8
222	228	3
9	27	6
77	82	3
100	108	2
30	34	2
74	76	2
56	61	7
109	168	1
60	82	3
72	72	15
66	227	1
102	244	4
55	84	2
2	156	3
202	226	7
246	247	3
172	172	8
61	66	2
53	100	3
37	38	5
61	67	3
67	198	1
3	11	6
47	49	3
180	182	1
39	53	1
186	187	3
199	202	4
152	153	4
166	172	4
119	160	1
77	78	6
146	152	3
207	210	1
33	33	7
23	27	1
78	226	3
184	203	2
51	114	3
112	236	3
76	93	2
115	116	5
112	235	1
16	28	2
214	215	10
45	46	5
34	37	6
18	36	2
192	221	2
109	156	2
84	102	1
63	178	1
12	35	3
77	87	8
63	93	2
40	48	3
19	20	5
119	119	3
26	27	3
50	157	1
190	190	4
192	226	2
71	92	2
207	209	3
243	243	11
65	66	1
153	211	2
15	37	5
222	223	5
161	243	2
185	234	3
48	107	3
7	8	2
234	236	3
53	89	3
173	175	4
98	98	5
220	224	1
211	212	13
231	235	1
79	111	1
240	243	1
63	94	3
48	106	1
4	8	1
12	28	1
94	102	4
70	95	2
53	97	1
164	176	3
9	225	1
194	217	1
16	147	1
182	234	3
181	190	2
13	33	1
243	244	2
165	209	3
228	231	2
67	189	2
155	204	5
240	241	2
39	40	2
109	153	2
26	226	2
41	48	3
154	156	1
196	197	3
102	104	6
84	85	5
210	211	2
208	209	7
159	248	3
237	239	6
223	226	1
16	17	6
79	181	11
32	34	1
116	179	3
23	24	6
98	171	1
239	247	1
13	14	5
185	185	8
78	80	2
65	200	1
180	183	2
42	49	1
228	234	1
47	48	2
9	10	3
68	204	3
85	86	5
188	194	1
189	189	12
181	194	4
204	216	1
157	168	1
50	109	3
71	72	3
27	168	1
53	155	3
14	15	3
71	89	2
202	214	3
94	179	1
68	76	1
100	113	2
27	226	1
43	45	2
220	222	3
151	156	3
51	52	4
53	95	3
39	45	1
185	200	2
146	161	3
234	235	2
30	31	1
21	22	4
166	210	4
152	159	1
101	103	3
190	192	1
162	163	3
79	87	3
179	204	2
202	225	2
195	199	5
107	108	3
44	45	7
58	74	1
90	92	2
192	192	10
52	88	2
181	201	1
242	244	1
43	171	1
81	84	3
72	83	1
15	32	1
78	107	2
181	202	1
70	228	3
46	47	4
3	4	3
218	220	2
62	65	3
53	96	1
115	115	3
172	173	2
25	28	1
200	227	2
29	30	2
196	217	1
166	232	1
72	91	2
47	50	2
46	165	3
79	80	1
54	85	2
47	108	3
87	113	5
76	77	1
4	11	1
150	212	5
94	155	1
165	178	4
111	112	2
163	164	1
51	61	2
17	209	1
63	65	1
13	29	1
105	106	4
182	183	5
52	80	1
95	228	1
104	247	2
192	193	1
247	248	2
78	228	3
209	215	1
169	179	1
69	72	1
192	224	2
25	164	4
51	56	1
28	226	5
154	211	1
162	178	1
35	36	5
179	182	2
181	225	3
12	36	2
64	190	1
6	15	1
206	206	1
98	168	1
165	172	1
198	204	1
2	5	1
110	111	1
111	229	3
167	168	3
33	34	2
238	239	3
61	63	1
171	174	2
221	223	1
31	168	2
83	84	1
21	37	1
225	226	1
180	181	4
53	93	1
242	245	2
182	203	1
224	232	1
67	190	2
66	200	1
205	206	1
53	205	2
222	238	3
169	172	1
87	97	1
42	206	1
195	198	2
72	74	2
38	146	1
75	78	1
162	164	1
240	242	2
164	233	1
43	210	5
248	249	1
153	161	1
144	148	2
200	201	3
113	242	1
85	89	1
200	202	1
25	26	3
61	197	2
187	195	1
88	92	1
223	224	4
225	229	1
66	76	1
21	205	2
79	95	1
194	197	1
157	160	1
191	221	2
51	62	1
61	77	1
82	200	1
93	99	2
13	13	1
187	196	2
95	184	1
104	112	2
20	34	1
175	176	1
217	218	2
10	53	1
152	172	1
236	237	1
35	37	1
11	41	2
17	33	1
142	142	1
237	240	1
197	203	2
38	53	1
14	34	2
52	85	1
79	86	1
162	240	1
110	150	1
4	9	3
176	203	1
61	82	1
0	0	1
67	90	1
165	208	1
117	119	1
53	90	1
71	95	1
150	205	1
61	84	3
152	211	1
23	26	2
21	54	1
78	83	2
168	171	1
97	108	1
95	99	2
111	226	1
28	184	2
20	21	1
171	229	1
13	35	2
204	215	2
70	90	2
152	157	1
184	225	2
191	229	1
118	161	1
67	77	2
85	113	1
157	169	1
119	120	1
48	49	3
222	234	1
17	167	1
152	224	2
43	46	2
91	92	1
180	220	1
208	211	1
194	196	2
159	160	1
192	203	1
70	198	1
236	239	1
63	204	1
220	223	1
149	150	1
188	229	1
41	49	1
229	234	2
89	92	1
3	7	1
217	226	1
86	87	2
58	71	1
11	12	1
30	32	1
54	205	1
121	121	1
158	170	1
234	244	1
95	183	1
6	16	1
181	189	2
53	87	1
47	85	1
81	85	1
110	213	1
194	216	1
187	208	2
119	178	1
215	220	3
144	144	1
55	83	1
184	213	1
89	154	1
157	170	2
1	3	1
183	204	1
86	109	1
65	227	1
69	207	1
166	174	1
181	186	1
69	70	1
237	238	1
39	44	1
151	179	1
19	30	1
