119	119	10
32	32	10
131	132	1
1	1	10
156	156	5
0	0	5
13	13	8
85	85	9
90	90	6
109	110	5
61	63	10
23	24	7
140	140	8
170	170	4
53	54	3
116	116	7
36	37	4
41	41	14
34	37	5
26	40	3
118	118	3
18	19	8
96	96	12
48	48	8
187	189	1
62	62	5
164	164	10
63	63	17
42	42	8
123	123	6
146	147	6
43	44	4
23	23	10
81	82	5
101	128	1
76	76	13
108	108	15
176	177	6
176	176	9
19	19	4
167	168	2
175	175	9
30	31	9
97	98	1
101	101	7
86	86	18
173	173	12
27	28	5
61	61	3
70	70	8
162	162	9
186	186	4
82	82	7
100	100	9
37	37	2
94	94	3
77	78	4
134	149	3
130	130	12
98	98	5
77	77	9
143	154	7
182	183	2
166	166	4
109	114	2
158	168	3
127	127	15
102	102	6
189	190	2
123	124	2
122	122	4
75	80	4
168	168	10
153	153	2
143	143	2
29	29	8
110	110	8
114	114	13
138	138	1
111	112	6
173	174	1
36	36	4
148	148	10
134	134	6
90	92	1
108	116	2
59	59	2
126	126	1
174	174	8
182	182	10
143	165	4
115	117	2
88	89	5
83	83	10
72	72	2
133	133	5
49	49	2
24	32	2
129	129	7
169	169	1
187	187	8
4	4	2
10	10	1
2	2	11
18	18	7
31	41	2
79	79	4
47	47	8
91	91	8
17	17	2
172	174	3
11	11	4
124	125	2
40	40	9
101	125	3
67	68	5
109	109	15
111	111	7
145	145	3
143	164	3
188	188	6
178	178	11
78	79	2
16	16	1
100	101	1
156	165	4
46	47	3
30	30	2
120	120	11
97	97	2
141	163	4
44	44	7
6	6	9
24	25	3
157	157	6
40	41	1
74	74	4
56	56	6
28	28	5
117	117	6
55	56	2
136	137	7
107	115	3
15	15	14
150	151	4
85	86	2
152	152	8
81	81	7
75	77	4
20	21	1
40	42	1
149	151	3
33	33	8
129	130	1
95	95	2
157	169	3
84	84	4
21	21	2
124	124	7
134	136	2
16	24	5
86	95	4
58	58	3
31	31	4
39	39	10
156	157	2
141	141	7
7	7	3
96	98	3
126	127	1
155	156	3
87	87	3
86	88	2
179	179	4
159	159	12
149	149	9
160	160	13
147	147	8
152	153	5
109	113	2
134	135	4
167	167	6
188	189	5
57	63	10
22	22	4
171	174	6
38	38	2
151	151	4
83	85	1
80	80	8
184	184	3
64	64	10
88	88	14
121	122	3
80	81	2
171	171	4
30	42	1
155	168	2
52	53	3
125	125	2
67	67	4
43	43	5
175	176	4
55	55	10
89	89	7
28	30	3
103	103	1
133	134	5
24	24	1
144	144	1
161	163	1
53	53	2
83	99	2
119	120	1
177	180	3
190	190	5
104	104	4
78	78	3
32	37	1
121	121	3
26	26	3
18	20	4
35	35	2
119	121	1
140	141	4
27	41	3
99	99	4
3	4	1
113	113	4
158	158	4
185	185	2
107	107	4
180	180	4
10	33	1
37	38	1
144	145	1
172	172	4
14	31	3
34	35	3
35	37	2
54	54	3
16	22	5
93	93	2
14	14	6
107	116	1
82	96	2
181	181	5
184	190	3
73	73	2
122	130	1
38	39	1
82	94	1
149	150	5
142	142	6
177	177	1
42	44	1
123	127	2
127	130	1
87	91	4
65	67	3
115	116	2
72	73	2
62	68	3
19	20	1
82	104	2
154	154	2
22	27	1
71	77	1
105	105	2
183	184	3
18	21	3
69	69	1
146	148	1
127	128	2
13	40	1
25	25	5
58	59	4
102	128	1
59	75	1
150	150	1
83	113	1
77	164	4
135	149	1
68	68	4
115	115	1
90	91	2
183	185	2
106	106	2
160	161	2
72	82	1
20	20	3
146	146	2
144	150	3
92	93	2
17	18	2
122	123	1
187	188	1
164	165	2
96	99	1
56	57	3
60	60	3
60	61	3
103	119	1
167	170	2
189	189	1
21	27	1
163	163	1
130	131	3
33	35	1
34	36	1
52	62	1
159	160	1
96	97	1
16	17	2
75	75	1
23	32	2
14	22	1
69	70	2
71	71	1
108	109	1
54	56	1
145	146	1
77	85	2
165	165	1
5	5	1
128	128	1
153	154	1
126	128	1
15	26	1
159	166	1
137	162	1
