35	87	5
60	87	1
186	186	6
133	134	1
91	146	1
168	169	6
83	83	10
169	170	7
68	68	4
139	139	3
161	161	6
171	173	1
44	46	3
20	37	2
89	89	5
64	99	1
58	59	4
146	146	5
143	144	7
103	103	6
166	167	2
66	66	3
57	85	2
18	19	5
77	77	14
65	72	6
26	26	13
85	85	7
20	20	8
10	10	6
93	94	2
76	76	9
172	172	3
63	88	4
127	127	4
12	12	10
73	73	8
86	87	2
71	100	5
32	33	2
164	165	8
72	73	2
60	60	2
28	28	4
116	116	8
1	2	2
158	158	4
45	45	3
168	168	6
3	3	5
112	130	1
131	131	21
104	104	4
24	82	1
16	17	6
121	122	1
140	140	7
53	53	3
93	95	2
138	139	5
146	148	2
94	121	3
184	184	10
167	169	2
171	171	3
16	16	13
26	27	3
117	118	6
98	98	3
137	137	5
175	180	1
175	175	5
42	42	9
165	165	5
113	119	3
47	76	1
64	68	2
170	170	14
23	82	3
1	1	5
156	168	1
93	93	18
115	116	3
56	56	6
41	141	3
37	64	1
110	110	8
24	25	2
116	117	1
28	30	4
64	64	5
167	180	2
56	57	2
38	38	7
55	56	2
111	112	1
179	180	4
122	122	6
44	67	3
6	6	4
44	44	5
185	185	5
31	31	2
181	181	4
7	7	6
188	188	2
155	172	3
154	155	1
27	30	3
187	187	1
7	23	2
78	78	8
2	2	6
62	62	6
151	151	12
153	153	6
4	5	3
22	23	2
71	71	1
32	32	2
142	143	1
92	92	8
106	136	3
41	41	6
80	80	4
132	132	5
48	48	3
23	23	2
163	164	3
132	133	6
90	90	9
21	21	5
105	105	3
39	39	10
189	189	4
15	15	5
45	46	5
14	14	4
128	128	5
177	177	4
61	61	9
153	167	1
126	126	3
63	91	6
36	36	2
36	38	2
9	24	2
12	13	7
183	183	7
70	71	2
135	136	2
13	13	4
109	110	4
67	67	3
34	35	6
134	136	3
94	94	6
116	141	1
16	26	1
143	143	3
78	82	2
122	123	1
63	63	10
14	30	1
4	4	6
72	98	1
129	129	3
110	140	1
39	40	3
43	45	1
133	133	1
149	149	4
152	153	1
99	123	1
43	43	8
178	178	5
152	152	7
6	7	1
47	47	5
138	149	1
22	24	2
166	168	1
40	40	3
111	111	6
121	121	6
119	119	6
108	108	3
123	128	2
142	142	6
93	147	3
64	65	3
23	80	1
160	160	2
59	87	1
5	5	3
111	140	3
174	182	1
135	137	5
24	55	1
5	13	2
113	113	8
80	81	2
99	99	10
76	78	3
179	179	5
182	182	3
159	159	2
109	109	4
7	8	1
124	124	3
129	138	2
55	55	3
113	116	2
9	45	1
174	176	2
102	102	4
96	98	1
171	182	1
12	60	2
73	100	1
117	119	1
123	123	2
78	84	1
130	134	2
81	81	2
74	74	4
160	163	3
115	115	4
65	65	5
87	88	1
8	25	3
65	67	1
149	150	9
135	135	2
66	75	1
11	12	2
153	154	2
92	145	4
168	170	1
10	28	2
169	169	8
97	98	3
141	145	1
106	106	3
130	130	4
95	96	2
121	156	2
110	163	1
147	147	1
154	154	3
169	187	2
66	68	1
66	85	1
116	119	1
112	190	2
84	85	1
120	120	3
34	34	3
171	180	1
0	3	1
114	190	1
57	143	1
0	1	1
118	118	1
79	80	3
174	175	2
80	82	1
117	117	6
130	131	2
139	140	1
174	174	1
144	144	1
157	157	2
156	156	10
189	190	1
53	54	3
57	57	4
176	176	1
162	162	6
160	161	2
66	67	1
82	83	3
155	155	5
165	167	5
138	186	1
88	88	3
114	187	2
173	182	1
84	84	8
146	147	2
133	135	1
18	47	2
129	186	1
59	59	2
91	91	1
168	180	1
9	56	4
29	60	3
150	187	2
36	67	2
132	134	1
96	96	1
93	99	2
98	100	1
25	25	3
162	163	1
76	104	2
119	140	1
94	95	1
125	125	1
44	45	1
105	106	1
151	152	1
27	28	3
101	101	2
107	108	1
134	134	2
122	156	1
190	190	2
54	54	1
71	83	1
72	72	2
89	141	1
86	86	2
63	97	1
150	150	2
27	27	2
67	68	1
40	42	1
126	127	2
138	138	4
60	61	3
130	138	1
148	148	3
68	83	2
84	87	1
90	91	1
22	22	1
64	100	2
0	2	1
170	186	1
11	11	1
94	133	1
184	185	1
79	79	1
54	83	1
161	188	2
98	122	1
129	130	1
43	76	1
176	177	2
161	163	1
17	18	1
23	24	2
106	109	1
112	112	1
11	27	1
119	120	1
82	82	1
114	115	1
124	125	1
166	181	1
93	121	2
113	154	2
120	156	1
166	166	2
140	151	1
123	189	1
63	98	1
159	160	1
5	6	1
145	145	2
127	129	1
58	60	1
0	0	1
29	29	2
18	18	1
10	48	1
143	148	3
122	125	1
96	97	1
35	35	1
37	38	1
155	157	1
119	148	1
110	111	1
100	100	2
25	54	1
29	30	1
71	88	1
58	58	2
167	179	1
183	184	1
30	33	1
92	134	1
185	186	1
36	37	1
187	190	1
98	99	1
10	12	1
75	76	1
141	141	2
46	46	1
150	151	2
33	35	1
17	17	2
9	9	1
40	41	1
99	122	1
103	104	1
114	152	1
20	22	1
101	102	1
114	114	1
87	87	1
