49	49	6
124	125	3
95	95	6
124	124	3
82	82	7
63	64	5
79	79	2
125	125	5
13	13	2
98	98	2
13	76	7
98	127	3
3	11	1
128	128	2
116	117	2
103	103	2
69	70	2
97	97	3
9	9	6
106	106	3
38	38	1
77	103	3
15	15	8
43	43	7
41	62	2
72	73	6
111	111	4
73	73	4
2	2	8
16	17	6
54	54	5
84	84	3
1	1	5
56	123	2
109	109	5
100	100	3
104	105	6
102	102	4
62	65	2
77	77	1
32	32	7
114	116	4
11	26	3
117	117	4
72	74	1
19	19	7
97	98	1
14	14	2
76	76	4
120	120	2
72	72	1
55	55	3
23	46	2
10	12	1
8	10	2
71	96	2
18	20	3
20	29	1
88	88	2
62	70	1
5	61	3
86	86	2
92	92	6
56	56	8
27	28	3
115	115	7
43	125	1
61	70	1
21	22	2
27	27	3
53	53	5
40	58	3
41	41	2
74	74	3
80	84	2
65	65	1
0	1	2
45	45	1
33	45	4
10	10	2
8	8	3
96	109	1
42	42	6
101	103	4
41	64	3
42	69	2
33	33	5
112	112	5
11	11	2
16	16	3
64	75	3
100	101	3
44	45	1
65	66	1
113	113	4
99	99	2
68	120	1
101	101	3
5	17	3
42	43	1
39	39	2
46	65	2
67	67	3
72	119	2
83	89	1
9	22	2
90	133	1
50	50	4
18	18	1
83	84	1
76	132	2
89	108	1
4	5	3
3	25	1
63	63	4
68	99	5
43	68	3
62	62	2
1	6	1
130	130	2
69	120	1
59	59	2
73	119	1
51	51	3
25	27	1
72	98	3
61	61	4
57	57	1
11	12	2
11	25	4
105	106	3
90	108	1
102	127	2
81	81	2
28	28	3
123	123	1
94	95	1
112	113	1
107	113	2
61	62	2
73	105	1
105	105	2
119	119	7
84	118	4
91	126	2
22	22	4
39	73	2
29	29	1
131	131	1
68	79	1
21	21	2
64	64	2
58	58	1
58	59	1
18	38	2
114	114	3
17	29	2
66	107	2
104	104	1
52	53	1
24	75	1
121	121	1
90	90	1
89	89	1
84	114	1
12	12	2
52	70	1
54	91	1
70	70	3
118	118	2
98	102	3
81	120	1
102	103	1
87	102	3
93	93	1
3	3	3
110	111	1
39	74	1
14	76	2
115	116	1
108	108	1
57	58	1
74	75	1
9	55	1
32	49	1
71	71	1
11	27	2
13	23	1
103	105	2
78	79	1
39	70	1
99	107	1
116	116	1
91	91	1
