11	20	2
14	15	1
12	12	5
2	2	10
46	47	5
12	13	5
21	21	4
23	57	1
17	17	11
58	59	5
24	24	6
4	7	4
11	11	8
42	46	2
40	43	1
10	13	1
54	55	1
18	60	2
24	59	8
14	39	2
30	30	12
49	49	10
18	18	13
31	32	7
51	51	8
62	62	15
47	47	4
59	59	11
1	2	7
5	6	4
8	9	5
44	44	18
36	36	7
23	23	6
17	19	2
56	56	3
19	20	2
4	6	1
24	39	2
14	23	3
9	9	6
7	7	4
40	40	11
36	37	2
50	60	1
3	3	10
15	15	17
53	60	7
20	20	4
60	62	3
59	60	5
52	59	6
0	6	4
50	58	4
48	57	2
31	33	1
10	11	2
47	50	5
0	0	9
57	57	15
54	62	7
61	61	10
16	16	5
8	8	7
5	5	7
11	14	4
50	53	3
46	52	1
31	34	1
55	58	2
48	58	2
47	54	3
0	3	4
44	45	5
9	13	1
22	22	9
4	23	1
54	54	8
58	58	12
30	31	4
22	23	1
37	37	8
4	5	1
19	19	15
39	39	2
24	25	2
6	6	11
10	17	1
46	54	1
11	12	5
5	24	1
30	45	2
21	24	1
11	21	2
1	1	7
6	8	3
48	48	16
44	49	4
37	45	2
45	45	7
12	16	3
3	39	4
21	22	3
32	34	3
41	41	4
50	52	1
14	21	4
9	11	3
32	32	11
45	47	4
60	61	14
31	31	10
53	53	18
42	43	3
7	17	1
14	14	5
50	57	4
37	59	2
55	60	3
56	58	3
16	18	2
35	36	4
34	35	10
16	25	2
43	43	17
57	59	3
39	48	5
45	49	5
32	46	1
11	13	3
20	21	2
2	3	3
12	17	1
19	38	3
37	48	2
23	24	4
10	10	16
22	25	2
3	5	2
57	58	2
42	55	4
23	34	2
0	13	2
15	17	4
22	41	1
34	56	1
34	34	6
0	1	12
34	36	2
30	62	3
35	35	13
45	55	1
25	25	1
29	30	1
35	39	1
44	52	3
52	52	9
56	57	3
59	61	1
55	55	5
33	47	1
13	13	5
16	17	7
30	49	4
20	52	4
0	30	2
13	14	5
42	54	2
17	18	3
47	48	1
33	34	8
53	54	4
0	49	2
33	33	6
53	62	1
6	7	3
0	10	1
10	25	1
14	16	3
40	44	1
10	15	1
35	37	1
4	30	1
49	57	1
33	36	1
45	46	3
23	56	2
0	4	1
26	59	2
36	61	3
14	19	4
0	12	2
15	18	2
46	46	3
53	59	4
21	23	4
46	53	4
43	44	3
42	42	2
19	22	4
26	26	3
39	41	3
0	5	2
38	43	2
60	60	4
48	49	2
54	59	1
7	16	2
51	55	2
4	18	1
5	8	1
5	23	3
8	14	1
14	18	2
21	38	2
39	44	1
50	51	2
51	57	1
4	4	3
18	19	4
22	54	3
31	40	2
11	15	2
10	16	1
31	35	2
53	58	2
19	24	1
13	15	1
50	50	7
41	44	1
52	53	2
32	33	2
43	45	1
30	32	1
29	35	2
1	13	2
6	12	1
9	25	1
2	5	2
54	60	1
23	51	1
39	40	1
9	18	1
37	39	3
51	52	5
36	41	5
1	8	1
31	39	1
19	54	1
44	54	2
10	12	1
25	55	2
2	12	1
56	59	1
2	15	4
11	17	2
19	21	1
9	15	1
4	56	1
34	44	1
13	18	1
57	62	1
9	12	1
37	38	1
16	23	1
15	16	1
21	52	2
4	8	1
54	58	1
21	25	1
25	56	1
55	56	1
38	58	1
19	51	1
1	9	1
0	11	1
15	19	2
57	60	2
13	58	2
48	50	1
17	23	1
12	58	1
42	50	1
35	57	1
22	24	1
