82	82	17
34	62	3
80	80	10
96	98	1
32	32	1
97	97	8
30	32	1
98	98	8
58	58	19
96	96	10
54	54	10
86	86	9
25	25	8
43	59	2
33	33	6
39	39	12
73	77	2
78	93	6
30	31	5
96	97	3
78	78	6
71	71	4
88	88	1
95	100	3
45	89	4
75	75	10
57	57	8
63	63	17
59	60	1
20	20	6
76	76	1
48	48	6
43	60	3
105	105	5
53	53	6
101	101	7
102	103	3
55	58	2
23	23	7
49	50	3
45	46	2
78	79	4
22	22	8
89	89	16
104	104	9
75	77	3
85	85	9
27	27	5
37	37	5
81	81	2
67	70	4
50	50	12
84	84	5
40	41	1
56	56	17
80	84	1
91	92	8
61	62	2
33	34	1
39	89	3
61	61	3
106	106	8
23	24	10
99	99	6
48	79	2
30	30	14
72	72	4
48	49	5
77	95	1
59	59	6
28	60	4
35	35	5
75	78	2
46	47	2
28	28	7
70	70	5
94	94	11
80	106	2
77	77	3
47	47	18
60	60	5
68	99	3
53	54	5
68	68	4
65	65	7
39	41	5
68	69	8
29	29	3
38	39	4
92	92	6
102	102	10
51	51	2
21	44	2
46	46	4
22	26	7
31	36	4
43	45	5
52	52	5
82	83	3
51	52	5
67	67	5
92	93	1
26	26	10
67	93	4
36	36	7
60	61	2
82	84	3
20	21	2
24	24	10
31	50	3
46	54	7
56	57	3
103	104	2
72	73	8
26	27	3
79	79	1
89	91	2
85	92	2
49	49	7
36	37	3
44	44	3
29	59	1
85	86	3
69	69	8
74	75	8
63	64	4
72	77	1
67	68	5
64	92	2
50	51	4
90	91	3
57	69	2
20	25	4
65	66	6
50	57	2
55	55	9
73	73	4
103	103	5
98	99	3
21	21	7
66	82	3
74	76	5
55	57	2
59	61	2
21	22	1
59	63	1
95	95	5
43	43	2
70	71	2
64	64	4
38	38	4
66	67	2
60	63	2
68	79	3
84	85	5
42	43	3
51	92	2
92	94	1
34	34	4
45	45	6
40	46	1
40	40	2
64	89	2
77	78	2
66	66	2
26	37	1
36	61	6
30	59	2
95	104	3
79	80	4
22	59	1
31	35	3
78	80	1
73	74	2
31	31	3
61	63	3
51	84	2
44	62	2
43	44	1
49	58	2
37	39	3
80	105	1
95	96	2
52	85	2
90	90	3
22	28	1
34	37	1
41	41	1
47	49	2
65	92	2
49	59	1
46	58	1
76	77	4
50	85	2
101	104	1
41	81	1
107	107	2
46	49	1
42	42	1
26	38	2
28	29	2
100	100	1
76	91	1
80	101	1
97	98	2
91	91	1
22	23	1
49	86	1
86	87	1
57	82	1
