108	113	5
17	17	9
63	80	2
96	96	13
151	151	13
117	117	8
93	93	8
63	63	14
178	178	11
143	143	16
109	110	11
144	164	1
110	110	16
20	20	13
128	131	3
70	71	12
59	59	9
138	139	4
46	46	14
191	191	16
134	135	6
136	136	12
60	73	2
157	158	19
73	74	12
52	54	1
124	124	5
162	162	11
169	169	9
174	174	13
6	6	9
83	83	6
116	116	7
159	168	5
10	141	7
70	73	7
143	150	4
188	189	9
30	30	8
134	134	16
30	32	4
0	0	15
122	122	7
96	97	2
76	76	11
168	168	9
132	132	4
141	141	14
133	133	12
156	156	9
170	171	9
130	132	3
157	157	8
123	124	8
34	35	8
65	66	1
103	103	11
126	126	19
108	108	16
117	127	3
102	180	5
127	128	9
79	80	7
85	85	4
189	189	6
88	89	11
175	175	13
133	134	8
189	191	3
164	164	6
32	112	3
10	10	13
48	49	6
182	182	10
146	147	17
152	153	1
41	41	2
43	50	2
163	164	3
95	95	11
69	69	21
2	2	14
171	171	10
184	184	21
19	20	7
131	131	10
24	24	10
99	99	12
7	7	5
129	129	9
179	180	6
128	136	1
42	42	9
52	52	18
127	127	16
166	166	14
158	159	7
8	43	3
154	156	5
60	60	9
77	77	5
180	180	15
61	62	10
40	40	8
37	37	5
185	185	12
63	64	2
45	50	8
62	62	10
104	104	11
113	113	15
148	148	7
177	189	6
88	88	15
106	106	17
9	9	11
145	146	9
27	108	1
150	150	13
46	47	5
195	196	7
62	63	10
12	140	6
56	90	3
15	15	11
71	71	12
85	86	6
100	101	11
153	153	13
34	34	16
190	190	6
67	142	4
51	196	2
101	101	8
49	49	9
83	84	5
105	105	14
0	38	1
16	169	7
14	143	1
135	196	3
54	55	6
21	82	4
99	115	6
181	181	7
161	161	13
105	174	1
176	176	4
68	68	12
95	96	1
86	86	5
40	43	2
143	144	4
65	65	4
117	179	3
55	55	7
186	187	12
25	25	11
38	39	2
35	35	18
110	111	5
26	26	21
15	170	2
23	24	4
119	128	3
173	174	8
51	55	3
33	111	9
94	96	1
21	22	5
120	120	9
16	16	21
121	121	17
187	192	2
1	1	4
149	151	3
100	100	22
173	191	4
94	94	16
173	173	8
23	36	4
15	71	1
18	71	2
158	158	24
143	145	3
6	8	2
82	83	5
5	5	19
39	42	1
190	191	4
47	47	11
132	133	4
103	105	6
10	12	8
74	88	4
22	22	23
101	116	3
55	174	2
61	61	17
42	43	4
0	1	8
4	6	2
90	90	2
60	68	1
130	130	9
3	3	28
149	166	2
107	107	8
152	152	14
19	21	4
4	5	2
12	13	3
52	53	4
0	52	4
14	14	9
25	26	8
187	188	20
16	17	12
181	190	1
125	135	4
43	44	2
150	160	3
186	194	3
13	13	12
111	112	5
155	155	11
29	29	8
76	78	4
101	119	3
97	98	4
50	50	16
128	133	1
94	115	4
124	125	7
71	72	7
186	186	15
189	190	8
44	44	6
73	73	11
42	44	3
81	83	7
64	147	1
175	196	1
53	108	2
42	50	2
195	195	9
72	72	18
3	4	3
8	9	9
45	46	7
84	147	6
169	170	1
21	21	21
191	192	6
123	123	9
49	50	3
151	153	5
145	145	15
164	167	9
57	57	5
43	43	15
15	45	2
58	58	12
109	111	2
163	163	5
94	95	6
31	31	9
1	43	1
86	88	1
81	82	6
1	44	9
89	168	2
112	112	12
74	74	9
107	108	4
56	56	6
114	197	6
172	173	2
15	142	5
82	82	8
33	33	20
109	113	3
149	152	2
137	139	1
65	68	5
176	178	12
154	155	4
70	70	12
20	75	3
129	134	6
100	116	1
192	192	12
174	175	3
123	128	1
17	18	4
166	174	3
67	67	13
171	172	6
181	182	7
130	131	6
44	141	5
159	163	3
54	54	16
170	170	6
77	78	4
27	109	5
0	33	3
115	115	3
149	153	4
12	139	3
115	117	1
123	125	1
0	37	2
109	109	19
151	152	2
98	98	7
194	194	9
177	177	2
102	102	13
97	97	8
38	52	2
32	33	4
158	160	4
84	84	4
179	181	2
136	138	6
58	59	5
40	41	3
160	160	14
5	6	4
36	36	9
125	125	7
136	137	5
149	150	12
174	176	2
124	128	2
32	32	4
147	153	6
119	119	9
20	88	1
149	149	7
148	153	3
15	16	7
156	183	1
42	177	3
114	114	15
172	172	3
105	106	7
41	42	3
37	75	1
51	52	1
184	185	7
114	115	4
177	190	2
12	12	8
75	75	5
132	182	6
40	42	1
119	124	2
147	147	8
160	164	3
173	193	9
78	78	11
87	87	12
80	83	2
137	137	7
19	19	13
138	184	2
180	190	3
148	150	2
185	193	4
145	148	1
103	107	1
14	15	7
60	61	2
142	143	2
138	183	4
11	14	2
56	57	8
97	115	1
150	153	4
186	188	2
28	30	2
179	196	1
98	99	5
39	39	4
66	68	1
185	186	3
33	34	3
89	89	14
101	102	1
28	28	9
128	128	4
139	140	6
183	184	5
142	159	2
80	80	8
79	79	7
17	86	4
154	154	13
146	146	6
66	66	3
116	119	7
60	64	4
144	168	1
196	196	10
161	162	6
165	167	4
118	119	1
148	149	5
96	120	11
20	83	2
106	107	5
189	192	5
178	189	1
14	16	1
67	68	6
39	52	4
164	168	1
33	107	3
55	175	4
27	27	8
179	190	2
181	194	1
97	119	3
159	162	1
141	172	3
10	11	1
188	188	11
54	89	2
62	83	3
76	77	5
187	187	7
4	4	4
87	167	2
23	82	3
87	173	5
18	18	6
148	164	2
78	80	2
8	8	4
125	195	2
69	70	1
2	9	9
150	159	1
171	193	3
101	115	1
147	167	5
178	179	4
176	193	3
19	88	3
19	23	1
73	86	2
168	169	5
24	109	2
23	23	10
22	36	2
56	105	2
87	88	1
37	54	1
47	50	1
137	138	2
5	7	4
139	139	5
113	114	5
45	56	2
58	74	2
108	109	1
9	42	2
47	140	5
13	14	4
62	64	3
17	144	2
74	75	3
39	46	3
118	132	4
111	111	8
45	195	1
182	183	1
162	163	2
42	70	2
89	107	3
54	57	2
85	146	3
64	64	7
2	8	1
181	183	4
66	67	2
120	122	3
148	152	1
140	140	2
11	11	3
65	146	2
34	37	1
53	53	10
165	166	7
51	54	3
167	168	2
145	168	2
77	82	1
106	108	6
113	115	2
45	45	3
70	72	1
135	135	8
48	48	6
102	103	4
192	193	5
4	49	1
144	144	3
175	178	3
19	36	1
39	58	1
138	138	6
118	120	3
99	100	5
77	79	3
126	134	2
193	193	4
7	8	3
29	166	2
90	105	1
84	85	3
30	31	1
22	26	3
79	81	1
19	82	3
27	28	1
51	51	7
16	174	2
96	98	3
35	36	8
71	73	2
183	183	3
168	173	4
118	118	8
125	126	3
20	21	8
151	158	2
31	32	4
159	159	2
175	176	4
76	79	1
171	173	1
158	162	1
108	112	4
59	60	8
64	65	2
55	56	2
3	6	1
117	118	3
10	142	1
173	176	2
183	186	5
167	167	8
77	86	4
24	25	2
171	174	3
176	177	3
29	30	5
179	179	9
38	38	3
40	58	1
1	3	1
80	81	1
165	165	5
22	23	1
28	29	2
79	84	2
159	160	2
150	151	1
133	182	1
63	146	3
117	180	2
9	139	1
145	187	2
63	147	1
177	194	1
62	147	2
192	194	1
89	90	3
119	121	1
69	142	2
149	154	1
144	167	3
155	156	1
179	197	1
22	82	1
93	115	3
177	195	1
20	33	1
175	191	1
123	129	1
0	44	1
6	7	2
39	57	1
60	74	1
67	149	2
150	157	1
136	183	1
52	57	2
6	9	3
18	87	3
48	135	1
50	52	2
2	3	4
126	135	1
67	69	2
58	60	1
135	136	2
78	79	1
127	195	2
41	43	3
143	168	1
151	164	1
93	94	3
47	197	2
21	76	1
168	170	2
118	133	2
61	79	1
57	58	1
124	137	1
74	85	3
86	87	1
0	50	1
178	190	3
80	84	1
82	84	1
87	165	2
17	89	1
21	77	1
95	126	1
62	80	1
43	46	1
16	145	1
105	175	1
119	126	1
71	74	1
144	145	1
150	154	2
182	196	2
193	194	2
53	114	1
121	122	1
161	163	1
177	192	1
39	40	2
26	27	2
116	117	1
38	56	1
197	197	3
53	55	1
39	73	1
142	142	1
142	160	1
44	50	1
61	64	1
1	2	1
46	172	1
31	112	1
103	104	1
33	114	1
97	127	1
118	129	1
17	56	1
0	43	1
188	194	1
