134	134	3
144	144	1
99	140	5
74	79	2
131	134	5
130	130	4
90	96	1
79	79	1
138	138	3
37	37	14
115	115	4
111	114	4
84	84	5
94	95	2
19	19	4
72	74	3
0	20	1
27	27	3
10	33	3
2	2	7
109	110	3
33	33	3
69	69	9
69	137	1
97	103	1
88	88	5
9	9	4
50	50	2
140	140	3
32	32	2
55	56	10
24	42	2
24	24	6
121	121	3
91	128	4
0	0	5
55	76	3
73	73	4
10	35	4
96	96	4
136	136	6
130	136	2
115	116	7
88	89	1
78	83	1
60	80	2
60	60	5
143	143	5
127	127	2
18	18	7
55	55	3
60	77	2
37	140	1
94	134	1
97	98	6
62	63	9
9	35	2
104	104	4
48	86	1
30	49	3
93	94	1
131	131	7
113	113	2
109	109	9
1	1	9
95	95	3
24	30	3
49	49	3
107	107	5
98	98	4
106	107	4
104	105	4
90	118	2
144	145	4
33	36	3
128	128	3
24	129	3
41	41	2
105	105	2
127	128	1
123	130	1
2	4	4
53	53	4
63	63	5
57	68	3
54	54	7
51	52	3
50	93	8
14	14	3
51	51	5
42	134	2
71	75	2
66	67	6
17	17	3
111	112	2
14	15	3
21	21	4
55	87	2
85	85	1
80	85	2
78	78	4
82	110	2
77	77	5
139	139	2
40	40	2
101	101	5
100	100	2
56	89	4
140	142	1
9	37	2
28	50	1
97	122	1
24	25	2
57	72	2
26	26	3
3	3	3
120	120	7
111	122	3
91	91	3
31	31	3
71	71	3
0	22	2
8	37	5
136	141	3
25	25	2
82	133	4
36	36	2
16	16	3
41	42	4
6	42	3
6	34	1
136	142	3
63	69	2
38	38	2
129	129	4
101	104	2
66	66	2
42	42	4
92	92	2
91	124	5
5	14	6
141	141	3
141	145	1
124	124	5
75	76	1
132	138	2
56	56	2
14	19	5
134	138	1
94	96	4
81	141	1
64	65	1
23	23	4
25	26	1
142	142	1
31	32	1
1	2	3
20	22	4
123	123	2
87	89	1
73	139	1
3	6	4
89	89	1
75	87	6
58	58	5
112	112	5
61	61	5
30	42	1
68	68	2
124	136	1
73	82	3
80	139	3
81	86	1
90	90	2
97	110	2
37	38	2
98	122	1
91	93	2
57	69	2
0	21	2
43	138	1
87	87	2
132	133	1
100	102	1
126	126	2
47	47	1
1	20	1
106	108	1
82	134	1
4	5	4
26	27	2
30	30	4
23	25	1
99	99	4
9	33	1
43	43	1
74	76	1
60	61	5
75	75	1
16	42	1
81	85	1
34	34	7
65	66	2
67	67	4
72	72	2
6	14	1
137	137	1
2	34	2
135	135	4
28	30	1
26	29	2
103	107	1
132	135	1
98	130	1
31	33	1
57	57	1
115	124	1
5	6	1
58	60	1
133	133	1
70	73	3
110	132	1
74	74	2
97	101	1
58	74	1
125	125	1
111	111	1
6	11	1
94	118	2
72	82	1
16	17	1
47	134	1
61	67	1
114	114	1
4	25	2
101	109	1
13	14	1
138	140	1
97	97	1
122	122	2
94	94	1
20	20	1
18	27	2
13	13	1
58	59	1
91	96	1
