41	41	21
29	29	22
6	6	6
124	125	9
68	68	21
111	111	16
45	45	12
63	67	1
104	104	20
93	151	3
2	2	8
140	140	15
1	1	13
97	98	4
8	52	6
85	86	9
125	125	19
121	122	19
95	96	19
152	154	6
25	26	4
154	154	14
105	105	10
43	43	39
140	141	7
117	117	16
83	83	11
7	7	17
64	64	13
131	132	10
111	112	12
94	95	8
141	141	17
38	39	9
101	127	3
53	54	12
55	55	17
55	119	3
3	3	30
35	36	5
31	45	2
18	24	1
20	20	25
92	93	9
49	49	9
130	131	5
156	157	7
38	38	13
152	152	11
13	13	16
51	52	5
131	133	14
137	137	17
153	153	16
78	78	25
126	127	7
36	40	5
136	137	11
98	98	14
36	68	2
39	39	22
54	54	15
23	23	12
46	46	16
150	152	3
139	139	24
136	136	20
138	138	12
62	62	5
79	135	3
144	145	8
50	77	6
111	127	4
5	5	14
150	157	2
71	71	17
81	81	13
106	106	13
118	118	8
123	127	5
27	27	15
84	84	14
78	79	8
157	157	27
108	109	3
102	102	7
13	19	2
25	25	20
124	124	16
77	77	24
91	91	15
105	113	4
44	44	35
87	87	17
73	73	17
96	96	11
46	47	2
47	47	13
30	30	20
119	119	27
113	123	2
135	135	17
34	34	18
12	13	13
133	133	13
34	37	8
142	142	15
69	69	15
113	113	23
94	96	4
54	55	10
33	34	10
55	141	2
127	127	20
144	144	13
146	146	18
21	21	23
52	53	12
80	80	14
112	112	16
135	138	2
67	71	6
94	94	16
123	123	14
16	19	2
120	121	1
2	3	7
104	105	8
21	22	6
36	36	11
148	148	14
42	42	15
79	79	24
103	104	5
76	96	4
145	145	15
123	126	7
10	10	4
36	84	7
16	16	11
41	42	10
24	24	20
112	126	2
122	142	2
92	116	1
112	123	3
37	37	9
40	40	11
129	129	22
66	66	8
47	48	4
120	134	2
158	158	10
132	132	8
137	138	11
7	11	7
5	6	3
155	157	6
115	115	16
144	149	2
12	12	16
7	8	13
53	53	16
25	27	3
47	51	4
29	30	7
8	24	1
15	15	16
24	51	4
22	23	6
128	128	13
81	82	6
120	141	6
9	18	2
134	134	15
86	86	22
103	103	11
99	99	7
38	41	3
95	95	17
11	11	15
18	18	16
70	70	19
36	47	1
48	48	19
90	90	9
93	93	11
3	4	5
0	0	11
150	150	17
65	69	1
88	88	21
26	26	15
156	156	18
14	14	9
54	56	2
32	33	7
108	110	3
98	151	5
14	15	1
51	51	13
100	101	2
91	92	1
7	53	5
99	100	4
90	92	1
131	131	11
23	25	1
154	158	4
134	135	6
124	126	2
108	111	3
154	155	6
49	53	1
69	136	1
130	133	4
141	143	1
57	57	5
86	87	8
52	79	5
9	10	4
126	132	2
48	49	10
123	125	1
97	97	7
67	67	11
93	96	3
32	32	3
108	108	14
109	109	12
84	85	13
81	83	3
145	146	3
153	158	1
126	129	2
103	105	3
107	107	19
33	33	21
110	110	20
114	114	13
52	52	15
105	107	3
84	86	1
28	28	23
110	111	1
100	100	7
113	114	4
56	119	2
8	10	1
50	53	2
103	150	2
133	134	3
146	147	2
122	122	8
120	120	15
128	129	5
77	78	16
76	76	7
85	85	18
63	63	9
136	141	5
126	126	11
64	65	1
65	66	2
31	31	5
9	9	10
92	97	3
50	52	1
50	54	3
89	89	6
135	136	3
65	65	4
64	156	5
14	22	1
73	75	1
22	22	21
116	116	22
101	101	17
42	55	1
20	40	2
48	55	3
130	130	24
117	121	2
111	123	1
19	20	5
102	104	3
16	42	3
37	83	2
88	89	5
24	71	1
8	8	2
113	115	5
62	154	2
115	116	13
86	91	4
17	18	5
123	124	6
37	38	8
109	110	4
14	42	1
23	113	1
124	133	6
19	40	1
0	3	3
147	148	3
50	51	12
18	19	3
68	69	3
38	47	3
147	147	16
92	95	2
82	82	10
92	92	16
151	151	14
34	86	1
17	17	19
85	108	3
121	121	14
113	145	2
105	106	2
43	88	1
157	158	9
57	65	1
75	75	11
88	96	1
30	45	2
28	29	1
138	140	3
151	159	1
56	56	7
93	94	4
140	142	1
20	21	3
67	68	8
48	51	3
26	27	6
114	115	12
4	5	2
13	14	1
79	80	8
10	22	6
78	147	3
8	11	4
25	56	1
38	55	2
96	114	3
96	97	3
105	109	2
58	66	1
27	28	4
11	12	7
116	148	2
34	47	1
139	141	2
148	149	2
150	151	5
153	154	5
37	68	3
16	18	1
150	153	1
52	54	1
142	143	3
107	110	1
78	80	6
113	126	1
69	70	4
150	158	2
26	75	1
10	11	4
116	117	3
105	108	1
31	53	4
19	19	4
90	91	1
89	96	1
92	114	1
157	159	3
70	71	5
24	129	1
24	25	6
11	52	3
88	152	1
17	25	4
35	35	8
6	44	2
95	97	2
40	42	3
90	150	1
48	50	1
40	41	7
140	152	1
67	70	7
41	57	1
155	155	4
1	2	4
36	38	6
118	119	9
68	71	6
9	14	3
87	88	3
105	112	1
62	63	3
83	84	4
46	48	1
151	152	3
114	135	2
145	147	3
105	115	1
24	48	2
107	108	5
50	50	4
111	142	1
79	134	2
46	52	1
132	139	1
39	40	1
9	11	2
61	62	2
116	133	2
51	76	1
68	70	4
4	4	10
16	41	2
63	64	2
62	109	1
156	159	1
149	149	7
124	134	2
63	157	2
114	136	2
63	110	3
101	128	1
87	90	2
23	29	1
129	131	1
139	140	5
144	147	1
113	116	1
47	53	2
64	68	5
54	79	2
138	139	2
16	17	3
7	9	1
82	118	2
142	153	2
71	136	2
68	118	1
31	32	1
80	81	5
63	154	3
116	134	2
112	113	3
32	34	2
38	69	2
5	63	1
40	56	1
25	38	2
121	142	2
37	71	2
112	116	2
13	16	2
125	126	1
143	143	2
132	133	3
118	134	1
14	16	1
30	31	3
72	75	1
17	26	3
37	85	2
72	72	2
79	114	2
141	142	2
42	68	1
72	73	3
35	87	1
116	127	1
40	43	2
38	40	2
36	39	4
33	46	1
34	42	1
13	79	3
49	50	2
57	62	1
90	153	2
36	48	1
23	40	1
129	156	1
81	155	2
77	80	2
53	78	2
112	122	1
111	130	2
36	37	1
137	139	1
33	45	1
109	124	3
0	1	1
129	130	2
107	109	2
127	128	2
19	21	2
80	114	1
89	90	3
14	79	2
130	149	1
38	74	1
83	156	1
112	115	1
31	39	1
82	83	2
82	133	1
141	150	1
9	53	1
117	118	2
90	107	1
44	45	1
131	139	1
128	130	1
93	95	2
143	144	2
46	53	3
11	23	1
70	135	1
61	68	1
106	107	1
119	120	1
123	146	1
55	69	1
37	40	1
87	89	1
56	57	1
61	71	1
151	155	1
106	108	1
125	133	1
6	9	1
102	103	1
86	90	1
1	3	1
6	7	1
90	145	1
80	82	1
