205	205	5
190	208	7
1	9	3
32	33	9
190	194	2
11	14	1
168	181	2
17	26	1
75	76	1
202	202	5
186	217	3
233	233	9
166	176	2
48	62	5
8	8	16
58	59	7
50	50	14
20	147	3
41	54	2
60	74	2
45	45	3
101	101	8
180	180	3
92	92	14
154	160	3
74	76	6
183	183	9
202	203	2
53	60	1
4	7	4
193	196	5
67	67	6
45	55	6
69	75	3
93	93	12
52	72	9
99	100	3
53	69	2
19	33	5
174	176	3
23	25	2
165	165	10
198	198	5
241	241	4
56	76	4
59	74	5
239	241	2
191	211	1
171	171	13
102	114	6
29	32	3
234	234	6
93	95	4
156	157	3
100	101	2
57	57	18
70	71	5
116	117	6
63	67	6
31	31	9
6	6	2
107	109	8
182	195	4
64	65	3
55	56	4
16	16	8
63	63	4
6	8	6
7	9	3
176	188	2
77	78	1
91	91	9
232	245	3
208	220	6
217	217	2
235	235	2
72	84	4
105	107	5
43	43	4
226	226	5
54	54	6
18	18	5
57	68	3
196	201	5
162	179	3
163	168	2
211	211	9
15	15	2
244	244	10
41	41	5
88	99	3
223	223	7
29	36	10
8	156	1
65	65	3
208	208	10
14	30	3
23	42	5
2	3	3
243	243	8
95	98	3
9	9	12
35	35	4
210	210	6
237	237	5
115	115	5
240	241	3
221	221	5
160	161	3
111	112	11
63	64	3
63	74	2
14	19	2
110	114	3
36	50	2
95	95	7
214	215	5
95	100	3
39	44	3
201	202	1
81	94	1
26	37	1
166	166	7
215	215	8
78	78	13
158	158	7
173	178	2
46	46	5
49	49	4
8	10	6
232	247	1
64	64	3
103	106	1
11	12	1
151	182	1
30	31	2
227	231	2
163	164	1
177	187	2
66	68	5
221	239	3
238	248	6
26	34	2
231	235	5
64	66	2
23	34	2
193	206	2
153	154	4
9	25	1
12	19	2
28	47	1
53	77	3
3	11	2
86	86	6
98	100	2
2	4	2
214	225	1
77	77	2
231	247	3
166	180	2
244	247	2
65	69	2
230	230	4
12	22	1
246	248	1
20	20	9
17	17	6
188	188	4
157	157	9
23	23	5
73	77	2
177	189	6
174	174	2
229	240	5
168	196	1
28	31	5
48	49	6
212	212	4
195	196	3
162	162	5
30	30	9
203	203	5
72	72	1
47	47	1
223	227	7
62	80	3
227	241	1
1	4	1
117	144	3
150	150	8
10	10	6
220	245	2
60	62	2
76	82	1
60	61	4
237	240	2
55	58	4
232	236	1
179	180	4
160	169	7
94	94	6
191	220	3
226	230	1
39	64	1
20	24	3
169	172	4
52	54	6
19	19	2
98	98	4
203	208	1
203	206	2
247	248	5
181	181	1
190	220	2
219	226	2
113	113	7
4	5	5
227	232	3
73	73	6
197	197	5
227	229	1
204	204	3
73	212	1
81	81	3
71	87	1
164	171	4
189	191	5
13	22	3
171	174	2
152	152	6
201	201	6
155	155	6
230	246	1
42	47	1
213	218	5
27	27	7
196	197	4
222	222	7
113	115	2
221	227	1
186	186	4
80	80	1
116	116	9
16	23	4
21	29	4
242	242	1
23	32	1
51	51	5
194	206	7
107	107	9
90	90	4
224	224	12
71	71	3
99	99	5
177	186	6
210	225	5
75	75	7
88	179	1
226	227	3
8	158	6
59	75	1
36	47	1
112	113	3
234	236	1
52	52	4
218	225	1
238	247	4
52	65	3
2	2	3
56	56	4
220	233	2
159	159	5
44	59	4
67	74	6
246	247	1
53	62	2
61	68	1
221	229	2
177	179	1
192	203	2
76	79	1
160	160	7
81	85	1
32	32	6
214	221	1
12	14	3
33	34	2
12	12	5
68	79	6
156	168	3
151	162	1
194	194	5
161	161	7
37	37	8
29	30	1
200	200	6
64	82	1
86	99	3
247	249	4
34	51	1
199	202	2
24	39	3
29	33	1
212	213	3
216	221	2
71	75	6
209	210	5
62	74	1
70	70	8
179	199	4
153	162	3
105	115	3
61	61	4
42	43	3
87	98	2
31	40	3
222	237	5
10	22	5
90	102	3
114	117	6
85	85	4
29	29	7
2	11	1
171	186	3
26	27	3
22	26	1
176	195	3
5	7	1
11	11	6
38	39	9
105	105	10
194	195	4
209	213	2
96	96	3
20	21	2
219	219	2
164	167	4
97	99	5
24	24	2
25	31	1
62	91	4
39	39	4
167	168	1
33	46	3
180	190	5
238	239	7
180	181	2
38	38	3
55	55	3
56	57	2
102	103	3
204	208	3
152	165	3
185	186	3
119	120	2
154	154	6
6	13	1
57	72	2
26	26	4
199	209	5
101	114	1
162	166	3
212	229	3
198	209	3
33	33	4
30	34	1
175	191	1
100	105	1
165	175	4
207	218	3
151	151	4
230	239	1
206	206	1
168	169	1
209	209	7
54	55	1
229	234	1
154	155	4
175	175	8
89	91	2
15	16	1
106	115	2
179	179	5
91	95	2
8	27	5
169	171	1
231	231	2
34	47	4
117	117	4
157	161	2
118	119	3
64	72	1
6	7	2
205	206	3
181	206	2
189	189	5
173	174	2
30	229	3
211	213	1
187	189	2
36	36	9
64	77	1
79	79	2
163	171	1
75	90	3
144	206	1
60	66	1
153	153	2
47	57	5
152	160	3
85	98	2
100	102	1
167	170	2
22	23	1
17	19	2
225	237	1
43	50	2
117	120	1
53	75	1
79	89	2
87	87	5
176	196	1
232	232	2
234	235	2
96	110	3
35	90	1
178	184	1
237	238	5
34	34	1
175	176	1
177	177	3
31	147	1
84	153	3
89	89	5
222	224	2
48	48	3
91	92	3
165	168	2
187	187	3
22	22	4
109	144	3
14	26	3
8	23	1
192	205	1
1	1	5
156	156	8
82	82	2
53	55	6
109	109	2
204	210	1
86	88	2
157	166	2
213	213	4
71	76	2
208	221	2
245	245	7
158	160	3
106	109	4
213	225	1
84	84	1
33	228	2
208	210	1
174	178	3
224	228	6
49	66	2
22	24	2
185	190	2
204	219	4
91	107	1
62	79	3
7	7	5
193	193	3
155	158	2
47	61	3
98	102	2
9	22	1
217	219	2
151	166	2
226	233	2
227	230	1
70	100	2
224	226	3
213	219	3
23	24	5
44	184	5
177	180	2
95	104	1
201	205	2
42	49	1
200	201	2
185	185	3
175	184	2
100	100	1
10	18	2
24	32	3
144	145	2
68	71	1
222	247	2
85	158	1
56	63	1
187	197	2
63	85	1
239	239	6
217	225	1
172	186	1
73	89	1
178	178	2
236	236	4
51	62	2
83	83	1
31	42	1
21	22	4
217	231	2
66	74	2
190	190	3
57	61	1
174	187	1
19	20	3
219	222	1
60	67	3
220	220	2
146	161	1
149	149	2
69	76	2
158	166	1
68	76	1
10	25	2
95	97	1
174	186	2
14	23	1
32	36	2
223	224	1
242	245	4
43	54	3
207	207	1
12	236	1
14	15	2
216	216	3
16	17	3
238	246	1
197	201	3
72	92	1
61	62	2
154	164	2
232	246	2
216	217	2
161	206	1
56	58	1
5	20	1
171	177	1
12	155	3
104	119	1
84	97	1
150	151	2
58	58	1
175	189	1
205	208	3
22	27	1
35	51	1
109	116	3
225	225	8
67	72	1
194	196	1
210	211	2
112	117	3
111	111	3
73	85	2
185	188	4
114	114	1
40	49	2
69	71	1
246	246	2
169	169	2
4	12	1
209	218	3
150	153	3
214	218	2
184	185	1
150	160	1
68	80	1
86	214	1
94	113	4
98	104	1
98	114	1
58	60	1
16	20	2
169	174	1
217	218	2
185	189	4
152	153	1
63	66	1
192	197	2
199	201	2
176	189	4
7	18	4
163	196	1
84	86	1
40	40	4
192	193	2
5	5	1
225	226	1
108	109	1
209	219	1
201	217	4
103	105	2
198	199	2
233	245	3
78	90	2
14	155	1
156	172	1
152	159	1
247	247	2
158	161	1
194	210	1
189	192	1
161	200	1
85	100	1
44	64	1
161	179	3
22	25	1
67	69	1
167	179	1
195	200	1
92	107	2
53	53	3
146	146	1
28	28	1
50	61	1
77	87	4
44	44	3
45	60	2
228	228	4
229	229	4
9	18	1
162	164	1
187	188	3
37	39	2
208	219	1
239	245	1
10	11	1
156	173	2
244	245	1
38	53	1
229	230	1
162	163	1
3	3	2
194	204	2
164	166	1
48	50	1
55	90	1
233	234	2
167	167	2
158	184	1
233	247	1
24	34	1
75	84	1
22	43	1
231	232	1
224	240	1
52	53	1
24	43	1
182	183	1
227	227	2
183	185	2
2	10	2
184	184	1
31	229	2
37	38	1
21	34	2
10	206	1
48	52	1
152	181	2
223	234	2
231	234	1
102	102	1
82	86	1
11	41	1
7	8	1
226	238	1
244	246	1
232	235	2
38	43	1
240	240	1
168	187	1
245	248	1
29	38	1
119	149	2
168	174	3
59	61	2
4	4	1
28	39	1
191	191	1
39	48	1
235	237	1
45	46	1
213	235	1
66	76	1
206	226	1
82	94	2
163	184	1
182	185	2
182	182	2
220	221	1
51	92	1
26	28	2
224	225	1
165	166	1
76	78	1
106	118	1
42	42	1
47	52	1
218	231	1
61	103	1
2	7	1
57	58	1
74	74	1
28	37	1
28	40	2
36	46	1
50	65	1
163	189	1
53	72	1
202	218	1
80	81	2
106	107	1
59	60	1
56	233	1
100	108	2
76	76	1
190	191	1
28	29	1
211	216	1
29	31	1
151	165	1
230	231	1
60	64	1
72	87	1
86	87	1
62	68	1
47	50	1
34	37	1
61	74	1
161	169	2
45	61	1
101	105	1
215	222	1
1	19	1
47	51	1
77	90	1
85	245	1
84	85	1
80	82	1
204	205	1
192	196	2
166	167	1
78	89	1
94	95	1
24	35	1
77	79	1
165	171	1
208	229	1
68	68	1
114	115	1
110	110	1
147	147	1
3	18	1
1	15	1
