64	64	4
41	41	11
49	49	15
77	77	13
51	51	10
2	2	7
23	65	2
58	58	10
27	27	7
71	71	20
52	56	1
54	57	4
22	22	11
61	61	5
26	75	2
44	44	10
63	66	2
29	55	2
21	21	12
38	38	3
36	36	8
33	33	18
68	68	17
22	66	5
8	8	11
74	74	8
34	34	10
64	65	6
60	60	8
49	74	1
4	4	15
3	3	3
69	69	8
13	13	23
19	19	8
65	65	8
1	2	4
26	26	10
37	39	4
67	68	1
21	32	7
33	45	1
42	42	2
37	37	7
38	64	2
8	9	9
56	56	4
39	39	2
66	66	12
30	30	9
53	67	5
14	73	1
66	67	2
7	7	14
32	32	5
33	46	12
22	23	4
39	41	4
44	45	3
22	35	6
43	43	5
18	22	2
12	12	3
12	13	1
50	50	11
55	55	5
24	24	9
57	58	2
35	35	7
9	9	11
25	26	5
5	5	10
11	14	1
30	31	3
7	75	5
11	11	9
62	65	5
73	73	9
45	46	2
13	58	1
56	57	5
31	32	3
45	64	1
6	7	2
37	38	2
72	73	3
48	48	5
48	59	1
39	43	2
51	52	5
28	30	5
45	45	4
52	64	2
54	54	5
5	73	1
57	57	11
72	74	4
14	14	2
1	1	11
18	18	2
35	43	4
34	35	2
41	42	4
4	71	2
50	58	1
76	76	10
10	10	3
29	32	1
51	57	2
40	40	2
25	25	6
11	15	2
6	6	13
71	73	4
75	75	2
13	72	3
12	74	1
6	75	2
27	42	4
68	76	3
19	21	7
39	40	3
28	28	5
56	58	1
60	61	2
59	59	1
41	43	7
30	62	5
0	2	2
37	42	2
27	47	3
33	34	3
19	20	3
19	34	2
44	60	1
27	32	2
41	75	1
35	45	2
23	23	6
47	47	6
57	68	3
42	45	3
38	52	1
74	75	3
65	66	4
7	11	3
63	63	2
46	46	9
9	13	2
27	31	5
53	55	2
70	73	3
29	29	2
7	8	3
20	46	5
48	49	1
52	52	6
62	64	1
20	20	3
37	43	3
4	6	3
32	48	3
70	70	2
58	59	1
48	73	1
13	14	3
0	0	5
12	71	2
21	25	4
50	52	3
70	71	1
22	46	1
69	72	1
29	47	2
69	70	1
34	44	3
31	31	5
62	66	2
29	58	3
39	42	2
41	74	1
52	53	2
7	13	1
7	74	2
61	62	4
62	68	2
31	48	4
49	50	2
4	73	1
3	77	1
64	66	1
36	40	3
28	31	1
28	29	1
29	60	1
40	75	1
10	11	2
19	35	4
24	25	1
0	13	3
53	53	4
58	76	1
56	72	1
35	44	1
23	24	2
55	59	1
22	45	2
45	63	1
49	69	1
32	47	2
43	44	1
57	59	1
62	62	2
37	63	1
58	64	1
24	29	1
77	78	1
20	33	1
67	67	1
26	27	1
40	41	1
57	76	1
