56	138	3
148	152	2
110	111	13
56	56	32
112	116	3
126	133	3
94	94	28
85	85	41
125	126	9
10	10	52
119	148	6
158	159	20
109	156	2
40	41	5
115	116	15
138	139	8
44	44	33
155	155	40
43	43	52
127	127	41
3	3	36
1	4	5
63	64	4
77	78	13
15	15	40
107	108	7
125	125	44
103	103	20
132	132	37
17	17	36
87	87	26
79	79	41
26	26	35
68	69	12
110	110	28
74	74	32
69	69	56
69	74	2
73	73	50
99	99	53
167	167	27
157	158	7
64	64	18
90	108	4
131	147	8
17	18	13
109	150	9
36	36	36
134	134	32
13	14	10
65	65	50
7	10	5
9	9	15
83	145	7
105	106	18
96	96	43
120	128	3
108	108	45
67	68	18
156	156	51
73	75	2
5	114	3
47	48	24
18	18	24
40	169	2
46	46	27
125	158	3
70	70	36
34	35	7
90	90	38
2	2	28
149	149	43
163	163	50
49	49	42
139	139	29
165	165	34
86	87	15
154	154	39
10	11	7
53	56	2
20	21	19
76	76	24
40	40	17
24	24	35
124	124	31
23	24	8
143	154	3
57	57	30
145	145	35
113	113	31
52	52	38
53	53	44
35	35	31
106	106	44
25	25	38
95	95	26
147	147	35
44	52	3
71	71	43
18	48	5
119	119	42
127	129	7
85	87	5
153	153	51
128	129	10
39	81	4
56	101	3
94	120	7
80	80	31
34	34	45
126	126	26
21	166	4
6	6	21
18	26	3
112	112	38
139	140	23
143	144	9
15	16	15
102	102	34
156	157	13
128	130	12
131	133	5
38	41	2
137	137	40
159	159	22
91	92	6
40	81	1
71	123	3
129	130	14
97	97	34
148	148	17
129	158	4
115	115	52
169	170	11
79	112	2
166	166	40
142	142	30
130	131	11
155	156	15
99	163	3
151	151	16
41	41	43
122	122	35
23	51	4
84	151	3
33	33	16
69	75	3
117	118	16
49	56	4
101	101	17
39	138	2
140	156	1
78	78	22
118	119	8
41	42	9
8	9	2
67	113	4
157	157	30
109	119	11
93	93	24
128	128	41
100	100	35
143	143	39
113	114	18
47	47	23
152	152	51
68	68	39
7	7	32
118	146	2
150	150	32
97	98	13
140	140	53
22	23	4
75	75	21
109	110	16
51	51	24
101	102	25
54	54	48
138	138	31
89	138	6
98	98	32
37	158	2
169	169	35
37	37	26
98	99	10
70	73	4
126	127	18
154	158	3
84	85	9
84	87	7
35	36	25
5	5	30
83	168	2
81	166	3
146	146	36
66	66	31
18	19	8
110	163	2
92	93	11
85	86	13
130	130	33
14	14	30
78	80	6
67	67	28
114	114	28
158	158	31
168	169	7
142	143	14
151	152	14
153	155	3
164	164	42
140	141	9
25	26	4
12	51	2
144	145	11
9	10	6
16	26	2
88	151	2
35	43	2
132	133	17
38	38	38
109	109	27
153	154	23
48	48	33
112	114	6
78	79	10
120	142	1
131	134	4
118	118	37
55	55	40
3	5	1
132	149	4
96	97	15
116	117	7
4	4	51
64	69	4
100	162	1
45	46	8
71	141	9
57	150	5
86	86	38
8	8	21
88	88	17
77	77	10
135	136	6
159	160	5
65	75	2
5	6	11
90	107	8
161	161	28
22	22	27
161	162	8
99	167	9
76	142	1
64	73	2
24	25	10
95	166	6
152	153	3
21	21	35
88	89	19
11	26	5
133	134	16
79	80	15
62	62	13
40	51	1
82	82	16
11	111	2
81	81	12
89	148	4
1	1	31
77	82	3
114	115	20
141	142	3
146	153	3
69	71	3
3	15	1
105	105	35
76	77	5
119	143	4
89	147	3
68	70	5
10	47	5
111	111	30
136	136	45
36	167	1
71	143	6
27	28	9
35	88	7
76	155	4
162	162	45
163	164	26
0	0	20
3	4	16
119	121	6
133	133	26
4	70	2
117	117	28
46	50	8
91	91	43
107	107	35
134	137	2
170	170	15
91	98	7
129	140	3
108	156	2
113	118	2
168	168	25
120	130	11
27	166	2
141	141	34
67	170	4
78	147	4
94	95	13
17	21	5
23	23	29
70	71	20
0	1	14
138	145	8
144	144	41
39	40	8
12	46	3
131	131	29
45	45	22
150	153	2
120	122	1
66	67	16
50	50	10
122	123	7
20	20	24
19	19	15
162	164	7
41	155	5
52	53	10
116	116	38
62	64	8
26	27	12
89	89	20
149	160	1
148	149	4
14	16	2
13	13	32
47	157	5
27	27	28
43	58	1
135	135	25
86	153	5
84	112	1
103	134	4
133	160	2
0	112	2
92	92	14
14	76	2
160	161	8
67	122	2
83	83	34
153	164	4
84	84	31
77	80	8
6	51	1
164	165	22
26	33	2
39	39	11
42	43	2
120	120	19
130	150	4
84	153	3
1	2	10
81	85	2
89	109	1
136	137	19
127	146	6
129	129	30
109	133	2
43	44	10
145	146	8
121	127	4
150	158	10
50	57	3
111	112	24
75	146	2
54	55	12
104	104	28
0	15	1
73	74	2
108	109	15
85	147	3
121	121	19
11	12	12
137	138	5
19	20	4
112	113	6
16	16	29
11	11	38
84	124	3
110	112	4
99	162	2
72	72	24
129	136	10
123	134	2
63	63	20
3	137	2
104	168	1
42	42	23
38	40	10
111	135	3
123	123	44
13	118	1
7	38	3
100	101	19
74	77	2
26	52	3
105	133	3
80	81	4
17	139	4
116	140	2
129	143	2
4	7	7
13	137	8
36	41	2
37	38	7
93	128	4
36	163	1
93	105	1
165	166	5
142	144	9
80	114	4
106	159	6
166	167	12
12	12	19
75	76	4
66	79	5
130	133	7
149	150	9
66	68	12
146	148	2
76	82	3
120	121	16
95	165	11
11	13	4
158	160	7
93	94	21
89	119	1
71	72	11
110	118	2
131	150	6
44	45	7
66	74	1
86	88	5
11	119	7
57	76	4
54	125	11
53	57	3
13	20	2
160	160	39
20	138	1
95	102	4
38	57	1
12	79	1
6	10	4
16	43	1
33	35	7
53	55	5
131	132	9
97	148	4
37	41	3
102	104	13
102	145	1
38	39	3
121	122	3
91	121	1
16	20	4
98	119	1
22	27	2
127	139	1
8	84	1
72	148	2
54	102	2
68	164	4
84	134	3
122	148	1
62	63	4
14	17	4
106	167	3
89	90	11
87	89	6
128	165	1
111	136	1
126	128	3
103	104	6
19	23	1
82	83	13
82	117	3
58	67	3
138	140	2
132	160	1
53	54	9
57	63	2
38	149	1
10	166	4
124	125	10
16	17	2
131	135	3
90	126	2
56	57	6
48	52	7
27	43	1
24	51	1
101	103	2
132	142	4
87	144	3
9	45	1
71	140	3
123	124	5
47	156	5
81	82	9
91	106	4
69	73	4
5	54	1
143	145	3
8	40	3
111	116	3
68	152	3
64	71	1
20	22	6
90	96	2
45	47	1
162	163	7
27	113	3
12	76	2
152	157	3
69	125	1
161	163	11
21	22	8
55	56	9
70	112	1
102	166	2
81	86	4
96	122	3
99	102	1
145	148	3
161	166	2
134	135	9
1	71	3
94	105	3
88	143	3
108	149	1
0	10	4
88	152	1
106	162	2
93	124	1
127	131	10
6	7	6
106	107	5
127	128	5
91	110	4
159	169	6
63	87	2
5	8	6
124	127	3
64	112	3
103	146	5
57	81	2
65	66	7
90	110	5
98	100	1
39	84	2
13	158	4
66	69	1
146	147	4
76	152	2
28	28	7
74	78	3
95	96	3
12	117	2
91	93	2
160	162	8
73	121	1
95	106	2
7	156	1
68	80	4
82	116	1
50	51	7
77	103	6
154	155	6
1	28	4
106	128	2
163	168	2
81	153	1
69	70	21
16	18	5
137	140	5
46	47	7
27	111	2
36	150	5
36	159	4
77	146	1
48	49	7
7	40	3
13	139	1
72	120	1
15	25	4
64	132	2
77	81	4
94	165	6
86	141	1
97	107	2
92	127	3
46	51	2
116	131	4
87	146	1
8	45	6
58	58	3
57	68	3
93	165	1
70	74	1
1	136	3
71	152	2
154	162	1
100	126	1
18	115	3
41	167	1
0	6	4
73	145	3
41	169	2
105	107	4
47	49	7
37	167	2
12	13	4
38	168	3
124	136	2
88	109	2
12	64	4
167	168	12
102	105	2
147	148	12
89	97	2
74	75	4
53	162	3
94	121	1
83	166	4
88	135	3
53	123	1
128	146	4
134	158	1
37	88	1
85	132	1
127	130	6
55	66	3
83	116	6
130	158	3
101	104	1
112	118	4
97	99	4
65	112	3
72	73	4
8	44	3
76	140	4
70	168	1
57	74	1
72	140	3
26	165	3
160	168	5
155	157	3
128	131	3
152	154	5
83	85	1
87	88	6
140	144	3
118	143	2
90	91	12
150	151	9
108	148	2
49	51	3
76	153	5
19	48	1
36	37	7
48	66	1
110	127	1
163	165	1
9	19	1
48	56	2
19	63	2
63	122	3
42	53	2
73	76	5
24	26	4
127	136	3
134	150	1
90	97	10
159	167	2
39	86	5
0	38	2
75	84	1
54	75	2
14	15	2
141	144	1
96	99	1
70	142	3
10	22	2
80	119	1
94	124	2
100	102	7
66	77	1
40	85	1
55	139	1
12	118	1
125	127	1
10	51	3
55	67	2
90	145	2
156	159	1
89	143	1
128	135	1
4	6	1
68	112	2
152	155	1
89	137	3
132	134	2
148	151	2
82	86	1
8	70	1
119	120	5
76	101	2
104	105	1
64	66	8
127	140	1
145	154	1
48	53	1
12	19	2
76	114	4
11	76	4
92	95	3
142	154	3
109	167	1
81	168	4
95	110	4
2	3	4
82	145	2
51	52	1
50	157	3
20	52	1
104	107	1
20	27	2
98	170	2
101	105	1
3	24	2
102	103	10
10	167	1
111	127	3
132	147	1
53	112	1
117	145	3
71	80	1
56	71	2
6	72	2
82	166	2
89	91	1
99	101	1
19	24	1
94	109	2
75	85	1
10	116	5
107	109	3
47	53	1
124	135	1
105	144	2
18	70	2
22	137	1
40	147	1
107	129	1
6	8	4
160	163	3
11	65	1
94	125	3
42	88	1
0	2	1
118	145	2
11	14	1
65	154	1
127	138	1
94	96	4
0	62	1
121	128	3
139	141	4
98	130	2
89	132	1
79	119	1
65	67	2
77	79	1
39	82	1
112	163	3
107	128	4
134	141	3
48	54	4
36	42	1
131	155	2
130	144	1
158	168	3
15	47	1
76	154	2
81	83	3
4	72	2
64	65	2
149	151	2
109	157	1
108	164	1
93	125	1
38	138	1
128	148	3
2	26	3
68	73	1
1	111	3
131	139	3
62	142	2
7	9	1
56	68	1
16	167	2
151	153	1
129	167	1
84	144	3
97	100	1
83	165	2
94	128	2
87	143	2
10	114	1
42	150	2
11	77	3
75	77	1
23	25	3
1	7	1
126	134	1
162	169	2
102	126	2
106	108	1
161	168	3
63	72	1
12	47	4
85	169	3
28	35	1
137	145	2
142	155	2
66	78	2
93	96	5
87	98	1
109	120	3
36	83	3
54	56	1
83	86	1
90	93	2
96	107	2
49	50	2
6	9	1
78	81	1
17	48	1
89	96	2
72	123	2
79	151	1
79	113	1
51	58	1
53	75	3
98	101	4
78	84	1
94	122	3
104	132	1
66	151	1
105	127	1
108	126	1
64	128	2
109	134	1
64	121	1
112	117	3
65	80	3
105	160	3
10	43	2
134	138	2
71	138	1
12	20	4
133	142	2
130	132	4
73	128	1
129	134	1
117	131	1
129	163	1
75	154	1
57	58	2
56	76	2
65	127	2
91	126	1
74	76	2
2	15	2
37	168	1
11	22	1
133	164	4
153	157	1
36	133	1
66	136	1
92	105	1
132	159	1
33	34	2
13	26	2
39	168	2
10	21	1
66	71	1
64	144	1
48	64	2
96	165	1
95	97	1
0	165	2
17	155	1
83	115	2
129	147	1
70	136	1
23	27	1
151	159	2
107	169	1
51	74	1
66	111	2
124	126	1
43	162	1
150	155	2
91	105	1
114	116	1
39	83	2
159	161	1
53	74	1
76	149	1
93	164	2
103	167	1
43	57	1
165	167	1
7	8	2
154	163	2
99	100	2
103	105	2
5	72	1
93	102	1
116	139	1
90	136	2
123	162	2
4	170	1
85	144	3
123	125	2
63	123	2
16	24	1
129	135	2
70	152	3
1	86	1
64	89	1
96	110	1
84	86	1
10	115	1
71	145	1
25	28	1
66	153	1
84	113	1
88	134	1
99	164	1
48	55	1
0	11	1
3	136	1
52	74	1
48	63	1
133	150	3
120	143	1
94	129	2
129	144	2
141	155	1
70	123	1
90	109	1
83	84	2
137	144	1
8	75	1
83	136	1
84	88	1
6	52	1
7	113	1
131	148	1
94	119	1
5	16	1
82	154	1
119	134	1
133	135	1
65	68	1
39	155	1
9	39	1
39	52	1
83	133	1
54	99	1
54	169	1
160	164	1
91	96	1
36	158	1
18	47	1
57	62	1
130	147	1
21	53	1
41	150	1
63	129	1
19	50	1
55	76	1
86	147	1
50	63	1
21	138	1
62	143	1
21	52	1
100	164	1
11	18	1
22	24	2
88	150	1
68	123	1
35	137	1
132	136	1
154	156	1
156	158	1
2	112	1
33	42	1
43	52	1
111	163	1
24	44	1
80	141	1
162	166	1
13	21	1
