85	99	2
72	72	6
34	34	4
20	20	5
25	25	8
83	99	1
26	26	2
44	44	2
47	47	5
56	56	2
64	65	5
63	63	5
46	94	1
88	88	9
82	82	8
31	31	9
80	80	5
27	27	2
87	87	3
60	60	2
97	97	4
101	101	12
80	93	5
66	80	1
85	98	4
37	37	1
30	30	3
88	93	2
26	27	2
29	31	3
89	89	21
40	69	4
85	102	3
100	101	3
66	66	20
96	97	3
57	74	1
68	68	10
99	100	1
68	69	5
69	69	3
70	82	3
78	91	1
84	96	4
86	86	3
52	72	3
43	43	4
79	82	3
42	42	5
94	101	2
65	65	11
64	64	3
73	77	1
25	26	3
34	45	3
46	59	3
85	88	2
86	88	4
42	50	2
76	76	4
71	72	2
71	86	5
67	70	8
51	55	1
87	99	1
35	51	3
91	91	4
72	74	2
84	87	8
72	96	5
80	81	4
35	35	7
67	68	3
62	62	4
82	86	1
89	97	5
51	51	2
48	48	4
58	66	6
71	75	3
65	66	2
25	29	2
71	71	4
76	78	1
63	74	5
46	50	2
29	53	1
77	77	6
39	52	3
29	29	5
72	73	2
22	32	1
58	58	5
54	74	4
65	78	3
52	60	1
77	80	9
43	54	3
97	98	5
56	59	2
66	75	2
42	43	3
62	70	3
75	75	7
23	27	1
67	76	2
80	97	4
37	38	3
50	72	1
27	36	2
57	82	2
77	88	2
59	59	2
54	62	2
71	82	1
40	40	5
64	67	1
82	93	1
54	54	4
25	41	1
65	73	2
62	63	2
57	58	7
45	47	6
98	101	4
78	78	2
74	89	2
66	81	1
77	85	2
47	69	1
98	98	1
81	94	1
39	39	5
95	98	5
67	67	4
84	84	4
51	54	2
34	51	5
61	61	3
80	94	7
52	53	2
81	86	2
76	79	3
82	99	5
54	73	1
86	91	1
55	57	5
41	62	2
76	87	3
22	43	1
50	62	1
53	53	2
89	90	2
69	70	1
70	83	1
35	40	1
61	76	2
91	92	3
69	85	1
71	76	1
74	74	3
68	86	4
33	61	1
83	83	5
69	83	1
80	84	1
52	52	2
83	90	1
56	69	2
73	83	1
92	92	1
48	65	2
33	33	1
49	49	2
28	28	1
67	82	1
75	86	3
67	78	1
68	70	2
90	90	1
83	84	2
87	102	3
78	82	1
72	75	1
96	100	3
38	38	1
72	99	2
81	89	1
79	90	1
76	89	1
78	79	1
57	80	1
55	55	2
85	85	1
64	70	1
84	88	1
58	60	3
38	60	1
71	88	1
92	93	1
64	91	2
68	79	1
96	96	1
92	94	1
63	64	2
81	93	1
84	98	1
40	43	3
24	24	1
57	59	2
81	87	1
41	80	1
66	89	1
31	52	1
79	80	1
46	68	1
36	39	1
68	93	2
90	101	2
32	48	1
27	50	1
95	97	1
27	31	1
50	50	1
37	50	1
45	49	1
81	81	2
93	96	1
99	99	1
71	77	1
79	79	1
22	25	1
44	62	1
56	77	1
48	53	1
62	88	1
89	99	1
65	81	1
80	98	1
37	55	2
59	60	1
68	81	1
66	73	1
93	97	1
68	72	1
79	99	1
80	87	1
88	102	1
70	84	1
25	36	1
88	96	1
73	73	1
84	95	1
33	50	1
94	100	1
