92	92	22
6	6	10
13	13	31
67	68	4
70	71	5
103	109	4
15	15	17
42	42	21
117	117	17
130	131	4
62	62	16
90	90	13
79	79	3
111	114	6
81	83	3
4	4	17
123	123	20
86	86	13
70	70	13
53	53	10
75	76	6
87	87	11
33	33	21
24	24	13
77	77	13
44	46	5
103	108	3
10	10	15
77	78	2
115	116	11
101	101	15
121	121	18
107	107	21
84	84	12
100	103	4
50	54	4
128	128	14
23	23	19
113	113	17
119	120	3
121	122	3
83	83	9
100	100	9
68	74	2
41	41	15
115	130	4
7	7	15
30	33	2
131	131	19
109	109	14
44	45	6
128	130	4
129	129	19
69	117	2
118	118	12
25	30	1
56	56	14
30	30	22
8	8	17
108	108	21
5	5	22
51	51	17
1	50	2
3	3	21
3	4	6
15	54	2
116	116	28
117	118	2
23	28	3
104	104	16
9	11	7
52	52	19
46	46	13
118	119	2
45	45	13
44	47	7
16	16	4
86	88	1
66	66	18
122	122	13
75	75	12
19	19	11
33	34	8
14	18	3
93	94	8
97	97	10
91	91	31
65	65	12
76	78	2
69	69	17
10	11	8
34	34	11
11	11	11
5	42	4
67	67	18
58	60	3
131	132	5
58	59	18
39	39	17
18	18	16
80	80	15
102	102	10
60	79	2
54	54	25
88	88	8
96	96	6
112	112	10
130	130	6
76	76	20
55	55	16
16	55	5
40	40	13
85	85	9
69	70	9
19	64	5
12	12	10
114	131	4
27	27	14
78	79	6
32	32	16
126	126	10
29	31	2
59	59	10
24	31	5
124	124	22
44	54	3
15	17	3
81	81	11
72	76	2
119	119	26
93	93	18
114	114	12
1	1	19
57	57	6
64	65	6
111	111	25
98	98	18
47	47	8
83	111	2
89	89	18
82	82	19
81	102	6
59	60	2
42	43	6
74	74	10
20	20	6
28	28	7
60	60	8
73	73	13
24	25	1
43	43	11
24	75	2
9	9	11
99	100	2
17	18	1
110	110	19
90	91	4
94	94	11
69	76	3
29	29	6
72	73	4
6	39	4
67	72	3
52	53	20
83	84	1
65	79	1
72	72	5
14	14	8
124	125	4
104	105	4
112	113	3
80	83	1
116	131	1
68	68	29
14	19	3
3	29	2
129	130	2
96	132	2
98	132	3
22	24	2
14	15	5
15	20	4
107	108	4
49	49	23
69	102	1
88	89	4
68	83	2
102	103	4
40	45	4
92	93	1
60	61	5
95	96	1
127	127	10
38	41	1
11	44	2
99	128	1
39	40	1
120	121	3
103	114	2
100	101	9
113	116	2
14	17	4
109	110	2
105	106	5
88	92	3
71	71	16
49	50	1
48	48	20
113	114	4
106	106	12
17	17	8
46	47	5
69	85	1
25	76	1
31	31	2
132	132	13
89	95	1
89	90	3
47	123	4
89	91	3
26	26	8
62	65	5
100	105	2
59	66	9
16	17	3
111	113	1
32	42	1
98	119	1
26	27	3
8	9	3
57	58	8
89	117	7
5	6	1
74	75	4
45	46	1
38	38	5
21	21	9
69	86	2
46	51	1
51	53	3
61	61	8
44	44	3
63	85	2
110	111	2
61	62	5
22	22	7
30	31	5
20	41	2
2	2	19
107	109	8
105	105	9
126	127	5
78	78	5
6	13	2
3	112	2
75	77	4
0	0	9
67	83	2
120	120	6
115	115	15
133	133	5
72	74	8
23	24	4
83	109	1
115	131	2
91	92	7
33	41	3
106	107	1
50	51	1
108	110	3
18	19	4
75	78	5
76	77	10
87	88	3
50	50	5
22	23	2
20	66	2
34	77	1
32	43	1
83	107	2
27	29	2
125	125	4
70	72	1
110	132	2
45	47	2
56	57	1
15	16	4
62	67	2
18	54	2
58	58	8
63	64	3
7	10	4
99	99	7
63	67	1
82	87	4
63	65	1
3	53	2
0	1	3
127	128	4
63	63	4
55	56	2
12	46	1
68	69	2
57	104	1
56	65	4
64	64	11
60	84	2
105	109	1
126	130	4
49	57	3
116	121	4
11	12	2
129	131	2
9	10	3
72	115	1
79	80	1
55	63	1
13	14	6
111	112	4
17	43	2
99	125	1
23	31	1
103	116	1
96	97	1
74	84	1
103	104	2
21	32	6
37	38	2
70	126	1
61	65	2
23	30	2
81	109	2
91	97	1
8	12	3
82	105	1
122	123	2
16	18	2
102	115	1
22	42	2
101	111	1
1	2	2
2	3	2
125	128	1
104	106	2
16	19	1
84	101	2
70	74	1
104	111	1
22	78	1
78	84	2
32	33	1
67	69	1
80	82	1
38	40	2
20	55	2
39	54	1
24	76	2
93	96	1
42	56	1
1	51	2
94	95	1
95	95	5
51	52	2
73	113	1
58	78	1
42	55	1
98	130	1
59	85	1
40	41	3
13	47	2
68	85	2
20	21	3
76	111	1
115	132	1
77	83	1
57	80	2
29	30	2
43	44	2
20	40	2
10	44	2
31	32	3
6	42	2
76	84	1
84	85	4
82	85	1
100	117	2
68	72	1
58	86	1
41	42	2
1	4	1
2	50	1
56	59	1
6	50	1
21	22	2
25	29	1
3	6	1
108	109	1
105	111	1
6	43	1
119	126	1
4	5	1
25	26	1
90	92	1
103	115	1
18	22	1
38	39	1
