4	5	2
8	8	10
50	50	26
30	30	26
1	42	4
52	52	8
36	36	9
22	29	3
10	11	8
12	12	17
4	4	13
22	24	5
62	62	11
56	57	3
17	24	1
39	39	9
51	52	7
40	40	19
52	54	4
14	14	10
55	55	20
47	47	5
5	6	3
40	59	3
16	16	7
3	30	2
6	9	2
14	15	5
32	33	17
24	25	3
59	59	10
58	58	8
20	20	3
47	48	10
25	25	10
21	21	13
46	47	8
57	57	9
35	35	21
22	22	6
45	45	3
42	42	17
6	6	13
34	35	6
18	18	24
26	52	5
37	38	1
38	59	3
44	45	3
34	34	12
38	38	20
39	42	7
48	48	11
9	11	7
51	51	10
54	54	6
61	61	10
40	52	1
43	43	18
11	11	11
19	20	3
53	54	8
44	44	4
10	10	9
49	49	10
9	9	14
48	49	9
18	42	4
54	55	4
8	9	10
19	19	11
15	15	11
3	3	20
19	23	7
60	60	10
52	55	4
56	59	3
56	56	12
3	5	3
43	44	6
38	41	7
37	42	5
40	41	4
18	19	2
32	32	7
54	57	1
45	47	4
23	23	6
13	13	13
9	12	5
5	25	1
2	3	5
6	56	1
58	59	11
16	21	5
45	46	2
37	40	1
3	45	1
6	58	3
53	53	8
13	23	1
32	44	1
6	7	5
18	20	1
42	43	3
16	17	11
5	14	2
41	41	4
50	51	11
17	18	4
32	48	2
32	43	2
1	2	4
21	24	1
32	34	1
7	8	2
40	58	1
5	5	2
36	52	4
37	37	13
31	32	2
61	62	1
3	4	9
15	16	7
52	53	5
19	21	2
30	42	2
0	0	9
53	59	4
5	31	4
12	17	4
31	31	6
49	50	3
3	44	1
48	57	1
7	7	5
19	31	8
17	17	11
12	50	1
41	58	5
11	13	3
38	39	9
20	21	2
39	41	3
49	52	2
18	22	3
29	29	2
5	8	3
2	2	6
8	13	2
4	25	1
21	31	2
59	60	1
22	38	1
37	39	2
14	20	5
9	25	3
35	36	1
12	38	2
0	32	3
31	43	4
11	29	1
33	33	5
56	58	1
39	58	3
4	32	3
11	12	2
25	26	2
5	7	3
39	40	2
25	49	1
10	12	2
39	59	1
5	12	1
13	20	1
4	24	2
8	57	1
24	54	2
3	8	2
2	40	1
37	59	1
46	46	9
13	25	1
39	57	1
23	53	3
1	4	3
32	37	2
0	2	1
15	20	2
48	56	2
13	50	1
1	37	3
9	10	1
0	1	1
38	40	2
54	59	1
31	35	1
6	13	1
0	18	1
40	60	1
51	53	4
11	51	2
23	60	1
2	8	1
23	24	1
1	16	1
42	60	1
12	51	1
12	14	1
36	37	1
24	58	1
6	8	1
0	20	1
9	23	2
12	13	1
24	38	1
24	24	1
