1	3	4
113	114	4
36	36	10
0	4	4
87	88	7
12	12	8
80	99	5
32	32	11
121	121	17
112	112	12
90	90	12
73	73	20
105	105	20
78	79	8
22	112	4
6	10	4
15	32	2
12	14	5
14	97	5
84	92	7
100	125	1
119	119	12
122	122	16
14	14	14
107	133	1
9	9	12
103	125	4
125	125	12
7	7	11
103	103	14
72	73	5
106	106	21
35	36	7
92	113	2
24	29	1
103	104	13
110	110	9
97	97	12
18	24	1
10	10	19
101	103	4
19	33	1
23	24	6
4	4	11
85	86	6
19	19	9
89	89	12
72	74	2
29	105	5
82	90	2
2	2	12
13	13	13
86	86	14
7	8	12
11	20	2
137	137	23
83	83	17
10	15	1
133	133	6
14	104	1
92	93	4
0	96	3
20	23	5
6	89	5
15	17	4
18	18	19
95	96	1
116	116	10
17	19	2
126	126	23
23	26	5
20	20	16
78	78	7
27	27	16
87	87	14
130	130	13
113	122	5
128	128	18
132	132	20
75	75	26
115	115	15
129	129	12
91	91	11
94	95	3
84	84	5
0	104	4
96	96	14
93	107	2
16	16	12
140	140	7
90	91	1
84	114	1
0	0	7
102	109	4
25	25	13
108	110	4
33	34	3
86	112	3
80	80	10
19	20	4
139	139	8
138	138	9
36	80	1
117	127	2
29	30	5
101	101	35
21	21	15
101	110	2
20	26	1
8	105	2
15	15	11
134	134	22
95	97	2
83	121	9
113	113	13
123	123	13
86	114	2
3	3	8
13	121	2
84	121	7
102	103	4
23	23	22
71	104	2
34	34	17
124	124	11
26	26	3
131	132	4
76	112	5
117	118	6
29	29	10
131	131	8
1	1	12
19	22	4
28	32	4
103	111	2
122	123	3
36	120	3
34	38	2
94	133	1
6	7	8
79	97	2
30	36	4
105	106	8
104	107	4
88	89	5
78	86	2
18	88	2
98	98	11
114	115	5
93	115	2
71	71	10
110	131	1
20	21	3
120	120	9
79	79	17
136	136	11
90	114	1
0	15	5
77	77	8
31	31	37
99	110	1
27	28	3
2	3	4
11	11	14
23	25	3
126	129	2
12	13	3
101	108	5
124	127	1
74	74	10
95	95	12
24	25	2
28	28	12
13	101	1
27	34	3
109	109	18
8	9	9
11	12	11
1	11	2
104	105	3
22	91	1
134	135	10
117	117	10
135	135	10
76	76	14
89	102	2
3	21	2
89	91	3
93	93	14
35	35	12
8	8	7
8	23	4
25	91	4
101	102	4
75	81	3
86	103	4
86	102	1
28	29	6
128	129	5
76	77	4
22	86	2
7	9	5
4	112	1
75	76	4
17	102	3
82	89	2
3	86	1
118	118	1
4	132	2
83	91	1
84	85	3
116	117	5
82	83	4
100	100	4
25	90	2
79	81	2
81	84	2
99	100	3
1	34	1
107	108	4
30	31	1
82	82	8
73	79	3
6	6	8
15	95	1
80	122	2
84	122	6
3	16	2
82	101	3
3	4	4
106	107	6
10	13	2
16	17	4
22	22	15
15	25	1
31	32	2
1	94	1
127	127	10
85	85	11
101	116	2
79	114	8
89	119	2
133	139	1
106	115	6
114	114	10
9	14	1
101	124	2
94	94	13
5	5	15
18	23	5
14	99	1
100	123	1
17	37	4
72	72	9
6	88	2
21	25	8
104	104	15
30	30	14
10	11	10
108	108	9
80	125	5
98	100	1
1	35	7
10	103	4
17	35	3
139	140	2
115	117	2
27	111	2
107	107	9
24	24	17
97	111	3
5	9	2
6	34	2
22	23	1
137	138	3
70	71	1
11	17	2
99	111	1
0	6	1
102	113	2
128	130	5
86	93	2
4	5	4
9	10	3
8	10	2
81	122	2
33	33	12
110	116	2
37	37	8
34	36	2
33	123	1
6	108	1
17	28	1
102	104	3
97	122	1
126	131	1
22	31	1
18	19	2
105	107	4
9	12	2
81	81	5
36	115	2
15	102	4
80	81	2
121	122	3
118	120	1
79	100	3
18	20	1
16	35	1
74	75	2
17	17	10
73	118	3
2	12	1
19	21	1
10	14	3
17	87	3
76	85	5
13	124	3
90	121	2
82	84	2
11	13	1
2	121	8
72	78	3
84	123	1
98	99	6
32	33	1
111	111	8
37	117	3
27	105	1
3	24	2
135	139	1
71	87	2
23	28	2
0	99	3
101	125	5
79	108	1
22	113	1
0	94	2
126	127	1
96	97	1
81	93	1
127	131	2
19	35	2
99	99	7
0	35	3
25	38	2
17	18	4
103	109	3
38	73	1
73	115	3
9	28	4
93	94	5
0	108	1
12	15	5
127	129	2
78	120	2
19	23	2
16	28	3
82	91	1
91	107	2
10	25	2
23	90	2
119	130	1
112	121	3
99	109	1
78	85	1
109	111	3
5	36	1
108	109	9
17	32	2
102	102	4
110	111	3
74	124	1
74	112	1
136	138	3
34	116	1
93	96	1
15	87	1
111	112	4
119	120	2
33	35	4
98	123	1
97	121	1
109	124	3
119	123	4
123	125	1
118	128	2
1	104	1
107	118	2
5	88	6
38	38	10
89	122	2
108	112	3
137	140	1
97	100	3
71	72	5
82	85	2
23	27	3
101	114	1
113	115	1
91	114	2
3	22	4
20	27	2
24	111	1
77	79	1
29	31	1
92	92	2
11	15	2
117	120	2
5	90	1
7	10	3
4	133	1
119	126	1
79	120	3
37	118	4
76	81	3
13	14	4
83	90	1
88	88	2
23	38	2
22	24	1
4	36	1
83	122	1
86	110	2
68	99	1
116	122	1
112	113	3
16	113	2
0	9	1
37	116	1
14	29	2
25	35	2
7	20	2
22	26	2
16	32	1
1	25	3
115	116	2
27	31	1
82	88	2
111	123	1
4	95	2
80	86	2
12	19	3
80	82	3
21	32	1
85	119	1
84	98	1
3	71	2
101	115	2
37	38	2
98	120	4
125	126	3
133	135	2
2	34	2
84	119	1
2	36	1
1	68	3
103	107	2
36	37	3
30	106	2
26	27	1
2	35	2
71	115	2
114	127	2
36	105	3
132	133	5
15	132	1
17	36	1
101	104	1
17	33	1
99	125	1
80	119	1
80	126	1
37	124	1
28	30	1
103	108	2
32	105	1
1	2	1
31	129	1
99	108	1
99	101	1
108	114	4
0	130	1
5	104	1
120	122	1
2	107	3
92	99	2
123	124	1
79	119	2
3	72	1
37	121	1
123	126	1
85	109	1
135	136	1
14	18	2
93	98	2
23	72	2
97	113	1
95	102	1
88	91	2
33	111	1
6	35	2
129	130	1
85	92	1
100	113	1
109	117	1
95	136	1
29	121	1
72	76	1
92	119	2
96	98	1
77	81	1
77	78	1
20	111	1
72	88	1
83	111	1
18	30	2
15	109	1
126	128	1
102	112	1
75	88	1
33	87	1
22	124	1
