74	74	10
80	95	1
25	25	2
71	72	4
23	24	5
78	78	5
29	29	6
75	76	7
50	51	1
121	121	9
15	15	1
127	128	2
65	65	5
103	103	7
76	80	2
58	58	10
116	116	4
92	93	3
17	17	6
50	50	2
67	69	3
98	98	8
117	118	3
131	131	7
95	95	8
79	83	2
105	107	4
106	107	2
118	118	6
63	63	2
23	23	4
83	83	5
21	22	2
94	95	8
28	28	6
49	49	14
73	84	5
18	18	5
91	91	8
124	124	11
51	51	1
41	42	4
2	2	5
89	89	2
119	119	1
68	68	13
3	3	14
57	57	7
71	71	10
70	70	4
67	67	4
104	104	9
73	73	5
31	31	6
5	5	4
22	22	5
44	45	2
91	92	3
78	79	10
77	77	7
110	110	8
46	46	7
47	48	2
121	122	1
54	54	9
117	117	2
75	75	2
108	131	2
128	130	2
76	76	8
10	32	1
33	33	3
42	66	1
65	69	2
129	130	2
65	68	1
48	48	10
47	47	4
130	130	2
82	82	5
74	76	2
11	11	1
9	9	3
106	106	5
13	13	9
42	43	4
8	9	3
124	125	1
112	113	1
86	86	5
98	99	3
101	101	7
66	67	4
110	113	1
32	32	5
93	94	4
109	109	3
96	101	3
96	96	5
37	37	1
85	85	2
92	92	9
0	2	1
59	60	3
43	43	3
19	29	2
63	83	2
120	120	3
61	61	7
43	44	3
47	55	5
73	74	5
97	97	5
42	42	3
19	20	1
112	112	6
117	130	1
86	87	1
21	21	4
24	25	1
16	16	5
116	117	4
64	64	4
119	130	3
6	6	5
97	99	5
5	14	2
70	71	1
59	82	3
56	57	2
119	131	1
11	12	2
127	127	2
20	20	2
63	64	2
102	102	1
72	72	9
64	69	1
10	33	1
69	70	1
123	124	2
52	53	2
114	114	9
111	111	9
126	129	2
45	45	6
60	60	2
41	41	4
56	56	4
96	97	2
100	101	3
107	107	2
39	40	1
68	69	3
99	99	1
28	33	1
65	66	1
39	39	4
40	40	6
27	27	2
96	100	3
40	72	4
128	128	2
108	108	5
44	44	4
78	80	1
84	84	3
94	94	2
32	33	3
76	77	2
27	28	2
19	26	3
79	80	3
45	69	6
81	81	6
118	119	2
72	75	1
46	47	4
24	24	3
65	67	2
67	68	4
90	90	2
18	19	1
100	102	1
80	80	1
133	133	2
53	107	1
10	11	6
59	59	3
52	52	4
24	43	2
117	131	1
62	62	3
108	132	1
1	2	2
114	116	4
18	26	2
88	88	3
11	28	1
42	65	1
26	27	2
131	132	1
104	105	2
10	10	6
100	100	2
6	13	1
3	4	1
105	105	1
22	23	3
3	8	1
55	55	1
13	14	1
81	82	1
16	33	1
83	84	1
69	69	2
30	30	2
7	7	1
0	1	1
6	12	2
82	83	2
45	46	1
26	26	3
49	50	3
15	16	1
86	92	2
60	61	1
38	38	1
130	131	2
14	15	1
89	90	1
93	93	1
129	129	1
8	13	1
98	101	1
38	40	1
7	14	2
66	66	1
4	4	2
90	130	1
83	85	2
4	6	1
40	70	1
17	27	2
41	70	1
2	3	1
123	123	1
3	6	1
54	58	1
125	125	1
1	1	1
14	14	1
