127	139	7
66	101	1
145	145	8
98	98	4
27	27	7
199	199	11
222	222	4
223	223	1
227	227	4
165	216	1
24	24	9
170	171	1
221	224	3
72	72	6
229	229	2
40	40	2
102	102	14
166	166	7
195	195	3
66	66	4
151	151	5
170	170	6
237	239	6
213	214	3
197	197	14
193	193	5
56	56	1
177	230	4
7	31	2
41	41	2
205	210	2
31	31	8
122	122	2
12	12	3
138	138	2
25	25	13
211	211	3
26	26	16
106	106	9
4	5	6
53	76	4
6	6	3
123	123	2
205	206	6
153	159	6
183	183	4
129	129	3
23	23	4
36	36	14
42	42	9
213	213	6
19	19	8
181	181	5
175	175	2
209	213	1
186	186	6
123	124	2
111	111	1
201	201	8
199	221	2
201	222	5
141	142	1
75	75	4
99	99	7
153	153	6
105	105	3
6	7	3
144	145	1
104	105	5
61	61	11
88	88	2
184	184	5
71	71	6
121	121	4
58	58	8
29	29	8
142	142	5
55	56	6
69	69	5
235	235	2
1	1	4
126	126	2
169	169	5
74	74	4
221	221	5
45	45	9
82	83	2
160	160	2
48	53	4
207	209	5
114	114	1
179	182	5
122	149	3
16	23	1
219	220	3
204	204	5
33	48	3
103	107	1
133	134	2
152	155	4
204	205	2
177	229	4
10	11	4
176	176	1
206	206	12
40	154	2
45	46	5
158	158	3
65	65	1
35	40	4
163	163	3
149	151	4
209	209	10
177	177	3
239	239	6
46	52	3
78	79	2
240	241	2
236	236	4
4	6	4
65	66	3
21	21	7
39	39	6
28	32	1
194	194	2
128	163	5
60	60	5
49	52	1
202	202	4
102	114	1
55	55	1
217	217	5
59	59	3
233	233	10
174	174	4
128	141	1
121	122	1
76	76	2
9	10	2
143	147	6
172	236	1
148	148	3
207	208	3
150	151	2
207	207	2
25	43	3
154	158	4
171	171	4
100	100	3
14	14	2
28	31	4
49	50	5
32	32	8
35	35	4
219	219	3
127	127	5
162	162	4
7	7	1
38	38	1
128	165	3
10	10	6
167	167	5
2	224	1
64	64	2
17	17	6
186	187	3
107	107	2
171	192	4
148	151	2
3	3	1
163	166	1
226	227	3
48	48	4
2	2	4
17	19	1
19	33	3
70	102	4
22	22	6
130	130	2
1	107	1
159	159	4
56	57	6
62	62	3
115	115	3
181	182	1
105	113	2
234	236	3
155	157	1
192	192	2
147	147	1
53	53	1
112	112	2
33	50	1
105	119	4
12	13	1
5	5	6
36	136	2
186	190	2
208	208	3
14	31	1
5	6	1
70	105	4
137	165	2
149	150	2
231	231	7
77	77	1
101	115	1
47	47	2
234	234	3
171	183	2
154	156	1
12	22	2
137	138	2
203	204	1
214	214	2
34	42	3
118	119	4
4	28	2
187	187	3
128	160	5
215	215	3
225	227	1
187	188	4
215	216	2
64	78	2
108	118	2
1	223	1
73	96	1
149	149	2
33	98	1
164	164	2
115	116	1
193	211	1
74	75	1
196	196	7
65	67	3
199	200	1
0	227	1
153	154	1
52	52	1
79	79	2
52	75	4
70	70	5
161	161	1
16	16	4
2	5	2
129	161	1
203	203	1
85	85	1
103	104	1
15	15	2
143	143	5
46	46	2
129	163	2
44	44	1
18	18	3
150	152	3
236	237	2
212	212	2
108	108	1
172	173	1
112	113	1
17	133	1
179	179	2
205	205	1
96	96	2
216	216	4
151	152	3
201	202	1
201	228	1
190	190	3
181	183	1
9	9	2
18	133	1
202	222	2
125	125	1
4	4	2
86	86	2
125	154	3
113	119	3
10	27	1
163	215	1
205	226	1
59	60	1
190	192	1
68	68	2
173	178	3
23	200	2
125	158	3
43	44	1
28	29	2
127	143	1
6	28	2
35	98	1
120	120	1
21	165	1
168	168	2
131	137	1
137	137	2
230	230	3
138	156	2
234	235	3
20	20	1
42	43	1
173	174	1
36	37	3
34	35	2
113	113	3
193	194	1
37	38	2
54	54	1
185	185	2
103	103	1
43	43	2
201	225	1
8	8	3
136	137	1
1	226	1
78	78	1
89	89	1
67	67	2
172	172	1
221	223	3
2	9	2
147	148	1
75	76	1
224	225	1
82	82	1
111	120	1
70	106	1
173	179	1
122	150	1
198	198	1
13	13	2
1	2	1
128	128	2
124	126	1
156	156	1
173	173	1
79	83	1
129	130	1
83	83	1
195	196	2
197	215	1
135	136	1
