123	123	2
140	140	10
11	49	1
118	118	7
150	150	6
64	64	7
179	179	4
32	45	2
148	148	7
102	102	3
143	143	7
6	13	3
88	88	4
158	158	6
74	78	9
151	151	7
152	153	5
114	144	4
62	63	5
119	122	4
175	175	4
167	169	1
176	176	15
56	56	2
14	39	3
61	61	9
178	178	1
3	14	2
92	92	3
7	45	3
120	120	4
101	101	10
65	66	2
173	173	8
163	165	1
31	31	9
174	174	3
119	119	4
137	137	4
135	136	4
68	71	1
104	104	1
3	3	8
68	70	2
37	38	6
157	160	1
73	73	2
141	141	3
62	82	1
160	161	3
72	72	12
92	95	2
21	22	3
9	9	15
136	136	3
148	168	2
10	13	2
63	64	3
140	141	1
32	32	7
129	129	11
142	142	2
121	121	13
126	130	2
139	139	5
77	77	5
37	39	1
67	68	1
2	3	3
64	65	1
169	169	11
116	116	2
172	172	8
26	27	6
12	12	4
156	156	3
128	128	8
13	13	9
112	112	4
133	134	4
54	54	8
94	95	4
65	67	2
144	147	3
30	31	3
16	16	6
85	86	4
80	80	6
173	174	5
113	114	8
49	50	1
6	6	3
115	146	4
126	126	3
109	109	7
103	105	2
15	36	2
96	96	6
10	11	3
25	26	2
30	30	9
130	130	2
126	127	3
83	97	1
27	27	9
165	165	2
141	144	2
41	41	2
43	44	5
99	100	2
85	85	3
79	79	6
21	46	1
74	74	9
133	133	3
110	111	3
131	154	1
17	17	2
100	143	2
139	140	4
21	21	3
82	82	6
117	120	2
63	85	2
118	120	4
106	106	11
29	31	1
124	124	3
155	155	7
60	60	4
3	5	1
66	67	2
5	5	3
75	122	4
90	90	6
90	94	1
29	29	2
39	40	6
2	2	3
22	22	3
113	147	4
145	145	1
122	124	4
142	143	3
158	159	3
45	45	3
132	133	2
24	34	2
81	81	1
7	8	6
147	148	5
65	65	5
135	141	2
142	144	6
106	107	3
107	107	5
35	35	5
0	39	2
106	117	5
168	169	4
155	156	6
66	77	1
11	11	3
102	106	4
68	68	1
161	161	2
14	15	1
34	35	2
38	38	12
165	166	1
21	23	5
153	154	6
90	124	1
111	111	3
83	84	1
89	89	3
37	37	5
180	180	5
127	128	3
120	121	4
53	53	3
25	25	1
99	99	1
62	62	1
147	147	4
14	14	4
97	97	2
23	24	1
135	135	4
1	1	9
30	32	1
171	171	3
15	18	1
78	79	2
87	112	2
113	113	2
145	146	3
57	57	7
60	95	2
58	58	3
15	15	3
95	102	2
100	102	1
152	152	2
115	115	8
98	98	1
55	55	3
115	149	1
40	40	1
97	99	1
149	150	1
26	26	5
115	125	1
88	92	6
36	36	7
51	51	1
5	7	2
176	177	4
170	170	5
146	146	13
106	109	1
71	72	5
117	117	6
64	66	2
115	140	1
67	67	3
177	178	3
104	105	2
12	13	3
43	43	7
76	81	3
123	135	1
38	54	1
38	39	2
108	108	7
107	108	2
116	117	1
10	10	4
133	136	3
105	106	3
29	30	5
132	132	4
91	92	5
39	39	3
93	94	1
55	58	3
120	122	3
23	34	1
83	83	6
104	106	3
53	54	1
44	44	2
33	33	3
52	54	1
101	142	2
43	52	1
30	33	1
84	84	2
96	97	4
56	61	2
149	149	4
167	167	2
122	122	5
121	125	3
10	14	2
120	131	1
75	75	2
161	162	3
96	100	1
162	162	4
87	88	1
172	173	1
144	144	1
42	42	4
91	91	1
6	8	2
96	104	1
51	55	3
0	0	2
12	14	2
163	163	2
52	53	2
122	123	2
138	138	1
24	25	2
109	141	1
18	38	1
129	130	1
23	23	1
20	20	2
153	153	1
101	163	2
58	59	2
174	177	2
105	117	2
21	86	1
88	96	2
25	27	2
109	111	1
118	119	3
17	18	1
3	4	1
17	20	6
96	98	2
40	54	1
116	124	2
178	179	3
70	71	2
101	143	1
11	12	1
108	112	2
76	76	2
27	28	2
8	11	2
168	168	1
24	24	3
163	164	2
54	55	1
50	50	2
86	86	2
28	28	1
111	113	2
112	126	1
14	50	1
24	86	1
87	93	1
70	70	1
160	160	2
10	49	2
108	111	1
144	145	1
155	168	1
35	36	1
106	108	1
