45	45	2
29	43	1
37	37	7
92	93	4
151	151	2
11	116	1
65	65	4
108	108	8
24	24	5
119	120	2
1	1	7
122	123	1
56	56	5
21	21	1
10	10	2
99	99	7
53	54	5
70	70	2
130	133	5
105	105	6
150	150	3
23	24	1
83	128	1
144	144	3
110	112	2
122	122	1
63	63	3
33	37	2
116	117	2
158	158	3
155	155	2
141	142	3
109	110	5
32	32	4
23	23	12
4	158	3
30	30	4
3	4	4
55	56	3
18	18	3
145	145	2
87	87	2
82	82	1
27	29	4
5	6	1
71	150	2
147	147	4
54	54	6
13	13	8
35	35	8
12	12	3
20	20	1
41	41	5
41	43	4
15	16	3
49	49	3
67	67	4
153	154	3
73	73	2
129	129	2
94	94	3
112	112	3
157	157	3
53	53	3
90	91	3
46	46	3
57	57	3
15	17	1
9	10	1
136	136	2
44	44	4
17	17	4
93	93	3
68	68	2
125	125	2
131	134	1
69	69	2
48	48	3
42	45	1
94	95	2
156	156	1
55	55	4
0	158	6
112	121	2
110	110	1
126	126	3
70	71	1
107	107	2
4	74	4
77	77	1
121	121	2
109	109	3
140	140	1
84	84	5
31	45	2
21	36	2
8	8	3
75	75	2
89	89	3
25	26	2
5	5	2
141	141	6
95	95	2
78	80	2
108	141	3
139	139	4
31	31	3
81	81	2
86	86	3
142	142	1
90	90	1
103	104	1
123	124	1
40	54	1
146	146	1
34	35	2
100	104	1
48	49	2
120	120	1
101	101	1
52	52	1
29	30	2
135	139	2
131	131	1
3	3	2
30	43	1
107	128	2
26	26	3
73	74	1
11	12	3
68	69	3
84	85	3
119	119	1
22	22	2
14	14	3
122	128	1
40	41	1
99	100	3
107	126	1
113	114	2
21	37	2
31	44	2
83	84	1
27	27	2
117	117	1
34	43	1
85	85	2
103	157	1
135	135	2
110	111	1
16	16	2
11	11	2
29	29	1
9	9	1
123	141	2
70	153	1
119	125	1
106	107	1
46	47	3
133	133	1
136	138	1
132	135	1
96	96	2
41	53	2
90	92	1
38	39	1
148	148	1
125	126	1
95	96	1
14	15	1
31	32	1
130	130	1
118	118	1
151	156	1
79	79	1
137	137	2
102	102	1
154	154	1
7	90	1
78	79	1
47	47	2
120	125	1
36	37	1
27	28	1
118	120	1
111	120	1
139	148	1
72	150	1
