71	71	5
19	57	6
15	15	4
8	8	6
101	101	5
29	29	11
130	131	7
114	114	4
79	79	2
79	96	4
78	96	5
27	30	8
94	94	7
21	21	8
129	130	2
1	16	1
38	38	3
5	5	6
7	7	6
38	121	4
96	98	1
26	26	7
66	66	3
70	70	11
100	100	4
52	52	1
5	6	3
57	58	1
78	79	1
99	99	4
116	116	3
132	132	2
106	112	3
18	18	4
52	54	2
36	37	5
63	63	4
1	4	4
119	120	2
98	101	5
2	2	2
110	119	2
112	112	2
65	65	3
2	50	2
35	35	5
49	49	4
68	69	2
63	69	5
13	88	1
134	134	6
108	108	3
120	120	7
93	93	2
0	27	5
28	28	4
105	111	2
126	126	2
6	12	2
96	122	2
88	88	1
1	53	2
111	112	3
60	75	1
14	14	2
121	121	4
85	85	3
118	118	3
0	1	1
129	131	4
103	103	5
55	55	1
124	126	2
12	13	4
98	99	3
67	67	3
32	33	2
106	107	2
77	77	2
83	95	2
71	72	2
4	4	3
128	130	5
83	83	5
16	16	5
97	119	2
65	69	1
91	91	1
36	78	1
6	115	1
63	126	3
47	47	1
34	34	1
0	0	3
50	51	3
90	90	2
30	36	1
10	10	3
23	23	5
32	32	3
80	80	1
42	42	2
65	68	2
10	36	2
82	82	1
105	106	1
73	74	3
119	119	3
33	33	5
9	11	1
19	19	1
56	56	3
58	59	2
87	87	1
78	78	6
4	5	1
98	98	2
86	87	2
25	46	1
3	3	1
98	100	1
3	5	1
98	121	4
97	97	6
53	64	2
1	8	1
14	86	1
125	125	1
106	108	4
11	11	3
45	50	2
1	2	3
111	113	1
9	9	3
25	25	1
95	95	3
10	11	1
78	115	2
81	83	2
73	73	8
109	112	2
77	78	1
13	14	3
130	130	4
104	105	4
13	13	2
12	12	1
62	126	2
43	52	1
61	61	1
122	122	6
68	68	2
33	34	3
6	6	1
125	126	1
74	75	2
27	27	1
82	83	1
79	97	1
127	127	3
81	98	4
82	85	1
113	113	3
92	92	1
76	76	1
74	74	1
109	116	1
18	58	1
48	48	1
88	89	4
123	123	1
107	110	1
36	36	1
128	128	1
102	102	1
31	31	1
100	108	1
82	84	1
118	122	2
43	45	1
15	18	2
3	4	1
95	126	1
50	50	1
94	125	1
81	88	1
89	89	1
5	78	1
1	30	1
43	43	1
122	123	2
104	104	1
62	65	1
35	52	1
0	16	1
50	55	1
99	100	1
72	72	1
