88	90	1
3	3	10
98	101	5
112	112	4
25	25	6
120	122	4
19	19	11
103	103	3
68	68	1
29	30	7
74	74	15
15	16	2
133	133	3
135	135	14
96	96	13
2	2	9
79	79	7
91	103	2
2	34	1
110	125	2
92	92	2
24	25	4
78	78	2
97	97	5
30	30	7
18	18	11
5	6	9
74	75	11
136	136	14
9	9	6
118	118	11
102	102	4
130	130	4
4	5	2
89	89	6
2	16	1
7	14	1
27	28	4
87	87	8
84	84	6
12	12	4
119	119	7
1	1	13
35	36	3
93	106	3
34	37	2
30	31	2
107	107	9
127	127	11
4	34	4
33	33	8
75	76	3
30	35	3
13	13	5
101	104	2
108	108	7
103	104	2
1	17	4
36	36	5
10	25	2
73	73	2
100	113	1
87	105	1
126	126	7
82	82	5
85	86	1
90	131	1
117	117	9
77	116	1
77	94	3
101	114	4
1	110	1
109	111	5
7	7	4
87	91	5
5	5	14
108	113	3
137	137	7
99	99	10
90	90	5
112	115	2
2	4	5
16	16	7
100	100	5
4	4	7
78	94	2
134	135	11
90	115	1
91	129	3
132	132	21
101	107	3
10	22	1
11	16	3
90	124	3
121	121	7
99	104	4
27	43	4
84	98	5
84	121	6
88	88	9
123	123	3
34	35	2
113	113	5
105	115	2
129	130	1
37	37	6
90	127	3
119	120	1
134	134	13
73	74	2
94	94	3
137	138	3
115	115	2
16	18	4
4	75	2
110	111	10
139	139	8
71	105	3
100	114	3
6	6	2
19	44	3
86	86	11
11	86	2
138	138	9
97	106	3
91	126	3
76	98	2
89	90	3
2	5	3
114	115	2
1	10	2
111	112	1
116	116	1
93	94	2
26	26	15
73	98	2
122	122	7
105	106	1
11	13	7
72	73	5
34	34	4
77	103	3
110	110	4
111	111	16
87	126	5
128	129	2
117	126	1
90	130	2
28	28	2
17	20	4
17	17	7
13	15	1
80	80	5
83	83	6
20	20	4
94	101	3
112	125	1
27	27	8
10	11	2
123	130	5
92	105	4
135	138	1
87	88	6
10	10	7
21	21	8
78	79	1
15	21	1
77	84	1
83	95	1
43	71	2
125	125	2
80	125	8
14	14	4
6	7	1
88	89	4
21	22	3
76	77	3
93	105	3
27	31	2
32	32	1
9	14	1
37	38	1
72	72	3
101	102	2
122	123	2
119	121	1
123	127	1
74	106	2
101	101	7
100	101	1
30	32	3
6	9	1
15	15	1
35	35	4
85	101	1
77	80	5
109	109	3
85	103	1
117	118	4
85	85	7
106	106	5
84	99	2
136	139	1
6	20	2
85	87	2
33	34	6
120	120	1
108	126	2
28	29	3
71	71	4
87	130	2
0	1	2
9	10	3
98	98	1
38	38	1
24	24	5
78	96	2
12	22	1
31	32	1
84	91	1
108	109	1
116	117	1
112	113	1
135	137	2
23	24	1
118	120	1
17	46	1
6	110	2
86	113	2
105	107	1
10	18	1
83	118	2
20	28	1
120	126	1
75	102	1
92	106	2
90	128	3
13	14	1
71	96	1
10	112	1
21	28	1
18	28	1
127	129	1
0	0	2
90	91	1
113	121	1
133	140	1
103	107	3
123	129	3
111	128	1
95	99	2
99	111	1
23	23	2
129	129	1
104	114	1
14	15	1
93	93	1
85	119	1
91	101	1
8	8	2
139	140	1
21	27	2
22	25	2
89	127	2
1	20	1
91	95	1
132	133	2
96	104	1
72	107	1
20	21	1
114	118	1
5	18	1
23	35	2
82	95	1
94	95	1
105	105	1
22	22	1
109	125	1
131	131	4
84	85	1
3	20	1
108	127	1
103	114	1
5	34	1
77	97	1
84	104	1
104	105	1
79	80	1
79	122	1
76	79	1
73	106	1
99	100	1
98	102	1
71	72	1
