127	127	27
123	123	9
81	95	2
50	50	6
73	73	12
75	75	12
115	115	9
77	77	8
66	66	9
108	108	4
26	26	6
57	57	1
33	33	5
105	105	8
19	20	5
119	119	4
120	120	7
86	119	1
0	0	2
64	65	2
97	98	2
79	79	3
127	133	1
38	57	3
71	72	8
76	76	7
83	83	9
139	139	15
64	64	10
96	131	4
122	122	2
102	102	2
54	140	2
138	139	2
39	39	5
52	52	2
67	67	3
128	130	3
41	42	1
60	60	7
111	121	1
50	51	2
106	106	5
98	98	5
9	9	6
130	130	5
19	21	5
1	1	13
108	109	1
62	63	2
111	111	5
99	100	2
72	72	9
58	58	5
125	125	16
94	94	7
42	50	2
118	118	6
79	80	7
131	131	14
37	37	4
93	93	9
16	17	6
38	38	10
29	29	11
67	68	1
18	19	6
73	75	5
76	78	2
15	16	1
17	18	3
41	41	5
65	71	3
3	3	5
48	49	2
134	134	7
10	38	1
75	77	4
31	31	2
69	70	3
116	118	1
120	121	1
138	138	2
96	97	1
68	69	1
40	41	3
32	32	3
72	76	1
81	82	2
34	34	3
33	34	3
30	30	4
97	97	9
146	146	2
55	55	14
82	83	5
8	8	6
101	101	3
40	40	2
109	109	1
133	133	2
89	89	5
132	132	5
63	73	6
90	90	3
116	117	2
6	6	2
95	95	2
131	132	4
99	99	3
99	135	2
128	128	7
114	115	2
66	67	1
110	110	3
12	12	2
70	135	1
22	22	4
14	15	3
57	74	3
85	85	8
142	142	4
24	24	7
8	33	1
4	4	3
133	134	4
37	40	2
140	140	3
137	137	9
101	136	2
49	49	6
86	86	3
25	29	1
135	135	4
65	66	5
10	10	7
68	68	12
100	100	4
90	92	3
140	141	8
5	6	5
25	25	14
10	51	2
13	13	4
103	103	4
51	52	2
7	9	1
22	23	1
145	145	3
21	21	3
56	64	2
95	118	4
56	58	1
124	125	3
65	65	3
114	114	1
20	20	4
53	53	3
113	114	3
47	47	2
19	19	5
59	59	9
107	107	2
4	5	3
17	31	1
111	112	2
27	27	5
12	56	1
140	142	1
100	101	2
113	115	2
78	78	4
96	96	6
42	42	2
123	124	3
117	117	7
144	144	3
48	48	6
11	11	2
122	123	2
36	37	2
53	57	1
119	131	2
129	129	2
91	91	1
91	92	1
0	42	3
70	71	4
35	35	1
27	29	4
80	80	1
43	43	6
13	14	3
109	110	6
18	18	4
58	73	2
69	83	1
2	2	6
13	54	4
10	34	2
97	130	2
112	112	5
88	89	3
5	5	1
61	74	2
80	98	2
104	105	2
104	104	4
74	74	1
49	50	3
63	63	5
93	94	1
57	58	1
62	74	1
69	69	1
87	87	5
30	31	1
84	100	2
80	81	2
82	82	1
143	143	3
1	42	3
34	57	1
28	38	2
9	30	1
15	15	3
127	129	1
35	36	1
36	36	2
12	64	1
16	16	4
17	17	5
88	112	2
74	75	1
59	60	3
84	119	1
82	98	1
88	88	3
115	122	1
8	9	1
92	94	1
21	22	1
51	51	1
39	40	2
81	81	1
23	24	1
95	98	1
13	32	3
65	67	1
121	121	2
26	27	3
56	56	3
77	78	1
28	28	3
117	120	1
38	74	1
70	70	1
113	113	4
25	26	4
36	41	2
127	128	2
98	99	1
64	71	1
107	131	1
61	61	2
76	77	2
95	113	1
23	23	1
111	120	2
47	48	1
65	70	1
136	136	1
58	59	1
124	124	1
38	64	1
60	75	1
102	131	1
103	105	1
