5	5	4
55	56	4
34	34	5
187	191	2
139	159	2
56	56	2
216	217	3
205	205	2
230	231	4
196	196	5
25	50	8
37	37	3
218	218	10
25	25	4
169	170	1
55	55	3
102	106	1
238	238	3
213	213	3
203	203	4
224	224	2
215	215	5
81	82	8
72	83	6
21	51	1
130	130	1
80	82	1
222	222	5
29	29	6
180	182	2
88	88	4
58	72	1
221	221	1
2	2	7
173	173	3
80	81	3
149	150	2
12	12	3
50	51	1
129	129	9
15	140	3
12	19	2
229	230	6
80	80	1
194	194	13
89	95	4
124	125	3
32	54	4
107	108	1
26	26	6
41	41	4
223	224	1
195	196	4
219	219	5
161	163	1
66	66	4
61	61	4
152	153	2
84	84	4
71	72	1
85	85	4
202	202	4
4	28	4
22	22	8
95	95	1
0	30	10
19	19	2
32	32	7
2	6	3
54	54	3
199	200	4
72	73	1
211	211	8
65	65	4
14	14	7
216	216	2
203	204	2
204	204	1
168	169	2
86	86	4
187	188	3
212	212	1
234	234	9
56	57	1
33	33	1
200	201	7
73	78	4
4	5	3
46	46	3
97	97	3
228	230	4
121	121	2
137	137	3
101	104	3
21	21	7
40	40	3
184	184	4
116	116	2
118	118	5
143	144	2
217	217	2
166	166	2
191	191	2
29	30	3
54	55	1
4	4	4
65	66	1
104	104	5
208	208	1
7	30	3
57	84	3
153	154	1
15	15	5
0	1	2
79	80	4
138	153	6
146	148	1
160	162	6
175	175	4
172	172	12
161	173	2
182	218	3
170	170	4
68	69	1
23	23	6
187	187	2
192	193	5
161	161	3
230	232	2
16	16	6
111	111	3
64	65	5
117	118	4
50	50	6
207	207	4
138	139	3
194	195	1
76	76	1
189	189	7
125	126	1
109	119	3
181	181	5
0	2	3
81	206	1
39	41	1
200	200	2
220	220	9
58	58	2
21	50	6
27	28	1
35	35	5
180	181	1
74	75	3
154	156	2
100	100	3
153	153	1
35	36	1
133	133	1
57	85	1
128	128	4
53	54	1
163	163	7
141	142	1
83	85	1
135	137	1
127	128	2
78	78	6
229	231	1
117	117	2
201	202	8
53	53	10
124	124	2
193	193	2
69	70	1
164	164	4
233	236	2
72	72	2
145	145	3
42	42	2
55	57	2
179	180	3
9	9	2
109	109	4
36	60	2
119	130	2
44	44	4
224	225	5
30	30	3
57	57	2
158	159	1
49	49	4
7	7	3
179	182	2
227	227	2
139	162	1
199	199	1
24	25	1
229	229	2
121	127	2
11	11	8
127	127	4
114	115	3
96	96	3
198	198	2
39	40	5
113	132	1
123	123	2
142	142	2
22	23	3
37	63	1
107	107	1
45	88	1
158	158	2
111	112	1
228	228	2
226	227	1
24	24	1
160	161	4
169	169	2
54	70	1
113	113	2
2	3	1
150	150	1
184	185	4
150	151	1
123	126	3
209	209	3
232	232	6
12	17	4
184	209	2
2	5	2
235	235	2
237	237	3
148	149	1
48	50	2
1	2	1
157	157	3
27	27	6
143	158	5
3	3	2
140	140	2
197	197	6
115	116	1
186	187	2
170	171	2
43	44	1
38	38	1
198	199	1
106	115	2
159	211	1
154	155	2
2	61	1
110	242	2
188	188	5
152	152	2
171	171	1
210	210	2
96	97	1
44	68	2
10	10	2
133	134	1
42	68	2
223	223	5
201	201	6
147	206	2
66	67	1
103	103	3
3	5	1
107	130	2
179	179	1
31	31	1
161	162	2
174	174	5
45	46	2
29	32	2
144	146	1
195	195	6
188	189	5
177	177	3
149	149	1
231	231	2
46	47	3
60	60	1
126	126	2
168	168	1
77	78	2
79	82	2
105	105	1
99	99	2
8	8	3
210	211	1
167	168	1
52	52	2
235	236	1
135	135	5
214	214	2
64	64	4
49	50	1
10	11	3
192	194	2
141	143	4
3	32	3
209	211	1
203	207	1
178	178	1
82	82	2
185	186	5
186	186	1
215	216	2
135	136	2
162	163	3
155	155	1
190	192	1
143	143	1
73	73	2
241	241	1
81	147	2
191	192	2
180	183	1
131	131	1
192	208	1
172	208	1
148	148	2
131	239	1
52	53	2
183	183	1
230	230	2
100	105	2
174	206	1
31	33	1
120	121	1
193	194	2
105	116	1
162	162	1
119	119	2
189	190	2
164	166	2
98	98	1
28	28	3
134	134	5
160	160	1
188	224	1
192	192	2
17	17	5
170	238	1
8	49	1
108	108	1
83	83	1
239	239	1
236	236	2
130	133	1
16	17	2
182	182	3
64	69	1
167	229	1
128	234	1
225	228	1
47	47	1
166	170	2
176	178	1
154	154	1
43	43	1
3	4	1
160	211	1
73	74	1
158	160	1
20	20	1
212	213	1
150	157	1
139	139	2
75	76	2
159	159	1
39	39	1
204	205	1
47	48	1
44	66	1
54	83	1
162	212	1
151	151	1
122	123	1
171	213	2
177	179	1
59	61	1
181	182	1
144	145	1
163	168	1
226	226	1
105	106	3
23	50	1
240	240	2
180	180	1
219	228	1
18	18	1
238	241	1
102	103	1
33	53	1
156	157	1
96	99	1
197	198	1
125	125	1
33	34	1
225	226	1
136	136	2
233	233	1
5	6	1
59	59	1
