37	38	1
135	137	2
126	126	6
25	41	4
38	58	4
140	140	5
88	89	3
148	168	4
93	96	2
135	135	8
100	103	3
129	149	1
110	110	4
40	43	3
21	21	3
4	7	2
122	124	2
46	65	3
144	157	3
142	144	2
21	41	5
97	99	1
116	146	5
34	47	1
130	146	2
19	23	2
148	152	4
21	36	2
133	133	6
67	67	5
117	117	2
151	165	6
120	120	1
83	105	2
136	139	2
61	62	1
68	125	1
43	44	1
161	162	4
88	88	5
99	99	5
75	75	8
115	115	7
8	8	4
11	25	3
81	82	2
34	34	7
77	86	1
68	68	5
99	106	2
3	3	12
50	51	2
155	164	4
104	104	14
37	53	2
49	55	2
131	132	6
106	106	5
160	166	4
50	116	1
157	163	1
153	164	4
16	55	2
36	36	9
86	86	3
5	18	1
36	94	3
138	138	17
81	91	5
62	62	3
165	166	4
165	165	1
25	38	4
47	142	3
155	155	3
143	143	11
13	28	4
133	151	1
20	21	7
116	127	2
33	33	6
130	130	2
44	45	3
129	129	4
27	27	4
112	159	5
4	9	2
74	75	1
24	24	5
108	108	4
6	6	3
38	156	1
6	7	1
44	44	12
164	165	5
48	48	11
105	106	5
136	136	8
22	38	1
25	54	2
56	66	3
156	156	7
122	123	7
151	154	3
158	158	4
18	18	8
72	87	2
39	48	2
35	35	2
35	39	1
127	134	1
1	1	12
55	55	3
136	154	3
72	72	4
87	130	3
13	13	4
93	94	3
20	20	3
103	103	3
40	47	2
48	85	2
4	4	3
145	145	7
5	11	1
139	139	6
21	35	3
56	62	2
139	155	1
134	158	1
138	155	2
9	25	1
147	147	2
154	154	7
65	65	5
160	160	1
98	98	4
63	63	1
51	52	1
15	15	7
55	56	2
12	19	7
118	135	3
21	34	1
8	12	1
102	124	4
98	114	2
12	17	1
26	26	3
9	21	1
88	91	1
141	142	1
117	118	3
137	140	4
95	114	4
53	55	1
116	137	2
11	11	5
117	119	1
130	148	1
71	113	2
143	148	3
45	46	4
96	98	5
159	170	3
124	125	4
165	168	1
6	17	2
51	67	1
94	94	7
42	42	4
3	10	3
49	56	1
162	162	5
102	102	3
90	115	2
162	169	2
138	142	1
13	23	2
76	81	4
148	148	6
125	125	10
118	133	3
5	6	2
91	98	2
0	0	6
40	42	1
62	68	1
56	57	5
39	39	3
69	79	4
46	46	4
4	8	3
85	85	5
77	79	1
10	10	2
91	91	9
81	150	1
92	92	2
66	80	3
36	37	3
103	104	1
83	102	4
0	18	1
83	83	5
16	16	2
87	87	7
79	79	2
157	157	5
46	84	3
121	122	2
63	67	3
12	14	2
133	134	1
169	169	1
135	139	2
146	146	4
123	126	2
112	113	5
94	107	2
113	113	2
94	96	2
82	92	1
4	5	1
45	45	4
66	108	2
161	161	6
103	119	2
70	78	2
109	109	2
152	156	3
112	158	2
91	94	2
16	17	2
139	158	4
47	143	2
54	54	4
139	143	4
132	132	4
9	13	1
52	53	2
128	131	3
38	38	1
83	91	2
135	142	2
96	100	3
112	112	2
106	135	1
0	3	4
89	128	2
142	160	2
86	93	2
38	42	1
100	100	2
71	90	1
21	114	1
52	88	1
100	102	4
57	57	7
81	81	3
53	53	2
97	97	5
12	12	1
0	44	1
127	127	5
81	86	3
14	14	5
93	93	1
63	74	2
136	156	4
7	7	3
17	17	3
166	166	4
19	22	4
0	21	1
4	10	2
164	164	1
72	92	1
9	9	1
43	43	2
142	156	3
52	52	2
87	88	1
126	165	1
9	35	1
128	129	1
15	16	1
49	114	1
9	12	6
156	164	3
104	135	1
131	131	2
111	118	1
26	27	1
39	142	2
37	39	3
71	71	3
110	159	2
84	84	3
51	66	1
114	120	2
77	81	2
150	151	2
109	115	1
73	73	5
41	41	1
7	12	1
153	153	1
121	121	5
67	68	2
82	82	5
42	43	1
107	107	2
74	98	1
66	66	3
95	97	1
128	128	1
167	167	2
38	43	3
78	78	2
150	150	2
96	96	2
109	111	1
69	71	1
90	90	3
93	102	2
64	81	1
75	102	1
19	81	2
11	14	2
3	4	1
84	90	3
141	141	2
113	116	1
139	141	2
3	7	2
83	84	1
74	76	1
97	111	1
38	53	1
40	40	2
68	124	2
11	49	2
40	52	2
9	86	1
151	151	2
3	17	4
69	72	2
142	159	2
9	10	4
64	65	1
69	107	2
21	22	1
76	85	1
103	118	2
1	23	2
146	151	2
74	74	1
39	49	1
89	89	3
116	116	2
143	152	3
49	57	1
95	96	2
13	15	2
63	80	1
119	121	1
135	147	1
101	101	2
149	149	3
152	153	1
48	84	1
48	49	2
23	24	1
40	56	1
134	135	1
123	123	1
8	123	1
50	115	1
163	163	1
54	62	1
129	143	2
62	73	3
95	95	5
22	22	2
69	69	1
104	107	1
27	40	1
145	146	2
50	139	2
110	120	2
96	99	2
1	12	1
49	49	1
147	159	1
49	159	3
140	153	1
116	117	2
42	44	1
112	114	2
38	51	1
77	84	1
28	28	1
37	37	2
45	51	1
108	126	1
44	86	1
49	141	1
155	158	1
66	75	1
2	5	1
38	48	1
122	122	1
6	12	2
9	20	1
111	135	1
66	95	1
73	91	1
2	2	2
139	140	1
119	119	1
69	70	1
70	70	1
40	41	1
134	134	1
144	164	1
148	150	1
35	42	1
89	92	1
68	127	1
102	112	1
147	152	1
57	64	1
67	70	1
91	93	1
94	130	1
114	114	1
108	119	1
0	1	1
55	62	1
144	159	1
156	169	1
41	42	1
