1	1	13
48	48	8
59	61	6
7	7	5
74	74	1
11	69	4
9	66	5
13	33	4
61	61	9
11	11	11
82	83	1
53	53	3
4	4	16
54	54	4
5	5	5
17	17	6
81	84	5
29	29	3
6	6	7
54	63	9
15	16	6
72	72	7
23	23	7
68	68	11
53	54	5
55	55	10
12	12	10
82	82	12
31	31	5
27	27	12
34	34	4
7	17	5
21	21	6
14	14	12
69	69	10
62	63	2
85	85	10
76	77	4
2	2	9
89	90	2
50	52	2
10	11	4
86	87	2
3	3	6
57	58	5
6	65	7
46	47	1
65	65	8
24	27	3
75	75	10
25	25	12
71	71	3
9	9	8
15	15	4
67	84	2
81	87	5
29	30	5
3	4	4
49	77	5
73	79	1
28	28	3
78	79	3
56	57	4
47	47	3
21	22	1
58	63	1
83	84	2
66	66	8
83	83	9
68	69	1
53	57	3
60	60	10
6	13	1
57	57	6
63	64	1
59	59	5
19	19	1
88	89	3
55	56	5
82	89	3
80	80	2
26	49	1
50	50	3
50	51	2
34	80	2
67	68	2
77	80	4
77	77	4
62	62	2
65	81	2
47	50	1
8	28	1
26	26	5
89	89	3
8	11	2
48	50	1
10	83	4
2	3	3
51	51	9
32	32	2
47	72	2
49	49	3
19	27	1
30	30	6
8	27	1
53	55	1
52	52	3
84	84	8
9	23	4
46	46	3
48	78	1
79	79	3
71	81	1
7	25	1
16	17	2
25	27	2
47	71	2
8	32	3
72	73	4
54	81	2
0	0	3
58	61	1
47	66	1
48	77	2
24	24	6
14	15	2
49	50	3
13	13	1
63	63	4
76	76	2
51	52	2
49	51	1
67	67	2
61	66	1
64	65	3
52	54	2
47	61	2
67	83	1
6	26	3
6	66	1
17	25	1
88	88	1
54	56	5
86	86	4
20	20	5
74	75	2
22	22	3
81	81	2
47	48	2
63	66	2
0	1	3
17	64	1
70	70	2
78	80	1
26	27	2
52	56	1
48	76	2
73	74	3
30	31	1
22	23	2
85	86	1
49	80	2
9	12	2
18	55	1
25	31	3
77	78	1
84	85	2
8	26	2
78	78	4
2	4	1
16	28	1
79	80	2
3	28	1
57	86	1
61	63	2
8	49	1
9	27	1
73	73	2
1	85	3
83	87	1
54	55	1
8	8	2
1	86	2
87	87	2
23	24	1
19	25	2
75	76	1
56	56	1
22	27	2
5	26	1
33	33	1
4	11	1
