38	54	3
14	14	3
181	182	3
240	240	9
182	182	6
62	62	5
173	183	2
106	136	6
11	82	2
34	39	2
18	41	2
119	120	1
201	201	3
67	67	1
8	32	1
102	102	1
96	97	2
155	156	2
30	56	3
220	220	5
26	26	5
81	82	1
8	8	5
115	115	2
52	56	3
104	124	1
22	22	7
225	225	4
140	152	1
112	176	3
111	111	2
231	231	2
35	35	5
11	11	7
109	109	2
238	238	4
2	6	5
184	184	4
200	200	4
224	240	2
125	161	1
125	163	1
227	227	6
28	28	4
1	6	1
164	164	7
221	221	3
17	22	2
232	234	3
6	6	9
114	114	3
121	121	1
140	141	2
191	231	2
49	49	2
159	159	1
145	146	1
208	208	5
218	218	3
108	108	3
30	58	1
76	78	2
188	188	1
234	234	3
139	151	1
56	56	1
210	210	4
20	26	3
77	77	4
103	104	1
8	33	2
180	182	1
222	227	3
152	201	3
125	126	1
139	147	1
217	218	1
46	47	1
191	191	9
188	206	1
146	146	6
194	195	1
112	113	1
48	74	1
2	5	2
133	133	4
186	186	4
23	31	2
105	105	4
168	183	3
103	103	3
28	30	1
58	60	4
115	164	3
53	53	4
220	222	4
181	181	4
70	70	2
187	188	1
156	166	1
211	211	6
20	44	3
198	198	5
155	155	3
178	178	4
121	122	1
44	44	6
221	226	3
207	208	2
107	107	2
18	18	3
13	13	2
195	196	2
38	82	1
126	143	1
72	72	2
88	88	4
193	193	1
202	202	2
236	236	5
54	73	1
60	60	7
102	108	2
69	69	5
228	228	3
241	241	4
138	138	1
155	226	1
129	133	4
22	204	1
204	204	3
179	179	1
20	43	1
57	57	2
84	85	2
119	119	8
31	74	1
124	124	5
75	75	10
163	163	5
152	160	3
32	32	6
75	76	5
127	133	3
167	167	1
118	118	3
141	141	1
189	189	6
63	63	7
147	147	2
150	150	2
176	176	2
238	239	2
180	187	2
3	8	1
150	152	1
139	144	1
120	120	1
27	27	4
30	57	2
224	224	3
175	175	2
106	152	2
7	36	1
15	15	3
2	4	2
173	173	2
168	184	1
25	75	1
120	182	1
126	126	3
105	109	3
55	55	3
34	35	3
82	82	2
172	172	3
100	100	2
214	231	1
39	39	1
134	134	1
175	176	2
147	148	1
174	174	4
6	37	5
204	212	1
101	109	2
62	74	1
4	5	2
162	184	1
170	174	3
205	205	1
31	48	1
173	175	1
203	207	1
177	177	2
68	68	1
26	86	3
171	171	1
137	137	4
66	66	2
9	9	1
73	73	3
110	172	3
184	185	2
231	238	1
34	34	3
105	129	1
117	118	2
24	39	1
17	17	5
43	43	1
222	222	1
197	197	3
122	123	1
103	109	3
25	25	2
70	179	1
39	42	1
143	143	3
130	133	1
33	33	3
84	84	3
110	110	1
108	109	1
53	61	2
22	83	2
171	183	1
16	16	8
19	19	7
232	232	2
21	204	3
116	118	1
196	197	2
27	60	1
158	158	2
28	29	1
154	156	1
116	144	1
71	71	1
217	217	2
125	125	2
139	140	1
154	210	2
116	117	1
219	219	5
182	185	1
136	137	2
47	47	1
21	46	1
159	160	2
203	203	1
153	154	1
36	36	2
187	226	2
107	160	1
216	220	3
31	82	1
4	17	1
161	168	1
42	42	2
3	5	1
144	145	2
101	122	1
82	83	2
102	130	1
128	134	1
52	52	2
164	167	1
172	173	1
45	45	3
169	169	1
7	7	2
14	21	1
131	177	1
192	192	1
86	86	2
208	209	1
142	142	2
206	206	1
189	190	1
22	33	3
161	161	1
41	41	3
110	119	2
145	145	1
157	159	1
124	153	2
127	145	2
79	79	1
185	186	1
45	46	1
40	41	2
20	27	3
205	209	1
78	78	2
156	156	1
215	216	1
125	160	1
37	37	1
24	219	1
20	32	1
168	168	2
162	162	2
139	139	1
61	61	1
216	229	1
127	147	1
80	84	1
230	230	3
20	204	2
19	32	2
20	20	2
123	139	1
230	231	1
229	229	2
152	152	1
190	190	1
33	34	1
179	180	1
66	67	1
203	228	2
58	63	1
228	229	1
202	205	1
20	80	1
3	3	1
120	153	1
83	83	2
166	166	1
117	117	1
113	125	2
127	127	1
228	239	1
99	99	1
12	34	2
189	213	1
56	77	1
137	138	1
5	5	2
127	129	1
153	165	1
163	166	1
85	178	2
188	213	1
46	76	1
40	40	1
28	54	1
85	86	1
29	82	1
30	48	1
90	90	1
33	82	2
133	134	1
51	51	1
159	164	1
26	27	1
30	64	1
165	165	1
183	183	1
185	185	2
190	214	2
24	24	1
220	228	1
224	232	1
207	207	1
0	0	1
112	112	1
31	31	1
60	63	1
17	23	1
167	168	1
97	118	1
