137	137	6
98	98	9
73	73	6
170	170	5
67	67	7
10	10	5
76	76	11
80	94	3
112	113	5
123	123	4
69	69	2
44	45	4
86	96	6
101	101	5
120	123	1
92	92	4
65	65	7
90	168	2
83	83	3
99	102	3
106	128	2
157	158	2
82	82	5
21	22	1
57	57	7
12	12	8
92	93	2
48	48	4
79	79	1
105	105	8
41	41	6
54	54	10
34	34	7
56	56	9
25	26	2
17	21	1
10	102	1
112	112	4
104	105	2
11	11	4
125	127	1
121	148	2
97	97	8
51	51	2
158	164	1
3	11	4
83	135	1
97	99	6
68	82	3
161	161	4
95	97	3
154	154	4
106	106	4
7	109	1
114	115	6
7	50	3
40	40	5
74	75	4
127	127	4
145	149	5
80	81	2
56	57	1
37	56	3
1	1	1
14	89	3
7	7	2
43	43	6
140	162	1
159	159	5
124	125	3
110	166	2
111	111	7
133	133	2
147	153	5
45	46	7
45	54	1
81	82	1
115	118	2
110	110	7
35	35	2
120	120	9
165	166	3
27	27	7
68	133	3
84	84	10
126	128	4
74	91	1
46	46	2
2	10	1
126	130	1
11	12	3
79	84	2
55	55	5
114	114	1
116	116	4
21	21	3
80	80	4
63	95	1
95	95	8
163	164	1
5	5	14
132	143	2
45	48	1
74	120	2
57	82	1
64	64	3
64	93	2
162	165	2
142	142	4
125	128	2
114	116	1
126	143	1
4	4	6
25	170	3
0	122	3
80	84	2
26	115	1
49	49	3
9	9	7
53	53	2
108	108	7
44	44	4
14	14	5
0	93	1
50	50	6
148	148	1
136	136	6
83	170	3
24	24	6
16	16	7
38	38	3
96	124	1
75	154	2
66	66	6
78	78	4
164	164	5
86	86	2
1	2	3
155	155	4
90	96	2
116	121	1
134	134	1
17	17	6
25	27	2
146	146	2
147	166	2
125	126	2
102	113	1
136	137	2
8	9	4
104	114	2
144	144	2
119	120	1
91	128	1
69	108	7
63	63	4
103	103	7
18	21	2
143	143	4
117	118	2
94	95	1
36	36	5
81	94	1
85	132	1
141	141	7
73	85	1
129	129	3
123	124	6
168	168	3
130	131	5
68	69	2
4	11	1
6	6	4
156	156	3
160	160	1
150	150	3
15	15	4
91	91	3
169	170	2
26	26	2
115	122	1
19	20	3
101	102	3
1	38	1
79	162	2
77	77	3
118	118	2
26	27	8
20	23	1
152	154	1
94	94	1
70	149	1
52	52	11
18	62	3
19	19	4
109	109	3
1	123	1
47	51	1
144	150	2
132	135	1
71	141	1
85	87	3
3	3	2
110	165	1
129	130	1
88	88	5
130	130	5
23	24	6
38	39	1
45	45	5
153	154	3
13	13	3
76	155	1
42	42	2
41	46	1
107	107	2
146	147	1
90	90	4
156	162	1
37	146	1
25	25	2
158	158	2
8	8	4
131	131	3
121	121	4
85	129	2
76	168	1
167	167	3
20	20	3
50	51	1
25	102	3
131	166	2
75	155	1
132	132	7
133	134	2
58	86	1
63	142	2
87	87	1
57	110	1
103	104	4
75	75	3
151	151	1
15	83	2
8	28	1
149	149	3
133	154	1
166	166	1
102	103	3
96	96	5
28	41	2
157	157	2
93	93	4
16	53	2
27	105	1
128	129	4
22	24	1
19	28	1
92	134	1
2	9	1
34	43	1
128	128	5
122	122	1
75	76	1
145	145	4
77	92	1
169	169	5
20	22	1
121	122	1
85	85	2
6	52	1
116	117	3
6	53	1
135	135	1
20	21	1
62	156	1
114	117	2
38	52	2
3	4	1
63	69	2
2	7	2
0	1	2
96	117	1
18	19	1
152	152	1
23	23	4
102	102	2
100	100	2
71	72	2
89	90	2
58	84	1
37	37	2
139	140	1
115	116	4
2	2	3
126	127	2
17	146	2
125	125	5
58	103	1
7	8	1
106	107	2
153	153	4
75	119	2
19	21	1
4	5	2
1	55	1
61	62	3
69	154	1
113	113	2
69	99	1
70	71	1
6	7	2
58	81	2
85	170	2
70	96	1
39	39	4
64	169	1
71	119	2
126	126	1
124	124	3
36	37	1
2	8	2
137	138	1
34	35	1
22	22	1
158	161	1
107	108	1
78	96	1
50	105	2
98	158	1
18	68	1
153	169	1
44	46	1
134	135	2
79	80	2
70	81	1
62	62	2
0	81	1
120	122	2
77	78	1
99	99	1
119	119	2
45	52	1
72	160	2
115	115	3
69	80	1
0	0	1
68	68	2
165	165	1
66	67	1
18	18	3
0	46	1
164	165	1
73	74	1
147	147	1
76	130	1
161	162	1
14	15	2
89	89	1
106	117	1
137	147	1
22	23	2
119	127	1
72	147	1
78	95	1
146	149	1
17	36	1
150	151	1
35	36	1
3	5	1
82	126	1
12	57	1
21	135	1
77	170	1
57	62	1
104	104	1
1	6	1
130	132	1
64	146	1
72	86	1
