115	115	8
13	53	3
89	89	4
26	26	7
93	93	9
57	57	10
27	27	13
88	88	2
98	98	16
55	55	6
33	34	1
132	132	8
69	107	1
7	10	3
32	73	4
74	74	7
17	17	9
5	5	5
126	129	2
18	18	12
77	77	3
92	92	12
119	119	3
3	3	4
23	24	3
107	107	10
17	55	1
67	108	2
28	28	8
102	102	13
43	43	8
7	9	1
94	96	3
1	1	7
57	92	5
83	84	8
68	68	4
84	90	1
38	38	11
96	96	2
77	78	1
58	58	14
114	115	3
99	100	1
96	100	4
118	120	4
71	73	4
25	25	9
54	54	7
86	86	2
109	109	9
24	24	12
7	7	12
103	103	6
94	94	7
124	125	3
8	8	9
10	11	3
69	69	11
22	34	2
68	69	4
129	133	1
97	98	2
14	14	3
113	113	12
128	129	6
67	67	4
46	46	23
121	121	7
94	95	1
16	16	6
30	30	8
3	4	2
31	32	3
92	127	6
34	34	1
125	126	1
81	85	1
9	9	14
131	131	9
80	80	2
65	82	2
112	112	7
70	71	2
62	62	13
96	97	1
113	114	4
64	64	7
15	15	8
39	39	9
111	111	10
126	126	5
70	70	4
87	87	2
105	105	13
104	106	2
46	47	2
20	20	4
120	120	9
58	59	1
91	95	2
41	89	4
12	12	6
113	115	1
128	128	6
78	92	4
65	65	5
22	23	3
61	68	4
97	97	12
122	122	6
31	31	3
19	19	16
72	72	7
81	81	6
118	118	9
125	132	6
47	51	2
108	108	5
22	24	2
29	31	2
33	74	2
85	85	1
115	116	4
60	60	3
116	116	12
106	106	8
42	42	3
103	108	2
95	106	1
41	96	2
17	18	3
27	29	2
6	7	1
48	56	1
63	63	5
53	53	11
120	121	7
82	82	11
76	76	9
84	84	5
24	123	2
80	113	1
44	45	4
66	83	1
98	102	1
53	96	3
59	67	1
6	6	7
90	91	1
18	19	1
105	107	2
99	99	9
100	100	8
74	75	2
96	121	1
52	124	1
112	113	3
22	22	6
48	48	10
10	10	2
111	112	5
9	50	1
15	21	4
129	129	5
98	99	1
69	70	6
84	92	5
90	90	7
48	49	1
52	52	3
16	18	3
125	125	3
4	4	5
64	90	1
45	75	1
41	106	1
93	109	1
91	92	2
28	29	1
9	10	2
66	89	3
77	86	1
100	101	10
117	117	18
67	68	4
130	131	1
118	119	3
30	40	2
83	83	3
0	0	11
59	59	6
24	25	3
72	123	2
114	114	6
52	53	3
63	64	3
122	124	1
40	77	4
77	92	1
2	3	3
40	67	3
29	30	1
71	75	2
6	8	1
72	117	6
82	86	2
27	32	1
71	100	1
78	78	9
126	131	1
13	13	7
93	94	1
112	120	3
11	11	6
14	85	1
75	75	7
110	111	2
28	30	4
30	31	1
18	39	1
52	54	5
95	95	5
123	124	4
15	16	3
45	45	4
43	45	1
77	80	2
71	127	3
110	110	4
12	88	3
6	13	2
55	64	1
11	12	6
81	82	5
25	27	2
50	50	4
123	123	7
25	26	5
53	57	2
13	14	1
29	29	4
129	131	1
40	78	1
50	51	1
12	16	1
15	19	3
4	6	2
109	131	3
22	29	3
56	56	8
126	128	2
58	109	1
32	34	1
71	72	2
46	105	2
46	66	1
20	82	1
49	49	3
27	55	1
96	98	1
129	130	2
44	44	7
27	129	1
28	40	1
55	56	1
96	125	2
40	40	2
91	127	1
98	101	1
21	22	3
104	125	1
111	116	1
116	117	3
71	71	4
8	9	1
32	32	3
20	22	1
99	104	1
78	79	1
10	54	1
21	21	2
130	130	1
51	82	1
33	33	1
133	133	2
32	71	2
2	9	1
73	74	1
83	85	1
98	115	1
41	42	1
15	56	1
91	91	3
56	57	2
10	48	1
122	123	2
21	89	1
126	127	1
51	51	1
95	96	1
124	124	3
101	102	1
26	27	3
117	118	2
80	82	1
65	66	1
101	101	8
92	104	1
33	72	2
100	102	1
66	88	1
127	127	2
16	23	1
41	41	3
105	108	4
103	125	1
33	96	3
79	83	2
106	107	3
86	92	1
2	2	2
109	110	1
62	64	1
14	15	2
32	38	1
121	122	1
60	71	1
66	67	2
30	94	1
85	89	1
19	33	1
103	104	1
111	114	1
83	108	1
108	109	1
34	130	1
37	37	2
7	50	1
82	85	2
58	66	1
51	52	1
43	44	1
40	46	1
86	109	1
86	87	1
104	127	1
48	113	2
66	66	1
54	63	1
68	79	1
127	128	1
39	68	2
84	89	1
3	24	1
127	129	1
102	103	1
110	121	1
13	22	1
16	17	1
125	127	1
23	23	1
12	13	1
76	94	1
