133	133	7
87	87	7
108	108	17
67	68	8
54	54	18
7	28	3
69	69	11
95	95	5
116	116	16
81	85	4
43	46	1
126	126	8
73	73	5
117	117	7
33	33	7
25	109	1
22	22	12
92	92	11
119	119	12
19	20	13
65	65	15
77	77	6
3	3	6
15	15	9
6	6	12
100	101	4
31	32	4
91	91	14
2	2	22
4	6	4
60	61	1
48	49	6
27	27	7
8	116	3
1	1	12
43	43	7
112	112	13
66	67	5
55	91	6
98	98	4
123	124	3
9	10	1
20	20	8
122	122	4
104	104	18
26	26	19
58	59	6
96	96	11
124	124	11
88	89	3
113	113	1
68	69	3
10	50	1
88	88	7
51	51	4
105	105	4
114	114	7
12	12	9
17	18	2
50	51	2
94	94	9
125	125	14
125	131	1
43	81	3
120	120	8
62	63	4
79	79	8
56	56	14
126	127	2
97	98	5
72	72	11
4	4	6
16	28	7
55	55	11
54	76	4
52	52	2
66	70	3
74	75	1
44	44	7
108	111	1
66	66	18
31	31	3
102	102	11
41	41	3
25	26	4
66	126	1
32	32	7
129	130	4
94	95	7
16	19	2
2	4	3
106	106	6
72	73	5
71	71	13
76	76	6
75	76	3
5	5	6
46	47	2
84	84	2
34	34	4
84	85	4
62	62	3
24	24	7
103	103	9
57	57	6
73	80	1
21	21	3
53	53	12
82	83	3
70	70	13
28	29	4
124	125	5
111	112	1
99	100	4
75	75	4
115	115	9
49	50	3
97	97	4
42	43	4
25	25	4
98	99	3
65	66	5
89	89	13
23	24	4
117	118	1
64	131	7
17	17	2
118	118	10
79	84	2
129	129	3
14	14	3
67	70	3
39	39	7
1	2	5
48	48	4
0	0	7
68	68	12
56	122	1
44	45	4
101	101	5
14	26	1
28	28	4
106	107	2
83	83	3
67	125	1
85	85	4
39	54	1
38	39	3
62	64	3
80	82	2
27	107	6
63	66	1
62	67	7
49	49	7
20	107	3
40	40	11
41	42	4
44	80	2
14	15	3
18	18	2
60	128	3
111	111	4
11	11	4
96	97	1
88	92	1
29	30	3
87	88	2
77	78	2
110	110	13
9	12	1
27	106	1
77	86	2
18	19	7
7	7	4
70	71	3
26	109	1
105	106	8
81	81	4
86	86	1
48	69	2
42	42	6
80	80	2
121	121	15
10	10	5
68	95	3
63	63	8
78	78	2
132	132	5
16	16	5
21	22	3
81	82	2
60	60	5
93	94	1
82	82	2
110	111	1
108	109	4
13	13	8
109	109	3
114	115	4
104	105	4
8	9	2
19	107	4
123	123	8
34	38	3
41	43	1
90	91	2
4	5	4
46	46	1
18	104	4
20	21	3
130	130	3
67	129	2
33	97	1
47	47	3
59	59	2
67	130	2
60	62	3
30	57	3
80	81	3
53	83	2
99	99	2
93	93	3
8	8	4
81	83	1
131	131	5
10	12	1
88	91	2
71	72	4
19	19	5
49	52	3
33	98	2
58	58	10
118	119	1
74	74	4
12	13	2
128	129	1
57	58	3
15	16	4
9	9	2
107	107	5
63	64	7
90	90	4
122	123	2
49	53	2
32	98	1
75	77	2
45	45	4
61	69	2
102	103	1
83	84	3
55	95	2
30	30	2
52	53	2
78	84	1
51	122	1
50	50	8
43	71	2
131	132	1
40	76	1
47	69	2
67	67	7
105	107	1
31	101	1
68	128	1
58	101	1
128	128	1
95	96	1
33	34	1
126	131	1
40	43	1
75	113	1
53	85	1
58	129	1
27	29	4
72	80	1
72	81	3
95	97	1
16	21	1
23	23	1
89	90	3
89	92	1
127	131	1
10	11	3
119	120	2
81	84	2
64	64	1
7	8	2
127	127	2
25	116	1
112	113	1
51	52	1
92	93	3
26	27	3
78	85	2
0	2	1
126	128	1
82	84	1
41	45	1
100	102	1
77	95	1
93	96	1
75	85	1
30	102	1
29	29	1
107	108	1
78	94	1
0	1	1
42	80	1
127	129	1
