81	114	2
30	30	7
69	69	6
116	117	2
4	5	3
17	21	3
57	64	3
67	67	8
42	84	1
43	43	3
86	86	17
103	103	3
129	129	6
90	102	6
122	122	7
82	116	2
52	52	2
44	59	6
54	54	6
132	132	8
105	105	4
45	45	7
26	26	10
125	125	7
133	133	4
76	89	4
0	1	1
117	117	10
53	53	1
15	42	1
20	20	5
61	65	4
81	101	3
59	60	4
89	89	5
78	78	8
77	77	7
14	14	5
74	99	2
108	108	11
106	106	9
12	12	4
115	115	5
10	10	6
56	56	4
79	79	6
120	120	15
71	71	8
131	131	5
91	91	14
111	111	6
121	121	11
75	104	2
95	95	14
102	102	3
100	100	2
1	1	4
99	99	3
65	65	4
68	69	3
8	8	5
19	19	5
76	78	1
4	9	1
74	74	3
92	96	1
124	125	3
12	13	6
96	96	9
44	45	5
68	115	3
98	101	1
19	21	6
2	2	3
34	34	4
33	33	3
93	93	4
80	135	5
116	116	7
32	32	2
81	81	2
88	88	4
72	72	13
63	64	2
31	32	5
94	94	2
28	28	4
97	98	6
6	19	1
83	83	4
36	36	6
70	79	2
27	28	3
134	134	2
14	112	3
98	98	15
78	129	6
43	45	1
91	92	7
35	35	3
108	110	1
118	118	8
89	90	3
121	123	2
16	16	3
62	62	5
63	63	12
113	115	2
84	84	10
50	50	9
85	85	9
109	109	4
8	11	1
29	29	5
112	112	5
4	4	7
54	55	7
70	70	5
80	80	12
122	123	1
110	110	4
18	18	6
24	24	5
128	128	7
14	79	3
7	7	7
82	107	3
24	26	2
108	111	8
45	51	3
16	18	1
2	38	3
85	131	1
10	11	2
53	68	1
57	63	2
37	37	6
88	103	3
92	92	8
19	20	1
73	73	3
67	69	1
3	38	2
44	44	7
15	21	1
115	116	2
24	33	2
97	97	5
119	120	3
57	68	4
58	58	4
132	133	1
126	126	2
107	107	4
21	21	6
124	124	3
42	42	1
13	13	4
28	31	4
114	114	4
64	64	6
7	11	3
26	35	2
135	135	1
32	92	3
65	69	1
72	73	9
25	26	1
31	33	1
22	22	6
122	125	2
17	19	1
21	22	1
23	25	3
61	61	5
114	115	8
6	6	4
36	37	3
11	27	3
66	66	1
22	23	3
128	129	2
9	9	4
99	134	2
85	86	2
37	38	1
2	3	2
11	11	5
6	7	2
31	31	4
57	59	3
5	5	2
108	109	3
130	130	5
126	127	8
71	75	3
15	15	5
79	80	4
113	113	5
129	130	2
94	95	3
123	123	2
63	77	2
76	76	4
46	46	2
66	86	3
27	27	2
101	102	2
24	25	2
78	88	1
7	10	1
86	87	3
87	87	1
83	132	2
90	90	1
111	118	1
3	3	2
25	25	3
127	127	3
82	83	3
65	85	2
49	116	1
82	84	1
84	111	1
81	82	1
26	27	1
1	3	2
112	113	2
15	109	1
15	111	1
83	85	2
82	113	1
28	113	2
77	78	2
15	24	4
106	118	1
8	9	1
23	24	3
65	66	4
3	10	2
92	93	1
7	8	1
3	4	2
104	104	2
33	36	1
36	91	1
91	102	1
57	57	6
121	122	5
35	91	1
50	84	2
42	43	1
30	31	2
75	75	1
118	127	1
8	26	1
72	74	1
32	36	1
52	56	1
113	116	1
71	79	2
46	48	1
54	56	1
53	67	3
18	21	2
109	118	1
32	91	1
71	73	2
123	126	1
70	73	1
85	100	1
51	120	1
17	22	1
48	49	2
71	105	1
14	15	1
5	7	2
2	4	3
60	60	1
65	86	1
68	114	1
15	110	2
31	96	2
109	119	1
0	34	2
55	56	2
119	119	1
17	34	1
64	65	1
57	60	1
26	36	1
110	113	1
83	84	1
76	88	1
112	115	1
101	101	2
109	116	1
70	88	1
134	135	1
105	114	1
16	17	1
26	32	1
48	52	1
