164	164	5
71	85	7
6	31	3
125	125	7
123	123	6
55	107	1
28	28	4
43	43	12
82	110	3
61	62	5
79	97	1
76	76	5
142	142	6
30	31	4
12	17	4
111	117	3
118	135	3
187	187	12
128	143	2
162	164	2
150	174	3
24	24	3
16	17	4
52	53	4
58	58	7
85	85	3
142	170	3
131	133	1
171	171	11
126	127	2
160	161	3
114	114	3
163	163	6
20	24	2
183	183	6
86	86	4
98	111	2
33	39	4
150	151	1
152	154	5
137	157	2
27	32	5
174	175	6
27	27	13
156	158	6
189	189	14
3	7	1
140	140	12
19	22	1
118	118	6
58	60	4
82	82	7
0	1	1
148	153	1
35	45	2
60	61	1
96	97	2
163	182	2
14	14	5
94	94	4
87	101	2
144	144	4
13	13	3
67	68	1
2	7	1
168	168	6
150	150	1
31	37	3
176	176	3
0	3	5
45	45	4
60	60	3
185	185	4
121	127	7
137	147	1
75	76	2
20	25	1
107	112	1
28	44	3
11	11	5
54	67	1
46	46	6
174	174	8
88	93	5
162	162	4
103	106	4
67	67	4
35	42	4
130	138	4
152	168	2
143	144	9
161	170	2
0	0	1
115	131	1
40	182	2
83	83	1
164	168	2
36	37	1
88	92	5
30	30	6
157	157	4
175	175	6
83	93	1
32	32	6
32	38	5
6	9	1
179	183	3
109	110	2
53	53	4
165	167	3
10	10	2
97	97	4
173	177	3
83	85	6
32	36	6
91	91	3
107	108	3
118	144	2
39	40	2
6	6	6
35	39	2
62	62	5
117	117	2
111	111	4
92	92	4
29	41	1
74	74	1
33	33	14
16	187	3
184	184	5
105	108	3
106	115	4
111	129	8
128	128	6
130	131	4
184	185	5
29	30	5
31	41	3
61	64	7
182	186	2
61	61	4
88	88	12
95	95	3
4	25	1
7	7	5
1	1	1
20	71	1
37	45	1
48	48	2
14	21	2
185	186	2
133	145	8
60	75	3
159	159	1
5	5	3
161	165	2
173	181	3
37	46	4
175	189	3
105	115	2
142	158	2
146	167	2
77	77	2
141	160	3
116	116	12
24	45	3
73	79	1
55	55	2
6	7	1
107	107	3
62	74	2
146	146	4
145	147	1
24	26	6
147	148	2
111	125	1
4	6	1
152	152	7
5	7	1
77	79	6
56	61	3
16	30	2
34	34	3
71	71	2
106	106	11
81	86	1
33	37	1
63	73	3
13	17	2
81	85	2
165	165	3
147	147	1
154	154	2
87	87	8
105	105	6
76	77	2
90	90	3
4	17	1
139	139	4
178	183	5
111	114	3
43	121	3
26	26	3
98	98	9
6	177	1
95	111	1
28	56	1
37	37	2
17	19	2
129	148	2
0	176	3
2	19	1
125	128	3
177	186	1
46	47	2
54	57	1
39	39	2
12	87	3
34	43	3
103	103	3
122	122	2
93	93	1
101	115	6
181	181	3
166	166	4
139	156	2
168	171	2
173	173	1
75	75	4
29	29	4
56	56	4
40	43	2
118	134	3
4	10	1
155	160	4
64	81	1
130	130	3
148	174	4
177	180	5
11	12	3
138	138	6
89	104	2
135	137	1
65	89	4
166	186	1
79	81	4
78	79	1
110	111	2
109	109	3
178	185	1
80	80	3
162	171	3
177	177	3
62	82	4
118	131	3
139	140	1
88	89	5
179	179	1
104	106	2
173	185	2
190	190	2
57	57	9
158	160	1
115	125	1
56	57	4
181	184	1
171	184	1
149	149	1
186	186	3
100	119	2
95	108	1
141	141	1
22	22	4
33	181	2
22	23	2
157	170	1
110	110	4
185	190	1
33	45	1
176	177	1
64	64	3
169	182	1
92	110	1
123	130	1
34	188	2
20	40	1
33	35	2
147	149	2
96	98	2
104	104	6
100	101	2
44	44	1
151	154	2
156	156	2
126	140	1
118	121	1
31	31	2
17	17	1
147	160	2
52	62	1
134	134	4
148	159	2
107	122	1
133	133	2
130	135	2
113	113	3
143	145	2
0	18	2
127	145	1
82	86	1
59	76	3
24	31	1
95	165	2
174	186	1
154	155	6
107	131	3
53	58	2
134	151	1
173	178	1
179	180	2
39	48	3
59	64	3
18	32	1
106	116	1
37	38	1
135	135	2
106	147	2
65	67	3
186	189	5
86	88	3
39	93	2
17	39	1
14	15	1
161	161	3
67	71	1
153	168	2
188	189	2
84	84	1
183	187	1
40	41	1
54	55	2
5	36	1
61	72	1
143	143	1
142	157	2
72	77	1
0	25	3
34	46	1
53	60	1
16	20	2
104	124	1
100	103	1
117	118	1
127	127	3
78	81	2
53	92	2
4	5	1
179	188	1
21	21	2
99	99	1
16	16	2
110	124	1
162	170	2
3	22	3
0	5	1
187	190	1
36	36	1
68	81	2
5	14	5
66	67	2
0	7	2
132	132	1
153	153	1
76	85	1
102	102	1
55	85	2
158	165	1
24	27	1
91	94	2
79	79	1
66	77	1
62	70	1
5	26	1
77	78	1
114	122	2
38	46	1
112	115	2
175	176	3
170	170	1
81	109	1
155	156	1
8	10	1
167	167	1
6	26	1
72	72	1
73	73	1
78	91	1
4	4	1
116	120	1
115	116	4
136	136	1
70	70	1
60	70	1
161	173	2
76	91	3
77	86	1
169	187	1
87	103	2
35	35	3
14	37	1
1	5	2
180	189	1
49	49	1
19	44	1
144	164	1
13	15	1
6	17	1
8	18	1
34	38	2
82	93	1
158	158	1
104	123	1
172	172	1
73	74	2
191	191	1
74	86	1
187	189	4
25	25	1
8	155	1
171	186	2
55	62	1
124	142	1
101	102	2
64	71	1
23	42	1
135	136	1
124	146	2
159	170	1
35	48	1
26	37	1
119	137	1
4	16	1
42	42	1
26	27	1
121	121	3
62	64	1
62	78	1
9	24	1
19	19	1
59	81	1
80	82	1
161	162	1
165	183	1
23	91	1
6	24	2
160	160	1
97	101	1
12	14	1
103	120	1
78	78	2
89	89	1
70	79	1
125	135	1
70	78	1
27	42	1
71	80	1
52	54	1
186	187	2
121	122	1
138	139	1
104	117	1
26	28	1
53	78	1
