101	102	3
47	47	21
122	122	6
75	78	1
95	95	6
74	84	1
41	84	1
104	131	2
74	74	18
106	114	3
101	101	9
35	35	19
75	76	10
65	65	18
15	15	12
126	128	1
46	46	8
107	113	5
45	45	5
36	36	5
100	100	9
10	10	8
100	101	1
107	126	5
68	116	5
45	72	7
17	47	3
20	21	13
91	91	9
82	82	6
55	55	1
59	59	12
93	93	6
99	100	6
124	125	4
84	84	5
17	17	5
19	21	7
27	27	9
41	88	2
92	92	1
118	119	2
40	40	5
108	108	3
85	85	19
87	87	4
111	111	8
0	0	4
8	8	4
106	106	5
119	119	6
88	88	9
86	88	5
57	85	2
130	130	6
49	94	4
3	3	3
71	71	3
18	18	6
75	75	13
84	85	5
31	31	2
72	72	11
14	14	7
1	65	2
129	129	4
13	13	7
41	85	3
117	118	2
120	120	8
21	78	2
71	72	3
62	62	6
93	94	1
18	20	6
103	103	7
123	123	7
77	77	10
33	33	5
12	12	6
1	67	1
41	41	6
94	97	1
66	67	1
46	48	5
125	125	9
46	47	5
55	56	2
124	124	9
48	93	1
78	78	10
26	26	3
1	1	8
128	128	2
102	104	4
30	31	5
124	126	5
38	38	1
11	11	3
110	111	6
23	23	3
27	28	10
57	57	6
127	128	4
61	61	2
38	88	4
99	99	2
99	134	1
118	118	19
21	89	2
25	25	8
40	42	6
34	35	4
104	105	3
21	21	9
5	5	1
57	58	4
22	25	1
6	6	10
132	132	5
16	16	6
81	81	5
85	86	3
60	60	2
29	31	3
69	131	2
2	116	1
70	70	4
60	86	1
15	16	3
112	112	3
22	23	1
121	121	6
64	64	7
31	32	6
34	34	4
112	113	5
43	43	4
109	109	6
22	24	2
133	133	4
62	63	4
43	46	1
26	27	3
13	14	2
15	92	1
110	110	5
73	73	6
67	67	6
59	60	1
115	115	3
128	129	6
16	17	2
7	7	7
79	79	6
33	34	1
97	97	1
48	49	4
56	85	3
2	2	3
101	105	5
98	98	1
20	20	5
9	10	5
56	58	4
56	56	2
76	76	5
110	126	1
36	37	2
22	22	10
66	66	7
1	2	2
107	107	5
21	22	5
38	86	4
37	38	2
114	116	1
3	119	1
4	106	1
44	45	2
56	57	3
75	79	2
130	132	3
50	50	1
125	126	1
9	9	8
94	94	4
121	122	3
116	131	1
86	86	3
28	30	5
90	92	2
19	19	7
117	117	4
19	22	4
96	96	2
11	94	1
105	105	3
27	34	2
4	4	5
62	64	2
120	121	2
6	8	3
74	75	1
38	85	1
123	125	3
107	110	1
38	40	1
110	112	1
29	29	5
27	35	1
83	83	5
105	106	1
97	100	2
115	118	1
104	104	2
68	68	2
57	86	3
23	24	3
15	90	1
76	78	3
12	14	3
63	63	2
5	132	1
90	90	1
83	84	1
39	39	4
114	115	1
75	86	1
8	100	1
80	80	4
41	86	2
11	96	1
20	88	1
94	95	1
108	113	2
26	31	1
6	7	1
19	20	1
4	5	2
127	127	1
69	133	1
50	55	1
108	119	1
109	124	2
27	31	1
97	98	1
116	116	3
49	49	1
16	90	3
109	110	1
3	5	1
113	113	2
3	118	1
115	116	1
27	36	1
114	114	1
12	47	3
82	86	2
131	131	2
37	37	2
30	30	2
78	88	1
6	132	1
82	92	1
24	25	4
104	133	1
43	84	1
105	117	4
80	88	1
7	130	2
27	30	1
70	71	1
63	64	2
46	92	1
126	126	1
98	100	1
118	126	1
1	69	1
37	87	1
32	33	1
103	104	1
108	109	1
115	129	1
113	127	1
45	74	2
72	94	1
38	41	1
107	114	1
38	58	1
35	88	1
134	134	1
28	28	1
2	118	1
