3	3	6
112	112	5
98	130	2
116	116	9
117	117	12
26	27	1
132	133	2
9	9	4
59	59	3
4	24	6
45	77	4
50	51	1
49	49	18
43	43	5
78	82	1
129	129	4
97	97	5
76	76	6
52	52	14
26	26	6
1	1	13
20	20	10
27	27	7
32	32	12
30	30	11
94	124	3
92	92	9
67	92	4
126	126	8
129	131	1
49	50	2
102	127	3
129	130	3
29	30	3
112	113	7
24	24	6
92	93	4
93	93	5
86	109	3
113	117	3
66	66	12
50	50	3
8	9	6
54	54	9
120	120	12
110	123	4
0	0	5
91	91	8
11	13	3
11	23	1
25	52	1
110	122	3
120	125	8
22	22	11
59	60	3
16	16	9
121	121	20
118	131	2
119	119	4
133	133	10
113	113	13
6	6	14
89	102	1
110	110	11
113	116	5
10	93	1
128	128	8
94	105	2
84	84	15
108	108	6
4	5	4
44	44	4
15	15	4
81	81	6
110	111	6
79	79	5
73	75	4
59	86	1
5	5	8
82	83	3
0	20	1
28	49	2
115	115	2
82	84	3
83	84	2
27	48	3
12	51	4
111	121	3
17	20	1
50	52	3
95	96	1
13	20	5
109	109	5
57	57	7
5	21	3
25	25	3
104	104	12
20	21	3
4	4	5
71	72	2
61	61	2
33	33	5
95	122	1
55	55	10
52	53	2
65	66	3
70	90	1
46	46	5
132	132	3
52	89	6
123	123	6
94	96	3
103	108	2
107	107	6
51	51	5
12	23	5
98	98	1
10	11	1
111	111	8
128	130	7
75	75	5
87	89	4
103	103	8
68	69	2
25	26	4
107	108	7
90	91	1
21	21	5
21	47	3
95	95	12
11	11	9
80	80	11
89	89	16
94	94	11
74	80	3
68	105	2
60	62	1
4	49	1
116	128	1
127	127	5
23	23	9
115	130	3
99	99	8
114	114	11
65	65	8
14	14	3
80	87	4
12	41	2
60	121	3
121	133	3
63	64	2
40	42	1
69	69	13
126	131	2
39	39	10
128	132	3
78	79	8
51	52	5
24	50	5
47	47	10
42	65	3
128	131	1
17	18	6
19	20	6
31	32	2
39	40	4
115	128	2
29	29	4
48	56	1
115	116	3
93	99	1
124	124	5
1	7	2
53	54	5
82	82	8
48	48	6
93	108	3
74	74	1
59	75	1
118	118	2
81	96	1
0	8	3
45	53	1
125	125	11
1	5	1
44	48	2
79	82	4
49	69	2
115	118	2
109	132	1
46	47	1
111	119	3
55	56	1
125	127	2
86	91	2
58	62	3
63	63	4
86	104	3
125	132	1
99	101	3
6	58	2
61	92	6
61	85	2
118	119	4
78	78	3
88	88	6
42	72	1
68	104	5
90	90	8
56	56	4
131	131	5
61	71	1
55	62	2
107	124	2
42	42	6
73	73	3
61	98	2
100	132	3
67	67	3
13	13	3
19	19	2
31	31	1
13	15	3
100	100	3
111	118	2
96	115	1
33	47	3
97	107	2
61	114	1
40	66	1
130	131	2
7	13	3
21	26	2
112	117	3
43	59	2
88	89	1
79	83	2
113	114	4
37	38	6
30	31	4
70	72	3
91	92	3
58	58	6
7	31	3
1	2	3
52	114	2
84	90	1
58	117	1
3	7	2
77	113	1
26	32	2
89	91	1
6	32	1
106	106	8
12	12	2
104	120	1
0	27	1
10	21	5
127	128	6
3	4	3
99	100	3
34	34	4
65	101	3
89	90	6
32	33	3
87	113	1
42	43	3
38	66	1
8	8	2
71	71	2
30	51	1
122	122	7
91	97	1
11	19	2
99	105	2
51	53	4
96	96	1
25	32	2
2	2	7
125	131	3
3	6	1
24	33	1
49	77	1
33	39	1
97	98	3
102	102	9
111	125	1
110	120	1
101	101	4
131	132	1
64	64	3
66	80	1
86	86	1
52	57	1
34	40	1
17	21	4
31	76	1
41	42	5
80	104	1
16	17	2
113	118	1
72	73	1
127	130	2
17	29	3
58	116	2
2	8	1
62	67	2
70	71	1
67	73	1
5	7	1
68	93	1
72	103	2
75	116	1
53	53	3
66	67	1
109	115	3
86	88	1
71	102	1
103	106	1
70	70	3
7	7	4
91	93	1
54	61	1
130	130	2
71	106	1
1	27	1
94	123	1
77	78	1
67	99	1
17	17	7
10	17	1
68	70	1
72	102	1
37	40	2
42	64	1
82	106	2
14	24	1
85	85	2
84	104	2
58	110	1
29	53	1
81	100	1
108	132	2
118	125	1
123	124	3
92	97	2
115	132	1
46	50	1
104	105	2
103	129	1
42	63	1
94	104	2
28	28	2
115	123	1
38	68	1
5	33	1
47	48	1
87	87	1
96	102	1
8	34	1
86	93	1
23	24	2
106	124	1
28	57	1
7	47	2
72	72	1
82	114	1
23	25	1
0	49	1
79	115	1
104	124	1
83	115	1
104	118	1
11	18	2
62	68	1
97	123	1
14	21	1
82	95	1
10	10	1
60	87	1
91	99	1
38	38	1
19	22	1
118	127	2
102	129	1
75	76	1
40	47	1
71	110	1
57	76	1
2	3	1
76	103	1
6	19	1
128	129	1
