227	227	9
203	203	14
218	218	21
238	239	1
106	106	4
51	51	3
63	64	3
27	27	9
172	172	6
170	171	2
58	58	9
96	96	4
222	222	12
63	63	7
24	24	17
122	123	3
1	1	5
217	218	1
29	29	7
183	183	17
156	156	5
107	162	3
119	119	3
136	162	5
126	126	6
45	45	14
143	143	12
98	98	7
65	65	6
219	220	3
239	239	9
209	209	5
16	16	8
105	105	7
218	227	3
159	159	7
232	233	8
46	46	6
181	181	12
127	127	3
20	20	10
189	190	2
137	137	9
43	43	13
73	73	11
69	70	2
116	116	12
15	15	7
207	207	6
101	102	3
70	70	14
194	226	1
205	205	5
41	41	7
207	213	2
100	102	1
139	140	1
28	28	11
150	150	9
106	129	1
85	85	9
165	165	4
210	210	5
83	84	5
97	97	9
177	183	3
111	162	1
38	38	8
42	42	11
233	233	7
44	44	5
9	9	6
175	175	21
228	230	4
143	144	1
77	95	4
106	128	2
68	69	3
73	74	3
40	40	5
202	202	25
186	186	6
8	8	3
33	34	2
201	201	4
22	23	7
17	17	8
204	204	5
225	225	5
240	240	3
179	179	8
80	81	5
208	214	4
140	141	10
192	192	3
172	179	1
208	217	1
136	159	2
231	232	7
54	54	10
169	169	7
74	74	20
45	179	1
190	190	2
236	236	7
155	155	2
216	217	2
217	217	9
75	75	20
142	142	2
109	110	7
194	203	3
26	26	6
37	38	6
146	146	10
224	224	1
57	57	5
232	232	6
147	148	7
241	242	3
55	66	2
234	234	3
161	161	13
115	115	11
64	64	18
171	180	2
113	113	7
83	83	3
3	4	1
30	30	10
128	129	3
26	71	4
35	35	8
4	35	3
223	223	5
105	106	6
32	33	1
215	216	11
145	145	8
116	118	3
177	179	6
150	152	6
122	122	11
79	79	10
193	193	2
220	222	3
7	7	3
173	177	2
159	160	3
13	13	7
59	59	5
68	68	6
164	164	9
166	166	5
55	56	3
189	189	7
14	15	3
156	159	2
91	91	4
100	100	5
23	24	6
131	133	1
120	120	16
10	10	12
233	234	4
55	55	6
10	73	1
20	47	4
174	175	4
204	205	1
43	44	7
196	197	8
99	165	10
72	72	5
33	33	9
174	174	6
160	160	13
153	153	4
137	141	4
71	73	1
146	149	1
75	86	1
242	242	8
214	214	11
152	153	4
230	230	5
42	43	2
135	135	6
128	128	14
220	220	2
208	208	7
9	10	7
66	73	2
222	224	3
197	212	5
219	219	7
53	207	3
228	231	1
187	187	10
21	21	3
20	74	4
70	180	3
129	129	8
146	186	6
56	56	8
113	116	3
82	83	5
66	66	4
185	185	5
13	16	11
199	218	1
102	127	5
195	196	3
54	65	1
213	215	2
200	200	6
168	168	19
56	57	3
20	26	2
131	131	10
180	181	1
187	203	2
123	123	1
196	196	4
37	37	8
102	102	1
237	237	3
165	236	2
19	32	4
178	178	4
115	125	1
17	181	3
135	136	2
137	140	3
24	73	1
121	121	2
147	147	3
31	31	5
140	160	1
235	235	3
137	163	3
101	123	1
138	139	5
136	160	6
62	63	1
36	36	1
167	228	3
231	231	3
0	0	3
178	179	6
40	43	1
19	55	1
175	183	3
12	12	4
96	177	1
187	189	7
26	73	1
48	48	3
221	223	2
56	68	3
219	231	3
213	213	3
80	80	3
17	50	1
54	64	4
149	149	3
142	143	4
60	215	3
195	197	2
111	115	3
78	92	2
29	31	3
120	123	5
98	100	3
149	150	5
80	82	1
170	170	9
191	191	4
5	8	1
102	104	2
152	152	10
104	107	5
167	167	3
61	61	12
18	51	4
184	185	5
192	198	1
42	178	1
170	172	1
81	81	1
50	54	2
21	30	4
14	14	3
53	53	6
47	47	12
147	187	1
19	19	6
4	4	2
203	204	3
184	184	2
50	53	2
52	53	5
197	197	2
181	182	3
53	54	3
28	29	3
34	34	1
5	7	2
173	174	3
103	123	2
103	161	1
211	212	4
99	99	3
180	180	3
194	195	3
162	163	1
103	103	6
15	16	2
2	2	4
200	226	3
59	60	2
103	127	2
212	212	2
176	176	9
104	105	1
168	191	7
77	77	1
137	138	5
221	222	2
30	32	4
200	218	2
188	188	4
213	216	3
207	208	1
25	25	9
76	77	7
192	230	1
9	183	1
241	241	3
169	234	1
192	193	6
145	146	1
82	82	1
32	32	4
146	185	1
157	158	2
78	78	8
177	177	5
56	66	4
82	86	2
134	135	1
205	206	2
132	132	1
44	180	1
39	39	4
125	125	7
95	95	4
44	45	1
13	15	1
145	147	3
63	68	4
49	49	2
45	180	3
211	211	5
170	202	1
11	11	4
171	171	1
111	111	1
200	201	2
228	229	4
98	99	2
199	210	3
139	139	1
65	67	1
198	204	3
131	162	6
12	14	1
47	54	4
121	122	1
142	145	1
203	205	5
201	204	3
3	36	2
135	143	2
25	26	3
212	213	1
133	134	7
84	84	9
108	108	1
103	130	2
70	71	2
71	72	3
216	216	1
46	181	1
150	151	2
169	191	2
151	151	2
135	141	5
3	7	4
154	154	1
11	14	2
205	212	2
139	175	1
59	62	6
182	182	3
215	215	2
107	107	1
62	62	1
26	27	2
31	32	1
10	15	1
77	78	1
236	237	1
198	199	1
71	71	2
141	143	1
177	182	1
195	195	3
97	147	1
157	157	1
127	128	1
1	4	1
50	50	2
141	141	3
133	133	2
0	36	2
173	173	3
96	147	1
49	50	2
47	88	1
8	9	3
238	238	6
209	211	1
76	76	3
100	165	1
108	109	1
157	159	1
54	55	1
140	140	3
134	156	1
231	233	1
1	2	1
221	221	2
46	47	2
138	138	6
41	42	2
74	181	1
100	130	1
22	22	1
220	224	2
105	127	3
86	86	3
110	110	2
239	240	1
36	37	1
95	96	1
109	109	4
209	216	1
18	19	2
89	89	1
206	207	1
179	181	1
197	205	1
5	35	1
85	151	1
134	161	1
101	127	2
69	69	4
229	229	1
148	148	1
99	101	1
16	17	1
31	33	1
97	152	1
58	60	4
65	66	2
31	34	2
158	158	1
45	47	1
171	172	1
177	178	1
145	148	1
219	226	1
100	238	1
192	194	1
18	18	2
113	242	1
169	230	1
117	118	2
47	74	2
64	65	1
64	67	1
38	45	1
64	203	1
182	203	1
193	195	3
108	130	1
40	42	1
228	228	2
132	133	2
109	165	1
186	190	1
49	53	1
144	144	1
168	169	2
183	184	1
66	68	1
97	140	1
40	41	1
199	199	1
124	126	1
24	25	1
65	68	1
86	96	1
168	201	1
