176	176	11
96	96	13
158	171	8
66	66	8
113	165	3
31	111	2
31	32	8
234	234	4
188	194	2
178	195	6
20	92	2
74	171	3
179	216	3
244	245	10
82	82	9
32	32	5
53	53	4
36	36	13
146	146	2
120	185	4
166	166	4
52	53	5
114	114	10
152	152	5
20	20	6
86	86	4
97	97	9
189	189	17
159	159	6
179	182	1
24	24	2
163	166	5
51	58	7
87	87	8
33	33	10
106	107	7
81	81	4
23	26	4
4	75	5
200	201	4
207	207	12
164	164	8
46	47	2
10	10	11
101	113	2
221	221	3
39	40	1
57	57	1
75	76	8
22	23	1
240	240	9
153	153	10
214	215	6
215	219	3
194	241	1
154	154	4
55	57	5
226	226	11
76	77	4
77	77	7
1	3	5
214	214	5
26	26	5
29	30	6
151	159	5
203	203	9
31	31	6
15	48	2
91	119	1
174	198	5
245	246	6
100	110	2
109	109	10
156	156	9
84	84	5
235	235	4
40	40	14
164	165	6
173	173	3
86	89	2
60	93	3
99	99	2
177	177	6
167	205	4
162	221	1
191	191	4
119	119	3
98	98	2
57	101	1
174	237	3
117	117	6
63	91	3
75	118	4
61	81	5
188	188	8
42	42	9
95	95	5
44	44	5
112	112	8
55	59	4
34	35	5
201	201	8
242	243	7
60	75	2
216	223	2
6	56	2
25	25	4
167	245	3
34	59	2
111	113	3
9	9	4
14	14	12
196	229	1
101	111	3
186	199	1
74	74	7
19	19	9
208	208	4
28	145	3
107	107	7
52	91	2
155	155	10
187	187	2
37	37	4
62	73	2
28	51	2
114	115	5
41	41	4
155	156	2
167	167	1
165	165	6
1	12	5
72	106	1
185	186	6
51	51	3
6	40	3
77	78	7
224	224	8
28	28	6
5	11	4
15	94	3
203	236	6
49	86	2
152	153	2
34	34	4
220	220	3
8	18	3
22	22	15
159	160	5
17	17	4
180	246	3
31	104	1
61	62	2
53	205	3
88	88	6
97	208	1
116	116	4
194	194	1
23	23	8
61	61	7
179	189	7
85	171	5
199	199	9
241	241	3
61	79	2
118	121	1
243	244	4
43	67	2
93	207	1
112	114	5
180	200	7
17	165	1
100	100	6
45	45	15
186	187	12
160	214	2
30	30	1
66	91	6
47	47	5
96	150	4
198	198	12
4	4	2
163	164	4
21	21	6
77	79	1
68	68	6
182	182	4
0	0	5
59	61	1
175	175	3
216	216	1
216	221	2
115	116	2
207	227	1
49	49	1
79	79	4
36	37	2
55	151	5
245	245	3
59	109	3
168	168	10
217	217	7
4	60	1
104	104	9
48	48	3
1	1	4
183	227	2
241	245	3
43	43	4
54	55	4
55	60	1
151	151	7
66	71	2
50	50	4
206	206	4
167	168	1
246	246	6
231	233	2
40	100	4
211	211	10
97	98	2
20	33	3
168	169	1
210	210	10
238	240	2
57	106	2
9	14	3
32	33	3
169	174	2
150	150	12
52	52	4
200	200	7
234	235	3
186	192	2
60	63	3
38	95	1
6	36	3
182	183	3
44	47	2
8	8	1
196	240	4
233	233	3
178	178	4
105	105	2
67	81	1
239	239	1
69	69	2
10	11	1
13	13	3
59	60	3
202	235	3
67	67	2
73	77	1
205	205	4
154	155	1
170	170	6
171	171	10
46	46	5
210	226	2
184	200	2
87	248	4
75	75	2
101	101	4
111	111	4
248	248	5
54	54	2
29	111	3
93	93	2
214	231	3
174	240	2
15	52	3
43	44	5
35	36	1
109	118	5
235	236	1
44	45	8
65	65	6
205	208	1
210	211	4
37	103	1
169	169	11
40	76	8
42	43	4
247	247	1
105	106	4
207	212	2
75	77	2
24	85	2
231	231	1
212	214	3
62	62	4
218	218	1
72	117	4
106	109	2
177	246	3
113	116	2
180	180	7
96	164	2
185	185	8
94	245	2
243	243	5
28	154	1
144	221	4
213	213	3
113	117	2
236	236	2
108	208	2
145	150	4
168	216	1
6	6	5
15	15	3
106	106	7
46	91	1
75	94	1
193	193	4
71	71	4
223	223	2
76	76	6
68	70	6
23	25	2
108	108	4
167	172	3
102	102	1
179	179	5
221	222	2
225	225	3
78	78	5
73	73	2
117	118	4
21	22	4
232	232	2
192	192	5
28	32	1
91	91	4
57	117	2
209	233	2
238	238	4
76	105	3
184	184	2
157	157	9
173	178	1
50	113	1
171	247	2
25	26	2
189	190	3
79	80	2
113	113	8
195	195	3
162	200	1
5	5	7
63	90	3
219	219	1
226	229	2
110	110	5
154	219	2
216	217	2
195	197	1
8	16	1
31	110	2
154	169	2
181	247	2
147	147	7
220	226	2
45	46	2
90	90	6
60	60	6
212	212	3
219	222	4
237	240	6
193	242	3
200	230	1
4	110	1
226	228	1
198	239	1
39	39	3
95	98	3
15	56	2
107	163	2
156	209	1
175	176	3
150	152	1
150	233	1
180	182	1
35	35	5
6	38	2
94	94	1
66	87	2
38	38	1
54	94	3
80	90	3
74	119	2
70	73	5
3	12	4
12	12	2
64	64	1
30	111	1
37	38	1
71	105	1
145	149	1
109	110	1
107	114	1
35	38	3
158	172	2
73	76	2
208	209	1
231	232	1
158	159	1
20	26	2
163	163	2
65	66	2
219	220	4
42	108	1
39	42	1
40	75	3
159	213	1
195	196	1
195	198	2
197	197	1
16	16	6
83	83	3
41	105	2
89	89	2
147	165	5
59	59	3
228	228	4
183	183	1
203	204	3
102	103	2
11	11	6
229	229	1
16	166	1
1	9	1
7	7	2
194	219	1
160	223	2
17	113	1
172	178	2
144	212	5
59	62	2
162	162	1
95	96	1
6	16	1
19	100	1
169	213	1
11	68	2
80	80	3
177	247	1
94	205	2
27	28	2
5	60	1
29	29	3
178	215	2
27	30	2
63	63	2
72	72	1
67	90	2
202	204	1
58	107	2
55	55	4
103	103	1
41	94	1
84	191	2
197	199	2
173	185	1
30	31	1
6	68	1
92	92	5
38	39	2
28	155	1
202	202	2
181	214	1
225	226	1
20	27	1
46	96	1
115	115	3
18	18	1
172	172	1
2	2	1
214	246	1
71	72	1
75	105	2
43	200	2
244	244	4
26	150	1
70	70	5
2	4	1
161	173	1
39	41	1
107	227	1
92	93	1
195	229	2
20	35	1
157	189	1
4	18	1
44	117	2
65	89	2
69	169	1
247	248	1
85	89	1
40	41	1
27	91	1
22	32	1
204	204	1
25	91	1
86	223	1
96	98	1
23	53	2
215	215	1
180	181	1
98	100	2
24	25	1
26	46	1
88	89	1
26	29	1
187	190	1
174	178	1
159	187	1
49	91	1
156	232	1
42	109	1
104	110	1
53	242	1
49	50	2
168	241	1
5	68	1
87	175	1
86	190	1
215	216	1
147	163	1
201	213	1
3	3	1
74	118	1
110	114	1
106	108	1
207	217	1
179	217	1
202	203	1
