67	67	3
55	77	1
135	136	6
113	113	4
124	125	3
24	42	6
8	8	9
40	40	4
117	117	5
164	164	1
25	26	1
68	74	3
132	132	4
72	72	4
150	150	6
16	16	5
153	153	6
25	43	1
15	17	2
53	53	6
93	94	4
172	178	1
86	86	6
25	25	4
0	0	3
30	30	7
9	9	5
131	131	5
176	176	1
147	147	10
64	64	10
33	33	7
135	135	7
129	131	3
58	58	5
61	61	4
58	59	7
136	137	3
132	145	4
60	63	1
32	172	2
13	13	2
15	18	3
42	42	9
167	167	1
112	114	3
112	112	4
111	112	3
28	28	7
4	4	4
11	11	1
78	79	7
114	115	5
141	148	2
147	148	1
2	2	1
74	74	1
106	106	6
31	31	1
44	45	1
83	83	1
17	17	2
143	144	5
110	110	3
72	81	7
115	115	7
141	142	3
36	36	6
169	170	3
62	62	4
138	138	3
108	108	2
92	92	3
123	123	2
72	89	3
85	92	4
52	53	1
175	176	5
116	139	1
153	154	2
27	27	4
57	57	1
105	105	3
55	55	5
175	175	1
119	120	3
122	122	2
3	3	2
134	134	3
80	80	1
20	20	1
146	146	2
40	41	2
96	96	4
65	161	6
156	156	2
151	151	4
166	166	2
121	121	1
151	156	2
75	75	5
137	139	3
178	178	1
125	126	1
117	118	1
148	149	1
124	124	2
128	128	4
51	166	2
81	89	3
43	43	7
163	163	2
102	102	7
23	23	8
71	74	1
171	171	3
29	154	2
108	109	12
139	139	11
39	41	1
174	178	1
61	63	1
162	164	1
149	149	5
12	12	3
126	126	3
51	51	5
114	114	3
118	118	5
105	109	2
132	133	2
173	173	2
53	68	2
137	137	2
86	88	1
107	107	10
122	125	1
168	179	1
168	168	1
17	18	1
54	54	1
32	51	2
45	45	1
158	158	5
165	170	5
157	157	2
23	42	1
174	174	3
37	38	3
55	56	3
11	14	1
10	14	3
114	128	1
32	32	3
168	169	1
14	15	4
7	7	3
127	127	2
155	155	4
78	78	1
17	42	1
173	174	4
59	75	2
167	168	3
157	158	1
55	76	3
25	35	2
52	141	1
79	79	2
1	1	4
123	124	3
21	22	1
114	120	1
144	144	5
9	15	4
118	134	2
172	177	1
138	139	3
41	42	3
152	153	2
101	101	1
129	129	5
85	85	2
90	90	3
13	14	6
170	170	3
5	6	1
37	37	2
91	92	5
88	88	1
130	130	3
65	65	2
97	97	3
169	169	3
88	93	2
143	143	2
154	154	3
74	75	3
2	4	1
14	14	3
97	98	1
93	93	4
105	106	1
171	172	2
38	38	2
112	113	2
34	34	1
56	56	2
77	77	4
172	174	1
57	60	3
54	67	2
58	75	2
116	116	1
133	133	2
80	81	2
43	45	1
134	177	1
5	167	1
22	22	1
154	155	2
9	10	2
29	31	1
162	163	3
60	60	1
53	87	1
91	94	1
10	10	3
21	23	1
59	59	2
25	29	1
92	93	4
151	152	1
177	177	1
18	39	3
96	98	3
100	100	1
161	161	1
49	50	3
51	52	1
172	172	2
142	142	2
103	103	1
39	39	1
130	131	2
19	20	1
177	179	1
25	33	2
5	7	1
101	103	1
141	159	1
90	93	3
31	32	1
37	39	1
67	165	1
149	150	1
114	126	1
64	165	1
66	175	1
111	111	2
160	161	1
107	109	1
34	35	1
85	86	1
112	149	1
23	37	1
102	103	1
128	130	1
2	10	1
3	4	1
180	180	1
125	125	1
50	50	1
55	60	1
160	165	1
71	137	1
120	120	1
128	129	1
52	67	1
159	159	1
29	32	1
