54	62	3
97	97	3
112	121	4
10	11	1
98	98	3
90	90	3
77	77	8
78	97	3
91	95	3
113	117	2
126	135	2
124	124	9
91	100	7
105	116	2
121	121	6
29	53	2
95	95	3
68	68	1
88	88	11
63	63	7
127	127	8
60	75	1
110	115	1
44	44	7
99	99	8
126	128	2
21	21	7
55	106	5
112	113	1
94	95	2
54	59	2
83	92	5
78	78	7
106	106	4
93	93	4
78	98	2
61	76	4
26	30	3
68	73	5
30	30	12
20	25	2
45	64	4
120	123	4
22	23	3
109	109	10
45	50	6
119	120	3
86	94	1
15	17	2
58	79	1
104	105	1
114	114	10
19	20	5
132	133	5
98	119	4
83	83	7
20	20	3
28	29	4
4	4	4
5	5	4
61	77	1
93	95	2
46	47	2
60	61	3
79	79	4
18	18	2
59	60	6
60	77	3
73	94	1
16	16	10
59	59	2
121	122	1
126	131	2
103	103	7
76	76	8
9	28	2
44	84	3
27	29	5
11	11	2
61	75	2
92	102	1
22	22	5
65	65	2
62	62	11
70	70	7
65	72	1
69	69	5
49	49	6
83	91	1
71	71	5
56	56	3
95	106	2
117	118	3
110	132	1
16	63	4
34	34	4
103	104	2
2	2	1
5	12	3
104	104	4
3	4	3
105	106	2
129	133	2
57	83	6
82	82	8
106	118	2
74	78	2
6	7	6
131	134	2
15	25	1
8	9	2
1	14	2
11	22	3
50	50	3
11	53	1
62	63	3
116	116	1
1	2	1
13	13	7
9	9	5
7	7	4
29	29	9
33	33	6
24	24	3
60	60	5
96	117	3
124	132	1
84	95	5
77	86	5
37	37	8
122	122	1
68	69	4
113	113	5
14	26	3
74	102	1
130	130	4
3	3	5
92	92	5
109	111	7
54	54	7
73	73	7
43	64	2
15	16	1
95	96	1
15	24	2
10	25	2
108	108	2
2	14	1
44	65	2
56	77	6
123	127	3
128	128	5
44	53	5
4	14	3
25	25	4
128	129	1
125	125	6
58	59	2
74	79	2
58	77	1
26	31	1
19	19	9
55	55	2
53	84	4
98	112	3
131	135	4
110	111	2
92	106	1
45	49	1
116	118	2
66	66	2
90	106	6
81	81	5
80	80	6
36	36	4
131	131	3
8	8	3
16	69	2
126	132	2
82	87	5
107	116	3
27	27	2
66	69	1
77	82	4
115	115	13
114	122	3
18	19	2
92	96	1
78	86	3
2	4	3
19	24	1
14	31	1
118	118	4
68	107	4
71	82	3
79	80	1
107	107	6
55	56	2
57	57	2
85	85	3
24	37	1
28	28	6
103	122	4
11	23	3
98	99	1
101	101	1
22	52	1
75	78	3
94	102	3
134	134	6
86	119	1
43	43	11
84	84	4
86	86	7
126	134	3
91	101	1
108	109	3
45	45	3
24	26	3
45	57	1
43	63	3
36	71	1
66	67	1
100	100	7
126	126	2
7	11	2
43	47	1
27	30	3
76	81	1
58	58	1
102	119	3
0	20	1
124	134	1
59	65	1
105	105	4
53	63	2
73	79	4
6	6	4
67	96	3
96	100	1
1	10	2
38	49	1
27	35	2
89	111	2
1	5	1
72	72	5
97	118	2
74	94	1
102	103	5
80	83	3
0	0	5
74	75	1
56	57	1
6	12	1
112	112	1
120	131	1
52	55	1
17	18	6
27	49	2
110	110	4
19	37	2
49	50	2
97	112	3
125	133	6
117	119	2
35	36	5
130	131	5
69	70	2
16	45	1
26	38	1
58	61	3
2	22	1
69	78	2
120	129	1
69	72	3
112	122	2
36	50	2
92	95	1
92	109	2
98	106	7
55	95	3
31	32	1
64	64	7
71	101	3
91	91	2
50	65	1
1	15	2
91	102	1
71	118	3
123	131	1
54	84	2
53	59	1
54	83	1
25	31	1
128	134	1
32	32	2
22	32	1
77	78	2
61	62	2
21	22	1
43	69	2
104	135	1
35	35	4
53	53	3
62	83	1
115	118	1
70	123	2
7	19	1
63	64	4
23	25	2
100	101	4
123	126	1
66	92	3
10	10	3
7	15	2
59	87	1
61	61	2
79	81	1
79	101	2
71	76	1
67	82	1
83	87	1
45	63	1
53	61	1
16	38	1
73	102	2
126	129	1
23	24	1
16	49	3
81	85	1
125	127	1
26	125	1
58	84	3
125	129	1
7	8	1
106	117	2
68	81	2
12	12	2
82	96	1
94	94	2
67	78	1
117	117	1
111	111	2
26	26	2
59	62	2
71	96	2
16	50	2
8	25	4
38	44	1
5	13	2
75	95	1
21	52	1
15	15	1
64	72	2
122	123	2
4	25	2
90	96	1
92	97	1
35	124	1
53	54	3
96	96	2
104	106	1
95	100	1
21	24	1
67	85	1
100	110	2
84	91	1
103	106	2
87	87	1
25	26	1
74	82	1
6	19	1
73	74	1
43	58	1
85	92	1
131	133	1
124	127	1
105	115	1
8	28	1
129	129	1
53	55	1
14	14	2
134	135	1
62	77	1
94	119	2
80	87	1
16	66	1
75	101	1
23	23	1
78	85	1
106	108	1
47	56	1
19	26	1
64	65	1
5	25	1
115	116	2
97	122	1
51	69	1
116	121	1
106	119	1
108	112	1
20	23	1
2	19	1
126	133	1
