58	62	5
24	25	3
21	21	8
64	64	9
112	112	5
16	37	3
66	68	4
185	185	11
122	194	3
68	79	3
81	81	6
180	181	4
187	187	2
82	82	2
39	39	9
171	172	5
181	181	11
50	50	7
161	161	10
6	6	10
171	171	19
73	73	9
175	175	4
75	184	4
27	27	5
23	25	1
131	157	10
149	149	5
71	72	10
99	99	4
139	139	6
162	162	5
153	153	13
134	134	8
100	123	4
93	149	8
105	114	3
46	46	4
33	34	1
67	67	3
23	23	3
187	189	2
85	141	2
62	62	5
15	15	9
151	151	4
109	112	5
166	166	4
125	125	2
29	29	8
87	88	6
47	47	6
102	103	9
63	63	4
65	68	3
42	60	2
141	141	14
174	174	1
1	2	5
120	121	3
174	175	4
115	116	1
67	79	3
44	44	8
103	103	8
39	76	1
108	111	2
54	54	8
115	115	3
117	117	4
10	63	3
152	153	3
169	169	2
36	36	6
114	114	5
98	99	3
21	45	3
84	84	7
182	182	3
19	29	1
25	26	7
87	87	7
95	96	7
105	105	9
142	150	2
49	49	3
154	154	3
164	164	6
58	60	2
188	188	5
80	80	11
105	137	3
120	120	7
125	154	1
38	38	3
100	150	1
153	172	3
89	89	3
70	71	4
148	148	5
36	37	2
8	8	11
109	138	2
40	56	2
60	60	6
131	132	1
23	24	4
116	117	1
94	94	4
147	147	15
42	42	14
196	197	5
186	186	2
12	12	8
147	151	3
43	43	7
45	50	6
78	89	4
145	146	3
135	135	2
155	156	2
144	163	1
19	32	1
103	151	3
183	184	1
131	131	4
45	65	1
165	170	7
173	187	3
12	73	2
155	191	3
28	29	3
66	114	4
123	151	2
9	9	10
43	62	1
7	8	4
36	38	1
169	186	3
100	132	3
106	112	1
16	16	6
41	66	1
45	46	3
79	80	5
140	140	5
108	144	3
117	133	3
183	183	5
68	68	15
106	106	4
165	165	6
135	142	3
17	17	9
77	78	7
85	85	2
153	165	2
137	137	5
26	26	6
194	194	2
18	18	3
157	157	4
93	99	2
56	56	5
100	124	4
13	63	7
81	84	2
30	32	2
179	179	2
161	164	3
127	127	8
28	33	1
126	126	4
159	192	3
129	129	5
162	164	2
85	87	4
12	36	1
49	50	3
126	145	4
55	121	2
192	192	1
100	126	1
107	111	8
37	141	9
108	163	1
86	87	4
124	124	5
67	116	1
97	97	4
62	63	2
150	162	1
2	2	11
40	40	8
30	84	5
125	151	2
86	86	5
74	74	6
94	96	2
10	10	2
78	86	3
117	194	3
1	17	2
38	114	2
106	113	5
132	132	4
51	51	6
168	168	11
103	104	1
19	42	3
30	30	5
142	178	1
14	14	3
164	171	2
20	20	8
94	97	3
137	143	1
0	180	3
24	24	6
108	108	3
173	184	1
25	35	4
106	116	1
5	5	8
178	178	4
0	0	2
4	5	2
23	60	1
144	156	5
96	96	6
176	176	3
30	31	2
189	189	3
7	9	2
123	150	2
169	170	2
72	72	3
47	69	5
14	64	3
1	1	3
12	179	2
131	185	1
39	77	4
113	114	2
104	111	2
118	118	1
50	51	1
39	106	3
32	32	9
136	136	4
123	124	1
101	102	3
45	45	2
57	57	7
175	176	3
71	73	1
8	34	2
142	142	5
165	166	6
37	42	1
83	83	6
172	179	1
143	193	2
110	161	2
83	85	1
53	53	5
105	115	1
20	29	4
102	102	4
79	79	4
124	125	3
13	13	4
0	2	1
1	18	4
102	117	7
47	50	2
138	142	1
160	160	1
5	74	1
104	137	1
106	115	2
37	75	1
37	37	4
138	138	2
196	196	3
118	119	5
4	4	9
76	76	2
33	33	4
85	89	3
109	156	4
197	197	1
143	156	3
124	152	6
181	183	4
158	168	1
125	129	3
15	57	1
76	106	2
112	113	5
145	154	2
13	24	3
77	77	5
167	167	5
193	193	3
150	152	2
14	136	1
113	113	2
52	52	8
13	109	1
160	161	2
195	195	3
98	98	2
104	108	2
35	36	2
88	88	2
99	119	1
166	172	4
125	155	2
173	173	3
166	170	4
93	93	2
55	55	2
29	31	3
127	131	1
12	13	2
84	88	1
13	75	2
46	69	2
161	163	1
93	94	1
25	34	3
153	191	1
172	193	1
28	28	8
116	116	2
95	95	1
134	135	2
58	176	1
130	130	2
47	48	4
143	144	1
22	88	2
100	100	6
168	171	1
159	159	1
80	81	1
57	64	1
5	7	3
174	176	1
122	122	2
16	184	1
66	67	1
109	109	6
180	180	3
130	185	2
19	20	1
75	75	2
3	3	3
165	167	2
11	72	1
95	98	2
78	78	5
144	144	3
128	128	1
2	107	1
101	150	2
19	19	1
121	121	1
152	152	3
17	36	1
173	177	1
184	184	2
159	161	1
67	68	2
118	134	2
110	163	2
70	70	2
191	191	2
163	166	1
5	9	3
79	81	4
136	137	2
177	178	3
22	23	2
177	177	4
15	45	1
126	127	2
15	51	2
56	61	2
131	190	2
110	110	4
65	116	1
119	119	2
144	146	2
190	190	2
15	142	2
61	61	6
111	111	2
100	128	2
25	29	4
154	162	1
46	55	2
153	157	4
68	90	3
8	9	1
104	104	3
142	143	1
38	56	1
41	41	1
25	25	2
46	48	3
22	22	3
132	150	3
29	30	2
15	64	1
89	90	1
95	122	1
124	140	2
168	169	1
143	143	3
111	138	1
104	135	2
107	112	1
58	58	2
1	180	1
163	163	1
20	23	2
47	51	3
44	69	1
139	140	1
163	172	2
45	122	1
11	24	1
69	69	2
3	182	2
145	151	1
39	67	1
110	156	3
34	34	3
41	58	2
182	183	1
23	29	1
40	64	1
123	123	3
135	140	1
154	169	1
13	176	2
18	112	1
158	158	1
75	106	1
135	136	1
167	170	2
13	23	1
105	142	1
174	194	1
174	193	1
136	176	2
144	192	1
84	87	1
114	141	1
144	161	1
186	187	2
6	7	1
143	154	1
7	7	1
105	106	1
84	90	2
48	49	2
133	133	1
26	29	1
126	140	1
50	69	1
27	32	2
133	150	1
117	119	1
35	35	2
64	81	1
116	141	1
167	168	1
113	115	1
126	151	1
128	156	1
85	86	1
40	76	1
135	151	1
