58	64	1
47	48	4
51	52	2
1	1	11
53	53	12
64	64	16
66	66	15
69	69	3
6	7	3
32	32	9
23	51	3
68	68	2
76	77	3
0	9	1
65	65	15
77	77	19
1	2	8
6	6	8
57	57	7
58	58	5
27	27	3
3	3	14
49	49	9
73	73	11
58	59	3
47	47	5
42	65	4
19	20	7
55	55	18
22	22	4
37	37	11
7	13	3
23	23	11
26	27	5
2	3	3
37	38	2
45	45	11
38	45	3
8	10	2
2	2	6
25	26	3
32	34	2
6	10	3
49	50	2
69	71	3
28	29	4
12	12	10
9	9	5
8	8	7
55	56	1
64	65	4
31	31	7
70	71	3
56	56	11
12	13	11
72	72	6
25	37	2
24	24	13
20	44	1
3	12	3
46	47	1
33	33	6
39	43	1
62	62	10
44	44	9
23	48	2
0	0	3
11	11	1
48	49	3
73	75	10
20	20	14
31	33	1
19	19	6
40	40	6
74	74	2
56	57	3
52	52	3
39	39	6
25	25	10
59	60	3
71	71	9
14	15	1
43	44	5
22	26	2
8	41	2
23	27	2
44	72	2
48	48	13
34	36	1
21	33	3
58	61	4
45	56	3
70	74	1
18	40	1
26	26	8
7	7	6
71	74	1
19	53	3
43	48	2
43	46	2
20	22	2
35	35	7
26	47	2
29	29	5
35	39	1
42	42	15
11	56	1
9	10	4
23	45	2
5	5	2
36	36	6
51	58	3
28	28	10
38	38	3
11	13	3
24	28	2
49	70	2
46	46	6
36	37	7
42	47	6
10	11	6
30	31	2
41	42	2
4	6	3
44	45	4
35	38	4
51	51	3
8	9	1
29	73	5
38	46	2
34	34	3
31	57	2
19	51	2
22	23	1
59	59	2
63	63	5
39	41	2
21	21	7
67	67	7
5	9	2
50	50	2
7	14	1
38	66	3
41	41	5
60	60	8
37	54	2
22	40	1
68	69	2
73	77	1
45	61	2
13	21	1
13	13	4
63	64	3
62	72	4
70	70	3
43	72	2
23	24	2
4	13	4
33	34	1
73	74	3
52	53	1
22	39	2
21	46	1
25	32	3
54	54	4
23	30	1
43	43	3
50	75	2
38	39	3
20	60	3
21	68	3
34	41	2
0	2	2
30	30	5
59	71	2
2	4	2
22	43	1
68	73	1
29	30	2
54	68	5
35	37	2
6	11	1
75	75	1
64	67	1
61	63	1
28	77	1
68	74	2
76	76	2
4	4	2
66	67	2
0	23	1
24	27	1
62	63	1
32	44	1
45	47	2
3	54	2
5	6	3
45	51	1
71	72	2
72	73	2
35	36	1
61	61	1
68	76	1
42	43	1
18	19	2
1	59	1
68	71	1
72	74	1
3	56	2
5	13	1
22	58	1
10	10	2
31	71	1
53	55	1
33	48	1
12	24	1
31	37	1
22	75	1
8	11	1
53	54	1
30	62	1
27	28	1
37	39	1
