59	59	6
96	96	7
80	80	11
43	44	5
63	63	4
71	71	9
86	86	7
93	94	5
27	27	16
79	88	3
26	26	2
55	69	2
90	90	8
64	64	7
87	87	9
84	84	4
88	88	8
67	67	4
20	20	3
76	76	4
74	74	13
42	42	4
78	91	6
101	101	5
29	29	12
49	49	6
38	38	3
89	89	5
28	38	3
84	85	2
37	104	2
28	28	12
36	36	4
41	69	4
29	70	1
36	90	4
50	50	4
62	62	8
56	56	4
69	69	7
66	66	4
61	61	3
96	106	3
58	58	5
82	82	11
91	106	2
75	99	7
104	104	6
30	69	3
43	43	3
91	92	4
21	21	6
78	78	18
26	28	5
35	96	1
23	23	8
62	63	11
83	86	3
31	34	7
74	104	6
47	48	2
73	73	3
81	81	10
91	91	8
52	52	3
96	97	5
67	68	2
24	24	1
96	100	3
39	104	7
94	94	9
86	87	1
54	54	5
70	71	3
72	94	1
65	65	6
39	60	1
103	104	3
25	28	2
101	107	3
70	70	7
50	53	2
30	30	7
52	53	2
45	45	3
31	31	4
35	35	6
19	19	3
44	44	4
55	56	6
28	48	3
47	47	10
33	33	3
72	72	8
56	62	3
22	22	9
77	100	1
58	64	1
83	83	4
44	45	2
73	81	2
55	106	1
37	37	6
25	27	1
37	81	3
58	62	5
86	88	3
77	77	4
92	97	1
103	103	7
57	57	10
33	34	2
40	41	3
79	79	8
40	69	4
82	87	1
34	34	8
76	94	3
100	101	1
57	58	1
60	60	1
93	93	1
39	45	3
48	48	1
89	97	5
39	39	5
26	27	3
54	55	3
106	106	1
94	95	2
31	32	5
99	99	3
40	40	2
50	55	2
60	61	4
45	70	1
70	72	1
88	98	1
25	25	4
89	98	4
81	99	1
97	97	2
60	105	2
33	76	1
82	83	3
24	25	1
33	102	3
73	74	2
20	22	2
82	84	4
102	102	3
80	81	2
51	51	1
50	51	1
71	103	1
100	100	2
83	85	1
77	95	1
71	72	1
80	105	1
41	44	1
37	70	1
41	41	1
75	87	2
98	98	7
21	22	1
46	46	1
85	85	2
81	86	1
87	88	1
20	46	1
70	88	1
37	38	2
42	75	1
45	54	3
85	89	1
89	96	1
32	32	1
31	71	1
68	68	1
27	46	2
105	105	2
98	101	1
77	93	2
88	99	1
31	69	1
62	64	2
104	105	1
76	93	1
59	106	1
79	97	2
45	53	1
95	95	1
55	55	2
82	97	1
75	75	1
79	91	1
89	90	2
65	66	1
58	63	1
45	104	2
54	66	3
41	56	1
24	27	1
57	62	1
66	68	1
37	39	1
61	79	1
82	86	1
63	64	1
92	96	1
80	82	1
