69	69	4
100	100	5
63	63	2
24	24	9
42	56	1
38	38	11
88	89	5
116	116	9
36	37	4
11	11	9
70	71	5
129	129	5
74	74	3
9	9	9
93	94	3
46	46	1
2	2	9
140	163	2
157	157	10
3	3	12
113	115	3
46	58	1
149	149	15
14	14	8
111	111	9
70	87	4
148	148	2
105	119	1
90	90	13
45	46	1
6	6	3
4	12	6
57	57	3
37	37	12
139	139	5
95	148	2
44	44	10
40	40	6
71	71	14
83	90	4
141	142	3
73	73	5
42	42	7
26	26	9
64	65	5
8	8	2
49	50	4
107	108	1
120	120	3
21	22	3
85	87	6
11	14	3
164	164	2
83	83	8
113	124	5
69	72	2
47	51	16
12	12	2
91	91	11
23	23	2
156	156	5
47	47	14
98	123	1
143	152	3
135	137	2
19	20	7
18	18	11
25	25	10
114	114	7
94	110	3
53	56	2
97	97	3
34	35	2
157	158	1
119	119	14
155	155	10
50	79	2
131	131	4
83	93	3
85	85	7
153	154	5
52	83	1
19	19	6
151	157	5
109	110	1
54	54	7
22	22	6
117	126	3
20	20	4
110	110	11
0	2	2
108	109	13
117	118	3
7	7	12
20	22	1
15	16	4
75	76	2
152	152	15
111	151	3
140	162	4
137	137	5
144	144	6
74	77	2
87	87	6
53	53	12
79	79	3
35	36	2
154	154	5
112	112	4
133	135	3
92	92	5
83	84	3
91	92	1
13	13	6
51	51	15
84	90	2
20	23	4
93	93	6
166	166	13
94	94	2
2	75	1
23	25	2
151	151	8
128	129	6
139	159	4
89	89	8
48	48	10
108	108	10
77	78	2
108	120	3
13	14	3
123	123	7
52	52	9
16	16	10
106	106	4
135	163	1
9	12	3
135	136	6
136	139	2
2	3	1
81	82	6
68	68	6
47	50	2
111	112	3
106	109	2
130	131	2
145	149	5
125	152	3
94	148	5
50	80	3
39	40	4
101	102	5
134	135	4
159	159	3
88	88	6
126	126	13
118	120	2
127	127	5
158	160	3
34	34	5
127	149	2
10	10	2
144	145	12
103	103	6
49	79	2
105	105	9
100	123	1
107	107	3
86	87	2
35	38	1
54	55	5
149	150	2
145	150	1
162	162	4
150	150	9
140	141	5
138	138	9
167	167	12
68	69	3
125	125	5
67	67	2
88	104	5
76	76	2
86	86	2
36	128	2
142	144	2
62	62	2
77	79	1
131	132	2
43	44	4
82	129	6
50	50	4
99	123	2
99	107	1
21	21	7
53	54	2
73	74	1
7	162	2
102	102	3
16	17	2
104	104	5
128	128	3
140	140	8
109	111	2
89	90	4
28	28	4
138	159	2
113	151	3
134	134	4
44	45	2
141	141	2
10	79	1
117	117	3
56	56	3
96	97	2
130	136	1
127	147	2
116	125	3
78	78	2
109	109	8
43	43	7
151	153	2
136	138	1
38	39	6
125	126	3
143	144	4
127	146	2
11	16	1
123	124	4
48	51	1
69	70	2
165	165	3
35	35	5
136	136	7
84	84	8
156	157	8
170	170	4
142	142	5
67	68	2
127	144	1
119	120	1
1	1	6
99	99	3
86	88	2
128	131	2
33	33	1
45	47	2
132	134	3
99	122	1
163	163	2
160	160	2
101	101	4
145	145	8
70	70	2
66	72	2
37	111	2
41	41	2
81	81	6
116	124	1
133	133	2
52	73	8
104	105	2
95	95	1
151	152	1
79	80	2
142	157	2
8	12	3
165	168	4
1	2	2
15	15	3
50	51	2
3	5	3
116	126	2
20	21	2
134	137	2
8	9	3
98	98	3
96	118	5
115	115	4
124	125	1
35	53	1
77	77	1
97	99	2
13	77	1
109	119	1
147	148	4
147	147	1
36	36	2
122	123	1
146	146	3
51	52	1
66	66	1
17	17	4
11	17	2
11	13	1
148	149	1
40	42	2
146	147	1
139	140	1
161	161	1
49	51	1
36	149	1
122	122	2
27	27	1
133	134	2
6	7	2
86	103	1
1	74	1
24	25	1
158	158	2
51	73	1
161	162	1
138	145	1
84	85	2
36	52	1
66	67	2
121	121	5
53	83	4
42	43	2
75	80	2
113	125	1
57	62	1
115	125	2
153	153	4
110	111	1
132	132	2
58	58	1
135	135	1
87	88	1
151	156	1
9	11	1
166	167	1
112	118	1
118	118	1
155	157	1
17	18	2
155	156	2
78	79	1
65	65	1
45	57	1
115	124	1
144	157	1
9	18	1
97	122	1
159	160	1
48	49	1
72	72	1
91	93	1
8	10	1
163	165	1
110	149	1
5	5	1
37	38	1
