147	147	5
106	107	1
48	48	8
63	63	3
155	186	5
153	153	16
30	30	2
65	65	10
30	40	3
137	137	9
141	143	1
179	179	3
87	121	5
155	155	1
70	109	3
54	94	2
46	46	6
40	40	9
105	105	4
114	114	16
57	101	1
28	42	3
90	151	4
31	41	2
71	84	3
55	85	3
92	118	2
19	19	9
23	24	1
36	37	8
29	35	2
77	77	14
4	5	3
171	171	3
79	186	3
85	136	3
65	66	6
80	80	3
10	13	4
173	175	2
183	183	3
36	36	8
89	90	3
135	135	5
59	59	2
73	73	5
13	19	7
70	70	2
10	10	3
160	160	1
134	134	3
60	60	3
21	21	6
165	165	8
47	47	4
43	43	9
156	156	15
78	190	1
131	164	2
131	134	3
157	157	11
6	6	2
25	67	6
161	161	10
84	92	1
33	33	3
148	148	5
83	83	4
105	122	4
78	78	4
143	150	1
183	186	9
119	166	1
158	158	9
94	94	6
182	183	3
102	102	2
3	3	4
179	180	6
177	177	18
75	75	5
109	114	2
43	44	11
165	172	3
163	163	7
35	35	2
170	170	9
39	39	5
140	140	4
181	181	6
90	117	1
44	47	1
152	185	8
82	82	2
154	154	1
23	23	2
138	142	6
38	38	7
25	27	6
70	108	3
4	4	6
44	44	5
108	108	2
187	187	6
186	186	7
142	142	4
125	172	4
93	93	6
27	66	3
104	104	11
17	17	7
57	57	6
104	105	1
146	150	5
155	190	1
46	47	3
14	14	7
56	117	6
88	133	2
118	120	1
71	108	3
56	56	4
66	66	10
14	15	2
55	84	2
16	16	3
164	172	3
90	90	5
32	42	2
189	189	4
141	164	1
62	97	2
141	142	3
7	7	7
89	89	5
140	144	2
92	92	8
2	74	1
26	27	4
28	28	4
115	115	2
145	145	2
3	71	1
88	91	2
112	186	1
42	46	5
143	144	3
182	182	7
126	188	1
41	41	11
20	24	2
98	98	9
82	83	2
54	55	5
155	159	2
184	185	1
82	107	3
160	163	4
122	122	2
57	152	3
60	105	3
67	67	4
139	142	7
53	53	4
0	0	2
5	5	4
141	141	2
139	139	4
158	179	4
92	93	2
153	160	3
125	165	3
1	119	1
96	100	3
24	24	14
61	61	4
58	58	2
129	171	2
86	86	3
63	104	5
13	18	1
133	134	2
91	91	3
71	71	2
178	179	5
126	176	2
16	25	2
8	22	1
74	114	2
133	133	5
187	188	2
117	117	5
153	190	2
74	126	1
84	84	3
87	87	2
133	135	6
53	61	1
11	25	3
22	22	4
99	121	9
93	132	1
11	19	1
130	132	4
47	175	3
89	92	3
126	183	2
88	168	1
47	57	3
11	11	7
3	84	1
36	39	1
17	26	6
173	174	2
71	83	3
169	169	4
8	17	2
143	143	12
124	124	1
158	183	3
125	125	4
157	182	6
147	148	5
111	111	3
146	146	2
136	137	1
184	184	6
135	149	1
142	143	4
123	169	2
2	2	8
91	92	2
99	99	15
118	118	4
28	32	2
53	85	4
12	12	5
112	153	2
96	123	3
172	172	4
55	107	2
142	150	7
88	135	1
188	188	5
31	40	1
78	79	1
103	166	4
177	178	1
77	78	5
31	32	1
34	35	1
18	29	1
116	116	4
62	62	8
53	95	5
148	149	4
109	109	8
166	175	2
90	147	3
83	113	1
5	6	2
129	165	3
57	90	2
29	29	9
61	66	2
97	97	2
64	64	2
45	46	1
59	122	3
55	55	2
143	149	2
25	66	1
85	85	3
127	172	2
101	166	2
25	25	3
129	164	2
165	176	1
105	120	1
75	79	1
28	48	1
9	17	1
123	168	3
31	46	1
56	151	4
42	43	2
18	19	3
106	106	1
131	133	2
152	152	3
32	46	1
92	120	4
116	148	1
173	173	1
81	112	1
65	102	3
34	34	2
108	115	3
68	95	1
13	40	1
162	162	1
129	129	4
6	8	1
64	65	3
71	115	2
18	18	3
96	97	2
166	172	2
110	110	2
97	98	2
79	80	2
15	15	3
53	62	1
169	170	3
88	89	3
131	131	1
163	164	1
39	40	3
184	190	2
151	151	1
101	101	1
171	172	1
112	113	2
55	114	1
90	93	1
93	122	2
178	178	2
176	176	5
73	181	1
88	88	4
29	33	1
185	185	1
174	174	1
144	144	2
140	155	2
65	67	1
70	114	1
62	67	2
153	156	1
81	83	2
101	151	1
37	37	1
126	186	1
112	112	1
18	27	1
12	20	3
166	167	1
130	130	5
93	94	1
61	96	2
103	152	1
95	95	1
185	190	3
155	183	2
74	81	2
158	167	1
155	156	1
81	81	1
52	53	2
19	20	1
123	167	1
76	76	2
27	27	1
123	124	1
75	80	1
116	117	1
82	186	1
82	185	1
121	121	2
146	149	1
16	17	1
8	8	1
79	79	1
72	72	1
134	136	1
80	81	1
122	168	1
175	175	1
140	146	1
41	42	1
42	42	1
115	116	2
68	68	2
72	73	1
18	59	1
136	136	1
26	26	1
67	68	1
10	12	1
43	65	1
141	144	1
70	110	1
12	17	1
18	48	1
21	22	1
134	148	1
17	18	1
189	190	1
120	169	1
69	88	1
59	100	1
13	32	1
151	152	1
74	83	1
72	107	2
9	32	1
164	165	1
45	174	1
171	174	1
