137	196	3
166	187	8
20	20	6
109	118	4
138	139	1
2	2	7
179	237	1
144	147	2
179	179	9
36	37	7
139	160	4
141	195	6
5	18	5
189	195	1
40	42	3
146	157	5
197	197	11
139	143	9
177	178	4
102	102	2
185	202	2
77	80	4
181	194	3
81	82	3
88	230	2
60	60	6
34	35	4
64	236	1
195	196	2
16	16	4
237	237	6
180	181	4
24	139	3
12	122	2
138	161	1
239	239	11
36	53	1
114	114	1
74	75	1
100	100	8
75	75	8
152	153	9
146	156	4
31	211	2
103	103	9
204	204	9
23	23	6
53	53	11
30	30	12
73	73	16
108	125	3
157	157	13
122	122	5
85	85	20
138	182	3
209	219	4
168	168	2
57	58	4
170	170	5
102	103	7
29	75	3
217	217	6
99	109	2
201	201	8
0	12	5
227	227	11
115	118	1
3	3	2
242	242	6
101	101	10
61	61	4
198	203	2
115	205	5
22	22	9
45	61	2
35	35	3
206	206	11
232	238	1
23	24	1
99	160	1
211	229	6
226	227	3
98	101	2
230	230	5
96	97	8
5	25	3
132	134	3
172	241	2
179	182	1
132	142	4
211	213	1
32	35	3
191	191	13
137	137	1
147	147	10
27	32	7
129	152	2
108	108	7
86	86	3
231	231	18
240	240	6
53	54	5
44	44	2
102	146	2
54	55	5
219	220	7
164	164	5
226	228	1
115	115	5
163	163	4
175	175	11
181	181	13
210	210	5
130	148	3
221	235	4
27	27	5
202	204	2
48	49	2
140	179	2
65	65	11
1	74	1
183	203	3
238	239	6
97	178	3
2	26	1
172	173	10
201	240	6
171	173	2
138	159	7
9	9	15
231	236	2
8	10	2
115	116	7
123	150	2
202	209	5
14	14	8
168	178	1
104	107	1
179	223	2
194	196	1
166	166	3
156	158	5
172	172	8
205	207	2
185	211	1
24	24	1
204	205	4
39	39	10
15	23	2
232	232	6
62	238	2
132	133	1
125	130	1
174	234	2
187	188	7
201	238	2
19	19	3
178	178	8
33	33	9
167	189	2
102	139	4
222	223	6
228	228	10
232	237	1
123	125	4
209	210	3
171	172	8
121	121	6
75	210	2
26	26	7
31	68	2
116	116	11
146	147	1
113	148	3
227	228	4
59	60	5
28	28	3
213	213	3
128	128	4
139	142	4
222	222	1
218	218	10
86	227	1
38	85	3
105	105	11
187	190	4
70	207	2
11	20	3
74	74	7
34	69	1
170	173	4
129	135	3
63	63	2
120	121	2
15	157	3
66	67	9
171	171	5
38	47	4
190	190	8
26	175	4
123	137	2
10	26	3
64	70	9
107	107	3
32	32	10
1	27	1
65	67	8
162	162	5
30	31	2
44	47	3
214	214	5
126	126	9
99	99	5
8	8	6
153	173	2
205	206	6
224	226	3
11	11	4
12	13	2
47	47	5
62	62	14
139	144	4
10	120	3
62	231	3
202	206	2
10	121	5
203	210	2
10	176	4
59	76	2
104	104	3
10	15	6
73	96	1
96	98	2
0	71	4
139	139	1
197	212	4
75	190	1
40	41	1
128	137	2
199	226	8
0	5	7
188	188	4
57	57	7
10	20	2
163	168	2
10	10	12
21	21	3
99	105	2
4	6	4
172	240	3
65	77	2
146	146	2
31	100	4
101	194	2
91	100	4
160	160	6
54	54	6
127	131	3
5	7	2
145	145	5
29	29	12
64	65	8
23	25	3
49	96	7
229	230	3
77	189	2
106	106	9
169	185	1
129	140	2
27	28	2
7	13	1
104	197	4
178	193	2
66	68	1
151	151	5
1	1	5
30	43	2
224	231	2
69	69	3
55	55	12
161	161	7
128	196	3
107	108	5
38	39	4
158	160	4
84	84	7
180	192	2
170	171	4
154	175	3
219	239	1
232	233	2
33	68	2
59	59	12
48	53	3
11	25	2
136	182	2
141	142	9
200	204	4
182	221	2
61	62	8
200	209	1
39	122	3
174	174	9
203	203	10
0	0	4
86	232	4
184	195	1
219	219	14
201	202	10
182	189	1
135	135	1
223	223	11
24	157	1
14	21	3
37	80	2
58	58	7
5	35	5
216	216	10
98	98	4
133	216	2
71	72	3
54	75	2
189	189	7
211	211	5
219	241	2
4	35	2
118	118	1
134	141	3
169	170	4
206	209	4
237	240	5
165	175	5
141	141	3
96	96	4
188	190	2
156	181	1
217	219	7
13	15	3
167	169	3
106	112	2
31	210	2
111	122	2
31	31	9
175	177	6
52	80	2
143	172	2
136	209	1
166	185	1
136	237	1
150	151	4
108	123	1
174	232	2
108	113	1
73	189	4
71	71	2
139	159	3
13	13	7
63	180	3
148	148	5
150	150	4
46	242	2
154	166	2
181	193	3
153	154	4
20	22	4
207	207	5
88	228	1
49	80	1
173	173	1
117	132	3
97	97	6
98	194	5
9	26	3
59	75	4
38	38	7
77	77	12
41	41	3
63	231	1
27	186	1
199	200	8
209	209	7
167	181	2
136	206	7
122	139	2
180	180	9
18	19	4
176	176	8
84	88	7
157	167	2
55	62	2
160	186	2
154	154	5
235	240	2
5	5	6
51	53	4
99	100	5
200	202	1
4	5	2
67	67	5
128	135	5
183	183	11
28	222	1
46	49	1
39	51	2
183	195	5
56	56	8
228	232	2
125	126	9
165	165	4
15	109	3
57	61	1
157	181	1
187	189	6
18	20	4
115	206	2
49	50	6
15	36	5
29	76	2
70	77	5
164	165	3
101	106	1
167	167	8
174	175	4
192	196	1
13	14	2
18	18	2
205	205	2
49	68	3
73	83	5
139	155	2
174	233	2
27	149	2
99	121	2
4	12	3
16	17	3
119	122	1
120	175	3
235	235	7
174	176	2
7	7	2
9	13	1
173	236	2
160	169	1
2	3	1
24	25	4
0	20	4
64	232	2
166	183	1
38	46	3
238	240	4
17	141	2
183	184	1
4	42	1
61	233	3
205	209	2
235	238	2
46	47	1
138	138	3
32	222	3
106	119	7
160	183	3
216	217	2
125	125	6
225	226	3
28	185	3
186	186	13
240	241	4
31	35	1
236	236	9
182	182	2
149	149	3
64	64	11
175	176	2
200	221	3
33	34	3
103	107	1
27	29	2
120	195	4
97	188	4
129	129	3
139	192	1
214	215	3
200	200	4
55	68	2
125	145	2
163	181	1
123	124	2
37	37	3
192	193	2
155	173	1
125	149	2
57	207	1
193	193	3
220	228	3
164	174	3
165	166	3
28	31	4
65	68	1
104	128	3
64	206	1
64	207	3
66	76	4
173	181	4
203	219	2
220	220	6
143	146	3
204	209	1
123	132	3
9	10	4
12	81	5
174	226	3
129	131	3
238	238	1
214	216	2
209	211	1
40	80	4
195	195	3
32	36	3
48	48	7
10	174	3
51	51	1
188	191	3
6	6	7
71	84	2
102	104	4
129	130	2
120	139	2
189	220	1
77	79	4
136	138	2
162	239	3
196	196	4
3	9	2
101	121	1
70	71	4
115	168	2
111	111	3
157	177	2
45	45	4
186	221	2
153	157	2
164	175	7
176	177	6
89	224	2
159	186	1
199	202	1
14	40	2
42	43	3
12	12	7
225	225	2
31	63	1
191	192	2
102	148	3
223	227	2
134	140	1
160	231	2
45	149	5
56	85	1
117	215	1
42	42	3
182	183	2
81	84	2
185	229	2
80	80	4
44	46	2
64	88	3
137	192	4
109	111	3
7	107	1
17	17	1
206	207	4
30	222	6
100	179	6
95	108	2
28	62	3
83	83	4
11	97	2
145	151	4
114	117	1
115	123	2
31	32	2
206	230	2
203	207	1
212	219	2
208	208	1
158	168	2
77	188	3
27	65	3
0	80	2
49	73	1
7	14	1
54	89	4
30	65	2
55	61	2
116	117	3
122	215	1
110	110	3
154	155	3
1	4	3
68	69	1
229	229	2
190	223	1
120	120	4
186	189	2
169	236	1
184	185	2
202	215	2
37	72	1
99	167	2
15	15	1
144	152	2
160	162	3
201	212	3
103	108	2
136	136	4
5	14	1
49	222	1
21	151	1
200	227	1
5	109	1
203	204	2
116	202	1
170	172	5
25	25	2
20	34	2
160	240	1
121	194	2
37	100	2
159	185	1
65	85	2
70	70	3
168	179	1
26	95	2
124	124	4
109	149	3
200	211	4
1	26	1
137	141	1
102	106	1
33	50	3
116	170	2
43	43	4
221	221	4
5	6	3
173	174	1
199	205	1
180	190	1
63	64	7
69	192	1
124	127	3
109	121	2
123	123	5
82	82	2
117	147	1
164	166	1
160	172	2
4	4	4
201	239	3
198	230	1
158	161	1
163	170	1
47	58	1
135	173	1
11	153	1
201	205	3
6	37	1
50	50	1
16	18	3
225	228	2
39	86	1
169	179	1
69	70	1
37	147	1
190	193	5
46	150	2
98	99	2
0	3	2
12	15	3
10	175	1
70	78	2
47	48	1
74	86	1
79	82	4
69	196	1
122	205	1
101	105	3
212	228	1
70	85	3
105	119	1
121	160	1
15	123	1
179	212	1
37	64	1
104	115	1
0	37	2
3	8	1
69	71	4
88	88	3
77	178	1
61	232	1
10	24	1
241	241	1
179	192	2
100	101	1
10	21	1
172	175	1
9	23	3
185	185	2
212	212	4
105	196	1
233	234	3
22	26	2
137	160	2
181	192	2
112	122	1
97	148	2
56	208	1
10	11	3
186	187	2
70	96	2
68	68	4
95	96	1
125	127	1
0	6	1
136	159	3
221	222	2
179	197	2
19	25	2
143	143	1
78	79	2
3	5	1
194	194	2
158	179	1
221	239	2
44	48	2
26	102	3
62	178	1
113	113	4
42	81	2
128	136	1
29	55	1
73	74	2
179	180	2
213	215	1
6	12	1
17	142	1
224	228	1
184	228	3
160	173	2
46	60	1
236	237	2
114	116	1
70	188	2
49	49	2
54	65	1
28	29	3
231	232	1
119	197	1
120	165	3
126	133	3
76	79	2
204	208	1
103	151	1
24	26	2
5	23	1
144	145	3
10	110	1
178	231	1
120	122	1
55	205	1
156	157	1
14	15	3
10	23	3
170	231	1
185	212	3
30	210	3
14	109	2
226	226	2
184	236	1
164	186	3
32	39	1
43	48	2
154	177	2
9	40	1
14	113	1
198	198	2
55	56	1
152	157	1
36	36	3
124	129	2
131	138	2
15	33	1
7	12	1
5	12	2
43	47	1
166	242	1
198	199	3
3	38	2
175	233	1
234	237	1
181	197	1
171	240	3
53	85	1
95	102	1
65	70	1
11	12	3
29	32	1
134	168	2
39	41	3
66	69	2
97	192	1
76	76	3
26	149	1
128	139	2
75	88	1
31	34	1
203	213	1
213	214	2
73	85	3
117	213	1
185	208	1
9	11	1
152	242	1
159	162	2
188	189	1
132	132	1
236	238	2
180	195	1
177	233	1
30	99	1
157	178	3
98	102	1
135	168	1
130	145	1
67	74	1
127	130	1
0	75	2
212	227	1
194	198	1
159	159	3
9	39	2
41	43	1
185	187	1
139	146	1
145	146	1
34	39	1
38	152	1
133	133	1
8	39	1
27	103	1
208	232	2
31	33	1
200	201	1
45	208	1
169	197	1
169	172	1
117	117	2
105	108	1
199	221	1
184	223	1
184	184	1
21	127	1
169	171	1
102	107	1
178	188	1
224	224	1
98	167	2
153	158	1
193	194	1
200	203	1
106	146	1
161	185	2
202	202	1
17	157	1
1	2	1
9	121	1
185	198	2
14	20	1
6	7	1
197	198	1
200	210	1
187	193	1
15	18	1
26	50	1
153	177	1
24	153	1
95	104	2
232	241	1
13	21	1
75	228	1
38	73	1
232	234	1
64	230	1
65	97	1
0	39	1
85	86	1
178	179	1
181	230	2
15	16	1
140	140	1
149	152	1
111	118	1
