52	52	8
76	76	9
2	2	6
49	49	16
191	191	5
31	31	4
60	60	14
9	9	12
67	68	4
126	126	5
119	177	3
74	75	1
83	83	4
159	173	4
139	139	11
188	188	4
106	106	14
41	42	7
69	70	5
70	154	3
113	173	5
153	153	14
158	158	10
171	171	14
11	11	4
111	175	1
196	196	5
35	35	9
197	197	13
133	133	6
193	197	3
144	144	8
13	13	8
86	87	4
68	68	10
111	111	6
100	100	14
51	54	5
165	166	2
86	86	9
29	29	3
35	149	6
63	64	1
63	63	2
152	153	1
69	69	9
33	34	1
183	183	5
155	155	12
17	17	10
70	152	3
62	116	1
12	46	3
116	116	7
44	44	7
113	114	14
138	140	4
114	114	11
152	152	10
182	182	16
151	151	10
75	84	1
25	26	3
189	189	9
115	116	4
159	159	8
107	190	7
143	143	8
33	33	3
161	161	16
55	55	5
105	105	5
127	140	5
46	46	10
80	80	4
135	135	18
124	124	4
136	136	3
101	101	10
0	0	8
118	118	9
78	80	4
15	35	1
161	162	2
16	16	6
66	66	4
167	167	12
23	23	11
74	152	1
187	187	6
81	81	14
29	30	6
28	28	17
25	25	4
96	96	6
62	62	8
79	79	6
121	122	7
132	132	9
59	59	9
186	187	10
188	189	2
19	20	9
8	9	2
21	22	2
64	64	8
184	184	10
130	132	1
39	40	3
99	100	3
4	4	7
185	185	8
153	178	3
175	176	3
106	108	2
48	48	11
147	147	2
90	90	4
48	49	2
169	170	7
121	121	8
66	67	4
41	41	5
134	134	8
12	37	3
115	115	8
70	70	10
170	170	3
42	42	4
110	110	4
2	3	2
94	94	8
168	168	9
112	113	2
17	41	4
195	195	7
54	115	3
37	37	12
18	19	2
166	166	8
53	53	10
99	99	6
74	74	8
150	151	1
172	174	4
50	117	3
50	50	7
154	155	3
72	72	6
98	98	8
190	190	10
58	59	7
64	65	3
137	137	7
194	196	7
37	57	2
163	164	3
173	173	1
51	122	4
175	175	8
128	128	5
24	24	4
65	78	3
46	47	1
89	89	4
97	177	3
108	108	10
83	84	2
12	49	1
178	178	6
104	106	4
119	120	1
134	135	2
88	88	8
51	51	12
61	61	7
184	185	2
45	45	12
148	149	1
78	78	2
119	119	4
87	87	11
38	42	1
139	140	9
54	56	4
23	24	1
27	27	5
21	21	3
3	3	6
45	46	4
96	97	4
150	150	10
120	120	5
5	5	7
156	156	3
17	18	5
20	21	1
30	31	4
10	10	13
181	181	8
146	146	6
1	1	8
118	121	4
55	115	3
130	130	8
95	95	1
156	158	2
138	141	2
42	60	2
94	97	1
28	29	3
71	71	6
179	180	4
167	168	1
26	28	3
131	132	3
12	150	1
185	186	2
97	178	7
107	107	10
118	119	3
195	196	2
77	77	4
193	193	6
43	58	2
20	20	6
145	145	5
57	57	17
36	36	4
19	19	6
125	127	2
54	54	7
101	106	2
177	177	7
75	75	2
18	18	5
37	38	2
149	150	9
123	123	5
155	156	4
148	148	1
37	150	1
15	15	3
85	85	3
122	122	3
36	45	3
160	160	5
149	149	5
39	39	11
76	77	4
178	179	2
40	40	11
78	84	4
192	192	8
81	82	4
58	58	3
71	73	1
176	176	7
30	30	9
174	174	1
166	167	2
172	172	4
159	174	1
109	109	6
26	26	3
82	83	3
47	47	4
130	131	2
160	161	4
55	117	2
34	34	5
69	151	2
10	15	4
158	160	1
109	110	2
168	173	2
120	153	2
129	130	2
126	127	3
82	82	2
42	74	2
73	73	5
121	175	3
181	182	2
192	193	5
164	164	4
35	80	2
96	180	3
125	139	1
80	81	3
21	82	5
113	113	2
1	2	4
77	78	1
14	14	6
83	85	2
56	170	1
77	150	2
67	67	2
100	101	5
22	22	7
93	122	2
56	115	1
7	7	3
15	65	3
105	106	2
196	197	1
70	71	3
38	39	1
15	78	5
177	178	1
97	176	2
65	68	2
193	196	3
194	194	3
94	95	3
154	156	1
84	84	2
186	186	11
108	109	2
94	121	1
194	195	1
7	28	3
126	129	1
54	171	3
126	138	2
66	75	2
84	85	1
14	34	2
56	57	2
185	197	5
156	157	1
12	45	1
60	71	1
112	114	3
192	194	2
12	12	5
118	173	2
45	47	1
125	128	1
97	98	3
125	125	3
24	80	1
38	38	8
15	149	1
8	8	2
12	36	2
138	138	1
18	20	3
4	5	1
71	156	1
180	180	4
159	172	1
191	193	1
176	177	1
63	150	1
182	184	2
109	112	1
66	70	1
120	178	3
162	166	2
165	165	1
125	126	2
106	186	2
100	108	3
43	43	6
143	144	3
16	17	2
163	163	2
38	60	2
52	168	1
124	127	2
173	175	3
65	65	1
39	71	1
111	113	2
7	8	2
117	117	2
162	162	1
12	48	1
10	11	2
172	173	1
140	141	1
112	112	1
77	84	1
16	41	1
104	104	2
103	103	4
59	60	2
98	178	1
78	150	1
193	194	1
95	98	3
106	107	2
40	73	2
95	96	2
154	154	4
187	188	3
15	43	1
123	124	1
42	43	1
116	118	2
138	139	5
52	53	3
34	35	1
65	77	1
56	56	3
137	139	2
11	36	1
142	142	2
141	141	2
119	151	1
79	84	2
124	128	1
22	25	2
22	81	1
99	108	1
50	51	2
35	79	1
127	127	1
62	63	3
49	50	1
137	138	2
56	168	1
72	154	2
20	26	2
27	28	2
127	128	2
44	45	2
57	60	1
116	117	1
32	32	2
186	196	1
131	131	2
62	64	1
41	43	2
0	1	1
158	173	1
3	42	1
71	118	2
170	171	2
135	137	2
79	81	1
40	41	1
109	160	1
157	157	2
66	74	2
110	111	2
69	119	1
76	84	2
114	115	1
5	7	1
140	140	2
110	173	1
101	105	1
97	99	1
57	58	1
113	115	1
111	112	1
58	64	1
179	179	1
190	191	1
