74	120	1
125	125	11
112	113	6
103	103	17
20	20	8
93	94	5
98	99	8
39	40	9
75	75	9
77	77	7
96	96	17
79	79	20
34	34	17
83	86	4
84	93	3
7	7	11
60	60	16
7	14	4
63	63	13
50	86	5
5	11	2
84	85	6
13	14	8
102	102	8
118	120	2
5	5	22
44	44	24
4	40	3
35	88	6
55	93	4
109	111	11
39	39	12
84	84	19
129	130	7
11	12	14
16	17	4
21	21	5
76	76	11
26	26	15
8	8	12
49	49	6
126	126	11
120	120	16
98	98	12
6	10	3
117	117	18
68	68	20
124	124	7
94	98	3
87	87	19
108	108	10
10	11	3
122	123	3
85	85	17
132	132	13
130	130	3
45	45	18
56	56	15
36	36	10
109	110	4
93	93	10
114	114	21
30	30	17
115	115	10
61	61	13
89	90	17
64	64	23
111	113	5
131	132	9
15	22	1
14	15	6
107	107	6
27	27	8
56	58	4
9	20	2
127	127	17
18	46	7
68	69	4
121	122	5
63	111	2
20	21	4
13	13	9
6	7	6
90	90	16
78	78	4
3	5	3
74	75	3
133	133	11
117	118	7
37	38	3
81	81	19
6	6	18
92	92	13
50	50	4
82	82	9
113	114	13
75	122	7
40	40	10
95	97	3
84	86	5
88	91	3
9	10	2
47	47	8
91	91	17
36	37	10
75	76	4
32	32	7
73	73	12
41	42	3
96	97	6
15	15	14
94	95	3
121	121	16
111	111	17
10	10	14
128	129	7
20	22	6
56	93	5
47	48	1
99	99	14
12	13	5
17	18	6
79	85	3
119	119	9
19	46	7
99	128	8
101	101	5
100	100	13
106	110	6
97	98	8
111	112	9
35	35	7
28	28	17
57	57	24
62	62	15
107	109	2
70	71	4
38	38	16
12	40	3
33	33	6
22	23	5
123	123	13
37	39	6
95	95	8
65	65	13
62	75	3
25	25	9
17	32	7
64	65	6
31	31	9
103	104	23
4	4	21
123	125	3
23	24	7
18	18	14
110	110	16
102	104	6
56	92	2
72	72	9
18	32	1
80	80	12
92	93	5
9	9	10
16	16	5
18	19	6
37	37	18
102	105	1
77	80	7
112	112	10
116	117	3
90	91	3
56	100	9
26	27	4
15	88	2
69	69	9
58	58	7
48	48	7
103	129	1
128	128	18
24	25	4
82	85	2
94	94	13
58	59	8
59	60	6
25	26	6
115	117	4
16	88	6
4	38	1
105	105	10
13	31	2
42	43	7
74	74	3
133	134	2
23	23	15
110	112	4
82	83	5
35	92	2
41	41	7
104	104	9
57	93	2
23	32	3
80	81	5
16	32	2
11	11	13
15	32	1
40	41	1
120	132	6
44	45	6
18	33	2
83	83	11
59	59	10
38	39	4
106	130	4
116	116	6
12	45	3
45	46	6
19	20	2
84	94	2
129	129	13
16	22	10
95	96	2
75	126	2
0	0	9
78	79	6
3	3	11
47	50	3
63	64	5
104	129	4
3	6	1
1	1	8
118	118	7
39	43	2
120	121	4
29	42	3
20	36	4
70	70	7
35	93	3
78	104	1
9	11	1
67	68	1
110	111	8
74	119	3
106	106	13
12	12	11
104	105	2
61	62	3
106	129	3
30	44	2
43	43	9
29	29	9
78	80	6
46	46	1
97	97	8
109	130	1
42	42	6
22	22	16
31	45	1
55	81	3
2	2	7
134	134	6
67	67	3
6	9	2
12	36	3
107	130	1
98	124	2
14	20	1
113	113	14
118	119	2
35	36	2
96	101	2
81	87	7
86	86	12
21	22	5
76	77	7
77	78	2
83	84	4
31	42	1
99	126	3
76	126	2
75	121	1
70	72	3
66	66	5
82	86	1
106	107	4
66	73	4
99	101	3
37	42	2
54	87	2
109	109	13
15	16	3
114	115	4
24	24	12
56	57	1
85	86	10
1	2	10
6	38	2
64	66	2
33	87	2
88	88	5
99	100	4
115	118	3
115	116	6
55	55	4
25	32	1
104	128	5
70	122	2
17	34	8
21	32	2
27	41	3
23	26	1
112	114	2
33	46	1
36	91	3
28	30	3
5	6	1
27	31	3
56	91	2
23	31	3
54	55	2
94	96	3
59	94	2
27	28	4
60	125	6
86	87	5
80	102	4
123	133	3
95	99	3
34	35	3
127	128	2
22	24	2
14	89	1
122	122	9
19	19	4
14	14	6
119	120	1
33	34	2
21	45	2
76	102	1
5	10	1
76	134	3
108	109	2
26	32	1
124	129	2
93	95	2
17	17	2
113	115	5
81	82	3
10	12	1
80	101	2
54	93	3
0	45	1
57	96	2
30	42	2
55	56	1
2	3	1
63	118	2
67	69	2
55	82	7
38	40	2
0	1	1
102	103	1
60	61	2
73	74	3
46	47	2
16	35	1
15	36	1
31	37	3
108	110	3
48	99	1
71	72	1
12	21	1
72	121	1
51	83	2
16	36	1
27	30	2
75	134	1
20	23	1
106	108	1
116	132	1
67	74	1
4	5	2
124	128	1
32	34	2
126	127	1
13	38	1
109	123	1
28	29	4
51	93	2
27	44	1
113	131	1
1	3	1
82	84	1
8	89	1
77	103	2
107	108	1
124	125	1
28	44	1
71	73	1
63	73	1
123	130	1
93	96	1
0	2	1
131	131	1
83	100	1
16	20	1
104	106	1
39	44	1
113	123	1
