16	16	5
13	13	13
80	80	14
25	26	1
127	127	9
122	133	3
29	29	7
34	34	4
132	133	7
0	28	1
8	8	9
65	93	2
91	91	3
124	124	11
1	26	2
119	119	6
45	51	5
71	71	5
33	34	5
47	47	4
60	84	5
69	69	4
68	68	8
0	1	1
132	132	10
121	121	5
62	62	7
10	10	3
118	121	3
97	112	5
3	4	15
48	48	5
18	18	13
110	113	1
4	4	7
95	95	5
102	102	6
113	118	3
45	46	2
128	128	3
28	28	9
13	50	1
21	21	5
1	1	10
70	70	5
111	111	3
90	97	4
53	53	8
79	79	9
120	121	5
66	68	3
100	114	2
78	79	2
92	92	16
88	88	2
50	50	5
98	98	4
30	30	2
58	58	6
60	60	2
66	66	10
101	114	2
0	0	9
100	111	1
1	25	1
5	5	5
24	25	2
123	123	13
106	106	12
2	29	2
118	119	2
127	128	4
32	33	2
134	134	10
68	69	2
125	125	2
90	90	5
35	35	10
94	94	7
18	50	1
93	94	5
15	15	5
98	99	5
89	94	5
9	10	1
26	26	3
124	125	4
58	59	3
133	133	9
105	105	9
56	56	8
101	102	5
23	23	2
64	64	10
114	114	6
12	12	2
110	110	5
38	38	3
110	125	3
16	19	1
78	78	5
60	61	1
66	67	2
54	54	9
100	100	6
63	63	5
7	7	8
30	32	3
0	43	3
129	129	10
44	45	7
80	81	3
96	99	2
125	130	3
122	123	2
131	131	7
73	74	1
120	120	4
11	11	5
85	85	4
109	123	2
14	15	5
105	106	1
5	6	2
126	127	1
83	84	13
108	108	3
97	111	3
3	3	5
64	66	2
65	65	5
89	90	6
86	87	3
62	74	1
115	115	4
9	14	3
116	116	2
21	55	3
1	19	1
112	112	4
73	73	6
3	35	2
117	118	6
67	67	4
97	97	2
102	103	1
87	87	6
13	108	1
131	133	1
126	126	2
87	95	2
72	72	6
61	61	5
109	127	3
114	120	3
3	29	1
109	126	5
86	86	2
94	95	1
93	93	5
1	29	3
63	64	2
39	44	3
95	96	2
24	24	7
35	37	1
22	23	1
10	14	5
13	46	3
82	82	4
20	24	3
73	93	2
106	112	1
25	25	6
122	122	4
17	17	4
6	6	4
117	117	4
110	120	1
27	27	2
135	135	4
96	100	2
2	4	3
109	124	1
21	23	1
52	53	3
54	55	2
1	30	6
4	5	1
59	59	3
25	27	1
31	31	4
57	58	3
115	120	1
123	124	1
84	84	2
62	63	2
65	70	1
55	55	2
126	128	2
96	111	2
67	78	1
52	55	2
100	112	4
96	96	2
22	22	2
128	129	1
24	27	2
63	69	2
1	24	2
25	28	2
122	125	1
20	20	1
8	9	1
49	49	1
118	118	1
103	103	1
15	16	3
83	83	1
123	126	1
57	57	2
75	75	4
129	133	1
77	77	1
97	99	1
45	45	1
65	74	1
108	112	1
131	132	1
10	11	1
122	124	1
86	88	1
76	76	2
99	100	1
3	6	2
21	22	2
3	5	1
107	108	2
70	74	1
2	26	1
72	111	1
36	36	1
109	109	2
19	19	1
