27	27	5
31	31	6
29	29	5
122	122	15
72	72	10
20	29	2
125	125	12
109	109	26
124	124	7
95	96	8
97	98	11
80	80	9
1	1	14
107	107	10
14	15	2
100	101	5
75	86	2
38	38	6
115	115	14
20	21	4
7	107	6
5	5	19
72	108	3
102	114	6
127	127	13
4	4	19
17	17	9
0	2	1
106	106	6
77	77	6
137	138	5
15	17	1
83	86	3
133	133	12
132	133	4
19	20	5
15	15	14
120	122	3
12	12	5
107	109	1
117	117	6
36	37	4
134	136	4
140	140	6
83	84	3
134	138	3
137	137	6
101	102	8
126	126	11
9	9	13
103	104	4
10	14	5
93	118	2
11	11	12
93	93	6
101	101	15
34	34	10
127	128	6
35	35	7
116	116	30
100	100	7
98	98	21
110	118	6
16	17	4
71	79	3
101	103	1
108	108	16
17	18	6
113	121	4
6	7	1
7	7	26
87	87	14
1	2	4
111	111	8
79	79	8
13	13	6
36	36	6
123	123	13
137	141	2
21	21	5
32	32	7
93	94	4
76	77	5
74	74	6
20	20	29
99	99	6
19	19	8
26	26	13
97	97	7
90	118	1
24	24	5
11	12	7
8	9	6
105	105	14
25	25	6
3	3	11
16	25	7
113	113	11
83	83	7
92	92	11
136	136	5
2	3	8
84	84	1
73	73	10
0	0	14
111	112	5
130	130	12
102	102	11
94	94	15
139	139	11
136	138	2
123	128	3
32	33	4
71	88	2
116	117	6
124	125	8
114	115	9
91	91	10
103	105	3
90	90	9
135	135	13
77	80	6
75	76	3
114	114	4
75	77	2
132	132	13
131	131	3
16	16	9
88	88	5
9	27	4
102	120	4
104	106	4
81	81	1
23	23	11
18	18	12
7	8	4
15	99	6
89	90	6
7	20	5
95	95	19
82	82	8
114	128	2
37	37	12
110	110	6
13	14	3
71	71	5
33	33	8
74	75	5
106	107	8
28	29	3
82	83	3
22	22	5
12	13	1
76	76	6
2	4	4
10	10	5
96	96	6
92	93	10
34	35	8
2	2	13
8	8	2
76	78	1
119	120	1
29	30	2
134	135	3
0	6	3
101	120	2
10	17	3
128	128	10
21	32	1
44	91	1
25	26	3
86	88	2
125	127	1
133	134	3
27	28	1
123	125	2
35	37	14
120	120	3
94	96	2
102	105	4
102	103	3
102	123	3
6	6	9
130	131	4
75	80	5
79	82	2
75	75	8
24	25	5
138	138	8
78	81	1
108	109	6
14	14	4
99	100	2
90	91	1
121	121	7
71	91	2
103	103	1
115	116	1
115	117	1
109	110	1
129	131	1
129	129	2
138	139	2
111	118	1
78	78	6
112	120	2
23	24	3
5	12	3
11	17	2
110	111	5
113	114	3
127	130	1
114	122	2
71	72	1
78	82	2
73	74	2
79	80	2
37	38	3
116	119	2
112	117	2
72	73	3
17	98	4
101	104	5
30	30	1
18	19	1
81	82	3
66	66	1
86	86	5
22	23	3
119	119	5
88	91	2
25	123	1
8	14	1
8	19	7
28	28	1
85	85	5
129	130	2
107	110	2
44	44	3
89	89	3
4	5	3
134	134	1
118	122	2
83	87	2
76	85	1
21	22	2
7	10	1
112	119	2
120	121	1
121	122	2
8	13	2
95	133	1
34	95	1
6	104	1
78	79	2
119	121	1
25	80	2
10	12	1
72	94	1
8	18	1
2	32	2
139	140	1
94	95	2
79	85	1
88	92	1
125	126	1
118	119	1
138	140	1
13	102	1
92	110	1
112	112	3
95	98	1
38	122	1
98	99	1
126	129	2
86	89	1
7	103	1
114	116	1
118	118	1
95	100	1
1	6	1
72	107	1
72	75	2
98	100	1
27	29	2
89	91	1
28	30	1
80	84	2
91	110	1
111	115	1
119	122	1
31	32	1
106	111	1
77	83	1
2	31	1
113	117	2
140	141	1
124	128	1
73	75	1
113	122	1
