9	9	23
1	1	15
86	86	12
0	0	23
50	50	15
6	6	21
20	20	27
60	60	17
29	29	18
17	17	13
88	88	11
67	67	12
26	26	22
22	23	6
84	84	18
75	75	16
72	73	9
7	7	15
31	31	34
8	8	20
22	22	23
30	30	21
65	65	3
3	3	31
73	73	14
70	71	4
5	5	10
52	52	9
12	12	22
3	4	7
59	59	21
2	2	15
27	31	6
23	23	21
72	72	15
19	19	28
24	24	25
11	12	2
16	16	13
57	58	10
80	80	15
68	68	19
22	75	4
50	56	10
66	68	3
68	69	4
27	27	16
21	21	25
87	87	23
14	15	6
59	62	3
11	11	13
15	15	15
8	10	7
13	13	14
7	13	3
7	25	2
9	10	3
62	62	15
57	57	10
66	67	3
17	18	3
52	53	4
20	21	1
28	28	13
51	51	20
83	83	5
50	51	6
54	54	29
82	83	4
1	2	4
24	25	12
21	30	2
67	69	3
58	58	9
10	18	2
61	61	18
26	27	3
79	80	6
22	83	1
55	55	11
7	31	3
51	52	3
85	89	3
66	66	7
12	13	4
47	47	13
61	62	2
49	49	22
14	14	27
21	23	2
69	70	1
0	20	4
19	68	2
48	48	8
11	14	4
10	12	3
77	77	6
65	78	2
12	28	1
7	17	1
68	71	3
23	24	4
4	4	42
10	10	18
8	9	13
71	71	14
10	11	1
52	56	2
85	85	5
3	23	1
15	18	1
25	25	18
23	26	3
54	55	7
25	27	3
20	25	7
24	27	2
12	27	3
12	14	2
63	63	5
88	89	4
28	30	3
10	46	1
58	74	1
82	82	7
25	72	1
78	79	4
89	89	5
10	71	3
60	61	4
20	66	3
4	21	2
74	75	2
24	26	4
5	7	3
73	84	2
69	69	3
65	66	1
28	50	1
46	75	2
1	70	1
70	70	8
27	28	4
47	48	6
19	66	2
66	74	3
19	24	3
21	22	4
79	79	5
48	75	3
58	59	2
63	64	2
48	49	5
71	72	2
24	69	1
5	6	2
21	27	1
17	26	1
49	57	2
19	20	6
78	78	7
56	56	4
8	12	2
57	59	2
4	30	1
5	28	1
81	81	4
21	28	4
8	31	4
0	1	4
64	64	10
17	24	2
10	27	2
3	19	1
25	26	6
60	62	1
12	62	1
50	57	2
6	26	2
74	74	5
3	11	1
46	46	3
84	86	3
5	16	2
53	54	5
32	34	2
76	76	3
86	89	1
12	72	1
81	82	2
35	35	2
19	25	1
23	27	1
9	20	3
5	27	4
19	29	1
85	86	2
6	8	1
7	26	2
18	18	1
5	9	2
62	63	2
65	77	2
18	19	3
74	81	2
84	85	2
6	7	2
7	23	2
31	32	1
51	53	2
22	24	1
7	8	1
5	8	3
31	48	4
56	57	1
30	31	1
62	64	1
59	61	1
75	77	2
70	74	1
8	11	1
9	19	3
4	27	2
7	10	2
13	14	1
49	50	1
60	64	1
46	76	1
81	84	1
16	21	1
75	81	1
20	22	1
67	68	1
64	65	1
77	78	1
10	13	1
1	5	1
7	85	2
27	29	1
61	63	1
21	75	1
