226	240	1
7	8	3
202	202	4
230	242	3
157	157	2
149	159	1
46	46	6
12	167	3
106	106	3
51	51	3
41	41	10
203	203	3
5	5	6
73	88	1
105	127	3
141	142	3
61	62	5
108	120	2
21	23	3
103	129	9
197	236	3
38	38	3
44	52	1
78	78	4
99	99	3
11	169	2
49	49	3
133	133	1
6	34	1
108	137	2
139	139	10
105	105	5
36	36	4
148	148	3
144	157	2
150	150	7
73	73	5
161	165	1
29	29	3
224	224	4
15	15	2
15	18	3
222	222	11
163	163	5
121	157	2
46	65	2
47	48	2
63	63	5
190	195	8
166	167	3
143	144	1
14	17	1
97	124	2
12	16	3
34	34	8
143	162	3
237	238	5
77	104	3
207	232	2
8	24	10
102	125	4
147	148	2
113	115	1
209	215	4
232	242	1
225	225	9
22	31	4
221	222	1
204	205	8
126	133	1
3	12	1
61	61	4
172	191	4
235	235	7
145	145	5
50	50	6
101	101	5
211	213	1
44	44	8
160	183	2
159	182	1
130	130	5
158	162	2
151	151	6
178	178	9
206	206	11
164	166	5
125	136	2
96	120	4
99	108	6
110	135	4
200	201	14
141	141	7
104	104	6
172	172	8
31	31	2
192	193	1
61	84	2
27	61	1
2	2	2
88	88	3
95	101	2
45	45	4
134	135	2
14	21	1
199	199	7
131	136	3
71	75	1
4	4	3
122	122	7
60	84	1
171	188	2
80	82	2
27	27	12
237	237	4
0	0	6
140	144	2
230	233	2
182	201	2
144	144	5
166	166	5
221	221	11
214	214	9
152	152	4
8	8	11
231	232	2
140	140	6
70	100	1
165	169	4
229	239	2
121	162	2
184	186	5
112	139	2
15	50	2
121	121	3
159	179	5
208	208	4
52	52	6
15	16	5
191	191	8
161	183	2
13	13	3
226	229	2
33	33	2
114	114	2
160	186	3
124	145	2
3	13	2
28	28	12
180	180	3
17	17	4
232	232	6
133	134	2
1	1	2
128	128	4
139	142	3
137	137	5
109	152	1
230	239	4
153	154	3
142	156	1
235	236	2
181	181	1
229	229	2
152	179	1
214	236	2
1	5	2
23	23	2
97	115	2
145	147	6
37	39	2
1	24	2
202	203	2
22	33	3
70	71	3
10	10	4
44	160	1
69	69	3
58	59	2
171	175	5
162	190	2
169	169	2
18	18	2
2	14	4
36	65	3
97	97	5
194	196	2
160	160	1
20	21	1
107	107	6
159	159	6
74	74	7
124	124	6
84	85	3
32	32	2
227	227	9
65	65	7
135	135	7
33	34	1
158	163	1
210	210	1
40	40	2
205	207	3
77	77	3
105	115	2
54	54	4
22	25	3
37	37	3
66	66	7
36	61	1
213	215	1
157	163	5
204	204	4
20	24	1
112	123	5
194	198	1
202	221	3
139	165	4
79	79	4
18	45	1
104	140	5
149	149	3
175	175	8
238	238	4
10	18	2
168	194	5
3	34	4
108	108	2
59	62	1
47	49	1
3	23	3
190	207	2
160	205	4
102	118	6
71	71	3
14	15	3
4	6	3
207	207	1
192	192	4
118	118	3
58	58	5
219	219	2
57	57	2
112	148	1
44	70	1
19	20	3
30	30	3
168	168	7
122	123	2
205	205	2
30	33	1
143	143	4
211	211	3
136	136	7
113	113	6
228	229	2
131	134	3
42	67	2
171	172	3
3	3	4
173	174	1
198	198	3
91	91	2
44	46	1
236	240	2
155	162	1
186	227	5
222	225	2
167	170	2
150	167	5
25	25	5
153	153	5
234	242	1
10	14	2
196	196	1
17	50	3
146	146	4
68	68	2
200	225	3
239	239	2
242	242	7
197	220	3
171	171	2
218	224	2
15	21	2
102	102	1
79	80	2
99	100	1
178	179	4
49	50	4
9	9	4
108	135	5
100	100	6
120	120	7
53	53	3
230	231	2
6	7	2
164	164	12
86	86	3
33	47	1
64	64	7
193	194	2
97	125	1
16	16	5
230	230	1
22	23	1
184	192	3
189	196	5
175	177	2
163	197	1
73	74	2
127	127	3
43	43	4
22	45	1
213	213	4
160	192	1
116	116	1
66	67	4
163	189	1
190	217	1
6	6	4
135	143	1
158	179	1
125	130	3
216	230	2
82	83	2
54	57	1
165	165	5
215	215	5
210	222	3
7	26	1
140	141	1
118	137	2
232	233	3
173	173	6
223	223	1
75	75	3
51	54	2
202	220	2
80	80	4
189	189	1
175	183	3
133	153	1
154	154	1
169	170	5
238	240	2
109	109	1
148	161	1
62	63	1
228	228	7
179	179	1
135	136	3
214	228	2
3	29	1
171	180	6
122	128	3
233	233	1
184	184	4
13	151	2
138	139	2
222	231	3
3	19	4
176	179	2
170	170	1
139	166	1
18	19	4
207	211	1
81	82	4
125	125	2
98	98	1
241	241	3
190	190	5
227	229	1
54	76	2
23	31	3
177	177	2
119	121	5
15	113	7
69	70	2
204	240	2
151	155	1
35	41	2
221	227	1
124	140	2
228	233	1
103	103	2
195	195	2
241	242	2
102	123	1
59	59	1
14	20	1
152	155	1
14	14	2
217	217	2
116	129	1
102	103	2
5	21	2
220	220	1
40	76	1
183	192	2
24	27	1
26	26	3
68	77	1
3	10	3
10	29	1
197	198	3
62	64	1
208	211	1
135	139	1
55	55	1
109	134	1
20	20	1
154	155	1
95	95	2
59	80	1
230	235	2
110	110	1
152	154	1
231	234	5
228	232	1
77	78	1
23	33	2
119	119	1
36	41	1
163	194	1
201	204	1
32	37	1
162	162	2
22	22	1
226	226	1
187	217	3
218	218	6
109	110	1
116	137	3
214	237	1
59	60	2
17	24	2
236	239	2
76	76	3
121	141	1
171	176	1
176	177	2
137	138	2
203	217	3
24	64	3
201	201	3
198	219	1
188	194	4
205	224	1
167	171	1
52	79	1
187	189	1
234	234	2
67	68	1
173	178	4
84	84	2
2	6	2
182	189	4
104	109	2
200	200	2
138	138	3
85	86	4
104	106	1
180	182	1
113	176	2
216	241	1
72	82	1
13	70	1
95	102	2
100	101	1
156	156	2
55	65	1
113	114	1
186	211	1
136	137	4
40	53	1
157	162	1
186	213	2
42	89	1
160	161	1
8	19	1
2	21	1
37	40	1
2	10	1
123	124	1
117	117	1
5	8	1
124	125	2
226	233	1
9	34	1
205	221	1
161	161	1
170	179	1
40	41	2
134	134	2
103	104	1
213	226	2
46	51	2
212	213	1
189	192	1
206	207	1
7	7	3
152	172	1
176	192	1
48	48	1
212	212	1
103	107	1
193	204	1
123	123	2
186	220	2
48	71	1
150	151	1
98	136	1
150	157	1
45	54	1
42	78	1
131	131	1
81	81	2
59	84	2
70	70	1
112	112	2
18	20	1
186	205	2
161	176	1
161	162	1
147	175	1
119	127	1
130	135	1
103	135	1
3	26	1
80	81	2
28	63	1
10	13	1
126	126	1
160	184	1
52	64	1
48	57	1
223	235	1
17	21	1
20	22	2
236	236	2
62	62	2
56	78	1
115	115	2
33	42	1
5	15	2
171	183	1
26	64	1
83	99	1
4	35	1
56	58	2
121	130	1
67	79	1
208	232	1
5	27	1
215	226	1
228	238	1
5	24	1
115	116	1
25	30	1
182	192	1
101	107	1
172	173	2
229	233	1
109	148	1
11	22	1
184	198	1
187	188	1
77	83	1
141	148	1
190	223	1
32	39	1
185	201	1
156	158	1
193	195	1
1	7	1
234	236	1
239	241	1
41	66	1
42	43	2
69	82	1
97	135	1
158	158	1
