119	119	6
103	106	2
1	1	9
27	27	11
97	99	1
119	121	3
34	34	1
106	106	9
130	130	3
22	32	4
8	9	2
121	121	3
25	25	5
77	120	2
120	120	6
3	3	3
134	134	6
28	28	6
78	78	8
110	110	5
125	126	2
31	31	3
77	78	3
100	100	3
91	91	1
89	89	2
92	93	4
30	30	7
20	20	7
106	107	1
81	81	4
82	82	4
136	138	6
112	112	5
86	86	6
81	82	2
0	0	4
19	20	5
11	12	4
10	10	1
80	82	4
20	103	2
80	84	3
82	90	3
126	126	10
18	99	3
15	15	5
22	23	1
74	74	3
12	22	2
5	96	5
87	87	3
34	99	5
16	16	3
112	113	4
33	34	2
115	115	3
138	138	6
37	37	6
72	72	4
17	18	3
79	97	1
103	104	3
97	97	1
118	118	2
95	96	1
4	4	1
6	6	2
124	124	8
117	117	1
20	102	1
107	130	4
37	38	3
35	36	2
111	111	4
105	121	3
114	119	1
35	35	1
87	113	4
123	123	1
29	29	5
102	103	2
89	90	2
117	118	1
139	139	8
32	32	3
111	123	2
109	109	5
24	25	2
107	107	3
0	1	1
80	80	2
101	112	2
103	109	3
81	83	1
18	100	2
73	73	1
30	32	3
121	122	1
76	79	3
114	114	5
77	84	1
102	112	2
77	77	3
84	121	1
84	84	4
98	98	1
113	113	1
93	93	3
17	17	8
125	125	5
27	93	2
95	95	3
11	11	3
79	99	1
105	105	1
91	121	1
1	2	3
96	96	4
0	2	2
38	38	3
27	29	2
101	111	1
7	12	5
110	123	2
71	71	4
80	81	1
79	79	3
82	85	2
34	37	2
112	120	4
92	108	2
10	30	4
94	127	2
83	83	6
12	12	4
134	135	3
88	90	2
140	140	4
36	36	2
131	131	1
131	133	1
36	37	1
109	110	1
85	85	2
108	109	4
119	120	2
91	118	2
137	138	2
85	87	1
112	116	1
74	75	1
66	80	1
10	11	1
104	105	1
75	112	1
83	84	1
12	26	2
79	88	1
76	76	2
9	9	5
127	127	1
21	21	1
103	103	3
75	75	1
18	18	5
21	23	1
29	32	2
6	10	1
71	72	1
10	12	2
120	122	1
100	101	1
0	18	2
86	87	1
78	85	1
13	14	1
21	24	1
88	88	2
2	2	2
74	76	1
8	8	2
114	116	2
77	104	1
114	123	1
99	99	1
87	88	1
17	127	1
112	119	1
16	17	1
95	100	1
103	120	1
138	139	1
132	132	1
5	13	1
104	104	2
27	33	1
122	122	2
3	5	1
105	106	1
22	37	2
90	91	1
32	33	1
94	133	1
13	13	1
115	125	1
107	122	1
