120	121	8
73	73	30
20	20	17
2	2	15
61	61	26
78	78	28
101	101	11
45	72	3
3	37	2
44	65	2
82	86	10
9	10	13
65	65	13
33	33	10
104	105	6
105	105	8
82	88	1
134	134	20
66	66	16
17	17	22
78	79	5
44	44	18
47	47	20
15	26	3
14	14	32
10	10	24
123	123	5
112	112	12
49	49	5
83	83	24
23	23	21
42	42	18
113	113	19
6	10	2
124	124	8
8	120	6
92	93	6
96	130	1
113	114	8
122	123	2
126	126	15
13	29	1
127	131	1
73	74	7
56	58	4
107	107	13
119	119	27
3	3	14
8	8	20
63	63	25
37	90	5
117	117	16
13	13	12
8	43	1
46	46	10
8	46	1
121	132	3
62	62	11
35	43	9
24	24	6
71	72	5
22	26	1
103	104	4
8	11	2
92	94	4
21	21	4
79	79	14
120	120	16
110	110	10
35	35	8
80	80	17
29	68	1
65	66	5
99	100	2
4	42	5
55	93	1
98	98	14
17	38	2
18	110	1
104	107	4
85	85	12
95	100	4
39	42	5
111	111	23
57	131	2
106	106	17
9	9	29
5	5	16
104	104	15
59	59	6
79	128	3
56	79	1
115	115	14
68	70	3
77	86	5
18	26	3
82	82	36
118	118	24
68	68	22
87	87	10
28	111	3
122	125	2
48	109	1
79	80	1
36	36	18
40	40	2
26	26	12
15	15	12
102	102	7
66	70	3
91	91	11
29	29	7
36	37	3
85	86	5
6	7	4
69	69	12
93	93	9
55	55	12
96	96	11
15	34	1
73	95	2
37	37	21
18	66	4
54	55	4
98	99	5
56	56	3
5	39	3
97	98	1
41	42	3
27	27	8
18	68	5
84	84	14
86	86	12
8	92	1
15	108	1
116	116	21
28	28	11
28	122	3
34	36	2
109	123	1
72	72	21
43	43	11
70	70	15
6	6	16
91	92	3
23	24	6
9	18	1
20	21	9
38	92	3
51	55	7
88	88	4
98	113	2
95	95	31
70	71	7
3	5	3
94	95	6
132	132	6
78	115	7
121	130	2
18	72	2
57	57	13
27	34	3
121	131	1
58	106	1
4	92	4
120	129	3
127	127	10
122	133	1
19	19	11
106	110	3
90	106	3
125	125	37
86	88	2
30	32	10
81	87	3
4	39	1
58	58	14
115	116	2
36	40	3
87	88	3
64	64	13
87	89	4
74	74	7
90	92	3
96	99	1
127	128	1
20	68	2
133	134	8
94	94	6
121	122	9
12	13	1
22	22	8
45	60	1
126	128	5
11	11	9
15	16	2
41	60	2
131	131	1
79	131	1
114	115	4
78	116	5
112	113	5
18	18	17
74	77	7
34	34	10
1	2	2
123	124	7
122	131	1
48	48	3
80	95	2
103	109	4
122	122	10
8	121	3
60	60	19
80	87	2
67	67	13
36	57	4
109	110	3
75	75	11
7	7	5
32	33	2
35	36	10
30	30	13
128	128	14
89	89	4
76	76	8
14	111	5
43	44	2
100	100	6
97	97	5
38	38	8
40	41	2
99	99	10
76	77	6
39	39	4
22	48	1
12	12	10
11	12	7
33	45	2
4	4	10
6	68	4
30	39	2
32	32	6
78	131	2
21	23	2
84	86	1
65	129	2
131	132	3
77	83	2
121	121	5
57	111	2
37	38	5
103	103	12
118	119	5
130	133	5
50	58	1
25	25	11
64	75	2
122	126	2
106	112	1
3	17	4
90	90	7
82	89	4
83	97	2
99	130	6
29	69	2
4	5	5
46	111	1
77	78	6
18	21	3
81	81	3
79	94	1
49	91	2
133	133	5
0	0	10
107	108	5
91	102	1
130	130	9
31	32	4
68	69	1
78	83	1
119	120	2
38	120	1
5	38	3
45	45	6
77	77	15
106	107	1
48	134	1
44	63	3
110	127	2
123	132	1
129	129	5
129	130	5
114	114	6
106	114	1
128	129	4
71	73	2
89	94	3
84	95	1
84	85	6
57	58	5
61	111	2
57	90	5
76	94	3
10	66	2
79	129	2
65	87	1
15	109	2
29	45	4
57	133	1
95	99	4
125	134	2
109	109	6
26	27	4
55	79	2
86	94	1
82	87	2
46	47	8
119	121	1
91	96	3
124	125	1
108	109	2
105	106	1
0	1	2
103	105	2
72	107	1
69	70	1
45	57	3
86	97	3
105	108	5
123	126	3
48	82	2
48	49	3
16	16	5
25	69	5
122	124	3
94	101	2
1	1	1
10	12	1
31	31	4
27	122	3
92	101	3
19	20	2
119	131	1
56	108	1
16	17	4
81	94	1
114	116	2
114	117	1
102	104	3
13	37	1
71	71	8
56	57	1
92	103	1
84	103	1
121	128	2
113	117	1
13	15	3
8	47	1
34	35	3
45	61	3
101	104	2
2	4	3
76	125	1
125	130	3
27	28	1
97	131	3
125	129	2
80	88	1
83	126	1
37	39	4
108	116	1
17	18	2
108	108	4
74	125	1
11	13	1
19	28	1
126	127	2
57	105	2
57	107	3
23	25	1
113	115	1
36	44	2
3	31	1
30	36	1
20	48	1
55	60	1
83	96	1
56	92	5
6	93	2
123	129	1
61	62	1
36	41	1
29	30	3
82	102	1
72	73	1
131	133	1
125	126	3
41	41	1
61	73	2
96	98	2
31	45	1
8	9	2
49	50	2
126	132	1
81	82	3
130	134	4
109	126	1
5	6	1
1	94	1
116	117	3
9	46	1
90	103	2
16	18	1
80	81	1
45	46	5
10	16	2
111	115	1
61	63	1
47	48	2
30	31	1
8	75	1
106	109	2
83	121	1
11	40	2
4	102	1
117	118	2
100	101	1
22	41	2
74	75	2
80	109	1
43	122	3
104	109	1
64	66	1
112	127	1
13	25	1
113	116	1
51	70	1
56	71	1
11	16	1
24	25	1
30	44	1
31	44	1
70	72	2
11	14	1
7	41	1
58	81	1
97	133	1
9	74	1
121	125	1
15	20	1
13	111	2
28	36	2
34	67	1
46	74	1
19	71	1
90	91	1
82	83	1
75	76	1
58	131	1
26	37	2
38	122	1
11	15	1
14	18	1
107	114	1
39	40	1
