28	28	5
19	69	6
46	46	8
31	31	1
3	20	8
129	129	4
103	103	14
72	73	6
63	63	2
69	69	6
82	87	4
92	94	7
5	5	7
8	8	10
0	0	5
115	115	2
73	73	2
9	9	10
122	122	11
31	39	5
32	33	5
24	24	1
44	44	5
112	131	2
87	87	6
106	106	15
21	21	3
46	49	3
43	43	6
128	130	4
7	46	1
37	37	13
124	124	9
29	29	5
33	33	6
2	20	2
100	127	1
78	78	7
127	127	4
19	19	6
58	113	5
77	77	9
119	119	9
43	129	6
97	116	7
20	20	6
102	102	4
88	88	7
117	117	9
97	99	8
22	24	1
107	107	7
108	128	9
97	97	7
1	134	7
26	26	5
111	111	16
56	56	9
2	2	2
83	83	5
26	30	8
120	120	14
114	114	12
45	45	11
58	59	2
79	83	1
57	57	5
71	74	2
85	85	6
12	13	3
92	96	1
9	10	1
80	80	4
125	126	5
5	43	2
30	30	4
109	131	2
101	101	4
1	119	1
68	70	4
84	84	9
121	121	7
112	128	4
34	34	2
113	116	4
64	64	1
49	49	2
7	7	8
79	79	6
6	48	1
12	12	5
105	106	2
2	17	2
22	22	7
93	100	4
12	23	4
4	44	2
13	75	4
15	15	3
59	115	2
68	69	4
42	42	10
91	93	5
62	62	1
23	24	2
61	62	3
104	104	6
13	13	2
47	47	8
114	115	2
90	90	6
110	132	2
97	124	2
11	28	2
94	124	2
49	50	7
11	27	1
125	125	2
112	112	2
75	75	5
129	133	3
11	29	1
118	118	4
8	9	3
1	1	2
94	94	9
28	29	1
77	79	2
4	133	1
108	108	7
19	68	2
96	96	4
27	27	4
57	60	2
18	18	6
111	113	2
50	50	2
68	68	3
122	123	4
116	116	5
10	13	2
93	127	1
64	67	1
100	100	3
28	36	2
57	129	2
81	82	5
4	4	5
6	47	1
45	46	3
68	74	2
34	46	3
18	125	4
56	112	1
4	48	3
25	25	3
39	39	3
51	93	2
95	95	1
77	85	2
41	41	4
0	74	2
109	109	2
82	82	3
109	111	1
19	70	3
3	3	2
79	80	1
70	74	3
60	127	4
134	134	3
126	126	9
43	133	1
110	111	1
114	116	3
66	66	5
110	110	3
18	62	3
48	48	1
91	91	5
26	36	2
123	123	2
14	14	3
130	131	1
112	130	5
105	105	5
56	127	3
100	113	1
51	56	1
65	65	5
113	113	3
16	20	1
16	16	3
60	93	3
17	95	4
116	117	3
70	75	3
82	84	2
34	35	4
46	47	2
109	130	3
30	86	1
11	11	1
7	48	3
107	108	1
81	81	3
130	130	3
55	91	1
61	61	2
1	20	2
18	19	1
58	127	4
6	49	1
94	121	1
70	70	1
116	118	1
98	98	1
60	60	1
45	130	1
122	124	1
94	123	1
86	86	5
103	115	2
50	133	4
1	71	1
100	115	1
96	124	1
23	88	1
112	129	2
62	71	1
18	118	1
8	10	1
16	68	1
104	106	1
71	72	1
31	40	1
112	125	1
38	39	1
3	4	3
37	38	1
23	23	1
74	74	1
72	72	1
28	30	2
19	120	1
113	114	1
16	70	1
15	16	1
57	103	1
29	86	1
72	74	2
32	41	1
99	99	2
120	124	1
18	20	1
131	131	1
57	126	2
133	133	1
59	100	1
6	33	1
20	61	1
5	48	1
45	132	1
97	125	1
122	125	2
71	71	1
6	6	1
82	83	1
64	65	1
13	14	1
