62	62	4
41	75	4
69	69	15
116	117	3
14	14	16
107	107	6
67	70	5
104	104	3
11	67	1
58	58	6
96	113	2
39	39	6
2	114	3
82	82	14
19	20	5
15	130	5
125	125	2
83	83	10
88	88	13
126	127	2
128	128	7
116	119	1
103	104	1
129	129	1
42	45	3
8	9	6
121	121	4
48	48	9
68	69	5
81	123	1
38	129	1
96	96	6
122	122	14
71	71	7
107	108	2
62	65	7
54	54	9
53	54	4
10	10	13
104	118	3
113	113	12
78	79	4
32	94	4
75	75	8
108	108	8
50	50	5
68	68	9
22	23	3
28	30	3
127	127	2
85	85	5
86	89	3
70	70	2
22	22	7
41	41	7
94	94	4
109	109	7
95	95	4
19	100	1
55	55	3
19	19	10
72	72	3
17	17	9
44	54	1
51	95	3
67	68	7
43	43	4
99	99	5
45	46	3
49	49	3
84	85	5
52	103	1
21	33	3
2	2	5
24	24	9
42	44	3
94	95	5
56	56	9
105	105	9
25	25	2
26	61	1
63	64	3
42	43	2
18	20	3
75	82	5
64	64	7
104	105	2
80	80	4
47	47	5
20	21	2
33	33	9
21	21	12
14	70	4
5	5	5
92	92	5
102	103	2
30	30	9
93	93	10
32	32	8
40	40	4
16	16	9
77	77	1
117	118	1
98	99	2
116	116	6
103	126	3
114	114	14
72	73	4
29	29	9
115	115	4
43	44	2
112	112	4
76	76	7
103	103	3
23	23	11
65	91	1
100	100	11
130	130	4
106	106	2
14	18	3
11	12	1
87	88	2
65	65	1
118	118	2
85	100	3
11	52	2
87	87	2
5	7	2
123	124	5
81	81	4
81	82	2
7	32	3
123	125	1
76	77	2
3	16	5
7	67	2
67	67	3
15	101	1
123	133	3
57	57	6
18	18	5
13	13	3
98	98	8
9	9	3
44	46	1
0	1	1
12	72	1
121	122	4
86	86	3
111	111	2
41	42	4
9	32	1
91	91	3
31	31	6
53	102	2
124	125	1
51	51	2
89	89	3
3	3	7
3	4	6
102	102	2
118	119	5
52	52	4
46	51	1
16	19	1
105	106	2
4	4	8
111	112	2
88	89	1
0	120	2
107	121	1
90	90	7
79	79	4
38	39	7
17	101	3
63	77	4
114	115	2
119	131	1
101	101	4
114	119	1
108	109	2
27	27	2
26	32	2
0	0	4
72	78	2
80	92	3
65	66	1
106	107	4
30	89	1
46	46	2
63	65	1
120	120	2
84	84	2
129	130	6
78	78	4
38	38	3
90	105	1
95	118	1
53	53	4
93	96	3
126	129	1
69	70	2
10	11	1
44	44	2
70	71	4
3	5	2
57	76	1
117	117	1
129	131	2
61	98	1
33	99	3
71	72	1
62	64	2
19	122	4
131	131	3
123	123	1
11	11	2
66	66	3
40	54	1
0	2	1
26	26	3
73	73	1
120	121	1
72	74	1
56	58	1
42	42	4
100	101	1
112	113	1
57	58	2
65	70	1
73	76	2
17	18	2
97	97	2
63	68	2
98	110	1
15	33	3
24	31	1
119	119	2
60	73	3
77	80	1
44	49	1
17	125	3
95	114	1
54	56	1
12	12	1
59	62	1
55	56	1
42	56	1
54	87	1
128	129	2
45	45	4
28	28	3
25	26	2
110	110	2
125	133	1
13	14	1
4	21	1
2	22	1
9	11	1
124	124	2
42	76	2
29	30	1
51	109	1
67	84	1
113	114	1
45	47	1
58	76	1
119	120	1
50	51	1
92	94	1
67	75	1
119	121	2
66	67	1
11	13	2
14	71	1
64	77	1
20	20	1
21	58	1
71	75	1
5	12	1
126	126	1
54	55	1
46	103	1
74	74	1
93	124	1
132	133	1
61	61	1
