65	65	13
174	174	11
28	186	5
82	83	2
95	100	2
36	36	6
47	47	14
80	80	3
60	60	7
140	140	7
122	122	8
132	133	2
39	39	6
61	61	10
161	161	8
61	97	5
48	183	1
20	21	4
124	130	1
74	74	7
153	153	3
3	3	8
13	13	5
125	126	5
27	27	10
189	189	7
105	120	4
11	11	1
176	176	9
22	22	1
192	192	14
162	165	6
175	175	6
63	63	8
37	37	10
10	10	9
33	33	14
137	137	3
29	35	1
112	112	13
44	127	1
186	186	12
50	50	16
55	55	16
195	195	8
142	142	4
118	119	2
34	192	1
127	128	2
40	40	1
138	138	15
128	152	1
124	125	11
136	136	8
154	154	11
48	48	8
13	14	3
147	147	8
83	86	4
45	128	3
133	134	4
57	57	18
100	100	2
12	12	7
71	71	4
94	94	11
64	64	4
28	30	1
177	177	6
159	159	4
16	16	13
86	86	6
30	30	9
140	149	4
16	17	3
13	32	3
18	18	13
60	122	3
2	2	2
7	7	2
164	167	1
158	158	8
144	152	1
98	98	2
96	97	6
59	59	12
42	58	2
53	53	8
56	56	6
84	84	2
108	108	8
119	150	1
106	106	4
187	188	7
57	60	4
167	167	5
24	41	2
112	138	1
105	152	2
31	31	8
21	21	1
157	157	2
123	123	5
173	173	2
129	129	6
145	145	2
23	23	7
170	177	2
114	114	16
37	38	2
44	44	13
19	19	7
95	95	6
48	49	2
94	95	8
125	125	7
174	175	4
162	162	3
54	54	5
130	132	3
116	116	6
55	56	4
162	169	2
179	181	2
150	159	2
52	52	31
155	156	1
25	25	4
104	150	2
59	80	1
182	182	4
168	168	7
78	79	7
95	96	2
16	159	1
47	185	5
193	196	1
102	102	8
161	162	2
83	85	3
185	185	8
190	190	4
156	156	9
135	135	3
155	164	2
25	81	7
55	127	2
32	33	5
36	186	1
99	99	2
139	140	6
174	176	2
8	8	11
146	153	3
188	188	4
99	101	3
58	60	2
116	117	3
69	93	3
132	132	6
167	168	5
5	8	4
20	20	3
179	180	3
24	24	3
71	72	1
40	47	1
82	84	2
164	164	5
26	26	1
197	197	4
93	156	2
44	46	3
81	81	6
20	77	4
17	17	7
163	164	6
68	75	6
85	86	6
108	109	3
63	100	3
23	74	2
117	117	5
139	139	12
175	176	3
6	6	6
59	84	4
170	172	3
18	20	2
19	20	5
141	141	11
15	15	4
148	151	2
84	85	6
5	5	4
140	176	3
67	67	2
37	42	1
113	113	7
57	123	3
45	45	1
67	75	2
176	177	5
144	144	3
83	83	8
0	1	5
131	131	6
183	183	8
28	187	6
71	73	4
140	151	1
64	65	5
194	194	2
72	72	6
144	145	1
2	17	1
125	157	1
178	178	3
47	196	4
79	80	4
148	164	2
69	69	12
76	76	3
87	148	1
87	87	12
44	45	3
143	145	1
98	99	2
42	42	9
32	32	6
81	82	6
172	172	7
79	82	1
25	26	2
166	166	4
68	69	1
121	121	3
165	172	3
11	20	3
134	135	2
156	158	3
139	174	2
46	46	3
133	150	2
109	143	1
17	22	5
157	158	2
98	120	4
62	62	2
62	63	2
115	115	4
146	147	2
82	86	6
180	181	5
168	169	2
49	49	11
47	195	1
191	191	3
33	40	2
8	9	2
77	78	2
27	32	3
124	124	5
172	191	2
134	134	1
16	70	2
9	9	3
123	131	4
101	120	1
109	109	5
6	15	1
45	123	4
97	97	4
88	99	5
63	64	1
35	35	2
67	68	2
169	169	3
165	165	1
11	14	1
137	158	1
43	43	5
47	48	2
72	73	5
17	20	2
44	47	2
134	145	7
130	177	1
15	16	2
68	68	1
1	30	1
49	128	1
40	53	1
133	133	4
51	51	3
107	107	3
113	114	3
5	19	2
168	172	3
118	118	7
103	104	1
75	191	2
48	184	2
115	159	1
152	152	6
52	53	4
43	44	1
102	151	2
19	191	2
113	123	1
171	171	4
40	46	1
181	181	6
77	77	6
117	120	1
135	136	2
187	187	3
150	150	6
3	19	1
83	84	3
38	39	3
163	163	2
57	64	7
104	104	7
113	167	1
110	111	2
176	178	2
70	70	8
107	108	1
127	127	2
56	125	3
135	137	1
155	155	4
25	194	2
184	184	5
121	129	3
80	82	1
0	2	1
114	117	2
80	81	2
110	110	4
51	52	1
112	161	1
190	191	2
79	79	2
105	106	3
70	90	2
88	88	2
63	88	1
32	195	1
27	34	2
17	167	2
7	8	2
126	128	1
172	174	1
22	36	3
33	35	2
169	185	2
196	196	4
12	197	1
157	159	1
160	183	1
70	88	1
58	58	1
51	124	1
123	130	2
142	145	1
5	6	2
62	72	1
94	96	2
180	182	1
12	14	2
58	59	2
17	24	1
149	149	2
7	9	1
170	170	3
66	66	1
110	159	2
4	4	2
26	35	1
105	155	1
117	122	3
41	46	2
169	170	1
48	197	1
174	187	1
175	177	1
34	34	2
183	184	3
152	153	3
145	169	1
61	89	3
192	194	1
180	180	2
1	4	1
179	179	2
28	29	1
138	195	2
38	56	1
100	120	1
114	115	1
108	159	1
130	176	1
84	86	2
87	164	1
14	14	2
4	78	1
128	128	2
158	159	1
38	38	2
129	155	2
3	4	2
120	120	1
54	168	1
29	29	1
144	153	1
77	79	1
104	105	1
36	42	3
160	160	1
4	5	1
10	89	4
73	73	1
139	173	1
42	57	1
184	196	2
109	159	1
133	151	2
113	120	2
130	130	2
79	81	1
111	111	1
151	152	1
101	101	2
118	123	1
60	61	1
95	108	1
41	42	1
10	20	1
69	78	1
83	147	1
126	126	1
196	197	1
138	139	1
85	85	1
152	154	1
106	152	1
0	0	1
