128	129	7
40	40	12
55	55	3
64	97	1
126	131	2
54	54	17
104	104	17
59	60	5
26	27	6
51	52	4
27	29	6
22	23	3
1	7	2
96	96	17
10	10	6
124	125	5
63	65	2
15	15	16
79	79	9
20	20	6
135	135	1
18	19	1
131	133	8
80	134	2
87	87	3
57	83	5
83	84	5
73	73	7
60	60	2
106	106	3
134	134	13
115	117	4
61	61	2
41	42	5
11	11	8
83	87	3
38	38	2
37	37	12
127	128	5
13	24	2
92	110	1
4	6	1
18	18	18
23	23	5
63	68	1
28	37	1
92	92	13
31	31	11
8	9	3
78	78	7
142	142	7
139	139	5
59	110	4
1	120	4
127	127	9
95	95	3
71	73	2
131	131	7
59	59	5
77	78	1
115	116	4
14	20	7
33	33	11
49	49	10
98	98	5
30	30	2
62	104	3
3	120	3
108	142	4
9	9	8
105	105	9
101	101	11
119	119	4
28	28	11
41	41	4
89	89	5
5	5	4
52	52	4
103	143	1
6	6	3
117	118	4
66	66	4
30	31	3
81	81	7
131	136	2
70	70	5
10	27	4
108	119	3
65	65	7
121	128	1
16	17	1
115	115	4
55	110	6
20	34	4
70	71	2
109	109	4
117	117	19
27	28	6
102	102	7
26	26	5
136	136	2
4	4	11
118	118	6
58	69	4
79	82	2
97	98	3
50	110	4
137	137	7
25	28	1
19	59	7
145	145	11
121	121	9
94	94	2
3	10	5
99	101	2
120	128	3
84	84	4
81	131	2
0	1	3
123	124	6
75	75	9
117	119	1
127	140	3
130	131	2
48	48	3
105	106	2
42	42	1
129	129	4
19	19	10
84	87	2
25	42	3
132	133	3
111	114	3
125	125	6
10	11	1
64	64	2
25	25	5
123	123	7
62	64	2
31	32	10
55	56	3
72	72	5
128	131	1
120	120	10
57	58	7
8	131	2
112	112	4
126	126	7
12	43	2
62	62	7
29	29	8
24	24	4
29	30	6
43	43	4
13	14	8
48	53	3
118	119	5
143	143	4
53	76	2
27	27	6
20	35	3
129	130	1
100	101	4
133	133	8
94	95	4
52	115	1
3	3	3
116	116	7
99	100	4
52	85	1
90	90	5
107	107	5
18	88	5
34	135	3
98	99	1
111	111	6
58	58	7
96	108	4
62	63	5
38	39	1
80	80	5
39	39	5
36	134	1
34	35	3
143	144	2
110	110	2
93	93	2
42	43	1
108	108	13
106	107	3
22	94	2
31	120	4
79	80	5
130	130	2
82	82	2
103	122	1
71	71	2
32	32	5
84	85	1
61	109	2
22	66	1
141	141	8
1	1	2
32	33	1
40	41	3
52	53	1
21	21	7
86	87	1
118	120	1
92	93	2
95	96	4
25	29	2
49	50	2
81	135	1
107	108	2
124	124	5
91	91	6
50	50	3
31	118	3
96	100	4
142	143	1
140	140	8
48	57	1
8	8	2
67	101	2
114	114	3
91	107	1
113	113	2
115	120	2
5	10	3
76	78	1
95	122	2
69	69	6
68	68	4
96	97	3
112	113	1
56	65	1
35	35	3
81	82	5
127	132	2
109	111	2
132	132	1
77	86	2
110	111	1
38	42	1
85	85	3
36	36	2
103	103	2
30	51	1
72	129	1
28	30	2
97	123	1
65	69	3
69	119	2
76	83	1
22	37	1
66	109	1
88	89	2
107	119	2
119	121	1
95	98	2
11	102	1
134	135	6
69	70	4
8	11	1
14	15	1
86	95	1
131	141	2
116	121	3
0	35	3
55	77	2
87	89	3
2	36	1
122	122	4
126	127	4
62	143	1
23	24	1
89	90	1
48	87	1
121	122	3
86	86	2
101	102	1
62	68	1
57	86	1
108	118	2
64	66	1
69	72	1
87	91	1
119	124	1
102	103	3
2	3	2
13	47	1
47	48	1
75	83	1
66	67	1
138	139	2
88	88	1
134	140	1
53	53	2
57	100	1
128	128	2
58	59	1
106	119	1
63	64	2
64	118	1
144	145	1
8	29	1
0	0	4
0	33	1
61	104	2
66	74	1
22	93	1
98	132	1
43	87	2
131	132	1
20	21	1
104	109	1
74	74	2
38	90	1
36	138	1
61	66	1
120	132	1
5	35	2
6	94	1
111	113	2
106	118	1
19	21	1
118	135	1
52	54	1
140	142	1
47	47	1
144	144	2
69	86	1
48	49	1
56	56	2
60	61	1
127	141	1
26	76	1
34	34	1
33	34	1
17	17	1
