45	45	3
83	84	1
99	99	2
8	26	1
55	55	7
113	113	6
96	96	8
48	48	1
10	10	10
149	149	9
31	31	3
6	19	2
132	132	5
75	79	2
9	9	7
56	56	2
142	154	1
63	95	4
102	102	7
52	52	1
98	99	1
27	28	4
118	118	6
119	130	1
38	42	3
40	40	7
107	120	4
13	28	1
63	74	2
104	105	8
38	38	4
123	128	3
28	30	3
147	147	6
22	22	3
39	40	4
48	51	5
141	142	2
84	85	2
16	16	7
22	29	1
32	32	3
19	27	3
114	115	2
69	69	3
104	104	7
154	154	4
19	19	6
139	139	3
107	108	6
106	107	3
136	139	3
48	53	2
143	145	2
71	71	3
37	37	3
5	18	2
48	50	1
85	85	12
66	102	5
66	66	3
130	146	4
85	103	3
147	148	4
49	50	1
80	95	1
21	22	5
70	81	1
73	74	2
29	30	1
79	80	1
146	147	1
137	137	3
68	68	6
82	95	1
104	106	3
82	82	7
40	41	2
107	107	7
75	86	3
39	150	1
90	104	3
115	115	1
124	125	2
99	100	4
9	21	3
50	57	2
42	42	7
11	11	2
14	17	2
105	105	4
13	17	1
130	139	2
28	28	5
33	151	4
15	16	1
19	31	1
146	152	2
67	67	4
133	138	1
41	124	3
147	149	3
87	87	7
129	130	3
150	151	4
143	144	2
64	64	2
84	86	2
62	95	2
46	46	5
20	20	4
83	83	3
136	136	6
84	88	1
139	146	3
125	126	3
43	43	3
78	78	6
6	13	3
137	138	2
128	128	5
24	24	2
80	80	5
110	110	2
90	90	2
46	150	1
141	144	3
6	23	2
152	152	3
140	141	2
96	97	3
119	119	3
17	17	13
129	135	6
24	25	2
88	88	5
15	31	1
97	112	1
78	79	3
103	103	4
125	125	1
14	14	2
8	24	3
6	22	2
7	7	1
105	106	4
108	108	6
38	39	4
138	139	1
119	120	6
81	97	3
106	106	3
56	57	4
133	137	2
47	48	2
93	94	1
57	58	1
41	41	4
85	86	2
94	94	5
2	2	1
116	126	1
127	131	2
2	13	4
50	51	4
42	43	2
35	35	4
135	150	2
112	112	1
14	15	7
6	6	2
135	153	1
27	27	5
25	25	6
70	77	1
23	25	1
13	13	10
6	21	1
130	130	4
36	37	2
53	54	3
82	98	2
32	45	1
123	123	3
86	86	2
10	11	1
27	29	3
104	112	1
76	77	2
54	57	3
13	26	2
93	93	1
144	145	4
37	43	1
23	26	1
146	146	2
93	97	1
39	41	1
79	92	1
64	68	2
114	114	1
153	153	7
50	50	2
122	122	2
33	37	5
101	108	2
116	123	1
84	94	1
17	18	4
111	114	1
111	111	2
103	106	2
35	131	2
73	73	1
129	142	1
115	116	4
116	116	4
135	136	2
23	23	3
80	96	1
145	145	3
61	62	3
105	119	2
129	153	1
126	126	2
76	78	1
32	33	2
120	152	1
149	150	1
109	110	2
16	17	2
125	138	1
113	114	2
81	82	2
41	46	3
39	39	3
75	104	1
70	70	2
144	144	3
105	113	2
15	15	1
111	123	1
131	131	1
31	32	2
84	84	2
66	68	1
67	80	1
151	151	4
8	8	1
77	84	2
49	49	1
149	152	1
15	28	1
74	75	4
76	76	3
21	21	2
117	117	2
44	44	1
29	29	4
8	12	2
83	100	2
113	123	2
127	130	1
54	62	3
21	31	1
65	65	5
101	101	2
97	97	2
12	12	2
26	26	1
99	118	1
48	54	2
47	47	3
126	129	1
37	41	1
141	143	2
94	95	1
76	99	1
32	149	2
128	129	1
9	10	2
62	72	1
6	8	2
102	104	2
8	9	1
2	16	1
6	28	1
2	29	1
133	133	2
129	144	1
96	98	1
122	140	2
53	53	4
135	135	3
10	12	1
122	123	5
79	79	2
133	135	1
74	74	2
6	11	1
81	99	1
97	99	1
45	77	1
110	113	1
141	141	1
54	54	1
103	117	1
30	30	1
99	116	1
108	114	1
64	65	1
41	151	1
115	118	1
75	82	3
77	77	3
20	21	1
67	92	1
20	30	1
88	90	1
134	135	1
111	122	1
2	14	1
45	46	2
83	94	1
10	17	2
95	96	1
18	19	1
42	149	1
37	40	1
83	96	1
152	154	1
63	63	1
32	47	1
114	125	1
82	86	1
142	146	1
39	43	1
67	102	1
105	109	1
138	148	1
33	55	1
63	109	1
130	143	1
66	79	1
148	148	1
120	120	1
83	90	1
82	104	1
66	92	1
45	154	1
15	30	1
121	121	1
72	72	1
96	120	1
143	143	1
34	34	1
112	116	1
37	38	1
4	8	1
65	79	1
18	18	1
23	24	1
