99	99	11
101	101	16
81	87	2
108	108	17
8	8	31
68	69	3
109	110	2
82	83	13
80	105	3
79	87	7
64	64	24
90	90	16
72	72	21
69	69	24
74	74	25
83	103	2
35	35	29
28	28	16
40	41	13
5	6	4
23	24	12
63	69	4
39	39	23
87	88	10
97	97	27
63	64	7
66	67	6
102	102	43
65	66	9
21	22	11
76	76	25
27	27	8
27	28	14
119	119	28
92	109	2
65	65	21
57	57	11
92	92	18
60	60	13
84	84	19
32	32	31
85	86	3
130	130	23
124	125	15
1	60	2
73	76	7
94	94	22
4	6	5
29	29	22
32	33	19
67	67	15
21	56	4
115	115	35
58	59	9
113	113	12
57	58	8
10	12	5
76	77	5
81	81	18
36	36	15
33	33	24
43	43	17
47	47	24
90	110	2
114	114	36
82	82	18
79	79	34
48	48	17
98	99	12
30	30	27
117	117	23
42	42	9
105	105	15
19	19	22
132	132	21
94	97	2
104	106	2
83	87	2
0	1	4
118	118	30
48	55	2
73	73	24
10	64	2
78	115	4
62	62	26
79	121	4
46	46	20
91	92	8
7	7	30
78	78	23
57	90	5
12	13	15
67	68	5
21	21	32
0	0	14
113	114	4
15	15	20
10	10	22
88	112	1
121	121	30
119	120	9
125	125	36
26	26	12
98	107	1
64	65	17
12	12	14
86	87	6
14	14	15
96	110	2
55	55	7
75	76	12
1	2	8
114	117	2
113	127	2
129	129	19
20	20	22
16	21	5
69	70	12
126	126	29
109	109	25
85	85	19
116	120	2
23	30	5
63	63	19
82	86	1
83	83	25
44	44	19
19	21	10
56	56	9
47	118	2
7	22	4
121	122	8
6	6	16
78	79	8
97	108	2
7	11	3
18	18	18
16	16	12
61	61	23
18	46	1
120	121	7
56	98	4
26	27	10
45	46	9
114	128	4
13	14	3
107	108	3
127	127	7
111	111	22
123	123	18
11	63	5
11	12	5
96	98	5
46	47	9
134	134	13
124	124	14
93	93	13
38	38	19
31	31	17
93	94	3
2	3	12
110	110	13
110	111	6
5	5	24
95	95	16
120	120	36
75	75	20
98	98	13
102	107	5
37	37	21
70	70	18
112	115	3
20	47	3
24	25	4
125	126	4
89	89	3
24	46	2
13	15	4
96	96	12
66	66	19
118	119	3
122	122	20
25	25	4
91	93	3
107	107	31
29	31	1
77	77	21
103	104	6
59	59	15
128	130	8
56	57	7
7	23	2
30	33	3
37	38	11
105	108	6
51	51	6
30	31	3
133	133	14
88	89	4
22	22	8
54	55	1
110	120	4
19	23	10
17	17	24
23	23	9
11	11	11
68	68	19
1	1	21
48	50	3
57	100	1
10	11	6
31	43	2
28	29	7
48	109	1
105	106	2
38	39	3
12	123	1
103	103	24
112	112	17
55	56	9
4	4	9
9	9	24
91	109	2
24	26	5
116	116	15
16	17	1
31	35	2
71	71	15
5	32	2
112	114	8
77	102	5
13	101	7
2	2	13
59	86	3
9	10	8
23	25	1
88	88	10
105	110	3
3	4	7
71	75	3
8	9	5
47	48	4
101	107	6
70	71	13
115	125	2
12	57	3
34	42	4
41	50	1
110	112	2
44	45	8
43	44	8
4	5	4
80	103	2
45	75	8
131	132	5
41	48	8
20	21	10
99	105	2
115	116	1
57	104	2
128	128	13
24	24	2
74	75	10
72	93	6
111	112	2
80	80	14
59	60	18
35	36	14
63	70	6
17	46	1
81	82	13
12	23	3
116	123	3
37	42	2
95	97	3
81	129	8
58	58	5
15	16	14
100	101	3
45	45	25
22	31	2
27	29	11
18	19	10
112	128	2
34	34	18
65	76	13
42	43	15
108	109	6
73	75	2
86	86	15
59	67	2
89	90	1
72	130	3
13	13	11
11	13	2
6	27	1
115	129	2
35	37	1
131	131	11
44	77	3
78	80	3
11	16	1
11	102	1
11	35	2
12	95	1
44	108	2
97	98	2
105	134	3
114	115	4
51	56	2
87	91	1
25	26	5
26	55	2
40	40	8
62	70	3
84	85	9
41	41	2
14	15	4
50	55	1
81	83	5
112	113	6
108	110	1
105	126	1
33	34	5
117	118	3
100	100	4
59	66	4
63	93	4
64	85	2
79	92	4
106	110	1
106	106	11
65	71	3
73	101	1
80	92	3
106	107	4
92	112	2
38	111	2
128	129	14
39	40	3
34	35	1
33	112	2
5	55	4
60	61	2
15	24	2
32	43	1
116	117	4
72	73	10
101	105	2
19	20	5
83	84	2
14	95	1
104	107	4
92	93	3
18	34	1
75	118	4
77	79	3
87	93	5
90	109	1
108	112	4
85	129	1
61	62	2
23	26	3
14	40	2
101	104	1
44	109	2
26	28	2
91	91	7
19	101	1
57	69	1
82	85	8
28	30	2
104	104	3
119	121	3
58	92	3
5	35	2
80	81	2
3	3	7
95	116	1
18	30	1
104	132	3
37	74	3
87	87	7
111	119	3
58	91	7
14	21	2
43	45	3
30	43	1
118	122	2
88	92	2
58	60	1
23	58	2
102	103	3
105	121	3
80	86	3
45	118	2
122	123	5
58	68	4
29	30	5
45	113	1
73	74	4
3	6	1
78	89	1
94	95	6
129	131	3
86	126	4
8	15	2
32	48	1
3	33	4
11	34	2
62	63	3
38	42	2
6	7	3
82	129	1
79	94	2
18	58	1
130	131	5
78	93	1
24	101	3
7	14	3
7	8	2
20	29	1
34	36	6
1	4	1
71	72	1
126	127	1
80	126	1
5	15	2
110	122	2
8	10	2
82	84	2
115	120	2
133	134	2
25	42	2
114	125	1
15	17	2
45	117	5
56	106	1
78	110	2
62	73	1
96	107	1
77	78	4
31	40	5
109	111	1
90	112	2
90	91	2
19	24	1
97	107	2
93	107	1
77	85	1
130	133	1
28	43	3
106	122	3
123	124	2
57	59	1
13	32	1
13	93	2
114	116	2
115	126	4
90	130	1
11	15	4
99	100	4
33	47	1
12	24	2
110	121	1
109	112	1
93	113	4
89	132	1
132	133	1
78	94	1
5	39	1
128	131	1
21	26	2
87	92	2
74	82	1
101	103	3
100	102	1
14	23	1
103	105	1
80	93	1
17	20	1
49	49	3
3	34	1
42	48	2
18	23	1
46	48	3
17	63	2
79	80	3
104	105	2
21	24	2
5	9	1
127	131	1
87	128	1
16	24	2
12	41	2
110	113	1
13	62	2
90	93	1
96	97	1
15	21	1
18	63	1
83	129	2
65	75	1
90	111	2
62	119	1
4	11	1
14	19	1
104	134	1
17	18	4
48	49	1
129	130	1
14	16	1
17	24	1
14	56	2
90	92	1
93	108	1
79	89	1
58	87	1
87	90	1
115	118	1
22	23	2
50	50	2
31	32	1
113	129	2
95	96	1
8	16	1
79	88	1
83	128	1
11	60	1
78	129	1
58	69	1
79	113	1
17	22	1
114	133	1
76	124	1
94	96	1
0	65	1
75	77	1
3	7	1
49	50	1
93	110	1
81	114	1
