114	114	20
115	115	22
101	101	20
57	57	51
71	123	4
68	69	9
122	122	31
128	128	42
14	15	14
111	113	9
110	110	42
4	7	3
61	117	5
2	2	32
9	24	1
105	105	31
22	39	2
82	83	15
134	134	23
33	33	35
107	107	31
62	62	25
47	47	28
5	5	31
65	116	4
21	21	30
111	111	23
28	28	30
20	20	36
124	124	35
115	118	2
121	122	7
46	46	38
34	65	3
32	32	27
96	96	25
75	75	43
60	71	13
115	123	1
87	87	32
4	4	9
72	72	48
125	125	40
67	67	20
11	11	20
92	92	20
90	92	1
93	94	10
9	9	39
59	59	27
31	31	30
23	24	16
95	95	28
3	4	1
25	27	4
86	86	47
99	99	22
1	1	10
63	63	38
31	32	4
45	45	43
6	7	16
93	132	9
54	82	4
65	65	45
94	95	14
51	87	2
30	30	43
46	47	18
71	71	17
23	26	2
68	68	36
60	60	40
117	119	5
1	2	11
41	41	20
39	40	16
71	72	12
86	103	2
84	85	17
75	76	16
93	95	7
15	18	5
112	112	35
29	29	23
108	108	32
84	84	31
130	131	11
84	86	4
78	78	20
106	106	43
7	7	45
16	16	20
97	98	20
29	30	9
113	113	30
24	25	10
37	37	40
132	132	27
131	132	12
133	133	30
96	130	2
19	19	33
58	59	8
17	17	25
44	78	5
131	131	23
18	19	7
94	94	22
6	6	41
73	73	49
18	20	7
99	100	8
81	82	9
22	22	31
28	69	3
121	128	2
117	117	46
72	73	2
89	89	9
32	33	9
114	115	12
79	79	56
83	117	2
107	127	1
93	105	11
35	35	32
65	73	2
82	82	29
91	92	19
117	134	3
66	67	10
81	81	27
39	42	5
96	98	4
94	128	3
27	36	5
10	20	2
27	27	42
59	123	1
115	116	5
128	129	4
38	87	5
4	8	3
58	58	32
8	8	37
10	10	55
21	22	10
67	68	8
59	60	12
39	39	23
6	9	1
18	18	46
6	42	3
90	90	42
129	129	28
85	86	5
44	44	31
76	76	47
126	126	24
11	12	15
0	0	30
109	110	13
130	130	23
100	100	27
44	45	4
64	64	46
80	81	17
93	103	10
101	102	12
66	66	53
17	24	2
85	85	30
121	121	24
37	57	3
20	21	16
123	123	31
78	84	4
41	43	6
116	116	50
112	115	1
118	119	12
70	70	31
129	132	5
109	109	32
42	42	30
55	55	25
111	115	5
34	34	62
62	63	14
16	17	15
61	61	43
80	80	12
5	16	5
105	113	2
91	91	54
121	130	6
26	26	24
79	80	6
113	116	4
74	74	33
103	104	7
89	91	1
59	131	4
39	41	4
8	11	4
56	94	2
30	31	4
107	120	3
48	48	14
24	97	1
43	43	21
19	20	11
89	90	4
83	83	21
104	104	20
29	104	7
17	18	7
3	3	15
23	47	1
102	108	6
105	106	10
36	36	28
13	13	33
77	78	14
112	113	5
33	45	5
8	9	8
97	97	15
15	15	25
101	106	3
105	107	3
92	93	15
18	34	3
118	124	2
3	27	1
37	87	1
77	77	23
81	84	2
23	25	1
80	99	4
88	98	2
40	41	5
78	79	9
61	64	2
108	109	16
119	120	11
43	84	2
99	103	5
90	91	10
55	56	1
54	60	3
120	120	34
98	98	33
93	93	26
35	36	14
37	82	3
117	129	5
12	12	23
21	26	1
74	76	2
54	54	2
102	102	32
23	23	42
10	16	7
86	113	1
57	115	1
118	120	7
88	95	1
15	16	7
78	81	4
60	72	1
6	43	2
121	125	1
17	19	3
42	43	16
95	96	10
76	77	11
4	5	10
4	27	1
107	108	4
59	95	4
95	107	8
127	134	4
110	111	13
22	110	2
94	107	7
24	24	29
30	106	10
4	6	9
34	35	3
87	104	3
103	103	31
129	130	7
32	43	4
102	105	2
91	133	3
118	118	31
111	112	8
81	116	5
108	132	1
56	56	11
59	120	2
60	105	1
73	76	4
15	45	2
14	14	36
50	50	24
40	40	12
89	93	8
28	31	4
127	127	31
0	64	1
22	26	3
45	74	7
106	109	2
78	125	2
106	111	2
101	105	2
89	109	3
22	27	5
90	110	4
96	97	8
22	24	6
73	85	3
41	42	5
21	30	3
96	103	1
123	130	9
119	119	28
88	106	6
57	60	2
38	38	16
90	109	4
104	105	17
73	78	5
101	107	1
99	105	3
6	50	2
12	13	11
38	58	1
86	129	3
127	130	4
132	133	7
29	103	6
11	13	3
55	57	2
14	16	6
23	43	1
23	78	1
71	94	2
63	64	6
40	83	10
113	118	4
100	106	2
57	83	7
97	101	1
94	99	1
57	69	4
69	69	21
123	124	5
69	70	8
36	79	2
30	78	4
5	6	2
30	34	1
122	132	2
88	113	2
25	26	1
85	120	4
118	121	5
58	115	1
25	25	8
126	128	1
104	106	2
63	65	2
6	21	2
11	16	2
43	70	2
64	65	7
117	118	7
72	75	9
27	42	1
92	109	2
0	1	4
123	129	6
83	91	4
31	89	4
47	48	4
6	60	4
110	124	1
19	49	3
23	27	2
65	123	1
94	100	3
12	47	3
98	101	8
94	105	2
38	39	10
78	80	4
108	111	4
78	83	1
58	104	4
127	128	14
15	48	2
26	27	1
102	107	6
94	134	2
120	121	6
6	27	3
56	58	2
2	9	3
0	47	2
7	76	1
120	123	2
7	57	2
55	59	2
31	105	5
106	108	2
29	32	4
47	66	2
113	114	10
15	24	2
13	14	10
65	103	3
106	110	4
92	102	3
80	98	2
78	127	1
36	59	3
31	71	3
13	19	5
86	134	4
109	128	3
45	68	2
86	87	2
31	43	1
126	127	3
78	97	1
46	61	2
1	19	1
0	3	3
99	102	2
118	134	4
14	85	2
38	57	5
43	44	8
61	63	5
110	122	2
29	31	3
36	37	4
58	96	1
42	44	1
2	18	2
7	9	2
111	133	3
88	88	9
100	111	1
73	74	7
103	105	5
77	82	1
60	115	1
57	134	3
9	16	1
84	95	3
65	66	2
33	34	6
126	134	1
34	36	1
108	121	3
79	81	1
45	75	1
102	120	3
35	69	3
42	50	2
71	134	1
127	129	4
83	86	1
36	61	4
38	40	3
37	38	10
22	41	3
2	21	7
5	7	4
44	84	1
27	43	1
5	28	1
15	19	1
23	128	1
59	84	4
37	42	2
71	119	2
12	23	1
100	110	1
5	55	3
115	131	3
110	112	2
102	103	9
37	39	5
83	84	6
48	49	3
86	110	2
25	49	1
73	94	5
10	11	2
70	124	1
100	114	2
100	103	3
95	129	1
87	88	7
61	125	2
102	106	1
108	120	2
123	134	1
25	36	2
81	83	6
68	72	2
19	28	3
61	77	1
125	134	2
34	84	1
66	71	1
8	126	2
30	32	3
125	126	12
21	27	3
110	133	1
128	131	2
47	67	3
126	129	1
30	44	2
80	126	3
21	100	1
70	71	3
103	120	1
36	40	1
58	69	2
106	126	5
99	116	1
88	90	1
27	28	4
57	59	4
49	110	1
56	60	1
46	69	4
11	20	2
93	134	1
100	126	5
37	41	1
28	30	2
48	109	4
21	48	3
122	124	2
117	125	1
58	60	4
36	38	1
72	123	1
47	68	1
61	62	3
84	134	4
112	122	1
92	132	1
9	11	2
108	110	1
16	47	2
22	23	1
122	126	3
15	42	3
25	29	1
56	69	2
8	118	1
36	60	2
82	113	1
124	130	1
2	3	1
62	64	2
113	126	1
79	131	1
121	132	2
63	66	1
68	70	4
45	47	1
105	114	2
3	31	1
58	67	2
9	23	3
117	121	2
3	13	2
28	109	1
99	129	1
78	85	2
29	42	1
88	89	1
27	30	2
20	125	1
72	74	1
29	41	1
19	29	3
6	8	1
20	22	3
13	119	1
29	44	2
96	99	3
92	122	1
99	113	1
5	49	1
3	17	2
73	77	1
45	46	5
80	125	2
36	82	1
71	90	1
7	92	2
102	109	3
74	84	2
19	33	2
91	131	1
37	40	2
88	131	4
23	45	1
75	77	1
49	60	3
5	129	4
42	45	1
81	125	2
8	98	2
3	64	1
111	124	2
57	58	3
4	126	2
116	117	1
92	94	1
85	97	1
94	108	4
35	56	1
98	105	1
103	116	1
4	16	3
95	125	1
19	21	1
74	77	1
92	103	2
61	67	1
79	126	5
123	133	1
45	76	1
6	40	1
7	13	2
31	35	2
12	24	1
30	36	2
41	78	1
10	72	2
46	65	2
92	115	1
106	127	4
46	68	1
56	82	2
101	130	3
127	133	3
60	97	5
31	56	1
109	134	1
6	33	2
67	75	1
28	29	3
133	134	2
14	56	1
22	55	2
73	86	2
11	34	1
117	120	1
93	124	1
22	109	2
54	55	2
79	129	2
124	131	3
80	82	2
90	134	1
120	125	2
57	89	2
17	67	1
113	134	2
47	110	1
74	75	3
87	102	1
78	82	1
51	56	1
120	134	1
49	50	5
35	45	1
42	55	3
76	78	2
31	55	1
94	103	1
33	35	1
38	55	2
41	56	2
34	83	1
131	133	3
67	74	1
80	97	1
120	132	2
44	73	2
17	65	1
120	122	1
94	96	1
3	22	2
87	119	1
87	107	1
26	31	2
15	35	1
116	121	1
81	127	1
18	50	1
60	61	1
2	10	1
21	47	4
20	27	2
86	126	2
87	105	1
9	20	5
98	100	1
64	71	1
99	124	1
10	46	2
88	96	1
51	54	2
1	15	1
92	111	3
46	73	2
102	112	1
83	85	1
19	22	1
64	77	1
3	19	1
45	73	2
57	88	1
57	96	1
37	58	1
112	126	1
9	10	1
87	98	1
104	124	1
105	110	1
7	8	3
7	75	2
2	15	1
11	48	1
19	109	1
51	51	1
87	116	1
18	32	1
7	69	1
44	77	1
13	70	1
79	130	2
87	110	1
41	85	1
29	43	1
9	17	1
118	122	1
104	131	1
96	104	1
81	122	1
69	72	1
3	9	1
112	114	1
3	11	1
43	57	1
1	5	2
36	44	1
101	111	1
24	27	1
73	82	1
3	125	1
34	109	1
91	94	1
87	89	1
43	103	1
114	134	1
58	81	1
89	102	1
