61	61	5
85	85	11
54	54	13
4	4	11
1	1	6
71	71	17
64	64	9
72	72	5
55	55	18
4	56	2
51	52	3
79	79	4
69	69	13
28	29	1
88	88	10
53	53	12
51	64	1
50	50	12
11	11	4
24	24	11
46	75	1
81	81	9
75	76	3
0	0	10
80	80	6
2	2	7
30	30	10
76	77	4
77	78	4
16	16	2
14	14	7
49	49	14
27	27	14
50	52	5
59	59	9
23	23	11
19	19	14
28	28	4
69	71	3
60	60	9
48	48	5
59	62	1
77	77	3
25	27	5
72	74	5
87	87	11
26	27	6
51	51	6
77	80	6
3	3	10
6	13	1
86	87	6
9	9	4
12	13	5
64	82	1
48	50	3
5	73	1
0	1	3
47	72	4
20	20	12
85	86	5
31	31	9
67	67	14
13	13	6
68	68	12
5	13	3
22	50	2
73	75	1
57	58	5
78	78	11
50	51	6
4	28	3
15	15	6
24	25	5
25	26	8
75	75	4
77	82	3
84	84	7
74	74	11
16	18	3
83	83	6
47	48	2
64	77	1
22	22	4
14	22	1
86	86	4
53	56	2
64	65	3
56	65	4
59	61	11
22	32	1
46	46	5
26	26	4
62	81	1
29	29	7
48	56	2
7	27	2
6	6	8
73	74	5
82	83	1
63	63	6
20	21	6
48	49	4
12	14	1
17	33	1
65	65	7
12	12	3
57	57	7
25	28	2
7	7	7
76	76	5
2	50	1
82	82	2
5	5	8
6	7	1
10	10	3
66	66	11
73	73	12
58	61	3
70	70	8
68	89	2
58	58	12
4	67	3
64	83	1
64	66	1
61	63	1
15	16	1
11	12	4
84	85	2
55	76	1
67	68	3
62	62	2
10	19	1
53	54	2
21	21	9
6	24	2
34	35	1
15	24	1
17	73	2
53	58	3
23	24	1
54	55	6
52	52	9
8	8	3
78	79	5
67	74	3
56	56	3
8	9	2
12	64	1
59	60	4
74	75	2
34	34	1
23	47	1
50	58	1
55	62	2
17	17	2
16	32	1
75	77	3
29	67	2
19	23	2
9	19	1
61	62	2
88	89	1
17	18	1
47	47	2
18	27	1
66	67	1
89	90	1
30	52	2
54	66	3
23	27	2
85	87	1
3	4	5
22	25	2
56	57	1
68	88	1
89	89	3
57	75	1
25	25	5
72	73	4
22	23	1
27	28	2
15	18	3
66	83	1
7	8	1
21	22	1
57	69	2
29	30	1
16	23	1
63	78	1
10	11	1
0	88	1
5	20	1
8	28	1
6	12	2
9	17	1
56	76	1
87	89	1
65	66	1
