106	106	4
97	98	6
78	78	12
63	63	6
29	47	3
73	73	11
89	89	5
82	82	5
102	102	7
76	77	2
85	85	5
46	46	16
98	98	14
66	66	10
76	76	11
69	69	9
21	23	2
97	97	10
37	39	4
55	55	23
94	94	8
103	103	12
37	38	2
88	88	15
44	44	4
72	72	14
90	90	6
39	39	5
51	51	11
26	26	7
92	93	3
30	30	4
65	65	13
52	52	5
51	52	3
29	29	14
106	107	2
26	29	1
62	62	4
94	95	9
40	40	7
80	80	14
90	95	2
42	46	4
54	83	4
26	28	9
49	49	9
61	80	4
93	93	4
28	28	14
56	56	10
32	34	4
47	48	6
47	47	14
42	43	2
33	34	5
31	31	13
32	32	2
77	77	12
74	74	9
59	59	9
91	91	11
58	58	17
48	48	5
69	70	4
63	64	2
23	23	17
87	87	11
53	53	10
60	60	11
73	83	2
92	92	8
43	43	10
65	68	5
31	32	2
90	96	2
57	58	5
99	99	7
84	84	6
89	90	7
64	64	6
49	72	1
41	41	11
50	50	19
98	99	4
19	19	2
38	38	5
69	72	7
27	27	13
86	86	10
90	100	2
89	96	2
61	61	3
101	106	1
75	75	8
35	36	3
36	38	1
89	100	1
38	39	4
43	45	1
81	85	1
30	46	2
47	72	2
25	28	6
21	22	3
34	34	7
23	77	1
104	106	3
80	81	2
88	89	1
61	72	5
84	86	2
50	52	2
91	92	1
71	72	6
84	95	2
74	75	3
45	45	9
66	69	4
68	68	2
23	24	6
104	104	5
29	30	3
53	64	4
85	86	1
58	59	6
35	35	3
95	95	3
26	27	2
62	63	3
78	79	6
103	105	3
67	68	1
79	79	2
31	34	4
42	42	4
59	90	1
101	101	10
27	28	2
66	67	2
96	99	2
78	81	3
95	96	2
21	21	13
90	91	7
41	43	3
61	62	1
25	26	7
27	38	3
45	46	3
68	69	2
96	96	5
29	45	2
88	98	1
55	56	1
53	83	3
105	105	5
49	61	2
62	73	2
75	95	3
86	99	1
50	51	4
89	94	1
23	74	1
83	83	4
59	60	2
90	99	1
24	25	1
39	40	3
83	84	1
101	102	5
104	107	1
40	41	5
63	83	1
57	57	4
60	84	2
27	46	3
48	62	1
48	49	2
87	88	1
30	31	2
57	59	1
70	70	1
94	100	1
54	54	4
65	71	1
41	42	1
82	84	3
37	40	2
71	71	5
22	22	3
43	44	3
82	86	2
51	73	2
79	81	1
36	37	1
71	73	1
38	40	1
37	37	2
81	81	3
67	67	2
89	95	1
66	68	1
65	66	1
94	96	3
22	77	1
74	77	2
60	99	1
88	99	1
85	87	2
20	25	1
90	97	1
95	100	1
52	53	1
25	25	1
81	84	1
96	98	1
36	36	1
