89	90	6
100	140	2
103	142	2
3	7	3
10	11	4
158	158	4
14	15	3
51	51	12
31	31	5
94	94	6
126	126	3
25	25	4
29	30	3
87	87	7
118	121	4
150	150	9
122	122	4
96	96	8
26	26	11
18	18	6
107	111	1
46	46	10
95	95	3
51	52	4
43	43	4
56	141	6
90	91	1
30	34	1
152	154	4
7	7	4
102	103	1
128	128	15
99	99	12
100	101	4
78	79	11
125	126	3
81	82	2
94	131	5
107	107	6
32	32	5
13	14	2
1	1	13
16	16	8
35	35	2
21	49	4
10	10	5
77	77	5
23	23	2
17	18	9
107	118	3
13	13	6
141	141	7
130	130	7
9	9	3
70	70	10
90	90	8
18	19	3
81	89	6
2	5	4
157	157	7
111	111	6
7	8	5
145	157	4
82	82	9
107	116	2
105	105	1
79	79	2
20	20	6
36	38	1
30	158	1
115	116	2
9	63	6
158	159	2
21	21	11
47	49	2
49	49	13
110	110	6
93	95	1
77	103	5
93	133	4
24	24	6
91	91	14
84	84	4
57	70	1
140	140	8
123	124	4
53	54	2
114	115	2
125	125	5
148	149	4
155	155	5
61	157	5
21	22	3
33	33	3
107	108	2
43	149	3
19	19	6
17	17	11
113	115	3
45	46	3
97	98	3
132	132	3
127	128	4
22	23	3
33	34	1
106	115	1
43	146	1
137	137	6
83	83	10
124	124	5
97	129	2
20	21	3
50	51	1
29	151	3
65	65	6
147	147	7
70	71	4
10	19	2
129	129	4
133	133	4
69	69	1
106	106	4
73	73	4
11	13	4
95	109	3
35	43	5
100	100	4
25	26	5
66	66	9
16	23	2
50	141	2
30	65	1
1	2	4
29	131	1
76	129	1
41	72	4
116	116	5
55	55	3
108	111	1
30	30	4
121	121	1
80	80	8
123	123	7
119	120	2
4	5	2
156	156	6
110	111	2
148	148	3
136	136	4
8	8	6
114	114	4
46	47	1
135	135	3
78	78	5
116	117	2
52	136	2
92	93	2
23	30	5
68	68	10
44	44	3
33	39	2
119	119	1
90	125	6
18	20	1
113	114	1
97	97	2
11	12	1
118	118	4
52	53	3
110	132	2
90	124	2
14	14	2
86	86	2
78	82	1
131	131	7
91	92	10
11	11	1
21	47	5
50	56	1
27	27	2
155	156	4
22	22	5
88	89	1
138	138	3
86	87	1
138	139	3
98	98	3
145	147	3
103	103	6
48	48	2
101	101	2
108	112	3
145	148	1
28	28	4
52	54	2
150	158	4
11	30	3
76	77	5
64	64	2
102	102	7
35	37	3
2	2	5
146	146	1
77	79	2
117	119	1
12	12	7
119	146	4
108	108	3
131	138	3
15	15	3
103	108	2
130	131	2
65	66	3
24	25	2
140	141	1
76	83	2
115	117	3
33	40	1
24	30	2
104	104	2
40	40	1
29	29	6
89	89	2
16	94	1
93	93	6
98	132	1
56	56	2
87	88	2
115	115	2
67	69	2
133	137	2
44	47	3
36	36	3
82	111	1
30	39	1
6	6	2
104	111	3
19	86	1
98	140	2
55	85	1
81	87	1
123	127	2
109	109	1
149	151	1
127	127	6
75	76	2
117	122	7
38	38	1
139	140	2
107	120	3
45	154	2
141	142	3
137	138	1
134	134	1
71	71	7
72	73	1
45	153	1
66	158	1
84	141	1
107	112	3
87	95	1
108	120	3
50	85	1
106	107	1
92	96	1
42	149	1
83	84	1
71	148	1
43	110	1
77	78	4
92	92	4
19	41	1
112	113	2
15	17	2
150	156	2
19	21	4
44	45	2
5	10	2
50	50	1
30	31	1
104	105	2
124	125	1
81	81	4
75	138	1
120	120	1
80	81	1
63	63	4
40	41	2
125	127	1
81	83	1
104	122	1
75	75	1
117	118	2
8	25	2
41	41	2
157	159	1
88	88	1
115	122	2
78	131	1
153	153	1
106	147	1
131	133	1
15	31	1
46	67	1
82	83	1
91	137	1
12	30	1
21	39	1
39	39	1
54	54	1
