67	71	5
11	25	3
58	132	2
58	59	4
120	121	3
17	18	3
79	82	2
1	1	10
37	37	9
76	76	11
123	124	4
111	111	1
112	112	12
12	12	5
82	83	3
8	8	2
110	120	3
85	85	4
82	82	10
16	16	5
105	111	6
64	83	2
65	75	7
111	113	3
131	132	6
78	79	8
107	107	7
80	80	8
0	1	1
43	43	9
33	33	8
90	115	1
115	115	4
25	48	2
69	69	2
62	108	1
57	57	9
77	105	2
21	27	3
77	100	2
126	133	3
71	71	4
34	34	1
5	5	6
17	17	7
114	114	6
0	15	1
91	128	4
68	133	1
22	22	6
104	105	4
4	17	2
1	2	1
97	103	4
36	64	1
98	104	5
38	45	5
25	58	6
13	36	3
83	83	6
100	100	7
70	126	5
92	92	5
74	74	4
104	130	1
62	62	5
61	131	5
113	113	6
119	119	6
76	106	6
91	132	3
86	86	7
108	108	3
74	76	9
13	13	10
95	95	6
72	120	3
49	49	2
3	20	2
7	7	1
58	58	3
56	94	6
3	17	2
95	102	4
23	24	1
4	5	5
130	131	5
87	129	4
17	30	5
55	55	2
128	132	1
50	56	1
72	72	4
98	105	3
93	93	6
43	64	3
124	128	2
123	123	11
76	77	6
101	102	5
45	46	3
81	110	8
26	26	3
114	115	3
69	97	1
20	21	5
66	127	6
104	131	1
62	100	1
120	120	4
72	79	6
12	45	2
74	106	1
72	119	1
116	117	1
68	68	9
21	21	5
67	67	3
7	8	6
121	133	2
75	80	1
69	70	4
16	32	4
117	129	2
0	0	8
40	41	1
63	77	5
126	126	2
2	3	3
131	131	3
54	54	4
54	55	3
31	31	6
71	94	3
84	84	7
116	116	3
41	41	6
18	18	5
14	15	3
134	134	3
106	106	8
87	88	1
64	64	4
90	90	9
85	86	2
24	26	1
81	81	9
23	23	6
30	30	4
72	85	2
133	133	5
17	29	3
97	98	3
117	117	2
59	59	4
55	90	1
126	127	5
31	32	1
16	94	1
109	109	6
69	134	6
91	91	7
107	108	4
66	66	5
13	42	3
57	58	5
69	101	5
35	59	2
70	75	2
100	109	2
45	45	5
70	99	5
81	109	5
42	45	2
61	62	5
97	134	2
6	6	3
20	26	3
94	96	3
77	77	4
9	9	3
79	79	5
105	105	5
60	60	2
72	80	5
101	134	2
112	133	1
75	76	2
56	60	2
84	112	2
44	44	6
127	127	1
28	29	2
33	35	1
86	124	2
113	131	1
19	19	10
63	63	4
7	15	2
17	20	5
101	101	3
31	36	2
39	41	2
74	125	3
75	75	2
40	40	3
25	25	2
86	128	2
102	102	4
29	29	3
103	103	1
16	17	1
15	16	3
20	20	1
94	99	1
110	110	1
46	46	1
121	121	2
128	128	4
73	73	1
62	93	2
70	71	1
47	47	2
94	94	2
66	95	1
6	12	2
83	85	2
66	108	1
39	39	4
6	7	2
43	46	1
37	38	1
112	130	1
13	14	2
50	50	4
118	129	2
28	28	3
62	118	2
32	35	1
75	117	3
32	32	1
97	97	1
4	4	4
63	119	2
109	129	1
15	15	3
4	12	1
65	65	2
87	117	1
85	123	1
100	134	2
10	11	2
74	78	1
35	35	2
55	60	2
125	125	2
78	78	1
87	119	1
15	36	1
10	24	1
132	132	1
126	129	1
61	61	2
10	27	1
71	110	2
36	39	1
60	62	1
43	44	1
94	110	1
110	129	1
97	105	1
74	81	1
5	6	1
57	60	1
40	44	1
10	10	1
74	105	1
107	129	1
99	101	1
99	127	1
112	113	1
20	27	1
56	56	1
26	28	1
