31	31	6
188	188	9
125	127	8
62	62	15
24	25	3
14	14	5
50	50	5
146	147	2
97	97	7
220	225	5
61	61	8
30	60	2
29	29	6
227	228	3
194	194	7
197	199	3
234	234	3
187	187	3
167	167	5
166	166	4
138	138	3
76	188	3
29	30	3
203	203	1
164	164	4
111	111	4
103	107	2
158	160	3
112	112	1
199	225	3
215	216	5
70	70	6
30	31	4
149	151	3
222	222	11
26	26	7
10	219	2
135	165	7
141	142	3
103	103	1
143	163	3
85	122	2
109	109	2
148	148	6
68	68	11
1	1	16
152	153	1
147	166	8
106	107	1
12	12	9
18	19	7
179	180	9
69	69	7
67	67	1
239	239	7
189	190	6
218	223	3
180	181	2
108	108	7
209	209	2
54	61	2
18	18	17
35	58	2
141	141	2
54	54	8
183	183	5
44	44	6
143	145	1
96	96	6
76	78	1
193	195	2
57	57	4
25	25	9
192	193	3
136	235	2
104	104	2
213	213	13
197	197	12
200	200	1
177	177	6
162	162	4
144	144	8
56	56	8
28	28	13
67	68	6
178	178	6
211	211	13
58	58	1
63	64	7
114	114	9
117	178	7
37	38	4
150	157	1
85	85	13
8	222	3
189	195	2
98	98	8
125	125	9
180	180	4
119	119	9
36	36	8
232	232	13
15	15	3
208	208	13
31	33	4
220	220	4
7	7	6
2	3	1
65	65	13
149	149	4
172	172	4
173	204	4
193	193	5
37	37	7
149	150	4
184	196	2
131	156	6
210	212	1
223	223	6
59	60	1
65	68	6
43	43	6
29	77	6
118	118	7
159	159	15
170	170	4
235	235	4
122	122	3
160	165	3
143	144	6
229	229	1
136	144	1
27	27	9
159	182	3
106	106	13
130	130	4
71	71	4
120	122	2
59	63	4
227	227	4
181	181	7
160	160	9
156	157	2
145	145	8
36	66	3
201	201	10
24	24	7
117	180	3
19	19	9
84	108	2
155	156	2
162	163	4
205	205	4
134	135	1
86	121	2
127	127	3
135	136	3
200	201	4
189	189	3
70	75	4
5	5	4
161	161	5
174	207	5
124	126	2
216	216	1
30	66	5
179	179	5
73	73	6
52	52	4
0	5	1
74	75	10
53	153	1
47	48	4
153	164	9
116	117	2
206	206	7
152	152	8
192	192	5
193	212	2
42	43	1
14	15	5
77	77	4
30	30	11
20	20	6
81	83	1
186	187	3
139	140	2
39	39	11
195	195	6
55	56	7
28	89	1
53	161	2
23	23	1
175	175	5
62	63	5
95	95	3
148	164	1
72	75	3
99	153	3
225	225	5
99	99	2
146	146	4
221	223	1
53	53	4
63	72	3
123	126	4
187	188	2
34	56	1
199	218	3
113	113	2
101	101	7
129	131	4
167	168	3
131	148	2
20	39	1
105	115	2
51	52	6
43	44	11
74	74	6
91	91	2
13	223	2
137	137	5
232	235	7
42	42	2
160	161	1
203	204	1
107	107	4
98	100	1
85	127	3
86	86	5
17	24	2
190	191	3
81	120	3
80	84	3
228	230	3
224	224	1
225	227	1
220	222	2
228	228	5
201	202	3
38	38	2
100	155	7
85	128	4
77	90	2
132	133	3
140	183	4
217	217	11
214	216	2
9	9	6
196	196	3
24	64	1
154	154	2
72	72	3
45	120	3
110	128	1
190	190	4
240	240	4
67	69	4
6	12	1
171	171	5
133	135	2
121	121	11
103	105	2
80	82	6
134	134	4
83	84	2
17	18	4
12	23	1
85	106	1
230	230	6
141	208	3
202	202	7
160	162	1
48	61	1
69	70	1
233	233	3
184	185	4
139	139	1
55	55	11
75	76	2
112	113	1
66	67	4
190	197	4
161	162	3
220	231	4
20	64	1
81	81	10
66	77	2
169	169	5
59	83	5
153	153	15
64	64	7
191	191	8
207	207	3
168	235	4
106	149	1
185	185	2
235	236	3
32	73	2
241	241	3
33	33	2
11	11	4
185	187	1
84	85	2
10	10	4
56	118	3
87	88	1
31	60	3
151	151	1
158	158	2
142	142	3
165	166	6
81	82	2
44	95	3
15	214	3
137	138	1
159	160	2
34	77	4
132	132	1
182	182	6
21	23	4
153	154	3
173	173	4
204	206	6
54	55	2
184	187	1
102	128	2
226	229	5
89	89	2
84	88	5
9	10	4
21	21	4
206	207	4
122	220	5
2	2	2
45	45	6
169	170	2
76	76	2
79	79	1
219	219	4
52	183	1
211	212	3
140	142	3
100	156	6
154	164	3
32	36	4
211	213	2
103	143	1
20	21	1
151	153	4
3	19	4
40	40	5
28	32	1
32	37	2
2	6	1
0	4	4
45	49	2
106	157	3
32	32	5
76	102	2
206	227	1
128	128	3
51	171	3
163	163	4
116	116	1
13	15	2
68	189	3
214	214	10
157	157	1
196	197	1
80	152	2
17	17	6
117	117	6
60	60	4
220	221	2
198	226	1
21	22	4
136	165	3
41	41	1
48	49	1
199	199	1
48	48	3
75	75	8
233	236	3
228	234	1
81	154	2
174	174	4
135	135	2
59	59	5
163	165	1
87	123	3
55	149	2
70	191	1
105	105	2
193	197	3
3	106	2
28	61	2
63	73	1
28	29	1
4	13	2
56	149	3
60	120	1
142	143	2
120	120	3
32	33	2
41	214	3
159	161	1
1	9	1
68	69	2
23	36	6
8	8	2
189	194	1
168	168	3
0	0	2
121	149	1
128	220	1
35	36	1
5	6	4
66	76	1
163	164	1
200	214	2
165	165	2
2	8	2
49	50	1
208	209	2
133	134	1
72	73	1
29	74	2
210	210	2
49	102	1
80	81	3
33	34	2
159	166	2
144	164	1
198	198	1
123	124	1
112	128	2
115	115	2
30	32	1
74	100	1
136	136	3
207	208	4
224	227	1
100	100	3
58	59	1
138	141	1
14	16	1
123	123	2
41	213	2
114	116	1
203	206	3
85	150	2
109	127	1
128	129	2
47	47	4
151	152	1
117	119	1
80	88	2
130	133	4
4	124	2
26	27	1
13	14	1
178	180	2
41	42	1
216	225	1
211	214	1
216	218	1
85	119	3
0	86	1
221	221	2
46	46	1
15	16	1
201	207	1
126	126	1
52	54	1
63	63	1
211	215	1
74	99	1
14	230	3
166	167	1
214	229	2
66	66	2
28	64	1
204	207	1
80	108	2
58	83	1
89	125	1
202	208	1
194	196	4
42	174	1
237	237	1
212	212	1
11	18	1
218	218	1
2	7	2
193	194	2
3	3	3
161	163	3
215	229	2
54	69	1
193	223	3
192	223	2
83	128	2
69	75	1
45	47	1
48	173	1
170	240	2
197	213	1
197	198	1
11	233	1
147	147	1
40	41	1
137	139	1
133	133	1
16	22	1
150	150	2
140	140	1
158	159	1
19	21	1
53	159	1
230	231	1
102	102	1
125	126	1
27	96	1
11	25	1
199	208	1
224	225	1
97	118	1
173	174	1
12	16	1
22	36	1
232	233	1
70	72	1
8	9	1
56	151	1
150	151	1
124	124	1
210	211	1
219	228	1
209	214	1
