93	98	6
86	103	4
122	127	3
102	128	1
31	33	8
10	10	4
33	33	10
81	81	4
119	120	9
87	94	5
100	104	1
96	109	3
41	41	7
73	82	2
25	25	7
37	47	6
105	108	3
72	72	7
132	132	8
7	10	3
15	24	1
101	113	5
71	80	4
88	102	2
125	131	4
18	19	10
45	47	2
27	29	4
17	31	3
125	125	9
101	101	7
36	38	6
87	88	2
44	44	4
111	112	1
88	101	6
24	26	8
92	94	4
15	30	1
112	112	12
122	129	2
73	73	6
26	29	2
79	93	2
12	12	3
66	66	3
102	119	5
88	91	2
1	3	1
9	9	3
82	82	8
9	11	5
118	120	1
104	105	2
57	58	5
51	56	5
121	121	9
55	65	1
93	93	11
39	39	3
5	5	11
107	107	5
102	126	2
99	112	2
27	27	2
96	105	3
15	33	1
95	105	5
4	4	4
128	128	12
18	18	8
74	90	5
65	74	2
33	43	1
120	120	13
14	16	1
66	78	6
91	92	3
100	114	1
16	16	12
84	85	2
2	16	3
15	34	5
122	125	1
69	70	3
75	83	5
77	95	3
67	79	1
94	94	2
122	122	11
25	38	3
27	31	2
68	68	1
42	42	6
102	102	1
36	41	3
121	122	8
107	126	4
125	126	6
34	36	4
11	12	5
98	98	7
29	33	1
57	57	5
59	60	2
5	16	3
2	13	3
29	31	9
99	102	2
7	7	6
86	87	2
23	35	7
72	83	1
123	123	11
108	119	5
32	33	4
102	103	5
101	102	5
63	76	1
124	126	5
117	129	1
12	22	6
85	96	1
100	115	1
15	39	2
100	108	1
11	20	4
121	127	2
112	114	2
16	18	5
115	118	1
108	128	1
40	42	3
43	45	1
100	113	4
61	71	1
4	5	5
93	105	5
100	100	6
126	128	11
6	6	12
30	86	3
43	43	9
116	116	7
119	119	2
55	59	2
104	104	9
118	118	10
18	23	1
65	72	7
81	83	6
71	71	2
60	65	3
59	74	1
31	32	7
0	0	7
125	134	5
76	87	2
107	122	3
129	130	6
36	36	7
64	72	1
88	105	2
57	68	1
42	44	2
54	57	2
13	14	4
118	134	1
57	64	1
79	82	2
36	44	2
5	8	5
76	76	4
90	91	1
68	69	2
75	93	1
29	32	5
131	132	8
113	126	3
41	43	3
115	115	6
32	34	1
105	105	5
87	110	1
19	19	2
88	89	2
30	38	1
130	130	4
8	12	1
44	46	2
118	131	2
6	16	1
78	78	4
116	126	1
84	84	4
76	78	3
3	27	3
116	123	1
35	42	3
133	134	2
112	123	1
10	14	4
87	111	3
106	122	1
63	67	8
35	35	6
109	110	1
108	108	7
66	68	2
116	131	1
33	34	1
99	100	2
63	63	8
89	89	3
105	106	1
58	60	2
3	7	4
87	87	9
126	126	2
59	70	2
41	42	3
27	33	1
96	101	3
107	116	3
27	38	3
112	116	2
112	115	5
107	111	1
46	48	3
44	45	1
45	48	1
104	126	3
33	39	3
32	32	3
97	97	2
80	80	5
15	15	4
134	134	6
2	30	2
37	42	6
78	82	4
7	15	2
124	125	7
30	44	5
71	73	1
9	17	2
38	42	3
25	34	2
86	93	5
85	85	4
11	21	2
103	106	3
77	85	2
1	116	3
118	132	6
113	114	8
106	120	3
106	116	2
25	39	1
115	128	4
37	38	2
28	31	3
14	101	1
31	42	1
88	103	3
4	19	1
78	81	3
45	45	4
38	38	2
84	86	3
115	123	3
61	62	2
84	94	3
87	93	3
56	58	5
117	118	7
75	75	1
116	118	3
60	61	1
97	109	4
5	19	2
58	72	4
58	58	5
90	90	6
111	113	2
90	95	2
36	43	2
62	86	1
79	87	1
90	102	3
127	127	7
106	109	6
17	17	2
7	37	5
82	84	2
98	115	1
40	40	7
131	131	8
123	130	1
122	132	4
40	45	2
7	8	3
93	111	3
131	134	1
86	86	4
38	46	2
101	118	2
79	89	3
75	87	2
101	109	1
79	79	6
82	83	5
30	31	6
59	64	2
17	33	2
129	129	1
0	3	3
126	134	1
73	78	1
106	108	6
24	30	1
15	16	3
94	95	5
45	58	1
85	100	2
111	120	1
88	88	7
11	11	7
7	13	5
115	124	4
103	103	3
47	48	1
22	22	3
79	81	2
19	20	2
114	124	1
83	86	2
35	48	1
67	71	1
78	87	1
6	14	6
19	30	3
21	30	7
101	114	1
5	18	2
83	97	2
19	23	2
74	74	1
27	40	3
121	128	2
10	15	1
117	117	3
117	131	2
133	133	2
22	23	3
15	18	2
62	63	5
95	95	4
18	34	1
42	48	5
118	130	4
104	107	1
29	40	3
126	131	1
1	23	1
55	55	1
28	28	6
67	72	1
116	117	4
71	72	2
92	101	1
105	109	1
79	90	2
7	17	4
45	60	2
100	125	5
8	15	4
51	58	1
123	127	7
83	84	3
86	89	3
70	85	1
7	20	3
118	128	2
93	99	2
14	99	3
59	69	2
70	74	3
9	12	1
23	23	2
59	59	1
36	40	4
106	106	7
124	129	3
87	101	3
108	109	3
31	31	5
26	26	2
102	112	1
75	85	1
45	46	1
59	62	3
13	30	1
100	111	1
0	112	2
66	70	3
91	91	4
5	7	4
72	82	4
107	124	1
88	117	2
96	96	4
93	94	4
16	17	3
10	16	2
21	21	10
9	10	5
121	124	1
47	49	4
105	123	2
123	124	1
1	1	4
100	103	5
114	114	1
99	99	4
120	125	5
66	73	1
64	64	7
8	16	1
57	59	1
18	27	1
4	7	1
56	62	3
99	109	3
6	9	1
27	47	1
105	107	5
100	101	3
2	2	2
23	47	1
79	84	1
65	67	4
28	38	1
6	8	2
32	43	3
110	115	2
75	82	1
59	75	2
3	4	1
121	132	1
77	88	2
47	47	3
18	20	5
33	35	2
89	101	2
9	20	1
69	81	1
116	130	1
110	110	2
101	120	2
20	24	1
37	43	1
77	77	3
109	120	3
62	62	2
57	72	2
37	45	3
73	74	1
76	77	2
124	127	1
1	5	4
103	121	2
74	81	2
74	80	2
14	15	1
38	39	2
92	93	2
125	127	1
86	96	2
108	130	2
119	131	4
41	48	3
83	83	2
6	7	4
13	13	5
117	133	2
14	14	1
62	73	2
60	63	3
63	64	1
24	28	2
112	117	4
5	6	1
97	102	3
77	82	1
116	128	2
127	133	1
68	76	1
97	108	1
6	19	1
29	59	1
61	70	1
28	40	1
124	124	1
87	108	1
75	86	2
63	75	1
98	103	1
78	83	2
55	61	3
93	115	1
124	132	1
89	91	3
127	131	2
101	112	1
12	27	1
122	130	1
121	129	1
80	83	1
16	19	1
113	113	5
106	128	2
65	68	1
61	61	2
55	75	1
114	126	1
17	29	1
31	83	2
21	22	1
78	94	1
48	49	1
113	130	2
72	73	1
84	93	1
117	122	2
69	94	1
87	97	1
83	90	2
10	22	4
78	79	2
110	113	2
108	118	1
103	119	1
46	47	5
115	130	1
79	98	1
44	58	1
82	85	1
28	46	1
27	39	1
12	13	4
65	65	3
99	111	3
113	131	3
115	116	2
103	104	3
5	15	1
56	56	1
6	10	4
121	123	1
78	89	1
118	119	3
117	132	2
43	44	3
101	110	2
60	60	2
9	24	1
105	125	2
103	117	3
34	41	1
30	50	1
94	97	2
100	122	3
118	126	1
62	82	1
62	91	1
3	10	1
55	62	1
119	126	1
69	69	1
115	122	1
85	95	1
36	61	1
5	22	1
12	21	2
10	11	2
109	125	1
17	73	1
116	125	1
39	45	1
111	111	1
37	40	1
71	74	1
14	28	1
112	128	1
17	20	2
37	44	1
2	5	1
93	116	1
122	128	1
116	132	1
82	94	1
18	21	2
1	6	1
40	49	1
0	1	1
76	88	1
12	14	1
27	28	1
22	33	1
55	56	1
63	82	1
10	17	1
35	37	1
70	70	2
10	12	1
85	86	2
115	120	1
125	130	2
72	93	1
38	45	1
32	42	1
7	14	2
34	42	1
77	78	1
24	39	1
70	71	1
10	86	1
23	34	1
119	123	1
3	8	1
77	89	1
40	82	4
103	116	1
93	95	1
37	37	1
109	111	2
83	115	1
1	4	1
77	83	2
57	75	1
118	122	2
21	27	1
130	133	1
25	29	1
24	38	1
113	118	1
0	13	1
92	92	1
63	69	1
121	126	1
22	27	1
107	113	1
59	72	1
100	117	1
22	37	1
59	68	1
3	17	1
132	133	1
62	72	1
51	72	1
86	100	1
125	128	1
116	120	1
74	86	1
32	83	1
