30	31	2
116	116	6
25	25	14
125	141	3
83	84	4
23	23	5
64	64	2
128	128	2
50	50	4
108	108	6
121	121	1
68	68	3
113	114	1
76	117	6
118	150	1
42	43	1
77	77	3
116	152	1
80	80	4
82	122	3
96	127	1
21	21	1
87	101	1
95	125	1
19	33	3
33	35	1
78	78	8
101	101	1
112	112	3
146	146	6
10	10	3
113	113	9
35	35	3
143	143	1
43	43	3
12	14	3
34	67	3
96	96	6
111	111	2
35	67	3
141	141	7
20	32	1
129	129	2
83	83	5
5	5	1
63	86	1
124	124	5
36	36	2
94	94	6
24	24	1
25	27	3
136	149	2
23	25	2
32	32	2
49	72	1
120	120	5
45	45	1
16	16	2
100	100	2
127	128	4
28	28	9
71	71	5
53	54	1
82	82	4
46	46	4
49	49	6
49	56	2
144	154	2
62	79	2
117	124	4
24	25	5
4	4	6
20	33	1
13	13	2
107	137	1
109	109	1
129	153	2
18	19	2
54	54	3
11	21	2
20	20	3
141	142	1
29	29	2
31	32	2
6	6	3
137	137	7
117	149	2
150	151	2
145	154	2
123	132	2
87	87	2
122	122	2
137	145	2
135	135	2
17	17	2
77	115	1
39	39	4
110	110	5
95	95	8
84	84	2
75	76	3
55	105	1
11	12	1
134	152	5
39	145	1
79	79	2
137	151	2
10	22	2
39	143	3
79	86	1
14	20	1
117	117	2
96	99	1
52	55	1
14	15	1
42	68	1
127	127	2
22	22	2
70	70	4
129	130	2
123	124	1
119	119	4
69	74	2
40	40	3
53	53	6
145	151	2
23	24	1
15	23	4
69	69	2
39	40	1
111	121	1
76	78	2
68	79	1
3	6	3
79	117	2
114	114	1
147	147	2
98	98	3
136	146	1
86	102	1
57	57	4
106	146	2
81	82	2
154	154	4
82	105	1
8	9	4
147	150	2
145	145	3
151	151	1
73	73	2
113	126	1
76	77	1
88	88	1
73	75	1
20	31	1
67	68	1
107	108	2
21	32	1
132	133	1
105	105	4
86	87	1
10	15	2
134	134	1
42	44	1
27	32	1
36	145	1
76	76	2
16	20	2
107	147	3
111	128	1
26	26	1
41	68	1
19	19	3
93	122	1
63	66	1
102	103	3
107	146	2
11	11	1
38	38	1
73	74	2
49	53	1
56	56	2
43	114	1
90	90	1
153	153	1
62	63	1
113	154	1
43	70	1
20	30	1
33	34	2
81	102	2
93	93	1
63	75	1
50	64	1
14	21	1
152	152	2
107	107	1
67	93	1
