48	60	6
23	23	13
82	82	5
83	84	2
93	93	7
85	85	15
58	60	5
1	1	5
4	5	3
5	20	2
26	26	9
69	69	10
72	72	9
74	75	3
7	7	2
104	105	6
21	61	4
114	114	8
48	48	4
96	96	7
41	41	4
103	103	7
45	55	3
55	60	2
51	51	2
112	121	6
109	130	3
40	40	3
58	59	3
5	5	5
101	109	3
71	72	3
9	9	2
105	105	8
88	90	3
80	80	4
77	115	1
14	14	8
0	0	4
91	91	15
18	19	7
111	111	4
70	72	3
107	110	2
87	99	2
21	41	2
121	121	9
98	98	6
24	24	12
42	42	9
16	16	3
18	40	8
81	120	2
86	86	3
127	128	4
17	17	10
27	27	3
2	2	4
99	99	14
74	74	5
106	110	2
81	101	5
112	112	8
88	88	3
46	46	5
71	79	3
124	133	1
131	131	2
3	52	3
115	116	8
6	54	1
132	132	5
49	49	5
44	44	6
113	113	7
15	15	4
47	47	7
92	92	1
85	104	3
41	45	2
66	66	4
60	61	4
32	32	5
114	116	1
57	57	8
4	4	5
63	63	5
116	116	2
108	112	1
70	78	4
63	65	2
97	97	2
115	115	11
102	102	8
68	68	12
20	20	3
21	21	6
7	15	3
76	77	1
3	3	5
52	52	2
8	56	2
79	80	2
87	87	4
29	29	8
18	20	3
5	6	1
29	31	2
133	133	1
64	64	3
34	39	1
90	91	4
42	44	3
124	125	1
78	78	4
66	69	2
118	118	8
44	45	3
130	133	2
87	119	1
100	100	6
109	126	3
76	76	4
127	129	1
129	129	1
71	71	2
119	119	4
48	58	4
12	12	6
4	21	1
100	101	7
88	89	1
91	93	5
41	42	2
107	109	4
110	110	3
83	83	3
44	56	1
54	54	4
22	24	2
95	95	3
108	108	1
0	1	1
28	28	2
42	43	4
50	50	1
104	104	1
87	97	5
74	86	3
39	40	4
73	73	4
81	81	7
55	55	1
122	123	3
90	90	6
117	117	5
77	77	2
19	19	2
19	33	3
126	127	1
107	107	4
94	96	1
60	67	1
24	26	2
6	6	4
125	132	1
56	56	3
91	92	4
94	94	3
1	54	3
39	39	1
89	89	2
106	106	1
87	88	5
127	127	1
124	124	1
70	71	1
38	61	1
67	67	4
31	32	1
93	94	1
89	98	1
83	85	1
111	122	2
22	23	1
82	90	2
10	10	3
73	74	3
61	61	6
6	51	1
122	122	2
113	114	3
28	29	1
65	66	2
13	16	1
69	71	1
53	53	3
97	98	3
88	98	2
79	79	5
131	132	2
22	26	2
84	104	1
57	69	1
123	124	2
75	75	2
120	120	1
101	101	1
114	115	1
38	38	1
128	129	3
92	93	2
33	33	2
112	114	1
23	37	1
61	66	1
109	109	1
63	64	4
1	51	1
73	87	1
59	59	1
58	61	2
128	128	1
84	84	1
8	8	1
114	127	1
82	93	1
9	11	1
18	18	2
82	83	1
46	59	1
115	129	1
10	48	1
13	13	1
82	94	1
85	100	1
4	61	1
29	34	1
84	103	1
84	102	1
31	31	1
43	54	1
14	16	1
67	68	1
45	45	1
4	66	1
4	62	1
89	90	1
89	93	1
88	119	1
23	38	1
95	113	1
5	65	1
65	65	1
43	43	1
