132	133	7
94	112	4
13	13	7
43	47	11
118	118	12
141	141	7
55	55	3
47	75	2
144	147	6
54	63	2
120	121	3
113	113	10
159	159	5
84	85	5
103	104	3
148	148	5
102	125	1
40	157	2
160	160	5
177	177	15
4	5	2
173	173	3
2	2	6
122	122	5
34	54	1
66	70	4
57	57	7
65	66	7
14	14	10
89	90	2
146	148	5
82	82	15
123	123	12
23	31	2
188	189	6
21	45	3
167	168	9
21	53	3
46	47	8
183	183	22
110	110	11
76	118	2
179	181	2
78	98	2
22	43	3
138	138	7
46	46	4
48	78	3
142	188	4
30	31	10
63	93	2
71	108	4
12	12	5
108	109	5
77	106	1
1	2	4
43	68	2
62	62	6
97	98	3
111	111	11
23	23	12
157	157	5
41	42	11
113	148	3
7	45	4
158	158	8
136	136	8
183	186	2
11	11	7
25	41	3
106	158	2
155	155	3
110	111	1
151	152	5
27	53	3
39	39	3
97	100	4
101	101	14
8	72	2
54	56	2
123	185	2
25	172	7
41	181	2
140	140	3
24	24	13
67	68	3
115	115	2
116	155	4
188	188	5
159	160	1
164	170	1
59	59	4
97	97	6
69	72	5
127	127	2
89	89	8
114	114	5
83	174	4
53	54	8
167	167	7
20	20	9
7	20	1
102	103	3
164	168	1
106	106	10
95	95	9
32	32	3
113	176	4
99	125	2
181	189	5
46	74	4
47	56	1
161	162	1
187	190	1
34	34	1
115	180	2
58	92	6
31	31	4
40	40	11
48	84	3
102	104	4
109	109	4
127	128	5
20	43	4
137	137	3
161	161	3
152	152	12
184	184	2
22	37	5
5	6	2
143	143	5
83	83	19
87	88	1
98	100	2
131	135	2
29	29	12
128	128	1
180	180	10
133	133	12
147	149	8
93	114	6
116	117	1
2	40	5
176	177	4
135	136	1
165	171	4
0	0	4
167	173	3
158	160	2
180	187	2
129	129	6
92	94	1
21	21	6
79	80	1
103	103	8
103	107	4
23	24	4
8	8	4
18	22	3
187	188	1
182	183	1
162	162	5
157	159	1
153	153	1
37	44	3
43	44	3
84	126	4
101	104	4
166	182	3
39	40	2
48	76	2
90	90	5
98	98	1
172	174	6
25	28	7
94	117	1
114	119	1
5	44	1
28	128	4
163	164	4
5	24	2
19	20	4
126	126	4
133	135	5
76	77	7
120	120	7
123	124	4
94	102	3
168	168	3
131	137	6
149	149	7
117	117	3
142	147	1
179	180	1
144	144	4
112	112	7
145	186	2
170	170	1
180	181	2
132	132	6
86	86	6
154	155	1
20	38	4
122	123	5
129	130	1
85	85	3
169	169	12
26	30	3
71	71	8
117	178	2
45	156	3
96	177	5
71	102	1
5	5	6
170	172	1
94	94	8
122	142	3
139	140	4
108	117	3
147	158	1
57	77	1
142	142	10
118	121	2
99	100	2
128	129	1
37	37	2
73	73	2
107	107	6
11	12	4
2	174	3
187	187	4
77	77	2
54	61	3
21	22	6
143	175	5
38	38	1
119	119	4
11	53	2
14	47	3
6	7	4
125	125	9
0	73	3
74	78	3
189	190	7
24	25	2
145	148	2
37	140	4
31	42	1
103	105	1
165	166	3
91	94	1
174	174	8
160	177	2
61	61	1
179	188	1
80	98	3
156	158	1
105	118	2
85	125	1
94	104	2
1	3	1
108	118	1
85	86	5
53	53	8
6	6	7
48	81	3
15	86	2
156	174	6
76	119	3
109	113	11
55	87	2
54	87	4
13	18	4
125	126	7
31	34	4
186	186	7
115	117	1
15	88	1
171	172	3
165	165	5
171	171	2
78	80	2
43	43	1
124	124	4
33	44	2
76	76	6
106	107	5
99	99	7
58	78	1
13	14	2
115	121	3
38	129	2
130	130	6
55	65	2
175	176	1
151	184	4
164	164	6
46	72	1
42	73	1
40	138	3
131	131	3
105	105	3
101	103	5
12	23	3
91	91	4
98	164	1
82	116	3
56	86	1
45	155	1
22	22	8
16	81	2
190	190	4
120	156	1
116	119	1
16	41	5
10	14	1
140	141	2
83	102	2
78	78	5
2	164	1
19	38	2
184	185	4
13	17	4
5	121	3
81	82	2
76	181	3
94	95	3
81	121	1
185	185	5
116	121	2
161	163	1
119	179	3
175	175	9
61	64	3
72	100	2
172	172	1
32	33	2
89	100	3
55	63	2
181	181	5
71	155	2
109	110	2
163	163	2
81	81	4
8	129	3
87	87	2
149	158	2
54	62	1
124	125	2
11	49	3
179	179	5
41	41	4
156	156	5
15	74	1
97	117	3
146	146	5
7	83	2
107	109	3
3	4	2
88	90	1
151	151	7
126	127	1
27	44	6
176	178	2
40	132	1
146	147	2
16	83	2
16	16	1
33	53	3
2	106	2
10	12	2
106	184	1
54	57	1
176	176	1
24	27	4
177	178	2
7	7	4
77	79	2
24	173	1
27	27	3
34	36	2
97	152	2
166	166	6
44	44	4
96	98	1
70	70	1
88	88	4
10	10	7
20	42	1
114	141	1
28	31	2
164	165	3
44	53	2
142	190	1
57	76	1
15	45	3
34	37	3
90	91	2
101	102	1
65	65	2
35	37	1
66	66	2
164	175	1
160	166	6
137	138	2
97	127	3
148	158	2
95	108	2
61	62	5
1	1	5
56	58	3
67	73	1
52	117	1
47	156	2
189	189	4
95	106	2
96	127	1
13	55	2
55	71	1
100	104	1
186	187	1
147	147	4
28	35	2
12	13	2
149	150	1
47	47	2
42	154	1
28	28	1
18	57	2
11	22	1
123	128	2
131	133	1
107	113	3
7	124	1
45	45	3
104	109	2
24	45	1
69	111	1
108	108	4
26	32	1
88	105	1
145	145	4
25	168	1
131	132	3
33	36	2
42	128	1
165	173	2
38	46	2
98	175	2
21	26	2
110	180	1
85	87	1
160	162	1
2	122	1
42	42	1
48	48	3
123	152	1
42	47	1
68	72	4
148	150	1
64	65	1
60	61	2
80	174	3
103	124	1
163	177	1
182	182	1
2	25	2
3	3	3
83	120	1
45	46	2
27	31	1
26	26	3
20	55	2
25	25	2
168	169	1
18	18	2
72	77	2
112	121	1
147	148	1
68	68	1
30	33	1
136	138	1
169	170	2
62	68	1
100	100	1
39	44	1
105	152	3
91	111	1
63	63	2
4	46	1
40	41	3
102	102	2
19	19	2
26	29	1
32	37	2
72	72	2
116	120	1
2	165	2
52	90	1
77	114	1
54	54	1
119	181	3
5	174	2
18	137	1
75	116	1
113	149	1
158	182	1
42	124	1
15	129	3
5	7	2
100	152	1
42	83	1
104	104	4
56	56	2
47	73	2
55	104	4
75	79	1
78	81	1
25	39	1
1	169	1
18	43	1
8	21	1
175	177	2
114	120	2
30	42	1
10	13	1
54	68	1
56	71	1
27	155	2
110	115	1
7	46	1
95	107	1
79	82	1
145	158	1
71	176	1
178	178	3
108	166	3
60	60	1
93	93	2
119	156	1
154	154	3
80	80	1
54	55	2
114	145	1
35	35	1
93	94	1
71	96	2
97	124	1
58	80	1
31	32	1
28	172	1
9	43	1
167	183	1
24	26	1
185	186	1
160	164	1
159	174	1
8	128	1
87	129	1
58	68	2
148	149	1
3	46	1
32	36	2
76	176	1
90	118	1
75	80	1
70	98	1
105	114	1
145	147	1
110	117	2
114	186	1
155	156	1
67	67	1
107	110	1
151	185	1
2	3	1
121	121	2
178	180	1
134	134	1
108	110	1
90	113	1
48	71	1
