126	126	8
110	110	21
118	118	25
8	8	10
88	88	17
17	17	14
108	109	3
98	101	2
40	40	16
67	69	4
31	31	19
81	81	10
49	49	14
122	122	16
3	3	7
2	2	25
73	83	5
33	34	14
13	13	27
116	116	8
62	66	3
52	52	13
59	59	5
42	68	6
78	79	3
123	123	14
131	131	15
109	110	8
48	95	9
83	83	15
26	26	22
109	113	3
108	131	2
12	16	7
36	59	2
112	112	22
23	23	25
11	11	9
70	70	13
124	124	17
34	55	4
121	122	1
103	106	1
63	63	9
103	103	5
22	22	8
103	104	6
24	24	25
10	11	4
82	83	3
129	135	3
142	142	7
0	35	2
35	36	13
139	139	8
74	75	10
125	127	3
73	74	8
12	12	8
41	41	8
77	77	11
93	94	7
134	134	15
62	62	13
89	134	2
14	99	7
78	78	10
66	72	4
61	62	3
13	32	3
29	29	6
19	20	13
69	69	20
136	136	9
133	142	1
62	63	6
40	41	3
51	52	11
1	19	2
55	55	10
66	66	7
106	108	3
1	3	2
65	66	13
9	9	7
29	30	5
59	61	3
120	122	2
33	55	1
58	105	1
134	138	7
13	14	8
39	61	2
95	136	3
23	30	5
86	137	5
48	48	9
120	126	3
137	138	8
111	130	1
107	107	8
70	86	2
6	8	2
135	137	5
69	107	3
74	74	4
19	22	1
58	58	10
121	121	19
60	65	9
90	90	7
109	109	12
16	19	3
38	38	9
0	0	4
141	141	17
1	29	4
122	123	4
25	25	5
53	53	12
92	92	15
86	86	9
142	143	5
14	14	16
97	103	2
61	61	3
67	68	6
103	117	3
81	136	1
128	129	9
28	54	3
111	112	4
64	64	18
101	101	10
97	98	10
105	105	21
120	121	10
6	6	9
36	38	5
104	104	17
15	101	6
3	4	4
70	72	4
89	90	7
75	76	2
102	103	5
88	136	5
132	132	8
6	9	2
36	37	9
36	41	2
19	36	3
95	97	1
113	115	5
74	86	1
84	87	5
138	138	10
74	76	11
5	11	2
82	82	4
80	81	8
79	83	2
87	119	3
48	49	18
130	130	13
100	100	6
21	21	11
60	61	10
58	59	23
135	135	19
52	53	4
40	66	6
75	78	2
12	15	4
113	113	10
112	114	4
67	108	4
111	111	11
89	89	15
116	117	4
17	18	6
132	138	3
87	88	6
15	15	9
73	73	12
12	13	5
4	36	7
119	119	12
81	82	7
137	137	7
5	5	9
143	143	7
48	98	1
101	102	5
133	133	23
4	4	4
56	56	19
140	141	3
114	114	6
35	35	12
120	120	4
106	106	4
27	28	11
18	35	2
119	135	5
39	59	1
34	34	12
36	36	13
59	60	10
125	125	7
61	97	2
71	71	8
92	93	7
55	56	11
91	91	12
88	90	2
66	67	9
84	86	12
93	93	3
127	127	6
20	51	1
145	145	3
18	18	15
32	34	6
42	42	10
129	129	5
10	10	15
27	27	6
92	96	2
50	51	3
1	2	8
71	135	2
12	14	3
103	105	3
95	95	14
96	96	13
26	27	6
95	108	2
64	65	5
52	55	3
99	99	7
76	77	6
124	125	10
85	109	2
85	85	15
40	43	2
9	98	2
90	94	2
145	146	9
49	53	1
53	55	8
135	136	4
50	96	2
9	10	6
110	113	2
41	43	3
133	137	5
90	91	6
9	94	1
32	38	3
39	39	12
72	72	8
104	107	2
50	50	13
100	101	10
67	109	3
87	137	5
122	126	1
65	65	11
140	140	12
96	104	5
135	138	2
66	94	4
47	50	6
31	32	3
132	140	3
79	130	3
118	129	1
80	90	1
19	19	11
68	68	6
125	129	5
21	24	3
80	80	13
65	93	6
132	134	7
96	97	3
136	141	2
125	128	1
130	139	2
68	72	6
128	130	9
48	106	2
55	59	3
34	40	1
51	51	11
86	91	2
118	119	5
74	92	4
23	26	3
20	20	6
67	67	5
58	72	3
14	15	4
94	94	4
106	107	6
9	29	7
134	136	4
36	40	2
18	19	8
38	124	1
14	97	1
118	127	3
114	117	2
41	107	3
131	133	2
57	58	2
96	103	1
94	96	7
129	131	2
64	75	1
115	115	3
139	140	3
84	85	5
136	137	5
98	98	4
43	43	7
2	35	4
23	25	3
21	26	2
75	77	5
57	57	7
79	140	2
12	26	3
42	43	5
23	24	5
87	87	9
25	28	1
141	144	3
135	140	2
110	111	9
102	102	5
1	23	2
0	1	2
126	127	4
114	115	4
4	31	1
60	60	6
93	103	2
8	48	2
10	98	8
75	80	1
64	94	2
75	121	4
14	51	2
32	32	11
0	11	1
101	104	5
1	1	2
35	43	2
91	92	2
56	57	6
38	63	2
69	70	4
33	33	4
97	97	6
66	106	1
8	10	6
47	51	5
1	21	2
6	31	2
3	24	7
60	98	4
95	96	5
134	135	7
3	35	5
130	135	1
141	143	7
1	37	3
98	103	2
76	78	4
85	86	2
68	69	1
119	134	1
91	95	6
54	98	1
91	129	1
22	36	2
15	16	2
119	138	1
97	104	2
54	97	6
75	79	3
104	114	5
56	60	1
80	91	5
5	6	4
77	79	4
38	39	6
68	71	1
112	113	4
37	37	10
17	100	2
118	130	2
2	19	3
20	21	11
68	85	1
48	53	1
47	47	4
74	117	2
39	65	3
41	108	1
39	40	4
133	135	3
16	17	6
120	136	2
129	133	3
125	130	3
61	64	6
84	84	5
16	16	3
83	119	3
107	115	2
15	31	1
50	52	2
48	60	2
141	142	2
11	29	3
71	87	1
66	93	8
74	80	2
22	27	3
81	91	1
42	48	3
29	41	4
49	50	1
104	105	2
83	84	4
0	12	4
119	128	1
118	128	3
23	32	4
41	68	1
6	25	2
26	49	4
86	135	2
95	125	2
101	120	2
110	132	1
99	100	3
83	118	5
87	90	1
77	125	1
98	99	7
108	108	3
126	131	4
10	29	1
83	86	3
68	86	1
89	120	3
118	135	2
25	27	2
59	72	4
100	102	3
79	79	1
43	51	2
99	101	1
88	89	5
127	132	1
117	117	7
94	95	1
1	5	1
131	132	1
90	92	2
59	97	1
51	53	1
112	115	2
46	48	1
132	141	2
79	80	3
28	33	1
28	28	6
51	96	2
72	117	2
78	120	1
54	59	3
6	23	1
107	109	1
23	31	2
136	140	4
63	95	4
76	76	5
144	144	2
8	29	4
30	30	4
74	91	3
58	61	2
129	130	2
0	29	2
22	41	2
64	67	3
103	110	1
2	3	4
56	58	2
68	103	1
138	140	5
38	55	2
57	59	4
4	13	1
88	93	1
77	81	3
78	121	1
67	106	1
47	49	1
7	17	1
130	131	6
42	62	1
71	94	7
0	3	2
15	99	2
86	87	2
66	69	1
76	79	1
61	65	3
100	104	2
128	134	1
127	128	1
26	41	1
87	91	3
113	114	3
25	47	2
16	100	1
85	108	3
109	142	1
41	42	1
77	78	5
51	106	3
107	110	1
33	36	2
19	99	1
110	115	3
31	51	2
85	107	3
61	98	2
54	54	2
132	144	1
1	20	4
48	52	1
39	66	1
3	6	1
0	2	1
128	128	1
8	9	5
128	139	1
107	108	2
132	133	2
87	112	3
62	97	3
50	53	1
80	124	1
64	76	2
110	130	1
30	124	1
30	31	2
25	26	2
80	82	1
21	36	1
72	73	3
87	136	1
131	143	3
5	33	1
4	32	1
74	79	1
34	35	1
74	78	1
76	115	1
42	58	1
123	131	1
8	11	2
64	108	3
119	132	1
123	126	1
42	47	2
0	23	1
62	93	1
7	10	2
24	25	2
137	139	2
71	72	2
75	75	3
54	55	1
127	131	1
92	106	1
88	133	1
52	56	2
80	126	1
133	134	1
38	64	1
32	33	2
4	5	3
76	91	2
22	23	1
128	136	1
2	21	1
115	116	2
40	100	2
37	38	2
3	5	1
23	27	1
78	81	1
41	51	1
112	118	1
93	95	2
64	123	1
15	17	1
131	141	1
71	118	1
88	120	1
94	98	1
85	118	1
51	56	1
133	140	1
67	107	1
68	70	1
116	118	1
69	119	1
136	138	1
80	92	1
109	127	1
36	55	2
67	84	1
6	30	1
30	53	1
64	66	1
