24	24	5
89	91	4
61	62	2
38	64	3
40	40	2
106	106	3
110	110	3
76	77	3
59	67	7
96	96	11
33	43	3
71	72	9
58	58	5
24	25	2
37	37	10
67	67	5
95	96	4
39	39	15
87	87	2
22	22	14
83	83	12
26	26	4
80	81	9
54	57	2
76	76	11
21	23	3
32	47	2
105	106	5
75	75	11
66	66	19
51	52	5
59	60	5
100	100	3
45	45	7
20	20	6
39	40	3
38	38	4
34	34	8
112	115	1
53	53	11
71	71	6
81	82	7
55	55	4
47	47	11
35	35	9
97	97	5
93	93	11
44	45	2
101	110	5
91	91	1
73	74	3
85	85	6
49	49	6
71	74	4
84	84	9
83	84	1
27	27	4
82	83	5
32	32	1
36	74	2
31	32	4
41	73	8
43	43	8
44	44	1
74	75	4
52	52	5
87	88	5
102	102	8
77	77	5
46	46	4
21	21	6
30	30	10
59	59	11
33	33	7
53	57	2
86	86	2
62	62	6
86	98	1
58	68	2
103	103	3
92	95	1
72	72	6
80	80	6
79	79	4
89	90	2
103	104	7
101	102	1
54	55	4
21	62	3
37	64	2
23	23	4
59	78	1
28	28	6
41	41	5
98	98	6
50	50	10
54	54	7
36	67	1
89	89	3
20	62	2
95	95	9
93	107	4
111	112	3
61	61	6
65	65	7
60	61	4
30	31	4
68	68	3
31	31	5
37	38	2
99	99	5
25	27	2
96	101	2
92	93	2
108	108	5
51	51	3
94	94	10
23	27	1
64	64	4
107	107	10
113	113	6
95	103	1
109	109	7
92	94	1
68	69	1
112	112	5
26	27	3
21	36	4
29	29	5
48	48	1
24	40	3
74	74	8
91	92	2
109	111	2
27	48	3
35	52	1
37	72	3
71	73	5
99	101	2
99	100	2
105	107	3
97	98	7
113	114	2
69	69	2
111	111	8
25	25	7
79	80	1
29	30	1
31	43	1
78	78	3
49	50	5
66	67	3
90	91	3
56	56	2
101	101	4
36	36	2
31	44	2
42	42	2
63	63	2
96	100	1
33	41	1
72	73	2
21	71	6
73	73	4
79	82	4
28	30	1
39	41	1
70	70	3
97	108	2
96	97	2
105	105	2
97	109	2
43	44	2
97	107	5
63	66	3
23	24	1
40	41	1
22	23	2
48	49	1
101	108	1
102	103	1
108	110	2
104	105	2
98	99	1
52	53	4
45	49	3
94	105	1
29	47	3
69	78	4
65	66	1
49	51	1
63	65	1
93	97	1
35	36	2
55	80	2
38	39	1
98	108	1
32	33	1
20	21	1
29	48	1
108	109	1
42	74	1
25	26	1
93	94	2
90	90	3
92	92	1
60	67	1
66	68	1
