73	73	5
108	135	2
89	102	1
78	78	4
52	75	2
76	76	4
27	28	2
28	30	1
37	37	3
43	110	2
61	61	10
15	15	4
126	126	4
102	103	3
90	90	2
108	108	1
4	7	10
10	10	4
103	103	3
43	43	9
115	115	6
108	110	1
56	57	4
117	118	2
36	36	7
17	25	3
78	113	1
65	66	2
58	59	4
9	13	1
6	23	1
67	67	5
69	69	2
104	104	5
18	18	9
23	23	3
55	55	9
89	91	4
88	88	7
116	116	7
112	113	1
3	109	2
60	124	1
42	76	2
92	123	2
120	120	3
134	134	7
97	97	3
110	110	1
27	63	2
131	131	6
98	98	8
23	72	4
52	53	4
101	101	3
58	76	2
77	78	1
1	1	2
29	29	5
62	85	1
0	14	1
54	54	2
13	35	1
30	30	4
44	47	5
61	131	2
60	61	2
92	92	3
14	63	1
81	107	1
15	49	3
7	7	6
87	128	2
57	82	1
53	53	4
89	90	2
64	65	2
3	4	2
14	15	2
7	13	2
102	102	7
76	126	3
82	98	4
34	34	13
77	77	3
83	83	3
28	29	1
53	69	3
120	122	1
4	4	2
47	47	2
62	62	2
62	114	1
97	98	2
75	123	1
4	9	2
27	66	4
70	102	1
74	74	4
123	124	1
19	68	1
83	84	1
30	38	1
76	119	3
96	96	1
132	132	3
33	33	6
125	134	1
57	107	6
121	121	3
43	76	2
35	35	1
54	56	1
54	73	3
1	43	2
99	99	6
68	68	3
21	21	1
23	53	2
124	124	2
18	21	1
127	127	2
43	109	2
96	97	1
53	65	4
77	100	1
115	116	1
75	75	1
5	33	3
42	47	3
55	60	1
127	128	1
11	12	3
63	63	3
84	84	3
82	112	2
62	63	2
85	85	3
131	133	4
22	135	1
118	118	3
65	65	2
30	34	4
91	91	5
123	123	10
59	59	4
2	3	1
57	57	4
115	117	2
76	84	3
31	32	4
5	16	3
79	79	1
71	71	2
14	49	3
80	86	1
129	129	3
18	71	2
6	6	1
67	72	1
26	34	2
91	107	3
107	107	2
109	109	2
81	81	1
84	87	4
107	111	1
20	20	3
128	128	2
87	87	2
27	29	2
86	86	1
60	60	4
80	80	2
47	50	1
26	26	2
14	14	4
18	19	2
9	14	2
106	106	2
60	120	4
25	32	1
88	104	4
20	23	1
90	109	2
5	28	3
114	115	2
7	10	2
12	12	2
121	123	1
108	109	3
89	99	2
62	71	2
125	125	2
127	132	1
3	29	1
44	44	3
4	83	1
0	7	1
113	122	1
127	131	2
118	120	3
122	125	2
119	119	2
2	2	2
64	64	1
55	56	2
1	5	1
22	23	3
34	35	1
28	28	4
3	3	1
53	121	1
93	94	1
10	45	3
1	2	2
19	19	1
25	28	2
88	105	1
112	112	1
130	130	1
76	78	1
131	132	3
80	83	1
32	32	1
94	95	1
3	6	1
63	68	1
114	118	1
20	21	1
90	93	1
80	105	1
22	24	2
72	72	2
20	22	2
54	70	1
61	121	2
66	66	1
49	50	1
26	27	1
55	64	2
25	25	1
17	17	1
31	31	1
24	25	1
95	95	1
116	117	2
54	55	2
115	123	1
75	101	1
100	100	1
1	16	1
43	100	2
79	81	1
3	71	2
79	99	1
45	100	1
4	10	1
2	25	1
82	107	1
128	131	1
63	73	1
73	75	1
47	51	1
1	17	1
13	13	1
2	16	1
87	113	1
