10	10	6
59	59	8
221	222	6
65	65	4
48	67	1
52	87	1
241	241	2
214	230	2
197	198	2
186	187	2
223	223	3
56	67	4
212	213	7
224	224	4
45	45	4
107	107	4
110	112	2
69	69	5
152	154	6
77	78	7
67	68	2
218	218	8
16	16	5
26	26	8
238	238	6
234	234	4
48	48	2
237	237	5
57	58	6
151	151	4
84	84	3
88	88	4
106	107	2
168	168	1
7	27	3
31	31	5
220	224	2
173	173	2
32	32	3
23	26	5
202	202	8
70	86	3
34	39	1
155	155	1
215	215	4
92	98	1
48	64	4
214	217	3
244	245	5
10	15	5
216	216	4
188	238	3
185	192	3
185	185	5
204	207	8
73	75	2
144	165	2
33	33	5
219	219	3
110	110	6
112	112	6
40	40	3
33	36	1
34	35	5
240	241	2
232	242	2
190	223	2
114	114	4
57	57	2
194	194	8
231	245	4
48	68	6
27	27	4
150	155	2
190	191	5
166	166	2
39	39	7
176	176	2
19	19	5
54	54	4
200	200	2
20	31	3
41	41	2
170	171	1
115	115	2
105	107	2
28	28	1
167	167	2
51	76	2
86	87	4
108	118	1
78	79	1
249	249	2
186	191	3
117	118	2
193	193	2
118	118	3
213	214	2
36	36	2
48	70	1
197	197	3
86	86	4
172	173	1
153	198	3
146	147	3
179	211	2
38	38	6
85	87	3
245	245	2
209	209	2
242	242	4
53	113	1
71	71	7
11	11	1
94	94	1
8	15	3
174	174	4
191	191	7
39	155	1
87	87	2
145	182	1
164	164	4
44	44	2
178	178	1
50	50	2
102	144	3
68	68	2
156	156	14
246	246	2
159	160	5
95	95	4
104	104	2
25	25	4
3	3	3
153	153	3
198	198	1
219	224	5
5	5	6
102	102	2
190	190	1
157	158	2
244	244	6
85	86	3
157	157	5
96	96	7
73	100	1
227	227	3
150	151	1
66	66	4
83	83	2
235	235	5
37	37	2
110	111	1
74	75	1
160	160	1
162	164	2
64	65	2
152	152	1
6	7	1
103	103	2
71	73	1
154	155	2
198	200	2
8	8	3
159	159	2
190	222	1
69	70	3
189	189	1
41	42	1
160	228	1
56	56	2
6	6	1
55	55	6
173	249	2
49	49	6
116	117	5
205	206	1
178	181	1
97	97	2
35	155	3
77	77	4
76	80	3
24	24	4
225	225	4
163	163	2
189	190	3
95	98	4
117	117	1
4	5	2
68	69	1
171	171	1
79	79	3
201	202	1
26	30	1
238	243	3
48	56	2
160	249	1
8	14	1
232	232	3
59	60	2
3	6	2
52	88	3
5	6	1
74	74	2
239	239	1
240	240	3
80	80	1
61	61	1
193	196	1
29	29	1
162	163	1
8	63	2
119	119	4
178	210	1
203	203	5
51	72	3
38	39	3
207	207	2
50	51	4
214	214	1
191	192	6
10	11	1
109	109	2
28	29	2
3	21	1
154	154	2
210	210	4
172	211	6
205	207	2
98	98	1
83	85	3
169	170	3
20	20	2
177	177	1
248	248	3
170	170	3
22	29	1
186	186	1
31	32	1
47	62	3
40	114	2
201	201	2
150	150	1
66	89	1
227	228	2
16	54	1
61	62	1
231	231	2
183	183	2
244	246	1
222	241	1
168	169	1
231	246	1
81	81	2
204	204	2
89	89	4
1	3	1
111	112	3
52	52	3
20	22	3
200	201	2
12	15	1
22	22	2
69	96	1
205	205	1
72	72	1
170	213	1
172	175	1
233	234	1
114	115	2
82	82	2
228	229	1
9	9	3
216	219	1
179	179	4
177	183	2
49	88	2
153	154	1
166	181	2
236	236	2
153	201	1
113	114	1
53	54	1
187	187	4
51	51	1
229	229	1
99	99	3
30	30	2
238	239	1
188	189	1
247	247	2
49	50	2
14	47	2
12	47	1
222	243	1
65	94	1
83	84	1
184	185	1
47	47	1
195	195	2
76	76	2
85	101	1
51	83	1
221	223	1
66	97	1
42	44	1
164	181	1
67	67	2
160	162	1
80	82	2
46	46	2
105	106	1
161	161	1
102	106	1
35	35	2
200	202	1
23	23	2
111	182	1
173	174	1
175	175	2
77	81	1
103	104	1
98	105	1
30	31	1
222	224	1
211	211	1
18	18	1
