28	29	3
95	103	3
108	108	22
30	30	12
138	138	19
129	129	21
42	42	8
128	128	19
17	54	1
111	111	9
135	136	9
89	97	4
20	20	4
101	101	20
13	13	9
50	62	1
9	9	18
113	113	12
46	56	5
34	56	3
155	155	14
70	70	9
155	156	8
131	133	6
1	1	11
8	38	3
103	103	24
66	72	3
111	112	5
105	105	13
77	96	3
104	104	7
114	121	10
102	102	5
106	137	5
17	17	24
131	132	7
94	94	9
113	138	4
25	25	5
145	147	9
46	62	3
117	117	10
43	43	4
106	107	9
27	27	11
93	94	4
133	133	12
124	124	12
135	135	9
99	102	3
87	91	7
52	123	6
79	79	10
86	86	11
85	85	15
66	66	8
157	157	14
127	128	3
154	154	7
145	145	8
63	95	1
157	158	7
83	83	16
11	18	1
27	29	4
80	80	17
83	133	1
150	157	8
5	27	3
4	4	6
8	29	3
107	107	11
100	101	5
34	35	2
128	129	6
16	17	8
120	120	10
1	2	2
64	70	4
3	4	8
139	139	25
71	71	9
82	131	1
51	51	8
75	75	13
148	148	2
91	92	7
47	47	4
84	84	10
136	137	5
39	40	4
78	78	10
16	19	2
119	120	7
7	11	3
84	85	9
27	28	6
52	52	4
115	122	5
109	144	2
36	57	3
41	42	3
49	49	5
113	137	2
141	141	6
41	41	5
90	91	9
12	12	14
55	55	8
33	41	3
107	139	3
95	95	9
34	38	5
52	114	7
0	2	1
15	54	1
134	134	19
10	11	5
31	34	3
137	137	22
6	6	6
67	67	8
21	34	2
38	38	10
99	99	17
21	25	2
118	123	2
126	126	3
64	64	4
20	22	4
10	10	7
118	126	2
23	23	15
113	114	4
69	100	2
88	91	8
81	96	4
110	110	19
92	92	5
108	143	3
7	7	10
28	28	4
104	105	7
108	123	3
50	50	5
130	130	7
5	5	7
106	106	9
50	51	7
82	82	12
113	126	1
15	19	3
62	62	7
113	144	3
66	132	2
19	19	7
132	132	16
136	138	2
32	46	1
40	40	3
50	67	3
137	138	15
0	0	10
132	133	8
71	104	2
17	18	3
150	150	17
48	48	10
24	25	4
14	14	4
117	148	1
154	155	1
2	92	1
17	27	1
152	155	7
8	8	12
80	95	3
11	11	5
18	18	9
147	147	6
27	30	3
129	130	7
146	146	5
81	103	3
96	96	6
77	95	3
49	55	1
106	134	1
131	131	9
156	156	11
44	44	25
88	88	3
72	72	4
127	127	20
53	53	3
20	25	3
141	148	2
136	136	9
66	103	1
38	39	8
81	82	6
33	34	4
28	30	3
79	93	1
22	22	6
106	143	2
91	91	10
31	37	7
16	16	10
83	123	1
42	43	2
90	90	7
65	65	6
142	144	5
125	127	5
14	15	3
65	66	4
100	100	7
116	117	4
116	116	8
23	25	2
8	10	4
97	97	12
124	127	2
82	84	2
24	33	2
63	96	1
117	118	4
128	139	4
73	73	17
159	159	2
66	70	3
39	39	12
153	153	7
143	144	6
33	33	7
140	140	8
125	126	5
29	30	7
115	116	1
90	124	3
109	110	4
121	121	8
12	15	2
14	38	1
65	98	1
20	21	3
68	97	1
16	18	4
70	71	6
138	144	2
26	30	1
50	133	2
121	141	1
120	123	5
36	45	4
48	56	1
136	141	2
143	147	3
106	139	3
95	96	6
41	43	5
87	105	1
145	146	4
63	72	1
74	74	2
41	85	3
112	112	10
134	136	1
7	8	5
20	27	1
36	47	1
150	152	1
86	87	1
88	89	8
75	140	2
12	13	3
87	90	2
119	119	6
153	154	6
51	52	6
142	142	8
68	68	9
109	114	1
4	20	2
53	54	2
0	4	4
144	144	6
144	147	2
37	38	3
146	154	2
16	29	4
151	151	7
151	154	1
54	54	5
21	22	2
112	113	2
24	24	9
118	118	10
79	95	3
37	37	4
19	32	2
12	16	1
149	154	2
152	152	7
109	109	10
124	126	6
123	126	5
117	122	4
109	113	3
34	34	10
25	46	2
56	56	7
76	76	4
93	93	11
49	69	1
144	145	3
67	68	3
53	123	4
90	112	1
21	21	5
139	140	3
124	125	2
123	124	2
4	10	4
9	13	5
118	120	10
111	134	3
50	81	3
115	115	7
36	37	2
88	95	2
50	80	3
46	46	3
120	121	5
83	134	2
95	98	1
15	15	5
56	57	1
84	86	1
9	17	2
46	67	2
4	14	2
69	69	7
82	83	3
63	63	1
77	78	4
86	90	3
81	81	11
4	5	1
122	122	9
71	98	1
17	117	1
134	135	3
106	129	1
114	114	7
87	88	4
125	125	4
80	81	3
117	136	4
75	77	7
98	98	3
78	93	1
83	85	1
103	104	2
29	29	9
158	158	1
123	123	2
13	14	4
4	39	2
121	128	2
84	123	1
112	138	2
113	124	2
124	134	4
86	135	3
9	10	4
3	98	1
38	40	1
106	108	2
50	123	1
11	12	2
3	54	2
47	48	3
92	97	5
78	94	1
36	56	6
22	25	1
115	119	2
93	96	5
97	104	5
42	91	3
6	9	2
117	147	1
20	24	1
121	123	1
63	67	2
123	125	2
19	37	1
44	45	4
11	17	1
19	23	2
109	112	2
79	80	3
89	89	3
52	54	2
122	123	3
73	97	1
32	37	2
40	42	6
116	139	1
37	40	2
4	43	1
54	55	4
39	42	1
49	54	2
50	55	2
38	41	1
108	144	2
7	48	1
50	53	4
19	20	1
77	77	2
90	93	2
2	2	7
3	53	2
107	124	2
115	141	3
107	108	4
47	129	2
33	57	1
19	30	3
45	46	1
138	139	2
148	157	2
49	51	1
98	99	4
35	35	5
114	123	2
34	45	1
109	111	2
115	118	1
47	82	1
140	141	6
144	146	2
62	67	2
105	106	1
108	126	2
24	31	1
61	95	1
147	157	1
0	3	2
148	150	1
79	82	3
110	112	4
78	79	1
146	153	2
34	37	1
87	87	9
13	17	3
111	135	1
55	122	2
33	46	1
115	140	1
71	99	2
15	16	2
21	26	2
104	128	1
78	95	1
88	97	2
4	11	1
51	127	1
48	49	2
94	97	2
107	145	2
67	70	2
137	139	1
18	21	2
26	26	2
92	104	2
20	41	1
106	128	1
81	105	1
149	149	1
87	134	2
14	17	1
121	122	1
101	102	1
111	113	1
3	97	2
110	111	1
149	150	2
154	156	1
111	141	2
147	148	1
76	99	1
6	8	1
80	96	1
140	155	1
115	145	1
17	20	1
86	124	2
8	9	2
111	146	2
88	90	1
11	13	1
5	29	1
117	119	1
48	82	1
99	130	2
35	47	1
30	38	2
84	134	2
50	52	1
142	146	2
11	29	1
19	21	2
111	147	2
52	53	1
43	44	1
33	40	2
145	157	1
13	18	1
143	143	1
20	37	1
15	61	2
25	26	1
97	98	1
36	55	1
4	12	3
91	104	2
120	127	2
158	159	1
45	131	1
115	148	1
57	57	1
134	137	2
108	122	1
68	69	1
140	142	1
141	144	1
138	143	1
64	66	1
63	70	1
82	85	1
118	119	1
153	155	1
114	124	1
96	104	1
85	124	1
50	83	1
79	104	1
116	148	1
3	3	3
87	89	1
31	32	1
79	92	1
37	122	1
45	45	1
150	151	1
109	146	1
42	98	1
117	138	1
19	27	2
12	14	1
85	123	1
40	46	1
30	31	1
141	143	1
35	46	1
32	33	1
5	11	2
108	113	1
107	123	1
150	158	1
12	118	1
146	147	1
108	138	1
49	79	1
69	97	1
9	11	1
