87	90	3
121	121	12
47	47	8
77	79	2
98	134	5
26	50	5
48	103	4
109	109	12
141	141	9
10	26	4
60	60	6
61	61	6
30	30	6
94	97	2
17	27	5
89	90	1
97	97	17
5	5	15
91	93	9
48	102	1
54	54	7
56	66	2
142	142	7
109	118	5
22	22	8
65	82	4
53	63	3
80	81	3
26	26	3
11	15	3
138	138	9
80	85	3
91	91	9
59	61	5
65	68	1
48	48	8
33	33	10
117	117	6
13	24	4
130	130	5
23	25	2
68	68	4
62	62	6
59	59	3
77	77	7
110	112	3
50	50	9
103	135	6
39	39	7
68	72	1
88	88	13
32	32	6
25	25	6
55	55	9
112	113	4
67	100	1
95	95	6
105	106	8
121	123	5
9	9	6
106	109	3
11	11	12
137	139	8
28	29	2
145	145	7
70	72	1
51	51	6
50	52	3
92	113	3
85	85	8
129	139	1
95	99	1
2	11	1
117	125	1
40	40	10
129	129	6
25	30	4
61	65	1
42	43	1
19	19	6
104	112	4
128	129	4
84	111	2
36	37	7
22	33	5
114	117	1
84	84	4
137	137	8
117	126	3
132	133	2
56	64	2
36	36	11
52	61	2
18	34	3
134	144	1
70	70	5
125	145	3
24	25	4
4	4	9
68	70	4
57	61	3
119	120	3
113	124	1
70	78	3
69	105	8
132	132	15
16	16	6
62	64	2
94	113	1
133	133	10
144	144	4
120	144	1
5	6	6
68	80	3
134	143	6
89	97	1
1	32	3
112	112	7
116	138	4
2	24	3
23	23	7
105	105	5
66	81	6
6	24	1
100	100	3
63	63	6
1	20	3
9	56	3
27	27	9
8	8	5
98	98	2
17	17	6
42	42	4
86	88	6
2	31	2
131	131	9
54	55	2
35	83	1
134	139	3
3	32	3
79	82	1
109	110	4
83	84	3
129	142	1
103	103	2
60	74	2
133	144	4
2	23	4
8	70	2
82	83	4
94	95	2
96	96	11
107	109	2
122	122	10
68	71	1
51	52	6
62	63	3
98	99	5
65	65	1
49	64	1
54	69	1
95	110	2
65	88	2
39	42	2
88	90	5
135	135	7
93	93	4
99	99	1
143	144	3
139	141	4
94	94	2
75	76	1
104	141	1
4	5	9
6	6	4
103	104	5
106	106	9
29	33	2
134	136	1
126	126	8
108	108	2
114	114	6
41	43	3
30	36	2
81	82	6
37	83	3
55	56	1
139	140	1
64	82	2
2	2	10
6	72	2
103	112	6
82	82	2
136	139	1
72	72	12
18	18	6
79	79	4
138	143	1
26	34	2
69	75	3
96	116	3
65	77	1
60	61	4
0	13	3
59	63	1
31	32	7
35	35	16
17	35	2
91	92	1
101	111	2
84	92	1
20	20	13
71	72	1
136	136	5
2	9	3
143	143	6
122	123	6
128	142	6
15	15	1
93	108	2
104	140	2
3	5	3
109	115	1
3	6	2
88	89	4
92	99	1
128	128	6
55	65	5
32	33	1
37	37	11
139	139	2
10	57	5
13	13	10
66	66	2
95	116	1
111	128	2
106	110	1
125	125	8
26	33	2
15	55	1
30	32	4
130	136	2
112	124	2
56	56	6
86	86	7
46	47	1
41	41	11
20	21	1
34	63	2
48	87	4
21	21	6
49	49	5
95	108	4
24	24	2
28	28	9
57	57	6
111	115	4
0	21	1
104	130	1
105	125	2
126	131	3
38	41	2
4	8	1
118	118	3
3	3	6
24	28	2
97	134	1
119	119	3
25	34	3
116	120	2
14	19	3
81	81	5
14	23	1
56	77	2
118	119	1
107	122	1
73	73	6
26	55	1
112	130	1
102	102	6
122	136	1
91	94	5
37	71	2
124	124	3
33	34	5
140	140	5
18	26	2
49	66	2
67	68	2
62	75	3
107	107	4
115	115	1
121	129	1
80	96	1
29	50	2
10	10	3
129	131	3
123	133	2
110	113	1
68	73	1
110	138	2
18	35	1
127	145	4
55	84	4
35	36	1
68	89	3
74	91	2
100	120	1
117	136	1
92	92	6
38	38	5
80	108	2
97	98	2
14	14	4
13	23	2
40	47	6
94	116	1
2	33	1
26	28	1
104	104	6
65	66	3
134	135	2
47	51	1
63	67	2
118	140	5
68	69	5
68	74	1
80	80	4
115	119	1
123	123	3
74	89	1
20	34	1
25	26	3
58	70	1
39	40	4
85	96	1
99	105	1
20	27	1
75	75	2
127	127	3
4	29	1
90	91	2
30	41	1
85	92	2
37	126	1
51	64	3
12	13	1
126	134	1
111	113	4
17	26	2
102	103	3
50	57	5
131	133	1
67	67	10
10	49	1
80	83	1
26	59	3
48	74	2
53	95	1
58	59	1
98	131	1
102	135	1
101	102	2
18	55	1
120	120	1
63	76	1
111	131	1
20	41	2
93	94	6
1	1	3
112	116	1
86	87	2
22	38	1
8	59	1
69	69	1
105	118	1
15	27	2
89	89	4
26	43	1
57	106	2
29	29	1
128	130	2
95	132	2
0	20	2
95	114	2
22	39	1
32	49	1
74	74	3
118	138	1
116	136	1
11	24	1
15	16	4
66	98	1
5	15	2
105	107	3
53	53	2
30	49	3
11	16	2
93	104	3
120	140	2
31	100	1
103	125	1
50	59	2
97	125	1
36	54	2
0	0	2
53	55	2
6	15	1
2	3	3
113	113	2
117	134	1
100	101	1
83	124	3
5	29	1
31	49	3
54	56	2
105	116	2
31	31	1
23	34	1
8	15	1
68	88	1
82	84	2
30	43	2
109	112	1
3	16	1
9	27	3
134	134	2
61	74	1
107	108	2
0	25	1
6	14	2
1	13	2
93	116	2
55	79	1
129	130	3
68	86	2
17	54	3
101	101	3
8	9	1
57	72	1
135	136	1
137	138	1
37	90	1
102	112	1
2	8	1
94	115	1
94	100	2
111	140	1
38	39	1
140	141	2
105	114	1
0	1	1
124	125	2
101	121	2
9	11	1
99	109	2
109	137	2
27	28	1
110	110	4
54	113	1
58	58	1
50	65	2
42	53	1
10	24	1
117	130	2
2	28	1
77	89	1
131	138	1
56	83	2
52	52	3
69	104	1
39	81	1
49	62	1
48	85	1
17	18	1
21	52	1
94	99	1
90	90	1
112	125	1
126	145	1
127	132	1
64	67	1
59	62	1
6	23	1
92	94	1
106	123	1
48	88	1
14	22	1
