80	80	13
27	78	1
71	71	11
108	108	12
54	56	6
44	44	14
133	133	1
28	28	9
57	57	4
116	116	6
45	45	12
52	53	2
86	87	9
126	127	1
8	8	11
110	130	3
67	77	2
113	124	2
35	35	20
112	114	2
23	23	5
114	116	2
13	13	20
4	4	6
17	17	17
114	114	15
105	105	9
64	64	20
63	63	12
122	122	6
67	91	2
75	111	2
85	86	1
43	43	11
53	53	11
94	94	11
67	67	1
121	121	14
15	17	2
72	72	21
118	119	2
103	103	33
112	131	3
25	43	1
87	88	6
37	37	10
37	38	3
54	54	4
55	80	2
66	90	1
118	118	4
67	69	3
11	11	12
54	93	4
26	26	3
106	106	9
45	46	4
77	77	9
99	106	3
86	86	14
22	22	10
98	98	9
117	117	11
130	130	6
33	33	16
118	129	9
120	121	3
120	120	23
58	58	8
64	65	4
108	110	6
62	62	12
77	82	3
8	23	2
93	93	6
27	28	5
61	62	5
0	0	3
76	76	7
32	32	12
36	36	14
33	35	1
90	90	9
8	9	2
104	104	29
94	105	3
79	79	16
59	59	11
119	119	9
92	93	3
14	14	4
83	118	3
29	29	12
74	74	9
21	21	12
107	111	2
62	96	5
25	34	1
10	10	11
59	63	2
130	132	7
1	2	5
71	72	5
85	85	7
101	101	17
4	25	1
95	95	9
121	122	6
88	88	10
84	84	7
80	88	2
126	126	12
31	31	11
131	131	10
45	110	4
113	113	15
112	112	5
32	33	3
113	133	1
80	96	3
44	50	1
105	106	3
107	107	3
70	120	5
50	100	2
47	47	2
115	116	4
44	127	1
10	11	3
20	22	3
23	24	8
73	73	5
98	99	3
132	133	5
88	120	1
129	129	13
66	66	8
134	135	3
85	120	1
14	15	7
45	107	2
29	30	3
20	20	8
114	118	1
70	70	11
91	92	4
66	68	2
89	89	5
0	3	2
5	23	2
68	69	5
104	134	2
9	9	6
134	134	15
111	111	9
97	97	4
1	1	8
26	27	2
116	120	2
114	115	7
21	28	2
115	119	2
52	95	3
116	117	6
1	79	6
55	55	4
34	34	13
82	82	7
99	99	6
65	65	4
12	12	12
45	49	2
130	133	2
115	115	4
21	25	1
60	62	1
125	126	6
96	96	9
15	21	4
102	103	5
4	77	2
25	44	2
53	80	4
42	42	1
38	38	2
56	56	6
82	83	4
115	117	4
3	3	2
63	64	2
25	25	6
119	121	1
69	69	7
18	18	4
127	129	3
72	93	1
82	84	4
97	111	1
127	127	5
16	17	1
84	85	5
123	123	14
64	71	2
1	53	6
125	125	13
27	27	11
67	68	1
60	60	4
108	113	3
15	100	2
49	49	2
65	71	3
52	52	4
102	102	15
4	7	6
33	34	10
124	125	1
24	24	4
7	7	6
11	87	4
50	55	4
16	16	6
73	93	1
14	16	2
83	84	6
32	34	2
82	118	2
24	76	2
44	129	2
119	120	6
44	132	1
1	46	1
45	50	2
4	5	4
3	87	2
58	59	2
54	87	2
124	124	8
77	79	4
59	60	4
123	130	3
109	109	5
74	105	1
13	105	1
53	79	1
31	35	6
48	48	1
2	3	4
72	73	5
24	25	1
131	132	4
116	119	1
61	63	3
12	13	2
103	104	4
81	82	3
110	110	9
30	30	5
55	57	2
19	19	3
78	78	5
13	21	3
60	128	1
28	57	2
14	47	2
77	80	3
132	132	4
96	106	4
106	108	1
7	87	1
61	61	8
55	71	3
59	65	2
58	60	2
45	132	1
102	121	2
95	126	2
50	54	1
122	124	2
68	68	1
125	133	2
118	120	2
83	83	5
110	111	2
4	8	3
5	6	1
6	6	2
112	113	2
114	125	1
29	32	3
19	22	2
62	93	2
35	37	4
90	92	3
26	36	4
131	133	4
3	26	1
80	86	4
67	90	2
12	18	2
3	4	2
105	111	2
12	14	2
44	45	1
65	69	1
91	91	4
43	44	3
15	16	2
27	43	3
116	122	5
106	107	3
100	100	3
2	2	3
47	50	3
98	102	3
100	101	1
68	73	1
129	131	3
9	23	2
97	100	2
26	28	1
52	54	3
130	131	1
69	91	1
112	124	1
47	51	1
111	113	1
123	124	1
86	88	1
114	117	1
5	26	1
115	124	2
75	75	2
95	96	1
67	75	1
117	118	1
61	75	2
116	134	4
94	95	2
68	75	2
44	48	1
36	37	4
44	113	1
34	35	2
44	131	3
106	111	1
53	93	1
30	31	3
54	57	1
0	1	1
13	29	1
5	24	1
78	79	1
50	50	2
113	114	4
56	57	1
13	14	1
53	92	2
35	36	2
114	127	1
128	129	3
79	80	1
63	93	1
15	15	1
117	120	3
24	43	1
125	129	1
17	22	3
47	52	1
28	29	1
93	94	1
123	135	1
25	26	1
56	87	1
100	106	1
14	23	1
26	81	1
104	111	1
33	59	1
70	71	1
87	87	1
110	131	1
52	86	1
122	123	1
9	10	1
45	129	1
83	85	1
44	55	1
16	78	1
104	105	1
52	96	1
90	101	1
