75	75	17
2	8	3
152	152	12
1	1	5
4	16	3
12	12	7
56	65	1
59	59	10
59	60	11
165	166	3
192	192	7
58	58	4
3	151	2
214	230	1
159	159	11
85	85	11
153	153	11
88	88	8
22	22	10
102	102	20
222	222	12
116	174	1
9	9	11
224	240	1
194	194	14
13	14	3
77	77	2
175	175	18
193	195	2
168	168	15
27	27	4
217	217	15
140	140	15
179	179	9
113	113	7
63	63	7
173	173	6
122	122	10
45	45	9
191	192	3
230	239	2
114	114	3
182	193	2
123	123	12
108	129	2
169	171	6
111	111	9
29	102	2
113	115	2
149	149	12
228	228	3
56	78	2
108	108	14
25	25	8
118	118	18
167	240	3
191	209	4
105	105	12
79	79	4
146	146	9
39	39	11
149	150	7
23	23	16
151	151	5
40	41	10
116	118	4
96	96	5
1	7	5
95	96	4
232	241	3
126	126	6
98	98	4
190	190	14
148	151	5
171	171	9
56	56	4
139	139	5
191	219	2
74	95	1
22	23	9
238	238	10
213	213	13
35	35	7
107	107	6
106	107	4
45	47	7
195	205	1
172	173	7
102	106	1
202	202	7
237	237	8
18	18	11
71	71	12
233	233	18
138	138	8
172	172	9
30	31	2
178	178	5
170	170	8
221	221	13
31	31	7
11	11	5
125	155	4
50	51	4
75	76	4
105	157	3
41	57	3
0	7	1
220	222	2
157	157	2
54	71	2
56	58	3
242	242	8
42	42	5
117	117	2
182	183	6
156	164	2
171	172	2
69	69	7
232	232	7
20	20	16
165	165	3
129	129	13
38	39	4
25	26	3
7	7	7
29	29	4
235	236	3
218	242	5
164	165	4
166	166	15
167	167	9
28	29	6
193	194	4
2	30	3
2	2	22
36	36	9
13	13	6
131	131	5
199	199	12
168	200	3
52	52	11
102	118	2
48	48	13
53	54	3
152	153	5
187	211	3
146	147	3
0	0	11
226	226	5
163	196	3
142	142	7
208	208	7
41	41	11
162	162	14
24	29	8
67	95	1
38	38	5
148	148	17
65	65	8
47	63	3
200	212	2
234	234	16
216	216	11
124	132	3
26	26	3
144	144	8
66	68	3
82	83	12
160	160	4
16	16	6
84	88	5
169	169	14
223	223	10
34	34	16
222	225	5
0	1	2
15	15	5
8	8	12
58	60	5
143	143	15
72	79	4
205	205	14
147	147	10
76	76	24
116	116	8
13	23	3
131	140	1
80	80	7
41	46	7
43	43	15
66	66	14
124	125	3
127	127	8
91	91	2
163	164	6
163	163	8
39	56	1
161	161	11
168	226	1
187	196	4
9	15	5
241	241	16
155	155	8
228	231	1
102	130	3
4	4	7
136	165	10
1	17	3
61	85	2
64	65	6
21	22	3
109	109	3
155	158	2
125	127	4
118	119	5
231	231	7
133	133	2
119	119	11
134	134	9
201	201	12
43	73	2
65	69	8
200	200	1
62	64	2
180	180	12
203	203	3
202	227	3
146	149	3
54	55	2
236	238	5
61	63	1
100	101	4
114	115	2
110	110	9
17	17	9
14	14	7
135	137	2
207	230	1
58	59	3
50	50	6
67	67	10
240	241	1
161	162	3
108	140	6
49	49	5
41	45	2
215	215	8
144	153	1
137	137	5
215	216	4
99	117	1
188	201	3
145	145	4
211	211	13
150	151	2
188	188	12
95	95	5
82	82	4
49	52	2
81	84	2
183	183	3
40	40	19
65	66	1
14	15	1
47	47	13
73	73	7
140	142	3
141	141	10
162	163	4
210	210	9
30	30	4
221	226	1
10	10	11
14	32	1
4	197	2
225	225	13
40	60	1
116	117	4
193	193	6
189	189	10
97	97	6
53	53	1
120	120	14
63	70	1
63	65	7
131	132	1
240	240	6
186	186	6
156	158	4
100	117	4
103	103	3
27	198	1
184	184	11
7	12	3
178	179	4
187	188	6
127	141	1
204	204	9
218	218	9
65	68	2
45	46	9
170	239	2
33	33	17
55	55	11
51	51	9
81	83	5
214	214	10
73	74	2
60	60	9
84	84	7
61	61	12
35	77	3
217	218	5
89	89	4
219	237	1
38	47	7
58	81	2
62	62	1
61	73	1
135	135	1
220	220	13
158	224	2
162	211	1
4	155	1
81	90	3
133	165	2
46	46	4
0	98	1
56	76	4
133	134	11
106	127	3
130	130	8
51	52	10
68	69	5
153	163	1
185	186	3
139	140	4
235	235	8
70	78	2
120	129	2
218	220	2
229	231	8
157	170	2
120	121	1
224	227	3
109	120	2
121	126	2
230	231	3
99	100	1
177	177	2
57	57	5
176	181	5
212	212	7
196	197	2
29	31	1
57	72	3
86	86	5
125	125	7
201	202	1
133	183	1
239	241	3
197	198	4
83	84	4
85	86	5
188	193	2
189	195	1
146	148	5
176	176	6
49	72	1
187	187	2
172	200	1
159	223	4
42	103	2
196	196	7
221	222	5
158	158	5
177	180	3
202	230	3
137	139	2
185	185	5
145	146	2
12	54	1
42	45	1
74	74	9
148	149	2
7	148	2
239	239	9
121	121	5
123	124	8
155	156	7
219	242	1
210	211	8
28	28	5
115	115	7
112	113	4
108	137	5
134	170	1
1	13	1
122	198	2
122	123	5
112	112	6
24	26	1
106	129	4
103	125	2
61	62	1
60	61	1
38	97	1
185	189	1
63	64	1
11	174	1
95	127	3
203	204	4
50	53	1
223	225	1
35	36	3
197	197	5
191	191	5
44	46	5
190	193	5
171	236	1
145	156	2
136	136	6
213	214	4
139	154	1
180	182	3
56	67	6
157	179	2
3	3	3
24	24	5
71	102	1
123	126	3
205	206	4
52	53	4
124	124	1
40	63	2
100	100	5
76	78	1
210	212	1
2	4	5
99	116	1
34	79	3
49	50	3
65	67	2
189	190	5
135	136	6
170	171	2
66	67	5
202	219	3
35	102	1
214	216	1
50	81	3
178	227	5
236	237	8
149	151	3
13	22	2
230	237	5
81	81	6
208	231	2
54	54	4
58	82	4
17	23	2
4	5	4
32	32	12
202	203	3
18	165	1
37	37	10
191	208	1
225	226	2
173	218	2
154	155	1
59	78	2
166	169	4
219	221	2
162	236	1
199	227	1
241	242	2
190	210	1
147	211	1
139	143	1
88	178	1
221	239	2
176	211	2
74	75	1
145	147	4
20	23	4
162	164	2
127	155	1
57	78	3
9	31	1
124	126	2
19	192	2
206	206	2
59	77	3
164	164	1
56	57	1
78	78	4
9	10	2
50	67	2
154	154	1
78	79	1
181	203	1
81	82	3
50	52	3
79	130	2
90	90	2
219	219	3
99	99	5
82	84	1
229	229	3
138	139	5
59	80	2
101	107	2
44	44	7
173	175	1
21	23	1
133	135	1
217	237	3
39	54	3
194	195	2
136	182	1
188	200	2
12	53	1
46	47	7
35	56	1
130	137	9
67	68	2
203	206	4
18	35	2
150	154	2
198	198	2
163	165	6
122	132	1
101	101	7
147	149	2
104	104	5
160	161	4
88	177	3
18	19	5
144	146	1
30	150	2
21	21	6
43	86	2
213	222	2
181	181	1
19	19	5
227	227	2
10	199	1
68	68	9
190	241	2
191	193	1
187	193	1
111	149	2
106	106	2
223	231	1
167	227	4
195	196	4
236	236	1
113	114	3
47	48	6
143	165	3
41	103	1
216	217	3
168	230	3
153	154	1
187	190	3
202	208	1
156	159	2
11	12	1
7	8	4
84	86	5
103	104	1
233	234	2
224	224	3
182	182	2
72	72	2
3	33	2
149	153	1
169	170	1
206	207	2
144	200	1
66	74	1
157	158	1
36	51	1
0	11	1
1	104	1
222	241	1
198	199	2
57	79	2
4	6	1
214	215	2
11	131	1
140	166	2
202	204	1
125	126	2
225	227	3
2	127	2
229	230	4
13	15	1
174	174	2
169	242	3
5	5	4
209	211	1
121	122	1
182	185	2
195	195	5
109	110	1
234	238	1
204	206	2
174	175	2
217	219	1
136	137	1
45	72	1
8	13	2
144	175	3
7	10	1
184	221	3
122	125	1
225	229	1
101	102	2
187	226	1
114	116	1
112	136	1
15	16	5
206	231	1
121	130	1
49	79	1
0	128	1
23	29	1
39	46	1
175	177	2
18	197	1
13	24	1
75	101	2
190	197	3
156	156	1
212	213	2
32	74	1
228	230	1
184	185	1
192	197	1
210	216	2
211	213	1
95	98	1
35	78	1
191	197	1
83	83	1
182	191	1
47	71	1
85	88	1
131	169	1
41	61	1
6	6	2
77	82	1
124	156	1
207	208	1
62	66	1
77	78	1
182	223	1
117	118	1
181	182	1
128	128	2
98	99	1
86	236	1
190	191	1
156	157	2
64	64	2
160	162	3
146	174	1
71	72	1
105	106	3
207	207	1
219	232	1
106	126	1
158	179	2
141	142	1
8	9	1
40	103	1
209	209	1
147	148	1
83	120	1
202	239	1
226	230	1
192	193	2
72	107	1
107	138	1
185	187	2
16	21	1
19	20	2
95	102	1
103	108	1
43	53	1
54	58	2
189	225	1
189	205	1
201	217	1
2	5	1
166	167	1
30	32	2
108	109	1
186	192	1
188	212	1
166	170	1
115	117	1
25	28	1
40	57	1
179	181	1
128	133	1
79	165	1
160	185	1
42	74	1
1	5	1
219	220	1
29	35	1
149	155	1
24	28	1
42	81	1
116	138	1
27	225	1
185	191	1
220	221	1
55	56	1
39	40	1
134	139	1
145	201	1
183	185	1
