31	31	10
90	91	5
27	28	5
11	14	1
71	71	4
69	69	5
37	37	2
84	84	3
45	45	3
67	67	12
95	100	6
118	119	7
58	58	10
11	11	11
62	68	1
106	106	5
30	30	4
20	26	2
130	134	3
17	18	1
10	10	6
90	90	5
112	112	2
101	101	2
23	34	3
95	96	6
2	68	4
102	133	3
28	28	5
1	1	9
93	93	8
123	123	10
95	95	4
84	86	3
111	111	4
75	75	11
56	56	4
119	119	6
36	36	4
124	124	6
58	59	1
38	38	5
86	86	4
102	102	7
3	19	2
81	81	2
118	118	6
65	65	5
105	106	1
32	32	2
76	76	3
113	114	5
82	83	2
47	47	4
55	55	16
112	113	2
64	64	2
98	98	2
68	68	9
131	132	4
44	44	6
49	100	1
80	80	4
57	57	4
24	24	3
78	79	3
73	73	4
46	46	6
12	12	7
117	117	11
46	102	2
48	49	5
61	61	16
21	29	3
109	113	3
63	85	2
29	30	3
23	23	10
103	104	2
83	87	7
83	83	7
32	36	1
113	113	5
130	130	4
31	36	3
109	109	1
117	126	1
15	17	1
8	8	4
12	62	1
35	35	5
134	134	12
3	3	1
65	68	2
44	45	6
35	36	4
62	62	5
90	99	1
128	129	2
99	99	3
14	15	3
93	120	3
6	6	8
45	93	2
13	13	6
114	114	1
87	87	1
34	34	2
85	85	6
72	72	8
33	34	3
43	44	4
75	78	3
21	21	4
117	118	2
74	74	1
59	126	1
71	72	6
10	11	3
27	27	7
16	18	2
4	87	1
2	2	2
39	39	1
56	57	4
115	115	7
128	128	1
25	25	5
66	66	2
83	84	1
5	5	2
116	116	3
33	33	4
66	67	1
121	121	5
119	125	1
100	100	3
93	96	1
79	80	1
110	110	1
18	18	3
114	115	2
113	115	1
79	79	3
16	79	5
110	111	3
77	77	3
20	20	2
10	12	3
44	85	1
103	103	2
15	16	3
17	17	1
117	125	2
11	20	6
23	24	1
36	87	1
120	120	3
41	87	2
70	70	1
96	96	2
29	40	1
89	90	2
24	25	3
6	7	2
19	19	2
42	42	5
46	47	2
45	48	5
74	76	3
126	126	4
74	104	1
43	43	5
59	78	1
16	58	1
63	66	2
20	21	2
0	0	2
96	97	1
32	33	4
89	91	5
22	23	3
2	42	3
47	49	1
82	87	1
48	48	1
131	131	2
108	108	1
107	108	3
115	116	2
12	14	2
125	125	2
102	125	1
5	6	1
83	86	1
99	100	1
122	122	3
97	98	3
26	27	2
78	78	1
26	26	4
101	127	2
124	134	1
8	9	1
63	63	5
84	85	2
68	70	1
60	60	1
93	94	3
133	133	1
74	77	4
2	30	1
64	66	1
92	93	2
59	60	1
132	132	1
19	60	1
3	70	1
9	9	2
114	116	2
82	82	2
111	112	1
83	85	1
103	108	1
23	32	1
127	127	2
94	94	1
85	86	3
14	79	1
61	119	1
38	39	1
109	110	1
86	88	1
49	56	1
47	84	1
11	12	1
90	92	1
74	75	1
91	92	1
15	15	1
