117	117	10
98	98	5
125	125	8
126	127	2
128	128	11
14	14	5
122	122	3
132	132	12
94	95	4
37	37	7
14	33	6
129	129	15
110	112	1
37	38	5
104	104	14
106	106	3
139	140	8
29	29	19
131	131	6
110	110	4
72	73	5
72	72	20
9	12	1
135	135	11
113	122	1
18	18	8
25	25	3
2	4	4
88	119	2
1	1	1
138	138	17
102	102	6
77	81	3
137	138	8
35	35	16
111	111	8
74	90	1
93	93	4
94	94	4
118	118	10
89	91	4
101	101	11
11	11	10
99	99	4
36	37	8
96	96	16
6	6	6
28	28	3
108	108	20
116	116	7
104	105	3
71	72	13
33	33	8
92	92	4
82	82	12
86	86	3
75	76	3
17	18	4
137	137	11
80	112	2
26	26	7
5	30	1
128	129	7
74	79	3
5	99	1
80	110	5
6	7	2
35	135	2
95	98	4
11	12	7
27	32	3
7	7	5
119	119	7
21	31	3
122	123	3
91	91	2
123	123	10
31	31	8
15	23	2
102	107	2
110	117	5
83	83	4
27	27	10
81	82	2
120	120	6
13	13	6
77	78	4
10	20	1
111	112	6
18	20	3
30	30	4
103	104	2
3	3	8
28	29	11
19	19	10
101	115	3
12	21	5
140	140	3
74	74	8
109	109	7
105	105	16
26	27	2
113	120	4
10	11	5
24	29	3
87	87	8
16	35	1
107	117	1
94	103	2
101	104	1
123	124	5
124	124	12
103	114	2
85	85	9
36	36	5
73	110	1
83	84	2
32	32	4
90	91	1
95	95	13
81	81	7
103	103	7
0	22	4
34	34	7
26	35	2
0	0	4
111	129	3
136	136	7
121	121	5
77	77	3
139	139	2
100	100	13
89	116	1
138	139	4
22	22	3
89	124	1
113	118	1
30	31	5
5	5	10
73	73	2
15	24	2
2	3	5
3	36	1
130	130	6
23	25	2
115	115	9
74	86	1
12	12	6
92	93	1
76	76	3
71	71	5
106	107	4
71	106	5
131	132	1
1	9	2
20	20	3
82	115	2
95	113	1
35	36	3
13	14	6
79	100	6
121	124	3
110	115	3
120	121	4
25	26	4
2	73	1
100	132	1
132	133	3
93	94	2
2	36	2
5	32	4
16	16	2
2	2	2
88	88	10
80	118	2
130	133	2
112	113	3
113	114	1
77	86	4
109	117	1
74	80	2
113	121	1
25	27	2
6	27	3
85	109	4
6	15	6
127	128	1
9	22	1
8	8	3
30	34	1
33	88	1
95	96	2
79	81	3
8	9	2
93	106	1
81	117	2
133	133	2
117	118	2
77	82	2
23	23	5
108	116	2
78	91	6
38	38	1
120	123	3
23	24	3
80	108	2
68	107	2
17	17	6
127	127	9
24	30	3
0	18	2
85	86	1
103	120	2
14	34	2
79	79	2
10	10	3
123	125	5
9	9	9
73	88	1
118	119	4
34	36	2
16	30	1
90	90	2
73	89	4
113	113	3
97	97	7
76	82	1
112	112	3
126	126	1
16	120	4
27	121	1
119	124	1
99	131	1
71	76	3
6	32	2
134	134	4
84	104	4
25	87	2
108	109	2
102	115	1
136	137	1
94	123	2
89	89	4
22	30	1
125	126	2
82	118	1
91	96	1
102	106	1
27	35	1
17	35	1
78	109	1
83	117	1
82	84	2
75	84	3
79	80	1
7	8	1
33	38	2
4	20	3
78	103	3
3	103	2
108	110	1
15	16	1
25	74	1
87	113	1
8	27	1
84	85	1
91	115	1
100	108	1
27	31	1
83	91	1
85	93	1
102	124	1
130	131	1
116	117	1
74	84	3
40	97	1
70	103	1
25	88	1
27	29	1
4	5	1
80	111	1
74	87	1
4	4	1
5	15	1
1	5	1
24	25	1
87	88	1
11	13	1
102	103	1
71	89	1
89	119	1
71	99	1
20	27	1
74	75	1
78	78	1
