113	113	6
2	2	12
112	113	4
24	24	11
81	81	4
24	25	6
153	153	9
57	71	3
57	57	14
110	111	5
7	7	19
146	146	7
159	160	1
123	124	1
167	167	4
169	169	4
13	13	5
28	29	2
20	20	7
166	166	7
158	158	8
101	103	2
31	31	8
38	38	5
83	83	2
138	139	5
152	152	8
14	14	4
161	161	7
138	138	7
14	24	3
96	97	3
145	145	13
19	19	10
72	72	2
56	75	7
103	104	2
133	133	12
186	186	19
115	115	6
90	90	11
173	173	9
114	115	2
48	48	11
77	77	3
56	56	6
17	17	9
173	174	5
129	129	10
160	160	3
154	154	10
37	37	4
29	29	2
187	188	6
72	78	3
122	129	3
86	104	1
157	157	6
68	68	3
102	102	1
58	67	1
148	148	6
126	129	4
100	100	6
94	94	12
87	99	2
55	55	12
109	109	7
12	13	1
174	174	8
98	98	1
67	71	1
15	25	3
13	29	1
53	53	5
30	37	1
130	138	1
21	21	5
111	111	4
47	47	4
100	102	7
29	30	3
177	181	1
121	122	3
140	140	3
114	116	5
65	71	3
106	123	1
42	42	12
149	165	2
101	102	4
175	182	2
171	171	4
45	45	3
88	88	3
11	12	3
95	95	2
16	16	1
88	106	2
176	176	6
105	106	9
67	67	9
92	99	3
165	165	4
150	150	4
171	172	4
4	4	4
176	178	2
106	129	1
80	90	3
74	75	2
119	119	2
159	159	10
1	2	1
137	137	3
53	55	2
108	108	10
182	182	6
76	76	3
79	79	2
180	180	4
177	177	2
73	90	3
33	35	8
170	187	2
34	34	5
46	46	1
40	40	5
13	25	1
77	90	3
83	109	4
118	138	2
66	66	2
99	100	1
178	178	4
96	96	5
44	44	1
177	178	1
43	43	1
170	185	1
92	92	4
106	107	3
41	41	6
30	30	5
185	185	7
54	54	6
91	91	2
11	111	3
0	0	6
69	69	2
23	40	1
160	162	2
179	179	1
110	110	3
181	181	6
65	67	4
32	32	6
83	113	2
119	140	4
154	162	2
172	173	1
78	78	7
14	15	1
92	96	1
90	94	6
126	130	2
172	172	4
97	98	4
173	186	4
149	170	1
96	99	1
124	124	4
106	124	2
144	158	3
8	143	2
144	144	8
154	165	3
48	62	2
174	187	1
61	61	2
142	142	5
86	99	3
131	131	2
65	65	2
126	126	4
85	103	4
163	163	1
149	151	4
126	127	3
132	132	2
154	155	1
18	18	2
177	180	2
36	36	7
47	66	4
140	141	2
170	171	2
17	18	4
130	130	1
47	65	3
91	92	3
27	30	1
186	190	3
122	122	4
151	151	5
39	39	7
70	70	3
11	82	1
93	93	6
34	35	3
184	184	6
25	26	2
83	89	5
166	168	2
182	183	1
35	36	1
12	80	2
175	175	2
169	170	2
131	132	4
8	41	1
6	7	6
111	145	2
16	17	2
106	114	2
89	89	4
58	58	12
86	100	3
87	87	2
183	183	3
61	63	1
80	82	2
33	37	2
176	182	1
155	156	1
109	141	2
33	36	3
157	158	1
89	95	3
85	104	2
4	113	1
179	181	1
155	162	2
162	162	3
8	10	3
143	143	1
70	73	2
26	27	1
48	53	2
60	60	2
58	62	3
68	69	2
125	125	1
15	15	1
46	60	1
87	93	2
170	170	7
152	153	4
173	182	2
73	74	1
123	123	2
120	120	2
118	118	5
112	142	1
149	150	1
8	8	2
84	84	3
155	155	1
119	138	3
80	80	1
146	154	2
170	184	1
64	71	1
5	142	3
175	186	1
141	141	4
57	67	2
188	190	2
166	169	2
180	181	1
128	128	1
121	121	3
134	136	3
113	146	1
15	20	1
26	33	1
139	139	2
54	57	1
26	26	4
127	137	1
99	99	1
105	105	3
44	46	1
5	5	1
31	32	1
127	127	2
62	62	1
119	184	2
76	77	2
29	42	2
2	140	2
27	37	1
127	128	1
96	98	1
19	20	3
139	140	2
122	123	1
54	55	1
3	113	1
59	59	2
88	91	1
15	16	1
110	112	1
22	22	1
10	78	4
43	64	1
48	57	2
171	173	1
157	162	1
59	66	1
80	81	1
98	99	3
67	70	1
183	186	1
74	74	1
109	113	1
86	87	1
155	157	1
148	151	2
33	33	2
48	49	1
16	20	1
108	109	1
16	19	2
92	95	1
88	107	3
53	54	1
23	23	1
107	107	1
135	135	1
134	174	2
93	99	1
130	135	1
188	188	2
22	23	1
108	122	1
74	78	1
101	101	3
6	6	1
164	164	1
84	89	1
175	176	1
56	57	3
174	175	1
8	9	1
85	85	1
57	61	1
146	147	3
97	97	1
181	182	1
6	8	2
5	111	1
41	42	1
87	91	1
153	157	1
156	156	1
129	138	1
59	61	1
184	185	1
12	76	1
125	138	1
1	1	1
125	128	1
43	63	2
28	37	1
5	110	1
25	38	1
114	114	1
114	122	1
139	170	1
111	112	1
28	30	1
18	20	1
0	1	1
48	54	1
