96	97	3
49	49	8
27	27	14
69	72	1
9	9	8
6	7	4
124	143	3
46	46	11
5	5	11
160	160	7
12	47	7
131	131	6
11	11	21
2	2	3
152	152	6
20	24	1
137	137	10
48	48	3
68	68	5
102	102	6
67	67	4
57	57	12
121	122	4
53	53	3
162	162	3
136	138	3
8	8	5
166	166	7
156	156	11
157	157	7
6	52	2
80	80	8
152	153	1
143	143	9
167	167	8
134	134	16
129	129	12
38	38	15
26	86	9
97	97	12
69	70	5
101	101	14
17	69	1
3	3	16
81	81	5
40	40	7
85	86	1
83	85	1
75	76	3
121	153	4
89	89	18
153	153	4
78	160	1
139	139	4
110	110	11
81	83	9
10	12	3
70	70	4
138	138	9
84	85	2
4	42	3
163	163	3
153	154	7
118	119	4
112	112	10
72	72	4
121	121	8
128	128	7
122	122	3
116	116	7
7	52	2
106	106	7
86	86	9
74	75	4
117	117	4
156	157	6
52	53	1
118	118	11
7	7	8
155	155	30
35	35	8
1	2	7
148	148	6
25	25	9
129	130	5
114	115	5
151	151	6
37	37	10
105	106	5
144	144	11
48	55	1
18	18	13
50	50	1
6	6	9
134	142	2
114	114	13
136	142	2
54	54	15
71	71	9
119	122	4
11	46	2
17	17	14
101	104	4
130	130	3
107	107	9
49	50	3
111	111	6
164	164	7
127	127	6
66	66	2
131	132	4
74	74	11
69	69	3
19	69	2
141	141	6
102	104	4
10	11	5
149	149	7
97	168	4
105	105	6
15	16	8
159	169	1
88	97	5
98	99	3
34	34	7
109	109	5
6	54	2
64	86	2
74	84	4
93	93	5
94	95	5
90	90	9
122	130	2
142	142	7
25	28	8
22	23	2
45	45	4
103	104	1
42	44	3
17	18	4
0	0	6
20	21	7
73	73	5
135	135	7
95	95	3
118	125	4
143	144	2
143	154	2
24	24	4
88	88	6
91	93	2
139	167	1
64	92	1
46	47	1
88	89	1
122	136	1
42	43	1
41	42	6
119	119	2
28	28	7
13	13	3
150	150	7
52	52	8
54	55	3
56	56	6
53	54	3
83	83	11
159	160	3
19	19	6
101	105	2
167	168	2
154	154	11
25	72	4
121	129	3
20	22	2
146	167	2
22	70	1
63	105	3
4	4	4
1	24	2
89	167	1
100	100	8
122	143	7
75	75	1
82	83	3
47	48	2
20	20	11
18	48	1
133	137	1
135	156	3
126	148	2
85	85	5
111	117	3
96	96	4
66	96	2
89	166	1
91	94	1
42	42	9
15	19	1
26	26	5
108	108	4
79	160	2
98	98	3
15	15	6
168	168	4
155	157	5
132	132	1
102	103	3
2	134	1
12	14	2
57	161	2
26	27	1
7	90	2
41	41	2
120	120	4
22	22	5
24	25	2
141	166	1
72	85	3
93	94	1
138	140	1
113	113	5
51	51	5
0	153	4
70	71	2
161	162	2
14	14	5
1	54	3
82	117	2
136	140	3
63	104	1
52	55	2
159	159	6
39	40	1
120	123	2
21	21	7
1	53	2
7	49	2
100	103	1
145	148	1
124	125	6
120	121	3
36	37	2
16	16	3
79	80	1
36	36	12
47	47	1
84	84	4
92	92	2
126	144	2
169	170	1
65	65	4
34	38	3
160	161	4
123	126	2
66	83	2
70	72	2
21	24	3
134	135	6
13	47	1
89	94	2
76	160	1
25	27	2
45	46	2
148	149	1
158	158	9
104	105	2
136	136	5
77	100	2
26	79	1
111	112	5
5	24	2
134	153	1
13	22	3
116	117	3
66	67	4
104	104	1
80	86	2
43	43	5
56	75	2
12	12	3
101	102	3
4	7	3
11	45	3
13	14	4
55	55	4
12	48	2
130	150	3
130	149	1
129	137	1
163	164	5
125	126	6
90	94	2
126	126	3
39	41	1
22	49	2
79	85	2
79	79	2
12	13	2
106	108	1
146	146	5
168	169	1
6	49	2
2	3	3
87	87	4
16	18	2
125	151	2
38	39	2
135	151	4
84	117	2
148	168	2
27	28	1
125	125	2
147	147	3
25	57	2
161	163	2
23	64	2
127	129	1
133	133	1
64	71	5
145	145	1
161	164	3
1	1	3
14	15	2
91	91	3
5	7	4
26	84	2
23	63	2
91	92	2
99	99	1
76	76	1
149	151	1
39	39	6
158	159	2
92	95	2
161	161	1
165	165	2
126	132	2
103	103	2
138	141	2
99	100	5
63	63	3
139	140	2
159	165	1
157	158	1
43	44	1
136	152	1
150	151	1
100	101	3
46	50	2
170	170	1
77	78	2
130	131	1
115	116	2
166	169	2
33	33	2
57	62	1
85	87	5
101	155	1
21	22	1
82	91	2
55	73	1
71	72	3
115	115	4
37	38	2
78	91	2
44	44	2
11	13	1
9	10	3
106	107	4
115	127	3
57	84	2
92	93	2
117	118	2
90	99	1
154	155	3
11	12	2
110	111	3
101	160	1
113	114	1
83	94	1
124	124	1
42	164	1
133	134	1
43	159	1
143	153	1
141	168	1
62	62	1
63	65	1
141	167	1
64	66	1
144	154	2
122	131	1
107	108	1
7	8	2
74	81	1
67	68	3
87	88	1
164	165	1
3	41	1
155	156	3
133	154	1
55	56	2
40	41	1
4	6	2
131	154	1
90	97	2
106	110	1
88	105	1
138	139	1
43	158	1
139	164	1
137	138	1
10	10	2
169	169	1
144	145	1
3	56	1
87	98	1
115	147	2
161	165	1
142	143	1
82	82	1
131	134	1
35	38	2
156	167	1
62	104	1
129	133	2
64	64	1
