126	130	1
59	59	3
97	114	1
113	133	2
86	86	8
15	15	13
94	96	5
85	107	3
74	74	7
0	0	3
29	29	3
78	78	10
26	26	7
67	67	2
100	131	5
77	78	1
7	7	3
10	10	6
1	1	5
68	69	1
24	26	2
25	25	6
55	124	2
4	7	1
47	48	3
113	113	6
90	90	7
56	56	8
118	118	8
85	85	6
37	38	3
105	106	1
93	93	5
121	121	4
124	125	2
88	132	2
20	34	4
88	92	2
69	69	4
45	45	7
79	107	2
66	66	9
19	74	5
35	36	8
110	110	4
21	21	6
10	62	2
64	64	6
70	70	13
133	133	5
69	70	6
84	84	2
35	35	4
41	42	2
4	4	6
132	133	5
100	103	4
44	44	7
95	95	3
129	129	6
112	113	6
130	131	1
118	121	4
79	79	5
99	99	8
58	123	3
16	34	2
50	50	1
77	77	3
116	116	3
42	42	3
112	112	2
7	8	2
109	110	2
9	9	2
97	97	3
105	112	4
71	84	1
107	108	6
28	28	3
9	10	1
51	125	2
68	94	2
17	17	3
30	30	2
126	126	3
2	2	5
89	89	1
116	117	2
81	127	2
73	73	4
46	46	3
4	39	2
6	39	2
8	70	1
9	61	1
105	133	2
21	32	1
115	120	1
109	109	15
63	64	1
128	128	3
43	43	3
103	103	5
84	122	1
39	39	9
74	75	2
48	48	4
76	76	5
68	68	7
123	123	4
104	132	1
66	118	1
11	11	6
119	120	3
100	100	5
65	84	2
4	5	4
91	108	2
5	5	4
75	75	2
103	105	1
78	87	3
28	36	1
97	98	2
108	108	6
40	40	2
16	16	3
99	113	2
122	130	3
126	127	2
22	36	3
41	41	2
3	3	3
99	106	1
32	32	1
111	111	2
97	120	2
34	34	1
24	42	2
62	62	2
38	38	3
115	115	4
23	24	3
65	65	6
105	132	1
106	107	1
62	63	2
80	82	1
68	71	2
89	104	6
14	15	1
106	110	1
54	55	2
131	131	2
114	114	3
25	41	1
28	31	3
88	105	1
35	38	2
94	95	5
104	104	2
24	24	1
63	63	5
78	127	2
47	47	3
110	130	1
103	131	1
134	134	1
19	32	3
6	8	1
80	112	1
88	89	1
13	13	2
128	130	2
112	133	1
114	131	2
82	91	4
8	44	1
72	72	4
79	80	1
21	23	1
37	37	1
2	3	5
122	122	3
20	20	2
105	131	5
0	41	4
57	58	3
55	56	1
71	71	3
29	30	2
33	33	3
32	42	1
41	43	1
108	110	1
94	127	1
132	132	3
102	113	1
79	88	1
29	35	1
81	82	1
102	116	1
108	109	2
83	83	2
37	39	1
91	92	1
60	60	2
28	32	3
97	104	1
12	12	3
107	107	1
56	57	2
102	102	2
95	117	1
27	28	1
117	117	1
57	61	1
15	16	5
114	116	2
103	108	1
8	42	1
23	23	3
132	134	2
82	127	3
78	79	2
10	11	1
94	117	1
122	131	1
80	106	1
11	42	1
97	99	1
97	122	1
25	40	1
101	127	1
84	103	1
2	9	2
39	40	1
22	32	2
55	94	1
92	116	1
65	66	3
110	111	1
11	123	1
114	130	1
125	125	1
70	90	1
123	124	1
98	114	2
12	122	2
13	31	1
55	55	1
92	127	1
120	130	1
43	44	1
13	14	2
57	57	1
78	111	1
120	120	1
40	45	1
111	112	1
73	123	1
86	133	1
31	31	1
92	92	1
61	62	1
101	101	1
71	72	1
