152	153	3
90	90	5
117	118	10
25	25	13
105	106	4
158	158	9
160	160	3
62	92	4
152	155	4
40	40	7
142	142	11
86	86	7
154	159	1
65	66	8
108	110	2
9	17	2
110	110	7
50	50	13
52	53	9
93	93	15
114	115	11
84	85	4
19	20	5
158	160	3
50	51	8
118	148	16
38	38	14
39	39	18
128	142	6
175	175	15
81	85	1
17	17	8
169	169	10
115	115	14
2	3	13
53	53	12
138	138	14
121	122	10
130	130	16
53	66	4
149	149	7
39	40	5
145	145	9
151	153	10
81	86	2
148	162	2
16	16	11
102	102	9
22	150	1
153	153	10
136	137	4
150	159	2
13	42	3
137	138	2
66	141	9
6	6	9
146	146	16
27	27	15
3	43	5
108	108	9
103	103	10
125	126	1
9	9	5
116	116	17
121	121	12
84	91	2
147	147	6
164	169	3
149	159	3
114	114	5
64	64	20
118	119	4
76	76	8
174	174	10
109	109	14
88	89	5
111	115	5
159	159	12
168	168	12
67	67	13
5	43	1
92	92	11
41	41	16
139	139	5
115	150	3
120	127	3
10	10	9
20	21	1
143	146	1
121	126	1
2	2	9
20	23	1
120	120	6
165	165	20
156	156	9
91	91	14
73	73	17
62	62	18
113	120	2
55	55	12
15	15	17
161	162	3
1	1	12
170	170	5
31	32	10
106	106	8
50	54	2
43	43	18
164	164	9
72	72	15
9	24	2
58	58	8
74	123	1
85	86	2
105	105	9
5	6	7
122	122	12
97	97	4
38	81	3
107	107	10
18	18	1
169	170	1
89	89	12
128	128	5
42	42	15
30	30	14
113	150	4
83	83	7
68	75	7
126	126	15
68	68	7
118	144	3
101	136	2
66	164	2
33	33	7
36	37	3
13	14	2
117	117	7
3	4	4
155	155	11
123	125	4
79	79	8
111	111	15
62	63	4
60	93	1
119	120	2
11	11	8
24	25	5
104	104	12
75	123	1
79	81	1
163	164	5
136	136	6
135	135	7
87	88	3
54	55	3
176	176	16
20	24	1
105	107	4
71	71	7
92	93	7
107	109	5
28	29	2
56	57	4
44	44	10
177	177	8
29	30	3
6	7	2
31	31	7
134	134	10
75	75	13
26	26	8
137	137	5
59	60	4
119	128	7
54	54	6
21	21	7
166	166	9
72	75	1
141	141	3
107	108	5
60	60	17
123	123	15
53	54	5
144	144	9
142	143	5
101	102	4
66	66	8
14	14	13
157	159	5
51	53	2
151	151	4
8	19	4
140	140	17
88	88	3
108	109	6
134	135	4
80	80	5
101	101	13
61	98	3
67	164	1
33	35	2
100	100	3
152	152	5
22	24	3
61	62	1
122	169	3
83	84	5
142	153	2
127	128	7
50	83	2
113	113	11
96	97	9
95	165	1
165	166	3
154	155	6
94	94	10
179	179	1
62	94	5
107	130	4
42	43	1
41	81	1
4	5	1
44	45	3
102	128	1
18	23	4
22	152	2
142	148	1
157	157	8
81	82	5
7	7	8
132	132	14
85	85	10
8	42	2
102	103	4
143	143	8
3	3	8
57	57	5
129	131	1
8	11	2
13	13	2
123	124	5
61	88	4
102	142	3
90	91	4
178	179	2
101	126	2
9	10	3
64	95	3
121	123	1
65	65	10
81	81	4
104	106	1
63	63	6
77	77	4
150	158	1
148	148	7
38	39	9
108	125	3
178	178	11
60	61	3
75	79	1
125	125	9
58	75	1
28	28	13
140	141	1
161	161	7
84	84	10
9	11	4
131	131	7
45	46	1
55	59	2
172	175	2
162	163	1
112	112	15
22	22	4
52	92	2
52	52	2
104	117	2
146	170	2
166	167	3
40	41	4
19	84	1
132	173	2
61	61	9
95	95	11
155	156	7
56	65	1
163	163	9
98	98	7
99	99	8
124	125	4
100	135	2
173	173	6
162	162	9
63	140	1
154	154	6
150	153	3
78	78	9
61	95	1
130	131	11
61	136	1
164	166	1
129	142	1
158	159	3
37	40	5
37	38	4
110	111	2
124	124	12
63	64	2
143	147	1
44	51	1
63	65	5
0	0	13
71	72	2
134	170	4
56	136	2
20	20	5
108	111	4
106	130	1
148	173	2
59	59	8
66	119	2
127	127	9
75	76	3
89	90	7
135	170	3
122	145	3
4	12	3
36	36	11
19	49	2
27	28	4
103	105	4
172	173	2
171	171	6
119	119	5
119	127	5
25	28	3
65	68	1
82	85	2
83	91	2
162	167	3
76	77	3
74	75	2
45	45	14
129	129	2
7	11	1
117	145	1
174	175	1
5	5	8
132	172	2
157	158	3
128	143	4
8	8	4
72	73	2
167	168	4
6	41	1
9	14	3
133	133	2
104	142	3
24	32	4
77	78	4
106	145	1
120	121	1
119	121	2
35	35	6
172	172	4
134	139	4
86	89	3
32	32	8
120	122	2
126	153	2
78	79	5
44	52	2
55	58	1
53	59	2
12	12	3
118	118	7
24	24	6
102	104	2
54	59	1
6	33	3
159	160	5
37	37	7
63	94	1
97	98	1
156	157	2
111	112	1
1	2	3
64	92	5
8	18	5
135	136	2
17	18	3
58	60	1
86	88	3
115	145	1
23	132	2
29	31	2
64	94	2
65	141	1
1	3	2
125	153	1
23	133	2
58	59	4
29	58	4
43	44	2
54	56	3
15	16	5
57	136	1
96	98	1
34	35	1
129	130	3
83	98	1
133	173	2
34	34	1
105	116	2
106	108	1
80	81	4
59	64	2
130	152	1
157	170	1
70	75	2
177	179	2
11	12	2
77	80	1
94	118	1
180	180	3
25	32	2
30	31	4
106	107	2
119	143	2
116	149	1
4	43	1
145	146	1
113	114	1
3	11	4
161	163	1
148	167	2
29	29	1
96	121	2
91	92	2
129	143	4
120	140	1
49	82	1
8	9	3
59	90	1
40	68	1
101	145	1
33	34	1
149	178	1
18	22	1
96	96	3
74	74	1
34	37	1
150	150	3
104	105	1
95	166	2
141	142	4
70	71	1
166	170	2
154	156	1
51	51	3
167	167	7
108	117	1
96	122	1
1	43	1
41	43	2
5	13	1
5	7	1
71	122	1
1	6	1
71	121	1
87	87	1
117	126	2
26	30	5
16	17	2
5	10	2
19	19	2
126	151	2
56	58	2
103	104	1
144	145	1
97	169	2
49	49	1
56	56	3
99	100	2
120	143	1
24	26	2
168	171	1
131	132	2
72	76	1
112	114	1
127	144	2
6	10	2
61	94	1
67	166	1
163	167	1
9	12	3
55	56	3
84	90	1
105	117	1
66	167	2
112	170	1
119	160	1
83	85	3
23	27	1
56	137	1
57	58	1
153	154	1
29	56	1
112	113	1
120	126	1
27	133	1
23	131	1
57	170	1
157	160	1
4	4	1
116	145	2
116	117	1
34	134	1
65	87	1
16	35	1
10	11	1
52	54	1
135	166	1
128	129	2
136	141	2
90	94	1
82	82	1
148	149	2
41	56	1
78	80	1
117	144	1
63	93	1
28	101	1
14	15	1
173	174	1
63	146	1
54	67	1
90	168	1
131	133	1
79	80	1
26	32	1
151	152	1
