20	37	10
74	76	1
3	21	1
99	99	13
124	124	10
49	49	8
140	140	11
38	38	13
132	132	9
122	123	16
63	63	11
6	25	4
9	33	3
53	53	14
37	37	8
29	29	20
11	12	1
130	130	13
5	5	3
71	71	8
25	25	10
63	110	1
141	141	6
3	33	1
94	95	8
60	60	19
81	81	15
2	2	11
16	16	8
108	109	6
144	144	6
104	120	1
18	76	2
6	6	2
22	22	13
32	32	17
83	84	9
63	109	3
80	80	5
8	8	9
79	79	12
94	94	6
62	110	2
19	27	5
54	80	2
88	89	3
57	119	3
132	133	3
19	19	8
53	54	8
110	110	19
112	113	3
86	87	8
31	31	11
102	103	4
43	43	2
67	68	9
4	4	3
17	40	5
117	117	15
39	40	8
126	126	9
64	64	9
137	140	2
70	70	9
75	76	11
16	111	1
17	113	1
89	89	29
92	93	9
106	106	7
27	29	4
88	88	6
51	52	7
114	115	4
28	28	10
65	65	13
30	30	5
137	138	8
72	119	1
129	129	10
71	82	1
84	84	10
40	40	11
57	58	3
71	72	5
68	68	11
14	14	11
23	23	5
6	15	4
120	121	5
72	72	6
75	75	10
103	103	7
79	128	6
55	55	11
46	62	1
83	83	23
127	127	6
104	104	8
136	136	8
138	139	7
96	98	9
143	143	3
135	136	3
35	102	1
82	82	13
133	133	8
1	21	1
79	124	1
58	59	8
53	57	2
71	73	3
59	60	3
24	112	5
101	101	7
56	57	2
50	51	2
113	113	6
107	108	9
112	112	13
125	125	10
62	63	13
23	112	3
95	95	4
127	139	2
121	123	1
123	123	6
115	117	2
121	121	12
36	36	15
9	36	3
19	39	1
138	138	7
23	27	5
83	85	1
97	143	1
57	57	5
140	141	3
61	61	13
51	51	13
103	105	1
58	58	6
18	18	13
26	26	7
109	114	2
66	66	5
13	13	2
97	98	7
17	17	9
96	97	7
136	137	8
117	120	3
24	25	3
90	91	3
27	28	5
10	11	6
128	128	3
93	94	5
146	146	2
63	69	1
91	91	12
15	18	7
55	57	1
9	32	6
79	80	3
12	12	11
131	132	3
15	15	1
62	62	1
78	78	6
113	122	1
66	67	6
145	145	4
134	141	6
119	119	8
123	138	1
38	77	4
74	74	9
24	24	1
76	76	7
13	34	2
77	77	12
131	131	7
122	122	9
59	59	6
118	118	7
89	90	8
2	21	4
21	22	4
3	3	10
20	21	7
14	36	4
71	110	2
55	73	4
134	134	3
2	6	1
70	75	2
134	136	2
54	54	8
50	50	11
6	35	1
98	115	3
18	19	2
90	109	3
63	68	3
101	120	4
100	123	1
34	35	6
25	26	2
10	10	8
135	142	2
56	56	7
1	35	2
41	64	2
141	142	4
1	1	14
92	92	3
1	2	6
73	73	7
113	114	2
52	52	4
119	120	3
10	22	2
114	114	5
120	120	12
102	102	8
101	138	1
92	102	4
96	96	5
72	74	1
2	20	1
74	121	1
116	116	9
42	42	7
115	115	8
75	113	2
134	140	7
41	41	9
94	96	1
111	112	5
64	65	6
69	69	13
82	83	5
77	78	1
20	20	9
119	121	1
100	101	2
73	122	1
38	39	9
107	107	6
17	20	1
34	36	2
22	28	1
0	0	9
17	18	9
87	111	1
65	66	4
51	57	1
111	111	2
133	138	1
96	99	2
98	103	2
81	82	2
72	112	2
85	87	6
34	37	3
31	32	4
108	108	10
27	27	1
102	120	1
70	80	2
33	33	9
137	137	5
116	118	1
129	130	6
118	120	1
127	129	2
72	73	7
39	133	2
87	87	11
53	68	3
100	100	6
65	106	1
142	142	3
63	65	1
39	39	4
126	129	1
75	111	1
95	97	5
39	134	3
74	115	3
47	52	1
105	105	9
3	24	3
128	131	2
145	146	2
114	136	2
128	129	2
91	92	3
101	102	6
40	41	1
22	23	4
76	113	1
85	85	14
97	136	1
128	133	2
34	34	3
11	11	9
106	107	2
82	85	5
60	61	1
55	56	4
24	111	1
130	131	6
97	97	5
136	138	1
64	70	4
92	105	2
80	81	1
12	13	2
105	106	2
129	139	1
93	95	2
127	128	3
135	140	1
113	115	5
6	30	2
131	138	3
99	103	2
48	48	5
109	109	3
69	70	1
42	61	2
9	9	6
8	9	1
35	35	6
139	139	5
57	62	1
90	90	6
6	20	1
29	30	1
4	30	1
20	26	2
104	106	4
114	117	1
135	135	3
95	102	2
98	104	2
75	78	3
128	140	1
2	35	4
15	34	1
6	16	2
115	122	2
124	125	10
98	107	1
19	37	2
68	69	4
56	58	1
17	39	3
3	4	2
4	13	3
40	66	1
77	124	1
42	141	1
23	33	1
95	98	5
72	118	2
39	70	2
38	125	3
133	134	1
73	74	1
99	100	1
109	112	2
67	67	2
128	139	2
75	117	2
73	77	1
76	77	3
4	26	1
6	26	1
11	42	3
62	119	3
43	143	2
42	143	1
88	90	2
5	6	1
22	26	3
2	24	1
13	35	1
19	20	1
47	62	1
2	13	2
17	19	2
25	33	2
87	105	1
60	72	3
98	98	3
121	122	2
75	79	2
47	47	1
60	62	1
118	119	1
105	120	1
15	17	2
88	110	2
21	21	2
20	30	2
73	76	1
88	109	1
56	59	1
41	42	1
89	110	1
59	63	1
58	63	2
93	93	4
96	137	1
4	34	1
92	94	2
33	35	2
142	143	1
123	128	1
49	53	1
9	10	1
91	109	1
75	112	1
57	63	1
54	55	1
33	36	1
112	114	1
127	137	1
54	62	2
96	100	1
80	141	1
116	123	1
109	118	1
77	128	1
126	127	1
103	119	1
17	28	1
98	99	1
65	70	1
88	106	1
82	111	3
107	119	1
80	87	1
59	144	2
4	5	1
13	36	2
102	104	1
70	81	1
131	133	1
132	136	1
99	117	1
96	104	1
74	75	1
49	50	1
84	85	1
88	91	1
