159	176	4
155	155	3
54	55	7
103	124	3
19	19	6
151	152	1
22	27	1
103	130	2
204	204	3
22	23	1
167	168	1
42	42	9
60	63	5
197	197	3
32	32	12
178	178	4
191	191	7
54	179	5
223	223	4
58	58	6
208	208	5
12	12	8
127	128	1
120	120	4
58	135	5
39	40	2
189	191	3
55	55	3
193	194	2
123	125	2
242	242	8
212	212	4
4	5	7
177	177	3
38	38	12
64	65	3
106	107	1
233	233	4
148	149	7
123	123	5
171	171	3
40	88	1
105	106	3
208	217	6
134	162	3
234	234	13
26	26	9
181	181	6
173	173	6
193	195	3
167	167	4
84	85	1
27	27	2
198	198	7
211	211	8
202	219	6
228	228	13
57	57	4
139	166	1
41	41	4
119	119	12
23	27	3
24	24	1
186	186	2
121	121	2
98	98	4
20	27	1
37	74	2
48	48	8
86	86	7
99	99	4
39	232	3
123	126	4
192	192	3
141	164	1
165	165	7
33	33	2
104	129	3
0	1	6
205	205	5
40	40	3
29	30	1
230	230	8
241	241	2
172	174	2
19	68	3
158	158	5
72	72	6
196	196	2
66	66	7
5	5	7
105	105	4
144	145	3
189	194	1
140	140	7
145	145	9
49	50	3
137	138	4
168	171	3
158	187	3
216	217	2
30	31	6
222	222	4
46	46	2
31	31	2
28	28	1
221	221	12
103	103	4
116	116	1
209	219	2
141	146	1
86	118	3
210	210	5
151	151	2
195	195	7
145	146	2
136	136	6
13	13	4
35	35	5
63	68	2
184	184	2
156	165	4
120	146	1
23	23	3
54	54	8
77	77	6
64	128	3
106	106	3
29	70	3
194	194	3
198	199	3
182	182	9
156	157	3
142	142	2
218	218	6
56	222	2
58	160	1
76	88	3
216	216	2
13	15	4
107	107	4
26	29	3
56	223	3
155	157	3
224	225	10
59	59	5
7	7	12
101	101	5
60	60	7
112	113	5
158	178	2
226	226	4
24	25	4
75	75	4
190	218	4
69	69	4
104	104	4
135	163	2
68	68	3
44	45	7
51	52	5
134	134	8
200	205	3
138	138	1
225	225	3
204	212	1
224	224	6
170	170	1
80	80	6
15	21	6
113	113	2
12	14	6
154	155	4
102	104	1
12	22	4
190	217	5
47	47	8
238	238	10
194	196	2
52	53	2
153	153	6
57	159	1
128	128	4
64	64	5
103	104	4
15	20	2
149	149	6
65	65	2
44	44	7
67	67	1
76	76	4
213	213	1
30	35	1
22	28	1
2	2	7
239	240	8
196	215	4
112	112	8
229	231	2
215	215	3
37	220	1
204	206	1
29	29	3
82	175	2
156	156	5
197	203	1
46	172	1
37	232	1
31	34	1
186	190	1
38	75	3
120	121	1
156	185	1
8	8	2
226	228	1
52	52	4
46	182	1
189	189	5
118	118	5
78	78	5
150	150	1
122	125	1
237	237	3
122	127	2
204	210	6
103	129	2
202	202	1
4	4	2
51	51	3
131	160	1
81	81	4
217	217	6
159	160	4
61	61	2
85	86	2
206	206	3
139	149	2
43	43	2
36	36	1
239	239	3
101	102	2
124	126	2
125	125	1
21	27	2
17	17	2
188	189	1
144	144	2
190	203	3
89	89	1
30	32	3
11	11	4
214	214	3
149	150	1
110	110	1
59	60	1
159	159	5
74	74	3
30	34	6
147	148	1
20	20	4
221	224	2
17	231	2
129	129	3
141	141	1
175	175	4
186	194	3
228	229	2
66	67	1
220	220	1
143	143	6
61	129	1
1	3	2
168	168	2
71	71	5
203	210	3
200	200	5
169	170	2
16	16	4
177	189	2
235	235	2
225	226	2
108	108	1
84	126	3
82	82	1
143	166	1
25	25	3
102	124	1
70	70	2
124	124	1
49	49	1
197	198	1
72	73	2
197	217	1
213	214	2
118	123	1
100	100	1
37	75	1
34	35	2
148	148	1
100	116	1
242	243	1
53	53	1
131	131	1
133	135	1
59	68	3
45	47	1
202	242	2
1	11	3
81	126	2
187	187	1
215	216	3
160	161	2
39	225	1
206	212	4
190	190	2
95	127	1
203	203	5
21	21	4
15	37	1
117	117	1
20	37	4
138	142	1
155	156	2
202	203	3
182	183	4
65	67	2
50	51	1
146	146	1
23	34	1
183	183	1
236	242	1
22	22	2
192	196	2
73	73	3
164	164	1
219	231	1
19	69	2
127	127	1
157	186	2
174	179	1
185	185	1
83	148	2
137	137	3
57	58	1
150	151	2
50	50	2
128	131	1
81	83	1
125	126	1
110	111	1
85	85	3
224	230	1
232	232	2
3	3	1
157	174	3
235	238	2
21	22	1
30	30	1
172	172	2
7	8	2
139	139	2
231	231	3
85	111	1
104	130	2
132	135	1
130	130	1
190	194	1
124	129	1
179	179	1
188	188	1
40	41	3
114	114	1
87	117	1
34	34	3
6	6	1
199	199	1
37	63	1
44	46	1
42	117	1
47	153	3
177	199	1
221	223	1
166	166	1
81	85	1
95	95	1
80	84	1
65	66	1
37	37	1
63	63	1
0	0	1
206	217	1
9	9	1
167	171	1
7	82	2
238	240	1
8	11	1
77	97	1
121	122	1
73	105	1
173	179	1
141	142	1
96	105	1
66	222	1
104	105	1
226	227	1
103	127	1
