25	25	9
99	99	14
89	89	10
19	97	1
142	143	3
54	54	2
110	133	2
160	160	7
94	94	6
40	40	5
13	48	3
159	159	3
3	3	13
41	41	10
45	45	1
57	85	5
140	140	4
125	126	1
170	170	5
155	155	2
18	18	1
8	8	8
33	33	3
14	16	2
169	169	2
129	129	6
133	133	5
115	115	2
6	7	4
68	68	6
36	36	8
67	67	8
143	143	12
47	47	4
14	14	1
119	119	4
157	157	4
102	103	1
38	107	1
117	117	3
109	109	3
56	56	3
109	133	1
63	87	2
21	21	10
37	37	7
9	9	1
93	94	9
2	3	2
101	114	1
152	154	4
23	23	6
82	82	6
14	15	3
76	76	1
136	136	5
157	158	2
91	91	2
88	88	6
63	65	3
106	106	4
48	48	2
74	74	4
161	161	2
137	137	4
124	165	2
15	15	3
150	150	8
108	108	7
53	53	6
46	46	2
51	52	2
120	120	2
111	111	8
131	131	3
112	112	3
126	126	5
40	41	3
71	71	1
100	101	2
0	1	2
66	67	2
88	132	4
50	51	7
130	130	1
151	151	3
80	80	5
73	74	1
145	145	3
20	53	2
153	155	1
91	93	1
23	53	1
44	44	3
146	147	5
11	12	2
11	13	3
4	4	6
7	7	4
118	118	3
98	99	2
144	145	3
134	134	7
16	17	2
43	43	3
112	113	4
89	133	1
89	90	1
143	147	2
92	92	2
75	80	2
37	138	3
162	162	1
10	10	6
168	169	1
135	135	4
39	41	3
12	12	3
139	139	1
121	121	4
97	100	1
152	153	4
35	106	2
116	116	2
113	114	3
2	2	4
138	138	2
147	147	3
35	35	5
108	109	2
119	125	1
126	127	1
98	98	5
16	16	3
108	133	2
125	125	3
17	17	2
107	107	3
117	131	4
24	24	2
90	90	1
126	143	1
19	20	2
12	48	2
76	80	2
114	115	3
36	37	5
166	166	2
133	134	1
5	5	3
55	55	2
147	154	2
149	149	3
25	26	1
13	14	4
142	142	1
139	144	3
96	96	3
1	1	3
167	167	5
79	79	1
69	69	1
139	140	1
89	111	2
164	165	2
127	127	3
52	66	4
39	40	1
22	56	1
88	89	5
132	132	2
5	12	2
52	52	5
76	81	1
64	64	1
156	157	2
97	98	3
117	118	1
95	96	2
54	74	1
81	83	1
156	156	1
51	54	2
144	144	3
163	163	3
75	76	1
161	162	2
165	165	1
97	99	1
101	101	1
110	110	1
81	81	1
64	67	1
104	104	1
22	23	1
38	38	1
20	21	1
93	128	1
57	57	1
142	144	1
121	124	1
118	130	1
66	73	1
138	139	1
20	20	1
49	71	1
153	154	1
72	72	1
27	27	2
75	83	2
34	35	1
164	164	1
143	150	1
128	128	1
140	142	1
114	114	1
62	62	1
