18	18	13
20	20	16
25	25	16
4	4	4
36	36	8
77	77	10
98	98	13
104	104	5
26	27	6
112	113	9
32	32	8
82	83	7
64	64	12
12	12	16
41	41	19
99	99	6
107	107	6
128	128	2
115	115	6
71	71	9
133	134	2
124	129	1
119	119	6
62	62	5
127	127	3
14	19	1
86	86	14
111	134	1
62	63	5
75	76	4
123	129	6
55	127	1
11	12	7
24	24	13
27	63	6
29	29	5
88	88	8
14	14	9
5	5	16
2	2	8
86	87	9
115	116	6
73	73	8
23	23	9
121	125	1
88	109	2
126	126	10
93	124	5
82	82	9
70	70	3
43	43	14
68	68	6
109	109	12
124	124	24
45	45	12
46	46	4
85	85	8
40	41	1
94	94	12
107	108	2
17	112	2
125	125	11
57	57	9
92	92	3
66	66	8
46	47	4
64	66	1
118	118	9
28	28	7
13	14	2
69	69	7
15	15	9
108	108	6
35	35	4
37	37	8
61	62	3
2	3	4
43	44	2
101	101	5
59	59	14
127	128	2
63	63	3
116	116	1
21	21	2
114	116	2
86	90	2
1	9	2
45	134	3
113	113	4
16	42	3
38	38	6
65	65	10
130	131	5
123	123	3
10	10	12
58	58	9
34	34	7
79	82	4
6	6	7
93	130	1
100	113	2
78	78	9
30	30	7
55	126	2
126	128	5
27	28	6
68	70	7
26	26	4
23	24	4
36	37	3
49	132	3
30	31	3
28	63	4
61	61	8
103	105	2
48	48	4
33	33	9
31	31	2
72	72	16
110	110	4
67	67	6
18	108	1
132	132	3
14	15	8
134	134	5
68	69	3
93	133	1
130	133	21
130	130	4
35	36	3
84	115	3
56	56	6
113	116	4
11	11	10
118	119	1
16	110	3
33	46	4
100	100	9
79	79	3
125	129	4
107	109	3
55	55	4
111	112	1
0	0	5
117	117	10
9	10	1
16	43	1
5	6	1
103	103	15
114	114	3
95	97	3
111	111	3
27	27	4
29	58	3
109	110	4
113	114	1
78	119	6
89	89	3
20	22	1
66	68	2
81	81	4
81	123	4
93	93	3
79	80	5
70	72	1
133	133	6
81	122	1
47	47	10
110	111	2
29	30	1
129	131	2
22	25	2
20	21	4
39	40	3
84	85	2
3	3	3
112	112	9
92	93	3
40	110	1
43	110	1
94	95	4
60	60	3
28	29	4
106	106	2
93	100	3
34	35	1
122	123	4
122	122	8
58	59	2
95	125	2
114	115	2
103	104	1
90	90	2
94	129	1
19	19	4
49	131	2
95	95	5
69	70	7
24	26	1
16	109	4
44	45	1
16	16	2
79	122	4
28	58	1
80	80	3
48	131	1
93	125	3
42	42	5
47	64	2
83	121	3
124	125	4
15	16	3
110	133	3
4	5	2
76	76	3
17	111	4
91	92	6
83	83	6
101	112	1
1	1	3
47	63	3
96	96	3
104	105	2
108	109	4
32	66	1
19	43	1
74	74	6
83	92	2
47	134	1
74	75	1
22	22	5
100	111	2
44	44	3
105	106	2
19	20	1
108	111	3
120	120	3
74	119	1
93	94	2
38	131	4
36	129	3
33	34	2
49	49	1
21	22	1
74	118	1
17	44	2
1	2	2
48	49	1
83	87	1
91	91	3
117	118	1
37	38	2
57	58	2
112	116	1
102	102	5
7	7	3
16	17	2
100	130	3
33	68	3
123	124	3
72	74	1
31	35	2
25	30	1
21	43	1
131	132	1
83	91	3
19	44	1
90	91	1
87	87	4
129	133	1
10	11	1
120	121	1
39	39	1
129	134	1
17	18	2
36	46	1
95	96	1
67	72	2
87	89	1
89	90	2
13	13	1
72	73	1
3	7	1
84	84	2
85	120	1
4	8	1
9	23	1
21	37	1
99	100	1
102	106	1
32	35	2
20	37	1
87	121	1
94	130	1
