45	111	3
55	55	7
59	59	6
168	168	17
50	50	13
1	1	15
49	50	8
96	96	3
235	235	16
165	174	3
209	213	3
43	45	4
192	192	13
207	207	17
151	151	8
44	44	8
57	57	11
100	101	3
19	19	5
68	70	2
88	88	13
17	17	11
226	227	6
3	3	5
78	78	7
114	114	9
216	240	5
211	211	8
93	94	4
79	79	4
113	114	5
33	35	2
181	181	16
164	165	4
93	93	5
38	39	7
23	23	5
155	155	20
112	112	4
241	241	6
76	118	2
170	170	5
191	192	3
17	100	2
204	205	1
197	197	14
83	83	13
48	152	3
172	173	3
71	71	11
220	220	7
184	184	23
109	110	4
201	201	10
221	223	9
95	95	5
118	118	10
200	245	1
171	171	19
236	236	13
86	86	8
191	191	12
154	154	15
162	219	1
49	49	13
61	66	4
196	217	2
64	64	4
219	219	5
153	153	11
152	208	3
169	169	3
160	160	12
226	226	8
90	90	21
46	212	1
230	230	15
24	24	9
219	220	9
68	68	17
152	181	2
178	178	9
75	75	7
161	162	11
221	221	12
55	68	3
18	20	10
67	67	5
74	92	2
96	99	2
104	104	4
225	225	4
16	16	2
234	235	1
101	101	6
28	29	3
163	166	4
11	11	11
75	117	3
203	203	13
157	157	7
166	166	5
163	163	8
47	47	13
62	178	1
17	18	4
31	31	6
205	205	6
55	93	3
183	183	15
165	166	12
9	9	9
199	199	14
237	239	2
232	232	3
185	186	1
213	213	16
108	108	4
92	92	8
52	53	5
167	167	8
32	33	7
26	26	4
177	177	7
6	6	12
149	177	3
245	247	2
214	214	13
56	56	10
224	236	2
41	44	2
61	62	7
89	89	5
168	169	8
64	65	1
54	93	5
246	246	7
189	190	3
109	109	14
115	115	7
195	195	8
225	234	2
48	48	10
42	44	2
70	70	13
54	54	12
68	111	2
20	29	4
102	102	4
87	87	6
156	156	3
195	196	4
110	110	10
14	14	7
164	164	6
81	81	7
33	33	13
84	84	22
63	63	10
79	82	3
100	100	11
56	57	2
239	239	4
80	80	11
244	244	11
190	190	8
215	215	4
37	37	8
159	162	2
186	186	2
247	247	10
146	147	5
178	179	8
239	248	3
90	91	1
5	5	7
38	38	11
189	189	5
218	220	5
197	198	2
193	193	6
206	206	11
242	242	12
102	103	1
226	242	2
158	158	3
53	53	3
85	86	11
225	233	2
73	92	3
91	91	9
169	171	2
35	35	19
213	214	7
68	71	4
212	212	4
12	12	13
64	67	1
240	240	10
192	213	6
32	32	5
116	116	11
0	1	3
228	228	4
112	149	2
156	227	5
184	214	2
19	20	8
231	232	4
28	28	5
163	178	2
61	61	12
27	27	6
225	226	5
222	223	8
161	161	19
51	119	1
236	246	2
194	194	13
2	2	2
31	32	3
183	184	5
175	175	2
77	82	1
66	66	16
58	58	9
46	47	4
18	234	1
86	87	3
65	65	9
208	208	3
232	233	4
165	165	6
85	85	9
179	234	2
62	65	4
158	165	2
168	178	3
115	116	1
172	172	15
76	77	4
60	60	8
218	218	9
97	97	6
211	213	9
60	66	3
189	193	2
237	238	5
48	55	1
71	72	4
173	173	14
209	209	3
34	35	1
82	83	3
16	85	3
198	198	11
74	75	7
196	196	2
7	7	14
78	91	1
84	89	3
202	202	8
117	117	14
112	113	4
44	64	7
76	76	6
51	51	5
237	241	5
43	44	9
82	82	8
36	36	7
149	150	1
223	246	3
230	245	1
96	97	4
185	185	4
234	234	4
24	30	2
166	174	2
41	41	5
162	162	10
113	113	9
50	72	2
147	147	4
84	88	4
245	245	7
119	119	7
117	179	1
52	52	11
101	234	2
217	217	4
8	9	4
87	88	4
26	28	2
218	219	6
188	188	1
170	171	3
92	93	1
34	34	4
231	231	9
99	99	3
55	57	1
180	180	13
8	8	7
187	187	7
207	210	2
157	158	2
48	57	2
23	24	3
229	229	6
73	73	9
185	187	2
5	7	2
210	213	1
180	182	2
94	94	9
160	234	3
56	112	1
57	58	2
152	157	3
79	80	1
164	176	2
95	96	6
114	171	7
15	41	1
95	97	2
2	3	1
46	151	2
86	95	1
183	214	2
228	229	3
200	200	13
42	43	2
74	74	2
21	22	5
48	119	4
150	151	2
90	95	5
48	77	4
98	98	6
146	159	1
201	203	5
185	199	4
243	244	6
224	224	8
29	29	5
162	220	7
163	164	2
99	107	2
109	149	3
248	248	4
211	221	3
102	105	2
186	188	3
105	106	6
91	210	1
152	152	1
69	69	11
192	193	2
22	22	8
224	241	2
5	34	5
211	212	2
179	179	5
34	37	2
50	51	1
187	188	6
239	240	4
175	176	4
6	36	2
245	246	6
77	120	1
95	109	1
67	69	1
11	93	1
167	169	3
29	30	3
55	110	1
237	237	4
73	94	1
152	209	4
236	247	1
206	207	4
215	216	7
51	113	2
114	172	3
147	231	2
36	85	1
217	218	3
121	180	3
96	112	3
169	175	2
8	10	3
8	13	1
42	42	5
243	243	3
80	81	2
161	178	2
57	86	1
227	227	3
182	183	5
94	95	2
69	70	8
245	248	2
184	215	1
150	150	2
43	43	5
40	44	1
159	160	3
91	92	2
40	40	4
175	178	1
164	166	1
6	37	3
166	170	1
176	176	3
235	236	4
55	112	2
196	216	3
0	6	2
81	82	2
14	231	5
21	21	1
116	117	3
204	204	4
202	230	2
236	237	3
222	222	7
101	102	2
190	193	2
227	236	1
163	176	1
248	249	1
54	55	5
217	219	5
102	104	2
46	225	2
4	4	4
167	173	1
46	62	2
198	199	1
214	224	2
198	200	2
7	37	1
111	112	2
53	54	1
50	92	3
67	71	1
220	221	1
220	225	1
75	77	1
243	247	2
174	174	3
88	89	1
103	103	4
15	15	5
223	223	5
35	81	1
120	120	6
110	111	3
22	52	3
195	214	4
210	211	2
77	77	5
10	10	2
160	161	2
109	204	4
20	20	5
96	98	3
202	231	2
208	209	2
78	84	2
182	182	6
97	111	2
107	107	4
22	23	1
26	27	2
17	53	2
6	7	6
186	187	1
221	222	3
209	214	1
72	94	1
98	99	1
183	213	1
105	105	2
70	174	1
63	64	2
72	72	6
9	15	1
57	67	1
217	238	3
25	25	2
15	18	5
227	228	2
44	45	2
102	109	1
221	237	1
62	63	1
203	204	2
4	34	1
181	208	1
45	45	5
116	180	3
70	71	1
249	249	1
200	204	1
46	46	8
12	31	1
199	247	2
77	154	1
112	119	2
58	59	2
185	230	1
169	231	2
152	182	2
75	90	2
46	110	1
56	72	1
11	18	1
96	108	2
58	60	2
66	67	3
147	159	1
202	203	2
17	20	3
210	210	1
63	65	2
158	167	1
100	102	1
209	210	2
84	85	1
166	176	1
101	103	1
79	81	1
75	173	3
172	194	3
62	62	7
59	70	2
25	26	4
216	216	2
197	199	1
167	168	1
43	53	1
216	223	1
72	75	1
151	205	2
87	89	2
200	201	2
114	170	1
86	96	1
144	144	1
182	214	2
55	56	3
201	202	1
119	213	1
156	157	2
92	211	1
67	68	2
183	204	1
76	173	2
110	203	1
60	218	1
8	36	1
73	86	1
40	41	1
14	96	2
171	172	1
111	111	1
220	246	1
11	12	1
119	120	1
179	180	2
98	231	3
50	87	1
233	233	1
60	177	1
240	249	1
159	159	1
18	232	1
106	106	3
159	165	1
73	95	1
74	118	1
190	199	1
194	195	1
119	209	1
68	69	2
69	110	1
153	157	1
78	88	1
167	234	2
1	2	2
8	94	1
4	78	1
75	76	1
8	16	1
77	89	1
10	17	2
198	244	2
76	89	1
30	31	1
111	231	1
164	181	1
47	54	1
36	52	2
198	246	1
76	81	1
100	110	1
47	48	2
188	189	2
232	243	1
37	38	1
229	244	1
4	5	1
21	43	1
152	207	1
162	163	1
96	109	2
173	175	1
85	99	1
12	156	1
113	233	1
93	180	1
153	159	1
207	208	1
238	239	1
18	18	1
176	177	1
