67	67	4
150	150	13
22	22	6
21	21	3
38	39	4
12	12	3
52	52	4
119	119	5
93	96	1
8	8	5
112	113	1
156	156	10
42	42	23
19	19	2
36	37	1
131	131	9
65	131	2
38	38	9
114	114	11
66	130	2
45	46	2
65	67	1
68	68	4
122	123	3
44	44	9
1	1	4
151	151	7
37	37	7
150	151	2
20	53	2
101	125	2
79	95	3
161	162	1
89	89	5
0	0	3
10	10	5
51	55	2
154	155	3
110	111	2
148	148	3
105	106	2
112	112	4
71	73	3
149	149	7
15	16	1
62	63	5
27	27	7
121	122	3
122	132	3
138	139	3
3	3	3
136	141	2
2	2	7
109	109	14
63	63	4
11	11	2
141	141	1
133	133	2
111	111	8
126	127	4
83	83	4
77	77	8
26	26	6
101	102	2
147	148	5
53	53	11
116	117	1
6	6	3
5	5	7
13	41	2
107	107	5
9	128	7
108	108	8
67	68	2
143	163	3
129	129	8
42	45	1
7	7	9
33	33	2
163	165	1
143	144	2
92	92	2
42	160	2
161	161	4
84	86	2
94	94	17
125	125	2
82	82	4
16	17	2
24	25	2
84	85	1
120	121	1
130	165	1
14	53	2
168	168	8
123	160	9
49	49	4
17	17	8
79	79	2
8	23	1
125	126	5
160	160	3
127	127	11
47	47	3
56	56	4
19	55	1
74	74	6
155	155	6
37	38	7
36	36	4
135	136	5
137	138	1
74	84	2
154	154	4
78	78	4
140	140	1
120	120	2
103	103	2
84	84	3
93	94	1
69	94	6
133	137	1
137	137	5
11	128	1
147	149	2
134	134	2
44	46	4
119	165	2
38	41	1
162	162	9
156	157	1
167	167	4
126	126	5
50	50	2
20	20	2
43	43	1
87	92	1
52	53	2
81	81	3
118	118	4
69	69	3
169	169	3
163	164	1
97	97	2
9	10	5
91	91	8
132	132	2
72	72	3
163	168	1
75	75	5
48	48	1
38	40	2
157	158	5
70	70	1
46	46	3
164	164	1
136	136	2
125	130	7
150	158	1
166	166	2
8	22	1
135	135	4
139	139	1
124	125	1
104	106	2
34	34	3
125	127	1
87	87	5
128	128	6
3	4	1
41	42	2
6	51	2
108	109	1
26	27	1
170	170	2
25	25	2
40	40	2
114	115	1
13	13	4
76	76	2
146	146	2
18	20	1
37	41	1
134	142	1
113	113	1
110	110	9
106	107	2
66	94	1
100	101	2
130	135	2
94	95	1
22	23	1
156	168	1
17	18	2
130	130	2
138	138	2
44	45	2
158	158	3
130	163	3
35	35	3
73	73	2
62	62	1
97	105	1
99	99	2
14	14	2
86	86	2
139	140	1
45	45	5
1	2	1
71	84	3
41	41	4
143	143	2
95	96	4
123	123	2
88	88	1
64	64	2
158	159	2
71	71	1
39	39	1
92	99	1
101	101	2
165	165	2
76	77	1
147	157	4
87	88	4
42	43	1
49	50	1
46	64	1
93	93	1
105	105	3
123	146	1
124	124	1
88	91	1
19	45	1
71	83	1
14	15	1
64	68	1
119	142	1
11	150	1
147	158	1
50	55	1
18	18	1
90	91	1
91	93	1
39	41	1
12	13	1
