15	86	3
31	31	2
30	30	3
56	100	1
71	71	5
53	53	4
15	98	1
79	79	5
27	28	3
0	0	3
11	12	4
77	77	4
62	62	5
91	91	3
35	35	5
14	52	2
32	32	1
98	98	4
54	54	4
64	64	2
84	84	3
28	28	3
33	48	4
20	20	1
57	57	2
55	55	1
12	12	7
22	24	2
35	105	3
0	1	1
68	69	5
34	35	1
119	127	3
130	130	2
75	75	4
57	100	3
125	125	2
60	60	2
118	126	1
75	110	2
58	78	2
65	65	8
71	72	2
43	43	1
49	50	5
102	102	6
27	27	1
103	103	6
123	123	1
115	115	4
24	24	5
50	100	6
90	91	1
37	37	2
105	105	7
31	32	3
73	77	1
5	5	2
78	78	4
60	61	2
59	59	5
127	127	2
62	63	7
17	64	1
22	69	6
89	89	2
117	117	3
7	7	2
67	132	1
9	11	6
52	89	2
122	122	3
121	121	2
16	18	3
68	68	1
86	86	3
97	97	5
128	128	5
36	36	3
70	98	1
62	128	2
58	58	3
56	57	1
0	93	2
82	107	3
50	50	2
111	117	2
19	19	5
27	123	2
82	82	4
26	26	7
5	56	2
67	92	1
80	80	1
87	87	9
8	8	2
14	18	3
47	117	3
115	126	2
18	19	3
8	62	1
72	95	1
11	24	4
106	106	3
23	53	1
111	116	2
124	124	2
2	2	1
132	132	4
63	63	2
14	14	2
4	5	4
11	90	1
69	70	1
101	102	4
4	4	2
33	33	2
19	21	3
118	118	2
128	129	1
1	1	3
9	87	4
97	133	1
10	11	2
16	16	1
57	87	2
85	114	1
113	113	2
54	55	2
92	93	1
25	25	2
114	114	3
49	49	3
12	101	1
72	72	5
72	93	1
65	96	2
100	133	1
6	6	1
119	119	4
110	113	1
66	66	3
111	111	2
55	107	2
96	107	3
2	45	2
134	134	1
120	127	3
83	83	2
115	116	2
110	110	3
118	128	1
65	66	2
22	22	2
94	95	1
116	116	1
76	78	2
120	120	1
29	29	1
6	14	1
47	47	1
108	108	1
81	81	1
70	70	3
21	21	2
23	24	1
83	107	1
95	95	1
94	96	1
45	104	1
4	96	1
9	55	2
44	44	1
60	78	2
18	18	2
90	93	1
28	48	2
52	99	2
109	131	2
34	34	2
109	110	1
94	94	2
14	61	2
88	88	2
9	23	1
34	36	1
3	3	2
112	112	1
23	23	1
10	21	1
91	92	1
11	11	1
45	99	1
1	35	1
17	17	3
74	80	1
17	26	1
73	73	1
106	109	1
33	34	1
21	126	1
119	120	1
33	45	1
115	133	1
14	47	1
13	99	1
133	133	1
15	15	1
76	76	1
53	85	1
13	13	1
45	102	1
45	45	1
8	9	1
36	44	1
26	103	1
108	109	1
82	109	1
104	104	1
110	116	1
38	77	1
