5	7	4
98	98	2
155	161	1
43	45	1
168	169	3
4	4	5
68	72	1
148	159	4
17	127	3
2	2	5
97	115	3
12	23	1
87	87	2
40	40	2
17	22	2
108	119	1
127	149	2
15	17	1
110	111	5
163	163	2
5	6	3
135	140	1
123	140	4
43	43	4
11	11	3
4	6	4
15	16	2
146	164	2
109	124	4
159	159	14
138	138	3
164	164	2
145	165	2
91	97	1
81	84	5
143	156	2
153	153	4
150	150	6
136	137	8
125	125	8
124	124	2
127	128	4
24	34	2
11	28	1
90	91	3
136	145	2
158	158	5
82	89	4
47	64	1
53	54	3
80	82	2
44	45	8
113	122	4
96	97	3
54	55	2
131	132	3
14	14	6
96	121	1
97	97	7
142	160	2
71	78	5
3	10	4
122	123	2
128	130	3
153	154	2
85	89	4
73	73	2
102	105	1
56	56	2
118	133	2
140	141	6
101	103	3
37	37	3
97	121	1
27	39	3
114	118	2
162	164	2
168	170	2
69	80	2
105	115	1
103	110	3
17	18	4
3	9	1
84	87	4
21	21	3
38	50	1
71	79	3
27	46	1
168	168	6
166	166	3
24	24	3
146	146	4
52	57	1
40	48	7
125	126	1
111	123	7
16	16	3
151	156	4
10	10	9
87	93	4
127	130	4
74	75	2
52	53	1
2	9	4
160	160	2
83	108	3
84	85	6
49	49	1
163	164	7
16	129	2
110	116	6
149	167	1
149	149	3
16	130	6
19	35	1
28	38	5
65	88	3
145	146	3
109	114	2
102	103	2
77	84	3
158	160	3
81	82	1
91	91	6
42	50	1
157	157	5
130	146	2
85	95	4
124	127	3
88	109	1
101	105	1
108	108	8
140	144	6
1	21	3
133	150	2
17	99	1
9	11	1
2	34	2
140	142	1
121	123	6
166	167	5
33	42	2
97	102	1
72	73	9
107	114	2
149	150	1
49	53	1
115	120	2
109	109	1
98	99	1
51	55	2
50	51	3
4	5	4
57	57	2
68	76	3
46	48	3
101	123	6
136	136	2
76	76	2
14	135	1
12	15	2
165	169	4
85	85	6
25	43	1
74	74	1
38	52	3
156	158	5
13	15	1
18	21	6
18	20	1
0	24	2
112	114	4
99	115	1
104	104	1
165	165	2
93	97	7
1	27	1
73	90	1
125	143	1
148	149	2
44	44	5
15	102	1
27	37	1
100	102	3
1	22	1
162	163	11
10	13	5
37	50	3
79	80	3
151	155	2
145	147	2
124	133	2
47	47	2
118	119	2
94	99	5
120	120	2
78	78	1
156	156	3
130	136	1
70	71	2
17	17	1
14	16	1
120	123	1
170	170	3
27	27	3
139	140	5
125	148	3
133	134	1
36	36	2
56	62	2
25	26	4
85	106	2
103	128	2
103	124	5
68	68	1
56	57	3
7	9	3
100	125	1
141	141	2
164	169	2
6	7	4
142	143	3
122	125	1
148	150	1
70	77	3
77	108	2
135	136	3
144	167	2
54	57	7
161	161	2
142	142	3
95	95	3
127	129	3
17	21	3
65	67	5
5	11	4
97	101	1
9	26	1
150	151	4
70	82	1
24	25	2
147	149	2
53	57	1
20	99	1
141	144	2
152	162	2
105	105	4
42	45	2
72	78	5
84	86	1
8	9	4
124	128	4
35	38	1
85	88	3
5	5	1
141	168	4
121	122	6
137	138	1
132	162	4
125	133	1
114	119	3
0	0	3
143	144	1
131	133	2
98	124	1
104	108	3
144	144	2
86	90	1
4	13	2
62	63	6
135	139	1
63	76	2
119	129	1
137	137	4
47	51	1
166	169	1
154	158	3
145	145	5
55	55	1
122	122	1
148	156	2
38	39	2
40	41	1
154	162	2
160	162	1
160	170	3
82	82	3
52	52	4
11	18	1
110	113	1
51	51	5
114	117	1
164	165	2
35	50	2
146	149	1
33	45	2
96	100	2
19	37	1
129	147	3
21	24	1
82	115	1
10	11	1
11	24	2
22	22	2
14	26	2
116	144	4
137	139	1
153	168	3
81	102	1
133	133	4
155	162	1
100	100	1
143	149	5
165	170	2
70	79	3
91	111	1
97	99	3
156	157	2
6	28	1
105	113	4
40	49	2
113	116	2
9	22	1
1	2	2
87	116	2
143	146	1
137	170	3
19	21	2
154	154	1
152	152	4
158	159	3
127	148	1
163	167	3
120	132	1
88	110	4
0	3	4
157	159	1
133	151	2
121	140	1
130	133	1
138	139	1
35	35	1
149	162	1
121	121	2
55	56	2
142	170	1
123	126	1
119	132	1
108	125	2
82	83	2
94	96	1
90	93	2
143	147	2
130	130	2
15	99	2
51	54	2
9	13	2
134	142	2
115	117	2
122	130	1
65	70	1
160	164	1
35	108	1
39	40	1
3	3	1
143	163	3
169	169	3
123	132	1
41	45	2
155	155	3
65	66	4
135	148	1
89	89	1
145	149	1
69	69	3
143	158	2
146	150	2
114	114	2
42	44	2
129	133	1
13	18	1
124	126	1
138	155	2
8	13	4
123	146	1
115	116	2
11	13	1
49	58	1
57	89	1
88	88	4
38	41	3
98	105	1
167	167	3
99	100	2
112	131	1
83	83	1
69	70	1
123	123	1
47	50	1
14	15	1
86	119	2
83	102	1
127	127	1
73	87	1
22	24	1
169	170	2
64	64	1
134	148	1
142	148	1
67	69	2
13	22	2
138	141	2
160	161	2
131	135	1
73	93	1
143	150	1
58	58	1
139	139	1
147	168	3
128	139	2
151	159	2
35	39	2
0	15	2
7	7	1
26	26	2
148	166	1
106	110	1
122	144	1
115	135	2
27	43	1
121	144	1
153	155	1
68	71	1
92	93	1
115	115	2
79	79	1
116	135	1
81	85	4
52	56	3
145	170	1
108	127	1
25	25	2
36	38	2
140	140	2
167	170	2
41	41	1
34	36	1
37	39	1
122	142	1
151	151	2
6	8	1
41	51	2
135	141	1
109	113	1
150	166	2
90	103	1
62	62	1
101	124	1
108	115	1
128	129	3
108	130	1
48	48	2
17	135	1
133	136	1
101	109	1
40	58	1
104	112	1
95	117	1
93	96	1
36	102	1
2	5	1
71	71	1
98	102	1
17	19	1
104	107	1
94	95	1
122	143	2
132	152	1
134	134	1
134	152	2
135	135	1
33	40	1
130	131	1
12	39	2
155	159	1
38	49	1
159	160	1
126	126	1
13	20	1
52	58	1
12	12	1
63	63	1
117	123	1
0	9	1
120	144	1
162	167	1
107	121	1
40	43	1
148	148	1
35	105	1
64	68	1
