12	19	2
64	64	5
127	128	1
56	56	2
85	85	7
27	31	1
78	78	2
129	133	9
15	106	2
124	125	1
68	69	5
12	12	7
124	124	4
123	123	5
122	123	2
122	122	2
54	61	1
97	97	4
129	131	8
16	16	3
54	54	5
120	120	8
29	30	4
70	70	4
46	101	2
115	117	3
21	21	3
10	10	3
63	63	4
92	93	3
32	32	5
8	9	2
43	43	2
5	107	3
28	28	5
49	50	1
5	5	4
60	60	3
95	95	1
45	45	1
86	130	2
75	75	8
79	131	3
65	65	5
66	66	6
65	68	1
0	68	1
13	18	2
3	3	4
125	134	1
128	128	2
66	107	1
57	58	6
24	24	5
49	98	2
100	100	1
14	106	1
78	96	1
53	61	2
93	93	2
133	133	4
76	77	1
28	32	1
126	126	6
104	104	6
9	9	3
24	33	3
79	79	5
69	69	3
48	92	3
113	113	8
8	10	9
62	62	6
50	50	1
77	130	5
58	59	1
44	44	5
13	107	2
63	108	1
71	119	8
43	62	2
9	18	1
11	11	1
98	98	6
31	31	8
96	98	2
59	60	1
47	98	2
85	124	3
131	131	2
58	68	2
34	109	1
85	132	2
96	97	3
0	0	2
114	117	1
56	57	1
124	130	1
89	89	1
26	32	4
92	96	1
75	94	7
87	87	5
116	116	2
76	76	2
0	126	1
101	101	6
4	4	6
96	96	3
54	56	2
72	97	1
103	103	6
99	99	1
6	7	4
2	2	4
70	106	4
47	56	1
6	6	3
14	70	2
72	72	5
28	30	1
79	86	2
88	88	2
23	23	3
112	112	3
14	69	1
35	35	3
28	31	2
22	23	3
79	83	2
117	118	1
108	109	1
108	110	3
70	105	3
73	73	1
19	21	2
57	57	5
86	86	3
25	32	1
52	76	6
80	119	3
1	2	1
99	100	2
91	92	1
104	105	2
114	114	3
34	110	1
44	49	1
67	67	2
20	20	3
30	30	6
61	61	1
55	55	3
74	74	1
105	105	2
62	76	1
36	36	3
58	58	1
38	38	1
25	31	1
64	65	3
73	88	1
10	11	1
71	77	1
111	111	1
84	84	2
109	109	2
102	102	1
52	52	2
73	81	1
60	61	1
85	86	1
14	14	2
68	68	1
105	106	2
58	64	1
49	54	1
4	8	2
27	32	2
82	85	1
106	106	1
90	90	1
50	67	1
120	121	1
94	94	1
7	7	1
7	8	2
17	17	1
43	76	1
65	67	1
0	69	1
24	25	1
82	82	1
113	115	1
17	25	1
1	1	1
45	63	1
129	129	4
51	52	1
117	117	1
18	18	1
89	90	1
25	26	1
73	74	1
16	21	1
37	37	1
57	60	1
8	8	1
54	55	1
59	59	1
47	92	1
63	76	1
71	72	1
27	28	1
22	22	1
34	108	1
