57	57	4
8	11	2
10	10	7
25	25	11
79	83	2
41	42	4
149	150	2
110	136	1
46	76	1
40	40	8
70	72	3
113	114	5
23	119	1
151	151	6
3	4	4
10	11	2
47	47	10
76	76	1
37	44	5
73	73	13
138	139	2
102	103	1
116	116	14
140	141	4
52	52	2
69	70	3
20	20	8
18	18	4
73	74	3
126	128	4
22	28	1
70	70	12
68	142	3
5	5	6
109	110	1
109	128	6
40	133	2
38	43	3
111	111	6
146	146	11
77	77	7
24	24	6
7	7	7
35	35	14
24	25	2
86	93	2
45	46	1
102	128	2
82	88	1
102	127	2
84	84	7
149	149	3
11	33	6
48	48	4
65	66	3
83	83	6
103	104	3
108	110	2
150	150	13
33	33	4
99	143	1
113	113	4
91	110	4
31	31	5
14	20	6
18	70	1
120	120	2
53	121	2
7	8	7
4	27	4
129	129	4
34	34	3
75	76	2
134	134	6
25	113	10
38	55	1
83	141	3
13	23	1
128	128	8
146	151	3
51	56	1
5	6	3
123	123	5
77	78	7
119	151	4
80	84	5
13	13	6
71	71	2
49	49	3
24	47	1
82	82	8
38	52	2
54	56	5
16	57	3
43	46	1
71	75	1
12	12	4
3	3	3
23	26	2
74	74	2
23	97	3
115	115	7
15	74	5
43	43	4
68	68	5
83	86	2
28	28	3
90	99	6
84	85	8
109	109	3
51	51	5
29	29	4
18	52	2
26	27	5
151	152	2
100	100	3
86	87	1
95	95	5
96	96	2
106	107	1
21	21	6
15	15	8
99	110	3
101	149	2
114	114	7
153	153	3
37	37	5
110	110	4
102	102	5
46	46	4
69	136	2
70	71	1
19	24	8
97	124	4
108	124	2
145	148	2
4	22	2
53	112	3
79	79	9
11	11	4
112	112	5
85	85	7
111	134	2
66	74	2
74	83	1
94	94	7
132	132	8
16	16	10
7	38	3
98	122	3
108	108	4
69	69	6
63	63	7
87	87	5
117	117	8
19	25	14
49	50	5
7	32	4
139	139	2
131	131	6
103	117	1
19	19	4
148	148	3
114	139	4
47	53	1
52	55	4
67	67	4
121	121	3
55	55	4
27	27	2
72	86	3
79	87	2
47	107	2
87	88	1
42	154	1
107	147	1
12	13	5
101	101	3
119	119	4
99	141	1
56	56	1
79	141	1
100	111	2
22	33	5
73	142	3
80	80	2
12	26	1
44	44	2
29	110	3
15	17	2
68	102	5
5	38	1
95	123	1
96	114	3
62	62	1
132	133	1
9	9	2
90	90	5
113	135	3
38	120	1
92	93	3
134	150	1
147	147	2
86	86	6
106	106	2
10	55	1
93	93	3
69	105	1
12	23	7
64	65	1
135	135	3
57	98	2
147	148	1
78	78	2
139	140	2
118	122	4
127	127	3
110	137	2
17	17	6
53	53	2
22	150	1
14	14	2
117	141	2
94	126	1
138	138	3
19	73	4
55	58	2
81	90	3
100	147	2
107	132	3
85	137	1
83	87	1
5	23	1
99	99	7
8	17	2
40	137	2
39	40	4
83	84	1
122	122	5
48	50	3
28	30	3
24	113	4
146	148	1
154	154	5
118	118	4
137	139	1
120	121	3
63	64	3
23	23	3
4	4	1
52	120	1
137	138	1
104	105	1
124	124	2
8	12	1
129	130	3
128	150	2
80	81	3
75	77	1
141	141	1
153	154	2
127	144	3
23	39	1
148	151	2
103	124	2
144	144	1
21	22	1
22	23	1
126	126	2
127	151	2
111	112	1
13	27	2
110	111	1
8	9	2
9	11	1
20	21	3
93	94	1
95	96	4
136	136	4
71	73	1
28	29	3
63	139	1
133	134	1
40	111	2
97	97	3
116	123	1
152	152	2
86	145	1
123	124	1
40	134	2
8	8	2
87	104	1
45	45	2
18	28	1
47	48	1
66	88	1
36	36	5
98	124	1
100	109	2
82	120	1
85	86	1
15	77	1
111	136	3
55	56	1
135	153	1
10	41	3
63	86	2
101	107	1
72	72	1
64	86	3
82	104	3
39	39	1
13	24	1
32	32	3
21	33	2
65	65	1
16	27	1
15	16	2
29	94	1
144	149	1
32	76	2
96	115	3
143	144	4
63	77	1
82	103	1
6	6	2
56	58	1
112	134	1
41	137	2
125	125	1
64	66	2
48	100	1
110	134	2
106	130	1
104	104	2
6	9	1
71	78	1
42	42	2
18	45	1
140	140	1
147	153	1
141	142	1
144	145	1
13	16	1
23	24	1
102	108	1
42	153	1
40	41	1
93	126	1
53	120	1
38	38	1
9	21	1
20	41	1
69	124	1
18	19	1
