6	28	3
52	52	16
154	154	3
65	65	9
99	99	14
15	15	9
10	10	3
186	186	11
61	61	13
41	41	12
187	187	25
186	189	6
77	79	2
17	18	4
30	30	13
23	25	2
70	70	8
79	80	5
4	4	6
146	146	7
152	153	3
31	70	3
39	39	12
17	17	5
103	177	3
96	166	3
84	84	7
166	166	10
76	76	12
82	82	5
149	149	2
159	159	8
76	81	4
108	108	13
36	36	14
21	21	6
25	25	25
0	0	16
129	129	13
7	10	4
25	131	8
58	58	12
82	83	1
61	62	5
6	6	4
168	168	11
167	167	5
32	33	3
115	117	7
51	51	9
163	163	7
9	14	2
33	37	4
47	47	22
112	121	4
89	89	11
50	51	5
142	152	6
27	27	6
113	125	2
76	77	4
81	131	1
125	125	5
153	153	3
104	107	4
81	82	4
107	108	8
34	144	1
73	74	3
122	122	10
38	38	6
33	34	2
121	121	7
156	156	10
67	67	3
16	17	7
169	169	8
112	112	11
102	158	1
124	124	12
120	147	5
123	123	8
96	96	15
158	158	6
123	129	1
193	193	21
160	161	2
105	106	9
138	195	3
7	40	3
145	145	16
6	40	3
16	121	2
76	78	3
5	6	4
18	18	11
31	31	11
157	158	5
119	119	9
64	65	6
109	110	12
44	45	6
66	66	3
50	50	7
97	97	10
144	144	9
172	172	6
181	181	9
131	139	4
107	107	14
74	74	15
69	69	18
159	185	7
45	45	6
2	2	14
86	87	3
10	59	9
53	53	9
114	114	12
16	16	4
39	42	2
183	183	17
132	132	7
171	171	9
71	71	7
8	8	9
143	143	6
75	75	2
161	165	4
162	162	3
140	140	5
80	80	5
95	95	6
115	115	12
88	88	4
125	132	1
147	147	19
35	35	6
49	49	8
54	55	3
184	184	10
194	195	2
23	23	11
43	43	7
173	174	9
39	150	2
112	117	1
55	55	9
1	1	8
13	27	4
141	142	3
14	14	9
98	102	4
71	72	5
16	125	3
116	117	8
0	3	1
175	175	8
109	109	11
52	55	3
196	196	11
62	62	5
124	182	2
38	152	2
142	149	1
56	69	1
61	71	3
27	43	3
42	42	11
176	176	12
130	131	3
22	23	6
90	90	1
192	192	2
153	165	2
136	136	4
155	155	6
111	111	7
24	24	13
174	176	1
108	109	7
22	22	5
94	120	1
5	5	4
37	129	8
11	11	5
126	126	11
23	121	1
139	139	5
57	57	11
169	173	3
154	169	3
190	190	2
174	186	3
37	37	10
59	64	3
100	100	6
146	151	1
7	7	10
155	156	2
132	136	1
32	32	8
56	63	5
104	105	8
42	51	2
117	169	2
106	166	1
94	94	6
116	116	3
111	123	1
34	34	7
136	178	2
86	86	7
14	15	2
122	128	3
56	56	7
113	119	4
154	186	7
101	106	3
106	106	7
80	81	8
13	32	3
95	146	1
134	134	8
104	104	9
64	83	1
122	125	4
177	177	13
78	78	12
33	33	12
127	127	5
187	188	9
150	150	15
100	103	2
135	135	9
142	142	7
73	73	8
9	9	6
110	110	7
24	25	3
79	79	2
54	54	5
125	126	2
114	146	2
98	98	12
145	149	2
128	129	1
73	77	2
142	154	3
15	16	1
83	130	1
194	194	3
87	87	8
195	195	8
96	167	2
94	103	2
60	60	15
27	28	1
42	43	6
166	167	5
2	3	2
26	131	1
128	128	8
19	19	7
41	42	3
165	165	8
3	11	2
134	135	2
12	12	10
94	95	5
185	196	2
194	196	3
88	89	2
161	162	3
126	134	3
124	133	2
83	83	3
37	159	1
102	102	4
26	26	9
147	151	2
81	86	2
72	72	6
12	15	2
84	86	2
73	79	1
30	60	5
170	172	1
95	122	1
157	157	4
5	9	1
120	120	4
181	182	4
84	85	4
130	130	8
1	2	5
67	68	5
68	68	2
164	164	8
72	73	3
138	170	2
14	34	2
47	48	2
59	59	7
64	64	2
165	166	3
36	74	2
35	36	2
148	148	4
78	79	8
34	35	7
44	46	1
174	174	3
156	157	3
191	192	1
134	169	5
43	74	3
44	44	5
144	149	2
131	131	2
113	113	3
133	133	5
151	151	3
13	13	3
147	152	1
39	40	2
20	20	4
5	14	4
3	4	3
182	182	3
13	51	2
144	146	2
36	37	1
32	38	5
163	164	1
10	51	1
30	33	1
178	178	4
141	141	4
188	188	4
109	145	3
31	133	1
53	54	1
167	168	5
4	20	2
159	161	1
40	41	4
114	142	2
77	77	2
137	137	3
43	147	1
147	166	1
138	138	4
29	29	9
172	173	2
190	191	1
115	129	1
62	75	5
32	73	4
11	12	3
151	152	2
134	152	1
5	39	1
63	65	1
191	191	1
48	51	1
72	75	2
1	8	1
26	27	1
179	179	3
31	32	2
95	170	1
148	149	2
96	103	1
126	127	5
117	117	6
112	113	1
68	148	3
118	166	1
143	161	2
29	76	2
115	131	1
102	148	1
135	136	3
26	37	2
195	197	2
122	123	4
184	185	1
154	157	1
107	109	3
63	63	3
156	158	2
45	74	3
114	116	5
44	99	1
134	140	1
0	17	2
159	160	9
83	84	4
176	177	2
134	139	2
160	163	3
101	149	2
38	159	2
123	135	2
7	43	2
3	3	3
77	78	4
136	137	4
155	158	1
170	170	3
48	48	3
156	169	2
180	180	1
58	59	1
105	145	2
81	81	2
125	127	1
76	79	1
96	177	2
4	29	1
4	5	1
153	157	3
131	169	2
179	180	2
94	115	1
44	51	3
192	193	5
59	60	2
61	77	1
40	40	5
65	66	1
32	61	1
20	126	2
54	62	1
127	134	2
105	105	3
46	63	1
171	173	3
31	60	1
51	52	5
149	150	3
46	70	1
148	168	2
13	28	1
133	135	1
112	118	1
158	159	1
118	119	3
28	28	2
73	75	2
164	165	2
5	7	2
189	189	5
85	87	2
71	76	1
154	161	3
3	5	2
56	62	2
139	140	2
98	107	2
23	24	4
111	120	1
131	132	1
45	129	1
0	190	3
30	77	3
32	51	1
56	57	2
111	112	1
143	155	1
72	141	1
32	69	2
70	78	1
38	149	1
174	192	2
70	71	2
28	30	1
85	85	5
113	114	3
53	55	1
36	67	2
147	148	1
49	50	3
135	193	1
96	97	1
2	8	3
81	84	1
96	165	1
113	122	1
66	68	2
64	87	1
37	74	2
180	181	1
160	160	2
86	119	2
17	50	1
183	184	2
138	169	4
146	150	1
185	185	1
142	144	3
132	133	1
43	151	2
103	103	1
161	164	1
16	19	2
3	14	1
103	147	1
70	72	1
14	51	1
174	175	2
104	117	1
133	134	1
180	188	1
132	160	1
51	63	2
17	126	1
197	197	2
3	8	2
180	185	1
131	135	1
188	189	1
147	164	1
123	128	1
95	145	1
178	189	1
40	179	1
113	115	3
18	19	1
66	86	1
111	113	1
87	88	3
29	30	2
105	157	1
46	51	1
57	58	1
101	101	2
10	14	1
185	186	2
161	161	1
46	62	1
170	171	1
6	36	1
196	197	1
112	128	1
13	60	1
3	10	1
179	184	1
27	42	1
97	115	1
70	168	1
40	43	1
103	170	1
124	130	1
80	82	1
128	130	1
157	165	1
118	138	1
40	159	1
189	191	1
173	173	3
62	63	1
185	189	1
118	118	1
30	62	1
6	26	1
137	194	1
1	7	1
26	42	1
22	162	1
145	151	1
8	40	1
115	116	1
65	80	1
154	195	1
158	165	1
28	31	1
101	102	1
136	193	1
187	196	1
16	50	1
156	166	1
141	155	1
97	100	1
110	123	1
67	88	1
