133	133	13
42	42	10
23	24	4
68	68	6
170	170	4
119	119	7
102	103	8
0	0	13
86	86	8
61	63	2
24	30	3
159	160	10
66	67	1
41	41	2
78	78	4
158	158	8
126	126	3
39	40	6
168	168	6
87	87	5
2	2	4
152	152	3
9	9	1
61	109	3
90	90	4
11	12	6
179	179	2
112	112	9
180	181	1
118	119	3
4	4	4
143	150	3
115	115	9
28	29	5
6	6	11
21	21	5
25	25	7
58	58	4
56	56	6
148	148	6
80	81	1
168	169	6
108	110	3
157	164	3
24	24	4
173	173	4
13	14	1
3	3	4
160	160	4
62	141	5
71	146	5
19	26	3
61	61	5
70	70	6
139	140	1
155	155	8
142	143	5
26	26	7
60	64	1
101	101	3
60	60	3
110	111	8
5	5	6
21	22	1
159	175	4
118	118	4
62	140	2
23	23	1
178	179	4
181	189	4
39	56	2
80	80	7
88	171	5
14	15	3
87	132	3
92	123	2
176	176	5
164	164	3
73	73	7
141	141	10
121	167	2
135	136	2
106	107	7
86	88	4
119	162	2
124	124	8
167	167	2
157	157	5
143	143	4
102	102	3
128	129	3
84	84	7
154	154	5
125	125	1
44	48	2
143	144	4
150	150	6
97	97	2
134	134	7
162	162	1
65	65	4
177	179	1
27	27	2
75	137	4
139	139	3
172	173	6
189	189	7
79	80	2
15	15	6
174	174	1
21	23	1
32	33	3
156	156	8
21	25	4
48	82	1
162	163	3
104	104	1
35	36	2
7	7	9
30	30	2
183	183	1
77	77	4
96	98	1
108	108	7
159	159	9
37	38	4
128	128	7
13	13	3
62	63	3
129	129	7
161	163	8
134	135	2
145	145	6
116	117	2
181	182	2
128	131	2
1	1	4
11	37	2
66	145	1
20	26	3
54	76	4
83	83	2
11	11	3
42	83	3
24	31	1
132	132	4
160	176	5
100	173	2
140	141	1
107	107	1
12	12	3
72	72	2
76	76	5
3	57	1
5	148	3
12	48	1
17	19	5
81	81	2
130	130	3
94	94	3
184	184	4
99	99	5
166	166	4
141	144	2
114	117	1
85	85	6
78	131	2
147	147	6
33	33	4
8	8	2
48	84	2
175	176	6
112	190	2
146	149	2
114	114	4
101	138	6
70	147	3
179	186	1
131	133	3
65	66	3
78	83	3
45	55	2
182	182	2
149	150	2
105	105	3
142	144	3
31	31	4
14	14	5
67	69	3
154	155	1
81	82	4
109	109	2
54	54	3
140	140	6
44	45	2
74	87	2
190	190	4
5	149	3
169	170	3
160	163	2
47	47	3
122	122	2
57	144	2
159	176	1
64	64	3
143	151	1
57	57	5
69	69	2
88	88	4
121	121	3
120	122	1
127	127	1
177	177	5
181	181	1
88	95	4
58	63	2
108	109	1
175	175	6
157	159	2
88	89	4
78	130	4
65	144	1
136	136	3
98	101	1
75	97	1
71	72	3
82	82	1
19	19	3
45	45	6
183	184	2
100	172	1
151	151	1
22	22	5
17	17	3
54	55	1
178	178	3
123	123	2
117	117	3
33	34	1
130	131	1
166	167	3
24	28	2
185	185	3
109	110	1
58	64	2
164	166	3
10	17	1
13	47	1
78	79	2
177	178	2
71	150	3
54	56	1
176	184	3
73	136	2
74	74	2
18	18	3
180	187	1
73	137	1
42	44	1
22	36	2
45	46	1
3	56	2
38	38	2
8	18	1
72	73	1
17	20	3
32	32	2
72	150	1
179	184	2
52	52	1
115	117	1
131	132	2
106	106	2
122	167	2
115	116	1
53	53	3
84	134	1
37	37	2
15	43	1
89	89	1
3	7	3
40	84	1
39	39	1
14	46	1
110	110	2
169	169	4
45	47	2
4	7	1
20	25	1
99	154	4
123	166	1
112	115	1
67	68	1
43	43	1
16	16	2
71	71	1
120	163	2
103	103	1
120	120	1
6	7	1
53	54	3
98	98	1
46	47	5
101	103	2
137	138	2
75	75	3
60	61	1
55	55	1
36	36	2
180	180	1
142	142	1
136	137	1
92	93	2
144	145	1
57	141	2
22	23	1
93	93	1
111	112	1
135	135	1
83	84	1
107	108	2
85	153	1
71	137	1
0	1	1
89	94	1
188	189	1
174	176	1
40	41	1
66	66	1
90	124	1
118	173	2
186	186	1
59	59	1
91	92	1
187	189	1
74	96	1
40	56	1
