176	176	1
86	113	3
130	130	6
26	26	5
58	64	4
177	177	3
15	15	2
168	168	3
108	121	3
152	152	1
143	149	4
41	41	3
38	39	3
148	180	6
138	157	3
170	172	2
95	95	5
134	135	6
3	3	7
138	138	7
136	137	6
179	179	6
3	18	3
11	35	4
32	50	2
72	72	5
145	145	7
8	8	3
110	110	6
81	82	3
179	185	1
150	171	1
74	74	5
93	94	2
191	192	1
20	42	1
184	184	5
38	42	1
30	31	1
109	109	2
34	36	2
61	82	3
193	193	8
139	168	1
60	61	8
106	145	5
19	36	8
171	171	5
140	142	3
19	19	6
140	168	3
31	31	7
11	12	7
18	19	2
84	93	2
174	176	3
107	107	9
114	114	6
128	129	1
13	23	1
13	31	2
0	14	1
106	118	1
139	140	2
35	35	6
85	88	5
25	25	5
155	156	1
81	81	5
68	68	8
109	125	3
0	0	1
106	106	3
114	116	8
144	151	5
23	26	7
34	34	5
60	77	1
141	141	4
1	4	4
105	105	6
97	97	6
136	136	4
101	102	4
23	62	5
138	156	2
135	135	3
14	14	3
32	56	1
165	166	3
191	193	3
147	147	3
2	185	5
10	29	4
101	101	4
141	168	2
94	94	5
68	69	2
1	1	3
167	189	3
87	112	3
163	163	9
30	30	10
44	68	1
174	175	4
6	193	3
64	66	4
127	127	4
138	139	2
104	104	2
28	32	1
12	55	1
108	126	2
70	77	4
29	29	4
192	192	5
88	88	5
95	97	3
4	30	1
172	172	10
182	183	5
16	18	7
159	161	3
151	151	1
90	102	1
17	17	6
109	110	2
111	111	6
79	79	1
28	28	9
178	178	4
148	150	2
140	140	10
106	108	1
72	74	1
121	134	2
83	121	4
20	27	2
46	76	2
14	34	2
58	66	2
187	187	11
170	170	3
144	195	1
2	4	1
188	188	7
40	41	3
77	79	1
159	159	3
28	68	1
166	186	4
154	154	5
156	156	3
5	8	2
10	39	1
131	148	8
50	60	2
101	110	2
46	54	1
71	74	3
169	169	1
60	60	5
70	70	2
134	134	6
55	55	4
72	73	1
58	58	3
65	65	4
45	45	5
80	81	2
71	86	2
38	38	1
119	120	2
49	49	7
49	61	2
7	26	1
121	122	1
176	177	2
168	169	5
102	128	1
153	154	1
107	118	5
186	187	1
69	69	2
117	117	2
89	89	5
67	69	3
86	86	3
172	180	1
113	115	2
163	164	4
153	153	4
39	43	3
144	144	1
5	5	9
62	62	1
142	157	7
43	43	3
101	103	6
196	196	5
13	13	9
156	171	2
138	142	3
2	3	1
144	145	3
134	139	1
130	149	1
130	153	1
50	59	1
182	194	4
23	37	2
119	125	2
29	34	3
1	2	4
100	100	6
137	138	2
12	12	2
35	36	2
9	9	6
40	47	1
159	188	2
36	36	2
42	73	3
56	56	4
6	6	2
26	45	1
96	101	2
25	31	1
146	169	1
45	57	1
121	121	7
105	125	1
111	113	1
88	89	1
87	87	2
48	48	3
46	46	5
21	21	6
82	82	5
12	28	2
47	48	2
192	193	3
34	35	1
160	163	2
132	172	1
189	189	2
142	166	6
131	157	2
77	90	2
51	79	2
127	134	1
163	191	2
44	45	2
16	16	1
99	99	6
7	7	5
0	3	2
132	133	1
124	124	6
67	67	1
54	54	3
59	59	3
114	115	4
44	63	2
44	61	2
154	160	2
125	125	4
3	15	3
33	34	3
125	137	1
118	118	2
130	144	1
9	138	2
108	108	2
139	157	6
103	103	2
38	197	1
103	115	1
182	182	2
25	32	2
111	146	2
130	150	3
4	28	2
20	36	3
186	186	4
42	72	1
197	197	4
158	178	3
60	69	1
15	151	1
29	56	3
194	195	3
186	191	1
71	71	2
106	120	2
149	149	5
115	115	2
116	123	1
166	188	4
119	146	1
134	136	1
31	81	8
128	128	1
64	64	1
133	135	2
124	125	1
120	121	1
110	127	1
151	164	4
27	27	6
108	184	1
63	63	3
143	145	1
33	33	5
172	173	1
36	37	2
107	125	2
44	44	3
42	42	1
108	182	2
164	164	8
60	80	1
80	84	1
171	172	2
130	159	2
61	61	1
65	67	3
119	128	5
13	40	1
125	126	2
9	196	2
109	123	1
10	10	1
142	142	1
31	64	3
39	39	4
119	124	1
10	35	3
185	185	2
103	128	1
133	171	1
150	150	2
44	56	1
154	155	3
85	85	1
24	24	1
47	123	1
28	29	1
174	174	1
78	78	1
14	15	2
181	181	1
158	190	2
4	5	3
96	96	3
3	28	1
183	183	3
123	123	2
167	188	3
22	36	2
95	103	2
8	18	1
31	108	1
139	139	2
161	161	3
163	190	3
11	11	1
162	164	1
122	123	1
178	179	1
10	34	1
99	117	3
154	181	1
52	65	2
59	81	1
98	98	1
165	179	2
96	103	1
11	13	1
158	158	1
0	8	1
113	113	3
167	187	3
84	84	1
61	62	1
94	103	1
18	18	1
52	52	4
165	165	2
54	68	1
143	143	2
73	74	1
106	184	1
138	181	1
151	152	2
142	144	1
109	121	2
145	146	1
152	153	2
51	71	1
137	147	1
173	173	1
86	94	1
97	116	1
113	114	1
162	163	2
45	46	1
67	68	1
120	172	1
47	50	2
144	150	1
145	180	1
150	197	1
131	131	1
127	138	1
112	113	1
195	195	1
177	189	1
79	90	1
160	160	1
8	12	2
38	176	1
120	120	1
194	194	2
74	78	3
97	100	1
128	144	1
4	4	1
3	6	1
161	174	1
66	66	1
47	47	1
113	122	1
117	122	1
142	169	1
189	191	1
132	132	1
85	86	1
53	53	1
133	156	1
5	174	1
133	133	1
2	6	1
