73	77	1
79	109	2
76	76	3
11	11	3
72	72	2
96	96	8
25	25	4
39	40	1
42	42	10
1	1	7
32	32	12
80	81	3
14	14	5
79	80	3
34	38	4
21	22	4
53	54	1
109	117	4
1	111	3
95	95	7
46	64	1
103	103	3
92	96	1
32	34	2
94	114	6
113	113	10
82	85	7
75	75	2
25	75	3
106	106	4
40	64	3
57	58	5
112	112	15
5	6	1
95	96	2
53	111	1
84	84	3
33	33	5
132	132	4
114	114	10
122	122	4
56	56	4
0	0	5
55	103	1
42	64	2
2	12	5
23	24	3
44	44	5
127	128	3
67	71	2
83	84	3
127	129	1
24	24	4
82	82	2
120	120	7
119	119	1
129	129	1
98	98	7
133	133	4
65	93	3
2	2	6
115	115	2
128	128	5
61	61	3
23	23	2
51	51	3
111	111	5
7	7	6
12	12	2
54	54	9
13	13	2
105	105	4
50	50	3
7	8	1
47	62	2
23	48	2
71	71	1
4	4	2
29	30	8
94	94	11
88	92	1
90	90	2
64	64	3
10	10	6
121	122	4
105	106	2
76	77	3
126	126	1
78	78	5
102	102	3
52	121	2
110	110	5
77	77	7
125	125	5
19	19	2
81	81	1
57	62	2
56	57	1
101	101	5
80	80	4
31	31	4
86	86	1
126	127	4
30	30	1
116	116	3
17	17	2
49	49	7
115	116	2
41	42	3
39	39	3
118	118	2
112	113	1
67	68	1
55	55	3
127	127	4
107	108	3
64	65	1
18	18	2
48	48	2
70	70	2
0	1	2
117	121	1
6	6	5
57	57	3
74	75	2
82	89	2
68	68	4
33	117	1
91	95	2
47	47	4
7	55	1
60	74	1
99	102	1
131	131	1
83	114	2
60	66	2
28	28	2
82	132	3
16	63	1
110	111	2
127	130	1
11	12	1
117	117	1
9	9	2
46	46	4
104	104	5
21	21	1
123	123	7
14	63	3
126	130	1
6	122	2
18	21	1
53	53	3
19	32	1
124	124	4
130	130	2
120	121	4
45	45	1
63	63	2
48	63	2
58	58	1
46	73	2
74	74	2
83	83	2
26	26	2
71	75	1
62	63	3
58	76	1
40	47	1
80	133	1
47	73	2
0	11	1
21	24	1
19	56	1
109	109	2
75	77	2
93	93	5
41	69	1
58	78	2
97	104	1
88	89	2
119	120	1
13	19	1
15	15	2
8	8	1
107	107	1
38	42	1
59	59	1
56	79	1
102	103	2
129	131	1
58	59	1
32	110	2
51	54	1
52	52	2
15	116	1
72	78	1
26	121	1
89	93	1
79	97	1
59	60	1
13	110	2
86	87	1
44	58	1
53	124	1
1	2	2
67	73	1
105	107	1
91	114	1
73	73	1
6	32	1
38	38	1
14	15	1
114	132	1
22	22	1
