47	47	4
62	62	13
87	87	26
77	77	27
58	58	3
97	97	6
34	34	8
85	85	6
33	33	13
71	71	5
89	89	25
74	88	2
74	74	23
98	101	1
68	72	1
69	74	3
38	38	5
68	69	1
42	91	2
41	41	18
43	43	5
38	73	3
70	70	33
67	84	3
47	87	3
59	59	9
80	80	17
37	67	4
25	28	2
29	29	7
50	61	1
93	93	3
36	36	7
66	66	15
94	94	8
83	83	4
88	88	12
61	62	3
28	98	1
55	91	3
96	97	2
50	50	9
54	54	6
66	73	6
22	22	7
36	85	3
68	70	2
72	79	1
75	75	24
45	58	3
91	91	6
27	60	3
65	65	19
78	78	17
95	95	5
79	80	11
69	69	6
53	53	5
63	63	5
29	98	6
30	88	1
31	31	4
79	79	10
51	101	1
64	66	8
25	25	17
67	68	3
86	86	11
37	37	6
35	35	2
64	64	10
26	85	1
20	20	4
80	87	4
79	81	2
46	46	10
90	90	17
73	73	15
58	60	1
101	101	6
66	74	2
91	92	1
28	64	2
61	80	7
84	86	3
44	44	8
77	78	5
30	89	4
25	96	1
26	26	13
52	52	10
80	81	5
70	71	5
32	101	3
56	57	1
84	87	2
77	83	2
98	98	2
58	59	2
86	88	4
37	75	1
54	55	1
78	83	3
70	79	1
35	36	2
76	83	1
42	42	6
65	70	9
66	67	8
46	57	2
81	81	6
72	72	6
62	63	2
28	90	1
67	67	5
31	86	2
64	65	5
53	59	1
31	36	1
87	92	2
42	84	3
96	96	5
84	84	8
24	25	3
62	71	1
36	38	6
93	94	6
27	48	1
92	92	3
69	71	3
57	57	8
68	81	2
78	79	5
36	63	4
99	99	4
56	56	1
52	70	1
61	61	11
86	87	2
49	89	5
45	45	3
80	89	1
22	80	3
28	28	4
36	48	2
40	82	5
46	47	5
56	96	2
60	70	3
97	101	1
24	92	2
23	98	1
92	94	4
74	75	1
36	68	2
74	87	2
69	72	3
68	68	5
47	83	2
86	93	1
52	53	1
51	51	2
44	62	1
37	38	2
33	82	3
31	39	1
99	100	1
27	97	2
39	74	1
27	53	2
71	72	1
39	39	2
56	65	1
80	91	1
32	33	1
39	100	2
83	84	1
66	70	3
100	100	2
27	32	1
23	26	1
27	27	1
35	52	2
20	27	2
75	76	2
63	67	1
81	82	3
53	54	1
51	81	2
59	79	4
72	74	2
61	88	1
73	80	1
78	81	1
82	82	1
64	78	1
70	83	1
48	48	1
41	42	1
25	58	1
62	84	1
34	35	1
102	102	1
76	76	2
64	80	1
43	93	1
60	67	2
44	79	1
22	27	2
62	78	1
45	54	1
60	101	1
41	79	2
29	30	2
55	55	1
71	85	1
40	40	1
32	79	1
25	44	1
