54	54	11
27	28	9
75	75	20
11	58	4
9	10	3
55	56	6
37	38	3
17	17	27
57	57	5
64	65	5
28	28	14
8	9	7
26	26	24
7	7	10
59	59	12
56	57	3
41	41	15
65	65	15
60	62	2
46	48	4
81	81	1
20	61	1
8	41	1
6	6	17
56	56	8
42	42	10
69	69	11
13	13	10
0	57	5
45	45	17
14	14	19
60	61	4
3	4	3
48	48	21
79	79	18
4	4	12
8	8	9
49	54	1
27	27	21
40	79	4
75	77	6
71	71	13
70	71	16
5	6	4
76	76	32
13	15	5
31	70	4
2	2	8
3	25	2
66	67	3
51	51	2
15	54	2
25	25	3
52	52	14
33	33	15
64	64	3
50	50	8
15	16	2
36	36	9
70	70	11
14	54	5
32	70	3
20	68	1
43	43	8
66	66	12
68	68	16
21	52	1
50	68	5
21	21	7
46	46	7
70	72	3
29	56	1
38	40	4
67	68	7
5	5	19
49	49	13
9	9	14
49	50	4
40	58	4
12	12	13
40	42	12
31	31	12
39	39	7
60	60	9
28	49	3
0	10	2
76	77	1
63	63	14
29	29	4
71	72	8
74	75	6
6	8	5
47	56	4
35	35	6
69	72	3
55	55	16
73	73	5
67	67	12
25	26	6
32	32	17
63	64	5
40	40	15
38	38	10
73	74	3
21	67	1
58	60	3
58	58	8
15	20	2
62	65	1
37	37	8
19	19	7
10	11	4
0	8	4
65	66	5
47	48	1
20	20	4
80	80	13
36	38	2
9	56	2
16	17	3
50	69	5
38	50	1
52	53	1
34	34	12
15	15	3
47	47	6
13	14	5
44	44	2
36	40	1
26	57	1
54	55	2
53	54	3
14	15	3
67	72	3
69	71	3
68	69	4
74	76	3
31	32	2
74	74	11
26	32	1
67	69	3
77	77	8
41	77	1
61	71	2
49	61	3
12	13	4
38	39	6
51	52	2
65	67	1
11	11	10
14	50	3
6	7	2
3	3	6
10	10	3
16	16	4
46	47	5
54	63	3
36	39	1
58	59	2
32	37	2
62	62	4
31	33	1
61	61	5
35	36	2
58	63	7
40	45	1
48	64	1
30	30	2
3	11	2
69	70	4
31	49	1
33	34	1
22	22	2
0	6	2
2	3	1
78	78	8
72	72	3
32	33	1
4	7	1
0	59	1
30	41	1
0	65	1
54	64	1
6	14	1
44	45	1
12	15	1
37	39	1
20	21	1
53	53	1
29	30	5
2	6	2
45	46	2
6	61	1
14	16	1
1	2	1
59	60	2
16	19	2
28	29	2
13	35	2
26	30	1
11	67	2
78	79	2
36	37	2
1	1	6
48	49	2
39	43	1
52	67	1
11	12	1
7	8	3
34	36	1
0	1	1
41	47	1
50	56	1
31	34	1
47	61	1
33	70	1
2	26	1
10	48	1
55	64	1
7	9	1
0	0	1
52	54	1
50	51	1
17	18	1
10	21	1
18	18	2
34	37	1
12	14	1
34	35	2
8	75	1
3	63	1
