68	68	3
4	4	2
138	165	2
59	59	4
168	168	4
0	0	2
136	136	2
173	173	4
138	138	7
29	31	2
56	56	6
57	57	8
67	82	3
123	123	4
6	11	3
52	53	3
169	169	4
111	111	3
122	122	2
163	164	5
126	156	3
112	112	5
91	92	2
150	151	4
25	25	3
84	84	1
171	171	3
113	113	4
127	127	15
18	19	4
6	67	2
158	158	9
179	179	3
122	142	2
143	150	3
9	11	2
135	161	4
178	178	2
80	80	1
78	79	1
1	2	2
22	22	4
133	165	1
110	110	8
35	35	2
43	82	1
83	83	7
29	40	3
36	36	4
176	176	6
160	160	5
91	176	1
35	41	2
118	118	2
148	152	1
58	58	1
1	35	3
27	27	2
29	29	5
36	41	3
40	42	4
36	39	2
77	77	6
144	146	4
106	114	5
118	119	3
119	179	1
95	96	1
131	166	3
44	67	1
14	34	3
8	65	3
13	36	2
53	53	2
171	180	1
133	133	2
54	150	2
99	99	1
174	175	1
91	91	2
85	85	3
9	67	2
103	106	1
83	85	1
82	83	2
42	42	4
22	25	1
158	160	2
28	28	2
161	162	3
16	16	2
17	17	4
143	144	1
133	134	1
131	131	3
75	75	7
51	51	6
13	42	2
167	168	1
143	143	1
115	118	2
3	3	6
131	165	1
71	171	1
55	59	1
115	116	1
137	137	2
5	5	5
91	177	1
75	174	3
133	140	3
172	172	2
21	21	2
52	133	1
71	72	5
32	32	1
136	164	1
28	39	2
93	93	4
115	115	1
106	106	3
166	166	1
98	150	1
161	161	4
95	95	3
156	156	2
54	126	3
15	15	2
79	79	1
38	38	1
53	126	1
0	44	1
143	146	1
90	129	4
121	121	1
8	8	1
53	96	1
102	113	1
125	125	2
94	94	3
128	157	1
73	73	2
29	30	1
128	128	1
159	159	5
120	120	1
122	123	1
175	176	1
89	96	3
142	143	2
147	147	3
174	178	2
13	13	5
92	92	2
71	71	5
97	113	1
150	150	1
43	43	2
108	108	3
99	100	3
82	82	7
132	163	1
23	23	1
167	167	1
154	154	3
55	120	2
135	163	1
163	163	1
31	31	2
2	2	2
126	146	4
133	135	1
16	20	2
3	16	1
9	10	5
54	146	1
139	139	4
155	156	1
180	180	4
54	54	2
87	95	2
174	174	4
17	25	2
135	135	2
144	144	2
98	99	2
144	150	1
60	60	2
142	142	4
151	151	3
146	146	1
66	66	2
157	157	1
105	105	1
21	24	1
141	141	1
123	124	1
133	162	2
171	172	1
61	61	4
67	67	1
59	174	2
132	132	1
39	39	1
126	148	2
55	174	1
128	152	1
140	141	1
140	140	3
72	76	1
165	165	2
102	103	2
139	141	1
88	88	2
34	34	1
41	41	1
70	70	1
126	126	1
64	64	1
14	35	1
49	109	1
104	104	2
86	99	1
174	177	1
88	89	1
103	105	1
20	20	2
44	82	2
38	39	1
59	87	1
45	81	2
35	43	1
113	114	1
134	134	1
155	155	1
81	180	1
97	97	1
60	71	1
105	131	1
175	175	1
126	147	1
2	3	1
125	126	1
24	40	2
53	152	1
50	51	1
6	45	1
9	9	1
35	42	1
72	72	2
24	42	1
164	166	1
134	136	1
26	26	1
159	160	1
59	173	1
