43	73	2
123	123	5
133	133	5
95	95	7
69	69	5
129	130	4
36	36	17
158	158	2
65	69	2
153	153	7
116	116	1
109	109	3
94	94	6
16	16	6
151	151	13
9	10	6
141	141	7
104	104	7
86	86	12
37	37	6
134	134	11
92	92	6
125	126	7
2	3	3
131	131	8
33	33	7
138	138	8
154	154	8
81	83	4
152	157	1
91	91	12
127	127	11
23	23	8
50	50	4
97	97	6
111	112	14
38	38	5
44	44	1
80	80	2
139	140	2
114	114	3
136	137	2
132	132	6
40	103	2
111	111	3
77	78	6
49	49	11
47	47	2
20	21	4
131	140	2
107	107	8
69	103	1
97	98	2
82	82	4
63	63	7
100	101	1
85	85	9
105	105	21
8	8	9
55	55	7
113	113	1
121	121	13
14	14	10
21	22	3
115	115	2
123	124	3
34	34	5
124	124	3
107	109	4
6	6	8
27	27	15
73	73	4
100	100	2
18	18	1
89	89	5
13	110	1
67	67	10
157	158	3
51	51	6
5	5	3
38	148	6
126	126	6
43	43	3
83	83	8
7	39	7
152	152	4
108	108	6
109	144	5
94	95	5
37	38	3
93	93	3
41	41	9
112	113	3
1	1	1
114	115	8
8	10	1
26	27	4
38	150	2
145	146	5
15	15	9
81	81	2
120	120	5
117	139	3
40	40	6
42	43	5
78	78	4
56	56	3
26	26	4
25	26	3
70	70	5
137	137	1
21	26	3
103	103	6
75	75	4
72	105	2
135	135	8
3	3	16
90	90	4
52	52	4
83	84	4
82	83	4
88	88	1
10	11	1
70	73	5
141	142	5
35	35	4
139	141	1
87	88	5
77	77	6
150	150	3
77	86	1
39	39	3
12	14	3
28	30	1
41	68	3
31	31	5
109	110	2
95	96	3
127	128	1
148	148	7
11	12	2
65	66	2
29	29	3
138	139	5
140	140	8
13	22	2
85	86	2
106	106	6
12	22	2
27	28	3
49	63	1
39	110	1
117	140	1
71	71	5
112	112	11
13	20	2
39	146	1
118	118	4
49	50	1
111	114	4
83	135	1
108	109	1
46	46	4
64	65	1
68	68	8
62	62	1
144	144	3
96	96	1
53	53	4
8	9	1
19	19	2
12	12	4
51	52	4
9	9	3
125	125	2
22	23	2
139	139	11
84	84	2
43	63	4
145	145	5
129	138	1
88	92	1
99	99	3
67	68	1
14	19	1
110	110	2
135	136	3
112	150	1
121	122	1
32	32	2
69	70	4
65	65	5
21	21	3
120	121	2
17	18	4
130	131	1
2	4	1
156	156	2
149	149	1
102	103	1
36	38	4
93	101	2
7	15	1
154	157	2
152	153	4
57	57	2
41	42	1
66	66	2
24	24	6
23	35	1
40	41	1
10	16	1
28	28	4
40	42	5
52	53	2
112	114	1
25	25	8
30	30	4
4	4	3
22	35	2
151	152	4
147	149	2
128	128	5
136	136	2
128	129	1
44	73	1
154	155	1
98	98	2
132	134	1
14	18	2
122	122	2
55	56	1
147	147	1
142	142	1
0	0	2
107	116	1
119	119	5
27	30	2
37	150	1
117	118	1
121	140	1
137	138	1
39	148	1
4	5	1
11	11	1
76	77	1
24	25	2
44	45	2
47	49	1
22	22	2
79	79	3
106	107	2
4	43	1
19	20	1
10	10	5
118	139	1
131	132	2
75	77	1
30	31	1
20	20	2
81	148	2
143	143	3
131	156	1
39	40	4
54	54	3
96	97	2
117	121	1
7	7	2
18	19	2
113	115	2
144	145	2
56	57	1
132	133	1
42	42	2
33	34	2
39	147	1
11	13	1
101	101	2
103	153	2
117	117	1
44	47	1
129	131	2
16	22	1
13	13	1
125	127	1
24	26	1
147	148	1
103	133	1
54	55	1
116	118	1
46	49	1
39	104	2
130	130	1
