6	11	3
84	85	3
66	68	3
27	27	6
99	99	5
22	22	6
42	42	4
100	100	4
43	43	6
108	109	3
31	31	6
117	117	3
123	123	6
94	95	4
91	93	3
69	69	13
37	70	3
85	86	8
43	83	3
65	65	6
116	116	1
129	129	4
148	148	2
141	141	6
125	142	6
66	66	5
92	98	2
131	132	4
17	17	2
5	11	1
77	77	9
127	127	3
62	62	5
117	118	2
42	81	2
134	136	4
158	158	5
110	110	6
12	13	2
5	6	1
56	57	6
90	97	2
48	48	4
40	41	2
16	18	1
46	47	1
152	154	2
122	122	2
1	96	5
78	78	12
104	104	4
88	95	3
82	82	3
151	158	2
139	139	7
21	22	8
16	16	8
79	80	6
33	34	1
125	125	5
113	113	9
138	138	3
9	9	6
34	34	1
10	10	7
84	84	4
131	131	1
30	97	2
30	30	1
135	136	10
96	97	5
83	83	4
148	150	2
94	94	6
107	129	2
118	118	1
37	37	2
118	125	1
39	79	2
11	12	6
28	38	3
50	51	4
140	140	7
97	97	1
106	106	4
98	98	5
137	138	5
53	53	6
41	41	6
57	57	4
4	4	3
125	126	9
81	81	8
94	96	4
54	54	2
87	87	1
66	67	1
40	40	2
15	15	4
0	4	6
26	26	7
21	21	10
49	50	3
155	155	2
7	22	4
67	67	4
8	8	3
20	22	3
16	17	1
88	89	1
114	114	2
112	112	9
87	112	6
1	6	6
153	153	6
144	145	3
86	86	12
144	144	5
51	53	3
13	13	1
47	51	3
151	151	5
126	126	6
119	121	1
31	92	2
25	25	4
149	149	2
29	72	2
38	80	2
88	88	3
157	157	2
110	145	2
54	55	4
52	56	3
108	108	1
64	64	1
124	125	1
72	72	2
1	1	6
81	102	1
19	19	4
127	129	2
108	111	3
128	128	6
152	152	2
124	134	2
107	107	9
11	11	4
23	26	3
93	96	3
111	127	8
132	132	7
85	85	1
147	147	2
49	49	2
149	158	1
143	143	2
156	156	2
134	135	5
23	23	6
5	5	4
109	109	2
133	133	7
150	150	4
46	46	2
0	0	1
132	134	2
139	157	1
73	101	1
1	95	2
134	142	1
28	36	3
53	54	2
24	25	8
108	127	3
24	47	3
35	52	1
109	127	3
111	111	3
18	18	4
141	157	3
38	38	2
115	115	3
139	140	1
45	45	1
44	44	1
103	103	1
91	91	6
37	38	2
28	29	2
134	134	5
51	55	6
96	96	1
36	38	2
119	120	1
7	8	4
108	113	2
17	18	2
111	112	1
32	41	5
36	36	2
118	124	3
154	155	1
26	27	3
39	39	2
32	33	2
23	27	1
128	129	1
44	65	1
24	27	2
48	49	2
151	152	1
47	47	2
120	121	2
131	142	1
67	71	1
55	55	2
36	43	1
118	121	1
74	81	2
87	89	3
90	90	1
28	28	4
33	33	3
126	148	2
1	94	1
75	75	1
2	2	5
146	147	1
145	148	1
34	35	3
25	45	1
39	80	1
112	113	4
92	95	2
130	130	1
92	92	4
106	128	3
87	90	1
89	96	1
7	7	1
68	68	1
100	101	1
101	102	1
15	23	2
20	20	1
147	148	1
26	65	1
27	47	1
98	99	2
131	147	1
33	37	1
80	102	1
39	68	1
142	142	1
35	35	1
7	10	1
70	71	1
67	68	3
123	138	1
89	89	1
70	70	1
71	71	1
31	93	1
28	34	1
10	30	1
19	20	1
