0	0	7
76	76	7
46	46	6
77	77	6
24	24	10
72	72	12
58	58	6
64	64	6
73	73	10
19	19	11
70	70	8
32	34	3
10	10	11
53	69	2
35	36	4
71	71	14
38	38	6
31	45	2
35	35	3
25	25	5
66	66	13
0	1	1
9	10	1
44	44	1
75	75	7
12	12	7
9	9	4
18	19	1
24	34	3
2	2	4
45	45	14
75	76	2
22	25	3
43	44	4
23	34	1
38	39	3
26	26	6
33	33	3
18	41	3
6	6	11
3	3	8
57	59	2
31	48	2
56	56	9
5	5	11
22	22	11
57	57	7
41	49	2
33	76	1
35	37	4
9	11	1
59	61	2
37	37	5
30	30	1
59	59	7
42	44	3
67	67	3
13	14	1
24	36	5
71	73	3
42	68	3
50	50	8
65	72	2
42	55	2
48	48	5
60	68	4
67	74	3
12	40	2
49	51	5
19	34	2
61	62	4
70	71	3
43	43	2
7	7	3
50	64	1
32	32	3
67	68	2
6	7	3
11	11	2
22	37	2
4	4	5
31	34	5
52	52	6
37	57	3
72	73	5
61	61	4
66	68	2
19	40	1
64	66	1
45	48	1
19	30	1
54	54	8
51	51	4
42	42	7
43	53	1
49	49	7
58	59	1
1	1	9
27	28	5
41	41	2
49	54	3
18	39	3
42	45	2
46	48	5
23	56	1
28	28	4
41	69	2
46	47	1
22	30	1
43	49	2
13	13	7
55	55	11
23	24	2
8	11	1
29	29	6
3	31	2
20	21	5
69	69	2
73	75	3
8	10	3
23	27	2
36	37	1
63	64	4
72	74	2
41	48	6
6	8	2
27	34	1
61	63	4
63	66	3
50	59	3
14	76	4
42	43	1
66	67	1
37	38	2
62	63	1
52	54	2
23	23	6
65	68	1
49	50	1
0	2	3
62	64	2
41	51	4
0	11	1
27	27	2
75	77	1
2	12	2
37	39	3
74	76	1
74	74	4
7	11	1
30	39	1
60	61	4
44	48	4
24	25	1
56	59	4
1	6	1
35	39	2
60	70	4
40	40	4
36	54	2
21	22	2
52	64	1
7	10	2
20	30	2
42	69	3
11	56	2
31	39	3
60	62	3
22	26	2
31	31	6
58	67	2
53	54	1
55	56	2
1	2	7
50	55	1
47	47	3
65	65	3
51	68	1
18	18	6
8	8	4
39	57	1
65	70	1
9	13	1
34	35	1
36	36	1
23	26	1
18	76	1
2	3	1
6	22	2
60	60	3
63	65	1
43	47	1
62	62	1
19	74	1
49	63	1
65	66	1
13	75	1
57	58	2
44	47	1
21	26	1
24	31	1
72	77	1
4	5	1
43	48	1
41	53	1
21	21	1
48	51	1
26	57	2
71	75	1
37	46	1
68	68	1
24	35	1
63	63	1
32	33	2
22	23	1
74	77	1
61	64	1
29	32	1
34	34	1
52	53	1
38	41	1
71	74	1
14	30	1
28	29	1
26	28	1
61	70	1
50	53	1
31	36	1
20	20	1
28	35	1
