55	55	6
94	98	1
7	8	5
15	15	4
54	54	7
107	131	1
69	69	3
94	99	6
109	109	9
1	1	8
64	65	3
114	115	2
56	66	2
83	84	3
116	116	7
81	81	3
81	104	1
118	129	2
76	76	4
26	31	5
112	113	3
36	54	2
87	87	7
34	34	4
123	123	4
132	132	2
106	108	3
1	54	1
126	126	5
124	124	3
92	92	7
64	64	10
17	17	4
91	91	6
12	13	3
89	89	3
10	10	7
131	131	4
35	35	3
114	114	4
80	115	2
59	116	1
19	54	3
131	132	1
43	44	2
80	81	5
57	119	1
77	77	8
43	43	1
31	56	5
75	76	2
14	14	7
94	95	2
95	98	3
71	72	5
105	106	1
90	90	11
7	48	3
75	75	1
36	52	6
121	121	5
15	38	1
38	38	7
78	78	7
73	73	4
1	20	1
4	37	2
67	78	5
25	25	2
33	34	2
54	59	1
95	97	1
57	120	4
83	107	1
87	89	2
4	4	6
13	15	2
10	54	1
20	20	4
0	0	4
109	112	1
102	102	2
35	36	2
93	93	4
129	132	2
56	56	7
128	130	3
117	118	4
49	50	3
60	64	4
84	85	3
70	70	3
113	114	7
58	58	3
101	102	6
101	101	1
32	32	6
74	74	6
9	13	1
122	123	2
20	31	2
12	12	11
108	108	4
25	26	3
85	85	3
84	84	1
129	130	7
3	3	5
79	79	5
50	50	3
5	5	3
132	133	5
104	130	1
14	15	1
30	30	6
62	62	2
37	37	6
53	53	4
30	31	2
21	21	5
71	71	2
121	124	3
58	120	2
14	47	1
67	68	3
8	8	3
22	23	2
33	122	1
11	11	4
62	74	3
37	50	2
9	15	2
89	108	3
115	115	3
122	122	3
32	33	3
127	127	4
117	117	5
58	59	1
106	106	3
2	2	1
13	13	6
129	129	4
67	67	4
28	28	11
104	104	1
28	32	1
82	126	3
89	98	1
0	2	1
66	67	3
5	53	1
62	63	1
98	108	1
84	88	2
107	107	6
24	24	1
60	65	1
80	80	1
31	32	3
96	96	4
16	16	1
125	125	3
103	103	2
67	69	2
109	111	2
59	59	3
9	9	2
15	16	1
68	68	3
33	33	2
18	20	1
13	14	2
82	82	3
97	97	2
0	13	1
113	113	1
108	110	2
1	35	3
98	98	2
73	91	1
31	31	3
23	24	5
110	110	4
88	91	1
119	119	6
5	6	1
86	86	2
6	6	2
7	14	2
27	27	2
72	73	1
100	100	4
82	111	2
8	9	1
26	26	4
19	19	4
45	45	6
5	15	1
1	29	1
27	34	1
60	63	1
127	132	2
66	66	2
61	61	5
57	63	2
95	96	1
128	131	1
91	95	4
29	29	3
13	51	1
32	122	1
7	7	1
33	57	1
106	107	1
36	36	4
61	62	1
45	47	2
105	131	1
115	116	1
131	135	2
57	61	1
43	52	1
11	43	1
91	92	4
105	105	1
86	87	3
0	87	1
124	125	6
24	25	1
18	18	1
120	124	3
99	99	2
72	72	1
125	127	1
31	57	1
34	35	1
54	55	1
28	29	1
51	51	1
83	125	2
57	58	1
111	112	1
16	32	1
2	39	1
53	61	1
82	108	1
33	59	1
22	54	1
58	68	1
37	38	1
56	57	1
7	15	1
82	83	1
75	77	1
24	26	1
125	128	2
85	86	1
87	88	1
9	11	1
17	20	1
45	46	2
58	60	1
34	59	1
18	34	2
116	117	1
27	33	1
66	68	2
68	69	1
100	134	1
27	30	1
63	63	1
99	100	1
70	76	1
8	10	1
