117	117	3
125	167	1
24	24	18
109	109	13
107	139	3
130	130	4
149	149	9
10	193	5
52	52	6
18	18	13
156	156	10
108	108	20
98	98	2
112	112	15
84	84	14
132	132	9
41	68	1
63	64	2
23	23	11
178	178	6
6	6	7
4	4	5
79	79	11
1	3	1
87	105	3
149	150	7
55	55	6
38	38	7
190	190	8
172	172	12
75	76	2
186	187	1
31	69	2
166	166	7
58	58	11
189	189	5
26	27	5
96	96	5
166	167	3
135	135	10
32	86	2
71	71	24
39	39	12
113	113	19
146	146	6
85	85	7
174	175	2
158	158	13
137	138	2
47	49	1
155	155	26
156	157	6
83	83	6
51	53	3
155	156	2
171	171	14
154	154	7
179	180	1
194	194	9
48	48	7
8	76	4
175	175	6
30	30	22
104	104	9
77	77	4
167	168	11
72	76	2
0	1	1
168	168	17
15	15	4
124	124	6
116	117	8
53	53	4
108	114	10
153	153	7
54	54	17
5	6	4
70	70	8
0	2	3
46	47	1
114	114	21
82	84	3
193	193	25
70	71	4
102	102	9
195	195	9
37	37	6
35	35	3
46	46	17
194	195	4
138	138	14
123	138	5
9	10	4
101	101	6
81	81	4
117	118	1
27	27	15
60	97	1
68	68	7
64	64	6
170	170	12
30	31	4
72	81	1
128	184	3
12	68	3
58	125	1
94	95	2
133	133	13
32	32	9
61	62	1
43	45	5
107	107	17
56	56	26
121	121	18
25	29	2
31	31	19
8	8	10
43	44	7
142	142	21
138	193	2
175	176	3
55	56	3
191	191	14
173	173	7
120	120	8
122	186	2
141	141	3
78	78	5
26	26	11
131	131	4
2	2	5
23	70	3
185	185	13
20	38	5
116	190	2
154	155	1
116	116	18
80	80	7
43	43	8
165	165	5
13	13	6
11	66	1
184	184	15
158	159	1
192	192	8
122	189	3
123	123	3
12	196	1
9	9	12
110	110	4
169	169	5
47	47	6
170	171	6
150	183	2
5	7	3
69	69	23
49	51	2
145	151	2
1	10	2
17	17	6
168	169	4
127	127	7
157	157	9
95	95	3
0	0	14
63	63	12
114	115	2
106	106	2
122	122	9
161	162	2
181	182	5
90	186	2
187	187	12
62	62	6
110	111	4
10	10	5
62	94	2
100	101	4
136	142	3
69	70	3
186	186	20
86	86	3
126	126	6
143	145	1
169	171	5
61	61	10
11	11	4
38	70	1
137	137	9
1	2	7
44	155	4
172	173	2
182	182	5
86	87	3
33	33	4
73	74	5
73	75	6
182	183	6
39	191	1
165	167	2
60	60	12
179	179	9
45	45	13
67	67	10
126	127	1
135	158	4
29	30	5
142	155	6
33	69	5
107	110	2
76	76	11
59	59	9
24	41	2
127	128	1
130	131	3
6	15	2
123	172	1
144	146	2
85	193	1
183	183	4
33	34	2
49	50	3
140	140	4
42	42	22
41	54	2
108	120	3
167	169	1
37	85	1
117	120	3
51	51	6
136	137	7
120	121	2
139	139	9
72	72	12
22	22	11
134	139	2
2	8	4
129	129	8
5	65	1
3	3	10
13	14	2
195	196	2
24	68	5
27	89	1
88	88	3
144	144	10
64	65	3
17	19	1
115	115	7
41	56	2
119	119	20
57	57	9
111	111	9
41	85	3
4	5	4
13	66	2
23	24	7
122	137	1
100	100	4
16	73	1
97	97	6
18	19	5
45	69	2
57	58	5
150	152	2
110	112	2
150	153	5
101	181	3
89	89	7
36	36	5
28	104	3
170	183	3
125	185	1
61	63	1
16	79	2
150	150	4
162	163	9
173	177	4
7	75	3
160	160	7
17	18	2
89	168	1
197	197	5
9	42	4
53	67	5
41	41	6
4	76	5
77	78	2
40	40	7
74	74	3
12	12	10
177	177	7
161	161	7
94	94	8
129	154	3
95	101	1
110	195	2
59	60	2
162	162	4
132	133	3
21	21	4
106	111	2
136	136	3
42	64	5
148	148	5
95	169	2
149	153	6
104	120	3
165	166	3
60	61	6
25	27	4
171	182	2
87	87	1
25	25	3
40	58	1
88	89	2
32	37	1
49	49	5
44	44	6
44	128	1
52	53	6
20	20	11
148	155	4
33	39	2
156	164	3
44	142	2
33	36	9
11	12	4
73	73	8
121	122	4
7	8	2
65	65	11
164	164	6
29	29	8
138	186	3
141	156	1
113	114	3
47	48	5
160	161	2
80	83	2
118	118	5
82	83	4
130	134	3
128	128	9
28	87	1
25	26	4
95	98	1
79	80	4
64	66	4
96	100	3
61	142	6
41	53	2
35	68	2
99	159	2
19	19	2
142	143	1
103	112	1
153	154	3
11	42	1
18	20	2
12	53	1
101	102	5
38	69	2
10	11	3
124	140	4
84	85	1
39	68	2
189	190	4
27	29	1
116	118	3
66	66	16
28	28	4
8	9	2
113	162	2
186	194	1
72	73	1
181	186	1
173	176	1
180	180	3
21	58	1
138	187	2
153	158	1
116	162	3
40	42	3
127	140	4
129	133	2
167	167	5
0	80	3
125	125	9
83	84	6
4	8	5
2	3	1
127	185	2
78	81	1
138	140	2
137	187	1
98	100	1
44	141	3
147	147	6
154	156	1
176	176	1
102	103	2
112	113	4
152	152	4
28	29	3
171	183	1
42	53	1
100	182	3
126	133	1
188	188	2
60	96	1
193	194	2
159	159	4
107	109	2
1	79	5
19	79	1
40	41	3
66	67	1
78	82	5
99	161	1
171	172	2
123	124	4
129	134	2
107	140	1
23	69	2
21	72	2
44	156	2
7	64	1
103	103	2
196	196	2
148	149	4
16	16	4
105	105	2
98	172	1
17	73	3
172	189	1
22	23	2
133	134	1
196	197	1
40	193	1
108	109	3
90	90	2
21	34	1
148	153	2
7	7	3
16	17	2
111	112	1
151	152	3
58	59	2
11	53	1
9	44	1
99	100	3
34	39	1
178	180	2
143	143	2
7	63	2
151	151	2
146	151	3
14	14	2
99	99	1
34	34	1
81	85	1
74	75	3
174	174	2
176	178	1
169	170	2
84	88	1
145	146	2
30	32	1
66	119	1
142	160	1
135	136	1
127	130	3
27	28	1
173	174	1
41	42	3
87	186	2
143	144	1
33	110	2
25	99	1
45	46	1
62	63	1
102	183	1
25	101	1
155	157	2
119	170	1
45	50	1
0	143	6
140	141	3
166	190	1
10	148	1
15	23	2
163	164	2
16	72	1
38	192	2
93	93	2
176	177	2
179	183	1
38	68	1
50	50	1
132	181	1
90	106	1
78	79	1
160	164	1
46	141	1
68	70	2
24	25	1
168	170	1
11	40	1
145	148	1
21	71	2
26	99	1
112	115	1
104	111	1
9	12	1
54	63	1
112	194	1
33	109	1
150	182	1
39	40	1
3	4	2
33	37	1
152	153	1
60	94	2
21	22	1
118	120	3
30	72	1
82	82	1
190	191	1
36	69	1
187	188	1
45	49	1
85	181	1
42	43	2
174	176	1
85	167	1
193	196	1
72	74	1
181	181	5
37	39	1
6	8	1
128	183	1
163	163	3
151	181	2
104	109	1
86	102	1
109	110	1
76	77	2
58	60	1
136	190	1
17	30	2
29	87	1
81	82	1
89	90	1
107	124	1
31	32	1
13	195	1
98	99	1
154	164	1
142	157	1
0	45	1
18	21	1
20	34	1
53	79	1
19	70	1
14	23	1
