85	86	11
77	78	4
64	64	19
80	80	8
29	29	4
45	56	1
65	65	36
39	39	9
66	66	35
63	64	11
59	83	5
37	37	8
91	91	21
50	50	9
66	73	5
91	92	7
77	90	1
45	47	3
77	77	15
99	99	11
31	32	2
49	49	7
63	63	28
93	93	18
62	87	3
84	84	6
58	58	6
26	33	1
42	43	3
56	56	12
96	96	8
25	25	10
50	59	4
53	53	14
78	78	11
71	71	8
76	76	13
87	87	12
54	54	9
62	63	6
47	48	7
91	102	2
40	65	5
76	77	6
52	77	6
85	88	2
100	101	7
45	45	6
92	92	19
68	68	17
75	81	3
69	70	3
83	84	2
94	94	8
40	40	14
90	90	18
32	33	2
70	70	14
52	56	4
35	36	8
81	81	6
57	57	10
86	88	8
43	43	9
31	31	10
97	97	6
61	62	2
36	36	4
51	51	4
59	59	3
88	88	7
70	79	1
73	73	21
69	69	4
49	60	1
75	75	17
99	101	1
72	73	11
26	26	2
38	38	5
64	85	1
37	38	2
86	87	6
34	35	2
101	101	11
86	89	5
61	61	15
87	88	12
38	40	3
93	100	2
49	52	1
79	79	10
24	25	3
71	72	1
72	72	25
51	53	1
34	34	5
28	28	1
41	41	9
59	60	2
93	94	6
62	62	17
95	96	3
95	97	10
64	74	5
27	47	2
46	46	6
20	20	4
69	100	2
85	85	14
32	36	1
62	69	3
67	67	25
52	53	1
36	37	4
92	101	3
67	71	3
64	65	5
33	33	6
100	100	12
35	38	4
23	25	1
70	72	2
60	61	4
99	100	3
84	87	1
95	101	7
74	75	10
50	60	2
63	65	3
42	42	11
41	73	3
47	47	4
26	31	2
102	102	1
98	98	4
35	64	1
41	75	2
40	41	3
43	72	2
54	61	4
44	44	5
64	67	5
38	95	3
65	66	8
86	86	12
90	93	2
31	59	3
68	69	4
65	70	1
75	76	5
82	82	6
64	90	2
95	95	13
52	84	4
53	54	1
82	83	2
76	78	2
29	32	4
48	48	9
70	78	3
50	51	1
98	100	1
79	81	4
25	26	3
67	68	3
66	67	6
45	81	5
84	91	1
49	50	5
74	74	10
58	59	3
93	101	2
89	89	3
53	55	2
53	79	2
52	52	2
101	102	1
55	55	8
33	46	2
27	27	2
24	27	2
83	83	5
40	90	2
68	71	1
94	98	1
98	99	2
64	70	1
43	73	1
55	62	1
60	84	1
65	69	2
46	81	4
92	99	2
29	83	4
24	28	1
70	71	1
20	88	1
35	35	3
48	49	1
54	55	5
30	30	2
50	81	4
68	83	2
45	80	1
61	83	1
92	98	2
32	37	3
22	34	1
93	102	2
70	77	3
88	89	4
84	85	1
39	88	1
41	74	1
72	74	2
89	93	1
97	99	1
67	69	4
77	79	1
90	99	1
26	68	1
44	73	1
73	74	1
84	92	2
49	61	3
80	81	2
26	27	1
81	90	1
60	60	2
27	46	2
63	70	2
87	96	1
89	96	1
45	58	1
97	98	2
34	38	1
62	70	2
83	102	1
63	66	1
58	61	1
76	81	1
93	98	1
52	67	1
20	25	1
87	89	1
57	72	1
51	52	1
31	65	1
92	100	1
79	80	1
85	89	1
57	58	1
22	22	1
75	87	1
