79	79	7
177	180	8
143	144	4
26	28	3
159	161	1
58	113	1
71	73	1
10	11	4
93	93	3
124	126	3
5	6	2
65	65	11
42	42	7
68	68	8
27	27	10
18	18	12
76	80	3
70	71	1
106	106	4
53	54	3
53	56	9
126	126	6
108	111	2
0	19	10
179	183	1
186	187	1
118	148	1
23	23	15
141	145	1
135	135	18
136	136	4
60	60	1
47	47	8
173	173	13
147	147	2
83	84	3
147	148	5
160	162	1
187	187	6
107	111	3
129	129	7
146	146	1
2	11	4
134	134	7
118	118	17
15	141	2
49	49	3
103	107	10
134	137	2
138	138	7
45	45	14
193	193	14
6	6	6
80	83	1
184	184	9
35	38	1
78	78	4
142	143	3
63	63	8
11	11	3
168	169	1
111	113	4
100	100	1
158	160	3
37	37	6
146	154	6
98	98	6
11	47	2
176	177	3
131	131	5
33	33	9
111	111	4
95	96	4
138	171	7
4	4	8
61	61	3
4	26	3
110	110	8
55	56	4
135	136	1
20	20	3
31	32	1
26	31	3
70	70	6
185	185	1
31	66	3
70	81	3
65	122	3
110	113	3
14	14	8
187	194	1
0	2	3
95	95	6
52	53	7
50	52	1
81	83	4
122	123	2
127	127	8
123	123	13
169	169	9
124	124	5
52	54	2
138	141	4
106	162	2
4	18	2
9	9	9
158	161	2
19	19	4
76	78	4
27	121	3
157	158	3
119	122	4
73	74	3
167	167	6
24	24	3
46	46	7
63	67	2
134	136	4
64	65	6
96	96	7
175	177	3
59	59	6
156	156	3
88	88	3
2	2	3
130	130	4
154	154	1
80	80	3
28	28	7
89	89	6
87	127	3
34	82	3
72	72	10
13	14	3
26	26	2
161	161	11
97	97	5
48	48	5
142	145	2
22	32	1
44	123	5
35	40	4
138	142	2
86	86	5
75	75	3
120	120	5
146	148	4
53	53	7
1	1	4
12	46	3
107	134	4
19	25	3
48	49	9
81	84	4
87	88	2
51	51	3
183	184	4
8	72	3
148	152	3
56	56	2
18	19	1
113	113	6
120	121	5
18	21	4
64	64	6
119	120	3
110	112	2
38	38	2
13	168	1
176	176	3
28	29	4
109	109	5
122	122	5
178	178	4
152	152	5
19	77	1
79	80	4
54	54	5
94	94	10
67	70	3
20	21	3
176	185	5
116	118	2
7	7	6
26	29	4
41	41	4
174	175	4
98	106	7
74	74	3
156	158	5
43	127	4
18	26	2
177	177	8
58	61	1
8	10	4
33	34	2
107	110	2
52	52	4
124	125	2
146	147	3
87	89	3
164	164	5
154	162	2
27	44	2
185	186	1
61	62	2
132	132	9
42	55	1
69	69	4
157	157	2
22	25	3
107	108	7
56	57	2
8	9	2
35	35	3
140	148	1
125	125	4
196	196	6
186	188	3
117	117	3
183	183	8
73	78	3
151	151	3
51	52	2
33	77	6
30	31	11
153	153	2
136	138	1
137	137	1
172	172	8
13	64	1
163	166	3
195	197	1
174	178	1
7	189	6
175	176	8
40	40	4
126	127	2
9	56	1
0	0	2
77	78	4
29	31	3
81	81	2
111	122	1
14	72	1
12	14	3
71	71	2
133	133	5
99	99	4
5	5	10
31	31	7
17	18	2
44	45	2
11	57	2
187	188	2
144	144	6
103	152	3
13	15	1
45	46	3
189	189	8
197	197	4
4	6	3
118	120	2
150	151	3
30	30	8
117	119	1
37	38	3
71	74	1
157	159	1
93	94	3
89	166	1
148	148	3
133	136	2
104	105	1
104	104	3
174	181	1
54	57	2
68	69	2
73	73	4
141	144	1
29	30	5
186	190	1
128	128	2
155	155	2
130	131	4
101	101	4
0	3	1
183	185	1
4	37	1
64	69	2
37	41	2
125	169	2
168	168	6
182	183	2
21	21	1
82	82	1
112	112	1
158	158	5
3	4	2
170	170	2
42	46	2
22	24	4
150	150	5
103	103	7
163	167	3
67	68	6
45	172	6
114	116	1
10	10	2
121	123	1
185	187	2
188	189	1
186	186	6
136	137	1
140	140	2
79	176	1
161	163	2
171	171	5
87	87	1
112	196	3
12	13	2
152	155	2
24	25	2
180	180	3
108	109	1
107	107	5
154	155	2
94	96	6
29	76	1
9	188	1
166	167	1
49	50	1
3	6	4
109	110	1
127	173	1
37	39	7
47	48	3
28	41	3
166	166	2
41	43	5
67	67	3
58	58	3
36	36	5
98	99	2
178	181	3
57	60	1
125	126	2
165	165	2
83	166	1
184	188	2
155	157	3
32	33	3
97	101	4
163	163	5
63	64	5
177	178	4
134	135	1
69	70	1
99	100	1
167	168	2
84	85	2
187	192	2
71	81	1
132	135	2
22	26	3
33	36	1
153	155	3
114	114	1
141	141	3
159	170	3
119	119	3
114	148	1
72	140	2
49	51	1
149	149	6
192	192	5
149	150	1
133	134	2
174	176	4
56	58	1
128	173	4
121	121	2
55	55	5
16	16	2
156	157	2
159	159	1
188	188	3
50	149	1
95	97	2
142	142	1
175	175	1
39	39	2
45	47	1
46	48	1
11	12	1
190	191	1
111	173	2
179	184	1
38	73	1
77	79	1
56	189	1
22	23	2
178	179	3
101	102	1
89	90	1
115	116	3
3	3	5
160	160	3
32	32	1
22	22	3
6	9	2
0	26	1
34	36	2
95	102	3
29	29	2
131	135	1
189	191	1
16	171	1
101	104	2
102	102	1
65	66	4
117	121	3
188	190	3
101	177	1
70	85	1
126	128	1
173	190	1
25	146	1
60	63	1
158	159	2
45	64	1
0	1	3
8	8	1
69	85	5
77	77	1
20	160	1
182	182	2
145	154	2
169	171	1
67	71	1
16	59	3
190	190	1
172	175	1
195	195	3
44	44	1
191	191	2
29	71	1
173	174	2
26	27	3
83	83	1
51	54	1
65	80	1
171	172	1
40	41	1
95	98	4
88	166	1
118	150	1
75	77	1
94	186	1
13	13	1
94	162	1
89	125	1
178	180	2
38	39	1
105	106	1
11	15	1
58	73	1
28	31	1
8	84	1
184	185	1
42	122	2
76	76	2
58	64	1
164	165	1
80	88	1
154	156	1
84	84	1
18	61	1
28	84	1
130	132	1
46	49	1
139	140	1
105	108	2
116	121	1
53	58	1
165	170	1
168	170	1
50	50	1
36	40	1
24	31	1
51	53	1
