9	67	6
27	29	3
134	134	14
48	48	4
29	29	11
33	35	3
19	41	9
197	198	20
73	73	3
44	45	2
156	157	8
147	147	5
107	158	1
20	20	9
222	222	10
51	51	5
33	33	17
222	223	5
192	194	4
181	223	4
56	57	2
156	156	8
105	161	4
5	5	4
14	14	5
191	191	7
151	152	2
189	189	6
34	35	13
51	53	1
233	233	8
236	236	15
9	9	9
129	129	2
151	242	1
215	215	8
53	53	5
139	139	5
218	218	3
220	220	19
28	28	12
84	89	2
185	190	3
106	161	5
102	125	9
188	211	3
178	178	7
25	28	3
95	229	4
80	81	9
219	219	10
224	225	8
25	33	4
176	176	6
25	25	6
7	8	2
151	151	9
21	22	2
28	155	5
17	17	5
101	101	6
99	99	6
72	79	12
34	36	3
227	227	8
115	144	3
6	108	1
179	190	3
1	1	2
1	128	1
36	36	17
47	48	2
162	162	5
121	122	3
126	226	1
128	128	4
123	124	2
31	35	2
80	84	1
170	209	4
226	226	5
60	73	5
31	31	4
143	143	9
83	84	3
22	22	11
119	133	1
57	210	2
2	2	12
170	170	12
102	238	1
223	223	15
110	120	2
219	222	1
119	119	8
29	32	2
80	80	16
6	13	1
104	104	4
100	203	1
204	230	4
205	205	12
14	17	2
148	148	11
187	187	8
118	143	7
124	238	2
79	79	6
188	191	2
177	178	9
111	111	3
178	217	2
212	212	4
117	117	1
26	27	4
119	239	4
138	138	1
99	221	1
43	43	9
67	165	3
39	39	5
207	208	2
96	96	2
234	235	5
179	179	8
45	46	6
40	40	5
28	29	2
95	236	4
15	16	5
190	190	5
13	159	4
27	27	8
20	38	4
18	38	3
55	56	1
198	199	1
107	129	8
129	131	6
175	175	6
77	77	5
120	121	2
153	153	6
192	192	7
83	83	2
122	234	3
140	140	5
109	109	6
24	24	9
100	222	2
175	177	4
80	83	3
160	162	1
34	34	7
185	186	4
30	30	12
186	194	2
182	182	8
57	57	8
211	212	8
188	188	15
237	237	1
201	201	4
102	236	3
214	214	3
38	38	3
198	198	6
72	73	2
3	3	5
77	78	6
206	206	10
158	158	14
82	83	2
225	225	10
70	70	8
13	130	1
228	228	4
63	205	4
125	226	1
122	122	9
144	144	6
239	239	5
39	40	3
115	116	4
187	193	1
130	130	3
66	164	3
48	49	1
57	216	3
64	64	7
85	85	2
230	230	4
84	87	4
7	7	1
235	235	6
51	69	6
213	216	2
195	196	6
160	160	12
14	16	3
172	174	1
98	98	9
106	106	7
118	118	13
13	156	1
56	168	3
46	46	11
86	86	4
71	72	3
212	213	1
155	155	9
137	139	6
95	95	2
13	14	2
63	63	3
148	149	3
166	166	6
195	197	3
58	67	2
157	157	12
221	221	7
71	73	3
8	8	6
52	53	1
52	52	6
58	72	2
101	122	6
5	6	4
130	159	3
35	36	5
37	153	2
0	0	5
204	204	7
10	10	2
34	185	1
104	173	3
204	225	3
135	135	3
207	207	4
170	210	4
136	136	7
50	50	3
210	217	2
152	152	5
167	167	8
7	10	2
13	13	3
11	11	2
74	74	6
67	67	3
61	62	5
31	155	5
167	168	1
22	23	6
144	145	2
159	159	6
171	207	5
16	17	6
238	238	9
110	110	7
71	71	3
32	32	4
110	119	5
85	230	5
234	234	6
134	135	3
58	58	5
3	14	3
135	143	3
194	196	4
212	214	3
115	120	4
45	45	7
175	176	1
26	26	6
113	113	4
103	104	5
145	145	4
73	74	1
170	224	2
56	169	2
10	54	2
217	218	6
42	42	6
120	120	4
146	146	12
186	193	3
171	208	5
202	202	5
10	65	3
142	143	5
109	129	2
180	182	2
174	174	7
66	66	10
81	81	4
145	147	1
195	195	7
116	116	6
29	30	6
143	144	4
99	234	5
172	173	2
121	235	1
115	115	4
37	37	2
61	61	4
108	109	3
196	197	1
84	88	4
180	180	5
108	108	2
82	84	2
209	213	4
7	72	4
230	231	1
65	68	2
166	167	3
183	192	4
20	21	2
30	155	1
203	203	6
44	44	2
97	99	1
1	237	6
185	191	4
138	143	2
210	210	6
213	213	6
197	197	2
134	142	3
1	228	2
105	126	3
102	102	3
182	192	2
125	125	4
118	119	1
97	97	2
154	154	3
150	232	3
1	205	6
209	217	4
58	59	2
103	105	5
114	115	4
171	171	2
28	31	4
120	151	5
123	237	2
133	133	7
82	82	5
136	138	2
91	91	2
190	212	2
75	76	4
184	184	3
149	149	7
141	141	4
125	126	6
200	200	7
211	211	1
1	125	7
179	181	4
185	185	6
224	224	4
32	33	1
157	158	2
7	9	2
163	164	4
38	46	3
232	232	7
18	19	1
146	147	4
180	223	1
72	72	1
186	188	2
69	69	4
242	242	9
41	42	1
133	142	2
47	47	2
137	137	13
12	127	3
163	163	7
50	53	3
59	59	6
30	239	3
56	167	6
215	216	8
168	168	2
121	121	3
27	32	1
38	39	1
149	150	2
197	200	2
130	230	1
225	227	3
154	155	1
165	166	1
183	183	4
122	123	2
120	149	1
121	147	4
55	55	3
29	35	3
59	73	3
54	65	1
107	108	3
11	206	1
226	237	2
53	54	3
104	106	1
153	242	3
109	242	2
54	54	1
191	192	3
0	158	1
113	133	2
218	223	3
11	127	2
178	215	3
56	166	1
187	195	3
225	237	1
49	49	4
172	172	5
180	222	3
125	238	1
68	68	1
75	77	2
35	35	2
199	211	4
124	124	2
1	124	1
103	103	3
104	126	3
147	148	3
241	241	2
20	34	1
167	169	3
239	240	1
123	225	1
98	99	2
6	129	3
123	152	1
225	236	3
223	224	4
87	88	2
127	130	1
240	240	5
229	229	3
213	214	2
183	191	3
17	19	1
17	18	1
103	163	1
112	113	2
168	210	2
186	187	2
188	189	1
57	58	2
173	173	2
202	203	1
189	212	2
21	21	2
142	142	2
0	1	4
95	152	1
194	195	1
12	12	1
171	218	2
5	130	2
102	123	4
78	78	1
109	126	1
174	175	1
236	238	1
105	173	1
76	76	4
11	12	2
9	65	3
103	162	3
123	123	1
84	84	4
222	227	1
189	213	2
116	117	1
97	100	2
120	232	1
95	238	2
194	194	8
40	42	1
6	12	2
205	230	1
135	136	1
65	65	5
114	114	1
100	100	1
240	241	4
150	150	1
45	47	4
155	156	2
111	239	2
105	226	1
7	11	2
25	27	1
169	213	3
221	222	2
224	227	2
186	186	3
170	213	1
10	71	1
6	6	3
115	118	1
24	25	1
180	181	1
164	176	1
111	132	1
216	216	1
131	132	2
4	228	2
16	16	1
232	233	3
199	199	2
208	208	1
128	173	3
219	227	1
211	213	1
105	105	1
171	172	3
102	225	1
177	177	3
184	185	3
5	107	1
60	60	1
217	217	4
100	221	1
172	207	2
132	132	2
78	79	1
38	49	1
0	126	2
164	164	2
17	44	2
59	77	1
62	128	1
165	165	1
181	181	1
133	143	1
22	34	1
9	66	1
60	79	1
57	213	1
57	214	1
137	138	1
56	213	1
6	84	1
56	56	1
229	238	1
173	174	1
49	50	1
90	90	1
17	47	1
88	130	1
108	129	1
66	67	1
102	124	1
176	217	1
145	146	1
