12	12	26
107	107	8
21	26	4
97	98	10
97	99	2
5	128	4
108	108	13
87	89	5
115	115	5
111	111	18
70	70	17
26	26	8
28	28	14
58	58	14
100	101	3
92	92	11
120	120	16
24	25	6
48	48	20
103	104	1
123	123	13
89	89	5
49	49	19
9	12	1
18	18	20
2	2	8
50	50	23
76	76	20
7	7	17
82	82	32
52	52	8
72	72	9
84	84	12
87	87	9
1	16	4
63	129	4
93	93	30
99	99	25
75	75	5
113	113	11
85	85	8
67	101	2
6	27	2
40	46	6
114	114	9
45	47	3
97	97	9
38	38	5
71	72	4
6	132	2
116	116	11
46	46	3
105	106	4
110	110	23
15	21	5
3	19	2
1	48	5
24	24	8
83	84	18
112	112	25
128	129	8
85	88	2
78	78	10
39	39	7
21	21	15
127	127	15
68	103	1
22	23	9
106	107	4
80	84	3
42	124	1
121	121	18
57	101	1
19	19	28
83	83	2
91	93	4
76	77	3
2	5	6
5	5	14
47	47	6
17	127	4
77	77	4
28	29	4
39	131	1
12	19	1
41	69	8
122	122	14
72	131	3
106	106	2
70	126	4
94	94	25
47	70	1
111	112	5
54	54	13
39	71	3
16	18	6
80	80	5
95	96	2
102	102	24
59	61	4
3	3	12
74	77	3
70	125	7
126	127	8
56	56	14
122	123	5
59	62	1
74	74	8
90	91	7
79	80	6
32	32	17
1	1	7
130	130	9
53	133	1
126	126	10
88	88	7
54	66	1
16	66	3
59	59	14
39	44	2
99	130	4
13	67	5
18	67	2
87	98	2
130	131	1
89	90	4
85	86	2
12	27	7
69	70	1
41	68	3
103	115	4
57	57	27
33	45	1
96	120	3
27	27	3
104	104	5
60	60	1
44	44	15
42	42	4
81	89	1
66	67	5
31	32	2
94	95	7
19	32	2
106	108	3
100	100	12
71	132	4
86	86	11
25	26	5
65	65	3
30	68	2
124	124	7
67	108	4
4	4	15
75	91	3
68	68	3
37	44	3
66	66	5
2	133	3
116	117	17
20	20	10
11	11	7
96	98	5
71	126	2
6	6	16
40	40	9
29	29	2
64	65	3
14	68	3
32	43	1
96	96	3
103	103	8
79	79	2
51	52	7
11	12	5
14	14	10
78	79	4
60	61	2
15	15	10
123	124	9
31	31	7
30	30	4
70	71	5
13	14	5
86	99	2
109	110	4
69	69	11
101	101	12
4	118	4
92	99	4
107	108	3
68	119	2
17	17	13
105	107	8
73	73	4
68	69	2
40	72	1
107	117	3
4	119	4
61	62	1
13	13	6
29	31	2
109	109	14
91	92	5
62	99	1
14	67	3
102	110	8
50	51	6
131	131	9
118	118	11
105	105	12
83	85	1
25	25	1
18	66	2
40	42	5
73	74	2
46	47	1
23	24	8
125	125	21
97	100	5
38	99	1
39	50	1
64	64	6
3	64	1
92	102	5
90	90	5
95	99	3
48	57	8
95	102	2
110	111	4
129	130	4
95	95	7
67	102	2
15	30	1
42	123	2
69	131	4
74	90	4
87	88	3
132	133	4
67	119	7
3	4	5
104	105	2
56	114	3
4	5	3
10	10	10
118	120	6
79	122	1
27	31	1
8	13	3
16	16	8
62	62	10
65	126	1
5	126	1
132	132	10
58	120	1
129	129	12
50	52	2
2	3	9
33	34	4
60	62	6
71	118	2
2	119	3
126	128	3
16	17	4
8	8	3
53	53	14
71	71	9
29	30	4
33	33	10
9	9	11
3	5	1
48	64	6
32	49	3
5	130	1
3	125	2
0	0	6
103	108	2
22	28	2
16	67	4
91	91	3
120	124	3
108	116	2
102	116	1
80	81	1
14	15	3
67	70	2
17	23	1
45	45	5
16	27	2
38	65	1
47	67	1
32	123	1
22	22	8
108	109	2
69	132	1
4	63	4
21	22	6
128	128	7
40	41	3
19	20	4
120	121	2
71	127	4
82	85	7
81	81	7
24	27	3
86	88	4
133	133	1
58	63	1
51	51	7
55	115	4
10	11	3
87	99	2
5	119	2
76	96	1
41	42	3
119	119	5
57	58	1
12	13	2
88	89	4
79	82	1
9	124	2
51	94	1
41	41	4
89	91	1
92	94	3
38	39	3
31	112	2
18	19	4
60	99	1
103	131	3
80	83	1
55	114	2
95	100	5
66	117	2
42	44	3
76	121	2
53	108	3
74	75	5
102	113	3
72	73	4
13	15	1
121	122	1
77	79	1
29	32	4
44	47	2
2	125	1
65	66	2
62	100	1
109	111	2
12	32	1
123	125	2
117	117	1
70	74	4
43	43	3
127	130	2
26	27	4
18	20	2
40	68	2
80	82	1
59	60	1
25	28	3
63	63	6
98	99	3
52	53	3
108	115	2
58	59	2
118	121	3
34	65	2
110	112	2
65	128	1
5	21	6
64	95	1
17	66	1
11	13	7
43	44	3
42	50	1
30	33	2
41	48	4
120	133	2
39	47	2
19	65	2
81	82	3
101	110	2
19	31	1
120	122	3
81	83	2
113	114	4
17	65	1
119	131	3
82	90	1
34	34	2
95	98	1
112	113	1
61	61	4
43	45	3
96	97	1
46	62	1
6	131	1
17	20	1
111	113	1
49	50	2
12	18	1
56	120	2
15	41	3
23	23	2
121	132	1
56	57	1
57	125	1
32	51	3
14	66	1
127	128	2
125	133	1
31	68	2
54	115	1
27	32	1
98	98	1
17	18	1
75	90	1
11	14	1
63	95	2
15	29	1
57	113	1
24	26	3
87	92	2
62	63	1
61	64	1
4	128	1
69	71	2
30	32	1
65	127	1
104	116	2
94	98	1
128	133	1
63	64	1
47	127	1
91	126	2
42	46	1
71	91	1
17	19	1
104	108	2
40	70	1
24	33	1
77	90	1
62	64	1
102	104	1
121	123	1
107	115	1
63	130	2
11	27	2
69	101	2
119	132	1
51	53	1
16	20	1
17	26	1
39	75	1
76	94	1
46	132	1
47	126	1
71	99	1
54	133	1
55	55	1
47	72	1
91	128	1
50	112	1
72	78	1
1	2	1
52	104	1
54	55	1
3	58	1
54	102	2
66	129	1
82	88	1
41	43	1
53	95	1
72	75	1
86	87	1
86	93	1
8	9	1
93	131	1
33	46	1
124	125	1
114	115	1
92	131	1
64	120	1
