27	27	23
85	85	11
45	45	10
76	76	5
100	100	14
44	44	13
77	78	6
38	38	15
79	82	5
111	111	4
87	88	5
24	24	12
98	98	20
97	97	10
51	51	10
77	77	13
78	78	12
53	53	19
85	87	1
54	54	18
46	46	14
93	94	17
33	33	22
42	42	9
101	101	19
61	62	5
67	67	25
82	82	5
30	30	20
25	25	17
28	28	19
74	74	15
42	54	2
95	95	11
50	51	12
61	61	21
34	34	28
102	102	7
96	96	26
62	62	17
70	70	14
29	29	17
107	108	9
25	26	5
43	43	15
40	41	12
98	99	7
92	93	2
64	64	3
66	66	4
105	105	9
71	71	21
84	84	13
35	35	15
60	60	3
96	97	5
32	101	1
33	95	2
74	81	1
103	104	3
80	80	11
71	105	2
43	44	2
72	72	13
33	34	6
81	81	3
44	78	3
36	40	2
73	111	2
40	40	15
99	100	3
76	78	1
62	66	1
93	93	9
68	68	11
71	72	8
73	73	23
31	31	16
51	101	1
26	26	14
60	61	6
90	91	4
35	36	3
92	92	6
66	67	4
75	75	11
91	109	6
35	41	4
75	76	3
78	102	1
49	93	3
97	98	5
32	32	14
103	103	5
41	42	7
59	59	16
79	79	10
43	75	6
74	75	7
76	77	5
48	49	5
107	107	7
65	66	1
35	39	11
55	62	1
58	59	4
55	57	1
93	95	5
32	70	2
54	55	10
56	58	2
86	86	7
73	74	11
88	89	3
53	57	2
113	113	15
31	111	2
64	67	2
108	109	2
54	62	1
114	114	12
47	47	8
22	22	1
79	103	1
21	47	2
20	20	11
72	107	4
60	73	3
50	50	12
55	55	4
94	94	14
78	80	2
75	80	5
25	33	2
28	29	10
91	91	2
87	87	5
27	28	3
26	51	6
20	45	1
45	77	3
73	80	3
49	49	8
112	112	7
48	48	5
23	23	8
26	46	1
85	86	5
47	96	11
58	58	3
56	56	6
76	90	2
62	72	1
53	54	10
41	41	7
55	56	2
102	103	1
23	111	1
56	59	3
105	109	4
74	83	2
52	52	7
109	109	2
115	115	2
99	99	6
32	33	5
95	99	3
93	97	2
110	110	8
90	90	9
37	45	2
42	77	2
24	25	2
41	60	1
36	37	3
94	95	9
19	19	4
74	92	2
86	87	1
83	84	1
44	45	2
74	76	4
21	21	12
108	108	3
76	106	2
34	35	8
21	96	4
101	103	2
30	111	1
39	39	5
22	23	3
47	48	3
69	69	5
53	55	2
36	36	6
23	24	1
88	90	3
95	97	2
66	68	1
37	37	7
31	88	2
63	63	4
89	91	1
65	65	5
49	50	3
88	88	4
106	107	2
22	94	3
112	113	5
39	40	1
59	91	3
53	56	3
29	31	2
28	30	1
33	83	4
109	112	3
35	40	1
83	83	5
32	85	1
103	106	1
55	58	2
19	22	3
37	39	2
44	102	1
108	111	1
95	96	3
35	49	1
28	31	4
25	73	1
26	27	2
32	100	3
100	101	2
79	80	2
79	107	1
92	94	2
31	110	2
70	71	2
20	21	2
101	111	1
59	60	5
110	112	2
51	52	2
43	101	1
72	74	2
45	46	2
53	113	2
55	96	2
104	104	3
89	89	3
54	100	3
46	47	2
48	51	1
49	94	7
34	39	1
102	107	1
106	106	1
22	98	1
27	52	1
97	99	1
30	31	2
22	48	3
22	47	1
105	106	2
44	53	1
49	100	2
75	91	1
82	84	1
23	93	1
19	20	1
42	44	1
79	81	1
52	53	1
26	41	3
46	49	2
111	112	1
27	111	1
45	111	2
22	93	2
26	47	1
53	107	1
66	71	1
32	50	1
54	63	1
54	58	1
54	96	1
67	73	1
54	98	1
