41	41	3
34	37	2
69	70	4
7	55	5
120	120	6
154	154	9
142	142	4
99	99	2
46	51	2
111	111	4
7	53	1
77	77	4
22	22	7
74	74	4
79	79	2
52	52	2
83	84	12
70	71	1
102	103	10
36	37	2
64	140	1
110	110	2
164	164	5
36	56	1
87	113	3
90	130	3
137	137	12
64	141	5
11	11	3
169	170	7
39	39	2
118	118	11
56	56	7
23	23	13
120	121	3
101	125	2
74	78	8
91	93	1
146	147	3
74	77	3
105	105	2
166	170	4
65	141	5
42	42	7
163	163	7
5	24	2
69	69	1
80	82	3
151	151	11
133	133	2
15	129	4
0	7	3
148	148	3
49	56	6
49	49	7
82	82	2
3	3	4
2	2	8
102	114	3
145	145	7
92	135	1
50	50	2
165	165	5
109	110	3
66	66	8
78	78	5
160	160	5
14	14	12
40	40	4
125	127	4
102	102	7
1	1	7
1	46	2
117	117	6
78	79	5
15	15	9
131	131	3
4	19	1
13	13	1
87	88	2
94	94	3
97	128	4
124	127	5
124	124	6
109	109	2
83	83	9
43	44	1
119	119	6
111	112	1
121	128	2
9	10	1
129	129	3
46	50	1
107	112	1
98	99	4
20	20	11
39	40	2
26	26	6
147	148	8
11	12	3
126	128	2
149	149	7
132	133	2
170	170	7
49	55	1
9	9	3
113	119	2
35	35	2
5	84	5
94	95	3
85	117	6
121	121	5
21	23	1
103	105	4
161	162	3
8	11	1
107	107	3
55	56	2
106	107	2
8	10	4
9	40	1
55	55	3
138	138	6
149	150	5
57	132	2
88	90	8
114	114	6
24	25	2
45	45	3
127	127	2
90	90	3
145	146	3
126	127	5
15	101	2
46	46	2
17	17	2
84	84	3
126	126	5
5	5	6
97	97	3
19	20	2
65	65	7
71	72	2
143	143	4
98	98	4
153	154	4
53	53	4
108	108	12
167	168	4
113	118	1
77	170	6
57	63	1
155	155	4
166	168	2
91	131	6
123	123	4
37	37	2
56	57	2
88	88	7
91	91	1
136	136	2
135	135	11
35	36	1
91	92	2
51	51	6
85	85	4
119	121	1
71	71	9
38	38	1
104	109	1
128	144	3
24	24	1
89	89	4
14	15	2
137	138	2
87	87	2
97	98	5
67	138	1
21	21	4
76	78	5
144	145	3
65	67	5
93	135	1
116	116	4
128	128	5
132	132	10
67	68	2
139	141	1
81	81	3
36	36	9
47	101	4
86	120	1
139	139	6
153	153	3
122	126	2
68	169	3
77	80	3
148	149	3
73	73	2
61	130	2
21	26	3
46	100	1
160	166	1
106	116	2
5	6	2
11	13	1
44	97	2
125	125	2
43	43	3
8	55	4
108	110	1
85	104	2
130	131	6
72	73	1
90	131	3
73	79	3
130	143	3
132	143	2
86	86	3
159	159	1
106	110	1
70	144	4
47	47	2
73	77	1
168	169	8
18	19	2
130	130	2
8	8	3
12	13	1
150	150	3
44	45	3
105	106	1
85	116	1
133	135	1
84	118	2
36	40	3
169	169	4
110	129	2
70	143	3
146	149	1
54	54	4
68	69	1
104	104	1
108	109	1
141	142	2
132	136	1
72	76	2
137	139	1
6	6	1
111	118	2
21	81	2
120	122	1
11	38	1
70	88	2
2	38	1
70	70	2
106	117	2
8	49	1
57	57	1
12	12	3
152	152	3
73	80	2
146	146	3
131	133	2
42	135	1
93	93	3
80	81	2
41	129	1
112	112	7
92	93	2
162	162	2
142	143	1
48	103	1
155	157	3
155	156	2
7	54	2
159	165	2
38	40	1
47	51	2
64	65	2
70	121	2
144	144	3
140	140	2
42	129	3
27	27	3
48	49	1
168	168	1
98	125	1
63	136	2
159	164	1
114	123	2
89	145	1
166	167	1
134	135	2
92	134	2
152	154	2
121	126	2
34	35	3
157	157	1
107	108	1
7	48	1
82	83	2
140	141	1
125	126	1
62	62	1
25	25	3
115	115	2
7	16	3
7	7	2
157	158	1
134	134	2
41	97	2
6	19	1
143	144	1
89	90	1
45	98	1
141	141	1
42	89	2
167	167	1
33	34	1
71	118	1
128	130	1
158	158	1
46	52	2
88	89	2
27	28	1
50	103	1
4	47	1
96	97	1
152	153	1
76	76	1
64	64	1
156	157	1
154	155	1
91	136	1
49	50	1
4	4	1
16	16	1
68	68	1
66	161	1
