65	66	2
53	53	13
6	28	3
103	103	8
112	112	19
19	55	3
107	107	9
48	48	17
38	45	2
59	59	6
110	110	11
100	100	12
42	44	1
129	129	5
11	12	7
50	50	14
67	67	5
94	102	2
12	12	12
132	132	6
27	27	5
45	45	17
92	92	11
63	63	11
6	6	12
116	116	2
1	1	14
102	102	5
0	15	2
58	104	1
21	46	2
57	57	9
71	71	9
20	58	4
3	3	9
32	32	7
93	93	10
56	56	18
52	52	11
19	19	11
70	75	1
46	56	1
25	26	10
28	28	9
122	122	16
82	82	6
73	75	1
7	7	13
102	103	2
95	95	20
26	26	4
130	130	9
54	58	4
24	24	2
65	65	9
114	114	11
74	74	14
95	96	5
55	55	15
123	123	22
62	62	5
22	28	2
107	110	6
78	78	6
4	100	3
4	4	20
101	121	1
49	49	11
70	70	14
0	111	4
1	2	3
8	8	15
81	81	14
8	21	4
68	68	6
97	97	4
24	25	3
107	108	1
98	98	7
89	89	15
98	99	5
96	96	5
31	31	3
45	48	2
13	13	5
15	15	10
18	57	1
60	100	1
53	54	2
127	127	10
117	117	12
0	0	4
27	28	2
51	51	15
55	56	4
75	75	9
119	120	3
3	16	2
22	33	1
128	129	4
129	130	5
107	123	3
109	109	21
71	79	2
42	42	13
19	28	6
15	16	8
121	121	11
128	130	2
9	10	4
118	118	13
119	119	4
29	29	10
105	130	1
110	111	9
86	86	4
47	63	2
5	5	17
131	132	4
73	73	8
32	33	1
43	95	1
82	85	8
111	111	9
41	41	10
50	121	4
42	93	1
45	133	3
131	131	7
40	45	6
18	18	9
86	87	7
46	47	5
60	103	2
66	66	7
125	130	1
125	128	3
62	105	3
69	69	10
90	91	3
90	90	8
79	90	2
16	16	8
27	112	2
58	58	10
51	52	8
82	131	1
84	84	4
77	78	4
87	87	5
5	17	2
98	104	3
2	3	5
133	133	10
21	21	1
67	75	2
108	109	2
115	116	1
2	19	2
76	86	3
17	17	11
79	79	5
33	33	2
4	25	2
62	81	1
125	125	12
113	114	11
124	124	9
22	22	7
40	40	11
25	25	5
120	123	3
85	85	4
99	99	6
76	94	4
20	60	3
55	66	2
40	70	1
60	60	13
99	100	6
122	124	1
83	83	9
54	54	13
81	82	4
88	94	4
49	95	4
43	43	14
13	110	3
61	62	1
44	45	3
64	64	2
84	117	1
94	95	2
50	51	3
22	25	3
79	80	3
5	20	3
101	126	4
101	102	2
10	57	2
113	113	13
66	72	1
11	11	15
77	77	5
126	127	6
18	19	12
9	9	5
106	107	3
40	52	2
70	71	2
120	120	5
31	34	1
95	109	3
25	27	1
8	9	1
67	68	5
57	58	2
127	128	1
116	117	7
89	130	1
4	22	2
63	66	2
113	117	2
14	14	5
9	26	3
18	48	3
62	63	4
94	94	3
114	116	5
30	30	3
85	86	3
104	104	4
101	101	7
91	91	4
98	118	1
100	101	4
49	51	2
83	84	4
31	55	2
120	121	2
19	20	2
20	20	8
2	2	8
68	69	1
29	41	2
54	76	2
46	91	4
64	65	2
29	30	5
39	46	1
97	103	3
94	116	2
17	18	1
44	44	7
15	17	2
18	20	11
40	74	2
47	47	3
119	129	1
3	4	2
128	128	4
116	122	5
121	122	4
70	76	1
46	46	7
47	53	2
38	38	3
75	76	1
31	32	3
34	34	2
52	54	1
126	128	1
109	110	2
14	52	3
23	23	7
64	67	4
72	72	3
60	61	3
42	43	5
106	133	1
118	119	2
25	48	2
88	88	2
95	104	1
26	105	2
58	59	3
32	49	2
10	10	2
60	104	1
63	64	2
4	5	2
88	105	1
78	116	1
72	86	1
115	115	6
8	14	2
82	84	3
102	107	2
3	13	1
74	75	1
2	66	2
30	57	2
63	70	2
4	6	4
5	47	2
104	105	4
77	109	1
102	117	1
114	127	2
83	93	1
111	125	1
112	120	1
56	58	4
106	116	3
111	113	1
108	108	5
41	76	2
26	27	3
67	69	1
80	81	3
21	25	1
78	79	8
54	115	1
56	75	1
42	53	3
52	113	2
33	99	2
21	108	2
100	118	2
53	76	1
76	76	2
3	33	3
112	113	1
28	82	1
126	126	2
42	45	2
69	71	2
78	114	2
79	88	1
118	130	4
106	106	5
46	48	3
60	92	1
55	57	1
19	105	1
7	8	2
13	14	1
105	105	2
53	125	3
74	89	1
61	61	1
92	93	1
39	40	2
23	65	2
0	1	2
44	69	1
115	118	1
7	9	1
64	108	2
83	122	2
39	39	4
86	88	1
1	121	3
38	44	1
65	120	1
14	15	3
1	64	1
45	53	1
5	16	1
67	72	2
38	39	1
99	103	4
78	99	4
84	85	1
78	82	1
93	94	1
66	67	1
55	63	2
16	44	2
65	74	1
120	132	1
95	105	1
28	29	1
60	108	2
103	104	1
107	117	2
64	71	1
109	118	1
124	125	1
96	106	1
50	106	1
56	106	1
103	105	1
48	124	3
16	21	1
55	62	1
117	118	1
40	46	2
103	127	1
3	10	2
54	55	1
60	62	1
15	19	3
21	26	1
104	106	1
60	68	1
114	117	1
26	31	1
94	101	1
129	131	2
94	105	1
16	27	1
13	25	1
96	112	1
95	112	1
125	127	1
13	52	1
101	106	1
103	107	1
52	83	1
103	109	1
47	48	1
51	121	1
122	123	1
90	131	1
41	65	1
72	103	1
