140	140	3
20	20	3
8	8	4
4	7	3
111	111	6
16	16	4
166	170	2
53	53	6
78	116	3
19	58	1
144	144	3
150	150	1
153	153	3
22	22	3
18	18	8
105	105	2
106	121	3
166	166	10
145	145	9
50	50	5
126	126	6
103	103	5
129	129	4
116	116	3
26	26	3
58	72	1
68	72	4
36	37	2
109	110	5
67	67	10
119	119	3
104	119	4
112	112	5
68	68	5
10	10	6
123	123	2
136	136	3
170	170	1
116	118	1
40	41	2
37	37	4
38	38	1
90	90	4
2	53	1
141	143	1
67	68	5
47	49	3
143	145	2
43	56	3
1	2	1
65	148	1
147	148	4
79	79	4
12	12	2
127	144	2
130	131	2
163	163	7
154	154	6
21	22	2
14	80	4
85	85	1
4	12	2
45	45	4
3	19	4
42	42	12
149	149	5
100	100	1
74	75	6
161	161	2
132	134	7
97	119	2
87	87	3
47	48	2
82	83	8
122	122	2
159	159	2
127	131	1
135	137	3
108	108	4
88	112	2
119	120	2
66	147	5
41	41	1
157	157	2
162	163	2
6	6	4
55	56	3
11	11	1
85	127	5
138	144	4
76	91	3
86	86	2
27	50	4
74	86	5
112	149	4
4	5	2
88	88	1
147	147	2
122	123	2
138	145	3
142	142	3
160	160	3
47	47	2
65	66	2
4	42	3
116	117	1
92	143	1
46	46	1
19	19	6
126	150	3
146	146	2
62	62	1
86	87	1
125	125	3
17	17	4
5	5	9
81	81	4
168	170	2
106	107	3
168	168	1
53	55	1
107	107	1
81	127	1
2	2	5
128	132	1
101	102	2
18	20	2
52	52	2
71	71	2
91	91	2
133	137	2
33	33	2
115	115	1
131	132	1
118	118	3
163	164	3
7	9	3
19	70	3
25	25	2
79	101	2
4	62	2
63	81	2
160	164	1
3	3	3
132	132	3
77	81	2
82	82	4
138	138	3
104	117	4
154	164	4
92	92	5
1	1	4
88	149	3
44	45	1
56	57	3
106	106	2
127	127	1
42	43	1
134	138	5
121	155	2
97	104	1
26	42	4
72	72	1
132	133	3
9	9	2
52	116	4
38	39	1
99	105	1
137	137	2
132	143	1
135	138	1
137	138	1
5	62	4
93	123	2
89	146	1
123	140	2
15	15	2
2	18	2
65	74	1
125	159	2
84	84	2
8	9	2
75	75	2
83	84	2
73	73	4
87	146	1
117	118	2
114	114	3
83	132	2
49	49	2
43	43	2
139	151	1
165	170	1
76	76	1
94	142	2
104	120	3
39	42	1
160	163	1
36	36	1
49	50	1
19	57	3
95	95	5
90	137	2
89	89	1
90	143	1
161	162	1
156	156	1
155	155	1
73	77	1
110	110	1
148	150	2
122	152	2
166	167	1
57	57	2
85	130	1
69	69	2
25	42	1
139	159	1
103	104	3
71	72	1
12	57	2
44	44	1
93	142	1
66	66	2
11	45	2
48	49	1
101	103	1
152	152	1
83	83	1
48	48	1
93	93	1
7	8	1
165	165	2
106	119	2
105	119	2
39	40	2
34	34	1
94	94	1
146	147	3
57	77	1
24	24	1
70	70	1
158	159	1
169	169	1
102	102	1
61	61	1
27	27	1
77	77	2
135	135	1
51	51	1
