69	72	8
93	94	8
23	23	5
48	48	4
127	127	5
114	114	16
111	111	5
49	49	5
37	38	4
100	109	1
131	131	5
117	117	8
110	110	6
90	90	6
46	46	7
21	21	15
115	115	9
26	26	3
102	102	13
7	13	2
85	85	7
105	105	4
132	132	7
4	4	6
123	123	6
30	30	9
5	37	3
73	74	4
71	71	5
100	100	8
57	57	3
97	97	5
115	117	3
7	20	1
108	108	7
79	80	4
13	13	4
102	104	3
74	74	3
18	26	3
94	98	4
74	76	2
17	17	9
56	62	1
5	120	1
112	112	3
92	92	8
83	84	6
82	82	4
29	30	3
112	113	1
64	65	3
7	8	3
78	79	4
36	36	15
6	7	7
25	55	2
61	61	3
53	54	4
107	107	5
106	107	2
12	13	4
18	20	7
17	29	2
78	107	2
101	101	10
92	93	1
8	9	3
115	116	13
130	131	5
121	121	10
10	13	1
120	123	2
92	134	2
68	71	1
76	82	3
57	60	1
53	55	3
43	43	5
9	13	1
0	5	1
103	105	4
127	128	6
25	25	2
35	114	5
55	55	5
118	118	2
33	35	3
16	17	5
5	7	3
20	20	3
2	32	2
5	14	3
96	98	1
63	65	3
70	102	2
120	120	5
129	129	6
10	10	12
76	76	1
78	80	3
18	34	2
3	3	6
91	91	3
2	45	1
5	5	3
1	1	4
14	14	3
35	35	3
35	36	3
63	63	6
117	118	4
5	6	3
30	31	4
84	84	9
16	16	1
0	2	2
44	62	2
58	58	1
96	96	3
2	2	3
85	92	2
113	114	3
89	90	3
79	79	6
54	54	6
108	110	2
8	8	6
65	65	2
37	37	3
68	72	1
76	77	1
36	112	1
60	63	3
58	59	2
19	19	1
10	11	2
78	82	2
124	124	7
85	86	2
62	63	5
38	38	2
80	84	3
21	22	3
26	44	1
102	103	4
59	60	3
16	43	4
87	89	4
24	24	5
83	85	4
126	126	1
118	120	3
8	36	6
92	94	2
1	3	3
26	27	3
96	97	2
75	75	6
80	80	6
68	69	3
6	11	4
34	34	6
127	129	2
24	27	4
99	122	1
62	64	6
52	113	1
7	7	2
9	14	2
64	69	2
28	28	2
18	32	2
130	130	4
100	101	3
28	31	1
83	86	1
42	42	3
77	78	2
27	27	3
9	10	2
74	75	5
88	90	1
62	62	1
72	72	6
77	77	6
97	99	1
107	108	1
22	24	2
121	124	4
119	121	3
116	116	3
119	130	5
123	125	3
7	9	1
94	100	1
58	62	3
73	81	3
97	120	2
81	81	5
63	79	1
5	8	2
63	95	2
102	107	3
73	73	4
97	98	1
23	60	2
25	57	1
69	69	2
68	68	3
94	94	1
113	115	1
3	4	3
74	129	1
50	52	2
80	81	1
44	44	1
129	130	3
42	46	2
55	107	1
123	126	2
26	60	2
31	31	2
2	3	3
93	99	3
113	113	6
22	22	2
99	100	3
135	135	2
8	10	2
67	67	5
72	73	1
25	27	1
61	63	1
95	98	1
75	135	1
15	16	2
11	37	1
37	50	4
109	114	1
14	16	6
105	107	1
78	78	4
128	128	2
35	44	1
1	63	1
27	30	1
134	134	4
29	29	2
3	7	2
126	127	2
114	117	2
95	95	5
89	89	2
21	26	1
114	118	1
88	88	2
32	34	3
80	82	3
62	74	1
133	133	5
86	88	1
104	106	3
130	132	1
3	5	1
38	86	1
67	71	1
53	53	2
87	87	2
9	120	1
48	54	3
9	11	3
18	27	1
130	134	1
59	59	3
86	87	2
116	118	2
29	52	2
5	15	1
66	66	4
90	92	1
28	54	1
58	100	1
22	23	1
52	52	2
1	4	1
30	53	1
11	14	1
11	11	2
6	6	1
45	54	1
15	19	3
81	118	1
83	83	2
84	85	2
7	14	1
65	66	1
74	77	1
72	94	1
29	31	3
109	109	1
122	123	2
104	105	1
131	132	1
50	51	1
44	45	1
98	98	1
102	106	1
122	122	1
82	83	1
56	61	1
20	21	1
33	34	1
77	79	1
106	106	1
66	79	1
121	123	1
72	74	1
50	50	1
77	80	1
86	86	1
59	61	2
