117	117	8
160	160	22
3	4	2
58	58	2
30	30	6
21	45	2
76	78	2
137	139	5
176	176	12
137	141	5
86	86	10
147	147	9
63	63	13
17	41	1
88	105	1
111	113	4
140	157	2
128	128	11
67	94	3
40	41	7
35	35	1
171	173	3
112	136	4
109	120	4
103	104	6
45	45	3
87	104	2
108	111	1
170	170	16
35	38	1
156	156	11
80	80	4
146	146	3
27	27	6
97	116	4
115	115	14
169	171	1
23	23	3
9	16	4
41	42	8
50	51	2
122	122	2
148	148	12
61	62	2
33	33	8
74	74	7
9	10	7
78	116	1
169	170	6
132	132	10
96	98	5
154	154	12
116	118	3
4	8	2
119	119	2
63	74	1
34	34	9
31	31	4
83	115	1
31	41	4
130	131	3
68	68	7
123	153	4
112	112	3
170	171	7
73	73	13
59	59	6
143	171	1
1	1	11
155	155	5
30	35	1
119	137	4
12	20	1
0	0	6
56	81	2
21	21	9
138	138	12
62	102	2
3	3	4
97	97	14
157	157	8
41	41	6
61	61	9
143	143	10
103	103	8
9	42	2
91	93	1
57	57	4
122	126	2
11	11	9
153	173	4
42	44	4
144	168	6
153	153	7
116	117	4
76	79	1
144	169	2
105	133	2
34	43	1
49	50	2
114	118	2
1	15	1
63	102	4
170	176	5
101	102	6
145	167	8
13	13	9
54	54	3
113	113	4
38	38	12
170	180	4
90	90	8
100	100	14
95	95	9
16	46	1
84	84	6
29	29	8
8	20	2
28	28	5
137	158	2
142	143	4
163	163	7
141	141	7
98	98	13
91	91	2
85	91	3
123	154	1
175	176	3
158	165	6
25	25	8
93	93	4
39	39	5
108	108	2
140	140	16
177	177	3
153	154	9
110	121	4
115	118	9
5	5	6
16	16	8
116	119	3
66	67	3
127	127	9
7	28	4
163	164	5
78	78	5
63	95	5
72	72	3
149	150	1
79	79	3
22	32	1
129	129	10
93	94	15
32	36	1
112	118	2
165	165	7
95	103	2
111	111	13
167	167	2
5	29	1
104	105	10
147	148	3
134	134	11
62	62	4
129	153	1
88	89	3
39	44	1
52	81	3
115	117	1
41	43	2
134	145	3
143	144	3
6	6	13
68	75	1
54	61	3
40	40	7
27	39	7
143	162	1
141	168	2
89	103	2
172	172	12
116	116	9
150	150	9
140	141	8
63	96	2
149	149	12
15	15	4
90	98	2
17	17	8
60	60	7
180	180	6
63	116	1
171	171	12
92	92	2
25	31	3
158	158	9
78	80	1
85	85	10
139	139	7
0	42	5
153	172	1
117	148	1
170	174	1
23	27	1
88	101	1
74	75	1
176	177	2
65	79	2
78	114	1
1	5	1
144	145	9
154	156	3
178	178	4
78	79	4
146	158	2
28	45	1
32	32	2
64	64	13
157	158	2
77	77	5
135	135	6
98	103	2
169	169	5
133	133	11
123	124	5
179	179	8
138	151	1
131	132	4
108	110	6
11	12	7
20	20	6
179	180	4
79	80	4
164	164	4
123	123	4
138	139	4
89	117	2
65	66	6
26	26	9
151	163	4
159	159	7
102	133	5
8	8	10
72	112	3
67	67	5
6	7	4
55	55	3
84	85	4
145	146	8
43	60	1
53	85	4
43	43	10
12	12	4
151	153	1
50	50	4
72	102	2
166	166	9
93	97	2
73	75	2
0	17	1
171	172	3
13	14	3
65	78	2
51	67	1
75	75	1
26	40	2
168	169	2
124	124	10
124	154	3
166	169	3
53	53	5
62	74	5
102	119	3
174	175	2
141	169	1
86	87	2
60	61	4
77	113	1
42	42	4
136	136	2
73	74	2
75	81	1
105	105	4
49	49	1
79	81	1
8	9	4
151	151	3
155	156	3
19	21	1
81	83	1
8	10	5
157	173	1
11	26	3
4	4	9
96	97	2
143	174	3
139	163	1
162	162	6
87	87	3
103	107	2
177	178	4
52	56	1
68	91	1
60	63	3
121	126	3
155	159	1
68	84	2
131	131	2
107	107	7
24	35	3
140	170	3
65	65	4
35	54	4
19	19	3
134	151	1
160	161	2
159	160	1
144	144	5
83	83	5
132	133	2
126	144	1
58	62	3
28	34	1
2	2	8
8	11	2
25	39	2
80	81	2
62	97	2
64	87	6
32	34	5
141	142	3
59	60	5
5	23	3
102	106	1
14	14	6
60	84	6
96	111	1
89	89	5
27	33	1
12	45	3
130	130	4
137	137	3
106	135	4
52	52	1
122	127	2
126	126	6
102	118	1
62	64	2
110	111	2
87	111	1
86	110	1
142	142	13
18	37	1
2	40	1
161	161	4
67	85	5
20	30	1
70	70	1
25	30	2
95	113	5
154	157	1
76	133	2
24	25	2
99	145	1
76	105	2
126	145	3
99	111	2
10	14	2
112	114	4
167	168	3
24	24	4
109	159	2
138	163	2
131	153	1
63	86	1
19	20	2
71	105	1
66	66	2
174	174	3
16	17	3
158	160	2
148	159	4
173	174	1
23	31	5
6	43	3
159	175	4
134	139	3
55	85	1
153	158	1
10	43	2
158	159	2
89	121	2
56	57	5
8	16	1
74	102	1
63	99	6
52	82	3
175	180	1
109	121	1
107	109	1
36	36	2
8	18	3
27	36	1
26	27	1
127	155	4
90	97	1
137	172	1
84	91	1
81	81	3
6	33	2
52	54	4
53	55	1
121	125	2
109	109	2
140	168	3
53	84	2
108	122	3
158	161	3
25	26	3
159	161	1
8	21	1
7	7	1
166	167	4
56	64	2
131	150	2
152	153	4
39	40	2
165	166	2
173	173	2
80	86	4
133	139	2
55	64	1
110	110	2
67	75	1
88	88	5
25	40	3
37	37	1
62	84	5
37	38	4
2	3	3
62	88	3
17	26	1
152	152	2
159	179	1
90	111	2
63	75	1
31	32	1
76	76	3
133	134	2
131	133	2
52	65	1
170	172	1
32	33	1
114	114	2
61	71	3
97	98	1
119	125	1
152	154	2
140	171	1
118	118	2
88	108	2
38	41	2
122	124	1
100	109	3
147	162	3
71	74	1
96	96	2
171	175	1
94	94	2
156	164	2
134	161	2
68	70	1
54	64	1
11	22	1
63	65	2
133	137	1
4	13	1
54	55	2
116	127	1
168	170	1
22	85	1
58	65	2
114	115	1
122	153	1
124	125	2
20	36	1
100	116	1
44	44	1
158	163	1
29	31	1
149	159	1
76	94	1
135	158	1
8	42	1
131	140	1
77	107	1
113	114	1
10	34	2
81	82	1
105	106	1
110	125	1
121	152	1
54	85	1
28	44	1
55	67	1
178	179	2
51	51	2
33	52	1
24	26	1
53	57	1
52	67	2
8	40	1
51	77	1
155	165	1
107	135	2
3	28	1
16	27	1
146	173	1
137	173	3
62	98	2
26	105	2
60	62	1
88	90	1
174	180	1
58	83	2
153	156	1
42	43	1
113	125	1
85	107	2
134	140	1
3	8	1
68	95	1
109	128	1
131	156	1
11	18	1
98	100	1
66	85	2
7	59	1
122	152	1
125	125	1
21	23	1
159	178	1
3	51	1
138	140	1
11	21	1
5	13	1
11	42	1
117	118	1
18	19	1
38	39	1
156	173	1
151	176	1
21	53	1
77	96	1
