143	164	4
144	172	2
91	104	1
24	125	2
5	33	4
55	55	10
58	58	1
13	13	10
16	16	5
122	129	3
133	133	6
76	76	3
95	95	7
54	66	2
136	137	4
18	18	1
91	92	3
129	129	3
77	123	5
138	138	3
171	171	4
85	85	1
115	116	1
171	172	2
156	168	2
32	33	1
127	129	1
37	38	3
86	89	6
160	161	1
0	0	5
49	125	3
14	14	3
17	21	2
7	8	3
81	81	4
52	60	2
170	170	1
153	154	4
153	153	1
66	66	1
96	121	1
5	5	3
156	158	2
155	159	3
86	86	2
87	90	2
36	36	6
59	75	2
78	78	5
79	84	1
143	153	3
26	26	4
56	65	2
110	113	3
30	31	3
94	94	1
18	41	7
168	171	1
114	114	5
33	33	5
93	118	1
154	175	2
6	6	1
151	151	4
50	51	3
57	60	2
154	154	10
177	178	1
128	128	1
57	179	1
147	162	2
106	106	6
1	24	4
24	126	2
19	19	2
37	37	4
73	73	8
39	39	1
75	130	6
75	99	2
140	149	2
81	82	2
137	137	1
91	91	1
40	41	4
93	119	5
15	16	3
140	148	2
101	103	2
160	160	11
112	112	9
88	88	3
65	67	2
62	62	5
83	84	1
103	105	1
41	45	2
117	117	2
15	33	2
29	39	4
132	133	3
139	140	4
134	156	1
15	15	4
60	122	2
6	7	2
142	150	2
175	175	3
22	22	3
43	64	3
135	135	3
23	24	3
164	164	1
9	41	3
107	107	5
131	131	2
107	133	1
8	17	2
162	169	5
80	80	6
35	35	2
66	67	4
108	108	7
126	172	3
76	78	3
140	154	4
76	112	3
8	8	5
123	144	1
79	129	4
172	173	1
20	37	3
6	15	3
153	173	3
75	75	1
155	156	5
44	71	1
128	155	1
163	168	1
54	54	3
77	77	4
3	40	1
89	89	6
97	121	1
84	107	1
38	38	2
71	71	7
5	34	3
136	136	2
145	147	1
88	89	2
41	41	2
148	148	8
97	97	5
134	135	1
25	25	3
50	110	2
66	68	1
82	95	1
43	70	1
80	94	3
28	31	4
45	45	2
126	126	1
40	40	2
3	53	1
72	72	1
111	130	3
4	38	3
18	44	2
131	132	1
4	4	3
68	68	4
164	175	2
108	109	1
129	160	3
25	67	1
159	159	3
35	71	2
22	41	2
60	60	4
104	104	2
28	28	1
0	42	2
115	115	4
90	91	2
113	113	1
134	134	3
154	155	3
18	42	3
130	167	2
1	1	3
51	51	2
93	104	2
21	43	1
132	132	1
179	179	3
27	140	2
148	164	3
22	126	1
145	150	1
170	171	6
42	42	1
149	149	3
127	128	2
149	165	2
151	173	2
158	169	1
82	119	3
139	139	2
68	125	1
75	119	2
174	176	1
162	162	3
102	106	3
105	106	2
22	144	4
75	100	3
5	42	1
92	92	1
76	114	1
152	152	4
77	78	2
80	85	2
31	31	3
113	114	1
99	99	2
144	161	1
158	158	3
128	145	1
94	96	3
153	166	1
151	175	3
13	42	2
131	156	1
9	10	1
81	98	1
114	116	2
61	61	1
15	32	2
27	27	1
40	67	1
111	112	2
102	103	1
56	56	2
147	147	3
125	125	4
56	66	2
44	44	1
124	124	2
153	175	1
58	61	2
148	150	1
84	84	2
173	173	1
94	95	1
103	103	3
122	122	2
158	167	1
165	165	3
23	23	1
130	130	6
167	167	2
142	142	4
121	121	2
17	17	3
138	140	1
138	150	1
78	79	1
52	52	2
51	61	4
62	75	2
39	40	1
1	42	2
168	169	2
166	167	4
16	42	1
163	163	2
19	44	1
105	105	2
145	145	2
115	117	1
151	174	2
148	149	1
154	159	1
43	43	1
35	39	1
136	160	1
144	144	2
7	16	1
88	104	1
97	98	2
156	167	2
176	176	1
122	130	2
23	126	2
23	36	1
7	7	1
27	28	1
82	94	1
118	120	2
92	107	1
156	160	1
3	3	1
161	163	2
17	54	1
81	97	1
28	39	1
53	53	1
134	155	1
95	96	1
54	65	1
32	32	1
102	104	1
102	105	1
123	123	1
180	180	1
3	29	1
43	44	1
142	143	1
111	146	2
85	86	2
36	37	1
107	115	1
79	79	1
87	87	1
143	143	1
111	111	1
0	16	1
123	147	3
153	171	2
96	96	2
172	172	1
109	109	1
13	20	1
19	71	1
55	57	1
86	88	1
21	64	1
4	5	1
4	7	1
61	62	1
167	170	1
