56	58	1
31	31	3
20	20	13
105	133	2
126	142	4
130	130	2
102	102	8
27	27	3
122	122	1
62	62	13
38	38	7
144	144	15
20	24	2
54	81	3
111	111	7
84	84	6
85	85	9
71	71	17
117	118	2
19	20	2
25	58	2
123	124	1
126	126	7
91	91	6
1	1	4
58	58	6
5	6	4
50	50	9
28	28	13
19	19	5
75	76	6
101	102	2
23	23	6
55	72	3
75	75	8
109	109	1
135	135	2
5	5	9
127	129	2
123	125	1
29	41	1
103	103	9
60	60	1
104	104	4
9	21	10
111	112	2
74	74	2
131	132	5
61	62	2
77	77	1
106	109	4
54	84	2
133	139	3
57	57	6
82	82	6
123	123	2
51	57	2
123	129	3
14	14	7
4	4	2
120	120	6
68	98	1
49	52	2
29	29	2
3	3	6
128	130	2
113	113	2
8	9	2
34	35	7
119	119	6
86	103	2
70	71	5
34	34	6
72	73	6
80	81	2
49	49	2
65	65	7
51	65	1
108	108	3
4	24	1
10	14	2
145	145	3
9	13	5
67	67	3
86	86	2
107	107	11
92	92	5
100	100	6
32	32	6
132	132	13
2	3	1
32	33	1
134	144	2
64	64	6
140	141	4
56	56	4
102	103	7
78	113	5
39	39	1
125	134	1
36	36	2
133	134	4
120	127	1
26	26	3
99	99	3
131	135	2
3	29	1
41	41	4
87	87	3
2	11	1
3	36	2
99	100	3
109	131	2
132	137	3
78	79	4
37	38	2
106	106	7
25	25	1
51	51	5
103	118	2
105	105	3
67	72	1
15	16	5
40	41	4
132	135	1
142	142	4
48	48	5
134	137	1
9	10	1
24	27	1
22	22	1
40	40	3
8	8	5
92	95	1
87	111	3
92	94	1
50	64	1
127	127	2
88	90	6
112	141	4
80	80	1
72	103	1
133	133	1
68	68	3
131	131	4
139	141	2
24	29	1
73	73	5
126	132	2
54	54	5
56	80	2
104	132	2
118	118	6
48	49	1
128	131	2
31	32	5
115	116	2
37	37	3
144	145	2
63	63	3
93	93	4
5	23	2
51	52	1
26	31	8
84	88	1
24	28	1
94	95	5
128	135	1
98	98	2
111	119	1
0	36	6
137	139	2
35	72	6
81	81	4
4	21	2
121	121	2
86	141	3
134	135	1
128	138	3
125	138	4
55	56	4
109	110	7
140	140	1
70	70	3
117	117	1
48	57	1
81	117	2
15	17	1
143	144	1
76	77	2
135	140	1
131	134	3
9	23	2
38	77	1
59	59	2
52	52	1
136	139	1
136	136	2
13	13	2
118	119	2
87	108	3
124	124	4
62	66	2
95	95	4
68	94	1
66	66	5
81	113	1
123	134	2
124	145	1
101	101	2
4	34	1
78	78	3
17	17	1
14	16	2
96	96	5
21	21	1
41	75	1
91	103	2
138	138	1
69	69	2
25	37	1
88	89	1
28	70	1
30	30	1
79	114	1
1	27	1
127	136	1
76	76	1
134	145	1
47	52	1
15	15	2
130	133	1
97	97	3
18	19	1
114	118	2
63	95	2
114	114	3
112	112	1
34	37	2
141	141	3
50	57	2
89	91	1
112	114	2
33	33	1
83	83	2
56	72	1
18	18	2
19	26	1
110	110	1
36	43	1
131	136	1
97	98	1
0	4	3
61	61	3
19	30	1
105	137	1
25	48	2
132	141	1
128	129	1
2	2	1
105	106	1
23	80	1
139	139	1
25	26	1
50	52	1
16	16	1
90	91	1
87	88	1
113	114	1
118	123	1
121	143	1
125	125	1
84	106	1
0	9	1
131	133	1
93	94	2
0	1	1
17	18	2
8	19	2
83	89	1
50	53	1
105	141	1
24	24	1
139	142	1
126	140	1
79	79	1
