67	67	12
82	82	12
84	85	7
66	67	6
80	80	7
54	54	8
25	25	24
58	59	4
71	73	2
77	77	5
62	63	14
8	10	3
8	9	4
52	52	7
51	51	16
47	47	8
30	30	10
50	51	2
71	72	3
79	79	17
46	81	2
64	65	7
50	55	2
83	83	10
31	31	11
48	49	9
61	61	21
51	52	2
34	35	3
74	74	2
26	26	9
58	58	13
47	50	11
23	23	11
54	55	12
46	65	1
74	76	2
75	77	3
12	15	6
10	12	1
85	85	9
75	75	15
25	26	6
81	81	9
58	75	2
26	27	2
6	7	4
56	56	11
24	24	12
78	80	3
62	65	2
5	6	2
80	85	2
3	4	6
57	57	6
17	17	4
21	21	2
78	79	4
7	7	6
76	76	7
48	65	4
8	11	10
76	77	2
9	9	8
53	54	4
50	52	1
62	62	15
60	60	19
28	31	8
84	86	6
12	12	16
68	68	14
19	26	11
16	16	8
80	81	7
22	22	7
48	48	14
8	8	5
82	83	2
59	59	6
64	64	3
89	89	6
78	78	11
56	57	8
61	67	1
61	63	8
34	34	7
49	55	1
11	11	6
19	21	2
72	74	4
63	63	15
27	28	6
65	65	13
16	22	2
22	26	2
76	78	1
53	53	9
49	50	5
68	71	2
0	4	5
19	19	11
27	27	14
10	11	3
70	71	3
55	58	1
75	76	2
20	20	4
11	16	3
50	50	10
0	1	2
20	23	4
84	84	11
70	70	4
3	3	6
66	66	10
72	73	6
86	86	3
59	60	4
57	58	4
22	24	2
52	55	7
47	48	3
0	0	1
9	12	2
59	64	8
22	23	3
35	35	1
5	7	3
49	75	9
79	82	8
87	87	15
81	82	3
4	5	1
46	47	1
2	29	1
7	10	1
79	81	4
4	8	6
55	55	3
71	71	2
18	20	3
47	57	1
73	73	1
16	17	4
5	5	7
21	23	4
31	32	1
15	16	1
85	87	2
21	89	2
68	69	4
84	87	4
14	14	9
60	62	3
10	10	3
48	50	5
56	59	1
55	56	1
52	53	8
60	61	5
82	84	1
13	16	2
49	67	2
65	66	4
51	54	2
18	18	4
4	4	5
1	1	6
47	56	2
47	53	1
84	88	1
81	85	2
6	9	3
69	71	1
52	57	3
53	59	1
74	78	1
69	69	5
13	14	3
7	8	1
2	2	1
0	2	1
20	21	3
1	2	1
57	76	1
72	72	1
16	20	3
47	78	1
3	28	3
56	60	1
32	32	1
88	88	7
49	49	2
28	29	1
79	85	1
47	75	1
1	4	1
46	48	1
49	52	1
88	89	2
14	15	1
6	6	1
27	30	1
48	52	3
74	77	2
49	70	1
17	20	3
2	3	2
13	13	3
54	60	1
51	53	1
12	17	1
77	79	1
20	22	1
9	13	2
53	61	1
46	46	1
9	11	2
73	74	1
19	20	1
81	88	2
12	14	1
23	25	1
74	75	1
17	22	1
86	88	1
5	10	1
28	28	1
