136	139	4
139	139	13
44	45	5
18	19	3
123	135	1
184	184	16
25	25	8
130	137	6
39	39	8
182	184	2
114	115	4
188	189	3
40	41	6
18	18	6
148	182	3
56	56	10
16	16	1
27	64	2
2	2	12
108	108	5
189	190	5
20	20	4
38	38	5
104	104	1
135	135	3
94	95	2
116	116	6
11	32	1
47	47	3
17	25	1
109	109	2
161	161	5
33	33	5
88	125	1
141	141	6
101	102	2
111	111	7
162	162	3
179	180	5
128	139	2
103	141	1
118	118	3
52	52	7
79	79	2
95	95	9
143	143	9
155	155	3
97	97	4
63	66	3
119	119	12
133	133	4
157	157	8
151	151	8
103	142	4
67	67	11
10	10	4
104	132	1
90	90	7
107	109	3
136	137	2
154	178	2
42	42	1
146	146	7
178	187	3
54	54	5
130	130	5
165	165	7
127	127	7
4	15	4
95	105	5
183	183	6
152	152	2
169	171	5
87	124	1
155	162	2
181	181	4
12	12	5
80	82	3
1	1	3
167	167	6
77	77	12
55	55	4
57	57	3
142	144	2
19	20	5
161	164	4
34	34	2
154	154	6
110	111	2
78	78	2
72	72	2
99	99	4
151	153	3
116	117	1
74	74	2
86	122	4
122	122	5
98	98	1
96	97	3
85	157	5
110	112	2
75	75	4
125	134	1
120	120	1
125	126	2
178	178	1
57	66	1
110	110	12
84	84	6
48	48	7
99	100	2
176	176	3
85	85	8
153	153	17
4	4	3
186	186	3
106	106	8
148	178	2
115	117	2
11	12	1
40	40	4
53	53	1
27	27	2
17	53	2
177	177	3
95	171	2
18	24	3
105	105	1
168	168	1
171	171	2
173	173	3
83	83	4
63	74	2
86	86	2
189	189	3
5	9	2
26	27	1
24	24	5
61	61	8
112	112	2
105	106	1
22	24	2
110	113	5
118	119	2
167	168	1
125	136	2
142	143	1
129	129	2
21	22	2
84	184	2
160	160	2
87	87	1
183	184	2
168	169	1
86	164	2
143	144	4
56	57	2
185	186	6
121	166	5
100	100	4
93	93	8
10	13	1
31	31	3
6	6	5
21	21	3
63	63	1
3	3	4
156	159	2
14	15	1
172	173	4
94	94	2
113	113	8
129	132	1
138	159	1
34	35	4
156	157	1
16	65	2
89	111	1
125	125	7
123	123	1
2	3	1
128	129	1
147	149	1
147	147	2
45	45	5
158	158	3
88	90	2
35	35	3
169	169	2
159	159	5
154	162	2
26	69	1
156	156	8
100	104	4
90	93	2
132	132	1
43	43	2
88	88	1
58	79	1
26	26	5
45	46	1
86	163	4
7	8	1
38	48	1
94	123	1
121	121	3
95	111	2
145	145	1
155	156	1
13	13	1
166	166	2
17	17	3
139	140	4
131	136	1
150	179	2
39	53	1
144	144	2
120	166	2
42	45	4
19	19	2
81	81	3
174	174	6
128	128	2
174	175	1
133	136	1
134	134	2
15	15	4
114	114	4
140	140	2
115	116	2
89	90	1
178	180	1
33	34	3
7	7	1
73	74	1
185	185	4
39	40	1
5	8	2
91	120	2
178	179	2
142	142	3
178	188	4
59	61	2
13	79	2
79	84	2
57	59	1
175	176	4
180	180	1
173	174	1
122	164	2
94	107	1
17	39	2
158	159	4
89	89	2
104	105	2
43	44	1
187	189	2
175	175	1
165	166	2
3	83	2
41	41	1
11	37	1
11	70	2
16	68	1
70	70	2
92	92	2
145	148	1
93	108	2
104	130	1
141	146	1
187	188	1
128	138	2
11	11	2
126	164	1
15	82	3
87	88	2
5	7	2
105	107	1
85	185	1
182	182	1
27	71	3
49	49	1
152	161	3
131	131	3
36	36	1
187	190	1
13	64	1
130	138	1
46	52	1
90	120	1
45	52	2
115	115	1
179	179	1
102	143	1
121	122	1
78	79	1
128	165	1
190	190	1
101	101	1
0	0	2
153	154	1
100	102	1
57	83	1
120	121	1
106	107	1
122	135	1
59	79	2
148	151	1
148	148	1
138	138	1
92	93	1
32	37	3
164	164	3
117	118	1
158	167	1
10	82	1
42	54	1
19	24	2
103	103	1
117	117	1
92	109	1
132	133	1
46	46	1
61	79	1
80	80	1
85	163	1
102	142	1
149	149	2
41	42	2
91	92	1
95	108	1
68	68	1
16	57	1
27	69	1
172	172	1
