21	23	8
73	73	1
29	32	3
95	95	3
78	80	4
40	42	1
25	27	3
21	45	1
101	101	6
77	77	8
31	44	5
103	103	5
86	95	2
41	43	8
85	86	3
26	44	4
105	106	3
28	28	7
45	62	2
99	101	2
41	44	1
106	107	3
102	104	4
68	68	4
41	41	3
83	93	2
25	35	2
28	30	11
93	94	4
30	36	3
67	69	3
47	48	3
67	67	6
56	56	9
65	66	1
101	102	3
75	97	2
33	43	3
55	55	3
64	65	4
82	87	2
92	95	1
102	102	5
45	60	1
22	24	3
48	72	2
47	52	3
24	39	4
105	105	9
83	83	2
49	66	2
55	80	3
77	84	1
68	74	2
76	77	1
75	82	5
38	44	1
70	78	6
78	81	2
35	39	1
85	90	3
104	104	2
92	98	3
26	41	2
72	97	2
87	89	3
84	90	4
45	51	2
101	104	2
70	70	2
88	88	4
35	35	3
30	41	4
54	55	6
86	86	6
76	78	4
21	29	3
83	102	4
96	99	2
97	97	4
34	40	4
43	50	4
49	71	1
57	58	2
94	94	2
39	45	3
75	75	6
49	55	4
74	76	4
92	94	3
52	56	2
29	29	4
54	75	2
32	34	3
63	68	5
33	36	4
60	60	8
70	75	1
38	42	1
104	105	1
49	70	1
78	105	3
45	45	1
65	68	1
37	37	2
37	62	1
41	42	4
48	50	1
71	72	1
77	78	4
45	56	2
66	75	5
50	75	2
58	65	7
104	106	4
90	97	4
65	76	2
53	63	1
70	82	3
69	73	5
33	45	3
52	55	1
66	71	2
62	69	1
21	28	2
92	93	2
84	85	1
55	57	1
44	50	3
77	102	3
51	51	4
45	47	1
26	29	2
100	100	1
44	55	1
87	87	5
49	50	1
26	84	4
36	43	1
74	91	2
83	90	2
83	95	1
69	77	2
30	51	2
61	61	5
65	69	1
66	69	4
106	106	2
40	43	1
39	43	2
36	37	4
90	90	2
89	90	2
65	70	3
69	92	4
48	49	4
46	46	2
28	37	2
99	100	11
89	93	3
98	98	4
103	105	1
72	73	1
43	58	2
89	89	4
96	96	4
69	72	3
34	35	3
29	75	3
20	24	2
78	82	2
65	65	1
37	38	5
57	82	1
85	88	2
62	82	2
68	71	1
26	27	2
22	23	2
49	60	1
77	88	1
64	81	2
52	62	2
76	76	2
24	25	1
67	98	5
105	107	3
27	55	1
42	42	1
71	80	2
76	82	4
52	53	1
84	84	5
76	83	5
77	80	1
50	50	5
45	66	1
38	38	3
83	88	1
75	101	3
79	80	3
79	81	4
80	82	1
39	40	2
74	75	1
21	25	4
78	78	1
71	76	1
59	63	2
49	49	3
27	27	2
69	85	1
93	93	5
20	75	1
60	61	1
67	68	3
85	85	3
27	45	3
42	47	5
24	27	3
24	66	6
77	81	4
68	98	1
98	101	3
91	92	1
74	74	4
63	63	1
49	73	1
48	67	1
30	30	1
41	65	1
30	34	1
24	47	2
42	43	1
97	98	2
46	54	1
62	64	1
33	56	1
94	96	1
79	100	2
33	34	2
34	37	1
85	87	1
43	47	2
71	71	1
95	104	1
21	30	1
44	58	2
66	68	4
33	48	1
34	36	1
26	26	1
96	98	3
50	51	1
48	65	1
68	73	3
49	51	1
51	53	1
66	66	2
64	69	1
21	26	2
31	31	1
33	33	1
39	39	1
61	62	1
77	105	1
44	44	2
58	78	1
74	95	2
38	58	1
21	22	1
62	62	1
43	43	1
55	56	1
49	56	1
25	28	1
20	32	1
75	83	1
86	98	1
43	45	1
30	32	2
100	101	1
52	71	2
93	96	2
96	100	1
30	31	2
88	103	1
64	73	1
20	25	1
81	84	1
32	33	1
72	72	1
58	59	1
83	87	2
37	60	1
70	84	1
35	38	1
72	74	2
76	80	1
43	52	1
58	58	1
23	23	1
63	65	1
57	57	1
92	100	1
37	41	1
34	34	1
46	51	1
38	39	1
25	36	1
54	78	1
