76	76	10
31	32	11
122	122	4
111	111	4
98	98	9
114	124	2
104	105	2
100	100	9
5	13	1
108	108	4
27	31	2
17	17	2
125	131	4
108	131	3
66	68	1
48	48	3
96	96	3
43	43	4
11	11	3
58	58	1
88	88	9
129	129	4
11	63	4
110	120	3
126	130	4
55	58	5
26	26	4
107	126	3
57	57	8
40	40	7
10	30	8
118	118	6
56	56	11
63	64	1
110	111	5
16	75	1
74	74	2
87	87	4
4	4	5
76	77	3
77	77	1
26	45	3
64	65	4
68	84	6
23	62	4
62	62	3
31	54	8
10	15	3
25	25	2
3	14	1
27	27	3
3	3	3
117	117	5
72	74	1
97	98	3
109	109	7
91	91	5
105	105	5
1	7	2
45	55	5
103	103	8
110	110	7
49	56	4
43	45	8
95	113	4
86	87	2
1	1	3
45	60	2
86	86	2
77	80	1
6	6	2
91	93	1
116	116	3
49	52	1
99	99	1
51	121	3
38	80	1
64	64	2
109	125	3
92	93	3
39	40	3
14	14	1
49	49	8
112	113	5
25	29	2
115	115	2
32	32	3
5	5	7
47	55	2
11	14	2
70	70	1
55	62	1
131	132	2
2	3	2
42	42	2
102	102	2
93	93	5
99	100	7
63	63	3
120	133	2
94	95	4
65	65	1
18	18	2
33	33	8
90	92	1
3	11	2
41	44	1
29	76	1
72	73	2
81	81	6
4	5	3
98	99	1
107	107	4
12	12	3
29	29	1
130	130	5
16	16	1
20	27	1
97	97	5
39	39	3
59	59	8
15	15	5
128	129	1
61	62	4
84	84	2
88	106	1
130	131	3
7	17	1
22	22	2
8	8	4
15	30	1
120	120	7
7	7	6
68	85	1
82	84	1
90	90	3
132	132	3
116	117	3
83	83	5
77	88	2
128	131	2
4	30	1
89	90	6
121	121	2
59	65	2
12	63	2
48	58	2
71	71	3
127	127	4
85	85	7
10	11	3
48	55	1
65	67	2
72	88	1
82	94	1
111	115	1
113	113	1
106	127	1
110	123	2
107	119	1
44	44	5
60	60	3
28	28	4
19	19	3
82	82	2
61	61	3
30	30	4
124	125	2
95	104	3
106	107	6
92	97	1
91	92	3
69	101	1
0	0	3
78	86	3
24	24	4
89	91	1
70	72	2
103	126	1
23	23	1
92	92	1
55	55	1
58	59	3
68	68	2
94	94	1
114	114	2
10	17	2
66	66	1
53	56	2
34	34	1
94	96	1
46	46	2
4	13	1
83	84	2
45	45	1
3	10	1
51	54	2
13	66	1
22	29	1
103	125	1
38	38	1
106	124	1
119	130	2
0	1	1
47	47	1
50	50	3
78	84	1
69	69	2
124	124	1
27	32	1
93	117	2
73	73	1
86	91	1
80	80	1
111	113	1
107	108	1
112	114	1
18	20	1
51	51	1
32	47	2
131	131	1
101	101	2
25	32	2
104	108	1
7	76	2
27	44	1
113	114	1
83	85	2
39	75	2
9	9	1
74	89	1
128	128	2
40	72	1
75	75	1
21	22	1
105	132	1
21	21	1
77	79	1
33	34	1
16	20	1
17	18	1
108	118	1
70	71	1
44	45	1
15	29	1
13	13	1
112	112	1
133	133	1
45	46	1
