174	174	6
155	155	7
47	47	3
135	135	6
187	188	4
76	76	3
17	17	11
68	68	7
166	166	6
0	3	2
114	115	4
183	183	3
36	37	3
139	139	4
18	20	2
105	105	4
122	122	4
12	16	3
161	161	4
57	57	7
146	169	2
182	182	5
15	15	3
102	129	2
157	157	6
164	164	6
7	10	9
22	23	3
126	126	1
34	34	3
72	72	10
24	24	3
87	87	7
156	156	1
56	56	10
1	1	3
67	67	6
104	104	4
37	37	7
87	100	2
185	186	4
103	131	1
150	151	4
146	146	3
86	86	9
124	125	2
19	19	3
85	85	7
74	74	3
107	107	7
114	114	5
66	67	5
12	14	3
2	2	2
145	168	6
170	170	3
36	38	2
82	82	4
122	139	1
78	78	5
87	93	2
141	141	7
167	167	9
36	36	4
89	90	4
117	117	2
26	26	7
118	118	8
173	183	2
28	46	2
158	158	7
147	147	7
37	38	4
168	168	3
80	113	2
20	20	7
109	109	5
40	40	11
109	111	2
149	149	8
45	45	1
61	61	3
175	175	3
22	22	6
123	123	4
31	32	3
46	47	3
4	5	5
19	23	2
90	90	7
163	165	2
136	136	7
39	39	8
21	21	11
92	92	3
184	185	3
141	166	2
119	120	2
189	189	1
145	174	4
177	179	1
137	137	1
7	7	2
112	112	2
171	171	1
113	113	3
121	121	4
46	46	5
120	121	3
32	32	8
14	14	3
59	61	3
96	96	4
182	183	3
176	178	2
29	29	2
150	150	1
81	81	4
64	64	5
101	101	5
23	23	7
124	124	3
184	184	1
58	59	3
12	12	4
93	93	2
76	77	1
83	134	3
104	134	5
115	122	2
83	108	5
65	65	4
108	108	2
140	146	3
102	102	6
132	132	1
150	159	3
54	55	2
117	119	1
9	9	3
173	173	4
121	143	1
105	106	1
145	145	3
153	153	9
60	61	4
38	38	2
75	76	1
137	138	5
61	62	3
0	0	3
28	29	2
136	137	1
8	8	1
11	11	7
75	75	8
6	7	1
5	95	2
133	133	2
169	183	3
41	41	3
83	83	4
13	13	1
6	6	1
127	159	1
141	144	1
138	139	1
163	163	4
143	165	2
117	118	1
39	40	3
120	120	5
103	103	1
187	187	1
183	184	1
160	160	3
35	35	2
3	3	2
53	53	4
142	142	1
151	151	1
5	5	2
20	23	2
172	172	3
173	174	3
172	173	1
4	6	3
11	12	1
159	159	1
31	31	1
55	55	3
94	95	3
45	47	1
86	90	1
27	31	1
79	79	1
134	136	1
48	48	2
63	63	1
154	154	3
7	8	1
110	110	2
125	125	1
90	93	2
106	106	3
98	98	1
79	117	1
106	108	1
94	94	1
176	179	1
16	16	1
154	155	2
57	58	1
25	25	1
84	133	2
27	29	1
170	183	1
170	185	2
65	68	1
8	10	1
53	55	1
179	179	1
130	130	1
28	31	1
73	73	1
53	54	1
66	66	1
134	135	1
97	97	1
190	190	1
58	58	1
83	104	2
93	94	1
169	171	1
119	119	2
162	162	1
87	91	1
84	84	1
10	11	1
