227	227	7
116	116	3
74	75	2
11	25	2
217	217	13
158	229	3
44	44	4
166	167	1
162	162	2
44	45	3
144	145	2
75	75	3
165	166	9
169	236	3
232	232	6
205	205	13
85	85	1
52	52	7
10	10	3
160	160	5
59	59	7
163	163	3
50	50	13
63	64	3
184	185	1
160	161	1
139	139	11
185	193	2
109	110	4
186	187	2
138	138	4
165	165	8
131	131	4
121	235	3
201	201	5
240	240	1
11	12	2
154	157	6
181	181	8
17	17	5
153	153	1
24	25	10
35	35	2
120	203	1
18	20	3
46	46	4
197	197	4
119	133	2
8	9	2
52	53	3
47	47	4
103	207	1
228	228	5
192	193	2
132	134	1
56	57	5
170	170	5
101	101	3
15	15	13
82	82	6
111	111	6
166	166	9
104	104	6
0	33	3
209	209	3
169	170	4
42	42	5
212	213	4
58	58	3
15	16	1
157	157	10
36	37	1
222	222	6
111	112	4
150	216	1
22	23	3
53	53	4
148	148	2
115	134	2
78	83	3
174	175	1
120	201	2
242	242	4
120	121	1
234	236	4
189	189	7
142	142	5
54	54	2
204	204	4
130	150	1
217	218	1
178	178	6
218	219	2
38	38	11
59	60	2
168	168	1
106	106	4
144	144	3
134	134	6
159	159	7
199	199	2
214	215	10
75	76	2
234	234	3
152	152	5
28	37	5
67	68	3
191	191	5
123	124	3
18	18	4
198	198	5
235	239	7
64	64	2
55	55	5
229	230	1
130	130	5
37	37	4
145	145	2
225	226	1
115	116	6
72	73	1
154	154	3
180	180	7
9	9	6
37	40	4
21	22	3
7	7	2
239	239	4
98	98	2
104	106	2
173	175	1
115	115	6
185	186	2
103	210	1
44	46	1
23	95	2
223	223	4
208	208	3
97	123	2
235	235	10
102	210	2
58	64	2
190	190	1
114	114	1
190	194	2
194	194	1
113	121	1
79	80	8
64	69	2
183	223	3
27	27	2
65	66	2
114	116	2
156	156	1
105	108	1
38	39	2
176	176	3
12	12	3
210	210	7
2	3	3
150	215	1
40	42	1
147	147	4
123	123	11
60	61	1
241	241	5
65	65	4
220	220	2
99	100	1
183	184	3
30	30	7
153	154	2
40	41	1
66	66	3
162	163	2
27	28	1
48	48	7
124	124	2
122	152	2
203	203	2
125	125	5
125	126	3
14	14	7
61	61	2
105	105	2
49	49	5
58	67	2
56	56	11
83	83	3
171	192	2
132	132	3
239	240	1
174	174	1
70	73	4
161	163	1
150	150	2
116	117	4
191	194	2
136	136	1
41	42	3
73	73	4
70	71	1
43	48	3
11	13	2
83	84	3
32	200	1
164	183	1
85	86	2
3	3	7
178	180	3
88	88	1
101	209	3
10	85	1
187	188	3
71	71	5
43	44	1
184	184	1
241	242	2
238	238	7
21	21	2
108	108	2
84	84	10
137	137	3
104	130	1
74	74	15
18	95	3
237	237	3
6	88	4
167	167	2
207	207	2
39	39	5
11	11	6
10	32	1
69	69	5
116	136	1
135	135	2
24	24	5
172	189	3
97	97	2
206	207	4
23	24	3
233	233	2
195	195	1
10	11	3
230	230	1
187	187	3
191	193	2
0	0	1
220	238	5
105	106	4
236	237	3
235	236	1
180	182	3
176	182	1
180	181	3
224	224	5
233	234	2
73	74	2
172	172	9
0	9	2
7	8	2
4	5	2
117	118	3
9	42	4
161	161	3
177	178	2
177	177	6
212	212	1
110	110	1
128	134	2
32	32	3
218	218	3
207	208	3
106	199	1
25	25	1
1	6	1
72	72	6
68	68	1
128	129	2
23	23	2
215	215	2
216	216	1
188	188	2
186	186	1
18	24	1
166	236	2
240	241	1
3	88	1
79	79	2
84	85	1
141	141	1
175	175	2
68	69	2
121	121	2
171	171	1
188	189	2
205	206	6
182	183	1
45	55	1
106	114	1
63	68	1
109	109	2
78	78	2
69	70	3
111	113	1
20	20	3
238	240	1
120	120	3
99	99	2
75	85	5
164	226	1
102	102	2
156	165	1
175	181	5
167	168	2
219	219	5
33	33	2
63	65	1
133	134	1
47	62	2
137	138	1
129	208	1
35	36	1
118	118	4
30	31	1
23	97	2
159	161	2
46	62	2
100	100	3
216	217	1
2	2	2
175	182	2
119	119	8
0	30	2
22	22	1
29	30	3
136	147	1
67	67	2
226	226	1
57	60	1
64	65	2
62	62	1
146	148	2
183	185	1
86	86	2
138	139	1
202	202	1
60	60	2
13	13	1
107	109	1
17	20	1
15	102	2
51	52	2
106	107	1
25	86	1
193	193	2
182	182	1
8	11	2
41	41	1
168	169	1
158	231	1
179	179	2
122	122	2
152	153	1
70	98	1
107	108	1
155	155	2
30	32	1
12	15	1
50	51	2
34	34	1
40	40	2
139	141	1
192	194	1
77	79	1
43	43	2
45	48	1
63	63	1
183	183	1
76	76	1
190	192	1
16	23	1
163	164	1
173	173	1
