200	201	2
59	73	3
165	170	2
98	98	9
197	197	7
220	222	1
174	174	24
108	108	15
180	180	23
232	232	11
69	69	10
120	120	29
13	13	48
59	59	12
51	51	11
78	78	25
240	240	16
145	145	25
226	226	24
221	224	4
100	100	19
223	224	5
87	87	5
212	212	20
24	24	32
183	183	25
72	72	36
44	44	17
19	22	6
18	19	6
223	223	27
183	184	12
231	231	25
214	214	18
167	168	9
8	8	12
11	11	10
195	195	14
227	227	15
165	165	9
45	45	21
71	71	19
219	219	29
203	203	17
122	123	13
33	33	35
5	12	6
123	123	29
41	42	3
221	222	6
21	21	12
96	96	14
46	56	1
46	48	4
202	203	3
220	220	32
61	61	18
26	26	32
125	129	3
134	168	2
102	102	20
61	62	9
146	147	10
182	183	15
229	229	18
202	205	4
196	196	29
222	222	20
60	120	2
126	127	15
153	222	4
201	202	15
27	28	7
64	64	28
91	91	2
18	18	22
34	35	9
139	142	8
130	130	20
41	43	3
186	186	28
173	175	5
164	164	18
119	120	4
73	73	23
86	86	19
104	107	6
69	77	4
136	136	15
15	15	42
191	191	27
171	171	17
112	113	9
154	155	4
19	19	13
86	101	1
199	199	18
62	62	18
140	140	33
84	84	22
163	163	12
122	122	12
157	157	28
60	154	2
74	74	40
240	241	15
109	110	2
55	55	15
140	141	6
173	173	22
149	149	13
141	141	23
27	27	19
54	54	18
99	99	23
42	42	28
66	67	12
44	50	4
17	17	12
129	130	16
164	165	6
13	14	10
190	190	12
0	0	13
33	34	12
36	37	2
49	49	13
218	218	12
207	207	25
113	114	2
204	204	17
103	103	16
43	43	17
138	138	17
143	148	4
229	230	5
222	223	2
100	183	4
25	25	14
48	48	19
31	31	16
233	233	35
124	124	15
37	37	15
131	153	7
32	33	3
41	41	19
114	115	6
209	209	31
166	166	31
66	66	22
110	110	5
210	213	4
30	31	15
1	1	24
230	231	22
71	72	9
215	215	20
158	161	4
29	29	28
224	224	18
153	153	24
159	159	27
47	48	8
111	111	19
58	58	16
30	30	19
121	121	12
12	12	17
38	38	41
56	56	27
148	148	18
22	23	8
15	37	2
115	115	23
225	226	10
228	228	12
92	129	1
139	140	8
233	234	5
142	143	11
49	50	15
109	109	16
20	20	20
234	234	23
155	195	6
20	85	6
70	70	29
171	191	3
97	99	2
59	157	2
45	46	16
147	147	4
117	117	7
62	72	4
214	215	7
47	47	23
189	189	11
3	8	6
191	192	12
56	216	4
55	214	1
131	131	7
190	192	3
177	177	8
217	218	11
65	66	7
50	50	13
118	118	12
184	186	2
88	88	7
100	102	6
144	145	4
73	113	8
113	113	23
112	158	4
186	187	18
188	188	33
227	231	3
105	106	8
35	35	16
133	135	7
155	155	17
239	239	16
5	5	19
40	41	2
221	225	5
53	53	20
200	200	19
79	80	3
88	89	2
151	151	22
198	198	18
156	157	11
16	138	1
11	12	3
23	23	25
75	75	23
225	225	19
16	16	27
1	69	3
216	216	20
190	191	3
125	127	9
82	83	12
46	61	4
175	175	25
8	80	5
1	80	3
206	206	21
76	226	6
153	223	3
145	239	2
106	106	15
67	67	31
60	157	1
5	81	1
56	215	2
227	228	4
213	213	19
164	171	1
68	68	34
170	170	16
28	28	18
40	42	3
202	202	19
187	190	3
232	233	5
118	135	1
217	233	2
209	210	14
238	238	11
52	53	4
227	229	4
45	55	2
8	37	5
171	172	6
144	144	13
67	68	6
14	15	7
21	22	7
56	58	2
116	116	17
8	9	5
3	3	19
99	100	14
75	184	4
141	143	2
115	117	2
50	54	4
0	1	8
36	36	14
128	128	27
111	112	6
236	236	14
6	6	34
52	213	4
192	194	2
46	46	19
194	198	2
58	163	2
230	230	19
181	181	16
191	200	4
242	242	15
179	179	9
37	43	2
201	201	12
178	188	1
27	86	3
6	104	5
80	80	16
46	63	1
9	9	18
107	108	14
112	121	1
205	205	11
158	225	5
182	182	23
85	85	25
203	206	1
134	134	24
89	99	4
216	228	3
206	207	7
4	5	6
211	211	21
157	170	6
76	76	18
23	25	8
79	79	22
167	167	14
137	137	10
45	48	1
216	232	4
146	240	5
145	153	1
237	238	6
63	64	10
205	207	5
156	156	8
194	194	12
157	158	4
103	110	2
1	75	2
127	127	25
34	34	19
125	220	2
151	152	2
210	210	15
204	206	2
95	155	8
66	70	3
107	107	16
45	128	5
61	150	2
194	195	7
184	185	5
114	118	1
56	57	8
217	217	28
23	24	3
2	2	19
28	174	1
22	22	8
83	222	1
176	177	5
110	111	2
39	39	23
160	161	8
8	86	2
39	40	7
168	191	8
169	170	8
187	187	21
109	159	1
237	237	19
76	218	2
104	104	14
163	166	5
112	112	6
108	109	9
217	221	1
27	29	11
241	241	21
168	168	17
81	81	17
103	104	6
61	198	2
12	16	1
54	109	5
221	221	10
82	82	14
193	193	27
144	152	3
150	150	9
165	167	4
222	224	2
11	30	3
124	126	7
28	30	11
144	236	1
152	224	2
135	135	15
104	105	8
220	226	3
101	101	8
11	14	1
158	191	2
17	18	3
192	193	5
178	180	3
213	214	5
114	114	12
37	38	6
133	133	12
124	125	3
147	149	5
45	120	3
69	233	3
185	185	15
224	225	5
58	61	1
234	235	7
208	208	25
25	26	2
92	130	1
158	158	21
6	13	1
35	36	5
83	83	16
71	172	5
125	125	14
105	105	12
38	66	2
59	60	6
142	142	9
235	235	16
113	139	2
46	49	3
47	50	6
80	97	2
27	31	1
147	161	5
129	129	15
207	208	5
154	154	11
101	102	3
110	204	1
162	162	11
60	61	4
7	8	5
149	150	7
110	158	1
81	82	14
165	166	7
10	10	5
96	130	1
102	103	2
51	52	1
97	134	3
169	171	6
19	21	2
126	129	5
1	180	2
2	4	4
2	3	3
24	25	6
184	184	9
54	55	4
12	14	2
215	226	3
10	86	2
95	95	9
50	51	6
31	41	4
1	2	3
12	13	7
7	7	15
145	147	6
158	159	9
129	222	2
128	130	6
15	105	2
133	232	1
57	57	7
220	221	10
139	139	3
141	149	4
117	118	5
58	142	1
152	152	12
120	121	5
192	192	16
176	176	15
187	189	2
48	49	3
133	134	6
51	211	3
131	152	3
150	151	4
131	134	4
143	145	4
117	213	1
219	220	8
20	119	2
217	226	3
185	200	2
101	234	2
70	237	4
52	91	2
14	83	2
159	163	2
45	216	1
72	118	2
226	227	15
69	76	4
43	127	3
175	177	8
119	119	12
177	178	12
43	71	1
80	81	12
64	65	6
160	160	7
1	102	2
193	194	3
106	122	4
139	141	1
162	163	5
168	169	3
29	30	3
179	182	3
239	240	9
60	60	9
40	40	4
161	161	19
77	77	4
112	201	3
9	10	2
100	103	2
103	106	4
140	142	8
126	126	6
139	235	2
187	188	1
15	17	1
146	146	8
212	213	20
74	179	1
128	220	2
69	70	1
20	21	13
147	148	8
99	234	1
4	4	8
70	74	1
3	100	3
17	119	1
58	62	1
60	218	3
236	237	6
98	99	4
129	223	7
14	14	21
9	66	2
149	220	3
74	151	3
2	7	1
153	154	7
218	233	4
167	191	3
159	162	2
164	166	3
140	143	2
19	23	2
44	45	7
208	210	7
172	172	19
102	120	2
51	54	4
195	196	1
235	236	8
217	222	2
197	198	6
84	85	2
36	38	4
138	139	3
83	84	12
89	89	6
203	205	3
121	122	2
141	142	5
203	208	2
115	118	2
161	162	1
0	86	1
180	181	4
22	25	4
169	169	13
31	119	3
214	216	6
63	63	16
97	97	6
136	137	4
100	101	3
38	39	2
27	174	1
146	151	3
178	182	1
225	227	1
57	213	1
228	231	3
35	89	1
235	240	3
76	78	5
174	175	3
6	123	2
48	50	2
39	41	2
137	218	1
65	65	7
40	116	7
142	144	1
191	208	3
26	27	2
42	44	1
12	104	1
216	231	3
209	213	5
88	106	4
59	72	2
211	213	6
149	219	2
47	74	2
192	199	3
133	226	4
74	97	3
166	169	1
183	186	1
221	223	12
46	47	9
223	225	3
5	104	2
229	231	2
132	132	5
150	172	1
5	10	1
125	126	5
164	167	2
146	160	2
6	108	2
98	219	1
188	189	12
55	207	4
198	209	2
32	32	9
2	100	4
91	97	2
68	69	5
73	118	5
152	170	6
65	67	5
117	119	3
8	79	2
161	163	2
155	197	1
165	171	5
52	52	4
100	235	1
24	26	5
135	136	3
128	219	3
75	76	4
28	29	6
54	214	6
63	65	1
178	178	9
62	151	1
218	225	2
85	88	1
152	223	2
151	219	4
115	116	6
44	56	4
204	205	4
17	103	2
6	7	1
154	160	2
218	227	2
133	155	3
198	199	5
231	232	3
51	53	3
220	223	1
5	8	3
155	223	6
0	41	1
135	150	3
224	231	1
154	224	1
14	18	2
63	119	1
161	166	5
65	138	2
143	161	3
16	105	2
74	100	2
179	207	4
159	160	2
26	29	4
49	97	2
75	150	2
106	109	1
50	55	2
77	78	6
180	182	1
199	200	4
191	201	1
135	137	1
177	182	4
119	141	2
15	16	4
3	4	5
238	239	7
113	212	2
196	197	1
59	77	4
211	214	1
166	167	3
215	216	4
203	204	1
56	213	1
3	6	1
209	220	1
120	140	4
163	187	1
116	117	3
4	104	4
196	213	1
119	122	2
107	127	1
152	157	1
81	83	2
78	79	1
176	231	5
148	235	2
226	228	3
122	124	3
132	135	4
179	180	4
70	71	7
7	85	1
103	105	1
124	128	1
126	213	1
34	36	3
100	234	3
16	20	4
77	184	1
72	73	3
106	183	2
75	97	2
58	59	2
74	106	1
28	31	4
163	164	2
158	200	1
74	174	1
60	72	3
218	232	4
2	8	1
106	107	1
217	219	1
137	138	2
109	121	1
228	229	3
47	116	2
145	148	2
76	77	2
170	171	7
54	107	1
181	183	3
179	219	1
178	179	2
1	37	1
202	234	3
11	37	1
239	241	2
58	60	1
14	17	3
143	143	3
99	106	3
157	197	3
153	161	1
53	203	2
159	161	2
214	221	2
5	6	3
88	103	1
168	190	1
70	72	1
145	237	2
170	172	1
61	121	2
9	101	2
144	161	2
108	198	2
147	153	1
160	162	5
218	219	2
62	63	1
11	15	1
113	190	2
71	218	2
44	96	1
77	81	4
0	79	3
233	236	3
44	120	1
176	178	4
205	208	2
38	67	1
189	190	2
123	165	2
39	64	2
65	235	3
77	79	1
155	198	1
1	79	1
120	142	2
9	86	3
215	227	1
5	80	3
192	200	1
79	84	1
113	201	4
3	9	1
155	156	4
54	206	1
190	201	1
70	114	1
188	190	2
193	212	5
144	196	2
196	229	1
185	186	1
181	207	3
124	164	1
6	8	1
80	96	3
29	85	3
163	199	2
49	232	1
71	217	2
195	230	2
173	228	1
149	151	4
148	171	1
86	100	1
53	54	2
175	176	3
156	198	1
18	20	1
175	230	1
53	211	2
169	190	2
215	232	1
68	73	1
194	211	1
140	145	1
164	190	1
28	32	1
49	51	1
167	193	3
57	125	1
85	86	2
61	152	1
46	213	3
114	212	1
37	67	1
89	90	1
47	174	3
192	202	1
172	174	2
170	202	1
12	34	1
133	227	1
129	131	1
44	55	1
127	222	2
241	242	3
155	194	2
107	160	2
134	135	3
84	236	1
85	87	1
66	69	2
163	167	3
76	184	1
28	47	3
194	200	1
194	196	1
140	160	1
3	7	2
96	97	3
6	89	1
9	67	1
30	32	1
144	160	1
233	235	2
71	203	1
214	220	2
42	43	4
9	38	2
43	217	1
215	230	2
19	20	2
55	56	1
60	156	1
32	98	1
73	74	2
65	139	1
147	151	1
185	199	1
59	156	1
177	222	1
64	66	1
31	32	2
8	96	1
105	107	1
118	119	1
57	212	2
203	233	1
148	150	1
178	219	1
37	66	2
206	208	2
158	197	2
56	60	1
126	128	1
96	99	2
210	211	2
8	85	1
160	190	1
32	34	1
133	168	1
0	38	1
2	5	1
81	85	3
164	176	1
235	239	1
121	125	1
52	54	1
95	99	1
154	221	2
172	173	1
58	121	1
164	187	1
42	227	1
10	88	1
31	33	1
44	97	2
7	96	1
75	83	1
60	71	2
204	242	1
4	6	1
166	171	1
35	128	1
30	42	1
