133	133	5
28	28	8
113	113	3
9	26	3
53	54	7
67	79	1
91	91	5
70	71	2
77	142	3
110	114	3
135	138	1
15	26	5
8	9	14
14	15	4
147	148	4
12	12	5
51	58	3
38	38	6
12	17	1
7	7	7
37	37	3
139	139	4
114	115	9
124	124	8
30	38	4
54	56	5
17	39	1
8	8	6
149	149	7
140	152	4
21	21	11
8	65	1
127	144	2
9	9	9
127	128	3
70	70	7
5	5	7
68	68	18
141	141	8
121	121	9
76	85	4
122	122	14
37	38	4
47	47	16
97	102	1
141	145	3
103	105	3
109	120	3
10	25	3
72	72	1
112	114	2
31	32	3
37	147	3
93	111	1
57	58	3
79	79	7
126	126	1
9	30	5
51	53	1
86	87	6
41	42	1
25	25	25
132	133	1
108	140	3
7	153	1
111	132	5
110	129	2
33	33	3
43	43	10
105	105	3
63	63	7
19	19	5
43	54	3
46	46	6
34	34	11
48	48	6
15	15	7
69	100	2
84	84	5
62	82	1
34	35	3
31	31	5
146	146	1
24	24	4
49	49	2
135	135	10
39	39	14
32	42	5
79	87	2
114	127	4
23	23	11
93	96	2
98	121	2
78	106	6
25	31	1
14	14	2
85	85	8
147	147	5
73	73	6
65	151	6
132	132	11
142	142	3
11	16	3
122	123	4
111	111	5
80	84	2
14	21	2
27	31	1
152	152	6
83	83	2
120	126	4
136	137	2
69	69	6
10	10	7
121	125	3
52	52	1
115	115	8
128	128	2
32	32	5
113	134	1
142	144	6
35	35	4
109	111	2
104	105	4
94	97	7
99	100	5
11	30	1
29	30	4
123	123	9
66	66	8
114	114	13
101	102	1
138	138	5
27	27	4
51	78	5
55	55	4
135	136	5
26	29	7
96	96	12
88	88	4
20	31	1
140	140	1
77	77	3
15	16	3
22	37	1
32	34	3
9	48	3
78	79	2
64	64	3
136	136	7
120	121	2
67	73	4
32	62	5
95	131	4
136	138	2
125	127	1
11	11	10
31	38	2
8	30	3
30	30	8
114	123	2
141	147	1
151	151	8
154	154	5
41	41	7
8	31	7
40	40	8
57	57	1
72	81	1
12	74	1
50	50	6
64	73	2
12	13	8
18	19	3
120	120	5
17	23	5
125	125	6
67	68	3
107	137	2
66	150	3
22	27	2
20	23	4
77	114	4
99	122	2
93	93	4
106	140	5
63	123	2
90	90	3
36	37	3
112	112	4
3	6	3
51	51	2
153	154	2
27	36	3
17	17	10
107	107	3
43	44	2
73	149	2
75	79	3
72	142	1
145	145	4
80	82	2
119	119	10
12	78	4
139	140	3
55	69	3
28	29	3
79	103	1
126	128	1
52	56	1
85	86	3
138	146	3
65	146	1
34	36	4
22	22	11
150	150	3
63	64	2
78	150	3
62	63	2
42	42	10
138	140	1
2	39	3
129	130	3
74	74	8
29	29	2
108	148	7
131	131	2
109	109	10
85	114	2
86	139	3
112	113	4
16	16	4
80	80	3
53	53	11
107	148	5
134	134	7
8	47	4
110	110	7
145	147	5
20	20	2
81	81	7
144	144	1
65	65	2
104	110	2
130	130	2
55	56	3
84	85	1
77	100	5
53	55	2
9	39	5
15	17	1
82	90	1
42	43	1
105	106	4
129	129	4
102	107	2
117	118	1
100	130	1
137	137	4
64	94	2
151	152	1
115	128	2
109	117	1
111	114	2
110	131	3
67	88	2
71	71	1
99	130	2
67	67	2
145	152	2
100	100	3
61	64	1
104	104	2
143	143	3
64	68	1
2	3	1
148	148	2
10	65	3
27	28	1
4	5	2
102	102	1
120	122	2
101	104	2
20	39	1
106	147	3
64	74	2
69	76	2
138	154	2
35	36	1
47	84	5
3	4	3
125	128	1
119	122	2
64	79	1
45	45	5
113	140	1
146	147	2
104	143	3
76	77	1
61	86	1
106	106	3
127	131	1
75	75	4
116	116	3
109	132	4
108	108	4
137	149	2
129	132	1
101	101	2
124	125	1
47	48	2
31	43	1
84	87	1
150	151	2
112	131	1
103	103	2
36	36	8
98	131	1
96	98	2
130	131	1
44	44	2
97	97	1
54	54	2
52	58	1
11	26	1
77	106	1
144	145	1
11	47	1
107	109	1
9	20	3
76	148	2
30	37	3
82	82	1
13	13	2
6	7	3
119	139	1
94	94	1
65	89	2
24	41	2
137	140	1
66	138	1
94	132	3
138	152	1
95	111	1
23	27	1
7	9	1
18	18	2
98	113	1
137	144	1
16	38	3
121	126	1
108	110	1
87	87	2
98	127	1
86	86	2
10	32	1
35	57	1
106	108	1
113	114	1
89	89	2
76	106	2
91	121	1
100	117	1
51	52	3
74	122	2
64	86	1
38	98	2
38	64	1
32	33	3
72	73	1
106	136	1
77	78	1
152	153	2
99	106	1
121	122	1
79	105	1
107	108	1
43	56	2
133	137	1
69	101	1
119	128	1
3	3	1
16	22	1
153	153	2
10	26	1
32	98	1
99	99	1
4	8	1
76	115	1
114	119	1
22	36	1
8	20	2
108	111	1
98	99	1
4	31	1
100	134	1
50	51	1
5	35	1
13	26	1
138	139	1
6	10	1
92	92	1
56	56	2
75	80	1
44	65	1
