177	194	4
86	86	3
97	107	1
17	18	2
113	113	5
85	87	2
140	190	2
110	139	3
174	180	1
11	11	1
175	175	3
172	173	4
195	195	1
38	40	1
147	159	2
192	192	3
43	83	4
152	180	1
23	25	3
148	161	2
86	87	3
158	158	6
6	7	4
147	193	5
184	193	5
18	18	7
22	25	2
7	21	1
47	47	5
81	81	5
34	34	7
43	78	2
71	72	3
100	179	2
159	159	5
191	191	3
125	125	4
53	53	9
14	14	1
130	173	5
130	149	1
44	44	2
3	22	3
66	71	2
51	58	1
182	182	5
71	71	1
131	131	2
128	128	5
42	78	2
12	57	4
79	79	5
43	79	3
30	30	6
6	43	2
21	21	2
16	20	2
24	24	1
156	156	2
187	187	7
62	63	3
95	105	1
8	8	3
56	56	5
19	19	3
178	178	3
171	171	2
153	175	1
185	185	3
121	121	3
152	152	5
122	122	3
23	23	5
73	73	4
72	73	1
110	110	2
108	108	2
0	4	1
106	120	2
40	40	3
169	169	4
145	189	4
31	31	7
2	2	2
190	190	7
139	139	3
126	127	2
22	22	7
67	67	3
38	41	3
150	150	1
32	63	5
27	27	1
151	176	4
50	50	4
187	188	2
33	34	1
59	59	2
155	155	3
43	99	3
197	197	2
72	72	3
36	36	6
34	35	2
135	170	2
1	1	4
170	170	1
174	175	3
133	133	2
48	117	1
68	68	1
44	82	1
149	150	2
175	180	1
80	80	5
183	183	3
44	76	2
5	5	9
138	162	1
101	133	2
154	181	4
105	105	1
131	134	4
126	126	2
7	14	3
119	120	3
100	122	1
62	62	2
123	149	4
174	174	1
80	82	1
163	164	4
18	38	2
26	29	2
145	145	2
116	116	7
188	188	9
96	106	3
64	64	2
168	168	2
108	139	1
12	12	2
48	48	7
103	103	2
87	87	5
44	83	2
63	71	1
23	29	2
15	20	1
28	81	2
153	153	3
43	76	1
57	57	4
108	109	3
67	68	1
147	147	1
14	15	2
81	98	4
184	186	2
149	149	4
7	7	1
63	83	4
143	143	3
172	172	3
70	70	3
113	118	5
5	6	2
100	149	1
15	16	1
131	175	2
167	167	3
167	168	1
29	29	3
138	138	2
189	189	4
71	74	1
42	42	3
76	76	4
173	174	1
109	112	1
66	66	5
10	58	1
139	161	5
32	81	2
83	83	4
60	60	2
74	74	2
193	193	1
115	119	1
38	38	1
75	150	1
85	85	1
140	148	1
39	39	2
49	49	3
25	26	2
177	177	3
70	74	2
186	186	1
121	126	2
104	104	5
101	101	6
82	82	2
188	195	2
107	126	1
161	161	3
28	28	1
12	54	4
181	182	4
0	2	1
131	151	1
44	85	3
29	30	5
120	120	2
78	78	3
42	57	2
26	26	1
176	176	2
45	45	4
135	166	3
179	179	2
83	84	1
66	68	1
35	35	1
168	169	3
142	155	1
10	47	1
19	20	3
152	154	4
133	166	3
61	61	2
80	125	4
41	57	2
107	162	2
98	98	1
145	187	1
148	148	2
158	189	1
147	192	2
58	59	1
114	114	1
161	170	1
189	190	1
23	68	1
186	197	2
130	174	2
123	123	2
51	51	1
36	39	1
151	173	2
23	24	1
108	162	1
173	176	2
176	177	1
13	77	1
105	127	1
64	86	1
147	161	1
22	69	2
106	119	2
114	115	1
15	15	1
155	181	1
99	100	1
129	129	1
65	65	2
181	181	3
172	176	1
154	155	1
140	140	1
151	174	3
17	17	4
84	85	2
37	37	1
42	53	1
32	32	1
111	119	1
139	148	1
43	77	2
102	103	2
194	194	2
132	144	1
188	189	1
134	166	1
6	6	1
89	90	3
9	9	1
123	150	1
154	180	1
26	82	1
117	117	1
51	57	1
14	38	1
186	187	1
70	111	1
104	115	1
157	186	1
72	74	1
102	108	1
14	37	1
115	118	1
18	78	1
77	78	1
33	36	1
170	171	1
1	2	1
172	178	1
131	172	1
23	127	1
41	121	1
64	94	1
50	51	1
16	17	1
55	55	1
124	124	1
177	179	1
