93	93	8
9	9	4
34	54	1
142	142	7
23	23	4
2	11	1
134	135	2
120	120	6
116	117	1
4	4	12
97	97	4
46	46	6
111	111	4
5	5	5
119	119	7
38	39	2
20	20	12
116	116	7
124	124	5
105	105	12
41	63	1
106	129	3
98	98	11
131	133	3
143	155	3
140	140	4
47	78	2
88	88	4
148	148	4
27	27	1
20	50	3
142	150	3
80	80	9
69	69	9
118	147	2
137	137	6
102	102	7
73	73	1
134	134	6
101	101	2
130	130	12
42	48	2
4	44	1
65	73	1
24	24	7
138	139	1
155	155	4
33	33	3
117	117	5
30	31	4
25	26	3
52	52	7
140	141	3
138	140	2
0	105	1
77	77	7
43	43	4
53	53	7
48	48	1
89	90	3
135	137	5
1	2	4
66	66	7
51	52	1
158	158	5
71	71	6
126	126	7
90	90	3
110	110	3
79	79	6
3	3	4
87	87	5
132	132	14
15	15	1
22	23	1
103	103	3
6	6	4
104	111	1
25	27	2
21	21	7
106	148	1
147	147	5
29	30	2
68	70	1
123	127	3
13	13	3
138	138	7
24	28	1
111	112	9
65	65	4
107	117	1
136	149	3
55	55	8
65	66	1
112	113	2
100	100	10
132	133	1
26	26	1
12	26	2
145	147	2
75	75	7
128	128	4
120	148	1
0	0	8
36	36	6
68	68	3
121	127	2
89	89	6
105	148	1
114	114	2
125	125	9
61	61	1
86	95	2
117	147	3
7	7	8
82	82	4
150	150	3
94	95	3
18	116	1
10	10	4
152	152	7
157	157	7
131	132	2
48	50	1
120	121	3
136	136	5
107	107	6
1	105	1
142	149	2
41	41	4
130	131	4
47	47	5
146	146	2
95	97	4
40	40	4
84	92	1
28	28	4
38	38	5
2	40	1
149	149	4
81	81	3
86	94	2
29	31	1
45	45	3
21	140	2
131	131	3
51	51	1
14	14	2
22	22	5
103	128	1
12	12	4
10	11	2
123	123	6
143	143	6
122	122	4
88	89	3
8	8	2
11	11	1
133	133	6
70	71	2
16	16	6
19	32	2
111	116	2
84	90	2
13	19	1
23	92	1
70	73	2
83	83	3
139	141	3
30	30	5
96	96	2
81	82	2
65	69	1
29	29	2
149	150	2
17	18	2
17	17	6
106	106	2
94	94	3
118	119	1
32	38	2
91	91	2
2	2	3
39	39	4
144	144	1
54	54	2
103	104	2
21	97	5
31	52	4
44	45	2
40	42	3
103	141	4
35	35	7
78	80	1
2	141	1
55	70	2
118	118	3
15	45	2
121	147	3
121	121	3
46	47	2
103	110	1
75	93	1
116	122	1
23	24	2
0	1	3
129	129	1
36	55	3
55	56	3
86	87	3
25	96	1
24	25	1
64	64	1
145	145	1
44	44	6
117	118	1
119	126	1
91	92	1
32	32	1
139	139	1
14	15	1
95	95	4
18	30	1
78	78	4
13	24	2
151	153	2
154	155	2
67	67	5
18	18	1
8	20	1
3	37	1
6	141	2
87	90	1
120	138	1
15	16	1
124	127	1
45	94	1
108	108	5
112	112	2
107	108	1
69	70	1
90	91	1
151	151	1
50	50	1
94	96	1
14	18	1
141	141	2
70	70	3
38	112	1
33	34	3
153	156	2
21	22	1
127	127	1
20	21	2
17	49	2
50	52	1
85	86	1
50	51	2
92	92	3
32	33	1
40	112	1
42	47	1
25	36	1
106	107	2
155	156	1
4	128	1
135	135	2
146	147	1
40	45	1
28	34	1
120	147	1
26	36	1
96	97	1
31	46	1
77	78	2
113	115	1
99	99	1
