65	65	5
27	71	5
67	103	2
36	36	7
70	71	4
90	90	5
21	39	2
23	23	21
74	74	9
68	68	9
52	55	2
96	96	3
24	24	7
32	32	9
104	104	7
32	51	4
62	62	9
59	59	15
101	101	13
69	76	2
98	98	4
33	33	6
40	42	1
63	63	9
20	24	2
75	75	5
22	22	9
54	54	7
58	95	2
27	66	2
48	49	7
31	45	6
87	87	8
88	89	2
39	39	4
76	76	9
69	69	4
25	27	2
51	52	2
22	37	5
78	78	9
30	30	10
64	64	3
105	106	2
28	28	3
52	52	11
79	79	7
79	81	2
103	103	14
22	60	3
91	92	2
92	93	2
91	91	16
21	22	2
71	75	4
70	70	17
71	72	6
66	66	13
61	61	12
93	93	4
43	43	5
32	33	3
24	33	3
57	104	3
88	88	6
102	102	5
107	107	2
29	30	4
32	34	4
100	100	10
81	81	2
82	87	1
92	92	5
86	86	4
50	55	1
65	77	5
47	78	1
41	43	2
39	42	3
95	95	2
97	98	9
48	48	2
29	29	4
34	34	2
70	76	4
68	69	2
77	77	7
41	41	2
53	101	2
102	103	1
84	84	2
76	77	3
51	51	2
31	31	6
83	84	5
58	58	16
40	40	3
35	35	8
94	94	8
58	68	3
53	53	9
71	71	5
85	85	5
106	107	4
57	57	5
51	55	1
89	90	3
39	59	4
75	76	3
35	40	1
44	50	2
55	55	7
62	63	2
52	58	4
93	94	1
50	50	4
20	25	7
83	83	4
60	60	2
62	64	3
43	45	1
25	25	2
45	59	2
90	91	4
89	92	1
41	59	2
21	21	7
50	54	4
85	86	10
74	75	2
67	67	4
89	89	3
78	79	2
73	73	4
64	65	3
40	59	1
44	44	3
53	99	1
59	68	1
105	105	3
79	80	2
87	88	3
82	82	1
82	88	2
20	20	4
64	105	1
86	98	1
66	67	1
46	46	3
22	23	3
47	47	2
43	44	2
103	106	2
24	38	1
78	88	2
56	56	5
53	54	1
72	72	4
84	99	1
81	100	1
84	96	3
84	85	5
61	62	2
38	39	1
99	99	5
56	57	4
82	83	4
87	97	3
54	55	1
34	35	2
31	32	1
49	49	7
66	69	1
31	34	3
26	41	2
90	100	1
97	99	1
47	49	1
39	70	2
27	27	4
96	97	2
45	46	2
26	26	3
37	38	1
42	82	1
98	99	3
77	104	2
29	45	1
41	42	2
71	77	1
34	56	1
23	59	1
46	49	1
47	96	1
97	97	1
42	42	1
45	45	1
37	37	1
38	60	1
39	60	1
45	96	1
54	79	2
86	88	1
30	31	2
52	53	1
28	29	1
47	48	1
53	81	2
55	56	1
44	45	2
56	93	1
77	89	1
80	80	1
94	95	1
59	61	1
