124	129	1
105	105	1
112	112	3
83	85	3
23	23	5
66	66	11
58	58	6
3	3	7
53	53	9
101	101	6
41	41	4
100	100	9
5	5	6
119	129	4
51	51	6
97	98	3
71	90	3
2	15	1
7	7	2
130	130	11
133	133	3
33	34	2
69	69	7
96	115	3
71	77	2
122	122	8
92	109	3
26	50	1
93	93	4
103	118	4
82	95	3
56	56	11
96	96	4
125	126	3
2	106	4
85	99	4
98	99	4
61	61	8
104	104	3
43	44	7
120	120	3
74	96	3
103	103	4
39	54	2
99	100	1
107	107	5
113	126	3
47	55	3
4	4	5
80	101	4
126	126	6
110	110	7
56	88	1
10	10	2
4	16	2
67	94	1
52	52	5
16	20	1
54	54	6
44	47	1
85	85	7
0	21	3
117	117	6
9	10	1
116	116	7
93	99	3
66	75	5
131	131	3
46	65	1
45	45	2
74	74	4
108	109	3
42	42	1
1	1	3
78	131	1
40	51	3
110	124	1
72	72	5
31	31	1
112	115	2
14	14	6
9	9	11
117	120	3
6	6	5
30	31	2
3	108	1
88	88	6
50	50	3
123	123	4
67	126	2
84	85	2
46	46	6
67	71	1
49	49	6
121	125	2
62	62	7
21	30	4
66	67	2
41	44	2
40	40	2
63	64	8
109	109	6
47	47	4
79	80	1
62	133	2
8	8	8
20	39	3
18	20	3
45	47	5
55	55	1
126	132	3
104	116	1
92	92	3
82	83	3
123	124	2
68	128	1
15	15	6
118	128	2
69	85	7
71	71	5
41	42	2
0	3	2
20	24	2
29	29	4
65	81	2
102	102	10
125	130	2
32	32	6
76	92	4
28	32	2
105	124	2
13	13	3
11	12	1
100	104	3
52	68	1
68	74	3
71	130	3
57	71	2
25	33	1
26	26	4
33	33	3
10	13	1
3	4	2
76	76	3
73	82	2
45	46	1
86	86	4
128	128	1
14	18	1
88	102	2
87	99	2
118	118	4
111	111	1
27	43	1
94	111	2
17	18	5
114	114	3
83	98	1
106	106	3
68	130	2
118	124	4
97	97	4
115	115	3
5	13	1
2	4	5
113	114	2
99	101	1
10	28	3
3	50	1
13	52	4
11	11	8
122	132	1
14	15	1
59	78	1
99	102	3
87	111	2
91	91	7
95	102	3
4	58	1
86	87	1
67	79	1
86	89	2
18	34	3
96	102	5
0	0	8
78	78	2
62	64	2
1	63	1
59	81	1
11	28	2
111	128	2
4	106	4
44	44	2
111	117	1
75	75	3
95	118	2
104	108	2
38	53	2
2	2	1
120	127	2
51	63	3
50	51	2
27	27	3
88	108	3
19	19	2
57	68	2
48	59	2
77	78	2
24	34	2
78	82	2
129	131	2
95	108	1
127	127	1
99	99	3
17	17	3
84	84	2
106	108	2
15	16	1
64	77	1
82	82	4
108	111	1
24	24	2
16	16	2
18	57	2
57	57	3
28	30	3
79	79	3
67	129	1
25	25	5
66	124	1
93	94	2
64	64	4
110	133	1
55	68	3
38	89	1
48	55	1
64	65	2
100	114	1
31	32	1
77	77	1
1	6	2
19	30	2
2	13	2
63	89	1
22	57	2
1	19	2
90	93	1
54	62	1
78	79	2
81	81	2
53	71	1
17	20	1
78	110	1
88	89	1
104	125	1
15	17	4
72	100	2
9	28	1
11	14	2
45	55	2
18	31	1
14	25	1
12	12	1
101	102	1
113	127	1
122	123	1
80	82	1
38	39	3
66	78	2
83	84	3
2	18	2
48	48	1
129	132	2
108	108	1
99	116	2
79	82	1
94	95	2
39	81	1
82	96	1
20	25	1
76	77	2
25	26	1
129	129	1
11	22	1
42	76	2
23	24	1
49	63	1
75	127	1
8	10	2
26	33	1
52	62	1
1	14	1
10	63	1
26	29	1
22	22	1
127	128	1
47	49	2
116	125	1
80	80	1
58	65	1
2	17	1
63	63	1
113	117	1
68	71	1
86	101	1
128	130	1
68	68	1
104	105	1
10	20	1
41	62	1
81	82	1
132	132	1
