1	5	5
97	97	7
151	151	7
85	124	6
113	113	13
50	50	7
155	155	3
11	12	5
16	19	2
94	94	4
13	13	4
103	103	11
14	52	3
57	70	2
40	40	3
69	69	5
138	140	4
119	132	2
27	50	3
82	82	3
89	89	6
83	83	3
82	83	3
44	45	5
153	165	2
8	9	5
155	157	2
78	116	2
27	52	1
119	119	3
52	52	5
117	117	3
39	39	9
122	122	7
107	110	5
102	104	2
122	123	3
15	77	3
96	98	4
135	135	5
161	162	4
17	19	7
56	57	1
23	23	7
139	139	2
101	102	8
43	50	3
0	3	2
150	151	2
116	117	1
109	109	2
36	36	7
5	36	1
84	123	1
95	96	3
65	116	1
76	78	3
9	9	10
51	67	5
152	165	3
87	87	2
87	116	6
105	106	4
117	158	7
169	169	3
1	21	6
51	64	5
68	68	10
3	3	5
145	145	6
152	164	4
167	168	3
83	117	3
139	140	5
98	98	7
165	165	3
106	143	5
77	79	2
90	90	2
15	79	7
25	51	1
16	16	14
35	35	5
147	162	5
108	108	8
161	161	2
106	156	5
113	114	3
132	141	3
109	112	5
4	4	1
116	116	4
142	147	2
37	37	8
105	105	15
4	5	1
80	121	2
62	62	4
42	42	19
54	80	4
92	134	5
154	163	3
6	7	4
16	40	1
64	67	2
154	161	1
84	84	11
2	4	4
117	154	2
124	158	1
137	138	3
140	141	2
108	144	3
126	126	1
120	120	4
127	154	1
57	57	1
153	153	1
25	25	8
1	1	8
79	122	4
17	17	2
145	155	1
106	110	2
131	131	3
168	169	1
79	79	14
22	23	2
170	170	6
106	106	3
92	135	2
150	150	11
92	92	5
0	0	1
87	118	3
86	156	1
40	47	4
82	91	2
125	126	1
110	111	2
101	136	2
53	54	3
123	125	2
76	76	3
74	96	5
86	86	4
64	64	8
81	88	3
102	102	6
131	167	8
12	12	3
54	55	1
28	28	3
27	27	2
11	11	3
0	7	1
83	84	3
148	150	3
5	5	6
41	45	1
124	124	2
16	37	5
148	148	1
7	7	2
95	104	2
13	42	3
41	41	1
82	159	1
19	58	2
151	157	1
144	144	3
85	85	5
81	96	3
67	68	4
143	150	1
128	170	3
148	149	2
10	10	4
122	159	1
52	116	2
139	168	1
148	152	3
137	140	4
19	45	3
142	149	4
83	154	1
146	150	1
77	77	5
49	49	3
146	146	4
33	33	3
40	57	1
128	128	2
94	133	1
75	75	5
49	92	1
85	153	2
122	158	2
66	113	2
48	48	1
11	28	5
143	143	1
54	54	3
163	163	2
63	72	4
95	95	2
107	144	2
147	150	4
71	71	2
43	52	1
87	105	2
164	164	3
21	21	3
37	91	2
103	142	5
3	35	2
121	121	2
124	156	1
147	147	3
106	107	2
44	55	3
164	165	1
125	125	5
106	142	4
2	12	3
70	71	3
93	95	3
101	101	3
7	23	1
117	121	1
38	38	4
49	63	2
157	157	1
42	51	3
99	100	3
147	152	1
74	81	1
53	53	5
166	166	5
134	134	4
80	80	2
115	115	4
119	150	2
104	104	3
142	142	3
93	93	3
50	135	2
108	109	2
149	150	1
139	150	3
123	160	2
65	105	2
106	144	1
63	64	1
27	46	4
53	84	3
6	6	1
114	114	1
104	134	3
76	104	1
74	91	1
141	141	3
103	110	2
130	130	3
78	104	1
96	137	1
54	56	1
26	26	4
65	115	6
87	117	2
14	14	2
20	20	2
16	135	2
48	50	1
39	49	1
151	164	2
23	34	1
78	131	3
6	20	1
128	167	2
141	168	1
126	131	1
19	19	1
14	43	3
105	118	2
61	69	2
101	132	1
98	100	1
39	40	2
76	98	1
73	73	2
9	27	1
26	51	1
79	80	2
136	137	3
4	36	1
154	154	1
50	58	1
97	137	2
66	114	1
50	69	3
152	167	4
116	118	1
36	39	1
115	116	1
103	134	1
140	140	1
44	44	1
49	90	1
162	162	1
112	112	3
22	24	1
83	127	1
147	149	1
64	132	1
92	93	1
18	19	1
62	72	1
155	164	1
20	146	1
38	91	1
15	21	1
19	46	1
66	87	1
79	131	2
142	161	2
22	22	2
67	67	2
137	137	1
10	11	1
146	148	1
