17	19	6
57	57	18
8	8	9
8	10	4
68	135	3
63	63	7
99	99	6
33	34	6
98	98	6
58	58	7
107	110	7
5	5	9
105	105	7
62	62	14
71	71	11
35	35	15
113	117	4
104	117	5
126	126	3
54	54	12
83	83	15
75	102	2
89	89	7
95	95	6
113	113	5
26	26	10
59	88	1
52	54	2
67	67	8
20	20	2
71	124	1
61	61	13
115	115	8
122	122	15
23	23	14
111	118	2
109	109	5
127	127	5
64	64	12
52	61	4
14	14	6
19	20	5
73	73	12
70	74	2
79	79	4
16	16	14
114	115	4
85	111	4
8	9	6
125	125	10
90	94	4
93	94	2
132	132	5
111	117	2
15	15	11
112	116	4
47	47	2
81	81	3
1	6	3
5	90	1
107	118	3
80	80	13
94	94	11
26	89	3
77	78	6
103	104	6
117	117	8
127	128	1
24	24	3
36	36	10
13	34	2
69	69	3
107	108	4
89	99	5
86	95	3
50	50	14
34	34	14
20	22	2
65	65	8
19	19	17
4	96	3
112	113	3
76	76	8
69	70	5
59	59	14
64	134	1
96	96	8
32	32	7
82	85	2
19	36	3
123	123	4
45	45	5
9	9	7
115	116	3
27	27	4
111	111	9
108	108	4
77	86	2
101	105	3
7	7	8
114	114	7
75	75	1
63	64	3
3	4	11
9	11	4
33	33	10
130	130	6
29	29	6
96	101	5
132	133	6
64	65	2
101	123	2
44	44	5
85	85	5
2	3	1
119	119	2
45	85	4
131	131	11
10	10	2
125	134	6
14	35	1
112	118	1
120	120	4
21	21	10
97	97	5
13	13	9
12	12	14
17	17	2
76	94	1
68	69	2
23	24	7
8	25	1
43	43	8
100	129	3
107	107	8
18	18	3
21	35	1
102	104	1
84	97	2
91	95	5
68	129	2
46	46	3
55	83	1
84	84	6
10	102	1
121	121	8
57	58	1
2	28	3
106	106	2
105	116	4
68	68	3
10	12	5
65	66	2
1	2	1
112	112	9
111	112	3
77	77	4
31	31	5
106	130	4
13	20	5
92	92	9
57	59	2
118	120	2
71	78	1
23	30	2
104	116	4
11	27	2
66	66	6
68	124	1
88	94	2
45	87	1
13	35	2
33	35	2
1	4	2
52	52	9
6	7	3
42	44	1
28	28	6
120	123	6
1	1	3
100	124	1
55	55	3
30	31	2
103	103	3
77	121	1
71	72	2
116	116	12
99	128	3
60	135	1
86	86	3
91	91	5
54	83	4
56	62	4
88	90	5
114	116	2
83	110	1
27	28	3
65	134	1
22	22	6
95	100	4
3	3	3
100	100	3
60	60	4
118	118	3
104	104	5
122	123	2
8	35	2
117	134	1
21	23	2
129	129	3
33	98	2
70	70	6
88	88	3
106	114	1
75	89	1
58	76	1
73	79	1
78	79	1
37	37	6
2	87	2
5	89	3
52	81	5
56	57	4
18	34	3
80	124	2
60	74	1
31	80	4
56	56	4
25	89	2
28	104	2
12	14	1
90	91	3
64	131	1
118	119	4
120	131	3
76	77	1
82	82	8
29	30	1
108	113	2
49	134	2
115	117	2
2	102	2
0	1	2
25	25	3
91	92	1
1	27	2
34	90	1
87	99	3
129	133	1
53	53	3
84	85	4
72	72	2
104	119	1
76	99	3
82	106	2
5	120	1
28	72	2
124	124	4
102	102	2
95	97	2
119	120	1
76	97	2
12	95	2
6	6	2
9	24	2
10	11	3
121	122	1
59	70	3
2	2	5
0	0	2
83	84	2
9	10	1
15	16	1
98	99	3
5	35	1
71	101	2
42	121	1
34	35	2
28	102	1
10	95	1
88	101	1
112	115	1
44	113	1
4	4	1
5	27	3
92	94	2
29	127	2
83	125	2
134	134	2
133	133	6
69	131	1
74	74	2
25	38	3
105	109	1
113	126	1
101	101	2
130	131	1
60	61	1
83	85	1
73	90	2
94	95	1
128	128	1
90	93	2
94	98	1
60	72	1
61	73	2
131	134	3
10	35	1
83	86	1
130	133	2
16	21	1
81	102	1
79	103	1
7	26	2
4	38	1
30	30	1
20	21	4
35	36	2
2	27	1
90	90	1
54	87	1
110	110	2
54	55	1
43	114	1
37	38	1
82	108	1
83	107	2
55	56	1
76	96	1
59	62	1
