38	38	7
99	99	10
21	21	14
68	68	11
89	90	2
31	73	3
27	27	4
24	71	1
30	30	4
76	76	8
46	48	7
89	103	3
92	92	22
24	24	16
26	27	1
60	60	6
77	78	2
66	66	10
90	90	5
62	64	5
69	69	11
82	83	2
85	85	10
45	45	18
64	65	10
82	82	8
64	64	16
49	49	1
22	22	25
101	101	14
39	41	6
50	50	7
67	68	1
34	34	6
20	50	1
48	48	10
71	95	1
78	78	11
66	67	4
38	105	5
96	96	7
55	56	4
95	100	2
84	84	5
26	26	3
55	55	8
75	75	20
104	104	6
103	103	15
58	58	5
73	73	6
35	105	3
104	105	4
84	85	1
47	48	2
73	76	4
68	69	4
36	36	5
28	28	2
100	100	3
37	37	5
82	88	1
92	93	11
75	76	8
61	76	3
95	95	10
81	81	2
52	53	3
36	43	2
93	93	2
40	99	5
60	71	5
64	66	5
77	77	13
62	62	13
72	72	16
48	49	1
62	63	5
41	41	7
31	31	8
63	63	3
72	76	3
62	66	3
105	105	7
94	94	3
55	57	1
31	33	7
57	57	4
75	77	6
56	56	7
91	103	3
25	26	6
68	73	3
98	98	6
78	79	2
40	40	12
96	97	1
36	44	2
88	88	3
40	41	1
29	29	5
43	45	5
24	69	4
61	62	1
29	71	2
46	47	12
59	59	13
97	98	3
93	104	2
44	45	2
71	77	3
21	69	1
46	82	5
67	67	11
40	86	1
26	60	1
53	53	9
65	65	13
39	40	2
44	44	5
96	101	2
83	83	1
100	104	1
25	25	2
21	22	3
72	78	2
54	54	4
27	28	8
42	42	2
101	104	2
107	107	3
101	102	1
46	46	3
93	94	7
61	61	4
30	32	2
72	73	2
36	37	3
34	37	1
48	99	2
81	99	1
103	104	2
27	29	1
70	70	8
50	103	4
65	66	2
68	75	3
87	87	2
32	32	3
35	41	1
99	100	1
20	20	3
62	74	2
71	72	2
89	89	2
79	98	2
50	51	1
84	96	1
20	25	8
51	51	3
92	94	1
77	96	5
40	100	2
53	54	1
51	52	1
39	50	1
23	23	2
97	99	1
45	84	1
79	96	1
37	42	1
58	59	2
45	86	2
33	33	5
91	91	1
70	72	3
74	74	3
90	91	2
102	102	1
46	106	1
100	101	1
90	92	2
71	71	1
52	52	2
38	39	1
106	106	1
24	60	2
101	105	1
31	35	2
75	93	2
96	102	1
63	64	3
36	70	1
39	39	1
