65	65	5
109	110	3
54	54	2
28	28	5
35	115	1
137	137	3
101	101	11
67	67	5
160	161	2
138	139	1
182	182	7
167	168	4
47	180	3
20	20	2
8	8	1
12	12	3
114	114	11
76	112	6
134	135	4
23	23	2
52	52	2
187	187	3
58	58	4
84	85	1
114	115	2
162	163	1
63	63	2
18	18	10
40	40	3
107	107	1
58	59	3
37	37	10
163	167	1
32	112	2
105	106	3
49	49	4
143	144	1
110	111	3
152	197	1
119	151	1
149	149	10
166	166	7
120	120	5
152	152	5
43	44	7
8	64	1
59	59	2
177	177	9
122	123	1
124	124	7
48	48	4
140	141	3
62	62	4
171	171	11
111	111	9
76	76	7
38	38	10
157	157	7
189	189	1
83	84	3
56	57	3
159	159	3
173	173	9
38	39	8
70	70	10
5	36	1
143	143	4
112	112	2
64	64	2
186	186	3
150	150	2
132	132	5
187	188	4
184	184	6
163	163	5
116	149	2
153	153	6
27	27	4
173	174	6
148	148	2
43	43	4
51	51	7
77	77	6
60	61	4
83	85	1
136	136	8
100	100	1
55	56	3
128	128	7
194	195	5
30	174	1
61	121	2
74	122	5
8	68	1
185	185	5
117	117	3
13	13	6
112	113	3
194	194	8
57	57	11
82	82	3
70	71	3
16	16	4
120	121	3
49	50	5
74	74	2
14	186	3
22	22	4
146	146	5
131	131	5
69	69	1
169	169	4
145	146	1
19	19	6
4	4	3
84	84	1
121	121	2
32	32	4
9	57	2
61	81	3
73	74	6
108	109	1
29	30	2
144	144	2
107	150	1
116	116	2
38	150	5
0	1	2
54	55	3
113	113	5
81	82	2
168	168	1
191	191	4
30	30	8
88	89	5
126	126	8
85	85	3
181	181	5
47	48	2
140	140	6
131	132	2
31	31	4
1	192	2
64	65	1
108	108	3
37	113	2
183	183	2
47	47	1
25	25	7
12	118	1
30	148	1
159	160	2
174	174	2
135	135	2
154	154	5
102	102	6
60	124	1
11	11	4
0	0	1
60	184	2
141	184	2
151	151	1
69	70	2
79	80	4
160	160	2
192	192	4
44	44	3
130	131	2
17	18	3
19	20	4
44	45	1
158	158	2
9	9	4
139	139	4
56	56	3
24	24	1
111	112	1
29	177	1
154	162	2
86	86	4
3	3	2
67	69	1
113	149	1
33	71	1
16	17	2
21	21	1
1	1	2
196	196	1
9	11	3
99	99	2
143	145	2
167	173	2
40	41	1
125	126	2
93	93	1
170	170	3
10	11	1
34	35	3
78	78	3
133	133	3
53	53	2
97	100	1
138	138	1
38	42	3
190	191	4
96	97	1
46	47	2
23	24	2
149	150	2
14	14	4
6	6	1
127	127	6
89	89	1
55	55	3
154	187	2
122	122	3
77	78	4
178	179	2
72	135	4
85	86	3
72	73	1
121	122	5
179	179	4
188	188	1
74	75	4
42	42	7
63	151	1
118	118	3
146	167	2
162	162	4
45	126	1
130	133	1
41	106	1
129	129	1
65	76	2
75	75	1
54	69	2
93	103	1
61	61	3
29	116	2
139	140	3
80	80	2
8	65	2
87	87	1
46	46	1
34	34	2
188	189	2
141	141	2
134	134	3
71	71	1
36	113	1
177	178	2
164	164	3
110	110	3
50	51	1
156	156	5
48	49	1
14	15	2
104	104	3
106	106	3
136	137	2
138	164	1
144	193	1
195	195	2
100	101	1
167	167	2
83	83	2
15	16	3
24	65	1
45	45	1
175	175	1
64	66	2
112	123	1
3	71	2
68	68	2
172	172	2
57	58	2
157	159	1
108	110	1
39	39	1
119	119	2
17	17	1
103	103	2
52	55	1
146	178	1
29	147	1
115	116	1
7	7	1
26	26	1
147	147	1
82	83	1
185	186	2
98	98	1
89	93	2
96	96	1
120	151	1
109	109	1
158	159	2
29	29	2
180	182	2
34	81	1
66	66	1
168	169	1
62	64	1
113	115	1
9	10	1
11	74	1
3	4	1
59	61	2
4	67	1
35	36	1
180	180	1
190	190	2
94	94	1
10	13	1
8	66	1
181	182	1
1	191	1
27	33	2
1	108	1
62	121	1
23	80	1
33	33	1
72	72	2
10	10	1
28	148	1
76	77	1
165	165	1
15	15	1
117	121	1
18	19	1
155	155	1
129	130	1
192	193	1
