50	50	5
82	82	7
55	74	1
63	64	4
143	143	6
52	52	6
71	73	3
49	49	9
29	30	4
92	92	7
109	109	12
111	114	1
3	3	10
4	4	6
136	136	5
91	91	4
61	131	2
97	97	2
1	1	4
104	104	4
66	66	5
105	105	9
107	109	2
35	37	1
40	40	4
129	129	9
79	80	1
21	21	7
25	27	2
53	74	4
18	18	12
33	85	5
52	55	2
68	70	3
15	16	5
134	135	2
85	85	5
95	95	3
94	94	3
35	35	2
113	113	3
54	87	1
91	107	2
138	139	3
110	112	2
74	75	3
135	135	7
131	131	2
49	50	3
111	111	4
60	60	5
115	115	6
139	139	8
140	140	3
98	98	3
133	133	9
34	35	2
137	137	8
2	2	3
140	141	6
5	13	2
90	125	2
125	126	4
51	51	4
17	17	2
33	33	2
124	125	4
81	81	5
39	84	3
137	143	7
102	102	2
24	24	7
64	64	5
83	83	3
125	125	3
38	39	3
33	34	3
22	23	8
131	132	4
66	67	3
104	105	5
20	21	12
132	132	2
117	117	6
110	110	4
117	118	2
70	70	2
54	54	3
9	10	4
103	103	4
9	41	4
83	84	2
126	126	3
82	112	1
114	116	1
55	72	2
79	109	4
18	19	4
142	142	5
106	107	2
14	24	7
90	91	1
29	29	4
73	73	2
138	138	3
23	23	3
123	123	8
104	128	3
72	72	1
5	15	3
27	28	2
95	100	6
41	41	1
64	131	3
5	5	2
133	135	1
11	11	5
97	98	4
78	107	2
80	82	2
2	24	5
59	59	3
50	51	2
48	48	2
8	8	2
9	9	1
73	74	2
93	93	2
80	80	1
3	40	2
16	16	4
68	72	1
50	71	2
13	13	4
63	75	6
27	27	4
141	141	6
100	100	8
87	90	3
5	6	2
77	77	2
132	133	2
55	55	2
127	129	3
34	34	3
61	61	2
30	32	1
120	120	1
128	128	2
63	63	7
114	114	2
5	14	3
24	25	3
36	36	10
91	106	5
65	129	2
95	123	2
39	39	6
43	43	4
37	38	2
84	84	3
58	62	1
36	37	4
40	41	2
74	74	4
69	69	2
32	35	2
0	0	4
25	25	2
53	55	1
16	19	1
35	36	1
10	39	3
36	39	1
38	38	2
83	110	2
118	118	3
24	41	2
122	122	2
31	31	2
65	132	1
112	112	3
96	96	2
62	62	3
90	106	1
117	119	1
59	89	3
56	56	3
101	101	2
135	136	1
54	70	1
62	63	1
134	140	2
13	15	1
22	22	3
61	62	1
88	109	2
59	60	2
87	87	2
65	65	3
16	17	5
76	76	4
14	14	3
55	56	3
32	32	1
62	131	1
122	123	2
76	88	1
55	73	3
110	111	1
41	42	2
20	20	5
47	47	1
66	72	2
99	100	1
57	57	2
54	55	2
116	117	1
118	119	2
59	63	1
10	11	1
60	61	2
109	111	2
37	37	2
70	72	1
4	40	1
90	90	1
34	36	1
81	115	1
103	104	1
92	106	1
69	70	1
54	71	1
19	21	1
38	84	1
10	10	2
15	15	2
10	40	1
119	120	1
144	146	1
59	61	1
30	37	1
108	108	1
64	65	1
121	123	1
0	1	1
80	108	1
27	87	1
