16	16	17
89	89	19
105	105	10
86	86	4
121	123	2
126	126	13
77	77	8
8	104	3
59	59	5
87	88	3
53	57	3
77	131	1
44	44	16
48	48	12
52	52	13
78	79	10
131	131	20
51	51	15
57	57	18
1	1	13
114	121	6
68	68	8
92	92	8
84	84	16
66	78	4
14	48	2
103	103	5
56	56	6
19	19	7
130	130	11
43	45	1
43	43	18
10	10	14
76	76	11
111	111	22
61	62	2
117	117	14
60	60	8
65	67	8
14	14	8
74	74	14
39	39	2
133	133	7
100	100	8
56	57	1
2	3	4
62	92	2
94	95	3
40	41	1
114	120	2
12	13	7
81	82	2
41	42	8
50	50	5
42	42	6
71	71	9
91	91	11
9	9	4
11	12	5
41	43	3
79	79	15
90	91	3
75	76	2
83	83	10
62	62	8
41	41	10
57	120	6
129	129	4
32	32	19
0	0	8
114	115	2
63	64	4
61	61	5
68	71	3
7	8	6
78	113	1
34	34	6
69	69	9
46	46	8
65	68	4
2	2	5
49	56	1
25	25	7
104	104	15
117	118	2
125	125	15
32	33	5
95	96	4
30	34	5
118	118	15
73	73	1
97	98	1
128	129	3
132	132	15
116	117	1
126	127	5
2	5	3
112	112	14
33	33	9
128	128	3
107	108	3
38	90	1
45	45	3
63	63	5
110	110	6
115	115	3
12	12	11
114	114	7
6	6	7
38	106	2
24	24	7
29	33	2
10	12	8
102	102	6
95	95	11
27	27	12
6	19	2
108	109	2
13	15	3
108	108	2
20	20	4
49	49	16
122	122	8
126	129	4
19	47	4
90	102	5
123	123	24
3	96	2
115	118	1
26	42	3
121	121	13
13	55	2
57	107	5
72	73	4
65	129	6
5	5	6
52	54	4
128	131	1
119	119	8
98	98	7
53	53	9
30	30	11
115	116	5
49	93	2
126	128	2
110	111	3
15	27	6
104	111	1
13	13	2
86	87	2
21	21	3
18	18	1
67	67	7
116	116	11
22	23	4
78	78	14
11	11	6
67	69	1
24	25	2
55	55	4
72	76	2
105	118	1
122	123	6
17	17	7
40	40	4
47	47	4
102	112	2
67	68	6
93	96	12
42	48	3
22	22	3
63	77	1
3	6	2
68	125	1
128	130	2
81	81	5
125	131	7
103	104	1
47	70	2
1	49	2
100	103	1
23	23	2
79	80	7
97	97	3
69	70	2
7	7	3
40	107	3
54	54	6
8	118	5
113	120	2
17	28	1
124	131	1
48	56	4
68	128	2
38	38	7
37	37	3
106	107	6
25	26	3
33	40	1
65	65	6
101	101	3
62	64	1
104	105	1
58	64	3
15	48	3
101	102	2
94	94	8
15	15	3
77	130	5
60	118	2
86	90	1
75	75	2
120	120	9
127	127	7
107	107	3
9	10	3
17	47	1
10	56	1
26	26	4
1	2	3
2	108	3
4	4	12
122	132	1
74	76	1
11	96	1
108	110	1
20	23	2
2	97	1
69	125	2
3	3	2
9	12	1
41	45	1
84	85	1
28	28	8
93	95	2
60	61	3
91	92	1
85	85	5
63	72	1
19	20	2
60	79	2
104	110	5
74	75	2
0	50	2
80	126	1
58	104	4
91	95	3
96	96	1
59	60	3
29	30	5
0	1	2
106	106	3
47	99	2
88	89	5
113	113	5
6	105	1
60	113	2
17	29	1
85	92	2
10	96	4
21	40	2
58	59	5
111	112	1
99	99	2
48	112	3
3	97	1
111	116	3
42	43	5
90	90	4
52	53	1
50	51	2
66	77	2
88	88	2
52	121	2
64	89	1
123	124	1
100	101	2
80	80	2
64	64	5
102	103	2
22	43	2
56	104	1
99	100	1
6	8	2
15	21	2
0	41	1
87	87	2
105	106	2
82	83	3
18	28	1
60	62	4
72	72	4
98	105	3
28	29	1
82	82	2
70	70	4
6	29	1
53	54	3
117	119	2
61	119	3
1	3	1
29	29	1
14	15	1
120	121	1
124	124	8
66	68	3
4	5	2
58	110	2
98	106	1
10	97	1
62	81	2
112	123	1
77	78	3
92	93	1
10	11	2
8	8	2
4	6	1
85	87	1
24	44	1
46	100	1
93	94	5
89	90	2
66	66	2
105	117	1
109	110	1
118	119	3
24	27	2
47	100	3
70	71	2
93	93	1
18	93	2
19	21	1
124	125	1
70	100	1
31	34	3
63	93	3
75	87	1
63	112	1
49	107	1
104	118	1
11	41	2
6	12	1
125	132	1
48	94	1
51	81	1
21	39	1
24	41	1
18	19	1
5	102	1
59	117	1
0	42	1
104	107	1
49	57	1
85	86	2
57	118	1
60	116	1
16	18	1
87	90	1
92	97	1
31	31	1
18	96	1
