40	40	8
67	67	5
61	61	3
79	80	3
114	133	1
92	92	5
4	23	2
23	23	7
109	110	2
80	81	2
16	17	5
97	98	1
62	62	3
27	27	2
62	68	4
83	83	4
95	97	4
111	111	7
11	11	1
81	82	4
105	105	2
64	64	6
42	42	4
43	44	4
65	65	2
10	13	3
10	10	4
34	34	6
13	16	5
73	73	4
17	17	2
46	46	2
125	125	2
123	123	4
77	102	1
128	128	1
86	88	3
20	20	3
54	54	1
29	56	2
54	57	1
109	109	4
103	103	3
77	101	2
57	58	4
122	122	1
90	90	3
24	24	1
7	7	3
128	131	1
14	14	3
58	58	4
45	45	5
13	17	4
30	30	3
85	85	4
108	108	1
70	71	2
81	125	2
15	15	2
80	80	4
85	87	5
61	62	1
49	49	6
14	15	1
94	94	9
127	128	3
47	53	1
130	131	4
8	9	2
130	130	4
20	21	7
113	113	3
32	32	5
107	107	10
7	8	2
129	129	2
57	57	2
9	9	2
49	50	4
29	30	4
52	53	2
86	86	4
99	99	5
76	101	1
95	95	2
102	108	1
76	76	1
18	18	4
106	106	7
28	29	1
75	75	2
26	27	1
84	85	1
113	131	1
71	71	2
1	1	1
82	82	2
4	19	1
62	72	2
101	101	1
101	102	1
131	131	3
25	27	1
0	0	3
3	4	1
121	121	2
83	85	1
32	33	1
85	86	1
78	78	2
5	5	3
74	129	3
44	44	2
2	3	1
94	98	2
58	59	1
116	116	2
39	64	3
41	42	3
19	19	5
72	133	3
55	55	1
51	51	4
114	114	2
57	61	1
115	116	1
101	104	1
69	74	3
93	93	1
28	30	3
73	97	1
76	125	1
119	119	4
66	125	1
18	19	1
38	38	3
60	60	1
60	68	5
65	124	1
26	26	2
71	106	1
6	6	1
76	82	2
48	48	2
89	90	1
9	10	2
75	85	1
87	87	3
81	81	1
97	97	1
127	127	1
2	2	1
27	29	1
88	89	2
29	29	2
69	69	1
14	44	1
101	107	2
57	104	1
39	54	1
40	42	1
116	117	1
124	124	1
47	49	1
98	99	2
15	17	2
78	115	1
51	52	1
22	22	1
3	3	1
49	53	2
118	118	1
84	120	1
8	19	1
115	115	3
50	50	1
88	90	2
104	106	1
78	79	1
83	117	1
104	104	1
91	91	1
114	117	1
59	69	1
64	67	1
81	115	1
120	120	2
40	41	1
126	127	1
78	127	2
72	72	1
