1	1	9
154	154	7
146	146	13
15	15	3
142	142	12
31	31	13
77	78	2
145	146	2
122	123	3
28	39	1
93	94	4
10	14	7
0	0	6
123	124	2
5	5	11
55	55	10
10	10	6
18	18	12
63	66	1
71	71	6
7	50	4
87	87	8
151	151	13
27	39	5
17	18	7
130	132	2
132	132	5
30	30	5
136	136	5
21	21	13
4	6	2
105	138	3
68	71	3
16	16	13
46	46	11
55	56	2
80	87	3
82	83	3
101	101	4
45	47	2
131	131	10
79	80	2
79	149	3
27	27	4
9	11	4
111	111	9
98	99	1
134	134	10
53	53	2
99	99	12
82	82	4
17	17	1
38	65	2
106	106	5
27	36	2
149	149	5
35	37	9
117	118	5
94	94	5
86	87	3
150	150	5
38	38	8
148	148	8
91	151	2
106	107	1
37	38	2
26	28	4
48	48	10
80	81	3
126	128	3
27	40	1
81	81	8
131	132	6
113	113	5
130	130	11
33	33	2
156	157	2
2	2	5
155	157	2
77	77	4
133	133	8
144	152	4
41	41	8
45	45	4
88	88	7
67	68	6
102	102	5
100	100	9
124	124	12
25	25	7
42	43	2
104	104	9
155	156	3
135	154	6
7	7	12
128	134	4
114	114	3
29	29	9
153	158	2
84	84	6
43	43	5
158	158	9
105	106	2
125	125	5
95	101	5
95	95	5
68	68	4
25	28	1
46	54	4
9	30	1
42	46	3
25	26	3
144	144	11
112	112	1
80	83	3
24	24	6
34	34	3
120	120	4
135	135	4
119	119	1
85	86	4
91	91	3
109	113	3
35	35	7
108	108	1
12	12	9
20	45	4
90	91	3
27	72	1
47	65	1
129	129	9
27	30	1
139	140	2
141	141	9
77	79	3
116	116	4
6	6	10
126	126	3
138	138	4
2	5	3
4	5	4
75	129	1
33	72	2
27	33	2
4	4	8
115	116	1
32	35	1
117	117	3
47	47	6
89	89	1
69	69	3
3	3	4
84	85	5
70	71	4
96	96	2
54	114	2
73	73	6
65	98	3
157	157	4
127	127	4
148	149	3
3	4	6
56	56	3
118	118	2
38	39	5
78	78	6
121	122	3
71	83	4
112	113	1
75	75	3
27	28	2
50	50	3
7	8	2
107	107	3
93	95	2
25	77	1
132	133	1
110	110	5
9	9	5
125	126	4
15	28	3
139	139	5
20	21	4
136	150	1
11	11	8
46	47	1
34	35	2
135	139	4
67	70	5
42	42	2
47	48	6
92	95	1
130	131	3
72	72	4
13	13	6
96	97	4
97	98	6
144	153	2
126	152	2
37	37	2
34	41	2
44	44	6
50	51	2
79	79	6
51	115	3
69	84	1
36	37	4
65	67	1
145	154	2
39	39	5
26	26	2
104	105	1
145	145	3
139	141	2
39	40	1
89	111	2
23	23	8
95	106	3
70	70	7
119	120	2
103	110	3
144	148	1
67	67	2
52	52	5
90	90	3
41	42	2
97	106	5
54	54	5
147	147	3
108	115	1
136	142	1
22	26	1
91	92	2
84	87	2
128	128	2
122	122	3
109	109	4
140	140	1
143	150	1
9	10	2
130	155	1
108	114	1
40	41	2
156	156	6
65	65	2
119	121	5
143	152	2
137	137	5
103	139	1
77	150	1
157	158	3
98	98	3
27	38	1
94	95	5
51	51	4
5	51	3
12	51	2
71	84	3
49	50	3
11	14	2
152	154	1
151	152	2
93	146	1
50	52	2
105	140	1
92	93	5
94	98	2
116	117	2
94	108	1
28	29	1
91	131	1
104	140	4
66	69	1
102	104	2
32	72	1
88	90	1
9	16	2
21	22	1
90	110	1
96	102	1
29	30	1
49	113	1
14	14	3
82	84	3
79	87	1
48	49	1
15	16	2
120	122	1
49	49	1
85	85	2
22	23	2
68	84	1
5	52	1
51	52	2
7	27	3
66	67	1
99	100	2
135	151	1
69	87	3
68	69	1
92	103	1
19	19	2
26	27	1
19	31	1
20	86	2
78	80	1
77	82	1
122	152	1
83	84	1
16	17	1
143	143	1
0	1	1
8	8	1
65	66	1
40	40	1
50	113	2
105	105	1
99	134	1
92	94	1
95	96	1
138	139	2
32	50	1
9	14	1
92	92	2
87	112	1
74	74	1
111	112	1
1	2	1
71	72	1
32	33	1
98	100	1
100	101	1
115	115	1
83	83	1
