59	60	5
148	150	4
58	62	3
62	62	7
66	77	5
77	78	6
178	178	3
12	12	21
163	163	11
162	162	17
157	157	7
133	133	6
54	54	12
159	159	5
56	59	4
92	93	8
132	132	12
176	177	7
130	130	6
136	145	1
87	87	11
150	151	7
88	88	6
124	124	8
41	92	6
26	36	3
132	165	1
109	128	2
70	70	8
6	6	5
34	49	1
117	117	6
132	156	1
113	113	12
66	67	6
132	142	2
86	86	5
61	62	1
78	78	6
148	149	1
180	180	3
127	127	10
18	18	9
150	150	14
16	33	5
135	135	23
155	155	10
170	173	10
95	95	7
150	157	1
65	66	2
156	156	7
23	31	1
71	72	1
110	110	4
108	108	9
19	19	2
136	177	2
160	163	6
161	162	2
122	122	5
51	54	2
81	102	2
32	79	1
32	32	9
147	148	5
101	101	5
13	20	3
12	13	9
170	170	15
146	147	3
172	172	8
31	31	21
157	173	1
112	112	2
167	167	8
137	146	1
91	111	2
28	28	4
28	33	2
143	143	14
10	10	3
138	138	9
87	98	4
107	107	11
160	160	4
133	138	4
173	173	13
158	158	8
33	33	13
144	144	8
89	89	7
28	40	2
59	64	1
138	139	1
73	73	16
145	145	11
168	168	6
29	29	6
124	125	1
155	156	8
26	26	6
76	78	3
161	163	3
153	153	6
82	101	2
19	20	6
2	4	5
99	108	3
9	75	2
153	159	2
103	116	1
108	149	6
84	86	3
137	137	7
98	98	11
61	61	14
145	169	4
77	82	4
55	81	6
149	149	8
104	104	9
140	140	2
11	14	2
64	64	11
166	166	5
25	25	4
64	150	1
121	121	13
68	73	3
45	45	10
134	134	9
5	5	12
60	60	5
25	29	2
173	174	5
8	18	7
136	141	4
167	174	2
40	41	7
13	13	7
148	148	4
144	146	4
65	65	15
23	30	3
73	84	4
40	40	4
52	53	6
26	33	2
0	0	3
142	154	2
174	174	9
2	2	7
106	106	21
13	24	2
135	137	3
26	37	2
72	72	10
57	57	3
160	167	2
95	96	5
79	79	8
91	91	6
107	108	6
27	28	2
84	84	12
75	107	3
139	139	4
87	132	2
90	104	1
107	114	4
9	9	6
94	94	6
170	171	1
118	141	2
115	115	3
38	38	7
49	49	1
136	137	3
120	120	4
22	22	2
76	76	13
146	146	1
83	83	2
86	104	2
49	50	5
178	180	1
121	124	1
144	145	2
35	36	6
4	50	5
105	105	1
1	2	1
137	139	4
65	67	4
76	80	2
159	174	1
154	154	8
126	126	8
111	111	7
30	30	13
74	74	6
118	118	15
49	57	2
104	105	2
176	176	13
152	152	6
133	134	4
90	90	7
9	10	2
16	17	4
97	97	12
81	81	9
164	164	8
67	77	1
165	165	14
22	23	4
1	1	5
32	33	1
39	40	3
171	171	10
162	173	3
147	147	9
125	125	2
114	126	1
121	122	5
132	138	1
140	141	2
41	42	1
66	66	9
43	43	8
103	114	5
88	98	3
74	110	2
14	14	1
53	53	1
12	21	1
44	46	4
87	91	2
140	164	1
63	63	6
122	123	3
6	7	1
5	14	1
151	157	2
53	54	6
112	113	3
136	136	14
58	58	10
0	5	1
72	106	1
90	91	5
132	176	2
53	94	1
23	42	2
10	11	3
160	171	2
80	99	2
150	160	3
21	45	2
92	92	7
145	150	1
109	171	1
10	12	3
60	61	2
141	154	2
158	174	2
0	18	3
141	180	1
18	19	2
37	37	4
50	50	8
179	179	4
73	81	2
20	21	2
142	142	3
123	123	13
110	127	1
68	68	3
2	33	2
116	116	7
50	53	2
11	11	4
154	156	2
23	23	4
141	141	6
7	9	1
113	114	1
24	24	5
22	27	1
99	99	7
75	75	4
163	174	2
161	164	1
102	106	1
158	159	2
115	121	2
7	7	4
101	102	2
6	10	2
132	140	1
137	138	5
104	110	2
178	179	3
11	17	3
163	166	2
129	129	3
136	156	1
80	93	1
86	97	4
121	123	2
34	34	4
151	151	6
93	93	7
102	102	4
115	128	1
111	113	3
81	108	1
67	67	4
86	88	1
109	109	3
17	18	2
133	140	2
169	171	1
45	75	1
15	15	5
169	174	1
139	140	2
59	59	10
129	130	3
149	150	4
153	154	2
151	153	2
41	43	4
35	35	1
90	92	3
110	111	1
4	4	3
154	155	1
41	41	5
2	3	2
42	42	2
44	44	3
3	4	5
36	36	6
27	27	2
102	103	2
167	173	1
160	174	4
9	13	3
165	166	2
51	51	4
119	119	2
132	175	3
58	65	4
95	102	1
39	39	7
7	8	1
93	94	4
67	84	3
160	162	4
85	85	2
17	49	1
44	62	2
104	108	2
18	32	2
11	19	4
96	96	2
82	109	3
87	88	2
1	3	1
121	152	2
172	174	2
85	87	2
134	136	1
89	91	1
76	95	2
77	77	5
165	176	4
21	21	2
71	73	2
120	123	2
80	83	1
52	65	1
128	128	4
116	147	2
108	109	3
126	127	2
10	17	3
20	20	4
148	155	2
71	71	6
134	140	2
52	52	4
2	10	1
62	75	1
99	109	1
142	164	1
62	113	1
32	34	2
161	161	4
55	57	1
97	114	1
25	26	2
144	174	1
23	34	1
162	163	2
51	52	2
175	175	4
105	107	1
34	36	2
56	60	1
13	14	1
5	6	2
60	100	2
54	55	2
150	169	1
8	8	8
112	124	2
1	4	3
78	81	1
70	72	1
40	92	1
149	169	2
116	117	1
105	106	1
140	143	1
159	160	2
162	172	2
15	16	2
56	56	3
145	149	2
5	85	3
4	32	1
56	58	1
120	178	1
163	164	1
30	31	1
17	22	1
130	140	1
91	92	2
145	147	2
26	32	1
55	104	2
54	56	3
87	131	1
26	27	1
172	173	2
151	158	1
155	164	1
162	169	2
92	94	1
39	163	1
177	178	1
134	156	2
37	90	1
66	81	1
3	3	5
110	126	2
0	2	1
165	169	2
80	81	1
8	21	3
18	22	1
74	104	3
140	145	1
80	80	4
114	124	1
101	114	1
117	118	2
67	97	3
62	63	1
115	119	1
134	137	1
131	131	1
116	118	1
155	179	1
24	27	1
14	16	1
115	122	1
45	61	1
20	45	1
122	141	1
30	37	3
103	103	1
148	167	1
115	126	1
72	81	1
96	98	1
166	179	2
3	122	1
141	142	3
36	37	1
167	169	1
79	80	1
155	176	2
174	175	1
98	100	1
12	22	1
7	11	2
135	141	3
82	82	1
84	85	1
97	98	1
169	169	1
31	145	1
150	175	1
89	133	2
163	167	1
95	109	1
118	120	3
118	121	1
26	28	1
61	66	1
152	159	1
4	33	1
132	134	2
71	82	1
109	112	1
4	11	1
134	177	1
17	17	1
50	60	1
90	111	1
148	165	1
74	87	2
125	126	1
83	103	1
170	172	1
65	93	1
57	105	1
2	121	1
81	82	1
102	115	1
