100	100	18
7	7	18
58	59	10
43	43	9
58	63	3
66	66	22
53	53	8
90	91	17
87	88	15
8	8	7
19	19	14
72	72	14
92	92	18
128	128	25
24	24	18
29	30	22
50	50	17
128	131	2
89	90	6
12	12	15
15	16	11
72	73	19
87	87	27
38	38	10
94	94	14
46	46	20
104	104	15
83	83	28
14	14	9
2	131	3
40	50	3
81	82	9
119	119	12
51	69	2
61	62	16
27	27	19
99	99	19
120	120	31
97	97	19
49	49	21
89	89	28
70	70	11
102	102	27
71	71	14
108	108	30
62	63	7
56	56	25
69	133	8
99	100	3
30	55	3
16	16	13
121	122	13
113	113	17
23	24	11
58	58	18
48	48	18
75	85	4
109	109	16
89	94	2
2	2	19
101	106	3
101	101	18
132	132	16
115	116	16
91	91	16
25	25	19
30	30	13
56	66	6
15	15	29
117	117	14
26	26	21
82	82	19
13	13	26
95	95	9
3	3	21
116	116	26
23	25	10
54	54	37
21	21	15
57	57	24
52	52	11
129	129	13
47	48	5
2	5	7
50	105	1
41	42	4
67	67	24
51	52	10
85	85	14
112	112	19
68	68	17
98	98	14
124	132	4
29	29	17
54	64	2
33	34	6
65	65	15
62	62	9
20	25	6
108	114	13
80	102	5
130	130	26
103	104	1
124	125	4
67	94	1
74	74	30
41	41	18
45	45	17
63	64	15
55	56	6
51	53	8
11	42	2
126	126	17
80	93	5
51	95	1
13	42	2
28	28	18
63	63	37
86	87	5
51	51	9
83	85	7
75	75	14
9	9	8
81	81	13
18	20	11
10	10	14
105	106	8
59	59	9
52	53	7
126	127	8
73	75	1
69	70	1
69	69	8
96	97	7
1	4	7
115	115	15
8	9	3
18	18	16
127	127	15
93	93	18
79	79	8
121	121	25
39	39	14
93	94	4
65	66	10
6	33	1
78	78	6
69	93	1
47	47	10
107	108	7
112	113	3
70	71	4
131	132	2
77	104	6
44	44	21
38	39	4
31	32	12
22	25	4
5	5	20
4	29	7
82	84	3
88	89	15
101	109	3
133	133	13
32	32	19
125	130	4
131	131	12
59	62	4
114	114	28
86	86	22
11	45	2
77	78	9
111	111	17
1	2	2
66	67	14
111	113	4
55	55	12
11	70	3
125	131	2
104	106	4
5	7	8
129	130	5
56	95	3
114	117	2
17	17	18
95	96	7
76	76	11
4	28	3
97	98	14
104	105	7
18	70	3
100	101	10
99	103	2
66	68	2
6	132	2
113	121	1
17	19	3
61	61	9
84	85	7
106	106	17
11	12	14
120	121	2
111	114	1
96	96	14
110	115	3
50	51	2
118	118	9
108	109	3
45	47	12
11	25	4
1	54	2
64	64	11
1	49	6
55	66	4
92	94	3
86	103	5
32	50	1
8	12	9
125	125	22
61	71	2
108	117	1
17	18	8
52	69	4
77	103	3
16	17	4
11	11	13
25	26	12
9	10	5
61	96	7
106	116	5
73	73	10
26	27	5
98	115	3
40	40	16
85	86	4
126	128	3
107	107	8
90	90	15
4	4	21
9	12	1
72	77	2
110	110	14
46	47	6
5	23	3
58	67	2
2	127	3
0	0	10
71	72	7
5	22	7
93	95	1
64	65	6
11	18	5
128	129	9
51	94	3
75	80	4
117	118	6
14	16	4
30	49	1
80	80	17
1	1	17
121	123	5
42	44	1
127	128	4
30	47	1
31	53	1
17	20	2
39	46	1
27	31	2
40	45	1
56	109	2
80	84	3
32	33	5
116	117	6
33	33	21
59	63	4
82	100	1
18	19	8
74	77	2
109	117	5
80	81	3
20	33	4
103	103	19
123	124	5
72	74	8
123	123	16
31	31	8
84	84	4
106	118	2
2	3	6
59	92	1
23	23	6
17	71	4
20	34	1
48	123	1
42	43	1
14	76	1
50	53	4
82	85	2
47	123	3
6	6	14
59	70	3
119	120	1
124	124	10
110	111	4
91	92	8
7	29	6
55	65	3
56	93	4
6	131	2
91	93	5
20	20	12
122	122	19
40	43	2
68	89	2
28	30	1
78	103	1
86	88	2
118	120	4
62	64	4
59	61	3
102	103	6
22	22	15
28	29	2
105	105	8
24	26	1
111	112	3
96	103	1
112	114	1
114	116	1
96	99	1
14	75	1
42	42	13
12	46	1
122	123	4
34	34	4
132	133	3
77	77	14
6	129	3
6	127	3
32	54	2
33	48	3
16	21	2
125	126	2
65	68	3
30	31	1
39	40	11
73	74	7
67	68	3
75	76	1
113	114	4
73	93	1
109	110	2
12	79	3
88	91	1
106	117	3
19	20	5
60	61	7
94	95	4
88	88	2
21	22	3
77	79	2
3	4	2
13	70	3
1	29	2
119	130	1
44	45	1
5	21	2
71	92	4
76	91	2
5	6	1
48	49	1
118	119	10
6	7	1
27	32	3
93	107	3
94	106	1
68	69	3
74	75	1
83	84	5
5	28	3
43	44	8
76	92	2
53	54	4
16	18	2
117	119	2
110	118	2
111	116	1
115	117	9
56	57	2
4	24	1
57	60	1
95	105	5
63	65	3
75	78	1
59	60	3
51	82	1
24	25	2
29	54	2
111	122	3
129	131	1
81	103	3
37	37	2
76	77	1
9	49	1
39	43	3
19	26	1
71	73	1
45	52	1
20	69	6
11	44	3
116	121	2
57	58	8
50	123	1
58	62	2
27	28	1
83	86	1
12	20	1
14	15	2
71	91	1
50	81	1
55	90	2
114	115	2
46	52	1
107	119	1
60	60	1
94	103	2
109	118	1
31	33	1
79	80	1
18	71	1
77	81	1
75	91	2
81	83	1
8	10	1
101	103	3
111	115	1
4	25	2
54	93	1
40	41	2
126	131	1
108	113	1
67	92	1
23	28	1
108	118	1
70	92	1
33	46	2
114	121	1
12	70	1
13	17	1
106	124	2
12	19	1
59	125	1
62	128	2
81	84	1
98	99	1
33	41	3
116	120	1
49	50	1
51	105	1
13	45	1
109	114	1
130	131	1
97	99	1
27	30	1
10	14	1
119	121	1
9	14	1
45	46	1
108	110	1
