8	32	1
56	56	2
44	76	1
56	57	6
64	64	8
54	54	4
16	16	6
0	0	6
27	57	4
7	7	15
49	49	5
39	39	14
27	28	5
9	10	6
32	33	4
80	80	12
38	38	15
55	55	14
51	51	11
27	27	13
9	12	2
65	65	6
40	40	13
36	41	1
60	62	4
36	55	1
20	30	3
36	69	4
41	41	20
1	2	3
52	52	6
11	14	7
25	51	5
6	6	8
62	72	2
69	69	8
44	44	5
62	62	8
9	9	9
65	74	5
29	29	14
11	11	13
49	52	1
54	55	3
63	64	6
44	45	4
12	39	3
27	30	3
4	4	7
7	8	1
38	40	1
8	8	13
50	50	14
47	47	3
72	73	2
0	16	1
45	45	3
14	32	6
68	69	9
73	73	17
70	72	3
55	66	2
32	53	1
31	31	9
28	55	1
78	78	12
79	79	13
50	51	3
21	37	3
34	35	13
45	74	5
42	42	4
25	25	18
32	32	3
77	77	13
13	14	9
2	2	20
11	15	4
74	74	15
29	30	4
28	54	4
37	37	9
67	67	3
62	67	2
48	48	7
13	21	5
12	13	1
57	57	9
68	68	14
71	71	5
27	60	5
38	39	3
13	13	4
53	53	7
7	10	2
70	70	4
77	78	2
26	32	6
34	34	4
19	20	3
33	33	5
7	9	3
19	19	4
27	79	7
71	72	3
26	49	4
20	21	2
76	76	5
68	70	6
51	53	1
2	4	2
14	14	10
56	80	2
3	3	10
52	67	1
5	7	3
0	17	6
52	68	2
6	41	4
60	60	5
18	42	1
5	16	1
35	35	1
10	10	6
9	32	2
36	36	6
36	37	2
37	58	4
26	26	10
26	27	3
21	21	10
10	13	3
75	75	8
61	61	6
31	67	3
28	28	4
9	33	1
46	46	6
12	12	4
27	39	1
3	45	3
70	71	5
69	71	2
31	53	1
15	39	2
47	48	3
51	52	1
39	40	2
16	38	1
5	5	3
3	14	3
66	70	1
3	8	4
30	30	5
38	61	1
51	69	1
22	22	3
37	38	4
49	66	2
58	58	1
63	63	4
65	80	4
41	42	1
75	76	3
56	59	2
56	61	5
14	21	2
8	67	3
11	12	1
17	17	1
45	46	3
27	54	3
78	80	4
27	59	3
7	16	2
49	50	6
20	20	2
79	80	3
74	75	1
66	72	2
3	76	1
4	5	5
15	15	2
65	73	3
69	70	3
66	68	2
26	42	1
48	49	3
3	4	4
29	52	1
27	73	2
71	76	1
44	46	2
59	60	2
6	12	2
29	58	2
32	41	1
15	36	1
50	54	1
6	11	1
10	11	1
9	52	1
74	78	1
74	77	1
1	1	2
8	34	1
72	72	1
18	18	2
30	80	1
35	36	1
39	49	1
16	18	1
25	55	1
16	19	1
8	9	1
32	69	1
36	40	1
