69	138	2
50	51	3
6	6	2
42	42	7
158	158	3
84	108	4
49	65	1
80	95	2
9	10	1
126	126	1
56	56	7
40	43	2
121	122	1
111	111	3
12	12	5
124	124	4
67	70	4
108	110	1
137	138	1
108	141	2
150	150	6
52	52	3
106	109	2
108	139	3
141	141	6
28	28	2
138	138	2
50	68	3
38	40	1
5	5	4
19	19	2
11	12	1
80	80	2
41	41	1
13	16	4
125	136	2
9	11	2
31	33	1
46	46	6
73	73	2
106	106	6
78	80	1
97	97	6
8	39	1
93	93	1
1	1	4
91	91	7
137	137	6
96	97	1
55	55	3
87	118	3
111	120	4
104	132	2
115	137	3
24	42	5
124	126	1
44	50	2
89	89	1
114	115	3
157	158	1
105	106	5
112	135	2
91	121	1
33	33	2
87	87	4
148	150	2
107	107	2
113	113	3
44	44	7
11	11	2
99	99	1
24	24	2
128	128	2
19	152	5
36	36	3
146	147	6
5	49	2
109	110	5
125	126	4
129	130	4
27	27	3
51	54	2
142	142	5
112	112	1
87	120	1
70	70	2
79	79	3
151	152	3
14	15	3
133	134	2
30	30	3
45	62	2
84	117	2
96	96	4
81	81	2
127	127	4
66	139	3
61	61	2
129	134	1
150	151	1
132	134	2
28	30	3
107	149	2
94	95	5
136	136	2
37	41	3
95	95	3
94	100	2
69	70	2
100	100	1
3	55	2
65	88	2
94	94	1
75	75	6
63	68	1
68	69	1
90	90	3
87	139	2
22	22	2
23	23	4
94	101	1
49	55	2
131	131	3
35	38	2
51	51	1
140	140	1
124	135	2
71	71	1
85	85	1
141	143	2
120	120	1
32	33	4
37	37	2
2	69	1
32	32	5
119	119	1
7	7	2
129	129	2
18	19	1
19	20	1
68	86	2
110	111	3
92	92	1
114	129	3
31	34	2
156	157	1
39	39	4
86	118	1
23	25	2
105	105	2
18	18	1
86	100	2
133	133	1
38	38	2
11	21	2
69	69	2
0	4	1
3	4	2
77	77	2
42	47	1
97	98	2
125	127	1
9	9	2
26	26	1
47	47	2
149	151	1
147	147	1
17	23	1
73	78	1
67	71	2
69	89	2
108	111	1
114	114	5
151	151	1
110	110	5
8	13	1
119	120	2
67	67	1
149	153	1
1	130	1
54	54	1
116	156	1
69	139	1
123	135	1
25	47	3
72	73	2
152	152	3
98	99	1
136	137	1
17	24	2
145	145	2
2	2	1
31	31	1
115	158	1
19	112	1
20	21	1
134	137	1
10	15	1
117	117	1
142	154	1
70	71	2
91	120	1
81	82	1
15	15	1
83	117	1
16	39	1
115	116	1
134	134	1
46	53	1
154	154	1
25	34	1
113	137	1
103	103	1
