118	118	10
14	78	2
17	61	1
62	71	5
5	106	3
18	19	4
34	34	4
30	30	13
17	60	1
131	131	5
80	82	1
144	144	4
25	25	7
99	100	2
67	67	15
69	69	6
142	142	8
108	109	8
16	16	4
33	33	3
89	89	3
9	9	4
125	125	7
13	79	2
99	99	3
32	32	4
96	131	1
38	38	7
22	22	10
38	39	3
1	1	1
20	20	5
119	119	4
37	37	7
100	100	2
76	79	1
40	40	13
60	60	6
16	81	3
111	111	1
123	123	7
138	138	2
109	110	3
27	28	2
122	122	2
28	28	10
91	91	14
68	68	11
118	119	2
125	128	2
11	11	8
140	141	3
10	10	8
25	51	4
9	55	1
128	128	4
103	103	5
112	112	1
110	110	2
27	27	1
65	66	8
114	114	9
10	33	2
31	31	3
76	77	2
61	61	4
39	39	4
115	115	5
71	71	5
90	91	2
57	57	2
19	50	2
141	141	5
120	121	1
113	121	3
66	66	6
135	135	8
3	3	9
94	94	14
48	48	9
97	98	3
34	35	1
53	53	2
62	62	1
21	22	1
96	106	3
75	75	2
59	60	1
117	117	1
41	41	1
114	115	4
120	120	2
85	85	2
29	29	2
136	139	3
72	72	4
90	90	5
127	127	2
52	52	5
128	129	10
107	107	2
144	145	2
85	116	3
42	42	7
57	58	3
142	143	6
0	0	1
10	11	2
98	98	3
0	1	5
35	57	4
121	121	4
138	139	2
91	95	4
18	62	2
18	61	3
102	102	5
94	123	1
70	70	1
49	73	1
85	87	4
17	77	1
132	134	1
36	36	1
87	87	3
81	81	5
59	59	4
101	102	1
86	86	8
43	43	3
73	73	8
97	97	5
109	109	1
17	18	1
122	124	3
94	95	5
14	15	2
26	26	2
13	59	2
24	24	5
55	55	5
110	111	4
135	139	1
18	78	4
78	78	3
115	121	1
95	96	1
126	127	1
136	140	3
113	120	6
96	96	6
81	82	5
105	106	1
130	131	3
133	133	7
132	135	1
106	109	1
32	55	3
113	113	2
31	32	3
110	127	1
20	21	1
123	125	1
6	8	1
70	71	2
15	15	2
137	139	2
98	99	5
54	54	4
12	82	1
49	49	3
139	139	1
58	59	1
28	29	1
5	6	1
116	116	7
64	64	6
18	18	4
74	74	4
85	86	2
132	132	3
14	14	2
95	131	1
90	109	2
101	105	1
124	125	1
83	85	3
92	92	1
52	53	1
1	27	4
59	78	1
84	84	2
105	105	2
146	146	1
130	130	2
95	123	1
91	111	1
135	138	1
38	42	1
95	95	3
79	80	1
116	117	1
126	126	2
61	74	1
97	99	1
24	26	1
122	127	1
108	108	4
48	49	1
2	2	1
50	50	1
9	102	2
91	94	1
63	63	3
17	59	1
131	132	1
31	33	2
66	67	1
79	79	1
2	54	1
83	83	2
21	21	2
56	56	1
10	55	1
25	26	1
13	13	1
42	43	2
130	133	1
66	69	1
143	143	1
6	6	1
78	79	1
19	19	1
14	79	1
137	138	1
