25	27	3
94	94	1
14	14	3
107	125	4
26	28	4
111	111	2
69	69	3
118	118	4
149	149	9
10	54	3
40	40	10
11	15	5
17	17	5
87	121	2
49	49	4
12	13	6
68	68	9
18	18	6
125	125	6
5	51	1
116	116	9
104	147	3
107	107	7
70	83	2
45	45	5
11	12	2
48	48	4
23	30	3
153	153	5
145	145	5
87	88	2
99	99	4
29	30	3
136	142	2
131	132	3
101	111	3
43	43	6
53	53	6
139	140	3
77	77	5
5	5	4
27	27	8
129	130	4
71	71	2
6	6	5
79	82	1
86	152	2
46	46	6
51	51	3
140	140	6
134	143	1
55	55	5
36	36	7
122	122	2
13	13	4
130	130	3
10	10	2
32	33	3
38	43	3
16	16	3
25	37	4
8	8	2
83	84	1
75	120	2
135	135	6
132	132	9
18	19	3
33	37	3
35	35	8
136	138	7
74	75	1
65	75	6
23	23	1
15	15	2
80	80	3
44	44	4
16	20	2
13	17	2
104	104	6
113	113	3
106	108	2
7	7	6
39	40	3
106	107	6
8	10	4
110	110	3
9	9	4
114	114	1
93	98	3
15	62	2
9	29	1
75	75	1
58	75	2
87	92	2
50	62	4
93	93	4
97	103	2
108	110	3
6	7	1
80	81	2
12	12	2
100	101	2
30	30	2
78	78	5
63	110	2
26	26	4
65	68	4
113	123	2
34	34	5
47	52	3
42	42	4
56	56	1
28	47	1
78	120	3
105	105	9
147	147	4
66	66	1
27	28	1
71	120	4
119	119	5
47	47	1
15	28	2
124	129	2
73	147	1
3	3	1
40	76	2
121	121	1
140	141	1
50	51	2
105	123	1
99	121	3
123	151	2
79	79	1
20	20	1
84	84	1
133	133	2
101	103	2
146	146	2
25	25	1
152	152	2
100	123	3
57	76	1
91	91	2
22	22	5
4	31	6
107	122	2
137	137	2
126	126	1
41	41	1
98	98	4
115	117	1
82	86	2
20	35	3
55	58	2
5	22	1
137	145	2
119	130	2
90	90	7
130	141	1
96	96	1
54	77	1
16	17	2
85	85	4
40	42	1
45	46	1
19	19	1
98	99	2
118	147	1
120	120	2
57	57	1
5	93	1
95	98	1
73	144	1
110	136	1
65	65	1
82	82	3
53	57	2
108	108	1
7	24	1
29	29	2
33	33	1
39	39	2
103	117	1
113	136	2
115	115	2
110	138	1
111	136	1
70	120	1
112	112	2
54	54	1
142	143	2
117	118	1
61	63	1
87	87	1
95	95	1
70	70	1
133	144	1
69	77	1
129	129	1
2	4	3
105	147	1
67	67	1
23	24	1
128	128	1
102	102	1
84	86	1
64	137	1
137	138	2
90	92	1
33	38	1
38	40	1
28	28	2
110	126	1
141	141	1
77	121	1
76	76	1
83	134	2
144	144	1
153	154	1
