60	60	12
47	47	12
169	170	7
137	137	10
65	66	2
78	78	9
19	19	19
191	191	10
11	42	3
204	204	8
183	183	9
241	242	1
103	103	10
52	54	2
219	219	9
113	113	4
77	77	7
217	222	2
176	176	15
44	44	16
22	23	2
128	128	4
30	33	4
153	154	2
220	238	2
161	162	9
180	180	22
182	182	12
129	130	4
144	163	2
203	203	14
95	95	4
239	240	4
37	86	8
58	58	11
189	197	1
63	63	12
216	216	6
215	215	17
61	70	4
36	36	11
19	20	4
109	109	18
211	221	3
185	198	2
66	114	1
68	68	8
120	120	8
124	126	3
203	204	10
24	25	7
50	51	11
55	61	1
181	238	3
126	126	5
83	83	4
13	13	11
119	131	4
0	0	14
145	146	6
124	129	2
175	176	5
133	215	3
127	128	8
141	141	10
218	218	9
97	99	3
144	147	1
146	146	19
23	23	21
27	27	14
231	231	5
62	62	17
82	82	6
170	170	7
52	53	3
170	171	12
5	78	2
129	129	10
186	186	8
139	139	9
178	192	2
224	225	3
201	201	12
198	198	4
45	45	11
38	39	2
39	39	8
200	200	9
50	50	12
108	108	9
96	96	6
159	159	9
71	71	13
179	234	1
151	191	1
207	208	9
75	75	9
192	198	5
37	37	8
174	175	2
204	205	3
123	123	12
56	56	24
191	202	1
61	61	13
137	138	3
20	20	15
141	148	4
143	143	14
160	160	11
22	79	2
37	38	6
188	188	16
145	145	14
57	57	12
81	81	15
165	167	10
49	49	17
99	99	12
205	205	8
212	236	2
219	233	1
134	134	12
137	139	8
17	31	3
117	117	10
48	49	6
25	25	9
228	228	24
102	102	4
102	105	6
190	198	1
103	106	5
155	155	5
54	74	4
83	160	1
158	161	4
222	225	5
220	220	6
211	211	3
50	61	1
147	147	11
130	130	15
156	188	2
34	34	6
152	152	8
80	80	12
171	171	13
201	203	4
164	164	8
2	7	3
155	165	3
65	65	5
237	237	4
14	14	10
196	196	8
241	241	16
18	18	8
105	106	2
110	110	4
45	47	1
156	157	1
157	169	1
12	12	9
197	197	6
223	223	11
224	224	14
16	16	12
200	207	1
185	190	3
165	166	9
66	66	10
184	200	1
121	122	6
125	125	7
41	72	3
101	101	9
157	158	8
88	88	13
20	21	2
213	213	2
98	98	5
147	148	6
6	6	14
58	72	3
116	116	5
116	220	4
192	192	11
133	133	12
225	225	20
6	7	5
202	203	1
114	114	6
187	187	9
64	65	1
239	239	8
146	187	1
217	217	21
13	14	4
135	135	11
153	153	9
0	78	2
2	79	3
123	159	3
172	189	2
152	221	1
156	159	3
212	212	10
75	76	5
33	33	2
136	136	10
71	72	2
116	117	9
84	85	4
17	18	4
70	73	4
55	55	8
150	151	2
98	99	5
21	23	2
19	21	3
11	11	3
198	199	7
29	29	7
163	163	12
168	168	12
169	169	7
166	167	5
154	154	5
175	175	7
2	166	1
32	33	5
97	174	2
148	169	6
179	179	5
190	197	3
194	194	3
7	7	20
214	214	14
209	209	6
59	66	2
172	172	6
140	140	8
100	100	17
149	150	2
5	5	3
201	222	1
0	18	3
17	17	10
31	31	7
54	55	4
112	112	9
70	70	13
7	16	1
106	106	9
81	84	2
174	174	9
200	201	3
118	119	3
117	188	3
118	118	5
70	101	1
220	236	5
232	232	7
21	21	4
101	102	1
115	115	8
18	19	4
142	142	8
80	81	4
222	222	5
202	202	11
107	107	3
73	74	3
145	233	2
214	215	7
72	73	2
40	42	4
150	150	10
27	172	1
25	39	2
44	46	3
8	8	14
141	142	2
14	15	12
125	127	1
238	238	14
48	48	9
136	229	1
58	60	3
39	89	2
202	205	5
156	156	7
65	68	1
189	189	8
103	111	1
237	239	3
51	51	4
221	221	11
136	137	5
9	10	2
126	130	5
131	131	4
43	43	12
123	149	2
69	69	9
148	148	5
116	170	2
199	199	9
178	178	9
81	82	8
83	84	2
38	38	11
117	118	6
123	158	2
196	197	4
12	16	1
122	127	3
31	33	3
140	144	2
229	230	4
27	28	5
24	24	2
181	234	1
72	72	7
209	211	4
233	233	9
41	82	4
176	177	4
231	232	3
159	162	4
181	182	10
186	197	5
31	32	4
121	121	15
211	212	4
182	234	2
154	156	1
151	151	7
34	108	1
190	191	4
242	242	5
63	64	11
30	30	6
124	125	3
40	40	11
11	12	1
217	218	5
52	52	8
180	190	1
181	181	9
114	186	1
42	42	10
119	119	3
193	193	8
168	222	1
58	70	1
67	67	9
69	96	1
32	32	8
22	73	6
197	198	4
7	8	2
151	238	1
73	73	5
56	68	5
212	213	2
168	189	3
149	149	4
205	206	2
134	139	1
132	134	1
171	172	3
136	138	5
143	144	2
64	99	1
165	165	3
49	61	3
208	208	18
148	149	2
53	53	12
127	207	2
59	108	3
62	99	1
113	114	1
177	192	2
147	169	6
62	101	8
79	79	3
86	86	14
140	141	3
15	15	5
40	41	3
185	186	1
81	83	1
123	125	2
10	10	11
114	115	2
69	70	11
56	57	3
182	183	5
56	62	1
184	184	16
141	194	1
236	237	2
157	157	9
138	138	4
41	41	8
3	8	7
162	163	6
43	44	5
220	223	2
226	227	6
144	145	4
158	158	10
120	121	4
4	4	5
202	207	5
236	236	7
51	52	7
2	2	1
81	164	3
63	68	1
166	169	1
204	207	1
76	76	6
210	211	10
159	160	4
191	192	5
29	89	3
68	70	2
85	85	5
190	190	6
225	226	2
64	64	12
136	144	2
26	26	8
8	26	1
57	58	1
119	120	3
84	84	4
235	235	5
82	83	7
227	227	6
137	147	2
204	225	4
84	141	2
234	234	6
10	172	2
65	67	4
137	180	2
1	3	1
137	143	2
74	74	3
83	159	2
10	28	2
138	139	5
41	52	1
105	105	7
188	189	6
52	75	1
28	28	3
36	37	3
226	226	7
209	210	2
33	34	3
120	189	2
44	45	5
65	88	1
125	129	1
74	100	3
168	169	6
221	222	8
173	173	7
187	188	4
35	36	1
36	88	1
59	60	1
199	200	6
35	35	3
128	131	2
195	195	4
54	54	4
9	9	5
133	213	1
229	229	10
142	193	5
158	160	1
29	32	7
185	197	1
6	9	4
66	108	1
23	92	1
84	151	3
134	135	2
207	207	4
102	113	2
77	78	3
240	240	8
111	111	3
67	106	9
230	231	4
166	168	3
69	101	2
55	66	1
177	177	3
206	222	2
44	54	3
66	105	5
135	136	4
236	238	1
41	60	2
104	104	2
235	236	1
66	113	1
162	162	4
203	233	3
67	68	7
145	166	3
169	171	1
122	122	3
240	241	1
15	83	5
223	224	4
128	203	3
70	72	1
84	86	3
14	82	2
209	221	2
68	69	2
45	46	5
158	159	2
214	237	1
184	185	2
170	172	2
143	179	1
138	147	2
237	240	1
79	161	2
10	26	2
216	217	1
195	196	2
92	105	2
123	124	2
46	46	7
150	176	2
212	216	1
85	161	1
22	22	4
230	230	4
60	62	1
227	230	1
99	101	2
15	16	3
40	77	1
199	226	2
137	192	1
52	56	3
146	159	2
231	238	1
224	231	3
140	195	2
127	127	1
71	73	1
86	88	1
132	132	2
210	216	3
144	146	2
7	31	2
161	161	4
29	31	1
219	220	4
148	170	1
169	189	1
100	128	1
150	177	1
24	29	1
206	214	1
213	216	4
143	146	1
12	41	1
197	208	1
88	89	3
124	124	3
66	67	1
207	220	1
30	31	1
167	170	1
166	166	4
174	184	1
21	35	2
152	154	4
210	210	6
3	3	2
127	131	2
42	43	2
237	238	2
172	173	1
41	42	2
152	225	1
46	50	2
187	196	1
59	59	3
34	79	2
67	107	2
160	161	3
62	63	3
11	83	1
114	187	3
65	109	3
139	140	3
47	48	1
152	169	2
13	42	1
151	220	1
152	157	2
147	149	2
47	75	1
5	6	2
39	52	3
19	30	2
140	142	3
55	62	1
115	116	2
15	43	1
1	16	1
122	130	2
41	81	1
232	233	1
186	187	2
194	195	2
215	216	1
148	188	4
225	227	1
24	77	2
57	102	2
220	232	2
104	107	1
130	218	1
53	56	1
144	190	1
194	196	1
2	6	1
116	118	1
206	207	2
73	75	1
152	182	1
25	27	1
97	97	1
79	80	1
111	112	1
77	79	1
16	17	3
155	157	1
152	191	1
108	125	2
122	124	1
51	55	2
204	226	1
147	163	1
7	13	1
25	40	1
89	104	2
61	62	1
199	201	2
3	4	2
229	231	2
185	185	1
208	209	2
118	129	2
179	183	1
138	143	1
117	130	2
22	34	1
173	174	1
155	156	1
210	233	2
168	191	2
144	149	1
211	236	1
189	209	1
8	9	1
128	129	1
108	130	1
125	130	1
154	155	1
137	144	1
97	101	1
144	144	2
146	147	2
20	35	1
129	131	1
76	78	2
181	191	1
119	122	2
58	66	1
131	132	1
118	218	1
64	69	1
2	3	1
96	113	1
180	183	2
109	110	2
155	167	1
151	181	1
227	229	1
145	157	1
202	237	1
133	134	1
82	160	1
53	54	3
43	45	1
220	224	1
155	158	1
26	27	1
16	18	3
55	56	1
186	194	1
105	114	1
80	83	1
215	238	1
220	239	1
109	121	1
172	175	1
34	35	1
103	108	1
79	91	1
61	99	1
