30	30	4
175	175	6
160	168	3
103	103	5
17	17	8
18	18	7
52	56	2
156	160	1
81	81	16
65	65	8
147	147	3
44	202	5
97	98	7
37	37	11
88	93	4
78	97	1
41	42	1
214	214	9
70	70	8
86	86	4
28	28	10
221	247	3
104	107	4
83	186	5
173	173	8
0	225	1
23	23	10
16	25	1
48	72	2
77	77	4
170	172	5
188	188	10
34	34	8
7	8	1
5	5	3
73	97	3
20	226	5
6	6	13
175	178	4
70	92	3
98	107	1
19	19	15
246	246	4
20	21	2
107	117	2
166	207	4
98	98	5
1	1	4
169	169	4
217	217	11
111	113	11
237	239	2
218	218	6
170	170	7
189	189	4
240	240	17
116	119	2
6	30	3
236	237	6
194	194	16
47	47	5
8	10	1
7	7	9
45	45	14
228	228	3
161	161	8
11	11	17
175	179	2
192	192	6
120	120	3
165	168	3
146	147	6
204	223	5
47	111	1
41	41	13
173	174	3
109	109	5
201	211	1
171	173	3
92	94	2
208	228	2
80	97	4
94	94	14
203	203	10
171	174	3
29	29	3
180	181	2
118	118	8
3	3	2
213	214	6
38	38	3
101	101	2
197	211	3
218	219	6
84	84	13
238	244	4
61	67	1
112	113	4
78	78	11
187	192	4
28	35	3
151	151	4
152	157	4
88	94	2
12	12	5
43	47	6
208	208	7
20	20	12
222	222	8
208	209	4
68	68	8
59	59	8
196	196	11
26	26	7
199	200	8
144	145	4
121	121	4
164	164	6
88	88	8
227	227	5
39	39	6
14	14	8
235	236	1
212	212	11
25	25	12
179	179	4
221	223	7
107	119	1
206	206	2
177	181	1
216	225	1
90	91	9
224	228	3
79	115	3
55	65	3
62	62	7
171	171	7
66	68	2
158	166	1
216	216	10
219	219	7
110	121	3
66	69	1
179	219	1
22	28	3
20	57	2
166	166	5
69	74	3
36	39	1
157	177	2
215	215	4
150	150	10
69	98	7
51	51	2
187	187	2
74	98	2
56	56	6
186	186	5
169	175	4
86	87	7
234	234	3
100	100	9
237	237	4
190	192	2
44	44	6
79	104	1
50	50	6
20	71	3
174	174	4
223	223	3
224	224	9
116	117	5
47	65	4
93	93	3
76	76	7
82	82	13
87	118	5
182	182	3
210	210	6
198	204	1
72	72	6
157	159	2
198	198	13
207	207	8
32	32	15
102	165	4
192	219	2
104	162	3
35	38	1
83	83	4
191	196	8
241	249	3
200	205	3
191	191	2
186	188	3
96	96	5
216	218	2
74	74	2
101	105	2
209	209	6
63	63	6
185	185	10
42	48	2
160	160	8
98	106	1
56	58	4
202	203	1
163	163	5
241	241	9
204	204	5
33	33	8
248	248	5
213	215	3
230	230	4
4	11	2
245	249	4
207	208	2
218	225	3
20	48	2
106	106	5
79	79	5
119	119	3
109	117	4
203	233	1
243	243	7
222	223	6
62	66	2
200	203	2
199	208	3
234	237	4
87	87	4
58	64	2
16	16	7
162	162	10
73	90	7
111	111	8
38	40	1
205	205	7
37	38	1
177	177	9
36	36	9
58	60	1
105	106	1
10	10	3
233	234	2
50	70	1
228	230	4
156	200	1
57	57	10
180	180	10
151	152	2
238	239	1
51	53	1
56	60	3
160	180	2
150	153	2
15	35	3
4	5	5
31	31	6
40	40	10
52	52	2
244	246	3
80	95	3
243	247	1
245	245	2
167	169	2
156	156	6
163	166	1
8	8	13
52	53	1
76	98	4
201	201	9
42	42	11
43	115	2
181	190	4
114	114	13
67	67	8
204	235	1
159	159	7
229	229	6
110	206	1
51	70	2
24	24	5
117	117	6
86	96	2
150	154	3
113	119	1
116	116	4
113	113	6
111	118	3
213	213	6
64	64	5
96	101	1
95	95	4
112	112	7
232	246	1
154	162	3
47	55	3
200	201	4
20	229	1
200	200	2
238	247	2
195	195	4
183	184	3
118	119	8
5	11	6
92	92	7
7	15	2
83	84	3
2	3	2
238	240	2
229	230	9
188	191	3
42	47	2
233	237	3
217	225	1
211	212	1
68	70	2
55	75	3
193	220	3
108	108	3
238	238	9
66	70	2
61	61	5
152	177	2
176	176	4
175	217	3
9	9	6
231	231	8
100	101	2
35	35	4
79	86	2
157	171	4
152	152	2
196	207	2
172	172	5
244	244	4
168	168	5
162	166	1
225	225	1
204	209	2
63	66	3
53	53	6
39	40	4
193	195	2
27	28	1
90	109	4
232	248	2
198	209	4
163	165	1
57	72	2
166	167	1
228	233	1
104	112	1
153	153	10
46	46	9
56	57	3
181	181	1
22	29	1
188	189	5
167	167	11
114	115	3
155	155	9
192	196	4
172	190	7
163	164	2
210	211	1
202	202	8
212	246	1
245	246	2
75	75	3
193	222	3
27	27	7
240	245	1
42	43	5
69	69	4
90	108	4
145	145	2
191	194	1
19	20	3
183	189	1
40	41	2
86	119	1
207	209	2
80	80	4
85	85	4
214	225	5
47	75	1
82	87	1
107	115	2
197	197	2
178	178	5
235	235	2
232	233	1
30	33	1
102	113	2
154	154	4
15	26	1
190	190	6
199	199	1
12	15	3
177	210	2
193	211	2
41	44	3
55	55	5
213	226	2
21	24	2
49	49	3
158	160	3
233	233	1
220	220	4
102	103	4
110	110	6
48	53	1
245	247	3
227	240	2
36	37	2
75	77	1
204	225	1
91	91	6
91	92	1
95	96	1
71	227	1
88	89	1
21	21	1
180	190	2
211	219	1
108	119	1
104	119	4
10	14	1
78	79	4
239	239	2
170	179	1
111	112	2
36	38	1
90	90	2
50	55	2
74	75	1
93	94	1
197	209	2
15	16	4
159	169	1
158	158	3
16	22	1
110	156	1
190	194	2
242	242	2
193	196	1
68	71	2
157	200	1
79	119	3
79	80	1
9	28	2
232	232	8
58	59	1
27	40	1
201	227	1
200	226	2
182	184	3
179	180	1
102	102	3
49	64	2
24	25	1
170	171	7
184	185	3
110	112	1
66	66	3
47	60	2
192	197	2
35	36	3
230	231	2
195	245	2
155	197	2
25	27	1
115	115	2
97	97	5
17	19	1
150	161	1
61	62	3
92	96	1
243	244	3
115	153	2
222	224	2
88	91	4
99	99	9
32	33	2
168	169	2
196	208	1
198	207	2
211	211	3
73	73	4
226	226	2
6	7	3
28	29	1
104	105	5
231	247	2
197	208	2
226	231	2
66	71	2
214	246	1
20	76	1
67	96	2
213	239	1
197	245	2
113	114	1
240	241	1
54	55	3
78	85	1
72	87	4
43	45	1
165	165	4
229	233	2
209	221	1
220	246	2
213	217	2
50	57	1
186	189	2
196	213	1
104	104	2
192	194	2
193	193	1
8	14	4
80	84	1
78	98	2
226	227	2
4	29	1
89	92	2
178	179	1
96	100	1
3	29	1
174	191	1
146	149	1
50	76	2
181	187	2
101	114	1
5	12	1
64	72	3
149	229	1
193	194	2
187	188	1
69	70	2
71	72	2
195	212	2
219	236	1
200	224	1
102	119	2
13	13	1
67	68	1
184	184	4
183	183	1
173	192	1
196	197	1
7	30	1
198	224	1
44	45	1
228	231	2
48	50	1
226	249	2
172	174	2
160	204	1
241	243	1
238	246	1
173	190	1
89	90	1
112	119	1
17	18	1
111	115	1
231	232	1
75	76	1
49	50	4
225	241	1
58	58	2
94	98	2
107	107	1
213	227	2
153	154	1
236	246	2
54	54	1
76	77	2
187	196	1
15	15	1
241	242	2
213	221	1
86	111	1
29	34	1
174	194	1
238	242	3
201	226	1
58	72	1
53	65	1
213	216	1
204	205	4
200	234	1
108	116	1
178	180	1
97	106	1
219	233	2
50	65	1
214	226	2
80	96	1
106	153	1
54	63	1
66	67	1
151	160	1
43	43	1
177	179	1
31	33	2
101	113	1
196	210	1
193	214	1
48	48	1
16	17	1
155	156	1
236	236	2
105	107	1
236	239	1
27	33	1
41	43	2
192	213	1
3	7	1
26	37	1
197	213	1
26	38	1
196	211	1
81	84	1
76	79	1
18	19	2
157	180	1
22	23	2
165	167	1
164	165	1
80	81	1
151	158	1
69	93	1
110	119	1
239	240	1
53	54	1
82	85	1
231	248	1
154	180	1
182	186	1
87	95	1
217	224	1
