121	121	14
0	2	2
17	17	23
19	19	9
29	29	6
85	101	3
59	59	5
131	131	4
35	35	10
53	53	6
37	37	19
68	68	15
102	103	1
97	97	8
63	63	3
47	47	12
39	39	4
28	102	2
82	82	3
60	60	11
1	3	3
110	113	2
113	113	8
109	123	2
142	142	9
135	135	6
130	131	5
18	19	2
38	39	1
96	104	2
30	30	11
71	71	14
120	120	2
54	76	3
117	141	3
40	40	13
59	60	8
103	103	5
54	55	4
54	54	3
69	69	7
96	105	3
27	28	5
91	103	1
42	42	9
118	125	1
70	70	6
26	26	13
137	140	2
94	94	4
101	101	10
34	34	3
114	114	6
18	53	6
18	18	3
8	8	5
35	48	1
31	32	7
98	98	8
6	6	4
113	114	2
92	93	4
140	141	3
129	130	1
88	88	10
62	62	12
78	78	12
93	93	4
32	32	2
28	29	10
105	105	8
68	71	3
118	119	1
76	77	2
35	47	3
74	75	4
35	43	1
113	126	5
33	33	6
141	141	4
86	86	4
90	93	2
80	81	2
29	102	2
21	21	6
86	102	1
22	79	3
40	41	2
108	108	10
36	47	3
35	36	6
41	41	12
132	132	12
87	87	10
55	55	3
3	21	4
88	89	4
97	98	3
123	123	7
76	76	15
64	65	8
31	31	5
61	61	5
110	110	2
74	79	2
66	66	4
122	122	9
142	143	4
125	125	9
70	73	1
134	134	2
51	52	3
24	24	2
117	117	9
72	72	8
78	79	1
119	119	1
59	94	4
97	127	3
130	130	4
128	128	5
100	100	7
56	62	2
99	102	1
83	83	4
71	73	4
119	124	4
93	102	3
65	65	5
19	20	1
34	35	3
60	61	2
69	71	2
23	49	2
145	145	6
1	1	5
124	125	1
22	22	15
0	0	3
134	138	4
23	74	3
76	88	4
115	115	5
48	48	2
99	101	4
128	129	5
49	50	3
83	86	1
52	52	1
3	3	2
12	12	4
137	137	3
66	70	1
89	89	2
4	6	2
146	146	2
58	90	1
62	64	2
91	91	3
75	75	3
96	96	4
17	48	1
129	129	3
80	80	3
46	46	1
132	133	1
79	79	7
56	56	2
38	38	2
49	53	1
110	111	1
127	127	4
112	113	3
23	40	2
92	105	1
116	141	2
10	10	2
91	95	1
112	131	1
90	91	2
56	57	2
11	27	1
1	2	1
58	88	2
104	107	4
2	6	2
0	1	1
50	51	2
77	77	3
51	55	1
109	109	2
36	36	3
63	64	2
67	67	4
50	54	4
144	144	6
15	15	1
15	25	2
135	137	1
122	123	5
58	58	3
89	91	2
65	66	2
84	85	2
14	28	2
133	133	5
102	102	2
103	104	2
104	104	1
2	2	2
94	95	1
92	92	2
47	48	1
35	56	5
16	16	4
20	21	2
2	11	2
41	48	2
106	107	1
79	80	2
27	27	2
63	65	2
49	52	2
92	94	1
49	49	3
76	82	1
71	72	2
81	101	1
124	124	2
25	26	2
138	139	1
13	17	4
37	48	2
118	122	1
139	139	2
78	80	1
51	51	1
73	75	1
109	111	3
43	43	2
136	138	1
99	99	4
120	121	3
70	71	1
11	18	1
11	11	3
5	5	1
106	109	1
99	127	1
9	9	2
11	24	1
128	130	1
108	112	1
66	67	2
112	127	1
78	81	1
73	73	2
105	106	1
101	102	2
10	11	1
84	84	1
86	93	1
2	3	1
89	90	1
90	94	1
103	108	1
113	116	2
49	51	1
86	96	1
98	100	1
126	128	1
28	28	1
107	107	1
79	81	1
77	101	1
