124	124	3
2	2	6
96	113	5
77	107	4
11	15	2
48	48	5
68	102	2
129	130	2
107	107	6
113	113	4
44	44	5
25	25	2
79	118	5
5	5	3
130	140	3
12	12	10
140	140	4
64	107	4
158	158	4
118	118	2
151	151	5
36	36	5
126	126	3
8	125	6
14	14	3
131	131	2
83	83	3
140	148	4
84	84	1
95	125	1
38	39	2
26	26	2
93	96	1
18	20	5
72	73	3
113	115	3
129	129	7
155	157	6
25	39	5
138	138	4
121	121	3
6	34	1
0	0	4
76	77	1
152	152	2
40	41	2
32	32	5
94	94	5
10	10	2
0	1	3
6	73	3
6	33	1
134	137	6
29	30	4
63	63	4
19	19	4
0	31	4
114	114	7
1	44	2
93	94	5
95	126	1
154	154	1
18	18	7
128	128	9
118	122	2
137	137	5
67	69	2
9	124	1
46	46	6
126	127	3
13	14	1
57	57	4
8	54	6
3	4	3
69	69	1
40	43	1
62	62	2
47	50	7
54	55	1
31	35	3
72	72	3
6	64	9
0	32	2
120	120	9
86	86	3
124	126	2
96	96	2
119	120	2
87	87	1
40	40	11
33	61	1
127	127	5
54	54	4
43	43	2
155	155	1
82	82	3
81	81	1
142	142	4
75	75	5
136	145	1
95	96	5
132	132	7
131	133	5
3	3	6
130	130	5
88	89	1
7	8	4
123	124	2
125	126	3
26	29	2
29	29	5
10	64	5
77	77	3
98	98	2
73	73	8
7	54	2
33	33	3
16	17	2
91	91	3
34	34	1
26	27	1
50	51	1
89	91	3
6	6	5
79	81	2
147	147	4
37	37	8
53	53	2
148	148	3
155	158	2
41	41	2
128	139	4
52	52	3
131	132	1
42	42	8
65	65	1
49	52	4
4	130	1
134	134	5
18	19	3
16	90	1
55	55	2
150	150	2
46	50	3
27	27	3
49	49	2
20	20	3
144	144	1
13	91	2
108	109	1
99	99	4
21	21	1
92	92	4
119	119	5
123	142	2
135	135	3
12	14	2
103	103	1
67	106	1
100	100	5
156	156	3
90	90	1
35	35	2
6	119	2
30	43	1
16	87	1
67	68	3
83	86	1
25	27	1
113	114	1
103	104	1
70	150	1
132	133	1
112	113	4
49	53	2
11	91	1
23	24	2
56	56	1
70	71	1
78	157	1
104	104	1
62	63	1
15	15	1
98	130	3
107	122	2
154	155	2
71	123	1
16	16	2
22	22	1
47	47	1
40	45	1
1	2	1
153	153	1
9	133	1
147	148	1
116	116	1
79	79	1
135	136	2
105	105	1
69	151	1
97	97	1
50	50	1
128	129	1
56	82	1
133	133	1
9	9	1
100	101	2
111	111	1
15	88	1
98	132	1
63	64	1
120	122	1
30	30	1
39	39	3
1	1	1
65	106	1
45	45	1
76	76	1
