98	98	7
119	134	5
10	10	5
5	5	11
11	11	18
31	32	4
119	119	9
14	14	7
74	74	9
64	91	3
59	134	5
23	23	6
58	58	11
55	56	1
77	77	10
14	28	1
0	25	7
119	120	4
97	97	3
54	54	10
80	80	13
69	69	9
89	90	2
100	101	9
130	130	10
125	126	5
11	36	3
45	74	1
7	8	1
61	102	2
59	106	4
56	57	6
135	135	1
122	123	7
125	125	5
25	25	9
79	79	12
76	133	1
12	35	2
9	33	6
3	3	6
130	132	8
77	78	12
85	85	10
100	100	4
26	26	14
20	21	5
116	116	8
62	62	4
120	120	11
95	95	10
116	118	8
38	38	1
50	53	9
4	5	1
62	63	3
29	31	1
51	51	1
13	30	2
124	124	2
37	37	4
9	9	8
32	79	1
98	99	4
82	97	1
0	55	1
129	129	15
56	78	2
34	34	9
5	24	2
56	77	2
61	61	7
86	86	5
6	18	2
80	86	4
75	75	7
43	43	16
3	10	4
117	117	10
82	82	8
29	116	3
63	66	1
9	10	1
7	7	7
32	58	1
78	79	3
36	37	5
9	11	5
2	2	11
109	110	2
10	11	2
45	109	3
103	103	14
49	49	8
113	114	3
93	121	3
94	94	6
4	4	15
67	67	8
52	52	10
95	114	4
71	77	6
126	131	1
45	103	2
28	28	11
48	88	1
109	122	2
126	126	7
106	106	10
118	118	10
50	63	3
70	70	7
130	131	5
85	87	2
99	101	1
65	65	9
134	135	1
65	66	5
102	102	5
96	106	3
56	56	5
30	31	2
32	33	2
127	127	8
124	125	5
113	113	13
110	131	2
13	13	7
85	100	1
53	67	3
29	37	1
32	32	5
55	55	3
17	20	4
104	104	6
108	134	3
3	4	7
111	111	6
0	0	5
35	35	4
123	123	11
53	53	9
101	101	4
0	16	3
14	27	1
65	81	1
78	78	8
57	76	4
105	105	6
33	33	3
126	128	2
12	13	2
1	24	1
1	12	3
44	80	2
94	115	3
28	29	3
12	12	8
19	21	5
134	134	10
27	28	5
93	94	6
71	127	3
19	19	4
124	135	3
27	27	11
64	64	9
5	6	3
83	84	8
29	29	5
97	98	1
65	68	1
76	84	2
72	78	2
118	128	4
88	102	2
93	93	2
61	64	5
83	83	6
81	81	2
76	77	1
59	59	6
77	79	2
133	133	8
17	29	2
75	85	3
1	1	7
15	15	4
23	24	2
96	108	3
86	113	4
53	83	2
21	22	1
62	91	2
59	113	2
97	121	4
44	48	1
76	76	5
120	123	1
9	36	5
66	66	3
84	84	4
57	57	4
47	47	5
62	75	1
91	101	1
15	122	2
59	123	1
5	29	3
43	69	3
127	128	4
92	126	2
48	48	1
50	60	2
92	92	4
100	135	2
73	82	3
112	120	1
114	130	3
95	105	2
48	87	1
82	106	2
117	118	4
31	57	3
21	21	7
31	31	6
86	87	1
22	22	5
52	53	3
59	66	2
131	131	3
97	104	1
49	50	2
81	102	2
50	88	2
116	134	1
84	110	1
11	12	2
11	21	2
27	44	2
107	107	3
122	122	8
12	71	6
115	115	1
119	130	3
50	50	8
73	73	6
96	97	2
15	22	4
94	95	2
89	89	3
59	61	2
3	26	4
91	92	3
16	30	5
115	132	2
22	23	2
30	30	9
87	87	3
102	103	1
3	37	2
82	87	1
96	96	1
123	134	3
6	13	1
37	49	2
108	108	2
131	133	3
2	8	1
1	2	1
36	36	2
113	115	2
110	113	4
105	130	3
74	75	1
68	68	4
8	9	1
106	111	1
116	131	3
12	16	3
5	25	2
106	107	2
126	127	4
66	85	3
6	6	1
10	37	7
32	66	3
87	112	2
94	99	1
104	105	1
132	133	2
90	90	3
57	61	2
50	56	1
7	10	1
128	128	3
129	131	4
85	86	2
24	24	2
17	17	3
111	125	2
30	73	2
56	73	3
11	24	2
88	88	3
5	30	1
94	113	2
69	95	1
61	62	3
54	58	2
113	126	1
45	45	4
24	25	1
76	108	1
44	50	2
87	108	2
72	72	2
117	120	4
104	118	3
110	110	3
79	106	1
84	85	2
85	118	2
98	133	1
99	100	1
77	85	1
6	14	1
18	21	1
86	90	3
42	67	1
95	97	2
18	43	1
15	24	1
60	60	1
107	110	1
13	21	1
63	63	6
121	127	1
67	69	1
30	128	1
78	127	2
6	33	1
88	94	1
47	48	1
67	68	2
119	121	1
71	107	1
59	109	1
73	107	3
0	3	2
71	72	2
21	24	1
61	83	1
63	64	3
76	78	2
121	122	1
44	44	2
113	128	1
13	14	1
44	45	1
91	114	1
27	29	1
54	55	2
64	80	1
20	20	2
99	99	2
47	70	1
84	88	1
49	82	2
121	121	2
119	129	1
81	112	1
58	91	1
4	19	1
49	53	1
112	112	2
112	114	1
48	70	1
15	35	1
93	97	1
70	71	1
42	43	1
84	87	1
2	5	1
90	101	1
