112	116	1
185	185	5
127	141	2
118	119	6
102	102	9
27	27	1
149	167	3
113	114	1
119	119	5
112	123	1
162	163	4
60	60	5
49	49	4
59	59	2
38	38	4
58	58	2
130	131	8
52	55	2
34	35	2
48	48	2
145	145	2
31	32	4
180	180	1
98	133	1
16	16	1
22	23	2
120	120	8
6	6	2
83	84	2
33	33	5
1	1	1
40	41	3
175	175	3
21	150	2
75	80	4
163	180	1
19	147	2
6	25	1
81	82	1
191	191	4
4	4	2
183	183	3
87	140	2
122	122	7
93	93	1
114	116	4
0	5	1
81	81	3
35	35	10
58	59	2
188	194	1
26	26	2
172	172	3
97	109	1
25	27	2
37	85	3
148	148	8
17	37	1
63	63	3
50	51	1
3	3	9
34	34	3
24	25	5
98	98	11
171	171	6
163	163	3
126	127	1
35	36	1
168	168	3
17	17	3
140	140	2
14	14	1
46	46	1
82	82	2
30	31	1
138	138	5
163	164	3
95	121	1
85	141	2
176	176	2
54	139	2
42	42	3
173	179	4
111	111	2
6	23	2
61	61	1
69	69	4
196	196	2
55	57	1
173	176	2
110	110	6
96	96	3
109	120	2
98	105	3
32	32	4
41	41	5
142	142	4
108	152	2
22	22	4
166	167	6
47	48	1
134	134	10
19	19	4
153	153	3
78	81	2
37	38	2
84	85	3
89	89	5
173	188	2
37	37	1
127	127	1
20	166	2
135	135	7
52	52	3
21	21	2
29	29	4
107	108	2
79	79	6
3	7	1
62	75	1
61	69	3
129	129	6
190	191	1
177	177	5
65	66	2
84	84	1
25	25	3
51	51	2
144	144	3
74	76	1
82	134	4
20	21	4
190	192	3
39	141	3
14	190	2
0	16	1
128	141	1
151	152	2
179	185	2
154	157	3
62	63	1
52	53	2
66	71	1
78	78	7
98	102	1
34	143	1
115	126	1
20	148	2
18	18	4
129	131	2
174	176	2
154	155	2
29	43	2
1	7	1
104	108	2
67	67	6
11	11	4
126	130	5
13	13	3
168	169	1
68	90	4
147	147	2
28	28	5
3	8	4
10	10	1
74	74	2
99	133	1
182	182	4
60	69	1
179	179	3
118	118	3
164	165	1
109	109	2
4	17	2
192	192	2
126	159	4
67	90	2
114	115	1
76	76	1
149	149	3
44	89	2
107	107	2
44	45	1
155	156	4
45	45	1
20	20	2
10	38	1
36	36	4
165	166	1
96	122	1
160	160	1
151	151	3
139	139	1
15	15	5
135	138	2
123	124	2
121	122	2
184	184	1
137	137	3
177	178	4
105	107	2
7	23	2
112	156	1
75	75	1
7	7	2
181	181	6
148	151	1
132	133	1
30	37	2
18	19	3
194	194	2
79	123	1
3	18	3
64	69	1
117	118	3
0	25	1
106	106	2
125	129	2
16	150	1
143	143	2
31	37	3
72	72	3
70	71	2
175	187	2
115	155	2
30	30	2
111	123	2
130	130	1
116	116	3
143	145	1
106	108	1
44	46	2
96	100	1
31	31	1
121	121	1
189	189	2
5	15	1
77	77	3
62	137	1
188	188	2
60	65	1
80	81	1
171	174	1
126	126	2
187	187	1
36	37	3
83	102	1
82	85	1
153	154	1
128	133	3
80	94	3
143	147	3
166	166	2
47	47	1
88	88	2
23	23	2
174	174	1
13	14	4
78	79	1
161	161	1
2	2	4
167	167	4
104	107	1
115	115	1
85	127	2
158	159	2
82	84	2
132	146	1
61	62	1
80	80	2
9	9	1
195	195	2
136	136	3
51	55	1
139	140	2
53	53	1
71	71	2
9	37	2
56	56	1
5	21	1
150	166	2
146	146	3
154	154	1
86	86	4
54	55	2
50	50	1
70	70	2
131	131	2
90	90	1
60	61	2
41	46	1
8	9	1
13	192	1
104	104	1
113	113	2
156	157	1
171	187	1
17	145	1
73	74	2
44	140	2
103	103	1
186	186	2
43	43	3
65	65	1
109	111	1
55	55	1
176	177	2
162	162	2
12	13	1
32	44	1
44	44	2
20	150	2
128	129	1
173	173	1
5	17	1
123	123	1
148	152	1
95	96	1
119	120	3
113	159	1
165	191	1
193	194	1
53	54	1
180	182	1
171	173	1
157	158	1
68	89	1
