114	114	2
120	120	6
102	110	6
84	84	9
131	131	7
3	3	5
79	92	2
10	10	1
73	80	3
49	49	4
50	50	12
122	122	6
5	5	2
96	96	5
39	39	3
119	130	6
83	91	4
94	94	6
102	102	9
92	92	6
26	113	1
95	96	3
24	96	3
127	133	3
50	54	6
44	62	4
124	124	8
54	54	1
21	22	1
130	130	2
59	59	8
20	32	1
15	15	4
56	56	8
112	113	1
47	47	15
28	103	3
79	79	5
90	90	5
69	79	3
24	24	8
0	0	2
117	117	5
9	10	4
40	40	2
57	58	4
116	118	5
62	63	2
8	64	1
111	111	3
53	123	5
55	56	3
76	76	10
81	81	11
118	118	6
6	7	1
58	58	4
103	107	3
17	18	6
43	43	5
17	17	3
45	45	5
54	75	1
123	124	3
127	128	4
2	2	4
13	16	3
20	20	4
33	103	1
58	59	4
25	26	4
129	130	2
38	41	2
63	63	4
10	40	5
43	47	1
93	93	1
127	127	4
4	4	6
61	84	1
77	77	3
73	73	5
12	12	5
48	48	6
33	33	5
23	23	2
44	44	12
78	118	3
123	123	4
120	121	3
28	28	5
100	100	2
116	116	6
110	110	7
89	89	2
41	41	5
30	30	4
27	27	1
104	105	3
13	13	5
83	83	3
126	126	8
62	62	3
86	88	1
28	105	2
50	51	3
7	8	2
62	131	2
83	92	2
52	53	5
52	52	4
18	18	7
64	64	2
41	118	1
53	53	3
95	98	1
19	73	2
105	108	3
11	67	3
112	112	6
87	87	3
1	1	4
85	85	5
11	24	1
5	11	2
16	18	1
115	115	4
121	121	7
75	75	5
102	103	1
57	77	1
27	31	1
113	113	4
60	62	3
1	7	1
120	122	4
6	6	4
117	119	1
125	126	1
68	68	2
81	82	2
112	123	2
78	79	2
29	30	3
22	40	1
66	66	3
10	11	3
68	69	2
125	125	3
44	45	1
107	109	1
107	107	2
47	54	1
111	122	3
100	126	3
53	54	1
69	69	5
51	51	3
106	106	1
14	14	3
31	31	1
8	8	7
75	117	1
4	9	2
30	33	1
9	59	2
60	96	3
117	121	2
66	74	1
82	82	4
72	74	2
33	102	4
45	119	1
129	131	1
47	127	2
44	73	4
80	88	2
60	75	3
129	129	5
87	88	1
46	47	4
55	55	4
0	113	1
52	76	1
54	69	3
2	58	3
9	9	2
101	107	2
89	93	1
19	19	3
101	102	1
46	46	4
10	42	1
43	119	1
34	34	2
78	78	2
43	74	2
98	99	1
45	126	1
74	74	3
21	31	1
18	33	1
1	12	3
103	103	4
67	68	3
88	88	1
11	11	2
65	126	1
116	117	3
25	25	2
74	81	1
72	72	1
26	112	1
61	61	2
104	104	1
126	133	1
119	125	1
104	107	1
42	120	2
32	32	1
6	8	1
16	16	2
74	80	1
43	61	1
83	106	1
21	21	1
89	90	1
49	54	1
31	32	1
21	29	1
73	74	1
101	101	1
12	13	1
23	24	1
86	87	1
97	97	1
71	91	1
132	132	1
60	65	1
