89	89	9
101	102	2
94	95	3
17	19	2
134	134	4
127	127	4
91	92	3
30	30	7
101	101	5
34	34	2
74	108	2
73	74	3
19	19	3
28	28	3
104	107	3
138	138	7
103	103	4
136	136	7
139	139	6
117	117	4
118	118	3
132	132	7
83	111	3
140	140	2
9	9	3
98	98	5
21	21	9
99	100	8
10	10	7
3	7	2
78	78	5
19	75	4
16	16	7
12	12	3
96	96	3
128	128	11
90	90	7
92	94	3
35	35	7
25	25	3
2	127	3
72	72	2
127	128	2
120	121	1
71	71	8
8	8	1
90	108	4
13	13	1
80	80	6
19	23	2
122	122	2
137	137	1
119	119	3
90	96	6
36	37	2
117	124	4
6	7	2
2	2	6
114	115	1
27	32	5
20	20	3
17	17	3
115	115	8
24	26	5
95	95	3
66	78	2
27	27	2
81	81	7
81	121	2
4	4	5
77	103	2
121	121	3
133	133	5
3	15	1
97	97	4
1	1	3
129	129	5
111	112	3
114	114	8
88	88	3
79	80	1
33	34	2
135	135	2
80	81	6
102	102	1
71	72	3
119	120	1
97	130	1
33	33	4
31	31	2
6	6	5
35	36	4
15	15	3
124	124	7
101	125	2
32	32	1
92	92	3
87	88	4
4	25	1
75	75	2
20	23	1
74	74	3
125	125	11
5	5	1
131	132	3
27	30	1
22	22	7
91	91	6
122	123	3
0	127	3
131	131	4
83	85	2
73	73	7
22	31	2
76	77	3
110	111	2
116	117	2
120	120	8
111	111	2
120	122	4
27	28	1
22	23	2
14	37	2
123	123	2
3	74	1
118	119	4
93	94	2
12	37	2
26	26	2
20	106	1
77	106	2
86	86	3
130	130	3
0	0	1
107	107	4
103	104	1
101	111	2
36	36	3
99	99	6
28	78	2
108	108	3
23	23	2
11	11	2
13	36	2
88	90	4
13	14	1
3	3	2
27	29	3
18	18	3
72	74	2
88	126	3
116	116	2
11	12	2
118	122	2
21	75	1
6	9	1
31	32	1
85	85	1
105	106	1
83	83	1
15	20	2
125	127	2
4	5	2
32	95	1
23	24	3
106	107	1
86	87	1
112	113	1
119	121	1
14	14	1
9	12	1
5	75	2
7	37	1
104	104	1
77	104	1
35	95	1
130	131	1
109	109	1
29	29	1
24	24	1
87	87	2
78	109	1
24	25	3
3	18	1
93	93	1
77	77	1
8	14	1
121	125	1
80	82	1
3	16	2
86	108	1
101	126	1
15	18	1
110	110	1
