2	2	11
15	16	4
51	51	15
46	57	2
113	114	5
0	1	5
4	4	7
27	27	13
56	56	25
92	102	1
101	106	3
33	34	7
120	120	26
97	98	10
95	96	9
5	7	6
1	1	9
116	116	3
24	26	7
70	70	3
16	16	4
61	70	3
67	67	6
113	113	11
29	30	8
76	127	5
3	3	13
115	116	3
4	5	3
60	73	1
108	108	16
20	20	5
14	14	9
64	65	3
94	132	1
14	55	1
80	84	2
63	64	10
91	91	8
120	121	3
128	128	8
112	113	9
23	23	3
62	72	7
72	72	7
18	21	4
6	66	9
121	122	1
86	86	4
107	107	8
122	133	4
54	54	24
10	10	8
33	33	8
41	41	7
15	15	12
56	94	4
8	8	4
51	52	6
6	7	4
105	106	5
133	133	8
56	57	2
24	24	8
4	38	2
69	69	5
111	111	13
52	52	11
38	48	1
49	49	14
58	59	1
124	124	10
25	27	3
115	115	5
7	7	7
64	75	4
130	130	1
43	43	6
21	26	2
106	106	8
13	15	2
5	5	4
17	17	6
28	28	7
63	63	9
101	101	5
109	109	11
99	99	4
26	26	7
88	88	8
94	95	2
4	48	3
20	24	2
132	132	7
62	69	3
69	71	2
55	55	4
14	16	6
94	94	17
79	79	11
1	53	5
72	73	2
62	62	3
47	47	5
39	40	3
74	130	4
30	30	6
32	32	7
68	68	6
10	18	4
77	77	9
92	92	5
103	104	3
80	80	2
53	53	7
75	75	5
100	100	5
76	76	11
19	21	1
46	46	17
6	6	17
82	82	3
85	86	2
44	44	5
5	47	9
0	0	10
27	28	3
63	75	5
94	122	2
42	43	4
8	48	1
129	130	3
83	83	1
85	85	10
2	15	1
122	122	9
129	129	4
123	123	9
25	25	7
119	119	6
126	127	3
84	106	2
18	22	1
16	17	2
59	65	2
117	118	1
126	126	4
74	74	3
128	129	2
102	104	2
8	9	3
9	10	5
50	50	16
129	131	1
50	51	3
38	39	1
112	112	11
9	9	2
87	88	7
39	39	2
121	121	12
59	68	2
60	60	6
66	66	5
93	94	10
64	64	4
95	98	4
54	55	4
131	131	4
101	111	3
87	130	3
59	62	2
90	97	1
57	57	7
117	117	6
23	26	2
48	48	7
53	54	2
12	12	6
97	99	2
15	33	2
31	32	3
57	98	2
88	127	1
109	111	2
89	89	3
22	23	3
102	102	5
12	13	3
51	53	2
69	70	4
27	29	2
59	59	6
118	118	4
89	96	3
131	132	1
95	95	5
43	90	2
124	125	2
90	99	2
9	24	1
65	98	4
105	105	7
11	12	2
25	28	7
75	91	3
38	38	6
58	58	3
110	110	8
95	99	2
9	11	2
91	92	2
93	93	7
104	105	4
59	60	1
102	103	3
96	96	5
19	19	9
57	96	3
71	71	1
73	73	1
81	107	1
31	31	3
125	126	4
17	32	1
11	11	8
123	124	2
65	66	5
40	40	4
45	45	8
74	91	2
98	99	5
104	104	5
45	90	2
105	107	1
70	71	1
58	64	4
102	105	1
1	2	3
100	111	1
61	73	2
3	13	2
67	68	2
127	128	2
81	82	1
49	126	1
63	72	1
61	69	2
61	61	2
7	20	3
75	93	3
88	125	2
114	114	2
103	103	3
78	79	4
2	13	3
22	22	5
90	90	4
83	108	1
116	117	2
58	66	1
32	49	2
25	26	4
1	12	1
8	32	2
51	54	1
75	99	1
4	19	2
46	98	1
68	69	1
20	21	1
29	29	2
78	78	1
74	75	3
29	31	3
125	125	5
65	65	5
87	87	2
127	127	2
38	47	2
18	18	1
5	48	1
81	81	1
114	117	2
21	34	1
7	68	3
58	98	1
119	121	1
42	42	1
122	125	1
64	98	1
83	84	1
96	97	1
23	24	1
2	51	1
116	121	1
80	83	1
92	131	1
127	131	1
82	103	1
48	56	1
111	121	1
9	23	1
10	11	1
83	85	1
5	6	1
60	68	1
