69	71	3
100	100	10
66	68	4
87	88	7
90	90	10
72	72	11
58	59	5
53	61	2
49	50	3
89	106	4
48	48	18
59	60	4
23	23	17
25	26	6
63	63	12
68	68	5
26	27	4
38	38	9
60	60	10
77	103	2
20	21	3
73	100	2
40	40	14
71	71	13
39	40	4
61	61	6
114	114	5
98	98	16
93	94	2
104	104	8
30	31	2
37	39	5
89	105	2
99	99	5
89	91	1
102	102	7
28	28	7
70	70	7
21	22	1
29	29	6
80	90	1
32	32	6
65	65	8
40	44	2
21	21	10
86	87	8
76	78	4
88	88	2
58	110	3
27	27	9
69	69	4
107	107	1
79	80	5
43	43	12
53	53	8
44	44	9
82	82	7
56	56	5
95	95	10
35	36	5
85	85	10
51	54	1
28	29	3
76	76	5
23	24	1
63	71	6
53	80	3
47	47	12
19	19	1
87	87	3
49	49	14
105	105	16
58	58	4
81	83	4
80	106	2
79	105	4
54	73	4
93	96	3
83	84	10
77	77	9
100	101	4
54	54	12
42	42	11
41	41	6
33	33	11
104	106	1
83	83	6
27	28	1
110	110	7
30	30	7
36	36	4
26	26	9
37	37	3
74	74	5
72	74	3
111	111	5
50	51	7
93	93	12
46	46	4
61	67	1
80	96	1
54	75	10
47	48	2
85	86	3
68	72	5
101	104	2
97	97	6
101	103	3
26	28	3
77	78	2
41	42	2
79	79	5
73	73	6
53	54	4
21	25	3
98	99	2
74	90	4
73	74	5
24	24	6
20	20	5
56	57	4
55	57	3
20	30	2
50	50	6
103	105	3
96	96	9
82	85	2
84	84	5
39	39	1
103	103	6
71	72	2
81	81	2
64	67	3
71	92	3
31	31	8
57	90	1
94	94	5
21	45	1
101	101	3
45	45	10
94	96	1
113	113	7
102	104	4
48	98	2
38	39	2
62	63	3
78	78	1
79	110	4
43	52	5
43	53	4
74	75	5
34	34	4
112	113	1
112	112	1
64	64	8
84	108	5
109	109	2
59	74	3
62	84	1
110	112	1
22	23	4
82	83	2
22	22	8
20	40	1
88	91	3
43	44	1
77	97	2
101	102	2
33	34	2
21	23	1
95	96	4
59	87	6
52	54	1
89	89	1
88	90	6
67	70	5
57	102	4
85	112	1
39	41	5
42	114	3
35	35	5
46	47	5
68	70	1
20	23	2
92	98	2
41	73	1
67	68	1
86	100	1
91	92	1
106	106	3
78	79	1
86	86	2
65	66	1
80	80	1
91	96	2
113	114	1
52	52	5
31	32	1
59	59	2
24	30	2
104	105	1
109	111	4
92	92	2
51	52	4
62	62	2
66	66	3
108	108	1
87	90	3
99	113	1
75	75	2
76	77	4
114	115	2
80	81	2
69	70	1
88	89	1
64	65	1
55	56	1
62	67	1
54	74	1
53	75	1
59	63	1
44	45	1
73	95	3
51	51	1
92	95	1
97	98	1
76	97	1
103	107	1
102	103	2
42	73	2
25	25	2
59	72	1
83	85	1
56	90	1
32	50	1
107	112	1
58	87	1
103	104	1
62	64	1
94	95	1
30	35	1
64	66	2
77	79	2
103	111	1
54	101	1
109	110	2
