130	130	2
77	77	4
49	49	5
185	186	4
111	118	3
122	122	6
108	116	2
183	184	4
50	50	5
40	41	3
1	2	3
155	170	2
43	44	4
105	106	1
170	171	2
156	170	1
124	124	3
58	97	3
186	186	10
103	103	2
35	161	3
72	73	1
159	159	8
11	12	2
88	88	1
142	142	6
117	169	2
138	138	2
168	170	1
123	124	1
197	197	11
195	195	5
65	65	2
160	160	3
118	118	2
94	97	2
133	133	4
38	38	5
29	29	7
47	47	3
183	183	4
13	13	6
86	87	2
176	176	8
104	105	1
29	167	1
109	183	5
160	172	2
89	90	7
40	42	1
53	53	6
60	60	5
155	155	5
129	129	2
57	57	8
55	56	2
30	30	4
62	62	4
71	88	2
14	17	1
134	135	2
188	190	3
139	143	1
45	45	7
75	75	1
56	56	7
33	34	3
21	22	2
9	9	8
48	50	1
24	24	3
74	102	1
56	122	3
22	22	7
135	135	4
145	145	4
148	148	1
143	143	1
163	163	2
47	57	1
52	52	7
151	152	4
38	128	2
5	6	3
31	31	2
9	11	2
190	192	3
123	127	3
114	114	3
127	128	1
120	121	2
54	57	1
144	144	5
103	118	4
73	73	6
23	23	4
55	55	1
167	167	4
33	33	4
71	71	2
19	19	4
37	37	5
101	166	2
171	171	2
155	182	2
48	120	1
41	122	3
20	23	6
48	49	2
87	87	2
153	153	3
110	110	5
154	154	4
45	46	3
29	30	7
192	192	7
153	189	1
149	149	4
188	188	1
48	48	4
15	16	5
141	141	4
133	134	2
108	183	2
85	85	4
184	184	1
110	172	1
42	55	5
191	191	6
104	104	1
154	155	2
74	74	2
141	143	1
136	136	5
115	116	1
5	5	6
96	96	1
164	181	5
180	180	2
46	46	1
98	102	1
57	58	3
51	128	1
17	18	1
101	101	1
166	166	3
15	15	1
173	175	3
185	185	4
68	68	6
64	64	4
131	157	1
115	115	4
44	45	4
25	25	5
81	81	4
132	133	5
174	176	3
131	131	6
111	112	1
100	166	1
27	27	1
112	113	5
112	112	2
12	13	2
19	22	4
132	177	3
70	71	1
117	117	1
26	26	2
172	172	1
1	1	2
5	43	3
28	29	2
174	174	2
54	54	6
28	28	3
132	178	4
139	139	2
123	123	2
40	40	4
178	178	2
89	89	2
45	47	3
157	157	4
168	168	5
113	114	2
186	194	1
109	110	3
176	178	1
49	125	1
43	78	1
192	193	1
194	195	2
107	107	1
125	125	3
147	148	1
81	85	1
83	83	1
196	196	6
21	21	2
80	81	2
119	119	6
51	120	1
182	183	2
194	194	5
134	143	1
71	76	2
77	78	1
162	181	1
107	109	1
10	13	3
159	160	1
8	9	1
56	57	1
130	131	2
85	86	1
49	119	1
95	95	1
133	176	2
3	89	2
150	150	1
44	44	2
128	128	1
185	193	2
150	190	3
34	35	1
82	82	3
6	6	1
140	140	1
181	181	2
162	165	1
72	85	1
70	87	1
0	0	2
43	43	3
138	139	3
97	97	2
174	175	1
107	108	1
61	61	1
86	86	1
12	14	1
179	179	1
150	151	2
170	170	1
52	53	5
122	185	1
159	172	1
10	10	5
190	190	2
113	113	1
57	59	1
116	168	2
32	55	1
193	193	2
175	178	1
175	175	1
59	70	1
69	89	2
16	16	2
57	172	1
152	153	1
146	146	2
100	100	2
86	88	2
42	42	3
58	58	3
135	183	2
12	12	2
2	7	1
76	109	1
37	174	1
87	106	1
38	76	1
45	58	1
41	41	1
70	88	1
153	188	1
149	150	1
23	45	2
74	110	1
11	11	2
109	184	2
35	36	1
152	152	1
62	97	1
136	137	1
182	182	1
100	101	2
72	106	1
169	171	1
79	79	1
44	46	1
127	127	1
0	38	1
59	59	1
102	102	2
122	128	1
149	154	1
128	129	1
