92	92	9
91	104	2
78	78	5
74	74	8
28	28	5
5	5	10
117	117	10
37	37	7
10	11	12
82	82	4
109	110	2
48	48	6
77	78	5
84	84	7
32	32	15
80	80	9
90	90	11
118	119	2
111	112	2
87	88	4
79	79	10
62	62	4
12	12	10
30	30	8
106	106	10
13	19	5
17	18	1
36	36	4
29	29	11
21	21	4
122	123	5
72	72	9
6	6	10
35	35	8
1	1	10
111	113	3
93	93	5
114	128	1
114	114	14
23	27	2
19	19	10
120	120	11
56	56	3
84	107	1
7	10	4
83	107	3
128	128	2
129	129	12
50	65	1
62	65	5
38	38	5
27	27	7
57	57	6
62	63	2
18	18	5
8	9	5
109	109	8
127	127	5
108	108	4
108	109	3
123	124	2
99	99	5
24	24	7
126	134	4
44	44	7
59	62	3
106	107	6
112	112	5
55	55	5
42	42	3
107	107	4
77	77	4
127	128	2
79	80	10
76	76	20
26	26	12
13	13	4
71	72	5
134	135	2
110	110	13
130	130	16
100	101	6
89	106	2
123	123	7
35	36	1
111	111	6
102	102	3
50	50	1
24	25	3
29	30	1
104	104	4
81	81	7
11	11	9
64	64	7
119	119	2
83	84	1
20	20	4
58	58	4
83	83	4
0	1	2
124	124	11
97	97	10
93	94	4
53	66	4
14	14	5
133	133	8
27	28	5
70	70	5
80	81	2
105	105	3
128	132	4
47	47	6
75	75	6
117	118	3
121	121	4
95	105	2
22	22	3
94	94	7
103	103	2
11	30	3
55	56	1
34	34	8
8	8	12
132	132	1
25	25	6
134	134	3
79	131	2
9	9	6
33	33	7
112	113	3
82	85	4
22	23	2
114	115	5
50	52	1
86	107	1
47	51	1
87	87	11
43	44	1
95	95	10
10	10	2
3	35	3
7	8	1
125	126	1
98	98	8
88	88	5
69	69	3
85	85	8
113	113	10
86	86	5
17	17	2
77	81	3
33	34	5
44	45	2
54	68	4
31	31	5
130	131	4
59	59	5
113	114	4
7	7	5
124	126	1
92	93	3
95	97	3
122	122	11
16	17	2
131	131	3
74	92	1
111	116	1
63	63	5
117	129	6
60	60	1
12	30	1
77	80	1
9	10	4
97	98	2
11	17	3
119	126	5
116	117	4
65	65	4
81	88	2
73	74	2
119	120	2
17	20	1
77	131	2
8	35	1
14	15	3
18	19	1
118	118	5
57	58	2
127	133	2
26	27	3
115	115	11
13	14	1
15	15	6
61	61	4
56	57	6
101	101	6
116	127	3
16	16	5
133	134	3
66	68	1
32	34	2
100	100	5
104	105	2
49	49	1
4	5	1
55	58	1
15	16	3
119	127	6
123	126	1
43	43	2
94	97	5
5	6	1
84	85	2
3	43	1
62	64	1
32	33	1
19	21	4
115	122	1
73	73	2
77	86	3
42	43	3
128	131	1
31	32	2
92	95	1
80	131	1
49	50	2
69	70	2
28	29	4
105	106	2
82	108	1
120	122	1
97	105	2
46	49	1
71	94	1
109	128	2
102	105	2
126	126	1
0	0	2
116	116	1
89	90	1
96	96	2
52	52	3
1	2	1
67	67	7
63	64	1
59	63	2
112	116	2
89	89	1
110	129	1
130	133	1
126	127	2
6	7	1
56	64	2
90	91	1
88	106	1
99	101	1
66	66	1
75	76	1
109	114	1
45	45	1
79	133	1
68	68	2
72	73	1
4	6	1
91	91	1
125	125	1
104	121	1
68	69	1
