11	11	15
23	23	18
126	126	5
57	57	11
106	115	2
54	57	2
10	10	11
101	102	8
115	115	16
82	99	5
62	67	2
30	30	12
123	123	4
1	74	2
12	12	4
124	124	8
102	105	1
73	73	13
5	5	7
35	35	11
63	64	5
65	99	1
38	38	4
86	87	6
125	125	10
70	113	3
17	17	8
50	52	10
2	2	9
54	54	5
106	111	4
108	108	4
119	120	7
60	60	26
127	128	7
106	113	2
108	110	7
63	63	5
116	117	11
24	24	6
69	69	11
76	76	6
134	134	13
32	52	3
95	97	1
93	95	1
56	56	4
69	80	3
80	80	5
89	134	2
33	33	9
27	30	3
88	89	4
60	79	1
116	116	12
98	98	6
18	18	5
50	83	8
97	97	3
37	37	3
14	15	2
78	82	2
91	91	7
52	53	4
134	135	10
45	45	7
70	70	5
15	74	3
106	107	4
105	113	1
77	78	7
122	122	13
130	130	6
93	121	2
19	19	9
98	104	3
102	102	16
120	121	9
88	88	4
118	125	3
70	101	2
100	100	11
6	7	2
117	117	7
113	126	3
53	53	4
43	43	8
62	63	3
127	129	6
82	85	3
46	46	4
118	118	11
34	34	3
109	109	3
57	63	6
63	86	5
19	22	4
28	28	5
71	71	10
91	92	2
7	9	2
125	126	5
72	72	11
121	121	3
13	13	16
26	26	5
115	117	1
67	70	2
9	9	3
22	22	3
23	24	2
4	4	4
27	27	3
114	114	7
97	111	3
20	20	8
90	91	6
112	112	8
44	44	6
87	132	2
107	107	11
21	21	5
1	1	5
31	32	2
105	106	5
90	93	3
81	99	1
82	82	3
131	131	4
67	67	6
15	15	11
21	129	4
36	36	1
65	65	11
112	113	5
28	33	2
52	52	8
13	72	5
89	89	4
108	109	4
114	126	2
29	29	11
11	14	2
96	98	2
90	94	1
92	92	4
26	28	3
26	27	1
49	49	9
65	67	3
82	84	4
103	103	9
20	21	7
6	17	1
95	112	2
61	61	9
85	85	3
79	79	10
120	126	1
124	125	2
81	121	1
1	4	1
55	55	6
3	4	6
126	128	3
77	77	10
9	10	1
132	132	4
0	3	4
34	35	2
119	119	3
104	104	3
27	28	5
75	75	10
71	80	5
46	49	1
128	129	1
129	129	7
28	31	1
32	32	5
0	0	6
86	86	10
12	13	2
95	113	2
58	58	2
99	99	4
113	113	1
11	13	1
133	134	2
90	90	4
68	68	11
88	114	2
74	74	5
101	127	2
3	3	5
100	101	4
120	120	4
128	128	5
66	126	1
84	84	2
78	78	6
87	87	2
90	95	2
86	92	2
79	80	1
19	24	3
76	77	1
132	133	2
48	48	1
31	31	3
65	83	2
122	123	1
8	9	5
61	67	1
64	64	4
62	62	6
49	82	1
6	6	2
8	8	2
105	105	4
30	31	3
101	101	2
6	8	3
66	67	3
50	50	5
59	59	4
61	62	3
105	109	4
70	72	1
3	7	1
106	106	7
27	33	2
51	56	1
109	114	4
122	124	4
130	131	1
93	94	2
60	62	1
3	35	1
66	66	3
25	28	1
72	73	2
24	26	1
99	101	2
127	127	6
45	47	1
91	93	1
30	50	2
53	54	2
81	92	1
63	85	1
7	7	1
91	133	2
24	53	2
102	103	2
4	5	3
14	29	1
101	103	1
1	29	1
111	111	2
71	81	1
84	87	1
75	76	3
43	45	1
18	35	1
57	58	1
72	132	1
3	22	1
131	132	1
79	83	1
135	135	3
42	79	2
113	129	3
91	95	1
38	39	1
93	93	1
118	120	1
90	92	1
27	31	2
66	127	1
126	129	1
117	125	3
94	95	4
71	98	2
10	25	2
68	70	1
16	17	1
0	1	1
47	47	2
72	104	1
64	65	1
33	37	1
25	25	1
76	82	1
33	34	1
94	94	1
104	105	1
45	52	1
95	98	1
35	36	1
23	25	1
110	111	1
14	14	1
21	22	1
87	131	1
109	111	1
60	63	1
96	101	1
80	119	1
