90	90	3
25	27	3
55	92	5
62	62	2
39	40	3
71	72	2
79	79	6
73	74	3
29	29	9
92	92	4
36	36	1
23	23	3
71	71	7
58	59	12
68	74	8
42	42	12
34	34	11
97	97	8
40	40	10
48	48	4
61	62	3
37	37	6
109	109	12
58	58	4
73	73	5
35	39	3
54	54	7
69	69	7
27	50	3
103	103	7
111	111	4
95	96	3
102	102	8
32	34	7
55	55	10
46	46	13
107	112	2
70	70	7
113	113	8
87	87	8
53	54	8
31	32	2
98	99	1
21	21	2
83	87	2
68	68	11
60	60	11
35	35	15
25	25	4
82	88	2
108	108	5
24	24	2
53	55	3
81	98	1
74	74	10
88	88	4
94	94	5
57	57	4
62	92	2
77	77	7
94	97	9
102	103	2
31	31	2
41	41	15
30	30	17
51	51	5
44	114	1
79	81	2
27	27	4
34	35	1
65	65	10
100	100	7
109	110	3
20	21	2
27	76	1
52	101	4
26	26	8
41	42	2
47	47	13
93	93	5
38	110	4
101	101	6
48	49	5
69	70	2
101	102	3
29	41	3
67	67	6
110	111	3
65	70	2
22	22	4
102	107	3
104	104	11
54	89	3
85	85	8
90	91	6
96	96	2
39	111	2
80	80	6
63	63	1
44	46	5
39	39	10
106	107	7
98	98	9
112	112	8
37	59	2
50	54	4
83	85	8
40	111	1
86	87	4
52	53	2
107	107	5
83	83	4
50	52	3
22	91	4
50	50	8
103	106	2
79	91	2
106	106	4
74	75	9
81	81	5
57	58	3
80	89	1
25	28	2
105	106	2
27	28	7
37	109	1
66	66	2
72	72	9
43	43	4
46	113	3
42	107	5
86	88	1
47	48	2
32	32	6
89	89	5
67	74	3
26	77	1
86	86	6
66	72	1
78	81	6
29	114	5
77	96	4
86	91	2
99	99	3
64	110	2
53	100	2
72	73	3
61	61	3
80	91	2
110	110	1
105	105	5
68	75	6
50	102	1
49	50	1
62	64	2
111	112	2
38	38	2
49	49	5
74	79	2
89	91	3
67	69	2
78	84	2
22	23	1
77	78	1
68	69	1
76	77	1
59	59	2
75	75	3
93	94	3
78	80	3
80	98	2
100	103	2
54	55	1
80	81	4
113	114	1
109	112	1
56	56	3
51	53	1
52	52	2
76	76	4
64	64	6
55	56	2
43	107	2
84	84	3
114	114	1
22	54	1
102	106	1
67	68	1
50	53	1
80	97	1
110	114	1
92	93	3
37	108	1
20	20	1
28	77	1
81	82	1
28	28	1
33	33	3
95	95	1
65	68	2
63	78	2
83	84	2
79	84	1
55	93	1
26	76	1
65	69	1
96	97	3
19	19	3
38	109	1
45	45	2
92	95	1
63	64	1
80	88	2
103	105	1
25	92	2
43	46	1
103	107	1
79	80	1
