96	96	13
88	103	3
66	66	12
24	25	2
110	110	8
61	61	7
100	101	2
21	21	6
30	59	1
53	53	6
79	79	3
26	27	1
50	50	9
95	96	3
104	104	8
80	81	5
25	25	8
70	70	6
58	58	6
103	103	11
32	32	5
43	43	3
49	51	3
37	38	3
47	89	3
40	40	5
106	113	4
66	68	2
57	57	4
55	55	1
111	111	6
74	75	6
76	77	2
86	87	1
30	30	5
64	65	3
53	61	1
74	104	3
105	105	3
90	104	2
71	71	7
39	39	7
86	89	2
48	49	6
30	54	2
26	26	5
107	107	10
91	91	7
89	89	3
81	81	6
45	50	2
63	63	8
107	109	3
19	19	1
100	100	4
72	72	3
95	95	2
27	27	4
57	105	1
75	99	1
99	99	9
60	60	8
99	100	1
36	36	4
88	88	7
23	30	3
50	51	5
22	22	6
28	30	2
94	94	9
77	97	1
114	114	3
73	74	4
44	45	4
74	74	4
38	38	8
112	113	5
35	35	6
44	90	3
46	46	8
42	42	2
75	109	1
57	58	2
40	51	3
34	34	7
76	76	7
79	88	2
37	37	2
76	98	4
19	20	2
59	59	4
39	60	1
80	80	4
49	49	7
62	67	1
31	31	1
48	48	5
93	93	6
65	65	1
58	59	4
29	29	7
42	43	3
85	86	1
87	87	3
85	85	6
37	39	4
109	109	1
60	61	2
69	69	5
110	112	3
42	44	1
78	80	1
82	82	1
98	98	3
73	73	8
22	24	2
71	85	1
88	90	1
101	102	5
110	111	2
112	112	1
46	47	2
75	75	2
39	71	2
20	20	6
98	100	3
86	86	2
77	113	1
71	72	3
52	52	5
25	84	1
67	68	1
40	70	1
38	39	1
45	45	9
40	41	2
64	64	3
43	44	1
102	102	3
101	101	4
97	97	5
84	84	1
69	70	2
68	68	2
78	78	1
24	24	5
41	41	4
73	104	1
79	91	4
33	33	5
28	29	6
60	107	4
28	28	1
22	57	1
20	31	2
39	41	1
54	58	2
47	48	1
82	83	4
78	79	1
106	106	2
25	26	3
79	81	1
98	109	1
23	23	2
113	113	2
81	87	1
61	93	3
92	92	1
94	98	2
21	23	2
41	42	3
23	29	1
52	58	1
67	67	1
39	44	1
76	108	1
108	108	2
83	83	1
33	34	1
47	47	2
35	36	2
64	66	1
67	70	1
65	66	1
62	63	1
111	112	2
111	113	1
66	67	1
25	83	1
51	51	1
27	28	1
93	95	1
103	104	1
34	35	1
67	72	1
52	53	1
22	23	1
72	73	1
77	77	1
