106	106	4
176	177	6
214	216	8
49	49	23
102	102	12
144	192	5
57	57	5
64	65	9
198	199	6
125	125	9
121	121	7
242	242	12
212	213	5
230	230	10
62	62	21
63	63	13
120	120	16
233	233	10
52	52	8
160	160	12
53	53	8
176	176	13
36	36	13
42	42	6
97	97	7
40	40	9
30	32	3
4	4	8
209	209	4
166	203	4
122	122	10
221	221	5
158	213	3
8	9	3
20	20	28
216	216	6
28	35	2
198	200	3
43	43	13
71	72	6
26	26	17
227	227	3
10	10	15
180	182	6
228	232	1
99	100	9
100	100	14
66	66	7
22	22	3
37	38	1
83	83	9
223	224	5
45	45	18
182	183	5
144	145	11
224	224	4
191	232	2
137	165	11
13	13	7
39	139	2
22	63	1
188	211	2
74	75	1
238	238	10
73	73	17
181	181	9
212	212	19
70	70	6
219	219	23
98	98	10
117	117	9
222	222	5
204	204	14
206	207	9
68	68	4
225	225	16
61	61	13
156	158	7
193	193	3
18	18	12
37	37	9
77	77	5
80	80	9
171	172	1
47	48	4
174	174	9
84	85	1
140	141	6
201	217	4
128	128	11
169	175	4
74	101	2
133	135	3
91	101	1
109	110	2
175	207	1
177	178	10
164	164	20
218	218	8
236	236	18
75	77	2
153	153	12
65	65	10
46	46	16
44	45	2
3	61	4
160	161	2
233	234	5
50	56	4
28	28	9
1	15	2
7	9	2
202	203	2
35	68	2
131	131	3
172	172	6
173	173	12
105	105	9
144	152	2
228	228	6
169	169	21
25	25	11
225	227	3
76	145	2
130	131	3
174	175	10
157	157	11
77	78	1
132	132	4
208	208	3
57	58	4
40	41	6
117	119	6
50	81	1
85	86	4
200	200	7
174	207	2
129	129	10
32	68	4
79	79	10
35	42	3
156	157	15
219	241	1
189	189	10
71	111	3
123	123	3
166	166	9
193	227	3
149	149	6
178	178	18
168	209	7
148	149	13
55	55	7
14	14	2
186	186	16
234	234	11
226	227	2
24	24	14
137	137	11
18	59	2
218	219	5
135	135	10
181	227	1
73	74	8
208	231	2
222	223	4
128	130	2
28	37	1
240	240	5
9	9	9
102	103	4
229	229	8
198	198	20
221	228	1
115	115	14
84	84	6
122	124	4
165	166	7
70	71	1
82	82	13
129	130	6
213	214	3
232	232	9
86	86	7
144	144	2
30	30	8
18	60	2
174	220	1
3	3	11
114	151	4
105	114	3
31	87	3
1	17	1
8	8	6
81	83	4
191	191	10
6	6	4
223	223	14
202	202	10
111	112	3
135	165	5
23	23	7
147	149	3
183	185	2
45	46	2
101	101	14
167	167	2
50	50	4
181	206	2
154	158	2
34	83	2
231	231	10
185	187	2
226	226	9
155	158	3
241	241	6
54	55	5
119	162	5
223	225	6
148	148	9
30	42	1
148	191	3
104	104	7
183	184	1
171	173	4
28	31	2
26	27	1
159	159	7
28	64	1
182	182	7
187	187	6
164	193	2
48	48	10
159	160	15
44	44	11
96	96	7
174	178	1
207	208	8
165	207	10
65	68	3
147	147	11
190	190	10
8	14	2
193	200	3
17	31	2
33	33	10
153	155	4
141	142	1
13	15	4
196	196	3
61	62	3
23	48	2
27	27	11
119	119	11
3	9	5
85	85	7
66	67	1
178	179	6
157	214	5
115	116	6
7	8	2
10	177	1
191	231	8
234	237	2
69	69	11
162	163	7
208	209	1
207	207	7
139	140	3
134	136	3
43	55	2
199	199	13
13	14	3
70	111	3
81	109	2
169	180	4
138	139	6
175	176	6
165	171	1
32	32	8
9	28	10
136	136	13
74	74	11
34	35	5
47	47	7
139	139	11
233	237	2
71	175	5
33	34	4
103	103	4
113	113	6
164	165	3
88	88	10
232	233	5
23	24	3
144	158	1
111	111	1
214	215	4
186	187	1
179	179	8
56	56	5
33	35	3
179	180	8
100	121	2
195	195	2
158	158	7
99	99	8
58	58	8
9	11	3
54	54	6
213	213	7
199	201	3
126	126	11
33	47	2
143	143	3
40	53	2
188	188	6
15	15	13
12	22	1
217	217	15
203	203	11
168	168	5
28	43	3
44	46	3
82	83	5
149	150	2
56	58	4
116	116	7
122	123	7
192	192	11
154	154	8
75	75	14
31	31	14
219	220	5
122	134	3
138	138	5
177	180	3
60	60	11
81	81	5
164	196	1
11	20	1
122	127	1
180	180	4
166	206	4
162	162	7
16	222	4
212	217	2
149	208	1
69	70	3
39	55	3
169	170	9
235	236	11
202	204	3
190	192	3
206	206	9
38	38	11
31	46	1
67	68	4
147	148	2
168	204	2
228	230	3
16	16	3
231	232	2
98	99	3
116	162	2
59	59	7
29	29	4
71	71	3
145	147	1
4	6	2
204	205	8
173	219	1
186	224	7
201	202	4
177	177	2
21	22	2
210	210	1
220	220	6
155	156	1
129	131	1
184	184	9
145	190	1
48	49	1
76	76	4
173	208	2
152	152	10
200	201	7
11	11	11
156	156	12
198	201	1
24	63	2
49	52	1
183	183	7
71	118	1
153	171	3
4	7	1
170	208	5
146	147	3
25	26	1
66	68	3
119	120	7
238	241	4
141	209	4
134	137	2
10	61	2
120	121	2
120	162	1
157	165	2
173	174	5
66	95	1
58	59	1
235	235	6
169	237	1
120	127	2
64	64	10
161	161	9
140	140	5
5	5	1
195	196	2
76	106	2
35	35	5
32	33	2
209	210	1
12	12	10
75	76	1
239	240	2
180	181	3
51	51	3
216	217	1
135	136	5
118	120	2
34	67	4
127	127	3
20	21	3
124	133	3
224	225	11
168	205	4
72	135	7
160	182	1
206	208	2
62	63	2
3	16	2
224	228	2
62	64	3
58	60	2
9	10	1
104	135	4
163	164	1
181	225	6
157	158	5
39	39	5
99	114	1
141	141	2
18	41	2
15	16	5
71	73	3
201	201	5
29	30	2
21	21	7
95	103	3
170	207	2
67	107	1
239	239	3
188	190	2
223	227	3
4	223	2
137	138	5
165	165	4
135	137	3
194	194	2
17	18	2
103	116	7
101	216	1
31	33	1
151	151	2
145	146	2
109	109	2
9	38	1
9	40	1
72	121	2
10	175	1
205	205	9
76	105	1
120	157	2
2	3	2
141	167	2
187	189	1
212	216	6
171	171	12
108	110	2
85	131	2
51	52	4
197	198	3
191	192	2
188	192	1
95	96	4
20	32	1
9	175	2
170	170	6
5	225	1
209	231	1
145	145	4
163	184	3
229	230	3
187	191	5
95	95	3
51	57	2
65	88	2
44	175	3
35	67	4
125	127	2
163	163	8
200	225	7
167	206	3
236	237	4
182	220	1
15	18	1
110	113	1
146	146	5
237	238	1
37	42	1
0	2	2
168	169	3
59	63	2
218	234	1
30	31	4
143	145	3
168	175	2
166	167	1
153	160	1
193	226	1
120	131	1
134	135	3
199	200	2
168	188	1
188	189	1
52	123	1
51	105	1
124	125	1
72	89	1
2	7	2
107	108	2
122	135	1
11	12	1
107	206	1
16	29	2
208	223	2
27	28	2
4	16	1
95	106	4
182	227	2
193	202	2
66	74	1
43	44	2
225	226	1
134	134	5
184	186	1
50	52	3
0	1	3
215	215	1
142	142	3
24	48	1
80	82	1
198	216	2
167	204	1
75	132	1
114	114	2
166	189	1
211	211	3
140	142	3
115	117	2
49	50	2
169	234	1
14	15	2
116	119	2
102	116	2
175	177	2
19	23	3
40	139	3
101	109	1
237	239	2
192	193	3
79	130	3
170	236	1
227	228	1
145	148	1
28	46	2
183	207	2
176	178	2
56	61	2
111	115	1
121	168	1
234	235	2
126	129	1
49	81	1
140	161	4
35	36	1
0	14	2
52	56	3
46	47	2
174	191	2
149	207	4
43	64	2
0	218	1
185	185	5
101	102	1
115	120	3
43	174	1
4	5	1
155	155	2
28	34	1
238	239	2
124	124	4
230	231	2
18	19	3
154	189	2
124	164	2
146	190	1
151	206	1
190	191	1
82	84	2
3	59	2
101	136	1
129	133	1
186	192	1
47	86	3
174	180	3
59	60	1
52	105	1
187	210	1
41	41	2
43	178	4
54	138	2
36	37	3
217	218	5
100	102	1
39	122	1
53	55	2
119	135	1
192	201	2
165	181	1
14	19	1
222	224	2
187	188	1
72	73	3
2	2	2
3	8	4
28	63	3
45	131	2
197	197	3
181	182	1
131	132	1
12	21	2
52	53	1
123	124	1
72	72	1
120	158	1
100	109	2
19	19	3
122	133	1
203	204	2
16	17	1
19	22	3
67	109	1
18	21	2
167	168	1
77	79	1
166	204	1
158	209	1
120	212	1
158	159	1
12	13	3
181	208	1
1	14	1
66	106	2
212	229	2
237	240	2
46	64	1
21	32	2
8	15	1
43	45	1
1	225	3
81	82	1
59	61	2
8	28	1
214	214	1
176	207	1
171	175	1
185	210	1
207	232	1
194	195	1
25	27	1
121	134	2
12	40	2
17	17	1
152	153	1
5	226	1
193	195	1
41	42	1
48	84	1
110	110	1
54	85	1
116	151	1
218	233	1
69	111	1
208	224	2
150	150	1
181	219	1
125	133	1
116	120	1
114	115	1
34	34	1
152	179	1
54	106	1
210	212	1
11	22	1
24	27	1
189	194	1
150	152	3
3	60	1
116	172	1
186	228	1
40	138	1
196	213	1
196	199	1
153	156	2
71	178	1
11	21	1
0	15	1
77	100	1
31	66	1
14	18	1
191	209	1
16	30	1
91	91	1
1	3	1
96	97	1
1	1	1
118	118	1
167	205	1
174	176	1
183	187	1
196	197	1
50	51	1
39	166	1
209	223	1
173	207	1
73	96	1
105	106	1
45	59	1
