29	75	1
26	26	12
66	79	5
14	14	9
71	71	2
7	7	18
22	22	4
57	61	2
1	4	3
46	46	22
49	80	4
28	28	13
74	76	4
45	45	5
50	50	15
32	32	9
47	47	14
64	64	10
49	53	6
48	48	9
11	12	2
37	37	11
26	30	3
63	63	12
74	75	4
11	70	2
46	65	1
79	79	19
34	49	1
39	39	11
13	14	1
5	5	12
6	6	20
51	51	1
74	74	10
58	58	8
46	48	2
40	40	6
76	76	7
5	7	1
61	61	3
77	77	8
31	31	13
75	75	15
72	72	9
75	78	5
29	80	4
55	55	5
49	49	6
29	73	5
44	44	1
18	41	4
53	53	7
26	27	5
9	9	10
56	56	7
18	65	2
31	68	4
9	55	2
17	17	12
68	68	10
50	54	2
29	29	9
46	47	4
57	57	13
3	3	6
2	2	5
80	80	4
30	30	6
0	0	9
57	70	2
38	39	4
39	66	3
26	79	4
36	36	10
50	67	4
70	71	5
25	80	3
73	74	4
60	60	2
17	65	4
54	54	6
22	68	5
10	11	7
9	11	3
62	62	6
7	8	1
43	43	2
65	65	2
27	27	8
47	66	2
41	41	6
62	63	10
16	16	7
54	68	3
59	59	7
33	33	4
42	43	2
60	61	6
74	78	2
42	42	11
66	66	3
8	8	8
34	34	5
9	10	4
63	64	2
18	78	1
69	70	2
66	67	5
27	65	2
38	38	4
32	34	2
25	29	1
29	79	2
1	1	3
52	52	3
67	67	6
21	21	1
70	70	1
62	78	2
4	4	3
79	80	2
18	18	7
1	69	2
10	10	4
53	55	3
12	12	2
35	35	5
65	78	6
19	71	1
49	56	1
32	56	8
27	74	1
20	20	1
51	53	2
6	7	2
3	45	2
49	55	1
52	55	3
75	77	1
61	66	1
25	26	1
40	41	2
73	73	4
65	66	6
2	4	3
71	72	1
19	27	1
4	42	1
17	72	3
28	79	1
15	73	1
11	51	1
63	73	4
75	76	2
19	41	1
3	8	2
64	78	2
63	78	2
60	79	1
49	50	1
78	78	4
37	38	2
7	40	3
30	32	1
77	78	2
3	4	2
0	21	2
38	78	1
0	49	2
19	19	2
14	31	2
6	14	1
39	45	1
16	19	2
56	63	1
38	40	2
2	10	1
28	30	1
35	36	2
35	45	1
68	69	3
18	40	1
1	2	1
33	34	1
12	15	1
12	21	1
18	35	1
37	47	1
9	53	1
25	56	1
