63	66	3
64	64	2
5	29	3
64	72	1
32	32	2
36	36	3
57	57	3
6	17	2
26	27	2
21	21	1
104	104	2
78	78	3
83	83	3
95	95	2
132	132	4
79	106	1
117	118	1
116	133	5
63	64	5
110	110	3
76	76	3
58	84	2
42	117	2
105	105	1
59	59	1
120	120	4
102	109	1
15	16	1
34	34	5
7	25	1
73	73	7
80	80	1
96	96	1
43	46	3
89	90	2
133	134	3
43	43	4
103	121	2
113	120	1
95	96	3
126	134	1
42	42	2
48	48	1
35	100	4
124	124	1
94	94	1
116	116	1
3	13	2
6	6	8
31	101	1
13	14	3
4	4	1
13	13	5
41	42	4
43	102	5
129	129	2
91	91	1
23	23	1
33	33	2
87	90	2
55	111	4
96	128	1
122	126	4
6	92	3
113	132	4
16	16	1
30	35	1
108	108	4
29	30	2
10	11	2
18	18	2
58	76	4
122	122	3
58	58	3
75	75	3
55	129	1
90	96	1
62	62	2
2	3	1
104	105	2
87	88	1
90	90	1
62	63	4
7	45	3
113	114	2
2	2	2
12	13	1
123	123	1
81	83	2
8	8	1
18	24	2
76	110	1
30	31	2
124	125	1
131	131	1
9	9	5
110	115	1
56	123	2
49	49	1
24	24	1
1	1	4
93	130	2
77	116	1
58	60	1
75	76	3
91	92	3
66	66	2
8	27	3
74	129	1
65	65	4
111	111	2
75	129	2
29	29	1
78	106	1
28	28	1
67	68	4
107	107	1
123	128	3
57	75	2
84	85	2
59	60	2
17	17	1
20	21	3
60	60	1
100	100	2
127	130	3
69	71	1
125	125	1
103	103	1
28	39	2
102	103	3
32	92	1
111	133	1
130	130	3
27	27	1
77	77	2
35	92	3
40	43	2
70	70	1
4	22	2
44	45	1
22	22	2
117	120	1
110	132	1
108	109	1
15	15	2
1	8	2
81	99	1
129	132	1
80	90	1
17	33	1
72	72	2
69	69	1
55	123	1
38	38	1
63	72	1
25	25	1
61	62	1
92	131	1
44	44	3
99	103	1
102	102	2
62	66	1
82	86	2
0	0	1
34	122	2
57	69	1
98	98	1
82	103	1
2	25	1
95	100	1
99	104	2
132	133	1
29	41	1
114	114	1
79	88	1
76	77	2
127	127	1
115	131	1
68	69	1
88	90	1
79	79	1
105	127	1
125	134	1
82	83	2
134	134	1
120	123	1
73	77	1
84	84	1
4	18	1
21	40	1
82	82	1
56	84	1
116	117	1
62	65	1
2	29	1
14	20	1
88	89	1
