43	45	4
63	72	2
41	41	12
27	57	2
28	84	2
87	87	14
30	30	3
50	50	13
81	82	5
99	100	2
51	51	11
82	82	8
35	35	16
48	48	20
76	77	9
74	74	18
60	60	15
33	53	2
75	75	19
77	77	17
65	65	14
68	78	4
73	73	14
64	66	3
64	64	27
92	92	5
61	87	3
73	74	3
69	69	32
101	102	2
68	68	15
57	58	2
48	62	1
36	36	13
31	51	3
69	75	2
50	51	2
77	78	7
80	80	20
43	43	6
38	38	11
66	72	2
45	45	17
100	101	2
58	58	23
86	86	24
71	72	10
85	85	13
64	75	2
96	96	11
62	62	22
59	61	1
48	92	1
78	78	20
39	39	5
61	61	18
97	97	10
66	66	10
67	67	16
29	29	7
94	94	7
25	25	9
66	67	11
68	79	2
62	63	5
85	89	3
50	78	1
95	99	1
93	96	6
59	60	3
83	83	10
55	55	15
50	91	1
83	88	3
48	50	4
71	71	23
81	81	21
84	85	2
63	63	20
75	77	1
80	86	2
65	67	1
96	97	3
90	90	17
95	95	15
98	98	1
66	73	3
34	34	3
32	38	4
46	73	2
69	77	4
94	97	6
37	49	1
92	93	3
31	31	18
100	100	2
72	74	3
26	27	3
102	102	3
23	95	6
76	76	21
52	52	8
99	101	3
70	75	4
52	53	2
45	46	6
101	101	22
61	62	7
37	101	6
82	87	3
70	70	13
36	37	7
38	39	4
47	98	2
49	53	2
37	37	3
35	36	2
35	37	2
34	50	1
41	57	1
47	47	9
58	84	4
45	60	2
29	30	5
33	33	8
88	89	2
63	64	5
55	56	2
25	88	5
68	69	11
74	75	16
43	99	1
95	98	5
99	99	9
93	93	3
76	80	2
89	89	19
91	92	6
79	79	15
20	20	7
97	98	3
83	94	5
70	71	12
87	88	4
64	85	1
51	52	3
55	81	1
61	84	1
85	88	1
35	101	3
84	84	11
88	88	8
76	79	3
30	52	2
65	71	2
79	85	3
72	72	10
91	96	2
37	42	2
24	24	1
40	40	11
78	79	5
40	41	3
57	57	5
86	87	5
23	26	3
58	60	4
49	49	7
34	41	1
96	100	3
91	91	10
55	69	1
43	50	3
50	58	1
54	55	4
64	74	1
64	67	1
31	89	2
44	46	2
96	98	2
42	45	2
85	86	3
56	57	5
71	74	2
46	46	5
42	42	7
67	71	2
76	78	7
23	23	2
26	63	1
49	93	2
53	53	9
53	100	1
72	73	3
28	46	2
24	25	4
48	49	3
44	93	1
45	47	2
58	59	2
75	76	3
90	91	2
56	56	10
37	40	5
57	85	1
54	54	1
33	36	1
38	101	2
27	28	1
94	95	3
89	99	2
69	76	3
45	92	1
35	58	2
51	53	3
89	90	2
42	43	3
82	89	3
23	25	2
49	50	4
67	74	2
35	38	5
98	101	1
22	22	3
70	74	2
49	51	2
26	62	1
57	60	1
69	71	1
37	38	3
96	102	1
66	68	2
61	63	2
68	73	2
69	70	3
79	88	1
65	66	4
85	91	1
24	45	3
51	94	4
44	44	2
63	68	1
46	47	2
25	85	2
57	59	1
47	88	3
50	52	1
60	61	2
28	28	2
39	40	2
63	67	1
47	48	3
53	55	2
50	100	4
32	81	1
87	89	1
93	94	1
78	84	1
67	76	1
25	26	1
34	101	1
69	72	3
73	88	1
27	27	2
86	89	1
50	54	1
22	72	1
83	93	3
25	33	2
43	93	1
81	84	1
80	81	3
20	22	4
63	73	1
59	59	3
67	68	4
73	79	1
28	29	1
27	72	1
47	97	2
23	52	2
56	59	1
70	76	1
26	26	3
43	46	1
34	38	1
27	92	2
34	35	1
83	84	1
95	96	1
55	100	1
32	32	1
34	53	3
31	32	1
28	67	1
84	87	1
73	75	1
22	86	1
56	58	1
89	92	1
27	84	1
63	70	1
23	74	1
43	44	1
41	47	1
