82	85	4
2	2	3
52	52	1
42	42	17
88	89	4
141	141	9
79	79	9
140	140	7
43	43	22
126	126	11
117	117	7
94	94	5
137	137	17
136	136	10
40	40	5
111	111	6
108	108	12
9	9	4
124	124	9
5	5	8
55	55	2
130	131	8
69	69	10
0	157	1
107	107	11
27	28	3
96	96	7
132	133	3
53	124	3
75	76	1
35	73	1
119	144	2
159	166	2
149	149	7
14	14	3
90	90	14
152	152	9
46	46	7
93	145	3
44	44	9
54	87	2
103	103	3
127	127	13
120	121	1
161	165	2
141	146	2
18	19	2
12	12	3
100	100	5
53	93	2
151	151	9
83	83	10
51	116	5
85	85	8
138	138	10
118	118	5
89	90	4
115	116	3
35	36	2
15	15	6
99	99	6
13	16	3
128	128	4
163	163	11
1	1	8
2	24	4
92	124	5
75	75	9
135	135	16
95	97	2
70	113	2
11	11	2
144	151	2
82	126	10
150	150	14
154	163	2
144	144	5
70	70	14
9	10	1
56	56	9
160	160	9
77	77	10
143	143	6
93	93	5
118	119	5
34	34	18
129	129	8
89	89	12
145	145	10
116	116	12
148	170	4
155	158	2
97	98	2
11	12	7
51	56	1
143	160	3
26	26	6
139	139	7
135	136	4
156	156	7
41	41	6
70	71	3
4	5	2
147	147	5
114	114	4
5	6	1
131	131	5
27	27	7
112	113	4
70	78	4
77	78	3
47	55	1
48	48	7
133	133	10
142	142	2
24	41	3
111	113	2
66	66	10
96	97	5
82	82	10
75	95	1
113	123	1
81	89	2
38	38	2
148	150	1
69	70	4
140	167	2
123	130	2
123	123	3
52	53	1
84	84	6
63	63	11
41	74	1
54	54	7
153	153	3
53	91	2
81	81	4
139	140	2
160	163	2
107	108	5
35	35	14
47	48	8
95	95	2
83	105	2
56	80	1
162	162	3
124	125	1
44	45	2
54	82	5
58	74	3
155	155	9
106	133	3
85	87	2
0	0	3
25	27	5
93	94	3
142	165	1
112	112	9
21	138	1
37	37	6
8	8	7
65	65	7
101	102	2
105	105	6
26	44	2
146	170	2
23	48	3
140	142	2
37	38	1
84	86	1
90	91	4
68	69	4
104	136	3
72	72	11
90	130	5
170	170	10
109	109	7
55	56	2
116	117	1
80	80	2
77	102	1
162	167	6
14	15	4
57	62	1
139	144	2
158	158	4
22	22	6
53	90	5
113	113	2
119	119	6
122	122	3
49	92	1
139	142	4
33	33	3
82	86	6
47	79	2
90	99	2
165	165	6
54	55	1
154	154	4
6	11	3
83	84	5
103	136	3
168	169	3
7	7	4
78	78	4
114	144	1
44	74	2
48	79	3
157	157	2
159	159	12
55	92	2
33	34	3
132	132	2
128	129	1
3	3	2
117	120	1
20	22	1
153	154	2
24	24	4
130	132	2
13	14	3
104	104	3
125	126	2
20	139	3
45	46	2
50	51	4
98	98	6
160	161	4
164	164	7
19	19	5
117	132	1
125	125	2
51	51	5
86	87	7
103	133	2
36	36	4
8	26	1
102	102	3
34	110	2
106	106	8
53	54	3
130	130	1
68	114	3
159	167	2
17	17	1
3	4	3
145	146	1
1	144	5
21	21	4
149	150	1
148	148	1
146	153	2
121	121	2
134	134	3
87	92	1
6	6	2
116	145	1
79	91	1
62	62	2
74	74	4
49	55	1
147	148	2
53	92	1
115	115	4
120	120	1
26	55	1
57	58	2
2	5	2
26	27	1
116	154	1
17	18	1
76	77	2
103	105	4
103	132	2
137	138	1
102	103	1
163	164	3
14	156	3
86	86	2
154	159	2
7	167	1
107	133	2
57	57	3
18	18	6
163	165	2
117	118	1
16	16	1
119	120	6
69	80	1
17	43	2
118	132	1
108	131	1
94	95	1
4	4	2
99	102	1
129	130	4
4	6	1
0	1	1
116	120	3
20	39	3
19	24	1
110	110	3
155	156	1
71	71	2
73	116	1
117	142	2
9	14	2
140	166	1
105	133	1
136	137	4
97	97	2
49	84	1
46	50	3
160	165	2
13	13	2
6	10	2
100	122	1
117	131	2
110	111	1
25	25	1
23	23	1
20	24	1
101	101	1
99	143	1
87	87	1
109	110	1
90	96	1
126	133	1
20	20	2
92	93	1
3	11	1
88	109	1
151	152	1
100	101	1
72	73	1
169	169	1
105	131	1
104	118	1
98	138	1
125	127	1
54	57	1
3	6	1
10	14	1
69	113	1
35	53	1
103	104	1
