0	1	5
33	33	12
8	8	14
24	24	10
53	54	8
44	44	19
6	6	8
57	58	4
6	14	1
36	36	14
8	77	1
41	41	9
36	37	2
30	30	13
34	35	2
35	36	11
26	26	3
55	67	4
22	22	10
22	25	3
35	42	9
40	41	5
1	1	4
47	48	6
64	66	1
58	74	6
23	77	1
67	67	9
75	75	6
59	64	1
48	49	3
59	61	6
55	56	3
40	40	18
46	46	16
65	65	8
47	47	14
77	77	8
13	13	20
41	42	4
18	19	4
27	32	2
44	70	2
33	34	7
52	52	3
53	53	17
58	58	6
70	70	4
50	64	4
70	71	1
12	12	17
43	43	1
42	68	2
74	76	2
60	61	6
31	40	1
41	43	3
54	54	12
49	67	6
66	66	5
25	26	2
48	48	5
31	71	2
35	35	3
71	71	5
4	4	9
68	70	3
51	51	7
7	7	10
75	76	2
69	69	2
43	44	14
63	64	3
60	60	15
19	25	1
2	2	7
25	25	10
9	10	5
62	62	7
19	28	2
42	42	8
38	38	12
18	18	9
9	9	14
35	51	2
13	27	4
59	59	7
61	61	13
0	0	6
49	49	2
10	77	7
20	21	3
76	76	10
76	77	4
72	72	2
64	64	6
3	12	2
29	32	2
70	73	2
20	20	9
23	23	14
56	56	21
10	15	1
11	29	1
62	63	4
56	57	4
73	73	12
45	45	7
63	63	5
71	74	2
9	13	3
5	5	10
55	55	5
11	11	6
21	21	10
37	37	2
61	69	5
39	39	7
22	23	8
9	12	8
19	19	6
21	47	2
71	76	3
29	29	5
1	2	1
71	75	1
57	63	2
74	74	5
57	57	11
58	63	6
68	68	3
54	60	3
41	63	3
28	28	2
27	28	2
25	28	5
29	33	3
51	65	1
54	55	1
8	23	1
64	67	2
21	48	2
72	73	4
34	34	4
13	14	1
64	65	1
18	46	2
31	32	4
31	31	3
0	22	1
44	66	1
66	67	2
51	60	2
10	10	10
41	76	2
46	47	2
45	47	2
1	23	3
55	62	1
20	26	1
49	50	2
51	52	4
6	8	1
57	69	1
39	69	2
39	50	1
1	22	2
5	8	1
32	32	2
3	4	3
26	27	1
73	75	2
19	20	4
35	43	2
48	50	1
3	3	8
32	33	1
2	3	2
43	50	1
59	74	3
71	72	4
19	29	2
34	41	1
24	26	1
25	29	1
44	45	1
44	51	1
69	70	1
34	46	1
2	4	2
20	22	1
24	25	1
28	29	3
36	53	1
65	66	2
59	60	3
37	47	1
31	76	3
37	39	1
49	58	1
52	53	2
3	22	1
11	12	1
64	68	1
52	54	2
75	77	1
5	6	1
8	20	1
27	29	1
56	61	1
