68	68	5
7	23	6
124	124	3
78	80	2
184	188	3
37	38	4
52	54	2
29	29	2
167	167	5
1	3	5
150	155	1
185	189	5
99	103	2
151	153	1
95	106	2
74	74	2
39	46	2
182	182	3
1	1	1
170	174	1
67	68	2
174	181	5
136	140	1
110	127	2
140	141	2
17	17	5
148	148	1
137	142	3
42	42	2
80	100	2
140	156	1
16	16	4
154	157	2
188	189	3
161	173	2
156	162	5
18	18	2
40	45	2
27	27	4
85	90	2
79	84	3
27	28	2
125	127	6
120	124	1
168	169	2
169	176	2
111	116	1
186	188	4
131	135	3
53	53	7
23	23	2
58	74	1
164	166	1
47	47	3
165	168	2
16	20	2
131	132	4
139	146	2
143	150	3
135	135	1
112	113	1
138	150	2
93	93	5
5	25	1
72	80	2
35	35	1
185	187	3
4	21	2
147	150	2
25	25	5
32	39	1
94	94	6
68	72	2
93	94	3
24	25	4
94	101	2
95	96	2
38	44	2
125	134	2
71	71	6
85	87	1
127	127	1
18	24	3
94	100	5
56	56	2
125	125	3
168	176	1
166	190	1
39	40	4
150	159	4
53	56	6
40	42	2
189	190	1
57	60	3
137	151	4
123	124	5
162	179	5
158	158	5
41	42	1
95	98	2
55	55	4
143	151	4
145	147	2
183	183	1
2	11	3
103	103	2
133	149	3
62	62	1
142	142	5
87	99	2
65	65	2
20	30	1
13	13	6
23	24	1
159	159	2
115	119	1
77	88	1
62	74	1
103	119	1
12	41	1
79	96	2
97	100	2
7	9	4
139	140	2
114	137	2
173	182	2
12	12	3
178	178	3
130	142	2
138	139	1
90	97	3
84	84	3
168	168	1
96	100	1
18	19	1
89	89	2
11	11	2
105	105	1
155	155	3
14	14	1
95	101	2
146	157	1
90	91	5
156	158	1
121	121	1
71	75	2
7	7	2
75	76	3
114	129	1
165	166	3
173	174	2
179	182	2
153	157	1
14	29	2
101	115	2
116	121	2
17	27	1
171	171	2
139	152	1
181	187	3
78	90	2
167	169	3
76	85	2
108	122	1
165	177	2
117	123	4
115	126	1
5	5	1
151	154	3
12	20	2
20	24	2
143	145	8
38	38	5
31	42	3
41	44	1
45	45	3
36	36	4
127	133	1
182	188	1
157	157	1
133	134	2
86	87	2
12	13	1
4	4	3
121	125	2
31	39	1
146	150	2
27	35	1
33	33	1
129	129	3
30	39	1
99	106	1
23	25	2
43	46	3
118	132	4
110	110	2
34	38	2
24	24	3
80	81	3
160	170	1
4	5	3
130	139	6
61	61	2
56	58	2
81	88	3
48	48	2
180	187	1
180	181	2
82	94	2
89	91	1
188	188	5
146	152	1
6	7	1
92	94	1
98	108	2
130	131	1
41	47	5
175	186	2
66	68	5
111	119	1
78	86	1
74	85	2
123	126	2
99	99	1
23	34	1
10	17	1
37	39	3
183	184	2
25	35	2
14	72	2
132	141	2
83	83	2
55	56	1
119	136	1
75	82	2
58	58	1
5	20	2
153	155	3
3	15	1
54	56	1
59	61	2
162	162	1
114	122	1
37	40	1
35	42	3
116	117	1
8	12	5
155	166	1
185	185	3
133	138	1
100	100	2
24	28	1
89	90	3
2	3	2
26	29	2
148	154	1
180	186	1
153	153	4
0	82	4
8	8	1
10	22	2
4	11	1
60	68	1
141	143	6
44	45	4
6	12	2
104	104	1
3	3	1
128	141	3
105	113	3
125	133	2
157	168	1
17	18	2
86	98	1
189	189	3
163	183	1
146	167	1
92	97	1
166	168	3
82	96	3
0	1	2
95	95	2
73	83	1
61	64	2
92	110	1
57	57	4
151	151	2
130	133	1
32	34	1
59	59	3
10	10	4
109	109	4
103	112	2
104	119	3
43	56	2
162	168	2
116	126	1
13	32	1
127	129	1
143	161	2
168	181	1
7	16	1
78	81	1
111	118	2
21	21	3
76	86	2
143	152	3
16	17	2
86	102	2
134	150	2
85	94	1
18	23	2
181	183	3
77	79	1
103	107	1
117	118	2
22	22	2
19	29	4
73	87	1
36	44	2
8	9	1
22	24	2
159	161	1
169	179	3
6	22	1
156	164	4
60	60	2
84	96	2
181	189	1
65	66	1
106	106	2
179	184	3
118	119	2
121	126	2
73	74	1
70	81	1
85	85	3
145	149	3
27	36	1
177	178	1
44	44	1
127	135	1
136	159	1
126	135	1
135	140	1
113	113	2
185	188	1
187	188	3
92	92	1
71	74	2
176	182	2
12	16	2
141	151	1
21	22	3
120	121	1
43	64	4
130	130	2
187	187	1
106	118	1
162	164	1
144	146	1
110	117	1
173	173	1
175	176	2
114	114	2
162	175	1
152	152	2
129	134	5
139	139	2
10	15	3
31	31	2
131	139	3
108	118	2
98	98	4
112	112	3
79	83	2
180	180	1
158	166	1
19	24	3
158	170	1
56	64	1
66	67	3
84	97	1
190	190	3
168	187	1
19	28	1
0	11	1
75	88	1
69	92	2
134	136	2
128	150	2
171	183	1
10	20	1
22	29	1
65	67	1
11	29	1
77	77	3
127	130	1
116	119	1
7	12	5
112	114	1
66	70	1
92	93	1
5	6	2
107	117	1
73	75	1
122	123	2
184	185	1
73	80	1
156	156	3
134	134	2
147	158	2
58	71	1
55	68	1
104	111	3
158	163	3
99	112	3
66	77	1
38	39	1
2	2	1
176	188	1
82	113	1
114	120	3
174	187	2
12	23	2
36	46	3
169	177	1
128	137	1
141	141	2
123	131	2
129	140	2
111	114	1
94	109	1
179	180	2
108	108	3
176	181	2
152	154	1
154	169	1
39	42	1
36	37	1
115	121	1
70	70	1
118	122	1
86	86	1
146	146	1
56	59	1
103	169	2
44	48	3
164	167	1
186	186	1
106	110	1
18	29	1
152	155	1
40	56	2
179	183	1
102	103	1
143	144	1
15	28	1
5	23	2
173	179	2
6	11	1
88	98	1
26	64	1
124	125	1
178	184	1
22	27	1
146	149	2
136	143	1
151	162	1
76	77	1
42	48	3
172	189	1
2	5	1
68	71	1
177	186	3
140	152	1
39	39	1
91	94	1
13	22	1
46	48	1
122	132	1
58	65	2
11	12	1
25	28	1
32	40	1
151	177	1
19	27	1
71	76	1
107	107	1
36	38	2
170	173	1
175	175	2
145	161	1
26	26	1
68	77	1
129	136	1
168	174	1
102	102	1
187	189	1
69	87	1
72	84	1
136	146	1
172	174	1
166	169	1
23	32	1
66	71	1
176	176	1
84	91	1
90	106	2
2	17	2
165	165	1
164	164	1
64	65	1
90	110	1
94	105	2
118	120	2
161	177	1
169	169	1
131	131	1
90	93	1
178	186	1
177	177	2
66	66	1
185	186	1
23	29	1
20	21	1
110	123	1
158	159	1
30	31	1
107	108	1
7	22	1
118	121	1
175	177	1
82	84	1
141	147	1
156	165	1
137	159	1
53	55	1
138	145	1
65	72	1
130	132	1
32	32	1
