45	45	4
100	100	2
67	70	1
93	112	5
21	37	4
100	112	6
80	103	3
21	74	2
28	36	3
65	71	2
109	109	9
59	80	2
83	90	1
23	52	2
47	57	2
67	77	1
29	37	4
101	103	4
98	101	8
90	93	3
59	59	3
47	79	3
19	19	7
112	114	6
49	49	9
71	73	4
102	115	3
56	58	3
43	81	4
21	65	2
112	113	3
95	95	4
111	111	7
101	101	3
36	36	9
64	73	1
34	35	3
48	49	6
88	92	1
92	92	4
77	78	2
25	30	3
30	55	1
94	94	4
113	113	9
107	107	6
81	82	3
62	63	4
103	103	6
57	81	1
92	113	3
40	40	7
71	71	9
106	108	3
29	29	5
27	33	2
96	96	5
22	39	2
94	95	2
37	60	4
73	74	2
69	69	4
81	81	7
26	26	3
33	36	6
53	69	1
48	70	3
105	107	3
92	110	1
96	101	1
90	104	1
96	104	5
87	92	5
30	30	5
71	72	3
84	84	3
49	50	3
106	106	4
37	37	4
99	101	3
49	69	2
35	35	3
78	78	4
38	52	1
25	25	5
33	51	5
63	70	1
57	64	1
83	88	2
82	82	4
45	66	1
32	32	5
40	41	1
23	24	3
53	53	7
62	62	9
82	109	3
57	77	3
34	36	1
98	109	1
63	78	1
60	72	6
91	91	6
50	69	3
74	82	1
43	43	4
54	55	1
22	23	3
73	73	7
58	77	1
77	77	5
62	76	5
20	20	3
27	27	13
26	28	1
90	90	4
48	48	3
83	103	2
97	97	4
97	98	1
50	50	6
67	67	2
44	74	2
65	72	3
111	114	1
104	104	2
44	78	2
110	110	4
83	104	2
23	23	3
67	81	3
65	67	2
112	112	2
52	52	2
21	21	4
87	87	1
25	26	5
84	90	2
31	47	1
111	113	1
57	57	3
106	114	1
30	36	2
38	38	5
83	83	2
64	72	1
108	109	2
31	45	2
36	37	4
65	65	3
76	76	5
34	34	2
55	55	2
43	44	2
60	61	2
37	39	1
43	57	1
39	40	1
99	99	2
106	107	5
70	91	2
108	108	2
56	57	3
71	85	1
102	102	1
68	73	1
70	78	2
68	85	1
46	46	3
57	68	1
29	30	1
63	63	2
47	69	2
56	81	1
53	54	1
85	85	2
100	107	1
67	68	6
20	26	1
75	75	3
58	58	2
60	97	2
67	91	1
60	80	1
98	112	1
89	104	2
74	76	1
41	41	3
68	68	2
60	70	1
56	56	3
82	102	2
96	97	1
65	91	1
59	75	2
20	47	1
82	84	1
46	78	1
58	74	1
97	101	1
47	54	1
19	26	1
23	42	2
70	70	1
91	107	1
23	44	1
48	74	1
21	34	1
31	40	1
88	108	1
76	102	1
54	54	1
85	106	1
