110	110	12
7	7	3
79	79	7
58	61	3
121	122	5
132	132	11
10	10	14
96	97	3
80	80	15
33	35	5
94	95	3
42	43	5
55	57	3
91	113	2
118	122	7
58	58	2
97	98	3
122	122	8
1	4	3
99	99	7
15	15	5
36	57	2
32	32	6
19	50	4
81	81	6
3	9	2
14	24	1
4	4	5
23	25	1
112	112	9
50	50	5
45	62	3
131	132	6
59	60	5
57	63	4
96	96	9
26	28	5
112	128	5
118	118	5
15	23	6
116	122	2
75	75	7
30	30	12
133	134	5
3	4	8
3	3	4
58	59	4
43	43	4
126	128	2
127	128	3
7	45	5
82	132	2
92	93	2
13	24	5
126	126	3
16	37	2
68	75	2
78	114	1
44	44	4
19	57	2
55	55	9
113	119	3
34	34	13
123	123	10
35	80	4
27	27	5
98	98	6
32	63	2
26	27	1
13	13	10
29	29	12
83	83	4
4	31	4
45	45	3
115	116	3
124	125	1
14	14	10
82	82	16
1	2	1
2	2	18
43	48	7
4	5	11
91	92	10
120	120	10
106	106	7
47	78	3
117	118	3
52	58	3
108	110	6
34	134	2
57	57	3
8	8	15
117	120	2
72	72	3
63	65	1
93	93	18
69	69	11
28	28	19
56	57	11
0	52	2
17	17	11
108	119	4
112	114	3
66	90	1
100	100	4
101	131	1
34	37	3
50	66	1
121	121	9
16	38	2
9	9	3
109	109	22
12	27	3
62	62	1
103	123	1
35	35	6
62	63	7
97	99	2
43	53	2
90	90	4
73	73	11
85	90	2
20	21	4
97	132	4
113	113	9
97	120	1
67	67	3
88	88	11
0	1	5
102	102	6
124	124	2
6	6	3
60	61	5
78	79	3
61	62	2
100	131	2
84	86	3
85	85	1
88	113	2
29	92	7
35	78	2
66	66	7
118	121	1
33	34	2
19	19	16
25	25	5
77	77	5
43	64	3
46	46	3
102	135	2
50	57	3
97	114	1
128	128	5
107	107	9
134	134	4
52	52	3
35	36	2
11	11	7
116	116	3
83	113	5
100	123	2
33	33	9
10	80	4
69	76	2
84	84	8
87	88	3
43	56	3
92	124	4
19	21	6
105	105	11
90	117	4
119	119	9
106	108	1
71	111	3
57	64	5
101	135	4
14	54	2
116	119	1
114	115	3
95	95	7
20	20	4
49	49	4
99	120	2
4	10	1
116	124	1
3	25	3
78	78	2
87	87	2
15	22	3
62	97	3
74	74	10
64	78	3
107	117	8
120	121	1
115	115	5
50	69	2
94	94	1
71	96	1
133	133	4
8	17	2
52	95	1
88	108	1
60	60	7
19	20	4
103	103	10
5	5	9
105	135	3
59	59	4
111	111	6
30	32	1
26	26	9
30	35	2
14	42	5
91	91	8
29	30	2
91	93	4
68	68	5
65	68	1
132	133	2
108	108	4
6	9	3
106	132	3
44	45	2
2	3	4
18	18	9
99	100	3
56	79	1
53	53	6
14	52	3
76	76	11
82	94	2
12	12	1
54	54	2
116	133	1
84	100	2
4	11	2
82	108	3
112	118	3
1	10	2
43	62	3
86	128	1
99	104	2
17	28	1
15	16	1
77	78	8
23	23	3
75	77	1
9	10	6
86	86	2
42	42	1
70	96	2
52	78	1
130	132	2
61	85	1
104	104	8
63	63	3
92	95	1
45	46	1
48	80	2
114	114	3
14	15	2
57	58	2
58	60	4
70	75	2
108	112	3
85	86	4
52	54	4
62	117	2
71	71	9
89	89	2
65	66	1
28	32	1
1	3	2
117	117	5
64	68	1
99	101	3
115	124	2
54	55	3
124	126	4
25	26	2
82	125	2
24	24	7
97	97	9
101	101	5
20	120	2
14	45	1
6	13	2
106	107	1
86	121	1
69	70	2
86	88	2
81	83	4
109	112	1
6	10	2
38	38	3
107	108	3
16	16	3
53	58	1
91	94	3
77	79	3
70	70	1
90	91	3
101	102	2
11	30	1
64	64	3
22	22	1
24	25	1
61	63	1
72	76	1
60	113	1
131	131	3
7	92	1
15	38	1
82	87	1
60	66	1
92	92	4
84	99	3
58	78	1
129	129	1
21	23	3
7	13	1
64	65	3
89	90	1
61	61	1
52	53	2
16	20	5
30	45	2
123	124	1
130	130	3
83	112	1
128	129	5
129	130	1
124	127	1
118	119	1
9	11	1
61	86	1
65	65	3
8	9	1
103	104	2
72	73	1
36	36	4
103	126	2
3	38	1
84	85	1
6	7	1
124	135	1
49	50	2
31	37	3
131	133	1
79	82	2
92	94	2
32	38	1
47	47	2
32	35	1
22	23	1
67	91	1
63	78	1
125	125	3
48	83	1
5	119	1
56	56	1
119	120	1
0	0	2
122	133	1
1	70	1
85	87	2
129	131	2
65	110	1
21	24	1
53	54	1
1	1	1
31	118	1
52	86	1
9	47	1
12	38	2
26	44	1
82	107	1
31	32	2
51	77	1
88	122	1
112	120	1
112	115	1
16	18	1
130	131	1
6	26	1
31	34	1
5	11	1
17	18	1
131	134	1
2	7	1
18	19	1
31	35	1
61	70	1
37	37	1
113	117	1
3	13	1
25	27	1
