108	109	3
14	14	11
115	115	15
35	35	10
38	38	14
88	88	10
30	30	10
117	117	11
77	78	7
23	24	5
129	129	8
4	5	3
107	111	3
47	47	13
79	98	2
0	0	7
7	7	10
59	61	2
28	28	7
34	34	8
120	120	9
97	106	3
8	8	10
27	28	3
56	91	6
118	118	11
76	76	14
87	88	2
107	109	1
72	72	18
13	103	4
69	88	4
119	120	6
75	75	20
82	85	3
27	27	9
4	43	3
21	24	4
34	35	5
27	29	3
74	74	8
59	60	6
69	69	4
126	128	1
17	17	4
96	96	1
77	84	2
118	119	3
82	82	5
83	85	7
114	115	5
110	110	14
6	6	6
57	60	1
9	9	13
50	50	2
113	114	2
36	36	7
21	21	13
111	111	9
107	108	6
96	98	5
43	43	10
85	124	1
58	58	5
75	120	1
121	121	8
71	73	5
5	5	7
46	46	12
59	70	2
64	65	3
32	32	3
2	3	4
111	112	8
85	86	3
55	92	5
130	130	10
78	78	14
77	77	9
110	111	3
40	40	7
57	57	8
71	72	4
14	15	3
61	61	10
126	126	13
36	39	4
25	26	5
16	16	6
23	23	6
107	107	11
92	92	7
103	104	5
106	111	1
115	116	7
101	101	12
40	41	1
95	97	2
18	18	9
62	66	4
15	15	11
113	113	15
36	43	3
121	123	1
62	62	9
94	94	12
13	13	5
114	119	1
65	65	12
66	66	10
114	114	4
17	20	1
98	99	3
10	10	10
104	104	11
22	22	7
56	57	1
130	131	2
21	22	4
4	4	3
63	63	10
44	44	4
84	84	6
134	134	11
81	81	7
42	42	2
105	105	6
6	7	3
94	134	3
94	95	3
121	128	1
8	9	4
128	129	1
123	123	16
94	131	1
102	102	6
128	128	6
89	90	2
120	121	3
78	82	4
20	20	7
36	37	1
93	94	5
43	44	9
35	37	2
117	118	5
12	12	10
10	28	2
95	95	3
133	134	2
123	124	3
45	61	3
60	70	2
28	29	3
33	33	2
31	32	4
100	101	3
99	99	2
100	100	1
46	70	1
123	130	4
14	108	2
68	68	10
41	41	2
87	87	6
47	48	3
119	119	7
10	16	1
75	79	3
59	59	12
106	107	1
64	64	5
81	90	2
10	17	1
37	37	5
131	131	5
124	124	8
18	39	1
68	69	4
125	125	3
22	25	5
11	14	5
124	125	1
55	55	4
104	106	1
79	79	6
56	60	1
60	60	4
29	30	1
82	83	1
82	87	1
116	116	4
93	93	7
11	16	2
84	85	6
63	69	2
101	102	4
75	76	1
102	107	1
37	38	4
20	21	2
103	111	3
122	123	4
56	83	3
103	103	4
98	98	4
2	121	4
28	30	3
90	90	5
88	130	3
78	79	2
57	103	2
117	119	2
2	2	6
73	73	2
4	39	2
17	18	4
19	39	1
16	25	4
99	100	3
97	98	4
21	50	2
122	122	13
86	86	9
59	84	2
11	12	3
81	91	1
133	133	4
126	134	1
104	113	1
60	84	1
74	89	1
48	121	2
109	109	4
3	9	1
32	33	4
11	11	8
66	68	1
41	104	3
101	109	2
8	55	1
45	45	2
35	40	2
123	134	3
97	97	7
27	32	2
96	97	2
90	91	3
56	89	1
14	31	1
100	130	3
93	95	1
25	25	3
41	43	2
70	70	5
111	116	2
2	19	3
75	110	1
86	88	1
64	119	1
4	14	3
18	19	1
74	75	2
47	62	1
80	114	2
79	81	1
108	108	5
6	40	1
102	104	3
26	26	3
2	60	2
76	78	2
36	38	3
1	62	2
76	96	1
73	74	1
39	41	1
44	45	1
82	84	5
80	80	4
68	119	1
129	133	1
29	29	2
111	113	3
19	19	10
35	36	1
1	2	1
112	112	6
36	59	2
3	7	1
1	1	3
83	83	6
115	133	1
7	8	2
4	13	3
131	132	1
6	83	2
11	15	2
48	48	2
38	63	2
24	24	1
79	105	1
23	26	1
45	46	2
60	63	2
57	63	2
39	43	1
34	40	1
59	119	2
106	106	5
95	96	4
27	58	1
9	11	1
49	49	2
16	17	1
83	86	1
12	20	2
27	30	4
18	61	1
32	34	1
59	73	1
11	24	1
125	126	4
90	92	3
85	126	2
8	84	1
44	125	1
41	58	2
108	114	1
3	4	2
65	68	1
39	39	2
86	87	2
20	35	1
66	73	3
75	86	1
60	71	1
26	27	3
6	11	1
78	80	1
132	132	2
80	109	2
89	89	1
5	10	2
6	17	1
129	130	1
31	31	3
58	59	1
3	3	1
55	56	1
67	67	3
57	58	1
19	38	2
8	16	1
12	48	1
28	44	1
41	57	1
28	48	1
125	133	1
35	45	1
125	130	1
30	31	2
44	59	1
24	27	1
57	122	1
71	71	2
92	93	1
79	109	1
67	68	1
50	60	1
129	131	2
81	101	1
32	38	1
55	114	1
31	40	1
17	24	1
61	65	1
121	127	1
41	42	1
110	133	1
12	46	1
19	20	1
5	6	1
127	127	2
85	116	1
78	100	1
40	42	1
73	75	1
58	95	1
44	47	1
85	85	1
18	20	1
16	20	1
39	59	1
