69	69	3
41	42	6
96	180	3
15	16	8
23	23	5
40	40	4
142	142	16
74	74	13
81	81	12
188	188	9
24	24	9
39	39	15
192	193	1
110	110	6
186	186	10
64	64	20
184	184	20
45	45	14
169	170	4
89	89	7
130	131	5
105	106	4
16	16	9
114	114	6
19	19	5
119	119	9
190	190	13
129	134	6
12	12	10
113	123	5
147	147	4
160	160	5
129	129	4
52	53	5
30	30	12
128	148	2
96	97	5
70	70	9
18	18	15
47	47	17
78	78	10
86	88	1
33	33	5
58	58	7
173	183	4
101	101	11
6	6	8
148	148	9
159	159	14
179	179	9
21	23	1
31	34	3
127	127	16
10	37	4
96	96	6
37	37	8
95	97	6
128	128	8
95	95	9
146	153	2
134	134	8
163	163	3
62	62	6
53	53	13
195	195	12
34	34	4
56	56	9
37	38	7
196	197	4
113	124	2
189	189	12
135	137	6
72	72	7
20	25	1
71	71	12
49	49	1
116	117	2
102	102	3
52	52	7
121	121	4
10	10	16
182	182	3
130	130	6
185	185	6
135	135	9
183	183	15
43	43	8
55	55	10
160	161	1
108	108	12
115	121	4
99	99	6
41	41	8
114	116	1
155	155	18
99	179	1
176	176	8
136	136	6
66	67	1
4	4	1
111	127	10
174	174	6
194	195	2
94	95	3
177	177	5
25	25	8
141	141	10
44	44	8
61	61	15
197	197	7
63	63	5
24	40	3
124	124	13
36	36	5
87	87	10
145	145	9
109	109	8
69	119	2
99	100	4
69	73	4
158	158	4
27	28	1
115	115	6
151	151	4
178	181	1
54	55	7
11	11	8
14	14	11
159	160	3
94	94	9
168	168	6
143	143	5
111	138	7
116	122	6
31	31	4
42	42	3
144	145	2
40	41	5
69	155	2
149	149	11
118	118	3
83	83	2
106	106	7
140	140	4
20	20	14
46	46	7
13	13	4
152	152	6
97	97	6
168	194	4
172	172	12
49	51	4
8	41	4
132	132	1
59	60	4
124	125	7
9	44	5
81	82	3
44	45	4
83	86	3
68	68	7
8	22	5
107	108	4
0	4	1
145	151	1
39	40	6
144	144	5
150	150	2
9	9	10
57	57	6
66	66	6
11	12	2
129	130	1
18	28	1
61	64	1
27	34	2
188	193	2
107	110	3
103	103	1
5	5	4
121	122	5
27	27	5
113	113	3
100	100	10
97	98	5
130	139	1
168	187	1
70	122	1
161	161	4
73	74	4
86	123	2
167	168	2
123	123	3
166	166	6
117	117	2
171	172	2
54	54	5
64	65	4
108	141	1
9	24	2
12	46	2
84	84	4
116	116	2
18	133	5
17	29	2
95	96	10
146	146	7
134	135	4
38	39	3
67	67	3
93	103	6
53	54	4
15	32	2
178	179	1
17	18	3
175	176	4
105	143	1
38	38	5
15	15	4
122	122	14
131	132	4
81	83	2
194	194	5
63	76	1
63	64	2
1	1	6
187	187	5
148	152	3
184	185	3
47	48	2
193	193	5
133	133	2
59	59	2
29	29	7
173	173	4
8	8	3
12	13	2
151	152	5
33	34	1
11	13	3
117	118	2
145	172	1
73	73	2
87	88	5
5	7	1
48	48	8
175	175	3
88	88	1
66	72	1
97	175	2
163	164	3
45	46	7
51	52	1
126	127	2
8	9	3
111	111	4
100	101	1
190	191	3
192	192	4
0	0	2
32	32	7
48	49	2
22	23	2
156	156	3
50	50	6
65	67	3
167	167	2
187	189	1
185	186	1
167	169	2
122	149	3
75	76	1
74	160	2
99	102	4
144	175	1
22	22	1
120	120	7
107	109	2
2	43	1
180	180	1
178	178	10
72	73	6
69	70	2
2	3	1
107	107	2
157	157	3
141	143	1
69	71	8
65	66	2
159	192	2
14	33	1
149	186	3
21	114	1
60	60	4
10	38	1
76	76	2
109	137	2
154	155	1
50	51	2
86	87	1
19	27	3
68	69	1
142	172	1
141	142	3
127	149	1
170	170	3
161	162	1
71	72	5
112	112	2
19	20	3
174	176	1
137	137	3
31	32	3
173	174	2
5	43	1
156	195	3
134	136	2
164	164	2
86	86	2
7	7	2
143	144	2
11	114	1
100	103	2
20	129	1
7	8	1
2	2	4
146	151	2
167	171	1
153	153	3
10	11	1
87	123	1
84	155	4
17	133	1
169	169	7
105	105	1
162	162	1
139	139	4
156	157	2
126	126	2
28	29	2
3	3	2
59	61	1
66	68	2
131	131	1
107	143	3
65	65	2
147	148	3
155	156	1
138	138	1
136	141	3
135	140	2
99	101	3
151	172	1
12	126	3
12	125	2
23	114	2
79	79	3
150	151	1
28	28	1
57	60	2
8	24	1
123	124	3
118	119	1
29	31	1
158	159	2
30	31	4
144	172	1
171	171	3
83	160	2
146	148	1
25	26	1
49	50	2
160	162	1
68	79	1
158	192	1
22	24	1
96	98	1
131	134	1
133	134	1
179	183	1
90	90	1
16	17	1
15	31	1
21	21	2
125	125	1
70	71	2
67	68	1
97	180	1
88	121	1
109	141	1
123	155	1
128	129	1
139	140	1
196	196	1
181	181	1
26	26	1
5	42	1
195	196	1
18	19	1
72	156	1
149	150	2
42	43	1
135	139	1
157	158	1
112	113	1
