55	129	1
66	68	2
37	38	4
122	122	6
133	133	3
68	68	1
98	100	2
3	3	6
2	5	6
74	104	3
38	38	3
6	8	4
59	59	3
125	125	7
22	23	1
26	26	3
115	115	2
72	74	1
60	60	4
44	44	4
34	34	5
82	82	7
28	28	4
12	12	14
111	111	6
76	76	5
61	61	3
119	119	3
18	21	2
15	15	5
121	121	5
5	6	1
109	110	3
30	80	4
116	116	5
6	6	5
119	121	3
1	1	1
128	129	7
56	60	3
10	11	2
8	10	1
17	17	7
64	64	1
72	76	1
60	61	1
66	69	4
87	87	3
105	105	10
43	43	2
117	124	3
2	2	3
81	81	5
99	99	7
23	23	6
86	106	8
88	88	2
101	101	23
134	134	3
100	100	9
33	33	8
119	120	2
113	114	1
25	25	4
82	106	4
127	127	3
75	75	5
16	17	2
122	123	1
23	25	1
27	27	4
94	134	1
14	14	6
85	106	3
114	119	1
94	94	10
52	52	4
70	70	7
135	135	2
110	110	3
8	8	6
71	71	6
105	106	1
127	133	1
57	60	1
22	22	2
108	110	3
123	123	2
23	24	3
10	10	4
1	2	2
74	74	6
52	70	2
29	33	1
26	27	1
93	93	1
22	25	6
0	93	3
69	70	1
45	45	1
130	132	1
71	126	2
131	131	2
63	63	6
113	113	3
104	104	5
112	112	1
7	8	2
56	56	1
108	108	4
60	69	1
32	80	2
94	120	2
84	84	2
59	127	1
13	32	2
91	91	2
24	24	3
117	117	8
111	112	1
0	30	1
131	132	4
13	13	5
21	22	1
0	0	5
19	37	3
0	94	2
36	36	2
47	51	1
65	65	5
72	72	3
90	107	1
14	32	4
35	37	2
54	131	2
55	55	2
74	75	7
127	129	3
114	114	3
13	27	1
11	11	6
4	4	1
71	93	2
103	104	2
47	117	1
102	102	4
49	49	3
101	102	1
124	130	2
73	73	3
53	53	2
61	62	1
66	66	1
8	13	2
69	69	4
37	37	5
129	130	4
21	21	1
71	72	2
51	53	3
49	125	3
129	129	1
58	67	2
19	19	1
132	132	1
62	66	1
84	105	3
1	72	2
27	28	1
50	50	1
92	92	4
82	84	4
118	119	3
124	131	1
16	16	4
113	115	1
89	89	2
82	83	2
59	60	1
85	85	2
117	118	1
73	74	1
126	126	1
63	67	2
14	29	1
126	128	3
50	53	1
4	5	1
93	120	1
87	91	1
116	117	3
109	109	1
67	67	3
57	57	1
77	79	2
130	131	3
54	54	2
62	63	1
15	17	1
107	107	4
30	88	1
18	22	3
80	80	1
88	93	1
121	122	1
115	118	1
106	106	3
108	115	1
112	113	2
108	111	1
103	103	1
130	133	1
79	79	2
107	108	1
5	5	2
71	94	1
18	43	1
33	34	1
116	118	1
77	77	1
34	35	1
29	29	1
48	48	1
49	109	1
109	116	1
30	31	1
120	121	1
30	32	1
48	108	1
20	20	1
134	135	1
61	69	1
110	111	1
118	118	1
98	98	1
124	124	1
