115	115	2
136	137	13
172	172	20
130	130	6
138	138	2
75	75	4
79	79	5
82	93	1
87	87	11
173	174	5
83	83	8
60	63	5
100	100	11
162	162	6
6	7	2
39	39	19
88	165	3
106	106	14
6	48	2
186	186	7
21	72	2
19	19	8
38	39	2
159	179	9
176	176	3
92	100	1
66	66	5
53	99	3
10	10	10
60	60	5
7	7	8
34	35	2
147	147	12
188	189	2
92	92	4
158	158	4
87	106	1
37	38	4
43	44	6
134	134	10
31	31	3
118	118	5
47	47	10
146	146	6
137	140	3
152	152	6
25	29	1
142	146	2
43	43	9
81	81	7
169	170	2
162	169	1
86	86	22
73	146	5
101	101	10
109	153	4
93	94	15
16	16	13
123	123	4
5	8	2
49	99	4
13	13	15
130	132	3
35	35	10
174	174	20
107	157	1
13	81	2
187	187	3
38	79	2
109	109	2
91	93	3
127	128	4
185	186	2
113	120	3
171	172	2
4	4	18
165	165	9
74	74	5
3	3	5
112	128	2
37	37	7
84	84	14
53	53	9
65	66	8
160	161	5
61	64	3
35	99	4
150	150	11
40	40	6
125	125	9
129	129	7
29	29	8
120	121	1
174	177	1
12	14	4
65	65	23
170	180	1
7	34	6
8	12	2
11	11	10
99	102	4
22	22	7
82	82	8
189	189	10
78	81	2
35	36	4
169	169	12
104	108	5
97	97	8
102	108	2
143	143	4
88	139	2
62	63	3
72	74	3
14	14	16
63	110	4
20	20	7
64	64	11
104	145	2
70	70	6
40	41	3
3	6	2
7	92	4
118	138	3
179	179	5
14	18	1
10	14	1
28	28	4
163	163	6
117	156	1
63	63	8
17	18	7
137	137	7
58	65	3
178	179	2
6	8	5
123	125	4
146	147	1
151	175	5
88	88	11
152	183	4
56	56	10
133	133	9
113	113	12
182	182	8
42	112	2
0	143	4
181	181	7
25	25	13
31	36	3
18	19	2
96	96	13
46	46	5
124	126	4
93	93	5
21	21	12
112	122	4
104	104	14
76	76	12
12	16	1
5	5	7
23	23	3
144	144	3
184	184	6
125	126	9
14	19	2
142	142	9
53	54	6
59	59	10
155	155	5
77	78	3
17	17	6
15	98	1
59	60	3
38	38	6
12	12	4
134	135	2
28	53	1
155	166	3
122	131	4
58	58	6
111	111	3
33	36	1
59	84	4
2	2	4
164	164	3
142	145	2
167	167	3
12	13	7
67	67	9
34	75	1
78	105	3
25	26	4
4	5	7
95	95	7
90	90	3
84	165	3
71	71	5
23	154	2
86	105	2
69	69	3
73	77	3
183	183	6
154	156	5
42	42	11
117	121	4
41	41	15
151	155	6
163	167	2
48	48	3
188	188	11
55	88	4
27	28	3
140	140	7
108	109	2
115	116	4
11	14	4
57	57	7
180	180	6
42	62	3
156	161	7
122	122	6
46	47	2
0	0	2
112	130	1
115	121	5
89	89	10
24	55	4
19	163	2
177	177	10
15	93	3
127	127	4
9	10	1
26	26	6
26	32	6
18	162	1
15	17	1
155	160	2
181	185	3
151	184	3
173	173	4
44	44	1
15	15	4
71	133	2
94	94	2
151	152	6
117	118	3
175	175	11
130	135	2
85	108	1
116	118	1
80	80	12
189	190	2
17	81	1
1	1	13
168	168	7
151	151	9
128	128	3
36	36	7
86	106	4
3	8	1
141	141	8
175	181	5
157	157	5
116	121	1
103	103	2
154	154	10
153	170	1
55	55	9
172	173	2
179	186	1
5	46	1
88	164	3
128	133	2
85	106	8
105	105	9
84	85	6
108	108	1
163	164	4
165	166	2
160	160	8
115	123	2
146	150	2
48	140	2
170	173	5
73	76	1
21	24	2
154	155	1
190	190	11
138	139	5
52	148	1
178	178	12
72	72	16
45	45	6
170	182	4
160	172	1
32	32	2
8	92	4
124	124	8
181	182	2
170	170	1
45	46	2
171	173	2
139	139	3
179	180	1
20	80	3
25	54	5
176	177	3
174	175	3
121	122	4
92	94	1
91	91	4
78	78	3
45	135	1
156	160	2
119	135	1
78	83	2
171	171	3
23	29	1
41	43	2
134	142	1
107	109	3
74	75	4
153	154	2
116	116	6
48	145	2
47	147	7
178	180	2
33	35	1
128	129	1
62	62	5
175	176	9
120	187	1
182	183	3
151	183	2
148	148	6
42	111	3
61	61	6
130	133	1
120	130	1
164	166	1
9	9	2
144	146	3
42	110	3
10	12	4
118	137	1
127	138	4
166	169	1
77	77	6
175	180	3
54	149	4
20	161	3
17	103	1
111	112	3
30	30	4
16	17	5
152	153	3
23	143	1
120	123	2
127	187	2
10	17	3
127	133	3
117	117	2
98	98	8
21	38	1
79	168	2
119	119	5
31	32	3
8	16	1
4	20	3
40	54	2
102	103	1
1	2	1
85	85	3
131	131	1
153	153	3
118	121	1
1	4	1
121	121	3
21	22	3
151	156	1
54	54	4
58	99	3
0	3	4
44	150	2
20	168	1
64	65	2
76	152	3
10	21	1
112	112	4
25	53	3
137	138	1
89	106	1
76	157	3
116	157	1
11	16	1
157	158	3
7	93	2
126	127	2
99	99	3
106	108	6
89	166	1
132	133	2
86	100	1
24	24	7
23	73	2
35	95	1
159	162	2
136	138	1
13	16	1
176	186	1
184	186	2
85	86	1
77	107	1
175	179	3
55	56	1
57	63	1
145	145	1
45	150	2
111	184	1
186	187	2
148	149	1
60	72	1
54	141	1
1	39	1
71	72	1
22	150	1
68	68	6
89	107	3
54	97	1
102	102	3
73	73	6
6	6	4
137	141	1
131	135	3
167	168	2
178	186	1
68	142	1
17	20	1
139	143	1
120	131	2
136	140	1
70	71	2
63	66	1
147	148	2
109	111	1
101	102	1
91	98	2
18	18	4
102	109	1
109	152	1
157	162	2
120	120	1
87	88	1
100	151	1
156	172	4
136	136	1
11	21	1
27	29	1
41	45	1
154	166	1
102	106	1
143	145	1
81	82	1
37	75	2
116	117	1
19	92	1
132	132	2
114	114	4
86	87	1
114	120	3
0	2	1
129	134	2
159	159	2
14	15	1
24	54	1
42	85	1
42	57	1
71	111	1
24	79	1
74	76	1
21	147	1
121	123	1
0	1	1
27	27	1
4	44	1
4	83	1
39	40	1
42	46	1
186	189	2
164	165	2
53	148	2
174	176	1
58	84	2
159	160	1
88	110	2
41	42	1
100	103	2
176	179	1
0	27	1
161	162	1
126	126	1
166	166	1
67	123	1
23	31	2
89	90	1
156	156	1
131	134	1
41	83	1
107	107	2
118	119	1
39	97	1
141	146	1
32	36	1
28	29	1
82	94	1
101	129	1
45	103	1
8	8	1
112	180	1
26	31	1
11	30	1
135	139	1
19	94	1
149	149	2
130	131	1
24	25	1
158	162	2
97	98	1
0	34	1
18	155	1
11	13	1
134	141	1
47	143	1
110	184	1
39	70	1
36	37	1
120	132	1
92	93	1
96	98	1
36	99	1
17	77	1
82	83	1
15	94	1
139	148	1
26	39	1
