193	193	8
173	177	4
26	26	16
205	205	7
4	4	3
70	107	2
50	50	3
76	86	1
168	170	2
180	180	4
86	86	17
56	56	10
8	8	5
84	84	3
183	183	4
241	242	2
62	62	3
62	75	1
208	208	5
169	169	3
117	117	10
182	182	4
46	84	2
186	186	1
67	67	9
219	219	11
118	119	10
182	183	4
244	245	3
208	224	1
226	226	7
56	190	2
109	109	3
20	20	13
27	27	7
112	112	12
181	181	3
200	206	1
106	106	4
69	69	7
155	156	2
54	54	7
91	91	5
4	6	2
101	107	3
42	44	2
211	212	3
174	175	3
74	75	3
168	168	3
100	100	4
232	232	3
52	52	4
224	224	4
244	244	8
22	22	4
38	38	4
57	57	8
235	235	9
157	233	3
36	38	3
184	219	4
47	47	5
17	17	1
9	10	3
43	43	6
36	37	1
154	154	6
11	197	2
199	200	5
85	86	1
158	158	8
75	77	5
16	16	9
225	225	10
54	55	2
3	3	9
215	215	2
0	0	1
94	94	3
152	152	6
177	178	4
1	29	2
200	200	1
6	10	2
170	170	4
42	42	11
223	226	2
231	231	3
243	244	1
184	184	4
201	202	9
212	212	6
59	59	1
214	217	2
48	48	1
83	83	3
238	239	7
87	87	5
209	242	6
37	38	1
6	6	9
68	68	5
178	178	6
15	15	1
78	78	9
80	80	1
90	92	3
11	228	3
105	107	1
151	151	7
187	228	1
162	163	1
172	172	3
153	153	6
114	118	2
48	49	3
78	118	3
79	86	1
167	167	3
242	242	5
65	65	8
214	214	4
50	51	4
145	150	3
162	162	4
180	181	1
230	231	1
207	248	1
95	97	2
5	5	2
176	176	1
227	227	4
29	29	4
56	244	3
46	46	2
101	101	4
175	175	3
218	218	5
75	75	3
41	41	4
247	247	2
44	44	13
159	159	1
147	152	1
14	14	7
104	104	2
206	206	7
117	181	3
14	231	2
211	242	1
24	24	4
12	12	3
156	209	3
212	213	2
44	45	4
101	102	3
204	204	2
116	116	4
208	246	1
30	31	5
215	219	3
236	236	6
146	146	7
186	213	2
163	164	3
209	209	11
95	108	1
79	80	2
63	64	1
97	158	2
167	221	3
117	178	1
210	210	4
159	165	2
159	160	2
83	84	2
64	64	2
7	227	1
12	15	2
1	1	6
23	23	9
92	92	3
56	88	1
74	74	3
30	30	3
221	221	2
197	231	1
86	108	2
85	85	5
106	107	2
19	19	3
105	105	2
6	11	3
40	40	4
120	120	5
210	241	1
201	201	6
99	100	1
231	242	2
193	194	2
66	66	8
79	79	3
53	53	2
14	18	2
80	81	3
198	198	5
3	202	3
239	240	1
6	245	2
68	70	1
171	179	2
203	203	2
221	222	1
116	117	1
39	39	4
70	71	1
63	63	2
156	185	3
170	171	5
37	37	6
47	48	1
95	95	5
104	107	2
11	12	1
66	67	1
71	71	4
87	89	3
246	247	6
190	190	1
171	172	6
82	82	4
9	9	4
155	155	6
77	77	3
203	209	2
34	35	1
56	62	1
88	88	4
243	243	2
40	235	4
245	245	3
149	149	3
205	206	2
71	109	1
203	204	3
70	72	1
110	110	5
229	229	5
36	39	1
2	3	1
109	110	2
10	10	2
177	177	2
160	160	2
167	225	4
33	33	4
86	87	3
78	86	1
72	75	3
120	145	1
108	108	1
221	223	1
214	215	1
32	32	3
61	61	2
43	44	1
114	114	3
216	216	2
69	70	2
70	70	5
231	247	1
198	199	2
21	21	1
49	50	2
157	157	2
93	197	1
33	34	2
81	81	2
55	55	2
188	190	3
228	228	2
94	95	1
156	156	3
233	233	1
198	234	1
214	218	1
210	211	1
217	217	3
95	111	2
113	120	1
223	223	6
185	185	2
19	227	3
174	174	2
66	80	1
154	156	1
213	213	2
10	46	1
18	19	3
179	179	5
213	214	3
3	6	1
62	63	1
188	189	1
91	109	1
216	217	2
219	224	1
173	173	3
32	155	1
7	228	2
157	231	2
111	112	1
198	216	1
181	223	1
236	237	1
17	238	3
219	220	2
246	246	1
90	90	1
160	166	2
185	186	1
154	155	1
22	24	3
1	203	1
176	177	1
215	217	1
163	163	2
32	33	2
207	207	2
25	25	1
86	109	3
245	246	1
72	72	1
118	152	1
198	221	2
187	190	2
146	147	1
93	175	1
107	107	1
105	106	4
236	241	1
78	79	3
4	5	2
95	96	2
52	53	2
165	165	1
97	97	1
119	119	1
21	22	1
161	162	2
201	208	2
150	150	1
211	211	2
66	86	1
89	89	2
192	192	1
200	238	1
113	114	1
31	31	1
15	16	1
240	240	1
10	11	1
166	166	1
70	86	1
112	113	1
102	102	1
171	171	1
3	198	1
41	42	1
158	195	1
16	17	1
96	96	1
90	190	1
110	111	1
111	111	1
153	170	1
96	101	1
71	85	1
28	28	1
161	232	1
58	58	1
8	151	1
19	226	1
145	145	1
