22	24	2
0	0	10
85	85	5
115	115	8
18	18	11
118	119	2
1	1	11
31	38	5
127	129	1
100	103	2
100	112	2
14	23	2
90	90	13
11	12	3
79	112	5
76	77	3
104	104	13
20	20	4
73	73	8
4	26	1
98	124	6
77	77	8
95	95	11
106	109	3
109	109	21
28	37	5
75	90	7
120	120	7
21	23	4
87	88	6
22	26	2
110	111	3
37	131	4
83	83	10
82	82	12
89	89	7
75	82	1
84	85	2
30	30	4
11	28	3
127	128	4
10	30	6
138	138	11
17	18	3
67	76	2
81	85	6
16	17	4
98	102	2
121	124	3
80	83	3
71	71	9
106	107	1
11	11	7
137	137	5
103	103	5
71	91	2
31	36	1
121	126	5
134	134	9
21	21	8
6	7	6
92	93	3
7	37	5
89	93	4
91	111	2
10	34	4
32	33	3
75	75	11
26	37	9
27	33	3
22	22	5
98	111	7
10	10	7
88	103	2
121	122	2
117	118	4
92	92	3
0	10	2
93	93	5
9	9	6
16	16	10
25	25	8
110	110	3
1	24	4
84	100	2
86	86	12
139	140	3
26	38	3
111	111	2
27	27	5
89	91	5
111	115	1
100	100	11
100	101	7
2	2	21
81	97	5
82	86	1
135	135	4
109	121	5
72	72	15
78	105	4
108	108	10
95	99	3
135	136	2
100	122	2
13	15	2
8	8	12
132	133	3
13	14	5
94	94	6
14	14	5
91	93	2
115	128	1
126	126	3
4	19	2
79	79	17
74	74	6
98	98	10
115	129	5
77	105	5
83	84	2
81	81	9
15	15	2
77	78	9
139	139	2
120	123	1
29	29	4
11	29	3
15	20	1
122	122	7
71	72	1
82	112	1
23	23	6
78	85	4
35	35	5
102	102	1
12	12	18
31	31	1
112	112	3
5	5	7
24	25	1
104	105	2
77	93	1
15	16	3
101	101	11
97	100	1
114	114	3
71	89	7
10	20	4
97	116	3
70	71	1
26	36	2
34	36	5
132	132	4
91	91	5
140	140	4
94	95	1
17	17	4
76	80	5
75	76	2
7	7	10
71	77	2
97	97	5
106	126	2
30	32	3
97	112	1
24	24	12
129	129	4
14	16	3
89	90	3
77	86	1
101	111	1
103	131	2
105	122	2
33	33	3
88	107	5
4	92	2
116	118	1
30	31	5
15	18	1
73	78	4
26	26	3
0	1	2
17	19	1
34	34	8
116	121	2
28	28	3
30	34	2
12	16	1
0	30	2
3	91	4
25	26	2
84	98	3
107	122	3
76	88	3
107	107	4
118	120	2
5	93	3
21	128	1
79	81	2
36	36	1
97	99	1
101	103	1
124	124	6
136	136	2
106	121	2
84	87	4
23	25	6
73	105	4
100	102	3
78	79	2
101	113	2
105	125	4
37	38	4
103	104	2
2	13	1
101	114	3
99	100	3
133	133	2
128	128	6
72	78	1
96	96	2
113	118	2
15	17	5
137	140	2
14	37	1
6	6	1
15	33	2
5	21	2
118	118	5
130	130	7
10	28	2
81	87	4
105	108	1
80	81	5
109	127	1
83	98	1
120	121	3
91	92	1
26	102	4
28	31	2
109	110	3
32	32	2
98	100	1
135	137	3
4	4	3
83	95	1
83	87	1
7	10	2
70	89	1
109	120	3
90	108	3
27	30	1
5	24	1
24	26	4
134	138	1
78	93	1
87	93	3
113	113	3
124	126	2
1	2	1
115	116	1
119	119	4
110	121	2
95	96	1
96	97	1
79	83	3
87	87	5
87	90	2
84	121	2
116	117	1
99	99	1
1	3	2
8	30	2
8	18	1
108	110	1
0	3	1
10	19	2
6	36	2
102	110	1
80	88	3
101	104	2
17	33	1
23	34	1
82	83	1
88	88	1
7	36	1
104	107	2
127	127	4
81	84	1
10	17	1
90	93	1
104	109	3
21	25	1
11	18	1
92	103	1
78	78	1
79	80	3
109	126	2
114	117	1
102	105	2
83	97	1
5	6	1
78	83	2
121	131	1
24	28	1
13	13	1
3	3	1
123	123	5
14	26	3
116	116	1
124	129	1
7	8	2
29	31	1
76	76	1
13	34	1
1	22	1
38	38	2
12	15	1
27	34	1
105	105	2
29	30	2
2	12	2
121	121	2
19	19	1
99	117	1
31	35	1
23	28	2
113	121	1
126	130	1
125	131	1
97	132	1
117	117	1
85	97	1
29	32	1
37	37	1
98	99	1
1	12	1
9	10	1
0	2	1
113	115	1
106	120	1
35	131	1
14	18	1
33	34	1
11	21	1
1	6	2
110	133	1
77	91	1
108	109	1
126	127	1
