2	6	2
5	5	6
76	80	4
72	75	2
55	59	6
61	72	3
69	71	5
27	28	6
8	12	3
79	79	5
52	53	3
11	11	4
75	75	4
54	58	5
30	32	5
53	53	7
6	11	6
72	72	5
76	77	1
39	39	1
3	4	5
41	48	3
78	78	6
15	19	2
46	47	5
78	79	1
69	69	2
29	29	4
71	71	4
45	47	3
74	76	5
54	67	2
6	7	2
21	21	1
52	54	3
25	25	5
1	1	8
60	61	3
14	16	4
49	50	7
70	70	14
2	5	7
31	31	5
62	63	6
51	51	4
71	72	4
55	55	4
6	6	4
46	46	1
13	13	9
3	10	4
36	39	2
9	10	4
20	20	4
64	65	2
72	76	3
58	60	3
19	19	4
13	17	2
62	67	2
56	60	2
59	65	4
71	75	3
69	76	1
15	17	5
70	72	5
74	77	3
28	28	5
60	64	4
17	19	4
26	26	3
38	42	3
35	39	1
76	76	2
29	30	6
59	61	1
59	59	5
38	39	3
75	78	7
18	21	2
62	62	2
75	76	6
57	57	3
4	5	5
2	3	3
53	57	9
52	52	5
7	12	4
63	64	4
9	9	2
37	37	4
78	80	5
52	59	2
67	74	2
31	36	2
61	61	2
33	33	2
13	14	5
40	42	4
53	54	6
27	27	3
16	16	3
50	50	5
25	28	4
77	79	1
56	58	5
39	40	1
18	20	1
47	53	4
26	27	9
67	67	3
54	60	2
9	12	2
14	29	2
45	52	1
26	28	2
5	12	1
72	74	5
73	73	4
30	31	6
51	58	5
46	48	3
74	74	4
38	38	5
57	58	6
0	0	1
0	1	1
56	57	4
9	13	3
17	17	2
31	32	4
12	12	4
54	59	3
61	64	2
47	48	3
12	16	4
48	48	4
11	13	3
2	2	7
7	28	2
47	47	5
9	15	1
34	42	2
15	16	1
63	73	2
73	74	2
6	12	3
5	6	3
57	60	1
60	65	3
56	56	2
41	46	2
41	42	1
32	37	4
65	65	3
21	22	2
54	54	3
41	45	1
47	58	1
61	63	3
2	4	2
40	40	3
65	66	6
77	77	4
36	38	1
11	18	3
10	10	3
3	3	4
0	3	1
55	57	2
61	62	1
29	35	2
45	45	3
43	43	2
62	64	4
33	34	1
80	80	3
60	60	3
8	8	6
32	32	4
48	49	4
55	56	2
71	76	2
35	37	1
7	7	3
16	18	2
51	52	3
38	40	2
47	51	2
45	48	1
67	80	3
58	58	1
1	2	3
16	17	2
59	66	5
62	68	5
63	65	3
40	46	2
34	35	2
58	61	2
27	32	2
72	73	2
30	30	1
46	54	1
55	70	2
64	64	1
64	67	2
1	3	1
60	70	1
66	68	3
76	78	3
42	46	2
10	14	2
32	40	1
26	30	1
59	60	3
8	11	2
62	69	1
25	26	1
4	6	1
20	21	2
46	52	1
79	80	3
60	63	2
47	49	2
28	29	2
74	75	1
9	28	2
73	76	1
65	67	2
34	34	1
36	36	1
7	19	1
49	51	1
34	39	2
10	13	1
63	71	2
19	22	1
44	46	1
5	8	1
55	60	1
14	17	1
72	78	1
28	30	2
31	33	1
65	75	1
0	6	1
38	41	1
14	14	2
0	15	2
64	68	1
70	78	1
19	21	1
58	72	1
42	48	1
51	54	3
10	11	1
65	70	2
59	64	1
1	5	1
53	58	2
16	21	1
54	56	1
62	65	1
16	19	1
44	44	1
7	11	1
68	76	1
35	35	1
4	4	1
