89	89	3
173	173	5
9	9	9
42	43	6
40	40	4
200	209	2
188	206	3
229	229	2
133	133	10
16	16	7
240	240	5
30	30	12
156	156	9
168	168	8
25	25	6
15	16	2
136	136	11
225	225	13
143	147	2
167	168	4
179	190	8
75	75	18
181	181	10
170	170	5
194	194	5
5	6	4
201	201	24
226	228	1
129	129	11
191	192	2
97	97	11
88	114	1
107	107	10
30	31	6
172	173	3
158	158	12
202	222	1
128	128	17
175	175	12
209	209	3
139	140	5
174	174	16
134	134	12
12	13	4
200	200	6
63	63	8
210	212	1
103	103	5
26	26	15
35	69	2
44	44	9
177	177	13
85	85	8
52	80	2
99	100	1
42	42	11
19	20	3
164	164	11
217	217	9
98	98	13
155	155	3
139	168	1
48	50	4
84	84	11
108	108	9
32	32	14
142	145	2
211	213	5
3	31	5
108	121	3
57	57	18
89	113	4
99	99	5
227	227	9
241	242	1
84	168	1
31	31	8
208	208	10
73	73	12
46	46	8
149	150	2
189	200	4
54	54	15
135	135	10
218	218	12
203	204	9
189	189	12
192	193	1
167	167	13
43	43	9
34	34	10
161	161	10
55	55	7
137	169	2
171	171	19
4	4	3
224	231	2
102	102	7
236	241	3
149	149	1
125	125	6
67	67	11
156	157	8
143	146	3
210	210	8
77	78	1
18	192	9
50	50	3
17	17	7
49	50	6
106	106	4
169	169	9
212	212	9
182	182	11
138	138	13
37	38	4
39	39	7
152	152	5
233	233	13
70	70	10
62	62	8
151	151	9
120	120	12
38	38	10
228	230	2
236	236	5
180	180	7
180	183	1
195	197	3
127	127	3
60	61	4
13	13	4
148	149	8
27	33	3
53	55	7
95	95	2
1	22	3
23	23	8
51	51	4
127	128	1
68	68	7
3	18	8
72	72	8
242	242	10
178	179	2
115	115	12
139	139	7
76	76	8
15	15	8
192	192	10
3	3	19
203	205	2
170	171	3
47	48	3
137	159	1
11	236	4
75	86	3
224	224	12
61	61	3
194	211	6
196	196	4
154	154	5
44	45	2
23	25	1
37	37	12
77	79	5
5	5	3
200	201	4
22	22	5
232	232	12
105	105	6
17	205	3
144	144	8
73	75	1
180	181	6
190	190	12
0	0	13
193	195	1
49	49	6
226	226	14
213	213	9
223	224	5
156	158	5
176	176	3
191	191	7
5	29	3
24	24	5
197	199	6
157	157	8
103	104	2
219	219	11
82	86	1
61	62	6
121	121	10
21	21	2
15	48	1
13	60	1
234	234	6
220	220	4
64	64	8
229	230	3
124	125	7
109	109	4
39	44	1
118	120	2
101	182	2
197	197	4
79	79	8
80	80	11
171	192	1
31	82	2
106	124	3
65	65	12
79	80	2
8	231	3
20	20	8
48	48	8
198	198	7
46	47	1
146	146	7
216	218	1
24	69	4
116	116	7
60	79	2
155	190	5
81	81	3
28	29	5
228	228	8
110	114	2
154	155	3
114	114	5
204	204	4
172	194	3
59	59	6
183	183	6
86	86	3
12	12	15
237	237	7
28	31	2
104	104	1
98	99	1
8	8	5
101	101	3
185	185	5
206	206	3
88	88	3
78	78	3
69	69	4
58	66	1
67	75	5
85	86	2
45	46	1
67	121	3
58	58	19
66	67	4
235	236	2
173	176	1
135	136	2
96	97	4
126	126	9
199	199	2
137	137	4
178	178	11
2	2	6
153	153	6
236	238	4
160	161	4
237	238	3
227	238	2
232	233	3
239	239	10
241	241	1
185	186	2
202	202	7
70	71	6
235	235	4
30	58	1
71	71	9
16	17	2
219	220	4
178	192	2
212	213	4
199	200	3
150	150	4
220	225	1
18	18	5
40	41	1
133	134	4
165	165	3
238	238	2
153	208	3
239	240	3
4	6	2
66	68	3
66	66	5
223	223	1
80	81	5
234	236	4
3	32	1
6	6	4
115	117	1
1	6	1
230	230	4
7	8	4
177	178	2
192	197	1
54	55	2
154	156	4
33	33	10
77	89	1
231	231	5
109	110	6
184	184	13
221	221	1
144	146	1
65	75	2
6	8	1
40	42	6
179	179	4
141	142	1
159	159	10
146	157	3
209	211	1
28	28	5
27	28	4
203	220	5
140	141	4
112	112	1
47	47	2
167	177	1
29	29	6
4	12	1
78	200	2
207	208	1
132	132	6
195	195	6
172	172	5
226	227	2
182	203	2
114	115	3
105	126	1
67	68	5
160	162	5
45	45	11
25	37	3
133	191	1
149	152	4
189	191	1
11	207	2
49	205	6
159	182	1
27	27	8
213	215	2
137	138	1
103	105	5
18	32	3
11	24	1
206	207	1
214	214	6
119	120	3
146	149	3
148	148	4
30	32	1
154	157	2
205	206	5
1	2	2
128	135	3
4	29	1
32	56	1
14	177	1
1	3	2
193	193	2
111	111	5
131	131	2
123	123	5
95	96	4
4	164	3
1	1	1
140	140	3
238	240	6
125	126	3
213	223	2
48	49	3
145	145	6
175	202	3
216	216	1
50	80	2
59	60	2
21	22	2
52	77	3
50	51	5
117	117	2
72	73	1
118	121	1
0	7	1
146	175	3
16	23	1
173	174	2
78	79	4
19	29	1
162	165	4
36	36	2
68	72	3
130	130	2
215	215	11
149	155	3
120	121	4
52	52	4
23	24	2
190	235	1
53	53	3
17	33	2
17	18	2
75	76	5
54	61	2
7	7	7
166	166	1
29	30	1
188	189	3
181	182	2
82	84	2
217	218	7
216	242	1
221	232	2
65	66	5
57	60	1
10	47	2
210	213	2
205	205	5
188	205	1
173	207	1
184	185	1
108	109	5
14	16	1
189	190	1
11	11	1
180	182	2
140	146	1
60	60	9
186	186	5
39	40	5
239	241	1
143	143	6
36	54	1
172	182	1
147	148	4
33	35	1
15	18	2
168	174	1
75	95	2
134	135	4
188	188	2
56	56	3
19	19	6
49	64	1
16	148	1
10	11	2
126	127	1
63	70	2
155	158	1
122	122	3
187	191	2
17	30	3
187	187	3
119	119	3
35	36	2
114	116	2
188	204	1
26	231	2
227	229	3
36	37	1
157	159	2
37	240	2
199	216	2
155	161	1
175	187	4
211	211	4
51	53	1
68	69	2
219	232	1
56	69	1
203	203	3
184	187	2
105	107	1
92	115	2
163	163	4
124	126	2
33	36	3
37	45	2
12	178	1
35	35	4
66	76	1
202	219	2
9	10	2
118	118	4
202	205	1
161	187	1
128	129	2
116	117	2
82	82	3
122	123	1
74	74	2
31	42	1
162	162	3
121	129	1
52	53	1
139	141	1
61	63	2
29	238	2
95	103	1
159	160	4
123	124	1
160	160	4
147	175	1
4	5	2
160	170	1
156	189	2
115	118	2
207	207	3
107	108	2
171	178	1
50	205	1
171	172	1
5	202	1
193	197	2
231	233	2
174	175	6
143	144	1
24	25	1
199	203	2
185	191	1
56	57	1
28	235	1
133	180	1
41	117	1
1	5	1
204	205	2
86	96	2
111	141	1
74	75	2
234	235	1
43	81	1
14	14	3
224	225	1
181	192	1
207	213	3
26	75	2
218	219	1
86	87	2
41	115	1
243	243	1
100	125	1
117	125	2
3	5	1
113	114	1
41	41	1
87	88	1
221	226	1
141	143	1
101	102	1
221	222	1
144	145	2
21	200	1
107	129	1
198	199	1
121	122	2
136	137	1
2	3	1
169	170	2
225	228	3
174	182	1
26	28	2
24	86	2
146	147	1
100	100	1
101	150	1
222	222	1
41	42	1
30	43	1
24	236	1
82	83	2
28	101	2
37	39	1
91	91	1
111	112	2
111	113	1
230	231	1
171	173	2
186	187	1
122	141	1
39	114	1
70	181	2
159	209	1
80	84	1
11	12	1
153	154	2
24	45	1
51	52	1
56	184	1
163	208	1
169	171	1
20	21	1
38	40	1
138	139	1
14	57	1
109	116	1
107	118	1
85	88	1
18	19	1
41	59	1
83	83	1
