77	77	18
19	19	13
51	51	11
48	50	1
55	55	13
50	50	15
84	85	6
5	12	2
27	27	14
67	67	24
52	52	13
58	59	4
23	60	1
12	12	19
23	23	13
53	54	3
46	56	1
74	74	4
22	33	3
56	56	10
57	58	4
7	8	10
52	76	4
26	26	19
4	4	16
59	60	2
76	76	15
56	72	6
7	27	1
72	72	14
81	81	8
6	6	9
79	79	17
24	24	14
22	22	9
56	62	1
86	86	14
32	34	3
56	85	2
73	73	7
8	8	10
50	52	2
21	21	6
35	46	1
84	84	10
78	82	4
50	62	2
60	60	12
5	17	5
55	59	1
8	28	2
78	78	14
49	68	1
48	48	8
19	23	1
9	9	12
70	74	1
1	1	14
17	18	1
47	48	2
49	71	4
83	83	12
73	74	4
69	69	25
50	78	2
66	66	14
80	83	3
3	12	5
28	29	1
61	61	9
71	71	8
82	82	10
14	14	1
10	56	1
0	0	9
26	51	2
15	15	10
64	64	8
9	17	1
89	89	4
68	68	20
29	30	2
26	27	2
0	1	4
5	5	6
86	87	9
3	3	15
57	57	8
62	63	4
82	84	10
47	47	17
46	46	8
54	55	11
11	12	7
63	63	8
13	13	12
30	47	1
8	26	1
65	65	18
2	2	15
25	25	7
4	17	4
28	28	12
51	52	4
62	62	4
5	18	3
26	76	1
9	10	7
77	78	7
54	54	14
78	80	8
58	58	11
80	80	11
1	2	5
88	89	2
62	65	1
48	84	6
64	65	4
7	7	5
85	85	12
25	49	3
15	47	3
1	3	2
20	20	7
10	10	7
24	66	3
3	46	4
75	75	5
33	33	4
54	72	1
53	69	1
53	66	2
81	84	1
88	88	7
53	53	8
10	13	2
13	70	3
75	78	3
4	13	2
17	17	16
60	61	3
59	61	12
54	78	2
27	28	1
4	15	2
7	10	3
86	88	1
90	90	3
34	34	4
6	10	2
68	69	4
30	30	7
74	75	7
49	50	2
31	33	1
75	76	4
5	32	1
5	6	2
59	79	2
55	57	2
23	26	1
9	13	2
11	27	4
61	63	2
78	79	1
18	29	1
8	23	2
21	22	4
70	88	2
23	25	3
15	16	3
79	80	7
61	82	3
82	83	2
54	70	2
3	22	1
5	26	1
59	65	5
1	19	1
49	49	9
24	30	1
53	55	2
72	73	2
25	31	1
22	23	2
11	49	1
11	14	6
10	29	1
19	48	1
35	64	3
70	70	4
79	82	1
72	74	3
48	63	1
10	21	2
20	23	1
25	27	2
59	59	5
13	26	1
87	87	6
11	11	4
66	70	1
21	23	3
52	53	1
50	66	2
31	31	14
87	89	1
56	79	2
24	26	1
83	84	2
3	4	4
0	31	1
48	56	1
63	65	5
23	24	2
12	18	1
6	27	2
53	76	1
81	82	2
20	21	2
46	47	2
76	81	1
50	53	7
12	30	1
47	57	1
63	64	2
33	46	2
10	27	2
19	20	3
21	53	4
5	9	1
10	12	2
16	24	1
29	29	1
85	86	3
19	28	3
63	66	3
59	76	1
57	68	1
50	59	1
60	62	1
6	9	2
22	24	2
17	48	1
6	18	1
70	72	1
9	24	1
5	20	3
5	66	1
52	66	2
25	65	1
77	80	1
18	18	1
6	8	1
56	63	1
7	9	1
48	60	1
87	88	1
30	66	1
51	53	3
46	48	2
56	57	1
48	68	1
51	59	1
4	11	1
16	16	2
56	59	1
51	61	1
9	16	1
71	77	1
59	62	1
50	51	2
13	17	1
46	66	1
5	82	1
5	10	1
70	84	1
59	64	1
9	11	1
30	71	1
6	26	1
47	62	1
59	77	1
7	25	1
11	21	1
12	13	1
66	67	1
59	84	1
