42	42	18
32	32	15
15	16	5
5	41	2
43	49	13
4	6	6
51	51	19
9	31	3
12	52	2
24	25	4
44	44	30
2	2	13
11	30	5
49	49	10
17	19	3
48	50	1
48	49	5
52	52	20
39	40	5
0	1	5
33	33	16
0	0	18
47	47	24
30	30	26
10	61	4
43	48	1
44	45	17
10	10	15
53	53	7
18	21	3
15	15	12
4	4	36
57	57	24
38	39	2
53	58	2
54	54	31
46	47	6
8	8	27
10	11	5
36	36	12
55	55	11
42	43	5
19	19	15
62	62	15
35	35	6
24	24	16
12	13	2
20	20	8
22	22	24
11	11	26
17	20	3
57	58	9
40	51	4
43	43	20
34	34	23
38	59	1
46	46	13
0	17	1
38	38	30
5	5	31
31	34	2
1	1	23
55	56	5
3	3	16
37	39	5
41	41	25
17	17	21
16	16	17
17	18	12
23	38	4
13	13	28
31	31	32
45	45	24
32	35	1
10	50	2
9	9	21
18	19	3
44	59	1
23	53	2
26	26	6
25	25	5
11	15	5
30	31	7
7	9	2
48	48	10
0	16	1
37	37	26
39	39	20
52	54	3
32	34	4
40	41	3
35	36	10
40	40	22
36	37	10
20	22	4
22	23	5
59	60	8
30	37	5
50	50	17
46	49	1
16	52	1
1	2	10
4	17	3
61	61	22
21	21	17
58	60	4
20	24	4
12	12	2
4	16	2
6	7	6
20	50	3
45	46	8
53	54	12
45	47	3
11	50	2
56	56	22
14	14	8
6	6	29
33	34	4
20	57	4
31	32	1
11	12	2
40	48	4
52	53	9
16	22	3
51	52	6
20	23	1
10	51	1
40	54	5
18	57	2
58	58	8
23	25	3
54	55	6
18	18	14
5	6	9
58	59	9
31	37	3
21	22	4
3	4	5
7	7	5
23	23	6
3	35	3
5	9	1
59	59	9
9	10	9
19	20	6
4	5	4
42	49	1
23	24	5
54	60	8
14	23	4
22	41	6
8	9	10
36	39	5
34	35	2
6	8	2
43	46	6
40	53	4
21	41	1
23	41	2
16	40	1
52	55	1
11	51	2
56	57	2
13	52	3
32	36	2
15	17	1
30	56	2
1	5	1
34	36	2
29	29	1
23	37	2
20	58	2
9	11	1
10	31	1
60	60	10
9	13	6
24	59	1
1	3	3
21	60	3
21	25	4
47	51	2
51	53	4
16	18	1
16	20	1
9	16	3
15	52	1
37	48	2
30	34	3
2	35	1
10	12	1
41	53	1
14	51	1
24	37	2
53	60	1
9	47	1
14	16	1
49	60	2
20	21	3
23	39	2
23	58	2
24	42	2
16	41	2
43	44	2
61	62	1
25	51	1
21	23	2
37	38	1
3	17	2
32	33	1
36	51	1
23	40	1
29	57	1
9	33	1
56	60	1
18	42	1
31	51	2
29	54	2
38	53	1
43	50	1
8	13	1
22	58	1
26	53	1
19	41	1
11	13	1
40	60	1
21	24	2
43	55	1
22	24	1
14	15	1
22	54	1
24	40	2
41	58	1
51	60	1
42	50	1
14	17	1
48	51	1
13	14	1
53	59	1
55	57	1
16	17	1
2	3	1
