58	59	1
68	85	1
64	65	1
122	122	5
131	131	4
37	39	5
65	68	3
74	74	7
65	65	6
90	92	8
62	62	6
7	7	5
103	103	9
77	78	14
99	110	3
64	64	8
61	61	11
126	126	10
0	0	4
75	75	3
87	87	4
69	69	13
80	80	2
53	54	8
108	117	1
67	67	3
125	125	1
83	85	5
119	124	1
65	66	5
124	124	10
74	75	2
7	79	1
33	33	4
76	76	2
72	75	3
80	115	5
73	73	11
71	72	2
96	112	2
100	100	4
20	20	4
93	93	4
17	27	2
65	82	1
72	72	10
79	114	8
13	13	2
5	5	9
99	99	9
17	20	3
26	26	4
119	119	6
57	58	2
16	16	7
12	12	4
95	95	7
45	64	4
34	34	3
22	26	1
69	100	2
25	25	6
3	43	1
14	14	6
33	34	2
88	88	3
43	52	1
110	111	2
18	18	1
96	96	3
35	35	6
8	8	3
29	33	1
45	51	4
110	110	2
102	102	13
84	87	2
35	36	3
71	71	2
14	15	2
42	42	2
63	63	1
70	71	6
90	90	10
0	3	3
58	58	6
122	124	3
120	124	4
120	126	3
21	28	1
105	105	4
57	57	2
35	69	4
1	1	2
68	69	2
94	94	5
37	37	4
78	87	4
98	99	4
127	127	3
10	12	3
9	11	2
1	38	4
120	125	4
118	120	1
108	110	1
78	90	3
6	44	1
59	59	5
1	2	1
53	53	2
116	116	4
68	116	1
21	26	4
134	135	2
28	28	2
109	109	1
80	128	3
55	56	1
78	78	2
45	45	2
94	95	4
113	114	1
63	89	4
22	22	4
13	15	3
130	131	2
79	79	1
3	4	4
13	14	1
76	88	1
62	64	6
123	123	3
79	84	2
104	104	5
91	91	1
131	133	2
9	9	1
35	37	2
87	89	3
48	59	5
112	112	2
84	84	7
52	53	3
62	63	3
24	24	10
89	89	4
113	113	1
86	87	1
113	117	2
120	120	6
86	86	1
68	68	4
97	120	2
16	29	1
63	92	5
5	6	2
26	27	1
76	94	3
0	1	1
109	110	2
126	127	2
31	32	2
30	30	6
69	106	1
118	118	5
91	93	1
114	114	2
6	129	1
129	135	2
43	43	4
64	87	1
28	29	4
50	50	1
92	92	5
3	54	1
1	135	1
32	32	8
81	95	1
53	57	1
56	56	2
132	133	1
76	93	1
121	126	1
45	52	1
79	115	1
29	29	3
12	30	1
50	58	1
54	54	2
83	113	1
96	113	1
36	36	5
24	25	1
79	87	1
85	86	1
121	121	1
17	17	1
2	2	2
54	55	2
4	4	1
1	7	1
130	133	1
84	116	1
97	125	1
70	70	2
82	89	1
72	76	2
114	115	1
99	127	2
101	101	2
38	38	1
67	79	1
98	98	2
134	134	2
85	85	1
37	38	1
90	93	1
60	60	2
19	19	1
11	32	1
111	111	2
75	120	1
52	52	1
128	128	2
97	97	2
66	66	1
44	45	1
112	117	1
59	60	1
79	80	1
25	30	1
124	125	1
112	120	1
0	2	1
23	23	1
11	12	1
93	94	1
