4	4	11
8	8	4
21	32	2
88	88	2
125	128	1
56	56	7
33	33	11
70	70	4
91	93	3
89	89	6
7	7	11
91	91	1
29	29	8
93	96	4
52	52	7
80	81	3
65	88	1
100	101	2
130	130	1
124	124	8
131	131	1
7	8	1
42	100	1
32	32	12
78	79	5
102	102	6
71	82	4
59	59	1
97	97	6
104	107	1
119	119	1
108	109	5
132	132	3
16	16	4
42	42	10
59	126	5
116	116	3
0	13	1
22	22	2
46	46	3
84	84	8
120	120	5
17	17	4
72	72	10
62	62	2
115	115	7
23	24	7
123	123	4
11	11	2
20	20	12
96	99	1
29	30	5
82	99	1
112	112	6
93	93	12
47	47	10
122	122	3
48	55	3
127	127	6
48	48	3
113	114	2
9	9	6
43	43	3
41	41	9
121	121	12
64	65	2
98	98	9
3	3	11
111	112	1
125	125	11
22	25	1
8	27	2
95	95	5
30	30	3
78	111	1
76	76	13
18	19	3
58	129	5
84	85	6
44	44	5
66	67	2
49	53	1
54	54	7
77	77	14
10	10	6
95	96	3
92	93	1
25	25	6
111	111	9
126	126	1
116	124	2
26	26	11
1	1	5
105	105	4
100	100	6
99	99	6
106	106	7
101	101	8
99	100	2
28	28	5
3	107	1
109	109	5
113	113	2
92	92	5
14	14	3
55	105	5
60	61	5
12	12	5
0	0	9
49	49	3
86	92	1
14	16	4
63	63	5
13	23	3
42	43	3
39	39	4
53	57	4
25	26	2
59	65	2
96	96	13
108	108	3
83	83	5
133	133	8
106	107	1
87	87	1
82	82	6
38	39	2
15	15	3
118	118	3
117	118	3
93	98	1
50	53	4
110	110	8
117	125	3
126	129	1
115	116	4
79	79	9
13	15	1
41	42	2
38	38	6
6	16	1
9	25	2
85	85	4
94	94	3
38	41	1
117	117	6
65	108	5
64	64	6
62	63	1
48	49	1
6	18	2
12	13	2
27	27	2
6	8	1
93	94	4
53	53	5
120	123	1
105	107	2
32	105	4
82	83	1
81	82	1
60	60	4
78	78	3
31	31	2
5	5	2
57	57	5
125	132	3
82	85	1
90	90	2
123	124	1
18	34	2
23	23	1
56	57	2
54	120	3
5	6	6
2	3	1
70	71	4
94	95	2
128	128	1
51	51	1
65	65	2
69	69	5
107	107	3
69	70	2
7	18	1
2	116	2
114	114	1
63	64	3
81	81	6
50	52	4
107	108	1
66	80	2
32	43	1
89	93	1
86	87	4
13	13	9
31	43	2
74	77	3
54	57	1
23	65	4
4	5	4
131	132	2
72	73	4
91	92	1
54	55	2
92	97	3
45	58	1
34	34	3
98	99	2
80	88	1
39	41	2
9	10	1
18	18	2
18	41	1
19	19	4
129	129	3
58	59	2
55	55	4
53	54	1
6	7	4
75	75	4
57	118	1
31	39	1
85	91	4
104	105	1
22	33	1
49	52	2
63	65	1
40	40	3
32	33	1
59	117	2
121	122	2
66	66	1
62	127	1
71	73	2
53	125	1
67	67	1
61	127	2
4	15	2
71	72	1
86	86	1
21	22	1
7	105	1
43	58	2
110	111	1
21	21	1
70	75	1
47	48	2
10	11	1
58	58	1
74	74	2
58	66	1
14	15	1
109	111	1
43	44	2
59	60	1
74	75	1
12	19	1
104	104	1
71	71	1
81	83	1
8	9	1
