175	179	3
38	47	4
2	3	3
89	90	1
31	31	9
66	67	3
143	143	5
96	117	4
147	147	2
59	76	1
167	182	6
75	76	5
181	184	5
97	97	3
168	168	6
60	61	3
87	92	3
21	37	6
43	46	4
67	67	3
158	158	7
93	94	7
185	185	5
137	137	2
72	74	8
104	104	3
12	17	2
109	110	5
7	7	4
70	70	2
34	34	11
149	149	8
164	165	6
144	157	4
21	22	4
127	127	5
129	129	17
152	152	15
91	91	10
59	59	3
137	140	1
40	40	9
85	86	4
183	183	17
102	105	3
17	39	1
37	43	2
157	157	8
179	179	12
39	39	5
71	91	2
148	148	8
118	119	3
163	177	2
166	166	7
32	32	5
135	135	5
14	14	4
175	175	6
12	14	3
56	57	3
159	159	11
20	36	2
166	177	4
169	169	6
27	43	4
123	123	3
43	48	3
64	72	5
2	2	4
181	181	6
99	102	2
74	74	7
179	181	6
64	77	3
0	0	4
111	157	1
121	121	2
129	136	1
154	155	3
117	151	2
23	24	4
63	63	15
4	5	7
103	105	7
153	153	7
7	31	2
76	76	4
146	147	10
64	64	8
53	54	4
59	63	3
132	147	3
96	123	1
162	182	1
88	91	2
106	106	6
23	23	6
71	96	2
52	56	3
136	150	2
64	65	2
145	173	2
118	118	3
80	80	4
72	79	5
57	71	1
101	106	5
42	57	1
29	29	3
84	108	3
16	16	2
171	186	6
107	111	1
54	54	4
0	26	2
22	22	2
106	112	2
188	188	8
126	130	2
25	41	1
110	130	3
179	182	3
6	6	3
16	17	7
118	128	3
179	184	4
141	164	1
174	174	4
139	165	3
79	79	6
119	140	1
74	82	2
35	35	8
163	163	2
107	108	3
30	47	4
79	80	5
36	57	1
160	163	4
62	80	1
70	72	4
105	105	7
24	25	1
115	118	6
145	175	3
190	190	3
177	177	5
166	167	4
133	134	4
173	187	5
186	186	4
122	122	3
81	81	4
172	178	1
17	31	3
10	29	1
163	180	1
9	9	5
24	58	3
11	11	4
112	112	5
48	53	5
26	29	2
62	73	2
86	86	8
178	181	4
37	37	3
60	64	6
64	66	2
117	120	5
122	129	1
178	178	2
144	144	11
110	110	6
150	150	4
53	57	1
38	38	6
11	12	3
15	15	4
125	125	9
61	61	3
12	16	3
102	103	3
117	150	2
53	58	2
45	45	7
130	131	5
86	109	3
129	138	3
160	169	2
119	137	4
124	124	1
72	72	9
18	18	9
157	173	2
12	13	3
101	101	3
14	30	1
118	124	2
188	189	6
181	182	4
78	78	8
78	96	7
137	151	2
90	90	1
116	116	6
5	6	3
39	46	1
143	170	3
19	19	5
164	164	7
134	135	3
149	169	1
17	17	6
109	109	7
108	110	2
13	13	7
20	22	1
28	28	3
147	149	7
88	88	4
112	163	2
90	121	3
3	5	2
38	39	3
156	159	5
40	42	1
81	82	2
36	36	6
92	92	2
8	109	1
124	137	3
170	186	1
140	160	5
36	45	2
180	180	5
167	167	5
21	41	2
115	157	1
65	65	2
82	102	2
75	75	5
67	92	4
65	68	2
28	33	2
18	20	1
57	57	3
157	170	2
101	145	3
3	3	3
140	140	9
121	134	2
21	21	7
125	150	2
120	120	2
102	109	1
166	188	3
85	85	8
0	5	2
109	111	4
126	127	1
79	84	1
10	10	7
157	165	1
13	28	1
14	109	3
100	113	1
10	46	1
163	166	1
69	77	5
24	24	4
95	98	6
68	68	2
1	1	2
90	106	3
141	141	3
182	182	1
184	185	3
108	108	1
28	70	3
54	76	1
40	47	3
124	151	1
60	80	1
70	91	1
162	162	2
68	111	1
46	46	3
88	107	2
143	162	6
82	93	4
171	171	2
122	150	2
134	134	1
187	188	4
73	78	3
74	100	2
78	105	4
113	113	5
83	84	1
84	85	4
75	96	3
31	34	4
12	23	3
188	190	2
156	169	5
100	100	3
130	166	5
189	189	4
31	32	4
94	94	5
94	118	3
3	10	1
175	181	1
77	77	2
16	22	4
73	73	1
153	167	1
94	102	1
177	188	1
84	84	8
156	156	2
167	172	2
142	143	1
161	163	1
158	160	1
72	94	2
155	156	3
4	4	4
30	31	1
133	133	2
167	168	2
119	123	1
87	109	1
154	154	6
140	152	1
102	102	3
135	139	2
27	27	4
71	71	2
142	178	2
25	25	1
62	63	1
184	184	3
126	126	2
153	166	1
111	111	2
68	78	2
123	148	4
24	42	1
140	161	5
24	47	1
53	53	2
103	103	1
185	186	1
81	91	2
163	174	1
131	131	1
174	176	1
131	156	2
34	45	2
38	56	1
2	29	1
55	55	2
66	66	2
11	24	2
129	134	1
144	145	2
137	138	1
30	32	1
183	184	1
12	34	1
55	75	1
25	53	2
138	138	2
125	132	1
8	8	2
101	103	1
120	128	1
81	98	1
71	111	1
122	124	1
158	170	1
141	163	2
111	161	1
102	106	1
114	114	2
132	132	2
56	70	1
158	159	4
101	105	2
152	153	1
120	121	1
136	136	2
120	135	2
186	187	2
176	176	1
38	43	1
34	35	1
92	97	1
40	44	1
28	45	2
42	53	2
116	136	1
90	97	1
112	113	2
160	160	2
122	123	2
90	108	3
12	32	1
27	41	1
43	52	2
83	90	1
60	76	1
34	36	1
48	48	1
148	181	1
99	99	2
47	52	3
18	46	1
91	97	1
89	101	3
127	128	3
115	120	1
91	92	2
33	33	3
107	110	1
112	164	1
24	43	1
145	159	1
179	185	1
83	126	2
84	87	1
107	112	2
75	79	1
38	40	1
5	52	1
102	118	1
129	131	3
119	119	2
87	89	1
91	94	1
32	108	2
44	71	1
180	181	1
168	174	1
68	105	1
134	140	1
187	189	2
132	137	1
162	165	2
96	97	1
106	125	1
42	44	1
58	58	1
116	118	1
2	5	1
123	124	1
138	155	1
119	124	1
60	60	1
116	122	1
170	181	1
