132	132	23
12	12	20
86	90	2
30	30	16
88	88	16
144	145	8
17	18	3
133	134	4
86	86	11
39	39	11
78	80	2
95	95	20
69	70	2
129	129	5
87	87	15
80	80	30
15	15	13
104	114	2
15	52	6
84	85	8
103	103	12
43	43	13
138	138	16
1	1	13
158	158	12
122	123	2
37	37	13
129	130	11
137	138	11
116	116	12
75	75	19
114	114	14
132	133	9
92	93	3
145	145	12
93	107	4
117	117	23
0	0	18
131	131	14
78	121	1
3	3	22
68	68	19
4	4	19
40	40	9
27	27	11
104	105	5
113	136	1
69	69	10
8	9	2
76	76	3
144	144	9
108	109	5
19	19	1
43	125	1
103	104	11
5	5	11
67	67	14
119	119	15
106	106	18
116	118	6
52	52	13
88	89	7
93	93	17
70	70	8
128	128	14
142	142	5
84	84	30
120	120	16
112	113	5
96	96	17
143	143	5
38	38	19
48	51	2
26	26	18
103	105	1
135	135	20
134	135	3
42	50	2
30	37	5
147	148	3
36	36	25
9	9	12
94	95	7
35	35	7
36	49	3
152	152	14
95	140	1
28	28	14
134	134	7
28	30	1
2	2	20
17	17	18
119	120	10
21	21	21
79	117	3
42	42	11
31	31	11
49	49	12
48	48	6
139	141	8
114	144	1
44	44	7
133	151	1
56	157	1
50	52	9
18	18	15
83	83	13
43	47	3
98	98	19
66	123	1
84	87	9
6	6	17
19	28	3
91	92	3
53	68	3
142	143	6
101	101	8
11	27	4
54	55	1
23	23	10
25	26	4
125	125	15
56	56	3
0	1	4
55	55	7
157	157	8
7	133	1
130	130	14
82	87	8
81	106	5
109	111	2
79	79	16
29	29	14
96	97	4
3	4	12
25	25	7
67	71	6
71	71	4
108	108	11
7	7	10
116	152	2
105	139	4
148	149	6
89	89	8
153	153	3
121	122	3
150	150	10
47	48	3
6	7	8
148	150	3
91	91	16
51	51	15
66	67	4
155	155	15
12	39	4
99	99	14
89	154	6
125	126	5
131	132	3
115	116	8
21	39	7
64	64	10
97	97	10
94	94	15
78	78	7
78	118	3
24	25	8
32	37	2
109	123	2
36	37	5
92	92	11
47	47	16
111	111	20
41	41	11
123	123	16
89	147	2
92	113	2
80	91	4
66	66	5
62	62	4
9	10	5
114	115	2
7	18	2
126	126	18
132	134	8
141	142	6
77	78	7
154	154	10
62	63	3
11	12	1
104	104	10
10	18	3
32	32	16
107	128	1
10	10	12
16	16	20
53	53	6
121	140	2
56	68	5
116	140	5
7	8	6
35	36	3
85	85	2
27	29	2
139	139	19
22	28	3
102	102	6
116	117	4
27	48	4
77	77	17
148	151	4
110	110	23
7	32	1
14	17	1
148	148	13
136	136	11
109	112	4
100	101	4
24	42	4
12	13	3
102	104	3
46	126	2
8	8	7
123	141	4
149	149	12
81	82	9
81	81	17
127	127	7
11	11	8
140	140	13
87	91	1
45	45	5
96	140	8
45	47	7
65	107	1
105	105	9
156	157	5
146	154	2
65	72	1
110	139	7
150	151	5
9	33	3
65	65	7
108	111	1
100	100	14
7	11	2
10	12	3
51	54	6
121	121	8
43	49	4
148	152	4
95	141	1
27	28	9
80	118	2
99	100	11
151	151	8
2	4	1
11	133	2
107	107	13
66	70	1
94	99	2
35	46	4
8	33	1
73	73	14
113	140	2
40	42	6
93	94	3
156	156	13
120	121	5
40	41	2
82	82	11
113	144	1
25	27	2
18	20	2
63	63	4
82	107	4
112	112	14
42	43	1
54	67	1
24	24	5
24	50	5
53	56	2
50	55	2
50	50	6
86	87	3
95	99	5
124	124	3
14	104	3
134	158	5
144	147	3
115	137	2
106	135	7
11	52	3
126	127	5
2	16	2
26	50	3
45	67	4
128	129	2
127	128	3
20	38	2
22	23	1
88	91	1
2	3	8
115	115	11
33	33	6
80	81	3
23	24	3
46	46	7
31	37	5
118	118	17
92	108	1
12	52	1
41	50	5
80	82	3
88	101	1
90	91	5
23	51	1
36	48	1
122	122	6
147	153	1
153	157	1
15	112	2
13	158	4
153	154	5
77	137	3
13	49	1
22	22	4
78	114	1
48	49	1
98	100	2
140	141	2
146	146	7
26	51	5
138	139	2
136	137	1
76	77	1
145	146	2
109	109	5
55	130	1
120	122	2
138	152	1
56	69	2
104	135	7
9	32	1
48	53	1
15	54	2
12	17	1
139	140	2
83	84	1
154	159	2
124	125	2
26	132	3
103	155	2
11	50	1
113	113	5
51	52	1
10	11	1
85	86	3
110	115	1
20	21	4
34	57	1
34	34	7
110	136	2
146	147	2
82	83	3
46	71	2
29	30	1
151	157	1
110	123	1
92	107	3
147	147	5
13	17	4
106	141	6
155	156	1
63	67	1
110	111	1
83	117	3
102	103	1
109	137	2
118	141	1
36	38	3
141	141	4
35	47	2
64	65	2
20	20	2
28	29	2
87	88	1
106	107	5
36	42	2
68	69	3
52	54	3
13	18	1
137	137	7
75	76	2
55	68	1
16	18	4
33	34	1
82	86	1
18	19	3
115	149	3
16	17	1
115	117	1
153	156	1
38	39	1
30	31	6
4	30	1
32	155	3
15	41	2
107	137	1
147	154	1
52	53	2
66	69	2
77	79	1
118	119	4
31	33	3
127	139	2
105	138	1
119	122	1
5	6	4
26	27	4
4	5	3
95	97	1
40	47	2
95	112	3
78	79	4
93	113	1
45	126	1
21	25	4
51	132	1
28	39	2
43	48	1
12	134	1
146	149	2
45	46	2
20	28	2
104	156	1
97	98	3
65	66	2
21	22	6
13	16	1
143	144	1
84	88	2
49	53	2
73	130	1
36	53	1
33	56	2
104	158	1
69	71	2
131	133	1
11	51	2
141	151	2
41	48	1
116	136	1
115	135	3
40	51	1
109	138	1
107	108	1
17	28	1
11	40	1
82	117	1
53	55	1
16	135	1
1	2	2
13	39	1
32	35	1
131	135	1
13	13	1
84	144	1
77	92	1
16	30	1
32	33	1
95	96	2
109	110	3
54	70	1
102	147	1
71	157	1
13	41	1
2	31	2
78	120	1
21	28	1
114	148	1
79	80	1
33	102	1
133	133	1
90	90	1
28	51	1
70	71	1
10	55	1
144	152	1
5	22	1
61	62	1
67	69	1
38	46	1
36	40	1
69	131	1
50	69	1
79	91	1
