20	20	6
34	34	8
90	90	2
125	131	3
128	130	2
122	122	4
134	134	10
72	100	4
107	108	3
129	129	11
103	104	3
2	31	4
78	80	3
78	78	14
35	35	7
111	111	7
26	26	8
7	7	12
12	12	6
113	115	3
137	137	7
34	35	6
87	87	6
122	123	3
33	33	3
12	13	2
107	107	4
14	14	14
116	116	10
97	97	5
5	5	4
101	101	11
23	23	18
139	139	6
109	109	7
95	95	7
108	108	3
7	8	2
75	75	9
27	28	1
117	123	3
82	82	3
96	116	1
27	27	10
31	31	2
79	79	5
140	140	18
85	91	1
11	11	4
110	117	3
17	17	7
133	133	6
115	115	3
94	94	8
71	75	1
81	81	10
106	106	2
10	10	5
111	116	2
123	123	3
138	138	9
98	101	3
117	117	5
126	126	6
100	100	7
79	80	4
22	22	1
132	132	6
0	2	3
104	105	3
36	36	9
16	20	4
135	135	8
0	76	2
110	116	2
92	92	4
91	91	6
4	5	8
25	25	3
102	102	12
77	77	7
72	74	2
38	38	4
124	125	2
13	13	7
96	96	8
16	16	2
26	27	5
17	21	7
3	3	6
113	113	8
74	79	4
97	99	2
131	131	8
0	3	4
9	9	1
0	0	5
15	15	1
84	84	4
86	88	1
3	69	2
21	33	2
83	83	3
19	20	3
129	132	2
9	10	5
127	127	3
129	130	3
6	7	9
18	18	10
118	123	5
71	71	6
92	93	2
115	116	1
16	17	4
102	103	7
113	116	1
17	18	3
82	102	1
95	96	3
4	4	4
131	132	2
87	88	2
136	137	2
136	136	7
114	114	8
0	75	1
37	37	5
8	8	3
108	109	1
128	133	2
13	14	2
128	128	4
76	77	4
24	24	3
74	74	3
93	94	1
8	75	3
9	24	2
88	88	13
125	125	6
125	127	2
128	132	2
6	6	6
32	32	4
31	32	3
23	24	2
112	112	4
86	86	6
5	6	1
80	80	1
30	30	6
124	124	4
98	98	8
89	89	1
20	28	4
120	120	2
119	119	4
125	126	2
88	96	3
75	107	1
103	103	2
84	115	1
112	113	4
13	23	1
130	130	3
76	76	3
120	121	1
116	117	1
19	19	1
29	30	3
1	2	2
134	135	5
16	22	3
29	29	1
36	98	2
104	104	1
20	32	1
110	111	1
35	36	1
135	136	1
1	1	1
129	131	1
99	99	1
73	75	1
10	24	1
73	73	1
110	110	1
15	25	1
88	102	1
85	115	1
2	2	1
127	128	1
28	28	1
86	87	1
75	102	2
8	73	1
114	115	2
90	91	1
78	88	1
78	101	1
89	90	1
17	32	1
22	24	1
