79	79	8
72	72	2
33	33	6
177	178	1
171	171	8
106	106	3
182	182	10
37	37	5
1	1	1
50	50	5
74	74	1
41	42	8
12	12	10
114	114	5
143	151	2
142	142	5
52	53	2
31	32	2
138	139	6
45	45	6
23	23	1
128	128	3
83	84	2
9	9	10
87	89	2
10	11	7
129	130	1
18	19	8
101	107	3
67	67	8
79	80	7
15	15	4
111	112	1
134	134	8
127	127	8
78	86	4
88	89	1
99	100	1
127	156	6
115	115	6
25	25	2
57	57	5
167	167	11
43	44	2
60	60	4
13	14	2
157	158	2
25	26	5
32	32	2
5	7	3
167	168	3
170	172	3
4	4	3
9	37	5
32	33	1
118	118	6
38	39	1
51	51	3
70	71	9
187	187	1
110	110	5
10	10	3
151	187	2
86	86	6
127	139	2
74	75	6
179	180	6
186	186	4
24	24	6
168	169	2
65	65	6
100	100	7
160	193	2
90	104	2
83	83	1
142	186	2
176	190	1
78	78	5
158	158	4
151	154	2
132	133	4
183	183	6
194	195	1
112	113	1
168	168	7
53	54	4
137	138	1
148	149	4
88	88	3
61	61	5
163	163	1
31	31	3
163	193	1
8	8	5
41	41	4
135	135	7
101	101	5
130	131	2
161	162	2
123	124	5
54	54	2
5	5	5
104	105	5
30	31	2
69	69	5
26	26	9
144	144	7
73	73	3
98	99	1
2	4	3
181	181	10
114	116	5
24	127	1
152	163	3
66	66	2
156	156	1
68	69	3
179	179	5
46	46	4
11	12	1
5	47	6
188	188	1
73	74	5
19	19	4
57	62	6
39	43	5
185	185	1
103	105	2
175	176	4
72	73	4
133	134	2
48	48	2
140	140	3
21	23	1
66	69	1
31	195	1
184	184	1
58	80	1
112	112	3
84	84	2
116	120	2
75	75	2
59	59	6
80	80	3
65	74	1
56	56	2
145	145	6
173	173	4
52	52	2
8	45	2
17	18	1
192	192	5
153	153	2
89	90	1
55	55	2
16	16	1
62	62	2
169	173	2
16	73	1
162	162	1
29	29	3
53	53	1
140	141	2
134	135	2
170	171	2
109	109	1
3	3	3
150	150	2
160	192	1
106	107	2
111	157	4
90	90	1
139	140	2
28	28	3
152	154	1
175	175	2
89	89	1
47	48	1
149	149	2
50	51	1
107	110	3
105	106	2
154	154	7
141	141	1
170	170	1
25	32	1
42	42	1
71	71	1
145	148	1
57	81	3
111	111	11
49	50	2
159	159	2
180	182	2
47	47	4
168	184	2
131	139	6
147	148	1
30	30	3
88	90	1
126	126	2
145	146	1
113	113	5
34	35	2
124	125	7
122	122	6
140	197	3
87	88	2
118	144	1
138	185	1
21	21	1
49	49	1
18	20	1
196	196	2
136	136	1
18	18	3
180	181	1
29	160	1
165	165	1
37	38	1
124	156	3
17	17	3
135	136	2
126	127	1
100	106	2
94	96	2
97	97	1
108	108	1
101	108	1
60	61	1
108	109	3
95	99	1
40	40	2
119	119	2
64	64	1
110	111	1
158	159	1
120	120	2
139	139	2
16	98	4
131	131	2
13	13	1
94	110	2
169	169	1
153	166	2
122	141	1
177	177	1
116	116	2
112	124	1
31	183	2
38	38	1
193	193	2
113	115	1
77	78	3
76	76	1
155	155	2
168	175	1
188	189	1
63	63	1
75	76	1
3	34	1
176	177	1
133	133	1
129	129	1
56	71	1
59	60	1
14	14	1
2	2	1
121	121	1
185	186	1
123	123	2
39	40	1
155	156	1
13	41	1
