137	138	3
136	141	2
52	68	1
91	91	8
78	78	1
106	137	2
28	28	7
74	124	2
30	30	5
36	36	4
133	133	3
107	108	2
77	77	4
8	8	3
15	26	1
47	47	8
138	139	2
112	112	10
74	74	3
94	95	2
58	59	3
76	76	8
123	123	5
140	140	3
128	129	6
31	31	1
41	41	12
6	6	6
106	140	2
3	3	2
4	4	6
98	98	4
121	121	9
92	93	1
20	20	3
29	29	6
73	91	2
88	114	1
118	120	3
9	9	5
136	136	2
21	81	4
77	123	1
16	16	7
26	27	1
99	99	2
24	26	3
127	128	2
95	95	6
72	72	10
19	20	2
137	137	5
130	131	3
13	13	5
30	32	1
89	89	1
26	26	12
67	67	2
34	35	1
120	123	1
50	52	3
59	61	1
125	125	8
134	135	4
135	135	2
64	65	3
108	116	3
87	87	2
136	137	2
105	105	7
112	114	1
0	0	1
88	89	3
65	65	7
103	103	2
63	63	4
142	142	3
82	86	2
117	117	10
75	81	2
116	117	2
69	69	1
33	47	2
30	48	2
22	22	3
113	113	4
101	101	4
52	52	1
86	86	6
57	57	2
60	60	5
35	36	1
138	138	4
104	105	8
121	122	4
51	51	3
25	25	5
85	88	2
124	131	2
123	130	3
111	113	2
92	100	2
105	132	3
27	27	9
81	81	5
101	121	1
106	106	3
66	66	4
93	93	5
140	141	4
141	141	5
96	96	5
132	136	1
49	67	4
33	33	5
42	42	4
131	141	3
17	17	3
18	18	6
120	120	2
19	19	2
99	100	3
24	24	1
113	114	1
5	5	7
34	42	3
94	94	5
32	32	5
96	126	2
26	37	1
77	135	1
17	22	2
115	116	2
54	54	11
77	130	4
141	142	1
49	49	6
23	24	3
97	98	5
100	100	5
112	113	2
118	118	3
75	75	2
37	37	8
39	66	3
15	15	2
129	129	3
73	73	7
18	19	4
14	19	1
124	125	1
104	104	5
114	114	2
35	54	2
53	54	2
58	58	3
38	38	4
21	21	5
129	130	1
41	67	5
142	143	2
128	128	3
25	43	1
17	21	1
107	117	5
53	53	4
40	40	2
110	112	1
116	116	1
16	22	2
22	24	2
110	110	1
109	109	3
19	32	1
6	9	1
145	145	2
106	139	7
88	88	2
61	61	5
71	71	4
71	85	2
85	85	4
50	50	1
82	82	3
130	130	5
64	64	3
104	132	1
53	55	2
139	139	2
114	115	4
54	55	2
92	92	3
76	130	2
2	6	4
32	47	1
62	62	2
98	126	1
9	32	1
10	10	1
60	131	2
90	90	4
131	131	4
69	70	4
36	37	2
66	67	4
107	139	1
109	110	5
72	85	1
72	73	2
49	50	2
70	70	3
71	86	1
84	116	1
97	126	3
69	83	2
12	29	1
118	119	3
23	23	1
59	60	1
135	136	1
124	124	1
100	101	1
134	134	2
93	94	3
83	83	1
42	68	1
12	19	1
117	120	1
108	108	2
93	100	2
75	76	1
126	126	3
25	26	1
107	118	1
102	102	4
79	79	1
38	39	3
87	90	2
125	126	1
48	48	5
24	41	3
71	72	1
32	33	1
126	129	1
81	89	3
84	84	3
119	119	2
23	40	1
118	139	2
93	95	1
115	115	4
119	122	1
57	58	1
90	91	1
102	103	1
108	109	1
27	29	2
62	63	1
107	107	2
115	117	1
105	136	1
2	2	2
33	34	1
68	68	1
83	88	2
116	133	1
85	87	3
104	122	1
143	143	2
23	41	2
15	51	1
120	122	1
139	140	1
55	55	1
72	87	2
48	54	1
37	38	2
97	146	2
120	139	1
50	51	1
111	111	1
12	13	1
77	125	1
56	56	1
59	59	1
