51	51	26
25	25	18
11	12	5
9	9	11
2	2	17
53	53	8
62	62	14
7	7	15
26	26	16
49	49	20
15	16	7
56	58	3
83	83	4
63	63	9
5	5	20
11	11	13
29	71	2
59	59	12
84	84	17
65	65	19
58	61	2
6	7	5
31	31	14
50	50	16
12	12	24
74	74	8
14	15	2
13	13	21
35	35	8
88	89	4
58	58	20
4	4	27
86	88	1
6	6	11
51	52	1
19	19	14
79	81	2
8	8	14
0	0	12
85	86	5
82	82	9
17	17	14
83	84	7
0	4	1
72	72	13
52	52	21
67	67	19
3	3	22
66	66	11
58	62	8
65	84	4
67	89	1
19	31	6
30	30	7
55	55	12
80	82	4
56	56	23
47	60	5
81	81	19
67	68	8
23	23	7
86	86	20
16	16	6
63	64	2
14	14	5
10	13	5
89	89	10
57	57	10
49	64	1
24	24	9
48	60	2
22	23	3
79	80	13
53	57	4
88	88	6
69	73	5
48	48	9
3	4	7
85	85	15
74	77	4
23	59	3
27	28	4
46	46	5
76	76	19
46	75	2
50	51	5
75	75	7
22	22	7
47	48	2
20	21	3
18	18	4
29	29	6
69	69	12
55	56	5
54	54	7
53	70	9
21	21	10
78	78	4
12	13	12
69	70	1
1	1	10
73	73	16
61	77	2
79	79	14
10	10	11
8	9	1
57	58	1
71	72	1
21	24	7
68	68	7
48	83	2
47	62	3
12	18	3
0	1	3
21	22	6
20	20	16
77	77	4
87	87	14
68	73	4
71	71	9
26	27	5
17	35	2
61	66	1
55	57	4
61	61	7
80	80	4
30	31	3
27	27	14
47	47	5
52	55	3
53	55	2
47	56	2
7	8	6
49	60	2
15	15	6
47	55	2
50	74	1
80	83	5
24	25	6
18	35	4
73	74	4
28	28	5
19	20	3
54	55	3
49	59	2
53	54	3
24	83	1
34	82	1
58	59	7
61	65	2
34	61	1
17	18	7
31	77	2
23	24	4
71	74	4
77	79	2
86	87	1
68	69	3
1	4	5
46	80	2
32	33	1
10	11	2
64	76	4
51	56	1
70	74	2
10	26	1
70	70	6
64	64	9
22	52	1
25	26	3
60	61	3
47	69	2
46	78	2
75	77	2
61	75	2
81	89	1
58	60	1
59	60	1
11	27	2
22	59	2
20	25	1
33	34	2
81	88	1
66	85	1
49	50	2
72	73	3
58	63	3
60	60	5
87	89	3
76	77	1
66	74	1
1	2	6
80	81	3
56	71	4
70	71	1
50	53	1
61	64	1
71	73	2
33	33	1
77	78	2
74	75	1
23	75	1
46	83	3
18	19	1
26	33	1
9	10	3
52	53	1
24	75	3
66	83	1
64	78	3
65	66	1
34	34	2
65	78	1
56	62	1
59	62	2
81	83	1
12	14	1
21	72	1
46	47	2
86	89	3
50	54	2
84	85	2
48	49	1
62	85	1
8	33	1
50	55	1
80	84	1
23	54	2
81	82	1
12	15	1
56	63	1
