168	169	6
59	60	3
166	166	6
144	160	2
181	181	18
55	55	5
9	9	7
102	102	5
153	154	1
125	127	4
51	51	8
184	184	3
59	74	7
182	185	6
7	8	11
79	86	1
10	43	3
50	50	4
121	121	8
33	33	24
34	34	6
5	7	6
102	103	5
157	157	8
1	2	4
7	63	5
187	189	4
123	133	4
190	191	7
28	45	1
146	146	3
56	56	3
72	74	2
161	161	7
174	176	4
78	81	2
86	86	7
151	152	2
164	190	2
11	11	3
31	164	1
141	141	10
53	53	2
172	172	4
126	126	6
131	147	1
43	43	3
19	19	12
26	27	3
169	170	4
3	3	12
82	82	8
107	109	5
188	188	9
25	25	10
61	63	3
73	73	14
148	148	4
31	31	8
175	175	3
38	39	4
178	179	1
48	58	1
143	143	8
187	187	2
44	44	10
41	86	4
115	115	8
182	182	8
126	149	1
27	27	6
114	169	1
48	48	6
191	191	4
96	100	4
14	14	7
35	38	3
63	72	1
129	129	6
105	105	13
52	52	9
19	25	4
93	99	1
61	61	15
34	35	3
164	172	3
18	19	6
46	55	3
155	155	4
125	126	1
154	155	4
76	79	1
157	158	6
4	10	5
58	79	2
88	88	4
168	168	6
21	24	1
113	113	3
186	186	5
95	95	11
189	189	2
194	194	16
21	21	9
104	106	11
123	123	8
37	37	7
110	110	3
136	137	4
67	88	1
68	68	1
70	71	4
164	164	11
131	144	1
106	144	3
12	12	10
8	8	7
30	38	3
161	165	4
64	64	10
59	59	7
103	103	6
65	65	12
112	112	4
49	49	8
45	46	2
89	90	6
176	176	4
76	82	4
73	119	1
60	61	1
26	55	3
177	177	10
173	176	2
23	23	5
6	7	1
131	131	8
69	69	6
77	77	6
124	125	7
130	132	5
73	113	7
57	64	1
181	186	1
40	40	7
132	133	5
155	156	5
13	13	4
171	171	14
106	106	5
63	71	2
166	169	2
63	64	1
96	98	6
24	29	1
122	122	4
22	22	8
192	193	6
69	107	3
182	183	2
17	18	7
127	127	5
39	39	1
124	124	3
74	111	5
141	142	2
97	106	3
134	134	12
44	68	3
130	130	4
10	13	6
2	2	7
47	48	9
167	168	3
179	188	1
197	197	5
60	60	8
4	4	7
24	24	13
78	84	3
79	79	12
99	99	8
76	76	15
97	97	6
10	10	4
15	15	5
69	70	2
163	164	1
30	30	12
145	145	6
66	66	6
63	63	8
107	108	7
156	156	5
158	158	7
118	118	7
51	62	3
150	151	2
138	148	4
0	0	3
6	9	3
78	83	4
45	45	1
146	160	1
149	150	3
117	117	7
193	194	3
104	159	2
17	17	9
195	195	12
80	80	7
86	88	3
163	172	3
106	107	2
136	136	12
121	137	4
7	7	3
132	132	2
19	26	2
27	54	2
114	114	6
120	167	2
56	65	3
83	131	1
186	187	1
46	46	10
40	84	1
106	122	1
138	140	4
31	40	2
137	137	2
177	179	1
191	192	2
188	190	5
159	159	5
117	137	2
135	135	9
121	134	3
172	177	3
89	89	8
140	140	6
82	88	4
112	170	3
68	69	3
150	150	6
116	136	2
62	62	7
54	55	2
170	170	9
168	178	2
191	193	3
36	41	1
119	119	5
187	188	2
26	50	5
71	73	2
28	29	6
68	77	3
98	99	3
23	189	2
60	72	3
115	173	2
110	111	4
42	46	1
136	138	2
108	113	3
169	169	4
163	163	6
44	55	2
176	177	1
170	171	1
117	118	5
124	145	3
58	58	11
160	179	1
172	176	2
60	78	1
71	71	6
59	114	2
4	14	2
36	36	3
190	190	7
98	100	1
54	54	5
116	116	4
168	179	4
23	25	5
179	179	3
168	185	2
31	42	1
104	122	3
27	45	4
28	28	3
6	10	2
155	157	4
15	16	3
2	166	2
116	148	3
40	86	6
107	107	1
70	70	10
142	143	3
9	44	1
56	60	2
20	20	7
21	23	1
49	54	3
142	145	3
65	66	4
63	65	1
43	76	5
75	75	1
57	65	3
104	104	2
93	93	1
119	169	1
1	192	1
42	42	4
22	189	1
87	87	3
171	172	1
35	35	7
16	16	2
6	63	3
122	142	2
80	165	2
25	36	2
174	174	7
1	1	5
145	160	2
52	53	4
57	57	2
109	111	2
119	177	4
35	42	1
173	178	5
125	128	1
83	83	6
103	121	1
29	29	11
109	109	6
144	148	1
192	192	3
78	78	6
27	32	1
196	196	8
38	38	11
94	96	2
47	47	3
50	51	1
111	161	1
115	121	1
157	160	1
112	114	1
104	118	2
105	115	1
101	101	4
101	102	4
42	48	1
102	143	2
79	80	3
116	118	1
168	171	1
67	67	4
189	191	5
185	186	1
27	47	1
0	116	1
64	69	2
74	115	1
120	179	1
14	45	2
178	178	7
39	85	2
118	137	2
32	80	1
36	37	2
31	32	1
98	98	3
34	45	1
67	68	2
2	25	1
133	133	5
165	165	2
97	129	1
167	175	2
0	2	1
119	172	2
0	1	3
117	164	5
23	43	2
185	185	4
154	154	3
125	125	3
99	100	5
189	190	2
135	149	1
18	18	3
109	110	1
53	54	2
144	144	1
96	129	1
8	9	2
76	77	1
151	151	2
52	61	2
183	183	4
152	154	2
118	164	5
64	79	2
159	163	4
2	193	1
65	88	2
6	6	7
42	120	2
135	136	5
108	108	3
55	56	1
69	119	3
163	165	2
99	101	3
128	141	2
16	31	3
35	36	3
3	5	2
160	163	2
152	153	4
160	160	4
30	119	1
138	146	4
168	170	1
28	37	1
171	186	1
149	154	4
167	179	4
27	46	4
22	23	3
111	159	2
47	49	1
40	78	2
131	143	4
127	128	2
115	166	1
41	41	2
139	139	3
84	86	1
139	140	4
46	192	3
146	147	1
167	178	1
39	44	1
95	96	1
167	185	1
97	99	1
84	84	2
159	161	1
94	105	2
161	163	2
74	110	1
138	138	3
128	128	2
133	134	1
0	4	1
124	127	1
146	154	2
120	120	1
118	148	1
72	72	1
93	97	2
156	159	3
102	166	2
130	134	1
100	100	2
39	42	2
11	13	2
167	167	1
94	95	2
121	133	3
96	102	2
26	26	1
96	96	4
11	12	1
171	185	1
194	195	1
82	83	1
166	174	2
157	159	2
113	195	1
15	117	1
160	161	2
111	111	2
149	149	4
171	180	1
166	192	1
10	12	1
130	152	1
14	15	1
130	131	4
195	196	1
41	83	1
94	100	2
182	184	1
171	195	1
152	152	3
156	158	1
30	31	1
162	162	1
57	63	1
0	16	3
102	114	4
173	174	1
32	32	5
12	45	1
106	108	1
62	63	1
106	123	1
73	74	1
30	39	1
100	102	1
9	10	2
26	54	1
172	173	2
186	191	1
12	14	3
20	25	1
159	160	1
132	135	1
131	133	1
31	172	1
22	43	1
120	170	1
153	153	1
104	155	1
87	89	2
108	110	2
66	70	1
67	86	2
18	20	1
144	145	2
63	68	2
5	5	1
10	186	1
14	46	2
112	113	1
35	40	2
81	82	1
56	64	1
25	37	1
61	62	1
108	120	1
134	151	2
114	120	1
21	22	1
13	14	2
44	46	1
115	116	1
146	157	2
88	89	1
116	117	1
76	83	1
26	45	2
151	153	1
33	39	1
65	78	1
104	116	1
81	81	1
29	173	2
118	145	1
55	66	1
94	94	1
25	49	1
1	20	1
72	115	1
85	85	1
30	35	1
