95	98	4
114	147	3
27	27	10
54	158	1
83	83	13
69	69	3
38	39	2
78	79	7
103	103	3
108	111	2
156	157	2
99	99	8
87	102	2
20	20	4
22	22	6
105	105	8
137	137	8
18	18	6
91	92	12
141	142	5
18	27	4
48	48	11
10	10	3
141	141	4
114	114	4
21	21	5
72	73	8
73	73	6
90	91	7
103	107	1
0	0	7
110	116	3
47	47	8
42	42	4
87	87	7
6	6	12
67	67	3
41	41	19
103	104	3
8	8	4
114	115	7
132	134	7
139	139	5
157	157	3
122	122	8
4	4	4
137	138	3
95	95	4
5	5	2
79	84	1
36	38	3
40	40	17
84	85	2
152	154	4
96	96	4
30	30	6
2	2	9
120	120	3
25	25	13
152	152	6
120	121	5
13	13	5
155	155	3
65	65	6
99	111	3
37	37	6
98	112	2
129	129	5
49	49	3
51	52	11
36	36	7
120	138	3
80	80	6
81	82	7
122	123	3
66	69	1
124	125	2
100	111	2
101	101	7
104	105	4
55	72	2
93	97	4
99	100	4
29	29	2
48	49	3
82	82	6
149	149	3
6	12	3
131	131	9
16	16	9
1	2	4
39	39	5
30	31	1
112	113	3
88	88	9
133	133	4
129	130	2
100	100	7
99	104	3
71	71	3
154	154	1
135	135	6
102	102	1
89	90	3
14	14	6
63	157	3
28	28	7
80	83	3
140	140	15
72	72	1
25	26	2
123	123	7
108	108	6
151	151	5
43	43	8
62	158	1
118	118	2
116	118	3
17	21	5
66	66	7
95	96	3
103	105	1
35	35	3
29	30	4
79	79	5
89	108	3
101	152	3
125	125	4
109	110	7
91	110	1
75	75	11
62	62	3
26	26	6
121	123	2
89	89	2
17	17	8
77	158	5
156	156	8
83	85	1
120	148	2
134	134	4
40	42	1
41	42	4
13	15	1
31	31	1
123	125	1
127	141	3
52	52	10
68	69	2
83	84	1
84	86	1
150	150	3
77	80	2
54	55	2
112	112	1
144	144	6
74	74	3
52	83	1
48	75	2
10	11	3
119	119	4
78	78	4
46	46	3
44	44	6
65	66	1
138	138	4
127	127	7
91	119	1
111	111	1
54	54	2
153	156	1
147	147	3
116	116	5
132	133	1
56	75	1
97	98	2
117	117	1
12	13	2
15	38	4
12	12	4
90	90	2
126	127	5
95	113	2
53	158	2
3	10	5
64	65	2
130	130	1
91	120	1
133	134	1
92	92	2
15	15	3
89	103	1
110	110	2
63	63	1
123	124	1
154	155	1
92	93	1
77	77	2
132	132	1
22	30	1
45	45	3
64	68	1
38	38	6
98	98	2
5	53	1
56	72	2
33	33	5
136	136	7
126	141	2
78	154	1
142	142	1
3	3	1
14	15	2
159	159	1
107	108	1
88	89	1
51	51	4
58	61	1
34	34	2
66	107	1
76	76	3
94	94	2
107	107	1
91	91	3
68	68	1
70	71	1
11	12	1
32	32	2
109	109	1
115	115	1
42	43	1
128	128	2
90	114	1
84	84	1
71	72	3
101	156	1
92	97	2
126	126	1
16	17	1
67	86	1
47	49	1
80	81	1
70	70	2
138	139	2
50	51	1
67	68	1
158	158	2
94	114	1
23	23	2
13	14	2
9	9	1
0	2	1
8	12	1
53	53	1
