186	186	2
55	55	8
201	201	2
216	216	4
38	38	11
242	242	4
58	58	5
122	191	1
233	234	2
235	235	3
115	115	4
68	68	3
72	72	3
20	20	5
79	79	1
214	214	6
229	229	3
35	104	1
100	100	4
183	183	1
205	205	6
81	81	10
41	41	7
25	25	3
159	160	3
42	42	5
27	27	8
40	40	3
88	103	4
181	181	3
4	63	2
51	51	1
100	101	3
38	39	3
34	49	2
169	214	3
67	67	1
61	65	4
207	207	7
13	14	5
26	28	3
128	128	4
65	65	3
62	62	3
43	43	4
76	104	3
152	156	3
115	116	2
134	135	3
189	215	4
69	69	9
135	150	2
219	219	2
234	235	6
189	189	5
65	226	5
59	59	3
28	29	1
9	61	1
193	198	3
32	32	6
75	83	2
30	31	3
185	211	2
76	76	5
164	164	4
216	219	5
64	64	7
180	180	2
211	211	4
121	121	3
234	237	6
177	177	5
163	169	2
54	109	5
147	148	4
50	50	3
13	13	3
210	210	2
203	203	3
86	86	1
241	241	1
20	61	2
80	80	7
78	78	3
44	44	2
217	217	5
4	4	2
157	157	1
22	24	1
150	150	4
166	166	4
155	155	6
234	234	3
110	110	4
173	173	4
128	129	4
57	57	1
176	176	1
217	231	2
238	238	2
182	202	3
102	102	3
232	232	4
13	85	2
179	179	6
55	141	3
48	48	4
11	13	1
34	34	3
26	27	3
174	177	3
45	46	2
123	123	3
240	240	4
63	63	5
211	212	3
30	137	1
168	169	2
116	119	1
99	99	2
4	5	2
220	221	4
148	148	6
221	221	3
182	182	3
56	56	2
149	149	10
232	241	4
209	210	5
122	122	4
150	151	7
82	82	2
106	106	1
222	222	3
7	7	2
107	107	3
145	146	3
43	83	2
136	137	1
225	225	2
135	135	4
117	118	3
143	143	1
44	86	5
155	156	4
213	214	2
128	242	2
52	52	3
237	240	4
133	133	1
20	219	1
36	37	1
96	96	3
158	158	1
178	178	8
137	137	4
200	200	1
170	171	2
66	68	1
72	74	1
19	19	2
9	9	7
161	161	1
105	128	3
49	49	4
236	236	4
198	198	5
154	155	3
169	169	3
165	165	1
182	187	1
36	36	5
178	201	3
149	151	1
100	107	5
6	19	1
49	135	1
173	174	2
50	163	2
18	18	3
136	136	1
95	95	5
145	165	2
182	209	2
218	232	3
164	165	3
174	174	3
15	15	1
213	213	2
196	197	2
171	171	2
230	230	10
53	53	2
216	225	2
70	70	3
3	6	4
109	135	1
215	216	3
166	205	2
1	1	2
124	124	4
218	242	1
109	110	5
144	145	2
164	166	1
152	212	1
122	123	4
40	41	3
231	231	2
204	204	1
202	202	2
151	151	2
156	156	5
30	30	1
197	197	1
233	233	3
0	1	2
103	107	1
95	96	1
223	223	3
195	195	5
196	196	1
59	60	3
187	187	1
161	208	1
42	43	1
120	120	1
156	162	1
129	130	1
5	7	2
10	95	1
0	0	3
141	141	3
152	152	2
209	209	1
22	22	2
49	138	2
165	166	5
24	55	1
35	35	3
54	56	2
103	103	2
190	191	1
26	26	1
102	105	3
145	151	1
77	78	2
125	126	2
48	49	1
154	154	3
147	147	1
37	67	2
80	85	1
191	191	2
33	57	2
228	228	3
59	61	2
203	242	1
206	206	2
18	19	1
192	192	1
130	130	1
88	88	1
84	84	1
119	177	1
194	195	1
17	18	2
150	152	1
117	117	1
74	74	3
60	60	4
77	77	2
1	2	2
126	126	1
155	167	1
32	103	1
172	172	2
62	63	1
91	91	1
8	8	1
36	123	1
31	31	1
161	162	1
67	68	3
151	233	1
24	24	1
193	193	2
28	63	1
105	105	1
82	83	1
153	153	1
85	86	1
96	100	1
85	85	1
135	142	1
47	47	1
146	146	1
181	183	1
195	196	1
45	45	2
118	119	1
97	102	1
97	97	1
178	179	1
46	109	1
14	14	1
118	118	1
8	15	1
188	189	1
