135	136	2
10	10	17
140	140	4
51	149	2
123	123	5
73	73	9
150	150	9
63	83	2
78	108	3
25	25	8
102	106	8
100	101	8
98	98	7
125	125	11
23	23	6
79	116	7
93	93	5
46	46	11
1	13	3
52	52	15
71	72	1
155	155	4
41	45	4
138	138	4
49	49	5
83	83	15
151	151	5
151	152	1
70	71	6
117	117	7
93	144	3
114	114	4
15	50	5
143	155	6
122	122	3
77	77	3
78	111	2
147	147	5
86	86	10
158	158	10
80	80	9
17	30	1
156	156	10
142	150	4
116	117	6
28	42	4
125	129	1
11	11	7
42	42	3
78	78	7
32	43	5
83	84	2
152	152	2
37	37	16
94	94	2
127	127	9
90	90	12
82	82	15
89	89	11
78	115	2
32	32	5
92	92	8
107	148	3
141	141	7
18	19	3
63	64	2
93	94	1
6	6	4
31	54	3
39	98	1
11	20	3
15	18	5
105	105	8
106	106	3
35	35	6
121	121	1
9	38	4
33	41	4
109	112	3
142	142	4
3	4	4
19	20	1
129	129	6
154	154	1
47	47	3
109	154	2
25	26	1
12	12	3
154	157	1
124	126	2
103	103	9
43	43	4
86	103	3
26	26	10
120	126	3
29	30	3
95	95	2
96	96	4
69	70	2
43	45	3
32	118	8
68	158	2
67	68	5
97	97	13
110	110	10
86	138	1
146	146	11
50	50	16
112	112	8
16	81	4
16	16	3
107	107	5
52	54	3
88	88	2
24	24	3
128	134	6
113	113	3
2	2	14
29	39	1
128	128	4
33	33	10
144	147	5
145	145	3
97	104	1
7	38	3
153	153	8
94	95	3
56	63	1
34	35	2
27	46	4
30	30	2
27	27	7
120	120	7
75	75	3
107	117	1
145	156	2
108	111	6
41	41	2
108	146	4
17	43	4
143	147	1
4	16	1
33	34	1
133	133	1
101	151	1
0	0	8
77	78	1
49	55	1
99	99	7
104	104	5
53	53	2
31	31	8
45	45	3
3	3	3
114	117	3
4	42	1
84	94	6
3	42	5
14	48	2
1	1	3
132	132	2
21	21	2
19	55	2
31	55	4
86	115	3
67	67	2
23	26	1
4	4	5
2	20	2
19	19	6
70	70	3
44	44	5
136	136	5
85	85	1
111	111	1
33	40	2
32	55	1
104	105	3
38	38	9
117	118	1
84	85	4
83	140	2
12	14	2
71	71	4
97	118	3
143	157	4
146	148	1
75	123	7
114	136	2
36	37	1
83	159	3
109	158	2
45	54	2
72	79	3
29	29	5
52	53	2
0	46	5
148	148	6
138	139	4
15	16	3
14	14	1
34	121	4
101	102	2
10	38	1
79	80	1
7	8	2
87	87	11
100	100	5
124	125	2
49	51	7
65	66	1
120	127	2
50	53	1
34	37	3
84	141	1
24	25	1
76	77	3
69	69	3
51	51	4
47	51	4
46	54	1
87	109	2
88	139	6
134	140	2
130	130	3
82	119	1
54	54	6
108	109	2
131	131	2
154	155	1
37	38	1
81	81	7
51	53	1
134	135	2
5	5	3
111	112	2
65	65	1
92	147	1
158	159	3
78	79	3
7	7	3
79	79	1
94	101	3
83	133	3
76	78	1
39	39	6
46	98	1
66	66	4
0	27	1
81	92	1
50	51	3
109	110	1
40	45	3
43	105	5
12	13	2
4	6	1
109	144	1
83	93	1
135	135	4
17	17	1
15	40	1
36	123	1
1	2	4
64	64	3
133	134	1
36	36	1
14	56	2
149	149	1
23	24	1
30	31	3
28	28	4
68	68	7
134	134	4
90	110	2
119	119	2
124	124	4
110	111	2
83	109	5
20	25	1
40	40	3
20	55	1
143	149	3
76	76	3
86	158	1
135	153	1
137	153	3
69	128	2
145	155	1
34	34	3
113	115	1
112	144	2
13	13	2
5	6	1
9	9	6
22	28	2
108	154	1
15	53	1
79	152	3
44	45	3
102	116	2
91	135	1
113	126	2
90	156	2
4	7	2
29	76	1
23	39	2
74	74	1
125	140	1
57	57	4
2	4	1
22	24	1
137	137	2
137	138	2
7	28	1
102	102	2
135	139	1
103	105	2
85	88	1
25	28	1
144	144	3
49	54	1
47	98	1
109	153	2
15	15	2
55	56	2
144	154	1
38	48	1
17	18	2
1	14	3
26	27	1
48	48	1
63	84	1
83	121	2
48	55	3
136	138	2
157	157	2
84	84	2
32	106	2
139	140	1
21	22	1
21	24	1
62	113	1
109	119	1
102	105	1
80	81	2
116	143	2
155	157	1
22	22	1
156	157	2
142	151	1
88	89	1
66	69	1
101	101	1
133	139	1
128	135	1
92	111	1
20	20	2
95	96	1
115	122	2
14	17	1
5	9	1
30	54	1
4	56	1
0	2	1
55	55	2
159	159	1
103	115	1
23	32	1
135	152	1
96	97	4
90	91	1
131	132	1
105	106	1
100	102	1
114	152	2
22	25	1
113	135	2
33	121	1
19	48	1
0	56	1
109	109	1
87	139	1
155	156	1
130	132	1
8	10	1
153	154	1
