11	16	1
17	17	4
102	103	5
81	81	9
2	3	4
129	129	5
101	101	18
118	123	1
86	86	11
22	22	6
21	21	6
108	109	8
87	87	6
84	85	2
75	105	2
116	116	12
7	7	8
1	4	1
72	72	12
119	119	1
134	134	7
128	128	4
5	5	5
24	24	10
21	109	2
15	75	2
98	99	2
111	111	5
125	125	8
27	28	2
98	98	14
11	22	6
102	102	11
78	78	9
97	97	11
100	100	8
28	29	2
96	96	5
36	36	4
12	13	3
3	5	2
131	131	10
138	138	9
72	73	4
73	73	5
136	136	4
23	109	1
113	114	4
121	121	9
115	115	2
10	10	3
97	99	2
11	11	7
104	105	2
0	89	4
6	6	9
103	115	3
27	27	5
4	4	13
37	37	4
73	74	2
111	112	7
94	94	9
34	34	8
130	130	3
19	20	2
83	85	1
109	110	3
104	104	5
95	95	4
12	17	5
6	92	3
32	32	4
14	14	5
23	23	6
80	80	3
123	123	12
110	110	10
86	120	1
127	129	3
24	25	4
110	111	4
3	3	4
0	3	2
100	102	3
26	26	10
32	72	4
127	127	4
0	0	7
33	33	3
80	111	3
12	12	5
93	93	5
88	88	3
87	89	1
91	91	2
3	4	4
8	97	1
35	36	7
118	122	2
108	108	5
90	90	7
28	28	2
71	71	4
126	126	2
117	117	8
2	2	4
5	6	2
117	119	1
89	89	3
77	79	2
116	123	5
19	19	8
95	100	2
31	31	4
124	124	8
79	116	1
78	88	1
113	113	4
34	35	2
112	112	1
116	117	2
127	128	4
25	25	2
23	31	3
79	79	12
9	9	4
132	132	9
99	99	10
84	123	2
101	102	2
30	30	4
6	94	2
112	113	2
87	120	1
74	75	1
23	27	2
13	13	2
7	96	1
105	106	4
23	30	1
140	140	2
128	129	3
78	79	5
29	30	2
15	104	2
8	8	3
34	36	2
29	29	7
1	1	5
21	105	1
8	15	1
95	96	2
18	18	2
117	124	2
109	109	1
103	103	5
137	137	5
1	90	2
8	9	2
101	112	3
20	20	3
7	9	2
75	75	3
21	22	2
15	20	1
105	105	1
15	18	2
92	92	3
90	91	4
8	90	1
106	107	2
68	68	1
8	93	1
108	110	2
106	106	3
76	76	4
16	16	2
18	19	2
37	38	1
73	107	3
85	85	1
125	126	1
114	114	4
15	15	2
97	98	1
35	35	2
20	21	1
122	123	1
134	135	3
7	8	2
14	88	1
133	133	2
79	86	1
82	82	1
81	82	1
107	108	1
38	38	3
122	122	1
107	107	1
4	5	3
14	102	1
104	106	1
84	113	2
31	32	1
98	100	1
83	83	1
96	100	1
70	71	1
1	2	1
120	121	1
100	101	2
80	81	1
26	27	1
