63	104	1
133	134	1
87	87	7
78	78	4
115	115	9
70	72	3
62	63	4
27	27	1
178	178	1
1	3	2
16	16	9
72	72	4
17	67	2
15	15	4
40	40	6
77	104	2
103	150	2
75	76	2
168	172	4
115	116	5
18	18	3
164	188	2
87	180	1
160	161	6
145	145	4
190	190	13
2	3	4
91	94	2
42	131	3
13	13	8
147	165	2
181	181	4
42	48	4
24	48	4
143	143	4
110	163	6
61	61	9
8	78	2
20	20	6
183	184	1
166	166	3
152	152	6
28	28	4
41	41	4
2	42	4
165	188	1
34	35	2
20	52	1
26	26	5
117	117	8
13	14	2
124	126	3
154	154	11
43	43	10
136	136	9
3	3	9
64	121	1
35	36	7
27	29	2
58	58	8
26	46	2
183	183	5
37	37	4
151	151	3
113	113	8
42	42	3
28	31	5
165	165	7
16	17	1
25	47	3
14	66	3
161	161	3
19	19	9
145	151	1
184	184	5
169	169	5
92	100	4
63	109	1
153	181	2
84	84	4
107	107	8
134	135	8
125	126	7
133	133	4
25	25	2
111	111	11
164	165	1
90	90	7
38	75	1
91	92	2
150	151	3
86	89	4
28	29	4
89	89	6
186	186	7
33	33	6
32	32	5
77	140	1
148	150	4
15	31	3
168	168	5
31	31	6
137	137	4
68	68	4
77	77	10
86	179	2
144	144	1
163	177	4
164	164	10
179	179	3
23	23	6
72	120	4
71	71	12
74	74	6
187	187	4
135	137	3
91	91	5
135	135	6
31	34	1
110	162	4
166	171	3
17	58	2
175	177	1
72	78	4
146	172	1
167	167	3
165	185	3
164	181	2
160	186	1
89	91	2
158	159	6
18	75	4
11	14	1
121	121	4
25	42	2
131	131	7
111	114	1
83	84	4
71	72	6
108	111	9
111	120	4
64	64	4
65	65	5
105	133	4
188	189	2
73	73	7
125	125	2
7	8	3
116	179	1
53	53	1
182	183	3
24	24	2
146	151	1
81	168	1
82	82	4
95	95	4
159	159	3
9	14	1
48	48	7
37	38	5
121	157	5
72	75	1
23	80	4
165	183	2
0	0	1
70	70	2
100	128	2
148	148	1
185	185	13
127	127	1
13	78	2
29	29	4
1	1	2
2	2	2
148	172	4
36	36	2
154	155	1
106	106	2
80	123	1
139	139	1
13	20	3
13	68	3
17	20	1
10	21	3
157	186	2
12	12	1
112	113	1
152	153	4
30	36	2
175	175	4
101	127	2
37	53	1
104	108	1
170	170	6
21	22	2
188	188	7
55	55	6
21	105	1
64	68	6
145	174	3
96	97	5
104	105	3
67	101	4
121	155	1
162	162	4
11	12	4
91	143	2
13	40	2
39	39	6
171	176	2
62	104	1
106	173	1
10	15	1
97	98	2
6	6	1
99	99	3
45	45	7
5	7	4
41	55	5
174	174	6
115	118	3
134	139	2
115	117	2
14	101	4
63	70	1
21	21	2
141	163	1
71	107	2
171	189	2
187	190	3
60	60	3
108	122	1
110	110	1
173	173	1
174	176	1
87	95	1
116	118	3
111	112	1
161	162	3
70	108	1
125	127	3
15	29	2
66	66	3
107	122	1
88	88	9
62	62	1
42	124	3
122	122	5
143	172	2
167	169	3
24	81	2
67	113	1
145	146	2
92	93	1
78	79	3
12	14	1
85	155	1
102	124	1
104	104	7
98	99	1
142	142	5
63	63	8
102	128	2
57	57	1
147	147	4
94	94	1
86	86	2
165	170	2
120	120	2
101	101	1
162	163	1
177	177	6
66	103	1
42	45	4
178	188	2
13	43	1
147	150	2
8	8	3
119	119	5
76	142	1
82	83	1
79	79	2
123	123	2
35	35	7
56	56	4
10	10	2
0	1	1
156	156	1
12	15	1
38	77	1
1	55	1
75	167	1
0	2	1
24	79	1
152	170	2
175	176	2
46	46	3
98	98	2
169	173	1
144	159	1
176	180	1
116	180	1
182	182	6
61	110	1
88	96	2
102	102	1
17	17	4
171	171	4
180	180	2
141	141	1
77	176	2
48	62	1
80	80	1
126	127	2
35	37	2
140	176	1
12	62	2
143	150	1
165	187	3
155	156	3
7	25	1
171	175	1
97	128	1
168	169	2
124	127	3
14	19	1
47	47	2
22	44	2
27	30	2
27	28	1
160	160	6
130	132	1
85	86	1
119	120	3
45	46	2
74	141	2
64	65	1
30	30	1
172	173	2
113	114	1
116	116	3
136	137	2
140	140	1
106	122	1
63	74	1
23	24	1
105	105	3
156	160	2
153	153	4
162	186	1
53	66	4
112	121	1
36	131	1
44	45	1
140	141	1
132	132	3
57	65	1
10	11	5
163	164	3
112	112	1
58	59	3
37	52	2
42	56	1
137	138	3
55	130	1
72	107	1
131	132	1
102	103	1
155	155	2
127	128	3
35	38	1
40	61	2
13	18	1
16	25	1
13	19	1
66	67	2
109	154	2
102	180	2
128	128	1
54	55	2
97	97	2
44	47	1
10	47	2
112	159	1
118	183	1
84	140	1
170	171	1
187	188	2
174	179	1
163	181	1
41	78	2
114	114	1
86	184	1
155	161	1
113	186	1
70	106	1
170	172	1
54	57	2
90	155	1
83	139	1
22	22	2
140	174	1
108	109	2
56	57	1
81	81	1
29	31	1
81	140	1
147	171	1
177	180	1
54	54	1
176	177	1
84	154	1
136	139	1
111	113	1
101	113	1
74	82	1
136	138	1
89	93	1
44	44	1
33	80	1
84	94	1
