119	120	6
146	147	5
126	127	7
119	132	1
49	52	2
36	38	4
96	96	2
3	3	5
2	39	4
151	154	3
143	143	3
156	156	6
7	12	1
137	137	6
127	139	2
29	36	1
30	30	3
91	99	2
51	55	3
73	73	4
41	50	2
18	21	2
19	22	2
111	123	2
29	33	7
135	158	4
8	9	13
127	145	2
144	146	2
85	88	5
138	138	1
151	158	5
75	76	1
98	121	7
131	148	2
29	29	6
132	132	5
149	150	3
112	113	2
71	79	3
100	100	7
26	27	2
119	119	1
22	23	6
137	138	3
7	17	2
139	145	6
52	55	6
43	48	3
115	116	1
95	115	3
79	83	5
109	111	4
146	148	3
151	155	2
105	106	3
106	108	1
27	36	2
37	39	2
15	26	4
41	45	4
98	98	4
66	67	6
53	53	1
106	106	11
47	48	3
150	156	3
11	18	6
66	69	5
108	111	3
15	39	2
91	91	3
111	111	3
94	112	2
82	84	5
93	93	3
28	29	3
79	81	4
50	51	7
118	124	3
118	119	4
83	83	4
25	50	2
10	90	1
20	41	3
87	104	4
109	109	3
90	99	2
111	133	2
155	155	5
41	41	5
17	19	4
144	147	2
148	150	2
43	43	6
38	38	11
51	53	4
34	101	1
50	53	6
88	106	1
15	17	2
111	112	7
10	30	9
134	137	2
4	16	3
68	105	3
85	85	6
93	95	2
124	126	3
85	86	3
15	19	3
21	21	2
16	19	4
118	118	4
131	157	3
15	15	1
111	136	2
153	157	2
14	14	5
103	104	1
85	104	4
9	11	3
43	99	1
19	20	2
95	96	2
48	54	1
144	144	4
65	66	3
99	103	2
116	116	2
45	45	4
147	147	3
141	145	5
71	73	2
156	157	3
101	108	1
16	17	6
119	122	2
68	88	1
109	115	4
46	46	4
132	133	6
89	93	9
133	139	1
89	98	3
87	129	2
47	51	2
68	68	4
110	110	2
92	102	2
148	155	2
131	134	6
122	124	7
7	18	1
101	125	5
1	6	1
34	86	3
33	40	2
70	70	4
130	130	3
5	6	2
92	114	2
0	41	7
24	26	3
91	97	3
82	85	2
18	39	3
37	37	1
90	91	1
0	4	3
82	83	1
54	54	2
11	37	1
101	110	3
95	110	4
2	104	3
123	127	2
41	56	1
67	68	1
8	11	1
27	31	1
114	115	2
80	80	1
130	135	1
89	99	1
150	154	1
28	28	7
106	111	2
21	22	2
31	31	1
122	131	2
104	109	2
118	122	7
84	87	4
112	121	2
115	118	4
8	12	1
15	33	3
34	40	1
127	132	1
95	98	1
22	22	1
97	98	2
70	72	1
50	52	1
149	149	1
122	122	2
138	144	2
31	48	4
96	111	2
7	7	6
140	141	2
126	130	2
125	130	1
24	103	2
108	108	7
117	117	1
20	29	2
1	3	1
42	45	2
8	28	3
23	24	1
9	9	5
2	16	2
99	99	5
67	102	3
62	64	3
126	128	2
37	41	1
119	143	1
104	104	4
92	112	4
99	100	1
74	76	1
136	136	4
134	135	3
52	53	1
23	25	4
125	126	3
154	158	2
34	39	1
4	4	1
78	78	2
128	155	1
28	30	1
24	51	2
44	99	1
95	97	3
20	21	1
8	10	2
36	46	2
40	40	2
1	5	1
88	88	6
129	133	2
39	40	2
41	42	2
14	62	2
88	92	1
138	148	2
38	39	3
81	92	4
133	138	2
96	97	1
89	94	4
35	39	3
125	157	4
10	12	4
87	94	3
18	18	4
147	148	4
20	22	1
75	81	4
84	91	4
112	119	1
150	150	1
128	128	1
11	12	1
104	106	2
133	136	6
0	0	2
156	158	5
85	91	1
135	135	3
4	8	1
18	93	3
14	17	1
38	40	2
67	71	2
49	49	2
113	120	1
145	145	1
44	45	3
72	72	3
22	28	2
70	71	1
54	56	2
71	91	2
127	129	1
10	11	1
1	8	1
62	62	1
79	80	1
152	152	3
97	97	2
65	65	2
110	111	4
141	141	1
127	127	4
107	109	3
126	135	1
75	90	3
30	33	2
117	119	2
17	69	3
81	94	1
42	43	1
36	45	1
84	89	2
142	145	1
154	156	2
56	56	2
11	28	2
142	142	1
133	134	3
5	5	2
22	24	3
30	31	1
83	84	2
120	132	1
65	67	2
117	118	3
90	90	1
117	142	1
125	146	2
133	137	1
63	68	4
102	102	1
146	146	7
86	130	1
146	150	2
41	44	1
94	100	1
107	112	2
94	94	1
125	125	1
106	122	1
124	147	2
33	45	1
70	86	2
47	53	1
86	88	1
79	89	1
4	7	1
140	140	5
134	134	1
37	44	1
127	157	2
111	113	2
113	117	3
112	114	1
151	152	1
127	154	2
9	14	2
132	139	2
94	99	1
39	39	1
129	151	1
33	35	1
126	131	1
69	76	1
52	52	1
88	104	1
128	129	1
32	43	1
108	128	2
98	100	2
147	151	2
78	81	2
38	102	1
79	90	1
31	36	2
131	155	1
121	126	1
148	149	1
15	76	1
13	99	1
23	27	1
136	138	1
19	19	1
49	51	3
16	93	1
32	35	1
123	125	2
137	139	2
97	107	1
47	47	1
108	122	1
78	79	1
134	139	1
19	103	1
95	95	1
26	35	1
101	124	1
32	32	1
84	84	1
123	152	1
153	154	1
19	24	1
29	31	1
155	158	1
140	145	1
123	129	1
13	20	1
71	94	1
86	102	1
63	91	1
129	129	1
6	25	1
77	77	1
158	158	1
90	93	1
64	70	1
116	118	1
92	109	1
124	124	1
146	152	1
22	96	1
15	101	1
12	30	1
