64	65	4
131	131	7
123	123	19
152	153	3
178	178	13
85	87	3
99	157	2
33	33	15
88	88	4
116	118	1
71	72	8
48	136	3
142	142	17
66	80	4
40	40	7
157	157	11
83	84	2
99	99	26
18	18	20
22	22	9
191	191	6
137	141	10
173	173	12
37	37	13
150	162	1
107	135	6
12	12	9
35	37	2
69	69	15
71	71	3
122	122	16
156	160	2
158	159	5
76	76	12
42	44	11
47	49	7
38	41	3
175	175	11
12	13	5
121	152	4
163	163	4
46	46	20
19	19	25
81	81	14
192	193	2
193	193	18
53	53	19
75	80	3
82	112	1
17	18	5
138	138	11
109	110	6
88	89	7
93	94	5
115	115	7
186	186	14
34	34	8
156	195	2
27	28	13
52	52	21
154	154	14
93	102	4
127	127	8
78	78	3
78	79	6
26	62	3
160	162	4
189	191	4
160	160	17
182	191	3
120	140	4
58	87	3
165	167	4
167	167	12
149	149	9
117	177	6
174	174	12
77	105	4
179	179	2
72	73	3
152	152	12
146	147	5
8	8	13
45	45	12
2	58	2
73	73	6
61	61	4
77	107	2
8	61	6
98	154	2
58	58	11
84	86	1
43	44	9
13	13	15
184	185	6
26	26	12
6	6	9
33	147	2
144	144	17
63	66	4
31	31	20
58	59	4
163	167	1
38	38	13
141	151	3
49	49	10
171	171	20
116	193	2
52	53	4
74	74	17
132	164	5
94	95	3
164	165	8
132	132	8
103	138	1
163	181	2
11	46	11
100	100	17
95	96	10
106	106	8
112	112	21
150	150	3
159	160	6
183	183	23
23	23	10
119	150	1
116	117	10
84	84	7
123	124	2
70	149	3
182	182	13
155	179	2
129	129	17
158	158	21
9	9	8
55	109	1
44	44	6
128	128	14
37	172	3
55	55	15
124	125	4
65	65	21
131	175	8
126	126	14
21	21	3
156	156	7
153	153	19
63	63	3
20	20	3
169	169	15
59	60	5
14	14	9
139	139	6
45	46	6
135	135	14
111	111	18
11	45	3
191	192	9
111	112	4
85	85	8
114	114	8
30	30	17
124	124	6
176	176	13
117	117	8
165	166	13
105	134	9
165	179	2
156	157	4
172	177	2
11	12	2
69	72	2
134	134	14
38	39	3
110	110	17
150	151	3
172	172	13
131	132	7
97	141	2
137	137	13
184	184	9
25	25	24
18	37	5
141	142	2
34	35	3
185	185	17
59	62	4
51	52	3
169	170	7
194	194	7
133	133	9
50	50	16
0	0	5
24	24	8
163	164	11
170	171	7
140	140	7
36	36	2
113	120	1
110	111	6
41	41	9
99	101	1
59	59	22
67	72	2
84	87	2
74	75	4
170	172	4
168	168	7
23	25	3
80	81	4
130	133	4
47	48	1
162	162	5
121	121	12
39	39	13
77	77	11
188	188	8
173	174	1
146	146	6
8	9	5
155	155	22
125	125	9
180	180	6
24	63	9
79	79	8
18	192	1
75	75	8
145	179	1
55	56	6
161	161	14
195	195	16
174	176	3
86	86	6
161	164	1
158	160	2
31	36	2
11	11	7
24	38	4
15	16	6
54	56	5
164	166	1
149	150	3
16	17	5
31	33	6
61	62	6
156	181	2
2	3	1
82	99	3
197	197	7
188	189	8
6	7	3
130	131	5
159	180	5
17	17	18
113	113	11
94	120	4
96	96	3
2	4	3
141	141	10
118	118	6
63	72	1
157	158	6
192	192	13
196	196	4
47	50	3
66	66	11
187	187	20
102	102	3
104	121	5
138	139	2
82	82	13
48	48	8
86	87	3
26	44	2
27	27	15
25	45	2
159	159	5
60	60	18
104	140	4
145	146	2
151	152	5
66	170	3
51	54	2
99	100	3
148	148	12
3	58	2
109	109	14
34	36	4
190	190	7
69	79	2
10	12	6
27	97	5
68	68	6
10	11	4
43	43	8
82	84	3
28	40	3
168	169	4
108	108	15
97	143	1
4	4	11
83	83	8
15	15	7
26	27	2
120	120	16
190	193	2
136	136	10
12	44	3
127	128	2
167	182	1
129	130	4
168	182	1
1	1	5
93	93	1
2	2	17
143	143	9
51	51	14
32	32	9
76	106	4
1	2	2
119	119	4
164	164	2
67	68	2
10	46	5
93	131	4
63	67	5
10	13	4
36	37	4
64	64	14
113	136	5
177	177	9
145	147	2
39	42	1
170	170	13
70	89	3
103	103	4
119	193	1
108	109	5
24	25	8
166	167	6
60	109	4
182	183	3
117	118	4
147	147	5
42	42	10
155	159	1
165	165	8
33	36	1
80	80	5
193	194	1
149	156	3
81	112	1
29	30	6
171	186	3
27	30	2
101	101	5
189	189	2
145	145	7
4	59	1
66	184	2
50	51	8
56	56	10
7	7	1
23	24	2
16	16	10
161	167	2
137	138	2
32	64	3
70	70	3
38	193	3
62	62	24
30	95	3
25	41	3
98	98	4
122	128	2
29	29	11
110	181	6
164	179	3
118	152	3
54	54	12
17	38	1
26	29	3
6	40	3
172	195	1
35	36	6
10	10	5
56	57	5
192	194	1
28	28	7
134	135	9
42	43	3
195	196	4
5	62	3
59	88	2
76	105	5
166	179	2
119	151	1
56	58	4
12	22	2
7	8	3
67	83	3
148	149	3
44	45	4
89	89	5
67	67	5
181	181	7
93	157	1
49	57	1
116	186	4
196	197	6
113	114	2
119	120	1
82	90	2
142	144	4
132	179	3
166	166	5
170	196	1
100	101	3
31	114	1
66	171	8
117	190	1
68	87	2
62	89	2
110	180	2
124	136	4
130	130	5
3	59	3
81	82	5
180	182	2
45	52	2
30	31	2
1	29	2
18	193	1
29	32	1
180	181	5
105	105	3
23	44	2
5	7	6
69	70	2
101	133	2
55	62	1
26	63	3
82	101	1
137	139	1
172	184	3
4	5	2
13	14	4
3	3	4
43	82	3
76	80	2
105	106	1
158	182	2
24	33	1
57	57	3
167	173	1
107	107	4
94	98	2
107	115	2
53	57	2
82	85	1
117	150	1
107	112	2
37	38	3
142	143	3
168	170	3
161	179	1
119	154	2
48	49	3
72	72	3
53	56	1
177	178	1
106	121	2
116	116	6
40	75	1
87	87	3
18	20	2
45	62	2
144	148	1
47	47	1
40	80	1
11	14	1
187	188	2
30	47	1
55	59	3
49	50	1
177	187	1
50	73	2
52	56	1
147	148	3
63	73	1
31	32	1
102	132	2
5	6	3
63	83	6
57	58	4
68	83	3
114	115	3
65	66	3
27	93	1
18	19	1
46	52	2
3	4	3
58	62	1
27	42	1
5	8	1
176	187	3
18	38	3
171	172	1
65	171	1
187	189	1
0	39	3
23	40	2
59	85	2
9	40	1
19	20	1
37	39	2
114	179	1
118	151	1
181	190	1
104	104	1
151	151	2
39	41	1
161	180	1
33	34	2
52	71	1
112	113	1
131	176	2
66	185	1
167	168	2
17	192	2
118	119	1
162	163	2
40	41	1
167	184	1
104	138	1
122	127	1
60	61	2
144	145	5
136	137	2
108	137	1
165	177	2
12	46	2
121	122	1
109	111	1
94	156	2
153	154	1
168	175	3
54	58	1
111	136	2
113	129	2
150	155	2
10	17	1
149	151	2
153	168	1
67	69	1
173	176	2
163	166	1
96	100	1
146	148	2
150	152	2
59	61	1
176	177	1
162	166	1
114	155	1
5	5	2
187	193	1
98	99	1
4	8	1
97	98	1
9	62	1
133	154	1
101	104	1
45	57	1
77	79	1
54	55	1
160	161	1
185	186	2
153	155	1
123	153	1
22	23	2
34	174	1
14	15	1
46	47	2
76	107	1
170	184	1
117	152	1
97	97	1
61	108	1
123	125	2
30	60	1
41	81	1
31	37	1
84	85	1
143	144	1
6	62	1
69	78	1
162	178	1
76	77	1
77	108	1
102	133	1
175	177	1
82	184	1
67	79	1
64	67	1
189	190	1
135	137	1
