136	143	7
113	113	12
52	70	5
103	103	7
52	52	7
75	131	2
11	20	2
74	132	4
151	152	6
43	43	6
80	81	3
165	166	3
3	53	1
44	53	2
76	88	4
150	151	4
46	49	2
5	5	8
16	16	4
14	15	2
37	37	17
1	1	2
54	54	10
76	76	7
36	37	10
89	135	7
44	58	3
38	38	7
91	144	1
70	70	12
27	56	2
127	127	9
7	7	5
46	65	3
53	54	3
13	18	5
7	9	13
36	36	14
151	151	7
41	41	4
122	132	2
159	159	10
40	40	8
86	86	2
47	47	10
108	108	13
75	126	4
109	110	4
151	154	6
131	131	4
62	63	2
98	98	4
123	132	1
102	103	4
164	164	6
102	102	6
142	143	1
77	77	3
39	39	7
42	145	3
138	138	9
160	160	9
1	2	3
1	162	1
64	69	3
27	34	6
47	49	1
55	55	1
112	112	7
46	46	2
95	95	5
4	4	3
25	25	5
96	96	2
89	89	16
22	22	1
11	12	2
169	169	4
100	101	1
107	107	7
118	118	5
80	82	3
74	74	5
25	26	1
34	35	4
8	48	6
163	165	1
79	79	3
66	66	3
154	163	1
26	26	8
10	10	2
43	144	2
127	128	3
165	165	12
160	167	7
101	133	2
90	136	3
9	9	3
21	21	5
46	54	4
106	106	6
156	157	8
57	98	2
94	94	7
104	104	5
84	84	6
57	57	7
64	65	2
81	82	6
140	140	11
73	135	4
139	139	8
167	167	4
155	155	10
160	161	1
82	82	14
56	56	4
161	165	1
145	145	12
8	8	10
64	67	8
158	158	10
34	34	14
109	109	6
53	159	2
95	160	1
24	56	7
71	71	3
15	15	13
19	19	2
105	105	21
49	49	7
57	97	3
99	99	8
100	129	1
123	134	2
152	152	3
0	69	2
153	153	3
53	53	14
42	42	29
157	157	8
43	71	2
128	128	1
10	19	6
149	166	1
119	119	8
5	8	5
47	53	2
123	125	5
162	162	2
2	21	3
97	97	4
114	115	2
150	150	7
62	62	6
44	97	2
22	23	2
167	168	2
63	63	5
146	147	2
75	75	11
18	18	8
85	126	2
90	90	13
85	85	1
94	95	6
11	11	11
72	136	3
58	62	2
83	83	4
148	148	2
114	114	2
109	111	3
130	131	1
52	68	1
166	166	5
38	98	2
17	17	2
58	58	1
20	118	1
87	87	3
27	57	2
170	170	4
68	162	3
20	55	4
47	48	3
127	130	3
110	110	3
84	85	7
133	133	1
91	91	4
136	136	10
135	136	1
55	56	2
14	18	1
134	134	5
80	141	2
121	121	7
58	134	1
38	134	1
166	167	3
50	50	10
161	161	2
154	154	10
10	21	3
164	165	1
44	44	7
163	163	3
6	6	7
24	24	1
112	114	2
39	40	1
43	159	1
110	111	3
79	80	2
80	80	5
73	143	3
34	126	1
3	3	6
143	143	7
48	50	1
111	111	2
130	130	13
45	46	3
114	157	4
56	118	1
77	86	1
0	0	7
123	124	2
101	101	8
142	142	5
140	141	1
126	130	4
156	156	11
65	65	4
19	20	4
108	109	3
93	93	3
73	89	2
129	130	9
42	136	1
22	53	1
100	100	3
23	38	3
20	20	6
35	35	5
147	147	6
26	57	2
74	87	4
155	156	7
78	78	3
78	141	3
2	162	3
67	68	3
77	140	3
43	53	1
83	84	3
149	149	2
10	12	3
147	165	3
56	119	3
26	54	2
125	126	2
47	68	2
43	145	1
101	102	2
111	112	2
25	56	4
154	155	2
132	133	3
155	157	1
43	167	2
100	130	1
72	72	2
14	26	3
7	21	1
72	96	1
79	83	1
137	137	3
123	135	1
27	118	2
25	101	5
43	168	2
77	78	1
55	97	3
79	139	1
4	50	2
132	132	1
5	53	1
144	145	5
149	150	1
119	120	2
71	72	1
128	129	1
2	117	2
137	138	4
68	68	1
120	122	1
81	81	2
26	124	1
79	140	3
61	63	2
117	117	1
2	53	1
136	144	1
33	33	3
11	117	1
45	53	1
13	14	1
74	86	3
27	27	1
53	57	1
168	168	1
128	130	3
48	48	2
79	82	1
17	18	1
6	8	1
78	86	1
86	87	2
99	101	1
89	139	1
45	120	2
4	6	2
76	86	2
97	98	1
147	161	1
15	17	1
100	122	1
124	125	1
72	143	1
35	108	1
46	68	3
0	1	2
116	116	1
51	163	2
120	120	1
167	170	1
21	49	1
115	115	1
94	160	1
14	16	2
124	124	1
125	125	1
139	140	1
122	133	2
0	160	1
161	162	2
2	2	2
126	127	1
92	92	1
12	12	1
88	142	1
144	144	2
12	19	3
25	57	1
34	74	1
154	157	1
123	133	1
23	24	1
46	120	1
134	135	2
69	94	1
98	99	1
117	158	1
159	160	1
139	141	1
61	62	1
13	13	1
89	143	1
123	123	5
126	126	5
99	120	1
25	102	1
14	14	2
160	170	1
65	67	2
69	160	1
129	129	1
51	52	1
99	119	1
14	17	1
98	119	1
9	10	1
78	79	1
22	52	1
122	122	1
0	166	1
26	27	1
13	17	1
2	157	1
56	57	1
168	169	1
122	124	1
70	71	1
74	75	1
20	24	1
49	68	1
90	135	1
38	40	1
48	65	1
2	43	1
