3	3	2
102	102	14
60	60	4
117	117	4
65	65	7
99	99	3
36	36	2
33	33	5
80	108	2
109	109	5
75	76	4
16	16	5
111	111	1
113	113	4
130	132	3
19	20	3
85	132	4
53	53	3
123	123	9
105	106	2
7	7	1
2	3	2
94	94	3
126	127	11
34	34	6
126	126	4
124	124	9
129	129	3
74	74	4
90	90	3
29	29	4
12	12	7
55	115	4
37	114	3
99	104	2
24	24	13
96	96	5
103	103	6
123	124	1
19	25	1
36	49	3
118	118	1
122	123	4
5	5	2
62	62	9
4	5	4
81	97	1
34	111	3
106	106	1
84	84	3
15	113	1
28	29	2
0	61	4
14	14	2
32	124	2
105	105	7
30	30	11
28	79	2
11	11	4
27	77	5
93	93	6
10	10	2
13	14	1
122	124	2
76	76	6
125	125	8
27	27	2
38	55	3
81	122	6
105	128	2
33	123	3
14	114	1
17	112	1
102	103	3
106	107	1
128	128	1
86	109	1
121	121	6
82	82	1
104	127	2
3	5	3
129	132	1
50	50	4
24	25	1
109	110	2
18	18	2
59	59	7
106	127	2
88	88	1
73	73	7
17	17	2
14	15	2
57	59	1
33	34	1
53	80	1
4	4	3
86	86	2
6	11	1
115	115	4
106	128	3
68	68	4
129	135	2
21	22	2
97	100	1
77	78	3
72	72	1
62	63	3
10	11	4
12	72	1
104	129	1
112	114	1
48	48	3
36	50	1
25	25	6
5	59	1
99	119	4
7	8	3
50	53	1
43	44	2
63	64	1
9	10	2
20	20	4
71	71	1
67	67	3
116	116	3
100	125	1
107	127	1
131	131	1
11	12	1
110	110	7
21	21	1
44	45	2
48	50	2
87	87	2
12	13	2
73	74	1
98	98	1
50	52	1
104	104	1
45	45	3
70	70	1
38	118	1
119	125	2
69	70	1
16	17	3
80	80	4
63	63	2
6	6	1
35	35	3
83	83	2
85	85	1
32	32	1
83	84	1
82	84	1
32	74	1
134	134	1
81	98	1
64	64	1
5	8	1
91	95	1
61	61	1
17	75	1
28	126	1
86	87	1
92	92	1
53	54	1
130	131	1
114	114	4
56	56	1
81	128	1
31	31	1
75	75	1
54	115	2
54	114	1
14	55	1
60	61	1
47	51	1
80	127	1
68	69	1
80	111	1
13	24	1
94	95	2
112	113	1
77	77	1
120	120	1
80	123	1
13	114	1
135	135	1
110	111	1
130	130	1
127	128	1
72	74	1
