44	44	1
23	23	4
131	131	9
150	150	5
104	106	2
11	112	2
141	142	2
68	68	3
95	95	9
129	129	3
105	105	11
0	0	8
122	122	4
111	156	2
100	100	5
157	158	3
98	98	8
45	45	10
21	21	4
50	50	4
73	73	5
40	41	2
141	141	3
25	26	3
37	41	3
29	29	7
25	30	2
42	42	1
99	99	1
39	39	1
138	138	8
43	43	4
139	139	5
89	89	3
105	106	1
119	119	2
87	87	9
140	141	4
24	24	9
11	11	4
38	113	5
23	24	5
97	97	4
78	141	2
43	44	2
28	28	2
5	27	1
14	14	4
47	48	2
12	12	4
6	27	1
66	96	3
75	75	3
137	137	4
81	139	3
22	47	2
67	68	1
92	134	2
10	11	4
70	71	2
25	25	4
11	106	1
19	19	5
104	104	4
66	67	4
46	56	4
49	49	3
96	116	4
8	9	3
30	30	4
46	46	1
9	9	1
5	5	2
77	77	9
28	35	1
14	16	4
155	155	1
137	138	3
91	92	8
67	67	6
13	16	4
156	156	4
29	34	1
9	16	1
112	112	4
98	133	6
81	81	1
126	143	5
51	51	2
130	137	2
96	133	4
36	37	1
93	93	4
10	10	2
94	124	1
99	101	1
29	33	3
133	133	5
134	135	1
110	111	2
80	80	2
113	113	1
18	19	2
87	88	3
26	26	6
133	134	1
22	25	2
81	86	2
7	28	3
153	154	4
98	100	3
53	54	1
12	111	5
7	7	2
151	151	3
8	8	1
98	99	1
94	94	5
153	158	2
81	83	3
87	89	1
47	47	2
53	53	2
91	124	1
91	94	3
101	101	2
27	27	4
41	42	1
147	147	2
148	149	1
18	18	3
91	91	2
82	82	3
48	48	1
42	96	3
83	83	6
113	114	3
123	123	3
153	156	1
125	126	1
153	155	2
69	69	1
78	80	4
33	33	3
9	10	1
95	96	1
45	64	1
19	31	1
96	97	1
93	134	2
114	117	2
106	107	2
88	88	3
14	35	2
29	30	1
42	43	2
154	154	2
156	157	2
129	130	2
65	66	1
106	106	3
46	64	2
62	62	1
132	132	4
152	152	2
133	138	1
82	85	1
15	38	4
13	14	2
43	98	2
97	130	1
15	17	1
124	141	1
63	96	1
149	150	1
2	3	1
120	120	1
6	6	1
31	31	3
139	140	1
32	33	1
143	149	2
36	52	3
17	51	2
5	43	1
107	108	1
45	46	1
78	139	1
95	116	1
9	14	1
153	153	1
112	152	1
96	96	1
99	102	1
98	101	1
155	156	1
4	5	1
66	66	2
15	15	1
0	131	1
130	130	1
88	90	1
