14	14	4
118	118	7
48	48	4
57	57	2
85	85	4
53	54	2
103	107	2
11	11	1
16	17	7
112	112	3
93	95	3
85	87	4
104	143	2
5	71	2
111	111	2
122	122	12
82	87	3
90	90	7
115	115	4
1	2	2
135	135	3
97	97	10
109	141	1
41	41	3
120	121	1
21	21	4
102	102	1
84	86	1
155	155	4
54	54	3
108	111	3
82	82	6
83	83	4
116	116	2
114	132	2
38	38	1
112	113	2
89	89	1
32	81	2
3	3	4
137	137	7
139	139	9
67	67	1
52	52	3
34	88	1
2	2	3
50	55	1
31	31	5
110	111	1
38	40	2
98	98	7
68	68	3
29	29	2
114	124	3
94	94	4
99	99	4
19	32	1
117	121	1
133	152	1
147	147	6
29	87	1
141	141	3
121	121	2
92	92	4
44	44	4
10	10	10
68	71	1
33	81	4
78	78	1
45	47	4
114	114	4
34	36	1
86	87	1
39	39	3
119	119	3
114	115	2
142	142	2
1	100	4
49	49	5
135	155	1
55	55	1
110	141	3
145	145	8
88	89	2
127	127	4
109	148	1
50	51	2
81	87	2
40	71	3
46	46	2
20	21	3
100	100	1
10	12	3
122	158	1
39	119	3
152	154	2
113	113	5
135	137	4
12	12	3
93	93	2
131	131	2
17	18	1
115	157	1
38	39	2
87	87	6
103	103	3
62	63	5
40	41	2
17	17	2
151	151	1
63	123	1
150	151	3
20	22	2
43	43	3
113	115	2
47	47	4
118	144	1
37	37	2
44	77	2
131	133	2
124	126	2
73	74	2
99	148	2
51	55	1
117	126	2
17	55	2
69	70	1
133	133	4
36	86	1
29	81	1
143	143	1
68	69	2
27	28	1
140	140	2
128	149	1
125	125	5
77	94	1
126	126	2
136	137	8
56	62	1
20	20	2
5	5	1
65	65	3
150	150	4
9	14	2
138	139	1
46	48	1
29	83	2
91	93	1
13	13	3
158	158	1
105	152	1
113	143	2
124	127	2
46	54	3
7	7	4
18	18	3
16	16	4
65	66	1
18	19	3
123	123	2
36	37	1
124	125	2
36	36	2
144	146	2
0	0	2
75	75	2
82	84	1
108	118	1
152	152	1
39	40	2
116	117	1
45	45	3
157	157	2
9	9	6
128	128	5
97	134	1
91	91	1
88	88	1
118	119	5
96	96	1
17	85	1
122	154	1
146	146	1
18	83	1
8	8	2
53	53	1
149	150	1
79	79	1
111	112	1
105	105	1
117	144	1
69	69	1
109	109	1
149	153	1
6	64	1
154	154	2
40	40	2
25	26	1
30	30	3
21	84	1
104	142	1
32	80	2
8	9	1
113	114	1
93	94	2
112	152	1
146	147	2
98	150	1
56	56	2
108	108	1
116	124	1
21	24	1
153	154	1
85	91	1
38	41	2
129	129	1
150	153	2
23	31	2
52	53	1
124	124	1
114	154	1
120	122	1
22	22	3
97	121	1
4	5	1
