37	78	4
174	184	2
36	74	5
102	103	5
136	136	3
190	190	1
57	57	11
82	82	7
139	139	6
85	89	2
141	141	9
35	35	10
99	99	18
12	13	2
89	90	3
121	121	14
178	178	5
46	46	2
22	22	8
112	130	6
16	17	1
113	114	7
27	30	7
147	147	4
167	168	2
100	101	7
48	48	12
178	180	6
75	75	3
134	134	5
20	20	7
135	135	4
23	23	5
154	154	6
52	53	2
13	16	4
163	164	2
16	16	19
13	13	3
15	16	3
87	87	16
78	79	3
114	114	3
151	151	11
125	125	12
183	183	17
153	153	6
48	162	1
122	139	2
0	1	2
6	22	2
121	139	4
143	143	13
54	54	14
158	158	12
89	89	4
131	131	4
117	118	10
7	8	3
29	29	13
181	181	6
56	56	3
84	84	7
179	180	2
13	15	8
167	167	2
159	160	1
180	180	5
108	109	3
97	98	3
15	15	5
146	146	10
1	1	12
100	126	2
37	37	10
26	26	6
187	187	5
42	46	5
137	137	15
141	174	5
25	25	8
124	127	1
140	140	2
126	126	4
31	36	1
49	56	3
104	105	3
17	20	9
86	86	9
158	189	1
69	70	5
80	80	6
14	14	9
52	52	2
169	169	9
156	156	5
118	118	8
123	123	4
81	81	6
165	165	6
82	112	3
153	154	5
46	47	8
178	179	2
138	180	4
116	116	7
3	3	1
39	39	8
58	58	8
77	78	6
152	190	3
41	42	1
164	164	6
149	149	7
74	74	4
53	54	5
96	96	4
36	38	1
11	11	8
77	77	13
86	87	2
42	42	14
104	104	7
82	83	3
183	184	5
168	168	4
172	173	3
2	2	8
12	12	6
80	82	3
65	65	2
90	90	10
11	35	3
71	72	1
63	63	1
110	159	2
97	97	9
171	171	10
122	122	3
71	71	1
107	111	2
76	76	10
20	21	2
92	92	5
55	55	13
119	119	10
43	44	11
176	176	6
103	162	3
68	68	4
34	35	1
189	190	4
66	66	5
113	113	9
38	53	10
132	133	2
177	179	2
147	181	2
159	159	8
5	5	4
61	61	4
67	67	3
38	38	2
166	166	18
177	178	10
155	156	2
131	132	4
118	119	2
152	154	4
104	106	3
152	152	9
131	134	1
172	172	8
93	93	5
150	150	1
168	170	3
83	83	8
66	68	4
30	31	6
105	105	10
39	125	2
176	185	5
110	110	9
114	117	4
39	77	3
72	72	5
103	103	6
52	83	1
7	39	1
7	7	5
24	24	10
126	128	1
72	75	2
107	107	9
16	21	5
146	147	7
113	160	4
11	12	5
157	157	4
134	136	6
145	153	1
33	33	5
78	78	2
34	123	1
186	187	2
101	101	7
149	150	3
182	182	9
111	112	2
184	185	3
124	124	2
59	67	3
175	175	1
10	12	3
111	111	4
142	143	2
44	45	7
182	184	2
53	53	4
37	38	3
115	115	4
189	189	1
127	127	1
179	179	3
65	67	3
116	118	1
138	139	3
17	18	1
32	32	3
100	128	3
164	165	2
9	9	4
149	168	1
28	29	4
134	138	1
34	45	5
10	36	2
54	55	1
79	79	2
40	40	4
4	4	4
174	175	5
41	41	4
18	21	5
109	109	2
35	36	1
93	94	1
129	130	3
70	75	2
96	102	1
27	27	4
146	170	3
182	183	3
61	62	2
98	99	1
96	97	5
117	128	2
138	181	1
146	150	2
138	138	2
136	138	2
143	144	2
184	184	2
156	157	2
95	95	4
16	170	1
135	160	4
178	184	4
96	98	2
176	179	4
43	43	7
105	130	1
100	100	6
67	68	3
150	151	2
9	12	5
0	0	2
170	171	2
159	162	2
106	108	2
58	59	2
9	37	3
185	186	1
132	132	2
9	52	2
98	98	1
129	129	7
85	85	3
17	17	6
148	148	6
147	148	4
176	177	2
103	128	4
64	64	2
146	180	5
130	130	4
130	154	1
28	28	4
127	128	4
140	141	2
142	155	2
106	106	2
115	122	2
61	91	2
186	186	1
96	99	3
18	18	2
31	32	1
133	134	3
68	79	1
111	114	2
120	121	1
19	23	2
76	79	1
47	47	3
42	91	3
48	60	4
64	86	2
152	165	1
161	161	3
112	112	2
6	77	1
39	40	1
34	124	1
146	148	3
34	34	3
45	45	2
188	188	2
32	45	3
6	19	1
73	91	1
55	56	1
59	61	1
96	128	1
102	104	1
177	177	1
23	37	2
144	144	1
91	92	2
116	117	1
17	38	1
157	158	4
32	33	1
10	11	6
151	176	2
102	129	4
16	48	2
94	120	2
166	167	2
35	45	5
83	144	1
27	149	2
106	109	1
121	161	2
6	7	2
63	64	2
31	31	3
33	122	1
26	28	1
161	164	2
90	92	2
131	133	1
36	36	1
99	128	1
117	126	2
62	62	1
100	163	4
134	135	1
88	88	1
91	95	2
101	102	1
82	88	2
185	187	2
76	77	1
17	22	1
120	122	1
162	162	2
23	25	1
42	62	2
135	159	1
48	164	1
59	59	2
151	184	1
8	20	1
142	142	1
112	132	1
14	21	1
143	188	2
141	177	1
119	125	1
91	93	2
163	163	2
112	115	1
118	120	1
168	169	1
8	10	1
74	80	2
99	100	1
20	23	1
23	32	1
174	176	1
84	102	1
75	103	1
2	3	1
73	73	1
30	30	1
25	26	1
81	82	1
175	185	1
37	91	1
