58	59	1
78	79	2
110	111	6
122	122	14
48	48	4
36	37	2
189	190	3
33	33	5
146	146	2
150	150	6
133	133	9
101	101	8
136	137	5
7	8	2
168	168	7
8	34	3
69	72	1
126	126	6
10	10	3
20	154	1
114	142	4
78	78	2
9	9	7
30	30	4
13	128	3
45	45	2
125	125	5
196	196	2
1	1	1
74	74	2
104	104	14
58	58	5
87	87	2
68	68	4
9	10	4
159	167	2
174	175	6
42	42	1
112	112	4
82	83	5
169	170	1
176	190	4
59	60	2
142	142	6
195	195	4
64	66	2
124	124	1
142	159	2
15	15	12
137	137	3
188	188	3
177	177	2
5	32	2
36	36	9
10	17	2
37	37	3
54	55	2
111	111	2
113	113	5
12	13	1
27	32	3
143	143	6
174	176	3
77	80	2
50	50	3
100	100	3
144	144	9
32	32	3
165	165	2
143	146	3
46	46	10
157	157	2
49	49	5
105	105	2
189	189	1
125	126	2
38	47	7
160	160	2
134	135	4
138	138	5
102	102	2
136	136	1
25	46	2
52	52	4
66	66	3
27	28	1
157	161	3
127	128	2
57	57	2
181	182	2
169	169	3
73	73	2
11	11	2
44	191	1
85	89	1
12	12	5
13	15	1
40	40	4
65	86	1
51	51	5
86	86	2
53	53	2
65	65	5
85	86	1
22	23	4
125	138	5
55	55	4
73	74	2
61	61	2
13	13	3
186	186	4
4	4	1
23	23	5
177	190	1
166	167	1
70	70	2
27	27	3
184	184	6
134	134	1
54	54	4
60	61	3
119	119	3
26	26	3
6	33	1
99	99	1
131	131	2
76	77	2
2	2	2
12	31	7
18	19	2
16	16	5
128	128	1
148	148	3
129	129	2
96	96	3
182	182	5
34	35	2
167	167	1
79	79	2
152	152	2
7	7	2
168	169	3
86	89	3
35	36	1
127	144	1
29	29	4
56	56	2
24	24	3
5	5	2
5	6	1
121	137	2
120	120	1
26	38	1
154	154	4
18	20	1
142	157	2
115	118	1
149	149	1
126	136	1
161	162	2
2	3	1
156	156	2
60	60	3
159	159	2
72	73	1
193	193	3
171	171	2
43	191	1
64	64	4
103	104	1
47	47	3
12	156	1
52	53	3
33	37	1
18	63	2
65	66	1
191	192	2
127	136	1
144	145	2
33	36	2
161	161	1
71	71	2
37	38	1
118	118	2
196	197	1
163	164	1
185	185	2
8	8	1
6	6	1
179	181	2
67	67	1
102	112	1
107	107	1
12	23	1
66	67	1
33	125	1
106	106	1
20	20	1
170	170	2
155	155	2
149	150	2
88	90	1
166	166	1
155	156	1
176	176	1
173	174	1
47	48	1
21	21	3
46	47	1
5	23	1
5	8	1
39	39	1
163	163	1
18	18	2
178	178	1
35	35	1
4	5	1
100	103	1
13	14	1
10	61	1
197	197	1
31	44	1
89	120	1
