101	101	12
23	24	1
60	60	19
109	127	3
102	102	8
44	47	3
73	73	13
49	50	3
35	35	8
21	22	5
21	37	1
129	129	4
107	107	9
124	125	6
58	58	2
2	3	1
69	69	13
34	34	11
43	43	16
59	62	2
33	33	9
5	50	2
94	94	4
135	135	3
106	124	2
62	69	1
31	31	9
71	71	13
91	92	9
70	72	2
79	79	8
12	12	8
128	128	4
116	116	13
103	103	8
81	81	10
64	64	14
59	59	7
119	120	9
89	89	4
96	96	3
106	106	11
14	14	16
20	20	2
110	110	2
124	124	7
101	127	2
13	14	2
120	121	2
50	50	11
8	8	3
111	111	7
95	96	3
111	112	2
122	123	3
109	110	1
108	110	4
57	58	7
11	11	8
7	7	5
114	115	4
87	87	6
24	24	14
115	115	12
88	90	4
19	19	5
77	79	3
53	53	3
114	114	11
1	29	5
56	59	1
23	23	8
74	74	7
3	4	9
15	15	10
76	76	3
21	21	5
74	89	3
134	134	8
62	62	7
65	65	15
17	17	8
127	127	2
125	125	6
104	104	12
63	63	12
14	15	3
123	123	11
43	44	6
119	119	5
0	0	6
29	29	3
120	120	14
56	56	1
30	30	6
9	9	2
70	75	2
6	6	9
6	7	4
105	123	5
96	97	3
112	113	3
13	13	8
59	60	3
22	36	2
23	30	2
112	112	2
99	99	4
32	32	4
55	56	1
24	29	2
53	77	2
25	25	9
17	18	10
90	90	8
80	80	6
42	54	1
82	82	3
93	104	1
7	8	7
72	72	8
26	26	7
132	132	1
97	98	2
28	28	1
105	105	8
101	129	2
121	121	8
67	68	2
126	126	3
67	67	1
22	22	4
95	95	8
78	78	6
27	27	6
92	92	2
117	118	3
83	119	5
66	68	7
53	54	3
70	73	1
79	80	4
70	71	2
75	88	1
8	10	4
57	57	5
52	54	2
87	115	1
38	38	3
44	44	5
88	88	6
97	97	1
75	75	3
1	1	3
16	16	3
85	115	4
73	74	2
77	77	7
24	49	2
87	88	2
122	124	2
68	68	2
71	72	2
20	22	3
84	117	3
70	70	8
4	29	2
17	21	1
4	4	5
128	129	2
16	17	1
91	91	8
64	65	6
83	118	2
75	89	1
54	54	2
130	130	3
77	78	3
133	133	1
72	75	3
38	39	1
113	114	5
18	18	4
117	117	4
29	30	2
1	2	3
5	12	1
35	36	4
21	35	2
1	11	1
36	36	2
113	113	2
108	128	1
100	100	3
55	55	2
80	81	1
83	121	1
23	37	1
109	109	1
61	61	2
52	52	2
89	90	2
2	2	1
92	93	1
101	105	3
22	23	2
12	13	1
6	12	3
78	79	2
6	11	1
15	53	1
129	130	3
122	122	5
83	84	4
37	37	1
86	86	6
115	118	2
76	77	1
63	64	1
10	11	2
9	10	2
127	128	2
5	6	2
127	129	3
7	9	1
61	62	1
61	114	1
98	98	2
57	59	1
15	16	1
32	33	2
84	85	3
46	46	1
83	120	3
5	5	3
105	114	2
85	85	2
65	66	1
22	35	2
62	63	1
89	91	2
58	61	1
63	69	1
27	28	2
1	28	1
50	51	1
54	62	1
99	100	1
107	124	1
44	45	1
30	50	1
34	35	2
13	50	1
91	114	1
93	93	1
60	112	2
109	112	1
54	123	1
94	95	1
119	121	1
64	87	1
19	20	1
111	129	1
