88	88	1
139	139	5
121	121	6
9	9	1
136	136	1
83	83	3
144	145	4
68	68	5
28	31	3
104	125	2
8	8	9
124	126	6
11	11	8
155	157	2
47	53	5
7	7	3
140	140	3
11	12	4
27	27	4
131	132	3
90	90	4
30	30	8
129	158	5
105	116	4
149	149	7
94	128	1
157	158	3
73	73	2
104	104	1
28	28	5
33	47	1
101	101	4
91	97	3
57	57	9
56	56	2
16	16	4
26	27	2
41	41	5
47	47	3
156	156	2
21	22	1
96	96	5
29	29	3
46	46	3
69	69	4
118	120	3
150	152	1
154	154	2
112	112	8
54	55	4
54	54	5
157	157	2
98	98	9
113	113	1
63	81	3
92	92	5
67	80	2
50	50	1
115	115	5
12	12	16
141	141	1
106	110	2
72	72	2
9	10	2
120	120	8
10	10	5
153	153	4
43	43	2
17	36	3
140	151	3
75	75	4
34	55	2
17	19	2
94	132	3
4	5	3
67	67	9
131	131	2
124	125	4
123	130	1
150	153	4
42	49	3
110	111	4
107	110	4
70	70	8
62	62	1
107	109	5
64	66	2
53	53	4
24	46	4
113	115	3
64	64	5
20	24	2
124	127	3
3	9	2
6	6	4
121	154	1
100	100	5
4	4	1
3	3	4
158	158	1
26	100	1
92	96	1
125	145	1
105	105	2
78	78	8
93	93	3
145	145	2
18	18	4
48	48	2
122	122	3
33	33	4
29	30	1
99	99	7
35	36	2
2	29	1
151	151	2
127	131	1
49	49	3
142	142	4
18	19	2
109	110	1
110	115	3
22	22	5
96	97	3
36	36	6
114	114	1
14	14	6
144	144	2
2	2	1
148	148	1
89	89	3
106	106	1
112	132	1
137	137	4
129	135	2
90	121	2
31	32	5
12	16	3
92	94	1
81	82	3
143	143	2
123	145	2
125	125	5
65	91	2
45	45	1
86	86	1
92	125	7
133	133	4
126	126	1
147	148	1
34	34	3
17	17	3
1	37	1
44	44	3
130	130	1
36	40	1
2	44	1
37	37	3
138	138	1
150	150	3
92	93	4
40	41	1
5	6	2
87	88	2
38	38	3
106	107	1
127	127	1
63	109	1
33	55	2
150	151	1
116	116	1
123	125	1
23	23	1
82	112	1
37	41	2
17	40	1
87	87	1
21	21	1
13	14	1
1	1	1
39	39	1
117	150	1
138	141	3
109	109	1
1	36	1
66	66	2
19	47	1
51	54	1
30	70	1
34	56	1
8	9	1
94	120	1
11	16	1
35	38	2
40	40	1
112	148	1
68	71	1
