41	41	5
130	130	4
96	96	2
86	86	6
101	150	2
94	94	2
89	89	2
104	105	3
69	69	6
78	79	3
106	135	3
17	17	3
119	126	3
99	99	3
117	117	2
45	45	2
66	66	2
14	14	4
104	104	3
13	13	7
147	147	2
155	155	3
133	133	10
129	131	2
72	75	1
151	151	3
94	128	4
68	68	4
150	153	1
136	136	7
142	144	3
155	156	1
111	111	3
80	80	6
96	97	3
64	75	2
25	25	8
17	20	3
118	118	3
55	55	4
142	143	2
100	100	5
70	71	2
157	158	2
86	87	3
16	18	6
132	146	3
92	92	3
105	105	6
117	118	3
132	133	2
97	99	1
73	73	1
23	23	9
152	156	1
64	64	2
93	95	5
135	135	4
38	39	3
86	88	3
77	82	3
148	148	4
124	124	3
87	87	6
110	110	8
112	112	2
33	36	7
11	89	1
139	139	2
23	24	2
77	77	1
81	136	2
20	20	6
122	124	1
129	129	7
22	50	1
19	19	2
31	31	2
84	84	6
67	69	3
37	37	3
79	79	2
38	41	3
53	56	1
4	43	1
98	99	1
8	10	2
88	89	1
30	32	2
131	142	1
43	43	1
67	67	6
6	6	1
12	13	2
18	18	7
15	15	2
30	39	4
9	9	6
13	15	1
140	140	2
63	64	1
33	33	1
12	12	4
9	43	1
82	82	2
91	91	4
128	128	5
153	153	6
53	53	6
122	122	1
23	51	1
28	28	2
67	68	4
54	55	2
107	111	1
81	81	4
151	157	1
2	2	3
26	26	1
91	92	2
125	125	3
38	44	2
63	63	1
68	71	2
157	157	2
12	17	1
73	100	1
75	75	3
91	126	4
71	71	4
105	106	2
125	127	1
103	103	3
89	91	2
63	93	1
29	29	6
2	11	1
97	115	4
48	52	2
49	49	2
22	23	1
10	10	6
30	34	3
15	19	4
24	52	1
144	144	2
116	116	5
33	73	1
7	14	2
143	146	1
7	13	1
131	131	2
92	123	2
123	124	2
158	158	1
84	85	4
101	101	4
145	145	5
132	132	1
24	51	2
48	48	2
27	27	2
40	40	2
129	139	1
38	38	2
10	16	1
31	36	1
15	16	2
112	113	2
154	154	6
93	93	4
77	136	1
62	62	1
126	126	3
12	16	3
122	123	3
33	92	1
83	85	2
98	98	2
132	143	3
106	106	3
134	134	1
141	141	1
24	24	1
7	7	3
46	46	3
108	116	4
88	88	2
79	80	1
68	69	4
11	46	1
150	150	1
22	22	1
30	31	2
106	108	1
40	41	1
114	116	3
81	82	3
154	155	1
115	115	3
136	137	1
109	109	2
51	53	6
86	89	2
8	11	1
35	35	3
137	137	3
11	11	1
152	153	1
111	112	1
31	56	1
29	93	1
50	51	1
30	30	2
19	20	2
107	107	1
36	56	1
44	44	1
48	55	1
3	3	1
97	97	2
11	18	1
8	9	1
82	121	2
118	122	1
1	1	1
132	153	1
40	54	1
35	92	1
56	57	1
113	113	1
53	54	1
123	123	1
146	149	1
8	8	1
141	142	2
138	138	1
54	54	1
47	47	2
135	136	2
48	49	1
21	21	1
34	123	1
93	122	2
7	12	1
114	115	1
42	43	1
73	128	1
30	33	1
36	36	1
65	65	1
34	36	1
90	90	1
35	91	1
35	53	1
2	8	1
51	51	1
0	0	1
100	128	1
83	125	2
45	47	1
14	16	1
121	121	1
123	134	2
3	43	1
38	40	1
152	155	1
93	119	1
25	44	1
