5	5	4
47	47	4
127	127	9
21	22	1
28	80	10
122	122	7
70	89	3
33	33	5
13	32	1
58	87	2
24	25	2
115	121	1
64	94	4
85	85	1
4	4	4
20	23	4
60	60	4
73	73	2
58	58	4
15	15	8
114	115	3
12	13	1
1	1	3
95	95	5
111	112	4
4	7	2
56	82	3
86	86	7
3	3	5
14	14	4
31	31	10
32	32	21
90	90	11
19	19	7
81	81	3
13	13	1
69	69	3
43	86	2
12	12	6
62	71	1
6	7	5
112	112	13
92	93	1
117	125	4
65	69	9
23	23	7
96	97	3
71	71	4
110	110	3
33	34	3
56	56	8
34	34	11
92	92	2
120	120	5
0	63	2
101	101	9
43	50	4
131	133	1
62	89	1
45	48	3
20	20	7
76	76	6
117	117	10
16	30	1
129	129	9
66	66	4
8	8	8
85	86	3
102	102	9
64	88	1
67	67	12
45	52	5
21	21	2
2	4	2
117	118	2
85	87	6
83	84	1
18	18	3
132	132	7
45	45	3
17	32	2
82	82	6
23	28	2
9	10	1
115	115	3
98	106	7
96	96	3
44	50	3
116	116	6
44	44	2
55	56	3
108	112	4
59	60	1
103	104	4
86	88	1
124	128	1
74	74	3
98	98	7
96	132	2
89	89	4
54	54	1
43	49	3
117	122	3
87	88	1
114	114	3
103	103	3
96	120	6
66	114	7
79	79	4
84	84	4
34	60	5
9	9	5
126	126	4
133	133	2
93	93	5
67	69	1
16	27	2
15	54	9
111	111	6
72	72	4
36	37	3
6	6	3
70	93	1
131	131	7
128	133	2
52	52	1
119	119	3
121	122	2
80	80	9
72	79	2
60	61	2
79	80	1
109	109	2
105	105	7
18	35	1
27	27	7
117	132	5
7	13	3
26	56	1
87	87	5
63	88	2
31	53	2
37	37	3
22	22	3
90	92	2
113	113	6
11	11	6
130	130	2
126	127	1
128	131	1
53	53	6
99	105	2
90	94	1
2	7	2
6	13	2
113	129	3
62	63	6
65	65	2
20	22	1
92	126	1
19	20	2
91	127	2
78	79	5
86	93	3
31	32	3
135	135	1
116	122	2
88	88	4
70	71	4
46	46	2
97	106	2
108	108	7
49	49	2
97	131	2
53	54	3
61	61	1
26	28	2
83	83	4
126	128	2
0	0	6
10	45	3
55	85	3
26	26	5
71	72	2
33	61	3
94	95	1
95	127	5
5	6	2
113	125	2
117	130	1
67	68	2
50	50	2
6	18	2
77	77	1
78	78	3
116	125	1
70	70	7
18	30	2
86	115	1
26	80	1
129	130	3
73	74	2
25	25	1
37	83	1
124	133	2
72	80	1
50	52	2
78	80	1
17	17	3
128	130	2
29	30	1
75	75	2
6	14	1
108	109	1
4	38	1
121	132	1
120	121	1
123	127	2
77	79	2
119	123	1
99	100	1
84	85	1
96	129	1
3	4	2
98	99	2
123	123	5
21	23	1
27	79	1
14	36	2
94	94	1
15	19	3
89	95	1
119	120	1
17	28	1
68	68	2
29	29	3
2	2	1
58	86	1
50	84	1
28	28	1
35	35	1
95	133	1
98	101	1
113	118	1
64	64	1
65	68	1
43	83	1
34	61	1
27	72	1
17	55	1
7	55	1
15	18	1
26	72	1
93	94	1
55	55	1
96	131	1
125	125	1
110	111	1
110	129	1
16	19	1
57	57	1
56	57	1
