19	23	1
103	104	3
114	134	2
16	16	8
44	73	3
132	132	5
84	84	4
99	99	5
19	19	8
10	10	3
83	84	3
157	157	9
42	42	7
104	104	7
70	70	7
107	134	1
24	25	4
113	114	8
100	100	3
120	120	2
85	86	3
50	50	10
19	20	7
86	86	2
15	24	4
33	34	1
112	112	4
145	147	6
38	38	12
45	48	2
36	36	6
78	80	3
148	148	5
101	101	3
114	115	6
118	139	1
25	25	1
54	54	16
155	155	4
116	132	3
83	129	2
42	43	12
8	10	2
66	66	18
82	82	4
77	77	4
37	129	3
124	128	6
65	65	4
121	121	2
7	25	1
137	137	7
6	101	3
1	1	6
127	151	5
69	69	2
4	4	3
107	107	12
15	15	6
109	112	5
10	11	4
95	95	7
80	81	3
50	51	4
79	140	1
67	67	5
22	77	1
157	158	5
99	100	1
92	92	13
38	41	3
18	18	7
39	39	8
146	146	8
87	88	2
76	76	5
17	18	2
49	49	6
28	28	10
149	149	2
158	158	4
51	53	1
37	130	4
123	158	3
138	138	10
31	31	16
10	14	1
43	43	6
13	14	6
138	139	3
130	130	6
85	85	1
3	4	3
1	2	1
79	81	3
131	132	4
51	52	1
118	143	1
120	139	1
117	136	2
82	83	5
64	64	1
76	77	4
18	136	3
89	89	4
109	111	2
90	90	4
156	156	6
139	140	3
32	32	5
56	56	5
81	117	1
56	61	1
0	0	6
83	83	10
29	29	1
18	137	1
150	151	3
124	124	6
16	102	2
91	92	3
119	119	6
75	75	4
14	14	5
120	124	1
27	27	6
56	106	3
116	116	5
39	40	3
12	14	3
25	26	2
81	81	3
96	96	6
109	109	2
139	139	5
24	26	2
114	135	1
0	1	4
31	32	2
86	87	3
117	117	6
3	3	1
80	80	4
119	123	1
18	101	4
87	87	4
12	12	3
110	111	1
88	90	1
53	55	5
18	138	2
94	94	5
48	49	2
9	9	7
134	134	7
82	110	1
2	4	2
127	140	2
93	122	3
92	93	2
20	20	1
94	95	2
11	11	2
21	21	1
97	97	1
26	26	4
135	136	2
17	19	3
142	142	5
54	57	3
22	22	7
2	2	3
24	24	1
45	45	1
39	75	3
48	48	1
18	78	1
73	73	6
66	69	2
66	68	1
15	23	1
91	91	1
125	125	4
11	12	3
111	112	2
110	110	3
53	54	3
83	92	2
109	110	3
85	95	1
35	35	2
147	147	1
98	98	6
105	105	3
23	24	2
16	17	1
124	125	1
79	80	3
88	89	4
137	138	1
155	156	1
115	135	1
66	67	1
136	136	1
153	156	2
111	111	2
34	34	1
82	131	1
72	72	1
117	118	1
29	30	4
144	148	2
150	150	4
37	37	1
33	33	1
47	47	4
65	133	1
123	124	3
12	13	2
133	133	2
79	144	2
40	40	5
140	140	3
118	118	6
154	155	6
140	152	1
7	7	4
74	74	3
78	78	3
136	137	2
115	131	2
43	72	1
79	139	2
125	128	5
141	143	2
5	5	1
18	19	2
77	149	1
73	75	3
27	28	1
129	130	1
122	122	2
82	118	2
88	88	4
94	121	1
16	24	1
15	20	2
115	116	1
31	33	1
108	110	1
130	139	1
143	143	1
9	10	3
41	41	1
129	129	1
103	103	3
30	30	1
38	40	1
154	156	2
21	22	1
126	127	1
56	114	1
126	126	1
7	23	1
21	146	1
70	71	1
126	153	1
152	152	1
97	98	1
109	117	1
102	103	1
141	141	1
54	55	1
14	47	1
108	108	1
