97	112	2
21	21	1
56	84	1
66	94	5
87	88	3
36	42	4
44	48	5
84	85	2
37	37	4
55	55	4
87	87	4
75	75	3
33	35	2
91	91	5
28	29	2
70	70	10
72	72	9
40	40	2
33	33	15
68	68	9
78	84	4
40	47	2
93	103	3
113	113	9
108	114	6
83	83	5
20	29	1
88	88	13
90	95	3
31	32	5
98	98	11
82	86	3
56	56	3
66	66	3
48	57	3
51	51	4
80	80	10
112	114	2
84	104	5
110	111	7
46	46	18
46	51	3
87	99	2
110	110	9
82	83	5
42	42	1
28	30	2
79	79	9
61	62	5
43	43	12
41	49	4
37	38	3
23	26	4
83	84	2
54	54	6
32	35	4
40	66	4
40	46	1
102	104	1
74	77	2
70	82	4
100	114	4
26	27	1
94	95	1
73	75	1
92	98	2
34	34	9
91	102	1
87	107	2
107	107	6
48	51	2
95	95	9
82	94	3
19	21	2
82	82	6
101	102	3
54	58	3
26	26	7
36	40	1
71	86	2
92	92	9
99	102	3
44	45	3
106	106	2
42	46	2
36	43	1
65	70	4
73	73	13
23	40	2
19	60	3
34	35	1
78	82	5
110	113	1
100	100	10
112	112	8
51	59	2
103	110	8
95	96	6
83	89	4
71	71	1
60	68	2
103	113	1
102	113	5
30	35	1
62	62	7
63	63	4
24	24	3
61	61	9
44	44	9
109	110	7
49	50	2
78	87	3
109	111	4
33	49	3
25	44	3
68	84	5
75	76	2
30	45	1
90	94	1
65	66	2
36	37	1
31	31	6
50	50	2
105	106	2
58	73	2
102	102	3
19	19	1
67	70	6
109	109	3
22	45	2
36	36	6
84	99	1
77	77	3
108	111	2
72	73	2
64	64	10
84	105	2
26	36	3
102	103	3
71	85	1
101	101	5
25	30	3
80	100	3
49	75	2
108	110	5
69	70	4
51	52	2
76	77	2
49	49	8
53	54	2
67	67	6
58	59	4
41	53	3
43	44	2
81	81	5
46	53	3
96	97	7
97	106	4
41	61	5
28	28	3
66	69	1
68	72	6
76	76	6
50	51	3
74	76	2
80	81	1
49	56	3
90	90	3
99	101	6
56	76	3
88	96	2
29	48	3
35	46	1
67	75	1
28	35	5
39	91	2
52	52	8
96	96	16
42	55	1
99	99	4
45	45	1
48	61	2
74	93	1
60	60	3
97	97	2
91	95	2
95	114	2
49	61	2
59	64	2
75	77	1
94	101	1
93	93	4
89	89	3
53	55	2
25	26	6
47	51	2
30	30	3
82	84	4
36	47	1
35	35	4
100	104	3
66	67	5
103	104	2
68	69	3
32	32	5
102	110	1
106	107	2
91	97	1
50	76	4
56	62	2
61	63	1
43	49	4
33	34	1
74	74	3
67	69	5
97	99	1
38	38	4
33	46	3
72	74	5
103	112	1
45	58	2
44	47	2
30	38	1
79	85	2
25	25	2
84	84	4
19	41	1
43	46	3
45	46	1
92	97	2
104	104	1
32	55	1
22	25	1
83	92	1
38	47	3
29	31	2
41	41	6
19	61	2
50	60	2
108	108	2
38	39	3
84	109	3
97	98	1
29	42	1
82	85	1
64	65	1
103	103	2
27	27	2
56	60	1
73	79	3
57	57	4
105	105	5
93	96	2
28	48	1
68	70	1
29	30	2
56	59	1
42	44	1
56	86	2
39	39	2
86	86	2
78	78	4
111	111	3
32	34	1
39	40	1
93	98	1
58	60	1
63	81	1
34	36	1
43	45	3
72	88	1
52	82	1
47	48	5
58	58	3
83	109	2
78	83	1
37	42	1
44	60	1
53	57	2
74	75	2
69	69	3
71	81	2
65	65	1
66	71	1
83	91	3
78	90	1
27	28	4
86	90	2
37	39	4
75	78	1
20	20	2
110	115	1
50	59	1
48	48	1
71	72	1
63	73	2
39	49	2
68	71	2
85	86	1
40	42	5
22	24	2
91	98	2
29	37	1
94	103	1
22	22	4
34	108	1
84	103	2
31	55	1
47	52	1
63	79	1
57	85	2
94	94	4
100	107	1
98	99	1
81	101	1
83	85	1
34	45	1
88	101	3
71	75	1
55	59	1
103	105	1
31	54	1
53	58	3
32	107	1
55	58	1
52	70	1
35	47	1
42	53	1
20	22	1
91	93	1
64	66	1
99	110	1
73	77	1
90	92	1
29	29	1
