17	17	9
76	105	3
100	100	9
114	114	15
83	83	9
87	87	3
85	85	1
76	102	2
103	103	6
80	80	2
3	9	1
84	85	6
134	138	1
7	7	15
29	32	3
2	26	4
76	107	3
108	108	4
19	19	4
28	28	5
72	82	3
33	33	1
138	138	6
25	25	2
97	97	7
109	109	5
12	12	5
11	11	1
23	23	4
116	116	9
99	107	2
105	105	12
35	35	6
103	104	4
110	110	6
135	138	4
77	79	5
74	105	2
106	107	2
94	94	7
76	119	4
108	110	7
92	92	10
121	122	7
72	72	4
34	34	10
73	104	2
18	18	8
37	37	5
30	30	8
102	121	7
120	120	3
115	115	3
132	132	7
128	128	4
3	4	6
9	9	4
129	129	4
82	82	5
113	118	1
10	12	7
16	16	2
24	24	5
107	107	1
71	71	1
34	35	3
112	116	2
99	99	5
98	98	11
4	4	8
102	102	6
33	91	3
15	18	2
107	111	3
79	81	1
134	135	4
124	126	1
26	26	4
0	1	4
13	87	3
17	18	3
29	29	4
3	3	6
36	36	4
136	136	1
130	130	6
126	126	2
125	125	7
2	3	4
121	121	2
127	127	2
73	73	2
6	6	2
126	127	1
20	88	3
23	28	3
74	75	1
96	96	2
6	75	1
121	126	4
93	93	1
135	135	5
107	108	2
21	21	3
101	101	3
20	21	3
78	78	5
104	104	2
137	137	1
117	119	1
76	103	1
22	22	5
123	123	1
33	34	2
112	112	1
19	87	1
84	86	1
2	2	4
90	91	2
27	28	1
123	126	1
22	32	1
76	76	1
114	115	2
88	90	3
101	118	1
100	125	1
31	31	6
120	126	1
89	89	3
139	139	1
94	96	2
22	23	1
133	133	2
89	91	2
86	86	3
92	93	1
106	117	3
32	32	4
111	116	1
14	14	5
119	119	3
120	121	2
124	125	2
36	72	1
23	32	1
38	38	4
95	95	1
5	34	1
79	79	1
14	19	1
15	15	3
113	113	2
108	111	1
24	27	2
118	126	1
120	122	1
12	13	1
134	134	1
74	102	1
25	26	1
10	21	1
7	8	1
109	110	1
66	104	1
102	120	1
132	133	1
111	112	1
80	81	1
91	91	1
90	90	1
118	125	1
131	131	1
10	10	1
