132	133	6
88	88	11
77	103	5
163	163	7
75	75	7
45	45	9
33	33	6
153	156	2
24	24	3
56	56	5
125	125	10
25	25	8
112	156	4
19	19	11
10	10	4
2	2	10
164	165	2
74	83	4
85	86	2
78	78	4
64	64	6
148	148	7
123	123	2
126	126	5
142	142	6
100	100	4
88	89	6
160	162	2
116	116	3
96	97	2
107	108	5
17	52	6
151	151	3
37	44	1
22	22	9
87	87	6
157	157	5
149	165	2
165	167	4
17	17	8
130	146	1
44	78	4
140	141	2
8	55	3
84	96	2
71	71	16
120	120	2
21	21	7
82	94	3
35	36	4
150	151	5
108	138	4
70	82	5
138	139	5
105	114	4
109	114	3
83	117	4
95	96	3
80	80	10
55	55	7
24	67	1
11	11	10
86	86	8
1	1	6
48	48	4
96	96	2
96	100	3
74	79	2
156	156	11
73	73	14
130	130	3
151	158	1
146	146	9
95	95	3
72	83	1
53	53	11
153	153	3
6	37	4
78	80	2
67	67	7
162	162	6
7	7	10
46	46	12
82	82	3
9	157	4
163	166	3
158	159	7
105	129	6
13	13	7
2	65	2
125	146	3
127	127	8
108	117	3
89	93	5
54	76	4
141	141	2
130	132	2
166	166	3
75	78	5
133	133	1
45	78	2
92	92	5
164	164	12
62	62	3
89	108	5
36	37	2
129	129	9
113	113	1
143	143	11
157	158	4
3	80	9
0	2	2
91	91	9
158	158	4
114	114	10
23	23	5
168	168	3
7	18	4
40	40	1
114	124	3
154	154	2
96	101	3
140	140	3
93	93	2
144	144	4
87	170	3
3	5	1
139	140	6
161	161	6
45	47	1
12	12	6
161	164	3
50	81	2
73	81	1
88	165	3
110	146	2
107	107	7
15	15	7
138	148	2
55	56	4
57	69	5
132	134	6
33	34	2
35	35	6
103	169	4
116	156	1
8	10	1
113	129	5
0	140	3
39	39	7
4	40	3
25	37	2
68	69	1
137	137	17
18	20	3
19	82	2
88	118	2
44	44	6
112	113	3
19	81	3
58	69	1
130	131	2
142	143	4
131	131	8
76	76	6
151	154	2
5	5	11
134	145	2
16	150	3
20	75	3
147	147	7
63	86	2
38	40	3
106	109	5
122	130	3
70	76	4
79	117	1
99	133	3
27	27	7
24	25	5
0	1	4
2	100	3
152	153	8
145	145	11
128	129	3
97	98	3
103	121	6
54	54	1
155	155	6
124	131	3
139	141	5
84	120	5
150	150	7
107	116	1
16	40	1
86	95	1
48	132	2
132	145	5
39	40	2
149	149	9
139	143	3
57	86	2
119	119	1
95	104	3
86	87	5
62	143	2
63	63	3
105	112	3
98	101	2
128	128	4
66	66	1
6	38	3
36	36	2
64	77	3
121	121	2
154	156	5
127	129	1
163	164	6
117	117	13
36	134	2
79	80	3
48	65	2
147	154	4
99	99	5
15	41	2
40	50	3
85	137	4
43	43	9
138	138	8
102	119	2
70	70	1
84	85	1
89	92	3
65	65	3
1	53	1
148	149	3
37	37	8
0	92	1
18	18	3
89	89	3
15	99	3
49	49	5
83	83	4
152	152	7
38	39	1
0	20	5
69	118	1
28	134	3
23	28	1
38	58	2
101	133	2
10	11	4
21	22	2
5	18	2
112	121	3
106	106	8
116	147	3
85	123	1
139	139	2
108	108	4
124	156	1
36	49	1
105	106	1
100	101	2
97	97	12
135	135	8
48	136	4
103	103	7
63	118	2
121	122	2
77	78	2
91	132	2
64	65	3
67	68	3
26	26	5
1	39	1
115	120	1
168	169	3
168	170	7
124	125	5
6	6	2
74	74	3
134	134	2
122	123	2
87	119	2
43	72	2
116	117	3
52	52	5
16	16	5
14	14	10
76	82	3
84	123	2
114	115	3
102	105	1
109	109	6
169	169	4
51	51	4
3	3	1
76	133	1
0	84	2
90	134	1
125	149	1
34	34	2
111	111	8
20	20	6
81	81	2
47	47	6
112	112	1
90	90	10
81	83	4
0	153	3
143	150	2
7	9	2
13	18	3
48	49	1
90	103	3
42	42	11
53	55	1
106	113	1
115	117	2
69	69	3
165	165	4
77	77	5
140	143	1
52	139	2
3	7	3
41	41	2
50	50	5
24	96	2
73	74	3
107	117	2
159	160	1
117	120	3
93	97	2
100	126	1
96	133	1
131	144	1
162	163	2
146	149	2
89	170	1
52	53	4
106	132	2
93	101	3
93	136	2
90	91	4
167	168	1
141	142	1
20	21	2
122	136	2
114	119	1
16	47	1
9	52	1
94	94	3
93	94	2
119	124	3
154	157	1
19	47	1
104	104	1
131	145	5
149	150	2
119	123	3
42	100	3
4	56	2
74	82	3
165	168	1
76	77	1
84	84	2
10	13	2
160	169	1
34	35	2
76	141	1
166	168	2
39	51	2
5	19	1
131	132	2
9	13	1
77	82	2
142	144	2
146	147	2
78	79	2
94	136	2
57	68	2
87	91	2
47	50	3
164	168	2
170	170	3
33	36	1
85	85	2
138	140	2
165	169	3
131	142	1
159	169	3
92	130	1
39	41	2
82	118	1
122	122	1
43	44	1
2	18	1
0	154	1
146	152	1
100	135	1
160	161	2
129	168	1
149	167	2
80	81	1
111	137	1
123	126	1
68	68	2
98	118	3
160	160	2
106	112	2
108	109	1
5	7	1
115	116	1
24	49	2
91	136	4
28	28	2
144	164	1
109	124	1
16	18	2
102	102	1
84	122	2
34	66	1
52	54	1
110	110	2
82	83	1
9	28	1
51	72	1
151	152	1
74	80	1
43	90	1
101	131	1
48	64	1
102	147	1
169	170	1
17	56	1
155	156	1
151	163	2
2	53	1
4	5	1
98	98	1
0	0	1
93	100	1
104	125	1
4	6	1
126	127	1
14	15	1
17	18	1
6	8	1
151	159	1
43	73	1
105	107	1
118	118	1
57	57	1
