122	150	3
93	123	2
89	135	7
86	86	5
4	4	8
0	1	3
96	96	8
145	153	2
129	130	8
146	147	10
111	111	2
13	14	5
163	163	3
91	91	6
83	98	2
47	47	10
87	97	1
65	85	6
117	118	11
147	148	6
144	144	3
33	41	5
133	133	8
115	115	9
160	161	3
124	124	14
169	170	3
1	2	6
157	162	1
112	113	3
36	36	3
156	156	4
100	100	21
14	14	8
23	24	12
118	119	13
134	135	11
162	162	4
114	115	1
74	76	6
10	10	10
82	85	2
121	121	11
156	166	5
39	39	14
90	97	1
0	0	14
92	92	22
111	138	5
152	152	10
97	97	7
77	77	13
77	84	8
70	70	20
160	160	11
99	100	1
151	151	11
138	138	7
132	135	3
142	143	3
82	82	14
128	132	3
41	41	9
111	112	8
11	12	10
66	67	5
81	82	3
107	107	2
62	62	14
26	48	2
11	78	6
119	119	12
126	126	13
113	113	8
134	134	7
19	19	2
105	108	3
125	127	5
127	131	1
1	87	2
110	111	4
100	101	11
89	89	3
37	37	24
65	73	3
165	166	8
85	85	14
62	64	4
14	16	9
61	62	5
18	54	2
45	46	9
63	63	5
95	95	4
50	50	7
44	49	3
1	25	5
24	40	3
6	20	2
65	65	5
119	120	6
93	95	3
12	12	19
161	162	3
83	83	8
106	111	3
113	151	5
71	71	10
146	148	3
122	122	10
168	168	9
146	146	12
123	123	15
55	56	7
16	17	5
130	130	13
135	152	3
157	157	8
152	153	5
9	9	11
72	72	12
148	149	5
108	145	3
44	45	5
69	69	9
26	26	8
22	23	5
117	117	8
145	145	11
92	132	8
57	58	7
35	35	5
139	139	7
56	56	2
102	102	25
135	135	6
87	89	1
37	38	7
79	80	4
136	150	2
118	122	5
22	150	4
98	98	13
53	67	3
72	73	5
113	147	3
95	98	1
44	44	10
14	169	2
141	141	16
132	132	12
155	156	7
80	82	1
43	43	5
1	8	4
158	161	1
84	85	4
64	65	2
78	79	3
52	52	11
112	112	2
137	138	6
27	27	8
73	73	10
81	81	13
70	71	3
118	131	5
3	3	5
13	20	2
79	83	2
116	116	19
165	167	3
121	154	5
137	137	12
114	123	3
65	67	9
21	23	6
49	50	12
76	77	5
142	142	8
121	122	14
124	127	2
50	51	6
8	9	1
45	45	5
124	130	3
34	35	1
13	13	7
169	169	10
20	24	6
35	36	9
89	91	1
107	144	5
136	137	4
8	19	5
90	128	4
20	25	2
130	131	3
41	58	4
83	84	1
104	105	6
165	169	4
20	20	5
22	22	13
55	62	5
17	18	2
106	108	1
164	164	10
158	159	2
46	47	2
88	134	3
52	53	3
145	147	3
113	156	2
75	87	2
133	134	1
99	99	7
67	68	5
17	17	8
101	102	6
103	145	5
133	150	2
91	94	3
64	64	8
4	39	2
165	165	13
74	74	7
95	96	7
159	159	11
12	13	9
107	110	2
92	125	3
119	129	1
46	48	6
48	48	7
102	103	1
121	142	2
68	68	5
137	144	1
113	119	1
94	94	9
25	25	3
129	129	6
76	84	8
144	145	9
115	149	2
15	15	4
135	136	8
57	63	1
89	106	2
13	78	6
106	106	7
151	152	3
80	99	1
120	120	8
112	157	6
68	69	4
126	150	1
140	140	11
55	55	5
9	143	9
98	104	2
164	165	4
83	134	1
55	66	2
45	49	1
20	23	4
162	167	3
86	131	2
167	167	9
92	93	4
43	45	2
150	150	10
154	154	7
96	115	4
74	85	1
93	94	15
105	109	2
84	84	4
101	103	2
11	11	8
1	24	1
69	78	2
87	88	5
38	38	7
129	131	5
40	40	3
166	167	5
90	90	9
104	104	6
159	160	1
127	127	5
144	154	5
108	109	4
145	148	2
5	96	1
71	72	10
139	140	8
9	10	1
5	6	8
74	75	5
136	136	8
53	53	9
20	151	1
10	17	4
162	165	2
96	97	3
132	137	1
168	169	9
106	107	4
6	6	10
125	125	15
2	2	10
161	168	2
3	6	3
28	28	2
158	158	2
19	23	6
46	46	9
54	54	6
2	3	2
88	88	8
163	164	11
94	95	7
48	49	7
126	130	3
113	114	8
16	166	2
114	116	1
104	145	1
131	133	2
105	105	6
53	54	2
162	163	4
1	20	3
54	57	1
73	85	2
87	87	3
123	128	5
156	157	2
131	132	6
75	75	2
91	148	3
57	57	2
114	119	2
8	8	5
118	118	6
123	130	1
19	20	5
82	83	5
138	154	2
67	67	8
91	92	1
7	7	11
131	131	3
13	37	2
116	130	3
98	99	4
147	147	12
17	161	4
43	52	3
96	98	2
43	50	3
127	133	2
18	18	3
114	114	7
52	54	1
0	7	2
124	125	11
51	51	14
115	116	4
26	27	3
55	65	4
109	110	2
110	110	8
24	24	5
112	114	9
34	34	2
57	164	1
49	49	4
1	157	2
11	165	2
117	130	6
35	37	3
74	88	1
90	135	1
123	124	2
83	91	1
107	108	2
108	108	3
124	129	3
156	160	2
18	53	1
39	40	6
71	73	3
64	164	5
122	124	4
46	50	1
51	66	1
144	146	4
79	79	5
14	26	1
145	146	1
118	120	1
2	112	3
16	16	5
155	155	4
103	108	3
88	89	1
93	124	2
119	122	2
47	73	1
116	120	1
42	42	7
45	76	1
161	161	2
80	162	3
153	157	2
155	167	2
89	128	3
91	132	2
65	66	2
5	5	4
6	7	3
40	41	2
129	154	2
27	47	1
84	163	2
136	153	2
84	135	2
163	165	5
76	90	2
33	34	2
67	73	2
27	28	6
76	91	2
4	5	2
97	100	1
100	102	1
90	134	1
67	76	2
94	133	2
148	150	1
52	68	5
108	143	1
128	128	2
158	160	5
106	160	3
148	148	8
4	163	1
22	53	1
57	76	3
122	139	1
8	12	3
149	149	3
136	152	3
24	25	2
7	8	1
133	139	2
96	112	2
13	80	1
134	136	2
91	95	2
10	15	4
137	156	4
80	91	2
69	70	4
116	118	2
23	23	7
88	120	2
39	42	2
84	90	1
66	66	3
91	97	3
166	166	4
42	43	3
138	140	1
78	78	3
14	15	1
94	135	1
143	148	1
86	87	1
147	154	2
79	81	2
138	142	3
74	90	4
47	49	2
93	93	11
136	147	1
51	54	2
76	85	1
18	19	3
28	36	5
0	89	1
161	165	1
159	161	2
73	78	1
157	165	1
116	117	2
153	154	2
91	103	2
126	127	5
161	163	1
8	24	1
156	162	1
49	52	1
128	131	3
118	123	1
131	140	1
162	164	1
109	109	1
96	102	1
1	1	2
11	54	1
88	90	2
145	154	1
105	106	4
75	84	2
21	21	1
51	53	1
101	101	4
99	103	2
40	52	4
95	97	2
44	74	1
18	22	1
64	84	1
51	52	1
76	76	2
153	153	1
36	37	1
47	48	2
119	132	1
157	158	4
127	130	1
119	154	1
141	142	2
103	103	1
7	11	4
116	146	3
74	79	1
44	75	2
163	167	1
63	64	1
95	99	1
106	144	2
79	82	1
15	36	2
140	141	2
7	39	2
90	99	1
12	63	2
7	21	1
143	144	2
20	158	1
12	54	1
79	163	1
97	99	4
85	86	2
72	74	1
44	68	1
80	81	1
135	153	2
95	115	1
92	124	1
82	84	1
114	151	2
0	88	1
97	98	2
133	141	1
137	139	2
139	141	1
43	53	1
42	52	1
3	4	2
22	24	1
13	15	1
107	109	1
119	151	1
38	39	1
2	18	1
134	144	1
55	67	2
137	157	1
129	132	1
125	126	1
135	157	1
10	11	1
132	134	1
72	75	1
143	149	1
43	47	1
40	57	1
57	62	1
65	74	1
54	56	1
132	139	1
