75	75	11
98	98	14
99	99	8
37	37	14
80	80	9
85	86	6
52	52	11
63	63	16
78	91	1
42	87	8
71	71	15
89	90	9
98	99	3
41	43	5
104	104	11
67	67	18
44	53	6
61	67	9
45	45	17
22	22	10
64	64	30
58	59	7
40	49	1
31	61	2
106	106	8
104	105	3
54	54	13
71	80	2
42	42	7
34	43	1
58	58	7
68	75	2
33	33	12
85	85	11
27	45	1
97	97	13
92	92	14
94	94	17
100	102	4
26	26	2
26	27	8
65	65	27
83	83	17
70	70	10
23	23	9
77	77	11
61	62	7
39	39	11
33	58	1
51	65	2
74	74	12
105	105	22
69	70	1
73	73	11
20	21	6
68	68	8
74	96	1
51	51	16
26	28	5
69	69	12
30	30	4
55	55	22
78	98	3
56	95	2
43	43	14
44	64	3
61	61	16
67	101	1
96	106	2
42	45	6
81	93	2
105	106	5
86	93	1
102	103	5
102	102	6
94	105	2
57	57	11
82	82	6
93	93	11
70	71	5
77	78	6
29	30	2
78	78	8
100	100	8
62	62	14
71	73	2
24	24	13
66	66	9
56	56	13
58	92	1
64	66	1
27	31	4
31	31	15
82	83	8
21	22	4
48	48	8
34	48	1
46	47	7
80	101	1
66	67	3
23	69	2
95	96	2
40	40	5
21	29	3
21	24	1
81	81	18
89	89	6
41	51	4
25	25	18
35	85	1
27	27	4
36	59	1
90	90	11
68	69	10
40	48	1
21	21	11
38	39	1
28	28	4
48	49	6
91	91	10
59	60	9
35	37	3
80	81	3
59	59	21
65	71	3
20	24	2
47	47	8
52	61	1
75	76	2
60	60	8
34	40	1
60	61	3
20	20	9
94	96	2
49	49	7
49	53	1
90	91	12
84	84	9
41	45	1
88	96	1
28	49	1
50	52	3
74	76	2
31	32	7
45	56	2
38	38	9
78	80	1
49	50	2
79	79	14
78	99	2
53	53	16
81	91	2
65	66	8
76	76	12
37	49	1
31	34	1
88	88	10
62	63	3
84	104	1
89	91	2
101	101	15
41	41	2
50	82	1
37	39	5
55	58	1
34	34	7
33	34	1
88	93	2
24	30	7
44	44	16
73	75	1
84	95	1
63	100	2
62	87	5
35	41	3
38	49	3
97	98	2
28	29	1
29	29	7
91	93	3
32	46	3
72	99	2
95	95	4
41	75	1
31	91	2
59	99	1
21	36	2
96	96	14
62	106	4
36	45	3
23	68	2
24	27	2
30	32	1
36	46	2
84	85	7
36	40	4
50	50	11
56	57	1
44	49	2
65	74	2
20	27	2
35	46	1
68	95	5
33	81	1
72	75	1
35	35	6
58	60	2
84	86	1
24	40	4
52	53	4
56	60	1
29	34	1
26	38	2
72	72	4
97	103	3
87	88	10
66	71	2
21	40	1
43	61	1
55	66	3
64	65	4
54	101	1
32	32	6
40	41	2
51	71	3
39	50	1
72	96	1
79	80	1
76	77	1
67	81	1
44	45	2
76	91	1
21	31	1
67	98	3
83	87	1
29	48	1
57	64	1
94	104	1
31	36	2
59	69	1
76	81	2
60	93	1
44	61	1
45	47	1
59	94	1
83	84	1
48	82	1
60	64	1
33	44	1
87	87	2
81	82	2
65	76	1
39	92	3
27	32	1
39	42	3
99	100	3
73	96	5
29	79	1
35	38	2
55	56	2
66	98	1
28	61	4
88	95	1
61	106	2
103	103	8
20	26	3
20	32	1
63	82	2
71	86	1
89	94	2
39	49	1
94	95	1
35	36	1
93	95	3
36	36	4
31	39	1
87	100	1
27	81	2
88	89	1
86	86	4
26	46	2
63	65	2
90	94	1
40	89	1
88	90	2
67	86	2
36	37	2
100	101	2
74	93	1
62	70	2
70	95	2
53	54	5
32	54	2
25	29	1
23	61	2
76	78	1
56	62	1
88	91	1
42	56	1
78	79	2
91	92	3
65	85	1
50	71	1
62	68	1
51	52	1
50	51	2
81	86	2
50	85	2
57	95	1
67	95	1
41	42	1
35	39	1
41	57	1
46	46	4
54	63	1
65	95	1
86	88	1
78	95	1
63	64	1
22	25	3
80	93	1
65	91	2
88	92	3
51	78	2
45	81	1
57	103	1
34	50	1
52	74	1
72	79	3
43	88	1
93	94	1
20	80	2
95	99	1
37	38	1
21	89	2
83	85	1
87	106	1
25	37	3
26	47	1
42	44	1
28	31	1
80	100	2
84	105	2
55	65	1
76	82	1
58	63	3
61	96	1
77	91	2
58	65	1
54	55	2
83	104	1
69	74	1
31	41	1
70	75	1
64	103	1
50	64	1
26	37	1
34	35	2
41	52	1
52	60	1
27	46	2
86	87	1
34	37	1
86	91	1
80	86	1
73	74	1
53	60	1
22	23	2
53	78	1
20	28	1
86	106	1
40	45	1
47	48	1
79	96	1
65	87	1
34	52	1
25	28	1
67	82	1
58	100	1
66	69	1
29	49	1
25	46	1
86	104	1
67	105	1
87	95	1
41	47	1
22	26	1
