58	76	4
87	94	2
59	59	4
79	81	1
72	72	9
60	62	4
82	84	3
93	94	7
78	85	4
47	47	13
44	48	1
65	65	1
90	102	6
87	87	7
60	78	1
67	68	4
64	76	2
70	70	11
63	64	7
68	68	7
66	66	1
90	93	1
98	100	3
55	60	1
36	37	9
50	52	7
65	69	2
75	87	1
37	38	5
50	50	3
69	72	4
58	58	2
27	28	1
74	74	5
95	96	2
65	73	4
84	88	2
67	70	3
24	31	7
65	67	4
74	77	4
79	80	8
53	53	7
56	71	5
82	82	6
38	40	4
55	61	3
46	48	3
48	51	3
92	95	2
39	43	2
33	41	1
67	85	1
77	79	11
85	87	2
69	71	7
27	29	3
27	41	1
97	97	6
52	52	10
80	82	2
59	65	1
80	80	5
70	90	1
87	89	7
73	73	10
66	67	7
59	67	3
38	56	2
56	60	4
72	79	1
64	64	8
101	102	2
79	79	12
64	65	1
35	41	5
77	78	4
81	84	1
46	62	2
92	94	6
68	86	3
45	55	2
83	84	7
74	75	3
61	70	5
58	59	6
36	47	4
71	71	14
87	88	2
69	69	2
55	56	3
79	86	4
70	71	4
86	88	2
75	100	4
37	58	2
76	77	3
54	54	4
86	87	7
40	42	6
78	87	3
69	98	2
73	75	2
57	65	1
20	20	4
62	62	9
80	81	4
49	49	7
66	68	1
89	91	2
51	52	3
58	62	8
34	36	3
40	50	3
64	66	4
75	76	1
68	70	1
84	89	7
46	64	2
61	64	5
86	86	4
25	26	7
52	60	1
80	85	5
39	40	3
70	75	2
68	69	8
98	99	2
78	78	7
63	65	3
65	96	1
35	37	1
89	89	6
55	57	2
84	87	3
95	98	1
96	96	6
85	85	6
61	67	7
71	92	3
76	83	3
56	56	1
80	86	1
91	94	2
58	60	4
91	99	1
63	63	10
70	99	3
25	55	5
89	90	11
46	72	1
55	78	3
77	88	5
102	102	3
62	67	1
56	58	5
90	91	1
29	35	7
62	85	1
32	38	2
88	88	3
22	25	3
64	67	4
22	52	1
66	78	1
91	91	4
66	69	1
86	91	3
47	52	1
59	68	1
45	62	1
82	88	1
60	79	1
37	47	2
43	52	1
51	51	4
61	101	2
97	101	3
92	92	2
63	72	1
52	76	2
30	42	2
82	83	1
71	72	6
45	46	3
76	86	3
101	101	6
58	65	2
44	46	3
55	73	2
84	85	1
54	67	2
48	48	1
85	88	2
94	96	3
61	68	1
39	39	4
73	100	2
98	98	5
24	48	8
46	47	3
40	61	4
38	38	6
62	65	2
61	61	1
56	63	2
99	99	2
25	27	2
54	58	2
54	76	1
26	31	2
65	83	1
72	73	5
30	41	2
67	67	6
44	45	2
95	95	3
20	22	3
33	34	1
32	32	1
29	37	3
65	66	3
94	97	3
31	37	2
82	87	1
42	42	3
69	70	1
65	70	2
50	71	1
41	60	2
75	80	2
94	95	2
77	77	4
22	30	1
27	27	2
78	81	1
40	43	1
81	81	2
47	50	2
38	69	1
60	65	1
39	42	1
36	53	3
48	62	1
71	75	2
43	43	1
51	62	1
89	96	1
57	58	1
95	97	2
26	81	1
60	60	2
35	40	3
100	101	1
42	49	2
80	84	2
90	90	1
28	28	1
50	51	2
38	39	2
61	65	1
25	42	3
62	63	3
93	93	2
37	37	1
60	66	1
32	43	1
35	62	1
43	50	1
23	27	1
77	81	1
26	37	1
35	38	1
71	73	1
97	99	1
69	74	1
57	73	2
41	43	1
24	36	3
30	58	1
48	60	1
39	53	1
67	71	1
62	86	1
64	77	2
64	68	2
68	85	1
40	44	1
41	52	1
66	84	1
81	83	1
25	25	2
76	79	2
61	66	2
32	59	1
40	66	1
83	90	2
87	96	1
53	59	3
55	72	1
22	36	1
57	76	1
26	29	1
74	86	2
77	80	1
38	66	1
86	102	1
61	91	1
27	30	1
26	27	1
73	76	1
33	40	1
53	54	1
29	30	1
31	42	1
57	57	1
86	97	1
83	85	1
47	56	1
31	34	1
46	52	1
93	95	1
79	82	1
71	74	1
