12	93	2
211	246	1
24	45	2
76	85	2
68	74	2
69	69	10
150	150	7
162	163	5
72	175	2
89	92	5
91	94	2
4	8	5
81	109	3
80	80	4
94	95	2
68	68	3
83	83	3
149	150	7
87	93	5
57	58	1
70	75	1
116	116	7
201	201	10
152	218	2
23	23	7
227	228	1
30	165	1
171	172	10
158	162	6
8	8	7
222	236	2
46	46	6
224	224	6
231	232	4
187	187	6
206	207	2
20	22	2
15	15	5
216	246	3
77	77	5
91	91	12
31	31	8
81	81	13
194	194	8
203	204	5
245	245	5
99	100	4
156	160	1
47	48	3
48	48	9
74	74	17
225	227	4
235	236	2
176	176	8
182	183	2
78	78	7
47	47	8
165	165	7
52	52	5
80	81	9
243	243	6
70	70	9
186	186	4
152	241	2
79	79	7
56	56	4
75	75	6
113	113	8
185	185	9
160	160	9
240	240	9
111	111	6
248	248	3
66	67	1
152	152	1
35	160	2
199	199	16
54	54	9
179	179	6
45	45	7
31	43	2
86	86	14
2	56	1
12	14	2
10	10	6
60	61	2
78	80	4
145	156	3
219	220	3
242	242	8
20	30	4
37	37	4
103	103	3
89	91	4
81	111	1
58	63	1
63	63	6
2	3	3
107	108	2
241	241	5
200	200	2
53	54	3
18	18	5
100	101	4
226	226	4
213	213	8
68	69	2
77	81	3
215	215	1
229	229	4
219	219	2
173	197	4
34	160	2
64	64	3
234	235	2
158	158	3
193	194	1
216	217	8
213	214	3
167	167	10
88	120	5
2	5	4
59	59	9
164	164	10
96	97	2
30	42	3
60	60	6
85	85	5
170	171	2
50	51	1
155	155	7
177	177	6
118	118	7
198	198	4
90	91	1
236	236	7
163	163	6
49	50	3
154	167	2
93	93	9
217	230	2
152	248	1
203	203	3
69	72	5
171	214	3
161	207	1
153	153	5
215	216	2
41	41	9
84	84	5
202	202	3
40	40	8
196	196	5
78	79	2
62	154	2
8	9	3
90	241	1
9	14	1
186	187	4
5	165	3
50	50	5
114	116	2
234	234	2
232	232	5
117	118	8
192	192	4
220	220	8
62	62	6
188	242	1
96	96	9
144	144	4
45	157	1
87	87	10
20	21	4
110	213	2
88	88	13
197	221	4
109	109	4
221	221	8
244	244	2
5	7	3
17	17	2
172	172	5
66	97	10
47	116	4
8	14	1
163	164	4
19	25	2
29	29	2
205	205	2
247	247	7
111	171	2
84	85	6
215	218	1
52	178	1
101	101	4
214	214	2
37	39	4
150	151	4
55	57	1
237	240	3
4	4	2
110	110	5
237	237	8
152	245	3
238	238	4
85	86	7
240	247	1
16	31	1
222	235	1
226	231	1
183	183	2
161	161	1
115	116	2
191	191	1
151	151	2
104	104	5
166	210	3
201	228	1
199	243	2
210	210	4
26	26	7
112	112	4
67	67	2
154	154	5
67	74	3
107	107	1
192	194	2
174	174	3
39	39	1
94	94	7
184	185	3
33	33	7
209	209	3
246	246	2
36	37	1
115	117	2
231	231	8
39	40	5
119	119	2
63	154	6
65	65	1
90	92	3
82	85	4
101	103	1
46	156	5
200	216	1
222	225	1
179	180	3
23	25	2
113	210	1
51	102	3
50	105	1
194	195	7
83	85	3
72	72	4
109	176	1
120	120	1
31	44	2
9	9	5
205	206	1
35	207	5
76	76	2
23	30	1
225	225	2
71	71	1
49	77	2
188	189	1
90	90	2
203	225	2
66	66	1
171	213	3
146	209	2
233	233	4
207	207	2
46	53	2
98	105	2
223	223	2
206	206	2
144	169	1
190	192	1
173	173	4
118	119	1
195	195	4
100	100	3
204	204	5
211	212	1
23	28	6
209	216	1
116	165	3
208	208	3
92	92	4
6	7	1
221	225	1
223	224	3
87	101	4
147	147	3
32	32	1
178	179	1
21	21	2
166	179	4
230	230	3
187	188	3
7	60	2
178	178	4
204	205	3
73	74	3
16	21	3
65	71	2
42	42	4
51	51	2
2	28	1
189	189	5
57	57	8
8	10	3
82	82	4
163	209	1
5	5	1
44	44	7
69	71	1
208	209	2
211	211	2
30	30	4
108	108	8
187	189	4
46	47	1
145	145	1
10	11	2
202	217	1
221	238	3
172	175	3
43	43	1
35	35	4
117	117	1
166	209	2
106	106	3
98	98	1
19	19	1
108	109	2
86	185	1
82	99	2
119	120	4
36	39	1
2	2	1
38	40	3
166	166	3
86	107	2
222	222	7
73	73	3
75	76	2
27	27	4
159	160	5
34	34	5
91	105	1
65	68	1
57	153	1
243	244	2
226	227	2
115	115	8
189	233	4
45	46	3
190	191	3
222	223	1
156	247	1
234	245	1
56	57	1
191	197	2
239	239	4
193	193	3
77	117	1
156	246	1
4	5	2
89	234	1
78	204	1
29	30	2
245	246	3
228	228	1
157	157	3
77	105	1
38	38	2
33	111	2
16	16	1
202	203	2
24	24	4
59	60	2
193	195	1
50	157	1
39	112	1
64	75	3
32	164	1
14	15	1
201	202	2
76	83	1
34	41	2
103	157	1
184	184	2
74	169	1
181	182	2
97	97	2
87	184	1
89	90	1
168	169	1
228	238	1
188	188	4
182	182	1
95	98	1
217	221	1
12	12	2
102	103	2
158	160	1
228	229	1
3	3	1
11	11	3
17	19	2
151	235	1
221	222	1
223	225	1
27	113	1
8	166	1
192	217	1
185	187	2
90	236	1
177	192	3
1	2	1
66	86	1
53	53	2
199	217	1
191	194	1
1	53	1
36	36	2
193	216	2
190	190	1
236	241	1
78	226	1
173	175	1
16	46	1
64	95	1
32	33	1
193	200	1
54	69	1
38	160	2
71	72	2
105	107	1
188	190	2
13	66	1
4	57	1
48	62	1
182	186	1
197	199	1
167	168	1
168	168	2
19	20	1
85	94	1
241	247	1
95	95	1
22	22	1
170	170	1
156	156	1
25	36	1
105	105	1
20	29	2
53	56	1
236	237	1
100	248	1
200	201	2
235	235	1
167	226	1
78	225	1
242	244	1
65	67	1
152	153	1
247	248	1
150	215	1
238	239	1
68	73	2
101	102	1
54	56	1
61	61	1
3	17	1
