107	107	7
116	127	2
40	68	2
21	22	4
37	37	14
68	103	9
132	136	2
100	110	3
158	158	15
71	83	4
92	100	1
20	152	3
49	69	4
75	75	7
25	25	4
3	8	1
45	45	10
144	145	3
31	37	6
120	133	1
62	62	2
68	69	7
22	89	2
100	148	5
140	140	9
69	69	9
15	145	2
42	42	12
97	97	6
21	21	7
12	144	2
126	151	5
141	141	7
36	36	5
95	95	13
111	125	2
129	141	1
39	39	11
104	129	2
138	150	8
83	83	12
105	106	3
33	33	7
77	89	6
71	92	1
118	136	2
77	77	6
24	24	5
40	40	12
124	125	3
14	14	9
1	1	7
126	133	2
80	81	1
31	31	15
118	129	1
125	154	5
26	42	3
76	86	2
119	119	3
96	96	10
100	100	11
20	21	4
149	149	6
47	47	10
49	49	8
136	136	11
108	108	6
0	5	4
65	65	1
102	102	4
7	8	5
27	47	3
5	38	1
93	93	6
138	138	9
84	84	5
123	140	6
18	18	3
128	128	4
137	138	4
7	7	7
41	42	6
13	144	1
16	17	6
113	116	3
125	139	2
108	109	3
5	5	9
1	2	2
51	52	2
100	131	2
22	22	8
150	155	2
118	118	17
156	156	9
106	110	3
30	121	1
91	92	4
27	27	7
106	106	9
94	94	1
117	117	2
4	9	2
113	113	8
147	147	6
13	37	1
78	86	2
20	53	10
30	33	3
143	143	6
153	153	7
78	78	7
103	103	1
45	70	2
136	137	4
6	6	11
43	43	7
66	82	3
7	37	2
70	70	4
66	70	2
52	52	2
90	90	5
24	50	1
145	145	9
83	84	3
73	89	1
36	48	4
108	127	3
86	86	2
8	32	3
9	9	5
157	157	3
124	124	5
85	86	6
112	134	3
19	19	5
32	32	2
77	78	3
155	156	11
127	128	6
104	104	8
87	119	3
8	136	4
102	113	1
37	40	1
20	20	10
132	133	3
10	10	5
43	61	1
46	46	3
112	142	1
142	145	1
132	143	2
118	127	1
146	147	2
16	27	4
3	4	5
23	38	2
137	137	14
44	86	1
150	158	2
91	91	9
112	113	1
148	149	2
11	11	3
63	74	3
85	85	7
87	87	3
10	30	3
7	21	2
7	20	3
111	114	1
12	22	1
92	92	2
154	154	4
68	68	12
11	12	4
102	125	2
135	137	1
28	33	2
26	26	8
67	72	1
50	50	6
127	135	2
110	110	5
140	157	2
131	143	1
18	35	2
66	86	2
26	40	1
123	127	5
71	71	8
101	102	1
79	80	1
8	8	11
126	127	3
63	63	6
104	114	1
151	152	4
107	109	2
133	133	11
29	151	2
147	148	3
3	3	11
139	157	2
87	88	3
38	47	1
19	33	6
37	43	2
1	39	1
82	82	4
127	127	7
121	121	6
75	83	2
111	111	3
45	67	2
107	116	1
51	55	5
31	32	2
152	152	5
127	136	5
112	112	2
147	158	4
70	89	7
117	133	1
35	35	5
17	35	4
105	105	8
148	148	7
23	23	5
14	16	2
68	70	6
86	103	4
56	56	8
87	124	2
129	139	4
125	125	6
86	106	3
37	67	2
88	88	18
100	128	3
12	20	3
4	7	3
86	92	3
4	4	9
119	133	3
10	143	5
28	37	5
64	71	2
93	94	5
55	55	6
79	79	8
30	35	1
98	110	1
109	111	4
29	29	7
118	126	3
118	125	1
130	132	2
116	123	2
43	49	2
103	104	3
117	120	1
28	47	4
92	112	1
39	55	2
50	147	3
109	125	6
1	8	2
151	151	2
66	68	1
132	142	3
70	83	2
40	58	5
92	105	3
83	106	3
15	46	2
86	89	1
94	95	2
69	99	1
81	81	4
7	24	1
23	24	6
80	85	3
133	148	2
120	120	5
130	130	7
51	51	3
86	112	2
17	19	2
131	132	1
71	91	2
27	34	1
17	30	2
114	114	5
110	118	3
7	26	2
76	85	5
89	90	1
101	101	1
135	135	4
111	131	3
125	156	2
11	34	3
128	129	5
54	54	7
146	148	3
27	28	6
11	147	1
11	35	4
20	33	2
70	78	3
144	144	6
91	101	4
80	80	2
43	48	2
154	156	3
53	53	2
119	121	1
40	41	3
99	99	4
116	119	1
19	35	1
12	33	1
23	48	1
0	19	5
146	146	3
100	102	1
22	143	2
155	157	1
18	19	2
75	96	1
70	71	2
114	138	7
119	134	4
30	65	3
122	131	2
11	31	1
73	73	3
109	110	2
100	116	1
128	138	2
9	148	4
136	154	3
81	96	1
20	145	1
155	155	3
106	138	1
17	21	2
99	100	2
140	149	2
49	57	5
27	54	2
13	13	3
2	5	3
23	34	3
98	99	5
78	96	1
39	40	2
2	24	2
0	3	2
115	116	2
55	67	3
48	48	7
56	73	1
12	12	7
83	110	1
43	52	5
17	37	1
118	130	7
0	0	3
129	129	2
94	96	1
11	46	4
0	4	2
30	30	2
120	127	1
5	6	1
44	45	1
0	22	1
36	37	3
2	2	4
129	130	5
4	5	4
109	109	3
0	18	5
15	15	1
62	74	1
31	35	1
153	154	2
49	54	2
152	153	1
84	85	3
27	40	3
24	36	1
41	41	3
45	72	1
131	131	2
103	114	3
19	24	4
20	22	2
113	138	2
22	23	2
2	11	2
39	42	2
20	144	2
53	58	2
103	116	1
78	79	1
4	39	2
80	98	1
2	26	2
100	101	1
107	131	1
33	34	1
15	16	2
89	89	2
25	40	1
87	122	2
107	108	3
134	148	1
81	95	2
117	131	1
7	50	1
90	123	1
122	148	1
128	156	1
132	138	1
101	116	2
110	119	1
141	153	3
139	139	3
18	23	2
71	72	2
31	33	1
75	77	1
108	130	1
134	137	1
126	140	1
12	21	1
66	85	3
134	134	1
1	4	1
26	47	2
134	142	1
3	9	1
20	27	2
128	155	1
121	126	1
16	30	1
34	34	1
40	69	1
132	132	3
53	56	1
17	44	1
118	131	1
102	116	1
142	159	1
87	101	1
105	109	2
43	55	3
41	43	1
34	44	1
66	66	1
51	54	3
13	20	1
109	114	1
142	142	1
30	50	1
42	55	1
102	119	1
27	117	1
86	93	1
67	69	1
123	124	1
82	85	1
37	48	1
110	139	1
150	150	1
25	31	1
130	131	1
64	65	1
133	134	1
88	89	2
40	42	1
18	48	2
38	39	1
90	109	1
36	50	1
30	108	1
18	31	2
5	157	1
140	151	1
66	84	1
29	34	1
