112	112	3
108	109	2
59	60	1
92	95	5
56	57	3
114	114	6
42	81	6
80	80	7
2	3	4
40	40	3
95	95	3
48	48	15
88	89	5
69	69	6
102	102	6
66	67	6
15	15	9
38	39	2
16	17	1
7	7	10
120	120	6
73	73	7
39	39	6
68	126	2
125	126	1
95	96	4
6	6	6
99	99	9
104	104	17
11	11	2
124	124	8
16	16	10
15	16	1
61	62	4
68	73	1
42	43	5
18	19	1
38	38	6
2	2	14
53	54	4
110	110	10
12	13	2
10	33	4
44	46	5
122	122	16
27	27	1
24	24	9
28	28	6
89	89	5
105	105	3
62	72	4
70	70	4
26	27	3
65	66	2
62	62	2
120	131	5
39	49	2
73	78	1
49	50	2
66	66	5
88	100	7
117	117	3
51	51	9
101	102	4
129	129	5
49	55	4
98	98	3
49	49	8
32	33	3
3	3	11
32	32	2
20	20	1
104	113	4
82	83	2
99	100	12
18	18	8
17	20	4
94	94	5
119	119	6
96	99	4
128	129	5
17	17	2
127	129	4
29	30	1
57	58	1
44	44	12
8	9	1
68	120	2
103	127	4
64	72	2
129	130	4
34	34	5
115	116	3
107	107	5
126	126	4
46	47	5
1	1	8
33	117	4
8	12	1
1	2	2
115	115	8
77	77	11
42	42	2
4	4	10
67	68	14
3	4	2
104	106	5
92	94	7
57	57	5
62	73	1
69	70	5
13	20	3
97	97	3
105	106	5
13	25	2
10	10	8
87	87	8
109	110	2
31	32	3
127	127	3
23	23	1
93	93	5
8	11	3
41	42	5
111	111	4
9	19	3
21	21	3
95	132	2
83	84	2
46	86	2
70	71	1
79	79	3
64	64	4
52	52	2
128	128	4
25	25	3
90	90	4
50	50	4
109	112	3
110	111	3
69	110	3
59	59	2
19	19	2
13	13	6
96	125	4
33	34	2
109	119	2
66	68	4
50	52	2
113	114	3
113	113	5
115	117	3
91	92	3
92	92	1
130	130	3
88	88	4
91	93	3
96	97	3
53	53	3
64	104	1
96	96	5
103	103	4
23	93	1
126	127	4
132	132	14
100	101	5
55	55	3
107	108	2
4	7	3
72	90	6
96	113	3
67	67	2
100	100	8
81	81	4
39	45	2
76	76	9
75	91	2
125	125	2
108	108	5
101	101	6
121	121	2
60	61	2
99	101	2
11	92	1
5	5	2
13	21	2
9	9	4
83	85	2
22	22	1
106	106	6
89	100	1
37	37	1
38	42	2
12	12	7
56	56	2
92	93	4
103	126	1
48	75	1
48	79	2
123	123	5
75	75	3
63	103	2
86	86	2
6	7	1
131	132	2
73	74	1
108	119	4
65	65	4
118	118	2
82	82	3
119	129	1
30	77	2
9	83	1
0	0	2
109	109	8
68	74	1
106	107	5
84	84	1
78	78	1
65	71	1
8	8	2
26	26	1
103	104	1
122	123	1
112	113	1
55	113	3
101	103	2
47	47	2
133	133	2
77	78	2
124	125	1
91	91	2
12	92	2
81	83	1
109	111	1
75	97	2
28	29	2
65	67	2
60	60	1
40	88	1
50	51	2
74	74	2
100	102	1
63	64	1
5	16	1
131	131	1
116	116	2
58	58	2
104	105	1
109	117	1
50	53	3
127	128	1
47	48	1
73	107	1
97	129	1
126	131	2
124	132	2
5	6	1
18	20	1
102	103	1
43	43	2
120	125	1
63	63	1
41	41	1
69	72	1
7	18	1
87	89	1
128	130	1
117	118	1
