119	119	8
151	158	2
194	194	9
62	62	18
22	22	7
70	89	1
121	121	9
62	124	1
137	140	5
61	61	14
54	56	2
87	87	7
57	57	8
160	164	3
167	167	22
1	1	10
55	57	1
161	161	2
157	167	2
145	145	13
173	175	4
94	95	4
15	15	3
41	43	3
79	80	3
128	128	13
67	73	1
31	31	8
57	58	4
171	172	6
26	26	3
149	149	9
109	109	3
163	163	6
13	13	6
119	121	6
5	6	4
18	41	2
78	78	6
60	129	2
79	79	11
67	123	1
155	157	1
126	126	7
32	33	9
184	184	5
141	154	4
59	95	2
185	190	2
159	161	7
70	70	11
157	160	7
158	158	4
47	47	15
5	191	3
51	52	2
72	72	3
178	178	5
24	33	2
39	139	2
170	170	13
188	188	6
181	186	3
125	125	11
197	197	7
18	21	3
144	145	5
106	135	4
175	191	1
183	185	1
5	5	1
24	31	1
179	180	2
42	139	2
184	185	3
82	82	7
171	171	9
50	50	7
108	108	12
46	46	16
127	127	7
112	131	6
193	194	2
129	129	4
8	45	2
10	46	3
40	41	5
4	5	3
115	115	5
21	21	3
131	131	4
11	12	10
40	40	6
69	168	3
146	147	5
99	101	2
159	159	3
11	11	13
32	32	16
0	192	3
163	164	9
103	135	3
16	16	8
45	45	4
173	174	1
88	88	9
116	116	6
31	33	6
177	177	7
137	139	6
196	197	1
185	185	3
157	157	1
142	149	3
156	161	2
113	114	4
124	126	4
103	104	7
148	148	2
17	17	10
69	69	14
182	194	3
192	194	3
156	156	13
19	19	7
0	1	1
105	137	1
113	125	4
89	89	8
166	166	8
94	94	4
64	64	6
116	117	11
49	49	14
107	130	2
81	84	1
80	80	2
105	105	10
2	189	3
53	54	3
179	187	1
97	97	20
109	110	4
196	196	8
167	169	3
33	33	15
131	132	3
74	89	2
180	180	15
56	56	4
113	113	15
76	77	2
165	165	2
193	193	2
140	140	6
7	190	4
68	68	4
115	121	3
152	153	2
24	24	8
66	66	6
87	88	2
93	108	1
50	51	9
70	72	3
67	67	6
52	53	3
150	150	8
152	159	2
48	49	1
78	79	5
184	191	3
190	190	13
179	179	10
9	9	11
195	197	2
63	119	1
37	38	5
112	112	2
38	38	3
83	84	4
117	117	12
166	167	4
96	96	4
133	133	1
160	160	2
73	73	1
18	18	1
143	148	3
117	118	1
186	186	4
20	20	2
7	7	3
29	29	5
76	78	4
71	71	6
48	48	8
25	26	6
57	64	2
138	138	6
138	139	3
182	183	6
174	175	3
24	25	3
181	181	5
72	89	4
173	173	11
37	37	5
60	124	1
43	45	1
20	22	1
110	111	3
62	119	3
180	182	2
74	74	1
129	138	3
126	127	2
40	42	4
100	100	7
12	45	2
14	14	5
115	118	3
71	85	7
99	99	5
67	86	1
53	53	9
140	141	1
25	27	1
112	114	5
10	12	6
7	45	2
46	47	1
93	93	2
152	152	4
41	41	7
58	58	2
70	71	7
43	43	3
143	143	3
6	10	1
110	110	4
162	162	1
59	59	4
23	35	2
168	168	13
3	126	3
59	94	2
148	149	2
54	54	3
165	166	5
74	83	2
6	6	9
70	80	2
150	152	3
166	169	2
20	37	1
178	191	1
8	15	1
136	140	3
101	101	4
34	37	1
124	124	1
79	168	1
123	123	9
76	79	2
9	12	4
18	40	1
41	186	2
39	39	2
142	151	1
147	147	5
172	172	7
15	16	2
98	99	5
23	23	2
44	46	1
164	164	4
174	176	3
124	125	7
70	85	1
104	104	1
95	131	2
127	128	1
75	76	2
10	10	7
174	178	1
70	73	2
35	35	4
41	185	1
177	184	2
77	79	4
71	89	2
84	171	2
60	60	7
82	87	1
184	190	1
191	191	8
34	35	1
144	144	5
155	155	4
13	14	2
83	172	1
30	31	3
87	165	2
58	59	1
112	115	1
31	32	4
102	102	3
96	97	3
177	191	4
80	173	2
39	43	2
125	126	1
143	144	2
88	89	3
83	171	5
118	119	5
73	74	2
51	53	3
146	146	2
142	142	6
149	169	2
172	178	4
69	121	1
111	112	3
182	185	2
168	169	1
8	169	3
134	134	1
106	106	1
93	162	1
58	127	1
141	141	2
68	69	4
104	106	2
183	183	9
66	67	4
192	192	2
95	101	1
42	42	4
82	88	1
35	36	4
85	86	1
119	120	2
29	31	1
130	132	3
107	108	2
67	87	2
132	132	11
103	106	1
55	56	2
61	62	2
27	27	2
19	20	1
61	124	1
107	107	5
76	76	4
70	74	1
98	100	2
136	136	2
97	99	2
12	12	6
44	44	2
65	65	5
84	84	6
70	114	5
102	134	3
161	162	3
179	181	1
113	122	3
14	46	2
137	137	3
187	187	1
54	89	1
173	178	2
189	193	1
87	171	2
16	17	7
140	142	2
3	193	2
17	21	1
75	75	1
176	191	2
143	147	3
134	136	3
0	3	1
67	68	1
116	120	4
139	139	7
12	125	1
125	127	1
114	114	3
3	10	1
0	2	2
44	123	2
122	122	6
135	135	4
28	30	1
66	68	2
59	60	2
101	130	6
61	117	2
16	19	1
60	62	1
36	36	1
179	186	1
146	149	2
0	14	1
25	25	4
49	50	1
26	28	2
15	18	1
172	174	2
156	158	1
21	34	1
176	176	3
44	121	3
104	105	5
77	77	5
151	151	1
5	8	1
98	98	4
51	51	4
189	189	2
72	74	1
88	109	2
158	160	2
38	39	2
54	58	2
120	121	1
47	128	1
29	30	2
169	169	2
8	39	2
44	124	1
81	81	5
77	78	2
6	40	1
153	160	1
138	140	1
187	188	1
36	37	1
162	165	2
190	192	1
131	134	1
175	176	2
116	122	1
37	99	2
174	174	2
147	156	1
180	181	1
57	65	1
15	17	1
186	188	1
3	5	1
90	167	1
16	21	2
130	131	1
126	128	1
86	87	2
105	134	1
153	159	2
86	86	2
47	79	1
137	141	1
60	63	1
154	154	2
170	172	1
159	160	3
187	190	3
58	93	2
6	35	2
101	102	1
156	170	1
28	28	4
41	139	1
185	186	2
153	153	1
158	167	1
71	72	1
85	85	3
122	124	1
136	137	2
154	155	1
130	130	1
142	148	1
78	169	1
4	4	4
46	82	1
47	48	1
116	118	2
113	115	1
110	113	1
172	175	1
161	166	1
84	86	1
55	55	3
177	183	2
11	46	1
52	52	4
1	193	1
17	18	1
8	8	5
54	90	1
169	170	3
30	30	1
19	35	1
80	86	1
151	171	1
67	69	1
36	38	1
64	65	2
170	171	1
12	40	1
51	168	2
62	63	1
94	96	1
178	182	1
119	127	1
3	3	3
4	39	2
188	189	1
183	194	1
118	118	2
90	156	1
95	95	1
59	128	1
129	130	1
13	43	2
158	166	1
2	2	1
81	85	1
54	157	1
96	99	1
8	9	2
99	164	1
58	128	1
2	13	1
153	154	1
11	183	1
23	24	1
195	196	1
44	86	1
48	50	1
42	43	1
