61	61	10
68	68	2
4	56	5
62	115	3
77	77	1
80	120	2
15	73	1
108	108	3
124	124	3
132	132	3
119	119	7
26	26	5
110	129	3
28	28	4
7	25	2
59	59	3
16	16	5
75	99	2
10	31	4
75	75	5
108	132	1
25	28	2
126	127	3
106	118	6
27	27	2
99	99	5
3	3	1
11	38	3
83	83	2
12	12	4
14	15	1
53	55	1
32	33	2
0	4	4
35	35	4
19	131	1
18	18	5
66	66	3
121	121	3
72	132	5
9	9	8
115	115	5
64	64	4
86	101	1
50	113	1
109	127	1
126	126	3
92	92	1
91	91	5
11	11	7
21	47	2
113	113	6
17	18	1
79	118	1
15	16	2
56	56	3
24	27	1
19	45	4
81	126	2
76	76	5
23	23	3
121	122	1
4	4	9
80	80	5
63	64	3
44	83	1
54	54	2
18	19	1
93	110	3
49	50	2
20	46	1
29	29	5
5	5	5
16	93	2
59	114	5
19	96	4
26	31	2
96	96	3
32	56	4
31	31	2
134	134	1
7	7	7
109	109	5
50	50	2
55	56	6
12	52	4
16	17	1
73	132	1
4	38	1
71	72	3
61	87	1
57	57	2
34	34	1
78	116	2
94	98	2
114	115	5
93	93	2
73	73	5
112	112	2
87	111	3
98	98	5
8	55	2
65	65	3
10	10	1
45	45	3
131	131	2
35	36	2
88	88	2
103	103	4
33	33	3
79	79	4
129	129	2
58	71	2
127	127	2
98	112	1
12	13	1
21	21	4
110	111	1
10	37	1
8	8	2
130	131	1
64	67	1
102	125	2
87	87	2
19	98	1
120	120	1
93	98	1
9	46	2
71	71	3
21	92	2
8	10	3
94	96	1
43	43	1
84	84	4
22	47	2
42	42	2
53	53	8
25	27	2
11	27	2
30	31	1
106	110	3
1	2	1
9	55	3
58	112	4
24	24	2
23	29	1
70	70	3
107	107	1
17	17	1
50	52	1
62	117	1
26	27	3
128	129	2
19	19	1
123	123	1
13	14	1
25	25	3
62	90	1
82	125	4
110	130	1
63	89	1
3	36	1
13	98	1
47	48	1
98	100	2
44	44	1
97	97	2
33	56	1
6	6	2
46	46	2
32	35	2
2	2	4
87	90	3
54	83	1
52	52	4
82	119	1
13	15	1
121	134	1
32	32	1
129	131	1
13	111	1
95	95	1
65	85	1
103	118	1
68	69	2
127	128	2
69	69	1
24	31	1
132	133	1
27	31	2
93	131	1
53	57	1
19	97	1
26	28	1
23	24	1
36	36	1
86	86	1
3	38	1
103	104	1
121	130	1
103	126	1
