50	64	1
108	108	7
100	100	5
75	76	4
63	63	9
88	100	3
76	77	3
81	90	1
111	114	3
44	44	6
89	101	4
114	114	2
91	91	14
29	29	11
33	39	1
102	102	3
104	104	6
43	53	2
96	97	1
102	104	6
47	63	2
34	40	7
28	36	1
92	104	4
45	50	1
34	34	4
66	66	5
79	91	4
103	105	1
49	49	12
89	90	3
90	90	6
58	58	7
22	33	2
31	36	3
39	51	4
96	96	1
32	33	4
96	109	4
67	67	4
22	22	4
77	77	7
105	109	4
74	74	7
55	61	2
59	61	2
62	62	8
76	82	3
109	110	5
45	63	1
87	89	3
64	65	5
74	88	2
60	72	4
111	111	7
27	28	2
50	51	4
103	103	4
61	61	2
63	65	1
39	42	5
92	105	3
53	53	3
72	79	2
62	65	2
94	98	6
99	99	10
42	43	7
31	31	9
75	87	3
111	112	6
98	98	4
84	95	5
83	84	2
92	103	2
55	55	11
37	38	3
80	80	2
39	48	1
47	47	2
21	21	3
105	105	4
81	82	8
79	81	3
56	67	3
36	43	3
69	69	4
99	100	6
98	113	8
93	102	1
92	92	14
105	107	3
108	110	6
99	109	1
20	20	4
93	93	6
22	29	5
88	88	5
80	85	1
100	103	2
88	91	1
69	80	3
84	89	4
52	52	4
88	99	5
65	68	2
84	84	5
64	68	2
36	36	2
43	44	3
47	58	6
28	28	3
58	79	4
19	38	2
68	68	8
37	44	3
27	27	7
113	113	4
43	51	1
83	83	11
30	30	4
90	102	5
25	32	1
82	83	2
81	86	2
97	99	1
32	32	10
94	99	3
49	50	5
43	56	2
51	60	2
31	32	3
69	77	2
76	92	1
28	31	4
96	105	2
56	56	4
49	62	1
101	101	2
86	86	4
85	85	5
82	82	11
47	51	2
110	110	6
54	54	6
66	68	5
38	38	8
110	111	5
94	94	5
32	35	4
84	99	5
26	34	4
109	111	6
102	103	4
97	97	13
59	68	2
33	33	2
87	99	5
44	56	7
71	78	2
80	89	2
21	25	2
105	106	4
68	80	3
41	41	3
37	47	4
20	23	1
57	72	1
70	73	1
103	106	2
74	82	2
39	61	1
66	75	4
46	46	2
34	41	6
81	83	1
52	53	3
110	114	1
32	39	1
87	88	4
88	89	2
25	37	3
106	109	1
45	52	2
51	58	2
99	104	3
37	37	5
43	47	1
68	70	1
78	81	1
94	96	2
48	48	4
21	24	1
88	94	1
80	81	4
45	55	2
24	40	4
52	57	1
30	31	1
34	45	1
51	51	7
50	60	1
72	72	3
100	113	2
53	64	2
89	89	1
40	40	8
29	33	1
23	23	2
70	72	5
74	75	2
53	54	9
91	92	3
108	111	1
64	70	3
74	90	6
59	71	3
84	86	2
69	83	1
35	44	1
69	81	1
41	59	2
51	59	5
84	85	9
112	112	4
103	113	2
58	61	9
24	29	3
76	88	4
42	44	1
60	73	1
67	69	3
43	43	8
22	27	3
47	57	2
70	80	2
86	92	4
93	94	2
20	35	1
46	56	4
64	64	5
85	99	2
24	47	4
35	50	2
106	107	4
22	30	2
35	38	1
39	60	3
90	91	2
93	95	1
51	66	3
85	97	2
79	92	1
24	37	1
108	109	3
91	103	3
62	64	3
23	29	1
46	47	2
20	22	2
64	75	1
50	57	3
68	72	1
82	84	2
42	42	6
36	38	4
48	51	2
51	61	1
88	113	4
63	73	3
113	114	3
31	34	2
41	43	3
72	78	1
73	84	3
59	59	7
51	57	2
101	103	1
100	110	1
94	111	3
88	92	1
98	99	1
61	70	2
97	113	2
95	95	6
69	76	1
26	28	2
64	67	1
78	86	2
98	112	1
92	94	3
48	49	1
51	53	5
85	114	1
67	68	6
60	63	1
65	69	2
41	42	3
63	75	2
39	40	3
23	24	1
71	73	1
94	107	1
86	87	2
74	76	4
86	95	2
90	103	3
81	81	5
99	103	1
97	100	3
27	34	2
86	99	1
27	36	1
33	36	3
40	50	1
92	102	1
57	66	1
60	61	4
65	66	3
29	39	1
66	73	1
28	38	1
76	80	1
49	60	1
41	44	4
71	75	1
58	70	1
55	67	3
47	56	2
39	56	1
59	63	5
104	106	3
68	81	1
20	27	2
46	48	2
45	59	3
99	111	1
44	47	3
41	56	1
34	39	1
51	52	2
48	52	1
103	104	4
35	35	4
86	93	4
64	83	5
25	25	2
48	57	1
95	96	2
26	26	4
42	50	1
42	58	1
79	80	2
50	50	3
86	102	1
71	71	2
55	59	2
58	68	1
89	98	1
87	87	3
75	80	2
106	106	2
58	60	1
52	64	1
32	45	1
40	54	1
28	39	1
47	49	3
73	83	2
99	107	1
68	77	2
55	58	1
24	34	1
90	100	1
83	85	1
31	35	1
24	24	2
54	66	3
107	108	1
40	43	2
58	62	1
34	43	3
100	105	1
24	36	1
81	88	4
70	70	2
85	86	1
104	109	1
104	110	2
73	74	1
92	107	5
63	68	1
91	102	2
56	71	1
41	45	1
62	71	2
82	95	1
101	114	3
22	24	1
19	23	2
40	42	1
62	73	1
85	92	2
23	30	1
42	46	3
53	55	1
101	111	1
57	78	2
19	19	1
107	107	1
100	102	1
77	78	1
73	93	1
38	39	1
19	30	2
39	39	3
77	79	3
44	51	3
105	108	1
58	75	1
59	73	1
53	57	1
60	74	1
21	29	1
75	75	4
87	92	1
76	87	1
62	76	1
100	107	1
85	96	1
80	83	1
68	85	1
45	45	1
96	108	2
65	65	1
101	115	1
79	79	1
79	88	2
45	53	1
51	68	1
93	106	1
84	88	2
76	76	1
76	78	1
88	98	1
57	67	1
84	97	1
28	30	1
56	68	1
36	47	1
27	29	1
73	73	2
20	24	1
85	87	1
40	41	1
77	81	1
45	56	1
60	60	1
101	112	1
44	45	1
