31	35	2
132	132	11
120	120	7
38	38	9
22	22	4
130	171	5
74	147	6
162	163	5
176	176	1
83	83	13
147	147	6
64	64	4
123	126	2
134	135	2
148	148	4
13	156	2
167	174	1
185	185	10
133	135	1
57	57	6
164	164	6
86	162	3
21	21	2
15	17	4
178	179	8
187	188	5
174	176	1
186	186	6
14	15	5
123	123	5
13	13	11
135	136	5
98	114	1
186	187	8
72	73	2
167	167	6
24	24	6
121	121	4
32	33	6
74	74	9
17	18	6
155	155	12
36	36	7
156	157	6
44	44	11
119	125	2
162	162	7
159	159	14
61	62	5
4	6	2
124	124	7
40	40	6
161	162	10
121	148	2
53	53	5
140	148	5
91	100	2
60	60	9
182	183	13
26	26	3
99	102	2
181	181	2
93	100	1
153	153	11
118	118	4
83	108	4
153	166	2
172	184	1
22	26	1
59	139	5
123	124	2
166	187	1
18	19	6
65	69	5
111	111	11
119	119	11
174	177	1
45	45	2
145	145	3
42	43	2
65	67	4
101	138	4
174	174	4
166	166	6
100	100	5
63	63	3
152	153	5
157	157	11
146	146	2
133	133	2
48	49	2
10	12	3
151	151	4
109	109	3
169	171	8
163	163	10
174	175	5
88	117	4
99	99	9
58	64	3
142	142	9
129	129	4
109	110	7
87	90	3
155	156	6
177	177	3
154	180	3
42	42	10
152	152	5
137	137	7
67	67	9
5	5	3
21	22	5
103	104	3
98	98	8
128	128	5
66	67	5
114	114	5
116	118	4
38	76	2
33	37	3
112	112	5
108	110	3
106	106	3
23	24	1
120	122	2
65	65	3
141	141	7
29	30	3
99	100	2
46	46	2
43	43	9
102	104	1
115	115	2
37	76	2
156	156	7
173	173	13
11	12	3
30	31	2
135	135	2
31	31	7
48	48	2
126	137	1
178	181	1
31	32	2
38	77	1
89	89	12
96	96	2
87	88	6
190	190	5
140	140	5
182	182	8
81	81	6
130	131	5
122	166	4
20	20	8
55	78	2
135	137	1
139	139	3
165	165	5
76	80	1
23	23	4
108	109	3
86	86	2
181	182	5
169	169	11
131	169	1
55	55	3
189	189	7
107	107	8
16	41	4
133	134	3
161	163	3
117	118	3
106	110	3
96	97	2
150	151	3
39	39	8
79	82	2
2	2	5
75	78	3
92	94	3
164	165	3
158	158	3
78	78	3
104	104	2
111	160	1
110	110	5
131	136	2
30	33	3
105	105	9
16	59	3
42	143	3
95	96	2
57	152	3
16	17	2
59	59	4
89	91	1
172	176	1
108	111	2
160	160	2
12	12	4
139	140	3
56	56	6
12	13	2
122	123	1
126	169	3
28	34	2
141	146	5
54	55	4
109	114	2
167	169	4
149	151	3
183	183	5
125	125	2
15	16	2
58	61	4
30	37	2
95	95	3
17	40	6
108	108	5
161	161	2
84	84	2
130	130	8
7	7	3
35	35	11
90	90	3
137	138	2
36	37	1
9	9	1
184	185	4
132	190	2
6	6	1
13	20	2
41	42	1
91	91	1
41	41	5
177	189	4
40	41	1
170	172	1
46	136	1
91	95	1
68	68	3
14	108	5
106	107	4
184	184	2
102	102	9
57	84	1
167	168	4
149	149	8
64	68	2
103	103	5
82	83	1
97	97	3
172	172	4
147	148	3
146	147	1
46	131	2
43	55	3
29	29	2
155	181	2
88	88	2
161	170	3
70	71	1
178	178	4
1	2	2
44	46	3
17	17	3
160	164	1
150	150	2
102	109	3
125	126	6
129	170	3
11	108	2
101	101	4
154	155	1
173	174	2
46	49	2
189	190	5
170	170	1
10	11	2
117	142	1
129	130	3
71	71	4
72	72	1
16	16	4
143	143	3
19	20	5
3	3	3
177	185	1
61	61	6
82	82	3
33	34	2
138	138	6
142	147	5
124	125	2
149	161	1
74	142	3
68	69	1
133	148	1
25	25	4
153	154	6
122	122	1
38	62	3
78	79	1
132	133	1
154	154	2
116	119	3
137	140	3
117	141	2
90	109	2
188	189	2
34	34	3
19	62	1
177	179	5
111	114	1
115	118	2
74	75	1
70	70	2
133	169	3
25	26	1
30	34	4
43	44	3
89	90	1
163	165	1
22	23	2
17	83	2
66	66	1
37	37	1
175	175	1
179	179	2
172	177	1
9	83	1
185	186	1
56	57	1
10	90	1
156	179	3
20	62	1
85	88	2
13	17	1
103	106	1
80	80	1
66	77	2
19	21	1
187	187	1
129	169	3
54	54	3
134	134	6
143	144	2
36	41	1
64	66	2
79	80	1
63	64	3
90	113	1
118	120	1
68	70	1
25	156	2
47	47	1
11	23	1
168	174	1
119	120	1
93	93	1
97	114	1
126	136	1
129	140	3
42	44	1
71	145	1
55	56	2
100	101	1
97	116	1
14	14	2
113	114	1
159	169	1
34	36	1
75	75	4
73	73	1
125	169	1
188	188	1
44	45	1
120	148	1
24	26	1
96	102	1
21	23	2
176	186	1
105	107	1
82	155	2
163	164	1
8	24	1
166	168	1
10	82	2
15	42	1
173	178	1
144	145	1
123	125	1
10	108	1
62	67	1
77	77	1
79	79	1
177	178	1
2	7	1
45	154	1
