38	58	4
43	44	5
61	63	2
37	59	1
64	66	1
20	51	1
47	47	6
33	45	2
37	38	9
35	35	6
18	32	1
75	76	3
64	64	3
11	71	2
8	10	9
72	74	5
41	41	6
42	42	14
50	68	2
44	44	7
7	10	3
37	37	7
65	65	7
3	4	6
33	34	6
63	63	8
26	26	8
8	71	4
15	50	3
7	8	3
57	60	2
69	69	6
53	53	9
2	3	2
39	39	1
7	7	5
73	73	8
22	23	3
36	53	2
52	76	7
0	1	3
73	75	2
75	75	4
56	56	9
49	49	3
52	52	3
32	32	2
36	59	3
33	44	1
71	71	3
4	4	4
55	56	5
55	55	5
34	34	4
49	51	3
65	66	5
74	74	6
29	29	13
25	26	5
73	74	3
54	54	6
33	40	3
59	59	6
23	23	4
6	41	2
45	48	2
13	13	8
54	56	7
6	68	3
18	18	4
55	76	2
30	30	3
19	76	2
42	43	1
23	24	2
0	58	2
11	11	3
71	74	1
33	33	7
10	10	10
76	76	4
64	67	1
19	19	12
12	71	1
38	47	3
75	77	1
25	28	1
70	72	1
49	50	9
5	5	5
8	8	7
9	9	7
65	69	3
5	68	2
10	14	2
18	35	1
26	27	3
18	48	2
58	58	2
45	45	3
24	25	2
65	67	1
38	39	2
24	24	4
38	38	2
48	50	1
34	41	2
27	28	4
70	70	4
66	67	1
45	46	1
36	36	3
6	6	6
41	50	1
53	54	1
61	62	1
47	60	6
31	31	4
52	54	3
57	57	3
37	44	2
19	20	2
2	2	5
70	73	2
43	43	2
66	66	3
12	52	1
19	21	1
74	77	3
42	51	3
24	26	2
47	48	1
24	31	1
21	22	2
28	28	4
21	21	2
31	33	4
67	69	1
6	70	3
18	41	1
13	14	1
3	3	4
61	61	5
67	68	2
12	12	1
20	20	1
24	32	2
25	25	2
7	70	1
76	77	1
53	55	3
1	1	1
52	57	1
77	77	8
0	0	6
5	8	5
50	57	3
23	31	1
46	47	2
0	2	1
46	46	1
6	38	2
62	62	1
20	42	2
50	50	2
60	61	1
44	45	3
1	2	3
3	76	1
19	41	3
60	60	1
15	49	1
34	35	1
18	30	1
48	48	2
18	19	1
31	32	1
67	67	2
34	37	1
35	58	2
70	71	1
18	20	1
72	72	1
34	39	1
47	73	1
28	31	1
35	39	1
37	39	1
43	45	2
4	5	1
49	69	1
41	42	1
58	66	1
