17	19	2
74	74	12
57	112	2
16	17	1
57	110	1
157	157	3
172	172	4
87	87	6
11	11	2
44	44	5
55	72	3
178	178	3
40	40	1
160	161	2
95	96	3
171	171	6
32	32	5
37	37	13
112	112	7
157	158	4
124	124	3
44	110	2
22	23	8
139	139	2
34	34	7
159	159	12
96	96	6
126	126	4
98	98	8
43	43	13
167	168	1
131	140	4
93	93	1
65	65	3
72	72	23
73	73	5
108	108	7
130	130	11
94	94	10
143	143	3
80	80	5
105	105	10
61	62	3
24	24	6
95	95	9
165	169	3
179	180	2
10	21	1
160	160	6
158	158	6
51	51	7
162	162	5
105	139	4
33	33	4
25	26	2
24	32	1
71	71	12
109	112	3
67	67	2
78	78	8
127	127	2
118	118	2
153	153	11
13	75	3
141	142	1
173	174	4
90	94	6
132	132	11
3	3	2
61	61	11
68	68	3
92	92	1
122	122	2
148	148	9
6	6	5
154	154	4
15	73	4
134	134	8
65	131	2
139	140	4
63	127	2
177	177	3
50	50	5
76	76	5
2	35	1
66	67	6
145	145	6
42	43	5
79	79	7
14	17	3
152	153	3
56	56	2
129	130	7
10	10	7
57	58	1
16	114	2
117	117	2
38	45	2
4	35	4
169	169	10
16	16	7
164	164	3
176	176	12
87	88	4
2	3	2
107	108	3
131	132	2
15	15	4
52	52	10
146	148	2
83	83	5
98	99	1
36	36	8
128	128	3
151	151	6
152	156	1
124	125	5
163	165	3
140	159	1
120	120	4
106	138	1
57	57	8
135	135	5
179	179	8
156	157	1
35	35	4
0	0	5
18	19	1
116	116	4
9	9	6
173	173	4
161	162	1
15	17	1
58	100	3
90	91	2
177	178	1
55	55	4
149	149	4
121	122	5
114	114	5
161	161	9
107	107	8
137	138	3
2	4	3
13	22	1
101	101	2
117	118	6
124	141	1
64	64	2
61	125	1
13	19	3
13	20	6
83	84	2
168	168	6
163	163	9
92	93	3
86	87	2
140	158	4
21	21	4
115	115	4
91	92	1
42	42	3
167	167	1
17	73	1
131	131	4
28	28	4
39	39	5
11	25	1
41	41	3
141	141	3
111	111	3
75	75	4
60	133	2
146	146	9
60	60	13
82	82	7
41	43	1
36	37	2
25	32	1
166	166	5
43	44	3
31	31	4
133	134	1
81	81	2
147	151	2
97	97	3
81	82	2
119	121	1
119	119	2
144	145	1
180	180	1
5	23	1
155	155	2
59	70	1
59	59	4
9	13	3
170	170	2
26	27	4
31	77	1
109	109	5
60	141	2
14	75	3
5	6	3
113	113	2
131	133	3
62	64	2
173	175	3
133	133	6
153	154	2
88	89	2
14	14	3
19	19	1
6	18	1
38	38	4
53	53	2
123	146	5
7	25	2
89	89	2
156	165	2
30	31	2
138	139	2
113	114	6
10	24	3
96	116	1
64	127	3
9	18	2
88	88	2
150	151	3
157	163	2
121	121	4
142	142	4
71	106	1
110	110	8
147	147	1
77	78	2
140	141	2
50	115	3
165	166	1
60	61	2
25	33	1
38	39	3
103	103	2
162	163	1
132	140	2
175	175	1
123	123	3
51	95	3
169	170	3
63	63	1
130	135	3
148	157	1
124	146	1
164	167	1
30	30	6
158	160	1
170	174	2
140	140	3
15	75	3
11	12	1
125	126	2
99	99	1
54	54	1
29	29	1
114	115	1
174	174	1
90	93	2
77	77	2
149	165	3
1	1	4
74	75	2
150	150	3
151	153	2
130	162	2
11	13	2
67	136	3
134	140	1
127	128	1
130	131	1
8	23	2
70	70	1
156	163	4
39	44	2
72	114	1
106	106	2
75	76	1
148	151	2
155	160	1
12	53	1
59	101	1
164	165	3
90	90	1
1	2	2
171	172	1
138	138	3
145	148	1
37	108	1
82	83	2
152	158	2
104	104	1
145	146	4
42	111	1
2	8	1
136	136	1
55	112	1
37	38	3
27	28	1
146	147	1
36	89	1
72	115	1
125	125	1
62	63	1
137	137	1
31	32	1
12	12	1
38	44	1
149	154	1
22	22	1
17	17	1
55	56	2
10	32	1
2	6	1
174	175	1
164	166	1
168	176	1
115	116	1
129	158	1
