7	8	10
4	8	2
20	21	6
61	62	12
29	43	3
56	56	16
45	45	6
58	59	4
65	65	9
62	63	7
29	29	5
55	55	11
13	13	2
49	49	3
0	0	12
33	33	12
60	60	8
20	20	10
69	70	4
64	64	4
12	14	2
76	76	11
28	28	8
19	19	12
3	3	10
24	30	12
63	66	4
32	32	11
46	46	5
38	38	12
39	39	10
54	54	7
4	6	2
77	77	6
35	35	8
36	39	2
58	58	9
36	36	12
8	8	7
3	4	6
35	37	1
75	75	15
40	40	2
69	69	11
51	51	13
75	76	5
39	40	2
59	59	7
62	62	5
40	42	8
28	41	9
60	61	2
6	10	9
25	27	3
24	25	3
63	63	14
30	31	1
7	7	15
52	52	1
70	70	4
22	22	8
76	77	4
24	24	11
50	50	8
41	43	3
27	27	7
0	1	8
27	28	4
71	74	3
7	10	4
41	42	4
67	67	6
66	67	8
28	31	3
26	26	9
32	39	3
57	58	5
68	68	10
25	26	5
51	52	1
44	44	5
30	30	11
23	23	3
12	13	6
31	31	3
43	43	1
47	47	5
33	39	2
1	1	6
66	69	6
42	43	2
11	11	3
59	60	11
9	9	9
4	5	1
72	72	8
53	53	5
36	70	1
66	66	5
21	23	8
32	33	3
35	70	2
72	74	3
2	2	7
61	63	3
72	73	8
34	74	3
50	51	3
62	64	5
35	36	2
37	39	2
71	72	7
20	22	7
36	37	6
12	12	2
40	41	4
34	35	6
61	61	9
48	54	2
19	31	4
21	21	5
5	5	4
42	42	4
22	23	1
2	3	7
73	73	10
65	68	2
57	57	11
74	76	7
37	38	6
38	39	2
12	18	3
67	73	3
5	6	2
66	68	2
41	41	5
49	53	3
24	26	2
25	25	5
70	71	4
63	64	1
46	59	3
6	8	3
68	69	4
74	74	3
34	34	5
6	6	1
48	50	3
33	34	3
47	52	1
67	68	1
64	65	2
49	52	1
70	72	1
19	20	2
8	9	1
74	75	2
10	11	1
43	44	1
0	2	1
34	43	3
52	54	1
66	73	1
13	20	1
55	56	1
57	75	1
4	4	5
26	31	2
58	60	1
52	53	1
37	37	1
2	12	2
31	32	2
49	50	2
10	10	1
71	71	3
34	72	1
35	38	1
42	45	1
22	24	1
43	45	1
6	9	1
4	13	2
23	24	1
14	14	2
28	29	2
36	38	1
23	27	1
48	49	1
69	74	1
53	54	1
48	48	2
37	41	1
