49	50	10
77	79	5
87	88	9
4	36	3
111	112	4
70	70	8
76	76	22
8	8	43
7	7	17
116	116	13
56	56	10
127	127	21
62	62	17
64	64	13
101	102	3
118	118	11
82	82	13
8	27	3
26	63	6
65	65	11
118	119	6
106	106	32
98	98	17
43	43	12
50	50	11
30	30	12
24	24	6
62	110	3
91	91	4
60	116	1
11	38	6
71	71	6
33	34	12
126	134	1
26	26	7
94	94	16
100	119	5
54	55	5
93	93	9
120	120	15
99	99	11
14	14	13
91	92	6
111	111	8
133	134	9
113	113	8
83	85	6
97	97	14
101	119	5
130	131	6
44	44	6
78	78	6
83	84	6
0	0	16
120	121	10
132	134	5
112	131	1
59	59	9
60	64	4
12	13	5
70	71	5
57	57	12
72	74	5
54	54	20
94	95	9
93	124	6
125	125	21
45	45	14
18	18	19
5	35	7
72	72	15
61	61	10
55	55	14
53	53	18
94	96	2
60	62	2
0	3	3
10	10	12
86	87	11
81	81	5
38	38	6
79	80	10
73	91	4
48	59	4
3	3	17
32	33	7
12	12	9
9	11	4
108	111	3
45	116	4
62	64	1
109	109	19
132	132	10
107	107	11
127	129	5
108	109	6
50	115	1
105	106	9
5	12	6
16	16	12
73	73	3
100	100	12
105	105	8
16	59	6
115	115	18
44	45	8
5	5	17
66	68	2
28	28	15
84	84	8
119	120	4
63	63	4
93	125	4
90	90	20
27	28	13
26	62	5
90	91	6
114	114	5
95	96	5
14	117	3
36	37	8
96	96	14
82	83	10
36	36	16
85	85	10
5	7	3
48	60	2
108	108	7
55	56	7
47	51	5
37	38	4
23	61	1
88	88	7
12	133	2
122	123	7
104	112	1
58	58	16
32	32	9
29	30	3
65	111	3
70	82	5
72	73	3
11	52	2
17	17	12
24	113	2
48	48	7
119	119	8
3	4	4
3	37	2
117	118	2
2	2	7
19	19	11
42	42	5
15	15	2
7	28	4
22	22	10
18	19	5
112	113	4
5	6	4
19	121	1
95	97	8
13	14	3
102	102	7
65	66	3
21	22	2
69	69	17
2	3	10
1	3	1
79	79	16
14	15	8
129	130	4
46	46	1
131	131	27
21	21	9
133	135	1
122	124	4
30	32	1
121	123	2
21	106	3
2	4	6
86	86	13
89	109	2
29	29	14
4	5	4
79	82	3
134	134	11
9	9	17
101	101	18
11	11	22
75	80	2
77	81	3
84	85	8
49	115	4
89	90	3
52	58	6
23	23	8
33	33	4
114	115	10
22	23	8
5	11	1
132	133	3
67	68	6
117	117	9
50	60	4
35	35	16
59	115	4
68	69	2
49	49	21
22	112	1
93	94	3
96	97	2
123	124	7
107	108	2
27	27	8
126	127	1
1	2	4
74	76	1
19	20	2
109	110	2
13	13	5
66	108	1
4	38	1
60	63	2
74	74	10
20	20	11
20	21	7
107	111	4
101	118	1
1	43	5
16	54	3
130	130	10
31	31	4
77	83	1
69	83	3
42	45	4
97	98	7
122	122	7
13	117	2
1	1	4
0	1	1
68	110	2
108	110	1
43	45	4
64	67	3
50	52	8
65	109	2
60	65	1
15	57	6
106	107	5
16	55	4
63	131	2
95	95	13
99	126	3
92	94	4
6	7	11
104	104	7
134	135	4
120	123	2
131	134	4
57	58	6
53	116	3
16	56	1
83	83	16
133	133	8
80	80	5
60	111	1
82	84	7
13	15	1
131	132	5
87	87	7
102	103	1
129	129	3
10	11	4
92	92	3
17	115	4
9	10	5
77	78	3
42	46	1
58	116	4
68	68	11
100	101	3
15	117	3
18	22	1
25	25	8
101	114	1
64	65	6
110	111	4
4	6	1
66	87	1
6	6	6
100	124	2
123	123	5
104	105	2
67	67	14
9	26	3
99	100	3
25	60	2
45	51	2
43	44	5
19	54	4
20	56	2
47	47	2
112	112	5
20	107	1
90	131	1
57	116	3
62	63	11
131	133	1
33	35	1
75	75	4
65	69	2
22	113	1
62	65	2
18	54	2
126	126	6
61	110	1
31	32	8
103	103	7
45	46	2
28	29	4
101	126	3
77	77	9
121	121	6
90	116	3
72	93	2
30	31	2
71	74	2
85	86	4
112	128	2
45	117	1
124	124	3
56	57	2
16	17	4
26	108	1
71	90	2
25	26	3
60	61	5
13	45	1
65	110	3
24	114	1
66	66	3
7	8	2
127	128	3
135	135	1
34	35	3
124	125	2
32	35	9
37	37	7
65	67	1
3	42	2
62	113	3
67	109	1
22	106	1
103	104	1
76	77	1
50	53	2
115	116	2
56	116	1
20	61	1
60	60	8
74	75	2
64	109	3
52	52	1
114	128	2
66	67	2
63	64	4
70	88	2
15	58	1
113	115	1
102	121	3
12	114	2
23	24	2
52	53	3
87	105	1
58	59	2
15	55	1
1	44	2
53	60	1
13	44	1
32	36	2
18	105	1
100	122	2
26	27	1
73	75	1
23	113	1
47	49	2
99	125	1
110	110	2
86	89	1
115	128	1
8	10	2
66	84	3
9	25	1
4	4	7
112	114	2
33	99	2
19	56	1
13	118	1
63	110	3
80	81	2
24	131	1
129	132	1
54	56	1
21	23	2
18	23	1
64	111	1
78	79	1
128	129	3
13	47	1
78	83	1
54	60	1
4	43	1
61	107	4
64	108	1
59	116	1
50	131	2
50	130	1
17	114	2
87	89	1
52	60	1
17	21	2
130	133	1
87	107	1
6	10	1
19	21	1
67	69	1
15	59	1
75	76	1
55	58	1
128	128	1
5	33	1
