27	32	8
105	105	9
3	3	8
87	91	2
110	110	10
81	81	4
76	78	4
9	10	6
131	132	4
6	6	13
17	17	15
32	94	2
85	85	8
34	34	17
78	78	8
85	86	3
134	134	9
43	43	5
8	8	8
124	124	12
107	108	10
22	22	6
64	64	9
38	38	4
7	8	4
86	134	5
24	123	2
60	61	3
6	35	2
0	2	8
61	61	13
84	84	13
86	103	2
36	107	3
93	93	20
24	43	3
132	132	8
66	67	1
97	105	1
9	9	27
91	91	17
33	36	1
71	71	10
13	14	9
50	50	6
131	131	5
25	25	10
46	46	6
99	99	3
98	98	5
108	117	2
112	129	2
57	78	1
94	94	4
79	80	3
1	1	5
74	75	11
0	1	3
12	12	11
48	116	1
103	103	8
67	67	15
58	58	3
45	46	3
68	68	15
86	88	4
43	44	2
5	5	7
129	130	7
65	65	8
11	11	4
69	134	1
133	133	13
130	132	4
100	100	5
18	33	3
78	79	6
114	125	5
118	118	11
27	30	6
39	40	4
96	103	1
104	104	8
6	36	5
113	116	4
130	130	9
3	4	4
47	47	18
60	68	4
25	57	2
102	126	3
55	55	6
44	61	2
114	114	13
68	91	3
108	108	5
121	127	1
46	72	2
22	29	2
78	123	1
97	103	3
56	57	5
116	116	18
108	109	15
74	74	9
76	79	3
92	92	8
32	32	25
18	18	8
88	94	2
8	9	7
75	75	11
17	32	3
86	86	14
20	82	2
115	115	3
45	47	3
111	112	2
40	43	3
16	16	5
18	46	5
73	73	9
30	30	6
60	60	7
102	102	2
103	104	7
62	63	4
101	101	5
116	125	7
11	12	4
91	95	5
70	89	3
112	113	8
95	95	16
18	62	6
61	111	3
106	123	1
128	128	14
95	102	2
80	80	11
13	59	3
41	92	4
57	57	6
96	96	6
22	23	3
97	106	4
63	118	3
69	87	1
63	74	1
59	59	9
126	126	13
88	88	3
8	31	2
5	6	2
122	124	3
0	0	6
123	125	1
117	118	3
79	79	6
36	36	12
37	37	8
17	63	2
15	15	13
115	119	5
38	59	2
69	91	4
117	117	7
13	13	13
125	126	12
86	133	7
38	93	1
64	101	3
26	31	3
90	90	3
128	132	6
113	113	13
114	130	5
100	102	3
35	36	4
40	41	3
97	98	10
71	72	2
43	125	1
88	91	1
46	47	6
129	129	6
96	97	5
109	109	6
98	101	2
130	133	3
27	27	9
82	82	17
100	132	6
62	118	4
95	103	1
56	56	2
44	62	1
33	33	14
113	126	1
36	45	4
16	67	1
23	23	3
125	125	24
70	70	5
65	66	4
29	31	2
120	126	2
7	7	14
40	113	2
97	97	7
117	125	1
29	48	2
113	132	2
54	54	3
75	77	1
72	72	18
111	111	12
19	62	2
55	56	3
14	14	3
77	77	6
112	114	3
37	59	5
112	112	12
61	72	2
69	70	1
129	134	3
47	50	3
83	85	1
26	49	5
76	76	7
63	63	10
45	55	1
17	62	6
92	93	2
15	19	1
43	45	5
89	91	4
25	29	3
124	126	4
75	79	2
45	48	7
81	82	2
6	7	1
44	113	3
120	120	5
82	83	2
41	99	6
107	107	10
41	43	1
77	86	2
31	31	8
8	47	1
20	20	2
98	133	2
42	43	1
33	35	2
21	21	4
91	94	2
19	19	10
55	86	3
47	48	11
48	112	1
31	48	3
4	31	3
31	35	7
15	28	5
21	78	1
114	115	2
19	20	1
24	105	2
84	128	2
44	60	3
56	58	2
116	117	1
42	59	1
35	107	1
66	66	11
79	123	1
127	127	6
16	42	4
123	123	14
26	45	4
57	59	3
6	14	1
26	26	5
44	44	5
17	18	4
95	98	3
21	22	1
7	36	3
48	49	2
39	61	4
121	121	5
41	42	5
40	93	5
56	69	1
7	119	3
129	133	2
51	55	4
73	76	2
96	99	7
18	63	1
108	126	5
14	18	2
77	78	3
83	121	2
106	106	4
15	17	2
82	84	5
102	116	3
59	61	2
24	72	1
94	121	2
59	60	2
42	42	4
83	83	9
27	41	2
120	122	3
131	133	3
62	62	5
43	47	5
26	27	1
15	29	1
113	115	3
86	124	5
112	132	2
103	106	2
96	124	1
128	130	1
40	44	2
48	48	4
42	113	1
109	123	1
85	93	1
34	35	2
28	28	3
10	11	5
19	74	3
14	34	3
99	101	2
123	124	1
72	85	4
55	79	2
87	87	10
57	58	1
8	30	2
38	61	2
98	106	2
22	24	3
29	29	5
23	30	4
81	130	2
122	127	1
75	76	3
3	6	3
62	64	4
119	119	2
94	95	2
133	134	1
81	85	2
31	57	1
5	22	3
45	45	4
0	64	1
121	126	2
32	33	4
44	45	5
118	119	3
107	111	1
23	24	6
73	74	1
113	129	4
72	73	1
19	28	1
102	103	2
84	85	4
39	39	1
6	8	1
127	128	6
16	36	1
54	55	2
127	132	2
109	112	1
60	64	1
69	69	1
123	130	1
85	133	3
93	111	3
92	95	3
105	112	1
10	10	5
41	93	2
59	93	4
33	34	1
58	79	3
86	87	1
124	125	1
55	82	1
119	120	3
87	133	2
88	133	2
21	27	1
120	123	1
81	83	2
44	57	1
85	92	2
15	33	2
91	92	2
114	132	1
94	114	1
33	68	1
5	31	2
28	29	1
104	105	2
12	13	1
103	105	2
110	111	1
95	96	3
81	92	1
109	132	1
27	45	2
96	105	2
42	44	1
70	87	2
8	36	1
2	2	2
80	82	1
5	7	1
80	120	1
59	84	1
40	40	3
96	106	1
6	34	1
117	124	1
126	127	1
63	73	2
4	4	1
47	61	1
101	121	1
2	63	2
20	21	1
11	13	1
101	102	2
73	77	1
25	58	1
81	129	2
42	61	1
67	68	1
113	120	1
26	28	1
98	99	2
15	18	1
32	34	1
11	112	1
122	122	1
108	125	1
59	109	1
58	59	1
76	77	1
16	35	1
88	95	1
90	93	1
15	35	1
81	128	1
36	37	1
77	79	1
38	92	1
