23	25	5
117	117	2
118	118	4
30	30	6
15	15	9
107	108	2
86	86	6
12	13	3
31	32	4
106	107	7
3	20	3
122	122	2
124	126	1
20	20	5
91	91	10
73	73	7
103	104	4
26	26	14
131	131	8
119	120	9
35	36	2
17	19	4
37	37	10
88	88	8
6	6	18
87	87	7
98	98	6
90	91	1
21	21	14
140	140	5
95	96	5
97	98	3
31	31	6
32	32	1
10	10	5
135	135	3
92	92	3
104	104	1
106	106	5
8	38	5
25	25	5
112	114	1
128	128	20
96	96	1
89	90	4
22	22	4
116	117	1
114	114	3
79	79	1
109	109	3
123	123	5
129	130	2
27	27	13
94	96	6
110	110	6
5	6	2
84	84	2
75	76	5
2	22	2
26	132	3
97	97	13
72	72	3
119	119	4
136	136	10
89	89	3
130	130	5
4	4	2
78	79	2
9	15	2
103	103	8
14	15	1
127	127	7
19	19	7
121	121	3
31	129	1
35	35	7
78	78	5
108	108	8
34	36	4
83	83	3
12	12	5
128	129	2
24	24	11
36	36	3
18	18	4
8	27	2
1	11	2
113	113	10
13	13	4
72	73	1
109	132	1
0	0	3
115	116	2
93	93	2
8	9	1
22	26	3
94	94	7
27	28	2
123	124	4
126	126	5
22	122	1
103	112	2
87	93	5
129	129	4
85	85	1
3	4	2
78	81	1
102	102	3
7	7	3
80	80	1
17	17	3
73	74	7
9	18	2
102	103	1
71	79	2
33	34	1
76	90	2
81	100	2
87	88	2
43	109	3
28	28	2
3	3	1
77	84	1
76	84	1
9	16	1
2	11	1
76	77	1
99	100	1
23	23	1
21	24	1
9	9	3
14	14	2
115	117	4
107	122	1
81	81	1
101	101	4
23	24	2
17	18	3
86	90	2
1	1	2
5	5	3
7	35	1
120	120	6
99	99	1
111	112	3
77	77	2
134	135	1
26	27	1
9	10	1
10	12	1
90	90	2
134	134	4
118	132	2
34	34	4
115	115	2
32	117	3
76	78	3
105	120	2
137	137	2
32	34	1
75	75	2
33	33	3
119	132	1
109	119	3
21	27	1
29	30	1
93	94	1
117	132	1
86	89	2
130	131	1
113	114	1
86	91	1
110	127	3
37	38	1
82	85	1
18	19	1
81	102	1
27	31	2
124	124	1
21	22	1
116	116	1
36	37	1
135	136	1
71	71	1
81	103	1
