128	128	20
80	80	7
167	168	2
47	48	2
86	87	2
105	105	2
35	35	3
39	47	3
125	126	6
107	107	12
73	74	2
51	51	5
73	75	1
142	142	7
125	125	7
54	54	5
140	140	6
49	51	1
149	149	11
102	102	4
163	163	2
93	94	2
45	45	2
4	4	5
124	125	2
18	18	6
36	36	6
114	116	5
125	152	1
137	138	3
94	95	1
156	156	8
127	130	3
17	17	4
91	92	4
57	57	1
70	71	1
71	167	3
164	167	1
8	8	10
129	130	1
44	44	6
107	156	3
123	123	11
158	158	3
73	73	5
94	94	1
156	157	3
83	83	7
43	43	4
10	41	1
132	132	6
106	106	8
36	43	3
149	150	1
99	100	2
120	148	2
39	39	4
155	155	5
165	166	3
134	135	3
73	76	3
47	47	10
150	150	2
91	91	1
91	94	1
20	20	11
166	166	8
34	35	5
88	88	6
52	52	3
17	19	5
89	90	3
99	99	7
28	28	1
76	76	5
62	62	6
22	22	8
66	66	2
144	144	9
90	90	10
65	66	2
143	143	4
96	98	2
158	167	1
100	102	1
6	44	2
17	25	6
160	160	4
12	12	3
74	74	6
118	118	14
84	84	5
35	36	1
169	170	6
135	135	2
135	170	1
112	112	8
138	138	7
1	2	6
86	88	4
7	8	2
63	63	3
6	11	2
146	148	6
119	147	6
55	55	11
101	102	3
128	129	3
56	166	1
86	86	2
96	154	3
83	84	3
127	127	6
119	121	1
129	129	6
65	65	6
2	3	3
71	166	6
34	34	4
103	106	1
114	114	7
126	126	3
16	16	5
56	56	7
131	131	7
21	23	2
159	159	3
72	72	3
169	169	3
4	5	2
17	18	3
122	122	2
130	130	2
135	168	2
25	34	3
64	64	12
104	104	3
119	150	4
97	97	9
139	139	4
141	141	3
5	11	3
96	97	1
91	95	2
118	119	1
116	151	3
67	67	2
105	106	2
93	93	2
103	103	4
23	23	4
168	168	3
25	25	6
147	147	5
145	145	5
100	107	1
158	159	3
129	133	5
49	49	4
27	27	4
135	169	2
73	77	5
13	14	3
162	162	5
18	25	7
11	12	2
19	19	6
123	124	6
0	1	4
167	167	4
21	26	1
127	128	4
21	21	4
138	139	2
159	162	6
153	153	2
48	48	4
50	51	2
129	131	5
4	41	1
24	24	3
38	38	4
3	3	2
71	71	3
2	2	4
88	91	3
154	154	5
40	40	3
17	24	1
159	160	8
148	148	10
50	50	2
6	41	1
136	136	5
1	1	7
134	134	3
87	87	1
117	154	7
0	4	3
89	89	2
170	170	4
96	112	1
157	157	2
136	137	2
7	7	7
26	26	3
8	47	1
133	133	1
13	13	1
78	79	2
79	80	2
47	49	2
37	37	2
148	149	1
46	46	3
100	101	1
161	163	2
111	111	3
120	120	1
5	5	2
126	135	1
6	6	4
117	117	3
161	161	3
124	124	2
10	11	3
146	146	4
137	137	4
33	34	1
14	16	2
57	62	1
108	108	5
0	2	3
48	49	2
117	118	1
70	70	6
58	63	5
22	23	2
159	163	2
0	41	1
150	151	2
100	100	1
104	105	1
142	143	1
5	41	1
108	109	2
53	53	1
17	26	1
14	40	1
77	77	1
113	113	5
119	119	2
111	112	3
46	47	2
33	33	3
128	130	1
116	153	3
102	103	1
116	116	3
110	110	2
13	58	1
101	101	3
80	83	3
67	70	2
9	9	1
96	96	2
117	153	3
40	48	1
69	69	1
115	153	1
130	131	1
104	160	1
103	104	2
65	67	2
64	66	2
53	64	3
165	165	3
75	75	4
164	164	2
152	158	1
121	122	2
139	140	1
115	115	1
7	13	3
85	86	2
122	137	5
21	22	1
109	109	2
155	157	2
39	40	2
10	10	4
85	85	1
84	85	2
163	164	2
89	99	1
152	152	1
49	50	1
2	4	1
65	131	3
54	56	1
88	89	1
15	35	1
75	106	1
44	45	1
109	110	1
19	24	1
56	58	1
46	62	1
87	88	1
66	67	1
139	141	1
67	69	1
151	151	1
16	52	1
18	20	1
38	67	1
58	58	2
37	43	1
20	25	1
69	168	1
135	149	1
101	107	1
143	144	1
152	155	1
97	98	2
107	108	1
15	52	1
21	25	1
36	38	1
82	82	1
56	105	1
37	38	1
160	162	1
81	86	1
125	135	1
119	153	1
138	144	1
