63	63	8
73	76	3
7	7	12
47	48	16
65	66	3
69	69	5
27	28	11
24	24	9
36	36	23
5	6	3
61	62	5
33	34	9
23	24	11
63	64	4
1	1	4
47	47	15
19	19	21
44	44	7
54	54	11
3	3	8
20	21	13
5	5	16
37	37	14
20	28	2
4	4	9
77	77	13
65	65	7
74	75	1
32	32	6
74	74	17
39	39	13
43	43	16
41	41	5
9	10	7
38	38	19
9	9	20
27	40	3
40	41	8
8	33	5
13	13	18
25	26	2
0	1	2
59	59	11
45	45	7
48	48	20
66	66	7
2	2	5
12	12	14
46	74	9
50	70	6
28	28	10
45	73	2
49	50	4
29	30	4
39	40	8
40	40	14
51	52	8
12	13	3
67	67	13
53	53	14
73	73	8
49	49	13
43	45	3
25	25	28
71	72	2
31	31	11
0	0	11
56	57	8
72	74	9
33	41	1
11	11	9
62	62	11
27	27	7
22	22	4
38	39	3
23	23	6
22	30	1
72	73	2
52	53	7
54	57	2
51	51	7
7	8	1
76	76	11
61	61	11
26	26	5
57	57	2
52	52	4
29	29	15
60	61	6
23	29	3
20	20	2
71	73	1
34	34	8
5	11	4
8	11	6
67	68	2
75	75	5
21	21	14
72	72	4
7	10	3
19	20	3
43	44	2
40	44	2
18	69	3
18	19	8
40	42	5
53	54	6
52	54	7
26	27	5
56	56	18
30	31	2
33	33	13
5	51	4
2	3	1
14	48	2
41	42	1
45	47	3
61	74	4
34	42	3
50	51	2
48	55	3
18	18	1
68	70	1
10	10	4
18	45	2
57	58	1
33	37	2
35	35	9
55	55	6
44	45	3
8	8	1
50	50	3
15	75	1
0	2	2
60	60	9
74	76	8
61	63	5
8	34	4
32	69	3
38	50	1
42	42	7
64	66	2
22	31	1
49	51	6
21	42	3
55	56	7
7	73	2
6	50	1
21	22	1
54	55	1
14	50	2
49	71	2
36	37	3
28	29	3
64	64	3
58	58	5
2	4	2
22	24	1
9	12	1
12	19	1
11	12	2
14	14	1
4	56	1
46	59	1
24	67	2
6	6	5
45	76	2
13	44	1
33	46	1
54	56	2
31	42	1
39	41	2
28	30	3
11	73	1
45	46	1
70	70	3
14	40	3
51	70	1
73	74	6
21	40	1
8	35	2
4	73	1
22	23	1
34	35	1
26	28	4
41	43	2
27	29	2
62	64	3
31	32	1
25	28	2
40	43	1
0	4	1
48	51	1
8	10	2
14	25	2
50	71	1
19	21	1
33	39	1
1	59	2
46	46	3
24	27	2
6	7	1
53	58	1
42	43	3
46	55	1
58	59	2
68	68	1
6	11	2
66	70	1
4	5	1
