102	102	4
69	69	11
57	57	4
10	10	4
145	145	5
145	150	2
134	134	6
137	137	6
151	151	16
42	106	2
34	35	3
79	130	3
84	92	5
119	119	12
111	138	2
112	112	17
0	0	5
16	19	2
4	4	4
112	137	4
20	20	9
121	121	4
12	12	3
38	38	18
103	103	8
149	167	3
7	7	3
1	2	9
99	99	4
158	158	7
165	165	4
161	161	8
74	74	6
132	132	4
82	130	1
132	133	6
43	43	6
82	87	2
106	107	1
109	139	5
140	140	3
88	88	7
14	14	10
138	138	5
129	129	16
83	97	1
86	86	3
103	104	4
52	88	1
138	139	7
66	74	1
159	159	7
11	11	4
83	83	4
2	20	1
160	162	3
72	72	11
89	157	1
115	122	1
101	101	6
135	135	12
42	43	4
124	125	6
40	40	3
163	163	16
85	85	6
106	106	2
16	16	2
22	22	9
157	157	4
80	80	7
35	35	3
42	42	6
164	164	6
38	40	1
131	131	5
118	118	6
128	128	3
7	10	2
74	75	3
22	23	4
28	28	4
56	56	5
85	86	6
129	137	3
109	109	8
124	132	8
75	115	3
87	87	10
38	93	4
39	39	6
21	21	10
18	18	5
162	162	1
38	87	3
46	46	6
124	124	7
78	79	6
63	74	2
103	113	2
41	41	7
56	64	5
108	108	5
41	42	3
53	53	15
65	71	2
144	144	4
37	38	4
165	166	2
119	124	1
153	160	1
143	143	4
21	22	2
78	83	2
37	167	2
100	100	8
9	11	3
82	82	4
152	152	6
78	78	4
110	111	1
90	90	7
54	84	1
77	77	2
24	24	2
154	155	3
91	91	2
5	5	6
44	44	3
89	89	12
127	129	1
114	114	9
66	68	1
146	152	2
115	126	1
75	75	2
78	81	3
105	105	3
2	43	1
97	97	6
92	92	2
35	36	5
126	132	1
6	6	3
136	136	5
105	106	2
25	25	1
146	146	13
135	136	7
67	70	2
112	116	2
155	155	10
65	65	1
50	50	2
168	168	4
150	150	6
49	55	7
8	8	7
93	94	1
71	72	4
52	52	6
148	148	7
89	90	7
64	75	1
73	74	2
161	162	5
1	45	2
106	151	2
6	9	3
79	80	2
26	72	1
133	133	5
130	130	4
3	3	4
141	142	1
81	130	5
73	77	4
169	169	2
139	144	1
39	41	2
12	13	2
17	17	2
56	91	1
155	156	3
114	115	1
71	71	5
36	36	8
47	55	1
112	113	2
80	81	2
70	70	6
68	70	5
79	79	5
170	170	3
156	156	6
89	143	1
35	37	3
104	106	3
63	63	4
114	116	6
104	104	4
166	166	5
0	57	3
76	78	2
25	28	1
110	110	3
153	154	4
107	108	3
50	62	3
123	123	2
79	83	1
137	138	2
126	126	6
49	50	1
154	154	4
115	115	5
37	37	3
162	164	8
15	15	2
127	127	2
91	92	4
75	76	3
63	66	2
81	81	1
76	76	4
27	111	3
117	168	2
154	156	4
34	34	6
77	82	2
125	137	2
84	84	4
116	116	2
81	82	5
50	52	1
11	13	1
2	33	2
125	125	5
45	45	2
161	166	1
133	135	2
153	153	2
155	157	1
33	33	3
143	145	1
142	153	1
107	107	1
55	63	2
147	147	2
45	96	1
75	77	2
126	127	2
150	154	1
48	48	3
149	149	4
0	41	2
47	47	1
86	88	2
62	62	3
36	42	1
84	89	1
53	84	3
1	20	1
43	106	5
151	152	1
111	111	3
80	153	1
128	130	2
26	26	3
72	74	2
120	144	1
20	22	1
55	56	1
24	46	2
67	68	1
160	160	1
169	170	2
46	47	1
13	14	1
129	130	2
99	151	1
69	70	1
34	37	4
121	122	2
142	142	2
38	41	1
83	132	1
13	13	1
19	19	1
2	3	1
94	94	2
76	77	1
63	92	1
121	145	1
96	96	1
1	3	3
140	145	1
144	145	1
117	118	1
51	51	1
62	93	1
123	143	1
44	57	1
7	8	1
82	83	1
99	100	1
40	85	1
93	93	2
3	4	1
68	68	1
63	91	1
12	24	1
119	122	1
23	23	1
145	158	2
39	40	2
161	163	1
117	166	1
88	89	1
23	54	1
117	117	1
125	139	1
52	56	1
1	1	1
27	27	1
71	91	2
95	95	1
89	128	1
55	55	2
69	71	1
