22	27	7
6	11	3
23	23	19
114	115	13
78	78	5
90	90	18
19	19	18
110	111	10
27	27	19
84	86	5
98	98	13
92	92	6
136	136	28
82	82	27
86	94	3
68	71	3
105	105	15
96	96	24
76	76	15
102	107	2
8	35	3
131	131	19
27	29	4
4	4	32
106	106	17
118	118	15
93	93	14
95	95	21
10	10	24
2	116	4
109	109	20
103	121	8
7	8	4
24	24	9
81	81	28
24	26	11
99	99	15
106	107	16
127	128	5
21	21	24
108	108	15
28	28	26
35	35	19
114	114	18
103	103	19
15	16	4
9	32	6
124	124	24
79	99	2
29	29	12
80	80	27
132	132	31
134	134	15
33	35	1
105	106	8
76	118	4
14	14	30
31	32	13
101	102	9
34	34	15
116	116	32
129	129	13
117	117	50
125	125	13
112	112	11
130	131	9
2	2	8
122	122	23
137	137	10
6	6	21
24	31	1
87	87	35
6	31	1
13	14	14
107	110	4
100	100	18
72	72	27
127	127	7
0	12	3
11	19	5
8	8	23
20	20	29
115	115	20
6	7	3
17	18	17
23	24	4
16	139	2
81	83	3
6	27	5
121	123	1
126	126	26
79	79	9
82	83	11
22	23	10
110	110	17
69	69	5
17	17	20
108	111	2
103	119	2
119	120	5
101	101	39
112	113	14
3	4	16
86	86	15
1	1	25
13	13	24
38	38	15
94	94	9
123	123	13
117	120	4
121	121	24
75	75	13
120	120	25
83	122	2
77	77	17
125	127	6
91	91	20
25	25	13
133	134	3
37	37	27
36	36	33
16	16	32
138	138	17
13	15	4
107	112	2
88	88	23
92	94	3
111	123	5
86	122	6
33	33	11
32	32	28
83	83	17
119	119	32
89	90	4
14	15	5
7	7	23
124	126	2
104	105	9
0	0	16
84	84	35
5	6	11
27	28	9
135	135	14
26	26	25
127	129	2
3	3	16
22	24	3
11	11	15
89	89	11
0	1	9
107	107	10
85	90	4
125	126	6
96	133	1
10	21	2
8	9	7
30	30	8
118	121	3
73	73	8
29	30	6
17	20	5
105	121	3
85	86	2
31	31	29
140	140	12
99	102	1
83	84	16
0	3	3
133	137	1
26	27	14
93	94	11
113	113	19
89	91	5
135	136	4
111	112	2
73	74	9
25	26	12
16	18	2
79	80	8
19	21	6
111	111	16
100	116	2
85	85	6
25	35	4
18	36	4
92	100	4
102	102	6
139	139	12
77	78	5
123	124	3
139	140	4
24	25	8
84	122	1
118	119	4
101	116	8
5	5	11
130	130	25
72	74	1
121	122	4
76	79	2
112	115	1
20	21	9
18	18	15
108	112	2
133	133	5
102	119	2
102	114	2
104	104	17
19	44	2
9	9	7
15	15	13
85	91	2
71	72	5
107	113	5
81	82	12
10	23	10
8	34	2
19	20	6
74	74	17
81	106	3
134	137	5
72	124	3
71	71	12
17	19	5
131	132	3
0	8	2
11	12	4
12	12	10
7	9	3
9	11	2
6	32	1
87	88	9
128	128	4
94	95	4
103	118	5
95	97	3
90	91	7
103	115	1
114	121	2
5	26	4
103	104	1
3	33	5
37	38	5
102	116	4
97	97	5
136	137	5
83	121	1
129	130	4
101	117	3
28	29	3
102	103	5
33	36	3
36	37	8
1	2	6
85	120	1
117	118	4
108	109	3
2	100	2
82	118	2
10	11	5
75	77	4
10	22	4
102	115	1
35	36	4
8	38	2
109	115	2
9	20	4
8	10	6
109	110	7
2	3	5
95	96	4
22	22	11
90	126	3
104	115	1
115	116	5
16	17	2
126	128	2
137	138	5
13	17	2
73	77	3
34	36	2
4	5	3
138	139	4
72	73	2
81	120	2
110	112	2
21	22	2
119	122	3
90	92	2
18	20	2
21	32	2
7	27	2
90	124	3
4	14	2
26	28	3
79	81	2
78	79	1
34	35	4
119	123	2
37	39	1
11	22	1
88	89	2
104	106	2
72	101	3
1	118	2
124	125	2
116	118	2
98	100	1
44	44	2
5	25	2
91	93	1
104	107	2
1	77	2
101	103	1
97	98	3
19	38	5
1	116	2
107	108	2
96	97	3
3	5	2
132	133	4
138	140	2
137	139	2
128	129	3
76	77	1
118	120	2
9	10	2
32	37	2
25	36	1
87	90	2
91	97	1
19	23	3
99	100	3
33	34	2
92	93	2
90	93	2
5	11	3
30	31	3
15	20	1
1	78	1
10	12	1
12	14	2
74	75	1
25	27	1
7	37	1
85	89	1
108	110	3
10	20	1
77	102	1
5	18	1
96	98	2
23	26	1
80	81	2
12	13	2
26	30	1
100	103	1
82	84	1
74	100	1
81	84	1
136	138	1
74	77	1
93	97	1
141	141	1
21	66	2
134	135	1
72	82	1
