76	76	7
68	68	10
169	191	1
61	61	12
2	19	2
154	155	3
134	168	5
77	78	6
227	228	4
224	224	4
38	47	5
3	3	4
36	69	2
153	159	3
32	32	11
97	97	5
210	210	9
81	82	5
135	135	4
192	192	5
99	99	11
114	115	6
149	150	10
104	123	1
10	20	2
216	216	7
9	10	7
206	206	1
73	75	3
56	56	1
148	148	7
31	60	2
229	234	4
2	2	5
196	214	2
138	138	8
234	234	11
16	16	16
135	138	2
44	44	3
7	7	11
31	31	8
103	132	2
106	107	3
60	60	12
139	216	5
81	83	2
23	68	5
213	213	8
42	70	1
49	49	12
21	21	1
26	28	5
71	71	9
171	171	16
187	228	2
175	179	5
30	31	4
240	240	7
55	56	2
10	10	4
214	214	9
131	212	4
85	85	14
238	238	11
75	79	5
237	237	6
147	148	2
193	195	2
69	69	5
15	15	8
5	66	3
22	66	2
9	9	12
27	27	18
51	52	3
21	69	1
17	49	2
74	74	10
166	168	3
29	61	3
190	191	3
13	25	5
231	231	10
199	231	3
235	235	2
88	88	11
155	183	3
23	23	8
232	233	6
70	70	6
223	224	2
199	200	11
136	136	6
199	199	7
21	56	1
28	85	1
218	218	10
1	47	4
162	163	5
182	182	9
38	38	10
30	56	2
49	127	3
105	122	5
62	62	5
162	168	1
118	118	8
4	4	5
108	108	4
160	170	1
163	197	1
3	207	5
191	191	8
201	214	3
127	127	11
117	149	4
70	85	1
140	141	2
120	120	3
113	113	2
41	58	4
106	124	3
198	198	6
47	47	5
196	196	12
147	147	5
116	171	2
165	242	2
161	161	9
117	119	2
17	21	6
223	230	2
45	45	8
181	181	8
59	59	5
12	12	22
148	219	6
154	158	3
126	126	3
117	143	1
100	100	11
71	72	6
96	96	3
197	208	3
164	164	6
81	81	12
9	11	3
232	232	16
202	204	1
228	230	4
84	86	3
221	221	11
44	85	1
45	205	4
219	240	2
96	97	3
226	226	12
166	169	3
76	78	3
143	143	12
184	184	11
3	60	1
216	225	6
241	241	10
126	127	4
200	200	7
17	19	2
145	146	4
123	123	2
189	190	4
31	32	3
156	156	9
4	5	3
105	105	10
121	121	13
162	162	8
215	215	7
30	30	7
118	119	4
53	70	1
178	179	4
38	39	6
49	50	4
135	183	4
176	176	1
140	140	2
50	50	4
163	163	16
129	138	1
139	139	8
78	78	12
120	121	2
29	34	2
190	190	1
121	122	1
158	159	2
211	211	3
164	242	4
21	72	3
1	1	7
143	145	2
233	235	2
206	209	3
119	119	12
31	90	4
23	25	2
5	5	5
217	217	8
151	192	4
160	204	3
164	200	1
160	160	9
130	182	3
22	22	9
43	43	4
235	241	1
18	18	3
89	89	3
57	57	3
188	188	2
102	158	2
37	37	4
136	238	5
29	56	1
193	194	1
137	138	3
39	145	2
202	202	7
199	220	5
84	84	5
13	58	1
86	86	5
101	175	5
129	129	2
111	184	3
195	218	3
186	187	8
57	60	1
114	135	1
145	176	1
80	80	5
68	69	3
115	116	2
169	169	5
130	130	4
201	201	4
100	181	1
102	102	3
122	122	3
137	145	2
14	14	3
164	168	3
44	140	2
216	217	4
8	8	8
214	223	2
161	199	6
13	51	1
187	190	2
105	114	1
82	82	2
18	19	2
104	104	15
65	65	5
60	80	1
115	194	3
219	219	8
58	58	12
130	131	1
108	131	5
221	229	6
160	161	2
219	232	2
13	13	2
83	83	5
20	20	5
7	19	5
217	218	5
206	239	2
162	195	1
11	11	7
23	67	3
142	142	5
66	66	5
3	8	1
2	3	2
204	205	2
208	208	4
112	120	1
11	75	6
152	183	2
191	192	5
33	33	10
159	159	2
105	125	1
104	105	2
225	227	3
15	16	1
75	75	2
37	39	3
230	230	4
146	146	3
151	151	4
156	165	3
95	101	2
165	165	5
42	42	14
39	56	6
183	183	8
20	22	3
141	141	3
211	223	1
180	180	1
140	142	6
167	167	2
107	107	4
5	204	2
19	19	8
65	66	1
59	60	8
29	95	2
112	112	5
64	169	4
152	182	2
124	125	3
73	242	2
1	11	1
214	215	1
25	74	2
0	0	5
153	155	2
54	138	3
54	54	11
35	35	7
161	169	3
64	140	3
101	121	1
222	222	14
22	67	1
25	25	8
130	138	4
158	184	5
223	231	1
98	98	4
174	174	5
178	178	7
123	125	2
111	111	5
37	42	2
26	60	3
108	133	8
118	212	5
31	105	5
58	89	2
73	73	3
203	233	2
199	201	2
177	177	9
153	156	3
125	126	2
193	193	7
109	109	9
120	123	3
129	130	2
215	216	3
3	82	1
179	179	5
227	227	4
142	143	2
239	240	4
40	40	2
37	51	3
17	17	6
195	195	4
60	76	1
41	41	2
209	218	1
69	137	3
229	230	2
107	108	2
66	143	5
5	92	1
11	36	3
114	114	7
29	33	2
138	181	2
5	6	3
3	9	2
44	45	4
69	79	1
231	232	2
123	124	2
220	220	6
117	170	2
42	77	2
39	197	5
150	221	2
61	62	2
158	202	3
51	66	2
150	220	3
10	11	2
36	36	2
77	77	8
117	117	2
173	173	4
131	131	1
166	183	1
21	28	1
185	186	1
187	187	2
134	134	3
172	173	2
130	180	1
52	52	4
153	169	2
185	185	2
131	168	1
128	128	7
101	101	3
181	182	2
4	19	2
13	14	1
189	189	6
110	110	3
236	237	4
40	41	2
8	47	1
179	217	1
48	50	4
130	135	1
189	194	2
63	63	2
114	165	1
154	209	2
108	109	1
97	99	2
86	90	1
164	165	2
148	230	4
125	142	1
154	164	2
154	154	5
83	84	4
197	227	2
39	42	1
118	143	2
30	47	2
44	96	1
133	135	1
2	13	1
209	212	1
212	212	3
70	73	1
190	242	1
45	240	1
99	173	1
19	22	2
152	181	2
200	201	1
95	95	4
228	235	2
52	53	3
11	12	3
98	99	1
59	115	3
32	33	1
103	103	3
205	205	4
45	182	1
28	42	2
0	23	3
198	241	1
157	181	3
24	25	4
8	80	1
149	149	2
176	182	5
103	120	1
208	210	5
156	157	4
37	40	3
22	65	1
154	211	1
10	32	2
28	52	2
12	14	1
150	222	3
34	34	3
168	168	2
20	24	1
72	72	4
167	185	1
0	8	1
3	7	1
50	81	5
130	133	2
128	190	3
63	144	5
197	225	2
123	140	2
221	227	1
27	69	1
133	133	5
3	74	1
48	53	2
233	233	3
77	80	2
165	214	3
0	20	2
220	239	2
46	207	1
24	24	5
141	210	2
208	239	2
106	106	1
1	80	2
5	108	6
43	55	3
123	130	1
31	33	2
183	241	1
179	180	1
51	51	3
13	31	1
176	177	5
48	48	4
63	68	1
51	67	1
170	207	2
144	144	4
99	100	2
172	172	1
6	88	2
53	53	2
158	158	3
14	67	2
17	71	1
155	158	2
41	143	1
32	63	1
156	182	3
205	242	1
192	193	1
222	223	2
229	229	3
103	105	1
116	116	3
209	210	1
125	125	5
163	200	1
212	225	1
108	123	1
115	118	1
138	143	1
35	42	1
225	225	1
26	26	3
33	35	6
164	231	3
158	186	2
228	228	1
137	237	1
28	28	2
133	168	1
64	64	2
67	67	4
194	214	1
128	134	4
203	203	1
8	71	1
159	185	1
174	175	2
175	175	1
144	147	1
46	74	1
175	181	1
24	52	1
119	120	3
219	239	1
51	81	1
113	125	1
51	56	1
149	238	2
157	157	2
77	79	1
144	145	1
68	95	2
11	18	1
29	32	1
156	214	2
5	11	1
79	80	1
37	136	2
6	6	2
41	57	1
124	124	3
30	95	2
118	120	2
135	137	1
2	80	1
117	236	1
211	213	1
110	221	1
66	80	2
49	53	1
19	58	1
167	168	1
242	242	1
17	67	1
30	138	1
233	237	1
215	225	1
209	209	2
198	200	2
42	49	1
63	66	1
236	236	1
81	85	1
225	228	2
196	216	1
177	178	1
69	70	1
152	152	2
12	13	1
12	20	2
176	180	1
46	208	2
98	139	1
157	170	1
33	58	1
137	143	2
11	48	1
115	169	2
60	62	1
7	80	1
100	172	1
64	65	1
72	77	1
33	38	1
102	142	1
175	180	2
35	36	1
158	223	1
133	134	1
207	220	1
25	58	1
212	213	1
103	104	1
57	58	1
176	181	1
156	162	1
149	220	1
166	166	1
131	209	1
59	85	1
236	241	1
37	38	1
50	79	1
143	146	1
84	200	1
207	211	1
110	142	1
167	186	1
0	3	1
116	119	1
39	39	1
27	54	1
168	169	1
163	187	1
205	206	1
13	66	1
205	222	1
49	79	1
180	181	2
141	238	1
39	48	1
52	73	1
197	197	1
150	151	1
