7	7	3
11	12	1
126	126	10
46	68	2
50	50	9
55	67	1
31	133	3
109	109	7
92	98	3
95	95	10
39	67	1
48	48	8
117	119	1
51	51	5
12	12	3
118	119	2
121	121	5
47	47	11
97	97	6
85	85	3
14	15	4
99	100	4
128	129	5
76	77	4
75	75	6
41	41	10
26	26	7
128	128	5
113	113	10
112	112	8
52	52	4
103	104	6
58	61	4
47	48	1
119	126	1
52	53	2
2	7	2
18	19	4
26	29	4
3	3	8
39	44	1
42	42	9
93	93	3
4	4	8
103	103	14
100	100	4
115	115	1
68	68	10
23	24	5
60	61	5
125	125	5
10	10	8
45	45	4
9	10	2
5	5	7
82	82	7
99	99	8
73	73	3
61	62	1
13	14	2
90	90	4
58	59	4
127	127	6
86	102	1
66	66	5
110	111	2
9	9	5
119	119	7
121	122	2
20	20	6
11	11	6
87	88	2
54	54	11
2	2	1
104	104	4
53	54	7
96	96	8
79	79	4
8	8	3
93	110	6
2	4	4
51	77	2
6	7	9
86	88	3
112	113	5
39	39	3
71	71	4
107	108	4
87	87	2
1	1	1
88	90	4
25	25	5
58	58	5
6	6	2
38	38	4
57	57	2
69	69	3
76	76	2
48	49	2
2	8	3
63	63	7
1	26	3
56	56	4
78	79	2
108	132	4
86	86	4
75	76	1
55	71	1
118	121	2
108	108	4
55	55	6
114	129	1
51	67	2
116	117	4
58	62	1
119	131	4
38	67	1
14	14	5
60	60	2
89	101	1
87	102	2
83	83	5
12	13	3
40	40	3
27	28	1
1	25	2
53	53	1
62	76	5
61	61	7
96	98	4
28	28	9
80	81	1
64	64	9
21	21	6
45	46	2
104	105	2
107	107	3
73	99	2
132	132	7
118	118	4
27	32	1
65	66	2
6	49	4
90	101	4
85	86	4
97	98	2
88	89	3
46	47	3
67	68	2
5	7	2
92	93	2
65	65	3
78	78	3
63	64	3
91	91	2
85	88	1
58	60	4
92	92	3
46	48	2
83	84	3
23	23	1
22	22	1
131	131	2
109	110	2
72	72	1
32	33	2
13	43	1
111	111	5
126	131	3
116	116	3
43	43	1
30	39	1
122	122	1
73	88	1
11	13	4
25	29	1
101	101	4
32	32	4
30	42	1
117	117	2
17	17	3
30	41	2
39	41	1
33	33	2
73	81	1
2	3	2
51	54	3
120	120	4
16	16	3
67	67	6
38	39	2
70	71	1
44	44	4
24	25	1
49	49	1
82	85	2
89	92	2
110	110	3
73	90	3
114	114	1
15	15	2
96	97	1
106	106	1
55	56	1
73	76	1
90	91	1
123	126	1
29	32	1
2	26	2
10	11	1
46	46	2
129	129	2
22	23	2
44	45	2
0	133	1
43	44	1
0	0	2
72	77	1
29	29	1
87	89	3
91	92	4
77	77	1
54	55	1
111	131	1
107	109	1
23	26	2
81	81	1
13	13	3
25	27	2
119	121	1
130	130	1
65	74	1
52	77	1
95	96	1
113	115	1
106	107	2
123	123	1
38	46	1
73	74	1
124	124	1
90	99	1
3	4	1
109	124	1
104	127	1
30	30	1
68	69	1
72	73	1
117	118	1
