155	155	12
94	115	2
118	120	1
31	31	5
2	30	2
4	13	3
139	140	5
71	124	3
46	46	3
35	106	2
15	15	3
38	39	2
85	93	4
14	36	2
17	17	7
114	115	2
103	103	6
80	80	12
11	11	4
36	37	3
105	105	5
90	91	2
118	118	7
52	52	7
12	12	3
3	4	3
106	130	1
14	14	6
89	90	5
1	1	2
68	68	5
48	49	1
107	107	3
144	144	8
159	159	3
92	92	4
10	16	4
107	123	1
110	110	7
149	153	4
33	33	4
17	19	3
45	45	5
123	123	4
34	36	12
86	87	5
148	148	11
42	43	2
130	130	5
84	84	5
106	132	10
112	112	4
77	77	6
26	26	7
28	28	5
115	115	1
24	57	1
151	151	1
7	13	2
129	130	1
109	109	7
36	36	1
141	141	4
137	141	1
153	153	6
115	137	2
17	22	2
40	42	1
134	144	3
42	42	2
118	148	3
27	27	8
63	71	2
143	143	2
8	8	3
145	154	4
115	130	1
107	133	3
14	37	3
110	114	2
157	158	5
117	117	9
89	89	2
130	141	1
80	130	1
97	97	6
121	136	3
49	101	2
125	125	2
152	153	1
116	116	2
106	139	3
5	5	6
16	22	2
128	128	3
69	81	2
57	57	2
67	67	2
101	101	5
90	90	6
130	152	2
55	55	6
100	100	2
67	70	3
30	44	1
78	104	5
86	86	6
68	94	2
53	61	3
10	10	2
154	156	2
13	55	1
69	87	4
139	139	2
71	93	1
26	27	1
87	87	6
7	7	4
68	70	1
85	116	1
127	132	2
119	120	2
152	152	1
41	41	2
118	136	5
83	83	6
111	111	5
75	75	7
3	3	4
42	55	5
107	138	4
33	35	3
82	83	10
133	134	3
116	133	1
96	96	5
12	13	4
98	98	1
131	152	2
51	86	3
98	127	3
37	37	4
9	129	3
156	158	2
24	41	3
16	16	6
11	140	1
105	122	2
64	87	1
16	38	3
105	107	2
50	84	1
106	138	2
124	132	3
114	133	2
78	94	4
137	137	3
54	55	4
78	79	2
48	48	5
81	109	1
157	157	5
119	149	2
95	95	6
34	54	1
11	129	2
125	133	2
108	126	2
22	22	6
77	137	1
148	150	2
19	19	2
133	133	7
23	42	5
79	79	2
106	106	2
71	71	5
1	2	1
56	66	1
128	129	3
126	126	5
20	20	6
36	55	1
45	50	1
45	71	2
23	24	1
151	158	1
15	16	5
25	26	1
136	136	1
142	142	3
43	48	2
3	34	1
116	117	3
146	146	2
104	126	3
63	66	1
108	137	3
16	21	1
5	6	2
154	154	7
38	51	2
9	10	1
4	4	3
87	88	1
77	102	3
153	154	1
123	124	1
134	134	2
135	135	2
124	124	3
70	71	2
137	139	1
145	145	3
86	108	1
127	127	3
152	154	2
22	42	1
67	85	1
39	39	2
35	39	1
38	38	1
132	143	1
150	150	2
7	15	1
11	27	1
146	154	2
121	124	1
44	45	1
11	12	2
69	69	4
129	129	1
21	22	1
13	45	1
87	93	2
122	122	1
35	52	1
16	45	2
132	133	1
142	154	1
78	78	3
17	45	2
114	117	2
0	4	1
81	91	1
118	119	1
34	34	1
50	51	1
131	131	2
153	155	1
91	92	4
41	104	2
0	2	1
96	97	3
73	73	1
5	7	2
119	132	1
110	113	1
0	0	2
70	85	2
70	93	1
63	63	1
80	81	1
16	19	1
150	156	1
83	84	2
144	145	1
102	102	2
140	140	2
15	44	1
54	62	1
120	120	1
29	42	1
12	35	2
16	55	1
24	24	3
47	48	1
91	91	1
51	78	1
107	108	1
72	72	1
108	109	4
85	86	3
80	83	1
81	81	7
156	156	3
79	92	1
10	45	1
35	129	2
143	144	1
4	45	2
106	131	2
94	94	3
30	30	1
30	128	1
113	115	1
134	135	1
42	53	1
63	64	1
54	54	1
57	58	1
76	76	1
6	15	1
122	123	1
16	28	1
66	67	1
20	45	1
132	132	1
116	125	1
13	13	1
51	52	1
121	122	1
43	52	1
32	33	1
12	77	1
103	132	1
70	70	1
44	44	1
77	90	1
106	124	1
21	21	1
