170	170	8
74	98	2
167	167	14
218	218	6
235	236	5
131	137	1
50	51	3
165	166	5
7	15	2
4	13	1
103	104	8
40	75	3
184	184	12
234	234	8
11	20	2
184	185	6
35	36	5
190	190	4
26	26	13
102	105	2
236	236	4
75	75	4
210	210	4
113	128	3
66	66	18
14	14	7
23	32	1
43	45	2
145	202	2
138	138	12
200	214	1
38	39	1
227	235	2
18	18	6
117	125	6
211	211	8
96	96	1
6	6	13
208	208	6
191	191	11
206	206	10
76	85	5
176	176	3
192	193	5
106	107	4
32	152	2
166	166	8
33	34	5
175	175	9
202	202	9
122	122	11
51	55	2
158	162	6
160	161	2
218	224	2
74	74	11
213	234	1
171	172	6
0	29	3
20	20	11
187	187	2
25	25	9
69	84	4
180	180	11
213	231	2
139	139	3
159	159	2
152	153	4
41	41	10
156	232	2
216	216	3
175	178	3
240	241	2
27	170	1
61	149	1
241	241	7
11	11	10
86	86	7
34	35	10
185	231	1
2	30	3
197	225	1
198	214	1
202	203	5
80	103	2
217	217	7
239	239	10
70	106	3
219	219	1
148	149	1
14	20	4
100	100	7
58	58	6
104	104	11
83	83	1
34	34	5
217	218	6
15	15	9
78	78	1
158	231	2
229	229	4
36	36	11
193	194	1
141	141	7
1	68	4
210	213	3
4	14	3
150	151	3
235	235	6
148	148	6
59	59	7
19	19	17
30	30	8
54	54	8
199	199	4
111	128	3
100	101	1
105	178	2
1	1	12
12	12	11
23	23	6
122	128	3
133	133	5
165	239	4
72	72	5
73	73	5
103	168	3
11	16	1
177	177	5
72	79	2
38	38	9
21	35	3
29	29	3
196	196	7
143	202	1
181	181	4
42	42	4
163	164	1
101	234	2
116	128	3
192	192	5
61	61	5
209	211	1
38	187	2
95	102	2
222	222	7
113	124	2
114	114	8
5	6	2
85	85	5
193	193	3
216	217	3
2	137	9
79	79	5
133	221	2
186	186	9
156	156	14
169	169	4
213	213	3
26	218	2
155	155	4
172	172	12
161	230	1
125	126	5
71	71	2
50	50	7
104	105	1
84	84	5
143	143	11
53	55	3
165	196	1
166	202	2
69	175	5
2	2	10
102	102	2
189	189	3
141	208	3
137	214	6
85	128	1
161	161	3
49	96	2
52	52	5
32	32	8
231	231	10
144	144	4
146	146	3
77	77	5
153	153	1
224	224	13
9	243	4
56	56	6
32	190	4
24	102	1
154	215	2
238	239	3
195	196	4
45	46	2
191	193	1
163	163	7
9	9	7
124	124	5
211	212	3
171	171	13
53	53	5
197	199	2
238	240	4
35	35	7
188	188	5
168	168	13
53	86	1
155	162	2
7	7	9
6	29	1
80	80	6
230	230	8
158	190	2
214	216	6
176	207	4
9	11	2
212	219	1
115	124	5
121	121	6
103	105	4
71	73	2
95	95	2
135	144	1
45	45	11
57	84	4
64	64	2
198	198	3
178	179	1
119	201	3
116	127	1
33	201	1
21	36	1
121	168	1
40	72	2
57	57	4
238	238	5
40	79	2
101	101	4
191	202	3
140	142	3
68	76	2
123	124	7
37	37	5
242	242	7
30	31	2
182	182	2
14	15	2
77	80	4
125	125	3
119	237	1
40	183	2
110	184	2
190	191	3
140	141	2
53	79	5
75	175	2
154	155	2
54	80	1
231	232	3
192	214	3
201	201	14
131	148	2
157	190	2
4	4	5
178	178	1
68	85	2
70	175	1
70	71	1
127	127	1
134	162	1
66	67	3
164	238	3
166	198	2
205	205	2
25	149	4
240	240	10
157	157	3
167	224	4
126	184	2
197	197	4
200	200	12
52	55	5
62	63	3
108	108	6
215	215	2
106	106	3
196	225	1
118	186	2
44	44	3
3	3	5
223	223	1
65	65	15
232	233	1
210	211	8
132	187	3
97	97	1
2	55	1
142	143	2
103	103	6
141	183	2
221	221	4
169	227	1
48	48	4
49	81	5
221	223	2
128	128	4
195	217	1
161	231	6
125	185	2
216	222	1
225	225	4
237	237	4
2	5	1
152	152	4
145	145	5
41	78	4
119	124	2
68	69	2
115	115	3
203	203	7
207	207	3
183	184	1
137	137	3
119	119	1
29	31	2
149	149	1
116	116	4
37	175	2
118	145	1
232	242	3
164	164	8
117	117	7
117	118	2
13	17	3
227	227	1
142	142	8
49	49	4
76	84	2
177	178	3
181	183	1
112	126	3
153	159	1
18	19	8
151	151	6
46	46	2
140	170	3
70	70	4
146	147	2
202	232	1
117	150	6
99	99	8
38	148	3
128	168	2
207	208	3
97	233	1
209	213	3
31	32	1
21	29	5
124	126	2
20	33	2
221	238	2
109	109	1
160	160	3
92	117	2
32	151	1
109	110	3
16	16	4
224	225	1
67	67	2
69	75	4
41	91	1
1	8	2
7	8	7
65	81	4
144	150	4
70	220	1
224	226	3
154	154	4
15	16	2
76	76	7
26	240	1
134	134	6
83	85	3
199	200	3
24	29	3
219	232	1
121	122	6
134	202	2
165	165	6
0	0	5
137	167	3
66	73	1
205	206	3
80	89	1
185	186	2
103	194	2
27	27	3
54	56	3
194	195	3
62	62	2
27	37	1
88	88	2
99	100	1
27	149	3
41	103	3
156	161	1
222	234	3
131	131	5
40	40	3
126	150	2
5	5	2
56	57	3
139	144	1
81	102	3
48	171	2
108	226	2
29	32	1
228	228	7
3	6	1
143	159	4
107	107	3
155	157	1
162	162	2
61	62	8
156	157	4
58	84	2
126	133	2
119	168	1
14	17	1
39	86	1
223	224	1
21	32	1
137	195	1
11	13	2
225	226	2
13	13	1
4	5	1
182	183	4
72	73	1
82	82	1
229	233	1
3	38	4
163	166	1
153	156	2
59	82	2
151	152	1
219	220	2
221	237	6
25	150	1
179	179	1
51	51	1
130	136	2
229	230	4
110	185	2
50	53	2
130	143	3
33	33	4
222	229	3
164	197	1
239	241	1
185	185	3
81	81	2
115	236	1
9	24	3
192	216	2
109	187	2
119	125	1
37	49	1
22	22	2
78	124	1
187	188	1
137	197	1
44	45	2
41	183	1
5	21	2
20	36	2
53	78	1
122	127	1
162	193	1
129	129	3
111	152	2
25	27	2
158	159	6
73	128	1
37	157	1
129	186	1
128	129	1
84	85	2
10	10	4
70	97	1
133	240	2
117	123	1
9	242	1
124	133	1
1	23	1
23	38	3
27	51	1
153	154	1
10	20	3
232	232	2
109	191	1
22	35	1
110	226	5
43	43	4
239	240	1
59	60	3
110	110	1
71	128	3
59	81	2
112	112	1
105	105	3
2	4	1
83	84	1
129	130	2
166	201	1
162	163	1
118	123	5
120	202	1
107	108	1
22	23	1
123	123	2
147	147	4
226	235	1
40	60	1
14	19	1
222	227	1
42	106	1
42	178	2
54	136	1
220	221	1
138	186	1
168	225	2
113	114	2
81	84	1
50	52	1
139	148	1
169	202	1
228	229	3
3	12	5
37	38	2
192	224	1
183	183	1
96	232	1
153	180	3
104	195	1
55	55	1
68	68	4
168	224	1
69	69	2
24	35	2
200	201	2
207	213	2
52	115	1
147	149	1
198	199	2
141	142	1
58	60	3
96	101	1
133	134	1
133	218	1
48	96	1
168	192	1
127	142	2
164	228	1
39	64	1
109	229	1
76	80	1
9	241	2
141	150	1
75	79	1
53	111	1
16	33	1
10	223	1
233	234	2
119	120	3
119	133	3
147	148	1
113	113	1
123	125	1
28	88	1
123	133	1
105	168	2
5	36	1
198	213	1
135	137	1
86	181	1
24	25	1
163	165	2
136	136	2
126	130	1
39	39	1
180	182	1
226	226	2
148	150	2
21	23	1
57	86	1
8	8	2
77	78	2
60	60	1
222	235	1
32	34	1
208	210	2
181	182	2
75	76	1
141	152	1
58	187	1
80	85	1
184	186	1
49	100	1
130	137	1
22	29	1
208	231	1
61	63	1
102	217	1
12	15	1
130	130	1
122	123	1
21	21	1
192	201	1
221	227	1
165	198	1
24	32	2
213	229	1
80	95	3
78	80	1
221	239	1
154	158	1
217	242	1
120	232	1
1	9	1
124	125	2
198	215	1
9	27	1
73	184	1
218	231	1
40	88	1
2	3	1
168	193	1
233	238	2
36	140	1
12	13	1
55	57	2
197	198	1
102	104	1
35	38	1
29	30	1
64	65	1
186	187	1
98	98	1
173	174	1
145	205	1
142	197	1
212	213	2
196	209	1
149	172	1
225	232	1
135	135	1
63	63	1
54	79	1
161	162	1
7	22	1
70	99	1
28	28	1
220	220	1
10	11	1
