16	16	16
90	95	2
85	85	4
138	138	16
9	9	7
108	108	9
52	53	3
8	9	8
110	112	4
144	145	7
107	118	4
17	17	11
86	124	2
10	10	1
134	135	2
109	109	7
92	141	7
38	38	14
7	38	3
34	34	12
68	99	2
11	12	14
138	151	2
90	90	10
117	118	3
56	56	4
133	134	3
39	49	3
16	17	4
116	117	2
38	39	8
78	78	8
2	32	1
64	64	2
29	29	8
117	117	6
36	36	12
69	70	5
148	150	5
56	57	2
18	27	2
110	111	7
23	24	4
131	131	9
126	126	7
13	13	8
110	110	8
108	111	2
7	7	6
101	101	4
88	133	2
132	132	5
40	41	4
143	144	1
86	86	13
1	1	11
75	75	19
44	44	5
69	71	1
24	24	8
53	55	2
30	31	8
25	25	9
106	107	3
129	129	7
4	57	3
158	158	3
29	30	13
76	129	3
13	35	1
18	18	16
150	150	6
39	48	2
154	154	8
23	23	13
70	71	7
7	8	2
97	97	12
132	134	3
99	100	2
154	156	2
65	87	4
70	70	8
113	114	1
30	30	6
102	102	3
112	113	7
51	52	5
40	42	11
22	22	7
4	4	7
77	83	2
121	121	8
138	139	3
104	105	1
107	108	4
106	106	5
28	28	19
73	73	8
39	39	14
127	128	3
153	156	6
82	83	7
97	99	1
124	142	4
9	10	2
128	128	16
88	96	1
126	127	2
127	127	13
48	48	16
28	99	2
17	49	5
15	16	6
96	133	1
140	140	15
45	45	5
84	84	5
133	133	10
99	99	11
82	82	4
146	156	3
88	88	6
69	69	17
136	136	2
80	116	1
116	116	9
6	6	7
129	130	5
11	11	9
31	54	4
5	56	2
52	55	4
20	20	8
31	32	3
30	50	2
153	153	7
32	32	6
105	105	8
130	131	1
96	96	10
31	31	2
50	103	6
48	107	1
28	49	1
119	119	6
67	67	6
72	72	3
157	157	6
142	143	5
95	96	2
100	100	1
102	103	3
39	51	7
107	107	8
24	25	1
111	112	6
0	0	4
33	33	7
4	17	2
68	68	5
111	111	4
125	125	6
119	120	6
71	71	4
17	19	1
0	103	4
139	139	6
118	118	5
27	27	10
80	80	6
18	21	2
90	91	3
114	116	2
87	87	7
156	156	7
144	144	8
146	146	8
12	15	3
79	79	8
27	102	3
112	112	3
11	52	5
44	45	1
94	94	5
5	5	14
16	19	3
89	89	6
14	14	4
26	26	7
130	130	7
46	46	6
17	30	3
152	152	5
121	122	9
91	92	12
98	98	4
114	117	3
3	7	2
124	124	10
83	83	9
77	77	7
81	82	2
30	33	4
28	29	2
104	104	1
52	52	6
42	42	5
26	27	2
11	13	8
119	122	4
43	43	8
123	124	1
88	142	1
97	98	2
80	109	5
81	119	4
47	47	3
79	80	2
138	157	1
68	142	2
68	70	5
108	116	1
48	50	1
98	99	9
8	8	8
51	51	5
115	115	2
140	151	3
92	95	2
149	149	3
136	137	1
81	81	6
4	18	2
145	145	2
30	83	1
157	158	4
57	64	6
79	81	5
34	55	3
47	48	1
100	127	2
113	113	3
6	7	5
3	4	5
143	143	1
72	152	4
145	155	1
135	135	5
61	63	1
27	28	4
8	56	4
12	18	3
37	38	3
155	156	4
85	124	6
96	97	2
103	104	1
120	123	5
141	145	5
147	147	12
148	148	7
75	150	1
92	136	2
65	65	5
155	155	1
93	93	2
18	22	1
118	120	2
109	110	3
5	7	3
95	95	10
103	103	1
119	125	3
86	118	3
27	87	2
141	141	5
14	138	2
134	136	2
41	41	5
54	54	7
5	30	2
120	120	2
92	140	1
134	134	4
34	37	4
21	21	5
125	157	2
80	130	1
0	104	2
48	101	1
73	75	3
52	84	2
20	21	5
108	112	2
7	11	1
63	63	3
122	124	2
138	149	1
48	51	2
39	40	3
13	14	4
15	15	7
0	49	1
32	53	1
93	141	4
38	46	2
32	33	1
19	19	4
36	37	2
137	138	1
121	123	5
117	152	1
68	69	1
47	106	1
114	115	4
151	151	4
73	74	1
12	13	2
135	136	1
118	119	3
108	109	1
37	37	6
3	3	7
57	57	1
17	50	4
123	123	5
77	78	1
41	51	1
8	26	2
2	2	2
132	133	2
79	112	1
1	18	1
104	106	1
92	93	3
125	126	1
107	111	1
88	89	2
12	12	4
149	150	3
2	56	4
68	71	1
15	36	1
66	66	2
49	49	6
142	142	2
85	139	3
112	119	1
83	122	1
41	42	1
66	87	1
2	55	2
114	114	4
124	125	3
95	135	1
85	86	1
128	139	2
1	2	2
105	106	1
24	91	1
0	100	2
151	152	2
15	22	1
98	132	3
117	157	2
139	140	1
122	122	3
139	151	2
152	154	2
148	157	1
8	13	1
83	84	3
142	146	1
51	54	1
50	51	1
56	62	1
129	131	1
128	132	1
24	98	1
3	17	1
80	86	3
66	69	1
6	26	1
19	20	1
55	56	1
43	52	1
7	57	1
85	140	1
78	79	1
25	98	1
67	68	2
108	110	4
5	16	1
134	158	1
0	1	1
138	147	1
105	130	1
16	47	1
96	135	1
91	91	2
8	25	1
35	35	1
67	71	2
109	111	1
22	23	1
63	103	1
16	18	1
116	119	1
92	92	1
7	36	1
12	16	1
11	29	1
86	87	1
88	140	1
