71	71	31
134	137	2
162	163	14
138	138	35
108	109	5
141	174	1
35	36	20
134	134	45
150	150	39
47	47	52
23	23	31
99	99	39
127	127	26
30	31	24
44	45	7
49	49	6
154	155	10
76	77	6
57	57	30
137	137	28
55	60	3
168	176	3
3	3	36
181	181	41
167	167	30
87	121	2
125	125	33
115	116	12
172	173	19
33	33	46
89	89	46
30	38	6
18	18	31
104	105	11
163	163	43
66	66	47
180	180	40
7	7	37
59	60	10
62	62	19
43	43	26
81	81	31
76	76	33
165	165	31
68	112	3
159	159	13
92	150	11
167	168	11
149	149	44
168	168	35
176	177	18
66	68	5
65	66	8
63	63	44
55	55	47
77	77	51
148	148	48
17	55	1
113	114	14
141	142	8
73	73	51
13	13	39
162	162	34
126	126	29
139	139	44
138	177	9
114	160	5
88	88	37
8	8	41
35	35	40
184	184	44
32	32	16
155	156	4
16	17	22
78	78	20
29	29	54
12	23	4
10	21	5
117	117	40
158	159	15
156	156	21
110	111	15
132	133	15
183	183	25
126	144	5
89	109	1
181	182	27
42	46	1
182	183	16
47	85	7
172	172	35
28	28	47
92	92	36
87	87	28
31	34	1
14	46	3
115	115	44
135	135	37
12	21	3
156	157	16
146	146	19
152	153	20
100	101	11
139	163	4
84	84	45
67	67	32
91	91	43
101	101	46
86	94	5
42	53	3
157	158	13
94	99	5
22	43	1
93	95	6
81	82	13
142	143	17
73	74	10
20	20	30
2	7	1
44	44	34
61	148	3
97	97	31
103	179	3
129	138	4
107	164	2
153	153	53
97	98	17
108	186	3
116	167	8
96	97	18
145	161	5
40	40	68
56	92	2
2	6	13
152	152	36
87	99	4
144	146	6
77	78	13
131	132	11
102	102	40
58	58	18
170	170	37
186	186	38
7	38	4
143	143	21
96	96	34
171	172	9
188	188	39
166	167	15
21	21	29
123	124	10
132	135	3
36	85	7
95	99	2
113	185	4
126	127	23
57	58	8
168	170	12
17	17	45
100	100	32
155	155	17
101	102	11
94	95	9
70	70	36
106	106	32
158	185	2
173	174	32
67	68	13
15	15	48
141	141	21
147	163	1
174	174	36
130	177	6
65	65	26
39	39	30
121	121	42
175	176	2
110	110	37
124	125	10
56	56	43
105	105	15
8	9	2
82	82	37
115	118	4
52	52	14
72	72	36
37	78	8
42	42	47
36	36	37
54	54	29
177	177	33
11	11	13
18	19	15
60	61	9
93	145	3
111	167	9
39	40	15
53	102	3
7	24	6
145	146	12
68	68	40
79	80	3
4	4	18
150	151	19
31	31	17
154	154	34
4	8	2
31	32	1
163	188	3
30	30	28
118	160	1
93	103	2
25	25	49
93	111	7
52	53	7
66	67	7
18	22	3
130	130	37
176	190	6
24	24	46
151	152	7
159	177	2
133	133	29
80	80	32
87	88	13
14	24	3
108	110	7
83	84	12
79	79	39
56	57	18
40	41	7
19	19	21
3	6	7
116	176	5
86	86	20
73	75	5
188	190	6
169	170	26
43	85	3
171	171	31
164	164	32
27	27	36
24	25	3
43	87	3
57	123	1
37	38	13
178	178	41
4	5	13
6	6	38
22	23	5
10	45	6
122	122	18
132	134	5
59	147	2
41	47	4
131	131	18
187	187	19
37	37	18
99	146	1
59	59	33
21	22	14
94	94	29
48	86	3
129	175	2
14	14	17
0	0	21
109	185	1
106	133	1
107	135	3
142	142	33
117	165	3
58	59	8
118	118	31
16	16	23
83	83	40
114	159	7
14	16	3
108	108	37
138	139	7
33	34	7
124	162	1
114	115	14
107	108	18
123	126	3
69	69	4
90	90	25
55	77	9
108	129	5
78	79	9
111	111	23
12	13	18
26	26	44
136	136	24
123	125	2
127	144	1
81	85	1
27	36	13
62	63	17
13	129	5
14	15	19
45	47	2
173	173	29
1	39	2
22	22	27
130	178	1
134	138	5
1	2	21
44	46	2
91	92	12
18	23	3
179	179	25
9	9	2
159	190	4
103	103	30
185	185	37
33	38	2
43	44	10
141	146	5
85	85	39
61	62	9
72	73	11
176	176	23
175	175	26
23	24	12
84	85	22
168	169	2
19	21	10
75	76	11
123	123	28
74	74	25
107	107	28
139	180	10
166	166	45
164	165	18
97	138	4
187	189	4
28	29	4
119	119	30
182	182	32
4	63	4
147	147	37
121	146	1
45	70	2
93	93	28
17	18	6
127	129	2
159	160	12
122	123	11
179	180	3
74	75	8
32	37	2
45	45	10
130	189	2
46	46	24
147	148	9
1	1	13
116	116	33
25	41	3
161	163	3
116	148	1
105	187	1
140	140	45
34	35	5
144	145	5
146	151	7
47	48	8
34	34	24
45	46	9
106	107	9
142	171	5
89	122	9
10	10	15
117	119	2
180	181	6
173	176	5
160	161	14
82	89	5
86	87	7
133	136	1
33	37	4
64	66	2
108	116	3
34	36	2
117	143	3
188	189	9
131	134	3
122	127	2
100	137	3
129	130	16
160	160	14
23	37	1
169	169	43
178	180	4
138	174	5
186	188	3
130	138	1
109	109	13
141	149	6
93	94	15
135	137	3
89	90	26
26	27	8
28	31	4
98	98	38
171	173	14
27	42	2
148	149	15
112	112	24
126	128	2
19	20	11
28	42	3
56	58	2
82	83	12
127	128	12
102	144	4
162	166	4
53	54	21
7	8	5
12	12	13
36	37	7
112	128	1
92	93	5
161	162	15
165	167	2
117	118	5
125	128	1
145	145	42
186	187	4
70	71	10
128	128	39
148	151	6
0	21	2
114	114	32
130	131	13
22	53	4
95	95	25
94	150	3
41	41	39
113	166	4
172	188	4
25	85	6
38	117	1
64	65	4
63	65	3
10	11	5
134	135	20
104	104	30
109	182	2
111	112	12
44	73	4
102	136	7
22	24	3
75	75	18
184	185	6
157	159	5
60	60	31
58	60	7
48	48	26
162	177	1
2	2	12
123	127	5
177	178	6
106	181	10
9	13	2
140	151	11
117	150	2
162	189	2
119	120	5
55	56	10
159	161	3
113	113	22
55	57	8
117	149	1
135	136	8
89	102	4
115	163	1
157	157	29
156	170	2
170	171	4
10	12	13
189	189	26
63	64	7
133	134	11
158	158	23
25	39	1
112	113	4
69	78	3
111	185	3
124	124	35
68	133	1
83	85	2
5	22	3
137	139	4
46	47	8
4	22	2
151	151	21
96	138	5
0	1	4
36	76	2
79	81	3
109	110	11
38	39	11
62	64	5
15	48	3
11	45	6
32	38	3
129	129	16
153	154	5
91	103	3
109	178	3
140	141	24
74	154	2
30	32	2
53	53	36
121	122	4
90	91	10
97	100	4
35	37	3
76	94	2
183	184	17
120	125	1
176	180	3
48	99	2
58	63	2
125	126	16
164	187	1
117	127	3
2	3	5
114	118	3
56	75	1
52	79	3
82	87	4
90	94	2
41	151	2
112	157	1
156	174	1
6	7	18
133	138	9
38	88	3
175	182	1
53	110	3
95	96	7
163	190	9
131	133	7
91	111	3
161	161	7
88	89	13
71	72	6
87	94	1
112	182	5
100	102	7
170	174	1
102	104	3
5	11	2
17	24	4
178	182	3
144	144	12
25	26	10
24	34	1
112	114	8
61	61	26
40	108	3
47	69	4
184	186	2
5	6	9
172	175	3
100	140	1
44	47	8
25	83	5
78	82	3
120	120	25
114	117	1
86	89	3
159	164	4
56	142	1
13	24	3
13	126	1
158	160	2
56	121	8
12	29	1
170	172	2
18	24	1
83	88	4
116	166	1
116	117	11
26	42	4
32	33	7
95	104	9
3	5	1
102	103	19
187	188	15
177	181	4
143	144	8
171	174	1
166	168	3
5	10	1
0	5	2
186	190	5
5	5	12
54	55	8
12	14	7
106	129	3
189	190	8
57	117	4
157	169	7
13	15	9
113	187	4
69	93	2
131	176	2
58	61	6
8	37	1
5	9	2
88	140	3
62	149	3
140	171	3
103	104	3
178	179	5
95	100	9
166	171	4
118	119	6
138	173	2
116	175	3
9	46	5
109	119	1
71	92	3
101	103	7
32	34	4
54	137	3
10	22	2
115	128	3
176	179	1
42	43	2
64	64	8
80	102	3
128	129	6
165	186	2
182	184	1
67	156	1
87	89	6
71	74	4
67	155	2
99	100	10
23	53	3
8	77	5
85	86	3
124	186	5
105	162	2
70	72	1
44	91	3
41	90	3
22	44	2
36	38	4
122	160	3
159	162	1
18	20	5
44	99	2
61	138	2
38	38	25
96	148	4
98	99	5
146	147	5
145	150	2
105	188	3
102	137	4
104	189	3
166	185	3
185	186	10
57	140	2
113	115	5
12	20	4
45	98	1
31	36	1
12	15	1
136	137	13
13	14	8
128	185	1
12	63	5
13	21	1
21	42	5
31	37	2
179	188	1
110	119	2
190	190	28
97	103	4
34	41	3
173	175	1
7	16	1
26	29	1
16	25	2
10	28	2
105	106	5
111	178	2
90	146	4
95	151	6
169	175	2
27	28	2
103	144	3
84	87	1
87	91	3
139	140	4
112	183	1
159	188	1
169	173	4
121	166	5
6	71	4
39	89	1
13	162	4
30	85	2
57	74	3
70	73	3
99	131	1
54	114	6
104	135	3
3	184	1
6	25	4
139	174	1
47	66	3
179	187	5
106	190	2
27	30	8
27	31	2
106	108	12
89	125	2
137	177	6
109	139	2
14	90	3
96	99	3
158	183	2
90	92	4
104	127	3
54	57	1
26	30	3
148	150	3
7	73	3
80	81	6
35	91	2
48	139	1
53	55	5
163	164	8
53	117	2
102	126	1
111	113	2
124	128	7
120	159	3
73	97	7
12	37	1
130	133	7
92	148	1
156	169	2
119	139	3
101	136	3
102	138	1
23	79	1
56	170	2
180	182	2
134	164	1
68	123	2
58	62	4
139	181	4
104	134	2
124	126	4
82	106	2
42	91	2
129	181	1
9	22	2
108	176	2
39	88	3
141	148	3
105	136	2
59	61	1
125	169	1
175	189	2
156	185	1
26	83	2
22	42	4
176	178	4
20	23	5
154	157	1
159	186	7
7	12	3
94	98	4
21	24	2
179	181	3
46	81	4
24	52	1
29	30	5
74	91	6
56	91	2
167	172	4
54	60	7
86	88	5
61	65	2
157	189	5
44	67	2
171	176	4
71	95	2
132	132	6
82	85	3
89	91	5
86	98	2
66	156	2
9	21	3
40	151	2
160	180	1
109	123	2
29	41	2
159	182	1
68	71	1
125	127	5
81	128	2
63	151	2
109	112	6
68	69	2
90	167	1
173	188	1
75	81	1
138	141	5
20	22	1
101	127	2
92	99	2
111	130	2
139	141	1
77	99	2
66	134	3
133	154	3
60	75	4
11	13	1
11	12	5
67	70	3
166	170	1
106	135	3
144	151	1
53	56	1
149	150	7
129	134	3
156	159	4
69	70	3
57	122	2
94	148	1
13	17	3
89	167	2
171	179	5
99	102	3
24	37	1
86	91	3
93	110	2
63	71	2
65	150	6
158	189	1
90	122	1
143	150	5
8	76	1
125	132	1
108	163	1
40	114	2
93	105	2
24	48	1
29	33	1
122	162	2
94	105	3
77	170	1
103	164	1
146	159	5
74	81	1
163	167	1
94	96	5
33	115	3
32	35	1
114	168	1
141	143	1
24	83	1
112	129	1
53	122	3
119	184	1
135	178	3
121	164	2
33	36	2
135	177	2
108	180	4
16	42	1
84	99	2
28	82	1
56	74	1
60	148	1
123	169	2
22	70	1
178	181	4
83	89	2
48	76	2
12	78	3
120	166	3
133	177	3
107	128	1
54	123	2
131	177	6
48	84	5
55	122	1
60	73	6
96	129	1
20	21	4
68	124	2
130	132	2
59	68	1
141	151	2
13	16	2
12	19	4
96	104	1
128	187	2
42	90	3
21	53	1
57	144	2
45	99	1
98	104	1
77	92	1
174	190	3
117	164	1
137	138	2
174	175	3
115	164	2
146	149	2
160	190	2
110	127	1
13	19	3
56	147	2
155	157	2
20	147	2
56	117	1
131	139	1
110	115	2
162	187	1
89	119	3
90	169	2
101	139	1
129	187	4
164	166	1
109	111	3
15	16	6
103	109	1
57	154	2
147	160	1
28	32	1
159	189	1
173	190	2
66	72	5
176	189	3
109	122	2
165	173	3
182	189	3
83	91	5
120	121	5
109	157	1
43	74	1
74	155	3
91	95	1
97	104	1
175	178	2
109	121	2
131	138	2
93	146	1
53	123	2
32	36	1
113	158	1
90	95	2
137	179	1
128	130	1
82	86	2
55	143	3
130	188	3
15	18	2
103	162	2
91	93	1
154	169	2
56	123	1
55	170	2
178	183	1
83	86	1
28	43	2
102	178	1
112	169	1
56	146	1
118	147	2
156	184	1
14	129	1
55	113	3
104	145	2
61	63	3
109	130	1
170	186	1
92	95	4
160	162	1
27	29	1
101	144	1
30	131	3
155	176	2
122	167	4
13	18	1
73	87	1
150	152	1
8	12	2
23	33	2
100	136	2
3	39	3
29	31	1
71	151	1
25	42	2
181	183	1
175	177	2
128	143	1
162	178	2
43	91	2
183	186	1
101	128	4
25	44	1
63	66	2
101	145	1
5	71	1
17	27	1
158	165	1
96	106	2
122	124	4
25	84	2
167	173	1
114	170	1
67	160	1
158	177	1
90	147	2
45	48	2
41	42	1
112	130	2
18	118	2
55	171	1
110	185	2
17	22	2
175	180	2
84	91	1
14	48	1
92	94	2
165	166	3
33	35	2
114	158	1
60	63	1
36	48	1
170	187	1
40	42	1
62	71	1
29	130	2
128	186	1
85	142	2
106	128	1
58	71	1
47	81	2
104	106	1
76	81	2
155	167	1
40	77	1
31	33	1
30	36	1
34	43	1
121	165	1
70	101	2
165	183	1
57	63	3
156	158	4
12	28	1
82	178	1
6	72	2
68	73	1
130	182	1
122	146	1
90	103	1
55	142	2
24	45	1
3	4	1
8	39	1
102	146	1
68	72	1
90	110	1
91	99	1
128	189	2
9	23	1
145	151	1
105	108	1
56	77	1
89	95	1
77	90	1
140	149	1
38	76	1
110	120	1
44	98	1
152	154	1
130	175	2
65	68	1
100	187	1
122	141	2
164	186	1
36	53	1
109	148	1
73	88	1
56	148	1
165	187	1
96	103	1
105	107	1
117	128	1
112	184	2
91	139	1
101	129	2
102	133	1
55	140	1
70	84	1
94	149	1
114	169	1
26	39	1
5	63	1
106	125	1
101	104	1
177	179	1
8	22	1
113	120	2
4	40	2
11	14	1
21	23	1
29	74	2
42	87	2
74	77	1
13	131	1
48	138	1
97	137	1
28	83	1
41	48	1
96	98	1
85	92	1
55	99	1
17	48	1
