146	146	2
27	28	3
59	59	3
88	98	2
122	122	1
139	145	3
17	20	3
33	39	2
71	71	2
13	14	5
16	29	1
131	137	1
24	26	2
122	132	1
9	19	4
101	104	3
130	144	1
3	19	2
140	141	1
112	114	3
21	35	1
48	57	2
33	42	2
136	136	2
110	124	1
62	67	2
99	106	5
56	58	4
122	125	2
108	108	2
117	117	2
128	129	3
61	85	1
67	76	9
78	78	4
86	86	2
41	41	3
120	133	1
29	58	3
14	16	1
84	84	5
101	101	3
0	1	2
48	52	7
126	127	3
73	92	1
59	60	4
142	143	1
36	48	3
23	88	3
63	74	1
1	1	2
88	96	1
13	21	2
80	94	1
30	30	4
13	23	4
57	57	8
144	144	2
73	84	2
127	134	1
81	81	3
125	127	1
134	135	2
76	78	1
120	123	1
104	120	1
105	117	1
54	59	2
127	144	1
14	23	3
9	9	3
110	131	1
105	110	1
37	37	3
110	111	3
50	55	2
4	4	8
23	26	1
53	53	4
141	141	2
109	118	5
35	39	4
8	12	2
124	124	2
55	58	1
41	42	2
23	23	2
75	78	5
93	102	3
50	52	1
22	22	3
76	79	4
36	36	7
91	91	3
76	76	1
87	94	2
113	125	1
64	74	1
95	107	1
1	58	6
130	133	1
139	142	2
136	141	3
94	102	2
103	104	2
29	29	1
70	79	1
34	43	2
132	141	1
58	66	1
20	20	3
138	138	2
14	14	3
107	107	2
89	89	5
32	66	1
56	56	1
31	31	2
27	37	2
40	40	2
87	100	1
132	133	2
134	136	4
8	19	1
22	31	2
120	132	1
126	126	2
142	145	3
19	20	1
131	143	2
109	116	3
2	3	2
20	23	1
114	123	1
110	110	1
118	118	3
33	38	2
105	114	2
86	97	1
120	135	1
67	67	1
86	88	1
54	54	1
106	106	1
28	28	2
79	79	5
9	11	2
26	71	3
64	64	2
11	11	1
97	99	3
63	70	1
17	36	3
57	58	2
29	39	2
121	121	2
65	66	1
27	39	1
41	43	2
75	82	2
5	6	2
94	96	3
52	55	1
75	87	3
6	13	1
34	34	1
120	136	1
135	136	1
126	128	1
8	18	2
53	57	1
143	143	1
105	106	2
95	100	1
19	19	1
33	40	1
131	131	1
25	25	1
121	126	1
113	114	1
102	102	1
120	122	1
4	6	1
126	130	1
135	135	1
72	72	1
94	114	1
86	95	1
14	15	1
140	140	1
133	134	1
5	19	2
99	99	1
53	56	1
18	18	1
47	48	1
93	93	1
39	42	1
128	128	1
61	65	1
115	123	1
54	58	1
92	93	2
132	132	2
78	83	1
137	140	1
72	83	1
97	111	1
25	111	2
