26	26	3
12	12	3
43	43	10
34	37	3
49	50	3
79	80	6
84	86	2
7	34	5
22	24	5
94	94	13
25	25	25
0	0	12
88	88	13
83	83	5
57	58	7
134	134	7
94	130	4
60	60	6
86	86	11
32	33	6
110	110	5
76	77	5
32	32	10
73	73	10
111	112	1
19	26	2
78	80	1
9	9	18
71	72	10
113	113	8
91	94	6
104	105	3
116	117	1
85	85	18
119	119	6
5	5	5
7	7	16
36	47	6
15	15	14
104	104	12
98	99	7
101	101	6
123	126	2
37	38	3
57	57	10
34	34	14
118	118	14
108	109	3
63	65	1
10	12	7
120	125	5
25	26	5
11	13	4
4	4	2
45	49	1
78	79	7
102	103	18
58	58	15
80	80	11
121	121	9
81	83	5
93	94	6
1	2	3
3	4	5
62	62	2
44	55	2
74	76	7
65	65	11
55	55	5
8	12	10
58	63	2
133	133	17
94	99	2
123	124	2
131	131	8
64	64	4
124	128	4
108	110	8
70	70	9
110	111	4
132	133	11
24	24	15
114	115	2
90	91	3
8	9	11
100	100	6
57	62	4
3	5	4
36	36	13
35	35	14
119	123	1
68	68	4
130	130	13
94	115	4
13	14	5
129	129	14
105	105	13
115	117	1
107	108	16
129	132	1
24	25	5
98	98	18
93	100	3
1	73	3
60	61	1
11	12	4
91	135	5
90	90	7
109	109	5
120	124	6
116	118	4
30	31	12
12	13	4
95	95	7
99	100	3
19	19	15
108	108	7
69	72	2
91	91	5
29	29	12
115	115	12
27	27	3
52	52	14
24	26	5
106	107	9
74	74	17
20	20	9
131	132	7
59	59	12
123	123	9
78	78	8
108	111	2
45	48	1
69	69	5
29	31	8
11	15	1
23	24	3
44	51	1
127	127	5
82	82	7
55	58	3
61	61	15
106	106	28
85	86	2
120	121	3
16	16	6
2	2	25
96	97	12
21	24	8
87	87	7
28	28	6
76	76	11
29	30	6
4	7	2
79	79	15
81	82	2
80	100	4
35	36	8
50	55	2
0	3	3
2	9	4
84	88	1
22	22	5
70	71	10
113	120	2
45	45	9
49	49	3
134	135	3
7	8	6
67	67	10
59	60	7
68	70	2
117	117	5
109	111	5
22	26	3
119	121	4
7	9	7
125	125	5
81	81	2
86	131	2
131	133	2
47	47	3
106	108	8
109	112	3
127	129	5
82	83	9
60	62	1
122	124	2
68	131	5
131	134	4
10	13	4
6	32	3
29	32	3
27	31	2
72	73	2
43	47	3
56	56	15
26	28	3
33	34	3
4	32	4
58	59	2
95	96	6
92	95	4
112	118	7
84	85	5
88	89	6
112	117	3
88	90	1
14	14	8
122	130	2
31	32	1
96	96	9
52	53	5
66	66	8
112	112	10
31	31	5
28	33	2
11	14	6
53	56	3
132	132	9
0	23	3
75	75	15
13	16	2
67	68	2
126	128	3
3	3	12
68	69	9
103	103	12
99	112	1
97	98	3
54	55	4
20	26	2
97	100	5
23	23	4
98	112	3
117	125	3
54	54	3
21	22	5
107	107	16
7	12	2
1	5	3
114	119	2
6	7	3
127	128	2
52	54	4
126	126	1
62	87	3
92	94	4
92	93	5
6	14	1
77	77	4
10	10	1
53	53	5
115	116	7
65	67	3
86	88	2
86	127	4
122	122	8
112	119	1
2	4	7
114	114	7
53	57	9
28	32	1
82	85	2
93	93	9
97	97	5
111	111	12
84	91	5
37	37	11
103	109	5
47	56	5
0	27	1
130	133	2
29	33	2
0	49	1
15	18	1
61	62	4
106	109	3
62	63	4
117	118	8
8	8	1
15	17	4
78	81	3
18	18	9
1	1	7
124	124	6
99	99	7
77	78	2
83	84	1
16	18	2
19	23	4
118	120	1
102	102	2
84	84	1
57	60	1
121	122	2
85	87	4
80	101	1
55	56	2
16	26	2
83	85	2
92	92	3
4	33	2
94	95	2
13	13	8
80	81	1
8	10	4
44	44	5
89	90	5
30	30	5
0	33	2
5	8	1
1	33	2
89	89	3
72	72	3
114	116	6
115	120	1
122	123	4
17	17	2
73	75	1
45	50	1
12	16	2
126	127	6
119	126	3
71	71	5
48	48	3
50	50	7
62	65	2
33	33	7
84	87	4
5	7	4
34	35	2
35	37	2
57	59	1
10	11	4
96	98	2
9	10	2
21	21	2
128	129	2
58	62	3
44	45	5
105	106	1
124	125	2
113	114	2
52	55	2
54	56	1
82	84	2
54	57	4
103	123	1
15	16	1
107	110	2
6	33	2
26	29	1
65	66	2
16	17	4
38	38	1
6	6	4
128	130	2
44	56	2
26	30	2
123	125	2
61	64	2
129	130	1
71	73	1
2	7	1
17	21	1
46	48	3
53	55	1
46	46	2
63	64	5
18	26	2
56	57	1
2	3	1
126	130	2
43	53	1
99	102	2
25	28	1
25	27	1
19	20	1
116	116	3
86	119	4
64	65	4
77	79	1
21	25	3
135	135	1
101	121	1
105	111	1
77	81	1
53	54	2
100	101	1
112	113	5
86	87	4
60	63	1
123	127	1
34	49	2
63	63	4
108	112	1
0	20	1
89	93	1
87	89	1
0	50	1
4	5	1
125	127	2
68	125	1
64	68	1
76	82	2
5	6	1
22	23	1
86	135	1
75	76	1
14	15	1
70	72	1
59	66	1
6	8	1
16	23	1
5	9	2
56	58	1
68	86	1
3	7	1
