78	78	2
121	121	1
120	120	4
107	108	4
134	135	5
69	71	1
132	132	5
36	36	6
74	76	4
74	74	5
34	34	7
100	101	6
85	85	7
18	20	2
130	131	9
17	17	7
59	101	2
104	104	3
57	57	2
90	90	3
95	95	4
24	25	3
9	9	6
13	15	2
35	36	2
129	131	3
89	90	2
24	24	12
23	23	2
89	89	7
104	106	4
39	40	6
56	146	5
0	0	2
18	21	1
4	5	4
76	77	2
82	82	4
94	94	2
134	134	4
7	39	1
59	61	3
110	111	2
136	136	5
119	119	4
15	15	4
31	39	1
37	38	3
105	106	1
10	10	4
11	59	4
21	21	8
76	76	2
87	87	2
109	109	6
103	103	2
104	105	1
111	111	1
16	16	10
136	137	3
77	78	1
39	39	8
12	12	3
124	125	3
37	37	4
35	35	11
52	52	4
135	136	2
108	108	1
48	50	1
0	2	4
86	87	3
30	30	2
18	18	3
56	56	8
138	138	2
65	66	4
22	22	3
102	103	3
58	59	2
2	3	4
117	128	3
80	87	1
125	131	1
109	110	2
56	59	4
88	89	2
125	125	5
142	143	1
49	49	5
99	99	5
131	132	3
145	145	3
73	73	6
118	118	6
143	144	2
138	145	2
68	69	2
55	55	2
80	80	1
50	50	1
130	130	3
31	31	4
48	52	1
77	77	3
87	91	3
96	99	1
80	81	1
102	102	6
59	59	3
126	129	1
96	97	1
135	135	6
112	116	1
19	19	2
15	37	1
32	32	4
60	62	2
114	114	1
118	119	3
89	92	1
29	29	7
127	128	3
110	110	2
116	116	2
144	144	3
86	86	2
114	116	2
13	13	2
74	75	1
40	43	4
82	83	3
33	33	2
61	85	1
3	27	7
140	140	3
93	93	1
91	91	5
137	137	2
126	126	1
101	102	1
40	40	6
124	124	1
26	26	7
98	99	2
8	9	2
64	65	2
83	84	2
75	76	5
4	4	1
131	131	1
98	98	1
139	139	1
23	24	2
67	67	2
66	66	4
107	120	3
67	71	1
38	38	3
123	132	1
123	124	3
134	139	1
41	41	1
4	40	1
19	22	3
60	61	1
107	123	2
113	113	1
93	97	1
59	60	1
28	29	1
130	132	1
75	75	2
133	133	1
11	11	1
122	122	2
126	133	1
127	130	1
111	112	1
137	144	1
107	130	2
134	136	1
138	142	1
142	144	1
96	96	1
9	10	1
25	34	1
27	27	4
34	36	1
36	37	1
63	63	1
133	134	1
81	82	1
54	54	1
143	143	1
117	117	1
65	65	1
31	32	1
2	32	2
138	146	1
22	23	1
20	23	1
