100	101	7
35	35	17
109	110	6
153	153	21
105	105	9
21	21	9
100	102	8
66	66	9
144	145	4
33	42	2
122	124	1
15	16	5
64	64	10
44	44	12
130	131	6
56	56	8
108	108	17
32	32	10
67	143	2
80	81	10
114	114	30
150	150	33
120	120	5
53	53	7
94	95	11
126	127	9
57	57	17
84	84	22
38	38	20
123	123	22
67	135	6
26	27	10
129	130	8
73	73	23
40	40	15
128	129	3
67	67	10
142	143	7
127	127	24
36	36	17
147	147	8
62	148	2
34	51	3
145	145	23
39	39	7
4	4	22
151	151	16
146	146	31
37	37	6
14	25	5
7	7	7
77	78	7
105	106	8
85	86	7
20	20	19
62	67	2
80	80	15
82	82	15
25	26	11
118	129	1
97	97	10
58	58	8
94	94	17
8	8	9
152	152	10
101	103	3
72	72	16
41	41	8
122	122	17
113	148	2
3	18	1
133	133	19
35	149	5
102	102	14
81	81	17
131	133	6
21	22	1
142	142	5
38	39	4
68	68	8
83	83	17
6	6	24
102	138	2
7	128	3
69	70	4
154	154	20
140	140	16
141	141	11
87	87	11
74	74	11
31	31	7
118	118	12
109	109	22
25	25	11
19	20	4
13	18	2
134	134	8
131	131	13
139	154	5
149	149	26
69	69	19
124	124	18
111	111	13
50	50	19
71	72	2
15	15	8
35	36	13
92	93	7
120	121	5
107	108	8
12	12	15
44	45	6
104	104	10
36	37	2
45	45	6
132	132	23
101	101	2
129	129	29
115	117	3
24	25	16
107	107	12
49	49	3
75	77	6
34	34	6
148	148	14
135	135	18
138	138	11
29	29	11
63	133	1
9	9	7
64	65	2
55	56	11
62	62	4
150	154	3
128	128	4
124	128	4
16	16	4
75	75	12
139	141	3
17	23	2
7	8	3
106	106	15
77	84	11
105	139	2
148	153	4
101	102	1
136	137	8
47	49	2
63	135	2
84	86	1
143	143	7
76	77	8
30	31	9
79	79	11
132	134	6
43	43	2
107	109	3
145	146	10
114	115	5
62	63	4
110	110	16
64	66	7
53	54	4
73	74	5
27	28	7
78	78	19
97	98	13
46	153	1
99	99	9
119	122	2
14	14	20
18	18	22
123	128	4
17	17	12
3	3	6
125	125	9
103	103	9
116	116	16
83	120	2
4	5	6
82	124	5
98	99	10
127	128	6
42	42	12
6	8	3
113	150	3
17	18	13
72	73	9
150	151	3
65	65	16
22	25	4
10	11	9
70	70	10
77	77	3
86	86	10
137	138	1
112	112	10
48	48	9
33	33	7
39	40	5
63	63	5
88	88	8
24	24	5
121	123	5
84	85	8
61	62	5
76	76	9
68	69	14
110	135	2
20	21	9
38	40	3
38	42	2
113	113	13
115	115	11
52	56	2
110	111	8
149	150	10
125	127	2
13	13	9
120	123	2
107	135	4
119	119	15
85	119	3
47	47	5
8	81	4
92	96	5
121	122	1
138	141	6
22	22	13
55	55	10
9	21	3
76	78	1
6	7	5
98	103	3
7	9	4
42	149	3
151	152	1
120	122	5
144	144	4
51	52	5
25	27	2
26	26	11
29	30	4
99	104	2
80	83	2
5	7	3
98	98	19
134	135	4
19	23	4
10	13	4
28	28	6
121	121	9
11	13	1
76	79	1
144	147	3
104	139	1
92	92	10
48	49	6
118	134	10
62	68	3
70	87	1
41	42	3
113	114	5
54	55	4
71	86	3
110	141	1
33	149	4
30	30	5
71	71	11
46	46	12
8	9	7
56	57	7
31	32	2
65	66	3
125	128	2
123	125	4
54	54	13
102	104	3
11	12	13
12	13	3
111	136	4
117	117	8
22	23	2
99	100	3
46	51	4
108	109	2
49	51	1
10	10	11
104	105	1
139	139	7
5	5	10
117	118	5
122	128	5
70	88	1
91	92	2
51	51	8
100	100	14
103	104	3
50	53	2
112	147	2
61	112	1
57	58	2
96	96	6
126	126	12
85	85	11
46	151	4
136	136	8
77	79	4
48	53	7
34	35	4
95	95	6
56	58	2
10	54	2
70	71	6
89	90	3
9	20	4
47	50	2
42	43	8
148	149	1
27	27	4
24	27	5
106	107	6
63	64	6
69	143	2
111	112	1
52	55	1
20	23	3
136	144	3
8	126	4
79	80	8
96	97	2
90	90	3
51	53	4
135	141	4
75	76	2
143	144	3
135	143	7
52	52	3
37	38	4
23	30	3
10	14	3
82	83	5
124	129	1
9	10	4
13	14	2
151	154	3
110	112	7
137	137	16
3	6	5
51	56	2
12	15	2
48	51	1
79	81	1
132	133	6
48	148	1
114	154	1
11	11	7
5	6	3
45	51	3
75	79	4
81	82	3
11	126	1
102	103	6
82	126	3
130	130	4
118	130	1
135	136	1
14	15	2
54	56	3
64	67	1
107	141	2
108	114	3
119	121	1
28	29	2
120	125	1
63	144	2
16	17	4
93	98	3
93	93	4
14	21	1
129	131	1
10	126	1
22	26	2
105	107	1
100	103	2
8	14	1
32	33	1
82	123	1
32	148	3
112	135	1
133	134	3
61	66	2
4	20	1
86	87	2
97	99	1
65	121	2
117	134	2
32	42	1
50	51	4
40	41	2
66	120	2
14	22	7
115	133	6
111	135	3
6	133	1
37	40	4
65	144	2
33	34	1
74	77	1
37	42	3
66	143	2
23	25	5
68	86	2
69	86	1
70	94	1
33	45	1
98	102	2
66	67	4
20	22	2
94	96	2
19	19	4
7	80	2
83	84	1
68	108	1
115	116	1
21	126	1
46	47	3
120	124	1
41	43	2
57	146	2
63	67	1
93	94	1
100	104	2
46	152	1
8	20	1
45	46	1
42	44	3
99	106	1
116	134	2
28	30	2
129	133	1
109	135	3
71	88	1
139	142	2
22	24	1
75	87	1
62	64	1
82	120	1
114	150	1
114	116	1
63	108	1
19	21	1
75	78	1
50	52	1
82	128	1
33	50	1
77	87	1
152	153	1
95	106	1
68	135	2
33	46	1
121	124	1
142	145	1
53	55	1
14	53	1
123	124	2
114	151	1
16	23	1
3	4	1
23	24	1
61	67	1
9	81	1
69	108	1
23	23	1
74	75	1
146	147	1
131	132	1
17	19	1
20	80	1
111	144	1
