29	29	13
47	47	26
42	42	21
52	57	3
6	6	18
30	41	2
50	50	35
10	10	18
33	33	27
19	19	27
41	41	29
38	39	11
35	35	22
15	15	23
32	32	22
46	46	12
11	38	3
53	53	24
17	17	21
40	40	23
13	14	11
12	12	14
56	56	21
9	56	1
7	7	13
3	3	32
40	42	1
18	19	3
49	49	41
58	58	30
35	38	2
37	37	16
20	21	4
52	53	9
18	18	28
36	54	4
19	37	3
12	13	4
32	33	3
31	31	13
9	9	29
17	42	5
0	0	5
30	32	6
1	1	35
15	16	5
34	44	3
5	5	28
1	2	8
34	34	41
45	46	6
35	44	4
40	51	1
51	51	17
13	13	23
14	15	4
59	59	3
48	48	22
54	54	41
56	57	7
40	41	8
7	11	2
35	36	6
16	16	38
35	50	4
21	22	2
2	2	13
40	45	1
39	39	24
50	51	4
44	44	13
4	4	31
35	41	3
36	36	16
33	34	10
40	48	4
38	38	9
43	44	8
44	45	12
36	59	2
56	58	3
35	42	3
14	14	22
57	57	29
45	50	3
21	21	1
45	45	38
3	5	2
37	42	2
54	55	6
11	11	28
17	39	5
7	37	1
5	6	5
29	31	5
37	57	3
9	28	2
45	58	7
43	43	10
18	33	2
4	6	2
30	30	16
47	49	3
22	22	9
45	49	2
31	32	8
37	58	1
11	12	5
52	52	17
55	55	22
8	8	17
24	29	3
17	18	11
31	35	1
8	21	4
10	11	8
49	50	3
46	47	11
53	56	2
2	3	7
42	44	7
9	10	10
11	13	1
34	39	1
28	30	4
35	37	5
30	31	8
10	37	1
2	16	6
9	31	3
45	54	1
34	35	3
46	49	3
22	23	3
9	19	4
23	23	7
17	53	4
37	56	3
16	39	2
41	56	1
28	29	4
52	56	2
20	20	6
58	59	3
11	19	3
37	38	3
40	44	1
10	12	2
9	55	2
38	58	1
41	43	1
52	54	1
34	36	2
8	56	4
36	57	4
19	36	4
51	54	1
4	5	4
57	58	6
43	45	1
28	53	3
55	56	9
47	48	3
0	2	3
33	39	3
7	41	1
30	38	1
11	14	2
54	58	1
29	30	2
18	45	1
51	52	1
53	54	3
24	24	3
8	38	2
34	42	1
30	35	1
15	34	2
20	22	1
48	49	3
36	38	2
36	58	3
0	1	2
40	47	1
36	50	1
1	4	3
21	23	1
41	47	1
42	43	2
36	37	1
54	57	1
38	42	3
16	17	3
10	58	1
36	46	2
13	15	3
27	53	2
8	41	1
17	43	1
6	7	2
5	14	2
29	32	1
7	12	1
15	38	1
0	5	2
9	21	1
44	58	1
3	14	1
39	46	1
9	22	1
10	56	2
40	46	1
49	51	1
48	50	1
49	58	1
33	54	1
18	55	1
