71	71	4
88	117	3
82	82	9
98	99	3
95	95	2
67	68	3
112	112	2
124	124	3
96	96	14
142	143	2
63	63	5
120	140	6
55	55	7
87	87	5
134	137	1
53	53	10
97	97	1
38	53	1
64	64	5
49	59	3
41	98	1
75	113	1
132	132	4
124	141	2
33	37	5
109	109	8
61	71	4
88	88	4
126	126	3
33	33	1
123	133	2
25	25	8
132	138	1
135	137	2
98	98	3
99	99	14
114	114	6
86	87	3
39	40	1
2	34	5
121	121	1
13	14	4
62	65	2
144	145	1
67	95	3
21	21	6
49	57	3
137	137	5
51	51	9
72	73	4
87	88	2
56	56	6
101	102	4
36	36	4
70	70	2
133	136	2
29	29	3
14	15	2
79	79	2
77	77	5
38	38	5
144	144	7
66	66	8
29	56	1
27	27	4
39	108	1
33	34	2
107	107	8
4	4	5
119	119	2
11	11	3
123	123	6
96	97	3
111	111	7
57	58	4
142	142	6
13	13	6
98	132	1
113	113	3
80	135	4
49	49	5
16	16	3
127	127	7
95	141	1
13	15	2
103	103	7
37	49	3
133	135	1
31	32	3
77	88	3
83	83	8
36	37	2
30	30	5
50	50	3
139	139	5
52	96	1
3	3	13
105	117	4
22	22	6
106	106	4
47	47	2
55	58	2
118	119	3
100	100	3
105	116	2
133	133	1
28	28	6
10	56	1
88	90	2
6	6	7
57	72	2
116	118	2
138	138	6
43	47	3
96	140	4
141	141	2
79	80	2
120	120	3
75	75	4
84	84	6
110	111	5
48	48	7
13	84	5
8	8	2
131	131	6
135	135	1
8	10	1
52	53	2
145	145	4
94	94	2
73	73	3
19	19	8
117	120	1
55	56	5
109	111	1
128	128	2
104	105	2
116	116	2
15	15	1
12	13	3
97	102	3
130	131	6
126	131	1
107	109	2
129	129	4
114	115	5
37	37	6
121	124	3
1	1	5
128	129	4
113	125	5
130	130	6
67	116	2
17	17	4
77	78	1
108	108	4
32	32	2
54	54	2
125	125	3
76	76	2
74	74	3
51	52	2
108	127	1
41	41	2
143	143	2
117	118	1
101	101	1
16	36	2
134	135	1
24	24	2
106	109	3
48	67	3
67	67	2
3	53	2
94	98	2
42	42	5
39	42	2
86	86	2
102	102	3
58	58	2
21	22	3
113	129	1
78	78	3
52	52	1
126	128	2
118	118	3
6	62	1
3	6	1
4	85	1
32	38	1
109	123	3
76	82	1
18	50	2
0	83	1
40	40	3
0	0	1
62	62	4
120	121	2
134	134	6
93	93	3
105	105	1
55	57	2
96	128	1
124	125	1
5	35	2
72	72	1
108	109	1
37	38	1
23	23	3
11	26	1
105	109	1
81	81	2
31	53	1
110	110	2
113	114	1
34	34	1
103	124	2
116	140	2
61	61	3
76	80	2
5	40	2
86	90	1
5	54	1
8	61	1
41	96	2
132	140	2
115	115	2
27	29	2
136	137	1
0	1	2
12	17	2
95	97	1
102	103	1
68	91	1
97	133	1
117	119	1
18	18	1
3	5	1
29	30	1
93	94	1
88	89	1
60	71	1
141	142	1
73	75	1
94	124	1
138	139	2
126	127	1
61	66	1
0	21	1
10	11	1
57	57	1
