238	239	1
95	96	2
62	62	29
136	136	7
133	133	7
166	167	7
147	148	6
172	175	2
223	223	22
122	122	27
113	115	3
235	235	15
44	45	11
28	28	10
205	205	5
210	210	11
119	120	1
115	115	16
192	197	6
148	225	3
61	61	34
113	114	2
212	213	2
3	3	8
41	42	1
68	69	7
47	176	3
170	170	11
174	174	13
82	90	3
85	86	12
139	140	11
183	183	13
177	177	13
150	151	14
124	124	11
184	185	4
42	45	8
3	7	1
120	208	4
67	67	6
48	164	5
97	97	14
195	195	6
38	38	13
183	187	3
73	73	9
10	26	4
56	56	6
160	160	23
101	109	3
53	57	1
31	31	10
140	140	32
78	78	7
70	70	13
102	102	18
206	206	4
197	197	12
59	60	12
83	83	8
134	190	3
175	175	18
192	192	15
180	182	5
36	40	1
161	161	15
55	55	17
168	168	26
49	50	9
226	230	5
76	76	8
228	228	24
198	198	30
166	166	11
7	7	7
69	69	18
68	68	9
114	114	8
12	15	1
214	215	3
79	80	4
26	26	19
171	171	14
42	43	1
99	99	12
222	222	15
144	144	12
32	33	4
130	133	3
160	224	4
209	213	6
4	4	4
220	234	1
30	33	5
15	15	30
20	26	8
217	220	6
218	225	3
65	65	12
5	8	3
231	239	5
8	8	16
36	36	14
208	208	5
85	85	17
138	138	7
240	241	6
26	28	1
30	30	11
29	29	13
193	200	1
131	131	6
128	128	27
180	180	5
148	148	18
154	154	8
1	3	1
143	143	9
149	149	10
182	182	13
81	81	7
103	108	2
218	218	25
221	222	2
95	95	7
195	203	2
39	39	23
50	76	2
42	42	5
80	84	1
22	22	14
149	151	6
144	209	4
9	9	13
45	45	15
143	210	7
221	238	1
233	241	5
234	234	25
134	134	12
140	141	7
224	224	10
20	20	16
120	207	5
2	5	5
44	171	2
13	14	2
140	142	5
102	168	12
120	120	12
213	213	9
228	229	6
73	74	2
220	221	1
189	222	3
164	165	7
158	161	2
203	203	16
179	180	6
236	236	4
79	84	2
27	27	21
207	207	9
79	79	8
169	170	7
116	190	3
143	144	4
184	184	15
118	128	1
37	81	3
19	20	8
149	150	5
49	49	13
217	224	2
155	230	1
168	205	3
58	58	11
166	186	4
48	48	18
232	232	11
54	54	24
6	6	3
186	186	3
10	10	7
41	41	1
231	231	16
153	153	6
11	11	6
7	8	6
13	13	8
136	197	1
88	88	9
101	204	5
163	163	2
146	147	3
63	63	23
123	123	7
9	11	5
240	240	28
19	19	3
187	187	7
50	50	12
104	107	4
74	75	4
50	52	3
225	228	4
138	141	2
18	212	5
82	82	11
25	25	14
211	216	5
206	208	2
192	216	5
184	186	1
156	156	7
21	21	5
146	148	2
116	147	4
181	182	5
165	166	4
196	196	7
200	200	8
170	190	6
226	229	2
143	146	1
47	47	16
43	43	13
104	130	6
3	23	2
101	101	13
202	203	5
223	224	6
212	212	9
12	13	4
181	181	9
199	199	13
230	238	3
113	113	6
157	157	9
209	227	4
232	233	2
42	46	1
142	142	8
86	86	6
220	220	14
4	5	2
60	60	3
0	0	4
189	189	10
37	37	13
109	205	3
54	55	6
191	191	11
7	30	5
59	59	9
239	241	1
161	163	1
111	111	8
98	98	12
146	146	13
151	151	6
202	202	6
194	194	9
47	182	2
22	31	7
25	26	8
46	46	2
15	36	4
200	211	3
50	84	5
57	57	3
72	72	6
207	216	1
169	184	1
119	119	6
201	201	9
219	219	11
142	143	7
44	44	14
192	196	5
44	50	4
141	141	13
2	23	3
162	162	11
122	144	7
52	52	4
224	230	1
66	67	4
84	85	3
178	179	13
55	64	1
139	139	10
75	75	14
137	196	3
149	152	3
51	51	4
78	85	2
134	135	8
221	221	6
3	61	1
118	119	4
121	122	5
77	77	8
17	18	2
53	53	10
111	113	3
96	97	5
102	145	3
11	69	1
111	112	7
80	83	6
158	159	4
173	179	4
210	211	5
64	64	5
51	52	1
154	159	1
84	84	11
62	65	3
37	38	1
147	147	14
127	127	8
119	144	5
6	41	6
19	37	3
42	50	2
14	14	5
14	17	2
66	66	8
215	215	5
15	16	2
185	186	4
108	108	5
158	229	3
151	153	2
74	74	13
110	198	2
100	102	1
36	42	2
177	183	1
29	30	6
170	171	4
22	23	4
9	10	9
149	225	1
5	6	8
158	158	6
172	172	10
17	17	7
155	155	9
173	173	9
35	36	2
121	121	4
185	185	3
216	216	16
140	192	2
73	75	3
238	238	12
176	178	2
233	233	13
237	237	13
136	137	4
190	190	12
59	64	2
165	187	4
138	142	1
18	39	1
109	109	8
145	214	1
202	204	1
166	168	2
80	80	2
20	24	4
83	139	2
18	31	1
14	15	9
192	222	5
73	114	7
12	12	2
36	49	2
150	150	14
193	195	1
9	69	1
219	233	2
48	74	4
211	211	2
167	167	12
161	162	6
132	132	1
63	70	6
4	8	2
44	46	6
103	103	4
4	6	1
159	160	4
108	122	3
230	230	2
165	165	2
188	189	3
75	84	2
17	21	4
100	101	1
227	227	3
231	233	2
124	130	2
95	110	3
20	31	6
120	136	4
118	118	6
81	139	7
58	59	4
122	123	3
209	211	4
153	156	7
134	167	4
76	86	2
10	172	2
207	208	6
215	216	7
226	226	3
2	3	3
173	174	10
204	204	2
196	211	2
239	239	7
206	215	2
198	202	3
117	118	1
117	117	2
104	104	1
71	71	17
16	16	5
131	133	2
186	187	4
191	192	1
193	193	4
108	123	2
23	23	4
175	176	5
200	201	14
184	189	6
217	218	3
110	143	2
108	109	4
214	214	1
24	25	2
59	67	1
126	129	2
78	79	2
44	53	1
109	110	2
156	160	4
159	159	7
119	122	1
208	210	1
79	85	3
169	169	8
176	176	3
149	153	4
5	5	1
242	242	7
98	127	2
230	239	4
55	61	2
164	164	20
75	85	1
188	188	6
222	223	3
83	85	2
152	153	3
47	160	1
44	47	4
96	128	1
62	70	1
75	88	1
230	231	1
103	126	1
10	69	4
106	154	1
153	230	4
178	178	7
114	115	2
4	41	1
192	193	1
154	229	1
28	29	6
171	184	1
38	39	11
235	236	9
123	125	3
152	156	3
40	40	9
135	136	8
193	220	3
183	219	2
145	145	7
35	89	4
123	124	4
133	142	2
11	16	1
241	242	2
82	84	2
180	183	5
53	62	2
159	166	6
125	130	4
179	179	16
110	110	1
130	166	2
73	113	7
5	7	3
117	149	3
126	130	5
198	210	1
129	129	2
42	176	2
36	37	2
174	175	2
0	7	1
127	128	2
34	34	4
137	138	5
187	188	2
40	41	5
96	96	7
34	166	2
183	184	3
3	236	3
1	5	3
159	162	1
138	140	2
19	212	2
135	135	11
199	201	2
100	126	2
3	6	1
0	30	3
105	143	3
152	152	3
151	152	2
225	225	3
17	22	5
103	105	1
228	230	2
1	1	2
64	65	2
145	148	1
62	63	8
8	11	2
238	240	3
6	8	4
68	111	3
224	225	3
18	18	7
81	82	4
26	27	2
4	29	3
160	182	1
61	62	2
144	146	6
185	187	1
16	30	2
185	188	3
18	22	3
231	240	1
56	57	4
102	104	4
119	135	1
177	179	3
2	41	3
48	49	6
65	66	1
100	100	2
80	88	4
163	187	1
52	53	5
57	59	4
108	167	1
62	74	1
168	169	1
102	135	3
46	85	2
222	224	1
185	221	2
18	23	1
155	158	1
117	148	1
221	232	1
38	40	1
142	210	1
179	202	2
47	48	6
43	171	1
211	213	2
3	232	1
214	216	2
195	202	1
116	116	5
206	220	2
217	217	6
150	152	3
71	72	4
106	106	8
162	163	1
11	13	1
130	131	7
105	105	3
209	209	3
234	235	4
161	224	1
216	220	3
46	184	3
77	78	4
74	129	5
119	130	3
45	46	3
44	165	2
135	201	1
27	30	2
175	232	1
8	9	2
99	100	1
119	125	1
34	82	1
194	199	1
154	155	2
107	107	5
40	201	4
125	125	1
50	51	1
92	92	2
183	186	3
164	170	1
226	227	4
160	166	4
32	78	1
148	149	1
190	192	1
46	55	2
33	33	6
225	226	2
191	193	2
70	71	2
39	89	2
236	237	2
182	183	2
101	200	4
227	229	3
32	32	3
58	60	1
29	33	1
6	7	2
117	150	1
177	180	1
120	122	2
43	174	3
81	136	1
99	121	4
163	165	6
123	154	2
131	166	1
175	179	1
8	64	1
176	177	2
169	173	2
21	22	4
144	145	1
24	24	7
69	70	2
45	52	2
2	6	1
75	114	2
125	127	1
147	149	5
219	232	1
12	29	2
20	21	3
175	233	1
143	145	2
47	180	1
109	144	1
31	35	2
90	90	2
169	171	3
37	166	1
152	157	2
125	204	1
15	88	2
125	126	1
31	32	1
39	44	3
160	230	1
239	240	1
26	62	3
196	197	1
2	2	3
39	58	1
37	85	2
116	118	1
105	106	1
123	127	1
162	224	2
99	202	2
126	126	1
23	25	1
40	58	1
45	165	1
113	117	1
9	28	2
180	181	1
160	165	1
120	121	1
97	99	1
124	126	4
33	34	1
201	202	1
105	109	1
57	78	1
14	40	1
137	137	1
0	1	3
106	107	1
82	83	1
216	218	1
190	191	2
133	205	1
11	30	1
107	126	1
186	219	1
57	58	1
3	65	1
1	41	1
96	105	2
100	199	3
40	51	1
23	24	2
115	149	1
187	223	1
108	134	1
131	132	2
200	202	1
30	31	1
216	217	3
173	175	1
195	196	1
46	47	1
225	230	1
241	241	1
160	219	1
31	33	1
82	102	1
115	116	1
56	58	1
122	154	3
69	112	1
80	81	1
45	164	1
108	168	1
181	183	2
19	21	1
116	117	2
120	135	1
198	199	1
35	35	1
101	105	1
197	198	1
9	27	1
184	195	1
218	224	1
122	155	2
193	194	1
122	145	1
7	64	1
157	158	1
232	241	1
6	14	1
75	81	1
17	23	1
76	78	1
134	205	1
3	68	1
