137	138	15
70	81	2
37	37	28
26	28	6
153	153	10
69	79	5
14	33	1
157	158	3
6	6	9
12	21	2
89	89	11
149	149	9
89	147	1
54	54	9
9	9	12
109	111	2
112	112	7
13	13	7
77	77	5
64	64	10
34	35	10
135	135	5
142	146	2
36	36	2
117	117	11
127	127	10
86	87	3
128	128	14
62	62	2
31	31	9
100	100	5
125	132	4
121	121	10
133	137	1
26	26	9
11	12	2
17	17	6
97	102	4
75	75	7
132	132	3
33	33	7
125	126	5
136	140	7
82	82	6
19	19	12
95	96	3
14	15	1
11	11	5
134	134	10
150	150	5
124	137	2
125	125	10
154	158	3
156	156	4
63	63	2
90	91	2
92	93	1
21	21	8
93	93	7
106	106	9
111	111	4
3	3	9
56	67	4
46	46	6
99	99	4
43	43	10
48	48	3
85	86	3
42	42	6
51	51	10
92	97	1
7	7	5
11	21	3
153	158	7
39	39	11
22	22	7
20	20	1
85	85	15
140	141	3
120	120	6
145	145	11
9	11	3
97	97	8
109	110	8
27	27	18
53	53	4
32	33	4
4	32	1
144	144	4
134	138	1
154	156	4
7	8	2
120	155	7
5	5	5
131	134	2
146	146	2
78	112	3
25	30	6
68	68	12
130	132	4
30	30	9
140	140	11
80	80	8
0	4	4
86	86	6
91	91	4
130	131	5
30	31	2
52	54	4
50	50	7
49	50	5
41	41	5
137	143	2
90	90	13
2	2	6
45	45	12
39	65	1
88	95	1
145	146	4
66	71	3
85	90	2
92	92	6
34	34	5
52	52	4
15	15	4
64	78	1
105	105	10
138	138	11
104	104	7
81	111	2
71	71	8
32	32	6
125	140	2
90	95	2
151	151	11
81	104	3
131	133	3
86	103	5
79	79	8
23	33	6
122	142	3
54	55	5
17	36	3
130	130	3
27	33	3
110	140	3
77	158	2
36	37	1
88	99	3
44	44	10
31	32	7
4	4	10
154	154	5
91	93	6
28	31	3
25	75	1
68	80	2
84	91	1
146	149	2
91	97	1
67	67	8
137	137	4
24	24	6
102	106	2
16	18	2
11	30	5
111	117	1
68	70	4
16	21	1
41	44	3
16	17	1
26	34	1
24	69	4
28	29	2
113	122	3
10	10	7
158	158	1
95	95	9
151	158	2
117	141	4
116	116	4
104	105	2
47	48	3
89	144	1
155	155	5
75	151	2
11	24	2
9	10	5
92	94	3
19	34	1
148	148	3
110	110	9
101	102	5
73	73	5
9	157	2
96	150	5
4	6	6
25	27	3
47	47	2
22	26	5
50	52	4
87	89	4
33	77	4
32	37	1
129	131	6
27	29	7
122	122	7
115	115	2
103	103	3
107	108	2
81	81	5
83	84	4
120	146	2
78	78	4
87	88	1
28	28	2
12	13	1
96	98	3
79	93	2
35	40	2
136	136	10
106	115	1
157	157	5
23	23	7
96	96	1
125	144	3
108	110	2
14	14	3
126	126	4
17	42	1
38	38	2
83	103	1
114	155	1
146	159	2
69	71	1
105	147	2
77	148	1
84	147	1
13	14	3
103	151	1
129	129	8
156	158	4
35	35	5
141	141	8
115	121	2
8	9	2
78	79	3
88	88	11
98	102	4
118	118	1
24	158	2
55	55	5
29	72	2
125	127	2
35	41	3
146	148	2
41	54	3
117	119	5
69	156	1
115	119	3
46	67	1
143	145	3
119	120	3
114	146	2
136	141	3
16	25	4
67	91	2
146	153	1
53	54	1
67	70	2
26	37	1
87	87	3
35	36	2
11	13	1
106	108	2
66	66	2
25	26	2
81	82	1
40	46	2
34	57	4
116	122	2
84	85	1
29	29	8
29	30	1
91	102	1
8	13	2
124	124	3
135	140	1
31	41	3
46	47	3
136	143	1
19	20	2
78	106	2
79	91	1
71	88	3
16	16	3
90	98	1
94	94	5
153	157	1
139	139	1
9	152	1
9	24	1
61	61	1
98	98	5
116	117	1
83	90	1
91	92	2
83	88	3
101	101	4
2	3	3
127	128	2
25	28	3
152	152	2
107	155	2
95	97	1
48	49	3
1	2	3
22	27	1
66	69	1
83	85	1
19	46	2
80	87	1
133	136	2
152	157	1
72	72	2
26	32	3
0	1	1
30	152	1
104	106	2
70	70	3
111	112	4
139	140	1
25	25	7
65	65	2
104	110	2
15	33	1
34	37	2
127	135	1
17	18	2
24	25	1
3	9	2
136	146	2
119	119	2
40	40	2
29	92	1
132	146	1
49	49	1
24	156	2
69	69	3
15	41	3
94	95	2
127	133	3
28	38	4
3	4	2
87	91	2
116	142	1
106	107	1
89	93	1
69	78	2
114	114	2
131	136	1
86	92	2
18	18	4
110	115	1
100	101	1
10	20	1
18	41	2
83	83	2
111	118	1
149	155	1
80	123	3
146	147	1
72	77	1
39	40	1
23	50	1
1	1	2
15	16	2
64	70	1
38	65	1
41	45	4
83	91	1
45	65	1
144	146	1
62	110	1
144	148	1
20	22	2
21	84	1
97	147	2
10	11	3
147	147	2
50	51	1
4	8	1
26	27	2
84	84	1
148	149	1
113	113	1
56	56	1
118	120	2
39	42	1
132	136	1
115	142	1
63	113	1
92	120	1
38	40	1
117	142	1
82	95	3
13	20	1
133	133	2
100	151	1
96	149	1
153	155	1
132	134	1
8	8	1
39	45	1
16	32	2
29	66	1
94	122	1
40	45	1
82	89	1
45	56	1
136	155	1
68	83	1
121	122	1
54	56	1
119	122	2
129	134	1
113	155	1
14	17	1
48	52	1
133	134	1
66	67	1
63	147	1
116	138	1
107	107	1
