89	102	2
77	77	10
21	21	6
5	5	17
86	86	11
16	16	11
25	25	8
130	130	11
32	34	3
108	108	6
96	96	22
78	79	2
43	43	6
48	48	2
100	100	11
85	86	2
52	53	1
66	66	18
129	129	16
119	119	26
124	125	2
65	67	3
36	36	15
70	70	8
28	28	11
127	129	4
67	68	4
10	23	5
65	65	6
15	16	3
115	115	13
18	18	6
4	5	5
62	62	10
2	2	10
30	32	2
12	12	11
44	44	24
79	79	20
45	47	1
121	121	16
32	32	8
118	118	7
52	91	3
63	76	4
106	106	15
82	107	4
17	17	7
83	113	4
122	123	6
124	124	6
21	22	1
33	134	1
25	27	3
8	8	6
57	57	7
103	103	6
22	22	6
6	6	7
53	53	13
4	4	10
19	20	2
96	97	3
49	49	5
95	95	6
94	99	3
71	128	3
56	56	11
72	128	3
118	119	3
112	117	5
79	123	3
10	24	8
104	105	2
77	78	1
116	116	12
116	118	6
101	102	1
64	64	10
85	85	7
109	109	13
104	135	3
69	70	3
125	125	8
101	116	3
107	117	2
89	90	5
114	114	15
58	59	5
98	104	4
50	50	9
67	67	11
134	134	9
34	34	2
100	129	5
24	25	9
81	81	17
93	93	5
82	86	1
102	102	9
98	98	19
0	77	1
60	60	5
111	119	2
10	31	2
63	65	6
46	47	7
23	43	3
132	132	6
63	63	9
72	72	14
69	69	5
124	132	2
129	134	2
104	104	10
30	30	12
80	80	14
97	97	12
14	14	7
26	26	4
3	6	1
29	32	2
112	112	8
1	2	5
112	113	4
15	15	9
122	122	13
25	45	1
6	16	1
128	129	1
59	59	10
45	46	6
132	133	4
75	75	13
55	55	8
132	134	7
72	129	2
61	61	5
13	13	5
3	3	6
25	26	5
33	33	3
27	27	3
113	113	6
83	85	2
38	38	3
78	78	14
131	131	7
105	105	11
123	123	5
100	106	3
127	128	4
54	68	1
90	121	5
92	92	6
37	38	3
52	52	3
19	19	6
6	7	6
58	58	11
114	119	5
75	76	3
126	127	6
50	76	7
115	118	1
66	67	3
59	60	1
60	62	3
29	29	10
47	49	1
94	94	2
3	15	5
82	112	5
45	67	1
26	45	2
51	51	2
95	97	3
23	30	5
7	7	5
61	62	2
73	73	5
90	90	11
3	4	3
63	67	3
81	82	3
64	82	6
84	84	6
29	31	4
7	12	2
119	120	4
110	113	1
87	87	6
20	28	4
11	12	3
24	113	3
32	91	1
92	98	3
130	132	4
68	68	6
20	20	13
72	73	1
27	30	1
94	102	1
113	114	6
96	99	5
56	65	2
0	1	3
29	30	1
35	35	2
22	23	6
80	83	3
89	126	1
135	135	3
71	71	10
0	0	6
79	80	2
5	13	2
24	24	1
11	11	11
85	106	1
113	119	1
84	117	3
99	99	6
107	111	2
8	16	2
80	134	3
117	129	3
60	63	2
91	106	3
66	84	3
76	114	1
127	127	6
92	118	6
32	37	1
32	99	1
9	9	4
10	10	17
57	80	1
52	98	5
68	69	5
115	116	4
91	92	4
117	118	5
45	45	3
28	33	1
83	112	2
23	23	4
7	8	2
34	99	1
128	128	4
13	14	1
54	56	1
76	81	3
82	108	2
15	17	2
99	102	3
99	106	2
63	64	4
110	110	5
54	55	3
28	35	2
91	91	3
0	5	2
122	125	2
117	132	1
74	126	3
1	1	3
34	133	2
19	33	1
13	25	3
2	27	2
6	8	5
2	3	3
83	84	2
95	103	1
95	96	4
133	133	2
99	128	1
107	130	1
126	129	3
111	113	1
97	105	2
2	29	1
125	129	3
4	42	1
92	93	1
76	76	3
8	10	1
60	61	2
107	107	4
9	16	5
75	77	1
93	103	3
54	54	9
1	78	2
77	79	2
126	126	3
57	58	1
84	107	4
82	82	6
101	101	4
86	87	3
110	114	1
95	98	2
125	126	1
88	88	1
97	100	2
58	60	1
117	131	1
108	110	1
65	68	1
115	117	1
52	92	2
59	61	2
55	69	1
79	122	1
115	122	2
123	125	2
7	21	1
97	101	3
26	28	1
77	83	2
30	35	6
51	56	1
106	108	1
69	72	1
117	122	1
114	118	1
74	104	1
134	135	2
31	31	7
53	54	4
62	63	2
43	70	1
43	50	1
77	84	1
53	56	2
32	38	1
124	134	1
117	117	3
90	91	1
120	120	5
84	130	2
113	121	1
16	17	1
52	85	3
21	33	1
97	128	1
109	111	1
87	106	2
47	48	1
93	131	1
102	126	2
116	129	1
92	100	1
36	37	1
70	94	2
2	35	1
84	110	1
130	131	2
118	121	2
73	76	1
4	7	1
101	119	1
99	100	1
96	127	2
108	109	1
44	45	1
36	53	1
106	129	3
63	72	1
121	122	1
0	11	2
130	133	1
17	18	1
3	14	2
6	9	1
55	59	1
92	124	1
124	131	1
94	96	1
1	27	1
98	101	1
87	110	1
107	118	1
89	97	1
92	130	1
96	105	2
28	36	1
30	37	1
64	95	2
15	18	1
83	83	1
74	74	1
32	133	1
58	61	1
81	86	1
2	13	1
66	68	1
108	115	1
31	35	1
83	117	1
129	130	1
29	36	1
109	119	1
42	78	1
