161	164	3
86	88	4
62	62	6
150	150	2
162	162	1
133	133	2
48	48	6
143	164	1
36	36	3
16	126	7
29	31	2
185	185	8
128	128	12
13	175	8
162	164	1
63	63	1
193	193	16
166	166	3
67	69	2
187	187	5
157	157	5
150	161	1
25	25	3
45	45	8
173	173	7
143	143	10
69	153	1
161	161	2
27	32	5
20	180	2
16	16	3
21	112	2
13	15	8
71	71	3
4	160	2
147	148	3
114	115	1
1	160	3
34	34	6
11	11	5
170	171	2
180	180	4
40	41	3
62	65	2
176	176	2
136	165	3
103	157	3
13	14	3
97	153	1
43	61	1
43	43	2
15	15	4
135	149	2
81	83	1
112	112	3
57	57	1
41	41	6
154	154	3
165	166	4
78	79	1
120	166	3
147	147	4
5	5	6
141	142	4
124	124	6
82	82	4
171	171	3
52	52	7
61	61	5
26	26	2
12	12	2
109	109	3
26	64	1
58	63	5
165	165	2
17	117	1
126	127	4
148	149	2
8	8	8
31	31	2
117	117	4
139	171	3
159	159	3
64	64	7
176	183	2
76	76	6
8	81	3
173	174	5
183	183	4
30	32	2
179	179	3
27	27	3
96	96	6
56	56	2
86	86	4
158	158	6
160	162	4
113	113	2
23	23	4
123	123	4
61	63	3
139	140	6
94	139	1
19	19	1
168	169	2
151	151	6
176	177	1
59	64	1
33	38	1
111	111	1
37	37	5
102	102	4
20	21	2
110	118	1
153	153	2
49	49	13
139	139	3
151	157	3
178	184	4
18	116	1
193	194	3
1	87	2
50	50	7
51	51	1
47	48	3
47	68	4
184	184	2
172	173	1
185	186	4
164	164	1
12	184	1
5	7	2
174	174	3
107	122	5
0	159	1
100	100	1
140	171	1
70	70	7
22	22	2
44	44	4
187	188	1
126	175	4
12	155	2
72	72	2
136	136	1
6	6	7
121	142	2
37	46	1
32	32	2
38	66	1
135	150	1
20	100	2
195	196	6
146	146	1
9	9	7
94	94	4
0	2	1
160	163	1
129	154	1
1	88	1
69	89	2
24	42	1
24	25	2
10	11	2
103	104	1
130	155	2
101	101	3
37	45	5
35	35	3
69	69	2
93	97	1
59	59	5
85	85	2
108	108	3
122	122	2
181	181	4
3	3	5
33	39	2
191	191	2
9	12	2
30	31	3
119	119	3
47	47	2
130	131	1
18	112	1
182	183	1
41	46	2
41	66	2
138	150	3
125	170	1
105	105	1
131	132	1
89	89	1
45	46	2
112	113	2
67	67	1
34	68	1
72	79	1
51	52	3
127	127	3
38	46	1
58	58	3
54	55	2
178	183	1
141	186	1
3	6	1
141	141	4
73	73	2
134	134	1
174	176	1
5	8	2
104	104	2
133	155	2
120	120	4
8	10	1
149	168	1
168	171	1
158	166	1
16	172	1
175	176	2
182	182	2
65	65	4
43	63	3
74	84	2
188	189	1
103	103	3
98	180	3
25	26	1
195	195	3
96	182	2
118	118	1
77	78	3
149	149	1
167	167	1
100	114	2
116	116	1
115	117	1
40	68	2
131	131	1
99	100	1
21	21	1
79	86	1
53	53	3
174	175	1
161	162	1
12	174	2
115	116	2
100	112	1
163	163	1
159	160	1
181	183	1
38	38	1
110	110	5
130	156	1
137	148	3
52	73	1
14	177	1
119	120	2
125	125	1
15	177	1
142	142	1
170	170	1
138	144	2
10	81	1
24	24	1
197	197	2
14	15	2
87	87	1
142	143	4
94	96	2
1	1	1
18	18	1
27	28	1
50	51	1
29	29	4
66	181	1
26	63	2
177	178	1
106	164	2
33	33	2
132	132	1
160	160	1
54	56	1
34	39	1
71	72	2
2	2	2
97	182	1
121	122	3
66	66	2
196	196	1
39	40	1
95	173	1
132	133	1
107	107	1
18	20	1
101	111	2
103	166	1
137	137	2
72	73	1
121	139	1
144	144	1
163	167	1
32	33	1
34	38	1
43	44	1
155	155	2
87	90	2
14	14	1
188	188	2
123	140	1
83	83	1
176	178	2
33	61	1
79	80	1
121	121	1
186	186	1
74	74	1
4	4	1
3	130	2
2	137	1
52	53	1
140	140	2
35	57	1
169	170	1
123	139	1
2	159	1
99	112	1
12	82	1
46	56	1
