80	81	8
164	169	5
225	225	20
44	49	2
192	192	20
143	143	20
59	81	3
30	30	14
206	209	1
124	125	1
223	224	12
228	228	13
105	105	9
190	190	19
145	145	21
100	100	9
118	118	8
18	18	18
210	210	8
50	54	1
32	55	5
53	125	14
180	180	13
106	107	4
3	4	11
225	243	4
128	148	2
156	156	9
120	141	6
37	37	6
134	134	11
166	169	6
15	15	10
4	5	15
241	241	3
32	80	8
188	209	2
101	101	21
176	176	12
123	139	3
2	80	9
48	69	1
185	185	20
14	16	7
7	7	32
150	151	8
211	211	32
19	19	19
65	79	2
161	173	2
216	216	17
23	23	24
159	159	12
104	104	9
116	117	11
162	225	3
57	60	5
5	6	5
205	206	8
187	188	11
126	126	11
172	172	14
56	56	19
46	46	5
16	16	21
147	147	13
66	67	8
81	82	9
20	39	2
177	178	5
37	43	12
195	195	7
54	54	21
118	122	2
1	4	4
235	235	17
194	194	11
148	149	5
6	6	21
188	188	23
154	163	1
160	160	10
41	41	16
139	142	3
62	114	1
119	119	11
242	242	16
129	130	9
13	13	23
197	197	11
134	135	9
198	199	3
204	204	13
51	52	7
49	69	10
84	126	5
40	40	23
169	169	16
95	113	7
110	131	1
113	113	5
44	45	5
37	38	7
109	114	1
99	107	2
196	196	12
36	36	13
12	12	7
14	19	11
217	218	16
212	213	6
51	53	7
36	76	4
20	20	10
193	193	6
138	139	16
30	31	21
143	148	2
233	235	11
139	140	4
236	236	15
231	233	4
225	230	5
230	230	15
146	149	1
178	235	6
124	124	6
234	237	6
99	106	7
231	231	14
163	164	5
102	103	6
116	116	19
187	187	15
219	220	5
100	106	8
27	74	1
85	85	20
215	215	9
84	84	13
139	139	11
60	95	4
147	148	4
104	117	2
121	122	7
220	223	5
154	154	14
108	112	5
71	73	5
144	144	9
31	31	21
60	80	3
64	66	1
157	157	16
127	127	4
200	206	3
60	86	3
146	165	4
122	122	11
41	42	7
10	48	2
164	185	6
72	73	15
181	182	2
52	52	14
114	116	1
24	25	7
161	161	24
148	152	6
142	145	4
136	150	3
159	162	1
29	50	5
51	51	7
109	109	8
211	212	3
79	79	19
214	215	10
182	182	16
158	158	10
21	21	8
186	186	12
48	124	2
39	41	4
180	181	3
82	82	11
18	19	22
145	148	2
142	142	12
15	16	19
109	110	7
162	163	2
54	64	4
63	116	2
232	232	2
108	108	16
185	187	1
4	4	17
196	228	4
239	240	4
173	175	5
165	166	3
225	226	7
98	105	3
162	162	11
2	2	17
220	226	2
149	149	13
10	198	1
6	51	4
29	29	10
189	189	16
168	188	6
175	177	7
222	222	13
169	173	5
184	184	7
59	59	19
180	187	1
120	127	2
156	157	4
135	135	7
43	43	12
58	60	12
106	106	10
6	7	4
179	180	6
146	146	13
71	71	16
169	170	4
150	152	1
26	47	2
221	223	2
155	155	6
65	66	3
159	172	1
134	137	8
12	13	9
133	133	16
75	76	4
61	61	11
237	237	21
157	189	3
0	37	1
180	182	4
192	193	5
49	50	9
137	137	7
123	140	2
201	201	8
63	63	15
138	141	3
153	153	9
115	116	2
173	173	7
193	194	7
199	200	23
144	164	6
146	147	8
6	9	4
210	211	11
45	46	4
160	161	7
57	119	5
7	8	4
57	57	15
45	72	3
175	208	2
167	167	11
3	3	5
34	34	17
148	150	2
181	181	10
10	10	12
62	63	4
147	208	2
181	215	3
119	120	3
108	130	2
80	80	20
165	165	15
231	236	9
202	203	8
179	198	6
101	106	1
152	155	5
26	27	5
174	178	1
203	232	4
155	157	2
168	168	17
83	83	12
159	175	5
142	151	3
8	8	18
166	166	17
219	224	4
70	71	7
215	216	16
22	23	4
147	207	2
236	238	5
75	75	15
100	112	4
64	64	13
130	146	2
103	104	5
125	125	3
3	8	1
9	9	8
27	27	13
57	82	1
65	65	13
136	136	13
201	204	2
137	139	8
24	24	5
218	218	6
28	29	6
203	204	3
148	148	8
11	48	3
28	30	2
101	108	1
201	216	3
174	186	2
52	53	5
135	136	1
1	1	7
11	12	9
116	118	4
68	68	13
223	228	6
21	23	8
3	5	2
33	33	10
160	232	2
71	233	4
204	206	2
78	79	2
133	137	4
105	107	5
6	122	3
56	60	7
162	168	2
195	196	3
187	189	2
58	58	18
8	216	2
206	206	10
191	197	1
238	238	9
0	1	7
166	188	4
240	240	6
227	227	9
222	227	3
191	212	1
166	167	9
112	112	7
31	51	2
226	229	2
191	196	2
55	55	24
186	187	5
226	226	15
102	113	2
44	44	21
183	183	13
130	131	6
121	121	4
47	47	7
25	25	9
198	198	10
55	58	3
152	153	10
54	55	5
3	7	2
49	195	1
76	76	11
178	179	7
137	138	6
49	64	2
230	231	10
177	177	8
14	14	15
192	208	3
2	51	2
209	209	17
223	223	10
137	140	9
102	102	4
107	107	12
141	141	22
122	123	3
34	80	4
69	70	7
59	60	11
233	233	4
185	186	9
103	106	3
150	150	5
60	60	16
120	121	1
221	221	22
26	28	5
177	179	3
32	75	2
32	33	5
19	28	2
10	216	4
81	81	16
171	171	15
127	131	2
207	207	5
88	88	4
67	67	6
208	208	13
39	39	15
35	75	2
3	30	2
36	39	4
230	233	1
64	69	4
67	145	1
32	74	6
203	205	7
78	78	14
140	142	10
63	71	2
197	200	3
11	11	11
74	74	8
32	32	15
236	242	5
135	137	7
164	164	12
28	28	14
26	26	10
142	153	3
83	85	5
77	77	16
170	170	10
115	115	25
114	117	5
128	128	9
110	148	2
117	117	16
39	42	3
205	233	3
34	53	3
17	17	9
140	140	8
45	218	3
84	85	4
224	225	8
67	68	3
76	77	2
221	222	10
228	232	5
229	229	20
191	209	3
35	42	3
178	180	1
145	150	4
145	146	6
224	224	9
61	100	1
178	178	8
43	44	3
4	36	1
38	38	10
151	151	16
67	193	1
110	110	7
218	219	6
79	80	4
164	181	2
102	104	4
0	53	1
145	147	1
97	97	6
54	119	3
33	34	8
1	3	5
37	84	1
99	192	2
163	214	10
63	114	1
73	74	6
160	165	2
180	236	2
241	242	3
164	165	8
124	127	5
228	229	6
41	84	4
69	206	5
146	164	1
205	205	14
45	50	2
100	105	1
51	73	2
83	84	6
65	67	2
25	26	9
95	106	2
179	209	2
109	130	4
1	29	3
234	234	5
163	163	16
153	160	1
29	30	6
66	79	1
173	174	7
135	138	1
48	53	4
161	168	5
209	229	1
37	44	3
34	35	3
8	61	5
45	45	6
82	85	1
26	48	1
49	51	5
193	196	2
8	123	3
203	203	5
184	186	1
199	213	3
170	192	2
153	154	3
109	146	4
62	62	12
220	225	1
10	30	2
42	42	3
66	66	7
146	148	1
154	188	7
53	122	3
221	225	3
108	133	3
151	168	2
0	0	5
191	191	6
179	213	1
176	178	10
179	179	5
210	227	3
25	47	1
86	86	12
170	171	3
216	218	3
97	102	5
234	238	2
174	174	9
81	83	1
115	117	3
36	77	1
54	63	1
103	105	7
196	214	1
202	218	2
220	220	12
14	15	2
74	86	5
2	35	5
169	172	1
7	31	1
54	122	4
142	149	2
177	232	3
111	112	8
160	164	2
152	171	2
100	101	4
192	194	1
65	71	2
117	118	8
58	59	3
219	226	5
145	165	3
213	213	24
167	188	2
124	126	3
154	155	13
37	47	1
123	126	5
214	214	10
209	211	2
21	22	9
12	14	1
16	17	4
140	141	2
34	43	2
199	199	14
235	237	6
53	121	1
191	192	6
102	105	1
63	64	3
153	156	1
70	205	2
110	145	7
8	214	5
197	198	2
217	217	5
215	222	6
0	124	1
53	53	18
125	128	2
2	34	2
36	42	1
179	200	3
49	54	2
164	187	1
107	108	6
226	228	3
236	237	1
32	60	1
85	86	5
110	134	1
239	241	1
144	146	4
5	5	10
117	150	1
131	132	2
202	202	2
71	77	2
63	113	2
62	88	2
179	189	5
39	77	4
29	31	1
49	66	1
240	241	1
105	111	3
37	52	1
8	9	5
36	58	3
40	41	9
175	175	7
99	120	2
110	146	2
237	238	6
70	232	2
47	64	4
20	22	3
104	105	4
65	68	2
76	79	2
201	202	1
82	86	2
1	35	3
136	137	2
206	207	2
191	210	5
73	73	7
166	193	6
48	48	9
82	84	3
31	52	1
44	70	2
232	235	3
177	235	5
234	235	5
34	79	1
191	207	1
37	55	1
97	136	1
200	201	9
33	56	2
158	165	1
224	226	1
71	76	2
125	127	3
2	37	3
0	2	4
8	31	2
222	225	7
40	77	2
33	123	1
36	55	3
172	173	5
54	82	2
143	144	1
47	53	1
194	230	2
43	51	5
114	114	4
215	218	1
226	227	2
152	152	5
106	109	2
34	42	1
53	126	3
132	133	3
137	154	3
125	126	6
63	95	3
11	49	2
105	115	3
120	138	1
114	115	6
85	126	3
210	212	1
120	120	10
108	129	2
27	43	1
56	57	9
201	228	1
100	135	2
167	168	3
44	46	5
2	3	1
99	99	2
53	123	2
130	143	2
221	233	1
159	164	3
179	229	1
159	181	2
127	129	4
55	56	1
75	86	2
215	217	1
203	207	3
158	159	3
207	208	6
239	239	2
188	189	4
103	103	4
58	81	4
142	143	3
64	65	7
70	70	8
78	191	1
8	18	3
64	77	2
65	80	5
134	136	4
126	127	7
69	69	3
133	134	4
130	130	3
101	103	2
35	35	3
16	19	2
122	124	9
33	58	1
213	217	6
31	81	1
67	128	2
49	65	1
121	125	1
59	86	1
172	187	2
53	124	1
36	37	1
199	209	3
147	149	3
212	212	3
176	177	4
99	115	2
89	89	6
4	51	2
33	44	1
33	53	2
180	200	2
232	234	4
77	88	1
37	42	1
61	62	1
156	158	4
12	29	2
39	57	1
232	239	3
141	143	1
36	79	4
57	58	4
138	155	2
219	219	6
98	98	4
11	17	3
10	11	1
153	155	1
231	237	1
196	197	2
119	149	1
53	54	3
198	200	1
55	84	1
220	221	5
107	109	1
9	214	1
146	169	2
187	210	3
141	149	2
45	70	2
136	138	5
6	49	2
72	74	2
108	131	3
47	52	2
45	206	1
190	232	3
16	20	1
19	27	1
6	18	1
22	22	5
108	115	1
148	164	1
221	224	2
181	183	1
200	222	2
225	227	2
32	81	5
32	123	1
130	135	1
66	126	3
68	75	4
27	28	3
129	129	2
95	99	3
100	116	2
76	80	4
77	79	1
121	126	1
64	88	1
37	74	1
122	127	5
159	161	5
179	236	2
172	176	1
145	168	5
98	100	3
104	107	2
9	10	4
166	168	1
69	217	1
101	111	1
35	36	3
98	136	2
68	69	3
157	190	3
213	222	2
204	205	3
31	56	1
72	72	8
174	179	2
74	75	2
151	167	1
4	35	1
50	195	4
222	224	1
5	9	2
16	45	3
217	219	3
13	14	1
13	49	1
21	46	2
1	52	2
39	40	4
78	85	1
115	118	2
84	128	2
123	124	1
71	72	2
96	98	1
200	200	4
102	117	2
205	219	1
17	26	1
189	209	2
209	210	5
0	122	2
67	144	4
161	215	2
1	2	4
200	209	2
227	228	1
186	188	1
138	138	1
146	208	1
23	24	1
143	165	1
56	58	3
107	127	3
225	231	1
203	234	2
2	11	1
15	45	2
68	192	1
200	228	2
189	210	2
193	236	3
129	141	1
59	114	1
46	49	1
177	183	2
229	230	2
231	232	1
1	30	1
48	76	1
47	55	2
162	222	1
233	239	1
197	201	1
215	219	2
100	117	2
154	162	3
32	58	1
38	39	3
123	123	5
139	141	2
45	48	2
2	36	1
3	51	5
102	106	1
220	222	1
53	82	5
107	115	1
7	122	2
211	213	1
3	217	1
175	176	1
160	215	1
128	136	3
170	172	2
197	202	1
227	230	1
201	214	1
198	201	1
9	45	1
12	44	1
121	133	2
109	143	1
81	127	1
149	150	5
128	139	1
233	242	1
225	239	1
100	137	2
128	192	1
3	6	1
152	154	3
34	54	1
2	43	2
95	122	1
189	190	1
238	240	1
121	123	2
58	86	1
131	134	1
32	85	2
57	122	1
5	7	1
147	168	1
122	125	2
200	227	2
173	187	2
159	168	1
238	239	1
28	83	1
62	182	1
137	205	2
123	125	1
183	200	1
74	76	2
204	207	1
144	145	1
95	95	2
11	216	2
53	55	1
6	50	1
63	81	2
3	11	2
44	218	1
26	46	1
118	141	1
157	158	1
130	170	1
181	236	1
164	170	1
0	33	2
177	180	1
96	102	1
202	205	1
235	236	4
23	25	1
191	193	1
194	195	2
48	49	1
206	208	1
197	217	1
206	233	2
104	106	1
75	85	1
175	178	1
40	42	4
99	100	1
0	52	1
11	29	1
149	151	2
0	11	1
148	169	1
212	219	2
206	210	1
155	156	1
63	96	1
221	226	2
0	3	1
141	142	2
33	47	1
129	134	2
138	140	1
82	83	1
96	96	1
196	213	2
208	209	1
113	116	1
20	27	1
70	72	1
76	78	1
163	165	1
200	212	1
101	113	1
108	109	1
66	68	1
30	32	2
213	221	1
142	165	1
126	129	1
0	51	1
230	232	1
131	131	1
17	22	2
1	17	1
32	84	1
107	134	1
7	17	1
105	106	1
99	101	1
70	219	2
223	225	1
12	17	2
12	52	1
10	219	1
48	54	1
104	134	1
47	75	1
204	208	1
223	226	1
11	213	1
75	79	1
0	46	1
54	121	1
56	122	1
