147	147	2
4	4	4
86	87	1
145	145	3
50	50	1
7	8	3
96	97	3
177	179	3
42	53	3
149	149	8
34	35	2
169	169	3
127	127	3
126	128	3
22	22	5
154	155	3
11	24	4
126	126	7
159	159	6
104	104	4
148	148	4
121	123	3
122	122	2
59	59	6
25	26	8
67	67	2
109	110	3
5	146	3
143	147	1
44	44	8
136	136	6
7	7	6
168	168	2
83	83	3
130	130	4
31	32	2
169	173	2
78	79	2
164	164	1
116	118	7
118	118	5
29	143	1
0	97	1
28	28	2
107	108	3
144	144	3
2	2	2
88	89	4
89	111	2
8	8	5
130	132	4
105	106	2
168	176	1
117	118	1
10	10	1
153	153	5
55	143	5
36	136	4
111	111	3
133	133	9
97	97	2
165	165	6
61	61	3
102	102	15
103	106	1
5	5	3
177	177	3
121	121	3
1	1	4
152	152	4
160	160	2
152	153	3
78	78	1
55	58	2
173	173	3
50	94	2
81	88	2
150	150	4
99	99	4
120	120	4
170	170	6
149	150	2
19	19	2
0	0	5
1	14	2
156	156	8
71	72	4
10	45	3
125	126	4
52	60	1
46	46	2
26	26	6
72	72	3
85	85	1
80	81	1
56	56	2
134	135	4
36	36	8
6	6	5
117	117	2
108	108	2
37	137	2
53	53	3
4	6	1
51	51	2
84	86	5
163	163	2
167	167	1
155	156	4
88	88	7
16	16	6
18	18	5
111	112	1
30	30	3
80	80	1
7	9	3
67	102	1
123	125	2
32	45	1
62	62	5
100	101	4
92	94	2
41	41	3
125	125	5
24	24	3
36	91	1
144	145	3
152	164	4
114	114	2
79	89	2
95	96	3
21	21	5
9	9	7
38	38	5
113	113	3
79	79	1
98	106	1
87	139	1
63	65	2
27	27	2
151	151	3
73	73	7
115	117	1
148	149	2
38	56	2
68	68	4
142	142	2
146	146	2
102	103	1
173	176	1
89	89	1
50	65	1
123	124	1
41	110	3
74	74	4
98	99	4
10	11	6
5	8	2
161	161	2
0	18	1
8	10	1
11	25	1
166	171	4
45	45	2
139	140	3
140	140	1
121	124	1
91	91	1
59	61	1
98	98	1
8	9	3
92	92	3
76	77	2
73	104	1
101	109	1
12	13	1
134	134	5
56	57	1
50	52	2
119	119	1
52	52	4
105	105	4
49	50	1
20	20	1
150	157	3
153	167	1
139	139	6
49	49	1
162	162	1
178	178	1
22	23	3
141	141	2
62	63	1
9	10	1
6	9	2
42	42	2
121	122	1
40	41	2
54	54	1
28	30	1
37	143	3
122	124	1
158	159	1
60	61	1
42	59	1
66	66	2
130	160	1
5	6	2
43	43	1
90	90	2
41	63	1
60	60	1
65	99	1
83	129	1
114	115	4
179	179	1
108	109	1
38	41	2
35	35	2
86	86	2
3	3	1
81	130	1
92	93	2
23	24	1
119	120	1
61	62	2
167	171	1
14	14	1
84	85	2
65	66	2
154	154	1
11	11	3
80	131	1
166	166	1
37	55	1
55	55	1
77	77	1
139	149	1
138	149	1
180	180	1
172	172	1
75	75	1
97	98	1
112	112	1
91	92	1
