40	42	3
79	82	2
26	30	3
57	57	8
117	117	8
80	80	3
66	66	9
82	82	3
91	92	5
69	69	8
35	35	6
16	16	3
105	111	2
62	63	3
8	8	7
99	112	2
9	9	5
128	128	9
80	82	1
49	49	5
22	23	11
15	15	18
24	24	6
59	60	1
79	80	4
28	28	6
111	112	6
28	29	6
7	9	1
112	112	6
23	25	3
75	75	9
113	113	9
72	72	3
96	96	4
35	36	2
58	58	1
7	8	3
48	48	4
22	22	4
38	38	2
5	6	1
126	127	2
17	33	3
20	21	4
119	119	11
37	39	3
83	84	2
43	43	4
24	25	5
82	83	4
70	70	10
3	3	6
1	2	3
77	77	2
18	18	5
57	58	7
79	79	12
73	73	5
118	118	2
63	68	1
93	93	5
65	65	8
95	95	6
87	87	5
19	19	4
21	21	6
31	32	2
69	70	2
7	7	3
107	119	5
63	74	3
47	48	4
131	131	4
79	81	1
48	49	2
68	68	3
44	44	5
1	1	4
120	120	2
89	91	2
4	4	7
40	40	4
0	0	2
55	56	3
43	45	1
59	59	13
125	126	2
41	42	2
108	110	2
29	30	1
41	41	4
21	41	1
108	108	6
55	55	4
58	105	4
66	67	3
101	101	9
126	126	6
65	67	3
96	97	3
34	34	10
76	76	2
29	29	3
81	83	2
66	72	2
12	13	3
13	13	7
20	20	4
99	99	5
133	133	7
78	78	8
124	124	1
104	113	2
2	2	4
25	25	3
46	94	4
104	106	2
125	125	4
81	81	1
58	115	3
110	120	3
106	106	2
60	60	7
110	112	1
23	30	1
61	61	5
90	91	4
99	100	5
90	90	2
81	87	2
26	27	3
132	132	3
51	55	3
97	97	2
60	93	1
66	75	1
18	19	1
114	115	2
94	94	3
100	100	2
75	77	2
11	11	4
32	33	4
115	116	3
5	8	6
127	127	2
121	121	5
134	134	5
17	17	4
109	109	3
66	69	1
86	86	1
67	67	1
30	30	3
36	36	4
98	98	5
83	83	2
45	46	1
107	107	1
39	40	1
105	105	1
111	111	2
72	73	1
102	102	3
61	62	1
27	44	1
47	47	2
88	134	1
104	104	2
33	34	1
32	32	5
17	35	1
36	40	2
14	14	1
4	5	2
46	46	1
20	22	1
91	91	2
123	123	3
40	41	1
33	33	2
71	73	3
50	50	4
114	114	2
104	110	1
84	86	1
71	71	1
130	130	1
23	44	1
73	91	2
74	74	1
42	42	2
19	46	1
73	74	1
105	112	1
98	100	1
98	99	1
56	56	2
63	92	1
33	43	1
22	63	1
129	129	1
93	94	1
18	32	1
128	129	1
39	39	2
26	26	2
118	119	1
21	22	1
37	38	1
89	89	1
108	125	1
27	99	1
129	130	1
5	5	1
23	23	2
64	64	1
115	115	1
14	15	1
80	81	1
