125	125	10
57	57	8
140	140	6
176	177	2
55	55	4
24	24	1
122	122	4
26	189	2
19	19	8
190	190	7
22	22	7
5	5	6
17	18	8
17	17	8
179	179	9
139	139	10
112	112	1
89	90	3
102	102	3
101	101	2
36	37	6
167	167	12
115	123	2
115	115	11
113	113	4
40	109	2
39	39	6
33	33	10
114	114	6
20	37	3
135	135	3
185	185	5
62	63	6
119	119	10
38	39	2
42	42	10
169	169	5
153	153	4
45	45	10
42	44	3
164	164	2
36	36	5
14	14	5
176	187	1
53	53	7
22	108	6
44	44	3
149	149	8
64	64	12
18	36	1
28	28	12
143	143	7
16	16	6
81	82	2
104	143	1
134	135	1
112	141	1
146	147	4
87	108	8
14	30	1
104	149	1
177	178	2
98	98	4
58	58	5
111	129	2
166	166	4
156	158	5
1	1	5
11	11	2
121	121	9
126	127	1
161	162	5
110	110	11
168	168	6
8	13	1
106	129	2
63	63	6
26	39	6
187	187	4
159	159	2
128	128	7
181	181	3
68	69	2
106	130	3
41	42	2
117	117	3
41	41	2
10	13	3
137	139	2
79	92	2
12	12	2
124	124	6
13	13	1
93	100	2
56	56	4
80	93	2
21	21	6
58	62	1
81	91	1
31	31	5
43	43	8
96	96	2
6	39	2
95	95	1
22	57	2
23	23	5
154	186	1
46	46	3
10	10	1
100	100	5
49	49	2
72	72	3
72	73	2
172	172	4
148	148	6
141	141	5
6	6	5
15	17	4
67	67	6
150	150	4
142	142	7
69	72	2
175	175	4
182	182	5
70	73	3
54	57	3
8	8	1
18	18	1
157	157	5
188	188	5
123	132	1
105	106	3
60	60	2
174	174	6
61	62	1
137	137	2
25	25	5
152	171	3
79	80	2
37	37	6
82	86	3
30	36	1
7	24	3
58	59	6
23	24	3
133	134	2
46	48	1
84	91	4
10	11	2
48	48	9
132	132	2
124	125	3
104	141	4
184	184	6
125	126	4
116	130	3
116	116	5
54	55	2
160	161	1
26	26	6
25	26	2
13	15	2
152	180	1
20	80	2
143	144	1
103	107	3
40	56	3
145	145	2
0	0	5
153	154	6
107	108	2
111	111	6
65	67	3
178	178	2
65	65	6
111	140	1
15	41	2
88	88	3
151	151	4
148	160	2
84	84	4
133	133	10
29	29	3
40	40	4
32	173	5
105	131	1
152	181	1
111	112	2
52	54	1
187	189	4
110	153	3
99	99	2
9	9	2
151	157	4
8	27	2
163	163	1
47	48	2
62	62	3
70	71	7
153	180	1
27	35	2
77	77	6
94	94	1
42	43	1
30	30	4
81	81	4
15	30	1
105	105	1
136	136	5
89	89	2
140	141	1
31	32	2
131	132	1
61	64	2
152	152	6
92	100	2
0	3	5
79	79	2
37	38	4
56	87	1
32	32	5
3	5	1
174	177	1
81	88	3
32	37	1
114	134	4
83	83	3
163	164	1
177	177	8
63	64	2
134	134	1
43	58	2
113	129	2
154	154	3
80	81	3
37	41	1
9	187	2
123	126	4
59	59	2
93	93	1
139	148	2
162	162	1
114	131	2
61	61	5
110	141	2
138	151	3
66	67	1
187	188	3
45	60	1
118	119	2
182	184	2
158	158	1
176	179	2
126	126	2
164	166	2
91	93	2
3	3	2
120	120	1
18	30	2
131	131	1
64	66	1
72	80	3
93	122	1
90	90	4
4	4	1
165	165	2
85	85	1
115	116	2
6	7	1
123	123	2
161	164	3
28	48	1
11	12	1
183	183	1
109	109	1
45	63	1
74	109	2
86	86	2
186	186	2
182	189	1
152	169	1
2	2	3
142	149	1
118	118	1
20	21	1
80	80	1
1	2	3
12	13	2
184	186	3
87	87	1
68	68	1
93	99	1
24	56	1
172	173	1
107	107	2
155	156	1
127	127	1
74	74	1
154	155	1
169	172	2
90	91	1
101	102	1
106	106	1
147	147	1
7	7	1
30	31	1
35	35	1
120	123	1
151	180	2
58	60	1
