83	84	2
97	102	1
28	29	2
185	185	3
82	112	3
144	144	1
141	141	5
156	156	5
44	116	2
156	184	4
101	101	11
171	182	2
24	39	4
157	178	1
133	133	1
180	180	3
4	10	4
190	190	8
0	0	4
167	167	5
16	16	1
75	79	4
157	157	7
75	75	4
160	160	4
19	19	7
13	13	3
66	66	7
27	29	3
149	149	2
75	80	1
146	148	2
144	146	1
170	178	1
159	173	2
77	152	1
158	158	1
144	176	2
41	41	9
5	5	14
67	169	1
152	152	4
26	39	7
119	119	13
102	105	3
12	12	5
25	25	2
93	128	6
111	111	7
187	187	7
163	165	1
76	79	2
41	48	6
3	5	2
90	134	1
176	183	1
146	147	3
7	7	7
34	35	4
104	104	8
46	46	6
59	63	1
85	85	4
30	30	4
176	189	5
174	174	5
136	136	2
32	32	6
155	178	4
44	44	7
156	171	1
38	38	2
96	139	2
116	116	5
187	189	2
107	108	4
99	144	4
113	126	2
99	148	1
39	39	3
163	169	2
121	121	1
159	160	5
92	93	2
79	80	2
27	27	4
6	7	1
110	110	6
86	88	2
55	137	5
172	172	4
134	134	5
76	76	9
120	120	1
184	184	2
160	172	3
91	91	2
171	171	4
55	55	2
150	150	2
0	152	7
7	8	2
163	163	3
23	26	1
93	130	3
73	153	1
97	150	3
141	148	2
169	170	1
43	43	3
55	72	2
52	133	2
162	163	2
77	77	3
4	11	1
9	129	1
164	164	3
154	155	2
5	8	7
27	30	4
81	150	2
39	41	1
55	131	1
182	182	3
32	33	4
186	188	2
57	57	4
69	69	3
163	164	2
67	168	3
23	23	3
165	168	3
93	93	5
102	102	5
165	165	3
135	136	3
91	150	2
46	47	2
68	153	1
114	114	5
82	123	1
175	179	1
118	137	1
55	84	1
95	111	1
68	68	1
170	170	1
57	84	1
65	65	5
10	10	2
186	186	2
101	136	5
44	121	1
58	59	3
137	137	3
36	36	4
37	48	3
140	140	5
149	150	2
100	167	3
30	31	3
90	91	1
67	68	1
103	105	1
13	15	1
107	107	3
53	65	1
54	62	2
155	176	1
14	14	4
171	181	2
53	53	4
9	9	2
143	143	1
147	150	2
64	64	3
6	6	1
42	43	2
147	147	1
117	130	4
70	71	3
22	22	4
142	142	2
152	189	1
173	173	4
126	129	3
188	188	6
155	166	2
179	179	4
185	190	1
21	21	2
139	151	4
74	74	3
130	130	1
54	72	1
153	154	1
64	65	1
161	164	2
143	148	2
100	101	2
15	87	2
145	145	1
33	33	1
76	148	1
73	73	1
14	114	2
10	115	2
104	144	2
129	129	1
106	145	3
183	184	3
26	26	2
60	60	3
100	189	1
106	144	1
78	82	3
168	169	1
94	115	2
55	118	1
87	87	1
108	109	2
112	122	3
94	118	1
183	183	3
177	186	1
52	72	1
3	125	1
59	72	2
52	52	1
95	124	2
148	148	3
96	98	1
74	80	1
45	46	1
37	37	3
47	48	3
15	16	1
20	20	1
72	72	1
100	140	1
91	96	1
181	181	2
71	71	1
172	174	1
79	79	2
140	189	2
146	176	2
10	11	2
65	167	1
2	2	2
26	27	2
102	108	3
77	153	2
60	132	1
105	105	1
165	170	1
47	47	2
130	132	2
55	89	2
189	189	1
125	125	1
89	89	1
70	176	1
127	127	1
166	167	1
53	72	1
159	177	1
13	126	1
166	166	1
100	100	1
48	48	1
167	173	1
33	35	1
17	22	1
97	135	1
59	64	1
103	103	1
74	146	1
13	89	2
14	88	1
113	119	1
175	175	1
128	128	1
70	149	1
177	188	1
132	132	1
106	106	1
108	108	1
6	8	1
118	130	1
11	119	1
93	94	1
23	27	2
98	98	1
86	86	1
18	19	1
75	146	1
55	56	1
63	63	1
17	17	1
