58	60	5
35	37	6
77	77	2
45	46	1
129	129	8
108	112	1
2	2	5
9	10	2
11	12	4
8	8	4
82	91	1
110	113	3
58	63	3
118	133	1
33	35	2
106	107	3
111	113	7
16	17	1
79	84	1
17	17	5
108	108	2
105	105	3
0	0	5
95	95	3
90	116	3
37	37	2
24	26	4
85	85	3
89	89	2
83	100	2
53	53	4
6	15	3
64	71	3
124	125	2
71	84	2
29	35	1
121	121	1
81	97	2
43	43	2
117	119	2
22	24	2
64	76	1
69	69	5
7	21	3
96	97	1
98	100	3
88	97	1
34	34	3
89	90	2
69	72	1
4	15	3
10	12	2
30	30	2
35	36	2
21	79	1
29	33	1
36	38	2
71	73	4
32	33	1
5	5	2
22	69	3
12	12	2
72	72	4
2	77	1
75	83	1
112	117	2
5	7	4
68	68	1
9	11	4
131	131	5
52	65	3
113	113	3
68	71	2
115	115	3
117	117	1
56	60	3
113	114	1
63	67	1
31	35	1
66	67	9
43	47	2
31	31	1
109	109	2
118	134	1
18	30	5
28	28	3
103	106	3
44	44	5
23	25	1
114	124	2
31	32	2
102	115	1
63	63	2
20	21	3
98	116	1
70	71	1
110	118	1
126	126	5
50	50	5
55	55	2
50	56	2
89	92	8
3	4	4
73	76	2
91	112	4
108	109	2
95	102	1
100	101	2
21	21	4
66	70	2
17	21	2
114	115	3
117	122	1
67	80	1
53	62	2
30	63	2
12	16	2
87	87	2
118	120	2
83	84	2
91	91	4
68	72	3
16	16	3
10	23	1
54	54	1
61	62	2
107	107	6
50	53	6
7	7	3
129	130	2
9	9	3
121	132	3
10	10	3
100	104	3
13	14	1
57	72	1
42	42	1
58	58	3
88	88	1
72	73	4
3	3	3
66	66	2
51	60	1
87	91	3
16	21	1
113	121	2
7	79	1
91	99	3
61	68	2
74	92	3
84	86	2
7	20	2
4	16	1
29	36	2
71	71	1
78	98	1
27	74	1
68	74	1
105	107	1
52	63	1
104	119	1
118	119	1
70	82	4
121	122	3
104	105	2
93	95	2
76	76	2
16	26	1
87	88	1
97	106	1
103	119	1
62	62	5
114	122	1
19	21	2
13	21	2
43	44	3
45	45	2
119	135	2
32	36	1
117	132	1
58	62	5
1	1	2
103	103	1
111	114	1
86	86	2
123	123	4
59	59	2
87	89	1
121	134	2
116	116	4
108	113	1
106	106	3
1	2	3
31	34	2
18	95	1
69	73	2
57	59	1
96	96	2
94	105	2
64	66	4
6	20	2
33	33	2
98	113	1
15	19	2
0	5	1
119	119	1
53	54	1
56	62	2
65	65	2
112	112	1
57	61	2
12	27	1
23	31	1
61	72	1
62	64	1
83	93	1
90	90	1
97	104	1
14	14	2
56	56	1
73	90	1
21	22	1
59	60	1
11	17	1
102	104	2
69	70	3
112	118	1
93	94	1
118	118	1
87	101	1
5	6	2
132	133	2
70	84	1
18	20	1
25	26	3
11	16	1
27	92	2
85	86	2
102	108	2
106	119	2
114	114	1
94	109	1
18	19	2
122	127	1
79	90	1
60	63	1
52	62	1
102	102	5
70	70	1
78	84	2
72	74	1
14	18	1
105	115	2
130	130	2
25	25	2
99	108	1
27	27	3
0	7	2
9	16	1
28	36	1
20	20	1
123	134	3
107	118	1
5	21	2
49	54	2
69	74	1
102	107	1
66	78	2
104	108	1
64	69	1
124	124	2
62	71	1
119	122	1
120	120	1
129	131	1
113	117	1
30	90	1
61	63	1
80	81	1
89	96	1
94	96	1
2	5	1
74	82	1
14	17	1
49	50	1
21	34	1
91	96	2
29	31	1
80	86	1
34	35	1
29	38	1
82	84	1
11	27	1
77	78	1
79	113	1
130	132	1
106	129	1
24	24	1
13	13	1
52	56	1
114	131	1
134	134	2
62	66	1
26	27	1
61	61	2
88	100	1
5	9	1
79	79	1
100	100	1
23	27	1
91	95	1
114	125	1
9	27	2
19	28	1
67	77	1
32	32	1
26	30	1
4	4	1
35	38	1
38	38	1
90	106	1
7	11	1
1	4	1
10	18	1
112	126	1
110	117	2
117	133	1
57	62	1
13	24	1
48	59	1
85	88	1
111	127	1
9	13	1
78	89	1
81	84	1
84	87	1
30	39	1
84	84	1
28	32	1
122	122	1
77	89	1
84	92	1
105	106	1
70	77	1
8	20	1
