98	98	19
103	103	12
41	45	2
81	87	3
30	30	9
49	49	17
29	29	10
24	48	3
33	33	13
21	21	8
108	108	20
72	91	4
79	79	17
45	45	38
110	110	5
64	64	9
41	42	7
54	55	4
85	85	6
28	28	8
40	67	2
63	63	11
42	42	17
86	86	10
96	98	5
79	88	2
51	52	4
22	29	1
25	25	15
89	101	2
47	47	8
30	77	1
60	76	5
43	43	9
27	42	4
62	66	3
34	34	10
80	80	5
21	22	1
51	51	8
53	53	16
76	77	5
82	82	11
62	63	4
62	75	3
99	99	17
56	57	5
22	22	10
72	72	17
104	104	4
66	66	3
44	44	12
76	78	4
42	51	2
96	97	8
30	31	14
60	60	5
75	75	14
59	60	1
39	66	1
113	113	10
79	82	1
40	40	4
106	107	3
68	68	14
57	57	13
26	26	6
31	31	7
30	55	4
111	111	10
114	114	4
30	54	2
59	59	15
48	48	9
69	69	10
65	65	4
41	60	5
35	40	2
20	21	4
89	89	9
36	36	7
107	108	7
20	20	4
27	55	1
47	49	3
104	107	6
33	34	6
37	37	6
37	109	2
88	88	9
43	46	3
73	73	7
66	67	1
43	60	1
91	92	3
82	83	8
96	96	12
86	89	5
19	20	4
28	29	6
40	72	2
71	71	9
89	91	1
85	86	3
62	62	3
67	67	6
64	66	3
97	97	7
47	111	1
102	102	11
24	99	5
69	70	5
26	44	3
90	90	5
59	84	1
42	69	2
68	69	2
88	93	2
58	59	5
94	109	1
101	101	2
81	81	10
84	85	3
74	74	4
107	109	1
41	41	6
70	81	6
27	31	1
58	58	14
100	101	2
46	47	2
62	64	4
24	24	5
105	108	12
65	66	1
27	29	2
78	78	10
27	48	3
87	89	3
112	113	3
23	42	1
106	106	10
73	74	5
42	53	1
26	28	3
112	112	12
102	111	2
60	83	1
96	99	3
68	70	4
41	51	2
27	54	3
84	84	6
93	93	9
79	81	1
101	109	4
87	87	13
94	95	3
90	91	2
27	27	7
90	92	1
104	110	3
22	24	1
105	105	2
74	75	4
32	32	12
63	66	5
37	86	1
50	50	6
21	113	1
50	51	3
40	68	2
39	39	7
19	19	3
57	58	1
45	50	2
42	80	3
69	82	1
77	77	3
48	57	1
41	53	3
62	65	2
94	97	2
109	109	4
82	109	2
104	105	6
32	33	2
83	83	7
48	49	2
20	100	1
23	23	2
100	107	1
109	113	2
71	72	2
95	95	3
43	44	3
46	46	10
55	55	1
83	110	3
110	113	5
53	111	3
61	63	1
91	91	3
37	53	2
47	56	2
53	60	1
36	37	4
94	94	5
75	76	2
38	39	4
58	60	2
25	98	1
46	70	1
53	56	2
103	108	1
25	26	6
59	79	3
26	42	3
104	109	3
78	84	1
76	76	3
71	73	2
30	37	1
100	100	6
39	73	1
71	80	1
49	52	2
83	84	1
95	96	2
103	107	1
20	25	1
39	76	2
65	67	1
39	40	2
78	79	2
55	69	1
87	109	1
109	110	5
37	59	1
63	65	1
25	65	3
30	36	1
37	48	1
68	105	1
34	48	1
97	110	1
27	96	1
37	38	2
77	78	2
56	56	3
47	48	6
23	24	1
61	61	4
40	41	4
33	35	1
54	54	6
53	79	2
28	63	2
35	35	5
56	58	4
44	45	4
36	62	4
31	32	2
86	87	3
107	107	3
59	61	1
54	61	2
101	111	2
19	62	3
98	99	3
34	35	1
57	61	1
19	69	1
87	95	1
103	110	2
88	89	2
41	49	1
102	103	2
27	28	1
86	88	1
93	94	1
38	38	2
89	100	1
41	87	1
75	89	1
36	60	1
70	70	1
55	57	1
49	50	3
20	22	1
69	76	1
57	70	2
34	78	1
61	62	1
92	93	2
60	61	1
49	51	1
114	115	1
52	52	1
52	100	1
32	54	3
24	42	1
65	69	1
115	115	1
106	109	1
69	71	1
53	58	1
44	46	2
55	59	1
74	77	1
27	64	1
22	23	1
80	83	1
42	45	1
