8	9	1
222	223	2
202	202	1
45	45	3
150	150	7
77	77	5
23	23	11
75	75	8
194	195	4
9	9	2
66	66	13
157	170	1
167	167	5
110	205	2
179	185	1
204	227	4
113	113	4
53	120	5
156	157	6
20	20	5
118	119	1
103	103	6
147	147	3
46	46	5
31	31	3
21	22	3
62	63	3
61	61	4
151	151	8
120	145	5
19	19	3
56	223	2
11	11	5
54	54	10
157	157	13
199	207	2
236	237	5
48	50	5
92	92	8
90	90	2
154	156	2
50	50	1
221	221	12
171	171	9
12	12	6
88	89	5
203	204	2
52	52	4
34	34	2
180	180	6
214	215	2
226	226	3
27	27	9
244	244	7
27	85	6
56	56	3
178	178	6
181	181	9
156	156	7
54	62	2
38	38	5
49	49	1
100	203	1
92	93	3
213	213	6
163	163	2
120	120	2
7	7	5
64	64	6
44	44	5
32	32	7
231	232	5
57	57	4
188	188	4
22	150	5
192	201	2
33	33	2
233	234	3
221	222	2
81	82	4
93	93	5
109	109	4
185	192	1
243	247	2
100	100	8
192	192	4
31	33	2
103	243	5
111	111	5
70	74	7
70	70	5
184	184	2
246	246	5
231	233	1
72	77	1
18	22	1
69	69	2
116	116	1
230	235	4
106	106	3
224	226	6
240	240	2
201	201	7
31	32	4
55	55	8
89	89	2
238	241	2
17	17	1
28	28	2
17	101	4
24	26	1
207	231	2
154	154	4
228	229	8
157	158	6
199	200	1
217	237	2
51	87	3
227	227	10
91	91	5
95	95	11
217	217	3
71	74	3
58	58	7
63	63	1
51	67	2
24	24	8
29	29	3
203	203	6
205	226	1
183	183	6
93	94	2
56	107	3
71	75	3
55	56	2
14	15	1
93	160	2
187	187	1
18	18	8
102	247	4
24	25	1
83	83	2
217	221	2
76	80	3
241	241	5
22	23	1
229	229	4
153	154	1
96	96	3
225	225	2
116	117	4
163	164	4
218	218	2
101	102	1
200	200	5
220	220	10
81	81	9
223	232	5
10	10	6
14	14	1
82	82	3
164	165	4
41	45	3
161	161	3
173	231	2
41	41	4
184	194	3
27	46	1
220	234	2
17	18	2
212	227	6
34	35	3
78	85	1
78	78	2
51	62	2
39	40	1
40	40	7
189	189	1
175	177	4
85	85	4
22	22	11
194	194	2
8	8	1
92	95	3
246	247	1
51	52	1
21	21	4
106	107	1
182	183	3
207	212	3
150	151	1
235	236	2
110	110	4
48	48	3
65	65	12
204	204	4
236	236	2
62	62	2
112	112	4
29	32	2
238	240	2
113	115	5
179	179	2
215	215	8
86	86	3
23	24	4
192	194	2
88	88	2
114	115	3
155	156	1
114	114	1
164	164	4
42	42	3
159	159	2
16	16	4
229	230	2
209	209	1
90	110	4
242	249	1
1	1	2
4	4	2
206	212	3
95	117	2
197	212	1
26	26	4
15	15	4
245	246	2
111	112	1
205	205	6
177	178	2
37	37	6
50	87	1
40	46	2
36	108	2
222	222	6
25	26	1
237	237	1
95	96	2
170	170	1
73	75	3
232	232	2
160	160	1
36	40	2
209	211	2
4	5	6
115	115	4
175	201	1
48	243	3
112	157	3
171	172	1
206	224	1
68	68	1
213	226	2
225	226	2
224	229	5
0	0	2
93	226	1
178	179	3
48	49	6
190	191	2
159	169	2
247	247	1
239	239	4
206	206	2
48	65	2
108	108	1
2	3	1
153	153	3
115	116	1
212	212	2
115	170	2
54	55	1
35	36	1
155	155	4
229	236	2
74	74	1
231	231	1
39	47	3
6	7	1
154	155	1
164	168	2
165	168	1
28	29	2
200	201	4
197	197	2
35	35	3
71	72	2
158	158	1
218	245	3
248	248	1
238	239	1
56	108	1
29	38	1
5	5	2
9	10	1
184	192	1
57	108	1
6	6	2
187	189	2
47	47	2
55	108	3
174	174	2
75	76	2
15	20	1
108	109	1
79	80	2
109	205	1
212	213	2
11	12	1
210	210	1
104	104	1
97	98	2
234	235	1
204	205	2
39	41	1
109	110	1
63	109	1
77	78	1
241	242	1
53	53	2
71	71	1
36	36	1
40	154	1
40	41	2
30	31	1
7	9	2
165	165	1
53	54	1
51	51	1
25	25	1
43	44	1
145	151	1
39	39	1
20	21	1
13	13	1
243	244	1
213	215	1
103	203	1
206	228	1
61	62	1
31	36	2
88	90	1
180	181	1
211	211	2
26	27	1
245	245	1
193	195	1
26	29	1
182	184	1
84	84	1
113	114	1
181	184	1
76	79	1
99	99	1
87	88	1
90	93	1
45	46	1
43	43	1
176	176	1
162	162	1
