100	100	7
22	22	16
36	44	3
16	16	3
27	27	16
5	5	8
133	133	3
3	3	8
32	32	20
94	94	9
60	60	12
101	101	21
50	50	5
72	85	5
111	111	13
55	56	2
46	66	3
17	17	12
35	55	1
119	120	1
82	82	5
3	33	3
115	115	10
33	33	17
86	86	10
25	29	5
120	120	12
43	44	2
73	133	1
2	6	4
45	45	5
59	59	12
39	39	12
2	2	9
117	118	4
62	62	9
83	100	6
110	110	12
49	49	6
35	35	4
7	37	2
124	124	8
110	124	3
108	121	2
99	101	1
92	92	12
63	63	6
68	68	11
117	117	10
89	91	4
58	58	12
103	103	2
119	126	4
75	105	3
33	45	5
84	103	3
11	12	4
13	13	10
107	107	9
72	72	23
114	114	4
97	111	2
95	95	19
71	95	4
10	14	2
80	89	3
125	125	13
30	31	1
55	55	27
4	5	4
90	96	4
42	43	4
64	64	5
119	119	16
127	127	17
31	31	9
19	19	3
40	40	6
81	83	7
87	87	16
74	74	7
113	114	9
18	18	22
75	75	8
30	30	14
56	56	9
109	109	7
113	113	4
129	129	19
22	26	5
132	134	6
96	96	3
78	79	3
80	80	6
12	12	5
99	116	2
120	121	3
46	126	1
21	21	6
78	80	8
26	26	8
105	105	7
72	80	3
123	123	9
102	106	7
88	88	4
79	79	14
128	131	3
103	104	6
70	70	7
99	112	5
88	91	6
74	128	4
123	124	4
118	118	4
76	76	9
126	126	12
40	41	7
70	71	3
131	132	7
36	40	8
8	26	3
31	40	2
25	25	4
65	65	11
24	24	3
14	14	9
73	73	4
7	21	2
128	134	3
87	102	3
6	10	1
132	132	7
130	132	4
58	77	2
89	89	8
71	72	2
11	11	17
26	27	2
97	97	6
98	100	6
91	91	7
131	131	7
90	90	12
56	58	5
6	6	7
36	36	11
47	66	5
0	0	9
45	61	2
82	83	1
8	8	10
57	58	5
58	66	1
90	120	1
56	65	1
8	30	5
124	125	2
71	71	4
34	38	2
10	10	7
88	122	6
102	102	4
127	128	3
89	92	1
100	112	5
37	38	2
23	24	2
78	89	1
1	14	1
85	116	2
98	99	1
35	40	3
15	16	4
89	99	4
64	68	2
130	130	9
84	86	1
57	57	4
37	37	6
62	100	3
42	42	6
38	40	2
118	127	1
99	99	9
39	65	1
104	104	6
1	1	6
61	61	9
38	38	1
96	119	4
85	86	1
28	28	9
43	43	9
92	111	4
93	93	5
112	124	1
27	28	8
69	71	1
54	54	4
102	104	2
31	47	2
67	67	6
101	102	3
112	112	8
121	121	5
75	79	3
105	114	3
122	122	5
13	15	1
57	62	2
59	82	3
46	46	9
85	85	4
62	72	4
64	84	1
3	8	3
134	134	2
63	66	5
79	89	2
75	106	1
113	130	2
34	34	5
91	95	2
62	86	1
74	117	3
35	37	1
39	48	2
97	98	1
108	108	4
59	86	5
23	23	3
128	128	2
104	113	1
111	112	1
2	125	2
72	75	1
60	62	2
7	46	2
87	121	1
107	108	7
112	113	3
41	41	1
35	36	5
48	48	2
122	123	2
72	73	2
12	13	1
58	63	2
96	110	1
45	120	6
65	68	2
61	93	2
13	14	3
6	30	1
44	44	4
42	78	2
116	116	6
34	50	2
106	106	1
5	6	1
110	116	3
34	45	3
112	125	2
22	28	2
62	67	2
88	99	1
7	8	3
50	55	5
101	104	1
82	98	3
28	44	2
114	126	2
3	123	4
20	20	2
47	47	9
15	15	5
98	98	2
41	80	2
104	105	3
81	81	1
37	78	3
31	32	2
133	134	1
18	47	2
68	126	1
115	134	3
19	62	3
32	33	3
111	113	1
58	64	1
26	37	1
36	37	2
62	130	1
77	77	3
94	112	1
10	12	1
30	46	3
37	44	2
20	57	1
63	68	1
73	75	2
19	20	1
88	106	1
74	75	2
126	127	2
39	41	1
23	45	1
131	133	2
5	7	2
116	119	3
28	29	1
24	45	1
25	28	1
65	95	2
29	29	5
116	117	1
76	77	3
112	117	1
91	109	1
37	43	1
34	35	2
109	110	1
29	48	1
86	121	1
59	77	2
75	76	1
17	18	2
17	36	3
64	67	1
20	21	3
57	63	1
95	96	2
83	83	6
54	81	1
114	115	2
94	99	1
10	16	2
11	14	2
40	49	2
48	56	1
4	4	1
72	84	1
78	78	2
90	91	1
108	120	1
128	132	1
30	40	1
46	47	1
23	25	1
22	25	1
45	66	3
1	6	1
68	72	1
75	126	1
61	63	1
51	51	1
61	62	2
10	11	1
92	93	1
108	111	1
63	129	1
118	132	1
6	9	1
128	129	1
22	23	1
7	66	1
84	84	1
23	60	1
120	125	2
45	74	1
54	68	1
84	87	2
57	77	1
60	61	1
81	82	2
102	113	2
4	123	1
49	50	1
25	46	1
28	43	1
91	108	1
38	46	1
21	48	1
69	69	1
48	49	1
