139	139	16
89	90	4
48	48	6
132	136	1
39	52	4
121	121	10
39	51	1
116	116	10
33	33	18
143	143	6
36	36	12
116	123	2
66	67	7
155	155	6
30	30	10
98	98	9
122	123	1
101	101	4
28	28	10
121	122	2
125	125	6
87	87	10
51	52	9
46	46	10
92	92	5
19	54	2
137	137	7
124	125	8
12	13	9
22	22	9
89	89	9
128	128	5
95	96	2
67	67	3
14	15	3
81	81	6
108	108	2
70	70	10
114	114	8
107	107	9
99	99	6
82	82	11
140	140	12
24	25	1
123	125	3
52	53	6
71	94	2
108	109	2
31	32	4
130	130	11
141	141	14
142	142	5
23	24	2
127	128	1
25	25	18
11	11	5
106	106	3
83	83	9
157	157	2
50	50	9
103	103	1
151	151	15
25	26	6
154	154	4
90	90	3
103	105	2
131	131	8
132	133	3
23	23	13
35	35	2
105	121	1
86	86	3
66	66	9
128	129	8
100	100	12
42	42	3
17	17	3
105	105	14
24	24	8
7	7	7
150	150	12
4	4	13
67	91	3
14	14	3
27	27	5
132	134	2
158	158	9
102	102	7
18	19	3
148	150	3
110	111	3
11	12	5
40	40	6
148	148	8
76	76	1
124	124	6
104	104	8
3	3	6
5	6	2
74	74	4
17	18	5
29	29	7
119	120	1
93	93	14
113	113	5
80	80	1
127	127	3
96	96	8
87	88	3
65	65	4
40	41	8
34	35	2
94	94	4
72	72	10
133	145	2
149	149	6
126	127	1
52	52	8
48	51	1
112	112	11
12	12	4
75	76	2
28	29	7
149	150	3
64	64	1
120	121	7
16	16	8
118	122	2
78	78	11
6	6	6
69	70	6
115	116	4
117	122	2
19	19	3
73	73	7
80	95	2
95	95	7
75	75	2
111	113	2
23	32	2
69	69	5
5	5	6
100	159	2
156	156	2
128	138	3
39	40	4
97	97	7
139	140	2
122	122	6
154	156	1
104	106	5
120	120	3
67	68	4
147	147	2
8	9	2
134	137	5
146	146	1
31	31	12
39	39	8
2	2	6
26	26	6
38	40	4
145	145	1
69	73	3
152	152	8
79	80	1
10	10	3
129	129	1
153	153	1
5	30	2
7	23	2
136	137	2
115	124	2
85	85	1
88	89	1
99	100	4
154	155	4
56	56	2
14	158	2
134	134	3
144	144	4
117	118	4
26	27	4
137	138	2
79	79	5
134	145	2
80	82	1
133	133	4
71	71	8
148	149	1
125	131	1
27	28	2
117	117	6
45	46	2
119	122	2
36	54	3
34	34	1
4	6	1
138	138	6
22	24	3
83	85	3
13	13	2
49	50	1
37	37	3
47	47	5
104	105	4
15	31	1
1	1	4
77	78	4
114	115	3
18	18	1
134	136	1
32	33	1
21	21	2
135	135	3
77	77	4
39	53	3
51	51	4
86	87	2
38	38	3
142	143	1
7	8	3
80	89	3
5	12	2
68	92	1
141	142	1
43	43	1
110	110	4
115	122	1
22	37	3
44	44	4
30	151	1
105	106	1
118	118	1
68	68	3
153	154	1
21	22	2
90	91	1
91	91	5
116	122	1
65	66	3
113	115	1
112	113	1
105	107	2
17	35	3
137	139	1
0	0	1
81	82	1
102	103	1
110	122	1
84	88	1
53	64	1
20	20	3
115	115	2
45	91	2
135	136	1
114	123	1
48	49	1
111	111	3
132	132	4
50	51	1
8	8	3
103	158	1
45	45	3
29	30	1
1	2	2
79	87	1
109	109	1
113	148	1
131	132	1
88	88	3
116	117	1
83	84	1
45	64	1
21	37	1
109	156	1
106	107	1
125	127	1
151	152	1
129	130	1
68	69	2
106	120	1
79	89	1
119	119	1
111	112	1
44	47	1
54	54	1
125	137	1
37	54	1
112	153	1
126	126	1
94	95	1
63	63	1
96	97	1
64	65	1
7	10	1
127	137	1
