16	16	5
43	43	8
95	95	6
137	137	6
118	132	3
165	166	7
35	35	11
150	151	5
108	110	3
124	135	4
42	81	3
42	45	4
62	62	3
76	76	16
51	60	3
92	102	2
170	173	3
140	140	13
66	67	5
159	159	3
145	145	9
116	157	4
72	72	3
59	59	8
43	44	5
89	89	10
4	4	8
92	92	3
50	51	1
93	93	4
26	29	1
79	138	3
91	91	9
113	115	2
73	155	2
0	1	2
54	54	9
68	68	3
60	61	3
175	176	5
81	82	3
37	37	8
6	6	8
41	41	17
168	169	4
105	150	2
71	71	16
141	141	10
151	151	6
153	153	7
13	13	5
7	7	3
119	119	14
177	177	3
44	45	3
25	25	11
5	71	2
35	36	6
133	135	4
97	101	4
3	3	6
17	17	11
121	127	2
111	112	1
79	79	2
55	56	3
175	175	9
112	114	3
100	100	8
118	121	5
98	99	2
66	73	3
132	133	1
80	80	1
11	11	2
82	82	4
162	163	4
172	172	5
7	12	3
65	65	7
17	18	2
71	74	1
116	125	6
135	135	12
133	134	2
112	112	6
150	150	3
138	147	1
101	101	4
154	154	6
165	165	4
100	101	4
1	1	6
179	179	1
96	96	6
57	57	5
73	73	5
32	33	9
27	27	5
81	155	1
49	49	4
91	104	1
124	124	8
73	75	3
110	154	3
130	130	6
159	161	2
54	60	2
64	111	1
157	157	2
8	8	19
2	3	3
153	154	3
122	122	2
9	9	4
44	44	8
10	10	5
86	86	2
94	95	1
169	169	2
161	161	8
96	125	3
86	87	3
67	67	9
75	75	4
30	45	2
176	177	1
139	139	9
10	43	4
152	161	3
14	14	11
94	96	1
164	164	3
146	174	2
0	3	3
107	107	2
45	45	3
15	15	3
90	143	4
87	88	1
74	75	12
98	110	2
145	146	5
32	32	5
9	10	2
0	0	1
133	150	1
171	171	5
142	143	2
148	150	3
39	39	9
127	127	1
144	146	6
24	24	7
107	108	1
93	94	7
94	94	4
167	167	6
133	149	2
102	105	3
52	52	5
134	134	4
98	98	2
40	40	2
85	85	1
180	180	7
33	43	3
114	131	2
79	80	2
51	51	4
15	40	1
15	35	1
59	61	4
156	157	1
120	120	2
0	36	1
102	107	4
84	85	5
50	109	5
121	121	7
115	115	5
131	131	1
118	119	3
106	107	4
10	13	1
66	66	5
31	31	6
172	173	4
11	13	2
142	142	2
132	132	5
162	162	6
114	118	1
176	176	4
33	33	2
53	53	10
56	56	6
85	154	1
136	136	7
5	5	3
62	63	2
26	27	5
166	166	1
36	36	5
10	11	3
30	52	1
61	61	2
84	100	2
95	163	5
108	108	1
148	148	7
37	41	3
53	54	3
139	148	1
120	121	3
42	42	1
67	68	6
161	170	2
112	113	1
116	116	3
138	139	3
127	128	1
170	170	1
29	29	6
16	17	4
54	59	1
89	90	1
90	92	3
28	28	3
38	38	1
102	103	1
110	110	3
147	147	4
50	52	3
106	106	4
100	112	1
64	108	1
109	109	4
50	50	4
26	30	1
141	145	1
168	168	3
141	162	1
173	173	3
133	133	4
145	169	2
125	126	2
111	111	1
144	147	1
81	81	3
138	138	5
148	175	2
74	74	4
5	6	1
171	172	2
56	58	3
24	25	1
45	107	2
122	125	1
129	131	3
7	81	1
105	105	3
85	98	2
117	117	6
151	159	3
136	137	1
102	102	2
174	174	2
129	129	3
34	34	4
80	81	2
149	150	2
58	58	2
80	97	2
45	101	3
149	174	1
8	11	3
115	116	3
42	43	1
117	118	2
118	118	1
76	104	3
88	89	2
51	53	2
108	109	3
68	71	2
77	149	1
29	64	4
107	150	1
167	168	1
164	165	1
123	124	1
14	15	2
77	82	1
13	14	1
143	143	2
155	155	1
149	149	3
76	77	2
85	100	1
60	60	2
38	40	2
164	166	2
158	159	1
121	122	1
76	106	1
74	133	1
26	75	1
126	127	4
96	97	1
31	32	2
113	113	1
22	33	1
20	20	1
12	12	1
90	90	1
40	41	1
66	113	1
140	141	1
78	78	1
146	148	1
30	30	1
9	13	1
77	78	1
173	177	1
64	64	1
52	109	1
124	133	1
111	113	1
148	149	1
166	167	1
121	128	1
