18	18	13
157	157	14
78	79	14
145	146	5
155	158	3
145	145	3
83	83	6
40	50	3
115	135	4
54	54	4
93	93	5
109	109	4
138	140	2
110	110	10
153	154	4
126	126	18
11	24	4
36	36	8
68	77	3
9	10	2
88	91	2
13	14	4
31	52	5
106	106	13
21	21	12
131	131	7
113	123	3
45	45	10
103	136	4
24	24	15
123	124	6
88	88	1
12	13	4
21	22	1
86	92	3
0	0	13
117	117	35
33	33	10
87	87	16
81	81	10
93	107	5
7	7	8
139	144	5
49	49	1
34	34	20
69	79	2
5	6	4
4	45	3
20	20	12
129	129	15
69	69	15
77	77	12
62	63	2
6	6	11
132	134	1
40	40	8
137	137	2
66	66	13
55	55	7
1	1	5
28	29	4
12	14	3
52	52	11
23	23	5
11	11	9
82	82	5
148	148	17
146	149	2
19	20	11
121	122	5
110	111	4
84	84	8
26	30	2
153	157	3
103	111	3
92	92	9
32	32	9
69	127	2
32	33	3
97	97	22
73	73	12
52	68	4
28	28	9
124	124	7
68	71	4
127	127	8
130	131	6
23	29	4
87	94	1
154	155	3
150	150	7
76	76	4
79	80	6
48	49	7
128	128	6
134	134	12
138	138	15
84	87	3
77	79	2
48	50	2
131	135	5
41	54	2
116	116	10
50	50	5
47	47	13
36	37	6
54	57	1
68	69	8
135	135	15
128	131	2
65	69	2
132	132	2
62	67	1
137	139	1
87	89	1
5	5	9
116	132	6
146	146	15
136	141	6
96	98	7
130	130	10
67	67	4
26	26	12
108	130	1
65	66	11
121	121	11
153	155	6
130	138	1
37	42	2
94	95	3
158	158	11
12	15	5
50	52	3
103	104	5
22	22	13
43	43	4
82	85	5
34	51	5
10	31	2
63	71	2
105	107	2
51	51	4
80	80	19
118	118	13
125	125	12
138	142	1
68	81	4
100	105	3
52	69	7
56	58	4
15	15	12
102	103	2
36	40	4
14	15	1
118	119	2
90	90	4
100	100	10
120	121	10
41	50	3
30	30	17
79	79	12
96	97	8
126	136	3
98	102	2
99	103	1
37	38	8
139	140	4
122	122	6
29	29	13
100	104	3
34	35	2
34	37	1
30	35	6
6	25	1
25	25	5
134	136	2
129	131	1
66	70	3
3	7	4
116	119	1
25	27	7
29	31	2
1	47	9
95	96	3
103	108	5
81	91	1
148	150	1
29	34	1
40	43	3
114	114	11
147	147	9
137	138	6
36	38	5
146	147	2
97	98	1
23	25	6
126	130	2
79	86	1
8	19	1
42	42	4
8	11	4
39	39	10
132	142	1
13	13	7
65	65	7
113	113	7
111	111	10
25	44	2
149	149	3
152	152	13
113	114	5
105	105	27
2	3	2
112	112	7
25	30	5
66	71	2
7	16	5
1	9	1
16	16	5
104	106	2
46	47	8
70	96	2
117	119	2
36	44	8
108	108	11
103	103	4
4	153	4
128	134	3
78	80	1
139	139	12
10	11	4
95	98	1
102	104	2
115	117	2
17	18	2
36	73	1
8	8	6
155	155	6
66	77	2
91	93	1
49	56	3
99	122	2
9	23	4
122	128	1
109	121	1
38	38	6
79	89	3
39	42	2
36	47	5
103	118	3
91	91	13
6	7	5
41	41	11
106	112	6
99	101	1
144	147	3
133	133	3
4	4	4
55	56	1
19	23	1
44	45	1
91	97	3
108	120	3
19	19	5
5	9	6
53	54	2
76	84	2
40	78	4
131	132	3
153	158	3
95	95	7
9	9	11
144	148	1
10	10	7
69	99	4
146	148	1
2	56	1
2	2	7
85	94	2
41	42	11
9	11	3
3	21	4
137	141	1
78	81	2
98	113	1
85	85	9
83	84	3
107	107	4
132	140	2
141	141	4
108	110	4
45	46	3
82	84	1
27	28	7
33	38	3
145	154	3
80	81	2
68	74	2
78	78	6
48	48	4
121	123	2
27	27	5
140	140	13
138	139	6
99	135	2
145	149	3
131	137	2
26	27	5
51	52	3
98	98	5
148	156	1
110	112	3
112	116	4
66	68	1
13	20	3
9	13	1
153	156	2
84	112	1
154	157	2
117	137	1
23	39	1
2	4	3
43	47	4
50	53	2
41	47	1
91	92	4
42	43	2
30	40	2
97	118	2
110	114	3
50	57	1
114	115	8
83	87	3
18	19	5
114	116	1
144	144	5
142	142	4
5	152	1
113	115	4
112	113	5
91	94	1
95	107	4
35	46	1
46	55	4
70	70	4
143	147	2
7	8	9
16	18	6
91	99	1
132	133	2
139	143	4
66	94	2
144	152	1
80	94	1
107	109	5
94	94	15
156	156	7
86	86	4
131	157	5
31	31	2
11	14	4
12	12	5
15	49	4
53	53	3
46	52	2
105	106	3
33	34	5
22	23	3
75	75	5
151	151	3
16	27	3
120	120	10
131	136	2
4	5	3
148	151	1
57	57	2
35	35	7
52	53	4
111	112	5
2	150	3
22	30	1
44	44	11
3	150	3
20	124	1
107	111	1
68	73	6
63	63	7
129	155	1
131	133	1
131	134	4
129	140	1
23	30	3
125	146	2
129	142	1
125	131	1
79	117	2
64	71	2
36	39	3
151	152	3
67	69	1
103	144	7
107	121	1
48	52	2
6	13	2
3	152	1
123	123	13
104	105	6
8	10	2
113	121	1
7	11	1
72	72	4
1	3	3
96	96	3
101	101	6
27	34	2
47	49	2
15	19	1
146	150	2
46	54	2
133	134	3
110	119	3
81	101	1
40	56	2
8	18	1
149	150	2
132	143	2
41	53	2
71	71	6
66	85	1
21	55	1
62	77	1
31	34	2
121	136	1
111	121	4
101	102	1
86	119	3
35	42	1
87	88	5
0	5	2
81	82	5
17	17	3
68	68	5
16	20	1
99	99	7
86	89	5
41	43	8
107	116	2
63	64	2
121	131	3
154	156	3
125	126	3
39	76	1
86	93	2
71	81	3
42	53	2
83	93	2
17	19	4
85	86	4
109	110	1
105	108	1
141	150	1
151	153	2
133	136	2
22	121	2
48	53	2
119	119	2
136	136	3
28	31	5
156	159	1
100	101	2
128	130	1
74	75	2
74	74	3
150	154	3
5	36	1
80	118	1
7	29	2
31	43	1
131	140	3
20	23	1
77	90	1
10	25	2
16	48	2
127	129	2
137	147	1
110	144	1
150	155	1
31	38	3
39	40	3
134	135	8
6	21	3
16	50	2
107	108	4
102	102	1
54	67	2
121	124	3
18	25	2
106	119	1
32	34	2
150	158	1
73	75	6
66	67	3
157	158	2
45	47	1
49	63	4
36	41	4
141	142	3
144	157	3
5	11	1
21	28	1
122	123	1
62	62	2
119	121	1
69	72	1
88	89	3
34	39	1
32	43	1
86	123	3
90	100	1
86	88	1
41	55	1
123	132	1
58	63	2
7	10	1
25	26	9
94	98	1
37	40	2
41	45	2
24	29	1
68	70	2
136	137	3
99	105	2
16	19	2
143	143	2
4	46	1
66	69	2
131	138	1
89	89	4
104	111	3
33	36	2
12	17	2
89	98	2
14	49	3
77	94	1
108	122	1
3	8	2
102	110	2
70	72	2
77	116	2
148	149	2
50	51	3
152	158	1
17	134	2
107	113	2
78	83	1
26	36	1
84	123	3
8	17	1
142	153	2
115	115	6
108	146	1
46	56	4
103	105	1
154	154	6
31	42	2
78	82	1
40	51	2
36	53	1
64	95	1
38	41	1
87	91	2
104	104	1
152	157	1
79	87	2
31	36	1
17	25	1
38	39	2
80	117	1
46	46	3
134	146	2
62	78	1
18	124	1
8	9	4
129	134	1
155	156	2
28	37	2
150	151	1
124	127	1
115	153	2
78	84	2
132	141	1
36	45	1
127	128	1
98	99	1
2	40	2
121	125	1
31	32	2
116	120	4
30	31	1
6	8	2
127	140	1
54	55	2
3	3	3
116	136	2
151	156	2
64	64	2
107	115	1
125	132	1
120	124	1
104	108	2
75	77	1
124	128	2
22	26	1
82	86	1
69	70	1
63	69	1
130	145	1
27	35	2
144	145	2
81	94	2
117	118	2
83	88	1
144	146	1
83	92	1
99	100	1
90	92	2
105	111	1
17	20	1
42	47	1
67	68	2
93	114	1
2	47	1
56	56	2
36	43	1
23	31	1
119	128	1
129	141	1
7	17	1
145	148	1
101	103	1
106	109	1
86	87	2
132	145	1
20	24	3
12	23	1
26	28	1
99	128	1
76	77	2
78	90	1
51	68	1
93	94	2
125	129	1
103	109	1
3	4	1
47	55	1
107	118	1
46	49	3
34	41	1
0	14	1
7	12	1
11	17	1
132	152	1
54	78	1
49	51	1
76	91	1
127	137	1
54	65	1
108	109	2
26	29	1
90	118	1
29	37	2
38	43	1
135	136	1
43	84	2
111	114	1
153	153	1
64	78	1
3	45	1
7	9	1
138	153	1
120	131	1
25	33	1
37	44	1
3	14	1
155	157	1
148	158	1
145	147	2
42	44	1
29	39	1
8	14	1
134	137	1
20	47	2
135	142	2
116	117	1
108	147	1
88	92	1
18	20	1
92	93	1
71	79	1
4	43	1
116	121	1
84	118	1
41	49	1
