154	205	1
11	11	8
18	20	4
95	95	5
28	28	4
51	52	3
237	242	4
20	21	4
88	88	10
93	94	5
87	103	4
232	232	10
81	81	4
93	93	2
145	145	3
53	63	4
225	225	12
113	113	1
92	93	4
116	116	4
175	177	1
8	45	3
231	231	2
218	234	2
1	2	6
63	63	13
187	188	2
6	35	2
84	85	4
248	249	1
20	24	3
17	17	5
42	100	3
75	75	5
57	58	3
216	217	4
61	61	3
33	33	3
210	210	6
67	70	1
36	36	2
211	211	3
119	119	2
245	245	6
230	230	9
204	204	9
49	50	4
30	30	2
6	14	1
96	96	6
166	166	3
72	72	6
187	187	2
59	212	2
182	182	4
29	29	2
63	109	1
8	10	5
87	87	3
41	42	2
240	240	5
26	39	2
201	201	3
74	75	3
224	224	5
55	57	2
221	222	4
175	175	7
51	51	6
193	193	1
241	241	9
202	202	2
99	116	5
27	27	6
82	82	4
23	23	2
183	183	5
181	211	3
112	157	1
223	223	3
6	38	1
111	111	2
91	91	3
120	120	3
236	236	6
53	53	1
220	220	1
48	109	2
67	72	2
168	169	3
22	22	5
205	205	6
59	59	2
54	54	3
199	199	4
245	246	1
35	36	3
177	177	4
233	233	8
172	172	2
212	212	3
62	62	4
21	21	3
118	118	3
112	112	10
153	154	2
42	64	3
85	85	4
89	89	5
159	197	2
218	218	1
225	226	4
189	189	1
160	160	1
162	162	1
244	244	3
36	38	3
154	154	2
80	93	2
43	43	2
89	193	3
6	6	5
86	106	1
153	153	5
144	144	3
23	28	1
117	119	4
10	10	3
117	117	7
213	213	3
168	168	1
97	97	2
172	195	2
37	37	3
182	183	7
45	46	3
188	188	4
7	35	4
181	210	3
15	15	3
24	25	3
109	109	1
69	70	7
4	4	4
179	179	1
121	245	1
227	227	6
203	203	1
176	176	1
68	70	4
216	216	4
44	44	2
159	159	1
16	16	6
197	197	4
247	247	4
56	56	3
243	243	3
217	217	4
156	156	5
114	119	2
192	192	2
14	14	5
83	83	1
155	156	1
52	52	5
84	84	2
57	181	3
100	100	4
26	26	4
47	78	6
107	107	5
70	70	3
147	227	1
35	35	3
186	186	3
43	112	2
20	20	2
154	155	3
50	94	3
28	29	2
213	214	3
40	40	2
29	30	3
170	170	1
71	72	4
12	12	1
225	227	5
69	69	5
24	27	2
77	77	1
59	245	1
24	26	2
26	54	2
55	61	3
159	161	1
43	44	2
92	92	2
173	174	1
114	114	1
60	61	3
230	234	5
16	36	1
180	214	1
228	228	1
102	103	1
52	94	1
176	177	3
152	208	2
56	181	1
159	236	1
238	238	2
197	235	1
45	45	5
95	96	2
246	247	4
50	50	3
86	109	2
111	112	1
19	51	4
235	235	3
189	190	1
52	81	4
163	163	4
184	184	4
237	237	2
99	100	2
164	164	1
181	181	3
221	221	2
203	204	1
244	246	1
167	167	2
15	16	2
55	55	4
12	35	2
242	242	2
17	18	1
150	151	1
165	165	1
205	243	2
226	226	3
222	222	1
239	239	2
68	68	1
44	45	3
7	7	1
179	184	4
52	53	1
47	66	2
5	5	1
31	31	4
40	110	2
177	246	3
40	41	1
179	193	1
118	119	1
30	31	1
58	61	1
7	8	1
41	41	1
236	244	1
65	65	1
48	48	2
79	79	1
94	94	3
153	181	1
145	148	2
6	37	1
105	107	1
115	116	1
247	249	1
68	69	1
76	77	2
84	93	1
46	46	2
9	10	1
156	157	2
180	180	1
7	46	1
151	151	1
97	98	2
19	20	1
44	67	1
83	84	1
146	228	1
25	26	1
103	103	1
59	246	1
176	215	1
155	155	1
115	120	1
150	150	1
47	47	1
