37	37	12
20	21	6
112	113	6
70	70	4
134	134	8
128	128	10
68	68	9
86	86	11
76	76	4
36	97	5
126	126	2
50	50	6
140	141	6
42	50	2
104	106	7
18	18	5
109	110	4
71	71	6
103	104	4
93	93	13
99	99	10
34	34	9
132	132	2
125	125	2
56	56	5
82	82	3
34	89	3
77	77	9
58	58	5
84	84	17
75	88	4
86	87	4
75	75	14
118	119	8
104	104	9
124	124	13
64	64	5
4	138	2
128	129	2
5	6	3
20	20	8
22	22	16
49	51	3
8	8	10
65	65	5
36	36	10
102	102	6
108	108	3
73	73	3
15	54	1
136	136	2
49	49	5
15	15	6
17	17	6
42	89	3
27	27	8
75	89	3
122	122	10
49	134	1
35	35	2
12	12	3
25	25	8
142	142	9
62	62	5
109	109	3
140	140	3
33	37	5
18	52	1
28	28	6
102	145	2
135	135	5
95	96	2
68	69	4
131	131	9
1	1	5
29	29	11
101	101	4
123	125	6
30	30	9
90	90	7
38	101	3
88	88	12
118	118	6
122	126	2
91	93	3
0	0	7
78	78	4
103	103	4
64	65	8
10	10	5
97	98	1
88	89	4
57	58	5
31	31	10
30	31	5
93	94	2
23	28	6
3	39	6
4	128	1
101	124	4
111	111	5
130	130	1
91	92	2
39	40	4
100	100	4
123	132	3
6	139	1
121	126	1
97	97	3
57	57	4
68	70	1
125	133	2
74	74	8
55	55	2
32	32	6
2	2	2
67	68	8
53	54	3
20	51	3
43	86	6
87	87	2
20	32	2
16	17	4
24	24	4
74	101	3
108	121	1
116	118	6
66	66	6
116	116	13
33	74	1
91	91	1
77	78	6
24	69	4
3	131	2
98	98	3
107	107	7
21	21	7
23	40	1
0	38	4
144	144	1
18	19	5
123	123	8
16	16	9
115	115	5
43	137	1
42	55	5
105	106	5
13	14	3
4	137	3
17	18	1
135	137	4
131	132	1
106	126	2
99	100	2
41	71	3
42	42	3
94	95	5
64	67	2
33	34	2
67	67	7
40	40	10
62	63	2
141	143	1
6	6	6
133	133	4
21	22	1
1	29	1
43	48	3
35	81	2
56	129	4
82	93	2
83	90	1
120	120	6
76	78	2
80	97	1
113	114	6
25	26	3
83	84	5
83	83	9
82	94	2
81	93	3
2	3	1
112	112	2
144	145	2
47	47	3
81	81	7
138	139	3
1	9	3
110	110	3
127	138	6
23	29	2
11	11	3
135	136	5
75	91	3
102	103	4
19	21	2
67	69	2
25	69	2
34	92	2
106	106	4
21	30	1
53	53	2
63	63	4
130	131	1
56	128	1
52	52	1
26	26	5
104	107	2
30	38	6
115	117	1
38	77	1
61	61	1
116	117	1
43	43	2
14	16	2
143	143	1
119	119	3
41	41	2
74	75	8
54	54	4
0	1	1
99	101	1
33	33	4
48	48	2
23	23	3
123	126	3
5	5	3
88	90	2
74	88	1
76	77	2
117	117	1
135	138	2
89	90	2
30	32	1
139	140	5
36	75	1
58	59	4
64	66	2
92	93	1
63	113	3
33	36	3
73	74	2
26	27	2
13	15	1
14	14	3
80	98	3
141	142	3
52	54	4
5	138	1
106	107	1
105	105	2
34	36	1
121	121	1
145	145	5
59	61	1
51	51	2
106	120	1
59	131	2
42	48	2
72	72	1
127	127	1
9	9	2
93	99	1
23	26	1
4	58	1
117	118	1
18	21	2
33	97	1
41	143	2
82	83	2
73	101	1
14	15	2
49	50	6
24	39	1
62	116	1
38	39	4
110	123	1
9	58	1
89	89	1
82	91	1
66	67	1
36	93	1
84	85	3
93	95	1
85	85	3
38	38	5
17	54	1
76	96	1
22	23	1
124	125	1
87	90	1
8	55	1
59	59	1
65	66	3
113	113	1
98	99	1
123	124	1
2	141	2
39	39	3
23	27	1
10	11	1
71	72	1
1	2	1
62	121	2
139	139	1
80	80	1
21	51	1
87	134	2
95	95	2
1	8	1
8	56	1
24	27	1
55	135	1
30	75	2
25	70	1
134	137	1
48	85	2
110	119	1
60	60	1
29	38	1
94	99	1
83	85	1
41	140	1
34	95	1
3	3	1
8	9	1
