182	182	8
167	168	6
194	196	5
79	79	3
15	18	2
29	29	6
58	58	3
127	184	2
106	106	4
188	188	12
179	180	2
67	67	6
55	56	5
70	70	7
47	47	3
8	9	4
180	180	7
189	189	6
157	158	5
20	20	3
136	136	4
115	115	3
83	84	6
52	151	1
54	54	6
114	114	10
107	107	3
187	188	4
26	26	15
113	146	1
40	40	20
118	118	3
25	25	6
72	72	5
1	7	3
113	113	4
65	65	8
109	109	3
175	176	2
124	124	5
18	19	2
22	22	4
9	10	2
111	112	5
34	35	4
105	105	5
24	24	1
77	78	5
154	154	7
196	197	2
99	100	3
132	135	2
46	46	6
0	0	1
117	117	3
12	66	1
69	69	2
62	62	2
152	152	3
39	40	2
72	73	2
151	151	4
95	95	3
34	34	12
175	175	3
15	16	5
66	66	4
23	28	3
99	158	1
108	108	2
31	31	1
34	41	1
160	169	2
167	167	4
60	60	9
100	100	7
162	162	4
124	125	2
14	14	2
94	94	4
15	79	3
19	19	1
47	151	1
66	68	2
135	135	3
45	45	4
122	185	4
32	32	6
44	48	3
195	195	4
126	126	3
84	84	8
134	134	3
123	124	1
21	21	2
86	88	2
43	43	5
127	128	1
49	51	2
147	147	4
61	61	2
103	105	2
74	74	12
35	35	5
122	123	3
156	156	2
106	107	1
117	121	3
104	104	5
21	22	3
13	13	4
53	53	5
164	164	4
93	136	3
150	150	5
66	67	5
36	36	10
146	146	1
74	75	1
190	190	4
166	166	4
139	139	1
159	159	6
96	96	1
41	41	7
127	127	7
9	9	3
42	42	6
137	174	2
17	18	2
179	179	1
3	3	2
169	169	5
76	76	3
52	52	1
87	147	4
133	133	6
172	173	3
138	138	3
192	192	1
105	106	3
85	149	2
132	132	5
23	24	2
71	72	1
35	36	3
8	8	2
64	65	1
40	41	2
57	57	4
172	172	7
17	79	2
134	135	1
67	68	4
100	101	4
131	131	1
6	9	4
27	27	7
11	12	3
33	33	1
10	11	4
6	6	2
103	104	2
107	136	1
73	74	2
145	145	3
28	29	1
98	98	3
183	183	6
132	133	1
64	64	4
196	196	2
99	99	1
194	194	4
161	161	7
158	158	3
110	111	2
3	4	1
193	193	1
78	78	5
139	140	1
121	122	4
102	102	2
140	142	1
80	81	1
37	37	6
4	4	2
25	26	1
185	186	2
18	88	1
15	15	2
184	185	1
32	33	3
127	159	4
88	88	3
75	77	2
111	111	2
182	184	3
63	189	2
38	38	1
51	51	2
137	137	4
128	142	1
13	14	8
65	66	2
143	143	4
2	147	2
69	70	2
19	20	7
164	180	1
125	125	2
113	122	1
10	10	3
18	18	6
151	152	2
111	113	1
71	71	5
28	28	4
123	123	6
94	95	3
47	64	4
101	101	6
129	129	2
88	89	3
116	116	3
4	5	2
88	149	1
95	179	1
55	55	1
126	127	3
38	39	1
16	16	2
170	170	2
83	83	4
103	161	1
47	58	2
121	186	1
97	97	2
81	81	4
2	2	3
73	73	3
107	137	1
42	43	2
122	122	6
50	51	2
181	181	4
48	48	2
110	174	1
12	12	3
11	11	3
141	152	1
107	108	4
87	87	1
160	163	2
59	60	2
184	184	4
54	56	1
24	30	1
86	87	1
18	39	2
83	85	1
154	155	4
25	29	1
186	186	2
5	115	1
138	178	2
103	103	1
63	79	3
140	171	1
49	49	3
68	68	1
86	86	1
76	78	1
194	195	1
120	120	2
107	109	1
144	145	5
2	3	2
140	140	1
168	168	1
82	83	1
17	17	3
109	111	1
191	191	2
64	66	1
83	86	3
162	163	1
59	61	2
125	185	1
143	152	2
0	114	2
23	30	1
137	138	1
149	149	2
129	177	2
112	113	2
10	67	1
4	148	1
122	124	1
153	153	2
50	50	1
80	82	2
143	145	2
185	185	2
128	128	2
47	48	1
176	176	1
84	88	2
173	176	1
122	154	1
169	170	1
193	194	2
65	69	1
163	163	1
0	1	1
75	78	1
0	109	1
127	157	1
133	134	1
130	130	1
165	165	1
56	56	1
102	103	1
187	187	1
70	77	1
131	132	1
163	164	1
51	73	1
