100	101	2
95	95	2
169	170	1
47	47	2
35	36	1
97	97	10
93	94	2
86	89	2
165	165	4
144	145	5
108	109	4
89	110	2
25	25	6
169	169	5
87	87	2
88	89	7
22	23	4
56	139	3
167	168	3
144	144	7
4	4	4
133	133	7
52	143	3
78	79	4
162	162	9
39	39	2
41	42	6
17	17	5
19	19	10
108	108	8
54	54	8
78	78	2
20	20	4
6	7	6
0	2	6
87	88	1
125	125	4
18	18	2
15	52	2
145	145	6
129	151	5
75	75	5
101	102	7
10	135	7
27	27	4
18	21	1
130	130	5
72	72	6
8	8	3
65	65	3
80	108	7
14	14	3
48	87	3
139	139	5
69	69	1
13	14	2
137	137	4
21	23	1
49	49	4
85	85	7
158	158	1
134	134	3
64	73	1
52	52	5
129	130	8
155	155	4
86	91	1
99	99	3
50	51	1
166	166	5
118	119	2
83	83	2
98	104	1
66	66	1
101	101	1
76	77	4
161	166	1
7	12	3
131	131	3
148	148	2
103	105	2
9	10	1
75	105	5
75	97	1
138	138	1
105	107	5
94	94	3
133	134	3
0	0	1
98	99	1
2	2	5
15	156	3
67	68	1
122	147	1
12	12	2
129	129	5
106	106	1
35	35	5
37	52	1
140	140	2
76	76	4
42	42	4
107	107	3
91	91	5
144	146	1
12	14	2
124	124	2
110	110	4
157	158	1
33	33	1
105	105	4
11	11	6
83	107	1
10	161	3
9	9	3
77	77	1
45	45	3
57	57	4
127	127	3
132	133	2
166	167	2
0	1	1
153	153	1
51	142	3
79	79	6
64	64	4
109	109	3
6	12	2
53	130	2
143	143	1
128	152	2
55	55	6
168	168	5
82	84	3
74	74	1
39	63	2
161	161	3
137	138	1
147	147	3
49	79	3
74	79	4
84	84	4
1	1	4
26	26	2
96	96	5
155	156	1
15	15	2
128	128	5
113	113	2
135	135	6
5	5	2
37	37	1
157	157	2
149	149	5
72	146	1
102	103	1
21	21	5
120	148	2
53	131	1
156	156	3
48	48	1
151	152	1
127	128	1
134	135	1
106	107	1
22	22	3
139	140	2
42	130	1
103	103	1
56	56	2
159	159	1
145	146	1
22	25	1
110	111	2
51	71	2
147	148	1
119	119	3
3	3	3
1	2	1
6	6	1
101	103	1
135	136	3
44	64	1
7	7	3
111	111	1
106	140	1
87	89	1
146	146	2
150	150	2
16	16	1
118	118	3
149	150	1
34	34	2
130	154	1
143	145	2
56	142	4
128	129	2
95	96	1
7	138	1
64	66	2
114	115	1
43	43	1
131	132	2
147	149	1
132	132	1
117	117	1
82	96	1
50	52	1
14	15	2
10	10	1
39	40	1
160	160	1
47	114	1
82	82	3
164	164	1
142	143	1
37	139	2
62	64	1
68	68	1
4	33	1
79	105	1
71	118	1
90	114	1
88	88	1
86	86	2
58	58	1
55	153	1
79	109	1
40	142	1
72	147	1
25	128	1
