61	96	2
29	32	6
105	105	14
87	87	6
61	61	28
83	84	6
70	70	6
95	95	9
89	90	5
23	50	1
22	26	2
72	73	5
56	56	5
65	102	1
59	60	9
54	55	4
26	93	1
38	39	6
62	102	2
69	71	4
88	88	25
47	48	4
90	90	7
30	44	2
69	69	16
54	54	5
67	79	1
43	45	6
29	29	4
79	79	14
92	92	7
45	45	9
91	92	3
44	45	3
102	102	5
46	46	3
35	35	12
52	68	3
67	68	3
82	93	8
89	89	14
54	88	7
66	67	6
100	101	7
52	52	14
68	68	12
67	86	2
85	91	4
38	38	10
43	44	2
64	64	5
80	80	16
53	68	3
21	21	11
78	91	5
31	37	2
28	28	2
73	73	6
59	59	8
48	50	1
32	32	11
69	70	4
75	75	7
65	95	6
22	27	1
50	74	8
85	85	10
98	98	14
74	74	10
24	24	5
41	41	3
39	39	9
85	86	6
83	83	9
67	90	2
96	96	21
30	30	13
55	55	13
37	37	13
78	80	7
22	23	5
97	97	7
106	106	4
48	49	2
51	51	10
27	47	3
101	101	12
27	65	3
62	83	3
76	76	11
41	42	3
20	20	5
47	47	10
55	88	3
31	31	11
51	52	2
90	91	3
93	93	4
40	42	3
63	63	7
100	100	10
82	82	3
71	71	3
65	65	12
26	26	5
40	40	4
71	72	4
33	33	16
43	43	9
99	99	14
79	91	3
103	103	4
57	57	1
76	105	2
58	58	7
86	87	11
23	23	5
58	88	3
56	57	2
66	66	19
30	94	1
86	86	4
80	84	4
105	106	1
62	62	14
40	41	5
74	76	2
101	102	7
97	99	3
94	94	11
34	45	3
80	81	3
79	80	5
78	78	7
79	90	3
76	77	3
58	59	5
53	54	4
29	30	3
58	60	2
100	102	4
99	100	5
42	43	9
39	42	2
74	78	3
63	64	6
65	92	3
44	44	2
48	73	6
82	83	7
35	40	1
45	46	1
22	22	5
50	50	5
107	107	1
72	74	3
72	72	5
32	34	4
98	99	10
86	88	2
26	92	2
48	48	9
78	79	8
93	94	3
84	84	7
29	45	2
53	56	4
53	53	8
52	53	2
60	60	9
32	33	3
35	36	3
97	101	3
70	77	1
73	74	3
27	57	4
77	77	3
37	39	2
34	34	5
21	93	3
104	104	5
47	49	3
91	91	11
27	27	4
60	61	5
88	89	3
53	57	1
69	90	2
78	81	4
79	84	2
71	75	1
33	34	2
62	64	2
68	92	5
103	104	1
71	92	2
53	67	3
24	93	2
33	36	4
49	51	2
34	48	1
28	47	3
49	49	5
26	28	1
73	76	3
94	98	2
22	56	2
31	45	1
104	105	1
89	91	1
25	25	7
79	81	2
62	85	3
63	83	1
106	107	2
29	31	1
81	81	2
57	67	3
40	45	2
26	27	3
28	46	2
75	77	1
27	28	2
69	92	4
87	88	3
40	44	1
63	86	1
67	67	3
42	42	3
77	81	1
50	73	1
61	62	1
96	97	2
94	103	2
23	24	1
69	78	2
58	61	3
22	24	2
25	49	1
92	93	1
94	104	1
29	33	1
