146	180	2
73	73	19
129	131	3
160	162	1
36	36	10
41	44	5
145	172	2
51	67	1
78	87	1
135	153	2
67	68	4
112	132	4
104	104	5
43	58	6
155	170	2
38	61	2
55	55	11
30	42	5
104	107	2
11	11	7
73	82	4
14	15	5
121	122	1
55	86	1
55	56	3
103	104	4
10	10	2
141	141	5
63	63	2
169	170	1
22	42	3
103	105	3
31	31	11
12	12	17
75	75	4
14	14	7
154	171	3
3	3	9
159	159	6
95	95	10
132	132	5
50	50	7
67	98	1
19	23	7
62	63	5
119	121	2
60	76	2
156	160	2
67	91	1
86	86	3
56	56	5
158	159	2
115	119	3
151	153	3
177	179	3
89	91	7
175	175	12
180	180	2
15	15	9
52	57	1
168	169	8
9	9	12
53	73	9
6	6	8
32	32	2
103	128	2
133	133	10
130	131	4
156	156	6
106	123	2
81	81	8
85	85	13
87	102	2
84	84	10
121	121	10
140	140	9
76	76	12
62	62	4
136	141	2
114	141	2
149	149	5
160	178	4
94	94	4
148	149	2
31	108	5
98	129	1
127	127	6
14	17	4
61	61	1
56	75	2
161	161	3
29	30	6
56	73	3
139	140	2
17	18	8
144	145	6
8	8	20
174	174	5
22	134	1
75	86	4
164	170	1
154	154	11
129	129	7
147	170	3
98	107	2
117	117	9
4	11	5
155	156	2
75	90	2
29	37	6
173	174	8
95	108	1
4	12	3
28	28	4
158	169	1
158	158	6
45	54	4
65	105	1
70	71	5
157	168	7
100	124	6
115	145	6
80	81	1
0	20	4
94	97	2
158	162	8
56	86	3
37	37	3
102	119	5
126	126	3
157	158	5
128	170	3
49	68	3
11	31	2
52	52	7
65	67	3
11	13	1
149	153	2
73	74	2
78	86	2
152	156	2
96	99	2
23	23	2
5	15	1
173	173	8
64	64	3
97	98	4
61	94	3
88	91	3
2	2	6
55	73	2
21	21	2
31	120	3
169	169	6
50	51	3
28	30	1
170	171	3
81	95	3
14	18	8
103	103	3
23	35	2
80	109	2
59	59	8
134	135	4
147	147	8
164	164	7
90	91	3
28	36	1
116	125	4
5	19	2
89	118	1
33	33	1
104	169	1
74	87	1
105	105	3
176	176	5
125	128	2
124	124	9
2	5	2
58	58	5
74	86	1
15	31	3
22	24	2
74	74	4
178	179	3
1	1	2
109	121	6
115	115	11
0	1	1
154	165	2
105	107	8
115	121	3
27	27	3
167	167	9
135	139	3
102	102	11
155	155	6
57	83	2
116	124	1
146	168	3
5	7	2
57	66	3
67	86	3
17	23	2
20	20	6
41	43	1
141	142	3
135	140	4
57	57	5
98	100	2
35	58	6
166	166	7
135	136	4
135	135	1
157	157	2
9	17	1
60	60	1
13	33	3
26	26	5
77	77	2
104	105	5
12	33	4
129	130	3
100	125	2
40	54	10
143	153	4
91	91	3
5	5	10
170	170	4
11	18	1
65	66	1
3	4	4
74	77	1
51	51	4
146	146	3
132	133	6
12	34	7
101	116	1
82	82	2
123	123	8
30	30	8
122	122	2
99	99	8
156	158	2
126	155	2
178	178	5
138	138	4
112	119	2
152	152	6
44	45	2
61	71	2
162	162	1
64	65	1
56	57	3
90	90	7
157	169	7
111	111	1
143	155	3
30	32	2
142	144	4
3	12	3
39	40	3
136	167	1
92	92	8
87	87	3
43	43	5
11	33	1
67	90	1
9	25	3
80	80	3
101	114	3
98	98	2
18	18	2
67	67	1
8	9	1
84	102	2
162	163	2
40	50	1
145	151	4
161	174	1
142	142	13
112	138	4
88	89	2
29	33	4
113	148	2
137	150	2
97	97	2
151	151	6
74	89	1
44	44	4
125	125	6
112	127	3
102	122	2
161	178	1
165	165	6
82	83	3
162	170	9
88	88	10
107	109	7
117	118	4
57	58	2
7	26	1
3	14	1
13	25	3
101	101	2
80	99	2
78	78	1
109	109	6
38	43	2
96	98	1
81	120	3
100	114	4
24	24	5
38	50	4
71	95	3
155	168	3
71	73	1
4	4	7
40	40	2
130	130	5
160	160	8
33	63	3
125	127	1
144	176	3
30	31	2
110	124	2
113	113	2
145	180	1
132	149	1
18	19	2
136	180	2
171	171	8
39	59	3
113	114	2
153	156	4
112	130	1
88	105	2
81	94	3
175	176	1
112	112	3
148	154	1
128	144	3
106	106	4
65	65	8
105	120	3
132	134	1
35	44	1
125	126	4
54	54	4
53	58	1
146	178	1
125	144	1
21	26	1
6	13	2
164	165	3
166	167	2
1	3	5
125	156	5
78	96	1
28	82	3
116	122	1
37	50	3
12	18	2
166	168	3
74	75	3
114	114	4
132	138	2
154	155	2
40	41	4
15	16	1
54	55	1
116	116	3
159	167	2
129	150	1
41	41	4
39	39	6
87	104	1
86	166	2
5	6	4
101	110	3
106	120	2
159	160	3
79	79	7
71	71	5
85	99	3
139	144	2
65	84	1
27	84	2
158	166	2
68	68	4
2	12	4
141	170	3
140	167	3
103	122	4
107	110	3
154	164	2
106	121	3
92	94	1
71	91	1
14	31	1
89	89	1
44	56	1
89	105	2
127	151	2
50	53	1
108	128	1
106	109	2
112	113	2
155	160	1
151	163	3
31	32	1
119	120	1
24	25	1
105	110	7
3	22	2
156	174	1
146	152	3
96	97	3
170	172	2
144	144	4
4	18	2
39	50	2
29	29	4
174	175	1
1	22	1
136	142	3
53	72	2
100	100	3
152	157	1
77	80	1
103	127	2
7	7	5
100	117	1
118	118	1
82	96	1
0	4	1
85	117	1
89	116	2
8	36	2
8	85	1
4	23	1
114	115	1
83	83	1
25	25	1
36	82	1
6	28	1
116	117	1
45	45	2
8	13	1
89	104	4
130	147	1
147	174	1
68	76	3
23	26	1
140	149	1
115	116	3
49	49	4
9	19	1
95	96	1
45	57	2
93	94	2
128	153	1
33	34	1
140	172	3
108	109	1
85	86	1
162	178	1
170	175	2
11	15	1
0	19	1
179	179	3
133	136	3
42	43	2
114	122	3
73	81	2
120	120	2
78	109	1
146	148	1
2	4	2
100	111	1
13	13	1
84	85	1
100	101	1
110	111	1
119	119	2
38	40	2
49	67	1
54	64	2
139	154	1
89	90	2
100	108	1
147	154	1
80	105	1
42	42	2
86	89	1
104	124	2
17	38	1
53	81	1
99	117	1
104	127	1
75	123	1
139	176	1
168	168	1
21	34	1
172	172	2
79	107	1
100	123	1
7	37	1
70	70	1
102	121	1
152	163	1
131	131	1
16	16	2
104	140	1
151	175	1
80	120	1
101	121	1
154	156	1
94	95	1
32	34	2
150	150	2
165	167	1
115	122	1
45	121	1
103	123	1
103	107	1
50	68	1
160	166	2
137	140	2
148	148	1
80	83	1
25	68	1
35	35	1
136	170	1
163	163	1
54	66	1
131	136	1
37	40	1
124	128	1
65	109	1
66	85	1
124	125	1
162	179	1
133	146	1
17	39	1
75	124	1
75	88	1
103	124	1
38	38	2
153	153	1
76	77	1
33	42	1
23	24	1
145	146	1
121	124	1
88	90	1
144	157	1
34	34	1
136	172	1
172	173	1
170	180	1
80	94	1
149	150	1
81	92	1
135	152	1
