148	175	1
221	230	5
139	139	7
171	171	14
45	164	3
167	167	14
226	229	3
103	103	6
234	234	1
204	204	8
159	159	11
136	136	8
214	214	9
169	170	2
110	112	5
242	242	19
47	47	8
5	7	4
135	135	9
182	182	6
15	15	12
7	7	6
35	36	2
24	24	17
175	175	7
104	105	3
203	203	6
43	43	10
44	44	9
16	16	4
160	160	12
225	225	5
222	222	5
28	28	2
98	98	10
226	226	2
227	228	4
128	131	1
20	20	6
42	42	21
36	36	1
5	8	6
81	81	12
173	173	8
194	195	3
36	41	7
139	141	2
150	150	7
129	130	2
102	103	5
224	224	6
39	55	5
205	205	1
181	181	21
206	206	6
143	211	3
48	162	2
138	178	2
74	74	11
66	66	9
195	195	4
27	27	17
55	55	6
174	174	10
176	176	8
172	172	8
215	215	9
147	148	6
113	114	4
2	2	5
211	213	6
192	192	8
96	96	7
68	68	15
9	9	12
117	117	5
69	69	21
116	116	12
153	153	16
21	21	7
21	22	4
128	130	3
157	157	12
133	134	9
25	25	17
120	120	4
49	49	3
168	168	5
112	112	3
149	149	12
198	199	3
177	177	7
179	183	6
77	79	2
140	182	5
213	214	4
80	82	5
106	106	5
85	85	3
128	147	2
87	99	4
209	210	4
0	0	4
119	119	5
217	217	14
164	164	5
216	216	4
73	73	3
217	218	2
97	97	8
50	50	11
62	62	8
31	34	1
61	61	5
168	208	2
195	199	3
236	236	6
102	102	8
19	199	2
123	125	4
152	152	10
156	156	7
99	164	1
159	160	1
184	184	3
34	35	5
31	58	2
132	135	3
186	186	5
161	161	10
119	128	4
47	163	1
26	27	6
31	32	3
97	152	3
140	140	3
87	219	3
180	182	3
70	70	12
62	63	2
53	53	4
183	183	7
59	59	3
195	200	1
153	155	7
224	225	4
6	124	2
233	239	1
79	80	6
19	19	2
146	146	3
186	187	6
237	237	4
38	42	3
80	80	6
1	4	3
140	142	3
37	37	4
137	137	17
29	29	7
83	83	7
153	154	1
89	89	1
165	166	3
211	211	14
76	86	2
76	76	4
100	100	7
146	148	2
118	134	2
48	49	3
231	232	5
170	170	11
30	34	1
46	51	2
1	31	3
67	68	2
113	113	7
125	125	7
112	133	2
101	103	3
26	26	13
150	151	5
45	45	8
124	126	6
11	11	8
114	117	3
180	181	4
184	185	3
187	187	13
230	232	2
179	179	10
127	127	7
67	186	2
9	10	3
61	62	7
64	64	4
194	194	4
215	216	1
221	228	2
52	52	8
138	139	5
236	238	2
144	144	2
8	8	7
177	178	5
80	83	2
111	130	1
143	145	2
81	83	1
145	145	11
167	168	4
189	190	4
82	82	6
79	79	3
241	241	4
30	31	4
164	165	2
156	210	3
141	141	8
169	169	5
203	205	1
54	54	9
201	201	3
52	53	1
22	23	5
162	165	2
130	130	2
119	126	7
199	201	3
2	33	1
170	171	6
229	229	2
213	215	6
107	217	3
142	142	8
32	32	16
89	106	1
146	147	4
115	115	10
63	63	6
13	33	3
158	161	2
101	137	1
65	65	4
98	149	4
173	191	2
193	193	1
154	154	6
228	228	10
212	212	8
70	182	3
104	129	1
2	6	6
196	196	3
11	42	1
88	152	1
51	51	5
178	179	8
122	122	5
8	10	4
78	78	2
13	13	7
148	153	2
12	67	1
219	225	1
209	209	3
148	150	4
34	34	2
23	91	3
202	202	6
228	230	1
141	207	2
109	121	2
22	22	4
190	190	5
11	12	5
47	48	7
134	135	6
99	163	1
227	230	1
7	21	4
180	180	13
39	39	16
114	114	10
71	71	6
163	165	2
221	221	4
227	227	11
0	30	3
175	177	4
85	149	1
151	152	3
149	150	4
29	65	1
145	146	4
188	188	4
77	77	3
192	196	7
106	209	4
178	182	1
13	14	1
238	238	6
232	235	1
233	233	4
48	48	4
72	72	3
231	231	2
74	75	6
158	158	6
18	19	2
37	38	1
110	170	3
124	124	5
56	56	3
228	234	1
19	20	4
141	143	4
138	143	3
141	145	1
41	42	1
154	208	3
109	119	1
178	178	9
28	29	3
16	17	4
21	23	3
129	129	2
75	75	5
116	117	3
61	184	1
33	34	2
219	219	5
69	183	2
41	41	8
40	40	3
230	230	4
223	223	1
8	9	5
151	151	3
59	67	1
61	185	2
46	49	1
12	12	7
5	9	1
133	133	3
124	127	2
97	151	2
46	46	3
35	35	4
49	52	3
23	23	2
124	125	4
208	208	6
103	107	1
156	157	3
30	30	2
49	50	4
98	102	1
148	151	1
141	203	2
6	34	1
69	71	2
139	143	3
20	21	2
68	69	6
65	66	2
47	162	4
126	170	1
154	213	1
74	116	2
220	222	2
38	38	9
131	135	4
10	201	1
133	164	3
148	148	9
10	10	4
149	202	1
33	35	3
235	238	2
96	97	2
24	25	9
200	203	3
213	213	2
161	162	2
143	143	6
80	85	3
163	166	2
45	46	5
188	189	7
159	222	2
109	109	1
174	175	1
101	101	3
148	149	4
66	188	1
95	111	1
200	200	2
108	218	1
48	54	5
179	182	1
88	101	1
235	235	3
3	3	7
37	55	3
99	99	4
154	155	6
11	20	2
18	18	2
214	215	3
119	120	2
107	129	1
12	44	2
168	169	1
230	231	2
175	176	2
218	218	4
86	152	2
18	201	3
237	238	2
73	75	1
103	104	1
73	82	3
2	3	3
6	6	3
52	54	2
173	174	1
198	198	6
127	128	2
100	101	3
14	14	1
5	6	4
139	145	2
178	183	5
61	64	4
9	31	3
210	216	1
69	70	5
197	197	1
158	159	2
206	207	1
115	117	3
110	121	2
74	82	1
208	212	2
25	27	1
160	167	1
122	124	1
2	127	2
25	70	2
29	34	2
220	220	1
103	106	1
67	67	1
31	31	2
236	237	2
112	127	1
188	191	2
109	123	1
165	165	2
214	218	1
29	31	1
5	5	2
45	48	3
115	118	1
122	123	1
166	167	1
110	110	2
135	136	2
147	147	3
233	235	1
138	138	4
201	202	3
63	184	2
205	208	2
30	38	2
143	213	2
120	170	1
71	73	1
162	162	4
142	143	1
103	140	1
65	190	2
185	186	1
71	72	2
1	8	2
221	222	3
43	192	3
190	191	2
75	121	1
108	127	3
181	182	1
134	176	2
50	51	3
140	141	2
64	66	2
33	36	1
134	134	2
32	40	6
117	118	2
119	169	1
119	123	1
63	64	2
76	80	1
12	68	1
104	104	3
214	216	3
111	112	2
225	229	1
33	38	1
166	166	3
138	146	2
172	220	1
17	22	1
118	119	2
60	60	1
134	165	2
220	221	1
88	234	2
14	32	1
163	167	2
2	30	1
144	145	1
80	84	2
119	124	1
104	148	2
239	239	5
101	102	6
58	58	2
197	198	3
225	235	1
197	200	1
46	163	1
57	59	2
71	141	2
109	210	1
167	169	2
1	1	5
4	4	2
121	126	1
224	226	1
232	238	1
122	125	1
197	199	1
139	140	2
51	53	3
110	113	1
118	118	5
35	41	2
103	111	1
106	107	1
6	16	2
232	232	2
30	32	1
137	176	1
200	204	1
204	206	1
0	29	1
179	180	1
74	85	2
220	231	2
146	153	1
98	152	1
164	166	4
36	37	1
60	61	1
108	210	2
159	161	1
229	236	2
106	214	1
17	20	1
58	60	1
226	235	1
82	84	1
54	55	1
18	199	1
39	54	1
57	57	1
72	82	1
69	181	1
139	142	1
114	119	1
48	163	2
133	175	1
75	86	1
8	24	1
101	108	1
157	158	1
33	41	1
240	240	2
210	212	1
226	227	1
78	80	1
159	219	1
104	207	1
130	131	1
232	233	2
219	220	1
218	220	1
86	219	1
40	55	1
180	183	1
103	139	1
50	164	1
4	6	1
191	195	1
123	123	2
152	153	1
66	68	1
59	60	2
155	155	1
193	196	1
239	240	1
27	28	1
194	199	1
46	50	1
192	200	1
