121	121	3
132	132	4
16	16	6
95	95	10
53	54	1
124	153	3
94	94	2
51	54	2
180	180	2
93	93	7
2	3	5
158	158	5
127	127	11
139	139	10
10	20	3
146	146	11
175	175	3
88	89	5
126	126	8
61	81	3
110	110	5
67	67	7
100	101	4
95	96	5
8	8	18
140	141	3
18	18	4
123	124	2
140	140	6
12	12	2
111	111	4
142	142	3
54	54	10
43	43	6
92	92	8
150	154	1
160	161	2
127	128	6
150	150	8
14	14	6
54	87	4
154	154	3
77	77	13
19	19	8
156	156	4
30	30	5
134	138	2
172	172	11
112	112	8
141	141	4
80	81	7
63	63	12
100	100	4
134	134	11
5	5	6
96	96	5
19	26	1
174	176	5
45	45	6
19	82	4
43	53	2
81	82	9
6	6	3
144	144	10
170	170	5
61	82	1
22	24	3
122	140	1
57	68	1
7	7	5
91	94	6
31	32	1
98	99	1
131	131	6
78	78	5
138	138	2
112	114	6
128	128	6
35	35	4
141	142	3
125	162	4
162	162	4
51	51	4
59	62	2
125	125	8
148	148	5
73	73	2
136	136	8
133	178	3
65	65	8
56	61	3
39	39	5
123	135	4
58	67	2
127	130	2
22	22	7
26	26	6
113	113	5
125	163	5
135	135	4
118	119	1
62	62	6
57	57	4
24	33	2
113	114	3
143	145	2
77	78	3
44	45	1
151	154	4
13	17	5
177	177	2
102	102	3
116	116	6
160	160	4
138	179	2
110	111	5
137	137	7
117	117	2
44	44	4
35	36	5
27	28	2
4	5	6
120	120	3
60	81	1
107	108	6
44	52	3
37	38	7
79	79	2
0	0	3
157	159	1
179	179	6
129	129	7
157	157	3
131	157	3
97	97	10
88	92	1
17	19	1
41	42	2
61	62	1
11	11	1
116	149	1
37	37	6
99	99	3
126	127	1
29	31	1
3	3	3
130	130	7
158	159	2
127	169	5
36	36	2
17	17	9
166	167	3
129	156	5
171	172	3
81	81	3
66	87	3
166	166	1
42	42	10
44	49	1
169	169	8
59	59	8
73	74	4
99	100	5
28	28	1
101	101	4
92	93	2
12	13	2
176	176	2
71	71	6
142	143	6
125	132	2
86	87	3
74	75	4
124	124	1
71	80	5
58	58	8
39	40	2
10	19	2
34	34	3
65	66	1
44	51	2
76	77	3
58	59	4
32	32	2
147	147	5
164	164	2
151	151	2
66	68	1
50	51	2
9	10	2
61	61	6
115	119	2
82	83	3
20	20	2
25	25	2
102	149	2
139	141	2
62	63	5
108	108	1
32	34	1
54	55	7
14	170	2
178	178	4
33	34	1
65	86	4
64	89	2
98	98	6
10	18	2
24	25	3
135	138	2
159	159	7
164	167	2
152	152	5
103	105	1
133	134	3
115	115	3
70	79	1
28	29	1
10	10	3
73	75	1
52	52	1
165	165	2
27	31	1
91	91	3
83	83	2
90	94	1
175	176	1
102	148	1
102	107	2
167	167	1
120	121	1
24	24	3
105	105	3
129	130	2
173	173	4
104	104	7
20	42	2
55	56	4
85	85	2
109	109	5
13	13	5
121	163	1
11	81	1
121	159	1
13	83	1
84	84	1
60	60	7
72	72	4
30	32	1
161	161	5
154	155	2
153	158	1
174	175	2
136	160	1
83	85	1
122	158	1
105	106	2
87	87	1
86	86	2
150	151	1
107	109	2
53	53	2
31	34	1
1	2	1
56	60	1
88	88	2
45	46	4
50	52	1
143	143	4
163	163	3
23	24	1
15	15	2
133	139	1
106	107	2
56	58	1
66	66	3
56	71	1
74	76	4
9	35	1
41	80	1
56	66	2
153	154	1
40	40	2
3	4	2
7	8	1
108	109	4
21	21	1
123	139	1
55	55	3
36	37	1
120	159	2
88	90	2
65	87	3
66	67	2
41	41	6
114	114	1
149	149	4
44	59	2
33	33	5
60	61	2
31	31	5
58	86	3
165	166	2
31	33	1
21	22	1
71	72	2
19	35	1
72	74	4
95	100	1
56	56	1
9	9	3
11	12	1
29	29	1
120	122	1
83	84	3
124	132	1
25	26	2
119	119	1
71	79	1
68	68	2
169	170	3
53	87	1
76	76	1
172	173	1
27	27	1
127	167	1
145	146	1
78	79	1
171	171	1
121	160	1
125	126	3
126	158	1
119	136	1
50	50	3
153	153	2
18	19	2
39	73	1
90	90	1
99	109	1
21	40	1
5	33	1
51	52	1
54	61	1
90	95	1
107	107	1
30	31	1
60	82	1
1	1	2
64	64	1
151	152	1
159	160	1
136	146	1
103	149	1
76	78	1
12	16	1
106	106	1
177	178	1
