116	116	8
79	79	20
52	52	21
41	41	6
102	102	8
188	189	6
126	126	11
122	123	5
17	17	16
55	56	3
72	73	3
32	134	1
74	74	2
30	30	16
102	103	2
167	167	13
29	29	16
172	172	14
43	44	8
25	25	2
130	130	3
68	68	16
127	127	15
7	9	2
120	120	8
59	60	5
48	48	17
89	105	1
14	186	3
111	111	12
64	64	6
46	46	18
195	195	10
164	164	9
153	173	3
180	180	8
17	18	3
151	151	4
132	132	17
106	106	4
77	77	12
121	121	15
36	38	4
121	122	6
38	38	8
76	76	13
97	97	8
138	138	6
187	188	2
88	155	2
33	33	14
81	81	15
57	57	10
2	2	2
80	81	2
90	90	4
28	28	9
155	155	11
71	72	4
9	9	10
10	10	8
28	135	1
61	94	1
54	55	7
77	78	2
104	105	4
70	70	10
55	80	3
113	113	9
103	103	3
143	143	5
122	122	7
27	27	9
196	196	7
16	16	12
27	28	6
163	163	9
178	190	1
33	82	1
51	51	5
12	185	1
93	95	1
187	187	8
125	125	9
42	42	6
3	3	6
197	197	9
137	137	2
12	12	4
171	171	10
60	60	12
6	6	11
60	61	9
108	109	3
80	80	5
80	154	2
157	157	10
146	146	8
100	100	12
75	76	6
20	21	8
161	182	3
2	4	4
133	133	8
56	56	15
69	69	7
89	106	5
33	131	4
150	151	1
186	186	15
120	133	2
78	123	4
59	59	5
171	172	1
144	144	7
104	132	2
143	145	4
52	54	2
182	182	9
175	175	4
19	19	5
39	39	8
78	78	13
161	161	10
43	43	16
106	145	2
71	71	11
58	61	2
170	170	4
149	150	2
142	143	1
107	107	17
142	142	7
166	167	1
118	118	3
50	50	8
188	188	10
93	93	3
134	134	2
193	193	5
108	108	16
96	97	2
8	8	4
184	184	10
117	117	8
78	79	3
78	171	1
73	73	11
178	192	1
40	41	5
86	89	3
74	169	2
108	123	3
13	14	4
70	71	2
53	53	13
183	183	11
62	62	7
115	115	3
31	32	3
177	177	13
128	128	4
34	46	3
15	15	9
163	164	3
100	101	1
161	162	3
73	74	2
10	185	2
22	26	2
36	51	1
66	66	12
194	195	1
3	4	3
159	159	13
37	38	2
73	133	1
130	131	2
67	67	2
0	1	7
99	100	4
111	112	1
173	174	2
185	185	5
71	74	2
20	20	4
154	154	7
129	129	5
36	39	1
26	85	4
146	148	2
49	49	13
165	165	1
46	50	3
58	58	10
94	94	5
104	104	2
131	131	10
88	89	5
125	126	4
47	48	4
22	25	1
136	136	13
65	65	9
7	170	4
195	197	2
162	162	5
87	87	2
179	179	1
25	26	1
88	88	8
139	140	1
28	30	5
34	34	4
137	151	2
63	63	6
87	161	4
96	96	4
142	160	3
123	123	6
107	146	1
45	45	3
138	152	1
58	126	2
78	85	2
162	163	1
73	84	1
82	82	2
149	149	8
105	105	2
7	7	9
148	148	3
11	12	3
14	14	5
112	114	2
176	176	4
81	82	1
94	96	1
39	40	2
32	32	16
187	189	3
31	101	2
189	189	3
161	165	2
1	2	3
13	13	7
71	73	3
54	54	4
153	153	7
33	57	3
45	46	2
108	173	3
147	148	2
47	47	5
158	158	9
170	171	6
178	178	11
169	169	13
31	31	4
11	13	6
72	72	9
126	128	5
31	128	3
95	95	8
112	113	2
26	26	13
158	159	3
146	158	3
0	0	11
14	194	1
81	83	5
11	11	3
40	40	3
141	151	3
96	99	1
160	161	4
145	145	4
191	191	5
3	193	2
187	190	2
62	70	3
86	86	6
105	143	2
167	168	1
112	112	12
8	9	3
140	140	3
168	168	4
22	22	2
24	24	8
156	156	6
71	76	2
32	84	1
186	194	6
1	3	4
144	145	2
37	51	3
176	192	2
107	108	5
112	142	2
110	110	6
126	127	4
75	75	1
5	6	4
145	146	2
95	96	5
181	181	3
16	17	4
175	176	4
89	89	10
46	47	2
150	150	2
159	160	4
101	101	4
143	144	4
135	135	14
55	55	5
43	45	1
10	196	3
87	88	3
141	141	8
173	173	5
114	114	6
110	111	1
160	160	4
67	69	1
58	60	3
79	107	1
24	25	1
124	125	2
83	84	2
131	132	4
35	35	4
98	121	1
107	153	3
94	97	3
136	137	2
55	86	2
143	159	1
160	162	2
186	187	3
66	127	1
174	174	3
148	149	3
189	190	2
34	130	1
81	84	1
50	52	1
22	24	1
9	171	1
18	18	3
14	16	1
27	84	2
124	124	3
21	22	3
23	23	4
32	33	3
168	197	4
84	85	7
179	180	1
133	134	2
99	121	3
98	98	4
145	159	2
180	181	2
85	86	4
36	41	1
58	127	2
6	7	2
185	195	2
84	84	3
24	135	1
165	166	1
58	59	4
116	117	3
14	15	2
148	190	3
68	126	1
20	102	1
172	193	2
177	191	2
118	151	1
101	102	1
13	194	2
181	182	1
28	29	3
4	4	2
5	5	2
33	84	2
146	190	1
117	118	4
139	139	2
36	40	1
33	34	2
44	44	1
6	9	3
141	146	1
116	137	3
168	169	3
150	154	1
119	119	3
45	52	1
45	51	2
85	85	9
195	196	3
3	8	1
142	145	1
134	135	2
31	58	2
88	126	1
177	179	1
194	194	4
106	144	2
166	166	4
32	122	2
156	174	1
141	142	1
83	83	1
138	140	2
186	188	1
1	1	1
127	138	1
37	37	3
118	120	2
152	152	3
138	139	3
62	124	2
61	61	2
58	88	2
11	196	1
104	151	2
77	171	2
10	194	1
129	131	1
54	80	2
13	15	1
108	116	1
1	18	1
112	141	2
99	99	2
74	75	1
22	23	1
23	24	3
109	116	1
162	164	2
9	11	1
139	159	2
31	127	2
161	163	1
26	27	2
109	110	2
76	77	1
24	26	2
79	83	1
106	146	1
154	155	1
103	149	1
169	170	1
66	69	3
161	181	1
79	130	1
21	23	2
67	68	1
152	156	1
25	84	1
71	97	1
21	21	2
34	36	2
119	135	1
190	190	2
175	191	1
160	171	2
30	101	1
114	116	1
41	42	1
27	29	1
36	36	2
35	39	2
164	176	1
0	189	1
69	70	1
186	191	1
192	192	1
2	19	1
78	156	1
118	136	1
184	185	1
145	167	1
29	31	1
152	155	1
137	141	1
58	71	1
97	98	1
