13	123	5
92	92	22
141	141	6
84	85	5
85	87	2
35	35	4
71	71	3
125	125	11
39	40	4
159	159	15
153	153	23
132	132	5
51	51	8
20	22	7
94	94	6
130	130	20
17	95	1
168	168	8
102	102	3
136	136	10
147	148	4
108	108	13
0	6	5
162	162	23
1	2	5
165	165	5
21	22	7
134	137	1
162	168	5
50	50	4
80	81	7
130	153	1
83	83	11
107	108	9
50	52	8
158	158	11
121	121	5
6	12	4
69	70	4
12	13	8
65	69	2
21	24	1
1	1	10
47	48	6
16	16	12
22	49	1
36	36	11
44	45	3
21	21	9
154	154	11
96	96	7
81	81	11
42	47	1
101	101	3
142	142	14
138	145	6
160	160	20
144	144	14
67	67	3
169	170	8
91	91	6
163	164	3
113	117	6
78	78	4
45	45	5
45	46	4
18	18	10
89	89	4
0	124	1
128	129	5
15	15	19
85	85	11
134	134	5
102	103	5
19	22	2
105	106	9
114	114	10
43	43	12
52	52	12
117	118	17
107	112	1
23	23	6
126	159	2
111	111	8
91	93	1
126	160	4
145	145	16
14	15	4
49	49	13
17	17	6
2	2	13
148	148	9
169	169	7
152	152	1
128	128	11
84	84	3
53	53	4
115	116	3
159	160	6
100	100	18
3	4	8
26	26	11
14	14	8
162	164	7
135	170	2
116	116	3
155	156	2
26	27	1
12	12	18
117	117	16
120	131	9
47	49	1
147	147	4
74	75	5
136	137	8
124	124	11
99	107	5
79	79	6
146	146	9
24	24	4
13	13	6
47	47	5
27	27	10
41	41	6
46	46	11
127	127	18
154	155	7
152	164	2
129	129	11
99	99	11
77	77	13
18	123	2
93	93	9
118	118	6
128	131	3
11	125	3
93	99	2
16	17	3
136	150	2
161	161	12
134	135	4
90	91	5
56	56	9
143	152	3
109	109	3
107	107	11
129	130	2
76	79	3
75	75	9
103	103	3
105	105	6
4	4	12
138	138	1
118	131	2
45	53	1
105	112	5
113	113	7
129	131	2
8	8	5
125	159	1
18	95	2
18	19	1
82	82	8
163	163	8
82	83	6
151	151	8
130	131	5
136	138	1
101	104	2
122	123	8
112	113	13
131	139	1
162	165	4
77	95	2
139	139	13
20	95	1
110	111	4
100	101	3
98	98	3
137	137	10
7	9	2
6	6	10
156	156	9
162	163	3
93	97	1
150	150	11
140	140	3
86	86	7
62	63	2
92	122	3
70	70	6
133	136	4
143	143	5
19	24	2
125	160	6
15	98	2
124	125	5
25	25	7
133	133	4
8	10	2
155	157	3
122	122	7
16	98	6
69	69	9
120	120	12
161	164	2
103	104	2
11	11	9
99	101	1
76	94	1
0	1	1
101	105	1
129	139	1
61	62	2
157	157	5
144	145	3
72	72	4
150	163	2
63	64	1
7	7	5
0	0	9
155	155	7
56	62	1
13	14	6
57	58	2
95	95	7
76	89	2
78	79	3
46	51	5
126	126	8
5	5	8
146	165	4
88	89	2
167	167	6
139	151	5
22	47	4
7	8	4
110	112	1
90	90	5
81	82	5
37	37	14
58	73	2
12	124	1
63	63	3
45	72	5
110	110	11
76	76	6
86	87	9
19	19	6
97	97	5
77	79	5
135	157	1
101	107	1
93	94	4
139	140	2
1	160	1
88	88	6
83	84	4
166	166	2
78	86	3
39	39	3
51	52	4
127	129	3
56	57	1
146	166	3
140	158	3
74	74	5
54	54	3
138	142	4
73	73	8
47	77	2
3	3	1
35	36	4
107	122	2
160	161	6
167	168	3
142	143	4
125	127	2
156	157	1
110	119	1
164	164	6
149	149	1
107	130	3
10	10	5
123	123	4
19	20	1
100	107	3
119	119	6
123	128	5
153	161	4
44	53	3
2	3	1
151	166	1
1	163	2
108	157	5
102	112	3
45	51	2
97	125	1
0	125	5
16	158	1
48	48	4
4	5	3
84	105	2
77	81	2
28	28	3
38	38	3
37	66	4
94	95	2
106	106	4
0	2	3
136	144	4
135	136	1
58	62	1
65	65	2
128	130	7
114	115	3
167	169	2
147	169	4
53	71	2
123	124	2
99	128	1
125	126	1
151	157	5
112	112	2
75	77	4
113	114	3
126	127	4
97	98	7
47	75	3
143	144	1
146	168	4
44	44	1
136	157	1
66	66	7
147	168	4
138	139	1
100	106	1
128	155	1
66	67	3
135	137	1
135	135	1
78	80	2
101	102	1
5	6	4
131	133	4
133	135	6
87	88	1
8	22	1
149	150	3
54	57	2
121	122	3
92	93	1
140	141	7
62	62	1
45	54	1
148	166	1
98	99	2
44	51	2
150	151	1
146	167	2
20	21	5
3	7	3
1	161	2
102	105	5
97	151	1
126	128	1
91	97	5
105	108	1
97	124	1
9	9	3
25	26	1
111	112	2
96	97	1
48	75	3
80	89	1
11	13	1
164	165	2
42	42	1
15	16	3
68	71	2
63	65	1
104	104	2
80	82	1
109	110	1
17	18	2
34	34	1
6	8	1
141	142	1
76	93	1
131	131	3
115	115	2
139	155	2
145	152	3
138	156	4
100	102	2
131	132	2
11	23	1
95	96	1
75	80	2
40	89	3
41	42	2
26	28	2
153	154	1
68	69	2
120	121	2
13	96	1
57	62	1
108	112	1
80	80	2
97	99	2
130	140	2
75	94	1
125	161	1
76	78	1
68	68	1
116	117	1
39	57	1
58	58	1
91	95	1
119	120	1
65	66	1
13	18	1
114	119	1
144	146	1
100	105	1
57	57	1
44	46	1
91	92	1
11	12	1
20	48	1
167	170	1
75	76	1
9	24	1
16	127	1
78	89	1
36	37	1
166	168	1
109	111	1
156	158	1
