3	4	5
96	96	8
59	59	15
63	124	1
69	71	2
125	135	6
10	10	17
68	69	2
35	35	5
100	100	10
25	31	4
104	104	12
46	46	3
13	96	2
69	69	13
3	3	8
89	90	3
99	115	2
53	53	10
94	133	2
14	14	9
95	96	8
121	122	4
61	62	5
22	22	8
63	63	11
84	84	17
13	14	3
112	135	1
130	130	9
13	13	9
67	67	15
120	120	15
103	103	6
36	133	2
64	134	3
129	129	6
5	28	4
5	5	15
36	36	3
4	4	7
127	127	5
99	101	3
121	121	8
94	94	17
73	74	4
76	76	9
114	115	2
73	73	14
46	66	1
108	121	1
49	50	4
34	37	6
20	20	8
58	58	8
0	12	3
56	56	8
93	120	2
18	18	7
112	112	3
5	23	3
70	70	17
12	12	19
11	11	7
86	103	7
118	120	3
25	25	8
30	30	7
118	118	11
61	61	9
19	22	2
0	25	4
44	44	15
66	66	13
5	25	2
55	55	3
24	24	9
38	105	5
125	126	3
124	125	5
112	113	3
93	108	4
114	114	6
67	87	3
74	74	5
102	102	6
50	50	2
97	99	7
43	45	1
54	54	4
110	120	2
71	71	4
61	83	6
128	129	4
131	131	9
8	8	18
109	109	7
27	27	9
42	43	5
17	17	5
30	31	8
125	125	11
93	113	6
45	45	8
110	111	5
9	9	17
69	87	4
132	132	12
60	60	4
92	92	4
15	17	3
8	19	3
4	19	2
124	124	5
21	22	6
20	21	5
83	83	7
95	95	17
132	133	5
60	61	5
86	86	11
90	90	3
3	16	1
25	26	1
3	17	1
23	24	2
36	64	6
31	31	11
19	21	3
87	87	11
77	77	4
122	123	3
56	105	1
2	4	8
133	134	3
6	11	4
81	81	12
89	89	7
100	116	2
52	61	3
75	88	3
75	76	2
28	28	2
82	84	5
44	53	4
128	128	4
95	114	3
2	2	4
88	88	6
90	93	1
21	35	1
117	118	6
101	121	3
68	89	1
33	33	6
19	19	6
34	35	3
5	27	1
91	91	9
64	64	8
79	80	4
26	27	2
101	101	9
119	119	15
15	15	7
16	16	18
29	30	3
70	76	1
82	82	13
30	32	3
123	123	6
66	129	2
93	93	8
65	65	3
9	10	4
68	93	1
72	72	5
102	121	3
85	85	5
105	105	4
113	113	9
23	23	6
83	84	1
134	134	4
98	98	2
79	79	9
100	101	3
133	133	7
21	21	4
92	93	5
36	37	3
89	116	6
21	23	2
81	82	2
6	7	3
26	26	5
8	9	4
24	25	5
7	7	7
104	105	2
34	34	4
66	109	1
108	108	4
113	115	1
76	77	1
97	97	3
1	16	1
1	1	2
86	87	3
18	19	3
38	38	4
35	72	2
125	130	6
43	43	4
93	94	3
20	34	1
2	3	1
126	126	9
22	25	2
38	61	2
42	42	1
27	85	2
57	58	1
54	55	2
47	48	2
123	124	1
59	67	3
64	131	1
126	127	2
90	133	3
102	103	1
98	101	2
78	78	5
106	106	4
62	62	9
97	131	1
91	99	2
80	80	5
108	126	2
80	82	1
25	43	6
31	32	2
69	70	3
6	6	6
5	24	2
77	85	3
68	68	3
1	17	3
22	23	2
3	28	4
72	73	3
21	26	4
65	121	1
110	110	1
29	29	1
108	111	4
75	75	2
57	57	7
130	131	4
50	54	1
79	84	3
116	116	5
35	36	1
62	122	4
126	129	1
78	79	1
36	63	1
66	68	1
71	89	1
108	118	3
63	123	1
127	128	3
49	107	2
27	28	2
55	63	3
97	98	2
83	85	2
99	100	2
24	34	2
47	108	2
54	59	1
63	64	1
11	12	1
52	52	5
70	79	1
106	107	2
99	103	1
77	78	1
6	12	1
44	45	1
120	121	1
119	120	4
7	8	4
0	5	3
56	87	1
33	44	2
66	69	2
107	107	2
2	10	3
117	117	3
109	115	1
94	95	1
43	53	2
118	129	2
122	122	2
115	118	1
57	59	2
53	66	2
108	114	2
70	71	2
107	130	3
50	51	3
111	112	1
65	131	2
88	89	1
82	83	1
71	72	1
61	80	2
1	7	1
89	94	2
52	55	1
64	124	5
4	5	2
103	122	1
12	17	1
112	118	1
108	130	3
48	48	2
14	18	2
104	122	1
131	132	1
97	100	1
84	85	3
97	114	3
26	35	1
33	34	2
17	18	2
49	51	1
67	68	1
108	109	2
19	20	2
105	106	1
13	95	1
96	97	1
53	65	1
116	120	1
3	7	1
56	57	1
53	56	1
47	47	1
19	33	1
37	63	1
80	84	1
52	68	1
80	81	1
67	114	1
47	51	1
89	93	1
52	53	1
91	97	1
77	99	1
64	99	1
0	0	1
130	132	2
20	23	1
14	29	1
64	65	2
90	91	1
98	99	1
108	129	1
65	69	1
54	61	1
7	9	1
