89	89	12
69	81	3
0	22	1
10	10	10
67	68	5
84	84	15
58	58	7
32	32	7
59	59	12
50	59	3
3	3	6
72	72	9
28	28	3
49	49	4
19	83	4
6	8	1
71	71	16
55	56	6
19	19	10
78	79	3
76	76	13
61	63	2
13	13	17
87	87	9
57	57	21
72	73	2
34	34	6
51	51	16
20	83	1
77	80	6
68	68	16
8	8	26
75	75	16
23	23	18
66	66	17
25	26	9
48	50	4
78	78	8
67	67	19
22	22	3
6	31	3
25	25	11
57	58	9
12	12	16
56	57	8
53	53	8
17	17	41
89	90	2
79	79	15
22	23	5
67	69	1
54	54	12
12	13	8
80	81	2
62	64	2
69	69	6
13	14	4
56	56	22
26	27	4
7	7	8
4	53	1
0	74	3
77	78	3
86	86	16
16	16	3
56	61	1
64	64	9
74	74	4
60	66	4
50	50	5
81	81	9
82	83	5
59	60	7
77	77	15
52	52	16
59	61	3
48	48	12
15	16	1
47	48	3
85	85	13
87	88	2
79	80	3
74	75	3
53	55	6
25	76	2
46	46	1
4	4	13
60	60	10
83	83	13
70	70	9
80	80	15
78	80	7
46	51	1
2	3	1
73	73	7
20	20	9
9	9	1
88	88	6
19	20	9
24	24	12
26	26	14
47	47	5
82	82	12
9	10	6
46	86	1
63	63	9
17	18	3
5	22	5
8	86	1
21	21	4
31	31	8
63	64	5
35	35	2
23	24	5
19	79	4
72	74	1
61	77	3
9	66	5
1	31	1
50	51	3
15	15	7
6	83	1
5	5	8
64	65	4
33	33	2
75	76	2
60	75	1
90	90	3
6	6	5
76	80	2
4	66	1
74	77	3
48	49	2
52	58	2
6	7	3
0	0	8
4	5	1
14	14	8
30	30	5
51	52	1
65	65	8
27	28	1
19	78	1
52	53	4
46	53	3
71	72	4
5	82	1
55	55	1
19	22	2
1	1	9
11	11	6
56	69	1
61	61	9
76	82	2
8	14	1
69	85	2
73	85	4
6	25	2
70	71	3
24	26	2
27	27	4
5	81	2
7	8	2
3	4	4
20	23	1
6	65	1
3	30	1
7	26	2
49	62	1
78	83	1
14	17	2
69	70	1
5	26	2
17	23	1
5	7	2
60	61	2
2	89	1
54	55	1
9	34	3
52	55	1
28	29	3
53	57	1
16	17	2
4	69	2
31	71	1
23	27	3
88	89	3
21	22	3
2	2	2
68	70	1
17	25	2
65	66	2
49	50	1
73	84	1
51	57	1
9	48	1
5	31	1
55	59	1
62	62	4
66	67	2
24	28	1
76	77	1
68	69	2
83	84	1
86	87	1
32	33	1
54	87	1
54	86	1
0	84	1
75	77	1
12	14	1
4	11	1
21	23	1
7	32	1
24	25	1
18	30	1
52	60	1
17	24	1
