186	186	15
142	143	4
82	82	13
103	103	13
174	175	5
42	42	5
62	62	6
139	139	10
165	175	3
91	91	12
56	56	13
130	144	4
88	88	4
181	181	5
156	177	4
71	145	6
3	3	16
59	59	13
112	112	15
31	31	9
128	141	3
106	106	5
24	24	18
87	174	3
36	36	4
130	131	12
10	10	11
150	184	3
17	28	10
164	166	1
69	69	1
116	116	10
156	179	4
41	41	13
155	156	6
25	25	12
132	132	2
8	13	3
134	134	7
107	107	7
5	27	3
165	165	8
148	156	1
82	108	3
141	141	2
121	121	10
40	40	11
19	19	12
28	29	4
3	8	3
14	14	3
174	174	7
144	187	1
126	140	3
47	47	13
125	125	10
5	5	6
154	154	10
171	187	5
105	105	9
129	129	10
117	117	12
30	30	9
170	170	7
55	55	7
114	114	6
97	97	9
108	112	1
100	101	3
56	147	2
68	76	4
84	186	1
169	169	11
34	34	7
2	4	6
185	185	8
92	92	4
157	157	10
17	17	5
32	74	1
147	147	12
22	23	8
4	43	2
164	171	4
99	100	2
53	53	11
115	115	8
155	157	3
95	109	8
41	42	9
124	124	6
83	83	12
137	155	1
1	1	6
182	183	16
89	146	3
11	68	2
105	130	3
17	18	3
25	26	2
166	171	4
68	71	3
160	160	10
46	47	5
135	136	5
188	189	2
151	151	7
74	74	7
190	190	2
71	71	2
176	176	4
149	149	8
167	167	7
60	64	5
46	52	4
161	162	6
90	94	1
91	122	1
104	104	9
22	22	10
142	142	8
164	164	18
6	8	2
90	90	9
178	178	5
81	121	2
54	54	6
81	81	4
164	189	2
77	89	2
72	120	6
15	15	10
163	190	1
16	17	4
77	77	14
84	84	5
168	168	7
159	160	6
99	150	4
89	89	7
36	74	3
1	90	1
150	151	3
65	65	5
179	182	2
137	160	2
120	187	2
137	137	10
128	128	5
54	61	4
76	76	9
180	180	7
108	131	3
187	187	3
181	185	4
71	73	5
86	86	7
53	54	6
167	171	1
20	20	7
12	35	2
71	119	3
152	152	11
166	186	3
6	6	9
64	64	2
133	166	2
54	55	13
2	39	1
115	120	1
105	106	1
102	102	7
28	30	3
66	105	6
7	7	16
56	57	5
141	167	6
58	58	6
109	109	21
143	143	2
110	110	10
21	21	9
115	116	4
21	48	2
159	159	14
85	86	2
35	36	8
14	15	8
26	28	3
68	70	1
57	57	11
13	13	6
142	188	2
177	177	16
152	153	2
66	68	1
184	184	6
187	188	8
163	163	12
87	87	4
95	129	6
182	182	12
28	28	5
12	12	9
0	0	5
158	164	3
140	140	3
80	94	1
12	15	14
80	80	5
17	36	3
13	28	3
87	175	2
98	98	11
101	101	11
173	173	3
118	118	9
11	55	6
18	28	1
138	139	9
66	66	5
145	145	8
123	124	2
104	105	6
90	114	1
137	138	5
16	18	6
114	122	2
81	82	7
108	108	7
166	166	11
109	127	3
111	112	2
2	2	10
32	80	2
182	187	3
160	161	4
177	178	1
144	144	2
153	153	9
48	48	16
23	23	15
170	174	1
111	111	10
85	85	3
156	156	12
72	72	7
25	36	1
17	56	5
78	80	1
108	109	7
135	135	8
11	12	2
77	91	6
134	135	3
27	27	7
79	79	8
164	181	2
43	43	12
76	113	4
63	64	5
18	44	12
165	173	2
133	134	3
4	4	11
70	70	1
94	94	11
125	128	3
60	60	3
47	48	9
63	63	3
21	24	2
60	68	4
151	152	1
95	95	2
83	170	1
94	106	6
11	11	4
16	29	1
133	135	2
59	68	1
27	31	2
116	118	4
18	18	5
12	79	1
173	174	3
57	75	2
93	93	8
55	59	1
107	117	2
171	185	1
23	43	3
19	32	4
0	28	1
100	132	5
35	35	7
88	111	1
180	181	6
38	46	3
146	146	3
60	61	3
100	139	1
31	36	2
23	24	2
156	160	2
105	110	3
122	122	11
82	120	3
5	9	3
183	183	3
32	106	2
154	163	3
37	38	6
96	98	2
129	131	2
33	34	2
9	9	3
163	171	1
16	16	6
126	126	8
11	38	3
6	42	1
113	113	8
160	163	8
94	103	2
147	161	2
38	55	2
11	183	2
6	101	2
136	137	2
75	91	4
133	133	2
11	35	1
136	136	2
73	73	7
131	131	7
161	161	7
10	78	1
97	124	4
44	45	1
7	43	2
71	76	3
133	168	1
71	143	2
100	161	4
97	174	1
46	48	1
81	120	1
112	114	2
105	107	1
71	72	5
139	152	2
57	66	3
81	148	3
189	190	4
83	164	2
95	114	3
167	174	1
58	122	3
126	127	4
183	187	2
105	145	2
177	189	1
27	28	6
35	42	4
34	79	3
70	73	3
166	175	11
163	169	1
166	172	1
17	42	1
185	186	3
127	127	4
39	56	1
59	75	2
173	190	7
91	93	5
62	63	1
58	117	1
170	171	1
68	68	8
1	8	5
175	175	3
3	44	3
72	119	3
13	14	10
48	49	2
99	99	3
59	61	1
90	130	2
86	153	2
178	179	3
150	163	2
70	79	1
95	96	2
10	13	2
58	61	2
8	44	4
33	33	4
179	187	1
37	79	2
13	15	6
154	160	3
172	172	8
176	177	5
158	158	4
34	35	1
45	45	7
123	123	1
100	100	15
119	119	7
83	107	1
155	155	4
72	118	1
179	179	6
167	168	3
117	173	2
100	133	3
68	152	1
184	185	2
168	169	2
0	12	1
183	185	2
60	114	3
32	33	2
150	150	4
68	106	2
29	29	9
61	61	5
165	174	1
122	123	1
26	46	3
8	15	1
125	131	2
96	135	1
148	148	5
20	41	1
1	16	2
101	119	1
175	176	1
8	14	3
97	98	4
44	44	4
55	68	3
109	110	2
130	141	1
119	122	2
85	103	2
188	188	3
122	174	1
13	25	5
82	83	4
134	137	1
130	140	4
4	44	2
112	118	1
139	151	1
153	155	3
39	62	3
13	17	2
136	166	2
10	14	1
11	53	1
21	22	2
133	136	4
137	156	1
150	185	1
94	95	1
136	155	1
8	8	2
41	101	3
86	87	1
189	189	3
61	62	1
58	59	2
56	76	2
18	27	1
20	21	1
33	35	3
30	35	1
69	118	1
187	189	1
177	185	1
18	42	1
135	154	1
103	145	2
41	102	1
19	20	1
71	122	1
100	162	2
115	118	4
16	30	5
84	98	1
2	3	1
76	77	1
162	168	1
124	129	1
105	131	2
12	27	1
129	144	4
127	128	2
120	129	3
105	111	2
70	71	1
39	41	2
158	159	3
57	122	2
8	12	2
80	81	3
104	145	3
144	150	1
112	115	5
29	47	1
151	163	3
10	12	1
93	107	1
126	130	1
157	158	1
100	136	3
133	169	1
164	165	2
37	37	1
43	44	2
21	47	1
6	100	1
67	76	1
92	126	3
39	39	3
148	178	2
66	67	1
61	67	2
26	27	1
0	8	2
38	38	2
67	68	1
99	104	3
32	46	2
91	92	1
96	96	3
10	65	1
152	159	1
187	190	2
67	79	1
116	122	1
125	140	1
150	177	1
108	115	1
94	142	2
57	78	1
0	24	1
73	148	2
171	172	1
10	60	3
165	186	3
60	63	1
106	107	2
18	32	2
179	180	1
65	66	3
56	61	1
64	67	1
10	11	1
24	33	2
68	118	1
86	152	3
11	54	2
78	78	4
92	95	1
30	78	1
91	114	1
156	159	1
95	106	1
24	34	1
9	39	3
164	173	1
156	157	1
7	42	1
96	174	1
151	161	1
79	81	1
80	93	2
75	75	3
138	138	1
100	102	1
136	160	1
31	32	1
25	80	2
130	130	1
41	152	1
75	112	1
11	78	1
131	140	1
26	36	1
171	173	1
29	30	1
56	113	1
170	173	1
166	167	1
157	160	2
46	46	1
93	94	1
52	61	1
147	160	1
32	32	1
84	127	1
1	9	1
172	187	1
144	188	1
149	184	1
5	6	2
117	121	2
83	88	1
59	63	1
130	187	2
31	38	1
134	136	1
79	149	1
126	132	1
59	64	1
109	113	1
