32	32	10
122	122	8
91	92	4
82	115	4
112	112	6
71	71	9
132	132	2
79	80	3
86	86	1
90	91	4
40	40	10
1	66	6
64	64	6
86	113	4
75	75	6
27	74	3
88	88	5
36	36	5
121	127	2
6	6	3
46	47	7
1	1	5
99	99	2
13	15	2
100	110	2
98	98	5
37	37	14
69	70	6
8	8	7
103	104	9
29	105	1
128	128	10
56	74	7
22	22	1
3	3	3
105	105	1
87	112	2
38	39	4
55	55	8
5	5	1
21	21	3
45	45	1
66	66	3
113	113	7
84	84	5
70	72	4
61	73	4
81	81	2
117	117	5
79	79	5
88	97	4
11	12	2
93	93	4
27	27	8
39	39	10
85	85	6
34	36	1
23	23	6
115	115	12
127	129	2
13	14	5
33	33	7
108	108	6
15	15	4
7	7	1
57	82	1
130	130	6
18	18	8
0	0	2
121	124	1
88	99	7
81	92	3
27	28	5
42	42	2
23	24	4
12	12	7
66	67	2
93	97	4
35	36	4
119	120	8
28	31	1
63	63	2
101	101	2
17	18	4
97	98	6
60	75	1
80	80	1
123	128	4
13	13	1
123	127	3
60	60	5
39	40	3
43	77	2
76	80	2
38	38	5
27	55	7
121	121	2
121	122	1
131	133	4
81	114	4
60	95	2
61	62	1
81	91	3
57	113	2
43	43	2
130	131	5
58	58	8
29	31	4
112	131	2
40	42	1
94	94	8
16	16	7
85	89	4
82	82	2
85	117	2
29	29	3
50	50	7
109	109	4
104	106	4
36	37	4
131	131	4
6	7	2
96	96	2
73	73	2
20	49	1
30	30	6
111	111	6
102	103	3
32	105	1
41	42	1
72	72	8
78	78	10
44	44	4
96	99	4
31	31	2
27	34	3
17	17	5
84	117	2
64	71	3
59	87	2
92	92	1
5	6	4
83	83	2
123	123	4
57	57	2
118	118	1
67	67	3
21	22	1
68	68	6
5	15	3
94	97	2
0	3	4
28	74	1
8	16	1
115	116	4
116	117	4
120	120	8
13	20	1
20	42	5
89	97	3
31	34	2
82	83	2
124	124	2
74	76	2
76	76	2
87	87	2
107	107	1
31	32	2
14	42	2
25	25	5
77	77	1
2	66	1
90	90	5
96	100	3
59	59	2
108	109	4
58	83	2
76	77	1
102	106	2
13	19	1
119	119	1
46	46	1
132	133	1
62	62	2
19	20	2
28	55	1
75	76	2
9	9	3
26	27	2
10	77	2
104	104	3
26	38	1
129	129	2
102	108	5
65	65	1
14	14	3
24	24	3
28	28	2
125	126	1
110	111	3
85	87	1
20	20	1
20	21	3
85	113	4
74	74	3
131	132	2
48	48	2
101	110	1
114	114	2
83	84	1
83	132	2
10	11	2
35	35	1
61	61	3
103	103	1
7	49	1
9	45	1
13	17	1
43	76	1
59	85	1
114	133	1
59	81	1
83	86	1
85	112	2
1	2	1
102	102	2
11	11	1
20	22	1
86	130	1
113	114	1
24	25	1
97	97	1
14	17	1
65	67	1
10	19	1
117	118	1
87	126	1
56	57	2
83	113	1
63	70	1
56	56	2
62	68	1
25	48	1
