111	112	6
75	142	1
34	34	13
118	118	3
62	62	9
113	114	4
142	151	3
126	126	7
5	6	2
79	79	8
141	141	7
45	45	7
53	53	7
32	149	3
123	126	3
40	42	2
81	82	4
116	118	4
3	3	2
56	56	1
98	98	1
132	132	8
90	91	1
122	123	9
121	122	2
22	22	10
4	4	3
128	151	5
109	109	4
45	47	12
154	154	5
128	139	1
140	143	3
130	130	7
68	69	5
10	12	2
27	27	4
114	117	4
119	119	1
58	107	2
138	138	6
34	38	5
76	78	6
151	154	7
31	31	6
128	146	2
74	78	2
8	8	1
148	148	7
71	72	2
152	152	14
109	111	1
6	6	10
85	86	3
105	109	3
80	83	2
119	120	4
57	72	2
72	72	4
39	39	11
124	124	9
146	146	8
29	29	4
66	69	2
129	130	3
115	116	5
104	106	3
117	127	4
136	136	1
42	42	5
49	49	2
37	37	4
63	63	7
12	12	5
33	33	16
72	74	2
131	131	3
117	133	4
53	67	2
26	26	2
43	46	4
54	55	6
150	152	1
35	35	2
150	150	9
8	9	6
142	146	2
107	108	7
10	10	7
90	90	13
43	43	5
64	75	1
7	7	8
106	106	4
107	107	4
28	30	3
66	66	3
100	100	6
147	148	2
77	79	3
127	127	7
69	69	3
144	145	2
104	139	1
145	145	11
23	23	8
100	102	2
122	122	2
112	112	3
88	129	2
20	20	4
92	92	3
108	108	1
149	149	3
33	36	2
3	11	1
74	74	8
104	104	4
74	149	2
101	101	3
11	16	1
142	142	2
16	16	4
135	136	4
133	148	1
139	139	1
68	70	1
79	100	1
27	28	3
133	133	2
104	105	5
69	70	4
146	149	3
13	13	4
36	37	3
144	144	6
82	82	3
92	100	4
153	153	5
76	76	4
30	32	2
100	106	2
17	18	2
35	151	2
81	90	2
134	149	4
40	40	1
76	100	4
36	36	2
94	106	2
124	125	7
40	41	1
152	153	3
63	64	2
107	112	2
104	108	3
150	151	4
32	150	4
38	38	4
83	96	1
117	117	5
115	135	2
33	35	3
21	21	2
19	19	6
67	67	4
113	116	4
15	15	10
18	18	3
32	32	7
84	84	3
80	86	1
118	136	1
95	95	3
3	4	1
93	93	2
46	46	1
119	136	3
137	138	4
5	7	1
151	151	8
35	39	2
81	83	5
43	44	1
47	47	2
120	122	7
113	115	4
34	153	4
68	68	2
75	148	2
105	152	1
38	39	1
143	145	2
36	39	2
73	149	1
103	103	2
99	100	2
97	98	3
94	97	3
103	109	1
24	26	1
134	134	3
29	31	1
100	107	1
107	110	5
73	73	2
83	86	2
113	113	7
25	25	1
117	119	2
41	45	2
22	24	1
67	69	3
80	81	2
73	74	4
115	124	3
33	149	1
134	135	2
5	11	2
142	143	4
66	93	1
8	10	2
7	8	1
145	147	1
97	99	3
92	93	1
147	150	1
22	23	1
23	31	1
83	84	2
97	100	1
43	47	2
135	135	4
66	67	2
38	40	5
25	28	1
82	86	3
116	116	5
44	45	1
103	106	3
20	23	2
75	100	2
94	95	1
46	48	3
149	151	1
137	137	1
41	41	1
91	91	4
149	150	3
51	51	2
54	63	3
143	143	3
34	40	1
105	114	1
70	70	5
30	30	3
80	80	3
64	66	1
114	120	1
146	147	2
101	105	3
64	70	1
48	49	2
28	31	3
103	146	3
109	110	1
119	122	2
95	96	2
55	56	4
20	21	1
96	96	2
112	116	1
78	78	2
143	144	1
15	16	1
123	123	2
54	54	2
36	50	5
77	77	5
14	14	1
121	121	1
148	149	1
106	108	1
120	120	1
84	85	2
145	150	1
97	109	1
93	96	1
34	35	3
144	146	3
126	135	1
116	117	1
87	87	1
130	132	1
104	127	3
101	106	1
109	112	3
75	76	1
62	64	1
28	28	1
128	132	2
94	99	1
136	142	1
136	138	1
147	147	2
117	154	1
13	14	1
88	88	1
57	57	2
140	140	2
15	22	1
97	97	2
38	50	1
11	14	1
126	127	2
41	43	1
131	133	1
108	111	1
48	48	1
94	96	1
129	132	2
93	94	1
98	99	2
45	48	1
76	77	1
132	133	1
97	125	1
84	96	1
19	21	1
55	55	1
75	75	1
39	40	1
29	30	1
26	27	1
