121	121	19
151	157	3
70	70	39
159	159	38
105	105	10
25	25	39
165	165	23
167	167	31
46	46	38
162	162	26
163	163	26
123	168	1
192	192	26
112	112	40
104	104	33
117	118	34
149	174	2
59	60	14
151	151	28
163	166	4
37	37	26
161	162	15
191	191	43
57	57	16
40	40	37
66	66	28
161	161	27
55	56	13
31	111	5
141	142	12
69	69	31
140	143	4
148	148	36
4	22	7
38	38	33
157	157	31
177	177	27
141	141	35
173	173	42
172	173	21
1	116	3
127	127	32
154	154	19
169	170	15
114	115	9
115	115	25
64	72	3
115	152	7
150	150	35
77	78	23
189	189	42
54	56	15
168	169	12
111	149	3
164	165	6
169	169	35
63	63	19
176	177	14
181	181	53
167	168	15
15	16	10
56	67	4
49	49	20
40	42	2
110	110	28
131	132	3
43	43	49
142	142	28
1	1	24
2	2	21
116	117	16
170	170	27
134	134	27
114	114	28
0	0	45
96	96	21
135	188	9
164	174	2
101	174	5
24	24	33
16	16	32
131	179	4
186	187	15
144	144	58
135	135	22
164	164	20
21	21	24
179	180	15
176	176	25
78	84	3
125	126	19
48	49	16
17	17	24
124	124	43
81	119	2
101	101	36
158	158	33
113	119	1
152	178	5
124	125	9
194	195	4
137	137	33
62	70	1
158	181	4
132	133	14
30	31	11
42	43	2
37	39	5
194	194	22
122	190	6
136	136	41
2	138	4
60	60	20
72	73	15
40	43	3
24	69	3
58	59	8
133	133	42
88	88	23
76	77	15
146	146	30
133	134	21
48	48	43
142	175	3
113	114	13
76	76	36
7	42	3
138	175	3
131	131	30
54	58	2
7	9	5
154	170	3
54	55	13
7	40	6
122	193	4
197	197	32
146	147	14
27	27	29
22	22	26
188	189	3
99	100	7
153	188	4
8	63	3
20	22	5
181	196	2
102	102	32
55	55	36
79	81	5
93	96	3
35	35	38
68	68	30
178	178	29
84	84	7
190	190	35
18	18	27
115	122	2
103	104	5
195	195	28
47	47	52
149	149	45
97	97	27
122	122	31
65	65	23
73	74	11
152	152	30
171	171	21
1	2	10
3	8	1
67	67	33
58	128	3
10	10	33
82	82	26
30	30	21
77	77	16
23	24	4
21	24	2
14	14	24
122	123	5
156	156	33
68	69	8
103	103	27
98	99	11
12	13	6
35	68	2
73	77	5
39	40	25
123	123	34
33	33	33
71	72	5
25	179	1
8	8	13
62	66	1
8	66	1
94	96	6
172	172	17
110	142	1
15	15	32
145	145	27
196	196	51
116	121	1
42	42	34
4	4	26
185	185	25
191	192	5
46	55	3
75	75	15
140	140	14
13	13	31
72	72	47
108	108	17
106	162	2
142	169	2
171	172	26
129	129	31
87	89	6
2	22	5
3	3	37
6	20	1
143	144	19
43	44	10
30	107	2
63	64	7
147	147	22
155	185	5
23	42	1
90	136	5
132	132	27
122	124	3
113	113	36
142	157	1
116	116	35
32	32	21
59	59	24
149	150	24
184	184	43
78	78	24
137	138	9
183	197	4
74	75	14
130	133	3
153	154	10
17	64	5
119	120	11
79	79	31
88	89	13
190	192	4
171	173	5
7	115	3
143	143	15
71	71	42
139	139	21
40	41	4
36	36	33
149	172	4
134	137	3
107	107	30
108	150	4
44	44	28
29	29	17
31	31	47
160	161	4
99	99	38
98	98	27
10	11	6
173	178	2
183	183	33
46	47	15
185	186	16
113	128	3
24	25	9
109	111	10
121	122	12
169	174	1
126	126	36
34	35	16
35	40	4
147	154	6
106	106	27
7	7	17
50	51	9
104	105	7
111	111	43
74	74	46
193	193	42
154	173	2
119	157	2
96	139	2
50	50	19
105	106	21
26	26	28
41	42	5
75	78	2
104	177	6
9	85	2
62	62	30
76	97	5
151	152	22
140	142	3
118	118	16
169	179	7
9	9	45
9	127	7
121	177	5
82	83	11
186	186	27
187	187	23
20	64	4
19	19	24
2	3	4
10	30	6
117	178	1
25	26	12
125	127	7
27	28	11
79	80	9
4	5	9
166	166	16
77	85	5
138	138	24
76	78	4
100	100	49
5	68	3
168	172	4
5	8	3
35	39	1
112	113	20
8	9	8
21	30	6
114	160	2
136	138	1
15	18	4
39	39	32
29	76	3
81	81	23
157	158	7
128	128	43
87	87	27
103	138	6
57	67	5
120	182	3
16	17	18
45	45	29
158	165	4
130	165	2
87	88	3
174	175	13
23	30	10
32	33	11
145	146	8
108	164	3
185	196	3
163	164	8
86	86	28
173	174	22
154	155	10
85	86	11
180	180	44
53	53	26
166	190	2
106	129	3
117	119	1
28	29	8
135	136	13
12	12	50
0	1	6
64	64	45
120	192	1
176	178	4
143	150	3
187	188	12
144	167	7
2	36	5
28	28	22
54	54	24
6	7	6
34	34	34
122	142	4
4	27	4
89	89	22
160	160	36
108	110	9
14	24	5
147	148	7
13	41	2
59	113	3
161	168	10
111	112	10
95	97	2
47	74	1
45	55	3
115	116	16
109	109	16
67	68	18
7	8	12
41	57	1
52	52	36
170	171	9
134	177	3
58	58	33
108	109	2
80	80	21
0	24	8
144	159	2
23	23	37
69	70	1
10	15	2
175	175	15
170	181	2
11	80	2
63	120	7
122	187	2
155	156	12
124	186	1
155	175	6
17	19	7
56	56	22
70	71	9
106	139	8
32	39	2
93	94	5
4	29	3
51	51	46
41	65	1
0	20	2
167	180	1
125	125	21
154	156	2
115	153	6
3	5	13
182	182	25
78	79	18
174	181	1
155	155	33
8	140	1
165	174	1
130	130	40
188	188	29
7	19	1
186	188	3
32	111	2
175	177	5
138	139	7
11	72	7
149	157	1
111	142	1
105	139	5
118	119	5
37	38	15
31	33	2
12	158	3
167	192	4
142	146	4
18	155	4
138	140	9
150	172	4
64	65	27
139	140	20
145	167	4
108	140	4
51	58	4
18	19	5
1	75	8
73	73	28
182	183	16
192	193	18
117	117	26
135	177	5
20	78	4
60	61	7
121	132	1
189	190	6
196	197	9
64	77	1
17	18	11
55	89	3
22	23	3
71	100	2
41	46	6
102	121	4
61	61	40
179	179	20
27	29	5
20	177	2
66	67	4
144	145	9
94	146	4
7	43	3
6	10	5
62	81	2
130	197	2
66	68	6
62	63	8
111	158	4
183	186	6
134	135	17
13	193	2
23	29	3
183	194	3
109	110	5
14	15	12
71	73	2
187	189	4
106	196	2
85	85	24
169	180	4
81	82	7
152	162	2
135	137	3
0	146	1
130	161	1
16	197	2
96	99	1
57	58	9
100	101	14
173	181	3
140	170	2
64	80	7
94	94	12
134	168	3
178	179	8
20	70	1
20	32	3
14	46	2
50	169	9
83	83	20
5	59	2
41	44	2
68	152	5
158	166	3
168	168	24
70	77	1
112	119	1
101	103	5
165	166	11
156	157	1
105	151	3
2	24	6
108	111	4
168	170	6
65	86	2
20	62	3
5	18	7
115	117	3
155	157	5
141	181	3
172	181	1
73	109	3
94	97	1
100	116	2
8	26	7
89	90	6
161	164	6
51	52	11
161	163	10
62	172	3
8	35	1
141	156	4
18	61	6
174	180	3
174	174	18
150	170	2
43	64	1
31	49	1
143	146	1
74	78	4
115	180	2
79	113	3
9	128	4
149	169	2
192	194	5
95	137	1
60	115	2
153	153	24
37	87	2
35	88	4
19	41	4
11	15	1
151	171	5
23	28	7
146	148	2
48	75	4
11	11	12
20	20	25
65	69	2
119	119	35
72	88	5
111	186	3
2	35	3
1	59	2
145	155	5
127	195	3
94	148	2
152	170	4
148	149	7
24	27	4
143	161	1
11	16	7
102	103	1
31	109	2
106	107	4
128	168	2
41	41	18
78	80	2
181	182	13
190	191	2
34	68	2
176	179	10
104	135	2
120	124	1
6	6	12
123	174	1
14	135	1
151	177	6
124	168	1
106	140	7
106	134	5
131	133	2
122	131	2
12	182	4
162	163	6
143	149	3
38	39	7
65	79	2
56	57	8
34	37	2
4	44	1
90	153	3
45	46	5
9	89	4
28	67	5
189	192	2
169	186	4
112	114	3
9	150	4
76	82	1
3	7	1
13	186	1
17	38	1
17	194	3
109	143	3
107	140	4
173	179	2
13	15	3
75	95	3
48	56	2
117	120	3
31	47	2
29	30	3
104	110	2
33	65	1
124	126	1
61	70	4
16	114	2
113	160	2
37	77	6
4	8	4
105	137	2
104	169	8
20	21	11
48	53	5
158	160	4
33	37	1
136	137	2
150	187	10
129	132	4
70	118	1
80	83	2
157	159	3
86	88	1
171	185	5
94	95	10
171	178	3
116	156	4
99	108	3
37	61	2
36	38	4
63	67	1
87	99	8
34	38	2
66	69	5
138	182	2
164	167	4
120	120	18
100	125	3
159	160	12
110	111	5
126	127	8
21	67	5
129	130	2
83	84	14
180	181	8
61	160	1
107	108	6
107	151	2
104	152	5
29	67	1
35	36	11
161	165	3
147	175	2
168	179	3
121	191	5
12	80	5
43	70	2
75	76	3
138	170	1
26	78	2
49	50	4
18	60	2
47	57	2
153	166	3
174	179	2
18	64	8
175	176	3
89	148	6
107	150	1
119	125	3
121	146	2
79	165	4
128	129	5
38	40	1
0	32	2
48	184	2
31	32	9
17	101	3
191	193	6
166	167	2
19	61	4
131	134	2
2	4	3
167	170	2
172	176	2
131	135	1
0	6	5
184	185	5
101	104	2
58	61	1
39	42	2
58	132	1
63	80	3
126	179	2
192	195	2
5	7	5
95	174	1
17	176	1
22	97	4
12	37	3
172	174	6
181	184	3
3	62	6
93	157	3
13	14	6
35	37	9
26	36	1
143	153	1
69	85	2
114	159	2
113	171	2
8	112	4
124	185	2
49	78	4
42	56	3
142	143	2
107	164	2
64	66	1
173	175	5
83	89	2
134	138	5
29	31	12
163	182	1
170	172	4
27	87	2
4	25	1
12	79	2
148	175	2
83	85	4
14	47	1
22	24	1
101	109	3
5	5	7
98	140	1
61	62	2
45	48	1
139	142	2
73	90	3
105	111	4
24	97	2
48	57	3
4	64	3
143	145	5
80	81	6
6	33	2
18	32	1
14	129	2
134	167	1
152	157	2
17	154	2
23	69	6
163	191	3
99	137	1
16	169	1
82	85	3
186	195	3
86	96	1
122	157	1
97	122	1
171	176	2
145	190	1
39	47	5
64	70	2
122	192	1
127	129	1
23	25	2
156	185	3
87	96	3
153	173	1
36	37	4
59	61	6
185	190	3
151	181	4
24	28	2
74	108	3
151	190	2
12	14	1
149	168	3
17	59	3
76	88	4
7	41	3
142	150	1
40	47	5
100	120	2
4	32	4
1	156	2
106	147	3
152	153	5
21	70	2
131	190	2
63	171	1
17	71	3
183	184	3
139	171	2
19	40	2
82	84	5
17	177	3
137	140	8
133	136	4
169	171	2
3	26	1
10	69	1
106	108	3
127	148	1
21	78	4
84	85	4
195	196	4
70	72	1
27	62	4
167	188	3
123	124	1
142	156	3
130	132	2
26	69	1
5	6	4
95	96	5
69	72	6
115	176	1
95	129	1
6	43	1
171	181	1
131	148	2
73	76	4
115	167	1
16	194	5
77	79	2
76	142	3
149	152	1
108	134	2
86	87	4
126	128	2
4	58	1
130	155	1
103	114	3
118	120	4
42	129	1
95	139	1
129	131	3
121	131	4
15	75	2
13	185	1
3	4	4
65	68	1
11	12	2
99	121	1
17	35	3
0	9	2
12	32	3
6	8	3
150	152	1
132	137	1
62	68	2
122	158	1
183	195	2
69	71	2
59	115	1
77	89	1
132	178	2
183	196	2
46	169	1
111	114	3
159	168	3
33	35	4
98	109	1
167	169	5
112	193	4
4	31	1
32	110	1
95	95	11
143	156	3
88	126	1
64	157	5
71	118	1
38	46	1
181	189	10
18	131	1
112	116	4
132	135	1
147	166	1
60	114	2
73	78	3
152	183	2
26	27	8
110	186	2
161	167	1
18	35	2
2	42	2
19	20	2
18	36	2
177	178	4
61	128	2
113	169	1
160	191	3
137	175	4
74	80	1
79	85	3
118	191	1
51	170	2
47	48	2
123	193	2
31	108	1
117	121	2
133	190	1
24	31	3
146	149	1
53	57	1
158	159	6
59	160	1
150	186	3
123	187	1
71	196	2
0	116	3
37	76	2
33	69	2
53	56	7
94	158	7
32	109	2
101	153	1
93	93	2
151	182	3
81	84	2
162	164	1
0	115	1
119	122	1
139	141	3
16	20	2
115	125	2
27	101	5
74	79	3
101	102	2
18	40	1
104	168	1
12	16	3
34	62	2
0	2	1
143	169	3
7	68	3
127	128	3
140	141	2
136	141	2
136	174	1
23	136	3
11	21	5
145	179	2
186	193	1
26	34	3
15	70	3
9	11	2
22	25	3
112	154	1
113	157	1
133	191	1
21	25	6
150	151	5
124	129	4
155	183	1
138	141	1
0	86	1
5	9	1
56	71	1
64	149	2
50	108	4
166	169	1
104	106	1
20	26	1
34	39	4
145	159	2
24	166	1
61	66	1
128	138	3
125	129	2
1	3	4
100	106	3
113	173	1
102	106	2
58	60	3
5	22	2
178	189	3
53	55	6
101	112	2
71	142	3
121	124	2
31	44	1
157	189	1
20	63	1
133	147	4
42	117	3
35	80	4
2	30	2
29	176	1
153	167	3
22	70	3
86	101	1
4	13	1
26	100	1
171	180	1
115	121	2
80	82	2
113	180	1
141	179	1
80	88	3
53	54	1
76	83	1
107	163	3
100	118	1
106	189	1
102	115	1
75	77	1
28	33	1
140	145	3
13	154	1
181	185	1
64	79	2
9	41	2
171	183	6
164	166	1
120	178	1
154	158	1
13	32	1
156	190	2
27	76	4
173	194	1
75	97	1
187	190	3
73	75	1
106	191	1
47	53	2
1	74	3
123	125	4
95	149	2
27	31	1
181	183	6
167	179	1
34	36	1
30	35	2
18	156	2
33	36	2
104	180	2
30	75	1
22	69	2
20	42	1
172	177	1
135	186	1
15	17	1
30	88	2
2	31	3
14	16	2
116	118	1
37	89	1
101	122	1
114	149	2
159	161	2
139	173	2
36	40	2
38	99	1
169	184	1
113	115	3
97	130	1
88	90	2
53	87	1
5	27	3
7	65	2
21	144	1
40	146	1
62	120	3
88	100	1
164	187	2
61	129	1
159	163	1
164	168	1
123	163	2
24	26	1
96	97	3
48	81	1
99	101	1
133	175	3
147	159	3
116	119	2
57	63	2
133	189	3
39	45	2
42	127	4
155	171	1
79	86	3
152	154	1
15	99	1
144	160	2
36	39	1
144	150	1
120	131	1
177	197	4
46	87	1
22	29	2
5	34	2
52	53	1
21	27	2
10	196	1
63	65	3
39	55	1
164	177	1
32	34	1
8	69	1
8	115	1
148	174	1
43	45	2
135	187	2
150	157	2
130	131	1
129	133	1
35	79	2
95	196	1
90	99	2
133	141	3
90	110	1
56	58	1
109	158	1
50	52	2
171	186	3
39	56	1
103	155	1
139	150	2
165	167	1
65	66	1
150	177	1
33	38	2
8	114	3
112	171	2
58	127	2
151	153	1
125	128	1
74	106	1
73	93	5
10	16	1
168	190	2
62	69	2
133	135	2
119	193	1
17	62	1
143	179	2
156	175	2
121	173	1
25	27	2
83	87	2
36	41	1
59	118	2
93	95	2
129	197	1
139	148	1
130	144	1
4	157	1
140	146	1
54	67	1
149	170	1
151	189	1
90	90	1
81	94	1
17	155	1
46	88	1
165	190	1
99	110	2
100	184	2
103	109	1
74	107	1
193	194	1
60	69	1
26	70	2
56	170	1
21	31	1
69	81	1
18	70	2
4	9	1
39	83	1
123	146	1
68	95	1
149	154	1
1	180	1
9	64	3
162	167	1
18	22	1
28	66	1
7	21	1
135	167	2
70	85	1
31	97	1
121	123	1
115	158	1
116	120	3
129	138	1
4	6	1
62	64	1
37	40	1
169	172	1
12	15	2
67	81	1
51	112	1
72	89	1
0	31	2
129	146	1
172	185	1
153	155	1
48	51	1
17	45	1
127	149	1
149	171	2
137	139	1
178	181	1
42	69	1
27	106	2
13	136	1
97	129	1
40	44	1
132	134	1
125	142	1
118	121	1
156	158	1
109	142	1
114	116	1
36	43	1
161	189	1
28	63	1
100	108	1
60	78	1
137	159	1
170	182	1
185	194	1
