95	95	9
88	88	2
119	121	6
103	105	5
176	176	3
10	11	1
61	153	2
143	143	7
159	160	5
124	124	5
72	72	12
2	4	4
13	44	6
129	142	2
38	38	12
12	12	13
110	113	5
107	109	3
16	16	14
172	172	10
94	94	9
107	133	4
89	89	9
8	8	13
4	4	7
28	33	1
78	78	7
54	54	10
75	75	17
61	61	11
128	128	6
115	115	5
167	167	6
165	166	9
144	145	2
159	163	4
54	55	7
73	73	11
159	159	16
129	129	8
155	156	6
150	171	3
74	74	11
120	120	5
155	155	9
79	79	6
160	160	6
162	162	7
32	32	2
88	124	3
68	68	8
81	81	9
156	167	5
112	112	3
101	102	6
4	20	1
180	180	4
168	168	14
2	2	3
130	141	1
127	127	8
71	71	3
75	129	3
132	149	2
17	23	2
96	126	6
20	20	5
138	138	17
54	63	2
83	84	4
108	108	2
51	51	9
11	12	5
169	169	6
59	63	2
117	117	7
142	144	2
88	90	1
152	152	15
18	19	6
26	29	4
111	113	4
49	53	1
86	86	11
79	96	7
18	18	10
5	5	8
11	11	18
115	118	1
161	161	9
110	110	14
168	169	1
39	39	2
64	64	8
142	173	4
58	59	3
148	148	18
103	103	3
18	21	2
125	125	1
56	56	7
115	116	6
134	135	4
24	24	6
132	178	5
140	140	9
121	122	6
100	100	4
154	154	3
39	40	10
17	17	7
167	176	2
57	57	5
167	168	8
77	77	7
19	20	6
126	128	4
92	92	9
122	122	13
137	176	2
171	171	14
123	123	14
117	118	2
130	130	4
60	61	2
154	155	6
118	118	7
173	174	7
73	74	4
37	38	5
153	153	17
49	49	5
2	3	1
3	3	7
104	104	2
63	63	1
76	76	2
158	168	5
92	93	6
41	41	9
25	25	7
127	141	3
65	66	7
137	137	10
90	90	10
50	51	3
84	84	11
106	108	4
106	106	17
78	79	9
27	27	9
55	55	4
6	6	5
1	24	1
33	33	11
120	121	1
29	29	8
141	170	1
12	13	4
32	88	3
59	61	8
23	23	6
25	26	3
35	35	6
52	52	4
36	36	7
9	9	9
160	164	5
137	138	4
26	27	6
123	124	13
136	136	3
142	174	1
139	139	11
81	82	1
72	74	3
126	126	6
108	109	4
109	109	7
166	167	4
7	7	7
42	42	6
151	151	7
54	56	11
148	150	1
132	132	8
158	158	5
157	164	1
7	25	3
58	58	6
88	89	14
89	118	4
61	67	2
85	85	8
157	157	5
56	57	5
153	154	10
14	14	14
15	15	5
13	16	1
30	54	3
97	97	11
117	119	2
105	106	3
97	98	4
65	65	5
1	2	14
19	19	2
20	81	5
37	37	4
164	164	10
99	99	5
145	146	2
53	58	2
66	66	9
72	76	1
53	57	4
76	77	8
145	150	4
7	27	2
109	110	2
93	93	3
175	175	8
15	17	8
39	45	1
83	83	10
60	60	2
133	133	3
76	78	9
146	146	4
121	121	7
42	43	3
12	54	2
28	28	8
62	62	2
34	34	7
43	43	5
119	119	1
97	130	1
161	164	4
110	131	2
30	30	8
40	40	2
164	165	4
136	137	8
97	100	2
143	144	6
38	39	5
21	21	8
62	63	4
133	147	3
94	95	8
115	147	3
17	18	5
107	107	4
100	119	4
118	119	3
12	73	3
54	132	1
45	45	5
133	134	6
5	23	6
96	97	4
147	147	6
93	94	9
9	10	3
142	143	10
67	68	6
145	145	12
26	38	2
172	173	5
84	86	3
30	31	3
70	70	2
131	131	13
101	104	3
165	165	7
132	168	3
21	23	3
135	135	8
71	73	2
174	174	2
141	142	5
150	150	3
51	52	2
3	5	2
1	1	2
147	148	3
94	115	4
66	67	4
132	146	2
172	176	2
116	118	4
72	77	1
31	31	6
57	67	3
26	28	3
36	41	1
124	125	3
91	91	3
61	62	4
61	83	4
39	42	1
149	149	7
21	46	1
127	128	3
142	142	6
102	103	3
99	100	1
141	141	16
33	34	2
154	156	5
166	166	5
38	45	2
92	116	5
52	53	2
144	151	2
58	61	1
146	150	1
28	32	3
82	82	4
71	79	1
113	113	4
132	167	1
59	59	8
15	18	2
86	87	4
170	171	1
71	72	4
36	37	4
110	111	7
26	26	4
116	121	1
134	137	4
39	52	4
173	173	7
111	111	5
155	166	2
149	178	1
144	144	13
155	168	4
38	44	1
80	80	9
12	58	2
87	87	10
138	139	2
160	161	5
129	131	5
135	158	1
95	102	1
151	152	7
120	162	1
114	114	3
117	127	5
129	141	1
156	168	2
105	105	5
5	8	1
150	151	3
36	38	1
175	176	5
171	172	3
66	72	1
89	125	2
126	127	1
136	142	2
100	101	4
112	122	3
135	157	4
53	53	8
13	13	7
139	140	2
5	6	5
60	85	1
96	96	10
104	105	2
177	177	1
101	101	1
179	180	3
40	41	1
110	127	1
15	28	2
84	85	1
111	112	2
67	67	4
74	75	3
52	54	4
13	14	2
110	112	2
79	123	1
11	24	2
112	142	3
85	86	2
103	109	1
105	107	2
143	151	2
103	104	2
102	120	1
82	83	1
130	131	1
24	35	1
106	107	4
24	25	1
95	96	1
75	126	3
30	62	3
134	149	3
50	50	3
147	154	1
36	39	2
152	153	1
102	102	1
171	180	1
122	146	3
78	96	1
16	45	1
156	156	2
145	154	2
27	43	1
119	128	2
169	170	2
161	162	1
116	127	2
94	152	2
90	132	1
57	58	4
119	120	1
159	161	1
156	158	1
170	170	4
163	163	3
44	45	1
127	140	1
136	157	1
16	23	1
28	30	1
113	129	1
12	15	1
74	95	3
123	130	1
150	152	1
24	26	3
149	167	2
133	174	2
98	102	1
146	155	1
179	179	2
103	120	2
140	141	1
87	137	1
15	30	1
91	92	1
158	162	2
15	16	4
72	86	1
11	44	1
150	153	1
77	102	1
160	162	3
106	144	1
110	128	2
5	29	1
88	144	2
157	158	1
18	22	2
22	23	1
134	134	1
8	9	1
4	5	1
60	63	1
59	62	1
113	128	1
20	82	1
6	23	1
131	139	1
16	17	3
113	127	1
64	65	1
7	21	1
0	0	1
114	126	1
88	91	1
80	81	1
