106	106	7
9	102	3
74	75	2
119	120	5
10	35	3
91	92	4
17	92	7
117	117	1
58	58	3
32	33	7
53	56	2
27	27	5
8	61	2
109	109	4
121	121	7
9	9	6
77	77	3
66	66	10
83	85	3
38	68	4
124	124	2
66	68	1
113	113	3
33	33	3
3	34	1
25	25	5
21	23	2
134	135	1
20	34	1
120	136	3
62	63	2
81	81	6
76	76	4
98	98	2
38	39	3
1	3	3
52	52	3
116	116	2
53	53	3
122	122	7
99	99	3
3	18	1
62	62	9
127	130	6
115	116	2
52	53	2
103	103	4
99	145	1
79	79	4
137	137	6
70	71	2
19	19	1
79	80	3
28	28	3
47	137	2
79	81	1
93	94	3
115	115	5
61	61	10
9	20	3
8	9	1
59	59	5
105	105	5
47	47	4
49	49	2
144	144	3
40	132	5
112	113	7
68	126	1
40	128	4
55	55	6
94	94	2
19	24	1
37	37	1
74	74	3
123	124	6
32	32	2
41	41	2
90	91	3
39	42	1
15	15	3
48	49	2
4	31	2
48	48	2
102	102	7
138	138	1
6	6	2
137	140	1
104	108	2
127	132	1
82	86	3
42	42	3
8	102	4
13	13	1
18	18	1
136	137	5
17	17	2
29	29	2
2	33	1
127	131	2
95	95	4
87	89	3
39	39	5
132	132	1
133	140	2
104	104	2
112	112	2
135	135	1
126	126	5
143	143	2
38	38	4
96	96	5
137	139	5
4	4	1
137	138	2
16	78	1
101	102	1
117	133	1
83	83	1
80	92	1
131	131	3
10	10	1
89	89	1
100	100	4
126	130	1
58	59	8
60	60	3
63	63	1
16	16	3
99	143	1
20	21	2
23	101	3
142	142	2
60	108	1
50	53	3
30	91	2
97	97	2
69	69	6
2	21	1
49	52	2
64	66	1
47	128	3
82	84	3
123	123	3
125	126	3
67	68	1
57	57	3
75	75	1
89	90	3
140	141	2
118	138	1
69	79	1
121	129	1
8	30	2
64	64	1
6	100	1
86	86	1
121	142	1
14	16	2
16	17	1
129	139	2
65	65	1
42	49	2
51	52	5
81	83	4
25	28	1
87	87	1
114	114	1
128	128	1
71	71	1
38	130	1
54	54	2
133	135	1
1	2	3
60	61	1
30	30	2
91	91	1
61	62	1
21	21	1
56	57	2
90	90	2
93	93	1
41	42	1
111	111	1
20	20	1
18	92	1
43	43	1
134	134	1
118	118	1
130	131	2
120	120	1
136	136	1
18	27	1
65	106	1
20	35	1
