204	205	3
218	219	10
98	98	4
90	90	10
248	248	3
1	1	12
214	221	4
101	101	12
208	208	6
81	81	12
29	30	5
22	22	12
53	53	12
184	188	4
158	158	4
60	60	13
83	83	12
44	44	10
30	36	1
25	25	7
95	96	3
103	103	9
236	238	2
15	25	2
231	231	13
40	40	15
153	153	29
120	120	11
235	235	19
5	57	4
54	54	13
78	78	13
86	86	19
153	161	1
8	19	1
213	237	1
48	48	12
237	238	3
66	67	7
226	229	1
27	111	2
68	173	5
177	181	4
206	206	7
182	182	12
22	23	12
45	45	15
89	90	4
38	38	26
183	183	24
98	145	2
227	227	14
221	221	8
218	218	11
31	32	3
67	67	34
55	92	5
111	113	3
224	224	11
89	89	17
88	88	5
183	185	5
228	228	12
201	201	25
49	50	2
104	104	4
72	79	1
65	186	8
202	202	8
31	46	4
94	179	3
165	165	13
189	189	8
36	36	23
229	229	10
106	106	10
212	212	17
168	168	20
66	66	21
165	191	1
161	161	13
27	27	8
39	39	12
199	211	6
243	244	7
169	169	11
113	113	18
156	156	18
37	48	3
224	226	10
20	20	17
92	92	18
197	199	1
59	68	8
245	246	5
159	159	11
4	4	9
232	232	18
18	18	19
61	62	6
43	44	3
13	47	1
213	213	24
79	80	2
23	23	17
68	70	3
56	57	6
165	205	4
146	147	4
219	219	14
71	71	15
171	172	12
209	210	8
59	97	8
81	82	8
70	70	5
145	150	2
61	61	17
175	175	10
198	198	13
12	12	18
77	78	6
33	33	16
234	234	9
84	85	3
29	29	6
94	178	4
96	97	11
93	93	17
42	42	9
7	7	5
37	37	6
203	204	9
215	217	7
82	82	9
94	94	21
24	24	11
160	160	12
204	204	33
173	245	2
214	240	2
225	225	5
119	119	9
79	79	12
176	176	6
192	192	11
201	203	4
224	230	3
164	165	4
217	217	22
233	233	2
28	28	25
171	193	2
41	41	12
173	173	7
170	170	14
19	19	13
74	74	3
222	222	16
200	221	6
163	163	12
3	3	6
26	34	4
81	87	1
230	231	2
169	197	2
11	11	8
23	61	2
11	12	3
168	197	1
118	118	19
10	10	14
228	229	8
75	75	20
109	109	9
71	82	2
151	151	25
187	188	8
211	211	11
165	192	3
100	100	13
55	85	1
179	180	6
66	186	5
8	8	17
65	68	3
163	167	1
237	237	10
40	48	2
59	78	2
41	42	3
205	226	5
180	180	17
26	30	5
63	63	15
68	68	4
157	177	2
67	68	7
93	94	7
175	176	8
111	111	3
179	179	6
158	177	2
110	111	2
112	113	7
205	205	15
38	51	3
172	172	5
172	182	3
61	99	1
5	5	7
207	208	2
245	245	8
211	242	2
195	195	7
152	158	2
55	55	11
44	46	2
34	34	7
150	150	16
243	243	4
110	110	11
88	89	3
77	77	12
117	117	15
186	186	11
85	85	20
115	116	6
199	201	3
246	247	7
200	200	23
192	193	9
8	9	4
17	17	15
69	69	5
24	25	5
220	220	19
242	242	3
223	223	6
201	205	4
54	55	5
223	225	1
210	210	17
166	166	15
238	238	6
146	209	2
214	214	14
85	86	9
165	166	9
226	226	14
97	97	8
43	43	11
95	95	8
2	2	5
236	236	7
91	91	5
14	26	3
78	79	5
96	96	12
45	50	4
157	157	10
169	170	3
154	154	12
30	30	17
213	236	1
32	32	10
181	181	8
196	222	2
38	53	2
171	171	16
146	146	6
225	226	6
99	245	4
72	72	14
159	179	6
81	99	10
177	177	10
59	79	1
21	21	10
6	6	12
236	237	3
16	16	17
100	103	1
47	47	15
169	189	10
153	248	9
182	187	2
26	26	9
104	109	4
168	169	3
56	178	2
161	223	3
167	197	3
197	197	14
207	209	4
86	87	1
167	172	7
117	120	1
105	105	2
52	52	4
224	234	3
210	249	2
91	180	1
213	220	5
213	214	3
105	166	2
108	151	2
199	200	1
176	182	1
50	50	4
176	178	5
149	149	4
246	246	7
153	154	2
167	167	12
225	229	3
21	22	2
6	111	3
244	244	14
240	240	10
196	196	8
16	30	5
31	34	1
153	155	2
155	155	6
107	175	3
231	232	5
44	45	3
70	71	3
51	51	7
8	20	4
220	221	1
221	237	1
37	50	3
76	76	4
164	233	4
100	102	3
13	35	1
71	169	1
11	46	2
115	115	13
203	203	13
227	228	3
38	39	4
115	120	1
62	93	2
244	245	4
117	144	4
69	70	3
2	8	3
215	215	15
81	84	1
145	145	5
37	45	3
189	190	6
178	181	3
207	207	6
47	48	5
109	116	2
14	15	5
231	235	1
87	87	6
60	62	3
184	185	7
104	105	3
25	150	4
171	190	3
174	176	4
208	211	5
61	95	3
2	3	3
62	62	8
217	219	1
30	31	3
117	118	1
82	83	6
40	81	3
208	209	4
164	164	6
65	66	1
176	181	3
102	102	3
72	76	2
150	206	2
178	178	6
247	247	8
209	209	5
84	86	3
104	108	1
144	145	5
63	64	2
80	81	1
61	86	2
61	87	3
114	114	14
9	9	8
31	39	1
212	213	2
53	96	2
206	209	1
84	84	7
64	65	2
31	31	12
36	70	1
152	176	1
75	77	5
73	76	1
212	240	4
40	76	2
164	206	5
201	202	1
36	145	2
42	43	1
223	229	2
157	242	2
76	77	4
21	51	2
72	170	2
81	88	4
17	21	3
179	203	2
174	174	6
239	239	8
176	177	2
56	58	2
112	112	13
194	194	2
20	30	2
221	222	2
6	28	3
216	216	7
185	186	2
226	227	4
52	63	1
82	85	5
96	175	4
222	223	3
55	93	2
162	162	2
59	59	12
153	234	1
191	191	7
190	191	3
224	225	3
189	192	2
116	116	10
46	47	6
94	100	2
94	95	6
66	185	1
35	35	4
57	60	1
53	54	2
216	217	5
46	46	3
229	230	5
5	6	5
188	188	10
92	94	4
80	80	8
24	28	3
71	73	3
178	179	4
230	230	11
18	101	1
183	184	1
158	246	2
65	65	12
92	93	8
64	64	3
184	193	1
174	177	2
73	74	3
6	7	4
163	221	1
213	217	3
160	173	4
182	183	5
170	171	1
27	28	3
40	41	8
55	56	2
206	207	8
95	97	1
56	88	2
57	57	5
24	152	2
6	27	1
96	246	2
184	184	12
36	50	1
199	199	17
108	108	5
210	211	7
28	29	1
116	117	4
76	99	1
56	56	9
57	58	4
82	172	1
190	190	5
181	187	2
4	6	1
163	193	1
73	73	1
64	68	3
69	174	1
14	24	3
81	100	1
7	18	4
19	21	4
19	20	1
108	119	1
146	210	3
116	120	2
26	28	3
34	109	2
20	55	1
209	233	3
169	246	2
37	38	4
3	9	1
96	247	3
72	189	3
172	175	1
193	193	2
99	100	3
22	24	1
99	99	3
37	39	1
15	15	3
107	107	3
59	118	1
91	183	1
49	49	3
92	152	2
147	147	9
3	27	2
90	178	1
55	57	1
214	222	1
56	182	1
167	171	2
234	235	1
241	241	1
87	88	3
165	235	1
93	179	5
14	14	2
195	221	1
27	29	1
181	182	2
49	76	2
156	160	1
91	184	2
197	200	1
154	155	2
182	186	1
168	240	2
37	93	4
111	112	6
49	72	1
200	202	1
184	221	1
214	219	1
61	63	2
15	30	2
218	220	2
50	74	3
205	225	1
215	237	2
172	173	1
195	196	3
152	233	2
164	234	2
166	167	2
158	159	1
213	240	1
160	172	1
242	244	2
65	84	2
180	181	1
71	83	1
17	54	2
212	235	1
242	249	3
29	48	1
245	248	1
80	90	2
68	174	1
21	30	1
83	84	1
85	95	2
36	37	1
215	216	1
60	61	1
173	174	2
211	212	1
205	207	1
108	178	1
26	113	1
48	49	2
178	180	2
64	70	3
18	19	3
212	214	2
71	72	1
235	236	1
202	235	1
58	58	2
106	107	1
197	198	1
220	222	2
2	20	1
154	218	2
4	112	1
233	234	1
153	230	1
67	185	2
77	92	1
232	233	4
239	240	3
231	233	1
32	40	1
43	46	3
188	196	2
23	24	3
32	33	3
20	21	1
161	230	1
45	46	1
4	5	2
213	225	1
220	240	1
159	181	1
49	74	2
162	163	1
104	107	3
168	244	1
57	89	1
50	72	3
81	97	1
26	27	3
46	144	1
3	10	2
170	190	2
110	114	2
219	220	2
10	17	1
91	93	2
213	215	1
101	102	2
59	111	1
187	195	1
242	243	1
57	61	1
165	232	1
215	219	2
160	161	2
24	27	1
91	178	1
221	238	1
238	239	2
64	67	1
172	246	3
231	234	1
52	62	2
75	76	1
62	63	1
188	189	1
151	176	1
60	64	2
185	185	1
245	247	2
200	201	1
159	160	1
93	180	1
63	67	1
29	49	1
217	218	2
43	47	1
53	59	1
75	91	1
187	194	1
78	97	1
115	117	1
8	27	1
215	218	1
3	6	1
34	65	1
157	178	1
51	52	1
116	119	1
39	184	1
84	87	1
32	36	1
42	48	1
68	69	1
