117	117	6
2	2	9
120	120	12
38	38	5
115	116	5
119	119	13
28	48	8
75	75	11
85	85	9
87	88	7
58	84	1
16	19	3
15	21	4
106	109	1
59	60	9
69	69	6
14	14	10
97	97	2
94	94	10
118	118	7
124	128	2
19	20	3
6	7	2
77	80	3
108	121	4
79	79	14
65	65	3
107	109	8
13	13	9
30	31	2
127	127	4
17	17	7
68	69	2
72	72	12
64	64	12
112	112	7
4	4	5
128	128	5
19	19	1
20	20	5
61	62	1
34	34	8
13	14	2
14	27	6
57	57	12
25	25	7
62	62	10
46	47	6
89	89	6
63	63	6
44	44	3
5	5	6
15	16	7
95	96	2
41	43	1
12	22	5
121	121	10
92	92	5
33	33	14
45	45	2
64	65	2
134	134	4
15	15	5
7	7	6
59	83	1
66	66	5
11	11	7
133	133	9
26	71	1
49	50	2
15	20	6
37	42	1
115	115	9
23	23	17
12	12	7
112	116	2
27	27	12
48	48	1
42	42	6
110	110	1
57	86	2
101	114	6
11	12	7
42	43	3
107	107	7
1	1	12
22	24	2
103	103	3
111	111	5
131	133	2
125	125	3
96	96	5
5	25	1
9	9	5
113	113	3
4	7	2
123	123	5
102	102	9
41	41	4
3	3	3
109	110	2
113	122	2
73	73	6
95	95	4
26	26	7
110	112	3
90	90	5
113	121	2
30	30	15
116	116	4
6	6	2
29	29	4
4	6	6
26	27	6
36	36	4
118	119	1
99	100	1
8	8	3
68	68	5
102	115	3
105	105	5
96	98	3
130	130	3
13	25	2
55	55	4
130	132	2
97	104	4
78	78	6
80	80	1
31	31	1
82	86	1
81	81	6
67	67	3
45	46	1
10	10	5
40	41	2
122	122	7
19	45	1
34	35	6
86	86	2
37	37	5
16	17	3
126	134	3
101	101	5
104	104	4
96	102	3
43	43	7
5	7	4
29	31	3
91	91	5
74	75	3
77	77	4
13	22	3
44	45	4
59	59	9
112	114	2
38	42	2
36	37	4
71	71	3
82	82	2
108	108	14
15	28	2
93	93	1
110	111	2
58	87	2
33	61	3
88	88	2
1	2	2
83	83	4
58	58	3
0	0	2
131	131	3
56	56	3
28	28	2
33	36	2
51	55	1
84	84	3
29	30	1
75	76	3
24	24	2
61	61	3
105	106	2
29	36	1
74	74	4
3	73	1
14	16	1
124	125	2
15	29	2
86	87	1
106	106	3
127	128	2
55	57	2
32	32	2
91	92	1
38	41	3
40	40	2
27	28	4
21	21	2
60	60	1
131	132	3
87	87	1
85	86	3
35	35	2
129	130	1
20	21	1
98	99	3
18	20	1
90	91	1
78	79	4
92	93	2
77	78	2
16	16	2
109	109	1
29	37	1
126	126	1
62	63	1
70	70	1
76	77	2
48	49	1
120	121	1
110	113	1
41	42	2
43	50	2
73	74	1
132	132	1
126	132	1
117	118	1
