108	108	12
22	22	20
130	130	14
25	25	10
17	17	16
57	57	17
81	82	19
5	34	6
55	56	5
143	144	7
43	43	17
111	111	10
79	79	6
139	139	20
30	31	3
4	102	2
53	62	1
67	67	5
20	22	7
8	10	7
49	49	14
127	127	13
123	123	15
87	87	6
105	106	6
109	110	9
42	42	11
16	16	13
74	74	9
19	19	14
95	98	2
44	45	2
125	125	11
54	54	24
119	119	5
104	104	14
80	88	3
98	98	7
40	41	6
96	97	2
70	118	3
92	92	12
50	103	4
33	33	2
142	145	5
122	124	4
20	20	6
142	148	3
30	30	10
126	148	4
142	142	10
99	104	4
10	23	2
153	154	4
34	34	8
24	24	14
135	136	7
36	36	4
3	102	1
40	40	19
115	117	2
121	121	15
114	117	2
81	81	10
6	6	19
73	73	14
45	45	6
66	67	8
75	75	10
67	120	6
63	121	3
27	27	10
5	33	8
102	103	7
107	107	5
2	2	3
127	147	6
23	23	9
85	85	8
96	96	4
112	112	11
122	122	8
62	94	1
136	137	5
19	20	7
133	133	13
4	31	5
50	50	13
97	98	2
13	36	5
110	110	9
116	117	7
85	87	2
99	99	14
82	83	3
148	150	2
115	115	6
100	100	14
13	19	4
139	152	2
72	72	6
8	9	3
8	8	3
89	90	3
76	76	5
110	111	7
77	77	6
86	87	2
118	118	11
8	47	1
42	43	3
22	23	5
106	106	11
44	44	9
97	97	10
7	58	3
53	54	9
150	150	8
52	53	4
151	151	5
68	120	4
86	86	10
128	128	6
12	12	11
51	94	3
120	121	4
124	124	14
13	13	26
95	100	6
127	148	1
145	145	5
129	129	10
80	82	4
130	131	3
75	76	12
11	37	12
64	64	13
5	5	8
84	84	8
48	48	12
93	94	4
146	146	14
71	114	7
4	32	6
138	139	15
135	135	4
42	44	3
31	31	10
27	30	7
50	94	2
9	9	19
126	146	7
5	7	3
26	26	4
138	138	4
135	147	5
68	69	3
11	38	3
27	29	1
57	58	5
70	70	7
36	37	5
50	51	7
67	68	6
87	88	4
19	35	6
15	15	17
132	132	13
11	11	13
55	65	4
6	7	9
72	74	1
8	102	8
39	40	6
12	20	5
141	141	8
146	148	6
75	115	2
137	137	9
38	38	10
39	39	12
134	148	5
6	58	5
73	75	2
136	136	12
32	32	18
147	147	10
119	120	6
133	141	2
120	120	5
17	18	8
119	121	6
115	121	2
85	86	2
92	93	4
94	95	3
23	24	2
149	149	7
152	152	7
49	97	5
113	113	12
68	119	2
123	124	3
21	21	6
104	105	4
46	47	1
3	3	11
109	109	9
33	35	3
6	34	3
114	116	5
25	26	3
82	82	13
100	101	7
80	81	5
4	19	2
47	47	11
103	104	5
108	109	7
103	103	12
53	53	8
88	88	3
28	28	9
124	125	5
90	90	1
10	10	5
79	142	5
140	141	3
43	44	5
35	36	1
134	134	7
53	69	4
14	14	10
71	78	1
5	8	4
123	125	4
16	18	3
6	8	1
72	73	2
126	127	6
94	94	13
105	107	1
16	17	4
131	132	8
24	29	3
22	32	3
25	106	2
71	76	3
65	65	13
32	35	4
37	37	13
7	7	9
41	42	1
56	56	7
151	152	3
75	77	1
27	28	6
64	65	4
116	116	2
132	141	4
49	103	5
101	102	2
129	130	4
125	131	1
154	154	8
51	51	3
47	51	2
21	22	3
119	122	3
117	117	3
6	57	3
93	93	7
137	138	6
91	91	3
68	68	2
7	8	10
77	124	1
83	140	3
33	36	3
18	18	9
38	40	1
141	142	5
66	68	6
62	117	3
95	103	4
55	55	4
105	108	2
106	107	6
48	50	1
127	128	4
71	71	5
11	36	8
143	145	1
9	46	2
105	105	16
143	143	3
131	131	3
10	38	2
69	69	5
137	150	1
63	64	1
122	123	3
45	47	5
13	14	1
17	20	1
32	36	6
5	43	2
66	66	3
83	84	1
41	41	8
112	113	2
2	3	4
99	100	2
142	144	3
48	100	2
98	99	4
30	32	1
12	19	1
78	79	1
78	132	2
71	118	1
83	83	5
148	148	2
13	37	1
4	101	2
125	127	2
93	111	5
140	140	2
15	16	5
114	114	3
4	5	1
46	46	4
29	29	1
136	138	2
48	49	3
14	15	3
4	4	10
133	134	3
77	115	2
153	153	3
121	122	4
89	89	5
126	126	7
138	144	1
144	144	5
65	68	2
10	46	2
136	154	1
8	46	1
97	109	2
40	46	1
144	145	2
95	111	1
117	118	2
7	103	2
47	57	1
28	29	2
132	133	4
141	143	1
95	96	3
77	80	1
47	48	2
113	114	2
128	129	2
94	97	3
70	71	2
145	146	1
115	116	4
64	68	5
33	101	3
62	62	3
62	63	1
49	50	3
32	33	1
78	78	3
38	39	2
95	97	2
102	102	4
101	101	3
38	42	1
79	144	2
63	63	1
9	10	1
25	30	4
31	32	3
94	115	5
71	113	1
84	87	1
16	21	1
4	35	1
8	48	1
73	123	2
114	118	1
75	122	1
79	145	2
18	21	1
95	95	2
73	74	1
45	46	3
123	128	1
76	77	1
71	72	1
70	74	1
78	126	2
94	96	2
95	99	1
80	80	1
140	143	1
32	34	1
115	119	1
49	51	1
96	98	1
94	117	1
20	21	1
35	35	1
56	57	1
101	103	1
100	102	1
149	150	1
81	85	1
128	147	1
26	28	1
