157	157	8
68	69	1
8	25	4
94	94	3
21	21	2
29	29	10
123	123	7
20	20	3
30	31	6
37	37	8
94	112	3
4	182	5
14	55	3
18	23	3
0	153	2
187	187	2
57	57	4
158	161	1
9	9	4
157	160	2
68	68	4
165	165	5
156	157	4
170	170	3
145	146	1
162	163	1
78	95	2
84	84	7
102	102	3
27	28	1
103	103	6
151	151	5
168	168	2
36	56	2
121	121	2
160	161	2
8	8	6
155	166	2
178	179	2
40	41	1
103	127	4
149	149	1
36	36	3
14	14	1
4	4	3
106	142	6
7	7	6
113	113	3
159	159	3
138	138	4
16	47	3
188	189	2
109	109	3
2	2	2
31	31	5
154	154	2
157	161	1
16	38	2
157	165	2
138	139	2
2	3	2
89	89	4
18	22	2
190	190	1
99	99	5
10	19	2
152	153	7
134	135	1
22	23	1
45	45	3
139	157	1
69	81	3
185	185	3
145	145	1
142	142	3
148	148	9
91	94	3
91	91	4
40	40	7
19	23	2
140	140	6
96	96	4
139	140	4
180	180	3
85	86	2
48	48	8
108	112	1
13	56	1
169	169	2
184	184	5
26	93	1
13	13	5
58	68	1
80	80	1
22	146	2
86	87	1
56	56	2
18	145	1
6	6	4
78	79	2
182	182	1
108	109	4
38	38	6
13	16	1
60	61	1
160	163	1
144	144	3
78	78	1
17	185	2
170	172	2
147	147	1
128	128	3
16	17	2
143	144	7
150	150	4
16	16	2
41	42	2
117	118	4
67	67	1
119	120	1
153	153	2
11	11	6
93	109	3
95	95	3
141	141	3
0	0	1
108	108	1
48	49	2
72	72	2
139	139	4
3	3	3
19	22	3
56	57	1
87	87	2
186	186	1
60	60	4
119	119	2
117	119	1
114	116	1
30	30	1
34	34	4
17	17	2
65	67	2
167	169	3
70	79	1
126	126	1
52	54	1
100	100	2
105	105	5
128	133	1
161	161	2
179	179	1
9	10	1
14	15	3
155	155	1
183	183	3
97	98	2
75	75	1
10	12	1
87	88	2
77	78	1
67	68	3
114	114	1
83	83	5
62	62	1
82	82	1
63	64	1
131	132	3
47	185	1
47	47	4
80	81	2
22	22	3
176	176	1
160	164	3
158	159	1
41	41	3
44	44	2
77	77	2
127	127	2
70	80	2
189	189	2
19	19	3
107	143	1
32	35	3
146	146	3
114	115	1
28	28	1
166	166	4
113	114	1
158	158	1
46	46	1
27	37	3
167	168	1
177	177	2
175	176	1
64	64	1
154	170	2
101	102	1
171	171	1
142	150	1
27	30	1
132	134	1
87	101	1
171	172	1
176	179	1
59	59	1
62	63	1
94	95	1
33	35	2
46	188	1
76	76	1
83	85	2
81	82	1
53	53	1
54	54	2
88	88	2
32	32	1
95	96	1
132	133	2
27	31	1
103	124	1
39	39	1
123	125	1
