7	8	7
189	189	15
24	24	12
109	109	9
53	54	5
127	128	4
111	119	2
26	26	10
178	178	9
62	62	12
92	94	7
64	64	8
87	88	4
78	78	9
11	18	2
111	111	16
132	132	11
59	59	13
140	141	2
29	43	5
55	150	3
32	35	6
171	171	12
134	135	3
72	104	4
72	72	4
32	33	9
37	37	21
117	117	9
2	2	20
42	44	3
43	43	10
113	119	3
134	136	7
73	73	6
166	166	6
4	4	4
160	160	12
64	99	6
143	143	4
108	163	1
116	116	3
47	48	1
177	178	4
120	120	8
105	105	9
104	105	6
162	163	7
125	125	23
185	185	9
161	167	7
61	61	6
97	100	3
130	130	7
97	104	5
17	17	13
138	138	22
20	28	1
30	44	2
46	46	8
58	124	2
77	77	6
79	79	8
140	140	10
30	30	5
7	7	8
12	12	11
99	99	8
19	20	7
79	85	3
48	117	1
56	149	1
11	11	6
92	173	2
58	58	6
8	8	5
157	157	14
126	126	6
27	30	3
62	63	2
118	118	6
85	85	11
38	38	4
75	81	1
113	113	8
172	172	14
115	115	7
92	174	1
102	159	2
38	39	2
181	183	4
151	151	18
56	62	3
15	15	11
21	21	10
99	125	6
175	175	15
148	150	4
142	142	11
158	158	14
139	140	5
183	183	12
67	67	5
188	189	8
93	93	2
48	48	15
94	94	9
110	110	10
81	81	13
14	14	6
154	154	6
6	6	9
20	56	2
104	104	8
4	7	10
92	92	5
156	156	3
59	61	1
95	95	9
145	146	6
102	102	13
4	5	8
99	124	3
15	16	2
121	122	6
103	103	6
173	173	5
141	142	2
188	188	5
1	1	10
63	139	6
114	118	2
74	75	5
22	22	5
46	47	2
16	17	1
182	182	7
76	77	4
136	136	2
128	128	10
5	6	3
116	117	1
26	28	1
147	147	6
97	97	13
168	168	9
20	27	3
155	155	7
181	184	6
73	74	6
167	177	1
91	91	12
187	187	3
164	164	8
49	49	4
107	107	7
144	144	4
136	137	1
119	120	4
106	107	3
18	18	3
20	20	4
181	182	4
162	175	3
40	41	6
60	60	4
177	177	7
136	186	3
14	15	3
71	71	7
47	47	9
13	14	3
98	113	4
19	19	15
27	27	6
13	17	4
66	68	7
33	33	16
147	148	4
179	179	6
146	146	14
153	153	8
75	108	5
190	190	9
131	141	5
2	154	3
137	137	5
176	177	1
28	29	3
155	156	4
123	128	2
45	46	1
10	10	2
167	175	1
54	55	5
108	108	3
29	30	2
70	135	7
55	55	12
119	119	2
141	141	9
131	131	8
45	45	8
125	173	3
86	145	2
8	155	3
98	100	1
17	18	4
90	127	4
56	184	1
35	36	1
8	9	2
42	42	4
116	118	1
66	67	1
186	187	1
129	189	1
75	75	3
8	156	3
154	155	5
82	82	11
167	167	7
3	3	11
69	69	1
35	35	5
111	124	5
56	56	9
54	54	4
23	23	3
21	56	3
16	16	10
80	80	8
39	39	10
165	170	1
88	141	3
164	165	4
23	24	4
132	190	1
56	156	2
127	127	9
129	129	3
20	57	6
32	36	3
79	81	2
0	0	4
186	186	8
40	40	8
31	31	4
151	152	2
25	25	5
187	188	1
98	104	1
134	134	3
121	170	4
46	48	5
131	135	3
172	174	4
164	176	3
167	169	3
87	87	6
29	29	7
18	20	1
167	168	5
137	138	2
12	14	3
44	44	13
86	86	2
143	174	5
72	87	1
128	153	1
100	100	5
106	121	3
11	12	1
70	70	4
142	143	3
160	161	5
130	131	2
148	148	4
157	158	3
166	167	1
135	135	3
68	146	2
16	47	2
149	149	9
163	164	5
28	28	10
95	103	3
150	150	3
42	154	1
97	123	3
83	83	8
16	28	1
162	162	8
96	157	5
88	157	3
68	86	2
111	179	2
9	12	1
171	173	1
24	25	3
100	156	2
67	148	4
39	40	2
152	152	7
12	13	2
173	174	4
101	101	2
31	34	3
188	190	3
58	59	3
170	170	5
77	157	1
120	122	1
90	144	2
37	44	2
32	32	3
71	72	4
76	109	3
149	151	1
90	90	3
12	155	2
181	181	10
53	55	5
57	57	3
96	96	4
72	75	2
34	36	3
189	190	2
20	22	2
172	173	3
56	57	1
88	88	4
165	165	9
184	185	2
20	21	2
81	82	3
85	126	1
139	139	1
90	93	1
77	160	1
63	63	3
0	55	2
133	133	3
169	169	7
64	65	1
168	170	1
53	85	2
84	86	4
97	124	1
124	125	4
179	180	1
86	88	2
64	82	2
10	39	1
131	133	1
27	32	1
20	53	4
64	100	4
151	153	1
13	16	2
94	95	3
63	102	1
86	87	2
65	80	2
53	53	3
186	190	1
89	95	1
121	121	4
114	114	4
169	174	2
76	76	3
8	42	1
0	1	2
16	35	1
2	8	4
65	100	2
21	26	3
183	184	4
164	167	2
176	179	1
107	170	2
127	169	1
8	40	1
158	159	2
111	125	2
156	183	2
18	30	1
174	174	5
98	98	1
24	58	4
8	154	1
93	94	1
164	177	2
106	106	2
14	43	1
165	175	4
118	122	1
178	180	1
152	153	3
130	133	1
88	89	1
74	74	2
167	172	2
77	149	2
108	180	4
129	166	2
124	124	1
122	122	3
52	88	2
6	7	1
104	123	1
70	80	2
61	119	1
73	133	1
34	35	2
184	184	3
96	97	5
70	146	1
2	3	2
110	111	6
5	5	2
180	180	2
176	178	1
125	170	2
169	170	2
109	166	1
132	133	1
175	176	1
106	148	1
123	123	1
110	140	1
60	118	1
77	109	2
159	159	2
57	181	1
130	132	1
165	169	1
160	163	4
34	34	3
89	159	1
48	108	1
69	70	1
89	89	2
2	7	2
103	104	1
18	21	1
34	38	1
2	48	1
83	156	1
112	119	1
154	156	1
109	157	1
73	75	3
68	137	2
3	8	1
63	110	1
95	138	1
3	6	2
170	172	1
178	181	1
131	132	1
33	34	1
0	148	3
6	8	1
111	126	1
148	149	1
88	140	1
150	151	1
41	42	1
128	129	1
130	175	1
163	175	1
177	185	1
13	41	1
185	189	1
89	126	1
112	112	2
64	163	2
141	186	2
161	161	2
75	77	1
54	153	2
125	126	1
135	146	1
26	27	1
89	90	1
85	125	2
66	150	1
169	175	1
33	39	2
58	123	1
114	115	1
175	179	1
84	84	1
59	119	1
77	150	1
30	31	2
71	88	1
130	176	1
138	139	2
68	69	1
113	114	1
65	65	1
10	11	1
18	19	1
