166	166	12
3	3	2
174	174	12
103	104	3
71	72	7
96	118	2
95	101	1
13	14	2
10	201	5
155	155	2
155	156	3
180	180	5
159	183	4
20	20	5
201	201	6
60	60	4
97	97	1
12	12	8
221	222	12
193	193	5
15	15	5
136	218	4
65	66	2
91	104	1
37	37	7
61	61	7
144	146	3
77	78	4
48	48	5
97	212	3
46	48	5
18	20	1
36	37	3
223	224	1
187	187	2
115	115	6
206	206	1
21	22	2
9	9	8
191	191	3
210	213	2
240	240	1
99	100	1
140	140	16
6	103	1
174	218	2
209	210	5
220	220	5
136	137	1
204	207	3
241	241	8
45	45	4
202	202	4
125	125	2
62	62	8
173	174	4
113	119	2
175	175	15
208	208	4
99	99	3
78	78	11
242	242	7
139	142	4
156	156	1
19	21	2
194	195	6
73	74	4
105	105	8
64	70	4
209	209	5
216	227	1
19	19	5
68	100	4
52	52	2
128	241	3
219	219	5
85	85	7
13	15	2
207	208	4
44	44	8
96	97	8
144	147	4
168	168	2
189	189	3
186	186	5
200	200	6
167	167	6
173	173	1
0	0	8
4	102	1
100	100	4
230	231	3
83	123	3
17	21	1
214	214	3
113	113	4
30	126	2
15	17	6
3	102	2
212	212	4
79	79	4
133	133	3
67	105	4
49	50	4
231	232	1
149	149	3
72	72	3
171	171	13
97	124	7
161	163	1
116	116	13
98	98	5
218	218	4
3	107	1
86	86	13
157	157	6
25	25	7
226	226	4
201	202	1
221	221	4
78	91	2
176	176	9
32	32	11
108	108	4
190	229	2
64	64	10
135	136	4
238	238	4
21	21	4
215	216	3
213	213	9
37	44	1
12	19	2
33	121	2
63	63	5
142	142	2
156	157	4
172	172	6
178	178	3
224	224	5
97	208	1
13	16	2
202	203	2
63	64	4
42	42	2
138	138	11
217	217	7
42	43	2
167	220	1
14	16	4
141	141	2
0	1	1
158	158	2
56	56	3
160	165	2
13	13	4
69	70	5
74	74	5
55	55	5
98	99	3
1	4	5
164	195	2
170	171	3
188	188	5
39	39	3
67	67	6
192	195	3
30	30	5
141	142	9
28	29	2
159	160	3
121	121	2
61	62	3
196	196	8
143	143	2
24	24	1
229	229	2
169	171	1
165	220	4
47	47	4
152	157	4
173	175	1
8	8	4
22	89	3
223	223	2
214	215	4
20	21	1
78	79	1
159	159	3
145	145	2
75	85	3
26	225	2
192	193	1
0	200	2
203	203	2
217	218	7
169	169	6
37	119	2
114	114	2
153	154	2
17	17	2
117	117	4
204	205	1
57	57	3
205	205	4
39	40	1
62	69	3
0	7	1
185	185	2
118	119	2
197	198	2
82	112	3
198	200	1
16	16	3
158	159	3
23	23	5
40	40	5
199	199	2
27	27	10
234	235	1
45	49	1
106	106	6
51	51	2
198	201	1
9	25	2
20	23	2
146	146	5
150	150	7
191	234	2
68	68	10
196	201	2
233	233	1
206	208	1
28	118	1
154	154	1
148	148	5
207	207	8
54	54	3
177	177	1
2	8	2
70	70	6
211	228	2
179	179	3
59	59	2
191	227	3
33	33	1
10	10	5
153	153	4
225	225	3
175	176	1
183	183	3
158	185	5
82	82	2
122	123	2
14	19	1
76	76	2
41	42	1
75	75	4
128	128	2
33	35	1
182	182	2
37	120	1
203	204	4
0	10	1
232	232	3
136	136	1
105	108	1
170	170	3
58	59	5
188	213	2
2	2	4
137	137	1
120	120	1
53	53	2
227	227	3
37	39	2
141	144	2
18	18	1
63	68	1
26	26	4
156	185	3
36	36	2
115	116	2
172	173	1
192	194	2
230	230	3
55	207	1
4	80	1
113	114	2
12	13	2
96	96	1
31	127	1
170	219	2
55	61	2
35	123	1
123	123	3
118	118	1
236	236	1
134	134	2
165	165	7
60	61	2
197	205	2
7	205	2
102	102	4
46	46	2
6	6	3
50	50	2
55	60	1
224	225	1
169	170	2
160	160	2
8	203	2
127	127	1
152	175	1
109	116	1
128	240	1
31	121	3
214	216	1
181	181	2
2	103	1
139	140	2
129	240	3
153	155	5
12	15	2
164	192	1
210	210	2
138	159	1
148	149	1
45	50	1
171	172	3
198	198	1
5	86	1
215	215	4
7	204	2
109	109	2
197	203	4
10	24	3
38	38	3
184	184	5
68	69	1
16	18	1
218	219	1
144	144	1
178	182	3
180	181	1
65	65	1
106	107	2
234	234	1
7	8	3
11	11	3
60	105	1
4	4	2
133	216	2
180	242	3
31	126	1
85	86	4
135	135	2
147	147	1
195	221	1
181	183	1
182	183	3
83	83	1
204	204	1
1	5	1
58	58	4
161	161	1
212	228	3
232	233	1
191	192	2
198	199	2
71	71	2
186	187	1
216	217	1
182	238	2
209	211	2
9	203	1
177	178	2
153	182	1
185	186	2
102	103	1
66	88	1
164	220	2
70	71	2
199	200	1
222	222	1
22	22	1
146	147	2
156	183	1
36	44	2
1	1	1
147	153	2
157	182	1
163	221	1
2	6	1
89	89	1
186	216	1
102	104	1
26	202	1
129	129	1
237	237	2
38	121	1
128	161	1
81	81	1
205	210	2
82	83	1
132	238	1
67	103	1
133	134	1
150	152	2
218	239	1
228	228	1
120	121	1
28	30	1
139	141	1
197	197	1
127	234	1
