27	27	17
64	65	1
86	87	2
52	52	14
50	57	3
46	46	10
78	78	9
87	87	7
0	8	4
50	50	8
54	56	1
20	55	1
12	66	5
9	9	15
76	76	12
62	62	4
83	83	10
72	74	5
3	3	10
5	6	8
9	10	4
59	59	4
19	55	2
28	28	7
14	75	3
55	55	3
57	57	3
12	13	3
84	84	6
88	89	1
25	63	4
79	79	13
17	20	3
61	61	7
65	65	5
68	68	4
24	24	12
63	63	6
74	74	2
23	46	1
75	75	11
14	14	6
54	54	11
20	20	10
49	49	5
88	88	3
62	78	2
25	26	2
26	26	5
47	47	12
75	87	1
77	77	16
73	73	9
27	66	4
56	56	6
53	54	5
80	83	5
34	34	5
64	64	4
66	76	2
66	66	7
11	11	6
87	88	1
10	10	10
29	29	9
30	30	6
85	85	2
21	21	11
15	16	7
5	5	9
18	18	2
17	17	8
51	51	17
82	82	12
28	29	3
86	86	5
47	48	2
90	90	3
65	75	2
5	25	2
59	66	4
62	63	7
13	13	10
2	2	15
11	14	4
85	86	4
51	57	7
70	70	5
82	83	2
0	0	7
72	72	6
19	20	3
25	25	12
8	8	4
72	73	6
19	19	11
57	60	5
67	67	8
15	15	1
53	53	10
31	78	1
70	74	2
12	65	5
1	30	1
21	23	2
81	81	4
16	16	2
46	61	2
18	46	1
80	80	5
48	49	4
1	1	4
81	82	2
12	12	3
47	78	3
79	80	2
70	71	1
6	6	6
60	65	2
79	82	1
53	56	3
1	2	3
22	22	4
4	5	4
89	89	4
69	69	6
33	76	3
6	10	6
7	7	5
0	30	1
10	11	2
58	61	2
11	12	3
4	6	1
22	55	1
80	81	2
24	63	1
25	27	1
5	17	2
6	11	1
65	77	4
77	83	2
4	4	9
58	59	1
61	63	2
27	28	2
15	31	1
6	7	4
31	31	3
30	31	1
25	31	1
50	52	3
10	13	3
17	65	1
21	22	1
73	74	1
66	67	2
67	69	1
58	58	5
17	49	2
23	23	7
53	55	1
59	61	3
33	65	1
32	66	4
61	62	1
50	51	3
24	25	2
8	9	1
60	60	1
64	68	2
58	66	1
75	76	1
20	49	1
48	59	1
6	9	1
67	68	1
52	53	2
48	48	3
59	62	2
34	62	1
57	88	1
70	72	1
26	30	1
17	78	1
71	71	4
0	1	2
16	20	1
10	14	2
19	47	1
50	53	1
26	27	1
16	17	1
51	52	2
31	80	1
31	58	1
11	13	2
26	31	1
68	69	1
17	48	1
14	15	1
62	64	1
69	70	1
7	8	1
5	7	1
23	30	1
19	21	1
76	77	1
