172	172	5
45	45	6
14	14	4
5	5	5
49	49	4
90	90	2
104	106	2
66	66	5
103	103	6
82	82	5
25	25	5
146	146	3
141	141	5
37	38	3
102	102	6
150	150	8
53	53	9
43	43	9
14	17	3
4	4	4
101	101	14
110	112	2
39	39	9
144	155	1
2	3	9
137	137	7
123	123	6
159	159	10
178	178	8
41	41	8
159	160	1
81	81	2
58	59	10
34	35	1
164	164	6
73	73	4
153	153	4
142	142	9
44	44	3
91	92	6
113	114	14
135	135	6
65	116	4
171	174	2
74	74	5
10	23	1
111	111	9
173	180	4
51	51	2
90	101	2
150	151	3
146	178	2
36	160	2
30	30	5
33	33	14
117	117	4
106	106	8
110	111	2
107	107	8
0	117	1
151	151	6
0	115	2
130	134	3
121	125	2
134	134	7
65	95	2
22	39	4
23	24	5
157	157	7
152	152	1
89	89	1
121	121	4
55	58	2
179	179	5
27	27	8
78	79	6
94	94	3
158	158	1
31	31	6
132	132	6
109	110	1
123	126	1
36	36	5
106	107	7
138	176	3
64	64	7
87	87	3
126	126	11
161	161	7
136	136	6
77	77	3
11	11	7
141	142	2
108	108	3
30	31	2
163	164	6
25	26	6
59	117	2
128	128	6
16	16	2
6	6	11
112	112	5
93	100	5
165	166	3
123	125	2
10	10	3
133	133	4
12	12	2
3	4	3
21	21	2
27	28	7
127	140	1
140	141	1
60	60	4
113	113	7
61	62	3
35	35	6
78	87	4
64	100	5
38	39	7
143	143	4
150	154	3
112	114	2
90	91	3
8	8	7
127	127	6
57	64	3
81	84	2
173	174	3
144	146	2
165	171	2
145	145	4
51	131	5
72	113	2
97	97	7
92	92	11
18	20	1
85	85	4
5	44	2
62	63	5
12	13	4
142	143	1
44	133	3
58	58	1
43	44	2
22	22	7
88	88	5
116	138	3
60	110	1
104	105	3
78	80	3
108	110	5
171	175	6
29	29	5
58	60	3
99	100	3
127	128	3
139	139	7
60	61	10
49	117	1
167	167	4
31	32	3
99	99	4
54	64	3
145	146	3
121	122	4
40	40	2
140	140	6
177	177	2
77	103	2
139	140	4
19	19	6
72	74	2
28	28	5
84	84	8
9	9	2
58	66	3
97	98	8
124	124	3
83	84	5
38	38	2
174	174	7
116	116	3
171	176	1
131	131	3
166	168	1
43	128	1
59	59	3
52	130	3
37	37	8
72	72	5
151	152	1
42	42	5
105	105	4
133	134	1
144	144	2
93	93	3
147	147	1
85	101	1
34	36	3
53	116	1
87	88	1
2	2	1
15	15	5
7	7	3
12	126	4
52	141	1
171	171	3
147	150	2
109	109	5
149	149	2
122	122	8
50	51	5
57	57	2
18	18	4
96	97	3
65	65	2
148	149	2
174	180	2
80	80	2
61	61	2
163	163	7
53	95	1
55	57	1
165	165	1
153	154	4
56	57	3
138	138	1
125	126	3
83	85	1
139	145	1
148	148	1
57	63	1
155	158	1
32	32	7
119	120	6
136	158	1
120	121	2
158	159	3
169	169	5
35	41	3
89	104	1
68	68	2
174	175	1
157	158	2
104	104	2
56	96	2
24	26	1
26	26	3
3	3	5
75	75	6
14	15	2
89	103	2
13	13	2
137	139	2
56	56	3
57	58	2
59	61	1
115	116	1
71	71	2
0	0	2
46	46	1
166	166	2
121	124	1
63	100	1
71	103	1
10	40	1
146	147	2
165	167	2
120	120	3
114	114	3
80	93	1
19	20	1
80	81	1
95	95	1
144	158	2
110	110	1
100	100	2
59	72	1
1	1	1
52	116	1
96	96	3
83	83	3
167	168	1
55	55	4
64	65	1
129	129	2
114	116	1
155	155	2
79	79	2
61	63	3
169	170	2
52	53	1
173	173	1
79	80	2
37	162	1
112	113	1
18	19	3
5	45	1
154	155	1
73	114	2
179	180	1
71	102	1
162	163	2
125	125	1
54	56	2
34	34	1
75	78	1
70	70	1
109	111	2
53	140	1
10	14	3
161	163	1
78	82	1
39	40	1
108	109	1
59	115	1
152	153	1
65	67	1
141	143	1
130	130	1
53	54	1
76	76	2
93	94	1
62	62	1
98	98	1
66	116	1
78	78	1
93	96	1
24	24	1
166	167	1
13	14	2
52	52	1
65	66	1
56	59	2
