68	68	4
14	15	3
81	81	12
27	27	2
61	61	5
78	78	4
13	25	2
53	55	4
84	84	12
18	18	8
49	67	3
10	10	6
21	21	3
24	24	18
65	65	6
3	3	18
63	63	11
53	53	10
9	10	2
67	68	6
20	30	3
89	89	2
23	23	14
18	19	9
66	68	1
48	48	3
20	20	11
14	14	4
87	87	2
72	73	6
28	29	2
29	29	3
82	82	13
56	57	7
49	49	11
61	63	4
10	25	2
69	70	2
11	12	6
6	25	3
65	66	2
15	15	2
76	76	2
63	64	6
74	74	7
24	27	2
28	28	9
72	80	4
6	7	2
54	54	13
62	62	7
4	4	8
31	31	8
75	75	11
58	62	3
60	60	15
50	50	3
54	56	2
32	32	1
47	48	3
33	33	2
1	1	11
85	85	12
83	83	7
8	8	6
82	83	5
8	12	5
78	80	5
81	82	8
88	88	4
51	51	5
60	61	6
74	75	4
72	79	3
1	2	1
72	72	9
75	80	4
77	78	3
13	13	8
69	74	2
2	2	16
55	55	9
7	11	1
80	80	11
22	22	8
2	11	4
6	33	1
19	19	13
47	47	6
17	17	11
0	0	5
56	56	11
30	30	10
18	51	3
61	62	6
66	66	2
69	69	10
28	30	2
4	85	1
49	50	1
86	86	2
46	58	3
70	74	4
68	69	5
46	47	5
50	51	2
71	72	1
0	1	2
73	73	5
16	16	6
6	6	6
47	59	1
30	58	2
79	79	9
59	59	6
89	90	2
52	53	1
11	11	5
77	77	11
53	69	3
12	13	5
73	74	1
79	80	3
5	17	4
5	6	5
9	9	6
12	12	6
0	29	5
5	5	4
51	52	6
17	35	2
24	67	2
7	9	4
86	87	9
47	50	7
5	18	1
51	53	1
88	89	3
85	86	2
24	58	2
59	62	2
24	25	1
19	51	1
75	76	3
18	22	1
5	12	4
19	20	5
3	4	3
71	71	2
55	56	1
3	29	1
5	9	3
70	70	3
11	14	1
87	88	1
66	67	1
70	71	1
81	84	3
46	48	2
60	62	1
64	64	3
61	65	1
2	3	1
10	11	2
58	58	4
26	26	2
4	28	3
67	67	2
52	52	3
21	22	4
48	66	1
6	12	1
31	33	1
62	65	1
10	31	1
0	2	1
72	74	1
34	34	2
5	7	1
7	8	1
59	75	1
78	79	2
48	49	3
66	75	1
13	14	1
57	57	3
62	63	2
25	31	1
3	14	1
9	26	1
5	8	1
8	9	2
16	17	1
24	26	1
20	48	1
20	21	1
59	60	1
27	28	1
74	77	1
32	59	2
23	60	1
76	77	1
72	81	1
