41	41	8
85	85	14
173	173	7
215	217	4
47	47	8
211	211	6
155	155	13
79	80	7
155	157	4
2	3	3
161	161	5
46	46	8
238	238	19
228	229	3
119	209	3
78	82	1
37	80	1
113	114	6
21	21	11
19	19	1
20	20	5
59	72	4
182	185	3
111	197	1
103	103	4
89	89	4
167	167	7
144	145	2
245	245	6
41	62	1
30	89	1
221	221	2
30	30	7
32	85	4
38	38	12
193	193	8
111	111	8
30	34	4
172	172	8
7	7	10
38	39	6
31	31	7
100	100	9
180	180	5
63	63	8
12	18	3
160	160	14
233	234	6
26	27	4
4	5	4
113	113	8
150	150	8
213	213	7
223	223	14
164	164	6
222	222	3
173	183	7
56	56	6
29	29	8
64	64	3
114	114	6
202	202	5
60	60	2
75	96	3
19	22	5
6	89	3
15	15	11
17	18	3
36	36	8
235	236	8
35	35	2
200	200	17
26	26	14
170	170	5
91	91	3
229	229	5
75	75	4
206	207	9
67	67	8
68	70	6
175	176	2
245	246	5
212	212	12
193	195	4
177	177	6
76	76	7
118	118	10
45	45	3
71	101	2
145	145	7
182	221	3
23	23	5
223	244	3
110	110	14
189	189	1
59	59	8
190	190	4
158	209	2
52	53	3
33	33	14
88	88	14
78	78	19
68	68	14
237	237	6
191	192	2
151	198	7
179	179	6
34	34	6
207	207	6
24	25	5
163	164	3
85	89	1
51	52	2
152	153	2
164	165	6
220	238	4
5	55	2
57	57	8
183	183	8
144	172	1
101	101	7
85	86	6
153	153	5
225	226	6
3	12	4
180	246	4
104	104	4
241	241	2
90	90	14
224	224	17
4	4	9
172	176	4
158	158	11
230	230	9
244	246	3
91	150	2
220	220	6
41	47	1
51	51	7
172	173	3
110	119	2
112	112	7
56	57	4
156	156	15
216	216	8
93	93	17
47	57	1
58	58	9
66	66	17
188	188	3
95	95	8
76	193	1
116	117	2
234	234	8
167	177	4
24	85	1
22	22	6
13	55	3
159	159	9
18	18	8
232	233	3
24	24	11
156	205	1
90	91	3
238	239	5
166	166	8
44	44	8
96	96	4
44	45	3
151	151	9
4	34	9
248	248	7
144	192	2
41	51	1
187	191	2
20	23	1
55	55	14
211	212	3
84	84	3
164	174	1
227	227	7
152	183	1
92	94	2
51	72	1
33	35	2
243	243	7
230	231	5
150	205	1
218	220	2
54	112	2
65	66	3
214	214	6
240	240	5
157	157	8
72	72	10
87	89	4
39	81	3
11	11	12
36	56	2
71	71	9
80	81	1
93	94	2
242	242	4
119	119	3
232	232	15
42	42	29
111	112	1
6	54	4
219	219	3
186	186	6
95	96	2
214	215	3
12	12	11
86	86	6
203	204	3
169	169	7
204	204	12
244	244	8
10	11	2
117	117	6
31	33	4
87	88	4
146	171	3
40	40	7
195	195	2
246	246	5
224	226	2
215	215	3
83	83	5
55	56	2
41	46	3
2	2	3
119	208	2
197	197	5
174	176	6
205	205	2
165	231	3
169	170	7
236	237	4
109	183	2
12	14	2
28	29	2
198	198	5
184	184	12
224	225	4
1	103	2
116	116	13
14	94	1
221	245	2
37	55	3
192	207	1
45	46	2
179	180	3
175	175	8
228	228	9
189	190	2
203	203	3
241	245	2
188	189	4
62	62	5
39	39	7
181	181	12
210	210	3
219	220	3
10	88	1
160	211	2
151	184	4
77	77	1
152	152	2
187	187	5
25	162	2
63	245	5
162	162	4
12	32	6
171	173	2
111	119	2
71	72	2
29	30	3
79	98	1
87	87	15
225	244	1
61	61	16
236	236	10
1	121	3
150	151	3
157	161	4
97	97	2
83	91	3
82	90	4
35	37	2
81	81	2
235	235	8
69	69	1
243	247	2
225	225	9
234	236	4
3	3	3
226	227	5
48	48	5
94	94	3
61	62	3
174	174	3
76	77	7
147	147	4
217	217	4
16	16	6
5	34	1
96	97	5
199	199	7
27	28	1
185	186	1
226	229	3
24	28	1
5	153	1
179	183	1
165	166	4
229	230	5
42	60	2
178	178	8
108	108	1
102	107	3
58	102	3
41	63	1
50	50	5
18	170	2
18	19	4
83	84	2
199	200	7
48	50	2
115	198	1
107	174	2
154	154	3
25	26	3
31	32	5
92	92	9
43	44	3
210	236	1
212	218	2
206	206	4
57	78	1
52	52	7
145	199	1
157	158	4
89	90	3
84	85	1
99	99	1
50	56	1
115	115	1
35	36	2
48	58	4
30	32	3
185	185	3
82	82	1
176	185	2
4	19	1
32	32	4
107	191	2
157	209	2
41	45	3
111	183	1
186	204	1
167	168	5
225	236	1
79	79	8
44	54	2
19	33	1
107	107	2
194	194	1
246	247	1
231	232	2
15	18	1
233	233	5
182	182	7
202	203	2
75	185	2
167	178	1
46	75	3
231	231	2
50	99	2
54	55	1
22	23	2
39	40	3
192	192	3
86	88	2
37	37	10
247	247	3
196	196	5
235	242	1
25	25	6
218	219	1
99	100	1
83	94	1
7	92	1
241	247	3
165	165	2
149	149	4
14	17	1
114	115	4
192	248	3
6	6	10
154	155	2
109	110	3
77	117	6
67	68	3
96	98	1
91	92	4
8	8	3
164	212	1
177	178	1
208	208	3
65	65	3
180	181	3
62	63	3
183	227	1
5	6	3
110	111	1
217	218	2
239	239	3
168	168	5
7	8	1
102	104	3
54	87	2
218	218	1
116	184	2
28	28	4
118	119	1
102	102	2
8	9	2
14	59	1
30	90	2
162	167	4
41	42	4
209	230	2
242	243	1
106	107	1
53	53	2
9	9	3
82	83	4
21	22	1
77	78	1
102	120	2
171	171	1
168	169	1
51	97	1
17	28	1
94	95	3
5	5	1
11	93	3
51	95	1
168	214	1
0	0	1
8	10	1
192	234	1
241	242	1
43	43	2
178	226	1
23	24	1
74	74	3
52	54	1
191	191	3
17	17	7
6	36	1
49	49	3
149	150	1
195	196	1
109	119	2
35	59	2
20	31	1
226	226	2
41	61	1
27	27	6
112	188	2
150	200	1
47	78	1
158	205	1
159	160	1
14	96	1
167	218	1
0	1	1
49	105	2
197	198	1
180	215	1
147	158	2
78	96	1
161	162	2
1	1	5
202	204	1
81	82	4
83	85	1
46	52	1
14	14	3
5	33	1
15	20	2
105	106	1
100	114	1
166	167	1
222	223	2
88	89	2
55	59	1
105	105	2
208	209	2
158	206	1
109	184	1
146	197	2
215	219	1
219	221	1
200	205	1
16	17	1
113	198	1
47	76	1
173	187	1
64	65	1
2	35	1
223	225	3
176	177	1
36	80	2
154	181	1
73	76	1
242	247	1
223	245	1
159	186	1
34	152	1
238	240	3
30	31	1
231	233	1
7	87	1
207	208	1
4	153	1
171	179	1
40	41	1
33	36	1
171	178	1
44	101	1
156	204	1
178	218	1
160	161	2
216	240	1
46	70	1
48	75	2
102	112	1
48	49	1
61	64	2
240	241	1
9	10	2
45	73	1
112	194	1
53	54	2
244	245	2
48	72	1
1	96	1
167	171	1
209	209	1
