146	155	2
151	151	5
152	152	13
137	137	8
44	44	8
82	82	5
48	48	18
10	10	4
20	21	2
24	24	6
30	30	5
128	128	18
12	12	19
35	43	3
13	13	14
22	24	4
14	14	8
125	127	3
81	81	21
136	136	7
126	126	4
112	112	8
15	16	7
75	75	13
29	30	3
43	44	3
36	41	2
79	79	2
33	110	2
41	41	12
48	49	4
94	94	13
38	38	7
70	70	5
56	72	2
94	95	4
127	127	14
7	8	4
135	135	10
64	64	5
46	46	14
110	110	8
157	157	4
117	118	6
103	103	7
40	41	5
107	107	3
151	153	4
69	69	6
31	31	12
6	6	17
134	137	6
131	132	5
1	1	8
111	111	3
54	55	2
129	129	26
8	30	2
97	97	2
35	35	10
119	120	6
97	123	1
34	34	9
125	125	5
121	121	17
119	125	3
150	150	6
62	62	4
138	139	2
147	147	8
101	101	10
99	99	23
83	83	11
85	85	7
108	108	5
119	119	15
45	45	4
31	62	2
27	27	21
138	138	10
20	20	11
92	92	6
7	7	15
122	124	2
5	44	6
132	137	6
29	29	7
4	4	8
5	5	13
22	22	6
16	16	13
109	109	3
113	113	3
73	73	9
129	138	5
18	18	13
13	14	6
19	19	4
30	39	5
141	141	11
9	27	2
124	124	10
140	140	18
156	156	6
67	68	8
42	42	8
146	148	3
121	125	3
122	122	1
65	66	7
106	106	11
14	15	2
107	134	3
100	100	11
152	155	1
80	80	19
46	49	2
78	78	8
106	107	4
26	26	17
144	144	5
25	25	15
141	142	10
122	143	2
151	155	3
145	145	10
8	8	14
75	82	3
98	101	3
128	129	2
90	90	1
116	116	6
80	81	2
131	131	8
41	42	5
97	98	2
142	142	2
139	139	4
63	64	2
47	47	4
54	54	5
92	93	3
116	133	1
17	18	4
108	109	6
133	137	4
86	86	7
11	11	5
15	15	13
113	114	4
32	43	3
72	72	6
115	115	12
100	101	2
134	135	4
28	28	12
40	40	12
130	130	4
79	80	2
121	122	2
89	89	8
65	65	7
133	133	8
75	76	2
53	53	3
125	126	3
67	67	2
102	129	1
52	52	4
68	68	9
84	84	9
21	21	10
51	52	6
118	120	3
22	23	2
106	153	1
88	89	7
2	4	2
93	94	3
152	153	1
123	123	12
105	105	5
39	39	5
55	56	4
8	9	1
0	0	3
47	48	3
13	18	1
114	114	12
94	97	2
68	69	6
146	146	4
93	93	3
158	159	1
2	2	6
111	151	4
42	50	3
55	67	2
49	49	1
52	53	1
39	42	2
129	131	8
28	29	4
43	49	1
132	138	4
123	124	2
36	36	8
3	3	12
53	55	4
129	130	1
144	146	1
149	152	2
95	95	3
68	71	2
102	102	10
38	39	3
91	91	9
148	148	6
75	104	2
23	24	3
46	47	3
155	155	2
134	134	6
116	123	2
139	140	2
32	32	4
31	63	1
115	133	3
51	51	10
105	106	5
110	111	2
87	88	4
23	25	1
2	5	1
43	47	4
78	79	5
9	9	2
43	43	4
156	157	3
56	56	3
81	82	5
120	122	2
37	55	1
95	96	3
118	119	1
32	39	1
111	112	4
18	19	1
65	111	3
14	41	1
13	34	1
140	141	2
86	102	1
98	98	3
35	36	2
118	118	8
145	156	2
135	138	1
57	57	5
123	143	4
16	17	2
132	133	1
109	110	3
148	152	1
3	5	1
31	40	2
142	158	2
20	27	1
113	117	2
2	56	6
112	157	3
100	156	5
112	153	3
56	71	1
63	63	3
158	158	2
31	32	5
132	132	3
1	45	2
104	105	4
98	148	2
33	33	6
17	17	4
87	87	2
50	50	3
107	156	2
146	147	2
148	155	1
7	86	3
5	6	4
70	71	1
155	156	5
107	108	1
15	19	1
22	83	2
9	11	3
101	155	1
153	153	1
76	81	3
50	54	1
71	71	3
114	115	3
151	152	2
107	155	5
117	117	1
96	97	1
43	127	1
51	53	1
11	12	2
66	105	3
53	54	3
39	40	2
82	83	2
32	108	1
123	125	2
155	157	2
96	96	1
104	104	2
85	86	1
118	124	1
77	77	3
66	66	1
90	92	2
8	10	1
74	74	1
50	53	1
120	120	3
37	38	1
21	22	2
145	146	4
104	151	4
44	81	1
30	44	2
65	105	1
134	138	1
112	121	1
108	110	2
32	42	1
3	4	1
25	27	1
18	20	1
1	2	1
135	136	1
46	50	1
140	144	1
130	139	1
72	73	1
144	156	1
14	29	1
153	154	1
131	133	1
147	152	1
54	98	1
3	7	1
36	40	1
17	52	1
135	139	1
42	46	1
31	37	1
55	55	1
143	143	1
62	63	1
