119	130	3
51	63	4
2	173	1
2	7	9
223	224	5
237	240	6
59	60	2
179	180	6
122	135	1
132	134	2
170	171	8
3	14	5
17	17	3
236	236	5
149	170	3
55	159	1
15	15	10
210	227	3
155	160	8
212	212	3
1	14	6
65	65	9
165	165	8
197	199	5
141	150	4
210	219	2
118	124	1
137	137	5
143	159	2
126	127	4
197	198	2
161	174	5
213	213	9
81	86	2
194	195	5
180	183	6
230	230	9
228	241	2
148	149	1
54	54	5
183	190	5
95	95	2
227	240	5
82	102	3
228	229	7
154	156	11
83	83	6
237	237	7
115	125	4
96	105	1
45	56	3
2	27	1
103	103	5
228	228	13
46	49	6
119	122	1
34	36	4
30	31	1
63	71	2
166	166	8
77	80	4
11	11	9
106	129	2
17	32	3
145	145	5
177	177	4
143	168	3
155	155	6
57	57	2
100	105	3
28	30	4
68	69	7
153	154	1
189	202	1
73	73	4
234	237	5
38	39	4
41	52	3
60	61	5
186	186	5
12	15	3
149	152	1
106	107	2
58	59	8
121	133	5
3	3	5
0	4	7
148	148	13
50	52	5
39	39	8
231	233	3
10	10	9
193	208	1
109	109	4
8	8	13
151	159	1
18	34	1
71	72	2
28	35	2
178	182	1
168	171	1
156	157	4
54	55	3
61	74	6
221	221	6
117	128	2
125	127	7
226	241	2
107	110	4
44	45	6
127	127	4
26	26	9
173	174	7
19	21	2
182	183	4
205	205	8
163	165	2
41	43	5
232	232	6
203	204	5
159	171	1
162	162	2
172	173	2
226	237	4
109	120	3
163	163	1
125	125	11
229	232	1
67	80	3
235	235	6
155	165	7
31	37	1
4	4	6
165	175	4
21	23	2
53	55	3
101	105	10
96	98	1
36	50	3
119	119	3
61	73	1
130	139	4
81	84	1
211	214	8
226	240	3
148	163	1
50	50	8
12	14	2
27	27	10
140	147	5
88	88	3
84	84	5
62	76	4
201	201	7
208	216	3
53	65	3
47	49	4
157	168	4
128	129	3
236	238	2
171	171	3
20	22	5
222	225	3
133	137	1
99	104	2
136	145	2
154	157	2
63	74	1
39	54	1
50	60	1
227	241	4
240	241	3
132	133	1
21	28	4
122	130	3
179	188	3
205	216	2
218	219	3
104	115	1
35	35	7
187	200	5
127	128	5
203	203	7
74	74	3
224	231	1
159	162	9
209	211	2
200	213	6
29	29	15
228	230	5
24	25	6
109	112	4
2	2	10
20	20	5
88	89	2
99	108	2
145	146	2
116	124	2
18	18	6
13	19	3
21	22	4
147	151	1
5	7	8
108	134	1
129	138	2
242	242	10
17	29	2
231	232	6
155	173	1
103	115	1
173	173	9
238	240	3
65	67	6
178	192	4
20	34	4
178	178	9
36	44	1
40	43	3
223	237	2
25	25	6
187	187	3
208	220	6
71	71	3
65	75	7
237	238	5
226	242	3
66	75	1
167	167	6
10	26	2
138	147	1
24	35	2
148	153	3
83	84	2
33	33	5
220	233	7
215	215	4
44	48	1
80	80	3
15	32	3
135	139	1
74	83	2
188	188	5
237	242	2
165	167	3
28	28	3
80	85	4
193	206	2
22	24	3
170	170	6
182	192	2
213	222	4
198	204	1
164	167	2
241	241	9
169	171	2
184	187	1
35	49	1
115	129	7
147	159	3
152	154	3
211	211	3
121	122	1
118	138	1
69	69	5
30	44	3
7	22	4
122	123	5
171	176	1
53	54	2
181	181	7
118	119	5
2	153	1
198	198	3
202	205	1
26	27	9
36	36	6
219	222	4
121	123	1
11	16	1
100	100	3
227	235	2
204	204	3
0	1	3
43	58	3
74	128	1
217	217	7
214	222	1
202	216	2
9	12	10
148	155	4
143	143	5
134	137	7
146	147	3
202	202	8
191	200	2
48	48	3
154	154	10
60	60	15
37	40	4
135	135	4
45	48	2
9	11	3
86	86	13
211	215	1
239	239	5
66	66	7
120	121	4
175	187	5
212	219	5
2	17	3
152	152	5
60	63	1
138	151	3
30	30	7
114	134	2
80	84	1
233	235	5
238	238	5
25	38	2
23	34	1
57	60	3
39	52	2
107	107	1
227	227	9
53	53	1
205	215	3
57	58	1
177	178	9
12	16	4
151	151	4
226	226	4
115	127	2
118	120	5
73	74	3
9	10	8
37	37	6
133	133	1
58	68	4
26	39	6
139	145	5
12	12	9
168	184	1
166	168	1
208	208	13
8	25	1
130	143	1
169	177	1
115	130	2
110	110	3
182	182	4
177	191	1
45	54	3
196	196	4
172	174	3
80	81	2
155	164	2
26	30	2
188	213	1
22	34	2
48	59	2
48	51	3
61	61	3
13	13	1
185	185	2
223	235	2
59	143	3
181	182	5
44	49	2
76	76	7
55	55	1
7	13	1
0	3	4
16	16	10
33	34	8
78	82	2
207	227	1
34	34	4
178	179	5
144	153	2
37	50	1
213	218	1
58	63	3
224	238	2
38	38	3
42	42	3
5	5	7
223	223	7
30	39	5
180	181	10
157	173	4
115	116	4
162	171	4
203	217	4
33	42	3
184	195	5
105	105	4
226	227	6
163	173	7
22	33	4
226	228	2
152	153	1
224	237	1
17	38	2
167	182	5
173	185	6
136	148	4
112	112	3
215	227	4
165	166	3
11	12	3
46	46	8
23	49	3
18	20	2
150	163	3
14	15	6
188	189	5
160	160	4
208	221	1
70	70	6
159	174	3
48	49	4
231	236	2
23	27	3
4	10	1
161	176	1
27	37	1
10	13	3
189	193	1
141	141	5
164	173	2
222	222	4
5	6	5
142	145	3
61	62	1
56	61	2
100	107	1
9	22	2
201	216	1
192	192	5
6	26	1
107	108	3
75	76	7
141	145	4
241	242	7
82	84	1
78	79	1
81	81	2
39	43	2
209	220	1
17	19	2
204	205	4
193	197	3
73	76	5
123	133	3
12	23	2
195	206	7
219	230	2
136	144	2
203	222	3
132	146	3
232	233	5
50	61	5
41	147	1
66	70	1
6	7	4
97	97	2
231	242	2
170	173	3
184	184	3
4	6	1
23	26	4
219	227	1
231	234	2
72	82	2
158	159	3
19	33	1
127	142	1
45	46	7
18	21	5
12	30	1
22	25	2
182	184	1
56	66	1
67	67	5
190	190	2
123	125	1
179	189	5
157	157	7
125	134	3
156	159	2
138	148	1
41	163	1
13	23	1
216	227	2
189	206	1
194	204	1
200	200	3
1	5	3
156	156	4
197	197	5
48	142	3
131	146	2
161	164	1
170	181	3
65	66	3
152	163	1
212	217	1
123	123	6
127	129	1
190	203	2
225	236	2
20	25	2
13	18	1
110	120	6
218	222	2
62	62	4
2	24	1
76	78	4
213	215	9
14	14	3
209	210	2
23	25	4
182	187	4
20	30	6
34	42	2
27	39	1
133	134	6
155	157	3
102	113	1
118	123	2
151	152	3
36	43	1
31	44	1
204	215	2
44	46	5
63	65	5
78	81	2
153	156	1
208	209	3
27	197	4
40	40	4
1	6	2
139	152	4
215	224	4
156	167	1
39	47	2
25	157	5
23	29	1
152	156	1
31	31	5
7	14	1
207	216	5
49	61	5
214	217	1
231	231	10
72	74	2
105	107	2
7	17	3
210	210	5
156	170	1
5	9	2
171	186	3
179	191	3
210	211	3
130	130	1
3	13	2
169	181	1
186	202	4
32	32	4
126	137	2
32	33	1
29	31	2
27	38	2
7	7	2
169	169	5
73	77	2
30	32	3
172	172	3
102	102	3
219	219	2
3	221	1
5	11	2
131	131	1
151	166	1
154	165	2
176	186	2
141	146	1
209	219	1
22	27	3
207	207	3
207	219	3
137	150	5
140	152	1
12	221	3
34	46	5
61	71	2
4	14	7
169	170	3
176	176	3
69	76	1
58	58	2
216	217	3
125	135	1
34	52	1
49	49	3
217	225	3
219	223	3
200	201	1
25	26	2
2	10	1
57	59	6
189	189	3
74	77	3
7	18	3
158	158	5
214	215	1
120	123	2
146	157	3
175	179	1
64	64	5
19	19	5
227	242	2
148	151	7
172	181	1
153	153	1
24	26	5
206	206	3
167	168	5
134	134	6
124	134	1
205	212	3
114	120	1
226	236	1
11	14	2
164	166	2
22	35	1
54	56	1
116	116	4
6	144	1
144	145	5
165	168	1
128	146	2
224	232	1
188	203	2
220	221	4
4	8	2
178	190	3
28	39	1
6	13	1
161	167	2
157	159	4
235	237	4
188	201	3
128	128	5
10	11	3
85	85	3
141	142	1
184	185	1
101	127	4
215	216	3
5	8	2
210	231	2
179	179	3
141	144	2
150	161	2
29	30	7
17	34	4
82	86	1
125	136	4
1	1	2
1	15	2
120	133	2
139	143	2
74	76	5
204	207	5
79	88	2
189	191	4
212	221	4
176	178	4
192	202	2
200	210	3
192	193	10
234	234	1
0	0	11
161	161	3
146	161	1
9	9	4
166	169	3
150	150	3
6	6	7
38	59	1
152	155	2
125	126	2
111	117	1
31	43	3
209	212	4
163	166	3
154	162	5
192	194	6
224	225	4
188	205	2
185	187	2
47	52	2
0	9	1
82	82	1
56	57	2
117	117	4
105	106	1
79	80	1
191	204	1
23	23	4
103	116	4
138	149	1
235	236	4
34	48	2
55	68	2
98	100	1
25	35	1
238	242	2
42	51	3
10	23	1
73	84	1
154	164	1
59	62	3
0	8	6
33	46	8
81	85	1
96	97	3
55	56	4
59	59	1
136	137	1
225	226	3
63	63	6
51	64	1
221	236	4
58	67	1
11	22	3
72	77	2
139	150	2
175	176	2
145	149	2
36	47	1
11	23	1
134	135	1
152	162	2
29	39	1
101	111	2
122	126	2
71	75	2
49	50	4
112	116	2
39	41	1
161	168	1
227	228	2
32	46	4
191	194	1
159	168	1
59	71	3
190	196	1
118	132	2
142	155	1
144	156	3
57	70	1
202	204	3
140	163	3
31	32	3
206	208	1
189	194	2
180	190	2
63	68	2
67	78	2
158	164	4
168	168	2
232	240	1
18	19	2
51	51	7
232	236	1
202	215	1
44	57	2
220	234	1
165	177	2
219	232	1
114	114	3
72	72	2
45	57	1
82	83	1
20	21	1
147	147	3
73	86	1
77	79	4
48	62	1
42	43	1
115	133	2
185	197	3
120	130	1
214	214	4
115	121	1
149	149	5
212	223	1
135	137	1
211	213	1
69	79	4
217	222	1
2	35	1
165	174	5
109	110	1
74	85	4
24	24	4
19	20	2
224	224	4
40	41	1
151	153	1
2	16	3
215	219	5
171	173	1
100	101	1
38	43	1
207	208	2
141	153	3
181	193	1
135	136	2
239	240	1
85	86	3
178	193	1
128	138	2
16	31	1
236	239	3
199	210	1
165	171	2
1	3	3
32	37	1
50	51	2
226	229	2
2	4	4
160	173	2
206	210	2
175	177	1
217	219	1
49	62	2
225	227	1
27	31	1
197	209	5
146	148	1
13	190	1
99	105	3
155	169	1
216	224	1
143	152	2
199	206	2
14	29	3
41	49	1
67	71	2
219	231	1
164	164	2
218	218	5
218	227	2
76	79	1
7	15	1
192	195	1
31	45	1
23	24	2
52	52	8
139	139	3
205	206	1
38	51	4
51	61	1
20	32	1
125	133	2
196	199	2
180	195	1
167	181	2
56	56	4
38	47	2
117	130	2
108	126	1
2	155	5
27	30	1
185	213	1
69	70	3
124	125	1
106	115	1
77	81	1
225	225	1
174	174	5
116	117	1
171	193	2
69	82	2
185	186	2
134	136	1
15	155	1
113	113	1
168	176	1
137	145	1
204	208	2
203	212	1
116	128	1
51	52	2
159	166	2
29	41	1
17	36	1
18	24	2
229	230	4
123	134	2
215	217	2
138	138	1
183	192	3
235	238	4
41	41	1
240	240	1
34	131	1
230	243	1
47	48	2
117	142	1
204	210	1
176	179	2
42	57	1
4	13	1
111	124	1
199	209	1
171	180	1
46	54	2
223	230	1
41	45	3
148	159	1
80	83	1
209	209	1
162	167	4
27	40	1
183	184	1
66	74	1
205	214	1
143	154	2
176	185	1
34	201	1
172	185	3
22	22	5
178	189	1
8	14	1
75	75	2
211	212	2
49	52	2
101	109	1
179	186	1
168	174	1
0	2	3
172	186	2
31	57	1
127	138	1
226	230	2
101	107	2
219	221	2
215	226	1
164	165	1
43	44	1
236	237	1
119	134	2
105	114	1
140	142	1
56	64	1
22	23	1
174	177	2
156	175	1
180	180	3
139	141	1
221	222	1
203	210	2
6	19	1
56	59	2
158	171	2
14	26	2
17	20	1
104	104	1
134	145	1
73	151	1
194	194	1
8	10	2
6	142	1
55	67	1
51	62	1
85	89	1
34	37	1
47	47	3
178	188	1
68	68	5
121	121	1
226	238	4
185	188	1
199	199	3
20	36	3
196	197	1
175	178	1
174	183	1
42	52	1
230	234	1
115	115	3
65	78	2
239	241	2
210	217	1
158	166	4
142	156	1
175	175	4
122	122	2
95	102	1
62	63	1
139	151	1
4	9	1
208	219	1
221	225	3
145	150	2
117	129	2
223	238	1
150	160	1
112	117	1
4	29	1
166	175	1
17	26	1
129	133	1
106	106	3
171	182	2
56	67	1
136	150	1
190	194	1
151	158	1
119	120	1
205	217	2
35	36	1
224	226	2
115	135	1
36	37	1
49	71	1
97	98	2
140	144	1
222	235	1
42	54	1
187	191	1
147	187	1
67	81	1
79	81	1
119	133	2
97	99	1
190	191	1
31	46	1
221	224	1
2	25	1
67	75	1
15	16	2
15	28	1
227	230	1
71	85	1
76	83	1
172	187	1
138	144	1
202	203	2
168	180	2
7	20	2
177	189	2
17	18	1
141	154	3
190	197	2
6	37	4
212	215	1
212	224	1
77	84	2
156	158	1
23	37	2
74	75	1
28	29	1
6	14	2
203	206	1
44	44	1
14	25	1
115	117	1
199	201	1
190	193	1
19	48	1
233	233	1
144	152	1
130	141	1
131	133	2
100	102	1
137	139	1
73	82	1
43	53	1
105	116	2
172	180	2
18	23	1
37	39	2
116	127	1
43	64	1
202	213	2
220	225	1
229	231	1
149	151	1
101	113	1
74	78	1
38	40	2
84	85	1
205	213	1
109	123	1
129	129	2
212	213	1
154	159	1
0	11	1
168	170	1
103	107	1
156	160	1
64	86	1
207	217	1
58	61	1
35	47	1
183	183	1
236	242	2
28	31	1
229	240	1
76	86	1
159	161	1
172	183	1
33	39	1
104	116	1
17	31	1
191	202	1
38	41	1
142	144	1
37	38	1
188	211	1
96	96	1
200	217	1
136	152	1
184	196	1
117	133	1
201	202	1
222	232	1
160	163	1
239	242	1
0	13	1
28	42	1
112	121	1
