167	188	2
69	69	6
42	42	3
64	64	10
3	3	5
118	119	4
28	37	2
118	118	9
53	54	4
181	181	10
94	154	4
164	197	2
181	182	7
15	16	1
166	166	4
0	1	4
164	167	4
19	19	8
155	156	6
197	197	4
52	57	1
123	123	4
65	65	3
194	194	8
185	185	5
161	162	3
51	54	4
58	61	4
68	68	4
56	58	1
146	147	1
111	142	1
175	175	8
137	159	1
96	161	3
158	158	4
166	167	2
16	16	6
40	44	3
191	191	10
160	171	2
68	89	1
165	166	5
186	189	4
15	60	1
11	11	4
127	129	5
104	104	5
185	186	1
83	85	2
113	120	2
5	7	3
67	67	1
122	123	4
34	34	2
178	178	6
104	143	4
157	158	7
192	192	9
107	107	2
172	173	6
154	154	13
105	105	4
177	177	3
82	86	5
41	41	2
143	143	5
40	40	8
2	31	6
187	188	4
138	140	1
99	99	6
98	98	2
119	120	5
111	121	4
170	170	6
171	184	2
164	189	4
177	178	1
187	187	2
56	57	2
6	61	1
66	66	6
7	86	7
0	0	10
28	28	4
106	150	2
155	155	16
50	51	1
122	124	3
13	39	2
96	96	1
102	103	7
140	140	5
102	139	1
81	81	6
97	99	1
79	79	4
12	12	8
134	135	9
30	30	5
117	117	5
162	162	7
27	48	2
106	106	4
21	21	2
73	73	4
195	197	2
95	95	4
119	119	2
126	127	3
112	112	6
64	65	4
87	87	5
72	73	5
33	43	1
163	163	5
126	126	5
93	96	1
20	20	5
45	45	4
55	59	1
47	48	2
31	31	3
53	53	3
112	113	1
48	48	5
107	142	1
6	86	1
167	167	8
80	80	1
19	33	1
163	167	1
29	30	3
102	153	2
10	10	1
13	13	3
82	82	6
159	159	4
186	186	4
52	52	1
176	176	2
50	50	2
160	174	1
52	54	3
94	155	2
174	182	1
24	24	1
176	184	1
142	142	6
195	195	3
53	79	2
161	163	2
38	39	5
188	189	2
113	114	2
194	195	4
171	185	2
191	192	4
107	140	1
172	172	6
46	46	5
73	74	1
122	122	2
84	84	4
107	145	1
128	128	4
51	52	3
152	152	4
122	126	1
32	46	1
22	22	3
115	115	7
188	188	5
168	168	5
33	35	3
103	103	4
145	148	1
96	98	2
127	127	2
16	17	2
150	168	3
62	62	3
109	109	2
107	122	3
55	55	4
148	148	4
26	26	6
54	54	1
106	151	1
108	109	1
61	62	2
169	169	3
121	121	3
176	177	5
147	153	2
47	59	3
18	18	4
101	102	1
100	100	7
160	160	3
43	43	3
32	58	4
2	7	3
0	31	1
109	110	1
1	1	2
137	137	2
82	83	1
118	120	1
58	62	4
4	4	6
112	119	1
160	170	2
95	98	1
124	150	1
40	41	3
130	130	2
162	163	7
156	156	4
141	141	4
144	170	5
61	77	2
10	98	4
77	78	1
116	116	3
101	101	4
38	38	7
9	11	3
73	122	3
93	93	2
49	50	1
43	44	3
108	108	4
69	70	1
119	121	3
131	133	2
101	171	1
47	47	7
35	85	2
26	47	2
187	190	1
32	32	3
25	25	1
131	131	1
25	27	2
163	165	1
12	13	2
14	14	5
106	121	1
23	26	1
61	61	3
81	82	4
190	191	3
102	105	1
60	60	3
179	179	2
81	95	2
105	115	1
189	189	4
126	195	3
138	138	3
196	196	3
8	32	2
122	142	2
84	85	2
149	150	1
51	51	3
23	23	4
174	174	4
144	154	1
100	101	1
114	114	1
171	172	3
142	143	2
101	103	1
189	190	5
63	63	3
193	193	4
111	111	1
153	169	1
132	133	4
124	124	1
13	14	2
8	8	4
89	89	3
106	142	1
182	182	1
5	59	1
183	183	1
70	71	3
94	95	2
8	15	2
28	30	1
57	152	1
58	58	4
139	140	4
153	153	1
153	154	1
44	53	1
33	46	3
9	47	1
168	169	1
31	32	2
22	29	2
70	70	2
36	36	2
77	77	1
27	39	1
123	124	4
57	62	1
174	181	1
134	134	4
73	112	3
68	90	1
45	46	2
184	184	2
17	17	5
73	107	1
25	26	2
9	9	2
20	21	2
145	145	2
0	29	1
114	117	2
147	149	2
101	143	2
137	140	2
104	121	1
14	45	2
193	194	1
94	101	2
5	32	1
139	139	1
37	37	4
109	111	1
71	71	2
102	151	1
18	40	1
128	129	5
17	18	1
144	145	3
59	59	5
29	29	1
55	62	2
76	76	3
67	69	2
111	116	1
59	60	1
153	167	1
55	56	3
113	117	1
54	55	1
144	144	2
174	175	2
2	2	2
56	56	1
78	78	2
85	86	2
113	121	1
166	187	1
60	76	1
44	44	1
101	160	2
156	159	1
133	133	3
127	132	4
10	83	2
87	89	2
81	83	1
144	146	1
15	35	3
5	5	3
175	182	3
57	78	1
2	22	1
149	149	3
78	100	3
174	184	2
88	88	3
21	22	3
126	128	1
192	196	2
57	58	4
156	184	1
114	147	1
0	7	2
150	150	6
136	157	2
59	61	1
58	59	1
26	27	6
89	106	1
66	69	1
104	106	1
83	84	1
109	123	2
77	81	1
16	18	2
24	25	2
7	7	4
76	100	2
111	112	2
135	158	1
125	126	2
65	72	2
67	68	2
112	116	1
11	176	1
74	74	2
182	183	2
165	165	2
154	161	1
157	157	1
107	139	1
4	5	2
26	28	1
94	94	1
120	120	1
190	190	2
13	18	1
27	27	2
104	147	1
39	39	2
5	8	3
112	120	1
49	49	2
86	86	2
113	113	1
107	109	1
7	30	2
19	37	1
145	146	1
34	35	2
89	105	1
146	146	1
97	177	1
169	170	2
133	134	1
55	64	1
175	176	1
15	15	1
166	188	1
15	32	1
95	97	1
3	86	1
132	132	1
125	125	1
18	36	1
144	155	1
106	115	2
154	167	1
65	66	1
52	69	1
7	8	2
130	132	1
60	61	2
150	151	1
50	52	1
30	31	1
110	110	1
30	32	1
97	97	1
2	3	1
52	53	1
143	144	1
127	196	1
68	87	1
110	111	1
27	29	1
3	55	1
122	125	1
156	157	1
105	106	1
136	158	1
65	80	1
131	134	1
155	160	1
135	135	1
9	78	1
22	23	1
83	83	1
122	150	1
103	146	1
75	75	1
57	59	1
72	72	1
103	104	1
74	139	1
4	6	1
41	42	1
