121	121	3
137	137	14
90	90	14
161	162	5
23	23	1
130	130	2
50	50	9
61	61	8
44	44	8
72	72	10
102	102	5
43	43	6
52	52	5
96	96	6
61	62	6
147	147	7
139	139	10
87	87	10
21	21	7
85	85	10
117	117	4
110	111	2
79	79	3
119	119	4
9	21	1
115	115	8
64	64	1
111	111	4
131	132	1
127	127	3
118	118	3
73	127	2
80	80	2
175	177	1
125	125	8
159	159	5
163	163	2
149	149	2
95	95	9
7	24	2
113	113	7
146	146	5
65	65	7
104	107	3
91	92	3
174	174	1
83	83	5
151	152	1
51	51	5
178	178	10
114	114	8
109	109	9
26	27	4
104	105	1
162	162	12
155	156	5
170	170	7
131	131	8
150	150	3
151	161	4
104	104	3
55	55	3
143	143	5
92	92	10
88	89	11
9	10	4
110	128	1
77	77	7
94	94	3
10	10	8
140	140	6
162	163	1
7	7	2
42	42	5
74	74	2
177	179	1
129	129	4
108	108	10
73	74	1
1	1	10
63	63	4
122	123	1
39	39	5
16	16	5
44	50	3
112	112	8
68	68	5
40	40	5
76	88	2
1	126	1
117	118	3
17	17	2
39	40	3
6	6	4
153	153	4
3	3	2
67	67	2
11	12	3
165	165	5
30	30	7
27	27	1
33	33	7
73	73	3
60	60	11
84	84	2
148	148	9
166	167	5
41	41	8
101	102	1
71	71	5
140	141	2
111	112	2
80	81	3
134	134	3
155	155	3
54	54	13
12	12	4
135	135	5
83	84	3
120	120	1
102	103	1
107	112	2
10	11	2
76	76	5
37	37	7
28	28	7
11	11	3
158	158	9
109	111	4
56	56	6
1	16	1
145	145	2
173	173	10
25	28	2
58	59	1
146	172	2
141	143	1
123	123	4
168	168	6
105	105	6
138	138	7
59	60	5
122	122	6
36	36	3
145	146	3
0	0	2
160	160	3
103	103	4
79	80	4
9	22	1
62	62	1
37	38	1
66	66	2
152	152	3
179	179	7
88	88	5
89	89	3
126	126	3
8	9	3
113	114	2
142	142	6
13	13	6
154	154	4
166	166	3
75	75	2
72	110	6
176	176	2
75	95	2
169	169	4
81	84	1
42	43	2
25	25	1
107	107	4
133	133	5
139	140	7
177	177	2
86	86	4
178	180	1
8	8	2
17	135	1
116	128	5
167	167	7
59	59	2
172	173	1
24	24	4
72	106	2
7	10	1
60	65	1
75	76	2
135	141	3
116	116	8
110	110	2
179	180	4
4	4	6
78	78	1
91	91	6
93	93	2
136	136	2
114	115	1
79	134	1
77	79	3
15	15	1
112	126	1
172	174	2
175	175	4
32	33	1
164	164	2
61	63	3
56	66	2
151	153	5
57	57	1
26	26	3
163	165	2
35	35	7
3	4	1
19	20	2
98	98	1
54	65	1
106	106	3
13	14	1
73	98	2
14	41	1
155	159	2
105	106	2
165	166	2
158	159	1
81	81	5
31	31	1
2	16	2
2	5	2
55	65	1
53	53	2
29	31	1
24	41	2
36	38	3
10	22	1
32	32	1
18	22	2
160	161	4
161	163	1
167	168	2
157	157	3
98	99	1
29	29	4
133	140	2
141	141	2
103	106	1
172	172	1
71	72	2
49	55	4
14	14	4
128	128	2
55	56	1
89	90	2
87	88	1
38	38	3
36	37	1
22	23	1
74	111	1
153	162	1
156	156	3
169	170	1
106	107	1
40	41	1
82	82	1
59	64	1
97	97	1
152	154	1
20	20	1
66	67	1
130	131	1
147	161	1
130	132	1
103	105	2
127	128	1
125	131	1
163	164	2
124	124	1
18	19	1
103	104	1
93	99	1
2	2	1
78	79	1
50	53	1
180	180	1
85	143	1
