10	10	1
53	53	9
22	22	14
104	104	7
130	136	4
115	155	5
42	42	26
165	165	8
9	13	2
166	166	3
19	19	4
94	97	4
12	13	5
48	49	3
151	152	2
130	131	10
11	146	4
116	126	4
10	149	3
35	35	11
121	121	12
18	19	1
140	141	9
100	100	14
133	150	4
84	84	15
0	0	20
16	16	6
92	92	11
26	26	7
141	141	4
134	134	2
146	146	6
44	44	8
85	127	1
55	55	9
25	25	7
71	74	5
46	46	10
86	86	5
94	121	1
89	89	6
157	157	7
98	98	11
63	85	3
94	94	11
18	23	3
145	145	9
135	135	7
69	70	9
5	6	13
142	142	8
122	123	8
81	148	4
97	97	11
83	83	10
94	95	4
75	76	4
151	151	13
23	149	4
144	144	7
130	139	3
84	86	5
50	50	10
111	155	2
154	155	8
47	49	3
56	129	2
143	160	5
87	126	4
92	97	3
92	101	7
19	45	7
113	145	5
129	163	3
82	82	12
78	78	4
162	162	12
112	112	11
64	126	1
91	91	10
18	18	8
155	156	4
85	85	15
166	170	1
21	21	13
76	76	5
27	27	6
70	74	2
122	122	11
127	127	11
41	109	2
155	155	11
70	70	2
110	110	16
33	34	4
102	102	7
161	162	3
98	99	5
57	57	9
10	40	3
90	90	24
119	119	4
105	105	5
138	138	15
10	43	1
72	72	10
63	63	2
154	154	3
135	137	5
120	120	8
24	109	3
164	165	9
88	88	10
87	87	12
130	130	15
107	107	10
148	148	9
36	36	12
68	68	11
133	139	3
83	109	2
100	101	4
20	20	3
56	56	8
129	129	8
114	157	1
108	108	7
2	4	2
124	124	18
168	168	6
5	5	8
87	98	2
101	101	4
97	123	2
4	4	14
54	54	5
26	42	4
14	14	9
4	43	3
13	41	2
147	147	6
120	121	4
153	153	3
161	161	5
133	140	1
10	39	3
119	120	8
92	93	8
12	12	3
50	51	3
49	49	10
160	160	13
79	79	12
39	39	10
8	54	2
73	123	3
8	8	7
66	66	9
0	21	1
148	149	2
96	97	1
113	113	9
92	95	4
12	58	2
2	6	5
62	62	1
143	143	5
28	28	2
80	80	3
109	109	6
93	93	11
64	130	2
162	163	11
164	164	4
45	45	7
44	45	6
143	161	1
65	66	6
136	136	12
1	1	5
107	153	3
105	106	6
163	165	3
134	142	1
41	41	6
106	106	5
103	119	3
105	117	1
81	163	6
81	81	8
7	7	9
134	135	6
7	8	1
112	117	2
75	83	1
159	166	1
133	133	8
81	164	1
103	150	2
138	142	5
24	25	1
66	67	12
37	38	7
132	132	9
15	16	4
91	92	2
67	67	11
137	137	17
111	111	3
140	140	10
115	115	10
102	103	7
94	122	3
65	65	3
143	159	2
3	41	6
64	64	11
14	108	4
117	167	1
8	10	2
17	17	8
96	96	2
99	100	4
62	65	2
52	52	17
77	77	4
131	131	7
9	147	1
103	103	4
51	51	7
42	83	2
158	161	2
145	160	4
95	95	7
71	71	7
11	11	8
139	139	5
106	107	2
14	41	2
16	161	2
153	154	2
11	57	4
34	35	2
37	37	3
53	136	5
132	136	1
143	144	3
0	2	4
13	13	4
118	118	4
94	159	1
146	148	1
133	134	2
22	158	4
0	1	2
168	169	4
27	137	2
3	4	2
1	2	2
13	149	5
15	15	7
10	51	1
126	127	1
117	118	2
28	42	2
99	99	1
2	2	4
39	40	5
98	100	2
108	153	2
43	44	1
69	69	5
116	153	2
121	122	1
20	23	3
128	130	1
9	12	4
128	128	8
165	166	1
116	116	2
151	163	2
24	24	7
88	89	4
104	118	1
52	53	3
123	123	2
152	152	3
81	147	1
73	77	1
91	160	2
6	6	8
135	142	1
11	18	2
132	133	5
150	150	8
90	103	1
11	45	3
128	131	1
13	22	3
127	135	2
37	116	1
117	117	1
91	93	4
78	79	4
43	43	2
14	17	6
128	155	1
159	161	3
161	163	1
136	161	1
105	138	1
71	72	1
149	149	4
146	147	1
139	145	2
124	125	3
76	80	3
9	9	2
129	130	1
23	23	6
158	158	8
163	163	4
15	110	1
13	44	2
62	64	3
8	9	2
169	169	3
74	78	2
97	98	1
38	38	3
24	46	1
114	116	1
78	81	2
93	94	6
146	150	1
16	126	3
134	166	1
72	124	3
48	48	2
66	119	2
10	13	1
116	164	2
126	126	1
162	165	2
62	85	2
21	22	2
137	147	1
74	140	2
40	40	1
7	21	5
111	112	3
23	109	2
22	157	3
47	47	4
11	12	4
20	111	1
135	150	1
0	4	6
104	152	1
9	10	3
79	80	3
86	125	2
23	41	1
63	64	1
81	162	2
18	21	1
152	154	2
34	34	13
74	74	7
144	145	1
104	105	2
20	21	1
159	159	3
97	155	2
38	135	1
86	130	2
16	17	1
72	75	4
0	3	1
73	101	1
112	116	1
49	103	1
73	73	2
40	45	2
128	129	1
68	132	1
8	49	1
139	140	1
114	114	2
95	96	1
23	150	4
167	167	3
70	71	2
72	74	2
111	151	3
4	5	2
136	137	1
36	158	1
88	127	1
11	28	1
64	66	1
74	75	1
17	109	1
169	170	1
68	100	2
10	22	2
87	124	1
14	22	2
123	143	2
86	88	1
125	125	1
97	122	1
143	145	1
33	33	3
13	38	1
14	52	1
66	68	1
102	106	1
157	158	3
18	20	1
75	75	1
65	67	2
69	103	1
85	125	1
3	3	2
10	44	1
72	77	2
35	36	2
159	160	1
28	146	2
76	79	2
82	83	3
80	82	1
113	118	1
96	99	1
100	110	2
92	104	1
57	63	1
101	106	2
114	165	1
86	124	2
107	110	2
24	43	1
47	48	2
25	33	1
69	102	2
14	51	1
55	129	1
62	63	2
52	159	1
40	67	2
66	120	1
23	110	1
41	42	1
74	107	1
37	111	1
69	132	1
156	156	2
69	121	1
136	166	1
47	58	1
17	25	1
152	153	2
22	25	1
6	7	1
109	110	2
117	119	1
57	146	2
86	97	1
21	89	1
92	99	1
133	142	2
26	27	1
40	147	1
10	11	1
145	159	1
161	164	1
