98	119	2
113	116	1
42	42	1
133	133	2
23	34	3
129	129	3
4	4	6
127	133	4
53	54	2
141	141	2
48	79	2
12	15	6
84	84	2
79	114	2
78	78	2
22	22	1
80	80	6
49	58	2
56	139	5
36	36	2
16	72	1
115	115	1
28	30	3
88	88	2
109	109	5
6	6	1
106	106	3
130	131	4
38	75	3
37	38	1
20	20	6
34	34	3
15	28	1
16	54	2
72	72	2
140	140	4
128	135	1
81	81	3
49	49	6
10	40	1
48	48	3
136	137	3
145	145	4
111	120	5
48	70	4
95	95	4
32	32	2
62	62	9
56	131	2
52	52	5
139	140	3
46	48	1
57	58	3
54	100	2
85	85	3
113	114	1
138	138	2
113	115	3
0	20	3
142	142	2
132	134	2
56	56	2
114	114	6
137	137	1
51	123	2
15	16	5
125	131	2
56	105	2
103	103	1
139	139	3
116	116	2
74	74	3
3	10	6
52	70	3
104	104	6
39	41	2
111	111	2
137	139	3
55	100	2
88	90	1
104	106	4
70	70	2
9	9	4
69	92	1
41	42	2
136	143	1
124	124	3
63	63	2
21	36	3
21	22	1
31	31	2
107	107	3
123	123	1
48	125	2
69	69	3
89	89	2
82	82	9
16	19	1
102	102	3
2	24	1
131	131	2
10	20	1
77	130	1
68	68	1
66	69	3
60	60	3
98	104	1
20	21	5
117	119	1
96	96	1
97	97	3
39	75	3
40	40	2
75	82	2
24	33	3
13	13	4
11	13	3
60	91	3
98	98	1
64	64	1
62	63	1
61	62	1
120	120	2
60	89	3
133	134	2
6	8	1
113	113	4
58	115	1
37	37	1
113	118	4
105	106	1
14	14	1
70	105	2
66	66	5
8	35	2
55	145	1
128	143	1
90	90	4
86	86	2
38	38	1
108	108	2
67	67	1
11	21	2
125	125	1
50	51	3
12	13	2
59	87	2
76	81	1
120	121	1
73	73	1
14	51	1
71	72	1
60	88	3
49	133	1
96	97	1
83	83	3
65	65	1
25	25	2
136	144	3
18	18	2
54	54	2
59	64	2
0	33	1
109	110	1
99	122	1
49	50	1
130	143	1
8	10	1
115	116	1
33	33	3
69	70	2
126	131	3
18	29	2
54	72	1
106	123	2
134	139	1
133	136	1
66	94	1
99	99	2
71	71	2
50	134	2
51	51	1
48	49	1
89	90	1
1	1	1
78	94	1
94	131	1
11	11	1
103	105	1
30	30	1
141	142	1
0	3	1
92	92	1
104	123	1
139	143	1
130	130	1
58	59	1
1	20	1
116	117	1
15	15	1
