227	228	6
95	95	13
155	155	3
206	206	8
28	40	2
218	242	2
47	47	8
54	54	2
171	173	2
56	56	5
42	43	7
236	237	4
32	33	2
91	91	14
154	155	1
110	110	5
53	180	2
213	213	6
180	180	7
38	38	12
65	184	4
65	66	4
178	179	3
12	16	3
71	71	7
42	42	10
177	177	6
229	229	12
9	65	2
115	115	4
241	241	5
61	65	3
165	165	6
154	154	6
146	147	7
245	245	7
196	247	2
224	226	10
112	112	8
217	218	5
185	192	2
27	27	9
55	62	4
204	204	5
47	48	2
55	57	5
43	43	7
72	72	4
52	52	7
74	74	4
95	178	3
93	93	12
95	96	2
164	164	5
216	217	8
198	198	4
215	216	6
238	240	3
14	14	8
81	83	1
17	17	5
1	1	5
86	87	4
22	23	5
240	240	10
220	220	5
222	222	7
169	169	10
0	0	3
52	149	3
175	176	2
155	156	4
109	109	9
61	61	5
56	246	1
165	170	5
208	213	1
18	20	2
114	114	9
234	236	4
36	36	6
22	22	9
78	78	4
248	248	2
51	52	5
159	159	10
114	116	6
2	2	4
34	34	6
195	195	4
218	218	4
3	47	7
166	181	3
12	14	2
97	98	4
16	16	2
87	87	2
236	236	2
98	98	4
92	93	2
191	191	5
202	202	11
56	57	2
214	244	3
25	25	11
46	46	7
199	199	12
223	224	8
82	83	10
107	107	6
212	212	3
235	236	3
20	20	14
182	183	1
246	246	9
1	65	2
161	162	2
180	182	1
162	162	1
85	85	10
120	120	4
59	59	7
23	23	7
172	172	9
63	63	7
1	2	1
46	77	6
31	32	7
45	45	4
242	242	6
186	187	5
174	175	5
18	18	17
239	239	4
79	79	4
231	231	7
214	214	14
185	195	3
12	33	2
29	29	7
21	21	9
157	157	5
19	21	2
68	68	6
55	213	5
232	232	3
5	6	3
225	227	1
67	67	3
64	64	4
63	64	2
217	217	6
50	50	1
209	215	1
218	219	5
2	39	2
76	77	3
184	184	16
176	176	5
224	224	6
13	13	6
53	67	2
9	9	4
108	108	3
94	95	1
152	152	4
157	158	1
161	161	1
153	154	3
87	102	2
245	249	2
185	207	3
25	110	2
7	61	1
50	51	2
172	173	4
92	92	2
64	65	3
171	171	4
119	119	2
101	102	2
11	11	19
65	65	8
170	171	1
88	88	4
51	55	3
219	220	1
208	214	1
168	169	3
103	103	8
168	168	4
82	82	5
46	47	4
44	46	1
225	225	4
175	175	6
221	222	3
110	112	3
8	8	3
117	117	4
243	243	6
185	185	5
62	63	3
184	185	1
197	215	1
10	11	2
6	6	5
111	111	4
182	182	7
151	171	2
168	172	2
36	38	1
60	61	1
190	191	3
77	77	5
10	10	9
24	24	3
7	7	10
238	238	6
57	57	7
105	105	2
15	16	2
168	204	3
48	71	1
202	204	1
117	120	1
166	166	1
209	210	2
234	235	1
114	115	2
27	116	1
31	31	2
173	173	3
97	97	4
66	66	4
179	179	8
185	186	5
201	201	3
106	106	7
112	113	3
183	183	6
81	82	3
94	97	3
46	68	1
15	15	5
187	209	1
28	29	1
207	214	2
244	245	4
197	198	1
55	60	1
19	19	2
198	199	3
84	85	1
199	217	2
88	107	2
62	65	3
219	219	4
178	213	1
54	66	1
28	28	8
62	62	2
40	41	3
170	170	7
186	193	3
214	215	3
81	81	3
226	226	5
145	151	1
230	230	1
212	213	2
12	12	8
227	227	2
68	69	4
35	35	4
93	94	4
99	99	1
42	49	3
58	60	3
39	39	10
116	116	12
84	102	2
1	31	3
60	60	1
40	40	3
89	89	6
216	216	6
245	247	3
244	244	6
232	246	2
47	72	3
228	230	2
173	177	1
3	63	3
217	219	2
37	38	3
3	3	4
44	44	11
205	212	1
61	62	1
94	94	3
183	184	2
152	204	1
144	154	2
52	150	2
75	75	1
25	26	3
185	194	2
48	48	6
45	67	5
3	4	1
206	207	1
8	9	4
180	181	2
174	197	2
192	192	1
91	92	1
5	48	1
210	211	2
106	107	3
96	99	3
202	203	1
204	205	1
49	49	5
174	174	4
228	229	2
88	89	2
109	112	2
160	160	5
234	240	4
39	40	1
185	225	3
168	179	1
234	237	2
203	203	2
196	209	2
30	37	2
214	216	1
205	205	4
145	145	4
176	177	2
226	227	1
100	100	3
150	150	3
69	71	1
149	150	3
240	242	1
215	215	1
196	196	1
80	80	1
194	214	1
167	167	4
245	248	1
150	151	1
118	119	2
26	26	2
68	70	1
231	236	1
84	103	1
100	101	2
241	242	1
51	96	2
54	184	2
89	90	2
90	90	6
193	193	2
188	189	3
57	58	3
67	68	4
78	84	2
89	101	2
151	151	3
175	198	1
187	189	2
8	35	2
207	207	3
96	96	2
174	198	1
31	37	2
162	223	3
6	7	4
90	146	1
42	44	2
196	208	1
166	167	1
240	244	1
163	165	1
111	113	1
97	146	1
225	226	1
223	223	2
71	96	1
58	58	2
145	150	3
113	114	1
196	248	5
70	70	4
3	61	1
158	158	2
196	214	1
213	214	2
210	210	4
3	55	1
32	32	4
215	249	1
243	244	3
221	221	1
158	159	1
102	102	1
73	73	1
50	57	1
73	74	2
41	42	1
68	75	1
3	65	1
239	240	1
87	109	2
25	145	1
19	37	2
169	171	1
200	200	1
51	66	1
45	46	2
147	147	2
89	111	2
181	181	1
183	219	2
167	180	2
118	118	2
86	86	2
53	53	4
233	244	1
185	193	1
115	116	1
173	176	1
153	153	1
48	72	1
200	201	1
19	20	1
183	218	1
187	187	3
211	211	2
43	44	2
44	144	2
48	50	2
189	189	1
201	202	1
37	37	2
97	100	1
29	30	1
104	104	1
247	247	2
237	237	3
17	18	1
174	205	1
214	245	1
38	39	1
111	112	1
79	86	1
231	235	1
156	156	4
87	108	1
228	228	1
66	67	1
207	211	1
95	97	1
57	60	1
208	208	1
1	37	1
207	213	1
32	38	1
79	83	2
157	162	1
30	30	1
4	48	1
201	204	1
48	49	1
1	11	1
92	94	1
186	186	1
34	35	1
222	225	1
97	191	1
165	222	1
