106	150	2
236	236	14
52	53	8
217	218	11
45	45	19
12	12	19
59	59	19
18	18	10
127	127	21
44	45	9
148	148	16
106	106	15
44	44	29
15	15	26
125	125	10
185	185	18
38	38	19
99	100	7
113	116	1
129	129	21
229	230	4
40	40	19
224	225	6
81	82	6
234	234	23
16	158	2
184	185	7
16	16	23
222	229	6
103	124	9
227	227	12
172	173	11
172	172	17
46	46	11
212	213	3
120	120	18
238	239	2
68	69	8
21	21	29
163	163	15
153	153	11
26	26	23
113	161	2
146	146	16
84	84	23
195	195	13
77	77	17
69	71	4
58	58	30
56	56	15
60	60	12
102	107	3
190	192	1
80	91	7
166	166	12
17	17	20
78	78	27
116	116	23
0	181	1
37	39	2
53	53	25
200	201	14
57	57	12
64	64	28
213	213	24
99	99	30
135	139	2
122	122	18
66	67	8
162	162	16
37	37	16
199	199	13
130	135	2
123	123	24
46	111	1
233	233	20
69	69	15
132	148	2
8	8	11
105	105	19
237	237	17
77	79	1
213	216	3
38	39	2
197	199	5
232	232	22
210	210	21
136	136	12
142	142	11
66	66	17
14	22	3
143	168	1
117	118	17
81	81	21
3	3	15
65	65	15
9	9	12
184	217	4
111	111	6
196	196	26
178	179	9
79	79	20
102	102	13
184	184	22
167	207	5
22	123	3
129	131	2
141	142	7
185	186	4
229	229	11
71	71	7
175	176	2
177	177	14
168	183	5
203	203	11
130	130	4
116	163	1
144	144	18
34	34	16
190	190	13
170	170	18
89	89	7
31	33	2
135	135	19
73	73	19
28	28	27
2	7	6
209	209	16
118	118	11
128	129	3
101	106	3
172	206	3
60	61	5
0	2	1
11	11	8
231	232	2
147	203	3
135	136	7
50	135	2
39	39	33
30	30	14
31	103	1
103	103	26
114	114	8
109	152	3
96	97	7
205	206	10
2	6	2
209	213	1
179	179	9
91	104	3
1	1	21
145	145	16
48	53	2
133	133	16
17	19	4
100	100	18
138	138	19
231	231	19
85	86	9
80	80	15
107	108	8
200	200	18
68	68	22
197	197	26
32	35	2
152	152	14
180	180	11
22	22	32
156	156	15
14	14	22
73	96	3
20	20	20
126	126	17
181	182	8
98	98	11
43	43	39
220	220	19
69	70	15
21	29	3
58	59	6
27	27	31
72	72	19
7	7	20
197	198	7
218	219	6
160	160	13
38	44	2
29	127	4
174	174	17
0	0	22
84	85	3
22	31	3
33	33	27
54	54	20
191	192	10
124	124	9
216	216	12
48	49	4
169	170	10
157	207	3
226	227	14
4	13	3
193	193	9
151	152	6
7	8	10
82	83	7
30	31	1
25	55	4
148	149	5
98	128	2
25	25	17
235	235	20
158	161	1
13	14	6
51	51	14
224	224	14
19	20	10
63	63	7
86	86	12
161	161	6
8	9	9
234	235	3
117	117	15
188	189	5
85	85	31
225	225	12
56	57	10
215	216	7
43	160	2
155	155	22
228	228	13
165	165	29
159	161	1
38	43	2
165	166	2
21	22	9
96	96	7
19	19	13
171	171	25
211	212	11
83	83	11
207	208	6
220	221	5
66	69	2
61	61	26
2	9	11
17	33	5
147	149	8
32	33	6
224	227	1
189	189	9
183	183	25
204	204	10
77	78	5
121	122	6
152	153	3
226	226	13
190	197	4
119	119	17
119	189	3
241	241	15
207	207	9
201	201	12
12	115	2
143	146	2
79	80	6
95	96	3
187	190	5
175	175	16
6	6	23
140	141	4
205	205	21
45	46	12
88	88	18
169	169	23
158	158	16
32	34	4
212	212	12
214	215	2
31	31	20
35	35	19
42	42	16
5	5	13
124	125	4
91	127	2
140	140	18
107	107	11
202	203	3
55	55	10
70	70	13
157	157	14
187	187	6
43	55	6
121	121	7
192	192	16
24	24	16
120	181	2
3	7	4
10	10	22
166	208	1
227	228	2
97	97	18
139	139	23
228	229	8
154	159	3
217	217	11
223	225	4
67	67	15
230	230	6
29	129	2
109	109	7
120	190	1
214	223	1
154	155	6
141	141	19
74	74	36
172	174	5
199	200	4
189	210	1
74	99	5
119	153	3
102	106	1
223	223	13
131	133	5
139	140	6
218	218	15
29	29	26
170	178	7
179	219	2
167	167	21
24	32	1
29	30	5
137	137	12
11	20	6
73	74	1
241	242	9
64	65	7
120	164	3
3	4	3
113	113	10
181	181	17
167	168	6
75	75	25
198	198	15
149	149	9
137	138	9
202	204	2
131	131	4
186	186	14
128	128	9
150	151	13
114	115	7
101	101	20
147	148	5
2	2	14
154	154	10
37	38	8
10	32	5
239	239	11
134	134	12
190	213	3
221	221	9
129	130	6
19	44	7
211	211	15
170	172	1
143	143	15
121	124	2
21	31	4
47	47	13
116	117	5
76	101	1
136	137	15
185	187	4
6	36	4
134	135	4
26	70	2
191	191	12
50	51	4
11	113	2
48	48	10
145	146	7
195	196	12
36	36	12
168	168	9
51	52	5
9	114	2
182	182	19
99	118	1
206	207	2
202	202	26
238	238	12
67	68	9
120	189	3
71	73	2
117	119	3
144	145	6
208	209	1
242	242	20
22	154	5
13	13	13
152	154	1
146	148	2
41	41	16
110	110	11
4	4	13
76	76	30
108	108	12
22	23	9
72	73	1
122	123	7
101	144	2
25	69	6
125	128	1
175	217	3
99	129	8
76	103	5
222	228	2
65	70	2
82	82	13
158	159	10
61	62	2
16	33	2
151	151	19
136	138	2
146	205	3
59	60	12
122	178	1
172	175	1
106	107	8
17	39	1
142	143	3
187	189	2
188	188	10
152	161	3
164	164	11
157	158	6
3	5	3
240	240	9
177	178	5
23	24	10
3	113	5
26	27	3
10	39	4
196	197	3
183	187	3
103	122	2
112	112	7
30	127	4
123	124	3
58	60	1
0	6	3
159	162	9
192	215	1
219	219	15
63	64	14
49	65	1
47	49	4
72	74	2
35	40	4
230	231	2
166	167	2
157	200	4
140	142	10
3	24	2
220	229	1
188	197	2
132	133	2
101	102	2
43	44	9
13	22	3
80	81	4
173	174	3
7	36	1
214	216	1
86	88	4
150	150	10
155	157	2
191	214	6
9	43	3
188	196	1
36	37	3
95	130	4
46	180	3
49	49	21
150	152	1
186	187	1
70	97	1
125	126	5
49	50	2
204	206	2
222	222	9
18	19	6
166	183	1
236	239	3
23	23	7
25	26	3
171	172	5
114	163	5
118	120	6
194	205	1
168	169	5
1	2	6
104	104	15
145	155	1
147	147	3
218	238	1
151	208	2
206	206	12
41	42	3
75	76	6
188	190	2
161	163	2
199	206	3
149	151	5
73	99	2
105	151	5
153	154	6
214	214	8
30	32	4
135	155	3
187	198	3
216	220	4
224	228	2
127	128	3
55	57	1
210	211	7
9	40	1
104	108	2
7	35	5
170	177	1
79	84	1
49	54	1
20	22	3
156	157	4
2	187	2
185	229	1
175	204	4
11	39	1
76	106	2
159	160	5
231	238	4
95	98	3
105	106	2
213	214	4
17	35	5
134	183	6
130	131	3
115	115	7
54	66	1
222	223	10
89	124	2
170	200	5
163	211	1
75	101	7
24	55	1
98	127	2
125	127	2
116	118	4
175	190	3
201	202	3
32	32	10
8	36	2
163	164	4
144	148	1
45	111	1
2	3	3
83	84	2
240	241	4
200	205	3
48	52	2
149	150	3
236	242	2
239	240	4
222	231	3
66	70	1
180	182	3
35	36	7
191	219	1
42	162	1
55	61	1
203	204	2
233	234	3
173	173	6
192	193	1
225	227	4
34	35	4
124	127	2
78	104	1
104	152	2
201	204	1
165	208	2
52	141	8
11	115	2
112	179	1
122	159	1
209	210	3
120	121	7
145	154	1
31	59	1
208	212	4
159	159	6
1	3	4
113	150	2
138	142	4
50	50	8
108	155	2
14	16	2
33	103	2
123	126	1
50	142	2
16	17	5
4	34	1
33	59	4
175	177	1
53	59	3
166	207	1
99	128	1
73	75	2
143	200	3
194	194	6
40	41	2
32	60	3
221	224	2
145	202	1
141	148	1
130	134	3
11	56	3
1	40	3
170	185	2
205	215	1
25	125	2
18	20	1
145	147	2
15	16	2
170	207	2
107	150	2
101	201	1
104	127	3
185	207	1
78	79	9
118	157	4
3	11	1
147	150	1
139	142	2
6	7	2
214	217	1
91	91	4
140	143	1
200	202	5
208	211	1
160	210	1
25	122	2
0	1	7
193	195	4
42	43	4
119	120	7
226	228	2
183	184	1
62	62	7
17	36	1
13	114	3
40	42	1
113	151	1
44	72	1
153	155	1
194	195	3
42	160	1
195	201	1
4	12	2
37	46	1
51	53	3
235	242	1
3	6	1
68	70	4
95	95	5
8	44	1
208	208	9
102	105	1
12	23	2
146	211	1
15	34	6
108	109	3
54	55	4
0	183	4
53	67	2
215	215	4
173	206	3
194	202	1
65	66	2
16	104	1
47	180	1
57	58	6
9	39	3
71	72	2
183	208	6
156	161	2
11	12	2
216	217	2
149	157	1
11	15	2
162	210	3
146	157	2
103	104	6
115	116	1
223	224	1
176	176	4
72	114	3
191	213	1
5	6	3
121	125	5
144	146	2
10	38	2
195	203	2
74	75	1
141	144	3
134	167	1
192	203	1
52	52	4
31	32	2
7	9	2
53	54	1
101	129	2
5	14	2
12	20	1
21	30	5
142	147	1
138	139	2
180	184	1
235	236	1
144	150	1
178	178	8
27	28	1
179	184	2
2	188	1
102	132	2
153	159	1
55	56	5
12	13	1
83	85	2
149	156	1
15	159	2
235	237	3
54	70	1
140	145	1
33	34	3
236	238	1
158	162	2
155	156	1
8	42	1
62	63	1
75	77	1
18	39	1
179	217	1
121	129	1
152	157	1
2	36	1
197	214	1
165	183	3
147	163	1
143	145	2
170	212	1
44	160	3
101	130	1
19	36	1
49	66	1
178	185	1
150	174	2
19	37	5
155	201	2
15	158	1
4	7	2
215	217	1
31	60	1
68	97	1
24	25	3
14	23	1
104	105	5
171	206	3
221	229	2
132	132	2
112	113	1
10	160	1
123	125	4
7	42	4
209	211	2
15	17	1
213	224	1
39	40	2
18	46	2
14	17	1
39	43	1
146	164	2
147	164	2
184	186	2
104	107	2
177	216	2
151	155	3
126	127	3
142	168	2
164	165	1
164	211	2
179	180	4
67	70	1
26	54	1
0	9	3
232	234	1
75	96	1
120	160	2
80	84	2
51	101	1
42	118	1
226	229	1
148	156	1
3	161	1
8	40	1
13	15	1
171	178	1
121	191	2
187	188	2
174	175	2
153	157	2
98	99	1
103	105	2
220	224	2
235	240	2
22	127	2
179	182	2
199	212	1
158	209	1
85	127	2
162	163	2
17	20	1
170	171	2
101	136	2
66	72	3
221	222	2
112	150	1
118	119	2
169	177	1
72	115	2
216	219	1
50	102	2
22	28	2
14	15	3
50	54	1
174	218	3
175	207	1
177	219	1
46	181	2
169	212	1
206	216	1
155	202	1
237	238	1
171	204	2
172	207	1
221	230	1
99	130	1
133	134	1
176	178	1
90	91	1
136	165	1
139	144	1
29	56	1
134	166	1
96	116	1
5	39	1
156	201	1
234	236	2
143	167	1
183	207	1
80	83	1
171	202	2
110	148	1
47	217	1
109	151	1
148	169	1
73	128	1
206	213	1
8	41	1
87	98	1
155	165	1
27	69	1
193	194	1
192	194	1
109	110	1
0	161	1
79	103	2
66	71	1
154	156	2
199	211	1
190	191	2
33	165	1
160	161	1
56	58	1
165	209	1
13	34	1
31	106	1
13	154	1
22	30	1
228	230	1
1	35	2
137	139	1
151	207	1
26	48	1
232	238	1
148	208	1
102	103	1
16	34	1
9	10	1
28	30	1
76	104	1
50	56	1
236	241	1
110	111	1
46	179	1
66	73	1
221	223	1
46	47	1
121	128	1
