67	68	9
98	98	18
4	8	10
66	67	6
54	55	7
30	35	1
31	31	28
68	68	14
130	131	10
71	72	7
102	102	8
39	39	4
53	55	3
25	25	9
147	147	5
111	111	10
125	125	15
38	39	8
13	13	35
123	123	9
143	143	4
63	63	9
28	29	4
118	118	13
68	69	6
19	24	6
6	117	4
79	79	11
34	34	5
26	27	7
128	129	6
104	104	17
11	11	17
94	94	11
62	63	11
131	131	17
123	129	1
124	129	3
6	7	9
22	22	21
8	8	20
20	21	3
109	109	18
105	105	5
113	113	16
133	135	7
96	96	3
43	43	15
150	150	26
27	30	1
126	126	11
138	140	1
70	70	5
117	117	6
4	6	2
55	55	19
15	15	17
50	51	13
121	121	17
98	99	6
103	103	14
57	57	5
139	140	6
37	38	3
69	69	14
149	149	33
84	84	14
138	139	12
101	151	11
108	108	13
53	53	8
16	16	8
77	77	14
106	148	2
6	6	15
120	121	8
140	141	4
99	99	23
110	110	15
107	108	5
100	100	5
10	25	8
30	39	4
146	146	21
103	111	7
47	47	15
37	37	16
7	7	14
23	25	5
65	65	17
145	145	9
63	127	6
48	51	2
104	105	2
79	81	1
42	134	1
141	141	21
115	115	13
17	132	3
41	43	4
5	5	5
71	127	4
42	43	4
42	131	1
64	67	1
130	130	14
80	81	10
14	14	16
150	151	13
24	24	10
28	28	20
106	106	13
80	80	16
5	8	1
124	125	14
4	4	19
21	22	4
86	86	15
62	119	1
111	114	5
3	3	15
83	84	13
84	85	5
115	116	4
102	103	3
134	135	2
31	88	4
8	54	1
36	36	10
83	83	5
52	53	1
132	132	7
58	58	2
139	139	13
119	119	5
138	138	5
109	114	3
49	49	4
79	80	5
153	153	5
85	85	17
18	18	20
129	129	6
29	29	6
110	149	3
105	112	7
107	107	11
19	19	13
112	113	11
66	66	5
91	140	2
32	32	10
13	15	2
42	143	4
64	65	11
81	81	4
46	131	3
42	136	3
135	135	15
123	125	4
21	21	10
72	72	3
137	137	6
51	51	4
125	126	8
31	32	9
6	54	6
39	40	20
62	94	2
64	64	13
38	38	12
154	154	5
9	9	8
77	78	7
45	45	11
147	148	6
40	40	13
15	44	1
148	148	8
96	98	2
62	87	3
87	87	5
13	50	3
41	42	4
74	74	11
54	54	1
112	112	7
95	96	2
149	150	2
97	97	7
64	126	6
73	73	15
63	124	2
93	141	3
12	56	4
42	42	3
122	122	9
114	114	6
17	17	16
10	10	11
82	82	13
146	147	1
123	124	2
124	124	5
101	101	8
136	136	4
76	78	6
46	46	10
44	44	17
92	93	1
49	51	5
28	30	2
13	41	3
119	123	1
76	76	12
108	147	9
120	120	7
3	6	3
83	86	2
144	144	8
110	115	5
123	127	4
21	25	1
123	128	3
152	152	8
46	133	2
132	133	1
12	13	2
10	12	3
9	56	3
71	71	19
33	34	7
95	95	9
32	33	3
134	134	3
8	26	1
67	67	7
124	126	3
13	54	2
17	50	3
62	62	12
9	54	1
62	93	7
133	154	1
18	19	7
142	144	8
42	117	2
107	109	2
82	87	5
52	57	3
78	79	7
129	137	1
87	88	3
52	52	3
74	75	5
141	142	6
76	77	2
51	57	3
94	95	11
35	35	2
128	130	5
14	27	2
109	150	1
27	27	4
142	142	6
75	76	2
44	138	4
16	30	4
14	30	3
148	149	3
12	15	2
119	125	1
30	30	4
102	149	4
62	124	2
13	30	3
120	124	5
73	74	2
73	85	1
37	39	4
53	153	4
45	46	4
47	132	3
40	131	2
134	136	2
63	121	2
64	124	2
17	18	3
12	26	4
75	75	4
114	115	3
85	86	2
63	122	3
36	37	1
92	92	5
93	93	8
123	126	3
96	97	6
87	122	2
33	33	4
141	143	3
94	141	1
121	126	1
135	154	2
19	20	1
62	125	2
110	114	4
86	87	2
20	20	9
24	27	4
84	86	3
14	39	1
123	141	4
56	56	11
113	114	1
47	48	3
55	56	9
12	28	3
48	49	1
72	74	4
110	112	2
26	26	12
10	11	5
47	49	3
105	106	4
2	2	5
111	115	1
152	153	1
12	12	6
20	24	8
28	50	1
4	54	2
35	36	5
107	111	2
102	108	1
124	128	2
99	117	1
97	138	2
144	145	2
22	23	8
45	131	1
120	127	2
9	26	2
128	128	5
135	136	4
43	136	6
83	126	1
81	82	8
74	85	1
127	127	4
5	6	2
30	36	3
63	123	6
90	90	6
64	121	4
14	36	5
53	54	3
118	119	1
98	142	1
127	141	4
121	122	4
112	114	1
88	88	3
101	102	1
151	151	5
100	101	5
118	127	3
50	50	7
87	123	1
20	22	3
11	13	2
104	107	1
62	127	1
12	52	4
83	87	4
4	7	2
27	29	2
11	27	1
13	40	5
12	27	4
27	38	1
23	24	4
27	28	6
47	52	2
3	4	3
103	115	4
14	37	2
140	140	1
110	113	1
118	125	3
116	116	6
39	41	5
107	113	2
7	8	3
42	151	3
131	132	2
17	19	2
105	111	4
125	128	6
34	81	1
143	144	1
65	66	1
47	51	2
94	120	4
16	17	4
7	115	2
8	9	3
66	83	2
85	126	2
125	142	1
146	151	3
75	78	3
108	109	3
3	53	2
61	142	2
82	83	2
102	112	1
9	10	2
106	147	1
12	55	1
82	86	2
19	49	2
103	116	1
30	32	3
152	154	2
89	89	2
100	151	1
93	122	3
133	133	3
4	9	1
114	117	1
40	90	1
23	23	2
65	121	2
34	80	1
5	54	1
128	138	2
42	130	2
54	57	1
19	25	1
102	113	2
146	150	1
133	136	1
43	133	5
137	138	2
117	142	4
142	143	1
7	23	3
97	141	2
107	112	1
62	64	2
31	73	2
78	78	2
133	134	1
41	47	1
32	88	1
69	70	2
48	48	1
11	14	2
109	149	1
97	118	1
63	93	3
51	133	2
15	40	1
97	98	4
117	137	1
35	37	2
40	41	2
124	127	1
36	38	2
30	41	1
128	137	1
77	80	1
101	146	1
151	152	1
19	50	2
108	149	1
81	83	1
126	140	1
100	152	1
73	80	3
41	45	1
16	45	1
63	120	1
15	16	1
103	104	1
16	41	1
146	148	1
16	44	1
14	16	1
75	80	1
149	151	2
68	85	1
109	110	1
99	100	1
147	149	1
10	24	1
40	124	1
64	93	1
61	99	1
11	12	1
137	139	1
