131	131	3
12	12	1
63	63	8
111	111	6
156	156	10
167	168	1
3	3	8
172	172	2
20	20	8
104	104	1
51	109	8
119	119	2
76	93	3
16	78	1
150	150	3
118	118	4
4	9	2
102	106	3
41	42	2
78	79	2
58	58	9
67	77	1
10	11	1
3	9	1
176	176	6
68	68	1
162	171	1
38	38	5
56	56	1
171	171	4
110	147	6
55	55	5
24	31	2
45	46	2
19	22	2
99	99	4
112	151	3
26	26	1
2	19	2
17	21	3
88	89	1
169	170	7
146	152	1
6	7	3
3	10	3
22	63	2
45	45	9
140	140	5
149	149	14
87	172	3
76	76	1
89	171	1
4	13	3
67	92	2
72	72	3
162	172	2
163	163	5
11	11	5
143	174	1
59	59	5
157	157	4
83	85	2
34	41	5
6	6	2
1	4	2
87	87	3
21	22	3
113	120	1
91	91	5
111	146	2
27	32	1
91	92	1
2	3	5
148	152	3
80	111	1
93	93	8
109	109	3
84	84	2
5	136	3
87	167	2
121	142	2
19	19	5
52	56	2
34	36	4
167	167	3
71	94	4
56	60	1
44	44	4
160	162	4
132	149	1
36	36	2
28	39	3
145	145	6
177	178	3
15	15	2
55	56	2
88	88	1
30	30	10
28	31	1
53	96	4
115	115	5
60	108	3
78	78	3
1	1	4
68	74	2
36	62	1
14	14	2
110	110	4
117	118	1
21	21	3
39	39	2
113	113	3
23	28	2
120	120	2
66	66	2
75	75	3
80	80	2
168	168	7
155	155	4
52	53	2
15	17	2
91	94	2
37	37	7
92	92	9
126	126	5
122	122	4
127	128	3
27	27	2
173	177	3
35	35	2
0	139	1
96	97	1
147	147	2
8	8	1
104	105	1
70	70	2
104	107	1
1	3	2
52	52	3
143	143	4
179	179	2
5	45	2
135	135	1
138	138	4
103	103	2
17	18	1
35	41	1
146	153	1
51	143	1
13	45	3
87	88	1
80	159	1
53	65	3
43	137	3
42	42	5
154	154	1
50	144	1
103	104	1
119	127	1
67	68	1
59	62	1
148	148	11
0	78	2
161	161	5
161	162	1
10	17	2
13	37	1
121	121	1
52	79	2
114	133	1
130	130	1
7	19	3
107	125	1
86	91	1
13	13	2
59	61	4
82	83	1
134	162	1
89	89	1
98	100	2
43	136	1
166	166	2
4	4	1
53	53	2
0	0	1
112	122	3
100	100	1
167	171	4
113	130	2
162	170	2
125	125	1
92	172	1
124	125	3
0	141	2
148	150	1
158	158	3
152	153	2
51	52	4
89	172	2
10	13	1
174	174	3
93	94	1
116	116	4
10	14	1
29	29	1
132	132	1
151	151	2
24	30	2
9	9	2
77	77	2
87	162	1
85	85	2
74	74	2
50	51	2
141	141	1
115	125	3
158	179	1
83	83	1
28	28	1
136	148	2
133	139	2
57	99	1
60	60	2
4	8	1
164	164	1
101	154	3
51	51	1
90	175	1
116	118	4
146	146	1
119	124	2
81	81	4
49	49	1
118	128	1
83	84	2
12	25	1
106	115	1
170	172	1
28	38	1
124	124	1
62	62	1
175	179	1
41	43	2
16	19	2
36	37	1
86	86	1
102	173	1
118	129	1
125	142	1
139	139	1
165	166	1
173	174	3
23	39	2
160	160	1
175	175	1
140	141	1
0	56	1
115	126	1
143	144	1
104	143	1
125	128	2
67	67	1
36	38	1
58	61	1
121	124	2
118	121	1
132	133	1
8	13	1
180	180	1
73	74	1
116	117	1
122	128	1
94	95	1
50	50	1
7	7	1
81	100	1
157	175	1
22	22	1
