3	31	2
67	67	6
20	26	2
35	35	16
39	39	9
17	17	27
17	19	2
13	14	1
21	25	2
63	63	24
46	46	15
78	78	19
6	6	12
9	9	5
41	41	15
28	28	13
75	75	6
41	42	1
2	4	2
8	8	4
71	71	5
31	35	7
5	10	4
27	33	2
27	27	5
55	57	3
76	77	3
48	48	4
38	38	8
10	10	11
64	64	12
53	53	15
42	42	10
34	34	12
37	38	1
50	50	9
1	2	5
39	51	2
61	74	2
45	47	4
8	21	3
50	70	7
67	68	6
80	80	12
53	56	2
1	35	1
52	73	3
54	54	13
60	60	2
18	18	13
21	21	8
59	59	9
64	65	4
41	51	6
13	13	4
56	56	13
65	65	6
49	49	4
16	16	12
6	27	3
55	55	4
34	35	6
71	77	1
26	26	12
33	49	1
8	19	1
69	69	5
54	65	3
57	57	6
71	75	4
3	3	6
47	47	6
39	66	3
31	32	3
38	56	1
27	40	3
14	14	4
73	73	14
72	77	1
29	29	2
32	33	5
76	76	4
0	0	8
64	76	2
20	20	4
51	54	2
68	68	7
32	69	3
26	28	1
60	63	1
51	51	4
79	80	1
2	26	2
53	76	1
16	18	1
44	59	2
50	57	2
68	76	1
39	56	2
35	75	3
37	52	4
36	36	2
12	22	3
52	70	1
2	2	5
10	14	1
7	7	2
52	67	1
3	4	1
61	61	2
70	70	13
35	74	2
35	55	2
27	35	3
38	39	1
62	62	5
42	48	4
6	10	1
59	60	4
31	31	2
59	65	1
0	1	4
14	25	2
74	74	2
1	1	7
58	67	2
39	53	1
48	52	1
60	61	3
67	69	3
54	77	2
4	4	3
6	8	1
33	33	7
53	54	2
19	19	2
66	75	1
25	25	5
55	56	1
45	45	8
60	62	1
13	25	3
0	5	2
68	70	3
12	12	4
20	21	1
50	72	2
37	40	1
72	72	3
12	26	1
30	30	1
27	42	1
5	5	2
66	66	7
27	49	3
38	51	4
28	29	1
62	63	1
79	79	3
73	74	1
48	49	2
30	31	1
53	67	3
58	58	4
9	25	2
69	70	1
40	40	8
49	51	1
12	13	2
65	80	1
15	25	3
73	76	2
57	74	3
77	77	1
68	72	2
11	11	2
14	39	1
53	63	2
27	31	1
70	71	2
41	45	1
19	27	2
39	40	2
40	56	2
8	37	1
70	72	1
36	37	2
77	78	2
9	10	1
25	44	1
6	49	1
66	76	1
52	74	2
75	76	1
5	9	1
49	58	1
28	60	1
12	14	1
32	32	1
30	33	1
49	50	3
47	52	2
51	53	1
35	48	1
37	50	2
37	37	1
7	8	1
64	78	2
42	43	3
71	72	1
27	30	1
16	19	1
45	59	1
10	12	1
11	15	1
52	52	1
34	59	1
58	62	1
