30	35	4
25	25	7
13	13	12
51	56	2
22	22	18
47	47	29
11	17	15
61	61	24
0	0	21
1	46	2
49	55	2
0	1	6
4	5	16
3	3	16
44	56	5
37	37	14
44	44	30
6	6	13
55	55	18
33	33	25
9	9	16
43	43	23
7	18	1
5	6	4
41	41	14
40	40	23
48	48	28
16	16	22
9	11	2
42	42	17
36	36	22
21	21	29
62	62	22
49	49	23
15	15	13
46	46	24
48	55	3
14	14	14
50	50	21
1	1	26
8	9	5
10	11	5
60	60	13
7	7	26
46	62	2
31	36	3
32	32	26
20	20	20
55	56	9
54	54	14
21	56	3
36	61	2
39	42	4
45	56	2
45	45	18
24	24	12
36	60	2
4	18	8
38	38	6
47	48	5
40	53	5
5	14	8
56	56	24
1	3	3
52	52	18
32	34	5
31	31	31
12	12	14
18	18	17
30	30	14
56	57	1
49	50	2
23	23	12
11	12	11
35	36	12
23	25	4
54	59	1
0	62	5
50	51	10
29	51	4
5	5	5
4	4	12
45	46	2
35	35	12
23	24	5
8	8	12
44	45	12
18	56	2
23	60	2
42	43	6
38	41	5
30	31	4
11	11	19
5	18	1
30	34	3
46	47	7
32	35	7
7	22	2
1	2	5
34	35	2
51	51	14
50	53	2
37	42	2
2	2	14
29	29	5
44	60	3
58	59	2
57	57	13
0	55	3
51	52	4
9	22	4
3	5	4
39	39	6
43	47	3
4	17	7
14	15	8
19	57	1
34	34	16
47	49	6
23	59	4
32	33	3
18	20	2
0	3	1
20	56	1
22	23	7
23	49	3
21	40	2
33	48	7
0	4	3
18	21	4
11	57	1
53	54	4
7	8	6
54	57	5
50	54	2
21	54	6
21	38	1
56	61	1
22	59	4
3	46	1
16	19	4
17	17	14
59	59	6
9	23	4
12	15	7
22	56	3
0	50	1
31	35	4
35	43	3
52	53	1
54	55	2
39	55	3
37	46	2
48	49	5
24	25	5
10	10	10
6	7	3
3	33	2
4	13	2
8	10	3
45	55	5
40	43	4
57	58	2
16	57	1
19	19	5
16	18	1
19	51	1
37	44	3
33	34	1
25	30	3
57	60	1
37	48	2
17	18	2
39	40	4
14	58	2
53	58	2
37	38	4
11	22	1
3	4	1
54	56	1
18	19	3
20	54	2
56	59	1
43	49	3
33	36	2
5	7	1
40	41	2
32	46	2
12	17	4
39	45	2
21	59	1
37	40	1
24	37	1
33	47	1
13	62	2
5	17	2
45	47	3
4	15	2
43	45	2
31	37	1
25	48	3
4	7	1
31	34	2
36	48	2
23	54	1
12	58	1
45	51	2
55	57	1
50	61	1
19	56	3
24	38	1
2	9	1
55	62	1
22	54	1
16	21	1
37	39	1
44	55	1
2	3	1
58	58	2
18	50	1
53	59	1
32	47	1
0	17	1
35	38	1
5	10	1
24	58	1
34	46	1
42	44	1
53	53	1
23	58	1
0	18	1
