126	126	4
176	177	2
119	120	7
36	134	1
63	64	4
31	32	1
116	117	6
65	66	1
83	90	2
79	115	2
178	186	1
115	120	3
10	10	12
53	53	6
155	156	5
1	1	1
80	81	2
69	70	4
184	187	4
47	56	2
117	117	4
50	62	3
52	59	1
96	100	3
130	131	2
154	154	8
132	133	8
176	176	9
64	117	1
159	169	4
111	112	2
34	35	5
79	79	11
2	2	11
19	19	4
160	162	2
17	184	6
59	72	2
14	14	2
80	88	6
147	147	4
8	8	13
110	112	3
46	48	1
192	192	7
128	131	2
8	10	5
50	50	11
159	159	5
112	112	7
3	4	5
8	34	1
126	138	5
188	189	4
194	195	5
160	173	2
188	196	2
11	11	4
190	191	11
104	104	3
55	55	8
110	124	4
48	50	4
40	40	6
14	26	1
59	59	6
143	144	5
67	73	3
122	125	4
65	65	2
177	191	3
36	37	1
36	36	8
102	102	11
187	187	12
157	157	4
5	196	4
116	127	1
66	81	5
128	129	5
153	153	4
195	195	5
1	159	1
188	190	2
94	101	3
170	182	2
17	17	4
162	175	6
68	68	4
59	115	3
28	28	5
167	171	2
114	118	2
0	0	9
182	195	5
77	80	5
65	67	3
44	63	6
188	188	12
173	173	7
35	36	2
80	82	6
46	49	6
177	182	2
13	13	8
161	161	9
128	145	3
75	78	2
77	81	4
174	175	5
12	12	7
177	177	3
83	84	5
164	171	2
23	23	7
127	127	9
58	143	5
149	149	9
51	54	3
16	30	5
97	97	3
126	140	5
126	132	1
111	111	1
141	144	3
29	29	5
8	12	6
181	182	6
5	5	7
189	189	9
23	35	1
185	188	1
163	165	6
41	42	9
96	107	5
163	171	3
24	37	5
167	169	3
46	73	1
68	148	3
104	112	1
99	100	2
119	126	1
98	98	2
195	196	5
35	37	1
130	132	6
104	116	2
14	15	3
15	23	2
123	123	5
9	24	3
167	168	1
139	149	2
117	131	7
34	40	5
11	12	1
185	187	3
103	116	3
47	47	8
58	71	1
100	114	2
114	114	5
70	70	22
77	78	6
0	1	4
178	180	6
134	145	2
44	55	2
30	30	7
128	130	2
99	114	3
112	119	2
20	20	7
7	9	7
192	197	3
177	180	1
68	71	4
175	181	3
88	97	4
148	162	2
67	71	6
61	87	2
6	6	5
183	183	12
54	58	2
129	129	2
72	72	1
94	107	3
101	101	2
8	14	2
156	163	3
31	33	3
142	154	5
152	158	1
107	111	6
118	125	2
177	189	6
129	130	2
129	131	3
8	13	9
190	192	3
68	74	3
105	106	1
1	2	3
160	163	2
181	194	3
71	80	3
42	44	4
124	126	7
123	129	1
144	144	2
162	162	7
177	178	6
5	18	3
183	184	4
147	148	3
42	42	17
145	150	2
109	122	5
99	101	1
40	45	7
164	164	10
46	46	8
193	195	3
139	146	1
153	168	1
12	13	4
191	192	3
17	45	3
93	94	4
27	29	2
179	190	1
138	147	5
139	156	4
49	49	8
149	150	2
7	11	4
147	151	5
96	96	1
99	123	3
58	58	1
181	188	2
25	25	10
3	5	6
127	130	6
43	45	2
100	119	4
19	28	5
13	20	2
171	172	3
132	138	5
24	25	4
115	116	5
133	133	9
139	139	7
51	61	3
88	89	5
80	89	1
140	150	9
121	133	2
51	56	3
45	51	4
35	35	13
21	21	3
169	181	1
28	42	4
78	80	4
135	161	3
182	183	4
109	110	5
18	18	3
15	15	3
178	181	3
163	164	5
122	122	4
192	194	5
177	179	8
69	69	5
116	128	6
137	139	6
174	174	5
186	186	10
130	130	4
138	138	2
166	179	4
95	96	6
23	52	4
109	109	6
25	26	8
156	156	5
67	77	1
185	191	4
194	194	6
14	16	3
143	156	4
166	166	5
182	189	2
163	163	5
173	174	6
164	167	1
187	190	2
32	52	4
16	18	2
4	6	6
141	149	8
27	27	4
149	151	10
135	135	5
59	69	2
10	19	5
116	131	2
109	125	1
12	26	1
194	196	4
144	146	1
19	29	2
43	53	2
191	194	6
67	68	5
101	110	1
0	21	3
3	16	2
54	55	7
63	65	4
40	42	2
144	145	4
61	61	9
66	66	7
155	157	2
170	176	3
46	57	1
150	156	2
88	88	2
22	36	2
101	103	1
20	23	3
0	15	1
38	39	1
80	80	7
184	184	7
171	171	6
170	175	1
43	64	3
191	197	1
132	132	3
157	159	5
158	159	2
150	155	4
153	157	3
48	51	2
135	141	1
15	194	2
196	196	5
151	162	5
131	139	1
67	67	2
117	118	6
21	35	5
193	193	10
64	75	1
190	190	11
7	23	3
182	188	2
147	162	4
151	154	3
16	24	1
39	51	2
134	146	1
36	61	1
57	58	2
159	166	4
121	122	3
59	60	2
4	15	7
167	170	3
59	85	2
125	128	2
45	54	4
33	33	5
164	174	2
33	50	4
31	42	3
183	193	2
42	51	1
139	148	2
115	115	8
46	58	4
115	123	1
153	160	2
15	17	2
120	123	2
148	156	9
136	136	2
64	66	3
38	157	1
149	156	1
123	127	7
27	37	1
149	161	2
13	22	6
82	83	5
124	125	1
158	161	2
138	139	2
131	141	1
5	20	2
59	63	3
137	137	4
78	83	3
9	16	3
132	137	1
170	170	3
134	134	4
168	182	2
154	155	2
143	143	4
166	177	1
160	172	2
102	111	2
48	57	2
32	42	3
95	95	6
48	56	1
123	135	4
189	193	2
81	82	3
166	169	4
27	34	2
124	124	6
171	173	5
99	116	1
24	41	2
103	111	3
156	157	2
139	143	3
32	49	1
111	118	1
13	34	1
193	194	2
59	61	4
40	49	2
125	125	3
67	81	3
156	158	2
2	21	1
185	190	1
28	39	1
98	112	4
5	6	2
43	47	2
164	166	2
185	185	4
114	115	3
26	37	3
152	152	4
138	145	2
20	21	1
109	126	2
161	188	2
34	34	9
37	38	3
116	119	3
176	179	5
82	82	2
160	160	4
106	107	6
0	2	1
3	3	5
33	49	1
120	127	2
135	159	5
137	147	2
178	179	3
38	38	7
77	77	2
17	32	1
46	59	1
70	76	3
52	56	1
99	99	6
54	69	2
114	119	2
132	145	2
33	56	3
165	165	3
129	141	3
115	118	1
29	42	3
50	52	1
76	86	1
119	122	1
187	188	2
27	39	1
133	134	2
99	195	2
54	71	1
123	126	2
136	149	2
107	112	3
131	133	4
151	155	3
169	174	1
39	39	6
42	43	3
14	28	2
133	136	1
34	45	3
165	179	4
118	118	3
120	125	2
60	72	3
189	191	2
16	16	7
156	159	1
153	161	1
75	76	1
2	8	1
104	107	1
148	148	7
34	47	1
102	110	1
104	114	3
105	108	3
1	4	1
147	149	6
27	41	1
66	76	3
134	137	4
118	120	1
177	187	2
182	186	1
167	167	2
157	158	4
120	138	1
101	106	1
10	11	4
94	95	1
52	64	1
43	52	6
7	14	1
60	97	2
113	114	2
56	56	6
132	135	1
98	104	2
68	73	1
112	115	2
127	128	1
142	144	4
172	172	6
178	185	3
6	7	1
168	168	3
23	24	6
101	119	1
74	86	2
146	146	1
79	133	1
172	175	1
180	192	3
105	105	3
53	54	2
122	123	3
22	23	1
5	16	1
112	114	2
125	138	1
161	163	2
95	102	1
5	15	1
60	84	2
72	74	6
84	84	3
161	162	3
111	119	3
29	31	3
53	67	2
53	56	3
173	185	2
38	40	3
179	186	2
154	158	1
154	156	4
182	182	4
94	103	3
62	65	2
163	170	1
123	137	1
32	32	4
152	153	3
78	78	2
11	16	6
72	85	1
110	110	4
2	15	1
43	43	4
94	116	4
7	7	5
194	197	2
32	33	5
41	47	3
169	169	2
167	175	2
10	12	4
78	87	1
37	48	4
134	147	5
42	53	3
48	55	1
186	187	3
112	124	1
130	136	3
7	196	2
96	113	1
168	180	1
75	77	2
166	174	1
147	160	1
32	45	4
106	117	3
197	197	1
151	167	2
41	41	6
124	130	1
28	29	2
136	148	1
173	175	2
23	36	3
9	10	1
34	49	2
161	170	2
146	163	1
82	87	1
187	189	1
173	184	8
11	23	4
60	65	1
28	31	2
22	35	3
191	196	2
145	152	2
56	63	1
32	35	5
53	62	2
158	158	2
189	190	4
178	178	2
16	25	4
58	65	1
133	141	2
85	89	1
77	79	1
32	43	2
20	22	1
185	186	1
50	66	4
144	155	1
0	6	4
159	174	3
24	49	1
174	188	2
129	144	2
95	99	4
155	155	5
141	141	3
181	193	2
55	70	3
3	28	1
184	189	1
13	19	1
56	57	1
15	18	1
76	89	1
123	125	2
107	117	3
140	141	4
83	89	1
0	4	5
1	13	3
181	183	2
118	128	3
4	5	2
153	154	3
63	63	7
31	41	1
52	52	1
145	146	3
55	63	2
61	62	1
18	28	3
62	62	2
31	31	4
4	4	5
181	186	3
142	145	2
34	43	1
165	167	3
84	87	2
159	182	3
33	46	2
145	154	3
102	106	2
190	195	1
18	25	1
94	94	6
71	71	1
174	179	3
8	60	2
83	86	3
173	183	1
57	57	1
166	167	3
76	76	1
145	147	2
141	157	2
27	33	1
4	12	3
141	143	1
103	103	6
37	37	3
112	122	1
39	52	2
161	175	1
46	47	1
6	11	1
129	138	2
7	8	4
172	184	2
2	9	3
0	8	6
47	58	1
142	142	2
55	67	2
10	24	2
166	180	1
139	140	2
121	121	1
39	50	1
172	173	2
136	140	1
105	109	1
114	125	1
33	43	4
100	111	3
177	185	3
122	134	1
162	169	2
57	98	2
120	121	2
60	60	2
61	73	1
135	140	1
99	108	1
156	185	1
5	8	2
1	183	2
161	167	2
169	170	1
169	183	1
172	182	5
113	113	1
62	74	2
48	48	2
4	25	2
162	163	3
149	162	2
85	86	4
33	48	1
84	89	2
156	160	1
9	9	5
2	3	1
37	40	3
106	106	2
80	87	2
136	170	1
150	171	1
6	10	2
60	63	1
50	64	7
24	61	1
173	181	1
50	61	1
181	181	2
51	51	1
193	197	1
191	191	2
174	183	2
154	159	3
83	83	2
131	134	1
158	172	1
79	80	1
1	6	1
173	176	2
119	123	1
9	31	2
55	57	6
48	53	2
23	25	1
105	117	1
103	114	1
127	129	4
36	48	1
64	67	3
1	16	1
172	183	1
156	169	4
71	72	1
154	164	2
36	46	4
40	41	1
120	122	1
10	20	2
8	19	1
78	106	2
23	34	1
0	3	1
157	169	2
87	88	1
102	118	4
180	181	3
16	156	2
25	29	2
26	27	1
128	128	1
27	28	1
1	21	4
58	59	1
49	51	1
140	147	1
42	50	1
166	171	1
45	45	2
35	39	1
98	101	1
58	156	1
191	195	2
64	73	1
108	109	2
24	24	3
125	140	1
33	34	1
79	85	3
162	170	1
142	147	2
1	17	1
23	26	1
102	114	1
32	63	1
156	171	1
165	176	2
1	5	1
115	119	1
159	171	2
27	30	1
124	127	5
19	21	1
17	24	1
122	126	1
119	130	2
13	14	1
148	159	1
29	49	1
138	140	1
53	55	1
100	100	4
54	56	1
35	55	1
186	190	1
87	87	2
16	183	1
14	17	2
99	103	1
34	48	1
62	64	1
113	122	1
12	18	3
143	145	2
175	183	1
156	166	1
129	132	1
143	150	2
158	170	2
181	195	1
10	22	1
137	149	1
153	167	2
134	135	1
45	52	1
120	124	1
182	191	1
99	106	2
176	186	1
30	45	2
96	106	1
25	27	1
40	48	1
50	55	2
94	108	2
73	84	3
3	6	2
148	151	1
151	165	1
109	112	1
60	71	1
117	130	1
130	133	1
8	11	1
61	80	1
139	141	1
79	87	1
165	188	2
125	135	2
131	131	2
143	152	1
136	138	1
11	22	1
17	18	1
44	65	1
97	100	1
63	67	1
37	135	1
3	17	1
68	70	1
142	143	1
46	56	1
61	68	1
53	61	1
142	157	1
65	75	1
192	193	1
179	189	1
112	117	1
118	122	1
175	176	1
97	103	1
12	24	1
120	120	1
137	138	2
10	21	1
107	107	1
108	122	1
141	148	1
64	70	1
158	171	1
96	118	1
138	148	1
90	90	1
171	183	1
110	111	1
134	144	1
45	53	1
44	52	1
54	70	1
108	108	2
145	145	1
100	101	1
168	169	2
179	188	1
35	45	2
49	122	1
2	16	1
69	82	1
81	81	2
13	38	1
182	184	1
151	156	1
167	176	1
36	50	2
24	40	1
41	58	1
5	9	1
119	119	1
71	73	2
54	57	1
110	123	1
29	33	1
17	19	1
2	4	1
1	75	1
112	113	1
15	28	1
128	140	1
14	173	1
54	64	1
28	32	2
163	177	1
73	73	1
174	181	1
126	134	1
160	164	2
134	142	1
158	173	1
56	59	1
49	154	1
