57	79	3
39	39	5
26	47	1
21	22	6
2	54	4
25	29	5
114	118	1
59	73	2
125	150	3
138	142	3
181	181	7
33	35	1
23	32	1
47	47	5
37	38	2
4	4	8
14	29	3
38	38	8
100	115	5
131	131	5
70	73	4
93	105	1
18	20	1
43	43	1
86	86	8
172	172	12
129	132	2
141	145	2
181	182	4
152	153	4
107	147	1
104	125	5
66	67	3
78	78	13
18	38	4
13	13	10
3	6	3
65	116	3
103	104	2
19	19	3
115	115	1
164	164	4
141	141	15
74	74	7
108	112	3
136	149	2
46	46	4
2	2	9
36	68	3
102	109	2
96	114	1
104	107	9
73	73	6
15	27	1
116	133	5
174	174	14
141	150	1
157	165	2
187	187	5
143	158	2
21	21	7
87	87	6
75	75	4
54	54	9
127	127	3
116	135	3
84	128	2
56	62	1
114	115	3
24	25	7
85	157	1
58	59	7
145	145	8
10	17	4
60	62	4
136	137	5
117	145	4
109	109	10
107	107	6
84	84	6
14	14	4
123	123	6
23	23	4
112	112	10
25	25	6
136	136	5
140	149	4
92	134	5
190	190	9
62	79	2
151	152	11
92	94	5
159	159	10
12	29	6
180	188	4
90	90	10
36	36	6
31	32	9
138	138	13
78	80	2
27	27	9
5	37	3
67	72	1
37	48	2
77	156	1
146	147	6
113	113	5
120	120	3
60	61	1
94	94	10
130	131	4
60	134	3
57	73	3
40	40	3
133	134	2
117	135	2
47	48	2
142	143	6
172	177	1
140	140	18
11	11	11
161	164	2
74	138	5
111	118	4
136	138	1
64	65	6
10	30	6
80	85	7
70	79	1
39	42	1
53	53	11
184	188	2
126	132	2
175	175	3
100	100	6
1	1	6
63	64	8
162	162	2
72	72	1
43	44	2
143	143	12
139	139	1
32	33	1
132	152	2
55	55	11
0	0	3
57	59	2
28	28	6
171	174	2
3	3	5
172	190	1
188	188	4
155	155	3
56	56	4
68	78	4
12	154	4
31	31	11
92	92	5
77	101	4
14	23	1
111	113	1
167	167	4
103	121	2
41	41	5
148	149	10
135	136	3
166	166	3
180	180	4
32	34	4
179	179	2
2	70	4
115	125	2
176	176	5
14	32	2
140	141	3
157	157	1
164	169	4
22	22	13
5	21	1
2	4	1
91	92	1
58	58	7
163	164	3
70	81	2
163	163	2
15	16	2
148	157	2
163	172	4
18	18	1
99	102	1
58	107	2
10	10	5
130	130	7
187	190	4
160	161	2
108	125	1
53	54	2
125	128	2
171	171	5
79	156	2
97	98	2
111	111	4
99	99	5
137	139	5
121	121	4
114	150	2
77	90	3
59	61	4
67	78	4
55	58	2
150	150	9
144	160	1
92	96	1
169	169	5
178	184	4
154	154	4
93	94	1
82	89	2
110	115	5
6	12	1
149	160	2
101	108	3
17	17	11
26	26	6
149	168	1
188	189	2
45	45	4
3	21	1
106	128	4
156	171	2
148	148	3
33	43	3
21	32	3
122	122	1
146	146	8
91	91	5
62	66	2
2	16	2
10	31	2
64	73	1
62	62	7
76	84	2
105	105	10
126	128	1
76	76	4
15	15	6
154	158	1
7	17	4
173	174	6
74	91	2
2	61	2
149	149	10
151	183	3
38	39	2
19	61	1
127	130	1
153	153	2
88	88	15
144	154	1
82	82	10
121	123	6
71	71	11
5	16	5
124	124	3
61	61	3
39	47	10
16	23	3
4	182	1
9	20	2
32	32	2
128	133	4
124	125	4
62	80	1
21	147	1
144	144	6
64	137	1
42	42	4
16	17	3
89	89	4
33	45	2
16	16	5
67	68	6
98	114	1
35	35	6
153	159	2
177	180	2
7	7	2
147	150	4
97	97	2
113	118	3
129	129	8
47	53	2
129	153	1
70	70	3
1	7	3
33	33	4
104	108	2
111	112	5
56	79	2
97	114	3
94	100	2
174	177	2
135	150	4
104	104	7
96	96	8
163	181	1
187	188	3
133	161	1
2	181	1
182	184	1
125	126	2
66	66	6
106	106	4
73	74	2
126	126	6
6	15	4
34	62	2
72	91	2
29	29	7
26	27	1
143	153	2
32	46	2
134	140	1
149	151	1
92	99	2
71	179	3
159	160	3
118	123	1
1	6	4
78	93	3
135	144	1
70	131	1
183	183	2
156	156	2
68	68	5
35	36	10
177	182	4
129	143	2
28	30	7
61	117	4
148	158	3
165	165	4
91	160	4
25	26	1
85	85	10
176	190	1
60	70	1
43	46	3
103	103	2
174	175	3
114	124	2
152	152	6
185	185	6
78	95	2
120	124	3
170	170	6
171	172	3
62	90	2
30	30	3
65	65	5
142	142	2
23	24	5
4	125	3
63	63	3
75	96	1
52	52	1
0	1	1
58	72	2
186	186	9
108	108	3
173	177	2
24	24	1
8	14	2
31	141	5
7	46	1
118	118	5
11	34	2
164	166	1
182	183	2
28	33	3
12	12	6
15	30	1
12	36	2
164	165	6
28	32	2
95	95	6
0	7	3
77	77	7
11	31	2
10	36	2
89	91	4
125	130	1
74	76	2
43	47	3
175	176	4
1	29	3
125	125	2
0	8	4
13	48	1
77	122	2
104	127	3
12	46	1
135	143	1
55	72	1
158	174	2
14	33	4
158	158	1
7	8	2
85	156	5
85	125	2
182	182	3
114	116	2
180	189	1
21	23	1
147	149	3
93	93	2
65	130	2
79	79	1
109	132	3
84	85	8
83	84	1
111	119	2
94	101	1
55	56	2
153	160	2
1	4	1
115	157	1
72	73	1
154	166	2
48	81	1
166	172	3
27	143	2
177	177	6
44	44	6
58	73	2
186	188	2
53	57	1
133	135	3
99	113	1
54	55	5
65	66	6
117	117	4
14	15	3
133	170	1
106	108	3
54	152	5
166	171	2
164	175	1
13	97	1
178	178	5
142	144	3
27	120	1
34	34	1
184	185	4
83	98	2
42	45	2
77	91	1
6	6	3
124	127	1
72	78	3
25	120	3
86	92	2
75	160	1
3	5	1
113	139	3
129	135	2
186	187	2
2	65	1
166	170	2
148	151	4
20	20	4
172	189	1
145	150	2
37	37	2
20	21	5
141	143	1
169	173	2
143	144	2
29	43	1
3	34	2
60	60	2
60	106	2
110	110	3
59	59	2
12	30	1
127	128	1
177	186	1
3	125	2
75	161	1
95	99	3
56	59	2
33	39	3
108	118	2
61	106	1
189	189	4
54	66	1
90	94	1
105	119	1
70	82	2
98	98	3
117	125	2
71	86	2
76	85	2
72	97	2
95	98	1
128	149	4
145	176	4
87	92	1
59	60	4
172	175	1
84	158	1
64	64	3
64	114	2
182	187	3
37	40	2
71	78	1
168	168	3
114	114	4
18	36	1
179	180	1
27	30	1
71	76	1
0	2	2
113	114	2
161	168	2
76	91	3
11	15	3
47	57	4
60	63	1
137	137	3
10	11	1
181	186	2
78	79	1
117	146	2
23	37	2
135	135	6
5	20	2
130	147	3
57	153	1
119	119	1
69	69	1
146	157	2
4	6	2
63	77	1
134	151	1
46	57	1
19	20	2
58	147	1
137	156	2
72	94	1
163	177	2
5	19	1
101	109	1
54	58	1
21	46	2
69	70	2
4	163	1
121	122	1
75	80	4
178	181	1
119	134	3
139	158	1
156	160	1
118	119	1
74	95	2
115	131	1
151	153	1
6	7	2
145	149	3
18	39	2
2	6	1
22	23	1
144	147	2
161	161	2
53	61	1
151	151	3
31	38	1
184	184	3
115	118	1
6	46	1
12	23	1
27	37	1
101	107	2
138	139	2
29	31	1
173	173	1
1	13	1
5	5	2
117	136	1
24	181	1
35	48	1
134	150	1
55	57	2
124	138	2
5	10	2
21	143	2
67	70	1
175	185	1
172	188	3
59	147	1
140	166	1
108	121	1
155	160	1
71	72	1
108	111	1
100	101	1
140	156	1
23	39	1
154	165	1
62	74	1
14	19	2
129	136	1
20	31	1
28	45	1
115	116	2
128	153	1
154	185	3
129	137	4
75	91	1
2	60	1
58	75	1
177	178	2
61	116	1
177	181	1
134	134	2
77	88	1
20	23	1
57	57	4
59	95	1
92	97	3
35	40	2
98	115	2
94	114	1
72	75	1
8	141	4
112	129	1
7	38	1
56	68	2
30	108	1
142	154	2
45	46	1
72	164	1
131	142	1
65	82	1
40	41	1
67	77	1
19	34	1
140	143	1
146	159	1
116	126	1
112	125	1
33	42	1
88	97	1
132	132	1
9	21	1
161	162	3
177	189	1
33	48	1
98	100	1
35	42	1
119	122	1
22	40	1
29	39	1
31	147	2
10	12	1
18	37	1
41	42	1
61	83	1
76	82	1
106	111	1
8	8	1
183	184	1
119	150	1
82	120	2
36	48	1
121	142	1
99	100	1
28	57	1
6	14	1
0	11	1
168	190	1
133	133	1
101	101	1
166	167	1
105	108	1
64	100	1
102	102	1
110	112	1
