88	89	10
69	69	7
103	103	3
123	123	3
7	8	6
16	37	2
94	94	3
108	108	2
134	136	3
14	14	3
132	133	3
37	37	4
142	155	1
25	26	2
27	28	2
78	82	4
90	91	3
152	153	1
18	41	2
61	61	1
65	75	1
145	145	5
105	105	1
46	47	3
146	154	1
155	155	6
114	115	3
149	153	2
21	21	2
41	41	1
33	40	1
91	112	1
132	132	9
120	136	5
117	117	6
13	27	3
38	38	8
50	50	2
109	111	1
80	81	7
2	2	2
114	114	6
14	26	1
82	115	1
48	48	4
23	23	5
31	91	8
63	63	3
106	106	2
83	83	6
134	134	4
53	53	1
67	67	6
10	10	5
32	32	1
81	81	7
116	116	5
66	66	3
139	139	4
3	3	2
4	4	5
125	125	6
89	89	8
133	133	6
127	127	5
34	34	2
1	1	5
92	138	7
12	25	4
75	98	2
92	92	9
140	141	5
18	38	2
27	27	3
147	147	6
96	130	6
119	119	8
35	51	1
54	54	3
18	18	9
51	52	3
36	36	7
122	123	1
86	87	1
115	116	3
11	12	5
108	109	1
29	30	6
12	12	4
151	151	3
135	135	2
94	95	3
93	93	2
104	104	2
30	30	2
18	19	2
87	87	3
78	78	6
85	85	4
26	26	6
80	80	3
115	115	2
120	120	10
120	135	2
67	68	2
68	68	6
111	111	3
118	118	4
98	129	4
145	158	5
152	152	6
10	30	1
45	45	4
83	84	2
156	156	2
17	17	9
87	129	3
20	20	5
5	6	1
91	91	1
5	5	4
66	116	1
62	62	1
35	35	4
86	86	2
3	31	1
84	85	1
8	8	1
0	1	3
148	148	2
89	101	2
131	133	7
99	99	4
108	111	2
120	133	1
62	63	4
128	128	3
110	111	2
42	42	5
89	90	2
36	42	5
42	43	3
96	117	1
150	150	5
29	29	3
82	83	1
113	113	3
34	52	2
88	88	1
83	115	2
98	98	2
36	44	2
19	20	3
32	43	1
70	71	2
121	135	3
138	138	7
157	157	4
73	73	3
8	43	4
63	115	1
47	47	1
17	18	6
46	48	3
128	129	2
122	122	3
97	117	1
15	15	7
137	137	1
66	71	1
82	82	3
102	102	3
101	101	2
146	146	1
38	39	1
19	19	3
52	52	2
79	79	2
132	137	2
57	61	2
11	14	1
113	115	4
55	55	3
116	117	1
69	70	3
55	105	3
65	65	5
121	121	1
131	131	5
110	110	2
144	144	2
87	109	2
136	136	3
100	100	1
135	147	1
35	40	1
12	14	2
77	77	3
65	66	4
132	149	2
112	112	3
117	119	5
6	6	2
36	43	1
153	153	1
94	96	1
92	93	1
142	157	1
75	75	2
109	110	2
63	73	2
64	116	1
98	112	1
36	37	2
84	84	1
20	22	2
25	25	1
91	111	1
76	107	1
142	143	2
149	151	1
71	71	1
146	147	3
54	55	1
109	109	1
7	9	2
117	120	1
89	99	1
3	124	2
44	44	3
142	142	2
13	13	2
142	145	1
96	96	2
141	141	1
122	126	2
129	130	2
126	126	2
24	24	2
132	148	1
75	109	1
99	101	1
31	90	1
39	39	1
121	122	1
13	14	2
127	156	1
118	119	2
107	107	1
78	79	1
16	99	1
150	154	1
141	155	4
140	140	1
3	4	1
30	36	1
30	90	1
47	106	1
92	122	1
19	52	1
35	39	1
40	41	1
104	105	1
95	95	2
158	158	1
16	29	1
69	118	1
64	64	1
102	105	1
103	105	1
92	97	1
73	99	1
87	91	1
139	140	1
33	50	2
148	150	2
19	22	1
46	46	3
144	159	1
107	108	1
16	26	1
74	75	1
125	126	1
154	155	1
77	83	1
49	49	2
11	11	1
123	126	1
33	33	1
137	138	1
125	157	1
99	129	1
