67	90	8
53	53	6
83	83	10
29	29	7
31	31	9
32	34	1
35	35	11
27	28	3
62	62	11
55	55	12
67	67	12
88	99	2
87	87	7
47	47	4
98	98	13
106	107	1
43	44	6
99	99	4
104	104	14
40	41	5
106	106	4
39	39	3
44	45	3
21	79	5
23	23	10
67	69	4
33	34	4
74	74	21
45	45	6
50	50	8
59	93	1
71	72	10
28	28	2
46	46	16
79	79	10
66	67	7
102	102	9
95	95	10
101	101	4
73	73	9
21	59	5
86	86	4
24	24	7
63	63	9
36	38	1
83	86	5
63	92	7
78	79	8
66	91	1
93	93	1
97	97	6
21	23	1
82	82	7
42	42	6
90	90	9
30	106	3
62	63	2
96	100	3
42	67	2
37	37	3
32	32	11
59	59	10
92	92	15
92	93	3
40	40	11
64	64	11
21	21	15
70	71	6
58	58	7
36	36	7
37	86	1
80	80	8
49	49	5
80	81	6
54	54	11
74	85	1
38	44	2
42	43	2
100	100	20
49	71	2
56	95	3
90	91	3
41	41	3
51	65	6
61	61	10
45	69	2
85	85	11
75	75	8
91	91	8
32	69	1
24	81	3
84	84	3
38	38	6
37	38	1
21	73	2
56	56	8
57	57	6
72	72	4
24	48	1
66	66	8
54	55	2
89	89	2
78	78	2
20	47	5
22	22	7
45	81	2
59	60	2
28	29	4
20	20	3
52	55	3
44	44	5
68	68	5
87	96	4
94	94	5
51	51	13
26	26	5
71	71	8
86	87	1
84	85	2
30	30	1
34	34	10
81	81	15
53	92	2
68	69	5
103	103	13
96	96	2
76	76	3
73	74	2
27	27	4
65	65	9
69	69	8
55	67	1
46	48	1
77	77	12
81	90	2
73	77	1
88	90	2
36	37	2
89	90	3
55	56	3
31	105	1
23	76	5
87	88	4
49	72	4
22	23	3
43	43	7
70	70	4
52	56	2
29	30	4
19	45	3
56	57	1
85	86	1
82	83	3
35	36	5
30	31	2
39	42	2
52	52	4
87	99	3
102	103	2
73	76	2
60	60	3
57	58	1
40	88	2
92	96	1
23	49	1
25	25	4
20	79	1
83	85	7
21	80	3
46	49	2
91	92	1
79	80	3
85	88	1
105	105	2
92	94	2
61	64	2
20	22	3
33	33	4
74	75	2
24	44	1
37	40	2
48	48	1
71	93	1
37	90	3
43	69	3
86	96	1
37	47	1
93	94	1
22	76	1
63	64	1
72	73	1
51	73	1
20	77	1
95	96	1
80	86	1
64	65	1
23	47	1
24	25	4
64	93	1
48	78	1
72	77	1
58	59	1
28	37	1
35	93	1
58	73	1
21	22	1
21	27	1
38	47	1
29	31	1
101	102	1
100	101	1
