37	55	5
8	8	7
127	127	8
69	69	1
41	43	8
106	124	5
36	37	4
48	48	9
43	45	4
51	55	5
149	149	2
146	153	2
4	6	1
72	76	2
79	79	6
24	30	6
14	18	5
36	36	3
13	21	1
84	106	3
138	139	5
85	85	8
102	110	2
66	77	1
106	106	7
99	108	7
126	154	1
32	56	1
29	38	2
83	87	4
12	15	4
124	124	7
103	110	3
117	118	5
93	111	1
107	110	3
24	36	4
32	33	2
73	77	4
142	142	5
12	13	3
152	154	1
139	139	3
99	101	5
108	120	5
102	105	2
108	126	4
103	104	2
6	7	2
36	46	3
129	132	2
16	17	2
118	132	2
140	141	2
127	131	2
10	10	8
9	9	2
38	39	3
121	124	3
141	141	6
9	12	1
35	42	2
39	54	2
128	136	4
80	80	2
65	66	2
111	111	3
35	52	2
126	138	1
72	92	1
102	103	5
102	106	7
23	98	2
25	25	5
109	109	4
95	99	1
86	109	3
138	140	5
109	112	3
123	144	1
32	35	5
25	26	6
116	116	1
126	129	1
68	71	4
113	124	2
30	30	5
18	20	4
119	119	2
120	134	2
78	80	4
76	98	1
54	56	3
98	121	2
26	26	4
8	12	2
125	145	6
145	145	7
57	57	5
9	13	2
149	151	4
93	93	7
15	34	2
83	83	3
131	131	9
110	112	3
11	12	3
83	86	3
98	101	2
88	88	3
96	96	3
22	29	4
30	44	1
41	41	8
104	124	2
92	93	7
6	8	1
62	62	2
3	29	4
149	150	4
20	20	4
35	35	4
6	6	2
8	10	2
66	66	5
15	38	5
116	125	4
46	47	5
94	95	3
23	23	4
109	113	3
64	65	1
26	29	1
95	109	2
99	99	1
108	108	2
67	73	3
7	8	3
143	147	3
129	130	6
32	32	2
117	137	1
20	100	5
95	102	1
107	107	3
34	47	1
110	123	1
13	17	3
113	116	2
31	32	1
107	108	2
130	130	13
105	105	1
65	75	2
47	58	2
13	18	1
74	83	3
78	78	3
95	100	1
9	35	2
87	88	1
79	85	4
140	143	2
98	118	2
55	93	1
85	86	3
50	50	2
124	145	4
65	78	2
125	127	5
146	146	4
85	90	3
51	53	1
138	141	4
98	99	1
129	129	4
4	7	7
66	70	1
94	113	1
56	69	1
125	125	6
147	147	5
70	82	2
65	71	1
38	38	3
83	102	1
136	136	6
12	108	3
65	72	2
150	150	1
92	94	6
5	8	2
135	135	3
27	39	1
13	35	3
70	70	2
89	105	2
10	12	3
6	10	4
90	107	1
142	144	7
25	95	1
64	70	3
104	107	3
5	5	1
71	78	2
24	27	2
85	111	1
24	25	3
68	69	2
13	32	4
112	127	2
76	84	2
45	45	3
30	34	4
30	41	1
64	77	2
149	152	4
131	132	6
106	108	2
24	24	2
136	140	1
2	31	1
133	136	4
110	118	5
104	119	1
122	125	3
144	144	2
115	116	2
6	9	2
113	122	2
122	132	1
40	40	2
78	81	1
124	125	2
145	153	1
94	94	3
150	151	2
39	39	5
118	118	3
65	70	3
51	56	1
16	42	1
71	71	2
38	40	2
131	138	1
124	131	2
37	38	4
123	130	1
93	108	1
128	128	6
144	145	2
120	120	2
53	57	2
41	46	1
4	154	2
14	19	1
46	46	6
21	22	2
112	113	3
46	48	2
154	154	1
16	19	3
64	79	2
125	128	1
14	24	1
31	31	3
53	73	1
46	53	1
19	22	3
49	49	2
56	57	3
89	108	1
130	142	1
121	121	1
53	56	5
34	75	2
19	21	1
23	24	3
103	103	2
87	87	3
34	43	2
114	114	5
134	134	1
39	41	2
38	44	1
15	15	2
25	36	1
72	74	1
145	150	1
78	86	3
84	84	6
93	109	1
63	66	1
20	22	2
33	35	3
77	77	1
20	21	3
96	101	1
142	143	3
112	118	4
45	53	2
74	74	4
30	35	2
104	120	1
4	28	2
84	97	1
148	151	4
147	148	1
35	37	1
93	95	1
15	22	1
110	119	1
98	98	7
111	126	1
45	46	1
63	67	2
22	22	2
17	100	2
137	145	2
45	49	2
28	30	1
46	49	5
81	81	2
8	35	3
21	23	1
29	44	1
129	135	1
25	29	1
43	44	2
125	142	3
76	83	2
67	68	1
4	8	1
77	82	3
94	114	1
132	132	1
69	72	2
48	50	2
13	16	1
103	121	2
4	4	1
137	140	1
69	79	2
11	11	4
42	42	2
28	41	2
52	56	2
21	26	1
108	110	2
80	81	1
127	132	2
74	92	1
22	25	3
53	78	1
67	67	1
149	154	1
15	21	2
98	100	1
17	18	4
109	110	2
3	26	1
85	87	1
5	30	1
148	153	2
66	90	1
148	150	1
13	33	1
48	55	1
108	114	3
39	43	1
138	138	1
30	39	1
16	38	2
78	84	1
80	82	1
113	125	2
98	104	1
95	95	2
125	154	1
68	79	1
62	68	1
47	49	1
100	102	1
123	146	1
139	141	2
17	17	1
27	27	1
115	115	2
130	136	1
30	36	2
123	124	1
150	153	1
53	90	1
18	18	2
110	113	1
102	114	1
113	115	1
14	22	1
9	11	1
136	138	2
41	45	1
84	102	1
123	123	1
138	144	2
114	117	1
82	120	1
83	122	1
109	132	1
94	97	3
115	144	1
66	82	2
20	35	2
30	55	2
133	133	1
81	87	1
100	104	2
70	71	1
134	135	1
73	73	1
2	2	1
145	148	1
126	137	1
104	104	1
113	133	1
150	154	1
91	102	1
93	105	1
119	120	1
96	103	1
71	85	1
113	113	1
