4	4	2
2	14	3
23	25	1
84	87	2
122	127	1
70	76	2
89	105	2
100	107	3
160	161	2
34	38	4
84	106	2
12	13	2
79	84	3
145	145	2
9	11	4
118	120	1
36	124	7
141	155	3
152	155	1
151	152	6
87	95	1
84	84	2
160	160	6
153	159	2
121	135	4
141	141	6
5	16	1
36	36	1
152	158	1
168	168	2
74	74	6
101	112	3
138	138	8
23	23	4
119	134	1
78	93	3
103	119	1
151	154	1
104	112	2
121	122	3
125	126	4
167	169	1
51	51	5
22	23	6
159	159	6
97	106	1
54	55	4
1	5	2
76	76	2
72	72	2
130	142	3
21	27	1
2	5	1
92	99	4
70	72	2
26	26	1
100	102	6
99	100	1
34	36	1
35	37	6
1	6	1
99	99	1
57	64	1
118	118	3
42	46	1
65	65	4
4	5	8
68	70	5
17	40	6
112	115	2
156	163	2
3	4	2
108	108	4
111	111	2
100	111	2
43	45	4
44	51	2
169	170	1
119	122	1
71	73	2
10	19	3
112	112	5
80	88	5
9	13	1
66	66	4
1	2	2
80	94	2
133	135	3
4	16	4
71	71	3
57	57	2
145	155	2
97	105	1
103	103	4
36	70	1
85	89	2
111	114	4
106	110	3
167	167	4
119	125	1
87	98	2
169	169	1
93	107	3
44	44	5
71	82	1
63	76	2
47	49	1
1	24	1
89	100	1
5	5	5
27	35	3
163	164	6
9	12	1
53	55	1
72	73	2
157	165	2
130	133	1
162	163	2
98	100	2
73	73	1
114	119	1
25	37	3
116	116	1
115	118	1
166	166	7
103	110	1
87	88	2
0	3	4
141	147	3
68	68	1
165	166	2
66	69	3
139	147	3
87	87	1
53	53	4
107	108	8
1	1	2
99	109	2
120	120	2
90	91	1
53	54	2
38	68	3
2	2	2
116	128	3
46	52	1
0	1	2
5	20	1
51	57	1
87	89	3
89	91	8
73	76	1
10	20	1
151	151	4
107	118	1
119	124	1
142	170	2
127	138	1
145	148	1
69	73	4
88	88	2
8	8	3
38	46	1
127	130	1
122	125	2
66	67	3
101	101	1
95	117	1
38	47	2
83	88	2
37	45	2
91	91	4
137	143	2
109	110	1
48	54	1
154	161	2
133	146	3
142	142	2
66	70	2
11	11	6
3	3	3
149	150	5
62	69	1
36	42	3
115	129	1
73	75	2
70	80	1
91	99	1
37	40	2
157	157	5
48	78	1
163	165	7
23	26	1
83	83	1
40	44	4
101	102	1
67	73	1
158	166	2
168	169	5
52	56	1
104	115	3
75	82	3
49	51	1
3	11	3
9	24	2
52	52	2
138	148	7
108	129	2
134	134	3
94	109	1
114	129	2
16	18	2
130	130	3
94	102	2
150	150	7
164	166	1
139	139	6
92	92	2
98	105	2
95	97	1
33	34	1
46	46	3
75	84	2
26	27	2
82	82	1
0	13	1
84	96	1
39	39	4
77	79	1
71	81	3
95	108	1
63	66	1
20	20	2
71	84	2
115	115	1
75	86	1
54	58	2
104	119	3
64	64	1
104	107	1
138	139	2
123	123	1
153	154	1
33	43	2
67	72	2
111	115	2
95	95	2
155	155	3
44	49	1
154	156	1
104	113	2
16	16	2
46	48	4
74	91	1
41	51	3
122	122	2
158	158	7
92	109	5
84	93	1
63	72	1
50	58	1
87	90	2
12	19	1
146	148	3
40	42	2
166	168	1
155	156	1
37	71	3
148	149	4
130	131	1
77	78	2
145	146	2
48	53	2
132	132	2
113	122	1
114	120	4
17	18	3
160	169	1
140	149	1
55	55	2
73	77	1
67	67	3
118	126	1
16	17	1
6	11	1
34	39	1
100	101	1
135	136	1
159	162	1
93	96	2
69	69	1
37	41	1
39	40	1
148	165	1
28	28	2
94	94	1
40	50	1
2	3	1
45	45	1
62	64	3
54	54	1
144	147	4
84	92	1
90	93	5
150	152	2
140	145	1
17	20	1
2	7	2
124	125	1
112	114	1
63	63	1
25	25	1
13	13	1
43	49	1
81	81	1
121	123	3
67	68	2
102	119	3
133	142	3
152	152	1
157	160	1
117	124	1
49	50	2
88	97	3
6	6	2
68	71	1
41	44	1
48	49	1
90	96	1
122	123	3
131	131	1
124	139	4
43	44	1
33	47	1
134	146	4
24	28	1
158	162	2
136	144	1
72	82	1
1	10	1
105	106	1
74	79	1
19	20	1
103	108	1
128	131	1
4	11	2
71	80	1
43	46	2
157	162	1
51	66	1
62	62	4
120	121	1
45	47	1
94	106	1
51	54	4
49	49	1
35	42	2
164	164	1
103	104	2
135	135	3
88	89	2
153	155	3
7	10	1
137	138	1
5	9	1
96	96	1
41	42	1
111	113	1
38	44	1
77	77	2
118	121	1
1	3	2
164	169	3
125	125	1
75	80	1
110	112	2
56	56	2
17	17	3
25	28	1
129	129	1
25	35	1
65	80	1
108	115	1
15	16	1
14	15	1
159	168	1
139	152	1
22	22	2
1	7	1
143	152	1
85	93	1
162	168	1
138	141	1
147	147	1
163	167	1
42	42	1
122	135	2
20	21	1
14	19	1
106	106	2
108	110	1
40	40	1
126	136	1
38	38	1
22	24	1
131	135	1
83	93	1
140	140	1
57	71	1
161	161	1
145	147	1
127	128	1
76	78	1
157	168	1
88	90	2
37	37	1
10	11	1
149	155	1
141	149	1
35	38	1
138	140	2
139	141	1
1	8	1
9	14	1
156	162	1
1	12	1
124	124	1
45	46	1
116	118	1
82	87	1
145	151	1
41	41	1
126	127	1
74	77	2
143	146	1
140	143	1
102	102	2
12	14	2
102	106	1
40	43	1
126	126	1
133	136	1
112	123	1
39	45	1
100	104	1
128	128	1
150	164	1
3	9	1
78	81	1
117	128	1
68	78	1
155	166	1
3	5	1
142	147	1
