107	107	6
100	101	3
139	140	3
41	41	6
75	75	6
145	154	4
99	99	2
144	147	2
122	124	1
32	32	3
147	153	2
22	22	4
33	34	3
7	7	5
89	95	1
98	98	12
129	129	7
28	28	6
14	14	2
101	101	3
0	3	3
12	12	1
54	54	5
126	126	2
91	91	3
24	24	1
115	115	4
137	157	4
141	142	2
107	111	2
50	51	3
7	8	2
26	26	9
138	138	6
140	140	1
36	36	2
50	50	2
81	82	3
91	97	3
145	148	1
79	79	5
44	44	7
154	155	3
111	111	5
39	39	1
85	86	3
129	140	1
68	69	2
11	11	6
27	27	2
30	30	1
3	3	2
1	1	6
145	145	3
90	90	5
101	102	1
127	127	2
53	54	1
41	43	1
141	141	2
29	29	4
116	116	1
2	2	3
96	96	4
48	48	2
105	105	2
43	44	1
117	117	3
137	137	2
122	122	2
103	113	1
37	37	2
38	38	1
153	153	2
66	66	2
133	133	1
23	24	2
69	70	1
14	15	1
32	91	1
134	134	6
151	151	1
146	146	1
45	50	1
69	71	1
135	136	3
116	117	4
107	109	3
122	127	8
105	127	1
97	97	1
46	46	2
118	134	4
9	9	2
33	41	2
119	121	1
116	118	1
99	100	1
93	94	2
104	104	3
65	65	3
102	114	2
83	83	4
35	35	4
93	95	2
61	61	1
93	93	2
47	50	1
121	135	1
108	108	4
6	6	1
130	130	2
121	122	4
108	109	2
139	139	2
7	145	2
92	92	3
55	55	3
125	126	1
146	147	2
101	139	2
72	72	1
73	78	2
91	92	3
27	28	2
147	154	3
8	155	2
76	76	2
25	26	1
100	100	1
54	55	1
51	51	1
8	9	1
31	31	1
118	119	2
7	152	3
95	96	1
105	112	1
7	146	2
105	113	1
88	89	2
3	140	1
19	19	1
47	47	2
17	18	3
31	40	1
128	128	3
77	77	2
96	97	2
104	127	3
130	131	1
23	23	1
53	53	2
131	131	1
34	55	1
110	111	1
124	125	2
73	73	3
68	68	1
143	143	1
95	95	1
44	45	1
151	152	2
80	80	1
30	36	1
150	150	2
156	156	1
122	126	1
34	54	1
155	155	2
120	121	1
102	102	1
34	42	1
4	4	2
116	141	1
141	158	1
112	112	1
120	134	1
111	112	1
141	144	1
146	155	1
2	5	1
114	114	1
