167	167	11
128	128	15
62	62	5
79	79	9
2	4	4
154	154	6
143	144	1
2	17	5
157	157	16
126	126	25
110	111	8
97	98	7
55	56	6
109	110	12
12	12	6
121	122	9
135	135	11
155	156	6
37	37	9
7	11	1
158	159	15
121	121	11
91	91	11
168	168	12
127	127	23
122	122	9
108	117	2
89	91	2
7	19	3
150	180	3
65	65	5
163	163	18
36	85	2
86	86	5
172	176	6
61	63	2
37	65	3
78	79	14
116	116	18
172	174	3
83	86	6
41	41	1
58	58	6
56	56	4
104	104	9
2	10	1
125	125	18
25	25	4
65	76	2
19	20	5
89	89	13
89	146	4
142	143	3
171	171	10
50	74	3
130	130	7
82	97	5
92	94	5
110	110	8
63	67	6
169	169	10
50	103	5
25	26	7
119	120	16
131	131	15
51	51	9
172	173	8
115	115	18
85	85	5
162	162	14
140	140	11
32	32	29
153	153	21
37	38	2
77	77	19
74	75	1
80	94	1
148	148	7
169	174	3
95	95	17
154	156	3
92	92	2
61	91	4
53	57	4
118	118	8
129	131	9
6	6	13
167	169	3
51	55	1
106	106	12
157	161	3
148	179	3
114	152	3
156	156	8
1	2	2
145	145	11
32	42	3
152	152	12
6	12	4
100	101	3
92	106	2
55	55	15
31	32	8
39	39	4
89	90	2
62	65	2
81	81	9
91	136	6
108	128	2
102	102	8
90	91	14
135	152	4
71	71	17
55	58	2
30	31	5
12	20	1
82	82	9
107	107	7
129	130	5
165	166	8
57	59	2
7	45	4
133	134	2
67	67	8
71	72	9
8	8	10
150	150	15
136	136	12
116	117	10
151	163	3
175	175	11
174	174	10
10	10	10
115	157	1
101	112	1
74	74	8
108	109	5
172	172	19
24	24	12
99	99	8
7	7	2
114	114	11
164	165	1
53	53	2
154	155	8
26	26	7
2	2	8
75	75	8
9	9	5
123	124	3
78	135	2
28	31	1
34	62	2
73	73	5
15	23	2
138	138	13
147	147	6
31	31	10
54	54	8
99	129	3
115	158	5
179	180	4
17	68	2
60	165	3
20	21	3
134	134	15
27	27	8
42	76	3
129	129	8
52	52	1
78	78	6
4	4	4
66	66	12
135	136	5
13	13	10
1	44	2
49	50	4
64	64	14
8	45	3
137	138	1
4	17	2
109	109	10
44	44	3
109	128	6
97	97	8
20	20	5
105	105	6
72	72	5
52	53	6
100	147	4
154	158	4
126	127	2
158	158	21
159	159	11
146	146	7
126	160	2
87	153	3
64	65	8
156	161	5
22	38	3
113	113	5
29	29	9
142	142	10
143	143	2
63	63	9
40	41	5
108	108	11
137	137	7
57	57	2
170	170	6
160	160	10
83	83	7
161	162	3
166	166	6
86	87	4
18	18	11
30	42	1
149	151	1
96	96	11
15	71	3
80	80	7
94	94	9
171	172	4
106	107	4
10	45	1
159	160	9
154	159	8
139	139	6
17	18	5
179	179	5
158	161	2
149	149	10
45	46	1
88	88	26
128	130	2
141	141	8
65	68	3
15	18	5
34	61	2
151	155	2
68	77	3
155	155	3
100	100	8
65	75	2
32	36	1
1	1	7
90	171	4
144	144	8
83	87	5
17	17	14
23	23	4
143	147	4
19	67	5
38	41	2
144	145	2
133	133	3
5	5	7
5	13	3
93	93	7
84	85	5
8	12	2
123	123	4
173	174	3
36	36	13
65	66	6
80	87	2
24	25	7
98	99	3
103	105	5
176	176	18
91	92	3
80	86	3
15	15	7
164	164	8
86	94	3
151	154	3
61	61	12
102	111	1
127	131	4
19	43	2
51	52	3
23	27	4
52	59	2
27	31	1
124	124	8
145	147	1
76	76	5
178	179	3
88	102	5
165	165	8
90	90	6
40	40	4
35	35	8
150	168	2
70	71	2
62	63	4
112	153	1
113	114	2
120	121	1
60	60	14
112	112	5
130	135	2
115	156	1
99	102	2
88	93	1
88	89	3
41	42	6
150	159	5
170	171	3
50	51	4
43	43	7
33	33	11
61	74	1
63	66	1
162	170	1
59	59	7
87	89	3
3	40	5
81	84	5
126	158	1
161	161	9
81	83	3
26	27	1
135	146	2
177	177	3
45	45	1
169	170	3
150	151	4
178	178	4
38	39	5
76	77	11
173	173	7
42	42	8
125	159	3
16	19	2
79	80	1
0	0	11
115	117	5
151	151	5
130	151	1
131	132	5
87	87	6
127	156	1
16	16	6
50	52	1
134	146	3
51	53	4
131	141	1
43	67	1
166	167	3
66	75	2
117	117	5
170	174	5
16	17	3
18	19	2
17	20	2
168	177	1
84	84	8
118	119	1
28	29	2
36	37	3
54	56	1
132	132	6
67	77	3
131	175	4
65	98	3
56	58	3
11	11	5
29	30	2
17	19	1
158	162	1
50	75	2
34	34	6
60	61	1
168	173	3
10	11	6
173	177	3
22	23	5
112	114	1
70	78	3
66	67	1
23	37	3
25	64	1
35	65	1
160	161	2
66	68	2
173	178	1
73	130	3
96	98	1
119	121	4
50	77	4
111	111	1
103	104	4
122	123	7
125	126	1
18	23	1
113	152	1
19	21	1
140	149	3
147	148	2
79	94	1
0	1	2
101	103	1
8	11	5
18	68	1
154	161	1
101	101	1
42	43	1
155	171	3
148	174	1
172	175	2
145	146	2
23	28	2
81	85	3
67	71	2
28	30	3
167	170	2
35	38	1
35	36	1
84	93	3
68	75	2
50	102	1
89	104	1
75	90	3
115	116	3
22	22	2
28	28	3
12	13	1
142	151	1
96	134	2
110	113	1
121	123	1
121	153	1
4	20	2
163	169	1
9	12	2
32	97	1
30	30	2
98	98	3
146	152	1
36	65	3
2	3	2
72	73	3
76	88	4
43	49	1
103	103	3
21	21	4
130	150	4
95	97	7
119	119	7
116	121	1
105	106	2
4	5	1
139	140	2
100	102	1
15	16	4
99	100	3
111	112	3
55	62	1
137	141	1
168	171	3
101	150	3
163	164	1
67	68	3
6	7	3
41	43	4
38	38	2
117	118	3
35	39	1
112	157	2
56	64	3
19	153	2
41	118	1
54	55	1
134	136	1
6	11	1
180	180	1
34	35	3
148	152	2
68	68	1
49	73	1
92	125	1
139	141	1
40	44	2
65	139	2
136	178	4
170	175	1
120	120	1
9	10	2
112	152	1
141	148	4
9	11	1
7	17	1
153	164	2
132	133	3
10	14	2
100	136	1
57	72	1
3	39	1
149	150	3
1	4	1
137	142	1
130	131	2
77	78	2
54	66	1
148	151	2
74	77	1
17	76	1
96	97	1
3	3	3
66	129	2
152	167	1
34	36	1
122	134	1
86	153	1
143	145	1
90	107	2
159	166	1
81	82	1
142	149	1
56	74	1
68	137	1
156	166	2
146	147	2
153	154	1
133	148	1
50	50	1
145	149	1
103	155	1
19	19	4
53	121	1
68	76	3
24	26	2
82	85	1
12	46	1
166	169	1
33	97	1
150	163	2
11	14	1
97	134	1
93	94	1
175	176	1
39	40	1
169	171	1
34	40	1
127	136	1
8	9	1
64	76	1
152	153	1
5	43	1
120	156	1
158	160	1
63	64	1
83	84	2
107	117	1
85	86	1
110	128	1
168	172	1
67	70	1
138	141	1
73	76	1
95	108	1
25	29	1
74	127	1
157	160	1
90	92	1
114	115	1
53	54	1
80	81	1
142	148	1
27	28	1
109	112	1
36	67	1
61	92	1
163	166	1
