105	105	7
109	109	8
98	98	8
55	65	3
35	36	5
107	153	2
146	146	9
135	135	4
94	94	12
20	21	10
78	78	6
92	142	3
110	140	4
17	17	16
152	152	6
3	3	10
75	78	1
63	67	3
79	79	12
22	32	2
103	103	12
32	32	10
139	142	2
73	73	3
12	12	10
99	99	6
58	92	3
46	46	9
81	81	14
102	102	20
34	38	1
131	132	4
100	100	3
36	38	2
18	18	9
96	115	3
113	113	4
54	133	3
31	55	3
49	49	16
11	11	3
30	36	1
143	145	6
97	97	4
8	34	2
7	7	7
80	80	7
104	126	1
72	72	8
130	130	7
47	69	3
37	37	10
142	142	5
43	43	13
20	20	11
148	148	14
101	103	5
25	26	3
62	65	3
105	148	3
35	37	3
134	134	11
117	117	6
75	79	2
22	50	1
72	79	7
26	26	11
145	150	6
77	77	12
116	116	2
7	23	4
21	50	3
79	82	3
142	144	3
31	32	2
138	138	10
141	141	11
95	96	2
13	13	7
45	45	11
50	51	3
76	76	5
104	104	5
123	124	3
83	83	3
11	46	5
62	64	3
65	101	5
143	150	6
67	67	3
101	101	6
128	139	2
54	54	5
94	95	9
122	127	4
139	143	4
77	78	2
67	68	2
115	115	8
12	16	3
69	70	7
68	70	1
150	150	2
93	93	9
128	128	4
38	39	5
8	9	2
33	34	4
90	98	2
124	152	5
47	47	6
70	70	14
16	16	5
28	49	3
45	48	3
131	131	5
24	24	7
12	23	4
62	72	4
97	112	1
33	37	3
45	51	2
35	44	1
13	18	2
124	126	3
115	116	1
74	74	8
5	17	2
100	135	6
68	82	2
26	38	5
119	120	5
75	75	4
45	46	5
63	63	18
14	14	9
28	30	4
50	50	7
34	34	8
53	53	3
66	66	7
94	98	1
81	89	1
6	6	12
112	112	4
125	125	5
124	151	2
42	84	2
137	138	2
15	15	5
104	115	3
105	130	3
9	11	3
96	96	4
52	54	2
153	153	7
141	144	1
73	74	4
143	146	2
151	151	9
136	136	3
124	132	1
95	125	2
139	139	6
144	146	4
42	42	6
65	92	5
37	40	8
42	86	2
84	86	1
92	100	1
82	83	4
94	102	1
147	147	3
114	117	5
36	36	8
55	78	8
71	111	5
38	38	3
145	145	6
92	128	1
29	29	8
109	110	4
123	123	9
3	21	1
31	57	3
32	38	4
137	137	7
11	12	1
56	56	8
21	22	4
119	121	2
134	144	2
9	9	17
16	17	1
76	134	1
6	22	6
39	39	4
121	121	15
129	129	7
45	62	3
27	28	1
2	2	4
104	105	3
95	95	5
25	25	5
28	28	2
123	135	3
133	133	12
31	31	6
126	126	5
33	57	3
64	64	3
75	81	3
114	114	3
154	154	11
33	69	1
112	139	1
106	107	1
70	73	2
135	136	1
85	85	8
105	147	2
67	77	2
118	118	4
103	128	1
76	80	4
84	84	4
65	65	6
41	41	2
87	124	4
140	140	3
17	35	4
63	79	2
75	103	3
10	10	6
120	133	2
105	146	2
128	152	4
47	48	2
109	120	4
57	66	2
33	33	1
4	32	2
96	98	1
25	31	5
132	133	2
34	68	3
70	71	3
64	79	3
148	149	1
65	100	2
145	146	1
103	108	4
94	112	2
108	109	5
70	74	2
84	89	1
61	73	3
143	149	4
75	109	1
93	142	3
57	57	5
103	111	3
46	48	3
19	34	4
107	107	6
93	129	3
100	102	2
13	14	1
63	80	1
35	35	8
29	30	1
86	86	6
125	130	5
62	62	3
4	35	1
147	151	3
149	150	2
17	36	2
39	40	2
31	40	2
78	85	1
120	120	7
93	94	4
46	47	4
74	108	1
71	149	2
8	20	5
55	56	1
113	114	1
81	108	2
101	102	3
87	115	2
150	151	1
119	119	4
143	143	1
88	125	3
4	5	5
88	88	2
66	100	2
48	54	2
5	14	1
127	128	6
4	12	1
43	44	3
110	110	2
48	48	4
133	148	3
72	82	1
121	124	3
21	54	1
13	19	3
42	88	2
45	53	1
128	129	1
124	127	2
49	54	1
35	39	2
41	42	6
34	37	4
151	152	7
35	40	2
30	56	3
144	144	1
46	68	1
122	122	4
34	36	2
149	149	5
88	95	2
15	16	3
65	67	1
77	80	2
106	122	3
50	55	1
126	127	1
12	13	2
47	49	1
110	141	2
56	78	1
69	69	4
100	101	2
131	144	1
120	121	2
82	108	1
116	117	2
90	90	2
96	101	2
129	136	3
115	121	1
107	154	2
38	40	2
132	132	4
19	30	2
54	70	1
74	81	2
44	55	2
19	19	4
53	55	4
130	134	2
30	30	2
84	87	1
35	68	3
107	139	2
50	70	1
5	6	2
19	36	1
108	108	4
127	127	2
140	141	1
114	116	3
5	21	3
74	111	1
101	125	1
91	101	1
18	22	1
133	152	1
105	106	2
124	124	1
123	125	1
122	133	1
56	57	5
37	38	1
29	39	1
10	32	1
68	68	5
46	78	1
4	7	2
66	68	1
71	150	1
5	5	2
40	40	1
21	51	2
28	29	1
24	26	1
31	33	1
43	57	1
99	100	1
75	77	1
31	38	1
55	87	2
26	28	3
37	97	1
44	44	1
10	22	1
51	52	1
93	131	2
22	22	4
51	51	2
27	27	1
11	32	1
113	129	1
48	49	2
71	71	1
21	24	1
30	57	1
76	105	1
53	68	1
55	82	2
5	7	1
23	23	1
153	154	1
105	108	1
116	134	1
7	11	3
21	21	1
139	141	1
84	88	2
128	131	1
41	57	2
16	19	1
58	61	1
50	69	1
58	58	1
54	55	1
17	19	1
35	38	1
8	35	1
83	85	1
94	127	1
82	87	1
4	4	1
49	67	1
102	117	1
73	76	1
22	33	1
118	119	1
3	10	1
125	151	1
134	154	1
30	44	1
42	47	1
111	111	1
