5	15	1
67	67	5
64	72	1
24	24	6
115	115	15
46	46	10
25	30	1
82	82	5
112	131	3
92	99	5
55	56	4
57	57	16
88	92	2
119	122	2
111	111	6
79	83	11
89	89	1
127	128	9
93	93	9
29	30	1
83	84	3
90	90	7
102	104	6
114	114	1
111	112	5
94	94	3
56	125	3
112	112	13
133	133	7
13	13	14
24	26	1
11	11	7
66	66	7
130	130	6
128	129	9
2	3	2
103	103	12
112	133	6
80	80	4
99	100	1
43	43	8
25	42	1
57	133	2
131	132	10
84	85	3
128	130	2
16	17	3
95	96	2
119	126	3
45	46	8
14	15	5
21	21	16
118	119	2
57	58	7
105	106	7
2	20	2
75	75	8
47	47	10
75	76	2
5	5	6
98	98	2
102	102	2
63	63	7
58	58	3
60	60	14
99	99	3
27	36	3
38	38	7
129	129	10
73	73	8
61	62	7
103	113	1
97	97	17
128	128	3
44	44	9
26	29	5
26	37	1
102	116	2
56	56	6
113	114	3
100	100	2
46	79	1
84	84	3
64	65	6
88	105	2
26	28	1
83	83	6
1	1	9
14	16	4
74	107	1
93	96	5
62	66	1
25	31	1
91	91	9
106	106	7
6	104	5
33	33	7
34	34	6
81	91	1
19	19	15
102	106	1
3	4	2
51	100	2
91	96	3
45	45	4
79	79	4
110	110	8
20	21	4
132	132	5
15	107	1
79	102	1
95	95	1
8	18	5
14	14	5
112	124	1
61	117	4
132	133	2
33	34	2
29	29	5
38	39	1
23	35	4
85	85	8
79	81	1
93	95	5
121	121	9
83	85	1
34	36	4
77	83	2
45	58	2
113	113	9
9	9	13
119	119	12
42	42	15
35	59	3
96	97	1
91	92	4
26	27	3
4	81	2
14	95	2
25	32	2
97	127	1
18	18	2
68	69	1
74	77	3
61	74	4
41	41	3
94	97	2
15	15	13
117	117	3
17	17	10
78	78	5
21	23	2
2	2	5
96	96	3
49	49	4
30	42	1
72	72	7
123	123	4
43	44	2
104	104	2
7	8	4
11	14	1
86	86	4
31	32	5
4	16	3
109	110	2
128	132	2
70	70	5
36	40	1
27	27	14
7	7	3
116	116	3
66	67	2
44	45	1
93	99	3
47	60	1
20	20	3
122	122	4
55	55	6
36	36	5
39	40	2
19	30	3
3	17	1
119	120	3
10	10	2
96	105	1
103	115	1
27	29	2
0	0	1
35	40	2
83	86	2
89	90	2
75	111	2
127	127	7
76	76	8
23	23	3
97	102	3
35	37	1
39	39	6
111	119	1
32	32	4
124	124	6
40	40	5
108	108	3
103	127	4
94	95	4
68	68	10
56	93	2
109	112	4
56	133	1
6	14	1
23	24	5
84	119	4
35	35	3
112	113	3
58	70	1
118	118	7
98	104	2
81	82	5
15	16	2
8	8	6
109	109	5
66	72	2
71	85	1
85	107	3
7	20	2
25	38	4
71	71	3
87	87	3
133	134	2
119	129	2
36	59	1
108	112	1
108	110	1
65	65	4
74	74	2
88	93	2
64	76	1
101	101	3
105	105	4
57	60	1
39	43	1
134	134	2
121	129	1
29	37	2
113	124	2
28	28	9
61	61	4
80	83	2
62	62	6
66	68	3
17	19	2
79	84	2
124	133	2
26	36	3
6	6	11
120	131	3
49	50	2
59	59	3
7	17	1
48	113	1
121	122	2
97	104	4
115	117	1
114	124	1
12	12	2
20	26	1
64	64	4
126	126	3
4	4	4
131	131	2
7	95	1
70	78	3
3	108	1
96	111	1
120	120	4
72	73	2
58	59	3
26	40	1
78	79	4
74	75	3
69	74	3
17	18	2
30	30	5
101	103	4
84	86	3
91	105	3
114	119	3
81	81	3
31	31	2
48	133	1
79	85	1
110	111	2
22	22	4
48	48	1
3	14	2
120	121	1
121	131	1
85	86	2
87	89	1
121	127	2
111	123	1
121	126	2
4	13	1
91	97	1
125	125	4
25	39	2
112	121	2
35	38	3
4	45	2
5	13	1
127	132	1
9	10	1
79	109	1
29	31	3
0	2	1
24	33	1
23	59	3
105	132	1
92	93	5
110	113	1
4	14	2
41	42	1
63	65	2
95	113	1
32	38	1
88	88	2
30	37	2
105	110	1
42	45	2
92	92	5
3	3	1
56	57	1
5	30	1
119	121	1
104	127	1
77	77	2
27	28	5
106	122	1
72	78	1
118	134	2
107	107	3
41	45	2
94	100	2
65	115	1
28	32	2
115	116	2
94	99	1
89	108	3
28	33	1
79	80	3
123	132	1
8	9	1
28	31	1
114	117	1
122	131	2
6	15	2
124	129	3
62	73	1
36	37	1
37	40	2
125	126	1
92	101	1
78	80	1
16	16	1
32	34	1
6	44	1
112	125	1
28	29	1
5	106	1
81	89	1
54	109	1
14	30	2
64	73	2
5	20	3
24	30	2
36	55	2
18	29	2
96	99	1
23	101	1
73	77	1
46	47	1
1	2	1
36	39	1
5	22	1
59	98	1
96	132	1
16	35	1
41	48	2
31	39	1
117	118	1
26	26	1
95	98	1
126	130	1
25	43	1
81	93	1
98	99	1
104	105	1
25	26	1
11	13	2
32	35	1
13	46	1
69	69	1
65	68	1
60	117	1
118	121	1
130	131	1
5	37	1
