118	118	6
161	161	9
180	180	2
13	13	12
123	124	4
44	46	1
71	71	5
146	146	14
160	160	11
131	131	9
73	169	5
131	132	1
161	162	3
96	96	4
17	18	5
6	6	16
18	18	6
128	128	6
98	98	10
60	60	6
60	165	1
125	126	3
171	171	6
88	108	2
176	176	8
103	106	6
174	174	9
155	179	5
152	152	14
10	43	1
156	157	3
151	152	2
42	43	2
167	167	13
49	49	8
114	165	2
111	112	2
4	21	2
60	61	3
33	33	9
64	64	8
153	153	7
44	44	7
114	114	11
116	118	3
21	21	4
172	172	9
95	141	2
110	110	11
157	158	4
86	87	2
133	134	1
25	25	3
148	149	3
4	4	1
38	39	3
88	88	5
107	107	6
40	144	3
145	145	7
91	95	2
30	30	3
31	31	1
31	32	1
122	122	12
57	57	4
26	28	3
39	40	5
2	2	7
100	100	4
102	106	2
65	170	1
112	113	3
94	94	3
81	81	8
111	111	8
63	85	2
29	29	5
165	165	11
139	139	2
154	154	4
163	166	1
103	105	1
2	3	8
162	164	4
163	163	6
10	44	3
136	136	13
52	130	3
85	85	6
61	61	8
89	89	11
115	116	2
124	125	5
16	19	2
77	77	5
6	7	3
102	102	6
166	166	9
147	147	5
55	55	1
38	38	8
28	28	7
63	63	3
26	26	7
104	104	4
119	119	3
5	5	11
148	148	11
80	158	1
9	9	7
10	10	8
169	169	9
32	33	6
68	68	4
5	21	2
58	58	10
105	131	3
149	149	5
91	91	2
59	59	2
79	79	8
106	106	4
141	145	1
140	140	14
139	140	2
80	80	6
10	11	1
141	141	4
39	39	10
76	76	4
173	173	3
66	66	5
178	178	8
56	56	4
83	83	2
117	122	1
158	159	1
104	105	2
35	36	3
137	137	6
23	23	10
168	169	2
125	125	7
11	12	4
37	37	4
58	126	4
142	143	2
76	80	2
13	15	2
115	115	2
135	136	3
115	172	5
76	156	1
135	135	4
158	158	8
62	112	4
11	11	7
104	127	1
116	116	5
99	99	2
56	125	1
160	163	2
6	9	3
176	177	1
40	40	5
58	59	4
43	44	7
102	104	4
37	90	3
16	18	3
143	143	3
50	52	1
35	66	2
112	112	8
179	179	7
174	175	4
36	37	2
109	109	4
12	12	3
67	67	4
101	101	6
52	53	2
35	35	8
94	96	1
65	65	5
157	157	6
18	23	2
144	144	8
51	113	1
151	155	5
14	15	1
27	27	3
109	110	1
153	154	5
118	119	2
50	50	5
143	144	2
170	170	9
52	52	2
0	0	5
60	120	2
127	127	6
75	75	7
121	121	3
62	83	1
130	131	3
72	75	3
177	179	2
16	16	8
146	147	2
134	134	7
41	41	4
117	123	3
104	107	2
24	24	3
37	145	1
121	122	2
87	87	11
74	168	3
81	82	3
23	24	2
14	14	6
12	13	4
12	42	6
132	132	2
108	108	8
104	132	2
42	42	6
110	112	1
120	120	2
15	15	3
5	6	2
24	25	1
177	177	2
22	22	9
63	84	1
82	82	5
90	97	2
80	81	2
118	121	1
102	103	1
73	82	3
84	84	2
93	93	11
62	62	1
37	146	2
67	68	1
130	130	2
13	44	2
72	72	3
115	122	4
21	24	1
67	168	2
151	151	3
96	97	4
120	121	1
142	142	9
164	164	3
50	86	3
20	20	2
36	36	1
103	103	2
40	147	3
156	156	2
168	168	4
113	113	1
89	135	2
45	45	4
162	162	4
4	5	1
38	144	2
52	55	1
51	51	3
85	86	1
8	8	1
88	89	4
3	3	2
126	126	1
36	67	2
32	32	2
124	124	4
9	63	1
150	150	2
9	10	1
32	149	2
57	111	1
68	89	1
164	165	1
1	1	1
34	34	3
138	138	4
159	159	3
33	150	2
101	103	3
61	65	1
44	45	4
43	43	2
165	166	2
166	170	2
25	26	2
56	126	1
25	29	4
8	9	2
88	90	1
41	42	1
73	74	1
123	123	2
129	130	1
90	90	1
9	64	2
108	109	1
126	127	1
74	74	2
16	17	1
155	173	1
10	92	2
6	68	3
45	46	1
147	148	1
36	65	1
70	70	4
162	163	1
152	156	5
167	168	2
65	171	2
175	175	2
62	63	1
41	142	1
7	8	2
116	117	1
97	97	2
92	92	1
14	43	1
161	163	1
110	111	3
141	142	2
171	172	1
10	13	2
117	117	2
2	94	1
87	88	1
20	21	1
76	77	1
95	146	1
55	56	3
115	117	1
136	144	2
114	166	1
106	107	1
95	95	1
86	86	1
94	143	1
71	173	1
77	152	1
137	138	1
108	126	1
57	109	1
6	170	1
171	173	1
99	100	1
34	88	1
92	99	1
71	72	1
