148	148	3
91	152	5
21	43	7
97	97	2
83	83	10
152	152	2
155	155	1
91	91	7
12	13	3
16	16	9
0	156	2
161	166	5
55	55	3
5	5	1
35	106	1
35	35	9
56	56	1
121	121	6
25	57	3
153	159	2
53	118	4
110	110	2
3	37	1
77	77	7
152	159	1
145	148	3
45	45	7
34	34	1
25	25	3
4	4	2
47	48	4
94	148	1
6	52	2
112	168	2
17	17	4
111	111	1
52	56	2
142	142	4
14	14	1
42	42	5
113	113	4
12	12	5
98	98	1
73	73	1
40	40	3
166	168	2
54	54	2
14	15	2
44	44	6
104	104	2
7	50	2
143	143	2
137	160	1
144	162	4
116	116	2
149	149	3
159	159	4
2	5	3
54	120	3
109	109	2
39	41	4
10	10	2
120	120	3
80	80	2
86	86	1
137	137	5
70	70	1
2	40	2
112	112	2
140	140	2
117	117	3
115	115	4
132	136	3
79	79	2
11	13	2
111	140	3
83	84	2
64	121	1
158	158	1
15	15	1
107	107	2
18	19	1
49	49	2
74	109	1
13	13	1
104	105	2
81	81	7
18	18	3
127	127	9
162	163	5
8	9	2
129	129	1
52	52	2
64	119	4
2	3	1
168	168	3
132	132	3
48	48	3
103	103	3
21	69	3
124	124	3
100	101	1
153	160	1
119	119	2
112	166	2
27	28	4
63	119	2
8	51	2
4	39	1
3	3	2
162	162	3
155	157	1
92	92	3
0	132	1
8	10	4
88	88	1
20	21	1
42	56	1
1	130	1
53	56	1
43	43	2
91	94	1
41	41	3
47	47	3
134	134	1
37	37	7
110	141	4
108	108	1
90	149	1
6	7	2
7	7	1
114	114	1
99	100	1
19	19	3
133	133	1
38	38	1
5	51	1
131	131	1
96	97	2
57	57	1
54	135	1
23	24	1
19	20	2
129	131	1
146	146	1
22	25	1
157	157	1
153	153	1
167	167	2
93	93	1
88	109	1
23	47	2
50	50	1
105	105	2
36	37	2
86	108	1
73	74	2
101	101	3
144	164	1
112	163	2
13	16	2
24	24	1
95	95	1
21	22	1
9	9	1
99	99	1
163	163	1
58	127	1
0	1	1
151	151	1
76	76	1
150	150	1
130	130	1
93	151	1
45	46	1
7	20	1
118	119	1
141	142	1
