21	47	4
112	113	3
70	70	2
38	57	4
63	63	5
110	110	1
119	119	1
39	39	3
135	136	1
45	50	3
29	30	3
147	148	5
40	97	3
123	123	4
42	42	5
94	94	8
144	146	1
79	79	5
44	46	1
85	85	5
77	94	2
53	53	9
97	97	3
118	130	2
19	24	7
118	118	5
134	134	2
35	35	1
114	114	5
18	18	10
47	50	5
32	32	8
136	139	5
7	7	4
23	23	11
51	56	4
68	68	6
114	117	3
19	19	6
56	95	1
122	122	7
152	152	7
132	132	4
22	22	1
28	28	1
40	40	6
132	133	1
142	143	3
77	99	1
41	41	4
16	16	7
83	83	6
98	105	2
69	69	6
66	72	1
21	21	3
48	48	6
67	67	8
70	111	1
24	24	2
15	21	3
13	15	2
128	139	4
27	30	6
17	17	3
43	49	3
124	124	4
115	117	5
14	15	3
72	97	4
9	33	1
102	102	4
112	112	5
77	77	3
106	106	7
94	96	1
38	38	4
43	43	3
65	66	2
34	34	5
131	131	2
101	103	3
15	17	1
153	154	4
149	149	6
69	70	2
88	88	1
71	137	1
133	134	3
136	136	2
52	52	2
54	55	2
2	31	6
6	6	1
50	50	3
48	51	4
73	73	8
50	76	1
66	66	4
154	154	2
93	93	2
140	140	1
83	119	1
71	71	6
115	116	2
104	115	4
3	3	2
90	95	1
43	45	2
53	54	3
30	30	3
104	104	2
95	96	1
86	106	2
84	110	2
87	93	1
54	54	5
3	4	3
10	10	1
98	98	1
5	5	1
78	78	3
149	150	1
101	101	3
126	126	4
128	128	5
56	57	2
86	86	1
137	137	3
12	12	4
76	76	4
146	146	4
109	109	7
31	31	3
153	153	2
130	131	2
95	97	2
100	101	3
129	129	7
72	99	1
135	135	6
91	114	1
24	25	2
84	150	1
92	92	2
82	82	4
67	68	3
142	144	1
72	72	3
27	27	3
47	47	8
95	104	1
151	151	1
5	33	3
8	33	1
122	123	2
107	107	5
6	12	1
25	25	2
44	44	3
13	14	3
94	127	2
37	37	3
46	47	1
73	145	1
100	100	2
130	130	1
85	86	1
81	82	1
113	113	6
15	15	3
133	133	8
65	108	3
46	46	3
128	138	2
41	49	1
135	138	1
82	90	2
2	2	1
51	51	2
34	51	1
96	97	2
126	130	1
56	56	1
14	14	3
33	105	2
94	95	1
32	107	3
11	11	1
45	48	1
87	87	1
4	4	2
32	36	1
100	148	1
33	33	2
80	85	1
11	12	2
13	13	1
136	137	1
39	57	2
64	65	2
99	146	1
45	46	2
35	57	1
125	125	2
20	20	1
82	92	1
41	77	3
16	17	2
7	26	1
84	108	1
115	115	1
80	80	1
66	67	1
126	128	1
32	108	2
20	50	1
38	102	2
69	97	1
75	75	1
29	29	1
33	35	3
55	55	4
121	121	1
8	34	1
117	117	1
66	136	1
9	9	1
124	125	3
64	64	1
116	116	3
21	48	1
38	79	1
127	127	1
22	23	1
28	29	2
96	96	1
20	21	1
139	139	1
106	107	1
65	67	1
99	99	1
123	125	1
