20	20	5
15	21	2
1	1	5
114	114	5
131	131	13
49	70	1
11	11	5
66	66	8
78	79	1
32	32	7
34	34	7
76	76	4
19	19	13
8	8	5
90	90	6
101	101	5
127	127	5
64	64	13
115	120	2
71	71	14
111	113	3
62	62	9
106	106	6
114	122	5
24	25	5
85	85	7
96	97	1
68	69	5
111	111	1
26	101	3
35	35	10
91	95	3
112	112	11
65	65	12
39	87	2
22	23	5
24	125	5
72	73	3
123	123	9
37	37	7
112	123	1
31	31	7
28	28	9
23	25	1
38	38	4
97	97	12
6	35	2
20	21	7
81	81	5
85	87	5
103	103	5
50	63	3
70	70	6
133	133	2
95	95	11
135	135	4
129	129	7
89	91	3
109	110	2
94	95	2
61	71	4
73	73	5
93	93	7
86	86	2
20	45	5
58	58	13
63	63	7
124	124	9
88	88	9
120	120	11
100	100	7
53	63	4
119	119	11
87	87	8
5	87	1
23	23	13
59	59	11
0	0	3
15	15	8
35	36	3
128	128	10
124	125	2
116	118	3
29	29	5
31	35	1
44	44	9
33	33	5
97	122	1
96	96	3
113	113	12
26	26	8
127	131	1
9	11	4
53	78	6
127	128	7
43	45	2
99	124	1
21	76	5
82	82	5
109	109	14
18	18	1
52	52	7
78	78	5
110	111	7
52	54	1
92	92	8
82	118	3
79	79	3
50	53	1
24	24	8
105	105	3
16	19	1
22	22	3
89	101	3
18	85	4
65	66	2
74	74	5
114	115	1
53	53	10
107	114	4
6	101	3
108	108	2
122	122	3
53	54	4
80	80	3
80	119	6
84	84	3
45	45	2
30	65	2
5	6	1
75	75	6
81	128	1
56	56	6
130	131	4
16	17	2
9	9	5
125	125	7
117	121	3
130	130	6
12	12	5
27	27	2
107	117	1
119	128	3
83	83	6
8	9	5
75	76	6
1	86	2
67	67	4
29	30	5
11	12	1
116	116	5
31	121	2
57	57	6
21	22	1
122	123	4
106	113	5
5	5	7
61	61	5
30	30	6
67	68	2
6	6	3
104	104	2
1	121	1
61	62	2
16	16	4
4	4	4
100	104	2
43	43	8
102	102	1
91	99	1
105	121	3
99	99	8
48	50	2
51	51	1
117	117	3
100	101	3
129	131	1
91	92	1
69	69	4
76	79	2
46	50	6
33	34	4
89	89	4
72	72	7
127	130	2
25	26	1
79	80	2
92	94	2
107	121	2
55	55	2
2	2	2
47	47	1
49	63	2
10	10	5
95	96	4
129	134	1
25	25	3
89	90	4
34	35	2
73	74	3
16	55	1
115	115	4
132	132	4
83	84	2
50	66	1
92	100	2
56	57	2
15	16	2
94	94	2
21	88	1
60	60	2
62	71	2
21	21	3
50	50	2
68	68	5
118	118	3
98	98	1
118	120	1
11	44	1
107	107	2
13	13	3
36	37	1
108	122	1
82	129	2
14	14	5
79	128	6
91	91	5
5	90	1
3	95	2
48	53	3
106	122	1
6	7	1
92	93	1
117	118	2
28	101	1
107	112	2
85	86	1
67	69	1
71	74	2
52	76	1
132	133	1
3	3	1
42	42	1
58	59	1
50	76	1
112	113	2
3	31	1
66	67	2
63	69	1
29	34	1
106	111	1
106	114	1
32	104	1
134	134	1
29	92	1
1	83	1
61	70	3
7	7	1
64	65	1
24	26	2
8	37	1
3	4	1
48	66	1
18	50	1
50	54	1
104	126	1
2	117	1
49	50	1
5	28	2
47	48	1
54	58	1
30	31	1
115	117	1
77	78	1
36	36	1
