202	202	6
91	105	4
119	119	7
207	207	6
247	247	5
238	238	10
243	243	4
244	244	7
194	194	7
61	61	6
161	161	9
84	84	7
164	164	13
223	223	6
171	171	20
241	241	16
162	163	2
40	40	6
203	203	10
225	226	7
56	56	8
174	174	3
82	82	4
145	145	11
91	91	3
118	118	10
226	226	12
209	209	12
37	38	5
198	198	14
192	192	10
87	242	1
233	233	11
236	237	3
182	182	10
157	158	11
227	227	10
96	97	5
173	178	2
224	224	13
45	45	16
42	42	13
189	189	3
155	179	2
21	21	5
160	160	14
30	34	1
150	150	6
182	183	2
163	166	1
37	235	2
76	77	8
70	70	5
26	26	5
20	20	14
222	222	8
230	231	9
169	169	9
197	198	3
230	237	3
27	27	4
176	176	8
216	216	5
199	200	3
186	186	14
11	11	10
175	176	4
110	110	10
49	50	3
98	98	14
240	240	18
215	220	3
174	175	4
206	207	6
34	38	4
71	71	2
167	167	10
178	178	17
4	4	4
200	205	8
217	217	8
195	195	8
96	96	4
157	157	20
102	215	2
200	201	7
80	80	5
220	220	5
70	74	1
168	168	9
170	170	14
101	102	2
173	173	20
208	208	10
200	200	13
79	79	8
100	100	6
235	235	20
111	111	4
4	5	4
7	7	7
38	39	3
195	234	5
94	94	6
175	175	11
30	30	5
50	50	5
1	39	1
156	156	5
71	73	5
224	225	4
48	48	4
221	221	6
93	95	9
237	240	6
172	172	20
212	212	12
117	117	6
232	249	2
196	196	8
163	163	11
210	210	7
86	86	13
214	214	14
239	239	5
153	163	2
60	60	8
14	15	2
191	191	7
163	164	4
17	17	10
213	235	2
190	193	1
95	95	7
3	3	3
113	113	8
114	116	2
168	169	2
204	204	15
155	155	8
185	185	5
61	89	1
210	212	2
220	222	1
225	225	5
65	65	8
154	154	12
229	229	6
38	38	3
55	55	15
206	206	3
180	229	3
66	66	6
112	112	6
48	49	2
164	165	8
229	230	3
244	246	7
208	209	1
25	41	1
205	207	2
156	168	1
53	53	1
178	199	2
32	32	10
26	151	4
211	245	1
223	224	6
115	115	5
197	197	7
67	67	3
232	233	4
85	86	7
12	12	2
158	158	15
234	234	12
28	29	1
210	211	7
166	166	6
235	244	3
113	232	2
183	183	7
230	230	8
165	166	7
37	37	8
234	235	5
83	85	3
5	13	1
87	88	3
101	101	5
23	23	5
165	165	7
215	215	7
212	246	2
194	206	1
213	213	5
102	102	3
186	187	2
46	47	2
49	49	2
237	238	1
145	151	4
145	236	2
82	83	2
118	120	4
44	44	2
221	224	2
65	66	11
10	10	3
209	214	4
199	199	6
184	185	5
31	31	9
221	222	1
9	10	3
182	220	6
182	204	2
72	72	4
94	95	2
67	92	1
177	177	8
246	246	4
16	19	1
97	97	1
164	189	1
214	233	2
156	161	1
34	34	4
208	214	1
194	195	3
248	248	10
190	191	4
212	227	2
172	173	2
163	165	4
236	236	8
174	187	3
152	156	1
174	177	2
181	230	2
16	22	3
219	219	14
213	214	6
68	68	5
146	146	6
226	228	2
47	48	2
201	202	4
77	77	2
151	177	6
180	182	2
220	223	1
15	15	1
75	75	5
179	179	3
187	187	6
158	166	2
183	189	6
205	205	4
63	212	1
211	211	9
36	150	1
209	212	4
151	151	10
172	174	1
117	121	2
228	228	12
218	218	13
99	106	2
187	190	1
203	204	3
29	37	1
169	170	3
85	85	2
3	4	3
218	220	4
185	186	7
179	180	6
237	237	4
147	147	4
232	232	8
206	219	2
79	82	2
67	233	1
184	184	4
74	74	4
57	57	3
211	212	4
214	217	2
143	181	1
189	191	1
52	52	8
60	77	1
76	89	2
66	103	1
186	188	1
242	242	6
110	248	2
193	194	2
227	236	3
100	101	3
245	245	2
149	149	2
7	13	3
36	202	4
230	233	2
192	193	1
158	170	2
188	188	1
107	107	4
36	37	1
162	162	10
69	69	2
144	147	4
61	90	1
88	88	10
9	9	6
193	206	1
116	116	2
61	240	1
110	111	2
0	33	1
81	81	3
158	160	1
93	93	7
230	232	2
178	179	4
152	152	3
56	57	2
217	218	1
35	36	2
103	104	3
243	244	8
68	100	2
153	157	5
107	108	1
192	208	1
86	87	3
177	208	2
231	231	6
69	88	2
111	112	1
245	246	6
194	234	2
198	199	2
144	145	1
162	179	5
51	51	4
180	180	4
215	218	2
65	192	2
108	248	2
181	201	2
2	150	3
214	215	3
78	78	3
14	16	2
69	244	3
92	109	3
22	22	3
234	247	2
151	229	1
105	105	3
220	239	3
216	218	1
159	159	8
226	227	1
173	176	3
167	168	2
46	46	7
199	212	1
191	192	1
92	102	1
200	236	1
68	102	2
157	172	1
236	240	1
114	114	3
183	190	2
90	90	4
206	213	2
43	43	3
180	181	2
216	217	4
36	36	4
62	190	3
89	89	2
60	241	2
240	241	1
64	64	2
28	242	1
1	1	2
189	190	3
45	46	3
92	103	2
193	207	1
1	2	3
35	235	4
182	209	3
203	236	1
193	193	5
62	62	5
176	177	3
228	229	4
33	33	3
63	90	1
177	192	1
73	73	3
162	170	1
99	99	3
59	59	5
108	108	1
168	170	1
181	181	1
224	237	2
62	210	1
159	166	2
190	190	1
33	44	1
199	220	1
153	153	1
201	201	5
173	174	1
89	90	2
172	181	3
104	108	2
10	11	1
6	6	3
42	43	3
180	204	1
201	204	2
81	83	2
3	14	4
165	167	1
177	209	1
98	99	1
54	55	1
41	111	1
210	245	1
113	191	1
200	202	1
175	177	2
75	89	4
183	184	2
185	190	1
214	231	1
39	39	2
90	91	1
81	82	1
242	243	3
8	8	1
101	103	1
74	99	2
209	210	2
47	47	2
99	100	2
59	77	1
146	184	2
70	101	1
79	80	2
39	40	1
80	81	2
147	150	1
221	223	2
30	35	1
38	40	1
24	145	1
160	166	1
24	144	1
28	28	2
184	190	2
19	19	2
169	184	1
112	113	2
62	238	4
109	109	1
210	233	2
161	164	1
166	168	2
220	221	2
14	14	2
9	228	1
233	234	2
160	164	1
88	242	1
154	156	1
75	76	1
57	58	1
205	218	1
61	190	1
81	84	1
218	219	3
106	106	3
65	216	2
25	228	1
158	186	1
196	197	1
145	179	1
157	165	1
182	198	2
104	109	1
24	24	1
152	159	1
184	201	1
231	232	2
55	60	4
61	191	1
71	74	1
153	156	1
212	213	1
25	25	1
59	60	1
193	196	1
200	204	1
150	151	1
68	101	1
52	53	1
184	205	1
80	83	1
16	16	1
193	219	1
33	37	1
32	33	1
8	9	1
185	187	1
62	246	1
