170	170	3
80	80	3
166	166	3
155	155	10
51	72	1
9	9	1
30	31	2
92	92	3
78	131	2
146	146	6
29	36	5
160	174	2
53	53	4
8	8	4
66	66	7
119	119	4
10	10	3
42	100	3
95	96	3
104	104	4
86	168	2
95	142	3
123	152	1
4	4	8
36	36	4
4	5	3
23	41	1
70	72	3
84	168	1
77	77	4
172	173	1
72	73	1
89	140	1
148	148	2
90	90	2
6	35	1
138	138	3
86	91	1
151	151	5
174	176	1
118	118	4
159	178	6
172	172	10
94	94	5
121	126	3
59	59	2
16	54	3
45	45	3
137	139	3
94	96	6
95	153	1
96	96	4
98	117	3
144	144	1
54	56	2
149	151	3
157	157	6
81	83	1
35	36	1
81	81	4
50	51	2
108	108	4
128	130	1
163	163	2
90	138	5
97	109	2
166	167	2
1	1	2
100	100	3
85	85	1
145	153	1
10	35	8
95	151	4
5	5	4
101	102	1
52	73	2
129	129	2
82	83	4
53	57	1
49	72	2
130	131	4
25	41	1
1	2	2
97	97	2
158	158	2
93	93	1
12	15	1
143	144	5
98	122	1
128	129	3
92	103	3
17	18	2
153	153	4
89	89	6
150	150	1
174	174	9
18	18	4
27	75	1
100	101	1
32	56	2
99	100	2
132	141	3
20	45	1
110	110	1
21	36	6
114	125	1
3	22	5
43	43	2
113	113	10
16	36	2
128	128	4
77	105	2
145	147	2
86	171	2
171	171	3
164	164	4
57	57	3
39	39	1
65	74	1
76	102	2
52	61	2
125	130	1
150	154	2
130	130	6
89	135	3
85	163	1
168	170	1
177	177	1
51	52	2
53	75	7
40	40	1
9	33	2
136	136	2
134	134	1
154	174	1
82	82	2
45	102	1
7	38	1
160	161	1
42	43	1
165	165	3
179	179	3
105	110	1
94	142	3
139	139	2
167	171	5
164	167	2
76	76	4
175	176	1
110	142	1
89	104	1
83	83	8
65	72	2
105	106	4
116	122	3
26	26	3
79	101	2
111	111	4
33	74	1
74	75	4
80	93	3
79	79	6
105	107	2
89	136	1
49	129	2
7	7	5
53	73	2
6	6	5
56	56	2
107	107	4
132	132	2
137	138	1
129	131	1
72	72	1
98	98	3
19	19	1
33	57	1
32	32	1
31	37	1
130	145	2
2	4	2
13	13	6
10	16	5
120	120	4
15	18	2
95	132	2
106	106	4
143	143	1
65	71	1
103	103	1
98	99	1
25	26	1
168	169	3
62	62	3
27	27	3
140	140	2
82	163	2
14	14	5
38	38	1
115	128	3
54	74	1
71	137	1
161	162	2
144	151	1
34	34	2
68	68	1
79	130	1
15	15	1
116	116	3
67	67	1
137	137	4
133	134	2
114	114	2
84	175	1
42	42	2
7	20	2
146	147	1
126	126	3
147	147	6
74	74	2
21	23	3
8	17	2
121	121	3
103	106	1
55	55	4
84	160	4
33	54	2
123	123	2
37	37	5
94	141	1
152	152	3
159	159	1
144	145	1
24	24	1
156	156	3
65	65	2
3	3	2
41	41	8
176	176	1
3	6	2
81	171	1
153	164	3
135	144	2
148	150	2
81	85	2
94	95	1
113	125	1
156	159	1
156	157	4
162	176	1
125	125	1
88	97	3
123	124	1
58	58	1
101	101	1
106	107	2
115	117	1
142	142	2
148	154	1
31	31	2
9	73	1
84	174	2
146	148	2
78	78	1
81	88	1
63	63	2
173	173	1
29	29	2
136	142	1
115	124	1
117	122	1
11	12	1
22	22	1
81	177	1
29	30	1
97	110	3
106	166	1
20	20	1
160	172	1
12	12	3
84	84	1
80	81	2
93	142	1
71	71	2
10	36	2
52	57	6
111	112	1
63	64	1
103	110	1
112	112	1
5	6	2
106	108	1
40	46	1
23	40	1
21	21	2
164	165	3
15	53	1
110	152	1
110	113	2
57	61	1
162	162	2
169	170	1
5	11	1
44	45	1
88	88	1
99	117	1
25	25	1
91	105	2
115	116	1
116	117	1
130	155	1
96	149	1
28	28	1
145	145	1
35	35	1
61	61	1
91	91	1
18	35	1
17	46	1
73	73	1
147	148	1
56	57	1
15	16	1
109	109	1
22	39	1
101	117	1
127	128	1
134	143	1
9	39	2
33	53	1
9	19	1
71	72	1
16	16	1
87	87	1
77	79	1
100	117	1
96	132	1
93	94	1
