8	12	2
34	34	7
2	4	6
64	115	1
66	137	1
103	103	3
1	1	8
110	161	1
58	58	11
171	171	6
176	176	6
127	127	10
52	52	10
63	82	12
139	139	3
125	155	5
97	97	12
56	56	8
65	65	8
177	177	10
167	168	4
17	142	3
93	93	8
43	44	1
116	120	2
54	54	4
12	12	11
84	84	5
89	90	2
53	58	2
99	154	2
59	59	12
102	102	6
4	4	4
147	147	1
49	49	2
178	178	11
53	57	5
61	61	8
13	13	2
144	145	3
96	96	5
76	148	2
126	126	6
3	3	5
50	116	2
63	67	2
51	73	2
121	156	2
154	154	4
30	31	7
113	114	2
153	167	5
53	53	1
134	134	6
100	100	4
109	109	7
151	151	4
37	37	6
173	173	5
135	136	6
140	162	3
74	75	5
40	40	3
105	105	4
95	95	5
23	124	3
163	163	4
86	86	5
75	76	3
43	148	4
94	95	4
162	162	5
32	37	4
22	23	1
66	66	3
58	142	3
26	26	2
91	91	11
27	29	1
160	161	6
80	82	1
112	112	8
51	117	2
161	162	3
115	140	5
4	33	6
67	141	2
155	156	1
51	51	3
95	149	1
92	92	2
161	163	3
10	51	6
100	129	2
16	16	4
134	152	4
126	127	1
149	149	10
11	11	11
113	165	2
74	74	11
73	142	1
26	29	5
41	41	7
90	93	6
1	22	5
5	5	8
6	8	1
117	122	2
180	180	4
140	140	5
164	164	6
119	119	4
124	125	3
155	155	3
22	22	10
89	89	4
38	38	4
137	137	5
10	10	2
59	154	2
105	116	1
133	133	9
117	117	2
64	65	2
172	177	6
17	19	1
40	41	6
174	174	5
10	50	1
0	0	5
157	157	1
72	72	6
55	55	4
85	97	1
52	53	1
31	44	5
99	101	1
20	20	4
172	172	5
67	67	6
81	111	1
35	35	2
7	10	4
2	2	3
54	151	2
23	38	5
79	79	2
50	128	1
163	167	3
15	18	5
50	50	1
11	13	4
4	5	4
19	19	5
45	130	4
101	101	6
3	4	3
5	10	3
5	6	3
63	63	3
51	141	2
25	41	1
167	167	5
5	8	6
64	68	1
114	114	4
29	29	11
60	60	2
38	39	5
24	24	9
135	135	5
39	39	7
85	85	11
11	12	3
170	170	2
52	82	1
98	99	5
23	31	1
43	43	4
129	129	1
7	51	3
32	51	2
17	18	2
49	102	2
168	175	2
14	37	4
25	99	5
66	67	6
148	148	5
111	164	3
150	150	3
120	120	3
103	143	4
17	17	4
175	176	2
8	11	3
130	130	2
9	9	3
30	30	8
87	130	2
2	3	2
165	166	4
165	165	4
8	8	6
74	132	1
54	112	4
80	80	1
83	84	3
61	147	1
111	111	4
123	123	5
138	139	2
56	57	6
123	124	1
4	13	4
141	143	2
128	128	1
44	45	9
76	132	1
39	127	5
64	66	1
14	158	2
44	49	1
107	107	6
82	82	7
40	43	1
50	117	1
128	139	1
61	154	1
33	33	1
143	145	2
131	131	4
25	40	3
42	42	1
71	71	8
148	149	3
132	157	4
32	32	6
116	116	3
153	153	2
3	5	4
28	29	2
55	100	2
168	174	2
16	37	4
52	102	3
145	150	1
1	3	4
152	167	1
50	51	1
143	143	5
158	158	6
121	121	1
13	16	3
27	27	2
77	77	2
38	116	2
28	147	1
36	36	1
88	89	2
77	133	2
66	73	1
31	154	1
39	43	2
145	145	3
101	156	3
24	26	3
146	150	2
82	142	1
15	23	1
156	156	2
15	64	1
113	115	1
144	144	4
127	140	4
44	44	2
128	129	1
80	81	2
151	153	1
172	175	1
98	152	1
108	108	5
54	100	2
68	72	2
24	28	2
10	11	2
129	130	2
160	160	2
122	124	1
68	68	1
112	113	2
56	102	2
23	23	2
28	28	2
75	105	1
117	118	2
9	13	2
131	132	1
53	158	1
79	81	1
15	15	4
169	169	4
43	73	2
117	144	2
18	154	3
136	150	2
73	73	2
52	158	1
102	103	4
9	11	1
108	109	3
31	38	2
58	59	2
12	20	1
59	119	1
43	75	2
90	90	1
91	94	1
121	122	1
62	132	4
171	175	3
31	32	4
81	81	4
77	131	1
166	166	2
165	168	1
146	146	6
132	132	2
65	66	3
87	121	1
139	140	1
62	62	2
114	115	1
78	158	1
121	143	1
109	162	1
92	94	1
152	153	1
142	142	2
173	175	1
57	57	3
27	165	1
14	18	1
66	149	2
32	104	2
60	104	1
82	161	1
161	161	1
55	110	2
55	99	2
18	18	1
24	25	2
83	85	2
75	75	3
73	117	1
54	56	1
118	119	1
159	159	2
4	12	2
10	17	2
15	16	1
5	9	5
64	64	1
117	129	1
138	138	5
14	36	1
52	58	2
43	64	2
174	175	1
63	68	3
52	144	1
53	100	1
78	83	1
87	120	1
72	74	2
158	159	1
1	125	1
0	23	1
142	164	1
122	122	2
80	133	1
52	132	1
45	45	2
87	87	3
24	39	1
76	145	1
111	166	1
55	58	1
130	142	1
4	10	1
1	2	2
97	98	1
105	107	1
171	172	2
72	139	1
113	113	1
157	158	1
58	82	3
29	30	1
124	124	1
126	140	1
54	157	1
88	88	2
66	82	3
108	139	1
141	141	1
82	96	4
168	168	1
98	128	1
117	156	1
89	146	1
11	16	1
39	41	1
152	152	1
168	171	1
90	94	2
120	121	2
123	125	1
20	45	1
63	109	1
122	127	2
15	36	2
60	61	1
7	8	1
38	40	1
99	146	2
54	68	1
17	96	1
145	151	1
2	36	1
67	68	1
115	115	1
78	140	1
112	115	1
8	45	1
120	130	1
116	117	1
