190	190	7
190	191	5
38	38	8
214	214	11
62	62	12
49	71	4
157	157	6
6	6	14
88	145	3
193	193	4
51	51	4
221	222	3
186	188	3
77	79	2
218	218	10
217	217	13
228	235	2
159	159	9
178	178	11
178	195	1
68	69	1
224	224	9
23	23	11
205	205	9
156	156	13
54	54	4
199	210	3
17	17	10
44	45	5
14	14	3
47	48	3
230	230	10
100	100	5
10	10	9
247	247	6
16	16	3
32	32	6
3	9	1
63	63	9
165	165	7
37	37	4
84	84	8
73	73	2
26	26	9
96	97	1
27	27	10
157	158	1
212	212	6
24	24	9
15	15	6
225	225	2
82	82	10
207	207	3
102	102	4
41	41	11
108	152	4
192	192	10
153	201	4
90	90	10
7	7	7
189	189	6
102	172	6
67	163	4
64	65	4
20	20	5
112	112	9
58	58	4
52	53	3
164	164	5
183	184	5
57	57	7
20	21	3
36	36	5
187	187	11
96	96	8
9	10	3
21	21	6
47	57	2
9	9	16
213	213	4
48	48	6
185	186	4
243	243	7
8	8	4
111	111	7
151	151	18
197	233	3
78	78	6
67	67	12
44	44	6
71	71	15
210	211	2
68	68	3
33	33	3
186	186	1
227	227	8
70	70	18
12	12	6
85	86	5
33	35	4
51	204	2
240	240	10
30	30	9
90	171	1
6	7	3
99	99	1
204	204	3
88	88	4
45	46	6
94	147	1
198	198	5
229	229	9
73	74	2
233	233	2
163	165	1
79	79	6
67	198	2
245	245	5
109	109	7
35	35	9
154	154	7
107	107	7
179	179	12
169	169	12
11	44	1
80	83	3
177	177	1
60	60	3
206	207	2
226	226	8
34	49	4
183	219	1
89	90	6
19	19	3
113	113	2
21	22	7
224	233	2
88	89	3
54	70	2
172	173	2
246	246	8
49	49	6
81	98	2
103	170	1
174	174	2
180	180	5
190	192	2
11	11	6
95	100	2
69	105	1
93	93	4
22	22	7
153	153	4
65	65	7
231	231	8
97	98	6
46	47	1
241	241	1
75	75	6
209	209	2
28	28	4
62	63	2
52	112	2
145	153	1
203	235	1
116	117	1
168	169	4
222	245	8
152	171	4
91	92	4
202	202	9
163	164	6
0	36	5
183	183	2
28	29	3
201	201	7
194	194	5
234	234	4
188	188	4
117	117	5
40	40	2
4	4	4
87	87	9
114	114	5
54	55	2
5	5	3
81	82	7
181	181	2
90	100	1
119	119	5
200	200	3
160	171	2
231	233	1
249	249	1
228	229	2
154	241	1
164	194	1
101	104	2
226	227	2
172	178	2
81	83	2
12	14	3
39	39	1
37	38	1
25	156	5
227	235	1
220	221	2
185	185	10
54	114	1
108	115	1
55	57	3
192	218	5
29	29	12
86	86	1
57	60	2
171	171	4
227	236	2
52	201	2
221	224	2
235	235	10
13	15	1
158	158	2
66	166	5
211	211	2
223	231	2
93	94	1
233	234	1
75	114	1
38	39	3
223	223	4
90	91	5
178	201	1
99	101	1
196	196	4
38	40	1
175	176	7
104	104	6
77	77	6
64	64	2
155	155	5
92	93	5
226	243	2
70	107	2
79	85	1
56	56	4
182	199	5
96	98	1
113	114	2
87	167	2
97	97	4
245	247	2
54	62	1
103	107	1
50	71	2
82	83	5
173	173	4
46	46	8
57	58	5
18	18	1
53	243	2
79	84	2
11	12	4
2	2	1
53	53	9
43	43	4
207	213	2
95	99	1
201	202	2
61	62	6
14	16	2
146	147	1
207	210	2
60	61	2
101	101	3
147	147	3
90	101	2
172	172	3
75	76	5
170	170	5
157	172	2
150	151	5
206	206	3
167	168	1
59	73	4
25	25	7
108	176	1
31	31	8
145	145	3
118	119	3
162	166	5
180	211	6
176	177	2
153	157	4
51	68	4
106	106	7
150	150	7
1	1	3
55	55	4
187	189	2
232	232	5
18	38	1
238	238	4
18	19	1
52	87	2
49	94	1
38	47	3
242	242	2
179	206	1
103	172	1
21	155	2
69	71	2
189	218	3
63	200	5
144	207	1
81	87	2
153	172	7
176	176	3
42	42	3
74	75	2
239	239	2
166	196	2
10	14	1
94	94	2
203	204	3
85	85	3
71	72	4
50	50	1
236	236	1
47	47	5
237	237	5
180	214	1
114	115	3
228	237	3
219	219	3
204	205	2
35	85	2
43	51	2
195	195	3
82	85	1
188	189	4
240	241	2
219	220	1
220	220	4
95	95	3
160	160	3
197	197	6
162	198	1
88	90	1
52	71	1
180	182	1
12	43	1
109	110	4
187	190	1
77	78	1
120	120	1
4	5	2
72	72	3
65	66	2
22	41	1
106	107	3
10	11	2
87	99	1
105	105	3
162	162	3
167	167	2
166	166	5
75	113	1
55	62	2
175	178	1
69	69	5
162	165	1
87	96	2
34	34	2
95	170	1
69	70	2
52	109	4
221	221	3
11	24	2
35	36	2
244	244	2
163	193	2
40	53	2
86	100	2
173	175	1
218	246	1
215	215	2
232	233	1
118	118	5
222	222	2
163	194	1
83	83	2
61	61	2
83	84	2
222	223	1
26	27	4
189	192	1
7	13	1
213	214	2
105	107	1
152	152	1
65	79	1
169	170	1
64	67	1
243	245	1
203	241	2
89	89	2
148	163	1
175	175	2
29	30	2
56	59	1
52	52	4
183	220	1
191	193	1
88	99	1
52	111	1
88	170	1
219	248	1
214	215	2
193	194	1
161	163	1
242	243	1
145	155	1
199	199	2
187	188	1
81	81	1
203	203	1
115	118	1
92	92	1
40	226	1
15	16	4
49	50	1
246	248	1
212	230	1
5	6	1
159	170	1
235	236	2
208	208	1
168	168	1
66	79	1
9	37	1
76	76	3
63	87	2
11	14	1
45	45	3
75	77	1
156	157	1
152	172	1
5	188	1
93	95	1
242	245	1
203	229	1
110	110	1
238	244	1
195	199	1
160	169	1
70	71	2
210	210	1
51	111	1
208	209	1
116	116	1
13	13	1
41	45	1
237	238	2
70	72	1
178	197	1
154	156	1
162	193	2
40	43	1
0	1	2
95	98	1
223	230	1
161	171	1
87	88	1
231	232	1
201	232	1
39	41	1
102	104	1
182	183	1
238	239	2
61	106	1
219	246	1
204	240	1
184	184	2
66	66	1
243	244	1
166	168	1
53	54	1
76	78	1
195	196	1
213	215	1
99	100	1
164	165	1
11	43	1
