79	79	6
78	78	9
157	157	3
154	163	2
144	195	5
168	171	2
161	169	3
108	108	4
0	2	1
124	135	1
67	101	4
81	82	2
60	61	4
35	36	3
143	143	1
183	183	2
7	7	1
96	96	7
73	73	7
173	173	1
1	3	2
192	192	9
33	47	4
40	43	4
177	177	2
165	165	4
141	142	4
184	184	5
45	58	3
41	41	4
65	66	1
90	119	1
58	58	6
162	166	1
1	1	4
32	62	3
51	51	1
112	112	4
38	38	1
69	121	4
160	197	3
113	114	2
122	123	6
48	48	9
149	149	7
131	131	4
191	191	4
27	69	1
161	161	3
148	167	2
9	33	2
135	179	3
78	89	2
3	3	1
112	146	1
116	116	5
70	70	6
155	156	4
68	68	2
39	58	10
50	50	1
35	35	3
3	5	1
10	10	2
16	17	3
44	44	4
77	78	1
82	82	2
0	43	1
13	51	2
45	45	6
20	20	3
4	4	4
156	156	3
172	173	3
35	38	1
29	29	1
194	194	2
132	134	3
145	196	1
18	28	1
10	11	5
5	6	2
60	62	4
126	126	2
144	144	3
174	174	2
150	150	1
37	104	1
11	11	5
160	179	1
97	97	4
100	121	1
60	60	2
169	170	3
136	136	5
132	133	1
2	2	2
80	80	2
7	8	1
176	177	2
6	9	3
37	37	7
103	121	4
189	189	5
127	171	7
24	24	2
147	197	3
107	146	1
21	21	4
55	55	1
71	71	3
108	182	3
122	122	3
152	152	8
150	154	2
39	42	4
193	193	2
162	162	4
62	64	2
15	15	5
130	130	4
123	123	3
58	60	2
160	165	1
182	183	3
128	128	3
29	74	2
9	9	1
27	27	3
68	126	2
62	67	2
31	31	6
186	186	1
146	168	4
56	57	1
162	175	4
143	145	1
2	3	1
13	41	2
196	196	2
188	188	5
103	103	1
94	103	3
4	5	1
26	26	3
137	139	2
126	172	1
120	123	2
134	134	3
98	121	2
98	98	2
74	74	1
174	175	5
160	160	2
138	138	2
44	46	1
8	8	3
89	118	3
139	139	1
63	73	2
63	64	1
18	74	1
16	16	1
9	14	1
75	75	1
115	115	2
108	109	2
47	125	1
14	15	1
115	116	1
6	6	1
178	178	1
89	89	1
161	162	3
10	12	1
84	84	2
95	96	2
129	129	1
15	16	2
196	197	1
52	108	1
185	185	1
83	85	1
18	31	1
80	81	2
118	118	2
147	161	1
37	97	1
174	176	1
6	43	2
135	135	1
110	110	5
148	149	1
76	76	1
143	186	1
119	119	1
125	125	2
121	121	1
50	141	2
47	47	1
30	31	1
177	178	1
114	114	2
106	107	2
19	21	2
97	111	1
120	122	1
59	60	1
159	159	1
43	74	1
154	164	1
187	187	4
67	67	1
17	21	1
148	148	2
171	171	1
40	40	1
138	174	1
176	176	1
135	158	1
9	59	1
15	40	1
38	157	1
98	110	1
64	64	1
72	72	1
113	113	1
143	144	2
10	39	1
116	118	1
147	147	1
39	54	1
185	186	1
190	192	1
107	171	1
164	164	1
183	185	2
21	35	1
102	102	1
161	163	1
170	170	1
18	18	1
53	53	1
