84	90	3
129	155	6
172	172	2
151	151	3
20	22	3
114	115	1
30	30	6
110	110	3
152	152	4
77	78	3
65	72	1
31	82	2
53	55	2
110	134	2
13	17	1
45	45	7
155	155	8
56	96	1
14	37	5
38	38	1
118	118	7
17	64	1
161	161	2
177	177	3
85	85	4
138	138	6
16	16	9
153	153	6
164	182	1
48	48	6
12	17	8
53	107	1
63	63	3
140	141	3
70	94	3
156	157	2
184	185	5
57	57	3
105	105	1
57	61	2
23	24	5
96	96	4
2	4	3
72	72	6
92	141	7
58	59	2
104	104	1
104	115	3
136	137	2
12	12	4
171	173	2
142	161	3
173	173	2
137	149	1
150	151	5
65	65	2
7	76	1
15	24	4
46	46	3
179	179	2
183	183	5
101	101	4
68	90	5
99	99	1
22	22	2
48	113	2
150	159	2
92	92	3
129	129	5
100	100	9
80	82	3
89	89	1
97	98	4
134	135	5
154	154	3
111	112	3
60	60	4
74	76	3
165	165	1
131	152	2
155	173	2
112	113	4
70	70	1
121	121	8
76	76	4
47	47	9
91	91	3
95	95	1
153	154	2
31	31	1
115	115	1
110	122	1
62	66	1
31	37	1
80	80	2
84	86	4
36	77	2
160	160	2
46	48	2
136	164	2
72	73	1
0	36	5
154	169	2
143	186	1
28	28	3
110	111	2
75	75	5
55	107	3
83	84	4
150	160	2
79	80	1
133	133	3
11	11	6
136	163	2
137	138	4
184	184	2
175	179	3
82	82	1
97	97	2
87	93	1
14	23	3
30	31	1
18	18	3
25	26	4
81	81	4
116	167	2
162	162	3
0	0	1
8	8	1
16	47	4
94	117	1
63	65	1
64	64	1
182	182	2
157	157	3
45	47	2
114	114	6
94	94	1
48	90	3
102	102	4
3	7	3
171	171	2
121	179	2
7	7	1
78	78	2
130	130	4
4	25	3
117	117	1
10	12	3
134	134	1
60	61	2
83	83	1
125	128	1
83	85	3
136	136	2
67	111	2
48	68	2
84	148	2
172	173	2
142	142	2
28	36	1
44	61	2
123	123	1
5	5	2
32	32	1
86	86	2
148	148	3
16	75	2
21	21	2
61	61	2
73	73	4
98	98	2
68	71	2
165	182	3
181	182	2
4	5	1
31	80	2
187	187	1
179	180	1
92	93	2
121	163	1
93	93	1
60	63	1
19	19	1
99	123	1
176	176	4
8	31	1
1	1	1
24	24	2
3	3	2
173	174	2
140	140	3
42	42	2
14	14	2
122	123	1
84	85	1
77	79	1
71	74	2
131	131	2
166	166	3
108	108	2
142	143	4
139	145	4
168	169	3
188	189	1
44	65	1
111	111	1
9	20	1
55	118	2
70	80	3
9	38	1
106	106	1
141	141	1
89	140	1
17	17	1
53	54	1
146	165	2
8	38	1
59	59	1
145	146	1
114	166	2
82	86	1
35	35	1
71	71	1
119	119	3
114	130	7
182	183	1
153	155	1
20	23	1
67	67	3
174	174	1
19	37	1
44	44	2
10	10	1
109	109	1
0	33	3
131	156	1
62	62	2
122	122	1
55	108	1
120	178	1
37	37	2
89	90	2
90	90	2
188	188	1
144	144	1
68	113	1
147	147	2
105	106	1
53	108	2
167	167	1
15	28	1
149	159	2
15	15	2
103	103	3
74	74	1
79	79	2
139	139	1
166	168	1
123	128	1
163	163	2
109	110	1
96	115	1
127	165	1
87	88	1
170	170	2
146	147	1
24	29	1
12	13	1
103	104	2
53	106	1
26	26	1
143	145	1
19	43	1
77	77	1
30	77	1
