55	55	8
66	66	27
19	21	1
33	33	4
77	77	24
21	21	9
7	20	4
3	3	14
22	22	8
25	26	8
11	11	15
61	61	20
2	2	5
6	6	21
11	67	5
84	86	5
63	64	10
65	78	3
72	72	11
10	10	14
84	84	10
19	20	3
52	53	8
89	89	18
23	24	5
24	27	5
62	62	11
83	83	7
28	28	11
0	4	5
76	76	15
64	64	26
24	24	12
83	84	1
78	79	5
1	1	16
59	59	25
52	52	21
75	76	5
8	9	6
4	5	1
34	34	12
23	23	11
54	54	7
29	87	3
47	47	13
13	13	13
76	77	6
8	8	13
56	57	3
67	68	3
67	67	13
50	50	8
15	15	7
78	78	11
5	25	1
12	12	10
18	18	3
76	78	3
62	63	9
4	73	2
70	74	2
75	75	5
66	67	8
13	17	1
85	85	7
17	17	6
70	70	12
57	57	10
6	7	9
1	88	1
14	14	13
27	27	5
79	79	16
19	19	7
78	80	1
20	20	11
53	55	1
58	59	7
6	17	2
17	32	1
74	77	3
48	76	3
47	48	4
8	21	2
82	83	11
79	80	6
9	9	4
68	68	11
0	3	1
56	56	6
68	69	1
62	65	3
25	25	5
64	65	4
79	81	4
48	50	2
86	86	8
49	49	10
59	60	7
14	15	3
74	74	5
7	7	6
35	35	1
54	55	8
71	71	11
87	88	1
48	77	2
50	53	4
28	78	2
65	66	4
31	33	1
60	60	7
82	82	10
18	20	3
65	65	7
69	69	8
30	31	3
18	19	1
58	58	7
30	30	4
70	77	1
0	1	2
73	73	12
23	49	4
9	26	1
46	46	2
80	80	2
15	16	1
53	53	4
0	57	1
0	0	6
47	62	4
87	87	18
53	56	2
64	66	1
8	10	3
63	66	2
75	81	2
4	4	4
51	51	4
60	61	4
11	12	5
55	56	3
23	48	6
1	7	1
19	28	1
17	26	3
8	25	2
32	32	4
48	49	4
28	81	2
5	5	3
63	63	8
58	60	4
61	64	1
31	31	5
14	19	1
81	81	1
22	23	3
72	74	1
53	54	8
48	48	8
19	26	2
7	8	2
20	24	2
33	46	1
50	51	5
11	66	1
81	82	1
26	26	10
6	8	1
49	50	1
82	84	2
46	48	1
5	8	3
3	4	7
89	90	3
61	62	2
5	6	5
74	83	3
1	2	1
21	24	2
81	83	3
13	14	2
77	78	1
34	65	1
7	13	1
11	68	2
12	13	1
58	61	3
4	8	1
17	18	1
72	73	2
71	72	3
5	9	2
9	10	2
21	22	2
49	88	2
10	13	1
25	70	3
4	11	1
54	56	1
86	87	1
46	47	1
48	69	2
6	78	1
3	70	1
63	80	1
27	28	1
51	53	1
64	79	1
12	16	1
51	52	1
13	18	1
46	72	2
77	81	1
84	85	1
80	81	1
