31	31	7
94	96	5
109	110	2
102	147	2
133	133	3
122	123	7
120	120	2
113	113	8
134	137	4
29	29	6
60	63	2
96	96	8
163	164	1
13	13	5
56	56	8
81	82	3
169	169	7
49	49	10
25	25	9
65	65	5
177	180	2
48	48	4
134	134	3
133	134	2
16	16	12
173	193	7
159	185	6
67	67	4
155	178	2
107	107	7
112	112	6
186	186	2
80	80	7
63	63	8
121	121	5
32	42	1
61	61	4
70	98	2
45	45	3
114	114	1
140	140	5
195	196	4
61	114	4
138	138	8
17	20	3
166	167	2
34	38	1
101	102	3
41	41	1
55	55	1
108	109	3
71	71	10
148	155	4
180	182	2
114	115	3
171	172	1
104	105	1
85	85	9
35	36	3
165	165	4
72	72	4
176	176	4
19	19	6
106	107	7
194	194	2
118	119	5
197	197	1
76	77	1
99	99	2
17	17	3
52	52	4
157	157	1
151	151	3
50	50	3
15	77	3
138	139	2
74	74	5
25	26	5
180	180	4
38	38	5
159	159	4
136	136	5
9	64	3
122	122	3
119	119	6
168	169	2
29	31	2
158	158	1
36	36	1
140	188	8
128	128	5
148	148	2
153	153	5
115	115	3
110	111	2
82	83	1
193	194	3
3	3	1
57	57	6
0	0	2
129	129	3
162	169	3
80	81	3
159	160	1
175	176	6
154	154	1
21	22	4
149	149	6
168	182	3
177	178	2
53	53	3
111	115	2
23	74	3
196	196	5
185	186	2
39	39	6
30	30	7
94	94	6
65	66	2
4	5	1
110	110	7
100	100	1
126	127	3
18	18	5
142	143	4
185	185	1
59	60	1
23	23	5
79	79	1
104	104	4
11	11	3
8	9	1
174	174	1
14	14	3
88	96	1
145	145	5
173	175	2
137	187	5
123	124	1
144	144	5
43	43	3
189	191	3
180	181	1
126	126	3
127	127	3
188	188	4
58	58	2
193	193	4
42	42	8
8	63	5
6	6	6
126	128	2
67	112	3
195	197	3
146	158	1
101	101	4
59	61	3
167	167	4
33	43	1
139	140	1
120	121	5
37	37	4
135	137	1
105	105	2
62	62	3
46	46	2
61	62	3
48	49	2
170	170	3
138	140	3
190	190	1
149	150	1
7	8	1
21	25	1
50	52	3
58	59	3
155	155	3
117	118	3
32	33	1
195	195	2
0	30	1
44	44	3
182	182	2
109	109	1
124	125	2
6	8	2
145	186	2
162	162	2
116	116	3
75	75	4
24	24	3
75	77	1
24	77	1
141	143	1
163	163	2
142	142	1
66	68	3
60	62	1
58	64	1
85	96	1
86	87	1
161	161	2
83	83	1
130	130	5
21	21	6
32	53	5
150	150	3
85	88	1
3	27	1
63	114	1
132	133	1
27	28	3
33	42	1
111	111	5
59	114	2
102	103	2
47	47	2
116	120	1
20	20	1
69	69	3
131	132	2
70	71	1
59	59	1
96	97	1
160	160	2
54	54	3
54	55	2
9	9	3
60	60	1
139	139	2
99	107	3
173	173	4
132	132	1
118	118	2
168	168	4
82	82	1
69	112	1
155	156	1
98	98	1
135	135	1
159	161	1
97	97	2
42	43	1
22	22	1
103	103	2
112	116	2
79	80	1
77	78	1
122	184	1
176	177	2
55	56	2
192	192	2
38	39	1
23	24	1
158	159	1
23	81	1
148	151	1
