111	111	5
11	12	5
33	33	7
103	103	5
113	114	4
112	112	3
93	93	3
78	79	3
1	6	1
94	94	9
35	35	8
2	6	6
77	80	3
79	83	1
13	15	1
122	123	2
30	30	9
7	7	4
105	122	5
91	91	4
75	75	5
74	75	3
109	109	3
4	4	3
134	134	10
81	82	4
127	127	6
77	109	3
97	99	8
79	79	6
80	81	7
101	115	1
136	137	3
21	22	3
117	118	4
128	129	3
34	34	13
3	3	7
99	99	2
85	99	4
87	87	13
100	100	14
71	72	9
16	16	4
116	116	4
96	124	2
12	12	2
115	116	3
11	11	6
138	138	10
125	125	3
86	88	2
34	36	6
105	105	9
22	22	8
20	37	4
80	104	2
117	117	10
105	125	2
17	19	4
119	119	3
97	97	3
99	117	1
101	101	11
108	108	5
137	137	4
8	8	4
9	9	10
36	36	3
28	28	4
27	27	4
31	31	3
126	126	5
17	17	4
27	38	4
90	90	8
108	128	1
84	85	3
23	26	6
140	140	3
7	20	5
110	124	3
19	19	7
98	100	1
88	90	1
103	107	3
71	71	8
77	77	3
83	83	2
5	5	7
105	106	2
12	24	5
29	30	3
78	109	8
21	21	13
31	32	3
71	77	1
2	3	3
4	19	1
102	116	2
24	29	1
129	129	7
120	120	12
98	101	4
84	109	2
10	10	9
132	132	8
88	124	2
101	121	1
2	7	6
10	11	6
121	121	2
71	75	6
106	130	2
113	119	2
78	97	3
110	110	3
30	34	4
92	99	5
106	108	1
80	80	4
95	96	2
23	27	3
23	24	4
80	90	3
1	1	4
26	26	2
104	105	5
104	104	5
107	107	4
27	28	2
102	102	3
14	33	2
78	78	4
71	73	3
96	96	3
139	139	1
89	89	7
81	81	3
98	115	2
2	2	4
13	33	1
1	20	4
80	91	1
122	122	3
74	74	3
38	38	5
131	131	2
72	73	2
130	130	2
76	76	5
20	26	2
34	35	1
85	105	3
73	73	1
84	103	3
2	5	1
106	121	1
98	98	1
88	107	1
77	78	5
73	74	1
88	89	2
45	71	2
0	0	3
80	82	2
91	112	3
137	138	1
13	14	2
18	72	1
87	95	1
18	18	2
107	108	3
125	126	2
76	79	2
103	122	4
6	6	5
78	93	2
84	121	2
7	9	2
131	132	2
29	29	5
85	110	1
22	26	2
1	29	1
88	88	5
109	113	3
102	122	1
89	98	1
91	121	2
32	32	2
91	111	2
101	114	1
92	92	4
76	94	1
5	6	2
90	109	4
103	123	2
21	37	1
124	124	2
108	109	1
10	26	1
2	24	1
119	120	1
85	86	1
99	100	2
112	118	1
106	113	1
7	8	5
14	14	3
110	111	2
2	20	1
37	44	1
135	136	1
87	88	1
28	33	1
124	125	2
114	114	1
101	129	2
98	130	1
86	99	2
18	19	2
22	23	2
37	37	1
136	140	1
134	138	1
81	97	1
79	104	1
115	115	2
103	106	1
120	123	2
82	90	1
133	133	2
30	31	1
1	9	1
98	122	1
121	125	1
113	113	1
90	110	1
77	112	1
134	137	1
26	43	1
102	113	1
80	129	1
109	116	1
37	73	1
