97	98	1
117	122	4
134	134	14
108	108	11
139	139	6
89	103	1
76	111	3
123	124	4
14	15	8
87	116	2
132	132	6
74	74	9
38	38	3
3	3	7
20	20	6
131	132	4
32	32	11
108	109	5
109	109	6
131	131	5
13	14	3
85	111	1
130	130	14
106	121	1
118	118	8
16	17	3
0	0	8
113	113	3
104	119	2
120	121	1
82	82	10
34	34	2
79	79	7
101	102	4
33	33	6
90	115	2
76	77	2
20	117	6
135	135	4
77	77	13
18	18	7
71	71	5
107	107	6
87	88	2
87	87	10
117	119	1
90	103	1
20	27	2
129	130	2
2	2	4
111	111	5
100	100	4
17	17	6
6	6	7
116	116	4
125	125	9
99	99	7
107	108	3
13	13	7
96	97	4
102	102	2
10	19	4
37	37	3
94	94	8
98	98	6
28	28	2
98	99	4
5	6	1
97	97	7
104	106	2
133	133	5
9	35	3
93	94	4
10	15	2
27	28	2
30	30	2
16	16	3
91	92	2
139	140	6
75	77	2
94	95	1
119	119	4
9	19	1
128	129	8
9	17	1
11	11	2
8	108	3
81	87	3
0	8	1
4	4	5
72	123	2
76	76	7
124	124	4
2	8	3
83	84	4
106	106	4
110	110	4
123	123	13
100	101	3
18	20	2
11	12	1
71	102	6
114	114	6
82	89	2
88	88	2
128	131	1
114	115	3
117	117	10
2	35	1
36	36	8
5	5	4
82	88	1
83	83	11
21	22	2
26	26	10
128	128	14
32	33	1
19	19	4
106	107	2
28	29	1
95	95	2
92	93	2
75	76	1
90	104	1
72	72	3
74	75	2
136	137	5
89	89	1
80	80	3
80	81	2
27	27	4
19	20	1
11	18	2
76	121	1
111	113	1
84	84	3
85	90	2
91	91	4
8	8	4
12	123	2
86	86	16
29	32	2
93	93	3
122	122	2
29	30	2
12	14	9
92	104	4
80	103	1
10	10	3
101	101	7
73	73	3
96	96	2
35	35	10
81	82	1
22	22	12
34	37	1
134	135	1
31	31	5
137	137	6
74	80	3
14	123	2
15	15	1
138	138	8
112	115	2
1	1	3
86	87	1
78	78	1
126	126	1
9	9	10
75	75	3
34	36	3
141	141	1
136	136	1
129	129	2
105	105	1
120	120	1
7	7	2
85	85	2
112	112	2
9	12	1
35	37	2
115	115	1
111	112	4
127	127	4
72	75	2
85	104	1
118	119	1
126	127	1
91	107	3
20	21	1
81	81	1
119	120	3
14	14	2
73	74	1
16	36	1
25	26	1
90	90	1
37	123	1
2	37	1
82	83	1
21	21	1
122	123	1
131	133	1
112	113	1
10	11	1
110	111	1
24	24	1
71	95	1
73	124	2
80	87	1
117	118	1
