6	8	9
42	42	13
98	98	8
32	32	13
113	113	6
122	122	11
122	124	3
115	122	2
20	22	3
74	75	3
168	169	1
37	37	8
99	110	3
8	8	9
142	142	6
49	56	7
114	115	2
143	144	3
10	10	12
80	80	6
124	124	4
179	179	2
128	131	2
56	61	2
15	16	3
15	15	10
11	12	8
17	17	9
97	97	6
110	110	4
92	92	4
90	91	9
85	86	5
19	19	10
139	139	9
120	121	2
39	39	4
163	163	7
14	14	7
51	51	5
39	40	11
171	171	10
129	129	11
11	13	5
164	165	6
105	105	4
41	42	4
147	148	1
31	31	8
112	113	3
173	173	5
99	99	3
22	23	14
64	64	7
124	125	2
13	19	3
45	56	3
22	24	4
30	30	8
25	25	16
79	79	7
146	146	6
96	98	1
167	167	8
20	21	11
177	177	6
8	9	6
25	26	3
173	175	2
174	174	8
74	74	9
34	35	2
92	93	4
165	166	2
28	28	20
103	103	5
143	143	8
18	27	4
0	0	5
169	169	10
152	152	7
13	13	23
40	40	9
10	11	9
119	129	2
18	18	16
153	153	9
94	94	10
55	60	3
71	116	2
83	83	5
90	92	3
11	11	2
16	21	4
18	19	4
150	150	5
36	36	6
5	8	1
2	2	9
107	107	5
10	15	4
137	137	3
7	8	6
126	168	4
4	4	12
67	68	4
34	36	2
49	49	2
160	160	10
122	127	3
46	46	1
101	101	6
44	46	5
16	16	13
87	87	6
7	7	13
73	74	1
115	117	2
38	38	8
170	170	10
29	30	3
136	137	10
53	53	8
44	44	7
35	35	17
45	45	5
133	133	7
151	165	1
31	39	3
72	72	3
157	157	10
63	64	2
72	73	5
9	9	6
71	71	7
26	26	8
6	27	3
97	98	4
22	22	2
28	30	4
112	112	7
2	3	3
117	117	3
95	95	5
149	150	2
60	60	3
40	41	9
81	81	4
78	78	2
118	122	3
166	166	1
2	73	2
145	146	7
43	44	5
80	82	5
65	70	1
12	12	11
162	162	9
146	160	2
5	42	2
144	144	6
159	160	1
39	43	2
109	109	10
17	18	4
90	90	10
38	43	2
66	66	4
67	67	6
86	86	5
108	108	1
134	136	2
29	29	20
104	105	3
23	24	2
87	89	2
1	1	8
57	57	6
73	73	9
23	23	5
24	24	3
77	78	3
2	5	1
34	34	12
31	32	4
68	71	4
37	39	2
7	13	2
25	27	3
111	111	4
33	33	23
103	104	8
13	20	2
76	94	1
159	159	6
100	101	2
115	118	5
58	58	7
169	171	2
68	68	6
29	41	4
41	41	11
31	138	1
3	3	7
102	102	1
154	154	5
127	127	3
66	67	4
27	27	5
119	119	8
157	158	1
126	167	1
17	19	2
62	62	2
32	40	2
167	168	1
135	136	2
25	28	3
158	158	6
43	43	11
114	114	4
96	96	7
154	156	2
176	176	3
88	88	3
21	25	2
32	33	5
5	5	10
131	131	2
130	130	7
171	172	2
50	53	1
94	95	2
175	175	5
115	116	3
65	66	1
59	84	2
165	167	1
35	41	1
88	148	2
116	117	1
4	5	1
125	125	2
50	55	2
50	51	3
59	59	2
101	108	4
100	107	2
126	126	5
142	143	5
91	91	10
104	124	2
58	59	2
20	20	4
112	114	2
140	140	4
156	157	3
85	85	2
55	55	6
108	109	3
22	26	1
103	121	2
109	110	1
102	120	1
155	156	2
76	76	8
5	6	5
89	105	3
128	128	6
16	18	5
56	56	8
150	158	3
10	28	2
2	45	3
42	43	1
54	54	4
121	121	8
65	65	10
103	123	3
113	114	5
52	52	1
106	167	1
3	4	3
99	100	1
172	172	1
153	158	1
6	6	7
134	134	9
16	137	1
155	155	3
60	67	2
107	108	2
80	93	1
135	135	1
128	129	5
43	59	1
12	13	4
118	118	6
21	23	1
12	20	2
84	97	1
35	40	4
132	132	4
151	151	9
156	158	2
73	75	2
93	94	1
156	156	5
110	111	2
10	24	2
53	79	1
178	178	2
81	83	1
95	111	2
6	7	2
161	161	5
1	3	1
53	55	3
34	39	2
155	157	1
141	141	2
123	123	3
19	20	3
136	136	2
9	10	2
19	21	3
173	177	1
106	165	1
21	21	2
96	100	1
41	43	2
15	26	1
77	77	1
175	176	3
86	110	1
95	102	1
82	100	1
84	84	4
75	75	3
152	153	2
21	22	2
95	96	4
30	40	1
96	97	1
9	30	2
38	59	1
37	38	3
137	157	1
126	127	3
13	26	1
0	2	1
28	29	1
100	100	6
3	76	1
82	84	2
145	149	1
6	10	2
61	61	1
127	167	1
116	116	2
172	175	2
172	173	1
103	105	1
39	42	2
92	95	1
38	39	1
73	111	3
78	87	1
148	148	6
93	93	6
141	142	1
146	147	1
162	163	1
126	132	2
54	55	1
38	44	2
168	168	3
63	63	4
1	2	4
107	109	1
2	31	1
165	165	2
74	90	1
35	80	1
73	112	2
149	149	2
64	65	3
145	145	1
2	11	1
68	99	1
122	129	3
70	70	1
146	148	2
24	25	3
24	27	3
97	99	1
0	1	2
42	44	1
96	110	1
45	46	1
44	45	2
39	84	1
90	166	1
132	133	1
115	115	2
75	76	1
154	168	1
131	132	1
90	155	2
104	104	1
30	31	1
14	15	1
151	154	1
57	58	1
80	81	3
50	52	1
151	152	1
82	82	2
106	106	1
6	12	1
72	112	1
5	7	1
124	126	1
37	44	1
77	87	1
170	171	1
121	122	1
