63	63	5
171	171	2
84	84	1
104	106	10
10	37	3
71	71	11
5	6	5
23	23	3
159	159	7
163	163	3
123	123	3
149	149	6
42	64	2
87	87	7
68	68	1
74	74	5
161	161	2
165	166	4
195	197	2
1	21	4
179	179	4
113	141	3
130	132	4
64	64	18
39	41	3
169	186	1
34	34	5
60	123	2
196	196	2
7	34	5
69	81	2
8	33	2
2	2	2
1	1	4
8	9	3
0	0	4
186	186	6
141	170	1
54	56	3
180	182	2
56	56	4
46	46	4
35	35	2
95	153	1
190	190	5
24	28	3
73	73	5
12	12	7
144	144	10
54	54	8
38	53	3
102	133	5
58	59	1
184	184	4
65	65	1
102	115	3
6	6	6
96	96	2
19	19	7
42	42	6
24	24	4
58	58	10
148	148	3
166	166	1
99	99	3
53	53	5
70	71	1
118	118	4
90	90	1
4	24	2
96	112	2
162	165	4
170	171	4
108	109	3
182	182	7
101	142	1
108	185	1
39	129	4
84	85	4
26	26	4
48	48	2
114	115	5
4	58	1
80	80	3
106	134	2
28	31	2
115	141	2
65	124	2
134	134	7
186	190	5
76	76	6
47	49	3
117	119	4
116	116	5
167	167	4
194	194	2
99	113	1
125	126	1
172	172	6
27	28	4
140	140	5
105	106	1
72	73	5
18	19	1
135	135	5
117	117	3
66	88	2
191	192	3
13	14	1
111	111	6
88	89	6
44	45	1
145	165	1
15	15	4
176	176	1
193	193	2
124	124	5
93	95	5
109	110	2
17	18	1
126	126	6
95	95	3
57	58	2
43	43	4
117	118	8
157	157	5
119	120	6
47	48	2
158	158	4
19	22	2
98	98	2
147	186	5
72	72	9
82	82	6
174	174	4
134	135	1
150	173	2
196	197	3
95	96	2
109	111	1
36	36	2
103	103	3
63	122	5
116	119	2
94	95	3
173	176	1
115	115	4
108	108	5
180	185	1
137	149	2
51	51	3
22	38	5
147	179	6
89	89	3
29	29	6
189	191	1
154	170	2
104	105	1
63	65	5
41	41	8
189	190	3
153	153	3
146	148	2
16	40	2
45	56	1
182	184	1
146	146	5
142	142	3
139	148	8
22	22	2
96	98	2
176	178	2
3	3	5
119	119	3
100	100	3
165	165	4
70	131	1
83	84	2
88	88	1
136	136	3
21	175	3
110	134	2
187	189	6
63	88	3
46	48	1
159	167	2
146	164	1
160	167	2
182	183	3
178	179	2
3	27	1
16	16	6
75	78	1
97	97	1
161	193	1
131	133	2
101	133	2
106	135	2
164	164	2
94	119	3
185	190	3
145	145	3
121	121	2
47	47	1
9	9	2
187	187	7
2	10	2
143	143	4
138	138	4
37	39	2
159	163	2
26	123	1
144	152	1
185	186	1
103	139	1
8	8	2
4	4	1
62	62	3
5	34	2
37	171	2
69	71	5
101	105	2
131	131	5
93	93	1
87	88	2
70	72	1
123	124	2
154	154	5
103	106	1
188	188	1
17	17	4
183	195	1
141	141	1
60	60	3
150	150	1
156	157	1
100	104	1
25	25	2
140	188	3
86	87	3
53	54	3
99	115	1
69	121	1
175	178	3
192	192	2
81	83	1
96	97	3
79	79	2
157	159	1
132	132	3
23	173	1
112	112	1
57	171	1
83	121	1
13	13	2
68	133	1
127	127	1
176	180	3
32	183	1
5	5	3
129	130	2
117	147	1
59	59	3
100	160	1
169	169	7
184	185	2
162	163	4
102	102	1
147	147	2
54	55	5
83	85	2
103	116	1
142	197	1
77	77	1
31	184	1
163	165	1
20	41	1
86	88	1
88	96	1
139	139	1
19	41	1
67	133	2
33	33	4
116	170	1
162	162	1
44	44	1
150	170	1
112	134	6
7	35	1
34	35	3
195	196	2
146	147	1
96	103	1
37	37	1
69	82	1
62	63	1
71	100	2
60	64	2
191	191	5
42	126	2
40	41	1
52	52	1
68	121	1
168	169	1
38	38	2
29	30	1
25	26	2
60	62	1
121	122	1
119	129	3
99	104	1
62	121	3
39	39	1
175	175	1
3	10	1
70	70	3
125	127	2
98	162	1
137	178	2
136	137	1
55	55	1
3	4	4
26	27	3
160	163	2
6	27	1
188	189	1
164	165	2
173	174	1
24	25	2
134	136	3
2	28	4
20	20	1
176	188	1
162	193	1
105	105	2
128	128	1
22	62	1
48	49	1
57	57	1
1	2	1
184	196	1
67	136	1
156	156	1
67	68	2
31	32	2
26	187	1
66	67	1
26	46	1
101	101	1
33	170	1
66	66	2
50	50	2
81	81	2
12	43	1
170	172	1
31	56	1
55	56	1
86	96	1
141	183	1
4	27	2
67	130	1
138	143	1
153	158	1
63	121	1
94	94	2
178	180	1
30	57	1
55	57	1
179	182	2
143	144	1
69	137	1
118	119	1
13	66	1
99	141	3
187	188	1
23	33	1
130	130	1
79	80	1
189	189	1
14	27	1
137	137	1
35	38	1
116	118	1
110	161	1
30	30	1
178	178	1
30	31	1
177	177	1
85	86	2
46	50	2
101	148	1
86	86	1
85	85	1
10	10	1
185	191	1
35	170	1
185	185	1
180	180	1
152	152	1
101	134	1
45	74	1
151	177	1
21	21	1
67	69	1
167	168	1
70	82	1
161	162	1
113	154	1
9	33	1
45	45	1
33	151	1
154	156	1
195	195	1
66	131	1
138	146	1
