190	191	5
102	133	5
191	191	9
180	180	17
124	124	2
193	193	8
216	216	2
174	174	10
29	29	6
87	87	2
13	17	3
84	84	10
235	237	2
26	47	3
122	122	9
71	71	9
19	25	5
126	126	5
34	34	3
22	35	6
181	181	3
53	53	7
79	80	2
125	125	8
56	56	2
74	74	5
208	208	6
33	66	3
116	116	5
25	27	11
81	81	4
222	223	1
192	201	4
220	221	10
152	152	4
126	127	8
105	105	3
151	151	2
39	76	3
229	231	2
62	62	1
98	99	6
211	211	3
36	57	4
103	103	7
70	70	7
210	210	5
73	73	5
100	100	1
117	117	9
55	56	1
25	25	1
127	127	10
238	238	5
26	26	12
5	6	3
63	63	6
190	190	3
240	240	4
225	225	6
156	158	1
135	135	3
156	168	4
182	239	5
220	220	4
15	15	2
106	106	1
22	23	6
85	85	8
234	239	2
192	197	9
150	150	4
241	241	2
235	235	5
234	235	1
154	154	2
30	30	12
195	195	5
69	69	11
179	209	1
65	65	2
223	223	3
221	221	5
217	232	2
184	186	2
232	232	6
31	31	2
239	239	2
0	37	2
178	178	10
2	2	4
121	122	1
99	238	6
139	140	2
18	19	3
36	55	4
79	84	5
177	177	6
65	66	4
14	14	7
206	206	3
123	123	5
228	228	8
115	115	2
25	26	1
152	153	2
187	188	3
202	203	2
170	173	4
101	101	7
203	203	6
16	19	3
86	127	1
175	176	4
45	45	3
158	158	6
52	53	5
239	241	1
176	176	9
124	130	3
23	30	3
17	17	6
113	113	5
175	175	6
207	208	7
156	156	3
146	146	6
161	161	8
12	14	1
163	163	4
39	39	13
88	97	4
80	97	2
202	202	5
140	142	1
162	199	1
168	168	5
68	68	8
59	59	4
33	33	9
140	140	6
207	239	2
13	13	6
36	56	4
62	70	7
26	44	1
204	205	2
186	187	6
35	35	3
167	167	3
212	212	2
226	227	3
217	218	7
24	24	2
35	41	4
112	112	2
48	235	4
128	128	3
201	201	4
131	131	1
149	150	2
147	147	2
104	105	2
71	74	3
179	210	2
145	145	1
24	210	3
66	66	2
181	188	1
106	109	2
130	130	5
16	18	2
62	64	1
75	77	1
110	110	2
59	60	2
154	167	2
141	142	3
139	142	8
11	11	3
0	1	8
109	109	3
24	28	4
49	238	5
2	29	7
42	42	5
193	194	3
100	101	1
145	146	4
36	36	4
83	83	15
123	127	4
219	220	3
21	21	3
227	227	4
50	50	3
144	148	3
10	10	3
27	27	3
184	184	2
129	129	3
3	3	5
0	0	3
189	189	2
109	111	1
41	41	2
189	196	1
186	195	7
79	79	2
4	4	5
44	62	3
107	107	7
218	219	2
43	61	2
88	88	1
103	105	1
176	233	2
134	134	2
99	99	8
157	170	1
7	8	3
40	40	3
157	157	6
192	192	2
240	241	5
185	185	10
84	86	1
182	182	2
120	121	7
169	172	4
226	226	2
138	138	5
218	218	1
76	77	1
57	57	4
19	19	5
15	208	4
182	207	1
37	126	3
80	89	2
226	230	2
224	224	5
3	29	2
8	8	5
54	54	2
33	67	3
53	75	2
215	229	2
136	137	2
207	207	3
77	77	3
177	178	1
44	44	3
39	55	1
97	97	3
164	167	2
24	36	3
230	230	3
143	146	1
124	126	1
157	159	1
37	55	2
9	9	4
72	72	3
178	202	2
234	236	1
176	232	1
212	213	1
16	16	2
143	143	4
178	203	2
186	186	4
171	171	1
138	153	3
187	187	2
201	218	1
162	163	10
182	201	2
216	224	2
152	169	1
1	2	2
144	145	3
174	185	1
211	212	2
192	213	1
48	48	1
38	39	2
242	242	2
212	220	3
159	159	1
26	27	3
231	231	1
2	3	2
40	41	2
191	241	4
143	144	1
160	200	1
103	130	1
47	47	3
25	30	1
102	102	2
173	173	3
43	43	1
86	86	1
189	190	2
215	215	4
29	30	2
5	5	1
23	24	2
28	37	3
86	96	3
28	28	2
218	240	2
177	238	2
4	5	1
82	95	2
6	6	3
103	125	1
171	172	2
164	165	2
176	178	2
38	40	2
13	205	1
58	59	1
196	198	1
179	204	2
179	180	1
47	52	1
61	61	3
35	36	1
50	99	2
98	98	2
124	129	2
167	174	2
18	179	1
236	236	1
78	78	5
148	149	5
176	218	1
173	182	1
155	155	4
101	135	3
233	239	1
46	53	1
158	159	2
12	13	1
118	118	1
42	55	1
67	67	1
226	229	1
18	18	2
205	208	1
104	106	2
96	97	1
136	136	1
175	233	2
175	201	2
166	167	1
133	134	2
233	233	1
237	237	2
171	175	1
203	204	1
169	170	2
160	231	2
62	71	1
8	37	1
229	229	1
120	120	1
47	48	2
200	200	1
102	103	1
24	55	1
189	197	2
103	134	1
125	126	1
52	52	1
142	151	1
37	37	1
157	169	2
24	27	1
101	177	1
166	166	1
133	133	2
159	201	1
22	22	1
104	131	1
190	197	2
80	80	1
200	201	1
193	195	1
174	175	1
60	60	1
183	187	1
180	188	1
139	139	1
55	55	1
