150	150	4
152	152	3
17	17	5
135	136	1
133	133	5
42	42	5
84	149	3
74	74	7
145	146	2
97	97	5
111	116	1
111	111	12
55	55	9
91	91	5
28	28	2
102	102	3
20	67	1
10	57	2
132	132	5
43	44	1
75	129	2
136	136	2
19	64	1
85	85	6
70	78	2
35	35	2
82	82	1
129	129	1
114	114	4
41	43	7
90	99	1
99	99	4
83	85	2
74	98	2
20	20	3
104	104	1
5	8	3
75	75	1
20	30	4
10	10	2
153	154	2
22	22	8
42	48	3
139	145	4
141	141	5
84	84	1
77	78	2
18	18	5
34	35	1
16	69	1
79	84	3
125	125	6
90	94	2
122	128	7
30	30	7
41	41	4
84	85	4
72	72	2
136	153	1
48	50	2
94	94	4
24	26	2
87	104	4
142	143	3
144	144	3
36	36	2
70	123	2
93	103	5
37	37	1
29	29	1
93	101	2
19	19	7
33	33	2
16	17	4
65	65	1
95	130	2
128	128	4
63	68	1
5	5	2
140	144	5
135	149	3
80	81	1
110	111	4
116	117	2
113	113	3
39	40	5
75	77	2
88	88	1
146	148	1
83	83	4
82	141	2
78	78	9
100	103	2
18	28	2
139	150	3
79	81	1
97	129	1
73	73	3
9	9	4
47	47	2
135	148	4
21	21	5
63	63	3
117	117	1
109	109	5
56	56	3
57	57	3
124	124	4
137	137	3
25	47	1
74	75	1
33	34	1
8	8	1
131	131	5
95	95	1
12	12	2
142	142	3
78	79	2
71	96	2
96	130	1
75	104	1
14	40	1
77	79	2
49	50	1
32	51	3
16	95	1
70	70	3
32	32	1
22	61	3
112	112	1
107	108	1
110	152	1
45	51	3
97	130	1
107	107	5
33	50	2
27	31	3
123	124	2
76	76	4
24	24	1
7	54	1
33	48	1
34	45	1
16	16	1
45	45	2
124	128	1
146	147	2
41	42	4
96	121	1
141	142	1
94	100	2
138	144	2
27	28	4
132	141	1
71	71	1
65	66	1
75	76	1
99	100	1
86	96	3
24	46	1
122	122	2
83	84	2
118	119	1
70	121	1
143	154	1
98	98	1
86	86	1
101	102	1
90	100	1
127	127	2
25	51	1
125	126	2
12	44	3
15	24	1
124	125	2
68	68	2
22	26	1
108	108	1
71	73	1
31	31	2
26	26	1
80	80	3
134	134	1
21	27	1
96	97	1
73	74	2
31	45	1
79	79	1
25	27	2
87	99	1
27	27	2
10	56	1
143	143	1
64	64	2
92	92	1
22	63	1
62	62	2
64	65	1
118	118	2
24	25	1
121	130	1
82	138	1
121	128	1
13	43	1
74	77	2
94	106	2
149	150	1
33	45	1
47	48	1
139	151	1
49	49	1
93	93	2
21	25	1
145	145	1
97	107	1
24	47	1
122	127	1
137	138	1
4	4	1
87	87	2
