69	70	2
154	154	3
102	102	1
165	166	4
54	55	2
179	179	12
117	117	2
53	54	8
131	132	1
43	43	9
124	139	3
116	116	8
101	101	10
123	125	3
115	116	8
195	195	4
25	25	13
166	166	9
164	164	13
84	84	8
86	86	9
12	12	15
107	107	13
16	16	7
53	55	3
105	106	3
159	159	11
160	161	4
10	10	10
60	60	3
118	118	8
156	157	1
155	155	6
29	29	6
1	1	12
109	109	17
158	159	1
159	176	2
120	120	2
129	134	1
71	71	2
96	96	12
156	187	2
153	153	5
26	27	9
158	158	8
40	80	1
110	110	7
19	19	1
146	156	2
104	104	4
142	142	5
0	1	3
64	64	15
99	99	1
182	182	3
187	187	11
161	161	4
110	150	1
166	171	1
9	9	11
127	128	1
140	140	8
135	136	2
139	140	5
98	98	7
33	33	7
124	124	9
142	193	5
34	34	7
14	14	3
192	192	2
172	173	10
26	26	12
81	81	2
100	100	10
37	37	5
36	36	8
143	144	4
145	145	2
6	8	3
21	21	11
121	121	8
27	40	3
106	106	1
66	67	7
51	52	6
189	190	1
173	173	2
165	165	5
7	8	1
93	93	10
50	56	2
76	76	8
55	55	5
36	80	2
183	183	4
111	111	8
70	70	12
122	122	5
24	24	12
4	8	4
197	197	6
170	170	11
20	23	1
46	46	3
171	172	5
66	66	12
143	143	8
154	159	3
23	26	1
132	132	10
174	175	2
116	117	2
114	114	8
146	146	3
161	162	7
77	77	10
94	95	2
62	62	3
112	112	5
169	170	6
101	112	3
134	134	12
59	59	9
80	80	9
166	169	1
162	163	5
137	139	2
146	188	3
108	108	3
11	11	10
115	115	2
68	68	19
143	190	1
0	0	13
180	181	5
177	177	7
88	88	3
59	60	1
174	174	9
39	40	3
117	118	11
2	5	3
158	174	7
65	66	2
136	136	5
43	50	6
150	151	8
107	109	6
41	41	7
38	38	6
68	75	1
157	157	2
89	89	1
57	58	2
127	127	9
22	33	3
76	77	4
100	112	2
14	44	4
69	69	7
105	105	5
63	63	3
121	122	3
87	87	8
97	121	2
20	21	4
119	119	14
73	73	8
8	8	4
20	20	2
60	107	2
90	90	1
75	75	7
47	47	5
31	32	4
5	5	4
75	100	4
107	108	2
49	49	3
160	166	2
185	185	9
149	149	10
74	76	1
147	153	2
10	45	4
159	163	3
76	78	1
9	45	2
142	143	2
167	167	3
160	160	14
133	133	1
17	17	4
151	151	10
135	135	6
178	179	4
57	57	5
38	74	2
164	167	2
48	49	1
105	147	2
48	48	3
62	126	1
148	148	4
18	18	7
141	156	3
175	175	2
188	189	2
31	31	4
168	169	4
118	119	8
30	30	4
160	173	2
40	40	4
45	45	3
126	126	4
186	186	7
36	39	2
163	165	2
21	25	1
163	166	13
63	124	1
176	176	7
25	26	2
30	41	4
80	81	4
79	79	6
27	27	6
60	61	3
15	17	2
5	6	3
188	188	10
47	49	1
50	72	7
77	78	4
128	128	7
23	23	6
52	52	2
121	123	2
156	156	4
30	32	7
181	182	4
175	176	3
53	53	3
142	146	1
144	144	6
17	44	2
24	30	2
132	133	2
79	86	3
124	125	2
14	15	3
75	76	1
72	72	8
97	97	5
42	42	6
194	194	1
173	174	3
39	41	1
110	111	6
26	28	2
180	180	6
15	15	4
146	147	2
87	88	5
184	184	4
57	108	2
44	44	4
86	87	1
138	138	5
62	63	6
74	74	2
67	67	5
193	193	5
54	54	6
169	169	4
17	18	5
141	143	1
51	51	6
32	32	3
141	141	4
6	6	2
4	4	7
58	58	7
196	196	1
3	3	4
122	123	2
30	31	2
195	196	3
167	169	1
19	20	2
55	56	1
33	44	1
150	150	4
21	22	2
94	97	2
2	4	2
39	39	3
143	145	2
15	48	1
50	52	5
6	7	1
72	73	3
78	79	2
191	191	5
160	174	2
69	73	1
137	137	7
181	181	5
78	78	4
94	112	2
38	75	2
114	118	3
61	64	1
97	98	1
77	79	3
152	152	2
139	139	4
58	59	2
50	51	1
22	22	3
50	50	9
94	94	4
0	20	1
145	146	1
22	23	3
81	86	1
74	80	3
89	101	1
95	95	4
125	125	1
2	2	2
102	107	2
65	65	4
56	100	1
113	113	4
151	152	2
160	172	2
153	154	2
164	165	5
184	185	2
141	189	2
85	86	2
190	190	3
13	13	6
14	43	5
192	193	2
158	175	2
172	172	3
139	155	3
115	179	3
21	33	4
102	104	2
49	55	1
182	183	5
103	104	5
137	138	1
144	154	2
24	25	2
49	50	1
126	186	1
88	89	1
55	111	2
160	171	1
112	149	1
162	162	4
45	46	3
134	135	1
167	168	3
24	31	2
168	168	6
171	171	1
2	8	1
12	13	1
112	113	2
31	43	1
35	35	5
170	171	1
146	189	1
1	20	2
2	6	1
62	124	1
11	14	2
14	48	2
54	58	1
130	133	1
65	88	1
89	90	2
98	119	2
66	69	1
101	111	1
185	187	5
38	80	1
55	109	1
190	191	2
11	17	1
176	178	1
62	108	1
56	56	3
63	89	1
161	163	1
11	13	1
95	96	2
153	157	1
144	156	1
28	28	2
157	182	3
185	186	2
134	136	1
55	110	1
81	83	1
163	163	1
138	139	2
123	123	1
156	186	2
82	83	1
176	177	3
176	184	2
83	83	1
60	111	1
151	153	1
53	112	2
16	17	2
100	101	1
82	82	2
70	71	1
104	106	1
114	180	1
149	187	2
63	126	1
28	30	2
119	120	1
33	43	1
56	111	1
111	112	1
67	68	1
161	167	1
0	25	1
50	71	2
168	173	1
109	112	2
186	187	1
59	101	1
130	131	3
73	74	1
159	166	1
39	42	2
142	144	1
70	76	1
133	137	1
115	180	1
52	127	1
93	101	1
68	79	1
155	186	1
130	134	1
35	36	1
124	184	1
80	85	1
147	147	1
189	189	1
148	149	1
61	61	1
75	86	1
149	151	1
52	53	1
37	39	1
