138	138	7
25	28	2
168	168	9
155	156	3
110	114	5
84	122	3
127	129	1
65	66	10
79	79	4
24	25	5
141	141	8
117	117	4
68	68	9
87	87	3
159	165	7
18	18	1
161	161	15
130	130	7
176	176	6
154	155	6
7	8	2
85	85	12
57	57	9
60	60	12
130	131	3
10	15	1
17	17	16
108	108	2
15	15	12
72	130	8
95	95	14
87	88	8
5	7	9
154	154	1
78	112	3
71	71	11
165	165	3
139	139	10
11	11	8
171	171	22
126	126	12
93	93	5
83	83	6
38	52	1
92	93	7
118	118	8
92	94	1
149	172	3
164	164	3
174	174	4
167	167	1
63	63	5
16	16	8
10	54	1
149	154	4
97	97	8
150	150	5
9	9	10
116	117	6
167	171	5
111	111	11
151	151	3
0	0	7
97	101	2
161	170	4
61	61	5
7	7	12
84	84	7
107	121	2
17	18	3
28	28	2
60	72	2
91	114	1
112	113	4
132	133	3
9	22	2
131	131	7
81	82	9
155	157	11
106	106	12
101	101	4
159	160	3
96	108	2
77	77	9
90	90	12
145	145	11
91	113	1
91	91	6
49	50	1
89	133	4
36	37	4
123	126	2
107	108	3
32	33	4
149	149	16
128	128	7
74	75	3
148	163	2
14	14	3
78	78	10
163	163	7
124	124	6
151	152	6
102	102	4
143	143	9
90	91	1
36	100	4
43	45	5
10	10	2
8	9	5
19	20	3
3	3	8
82	82	6
178	178	1
10	14	2
111	113	6
73	73	7
144	144	2
12	12	10
12	13	7
174	175	1
78	134	4
153	154	2
41	58	3
44	45	2
86	86	2
5	24	2
50	50	6
26	26	2
9	23	6
112	169	5
93	94	4
169	170	9
89	101	2
8	17	2
82	110	1
159	163	5
37	37	3
118	119	4
103	104	3
96	96	8
100	100	6
23	23	2
121	126	3
173	173	1
6	6	5
79	80	4
80	121	2
2	2	3
160	167	2
56	56	10
142	146	4
39	39	3
133	139	3
83	97	2
83	86	2
148	148	4
76	133	2
49	49	3
108	109	2
40	104	1
95	100	2
99	99	10
106	121	3
142	142	5
7	24	2
170	170	3
114	114	8
24	28	1
169	169	7
94	94	7
37	132	2
147	147	2
137	137	11
36	95	1
86	97	2
1	2	2
38	40	2
107	107	6
160	160	15
147	166	3
50	132	2
145	171	1
42	42	9
128	129	1
144	145	6
24	24	7
89	97	1
58	58	6
2	29	3
59	65	1
61	62	2
1	4	8
79	114	4
103	103	8
93	96	3
40	103	4
133	133	7
19	19	9
42	45	3
88	88	6
35	35	9
30	34	5
55	55	5
146	149	1
175	175	5
59	61	5
159	159	4
134	134	17
121	121	5
36	96	1
73	129	2
84	105	3
109	111	2
114	115	2
36	50	1
99	104	3
115	168	1
138	139	1
77	88	2
90	92	4
51	51	6
120	120	2
89	89	8
110	110	3
16	43	2
102	103	5
146	152	2
125	125	11
83	84	3
149	153	3
41	42	2
80	80	6
56	57	3
145	146	1
50	51	3
24	26	4
73	130	4
11	14	1
86	109	1
64	64	2
42	43	3
54	54	4
99	101	1
36	36	1
157	157	5
21	21	7
0	1	5
26	27	2
59	66	1
74	131	3
97	98	4
66	66	12
156	156	1
29	29	2
106	130	4
165	166	6
179	179	2
44	44	5
2	3	1
66	67	1
76	76	6
74	74	3
29	33	3
80	107	4
43	43	2
173	174	2
148	166	1
3	28	1
52	52	3
90	171	2
32	32	4
105	130	4
175	176	2
77	78	4
115	117	1
75	107	2
105	106	1
146	146	6
45	45	4
94	145	2
75	75	6
141	149	1
119	120	1
127	128	4
22	22	4
136	136	2
88	89	3
140	140	2
127	127	3
81	81	7
43	44	7
115	116	2
82	107	2
173	175	1
132	132	7
33	33	4
150	153	1
81	120	1
116	116	1
2	4	2
160	168	7
39	53	1
115	115	2
64	65	2
59	59	5
155	155	2
36	144	3
8	10	2
131	132	1
31	31	2
42	59	1
98	98	5
152	154	1
134	137	2
84	85	2
61	72	1
172	172	5
147	148	1
29	32	3
40	40	1
145	172	1
74	105	1
167	170	1
38	38	3
11	13	3
53	139	1
83	106	3
20	20	1
158	158	1
29	30	3
36	132	2
2	51	1
53	53	1
99	100	2
75	106	2
167	169	3
112	112	2
171	172	2
122	122	1
176	179	1
53	54	1
109	110	1
75	130	3
133	134	2
112	114	1
13	13	3
67	129	1
41	56	3
160	162	1
65	65	4
16	17	1
98	101	1
155	159	3
123	125	1
134	135	1
12	23	1
63	64	1
90	145	1
54	56	1
155	158	2
83	121	1
135	136	1
157	164	1
172	174	1
150	151	2
43	71	1
91	171	2
4	5	2
119	119	3
113	113	1
91	92	3
15	45	1
156	163	1
62	62	1
109	109	1
154	157	1
99	133	1
160	164	3
148	165	1
33	35	1
177	180	1
76	87	1
41	103	1
5	5	2
123	124	1
142	143	1
166	166	1
104	105	1
117	118	1
159	162	1
122	125	2
92	92	1
34	141	2
137	138	1
1	51	1
8	8	1
148	155	1
164	166	1
18	21	1
86	107	1
40	41	1
105	105	1
162	162	1
85	103	1
