31	31	3
43	99	4
6	6	5
87	87	9
80	81	4
50	50	9
94	94	5
116	117	4
101	101	6
102	102	4
107	107	4
22	22	4
19	19	3
118	118	8
56	56	10
122	122	5
120	120	4
69	88	1
59	59	2
70	70	5
67	67	5
79	79	3
78	78	8
110	110	11
16	16	2
29	30	4
65	68	2
51	51	3
59	61	4
0	0	3
54	54	4
49	49	14
48	118	2
93	93	9
113	113	8
125	126	3
55	100	1
1	9	2
80	80	17
3	3	5
88	88	2
10	10	7
2	2	8
112	113	10
130	130	3
58	58	4
112	112	9
49	50	1
71	71	6
27	27	11
105	105	6
111	117	1
47	100	2
99	108	4
8	9	5
40	40	5
106	106	11
128	128	1
92	92	4
76	85	5
12	12	6
55	55	1
76	76	8
26	26	6
57	57	15
75	77	8
22	23	4
1	1	9
17	22	1
93	94	2
18	18	4
121	121	2
17	17	4
70	71	1
82	82	6
103	103	5
127	128	3
106	107	1
30	30	4
131	131	2
133	133	3
42	118	1
7	9	2
16	17	7
90	92	1
58	62	1
11	11	2
10	125	3
58	123	2
64	64	4
109	109	12
42	43	2
132	132	4
39	39	1
91	93	4
90	91	2
61	61	1
60	60	4
53	53	9
108	119	2
63	63	4
30	31	3
66	67	2
7	7	4
88	91	6
100	100	4
57	120	3
32	32	2
70	72	3
91	91	4
20	20	4
83	83	9
69	69	4
47	47	4
84	85	1
76	87	1
52	52	5
73	73	4
107	129	2
81	82	2
60	61	1
39	40	1
79	110	1
11	120	3
94	99	4
96	98	3
73	74	1
85	85	2
86	86	1
123	123	4
108	108	8
93	112	1
62	62	7
1	2	3
63	88	1
13	40	1
4	4	3
120	122	1
75	75	2
114	115	2
32	33	2
47	119	1
18	39	1
72	73	3
116	116	3
114	114	2
63	67	2
51	54	1
2	3	1
91	92	3
24	39	1
23	31	1
61	62	2
12	26	1
99	119	1
101	102	2
75	76	2
97	97	2
115	116	1
66	66	1
7	8	1
61	89	2
13	56	1
42	42	7
72	74	1
123	124	3
124	124	4
41	115	3
68	68	2
7	19	2
129	129	3
104	104	4
27	28	1
71	86	2
42	46	1
95	96	1
27	113	1
114	128	1
111	111	2
18	132	1
29	31	3
89	89	1
76	95	1
67	69	1
81	81	1
45	108	2
97	98	2
62	67	3
77	84	3
13	129	1
9	10	2
96	96	2
13	13	2
46	46	3
75	84	2
38	38	1
94	102	1
126	131	1
5	5	2
29	116	1
11	39	1
101	118	2
22	34	1
100	101	1
41	129	2
125	131	1
21	21	1
64	88	1
44	109	1
40	127	1
48	48	3
45	46	1
15	15	2
98	103	1
22	40	1
46	109	1
13	132	1
10	123	1
25	25	1
9	9	3
55	56	1
98	104	1
74	97	1
45	109	2
21	132	1
4	20	1
6	7	1
90	90	1
95	98	1
15	132	1
75	98	1
18	19	1
99	99	1
62	63	1
64	66	1
69	93	1
78	82	1
5	6	1
31	130	1
