225	225	42
58	60	3
49	49	34
161	161	31
18	20	6
15	15	37
41	43	8
69	69	44
38	39	10
13	14	4
107	107	20
75	86	5
242	242	47
23	23	36
153	153	34
27	28	7
28	28	40
179	180	16
206	206	23
56	77	5
167	200	12
160	248	3
212	212	38
204	204	37
37	37	32
50	51	3
211	211	48
68	69	16
231	231	37
145	145	24
20	23	8
99	100	4
93	231	6
21	21	34
174	175	8
225	227	4
38	38	36
1	1	36
237	240	8
200	202	2
160	184	5
163	163	25
42	159	6
175	175	47
229	234	8
172	172	32
232	232	23
54	54	45
45	45	33
228	229	26
73	75	5
214	237	4
74	75	21
85	85	42
76	76	24
188	188	26
194	197	1
193	193	43
206	207	11
84	85	8
65	65	9
24	43	1
3	5	5
237	237	35
144	145	13
79	81	9
160	182	3
203	219	5
181	181	25
178	178	36
27	27	52
65	89	1
54	63	2
115	119	5
192	192	48
25	43	4
223	230	2
22	22	38
79	107	3
167	167	52
176	177	21
171	171	32
150	150	35
168	169	15
88	88	32
159	160	7
102	102	22
102	105	2
110	110	48
233	234	11
164	164	40
220	238	7
247	247	11
46	46	36
214	214	41
96	113	3
27	38	4
182	182	24
190	191	6
229	229	46
236	237	16
147	147	20
81	81	29
118	118	16
106	106	21
182	183	19
51	51	33
60	61	10
196	196	23
229	230	17
234	234	37
246	246	38
223	225	14
197	198	23
39	39	32
91	91	9
196	214	3
153	228	3
61	61	31
48	49	1
238	238	33
166	202	3
53	55	5
186	187	12
58	58	16
213	213	36
34	68	2
243	243	30
63	63	45
208	209	11
173	173	25
209	209	47
73	73	13
171	188	8
77	106	6
56	56	35
191	191	19
70	73	4
205	205	29
179	179	51
85	86	5
239	239	29
96	97	22
19	19	21
220	236	2
67	67	33
9	16	8
154	154	27
191	192	17
56	57	9
190	193	4
197	197	39
86	86	38
62	196	5
80	81	7
85	89	1
221	233	1
47	63	2
1	22	4
181	182	24
83	83	23
100	100	33
183	184	14
55	55	32
158	158	28
99	220	6
119	120	3
183	183	40
173	207	2
75	75	26
154	156	5
214	229	3
190	190	19
97	99	4
68	68	42
236	236	22
169	186	2
89	90	14
99	99	47
102	237	6
94	94	34
184	185	4
202	202	39
41	42	8
11	11	23
52	52	30
5	64	1
227	227	50
104	107	3
203	236	5
248	248	10
35	41	6
228	228	24
93	93	38
203	203	50
22	24	3
235	236	7
120	120	24
168	168	34
43	43	30
119	119	17
40	113	1
95	218	1
166	166	29
46	62	4
210	211	9
8	11	3
180	180	24
60	60	14
111	111	39
185	186	11
112	113	7
151	151	18
52	87	1
154	210	2
222	223	15
184	184	35
112	245	1
77	87	3
5	5	36
108	108	9
87	215	1
226	227	10
97	97	18
201	201	38
65	203	4
24	25	5
59	100	4
209	210	2
26	26	49
208	211	3
164	170	4
110	111	7
115	116	6
161	167	1
221	222	19
34	35	2
151	243	2
156	156	60
106	157	3
160	165	3
186	188	5
230	231	9
104	104	14
33	33	57
186	186	19
15	23	3
9	109	2
208	210	8
57	57	39
41	41	36
241	241	42
223	223	44
29	29	36
103	237	5
12	12	21
97	195	3
109	110	9
188	190	2
36	87	10
95	95	17
210	210	33
53	54	15
214	220	2
72	73	7
217	218	10
218	219	17
91	104	3
208	208	20
187	187	19
117	117	38
109	109	26
219	219	26
185	185	18
8	8	41
207	243	9
216	216	23
157	161	3
113	113	36
170	223	5
193	196	3
31	31	41
236	238	8
224	225	10
16	16	36
17	234	4
81	83	5
220	220	33
218	220	8
101	101	38
200	200	44
85	231	5
240	240	26
190	241	5
64	65	5
24	26	6
198	198	19
92	96	1
35	35	37
193	211	3
237	239	4
106	107	9
175	177	4
104	108	6
85	243	3
159	209	7
221	235	3
75	76	12
150	154	4
163	165	11
151	155	3
217	217	36
17	17	38
6	6	43
201	213	1
163	164	19
59	59	17
44	44	38
27	40	5
175	190	3
197	199	5
87	87	32
80	80	17
9	94	1
16	54	3
66	67	9
116	117	15
196	210	2
19	56	2
97	117	2
71	73	9
80	94	3
49	158	1
45	46	6
187	188	10
62	180	3
42	42	19
80	97	1
222	222	12
87	213	3
8	16	4
64	64	20
76	86	5
13	15	2
31	38	1
28	114	2
8	19	5
49	75	4
230	245	6
20	20	48
170	170	29
76	94	2
192	193	8
199	199	40
77	77	29
162	163	8
87	200	2
35	48	5
65	208	4
88	116	5
244	244	26
230	230	16
114	114	20
83	84	6
101	111	1
80	82	6
181	185	1
224	224	43
178	233	3
19	20	34
50	52	2
205	211	3
26	27	14
92	92	19
220	244	1
246	247	9
11	12	4
213	214	6
216	217	12
15	16	5
10	10	36
199	207	2
82	82	45
245	245	15
49	55	3
94	101	2
226	226	26
34	34	25
84	103	3
51	71	4
169	171	5
184	186	5
116	144	1
155	155	19
70	74	1
11	20	1
4	15	1
174	174	34
9	9	48
59	60	5
47	47	21
86	244	6
98	188	3
12	15	15
14	38	2
21	22	10
32	32	31
8	10	3
214	215	13
72	72	27
54	180	6
44	243	4
90	112	3
198	210	2
172	174	6
66	92	3
175	201	5
34	65	6
94	112	3
168	171	7
32	35	1
169	170	4
1	104	3
98	105	4
182	185	4
4	4	13
242	243	4
24	24	25
187	189	7
160	160	16
218	218	19
65	74	5
95	99	10
182	203	4
157	157	19
79	83	1
4	14	4
193	198	3
94	213	5
215	215	44
207	217	2
59	108	4
214	242	2
81	84	11
48	48	25
65	199	5
97	98	10
49	183	5
165	179	4
70	70	27
186	218	6
18	19	4
74	97	2
14	14	24
32	40	1
227	228	6
60	71	2
66	66	19
112	112	47
20	33	1
43	114	1
101	102	9
153	154	11
90	90	20
74	90	2
209	224	6
2	2	15
179	200	6
169	195	8
63	65	2
36	36	22
79	79	10
159	159	28
118	119	8
40	100	4
77	210	3
102	103	4
68	71	2
107	108	1
221	230	3
151	175	3
189	216	2
29	117	1
218	226	2
207	207	17
207	211	4
243	244	10
170	171	9
25	27	5
49	159	5
33	102	3
189	189	15
29	30	11
33	37	10
156	162	3
51	52	7
30	30	26
53	53	34
235	235	17
62	62	22
241	242	7
173	174	8
88	89	8
45	48	2
160	181	2
153	156	4
98	98	24
180	228	6
150	203	1
103	103	25
8	9	10
16	19	8
28	39	2
161	223	4
162	162	30
57	58	8
52	53	5
225	229	4
111	214	5
110	112	11
204	205	8
167	192	4
23	24	6
66	76	6
38	40	1
202	204	5
30	37	3
84	84	34
48	52	1
177	177	29
221	221	34
61	182	3
35	100	3
87	88	13
71	71	20
172	173	7
116	203	3
31	44	1
110	119	2
57	72	1
243	245	1
188	235	1
9	47	1
18	18	26
223	229	3
37	42	8
80	247	4
163	225	2
89	89	17
114	115	9
78	78	16
93	95	1
146	146	9
96	99	7
18	111	10
73	74	11
39	40	11
64	120	1
7	8	7
5	74	1
55	56	16
79	82	4
14	42	2
230	239	1
78	79	3
91	114	2
30	41	2
165	165	19
168	228	2
71	74	2
178	179	17
74	74	19
69	70	7
7	7	22
160	161	13
86	87	4
25	26	10
25	65	5
152	155	3
26	117	3
170	188	4
12	17	4
37	166	8
64	210	2
86	185	1
154	214	4
205	225	2
151	154	14
78	85	1
17	21	2
188	215	2
169	169	25
105	105	29
63	64	3
39	45	4
69	73	1
11	17	2
201	203	1
50	61	1
227	231	4
114	120	2
1	2	5
152	152	22
4	5	9
62	63	7
29	69	1
68	70	9
86	88	6
156	157	6
223	224	11
11	27	1
65	66	7
19	48	3
156	163	1
100	101	12
23	114	5
95	96	12
163	226	2
212	243	1
85	107	2
2	3	7
182	210	1
6	55	3
210	228	2
113	234	4
227	233	3
52	54	3
97	102	3
196	242	2
163	167	7
22	145	1
65	67	6
3	3	11
168	219	2
1	3	2
220	222	5
113	114	2
240	241	11
12	13	6
96	96	29
169	178	4
245	247	1
150	171	1
82	83	10
198	199	9
207	208	10
159	166	3
36	37	2
167	179	2
17	18	6
200	201	7
47	48	5
170	183	3
32	87	1
71	208	3
40	93	1
176	176	19
49	50	7
9	220	2
60	117	3
181	243	3
227	232	5
193	194	11
214	216	3
183	199	8
64	209	1
12	46	2
178	183	3
25	25	18
57	96	4
95	97	7
78	88	2
238	240	9
237	245	2
28	38	4
71	72	16
84	121	3
88	162	1
19	46	1
71	76	2
46	151	1
115	117	2
168	184	4
51	177	1
158	162	7
22	23	10
165	166	5
47	62	1
180	193	2
14	50	4
194	195	2
199	200	4
84	91	5
196	216	2
72	77	1
105	107	8
229	232	3
119	159	3
54	62	3
205	212	4
63	168	2
155	169	1
239	240	9
116	116	34
94	95	11
232	234	5
87	115	1
198	213	1
212	236	3
157	193	12
166	167	4
93	94	4
164	246	6
6	7	2
92	99	1
50	50	25
201	202	4
56	58	5
97	100	2
195	195	14
22	37	4
49	177	5
222	224	2
75	91	2
234	248	1
185	232	3
245	246	3
35	45	2
225	226	4
41	179	1
41	44	3
99	101	1
153	246	3
206	226	4
178	244	2
65	182	1
152	180	2
203	212	4
61	62	5
14	31	2
40	43	5
92	93	6
60	182	3
40	40	22
117	119	4
188	218	1
158	159	6
195	196	7
90	91	15
7	13	2
27	120	4
242	244	3
16	53	2
158	222	6
173	182	3
20	56	3
23	25	4
57	98	3
21	23	3
207	241	3
192	227	1
27	91	2
208	236	4
67	222	2
90	99	3
194	211	2
59	157	2
72	80	8
54	55	6
93	101	3
20	21	4
213	237	3
178	224	4
163	242	4
177	181	2
213	215	5
26	28	2
11	200	3
164	227	2
56	64	3
149	150	11
9	10	2
115	115	18
247	248	8
195	197	2
76	106	2
155	156	11
47	55	2
117	118	5
178	211	2
158	177	4
28	116	1
48	50	2
3	4	2
62	114	4
117	157	1
35	78	4
162	182	5
73	91	3
71	237	2
197	209	1
198	204	2
47	54	1
63	68	2
29	111	2
100	215	2
94	114	4
152	173	4
11	15	1
168	235	1
212	213	12
82	84	4
179	218	4
105	120	4
185	208	4
198	232	4
183	185	4
191	216	1
43	44	6
235	243	2
82	95	2
173	177	2
3	6	2
102	156	2
5	63	2
194	194	7
161	225	2
20	35	4
48	51	3
215	216	4
98	215	3
108	115	2
81	212	1
200	216	3
55	60	2
209	233	2
182	225	1
202	236	4
209	222	5
182	215	3
20	113	2
70	72	7
92	152	4
215	217	4
91	152	5
88	91	2
180	181	10
39	46	2
70	71	16
208	224	1
232	235	6
170	243	3
244	249	3
155	214	1
207	209	3
166	245	1
192	230	1
178	184	4
213	231	2
84	145	1
234	236	1
151	152	5
56	78	4
9	226	3
101	215	3
80	244	2
56	60	2
207	236	1
47	51	3
178	180	2
33	35	2
46	47	6
100	165	1
157	158	2
115	160	1
185	240	1
115	179	2
21	54	2
93	164	3
77	78	2
104	157	5
41	165	6
203	207	5
243	246	1
179	183	2
51	70	3
9	46	2
19	26	1
87	91	2
57	115	1
68	94	3
47	49	7
193	195	4
205	235	2
161	224	4
79	89	1
209	211	5
28	32	4
229	233	7
195	241	5
210	223	2
22	81	4
201	234	1
95	115	1
85	236	3
47	106	1
212	240	2
157	177	5
14	15	7
99	113	2
190	237	4
233	233	12
15	31	3
186	189	3
63	180	2
52	101	3
114	117	1
108	109	2
88	180	2
59	61	4
116	118	2
60	159	3
46	53	2
95	108	1
42	43	7
52	102	3
40	41	5
164	245	4
109	175	3
52	151	2
64	207	3
3	12	1
67	68	10
17	20	6
36	38	3
22	65	3
54	94	2
113	120	3
232	244	2
90	114	2
33	64	1
91	92	4
67	89	2
120	145	1
189	193	1
96	114	5
11	69	2
150	151	8
57	64	1
221	248	4
60	74	1
193	220	1
17	201	1
61	70	3
24	119	1
193	221	5
34	37	2
77	88	1
167	168	11
204	211	3
152	153	6
97	118	2
35	36	11
81	90	2
12	16	2
162	183	1
151	190	1
94	108	1
152	179	3
208	222	3
64	83	2
153	216	2
170	176	4
33	156	1
92	231	3
90	180	4
209	223	1
170	215	3
39	41	1
7	158	4
160	245	3
216	226	4
81	100	2
44	244	4
16	46	1
79	80	1
82	105	2
76	91	1
46	61	1
85	235	2
110	213	1
161	201	3
88	90	2
67	77	3
29	201	1
162	229	4
66	203	1
5	12	1
166	197	1
174	207	2
30	177	2
52	204	3
104	105	7
21	44	1
44	94	1
232	233	5
32	45	1
44	114	4
171	238	3
111	175	2
95	102	2
39	65	1
235	244	5
61	107	3
153	155	2
203	204	9
76	77	4
9	110	1
63	96	3
46	51	2
197	207	1
167	190	7
55	57	2
10	110	1
48	57	2
216	218	1
144	144	1
17	31	1
68	81	1
62	183	5
32	36	4
149	149	3
172	177	4
162	181	4
58	59	1
64	67	1
67	74	1
99	216	2
171	183	1
202	203	11
187	190	1
94	217	2
110	214	1
29	202	4
56	76	2
151	156	2
216	222	1
205	213	1
170	231	3
223	239	4
196	208	2
32	33	5
114	119	2
16	22	3
180	230	4
214	218	2
13	13	3
8	63	2
191	195	1
75	92	1
165	173	2
16	17	6
111	115	3
195	212	1
78	84	1
218	246	3
173	209	1
47	66	2
60	77	1
0	25	1
171	174	4
201	235	1
245	248	2
182	214	2
161	162	3
34	43	1
235	242	5
12	28	1
156	198	1
36	160	1
9	117	1
176	181	3
150	226	1
59	63	1
189	190	8
16	45	4
170	234	2
211	223	2
53	59	1
157	229	2
48	157	2
64	102	1
67	109	3
10	11	4
70	75	2
159	169	1
99	218	1
162	222	1
7	15	1
34	103	6
98	99	3
50	57	1
23	30	3
205	206	1
218	242	2
54	111	1
177	178	5
90	151	1
170	172	1
162	165	4
44	45	9
60	195	1
31	100	2
112	115	4
81	219	4
7	162	1
158	167	3
77	111	1
68	92	2
27	29	1
190	192	1
81	82	5
172	178	1
84	113	1
174	176	4
181	183	2
191	223	1
164	165	1
146	147	3
38	85	1
70	202	1
36	165	2
33	164	1
36	119	1
145	151	2
220	228	2
160	244	2
92	95	3
221	239	2
221	234	1
15	30	3
176	179	6
92	154	1
95	193	1
112	246	1
5	178	1
34	39	1
233	248	2
242	248	1
174	180	4
115	118	2
94	97	3
192	194	2
196	211	3
5	45	2
85	90	1
198	209	1
114	116	1
159	221	2
61	114	4
37	45	1
211	212	3
173	245	2
224	240	1
32	43	2
154	155	2
51	246	3
57	118	1
26	38	1
211	221	1
193	239	2
239	247	1
220	223	3
249	249	1
78	104	2
229	245	1
113	117	2
46	182	1
47	50	5
177	184	1
37	120	3
185	241	1
21	156	2
189	242	3
183	217	2
154	202	3
64	220	3
63	100	3
238	239	3
51	75	1
94	115	1
101	217	1
232	236	1
23	26	1
53	111	1
3	57	3
66	83	1
61	69	2
172	209	3
64	99	3
2	57	1
174	195	2
29	46	1
177	232	2
30	31	4
98	195	4
92	230	2
63	165	1
15	39	3
188	193	1
31	36	1
163	166	1
85	88	3
204	244	1
216	220	2
22	64	1
165	177	1
107	116	1
52	210	1
159	213	1
86	156	1
45	74	1
52	117	1
232	246	1
62	106	1
21	55	1
114	204	1
171	173	1
55	63	2
68	120	1
200	240	1
210	227	3
47	102	2
219	220	4
111	112	3
229	244	2
164	166	1
57	108	1
67	75	1
182	234	1
66	89	1
173	176	2
111	213	1
87	90	1
64	66	1
66	223	4
22	114	1
48	55	1
64	206	1
15	181	1
82	100	1
67	76	1
62	113	1
23	116	4
89	162	2
50	73	1
180	192	1
90	171	2
157	159	1
43	86	2
222	230	2
189	214	2
188	189	4
236	239	1
97	218	1
237	238	2
60	62	1
244	245	3
30	48	1
187	219	1
165	172	1
97	115	2
238	241	1
5	44	2
227	235	1
149	190	1
23	115	1
121	121	1
170	190	3
220	234	2
78	184	1
147	227	1
46	204	1
80	90	2
213	216	1
46	93	1
234	235	6
230	232	1
49	101	1
167	189	3
7	42	2
30	34	2
101	103	2
196	197	2
192	195	1
36	153	1
118	169	1
42	170	1
178	199	2
56	59	3
31	32	2
192	196	2
83	236	2
71	82	1
101	113	1
60	67	1
198	233	1
20	34	4
207	223	2
157	160	5
171	187	1
156	223	2
74	106	4
152	172	2
208	234	2
97	238	2
117	196	2
86	119	1
27	117	1
62	179	1
167	171	1
69	82	1
51	83	1
157	197	5
14	158	1
188	236	1
114	196	2
214	231	1
88	97	1
154	160	3
15	22	2
173	196	2
202	235	3
68	73	1
198	201	1
19	32	1
1	12	1
87	101	1
201	224	1
51	55	3
62	105	3
232	243	1
85	230	1
110	234	2
10	94	1
176	180	1
63	181	1
87	182	1
215	237	1
0	1	2
80	85	1
157	181	1
75	115	1
162	167	2
193	222	2
64	180	2
108	175	1
214	217	1
42	47	2
176	178	1
202	205	1
88	244	5
181	224	1
7	48	1
168	189	3
26	120	1
165	203	2
94	100	2
239	241	1
204	228	2
144	203	3
162	242	1
80	95	1
211	237	2
53	113	1
164	193	1
181	225	1
48	60	1
230	233	1
34	49	3
11	26	1
15	26	1
28	205	3
79	103	1
154	176	3
49	74	1
173	178	2
14	30	1
169	176	1
19	113	1
52	62	1
4	59	2
209	221	3
164	167	4
45	73	1
58	83	1
159	186	1
38	41	2
204	236	1
96	220	1
179	192	1
8	62	1
233	245	2
6	59	1
112	213	2
65	113	1
109	202	1
4	6	1
7	20	1
156	171	1
32	34	1
48	59	1
244	246	1
214	236	1
111	119	1
74	86	1
156	227	2
94	214	1
54	204	2
198	229	4
63	75	1
12	22	2
50	171	1
231	232	2
25	92	3
68	76	2
73	90	1
241	247	1
158	165	1
221	224	1
12	18	2
86	157	1
26	31	1
19	112	1
220	221	1
101	104	1
26	32	2
196	212	1
170	195	1
233	236	2
167	169	1
5	6	1
33	36	1
105	108	2
65	83	1
50	56	1
31	33	1
67	86	1
161	189	1
184	210	1
84	104	1
176	219	1
79	84	2
187	195	1
174	244	1
205	246	1
26	115	1
153	214	2
93	104	1
158	164	1
75	100	1
7	17	1
84	236	1
97	180	1
146	150	1
64	97	1
90	111	1
76	100	1
95	220	1
2	64	1
62	99	1
182	193	1
14	40	1
211	222	1
59	78	1
146	226	1
104	106	1
37	87	1
91	93	1
212	214	1
166	233	1
156	197	2
46	104	1
86	213	1
87	100	1
95	101	1
112	247	1
57	60	1
174	192	1
28	61	1
93	229	1
62	66	1
65	112	1
63	85	1
153	182	1
193	213	1
43	45	1
68	221	1
113	116	1
27	151	1
75	165	1
154	201	1
28	117	1
157	183	1
144	149	1
203	205	1
92	94	1
158	181	1
