16	16	9
115	116	7
114	114	1
111	112	3
23	51	1
112	112	19
98	118	2
84	130	5
18	33	8
47	52	5
106	106	9
108	108	9
69	69	13
1	2	3
133	133	5
6	6	15
111	111	6
72	87	1
21	22	4
85	120	9
103	133	9
2	49	1
3	28	4
37	57	2
3	3	11
63	63	17
127	127	6
108	120	4
107	107	2
43	65	4
35	35	8
100	100	4
92	92	9
62	63	1
106	107	3
15	15	6
36	65	2
57	87	3
116	116	6
56	76	2
25	34	2
84	131	1
76	76	6
115	115	3
97	97	8
77	80	1
5	5	7
14	19	7
82	82	2
58	58	3
87	89	1
72	72	6
20	20	5
78	79	1
3	5	6
47	53	3
126	126	3
105	107	1
2	36	4
121	121	6
98	98	1
47	47	6
123	126	2
60	60	8
0	12	3
78	82	4
5	31	1
61	70	5
12	18	3
45	45	3
119	119	3
13	14	3
84	87	1
24	33	4
101	116	4
10	11	2
125	125	7
26	63	5
29	29	4
104	104	4
77	77	9
22	23	1
38	38	2
81	132	6
112	113	2
66	67	2
13	13	8
74	74	6
21	21	5
72	120	1
82	130	1
85	107	2
124	124	1
58	77	2
31	32	7
97	105	3
109	109	5
81	81	2
57	57	4
113	113	3
93	109	3
7	7	2
83	83	2
5	23	3
82	86	1
50	54	2
78	78	4
70	120	2
101	101	4
67	69	3
58	99	2
44	44	2
90	90	10
122	133	1
55	55	3
9	10	1
52	52	5
64	69	1
97	106	1
43	43	2
5	28	3
30	59	4
105	106	1
59	59	1
63	69	2
80	81	1
24	60	1
87	127	3
65	85	3
93	93	8
91	91	6
70	99	5
29	61	5
93	94	2
37	53	1
91	109	2
68	94	2
14	21	5
55	87	1
91	110	2
114	124	6
42	131	2
77	79	1
130	130	5
77	122	3
57	70	2
46	133	1
120	120	1
30	70	1
78	80	4
0	35	2
102	102	3
4	4	5
129	134	3
43	119	2
85	85	1
30	100	1
49	49	2
117	119	1
20	23	3
25	25	7
99	100	2
12	100	5
23	23	1
36	36	1
85	130	5
60	87	3
73	74	1
34	34	3
76	77	1
12	99	1
37	46	1
56	58	1
19	33	2
77	83	3
54	54	2
0	10	1
69	94	2
7	29	3
130	132	2
49	50	2
19	19	2
102	103	2
90	91	5
45	53	2
9	9	4
117	117	7
11	99	3
96	96	9
104	106	2
91	92	3
36	52	2
101	117	1
2	2	2
128	131	2
29	35	5
37	85	1
42	77	1
56	87	2
80	80	1
123	123	3
121	130	1
67	68	2
103	103	4
94	94	5
85	89	1
86	86	2
55	65	3
14	14	6
48	49	1
90	134	3
42	88	2
83	129	3
73	73	2
47	83	1
1	10	2
22	74	1
70	70	2
60	89	1
97	102	3
122	122	1
37	48	2
0	0	1
87	87	7
37	38	1
122	123	1
13	29	2
82	84	1
65	120	2
36	58	2
33	33	3
50	79	1
27	27	6
61	61	3
33	34	1
134	134	2
113	124	2
110	110	5
37	50	1
21	24	1
19	20	3
26	33	1
12	12	1
133	134	1
53	53	2
118	118	2
55	58	2
65	65	2
86	88	1
88	88	3
7	11	2
43	50	1
27	108	1
107	120	4
11	24	1
14	25	1
4	44	1
1	11	2
89	89	1
77	85	1
111	122	1
12	13	1
113	114	1
129	132	1
98	117	1
42	110	1
42	78	2
53	110	1
65	107	1
53	54	1
22	22	1
53	112	1
28	58	2
59	66	1
108	110	1
28	36	1
110	132	1
67	67	1
120	121	1
65	66	1
29	36	1
0	2	1
83	85	1
88	105	1
38	49	1
53	66	1
