16	17	3
36	37	8
7	8	3
35	35	14
18	18	17
12	12	39
29	29	21
81	83	2
10	10	28
110	111	9
18	75	1
35	79	2
77	77	10
128	129	8
6	7	3
13	13	17
6	6	8
115	116	3
102	102	9
136	138	4
110	110	7
19	19	14
94	95	10
131	136	5
86	86	19
105	106	2
120	121	11
3	3	16
78	78	14
17	75	6
27	27	14
114	115	6
139	140	2
133	133	15
95	95	15
71	71	14
137	137	8
21	22	7
129	130	9
131	132	6
114	114	12
20	20	16
12	15	1
25	25	13
4	91	5
123	123	7
111	112	13
0	0	6
127	127	14
121	122	9
1	3	1
24	100	2
85	86	12
97	97	5
11	11	10
81	81	35
109	109	7
84	84	10
17	19	6
35	97	4
89	89	11
101	101	7
74	75	5
30	30	14
94	94	13
76	76	16
87	88	3
4	5	4
90	90	11
116	116	15
103	104	7
1	1	3
81	82	3
19	24	2
9	75	2
106	107	7
88	90	8
9	9	8
15	15	14
134	136	2
112	112	12
106	110	2
31	31	13
19	20	5
27	29	3
5	5	13
91	92	5
119	121	5
25	26	6
4	4	9
106	106	7
80	86	4
122	122	4
93	93	14
31	32	11
113	114	3
8	17	2
94	100	2
6	9	4
27	32	6
87	87	10
77	82	2
111	111	16
72	72	13
36	36	7
88	91	7
118	119	4
75	76	5
99	99	8
28	28	5
113	115	2
28	29	7
108	109	5
4	88	2
22	24	5
6	27	1
129	129	9
82	82	13
17	17	11
135	136	4
122	123	8
80	80	10
8	8	7
14	16	4
23	24	1
79	81	4
22	23	6
76	85	4
104	104	16
107	107	8
37	37	11
136	136	13
78	80	2
6	8	6
5	73	4
121	121	15
117	117	17
118	118	3
105	113	1
34	34	15
80	81	9
0	3	3
93	94	7
130	130	6
124	125	5
113	117	3
14	14	7
14	15	2
131	131	6
23	23	5
76	87	4
92	92	7
134	134	15
32	32	4
96	96	8
140	140	7
124	124	10
5	89	1
85	85	15
112	113	6
22	22	13
27	72	2
134	135	10
83	83	23
103	105	2
102	103	4
7	7	14
35	78	5
35	100	1
116	117	4
34	96	10
71	72	11
5	6	3
75	75	9
80	82	7
132	133	7
77	87	5
0	1	2
1	88	2
74	76	1
103	103	21
125	125	3
138	139	4
37	80	1
25	34	1
99	100	4
33	72	8
138	138	10
77	86	2
9	10	2
73	73	3
4	87	1
105	105	7
107	118	1
21	21	7
101	102	3
72	74	1
26	27	2
2	2	8
98	98	4
125	126	1
115	115	11
108	108	9
68	68	1
8	9	5
98	99	8
2	3	1
11	16	4
44	44	2
98	120	2
37	38	8
74	74	7
30	31	3
38	38	7
33	33	10
5	87	1
17	18	7
127	133	6
82	83	1
18	19	1
104	118	1
119	119	4
5	77	1
114	116	1
84	85	4
71	74	3
91	91	3
135	135	5
9	74	2
33	34	1
13	14	6
79	79	6
88	88	5
126	127	6
6	25	1
34	35	2
13	16	1
132	132	9
113	113	2
108	110	2
97	98	2
123	124	2
24	24	5
6	26	1
24	27	2
130	137	1
85	87	2
26	26	5
38	79	2
78	81	2
11	15	1
24	25	4
19	21	3
11	12	5
107	109	3
128	128	5
86	87	1
73	76	3
100	100	8
118	120	3
109	110	1
5	33	1
34	100	2
102	112	1
117	118	3
26	34	1
8	25	1
102	104	3
105	118	2
104	107	3
9	76	3
93	99	2
1	87	1
20	21	1
18	32	2
8	10	2
15	17	2
16	16	4
7	17	1
100	112	3
90	91	3
91	93	2
3	4	8
104	105	2
120	120	3
83	85	2
29	30	2
73	87	2
139	139	1
22	27	1
32	104	1
104	108	2
26	71	1
1	89	1
36	79	1
101	120	1
65	88	1
35	95	1
89	90	1
0	90	1
11	84	1
4	95	1
120	122	3
25	33	1
23	25	1
23	33	1
96	98	1
93	101	1
100	101	1
7	9	1
34	99	2
32	71	1
25	72	1
105	114	1
73	74	1
134	138	1
