13	77	1
46	46	11
67	67	16
167	167	14
186	187	7
45	50	1
40	134	7
146	146	26
72	73	5
50	50	21
58	58	14
99	100	10
25	82	4
30	31	7
31	32	4
25	80	4
105	106	4
27	83	2
20	39	2
163	163	3
192	192	10
64	64	14
86	86	6
99	190	3
31	44	1
58	61	4
41	41	26
11	130	8
74	74	12
23	23	17
101	102	4
63	64	8
193	194	8
193	193	24
58	59	6
111	111	5
147	148	2
7	23	5
114	114	15
9	9	13
100	100	23
62	62	19
84	85	7
172	172	10
115	115	20
138	139	6
179	180	8
168	168	14
180	180	11
120	120	14
195	197	1
89	89	10
165	166	7
186	186	16
104	176	6
186	191	3
189	189	16
15	17	14
52	52	32
153	153	5
121	123	3
54	54	10
82	82	12
54	56	4
127	195	2
0	0	12
0	77	4
149	150	10
71	71	13
38	38	17
40	40	8
145	166	9
69	73	4
79	80	9
43	46	3
55	56	9
116	117	8
2	2	14
131	131	9
197	197	11
81	81	12
116	116	25
6	7	2
179	179	22
162	162	23
173	175	5
174	175	9
47	50	1
101	191	9
108	108	18
127	131	3
159	159	20
150	151	2
36	36	15
104	105	8
32	44	3
10	99	1
39	39	10
103	104	8
184	184	7
102	183	5
125	136	4
19	19	14
119	119	14
109	110	12
157	157	6
121	121	11
4	6	5
25	25	11
150	153	4
84	86	1
161	161	15
142	143	4
20	20	19
94	94	17
145	167	5
36	37	5
107	122	1
81	82	5
105	105	12
13	13	24
59	60	11
183	192	1
196	196	7
29	30	15
187	188	12
3	3	21
191	193	3
124	125	7
85	86	2
14	43	1
152	152	17
173	173	19
177	177	19
169	169	20
37	39	2
112	177	2
80	81	8
144	145	10
42	42	6
149	149	10
156	156	15
154	155	10
5	7	8
10	130	2
80	80	10
141	142	9
143	144	6
160	160	8
178	179	12
76	76	10
139	141	3
185	185	19
115	116	4
74	75	4
47	47	15
126	133	1
129	129	4
166	166	14
15	15	13
146	150	1
21	83	3
11	11	11
7	85	2
23	24	7
183	194	6
10	18	6
37	37	16
66	66	8
151	151	13
35	35	11
60	60	17
119	120	7
194	194	17
155	156	6
61	62	6
103	187	3
63	97	1
98	98	11
120	121	17
40	90	2
127	127	14
83	83	4
127	184	4
185	186	10
178	178	18
188	188	4
142	142	12
88	145	6
94	96	10
167	168	7
31	31	6
43	45	6
7	148	2
138	138	19
87	87	11
154	154	5
22	83	5
143	143	13
57	57	9
45	46	6
191	191	10
64	74	3
7	8	10
132	133	3
56	56	5
135	135	13
88	175	2
5	9	6
128	128	18
176	176	8
70	70	18
54	55	9
14	40	3
84	84	13
147	147	10
124	139	2
141	141	20
175	175	12
125	125	9
154	156	4
142	149	2
22	29	6
4	4	9
4	5	8
150	171	1
181	181	10
51	51	18
161	162	10
33	33	18
63	63	10
99	99	19
96	96	10
123	123	10
122	123	6
53	53	19
168	169	4
48	51	8
164	164	6
26	27	11
102	102	9
65	65	15
9	10	5
1	1	13
68	68	8
79	79	5
10	10	8
14	29	4
105	108	1
150	150	4
141	172	4
48	138	4
12	130	3
20	22	8
143	146	1
44	48	2
8	8	22
62	64	4
77	79	4
42	47	9
182	182	15
16	16	13
85	85	9
151	153	4
47	49	1
96	97	2
48	48	9
114	168	1
161	163	2
140	172	4
77	77	7
61	61	6
10	11	3
45	45	18
8	84	3
6	6	8
7	7	8
172	173	2
170	170	18
14	14	5
12	12	14
136	136	8
21	21	14
164	168	9
78	78	6
140	141	2
14	77	3
105	180	5
159	160	2
123	124	6
0	8	1
151	152	2
112	112	19
69	69	17
59	61	3
166	177	2
63	67	2
66	67	3
32	32	15
48	49	3
8	83	1
181	182	5
17	20	2
49	49	12
19	36	3
70	71	3
43	43	8
156	159	3
190	190	5
184	186	2
191	192	8
77	78	7
109	109	6
143	151	7
64	72	11
25	26	7
113	113	10
95	95	14
27	27	25
64	65	19
73	74	2
190	192	2
163	164	2
153	154	3
188	189	13
15	16	3
94	95	8
106	106	11
37	38	5
124	126	1
174	174	7
145	151	2
56	156	4
122	122	12
78	79	2
30	30	10
131	132	6
16	17	5
185	190	3
137	138	3
62	63	3
124	124	14
117	117	11
86	87	9
102	105	1
24	24	8
137	137	15
89	145	3
109	126	3
106	168	2
18	18	5
181	196	1
172	174	2
66	69	3
23	83	4
188	191	2
5	5	9
24	25	4
65	67	3
61	97	2
47	48	1
67	68	5
148	148	8
72	72	9
82	83	2
13	14	4
112	113	9
40	41	2
1	74	5
32	33	7
108	175	1
113	115	4
93	94	7
59	59	6
76	79	5
183	184	6
165	165	18
5	6	4
121	122	3
151	154	7
142	171	1
107	172	4
192	193	10
44	46	6
126	126	13
102	187	2
140	140	8
127	183	4
50	141	1
108	185	3
144	144	18
171	171	3
103	106	5
117	118	8
71	73	2
187	187	2
4	196	4
34	34	12
118	118	13
23	82	3
18	19	3
100	101	5
111	184	1
158	158	5
63	96	5
97	97	9
101	101	5
112	176	3
65	68	1
183	183	10
73	76	1
195	195	10
0	81	6
108	109	3
17	21	2
100	172	2
134	135	2
170	171	2
3	74	3
100	196	1
175	176	6
147	168	1
27	28	2
28	29	1
11	12	4
103	119	3
45	48	4
26	26	8
104	104	8
89	149	4
172	175	3
29	29	11
98	101	2
39	41	1
75	75	2
133	133	6
127	128	3
18	87	3
55	55	6
18	36	2
40	142	1
173	174	2
88	88	8
194	195	5
89	148	1
7	132	3
78	80	1
52	55	2
189	190	1
75	76	4
169	170	5
22	22	4
155	155	5
39	40	3
76	78	2
102	186	3
105	179	2
10	41	2
0	82	5
152	153	4
28	28	4
186	189	1
69	71	1
73	77	1
134	134	8
169	176	4
110	184	3
128	131	2
149	171	3
126	127	2
125	126	5
103	186	5
133	135	1
105	107	1
93	93	6
16	30	2
101	182	2
76	77	2
129	130	1
87	88	5
148	149	3
79	81	4
38	42	2
106	107	6
147	152	3
158	160	1
143	171	1
111	112	2
123	170	1
135	137	5
35	37	4
189	191	3
130	131	4
60	64	2
21	22	2
109	125	2
143	149	4
139	139	5
36	39	2
8	9	8
50	137	2
99	187	1
175	179	3
98	99	5
146	167	1
104	112	1
38	40	1
44	44	2
144	149	2
109	138	1
133	134	1
184	185	4
166	178	4
0	4	2
156	157	2
53	55	2
101	183	3
114	115	3
52	53	3
132	132	6
42	43	1
72	75	3
5	196	1
138	140	1
145	146	2
110	110	4
39	42	2
20	21	4
18	20	3
139	140	4
108	176	3
36	89	1
180	182	5
143	152	2
135	136	4
104	107	2
89	143	1
65	66	1
107	107	5
95	96	3
108	111	3
186	190	3
145	145	7
130	132	3
152	155	1
146	148	1
128	129	3
146	147	8
11	45	1
44	45	3
125	134	1
7	9	1
68	69	1
93	97	1
102	103	1
153	168	3
24	81	1
104	178	2
109	111	3
3	4	2
136	142	1
41	134	1
124	170	1
14	24	3
60	62	1
32	42	4
68	74	2
73	75	2
148	150	1
143	150	2
112	173	1
55	132	1
165	177	1
6	197	1
118	119	2
88	89	1
14	15	3
107	108	2
71	72	1
3	6	1
57	71	1
4	9	1
113	177	1
131	133	1
129	195	1
84	104	1
58	62	1
73	73	1
114	169	1
174	179	1
41	136	2
166	167	4
110	111	3
177	178	1
19	38	1
115	169	1
113	175	1
57	72	1
144	150	2
188	190	2
88	148	1
83	84	1
176	177	2
112	115	2
179	181	1
136	137	1
57	64	1
8	85	1
164	167	2
2	82	2
0	2	1
100	195	1
112	172	2
33	37	1
7	84	2
33	44	2
165	168	1
190	191	1
25	81	2
62	96	1
38	39	4
158	163	2
130	197	2
16	23	1
41	42	1
9	197	1
161	165	1
172	178	1
95	97	1
143	148	1
18	37	2
131	134	1
4	74	2
113	174	1
41	143	1
142	152	2
18	84	1
11	133	1
18	22	1
172	177	1
113	176	1
24	28	1
196	197	1
174	176	2
101	192	1
32	43	1
130	130	2
89	142	1
99	191	1
103	103	1
12	13	1
72	74	1
1	2	1
22	82	1
34	35	1
61	63	1
