107	111	1
6	6	6
89	89	26
104	104	11
25	26	9
7	7	16
111	111	8
108	108	9
26	26	14
127	129	1
106	107	2
5	5	15
33	34	5
122	122	9
99	99	13
117	117	11
107	114	1
9	117	1
123	123	12
89	90	1
138	139	2
131	131	13
95	95	10
36	37	10
139	139	3
11	24	2
74	74	7
17	17	7
76	76	6
117	123	1
135	135	21
97	99	2
8	9	5
96	99	2
11	88	1
140	140	11
116	116	15
15	19	2
21	21	16
5	26	2
19	19	9
128	128	13
75	114	1
8	8	9
109	109	7
115	116	5
94	94	14
3	3	10
20	20	6
136	136	8
107	107	6
72	72	14
73	73	26
76	77	10
118	129	3
107	108	4
113	121	1
129	129	13
137	137	16
90	90	19
85	104	1
120	122	1
31	31	12
30	31	3
71	71	10
71	117	1
11	11	11
98	98	18
96	96	8
86	86	13
14	124	5
93	97	1
35	35	20
8	15	1
129	130	6
113	113	9
91	91	6
107	110	3
125	128	3
2	2	6
116	118	1
12	14	6
71	72	3
1	2	3
121	121	11
0	0	13
1	1	8
18	18	9
118	118	2
23	23	13
13	124	2
133	133	7
110	110	8
130	130	8
14	14	13
78	84	2
22	22	8
25	25	11
17	18	2
28	30	2
73	82	2
114	114	5
10	10	12
13	13	8
138	138	6
84	85	9
88	109	5
24	26	1
132	132	18
29	31	2
103	103	12
114	115	8
125	125	13
130	131	8
117	120	2
81	82	2
85	85	9
79	79	6
81	112	1
127	127	8
74	75	8
15	16	1
72	73	2
119	119	17
28	28	7
76	84	1
30	30	6
13	14	4
12	81	1
117	129	1
24	24	5
114	119	1
21	22	2
27	27	8
105	105	9
97	97	12
10	12	1
93	94	4
112	112	9
73	84	2
31	32	5
83	83	5
82	82	7
33	33	15
100	101	4
116	117	7
108	109	5
29	29	10
92	92	6
19	21	3
100	100	12
34	34	11
75	87	2
32	32	5
9	9	7
113	114	1
134	134	12
16	17	7
11	12	1
115	118	3
8	24	2
119	128	3
14	15	2
15	15	7
15	20	1
97	98	4
3	5	1
93	93	9
118	131	1
102	102	3
110	111	5
78	78	4
3	27	1
109	114	1
87	87	3
4	88	2
9	79	3
102	103	2
12	13	1
75	75	15
30	32	1
9	10	2
95	99	2
110	112	6
133	135	1
99	102	5
80	80	11
23	24	8
37	37	9
86	88	7
6	7	3
23	25	1
106	106	4
119	121	3
75	102	2
110	115	2
87	90	1
11	13	2
32	92	6
15	18	1
124	124	8
85	86	2
81	81	14
77	77	5
10	85	2
101	101	14
108	112	2
37	94	2
92	93	2
117	118	2
27	86	2
10	87	3
123	124	5
126	126	3
96	97	1
6	79	3
14	26	3
76	88	1
5	23	1
105	106	3
109	110	3
16	32	1
104	106	1
119	126	2
91	95	1
3	98	3
86	103	2
18	19	7
66	81	3
83	85	6
32	37	2
4	6	1
15	31	2
12	12	6
38	38	3
3	26	2
2	5	2
134	135	4
15	82	2
104	105	2
29	30	1
72	117	5
128	129	1
2	3	3
74	115	2
101	103	4
82	84	2
24	25	4
94	95	1
93	109	2
88	88	5
0	2	2
16	16	8
88	89	3
29	34	2
123	125	1
97	100	1
115	124	1
71	74	1
7	9	1
14	27	3
121	122	1
29	32	3
16	18	1
22	23	3
21	25	1
1	4	1
3	4	2
83	111	3
4	4	2
0	28	2
98	108	3
77	123	1
76	87	4
76	81	1
35	88	1
98	100	3
116	121	1
28	87	1
80	81	1
76	85	1
104	112	3
2	12	4
28	29	1
36	36	5
105	108	1
16	19	1
77	116	1
8	23	1
71	122	2
124	125	2
8	18	1
6	19	3
9	78	2
21	23	1
94	96	1
75	77	1
79	127	1
79	81	1
102	127	2
72	74	1
98	107	1
111	112	1
90	104	2
120	120	1
139	140	1
15	29	1
87	89	2
86	91	1
110	133	1
92	108	1
72	103	1
4	5	4
11	78	1
20	23	2
103	104	1
27	28	1
36	38	1
116	123	1
108	118	1
6	8	1
10	11	1
11	14	1
7	8	1
5	22	1
36	98	1
