60	60	5
220	221	2
39	39	9
81	109	3
34	34	12
201	202	1
26	26	5
63	63	5
64	64	3
164	166	1
192	192	4
112	112	3
199	200	1
89	110	6
154	156	2
41	43	7
104	106	1
204	204	7
67	67	6
187	188	1
48	48	9
181	181	4
183	184	2
1	1	2
4	4	1
239	239	2
68	68	7
99	102	2
193	193	6
147	147	2
112	146	5
162	162	3
225	225	5
91	92	2
233	233	6
218	221	1
46	46	5
31	32	3
168	187	5
231	231	2
21	21	3
248	248	12
211	211	6
243	243	4
154	154	5
79	79	5
245	245	3
196	212	2
8	9	6
240	240	7
227	228	4
7	7	4
112	114	1
197	197	5
18	18	6
235	235	2
175	175	3
6	6	10
217	220	1
120	120	2
31	31	5
172	172	5
207	244	2
90	90	5
206	206	12
119	162	3
242	242	4
178	178	1
100	101	2
25	25	5
209	209	9
85	86	3
58	63	1
218	218	4
159	159	3
191	192	3
193	194	4
215	215	8
199	199	2
156	156	9
92	151	1
78	78	2
96	97	2
201	201	11
119	207	2
11	16	2
168	178	1
185	194	1
77	77	3
166	167	4
97	241	1
29	29	8
60	61	5
89	89	4
151	151	3
99	99	5
212	213	11
91	110	3
82	84	3
22	22	3
166	166	2
87	88	2
197	198	2
101	101	1
92	203	2
38	38	3
96	96	7
119	119	2
71	71	4
241	241	2
98	98	4
16	16	4
211	212	1
58	58	1
92	93	4
237	237	1
157	157	1
56	57	3
55	55	1
214	242	4
56	56	7
53	53	2
218	248	1
211	213	1
145	145	5
152	152	1
58	59	3
169	170	2
207	207	3
21	24	2
198	198	2
210	210	2
219	219	3
116	116	5
95	97	3
54	55	3
37	37	6
150	150	1
212	212	4
105	108	2
88	88	6
73	73	1
79	104	2
42	42	3
78	144	2
169	169	4
231	232	4
84	84	1
94	94	2
176	176	2
92	204	5
59	59	6
88	168	1
26	45	5
181	212	2
20	21	3
225	226	3
68	70	4
171	179	4
5	5	4
245	246	1
163	164	2
82	109	4
185	185	2
88	89	2
246	246	9
49	50	1
113	203	2
107	108	1
9	9	1
75	76	6
33	33	5
183	183	2
104	104	8
165	166	1
217	217	3
8	8	1
232	233	1
164	168	1
48	50	3
79	87	4
95	211	2
173	173	1
5	18	2
65	65	5
189	189	5
161	161	1
12	12	3
234	234	1
197	200	1
233	236	1
74	74	1
70	70	2
118	150	2
89	111	1
3	3	1
184	184	4
70	73	1
18	19	1
208	209	2
229	229	3
194	195	4
91	204	3
24	24	3
41	41	2
14	15	4
200	201	2
247	247	1
164	164	2
20	20	2
82	82	1
91	91	3
167	167	2
232	232	5
163	163	1
233	234	1
158	158	3
111	114	2
227	230	1
23	23	4
168	168	3
228	228	1
171	171	2
118	118	1
184	186	1
186	186	2
191	191	1
72	72	4
36	36	1
23	26	1
106	107	2
209	247	3
219	238	1
224	224	1
69	69	1
187	187	1
226	226	2
178	179	4
21	22	1
97	98	1
174	199	1
230	230	1
110	110	3
14	14	1
66	66	1
105	105	1
169	181	1
97	97	1
30	30	4
44	44	1
83	84	2
54	54	1
194	194	3
170	170	2
43	43	1
17	17	1
71	72	1
214	214	1
81	84	1
200	200	3
47	49	2
92	92	1
223	226	2
94	242	1
101	102	2
168	169	2
15	15	2
5	6	1
220	234	2
188	188	2
235	236	1
95	95	1
232	237	1
52	52	1
213	215	2
28	28	2
62	63	1
185	186	1
85	88	1
213	214	1
98	184	1
32	32	1
50	50	1
10	10	1
40	40	1
28	29	2
160	160	1
195	212	1
115	115	1
172	173	1
221	221	1
193	201	1
189	190	1
177	177	1
100	100	1
153	153	1
80	81	1
155	178	1
94	241	2
244	245	1
42	43	1
229	230	1
205	205	1
