81	81	6
142	142	2
149	149	8
105	105	10
53	53	5
129	130	5
29	30	3
44	44	5
109	112	3
185	185	7
109	153	1
150	151	1
84	84	10
153	153	9
158	158	6
234	236	3
5	5	6
101	101	3
206	206	7
7	7	4
213	213	3
123	124	1
100	101	1
49	49	6
86	86	7
207	212	1
151	151	2
122	122	5
18	18	4
188	197	2
134	134	1
51	51	2
58	58	1
217	217	2
219	219	3
121	128	2
236	236	2
55	61	6
155	155	5
138	138	1
4	4	3
104	105	1
122	124	3
206	233	2
187	198	4
9	12	3
13	13	7
215	215	7
173	181	6
39	50	3
188	188	6
139	139	5
216	216	2
76	119	3
185	188	2
67	67	4
175	175	4
132	133	3
120	138	3
228	230	2
35	36	4
186	186	5
78	78	4
113	180	1
79	80	2
71	76	3
217	220	2
83	83	3
54	54	3
214	224	1
148	149	2
113	113	5
50	51	2
26	242	1
237	237	2
54	55	1
12	56	3
112	176	3
205	236	1
65	78	3
71	71	4
205	205	5
218	218	5
222	222	4
229	229	6
17	17	1
181	181	4
69	69	4
209	221	1
231	231	5
163	196	3
233	233	3
27	27	1
14	15	3
160	166	4
71	72	2
221	221	2
224	224	3
199	200	5
171	172	4
129	182	1
61	61	7
15	16	2
8	9	3
141	141	3
31	31	1
81	83	2
202	202	2
24	24	8
32	32	7
42	42	2
193	193	3
128	128	2
182	182	2
145	161	3
102	102	5
121	122	4
33	34	1
23	24	2
177	178	4
140	147	2
125	125	4
179	182	2
82	84	5
99	99	1
73	73	7
134	206	4
30	95	1
191	191	4
228	228	5
144	147	2
162	162	2
100	100	8
37	38	3
147	147	2
105	106	2
76	77	2
192	192	3
98	98	2
207	222	1
80	84	2
19	19	3
33	89	2
236	237	1
6	7	4
201	201	1
1	3	2
66	66	7
5	7	1
4	60	2
228	232	7
143	143	3
190	203	4
220	220	2
196	196	2
144	144	6
209	209	3
55	55	9
100	111	3
162	186	1
37	37	1
33	33	4
122	123	1
206	207	3
97	97	7
160	160	1
60	60	7
48	48	3
28	54	1
64	65	7
0	0	3
223	223	4
130	201	1
144	145	2
116	117	2
182	183	2
69	139	1
120	121	3
180	182	3
126	126	7
102	129	1
164	167	3
184	184	8
48	59	2
139	178	1
23	66	1
140	141	1
66	119	3
60	182	5
158	168	4
27	242	1
40	127	2
199	199	5
185	193	1
3	32	1
26	26	4
113	176	1
44	45	1
134	135	1
111	112	1
183	208	1
171	171	2
119	119	5
15	15	2
40	102	2
175	235	2
39	39	5
34	34	4
217	218	5
155	159	2
40	40	5
109	130	1
234	237	1
21	21	1
193	194	4
136	198	2
36	41	2
214	214	4
211	211	3
129	201	4
29	29	2
59	59	1
185	186	2
9	9	3
36	37	1
241	241	3
56	182	1
191	192	4
14	14	3
162	167	1
131	224	3
72	76	2
240	241	1
80	80	5
109	109	3
1	232	2
124	127	3
51	84	1
123	154	1
21	24	1
118	123	1
162	196	2
6	6	2
232	242	3
12	12	4
37	61	1
241	242	4
220	222	1
104	104	2
134	208	2
83	84	5
2	2	2
115	128	3
227	227	2
22	23	3
124	125	3
186	187	2
29	96	1
3	194	5
52	52	4
80	81	2
12	57	2
114	177	1
22	65	1
10	10	1
18	73	2
108	124	3
209	210	1
28	28	1
178	188	1
116	116	5
43	43	3
179	183	2
150	154	4
187	195	1
180	193	4
127	128	3
137	137	3
32	89	3
62	62	3
140	140	3
210	210	3
212	213	2
67	72	1
179	179	8
69	70	5
169	169	1
167	189	2
70	71	2
118	118	4
95	96	1
35	41	1
142	193	1
211	213	2
174	181	1
213	229	1
198	198	2
39	123	1
234	241	1
239	239	2
209	213	1
223	224	2
234	234	4
111	111	3
217	236	1
213	221	1
183	191	2
161	161	4
121	121	1
54	62	3
63	63	2
74	74	2
177	177	4
123	123	4
95	95	5
165	174	3
238	238	1
9	232	3
52	53	2
21	67	3
66	67	2
23	23	3
136	136	1
95	128	2
137	152	1
127	127	1
103	103	1
212	226	2
156	157	1
232	233	2
137	138	1
88	89	1
216	229	1
159	171	4
183	195	2
194	194	2
85	85	2
68	69	2
156	164	2
54	69	2
86	88	1
98	99	1
33	38	1
218	236	3
5	6	1
57	58	1
32	33	1
235	235	5
56	57	2
145	146	2
112	182	1
226	226	2
210	213	3
117	117	4
77	77	1
98	104	1
128	181	3
66	155	1
99	102	3
44	53	1
46	46	1
181	182	2
178	178	2
68	140	1
30	30	2
106	106	1
208	211	1
53	81	2
42	218	2
239	240	2
200	201	3
24	26	1
38	38	4
145	166	1
123	127	3
75	75	3
211	220	2
70	70	1
145	145	1
173	174	2
114	114	2
29	31	3
131	150	2
214	226	2
174	174	2
208	208	2
11	14	2
106	166	1
107	107	1
109	131	1
236	241	3
154	156	1
18	19	1
20	20	4
174	184	1
107	164	1
35	35	3
44	76	1
189	189	1
72	72	2
164	190	2
47	47	2
31	91	1
61	233	2
200	200	2
108	140	3
148	175	1
50	50	4
187	188	1
13	152	1
31	33	2
118	119	1
149	151	4
11	11	1
150	150	1
119	155	1
40	41	1
155	157	3
81	82	1
53	68	1
167	167	2
157	203	1
132	134	1
185	216	1
146	146	2
144	200	1
143	151	2
99	125	2
0	1	2
210	211	2
172	172	1
124	124	1
191	235	1
60	61	2
168	169	1
237	238	2
77	78	1
212	212	1
12	13	1
76	76	1
173	173	2
41	41	1
163	165	2
180	183	1
16	17	1
186	200	1
135	202	1
17	18	1
26	116	1
1	1	2
10	62	1
2	67	2
135	137	1
84	85	2
153	154	1
113	182	1
165	165	2
235	238	1
225	225	3
101	124	1
104	106	1
9	10	1
180	180	1
28	29	1
107	160	1
19	73	1
170	170	1
25	25	1
22	24	1
199	201	1
86	87	1
132	136	1
164	164	1
120	173	1
207	207	1
64	64	1
6	227	1
22	67	1
134	183	1
219	225	1
209	214	1
22	22	1
168	168	1
158	159	1
114	115	1
11	71	1
