1	28	1
10	10	5
34	34	17
85	85	11
133	133	11
15	19	1
48	86	3
15	16	7
78	79	4
47	101	2
105	105	21
60	87	2
73	74	1
35	36	2
73	73	15
9	103	1
49	52	3
134	134	11
71	71	9
107	107	9
48	48	7
30	101	3
25	25	21
93	109	1
68	69	4
25	27	4
93	94	2
113	114	11
117	120	1
2	16	1
1	1	16
85	89	1
77	77	23
111	111	14
43	43	13
121	121	10
45	110	3
6	113	1
64	64	9
5	133	2
105	110	1
3	3	24
27	102	3
80	117	3
69	129	1
120	120	17
66	66	14
110	123	2
122	122	28
98	130	2
19	19	20
110	110	9
1	2	8
128	128	19
71	80	4
51	61	1
114	115	10
112	120	5
2	2	9
28	42	2
45	52	2
70	94	1
128	134	4
80	106	3
61	61	13
55	55	9
58	58	9
63	134	2
116	116	17
62	62	11
70	76	2
32	32	15
89	90	14
27	43	5
93	95	15
36	36	17
78	83	1
54	54	7
60	104	4
45	64	4
73	76	5
127	128	8
119	119	3
84	120	2
73	115	2
63	63	11
106	106	10
69	69	19
4	4	17
89	89	7
31	34	6
109	130	6
97	97	18
24	24	7
27	30	1
37	37	10
70	133	3
82	82	3
45	115	1
63	132	3
109	109	16
56	58	3
56	56	14
64	109	1
101	101	6
22	59	3
29	102	1
118	118	16
1	23	2
97	108	2
14	14	16
80	92	3
0	17	2
57	117	2
70	70	11
60	106	1
102	102	17
58	63	4
31	44	3
100	100	13
43	45	5
93	93	26
18	22	3
6	133	1
15	15	6
88	90	9
127	129	8
3	99	3
3	6	3
85	86	9
1	3	2
108	108	8
6	7	4
100	112	3
2	96	2
92	97	1
82	83	10
62	63	10
77	94	3
74	76	4
0	0	12
107	108	4
122	127	5
47	47	3
108	109	14
107	132	5
26	26	8
21	21	11
65	65	16
19	114	4
27	27	13
107	125	5
11	102	4
78	121	1
61	130	2
67	67	2
130	130	9
32	36	2
91	91	24
5	101	1
27	134	6
16	16	14
12	12	16
116	117	9
35	35	19
122	123	8
97	111	2
83	112	1
112	125	2
84	84	21
49	82	2
103	103	13
83	83	5
4	6	5
126	126	11
113	113	8
4	102	2
74	74	31
77	79	2
129	129	7
72	72	12
60	60	11
3	97	2
9	25	6
13	33	1
116	127	2
65	66	3
7	7	11
45	47	3
30	37	2
9	79	3
48	90	1
28	29	7
38	116	2
15	61	4
109	125	4
96	99	4
28	28	14
125	127	8
84	86	1
94	94	19
113	124	6
31	130	1
9	9	12
7	10	6
35	122	3
13	18	7
60	79	2
59	118	2
43	102	1
29	32	1
97	134	1
6	6	9
50	74	4
58	59	1
104	123	1
76	76	16
92	92	5
61	119	5
93	108	6
126	131	2
53	58	2
6	8	2
45	68	1
44	56	3
131	133	2
49	49	3
35	123	6
30	50	2
49	117	1
106	112	5
84	118	3
92	134	7
33	34	12
12	44	4
73	79	5
52	58	2
45	62	4
90	120	1
56	134	1
37	38	5
28	30	2
132	132	12
75	79	10
32	66	7
64	85	2
106	125	1
79	118	3
75	75	4
60	88	3
80	80	15
44	101	1
17	18	6
65	67	6
76	84	3
80	105	3
104	104	11
79	79	12
114	117	4
26	27	3
115	115	9
113	126	3
76	82	4
117	117	10
6	23	2
54	117	2
54	56	3
30	115	2
8	17	3
81	102	4
127	134	1
114	114	17
52	54	7
5	5	9
53	53	7
22	24	3
107	113	1
30	31	2
95	98	1
121	127	2
32	34	1
133	134	2
81	91	4
24	27	6
80	109	3
125	125	17
47	51	4
42	42	2
3	73	4
79	114	3
86	86	9
57	105	1
19	20	3
65	68	3
120	121	10
23	23	6
49	50	10
109	132	1
29	29	13
83	88	4
63	74	3
22	63	2
4	96	2
82	114	1
106	124	3
83	85	3
31	31	12
102	107	6
76	79	1
62	129	5
20	20	11
90	90	15
81	87	3
7	8	4
45	50	4
5	50	1
119	120	7
56	67	2
95	104	1
99	99	10
27	116	2
91	106	2
72	89	6
123	123	17
7	25	2
55	57	1
6	114	3
68	68	15
30	32	3
26	29	2
77	78	13
8	15	3
105	117	3
53	85	2
49	63	1
88	88	6
44	44	7
34	122	1
5	62	3
99	100	6
45	45	4
77	126	3
6	15	2
84	111	8
93	107	1
70	116	1
31	105	3
59	59	7
110	112	1
43	44	4
9	113	2
99	105	1
26	30	5
111	133	4
51	51	2
124	129	6
2	25	2
124	125	4
88	89	5
20	37	1
115	128	2
50	50	10
79	82	1
130	131	8
5	37	4
127	127	10
49	62	5
33	35	2
72	75	1
30	52	2
68	74	1
63	73	1
18	37	1
81	88	1
34	35	6
18	21	2
60	61	6
94	95	3
57	57	8
92	94	2
122	125	5
129	134	1
72	126	2
44	83	2
78	78	4
80	82	4
44	50	6
96	96	7
10	101	1
10	14	6
131	132	6
79	80	4
28	113	8
31	36	3
7	101	2
3	132	1
106	121	4
25	57	5
87	110	2
21	55	1
65	109	1
85	117	2
33	33	5
25	26	4
132	133	10
87	87	18
44	46	2
79	120	1
11	11	6
115	116	5
43	129	2
123	124	5
5	42	1
61	129	4
54	82	4
95	95	12
31	32	1
5	10	2
67	69	4
81	81	4
119	121	3
30	30	12
95	96	6
84	85	5
2	50	6
67	80	4
98	98	15
8	8	6
65	81	2
61	131	1
20	86	5
91	92	7
14	24	2
20	21	6
7	9	4
70	83	2
10	25	3
86	87	4
128	132	2
50	64	1
13	55	2
113	134	3
44	45	7
10	111	1
112	112	12
101	112	4
45	102	3
22	23	7
18	18	3
85	96	1
121	122	2
79	89	1
0	44	1
48	124	2
7	11	4
53	115	2
100	101	1
48	89	5
10	44	2
66	68	2
66	71	1
63	67	2
44	68	5
52	52	3
12	23	2
49	83	1
126	127	5
43	59	1
106	107	2
76	77	6
76	94	1
16	17	5
103	122	2
38	103	2
13	13	11
0	31	1
78	127	4
6	97	1
32	68	1
10	26	2
106	108	2
72	125	2
1	6	1
126	133	1
17	60	2
3	13	2
29	30	5
39	39	2
83	119	2
84	108	3
124	124	6
5	38	2
70	82	1
102	103	1
4	55	1
97	98	4
74	82	4
89	96	5
54	57	4
91	107	1
79	112	8
102	131	2
50	73	1
44	132	1
97	109	4
17	61	1
28	32	1
93	106	2
92	93	3
13	15	3
16	33	2
43	62	4
72	128	4
96	97	2
59	62	1
6	16	2
34	125	2
4	23	1
5	113	2
21	85	1
22	22	4
43	53	4
10	112	1
48	85	4
55	83	3
24	103	3
36	38	3
17	37	1
102	111	2
10	11	3
112	114	1
108	110	5
56	57	3
0	32	3
66	67	1
7	14	5
4	5	2
53	56	5
23	27	2
113	115	2
130	132	5
27	97	1
67	73	1
131	131	6
15	31	1
106	111	4
16	114	1
32	33	4
88	91	1
101	102	1
9	11	4
111	126	2
75	76	3
43	119	1
86	130	2
50	108	2
83	117	3
62	64	6
13	34	1
71	75	2
2	6	4
92	121	1
98	135	1
8	43	4
61	70	1
55	118	1
27	62	1
3	38	2
61	87	5
123	131	1
52	83	2
91	96	1
17	35	3
73	98	2
78	118	1
38	38	3
73	75	1
104	105	1
83	86	2
52	89	7
79	92	2
130	134	1
56	133	3
75	83	1
16	31	1
62	70	3
57	133	1
91	110	2
8	100	1
80	81	3
117	118	5
58	134	3
34	56	2
52	76	3
7	32	1
9	52	3
30	135	1
4	24	1
16	20	1
80	88	1
17	30	3
26	103	2
105	129	1
82	85	2
45	106	2
17	17	4
60	62	3
82	119	2
22	37	2
84	88	1
8	29	2
64	89	1
92	107	2
127	133	3
99	101	2
77	82	3
60	105	1
14	16	1
83	110	1
31	37	1
83	99	2
3	4	4
34	36	1
81	92	3
113	125	2
90	93	2
47	58	1
33	109	2
24	42	4
10	15	1
61	106	3
29	60	1
5	102	2
108	125	1
12	55	1
0	12	2
5	22	1
112	115	2
60	89	1
1	50	2
76	90	1
105	106	3
63	66	2
56	76	1
112	131	2
77	80	1
44	47	1
112	123	4
13	14	1
28	105	2
12	18	1
32	73	3
72	124	1
49	53	1
76	95	2
66	86	3
9	10	4
98	99	1
22	44	2
10	53	1
25	50	1
113	123	2
43	99	1
20	22	2
33	84	1
29	103	3
105	109	3
16	18	1
19	85	1
4	42	2
66	74	1
4	78	1
100	134	2
21	52	1
66	85	1
91	93	1
21	103	1
37	85	1
57	77	3
106	123	1
108	113	1
91	103	1
88	93	3
28	92	1
128	129	2
47	86	1
12	56	1
56	74	2
14	15	1
31	102	1
95	133	2
19	21	4
42	126	1
115	125	2
102	112	1
88	94	2
106	132	2
21	22	2
14	20	1
53	79	3
42	101	2
25	31	1
9	102	1
105	118	2
16	32	1
99	135	2
18	20	1
105	130	3
20	115	2
19	30	1
61	105	1
109	110	1
28	37	1
1	22	1
53	88	1
42	116	1
123	126	1
75	123	2
69	70	2
53	117	3
8	96	2
53	122	4
124	128	1
43	121	1
33	128	1
23	44	1
63	65	1
24	25	1
13	57	1
7	24	2
61	62	2
6	112	1
9	14	1
120	134	1
55	58	1
98	115	2
130	133	1
104	109	1
30	132	1
111	112	1
70	114	1
12	19	1
1	57	1
43	60	1
108	131	1
43	101	3
13	31	2
106	129	1
95	101	2
23	64	1
112	127	1
62	116	1
50	52	1
29	62	2
77	86	1
84	89	1
20	31	2
43	110	1
56	125	1
86	89	1
46	46	1
27	107	1
125	133	1
103	104	1
28	114	1
72	96	1
11	66	2
72	127	2
64	65	1
96	116	1
33	134	1
77	95	1
122	133	1
29	114	1
23	76	1
75	84	1
69	78	1
70	71	1
91	118	2
51	82	1
118	131	1
70	128	1
62	118	1
53	119	1
60	117	1
86	91	2
114	126	1
78	90	2
68	91	1
5	63	1
52	53	1
65	93	1
123	133	1
76	80	1
44	108	1
97	104	1
118	119	1
7	16	1
