65	65	21
110	110	17
64	64	7
72	120	2
35	36	7
81	81	12
8	8	11
113	117	3
21	21	13
122	122	13
13	14	2
43	43	6
105	105	6
5	5	12
34	34	13
129	129	5
69	70	3
7	15	4
41	114	7
115	116	9
89	90	2
14	15	1
64	65	8
82	83	10
58	58	12
12	12	6
93	113	2
108	109	1
6	15	4
6	6	7
92	92	6
22	23	5
24	24	12
130	130	2
46	117	1
109	110	7
83	83	5
97	97	4
94	101	6
37	38	2
121	121	9
116	117	7
23	25	6
76	120	1
66	66	6
31	31	3
15	15	9
101	102	6
103	104	8
118	119	3
33	33	8
84	84	5
133	133	6
95	95	6
122	123	3
7	7	8
78	78	14
83	84	1
2	2	6
71	119	2
128	129	6
65	68	2
25	41	5
103	103	7
20	20	9
82	82	13
58	59	7
73	74	3
131	132	4
55	55	5
9	9	4
94	94	8
61	61	7
77	77	5
41	41	9
81	83	4
46	116	1
124	124	10
123	123	12
22	39	2
35	35	6
30	35	1
48	90	1
91	91	6
98	99	7
125	126	2
6	16	2
68	68	14
96	96	5
98	98	3
15	16	6
22	22	8
9	10	14
73	76	2
104	104	10
48	93	6
11	11	4
128	131	2
81	82	2
16	16	6
46	46	9
108	108	11
83	88	4
4	4	5
89	89	3
120	120	6
56	60	5
73	73	13
95	101	3
36	36	18
63	63	12
92	109	3
68	70	7
39	39	1
18	18	3
90	114	5
57	58	7
5	18	3
71	71	10
32	35	1
14	14	8
75	120	1
125	125	5
34	35	6
45	45	9
115	115	6
47	47	6
90	91	1
109	109	8
57	57	9
87	114	2
114	114	12
19	20	1
28	30	1
68	69	5
36	38	2
86	86	7
82	88	1
123	124	4
79	79	17
56	56	6
42	42	4
128	128	9
77	118	2
37	37	4
28	28	5
35	38	2
18	86	3
70	70	7
0	0	11
6	7	5
78	80	2
101	101	3
55	56	3
69	69	6
48	89	2
117	117	8
7	8	4
60	61	3
112	112	7
86	87	1
62	129	6
32	32	7
55	100	1
124	125	8
38	38	2
97	134	2
17	17	8
110	134	4
56	107	1
48	92	1
113	113	5
2	3	1
80	80	10
27	40	1
15	17	1
113	129	2
119	119	12
22	24	3
11	12	3
93	110	2
29	29	3
59	59	5
12	95	1
62	62	7
11	13	1
1	1	8
87	87	3
23	78	2
21	40	1
118	118	2
23	23	6
14	50	1
102	102	2
40	78	2
24	25	2
42	114	2
41	79	1
40	40	7
102	103	1
20	21	9
19	19	1
72	72	2
36	37	3
90	90	4
96	101	7
112	113	1
127	131	1
81	88	2
60	60	4
43	117	1
88	88	3
44	46	1
110	111	1
107	107	2
80	87	1
2	45	2
77	84	4
67	67	1
23	24	3
94	95	3
61	62	2
12	14	4
18	19	2
44	44	2
56	109	5
83	87	5
30	30	1
67	68	3
126	130	6
24	72	1
3	3	16
106	106	6
109	133	5
56	108	1
33	36	2
100	102	3
12	13	2
96	99	1
110	132	3
90	115	3
23	80	1
116	116	5
21	22	2
93	96	2
13	13	7
79	80	3
24	79	2
134	134	6
42	115	1
61	130	1
25	25	3
105	107	1
58	60	2
71	75	3
10	10	4
38	39	1
94	96	3
126	127	2
27	27	2
30	31	1
57	106	1
99	99	6
104	105	1
41	80	1
4	5	1
73	125	1
75	75	4
78	85	1
96	98	1
126	126	6
127	127	6
93	94	2
88	114	1
39	40	1
132	132	1
71	72	2
111	111	2
83	118	1
75	76	1
26	26	4
120	121	1
40	41	1
7	16	1
41	42	2
83	85	1
83	86	1
5	15	1
25	79	1
40	79	1
110	131	3
91	92	1
22	40	2
113	114	2
10	13	2
14	55	1
79	85	1
24	78	2
85	87	1
1	2	4
93	93	1
63	69	2
41	82	1
74	125	1
114	115	1
119	120	2
28	29	2
71	73	1
33	34	1
64	69	1
14	90	1
85	85	2
76	76	1
102	106	2
27	28	1
23	81	1
78	79	2
127	128	1
26	40	1
29	30	1
61	133	1
15	55	1
89	115	1
59	60	1
47	89	1
25	80	1
32	36	1
70	71	1
43	44	1
23	79	1
1	45	1
84	85	2
76	77	1
92	111	1
111	127	1
129	130	1
65	66	1
10	45	2
