120	120	3
84	113	4
1	167	5
12	13	1
88	90	4
171	171	11
138	145	1
33	44	3
24	24	3
106	109	5
30	35	5
106	117	1
56	56	7
46	46	8
121	121	3
42	42	7
107	107	7
5	8	3
32	32	5
153	173	1
168	168	2
108	121	1
141	157	2
99	103	2
124	124	4
81	102	1
115	118	2
73	85	5
52	56	3
149	162	1
17	19	8
142	155	6
65	65	6
138	138	9
54	55	6
31	123	3
112	115	1
60	60	5
53	55	9
126	126	2
18	19	1
110	118	6
26	27	3
62	82	1
36	36	3
13	18	1
178	178	3
102	104	3
55	55	8
35	35	5
64	79	2
133	153	4
71	71	5
152	170	2
116	116	7
163	163	6
22	46	4
2	2	2
24	30	1
80	80	3
177	177	8
57	62	1
124	161	4
3	3	3
122	122	4
135	147	7
157	160	3
104	104	3
28	42	1
120	122	2
148	148	3
154	154	3
61	63	9
60	67	2
151	155	2
122	123	2
94	97	5
109	171	2
127	128	4
123	123	6
125	137	4
129	146	3
143	143	12
58	58	9
106	108	2
35	40	5
52	119	1
156	169	1
105	106	2
106	107	4
152	154	8
162	179	3
23	28	4
3	23	4
73	114	2
172	172	6
24	36	3
54	65	2
141	142	5
6	21	1
64	113	3
10	18	3
171	173	1
84	85	4
122	124	1
158	158	2
45	45	4
61	61	2
131	144	5
164	164	9
15	16	8
76	76	7
91	91	5
25	33	3
66	72	2
108	128	3
101	116	3
59	83	2
5	7	6
8	9	4
56	57	4
27	27	8
2	8	2
113	113	10
64	82	2
114	121	3
16	35	2
0	0	3
150	154	1
99	100	5
67	67	3
88	88	3
162	164	1
176	176	3
147	154	1
53	109	1
148	151	4
42	43	5
60	74	1
62	65	1
1	33	1
18	33	2
102	102	2
136	170	2
137	137	7
157	161	2
110	110	3
85	99	1
41	41	2
79	81	3
75	113	3
85	85	3
156	174	3
101	101	1
172	176	3
4	12	3
108	108	4
119	140	2
145	163	1
115	117	4
18	18	5
175	175	1
119	119	5
65	79	1
14	14	2
12	29	5
66	68	5
90	90	2
51	67	1
107	108	2
146	154	4
40	40	5
64	67	1
7	7	2
129	129	3
49	50	5
91	92	3
130	134	3
128	148	1
153	168	1
99	99	4
112	117	5
57	58	1
16	22	3
120	136	1
50	51	1
63	85	1
70	70	3
84	84	1
108	123	3
16	16	7
38	43	2
155	155	4
138	171	3
57	57	5
120	121	3
10	12	2
152	152	4
10	10	4
13	13	5
51	111	3
86	87	2
81	113	3
26	77	3
31	31	3
150	150	8
73	84	1
124	154	1
112	114	2
13	14	3
145	145	2
91	93	4
38	39	4
117	117	4
169	169	4
141	141	4
130	130	3
97	97	4
132	149	2
31	36	3
15	15	6
30	30	2
22	22	6
88	172	3
14	35	1
84	92	1
58	104	2
170	170	8
148	163	2
152	158	1
139	139	3
90	93	1
131	132	1
142	143	3
112	112	2
119	120	1
167	167	2
81	89	2
175	179	5
65	82	2
144	144	3
53	67	2
20	20	4
63	63	4
106	106	2
78	78	3
8	11	1
118	143	2
79	79	4
11	13	3
162	165	2
7	27	1
30	31	4
125	140	1
159	160	1
131	142	3
146	179	1
113	115	2
97	115	4
136	136	2
144	163	2
19	32	4
63	72	1
167	169	2
66	66	1
5	6	2
50	62	1
59	63	1
95	172	1
136	146	3
54	70	1
170	172	1
111	111	2
31	125	3
135	135	2
3	97	1
147	147	4
81	174	3
180	180	3
76	93	2
110	111	5
173	176	1
24	29	1
128	128	2
138	139	2
74	93	1
150	160	3
61	66	1
77	77	1
19	19	2
128	136	1
15	21	1
51	61	1
108	109	1
50	65	3
125	141	2
57	111	1
24	25	4
165	165	1
129	137	2
146	148	1
174	174	3
52	53	1
159	159	2
52	112	2
67	80	1
140	140	1
6	24	1
54	57	2
116	117	2
76	82	1
6	9	3
25	39	1
114	114	4
99	102	3
90	130	1
5	12	3
57	109	4
158	159	1
64	64	2
44	44	2
54	71	1
64	71	2
23	23	1
151	154	1
105	105	1
37	37	4
153	153	1
161	163	2
9	9	3
128	132	1
157	175	1
170	174	2
68	71	2
125	149	1
142	145	2
30	46	1
131	151	3
157	159	2
134	134	1
4	102	1
127	127	8
161	170	1
73	83	1
25	25	2
80	98	2
9	20	3
75	89	2
86	90	1
92	110	2
12	12	1
133	136	4
5	5	1
92	103	1
26	26	6
53	53	5
4	7	2
179	179	1
8	8	2
164	165	1
173	173	1
125	125	7
119	158	1
2	10	2
3	4	2
177	179	1
119	178	1
115	115	5
4	10	1
162	162	1
65	71	1
17	17	3
87	88	1
121	140	1
33	34	2
55	71	2
172	173	2
139	140	1
75	75	1
145	169	1
11	19	1
96	96	1
28	29	1
93	109	1
118	127	1
100	100	2
38	38	1
98	101	2
132	136	1
125	139	1
18	25	1
56	71	1
145	146	1
78	83	1
68	68	2
77	81	2
119	132	1
67	70	2
142	149	1
35	45	1
120	137	1
28	30	1
26	36	1
122	134	1
126	129	1
60	72	1
41	42	1
151	152	2
0	12	2
87	87	2
29	29	2
135	144	1
140	141	1
101	109	1
10	42	2
119	141	1
90	107	1
30	39	2
28	33	1
15	17	1
128	143	1
88	93	1
10	43	1
66	67	1
98	115	1
94	105	1
10	29	1
92	100	1
76	79	1
106	121	3
132	140	1
74	88	1
130	135	1
157	174	1
146	146	2
177	180	1
133	133	1
31	38	1
76	91	2
147	166	2
145	157	1
3	22	1
92	93	1
72	92	1
58	71	1
89	95	1
150	163	1
128	147	1
114	123	1
103	103	1
13	23	1
108	112	1
81	92	1
160	160	1
150	155	1
34	36	1
78	79	1
123	130	1
43	64	1
95	133	1
158	169	1
13	64	1
64	66	1
1	1	1
81	173	1
45	62	1
131	143	1
21	23	1
51	102	1
130	131	1
143	144	1
59	59	1
29	40	1
144	162	1
101	102	1
14	15	1
21	21	1
139	157	1
153	157	1
