151	171	3
95	96	3
44	45	1
118	119	4
30	30	6
6	6	5
223	223	4
112	119	7
208	208	3
56	56	15
151	151	2
54	58	2
235	235	2
117	117	3
248	248	4
228	229	5
84	84	8
198	198	5
7	7	8
234	234	2
207	208	3
158	159	1
175	175	8
69	70	1
111	111	4
85	85	3
86	88	1
21	38	1
52	52	8
210	211	6
173	173	5
161	161	3
121	121	1
70	71	3
157	157	5
159	159	6
74	74	4
111	112	4
25	25	1
197	244	2
155	155	1
184	184	6
5	5	1
45	45	2
31	31	6
194	200	2
100	100	1
94	94	4
96	96	4
228	228	5
29	29	3
197	243	2
146	146	5
109	110	3
102	102	2
201	201	6
238	238	2
172	173	7
236	236	4
65	65	11
220	220	3
150	150	7
160	161	3
204	204	11
98	98	9
31	114	1
62	62	2
169	170	4
12	16	4
34	34	9
152	171	1
113	113	1
187	187	3
90	91	3
202	202	7
226	226	7
178	187	2
106	106	2
169	169	2
182	185	9
116	116	6
177	179	7
8	204	2
233	240	3
37	37	8
177	177	2
35	35	5
91	91	2
217	217	8
170	170	6
200	200	4
36	37	2
160	160	4
63	63	4
59	59	1
176	178	2
5	15	3
102	103	5
83	88	1
82	82	4
18	18	4
41	173	2
49	49	6
210	210	7
44	44	4
53	53	3
61	61	6
40	41	2
9	9	6
155	156	1
65	69	2
162	162	4
203	204	4
203	203	2
227	227	7
27	28	2
241	241	4
236	237	3
93	93	1
197	199	2
188	188	1
87	88	1
218	219	2
244	245	1
109	109	9
38	48	3
219	220	1
96	201	1
42	42	4
3	3	6
106	107	2
38	41	1
207	207	5
23	23	11
154	155	5
41	41	8
86	86	3
68	68	6
103	105	2
55	55	2
146	154	1
201	202	1
100	101	2
184	185	4
240	240	5
94	95	1
88	89	2
92	202	4
77	78	7
54	54	8
12	12	6
2	3	1
47	47	2
76	77	1
43	43	3
83	83	8
45	46	2
159	168	2
72	72	2
225	225	6
20	21	1
89	90	1
103	103	2
33	33	7
192	193	1
11	11	7
221	221	5
167	169	2
145	145	4
77	77	2
108	118	3
92	92	1
165	166	3
28	28	2
167	167	4
194	195	5
38	42	4
196	196	3
192	192	10
94	239	1
230	231	3
190	191	2
69	69	5
164	164	4
199	199	3
219	219	2
57	57	4
197	197	1
21	21	3
242	242	3
38	39	2
205	205	2
5	6	4
20	20	4
52	53	2
149	154	1
67	73	1
178	178	6
111	116	4
182	182	2
84	85	9
245	246	1
161	162	2
169	171	3
218	218	2
90	203	4
109	113	1
60	60	6
173	174	1
46	47	1
18	44	2
67	67	4
244	244	1
107	118	2
16	27	1
224	235	1
107	107	3
195	195	5
158	158	4
171	173	4
224	224	3
1	1	4
89	89	2
91	92	1
191	192	4
69	71	1
6	11	1
54	92	1
191	191	1
21	22	3
24	24	3
174	175	1
30	50	1
88	88	2
198	200	1
48	48	5
163	163	6
174	174	5
87	87	2
99	100	1
119	119	1
64	64	1
51	51	1
172	172	3
195	247	1
207	213	1
86	87	3
7	69	3
167	168	2
62	63	1
72	74	2
197	198	3
68	69	1
104	104	3
19	19	4
165	171	1
246	247	6
154	154	4
216	218	1
220	223	2
214	214	1
98	99	2
238	239	1
110	153	1
37	42	1
93	101	2
239	239	2
223	224	2
144	145	1
39	39	2
153	153	3
68	71	2
87	223	1
224	225	1
237	238	4
222	223	4
67	87	1
66	102	2
234	235	2
27	27	2
46	155	1
55	57	2
209	209	1
168	168	4
7	70	1
76	76	2
90	90	3
176	177	2
186	186	4
152	152	3
191	194	1
200	239	1
215	217	2
151	180	2
74	75	2
71	74	3
178	179	2
14	14	2
112	112	1
187	189	1
58	59	3
22	22	2
81	82	1
56	57	1
182	183	1
180	181	1
162	163	1
156	156	2
31	48	2
92	93	1
193	193	2
210	215	3
94	107	1
171	171	1
237	239	1
58	58	3
92	239	1
34	49	1
32	33	1
96	97	2
97	97	1
10	10	2
231	233	1
97	98	1
152	153	1
29	30	2
110	117	1
34	160	1
229	229	3
215	215	5
246	246	1
99	103	1
13	13	1
212	212	3
82	85	1
36	36	1
35	38	2
73	73	1
22	23	1
8	205	1
222	222	4
224	238	1
81	81	1
190	190	1
184	186	1
2	2	1
212	213	1
81	90	1
4	7	2
23	25	1
71	72	1
225	228	1
75	75	1
8	68	1
6	7	1
107	119	1
198	199	1
236	242	1
