78	78	11
114	115	5
150	150	11
162	162	12
123	123	6
52	53	1
88	88	4
110	111	5
64	98	1
109	156	1
125	126	2
126	126	2
102	103	1
132	133	8
23	23	3
71	71	16
119	119	11
131	148	1
16	53	4
142	144	1
24	24	6
171	174	5
110	158	4
76	76	4
103	104	8
64	70	2
167	167	2
140	140	4
153	154	4
35	35	4
96	96	5
56	111	1
11	13	5
179	180	5
170	170	6
15	15	2
99	101	3
53	53	3
90	94	3
112	113	4
60	60	10
50	50	7
154	154	4
140	152	2
137	137	10
138	138	3
59	107	4
5	105	2
124	124	8
116	118	3
111	111	5
9	88	3
108	138	2
7	33	2
81	81	3
80	134	3
90	91	1
66	66	4
74	74	8
34	35	2
12	18	2
59	59	9
31	31	8
122	122	8
90	90	8
41	41	5
178	178	4
55	56	3
130	130	9
155	155	2
0	0	8
139	139	5
131	144	2
116	116	8
24	37	2
14	14	4
91	91	4
13	33	7
144	145	1
106	106	6
108	108	8
14	31	1
72	72	8
178	180	1
172	172	5
9	10	4
143	150	8
81	87	7
18	20	4
102	102	2
176	176	5
75	75	6
129	130	3
83	85	1
44	44	2
78	79	6
135	136	2
148	148	4
177	177	4
79	79	11
8	9	1
95	95	2
54	54	5
10	10	3
108	109	6
50	51	6
165	165	5
101	102	2
73	74	4
5	8	3
28	30	2
152	155	1
73	73	4
103	103	5
38	38	3
110	156	1
82	86	5
112	129	1
10	14	3
96	97	3
171	172	3
126	167	3
115	116	5
116	120	5
107	107	6
180	180	7
87	88	3
70	70	1
129	129	3
121	121	5
110	110	6
174	175	1
25	30	3
3	3	3
147	147	4
124	125	4
109	109	1
158	158	5
96	104	3
92	93	2
113	127	1
4	4	5
71	72	1
55	158	1
2	90	1
51	52	1
35	38	1
153	153	6
39	39	6
79	80	1
72	74	3
64	64	7
115	117	1
14	81	1
142	142	2
173	173	3
32	32	3
156	156	2
6	9	3
86	86	1
98	98	2
149	149	2
125	125	6
60	61	2
80	80	4
67	68	3
117	118	1
86	162	3
65	65	3
87	87	7
136	136	9
139	153	1
133	133	3
114	114	12
5	5	2
166	166	4
104	104	8
134	134	3
143	143	3
146	146	3
10	12	1
81	82	2
132	132	5
36	43	1
15	21	5
152	156	2
118	118	2
100	100	1
111	128	1
16	16	3
0	1	2
168	168	2
7	9	2
128	128	4
74	103	3
139	156	4
43	43	2
94	94	1
17	17	3
22	24	2
171	171	5
24	25	2
32	33	1
114	129	3
68	68	2
20	20	4
34	34	2
51	53	2
52	52	2
93	94	4
1	4	3
127	166	1
34	95	1
79	87	2
141	141	2
56	157	4
38	91	1
159	159	1
152	152	2
74	75	2
127	128	4
2	2	4
116	121	2
50	85	2
89	103	3
62	62	2
93	93	1
117	117	4
165	166	2
157	157	4
56	158	1
141	149	1
55	162	1
145	146	3
169	169	5
120	120	2
167	168	1
6	6	1
131	131	1
162	163	1
19	19	1
147	148	2
43	44	1
38	39	3
157	158	2
110	150	3
123	124	2
164	164	3
145	145	3
105	105	4
112	112	4
88	107	1
89	95	1
151	151	2
177	178	1
9	9	2
41	43	2
89	90	1
175	175	3
138	139	1
160	160	1
1	1	1
100	101	1
40	44	1
53	124	1
113	113	2
59	108	1
179	179	2
61	136	2
101	101	1
154	155	2
75	76	1
131	132	1
31	43	1
126	127	3
146	147	1
18	36	1
56	57	1
127	127	1
83	84	1
77	77	2
172	173	1
37	37	2
94	95	1
121	122	1
18	18	1
6	33	1
149	150	1
148	149	1
126	133	1
97	105	1
8	8	1
174	174	1
