168	168	13
45	45	6
199	199	5
165	165	4
171	171	7
106	131	3
60	60	2
13	16	1
32	32	2
225	227	2
19	21	5
68	69	4
239	239	5
172	172	8
44	44	1
168	203	1
140	140	5
137	138	2
57	57	4
99	99	4
48	49	4
226	226	3
154	154	2
236	236	4
157	157	6
176	176	6
99	101	1
69	70	1
192	192	4
53	59	1
233	233	4
142	142	4
167	189	2
122	122	8
33	50	2
202	202	4
69	69	1
95	95	4
216	216	6
10	10	7
228	228	2
76	76	5
18	18	1
195	195	3
73	73	7
179	179	3
163	163	2
217	218	1
0	1	2
208	208	5
9	9	4
64	64	1
105	110	1
189	189	6
57	58	3
67	67	8
158	158	6
114	116	3
177	177	5
184	195	3
75	120	3
61	98	2
84	84	2
147	148	3
147	147	4
229	229	3
9	10	1
153	153	4
127	127	1
60	61	3
23	23	3
119	119	2
182	182	2
34	34	2
242	242	4
54	54	3
52	52	1
82	82	2
68	68	5
203	204	1
49	49	5
148	148	8
185	186	1
182	183	4
14	14	8
212	212	2
47	47	4
43	43	3
150	150	4
0	6	5
4	4	2
37	37	1
204	204	5
61	61	6
169	169	3
28	28	4
116	116	1
31	32	1
158	191	1
30	31	1
71	71	1
97	97	3
108	108	4
238	238	4
41	41	7
136	136	6
145	145	2
159	159	1
207	222	7
144	144	3
180	180	2
200	201	2
100	100	8
201	201	4
178	178	1
162	162	4
213	213	5
116	117	1
80	80	5
75	75	4
121	121	1
135	136	3
17	17	4
120	120	3
217	217	4
210	210	3
196	197	2
39	39	5
196	196	3
32	35	1
197	197	2
152	152	8
221	221	2
160	160	2
80	84	1
2	3	4
185	185	2
58	59	3
42	43	1
134	135	3
20	20	2
135	135	1
149	149	1
141	141	1
209	209	3
85	85	3
202	203	5
37	47	3
29	29	1
135	137	2
146	146	4
39	45	1
151	152	1
4	5	1
184	196	2
31	48	2
136	137	3
216	217	2
183	183	3
21	22	2
105	120	2
95	142	1
175	175	6
56	56	3
52	59	1
23	166	3
240	240	1
191	191	2
134	134	7
167	169	1
13	13	2
14	31	1
139	139	1
200	202	4
138	138	4
166	166	2
83	84	4
101	102	2
151	151	5
31	31	3
160	161	4
146	147	3
187	187	3
12	13	2
107	109	1
170	170	3
207	208	2
222	222	1
200	220	1
16	17	2
23	24	1
27	27	2
212	213	3
25	25	5
55	56	2
82	85	1
104	124	1
190	190	2
11	11	3
39	42	1
190	191	1
225	225	7
141	143	1
102	163	1
222	223	1
6	6	2
144	145	5
181	182	1
198	220	1
16	16	1
241	241	2
184	184	2
56	57	3
69	80	2
129	130	1
161	161	2
14	15	1
107	107	2
105	123	1
51	53	1
175	176	2
7	8	1
164	164	5
188	197	2
7	7	5
42	42	2
137	137	3
127	128	1
55	55	4
186	186	3
46	46	3
120	121	1
30	42	3
53	53	3
186	187	1
75	78	2
124	125	3
199	200	1
50	52	2
171	173	1
61	63	2
118	118	1
2	4	1
120	122	3
215	215	2
173	174	1
4	6	2
8	8	1
234	234	2
182	184	1
105	105	2
230	230	1
38	38	1
110	113	1
214	215	3
19	19	1
121	122	1
205	206	1
3	29	1
220	220	1
189	190	1
102	102	1
24	24	3
35	35	1
12	16	1
65	65	1
167	167	5
15	15	4
49	50	1
140	141	3
48	48	1
204	205	1
22	23	2
232	232	1
14	49	1
22	22	1
46	47	1
28	214	1
33	81	1
235	235	1
230	231	1
136	139	2
124	124	1
58	163	1
115	115	1
187	188	1
74	85	1
198	198	1
96	97	1
5	8	1
210	228	1
9	29	1
241	242	1
156	158	1
30	30	2
159	160	1
200	200	3
187	196	1
209	213	1
168	169	1
51	52	1
132	134	1
26	26	1
123	123	1
40	40	1
29	30	1
67	68	1
165	166	1
170	175	1
106	107	1
63	64	1
193	193	1
171	172	1
115	118	1
112	113	1
200	221	1
183	184	1
