7	7	3
22	22	5
117	117	12
58	58	3
11	11	3
14	14	4
60	60	5
57	57	3
17	97	4
22	23	4
75	75	6
113	113	10
52	124	2
67	69	3
7	8	9
9	9	2
1	102	1
28	29	1
89	89	5
5	6	1
74	74	6
27	27	1
26	27	3
77	77	8
44	58	2
1	1	12
37	37	1
56	56	6
127	127	1
24	30	3
101	101	2
64	95	3
128	128	8
113	120	3
33	33	4
62	63	2
8	8	2
53	94	6
84	85	2
107	125	1
98	98	4
116	116	9
93	93	1
2	43	5
79	79	2
91	91	1
100	101	2
32	35	2
79	100	1
14	44	1
31	31	4
120	120	13
13	13	4
19	19	3
16	16	3
53	53	3
121	123	1
24	24	7
45	48	1
104	104	3
25	25	4
102	102	9
34	34	1
95	95	6
71	71	5
109	109	3
100	100	3
15	15	7
53	108	1
106	107	3
64	64	6
134	134	2
55	106	1
6	44	2
23	23	3
82	85	1
84	84	4
96	96	1
110	114	2
1	2	5
19	21	2
105	111	4
107	114	3
72	73	1
29	29	1
5	5	10
18	18	1
5	8	2
110	111	1
10	44	1
53	54	2
7	10	2
58	62	1
85	97	1
114	114	4
43	43	2
28	28	5
131	131	2
57	58	1
112	112	1
57	61	2
74	76	4
86	86	2
127	129	1
123	123	3
111	114	3
62	62	1
83	83	2
73	73	4
52	130	1
56	57	1
102	103	5
126	126	5
6	6	2
65	85	2
34	37	3
55	55	3
79	99	1
92	92	1
129	129	4
1	52	3
53	95	1
103	104	1
62	123	2
36	36	1
106	115	1
6	8	1
76	76	3
90	91	1
44	59	1
35	35	1
11	12	1
117	118	1
4	42	1
118	118	2
20	21	2
26	26	1
45	49	1
71	72	3
55	56	1
108	108	2
124	131	1
69	69	1
123	134	2
63	70	2
1	43	1
63	63	5
112	114	1
10	11	1
80	81	2
119	119	2
6	14	1
61	61	2
17	17	2
125	125	1
47	59	2
83	84	1
124	130	1
106	106	1
122	122	1
18	103	1
78	78	1
3	3	1
4	14	1
7	14	1
124	125	1
21	21	2
116	120	1
116	117	1
82	96	1
103	103	1
115	122	1
111	111	1
88	88	1
8	9	1
117	119	1
130	131	1
131	132	1
