148	148	2
70	70	4
54	54	3
17	17	14
142	142	4
109	111	2
10	10	4
16	16	18
128	128	10
136	136	2
47	47	2
28	28	8
6	44	4
80	80	4
95	118	3
133	134	5
87	88	2
93	93	3
92	126	2
44	44	13
95	95	5
112	112	7
126	126	4
7	7	6
94	94	4
57	57	4
121	121	1
68	68	5
116	116	5
134	144	2
68	113	2
18	18	4
39	39	4
130	131	3
90	90	2
38	41	2
91	129	3
101	101	3
97	97	5
114	114	2
147	147	2
134	135	4
111	112	2
65	67	3
103	104	3
124	125	3
36	37	1
89	89	2
118	118	3
8	31	4
64	64	3
49	49	6
107	107	2
65	66	2
40	42	2
125	125	3
92	129	2
17	19	3
150	150	4
55	55	3
153	153	7
36	36	4
48	48	6
90	129	2
84	86	1
91	91	3
8	8	3
149	149	2
132	133	3
67	67	2
31	35	1
12	12	1
144	145	6
61	61	1
19	19	5
95	130	1
22	22	4
147	148	1
139	139	6
79	79	2
51	51	3
99	99	7
145	145	7
144	144	1
106	107	6
12	13	1
6	45	1
110	110	2
142	143	1
4	53	2
7	10	1
15	63	3
112	114	2
32	32	3
102	102	1
32	35	4
29	29	2
124	124	7
152	152	4
131	150	1
41	43	2
46	46	2
131	132	2
23	23	5
157	157	1
129	131	2
88	88	1
98	98	5
32	96	1
34	34	5
122	123	1
92	92	1
155	155	1
64	96	3
91	92	1
5	5	3
137	138	1
10	12	2
152	156	1
132	141	1
32	37	1
25	27	2
80	81	1
40	41	1
38	39	3
33	33	1
156	159	2
97	157	3
120	141	1
84	84	1
53	53	2
89	130	2
20	20	5
81	81	4
11	11	3
132	132	4
117	117	10
92	125	1
29	103	3
85	85	3
52	54	1
65	65	4
30	30	2
138	139	2
87	87	1
94	96	2
34	37	2
156	156	1
24	24	1
2	2	1
13	13	3
127	127	2
15	16	1
9	32	1
66	66	2
16	112	1
125	126	2
110	111	1
70	71	2
121	153	2
95	96	2
130	130	3
139	140	1
63	63	2
72	72	3
84	85	2
140	140	1
54	126	1
37	37	2
131	131	1
77	78	1
35	37	2
38	51	2
121	154	2
81	82	2
122	154	1
40	40	1
105	105	3
106	106	1
154	154	2
157	159	2
140	156	1
26	26	1
140	141	1
129	130	1
79	81	1
87	89	1
4	57	1
43	44	1
86	86	1
38	38	1
85	86	1
38	52	1
13	25	1
7	8	1
4	5	1
71	71	1
21	21	1
138	138	1
69	71	1
120	121	1
88	89	1
32	33	1
