116	116	17
63	63	8
130	157	1
25	35	3
13	14	4
106	132	2
133	135	3
1	1	7
132	134	1
94	106	5
6	6	7
155	155	8
149	149	5
45	52	1
90	94	5
68	72	7
6	31	3
140	158	1
138	140	4
114	117	3
138	139	13
38	38	2
123	124	3
150	153	6
105	123	3
33	34	2
6	12	2
92	97	5
4	4	10
92	95	3
63	81	4
140	152	3
10	11	5
107	108	2
105	117	2
77	86	2
20	20	6
83	89	5
145	146	4
95	112	4
139	151	12
41	49	2
46	63	2
157	157	6
40	45	4
118	127	6
42	47	1
87	88	5
18	18	6
36	50	4
118	125	4
23	23	2
37	55	2
9	9	5
96	96	9
140	140	7
139	152	5
35	37	2
128	128	10
156	156	5
106	119	3
147	147	8
32	37	2
132	150	2
69	75	1
75	84	3
23	24	1
71	82	1
51	52	1
70	81	1
129	138	4
77	103	2
2	12	6
31	90	1
100	106	7
127	128	2
129	129	14
69	73	3
79	79	6
17	17	9
73	83	1
139	157	4
143	151	1
19	19	4
52	56	1
143	143	1
24	24	5
112	124	3
12	13	1
107	107	11
18	23	3
77	82	1
68	68	1
75	79	3
138	153	1
136	136	4
64	64	3
14	23	7
42	43	2
144	147	1
12	16	2
21	22	3
111	111	5
35	39	4
0	6	3
127	132	5
41	45	2
50	52	4
123	123	10
0	17	4
0	5	2
19	25	3
94	117	3
1	3	2
126	136	5
73	77	2
84	98	1
36	53	5
131	131	6
138	147	2
4	21	1
96	97	1
130	130	7
138	144	1
23	31	7
21	21	3
103	105	7
28	29	1
14	108	2
82	82	1
154	154	4
95	97	4
30	33	3
35	40	2
133	133	7
52	52	1
118	118	2
85	97	1
138	138	4
0	2	1
125	125	6
144	144	5
103	110	3
144	156	2
95	102	1
126	131	2
150	156	4
124	124	2
1	12	1
151	152	1
9	12	1
82	85	2
83	83	12
50	54	3
30	32	1
4	5	3
141	141	3
6	8	1
158	158	7
127	127	6
147	151	3
9	11	2
144	145	2
113	126	7
10	17	4
25	26	2
103	103	4
0	25	1
99	99	3
114	118	2
32	36	4
85	93	1
26	39	4
54	54	11
153	155	3
139	139	7
1	7	3
12	12	6
5	17	6
14	29	3
7	8	2
153	157	1
147	150	2
145	157	2
43	46	1
4	15	2
116	122	2
27	27	3
36	36	1
87	87	5
97	97	4
100	103	4
89	92	6
142	142	3
71	81	3
71	75	1
110	114	3
94	95	3
88	88	7
110	120	5
120	129	7
75	75	2
135	135	5
95	96	3
122	122	12
73	85	3
3	6	2
121	121	4
30	31	2
128	150	2
116	117	1
101	101	3
108	108	2
88	104	1
97	106	2
80	80	2
99	125	3
132	145	5
48	49	2
35	51	2
91	102	9
81	82	1
152	153	2
22	27	1
101	114	1
122	123	5
39	39	2
134	145	1
137	138	5
21	47	3
152	156	5
146	150	3
131	132	6
47	47	3
94	94	1
68	81	1
115	116	2
86	89	3
55	55	7
19	22	6
7	20	3
84	87	2
127	145	3
37	37	4
132	148	1
68	80	2
2	17	3
8	17	2
39	47	3
105	118	3
134	144	3
33	38	2
9	10	2
89	98	3
39	44	1
151	157	3
78	79	1
43	51	1
144	157	4
100	107	1
53	57	7
34	35	4
143	146	3
104	105	2
145	148	2
118	128	3
93	94	2
137	139	3
14	22	1
96	99	2
19	32	1
126	128	1
13	27	5
14	26	1
134	134	4
82	93	4
47	49	2
140	148	2
19	21	3
28	28	11
106	109	5
8	27	2
23	25	2
120	132	3
113	116	1
72	74	2
99	112	1
110	110	6
46	78	2
4	19	2
51	53	2
14	15	8
85	85	1
125	126	7
137	137	6
22	23	4
115	115	6
130	139	2
147	152	1
92	117	1
124	133	1
140	156	8
84	85	3
67	72	1
154	155	4
139	147	3
13	32	1
87	96	2
120	122	4
85	88	3
118	120	2
148	149	5
149	152	2
42	42	8
113	119	1
72	84	1
115	124	4
30	56	3
45	45	4
112	128	2
153	153	4
145	153	1
119	132	1
97	98	4
118	126	1
117	117	2
7	10	1
148	153	3
56	56	4
94	96	2
144	158	4
86	96	1
133	134	4
78	78	1
155	157	1
15	24	2
109	123	1
83	84	4
111	112	1
152	157	2
33	36	1
103	104	3
91	95	5
93	112	2
12	18	2
9	15	2
21	26	2
14	19	4
128	129	6
8	9	4
154	157	2
73	73	4
65	78	2
3	13	6
120	126	1
126	137	2
132	146	3
3	8	1
145	147	1
24	32	2
114	116	4
130	133	3
98	98	4
99	109	1
103	132	2
14	121	5
73	75	3
146	146	5
6	11	2
109	114	2
102	102	3
126	126	4
122	131	2
88	105	4
27	39	2
91	93	1
25	29	1
87	97	2
44	89	3
11	18	1
77	77	6
21	33	4
135	143	6
66	67	2
20	34	2
21	31	1
126	127	8
128	146	5
132	132	6
133	145	1
120	127	1
53	53	2
118	130	1
88	100	2
150	152	2
5	7	3
92	93	4
14	14	3
2	11	3
77	79	2
120	131	4
108	121	3
101	107	1
131	137	1
97	107	1
99	100	3
82	83	1
66	75	1
86	86	1
11	12	1
101	117	3
105	106	4
39	41	1
10	12	2
133	142	1
43	45	2
25	28	3
24	47	3
134	138	1
30	36	2
20	33	1
148	151	1
69	71	1
109	129	2
113	113	6
101	102	2
93	109	1
115	126	1
115	118	5
71	71	3
109	109	3
109	113	1
111	124	1
82	94	1
156	157	1
22	36	1
75	76	1
131	141	2
16	16	1
96	101	2
44	52	1
102	124	3
82	88	2
46	53	1
116	158	1
108	110	3
27	35	1
32	33	1
0	1	4
133	147	1
44	54	1
120	120	5
108	117	2
120	121	8
154	158	2
10	10	3
41	48	1
152	154	2
129	144	2
104	110	1
35	35	1
22	31	1
113	127	2
121	123	1
136	138	1
46	47	1
142	145	1
6	140	1
101	104	1
34	34	5
117	122	1
121	127	1
106	107	1
100	100	1
130	144	1
15	23	2
16	30	2
145	145	6
92	107	2
8	8	1
155	158	4
137	140	1
15	17	2
97	108	5
146	148	1
150	151	3
4	8	2
86	87	3
32	35	1
27	92	1
105	115	2
141	142	5
3	14	3
90	98	1
26	30	4
155	159	3
147	153	2
24	35	1
94	109	1
68	84	2
82	86	3
44	99	1
11	24	1
63	73	1
44	44	1
33	55	1
134	139	1
114	114	1
104	107	2
23	132	2
19	31	1
85	101	2
118	129	2
105	109	3
81	92	1
87	94	2
7	9	4
16	19	2
48	48	2
68	71	1
93	100	2
44	56	1
29	144	1
35	36	1
113	123	3
34	77	1
54	77	1
49	49	1
69	69	3
49	51	1
64	65	1
100	114	1
100	105	1
89	103	2
95	95	1
119	120	1
81	87	1
118	119	2
123	125	1
98	104	2
28	32	2
4	20	1
115	121	1
5	5	1
50	51	1
73	81	1
151	151	1
28	50	3
106	125	2
68	69	1
99	103	2
132	135	3
52	61	1
147	148	1
133	136	1
69	79	1
70	80	2
1	2	3
8	117	1
31	31	2
97	99	2
93	101	1
18	27	2
117	132	2
32	32	1
44	55	1
28	35	1
105	105	1
2	6	1
69	88	1
6	23	1
152	152	1
0	29	1
70	70	1
47	51	1
104	104	2
81	83	1
66	66	1
146	147	1
18	19	2
83	96	1
5	20	2
117	119	1
114	126	2
134	142	1
155	156	3
143	145	1
6	13	1
2	5	1
7	7	4
15	15	2
93	97	2
117	120	1
82	102	2
1	8	3
98	99	3
144	151	1
82	90	1
3	12	1
57	63	1
119	134	2
141	145	2
140	141	3
82	97	2
67	73	1
43	43	4
4	11	2
46	46	1
14	21	2
88	90	2
94	99	2
132	141	1
67	77	2
50	50	1
112	112	4
93	93	1
125	129	1
76	90	2
23	43	3
151	154	1
3	3	3
45	46	1
17	31	1
122	124	1
23	76	1
40	40	1
135	136	1
12	19	2
32	39	1
26	29	1
94	107	1
114	121	1
106	118	1
111	118	1
120	123	1
49	55	1
90	99	2
91	92	1
80	83	2
72	93	1
106	111	2
130	141	3
20	23	1
128	140	1
83	94	3
118	131	2
136	137	1
81	89	2
29	29	1
119	131	1
26	31	1
106	106	1
1	6	1
134	135	1
27	36	1
112	114	2
76	93	1
123	140	1
95	105	2
83	87	1
44	50	1
4	10	2
40	47	1
22	22	1
131	138	1
111	123	1
34	44	1
12	14	1
17	22	1
5	9	1
5	8	2
94	104	1
81	100	1
48	57	1
114	125	1
62	62	1
107	125	2
120	130	1
24	26	2
135	141	1
20	26	1
104	117	1
65	66	1
66	70	1
2	7	1
21	23	1
84	101	3
75	78	1
20	27	1
139	156	1
24	28	1
101	105	1
38	39	2
70	78	1
69	70	1
78	82	1
2	23	1
26	27	1
128	138	1
136	142	1
65	65	1
37	41	1
