54	54	9
123	123	12
27	27	3
66	66	19
42	42	10
51	53	1
109	110	2
9	9	9
61	61	8
91	92	1
1	3	3
91	91	10
124	124	10
32	32	20
76	76	6
64	64	23
101	101	9
126	141	1
8	8	11
81	123	4
48	77	7
129	129	12
5	5	8
40	40	3
139	139	9
97	99	2
53	54	3
59	60	1
38	42	3
113	113	28
17	41	1
104	104	11
49	75	1
106	106	3
11	11	19
97	97	10
55	56	2
0	1	5
92	93	5
60	60	9
26	52	5
72	73	4
120	120	3
27	36	3
38	38	8
117	117	8
26	87	4
32	33	7
22	22	5
61	104	4
28	28	11
51	52	10
135	135	8
36	36	6
27	37	1
109	109	7
96	96	9
18	18	16
132	132	5
65	66	5
134	134	6
110	111	4
57	57	8
97	98	4
145	146	3
105	105	12
93	103	2
57	139	1
75	76	4
123	124	5
84	84	10
140	141	7
133	133	12
87	87	13
93	93	8
33	33	16
35	139	4
126	129	4
103	103	14
26	26	10
68	68	10
21	21	8
95	95	15
1	1	5
135	138	4
98	98	15
77	77	4
37	37	11
92	92	13
129	130	8
137	138	3
119	119	12
74	74	5
20	20	5
62	63	7
100	100	8
55	55	11
17	17	5
71	71	10
6	6	10
115	116	7
12	12	9
130	131	5
98	99	3
70	70	19
118	118	4
73	73	7
64	65	5
47	48	7
126	126	6
82	82	4
58	141	1
65	65	7
78	78	7
96	126	3
40	42	2
29	29	9
134	139	1
75	75	12
50	120	1
71	72	5
88	88	1
75	124	3
38	86	3
41	41	7
115	115	11
30	30	6
10	110	1
39	39	11
82	123	3
19	21	2
72	72	8
25	25	4
34	35	2
59	107	3
84	86	3
56	57	5
10	10	3
15	15	1
90	107	1
23	24	3
85	85	5
53	53	11
89	89	1
76	80	4
127	127	5
64	74	3
125	125	6
145	145	3
136	136	15
84	85	1
41	42	2
122	122	5
0	0	6
99	100	6
112	112	12
63	64	1
70	98	1
77	82	4
81	81	6
125	126	1
107	107	4
3	4	1
131	131	6
10	34	5
25	90	1
51	83	4
68	69	2
99	99	12
26	27	5
141	141	12
62	118	1
116	117	10
121	121	13
3	23	3
4	36	2
54	79	2
140	140	11
116	116	1
53	79	1
102	142	3
50	50	6
23	23	5
102	103	4
96	97	3
119	120	3
73	74	2
128	128	5
52	52	6
144	144	4
13	13	5
69	69	6
114	118	2
108	108	8
63	63	5
146	146	4
58	58	5
102	102	8
17	18	1
71	91	1
14	14	4
19	20	6
72	97	1
37	42	3
35	35	2
51	51	2
2	14	2
66	67	1
87	88	2
112	113	1
134	137	1
16	16	1
2	36	1
114	115	6
18	19	6
88	89	8
78	79	5
20	21	5
105	106	1
47	47	1
69	102	3
106	108	3
110	110	4
4	4	4
10	33	1
29	30	3
38	39	4
115	128	2
95	96	3
76	77	1
54	55	9
71	73	2
48	86	1
24	24	4
80	80	5
90	91	1
69	90	1
49	49	1
59	59	9
137	137	1
1	6	1
77	140	2
92	94	4
143	144	1
19	43	1
90	124	1
17	42	1
74	96	1
13	19	1
82	138	3
40	41	3
85	90	1
127	128	2
128	130	2
27	81	2
52	78	2
28	29	3
37	38	2
81	82	2
28	92	1
27	41	2
73	97	2
101	102	5
79	79	3
136	138	1
49	51	1
83	83	3
48	124	3
47	93	1
111	137	1
9	10	2
3	3	2
101	144	2
19	19	6
22	23	1
130	130	2
10	11	2
67	68	2
80	81	3
58	140	1
113	114	1
141	142	1
127	130	1
56	79	5
83	84	2
54	64	2
111	111	4
31	32	2
126	127	2
2	2	1
55	120	1
93	94	1
49	50	2
143	146	1
31	39	1
34	83	2
126	132	1
39	85	1
90	90	4
50	83	2
20	24	3
94	94	7
67	67	3
122	123	2
11	37	1
6	8	1
56	119	1
108	135	2
90	94	1
10	38	1
79	80	2
4	12	1
81	124	1
59	92	2
114	114	1
15	16	1
21	101	2
108	110	1
15	17	1
0	2	2
118	119	1
73	96	2
55	79	1
116	128	1
114	116	2
136	137	2
3	25	2
112	116	1
58	59	1
32	47	1
23	25	1
61	62	2
59	126	2
48	48	2
116	141	1
70	71	1
89	103	1
133	134	2
121	122	1
142	142	1
73	92	1
34	34	1
107	108	1
11	91	1
77	79	1
37	87	1
