55	55	7
47	63	1
70	70	4
7	29	2
12	81	4
55	56	5
66	71	2
16	26	1
61	62	1
83	83	19
69	69	14
72	72	7
60	75	5
74	74	6
57	72	3
54	60	2
81	81	11
79	80	5
59	83	6
68	69	3
58	58	5
69	88	2
75	75	3
25	25	6
24	27	4
59	59	8
16	16	1
62	62	9
0	0	9
9	19	2
22	22	6
8	9	5
65	65	6
16	20	1
12	27	1
11	11	7
15	31	4
4	4	5
79	79	3
64	64	11
61	61	11
70	77	2
49	77	1
11	79	3
7	7	5
4	68	3
34	34	9
59	84	1
57	58	5
52	52	8
23	23	10
89	89	10
20	20	6
82	82	5
12	12	6
13	28	3
87	87	7
27	31	2
48	77	1
74	84	3
5	69	1
49	63	3
13	66	4
46	68	1
17	27	3
50	52	4
85	86	4
12	61	3
30	30	4
31	31	10
60	60	2
13	27	4
47	47	8
5	5	4
86	86	10
1	1	5
51	52	2
72	73	6
17	17	7
82	83	4
2	4	1
72	89	2
74	89	4
71	84	1
1	10	6
76	77	5
67	67	6
27	28	3
85	85	7
51	51	13
63	63	5
60	62	2
26	26	6
34	71	2
15	15	5
71	71	5
81	82	1
21	21	1
49	49	5
84	86	5
60	65	5
73	75	2
66	81	3
61	74	2
52	53	2
11	29	2
22	84	2
20	21	2
18	18	3
14	30	3
1	2	1
3	3	4
50	50	7
67	87	1
57	69	4
8	8	3
75	76	2
24	25	4
65	78	1
69	72	1
5	6	3
67	71	1
57	89	2
6	7	2
69	77	1
13	13	3
3	70	1
54	54	4
60	63	2
10	23	1
48	48	4
17	19	1
26	31	2
77	77	3
66	66	4
80	80	2
19	19	2
53	53	3
46	56	1
75	81	2
75	86	1
69	76	4
75	88	1
6	10	1
3	4	2
58	60	1
12	78	1
29	29	1
1	25	1
17	30	1
21	31	1
80	81	4
2	2	2
29	30	1
12	60	2
51	63	1
4	67	1
66	72	2
88	89	5
52	76	1
20	28	3
56	56	2
17	25	1
11	19	2
46	46	1
78	78	3
24	31	3
9	9	2
12	28	1
63	64	1
75	82	1
30	49	2
14	14	3
7	10	2
66	85	1
47	61	1
76	82	1
27	77	1
87	88	1
62	75	1
78	79	1
48	65	1
17	24	1
67	77	2
24	28	1
7	17	2
47	55	1
64	80	1
26	32	1
47	48	1
25	80	1
27	27	1
48	75	2
82	85	1
24	24	2
61	79	1
9	10	1
84	84	1
8	20	1
30	58	2
87	89	2
8	27	2
0	25	2
7	26	2
48	56	2
3	11	1
60	79	1
9	23	1
68	68	1
64	69	1
56	66	1
0	1	1
16	24	1
51	75	1
8	26	1
78	87	1
6	17	1
0	9	1
72	76	1
49	65	1
77	88	2
