90	90	6
116	116	5
184	185	3
33	33	3
196	215	3
35	35	6
208	208	8
28	28	9
243	243	5
194	194	1
65	65	4
155	155	5
89	89	2
33	65	1
6	6	1
51	51	2
53	53	5
113	114	3
8	8	4
230	231	2
32	32	5
80	81	1
195	214	2
83	83	8
182	182	7
111	111	2
23	23	11
190	190	4
80	82	4
94	95	1
243	244	4
44	44	12
194	196	1
117	117	10
27	28	5
19	19	6
43	43	4
244	244	3
45	45	7
63	63	2
183	183	9
247	247	5
6	52	1
231	231	8
187	187	8
176	176	4
78	78	2
18	18	2
211	211	4
207	207	2
175	179	1
203	203	5
59	59	3
114	114	3
194	197	3
50	50	1
71	72	5
87	87	2
221	222	3
170	170	1
156	171	4
152	153	4
93	93	7
9	9	7
86	87	2
213	237	2
79	79	3
212	212	8
101	109	5
72	72	8
21	40	2
52	53	2
184	184	2
176	177	4
39	39	2
217	217	2
48	78	3
106	106	1
14	14	1
215	215	4
1	2	1
202	202	6
27	27	3
150	151	2
101	101	2
71	75	1
88	88	3
206	206	2
159	159	5
189	189	4
10	10	6
245	245	2
152	185	5
221	221	2
85	85	1
213	214	4
96	96	2
237	237	1
158	158	2
226	226	10
57	64	1
15	15	9
80	80	2
188	188	2
162	163	2
180	180	4
147	152	1
55	55	1
160	160	5
74	76	2
236	236	3
224	224	1
210	210	3
218	218	1
41	41	4
101	108	2
31	31	1
210	214	1
218	219	1
233	233	2
102	104	2
214	214	1
48	240	2
95	95	5
69	74	4
156	156	3
16	16	4
208	209	1
25	25	3
12	13	1
4	4	2
231	249	1
1	1	2
62	62	1
192	223	2
179	179	1
210	211	2
94	94	1
186	188	1
241	241	1
70	71	1
154	154	2
162	162	4
104	105	1
100	101	5
87	88	3
28	29	2
42	42	3
24	24	1
172	172	3
157	169	3
148	154	2
196	196	2
43	244	1
210	234	2
165	165	1
182	183	2
152	158	2
67	67	3
174	176	2
114	145	1
235	239	5
228	230	1
3	3	1
54	54	3
72	79	1
167	167	4
209	209	3
31	32	3
92	92	8
90	93	1
168	168	2
97	97	1
248	248	1
226	227	2
196	214	1
201	201	4
150	167	2
199	199	3
52	52	6
110	110	2
21	21	5
153	153	4
151	151	2
29	30	1
112	116	2
22	22	4
58	58	1
11	12	3
98	98	1
24	25	4
173	183	1
169	169	6
103	103	1
115	115	2
88	90	2
195	195	1
109	144	3
163	164	3
109	109	2
232	233	1
200	200	3
17	17	3
20	20	1
56	66	1
82	82	5
155	156	2
109	117	1
40	40	2
29	29	1
84	86	4
231	233	2
150	150	3
173	173	1
9	18	3
119	119	3
168	169	1
40	41	3
47	47	1
81	82	1
212	213	1
178	179	1
238	239	1
235	235	2
46	167	1
61	61	3
242	242	1
79	82	3
238	238	2
57	57	3
152	152	1
84	84	3
9	17	1
8	17	1
59	60	1
64	64	1
171	171	2
102	107	1
60	60	1
34	34	1
81	160	1
232	237	1
7	7	1
145	145	1
4	11	1
25	26	1
187	188	1
7	12	1
174	174	1
11	11	3
68	68	1
181	181	1
191	191	1
161	161	1
43	44	1
212	227	1
229	231	1
68	242	1
184	186	1
73	74	1
69	69	1
57	58	2
206	207	1
120	120	1
204	204	1
74	74	2
55	70	1
165	167	1
30	31	1
49	49	1
229	229	1
192	192	1
87	97	1
55	56	1
107	107	1
112	112	1
