21	53	2
149	149	3
137	137	2
9	11	4
100	100	2
121	121	4
135	135	3
11	11	6
82	119	4
5	146	4
132	136	4
109	109	8
98	98	4
142	154	5
44	44	2
91	91	6
137	138	2
79	80	2
116	121	3
78	78	3
88	88	4
129	134	3
113	115	1
108	146	1
93	142	3
145	145	4
26	26	6
12	12	5
9	10	1
155	158	2
3	3	5
92	94	2
19	24	2
151	151	3
12	14	3
46	46	4
113	135	1
117	117	9
136	136	1
113	142	1
14	41	2
77	77	6
67	67	5
116	116	4
32	32	7
78	80	1
155	156	2
119	119	7
41	41	6
68	107	3
4	5	1
24	148	1
75	75	9
65	66	2
12	13	1
38	38	2
6	6	7
118	119	1
79	79	3
47	47	10
18	18	2
113	113	2
156	157	1
109	113	2
15	24	2
89	89	5
22	22	2
140	140	5
128	139	2
66	70	1
146	148	1
135	147	3
120	120	6
99	99	3
94	94	4
20	21	1
51	51	3
148	148	5
26	33	3
68	68	4
120	121	1
85	152	2
37	54	2
40	41	3
150	150	2
118	118	3
49	49	2
90	91	2
124	124	5
56	69	1
14	14	3
40	40	8
34	48	2
92	143	2
2	4	1
124	125	2
122	122	7
50	51	4
128	129	2
42	42	4
27	27	2
83	86	2
74	93	2
110	122	1
69	69	6
19	19	5
0	1	1
44	45	3
10	10	1
66	66	1
129	129	7
95	104	2
27	28	6
5	5	2
26	27	5
104	104	6
65	67	1
31	31	11
13	13	1
101	101	2
125	127	1
0	0	3
112	156	1
17	54	1
123	124	2
147	147	9
15	15	7
65	65	1
36	38	4
123	123	7
28	28	2
17	17	6
111	111	3
24	24	1
16	26	1
151	152	1
120	122	2
41	43	5
104	105	1
107	107	1
43	71	3
23	39	1
126	139	2
16	16	3
131	146	3
17	18	4
108	109	2
39	42	2
5	149	2
133	133	4
52	53	1
141	142	3
8	9	1
73	73	2
36	48	1
103	103	5
67	71	2
154	154	2
23	23	2
69	73	2
51	52	3
96	96	1
40	109	1
78	116	2
109	137	5
81	82	2
9	9	5
77	80	5
7	7	4
85	86	3
83	91	2
13	14	2
145	156	1
153	153	4
132	132	2
35	49	2
50	50	3
98	104	1
131	131	1
95	95	1
28	37	1
52	52	3
73	142	2
30	38	1
8	11	1
16	32	1
84	84	1
90	90	6
34	39	1
36	36	3
141	141	8
7	11	1
41	42	2
143	151	1
124	139	3
146	151	1
150	151	4
25	26	2
70	70	4
71	71	1
30	30	8
128	128	2
54	54	2
107	156	1
144	144	4
139	139	1
110	110	3
83	83	2
67	70	1
134	144	2
96	97	2
32	33	1
12	26	2
127	132	3
127	129	2
27	131	1
157	157	2
57	57	2
136	137	3
147	159	1
37	37	1
27	102	2
35	35	5
125	125	3
43	44	2
94	95	1
31	57	2
45	45	1
119	120	3
96	145	1
152	154	1
114	114	5
115	117	1
138	139	1
45	47	2
73	129	1
8	12	1
92	92	2
73	98	2
107	108	1
78	79	1
17	19	3
55	55	2
112	151	2
111	112	3
79	84	1
83	84	1
134	136	1
43	46	2
74	74	1
137	144	3
66	75	2
106	106	4
78	81	1
72	106	3
51	69	1
86	86	2
5	13	1
138	138	1
4	4	2
93	150	1
35	46	1
124	126	1
43	43	2
81	81	2
92	93	1
130	131	1
70	71	2
34	34	4
97	97	2
33	33	1
2	2	1
109	135	1
29	36	2
30	39	1
33	48	1
92	104	1
108	144	2
127	127	3
95	98	2
85	87	1
16	41	1
31	39	1
113	126	1
85	121	1
39	68	1
20	20	2
25	25	1
102	103	1
39	39	2
112	112	1
94	120	1
7	13	1
93	149	1
2	22	1
63	63	2
97	98	1
7	25	1
95	127	1
134	134	1
50	53	1
132	137	1
95	96	2
63	66	1
124	127	1
113	114	1
5	22	1
106	107	1
91	148	1
17	21	2
144	146	1
82	82	1
131	132	1
77	78	1
107	151	1
124	158	1
127	135	1
18	52	1
22	25	1
152	152	1
42	43	1
85	110	1
146	147	1
29	37	1
158	158	1
