144	144	11
39	54	4
171	204	2
211	211	10
64	65	4
24	24	17
3	3	1
49	49	14
3	46	3
56	56	9
53	53	6
35	35	4
74	75	5
1	27	2
119	119	4
62	88	1
72	105	5
107	107	13
38	42	3
238	238	7
7	7	5
9	9	13
13	19	5
179	179	7
104	107	2
2	3	4
29	33	1
60	60	5
124	124	1
137	137	3
201	204	5
79	89	5
193	193	12
95	134	4
189	189	7
39	39	12
225	225	7
223	225	5
138	138	5
6	8	1
113	113	2
96	96	1
129	167	2
61	61	4
20	20	6
138	182	5
145	145	8
218	231	2
191	191	1
219	219	12
6	7	5
173	173	6
24	25	5
146	202	2
140	140	4
62	65	3
140	157	3
15	56	3
44	85	3
26	56	8
62	62	4
145	146	8
52	54	3
236	238	3
95	135	2
15	15	1
82	88	4
2	2	7
123	232	6
207	214	3
71	71	8
76	76	7
120	122	4
31	35	3
192	192	8
133	133	6
99	99	6
234	234	3
34	34	1
19	19	4
4	4	7
74	74	13
172	172	2
30	37	3
55	79	4
81	126	3
195	222	5
38	47	3
121	121	8
187	187	7
82	86	7
116	139	2
57	57	6
113	127	2
63	88	2
164	165	3
133	136	1
117	118	2
67	106	4
28	79	2
118	118	9
8	8	5
125	125	5
115	138	3
117	119	1
72	72	4
123	124	4
120	120	7
156	185	2
161	161	3
46	46	3
23	23	7
169	169	3
160	160	15
143	143	9
150	182	2
222	224	1
31	31	18
163	163	6
104	104	4
158	161	4
75	75	7
237	237	18
71	72	8
215	215	6
137	177	2
178	178	3
204	214	2
103	138	4
50	50	9
204	205	2
142	142	6
67	105	8
82	82	3
25	59	1
239	239	4
144	145	6
209	215	1
4	7	2
81	108	5
199	201	2
141	142	4
84	86	3
121	138	3
186	221	1
63	66	5
235	235	10
194	195	3
157	157	2
197	205	2
73	73	5
101	101	4
7	8	4
10	10	13
149	170	4
182	182	7
23	237	2
121	184	2
117	139	6
168	168	7
174	174	5
41	42	2
198	232	6
241	242	1
0	42	2
78	78	3
71	114	4
143	163	1
51	51	1
154	219	3
213	213	2
240	240	7
41	41	5
128	128	10
130	130	4
221	221	4
186	186	2
151	181	1
222	222	10
211	213	6
77	77	2
164	164	8
110	110	5
78	79	1
148	219	4
195	195	4
153	153	5
102	119	2
117	138	4
139	139	1
42	46	2
22	236	1
146	146	2
28	68	2
142	143	3
45	68	3
42	42	4
208	208	8
96	99	3
141	141	2
51	54	1
64	64	3
16	56	2
36	36	6
30	30	2
124	125	1
140	161	2
28	62	5
154	186	1
43	43	4
84	84	4
29	74	3
32	33	3
108	126	6
63	77	2
102	102	5
95	95	2
217	217	5
199	199	5
109	109	10
27	27	3
167	167	1
122	152	2
44	69	4
197	197	4
105	105	4
151	151	3
140	179	1
214	214	5
15	60	1
129	168	3
104	138	6
54	55	1
53	55	4
66	66	4
154	233	3
26	26	2
171	172	2
42	55	2
159	184	1
14	57	5
236	239	1
148	205	4
230	230	2
188	215	3
148	148	2
11	11	2
122	151	2
59	59	4
15	16	3
185	185	5
115	158	1
12	21	2
234	235	1
17	24	3
135	137	1
44	50	1
190	190	3
13	21	7
223	223	11
36	50	2
160	188	4
101	138	1
83	83	2
123	125	4
130	169	5
192	193	3
147	147	2
114	114	1
170	170	5
51	85	2
108	109	1
163	165	1
227	227	7
13	16	1
208	210	6
12	12	3
151	205	4
110	118	4
203	203	3
171	171	4
131	131	3
153	197	1
39	53	2
228	229	3
213	215	4
30	74	1
28	38	3
123	150	4
127	127	4
65	66	1
218	221	1
71	104	2
152	156	1
126	127	2
79	80	5
180	180	3
207	207	2
230	231	2
3	54	1
35	48	4
123	123	2
222	241	1
17	25	3
36	37	1
184	185	3
161	188	2
62	74	2
150	159	1
224	224	1
210	211	4
1	3	2
49	50	4
152	152	3
126	126	3
20	58	1
17	17	3
232	233	8
115	115	1
164	211	3
131	170	3
233	233	7
204	204	4
21	60	2
183	187	3
109	127	1
226	234	4
82	151	2
32	32	2
242	242	2
17	21	3
211	216	1
143	169	2
31	33	4
174	178	2
197	204	1
99	100	2
28	29	2
65	105	1
233	242	1
192	211	1
65	65	1
178	219	2
149	180	3
128	178	1
100	168	1
166	166	3
44	45	5
136	136	4
42	45	2
1	1	3
121	162	1
167	169	3
30	31	1
218	218	4
143	162	1
189	208	2
155	214	1
152	202	2
106	136	3
28	43	2
44	44	2
58	59	3
26	54	1
33	36	6
142	150	1
226	226	1
198	199	1
210	210	2
200	201	2
76	80	4
28	81	1
158	159	1
38	41	3
18	18	2
68	68	2
14	14	2
25	25	2
145	218	1
228	228	5
134	134	3
46	52	3
80	80	1
143	176	1
148	218	3
150	181	1
56	235	3
34	104	1
32	49	4
84	217	4
29	35	1
135	135	4
130	131	2
121	183	2
192	225	1
81	88	3
184	184	1
212	212	1
236	236	3
147	188	1
61	69	3
39	60	1
201	203	2
224	238	2
69	85	5
233	234	2
30	33	2
17	19	2
115	178	1
109	118	3
103	104	1
206	206	1
194	196	2
196	196	3
236	237	4
124	148	1
31	32	1
229	229	5
240	241	1
81	91	2
151	221	1
129	129	2
85	85	2
224	239	2
45	85	1
153	215	3
181	182	2
226	229	3
45	84	1
141	183	1
160	170	1
195	225	1
223	224	2
70	115	2
48	48	1
202	202	1
189	214	3
203	204	4
194	194	1
198	214	1
5	6	1
179	209	1
157	220	3
197	231	1
0	45	2
33	33	5
207	212	2
190	208	1
97	97	2
155	189	1
188	188	2
22	22	1
46	59	1
80	86	1
92	104	1
100	100	2
1	46	1
205	206	1
80	84	4
97	134	1
185	186	1
54	54	1
69	69	3
201	201	4
196	242	1
157	181	3
55	241	1
38	39	1
232	242	1
129	172	2
188	210	1
141	143	1
230	232	1
68	69	1
101	174	1
52	52	1
51	55	1
173	174	1
149	179	1
63	63	1
29	69	1
162	166	1
11	14	2
50	79	1
142	179	1
19	58	1
109	110	2
81	81	1
61	66	1
4	18	1
61	62	1
149	149	1
232	232	2
106	106	1
235	238	1
170	179	1
11	12	1
193	213	1
218	219	1
13	18	1
57	60	1
