77	77	10
127	127	8
99	99	7
27	28	3
18	18	9
108	108	7
2	5	2
87	87	3
31	31	6
29	29	8
30	30	4
4	4	12
85	86	7
121	122	2
122	122	12
93	93	7
36	36	17
95	96	3
128	128	6
95	95	8
78	78	7
129	129	5
112	113	7
22	25	1
14	15	3
33	33	15
114	114	6
118	121	2
2	2	12
118	119	1
75	77	1
10	10	6
7	8	2
106	107	8
139	139	5
7	9	4
22	23	10
1	1	6
132	132	13
123	123	20
103	103	3
35	35	8
25	26	4
7	7	6
6	6	5
16	16	10
80	80	8
124	124	10
20	20	12
106	106	3
93	94	8
2	4	6
3	3	3
0	0	6
121	121	9
28	29	2
91	93	1
131	131	12
133	133	4
123	124	1
105	105	10
90	90	3
8	8	24
25	25	11
35	36	1
117	117	9
134	134	17
112	112	11
111	117	2
84	116	2
37	37	7
120	121	2
125	125	2
106	116	3
80	125	4
84	84	9
87	105	2
34	34	5
5	16	6
83	116	4
28	28	7
104	104	5
27	29	1
130	130	3
32	35	3
137	137	13
81	112	1
27	27	4
88	88	2
101	109	6
113	113	7
19	19	4
72	72	10
31	33	2
89	104	3
76	77	5
100	100	6
134	139	3
84	114	1
89	90	3
19	20	6
117	119	1
86	86	5
84	125	2
108	109	9
133	134	4
83	84	2
126	126	7
99	111	5
99	100	2
13	13	11
125	130	1
86	88	2
38	38	4
22	22	8
89	93	2
26	26	4
1	3	2
32	85	2
91	91	6
15	15	3
115	115	7
76	125	2
73	75	3
17	17	7
23	73	1
119	119	6
23	23	6
20	21	4
111	114	5
105	106	4
5	5	11
10	15	3
125	126	5
13	14	1
102	103	3
122	123	2
76	76	1
12	14	5
79	79	3
90	91	2
34	38	2
87	117	1
88	119	2
21	122	1
12	12	3
124	128	1
81	82	5
12	24	2
32	32	5
136	136	4
96	97	2
81	81	4
75	75	8
109	109	7
83	94	3
72	109	4
85	85	3
39	39	2
30	31	2
131	132	6
11	12	4
94	94	3
98	98	2
116	116	3
9	11	1
27	119	2
89	109	2
120	120	3
129	130	4
10	11	4
74	74	2
98	99	4
15	16	2
97	105	1
89	89	5
3	30	2
132	133	6
107	108	3
86	113	1
17	19	1
73	73	10
21	22	2
99	102	1
84	113	1
22	73	4
102	102	4
110	113	3
91	92	3
78	80	5
102	114	1
71	71	5
92	93	1
31	32	2
11	11	3
77	127	3
87	88	1
91	95	1
128	129	2
77	78	1
24	25	2
109	115	3
30	32	2
89	91	2
11	13	1
98	100	1
104	107	2
86	87	1
138	139	2
108	114	1
96	99	4
140	140	7
118	118	7
44	44	1
28	111	1
24	27	2
122	125	1
121	123	1
124	126	1
103	104	5
82	82	1
127	128	2
118	120	1
0	31	1
18	73	2
101	102	1
101	103	1
80	81	3
3	4	3
0	1	1
20	74	5
18	35	3
71	109	1
17	31	2
84	85	1
2	3	2
103	108	1
104	117	1
31	35	1
96	96	4
15	35	1
114	128	1
12	13	3
89	97	1
91	94	1
139	140	1
4	6	3
21	121	1
97	97	3
78	128	1
137	138	2
79	100	4
111	130	1
14	30	1
19	22	1
97	101	1
24	24	3
126	127	2
12	36	2
19	21	1
16	34	1
14	14	1
33	38	2
4	12	1
20	22	1
86	89	1
111	111	1
33	71	1
108	125	1
82	125	1
86	118	1
101	101	2
19	68	1
29	112	1
110	111	1
19	28	1
123	132	1
66	66	1
86	130	1
82	110	1
96	107	1
92	96	1
