54	55	4
47	48	3
135	139	4
126	128	3
111	111	5
141	141	7
11	11	8
125	125	3
55	55	3
119	119	2
16	16	5
104	105	2
59	59	10
71	80	1
114	114	1
55	101	2
136	136	4
139	139	5
75	77	2
138	138	1
22	28	3
62	124	1
55	56	4
65	66	4
108	120	3
122	127	4
31	32	3
75	76	4
60	61	3
29	32	3
14	14	5
2	2	11
103	103	2
13	13	3
52	53	1
42	42	9
71	71	9
113	116	2
54	72	2
41	41	11
123	124	4
109	109	10
127	127	10
50	50	4
93	94	2
124	125	4
50	81	2
39	39	6
128	140	1
117	117	5
85	86	4
52	52	1
57	74	1
93	95	2
63	63	5
98	98	8
33	33	9
91	91	7
56	137	3
99	99	12
82	88	1
0	63	2
92	143	1
94	94	7
48	48	9
132	132	1
93	99	1
101	143	1
36	36	1
17	17	11
52	80	1
38	38	5
123	141	5
90	91	4
49	51	4
116	116	4
118	120	2
21	33	1
70	70	7
68	69	2
47	47	10
97	98	3
101	101	2
35	36	2
2	69	1
139	143	4
137	137	1
139	140	2
66	73	1
74	74	2
69	69	4
109	132	5
18	20	4
4	19	3
124	124	8
72	72	2
126	142	1
107	132	2
84	86	2
88	89	4
130	136	1
58	58	4
122	122	2
27	28	2
105	134	4
87	87	7
57	58	1
30	33	1
107	108	2
43	43	5
100	116	2
51	53	4
128	128	9
83	83	2
21	21	3
12	97	5
22	26	1
19	19	5
61	66	1
96	96	6
5	40	3
107	109	1
28	28	6
144	144	5
88	128	4
29	29	3
81	81	3
127	128	2
24	24	1
51	51	3
104	118	2
52	71	1
113	113	7
63	70	3
83	84	2
73	73	4
121	125	2
25	26	5
25	27	1
66	67	1
123	123	9
23	23	3
26	27	1
9	9	5
17	19	2
28	29	1
134	140	3
88	90	4
4	35	4
1	5	3
82	101	2
52	55	1
37	37	4
117	126	2
72	73	6
32	32	3
49	93	1
134	134	4
96	97	4
81	143	2
104	104	2
119	120	7
135	137	1
64	64	1
133	133	3
99	100	1
76	76	2
137	140	1
1	1	3
135	136	3
107	142	1
68	70	3
120	120	4
5	36	3
102	104	1
3	3	3
126	126	4
75	75	4
37	93	2
49	49	1
100	100	1
57	57	5
118	118	4
85	85	2
122	141	2
55	73	3
121	124	1
80	80	3
79	85	2
138	139	1
27	27	4
65	69	2
62	62	4
56	136	2
88	88	1
28	32	2
48	96	2
3	4	4
50	51	2
112	114	6
58	59	3
71	146	4
66	66	1
110	110	3
101	133	1
60	60	4
77	79	2
87	88	1
10	10	3
37	41	1
118	119	2
8	8	3
126	127	4
40	41	4
125	130	3
59	141	2
116	117	2
14	23	4
4	5	1
14	17	1
29	31	1
102	102	2
61	61	6
15	15	2
63	64	2
40	40	1
135	138	3
9	18	3
47	96	4
133	134	2
98	99	1
92	92	3
22	22	1
70	71	1
11	13	2
56	57	1
84	85	1
8	20	2
131	132	4
48	51	1
117	118	1
121	121	2
33	34	4
93	93	1
34	34	2
17	41	2
18	18	2
64	65	2
121	141	1
140	140	2
54	54	2
106	135	3
74	112	2
89	89	1
143	143	1
107	107	2
68	68	3
1	3	2
11	43	1
56	73	1
18	36	2
25	25	2
84	100	1
52	81	2
134	138	1
79	79	2
84	84	2
123	137	1
122	136	1
130	131	4
78	78	1
105	105	1
6	30	1
135	135	1
129	130	1
65	65	1
48	49	1
24	29	1
41	42	1
24	36	2
35	35	3
12	96	1
57	143	1
80	86	2
129	129	1
56	56	1
86	86	1
59	60	1
138	140	1
67	68	1
105	133	1
30	30	1
1	36	1
87	90	1
