89	90	1
40	40	2
22	22	10
67	67	3
56	96	6
1	35	3
55	55	8
103	139	1
128	128	2
137	137	3
19	19	5
37	37	5
21	21	7
35	35	5
29	29	5
92	117	5
102	116	2
134	134	6
92	92	5
55	74	1
79	79	6
141	141	10
96	97	5
70	75	2
111	112	8
17	17	19
97	97	5
108	108	2
38	38	3
122	123	5
101	102	3
13	33	1
69	69	3
53	53	4
105	105	2
82	83	3
58	59	3
59	61	3
67	68	2
117	118	3
93	94	4
55	56	5
3	35	1
28	29	4
98	100	2
100	100	3
121	123	2
124	124	6
25	25	2
107	107	1
52	52	2
122	122	3
117	117	4
74	75	1
135	135	1
77	77	4
85	86	1
103	134	1
70	99	1
11	11	5
85	85	4
126	140	1
142	142	4
57	57	5
75	75	3
79	80	7
41	42	4
27	27	7
42	42	3
12	12	4
121	121	3
43	43	2
111	111	1
128	135	1
125	125	5
64	81	1
0	1	1
51	51	5
17	18	3
116	116	4
92	93	7
78	78	6
63	63	5
89	117	1
72	72	4
8	8	8
58	58	4
70	70	4
119	119	3
91	91	1
48	48	3
57	58	1
13	15	1
81	81	4
66	67	2
112	112	4
0	0	2
86	86	6
18	18	3
106	106	4
87	87	4
110	127	1
110	110	2
15	15	4
34	36	4
17	54	2
123	124	2
144	144	1
97	98	1
30	63	1
102	103	2
111	131	2
0	21	1
54	55	2
62	62	7
13	16	2
129	129	1
18	54	1
56	97	2
2	2	1
5	5	5
73	74	4
6	17	2
77	78	5
25	30	1
78	79	1
143	143	2
76	80	2
32	32	1
0	43	1
99	99	3
9	10	1
96	96	3
59	60	2
28	57	2
107	108	1
124	125	1
68	68	3
23	23	1
28	28	1
31	31	8
56	57	2
88	88	2
95	98	2
13	13	3
105	106	1
9	9	2
18	49	1
14	14	2
93	93	2
145	145	1
23	25	1
4	47	2
125	126	2
119	121	1
140	140	1
74	74	2
138	138	3
70	95	1
60	60	4
36	36	5
30	31	1
18	52	1
89	89	2
120	120	2
80	80	3
98	99	1
20	20	2
22	25	1
68	101	2
41	41	3
132	133	1
143	144	2
10	11	3
83	109	1
32	33	1
53	54	1
27	28	2
98	98	3
10	10	7
140	141	3
8	19	1
56	56	4
130	131	2
118	133	1
128	136	1
110	111	1
24	24	1
49	49	3
57	85	1
3	3	2
69	70	1
115	115	3
84	84	1
102	102	1
35	43	1
99	100	2
93	95	2
131	131	1
29	30	2
65	65	1
139	140	1
101	101	2
30	30	2
66	66	2
76	76	1
34	34	4
68	99	1
56	75	1
33	33	4
22	30	1
104	105	1
141	142	1
54	54	2
145	146	1
21	47	1
104	104	1
1	1	1
114	114	1
90	90	1
61	61	1
64	64	1
84	94	1
4	36	1
120	132	1
94	94	1
118	118	2
14	25	2
59	59	1
49	50	1
71	71	2
61	98	1
17	79	1
71	95	1
21	22	1
70	98	1
138	139	1
130	130	1
104	106	2
95	97	1
11	22	1
40	41	1
107	109	1
37	40	1
71	72	1
136	136	1
91	92	1
123	123	1
16	16	1
