106	106	4
229	229	4
96	96	3
212	212	8
214	225	1
210	210	9
208	209	3
8	8	4
107	107	8
225	225	7
188	224	7
81	81	4
116	116	3
113	210	3
53	223	4
68	68	1
73	73	2
195	196	1
40	40	5
226	236	1
165	181	3
211	211	3
15	15	4
94	107	1
244	246	5
21	21	4
153	248	5
170	170	3
230	242	2
163	210	3
177	182	6
58	58	2
175	213	3
85	97	2
240	240	7
70	70	9
47	179	1
71	79	1
227	227	6
26	26	8
49	49	6
160	160	4
154	154	3
236	236	4
185	186	1
72	74	1
118	118	6
203	203	7
234	234	5
14	15	2
209	209	2
55	55	9
203	228	1
27	27	4
52	223	4
45	46	1
157	160	5
91	93	8
93	118	7
9	16	3
193	193	1
77	77	4
220	221	4
52	81	2
69	70	3
40	41	3
90	94	2
144	148	1
58	75	2
170	175	2
234	240	2
19	19	5
156	156	5
72	72	2
168	171	2
2	3	1
240	245	3
64	65	1
49	50	8
156	249	3
187	187	4
145	150	1
18	18	7
78	78	6
176	176	3
174	174	2
104	104	4
43	43	4
197	197	8
163	163	3
69	69	1
77	78	1
178	178	2
24	24	4
71	82	3
28	32	3
114	114	3
96	98	7
193	215	1
213	215	4
60	62	8
60	60	5
16	16	3
25	25	6
28	29	2
242	242	11
71	80	1
75	75	4
172	197	3
146	147	2
93	93	2
5	6	4
34	35	4
200	200	6
34	181	1
247	248	1
115	115	4
48	48	10
245	245	5
113	113	10
70	75	3
74	74	5
117	117	3
182	213	1
36	36	5
198	198	4
11	17	2
197	198	3
56	56	2
170	235	3
38	51	2
161	161	2
9	14	2
224	224	3
98	98	5
64	67	3
181	210	1
194	220	1
229	233	3
57	57	8
205	205	1
4	34	3
50	50	2
64	218	2
200	205	3
80	81	3
232	232	7
245	246	1
65	81	4
238	238	6
52	52	2
116	154	5
191	191	4
165	190	3
177	177	1
46	46	5
224	225	1
157	159	2
33	45	1
217	230	2
30	33	2
53	53	8
109	109	3
108	118	2
230	230	7
63	67	2
168	169	2
64	69	1
88	94	1
175	197	4
95	100	4
204	207	2
87	87	4
5	30	3
186	186	2
65	65	3
243	243	1
12	12	3
70	72	3
74	79	2
167	167	1
189	191	1
31	34	2
81	212	2
120	120	1
9	9	4
240	241	3
95	95	3
236	237	4
195	195	5
71	71	1
31	31	3
234	244	5
42	42	2
44	44	1
236	245	1
91	91	4
23	23	4
220	220	4
111	119	3
82	82	3
92	106	3
11	11	1
85	85	1
166	166	1
5	7	3
177	183	1
30	31	1
89	91	2
241	241	7
9	15	4
219	219	3
159	159	2
41	41	4
162	162	1
45	45	3
218	219	1
215	215	4
7	7	8
201	201	2
194	217	2
93	119	3
188	188	2
116	117	2
82	83	2
166	248	2
213	213	4
64	64	3
31	155	3
203	204	2
3	54	2
97	98	3
32	45	2
51	51	1
29	29	2
184	184	6
6	6	1
58	60	1
192	192	3
178	183	2
68	179	4
65	76	1
218	218	2
28	36	3
169	171	3
75	83	1
234	246	2
10	25	1
11	18	1
235	235	1
202	202	2
67	67	4
76	191	1
61	61	1
71	83	1
78	118	1
7	15	1
8	9	2
35	36	1
169	225	2
149	149	5
20	20	1
153	153	2
90	109	2
80	83	1
57	80	1
94	94	4
55	120	1
19	20	1
99	99	3
76	76	2
239	244	2
31	115	1
183	183	2
193	194	1
4	5	7
210	217	1
228	230	2
190	190	1
56	82	1
11	27	4
120	145	1
56	69	1
218	230	1
90	90	1
63	63	5
44	47	2
144	145	1
175	175	4
236	244	3
4	4	1
17	26	1
208	230	2
10	10	6
97	97	1
5	49	1
179	212	1
214	215	4
212	222	1
8	63	2
92	119	1
191	212	2
41	62	2
238	240	2
62	62	3
3	33	1
108	110	2
58	72	1
188	210	1
47	47	2
157	176	1
47	49	1
206	238	1
81	83	3
84	92	1
71	75	2
9	51	2
17	17	3
166	184	1
61	62	1
187	189	1
188	194	1
182	186	1
12	31	2
244	244	1
107	118	4
2	54	2
151	151	2
110	110	1
90	93	1
228	233	1
66	69	1
30	34	4
204	216	1
155	155	1
55	100	1
28	28	2
23	114	2
243	247	1
194	194	1
210	238	1
77	192	1
200	201	1
167	179	1
57	79	2
38	39	1
1	27	1
179	179	1
164	165	1
57	59	2
231	231	1
37	42	1
180	180	1
221	221	1
59	62	1
66	75	1
59	59	1
171	171	1
101	101	1
147	147	1
172	199	1
195	224	1
46	51	1
106	107	1
73	121	1
213	226	1
165	165	1
106	118	1
17	18	1
52	53	1
240	242	1
