42	42	6
45	73	2
145	167	1
113	114	2
112	118	1
87	87	5
91	92	5
42	71	2
57	57	15
174	175	7
78	79	7
21	23	3
12	19	4
53	73	7
55	55	3
72	72	5
81	81	12
38	39	6
173	174	5
123	123	17
53	55	1
152	153	10
154	154	12
138	139	4
160	168	2
157	157	9
129	130	5
106	107	1
127	153	1
121	122	5
120	120	19
128	141	2
163	163	6
43	43	5
136	137	4
147	147	10
101	102	3
94	94	9
22	22	7
3	57	2
134	134	18
160	167	6
71	105	5
160	160	6
135	140	2
40	42	1
76	76	16
85	85	17
79	79	9
144	144	15
148	148	10
125	154	3
141	141	5
188	188	7
47	72	2
85	88	3
159	159	3
1	141	2
15	15	7
79	80	1
112	112	12
78	78	8
52	52	2
21	21	7
122	123	7
58	59	4
6	6	17
155	155	7
19	46	5
2	2	4
66	70	5
88	89	5
33	33	15
117	117	2
59	59	13
131	131	2
14	14	10
0	0	3
148	149	8
151	151	9
23	23	3
122	155	3
130	130	11
67	67	8
104	147	1
12	23	2
169	169	8
28	29	2
143	144	4
172	172	18
124	128	3
10	73	3
39	39	13
113	177	2
6	7	5
145	157	3
90	90	10
32	32	3
58	58	7
132	134	1
185	185	5
60	61	1
166	167	5
132	132	4
39	41	1
72	73	3
173	173	3
182	183	12
109	109	8
155	156	6
70	70	8
168	170	3
180	180	7
92	92	7
91	91	4
88	88	3
153	169	3
158	159	5
5	5	11
139	139	6
54	55	5
99	99	16
58	60	3
125	125	6
60	60	3
17	17	16
73	73	5
13	37	2
152	152	13
66	66	12
41	41	4
109	122	2
176	176	16
157	158	4
41	43	3
26	26	12
131	159	7
96	96	14
119	119	7
15	35	1
36	37	6
16	17	10
48	56	3
179	179	5
7	7	7
7	9	2
127	127	6
77	78	2
169	173	2
6	41	3
16	16	7
40	40	4
75	78	3
105	105	4
110	154	1
183	183	7
5	66	3
137	137	6
93	100	2
12	13	2
37	37	3
170	170	8
18	33	4
140	140	9
95	95	3
132	133	3
114	114	2
15	19	2
28	28	3
116	116	7
167	189	8
101	103	5
40	41	4
115	115	5
43	44	5
174	174	14
165	166	1
9	10	1
94	174	1
17	39	2
20	20	2
150	151	5
56	56	6
9	12	2
162	162	3
54	73	3
159	169	4
94	135	3
62	137	2
125	126	1
153	154	4
48	65	2
33	34	3
42	73	3
172	176	5
34	34	7
153	153	5
95	109	2
45	45	2
182	182	5
96	178	1
175	175	8
182	184	3
47	47	3
16	29	2
117	121	1
153	170	4
38	38	10
83	83	8
129	162	4
109	155	3
146	148	2
21	29	1
84	85	4
186	186	2
132	142	1
126	126	1
68	68	11
143	143	4
165	165	1
46	73	1
122	167	3
89	90	3
175	176	2
177	177	4
145	145	4
107	107	3
45	47	4
181	181	5
44	45	3
53	53	5
148	150	3
0	1	3
184	184	6
19	47	4
150	150	5
81	110	1
187	187	5
38	57	1
15	16	5
29	30	2
110	111	2
169	170	2
2	8	2
11	23	1
89	89	6
113	113	4
19	19	3
124	124	7
53	54	7
56	57	1
118	118	4
26	34	1
25	25	16
95	96	2
18	18	4
97	98	4
13	13	5
27	28	1
164	164	11
18	34	1
116	153	4
80	83	2
99	179	1
3	4	3
66	68	1
45	46	2
109	176	2
189	189	4
138	138	3
140	141	2
100	100	4
114	119	1
130	131	1
133	134	4
164	167	2
62	124	2
19	48	1
40	48	2
4	4	2
156	159	2
101	101	4
52	53	2
19	20	6
160	161	2
3	3	5
154	169	1
48	48	11
56	105	4
116	118	3
91	135	6
138	142	1
114	117	2
90	139	4
137	139	2
98	102	3
4	7	2
41	42	1
1	1	9
25	26	2
126	144	2
120	121	5
97	100	1
31	33	1
64	64	4
171	171	5
93	93	2
58	100	1
86	86	5
100	101	6
102	104	1
75	76	1
82	82	5
190	190	5
71	71	3
84	84	7
74	74	2
60	93	2
55	67	1
26	35	1
37	38	2
97	97	7
63	64	3
62	65	1
141	144	2
48	55	1
123	177	3
98	138	2
22	27	1
8	37	1
36	36	2
86	88	1
154	173	2
80	86	1
110	183	2
181	186	3
9	23	1
132	145	2
167	167	2
80	80	1
113	123	2
0	127	3
110	112	1
31	37	2
129	129	3
106	106	2
66	77	3
18	19	4
133	142	3
166	166	5
161	162	1
19	23	1
115	121	1
48	78	1
108	108	2
95	174	2
24	32	1
89	91	2
10	10	5
122	122	1
144	145	2
12	12	1
107	122	3
2	3	2
61	139	2
163	164	3
149	149	5
76	78	1
125	127	4
18	38	1
4	68	2
121	121	2
46	47	3
17	24	2
122	159	2
158	158	1
159	160	2
122	127	4
27	27	5
6	17	1
180	186	2
82	83	1
100	102	1
95	104	1
2	106	1
13	23	1
47	48	3
49	49	1
33	35	2
146	146	2
78	85	1
31	31	1
20	21	1
40	68	1
103	104	1
24	44	1
126	127	2
187	188	1
57	58	4
13	14	3
105	145	1
30	30	1
61	91	2
166	168	1
109	111	2
75	80	1
29	29	3
114	115	1
117	119	1
156	156	3
35	35	6
95	97	1
186	187	1
59	63	1
95	111	1
160	166	1
7	10	2
61	61	1
65	107	1
185	187	1
164	189	1
93	105	2
54	54	1
7	66	1
93	172	1
111	118	2
125	153	2
155	176	2
62	62	1
85	86	1
98	103	1
87	88	2
23	24	1
90	91	1
111	111	2
89	105	2
119	120	1
31	70	1
101	152	1
62	63	2
69	69	1
178	178	1
172	174	1
104	104	2
65	65	1
117	120	3
119	167	1
156	157	1
115	116	1
162	166	1
17	28	1
15	21	1
153	172	1
