38	39	6
65	69	3
43	43	20
25	33	2
65	66	4
96	96	12
36	41	4
61	61	11
91	91	16
94	95	4
47	47	16
59	62	8
108	108	9
46	106	5
95	102	1
61	67	5
98	99	6
44	44	4
100	101	4
78	78	19
51	51	18
46	112	2
106	106	5
40	41	11
112	112	13
35	41	5
75	75	22
89	97	4
100	100	17
92	102	1
39	40	4
20	22	4
33	33	16
103	104	12
53	53	12
93	93	7
35	36	8
30	30	9
59	89	3
36	74	1
34	36	3
32	33	3
28	28	10
81	84	3
46	109	2
37	91	2
69	85	3
111	111	12
90	90	5
88	88	8
50	50	8
84	85	11
46	46	9
66	66	6
95	95	13
100	102	1
103	106	5
79	79	15
86	89	3
83	86	1
46	101	3
27	28	7
89	89	4
97	98	4
22	22	7
57	57	9
25	25	6
70	70	9
88	97	5
81	81	11
34	41	5
86	86	4
98	98	11
73	73	5
28	29	6
85	85	7
89	90	8
53	54	7
58	97	5
76	77	8
23	107	1
35	100	5
97	110	2
39	99	6
38	87	5
55	55	7
32	32	7
68	70	2
77	77	12
75	81	3
21	108	1
113	113	10
26	26	10
51	65	2
56	90	5
55	56	6
38	38	15
45	45	9
63	94	2
40	40	9
49	83	1
37	42	4
48	49	10
58	58	6
47	49	9
60	60	7
64	64	3
78	79	12
58	59	16
72	72	9
71	71	11
114	114	5
102	102	7
29	29	16
106	108	2
36	36	12
90	91	12
21	21	12
30	31	2
38	47	3
27	27	5
45	113	1
107	107	5
45	111	4
85	91	4
97	99	3
41	42	8
52	52	6
23	32	1
35	35	9
95	96	1
22	29	6
38	88	2
56	56	3
100	103	1
47	48	6
51	52	17
28	32	5
83	85	2
108	111	1
34	34	9
51	53	1
31	32	3
94	94	4
80	81	6
105	106	1
34	35	3
19	19	5
105	105	4
76	76	14
41	41	7
42	43	1
99	99	5
86	102	4
37	37	14
63	63	7
96	111	7
92	92	7
44	107	2
21	106	3
25	32	8
29	30	6
61	62	15
68	69	14
80	80	9
67	67	11
67	84	2
104	104	13
103	107	1
48	48	6
52	109	1
66	67	8
24	24	7
20	21	4
92	94	4
75	76	5
101	101	13
42	42	10
101	102	9
37	38	6
49	50	4
82	82	6
110	111	2
52	110	1
93	95	2
68	73	4
66	68	6
59	94	2
97	97	8
77	79	3
65	79	2
29	34	5
71	73	1
40	54	2
107	108	3
59	87	1
82	85	4
55	57	2
54	55	8
24	25	1
85	86	9
74	74	4
23	23	7
106	107	2
43	104	3
88	89	12
27	68	6
79	80	2
52	105	3
21	101	1
31	31	7
51	55	4
43	51	1
83	84	3
43	90	3
73	74	7
37	87	3
41	80	1
39	43	1
103	103	7
33	34	8
49	55	1
53	109	2
28	108	1
89	91	12
85	88	4
68	68	3
83	83	8
65	65	3
110	110	7
104	105	1
37	57	4
39	87	3
103	108	4
78	80	5
63	64	3
109	111	4
109	109	5
49	57	5
105	109	2
39	54	2
38	40	3
39	39	12
60	64	1
82	83	1
26	69	4
104	107	1
57	109	3
27	30	2
40	50	1
50	54	2
57	93	2
69	69	12
40	51	2
104	106	4
85	94	1
20	20	4
64	65	2
111	112	1
59	63	1
81	88	3
85	92	3
109	110	5
24	32	1
85	89	3
38	48	1
36	42	1
44	113	2
22	30	1
36	47	1
111	114	6
34	37	2
58	62	1
59	59	8
103	105	1
42	44	1
111	115	2
50	51	1
98	107	1
63	65	3
61	94	2
21	95	1
51	54	4
82	87	2
57	97	2
105	107	1
36	113	1
107	109	3
93	94	6
54	99	3
92	98	2
55	60	1
75	77	1
32	78	1
49	49	1
45	53	1
28	33	1
24	31	3
84	84	4
47	56	3
80	84	1
87	87	1
74	75	1
21	22	1
71	72	2
54	54	1
22	23	2
88	102	1
69	72	2
94	98	1
104	108	2
95	111	2
65	70	3
49	84	1
27	33	3
44	105	1
28	72	1
98	106	4
38	91	1
49	56	2
62	62	3
33	36	2
24	26	3
61	64	1
70	73	1
56	57	1
77	78	1
96	98	1
22	107	3
87	88	1
91	92	2
43	113	1
36	75	1
37	75	1
41	50	2
19	20	2
69	70	1
28	36	2
69	71	2
42	55	2
58	60	2
61	63	1
38	90	1
20	26	1
66	72	2
87	91	1
96	99	1
95	98	1
45	51	1
58	63	1
108	110	1
37	40	1
59	108	1
54	57	1
40	60	1
106	109	1
76	81	1
41	57	2
75	93	3
62	65	1
40	91	1
86	99	2
105	110	1
23	26	1
38	59	2
40	100	1
37	41	1
56	110	1
66	69	1
50	52	1
65	67	1
67	81	2
98	110	1
60	88	1
19	26	1
47	50	2
26	68	1
65	72	1
63	95	1
74	84	1
43	50	1
