107	109	2
83	83	5
12	12	6
67	67	34
17	17	28
77	79	4
83	84	3
118	118	32
99	100	7
132	132	35
144	144	9
54	54	25
39	39	26
133	133	17
87	93	2
5	5	8
50	50	34
114	114	28
124	127	3
135	135	23
48	51	3
125	136	1
78	78	10
40	50	1
61	62	6
46	46	21
112	112	6
40	40	33
44	44	7
121	121	15
97	97	13
19	19	37
7	14	2
126	128	7
117	117	19
76	76	7
54	74	3
10	11	3
128	128	11
129	129	9
82	82	14
119	119	13
125	127	5
107	111	2
39	41	3
45	45	19
102	102	6
96	122	5
51	57	5
34	34	5
113	113	12
137	137	9
138	152	7
108	108	24
43	43	11
74	75	3
111	114	4
16	17	6
78	79	2
115	115	10
145	148	4
122	122	23
151	151	20
154	154	19
95	103	2
121	122	7
127	127	13
72	73	4
107	107	29
118	119	2
123	123	23
27	28	3
27	27	20
47	50	1
74	96	2
24	24	16
18	18	29
23	23	23
81	82	2
140	140	11
68	68	10
104	104	16
42	43	3
129	130	11
47	123	1
35	35	11
20	21	11
16	16	15
100	100	8
85	86	6
25	25	7
95	95	9
49	53	1
22	22	19
4	4	11
11	11	9
48	49	5
131	140	2
100	122	4
37	40	1
150	150	26
107	139	1
20	22	8
120	120	10
62	99	1
143	143	19
128	129	5
147	147	13
80	84	6
84	84	17
2	5	2
30	30	12
127	144	2
40	41	6
4	5	5
71	71	16
47	47	30
63	63	14
96	96	8
148	148	8
46	124	3
153	153	22
94	94	10
127	151	4
136	138	2
149	149	29
7	7	15
115	116	9
139	140	8
70	73	4
106	106	24
36	37	4
36	36	12
150	151	5
85	85	22
21	22	5
127	145	3
141	141	19
48	48	17
109	109	12
41	41	17
86	96	1
86	112	3
136	136	16
57	57	12
109	110	5
101	101	5
10	10	11
53	56	3
14	14	16
152	152	25
11	12	1
37	45	2
18	24	4
4	27	5
86	100	1
87	94	3
55	56	13
40	47	3
49	50	8
107	136	3
54	55	3
13	15	2
33	58	2
103	122	3
33	33	15
90	90	7
106	150	3
29	30	2
126	144	1
85	93	5
123	124	10
37	49	3
132	133	6
35	49	1
146	147	8
131	132	3
53	53	24
38	40	5
128	131	2
138	139	3
76	153	1
56	56	11
131	131	29
139	139	25
32	36	4
122	123	14
51	51	8
103	103	8
76	77	5
150	152	6
145	146	5
73	74	3
29	29	17
110	123	4
149	150	24
69	76	7
70	70	17
95	99	2
64	91	8
74	74	14
125	126	3
18	19	15
146	146	10
142	145	10
103	104	8
55	63	3
107	120	5
45	46	2
101	103	2
110	110	9
49	122	3
65	65	13
6	6	13
32	32	9
75	77	2
135	139	1
41	50	1
96	114	1
110	111	6
70	74	5
98	99	8
98	98	13
81	81	4
34	121	1
75	87	1
107	125	5
37	129	1
69	154	9
38	43	1
53	152	2
79	83	5
152	153	5
61	61	1
21	21	11
55	62	1
111	111	6
120	123	5
63	64	3
137	138	9
106	107	3
9	9	11
20	20	11
145	145	12
80	81	4
106	139	1
70	114	7
111	141	2
73	73	11
134	134	13
51	53	1
84	117	3
33	34	4
75	75	11
41	46	1
146	154	1
53	54	1
153	154	5
116	117	3
69	70	3
13	13	12
152	154	5
34	35	4
39	40	2
74	76	3
149	151	5
138	138	12
149	154	3
82	83	8
117	122	1
124	124	6
6	7	4
63	92	1
38	38	6
17	18	11
15	15	4
36	49	4
55	66	4
24	25	8
37	149	2
92	96	4
108	113	3
66	66	19
104	105	2
36	147	3
126	142	2
95	96	7
33	36	3
111	112	2
89	98	5
74	154	3
62	66	2
99	99	7
69	69	13
15	16	9
133	134	5
106	125	2
37	37	8
105	105	6
23	24	13
16	19	3
86	102	1
84	85	6
93	94	1
64	113	1
69	73	3
79	79	13
32	148	4
53	75	1
76	119	6
8	10	2
31	31	9
64	74	2
63	93	4
112	139	3
62	63	3
150	153	6
130	131	1
104	121	4
116	116	18
72	72	2
105	121	2
56	58	1
39	44	2
80	117	1
22	23	4
73	75	6
86	86	14
74	123	4
75	80	2
19	27	1
125	125	4
130	130	8
10	15	1
48	122	3
62	98	2
102	122	1
62	62	12
113	114	6
84	94	4
47	122	1
147	148	7
10	12	1
3	27	3
151	152	7
147	149	3
77	77	5
136	137	3
141	142	7
108	141	1
148	154	2
28	28	8
34	65	2
104	119	1
64	64	9
52	58	1
119	121	2
145	147	3
44	45	1
5	7	3
140	149	1
44	56	1
135	136	3
21	25	2
76	80	3
87	88	3
134	136	2
54	113	1
113	122	3
6	8	2
62	85	2
87	87	7
131	139	1
42	48	1
140	141	1
26	27	3
44	126	2
133	136	2
43	44	3
112	114	2
57	149	2
91	91	1
86	88	1
123	125	1
55	122	1
54	63	2
94	97	2
44	152	1
13	14	1
107	108	2
133	135	2
19	20	3
3	3	4
107	123	1
42	42	6
141	143	1
51	149	1
90	122	2
112	113	4
84	93	1
106	122	1
119	125	1
129	147	2
126	126	8
44	51	3
47	49	1
16	18	1
15	19	1
96	97	4
93	93	3
107	138	1
74	114	2
49	49	4
33	35	4
127	150	5
104	120	1
21	26	1
49	51	4
67	71	1
130	143	2
58	58	2
63	67	2
2	2	4
77	87	2
69	72	2
71	74	3
89	102	4
9	12	1
68	150	1
35	36	3
105	120	2
52	57	1
80	80	5
23	25	1
142	144	1
126	146	3
34	36	2
85	102	1
55	55	1
35	151	1
96	119	2
40	49	2
71	81	2
48	119	2
8	26	3
9	11	1
63	94	1
32	34	2
45	51	1
65	66	3
85	117	1
127	146	2
119	153	2
74	113	1
141	152	1
75	76	1
37	38	3
62	65	2
34	39	2
126	150	2
58	72	2
8	9	4
92	92	3
136	144	1
36	150	1
68	154	1
85	96	2
63	66	1
34	49	4
89	89	1
12	14	2
128	137	2
132	135	1
115	118	2
94	109	2
87	92	2
68	69	4
129	131	1
7	28	3
144	145	2
3	4	1
32	154	2
108	109	1
33	122	1
129	132	1
46	135	2
40	45	1
4	7	1
8	8	2
66	67	1
27	32	1
143	145	1
70	71	2
9	10	1
71	72	3
139	141	1
130	145	1
119	120	1
41	154	1
87	90	1
28	29	1
78	86	2
26	26	2
72	79	2
5	27	1
44	46	3
131	134	1
27	30	1
126	127	2
24	26	2
144	148	1
51	55	1
7	8	1
138	141	1
38	39	1
142	142	2
94	95	1
137	139	1
151	153	1
41	43	2
111	113	1
45	136	1
110	112	1
138	142	1
127	128	2
45	126	4
91	92	1
50	51	1
106	123	2
117	118	1
115	117	1
25	26	1
33	57	1
77	91	1
7	27	1
137	143	1
120	125	1
128	132	1
52	52	1
41	47	1
53	71	1
