122	122	4
173	173	6
239	239	4
170	172	5
125	136	5
12	34	1
57	75	1
121	137	2
78	78	17
82	82	16
125	140	1
24	32	1
136	149	1
166	168	5
189	189	4
194	195	7
38	38	8
15	167	1
242	243	4
224	235	1
180	180	6
146	147	2
220	220	2
99	99	9
120	120	6
75	86	4
140	140	1
31	36	1
119	122	1
8	11	1
203	203	6
223	224	1
242	242	3
176	191	1
41	53	4
6	6	4
236	242	2
158	172	5
208	208	3
12	12	2
49	49	3
206	229	7
5	5	8
24	27	1
104	104	6
27	33	6
74	74	6
115	116	4
158	160	4
177	182	3
43	44	3
116	119	1
196	203	10
235	237	1
56	56	3
197	200	2
50	50	6
204	204	10
119	123	2
201	213	1
144	150	3
130	139	4
198	198	2
102	102	4
143	143	3
129	143	1
191	194	2
51	53	1
164	177	1
156	159	3
0	0	13
193	193	2
109	112	1
159	191	2
31	31	15
25	35	2
210	219	4
167	169	5
181	181	5
8	8	3
18	52	6
86	86	9
18	19	2
128	136	1
221	226	2
47	48	8
184	185	5
20	20	4
37	37	10
182	182	3
227	228	1
45	68	1
237	238	4
81	104	5
187	187	10
8	10	1
223	223	7
160	172	3
33	40	3
135	136	11
8	235	6
48	59	1
231	242	2
103	103	7
20	32	2
215	215	2
218	235	2
200	213	2
110	110	3
126	126	8
191	192	3
216	216	7
147	150	6
155	176	3
149	190	4
148	149	6
165	173	1
106	106	5
241	241	5
0	1	6
25	25	7
84	84	9
68	68	4
26	26	6
226	227	3
70	74	1
22	28	5
9	234	3
3	222	2
30	37	9
216	225	3
111	111	5
196	215	2
184	184	3
238	239	3
127	127	3
74	80	1
180	187	2
152	152	8
174	174	7
59	63	1
221	230	5
209	211	3
11	29	2
45	57	4
47	47	4
32	57	4
84	101	2
144	146	4
160	161	3
67	89	1
45	45	9
211	213	1
133	140	4
217	218	3
188	188	9
194	194	2
65	72	2
54	84	3
18	18	2
60	62	1
24	25	2
182	183	5
117	129	5
218	223	2
232	232	7
169	174	3
210	213	3
26	48	2
219	226	1
153	154	3
97	97	7
141	143	3
135	146	2
61	70	2
35	40	2
100	100	4
41	41	4
98	101	1
58	59	6
75	75	4
11	11	4
208	213	4
174	181	3
49	51	2
171	172	1
175	176	2
202	217	2
19	19	2
162	164	1
65	65	9
96	96	4
201	202	2
61	68	2
99	104	3
42	54	6
37	38	5
217	231	2
172	179	2
43	43	5
158	158	7
215	242	4
109	118	9
163	164	2
160	160	6
123	127	1
171	171	6
189	190	2
69	69	1
238	238	6
5	23	2
42	42	12
32	33	2
221	235	3
34	34	4
171	186	1
146	153	2
168	168	5
217	224	1
62	62	7
17	22	2
117	117	6
172	174	1
17	21	4
191	206	3
63	75	3
231	231	5
221	221	7
221	242	3
13	27	2
230	230	4
213	213	5
57	57	3
8	9	2
126	128	1
162	162	2
236	236	12
222	222	3
49	54	1
51	61	1
111	113	3
29	29	12
233	234	3
234	234	7
161	161	4
48	56	1
179	180	4
114	115	1
228	228	7
22	163	1
48	52	2
44	241	4
120	121	1
138	147	2
36	36	1
208	209	2
39	39	6
57	58	4
157	158	6
176	178	2
209	209	1
193	205	1
159	159	3
195	195	6
127	128	1
129	135	4
19	21	1
7	12	1
79	80	2
225	226	2
167	185	3
44	45	2
2	2	3
197	204	3
96	102	1
71	71	5
81	83	3
185	185	6
200	200	5
151	155	1
100	102	2
166	166	4
20	22	4
229	231	3
187	188	4
145	145	2
50	152	2
4	5	4
178	178	3
130	130	5
156	213	1
181	183	2
62	70	1
199	199	3
227	227	11
38	40	1
141	186	5
10	15	1
118	138	2
167	167	8
20	236	2
199	205	1
34	36	2
218	219	7
67	77	4
0	7	3
178	190	2
78	109	1
4	4	9
104	156	3
56	77	4
144	144	1
172	172	2
40	40	2
102	119	2
38	39	4
99	103	3
84	86	1
21	29	2
78	79	4
220	221	2
116	116	1
65	66	2
226	230	1
163	163	5
25	36	3
173	181	5
237	237	9
113	113	6
67	76	1
55	56	5
192	193	2
189	193	1
83	83	6
231	236	3
168	169	5
173	179	1
200	201	2
109	109	4
59	59	3
135	135	3
108	109	2
211	212	1
19	33	2
104	107	4
213	221	5
205	226	3
179	179	9
150	150	5
53	64	4
22	22	9
54	61	2
81	101	4
192	197	4
178	182	1
143	159	2
112	112	2
108	108	1
46	62	2
67	67	6
48	58	5
197	198	3
236	238	2
113	132	3
115	115	5
129	136	2
142	142	2
82	108	1
24	29	3
26	29	1
118	118	9
233	237	2
6	9	1
81	82	7
25	26	5
188	197	2
71	113	1
9	12	1
45	47	4
196	196	3
139	139	2
9	9	2
223	240	1
2	15	2
73	73	2
206	227	1
185	186	4
141	141	4
76	76	4
11	13	1
63	68	2
53	68	1
235	235	6
223	237	3
56	64	1
156	167	2
202	202	4
183	183	6
37	46	3
63	63	1
170	171	1
33	38	1
1	8	1
63	65	2
46	48	1
236	237	3
132	132	1
22	39	3
85	85	5
70	70	7
123	126	3
218	218	6
50	59	8
46	55	3
205	205	5
168	173	2
114	114	3
227	233	1
66	66	3
5	199	1
146	146	2
65	85	2
232	241	1
117	119	1
16	17	2
95	97	4
103	123	5
176	176	2
138	157	2
198	202	1
165	170	1
0	4	4
167	168	6
39	48	2
134	139	3
64	82	4
196	207	3
212	228	2
10	12	2
26	39	3
32	44	2
21	28	1
16	34	2
188	198	5
35	35	2
21	21	4
190	204	1
43	63	1
72	72	3
234	235	2
107	108	2
105	105	2
156	156	3
170	170	6
183	188	1
19	20	3
103	104	1
3	3	3
206	221	2
142	148	2
7	7	12
51	55	4
125	137	4
144	160	4
111	117	2
66	75	1
148	148	1
115	134	1
157	157	1
58	60	6
122	133	2
207	207	3
80	86	2
193	202	3
16	19	2
205	209	3
50	52	2
49	50	7
138	138	5
1	1	2
191	191	2
198	211	4
64	64	3
112	113	3
83	86	4
212	212	4
1	3	2
8	227	1
128	128	3
16	41	3
227	239	1
30	162	1
149	151	1
168	170	3
112	115	2
165	166	5
133	151	2
146	163	1
216	220	1
12	14	3
131	134	1
24	30	4
84	85	1
59	71	4
60	78	2
225	225	7
2	20	1
220	232	2
168	181	2
138	191	1
152	155	2
135	148	2
216	226	1
133	137	2
24	24	3
137	137	4
49	212	1
62	63	1
197	202	2
129	131	1
217	217	1
126	136	2
132	133	2
42	52	3
218	227	1
88	101	1
150	151	3
72	73	1
77	78	1
165	174	2
213	229	2
168	177	3
119	119	6
14	14	1
3	19	1
28	28	2
10	38	2
40	162	2
53	53	7
161	169	2
75	99	1
98	99	3
21	37	1
54	60	1
64	75	2
82	84	3
175	175	4
72	89	3
210	211	1
143	146	1
165	165	1
139	148	3
46	70	2
207	218	3
220	226	2
154	155	2
101	118	2
206	225	1
123	155	1
154	161	5
4	22	2
6	12	2
135	137	1
140	142	2
226	229	1
163	169	2
27	27	3
53	54	2
178	179	2
224	234	3
194	210	2
0	5	2
133	150	3
206	206	4
68	127	2
142	146	2
207	214	2
12	15	2
15	18	1
82	86	1
222	223	2
33	33	4
23	37	1
156	165	3
120	130	1
103	115	1
33	34	2
182	189	1
81	81	1
138	150	1
153	153	6
217	220	1
156	173	1
10	11	4
22	23	1
16	16	1
137	147	2
208	232	1
164	164	2
75	85	2
32	32	8
169	171	1
96	97	1
123	123	1
18	38	1
169	169	2
226	226	6
102	103	1
211	211	2
205	217	3
155	158	2
47	52	2
230	231	2
134	135	3
73	76	2
18	30	1
125	127	1
177	178	3
183	190	6
44	57	2
49	69	2
208	211	1
40	49	4
199	208	1
79	84	1
145	146	1
47	49	3
38	41	4
123	139	1
144	149	1
2	12	1
68	69	2
71	85	1
153	155	1
206	208	1
124	129	1
64	76	1
56	57	1
201	217	3
174	202	1
147	148	2
190	190	3
203	204	1
138	139	1
11	15	2
18	42	1
61	62	1
177	181	2
240	241	2
21	23	1
82	99	1
121	123	1
156	157	1
48	48	3
206	224	1
35	41	5
59	82	3
214	232	3
140	171	2
184	190	1
233	233	1
98	104	2
219	219	3
195	197	2
161	213	2
123	124	1
12	29	2
64	68	1
2	179	2
192	192	1
5	21	1
18	31	2
10	14	1
88	88	1
34	35	2
219	220	1
119	130	5
186	187	1
221	222	1
17	18	1
54	55	1
59	72	1
29	61	1
38	49	1
225	227	1
111	112	1
177	177	2
196	211	2
201	201	2
79	82	1
186	186	2
229	229	1
213	223	2
100	103	1
205	220	2
204	209	1
145	150	1
56	69	1
37	45	2
48	55	1
77	79	1
61	61	3
116	130	1
152	162	1
67	71	1
128	133	1
239	240	1
124	124	1
71	83	1
121	138	1
44	44	3
118	130	1
37	41	1
135	139	1
64	88	1
69	72	1
23	28	1
60	67	1
104	113	1
99	100	1
50	78	1
222	231	1
80	80	2
108	123	1
192	196	2
169	182	2
177	180	1
160	168	1
2	30	1
104	108	1
83	84	1
10	27	1
67	68	1
214	224	1
199	209	2
4	9	1
11	23	1
5	22	1
13	13	1
232	233	2
76	83	1
213	217	1
48	49	1
40	50	1
188	193	1
163	175	2
82	85	1
108	115	1
229	237	1
146	160	1
55	55	1
74	75	1
6	23	1
31	33	1
45	55	1
104	155	1
83	108	1
42	43	1
122	138	1
231	232	1
51	126	1
13	231	1
186	188	1
165	169	1
143	144	1
207	215	2
219	223	1
0	188	1
43	45	1
146	154	1
236	239	1
107	122	1
148	151	1
81	84	1
198	209	1
98	98	1
189	192	1
197	199	1
184	195	1
240	240	1
198	199	1
18	21	1
6	22	1
232	242	1
154	157	1
