108	108	22
133	140	3
156	157	5
116	116	19
5	5	17
98	99	7
67	68	21
123	123	29
112	113	5
48	49	5
39	40	5
63	63	4
18	22	2
106	106	17
128	133	5
93	93	7
103	103	8
30	67	8
128	138	3
121	123	5
29	31	6
8	8	7
34	34	16
84	84	8
29	30	4
12	14	3
20	20	12
95	96	8
129	129	15
109	109	7
7	7	18
66	66	4
129	134	5
24	24	7
88	88	11
17	18	5
147	147	8
94	94	8
144	144	12
5	6	4
44	44	10
66	71	2
115	150	2
111	111	10
3	13	3
48	48	21
133	133	3
104	104	11
79	86	2
39	39	27
135	136	4
110	112	8
73	105	1
10	10	10
121	122	6
18	18	9
118	143	2
97	97	12
47	47	9
116	117	8
12	49	4
3	4	3
70	70	16
117	117	9
33	34	7
147	148	4
0	0	3
25	25	17
28	28	15
101	101	12
122	122	15
100	100	9
29	29	16
131	131	7
115	115	11
90	90	12
105	105	11
142	142	21
138	138	7
98	98	4
4	4	8
99	99	13
142	152	2
110	111	5
144	145	2
148	149	2
58	63	1
81	81	18
134	139	4
110	110	12
106	107	3
77	77	7
94	110	8
145	146	5
83	83	11
157	157	7
92	96	5
150	150	16
42	43	7
7	8	4
32	32	6
79	81	5
51	53	3
75	75	17
68	68	11
41	41	14
114	114	24
131	142	4
11	11	15
81	82	5
145	145	17
119	119	15
35	35	5
82	82	14
10	11	6
31	33	5
122	123	1
80	80	18
65	66	4
125	126	4
125	127	2
47	48	1
133	134	3
143	146	2
137	141	3
1	1	15
87	87	13
149	149	6
155	155	2
80	92	5
91	92	4
102	103	2
24	28	2
95	95	16
104	106	3
45	45	10
78	78	6
96	151	5
31	32	9
41	42	6
65	65	4
139	139	26
103	106	4
122	134	2
71	71	12
154	155	3
134	137	5
132	132	9
50	50	7
79	84	5
128	129	3
136	136	10
40	40	4
52	54	2
14	14	9
28	98	2
27	70	1
89	92	4
26	26	13
16	22	3
11	12	1
155	156	1
38	39	6
18	19	6
124	124	6
73	99	2
141	141	5
20	21	6
137	138	3
101	102	4
99	100	7
96	96	7
12	29	2
79	94	6
94	111	3
120	120	14
16	17	4
30	97	2
143	143	8
47	53	1
17	17	11
23	23	12
39	43	3
36	36	13
31	31	10
123	125	1
112	112	12
14	49	3
30	31	2
137	137	8
115	116	4
41	45	4
123	127	1
48	53	2
35	44	2
52	53	3
128	128	20
3	3	7
94	95	11
123	124	5
0	98	1
8	11	1
134	141	10
148	148	12
15	15	3
113	142	1
135	135	5
17	19	1
6	109	1
120	122	1
111	117	3
43	44	4
113	114	4
67	67	12
22	22	9
13	14	8
43	43	12
55	55	7
135	141	3
64	66	1
38	38	3
27	27	11
121	128	2
113	131	2
12	12	15
134	136	4
145	155	2
107	107	11
37	37	5
82	83	6
134	134	9
32	36	4
143	144	3
41	43	2
83	85	6
114	115	8
152	152	8
73	73	6
33	33	11
50	81	1
19	19	10
117	126	1
157	158	6
140	141	5
23	24	7
151	151	12
122	124	2
46	50	2
131	133	3
18	32	5
120	121	3
79	79	12
16	47	4
129	130	2
63	67	1
30	30	8
88	89	10
72	72	2
91	91	9
95	105	3
119	126	2
87	89	4
11	29	2
70	111	4
7	110	4
40	41	1
126	126	7
124	142	3
52	71	3
118	118	8
50	54	7
107	137	2
146	148	3
36	37	7
144	150	3
130	130	8
50	91	1
81	83	2
54	54	3
62	63	1
86	87	1
113	118	2
145	157	1
78	79	5
12	13	4
64	82	2
121	121	5
92	93	5
93	106	2
2	2	5
98	108	3
125	125	4
5	29	4
33	38	2
123	138	8
155	158	3
130	131	2
56	56	2
63	64	2
124	151	2
95	107	2
75	82	1
132	136	3
105	106	3
108	110	3
158	158	7
156	156	1
70	71	2
27	99	1
52	52	10
108	112	3
50	51	4
115	156	5
111	121	2
80	122	2
67	70	3
40	44	3
95	110	2
139	141	3
28	101	1
38	54	1
105	107	1
46	46	2
98	103	3
84	86	1
38	55	1
13	31	6
96	127	4
13	13	5
54	55	2
22	44	5
62	120	2
67	69	2
69	69	8
9	10	2
127	127	8
64	64	3
146	146	8
148	152	1
154	159	1
34	35	1
6	6	5
92	92	10
90	105	1
35	36	4
73	76	1
112	117	1
32	33	4
85	85	4
129	135	2
151	152	1
51	51	8
107	108	2
24	25	2
24	27	2
27	101	2
23	28	1
36	48	3
128	137	4
22	23	4
86	86	2
9	9	4
129	131	1
77	78	1
47	50	2
8	9	2
140	140	2
152	155	1
87	88	5
76	105	1
29	36	3
108	109	2
47	54	1
88	94	4
81	122	2
77	104	5
71	72	1
153	157	1
53	54	3
28	29	5
98	100	2
21	23	3
103	113	1
136	137	3
133	136	2
42	42	7
152	153	2
106	108	3
149	154	1
121	127	2
113	116	3
49	49	9
56	70	1
113	113	7
124	135	1
6	69	1
103	111	1
116	119	2
7	109	1
14	24	3
6	107	1
144	151	1
1	6	2
66	67	8
121	125	3
113	115	4
63	66	2
122	150	2
3	14	3
21	22	6
109	112	3
88	91	4
134	140	1
102	102	5
34	96	1
23	25	2
132	133	2
16	19	3
135	152	2
109	110	5
87	93	4
21	21	5
146	154	2
146	147	2
154	154	1
13	24	4
14	15	2
43	52	1
80	86	1
5	32	2
150	151	2
45	46	1
124	136	1
131	136	3
62	62	3
28	54	4
26	27	1
27	104	3
53	53	3
153	155	1
16	16	3
114	120	1
72	123	1
89	89	4
56	61	1
92	95	2
127	129	4
136	159	1
152	158	1
87	122	1
18	20	2
130	152	1
96	150	1
76	77	4
1	3	2
73	100	2
15	16	1
0	2	1
69	70	3
83	84	1
109	111	1
139	140	2
23	44	1
79	140	2
8	12	1
125	142	1
96	97	2
33	54	1
115	132	4
15	21	1
4	16	1
62	70	1
39	44	3
100	101	2
68	69	1
118	142	1
1	4	1
46	55	1
13	23	1
11	25	1
155	157	1
81	84	3
45	50	1
69	71	1
46	49	3
1	11	2
135	147	2
124	125	1
85	86	2
90	94	1
136	141	2
95	100	1
62	64	1
153	154	1
0	1	1
81	85	2
143	145	2
113	117	2
96	117	1
80	82	1
45	53	2
45	54	1
45	65	1
116	132	1
44	45	2
12	19	2
45	56	2
93	94	1
117	150	2
16	18	1
96	110	1
36	47	1
127	128	1
29	72	1
131	132	1
121	131	1
95	121	1
4	6	1
50	70	2
79	80	2
28	37	3
68	72	1
39	51	3
13	15	1
9	107	1
77	103	1
92	104	1
14	16	1
13	16	1
75	76	1
28	70	2
44	65	2
152	159	1
112	123	1
69	120	1
84	85	2
31	36	1
6	15	1
92	107	2
3	8	1
46	54	2
137	145	1
116	140	1
120	123	1
116	131	1
36	50	2
77	84	1
19	20	1
1	2	1
120	143	1
41	55	1
79	82	1
129	139	1
19	21	1
43	65	1
72	73	1
6	26	1
19	40	1
