144	167	3
25	26	6
76	76	3
149	149	7
140	181	1
41	41	3
167	168	3
134	135	3
17	17	5
53	121	4
60	60	11
111	111	6
54	55	1
112	112	2
178	178	1
3	3	2
70	155	2
120	120	3
15	15	1
152	153	3
30	47	3
158	158	4
56	57	4
11	13	4
117	117	3
79	79	6
56	60	3
57	57	2
31	31	3
179	179	4
121	121	5
73	74	2
140	140	3
114	114	2
133	133	1
95	95	4
30	30	8
139	139	6
175	175	5
90	90	3
121	122	2
119	128	4
186	188	1
120	128	3
28	28	2
0	137	2
14	14	4
10	15	2
65	66	5
104	104	3
72	72	7
42	42	8
151	155	3
183	184	1
190	190	3
166	166	4
10	17	4
109	113	1
118	118	3
45	46	5
184	189	3
132	132	5
84	84	5
38	38	1
3	133	3
142	188	3
5	156	1
17	21	2
150	150	5
129	131	5
63	63	5
35	37	1
189	189	5
1	1	4
110	110	4
67	67	4
10	12	3
143	143	12
188	188	5
161	161	6
78	188	2
130	132	3
156	157	4
10	13	2
163	163	6
107	107	5
104	105	8
147	153	3
66	66	4
5	5	3
29	36	4
10	23	4
118	119	1
18	21	2
148	149	1
182	182	4
24	26	1
152	152	3
7	84	1
11	12	2
73	73	7
23	23	4
149	150	2
100	100	1
100	104	3
186	186	5
88	88	2
89	89	2
134	164	2
71	71	2
147	147	4
93	101	4
165	184	1
127	127	4
52	130	2
168	169	2
79	96	2
39	39	2
185	185	4
125	126	2
140	141	2
148	150	5
78	112	3
56	62	6
17	18	2
0	0	3
84	133	1
105	107	3
15	16	2
6	6	2
96	96	6
131	135	2
123	123	2
53	53	3
129	133	2
125	125	2
13	13	1
91	94	1
78	78	1
80	80	2
66	67	1
172	174	1
45	45	3
55	130	2
135	136	1
140	165	1
54	54	1
72	108	2
71	108	1
126	126	2
105	105	9
134	136	3
86	87	2
177	177	5
129	129	6
25	43	1
19	19	1
59	59	2
83	128	1
19	20	1
106	106	2
181	181	1
87	159	2
46	46	1
14	25	3
158	159	2
7	67	1
78	140	1
60	61	6
184	184	2
24	24	1
148	148	1
78	183	3
17	66	2
85	85	1
103	103	4
122	122	1
128	128	5
55	55	2
132	159	2
47	47	3
87	87	3
79	92	1
173	173	3
94	101	1
176	177	1
36	36	5
39	40	1
6	7	4
172	172	2
11	11	3
130	130	2
173	176	1
164	164	4
119	125	1
29	47	2
101	101	1
80	91	2
134	134	1
96	98	1
103	105	2
99	102	1
169	169	1
168	168	1
30	46	1
113	115	2
138	169	1
167	171	1
62	63	1
142	143	1
27	30	1
52	128	2
83	159	4
165	166	1
97	100	1
81	94	2
86	140	1
151	151	1
141	187	1
74	74	2
83	93	1
16	42	1
86	86	2
12	20	1
109	109	2
21	21	1
8	8	6
14	24	2
174	175	1
137	137	1
186	187	4
124	124	1
40	40	2
0	47	1
27	45	1
168	177	1
157	157	1
86	189	1
4	102	1
131	132	1
145	145	1
25	33	1
27	27	1
14	15	1
23	36	2
141	141	1
185	186	1
180	181	1
60	66	1
108	108	1
12	48	1
131	131	1
87	94	1
52	53	1
176	176	1
164	175	1
134	174	1
154	154	1
