75	75	14
5	5	6
55	56	4
164	164	4
161	161	11
142	144	1
128	128	1
178	178	5
95	95	3
159	159	4
114	128	1
58	63	1
166	166	2
156	156	5
63	64	4
92	92	1
138	138	6
39	51	7
102	117	2
139	139	4
100	100	2
13	13	1
177	177	3
128	150	1
43	43	2
149	154	1
148	149	4
83	115	5
57	67	2
112	112	7
65	66	3
34	35	3
43	44	4
172	172	3
73	73	1
56	56	5
109	146	3
134	136	2
2	2	4
152	152	1
15	15	6
115	150	1
159	161	2
179	179	4
42	42	3
10	31	2
88	88	1
135	135	7
151	151	11
134	149	1
101	120	3
164	166	1
8	8	7
141	144	4
96	97	8
90	90	3
171	171	3
113	113	6
33	33	7
125	125	4
74	74	6
173	173	4
38	38	1
118	123	3
121	121	7
63	120	1
121	125	2
40	40	5
53	53	4
77	78	6
180	180	5
169	178	1
147	147	6
130	130	4
107	113	2
99	120	4
41	41	2
114	136	2
97	98	3
21	21	5
108	109	3
27	27	6
137	137	3
168	170	3
40	51	3
0	0	10
37	55	1
118	118	1
129	148	3
170	171	3
14	36	2
115	115	3
176	176	1
113	146	4
83	83	10
141	141	3
174	174	4
118	122	1
129	135	6
3	3	3
26	26	3
32	32	3
116	117	1
23	23	3
95	96	5
5	22	1
114	115	1
127	127	5
57	65	2
12	36	1
41	63	3
10	32	1
146	147	2
35	35	10
132	132	6
140	140	6
104	104	1
100	101	1
159	160	2
12	39	1
78	79	1
150	152	4
30	30	10
168	168	1
9	11	5
134	134	2
8	9	5
153	153	3
122	122	6
116	127	2
109	109	2
157	158	4
119	119	2
141	142	3
37	54	1
10	10	1
25	26	7
31	31	1
137	147	1
165	165	5
128	149	1
169	169	1
17	17	7
25	25	3
52	53	2
60	77	1
54	62	2
28	28	1
140	144	5
7	9	2
102	102	4
150	150	4
155	156	1
4	4	1
13	39	2
28	30	1
144	144	1
14	33	2
170	173	2
55	55	1
88	93	3
101	101	3
87	87	5
89	89	4
80	82	1
155	155	7
60	60	1
137	138	3
17	39	1
56	60	3
124	124	7
140	142	7
144	164	2
5	6	2
106	106	4
133	133	2
148	148	3
109	147	1
44	45	2
9	10	2
20	20	1
45	45	1
70	117	1
62	63	1
110	110	3
37	37	2
15	37	1
72	73	1
4	5	2
26	27	2
19	19	2
24	24	3
6	45	3
50	64	2
101	121	3
112	148	2
97	104	1
72	72	3
94	94	3
107	108	1
56	68	1
16	16	4
60	61	1
11	11	1
135	136	3
5	44	1
102	125	1
64	65	1
146	146	5
42	67	1
114	127	1
138	148	1
112	114	1
36	37	2
82	85	2
131	176	3
35	38	1
66	66	1
158	158	4
6	6	1
85	85	5
79	80	1
167	167	7
150	154	1
108	112	1
132	133	3
123	123	5
129	134	1
175	175	1
160	162	3
126	126	1
86	89	1
88	94	1
123	124	1
13	14	1
78	78	2
171	172	1
36	36	2
50	50	4
7	7	1
12	12	1
117	117	1
82	82	2
125	126	1
129	143	1
40	41	2
11	34	2
131	131	3
117	123	2
0	1	1
75	104	1
77	77	1
40	50	1
154	155	1
175	176	2
75	97	1
11	14	1
120	124	3
8	11	2
97	97	2
11	13	1
169	174	1
62	62	1
174	175	1
81	81	1
59	67	1
64	64	3
14	14	1
129	130	2
71	73	1
28	29	1
57	59	1
95	115	1
84	84	3
116	116	2
163	163	1
76	76	1
68	68	3
129	137	1
151	154	1
103	122	1
154	154	1
157	157	3
96	96	1
22	22	1
107	107	1
23	51	1
105	127	1
50	63	1
81	110	2
83	95	1
65	67	1
0	5	2
92	93	1
74	75	1
91	91	1
119	120	1
136	147	2
32	33	1
98	98	1
105	106	1
111	111	1
34	36	1
143	162	1
136	136	1
142	142	1
56	57	2
72	74	1
53	54	1
40	118	1
109	113	1
138	139	1
114	150	1
18	18	1
74	95	2
168	169	2
61	61	2
134	152	1
63	63	1
40	64	1
145	145	1
5	46	1
128	148	1
80	80	1
