180	180	7
86	101	2
2	28	4
183	184	6
167	167	7
48	48	4
96	102	3
240	240	5
101	102	2
73	79	5
72	116	3
191	191	8
187	187	2
196	197	3
115	117	1
201	243	3
21	22	4
158	158	3
214	215	3
145	145	3
173	174	2
97	99	1
232	232	11
4	50	1
117	117	2
21	21	10
10	10	11
65	65	5
161	161	11
220	220	4
237	240	3
201	201	6
38	39	1
154	154	6
238	238	6
248	248	3
90	90	6
67	67	10
242	242	12
190	190	2
101	103	8
29	29	1
45	45	4
170	192	2
81	82	1
94	237	3
203	203	1
166	185	1
165	177	1
155	156	3
84	113	3
219	219	1
37	37	5
93	107	1
162	231	2
44	44	10
167	180	2
218	220	4
227	228	4
221	221	4
94	95	2
74	74	3
205	205	13
110	208	7
38	116	2
8	8	4
206	214	1
66	66	5
88	163	1
64	67	2
57	60	2
243	246	2
162	162	6
212	212	14
238	239	3
51	51	2
160	160	6
43	44	6
229	229	1
16	16	9
214	214	3
9	26	2
31	31	13
194	195	3
171	192	3
96	97	1
111	112	5
84	84	3
17	52	4
68	70	5
107	108	10
246	246	8
230	230	4
53	53	11
117	118	2
169	170	4
114	119	1
108	236	2
78	78	3
96	96	1
226	226	3
234	235	3
47	47	3
5	5	11
80	80	3
239	239	8
22	22	2
157	221	1
60	61	1
79	79	8
201	205	1
192	195	2
185	185	3
115	115	2
75	75	3
35	45	1
91	91	2
95	96	4
93	93	3
76	77	3
38	38	1
166	167	6
243	243	1
46	46	2
45	46	3
31	32	1
27	27	5
71	79	3
15	15	3
168	169	4
92	96	1
97	97	4
176	182	2
156	156	5
244	244	2
166	180	1
57	58	1
23	23	2
35	35	1
207	208	1
38	54	3
12	12	3
68	68	4
1	7	2
68	75	1
172	174	2
230	232	3
206	212	4
32	32	1
170	191	4
207	231	4
6	6	5
99	247	2
224	224	2
100	100	1
247	248	1
94	97	2
184	184	1
31	50	2
116	119	3
101	232	1
202	204	5
105	105	5
93	101	1
200	200	8
63	63	4
202	205	1
156	157	2
227	227	7
97	98	5
188	188	6
172	175	2
218	218	4
56	57	2
207	234	2
116	120	4
182	186	1
71	71	3
104	104	1
64	68	2
43	43	2
81	81	1
61	78	3
194	196	4
176	181	2
72	119	4
92	92	2
98	98	3
29	110	2
236	236	4
24	24	4
150	154	5
197	198	5
157	157	2
11	19	2
197	197	4
181	181	6
233	233	2
169	218	1
72	72	3
171	171	4
226	228	2
35	111	4
237	237	5
3	5	3
87	87	1
115	116	4
91	93	1
202	202	4
32	68	2
29	109	1
69	70	4
183	183	1
33	33	3
74	89	1
62	78	4
222	222	5
39	116	2
61	61	4
209	212	2
70	70	4
28	28	7
110	111	3
30	30	1
101	101	4
49	49	1
239	241	1
204	204	2
7	28	1
194	194	1
26	27	1
241	241	2
11	11	1
19	19	2
155	155	2
154	156	2
231	231	2
221	223	2
105	106	3
159	159	5
39	39	2
193	196	4
206	209	1
47	48	1
152	152	4
156	226	2
86	86	3
182	182	1
50	50	2
62	62	3
152	153	2
59	59	4
205	208	2
34	34	5
199	199	3
147	147	2
67	70	2
206	206	8
82	84	1
189	190	2
7	7	1
169	169	1
160	191	1
26	26	3
207	207	2
82	82	1
54	54	11
168	168	1
167	184	1
74	75	3
112	112	2
107	107	2
64	64	2
93	94	2
185	186	1
225	225	1
181	185	2
65	66	1
23	24	3
80	81	1
73	73	2
170	170	7
174	199	1
25	25	2
17	17	2
95	95	4
159	171	2
20	20	1
246	247	1
206	208	1
73	74	2
71	74	2
75	76	2
144	144	2
203	204	3
210	227	5
8	28	1
38	78	1
172	195	2
153	153	1
57	57	2
179	187	2
45	68	1
94	104	1
157	160	2
210	210	1
232	233	3
114	114	1
164	178	1
47	49	1
67	68	2
108	108	1
63	71	4
206	207	2
184	185	1
193	193	2
158	160	2
163	177	2
3	28	1
171	183	4
120	120	2
79	80	2
148	230	1
86	87	2
69	69	2
58	58	2
163	249	1
31	33	4
109	109	1
3	3	2
228	228	1
91	108	2
121	121	1
108	241	1
4	5	2
119	119	1
178	184	1
176	185	1
38	77	1
176	177	1
165	165	3
165	178	1
52	52	2
213	213	2
60	60	2
40	117	1
172	172	4
40	40	1
234	234	3
161	162	1
43	145	1
185	190	1
211	212	1
207	232	1
30	34	1
216	216	1
80	88	1
64	65	1
29	30	3
192	192	2
36	36	2
176	176	1
113	233	2
110	234	2
115	118	1
205	214	1
116	116	1
111	111	1
99	99	1
62	63	1
170	171	1
66	104	1
66	93	1
151	154	1
164	164	2
6	8	1
43	45	1
174	194	1
195	195	1
1	1	1
