40	40	4
77	77	6
51	51	9
45	45	2
90	90	5
159	160	4
112	112	1
76	77	2
8	8	8
138	138	8
88	88	8
103	104	5
82	114	1
50	50	5
123	129	1
28	30	5
39	39	4
84	84	6
65	65	5
176	177	2
27	27	1
162	162	7
65	145	4
157	159	2
87	87	11
73	73	8
14	14	9
105	105	11
117	121	6
111	153	1
160	161	5
121	121	7
89	90	4
43	66	2
61	62	4
94	153	11
132	136	4
80	133	2
149	149	5
16	16	11
12	65	2
132	179	1
171	172	1
127	127	8
74	74	5
59	59	8
24	27	2
98	98	4
81	155	1
108	108	16
135	141	2
100	136	5
165	165	15
147	147	8
142	146	2
110	156	8
108	109	5
65	128	4
143	144	4
72	138	1
62	64	2
175	175	8
179	179	7
17	115	3
52	82	5
100	100	6
121	167	3
15	66	5
128	152	1
33	38	1
22	22	4
107	137	2
39	40	3
70	128	2
55	55	4
159	174	2
78	135	3
91	91	3
2	3	2
120	121	2
136	155	1
36	36	5
13	72	3
83	91	3
41	41	6
21	44	4
3	3	11
95	151	6
146	150	4
173	173	1
106	106	7
44	44	7
172	174	3
172	172	8
143	143	2
180	180	6
96	96	7
55	171	5
38	38	2
132	132	21
102	132	4
152	173	2
115	117	5
71	71	6
158	159	2
149	150	4
88	91	4
114	166	4
115	153	4
120	132	5
93	103	4
25	31	3
91	92	2
112	157	1
17	17	5
128	128	2
119	119	5
97	99	3
12	12	3
11	79	4
151	151	9
156	156	10
171	178	2
103	103	3
161	161	3
117	117	6
84	92	1
67	100	3
16	17	2
40	41	1
86	154	2
140	140	7
85	98	1
72	115	3
16	139	6
165	166	4
92	93	1
54	54	11
154	154	3
92	95	1
15	15	8
102	154	2
19	25	3
135	135	6
78	78	2
11	20	2
53	135	3
42	71	4
118	132	1
136	154	2
6	7	3
84	109	1
130	132	2
4	21	4
41	56	1
124	125	1
168	169	2
72	139	6
81	101	1
129	144	4
129	168	1
28	28	4
145	145	7
124	130	2
30	30	5
67	67	2
57	57	8
80	80	7
65	129	2
143	146	3
99	100	2
98	148	3
139	139	7
46	46	2
4	4	5
5	7	3
118	118	7
41	57	6
78	138	6
61	150	2
96	100	4
135	137	1
84	156	3
22	23	2
168	168	2
129	129	7
150	159	5
80	114	3
110	123	4
24	28	2
97	97	3
36	38	1
133	133	7
96	106	2
59	66	2
81	137	4
79	86	4
53	53	9
11	11	2
146	146	7
110	111	2
11	19	3
29	29	1
58	58	3
130	130	3
114	114	4
124	124	2
31	33	3
21	21	2
0	0	2
144	144	2
145	167	2
2	34	2
90	91	1
150	150	6
130	153	1
21	40	9
35	37	4
102	155	1
171	171	4
50	77	4
26	26	6
33	33	5
141	149	1
84	100	2
35	35	1
9	9	4
134	137	2
95	99	2
62	62	7
111	111	4
147	150	3
143	148	1
115	136	2
23	23	3
93	107	3
166	166	7
7	8	9
135	142	1
142	165	3
94	96	2
94	94	6
148	148	4
49	63	1
88	89	1
5	5	4
86	86	8
95	98	1
163	163	4
71	72	1
122	122	6
138	176	4
57	58	1
105	106	1
82	82	4
96	99	3
172	173	4
85	86	2
10	10	3
148	151	2
12	44	6
167	174	3
131	173	8
34	73	3
92	92	2
76	128	1
35	38	2
98	99	5
18	39	4
169	169	2
93	153	4
76	76	5
77	78	2
81	82	3
76	86	9
109	115	3
164	167	1
123	123	1
9	29	3
38	40	3
140	164	1
29	30	2
126	128	1
52	147	2
116	117	6
137	137	5
64	64	2
125	125	1
21	41	2
159	159	2
18	41	3
39	41	2
176	176	4
62	81	1
18	40	2
101	135	2
43	43	2
166	178	1
103	116	1
116	116	1
155	155	2
118	141	1
93	93	6
121	127	3
155	156	6
67	68	1
51	148	3
174	174	6
111	161	1
32	32	3
1	1	2
25	25	1
20	21	1
101	101	2
146	162	1
164	165	2
30	39	2
145	151	1
120	120	9
152	153	4
152	164	1
26	27	3
170	170	3
33	36	2
133	143	1
93	133	1
95	95	3
20	20	1
66	67	1
150	160	1
32	37	2
77	124	3
162	169	2
13	19	1
57	67	1
141	141	1
103	107	2
170	171	1
5	34	2
115	134	1
32	35	5
131	131	1
162	166	3
173	174	2
156	157	2
14	16	1
65	78	1
142	142	2
97	151	1
113	113	2
178	178	3
9	45	1
114	167	1
109	161	1
89	92	1
158	158	2
56	67	3
83	84	1
142	164	1
107	108	4
138	179	2
97	153	5
11	72	1
134	134	2
19	19	1
75	75	3
42	42	2
38	39	2
37	37	2
77	137	3
49	112	1
9	41	3
160	162	3
85	155	1
86	89	1
126	127	4
3	4	2
56	59	1
119	120	3
55	149	1
149	160	4
53	54	1
63	64	2
95	152	1
114	163	1
7	29	1
72	73	2
142	145	1
141	142	1
61	64	1
62	63	3
4	8	1
52	113	1
6	8	1
142	144	1
160	160	2
65	66	1
79	79	2
167	170	1
81	81	3
60	60	2
6	6	3
102	138	1
89	110	2
108	132	3
78	124	1
2	2	2
61	61	1
150	167	1
115	115	1
52	52	1
118	120	1
161	162	2
7	34	1
109	110	1
2	5	1
24	24	1
112	163	2
36	75	1
135	136	2
94	95	1
56	58	1
96	145	1
153	153	1
159	162	1
2	4	1
95	148	3
105	110	1
163	166	1
121	122	1
144	145	2
158	168	1
132	168	1
10	13	1
21	45	1
84	87	2
101	108	1
83	89	1
177	177	2
56	56	2
37	38	2
14	39	1
8	9	1
102	102	1
55	56	1
95	157	1
166	167	2
142	143	1
127	147	1
57	78	1
31	31	1
72	72	1
170	178	1
130	145	1
16	114	2
18	21	1
68	68	1
96	103	1
74	77	1
157	175	1
83	83	1
100	128	1
114	152	1
1	36	1
