95	95	23
68	137	3
52	52	13
17	17	3
6	6	22
91	91	6
146	148	5
160	162	5
45	45	9
129	129	8
18	18	15
63	113	7
31	33	3
107	108	6
159	159	8
112	112	14
78	78	9
0	0	13
162	162	15
151	151	17
23	23	15
25	25	19
179	179	17
30	30	13
108	108	18
144	147	3
89	90	11
170	171	5
5	5	20
138	138	9
14	15	5
9	9	14
119	119	8
4	4	13
176	176	11
18	19	4
87	99	3
37	39	3
6	29	3
26	26	20
72	149	1
120	120	12
60	60	13
21	23	3
98	99	8
126	126	14
171	171	10
148	148	22
77	78	10
8	43	1
36	36	9
60	123	9
93	93	18
118	118	9
8	11	3
155	155	10
53	53	12
133	133	7
32	38	3
8	41	4
91	92	8
24	24	5
59	59	21
72	72	18
105	106	11
149	150	6
103	104	11
67	67	15
11	15	1
114	114	30
55	55	10
170	170	9
66	67	4
19	21	7
8	8	19
65	158	4
51	51	11
56	130	6
170	172	8
147	147	15
127	128	9
76	77	10
87	87	7
10	40	5
19	19	10
44	44	28
26	41	4
116	118	10
155	156	7
177	177	4
166	166	6
125	125	5
97	98	5
167	169	4
141	141	10
92	101	8
63	114	2
97	97	24
43	43	16
165	165	13
32	34	2
33	33	18
21	21	12
67	155	3
144	144	20
40	41	9
159	161	6
111	111	14
170	174	2
109	110	11
86	86	4
90	102	8
90	90	9
137	137	13
66	66	9
42	42	9
138	139	5
102	102	7
91	93	6
104	104	12
60	125	1
28	29	5
128	129	2
28	28	13
2	3	10
65	66	3
21	22	3
80	138	4
71	71	13
110	110	16
156	157	4
117	117	7
163	163	11
143	143	3
1	1	7
92	93	13
88	88	9
85	85	13
79	80	2
147	148	4
131	131	7
105	105	2
27	42	2
13	13	8
63	63	6
164	165	7
8	9	6
110	111	6
33	35	3
99	101	6
139	141	6
40	40	8
174	174	11
66	170	1
14	14	12
161	162	3
116	116	15
153	153	11
76	149	5
167	167	13
133	134	6
32	35	2
32	32	13
62	120	3
65	171	3
103	105	13
29	29	13
50	50	17
109	109	10
102	107	2
127	127	8
55	56	5
31	31	13
80	81	3
152	152	11
58	120	6
115	116	13
53	54	17
111	112	4
175	175	7
40	42	5
117	119	2
169	169	11
149	149	10
80	136	3
135	135	15
61	61	5
89	89	14
41	41	11
160	160	10
75	75	7
88	89	7
4	5	3
158	158	10
115	119	5
79	81	2
27	29	4
64	64	9
98	98	3
57	58	4
81	81	11
15	16	8
22	22	9
63	65	2
18	24	3
127	129	3
2	2	5
171	172	3
65	170	3
70	76	3
27	27	11
168	168	8
174	175	2
115	157	1
11	18	3
56	56	17
15	15	16
128	128	13
3	3	9
99	100	2
146	146	9
79	79	7
123	124	1
154	155	6
62	62	8
31	32	11
162	173	3
76	76	9
32	153	2
60	124	6
169	173	6
154	154	5
64	159	4
102	105	8
23	24	4
100	100	14
68	68	9
163	164	5
115	121	4
94	94	13
84	84	10
34	36	5
146	147	5
115	155	2
84	88	3
36	37	4
12	12	7
79	153	1
124	125	5
102	103	1
73	74	3
72	151	1
145	145	15
124	124	7
132	132	13
35	35	17
49	51	5
77	77	5
115	152	1
37	132	4
11	25	4
140	141	5
15	17	2
68	70	1
32	33	16
50	51	6
82	148	12
56	133	2
104	105	3
122	122	6
38	39	4
5	6	2
38	38	19
156	156	14
93	94	2
84	148	3
65	156	8
73	73	13
92	100	1
28	30	2
26	27	14
61	124	2
30	34	1
136	136	10
158	159	6
92	92	10
140	140	5
11	11	10
24	25	4
7	7	21
115	115	11
116	119	2
56	57	9
178	178	8
162	172	3
52	53	6
11	40	2
20	25	1
113	113	7
129	130	9
169	174	4
169	171	6
84	89	4
111	113	4
141	145	4
144	146	6
52	156	1
13	14	3
139	139	14
100	101	4
72	73	4
116	157	3
58	119	6
50	104	3
39	39	5
17	18	5
167	168	7
121	121	9
116	154	4
9	10	3
100	109	3
160	161	5
173	173	15
142	142	11
1	2	3
123	123	5
11	12	3
160	170	5
161	163	2
161	161	7
101	101	9
44	142	2
106	106	9
10	11	1
150	150	7
177	178	5
36	137	2
117	118	2
125	126	3
116	120	2
52	80	1
156	159	2
86	90	9
54	54	17
34	34	7
10	10	7
43	143	4
34	138	1
12	13	5
97	99	2
34	139	1
26	28	5
16	16	10
53	119	3
169	172	3
56	125	1
58	58	5
164	164	5
109	114	1
37	37	5
45	138	1
107	109	4
160	172	4
80	80	2
36	145	1
14	130	3
30	31	3
83	85	2
81	82	6
118	157	4
7	8	4
178	179	11
114	115	6
10	39	6
83	83	12
82	150	1
16	17	4
115	118	2
57	57	8
106	107	11
66	157	2
50	151	3
81	138	3
46	80	1
130	131	1
91	102	2
136	137	1
92	109	3
165	166	7
76	78	2
78	79	4
54	55	11
159	162	4
120	121	5
173	174	10
180	180	2
77	79	2
115	117	3
20	20	6
133	154	2
116	117	2
87	89	3
95	96	3
60	61	4
86	89	2
118	121	2
49	50	2
136	154	1
166	169	3
33	36	1
16	18	2
84	99	1
104	156	5
22	23	4
89	96	3
160	164	3
119	154	5
103	103	4
24	26	2
179	180	3
20	21	4
161	167	3
143	144	2
96	96	5
142	143	7
54	124	2
71	72	3
130	130	6
10	36	2
72	74	2
78	149	4
91	100	1
33	137	1
159	160	2
119	153	2
115	122	1
85	86	2
157	157	4
26	42	4
153	156	6
157	158	2
158	162	5
143	145	4
66	171	2
139	140	3
87	104	2
121	122	3
49	151	2
119	120	3
90	95	1
29	30	2
115	153	1
137	138	1
13	51	2
54	56	2
99	99	4
82	149	2
21	41	1
144	145	1
6	7	3
64	65	6
29	31	3
20	26	1
10	37	1
172	172	9
86	88	1
52	54	6
74	74	7
67	68	4
110	113	2
55	125	3
8	21	1
117	121	1
166	167	2
151	152	2
63	64	3
79	136	4
43	44	2
110	112	1
32	138	2
9	154	3
10	35	3
58	125	2
87	88	4
88	98	1
71	150	2
71	156	1
64	158	1
17	41	3
62	63	4
153	154	5
111	162	1
109	113	1
132	133	2
106	115	1
93	101	2
168	169	1
10	38	3
100	108	6
34	35	5
71	149	1
65	65	4
5	7	1
18	21	1
112	114	2
98	100	5
127	131	2
9	35	2
9	42	5
82	82	8
134	154	3
122	123	2
79	154	1
13	49	1
89	99	1
70	72	5
99	102	1
113	159	2
72	90	2
117	122	3
65	159	1
43	45	1
17	40	2
71	75	1
169	170	3
39	40	1
63	112	2
2	5	3
50	54	1
134	134	5
72	76	3
62	119	2
62	122	3
87	90	2
23	25	2
59	124	1
27	28	3
41	42	3
108	109	1
113	114	4
84	86	2
113	158	1
45	82	1
2	4	1
52	151	2
128	131	2
140	145	3
88	96	2
33	37	1
117	154	2
11	13	3
109	111	1
105	151	1
82	83	1
53	121	2
112	159	1
55	58	1
46	81	2
50	53	1
9	28	1
119	152	3
86	87	2
35	36	1
52	134	1
45	46	1
97	100	1
20	41	2
125	127	1
94	95	1
49	81	2
12	49	1
96	98	1
133	135	1
44	82	1
91	101	1
51	82	1
141	143	1
116	153	1
42	43	4
32	36	1
74	75	2
0	3	1
12	25	1
9	11	1
8	19	1
91	94	1
66	155	1
80	133	1
72	107	1
130	132	1
164	167	1
141	146	1
145	146	1
112	113	1
