82	82	8
28	29	1
93	93	8
133	134	6
42	42	1
61	62	3
123	123	5
1	1	4
109	109	13
11	12	6
98	98	12
40	42	2
7	7	13
133	133	11
90	91	6
122	125	5
124	124	3
43	43	9
15	15	25
117	118	2
35	36	6
103	104	6
10	45	2
117	117	6
26	27	4
1	25	3
126	126	14
87	87	10
80	105	2
20	21	13
23	23	11
128	128	11
57	57	5
92	92	8
101	101	6
74	85	2
93	94	1
119	119	14
61	61	3
32	32	13
46	46	11
58	60	2
2	2	7
67	67	12
86	86	1
70	72	1
13	48	3
114	114	6
134	134	8
33	34	1
116	116	9
115	115	3
15	27	1
120	120	11
42	43	2
60	75	6
60	61	4
40	40	2
110	110	11
22	26	2
125	125	16
122	122	8
46	47	10
31	31	3
11	11	9
81	81	7
18	33	3
105	105	6
127	127	15
90	107	2
9	9	5
102	102	10
81	93	3
5	5	3
118	118	7
74	74	2
44	44	10
108	108	3
119	120	4
112	113	1
79	79	3
97	97	16
75	116	6
18	18	4
74	119	3
35	35	5
90	90	7
131	132	4
72	72	14
132	133	2
78	78	6
57	58	2
38	38	8
14	14	13
27	32	6
85	86	4
59	60	6
112	114	6
21	21	7
107	107	6
65	65	15
94	96	3
13	14	2
112	112	9
41	41	3
89	91	1
24	24	1
64	64	6
103	105	5
48	48	5
103	103	3
20	20	7
13	13	9
17	17	3
19	19	6
58	58	1
77	126	5
6	6	10
74	75	2
8	8	13
30	30	5
18	43	4
7	15	2
3	4	2
76	76	13
127	132	1
25	43	3
65	67	2
50	56	2
2	9	4
77	125	2
91	91	2
56	93	2
100	101	6
119	121	3
25	25	3
19	20	1
111	115	1
130	130	7
27	27	6
17	33	3
34	34	2
11	73	3
12	12	1
121	122	3
36	36	6
11	43	1
68	68	9
0	0	4
3	3	6
113	114	4
77	78	10
10	10	4
126	133	1
109	116	2
57	73	1
77	77	7
16	17	2
84	86	2
83	83	7
15	16	4
84	84	3
40	41	3
121	121	2
29	30	2
72	73	3
41	42	3
28	28	5
85	85	2
78	80	2
71	72	5
58	59	1
10	12	4
13	50	4
68	69	1
75	117	1
60	60	1
84	85	1
121	132	2
18	19	3
7	38	1
27	99	2
27	28	1
131	131	5
66	66	7
18	24	2
29	29	5
8	14	1
39	39	1
114	115	1
73	119	6
100	100	3
99	100	3
88	88	2
111	112	2
130	131	4
1	2	1
95	95	3
69	70	3
75	76	8
111	111	4
82	83	2
10	14	1
24	30	1
66	67	3
118	125	1
121	129	1
124	126	1
31	32	2
104	106	2
47	47	3
2	3	3
55	56	1
90	92	1
63	63	1
63	64	3
6	14	1
78	102	3
80	80	3
27	43	1
129	129	1
40	54	1
131	133	1
51	116	1
10	11	1
92	93	3
19	21	1
16	16	1
94	94	2
97	98	3
113	113	3
79	103	1
56	56	2
25	30	1
127	128	3
45	46	1
70	70	2
126	134	1
79	110	2
125	134	1
5	6	1
45	47	2
13	47	1
20	35	1
37	37	1
80	101	1
8	9	2
4	4	2
75	75	1
108	116	2
7	8	1
45	45	1
55	55	2
105	106	2
122	130	1
22	22	1
66	74	1
33	33	2
110	112	1
76	78	1
15	22	1
82	84	1
112	115	2
28	41	1
132	132	1
95	102	1
96	97	1
32	33	1
99	99	1
