13	99	1
76	76	4
29	29	4
85	85	14
66	133	2
15	15	2
20	20	9
18	18	2
109	109	4
62	62	5
34	34	6
89	89	2
79	82	2
95	95	3
84	87	2
128	128	2
59	59	4
65	65	9
55	56	1
61	134	3
90	91	4
34	45	3
68	108	3
70	70	8
123	134	2
21	21	4
45	46	3
95	127	1
72	105	2
24	52	3
78	78	7
7	46	2
35	35	4
101	101	3
72	124	1
0	121	2
132	132	2
103	103	3
11	13	2
114	114	3
86	86	4
94	131	2
119	119	13
8	8	9
16	16	4
80	82	2
8	44	2
14	14	2
108	122	1
98	98	7
119	120	1
57	57	3
79	79	1
82	82	5
37	38	6
97	99	1
87	87	6
2	2	2
7	7	4
3	4	2
13	13	2
7	106	1
102	102	9
125	134	1
93	95	3
48	87	1
62	64	2
44	109	2
56	111	1
95	125	1
118	120	1
27	27	2
107	107	8
28	29	2
117	117	3
72	72	2
131	131	2
106	106	3
94	95	3
53	89	2
80	80	14
44	44	3
1	1	4
82	83	1
72	73	1
22	22	3
36	37	1
22	23	7
25	29	5
107	132	2
100	131	2
71	131	1
123	123	5
0	0	2
97	97	4
9	9	7
56	59	2
122	123	2
6	6	4
10	10	4
12	12	5
58	113	2
78	82	1
105	105	7
97	113	2
100	127	1
108	108	6
3	3	5
25	25	3
73	75	2
23	23	5
1	15	4
59	86	1
26	26	6
126	127	4
57	59	1
90	90	3
83	83	7
11	11	3
19	19	5
16	25	1
32	32	3
45	47	3
128	129	2
2	43	1
9	45	1
44	52	2
116	116	3
129	129	7
4	4	3
120	120	1
100	101	2
59	61	2
32	33	1
96	96	9
1	35	1
25	68	4
114	119	1
43	43	7
24	53	1
112	119	3
9	61	2
84	85	3
95	96	1
52	52	2
89	90	2
30	30	8
57	106	4
64	64	5
5	5	5
85	95	3
4	5	1
74	74	7
31	31	5
113	113	6
53	78	2
115	115	1
45	90	2
47	50	2
111	112	6
130	131	1
24	25	7
126	126	4
24	26	4
71	71	3
60	60	4
55	55	2
29	100	2
6	7	3
124	124	1
134	134	2
33	33	3
58	58	5
21	22	5
53	66	2
61	61	2
32	34	1
86	115	1
79	86	1
33	34	1
9	20	1
84	84	5
19	23	3
88	88	1
102	103	1
2	13	1
47	47	3
135	135	1
36	36	2
75	75	4
99	99	1
57	67	1
128	133	1
9	70	1
91	95	1
28	28	3
56	58	3
48	48	2
78	91	2
95	121	1
50	107	2
0	127	1
57	107	1
99	109	2
127	127	4
93	94	2
12	35	2
111	111	4
1	3	3
107	113	2
77	78	1
79	106	2
112	116	1
1	80	2
65	68	1
20	21	1
91	91	4
35	36	2
59	109	1
17	17	2
3	44	1
91	96	1
69	69	2
68	71	1
77	77	5
46	86	1
1	87	2
60	62	1
64	94	3
129	131	1
91	92	1
75	94	2
128	130	1
1	2	1
92	93	1
49	50	1
60	70	1
122	122	1
9	133	1
64	65	3
67	67	2
1	45	1
125	125	2
87	90	1
37	37	1
31	33	1
63	63	1
0	21	3
21	26	1
109	110	1
95	131	1
67	68	1
92	128	1
45	88	1
100	100	2
73	73	1
38	38	1
94	94	3
99	100	1
20	27	2
23	26	1
118	119	1
2	9	1
125	126	1
85	97	1
66	66	3
132	133	1
56	56	1
112	112	1
92	92	2
10	67	1
29	80	1
117	121	1
57	90	1
130	130	1
92	134	1
86	110	1
35	38	1
4	10	1
118	118	1
