16	16	5
23	23	4
100	114	2
179	195	2
10	10	9
88	104	1
49	50	2
18	18	5
68	68	13
215	222	2
25	25	11
190	219	6
82	82	5
239	239	13
121	182	2
198	206	2
228	228	6
3	3	3
81	91	5
41	41	16
186	186	5
38	39	7
209	210	3
32	203	3
98	98	12
166	168	4
41	102	2
46	46	2
212	228	2
78	78	2
9	10	2
30	38	5
75	94	2
208	209	3
245	247	5
24	25	1
12	25	1
97	104	5
7	8	1
51	80	1
199	224	3
179	193	3
159	159	6
72	232	2
69	69	6
53	67	3
157	158	7
3	15	3
181	181	9
188	188	6
80	80	18
40	40	12
36	55	1
158	178	2
174	180	2
183	183	6
171	171	4
50	51	3
177	177	13
146	146	3
45	45	3
179	179	5
244	245	3
90	90	10
54	68	4
72	72	7
76	76	8
164	164	10
217	218	6
55	70	4
165	182	4
189	189	3
196	197	1
5	5	7
216	246	3
16	31	1
176	176	3
75	90	2
48	65	2
100	102	3
44	44	8
53	60	1
51	69	2
42	43	1
111	112	4
223	232	2
93	93	2
202	218	6
88	119	1
238	238	2
100	101	1
218	224	2
240	240	15
227	227	11
87	87	10
186	187	2
35	35	8
158	158	10
106	108	1
88	90	1
116	157	3
89	91	2
71	71	9
28	28	9
177	179	3
186	191	3
239	241	3
216	229	1
66	93	5
74	93	2
167	171	1
28	56	2
229	229	11
213	230	2
100	111	1
78	94	2
234	236	2
24	24	1
110	111	4
181	188	1
243	244	2
63	63	5
150	150	4
172	172	6
160	160	7
112	112	14
220	220	6
146	172	4
12	34	2
82	111	2
39	207	9
166	170	2
212	232	5
237	240	4
160	175	4
45	100	3
241	247	2
15	15	13
109	109	14
73	86	2
167	167	8
12	12	5
84	84	2
198	199	5
75	75	5
212	214	5
96	96	11
210	215	3
194	194	4
151	154	1
73	73	10
99	99	6
160	201	3
171	190	4
96	109	5
242	242	14
163	165	2
57	57	7
202	202	4
182	182	8
96	97	4
236	236	6
193	209	3
102	102	12
59	61	4
222	223	5
226	226	7
192	196	1
175	175	12
52	86	2
25	45	2
199	200	1
59	59	8
230	232	4
6	6	3
226	239	3
115	115	3
75	76	3
165	203	6
103	118	1
247	247	8
106	106	2
88	116	4
14	16	1
190	197	4
165	167	3
30	30	7
187	187	8
75	156	4
174	175	2
113	113	13
75	93	1
234	234	9
108	108	4
89	107	4
195	207	2
244	247	3
186	215	1
81	81	3
38	54	2
17	17	11
185	227	2
2	2	12
145	186	3
202	204	3
230	230	5
151	151	14
159	176	1
201	201	14
35	55	4
110	110	9
80	109	3
86	86	6
229	244	1
196	210	3
46	47	1
60	81	5
114	114	3
190	193	3
39	62	2
72	75	1
14	186	2
79	79	4
37	37	6
48	48	15
178	185	9
158	177	4
58	106	3
107	107	8
202	219	1
88	89	10
111	111	5
27	27	6
225	225	2
203	203	5
199	199	8
221	229	2
235	237	4
31	45	3
231	232	3
216	216	14
181	182	3
14	14	5
41	59	3
112	113	3
48	94	3
175	179	1
20	35	1
13	220	2
59	60	5
236	247	2
63	67	2
188	212	2
213	214	2
191	191	3
223	223	8
79	110	1
157	160	4
171	192	4
52	52	1
169	170	6
184	208	2
97	115	2
54	67	1
77	77	6
82	91	8
101	101	2
40	44	3
238	241	3
55	55	3
184	184	7
60	80	2
105	105	5
17	34	2
91	91	6
102	119	2
65	65	1
60	166	1
156	160	2
10	30	3
164	171	2
163	163	3
169	190	1
180	180	3
173	173	9
24	26	1
246	247	2
193	193	6
202	203	2
77	90	1
95	119	4
17	32	1
33	33	8
190	190	6
196	209	2
59	66	1
150	204	1
62	62	4
209	213	6
203	214	2
2	6	2
58	117	1
4	4	5
51	51	4
1	1	6
7	7	11
45	68	3
34	42	2
55	62	4
197	205	1
26	26	3
245	248	2
194	204	4
22	22	7
94	94	2
119	119	9
221	221	10
78	82	3
214	230	2
174	174	3
174	192	2
152	204	4
101	116	7
232	232	13
241	244	4
153	153	11
230	248	5
216	233	4
54	58	5
60	60	2
208	208	9
187	189	1
75	78	4
155	155	8
59	164	4
29	32	1
201	209	3
31	31	1
34	34	3
158	208	2
205	205	10
246	248	2
222	222	5
39	39	12
85	94	2
53	62	1
48	93	2
23	69	1
200	201	2
86	94	3
4	6	1
195	196	2
152	152	6
160	161	1
4	15	1
233	233	3
165	193	1
171	181	3
71	86	4
178	180	2
101	102	2
249	249	1
149	150	4
162	162	7
8	8	2
30	57	2
183	184	6
183	196	4
231	234	1
107	111	5
48	74	1
215	215	4
61	72	3
93	108	1
194	209	5
28	32	6
88	88	8
217	223	1
85	85	6
201	202	2
234	235	3
149	215	4
97	118	1
179	228	1
233	236	2
211	211	4
46	59	3
223	234	3
11	16	1
74	77	3
187	205	4
30	52	4
49	75	3
0	10	1
204	204	2
179	197	3
184	193	4
67	91	3
56	57	2
164	191	4
118	119	3
21	43	3
22	44	2
19	19	3
114	116	1
188	216	1
180	195	1
110	112	5
56	75	1
92	150	4
88	199	1
104	113	1
94	95	2
48	49	7
45	46	2
73	75	2
87	227	5
91	106	2
210	234	4
208	217	4
63	65	4
221	234	3
157	157	4
54	72	1
72	78	3
78	96	4
153	158	2
72	73	1
235	238	1
9	9	10
6	179	4
186	197	3
57	118	2
213	213	4
77	93	2
25	32	1
212	227	1
43	44	1
244	244	7
170	190	5
215	230	1
64	163	2
165	166	1
49	64	2
79	98	3
6	30	2
8	9	6
6	7	2
185	186	5
199	208	3
63	116	4
159	161	1
29	30	2
53	53	4
210	232	2
56	59	2
172	175	2
206	207	3
195	208	1
171	224	2
11	12	3
118	118	7
225	235	1
70	86	2
91	120	1
1	21	2
213	228	4
245	245	3
191	194	2
42	42	4
187	195	3
51	70	3
165	165	5
116	116	2
89	89	1
200	204	3
153	248	1
66	72	1
185	185	2
207	208	4
38	51	2
63	114	3
208	211	3
177	195	1
235	235	2
223	225	3
40	41	3
201	207	1
200	228	2
215	233	2
186	204	3
87	102	3
216	222	1
192	194	5
166	167	3
149	149	2
72	91	1
214	223	2
64	172	2
27	37	1
173	189	2
100	119	3
233	234	1
109	113	2
38	38	6
218	218	5
14	18	2
47	72	1
67	67	5
20	20	3
97	98	2
201	219	2
189	245	3
201	206	1
188	221	2
92	92	2
22	38	2
188	192	1
149	184	1
48	78	6
72	88	2
217	235	3
217	238	1
198	198	1
167	190	2
239	246	1
149	177	1
56	56	6
156	156	5
35	36	2
29	29	3
11	41	2
29	35	1
87	110	1
147	147	6
164	175	4
196	228	1
21	22	4
49	78	3
164	174	1
28	81	1
23	40	2
146	170	2
68	165	3
61	61	9
197	198	1
165	188	2
101	119	1
192	192	4
214	214	2
43	200	1
158	159	1
197	197	3
84	177	3
227	228	3
209	231	1
4	19	1
60	66	1
233	246	1
100	112	1
181	185	4
183	185	5
10	11	3
100	100	4
237	237	8
167	192	1
178	178	6
209	209	2
21	21	7
48	76	1
106	155	1
236	237	3
187	204	2
50	52	6
45	147	2
21	23	5
82	83	2
217	217	7
18	20	3
223	235	3
169	169	2
40	49	1
34	229	1
47	93	2
95	95	3
192	193	1
104	104	1
58	58	1
197	234	6
168	168	2
201	218	1
68	69	2
19	26	4
199	218	1
76	93	4
64	66	1
49	77	1
90	92	2
82	84	2
9	16	3
21	40	2
36	36	4
72	196	1
75	88	1
104	119	1
238	240	4
115	116	1
61	68	1
83	169	1
207	243	3
80	110	1
162	163	1
203	218	2
176	177	3
43	43	3
87	198	1
164	192	2
166	166	3
57	112	1
162	164	2
30	33	2
11	11	2
212	226	3
104	145	1
151	152	1
20	39	2
169	180	2
99	115	1
240	241	1
159	164	1
210	210	2
204	221	2
88	91	1
75	77	3
43	52	1
71	82	1
205	234	2
32	32	4
50	50	2
153	247	1
161	179	1
198	234	2
45	67	2
194	221	1
186	198	1
90	95	2
145	145	3
66	66	3
77	87	4
242	243	6
49	51	1
155	159	2
219	219	2
74	74	4
164	170	1
37	225	2
186	199	2
150	167	1
81	82	1
221	222	3
171	172	3
53	59	1
42	47	2
181	200	1
113	114	3
7	18	3
93	94	2
29	45	2
67	168	1
78	92	1
178	183	2
195	198	2
225	227	1
196	215	1
24	39	1
199	212	2
47	48	1
195	220	2
50	69	1
23	31	1
205	206	1
203	204	2
57	58	1
195	195	1
147	160	1
241	241	2
214	224	1
14	41	1
70	91	2
18	22	2
48	54	1
207	207	2
224	244	1
116	117	4
194	215	1
189	193	1
63	77	1
40	63	2
81	102	2
161	161	2
239	247	1
21	32	2
0	11	1
40	144	2
157	161	3
170	203	2
77	91	1
202	205	2
4	39	2
80	112	2
46	73	1
80	81	1
34	35	1
49	49	2
14	15	1
48	50	1
78	109	1
225	238	2
178	184	1
9	212	1
200	209	1
170	170	1
87	94	1
176	190	1
119	173	1
32	34	1
154	156	1
247	249	2
80	97	1
239	240	1
172	194	1
167	185	1
213	215	3
235	236	1
56	107	1
31	220	2
197	229	1
2	36	4
4	7	2
157	184	2
79	108	2
101	113	1
232	234	2
100	120	1
145	185	3
100	116	1
207	227	2
50	53	1
18	39	1
55	56	2
232	233	2
26	178	1
159	172	1
216	223	1
146	147	2
177	191	1
97	116	1
30	31	2
23	39	1
229	245	1
206	208	1
156	173	1
71	106	2
52	53	1
165	168	3
51	53	2
77	78	1
56	60	1
72	231	1
206	206	1
159	177	1
200	214	1
69	70	1
64	64	2
242	245	1
48	53	1
10	17	1
2	16	2
168	185	1
20	27	1
102	116	1
78	105	2
33	57	1
196	196	2
4	5	1
8	26	1
57	77	1
197	207	1
166	169	1
41	42	1
183	224	1
162	168	1
165	192	2
240	244	2
215	231	1
200	227	1
188	189	1
152	153	1
79	80	1
20	21	1
103	120	1
110	164	1
51	209	1
80	105	1
40	48	1
61	63	1
209	215	1
16	20	1
48	63	1
97	97	1
95	97	1
228	230	1
226	241	1
161	178	1
18	26	1
168	172	1
200	203	1
153	154	1
204	209	1
201	203	1
179	188	2
6	31	1
59	109	1
214	239	1
51	52	1
116	120	1
50	65	1
76	88	1
62	63	1
91	104	1
75	85	1
40	50	1
20	43	1
15	42	1
161	202	1
10	19	1
55	94	1
