55	56	2
122	122	7
12	12	13
101	123	6
54	56	2
184	184	9
72	73	1
75	75	5
119	119	3
117	117	9
46	46	7
123	123	13
94	95	2
16	16	10
96	96	3
15	15	5
143	143	6
171	171	15
182	182	7
24	82	7
126	127	2
42	43	6
97	97	6
32	32	7
101	122	4
169	169	13
112	174	1
20	22	3
33	33	3
149	151	4
74	74	3
37	37	3
61	61	10
44	44	3
149	149	6
117	119	1
105	105	2
144	144	7
181	181	6
105	125	1
180	186	3
43	43	9
17	17	9
176	176	3
60	60	2
126	153	3
135	136	4
3	3	2
58	58	2
179	179	5
188	189	4
103	103	2
30	30	8
60	155	4
72	78	4
65	71	1
1	2	1
48	48	3
186	186	5
70	169	1
173	173	1
178	179	5
118	167	3
55	55	10
131	148	3
1	1	4
50	51	2
114	114	3
172	172	6
10	10	6
81	81	1
127	127	1
82	83	3
105	123	1
172	173	3
76	77	3
136	136	3
73	74	2
73	78	2
160	160	5
148	149	7
98	98	3
47	47	4
61	62	2
24	24	10
53	54	1
82	82	4
126	129	2
196	196	12
173	174	4
39	40	2
88	88	6
130	130	1
175	175	3
168	168	3
40	40	9
8	9	6
106	119	3
112	113	4
185	185	3
68	68	5
72	72	5
170	170	4
70	71	1
13	13	10
104	105	7
100	100	6
133	133	5
57	57	3
25	25	4
194	194	2
45	45	2
65	65	2
23	24	1
49	50	1
65	67	1
41	42	3
52	53	1
147	147	1
23	160	1
192	193	2
116	116	6
55	65	2
90	160	4
3	4	2
53	156	2
185	186	3
50	50	2
189	189	1
26	26	2
141	141	7
78	80	1
129	129	2
117	152	1
140	148	4
183	183	6
138	148	1
14	14	3
41	41	6
158	158	2
23	23	4
159	160	1
118	118	1
117	118	2
163	166	3
27	86	2
108	108	1
110	110	1
177	178	5
181	182	6
156	157	9
75	191	1
2	3	3
130	136	2
78	78	4
25	89	1
161	161	4
57	69	1
135	135	5
142	192	2
112	116	1
131	132	2
52	52	3
59	59	3
164	165	2
29	30	4
150	150	8
49	49	4
138	138	2
142	142	4
70	79	1
51	51	5
187	188	1
83	83	4
0	0	2
34	35	1
31	31	1
116	173	3
53	53	5
26	85	1
161	163	2
74	75	2
77	78	2
146	148	1
172	174	1
59	60	4
24	80	1
159	159	6
6	8	2
115	115	4
150	169	2
129	155	2
130	132	1
112	120	2
117	153	1
88	156	2
42	42	3
139	139	3
0	1	5
181	183	1
80	82	1
115	116	1
70	186	1
54	55	4
120	121	2
71	72	1
192	195	1
11	11	2
79	79	2
99	99	3
77	77	2
61	155	1
46	47	1
167	168	2
62	63	1
63	67	5
133	134	1
179	180	2
9	72	1
117	170	1
35	35	3
39	39	3
193	194	2
192	192	2
59	88	2
126	126	3
186	187	1
59	89	1
4	4	2
76	76	2
36	36	1
30	31	1
38	38	3
111	111	3
169	170	1
170	171	3
89	89	2
109	109	1
108	109	4
171	177	1
66	66	2
56	56	1
115	173	1
114	115	2
2	2	2
154	154	4
145	145	3
69	69	3
31	156	1
66	184	1
47	52	1
71	185	1
61	154	1
155	155	1
34	34	1
64	64	1
176	177	1
193	195	4
134	135	2
166	166	1
1	4	1
161	162	1
127	128	3
180	180	1
84	84	1
18	18	2
19	19	2
22	22	3
160	161	1
187	187	5
24	169	2
15	16	1
27	28	1
151	151	2
107	107	2
150	155	1
176	181	1
18	19	2
47	48	1
124	124	1
196	197	2
7	8	2
107	108	2
195	195	2
13	54	1
71	71	1
104	104	1
63	63	3
167	167	3
88	155	1
6	6	1
33	46	2
143	144	1
58	69	1
8	8	1
95	96	2
189	190	2
153	154	1
48	49	1
10	11	2
54	54	1
98	119	3
114	145	1
163	165	2
184	187	2
101	101	1
102	103	1
102	107	1
31	59	1
177	177	1
27	27	1
134	137	1
101	102	1
23	170	1
140	140	1
20	20	1
9	9	1
152	153	1
112	152	1
166	167	1
130	135	1
