53	53	14
21	22	2
19	19	21
77	77	10
11	24	4
67	67	17
58	58	8
81	82	3
65	65	17
55	55	8
5	5	8
24	24	21
12	12	5
13	13	4
76	76	9
81	81	22
89	89	12
7	7	12
57	58	6
50	51	3
16	17	5
16	16	1
84	84	11
56	66	2
49	84	2
66	66	11
62	62	5
68	68	5
59	59	14
25	25	2
5	56	4
63	63	11
81	84	3
49	49	12
51	64	2
9	9	19
62	63	11
50	50	15
83	83	11
20	20	7
56	57	2
27	27	12
20	78	1
24	25	1
78	83	2
73	74	1
63	64	6
78	79	3
60	60	7
50	64	2
14	14	5
24	66	3
72	72	13
51	51	2
73	73	20
70	72	1
75	75	12
17	34	1
31	31	11
47	69	1
66	67	1
26	26	6
24	67	1
53	58	3
1	1	11
5	71	6
88	88	4
23	24	1
20	21	2
2	4	5
48	61	1
22	22	11
47	47	16
11	21	1
79	79	5
17	17	7
13	33	4
25	34	1
48	52	3
51	54	5
59	60	5
28	84	2
81	83	5
30	31	3
46	81	2
51	52	6
4	4	9
9	31	4
11	87	2
25	27	2
71	71	7
85	85	16
65	66	2
10	10	10
10	31	2
16	30	3
0	0	5
0	1	4
48	48	11
87	87	9
67	69	2
4	57	4
50	61	1
69	69	14
82	82	5
64	64	2
84	90	3
57	57	13
12	13	5
21	27	1
13	23	2
49	61	5
6	12	3
25	28	2
6	13	5
62	77	2
52	52	12
9	10	2
46	73	1
6	6	4
26	65	3
11	11	8
67	89	1
66	79	1
74	75	4
77	80	3
70	70	6
56	71	1
46	56	1
85	86	6
30	30	5
75	76	2
51	55	2
78	78	10
86	87	3
58	71	4
49	82	2
78	80	4
60	61	7
51	58	4
53	55	4
15	47	1
8	10	1
22	23	5
79	80	2
10	26	1
67	68	1
2	58	2
50	53	2
11	14	3
48	69	2
53	63	2
15	15	3
21	21	5
12	33	3
80	80	5
76	77	2
72	73	4
52	61	1
74	74	4
70	71	2
88	89	2
75	81	4
52	53	1
29	29	6
86	86	4
61	72	1
75	84	1
54	55	2
26	34	3
22	25	1
5	26	1
54	54	6
80	82	1
85	89	1
47	66	2
24	28	1
3	3	10
0	2	1
82	83	1
13	31	1
47	81	1
49	59	1
56	56	6
46	48	2
7	9	1
22	66	3
50	84	3
48	49	1
2	2	2
31	32	1
28	49	1
12	17	2
71	72	1
34	34	1
15	31	1
46	46	1
2	3	1
20	65	1
62	64	1
25	26	2
15	71	1
5	34	1
24	77	1
51	60	1
46	72	1
