93	93	22
121	121	27
91	91	29
64	64	7
16	16	10
124	124	18
60	61	3
30	84	7
131	132	11
106	106	7
115	115	39
70	71	10
10	11	9
104	104	24
101	101	22
79	79	34
29	29	22
65	65	22
113	113	13
15	15	26
111	111	31
120	122	3
56	56	20
83	83	15
71	71	21
131	131	16
129	129	32
25	25	15
4	45	1
78	78	27
19	61	2
33	33	27
108	108	15
118	120	1
20	20	9
68	86	2
40	40	16
109	110	4
18	70	4
101	102	7
62	62	7
72	117	1
33	34	6
110	111	12
68	68	8
35	35	21
123	123	14
97	97	22
86	87	4
7	8	4
126	126	15
5	5	15
80	80	24
28	29	4
57	58	5
122	126	1
4	4	18
106	107	12
48	48	6
97	98	14
35	36	5
67	69	1
66	66	17
57	57	22
94	94	20
30	31	3
32	32	9
48	83	3
99	99	16
69	70	8
26	27	2
20	22	4
105	105	16
128	128	16
94	100	4
98	99	7
91	92	17
84	84	24
60	84	2
77	77	16
90	90	22
92	92	19
114	114	20
48	49	4
36	36	25
55	55	12
60	60	16
111	117	1
72	73	8
33	46	4
37	37	25
68	69	3
24	25	5
87	87	19
27	27	16
46	46	12
82	82	24
62	63	9
23	23	14
102	102	31
2	3	5
112	112	23
95	100	3
75	118	2
75	75	28
41	45	2
86	100	1
13	13	14
83	122	3
3	3	18
27	28	9
17	17	23
18	18	19
67	67	16
16	17	11
48	51	1
28	28	16
5	109	1
130	133	9
122	122	11
70	70	19
134	134	31
26	28	1
132	132	30
82	85	4
45	45	20
76	76	20
120	120	23
38	38	22
118	118	24
129	133	6
117	117	22
0	0	11
44	44	27
70	84	6
42	131	2
119	119	11
72	72	12
22	22	14
58	58	23
103	103	21
50	131	2
7	7	16
8	9	7
49	123	5
95	95	13
133	133	15
14	73	1
59	59	19
10	12	2
89	90	9
80	81	5
74	76	6
125	125	13
34	34	17
92	93	8
8	17	2
14	14	15
73	74	2
112	117	2
61	61	25
27	40	1
77	78	8
83	84	7
81	82	9
116	116	15
16	33	3
32	33	6
91	94	5
47	125	1
6	87	3
41	41	10
75	76	5
30	30	13
31	31	24
98	105	6
69	69	13
110	110	29
3	46	4
44	45	9
41	47	1
93	94	2
94	97	3
42	42	24
130	130	20
75	116	10
29	31	4
63	63	22
95	106	1
1	1	2
8	8	15
127	127	25
87	88	5
103	104	11
131	133	2
12	12	16
95	108	3
44	71	1
7	15	5
36	37	8
29	30	6
109	109	11
2	2	22
8	15	3
36	47	1
84	85	8
107	109	1
4	6	1
43	43	14
74	75	4
95	101	6
42	57	3
46	47	12
82	88	5
20	21	6
100	102	6
132	134	1
58	59	11
71	72	10
33	59	3
74	74	18
42	43	11
113	115	2
6	15	4
98	98	20
95	97	4
106	109	3
34	35	7
78	79	12
11	35	4
77	81	1
115	116	3
33	35	3
9	9	18
27	29	3
85	122	2
89	91	1
105	107	2
41	56	5
96	110	5
46	61	1
41	42	8
6	6	14
21	32	4
63	68	4
100	100	16
84	86	10
35	39	1
121	122	1
108	109	10
6	7	11
133	134	2
113	120	4
90	91	1
8	73	1
73	73	20
81	81	15
39	39	10
35	40	7
85	86	6
86	86	16
21	21	19
70	72	2
47	124	1
19	19	22
95	98	4
21	29	1
68	95	3
86	95	2
45	133	1
24	24	12
19	20	7
99	100	14
90	99	3
85	85	11
88	88	16
112	113	9
32	40	1
113	114	2
79	85	6
5	87	4
13	14	5
95	96	1
9	10	9
96	96	10
2	44	1
69	71	5
43	45	1
18	19	5
11	11	13
22	100	4
9	72	4
76	120	1
0	111	1
68	87	1
82	84	5
107	107	13
10	10	22
69	117	5
125	126	3
12	86	5
18	20	2
40	41	1
39	41	1
76	77	5
39	40	4
43	92	11
23	24	3
60	86	1
119	120	3
46	72	2
58	82	1
123	124	3
88	90	1
55	56	10
28	34	1
83	85	1
51	55	6
55	91	7
1	2	3
31	48	5
3	4	3
97	106	3
39	49	1
128	130	3
49	125	7
19	23	5
31	36	2
12	13	4
114	118	1
80	93	4
28	30	1
11	14	1
42	130	2
121	123	2
30	59	3
41	60	5
126	128	4
73	82	2
114	115	5
129	134	4
37	38	4
31	40	3
11	12	4
22	25	1
82	83	1
46	71	3
22	26	2
118	119	5
26	26	8
15	20	2
21	25	4
45	46	6
85	107	1
124	126	1
50	50	2
8	32	5
63	64	2
79	80	5
94	96	1
74	80	2
55	131	4
25	26	3
107	108	3
26	101	2
25	104	1
48	110	3
60	70	1
104	105	2
38	39	4
59	85	1
32	41	1
49	50	1
31	32	1
65	66	1
127	128	1
20	59	3
89	89	2
21	26	1
126	132	1
94	95	3
13	73	1
70	101	4
123	126	3
31	34	1
4	85	2
85	101	5
86	122	1
64	84	1
47	47	12
64	65	1
93	98	1
5	99	2
2	4	1
67	70	2
80	82	1
63	71	2
126	133	2
59	86	1
0	67	1
124	125	1
61	62	1
24	26	1
31	58	2
120	121	3
78	80	2
83	87	1
129	130	3
15	33	1
8	93	1
32	34	3
5	6	2
95	113	1
100	101	2
54	54	1
0	46	5
13	16	3
125	134	1
106	110	1
33	36	1
114	116	2
47	60	1
49	49	3
47	82	1
127	131	2
80	123	4
48	124	2
79	81	3
79	123	1
60	69	1
67	68	1
66	68	2
119	121	2
45	132	1
126	127	2
84	122	1
58	89	1
44	130	3
47	48	3
103	106	1
84	108	1
17	18	1
117	118	3
93	97	1
33	86	2
80	94	1
22	101	2
30	60	1
43	91	2
66	67	1
24	70	3
75	119	2
57	69	1
1	46	1
93	96	1
83	123	1
114	117	2
61	70	2
15	34	1
72	116	1
2	6	5
27	30	3
102	104	1
88	92	2
96	97	1
59	95	2
74	116	1
110	117	1
61	63	1
16	34	1
59	60	1
9	33	1
38	40	1
71	101	1
113	116	1
76	81	1
98	106	1
80	87	1
130	132	1
89	92	2
45	70	1
32	59	1
76	79	1
102	103	1
14	82	1
36	39	2
123	125	1
37	39	2
32	39	1
56	57	1
11	13	1
29	40	1
85	109	1
49	88	1
15	18	1
7	44	1
99	101	1
96	99	1
