28	28	6
89	89	3
38	38	7
117	118	3
79	80	1
4	4	8
0	0	7
142	142	8
103	103	5
33	33	4
108	109	3
105	105	9
71	71	4
137	137	3
63	64	3
12	12	9
23	23	7
145	146	2
132	132	1
34	34	4
111	111	8
126	126	3
83	83	1
93	93	8
124	131	3
80	80	4
10	11	2
134	135	6
9	9	7
116	118	4
50	50	8
39	40	3
129	129	7
118	118	8
84	84	1
73	74	2
87	87	6
31	42	3
18	73	2
79	79	3
13	13	4
142	143	3
106	116	4
62	62	5
37	38	2
121	121	4
90	90	2
74	74	5
14	14	6
53	53	6
17	19	3
4	5	3
80	81	1
64	64	3
25	25	3
24	24	4
69	70	3
2	3	2
68	68	4
79	81	7
41	82	1
90	91	2
52	52	4
76	76	3
99	99	6
125	126	7
36	37	3
60	61	1
81	81	4
28	38	3
144	144	3
2	2	2
123	123	2
84	85	6
65	65	3
22	23	2
86	86	4
102	102	5
10	10	10
104	104	4
0	42	2
20	20	7
125	125	4
68	69	3
143	144	3
130	130	10
107	107	1
97	98	3
11	18	1
56	58	5
21	21	9
11	77	2
37	91	1
70	70	5
10	18	1
120	120	9
106	106	3
100	100	6
54	54	3
32	32	4
114	114	5
72	72	1
94	94	3
79	82	3
61	69	1
76	77	1
110	111	1
46	47	5
67	67	5
112	112	5
29	29	2
77	77	2
38	76	2
26	26	3
133	133	1
55	55	2
41	42	2
110	110	2
136	138	3
97	97	2
3	4	2
39	41	4
1	1	7
49	49	2
102	104	3
141	142	8
98	114	4
101	101	5
66	69	2
22	22	3
63	63	5
27	27	5
17	17	1
35	49	2
81	91	3
12	20	1
131	131	2
128	128	1
55	56	4
108	108	5
83	85	3
132	133	3
67	68	2
96	96	7
5	5	4
79	87	1
30	30	1
92	92	1
10	41	1
49	58	1
8	9	7
15	15	2
109	109	5
107	108	1
48	52	1
14	25	1
132	134	2
17	18	2
123	127	2
55	60	2
127	127	1
0	1	1
88	89	3
81	82	2
69	69	1
20	21	4
72	75	1
92	93	2
75	92	1
37	37	2
35	35	2
48	57	1
122	122	2
28	29	3
40	40	2
106	107	1
119	120	1
16	16	4
98	98	1
13	19	1
12	19	1
126	128	2
123	124	1
138	138	4
142	144	3
36	36	2
28	41	1
139	139	2
40	47	1
35	36	1
59	59	4
25	26	3
88	88	1
117	117	3
42	43	2
108	110	5
59	63	1
140	141	1
18	18	1
47	47	3
139	140	1
116	116	1
3	3	1
102	103	1
82	83	2
140	142	1
92	94	1
125	140	1
49	50	1
77	86	1
135	135	1
31	31	1
115	115	1
42	42	1
74	76	3
65	71	1
61	64	1
89	115	1
118	120	1
136	139	2
39	39	1
77	78	1
113	113	1
43	43	1
1	31	1
61	61	2
89	90	1
8	8	1
19	19	1
60	60	2
95	110	2
11	11	1
75	76	1
34	35	1
116	119	1
58	59	1
106	119	1
114	115	1
134	134	1
59	61	1
