18	18	17
71	74	3
106	107	7
206	207	3
103	103	5
97	100	3
36	36	4
8	8	6
85	102	4
167	167	6
45	45	8
61	61	5
225	226	3
5	5	5
117	117	4
162	166	1
59	59	6
218	218	3
30	30	4
12	33	1
201	202	4
99	100	4
79	84	2
88	88	3
187	187	1
216	216	9
169	169	1
43	43	5
101	101	3
239	240	3
245	246	6
46	47	2
70	71	3
188	188	2
21	21	2
91	91	2
168	168	5
27	27	10
117	118	5
182	184	2
198	209	3
38	38	4
153	154	5
65	106	1
204	204	7
26	26	7
153	159	1
212	212	4
112	112	2
11	12	6
87	107	1
219	219	5
199	232	1
153	166	2
85	85	5
164	229	3
205	205	3
56	56	2
184	196	2
228	228	3
47	47	3
6	35	4
212	213	2
179	179	3
171	171	2
111	112	1
231	231	1
241	242	2
198	198	4
41	41	2
94	94	4
37	37	7
151	152	2
52	52	2
161	161	3
42	42	7
247	248	2
154	159	4
3	5	4
213	215	2
207	229	4
243	243	1
9	10	2
114	115	5
106	106	6
51	51	2
160	160	4
162	162	2
60	106	1
4	5	4
53	204	3
204	205	3
156	156	3
40	110	3
151	151	2
190	190	1
69	69	5
100	100	8
180	180	3
189	190	4
40	115	4
87	89	1
65	65	5
193	193	1
208	213	1
89	90	2
197	201	1
57	57	6
186	186	3
99	99	3
232	232	2
172	228	2
79	80	2
158	165	2
223	223	3
214	218	3
78	78	3
63	63	5
5	6	1
158	159	1
92	92	6
38	39	4
155	155	5
28	28	4
71	114	1
237	238	4
201	204	5
72	72	2
93	93	7
229	229	6
54	54	3
164	164	5
165	165	5
84	84	1
69	70	3
183	183	7
236	236	2
178	178	5
88	89	10
240	241	1
22	22	2
243	244	2
201	205	1
31	31	3
11	17	2
249	249	2
112	113	2
209	209	4
155	156	4
52	53	7
97	97	1
47	48	2
39	39	3
223	234	2
103	106	2
116	116	3
46	46	5
197	200	1
146	146	4
192	192	4
166	166	1
105	105	6
150	150	4
203	203	5
113	113	4
143	147	2
8	9	5
181	181	1
173	212	3
33	33	3
95	95	2
180	181	1
215	215	3
3	3	5
201	201	4
36	39	1
213	213	3
225	225	2
215	220	3
86	87	2
80	80	2
100	101	1
157	165	1
67	67	2
40	40	3
62	205	1
145	147	1
236	237	4
55	57	2
76	76	1
70	70	3
96	96	2
37	38	1
53	53	2
193	194	2
199	199	2
49	50	2
10	10	2
23	29	1
185	185	2
178	179	2
174	174	3
188	192	1
214	214	3
49	49	2
70	89	3
108	108	7
90	90	5
109	109	1
217	217	1
65	75	3
211	211	1
42	43	2
6	6	2
62	62	3
222	222	3
104	104	1
192	193	2
58	60	1
12	12	2
244	244	2
3	6	3
7	7	1
27	28	1
62	63	3
23	23	2
52	62	1
61	62	2
25	26	3
44	161	1
220	235	1
230	230	1
184	203	1
224	234	1
207	207	1
177	177	1
147	147	1
79	79	2
15	15	1
96	97	3
227	227	2
63	86	1
224	224	3
157	157	1
185	191	1
153	158	2
44	44	1
235	235	1
171	182	1
94	95	1
228	229	1
32	32	2
54	55	1
163	170	1
55	56	1
18	19	1
247	247	2
236	239	1
48	48	3
17	17	1
183	197	1
119	119	2
25	25	1
175	175	1
98	98	3
64	64	2
206	230	1
77	105	1
19	19	1
7	34	1
74	75	1
82	84	2
200	200	2
10	11	1
40	52	1
16	16	1
49	169	1
41	45	1
231	240	1
21	22	1
164	228	1
53	54	1
86	86	1
11	11	2
159	229	1
206	206	1
68	89	1
151	171	1
36	40	1
215	218	1
179	248	1
194	194	2
245	245	1
44	45	1
22	23	1
65	77	1
