77	78	2
79	89	5
70	70	4
46	64	1
23	38	1
67	67	6
153	187	2
74	204	1
52	52	2
6	22	3
45	45	2
241	249	5
164	182	3
76	76	3
41	45	1
179	185	4
88	89	4
3	3	2
43	169	2
93	109	2
120	120	2
201	201	9
61	61	2
225	225	6
217	217	6
93	119	3
58	58	4
171	183	1
61	94	7
186	188	2
10	12	4
111	116	1
239	241	3
10	18	2
2	246	3
228	249	3
115	117	2
26	31	4
56	56	2
220	220	2
50	50	1
16	17	1
84	99	3
215	217	5
62	62	1
113	113	3
74	83	2
198	215	5
112	112	5
73	74	2
14	14	5
165	173	3
164	165	2
32	32	2
189	207	1
224	224	6
150	150	2
55	81	3
58	84	2
201	215	3
213	223	1
27	31	3
81	81	6
214	245	2
60	77	3
20	38	1
170	186	1
5	5	9
48	48	2
223	223	1
220	230	7
12	12	4
8	8	4
110	112	2
214	214	9
40	52	4
203	205	1
34	48	3
166	192	2
232	245	2
21	22	2
232	244	1
196	207	1
57	57	1
83	98	2
50	72	1
70	82	5
144	158	2
197	213	4
54	68	1
21	21	5
76	88	5
96	104	1
101	101	5
172	172	4
202	202	1
62	65	1
42	48	1
169	169	2
243	243	5
169	187	2
212	232	3
48	68	2
220	234	1
20	32	1
204	237	2
151	163	4
82	167	2
103	103	1
195	202	5
1	14	1
80	80	2
2	7	1
29	29	5
3	4	3
175	175	2
27	46	2
84	84	2
170	191	4
54	54	1
92	99	1
155	155	4
23	23	5
174	176	2
61	63	1
222	222	1
172	177	1
0	29	1
197	220	4
24	43	3
162	168	3
153	153	5
95	104	8
7	226	1
66	66	2
73	78	2
77	77	3
73	73	2
4	4	3
48	65	2
60	62	3
210	231	2
203	203	2
230	230	2
5	18	5
207	208	2
100	100	2
51	69	2
109	109	2
227	228	2
79	79	6
228	231	2
195	195	3
163	182	1
244	244	8
151	165	4
95	106	4
100	116	1
100	117	1
85	88	1
117	117	3
117	119	1
51	51	4
83	96	2
116	117	1
197	203	1
5	22	3
2	18	1
85	109	3
44	44	5
53	56	3
65	68	1
174	177	2
246	246	2
64	64	1
8	33	3
42	42	2
29	45	2
24	26	2
99	167	1
181	181	2
94	94	1
14	29	1
236	236	5
226	231	1
168	169	1
10	28	1
31	35	1
114	114	2
118	118	5
203	218	2
26	29	1
77	92	3
104	120	1
82	197	1
209	209	4
181	184	2
150	245	1
17	18	3
167	167	3
174	174	1
194	194	4
77	82	2
196	196	5
229	233	1
0	248	1
155	157	2
169	180	3
39	39	3
186	194	4
52	72	1
30	30	3
96	103	3
92	97	1
200	201	4
87	111	1
77	79	4
190	207	5
213	213	2
52	55	3
5	15	4
3	8	2
112	119	1
209	214	2
119	119	3
178	215	1
6	19	3
105	107	1
153	155	2
57	68	2
71	153	4
159	161	2
70	71	1
59	59	1
210	210	3
208	208	2
234	242	2
4	5	4
1	242	2
16	33	1
13	14	3
178	183	1
28	28	1
211	225	2
187	207	1
179	182	2
233	233	2
36	87	1
65	77	1
26	30	2
96	98	2
206	219	3
64	78	2
187	192	2
205	205	2
11	11	2
228	242	1
7	231	1
74	91	1
78	79	1
26	43	1
89	89	1
232	246	1
170	202	3
49	49	4
60	68	1
83	90	1
160	160	2
211	212	1
173	174	2
71	74	1
183	183	1
19	232	4
200	200	2
46	63	1
53	53	2
229	229	3
232	233	1
99	113	1
149	150	1
164	180	2
189	209	1
46	69	1
158	172	1
218	218	1
221	221	1
61	77	1
82	87	1
8	24	1
243	247	2
199	216	2
53	54	1
161	161	1
161	178	2
64	89	1
22	29	1
95	102	2
74	84	1
18	20	1
104	105	1
40	40	3
76	77	1
157	158	2
75	75	1
19	22	2
7	21	3
27	27	2
242	247	2
50	77	2
62	89	1
243	244	1
92	92	1
54	88	2
9	10	1
154	154	1
27	32	1
24	24	1
163	165	2
11	28	2
150	151	1
196	219	1
7	11	2
192	211	2
219	244	2
2	2	1
59	63	1
7	22	1
107	107	2
186	204	2
95	95	1
162	162	1
240	240	1
36	50	1
241	241	1
196	197	1
2	5	2
115	115	1
208	209	1
89	93	1
110	110	1
90	91	2
102	102	2
169	185	1
50	56	1
72	76	2
202	208	1
192	192	1
16	28	1
239	240	1
190	193	1
246	247	1
227	234	1
34	41	1
46	51	1
14	15	1
162	183	1
90	93	1
203	215	1
238	238	1
238	241	1
184	184	1
33	33	1
177	177	2
102	118	1
61	80	1
152	152	1
45	57	1
204	221	1
