34	58	3
119	119	2
173	173	1
87	101	2
84	84	2
127	127	5
57	57	3
155	155	15
0	0	6
63	63	4
162	162	3
24	24	5
169	169	6
19	19	6
97	97	2
101	125	2
75	75	5
79	79	4
123	123	4
182	182	2
27	27	2
146	162	3
151	151	6
95	95	2
155	163	4
41	42	2
77	77	7
121	122	4
171	171	3
155	180	2
174	174	2
187	188	4
76	99	3
113	130	3
67	68	1
110	110	7
9	48	2
59	61	2
14	14	4
168	168	8
133	133	8
79	82	2
153	153	7
111	111	9
134	134	6
142	142	5
76	96	2
113	113	5
182	183	2
4	4	4
102	102	3
179	179	6
170	170	9
61	61	5
81	82	1
180	180	6
15	15	1
148	148	3
2	2	1
146	146	3
53	55	2
83	84	2
104	107	4
25	42	2
130	135	2
131	168	3
59	59	5
56	57	2
90	124	1
5	6	4
107	107	1
25	25	6
73	73	1
91	92	6
159	159	3
114	114	4
68	68	2
125	125	2
77	99	4
145	145	6
118	126	1
45	45	2
85	85	5
128	129	2
157	157	6
69	69	1
159	160	4
165	186	5
70	71	1
183	183	4
31	31	3
39	73	2
132	167	3
55	55	3
79	170	2
158	160	3
27	30	1
106	106	2
149	149	3
140	140	1
3	3	6
77	109	1
37	120	1
30	30	6
124	124	5
41	75	1
163	163	4
184	186	1
100	100	7
93	93	5
34	134	1
1	1	5
147	151	2
142	143	4
33	35	2
150	150	3
175	176	2
147	147	2
138	183	1
34	35	3
48	48	4
96	96	2
90	90	1
147	148	1
96	97	2
62	62	1
165	187	2
142	183	1
116	116	4
106	108	2
31	57	2
130	130	3
105	112	3
112	126	1
92	92	1
91	93	3
13	13	1
160	180	1
100	104	4
188	188	6
144	144	2
166	166	2
134	138	2
39	39	2
54	54	1
175	177	1
66	66	1
36	135	3
13	26	4
101	101	1
32	35	3
175	175	1
108	110	2
156	157	5
58	58	3
39	75	6
118	118	11
91	91	7
26	26	3
33	34	1
8	8	2
53	53	2
162	163	1
30	31	2
126	126	2
25	26	1
145	168	4
156	161	1
6	6	2
18	24	6
71	71	3
126	127	3
125	128	3
37	134	2
173	174	3
99	107	2
131	138	2
154	154	4
38	38	2
153	164	1
120	120	5
82	82	5
42	42	3
141	141	2
107	108	3
85	91	1
90	91	4
43	43	2
104	109	3
184	185	2
115	132	3
7	7	1
68	86	1
82	89	2
41	77	2
157	174	1
122	122	2
94	94	6
30	56	2
39	56	1
56	56	1
157	180	6
4	7	1
152	161	3
115	131	3
151	160	3
87	99	2
10	10	3
111	112	2
9	10	1
83	88	1
135	135	1
21	22	3
80	80	6
139	139	2
150	151	2
5	5	2
40	40	4
74	75	1
100	102	2
37	45	1
178	178	2
36	57	2
53	54	2
16	61	1
117	118	1
61	62	1
139	140	1
81	81	1
109	109	3
130	133	2
102	127	1
99	99	1
154	168	2
20	20	4
117	117	1
21	21	1
130	166	2
75	78	1
62	63	1
190	190	1
189	189	2
147	160	1
187	187	1
175	179	2
9	28	1
12	13	1
16	25	1
47	47	3
108	108	1
20	22	1
36	59	2
136	136	3
67	67	1
132	134	1
33	33	1
177	177	3
55	72	1
185	185	1
30	142	2
130	132	1
131	131	2
10	11	1
22	70	1
66	117	1
166	169	1
186	186	1
46	46	1
121	169	1
125	126	2
23	23	2
71	72	1
167	167	3
43	44	2
154	155	1
71	74	1
71	73	1
37	37	1
0	99	1
83	83	3
72	73	2
171	173	1
76	76	3
75	119	3
12	12	2
25	41	1
105	105	1
86	86	1
64	64	1
58	59	1
38	39	1
178	183	1
120	135	2
91	95	1
164	164	1
121	121	1
150	159	1
11	11	1
72	72	1
165	166	1
65	65	1
115	115	1
156	158	1
161	161	3
70	81	1
89	89	1
19	23	1
59	60	1
