236	236	15
96	186	4
240	241	8
145	150	4
15	15	20
20	34	2
69	238	6
101	101	13
112	119	1
242	242	10
238	238	19
16	16	20
69	69	16
186	186	11
21	21	28
175	175	18
1	22	2
68	184	1
35	35	9
83	83	4
237	237	6
85	85	21
35	58	1
4	5	6
56	56	11
189	190	6
71	71	15
71	224	2
65	83	3
65	185	1
33	33	24
86	86	13
209	219	1
151	244	2
67	68	7
217	218	5
180	183	12
207	225	5
88	88	7
181	181	13
177	177	22
62	63	7
172	172	11
26	26	14
215	216	4
31	31	17
204	204	16
176	176	21
48	108	1
191	191	5
202	228	1
95	95	25
217	217	21
44	44	10
76	76	9
28	29	12
42	45	2
104	104	13
43	43	13
231	234	2
50	50	17
162	163	1
153	166	4
19	19	10
78	82	8
213	214	3
169	181	1
237	238	3
68	68	26
188	188	7
109	109	20
4	60	2
167	167	20
108	177	4
144	147	3
116	120	3
119	120	1
226	226	21
156	156	21
28	28	19
171	171	23
99	107	1
109	110	4
72	72	12
63	85	5
200	200	15
248	248	5
115	119	6
158	159	3
8	59	5
241	241	11
207	235	7
117	117	19
225	225	10
209	223	4
155	155	17
48	48	6
1	1	14
11	201	6
67	67	7
17	17	10
201	205	3
71	73	3
70	70	14
183	184	8
36	36	19
62	62	12
22	31	1
23	23	13
10	10	42
231	233	2
99	102	4
30	30	10
118	118	8
96	96	21
180	195	2
181	182	8
164	205	2
90	93	1
170	172	7
47	86	4
27	27	11
8	19	2
182	182	11
152	152	8
214	214	14
211	211	12
46	46	18
94	94	13
5	5	11
185	186	2
195	247	2
159	168	2
9	9	14
40	44	2
67	239	5
147	177	2
100	145	2
110	111	8
103	103	9
165	166	5
166	166	12
51	52	9
96	97	4
47	47	11
34	52	4
229	230	6
220	220	10
198	198	25
182	193	3
37	229	1
221	223	3
55	55	12
46	52	2
53	53	19
100	100	31
150	150	16
99	99	4
157	157	15
169	169	13
47	58	5
40	41	4
243	243	7
205	205	23
80	88	3
245	245	9
34	34	7
7	7	5
219	220	3
65	65	12
65	67	3
215	215	14
212	212	16
179	179	11
112	118	1
4	18	2
231	231	7
54	54	29
96	103	2
32	51	3
18	18	7
201	201	12
119	119	16
180	248	2
98	99	8
14	107	2
100	101	5
97	97	8
164	206	1
189	189	6
206	206	5
186	192	3
154	154	12
175	176	6
61	69	2
41	41	15
84	84	15
85	199	4
109	174	2
157	159	1
81	81	17
30	31	4
113	113	19
117	118	14
110	110	12
187	187	19
26	54	2
8	60	2
202	202	6
29	29	10
115	115	13
240	244	2
98	98	27
92	100	1
86	87	3
2	2	8
160	161	15
20	20	5
12	110	1
178	214	5
168	171	3
193	194	2
203	203	4
89	90	7
74	74	5
163	163	4
102	102	7
21	57	1
160	160	5
247	247	5
59	94	3
88	98	2
91	91	5
114	114	11
95	100	2
88	89	4
184	195	2
216	216	12
200	201	2
209	211	5
212	214	3
2	38	1
18	54	2
196	196	6
13	86	1
221	221	12
193	193	13
85	86	8
63	63	19
57	58	7
84	85	5
34	35	3
162	162	7
211	212	1
165	165	12
38	41	5
32	52	5
195	195	12
234	243	1
207	207	16
45	45	12
79	79	13
161	161	2
26	27	3
32	32	11
223	223	10
38	229	1
222	240	1
181	183	3
90	90	14
157	162	6
105	108	2
87	88	14
183	202	4
217	240	2
52	53	10
170	170	7
52	52	14
50	91	9
210	210	7
151	151	18
36	54	4
36	85	1
155	156	2
106	107	6
73	74	2
103	191	2
2	203	2
218	246	6
85	151	7
33	34	3
69	70	3
4	4	5
14	14	8
231	235	3
64	64	12
167	170	1
161	168	4
50	51	2
192	192	5
153	153	26
64	65	12
209	209	9
102	103	5
73	77	3
33	47	1
183	183	13
151	200	6
47	54	4
27	44	7
25	25	14
75	77	5
213	213	11
17	18	2
116	116	11
83	84	10
173	173	11
225	236	4
108	108	4
158	158	4
58	58	4
98	185	1
227	227	7
104	178	6
144	145	3
56	58	5
49	91	4
6	230	5
80	81	3
198	199	2
60	74	3
40	40	11
210	213	2
77	77	18
228	228	5
169	172	2
208	208	7
11	11	16
49	51	7
242	243	1
180	180	17
168	168	10
112	112	11
207	244	2
54	55	8
9	169	1
6	6	20
178	178	11
222	223	4
176	209	7
46	53	1
90	91	3
226	244	1
35	214	1
213	230	1
229	229	15
71	72	2
101	102	4
0	1	4
164	167	1
190	190	4
216	218	2
185	185	6
157	158	13
72	74	2
68	70	4
61	61	9
60	60	7
191	194	4
16	234	1
172	177	3
47	48	3
10	212	2
175	223	4
83	85	8
218	218	23
197	197	18
116	117	10
46	55	4
199	199	20
205	228	1
94	95	4
239	239	7
65	88	5
164	164	6
109	173	5
235	242	1
165	207	3
111	111	12
28	41	1
202	205	1
93	93	4
152	234	1
38	38	13
174	178	4
41	42	5
231	232	2
174	174	11
105	187	3
3	3	7
199	200	4
220	225	2
238	239	6
167	172	3
175	209	1
8	9	2
56	75	7
175	214	1
14	110	3
152	210	12
3	41	5
218	236	2
234	235	3
235	236	7
36	217	1
60	61	8
203	205	3
70	175	3
159	175	2
1	33	4
9	19	5
37	37	6
99	101	2
16	59	2
19	20	2
235	235	13
208	221	1
34	186	6
38	39	1
11	150	4
108	148	2
219	219	8
233	234	3
82	82	8
78	95	9
164	165	9
170	176	6
85	93	2
8	201	1
79	82	6
225	234	5
20	21	7
57	74	5
90	98	2
115	118	8
240	240	21
102	187	6
220	221	4
118	119	7
210	242	1
224	224	16
169	170	3
49	49	12
184	184	19
109	112	4
6	17	3
63	204	6
49	50	11
208	219	3
181	186	2
16	95	2
220	235	2
69	175	2
33	185	1
79	84	2
238	240	1
112	113	6
214	242	2
191	211	1
39	39	5
12	171	1
87	87	8
212	224	1
59	75	5
188	211	2
218	237	3
162	170	2
156	157	3
53	56	1
76	191	1
217	230	3
0	0	3
96	99	2
218	222	3
245	246	6
183	195	1
59	59	9
225	242	3
203	204	10
105	111	3
102	104	3
233	233	5
180	185	2
146	160	1
35	48	1
5	17	2
15	16	6
241	246	3
44	45	3
80	80	7
188	190	7
32	33	3
67	70	3
220	223	2
204	224	2
20	58	1
188	189	3
197	199	3
215	245	2
221	224	4
210	211	7
150	151	4
232	232	6
12	17	2
179	195	5
84	185	3
161	164	3
115	116	1
188	191	8
194	209	1
3	38	9
36	235	1
113	119	3
145	145	6
73	73	6
216	245	3
71	175	2
193	195	4
72	73	2
35	53	1
92	92	8
51	51	9
219	221	1
6	19	1
178	180	3
101	198	2
158	175	2
215	217	4
35	36	2
5	229	3
2	41	3
2	3	1
239	240	6
95	103	3
199	246	2
48	75	4
95	117	1
79	80	4
177	178	6
174	247	2
25	36	2
229	233	1
154	155	2
225	226	2
108	110	4
14	101	4
42	42	2
78	197	1
43	116	2
74	75	1
102	188	2
103	188	4
159	159	7
92	98	3
209	222	2
64	70	1
162	165	1
167	169	2
27	28	7
236	237	2
174	177	3
3	20	1
145	156	3
92	93	2
163	166	1
183	197	2
8	8	9
222	222	7
89	89	2
191	210	1
172	173	3
179	247	2
203	225	2
192	196	2
34	55	1
181	193	6
236	239	1
215	218	1
1	93	1
233	246	1
97	185	4
1	30	2
34	57	4
47	110	2
67	175	3
52	240	2
198	246	2
22	22	8
179	180	2
220	236	4
66	66	14
175	182	2
173	243	1
178	179	2
38	227	1
226	227	2
171	173	4
66	184	2
76	77	4
163	174	1
47	55	1
107	107	8
244	244	12
4	7	2
82	83	4
204	205	5
208	242	1
56	57	3
78	79	3
174	207	7
53	54	3
109	119	5
191	193	2
105	107	2
103	104	3
179	182	2
105	110	2
180	193	2
186	188	4
93	94	1
248	249	2
82	84	5
194	195	1
35	55	3
50	76	5
95	96	9
228	231	4
102	178	4
175	178	2
152	227	3
197	246	3
114	115	6
24	24	4
23	24	2
233	242	2
191	192	5
12	12	7
24	25	3
154	156	3
62	204	1
106	111	2
182	183	4
173	174	4
190	191	5
147	147	2
34	53	2
158	168	1
34	60	4
208	211	1
104	107	2
187	189	1
108	119	1
189	210	1
62	72	2
63	68	4
157	192	2
37	43	2
181	192	2
46	75	2
6	144	2
73	174	1
233	243	2
221	222	2
16	109	1
95	97	2
33	52	2
169	190	2
109	111	5
91	92	1
92	99	3
153	156	2
209	220	1
15	110	3
167	168	6
42	43	2
175	208	3
55	56	1
104	106	3
156	160	1
244	246	1
220	226	1
187	211	3
26	46	2
61	95	1
230	233	1
61	62	1
33	62	2
206	207	3
216	217	6
186	213	3
57	57	4
5	60	2
86	89	3
202	212	1
88	227	2
61	63	3
21	22	2
181	208	2
181	184	1
90	92	1
168	169	2
64	83	1
214	215	1
109	206	1
14	15	2
80	87	3
168	173	5
81	85	2
113	116	3
38	40	1
192	194	2
234	234	8
111	112	2
189	212	2
89	98	1
94	150	1
165	170	2
245	247	1
105	105	2
238	241	3
37	42	3
194	194	2
63	202	1
82	85	2
106	106	5
230	230	4
236	238	3
243	244	5
192	193	1
230	231	1
45	46	3
176	177	2
149	156	1
35	54	1
43	44	4
166	174	3
214	219	3
246	247	1
77	78	1
70	71	4
79	101	8
223	248	2
223	249	1
48	109	1
223	224	2
207	211	1
237	239	1
146	146	1
67	238	2
97	100	4
97	98	3
21	45	3
100	109	2
69	237	2
86	88	3
179	181	1
28	91	2
52	90	1
162	164	1
20	46	3
216	233	2
75	75	5
44	46	2
227	234	2
51	94	1
161	170	1
186	211	1
162	208	2
166	167	2
7	201	1
239	241	3
159	160	4
151	199	3
225	233	1
65	68	3
61	72	5
61	71	1
153	192	1
182	202	4
152	185	2
224	225	3
202	213	1
61	149	1
61	206	2
227	228	1
184	198	1
235	243	1
98	101	3
28	44	2
6	145	1
200	204	1
210	214	2
158	169	1
222	237	1
207	242	1
5	6	1
186	190	2
169	173	1
147	178	1
1	44	1
189	191	4
82	199	1
113	114	3
198	248	1
164	173	1
185	213	4
169	182	1
61	218	1
62	68	1
11	204	2
81	83	1
12	14	1
161	162	2
6	20	1
51	56	1
118	120	1
19	54	2
18	19	1
218	219	1
48	87	1
232	233	2
173	207	1
10	161	2
213	243	1
33	57	3
9	10	2
73	75	3
70	243	3
170	171	1
71	75	1
11	151	1
0	226	2
43	46	1
12	15	2
195	209	1
78	78	3
66	181	1
67	178	2
62	85	1
163	195	3
14	172	2
1	21	2
159	166	2
168	175	3
187	192	1
218	245	1
186	212	3
51	90	2
59	65	2
54	214	1
203	224	1
208	209	2
203	213	1
19	32	1
193	208	2
24	40	1
66	68	3
4	91	1
56	77	1
100	104	1
50	77	1
171	172	1
79	88	1
62	203	2
146	147	2
110	207	2
8	20	1
15	105	1
246	246	1
14	169	1
64	184	1
8	22	3
243	246	1
35	47	2
208	210	1
212	213	1
112	120	2
184	186	2
193	247	2
184	185	2
196	198	1
223	237	2
70	237	2
39	229	1
240	242	1
201	204	1
200	243	1
11	16	1
29	30	3
190	194	1
161	166	1
173	249	1
202	207	1
75	76	1
99	100	1
46	47	2
206	208	2
6	214	2
46	228	1
59	63	2
152	184	1
174	195	2
63	65	2
111	119	1
78	181	1
152	180	1
59	201	1
219	246	2
167	174	2
197	198	2
21	35	1
56	90	1
83	198	1
180	202	1
57	61	1
60	215	3
63	203	1
218	242	1
4	58	1
54	63	2
103	180	2
31	212	1
59	64	2
107	148	1
169	176	1
37	233	1
159	161	1
153	229	1
240	245	1
152	228	1
164	166	1
186	193	1
9	155	1
151	229	2
220	231	1
152	243	2
241	242	1
99	104	2
221	236	1
22	228	1
37	40	1
177	195	2
11	59	1
233	235	1
114	117	1
35	57	1
78	80	1
27	54	1
152	188	1
163	164	2
5	38	1
222	238	1
46	113	1
74	76	1
8	11	1
152	230	1
68	71	1
102	180	1
209	221	1
91	99	1
105	177	1
177	243	1
157	208	1
47	109	1
22	39	1
91	93	1
58	62	1
235	244	1
170	182	1
196	209	1
