103	103	7
92	92	9
68	68	10
55	55	5
65	66	2
42	42	7
101	101	11
20	20	5
67	67	4
82	82	6
79	79	1
62	62	5
35	35	5
84	84	7
43	43	8
100	100	5
95	95	9
37	37	4
49	49	9
64	64	7
77	101	1
91	91	6
87	87	2
24	66	2
66	66	10
33	33	5
30	30	7
58	58	7
98	98	10
61	61	2
89	100	3
74	74	10
94	104	1
42	43	2
88	89	2
59	88	1
89	89	3
71	71	4
80	81	4
93	94	5
61	93	3
59	93	2
102	104	1
48	51	2
79	82	2
50	50	4
91	92	3
81	81	6
86	86	7
94	95	5
85	85	9
77	90	1
76	100	2
75	75	5
58	84	1
90	100	2
43	44	2
60	60	7
73	82	2
35	36	2
63	63	4
62	63	3
55	56	5
69	74	2
63	64	5
95	96	6
94	94	6
25	47	3
99	106	1
21	22	2
40	40	1
33	35	2
74	99	3
20	22	1
74	80	2
60	61	1
26	26	2
34	34	6
57	57	8
52	53	2
32	32	8
36	36	7
31	32	1
70	70	7
56	56	5
51	51	5
38	39	4
74	105	5
65	68	1
86	87	1
69	105	2
23	23	5
93	93	7
38	38	4
46	46	1
74	81	3
82	83	5
99	102	1
56	57	1
77	78	4
59	78	2
80	80	4
22	22	5
51	52	5
65	65	5
59	76	3
100	105	2
48	49	3
78	89	2
38	40	4
83	83	6
96	96	9
31	34	1
104	104	6
47	47	2
72	73	1
35	42	1
35	39	1
100	101	1
99	100	1
73	73	6
35	49	3
25	25	2
76	76	2
59	94	4
83	84	2
25	26	2
84	85	4
72	72	3
54	55	1
64	82	2
76	77	2
32	33	3
69	69	4
89	90	2
45	45	1
31	31	3
27	27	3
21	21	4
41	62	3
102	102	1
70	72	1
77	77	2
90	91	3
83	86	1
59	59	2
29	29	2
61	94	2
40	41	1
99	99	3
52	52	1
80	88	2
53	53	4
97	97	2
72	106	1
24	68	1
77	100	2
69	75	1
72	81	1
96	97	2
73	100	1
105	105	3
90	90	2
60	95	1
41	41	2
88	88	3
78	78	1
64	65	1
44	44	1
41	42	2
75	76	2
78	80	1
54	54	1
24	63	1
76	101	1
20	46	1
21	45	2
79	81	1
58	64	2
58	59	2
65	73	1
87	106	1
78	87	1
24	24	3
24	27	1
61	62	3
24	25	1
42	44	1
49	51	2
60	94	1
91	96	1
64	66	1
92	97	1
57	58	1
106	106	1
23	24	1
31	51	1
33	34	1
28	28	1
39	39	1
74	75	1
51	64	1
42	45	1
44	45	1
70	71	1
80	98	1
93	96	1
50	51	1
60	76	1
