91	91	9
22	85	1
85	85	7
20	31	3
20	137	1
112	112	2
80	143	4
53	104	3
136	137	3
93	93	2
105	105	4
19	35	1
143	143	1
9	9	3
99	110	5
106	106	2
76	103	1
61	61	2
32	32	2
121	123	1
94	94	4
76	76	4
24	24	3
103	107	4
69	69	4
52	83	3
109	109	3
6	89	6
97	97	4
136	136	2
32	88	3
34	34	7
117	120	1
58	59	3
137	138	4
48	59	5
128	128	3
114	114	4
29	80	1
89	109	4
78	79	7
81	81	7
87	88	5
124	135	1
144	144	2
22	81	4
88	88	5
123	127	9
29	29	5
132	132	7
51	107	4
74	75	4
14	14	13
80	81	2
66	67	6
38	38	9
0	0	1
20	26	5
120	130	5
28	79	1
106	131	3
142	142	4
13	20	2
88	89	2
53	53	3
17	50	3
103	104	4
50	55	1
89	89	4
1	1	4
127	127	3
75	75	1
49	134	4
59	59	1
13	14	2
110	110	2
52	52	11
20	140	2
91	113	2
39	39	7
134	138	3
10	10	3
60	60	3
131	131	3
14	39	3
107	118	3
2	19	1
138	141	4
23	72	5
27	83	1
117	117	3
104	107	2
108	109	1
113	117	1
19	19	6
34	63	2
136	138	2
51	52	3
29	49	2
97	98	1
43	96	2
12	12	1
74	74	5
5	6	2
100	100	5
110	123	3
72	72	3
98	98	3
11	87	3
111	111	1
2	2	1
111	123	3
39	41	2
41	41	9
35	35	2
49	50	2
51	51	3
17	68	2
18	18	3
85	139	3
4	31	1
73	73	2
82	91	1
82	143	3
110	119	2
110	115	2
4	4	2
22	84	1
113	113	3
122	122	2
19	67	1
65	65	5
37	38	2
22	22	1
77	78	1
27	27	5
71	72	1
104	105	2
31	142	1
42	42	1
141	141	5
119	120	1
82	82	3
92	95	2
80	80	2
55	105	2
25	32	2
49	79	1
120	120	1
68	69	1
90	91	1
6	22	1
40	40	6
28	80	3
48	103	1
40	63	1
27	28	1
28	28	1
9	75	1
71	74	4
64	64	10
84	134	1
3	145	1
39	78	1
27	50	1
72	73	1
23	49	3
30	70	1
4	5	4
114	115	2
63	63	2
8	18	2
46	97	1
5	106	2
49	49	5
34	36	3
134	135	2
13	37	3
68	68	4
31	96	4
5	139	2
58	58	3
65	66	2
5	5	2
81	92	1
56	56	1
23	23	1
25	25	2
30	78	3
54	54	3
33	33	2
78	92	2
83	84	2
13	13	1
69	139	1
100	122	1
55	55	1
32	143	2
126	126	3
139	142	4
8	69	3
43	43	3
36	36	3
50	66	1
118	119	5
26	26	2
99	99	4
2	4	1
142	144	1
66	69	4
79	80	1
25	27	1
3	27	1
77	91	1
83	83	1
124	125	1
106	119	3
128	129	1
86	86	2
1	33	1
118	118	4
13	21	1
37	138	3
24	89	1
130	130	1
20	34	1
72	89	1
55	90	1
48	108	1
124	124	1
79	79	5
62	68	2
31	94	1
129	136	1
94	95	1
135	136	4
127	131	1
133	133	3
48	107	1
85	138	1
71	71	5
134	134	5
56	62	1
10	11	2
99	141	1
2	36	2
48	48	1
43	59	1
37	37	1
107	111	1
3	35	2
67	67	1
66	68	1
25	35	1
114	116	3
23	71	1
47	47	2
26	33	2
26	61	1
82	85	1
8	9	1
131	132	2
81	82	1
101	101	2
123	126	1
40	41	1
78	116	3
94	96	2
25	96	1
83	134	2
31	31	2
140	140	4
107	107	2
78	78	1
16	16	1
103	103	1
17	18	1
52	105	1
34	35	1
126	131	1
128	132	1
83	129	2
13	69	1
102	103	1
6	6	1
90	90	2
96	96	1
116	120	2
52	53	1
42	103	2
117	118	1
75	106	1
102	102	3
17	21	2
78	95	1
30	94	1
48	100	1
55	68	1
20	21	3
82	83	1
137	137	1
36	37	1
54	108	1
92	92	1
26	94	1
133	134	1
104	104	1
116	116	1
112	117	3
30	30	1
57	57	1
78	91	1
108	108	1
99	106	1
13	18	1
13	66	1
