16	16	9
53	53	13
44	44	7
156	156	5
79	92	2
120	141	4
82	83	4
114	114	6
73	73	8
148	148	9
14	18	3
3	4	3
24	25	12
151	151	2
16	30	1
77	77	9
41	41	6
11	11	6
154	155	5
136	153	3
116	117	7
28	28	8
3	3	10
13	13	10
79	80	4
39	44	1
133	133	5
121	140	3
16	18	2
137	137	9
115	115	11
56	56	1
80	80	10
95	95	7
39	39	7
118	120	3
36	36	17
22	22	5
39	46	1
17	18	1
114	137	3
130	134	3
1	2	8
67	71	5
102	102	5
101	101	4
7	7	11
98	98	4
55	55	4
37	41	5
57	57	2
91	91	5
70	70	4
112	141	1
80	81	4
46	46	5
129	130	1
10	14	2
34	34	2
147	147	10
70	71	5
140	141	3
13	118	4
95	119	2
45	46	3
23	23	13
50	50	12
64	64	11
121	122	2
0	5	2
71	71	6
136	137	4
146	147	8
107	112	4
138	138	9
82	82	5
9	10	6
150	150	5
125	125	11
20	20	5
104	125	2
141	141	4
130	140	2
38	38	5
42	43	2
94	94	1
146	146	13
43	69	1
118	118	13
65	65	10
14	100	3
68	68	8
134	134	5
86	86	3
154	154	2
108	108	5
84	85	5
110	111	5
38	85	5
90	91	3
131	131	4
111	123	3
43	71	1
78	79	1
18	18	8
10	10	10
78	78	8
89	90	4
31	32	3
32	48	3
27	27	5
21	21	14
142	142	5
45	45	2
42	42	5
155	156	4
31	31	3
116	116	5
84	84	7
106	106	4
12	13	3
41	77	1
117	118	2
126	144	1
128	128	5
43	43	3
136	136	7
126	126	4
107	109	3
0	0	2
144	145	9
110	110	5
68	69	3
15	18	5
123	123	5
76	76	2
96	97	1
2	2	2
122	140	2
88	88	5
19	19	6
117	117	6
145	145	3
87	87	7
104	104	5
132	139	11
109	123	5
19	82	2
7	8	4
49	56	1
44	47	1
77	79	2
23	39	2
34	45	2
139	139	4
51	52	4
130	130	6
119	120	2
145	146	1
100	100	10
37	40	2
109	112	1
23	82	1
105	105	6
10	12	1
126	127	2
124	127	4
33	33	3
63	63	5
66	66	6
39	85	1
14	14	11
25	25	4
43	45	2
27	28	1
83	83	3
113	113	4
12	12	4
72	72	1
62	62	4
120	120	4
143	143	6
30	30	5
97	97	4
18	28	3
18	19	4
89	89	1
103	103	4
95	96	4
38	84	3
111	122	2
158	158	4
8	115	2
15	15	3
138	139	3
124	125	2
9	9	7
92	92	10
6	27	1
15	16	1
6	6	4
132	132	2
88	89	2
107	107	3
92	93	4
124	124	2
138	156	1
39	40	2
35	70	4
43	44	2
87	90	3
135	135	5
0	128	2
24	24	4
23	24	2
79	79	7
13	119	1
37	37	5
25	26	7
54	54	3
111	112	5
40	40	5
5	5	2
93	94	4
121	121	6
47	48	3
108	109	2
85	86	2
151	156	4
0	4	1
112	112	3
40	41	2
29	30	2
52	52	3
1	1	5
121	143	2
133	137	2
4	4	5
21	22	1
129	129	2
96	96	2
43	72	4
79	87	1
122	122	2
90	92	2
26	26	4
149	150	1
86	87	2
50	51	2
16	19	4
14	27	5
122	123	4
29	29	3
81	81	2
137	143	1
116	138	1
149	149	2
153	153	2
38	39	1
93	95	1
69	69	5
127	127	3
142	143	2
150	156	1
43	73	1
122	141	1
62	67	2
118	119	1
152	152	2
97	112	1
125	147	1
79	82	1
159	159	3
0	3	1
73	77	1
81	82	1
20	83	3
48	48	4
134	138	4
114	138	1
65	66	4
113	121	2
77	86	1
99	99	3
33	47	1
18	30	2
127	148	1
108	123	2
108	124	1
39	83	1
47	47	5
56	57	1
34	46	2
143	144	1
111	111	2
107	108	1
133	134	2
130	132	1
9	11	1
130	131	1
124	126	1
144	144	2
77	78	2
125	126	1
131	132	1
132	155	2
90	90	2
109	109	2
10	27	1
155	155	3
93	93	1
67	68	2
113	114	2
123	144	1
77	83	2
78	83	2
140	140	1
35	36	3
117	133	1
18	82	1
20	119	1
68	71	3
67	67	1
20	22	1
123	124	1
57	62	1
135	154	1
105	106	1
132	156	2
26	27	1
24	98	1
49	49	1
39	47	1
32	49	1
157	158	1
69	70	1
32	32	2
154	157	1
131	156	2
23	98	1
81	83	1
17	17	1
142	144	1
2	4	1
35	35	1
74	74	1
41	42	2
64	66	1
30	31	1
51	51	1
136	142	1
103	105	1
20	84	1
75	77	1
39	41	1
34	47	1
