54	54	3
90	90	10
91	91	6
79	80	5
22	23	3
36	36	15
40	63	2
70	71	4
52	52	9
99	99	7
89	90	2
81	84	5
82	82	13
76	76	6
67	67	5
53	54	5
55	55	19
89	89	9
52	54	7
93	94	1
105	105	6
58	58	10
46	62	2
104	104	3
65	65	4
23	24	2
19	47	1
50	50	6
60	60	7
21	27	1
74	100	3
81	81	5
96	99	3
66	66	9
88	88	6
21	21	7
39	40	1
103	103	10
29	34	3
28	28	10
62	78	1
101	101	15
33	106	6
96	100	2
45	45	10
101	102	2
38	38	3
95	95	11
49	49	4
46	46	6
49	51	5
100	106	1
78	78	3
64	64	19
41	44	6
21	51	3
56	56	12
39	39	4
68	68	3
63	64	2
61	78	4
51	84	2
30	32	4
59	60	6
85	85	4
92	92	6
57	57	5
29	29	6
61	61	2
88	89	4
44	44	10
25	25	5
20	20	4
102	103	2
24	24	6
41	41	4
24	25	1
40	40	5
94	94	10
49	50	2
80	83	3
43	45	2
50	51	5
76	77	2
41	42	3
62	62	2
84	84	8
58	59	1
33	33	4
78	91	5
46	47	3
102	102	13
93	93	7
26	27	1
75	75	3
66	68	2
20	37	1
97	98	2
63	78	1
61	79	2
57	70	2
91	92	4
97	107	1
85	87	3
31	34	1
51	54	1
31	33	4
86	86	2
42	63	6
42	42	5
51	52	2
31	31	6
26	50	1
50	59	3
98	98	5
87	87	4
56	57	3
59	59	5
77	77	5
74	74	8
20	21	2
50	55	1
27	27	1
96	96	2
22	22	3
69	69	4
32	32	5
38	44	2
83	83	8
59	61	1
82	83	7
57	72	1
48	48	1
71	71	1
77	80	2
96	98	3
30	30	9
86	95	1
22	30	2
86	87	2
97	100	2
49	75	2
98	99	4
97	106	1
70	70	4
81	83	3
21	25	2
72	73	3
100	100	2
51	51	3
26	26	5
35	36	4
36	38	2
45	51	1
89	91	1
66	67	2
102	105	1
35	35	1
57	60	1
75	94	2
45	64	1
58	79	1
82	87	1
96	104	2
20	38	1
25	28	1
90	92	2
28	29	6
72	78	2
64	65	1
80	81	1
75	95	1
63	63	1
26	34	1
65	68	1
40	52	1
24	28	1
62	63	1
79	81	2
38	62	1
45	46	1
86	92	1
73	75	1
97	99	1
31	32	2
23	23	2
60	89	1
84	93	2
34	34	1
92	103	2
84	95	1
71	72	1
58	78	1
60	88	1
82	84	1
49	53	2
82	85	1
95	97	1
43	44	1
68	69	1
40	41	1
106	107	1
56	58	1
