110	111	1
44	45	5
79	79	9
88	88	8
105	105	9
110	110	6
75	77	2
57	58	2
107	113	1
25	25	8
57	57	5
31	31	1
111	111	2
32	32	6
29	29	5
85	85	7
23	23	5
107	107	7
69	69	6
83	83	3
27	27	5
102	102	9
28	28	2
82	82	8
96	97	8
52	52	7
24	24	9
74	90	4
73	73	18
55	55	4
75	75	5
98	99	1
43	43	6
90	90	7
47	48	3
96	104	4
82	97	3
86	87	1
102	106	3
109	109	6
34	72	4
87	88	1
72	73	2
65	66	1
95	95	14
33	34	5
21	23	2
53	53	3
92	92	4
22	24	1
63	63	6
35	90	4
100	100	7
45	45	10
30	31	6
54	55	12
38	73	2
67	111	1
27	30	2
113	114	1
45	46	3
112	113	3
40	40	2
50	50	4
24	46	6
72	72	7
105	106	4
114	115	2
27	28	3
98	98	7
20	20	3
41	41	5
35	85	4
74	74	5
71	71	5
83	84	3
37	37	8
88	89	4
78	78	6
96	96	5
77	78	5
32	33	3
59	59	9
33	33	12
93	93	5
76	76	4
39	39	3
54	54	8
67	67	9
71	72	2
26	26	9
91	92	4
37	76	3
46	46	6
55	71	1
114	114	3
44	44	6
47	47	8
60	60	9
48	58	1
78	79	1
70	70	3
21	21	6
113	113	9
62	63	3
104	107	3
42	42	3
85	87	1
34	35	3
84	84	5
66	66	2
87	87	4
85	86	1
101	108	3
32	37	1
61	61	6
74	75	2
73	77	2
22	22	3
21	22	1
39	40	3
89	109	1
44	114	3
34	37	2
35	35	4
36	36	5
26	29	2
33	36	3
46	62	2
76	87	1
64	66	4
77	77	2
42	45	3
47	56	2
49	49	4
38	40	2
25	26	1
68	68	4
64	64	2
37	39	2
66	100	3
30	30	7
36	77	4
33	89	6
58	59	4
33	78	1
38	38	1
109	110	4
101	103	2
68	91	2
68	90	3
34	34	1
108	110	2
58	58	3
67	69	1
104	104	3
65	65	1
100	101	4
41	44	1
22	32	1
26	27	2
29	31	1
36	71	1
59	61	2
40	61	2
47	58	1
99	99	2
110	113	1
41	65	1
48	48	2
46	48	1
65	67	3
107	109	1
102	103	5
51	51	3
53	54	2
78	83	1
91	91	2
76	77	1
77	79	1
101	101	1
97	97	2
81	81	1
80	98	1
35	63	2
68	69	3
108	108	2
32	44	1
48	49	1
71	73	1
26	31	1
61	62	1
95	96	1
33	72	1
49	51	1
24	73	1
60	61	1
22	23	1
23	31	1
36	78	1
37	38	1
