38	38	10
136	136	10
47	47	6
74	90	2
99	99	10
161	165	2
165	165	10
79	80	2
79	81	3
163	163	6
161	167	3
84	84	6
8	8	8
94	94	8
93	118	4
93	102	7
151	151	13
136	155	7
72	72	14
90	99	1
125	125	13
40	40	6
119	119	8
114	114	6
156	157	6
123	123	6
108	108	9
132	132	5
156	156	8
107	107	4
76	78	2
88	89	10
157	157	4
90	91	2
68	68	3
90	90	4
141	141	5
133	133	13
158	158	4
13	13	8
2	2	7
39	40	3
102	102	3
164	164	3
102	105	3
73	73	10
75	75	4
144	144	1
43	150	5
43	43	13
125	126	6
160	160	15
142	143	6
162	162	6
155	155	3
46	46	6
76	113	8
103	104	2
85	86	5
9	9	4
86	87	2
16	16	5
3	3	7
19	19	2
120	120	8
65	67	3
15	15	7
17	17	12
136	138	5
70	70	12
14	14	11
140	140	16
128	128	15
131	131	15
126	126	8
137	137	5
78	78	5
1	2	5
140	141	2
48	48	2
7	7	6
18	18	9
101	102	2
51	52	4
0	0	3
88	88	4
41	41	14
87	113	1
139	139	6
26	27	7
129	129	10
71	84	1
166	167	2
100	105	1
112	112	12
143	143	10
118	118	10
74	75	4
8	9	3
52	52	7
35	35	8
67	67	7
12	13	2
129	136	3
41	151	5
130	130	19
81	81	6
1	1	2
121	121	4
68	69	5
71	71	10
42	42	7
10	16	2
95	95	7
139	165	1
147	148	2
96	98	1
138	138	12
76	77	1
96	97	8
74	74	11
36	36	8
24	25	2
66	70	1
134	134	6
3	33	1
115	115	2
75	98	2
4	4	6
69	69	3
100	100	6
106	106	9
137	151	5
20	23	3
136	137	6
65	65	7
112	114	2
137	138	2
24	24	10
83	83	6
123	124	6
41	42	1
34	35	3
93	117	4
22	22	4
127	166	2
148	148	7
16	107	1
66	66	2
21	21	5
7	11	3
54	55	4
165	166	2
146	146	5
91	99	2
44	45	3
11	11	5
167	167	4
45	135	2
56	56	7
144	145	8
12	12	3
144	150	2
76	114	2
13	107	8
86	86	12
157	158	2
102	114	1
27	27	10
107	108	6
76	112	3
102	103	2
129	164	1
1	34	1
79	79	5
78	89	2
14	15	12
158	168	1
130	131	10
51	55	3
67	68	9
145	145	9
120	122	6
159	159	2
14	16	2
75	77	1
129	155	4
122	122	7
2	33	1
101	106	1
92	105	2
10	10	12
53	56	1
150	150	8
43	151	2
126	159	4
20	20	3
124	124	5
162	163	6
101	101	1
26	41	3
63	63	1
43	47	4
23	23	9
96	96	1
62	63	5
39	39	11
115	116	1
108	109	5
37	37	5
129	138	1
103	103	3
55	56	8
52	56	2
148	149	3
155	156	2
113	114	4
54	54	7
6	7	2
142	142	10
15	16	5
133	134	4
95	97	1
89	89	3
85	85	3
18	19	1
83	85	5
117	117	6
127	129	3
152	152	5
150	151	2
25	152	3
110	110	2
11	13	3
158	162	1
134	135	1
119	135	4
121	122	1
162	165	1
109	110	1
76	87	1
116	117	3
95	96	3
91	105	3
44	44	6
114	115	1
93	93	6
102	104	1
33	33	6
57	57	3
161	162	2
139	148	2
150	155	2
55	55	2
139	149	1
149	149	3
124	125	1
4	5	2
101	105	1
13	15	1
70	71	3
56	80	1
161	161	3
80	80	3
163	164	2
106	111	1
26	26	4
144	164	1
78	80	1
93	100	3
110	111	4
91	91	2
106	112	1
11	12	1
64	65	1
145	146	1
104	105	1
97	97	3
168	168	6
25	25	4
170	170	3
99	102	5
128	129	3
153	154	2
0	34	2
116	116	5
45	45	3
38	39	7
98	98	5
129	130	1
113	115	2
3	4	2
105	105	3
94	95	4
109	109	4
169	169	1
111	112	4
145	149	1
11	109	1
126	127	5
87	87	1
111	111	6
5	5	5
21	23	1
48	49	6
167	168	4
76	76	1
112	113	1
128	139	1
6	6	1
3	5	1
129	149	2
55	78	1
156	159	4
41	136	1
64	64	3
166	166	3
154	154	2
50	50	4
139	154	3
34	34	2
23	151	1
100	106	2
143	144	1
10	13	1
50	52	2
12	15	1
89	90	2
72	84	1
70	84	1
82	82	2
7	35	1
103	113	1
152	153	1
51	115	1
54	56	1
153	153	1
52	109	1
119	134	1
91	98	1
103	114	2
12	36	1
82	84	1
10	52	1
131	136	1
92	93	1
95	98	2
7	8	1
51	51	1
5	12	1
24	152	1
150	153	1
84	85	1
94	96	1
58	58	1
17	18	1
81	86	1
128	148	1
49	49	1
149	153	1
53	110	1
135	135	1
