46	47	4
113	113	8
3	3	6
39	39	3
16	16	8
98	99	1
135	135	5
94	94	3
19	19	9
115	115	1
75	75	1
92	100	3
15	25	2
132	132	12
45	107	5
19	20	2
15	16	2
27	27	2
13	13	4
38	39	3
64	64	4
66	67	5
111	111	2
12	12	2
106	107	3
51	53	1
128	129	1
144	144	2
16	17	5
123	123	5
149	149	4
11	11	4
31	31	1
134	147	3
30	30	1
128	132	3
146	146	2
119	119	9
13	14	2
63	75	5
68	69	2
142	142	6
129	130	2
37	37	2
94	100	2
25	25	7
143	143	2
36	48	3
114	115	3
96	96	10
21	21	5
64	67	4
4	4	2
118	118	6
83	135	3
93	93	2
87	87	2
67	67	4
9	9	3
34	72	1
130	131	7
45	46	3
5	6	2
3	8	1
137	137	4
126	127	1
28	28	6
50	52	5
53	53	6
121	121	3
23	23	7
24	24	4
26	26	2
47	47	4
26	30	1
108	123	2
92	93	2
14	14	7
15	15	1
149	150	2
44	46	4
116	117	4
107	107	3
54	55	2
71	71	1
18	19	1
42	42	4
32	32	5
48	48	3
10	10	3
38	40	2
6	14	1
128	130	1
72	72	1
57	102	2
138	139	1
153	153	1
66	66	4
52	52	2
50	50	2
76	76	1
128	131	2
65	65	2
51	51	5
95	95	5
18	18	3
110	110	4
71	109	2
67	102	1
135	136	1
19	25	3
36	80	2
44	104	1
41	41	3
132	133	1
134	134	1
133	133	5
117	117	1
104	107	1
109	129	2
132	135	3
148	149	1
145	146	1
62	62	1
84	85	1
3	9	6
131	135	2
133	134	2
23	25	1
28	50	1
49	50	1
29	29	2
81	142	2
20	25	1
99	99	1
152	152	1
27	31	1
22	22	1
101	102	4
69	69	1
126	126	1
57	57	1
13	16	1
3	5	1
107	108	3
151	151	2
46	73	1
100	101	2
116	116	2
122	122	2
77	78	1
5	12	1
8	8	1
109	109	2
46	46	2
114	114	1
78	145	1
53	54	2
69	70	1
97	98	1
91	92	2
55	56	1
112	112	3
70	70	2
34	35	2
65	75	1
44	44	1
97	97	1
54	54	1
27	32	1
100	100	1
68	68	1
40	41	1
14	15	1
140	147	1
49	52	1
91	99	1
84	130	1
48	52	1
104	104	1
28	29	3
41	51	1
12	13	1
108	108	1
140	140	1
79	79	1
