130	130	9
102	103	8
111	125	3
127	129	6
1	17	2
82	82	6
31	31	2
88	97	7
103	103	2
70	70	6
7	7	4
5	15	3
112	112	6
27	27	5
108	109	6
133	133	2
29	29	7
93	94	3
78	79	2
22	25	1
53	53	5
109	118	2
62	94	6
88	98	2
68	68	5
117	117	7
114	114	13
9	82	1
110	110	6
100	123	2
13	13	5
75	75	10
122	122	8
74	88	4
19	21	4
53	81	1
91	91	3
15	16	5
96	97	2
75	76	6
16	17	5
8	8	3
105	107	1
8	10	1
101	115	2
54	55	2
16	18	1
44	44	12
57	58	3
77	94	2
97	98	3
1	4	4
46	46	1
108	111	2
59	59	3
111	112	7
62	74	3
23	24	9
77	78	3
58	67	1
127	127	4
62	64	4
50	64	2
61	67	3
55	71	2
113	131	2
88	91	3
27	55	3
87	87	8
96	96	3
11	12	2
120	120	2
63	68	1
123	125	1
69	69	5
1	13	5
100	103	3
11	11	10
125	125	11
75	80	1
97	102	1
116	116	4
111	111	6
126	127	4
70	89	1
130	131	4
28	28	8
96	120	2
77	77	7
10	10	6
52	52	3
117	129	2
0	0	10
4	4	1
19	19	3
55	55	9
101	103	2
53	64	1
68	73	4
111	113	3
47	59	2
12	16	2
92	93	8
87	94	1
128	128	5
95	95	5
115	115	8
87	88	1
63	63	2
6	6	5
64	81	4
115	127	1
38	38	3
72	72	17
14	17	1
63	64	4
88	88	1
110	111	3
81	92	3
23	30	6
27	29	2
44	45	4
89	98	2
42	42	5
118	120	1
22	22	1
107	116	8
75	88	3
99	103	2
13	16	1
89	90	6
100	100	3
94	109	1
90	90	3
79	80	1
104	104	2
120	129	5
8	11	2
2	2	1
24	24	3
100	101	2
79	89	2
50	50	14
113	130	1
29	30	1
123	123	3
80	80	4
42	43	1
30	33	8
114	116	5
3	5	6
77	80	5
96	113	2
46	49	1
21	22	3
70	82	3
18	18	3
88	111	3
71	72	2
5	14	3
4	33	3
43	43	7
54	69	2
98	98	4
132	132	3
50	52	2
105	105	2
85	85	1
115	117	4
66	69	6
75	81	2
12	12	2
82	83	3
39	39	10
34	34	3
49	49	8
20	29	4
53	65	2
116	130	3
45	60	3
17	17	4
119	119	2
118	121	1
3	6	3
89	89	6
84	98	3
96	110	2
123	124	2
92	92	1
48	49	5
1	1	4
121	121	4
101	113	2
60	60	2
95	110	3
49	57	3
41	52	1
66	70	1
113	117	2
89	92	3
6	7	1
94	96	1
3	15	1
41	49	2
9	95	1
132	133	1
26	26	2
5	5	1
25	40	3
81	88	3
70	72	2
91	104	2
126	126	7
15	15	2
85	86	1
111	131	2
108	108	4
1	15	1
62	71	2
117	128	4
102	102	2
97	100	3
13	15	2
76	86	5
78	80	3
101	101	6
21	23	2
6	14	3
107	107	2
74	74	2
75	86	3
15	17	2
87	97	3
14	14	1
127	130	1
109	109	5
101	120	2
12	62	1
90	93	1
9	9	1
119	128	2
42	59	1
119	120	2
23	23	3
67	78	1
21	21	1
105	108	2
54	54	6
84	84	4
89	91	4
47	67	3
131	131	4
41	41	4
119	125	4
43	44	3
76	76	2
27	34	1
59	61	1
104	127	3
42	58	1
63	66	1
22	30	1
70	76	2
10	12	1
44	46	1
47	71	2
58	94	3
30	30	2
47	47	5
129	129	2
81	82	3
98	112	2
12	13	1
17	20	2
56	72	1
67	67	2
102	117	2
12	61	1
86	98	1
100	118	3
14	19	2
46	54	2
50	54	2
6	19	2
46	51	1
20	21	1
121	122	1
88	89	2
10	49	1
14	24	1
99	116	3
103	107	1
108	121	3
4	34	1
64	66	5
2	16	5
54	57	3
51	56	1
106	109	3
127	128	1
62	65	1
107	118	3
122	123	1
5	12	2
72	73	1
90	92	1
98	110	2
86	86	3
58	82	2
99	101	1
23	39	1
46	47	2
30	34	1
34	39	3
97	97	2
39	40	1
124	124	2
50	55	1
65	92	1
68	69	3
20	25	2
119	130	2
65	65	2
59	60	1
42	51	4
75	78	1
39	42	2
69	79	2
109	110	1
94	95	1
6	10	1
2	3	1
8	17	3
89	105	1
83	88	2
103	121	1
67	77	2
6	15	1
59	72	2
97	114	1
48	51	1
103	104	1
101	102	2
17	25	1
44	49	3
25	25	2
48	52	1
99	112	3
96	105	2
116	123	1
18	30	1
98	99	1
64	65	2
48	57	1
37	38	2
71	71	3
108	110	2
49	50	3
91	95	1
19	20	1
64	80	1
98	113	1
103	126	1
104	106	1
57	57	1
27	28	1
52	54	1
115	126	1
50	51	2
65	74	2
116	118	3
90	100	1
66	75	1
102	108	2
82	84	1
111	132	2
106	110	1
48	48	2
56	56	2
0	7	1
116	117	1
61	68	2
2	9	2
52	60	1
6	11	1
47	48	1
32	34	2
113	113	3
78	78	2
28	29	1
91	92	1
67	73	1
32	32	1
29	33	1
76	80	1
107	112	1
21	30	1
113	118	1
93	96	1
48	60	2
78	87	2
13	40	1
80	93	1
38	55	1
69	71	2
16	21	1
15	28	2
114	131	1
122	133	2
91	96	1
13	14	1
75	85	1
113	129	1
59	66	1
10	23	1
103	122	1
116	133	1
107	108	1
50	56	1
6	25	1
