168	168	5
99	99	5
63	72	1
61	72	2
43	43	17
73	73	6
106	106	6
237	237	6
231	231	5
218	218	4
216	216	13
46	153	2
84	84	5
53	53	7
185	185	5
107	109	3
154	154	7
220	220	6
93	97	3
193	193	8
64	64	9
18	19	2
15	16	3
28	28	13
24	24	1
29	30	8
173	174	3
112	113	4
30	31	2
21	21	5
110	110	9
213	213	3
145	235	1
236	236	7
171	171	11
36	37	1
39	39	4
70	70	2
85	85	4
167	184	5
218	220	3
220	224	3
196	196	2
94	94	4
215	215	6
197	221	2
36	36	10
90	98	5
15	15	5
227	244	4
47	48	7
84	85	2
229	229	11
85	87	1
186	186	8
58	60	1
92	97	1
211	218	2
192	192	16
159	160	3
112	112	7
57	58	1
241	241	8
221	221	8
158	158	4
234	234	2
201	201	4
67	67	5
8	8	10
56	56	10
29	29	14
181	181	11
226	244	6
83	83	8
152	178	2
163	164	4
187	187	3
77	81	3
65	65	4
75	75	2
230	231	5
113	113	4
191	191	5
92	92	2
33	33	8
5	5	8
40	40	5
107	107	8
88	96	2
114	114	3
109	109	4
150	150	4
212	212	11
161	161	7
244	244	2
55	73	2
233	234	2
17	17	8
89	98	5
227	228	2
241	242	5
179	179	4
12	12	5
189	190	5
79	80	5
212	218	3
7	41	3
165	165	12
119	119	12
183	183	10
2	3	3
207	225	2
222	223	5
226	245	2
58	59	2
163	212	1
120	120	6
19	21	2
8	9	1
32	45	3
53	82	1
52	52	4
181	186	4
101	115	4
234	235	5
42	44	3
108	109	3
154	175	2
170	224	4
28	33	1
194	194	7
69	69	7
53	54	2
160	160	3
225	225	7
159	159	10
2	14	4
35	44	5
81	82	2
22	22	6
61	61	2
154	155	3
177	177	5
87	87	5
202	202	8
118	118	4
62	62	3
60	60	4
98	98	5
34	35	1
182	182	7
68	71	5
245	245	4
75	82	3
184	191	4
232	232	1
57	57	4
181	182	3
20	20	10
95	97	4
175	176	7
209	247	2
214	214	3
35	35	3
170	170	6
153	153	3
42	42	6
235	235	10
91	92	2
71	71	4
204	204	5
162	162	1
73	74	4
247	247	4
16	17	3
184	184	4
208	208	8
78	79	2
227	240	1
147	147	3
208	209	2
239	240	5
229	246	1
1	1	3
17	38	2
76	77	4
11	11	2
199	200	1
56	77	2
13	13	3
225	230	1
101	102	4
203	235	3
195	198	2
198	221	4
195	195	1
230	230	5
242	244	1
226	226	2
44	44	9
205	206	2
81	81	2
10	32	4
234	247	2
54	55	3
213	217	6
146	146	1
197	197	2
20	21	4
19	19	3
54	54	10
115	115	4
240	245	2
202	219	10
34	39	4
190	196	3
219	219	3
10	10	5
9	13	2
73	75	7
235	246	6
48	60	3
217	217	9
159	206	3
51	51	4
93	93	11
37	37	7
152	152	9
16	16	6
238	239	6
1	2	1
106	118	1
31	31	12
155	155	7
169	170	4
201	247	12
150	244	2
38	38	6
27	28	4
61	62	7
92	99	2
96	98	2
18	18	4
168	221	3
234	248	3
211	211	5
104	105	1
236	246	1
167	167	4
229	230	2
41	41	4
186	191	1
242	242	9
78	78	5
32	32	5
207	207	5
88	88	3
25	25	4
160	208	7
209	209	6
190	190	2
59	60	2
173	173	1
118	119	4
200	200	11
207	208	1
39	40	4
48	48	2
206	206	3
60	62	3
110	111	1
151	151	6
208	211	4
42	43	5
83	85	3
69	71	1
241	245	2
22	44	1
203	203	10
32	34	2
175	175	6
202	205	2
6	7	1
14	14	10
197	224	1
46	55	5
162	163	1
181	187	6
30	30	3
238	238	5
46	46	9
117	117	2
24	26	1
151	171	1
82	84	5
204	210	1
104	104	7
195	215	1
82	82	1
63	73	3
86	86	2
58	65	2
109	110	2
3	100	1
7	64	2
228	238	3
91	91	3
172	172	5
66	66	6
224	224	2
48	56	5
9	10	2
107	108	1
196	197	2
221	222	3
144	168	3
169	169	1
47	47	1
23	23	3
153	175	2
150	173	1
80	81	1
48	55	2
45	46	2
102	102	1
50	81	1
60	61	2
63	63	4
198	198	2
110	112	1
26	26	1
229	238	5
116	116	1
182	190	1
47	59	1
92	98	5
24	27	2
93	94	5
48	77	2
37	38	1
105	105	8
195	214	3
86	87	2
101	101	6
9	9	4
171	240	1
76	76	4
74	75	2
191	192	4
163	215	1
115	117	2
55	55	1
9	95	1
187	189	4
74	74	1
174	174	2
206	207	1
145	145	3
5	101	1
216	217	7
158	159	2
50	50	3
66	67	3
77	80	1
45	62	1
163	163	2
166	184	1
49	50	2
225	226	1
55	78	2
61	64	2
223	223	3
152	188	1
25	26	3
92	94	1
188	188	1
55	79	1
62	63	1
47	89	1
100	100	3
100	101	1
76	81	1
56	78	2
6	6	2
104	106	2
97	97	1
7	7	6
64	65	1
45	68	1
4	4	2
13	14	1
68	68	2
178	178	1
243	243	3
91	97	1
51	82	2
156	156	3
120	144	1
180	188	1
111	112	1
203	204	1
177	178	1
228	228	2
164	164	1
243	244	1
176	176	1
235	236	1
225	247	2
110	113	2
198	199	1
80	80	1
5	14	1
96	96	3
20	24	2
151	178	1
47	90	1
172	241	1
49	49	2
248	249	1
22	23	1
163	165	1
85	86	1
178	179	1
116	117	1
152	181	1
76	78	1
188	190	1
21	44	1
32	35	1
204	205	1
103	117	1
189	189	1
92	95	1
