151	151	13
84	85	4
64	74	2
156	156	18
11	12	6
27	27	5
44	44	19
2	2	12
149	149	14
14	15	7
1	1	6
5	5	9
113	114	2
125	154	4
71	71	7
91	93	6
165	165	4
43	43	13
101	101	11
150	151	5
146	146	4
143	143	7
7	11	1
125	129	1
47	53	4
19	19	3
121	121	5
41	41	11
12	13	2
56	56	15
153	153	7
137	137	7
36	36	7
34	34	6
74	75	4
111	111	15
105	105	15
25	26	2
86	88	1
132	133	2
129	129	5
24	24	16
64	67	3
6	6	4
73	73	2
99	100	1
109	112	6
0	0	7
168	168	11
88	88	10
159	159	4
62	62	2
37	37	12
82	82	1
82	99	1
48	48	22
45	45	9
35	36	5
63	63	9
89	89	8
110	110	8
71	76	1
72	72	9
54	54	9
35	35	10
66	66	11
164	165	4
154	154	2
126	126	10
136	137	3
145	145	9
105	115	3
22	22	10
134	134	13
135	135	5
157	158	1
14	14	9
106	106	8
55	56	6
69	69	10
161	161	9
39	45	4
141	143	2
98	99	6
102	102	10
114	115	10
133	133	9
25	25	5
26	26	13
78	78	8
64	64	7
145	148	2
92	92	7
86	87	4
80	80	13
24	25	3
160	160	14
41	147	2
126	127	5
116	116	10
42	42	4
51	51	3
163	163	11
140	140	11
139	165	3
4	4	6
131	142	2
73	76	1
118	119	9
87	87	14
144	144	5
28	28	4
123	123	11
103	104	2
103	103	4
97	97	4
20	20	7
9	9	10
130	130	14
100	100	7
43	130	1
2	17	1
86	131	3
57	64	2
33	34	3
46	47	3
5	64	6
109	109	7
91	91	7
84	86	2
137	138	6
122	153	1
149	166	5
38	38	9
20	22	2
108	109	3
17	17	9
93	93	8
79	79	7
132	132	4
36	37	2
80	81	5
164	164	7
75	75	4
49	49	5
158	159	3
144	151	1
141	141	9
147	168	5
37	39	1
4	124	4
93	123	3
87	95	1
118	118	7
101	132	3
146	153	2
8	8	7
0	1	2
88	106	1
112	112	7
10	10	12
108	108	9
90	90	10
86	86	12
141	144	1
37	38	8
42	43	3
165	169	3
85	85	10
167	167	7
139	141	6
81	86	4
21	22	4
155	155	10
127	127	3
125	125	7
48	49	1
88	102	1
143	163	1
145	167	2
24	26	1
74	74	6
162	162	10
2	3	1
139	140	6
65	67	1
73	136	6
52	55	5
40	170	2
2	16	5
38	42	1
149	151	2
92	98	4
18	18	1
119	119	7
23	34	3
167	168	6
66	67	2
117	117	5
42	52	1
115	115	12
44	45	2
70	70	8
142	142	2
95	95	3
99	118	2
70	111	2
136	136	7
166	166	4
165	166	4
56	58	1
50	50	8
156	159	2
124	154	5
152	152	7
88	89	3
144	150	1
7	7	9
7	15	2
45	47	1
57	58	1
96	96	3
108	112	1
158	158	7
121	128	1
21	24	2
103	127	1
112	114	4
93	96	6
114	120	3
55	55	12
133	143	1
48	56	3
99	111	1
138	139	2
75	82	3
124	125	2
46	55	1
139	139	7
3	3	6
138	138	6
52	52	10
16	16	4
46	46	7
128	129	1
51	52	4
34	36	4
5	164	3
8	157	2
53	53	3
144	157	3
13	13	7
99	99	5
129	130	2
114	132	1
92	96	2
146	169	1
67	69	3
68	68	1
21	21	3
144	160	3
39	146	2
8	9	2
147	169	2
22	23	2
134	135	3
170	170	1
76	76	3
57	161	2
159	160	1
98	98	4
40	45	2
43	44	3
3	163	4
39	39	3
106	132	1
122	122	9
17	18	2
64	65	1
112	113	1
113	113	1
78	79	4
50	51	4
164	167	3
75	87	2
23	23	3
34	35	1
159	162	2
150	150	2
117	148	5
96	97	2
90	91	3
125	159	1
143	144	1
20	21	2
39	40	1
1	19	1
169	169	5
107	107	2
119	135	2
68	166	1
11	11	12
119	122	2
116	117	4
51	133	2
57	57	1
93	94	2
81	82	4
120	120	4
105	106	7
130	131	2
141	153	1
67	67	3
94	94	1
104	105	1
168	169	1
90	98	4
146	157	1
40	40	2
21	76	5
52	53	1
4	67	1
47	47	1
158	160	1
85	132	2
94	105	2
83	86	2
84	94	1
73	74	3
85	93	1
15	15	5
83	92	1
115	116	4
113	115	1
1	3	1
108	151	2
131	132	3
138	140	1
104	104	1
154	161	1
157	157	3
63	72	1
148	148	1
133	134	3
8	78	1
127	132	1
2	80	3
87	112	3
112	116	3
4	13	1
21	23	1
11	80	2
128	128	2
66	68	1
8	10	4
149	153	6
146	170	1
140	165	1
155	156	3
168	170	1
124	124	1
2	14	1
140	167	1
131	131	5
3	150	1
63	64	1
94	96	2
74	76	3
133	144	3
11	24	1
163	164	1
80	105	1
123	125	2
57	170	1
101	102	4
97	99	1
79	80	3
84	140	1
105	135	1
16	17	2
137	139	1
116	142	1
3	20	3
49	51	1
117	118	1
67	106	1
149	150	2
67	68	1
18	19	2
83	83	3
9	64	1
115	150	1
106	117	3
130	143	3
104	124	1
11	78	1
83	84	1
146	147	1
119	120	1
39	104	1
89	90	2
14	83	2
47	48	2
42	44	1
120	121	1
140	141	1
5	11	1
131	141	2
9	11	1
159	168	1
99	112	1
72	73	1
144	170	1
6	166	1
5	7	1
0	4	1
10	13	1
104	115	1
65	65	1
8	12	1
46	49	1
47	49	1
1	2	1
46	72	1
4	167	1
55	137	1
67	140	1
37	42	1
