72	77	5
106	108	6
212	212	5
173	175	4
22	22	5
245	245	1
27	27	9
198	198	2
95	96	9
111	111	10
78	78	8
207	207	4
106	106	5
95	95	2
194	194	2
192	192	6
172	172	7
116	116	1
240	240	2
157	158	1
169	177	3
45	45	6
19	19	11
213	213	9
151	151	5
30	30	10
72	72	1
158	159	3
174	174	5
215	217	4
210	211	1
17	17	3
225	225	4
228	228	2
46	46	2
38	38	1
55	55	2
231	231	9
150	150	3
26	27	3
83	83	4
6	6	3
174	175	2
52	52	2
107	107	9
177	177	5
70	72	2
57	57	9
68	70	4
166	166	3
224	224	4
164	164	6
105	105	1
235	235	5
149	150	2
214	214	5
229	229	8
162	162	2
4	4	2
159	159	6
38	39	5
97	97	2
186	186	2
6	8	1
195	195	1
212	213	3
20	20	2
49	49	5
187	197	4
36	38	1
43	43	3
183	183	5
80	80	4
229	230	2
228	229	2
242	242	2
19	20	5
37	37	2
241	241	1
115	115	3
215	215	5
60	60	12
33	36	3
216	216	4
238	242	1
79	81	1
53	53	2
29	29	3
42	42	3
40	40	3
193	194	3
32	32	4
10	10	4
51	82	5
11	15	2
159	182	1
37	39	4
186	189	4
236	236	4
92	92	7
233	233	5
7	89	7
180	180	5
80	81	3
40	42	1
226	227	1
185	185	2
101	102	1
153	153	5
183	184	1
232	233	3
21	21	2
48	75	4
188	193	1
8	9	5
116	117	1
68	68	3
200	200	1
104	110	1
160	160	7
84	85	2
204	205	3
31	31	3
67	67	6
7	7	1
203	203	6
96	96	2
100	100	6
175	175	4
76	76	1
159	166	2
62	62	2
105	106	3
37	38	1
39	39	9
103	103	2
154	155	2
189	190	2
210	210	3
113	113	1
16	17	1
114	115	3
66	66	3
119	119	4
165	166	1
246	246	2
108	110	2
104	104	1
11	12	3
181	182	2
208	208	1
175	176	4
182	182	1
162	165	2
66	67	4
199	214	1
239	240	4
91	91	2
105	107	1
102	102	3
22	23	2
3	4	1
44	44	6
222	223	5
28	33	2
41	41	3
157	157	1
246	247	2
47	47	2
80	82	3
154	154	7
175	177	2
152	152	4
223	223	2
68	72	1
205	205	3
205	206	4
36	36	4
98	98	2
63	64	2
24	24	2
159	181	1
211	212	3
207	217	2
28	28	3
51	52	3
201	201	6
204	204	3
64	64	4
18	18	3
157	159	1
147	147	1
211	211	2
54	54	7
15	15	1
161	161	4
65	87	1
64	88	2
155	155	3
243	244	1
118	118	1
74	74	1
201	202	6
0	1	1
233	237	2
220	220	2
90	90	2
234	234	3
58	63	3
60	62	4
236	237	3
49	80	2
105	108	4
173	191	1
55	56	4
88	88	2
23	23	1
245	246	3
144	144	1
80	110	1
68	69	2
101	101	3
172	173	3
239	239	1
26	26	1
81	82	1
16	27	1
221	221	2
49	78	1
158	165	1
226	226	1
67	68	2
191	192	1
82	82	3
56	63	1
171	172	1
114	114	1
3	6	1
199	201	1
209	210	2
244	244	1
61	62	5
215	216	2
213	216	2
163	163	1
199	199	2
188	188	1
146	146	2
35	36	1
178	178	2
172	176	1
106	107	2
51	69	1
222	222	1
149	149	1
231	233	2
248	248	2
169	169	5
8	8	1
176	176	3
48	81	1
171	175	1
167	180	1
243	243	2
5	5	2
96	97	1
168	168	1
238	238	2
180	182	1
50	71	1
59	59	2
65	65	1
242	243	1
25	26	2
86	86	1
39	40	1
100	109	1
77	78	1
73	73	1
50	50	2
40	41	1
185	186	1
82	83	1
171	176	3
171	171	1
187	187	1
78	83	1
72	73	1
182	185	1
60	61	1
197	198	1
85	86	1
89	90	1
231	234	1
193	193	1
102	109	1
7	8	1
237	237	1
