155	156	2
74	74	11
12	18	2
6	7	3
58	62	1
15	27	3
140	140	8
67	69	3
117	127	3
137	137	12
143	143	4
25	34	6
81	93	1
35	35	2
9	9	5
151	153	6
65	65	5
0	5	3
151	151	16
105	112	1
148	150	1
111	111	10
83	83	8
88	88	8
95	97	9
168	168	6
143	144	5
65	74	3
107	120	2
4	6	7
137	140	2
25	138	2
109	110	4
82	116	1
154	165	2
53	53	13
81	81	11
134	136	3
98	100	3
22	156	1
9	162	2
108	108	4
38	89	2
158	163	2
117	123	2
70	73	5
163	165	3
67	68	2
57	62	3
78	78	6
112	114	4
0	2	3
1	1	11
16	19	2
50	50	3
0	89	7
53	54	2
10	11	5
48	49	4
135	154	6
28	28	14
100	106	3
11	11	6
161	161	7
125	138	2
156	157	2
145	154	1
154	155	10
106	106	2
18	49	2
102	106	1
84	85	2
89	97	5
104	105	4
144	147	3
13	13	7
70	124	4
95	106	2
42	50	2
77	81	1
72	104	4
66	66	4
68	69	1
14	14	6
9	16	5
19	19	4
65	70	2
94	94	4
87	88	2
78	79	5
57	57	6
71	76	2
150	151	4
128	136	3
133	159	2
49	54	3
83	112	2
137	151	2
129	136	1
146	152	4
0	0	3
83	138	1
77	77	6
18	134	1
127	134	1
75	92	2
16	16	5
52	52	4
119	119	8
121	142	2
149	151	2
49	49	2
94	102	1
97	97	6
135	143	1
99	99	7
138	140	2
160	160	5
101	101	7
5	5	13
96	114	1
136	136	10
139	140	4
63	68	4
8	9	6
164	164	5
123	123	1
150	163	2
127	127	1
76	76	7
147	163	3
38	38	17
77	82	2
104	117	1
138	138	4
71	74	1
169	169	3
54	54	9
36	38	2
151	155	2
98	98	13
147	156	1
142	142	4
120	120	5
154	154	13
47	57	1
146	146	8
51	51	5
152	154	3
145	145	10
45	55	2
55	131	2
55	56	5
140	151	1
150	150	6
96	107	4
18	19	1
25	26	2
78	103	1
118	120	12
128	128	8
10	10	11
127	140	4
128	131	1
160	165	1
110	110	8
23	23	7
37	38	4
74	75	1
3	3	3
109	109	3
134	135	2
27	39	2
1	86	1
2	117	1
129	157	3
92	144	4
91	91	5
78	96	2
93	97	3
0	13	1
162	165	2
129	130	4
123	138	2
20	20	4
108	111	2
72	74	5
134	147	1
125	126	6
56	56	6
75	75	4
81	84	3
93	93	2
143	147	3
37	47	3
2	141	1
43	43	5
108	109	2
13	21	3
121	121	5
27	28	5
42	42	5
154	169	2
44	45	3
158	158	10
122	122	2
159	159	3
166	166	4
87	87	5
72	79	1
6	6	3
153	153	5
116	116	6
123	127	2
141	143	2
119	121	3
146	155	1
79	79	1
162	170	2
166	167	4
37	37	7
163	163	4
14	16	2
0	4	1
167	168	2
12	14	3
121	133	2
136	138	1
124	124	7
160	161	2
144	144	4
152	153	2
69	70	3
96	96	1
121	136	2
152	152	5
84	84	3
104	106	2
131	136	5
149	155	3
18	47	1
67	67	5
67	125	3
151	160	1
112	112	8
132	141	5
86	138	2
77	92	3
45	45	5
153	167	3
133	134	2
25	25	5
3	132	1
39	48	1
112	115	2
62	63	5
27	27	3
7	14	2
120	124	1
155	158	3
117	117	1
63	63	4
77	112	2
19	92	2
126	126	2
147	170	4
93	95	3
80	82	1
27	40	2
15	15	4
4	4	1
2	2	9
20	122	1
87	115	4
161	165	1
73	76	3
118	118	5
13	14	5
162	162	2
33	38	4
105	107	4
68	96	3
3	4	5
47	53	3
84	92	2
100	112	3
85	86	2
55	55	6
69	69	1
0	6	5
107	107	8
161	170	2
157	157	5
142	143	4
72	72	4
77	78	1
121	122	1
72	76	4
147	147	1
131	131	2
87	106	2
67	71	1
21	157	1
71	75	2
90	90	10
58	132	1
36	36	5
133	133	4
130	133	1
62	62	8
149	149	2
92	100	3
48	48	4
130	131	1
117	118	2
15	136	1
91	112	2
85	109	1
105	105	13
137	138	3
24	139	1
117	137	2
25	130	2
138	141	2
166	168	1
47	47	2
35	36	1
34	34	3
96	115	1
140	149	1
10	23	3
159	170	2
98	107	2
73	95	2
80	80	2
129	129	5
115	115	3
132	132	5
24	24	2
140	141	4
157	162	1
40	41	2
3	10	4
87	89	1
17	18	6
20	22	4
139	139	2
8	12	2
84	86	2
115	126	1
27	46	3
34	39	2
55	80	2
114	114	4
131	135	4
95	117	1
128	138	4
35	37	3
9	38	2
41	41	3
26	26	3
7	7	2
106	107	2
21	49	3
68	68	2
38	40	1
147	148	2
148	148	7
167	167	7
135	135	3
97	118	4
112	113	6
71	89	1
20	21	3
72	96	2
85	110	2
90	100	1
94	98	1
74	78	5
153	155	2
92	92	10
39	40	1
86	86	5
121	130	3
47	48	1
34	38	1
148	152	4
92	96	1
80	88	2
83	84	4
111	112	2
107	108	1
102	102	2
71	143	1
34	164	2
154	156	2
150	168	1
5	11	1
74	115	1
40	40	1
86	109	1
131	141	2
95	96	1
135	149	3
64	74	2
84	95	1
125	137	1
100	115	1
38	45	2
36	42	2
42	46	1
160	167	3
86	115	2
56	58	1
1	138	2
67	153	1
82	82	3
48	53	1
95	95	3
88	96	2
100	100	2
13	19	1
115	123	1
13	52	1
144	145	5
149	150	2
58	67	2
124	127	2
63	142	1
73	73	2
99	115	1
148	163	1
57	65	1
18	18	1
123	156	4
58	58	1
87	95	1
115	116	1
72	89	2
65	66	1
38	46	2
41	46	1
91	113	2
164	165	1
113	113	4
11	13	2
3	9	3
128	129	3
124	159	1
19	56	4
12	12	3
135	138	1
65	73	1
75	97	2
23	37	3
83	118	2
22	23	1
79	81	1
0	7	1
4	5	2
7	11	1
138	139	4
93	99	1
137	150	1
92	107	1
96	118	2
10	12	1
43	55	1
12	165	2
170	170	3
73	77	2
156	158	3
63	120	2
45	46	2
4	11	1
47	84	1
66	131	1
109	123	1
68	105	1
166	169	1
139	141	2
5	113	1
43	44	1
128	130	1
18	20	1
15	84	2
2	7	1
95	98	3
149	157	1
3	11	2
85	85	2
142	152	1
130	130	2
70	71	1
25	134	2
120	133	1
89	89	1
43	64	1
66	68	1
82	91	1
158	162	2
8	8	1
83	93	1
10	24	1
39	41	1
88	91	1
11	135	1
123	125	2
42	52	1
127	130	2
27	38	3
52	58	1
163	167	2
16	17	1
146	169	1
11	16	2
134	156	1
131	139	1
28	40	1
68	70	1
126	129	1
93	94	1
104	104	1
133	162	1
137	139	2
147	151	1
11	14	1
4	138	1
2	14	1
70	70	2
97	98	1
168	170	1
15	137	1
136	145	1
113	115	1
24	130	1
143	145	1
103	109	1
156	156	1
152	165	1
83	85	1
65	72	1
70	158	1
165	166	2
143	151	1
55	57	1
3	17	1
130	135	1
169	170	1
140	144	1
137	142	1
5	17	1
48	50	1
84	99	1
14	84	1
123	131	1
