28	28	12
104	104	8
117	117	6
135	135	8
80	80	7
81	81	14
78	78	14
36	38	3
107	107	21
24	24	8
15	15	12
99	99	13
1	1	10
100	111	8
71	71	6
107	134	3
54	54	19
3	4	2
92	103	2
56	56	14
57	57	18
35	35	19
126	126	17
124	124	19
64	64	3
39	43	1
111	111	5
116	116	8
101	102	1
50	132	8
53	54	5
3	13	6
123	123	13
110	110	10
95	101	2
134	134	17
96	96	17
79	80	6
77	78	5
139	139	5
20	20	15
21	43	3
140	140	5
141	141	19
11	30	11
13	13	8
16	16	15
33	83	3
89	89	13
62	62	9
115	115	16
13	29	5
49	49	16
93	93	6
58	58	11
6	6	11
51	87	2
68	143	1
19	20	9
103	103	13
50	51	6
68	68	17
22	97	1
107	110	3
15	24	9
100	100	12
138	138	14
63	63	8
25	25	14
55	71	4
66	66	12
94	94	10
117	121	1
59	59	21
10	18	1
145	145	10
50	50	10
113	113	7
131	131	10
109	118	5
142	142	10
60	65	1
15	23	1
141	142	6
36	39	1
54	131	2
50	80	2
33	35	5
96	112	1
76	76	15
101	105	2
36	60	4
46	46	1
40	41	4
48	48	17
17	41	6
17	42	2
31	31	2
91	93	2
18	18	16
1	20	3
98	98	4
135	137	3
128	128	23
71	72	2
0	1	5
8	8	12
12	12	6
118	118	18
0	21	4
5	5	8
97	97	5
99	145	3
120	120	11
11	42	11
0	0	5
65	67	8
22	22	16
114	114	12
28	29	2
17	17	10
38	38	10
53	86	1
78	79	5
127	128	1
55	55	7
87	87	7
130	130	15
72	72	15
100	142	1
135	136	5
84	84	9
16	33	3
21	39	1
94	100	5
123	124	4
106	142	2
51	52	3
50	117	4
14	14	14
30	108	3
119	121	4
19	19	5
34	34	15
121	121	13
74	96	5
98	134	2
2	29	5
122	123	3
120	122	1
134	136	5
42	42	9
109	109	8
92	92	11
125	125	10
32	32	18
119	120	11
99	108	2
32	33	1
56	57	5
11	11	14
39	40	2
47	47	4
33	33	10
106	139	2
127	140	3
103	104	4
88	89	4
108	110	6
30	107	4
90	91	2
30	42	3
84	85	2
129	130	4
125	126	14
31	37	1
36	36	5
97	112	4
26	26	10
16	60	2
78	111	3
9	9	9
60	60	9
10	10	10
91	91	11
21	21	4
76	78	4
63	69	1
114	115	5
67	67	5
113	114	10
33	34	2
102	102	12
2	3	2
41	41	7
3	3	7
22	52	1
60	73	4
70	103	1
37	37	9
70	70	6
69	70	4
58	80	3
16	24	4
43	43	9
119	123	2
126	143	1
69	69	12
132	132	7
4	5	8
140	141	6
89	90	3
88	88	12
92	93	2
101	101	8
6	19	3
12	29	1
49	51	1
23	24	1
130	131	1
75	96	2
102	105	1
21	22	3
26	27	2
80	81	3
65	65	6
85	85	4
19	31	1
9	87	3
48	52	5
27	27	9
136	137	1
144	144	7
63	64	6
53	53	6
42	47	2
22	29	2
29	29	16
105	105	5
0	24	4
51	73	2
42	85	1
105	106	4
61	61	10
119	119	13
79	79	4
24	41	3
66	71	2
79	81	2
73	73	14
106	137	3
122	122	2
74	75	6
60	74	1
53	56	3
55	82	1
77	77	8
22	23	3
108	133	2
19	21	3
48	49	2
133	136	3
129	129	4
57	80	3
56	120	2
51	51	5
17	25	1
75	75	2
128	133	3
56	82	3
127	127	10
16	18	1
5	9	2
48	51	3
64	66	4
51	72	1
101	104	3
54	80	1
93	121	3
70	71	3
137	139	3
102	106	2
10	19	2
104	129	2
73	74	7
83	100	1
60	61	2
101	108	3
98	99	4
64	65	4
14	16	2
64	87	3
0	6	1
74	74	4
68	70	4
30	32	2
107	129	3
82	82	3
121	122	2
136	136	6
72	90	1
95	96	2
53	84	1
55	66	2
129	140	1
26	117	1
62	117	2
11	35	1
102	125	1
128	129	5
31	36	3
111	112	2
133	134	3
20	55	1
63	89	1
30	30	9
29	30	2
55	83	1
37	77	3
67	68	4
39	39	4
22	26	2
10	17	4
58	73	1
31	32	3
68	69	1
34	35	1
58	87	3
55	80	2
110	111	2
119	122	1
109	110	3
75	76	3
116	132	3
18	19	1
42	86	2
58	78	2
74	87	3
96	101	1
91	113	2
133	133	7
137	138	2
85	88	1
128	130	1
118	119	4
86	86	6
15	83	2
4	24	3
5	7	2
52	53	1
52	77	1
83	108	1
83	83	7
23	23	7
31	34	2
98	113	1
19	22	2
23	34	3
102	104	4
93	95	1
13	40	3
104	143	3
100	101	2
69	107	2
54	55	3
93	94	3
8	10	2
76	77	5
5	6	1
131	134	2
52	123	1
47	48	3
55	72	4
65	118	2
125	131	1
9	17	1
72	93	1
20	35	3
50	52	1
100	108	1
0	5	1
89	114	1
29	92	2
106	106	5
132	133	3
131	135	2
66	72	2
18	26	6
143	143	6
56	71	1
105	120	1
120	121	2
99	127	1
112	127	2
111	119	1
112	123	1
4	26	3
90	90	3
9	58	1
131	139	2
108	108	6
126	127	5
8	84	1
92	94	1
2	2	9
95	95	2
22	28	1
90	111	2
57	58	2
80	112	2
83	84	1
115	120	1
64	77	3
101	110	3
24	25	2
103	143	2
53	55	3
75	81	2
55	120	1
11	75	1
80	114	2
1	104	1
15	57	1
24	57	4
87	114	1
124	125	5
40	40	8
54	109	2
100	102	1
42	81	1
12	41	1
74	76	1
91	111	3
73	96	2
77	79	4
81	82	2
55	95	2
15	39	1
88	90	3
98	100	1
72	77	3
79	111	4
22	53	1
97	98	4
59	60	1
95	100	1
131	132	3
17	61	2
49	87	1
59	131	1
126	128	1
63	68	1
86	87	4
47	49	2
61	62	1
52	52	3
62	65	2
27	28	2
131	138	1
2	30	1
66	67	2
58	79	1
3	6	2
85	86	1
4	12	1
116	117	4
1	34	2
52	116	2
107	112	1
55	57	1
102	108	1
104	107	1
21	66	1
16	17	1
1	2	1
124	127	1
106	111	1
63	114	4
61	135	2
23	107	1
62	83	2
17	75	1
21	30	2
9	26	1
4	4	2
57	121	2
124	132	1
138	139	2
108	127	1
16	42	3
41	81	2
79	115	1
41	42	1
47	85	1
36	37	1
73	86	3
3	15	1
130	139	1
42	50	1
20	43	1
52	118	2
97	128	1
32	36	2
6	33	2
87	88	2
41	118	2
97	126	1
111	140	1
69	143	1
118	122	1
108	109	3
29	93	1
60	116	1
112	113	1
143	144	2
98	141	1
28	59	1
0	38	2
58	86	2
105	138	2
74	78	1
2	21	1
49	50	1
126	129	1
23	33	1
91	95	1
18	113	1
68	145	1
107	126	1
6	79	1
76	84	1
108	139	1
102	103	1
58	59	1
120	133	2
15	16	1
62	63	2
66	69	1
14	23	1
49	52	3
112	112	2
128	139	1
104	126	1
73	111	1
82	83	1
54	59	1
21	57	1
35	36	1
34	37	1
61	139	1
134	135	1
95	121	1
143	146	2
70	145	1
134	138	1
99	142	1
136	141	1
128	134	1
72	140	1
20	56	1
56	64	1
8	9	1
137	140	1
36	41	1
99	143	1
99	128	1
30	38	1
58	140	1
