48	48	8
21	21	10
101	101	12
55	55	3
126	126	6
104	104	10
64	65	2
40	92	5
102	102	6
111	111	14
130	130	3
113	113	6
69	71	2
26	26	6
33	33	3
62	62	8
83	83	11
13	55	2
41	46	1
124	124	11
88	110	5
42	42	5
124	125	6
41	42	2
119	120	1
73	73	3
1	1	4
57	57	5
46	46	15
5	7	1
115	115	8
129	129	8
7	7	4
94	94	9
82	83	7
65	67	7
31	31	5
104	105	5
39	39	7
85	111	3
44	44	6
123	123	7
61	127	6
85	93	4
25	25	9
6	6	6
38	38	4
76	76	4
125	125	7
82	82	4
13	27	2
3	5	5
91	91	12
90	90	3
22	38	8
10	46	4
78	78	6
120	120	6
32	32	8
62	70	2
113	132	3
65	65	3
68	69	1
8	8	9
2	2	11
37	99	4
105	105	12
67	71	2
54	112	2
40	40	7
79	79	4
111	112	1
3	4	2
40	43	5
75	88	2
114	114	3
16	16	4
59	59	5
17	48	3
73	133	3
51	51	1
79	84	4
95	100	1
24	64	2
4	4	5
44	46	4
68	75	2
13	62	1
101	102	3
41	41	7
51	53	1
26	27	4
30	30	2
131	131	9
13	29	4
132	132	2
28	28	2
47	48	6
22	32	1
52	52	5
16	20	1
121	121	3
58	59	3
119	119	16
50	50	5
80	80	5
54	113	4
60	60	4
54	54	4
63	63	4
110	110	5
0	117	2
16	19	4
128	128	9
71	72	3
53	53	6
64	64	4
99	99	9
0	0	5
132	133	2
103	103	7
114	122	4
28	56	5
99	103	2
108	108	2
39	49	7
8	12	1
81	81	5
85	85	8
38	118	2
100	109	1
2	31	3
123	124	5
10	10	6
109	119	2
100	100	5
19	34	1
86	86	5
11	18	1
95	129	2
16	17	3
112	112	5
45	45	7
24	65	3
19	19	10
24	24	12
29	30	2
106	106	2
79	80	5
22	22	7
96	132	4
42	53	3
130	131	3
12	18	2
125	127	4
75	75	9
15	111	3
20	20	3
92	92	3
69	102	1
49	49	3
55	56	3
25	29	4
0	55	2
27	27	2
68	68	5
97	98	1
89	89	10
99	101	1
52	117	1
69	78	4
70	70	1
6	11	3
40	46	5
115	116	2
67	67	6
23	24	4
68	91	1
57	58	1
1	44	2
41	44	4
96	105	3
13	13	5
2	28	1
23	23	6
81	93	1
14	14	7
67	119	1
101	110	1
20	66	1
81	84	1
56	57	3
121	123	2
65	126	2
63	64	3
99	102	2
17	17	6
78	110	2
40	41	3
71	74	1
45	54	4
10	60	4
74	89	1
95	101	1
47	47	3
47	60	1
83	85	1
66	119	2
43	43	2
69	69	4
9	27	4
85	127	1
98	98	3
105	106	3
133	133	1
84	84	1
113	133	1
3	3	3
14	15	3
17	46	2
89	90	3
109	109	3
21	23	1
27	28	1
30	31	1
131	132	2
129	130	4
18	19	1
54	61	1
68	74	2
117	117	1
78	81	3
9	9	8
5	5	3
0	111	1
62	69	2
75	76	2
55	61	1
120	121	1
116	116	4
86	126	2
50	53	1
65	66	2
2	19	2
34	91	1
49	50	1
19	20	4
82	93	1
42	49	4
56	69	1
77	77	1
93	93	1
2	10	3
85	118	1
113	126	1
87	87	2
63	65	1
10	33	2
114	115	2
105	107	3
30	68	3
122	122	1
29	29	3
116	118	1
84	94	1
23	25	1
85	97	1
46	47	2
6	7	1
71	94	1
70	93	2
74	74	5
97	97	1
74	75	3
56	58	2
96	96	5
51	64	1
13	46	1
58	114	1
126	127	1
88	88	1
94	95	3
81	82	3
66	67	1
51	80	2
95	109	1
69	75	1
56	56	3
15	63	1
89	92	2
114	132	1
72	72	1
17	18	2
64	66	2
71	71	1
11	11	1
80	120	1
73	74	1
41	43	1
78	80	1
15	55	1
60	63	1
95	95	1
90	95	1
100	102	2
127	127	1
18	18	1
96	102	1
58	58	1
116	117	1
118	119	1
12	12	1
