105	105	4
102	102	8
92	92	4
9	9	4
37	37	1
105	106	3
102	103	5
10	10	3
33	33	7
13	13	6
164	164	5
87	87	3
129	135	3
20	23	2
101	101	2
130	130	3
81	115	2
109	109	3
110	110	7
159	160	1
97	124	1
94	94	7
99	99	19
101	104	3
18	18	7
25	25	7
4	4	9
78	78	3
96	96	10
112	112	5
24	24	4
127	129	2
87	88	4
16	16	4
80	81	4
126	126	7
91	91	3
140	140	5
168	168	2
53	53	3
137	137	7
127	127	3
55	55	5
165	165	6
122	122	6
1	1	8
156	156	3
167	167	5
15	15	3
34	34	2
111	112	2
132	132	1
19	19	7
50	62	1
119	119	4
123	123	6
114	114	10
65	113	4
14	14	3
5	5	7
117	118	4
79	79	5
100	100	4
123	124	3
152	152	3
168	169	3
84	113	2
70	71	1
103	103	2
97	98	4
150	152	1
155	156	2
116	117	2
101	102	3
67	68	3
81	120	2
159	159	2
157	158	1
134	134	3
88	88	2
136	136	1
73	73	2
54	54	4
11	11	2
0	1	6
49	49	3
0	0	5
145	145	1
119	120	2
27	27	5
132	133	2
143	143	4
152	153	2
94	95	2
94	97	3
74	74	2
166	166	6
26	26	5
127	128	4
118	156	2
142	143	6
39	39	3
74	75	3
17	24	2
19	23	1
41	41	2
22	24	1
17	17	4
5	6	2
16	18	1
116	116	3
83	115	1
90	106	1
22	22	4
167	168	1
145	146	1
80	80	3
68	68	3
115	116	3
141	145	2
124	124	2
155	158	1
163	163	4
90	91	1
40	40	5
79	108	1
43	43	10
158	158	5
139	139	2
11	12	2
162	163	1
57	64	2
170	170	2
96	97	3
115	115	2
83	83	4
42	42	1
97	97	1
164	165	1
20	24	1
146	146	6
56	56	3
3	12	1
49	57	1
155	155	2
138	138	1
56	70	4
113	113	3
90	90	3
139	140	4
113	114	3
160	160	1
107	107	2
150	151	5
23	23	7
47	47	5
20	20	9
7	7	1
36	36	4
124	126	2
106	107	1
13	15	1
109	110	3
129	137	1
99	105	2
8	8	1
23	24	5
46	46	2
96	119	3
122	147	1
123	126	4
146	164	1
108	108	3
89	89	1
111	111	1
48	49	1
142	142	1
18	20	1
25	38	2
40	41	4
147	147	4
51	52	3
163	165	2
159	161	1
12	12	1
75	76	1
134	144	1
154	154	2
162	162	2
3	3	1
45	45	1
98	98	2
77	77	1
107	117	1
123	147	1
55	56	1
138	139	3
141	141	2
56	57	1
75	75	1
93	94	1
130	132	4
163	164	1
20	22	1
125	125	2
76	86	1
154	155	2
76	76	1
81	81	2
2	2	3
135	135	1
77	116	2
98	99	3
82	82	1
76	79	2
13	14	2
41	42	1
15	156	2
161	161	1
8	9	1
37	38	4
117	117	1
88	89	1
96	108	1
39	40	2
149	149	2
91	92	1
92	102	1
132	134	1
85	114	1
91	104	1
158	159	1
152	163	1
157	163	1
128	128	1
6	6	2
18	23	1
33	134	1
99	121	1
90	105	1
52	52	1
108	109	1
14	15	1
57	63	1
145	161	1
