131	131	11
7	7	1
136	138	1
24	24	15
6	7	9
140	140	2
94	95	6
152	152	2
56	56	1
99	99	5
78	93	2
10	11	7
117	118	9
31	64	3
37	37	3
115	122	4
40	46	1
90	90	5
23	23	6
34	69	1
41	41	10
113	113	10
32	32	5
30	30	6
131	133	2
39	45	2
13	17	4
6	6	10
117	117	5
85	86	5
36	36	10
148	148	12
113	114	3
34	68	3
45	50	2
133	133	6
27	27	6
12	15	3
73	129	4
130	131	5
92	93	2
5	5	1
19	19	7
147	147	4
88	88	1
34	34	3
125	125	9
110	110	5
69	69	3
4	57	7
149	150	5
93	93	8
139	139	5
83	83	9
111	111	9
104	104	14
100	101	6
95	95	4
8	8	6
70	74	1
31	31	7
33	34	1
87	93	6
35	35	2
114	114	3
85	85	9
39	46	3
75	75	2
48	48	8
128	128	11
143	146	4
115	128	3
11	11	11
100	100	3
22	22	3
143	143	1
153	154	1
70	70	1
87	92	5
66	88	3
135	135	15
134	134	7
64	65	5
136	136	11
12	12	11
74	77	1
42	43	2
63	69	2
80	80	1
17	17	5
14	25	2
47	47	3
106	106	8
80	82	2
57	57	6
111	112	5
116	116	4
18	18	8
68	69	3
145	145	10
12	14	6
10	10	6
105	108	1
26	26	8
28	28	4
30	31	3
2	3	2
87	87	6
54	54	5
102	102	4
123	123	5
121	121	1
112	113	4
92	92	4
7	81	1
140	141	8
75	78	2
3	6	6
101	101	6
39	39	9
112	117	4
149	149	6
73	128	3
116	128	2
141	144	2
6	76	2
49	49	2
45	45	5
51	51	4
119	121	2
29	32	1
42	42	8
86	86	4
21	21	11
122	127	1
135	136	2
113	121	1
36	38	3
66	67	1
118	118	4
20	20	3
105	105	3
114	122	3
120	120	4
63	63	7
137	137	7
79	79	5
151	151	8
108	113	2
71	71	2
138	138	7
124	125	7
34	62	2
5	6	1
18	19	1
22	56	3
141	142	3
40	40	2
112	116	4
108	108	5
14	14	3
117	137	1
44	44	3
56	57	1
111	136	1
84	84	7
112	112	5
52	53	2
50	51	3
58	58	1
23	25	1
141	147	1
94	94	4
81	81	2
75	77	1
115	115	2
147	148	3
73	73	7
150	150	3
99	101	1
106	107	2
24	25	2
142	146	1
124	124	8
144	145	1
145	146	5
36	37	1
74	75	3
23	24	4
87	88	2
109	109	12
114	128	1
98	98	14
116	148	1
71	100	1
153	153	2
29	29	5
16	16	1
103	103	2
68	68	4
50	50	10
24	43	1
78	78	4
77	122	2
116	146	1
53	54	3
97	97	5
109	111	3
67	68	1
54	55	2
9	22	1
35	36	3
9	10	2
120	121	5
43	44	1
129	129	1
13	13	7
150	151	1
116	130	3
142	144	2
118	136	1
38	50	3
12	23	2
84	85	2
32	34	3
48	50	1
74	74	11
43	43	1
101	102	5
46	54	1
127	146	1
146	147	1
66	66	3
31	32	1
55	55	3
104	105	3
119	119	5
46	47	2
107	107	3
9	9	4
82	82	1
119	120	1
146	146	2
80	81	5
115	127	2
70	100	1
109	110	2
85	87	1
96	96	4
53	53	6
127	127	7
62	62	3
14	15	1
128	129	2
18	21	2
40	41	4
109	132	2
15	17	2
142	143	3
27	28	4
143	144	1
29	30	3
77	77	1
19	20	1
116	117	2
103	105	1
15	21	1
38	51	2
141	141	1
63	66	2
110	135	1
73	104	1
93	94	2
88	92	1
34	37	3
80	102	1
33	33	3
13	20	1
17	18	1
97	99	1
139	141	1
45	55	1
118	144	1
136	137	2
76	77	2
23	57	1
6	8	1
25	25	1
64	64	4
4	5	1
142	142	2
99	100	1
8	9	1
26	41	1
129	130	3
111	113	1
63	95	1
132	132	1
91	92	1
107	108	1
114	117	1
12	13	1
140	142	1
4	4	1
122	122	1
62	96	2
15	15	3
82	103	1
77	78	1
131	132	2
26	42	1
130	130	1
83	84	1
37	39	1
36	39	1
133	134	1
119	138	1
32	35	1
127	128	1
81	82	1
26	28	1
3	4	1
