111	112	3
30	30	8
77	80	7
58	104	2
30	52	5
46	46	12
26	27	2
106	108	4
78	78	4
86	87	2
97	97	11
27	27	14
24	24	10
43	43	6
36	37	8
63	88	2
74	74	7
52	57	5
47	49	2
55	77	1
34	34	6
26	26	7
53	87	3
94	94	8
44	44	16
111	111	9
66	66	11
68	91	2
89	89	5
51	51	13
72	72	2
77	77	9
32	32	11
29	30	2
82	82	7
101	102	2
58	58	2
88	93	2
35	35	14
55	55	3
60	101	3
37	66	4
24	45	5
113	113	4
40	74	4
75	97	2
22	23	2
85	102	5
50	66	2
105	109	1
114	115	2
30	39	1
94	95	3
71	71	11
62	81	1
102	103	4
63	63	8
46	75	5
69	89	3
80	104	1
92	103	1
98	98	4
48	48	11
68	79	4
31	31	11
42	42	8
87	92	8
65	66	2
106	107	12
34	36	4
72	78	1
70	70	4
20	22	2
99	100	3
23	48	3
100	100	12
70	109	5
109	109	8
99	99	4
78	79	5
93	93	4
21	44	4
107	107	4
58	59	4
50	50	2
52	53	2
39	61	1
61	77	2
25	25	9
96	96	10
71	72	3
49	49	7
88	102	5
95	106	5
67	70	5
23	24	1
64	64	4
40	40	9
74	98	1
54	55	6
67	67	8
37	37	6
65	87	1
29	51	5
28	28	8
29	29	18
80	81	1
50	51	1
65	65	1
49	98	1
49	64	1
20	20	8
47	47	4
61	61	6
102	102	3
64	101	2
104	106	1
59	59	4
51	66	1
112	112	7
65	68	5
99	103	5
45	45	6
88	89	1
59	85	4
39	39	2
33	41	2
52	64	2
67	83	7
92	114	4
32	64	4
76	76	5
105	105	5
88	88	2
83	108	2
110	110	13
90	92	2
33	44	2
43	71	2
52	78	7
69	69	2
87	87	4
33	33	3
33	53	2
106	111	4
32	33	3
56	77	1
92	113	1
90	105	3
86	95	4
69	81	2
44	57	1
82	85	1
54	57	3
85	85	4
92	92	5
19	19	2
22	22	14
72	103	2
68	68	5
109	110	7
25	26	4
102	108	5
94	105	3
84	84	10
97	98	1
21	21	6
93	94	2
85	112	1
68	81	2
95	98	6
39	94	2
83	84	3
37	38	5
33	43	1
64	99	1
82	83	3
83	83	4
28	80	3
64	65	2
28	54	1
80	80	5
40	47	1
95	95	1
104	110	2
85	88	3
32	69	3
76	77	1
67	68	1
92	106	2
31	58	1
32	78	1
56	75	2
75	75	3
42	67	1
92	104	3
88	103	2
20	71	1
24	27	1
79	80	3
58	84	3
106	106	1
53	53	3
81	86	2
79	79	6
86	112	2
35	59	2
30	57	2
82	101	2
56	57	2
19	56	2
85	98	1
33	34	3
60	60	2
103	114	1
24	71	1
31	53	2
81	83	4
72	73	1
50	100	3
27	28	1
110	113	1
43	47	2
27	53	3
61	75	2
69	109	1
88	98	2
70	91	4
70	101	4
47	48	1
21	45	2
91	91	2
62	83	2
32	97	3
75	77	1
43	64	1
67	69	3
63	90	1
86	86	3
21	72	1
48	96	3
77	78	3
73	74	1
41	63	1
66	67	2
23	23	4
100	101	1
40	48	1
114	114	2
27	47	1
96	97	2
92	93	1
56	56	2
101	114	2
37	63	1
28	31	3
73	73	2
73	75	1
24	46	1
37	39	1
81	89	1
65	88	1
39	40	1
66	92	1
32	96	1
40	49	1
88	113	1
54	62	1
49	76	1
93	105	1
38	40	1
59	79	1
41	41	3
112	113	2
77	100	2
57	57	1
36	71	1
77	102	1
81	81	1
68	87	1
91	109	1
40	41	2
35	38	2
61	78	1
59	75	1
100	102	1
26	35	1
33	36	1
28	53	1
24	25	1
61	89	2
27	57	1
37	70	1
41	42	1
67	114	1
62	62	1
62	85	1
30	40	1
34	35	1
80	102	1
101	101	2
71	73	1
25	57	1
34	85	1
89	109	1
