9	17	1
7	77	9
48	48	24
30	51	4
66	66	6
75	75	16
72	73	5
20	20	18
13	13	18
46	53	1
9	10	9
78	78	4
19	19	24
12	12	13
30	50	1
87	87	8
57	57	21
48	79	2
5	11	5
4	4	23
58	58	10
8	8	12
6	6	9
55	56	4
10	19	3
53	53	13
79	79	23
15	16	11
68	69	7
22	22	33
84	84	10
56	56	14
30	30	15
3	3	22
62	62	8
66	76	3
69	70	6
14	14	5
55	55	12
1	2	5
67	67	22
11	11	17
26	27	12
47	47	11
69	69	17
46	46	1
66	67	8
68	68	14
50	50	18
74	74	17
3	22	3
30	31	5
21	22	9
6	9	5
52	52	20
54	55	7
86	87	8
63	63	9
81	81	13
27	27	13
21	21	9
63	79	2
23	23	12
82	82	26
9	47	5
23	24	8
24	25	10
88	89	5
53	55	2
70	74	2
83	83	7
76	76	4
54	54	19
60	60	8
24	24	15
1	1	6
25	25	26
78	80	3
30	85	3
6	33	4
59	59	4
11	14	8
56	62	1
13	65	2
0	0	13
51	51	17
71	71	13
81	85	5
72	72	9
7	7	6
31	31	11
21	27	6
80	80	9
49	49	17
86	86	19
71	75	1
88	88	6
16	16	6
5	5	8
15	15	10
65	65	6
64	65	5
71	82	3
5	10	1
87	88	1
77	82	2
84	85	4
29	67	3
55	79	2
85	85	24
63	76	1
9	9	10
49	50	2
19	20	4
26	26	10
14	27	4
29	29	4
89	90	2
4	5	3
7	8	3
89	89	9
67	74	2
74	75	3
46	47	1
66	72	2
50	74	5
63	78	1
73	73	8
57	58	5
58	73	2
58	59	2
25	26	2
7	78	8
5	25	2
67	68	6
70	73	2
9	20	2
66	71	3
49	61	2
63	80	1
32	64	2
64	64	3
79	80	2
60	61	4
32	66	4
61	62	2
70	70	2
52	53	3
18	19	1
51	52	6
6	7	6
27	28	5
10	17	2
10	10	2
49	66	5
81	83	3
74	82	6
6	18	4
50	52	1
2	2	6
65	80	2
5	28	4
77	77	3
0	2	1
74	81	2
49	57	2
13	14	1
66	85	5
12	26	1
3	4	2
85	87	5
48	71	3
72	74	1
62	75	2
73	75	1
28	28	4
47	48	1
10	58	2
28	30	1
9	11	1
76	77	1
12	65	1
47	71	1
0	1	1
32	32	2
11	12	1
63	64	1
20	21	1
33	33	1
62	63	5
56	57	2
73	80	1
7	33	1
74	83	3
81	82	4
34	34	2
11	15	3
48	75	1
76	78	1
17	18	2
82	83	1
85	86	1
12	13	1
53	54	1
28	31	1
67	70	2
54	56	1
59	60	2
68	72	1
17	17	1
49	75	1
29	30	1
70	71	1
46	57	1
