55	55	7
12	12	10
27	27	6
109	119	1
24	25	1
131	131	2
110	112	3
35	35	1
11	12	1
110	111	2
22	35	2
65	65	1
104	104	2
64	91	2
21	35	1
131	138	1
68	68	1
80	81	2
106	106	4
21	33	4
88	143	1
32	34	2
112	112	3
154	157	1
120	120	3
51	68	6
133	142	5
19	48	4
104	105	1
97	97	8
36	37	3
155	155	7
18	18	2
20	37	3
37	37	4
157	158	3
135	135	2
82	82	3
119	119	5
151	151	4
33	33	3
139	139	3
18	19	2
113	136	1
89	89	6
36	36	4
137	138	1
8	11	1
17	18	1
106	150	1
72	72	1
135	142	4
81	81	3
50	62	2
20	21	2
93	93	2
45	45	5
65	66	2
154	154	2
36	55	1
56	62	1
50	50	4
88	88	2
9	9	5
130	148	2
36	43	3
54	54	5
128	131	1
23	24	1
95	95	3
106	151	1
114	114	4
127	127	8
40	45	3
43	43	3
6	6	2
141	141	4
47	93	2
39	39	1
79	79	5
46	52	2
115	115	1
107	108	2
30	30	3
54	55	3
111	111	7
117	118	2
124	125	7
147	147	2
91	92	3
34	34	4
108	126	5
137	137	4
79	80	2
77	77	7
132	132	4
66	79	5
113	115	1
108	109	5
8	9	5
145	145	2
121	122	2
5	5	4
129	129	3
19	55	1
12	13	3
152	152	2
122	122	4
148	149	1
91	138	1
8	8	2
46	46	4
83	83	3
25	26	1
23	23	2
30	34	1
80	80	1
150	150	1
158	158	3
144	150	2
40	42	3
135	141	1
34	35	2
156	156	2
52	54	4
110	110	1
91	91	1
18	48	1
98	98	4
118	118	2
35	36	3
69	70	1
71	71	2
1	1	3
111	127	2
101	101	4
87	127	1
146	152	1
115	144	1
32	32	2
86	95	1
142	143	1
24	55	1
41	42	2
20	20	2
78	78	1
115	116	4
69	69	3
50	52	2
69	85	1
50	51	1
133	133	2
113	113	2
25	25	1
31	32	3
40	40	1
45	54	2
3	3	1
108	108	1
26	140	2
33	40	1
20	38	2
129	149	3
24	24	2
138	138	1
92	92	2
103	103	3
140	140	1
16	39	3
32	33	2
121	121	3
66	66	3
28	28	1
146	147	3
29	29	1
24	44	1
45	71	2
83	127	2
91	112	1
37	51	1
95	120	1
73	73	1
100	100	1
67	67	1
119	120	2
17	17	2
14	14	1
109	110	1
85	85	1
99	99	1
123	123	2
67	85	1
90	96	1
153	153	1
157	157	1
37	38	1
63	71	1
3	4	1
16	16	1
57	57	1
5	48	1
109	113	1
55	56	1
75	75	1
41	97	1
2	99	1
36	38	1
144	144	1
