26	27	1
56	56	22
144	144	25
9	9	15
17	24	4
99	99	13
127	127	15
123	123	23
68	75	1
6	11	6
129	148	3
71	80	3
25	43	4
142	144	1
118	140	2
149	150	2
86	99	2
54	79	3
75	89	2
47	48	7
71	95	2
119	119	23
94	94	23
35	35	8
124	124	13
84	85	4
20	20	8
150	150	21
50	51	6
13	19	2
130	130	19
112	112	10
121	122	3
43	43	11
22	22	23
15	17	2
143	143	17
102	102	17
67	70	2
122	122	28
80	98	1
103	103	19
63	63	7
100	100	23
133	133	22
32	35	2
69	70	7
109	132	2
140	140	8
86	92	4
113	113	34
48	48	22
22	23	20
135	136	10
68	69	1
95	95	12
152	152	20
104	104	19
84	84	19
102	117	1
132	132	38
86	87	1
109	117	9
40	40	24
118	118	11
100	101	4
5	5	13
104	110	4
100	114	9
90	90	4
145	145	17
82	82	10
141	142	7
19	21	3
109	110	6
4	4	11
148	148	28
64	77	1
7	7	12
124	129	2
141	148	2
80	81	10
103	104	10
22	39	1
146	146	18
11	100	1
21	21	14
50	50	8
111	111	7
114	114	20
45	46	11
78	86	2
23	23	24
65	67	3
122	143	2
16	33	2
153	153	15
124	127	3
127	128	5
51	64	2
81	81	21
91	110	2
78	106	1
128	128	17
29	29	17
111	112	8
76	76	23
123	128	4
83	83	18
141	141	14
8	8	9
50	75	8
64	64	10
56	72	2
121	121	15
147	147	22
85	86	1
51	53	6
71	71	17
53	74	2
28	29	7
81	83	7
95	96	5
150	151	11
65	87	4
5	7	4
136	152	6
9	100	3
13	13	26
33	33	7
9	10	6
71	82	3
68	68	11
3	33	2
111	145	4
79	136	3
4	5	12
70	70	25
40	41	6
10	150	2
144	154	6
53	53	13
110	129	2
121	135	1
151	151	14
121	127	2
28	28	13
98	100	3
98	99	4
42	42	5
14	14	22
68	105	5
34	36	3
116	117	4
118	120	1
126	126	18
97	97	11
42	43	13
6	9	1
117	117	18
41	41	20
4	15	5
18	18	17
78	79	5
69	69	15
85	85	17
13	136	2
86	86	13
10	10	18
23	24	5
49	49	14
82	84	2
115	116	3
63	119	2
30	46	1
13	54	1
27	27	14
83	105	1
51	51	22
16	17	9
30	30	8
134	134	16
39	39	21
69	76	1
82	100	3
15	15	10
106	116	2
30	49	2
18	36	1
75	75	7
45	45	17
109	109	14
135	135	35
112	113	8
100	103	2
140	146	1
7	10	6
87	87	7
24	25	5
118	135	1
43	44	6
24	24	28
110	113	7
85	134	2
66	66	11
125	125	20
67	67	7
122	131	2
47	62	2
106	107	4
29	30	3
115	149	2
80	80	11
126	145	4
76	77	4
87	95	1
32	33	12
4	8	5
105	107	2
106	121	3
32	32	10
136	136	18
144	145	4
44	44	7
96	96	18
7	12	2
44	45	2
31	36	2
133	134	9
31	31	9
56	66	2
119	121	1
90	106	1
63	64	9
131	139	1
124	131	5
84	86	2
111	113	2
120	120	12
86	116	5
88	92	1
66	71	3
11	44	2
88	88	8
9	18	7
25	32	3
90	108	4
20	21	12
93	126	2
49	53	6
122	132	2
129	129	14
100	109	1
77	77	13
106	106	30
71	78	5
3	7	7
122	127	1
131	131	19
133	148	4
11	11	9
23	81	6
8	11	7
138	138	9
93	147	2
73	141	2
83	93	2
73	78	1
125	127	2
14	58	1
66	67	4
71	85	3
54	54	12
66	88	3
55	57	3
84	104	4
38	39	6
17	17	9
72	72	4
46	53	4
87	101	2
38	38	7
19	19	19
54	74	2
77	97	10
119	120	1
41	42	4
25	78	2
83	113	4
65	88	1
140	141	2
93	93	11
62	62	10
132	133	6
34	35	3
62	65	1
149	149	12
88	138	2
92	110	1
84	108	2
2	17	1
109	134	1
6	14	3
26	26	11
134	145	3
101	101	7
126	129	1
99	118	3
137	137	17
24	82	1
82	101	3
68	106	1
18	19	5
28	40	2
110	111	3
36	46	1
113	131	3
94	95	4
107	109	1
16	16	2
112	130	1
6	20	1
108	108	7
44	51	4
39	49	2
36	37	10
142	142	4
135	140	1
128	133	3
6	7	7
27	29	4
71	106	2
46	46	8
47	51	4
71	119	4
139	139	10
57	57	6
111	129	2
6	6	17
43	57	2
10	11	5
122	148	3
42	122	1
85	111	6
37	37	16
44	55	1
101	102	5
3	37	2
113	114	3
31	33	3
122	128	6
119	137	1
36	36	22
12	12	9
25	27	1
48	53	2
8	9	11
3	49	2
93	119	2
62	73	4
46	47	3
68	76	2
110	131	4
3	5	2
39	40	10
25	26	3
48	51	3
33	39	4
92	95	1
129	134	3
30	41	1
100	112	1
128	149	2
13	97	2
78	90	1
116	116	2
95	100	3
14	17	2
130	131	1
46	136	1
107	113	3
137	147	1
138	139	4
89	103	2
96	97	10
41	119	2
46	102	1
25	25	7
130	136	1
4	90	1
132	134	4
95	98	2
12	149	1
66	84	1
100	121	5
23	63	2
38	41	3
42	144	1
67	68	4
65	72	2
115	115	6
150	154	7
31	102	3
105	105	4
68	79	1
47	47	8
19	20	7
15	18	6
108	120	1
43	58	4
7	23	2
154	154	7
66	68	1
23	38	3
110	110	15
99	101	2
26	99	2
36	108	2
127	129	2
77	87	2
55	75	3
113	119	3
2	3	1
52	52	2
107	107	8
22	24	1
55	55	6
107	129	1
100	113	1
65	65	10
49	102	2
23	46	2
35	36	4
139	149	2
61	64	2
2	5	2
67	69	2
66	73	1
80	92	1
20	43	2
15	16	6
78	100	2
30	36	1
118	149	1
14	22	3
149	154	2
112	123	1
135	137	3
94	100	3
38	53	2
21	22	2
80	136	3
125	141	2
146	147	2
149	151	7
19	24	2
32	42	2
128	129	5
17	18	3
100	102	3
63	79	2
74	79	5
99	146	3
15	20	2
63	87	3
34	34	9
77	82	5
53	79	1
122	130	1
136	137	4
20	34	2
89	96	2
58	58	2
144	149	2
123	125	3
133	137	2
69	104	1
87	88	2
19	22	5
47	69	2
87	93	1
13	148	3
73	73	6
128	131	3
46	49	2
69	105	2
113	129	1
118	139	1
21	24	1
27	28	5
125	126	2
140	147	1
101	109	1
114	119	5
131	132	4
96	115	1
97	114	3
97	112	5
136	153	2
3	25	1
139	141	1
9	34	6
101	120	4
107	108	2
12	22	2
8	20	2
21	136	1
134	136	3
103	142	1
102	103	2
124	125	9
135	147	1
6	17	1
134	135	2
79	80	2
22	34	2
104	109	1
117	118	6
147	150	2
63	80	2
120	134	1
11	12	2
86	109	1
144	146	3
21	31	2
139	140	1
95	114	2
94	113	3
12	30	1
142	143	9
92	92	5
94	104	1
44	57	2
109	112	3
75	77	2
105	133	2
42	47	2
13	16	2
107	114	3
3	3	5
66	83	1
85	107	2
121	144	3
14	26	1
104	105	1
78	78	4
99	114	1
2	2	2
4	30	1
8	15	3
38	69	1
123	129	2
87	89	1
111	115	1
86	139	2
117	133	1
118	119	1
99	100	4
67	71	1
134	147	1
84	135	2
113	133	1
23	37	2
94	120	2
37	39	3
5	18	3
18	43	6
20	75	1
14	23	1
122	123	2
71	72	4
32	43	2
28	109	1
116	134	1
127	137	3
72	73	1
25	33	3
3	4	1
38	43	1
41	46	1
65	69	2
79	79	3
110	112	5
77	78	2
108	131	5
121	148	1
96	123	1
132	140	1
10	19	2
65	66	3
56	57	3
53	64	3
17	30	4
53	78	4
121	136	1
135	154	2
36	43	1
125	144	2
146	148	4
5	12	2
105	106	2
24	40	3
30	45	1
122	149	1
133	146	2
4	13	1
78	94	1
81	82	1
32	70	3
19	23	2
35	100	2
26	55	3
94	103	3
148	151	3
46	135	3
153	154	3
32	36	3
98	116	4
93	94	3
39	57	1
138	140	2
135	141	1
134	146	1
144	151	1
113	124	2
137	138	1
93	105	1
119	148	3
139	144	2
50	67	1
110	128	1
62	63	4
84	97	2
106	126	1
20	22	1
118	134	1
74	74	5
13	45	2
28	51	2
93	146	3
65	68	1
4	12	2
129	130	1
133	135	3
94	114	2
98	115	1
32	34	2
38	49	2
83	88	1
8	29	1
9	27	2
37	45	1
84	112	1
133	142	1
152	153	1
113	130	1
49	65	1
26	36	1
121	140	1
83	86	2
16	20	4
129	147	1
30	42	1
126	139	5
13	129	1
4	51	1
147	148	2
101	103	3
37	56	1
71	77	2
143	144	1
6	10	1
49	50	1
77	79	3
26	29	1
36	38	1
94	132	1
48	49	1
110	119	2
43	103	3
70	84	2
102	110	1
21	43	4
15	22	1
2	113	1
107	111	1
94	102	2
32	55	1
14	51	1
8	14	2
49	51	3
42	94	2
15	26	2
44	47	1
123	124	1
98	98	5
111	125	1
6	103	1
95	99	3
74	78	1
98	114	1
41	121	1
79	81	1
101	141	1
143	145	2
12	56	1
93	109	1
51	66	1
42	68	1
31	32	1
106	113	3
72	88	1
15	51	1
147	149	1
14	15	1
115	144	3
28	52	1
11	21	1
139	147	2
126	127	1
21	36	1
21	142	1
82	108	1
35	41	1
13	27	3
11	14	1
78	85	1
91	112	2
26	39	2
106	119	2
92	115	1
13	15	1
40	100	1
135	150	2
38	44	2
98	110	1
108	119	5
21	23	1
28	41	1
112	120	1
44	46	1
104	116	2
106	144	1
25	80	1
5	10	1
99	145	1
6	13	2
72	87	1
48	77	1
11	43	2
49	103	1
54	69	2
136	139	1
114	126	1
30	99	1
53	68	3
127	151	2
111	143	2
47	118	1
136	138	1
122	144	2
139	151	1
107	112	1
92	140	1
26	32	1
3	12	1
151	154	1
114	133	2
41	52	1
77	84	1
103	128	1
118	126	1
79	94	1
115	138	1
20	42	1
28	123	1
115	127	1
74	75	1
16	35	1
121	149	2
100	117	1
66	70	1
83	106	1
76	81	1
119	147	1
78	81	1
124	130	1
6	23	1
115	119	1
19	33	1
128	146	1
93	102	1
83	102	1
17	21	1
132	136	3
89	90	1
47	53	1
94	97	1
111	144	1
64	106	1
21	33	1
12	152	1
67	76	1
81	85	1
97	98	1
34	63	1
114	117	1
22	149	1
82	102	1
82	95	1
125	146	1
44	102	1
4	7	1
91	113	1
108	125	1
40	109	1
113	134	1
75	76	1
87	139	1
135	148	1
118	141	1
125	133	1
7	9	1
61	62	1
39	44	1
31	43	2
13	22	1
79	85	1
95	118	1
92	93	1
3	6	1
84	109	1
31	34	1
86	115	1
14	20	1
8	21	1
40	74	1
21	37	1
10	13	1
5	17	1
41	57	1
130	132	1
82	93	1
53	80	1
4	20	1
121	145	1
22	81	1
52	80	1
99	102	1
137	142	1
127	140	1
41	44	1
91	92	1
39	80	1
140	142	1
69	71	1
34	41	1
102	111	1
