188	188	6
0	0	12
52	52	2
87	90	7
56	56	10
186	186	13
122	122	7
175	175	2
123	127	5
66	66	14
131	143	2
155	155	4
183	184	2
118	118	2
87	87	7
138	139	3
72	72	14
183	183	1
168	179	1
165	167	4
132	132	6
101	101	15
40	102	1
56	87	2
32	32	12
57	57	7
134	134	7
179	181	2
13	13	14
144	144	3
185	185	7
7	8	3
160	162	3
170	170	8
79	79	6
12	12	2
132	133	4
116	116	5
173	173	3
150	150	4
66	68	1
162	168	3
65	65	8
95	95	3
56	57	4
6	6	8
141	141	8
147	147	4
26	26	4
77	77	3
138	138	8
2	2	3
63	65	2
153	154	3
168	168	10
100	100	8
154	154	7
20	21	6
151	153	1
55	60	1
124	125	8
31	33	5
36	37	2
17	17	13
159	160	3
39	39	8
3	3	3
83	85	2
0	2	2
107	108	5
8	10	1
160	160	5
83	84	14
114	121	3
125	131	1
86	89	1
129	130	5
15	15	13
136	153	4
33	33	2
27	27	3
153	153	2
30	31	4
64	64	1
48	49	3
177	177	4
129	133	1
7	9	2
172	172	8
156	156	7
145	145	5
13	17	2
171	172	5
163	163	12
4	5	3
96	104	3
104	104	3
61	65	4
82	82	9
29	29	7
71	72	1
165	165	8
92	92	5
189	189	4
157	158	6
108	108	6
103	104	5
181	183	1
68	68	4
112	112	6
174	174	5
162	163	3
18	20	3
38	38	5
61	62	4
152	153	6
17	25	4
55	55	2
171	173	2
94	94	5
144	150	3
126	127	3
20	20	4
171	171	7
152	152	5
166	168	1
22	23	10
96	97	2
54	54	2
155	157	2
124	126	3
13	14	1
45	45	8
77	78	3
42	42	4
29	31	5
39	140	3
105	105	4
110	113	2
17	18	1
130	131	1
104	105	2
20	40	1
179	180	3
4	7	3
101	102	5
168	174	3
10	10	3
85	85	8
147	150	8
139	140	5
43	44	3
182	182	2
182	184	3
76	76	6
84	84	9
45	46	1
1	3	1
5	10	1
23	64	1
78	79	11
120	136	1
164	164	1
46	46	8
120	120	4
83	83	9
44	47	2
121	121	1
75	75	6
176	187	2
132	139	1
123	123	5
174	175	3
97	98	1
68	69	2
24	24	8
162	162	2
70	72	2
108	111	1
78	78	8
19	19	11
160	161	1
87	88	2
55	56	2
131	132	7
180	182	4
120	121	3
140	140	2
151	151	4
59	62	2
89	89	1
176	176	5
180	180	5
71	73	4
53	53	2
43	43	2
12	13	4
62	65	2
148	177	2
40	42	1
47	47	8
18	31	2
164	175	2
1	1	3
128	128	3
5	5	6
76	103	2
157	162	2
20	60	6
126	126	5
166	171	2
166	166	3
29	148	3
133	134	3
184	184	3
34	34	1
149	151	3
4	4	3
149	150	2
115	115	5
134	138	2
137	138	1
28	74	3
9	13	2
119	120	1
169	177	2
9	10	3
1	184	2
29	33	2
103	103	5
58	58	2
64	66	1
187	190	2
24	29	4
90	101	3
113	115	1
6	43	1
62	62	2
131	131	3
32	36	2
183	187	1
73	73	6
114	144	4
114	114	9
25	78	3
36	36	6
146	146	8
57	59	1
90	103	3
26	27	4
130	130	8
163	168	1
176	182	1
112	116	1
94	98	3
54	59	5
164	165	1
117	118	2
37	37	4
154	156	3
4	56	2
88	89	2
125	125	1
90	92	1
63	67	2
25	25	4
28	28	1
137	139	2
116	122	2
48	48	4
64	65	5
36	84	1
180	183	1
143	147	3
87	91	1
61	61	4
129	129	2
156	157	1
35	36	1
88	88	3
91	100	1
157	161	3
26	36	1
53	55	2
126	128	3
25	36	1
94	96	2
70	71	4
162	174	2
93	97	2
134	137	1
136	138	2
82	84	3
166	170	1
23	23	6
79	81	1
18	18	1
189	190	3
63	63	1
116	117	1
40	40	4
145	148	3
78	80	6
0	1	1
59	59	1
113	113	3
21	21	1
124	124	2
18	21	4
74	74	2
149	149	5
5	93	3
30	139	2
150	151	1
10	12	2
29	139	3
16	20	1
156	180	2
188	189	2
2	11	2
99	108	2
10	13	2
165	183	1
60	60	4
146	182	2
8	60	3
131	133	2
42	96	2
11	15	2
144	147	4
67	68	2
169	169	2
33	34	1
30	30	1
187	187	2
190	190	1
106	110	2
108	109	3
91	98	3
27	65	2
115	116	1
57	61	2
127	127	2
114	116	3
19	20	1
57	58	1
110	110	2
74	77	1
166	167	4
187	188	1
7	10	1
15	16	1
98	98	1
82	83	1
44	53	2
81	81	1
137	140	1
166	173	2
66	72	1
99	99	1
170	171	1
22	22	1
39	47	1
128	137	1
154	178	1
112	113	2
91	93	1
119	119	2
54	58	1
25	26	3
113	119	1
128	131	2
113	114	1
148	148	2
90	90	1
100	101	1
11	11	1
42	44	1
80	80	5
41	41	2
54	55	2
78	81	2
37	39	3
127	128	3
43	45	1
19	21	2
119	122	2
155	156	1
142	143	3
97	97	4
5	11	1
136	136	3
145	147	1
133	133	1
73	74	2
100	102	2
134	135	1
16	16	1
139	145	1
79	80	2
80	81	2
41	47	2
5	56	1
95	96	1
100	104	1
28	147	2
177	178	6
110	114	1
140	141	3
133	144	1
178	179	1
52	56	3
66	67	1
53	58	1
11	17	3
89	91	1
68	70	1
59	61	1
33	136	1
176	179	1
48	110	1
8	8	2
39	110	1
133	139	1
41	42	1
137	137	1
111	111	1
14	59	2
120	162	1
146	181	1
102	115	2
12	14	1
152	158	1
136	158	1
109	111	2
98	100	1
135	136	1
29	147	1
167	173	1
169	170	1
35	35	1
116	132	1
117	119	1
54	136	1
157	157	1
89	123	1
45	48	1
6	48	2
101	108	1
93	94	1
181	185	1
70	70	1
26	30	1
31	32	1
