81	95	4
131	133	3
68	71	4
76	77	3
66	69	1
126	132	1
97	99	1
70	74	2
72	87	1
95	95	8
77	78	8
116	116	1
112	112	3
71	83	3
53	81	3
94	94	8
75	75	1
55	62	2
43	44	2
61	63	2
101	101	10
63	70	5
17	17	4
26	83	3
2	20	1
65	74	3
90	96	6
77	77	7
132	133	5
106	106	8
23	25	1
21	36	3
50	66	3
9	13	2
64	64	2
80	90	2
77	82	2
102	102	11
112	114	6
91	126	4
74	110	2
28	29	3
78	101	5
36	37	2
61	125	2
132	132	3
89	96	4
69	74	1
100	126	1
133	134	4
100	103	3
4	5	4
69	72	1
16	22	1
0	0	2
65	71	2
6	8	3
110	129	2
21	22	7
19	53	2
69	87	2
18	18	6
74	74	4
75	94	1
79	89	2
71	71	4
67	74	3
118	119	5
7	7	1
24	33	1
14	22	2
130	131	4
6	7	2
134	134	4
67	73	1
59	60	6
78	78	7
115	115	3
58	59	2
5	6	5
55	77	2
27	32	3
62	62	2
7	22	5
1	8	2
118	118	5
121	129	5
77	79	6
117	117	12
11	11	5
5	5	3
72	72	9
20	21	5
125	134	2
1	2	4
55	56	5
0	1	1
96	97	2
130	132	2
7	8	3
68	68	9
104	115	3
54	55	3
96	101	3
16	16	4
107	115	2
99	99	3
96	96	7
58	73	6
6	6	2
121	123	4
30	33	1
73	73	5
10	13	3
125	126	1
51	51	2
18	22	4
107	107	6
80	100	4
30	30	2
115	117	1
114	120	2
53	71	2
35	35	4
46	62	1
17	34	2
73	80	1
79	80	3
52	55	4
15	18	3
109	111	1
32	32	3
52	54	4
18	37	2
61	90	1
25	26	4
90	91	3
60	82	3
59	66	5
120	123	3
0	111	2
99	102	4
60	62	7
92	127	1
122	124	2
38	39	4
37	38	2
80	80	3
22	31	1
113	113	4
15	16	3
68	69	1
84	105	1
26	34	2
119	125	3
26	26	8
70	71	1
105	105	12
114	133	2
97	98	3
63	65	4
24	129	1
56	57	5
75	79	3
123	124	7
97	97	3
106	108	3
77	85	2
95	112	1
55	58	3
87	93	1
108	108	2
118	121	1
47	63	2
69	69	2
1	9	2
13	36	1
31	85	2
81	98	1
114	114	2
1	7	1
114	122	4
112	115	4
73	74	2
88	108	2
70	70	1
96	105	1
3	23	3
82	82	4
13	13	9
33	33	6
72	73	1
45	56	2
12	16	2
4	11	2
50	53	3
79	79	5
129	130	9
120	120	1
87	109	2
111	124	2
121	128	1
30	132	3
71	72	1
97	101	3
23	30	4
83	87	2
38	38	5
4	4	2
25	33	2
86	91	1
63	67	2
104	106	3
60	61	1
4	7	9
9	33	2
109	110	5
122	125	2
34	35	2
55	57	6
95	103	3
100	100	3
67	69	3
107	120	2
36	36	6
53	53	1
21	21	5
54	54	1
36	38	2
7	24	1
57	61	1
31	32	3
52	53	4
10	10	1
92	92	2
20	26	2
60	66	2
0	2	1
63	74	3
26	27	1
70	85	1
104	130	2
47	66	2
2	12	1
27	31	1
83	91	1
102	107	1
100	102	1
80	98	3
109	112	1
49	50	3
28	34	2
113	116	1
53	54	3
30	85	2
67	72	1
93	114	2
101	105	2
3	3	4
106	107	3
102	129	3
10	28	2
92	129	1
8	20	1
9	9	1
21	31	1
70	82	1
92	93	2
16	18	1
94	95	2
49	52	1
72	75	1
29	29	4
14	37	1
17	37	4
29	30	1
66	77	2
63	84	2
11	14	1
87	87	4
88	90	4
8	25	1
24	25	2
117	118	2
4	6	1
80	99	2
62	67	5
121	121	3
1	28	3
27	68	3
84	84	3
2	112	2
47	50	1
122	122	2
131	131	1
104	131	3
66	71	1
1	31	1
8	29	2
100	104	1
127	131	1
49	49	1
72	78	1
2	23	3
85	87	2
106	133	2
43	43	2
24	26	3
83	88	2
104	127	2
106	110	2
104	129	2
63	64	1
113	123	3
9	16	2
66	73	1
57	99	2
93	107	2
124	124	4
9	11	3
80	106	2
74	75	2
100	109	2
6	22	1
91	91	1
2	26	1
35	36	1
90	95	3
53	63	2
106	125	1
98	98	1
124	127	1
46	60	1
60	65	1
102	131	2
61	62	2
22	28	2
21	24	1
15	15	1
103	103	1
13	19	1
81	101	1
90	92	4
7	23	1
23	24	3
128	129	1
97	122	4
78	80	1
55	61	1
7	134	2
2	25	3
74	77	3
1	3	2
10	14	2
65	77	1
108	131	1
103	108	2
81	90	3
83	85	1
88	88	7
12	34	1
27	109	2
43	101	3
61	65	3
53	68	1
84	87	1
91	102	1
49	58	2
109	118	3
109	109	2
80	81	3
11	13	1
68	82	3
81	81	3
86	86	3
55	104	1
123	128	2
22	33	1
71	78	2
54	60	2
62	77	4
0	13	1
10	16	2
31	31	4
14	14	1
72	77	2
74	96	1
56	81	1
65	66	1
87	105	2
72	92	1
11	12	1
24	24	1
14	16	1
104	107	1
63	63	2
93	93	2
1	6	1
57	57	1
28	30	1
68	74	1
10	12	1
2	8	1
55	87	1
10	11	1
5	7	1
50	54	4
76	76	2
126	126	1
23	37	1
67	67	1
93	127	1
72	82	1
60	60	1
58	71	1
71	88	1
130	130	1
111	112	1
54	72	1
17	22	1
107	119	1
133	133	1
103	113	2
19	31	1
107	108	1
102	127	1
92	104	1
67	87	1
59	71	1
104	105	1
59	62	1
68	70	1
34	37	1
45	45	1
123	125	2
64	83	2
103	121	1
4	10	1
4	33	2
96	110	1
119	119	1
65	65	1
1	134	1
2	11	1
95	97	1
75	76	1
72	80	1
25	25	1
95	98	1
25	28	1
89	89	1
44	45	2
82	85	1
8	8	1
54	58	1
111	113	1
66	70	1
56	56	1
72	85	1
52	52	1
103	106	1
44	44	1
21	28	1
