9	9	2
129	129	4
4	34	3
35	36	1
22	22	2
37	37	8
50	88	3
132	132	1
138	138	8
105	118	3
36	36	4
137	137	4
139	141	1
73	73	8
50	80	1
72	82	2
79	80	1
112	112	6
113	114	1
144	144	1
106	106	3
61	61	10
129	132	2
5	8	6
6	13	1
25	25	4
27	27	5
98	99	2
106	107	3
126	126	6
4	5	1
136	136	5
20	21	6
10	10	9
135	135	5
110	110	4
33	33	5
61	62	1
57	57	3
56	56	6
121	123	3
133	139	1
131	134	2
98	98	4
89	141	2
25	27	1
54	55	4
89	137	1
145	146	1
79	81	2
24	24	1
95	95	4
62	62	2
56	97	1
25	28	2
142	142	12
68	69	4
85	85	3
39	41	1
113	116	2
117	117	1
72	96	1
86	103	2
30	30	5
41	41	2
113	113	2
109	109	3
42	42	2
16	16	9
5	5	2
28	28	6
18	18	1
66	68	1
122	122	4
130	130	3
107	108	2
14	14	6
64	64	3
84	84	2
75	75	2
92	93	6
58	59	2
49	52	2
104	104	3
15	31	2
19	24	2
134	134	3
53	104	3
132	133	1
23	23	4
48	48	9
49	49	2
70	70	5
133	133	2
112	133	2
111	111	8
120	120	2
125	125	4
95	96	2
127	128	3
135	141	3
133	135	4
141	142	2
65	66	5
75	76	2
96	96	4
60	60	1
140	140	2
38	38	3
6	6	1
86	87	7
13	13	6
78	78	2
27	28	2
91	91	3
60	127	2
85	93	1
18	29	1
19	47	2
35	35	1
86	86	1
17	17	3
3	10	3
116	124	3
74	74	4
80	80	1
115	115	6
118	118	7
63	63	2
130	132	2
34	36	2
37	38	2
116	116	1
108	109	1
119	119	1
102	102	1
135	137	1
26	26	1
107	110	1
124	131	1
89	130	2
0	0	2
65	65	3
53	53	1
58	58	1
36	42	2
49	50	1
40	40	4
81	81	2
1	47	3
68	68	2
110	111	2
105	106	1
72	72	1
112	138	3
121	121	6
107	107	2
127	127	1
60	69	1
34	34	7
94	107	1
68	96	1
100	100	2
128	130	1
137	138	1
71	71	3
27	31	2
12	12	5
97	97	1
76	76	1
115	116	2
76	77	4
118	120	2
55	55	2
75	105	2
18	39	1
119	136	1
71	81	1
105	110	2
36	43	6
105	105	1
124	124	1
84	87	3
110	114	2
92	136	2
82	82	2
69	94	2
81	82	1
83	89	1
67	83	1
20	20	2
53	75	1
22	23	2
65	70	2
16	17	1
21	21	4
57	58	1
143	144	1
90	90	2
139	139	1
8	8	3
87	89	1
85	94	2
77	78	1
29	29	2
129	130	3
29	39	1
2	3	3
131	131	3
131	132	2
83	98	1
88	88	3
14	16	2
73	104	2
53	96	1
133	140	1
3	3	3
48	121	1
132	138	1
13	35	1
8	9	1
67	67	1
71	82	1
58	82	1
108	108	1
121	122	1
135	136	1
84	105	1
24	33	1
76	79	1
56	57	1
10	28	1
15	15	1
15	16	1
2	8	1
140	141	1
76	80	1
110	116	1
18	24	1
52	52	1
83	96	1
51	51	2
72	74	1
84	97	1
120	135	1
27	32	1
57	61	1
112	137	1
123	125	1
120	144	1
25	29	1
99	99	1
