104	104	10
37	37	8
116	117	7
111	112	2
131	131	9
163	163	3
15	16	3
7	7	6
52	53	6
56	57	2
100	100	5
16	16	9
118	118	2
50	51	1
125	131	3
160	160	3
81	81	3
17	99	2
166	168	3
53	53	11
2	4	3
55	118	3
142	142	8
106	132	3
111	111	3
71	71	11
151	158	3
166	166	2
93	94	3
61	61	9
86	86	4
27	28	3
78	78	2
73	75	6
45	45	5
126	129	3
70	71	4
180	180	2
89	90	2
102	105	9
39	39	6
41	42	4
32	32	10
123	123	13
59	61	1
43	43	11
85	85	4
155	155	1
121	122	4
152	153	2
65	65	13
102	102	3
74	74	9
84	85	4
167	167	10
146	146	8
21	21	2
93	93	6
18	18	12
119	120	2
171	171	1
145	146	3
79	79	1
171	179	5
62	62	11
20	28	5
52	121	1
9	9	4
51	119	4
31	31	3
152	158	1
103	103	5
20	96	2
106	106	6
115	115	8
23	23	14
11	17	1
29	30	4
174	174	8
11	11	5
149	149	4
17	18	5
133	134	4
177	178	2
12	12	3
137	137	3
108	108	4
23	58	3
30	30	6
172	172	6
87	87	4
119	119	5
6	6	6
23	38	3
6	7	4
66	67	1
156	156	7
118	120	2
131	144	5
113	114	4
32	33	9
153	153	3
1	3	3
101	101	4
2	9	1
3	3	5
75	76	1
147	148	1
113	113	3
166	167	1
63	155	2
80	80	1
136	136	7
53	54	3
144	144	3
126	127	4
177	177	4
94	94	4
29	29	5
173	175	2
55	55	4
165	166	6
34	34	6
4	9	3
167	168	2
19	19	8
33	105	6
25	25	6
11	12	4
4	4	5
110	113	3
14	14	4
94	105	2
133	173	1
35	35	4
74	75	3
55	57	1
127	127	7
91	93	2
105	106	2
56	116	2
5	11	4
133	133	2
147	147	4
72	148	1
49	49	2
26	26	4
107	109	1
118	119	2
26	27	2
109	109	4
54	117	1
22	22	3
135	176	1
50	50	8
96	96	3
24	25	2
30	31	2
20	21	2
12	17	4
158	158	1
82	83	5
157	158	1
21	22	3
134	134	3
28	51	2
145	145	2
65	66	1
130	130	5
104	177	1
112	116	3
75	173	1
57	57	4
110	111	3
97	97	3
143	143	4
150	150	3
121	121	4
77	108	2
123	124	2
128	144	2
76	173	5
36	36	7
72	72	2
152	152	3
56	56	2
99	99	2
8	9	1
41	41	4
128	128	1
86	87	3
105	105	3
135	135	3
110	110	3
164	164	7
45	51	2
111	150	1
127	128	1
10	11	2
58	60	1
176	176	3
72	76	1
0	2	1
4	5	3
157	157	8
58	58	4
54	116	3
12	13	3
29	52	3
55	115	2
138	138	3
107	107	5
151	153	2
83	83	5
129	143	1
19	21	6
173	173	5
35	36	2
95	95	4
141	141	4
79	80	3
18	19	3
77	147	2
106	175	1
71	76	3
111	149	2
18	99	3
131	132	3
152	157	1
61	116	1
15	15	2
68	68	2
39	40	1
126	126	2
104	105	1
114	116	3
63	63	4
45	49	1
24	26	2
62	63	3
159	159	4
5	6	5
106	178	3
84	84	5
165	165	4
65	158	1
160	161	1
82	117	2
77	77	2
35	44	1
29	122	5
77	148	2
53	119	1
54	54	1
124	124	1
45	101	1
28	28	6
120	120	1
20	20	3
28	29	1
52	52	3
83	84	3
132	132	3
114	114	2
90	90	2
76	76	4
23	24	1
28	122	2
65	159	1
2	10	2
51	51	2
8	11	2
75	75	2
71	134	4
135	136	4
96	97	1
56	117	3
175	176	3
104	176	1
74	145	3
94	101	2
161	162	6
60	61	3
17	20	1
169	169	1
38	38	6
43	44	1
110	112	3
38	40	2
67	67	3
73	73	2
112	149	2
38	39	2
104	127	3
88	88	2
16	17	1
80	81	1
3	4	1
154	155	3
79	108	1
8	8	1
53	81	1
82	82	3
56	63	4
76	77	1
179	179	1
42	42	1
156	157	1
25	26	3
170	170	1
49	121	3
44	44	1
132	174	2
20	98	1
73	77	1
143	144	3
137	176	1
178	178	3
5	5	1
122	122	1
153	155	1
104	175	2
34	120	1
2	2	1
6	96	1
151	151	2
51	52	1
10	10	1
107	108	1
43	98	1
74	76	1
67	68	1
60	60	3
21	39	2
63	111	2
130	141	1
154	156	2
80	112	1
33	33	1
129	129	1
128	146	1
54	58	1
86	91	1
108	109	1
57	131	1
66	66	3
6	97	1
27	45	1
94	96	1
139	139	2
125	126	2
17	17	1
135	137	1
9	12	1
7	8	1
81	108	1
163	164	1
22	23	1
92	92	1
53	107	1
33	45	1
125	127	1
90	92	1
115	116	1
13	15	1
140	140	1
