87	87	8
97	99	5
38	41	1
31	31	7
56	56	10
70	70	8
65	66	4
51	51	9
102	102	2
91	92	1
96	96	10
60	60	15
65	65	12
40	41	3
27	27	13
25	25	10
68	68	6
45	45	14
84	85	1
55	61	1
23	23	8
77	78	5
39	42	3
79	86	3
85	85	8
76	76	4
77	77	9
99	99	2
83	83	7
81	81	15
71	71	12
43	61	3
34	34	10
103	103	8
45	50	4
55	56	2
67	67	6
84	84	19
107	107	3
61	61	8
49	49	7
78	78	6
50	82	2
28	28	5
23	24	1
79	80	3
70	100	6
49	50	2
42	43	1
26	27	2
41	41	6
53	53	4
50	50	6
90	90	11
82	85	4
88	88	6
82	82	10
94	94	7
34	67	2
46	46	11
90	91	3
35	35	7
75	75	6
53	79	2
72	72	10
104	104	7
98	98	9
83	84	2
79	81	2
37	59	3
48	50	2
21	21	7
68	69	8
92	92	14
80	80	6
76	104	1
93	93	18
74	74	10
95	95	6
22	22	4
100	100	3
67	68	3
79	97	5
97	97	3
95	96	3
64	64	6
66	66	5
93	94	1
47	47	8
21	22	1
60	61	2
61	64	2
63	63	5
24	29	4
82	83	4
58	58	4
39	40	3
67	94	1
59	59	4
53	67	1
33	35	3
106	106	8
69	69	6
32	32	7
52	54	2
20	20	3
105	105	2
31	32	5
62	62	12
34	68	1
66	94	3
86	86	5
40	43	1
33	33	8
44	44	5
73	73	11
97	98	3
29	29	6
53	55	2
43	43	5
49	81	2
24	24	4
100	101	1
61	62	3
30	30	6
49	54	1
101	104	1
63	64	7
78	86	4
40	40	5
79	79	4
57	58	3
22	24	2
54	55	1
33	34	3
45	46	1
86	87	5
104	105	3
75	91	1
53	64	1
48	48	4
72	73	3
38	38	2
25	37	3
33	51	1
31	37	1
52	52	3
74	76	2
89	89	4
92	93	7
91	105	1
66	67	5
102	103	1
31	40	2
81	85	1
74	75	3
95	103	3
28	41	2
75	76	2
26	26	3
36	36	4
39	39	7
25	59	3
57	57	3
20	22	2
29	30	1
81	98	2
55	55	3
32	50	4
52	80	1
79	85	2
25	26	1
50	51	2
72	84	1
78	99	1
41	42	2
53	54	2
44	45	1
51	65	1
37	38	1
84	106	1
54	54	4
48	49	2
84	107	2
22	23	1
35	36	1
53	80	1
69	101	3
22	25	2
93	95	1
78	97	2
91	91	1
45	85	1
78	100	1
46	48	1
94	95	1
55	64	1
101	101	1
