5	8	2
237	238	4
153	153	3
118	120	3
126	126	4
186	187	4
56	56	8
216	216	8
78	78	9
144	192	1
71	82	1
200	201	2
70	73	1
29	35	1
163	163	10
195	196	4
29	135	1
66	66	5
130	130	2
168	168	4
208	208	3
47	127	2
29	46	3
6	6	3
160	160	4
175	175	4
180	201	5
174	175	3
13	13	3
200	200	5
159	160	6
207	207	5
223	223	2
39	39	3
31	33	3
172	180	2
4	5	1
136	144	1
233	234	1
174	174	6
114	115	1
45	45	4
203	204	2
2	3	6
190	190	4
135	135	3
161	161	2
235	235	2
151	151	12
115	115	5
105	107	3
214	214	6
188	188	9
70	71	2
81	82	6
27	27	2
71	72	3
185	185	17
106	107	6
51	51	3
25	43	1
30	33	1
74	85	1
65	65	4
101	101	8
72	73	4
162	211	3
222	222	4
119	139	1
28	28	3
69	69	3
205	228	4
10	230	1
56	57	5
138	138	2
131	139	2
213	213	4
4	34	3
57	58	2
148	151	5
148	148	2
29	29	5
48	70	6
16	20	1
118	119	1
125	125	11
7	7	5
117	117	6
172	218	3
115	117	4
224	224	7
147	148	3
177	178	1
198	199	6
1	1	3
177	177	6
113	118	3
222	237	2
124	124	5
227	228	2
228	228	11
35	35	11
20	20	6
226	231	2
105	105	8
227	227	4
102	102	5
186	190	1
58	99	2
146	197	3
214	222	2
122	122	5
192	192	6
165	166	6
81	81	3
224	225	1
174	207	4
234	234	5
86	100	3
3	12	2
41	42	1
22	22	5
233	233	3
62	62	3
16	16	5
77	86	1
38	38	5
194	195	9
184	217	1
219	219	7
147	147	1
160	184	1
176	178	4
172	205	4
179	179	10
11	11	8
10	53	3
236	236	12
60	61	1
40	40	5
77	77	2
127	127	3
221	221	7
121	121	5
185	199	3
6	199	4
24	41	4
239	239	3
83	83	6
206	236	4
47	47	3
85	85	5
123	123	8
119	119	2
156	156	1
193	194	3
191	191	3
136	137	3
176	176	6
151	169	1
141	141	1
173	174	4
59	59	7
179	181	2
20	231	3
63	63	6
108	108	1
67	67	8
195	195	6
81	83	5
116	116	1
140	141	2
225	225	3
2	2	4
199	200	7
25	25	3
170	171	2
211	211	10
31	31	1
217	217	7
107	107	7
33	49	3
198	198	6
183	183	3
149	149	5
70	70	2
56	58	2
75	91	1
34	34	7
165	165	3
121	152	5
14	15	1
24	37	3
209	211	2
149	180	1
2	24	1
133	134	4
0	234	2
18	18	3
229	229	3
23	23	4
73	101	3
218	219	6
148	180	1
152	158	2
184	184	2
114	114	5
43	73	1
43	128	3
117	118	2
3	41	1
180	180	5
209	235	1
159	208	1
68	68	4
43	43	6
110	128	1
157	157	5
139	140	2
76	76	9
48	50	2
142	142	8
30	30	3
50	52	4
47	128	1
34	52	1
164	165	2
86	102	2
146	146	5
55	55	4
9	9	1
171	171	4
95	105	1
238	238	6
80	130	3
111	113	1
19	19	5
144	194	1
234	236	2
73	84	2
220	220	3
197	197	1
150	150	4
196	197	2
210	221	2
0	0	3
12	12	14
56	60	2
24	24	2
172	173	2
50	51	2
71	102	1
121	123	2
209	210	2
129	129	2
113	113	5
91	103	4
100	100	2
203	203	2
67	68	5
241	241	2
66	68	6
214	215	2
232	242	1
109	118	1
61	65	3
144	179	2
178	198	2
134	134	3
89	99	1
26	26	6
119	120	5
74	84	1
33	33	3
143	145	1
133	135	3
147	179	4
169	169	4
49	49	6
220	222	4
128	128	2
108	142	3
11	190	1
170	170	3
152	217	1
4	4	3
84	84	7
37	37	1
77	79	1
46	169	1
220	224	4
191	192	2
77	84	1
101	103	2
172	172	4
46	47	3
140	140	6
197	198	2
120	120	6
159	210	1
133	133	4
178	178	2
74	83	1
54	55	4
153	157	2
24	42	1
7	163	2
230	230	5
181	181	3
106	106	1
159	159	3
53	53	4
127	138	1
108	109	3
218	218	5
104	104	2
97	97	7
3	3	5
57	57	3
98	98	3
72	72	8
64	64	4
227	238	2
29	50	1
60	60	1
152	173	1
206	206	2
40	77	1
121	134	1
90	104	1
167	169	1
144	149	3
80	80	3
206	238	2
25	26	2
30	46	2
213	226	1
96	96	1
103	139	1
158	211	1
48	48	1
101	138	2
186	186	9
80	82	2
196	198	4
139	139	3
145	145	2
228	230	1
208	210	1
7	34	1
156	168	1
158	158	1
28	202	4
160	162	1
210	214	1
10	10	4
66	67	2
155	155	3
221	224	3
177	205	1
189	190	2
15	15	3
139	192	1
26	48	1
42	60	1
183	208	1
150	151	2
221	223	2
79	79	3
232	237	1
10	11	2
5	5	3
21	34	1
178	179	3
219	220	3
226	226	3
113	115	1
125	142	2
64	68	1
73	74	1
234	238	2
212	213	3
61	62	1
13	199	1
234	235	3
175	177	1
202	202	2
58	59	5
112	112	2
159	218	1
0	3	3
175	179	1
156	167	4
154	154	1
2	21	3
0	32	1
186	193	1
169	171	1
203	209	3
139	166	1
3	42	1
97	105	1
86	86	1
6	12	2
182	184	1
82	82	2
115	116	3
136	136	1
173	173	5
240	241	3
26	27	1
31	41	1
73	73	3
162	168	2
220	221	2
76	80	1
189	189	3
190	212	1
237	237	2
137	137	2
14	14	3
21	21	1
127	128	2
3	11	1
10	39	2
18	19	1
124	133	1
103	103	4
79	80	1
51	52	2
44	45	1
137	138	1
6	13	2
155	156	1
143	143	2
7	229	1
142	143	1
162	213	1
71	118	2
42	42	1
182	182	4
162	162	4
23	24	1
147	182	1
21	24	1
201	202	1
37	38	3
83	84	1
201	201	5
22	33	1
32	37	3
10	27	1
60	64	1
75	75	6
154	155	2
240	240	1
156	183	1
42	101	2
153	180	2
1	36	2
166	169	2
2	42	1
4	12	1
215	224	1
5	181	1
205	206	1
78	89	3
183	200	2
59	121	1
3	23	1
153	165	1
62	64	1
135	136	1
207	208	1
14	19	1
25	78	1
205	205	2
131	131	1
221	222	1
65	86	1
215	216	1
99	99	2
168	186	1
32	32	1
171	203	1
242	242	1
153	176	2
161	191	2
33	55	1
3	234	3
8	8	1
36	36	2
49	69	1
142	153	2
25	234	1
98	121	2
213	216	2
204	204	2
194	194	1
183	199	1
55	121	1
21	31	1
73	82	1
217	219	2
71	71	1
176	177	1
83	100	1
60	100	2
129	131	1
2	44	2
69	88	1
151	228	1
57	63	1
84	85	1
172	203	1
81	130	1
13	15	1
44	44	1
185	186	1
133	136	1
0	5	1
80	129	1
118	128	1
52	53	2
155	165	1
188	189	1
106	206	1
29	30	1
125	126	1
103	130	1
212	212	2
108	130	1
9	180	1
