108	108	8
141	149	2
148	148	11
185	185	8
106	106	21
174	174	17
172	174	1
175	180	3
68	68	7
83	83	3
87	181	3
173	173	5
21	21	1
85	85	10
99	114	5
38	39	3
36	36	5
177	177	8
42	42	21
19	25	5
44	44	5
178	178	8
103	104	6
172	172	4
88	88	14
28	29	6
123	124	4
119	120	4
76	125	3
131	131	1
107	108	5
158	158	18
62	63	3
117	120	1
69	71	1
84	84	8
128	128	15
171	174	1
140	140	14
139	140	2
156	157	8
181	181	14
132	132	1
40	40	5
160	160	13
57	57	6
10	12	1
120	120	13
183	183	10
95	95	9
155	157	1
14	15	10
16	16	10
89	89	5
169	169	24
80	80	8
173	174	9
160	174	2
167	171	7
129	129	5
29	30	4
142	142	11
139	139	10
47	48	2
86	86	5
89	90	8
118	119	4
91	91	6
91	110	3
58	58	4
122	122	12
68	132	4
7	8	6
151	151	9
125	129	2
74	74	4
104	104	10
168	168	17
18	25	1
20	20	13
100	100	4
179	182	1
115	115	10
75	75	10
113	113	8
33	33	6
5	5	4
117	118	3
130	134	4
11	11	6
149	150	7
114	114	7
166	167	3
176	177	4
41	41	13
190	190	5
157	157	11
119	119	8
65	67	2
56	56	9
111	111	3
98	113	3
98	98	2
43	43	7
76	76	4
64	64	5
182	182	15
97	97	3
10	14	1
2	37	1
30	30	11
22	23	4
55	56	5
71	71	5
154	154	7
4	8	1
1	1	9
6	10	5
166	185	2
59	64	1
110	110	12
52	54	3
123	150	1
163	164	6
171	171	11
179	180	9
114	120	3
116	117	5
184	184	11
109	109	14
101	101	5
154	159	3
39	39	6
90	173	3
89	94	2
166	166	2
144	177	5
26	26	8
147	163	5
79	83	2
18	18	7
89	182	5
4	4	6
22	22	5
72	72	10
124	125	1
127	128	1
55	55	3
76	129	2
48	89	2
36	43	2
36	37	3
166	170	2
184	185	2
93	94	3
176	176	3
163	163	5
13	13	3
2	3	4
95	109	2
144	144	3
107	107	4
145	145	8
77	77	6
84	85	2
137	138	2
138	150	1
59	60	2
10	10	6
153	153	9
54	54	15
130	130	13
141	141	13
34	34	5
20	21	1
118	118	6
170	170	3
85	108	2
180	180	13
162	168	2
18	31	1
66	66	9
111	112	5
31	33	3
94	95	1
29	29	1
150	150	5
18	19	8
183	184	5
105	105	7
8	8	5
87	87	11
25	25	6
3	3	10
1	2	3
127	127	5
170	171	2
64	65	2
132	133	1
167	168	4
73	73	6
155	155	8
99	100	2
62	62	4
78	83	3
60	60	6
5	37	1
22	24	3
48	48	8
121	121	5
143	143	8
94	94	8
70	70	8
48	55	1
114	115	1
145	148	1
17	17	9
159	176	5
120	122	4
92	115	1
179	179	6
186	186	11
133	133	6
27	27	2
175	175	13
97	184	2
147	148	3
28	28	3
65	66	3
61	61	5
37	42	3
32	34	3
115	116	2
161	161	5
27	38	4
121	123	6
35	35	5
83	110	1
32	32	4
77	170	1
6	6	7
167	167	1
78	78	4
134	134	5
124	124	14
66	81	1
96	96	4
81	81	3
149	149	4
18	30	6
130	131	2
30	32	1
96	110	2
41	43	3
165	166	1
167	169	4
54	141	2
159	159	6
178	179	3
79	79	5
23	23	5
23	24	3
0	1	5
41	42	1
123	123	6
187	187	7
181	182	4
82	82	3
17	33	1
188	188	2
144	150	1
63	63	2
76	80	1
6	8	1
121	156	1
68	133	4
7	7	4
138	138	15
93	103	2
99	157	2
105	106	2
107	111	2
95	96	4
19	53	1
116	149	3
129	149	2
25	53	2
103	157	4
16	17	3
2	2	4
53	53	4
164	167	1
130	150	1
41	78	1
164	164	13
87	88	1
46	46	3
89	184	5
63	64	3
44	46	5
188	190	3
32	33	2
48	49	1
39	113	3
74	123	2
90	90	5
125	125	3
124	148	4
52	52	1
169	170	2
84	182	1
181	184	1
73	74	1
137	137	2
5	36	1
177	178	8
129	140	2
107	110	3
126	126	4
153	154	2
159	160	3
38	38	4
19	20	2
5	6	1
85	86	1
69	70	1
92	110	4
35	87	1
112	112	4
152	153	2
176	181	2
111	153	1
91	106	1
30	42	1
19	19	3
102	102	4
164	165	1
170	186	1
71	72	5
97	99	3
30	44	3
54	57	1
67	132	3
37	37	4
77	78	1
75	124	2
15	106	1
148	149	1
99	99	4
9	36	4
108	109	4
96	100	1
155	156	2
113	114	2
54	126	1
151	152	1
159	184	2
159	175	1
138	151	3
111	113	1
26	28	2
72	73	1
91	96	3
146	146	5
160	163	1
90	96	2
141	144	3
0	0	3
58	59	1
65	65	5
136	137	2
31	31	2
108	110	2
152	152	1
24	24	2
160	176	3
15	15	3
77	153	2
161	162	2
58	60	1
60	61	2
182	183	2
179	181	2
103	103	2
45	45	1
165	165	4
106	107	4
12	13	1
99	101	3
147	177	1
34	39	2
54	72	1
188	189	1
39	100	1
62	76	3
31	32	3
87	178	4
102	103	2
76	78	2
57	59	1
92	94	1
117	151	2
96	102	1
12	12	3
150	151	2
20	23	1
34	35	1
162	162	5
39	40	1
32	100	1
88	89	2
56	58	1
56	60	1
93	93	1
29	47	1
156	156	3
144	148	4
15	16	3
99	119	1
16	40	1
178	181	3
127	146	1
96	109	1
100	154	1
171	173	3
15	38	1
87	180	1
114	118	1
10	35	1
85	87	2
106	156	2
90	94	1
180	181	1
31	36	2
109	110	2
13	15	1
59	59	4
67	68	1
20	25	2
77	145	1
78	82	1
135	135	1
47	90	2
17	113	1
29	32	1
159	173	1
44	45	1
43	44	2
87	183	1
187	188	2
176	178	1
67	67	1
114	116	1
176	183	1
117	117	2
122	159	2
18	26	1
80	81	2
45	113	1
88	94	1
70	73	2
27	37	1
159	174	1
74	75	2
157	166	1
65	68	2
56	57	1
125	138	1
17	18	1
12	15	1
101	156	1
146	149	1
84	183	1
1	113	1
88	91	1
38	41	1
175	176	1
115	147	1
78	158	1
29	42	1
26	27	1
