150	152	1
1	1	15
147	151	3
64	64	24
107	107	16
177	177	13
8	19	3
106	106	11
163	163	8
14	14	10
101	101	12
11	11	10
17	18	14
187	187	20
116	116	14
89	89	13
17	17	12
194	195	9
59	59	9
142	142	15
76	174	1
140	140	4
118	118	20
148	150	2
174	174	6
6	6	22
165	165	6
141	142	1
188	188	17
170	171	3
19	19	17
162	162	6
60	60	2
192	193	8
95	95	15
9	9	12
75	75	10
94	94	9
8	8	11
15	50	4
83	83	12
15	15	12
156	156	7
33	35	3
102	102	19
128	128	10
157	157	14
150	151	2
49	49	5
175	178	3
103	105	4
71	78	7
184	184	11
150	150	16
76	78	7
80	104	1
187	188	17
154	154	9
115	162	1
153	154	5
142	143	6
146	149	4
46	46	12
17	71	5
117	118	7
165	167	8
28	28	15
39	40	6
175	175	4
3	3	8
31	31	17
111	111	9
73	73	6
61	61	15
57	57	12
36	36	20
55	56	4
88	88	12
23	23	19
78	146	2
71	71	12
78	78	6
169	169	11
8	9	5
51	51	10
24	41	2
127	128	8
133	134	11
173	174	3
144	149	2
182	183	2
132	132	15
189	189	17
41	41	8
160	192	7
13	13	13
160	161	5
67	69	3
0	9	1
146	146	11
112	180	10
150	155	1
76	76	7
84	85	4
21	21	8
180	181	7
12	12	8
131	132	1
39	39	10
85	85	10
24	24	4
60	63	2
140	141	2
125	125	5
107	108	9
105	109	2
44	45	3
27	27	12
180	180	7
119	119	18
180	182	4
56	72	3
7	8	2
135	137	4
41	133	2
178	194	2
108	108	7
145	145	9
2	2	17
3	8	1
54	54	18
10	10	12
98	98	15
47	47	15
109	109	10
0	153	4
34	41	5
176	179	2
169	170	3
36	40	1
45	46	2
42	139	4
44	58	1
144	167	3
176	178	3
193	193	6
178	178	8
127	127	27
115	116	7
195	195	16
124	124	18
37	62	1
33	34	4
16	16	12
4	77	1
15	23	4
68	69	1
37	37	24
48	48	23
170	170	13
97	97	11
152	152	14
43	43	19
100	100	13
159	159	10
35	35	10
51	52	2
138	139	2
1	2	8
116	117	1
176	177	1
72	72	7
194	194	8
32	32	11
183	183	15
142	193	2
64	65	9
36	41	1
102	103	5
135	135	14
132	139	3
110	111	4
181	191	3
190	190	20
63	63	15
99	99	17
176	176	15
100	175	5
126	126	9
61	130	1
125	155	3
168	168	16
179	179	7
173	173	10
67	67	11
132	140	3
31	195	2
33	33	13
155	155	9
123	123	15
0	26	3
9	10	2
134	136	4
161	161	9
45	47	2
70	70	17
140	185	7
155	156	8
191	191	8
81	81	16
101	157	6
139	195	2
190	191	5
165	166	4
113	113	19
105	105	5
178	179	4
58	123	3
133	133	4
160	160	13
161	170	2
161	162	3
114	115	2
113	114	5
144	148	2
44	44	19
121	121	3
80	80	20
57	58	8
56	71	5
2	44	2
148	148	22
46	126	3
99	100	2
76	189	3
147	188	2
139	139	11
84	84	5
72	129	1
34	34	15
77	77	11
8	17	1
181	181	6
156	172	4
179	180	6
137	139	2
3	4	7
164	165	2
16	64	4
171	171	9
12	13	5
160	164	1
103	103	7
126	127	6
46	48	1
67	144	1
25	25	14
107	134	3
1	12	1
21	22	5
89	132	1
171	178	1
117	117	12
93	94	6
158	193	1
87	87	10
149	150	2
187	189	2
29	29	1
110	110	8
88	89	3
156	159	2
67	68	9
172	172	9
58	58	7
34	36	4
22	22	9
62	62	2
146	147	7
119	120	13
45	128	7
96	97	6
185	186	5
182	182	7
38	38	7
96	100	2
95	115	6
149	149	15
6	25	1
162	173	2
55	55	12
112	112	7
78	81	1
81	84	7
11	14	2
32	41	2
88	144	2
101	174	1
145	146	5
94	100	2
163	164	4
107	159	2
141	145	4
147	148	11
0	2	1
192	192	6
102	109	4
143	144	6
53	53	9
158	158	6
112	114	2
52	53	4
49	50	5
69	70	3
93	95	1
191	192	2
40	42	3
163	173	3
147	147	5
5	7	5
54	57	1
138	138	11
97	98	3
173	175	3
68	68	10
4	5	2
56	56	6
136	136	6
5	5	13
103	106	3
71	73	1
98	137	6
22	24	2
66	149	2
144	145	10
84	86	3
65	65	5
98	99	3
141	141	13
114	114	4
193	194	7
31	32	3
147	149	1
28	29	2
104	105	3
64	74	1
71	72	6
130	130	8
114	116	4
62	64	4
73	77	2
136	139	2
2	3	1
26	26	6
41	42	1
135	138	1
2	4	1
70	71	4
86	86	3
134	134	16
30	30	5
152	154	1
89	155	1
171	172	8
42	42	9
108	109	6
143	143	8
102	121	5
60	61	5
168	172	2
115	115	9
158	159	3
188	189	5
42	43	3
10	17	3
36	37	4
15	37	2
2	35	4
133	135	9
189	190	8
100	112	2
177	178	2
50	50	10
116	173	1
105	133	2
76	188	1
195	196	5
146	148	5
166	166	8
9	17	2
6	77	1
6	8	1
104	104	16
159	160	6
94	96	3
26	27	1
53	140	1
183	184	4
24	26	3
197	197	5
69	69	6
148	149	4
180	192	1
109	176	2
102	193	2
100	111	1
94	114	2
156	166	2
30	32	3
41	43	3
82	82	2
125	126	4
156	190	1
11	15	2
170	173	2
45	45	5
141	196	1
120	121	5
0	0	10
52	52	5
98	136	2
75	77	2
66	67	6
108	186	2
96	157	2
76	77	2
77	78	5
50	134	2
179	183	1
73	74	3
129	131	4
42	140	1
59	131	1
113	119	2
60	62	4
144	144	3
101	102	6
79	81	1
136	142	2
93	136	2
181	182	3
175	179	3
185	185	8
59	61	1
122	123	4
88	90	2
175	177	3
107	140	2
136	138	1
154	155	3
5	6	4
113	118	3
54	55	5
111	112	2
109	110	4
161	171	7
2	81	2
42	44	2
124	125	3
54	59	3
196	196	4
89	90	6
47	108	3
7	7	6
105	106	2
0	34	2
22	34	4
63	66	1
151	151	5
77	79	2
20	20	7
59	60	1
162	163	5
43	65	1
54	56	2
96	99	1
22	23	1
61	62	3
80	81	3
103	147	1
66	66	2
137	137	3
132	133	1
102	171	2
77	194	4
186	186	7
69	82	2
72	131	2
3	5	4
159	161	3
60	130	1
99	157	2
74	74	8
38	67	1
34	35	1
87	88	4
10	16	2
15	65	2
70	77	1
196	197	3
9	14	2
86	144	2
109	160	1
38	68	2
76	186	2
168	169	2
37	68	3
38	39	1
163	190	1
183	191	1
8	14	4
131	131	5
154	156	2
23	33	3
97	99	3
100	157	1
120	122	2
21	23	1
151	152	4
18	18	2
71	75	2
150	154	3
27	60	1
120	120	5
21	28	2
78	79	1
118	119	1
55	141	2
19	20	5
51	134	2
40	40	2
4	4	5
130	197	4
137	138	3
13	14	1
43	132	1
81	82	3
4	6	4
174	176	2
30	31	3
15	129	1
26	41	3
102	104	2
157	166	1
177	195	3
66	70	2
161	163	4
30	77	2
34	40	1
17	33	1
106	108	3
79	80	3
37	65	1
40	41	4
179	181	1
157	162	2
73	75	1
27	31	2
19	34	2
52	132	2
43	44	3
136	137	3
106	107	1
148	188	1
10	14	2
14	27	1
160	190	3
17	19	2
36	150	1
36	151	2
77	80	1
107	133	1
57	71	1
109	143	1
15	16	2
132	136	1
78	139	1
61	131	1
25	26	2
56	57	1
108	185	3
167	168	1
178	180	1
42	53	1
160	193	1
152	153	4
153	153	3
97	134	1
3	27	1
122	160	1
129	129	5
33	39	1
134	139	2
1	10	2
44	46	1
25	27	1
160	163	2
96	133	2
171	184	4
108	144	1
84	149	2
133	138	1
114	160	1
3	25	2
29	30	2
159	192	1
188	190	1
9	70	1
85	90	1
32	97	1
115	121	1
88	106	3
161	164	2
157	158	4
133	157	1
121	122	2
107	109	1
7	15	1
188	191	1
143	145	3
150	166	2
184	185	2
56	78	1
48	51	1
122	177	2
66	72	3
109	168	1
135	136	3
186	187	1
9	11	1
149	195	2
140	142	1
136	143	1
64	66	1
99	113	2
85	86	4
114	171	3
2	190	2
108	157	1
83	87	2
69	145	1
39	67	2
46	128	1
22	25	1
18	20	1
170	172	1
20	21	2
122	122	2
21	31	1
96	96	2
16	23	1
54	142	2
130	131	2
86	88	1
107	160	1
76	181	1
39	41	1
37	39	1
2	83	1
73	131	2
27	28	1
103	104	2
119	124	1
40	131	1
79	79	2
23	24	2
104	162	1
160	169	1
93	96	1
26	34	1
77	149	1
114	145	1
164	167	1
76	82	1
77	188	1
108	158	1
86	122	1
1	157	1
48	157	2
156	157	2
118	160	2
33	37	1
24	28	1
29	31	3
109	111	1
63	64	1
173	193	1
5	8	1
7	14	1
164	166	1
72	195	1
83	84	1
46	50	1
1	153	1
76	80	1
156	171	1
171	173	1
20	28	1
0	190	2
167	167	1
55	62	1
16	24	1
86	148	1
41	140	1
15	38	1
32	40	1
159	176	1
111	139	1
105	186	1
72	73	1
69	81	1
155	172	1
21	34	1
47	109	1
16	17	1
48	49	1
83	86	1
124	174	1
161	192	1
9	13	1
