71	72	5
95	95	10
101	116	1
90	90	2
28	28	2
124	124	1
93	93	2
25	26	3
32	32	4
103	103	6
14	14	2
79	79	10
76	78	3
1	1	4
128	128	5
7	8	1
97	97	1
136	137	3
109	110	1
88	88	1
114	114	5
104	104	8
75	75	3
89	89	4
129	129	6
5	5	5
135	135	4
83	83	13
135	136	1
20	20	7
8	9	1
132	132	6
17	19	1
113	114	1
99	100	4
94	95	4
71	115	4
23	23	3
133	134	1
34	34	2
119	120	3
134	135	3
119	122	2
4	4	3
119	123	2
33	33	6
136	136	3
15	15	3
80	93	2
4	5	2
120	120	2
111	111	8
9	9	3
122	122	5
35	35	3
19	24	3
106	107	3
109	109	5
30	31	2
36	37	5
80	80	3
29	29	1
83	84	2
84	84	5
75	76	1
98	101	2
86	92	1
131	131	5
73	76	1
101	108	2
123	123	7
93	94	1
26	26	3
11	12	6
8	8	3
3	3	4
112	124	2
72	72	5
108	108	1
1	2	1
99	99	3
10	10	8
0	0	2
2	2	1
124	125	4
25	27	1
98	98	7
82	91	4
6	7	1
19	19	6
18	18	1
115	115	6
25	25	3
94	94	1
34	35	3
125	126	4
118	118	4
107	107	1
86	87	2
7	7	1
85	85	2
90	130	1
115	116	2
105	112	1
26	27	3
6	6	4
126	126	3
13	13	1
134	134	7
101	102	1
104	112	3
119	119	2
24	24	2
18	19	2
96	97	1
133	133	2
130	130	4
0	1	3
20	21	4
121	121	3
86	86	5
117	117	10
77	78	4
105	114	2
36	36	2
102	102	1
137	137	1
107	108	5
30	30	2
108	109	2
101	104	1
77	77	2
96	99	2
139	140	2
140	140	5
27	27	4
118	119	1
113	113	1
139	139	1
92	92	3
87	88	1
81	81	1
12	12	1
27	28	1
112	112	6
16	16	4
81	91	1
128	129	1
104	105	2
16	17	8
100	100	1
116	116	1
96	96	3
120	125	3
8	12	1
37	37	1
28	66	1
111	112	1
116	123	1
14	15	1
36	110	2
73	74	1
5	6	3
102	103	1
17	17	3
22	22	1
105	113	2
73	73	1
127	128	1
106	106	1
31	108	2
121	122	1
34	109	1
71	71	1
94	123	1
110	111	2
11	11	1
110	110	2
99	128	1
105	105	1
96	98	1
10	12	1
104	120	1
5	9	1
31	31	1
38	38	1
103	112	1
