81	81	1
124	124	10
107	107	11
93	93	19
1	47	1
74	74	2
109	110	4
78	79	5
128	129	3
52	52	13
87	88	7
127	127	4
133	133	9
17	18	5
104	104	14
9	9	9
30	30	9
34	34	10
97	97	6
19	22	2
6	72	4
85	85	17
21	21	9
115	115	7
25	25	18
23	23	12
33	33	11
118	118	3
99	99	9
58	59	3
35	35	9
37	37	5
130	130	3
51	51	4
111	133	6
132	133	8
119	119	2
118	119	1
66	66	3
113	113	5
0	79	2
51	61	3
91	92	8
64	64	11
13	15	4
127	130	4
134	134	12
94	94	7
32	33	8
31	31	12
108	108	10
73	73	7
0	88	6
26	36	2
110	131	5
62	62	9
96	96	7
59	59	6
99	100	2
29	29	7
14	14	3
60	61	4
121	121	10
78	78	3
24	24	16
63	64	4
66	67	5
72	72	10
90	91	3
11	11	7
95	99	2
95	95	21
120	120	3
70	70	3
96	97	3
91	91	11
10	10	7
87	87	7
45	63	1
55	55	5
95	96	12
89	89	6
30	31	3
82	83	1
76	76	9
128	128	1
1	1	7
38	38	1
69	80	1
67	67	4
75	75	10
122	123	2
15	15	10
32	32	7
63	63	8
57	60	2
86	86	7
43	88	6
36	36	8
126	126	8
90	90	23
2	3	1
7	79	8
117	119	5
101	101	5
17	17	5
61	61	8
108	112	2
115	133	1
72	73	5
92	92	18
84	84	4
102	102	6
5	30	1
14	19	2
33	35	1
101	102	3
69	69	3
3	38	1
98	98	6
100	122	2
80	81	2
92	93	4
25	33	5
96	102	3
29	30	3
22	22	9
36	37	8
106	106	10
22	26	2
6	6	6
68	68	19
5	5	14
60	62	2
60	60	6
121	122	3
44	45	1
76	89	3
53	53	3
132	132	8
97	98	5
129	129	2
3	3	10
22	35	5
94	95	3
42	43	3
52	54	2
106	129	4
58	58	3
80	80	12
114	114	8
74	99	2
110	111	5
77	77	4
64	65	4
102	103	3
45	45	6
100	132	2
65	66	3
71	76	2
7	7	5
33	34	1
62	111	1
44	44	9
27	32	3
19	20	5
129	130	2
70	72	1
4	4	4
116	116	20
124	126	2
65	69	1
64	69	3
119	120	1
29	126	1
122	122	3
109	109	12
18	19	4
82	85	4
123	126	1
13	13	6
100	100	11
1	2	3
0	78	2
111	111	8
110	110	3
8	8	8
49	50	3
16	16	6
25	26	3
0	0	4
49	49	3
84	85	4
82	82	1
45	56	2
112	112	7
9	10	2
103	103	8
89	90	1
27	27	7
43	43	1
52	55	1
2	2	3
4	37	1
45	46	2
57	57	2
98	102	2
1	3	1
93	94	6
47	47	3
79	79	4
114	115	3
0	1	2
71	71	4
24	25	3
123	123	14
33	120	3
116	118	1
50	57	1
33	37	2
74	75	3
18	23	2
134	135	5
128	130	2
18	33	1
26	27	2
13	82	2
97	103	1
79	81	2
52	53	1
105	105	5
88	89	2
6	80	2
116	132	1
28	28	4
77	88	3
54	55	1
76	99	1
2	5	2
122	133	2
105	124	1
48	48	1
88	88	4
73	74	1
65	65	2
8	100	1
50	52	1
5	68	1
62	64	1
21	22	3
14	85	2
101	124	1
19	19	2
71	72	1
78	95	4
128	133	2
22	24	2
6	7	2
86	87	3
126	127	1
28	29	2
68	69	1
125	125	2
127	131	1
12	13	1
14	84	2
72	76	2
55	56	3
8	82	3
70	71	1
108	115	2
127	128	2
30	32	1
87	90	1
118	131	2
18	18	2
30	126	1
66	69	1
23	27	1
30	125	1
27	28	1
7	93	3
5	6	2
29	33	2
17	19	5
54	54	3
67	68	1
59	60	1
63	65	1
2	116	1
106	130	1
64	111	1
83	83	1
102	134	1
46	88	1
46	46	2
107	119	1
61	111	1
54	57	1
49	57	1
78	99	1
16	17	1
56	56	1
91	94	1
99	101	1
