7	8	4
54	57	2
117	117	5
39	39	8
133	133	11
148	158	2
193	193	5
111	135	4
10	10	9
110	110	5
89	153	2
84	94	1
157	157	7
38	38	7
23	23	6
188	188	3
107	107	7
17	18	5
25	25	3
145	145	5
138	140	1
187	187	12
45	45	1
186	191	1
186	186	9
71	71	10
30	31	10
100	101	1
141	141	7
171	171	8
149	150	1
60	182	3
72	73	1
59	59	7
179	179	11
47	47	6
62	62	2
14	14	12
27	27	7
106	106	6
114	114	9
24	24	8
113	113	4
122	122	3
67	67	6
100	100	5
68	68	5
48	48	4
119	127	2
102	130	2
185	185	11
124	137	3
88	89	6
181	181	9
101	135	4
121	121	2
60	60	9
9	9	6
142	142	5
167	167	10
112	131	2
150	160	1
105	106	6
56	58	2
50	50	7
183	183	5
158	158	14
148	157	2
140	140	5
28	28	3
64	64	12
48	64	2
86	86	4
168	168	7
18	18	7
96	102	3
139	140	2
194	195	1
108	108	6
15	15	5
43	46	2
102	103	3
136	136	7
165	165	3
63	67	1
54	54	5
69	69	2
75	75	3
16	16	5
89	90	2
113	122	4
30	30	10
165	167	2
67	68	3
106	156	1
150	150	14
128	128	5
111	111	3
185	186	2
159	159	7
116	117	6
125	125	16
40	40	5
135	135	2
173	173	10
1	1	7
143	143	5
145	154	1
183	185	3
49	50	3
53	55	4
155	167	2
192	192	7
72	72	6
137	138	1
109	109	5
123	123	5
21	21	2
154	154	4
119	119	4
7	7	1
195	196	4
149	149	7
144	155	2
58	58	7
115	116	5
10	11	1
35	35	5
37	37	5
183	184	3
46	46	6
138	139	2
176	176	8
155	155	2
142	172	3
69	140	1
78	78	4
102	131	3
126	126	5
26	69	3
32	32	6
81	83	3
131	132	1
8	8	5
194	194	6
33	33	3
72	127	5
55	55	5
135	136	6
126	128	2
164	164	3
34	35	2
49	49	7
95	96	1
173	177	1
144	156	5
137	137	5
25	55	2
152	152	7
50	114	2
169	169	7
146	146	5
100	155	2
76	76	2
121	122	1
58	139	1
88	109	4
17	17	6
77	78	1
50	149	2
43	43	1
98	99	3
4	4	2
139	139	6
112	115	1
115	187	3
82	84	2
141	184	2
65	65	3
178	178	7
197	197	4
97	98	2
11	11	7
169	194	3
18	20	1
172	173	5
25	181	2
160	160	13
152	190	5
71	138	3
67	76	4
111	133	1
83	83	2
86	88	4
189	189	4
100	102	4
19	28	2
40	42	3
124	124	5
42	42	5
112	112	6
95	95	7
36	36	4
166	166	2
120	120	6
29	31	2
148	149	1
113	128	1
156	156	2
132	132	1
15	16	6
195	195	4
3	3	3
26	26	11
41	41	4
161	162	1
23	172	3
18	41	5
56	56	4
22	23	2
11	18	1
189	190	1
181	182	2
169	170	2
34	34	3
101	101	2
115	115	2
70	95	2
148	159	2
146	147	5
113	114	2
138	138	3
192	193	1
25	26	3
99	100	4
174	192	1
2	61	3
19	19	8
85	85	5
29	29	4
66	66	9
125	126	2
88	88	4
53	53	6
56	57	1
54	55	5
182	182	1
134	135	1
149	160	2
142	143	2
95	97	1
2	63	2
124	125	1
5	7	1
61	62	2
11	12	1
102	102	1
71	127	4
174	175	3
156	157	1
23	24	3
138	141	1
154	155	4
52	52	2
40	41	4
13	13	7
120	121	1
110	111	1
79	81	2
21	22	1
71	141	2
57	57	1
187	188	2
79	86	3
22	173	1
70	70	1
177	177	2
119	121	1
177	179	1
71	136	2
132	133	1
173	174	3
61	61	4
101	154	1
168	169	1
143	144	2
134	134	1
70	73	2
60	61	1
153	153	3
22	22	3
119	122	1
51	51	3
21	23	1
48	49	4
173	191	2
113	152	2
44	44	8
140	141	1
196	196	1
79	80	2
12	13	3
141	142	2
28	45	1
39	40	1
161	161	3
67	83	1
173	176	1
73	73	3
31	32	1
160	161	1
29	30	1
76	77	1
107	108	1
108	141	3
61	63	1
79	79	2
20	20	2
89	89	3
151	151	1
175	175	1
80	80	3
64	138	1
89	114	1
2	40	1
118	118	1
173	192	1
111	137	1
163	163	3
5	6	1
56	183	1
122	195	1
109	117	1
63	63	3
5	5	2
77	77	1
26	27	1
54	169	1
145	156	1
151	172	2
65	66	1
54	183	2
172	172	3
22	172	2
58	78	1
167	168	2
53	171	1
38	39	3
129	151	1
58	80	1
103	103	2
153	154	1
143	151	1
136	137	1
164	166	2
45	64	1
96	96	2
123	181	1
71	72	1
31	33	1
133	142	1
31	31	2
85	86	2
59	181	1
190	190	2
105	157	1
82	82	1
51	52	1
16	17	2
94	94	1
86	87	1
102	136	1
86	172	2
81	84	2
177	178	1
154	173	1
144	144	2
56	69	1
144	145	1
2	2	1
57	142	1
47	48	1
184	185	1
32	33	2
184	184	4
74	74	3
36	62	2
58	79	1
80	81	1
111	122	1
141	156	1
68	69	1
8	33	2
174	174	1
191	193	1
147	147	1
149	159	1
179	189	1
115	189	1
124	126	1
50	88	1
99	156	1
4	61	1
21	27	1
100	139	1
