122	151	1
64	65	3
138	138	4
130	130	3
129	129	11
111	122	8
12	13	3
124	124	9
108	142	5
100	104	1
134	134	2
83	83	11
13	13	6
147	147	2
135	135	3
39	119	4
6	6	9
146	146	1
33	35	4
77	77	9
143	145	2
69	70	5
98	98	5
44	44	7
102	102	3
128	129	3
40	40	4
54	54	15
68	109	5
43	43	7
46	46	7
80	80	16
19	21	3
68	68	6
61	103	1
87	136	5
141	142	2
45	48	1
41	48	3
63	63	7
16	16	11
115	124	4
135	136	7
42	44	4
14	15	8
121	121	15
78	78	3
25	26	2
123	123	9
39	101	4
5	5	5
140	141	4
86	86	4
73	73	10
95	97	6
17	21	5
113	113	6
13	23	2
119	119	1
113	114	3
105	105	3
74	74	3
95	95	2
26	31	6
130	141	1
115	145	3
131	131	7
39	39	6
110	110	9
31	33	1
56	56	6
69	74	1
31	31	7
101	101	2
111	119	3
83	99	5
107	128	2
85	86	1
144	145	2
99	99	1
96	96	4
124	125	4
132	132	9
30	41	6
17	136	2
17	17	8
67	67	8
36	36	7
108	108	3
4	4	4
28	41	2
93	93	7
140	147	2
38	38	5
67	68	5
39	102	5
25	25	8
66	66	10
42	42	4
38	119	1
137	151	2
41	41	9
104	104	6
51	51	7
152	152	1
115	119	2
10	12	2
140	146	2
118	142	1
106	106	6
27	32	1
149	150	1
64	108	3
112	112	8
62	62	6
120	121	3
24	132	3
24	93	3
62	74	1
2	2	8
81	81	2
64	81	1
71	71	4
118	118	5
9	10	2
110	127	4
12	71	2
39	40	4
20	20	4
84	85	3
94	144	7
107	137	1
63	127	1
108	110	1
98	99	4
100	100	6
87	87	1
30	30	5
126	126	1
30	34	1
109	109	4
53	98	2
111	111	3
32	32	8
8	28	2
62	64	2
24	108	1
45	153	7
73	79	3
102	120	2
40	149	5
8	8	5
29	30	3
125	125	3
126	127	2
12	125	2
76	76	6
27	28	1
67	124	1
101	144	1
108	128	2
26	26	5
136	142	4
53	53	5
27	27	1
69	108	3
75	78	1
14	127	1
149	149	3
48	48	4
20	26	2
65	65	1
66	74	2
144	144	6
46	54	3
34	37	3
125	150	1
129	135	3
5	9	1
34	35	5
18	18	2
55	55	3
107	108	2
103	103	3
50	50	1
6	36	2
116	116	3
88	136	4
70	154	1
5	7	2
15	15	2
42	43	5
22	22	4
140	140	1
6	7	1
65	74	2
32	33	2
134	152	2
28	29	3
62	67	2
85	85	3
129	130	1
50	51	4
112	114	1
34	34	1
72	72	4
142	144	2
17	22	3
6	9	1
22	24	1
115	141	1
14	136	5
108	109	2
120	120	2
57	57	2
145	147	1
103	104	7
70	74	3
9	35	1
87	128	2
46	47	2
76	77	1
70	73	3
130	137	1
142	142	2
63	67	1
64	64	2
135	139	1
148	152	3
88	95	1
18	31	1
105	106	2
69	69	2
94	129	2
57	99	2
36	38	2
75	75	2
41	42	4
89	89	3
33	34	2
118	120	3
150	150	2
24	55	2
23	28	1
5	6	2
107	107	4
37	37	1
33	36	1
28	28	2
11	11	1
124	138	3
116	141	2
36	37	1
130	133	1
68	73	1
22	55	2
19	20	1
12	12	2
133	133	2
9	9	3
16	17	1
139	146	1
134	145	4
24	24	4
144	146	1
139	139	1
35	86	1
122	122	1
91	91	1
94	94	2
145	145	1
45	54	1
14	14	1
113	140	2
100	142	2
143	143	2
148	151	1
130	140	1
35	85	1
111	152	2
55	99	1
3	3	1
105	153	1
52	57	1
130	132	1
72	104	2
148	148	2
3	4	1
97	97	1
117	117	1
34	36	2
45	45	1
48	50	2
78	83	2
3	5	1
103	127	1
100	102	2
118	119	1
139	142	2
90	90	1
63	124	1
153	153	1
118	147	1
63	126	1
72	82	1
100	101	1
18	19	1
29	29	1
12	36	1
94	95	2
102	103	1
40	92	1
44	56	1
9	28	1
