114	170	1
132	132	13
150	150	4
169	169	8
131	131	8
2	3	7
119	119	19
6	7	3
146	146	18
14	14	11
114	114	10
113	113	3
76	76	15
62	63	3
106	107	7
173	177	2
112	112	7
37	38	4
60	80	2
15	16	7
179	179	8
15	15	10
93	93	9
34	34	6
59	60	3
178	178	8
51	51	1
1	1	7
45	45	4
163	163	8
56	56	7
164	164	8
109	109	2
111	111	6
84	84	7
61	63	1
13	13	8
40	40	4
130	130	9
151	172	3
21	21	6
66	66	19
120	120	12
74	74	5
80	116	1
51	82	5
135	135	10
35	36	9
176	177	5
87	87	10
148	148	9
10	10	7
4	38	2
1	7	1
118	119	5
62	98	6
118	118	6
53	53	10
165	165	6
167	167	16
14	23	1
154	154	7
124	124	8
71	71	7
136	136	4
133	133	9
89	132	1
38	38	13
140	140	7
88	96	3
3	5	10
95	95	8
128	128	3
97	97	2
61	62	1
19	19	5
125	126	2
121	121	7
66	131	1
105	105	4
151	151	10
127	127	11
139	140	4
122	123	3
3	4	2
38	40	2
79	79	7
98	98	3
176	176	11
168	168	11
0	71	2
108	109	6
11	13	4
34	35	2
42	42	5
71	90	4
41	41	3
123	123	11
116	116	9
86	87	5
55	55	6
158	158	16
89	89	7
76	77	8
130	133	4
50	74	1
30	30	21
57	57	8
142	151	2
11	11	5
155	156	4
180	180	10
88	88	6
18	18	2
9	9	14
94	94	10
173	173	8
81	117	5
156	156	5
161	161	14
56	57	2
102	102	7
162	162	6
125	129	3
32	32	14
35	35	14
107	107	6
43	43	2
100	100	6
2	2	9
25	28	2
72	72	6
127	128	6
131	132	1
39	39	15
73	74	7
75	76	3
112	131	1
153	153	7
121	122	3
107	109	2
64	64	5
99	100	2
117	118	2
73	73	15
17	17	5
63	65	4
22	23	6
118	121	1
62	86	2
126	127	4
37	37	12
52	52	9
175	176	3
96	96	10
81	116	3
102	104	1
146	148	1
90	91	4
36	36	5
88	89	4
92	92	4
65	90	2
126	132	6
172	172	15
141	141	13
162	166	3
83	83	3
78	90	1
52	53	5
98	101	8
121	124	1
104	104	5
3	3	13
137	138	1
150	151	1
159	159	12
114	115	6
11	15	2
103	103	7
117	117	19
103	104	3
2	37	1
101	139	2
77	78	4
33	33	9
32	53	2
107	108	2
151	152	1
94	98	1
142	143	7
138	139	3
156	161	3
24	24	9
77	118	1
37	43	1
150	172	1
163	165	1
171	171	1
54	74	3
75	120	1
123	128	4
67	67	14
152	152	8
141	142	6
99	99	2
149	149	12
122	124	3
68	68	5
125	125	6
50	51	1
82	82	4
143	143	3
81	81	5
167	170	10
155	162	2
157	157	5
141	175	3
125	128	4
85	85	2
65	65	10
52	74	1
15	44	2
56	79	1
102	115	1
2	18	2
82	83	1
134	136	1
144	144	3
33	36	1
167	171	4
61	61	9
31	31	10
58	74	1
89	90	4
177	177	4
161	162	1
117	119	4
2	38	2
154	155	3
112	125	2
29	29	2
8	17	3
114	165	4
49	49	2
137	137	4
164	170	1
139	139	7
154	174	2
40	42	2
129	129	1
155	155	5
120	125	3
13	44	3
40	41	1
30	32	2
103	106	1
1	32	3
5	5	6
58	58	1
145	145	1
62	97	2
14	16	4
127	130	1
101	144	4
138	138	3
132	133	2
27	28	1
147	147	2
87	146	1
20	22	2
4	8	3
170	170	8
24	44	1
81	85	6
154	172	2
77	77	3
1	43	1
60	60	2
26	30	2
50	50	1
144	150	1
70	70	1
37	45	3
122	122	2
92	93	6
99	101	1
148	149	4
115	115	4
91	94	2
8	18	1
170	171	3
16	16	5
171	175	1
79	158	1
175	175	8
160	164	2
102	103	5
12	12	3
179	180	3
90	90	4
117	122	1
71	87	2
75	75	1
166	166	4
126	126	3
143	152	4
64	155	3
58	72	1
174	174	3
29	30	3
156	157	1
7	7	3
142	150	1
61	88	2
59	95	1
25	26	2
175	179	1
7	8	1
134	134	7
116	117	8
28	29	1
160	160	5
32	52	1
13	14	1
6	6	2
76	121	4
2	7	1
173	179	4
63	63	1
8	8	2
95	96	1
108	108	5
138	140	1
165	166	1
112	114	3
70	88	3
20	20	1
139	149	2
124	126	1
133	172	1
64	65	2
111	112	1
38	39	1
141	149	1
78	78	11
74	75	1
143	144	1
14	27	2
129	147	1
115	164	2
151	154	2
7	20	2
100	117	1
59	59	9
82	86	2
93	151	2
148	157	3
142	152	2
14	15	2
173	174	3
123	125	2
82	98	1
80	81	3
17	70	1
115	117	1
105	106	4
5	8	1
22	22	3
158	159	2
86	86	1
60	118	1
9	64	1
37	54	2
6	38	1
54	73	1
65	127	1
144	145	2
125	130	1
111	122	1
168	171	1
101	101	3
106	106	3
17	45	1
115	116	1
33	75	1
91	92	2
44	54	1
80	80	2
101	115	2
102	129	1
8	21	6
112	113	3
44	44	1
28	52	2
116	160	1
23	24	1
80	115	1
150	155	1
9	10	1
13	15	2
60	83	1
90	96	1
26	26	2
99	125	1
51	52	2
119	120	1
43	44	1
171	172	2
54	54	2
62	64	1
118	123	1
4	4	1
22	32	2
92	95	2
2	22	1
102	164	1
31	32	3
21	23	1
86	104	1
82	84	2
52	77	1
72	90	1
89	95	1
99	145	1
168	169	2
153	174	1
62	62	1
3	6	1
36	42	2
66	68	1
103	111	1
90	94	1
17	42	1
59	61	2
49	50	1
160	161	1
1	4	1
64	127	1
53	54	1
9	13	1
61	83	1
29	109	1
51	81	1
123	124	1
170	172	1
72	73	1
21	22	1
127	131	1
