17	30	1
38	39	5
54	118	4
123	123	6
54	65	5
4	4	6
102	102	1
94	95	4
63	64	4
1	51	4
87	88	2
22	25	2
54	54	9
16	16	2
116	116	6
54	98	3
19	19	8
129	129	12
132	132	9
85	85	2
5	5	7
13	18	4
61	61	5
88	88	5
80	85	3
41	42	5
127	131	1
21	21	7
94	94	7
47	47	8
0	0	15
110	110	8
120	121	2
128	128	2
10	10	3
33	60	2
41	41	7
53	53	10
89	97	2
102	103	2
4	127	2
97	112	2
93	93	15
65	65	4
30	30	6
113	113	6
85	86	2
13	13	9
111	111	2
11	11	4
55	66	6
118	118	6
29	29	7
86	88	2
47	48	1
130	130	7
108	108	2
6	6	2
61	62	2
83	83	5
28	28	6
44	44	6
115	115	10
93	101	7
81	81	3
16	59	2
88	120	3
64	64	3
81	85	4
1	1	10
33	34	5
66	66	5
65	66	6
75	75	7
124	125	2
105	106	3
91	91	5
80	80	5
6	10	3
8	8	6
88	104	1
32	32	8
46	46	3
48	48	10
67	67	10
109	109	6
112	112	6
66	67	3
74	74	4
72	73	2
23	23	6
124	124	4
119	119	3
45	89	1
69	70	4
76	76	8
117	117	6
69	69	3
8	9	2
17	17	6
128	130	3
2	102	2
2	2	3
31	32	3
98	98	2
42	89	2
62	62	8
40	128	1
8	12	1
125	125	2
2	4	2
121	121	4
33	33	1
55	67	1
58	58	4
56	98	3
13	14	4
126	126	5
42	42	7
101	102	1
14	14	7
28	30	1
24	38	1
72	74	2
33	41	1
23	24	1
61	68	5
3	106	2
4	58	3
57	57	4
9	9	4
3	4	3
127	128	5
29	30	2
26	26	6
41	69	2
50	50	5
103	104	2
39	39	3
58	59	3
17	18	5
122	123	2
38	38	3
0	1	3
79	79	4
117	118	6
51	51	7
90	90	3
81	82	1
57	58	1
22	26	1
15	26	2
115	119	2
89	90	3
92	92	6
53	65	1
15	21	1
107	107	5
70	73	2
88	92	10
19	20	2
49	49	3
127	127	3
61	72	2
42	43	3
44	45	3
60	128	1
82	82	2
98	115	2
31	58	2
30	31	2
59	126	3
1	3	1
45	46	1
90	94	1
44	87	2
7	11	1
25	25	2
59	60	3
34	99	1
106	106	6
111	115	1
9	10	3
117	120	2
11	12	3
5	129	4
105	105	2
45	45	1
45	47	1
65	98	2
40	40	1
26	28	1
22	63	1
120	120	1
3	3	2
34	34	4
126	129	1
22	23	2
125	126	3
8	19	2
24	24	3
18	18	2
33	126	2
22	22	3
31	31	1
12	13	2
9	11	1
55	55	2
78	79	2
56	120	2
52	53	3
52	52	2
39	92	1
101	101	4
15	15	2
7	7	1
41	46	2
129	130	2
100	117	1
96	125	1
40	41	1
88	90	3
68	68	4
20	20	2
45	66	2
27	32	2
43	43	4
1	96	3
90	103	2
97	98	2
82	120	2
26	27	1
38	93	3
5	103	1
63	63	1
38	118	1
89	89	5
6	69	1
104	132	1
8	64	1
39	40	1
83	84	1
53	54	1
4	5	1
80	83	1
49	52	1
98	114	1
86	86	2
97	97	1
108	110	1
131	132	1
92	103	1
131	131	1
87	87	1
7	30	1
32	42	1
22	24	1
16	51	1
115	124	1
16	18	1
27	27	1
78	78	1
63	73	1
1	18	1
18	19	1
