9	10	3
71	71	5
7	34	5
6	6	5
31	31	1
11	20	2
65	65	5
2	2	5
5	7	5
32	32	8
59	59	5
3	4	1
125	126	2
34	34	5
123	126	7
1	21	3
60	72	1
43	43	5
28	103	3
60	74	2
38	38	4
7	7	3
104	104	8
64	64	10
48	48	4
16	32	4
82	83	7
114	114	6
125	125	8
71	73	1
110	111	6
107	129	2
91	118	1
82	82	3
86	129	1
69	69	6
60	61	5
77	84	1
10	10	8
15	30	8
108	126	2
127	127	3
91	127	3
54	55	6
61	61	5
108	110	4
64	69	4
26	83	3
87	87	3
112	116	7
52	52	6
15	15	7
56	64	2
91	128	1
80	80	2
94	94	1
4	35	1
2	42	3
14	14	7
10	19	5
50	52	2
21	21	3
75	75	1
79	85	1
87	118	3
62	70	1
68	68	2
35	37	4
31	32	3
124	124	9
46	46	1
19	19	9
30	30	9
88	90	1
37	37	2
1	24	2
49	49	2
3	3	1
117	117	7
0	0	4
5	37	2
123	123	6
20	20	6
102	102	3
55	55	5
88	88	1
79	81	2
35	35	3
134	134	1
5	35	9
58	58	1
54	54	4
126	126	7
57	65	2
94	119	3
101	101	4
24	24	4
72	72	10
90	90	4
96	112	5
86	86	3
102	131	4
19	20	1
8	37	4
6	34	3
23	78	3
109	109	6
1	14	2
57	58	3
4	34	2
29	29	5
115	116	1
119	120	6
64	65	2
125	127	4
21	22	3
131	131	1
22	23	4
4	4	8
74	75	3
92	92	3
99	99	2
85	85	2
56	69	2
23	24	3
129	129	6
3	83	1
25	82	2
120	120	6
56	56	1
33	33	2
106	118	1
77	79	2
89	89	5
16	16	3
103	103	7
112	113	6
105	105	2
71	72	2
116	116	4
87	112	1
8	8	4
45	45	4
113	119	2
91	91	6
95	96	3
28	28	6
89	90	4
2	21	2
36	36	5
43	45	2
113	113	3
79	79	1
102	103	4
107	107	2
27	77	4
74	74	3
48	66	6
18	18	3
1	79	2
124	125	7
130	130	2
88	89	1
12	12	2
107	118	1
70	70	4
24	72	4
113	120	1
111	111	2
86	98	1
93	93	1
25	28	2
77	78	2
25	54	1
83	83	1
121	129	3
122	129	1
107	128	1
63	63	2
105	112	1
56	59	1
133	133	1
112	114	1
1	1	3
22	22	2
25	25	2
101	130	2
27	79	1
107	117	2
76	134	3
71	85	2
121	121	3
6	7	3
6	26	1
112	131	3
100	100	1
17	30	1
120	121	2
1	85	1
13	77	1
119	119	1
27	30	2
106	112	3
110	110	3
130	133	2
59	64	1
108	108	1
115	120	1
60	60	1
53	53	1
71	134	1
78	82	1
50	82	1
66	66	2
53	54	1
99	131	2
21	23	2
118	128	1
17	33	1
87	88	1
59	63	1
106	106	2
73	74	1
16	33	1
66	67	3
7	33	1
86	130	1
88	112	2
57	62	1
122	133	3
84	84	1
59	72	1
122	123	1
0	72	1
110	116	1
50	83	1
121	127	1
73	73	1
76	76	2
135	135	1
59	65	1
52	82	1
1	77	1
30	31	1
91	92	1
66	68	1
