131	131	4
41	42	5
173	173	7
2	2	1
133	133	3
125	166	2
143	157	3
175	175	1
16	16	4
112	112	2
176	176	3
109	109	5
106	106	1
171	173	6
122	122	2
128	128	1
80	80	5
114	114	11
100	169	1
94	94	4
135	173	1
87	110	3
125	125	4
63	67	3
129	129	9
138	138	3
65	66	2
55	104	2
113	113	9
4	6	4
124	124	1
136	146	1
132	132	1
147	147	6
6	6	3
28	28	3
88	103	4
3	3	1
84	85	2
88	88	3
145	146	1
35	36	1
75	75	6
110	111	1
170	170	2
88	127	2
65	67	1
135	135	5
9	39	1
85	85	4
129	130	5
81	84	1
126	127	4
36	36	1
167	168	9
149	149	1
104	105	5
92	92	5
145	145	10
31	36	5
91	91	5
135	136	5
118	118	5
10	10	3
105	122	4
9	9	4
50	51	2
152	153	5
52	54	4
166	166	6
4	4	1
58	59	2
141	141	3
86	103	1
103	104	2
85	103	5
134	134	2
143	143	4
26	27	3
150	150	5
41	41	8
56	56	3
81	81	2
76	76	2
174	175	3
16	41	1
170	171	6
27	30	3
156	174	3
40	40	7
1	1	3
113	114	2
71	72	3
101	102	4
15	41	2
45	45	3
115	115	5
137	137	5
130	130	1
79	79	1
173	174	1
88	89	3
157	158	3
177	177	2
14	15	2
142	157	8
33	50	2
53	53	7
158	158	2
118	119	4
99	100	1
174	174	1
141	142	2
5	10	3
25	43	3
53	86	1
172	172	2
116	167	3
7	12	3
124	125	4
107	107	3
27	36	1
4	17	1
171	171	4
147	158	1
72	72	3
71	121	1
5	8	1
144	144	2
18	18	3
81	123	4
12	17	3
112	113	1
13	37	3
133	134	1
64	64	5
157	161	1
98	122	4
164	164	1
8	8	2
168	168	1
52	72	3
14	14	3
105	105	2
122	154	1
12	19	1
56	57	2
168	169	1
128	143	2
63	63	2
89	89	2
67	68	1
77	77	3
120	171	1
91	93	1
136	137	2
114	136	3
24	25	1
116	116	2
67	177	3
83	83	1
73	75	1
20	42	1
17	20	3
42	43	2
142	145	2
20	21	2
130	141	1
135	137	3
97	125	2
83	85	1
9	21	1
25	44	3
79	121	1
11	11	2
66	66	1
80	81	3
35	35	2
32	32	1
163	166	1
121	121	2
126	153	2
72	75	1
135	171	1
138	174	3
5	5	1
0	18	1
175	179	1
90	92	1
125	167	1
43	43	1
9	40	3
17	17	1
123	123	2
31	31	1
52	52	2
59	59	1
78	78	2
65	65	1
161	161	2
162	162	1
125	161	1
84	105	1
121	122	1
158	159	1
61	61	1
38	39	1
10	11	2
57	85	1
148	175	1
111	111	1
98	101	1
156	156	1
4	7	1
29	29	1
167	167	1
152	152	1
144	145	1
179	179	1
