203	203	17
184	184	8
38	38	5
101	105	1
119	119	7
66	66	7
173	173	4
212	214	4
81	83	3
33	33	7
69	69	10
153	154	4
189	238	1
26	26	6
201	201	4
27	27	7
218	218	4
221	221	7
79	81	3
173	174	4
37	221	3
5	7	3
210	210	4
84	122	3
102	124	5
197	197	2
86	86	4
237	237	15
56	59	4
67	67	9
46	46	12
224	224	6
124	124	9
207	207	8
40	40	4
156	156	2
89	89	4
199	200	4
5	29	1
74	203	1
124	126	1
107	107	2
49	215	2
124	125	1
9	238	4
12	12	10
201	202	3
205	205	15
120	120	5
111	111	3
174	174	6
63	65	6
51	53	3
206	207	5
165	179	2
49	49	4
115	116	2
99	119	4
126	126	6
142	144	4
218	241	2
135	148	4
134	153	2
143	151	2
100	100	6
233	233	7
63	63	8
178	178	3
231	231	3
101	107	5
227	227	11
183	183	6
54	55	6
113	113	3
5	6	4
240	240	1
32	32	5
102	102	6
152	152	1
211	216	2
27	29	4
97	97	6
115	115	3
46	47	2
101	173	2
105	105	2
197	198	2
170	170	3
25	25	9
131	132	1
205	206	5
182	182	3
16	30	1
52	236	7
102	133	2
41	41	6
58	58	2
235	236	4
138	169	3
44	45	6
112	112	6
208	208	4
42	42	1
135	136	5
45	62	4
136	136	4
82	82	2
9	9	7
150	151	5
134	134	4
29	29	1
53	236	3
223	223	3
222	222	5
143	143	7
30	33	4
120	122	5
175	176	3
200	233	9
2	2	4
70	70	5
32	58	2
27	54	1
51	52	6
218	242	6
48	235	2
70	74	1
216	218	3
44	44	3
241	241	4
47	47	3
219	219	6
57	57	13
0	12	7
7	58	4
24	42	3
13	34	4
133	167	2
49	52	4
4	7	2
2	5	5
123	123	2
219	220	1
229	229	3
74	223	1
20	20	4
230	230	2
177	178	8
43	43	15
122	122	4
179	179	4
16	16	1
100	101	1
73	73	9
133	133	5
2	6	2
186	186	2
118	118	2
220	223	4
220	220	1
78	78	2
64	64	3
232	232	4
62	62	4
79	79	4
19	21	2
27	28	7
102	103	3
79	80	2
65	65	5
161	187	1
48	71	1
108	153	2
99	105	3
19	19	10
188	188	2
83	83	2
151	151	1
81	119	3
220	221	3
116	116	3
85	85	3
11	60	3
98	127	2
167	167	3
52	52	5
23	24	3
137	137	5
152	191	4
136	170	4
30	30	1
115	117	3
173	180	1
172	172	1
145	146	2
145	145	2
134	146	2
102	122	1
126	167	3
45	45	3
214	214	2
63	71	2
209	238	2
190	191	5
149	149	2
52	53	6
177	177	3
4	5	2
74	74	10
47	83	2
138	138	8
68	68	1
159	160	1
193	193	1
75	75	9
179	208	1
27	202	1
8	29	2
217	217	4
125	125	2
15	15	4
81	81	4
1	3	2
99	101	1
16	29	1
117	126	1
178	179	1
102	120	3
51	51	6
146	146	1
98	98	4
134	168	3
205	223	1
131	131	3
114	114	1
162	162	2
66	76	1
5	8	4
14	14	3
7	10	1
24	24	4
228	228	4
0	200	4
22	201	8
107	108	2
212	215	1
190	190	1
70	118	3
61	61	4
165	165	1
0	31	1
130	130	2
71	71	3
80	80	10
104	104	1
100	114	1
164	164	6
185	198	3
198	198	3
3	3	4
165	166	1
121	121	1
10	10	4
88	88	2
162	163	6
150	155	1
169	169	1
8	17	4
193	194	1
86	88	1
49	214	2
103	107	1
50	54	1
148	148	3
213	213	6
198	210	2
69	70	1
108	113	1
238	238	2
80	107	3
54	62	1
49	71	5
3	9	3
171	171	2
3	25	1
87	125	2
81	96	1
161	182	2
0	4	3
8	9	3
159	182	1
187	187	4
77	84	2
211	211	1
47	222	1
22	22	3
217	218	2
45	47	2
106	106	3
232	233	3
196	196	4
147	169	5
207	222	1
16	40	2
129	180	1
86	234	3
135	135	8
217	219	1
136	154	1
9	17	1
18	21	5
209	210	1
167	208	1
204	205	4
27	201	1
42	43	1
39	39	1
4	4	2
200	200	2
26	61	2
175	175	1
224	232	3
18	20	2
140	140	4
126	129	3
104	118	1
15	17	2
59	59	4
61	62	1
224	238	2
146	150	2
101	113	1
221	223	3
12	13	1
191	192	2
216	225	3
31	31	3
36	37	2
95	125	1
28	28	3
74	208	1
84	84	6
225	229	1
37	38	4
216	216	1
1	30	2
91	91	1
28	56	1
5	15	2
71	72	1
236	236	3
96	97	1
151	152	1
158	159	2
132	132	2
188	189	2
29	56	1
20	21	1
207	208	3
160	161	1
157	194	1
192	192	2
204	204	2
67	89	1
13	57	2
226	226	2
162	182	1
214	216	1
195	196	2
180	180	4
127	130	1
170	198	3
196	197	2
144	146	3
0	0	2
157	157	2
191	236	1
37	57	3
14	15	1
56	56	5
24	201	1
209	209	1
79	84	1
188	197	1
38	60	1
125	180	3
74	75	2
140	141	3
76	76	1
231	232	1
1	2	1
136	155	1
10	32	3
8	8	2
13	13	1
1	15	1
135	150	1
164	198	1
215	215	2
41	56	1
222	225	1
234	234	2
58	59	1
122	124	2
32	33	3
185	242	2
85	86	1
184	208	1
16	238	2
18	41	1
207	223	4
136	156	2
224	226	2
160	160	1
128	180	2
73	74	2
9	32	1
99	118	2
15	16	1
160	187	1
127	135	1
200	222	1
107	130	2
33	35	1
21	56	3
29	30	1
147	148	2
101	101	3
83	84	3
100	118	1
159	159	1
73	77	1
62	63	1
30	204	1
64	65	2
36	36	2
136	153	1
57	60	2
19	23	1
56	58	1
2	9	1
203	216	1
199	215	1
37	37	1
72	72	3
171	180	2
85	233	1
191	191	2
20	202	3
153	153	3
82	83	1
28	29	1
145	147	1
53	53	2
85	115	1
134	144	1
7	31	1
74	76	1
176	178	1
50	50	1
202	202	2
167	207	2
226	237	1
88	125	1
98	131	1
118	119	1
221	222	1
13	14	1
139	139	1
195	195	1
109	176	1
35	35	1
199	199	3
109	179	1
143	148	1
213	231	1
141	153	1
212	212	2
109	109	1
226	227	1
235	239	1
6	7	1
77	77	1
137	143	1
131	169	2
123	125	1
186	187	1
163	167	1
116	152	1
206	206	1
125	130	1
209	214	1
137	154	1
154	154	1
159	161	1
223	224	1
99	99	1
48	48	1
20	23	1
199	210	1
21	21	1
150	150	2
108	108	1
160	166	1
127	149	1
138	139	1
141	141	1
228	229	1
102	121	1
