31	31	9
8	8	9
69	69	9
18	18	10
111	121	1
30	30	9
116	134	2
129	129	6
105	106	3
115	116	4
62	62	14
78	78	13
92	92	3
44	44	6
128	128	14
93	93	3
35	37	1
82	82	6
38	42	2
126	126	10
97	97	11
134	134	10
2	2	6
125	125	4
72	73	2
110	110	9
29	127	2
117	117	12
25	25	6
70	70	5
15	15	12
56	86	3
45	45	9
126	127	2
94	95	2
103	103	2
82	116	1
124	124	11
101	101	8
24	24	4
132	132	7
100	100	7
96	111	1
71	71	7
73	74	6
33	33	13
74	75	3
58	109	1
12	12	9
13	13	2
7	7	11
46	46	5
33	116	1
9	9	2
47	47	5
20	28	3
83	84	4
65	65	9
21	133	4
63	65	4
107	107	10
79	80	5
90	90	2
74	74	10
71	80	1
120	120	6
63	63	12
36	36	12
35	35	10
1	11	2
111	111	7
102	103	2
4	8	1
15	16	5
66	66	8
100	101	1
62	119	4
75	75	8
21	21	1
34	36	1
60	60	12
63	121	5
84	94	1
101	102	6
99	101	2
3	3	4
75	76	4
19	19	5
87	87	6
27	27	6
11	11	5
28	28	1
21	126	4
127	129	4
119	120	1
122	122	13
85	85	3
32	32	7
23	25	5
6	6	5
39	40	6
115	115	2
67	67	6
102	102	6
43	43	8
97	99	3
72	72	4
13	49	5
121	121	9
129	132	1
108	109	2
17	17	6
16	16	3
21	22	1
36	37	1
77	77	8
56	115	6
10	10	7
95	110	1
112	121	2
76	76	8
37	37	6
1	1	9
56	56	2
0	0	3
117	119	1
29	30	2
109	109	3
99	99	3
70	77	1
121	123	2
122	123	1
120	121	3
70	131	4
61	61	2
77	78	3
119	119	6
68	68	6
12	39	1
121	122	5
96	96	5
17	30	3
59	60	2
112	112	3
9	10	5
59	59	3
124	126	1
108	108	5
86	86	8
44	45	4
78	79	2
79	79	4
96	97	2
84	93	4
86	93	2
25	27	5
57	58	1
80	80	2
85	86	1
112	113	3
113	113	1
133	133	4
20	22	4
103	111	3
16	36	1
81	81	2
108	125	2
84	84	5
23	23	2
113	115	3
63	64	2
35	36	3
69	113	2
98	98	5
123	123	8
22	75	2
64	64	3
26	26	2
69	70	1
20	30	1
13	33	2
23	24	4
4	4	4
111	124	1
19	31	1
55	56	2
28	40	1
99	100	2
91	91	3
73	73	2
6	8	2
13	41	2
104	104	3
14	14	2
39	39	3
12	75	1
18	79	1
127	127	3
63	67	9
131	132	1
73	75	1
42	42	3
130	130	4
94	94	6
29	128	4
114	116	2
127	128	1
22	22	3
118	118	4
41	43	3
5	26	2
83	83	7
48	48	3
81	92	1
93	96	3
102	104	3
57	86	1
112	124	4
44	47	1
18	19	4
70	71	1
104	109	1
19	27	2
32	82	2
104	105	1
14	43	1
57	57	4
82	83	3
33	34	1
65	119	2
116	116	1
17	73	2
46	48	1
50	116	1
48	55	1
60	61	2
95	96	1
82	100	1
14	31	1
90	91	3
3	8	1
8	9	1
22	24	1
64	85	1
11	12	1
67	68	1
85	97	1
38	40	1
58	124	2
28	126	3
43	44	1
93	94	1
87	90	1
82	84	2
86	87	1
94	96	3
7	8	2
19	133	2
127	132	1
57	111	1
45	46	1
88	88	1
27	29	1
106	106	2
13	15	1
109	110	1
58	58	1
13	14	1
20	20	1
78	82	1
21	127	1
71	72	1
34	35	1
95	95	1
59	123	1
