46	70	2
39	39	5
83	84	1
99	99	4
60	81	2
36	53	8
47	61	1
54	54	3
56	56	9
66	88	3
40	41	1
95	96	3
97	97	5
45	59	12
70	73	2
87	89	1
44	44	3
24	24	2
33	44	1
42	42	2
96	102	1
35	35	6
70	82	1
25	25	4
73	79	4
94	104	2
69	77	2
32	48	1
37	38	8
69	69	3
69	99	3
100	100	3
31	68	2
78	99	3
65	65	6
75	98	4
44	45	2
69	82	1
42	43	1
101	101	9
66	66	4
86	97	2
64	64	2
55	57	2
95	102	1
80	80	8
105	105	2
73	99	2
53	54	8
61	61	3
55	55	7
78	78	6
31	33	3
90	90	3
62	77	4
80	99	3
26	29	1
32	32	5
73	74	3
27	40	1
46	46	4
53	53	5
76	76	5
84	84	12
51	51	7
89	96	2
86	86	2
89	89	4
83	83	5
85	85	3
79	98	2
20	33	1
22	22	8
89	90	4
82	92	1
46	77	7
35	75	1
75	76	4
24	29	1
38	38	7
99	100	2
106	106	2
56	69	3
28	37	1
62	74	3
88	107	3
75	95	4
60	60	7
34	55	7
62	63	1
29	29	6
94	94	2
36	37	1
78	98	5
83	85	2
75	75	4
95	95	2
96	103	1
54	64	3
61	95	3
79	79	2
71	77	1
67	78	3
100	101	2
63	68	5
73	76	3
84	92	4
41	42	3
27	27	1
98	98	3
66	68	2
69	73	1
52	76	2
21	24	1
82	86	3
62	75	1
96	96	4
52	57	1
29	33	5
83	88	4
52	52	1
20	20	1
82	85	2
52	72	1
45	45	1
20	24	3
92	95	3
56	72	1
90	91	7
49	49	1
26	26	3
24	25	1
54	55	4
66	77	1
71	73	2
75	91	1
47	47	7
56	68	1
21	21	4
47	48	1
30	30	5
34	34	2
55	56	4
43	67	1
50	61	1
47	53	2
43	43	1
92	94	1
85	103	4
68	89	1
59	59	1
58	58	1
64	78	2
73	73	2
43	44	1
28	38	1
58	62	1
90	96	2
68	68	4
88	102	2
33	33	1
103	107	1
76	90	3
67	67	3
27	29	2
30	89	1
63	67	3
68	69	1
27	35	1
88	105	1
45	72	1
70	72	1
76	92	1
47	78	1
31	59	2
20	28	1
27	28	1
104	104	4
64	65	3
80	104	1
59	92	2
21	30	2
24	37	1
86	94	2
50	64	1
58	66	1
90	97	2
87	100	2
70	70	4
47	59	3
80	81	1
102	102	3
31	44	1
65	66	2
21	34	1
77	77	2
39	53	1
58	60	2
23	23	1
26	40	2
24	40	1
62	62	1
32	34	1
35	68	1
63	71	1
51	67	2
41	41	2
33	42	1
88	88	1
34	35	1
91	91	1
82	82	1
47	49	1
81	81	1
19	20	1
81	86	1
37	37	1
92	93	1
50	52	1
