117	131	5
10	12	1
31	50	2
89	89	19
61	61	16
112	112	14
44	56	1
81	109	2
84	84	16
26	26	21
9	9	16
105	105	32
109	109	36
43	44	5
62	102	1
114	131	2
118	119	4
87	87	21
114	114	18
38	46	2
98	98	11
96	123	3
128	128	13
84	85	7
126	126	24
23	23	14
65	65	36
110	131	5
111	111	12
127	127	12
25	25	7
28	29	6
24	25	5
49	50	9
13	14	4
96	105	1
121	121	30
106	130	1
119	119	19
78	80	2
5	13	3
117	128	2
90	90	24
94	94	10
50	85	4
21	34	1
102	103	8
89	90	5
104	104	13
1	14	1
81	81	2
5	38	3
133	133	7
1	1	26
21	21	14
60	60	26
67	68	5
79	79	14
34	35	9
101	101	23
68	69	6
2	2	16
66	66	11
23	34	6
110	111	6
123	124	9
4	5	11
63	69	5
112	117	4
103	103	12
102	122	2
96	96	6
66	69	6
129	129	7
132	132	21
36	36	15
116	116	11
70	70	15
110	110	20
23	27	5
77	133	1
3	3	20
107	107	10
112	125	4
73	93	1
108	108	11
79	84	1
114	122	2
8	10	7
0	100	3
14	17	6
29	29	21
88	88	9
117	117	15
113	115	1
23	24	12
5	5	17
89	92	1
92	92	22
58	59	12
20	86	6
91	91	6
110	112	2
52	69	1
124	124	17
62	69	2
8	8	6
45	78	4
30	35	2
102	102	16
54	54	13
11	11	8
61	78	7
77	97	1
73	73	12
94	118	4
52	53	5
52	64	6
35	104	2
18	18	11
62	62	18
28	43	2
57	57	6
43	43	23
97	101	2
110	122	1
109	131	5
85	85	24
53	53	22
104	113	4
59	59	15
66	86	2
35	65	3
88	116	2
27	27	15
28	28	19
68	68	20
99	99	9
112	133	6
90	94	1
95	95	10
75	75	16
30	31	2
53	69	1
63	63	13
33	33	29
34	104	3
108	116	3
115	115	9
78	78	10
4	16	3
22	22	20
103	115	4
2	26	1
11	29	2
1	8	2
9	14	1
8	23	2
9	10	10
59	64	3
84	87	2
125	125	28
1	11	3
13	13	8
62	63	2
51	68	2
20	26	3
25	30	5
15	29	2
37	37	3
43	101	4
111	120	2
60	61	4
7	24	2
64	64	8
56	57	4
49	49	13
122	122	14
83	83	9
65	68	6
95	97	2
47	49	2
107	108	4
17	17	15
131	131	6
45	45	12
19	20	4
89	91	2
83	90	3
34	34	23
43	99	2
101	116	1
134	135	2
26	31	3
78	86	3
107	115	3
14	14	12
16	17	2
127	128	7
24	24	13
86	86	9
69	69	8
104	122	2
74	74	20
97	115	6
52	61	3
77	77	19
84	105	2
2	84	4
94	95	5
86	87	11
16	16	8
32	33	7
82	82	7
93	94	1
6	7	2
57	58	4
30	30	16
59	60	4
6	11	9
22	23	7
97	97	10
19	19	14
12	12	6
65	75	3
25	28	3
48	48	9
85	86	7
61	116	2
124	125	5
94	96	4
132	133	10
91	96	2
111	122	1
129	133	2
100	100	5
131	132	1
4	12	1
122	123	1
20	20	17
4	4	11
118	127	7
116	129	2
58	90	1
86	104	3
7	7	13
35	101	5
67	67	9
122	126	1
71	72	13
105	106	7
3	16	3
82	84	4
106	111	1
4	7	2
66	67	4
7	11	3
134	134	15
105	112	2
32	32	15
80	80	15
109	122	6
42	43	4
118	118	19
18	21	3
76	91	1
8	9	13
35	35	25
95	96	5
0	13	4
87	90	3
107	114	5
82	90	2
87	95	2
31	32	3
77	80	1
62	126	4
99	100	6
128	131	2
76	76	18
14	25	3
129	132	1
88	104	1
113	114	5
14	15	4
130	130	5
22	36	2
66	68	1
117	129	5
23	36	3
109	110	2
4	24	3
56	56	7
127	133	1
96	117	3
0	3	3
4	100	2
6	6	13
110	129	5
60	63	1
119	128	4
76	101	1
0	0	10
20	36	2
75	102	3
38	38	2
117	118	3
130	131	2
77	86	2
111	112	5
21	22	9
24	29	4
44	44	11
50	50	8
107	110	4
21	23	6
45	51	1
111	128	1
30	33	3
1	3	3
71	75	2
15	15	10
50	60	2
99	105	2
35	37	2
1	15	1
106	122	3
14	33	2
46	46	1
33	45	2
79	81	1
9	11	5
52	52	5
61	64	3
44	50	5
19	29	1
92	103	6
111	124	4
10	23	1
102	127	3
68	71	5
57	65	4
99	120	1
31	31	13
1	6	2
70	73	2
95	122	1
116	119	4
116	125	1
81	133	1
123	133	3
88	108	2
2	4	3
14	19	2
15	69	4
112	113	6
65	69	1
124	127	4
37	54	1
16	25	4
45	53	4
75	103	3
79	112	1
63	64	3
112	114	1
126	131	4
15	17	4
60	82	2
72	89	2
108	111	1
38	44	2
35	79	5
88	110	2
126	127	1
119	122	2
10	10	12
45	59	3
27	28	3
58	58	5
68	87	1
33	36	1
72	72	8
75	94	2
26	27	4
124	126	3
122	124	1
1	2	5
116	117	6
61	75	2
73	74	3
32	63	3
123	125	3
92	93	2
106	106	7
132	135	2
106	114	1
11	12	3
71	71	14
108	115	2
36	50	1
61	70	1
114	123	3
87	97	2
71	77	2
123	123	9
69	108	1
112	132	4
79	80	8
61	77	1
111	131	4
114	126	1
86	93	1
76	77	3
83	91	4
10	11	5
91	108	3
98	107	1
87	88	2
11	15	1
96	98	2
45	47	6
55	56	3
93	122	2
4	25	4
48	79	2
72	73	2
96	107	3
94	97	2
66	71	1
54	60	4
55	55	5
4	8	2
76	97	1
34	121	5
37	38	2
7	9	4
88	90	1
21	24	2
120	120	16
62	87	3
13	34	1
100	116	2
13	15	4
128	135	3
50	65	3
17	22	1
52	74	1
97	103	4
109	114	1
35	76	2
23	38	1
94	99	2
99	118	1
50	52	2
122	135	5
70	74	2
80	121	2
61	65	3
26	30	1
25	35	1
3	19	1
47	65	1
17	24	4
15	25	3
53	118	1
101	105	5
119	127	2
118	122	4
111	132	1
125	127	2
108	119	4
102	121	1
103	109	3
90	93	1
96	116	3
21	28	3
62	72	2
89	94	1
106	107	1
106	121	2
2	20	1
94	108	3
2	114	1
33	72	1
63	67	2
113	131	1
29	79	2
19	22	1
20	21	4
112	120	1
45	48	5
91	92	5
3	25	1
3	4	8
51	57	5
14	69	1
125	126	3
124	132	1
74	118	1
32	62	1
109	128	2
114	116	3
0	35	1
32	35	7
93	93	4
0	10	2
57	71	2
30	50	1
78	82	5
47	47	1
56	107	3
0	8	2
33	34	5
5	27	1
4	15	2
129	131	1
111	121	1
77	83	5
13	28	2
51	62	1
82	83	4
130	133	1
11	30	1
109	129	4
127	134	3
75	104	2
73	123	1
101	121	1
43	52	2
48	62	2
72	92	1
88	113	1
6	49	1
120	123	1
12	33	4
61	62	3
15	16	4
78	87	4
16	23	2
108	127	1
78	79	2
81	86	2
105	120	3
66	90	1
128	130	3
92	106	2
96	97	1
95	111	2
71	85	2
42	60	2
65	67	3
55	66	2
95	112	1
17	20	3
49	57	2
111	126	2
50	59	1
18	23	3
93	103	1
55	64	1
69	92	5
124	130	1
9	22	1
3	18	3
133	134	3
5	37	2
53	54	2
14	26	2
11	27	1
44	101	1
5	23	1
99	103	2
80	103	1
58	61	3
115	120	1
120	128	1
33	37	1
15	35	2
55	78	1
20	30	1
85	89	1
121	123	2
100	119	1
7	8	3
72	84	1
90	91	1
92	117	2
3	88	2
114	115	1
105	113	3
69	91	1
6	30	1
17	21	2
0	23	2
50	84	2
102	115	2
68	75	1
123	126	1
99	119	5
93	113	1
2	17	1
65	86	1
77	78	5
96	110	1
101	134	3
119	121	2
68	89	2
84	89	4
36	95	1
15	42	1
105	109	1
108	110	1
122	134	1
36	37	3
105	119	2
100	101	1
80	81	2
114	121	2
120	121	3
0	11	1
70	93	1
104	125	2
81	94	1
106	109	1
125	131	1
125	133	1
88	117	3
15	18	2
29	30	3
112	115	3
127	132	1
66	84	1
45	56	1
62	90	2
113	113	7
97	99	1
116	133	2
13	33	1
82	87	1
114	129	2
82	115	1
103	104	1
93	124	1
13	36	1
14	20	2
17	35	1
42	44	3
1	17	2
61	82	1
77	92	1
116	118	1
125	132	1
76	79	3
12	14	2
35	36	1
1	16	2
36	42	3
103	107	1
15	34	1
74	91	1
63	78	2
6	33	2
115	132	2
47	110	4
102	135	1
68	92	1
52	58	2
57	59	2
86	88	2
9	23	1
5	12	1
36	49	1
117	120	1
94	116	1
70	83	1
28	38	1
83	84	2
53	106	4
131	133	2
107	130	1
50	67	1
70	77	1
4	10	2
57	84	2
119	120	2
118	128	1
100	117	1
2	22	1
3	23	1
11	67	1
48	54	2
19	31	1
115	122	1
65	84	1
122	125	1
19	24	1
75	99	2
135	135	3
79	96	1
45	46	1
85	87	1
74	89	1
30	45	1
107	109	1
0	1	1
10	27	2
95	103	2
91	100	1
56	95	1
16	22	2
97	119	1
37	107	1
14	32	2
127	130	1
50	68	1
75	134	1
2	85	2
83	113	1
78	83	1
109	117	1
64	80	1
39	39	1
56	59	1
43	61	1
99	114	2
28	34	2
7	105	1
58	63	2
10	95	1
115	116	2
19	23	1
28	31	1
61	68	1
94	98	2
25	26	1
59	65	1
45	112	2
120	124	1
77	89	1
84	113	2
108	131	1
89	101	1
5	26	1
96	122	1
79	98	2
73	105	1
82	85	1
64	65	1
3	5	1
51	52	1
118	130	3
79	86	1
114	132	1
85	91	1
47	54	1
36	67	1
6	8	1
56	106	1
92	105	1
112	118	1
44	48	1
35	38	1
11	18	1
47	51	1
1	114	1
52	68	1
3	11	1
67	84	1
20	87	1
107	113	1
4	78	1
93	118	1
96	102	2
5	16	1
69	77	1
12	24	1
53	72	2
46	100	1
113	116	1
109	134	1
76	78	1
92	108	1
54	56	1
128	129	1
16	21	1
101	103	1
99	130	1
83	86	1
122	127	1
104	120	2
62	81	1
83	112	1
88	121	1
