17	17	11
120	120	9
71	71	13
5	5	9
20	20	7
111	111	14
27	27	5
128	131	6
80	91	2
102	119	1
19	19	6
130	130	11
4	4	19
82	82	14
89	90	3
103	103	10
105	105	5
139	139	15
74	74	11
38	38	12
12	20	3
131	131	20
23	23	11
3	3	11
88	90	1
95	95	8
87	88	3
132	132	20
25	25	9
109	110	2
16	17	5
110	118	5
135	135	19
31	31	13
119	119	21
128	130	3
8	8	7
78	79	4
85	85	5
71	89	1
73	76	1
2	3	6
134	134	9
100	100	18
110	125	3
28	28	2
80	81	7
33	33	8
36	36	12
79	79	9
101	102	7
15	15	7
138	139	1
88	99	3
124	124	16
107	108	4
17	18	1
30	30	6
34	34	19
37	37	19
35	35	14
87	101	2
133	133	7
97	105	2
96	99	3
23	24	3
118	118	3
117	117	14
29	29	3
28	31	5
75	75	16
88	92	3
136	136	9
106	110	4
0	0	7
110	112	2
137	137	3
9	9	3
86	88	1
90	91	10
87	87	5
24	24	1
122	122	11
11	11	7
37	38	4
78	78	10
22	22	2
99	99	9
7	7	11
98	98	6
83	83	11
89	101	2
2	2	9
32	32	6
81	86	5
26	26	2
115	115	6
104	104	14
90	101	4
118	119	14
128	128	10
126	127	2
122	123	3
109	109	4
28	29	2
86	86	5
105	118	1
113	118	3
97	97	8
104	105	3
108	110	3
102	102	19
128	129	2
108	109	6
125	125	8
16	16	11
13	13	3
34	36	2
126	126	10
79	80	2
138	138	12
80	133	3
93	93	10
124	125	4
89	89	10
114	114	7
84	84	2
77	77	8
80	80	7
73	73	6
90	90	4
112	112	11
24	25	7
77	78	5
118	120	2
108	122	2
3	4	8
29	30	2
129	129	18
1	1	9
116	126	2
120	127	4
111	112	1
108	108	5
4	5	3
100	107	3
33	36	5
101	101	7
104	108	2
19	21	5
18	18	3
77	82	2
107	107	13
131	132	2
110	111	3
84	85	2
76	76	6
88	88	6
81	82	4
128	132	5
117	119	4
102	104	2
22	23	1
89	92	1
40	130	2
82	84	1
137	138	1
91	91	4
77	83	2
103	108	1
12	12	3
112	118	2
116	116	13
86	98	2
82	83	2
72	72	8
16	18	3
121	122	10
28	32	3
71	129	2
3	26	1
92	93	1
113	113	5
109	111	4
134	135	1
96	96	9
36	72	2
106	106	7
102	118	3
89	113	5
105	111	1
106	108	3
94	94	4
112	131	2
114	115	2
100	114	1
93	101	6
19	20	2
9	10	1
90	100	4
78	82	3
95	109	3
120	130	2
139	140	2
9	12	2
12	13	2
119	122	3
97	129	2
102	121	1
97	100	2
124	126	2
127	127	4
71	72	2
73	74	1
17	19	2
125	126	3
72	83	1
127	128	1
105	110	1
85	87	2
122	126	1
96	97	1
30	31	2
120	125	1
74	75	2
123	124	2
20	21	2
89	105	2
89	91	2
0	12	1
100	103	1
102	103	2
81	81	6
72	82	1
80	82	1
72	79	2
92	92	3
86	114	1
101	104	3
6	19	1
115	126	1
110	110	3
86	87	1
25	26	2
80	84	3
140	140	4
16	22	1
36	38	1
115	118	2
95	132	2
112	113	2
24	90	2
78	84	1
72	73	2
6	6	1
112	115	1
94	96	1
17	28	1
7	9	3
21	23	1
91	103	4
95	96	2
79	84	1
120	132	1
116	120	1
87	89	1
104	107	1
7	8	1
78	80	1
35	36	2
33	38	2
100	115	2
83	101	2
121	121	3
83	84	1
10	12	1
116	125	1
14	34	2
21	21	2
10	18	2
111	116	1
130	131	2
123	123	3
111	113	1
15	16	3
95	98	2
135	136	1
120	121	1
116	117	3
85	95	1
76	77	4
101	103	2
126	130	1
130	132	1
113	114	2
103	113	2
120	122	1
10	10	1
83	92	1
26	42	1
31	73	1
98	106	1
100	101	1
103	104	2
94	95	1
99	109	1
125	129	1
89	93	1
97	104	1
115	117	3
76	88	1
23	33	1
3	14	1
101	116	1
91	101	1
