96	96	12
116	117	3
79	79	7
120	120	15
111	112	3
49	77	1
83	83	15
125	125	14
58	59	4
88	88	16
67	86	4
110	110	11
25	25	14
39	131	5
124	124	11
114	115	1
121	121	9
64	68	4
102	127	3
122	122	16
72	92	5
43	43	9
105	105	4
102	102	12
68	68	12
20	20	9
103	103	1
52	53	8
128	130	1
107	108	10
91	92	5
75	76	4
0	0	3
65	90	4
66	66	8
47	47	11
4	4	25
115	115	17
39	43	5
80	87	7
118	118	6
123	123	7
29	30	2
106	106	10
55	55	5
49	132	2
78	78	10
5	5	10
42	42	12
90	90	6
64	64	4
62	97	3
66	79	3
116	116	14
86	88	1
118	123	2
63	64	8
105	106	6
101	101	3
91	91	10
38	38	5
99	99	10
41	42	9
1	1	12
41	99	4
6	6	14
26	27	4
32	32	14
28	28	11
114	114	18
88	93	2
95	95	4
116	118	4
14	14	7
13	26	5
8	9	11
85	85	8
97	97	18
43	131	2
10	10	3
57	57	18
17	17	8
17	18	7
105	115	1
93	93	7
27	132	5
100	100	17
48	48	6
58	97	2
103	123	1
23	23	13
0	1	4
117	117	6
20	21	4
4	53	3
58	58	11
86	86	14
55	116	3
62	62	5
103	119	3
56	56	8
32	33	2
15	100	5
97	100	4
51	51	4
0	115	2
47	101	2
7	21	3
74	74	12
47	52	1
2	2	12
30	30	12
74	75	16
94	95	4
68	108	4
92	92	13
68	74	3
23	24	10
51	104	1
51	52	1
55	60	1
14	100	3
76	77	4
27	27	17
108	108	8
70	71	7
54	54	10
70	70	7
90	91	7
126	129	4
19	19	9
130	130	3
9	9	7
60	76	1
22	33	3
119	119	7
111	113	8
98	98	10
127	128	1
71	75	2
54	55	4
34	34	2
73	92	5
53	53	16
18	101	2
13	13	5
76	81	4
84	85	5
50	50	11
87	88	5
109	109	14
104	105	2
4	120	2
44	44	7
127	127	5
7	7	10
57	62	2
95	96	1
72	73	2
113	113	16
82	82	15
27	28	2
50	58	4
95	114	1
48	64	4
63	63	3
124	125	8
65	65	3
84	84	9
40	41	12
122	123	4
89	89	7
110	111	6
94	94	9
39	39	10
16	16	5
68	109	6
22	22	8
114	117	5
110	113	9
131	132	5
76	76	16
5	6	5
129	131	11
129	130	3
104	106	2
29	29	4
111	111	6
49	49	9
1	107	2
15	15	8
109	113	3
106	108	3
3	3	7
132	132	5
45	45	9
40	45	2
126	128	3
72	74	6
25	26	1
115	116	1
24	24	4
104	104	12
91	93	2
72	72	10
24	25	2
80	80	3
60	61	2
80	81	8
48	49	3
65	68	3
75	75	1
73	73	6
75	80	4
41	41	3
81	82	3
112	112	10
60	60	2
93	94	3
0	2	4
109	110	6
51	101	3
18	19	5
61	62	6
33	77	3
15	16	2
23	25	1
39	44	3
60	63	3
53	75	1
64	65	3
47	48	4
56	62	4
21	32	3
133	133	2
61	61	2
69	71	1
68	69	4
45	46	1
87	87	1
65	92	2
69	69	5
26	26	4
87	90	3
12	12	6
44	70	2
78	96	1
81	85	2
94	96	3
126	126	6
44	45	4
59	59	2
104	118	1
46	46	6
128	128	3
18	18	4
65	66	5
25	27	2
50	51	1
119	120	3
6	118	1
131	131	4
71	71	4
83	85	4
96	97	1
70	107	1
2	3	2
55	56	1
103	130	2
52	130	1
78	79	2
125	126	1
46	97	2
107	107	1
21	21	1
129	129	4
106	107	1
113	114	3
93	95	6
49	100	4
82	114	2
31	33	1
46	98	2
11	11	4
62	64	1
79	96	2
71	72	2
14	101	1
76	90	1
120	121	1
40	40	1
81	84	2
13	14	1
42	44	1
79	80	1
13	22	1
14	15	2
100	101	1
59	61	2
39	45	1
102	103	3
77	77	2
52	52	2
13	31	1
115	118	1
109	111	1
14	127	1
94	118	1
49	51	1
66	70	3
67	67	3
127	129	1
53	56	1
54	88	1
77	90	2
13	127	1
33	33	1
121	122	1
82	83	2
4	5	2
88	89	1
7	119	1
102	104	1
14	21	1
12	32	1
16	17	1
81	81	1
