120	121	3
90	97	1
60	61	9
19	25	1
54	55	4
73	73	12
167	167	13
53	53	13
77	77	5
134	134	16
133	133	11
149	154	2
157	157	8
15	16	3
51	51	5
158	158	6
87	89	2
96	96	8
171	171	3
142	145	1
136	141	2
33	82	2
161	161	10
170	170	5
168	168	4
149	149	18
60	60	4
71	71	4
119	119	11
105	106	6
67	67	7
156	156	6
37	37	10
53	65	8
12	12	3
38	38	13
160	161	5
107	107	9
0	0	5
73	74	2
139	139	12
14	14	11
12	26	3
2	3	12
164	164	12
70	70	3
30	35	5
112	155	5
124	124	9
175	175	5
166	169	3
141	142	3
110	141	5
135	135	11
141	141	7
158	161	7
161	162	5
178	178	6
180	180	5
45	46	5
176	176	7
158	159	5
71	72	3
63	63	10
151	153	2
27	27	10
52	52	7
11	11	6
66	67	6
117	179	2
179	179	20
166	166	6
128	153	5
157	158	8
37	38	8
53	63	4
138	138	18
93	93	7
132	132	5
59	59	7
146	163	3
140	140	10
78	79	11
17	17	7
26	27	9
5	5	5
21	30	1
159	161	2
91	91	4
109	110	9
75	85	1
136	136	3
83	87	6
17	18	5
9	33	3
14	43	3
59	68	1
159	171	2
91	93	3
174	174	3
126	126	7
142	142	6
29	30	2
112	112	7
103	103	4
42	43	1
112	159	1
137	138	6
72	72	21
159	159	15
62	62	13
13	13	3
32	32	12
43	43	2
54	54	3
40	40	6
165	165	4
150	150	7
102	102	12
86	90	1
13	14	2
75	75	7
38	40	2
11	12	2
156	163	1
120	120	5
1	1	5
104	106	4
74	74	12
154	155	8
76	76	2
6	6	6
164	165	5
64	64	12
82	82	2
137	137	11
90	91	2
53	54	5
81	106	6
150	169	5
10	10	6
101	101	4
131	132	2
96	99	2
123	123	12
1	2	1
129	131	4
152	153	1
24	24	12
125	125	11
32	33	4
28	28	8
21	21	2
113	113	6
4	4	7
114	114	3
94	94	4
105	105	6
88	89	4
145	148	5
8	8	1
121	121	8
55	55	4
87	88	7
164	166	6
97	97	3
100	100	2
160	160	8
1	4	1
92	92	4
56	56	4
151	151	6
106	106	7
80	80	1
30	30	11
52	53	3
163	163	5
154	154	6
115	116	1
145	146	4
124	125	1
122	123	2
89	89	6
144	146	3
50	50	10
99	99	6
36	36	3
9	9	7
130	131	3
39	40	9
122	122	5
2	2	7
3	3	3
125	130	3
39	39	7
147	151	2
66	66	9
86	86	3
91	92	4
71	75	1
14	44	1
104	104	12
44	44	6
105	119	1
135	142	3
77	81	2
162	162	11
26	26	6
178	180	1
170	171	6
109	109	8
93	94	2
153	153	10
83	83	2
169	170	1
34	35	2
147	170	2
111	111	3
146	146	3
148	148	2
171	172	1
122	125	4
18	43	1
130	130	3
110	110	1
19	41	3
50	51	3
34	34	3
80	81	3
110	117	1
49	49	1
36	37	3
84	84	6
21	23	2
75	76	2
60	62	3
35	35	3
29	29	3
79	79	2
129	129	4
68	73	4
98	101	2
22	30	1
10	11	2
54	86	2
123	124	1
99	109	2
144	144	2
59	60	3
62	64	4
31	31	5
15	15	5
17	37	1
58	58	2
16	16	1
53	57	1
118	118	2
22	29	2
95	98	3
119	120	1
56	57	4
57	57	5
59	101	3
85	85	2
81	108	1
75	84	1
108	108	1
127	127	6
125	126	2
23	23	7
159	160	1
147	148	4
147	147	2
172	172	3
136	137	2
130	151	1
93	131	1
95	96	3
96	97	2
169	169	2
78	78	2
114	115	4
31	32	3
112	127	1
136	140	3
25	25	2
65	65	3
82	89	2
42	42	3
133	134	2
117	117	2
97	105	1
154	156	1
137	145	1
144	145	1
88	88	3
94	95	2
91	108	2
111	112	2
145	145	2
4	5	2
45	67	1
46	46	1
81	82	2
115	115	4
36	93	1
157	161	1
165	166	2
81	81	2
81	83	1
43	44	1
6	33	2
112	156	3
108	109	1
2	5	1
158	162	1
112	173	1
153	154	1
33	33	2
103	119	1
130	133	1
116	119	1
56	88	1
143	143	4
137	141	2
128	128	1
15	41	1
68	86	1
7	7	1
20	21	1
145	149	1
61	61	3
178	179	1
77	78	1
143	144	1
92	95	1
98	98	1
89	90	1
30	31	1
81	110	1
173	173	1
38	39	2
164	171	1
85	91	1
9	37	1
