128	128	14
130	130	10
119	119	11
15	15	10
65	65	17
115	115	19
98	98	12
27	27	9
88	88	5
38	38	3
104	117	1
10	10	11
29	29	16
103	105	7
100	100	14
118	118	13
86	86	7
44	44	7
86	88	2
80	83	2
36	87	2
127	128	4
58	58	11
85	85	6
76	90	4
3	17	1
27	28	7
5	17	5
90	90	8
74	74	8
69	71	5
54	57	1
15	17	2
134	134	11
56	56	12
105	105	5
32	32	15
70	70	9
43	54	7
11	11	13
62	62	13
3	3	6
61	61	13
80	80	10
68	73	4
7	7	5
0	0	7
115	116	7
17	17	7
121	123	2
124	124	2
62	63	7
7	14	3
67	69	3
67	67	6
95	97	5
103	103	11
101	102	1
28	28	17
131	135	2
31	31	5
97	97	4
32	37	3
32	33	2
118	133	2
5	20	7
24	26	3
114	116	7
119	120	7
122	130	5
93	133	3
12	12	10
63	63	11
54	54	5
95	115	2
94	104	2
1	18	2
110	127	1
102	104	1
79	87	3
77	91	1
124	125	5
14	14	3
97	113	1
132	132	10
6	6	4
68	72	3
37	37	8
120	120	7
60	60	10
82	82	15
7	8	2
130	131	2
106	106	8
34	77	2
114	114	7
23	23	6
123	131	1
19	30	1
116	116	5
81	81	4
110	111	2
52	54	6
64	64	6
92	92	7
37	133	5
77	77	4
117	117	7
111	111	9
2	3	11
16	16	14
47	91	4
98	122	6
49	49	9
131	131	4
20	20	6
46	49	2
45	46	2
31	54	3
43	57	3
97	107	7
13	13	8
53	53	17
30	35	3
22	22	6
58	59	7
121	122	4
127	127	6
115	129	1
112	112	12
94	95	7
16	28	1
86	87	7
61	65	1
44	130	4
78	78	20
50	50	8
83	84	6
59	68	2
16	22	4
65	67	1
124	131	1
23	34	4
133	133	4
46	68	2
106	120	1
71	72	2
59	69	1
86	89	1
102	102	10
74	135	4
104	105	2
59	60	8
108	109	3
67	68	2
106	108	4
53	129	3
53	127	2
110	110	8
96	97	5
87	88	5
117	118	8
7	13	1
68	68	8
35	82	10
4	5	2
113	113	15
57	59	5
31	32	2
26	26	12
129	129	6
80	85	1
21	22	8
70	72	2
1	14	3
94	94	5
125	135	1
30	31	3
42	42	2
76	92	2
1	1	5
34	35	1
91	92	4
109	112	1
72	73	1
123	134	1
123	123	9
1	2	2
95	95	6
90	91	2
4	15	1
15	16	5
6	11	1
108	112	1
87	87	7
123	124	4
25	25	6
131	132	6
12	13	4
23	33	2
107	107	7
71	71	5
112	130	1
3	4	8
4	4	5
121	121	2
108	108	9
29	31	2
99	99	6
60	67	2
36	36	7
17	68	2
49	50	2
126	127	4
74	86	4
112	114	5
30	37	4
87	95	2
116	120	1
98	105	5
59	71	3
104	104	11
84	97	5
6	18	1
70	73	3
65	66	2
2	2	4
79	79	6
67	70	3
57	57	4
112	124	2
24	24	5
17	18	2
5	5	11
8	8	4
35	35	3
96	96	5
79	80	5
105	106	6
98	112	2
74	79	3
108	121	1
43	44	3
55	55	9
63	90	2
67	78	4
6	7	2
93	93	10
83	83	6
19	19	8
80	84	3
21	21	9
127	135	2
19	20	4
15	28	1
75	75	6
96	103	6
114	115	4
126	126	7
91	91	3
30	30	3
105	117	3
38	131	1
89	89	3
84	85	5
125	126	4
35	103	1
22	28	3
17	19	3
0	7	1
30	38	1
42	133	4
39	130	2
21	23	3
52	52	1
125	125	7
113	114	2
37	38	1
134	135	3
46	89	2
48	50	1
33	81	1
28	29	6
9	9	5
22	23	3
107	125	3
0	1	2
79	88	1
62	64	3
77	88	1
43	43	2
37	81	2
64	84	4
34	81	1
64	91	2
121	126	2
87	130	2
101	101	7
23	26	5
120	133	2
11	134	1
125	133	1
122	122	5
54	129	1
112	113	4
10	92	3
4	6	1
83	96	1
113	116	8
48	60	1
32	34	5
21	28	6
47	47	5
6	8	4
75	79	2
54	55	2
68	69	3
84	84	4
84	100	1
70	71	2
11	12	1
8	9	2
73	73	3
98	103	2
122	123	3
18	23	1
70	81	4
33	53	4
98	99	2
97	106	3
108	110	3
109	109	1
84	87	3
4	62	2
16	17	1
88	89	2
76	76	3
113	129	1
23	79	1
43	129	1
25	37	3
10	11	6
76	77	1
100	112	1
26	37	1
111	129	1
132	133	1
74	88	1
32	36	4
35	85	1
62	80	1
120	134	2
115	128	2
73	77	1
2	21	2
36	86	1
78	81	1
118	121	2
107	108	2
112	125	1
126	132	2
59	59	1
95	134	1
95	99	1
36	85	3
33	33	3
10	18	3
75	85	1
56	57	1
102	103	3
85	94	3
36	37	1
77	78	2
108	129	1
64	74	1
46	67	2
3	37	2
28	53	3
84	86	1
35	95	1
34	34	3
16	77	3
73	84	1
118	120	1
23	62	1
9	10	1
87	127	2
74	77	1
69	69	2
99	105	1
93	94	1
11	13	1
110	129	3
21	30	1
64	65	1
37	77	1
20	21	2
31	58	1
103	104	1
124	126	3
82	87	1
3	34	1
76	109	2
83	97	1
30	82	1
87	122	2
26	27	1
72	72	1
50	54	1
90	133	1
65	68	2
12	65	2
110	119	1
81	85	1
97	98	3
86	107	1
13	64	1
19	29	1
78	88	1
66	66	4
91	93	1
89	133	1
68	86	1
110	113	1
6	14	2
22	34	3
42	47	1
118	119	1
68	74	1
52	56	1
48	73	1
87	110	1
60	65	1
45	45	1
62	72	1
18	22	2
111	127	1
35	86	1
42	91	1
110	126	1
66	75	1
99	122	1
87	106	1
60	70	1
