62	62	8
58	58	4
98	98	1
68	68	10
115	115	3
133	133	9
1	1	3
95	95	2
128	128	5
79	80	6
9	20	1
35	35	5
69	69	18
4	4	2
5	35	2
75	75	3
146	146	5
20	36	3
34	53	4
128	129	2
61	61	9
126	138	3
79	107	1
76	76	5
79	79	11
78	109	1
67	67	1
118	118	3
78	107	1
80	81	3
105	105	6
114	140	3
38	41	7
88	90	3
134	134	3
72	72	3
56	56	4
93	94	2
11	11	5
6	37	5
43	43	3
19	19	7
22	22	12
125	139	2
39	39	5
138	138	4
122	139	1
92	92	3
94	95	3
49	50	2
34	52	7
80	80	8
112	112	2
68	69	2
10	11	1
49	51	1
17	17	3
49	49	10
74	75	2
6	6	5
117	117	3
41	42	5
54	54	5
74	74	7
34	34	4
16	16	11
64	64	2
71	71	2
122	122	5
140	140	12
1	2	2
89	90	2
142	145	2
52	52	4
33	33	4
132	132	2
78	79	1
12	12	4
2	2	2
63	63	3
123	123	7
119	120	1
143	143	6
87	89	3
96	96	3
60	60	11
40	41	2
37	56	6
113	113	4
28	60	1
41	41	12
139	141	2
139	139	3
58	59	2
29	33	2
100	100	5
144	146	2
91	91	5
97	119	1
121	139	2
107	134	4
24	24	2
13	13	3
112	117	2
6	13	4
126	141	2
124	124	5
39	41	3
82	82	1
25	25	4
83	83	3
38	38	2
48	48	8
40	40	4
120	126	4
1	41	5
104	104	6
53	53	9
136	136	8
14	14	9
30	37	3
38	39	3
28	48	4
103	118	5
119	126	2
141	141	8
21	21	3
15	23	1
126	126	4
77	86	1
105	110	5
37	38	2
59	59	4
3	14	3
106	129	2
9	33	3
87	87	3
133	135	1
65	81	1
31	31	4
121	124	1
94	108	3
101	102	2
124	139	3
30	62	2
97	98	3
99	99	3
70	70	5
37	37	2
101	101	4
21	35	1
50	51	4
9	9	4
35	36	1
15	18	1
8	8	6
49	52	1
102	103	3
28	51	2
94	110	3
130	131	3
6	25	1
68	70	2
110	111	2
59	61	3
128	132	1
89	89	1
125	126	3
81	82	6
73	73	2
15	15	1
8	9	2
109	110	2
99	137	1
91	92	1
27	37	1
76	78	2
23	23	3
129	129	3
6	21	1
98	101	4
50	50	2
103	103	2
104	117	1
131	131	2
84	84	4
106	107	2
55	55	1
94	94	7
12	55	4
28	30	1
0	39	2
97	102	2
106	106	7
145	145	2
109	111	3
110	110	2
4	42	1
28	28	5
92	93	4
42	42	2
57	57	1
51	51	2
41	133	2
90	90	3
125	125	1
127	127	2
101	137	1
130	133	2
52	59	2
27	33	2
113	118	2
65	66	1
20	21	2
9	10	2
8	22	1
139	140	1
32	32	2
142	142	2
13	18	2
93	93	2
120	120	1
20	20	1
66	66	4
77	77	3
31	62	2
116	116	1
5	5	1
13	14	1
71	72	1
137	137	1
66	67	1
109	109	1
65	65	4
3	26	1
10	10	1
144	145	2
100	124	1
97	118	1
87	88	1
34	56	1
34	47	2
57	62	1
97	97	1
1	27	1
93	110	1
90	91	1
107	107	1
33	52	1
36	36	1
11	18	1
121	121	1
39	132	1
32	43	1
