109	109	6
136	139	1
146	146	1
134	134	4
55	55	14
36	37	4
114	115	6
39	39	11
80	123	3
8	8	6
106	106	9
41	41	15
20	23	2
61	61	9
68	69	6
27	27	9
6	14	5
93	93	6
26	27	3
104	104	7
52	52	5
53	53	4
56	56	11
96	123	2
42	47	6
108	109	3
71	71	16
128	129	2
102	102	19
70	70	5
120	120	5
103	106	2
48	48	6
37	37	8
58	59	7
61	62	6
105	105	8
99	99	9
99	106	4
19	19	10
18	20	6
129	129	3
2	6	1
40	70	3
34	34	3
49	57	3
99	102	4
107	107	8
116	116	23
33	34	2
47	48	3
4	4	4
138	138	10
66	75	3
114	120	3
63	63	9
23	69	3
74	74	11
18	18	4
10	11	7
91	92	3
25	25	6
59	60	3
88	88	10
143	143	3
90	91	3
7	36	4
89	90	5
30	30	14
75	75	6
74	86	3
10	10	9
29	29	7
5	5	10
33	33	2
28	28	8
101	101	4
23	23	6
53	54	2
76	76	7
6	34	3
115	117	7
65	65	8
134	138	1
62	64	1
96	96	6
88	89	6
131	131	9
22	22	4
95	95	3
100	129	5
89	89	2
4	5	5
49	49	9
110	111	2
51	51	17
142	143	2
89	91	2
17	17	11
97	98	7
97	97	7
83	83	3
107	109	1
126	129	3
135	135	16
93	141	1
132	132	5
33	47	5
86	89	3
54	54	8
94	113	1
128	128	6
64	64	12
0	1	2
0	2	1
120	121	4
17	19	3
81	97	2
2	2	7
6	6	1
84	84	4
120	122	1
77	79	2
39	69	1
72	73	6
117	117	10
3	9	3
26	26	1
50	52	5
13	26	2
145	145	1
98	128	5
112	112	2
99	105	2
102	109	2
32	32	4
124	125	6
118	123	4
137	140	1
122	122	8
21	22	3
92	93	7
77	87	3
123	124	4
94	94	15
68	68	2
58	60	2
20	21	4
64	65	5
41	48	3
90	90	7
42	42	8
62	83	2
76	110	2
109	110	3
81	100	2
102	107	2
42	72	2
78	79	3
11	11	5
137	138	2
71	73	3
126	140	2
5	20	4
126	126	13
53	55	2
77	78	2
130	131	3
2	3	6
103	103	4
85	88	1
83	87	1
38	42	2
9	10	5
18	19	5
110	121	2
21	28	1
118	118	8
80	81	7
47	47	3
37	48	3
76	77	3
12	12	3
50	50	6
130	130	5
77	77	6
80	80	2
139	139	4
82	82	8
73	73	6
60	61	7
18	31	3
111	111	5
19	20	4
41	49	2
50	58	2
114	114	4
5	11	2
110	112	1
55	56	11
58	58	2
82	97	2
23	24	1
142	142	5
11	14	2
96	97	1
43	43	6
85	85	5
122	123	2
121	121	3
16	16	4
15	15	1
101	105	2
136	136	4
88	116	1
48	53	1
20	20	11
27	28	3
19	31	2
33	77	2
144	145	2
31	62	3
113	113	2
92	92	4
144	144	6
32	64	1
43	73	2
33	50	2
6	21	2
67	68	2
74	80	1
0	0	2
125	125	6
99	100	3
82	131	1
6	11	1
122	133	4
121	123	1
16	51	1
83	84	1
1	8	1
40	40	6
98	98	4
41	42	1
93	126	1
63	64	3
37	89	2
111	112	6
78	124	3
100	107	3
30	51	1
31	31	11
89	140	4
6	10	1
118	119	4
46	46	2
84	87	1
57	57	4
92	140	2
16	84	3
66	91	1
72	72	2
101	103	1
74	75	1
60	60	3
78	78	10
35	36	3
133	133	8
141	141	5
14	32	1
126	127	5
37	73	5
33	53	2
91	91	1
84	85	1
124	124	3
73	86	1
102	106	1
15	54	3
93	94	4
133	139	1
62	63	2
101	107	5
128	132	1
52	53	2
123	123	6
6	26	2
118	120	1
56	57	4
115	115	5
121	139	1
87	87	1
125	139	2
25	26	1
110	110	5
102	108	4
119	127	1
98	126	3
85	140	1
15	55	1
94	117	2
31	65	1
125	134	2
51	52	2
26	37	3
85	86	3
81	81	5
42	71	1
69	70	1
87	97	2
66	66	2
50	60	2
22	27	1
129	130	1
127	138	1
127	133	3
89	128	2
119	125	1
34	35	7
27	29	1
95	125	1
100	100	2
59	73	2
35	35	1
12	26	1
87	88	1
33	42	1
40	58	1
104	106	1
59	61	1
12	27	1
50	51	2
80	110	3
9	9	5
121	138	1
14	14	3
1	2	1
82	84	1
82	85	1
116	117	4
2	53	2
126	139	2
103	108	2
13	15	3
101	102	1
118	122	1
59	59	1
13	35	1
62	62	1
75	93	1
133	135	1
3	8	1
37	38	1
67	67	1
70	71	4
65	85	1
35	47	1
77	80	2
3	4	2
127	137	1
98	101	1
85	114	1
79	110	1
102	129	1
98	99	1
119	124	1
20	31	1
133	137	1
108	108	1
2	12	1
120	123	1
32	47	1
33	51	1
99	103	1
137	137	1
99	101	1
47	49	1
6	7	1
76	84	1
21	21	1
130	132	1
30	70	1
