13	13	4
75	75	2
31	31	6
79	93	6
93	93	15
1	1	5
101	101	8
132	132	12
17	24	4
85	85	2
65	65	11
57	58	1
4	42	4
89	89	2
113	113	8
26	26	11
58	64	2
2	4	7
17	25	3
102	102	12
118	118	10
63	63	5
19	19	7
86	86	6
3	17	4
112	112	7
125	126	6
60	60	7
92	92	3
121	134	1
79	96	4
104	104	5
21	21	10
53	53	1
49	49	7
96	107	3
12	12	7
5	5	5
6	6	4
82	82	6
22	22	5
66	68	2
84	84	5
28	28	5
20	20	11
22	23	7
80	106	3
38	38	1
69	69	9
62	63	4
67	76	1
128	133	2
18	18	5
0	0	6
88	105	1
24	25	1
130	130	3
94	106	8
67	67	12
94	94	1
94	107	2
91	92	3
0	14	3
15	15	3
97	97	7
133	135	2
73	73	3
105	105	2
42	42	3
99	99	3
29	29	9
120	120	11
20	47	1
125	125	2
0	28	1
106	107	4
78	78	5
95	105	1
9	9	2
77	78	2
82	117	2
10	10	4
77	77	7
83	106	4
45	46	4
88	119	2
25	25	7
87	87	3
49	50	6
72	72	6
115	116	3
124	124	1
126	126	4
6	7	1
128	129	3
71	72	3
86	87	3
34	64	3
134	134	5
3	24	5
64	65	8
24	28	2
42	53	4
16	29	1
111	112	5
80	80	2
58	59	1
85	118	2
8	8	4
66	66	3
0	27	1
33	60	2
88	88	7
79	79	2
127	127	8
90	91	3
103	103	3
33	70	1
58	69	3
59	59	5
129	129	6
105	107	1
108	110	6
88	121	2
9	10	4
33	34	1
122	122	4
114	114	4
8	11	4
90	90	2
18	29	1
61	63	1
110	110	2
95	95	4
132	133	2
87	96	2
119	119	9
14	14	2
71	73	1
24	24	1
69	108	2
115	115	3
74	74	1
48	48	5
113	128	2
95	96	3
122	123	5
0	3	3
34	34	4
38	49	2
77	108	3
4	8	3
61	62	3
75	104	1
29	30	3
46	47	1
55	55	3
111	117	5
36	36	2
52	64	2
3	3	1
108	108	1
44	44	3
79	108	1
45	45	1
125	134	5
81	81	1
3	25	1
59	74	2
62	91	1
57	62	2
116	116	5
13	14	1
16	16	1
30	30	2
43	43	4
4	22	2
71	71	1
4	5	1
73	75	1
61	61	1
65	66	1
20	21	1
46	48	2
23	23	2
121	121	2
114	115	1
68	76	1
70	73	2
76	76	1
34	35	2
80	83	2
60	61	1
112	122	1
27	30	2
58	108	2
98	98	1
19	20	2
66	67	1
92	110	1
113	118	1
86	97	1
2	17	2
112	134	1
78	106	1
123	124	1
100	100	2
104	105	1
127	128	1
128	128	1
54	54	1
93	94	1
100	101	1
0	15	1
