156	156	6
96	97	1
50	51	3
44	44	6
88	88	6
69	108	4
68	69	2
140	140	4
3	4	2
67	86	3
114	115	2
56	56	4
69	69	5
97	97	4
125	125	8
32	32	10
93	93	11
73	73	9
17	18	4
51	52	2
1	2	4
18	78	6
20	20	1
64	64	4
130	130	8
91	106	3
34	34	16
152	155	3
47	110	4
70	71	1
3	3	8
21	21	3
67	67	7
117	144	2
68	68	4
28	29	4
45	45	7
148	148	8
72	73	2
12	30	4
65	69	2
104	104	5
117	121	3
118	118	9
8	39	1
2	2	3
111	116	1
22	22	11
105	106	1
113	113	5
77	77	7
43	43	1
13	16	1
119	119	3
79	79	2
89	89	5
56	57	8
128	128	1
47	49	2
126	126	15
84	110	3
15	16	3
16	17	3
53	53	6
95	95	3
99	103	1
109	109	3
150	151	3
145	145	2
39	65	1
117	117	9
108	108	3
9	9	1
94	94	6
85	85	3
15	15	9
25	26	3
159	159	4
115	115	3
121	121	3
7	7	2
33	33	3
141	141	8
98	98	1
40	41	1
86	87	1
35	36	2
158	158	3
124	124	3
55	55	1
92	92	2
26	26	4
131	131	3
81	81	7
38	38	6
116	116	3
116	144	2
146	147	2
16	19	1
142	143	1
117	133	1
87	87	4
5	5	1
75	75	3
125	152	2
85	111	2
84	109	1
135	135	4
14	14	3
47	47	6
99	99	7
63	63	1
67	90	2
66	66	2
12	14	3
108	110	2
122	133	3
13	13	3
155	155	5
73	102	1
130	131	1
37	38	1
96	96	2
42	42	5
6	6	1
133	134	4
37	37	3
18	18	11
142	142	5
48	48	6
25	25	7
151	151	5
129	129	5
90	91	1
36	36	3
10	69	1
18	47	1
11	14	3
136	136	6
95	96	2
0	0	1
137	137	4
4	6	2
52	52	6
48	49	2
48	89	1
2	7	1
37	57	2
144	144	3
3	17	1
122	122	5
83	84	3
80	80	5
47	51	2
146	146	2
70	70	6
40	40	3
105	132	1
1	1	3
51	53	1
64	66	2
29	29	5
89	90	2
53	54	4
9	29	3
78	79	2
139	139	4
17	17	3
33	52	1
111	111	3
128	129	3
91	91	3
69	72	2
114	138	5
100	100	1
27	27	4
51	108	2
12	12	1
125	126	1
76	76	3
50	50	3
8	8	4
40	42	2
82	84	4
66	67	1
45	56	3
94	95	2
10	10	6
127	127	2
120	120	5
79	80	4
123	123	4
134	134	2
32	50	1
51	110	1
122	123	1
12	15	2
54	54	2
116	142	4
157	158	1
147	148	1
34	42	3
8	9	2
155	156	2
20	21	2
106	106	3
66	69	1
24	32	2
17	19	1
123	139	1
114	134	2
71	98	2
101	101	2
152	154	1
51	51	8
153	153	5
49	50	2
6	7	1
129	148	1
46	56	1
98	100	2
121	144	3
145	146	4
100	101	1
73	100	1
63	82	1
30	30	2
85	95	1
22	23	2
70	108	2
46	46	7
112	112	5
144	145	2
145	147	1
19	21	1
109	116	3
133	133	4
111	112	2
114	114	5
137	138	1
67	68	3
150	150	4
11	11	2
32	33	1
86	86	2
16	16	2
138	138	1
50	109	1
147	147	2
12	17	1
112	116	1
88	89	1
12	73	1
153	154	1
76	82	2
71	71	2
34	41	3
67	97	1
102	103	2
106	140	1
152	152	3
24	25	2
64	72	4
122	126	1
78	78	3
83	83	1
57	57	1
113	114	1
132	133	1
132	132	1
118	120	1
55	73	2
123	124	1
71	87	1
123	148	1
68	93	1
121	122	1
105	105	2
113	137	1
18	19	1
82	82	1
131	132	2
24	24	2
4	4	1
47	48	1
2	35	1
18	70	1
77	107	1
84	84	1
23	25	1
69	70	2
80	84	2
19	19	1
23	23	1
54	55	1
106	107	1
121	153	1
25	31	1
110	111	1
8	24	1
36	43	1
74	74	1
38	43	2
17	82	1
49	49	1
3	10	1
13	18	1
10	16	1
47	50	1
139	148	1
90	90	1
72	72	1
86	88	2
72	99	1
3	23	1
136	137	1
101	106	1
34	43	1
