165	165	1
48	48	6
42	68	5
149	153	1
10	67	2
54	54	4
82	82	10
59	60	4
28	28	12
114	194	1
140	147	3
127	130	2
43	43	1
105	105	1
161	161	1
4	4	6
180	180	2
148	154	2
111	121	2
112	123	3
182	184	1
45	45	3
3	4	2
2	18	3
193	193	5
154	154	1
57	58	3
60	61	3
164	164	4
186	187	1
178	189	2
99	121	1
99	146	2
12	12	1
35	87	5
96	97	1
26	26	1
44	88	3
99	100	2
163	163	7
114	114	2
98	122	4
16	16	4
119	132	2
17	17	1
108	109	2
33	34	3
95	95	3
111	137	6
161	165	4
172	172	1
64	78	3
52	52	2
71	71	3
189	189	1
42	67	1
73	73	6
144	155	2
39	39	3
42	42	5
94	96	5
169	180	1
46	70	3
15	18	1
107	107	3
23	24	2
40	192	1
197	197	6
159	190	2
2	16	1
51	51	4
33	55	2
46	46	6
44	78	2
162	173	2
40	40	4
190	191	2
125	127	7
170	170	4
56	63	7
140	152	1
114	158	4
110	110	5
33	33	8
62	63	1
178	178	2
144	149	1
109	110	1
158	158	4
173	173	3
31	31	1
128	179	2
57	57	3
71	77	1
64	197	2
12	58	4
14	14	2
121	123	1
160	190	3
4	164	4
186	186	3
170	171	1
76	77	2
18	18	3
168	171	1
5	166	2
144	145	2
69	69	3
94	95	4
102	106	1
83	83	6
143	174	3
35	35	1
5	191	3
124	130	2
89	89	3
18	88	2
58	59	1
11	12	4
159	192	1
26	34	3
150	160	1
24	24	2
6	6	3
114	125	1
9	188	1
79	79	6
184	184	4
139	143	3
135	137	2
141	141	3
136	136	2
122	122	3
196	196	3
169	169	1
115	115	3
99	99	2
130	130	1
148	168	1
2	19	1
141	153	1
183	183	2
122	123	1
140	148	2
106	107	1
151	163	2
160	162	1
29	29	1
187	187	1
10	15	2
30	41	1
6	16	1
12	39	1
27	27	1
65	65	2
160	191	1
114	116	1
127	127	3
30	30	2
112	113	3
148	148	4
119	133	5
118	130	1
143	143	4
192	192	1
117	117	2
173	175	3
98	111	2
84	84	1
30	43	2
103	106	3
194	194	2
21	40	1
185	185	1
12	38	1
165	166	2
22	32	2
191	194	1
66	66	2
51	57	1
194	195	3
156	178	1
4	166	1
102	102	1
81	81	2
99	147	1
1	1	2
153	153	2
76	84	3
21	21	1
23	87	2
43	44	2
129	129	1
159	191	3
3	3	1
31	64	1
120	124	2
38	38	2
57	63	1
154	169	3
65	66	2
39	40	2
59	186	2
93	93	1
98	98	1
56	57	2
0	0	2
25	87	2
59	62	3
58	68	2
23	35	2
44	64	1
176	177	3
77	77	3
144	153	1
128	128	1
93	191	1
88	90	1
87	87	2
9	10	1
42	63	2
3	18	1
55	56	2
148	155	1
84	85	2
166	166	1
114	133	1
101	102	2
116	116	1
94	111	1
100	100	2
22	22	1
149	149	1
190	190	3
168	168	1
13	13	1
9	177	1
191	191	1
56	56	1
59	68	1
76	76	1
2	7	1
63	197	1
142	142	1
112	122	1
150	150	1
0	26	1
78	78	2
25	29	1
47	47	1
113	113	2
119	119	1
104	119	3
32	32	1
64	65	1
101	111	1
156	156	1
13	14	1
80	81	1
167	167	1
61	61	1
152	152	1
103	103	1
118	132	1
29	41	1
100	134	1
85	85	1
138	138	1
100	146	1
