24	25	6
49	49	20
105	105	4
22	22	10
115	116	4
75	102	2
21	22	3
3	41	7
76	76	15
127	127	3
43	43	6
63	64	10
2	2	2
132	132	15
67	67	15
8	8	8
69	69	5
108	109	2
77	79	2
60	60	11
43	44	2
79	80	7
22	33	2
87	87	9
28	28	15
89	90	6
107	108	6
16	19	5
122	123	7
58	58	5
23	23	10
105	121	3
13	126	3
56	56	11
116	116	10
14	73	2
47	60	2
54	54	11
97	100	7
0	0	8
65	65	11
11	31	4
121	121	6
72	126	2
75	131	1
93	94	3
12	12	16
82	83	2
92	94	3
65	66	6
30	31	3
3	3	15
74	74	5
92	92	5
71	71	2
118	118	1
127	128	4
55	55	6
123	123	14
98	98	7
50	50	4
108	118	1
31	32	8
13	74	1
83	83	5
93	93	13
34	34	4
53	53	7
72	72	4
63	63	1
110	111	4
112	112	5
26	29	3
16	16	4
76	98	9
66	66	6
122	122	4
113	123	3
94	94	7
80	80	15
95	95	7
80	81	3
121	125	1
46	68	3
119	119	4
81	85	2
117	117	6
18	19	3
15	15	4
6	14	1
81	82	2
6	6	2
128	130	3
29	29	5
0	1	3
75	76	1
81	81	22
71	72	2
58	132	3
69	114	4
113	113	9
103	104	8
4	4	2
94	95	4
31	31	14
120	120	11
39	42	5
62	64	1
48	48	12
27	27	4
14	14	4
75	100	4
4	28	2
126	127	3
115	115	6
112	113	3
48	133	2
90	99	1
78	79	2
21	21	6
42	42	3
13	72	2
97	98	2
78	78	7
46	46	13
32	32	2
58	61	3
100	100	11
59	104	4
73	73	8
26	26	11
101	102	2
114	114	9
46	78	3
1	42	3
19	19	6
25	25	4
28	29	1
64	64	5
68	119	8
5	5	5
39	39	5
42	43	2
47	47	11
94	96	2
128	129	1
8	27	3
121	124	1
84	84	3
116	117	3
16	18	2
67	127	3
98	99	2
62	75	3
33	38	1
118	119	10
71	74	2
31	131	3
68	68	5
82	82	8
91	93	5
46	71	1
108	108	1
45	46	5
50	94	8
96	97	5
14	15	5
9	9	7
126	126	4
96	96	6
77	78	1
61	61	3
12	32	1
6	18	1
109	109	7
121	123	3
26	114	2
41	47	2
83	84	1
62	62	2
31	111	1
7	7	1
5	11	2
81	98	1
82	95	3
110	110	5
122	133	4
52	52	5
20	20	2
86	86	3
110	123	3
23	24	6
45	73	2
51	51	3
33	33	4
15	16	7
130	130	3
22	24	1
38	72	1
22	34	2
124	125	2
109	118	1
33	34	1
14	127	2
85	85	4
89	98	1
70	70	5
39	40	2
38	39	2
24	24	3
104	104	4
54	56	1
99	99	2
88	89	3
11	11	1
77	77	5
13	15	1
124	124	5
7	8	3
2	5	3
40	64	1
79	79	3
18	18	4
123	124	1
13	129	2
57	78	1
3	10	1
67	70	1
39	63	2
39	64	1
69	70	2
109	110	1
48	49	4
89	89	4
79	82	4
13	13	5
17	17	8
97	97	1
105	106	7
105	123	2
33	125	1
73	74	1
68	115	1
99	100	1
3	39	3
50	93	3
14	39	1
18	22	1
89	91	3
39	130	2
106	107	4
39	102	1
4	11	3
49	93	1
41	41	2
111	116	1
24	31	4
14	74	2
131	131	1
120	121	3
108	117	3
102	102	4
111	111	2
90	91	1
82	85	1
64	65	1
68	128	1
44	44	1
54	55	2
30	30	4
41	44	1
75	97	4
59	59	1
16	17	2
91	91	2
6	32	1
50	51	1
1	113	2
10	22	2
19	20	1
127	129	2
45	45	2
56	98	1
49	133	1
69	115	2
101	101	1
24	32	1
107	107	1
2	27	1
60	61	3
82	97	1
106	106	2
63	69	1
10	10	1
78	96	1
31	112	1
105	125	1
126	130	1
75	75	1
40	46	1
100	101	1
72	73	1
130	131	1
10	15	1
12	13	2
57	100	2
128	128	1
15	101	2
45	47	1
87	88	1
121	122	1
73	126	1
48	132	2
57	57	1
1	31	1
60	103	1
60	62	1
22	38	1
111	112	1
50	52	1
2	3	2
38	38	2
40	40	1
28	40	1
40	103	1
55	56	1
1	10	1
67	118	1
124	133	1
47	63	1
