121	121	13
132	132	10
51	52	5
160	162	1
14	14	13
2	4	4
92	92	4
136	139	2
106	107	4
52	53	5
131	131	7
44	44	10
174	174	16
26	27	2
179	179	2
76	77	2
42	42	8
152	152	9
110	110	17
67	67	14
171	172	4
151	151	11
7	7	10
154	154	7
6	7	3
154	155	1
66	67	3
150	150	2
19	19	6
64	64	8
26	26	18
123	124	7
170	179	1
106	153	1
90	90	5
38	58	3
159	159	12
162	176	1
39	151	3
3	4	10
95	95	4
41	41	10
84	84	9
158	158	15
114	114	4
11	13	2
168	169	5
147	147	9
148	148	8
119	119	6
94	94	15
59	60	11
96	96	13
162	165	2
70	70	4
36	36	8
165	165	8
75	75	3
63	63	6
177	177	3
113	113	3
160	160	10
26	28	5
18	18	6
88	88	16
82	110	2
65	67	4
20	20	7
35	36	1
81	81	9
55	57	2
108	149	3
54	54	12
66	66	11
99	108	5
4	4	4
139	139	9
129	130	1
86	89	6
52	52	8
35	35	3
81	83	2
82	122	5
77	118	1
85	89	4
103	103	5
74	74	6
173	174	3
140	140	2
134	135	8
40	40	2
11	12	1
76	76	2
29	63	2
53	112	3
165	166	10
137	137	6
148	149	2
106	106	23
27	28	1
172	172	6
58	90	1
146	146	10
102	102	5
165	178	3
41	42	4
128	128	4
145	148	6
142	147	3
94	95	4
43	44	2
118	118	13
96	100	3
158	159	6
123	125	3
175	175	6
169	169	5
157	157	10
9	9	10
161	161	6
92	96	1
43	43	2
68	68	5
110	111	4
105	107	12
3	3	9
22	22	18
112	135	2
136	136	6
155	155	7
108	108	5
29	29	6
89	89	9
91	91	4
37	37	4
75	76	7
170	172	3
53	53	10
16	16	7
57	58	3
45	45	1
4	7	4
104	105	4
12	22	2
6	6	5
126	126	10
146	148	1
170	170	4
42	44	2
172	173	4
114	115	4
176	176	3
78	79	2
84	85	2
167	167	5
128	129	3
36	37	4
28	28	5
162	162	5
72	72	10
93	93	10
171	173	3
51	51	9
169	178	4
56	56	4
107	107	2
135	136	9
50	51	7
1	1	8
71	72	2
73	73	24
111	111	12
161	162	4
138	138	5
153	153	5
66	90	2
166	167	3
156	156	6
49	90	4
144	152	2
12	12	4
79	125	10
88	126	1
101	101	4
67	68	3
21	22	4
82	86	3
80	80	3
24	24	5
13	13	8
169	174	2
113	114	11
97	97	4
143	145	3
57	57	7
22	24	3
51	53	4
93	115	3
109	110	2
65	65	9
169	170	5
123	123	3
92	94	1
111	112	5
2	3	7
142	143	2
77	77	6
7	27	5
33	34	2
71	71	3
82	82	10
5	33	2
150	151	3
135	135	6
104	104	1
91	92	8
142	142	6
11	11	11
107	110	1
40	41	2
31	32	2
27	38	3
95	96	4
10	10	2
91	93	2
32	32	4
122	122	3
61	64	1
19	22	2
55	127	1
30	30	7
99	99	5
88	102	1
101	102	2
177	178	2
108	110	3
100	101	2
14	17	1
120	120	5
9	10	4
2	2	3
173	173	7
38	38	4
133	133	1
24	25	3
157	158	3
27	27	4
79	79	1
180	180	2
75	123	1
104	108	2
105	105	7
149	150	7
141	141	3
13	16	3
153	154	2
12	13	3
168	168	5
129	129	6
41	150	6
130	130	9
112	115	3
134	134	7
155	156	2
33	33	4
60	61	2
146	155	3
116	116	2
93	95	1
54	55	3
19	23	1
104	106	1
34	34	2
89	113	2
62	62	4
98	100	1
159	175	3
85	86	4
56	64	1
8	17	2
61	63	1
164	166	4
81	87	5
59	59	2
55	56	1
144	144	6
134	179	2
60	60	4
85	85	3
145	152	5
75	122	3
15	17	3
80	81	1
103	104	2
4	9	2
23	42	2
153	156	2
141	150	4
164	164	10
86	86	2
80	124	2
168	174	2
39	39	4
0	0	2
88	90	1
95	121	2
174	175	4
115	116	2
96	97	3
144	154	1
15	18	3
122	123	1
23	23	1
100	100	1
60	99	1
4	5	2
130	131	4
135	140	1
166	166	4
61	61	6
5	5	3
145	146	2
76	120	2
178	178	2
10	11	1
14	33	1
156	157	3
159	161	1
6	8	2
149	149	1
62	71	3
175	177	4
157	160	3
170	180	2
0	5	1
160	161	1
136	141	1
98	98	7
111	119	3
8	10	2
34	35	1
5	7	2
109	109	1
8	9	1
109	113	2
103	105	2
6	14	2
143	153	1
67	101	2
101	103	2
163	163	6
11	14	1
53	113	2
159	160	3
80	125	1
88	89	3
58	58	1
107	112	2
24	35	1
143	143	1
139	140	3
10	30	1
70	71	1
18	19	1
155	161	2
65	66	3
71	121	1
4	11	1
3	8	2
168	170	2
84	86	1
105	109	1
75	78	1
19	20	2
16	32	1
89	90	1
96	99	1
162	166	2
27	30	3
50	52	1
50	53	1
25	36	1
133	140	1
49	49	1
122	125	2
171	171	2
178	179	1
132	133	1
44	45	2
21	21	1
39	40	1
130	137	1
162	167	1
10	44	2
28	29	1
51	87	1
17	17	1
73	75	2
81	84	1
108	111	1
107	109	1
12	26	1
117	118	2
43	51	1
113	135	1
167	168	1
80	82	1
81	82	1
54	86	1
126	155	1
15	15	2
10	35	2
127	127	3
83	85	1
55	115	1
125	125	1
58	59	1
151	168	1
8	8	1
128	164	1
102	104	1
173	179	1
37	73	1
155	160	1
145	145	1
