187	188	11
167	169	4
212	219	6
169	169	6
204	216	2
133	133	3
134	134	4
205	205	3
150	151	3
65	67	1
235	235	8
191	191	13
241	241	5
125	125	9
175	175	5
63	116	1
7	7	3
130	130	10
59	75	1
183	183	6
233	234	4
234	234	23
170	192	2
236	236	11
5	6	3
23	23	6
131	132	3
159	203	1
179	179	4
57	58	1
107	107	12
8	9	5
195	195	6
27	27	17
31	31	3
97	97	3
138	138	6
178	179	5
224	224	9
70	70	9
4	4	7
100	100	5
100	121	3
122	122	4
220	221	3
190	190	3
172	172	6
176	176	11
227	228	2
47	47	11
204	204	7
210	212	4
57	57	17
215	215	9
62	74	4
82	83	3
147	148	11
210	230	4
180	180	3
177	177	6
237	237	6
95	95	1
231	231	4
14	14	11
207	212	2
13	36	2
152	152	2
22	67	3
67	73	4
102	102	5
76	77	4
149	160	2
219	219	2
217	233	1
216	216	9
30	113	3
68	75	3
112	112	8
0	8	2
239	239	5
64	65	3
123	123	3
115	115	9
190	191	3
221	223	3
213	213	2
166	166	6
189	189	6
105	105	13
198	198	6
5	5	6
120	121	2
77	77	12
49	72	4
52	53	2
199	199	10
205	206	4
1	2	1
170	171	6
141	141	4
110	110	8
182	183	7
139	139	6
240	240	7
74	74	12
198	237	1
55	55	5
230	230	7
24	24	4
182	182	7
2	4	1
186	186	5
218	242	2
99	99	7
15	33	1
242	242	4
15	16	6
163	167	1
76	76	8
69	69	5
178	178	6
50	51	2
120	125	2
222	222	9
235	237	2
11	11	4
159	161	2
154	155	6
29	30	5
145	145	13
114	115	12
171	171	10
178	192	2
28	135	3
52	52	9
121	121	8
101	109	1
175	177	3
182	186	1
72	72	4
184	184	6
28	28	3
104	105	3
116	118	1
75	75	9
71	71	4
130	132	1
127	127	10
18	20	3
9	9	8
45	47	5
229	229	9
101	106	3
112	126	3
233	233	1
228	229	5
238	239	1
178	202	3
66	67	2
12	13	4
129	149	4
109	113	4
131	131	2
188	188	10
165	165	2
161	203	2
80	80	8
180	190	3
30	30	6
195	199	3
59	59	5
17	17	8
128	128	8
154	156	2
46	57	1
138	139	3
53	53	6
13	14	5
120	122	4
101	101	7
46	47	4
106	120	2
44	191	2
140	141	9
201	201	12
156	156	8
192	192	7
135	149	1
45	55	2
6	7	3
211	211	1
21	21	6
34	35	2
129	129	6
193	193	12
11	12	5
194	194	2
131	173	4
12	37	2
154	154	8
58	59	1
154	167	2
129	133	4
25	25	12
146	146	6
142	194	6
203	203	8
156	157	1
56	57	8
71	73	4
203	204	2
112	125	2
156	162	1
229	242	4
0	1	7
198	199	3
12	31	2
46	46	15
68	69	1
98	98	7
155	158	1
111	111	8
70	71	4
5	9	3
109	109	5
38	38	8
221	221	6
7	20	1
35	35	9
0	2	2
163	163	7
156	158	1
81	82	5
86	86	9
65	66	1
111	126	2
155	155	6
59	66	2
26	26	5
150	170	2
212	213	7
202	202	5
202	203	3
118	139	3
8	14	1
33	33	10
49	49	5
163	164	1
208	208	10
218	218	8
42	42	5
232	232	6
74	75	3
65	79	2
199	200	1
151	170	2
16	16	14
75	77	2
24	29	4
103	103	4
31	34	3
142	143	3
164	164	8
60	67	4
39	60	1
0	0	6
73	74	8
113	113	6
155	156	7
107	108	2
1	7	2
167	168	10
223	224	4
62	63	2
150	152	3
39	39	9
32	32	2
147	147	6
43	43	4
44	45	1
2	2	6
79	80	6
214	214	7
13	13	9
140	140	3
166	170	1
38	63	3
204	231	1
106	107	7
75	78	4
206	206	5
137	138	4
124	124	6
236	237	6
197	198	3
36	36	14
217	218	5
152	158	1
182	185	7
119	119	10
229	230	2
108	124	1
181	184	2
49	52	5
236	238	5
223	225	2
3	4	3
48	48	3
226	226	10
53	100	4
197	197	3
210	210	3
81	84	2
158	158	3
29	114	1
132	132	1
36	39	2
206	215	1
20	20	2
140	150	2
224	225	2
53	101	2
166	179	2
141	143	4
15	15	12
138	142	3
29	29	6
65	65	3
10	10	3
41	41	3
226	227	1
235	238	4
170	170	3
24	116	3
1	9	1
200	200	7
44	44	11
174	174	4
161	161	4
54	55	6
215	216	6
143	143	6
68	68	1
25	71	2
18	18	7
14	33	4
139	142	1
200	210	3
241	242	1
60	60	3
195	196	4
181	181	7
117	117	4
162	162	4
104	104	3
159	159	4
73	73	5
135	135	5
169	172	1
179	192	1
18	221	4
67	68	5
214	216	2
158	162	1
207	207	4
124	143	2
41	108	1
44	47	1
159	172	1
8	8	6
149	149	5
167	167	2
151	151	8
238	238	8
68	77	1
175	176	1
12	33	1
130	133	2
223	223	6
45	54	1
73	75	1
84	84	5
234	235	5
14	29	2
55	121	4
184	187	4
161	164	1
54	54	3
106	106	3
26	27	1
193	195	1
16	17	4
38	39	2
12	12	2
144	145	3
224	227	2
193	196	2
3	3	3
146	147	1
60	80	2
169	170	1
147	169	1
190	198	1
136	136	8
173	173	5
144	144	1
200	213	5
22	68	1
2	14	1
150	150	2
2	20	1
30	136	2
56	58	2
110	113	2
183	184	4
33	34	2
95	103	2
83	83	5
108	112	1
105	124	1
81	85	3
192	195	1
199	205	2
111	125	2
85	85	1
168	169	1
148	148	5
64	116	2
133	134	3
1	1	4
15	23	3
64	64	5
22	23	4
164	179	3
11	13	4
184	192	1
153	153	5
79	79	4
124	125	2
211	212	1
191	198	2
35	36	2
182	187	3
214	215	2
198	206	1
208	209	4
217	217	2
209	210	1
101	110	2
55	112	1
174	192	3
63	63	6
19	19	2
119	125	2
187	187	1
198	200	1
24	161	2
45	45	2
29	113	1
82	82	3
193	201	1
209	209	1
99	232	1
128	130	1
34	34	6
164	165	3
186	190	3
13	15	1
40	40	5
58	58	4
124	126	4
186	187	3
228	228	1
170	172	1
226	228	1
180	182	1
160	160	3
203	206	1
152	170	2
165	210	3
165	205	1
4	20	2
149	152	4
20	22	2
153	154	5
159	199	1
220	220	2
64	117	2
203	205	2
225	225	1
50	50	4
62	62	2
7	14	1
222	228	3
204	215	3
108	108	3
179	183	1
81	81	4
40	59	1
28	41	1
61	61	4
66	66	3
66	116	1
184	185	7
24	224	1
12	32	1
40	42	1
71	72	3
51	52	3
31	112	1
100	112	6
148	149	2
65	71	1
120	120	2
69	70	1
42	44	1
88	88	2
219	242	2
104	124	1
3	20	1
86	88	2
6	8	2
208	230	2
28	31	2
173	174	3
67	67	1
116	116	5
168	186	2
21	30	1
146	148	2
20	25	1
66	79	3
122	124	2
37	37	2
30	47	1
221	226	1
127	128	1
185	186	1
201	203	2
239	240	1
198	201	2
31	41	2
22	22	3
45	66	1
42	110	2
212	212	2
118	118	2
223	226	1
200	201	2
137	137	2
5	21	1
200	204	1
61	62	1
43	46	1
19	21	2
86	123	1
179	194	1
151	194	1
7	8	1
17	19	1
169	183	2
113	114	1
18	19	2
145	148	3
176	177	1
0	114	1
110	139	1
110	135	1
185	187	2
121	232	1
174	175	2
102	128	1
101	122	1
109	134	1
100	111	1
162	209	1
126	126	1
222	223	1
17	23	2
84	88	1
187	197	1
157	157	4
80	81	1
26	31	1
60	84	1
78	78	3
211	213	1
6	6	2
45	46	1
211	221	1
2	5	1
18	222	1
59	60	2
142	142	1
66	89	1
20	21	1
149	182	1
139	140	1
96	97	1
142	169	1
118	126	1
29	31	1
221	222	1
1	162	1
