46	46	19
62	85	5
101	101	21
82	82	33
68	68	73
20	21	3
92	92	21
32	32	9
78	78	36
100	100	26
31	84	1
49	49	27
88	89	20
59	59	13
29	29	17
42	42	17
87	93	5
97	97	16
38	38	12
70	71	5
69	69	34
67	68	10
63	75	3
89	90	6
62	62	25
34	34	26
52	52	21
25	25	23
98	98	21
41	43	1
86	86	34
39	39	35
73	73	42
65	66	11
67	67	39
76	76	39
79	80	18
89	89	29
48	51	3
74	74	49
56	58	8
31	32	8
53	53	34
38	45	4
63	63	51
40	40	18
87	87	22
54	55	2
84	84	49
66	73	4
71	71	26
23	33	3
98	99	9
62	63	13
71	72	12
72	73	3
41	64	3
50	50	21
61	61	46
84	86	13
88	93	5
88	88	46
75	78	2
75	86	6
37	45	2
83	87	3
72	72	31
48	49	3
33	89	1
61	88	1
93	95	1
94	94	13
81	81	39
70	70	72
75	75	49
100	101	3
66	66	36
46	47	16
66	74	4
41	41	22
54	54	15
33	33	22
31	31	21
92	93	5
36	37	9
79	79	38
30	30	19
64	64	32
77	77	28
24	97	2
40	65	4
27	27	23
27	28	16
86	87	25
48	48	35
27	61	4
63	64	12
60	60	15
25	26	11
22	22	7
33	100	3
87	88	25
75	76	9
73	74	20
99	99	29
96	97	3
48	50	12
62	64	5
68	69	12
78	79	10
90	90	23
66	76	1
58	60	2
39	93	2
57	57	9
24	33	2
69	70	12
28	28	5
96	96	28
45	45	15
34	100	4
81	82	17
44	45	1
29	81	2
31	99	3
83	98	5
97	98	4
35	35	18
65	72	4
95	96	6
47	47	22
91	91	18
74	75	8
65	65	33
43	71	5
66	67	14
47	48	9
67	70	1
24	25	5
56	59	8
85	86	16
49	51	4
61	89	6
62	67	5
79	81	7
61	100	2
72	74	6
46	79	1
32	81	2
85	85	19
61	62	12
28	84	2
37	37	15
81	93	2
83	83	25
39	48	2
34	35	7
69	78	3
55	66	3
95	95	17
90	91	10
55	55	13
66	72	1
83	85	3
99	100	10
86	90	3
50	51	6
101	102	3
80	81	5
72	77	3
35	86	2
38	39	3
43	43	15
46	84	3
31	100	2
51	66	2
86	89	8
42	74	2
83	84	10
37	38	7
37	44	4
47	86	1
64	65	8
98	100	3
93	93	14
92	96	2
26	26	20
40	64	1
62	65	2
49	50	9
36	36	13
71	73	4
52	53	1
89	91	1
76	79	1
62	69	4
69	73	2
82	89	1
35	36	11
35	37	2
85	92	4
56	56	14
76	78	2
24	88	1
76	80	4
67	77	1
36	100	5
58	59	6
80	80	21
51	51	16
36	64	2
56	57	8
76	77	11
51	53	1
50	54	1
43	46	2
102	102	2
53	89	2
45	73	1
49	56	7
20	88	1
69	71	4
58	58	20
99	101	1
51	54	1
20	98	2
86	88	1
41	42	1
42	43	5
23	26	1
67	69	2
55	57	3
39	45	2
33	84	2
65	68	1
57	58	5
44	44	13
91	92	2
46	80	3
94	98	2
61	63	3
70	72	1
85	87	1
54	100	1
22	23	1
83	88	1
24	24	4
35	38	4
38	44	1
72	75	1
64	76	3
53	54	5
33	38	1
31	87	2
56	96	1
66	68	1
59	86	3
66	90	1
60	62	3
68	70	1
40	41	3
63	65	1
100	102	2
43	94	2
63	67	2
22	35	3
33	34	5
32	34	2
68	72	2
79	82	2
51	79	1
68	73	1
96	98	3
80	83	1
50	53	2
71	74	2
45	69	1
38	63	2
32	33	1
69	76	2
57	87	2
69	84	1
37	39	4
55	56	2
81	87	1
59	60	1
23	23	3
84	87	3
86	91	1
64	78	1
64	93	1
33	99	3
28	29	4
48	55	1
26	45	1
42	73	3
68	101	2
56	71	1
38	101	2
48	85	1
46	94	3
60	61	5
36	69	1
40	42	2
69	72	1
45	79	1
39	60	2
29	46	3
44	46	1
77	85	2
60	86	3
67	89	2
39	62	5
77	78	3
20	20	4
39	94	1
70	73	2
88	92	4
36	86	1
50	66	1
22	24	3
26	27	3
29	30	1
51	52	2
77	79	1
84	85	1
64	86	1
79	83	1
62	89	2
92	99	1
70	75	1
67	76	2
75	80	1
37	101	1
63	69	1
38	48	1
59	63	1
45	46	2
39	40	2
26	29	1
63	73	1
34	101	1
90	93	2
23	56	2
80	93	2
81	95	2
54	58	2
27	29	1
84	88	1
88	100	1
70	78	1
63	70	1
44	71	1
60	63	2
74	76	1
51	96	2
71	85	1
93	94	1
60	64	1
63	68	1
57	61	1
53	55	1
64	101	1
25	33	1
