43	43	3
112	114	3
24	24	1
131	132	1
107	118	1
90	90	5
87	88	3
53	53	2
108	126	1
37	37	5
101	115	2
40	40	12
126	126	1
125	125	4
111	111	4
118	118	8
41	42	3
10	10	5
41	41	7
91	92	1
34	36	1
124	124	4
13	16	3
109	109	4
114	114	4
94	96	1
18	19	2
83	83	10
57	57	4
100	100	1
34	37	2
11	14	5
20	20	5
144	146	3
95	96	1
11	13	2
147	148	2
122	150	4
21	22	4
99	99	4
23	24	1
102	103	5
12	12	5
47	47	2
100	102	1
129	130	3
106	106	7
44	44	3
78	78	3
48	48	5
27	27	8
107	129	1
76	76	4
150	150	6
50	72	2
115	115	5
97	98	1
111	112	4
81	81	7
15	15	8
51	53	2
114	116	2
107	107	6
86	87	2
84	84	2
129	129	2
68	68	8
88	88	3
128	128	5
93	98	1
9	10	3
31	31	2
130	130	3
68	70	4
10	13	1
94	94	4
113	113	8
16	17	3
77	78	2
85	86	5
79	79	3
63	63	3
116	116	5
122	154	2
154	154	6
148	149	3
6	6	7
5	14	1
54	54	2
137	137	5
39	40	6
69	69	5
128	129	4
49	49	1
83	84	4
42	42	7
127	127	6
86	86	3
55	55	7
103	103	2
113	114	2
46	46	3
136	136	3
152	153	5
72	76	2
69	70	2
3	15	1
101	101	2
132	133	1
83	122	2
121	121	4
3	3	2
108	108	4
144	144	1
24	38	1
11	16	3
124	125	2
73	73	5
16	16	5
132	132	7
122	122	3
112	113	3
103	105	2
122	147	2
92	92	1
26	26	3
152	152	4
98	98	6
17	17	3
85	85	4
127	128	1
28	31	1
96	102	2
106	107	3
2	3	1
110	110	3
2	15	1
29	33	3
5	16	1
120	121	2
135	135	2
74	74	4
149	149	3
48	53	2
104	106	2
5	5	1
107	108	1
69	71	1
121	147	1
30	30	1
120	120	2
9	9	1
4	4	1
83	85	2
35	35	2
50	70	2
28	29	2
149	150	1
146	146	1
2	14	1
55	56	2
75	76	1
122	123	2
121	122	3
64	64	4
133	133	1
81	83	3
8	11	1
138	138	1
153	153	1
75	78	1
84	85	1
68	69	1
13	14	1
77	77	1
17	18	1
77	94	1
28	28	1
63	66	1
150	151	1
121	138	1
78	107	1
102	109	2
122	149	1
28	32	1
113	116	1
