32	32	2
119	119	12
118	118	20
28	28	8
94	97	5
95	95	11
14	14	11
18	18	11
13	13	8
26	30	2
77	77	5
37	41	3
17	107	1
50	50	10
9	9	10
29	29	7
62	62	4
147	147	9
66	66	9
34	36	4
34	34	8
38	38	12
21	22	1
140	140	5
33	56	2
100	100	19
11	12	10
53	53	7
105	105	9
46	47	5
81	84	4
40	41	10
8	88	3
93	93	11
24	25	4
86	87	3
109	109	6
19	22	2
98	121	3
110	110	14
35	39	3
123	123	10
43	44	6
128	144	4
63	68	3
83	83	3
135	135	11
72	133	3
127	127	4
137	137	5
128	149	1
8	8	5
70	70	6
138	138	11
63	63	5
125	125	3
34	56	6
11	14	2
98	98	7
47	47	16
98	99	7
71	71	10
28	29	6
84	84	3
31	32	1
41	41	7
145	145	9
130	144	2
11	11	4
92	92	1
48	48	9
17	119	4
105	108	3
72	73	5
40	40	17
49	49	1
16	17	1
52	52	3
126	126	2
94	94	5
85	85	8
62	66	4
93	98	3
6	6	4
64	65	3
33	66	3
134	135	5
21	21	5
42	42	9
143	143	2
85	86	9
75	75	5
20	20	4
54	136	2
125	129	1
19	20	1
51	56	4
115	117	5
146	148	4
100	101	4
111	111	7
133	133	5
148	153	3
146	151	2
107	108	3
24	24	7
69	70	3
51	51	3
152	153	1
131	131	11
9	92	2
7	10	4
35	36	6
53	135	1
113	113	6
72	72	2
24	95	2
13	102	1
6	32	3
54	57	2
126	150	4
148	148	1
137	154	3
150	150	12
12	14	1
15	15	4
122	122	9
25	26	5
58	58	2
88	88	5
12	30	2
153	154	2
4	57	1
106	106	10
140	142	4
104	108	3
115	115	3
103	103	4
80	81	2
17	118	1
15	104	1
136	136	7
74	75	4
38	39	2
56	130	1
22	22	11
73	73	4
124	124	2
74	74	7
134	154	4
9	99	3
57	57	6
132	133	6
33	34	6
34	35	5
26	26	7
104	104	5
25	25	6
33	94	3
64	64	5
10	10	15
65	65	5
56	56	3
73	133	2
94	95	4
35	35	3
4	5	4
39	39	3
110	111	5
132	132	12
17	17	4
112	112	3
139	139	5
126	143	3
128	128	4
48	87	2
43	45	1
69	69	1
33	35	1
62	69	1
117	117	2
104	105	1
124	139	2
138	153	2
99	99	7
93	95	2
96	96	7
146	147	3
27	29	1
129	129	3
37	37	2
7	8	2
37	38	3
36	39	5
35	57	1
41	45	3
14	94	3
140	141	6
107	107	2
16	16	9
6	7	5
81	81	4
141	141	7
65	146	3
29	30	1
7	92	1
12	13	6
125	127	1
10	12	5
80	80	3
149	149	4
114	114	2
4	10	1
54	54	7
18	118	1
44	44	3
63	71	1
9	93	2
14	15	2
73	74	3
63	65	2
134	134	2
31	54	2
4	8	1
130	130	4
43	43	4
3	4	1
30	53	2
40	46	2
125	151	2
31	31	7
62	80	3
7	7	4
96	100	1
37	129	1
42	132	4
5	6	3
151	151	2
67	67	2
94	138	2
109	119	3
101	101	3
19	23	2
133	134	3
15	94	3
19	19	8
47	48	5
63	154	4
131	132	2
8	10	2
78	87	1
36	36	6
68	68	8
39	45	2
11	25	1
46	46	7
33	33	2
86	86	4
68	69	3
97	97	7
65	67	2
142	142	5
45	45	2
85	88	1
5	5	3
102	102	2
17	103	1
30	30	5
154	154	3
149	151	2
103	110	4
9	10	7
80	134	4
3	3	3
136	142	1
53	128	3
53	136	3
64	145	2
78	78	3
4	79	1
7	93	4
38	41	4
45	55	2
108	108	3
109	113	1
9	24	1
27	27	7
13	103	2
121	121	4
77	78	2
116	117	2
120	122	1
71	78	1
41	53	2
116	116	2
138	142	1
104	111	1
4	4	3
133	140	2
32	57	3
26	31	5
17	109	2
13	27	2
36	45	4
125	149	1
42	43	4
31	53	1
77	84	3
130	131	1
76	76	2
65	127	2
129	130	1
55	65	1
115	116	1
126	127	1
47	49	4
120	121	2
113	114	2
15	16	2
17	23	1
38	120	1
89	92	2
65	145	1
63	66	1
123	151	1
76	77	1
7	57	2
104	120	1
26	27	3
77	83	1
50	57	2
102	103	2
129	131	1
123	129	2
112	113	1
10	11	1
23	23	1
122	131	1
137	150	1
124	125	2
83	85	1
136	154	2
117	118	3
14	26	2
87	87	1
55	55	1
13	29	2
90	90	1
119	122	1
62	78	1
109	122	1
100	102	2
14	99	1
30	48	2
32	103	2
31	55	3
64	67	2
31	102	1
73	148	1
132	140	1
12	28	2
27	47	1
44	87	1
92	93	1
124	154	1
126	146	1
125	150	2
64	66	1
103	108	1
67	127	1
121	152	1
119	121	1
121	122	1
66	67	1
118	134	1
12	12	3
144	144	1
19	31	1
37	45	1
116	118	1
99	100	1
101	102	1
4	6	1
96	136	1
