59	59	27
76	91	1
97	99	7
36	44	3
41	41	5
31	31	23
56	56	16
40	43	3
53	55	3
51	52	3
23	58	1
104	105	4
89	90	5
25	54	1
70	98	3
99	99	9
85	85	19
58	58	12
93	94	10
91	92	8
100	100	19
40	41	13
33	33	15
94	96	3
30	80	3
52	53	3
54	54	17
28	28	9
25	28	4
57	57	19
77	77	23
94	94	19
49	50	14
102	102	29
45	50	8
80	80	11
65	66	9
43	44	8
23	23	23
66	66	10
90	90	15
46	46	10
30	52	4
79	80	7
64	64	23
78	94	1
32	32	28
95	98	2
82	82	14
46	47	2
31	32	12
20	27	1
95	102	3
26	26	7
66	67	8
75	76	8
37	37	16
68	68	17
36	36	8
51	51	17
62	63	3
81	81	7
25	27	2
63	63	9
79	79	4
58	71	4
21	22	5
104	104	13
36	39	3
71	71	12
70	70	15
91	91	24
62	62	13
79	82	2
20	20	4
50	59	1
80	82	4
42	43	2
30	36	5
48	48	4
93	93	5
25	52	4
21	21	17
83	83	11
67	68	7
45	45	17
50	50	17
35	35	38
87	87	8
42	42	9
72	72	9
45	49	6
98	98	12
74	77	1
22	22	15
65	80	1
103	103	17
55	55	19
86	86	5
103	104	2
84	85	4
79	88	3
61	61	9
64	65	4
69	69	9
54	55	2
89	89	4
60	60	12
21	24	5
92	92	14
36	89	2
59	60	2
41	42	7
74	74	13
20	24	8
39	39	16
107	107	2
87	88	2
75	75	17
76	76	10
55	56	5
86	87	6
20	21	1
96	98	1
52	52	4
34	34	2
65	65	7
44	44	5
47	48	7
67	67	10
102	105	2
73	74	12
25	25	16
27	47	2
105	105	5
74	75	1
42	48	2
49	49	10
73	73	16
68	69	5
60	61	2
30	30	6
40	40	5
71	72	6
35	36	5
22	25	2
96	96	5
50	51	4
53	62	3
95	95	12
48	60	3
72	98	3
30	39	6
22	23	1
77	91	1
85	86	7
83	84	6
78	78	6
57	61	1
84	84	5
82	92	2
95	99	2
101	101	8
42	53	2
43	43	6
88	88	6
32	41	4
78	93	1
30	51	3
29	29	7
71	99	3
52	62	3
92	93	1
38	38	9
56	57	4
56	58	2
22	37	2
38	48	2
81	89	2
26	46	1
79	93	5
62	64	1
88	89	1
92	94	1
32	40	2
33	34	1
46	48	2
60	66	3
44	45	5
82	89	2
95	100	2
20	58	5
86	89	1
29	38	1
82	83	2
86	88	2
29	30	5
77	78	5
78	82	3
35	66	2
70	72	4
69	70	3
51	64	2
64	73	1
87	97	1
72	73	5
70	71	3
24	30	1
97	97	6
47	47	5
95	96	2
24	24	6
24	49	1
57	58	1
80	81	3
98	99	1
34	39	2
36	37	3
93	95	1
69	78	2
94	95	2
22	106	2
55	57	1
84	86	1
44	51	2
31	33	3
90	91	1
64	82	3
48	49	3
94	102	2
43	45	2
21	31	1
22	27	2
25	26	1
51	62	1
56	59	1
53	82	1
88	96	2
53	54	3
71	73	1
106	106	1
74	91	1
26	27	1
65	103	2
26	47	1
51	65	1
96	97	1
58	68	1
45	64	1
