130	130	1
137	137	1
126	126	4
83	83	6
11	11	6
164	165	8
22	23	5
143	143	3
155	157	2
4	5	2
72	73	3
119	133	2
13	14	1
24	26	3
7	8	3
77	77	6
144	144	4
26	26	5
44	56	5
12	12	1
168	169	1
35	39	1
134	134	5
42	138	5
128	128	7
131	131	5
102	102	2
76	76	2
154	155	3
153	154	4
45	51	1
8	8	1
151	151	12
43	43	9
50	50	4
18	20	2
138	138	10
135	135	8
49	50	2
96	97	5
36	36	3
122	123	4
34	35	7
41	42	3
66	66	4
152	153	1
42	76	3
136	137	3
65	65	4
46	46	3
127	127	9
113	117	4
106	106	7
12	13	2
68	69	4
167	167	3
146	146	5
122	122	2
53	53	6
80	82	5
64	66	2
23	23	8
88	88	6
21	22	1
39	40	5
56	56	6
100	100	3
19	84	2
52	53	3
42	42	7
150	150	2
35	35	3
129	152	1
74	74	2
35	134	1
36	37	1
85	93	1
4	4	2
116	127	1
169	169	1
162	163	1
126	128	3
100	105	2
140	140	1
141	141	5
27	37	3
94	94	4
114	116	2
78	79	3
15	15	6
165	166	2
109	109	2
26	37	2
48	49	5
101	112	2
33	33	5
127	137	1
118	118	3
132	132	6
64	65	1
23	24	3
95	95	2
112	134	2
48	50	1
91	93	1
165	165	3
67	67	4
92	93	3
138	154	3
18	18	4
35	36	2
72	72	4
121	122	1
148	148	2
71	71	2
111	111	5
45	45	1
50	51	2
0	23	3
105	106	1
62	63	1
17	17	2
52	52	2
44	74	1
1	8	3
104	104	4
157	157	6
1	2	4
9	10	1
119	119	4
161	161	2
112	113	2
43	44	2
70	70	9
40	41	3
6	6	7
133	133	2
41	114	2
74	90	2
66	67	1
150	151	1
62	65	1
54	55	1
99	99	1
166	166	1
62	62	3
90	93	1
99	107	3
25	26	1
11	13	1
90	90	5
124	124	2
5	7	5
10	10	3
141	142	3
104	105	1
35	37	1
50	55	1
19	83	3
67	69	1
65	85	3
21	74	2
110	112	4
135	162	1
83	85	1
20	21	1
85	85	4
158	158	3
85	86	7
128	137	1
79	82	1
147	147	1
43	74	1
164	164	3
33	37	2
84	84	3
121	125	1
51	51	3
106	107	2
138	139	2
19	21	3
39	39	1
153	153	2
46	47	1
68	68	1
67	68	2
111	116	2
108	108	10
37	37	2
89	89	1
8	14	1
21	21	2
47	49	1
53	54	2
127	130	1
98	99	1
47	48	2
17	84	2
74	82	1
125	126	1
70	109	1
117	117	1
97	98	1
74	76	2
145	145	1
135	137	1
113	113	1
15	16	1
100	106	1
41	41	2
3	3	1
16	16	1
9	9	1
7	7	1
17	18	1
49	83	1
93	95	1
106	108	1
13	13	1
58	58	1
62	83	1
14	14	2
78	78	2
54	54	1
159	160	1
48	48	1
114	117	2
107	108	1
152	152	1
86	87	2
44	44	1
13	15	2
161	165	1
70	71	1
22	105	1
136	136	2
116	116	1
148	149	1
160	160	1
22	27	1
86	86	2
88	89	1
110	110	1
107	107	1
27	27	1
14	87	1
25	25	1
12	14	1
