55	55	6
112	134	5
53	53	9
21	25	2
118	118	1
29	29	11
56	56	3
94	95	2
71	123	4
19	19	4
80	81	2
27	27	5
134	134	11
18	18	7
36	36	4
144	144	3
129	129	14
50	53	4
111	111	10
107	107	6
113	135	2
7	7	2
116	116	4
94	94	8
135	135	5
72	73	2
22	22	6
63	63	2
13	49	2
12	12	4
7	63	1
28	28	5
44	46	2
73	73	17
62	62	5
45	53	4
36	37	1
28	29	3
45	45	15
106	106	8
45	46	3
114	114	3
80	82	6
42	42	7
44	45	2
46	46	7
82	82	4
23	23	8
95	95	2
12	13	5
48	49	2
77	81	1
96	96	1
148	148	7
70	70	7
101	101	2
32	32	3
150	150	5
119	119	9
37	37	6
112	113	9
6	6	4
123	131	1
122	124	5
7	65	1
149	149	3
120	120	6
13	13	13
110	123	3
68	68	3
32	74	1
10	10	12
128	128	2
44	44	3
112	153	2
2	2	2
24	24	9
30	30	4
138	138	3
36	101	6
54	54	4
152	153	4
113	113	4
18	19	4
136	136	9
113	114	2
124	125	2
20	21	1
117	150	3
110	110	4
99	99	4
69	69	8
128	129	2
78	93	1
38	41	1
22	135	2
110	151	3
21	21	5
77	77	1
38	38	3
150	151	3
43	44	4
72	80	3
33	33	6
26	66	3
102	105	4
4	5	2
40	40	4
43	43	4
3	3	6
83	126	2
7	81	3
23	24	3
4	64	6
91	149	2
86	86	2
118	127	4
25	25	5
144	145	5
95	96	2
27	31	2
9	15	2
79	81	1
124	124	2
33	34	1
46	47	1
142	142	3
109	109	5
51	51	5
141	141	1
42	43	5
143	143	2
139	139	4
84	84	1
14	15	1
114	116	2
115	115	1
90	90	2
17	17	3
48	48	1
80	80	1
3	23	4
154	154	4
66	66	4
32	63	1
133	133	3
118	150	2
74	74	2
138	139	3
50	50	2
5	11	1
67	67	2
117	117	2
36	64	1
122	122	2
4	6	2
127	151	5
76	77	4
82	87	1
64	76	1
10	14	1
146	146	1
127	144	1
37	52	3
8	35	1
48	50	2
141	142	1
9	9	1
95	112	1
88	88	1
76	76	6
34	34	3
39	40	1
74	80	1
16	16	4
4	33	1
106	118	1
99	100	2
4	4	1
20	20	2
110	138	1
69	70	1
102	102	2
118	119	4
151	151	1
87	87	4
98	98	3
5	64	2
102	104	1
95	135	2
129	132	2
35	35	2
136	137	2
147	147	2
93	97	3
76	78	3
97	98	1
75	78	2
15	31	1
64	65	1
6	61	1
8	65	1
11	11	1
152	152	2
68	69	1
130	130	1
127	128	1
97	97	1
110	122	1
48	68	2
5	8	1
24	25	1
101	102	2
132	132	1
71	124	1
108	108	2
71	71	2
127	140	2
52	54	1
10	16	1
33	36	1
17	19	1
96	106	1
39	39	1
86	132	1
129	131	1
136	148	1
112	112	1
123	123	1
