29	65	3
27	27	14
60	60	9
39	39	26
61	65	2
3	3	18
75	75	23
48	49	7
68	68	6
37	37	13
80	80	17
66	67	15
42	42	19
43	57	2
54	54	30
49	49	16
7	7	39
55	57	1
15	15	14
55	55	41
29	29	23
63	63	22
26	26	22
33	35	1
30	30	28
71	71	20
41	41	27
72	72	17
79	79	35
5	5	8
12	12	6
42	43	6
4	36	6
73	76	2
11	11	16
16	20	3
0	0	17
20	20	9
59	59	19
28	28	22
59	63	2
6	6	15
52	53	4
50	50	12
15	21	1
40	42	15
12	15	3
46	47	8
25	25	9
70	70	19
6	50	3
35	35	15
8	8	28
74	74	16
31	31	20
10	10	8
12	31	4
56	56	31
19	19	16
49	58	2
32	34	2
76	77	4
57	57	31
65	65	21
62	62	22
15	32	2
47	51	2
22	22	4
12	13	2
2	2	17
21	21	13
3	4	4
55	59	5
16	25	3
61	61	19
53	53	7
63	64	10
76	76	15
40	40	19
32	32	14
4	4	19
80	81	7
45	45	15
37	59	4
47	47	9
5	33	1
34	34	21
19	20	5
48	48	20
36	37	3
67	67	12
8	32	6
13	15	2
61	62	4
9	9	11
66	74	2
51	51	12
64	64	18
17	17	27
8	31	3
4	5	4
47	48	2
33	33	17
64	65	10
14	14	10
1	1	18
66	66	31
56	61	1
11	21	7
25	31	2
0	80	1
52	52	14
29	32	3
59	60	12
73	78	7
2	65	1
29	30	2
77	77	12
46	46	15
74	77	4
55	62	1
36	36	13
69	69	9
78	78	21
16	16	9
46	50	1
43	43	9
6	9	3
25	26	12
34	35	6
44	55	1
75	76	6
16	21	3
65	74	3
32	33	8
52	62	1
54	55	2
13	13	12
70	71	3
50	58	4
28	30	4
2	64	1
0	1	7
18	18	10
51	52	2
25	28	3
13	21	3
70	77	3
78	79	5
7	8	1
2	3	2
51	53	4
58	58	4
10	11	8
17	45	3
73	74	11
61	66	2
50	51	3
55	56	8
25	67	1
31	32	10
53	62	3
20	21	5
8	9	4
19	41	2
45	49	1
59	62	4
15	39	4
8	10	3
54	57	2
75	77	2
50	52	3
6	7	3
71	72	5
5	35	4
37	38	1
73	73	17
33	45	1
17	46	2
70	76	1
49	50	1
17	18	1
51	63	5
33	34	5
56	57	2
34	73	2
33	47	1
19	28	5
79	80	5
9	10	2
53	54	3
56	62	3
38	38	5
35	38	4
26	27	2
8	30	1
36	47	5
7	35	2
37	39	3
59	61	2
46	51	1
12	71	2
11	22	2
40	41	2
15	16	2
41	43	2
16	17	1
67	68	2
54	56	2
71	77	1
20	66	1
69	70	1
58	59	1
44	48	1
15	30	1
41	49	1
71	73	1
49	53	2
61	63	1
61	64	2
27	29	1
6	35	1
65	66	1
74	75	3
38	78	2
1	2	1
36	39	1
68	69	3
16	33	1
7	73	2
2	4	2
60	64	1
68	70	1
60	61	1
10	31	1
39	40	1
38	39	3
27	28	1
15	17	1
12	14	1
56	58	1
3	37	1
1	57	2
31	71	1
46	48	2
49	57	1
20	41	1
29	66	1
15	38	1
26	31	1
19	25	1
46	56	1
10	13	1
