76	76	2
20	20	13
66	66	15
30	30	11
85	88	3
14	25	1
67	67	6
46	49	3
28	28	12
26	26	6
12	13	8
52	52	16
78	78	10
10	10	5
10	12	3
78	79	5
13	13	8
7	9	4
75	75	12
65	65	10
2	2	16
0	0	7
55	56	3
88	88	13
10	56	1
71	71	8
83	84	2
3	3	6
9	11	5
66	67	10
48	48	10
77	78	3
27	28	1
8	8	3
50	50	12
85	85	5
88	89	1
12	25	2
34	34	2
77	81	3
47	50	2
23	23	7
62	62	2
74	74	8
61	79	2
58	58	4
55	55	9
12	22	3
27	75	2
24	24	7
14	14	5
60	63	4
70	70	11
27	27	11
19	19	5
86	86	13
9	19	3
31	31	17
84	84	7
4	4	5
79	79	11
56	56	6
69	69	10
6	34	2
60	60	17
80	80	5
53	55	9
21	21	3
82	83	5
83	83	8
90	90	5
79	80	2
47	48	4
54	54	16
56	57	5
59	59	8
48	78	3
67	68	2
47	47	2
34	46	2
87	87	5
5	19	3
31	67	2
62	64	2
25	27	2
78	80	1
9	12	1
46	46	2
5	6	1
46	67	1
18	18	3
58	88	1
29	29	5
7	35	1
12	34	1
6	6	9
84	86	2
17	27	3
17	26	3
48	77	4
1	1	5
0	1	4
23	24	14
51	52	1
8	9	2
82	82	7
77	79	5
89	89	5
29	30	1
61	64	3
73	74	6
81	81	4
51	51	7
22	22	4
12	12	10
65	83	1
10	13	2
17	17	2
32	32	4
60	61	2
73	73	3
48	53	1
20	24	3
15	16	4
68	68	4
7	7	3
49	49	10
59	60	2
35	35	3
20	21	3
73	85	3
9	13	3
19	33	1
11	11	14
53	54	3
25	26	4
48	49	3
57	57	6
77	77	5
61	61	6
66	74	1
16	16	3
47	53	1
9	10	4
15	15	5
17	25	5
54	55	1
70	71	1
76	77	2
12	14	1
62	76	2
71	72	1
81	82	1
9	26	2
72	72	2
11	12	2
53	53	2
5	7	1
56	75	1
59	61	3
13	17	1
4	6	2
1	2	1
86	89	1
8	58	2
10	76	2
67	87	1
67	69	3
62	63	1
31	71	1
65	77	1
25	25	1
3	4	1
14	19	1
52	54	1
51	54	1
47	51	2
50	53	1
10	11	1
6	7	1
74	75	1
61	62	1
81	89	1
8	11	1
63	65	1
28	29	1
35	59	1
67	88	1
22	26	1
65	66	1
84	85	1
