72	72	6
73	73	13
85	85	3
57	57	13
53	53	7
33	33	19
41	41	4
58	102	1
103	103	8
77	77	15
66	66	11
105	105	6
45	45	6
59	59	16
74	74	12
54	54	4
20	22	5
67	69	2
70	72	4
95	95	13
70	71	3
83	83	11
79	79	9
38	93	2
75	76	2
61	61	10
92	92	18
82	82	12
84	84	13
21	21	11
35	35	18
87	87	23
80	101	4
31	31	4
95	96	3
52	52	13
98	101	2
51	51	9
70	75	2
56	56	21
86	86	16
45	46	7
99	99	14
96	98	3
40	40	8
79	80	1
55	55	13
30	83	5
36	37	4
44	44	13
37	37	5
47	47	2
43	43	4
38	38	8
49	49	19
56	57	3
62	67	4
50	50	21
63	65	4
35	36	3
22	22	13
96	96	12
67	67	14
50	52	2
85	86	2
24	54	3
69	70	3
55	60	2
90	90	10
103	104	4
39	39	13
32	32	14
31	83	2
39	40	4
35	50	3
49	106	1
36	36	5
97	97	7
89	90	2
27	28	1
66	70	2
66	68	5
21	40	2
100	100	10
25	49	3
71	72	5
65	69	3
67	68	6
55	56	2
41	43	2
42	42	2
53	54	2
28	28	3
29	29	4
71	71	5
24	50	4
75	75	6
90	91	2
78	78	5
39	106	1
82	86	1
63	63	10
69	69	8
101	101	15
37	83	2
97	99	2
31	94	6
31	82	5
62	62	8
88	89	4
94	94	7
94	95	4
73	74	1
72	73	4
64	64	4
62	63	1
48	48	6
65	66	5
64	66	2
23	23	4
51	52	2
68	69	2
93	93	2
25	54	1
69	96	9
76	76	7
49	83	1
46	49	4
88	90	1
84	85	4
21	99	3
24	24	4
50	51	3
34	35	1
61	62	2
98	98	3
20	20	7
70	70	4
65	65	4
104	104	2
91	92	2
81	81	6
25	27	3
102	104	7
37	49	3
24	25	3
82	83	3
29	30	3
46	47	2
42	43	5
105	106	3
57	92	2
26	101	2
46	46	2
30	30	3
39	99	2
63	64	1
34	34	4
99	100	1
29	84	1
25	26	3
77	78	1
68	68	2
100	103	3
106	106	3
43	44	1
91	91	5
29	48	1
83	84	3
76	78	2
23	24	1
107	107	2
55	92	1
50	83	1
93	94	2
41	45	2
38	47	2
58	58	5
26	26	2
81	97	1
86	87	1
81	105	1
96	99	1
89	89	1
66	67	1
103	106	1
47	48	2
72	93	1
68	70	2
98	100	3
57	58	1
80	80	1
74	75	1
102	102	1
31	32	1
73	99	1
88	88	1
92	93	3
35	80	1
102	103	1
56	103	1
21	101	1
60	60	1
58	59	1
24	55	1
