56	56	5
48	49	2
100	100	9
71	71	2
30	30	9
39	40	1
145	145	3
134	149	1
7	8	2
133	133	11
28	28	6
111	114	1
13	31	1
35	35	7
58	58	1
137	137	4
95	96	2
16	17	4
144	144	3
47	47	6
67	68	9
53	53	8
39	39	2
69	69	1
55	55	2
120	128	3
53	54	3
109	109	8
2	21	5
103	103	2
51	51	6
72	72	6
70	70	5
139	139	2
138	138	2
54	54	3
18	48	4
150	150	4
46	46	5
103	104	8
45	45	7
107	118	2
10	10	5
98	98	1
110	110	1
48	50	1
113	114	1
154	154	3
31	32	2
13	30	1
42	42	4
97	97	3
47	49	2
12	12	2
3	19	1
71	73	2
137	138	3
122	122	2
116	116	1
92	92	6
5	5	1
141	141	2
22	28	1
96	129	1
131	131	5
152	152	3
34	34	4
135	135	5
87	87	2
108	108	8
33	33	1
49	68	2
66	66	1
132	133	4
40	40	7
111	111	5
18	18	5
81	84	2
130	131	2
19	24	3
6	7	2
9	9	1
43	113	3
107	114	1
78	81	1
140	140	1
83	83	3
132	134	1
62	72	2
104	104	1
106	106	8
119	128	1
14	17	2
95	95	2
7	7	2
74	74	3
32	84	1
115	115	1
117	149	1
25	25	5
96	96	6
152	154	1
80	127	3
67	69	2
109	128	2
13	42	1
63	63	2
134	134	5
124	124	3
149	149	2
11	11	2
70	106	5
67	105	1
119	119	5
50	50	1
67	67	1
83	101	3
107	107	1
102	103	2
13	13	1
75	75	3
14	44	1
47	48	1
111	137	2
125	125	2
114	132	1
57	58	1
6	18	1
11	12	1
128	128	1
138	151	1
97	98	1
48	48	4
19	39	2
149	150	1
85	85	1
20	20	2
85	86	4
21	22	3
88	88	3
4	5	2
73	73	1
121	121	2
136	136	1
76	129	2
27	31	1
3	3	4
45	129	1
132	132	4
103	136	3
16	16	1
147	147	1
117	117	2
34	88	1
144	145	2
15	15	1
66	128	2
129	129	5
123	124	3
40	131	1
43	53	1
19	19	4
34	38	1
117	118	1
112	112	3
79	82	1
40	129	1
99	99	1
47	53	1
83	84	1
113	113	2
118	118	1
27	30	1
94	94	1
57	93	1
148	150	1
142	142	1
38	38	2
15	17	1
27	27	1
41	43	1
79	79	2
40	41	1
36	36	3
45	46	1
143	143	1
17	24	1
12	13	2
23	23	1
106	107	2
80	123	1
81	143	1
81	82	2
136	137	1
48	68	1
42	43	1
116	150	1
75	76	1
11	27	1
52	55	1
14	15	1
118	134	1
8	8	1
69	70	2
145	146	1
6	6	2
129	130	1
140	141	1
24	24	1
41	41	1
29	30	1
10	11	1
64	105	1
