146	147	5
4	4	1
60	60	3
9	17	1
15	50	9
155	156	4
156	156	3
19	135	3
70	70	1
111	112	5
113	114	3
139	179	4
17	17	3
74	74	1
160	160	2
50	50	10
135	135	9
139	149	3
146	169	6
146	167	2
82	82	4
105	131	4
112	131	5
8	108	2
178	179	5
1	127	6
145	145	6
179	179	4
147	147	2
2	2	3
148	168	3
95	95	4
142	142	1
168	170	2
63	63	1
103	103	4
153	175	4
165	167	4
164	164	5
35	35	2
61	61	1
87	87	6
148	148	5
124	124	5
144	144	1
51	51	5
113	113	2
128	130	2
59	172	1
77	77	4
104	105	2
84	84	4
75	75	3
133	133	3
3	3	3
172	172	9
92	92	1
129	129	2
55	55	3
5	6	3
61	159	2
152	153	2
141	141	7
12	12	5
81	82	5
77	78	4
122	122	10
52	132	4
138	138	8
73	73	1
170	170	6
121	130	1
151	163	4
81	148	3
130	130	4
37	37	1
115	115	4
18	18	7
92	93	3
112	112	2
143	143	5
145	146	5
36	44	2
96	96	2
157	157	2
93	93	4
120	120	4
71	71	5
94	95	3
174	174	3
149	150	3
134	134	6
139	139	5
60	61	7
104	104	5
82	177	1
33	114	1
37	40	2
144	145	1
40	40	7
9	9	4
134	137	2
90	90	5
76	77	8
85	85	1
94	94	4
56	95	3
137	137	3
176	176	4
14	49	2
101	101	2
66	66	4
22	112	2
58	58	2
36	43	4
126	126	2
45	45	2
116	116	2
108	110	1
11	13	2
115	120	1
100	100	2
63	160	2
10	10	12
76	76	3
62	64	1
53	54	2
150	172	4
162	162	1
78	78	1
80	80	2
62	62	5
55	136	3
65	65	1
74	75	2
59	75	1
23	108	4
44	45	1
27	27	2
127	127	5
24	127	2
163	163	1
167	168	2
81	93	1
33	35	1
167	167	2
89	114	1
140	140	4
20	20	3
57	57	3
38	38	3
67	71	1
34	44	1
159	159	2
153	153	1
119	120	4
64	64	2
83	83	2
154	154	3
11	11	3
146	146	3
114	114	2
32	33	2
103	104	1
56	56	2
21	22	1
155	155	2
123	125	2
17	132	4
54	63	2
108	109	4
121	121	3
24	128	4
93	94	2
65	160	1
107	108	1
32	32	7
61	62	3
96	175	1
119	119	4
7	129	1
72	175	1
133	134	1
16	17	1
24	24	1
6	7	2
8	18	1
8	17	1
87	92	1
54	55	2
156	157	2
101	102	2
178	178	1
104	131	1
57	160	2
23	23	3
59	59	2
80	168	2
20	111	1
26	26	1
6	29	1
41	41	1
59	161	1
72	157	2
21	110	1
144	147	1
0	0	1
11	12	2
23	126	1
169	169	1
148	171	2
66	67	1
164	165	1
125	125	2
29	29	2
102	102	1
68	68	1
89	90	3
79	80	1
8	9	1
88	88	1
161	162	1
43	43	2
54	54	1
108	108	1
1	125	1
107	110	2
86	86	1
128	128	1
5	5	1
132	132	2
81	81	1
30	31	1
