56	56	8
111	111	4
87	87	6
126	127	8
48	49	2
59	59	21
65	67	1
43	43	13
1	2	3
85	85	5
29	39	2
90	90	3
70	71	2
71	72	2
10	10	15
21	26	3
65	66	4
65	65	11
131	131	10
12	12	5
131	133	3
23	24	4
14	14	9
17	17	22
44	44	5
37	37	3
109	109	9
8	43	2
64	64	7
100	100	5
68	74	3
61	61	10
118	118	8
129	129	9
9	9	5
79	79	15
13	14	2
27	27	9
85	87	1
61	62	1
39	39	10
35	37	4
25	25	1
67	67	2
118	119	1
78	79	4
117	118	3
43	45	5
42	42	6
123	123	10
95	95	7
35	36	7
114	122	1
32	32	8
113	113	13
67	69	1
28	28	3
128	128	2
8	16	1
79	82	11
69	94	1
112	112	3
0	108	1
5	5	3
8	8	7
50	50	3
38	38	6
72	73	4
91	91	7
110	111	6
81	81	7
122	122	3
88	88	3
105	106	3
102	103	3
75	76	5
108	108	11
33	33	1
85	86	3
70	102	1
130	130	6
117	117	9
2	2	5
36	36	9
57	57	6
80	80	7
126	128	2
76	76	3
93	98	1
80	102	2
34	34	8
114	114	3
74	74	6
45	45	3
93	115	3
69	69	8
41	41	2
86	86	3
132	132	3
107	107	5
47	47	6
3	18	4
62	62	2
120	121	1
106	106	5
121	121	2
7	17	4
3	3	1
3	4	5
78	78	9
43	46	2
83	83	1
84	84	7
110	110	4
88	130	2
11	12	2
134	134	2
55	56	1
33	34	6
24	24	1
49	49	3
92	92	3
131	132	5
127	128	4
125	125	6
60	85	2
32	33	1
4	18	1
133	133	9
79	80	3
126	126	10
87	105	1
114	115	4
2	3	1
13	13	4
82	82	4
72	72	3
91	92	3
6	6	2
1	1	3
18	18	6
95	129	1
56	57	2
86	87	1
54	54	4
93	129	3
116	116	2
36	37	1
16	16	2
22	26	2
31	31	5
77	77	5
124	125	2
96	96	5
33	48	1
119	119	3
120	120	3
34	35	1
60	60	7
133	134	3
70	70	2
46	46	5
66	66	5
30	75	1
31	40	2
102	102	2
4	4	4
17	18	4
22	25	6
2	18	1
116	117	1
56	78	3
40	40	1
94	94	4
62	63	4
101	101	5
39	40	2
16	17	1
73	73	7
68	68	4
100	106	2
113	121	1
58	79	2
94	127	2
71	71	1
7	7	2
26	26	2
63	63	2
64	65	1
87	131	3
70	103	5
55	55	1
103	103	2
80	82	3
127	127	1
44	45	1
75	75	7
11	11	7
58	78	2
99	99	1
93	94	1
112	113	1
26	30	3
73	75	2
107	108	1
15	17	2
58	58	4
100	101	1
124	124	2
20	20	1
86	105	1
21	21	4
81	134	3
0	97	1
94	97	2
0	0	2
97	98	1
104	104	1
114	127	1
43	44	1
30	30	1
104	105	6
93	128	2
113	114	1
31	32	1
105	105	1
88	105	1
96	99	1
111	112	1
3	67	1
90	91	1
57	58	1
37	38	1
22	23	2
115	115	1
27	29	1
94	129	1
19	28	1
33	72	3
5	21	1
92	93	1
58	80	1
