191	191	3
11	11	3
112	120	1
180	182	4
156	182	1
47	47	17
109	109	2
108	108	4
2	2	5
36	37	4
25	25	5
0	0	5
27	28	2
64	64	2
165	179	3
183	183	11
194	194	3
116	116	4
156	183	2
185	185	5
5	8	1
29	30	1
162	163	4
77	152	1
71	71	5
130	131	1
105	105	2
0	21	2
24	24	9
172	173	1
35	36	3
142	142	6
44	44	9
19	19	8
43	45	3
121	122	1
41	88	5
167	167	4
28	28	2
12	12	12
186	186	7
53	53	10
44	45	4
106	107	2
137	137	4
15	184	10
165	165	3
67	68	5
42	116	1
48	48	5
88	88	6
99	99	9
93	93	4
130	133	1
114	114	9
168	168	12
8	191	4
113	121	2
41	82	1
154	155	2
36	36	7
36	65	2
118	118	7
102	106	2
134	134	3
144	145	5
46	46	3
100	100	12
62	62	2
182	182	9
33	33	10
13	99	2
184	185	2
45	45	2
102	102	5
143	143	6
23	23	8
179	179	3
117	118	3
98	98	3
146	146	2
100	101	2
142	143	1
68	68	4
166	166	3
132	133	4
176	176	5
154	154	1
118	154	2
164	164	7
95	97	1
76	77	1
131	131	1
87	93	3
130	130	3
110	110	2
22	23	2
107	107	2
176	178	1
38	38	7
54	57	2
126	126	4
80	89	1
150	150	5
39	90	4
144	144	6
17	18	2
75	75	3
58	58	3
185	186	1
115	115	2
70	70	6
139	140	3
134	135	3
16	78	1
72	72	9
110	111	1
99	153	2
152	153	1
82	83	1
104	104	3
8	186	1
149	150	2
132	134	3
152	152	5
14	15	5
124	124	7
27	27	2
61	61	6
57	57	2
81	81	9
145	146	3
17	77	1
137	138	4
58	59	1
118	119	2
56	56	3
124	125	7
197	197	5
127	127	8
94	94	1
187	187	5
168	171	1
19	189	1
148	148	3
135	135	7
80	80	4
14	77	2
10	11	1
175	176	1
182	193	2
41	41	4
169	169	11
9	9	5
158	158	5
123	123	3
113	113	9
85	85	2
101	101	6
20	21	5
96	97	3
78	78	6
13	13	4
193	193	7
190	190	2
97	97	7
157	158	3
151	151	4
103	103	4
141	141	6
34	35	2
161	161	6
63	68	7
99	120	1
29	34	1
196	196	3
119	119	9
71	72	3
145	145	3
1	192	2
155	155	3
86	86	5
102	103	1
61	62	2
126	127	4
147	147	4
4	5	2
172	172	4
187	191	2
50	50	5
125	125	3
189	189	6
54	54	8
171	171	1
22	22	2
10	10	5
157	157	7
160	160	1
81	82	2
27	85	4
8	8	4
112	112	4
57	72	1
100	104	1
147	148	2
19	22	1
45	125	1
40	40	2
38	39	1
96	96	2
104	105	1
21	21	1
135	138	1
191	192	1
54	55	2
183	184	2
74	75	1
142	144	3
60	60	4
175	175	4
55	57	1
52	52	5
31	32	1
43	185	1
161	162	1
97	98	1
41	123	1
192	193	2
83	83	2
151	182	1
26	28	1
27	84	1
156	161	1
4	4	3
67	67	5
31	31	8
117	117	2
149	149	5
9	10	2
30	33	1
166	167	1
37	37	7
127	128	1
122	122	1
31	35	2
32	32	1
77	77	2
1	1	2
51	51	2
174	175	3
181	182	1
14	14	3
143	145	2
78	79	2
101	153	2
116	122	1
153	153	1
85	86	2
18	18	7
65	65	3
82	82	4
87	87	5
6	7	1
183	193	2
132	132	1
1	158	2
114	115	1
173	174	1
78	87	1
16	79	2
20	188	1
15	15	2
38	87	3
165	178	1
155	170	1
59	60	1
16	117	1
95	96	2
39	39	2
84	84	1
89	89	3
107	109	3
103	106	2
50	53	1
17	183	2
165	167	3
59	61	2
18	19	2
150	153	1
128	128	2
130	132	2
79	79	3
59	62	2
179	181	1
38	71	1
94	97	1
33	70	2
113	118	2
168	170	1
93	94	1
48	50	2
34	36	1
60	61	1
121	129	1
29	29	2
43	43	3
131	138	2
5	6	1
162	162	1
161	180	1
41	42	1
6	6	1
139	139	3
170	170	1
166	169	5
52	53	2
190	192	1
66	66	3
74	74	2
136	136	1
129	129	3
157	159	2
106	108	1
136	138	2
42	43	1
65	66	1
143	146	2
16	184	2
162	192	1
168	172	1
123	124	1
99	154	1
78	93	1
183	187	1
109	110	1
134	138	1
169	170	1
180	180	1
97	119	1
170	171	2
148	150	2
40	85	1
55	55	3
7	8	1
147	149	2
158	159	1
47	48	1
131	134	1
34	34	1
41	83	1
187	188	1
16	16	1
114	122	1
24	70	1
184	184	1
154	156	1
48	51	1
90	186	1
112	130	1
121	121	1
78	95	1
120	120	1
18	189	1
106	109	1
49	49	1
9	184	1
