145	145	6
3	3	14
88	88	20
133	133	7
55	106	4
120	120	6
1	1	5
125	126	2
53	53	12
4	4	13
12	12	2
31	31	5
124	129	2
28	28	4
68	68	9
93	93	1
0	0	4
47	47	4
97	98	4
89	92	3
108	132	5
40	41	1
106	106	4
71	81	6
62	104	4
96	98	8
13	13	7
100	101	5
24	118	5
29	118	5
92	136	4
8	9	5
51	51	5
13	60	5
10	13	3
50	122	5
91	91	5
90	90	3
53	136	4
78	84	3
50	51	3
17	18	4
20	20	4
30	96	1
112	112	2
20	36	2
65	111	3
127	127	4
74	74	9
29	76	3
63	63	4
141	141	5
46	53	1
54	54	6
144	144	4
57	57	3
143	143	8
26	104	1
65	65	2
70	104	1
49	120	2
64	107	3
144	145	2
79	106	4
79	79	3
60	60	4
69	69	8
80	137	3
120	122	1
142	142	3
18	31	2
2	2	4
29	29	7
71	71	8
121	128	2
62	62	7
68	124	3
118	118	5
64	108	3
96	123	1
136	137	6
39	40	5
70	70	4
13	65	4
53	57	3
37	37	3
18	19	3
75	75	8
18	18	7
140	140	3
82	82	1
98	98	2
115	116	7
30	30	7
101	101	3
71	72	5
32	32	5
76	78	3
14	100	1
51	52	4
18	26	3
18	30	5
24	120	2
23	23	2
22	73	1
98	102	4
35	35	2
22	22	7
9	10	2
8	8	6
89	89	7
93	123	3
129	139	5
2	4	8
73	73	1
2	5	2
3	4	3
68	69	5
102	102	12
103	103	4
19	53	3
115	120	3
100	100	4
95	95	2
49	77	3
76	92	2
89	90	8
108	108	5
99	99	4
48	52	2
133	134	3
14	16	3
17	17	6
31	32	2
74	75	6
66	85	3
61	61	3
12	14	5
66	118	1
16	98	8
98	101	6
125	130	2
78	78	4
56	111	1
58	58	5
13	14	2
35	38	2
49	122	2
123	138	6
32	56	5
54	97	4
48	74	3
95	131	3
110	110	5
19	19	9
98	99	6
57	62	3
58	88	2
11	11	6
10	10	4
47	127	5
26	26	3
55	105	2
58	118	2
135	135	4
12	47	1
32	33	2
49	49	8
42	42	5
114	114	6
87	88	3
37	39	3
76	76	3
33	133	2
70	121	4
14	14	2
117	117	4
25	25	2
105	107	2
63	71	1
54	56	1
41	43	1
67	109	2
88	89	3
48	132	1
122	122	3
54	99	1
72	72	4
64	64	4
75	91	1
21	21	3
124	124	5
15	16	2
83	83	1
32	49	1
101	102	3
23	120	3
8	20	1
74	115	2
54	95	4
35	58	4
107	107	3
51	63	3
134	137	1
15	15	2
69	137	3
14	15	4
67	116	1
20	21	3
79	136	3
107	128	1
134	134	5
121	123	2
115	115	2
59	59	2
15	99	3
41	139	1
36	58	3
4	6	1
14	110	2
64	70	4
132	138	2
2	3	3
117	118	1
96	105	1
22	33	2
27	29	1
52	97	2
18	108	5
131	133	4
50	109	1
98	105	1
63	110	2
93	129	4
38	125	3
25	26	3
12	101	1
84	86	2
83	84	2
119	121	1
47	53	2
92	92	1
31	33	1
38	53	3
94	94	1
119	120	1
42	58	1
9	20	2
32	36	3
52	111	2
134	135	3
0	1	1
75	92	1
68	85	1
56	57	2
34	34	3
87	89	1
70	115	2
82	83	1
41	41	1
63	64	2
80	80	1
81	81	7
92	123	1
104	104	2
72	141	2
6	13	2
25	53	2
96	96	1
18	53	1
99	101	1
132	132	1
110	112	2
1	100	1
67	67	3
57	61	1
77	78	2
139	139	2
135	137	1
25	126	1
85	86	1
2	13	1
126	126	1
137	139	1
69	123	2
53	54	1
26	95	1
25	78	1
25	50	1
116	116	1
67	68	1
105	105	2
85	90	1
9	9	2
63	108	2
13	23	1
56	105	1
40	40	2
63	105	1
117	126	1
22	79	2
101	129	1
8	13	1
9	61	1
52	107	1
60	83	1
129	141	3
51	109	2
69	124	1
138	139	2
97	97	1
62	70	1
6	6	1
17	29	3
48	72	1
4	53	1
52	52	1
113	114	1
78	119	2
19	20	1
47	48	1
9	30	1
133	136	1
109	113	1
55	110	1
65	66	2
120	121	1
57	123	1
28	72	1
78	79	1
33	33	1
74	142	1
102	103	1
51	78	1
74	95	1
130	131	1
50	63	1
