4	4	4
102	102	9
24	26	6
122	123	1
84	85	5
64	97	1
30	58	6
51	51	5
66	66	6
62	63	3
25	59	3
76	98	2
57	58	9
28	28	9
22	22	3
130	131	1
16	17	3
61	67	2
98	98	4
111	111	3
30	30	3
18	42	2
40	41	4
65	65	6
67	67	4
9	9	2
75	75	7
32	33	2
142	142	3
96	96	7
14	14	9
5	35	2
13	13	4
10	42	2
138	138	6
89	89	1
17	17	6
52	126	2
35	35	3
124	124	4
21	21	3
58	60	2
118	119	1
68	69	3
101	101	9
103	103	7
32	32	4
10	10	6
50	50	2
104	104	2
123	123	2
144	144	4
74	74	1
95	95	4
77	77	1
85	85	4
58	58	3
81	81	5
79	79	10
29	29	4
49	49	2
59	59	5
122	122	2
127	137	1
40	40	5
57	57	1
108	108	3
90	90	1
136	136	4
124	125	1
126	126	2
73	73	7
11	11	3
129	129	1
115	116	6
81	101	1
54	54	5
56	56	3
131	131	2
68	68	4
98	99	2
128	128	1
4	5	5
69	70	1
19	19	1
90	91	1
35	47	2
132	132	1
8	8	2
17	18	2
106	106	1
42	43	1
26	26	2
63	63	5
100	100	1
3	4	4
42	42	4
127	127	2
76	77	3
41	41	1
139	140	1
35	51	1
1	35	3
109	109	2
5	5	6
14	24	1
74	81	1
48	48	3
88	89	1
6	6	3
60	60	1
93	128	2
69	69	3
74	78	1
72	72	1
62	62	3
59	68	4
128	131	1
24	24	4
57	61	2
15	15	6
8	10	1
20	20	6
63	64	1
94	129	1
33	33	2
52	54	1
81	82	1
53	53	1
70	70	6
97	97	6
78	78	5
25	25	2
92	92	1
132	136	4
91	91	7
104	108	2
61	61	1
110	110	8
71	72	2
145	145	2
115	115	1
113	116	2
107	116	2
39	39	2
38	39	2
27	28	1
64	65	3
138	139	1
47	47	1
23	37	1
34	50	3
143	143	1
71	127	3
101	111	3
47	139	1
71	75	4
14	36	1
74	75	1
24	37	2
50	127	2
135	135	1
73	75	2
95	102	1
36	36	1
67	141	2
2	3	1
96	131	2
125	126	2
134	137	1
95	96	1
82	82	1
99	99	2
66	112	1
52	52	2
23	24	3
31	32	1
144	145	1
139	139	2
84	84	2
59	60	1
47	48	2
34	35	1
78	98	1
64	64	1
23	23	3
107	107	2
98	100	1
12	12	2
125	125	2
51	105	1
86	131	1
104	111	1
94	94	1
18	18	1
38	38	2
140	140	3
101	102	1
23	29	1
96	97	1
37	37	1
86	86	1
5	6	1
82	106	1
135	141	1
113	113	1
64	66	1
140	141	1
54	67	1
130	130	1
2	2	1
27	30	1
4	6	1
3	10	1
117	117	1
105	107	1
