40	40	13
35	35	11
72	72	13
65	70	4
58	58	7
67	69	1
71	71	18
28	28	6
27	28	5
44	44	5
46	46	12
70	70	8
0	5	3
35	36	3
48	48	13
67	67	6
30	30	9
47	58	2
56	58	4
1	1	12
75	75	15
22	23	5
49	66	2
7	7	14
8	8	8
72	73	4
2	15	3
68	70	3
36	37	6
29	30	1
10	14	3
56	59	2
51	51	9
45	45	12
20	20	8
36	36	7
41	41	7
73	73	2
31	67	4
69	71	2
21	21	16
34	34	2
5	8	3
6	6	8
25	26	3
53	53	4
56	56	6
44	51	3
33	60	3
57	57	13
5	6	7
62	62	13
63	70	1
11	11	12
46	60	3
35	54	5
29	29	10
66	67	1
33	33	12
31	52	2
61	62	5
27	67	4
61	61	9
42	69	1
67	71	1
69	69	9
64	65	11
65	65	7
59	59	6
39	39	4
32	41	3
49	50	4
11	42	3
53	73	1
8	9	3
18	51	1
65	66	6
23	23	7
44	45	1
9	9	10
32	44	4
37	38	2
69	70	4
15	68	2
63	63	1
52	52	6
26	26	11
19	19	5
38	38	6
53	65	2
4	76	3
2	3	1
4	42	4
43	43	5
49	64	3
39	76	3
0	8	1
9	62	2
37	37	8
24	36	1
39	41	1
18	77	4
44	76	3
66	66	8
5	14	1
23	34	3
42	42	14
13	13	13
27	27	7
50	50	6
70	71	2
63	66	3
64	64	5
19	20	9
22	22	5
4	40	1
53	54	4
46	56	2
33	34	2
55	55	11
42	63	2
3	3	3
27	31	3
38	48	2
25	25	5
37	55	4
41	64	1
24	64	3
25	37	1
12	13	8
63	64	3
51	54	3
41	43	1
45	51	10
74	74	8
21	34	3
28	31	1
36	54	1
64	66	1
6	7	2
18	44	3
67	68	4
24	24	7
14	14	2
2	12	1
21	22	6
41	70	2
30	31	1
41	71	3
47	47	5
54	55	3
68	68	9
42	43	1
77	78	1
25	65	2
11	41	5
54	54	2
49	67	3
0	0	4
23	39	2
68	69	2
32	32	3
62	63	4
1	14	1
15	70	1
71	76	3
25	64	1
18	18	2
3	4	2
76	76	3
34	38	2
0	7	3
74	77	4
9	10	1
58	72	2
64	76	1
40	46	2
25	67	1
67	77	2
60	60	2
50	51	4
31	32	3
39	50	1
49	49	1
49	76	1
49	75	1
36	55	1
47	48	1
31	31	1
10	69	1
12	12	3
4	5	3
10	10	9
65	68	2
29	35	1
9	12	1
26	67	1
18	45	1
10	61	2
1	6	2
34	39	1
51	71	1
2	6	1
33	61	2
44	75	1
41	42	4
35	37	1
39	47	1
7	8	1
34	55	1
32	33	2
43	58	4
29	54	1
50	76	2
55	77	1
0	2	1
6	43	1
57	73	1
24	55	2
4	4	2
41	63	1
66	68	1
20	22	1
67	74	1
9	57	1
26	27	1
54	77	1
39	49	1
50	68	1
