40	44	3
141	152	1
26	27	2
111	116	3
193	193	6
23	60	2
95	95	4
72	72	4
105	120	4
11	11	7
45	45	5
47	109	7
17	17	12
131	172	3
150	151	4
155	179	7
61	64	2
174	174	7
123	123	5
63	78	2
152	173	2
87	100	2
15	21	1
156	156	4
31	33	3
188	188	2
20	25	2
106	124	1
27	28	1
124	124	4
192	193	3
157	157	7
125	134	4
190	190	6
99	99	6
139	139	7
28	34	6
113	113	5
164	178	3
117	117	10
21	21	7
128	158	6
164	164	4
62	78	2
156	183	2
95	105	5
43	44	7
87	87	10
122	122	5
79	80	4
20	21	4
194	194	4
19	19	9
62	62	8
32	32	12
47	47	8
130	133	4
185	188	5
136	137	4
148	148	6
59	62	2
65	65	4
98	123	2
133	133	3
48	49	2
44	44	1
38	39	3
87	96	3
62	71	5
132	136	4
125	131	2
186	186	11
186	189	5
73	77	3
124	197	1
20	20	11
31	31	1
141	166	3
84	84	7
53	53	4
50	191	5
169	169	7
106	130	3
176	176	11
111	115	1
14	14	6
51	51	2
59	61	5
18	18	2
25	25	1
140	140	6
108	117	2
5	5	11
179	179	4
7	7	15
47	110	5
43	43	14
134	135	1
122	123	2
103	103	4
50	68	2
11	12	9
62	63	2
151	152	5
147	148	4
49	49	1
50	51	1
19	29	3
82	88	1
144	145	4
99	100	3
17	19	3
106	107	7
127	127	4
41	41	7
171	171	5
75	75	2
49	50	2
114	134	2
113	134	4
170	171	4
119	124	3
94	111	1
167	167	5
107	107	4
177	177	3
64	64	8
101	101	4
170	179	1
153	165	2
132	137	1
13	13	3
68	68	9
172	180	5
20	28	1
35	45	2
40	40	11
165	166	3
191	191	7
187	188	1
174	181	2
163	164	4
148	170	3
178	178	10
98	102	1
111	111	3
38	38	8
9	9	5
52	113	4
160	161	2
153	153	3
98	98	8
132	148	3
22	22	2
78	78	5
115	131	2
167	168	4
63	63	3
131	131	4
26	26	9
135	178	3
169	170	2
35	35	4
31	41	2
50	55	2
100	100	2
143	169	2
43	61	1
29	29	3
41	44	2
53	185	2
57	79	3
143	144	7
120	120	2
55	55	2
88	90	1
108	108	3
71	72	3
76	127	2
79	79	2
159	163	1
151	156	2
85	89	3
110	149	3
6	8	1
81	84	4
34	37	2
111	112	2
162	178	2
129	129	7
143	153	2
150	150	10
24	24	8
152	154	3
196	196	2
187	187	2
132	133	1
149	149	3
85	85	13
115	115	7
84	85	1
74	94	5
25	29	2
102	103	5
10	11	2
59	59	6
41	43	2
82	83	1
135	135	6
81	87	5
129	146	1
143	143	6
184	191	1
166	167	2
17	50	2
28	28	6
154	160	5
172	177	4
121	124	4
24	34	2
136	150	4
140	156	1
58	62	2
134	150	1
40	42	4
24	25	8
52	52	1
122	124	1
131	141	3
158	179	2
133	137	1
55	64	1
185	197	2
142	173	1
82	86	2
88	88	5
89	89	4
114	115	7
51	193	1
89	150	6
176	192	1
86	88	1
173	173	7
102	102	6
94	104	1
67	88	1
162	177	1
174	175	3
58	71	3
2	8	4
119	119	7
130	148	4
145	145	4
133	148	2
93	94	1
68	75	3
97	120	2
151	151	1
133	134	2
168	168	4
160	180	2
34	34	2
45	58	1
86	127	2
42	43	1
126	126	2
108	109	2
8	10	1
145	169	2
21	24	2
184	184	2
103	114	2
181	182	5
83	86	2
58	58	13
46	46	3
39	60	1
155	156	2
27	27	2
94	96	4
60	60	5
137	137	2
116	117	6
82	82	1
38	60	2
173	186	1
190	191	2
0	9	6
136	136	2
154	155	2
101	108	1
2	2	5
23	23	6
125	158	2
100	125	2
117	135	2
41	42	3
44	72	2
135	163	3
128	128	5
94	94	4
132	153	1
98	117	1
181	196	2
71	71	4
17	40	3
98	116	1
40	59	2
78	79	2
40	61	2
142	153	3
22	27	2
173	175	3
147	147	3
81	85	2
108	115	2
158	166	2
185	185	6
57	57	1
45	73	1
20	55	1
95	121	1
60	61	2
30	33	1
119	140	2
85	86	2
166	166	3
25	35	2
141	156	2
141	171	1
15	37	3
142	168	1
82	84	1
13	14	2
130	130	4
2	6	3
63	65	2
104	128	1
175	176	3
36	190	1
56	62	1
121	121	2
132	143	2
124	126	2
0	1	2
125	184	2
30	30	1
145	146	1
97	98	2
36	53	1
70	70	3
23	25	1
50	50	1
159	184	4
173	180	1
88	89	1
125	125	3
130	143	1
48	48	6
42	42	4
51	190	1
33	54	2
77	79	1
98	103	1
115	137	2
45	46	3
76	84	1
17	57	3
18	44	4
144	147	4
195	196	2
183	183	1
144	144	2
99	156	3
58	72	2
134	148	2
152	175	1
44	60	1
123	126	2
188	189	1
39	39	3
56	56	6
10	10	5
163	178	2
134	134	3
5	7	3
110	110	1
8	8	3
78	80	2
51	196	1
100	101	3
134	172	2
102	119	1
93	93	2
122	137	1
105	109	1
15	15	3
73	74	2
141	170	2
29	32	2
190	192	1
188	191	1
79	81	2
16	21	2
142	169	2
192	192	1
195	195	3
151	167	2
37	43	1
181	192	2
175	175	1
17	42	1
186	190	2
87	97	1
24	29	1
100	121	1
31	32	1
16	16	4
50	64	1
48	69	1
39	61	2
32	54	2
158	159	3
86	87	4
161	175	2
42	54	1
70	71	1
154	175	4
15	45	2
154	158	1
171	172	1
130	141	1
140	155	2
99	139	1
173	192	3
63	86	2
115	130	1
105	128	6
159	159	1
60	62	1
103	104	1
102	150	2
83	83	2
104	106	1
73	126	1
82	87	1
35	39	1
6	6	2
0	0	3
181	181	4
1	2	1
104	104	2
75	79	2
47	197	1
182	182	1
69	69	1
136	153	1
33	46	1
3	7	1
176	177	1
193	194	2
36	37	2
165	165	4
180	180	1
61	63	2
102	106	1
102	134	1
18	29	1
152	152	6
154	177	1
135	177	1
108	114	1
95	117	1
37	63	1
155	196	2
171	179	2
107	114	1
23	62	1
153	162	2
81	82	2
95	96	2
101	102	2
115	120	1
105	106	2
97	116	1
73	73	1
64	84	2
111	113	1
44	56	1
163	176	1
49	126	1
1	7	1
136	141	2
37	39	2
116	116	1
65	69	1
3	4	1
110	112	2
157	185	1
36	36	1
154	154	1
72	73	1
161	162	2
144	146	2
142	165	1
87	187	1
118	120	1
3	3	2
136	145	2
76	106	1
99	143	1
114	114	1
23	79	1
16	17	3
40	43	2
125	126	1
166	168	2
43	59	1
132	138	1
147	163	1
72	125	1
128	194	1
59	60	1
33	34	1
93	98	1
31	54	1
139	140	1
76	76	1
147	180	1
1	3	1
183	187	2
122	145	1
137	157	2
12	12	2
86	86	1
39	58	1
160	171	1
172	179	1
20	43	1
182	193	1
155	183	1
28	29	1
7	8	1
