35	35	4
78	85	2
70	74	2
81	81	1
20	21	3
68	68	3
60	66	2
99	107	1
71	89	1
25	25	8
65	65	5
88	88	4
111	112	4
52	52	2
84	99	3
58	100	1
77	77	1
42	42	8
21	21	3
47	47	8
31	32	2
89	105	4
104	106	2
64	66	2
44	44	8
95	95	6
106	107	5
63	64	2
30	30	3
92	114	4
86	114	4
40	40	6
30	35	3
96	96	2
45	45	5
109	110	4
69	69	4
109	109	5
67	67	6
104	110	2
22	22	4
100	101	2
113	113	5
108	108	3
103	103	5
25	32	2
92	97	3
74	74	2
32	32	10
66	66	1
43	114	2
73	76	2
23	24	2
51	51	10
72	73	2
84	103	2
19	19	3
113	114	5
98	98	6
100	100	7
94	94	4
29	29	1
70	76	3
101	101	3
66	67	2
41	41	1
76	76	5
41	42	6
50	50	5
106	109	1
77	86	3
27	47	2
73	73	1
99	99	3
39	39	6
83	83	3
97	97	4
60	60	4
90	90	2
31	31	2
36	61	1
49	82	1
87	88	2
114	114	2
63	63	4
23	23	7
61	62	1
70	70	6
59	59	4
33	33	3
46	46	7
62	63	2
79	79	5
105	105	2
38	38	2
49	49	9
37	38	1
44	51	1
77	84	2
86	109	4
27	27	1
56	56	3
95	97	5
34	34	4
43	43	3
25	29	3
102	103	1
72	72	7
28	29	1
92	93	5
78	83	1
36	41	4
55	55	1
112	113	1
82	82	2
55	106	1
62	79	3
107	107	1
105	106	1
65	72	2
74	77	2
29	36	1
102	108	1
37	37	2
55	74	1
86	86	1
89	112	2
44	49	1
28	28	4
106	110	3
78	78	3
53	53	4
50	76	1
89	108	3
89	89	1
48	48	4
101	106	1
68	69	3
92	94	1
24	29	1
30	32	1
33	77	1
42	103	1
90	101	3
102	112	3
34	45	2
104	104	3
84	84	1
58	59	1
58	58	2
89	90	2
82	83	1
62	62	1
27	46	2
88	89	1
54	54	2
111	111	2
80	80	2
64	68	2
46	62	1
74	75	1
107	109	2
36	37	2
26	26	1
43	113	1
29	48	1
105	109	5
64	64	1
40	100	1
81	84	2
102	111	1
40	42	1
115	115	1
24	24	1
53	54	1
105	114	2
90	105	1
96	97	1
65	66	1
65	67	1
42	53	1
56	57	1
43	44	1
33	34	1
72	75	1
20	20	1
77	82	1
88	114	1
78	81	1
