74	76	2
27	27	17
37	42	2
106	106	8
86	88	7
20	27	2
112	112	5
78	80	3
96	102	2
87	87	3
32	38	1
41	67	1
41	41	9
104	104	1
54	54	10
40	41	8
32	33	2
66	71	7
53	53	9
60	60	6
70	71	2
105	105	11
90	93	2
90	104	1
89	105	4
90	91	3
104	109	7
25	26	11
71	71	4
73	75	4
75	77	2
81	87	3
28	28	6
71	72	6
96	96	3
20	20	6
37	43	4
88	102	2
50	51	14
29	29	12
84	84	11
99	99	14
70	70	4
22	22	9
46	46	12
25	25	10
68	68	2
87	89	4
100	101	5
113	113	3
42	42	8
92	92	9
54	55	2
67	98	1
73	74	1
26	26	5
82	83	5
24	47	1
57	57	4
57	58	3
75	75	12
98	98	7
34	34	6
42	43	2
56	56	5
47	73	1
51	51	6
91	106	3
97	109	2
88	89	9
30	30	11
96	112	1
39	41	4
50	50	10
74	74	7
98	99	1
109	109	8
45	45	11
88	88	4
31	36	1
44	44	14
29	30	2
73	73	10
101	111	3
30	33	1
19	22	9
110	110	2
52	52	5
75	78	6
21	21	6
63	94	1
93	94	5
72	74	3
72	72	6
43	54	2
51	52	4
35	35	10
109	112	9
108	108	3
100	100	3
105	106	4
34	39	1
27	28	5
112	113	1
92	93	2
80	80	4
78	79	12
36	37	3
89	89	2
76	79	3
90	90	5
24	24	5
23	23	4
33	33	10
41	56	5
49	53	1
82	92	2
32	32	6
31	31	2
64	70	1
48	48	3
22	29	4
95	95	6
105	109	5
93	106	2
23	61	2
38	38	5
47	47	8
78	89	3
69	93	1
32	99	2
31	32	8
62	62	5
67	69	4
77	78	1
38	43	1
108	109	7
63	70	2
42	45	1
50	53	1
63	63	6
75	79	4
69	71	3
59	60	3
64	64	3
65	65	2
49	49	7
99	101	1
20	22	4
63	67	3
43	47	4
66	67	4
28	29	2
37	38	3
94	102	1
67	67	6
64	72	1
39	40	2
93	104	1
81	81	6
90	106	3
62	63	2
109	110	2
97	98	2
52	103	1
37	37	1
82	82	5
108	110	2
41	42	6
76	76	9
43	46	2
22	23	1
67	68	5
107	110	2
69	69	5
103	103	3
55	55	9
56	57	2
92	103	1
95	96	4
95	98	3
80	81	3
106	107	3
44	48	1
97	97	3
59	59	7
81	103	3
40	52	3
85	86	5
47	48	9
77	81	1
43	43	5
70	81	1
107	107	7
57	66	3
45	46	1
50	52	3
42	66	3
31	100	1
52	79	4
111	111	4
45	48	1
93	93	2
65	67	1
54	73	3
64	65	2
49	50	2
31	33	1
74	80	1
103	104	2
75	86	1
20	68	1
102	102	1
26	27	1
58	62	3
74	111	1
20	78	1
102	106	2
41	55	1
102	111	2
85	85	3
42	65	2
58	59	1
61	61	1
102	109	1
39	49	2
40	40	4
59	63	1
34	36	3
96	103	1
78	78	3
44	47	2
81	104	2
87	91	1
65	66	1
53	60	1
37	46	1
69	70	1
83	83	1
88	107	2
58	58	1
37	44	1
79	79	3
92	104	2
77	77	4
71	90	1
36	36	2
41	87	1
49	72	1
49	70	1
91	91	2
61	65	1
104	110	1
86	87	2
55	72	1
20	40	2
24	70	1
101	101	2
78	81	1
41	85	2
94	94	1
48	79	1
43	72	1
34	35	1
55	61	1
40	65	2
47	53	1
83	85	2
71	81	1
49	71	1
87	88	1
88	106	1
66	97	1
21	22	1
71	73	1
40	95	1
35	76	1
22	31	1
95	104	1
19	19	1
64	81	1
66	66	1
40	42	1
