71	71	9
22	95	3
83	83	10
86	86	9
77	77	12
7	27	3
125	125	6
92	92	2
69	69	4
33	35	7
42	42	10
5	6	2
80	80	4
103	103	4
75	82	3
18	22	5
56	68	2
88	88	5
121	122	9
63	63	10
102	102	11
4	4	10
130	130	8
11	13	7
98	98	4
96	99	2
30	30	16
133	133	1
51	97	3
27	27	3
141	141	9
117	117	3
10	11	5
131	131	5
146	147	5
49	49	8
94	94	11
75	85	6
17	17	6
50	71	2
15	16	2
45	49	6
129	129	4
140	143	5
44	44	4
4	6	12
15	21	1
7	7	11
122	122	21
33	34	3
11	14	1
126	128	6
79	79	6
54	54	11
80	81	5
110	110	6
111	111	21
97	97	3
123	123	10
132	132	19
138	139	1
34	34	3
85	86	3
25	153	1
51	51	2
56	56	5
109	109	9
72	72	2
109	110	4
54	66	3
67	67	5
96	97	7
150	150	13
149	149	8
121	124	2
9	10	5
18	18	7
9	9	4
112	112	7
46	46	10
148	151	7
47	47	7
138	138	10
154	154	4
21	21	10
118	118	9
82	82	3
42	43	2
42	44	1
46	47	6
21	25	5
18	19	8
115	117	3
72	85	1
114	114	8
26	26	7
136	136	4
24	25	4
139	139	4
144	144	9
62	62	13
78	78	7
14	14	11
99	99	12
17	18	2
20	22	1
41	41	6
105	105	8
53	53	3
22	22	5
143	146	4
129	130	6
38	38	6
20	20	5
19	19	13
3	4	3
9	15	3
38	39	2
64	64	5
83	84	4
114	115	4
130	148	1
148	148	6
147	147	10
73	78	4
140	140	4
40	40	5
22	25	1
70	70	17
94	95	5
37	37	3
67	68	4
145	147	5
15	15	4
33	99	3
127	127	1
31	32	2
48	48	11
121	121	6
32	99	2
90	90	3
12	12	6
64	68	3
134	135	5
153	153	1
103	129	1
13	13	4
48	65	2
128	154	1
68	69	2
93	98	3
92	98	2
81	81	5
27	29	3
20	23	2
10	10	10
88	100	4
64	66	5
6	6	7
76	77	4
31	31	8
92	93	1
134	134	7
85	88	5
11	25	2
6	7	1
11	11	4
127	128	1
50	50	5
149	151	4
129	145	4
128	149	2
73	73	3
68	68	14
62	64	3
40	57	2
93	94	3
13	14	1
107	107	7
75	75	6
122	128	1
28	28	2
120	120	1
36	36	5
12	13	3
12	34	4
20	21	5
69	120	1
71	102	2
39	57	2
126	126	4
34	87	4
19	20	9
118	119	3
110	114	1
130	133	3
43	43	5
32	36	1
104	104	2
97	100	1
75	84	1
36	88	1
29	29	11
106	107	5
65	66	1
142	142	4
66	67	3
128	128	1
2	25	2
5	5	5
24	30	2
119	119	5
63	64	2
102	118	3
97	98	1
96	96	7
122	124	1
16	17	4
115	115	2
129	147	2
66	66	4
7	15	1
75	81	4
48	50	2
19	95	1
16	16	5
57	57	10
85	100	1
139	141	2
39	39	11
120	154	2
33	33	2
34	35	4
73	82	1
91	92	2
8	8	1
101	101	2
78	79	5
21	23	3
141	142	2
70	123	1
124	124	4
35	36	1
84	84	2
48	49	2
77	102	6
152	152	1
41	42	4
20	67	1
66	94	2
113	113	4
40	122	3
37	153	1
149	154	4
27	30	2
122	150	2
24	24	1
78	110	9
9	26	1
113	114	4
106	106	2
138	148	2
108	137	1
45	45	6
41	43	1
29	30	5
146	150	2
76	76	3
117	144	2
124	125	1
5	7	1
135	135	1
42	114	1
108	108	3
100	100	1
72	74	1
77	78	2
63	88	1
146	146	3
128	129	2
133	141	1
55	55	2
64	69	2
107	108	1
44	64	4
79	137	1
15	24	1
66	92	1
10	18	1
10	12	2
74	74	5
81	82	1
85	85	2
61	97	1
26	33	2
11	12	2
40	41	1
13	17	1
134	138	1
116	116	3
133	134	1
91	91	2
145	145	2
72	73	4
52	52	1
109	137	3
35	154	3
143	143	2
28	30	3
38	41	2
129	152	1
150	151	1
46	57	3
73	85	2
2	3	1
126	127	2
111	112	1
95	97	1
47	57	2
45	53	2
73	74	1
93	95	1
112	113	1
41	44	1
36	82	2
145	146	3
39	40	4
95	96	1
116	117	3
119	122	1
69	70	2
102	103	5
69	123	3
106	147	1
33	98	1
151	152	1
14	15	1
93	93	1
53	94	1
131	132	1
13	151	1
14	151	1
65	92	2
150	152	2
101	102	1
102	105	1
132	133	1
83	86	2
80	82	1
39	122	1
34	36	1
106	148	1
25	25	3
5	8	1
6	22	1
149	150	2
3	24	1
136	137	2
76	104	1
3	3	1
68	93	1
23	23	1
80	109	1
21	24	1
3	25	1
52	57	1
65	67	1
73	77	1
134	136	1
87	87	1
8	9	1
