120	122	6
37	129	3
5	26	2
20	21	8
34	126	2
134	134	7
116	123	2
94	94	11
3	108	5
126	126	16
26	27	5
115	115	10
75	75	11
97	97	5
87	116	3
108	108	8
21	22	1
72	72	6
77	77	8
3	4	5
110	112	5
125	125	6
16	16	15
8	8	11
8	12	2
93	120	3
132	132	6
103	103	13
123	123	16
9	9	3
11	11	3
34	35	2
75	106	5
101	101	14
102	103	4
3	23	2
5	101	5
24	96	4
87	87	10
6	9	1
139	139	14
38	38	12
76	76	6
79	121	1
21	21	4
92	93	1
114	116	5
130	130	9
6	6	8
89	89	5
4	101	2
95	95	9
10	11	2
104	107	6
3	8	2
98	130	3
14	14	13
103	104	6
111	112	5
124	124	13
114	115	12
26	26	11
123	124	4
73	74	4
114	114	6
0	0	17
133	133	6
84	84	3
83	84	5
128	129	1
136	136	11
81	81	4
37	37	8
2	2	5
106	111	1
32	96	2
93	93	2
93	122	4
138	139	2
3	3	19
87	91	4
1	1	7
33	33	7
4	4	3
10	12	3
133	135	1
119	125	2
35	35	8
22	22	5
8	14	5
117	117	3
119	120	7
131	131	8
121	121	7
104	104	3
24	26	1
27	27	3
12	12	5
112	112	2
109	109	9
108	109	9
19	29	5
5	103	2
102	102	2
32	32	2
121	122	1
98	98	7
28	28	4
22	23	1
88	116	3
116	116	13
28	30	4
17	17	4
129	129	5
81	82	4
140	140	24
86	86	8
24	25	7
36	36	10
112	113	1
71	71	2
34	36	3
36	37	2
120	123	2
1	10	1
82	83	2
74	75	6
87	89	3
3	107	3
23	23	9
7	8	2
14	15	1
91	91	11
16	17	4
25	26	3
80	94	1
37	112	1
83	83	13
7	7	6
99	99	4
20	25	2
29	29	2
9	14	6
73	73	2
100	100	16
128	128	7
96	98	5
88	88	2
76	101	2
2	21	2
94	122	2
75	107	3
8	9	4
11	12	2
131	132	4
85	85	8
88	89	1
127	127	3
88	90	1
79	79	2
13	16	2
37	127	5
25	25	2
27	101	4
5	5	2
107	108	1
15	16	9
3	92	2
15	15	4
135	136	6
22	24	3
18	18	8
110	115	2
96	96	5
139	140	2
117	119	2
20	27	2
106	106	3
13	13	1
78	78	2
80	80	8
79	120	2
17	18	1
96	99	1
71	72	3
74	74	3
10	10	4
120	120	3
135	135	5
118	121	3
7	9	2
96	131	3
72	73	1
76	118	1
77	80	1
7	16	3
111	111	3
78	123	2
2	20	1
12	15	1
91	120	1
19	33	1
89	90	5
110	110	4
118	119	4
47	71	1
134	135	2
5	27	2
31	31	3
8	16	2
30	31	1
79	126	4
92	92	4
25	97	2
117	123	3
113	113	1
105	106	4
23	95	1
100	103	1
28	29	1
75	98	2
107	107	3
102	105	1
126	127	2
34	34	4
127	129	1
122	122	2
1	20	1
22	25	2
35	116	1
36	74	1
133	136	3
77	118	1
132	133	6
96	97	1
105	107	2
94	129	3
20	20	6
29	32	1
19	20	2
106	113	1
23	96	2
12	13	1
33	36	2
9	16	2
17	30	3
75	76	1
94	95	2
90	90	2
32	107	1
90	91	1
22	26	1
76	121	1
13	14	1
71	73	2
33	37	1
92	117	1
30	32	4
82	85	1
20	33	1
86	88	1
35	36	1
6	8	1
86	87	1
107	109	1
119	119	1
102	104	1
