8	13	1
15	58	1
96	97	7
131	133	2
24	24	7
116	116	13
48	48	10
152	152	4
2	3	2
73	75	1
104	104	5
52	54	1
36	36	12
34	34	15
68	68	3
156	158	5
8	8	14
139	154	1
169	169	1
85	85	11
117	117	10
154	154	10
131	131	6
155	155	5
37	37	10
130	130	16
72	135	1
109	109	1
129	130	4
91	92	3
66	79	7
43	43	10
75	75	5
18	64	1
13	13	1
101	101	16
79	79	5
146	146	9
15	15	8
39	58	3
41	41	18
16	16	8
42	42	14
35	35	10
74	74	3
165	165	9
123	134	2
80	80	9
78	78	2
111	111	10
44	44	11
100	100	5
38	39	3
28	28	6
96	96	8
4	58	2
36	38	3
26	26	5
93	94	1
119	119	6
123	123	4
20	21	6
103	104	1
19	22	1
61	62	1
18	18	4
81	83	5
124	145	4
114	114	6
19	63	3
76	77	6
42	43	6
39	51	3
150	156	2
107	107	7
153	153	1
23	78	2
99	99	11
128	128	6
143	144	4
133	133	9
145	146	1
134	135	6
88	88	5
123	124	5
78	81	3
104	106	3
101	102	11
137	138	2
156	157	5
119	120	2
164	165	2
92	95	1
119	121	3
142	142	10
157	157	23
143	143	5
143	149	4
0	40	2
15	16	3
141	141	7
125	145	4
122	136	2
22	23	6
150	150	14
52	52	9
94	101	4
135	136	6
85	86	6
1	1	7
7	8	7
27	27	8
7	7	4
166	167	4
108	108	9
63	63	6
163	163	6
110	113	2
135	135	5
20	20	3
76	76	6
124	125	1
78	79	5
12	15	1
16	17	3
74	76	3
3	96	2
97	99	2
105	131	2
12	14	1
90	90	5
46	47	4
145	145	5
101	104	5
126	126	1
37	38	8
67	68	1
92	92	5
18	63	1
63	64	4
23	25	8
80	81	1
84	162	2
86	109	1
149	149	5
25	25	4
56	56	7
165	166	1
170	170	6
10	10	4
166	169	1
115	115	10
118	119	1
112	112	7
165	170	1
164	169	1
46	50	3
154	155	6
51	51	2
11	11	3
118	118	4
148	148	4
156	156	2
114	115	3
73	73	4
106	106	8
66	69	1
84	133	1
48	49	5
129	136	5
98	101	1
22	22	4
127	128	2
7	44	2
47	47	5
44	45	7
1	62	2
152	156	7
120	120	8
74	75	2
47	50	1
121	122	3
110	110	15
93	93	2
128	169	2
108	109	1
64	109	1
42	53	1
112	114	5
115	117	1
77	169	1
80	160	5
139	139	6
69	71	2
64	67	2
86	87	1
151	153	1
144	145	3
158	164	4
33	33	4
27	28	4
40	40	4
152	161	2
3	3	4
110	112	5
158	159	7
111	137	2
167	168	6
71	71	9
88	89	3
136	137	4
43	44	2
78	82	1
21	21	9
73	79	2
66	66	4
123	138	1
151	151	9
90	94	2
14	64	3
23	23	4
6	7	1
79	83	1
127	149	2
131	132	5
0	1	3
79	81	3
165	169	1
164	164	7
121	121	2
113	113	5
4	4	3
140	140	2
112	113	5
57	57	2
47	52	2
105	105	4
5	94	2
129	129	5
22	25	3
20	28	4
46	49	2
8	9	2
148	149	2
151	156	1
81	82	2
116	117	6
163	164	1
6	9	1
62	62	4
57	58	1
72	73	3
98	98	5
0	0	9
76	79	2
107	108	1
150	169	1
137	137	16
36	128	2
39	39	2
41	42	3
77	77	2
11	15	2
70	70	4
6	8	1
110	133	1
65	65	6
157	159	1
119	127	2
159	159	2
161	161	3
50	51	3
92	104	2
106	107	4
130	131	2
135	137	2
39	40	1
69	69	4
80	82	3
83	83	12
128	130	4
2	66	5
14	15	1
102	102	3
95	96	2
38	45	1
83	84	1
138	138	3
120	122	1
54	54	7
8	39	1
168	169	2
50	50	5
56	58	2
40	54	2
144	144	1
65	69	2
64	64	3
74	167	2
25	119	1
17	17	10
34	35	2
6	6	3
81	81	4
154	156	2
82	82	1
162	163	1
4	6	3
98	99	3
13	15	1
5	95	4
158	158	2
70	71	4
45	45	3
8	37	1
89	90	1
34	126	1
2	2	1
18	21	1
103	105	1
53	53	7
4	94	1
150	153	3
144	148	3
84	85	1
5	54	1
107	126	3
26	27	3
21	23	1
25	26	1
158	168	3
79	80	2
119	128	1
127	129	2
66	134	2
166	166	2
138	139	1
136	167	1
9	11	8
38	38	5
112	136	4
4	9	2
91	91	2
7	41	3
150	170	1
89	114	1
112	115	1
150	151	2
52	53	3
95	95	3
86	132	2
89	118	2
168	168	2
1	6	1
88	110	3
62	64	1
5	5	3
85	89	2
159	168	1
10	11	1
11	13	2
84	84	1
63	67	1
18	19	3
159	162	1
143	146	2
101	103	5
111	116	1
120	127	1
128	129	2
76	160	1
105	106	3
77	80	1
147	148	1
122	123	2
87	90	2
151	155	3
136	136	2
91	100	1
135	138	1
73	76	1
102	105	1
6	39	1
70	141	1
67	67	2
33	44	1
160	160	1
85	90	1
19	19	2
69	72	2
21	22	1
2	74	1
134	134	1
159	170	3
98	100	1
145	148	2
117	118	2
23	24	1
100	103	2
144	146	2
68	85	1
97	98	1
45	97	1
124	124	2
139	149	1
126	132	2
147	147	1
88	128	1
1	57	1
140	141	4
132	134	1
167	167	1
94	103	1
73	167	1
152	165	1
9	9	3
82	85	1
155	158	2
148	165	1
62	68	1
125	139	2
132	132	1
123	135	1
5	53	1
160	161	1
44	46	2
140	142	1
8	58	1
86	86	1
152	153	2
78	161	1
12	12	1
82	84	1
127	127	1
49	49	1
168	170	1
75	167	1
73	136	1
14	63	1
33	34	1
152	170	1
74	159	1
157	158	1
151	161	1
35	36	1
65	67	1
127	130	1
