78	78	7
48	48	16
9	9	15
137	165	5
42	42	7
135	135	15
25	25	11
87	133	10
161	161	3
180	180	8
28	51	5
86	135	2
138	168	4
146	148	3
46	46	11
147	148	3
138	138	5
16	16	12
17	17	2
26	41	5
195	195	11
191	191	5
13	13	21
160	160	2
123	123	2
93	93	2
39	52	1
42	43	2
54	57	5
150	150	7
126	126	6
2	3	6
11	11	4
120	121	3
60	60	10
119	158	1
165	165	3
67	68	9
71	71	9
124	124	10
87	87	3
126	144	2
193	194	1
64	64	2
127	127	12
129	129	2
104	104	4
102	102	7
183	183	16
51	51	8
117	117	7
89	89	3
98	107	7
116	116	3
186	196	1
32	32	12
55	57	1
10	52	6
129	150	5
166	166	9
103	103	6
67	67	1
77	80	2
42	54	2
107	107	2
114	160	2
12	12	17
1	1	10
192	193	10
72	74	7
104	105	6
49	49	15
160	162	2
68	68	6
194	194	3
83	83	11
128	183	4
136	175	4
72	72	7
144	145	3
159	159	7
142	143	1
33	171	4
161	162	2
173	173	12
47	47	7
66	67	1
146	147	3
196	196	13
14	14	9
177	179	7
31	40	2
57	57	5
45	45	9
128	128	13
51	145	2
31	31	4
40	75	1
165	167	2
133	133	8
154	155	3
149	163	5
153	153	8
127	168	1
18	18	6
35	35	6
134	134	5
105	114	1
78	179	2
40	53	8
134	135	6
145	145	10
20	20	6
15	58	6
5	7	5
184	184	12
9	10	3
88	89	3
19	19	6
179	179	3
66	66	3
158	158	4
23	23	5
163	163	9
181	182	3
158	159	3
95	154	2
136	174	2
79	80	10
14	58	6
106	106	2
97	97	4
1	2	1
115	116	5
126	183	2
33	35	4
179	182	3
122	122	7
176	176	4
158	160	3
139	139	2
77	79	1
150	156	3
156	156	6
34	34	2
130	130	12
39	39	9
162	162	4
27	39	3
129	149	5
164	164	10
21	21	1
69	69	7
112	113	2
182	182	9
155	155	11
56	59	1
29	29	2
175	175	9
173	177	11
48	49	2
55	55	3
32	180	6
179	180	5
154	154	6
171	171	12
28	29	5
27	27	3
88	148	1
78	79	1
82	85	4
3	167	3
145	149	2
85	86	4
96	96	6
71	72	5
53	53	10
185	186	1
132	132	1
24	133	1
126	128	2
15	59	2
15	42	2
136	136	1
133	186	1
54	55	4
112	112	11
65	66	3
8	8	3
190	190	7
106	152	2
89	149	5
50	75	3
105	105	9
33	33	5
54	56	8
76	76	2
186	186	8
24	24	4
41	41	7
23	24	3
118	118	5
145	146	6
138	139	3
150	192	3
167	167	6
184	197	1
130	131	4
37	38	6
77	78	2
30	50	5
4	4	13
137	137	9
59	61	2
101	101	1
81	173	2
190	192	2
162	163	5
144	144	2
149	149	9
13	57	1
152	152	3
86	86	1
97	98	2
142	142	3
57	58	3
191	192	2
28	28	7
115	119	1
50	50	4
142	159	2
95	95	9
17	18	4
169	169	7
190	191	4
178	178	3
163	165	1
119	157	1
119	119	7
113	114	2
65	65	3
79	84	1
28	30	2
163	164	2
52	52	11
15	15	4
73	73	5
12	54	1
125	128	3
82	188	3
80	82	1
168	169	6
185	185	5
170	170	3
194	195	4
30	31	3
182	183	3
118	119	4
31	32	1
97	154	1
131	162	5
5	5	5
131	131	5
113	113	7
166	167	1
81	83	3
197	197	3
105	111	2
108	108	8
123	145	2
86	134	2
181	197	2
54	54	3
59	59	5
104	119	4
7	7	1
33	34	4
82	82	5
117	118	1
64	66	2
187	187	2
46	47	3
142	146	2
4	139	2
27	38	4
181	181	2
50	89	2
76	197	3
172	172	3
151	164	1
105	106	2
116	117	2
62	63	7
40	40	6
142	145	1
79	185	2
47	48	5
148	148	4
87	161	4
43	43	4
109	153	1
100	101	2
174	176	2
42	75	1
170	180	1
196	197	2
187	189	4
128	145	4
16	59	1
192	192	4
183	184	1
142	149	1
132	190	1
18	19	4
26	75	2
152	153	2
84	84	1
141	141	5
114	114	5
39	40	1
80	84	1
143	144	1
133	188	1
42	74	1
16	19	1
180	182	1
195	196	1
60	61	3
157	158	3
20	21	3
107	112	3
22	22	5
30	30	3
188	188	2
98	112	2
58	58	2
94	95	3
37	37	1
114	116	3
128	129	1
85	85	1
149	167	3
141	142	1
100	100	6
131	132	1
38	38	1
6	7	1
70	70	3
74	74	1
78	182	2
98	114	1
141	148	2
98	108	1
176	177	1
31	78	3
140	140	3
56	57	2
105	112	3
10	10	2
36	36	2
114	115	2
35	171	1
0	0	1
120	120	2
134	175	2
143	145	2
118	159	2
110	110	2
143	146	2
125	125	1
48	183	1
41	75	2
14	54	2
63	63	2
26	39	3
99	143	1
3	148	1
78	181	1
189	189	2
52	53	3
151	157	1
155	156	2
83	186	1
146	146	4
51	52	3
171	172	2
79	181	1
97	110	1
132	194	1
64	68	1
93	95	1
139	167	1
6	6	2
109	109	2
128	185	2
11	58	2
149	150	2
99	99	4
107	153	2
99	111	1
182	185	3
188	189	3
59	60	1
25	42	1
103	104	2
168	168	3
82	186	1
31	76	1
88	88	1
173	175	1
35	170	1
147	147	2
48	196	1
187	194	2
26	26	1
192	195	1
121	121	1
137	176	1
48	51	1
159	164	1
113	160	1
61	61	1
77	181	1
112	153	1
181	185	1
103	120	1
43	44	1
140	141	1
2	2	1
189	194	1
27	31	3
142	168	1
62	64	1
41	44	1
42	76	1
44	44	2
169	178	1
177	178	4
14	15	2
75	76	1
96	131	1
81	85	1
47	50	1
81	81	2
152	154	1
125	126	2
122	123	1
174	174	1
168	185	1
4	140	1
40	41	1
175	176	1
