3	36	2
90	90	2
32	32	8
116	121	5
139	139	6
111	111	7
56	56	1
85	85	2
136	136	5
109	129	1
107	109	1
3	57	2
135	135	1
125	125	5
9	50	3
28	28	2
112	144	3
79	79	1
32	74	4
11	38	5
47	54	3
12	12	5
92	142	4
97	97	4
42	42	2
26	145	3
76	77	1
79	121	2
116	128	2
37	37	8
85	108	7
64	64	4
120	151	3
130	134	1
100	100	5
82	82	4
135	151	4
15	15	2
25	128	3
18	21	1
6	8	2
23	23	4
6	6	1
34	42	1
47	53	1
3	35	3
43	57	4
80	124	4
73	75	3
103	104	5
23	149	1
6	51	1
127	128	6
38	54	2
39	39	3
76	115	2
28	29	2
126	126	6
46	57	3
114	114	5
69	69	5
27	27	2
18	18	5
74	74	1
121	121	1
48	48	4
6	58	1
50	50	2
5	9	2
81	154	2
128	128	8
104	104	1
134	153	2
7	57	3
20	20	4
32	107	5
148	148	2
154	154	2
31	68	3
113	113	4
129	131	7
39	44	1
76	76	2
87	87	7
37	38	1
99	100	1
62	111	2
80	125	2
109	130	3
4	4	2
69	73	2
7	21	3
82	129	1
56	57	3
84	84	3
5	10	1
36	36	3
96	96	6
143	144	1
40	50	3
137	141	2
83	83	5
133	151	6
143	143	5
115	115	4
78	113	1
47	49	5
46	51	2
140	140	7
77	115	2
77	77	1
130	133	1
25	152	1
141	141	2
133	133	1
4	8	3
132	132	3
99	101	4
9	9	9
121	122	4
43	55	1
143	151	1
41	55	2
146	146	5
62	62	2
32	108	5
28	139	1
73	74	5
130	130	1
146	147	2
119	119	2
63	63	2
84	103	1
152	152	3
5	13	3
50	57	1
80	82	1
143	149	4
112	113	1
46	46	4
121	124	1
47	52	2
66	71	1
95	96	3
94	94	1
43	56	2
16	27	3
32	75	1
11	15	2
21	51	1
119	128	1
123	126	1
90	103	2
19	132	2
2	35	3
75	76	1
45	45	5
11	29	4
16	149	2
118	118	7
100	101	2
33	33	1
40	55	1
83	92	1
14	14	4
61	108	2
114	117	1
113	144	2
110	110	3
80	128	1
29	131	2
44	45	2
93	93	3
89	92	1
81	81	2
66	72	2
5	5	3
8	8	1
95	95	2
117	117	2
37	43	2
6	17	1
38	41	1
25	28	1
71	71	1
127	127	2
10	10	2
57	57	3
10	14	1
118	122	3
120	120	5
82	110	2
150	151	1
28	133	1
3	22	2
34	43	1
49	132	1
67	67	1
123	125	2
150	150	2
21	33	2
79	122	1
13	13	4
17	47	1
38	39	4
43	46	2
25	147	1
49	49	1
30	31	1
48	54	1
64	68	2
62	91	1
124	124	1
80	83	1
138	138	1
10	11	3
38	38	1
80	84	2
77	107	1
131	131	1
116	116	1
79	124	3
146	148	1
5	20	1
126	146	1
151	151	1
87	94	2
16	16	1
7	48	1
78	104	1
120	123	1
86	87	1
123	127	1
137	142	1
81	151	1
27	34	1
23	33	1
149	149	1
52	52	1
25	81	1
145	148	1
10	15	1
65	67	1
72	73	1
67	108	1
73	73	1
140	141	1
123	133	1
34	148	1
112	114	1
4	36	1
133	152	1
93	138	1
17	52	1
68	68	1
35	57	1
2	36	1
43	43	1
81	130	1
132	135	1
5	15	2
94	100	1
66	70	1
32	77	1
123	123	1
25	135	1
