4	4	19
72	72	20
111	112	7
111	111	15
79	79	10
105	105	19
79	82	1
16	17	5
84	84	18
75	75	30
71	71	21
129	129	17
85	91	2
74	80	3
24	24	8
117	117	20
93	103	1
94	94	12
123	123	16
88	88	7
33	33	15
81	82	9
26	26	7
78	78	21
33	34	6
87	87	20
138	138	8
75	76	4
103	103	15
92	93	2
6	8	4
134	136	2
13	13	10
34	37	4
135	135	17
127	127	7
73	73	11
140	140	18
120	122	7
0	22	2
136	136	8
130	130	14
110	112	2
105	107	6
125	129	1
114	114	15
34	35	8
29	29	3
5	5	10
11	16	2
110	114	3
131	131	31
86	115	2
91	94	5
96	96	17
35	35	23
4	5	4
73	74	2
109	109	20
85	85	10
18	18	17
92	92	11
118	118	15
2	4	6
90	90	17
126	127	4
139	140	1
132	132	21
115	123	2
124	124	11
74	75	2
76	77	8
114	115	2
30	32	1
17	18	5
129	130	12
100	102	1
120	120	14
78	83	3
95	95	11
118	119	8
123	124	1
81	81	7
107	107	20
91	92	2
6	6	15
83	83	17
19	29	3
108	108	18
36	36	17
4	121	2
8	8	8
125	126	2
34	34	15
21	21	12
21	25	6
112	113	4
106	106	12
83	90	1
30	30	6
17	17	12
20	20	17
122	122	14
1	14	3
19	19	15
27	28	2
89	89	11
79	80	5
133	133	19
115	117	2
10	12	3
98	98	10
18	30	7
13	38	7
17	19	3
76	76	10
77	86	5
32	32	14
23	25	3
31	31	9
136	137	3
86	86	16
93	94	8
101	101	23
1	3	1
74	74	9
112	112	10
125	130	1
102	103	7
121	123	1
97	97	10
19	82	5
91	91	10
82	83	9
110	110	6
121	122	7
81	83	3
26	27	3
101	103	1
75	78	1
121	121	17
90	125	4
1	4	6
12	13	3
104	104	11
126	126	5
113	113	14
11	76	1
18	34	6
77	84	2
117	120	1
75	126	1
89	93	1
106	107	4
128	128	4
124	129	6
95	99	4
100	100	7
104	114	3
6	7	3
77	77	6
101	113	1
11	12	3
11	11	13
81	85	1
84	85	6
25	25	3
34	38	2
9	9	20
27	27	11
125	125	5
6	11	2
71	128	1
8	81	1
89	91	5
104	107	2
80	85	3
23	23	12
137	137	3
79	83	1
91	114	2
93	115	3
104	105	1
7	36	3
139	139	10
80	82	4
16	16	20
28	31	4
4	8	1
37	37	12
22	23	6
7	7	11
23	79	1
38	38	6
81	102	1
1	1	7
116	116	15
99	99	18
7	8	4
10	81	6
0	28	2
3	3	11
80	80	3
30	31	2
19	20	3
29	30	5
73	75	1
103	104	6
95	96	2
11	26	5
71	78	7
13	14	3
17	82	3
12	12	7
77	79	7
18	19	5
28	29	6
124	125	1
134	134	8
73	80	3
93	93	5
0	0	3
102	102	7
123	125	2
72	74	3
10	10	4
83	93	4
21	82	3
14	15	2
23	24	3
77	78	2
22	22	4
100	101	3
80	86	4
85	89	4
3	7	3
13	31	1
28	28	10
10	11	2
2	3	1
83	103	1
37	38	4
102	105	4
104	106	2
72	73	2
9	18	6
86	87	8
15	17	3
29	32	2
2	100	2
119	120	1
101	102	2
8	75	1
8	74	1
111	113	1
8	11	2
76	85	1
5	30	4
117	118	3
85	86	3
107	108	2
2	2	5
92	94	5
119	119	4
1	13	2
15	66	1
118	121	2
27	30	3
82	82	4
24	25	2
107	112	1
36	37	1
0	1	2
90	91	1
116	117	3
87	91	2
23	28	2
120	121	2
109	110	2
93	101	1
20	21	1
78	87	1
91	103	1
77	82	2
31	32	2
91	93	1
28	97	2
87	113	2
90	117	1
4	31	1
130	131	1
113	119	1
6	107	1
84	92	1
138	139	1
22	25	1
103	119	1
102	104	1
100	103	1
137	138	2
118	122	2
13	29	1
99	108	1
12	106	2
95	108	1
4	7	1
112	117	1
87	89	2
100	104	1
85	108	1
100	128	1
73	79	1
116	126	1
36	99	1
15	15	2
115	115	3
91	100	2
74	123	1
83	102	1
97	99	2
109	111	2
84	89	1
7	10	1
100	117	1
127	128	4
22	79	1
117	123	1
71	77	1
88	90	2
87	88	1
6	9	1
0	99	1
89	90	1
115	127	1
81	87	1
74	85	1
76	78	1
28	32	1
128	130	1
95	115	1
90	115	1
107	125	1
103	118	1
38	99	1
13	110	1
110	111	1
12	110	1
104	109	1
5	6	1
94	115	1
27	32	1
