42	67	1
68	76	2
25	31	1
48	68	7
41	42	9
25	25	12
56	56	8
9	13	3
25	26	2
50	50	12
39	41	3
19	27	6
72	75	7
9	20	10
34	34	16
70	70	5
20	20	4
0	77	4
20	23	3
31	31	7
9	9	10
24	57	1
57	58	9
19	74	2
2	2	9
1	44	5
12	51	1
24	24	7
0	26	4
44	44	10
38	38	10
51	51	8
37	64	2
61	64	3
72	73	8
21	47	4
19	19	4
59	59	5
29	29	5
0	0	4
3	5	8
35	36	8
1	71	4
0	75	4
52	77	2
29	30	5
12	12	5
69	74	6
2	3	6
20	53	2
40	40	12
4	4	7
54	54	12
13	43	3
34	35	3
42	42	2
5	5	2
53	53	11
10	10	11
46	47	10
74	78	1
23	23	7
27	28	4
8	8	3
50	71	5
5	8	1
46	46	6
71	72	3
22	22	9
22	23	4
3	3	4
60	67	4
65	65	10
38	68	1
58	59	2
45	56	1
21	53	1
66	67	4
42	77	1
66	66	8
57	75	1
32	48	1
63	63	4
75	75	2
41	41	3
6	6	4
13	13	6
70	75	3
8	77	2
11	11	10
52	52	6
69	70	4
67	67	1
33	33	3
19	20	7
52	66	1
33	74	1
35	35	14
57	57	2
56	60	2
43	43	5
28	28	2
38	39	4
1	1	3
7	7	5
43	56	1
26	27	1
64	65	3
75	76	6
7	42	1
39	39	6
38	55	1
8	9	3
44	45	4
45	45	15
32	32	3
21	21	4
60	60	2
57	61	2
56	58	1
32	35	3
43	48	6
68	68	2
36	36	6
31	76	3
53	54	5
5	39	2
63	76	1
63	64	3
24	25	1
0	2	3
48	48	4
3	4	5
35	67	1
28	40	1
21	46	1
61	62	3
0	21	1
46	63	1
64	64	6
11	12	2
32	41	4
5	13	1
36	42	1
27	27	4
70	73	2
42	44	4
58	58	3
55	60	1
31	32	2
30	66	7
43	45	3
43	44	1
71	71	4
74	74	5
43	51	2
7	36	3
21	48	1
18	18	4
61	61	2
62	62	5
12	13	1
37	37	3
1	2	5
39	40	2
0	30	1
18	44	2
18	53	1
24	52	2
34	57	2
20	26	1
24	54	1
32	74	2
50	65	2
35	38	1
47	47	2
51	52	1
30	30	3
10	12	2
49	49	3
40	43	1
68	71	1
19	32	1
47	48	1
55	67	1
33	34	2
48	72	1
72	72	2
61	63	2
72	74	2
15	49	1
34	58	1
77	77	2
20	50	1
73	76	2
73	75	1
29	73	2
24	76	2
62	76	1
34	53	1
1	23	1
51	74	1
27	73	1
36	54	1
25	60	1
