164	165	6
67	93	3
33	47	4
189	189	1
5	11	5
70	109	5
222	222	3
102	111	2
165	165	9
157	157	9
193	194	2
26	40	2
98	98	7
30	31	10
230	246	4
115	115	4
174	175	1
86	114	9
230	230	2
65	67	2
40	42	5
120	120	2
1	1	1
186	186	17
182	183	6
74	98	2
58	58	3
9	20	2
11	14	2
4	5	2
53	54	6
68	68	10
87	88	1
54	54	17
59	64	1
43	43	17
115	117	2
31	35	2
9	9	9
101	101	6
85	90	2
90	116	3
226	226	6
44	44	8
36	36	6
196	219	3
52	55	2
195	210	5
175	200	7
177	177	9
149	150	1
178	178	7
15	15	4
26	27	6
92	93	1
222	239	3
233	235	3
71	72	3
75	75	5
162	162	7
96	103	1
31	31	9
18	31	2
90	92	5
238	239	5
65	66	3
152	152	4
85	85	12
194	196	2
199	202	5
239	245	1
175	181	5
187	187	2
114	114	5
218	221	3
62	228	1
59	66	5
37	37	5
112	112	3
237	242	4
23	23	6
232	239	3
240	244	5
19	24	1
50	61	2
67	67	1
52	82	3
154	154	12
16	247	2
228	228	2
117	121	2
50	50	7
39	41	1
74	95	1
87	89	2
176	182	2
172	173	2
229	246	3
234	234	10
225	247	2
150	150	2
210	211	3
45	45	2
62	62	14
195	211	2
67	79	4
40	40	3
48	59	2
79	80	2
208	208	10
155	175	2
84	84	10
68	70	1
211	211	1
67	109	3
60	66	1
75	208	2
36	51	2
2	2	7
212	212	5
185	185	12
6	6	4
56	56	4
102	105	1
33	33	5
71	71	7
24	25	3
158	158	2
169	171	8
203	203	4
22	22	3
204	204	3
154	161	1
197	198	7
178	196	2
115	119	3
206	206	2
210	210	6
238	238	2
51	51	3
181	181	7
174	194	1
241	241	7
77	77	2
95	108	3
207	207	6
175	206	1
55	55	5
71	80	1
233	238	2
156	156	9
245	245	7
194	222	2
119	120	3
188	189	3
201	202	4
17	22	3
85	100	2
81	109	3
173	173	9
112	170	3
213	221	5
11	32	4
212	222	3
155	155	10
220	220	5
234	235	2
183	199	1
81	81	2
65	79	2
235	235	6
69	69	4
189	201	3
28	28	7
242	245	1
72	76	1
111	112	1
117	117	2
105	105	5
211	212	1
50	57	3
218	219	2
32	32	12
119	119	7
169	169	1
194	239	2
74	94	1
175	175	2
196	198	2
79	79	3
176	191	1
94	94	6
199	199	6
16	16	5
99	118	1
43	63	1
53	80	1
41	41	5
45	233	1
216	216	5
25	25	5
181	182	2
177	178	2
0	0	4
66	66	9
82	82	7
82	107	1
234	236	2
10	10	7
185	186	3
199	200	3
74	97	6
164	164	2
24	24	4
119	150	3
224	242	2
41	80	3
205	210	1
219	221	2
216	217	11
109	109	9
224	224	3
52	52	4
180	180	4
31	103	2
37	100	2
55	77	2
231	233	3
86	86	8
56	77	3
217	217	4
80	80	4
73	73	4
23	24	3
8	9	1
49	49	5
201	201	10
107	107	3
247	247	6
231	231	4
214	214	4
241	245	2
29	30	3
19	19	5
228	229	9
88	88	5
18	18	3
85	120	4
219	233	1
113	117	3
91	91	1
22	23	2
42	42	7
202	203	2
174	200	2
1	2	1
171	171	2
160	160	1
108	108	1
60	61	4
192	192	7
65	88	2
170	200	3
116	116	7
10	11	3
219	239	2
55	67	5
186	187	2
4	20	1
68	71	4
13	15	3
195	196	2
146	146	3
100	100	7
47	48	3
184	214	1
14	21	3
70	70	4
86	87	5
166	183	1
69	71	1
169	178	4
95	95	1
102	104	2
7	7	4
5	23	5
176	177	3
76	77	2
80	82	1
209	209	4
188	188	2
200	200	3
47	47	1
52	54	1
203	204	6
163	163	2
78	95	2
103	106	1
84	89	1
14	14	11
243	246	2
28	47	2
29	29	7
66	73	3
184	184	2
174	196	5
11	12	3
167	167	11
213	213	7
76	76	4
159	159	3
232	247	1
150	153	3
223	223	5
145	154	1
16	46	1
18	30	2
4	14	1
198	198	5
2	112	4
113	113	6
237	238	1
170	170	5
99	100	6
225	225	6
50	77	6
104	104	3
36	40	5
218	239	3
60	79	4
28	52	1
63	63	1
159	160	2
56	67	6
45	72	2
11	11	5
47	64	2
81	82	3
75	77	1
10	16	1
30	30	2
232	232	6
160	162	2
205	205	4
218	218	2
160	161	1
72	75	2
145	145	4
62	63	1
175	176	6
189	209	2
71	82	3
190	209	1
81	95	3
102	102	5
198	243	4
190	191	4
189	190	4
206	220	1
49	61	3
168	171	4
242	243	2
48	50	2
219	219	4
27	32	1
149	170	1
82	106	1
55	56	1
167	178	2
107	108	2
232	238	1
197	215	1
180	190	2
17	19	1
175	203	2
27	27	1
204	208	2
38	43	2
183	226	4
199	215	1
68	158	2
240	240	1
118	119	1
110	113	6
84	85	1
90	101	1
163	167	2
2	3	8
44	46	2
236	236	4
186	195	5
73	97	4
114	120	1
153	204	2
47	57	1
47	76	3
89	109	1
21	21	7
8	8	3
35	59	1
14	22	1
243	244	3
176	183	1
239	244	1
227	227	3
180	181	3
104	105	2
199	209	5
161	162	1
225	240	2
155	156	1
166	166	2
34	47	2
237	237	4
105	110	1
96	96	5
1	15	2
190	227	3
100	101	1
27	226	1
111	111	2
215	215	1
201	207	1
196	221	3
196	196	6
242	242	3
12	13	1
1	13	3
178	193	1
159	174	1
59	78	1
232	246	2
194	194	1
9	15	3
155	176	1
11	17	2
58	64	1
195	195	4
69	70	3
12	12	2
218	222	1
20	20	2
151	151	1
217	229	2
206	207	2
44	113	1
61	61	3
10	23	1
14	15	2
217	218	2
215	230	2
72	72	3
87	87	1
5	10	2
83	107	1
159	179	1
222	223	1
54	55	3
63	219	1
182	182	5
59	60	2
31	46	4
93	93	2
197	197	1
219	246	2
11	19	1
230	233	1
90	117	2
179	179	2
77	95	2
192	193	1
43	183	1
184	198	2
216	229	2
48	56	1
57	57	3
99	107	2
211	213	1
48	58	4
244	244	4
7	244	1
43	71	1
202	202	2
190	190	1
89	98	1
21	22	7
184	212	1
173	191	1
165	201	2
144	145	2
229	229	3
5	12	2
26	26	2
89	89	4
176	176	5
56	66	1
72	73	1
109	110	3
52	74	1
223	231	1
83	84	2
213	222	1
163	168	1
65	65	1
34	34	6
234	239	1
48	48	5
236	243	1
46	64	1
88	89	2
111	114	1
243	243	3
39	39	2
221	221	3
92	92	1
232	237	1
82	83	3
82	89	1
218	243	1
149	149	3
64	64	3
111	113	1
193	197	1
97	108	1
167	168	1
192	211	2
110	110	2
186	192	1
154	168	1
84	107	1
157	158	1
110	112	3
184	197	1
64	67	2
183	227	1
63	230	1
10	38	3
44	82	1
48	61	1
154	212	3
171	172	1
91	118	3
216	221	1
99	99	2
214	218	1
76	79	1
241	244	1
74	75	1
31	32	1
199	207	1
55	62	1
202	210	2
192	195	1
41	84	1
50	62	1
177	195	2
226	236	1
239	239	3
82	85	2
154	209	1
166	208	1
46	72	1
249	249	1
8	14	1
36	44	1
12	20	1
38	62	1
28	29	3
38	41	2
45	62	1
12	17	1
97	105	1
57	61	1
199	231	1
212	214	1
47	67	1
5	15	1
193	196	1
204	213	1
229	240	2
43	48	1
220	226	1
224	237	1
187	207	2
235	236	1
68	69	1
218	248	1
202	205	1
34	48	2
37	38	1
26	98	1
5	5	1
27	28	1
174	174	1
33	34	1
194	204	1
3	6	1
46	46	1
213	214	1
225	226	2
82	93	1
167	169	1
217	221	1
80	83	1
27	35	1
238	243	1
227	234	1
67	73	1
61	66	1
