74	79	2
90	90	1
50	53	1
33	34	3
54	68	3
56	72	1
27	27	1
99	101	3
35	43	3
47	48	6
31	31	2
48	48	3
81	81	8
29	29	5
65	67	3
54	57	3
52	52	12
24	36	1
47	58	3
104	105	9
42	42	5
21	21	7
102	108	3
97	97	14
63	63	12
40	59	2
83	83	7
54	54	3
71	72	1
77	91	5
26	27	2
88	89	3
83	84	8
94	103	1
50	57	2
98	98	9
90	111	1
45	47	7
69	69	11
73	74	4
112	113	11
34	34	6
23	30	3
101	101	13
32	32	3
62	69	2
49	49	4
30	42	1
89	105	2
52	73	2
93	93	6
56	61	3
40	40	3
87	87	5
28	28	2
110	110	8
63	66	1
38	38	3
31	49	1
88	95	3
105	109	5
99	99	4
111	111	4
64	65	4
66	66	5
39	40	1
100	100	7
71	97	4
72	74	3
20	20	4
104	104	7
69	84	1
91	104	1
45	73	1
79	85	3
45	45	8
23	25	4
92	92	6
38	51	1
34	35	5
53	54	4
28	40	6
69	82	3
41	59	2
54	56	3
103	109	1
61	71	1
62	64	1
46	58	2
21	43	2
29	32	3
91	94	2
50	50	8
34	39	1
73	97	5
63	78	5
109	112	1
85	94	3
113	113	14
64	66	3
24	31	3
75	75	2
103	103	3
100	101	6
73	76	1
84	111	1
20	29	2
77	88	5
88	88	3
23	24	1
30	30	1
107	107	5
44	44	7
60	62	2
77	78	3
43	43	2
107	109	4
36	37	1
23	23	5
33	33	4
77	77	5
106	107	2
37	37	6
93	114	2
101	103	1
93	107	2
60	60	8
31	45	2
88	92	1
65	74	1
96	107	2
56	56	4
45	54	6
42	50	2
74	74	6
76	76	5
61	107	4
67	68	1
67	67	2
51	65	2
60	63	2
85	98	3
39	46	1
95	110	3
64	67	3
105	111	2
30	41	1
79	79	5
55	58	1
105	105	3
112	112	1
85	102	2
73	73	5
108	108	4
64	64	3
104	110	1
87	88	1
55	61	2
65	65	1
35	40	7
89	94	2
44	54	2
88	104	1
102	103	2
53	55	2
89	89	3
58	58	3
55	55	1
107	108	2
38	41	2
35	37	2
78	80	1
88	102	1
30	40	1
46	46	5
68	69	7
35	36	1
51	69	1
72	93	1
89	90	1
53	64	1
42	43	5
37	38	3
60	71	1
26	28	2
59	60	4
22	37	2
37	49	4
39	49	2
93	113	1
103	110	1
62	62	2
51	51	3
31	39	4
39	50	1
93	95	1
48	49	1
66	70	2
70	70	6
45	53	1
84	96	3
74	81	3
75	81	4
76	78	2
85	86	3
39	39	1
74	84	1
84	100	1
31	32	2
70	77	1
104	106	1
30	31	3
105	106	6
23	42	1
32	41	1
59	61	1
79	82	2
46	61	1
24	28	1
96	101	1
50	58	1
27	37	1
98	99	2
36	40	4
91	91	1
29	30	1
26	40	1
94	102	1
111	113	1
36	36	2
26	35	2
84	98	1
87	103	1
21	23	2
53	60	1
101	102	3
28	36	1
47	53	3
57	57	2
109	114	2
95	112	2
29	49	1
77	80	1
20	38	3
80	80	2
96	96	2
36	66	3
103	112	1
25	27	1
53	53	1
30	44	5
55	59	1
20	28	1
22	22	2
37	40	1
25	26	2
96	106	1
19	31	1
54	58	1
70	76	1
38	40	2
25	86	1
97	102	2
74	76	1
71	71	1
95	95	2
71	90	1
29	33	1
106	106	1
93	103	2
30	32	1
61	61	1
100	114	1
19	21	1
55	57	1
33	36	1
24	27	1
19	24	1
46	60	1
82	82	1
78	78	1
23	28	1
54	55	3
61	62	1
51	54	2
50	51	1
87	104	1
46	59	3
35	49	1
62	76	1
109	109	3
84	89	1
40	44	1
27	28	1
112	114	1
31	37	1
52	69	1
44	55	1
53	65	2
97	105	1
81	86	1
41	43	1
59	59	1
65	66	1
22	38	1
19	32	1
80	113	1
47	47	1
75	105	1
34	36	1
76	103	1
27	42	1
73	80	1
84	84	1
70	80	1
96	97	1
