111	111	20
100	123	3
103	106	3
34	34	11
106	107	11
0	0	7
83	84	5
15	15	15
56	105	7
47	47	16
19	19	14
133	133	7
62	130	2
3	13	5
89	116	1
10	19	3
129	129	10
66	66	9
119	119	9
97	97	14
68	68	11
11	11	9
32	32	14
29	29	11
126	134	1
76	84	6
131	131	7
13	13	8
123	124	6
103	104	3
83	83	15
69	69	8
44	44	10
56	56	9
9	12	1
126	126	9
35	114	4
5	21	5
75	75	2
77	77	19
104	104	11
23	25	6
85	85	10
73	116	3
87	87	10
84	84	2
92	92	9
1	74	3
130	132	2
57	59	2
9	40	3
78	120	2
103	130	1
8	8	7
16	16	10
28	28	8
15	16	5
107	107	4
116	126	4
132	132	17
20	20	12
21	21	13
88	89	3
45	45	25
64	64	16
14	14	5
73	74	4
12	13	4
73	73	6
128	128	5
128	129	3
46	110	2
133	134	4
37	38	3
97	128	2
27	27	15
91	94	5
17	45	5
114	114	10
2	3	4
22	22	4
91	91	14
122	122	3
106	108	2
35	109	1
34	35	2
46	46	12
95	131	1
70	70	10
20	21	9
75	103	5
115	116	7
132	133	7
80	85	2
11	13	4
40	40	12
17	17	3
7	24	3
5	5	3
57	110	5
26	27	1
123	123	1
83	128	2
78	78	23
10	22	6
76	76	12
42	42	16
76	77	1
59	60	7
25	25	4
60	116	5
38	41	6
3	6	5
9	9	4
85	86	1
130	134	7
88	88	7
87	130	4
96	97	6
106	109	1
41	83	3
102	103	3
10	23	5
4	4	4
124	124	8
78	79	4
76	120	3
10	105	4
45	65	2
12	12	4
113	113	6
10	18	2
79	85	5
59	118	3
61	61	16
48	48	5
77	78	4
35	35	3
17	18	2
59	59	12
123	126	4
111	112	5
113	117	2
7	7	14
77	79	2
31	31	4
39	58	9
80	80	5
102	113	5
41	42	2
92	133	1
79	79	7
90	91	6
24	44	1
40	41	6
68	69	2
131	133	10
35	110	3
110	122	3
15	43	1
9	10	11
5	22	2
116	116	6
74	134	4
15	37	6
95	132	2
18	18	3
82	83	9
57	58	1
87	125	1
109	109	2
6	99	6
60	60	7
72	74	6
71	72	3
31	56	3
16	18	3
37	37	2
32	33	6
65	65	12
29	30	3
49	49	1
120	120	7
9	22	1
4	20	2
77	85	2
81	81	10
95	95	5
57	73	3
37	116	3
117	117	18
19	20	4
131	134	1
60	115	4
75	134	3
112	114	2
64	73	2
1	2	3
43	43	11
92	95	2
26	26	4
25	39	1
101	102	2
42	55	1
37	70	2
12	28	2
115	115	6
125	126	3
80	121	2
106	111	4
17	35	1
11	31	3
101	101	5
93	130	2
3	3	6
87	88	8
60	61	1
102	102	8
8	87	3
41	41	5
20	22	1
35	36	1
105	105	3
82	82	2
70	134	2
39	110	2
83	127	4
62	62	5
70	127	3
93	93	7
99	100	2
106	106	1
22	48	2
14	41	2
35	39	2
97	124	3
1	3	2
38	38	8
121	122	6
63	74	3
72	75	2
81	83	4
116	117	1
103	103	12
63	63	4
99	101	1
99	99	3
25	106	1
34	127	1
23	23	8
24	24	2
30	56	1
96	124	2
90	90	7
4	5	1
71	71	4
95	125	3
42	43	11
59	121	1
125	125	6
89	133	7
131	132	7
39	41	2
36	42	4
80	128	2
75	94	2
23	24	3
82	123	4
14	27	2
84	88	2
110	110	7
118	118	2
67	68	3
10	12	1
121	121	4
114	116	1
32	70	1
96	96	1
66	67	12
72	94	4
84	123	1
55	56	3
99	117	2
100	100	4
8	24	1
27	43	1
94	94	8
113	115	2
10	103	2
6	6	5
104	106	2
69	75	1
110	111	4
107	108	2
100	102	1
132	134	3
67	67	3
39	39	4
46	47	3
70	75	3
36	36	3
71	73	1
15	50	2
27	28	5
3	4	1
45	64	1
113	114	4
2	2	6
91	92	2
65	118	1
41	43	1
105	106	1
84	134	2
130	133	1
35	44	1
0	118	2
108	110	4
7	71	2
96	125	2
19	97	1
49	51	1
110	116	5
57	107	1
71	74	2
114	127	6
107	111	1
21	81	1
18	19	1
89	89	3
120	121	1
112	122	1
98	98	4
32	47	3
116	118	2
63	76	2
11	49	1
3	73	2
86	86	1
127	127	2
6	100	2
99	126	1
30	50	3
85	122	3
93	131	1
79	81	2
17	44	1
17	32	1
97	98	3
58	120	1
31	42	2
69	127	1
86	95	1
11	30	2
74	103	1
108	108	1
116	127	1
39	56	1
75	77	1
7	8	3
20	40	2
5	29	2
20	48	2
15	18	3
130	130	4
58	59	1
11	14	1
36	112	4
78	90	1
79	93	1
95	96	1
15	48	1
44	118	2
112	112	1
101	103	2
117	118	1
81	93	1
71	130	1
69	71	2
15	30	1
88	127	1
26	28	1
9	24	1
19	31	1
29	40	1
126	127	1
30	33	2
58	60	1
84	85	1
101	112	1
55	55	1
84	133	1
63	75	1
14	47	1
48	49	1
22	77	1
11	25	1
67	117	1
74	74	1
72	73	2
58	58	2
85	123	1
33	33	2
129	134	1
57	57	2
127	134	1
16	58	1
20	24	1
25	33	1
87	100	1
79	83	1
91	124	1
6	91	1
8	92	1
11	29	1
34	114	1
95	101	1
16	26	1
42	56	1
22	40	1
23	106	1
13	14	1
92	93	1
