33	33	8
188	188	4
24	25	3
19	52	2
18	78	4
63	63	5
47	47	9
35	36	3
165	166	2
134	135	4
8	8	1
74	75	8
4	4	1
149	150	1
174	174	10
131	131	5
116	116	2
86	86	2
79	80	7
75	76	5
32	32	2
13	13	5
14	66	4
133	194	1
95	152	2
59	60	6
11	11	1
10	10	1
114	114	2
138	138	5
101	102	3
25	26	1
126	126	3
97	168	1
98	98	1
33	36	3
52	52	8
56	58	2
45	48	1
107	131	4
136	137	1
72	72	5
183	183	3
5	6	4
133	133	3
182	182	2
125	125	6
32	160	3
106	107	3
40	41	2
3	9	1
139	139	3
35	35	5
16	30	2
45	45	8
77	77	7
42	42	4
112	112	5
77	148	2
26	26	7
121	122	1
165	165	6
18	18	5
115	148	2
28	28	3
20	20	5
24	26	2
170	171	2
96	96	1
79	79	4
123	192	3
111	132	1
153	154	1
180	180	5
1	1	1
172	172	5
122	122	3
155	155	5
185	186	1
141	178	3
101	153	2
107	107	1
130	132	1
169	169	1
34	34	3
41	41	3
151	151	3
5	24	1
20	68	2
107	130	1
176	176	3
129	133	1
64	64	1
23	69	4
171	171	4
89	89	2
116	117	2
82	89	3
12	13	2
187	187	8
55	55	1
80	80	2
123	182	4
3	3	4
15	15	1
37	37	2
53	53	2
36	36	9
130	130	3
13	14	2
111	111	5
81	124	3
40	40	4
78	78	3
129	129	2
109	109	3
84	84	4
167	167	2
166	167	2
81	81	4
163	163	1
68	69	3
108	166	1
108	144	2
47	71	1
34	41	5
153	153	1
167	168	2
29	67	1
82	82	5
128	128	4
194	194	7
25	25	4
142	168	4
22	22	2
51	51	3
97	97	2
99	108	1
0	0	3
43	43	2
186	186	5
18	77	1
23	23	2
144	144	3
31	32	1
5	7	3
59	61	2
69	69	6
101	157	2
96	97	1
152	152	1
30	31	2
19	77	1
29	29	3
71	71	2
1	164	1
146	146	1
134	134	4
183	185	3
190	190	5
173	173	1
143	143	6
163	165	2
139	194	3
84	85	3
69	128	1
70	70	2
38	38	3
134	195	2
20	38	1
181	181	4
45	46	3
109	110	2
31	33	1
48	49	1
68	68	5
114	116	2
174	176	1
197	197	2
101	101	2
12	12	7
54	56	3
59	59	2
9	136	1
112	113	1
159	159	5
97	141	1
37	39	2
135	135	1
162	162	1
192	192	4
118	118	2
173	180	3
97	99	2
127	127	1
141	141	3
73	73	2
117	130	1
103	157	2
195	196	1
118	150	1
56	56	2
33	42	2
20	21	8
156	156	2
65	65	2
176	181	1
62	63	2
12	14	1
177	177	5
159	160	1
102	104	1
61	78	1
35	154	3
135	136	1
96	152	1
110	110	3
124	124	1
136	136	1
164	164	3
94	94	5
67	67	1
106	116	4
111	131	2
3	179	1
27	27	2
109	166	3
196	196	1
181	182	1
55	56	1
25	160	1
120	120	3
58	61	1
53	192	1
24	24	2
16	62	1
178	187	1
103	103	1
133	195	1
4	5	1
96	150	2
189	190	2
191	193	1
145	145	2
15	16	1
106	106	5
133	136	1
18	72	2
148	158	1
85	85	2
193	193	1
15	64	1
49	50	1
143	144	1
184	184	1
105	105	3
40	76	4
161	163	2
144	167	1
159	188	2
37	40	1
44	44	2
152	169	2
93	94	2
27	66	2
17	38	1
10	172	1
112	131	1
58	58	2
20	39	2
46	65	1
45	155	2
121	121	1
132	132	1
63	171	1
177	190	1
62	62	2
160	160	1
95	95	2
175	175	1
8	65	2
14	14	2
115	115	1
9	9	1
90	90	1
157	173	1
54	138	1
28	29	1
178	178	1
19	19	1
158	158	2
6	6	1
98	99	2
137	137	1
10	43	1
19	21	1
174	175	1
126	185	1
140	141	1
153	174	1
85	89	1
145	146	1
78	81	1
150	151	1
126	127	1
65	68	1
54	54	1
8	181	1
7	8	1
130	133	1
122	195	1
50	52	1
176	189	1
0	20	1
