65	65	6
152	152	7
137	137	6
120	120	21
79	83	4
163	163	6
20	21	5
52	70	7
76	76	12
37	52	2
70	70	8
20	20	11
75	76	1
35	36	3
63	64	11
122	122	9
90	157	6
57	57	4
47	50	3
99	99	14
49	49	24
4	71	2
38	38	12
9	11	5
106	138	1
92	104	3
124	129	2
67	83	1
17	36	3
4	4	11
150	150	11
41	41	7
111	111	11
157	157	10
102	140	2
10	11	6
73	77	8
97	97	1
54	55	7
67	68	8
138	138	14
122	124	4
130	131	3
83	83	8
127	127	5
9	10	5
121	121	3
136	136	4
54	54	14
165	165	10
13	13	11
145	146	5
114	114	10
93	121	5
69	69	4
45	45	2
132	133	6
71	82	3
80	152	1
56	153	2
156	157	7
75	75	7
11	13	6
39	40	7
165	166	3
11	18	4
46	65	1
81	84	1
7	7	13
35	35	12
158	158	11
62	88	4
3	3	13
142	143	6
98	98	9
119	127	1
73	74	5
56	56	6
10	10	5
2	2	12
17	17	16
50	68	4
14	14	4
153	153	8
162	162	10
155	155	10
92	123	2
92	96	1
61	62	4
25	27	3
102	102	9
74	149	1
107	107	2
141	141	5
168	168	7
45	52	3
97	98	1
5	5	5
128	129	9
142	142	5
109	109	11
85	86	4
154	155	3
154	167	2
102	103	1
77	81	2
54	65	2
150	152	8
149	149	13
77	77	6
168	169	7
140	140	5
118	118	8
28	28	2
68	68	8
101	101	5
125	125	9
86	86	8
38	40	4
130	130	3
115	115	5
109	110	3
66	66	7
38	107	2
145	148	2
23	24	3
69	70	6
159	162	5
44	45	4
4	5	1
34	39	2
101	102	10
50	50	9
14	20	1
105	105	9
9	9	20
81	82	13
21	24	2
169	169	7
84	84	7
122	139	1
116	116	8
33	33	4
98	129	1
163	164	2
103	104	6
146	146	10
22	27	2
68	83	3
114	115	6
12	13	3
91	91	9
11	11	10
16	16	14
46	46	5
150	169	2
87	87	6
74	74	4
92	92	9
115	116	3
164	165	2
167	167	3
159	160	9
139	139	14
146	147	2
37	37	9
41	77	2
13	14	1
100	100	7
18	19	13
98	103	2
53	53	15
5	149	2
76	77	4
55	55	8
150	170	2
21	21	8
104	104	10
64	65	3
110	110	10
48	54	3
126	127	4
17	109	3
153	154	2
51	51	1
25	25	8
126	126	7
132	132	12
45	56	1
113	113	5
80	82	3
68	69	3
145	145	4
128	128	6
78	79	7
119	119	14
130	144	1
118	119	4
135	136	5
151	151	5
12	12	17
129	129	1
107	137	3
124	125	7
139	142	5
94	94	3
151	152	6
22	25	3
40	40	4
21	22	5
97	122	1
149	160	2
24	24	10
80	80	5
123	123	7
43	43	9
166	166	6
77	103	3
109	124	4
23	71	2
22	22	11
46	47	5
106	106	3
85	92	3
148	148	11
11	12	5
159	159	1
10	23	2
19	24	1
40	41	5
90	90	2
0	0	11
20	23	2
78	78	7
134	134	3
15	15	6
8	8	13
105	168	4
64	152	2
1	76	3
152	153	8
161	161	14
92	146	1
80	83	6
36	36	5
144	145	3
69	90	4
23	23	2
52	52	10
54	66	2
96	96	8
22	24	5
52	53	7
154	156	6
6	6	2
143	143	5
144	144	3
8	10	1
45	51	6
89	155	1
74	76	3
7	8	3
63	63	9
126	146	2
157	158	4
7	10	2
41	43	2
81	81	9
50	51	3
39	69	1
71	103	2
12	20	2
69	71	2
160	160	5
67	67	2
13	20	2
154	154	5
0	2	3
147	147	3
108	108	3
35	51	2
105	169	1
20	50	4
76	80	2
1	1	4
82	82	4
97	99	4
92	93	3
64	64	5
119	122	4
47	87	4
141	142	2
135	135	4
18	18	7
68	87	2
14	15	2
44	44	1
47	53	2
112	118	1
150	151	4
89	89	1
135	140	4
7	19	5
5	13	1
134	147	3
67	69	3
129	130	4
118	129	4
62	63	3
8	24	2
42	42	5
146	148	2
45	46	3
72	72	1
38	39	4
103	103	7
26	26	4
72	77	1
80	81	2
117	117	7
46	48	2
42	56	1
132	141	1
18	24	2
127	133	3
164	164	4
116	117	2
85	85	4
16	17	2
124	139	2
1	146	1
15	17	1
97	137	1
62	62	6
41	42	4
47	52	1
111	134	1
8	13	2
73	75	2
144	146	1
133	134	1
42	43	7
90	91	3
93	93	7
120	148	4
47	51	3
163	165	3
27	28	3
9	12	5
110	134	1
105	139	5
0	1	3
88	89	4
91	93	1
39	156	1
50	70	1
104	142	1
77	78	1
161	166	1
124	147	1
101	107	1
47	47	5
53	56	2
133	133	1
57	152	2
13	21	2
48	48	5
88	88	6
135	138	1
0	104	3
127	129	1
22	23	2
162	166	5
107	108	1
21	67	1
140	141	2
124	127	1
20	24	2
147	148	5
36	37	1
118	127	2
73	76	1
131	149	3
10	12	2
106	137	2
131	131	1
73	73	3
55	56	1
117	118	1
93	94	3
3	150	2
99	100	2
58	71	1
149	150	1
119	132	3
75	86	1
123	125	3
27	27	1
119	142	1
142	146	1
124	124	1
39	39	2
83	84	1
155	156	2
126	144	1
95	96	2
127	128	1
26	27	3
116	130	3
83	96	2
10	70	1
71	71	3
34	35	1
139	141	1
86	109	1
154	160	2
98	99	2
35	49	2
10	19	1
5	76	5
118	124	1
156	156	2
5	19	2
136	138	3
118	122	2
167	168	2
20	22	1
34	37	1
160	161	1
34	34	2
96	111	1
121	122	1
96	97	1
117	148	1
48	53	2
37	43	1
6	73	2
88	94	2
57	71	1
106	167	1
13	16	1
75	123	1
93	95	2
62	64	1
48	49	1
41	55	1
146	150	1
95	95	1
25	70	1
8	11	1
125	128	1
48	50	1
8	9	1
84	85	1
51	52	1
127	131	1
