69	69	25
21	21	16
68	68	13
39	39	20
106	106	9
26	27	9
35	76	5
75	75	22
90	90	4
91	91	15
44	44	9
73	73	27
21	61	1
66	66	26
93	93	16
49	73	3
64	65	2
100	106	3
22	22	14
41	41	10
24	24	23
30	31	5
94	94	9
46	46	7
105	105	24
85	85	4
28	31	4
83	87	5
79	79	10
40	40	14
27	68	6
65	66	6
93	97	2
103	103	16
65	65	19
54	54	12
26	28	6
64	64	21
61	62	7
72	101	2
53	53	17
92	92	11
38	38	24
49	49	12
22	69	1
95	99	1
60	61	7
47	47	14
52	78	5
23	23	18
89	89	19
36	67	2
49	105	2
28	76	5
23	24	5
25	25	14
20	70	4
81	81	34
52	53	8
34	34	22
70	70	21
30	30	14
31	31	15
95	97	8
66	67	22
59	59	24
102	104	7
40	41	4
52	52	29
26	26	18
38	50	1
56	56	6
100	100	16
46	54	1
83	84	9
27	67	2
49	50	5
80	80	11
25	26	9
51	51	15
46	53	1
30	54	4
58	88	4
78	78	11
20	21	4
57	57	13
60	63	1
101	101	24
88	89	3
29	34	3
74	74	27
102	102	14
31	32	5
77	78	8
72	72	18
50	50	22
20	30	4
98	98	4
101	103	2
107	107	2
40	45	1
53	56	2
89	90	4
72	73	4
35	35	25
93	94	2
50	57	5
77	77	24
51	79	4
43	45	3
35	36	3
37	37	5
31	37	6
43	43	7
67	67	20
58	59	5
46	47	7
61	61	13
33	34	6
50	83	9
104	104	20
55	55	23
84	86	1
88	88	11
32	34	7
54	57	9
29	32	4
42	43	4
62	63	4
48	98	6
87	87	8
21	24	2
51	52	6
96	96	12
33	36	4
71	71	27
84	84	8
86	89	5
46	56	1
103	104	4
67	68	3
70	77	4
95	95	9
76	77	5
50	96	1
80	81	3
32	32	5
82	82	5
102	103	5
84	85	7
22	106	3
95	98	2
60	60	18
51	57	4
56	59	3
24	26	3
23	71	5
43	44	2
90	91	14
71	77	3
77	79	1
26	40	2
81	86	3
34	100	2
24	50	2
70	101	2
28	46	1
63	63	4
34	35	4
42	42	14
59	69	1
33	33	6
27	28	2
69	72	2
27	27	7
27	87	5
52	75	1
45	68	2
28	28	9
74	75	15
20	20	5
83	83	5
22	23	6
73	74	4
82	83	5
51	73	4
57	58	9
39	67	3
37	52	3
85	97	1
34	105	3
24	46	1
45	45	5
25	28	5
44	45	5
51	53	1
71	72	2
22	25	6
54	56	1
58	72	2
36	37	3
58	58	13
62	62	10
45	52	3
22	28	4
39	44	3
72	76	2
86	86	7
47	48	3
97	97	5
63	64	7
71	73	2
31	33	2
96	97	5
36	39	3
78	81	3
25	48	3
78	79	1
68	72	4
88	91	2
65	67	2
20	31	2
59	85	1
27	58	2
99	105	1
52	102	1
36	36	12
32	36	2
39	43	2
30	56	2
23	103	2
61	65	6
76	76	5
99	99	9
39	40	1
26	48	2
40	60	1
59	60	5
27	59	2
69	71	1
29	71	3
101	102	3
81	82	4
77	90	2
86	87	7
21	22	3
42	62	1
26	67	1
74	86	1
30	36	3
92	96	3
76	78	1
56	57	3
57	73	2
29	29	7
39	61	5
74	104	2
70	71	1
53	102	1
76	91	1
72	75	1
25	49	2
91	92	5
23	55	1
48	48	4
87	93	1
68	69	4
39	45	2
26	68	3
20	48	2
75	76	1
19	25	1
76	90	1
39	62	5
59	71	1
30	71	2
49	98	3
21	66	1
20	27	1
51	72	1
30	49	3
52	79	2
54	55	1
72	95	3
104	105	2
64	66	2
50	100	1
52	90	1
23	105	2
53	93	4
31	79	1
79	80	2
48	49	1
37	38	4
50	51	5
52	56	1
105	106	1
73	100	5
21	38	1
73	104	2
83	86	1
38	82	2
74	88	1
50	84	1
100	101	3
97	98	1
33	105	1
30	38	1
31	75	1
55	56	1
36	45	1
99	104	1
55	101	1
31	49	1
39	41	1
23	101	1
29	48	1
51	100	1
29	54	1
69	84	1
24	105	1
24	70	1
61	77	1
85	92	1
28	30	1
88	95	1
