73	73	45
30	61	4
69	78	3
67	67	25
92	93	13
59	60	6
99	99	20
80	80	27
70	70	41
36	37	8
69	70	15
94	94	11
27	27	6
100	100	12
28	28	7
39	39	9
57	57	30
24	97	1
49	51	3
77	77	35
69	69	25
29	51	4
60	61	4
101	101	20
62	63	15
66	71	3
62	62	33
68	68	39
52	53	6
35	36	7
87	88	11
55	55	17
76	78	8
33	33	16
44	45	1
81	82	8
67	68	10
86	86	24
66	70	2
87	87	18
59	59	14
76	76	20
58	58	15
52	55	1
78	78	52
92	92	8
61	62	2
79	79	27
96	97	2
83	83	25
66	66	18
85	85	27
74	75	8
89	89	18
64	64	44
88	88	23
53	53	5
34	34	6
71	71	26
63	63	37
74	74	23
31	31	15
68	69	4
30	49	4
65	66	17
72	72	24
36	36	15
98	99	1
91	93	3
53	54	4
25	26	8
40	40	18
67	70	6
48	49	4
46	46	9
86	88	7
60	62	5
34	48	1
65	65	27
32	54	2
71	72	16
30	30	5
79	80	8
45	83	1
43	43	17
42	66	3
75	75	27
94	98	5
78	79	2
54	54	4
45	45	9
48	48	19
44	64	2
26	26	22
34	50	4
82	82	9
44	44	22
96	96	5
50	50	16
34	82	3
42	42	11
61	61	19
75	76	5
29	29	9
98	98	4
49	50	3
90	90	12
100	101	6
49	86	9
38	38	21
91	91	18
25	25	2
47	69	4
63	73	3
90	91	6
49	49	19
30	31	2
47	48	6
99	101	2
44	71	2
40	83	3
79	82	1
44	92	3
63	64	6
88	89	9
23	23	1
81	81	23
101	102	5
57	58	8
93	93	17
51	51	8
76	77	13
38	39	5
52	95	2
41	42	12
31	79	6
42	43	11
36	84	3
41	41	14
66	67	6
35	35	9
24	24	4
62	67	2
56	56	10
56	101	1
51	90	1
85	86	6
98	100	2
100	102	1
60	60	10
57	101	3
46	47	4
60	63	2
68	74	7
61	63	2
52	85	2
68	81	3
52	52	17
73	74	3
93	94	1
22	22	1
64	69	4
55	78	6
36	48	6
35	45	4
35	49	1
56	57	4
89	99	1
41	80	2
58	60	2
53	94	2
95	95	4
94	95	7
38	82	3
69	71	2
80	81	6
83	84	12
74	76	5
37	50	4
84	84	10
71	73	2
37	37	5
73	79	1
51	52	6
44	66	1
58	61	4
102	102	1
50	51	4
62	66	4
94	97	3
61	67	1
34	35	9
66	76	1
65	67	7
23	26	1
20	47	2
40	41	1
20	24	2
39	40	7
91	92	1
43	44	2
96	98	1
37	84	3
64	68	3
32	33	3
67	76	5
44	85	1
53	80	5
37	38	1
64	65	5
55	57	3
62	64	3
72	74	4
27	82	2
86	87	1
30	58	1
81	83	2
56	60	1
95	98	1
47	47	6
67	74	2
65	70	1
85	102	1
81	90	3
72	73	1
20	21	2
51	102	1
23	27	1
97	98	1
21	39	2
97	97	2
67	73	1
77	78	3
39	82	1
70	73	4
54	55	2
62	71	1
95	96	2
64	66	1
36	38	1
99	100	4
81	97	1
35	38	1
58	62	1
67	69	1
89	102	1
33	34	2
33	47	1
42	72	1
41	78	1
58	92	1
25	28	1
21	21	1
37	49	1
68	71	1
69	73	1
20	27	1
86	89	1
56	93	1
22	28	1
25	27	1
95	97	1
66	68	1
84	86	1
