57	90	2
122	125	4
32	32	5
130	130	6
53	53	10
25	80	1
17	18	2
45	82	2
67	67	6
83	83	1
85	85	4
109	109	5
10	10	10
123	124	2
117	117	5
127	128	3
87	87	10
9	67	2
1	1	6
50	50	4
15	15	6
43	43	9
60	60	4
24	25	3
1	2	5
18	49	3
80	80	5
98	119	4
14	14	3
71	72	2
102	105	4
111	111	3
105	105	5
7	25	4
94	94	7
61	111	5
16	16	8
71	71	5
18	18	4
120	127	4
24	24	7
131	131	6
97	97	8
104	104	10
123	123	9
118	118	5
8	8	1
86	86	5
62	62	10
74	74	8
8	15	2
45	45	10
63	64	6
17	19	6
122	122	6
21	21	7
7	8	2
82	83	5
130	133	1
44	44	9
88	88	8
125	125	6
98	99	1
12	27	1
63	63	6
31	32	4
61	61	8
115	115	12
121	124	5
112	117	2
114	114	15
1	10	6
3	36	2
19	21	2
33	33	6
108	108	8
36	36	4
86	87	4
30	30	11
58	60	7
55	55	1
54	55	4
78	78	7
96	96	5
76	76	3
101	101	11
99	99	3
57	57	1
103	103	4
35	36	3
62	108	2
87	89	1
84	87	1
79	79	5
55	56	1
31	31	4
97	98	4
89	89	5
10	11	2
44	80	6
9	9	4
120	126	2
64	64	5
23	23	1
112	112	3
56	87	2
113	118	3
99	100	3
103	105	2
120	120	3
6	7	4
6	6	3
129	129	7
57	89	5
59	59	4
75	75	4
54	54	5
114	116	5
20	79	2
126	126	12
11	71	2
5	5	3
12	12	1
32	33	3
91	91	8
7	7	3
72	72	1
106	106	2
34	34	3
13	33	2
66	66	3
82	82	3
89	96	2
10	67	1
65	65	7
55	89	4
90	90	3
73	73	12
69	70	1
4	4	2
61	118	2
90	93	1
18	19	2
17	49	2
29	29	1
121	122	1
26	26	6
65	67	1
56	57	2
112	131	2
17	17	4
64	65	9
20	20	1
56	56	6
58	58	1
19	44	2
4	36	2
50	81	3
62	63	2
107	107	1
22	23	1
70	91	1
84	84	5
58	59	6
60	111	1
124	125	1
100	100	7
64	102	3
27	28	2
3	4	2
27	29	1
107	113	2
132	132	3
21	23	3
121	134	1
66	67	1
19	19	3
115	116	2
77	77	3
114	115	1
59	99	1
28	28	1
15	25	1
100	109	3
102	103	1
16	80	1
102	102	3
1	80	2
5	36	2
105	106	1
2	2	2
9	10	1
69	69	1
7	13	1
2	10	3
128	128	3
127	127	2
20	21	1
35	35	2
104	105	1
25	44	1
47	47	1
27	27	4
92	93	1
13	13	5
49	49	1
99	109	2
77	78	1
25	25	1
57	93	1
124	124	3
21	22	1
99	118	1
24	42	1
81	81	1
121	125	1
39	39	1
93	93	2
43	44	1
3	15	3
26	27	2
78	79	1
58	93	1
108	117	1
70	96	2
13	34	1
33	34	2
91	100	1
45	80	1
68	68	2
73	74	1
52	52	1
113	113	1
0	0	1
5	6	1
95	96	1
121	121	1
104	119	1
16	43	1
61	98	1
101	102	1
62	103	1
99	111	1
70	71	1
91	92	1
