66	66	14
84	121	1
24	27	7
76	76	4
58	58	5
72	72	18
112	113	3
2	117	2
119	119	13
60	60	5
19	22	4
117	117	15
133	133	3
22	23	2
113	114	7
126	132	3
15	15	20
90	101	2
82	129	1
8	8	6
7	7	4
85	86	4
77	85	3
110	110	5
67	67	11
128	128	5
110	112	6
86	131	1
99	99	5
81	81	3
107	108	4
21	21	5
27	28	4
35	35	5
70	70	7
100	100	1
127	127	8
78	78	4
37	37	4
131	131	3
48	85	3
125	125	6
55	56	3
14	15	4
73	74	7
118	118	8
63	73	2
105	107	3
33	33	7
130	130	5
61	61	10
22	22	8
46	46	10
114	114	2
10	11	2
74	74	10
121	121	7
111	111	7
0	1	3
134	134	5
13	14	2
44	44	6
122	122	2
68	69	2
116	116	6
73	73	13
77	78	9
92	92	7
59	60	2
34	34	5
63	63	7
51	51	2
32	32	2
85	85	11
103	103	11
57	57	21
57	134	4
123	125	2
124	130	1
120	120	5
62	63	1
112	112	6
13	21	3
13	13	6
95	97	3
76	77	9
131	132	2
96	96	7
64	64	10
44	46	4
79	79	14
40	42	7
69	69	3
61	75	6
1	1	7
101	101	1
26	26	3
14	20	3
36	36	8
108	108	7
77	77	6
82	82	7
11	12	3
62	62	6
32	33	6
87	87	6
90	90	9
14	22	5
114	115	4
107	107	7
95	95	1
11	11	9
28	28	7
64	65	5
2	2	9
45	45	17
25	25	7
83	87	2
6	6	5
47	119	1
109	109	3
56	56	5
83	83	5
87	88	3
96	98	3
62	66	1
30	30	8
127	132	3
32	36	1
94	95	2
90	91	4
6	8	2
106	106	1
16	16	4
116	117	2
39	40	1
43	104	3
40	44	2
9	10	5
86	86	2
65	65	6
57	124	4
80	80	3
15	16	2
19	19	1
115	115	4
124	124	3
82	84	4
109	114	3
60	129	4
121	122	2
63	69	3
11	19	3
4	4	4
38	38	4
58	61	2
113	113	6
32	40	2
12	12	6
71	71	7
61	70	2
82	83	2
116	118	4
9	9	5
41	45	3
124	125	2
74	75	1
71	72	3
8	9	4
122	127	4
91	97	3
108	109	3
85	88	2
98	98	3
82	130	1
50	55	2
23	23	2
5	6	2
18	18	1
39	39	2
75	75	2
33	34	1
10	10	1
33	46	1
97	101	1
65	66	1
40	41	3
27	27	5
98	101	2
122	123	3
81	82	3
61	71	1
87	122	2
26	27	2
71	75	2
106	107	2
5	5	4
39	41	1
96	99	1
11	27	1
0	0	5
72	73	2
68	68	4
107	119	5
43	43	1
102	102	1
88	102	2
76	78	2
123	123	5
49	132	2
24	26	1
119	120	1
126	126	1
79	80	2
95	96	1
123	124	1
87	126	1
17	17	5
3	9	1
3	8	1
55	55	4
92	93	1
104	106	1
91	92	2
44	45	2
13	26	1
4	5	3
38	39	2
121	123	1
46	47	1
62	70	1
133	134	1
64	67	2
126	128	1
14	21	2
19	20	1
55	120	1
125	126	1
93	94	2
38	45	1
93	93	1
31	34	1
59	59	2
47	120	1
14	14	1
128	130	2
68	73	1
24	24	1
3	3	1
3	5	2
118	119	1
31	31	1
90	107	1
99	100	2
1	2	1
111	116	1
117	118	1
7	41	1
34	35	1
89	89	1
85	102	1
0	3	1
4	112	1
104	104	1
