48	48	12
112	113	9
192	192	14
49	49	6
56	56	12
140	140	6
63	63	9
107	107	10
174	174	10
179	179	4
147	147	3
11	11	7
133	133	7
32	32	8
182	183	7
163	196	4
21	85	1
10	14	3
14	55	2
148	151	2
27	27	4
61	89	2
181	181	7
66	66	2
153	153	3
72	72	7
145	145	6
23	23	6
72	105	2
8	14	1
96	134	2
114	115	4
171	172	6
170	171	6
142	142	5
12	12	3
154	154	7
148	149	4
64	64	7
17	17	3
151	151	9
112	112	2
124	124	21
29	29	2
172	172	5
101	101	3
9	9	4
135	136	4
10	53	1
20	20	5
175	175	2
184	184	14
75	75	1
183	183	12
22	22	7
191	193	2
74	74	6
17	18	2
89	89	5
127	128	1
83	87	3
193	193	4
150	150	9
169	169	6
15	15	4
114	117	3
149	149	5
127	127	7
64	65	4
99	99	2
154	176	6
7	7	12
123	123	8
190	191	2
18	18	4
113	113	8
186	186	13
42	42	6
164	164	4
10	11	4
182	182	6
176	177	3
144	145	3
12	14	4
119	120	4
53	53	2
171	171	9
11	12	3
60	60	1
45	45	5
152	152	6
71	71	7
33	34	6
124	125	6
43	43	10
52	52	7
159	190	1
180	180	8
135	147	3
82	86	5
45	100	3
37	37	5
168	171	3
156	158	5
160	191	1
135	135	3
141	141	1
67	67	2
108	109	1
100	135	4
82	84	3
162	162	1
152	168	1
16	42	2
103	103	8
178	178	3
182	184	1
44	44	6
20	22	5
32	33	2
36	40	3
106	106	7
45	140	3
0	44	1
167	168	4
24	24	8
132	133	1
103	105	1
96	96	4
160	161	2
110	110	8
14	59	1
83	83	3
45	46	1
62	62	7
94	94	8
27	178	1
80	80	5
87	87	8
132	132	7
189	189	10
124	141	1
160	160	9
149	151	1
185	185	1
138	138	13
161	161	8
93	93	5
39	39	1
187	188	2
81	81	5
33	37	1
9	10	5
70	70	4
77	78	1
111	111	3
30	31	5
6	34	4
25	26	4
136	136	9
115	117	1
58	67	3
169	197	1
156	189	4
191	191	12
94	97	3
195	195	4
161	196	3
106	112	3
46	46	2
98	99	2
155	155	7
9	14	1
190	190	13
37	38	5
100	100	3
37	40	3
127	129	3
78	79	2
65	65	2
5	21	2
19	19	9
75	102	2
188	189	1
108	108	2
94	118	2
20	21	1
88	88	1
79	79	5
176	176	7
53	54	4
105	105	1
143	144	2
120	120	4
112	115	1
170	170	4
115	115	2
95	95	3
84	85	2
168	181	1
160	172	1
156	157	1
19	20	3
58	60	1
117	117	4
125	125	1
122	142	4
4	4	4
121	121	1
128	128	2
183	184	4
10	10	4
26	26	8
102	106	1
27	149	1
14	81	2
114	114	4
28	28	1
125	126	3
97	97	2
30	32	1
1	1	3
139	146	1
155	156	4
137	140	1
146	146	3
51	52	4
138	141	1
19	23	2
153	175	2
73	73	2
54	54	5
24	25	3
58	59	3
166	166	1
17	81	1
144	144	2
52	53	1
45	141	2
188	188	3
0	0	4
162	163	6
104	104	1
163	166	1
28	29	2
25	25	4
13	13	3
53	56	1
131	131	1
46	60	1
24	27	2
72	73	4
161	162	1
152	162	1
40	40	5
158	158	1
61	61	3
79	81	1
47	142	2
71	72	3
70	71	4
46	47	2
30	30	2
84	84	3
122	123	1
145	146	2
23	28	1
60	62	1
126	127	2
77	77	2
134	144	1
34	35	3
111	113	2
157	157	3
142	143	1
36	36	1
102	104	1
159	160	1
164	196	1
148	148	3
155	189	3
137	137	6
85	85	3
16	17	2
54	56	2
194	194	9
167	167	4
174	175	6
42	43	2
21	21	4
55	55	1
39	40	2
79	80	3
50	51	1
62	63	2
172	175	2
62	77	1
168	168	3
165	165	2
159	189	1
117	119	1
27	28	1
168	197	3
37	39	1
44	45	1
99	104	1
100	101	1
196	196	2
0	21	2
177	180	1
76	89	2
59	60	2
122	122	1
5	5	2
76	105	2
98	98	1
74	127	1
69	69	2
4	43	2
78	98	1
86	86	3
107	112	1
78	78	2
84	86	1
111	112	1
154	177	1
168	169	1
162	197	1
167	197	1
107	108	1
143	143	1
134	143	1
23	24	1
15	81	1
130	130	2
116	116	1
73	113	2
118	118	1
146	147	1
31	31	1
185	186	1
58	63	1
139	139	1
197	197	1
32	43	1
47	47	2
33	33	1
75	101	1
26	27	1
119	119	1
22	23	1
61	70	1
165	166	1
31	32	1
82	82	1
1	6	1
166	172	1
6	6	1
110	111	1
67	71	1
66	71	1
14	15	1
116	117	1
24	31	1
45	47	1
16	16	1
126	126	1
11	13	1
12	13	1
23	26	1
138	139	1
89	90	1
0	35	1
76	77	1
29	30	1
61	62	1
15	17	1
20	137	1
186	187	1
