68	68	7
53	61	3
1	1	4
119	120	4
49	53	4
71	71	8
136	136	6
101	113	1
76	77	1
136	148	2
96	96	4
3	3	9
52	53	8
34	34	8
7	7	11
88	88	6
91	91	3
94	94	9
75	75	1
118	119	2
136	137	4
111	133	3
108	109	3
53	53	5
140	141	4
25	26	4
26	26	2
108	113	3
69	84	1
47	47	6
120	145	7
70	70	9
72	72	4
115	121	2
84	84	2
150	153	2
55	55	11
6	6	2
9	9	2
41	41	2
117	117	6
48	48	2
29	45	2
143	151	3
22	22	9
28	49	3
90	92	2
17	17	5
68	96	2
12	13	6
124	151	4
90	97	7
148	148	1
46	46	1
37	37	11
96	116	1
119	147	3
78	79	7
91	111	8
116	128	3
134	134	4
66	88	6
118	118	5
26	42	2
3	14	1
30	66	4
85	85	3
79	81	4
151	151	6
92	92	5
98	98	10
100	105	7
43	69	3
93	99	2
84	85	6
107	107	6
138	138	7
104	141	2
32	46	1
129	129	2
42	42	3
12	12	4
88	93	2
29	29	3
14	14	8
18	26	1
38	39	5
12	138	2
129	141	8
39	74	1
103	103	6
27	27	9
150	152	2
30	30	1
52	61	5
24	24	8
113	113	7
67	68	3
18	18	7
43	43	6
142	142	3
137	151	7
155	155	1
120	131	1
67	70	5
121	121	5
112	112	5
105	128	2
100	111	1
148	149	2
39	95	2
115	115	5
110	111	2
31	46	3
7	18	1
123	124	3
19	19	4
0	1	5
104	104	8
28	28	13
136	145	3
25	25	14
19	25	9
101	107	3
38	56	2
65	87	1
108	133	2
110	110	5
127	155	3
63	64	4
101	101	10
120	135	1
76	97	4
93	93	14
68	70	2
113	151	5
34	40	5
133	133	3
141	142	6
8	9	2
57	57	2
8	8	6
45	45	3
105	106	1
87	92	2
133	153	2
109	109	6
127	127	1
126	127	9
91	110	1
78	99	2
11	11	1
112	125	1
17	41	3
99	100	3
50	50	11
137	147	2
36	36	11
129	130	6
112	114	3
44	45	2
46	56	1
89	95	2
4	17	6
137	137	5
137	153	2
2	2	2
141	141	4
39	39	6
134	153	1
151	154	2
157	157	6
13	13	5
0	4	2
116	116	3
111	111	3
111	112	3
66	68	4
48	49	1
113	117	2
34	35	3
128	139	5
114	126	3
128	129	6
55	68	2
39	56	6
121	123	1
71	92	1
34	42	2
9	10	1
90	117	2
95	95	5
40	98	1
21	21	9
31	31	3
120	154	1
70	79	3
38	63	3
135	147	2
131	157	3
105	105	3
116	131	4
31	49	3
52	52	1
96	97	3
114	114	4
30	31	1
49	49	2
96	135	1
97	97	3
98	136	2
49	50	4
82	84	2
4	4	5
55	66	3
23	24	6
97	118	1
95	96	4
108	108	9
145	145	5
64	70	4
82	94	1
63	63	2
11	19	2
66	66	2
101	135	3
133	134	2
62	99	2
100	100	1
35	35	1
15	40	2
32	32	5
95	121	5
115	119	2
7	9	1
25	35	1
69	81	1
21	25	2
15	15	5
108	112	2
37	47	3
20	20	3
24	42	3
62	68	2
98	118	1
28	50	1
3	4	3
83	118	2
90	90	4
67	87	3
2	151	3
137	138	2
128	128	1
92	95	3
131	131	1
152	152	4
124	128	1
5	11	2
75	99	2
89	89	3
73	83	1
38	38	2
33	33	6
13	14	3
11	12	2
78	78	1
73	73	6
54	57	1
86	86	3
0	142	2
125	127	2
81	82	2
13	41	2
19	57	2
155	156	2
109	123	2
19	41	3
65	65	1
30	64	1
27	28	3
148	155	1
75	97	2
29	140	1
92	93	1
80	157	3
123	123	4
100	129	1
4	13	2
26	45	1
32	55	1
79	80	1
65	69	2
29	44	1
144	144	4
114	115	5
146	146	2
35	158	1
72	73	1
101	103	1
10	18	5
12	42	1
64	77	2
136	152	1
39	115	1
8	20	1
92	94	4
5	5	4
67	69	2
24	37	1
155	159	3
99	122	2
23	23	1
68	86	1
152	154	1
15	41	2
102	129	2
141	155	1
33	40	2
9	20	1
124	124	3
34	38	1
36	37	1
112	113	4
40	56	1
125	134	3
125	125	1
25	28	2
0	0	1
116	117	1
22	34	1
40	40	4
81	91	1
117	118	1
107	113	2
64	68	2
92	99	4
24	44	1
17	18	4
88	89	1
80	128	3
28	48	1
53	54	1
67	67	1
11	41	3
114	127	1
0	28	3
70	71	2
68	69	1
150	150	2
28	45	1
48	69	1
114	122	1
35	37	1
30	48	2
127	135	1
85	110	1
135	154	1
127	139	1
125	126	1
122	138	1
108	127	1
7	8	2
56	56	2
120	120	1
48	50	1
132	132	3
10	19	2
139	150	1
145	150	2
97	114	1
44	44	2
7	20	1
15	17	3
36	70	2
138	146	1
80	80	1
48	139	3
154	154	2
87	119	1
17	30	1
101	121	1
80	135	1
5	40	2
101	118	2
130	131	2
77	77	1
113	114	1
69	73	1
43	45	1
108	110	1
13	43	1
64	84	1
16	16	2
77	78	1
42	43	1
30	55	1
137	142	1
122	123	1
11	13	1
115	131	1
139	139	2
0	2	1
27	32	1
138	147	2
51	51	2
3	9	2
84	86	1
35	36	2
70	96	1
132	134	1
130	130	1
131	154	3
112	123	3
21	45	1
85	86	1
86	117	2
93	106	1
118	136	1
126	126	1
135	158	1
41	42	1
137	152	1
17	49	1
105	146	1
71	157	1
81	81	2
82	82	1
32	33	1
87	87	1
55	99	1
124	126	1
12	17	2
70	158	1
67	90	1
65	90	1
126	156	1
138	141	1
73	74	2
107	114	1
102	105	1
84	94	1
116	135	1
138	151	1
54	63	2
89	92	1
123	139	1
122	122	1
54	54	2
144	150	1
71	72	1
17	23	1
68	92	1
78	86	1
135	135	1
131	146	1
139	151	1
140	140	1
40	45	1
