88	88	4
83	83	13
50	50	11
72	72	11
59	59	15
42	42	6
82	83	10
100	100	7
34	34	10
37	37	12
76	76	18
29	89	4
51	51	8
57	58	4
79	95	1
66	71	3
27	27	1
21	88	7
84	88	6
67	67	22
56	56	13
21	49	4
102	102	10
74	74	6
89	89	13
105	105	17
39	54	8
52	53	3
40	45	3
92	103	4
32	32	10
88	89	1
45	45	15
40	41	4
26	26	24
98	99	4
104	105	4
83	87	6
24	24	9
60	80	4
90	90	10
71	72	2
19	20	1
82	86	3
94	94	21
92	92	12
50	56	1
46	47	2
70	70	17
84	84	13
69	69	11
22	22	14
35	35	28
58	58	11
21	65	2
43	44	3
52	52	7
79	80	3
103	103	13
84	85	6
58	100	8
50	58	1
56	74	3
31	32	4
97	98	12
65	67	2
71	71	13
36	36	12
41	41	5
72	77	3
72	101	5
65	65	12
40	52	5
79	79	5
95	95	20
23	23	18
75	75	19
20	88	2
29	30	1
91	91	11
40	44	2
38	39	2
20	20	15
69	70	7
73	73	19
39	39	15
96	97	4
78	95	4
26	81	3
26	29	2
29	29	6
20	27	1
46	46	15
48	48	2
45	48	5
52	55	1
64	64	15
103	104	3
104	104	19
53	54	5
61	62	4
90	91	8
21	21	19
68	68	8
62	64	1
61	61	11
86	86	5
102	104	3
22	24	6
42	43	4
60	62	2
73	100	1
96	102	2
44	49	1
55	55	16
99	99	1
34	35	7
91	92	6
27	81	6
26	27	5
37	39	2
33	33	7
47	47	6
82	82	6
61	64	1
57	73	5
82	87	1
68	69	11
62	63	3
49	49	1
60	60	7
101	101	3
80	80	11
46	48	2
84	95	2
63	63	8
89	91	1
22	72	3
64	65	5
20	24	2
87	88	1
102	103	2
39	49	1
27	82	6
95	96	6
54	55	6
44	60	3
56	58	5
81	82	3
100	101	3
77	77	5
48	89	3
62	62	7
58	61	1
21	22	8
97	97	5
57	57	7
78	78	7
30	30	8
51	52	3
93	93	4
97	101	1
56	57	1
29	90	3
38	38	1
84	86	2
31	90	1
54	54	9
27	97	2
59	60	2
89	90	5
42	56	1
28	28	2
42	60	3
74	75	8
30	33	2
36	51	4
23	78	2
71	100	5
97	100	1
92	93	3
21	102	1
45	46	3
76	77	6
50	51	2
105	106	1
66	72	2
20	53	2
88	95	4
87	87	5
94	100	7
24	27	1
98	98	7
82	84	5
80	81	2
55	56	1
38	47	1
83	86	2
93	94	1
31	31	8
22	86	1
75	102	1
25	25	1
96	96	3
99	100	3
70	71	2
44	44	1
81	83	1
32	33	4
93	102	1
61	77	5
57	63	1
23	73	1
80	87	2
36	37	3
36	97	2
35	36	5
44	45	2
73	74	4
62	77	3
67	70	2
91	103	1
43	43	5
78	80	1
63	64	1
30	34	1
81	81	2
66	66	2
22	27	2
25	30	1
94	95	2
39	41	1
75	99	1
76	105	1
53	53	2
81	87	1
96	100	1
93	103	2
24	81	2
33	35	2
48	49	1
30	39	3
85	86	2
69	102	3
76	106	2
34	51	1
20	54	2
65	93	1
49	90	1
39	40	1
106	107	1
37	38	2
38	46	1
91	93	1
96	101	1
70	72	1
49	96	2
41	44	1
73	101	1
50	99	1
46	49	1
25	29	1
30	31	1
39	53	1
25	90	1
33	34	1
20	26	1
67	68	1
85	85	1
23	24	1
