54	55	3
79	79	7
82	82	12
62	62	13
20	21	3
68	68	4
17	17	4
60	62	4
1	1	12
72	73	14
58	59	1
80	82	1
12	25	4
79	80	4
27	28	9
20	25	10
51	51	19
7	7	4
76	76	14
70	70	6
2	25	3
26	26	4
13	25	3
68	70	3
4	14	3
66	66	6
8	25	5
87	88	4
6	7	3
2	89	1
19	25	2
20	26	2
24	24	7
53	54	3
47	47	10
8	8	10
19	19	2
2	2	15
4	15	5
7	10	2
73	74	6
46	66	3
83	83	12
77	77	25
72	72	12
14	31	2
65	66	7
80	80	9
25	28	1
64	64	17
81	82	3
5	7	1
48	49	7
22	22	5
77	83	3
62	64	6
65	65	10
71	74	1
47	79	3
14	26	1
50	50	14
13	13	12
85	85	7
23	55	2
19	20	10
5	10	3
64	65	14
11	11	11
5	26	1
28	28	3
26	27	9
1	23	3
7	8	7
20	20	10
75	76	3
59	65	1
30	30	7
52	52	10
57	67	2
4	11	3
47	66	1
46	47	2
9	67	4
27	27	10
5	11	6
10	10	5
0	3	4
34	34	4
48	48	8
78	82	4
7	9	5
76	77	6
61	61	1
64	66	9
57	57	6
81	81	7
23	23	9
31	31	7
49	75	2
61	63	5
59	63	2
50	51	8
60	66	2
15	15	6
5	5	11
53	85	3
6	6	5
46	63	2
67	74	6
87	87	1
4	4	11
84	84	2
53	66	1
67	67	18
48	75	6
47	60	3
67	69	6
78	78	9
53	53	6
3	11	4
2	28	2
13	48	2
75	75	8
47	48	13
85	88	1
54	57	1
88	88	8
58	58	10
12	12	2
59	59	5
74	74	4
57	69	1
49	49	15
16	17	8
54	56	3
71	71	4
73	73	5
7	66	2
62	63	6
46	65	5
71	87	1
66	69	5
56	56	3
5	6	7
13	14	8
51	53	2
13	30	1
89	89	8
11	13	2
10	12	1
47	49	1
83	84	2
8	62	3
69	69	4
19	26	1
46	49	3
57	58	3
82	83	4
9	10	5
86	88	4
9	60	4
69	71	3
46	48	3
6	35	1
69	70	1
80	83	4
4	67	4
59	60	5
64	77	2
0	0	2
14	14	1
87	89	1
34	35	4
78	80	2
62	65	1
48	66	3
67	70	1
51	52	5
17	25	2
60	60	2
27	50	1
61	69	2
53	83	1
11	12	5
12	26	1
55	56	1
7	35	1
69	74	3
58	62	3
22	23	4
5	48	2
14	30	6
78	83	3
61	62	3
12	13	1
10	63	2
55	55	5
27	66	4
49	50	1
63	63	5
15	16	1
26	32	2
11	28	1
3	3	2
5	9	1
9	9	4
78	79	4
47	76	2
25	27	4
24	27	5
86	87	6
56	62	3
62	70	2
77	79	2
15	31	2
54	68	1
58	66	1
27	29	2
7	65	2
31	32	2
85	87	1
86	89	2
70	72	1
8	66	1
50	74	1
52	53	2
54	81	2
46	46	1
29	29	2
6	27	2
86	86	2
10	58	1
14	51	2
71	72	2
11	57	1
63	76	2
17	28	1
71	86	1
52	67	2
84	87	1
84	88	5
58	67	2
10	57	1
8	9	1
25	25	4
77	78	3
46	60	1
21	21	1
58	63	2
49	63	2
77	82	2
54	54	3
58	68	1
11	14	1
0	2	1
47	75	1
18	19	1
59	62	2
80	81	2
6	34	1
47	50	1
72	74	3
63	69	1
12	30	1
23	24	1
6	61	1
15	23	1
60	61	1
8	61	1
74	75	1
25	26	1
8	60	2
5	47	1
