101	101	2
85	86	6
39	39	3
181	181	8
41	41	3
135	135	2
55	55	8
78	154	2
70	73	4
80	100	5
58	59	3
174	174	4
138	178	2
185	185	1
121	121	10
66	66	7
53	53	8
27	27	3
161	162	2
152	153	2
152	152	4
55	173	4
156	157	1
34	34	2
95	95	1
186	186	5
120	120	6
54	130	3
80	81	1
83	83	3
111	124	3
85	85	2
63	112	6
159	160	1
59	59	2
73	79	4
81	81	5
118	158	3
53	55	6
148	149	10
40	40	3
166	166	3
67	147	2
77	77	2
129	129	2
96	96	3
117	159	2
39	41	2
118	118	6
63	63	3
74	168	3
79	95	1
177	186	3
75	75	5
55	57	3
65	66	5
61	62	3
44	46	6
183	184	1
75	88	3
82	82	3
130	176	2
141	141	5
90	90	1
163	163	1
44	44	5
184	184	2
136	136	5
102	116	1
189	190	1
156	156	13
105	107	3
114	119	3
127	128	1
73	74	2
101	102	1
78	78	5
152	158	3
146	147	1
86	86	4
103	104	2
185	188	5
28	47	1
143	143	2
29	29	1
150	167	2
181	182	7
125	125	5
99	99	1
178	180	1
177	177	1
43	43	2
97	98	1
99	115	1
172	172	2
122	122	1
124	124	2
161	161	4
33	33	1
104	104	3
76	76	3
117	119	1
150	150	3
54	54	2
65	128	1
64	108	3
74	74	4
148	148	2
103	103	1
78	79	1
52	52	3
144	144	1
176	176	3
93	94	1
73	167	2
35	36	1
35	48	2
128	175	1
75	90	4
187	188	4
68	190	1
189	189	3
77	119	2
91	91	1
65	121	1
37	37	2
177	180	1
155	156	5
43	46	3
174	175	3
43	59	1
88	88	1
131	131	4
34	37	2
114	114	2
94	94	3
44	47	2
110	110	1
190	190	2
109	109	1
93	98	1
106	106	2
172	173	1
105	105	2
32	32	1
70	90	2
36	36	3
150	154	1
113	113	1
168	168	1
109	128	3
74	79	3
87	87	1
59	60	1
187	187	5
180	180	3
46	47	1
188	188	1
75	89	2
173	173	1
31	46	3
79	79	1
28	28	1
97	102	1
178	179	1
138	138	4
129	182	3
136	137	1
155	155	1
32	33	1
148	151	2
179	179	4
111	111	1
137	145	1
91	92	3
145	152	2
132	137	1
169	169	4
107	107	1
110	117	1
28	29	1
55	143	1
132	132	1
175	176	1
80	80	2
154	156	1
140	140	1
64	64	1
148	150	1
84	84	1
60	60	1
151	151	3
117	117	1
102	103	2
116	116	4
130	132	1
36	42	1
39	47	1
43	44	1
58	112	1
70	71	1
68	139	1
34	46	1
66	118	1
71	167	1
65	65	3
62	182	1
81	82	1
146	176	1
72	170	1
66	82	1
161	163	1
54	173	2
171	171	1
144	171	1
102	114	1
134	134	1
