26	26	17
27	27	7
69	74	8
65	66	1
12	12	17
41	61	1
0	4	1
45	45	23
58	59	4
55	55	20
51	51	12
6	6	14
73	73	15
67	67	16
45	46	7
36	36	15
3	4	2
60	60	11
42	49	2
34	36	3
18	34	4
56	69	2
62	62	23
52	53	4
61	61	16
70	71	4
49	50	15
51	52	4
25	31	4
71	71	13
9	9	21
42	42	10
19	19	17
50	50	9
47	47	7
74	74	7
45	57	2
65	65	21
43	43	19
8	9	4
50	51	2
77	77	25
60	66	5
1	1	14
8	8	7
30	30	15
2	3	10
69	70	5
63	63	7
13	24	3
39	76	1
23	23	16
2	2	29
37	37	18
53	53	5
30	49	5
34	34	14
7	7	19
52	52	3
11	11	20
13	13	15
58	58	16
73	74	6
61	62	8
31	32	1
3	9	2
20	30	1
40	40	10
40	41	4
72	72	12
1	36	1
32	34	3
0	0	15
32	32	7
29	53	2
14	14	3
26	39	4
25	25	21
61	65	1
4	4	18
50	54	2
34	35	2
62	64	2
28	29	6
50	71	3
73	75	3
46	46	12
76	76	14
10	10	8
25	26	2
49	59	7
1	2	9
4	8	7
68	68	2
48	49	3
64	65	2
41	43	4
68	70	7
39	39	4
22	22	7
27	28	5
69	69	5
57	67	7
64	64	9
45	60	2
38	39	2
48	52	3
42	43	1
75	76	6
11	12	11
8	12	3
29	29	11
72	73	3
54	54	13
24	46	2
59	59	16
47	60	3
58	68	3
18	19	5
49	49	7
5	22	1
21	22	7
66	66	11
35	37	3
35	35	3
3	3	14
23	24	3
65	67	3
70	70	6
57	57	8
60	69	2
36	37	10
4	5	6
40	43	2
59	61	2
46	47	2
73	76	1
63	64	6
41	66	1
46	48	1
39	40	5
31	50	1
30	34	2
20	21	3
47	52	2
38	38	8
44	44	5
41	64	1
21	33	3
41	41	5
75	75	4
18	18	5
48	50	1
40	61	1
6	11	1
48	66	7
5	6	4
13	14	3
29	37	1
32	33	9
21	28	1
6	7	5
22	24	3
45	47	1
76	77	3
28	28	5
45	71	1
55	56	3
6	12	2
1	23	2
1	25	2
51	55	1
50	52	4
45	70	1
34	38	1
24	25	1
28	40	1
29	51	3
53	55	2
9	10	2
63	66	1
26	28	3
20	29	1
51	56	2
52	54	3
44	71	1
71	74	4
33	33	4
11	13	1
44	45	1
20	20	9
35	38	2
13	20	1
68	69	6
43	56	2
66	67	1
56	56	3
42	66	2
30	32	1
24	24	3
48	48	1
64	75	2
50	59	2
26	27	1
25	62	2
24	35	1
0	1	2
67	68	2
8	13	1
13	23	1
27	61	1
41	70	2
20	22	3
69	71	3
19	32	2
71	73	3
21	21	3
28	31	1
25	39	2
49	64	1
38	43	1
44	56	2
45	67	1
55	57	1
51	71	2
42	44	1
19	20	1
12	33	3
34	42	1
41	63	3
9	74	1
29	31	1
74	75	2
57	59	1
74	77	1
23	25	2
61	74	1
59	68	2
38	42	1
49	70	1
68	74	1
25	35	3
33	34	1
25	38	1
42	67	1
23	36	2
57	58	1
29	34	1
42	50	1
35	36	1
12	13	1
5	5	1
22	54	1
30	50	1
31	39	1
29	35	1
41	45	1
67	69	1
44	60	1
27	62	1
36	38	1
