27	28	6
41	46	1
53	53	7
98	99	5
73	77	4
80	86	5
135	135	20
36	36	7
151	151	11
106	106	6
78	80	6
28	28	7
22	33	1
62	64	3
8	11	5
5	9	1
19	19	7
37	37	1
135	152	2
95	138	2
138	138	4
26	57	1
122	122	9
130	131	5
145	146	4
153	153	7
153	154	4
38	39	5
67	69	3
34	36	5
112	113	4
137	137	5
23	23	7
135	139	7
111	111	5
14	14	9
35	36	3
86	86	5
114	114	16
70	77	2
65	65	5
35	35	2
109	115	12
113	113	2
133	134	1
53	54	2
12	12	6
80	80	6
84	84	13
125	125	2
23	24	4
82	84	2
18	18	12
38	38	3
45	58	1
26	26	11
47	47	2
152	153	6
26	32	8
8	8	2
75	75	15
127	127	1
65	66	2
64	64	2
107	108	5
130	130	8
39	39	2
73	74	2
104	104	6
67	80	8
138	153	4
86	94	4
116	117	7
76	77	3
132	132	17
123	128	4
100	101	3
89	89	2
105	105	4
68	68	4
8	9	4
70	70	10
17	17	9
34	53	3
100	103	2
54	54	8
148	150	2
78	78	6
34	47	4
25	25	10
145	145	10
120	120	9
116	116	3
23	153	1
96	99	1
121	121	8
103	107	1
146	146	10
36	49	3
18	19	3
16	16	5
4	5	13
33	36	5
21	21	6
91	99	1
128	147	4
32	32	4
30	30	6
69	80	1
13	20	2
69	69	9
140	142	2
74	76	3
22	23	3
63	63	6
25	134	3
20	22	4
81	81	9
11	12	5
94	98	1
79	138	1
50	50	4
75	138	4
64	66	8
57	57	8
46	47	1
149	149	4
99	99	5
101	104	2
102	103	2
128	128	4
29	30	5
49	50	3
115	116	7
24	24	6
128	150	4
120	121	1
85	86	6
16	18	5
117	117	3
120	146	2
53	55	2
139	139	4
136	136	8
40	40	4
107	107	6
25	37	3
131	131	11
45	45	1
119	119	4
21	22	2
141	141	7
61	75	1
102	107	5
109	114	1
48	53	5
100	100	10
13	13	9
56	56	5
69	77	2
154	154	4
112	112	2
22	51	5
7	8	4
50	136	3
127	150	1
51	51	19
3	3	1
45	57	2
104	105	8
118	118	2
97	97	7
20	20	5
50	142	3
39	45	3
123	123	1
67	67	9
63	72	1
66	66	6
22	22	5
76	76	8
121	126	1
65	68	3
13	19	6
94	95	5
42	43	3
100	106	10
61	64	1
99	133	4
129	129	9
121	122	5
80	85	2
39	42	3
72	78	2
5	5	4
94	94	1
33	33	10
13	14	4
89	90	1
121	128	3
96	139	5
25	71	2
11	11	5
103	104	5
61	62	1
143	143	2
102	106	1
33	34	3
79	79	3
4	4	6
82	86	1
136	137	2
123	124	4
40	41	2
93	93	2
92	106	1
48	48	11
46	46	4
98	98	2
27	56	2
86	87	1
126	126	4
87	87	4
37	140	1
65	67	1
147	147	5
83	83	7
24	48	2
76	132	1
63	65	2
144	154	1
86	95	1
31	32	2
34	48	1
134	135	1
108	108	3
147	149	3
122	127	1
135	141	1
2	15	2
107	109	4
79	80	8
23	144	2
140	141	1
41	41	2
115	115	3
149	151	3
142	142	3
12	13	1
58	58	2
135	140	3
43	45	4
73	75	6
15	15	6
82	82	3
32	33	1
96	96	2
134	134	3
133	133	3
67	84	1
93	97	1
28	29	1
34	34	2
142	143	3
36	50	1
6	6	3
106	118	1
106	107	3
20	21	3
42	42	8
44	44	2
10	10	3
144	144	3
24	76	1
6	9	2
136	144	1
109	109	4
35	141	1
110	111	6
88	88	5
4	21	1
52	52	1
114	115	1
73	73	2
85	85	5
71	71	1
62	62	3
109	117	2
77	81	1
49	52	1
139	141	3
102	102	2
8	20	1
23	49	1
51	144	1
87	93	2
91	102	1
125	150	1
92	98	2
39	41	1
95	95	2
47	53	2
62	73	2
134	143	3
144	145	2
67	68	1
43	43	2
6	7	1
9	9	1
54	55	1
140	140	3
103	108	2
108	118	4
106	108	1
75	76	1
122	128	1
92	104	1
26	38	2
121	151	1
64	77	2
53	134	1
99	115	1
64	65	1
103	103	3
43	44	1
81	82	1
27	44	1
51	105	2
100	102	2
19	48	2
126	127	1
37	71	1
148	148	2
110	110	2
7	7	3
88	89	1
87	88	1
108	109	1
19	20	1
21	23	1
150	150	1
93	98	1
119	151	2
87	94	1
96	114	1
31	31	1
89	94	1
124	125	1
102	104	1
23	48	1
39	70	2
36	134	2
109	130	1
138	139	1
45	46	1
63	68	1
