112	112	21
151	151	16
66	68	2
41	43	3
138	139	8
35	35	10
81	82	3
153	153	24
136	136	17
7	23	1
36	36	19
76	76	16
21	22	8
48	48	23
44	46	3
31	31	20
110	110	34
98	105	1
33	33	5
94	108	1
57	57	19
94	97	5
142	142	15
33	36	8
74	76	3
139	140	4
80	80	8
106	106	18
100	100	12
107	107	27
95	98	4
107	109	2
23	23	33
120	120	21
10	10	16
50	50	20
68	68	19
128	128	30
126	127	16
87	88	1
145	151	6
150	150	32
144	145	5
14	14	14
86	86	22
83	84	10
95	142	2
130	130	12
96	96	23
79	79	17
123	123	22
83	83	14
39	39	25
26	26	14
16	55	6
104	104	7
135	139	3
150	151	11
140	140	14
99	99	20
3	4	6
109	111	5
113	113	23
124	124	30
144	144	10
141	141	22
87	87	1
35	36	9
124	125	15
6	6	12
49	49	22
90	97	1
137	150	4
53	82	2
44	45	6
42	43	22
135	137	4
118	118	22
89	89	3
109	109	15
94	95	11
95	104	1
101	101	9
67	67	24
149	150	9
63	63	27
66	70	1
109	114	2
154	154	8
120	129	2
43	43	20
30	30	12
81	149	3
28	28	3
111	111	30
97	97	22
34	80	2
78	78	4
136	137	13
34	34	7
19	19	22
117	118	4
13	14	3
127	143	1
147	147	12
131	131	14
82	83	2
83	116	2
81	81	12
65	65	25
67	68	6
6	8	2
38	38	29
47	47	20
20	20	13
54	54	22
102	102	14
16	16	26
95	95	17
33	34	5
119	119	20
125	125	7
38	41	2
142	144	8
115	128	4
79	82	1
107	122	2
12	12	29
66	66	13
86	88	1
114	118	2
137	138	2
7	8	11
24	30	3
105	105	12
21	21	27
139	139	16
115	115	13
40	40	23
47	48	2
13	13	16
77	78	4
16	18	2
71	122	1
95	105	2
64	65	5
77	123	7
81	120	2
22	22	27
48	51	3
46	46	22
88	100	3
9	23	1
64	64	4
101	150	1
149	149	42
45	45	25
70	77	4
10	50	4
129	129	14
99	100	8
17	20	4
65	66	4
116	117	6
18	18	23
47	54	2
43	44	13
145	147	6
17	18	5
15	16	8
11	12	1
120	141	1
32	47	2
52	54	2
103	103	25
22	25	1
96	97	9
133	133	13
64	80	4
126	126	9
78	80	4
8	8	14
39	40	2
69	69	18
133	134	8
72	73	5
97	105	3
86	121	1
85	86	9
52	52	3
74	75	8
137	137	13
152	153	2
44	44	18
97	98	6
55	56	11
132	132	17
124	145	3
61	61	5
127	127	9
37	37	18
11	11	22
21	23	4
115	116	9
111	112	7
41	41	11
22	23	8
96	98	4
53	56	6
84	85	6
117	119	1
50	51	7
6	58	1
138	140	5
147	148	5
143	143	5
70	70	27
120	149	1
45	46	10
31	32	3
14	15	10
150	152	4
148	150	6
71	71	18
105	106	11
56	56	7
128	135	1
114	114	14
76	77	6
53	54	5
47	53	7
103	118	1
63	64	10
108	108	15
148	148	16
82	82	8
98	98	24
63	65	4
131	132	6
37	39	2
39	51	3
128	139	2
127	128	5
81	119	2
29	29	13
61	64	1
28	29	3
73	73	8
108	117	2
122	122	24
66	67	3
107	108	4
77	77	15
25	25	10
17	17	29
45	86	6
16	17	5
51	55	1
23	24	13
140	141	4
129	130	6
6	7	5
27	29	8
15	15	6
113	129	1
43	46	8
14	68	3
93	93	8
121	121	6
122	128	5
13	15	2
12	14	2
114	129	1
62	63	4
61	62	3
4	7	1
104	105	5
69	74	2
5	5	5
93	95	5
53	53	13
41	42	4
30	35	3
103	105	1
29	30	13
115	138	6
149	153	5
54	55	2
23	25	7
7	7	3
58	58	5
23	30	2
3	3	15
79	81	2
125	144	2
131	153	1
113	140	2
110	111	1
103	104	6
25	29	1
94	94	9
138	138	18
20	25	2
106	107	5
94	99	5
145	145	9
55	55	9
51	51	3
135	135	18
149	151	2
134	134	4
128	129	3
152	152	16
27	27	3
66	69	2
47	55	4
88	88	2
117	117	7
108	109	8
116	116	9
107	110	3
100	102	4
138	141	4
129	131	5
46	51	2
28	30	10
9	9	8
32	43	1
72	72	13
44	104	1
106	110	1
33	35	7
40	44	3
18	24	1
24	24	23
46	87	3
12	20	1
92	120	1
48	49	5
95	152	3
81	117	3
73	78	2
73	74	5
146	146	6
32	42	2
136	139	2
71	73	5
21	66	1
18	19	6
79	99	4
45	87	1
141	142	6
146	147	3
111	132	1
84	84	10
4	4	11
32	149	1
122	124	3
82	151	1
41	44	1
100	101	8
47	56	3
125	126	6
37	40	2
119	120	6
142	143	1
43	45	6
50	52	2
15	17	4
120	121	8
39	85	1
69	136	3
42	42	12
75	75	9
71	72	3
130	132	8
26	27	2
96	102	2
75	76	3
4	5	4
32	33	3
93	94	12
5	8	1
109	116	2
67	69	5
145	146	5
98	99	3
7	27	2
45	103	1
41	86	4
53	55	1
123	144	2
40	41	5
7	29	3
134	142	1
16	27	3
55	154	2
39	41	1
45	105	1
95	100	3
114	115	3
18	20	3
70	78	2
18	39	4
30	31	3
88	95	1
148	149	2
103	117	2
75	77	4
12	15	2
128	152	2
133	141	3
10	11	6
84	86	4
131	135	1
99	105	2
102	103	2
32	35	3
101	102	4
8	12	1
111	113	4
139	141	1
106	108	3
102	104	4
147	152	2
111	119	3
120	133	4
118	139	2
13	16	6
76	122	1
57	86	1
101	144	4
80	82	2
54	116	2
32	32	4
65	93	1
19	20	4
14	20	1
132	133	4
21	28	2
34	37	1
131	134	2
26	29	1
121	124	1
66	84	2
45	148	2
62	64	2
85	85	9
24	28	2
57	88	1
30	62	2
69	70	4
49	152	2
117	153	1
125	143	2
20	21	9
65	73	1
102	115	1
141	154	3
124	128	2
118	119	2
152	154	2
10	20	3
112	114	5
34	43	3
74	105	2
56	81	3
129	140	2
79	80	3
95	96	3
38	39	2
72	122	3
113	114	4
24	62	2
130	131	3
38	40	2
121	134	3
11	14	2
69	139	1
94	151	1
78	79	1
43	56	1
45	49	2
36	44	2
26	35	1
102	109	1
38	53	1
85	120	2
13	48	2
4	9	3
56	82	3
62	62	13
120	142	1
144	150	2
14	22	1
34	35	3
153	154	3
81	97	1
110	117	1
48	52	2
109	110	2
24	25	7
82	88	1
123	124	5
78	84	3
130	133	5
14	31	1
80	81	1
56	79	2
92	92	7
144	146	2
122	125	2
66	99	1
151	152	2
10	24	1
114	117	2
30	32	1
121	140	1
15	28	2
48	50	1
100	148	2
47	50	3
10	21	2
110	119	2
98	100	1
118	153	1
144	147	2
14	32	2
13	21	4
85	94	1
65	141	3
73	75	1
104	106	1
134	135	1
67	130	2
147	151	1
46	48	2
65	74	2
9	149	1
66	150	2
98	116	1
112	154	1
40	43	1
38	47	3
81	121	1
2	9	1
130	139	2
28	99	1
6	23	1
131	137	1
96	106	1
91	94	1
74	107	1
15	25	1
115	141	1
119	154	1
136	143	1
56	119	1
78	89	1
86	87	4
100	154	1
63	68	2
90	90	1
5	21	2
37	38	1
9	28	1
109	148	1
6	57	1
46	47	1
41	57	1
130	147	1
106	138	1
13	27	1
141	143	1
112	117	1
7	9	1
4	8	1
43	51	1
110	114	1
91	112	1
18	72	2
65	94	1
134	141	2
82	122	2
55	57	1
66	101	1
121	122	1
36	84	3
33	62	1
74	74	1
82	150	2
62	150	1
20	22	1
12	13	1
55	119	1
92	93	3
36	37	1
30	33	1
91	91	1
67	83	1
109	118	1
121	143	1
42	51	1
109	112	1
36	85	1
27	28	1
137	149	2
40	42	1
73	122	1
15	55	1
36	61	1
2	2	1
