100	127	3
94	94	2
2	5	3
61	107	1
60	60	5
13	13	7
3	11	3
97	115	2
126	126	1
110	110	3
23	23	4
12	12	1
63	64	1
59	59	3
29	29	6
103	103	7
85	86	2
119	119	2
1	1	1
83	83	2
30	30	3
45	45	2
27	27	1
10	11	1
95	95	9
90	93	2
1	13	2
86	87	3
79	87	2
71	73	2
54	102	1
98	98	4
14	15	6
74	102	7
50	50	6
89	89	4
30	61	1
23	26	5
73	81	1
102	102	4
42	44	1
8	21	4
53	53	6
52	53	2
76	76	5
132	133	4
0	13	1
19	21	3
55	55	8
130	131	2
69	69	5
3	4	1
34	34	3
84	84	4
116	116	1
116	127	1
88	88	2
113	113	3
32	34	2
7	7	3
74	74	3
45	102	3
91	92	1
72	111	4
2	4	3
26	26	3
70	70	2
68	69	1
35	35	2
43	91	6
133	133	1
132	132	1
7	9	2
0	0	5
99	99	4
63	109	1
81	81	1
84	121	2
15	15	1
57	57	1
84	120	1
101	101	3
1	7	3
63	63	9
38	38	2
52	117	2
62	63	3
22	62	2
48	106	5
9	20	1
78	78	1
67	68	7
25	25	6
7	21	1
104	106	1
28	28	6
12	17	1
36	36	1
72	72	3
7	11	1
6	6	3
104	126	1
105	106	2
116	118	1
102	103	2
114	114	1
115	115	3
106	106	2
87	104	1
34	35	1
22	22	1
94	95	1
85	122	3
24	24	2
130	132	2
112	127	1
43	43	1
82	130	2
22	23	2
43	93	6
62	71	1
86	86	3
131	131	3
3	19	1
101	127	3
15	32	1
44	108	1
100	115	2
66	67	4
123	123	4
4	4	2
19	20	2
52	126	1
62	62	1
117	117	1
2	3	3
71	82	2
8	9	1
30	73	1
65	108	1
101	116	1
6	7	6
42	42	1
52	123	3
77	87	1
85	85	3
64	64	1
50	64	1
121	121	2
83	121	1
75	75	1
58	107	3
96	96	2
112	113	1
54	55	1
81	82	1
8	10	1
9	11	3
111	112	2
71	81	1
101	121	1
56	58	3
44	50	1
80	104	1
5	5	1
112	112	1
11	11	1
90	90	2
122	123	2
83	85	1
17	33	1
104	104	1
52	52	2
79	79	1
107	107	3
85	96	5
24	25	2
27	70	1
111	111	1
72	110	1
49	113	1
33	33	1
27	62	2
12	18	1
49	106	1
122	122	1
20	20	1
52	109	2
93	94	1
33	35	2
71	71	1
19	19	1
92	92	1
1	3	1
105	105	1
73	73	1
58	59	1
