88	88	3
102	102	6
100	105	1
46	46	10
33	33	3
54	54	15
21	21	5
112	112	12
49	50	3
16	16	4
58	58	20
28	28	7
92	92	9
6	6	5
24	24	10
79	79	9
78	79	5
59	93	7
94	94	6
104	104	1
106	106	26
23	23	4
48	48	16
96	96	3
15	15	17
125	125	9
2	2	12
53	53	6
103	103	2
113	122	1
66	66	5
9	9	8
55	56	1
33	72	3
99	99	8
10	69	7
65	65	12
61	61	5
62	66	4
43	43	10
121	122	5
77	77	13
71	72	6
49	49	9
78	78	3
19	19	15
53	131	4
45	45	2
117	117	9
123	124	6
107	108	3
89	90	6
39	84	2
46	47	1
118	118	17
14	40	4
44	47	7
52	52	5
89	117	1
30	30	12
102	103	2
81	82	5
76	77	3
5	65	1
81	81	9
6	7	2
108	108	1
83	118	5
110	110	11
109	109	7
101	101	5
82	84	2
120	120	5
32	32	7
63	63	4
114	131	1
93	99	5
116	116	7
51	51	9
17	17	1
96	98	4
38	118	3
68	69	6
76	76	11
83	83	12
72	72	4
80	80	8
92	97	3
127	127	5
44	45	5
94	95	3
119	119	5
69	70	4
10	12	3
113	113	5
50	50	10
40	40	9
72	73	12
90	117	3
48	55	1
93	93	7
65	66	3
117	125	2
21	23	2
43	55	3
39	40	3
4	4	3
10	10	2
38	39	6
14	14	6
53	108	2
51	52	7
71	71	3
52	53	7
63	64	2
100	102	1
7	7	9
51	57	2
31	114	1
22	22	6
42	83	2
50	51	1
58	59	7
96	97	1
64	117	1
114	125	3
89	92	2
16	18	7
55	55	2
26	26	3
100	101	3
79	80	5
121	121	10
82	82	3
41	43	1
39	75	1
27	27	6
9	68	1
95	95	7
8	9	3
84	84	12
59	119	2
12	24	1
10	18	2
48	49	4
111	111	8
100	100	5
65	76	4
29	29	8
90	90	9
1	120	3
39	71	1
75	75	5
41	42	6
94	101	1
28	29	5
13	15	2
20	22	2
65	77	2
18	19	8
122	122	6
13	25	1
104	105	2
107	107	6
29	30	3
89	89	4
3	66	3
92	100	2
59	60	1
120	121	3
14	15	2
1	1	1
70	70	2
40	92	2
58	129	8
44	44	7
114	114	14
11	11	2
120	125	1
8	52	2
99	100	3
0	2	3
49	76	2
62	98	2
47	47	10
123	123	5
94	99	2
47	48	7
119	125	1
90	92	1
73	80	2
29	46	2
115	115	9
46	76	2
83	84	2
113	114	1
60	60	4
109	110	2
13	14	1
105	105	5
13	13	6
41	41	1
132	132	3
93	96	1
55	85	4
44	78	4
73	88	1
97	97	8
11	16	1
5	67	1
87	87	2
133	133	1
15	70	1
42	42	5
4	66	3
39	39	4
0	0	3
69	69	5
112	113	1
105	107	1
23	24	6
86	86	1
24	25	4
73	73	13
129	129	2
42	98	2
39	54	3
26	27	1
91	91	4
62	93	1
18	18	3
60	62	1
58	130	2
127	129	1
115	116	1
2	3	5
62	99	1
80	81	4
52	58	1
1	2	2
38	40	1
56	56	4
12	12	3
28	30	1
74	74	5
14	69	2
31	31	5
54	89	2
31	32	2
122	123	1
5	5	2
113	116	3
27	28	5
64	65	2
68	68	2
98	99	1
57	57	2
84	85	3
38	79	1
67	67	1
32	115	3
25	25	3
85	86	2
58	72	3
117	118	4
38	38	2
107	114	1
93	94	3
128	130	1
20	21	1
95	112	1
64	64	4
25	26	1
127	128	4
52	112	1
114	121	3
15	23	1
41	84	1
42	43	1
96	112	1
61	62	1
128	129	2
33	45	3
20	20	4
3	3	2
12	15	2
19	20	2
131	133	2
105	106	2
11	23	2
124	124	2
114	116	1
9	51	1
51	53	1
54	93	1
66	75	1
126	127	1
94	124	1
124	125	1
16	17	3
88	89	2
56	57	1
72	87	1
59	59	5
86	87	1
114	117	1
74	80	1
85	85	1
110	120	1
34	43	1
38	115	1
63	73	1
126	126	1
6	66	1
82	83	1
62	125	1
16	75	1
42	54	1
63	94	1
96	99	1
4	7	1
123	125	1
50	52	1
