97	98	9
79	80	6
37	37	3
56	56	10
82	82	11
22	22	5
53	53	9
105	105	8
52	88	6
60	60	3
101	101	14
37	38	2
74	75	2
102	102	8
70	70	3
94	94	7
52	72	2
96	96	4
104	105	3
82	83	3
64	64	2
86	86	1
60	61	5
99	99	13
83	83	4
28	95	1
29	36	1
80	80	2
98	98	18
26	29	3
51	60	4
48	87	3
42	43	1
87	87	5
50	89	3
94	105	3
41	41	4
38	40	2
88	88	13
91	91	1
39	41	2
85	86	4
68	68	10
65	89	1
99	100	10
63	63	9
88	96	4
100	100	7
23	23	9
79	79	3
22	33	1
36	36	6
46	47	5
66	66	9
59	59	9
95	104	4
92	92	9
48	49	2
77	77	5
41	44	4
46	49	1
72	72	2
35	35	8
93	93	5
67	102	4
103	103	3
91	92	2
27	27	8
87	98	2
22	24	3
75	75	5
37	57	2
99	107	1
43	63	1
90	91	6
50	50	2
97	97	2
74	74	4
62	63	2
46	46	3
20	25	3
50	51	4
89	90	5
98	104	2
21	21	2
26	26	3
65	68	3
39	39	3
42	44	3
38	55	4
95	95	3
62	62	2
61	63	2
65	90	2
55	55	2
44	64	3
33	33	3
83	84	3
48	48	7
98	99	2
24	24	3
25	25	2
27	29	2
38	38	1
107	107	1
40	42	1
40	44	3
84	85	4
85	85	1
90	90	5
25	29	1
84	84	3
44	44	9
71	72	1
53	85	1
39	42	1
95	96	3
60	62	1
95	106	1
95	98	1
21	24	4
58	58	2
89	89	6
70	88	2
76	77	2
69	69	2
61	61	5
80	81	2
68	69	2
22	23	1
67	67	7
71	71	3
42	42	2
51	51	1
39	40	2
40	40	6
45	45	4
41	42	2
34	36	1
96	99	2
21	34	3
99	104	1
34	34	2
91	105	1
51	61	2
28	28	6
77	78	1
20	26	1
81	81	2
31	32	3
40	47	1
21	30	1
66	67	2
61	62	1
78	78	1
25	26	1
81	85	1
104	104	5
96	98	3
31	31	2
98	105	1
30	30	2
98	101	2
47	48	2
83	85	1
49	49	4
33	34	1
58	95	1
85	99	2
100	102	1
27	28	1
52	52	3
87	88	1
100	101	1
20	20	1
29	29	2
76	76	1
78	79	1
56	91	1
52	104	1
50	63	1
72	88	3
42	59	1
41	55	1
21	23	1
40	58	1
30	31	2
28	107	1
94	95	1
30	33	1
45	81	1
