13	14	4
79	141	2
104	105	3
131	131	16
63	63	14
39	40	3
44	45	5
97	98	6
35	35	2
80	84	1
18	18	7
107	107	11
115	115	4
149	154	2
99	99	3
12	12	8
120	120	4
81	81	19
45	46	2
143	143	13
53	62	4
129	129	18
67	67	8
149	149	6
25	41	1
4	111	3
28	35	8
122	123	1
82	95	4
137	137	8
76	76	9
132	132	14
17	20	2
10	12	7
151	151	7
127	142	2
124	125	6
85	85	5
139	139	8
117	117	11
21	21	13
53	54	7
47	48	3
78	78	8
139	140	4
72	76	1
99	100	3
55	56	6
72	73	7
73	73	7
141	141	3
13	13	7
14	14	1
43	43	7
70	70	11
111	111	4
12	20	1
106	117	1
123	123	6
125	125	3
71	71	15
135	135	11
32	33	8
86	86	11
145	145	15
103	103	5
81	83	2
150	150	7
119	119	10
30	30	2
51	52	5
144	144	6
41	41	11
63	64	4
55	55	2
106	107	2
109	110	6
101	101	2
115	129	2
5	107	5
80	83	6
123	126	4
62	142	2
46	47	6
65	66	1
127	151	4
153	153	6
26	27	4
114	117	1
5	6	5
48	48	13
3	3	4
135	139	2
20	20	9
127	128	3
56	57	1
52	52	4
41	42	6
19	19	15
143	144	11
27	32	2
72	72	6
83	149	1
49	50	2
76	77	2
138	151	7
42	42	6
108	108	8
128	128	5
3	7	4
94	95	2
129	132	5
38	38	8
68	68	9
142	150	4
23	23	13
54	54	11
97	97	3
109	109	17
110	110	9
102	102	5
9	9	8
33	33	16
4	5	5
40	40	15
53	53	3
28	28	13
17	17	12
19	24	2
24	24	17
91	92	3
46	46	8
108	109	3
44	44	6
80	82	2
133	133	16
81	82	7
28	41	2
62	62	5
65	68	4
10	10	11
57	58	1
37	39	1
57	57	3
3	10	1
47	47	10
148	148	9
75	75	3
118	118	10
114	114	12
100	107	3
146	146	3
10	69	1
64	64	6
69	96	3
96	96	7
9	36	3
128	154	4
27	28	4
134	147	2
106	106	8
63	71	3
22	22	6
72	123	4
98	98	5
26	26	1
36	36	5
97	115	3
29	30	3
62	65	2
100	106	1
144	146	3
95	95	14
140	143	1
98	99	8
113	113	7
50	50	12
9	10	4
122	122	15
25	25	4
73	128	1
5	5	4
18	21	1
65	65	4
28	29	2
29	29	10
133	146	3
10	11	4
141	142	2
142	142	4
107	112	3
14	16	1
82	83	3
112	113	4
32	32	5
80	80	1
130	130	8
105	105	4
95	98	2
45	45	5
102	103	6
103	106	1
116	116	6
119	120	1
139	142	1
38	39	3
27	27	4
16	16	5
37	37	3
100	100	2
9	29	1
133	135	2
73	74	7
124	124	5
145	146	1
4	4	5
83	90	1
141	148	1
115	117	2
20	21	5
112	112	3
116	129	1
28	68	1
85	86	1
5	112	1
93	93	7
127	127	2
16	37	2
126	126	7
134	141	2
7	9	1
39	39	4
51	53	2
74	75	6
73	75	1
152	152	9
84	84	14
118	129	2
146	147	4
120	138	1
32	35	2
109	144	1
92	93	2
129	134	1
104	104	1
13	16	2
107	117	1
3	6	3
79	102	1
4	36	1
17	21	3
123	124	2
33	34	3
49	63	2
37	38	1
79	150	2
118	122	1
73	129	1
87	87	3
101	103	3
3	107	1
80	81	2
126	127	2
25	26	1
125	126	2
73	112	2
117	122	1
32	34	1
2	46	1
76	128	2
14	15	3
44	54	1
75	77	1
105	106	3
7	7	3
84	86	2
100	112	2
49	49	1
83	83	3
7	47	1
6	27	1
6	6	3
13	15	1
31	31	2
77	113	1
69	69	1
133	134	2
83	94	1
77	130	1
83	129	1
50	92	1
48	49	2
131	133	1
128	136	1
101	106	2
5	11	1
132	133	2
138	138	1
33	38	1
2	6	1
134	134	5
99	109	1
35	36	1
125	137	1
80	130	2
77	79	2
51	51	3
48	50	1
121	122	3
20	31	1
43	46	2
140	140	2
93	95	1
30	31	2
150	151	4
136	154	1
84	103	1
120	121	2
8	11	1
68	69	2
69	75	1
84	85	1
131	132	2
79	128	1
116	117	1
77	77	4
77	78	1
79	81	1
138	149	1
15	15	1
103	104	1
73	125	1
70	113	1
48	109	1
12	14	1
34	35	1
85	103	1
116	118	1
78	150	1
103	114	1
119	121	1
6	7	1
149	150	1
54	96	1
82	82	1
120	122	1
34	34	1
66	67	1
22	23	1
40	41	3
116	130	1
46	53	2
92	95	2
23	24	1
79	79	1
7	11	1
104	106	2
79	116	1
136	136	1
19	27	2
66	66	3
79	83	1
66	68	1
117	128	1
52	53	1
25	27	1
27	38	1
23	48	1
4	8	1
126	142	1
123	125	1
