57	57	7
127	127	15
20	21	2
19	19	12
41	41	15
98	98	13
142	142	14
53	65	2
25	25	17
63	63	12
4	4	10
122	124	3
121	121	13
35	36	12
32	33	5
12	13	4
136	136	10
21	22	6
117	118	8
8	10	3
96	96	10
150	150	16
64	128	1
32	35	1
104	105	11
76	78	5
140	141	8
70	70	11
95	97	5
26	26	15
39	39	8
116	116	19
103	103	9
99	99	3
40	41	3
5	5	2
102	109	3
151	151	24
134	134	7
19	20	8
109	111	3
114	144	4
23	24	3
115	115	5
8	9	5
94	94	4
28	28	18
148	148	26
76	76	14
67	67	8
37	37	11
30	30	12
131	131	10
81	81	18
147	148	10
82	82	9
31	38	1
139	142	5
69	69	15
147	147	15
115	117	1
15	16	12
56	107	3
110	110	15
131	132	3
56	62	1
125	136	4
22	26	7
18	29	4
97	97	13
8	8	9
5	6	10
133	133	10
61	62	2
14	15	8
18	18	13
135	135	13
45	46	7
104	104	10
17	18	4
31	31	10
108	108	14
128	128	25
50	50	14
77	77	5
40	40	14
126	127	9
13	13	13
52	54	4
85	92	1
118	118	21
70	102	1
141	141	12
116	117	8
41	74	1
42	42	14
41	43	4
109	109	12
107	108	4
16	16	17
56	56	6
77	78	8
110	112	1
56	93	5
101	101	5
114	117	1
153	153	18
26	27	7
132	133	2
122	123	5
129	130	3
76	77	5
145	145	9
152	152	7
47	47	16
49	50	9
149	149	16
106	106	8
11	28	2
107	107	5
64	64	12
127	128	4
121	125	3
111	111	19
42	43	7
130	130	12
45	45	9
85	119	2
40	153	2
112	112	13
65	65	11
114	114	6
117	134	3
14	14	12
144	145	7
69	70	4
55	55	13
146	146	12
113	114	13
16	18	2
120	140	2
105	127	2
28	29	2
125	125	13
102	102	6
89	90	5
115	116	5
49	49	14
107	109	6
75	75	8
75	79	3
79	79	9
9	90	1
34	34	6
117	152	3
39	40	9
35	35	5
76	80	3
16	37	1
88	88	6
32	38	4
36	36	11
96	99	7
73	73	9
7	90	2
103	104	5
3	7	2
32	32	13
72	73	2
50	55	3
71	102	1
119	119	10
93	93	9
71	71	11
33	33	6
108	133	2
112	114	1
64	129	3
87	88	4
37	38	2
54	54	12
6	7	6
51	51	7
138	144	7
10	10	7
120	120	9
62	100	4
69	71	1
92	92	8
20	20	14
23	23	13
129	129	9
100	101	3
148	149	8
142	143	6
120	144	2
43	44	6
145	146	4
72	72	10
64	76	3
137	137	15
19	70	4
80	80	4
149	150	6
132	132	9
43	43	9
105	105	6
68	71	4
53	53	10
96	128	1
90	90	8
56	92	2
55	57	1
68	70	3
137	138	8
27	27	11
55	93	1
90	109	3
44	44	3
130	131	11
86	86	17
66	97	3
84	87	5
48	48	16
65	100	3
113	145	2
113	113	10
17	17	13
76	152	1
145	147	2
138	138	5
84	85	5
3	3	3
93	102	1
63	64	2
110	117	1
9	9	5
107	139	1
87	87	7
115	141	2
98	104	2
119	121	4
27	28	4
123	138	2
10	11	4
122	122	12
44	71	2
43	45	2
5	110	3
7	8	3
77	81	2
79	81	1
99	125	3
41	78	1
78	80	3
3	5	3
113	154	2
66	66	8
98	99	3
85	85	12
21	21	10
11	12	5
85	86	1
14	24	2
78	79	4
74	75	8
119	120	2
83	84	6
22	22	8
84	86	5
126	126	6
144	144	5
136	137	4
106	107	6
53	57	2
14	22	3
17	19	4
62	65	2
68	100	8
15	15	1
115	123	2
34	36	3
13	15	3
70	71	2
53	55	1
72	74	5
26	31	1
33	34	7
25	29	3
68	73	2
38	38	11
12	12	10
103	114	1
140	140	2
130	132	2
121	126	5
6	6	9
73	98	1
80	81	5
34	63	4
75	76	3
83	83	2
135	136	4
121	122	5
136	143	2
58	58	1
11	11	10
120	121	2
66	67	9
123	123	4
55	99	2
135	139	6
53	54	2
111	113	7
112	113	1
47	53	1
88	110	4
42	130	6
139	139	3
84	84	4
100	100	6
41	47	2
116	152	3
136	142	2
32	34	1
24	25	1
65	67	1
74	74	4
96	97	4
142	144	1
92	93	3
117	132	1
13	14	6
67	68	1
146	148	2
95	95	6
24	24	4
144	146	3
119	154	2
97	104	1
19	107	1
110	113	1
73	74	2
86	90	2
101	102	1
117	123	1
94	95	5
25	26	9
139	140	3
86	91	1
46	46	8
62	63	2
2	4	1
62	86	1
113	153	2
95	104	3
42	46	5
79	82	3
75	99	4
83	112	1
102	106	1
2	2	1
121	124	2
57	67	2
79	80	2
141	142	1
31	32	4
119	122	2
116	138	2
8	22	1
82	84	1
78	81	1
83	85	1
92	99	1
123	124	3
101	103	1
149	154	1
124	125	5
106	135	2
32	40	3
114	115	1
119	147	3
43	53	3
95	98	2
133	134	2
38	39	1
16	17	1
50	51	1
64	65	3
63	66	2
71	72	1
140	142	3
87	109	1
21	25	1
96	105	1
61	61	1
39	116	1
82	83	1
81	82	3
116	150	1
33	38	1
46	71	1
41	42	1
108	109	5
146	150	1
120	125	1
41	62	4
67	73	2
56	66	2
93	125	2
94	99	1
78	78	3
39	41	1
139	153	1
9	20	1
44	68	4
93	99	1
74	80	1
55	56	1
77	98	1
117	117	1
25	104	1
46	100	1
143	143	1
33	64	1
154	154	3
36	37	2
75	103	1
108	110	1
146	147	2
9	70	2
20	25	1
102	107	1
114	145	1
65	66	1
7	7	2
63	98	1
67	100	1
117	124	1
4	6	2
41	65	1
120	123	1
152	153	1
105	106	1
11	29	2
123	151	2
66	104	1
41	96	1
117	119	1
100	102	1
93	127	2
32	63	1
111	114	2
22	23	1
64	88	1
29	29	2
150	151	2
18	21	1
66	99	1
121	143	1
30	31	2
111	112	2
68	69	1
105	128	2
53	87	1
127	130	1
21	26	1
54	57	1
124	124	1
113	141	1
144	148	1
91	91	1
52	58	1
98	129	1
125	127	1
69	100	1
51	73	1
118	119	1
62	71	1
146	151	1
93	94	1
95	96	1
116	123	1
145	150	1
56	57	1
