103	125	7
118	118	11
11	11	8
29	29	9
46	47	2
131	131	3
93	93	12
0	0	8
132	132	4
66	66	12
71	71	9
5	5	12
121	122	6
3	3	7
7	7	13
15	16	4
27	41	1
79	104	2
14	14	21
34	34	8
125	126	8
119	120	9
31	31	4
119	119	13
10	10	5
24	24	10
78	78	9
55	55	6
65	65	21
74	74	2
33	35	3
44	44	7
17	20	5
69	69	11
116	131	5
77	77	15
122	122	15
58	58	25
103	103	10
46	46	10
82	82	16
13	124	5
38	38	14
50	56	1
84	84	24
15	15	9
17	17	9
86	86	7
107	133	9
30	30	9
110	111	6
57	57	5
40	40	12
75	75	5
108	108	6
109	110	3
97	98	5
73	73	12
76	76	20
78	105	1
41	44	3
45	45	3
50	50	8
26	26	4
56	56	2
133	133	6
42	42	9
20	22	6
99	99	3
127	127	11
42	47	2
46	95	5
32	32	7
35	35	6
128	128	16
1	56	1
100	100	10
9	9	6
29	30	1
29	35	2
28	28	7
42	43	4
25	27	1
35	36	3
8	8	19
18	18	11
25	25	3
82	83	4
104	104	5
72	72	6
101	134	2
110	110	6
44	123	2
81	81	9
12	88	2
96	96	7
101	103	1
101	125	2
108	109	3
64	64	21
76	77	3
108	111	1
60	62	7
123	123	12
47	47	15
33	33	3
123	124	1
121	121	5
90	90	9
21	25	3
60	60	4
16	16	3
73	74	10
112	113	6
26	27	3
94	94	15
39	39	7
63	63	13
125	133	4
17	22	1
97	97	3
117	118	1
102	102	9
74	75	1
28	40	3
44	48	2
74	76	1
84	85	4
61	61	1
126	126	3
130	130	6
107	107	6
90	91	2
33	34	4
59	60	3
81	88	3
67	67	4
103	121	5
41	42	4
44	45	1
127	130	4
41	41	2
111	111	5
125	125	7
95	96	3
27	40	3
106	106	8
91	91	5
111	116	5
42	44	3
95	95	12
96	97	4
79	79	12
96	98	4
19	22	2
27	27	4
86	87	3
59	59	4
48	51	2
116	116	8
92	92	4
11	64	2
22	22	3
115	115	4
68	68	3
23	23	3
13	13	2
80	80	5
1	1	9
37	37	5
101	105	3
81	105	3
32	33	3
120	120	4
98	98	6
85	85	2
34	35	4
83	84	2
101	104	6
20	20	5
43	43	8
131	132	2
31	37	4
95	122	2
23	24	6
114	132	3
83	83	6
7	47	1
113	115	1
105	105	4
16	42	4
130	131	1
38	39	1
24	25	2
3	21	3
113	114	1
126	129	7
78	79	6
12	124	1
47	60	1
45	123	3
86	91	3
112	115	4
18	25	2
76	117	1
36	36	9
77	78	2
113	113	4
18	27	2
2	2	6
78	80	3
87	88	1
8	118	1
41	124	1
9	10	1
88	88	1
85	86	1
121	125	2
83	89	1
19	19	3
83	105	3
7	19	5
96	120	2
101	101	1
91	92	3
109	109	3
45	46	7
16	123	2
92	97	1
76	129	3
134	134	5
84	102	4
4	4	3
101	124	1
30	35	2
12	12	3
80	106	3
115	132	3
29	41	1
97	100	5
26	39	3
10	120	4
6	6	1
117	117	4
113	132	1
22	126	2
62	63	3
48	48	1
79	81	2
94	95	1
27	29	1
74	111	3
98	100	2
36	37	3
8	9	1
95	98	2
82	86	2
126	127	3
11	76	1
80	134	3
85	100	3
88	89	1
42	123	2
46	59	1
57	58	1
114	114	2
8	22	1
112	114	2
114	133	2
82	88	2
114	127	1
26	40	1
34	36	1
6	19	1
8	103	2
80	101	2
124	124	1
4	5	3
96	100	1
80	105	1
70	70	1
4	6	4
120	124	1
89	89	2
18	23	1
120	125	3
106	108	1
43	44	1
127	128	1
74	108	3
10	11	2
89	99	1
21	129	1
99	100	1
102	124	2
14	22	1
76	116	1
87	87	1
107	109	1
11	125	1
