130	130	4
24	30	1
73	74	3
76	87	8
39	41	2
21	35	3
61	61	6
56	66	1
68	87	2
30	32	2
125	126	3
26	26	6
143	143	3
2	2	3
127	142	9
71	71	6
19	24	2
107	109	2
16	26	1
134	141	1
14	25	2
0	6	1
138	145	1
86	87	7
5	6	9
134	134	3
91	91	4
21	22	2
80	82	6
99	100	2
89	91	5
134	137	2
84	84	4
47	50	3
106	109	7
82	110	1
78	84	3
37	38	6
130	140	2
117	122	1
33	33	6
54	54	11
29	31	3
104	117	1
17	21	3
17	24	2
110	115	2
22	37	2
8	9	5
8	13	6
144	144	3
54	62	3
107	107	9
63	63	2
26	30	2
28	36	7
92	107	1
19	25	3
8	10	6
52	55	7
16	59	4
2	31	3
12	78	2
85	91	1
104	104	2
127	139	3
124	145	1
88	88	7
105	124	5
9	10	4
36	39	1
28	33	7
104	106	1
35	38	1
115	122	4
20	24	2
72	82	2
37	41	4
96	103	2
96	96	4
115	115	2
5	5	3
9	17	9
68	86	2
21	21	2
66	82	6
102	103	1
74	74	4
35	35	11
92	108	6
115	117	2
69	70	3
25	26	2
64	74	2
74	84	7
102	102	7
126	126	5
71	74	2
136	141	5
76	89	1
29	29	3
4	4	2
77	78	1
62	62	3
100	114	2
118	125	4
115	118	5
85	133	1
74	77	3
123	123	5
20	20	1
112	114	1
67	69	1
15	16	3
69	73	5
62	64	4
28	31	3
61	64	6
139	141	4
69	72	3
16	62	1
23	36	1
16	29	1
101	118	1
10	25	7
77	79	5
90	90	3
112	117	1
98	103	2
62	65	4
100	103	1
36	36	7
95	98	4
6	13	3
4	11	3
28	28	4
51	60	2
2	8	3
68	68	1
23	27	4
52	53	3
59	60	2
109	112	2
127	129	1
110	111	4
42	42	4
117	128	1
38	41	2
100	100	2
116	132	1
128	128	5
112	112	5
99	99	1
138	139	5
22	22	3
107	113	4
58	58	7
11	11	4
32	33	2
136	138	5
110	113	1
97	97	7
108	111	4
139	142	7
61	75	2
88	93	4
143	144	1
86	91	2
9	54	1
83	97	1
120	125	2
53	53	1
95	95	7
61	68	2
63	66	5
111	112	2
88	113	2
56	57	4
71	75	1
54	74	1
27	38	1
57	66	2
2	6	1
18	23	7
4	29	3
57	60	2
78	79	2
136	136	3
95	97	6
83	99	5
68	72	3
71	72	6
117	119	3
51	57	3
54	65	1
77	99	2
6	12	1
38	39	3
32	32	5
91	94	1
138	138	2
34	35	1
127	127	2
107	132	2
16	18	5
40	41	4
19	35	3
93	106	1
67	72	1
116	118	4
10	10	7
97	100	3
87	107	9
107	115	3
113	120	1
96	105	1
85	85	1
145	145	1
110	112	1
40	42	1
63	64	6
129	131	1
65	70	2
88	90	1
116	117	10
76	80	2
59	59	4
133	134	1
22	25	2
140	140	3
25	25	1
104	109	5
10	11	7
46	47	2
106	116	1
28	35	3
101	101	3
30	33	1
15	22	6
70	83	3
67	68	6
67	73	4
60	80	7
65	66	2
79	80	2
64	64	1
117	132	1
136	145	3
28	30	1
92	92	2
94	94	5
20	22	2
14	14	1
61	62	2
31	31	2
60	61	1
105	107	1
28	39	3
103	105	2
109	132	2
38	38	3
12	16	2
121	125	3
6	10	3
6	40	1
69	69	2
128	137	2
123	126	2
125	143	3
0	1	6
81	106	3
29	30	4
124	125	1
111	115	1
48	49	3
120	124	2
90	93	4
1	6	4
70	72	2
1	5	2
1	14	2
20	21	4
133	135	2
139	139	2
120	135	1
27	27	2
89	93	1
16	17	2
51	52	3
111	127	1
54	58	4
77	81	2
112	113	3
3	32	1
41	41	1
55	57	2
140	146	1
1	1	3
11	12	2
81	86	1
110	110	4
57	61	1
138	140	2
8	8	2
26	31	1
76	91	2
18	18	3
143	146	1
134	139	1
100	115	2
34	40	1
48	68	1
104	105	2
13	15	1
131	132	2
64	76	3
65	74	1
98	102	3
21	39	2
143	145	1
119	129	1
105	105	3
4	31	1
115	116	2
65	75	2
128	132	2
65	80	3
19	20	1
13	13	3
34	42	2
54	56	1
142	143	2
122	139	3
70	70	1
124	137	1
52	52	5
59	62	2
12	25	2
70	74	3
133	143	1
2	3	1
34	50	2
133	138	1
119	120	2
72	73	1
71	81	1
56	56	2
13	40	2
59	85	1
74	75	1
90	96	2
49	50	3
40	51	1
130	132	2
73	86	1
25	27	1
0	78	1
57	58	1
4	6	1
70	73	1
133	139	3
140	143	2
102	124	1
37	40	3
4	32	1
31	34	2
64	65	1
15	15	3
94	96	3
3	4	3
106	110	1
28	34	5
131	131	1
60	70	2
88	94	2
0	12	1
89	92	1
15	28	2
123	142	1
94	95	2
135	137	1
134	135	3
6	6	2
67	82	1
111	132	1
73	73	2
135	135	1
93	93	2
24	27	3
19	19	2
79	79	3
124	142	2
71	86	3
109	110	1
15	19	2
21	26	2
100	109	1
91	96	2
10	16	2
131	134	1
6	9	1
128	136	1
54	73	1
103	132	2
95	96	2
81	81	1
11	13	2
0	4	1
18	24	1
114	114	2
26	34	1
60	60	1
48	48	2
34	34	1
82	83	1
135	136	1
14	20	3
99	103	1
76	85	1
75	75	2
53	55	1
61	81	1
114	117	1
132	136	1
117	118	1
141	142	1
8	12	1
2	17	1
136	139	1
3	6	1
98	98	1
90	91	2
129	129	2
84	103	1
137	141	1
125	125	1
47	49	1
12	17	1
110	119	1
22	35	1
21	34	1
68	81	1
131	135	1
77	80	1
126	137	2
97	98	2
39	39	1
63	69	1
63	65	1
76	77	1
14	15	1
121	123	2
73	75	1
74	80	1
61	86	1
87	87	2
9	68	1
4	38	1
126	128	1
137	137	1
5	33	1
86	121	1
