14	16	4
27	27	4
45	45	13
119	120	8
134	135	7
107	107	12
49	49	9
126	126	13
165	166	7
158	158	14
55	66	1
100	117	4
120	154	3
70	77	3
90	93	2
128	128	16
92	100	4
104	104	8
19	19	11
138	138	33
67	68	1
133	152	5
37	37	12
81	83	5
74	74	25
162	162	10
89	89	13
124	125	10
132	135	3
34	35	10
131	133	3
102	137	1
16	16	20
104	112	3
16	17	4
35	35	11
51	51	3
149	149	6
139	140	5
23	44	3
127	127	9
20	20	8
89	90	1
62	63	4
157	157	18
70	70	11
105	105	10
55	55	4
109	151	4
65	65	6
45	46	2
149	150	13
161	164	2
156	156	9
154	155	5
66	67	9
108	109	6
110	110	16
21	21	14
104	105	7
77	77	4
133	166	5
39	50	2
3	3	13
153	154	9
12	12	14
84	84	14
95	96	2
69	74	1
1	3	6
7	7	8
85	85	9
141	141	10
13	14	1
54	54	4
137	151	4
56	57	9
163	163	7
42	42	7
154	154	18
91	93	2
99	99	12
150	150	14
43	43	14
58	62	2
38	38	8
8	23	3
23	23	8
164	165	3
0	4	4
42	43	7
53	53	15
5	113	1
26	26	3
129	129	14
125	127	5
116	116	24
108	108	12
5	43	2
13	13	9
2	57	1
151	152	3
139	139	20
167	167	5
130	131	1
94	94	2
144	144	14
84	86	3
124	124	14
142	142	11
63	65	3
73	73	9
162	164	5
11	35	7
143	147	2
44	44	7
159	159	6
152	161	2
102	102	8
109	111	2
41	41	15
9	19	1
112	112	8
66	66	2
63	63	10
143	148	4
128	133	3
56	56	5
1	2	9
98	98	9
8	9	4
12	13	1
4	6	2
92	93	8
22	22	9
106	106	6
92	92	5
91	142	8
3	7	2
47	47	11
3	84	4
74	75	4
53	56	3
170	170	5
101	102	1
164	164	3
109	109	4
117	119	2
54	55	2
151	151	12
75	75	6
145	145	5
161	161	4
132	134	3
127	132	3
165	167	1
0	1	6
155	166	2
127	129	5
155	157	4
69	69	11
9	9	3
81	82	3
14	14	12
10	13	1
75	76	2
79	79	16
38	51	3
91	94	3
8	10	6
22	144	1
141	143	5
78	78	6
4	4	12
2	2	14
95	99	3
123	124	7
123	123	9
130	133	3
71	85	2
9	10	1
7	83	4
98	99	3
135	135	13
117	117	7
83	84	8
91	95	1
79	112	2
62	62	5
155	156	1
80	82	3
11	13	6
14	15	2
57	61	4
18	18	2
157	159	4
118	119	2
7	93	2
97	97	1
20	38	2
87	88	1
111	112	4
100	101	3
39	39	9
152	153	10
84	98	1
133	133	6
4	5	2
122	128	8
8	8	9
145	146	3
127	128	7
148	148	3
119	119	7
38	53	2
64	69	1
113	114	4
166	166	10
48	48	9
88	89	9
52	52	4
152	152	11
142	162	3
85	86	1
128	129	7
95	97	7
68	68	4
103	103	11
145	148	2
104	144	2
18	24	2
137	137	4
125	125	9
116	122	1
11	11	3
16	18	5
122	144	2
157	158	5
157	162	4
51	54	1
14	17	3
25	27	3
24	24	4
153	153	5
111	111	20
150	151	7
165	165	10
7	18	3
100	100	8
11	12	3
15	144	4
63	82	5
3	10	2
33	33	1
22	45	4
17	17	8
94	98	2
85	87	4
130	130	7
161	162	5
13	15	6
4	113	2
91	122	6
20	21	2
64	64	4
147	147	12
163	164	4
11	19	2
7	82	2
147	148	2
21	22	3
110	111	4
107	108	5
90	91	3
105	138	7
43	44	3
133	134	5
132	132	11
38	39	3
97	99	3
6	24	3
169	170	1
40	40	9
94	106	1
45	48	3
88	88	5
99	100	3
39	89	2
52	54	3
143	143	8
15	15	5
75	83	1
46	58	2
51	65	4
3	5	1
46	46	4
5	5	5
13	20	3
11	42	6
39	41	4
130	142	2
9	25	2
90	90	8
120	120	3
101	101	3
53	138	2
3	9	1
83	83	9
74	76	1
10	11	1
114	114	1
135	136	4
24	25	1
166	169	3
5	112	1
114	116	3
162	170	1
146	146	4
52	55	1
70	73	3
91	105	2
76	81	1
95	95	4
74	84	1
78	79	2
15	16	1
50	51	4
26	27	5
123	137	1
117	118	3
78	81	2
143	146	1
44	45	2
64	65	7
169	169	9
134	134	5
84	88	4
129	133	2
73	84	2
129	150	1
21	25	3
36	36	4
158	167	1
131	131	4
133	165	5
80	81	8
133	136	2
95	107	1
63	67	2
50	50	2
17	18	1
9	12	1
80	80	6
21	42	2
6	18	2
2	83	2
58	58	5
154	160	2
67	67	5
132	146	4
155	155	5
137	138	3
1	17	2
102	138	1
15	19	3
25	25	4
96	96	4
113	113	3
35	37	2
70	85	4
21	24	1
77	78	3
102	103	2
167	168	1
19	24	3
98	106	1
124	137	1
136	144	1
76	80	3
69	77	4
50	57	1
118	118	1
75	96	1
9	16	1
94	141	1
136	136	3
82	82	5
100	103	2
36	37	3
122	123	4
140	140	1
160	160	11
2	11	1
33	34	2
79	91	2
8	21	1
71	72	2
14	115	1
82	93	1
124	144	1
26	35	1
124	143	1
72	74	2
129	151	3
162	165	1
119	121	1
65	68	5
35	36	1
112	113	4
57	64	2
57	63	1
5	45	2
47	57	1
41	50	3
61	62	1
5	6	6
61	85	2
162	163	3
116	124	1
86	87	4
49	62	1
134	140	1
56	63	1
65	83	2
80	83	1
92	99	2
34	34	4
66	71	1
150	155	1
46	53	2
46	47	5
160	163	1
100	104	2
159	167	3
1	1	4
142	143	2
98	107	3
57	57	3
122	122	1
115	115	4
118	125	2
76	76	2
99	143	1
91	92	3
11	27	2
112	121	1
143	144	4
67	69	2
65	66	3
136	142	1
134	136	1
76	82	2
112	115	2
168	169	4
91	123	2
103	104	1
103	138	1
64	70	1
0	0	5
138	140	1
48	50	1
10	10	2
18	19	1
4	83	1
157	161	1
87	87	3
118	123	2
37	38	2
135	142	3
97	98	1
18	81	3
6	6	1
123	125	2
22	24	1
154	159	2
135	160	1
168	168	1
81	81	1
63	64	1
10	21	1
42	96	1
159	161	1
20	25	1
132	151	1
134	162	1
5	44	1
106	137	1
41	52	1
145	149	2
77	82	1
19	22	1
92	95	2
23	24	1
2	3	1
139	141	1
118	126	1
71	71	1
6	7	1
39	40	1
11	25	1
94	96	2
83	99	1
1	4	1
7	8	1
127	168	1
2	5	1
40	71	1
5	83	1
12	45	1
107	125	1
161	170	1
71	89	1
93	93	2
3	4	1
26	28	1
82	84	1
86	86	1
94	95	1
12	15	1
18	25	1
123	145	1
