216	218	4
243	244	8
79	79	23
186	186	21
102	103	6
194	195	1
47	53	4
111	111	13
4	4	10
214	214	4
96	151	1
231	231	6
76	76	6
90	91	10
43	99	4
49	49	16
203	204	3
59	85	3
29	30	4
204	204	8
158	182	2
179	180	8
209	209	6
60	75	2
198	200	4
206	206	1
95	96	14
11	27	1
71	71	10
95	95	10
180	180	5
179	182	3
33	42	2
65	65	10
99	100	10
200	200	4
53	54	1
105	111	1
166	166	15
24	28	5
106	109	8
165	165	11
220	246	2
7	7	12
13	56	5
205	205	5
115	115	9
178	178	6
184	187	3
215	215	13
4	5	6
204	205	4
86	86	11
218	249	2
221	221	15
91	91	3
170	170	3
44	45	2
150	227	1
241	242	5
207	207	12
183	183	7
74	74	6
3	30	2
160	160	7
59	61	5
208	209	12
61	61	8
234	235	12
98	98	1
202	203	5
153	189	3
187	187	10
89	89	3
162	164	1
227	244	6
96	97	8
52	52	7
158	181	2
211	222	1
25	40	2
101	101	8
205	218	4
177	178	4
242	242	3
31	31	8
57	57	7
192	193	6
161	161	6
158	159	6
176	177	9
163	163	12
201	227	5
167	168	2
244	244	12
244	245	3
240	246	1
62	83	3
193	194	1
82	82	8
71	73	2
214	221	4
219	219	7
172	172	14
172	173	1
175	175	20
67	67	3
112	112	6
199	202	3
116	116	8
216	216	14
198	198	9
170	217	2
157	182	3
54	54	5
247	247	1
144	144	6
81	81	3
78	79	8
182	182	3
60	60	13
171	171	15
177	177	22
117	118	1
96	96	9
27	28	3
48	50	3
174	176	2
12	13	3
156	156	9
167	167	11
184	184	12
69	71	4
13	15	3
106	106	8
78	78	7
82	235	3
37	37	8
191	199	4
62	62	18
217	217	7
222	247	2
166	179	1
173	173	7
72	72	4
246	246	8
170	242	3
27	27	7
57	74	2
8	9	4
9	9	3
47	48	5
55	93	7
232	233	3
15	16	1
50	52	2
47	54	7
168	175	2
55	103	2
113	114	5
213	214	6
216	217	6
36	36	4
235	235	10
55	57	1
15	15	6
5	5	5
161	164	4
151	151	9
31	44	4
193	193	7
55	151	1
14	15	4
162	198	4
52	182	1
223	224	4
195	217	1
62	230	2
87	88	7
159	159	10
196	199	1
240	241	7
32	43	4
231	247	2
75	75	8
173	236	2
197	198	8
203	203	10
21	21	2
45	104	2
162	197	7
83	100	4
63	230	1
98	100	8
9	10	4
195	195	13
3	3	4
197	199	5
43	43	3
236	237	5
76	77	1
30	30	15
68	69	2
29	29	9
93	94	13
23	38	3
153	155	2
37	38	4
157	202	1
100	100	4
157	158	3
6	6	11
59	59	8
169	170	9
199	199	13
78	80	3
19	19	6
191	191	5
0	0	3
220	220	9
178	205	2
181	181	15
241	241	19
173	174	8
72	73	3
245	246	6
43	46	1
28	28	2
44	117	4
160	163	7
10	17	4
71	72	13
54	95	7
34	34	4
153	153	7
49	209	4
163	165	4
85	85	13
196	196	15
103	103	4
70	71	3
40	55	1
98	103	2
222	244	1
57	92	1
30	32	1
6	31	2
212	230	4
72	74	2
45	105	3
81	82	2
167	178	2
89	90	2
233	235	4
97	97	6
7	46	3
182	183	5
215	217	2
160	210	1
194	194	11
8	33	3
26	42	1
63	63	4
237	239	5
66	66	3
168	168	7
223	223	1
111	112	1
94	95	5
230	232	1
184	221	2
165	166	12
25	26	10
67	76	2
162	195	6
238	238	13
82	83	6
115	116	9
32	33	4
61	63	1
75	76	6
64	64	4
39	231	1
197	197	10
60	102	3
248	248	6
61	82	3
4	30	4
10	10	9
210	228	2
75	78	3
115	117	3
225	226	6
64	209	2
44	44	8
14	58	3
153	154	3
108	108	4
209	210	5
218	219	7
7	110	2
90	97	4
227	228	7
217	247	1
68	70	5
105	105	7
210	210	4
201	201	3
102	102	6
42	52	4
204	240	7
225	225	8
229	229	11
96	99	2
156	160	4
167	169	4
57	58	3
23	41	2
236	236	4
31	46	1
211	211	6
51	51	14
77	78	3
116	117	7
172	196	2
16	16	5
90	90	10
218	218	2
164	164	2
179	201	3
77	79	3
179	179	12
217	218	2
246	249	1
63	70	1
7	33	3
220	247	1
40	58	3
58	74	2
101	102	3
239	239	13
118	118	6
194	238	3
18	20	1
168	218	2
151	152	5
28	38	1
178	179	4
153	201	2
87	200	1
42	42	6
213	215	6
190	190	14
213	233	3
90	180	2
169	169	5
117	117	3
226	226	7
151	186	3
24	24	8
161	162	2
23	34	1
175	205	1
224	227	3
234	234	14
195	196	2
164	165	5
190	191	4
156	180	2
61	206	2
109	110	2
32	32	6
63	64	5
150	150	3
14	29	2
216	247	3
170	175	1
163	169	2
80	82	1
204	206	1
38	40	1
79	80	3
198	199	5
233	233	4
185	185	5
187	188	7
105	110	1
158	158	2
89	163	1
3	23	1
158	192	3
233	234	5
233	236	1
243	243	5
63	65	5
168	169	2
17	67	2
185	222	4
178	207	1
52	155	2
22	111	2
69	75	1
11	19	1
5	7	1
155	155	3
54	71	2
240	240	10
150	151	1
194	196	3
20	20	5
237	238	3
38	39	2
40	41	4
48	48	7
231	233	1
90	164	1
8	11	2
53	53	3
81	83	3
165	179	2
52	120	4
59	68	2
41	42	2
110	110	5
119	119	3
167	170	2
199	237	2
201	202	3
59	65	4
61	62	6
7	45	4
96	98	2
211	213	6
228	228	2
74	75	3
46	106	1
113	115	1
237	237	2
110	111	7
53	93	1
232	232	4
2	2	2
68	68	9
84	84	6
18	19	7
86	101	1
186	189	1
104	104	1
183	184	6
207	209	2
46	56	2
100	145	1
162	162	6
11	12	1
114	114	9
147	147	4
7	8	2
14	74	1
107	107	8
214	218	2
175	204	1
52	97	1
45	52	3
56	57	8
107	110	2
59	62	1
219	220	1
70	169	1
26	26	2
90	98	1
59	101	1
166	177	1
46	46	6
171	203	4
239	242	2
155	160	1
8	8	3
201	203	2
236	245	3
247	248	8
14	14	7
6	7	2
92	93	3
77	77	9
17	17	5
34	42	2
238	239	3
9	68	1
163	203	1
224	224	1
152	153	2
55	56	1
193	196	3
39	41	2
151	185	5
166	167	1
171	196	1
234	246	1
189	189	2
71	74	3
179	205	1
179	192	1
185	186	8
154	188	1
120	144	1
113	113	4
199	236	1
73	73	4
114	115	2
146	146	4
90	161	2
158	164	1
33	33	3
188	188	8
69	70	4
208	208	7
66	82	4
62	233	3
99	99	7
163	164	9
59	60	5
161	206	3
36	37	2
179	181	2
105	109	3
234	236	2
62	64	1
104	106	3
19	150	1
1	53	1
94	153	5
42	95	2
167	241	2
218	220	1
35	36	1
210	223	3
182	184	3
152	152	6
177	197	4
176	176	3
60	62	2
26	153	1
29	120	1
203	214	2
177	194	1
170	171	1
202	202	3
52	54	1
216	245	1
45	106	3
58	58	4
201	204	2
65	73	1
84	100	6
16	59	1
222	222	6
107	113	2
60	61	3
107	115	2
45	45	1
51	52	1
89	91	2
91	92	2
117	120	1
221	222	1
176	191	1
217	219	3
87	87	5
157	157	1
214	217	1
2	7	2
161	200	1
29	96	3
41	91	1
180	199	2
210	229	2
104	105	1
200	201	2
209	211	2
201	209	3
40	110	1
32	51	2
212	214	1
11	11	3
92	232	2
60	81	3
0	10	3
54	57	2
195	220	1
52	95	2
94	94	1
38	38	2
59	82	2
149	154	1
241	245	1
176	194	2
154	182	2
6	115	3
183	189	1
35	52	3
49	106	2
154	154	7
5	6	4
245	245	5
38	228	2
200	227	4
49	50	1
31	98	3
43	100	1
62	63	1
223	226	5
27	154	2
184	185	2
1	41	3
40	40	4
12	12	3
171	205	1
80	80	4
73	80	1
94	97	2
17	23	1
36	53	1
211	212	5
195	205	1
3	4	1
31	42	3
35	35	3
55	91	1
66	69	2
85	101	3
8	44	1
199	240	1
30	31	4
62	232	2
92	92	2
12	19	2
192	192	1
214	216	2
44	94	1
166	168	1
222	223	1
118	119	2
22	22	2
216	219	1
210	211	3
226	246	1
47	49	1
94	209	1
246	247	2
165	181	1
171	241	1
192	194	1
35	41	2
1	120	1
56	56	3
47	108	1
25	29	3
106	110	2
114	116	1
176	204	1
211	215	3
191	222	4
3	19	3
64	66	1
95	98	4
6	45	1
43	44	1
70	70	1
92	205	2
23	24	1
218	241	1
67	68	2
27	144	3
175	176	1
110	112	1
71	92	1
13	57	2
191	193	1
23	23	4
17	58	1
101	105	1
83	83	2
39	39	2
85	145	1
166	220	1
106	107	2
67	81	1
146	150	2
218	247	1
117	119	1
38	41	2
35	37	2
186	187	1
229	230	2
31	50	1
176	178	1
101	104	2
85	102	2
239	241	2
243	246	1
239	240	2
100	101	3
55	55	4
202	213	1
107	109	1
156	157	1
156	224	1
174	174	1
85	86	1
158	166	2
54	92	1
58	66	1
89	193	1
174	175	1
160	202	2
3	29	2
191	192	2
31	52	1
227	227	1
11	20	2
96	154	1
82	85	3
167	179	2
191	197	1
154	181	1
88	89	4
53	92	1
108	109	1
39	151	1
90	95	3
156	181	2
202	207	1
87	234	1
244	246	1
224	226	2
18	18	4
210	224	1
41	41	1
206	209	1
147	155	1
155	201	1
7	9	1
117	145	1
230	231	1
69	69	1
213	213	2
199	201	1
238	241	1
62	82	1
34	35	1
70	229	1
95	153	1
2	3	1
218	245	1
80	81	1
42	96	1
161	199	1
14	56	1
212	213	1
86	198	1
54	55	1
222	245	1
25	25	1
145	162	1
45	109	1
109	109	1
186	190	1
120	120	1
64	70	1
162	176	1
173	239	1
108	113	1
65	66	1
150	153	1
105	106	1
180	223	1
26	28	1
41	96	1
50	50	1
157	208	1
55	92	1
6	119	1
165	167	1
