32	32	1
92	93	2
125	125	1
15	15	2
83	84	2
97	106	3
6	6	8
101	101	8
139	139	4
88	88	6
121	121	11
91	120	3
37	38	6
20	20	9
107	135	5
69	69	6
73	74	3
118	119	1
115	116	4
48	48	2
2	2	3
95	95	4
71	72	2
8	9	1
76	129	2
105	106	5
112	113	4
86	86	4
132	132	6
56	56	2
18	18	8
123	123	8
116	116	7
25	26	3
19	29	2
143	144	3
146	146	1
78	92	2
128	129	4
58	58	3
112	112	4
129	129	2
35	35	7
140	140	1
71	75	3
2	3	1
33	36	3
113	114	4
97	98	3
118	118	3
61	61	6
119	120	5
134	135	5
69	70	6
24	24	1
36	36	3
133	133	5
27	27	4
7	14	3
10	11	1
53	53	10
39	39	7
16	16	10
23	24	1
79	79	6
66	66	6
114	114	4
105	105	4
17	17	1
20	23	4
38	38	4
62	71	1
120	120	2
136	136	4
21	22	5
72	73	1
113	113	5
85	88	5
22	22	5
34	34	2
135	135	10
111	113	2
117	117	7
63	63	1
2	13	3
51	52	1
84	84	3
42	59	1
68	68	1
77	94	1
144	144	2
119	119	5
104	105	3
21	21	1
70	70	5
126	126	2
89	89	3
131	133	2
100	100	1
123	125	6
92	92	2
91	91	4
98	98	1
95	122	1
33	33	8
49	49	3
59	59	6
52	53	2
115	115	4
4	6	2
74	74	5
94	94	3
135	139	1
28	29	1
107	108	2
140	141	3
112	117	1
127	129	1
41	41	6
79	90	1
7	9	1
82	84	4
15	16	1
102	103	1
67	67	3
116	117	1
43	43	1
122	122	6
134	134	5
109	109	1
81	113	1
116	127	1
75	77	4
64	65	4
25	25	2
30	30	3
125	134	2
50	51	1
42	52	3
21	35	2
16	17	2
5	23	3
19	19	7
90	90	2
38	39	1
47	48	1
99	99	4
11	22	1
111	111	5
97	97	2
27	28	3
67	68	1
97	142	2
40	40	3
116	128	1
119	121	2
130	130	1
105	131	4
23	23	5
81	112	3
113	117	2
83	83	4
141	141	2
145	145	2
8	8	3
47	47	1
63	69	1
31	31	2
53	55	2
39	40	1
93	94	3
4	13	1
26	29	3
81	81	3
11	11	2
110	110	2
96	97	2
6	12	3
143	143	3
18	19	1
122	123	1
77	77	2
55	55	2
142	142	1
108	114	1
5	5	2
31	32	1
52	52	3
63	64	1
72	72	3
107	107	2
12	13	2
55	65	1
97	135	1
65	65	1
59	60	1
1	1	1
92	94	1
25	32	2
75	75	1
77	118	1
62	62	1
38	103	2
10	10	1
93	93	1
86	88	1
61	65	1
86	89	1
127	127	1
