72	72	11
91	91	11
21	23	3
166	166	12
102	118	4
65	65	4
156	157	8
131	131	5
128	128	11
149	150	10
36	39	1
167	167	9
54	71	1
125	170	2
102	102	16
42	43	6
144	145	1
147	148	5
132	132	6
5	5	2
52	53	6
23	23	8
100	100	5
176	176	18
123	157	1
152	153	9
152	152	6
7	7	12
35	35	10
142	144	2
156	156	13
110	111	19
77	77	4
11	11	11
105	105	10
170	170	9
22	22	8
108	110	6
25	26	8
118	118	3
81	95	2
85	85	13
76	76	12
115	116	10
135	136	10
72	73	2
83	83	9
37	37	11
161	164	6
113	113	12
20	45	2
124	124	13
40	40	5
174	174	10
108	109	5
5	6	6
101	101	1
9	9	17
34	50	1
119	119	17
45	45	6
108	108	3
59	59	7
19	20	4
143	144	1
104	124	7
39	50	2
33	90	1
68	96	5
53	93	4
148	148	6
92	92	7
101	102	4
65	66	3
116	116	15
32	32	12
29	30	5
101	119	3
8	9	7
28	28	4
102	115	7
81	83	4
146	146	15
2	2	16
91	93	9
94	95	3
171	171	6
111	111	13
86	95	2
1	1	9
120	120	6
17	17	5
87	87	3
58	62	3
150	150	25
144	144	12
125	125	5
103	106	5
112	112	9
123	125	2
153	168	5
105	122	3
53	53	5
59	110	6
82	82	22
34	35	3
126	126	6
57	65	2
140	140	8
160	160	9
136	136	5
157	157	11
90	91	3
74	76	3
55	55	20
102	104	2
121	122	2
179	179	5
52	52	6
127	128	5
127	127	5
53	54	2
136	175	2
104	104	16
94	97	5
33	33	10
19	22	3
173	174	9
29	29	4
124	125	7
151	151	5
27	27	16
107	107	11
86	87	1
111	113	9
145	145	5
65	103	3
117	117	5
153	153	8
155	167	1
168	170	2
89	89	5
72	74	4
180	180	10
84	85	4
20	20	12
135	135	8
165	166	5
13	13	5
7	8	1
103	104	2
110	110	3
91	92	6
66	66	6
75	75	5
136	177	3
62	62	9
57	57	7
78	79	1
16	17	5
158	158	6
115	115	11
122	122	7
33	52	7
36	36	10
109	109	17
0	1	2
80	81	6
124	171	4
96	96	9
80	95	3
80	80	10
143	143	8
106	106	9
168	168	10
55	57	3
73	73	4
25	25	5
105	123	1
58	63	3
8	8	14
162	162	3
79	79	11
145	166	1
179	180	2
138	138	17
64	66	7
123	123	5
178	178	10
139	139	8
134	134	10
92	93	2
42	44	4
24	24	9
59	61	9
151	172	2
175	175	7
16	16	2
38	42	3
34	89	1
55	56	2
19	19	1
31	31	2
141	141	4
130	168	3
59	157	2
30	30	15
133	133	11
58	61	2
50	50	6
60	60	4
120	121	3
15	15	9
131	154	7
35	40	5
3	4	8
167	168	1
61	61	9
79	80	2
59	60	2
155	165	2
141	144	2
133	137	2
3	3	4
104	106	6
93	93	4
63	63	5
164	165	3
123	124	3
169	170	6
151	173	5
142	142	8
116	121	3
43	43	10
119	120	3
101	117	1
10	27	1
42	42	5
169	171	2
68	102	6
14	14	4
168	169	1
174	176	2
59	126	2
39	39	7
163	163	11
113	114	1
38	39	6
71	71	7
114	114	5
134	135	2
39	40	3
108	171	4
63	127	5
6	7	3
35	87	3
68	70	4
134	176	1
112	113	3
62	110	2
4	12	2
121	121	9
83	97	5
52	88	1
12	12	9
31	32	2
40	51	1
173	173	6
137	138	2
56	57	4
118	121	1
171	173	2
93	94	1
38	38	11
129	173	6
64	64	4
1	2	2
148	150	3
123	172	1
159	160	8
10	10	5
55	70	5
133	134	4
141	143	3
158	159	4
150	170	3
21	21	4
130	131	2
85	86	3
35	50	2
54	54	3
78	78	2
178	179	2
137	137	1
51	52	5
3	12	4
141	142	1
60	157	1
130	130	9
17	19	2
129	129	3
80	87	1
72	75	2
5	27	2
106	107	1
19	44	1
11	12	1
73	74	7
5	10	4
66	103	1
161	161	7
98	98	6
30	31	5
125	126	1
142	143	3
147	147	4
16	22	6
75	77	2
67	68	1
44	44	4
104	105	3
116	118	3
135	175	2
155	156	1
156	171	3
4	4	4
41	42	2
87	88	2
50	88	2
57	58	4
151	152	2
126	130	2
135	139	2
99	99	4
37	44	1
34	34	7
41	41	6
84	84	2
82	83	1
163	166	1
2	3	1
104	112	1
68	68	6
103	105	2
24	26	2
76	77	1
132	133	1
173	176	1
169	169	1
35	36	7
18	18	2
165	165	8
125	155	1
61	110	3
154	154	3
4	11	3
97	97	5
167	169	2
59	63	2
91	94	2
62	64	1
95	95	3
88	89	1
164	164	5
61	62	8
81	81	2
11	13	1
142	146	2
2	12	2
13	14	3
128	129	1
118	119	2
56	56	3
62	112	1
96	97	1
147	169	2
10	12	1
142	145	2
121	123	1
64	65	1
155	155	2
67	67	2
137	139	1
90	90	3
86	86	2
160	161	1
105	107	1
151	168	2
18	19	2
74	74	1
144	165	2
113	118	1
88	88	3
66	67	1
77	78	2
177	177	2
9	28	1
23	24	1
98	102	1
169	172	1
154	172	2
34	51	1
111	112	2
40	41	1
14	15	1
89	94	1
119	121	1
129	172	2
103	103	2
43	44	3
15	18	2
107	124	1
125	129	2
124	130	3
4	13	1
135	140	3
147	166	1
95	96	2
131	134	2
60	61	1
2	4	4
126	157	1
129	174	1
129	153	2
24	25	1
29	33	1
130	172	1
159	159	1
148	170	1
70	70	1
148	151	1
81	98	3
54	55	1
65	113	1
84	86	1
175	176	1
58	126	2
107	114	1
94	94	1
3	11	1
157	158	3
41	43	1
21	22	1
16	18	1
32	33	1
109	110	1
136	178	1
53	94	1
4	5	1
131	153	1
108	117	1
129	130	1
15	45	1
107	123	2
