109	110	6
125	125	16
81	89	2
123	123	8
130	130	16
11	11	11
17	17	14
100	100	4
24	93	4
95	95	7
34	34	8
132	132	4
20	41	2
73	73	4
98	98	6
126	126	10
76	77	1
77	77	1
75	76	5
91	92	1
5	5	3
18	21	1
48	76	3
41	41	12
2	2	7
1	5	3
52	68	4
94	95	3
142	143	2
89	89	3
30	30	9
29	29	4
71	71	11
50	69	2
80	81	3
83	84	6
120	120	13
47	79	3
49	49	15
14	14	5
27	27	18
19	19	7
81	82	3
92	92	11
95	96	6
2	20	4
102	103	8
111	111	3
6	6	4
128	129	5
58	59	5
60	60	12
22	22	13
95	111	1
48	93	1
63	63	6
14	16	7
68	68	9
39	39	3
99	112	1
112	112	4
17	18	2
124	124	7
128	128	5
118	119	3
71	72	2
48	78	1
12	12	1
21	21	7
48	48	6
50	50	8
9	9	6
66	78	3
54	55	3
75	75	12
42	42	3
15	15	7
38	38	14
142	142	9
127	127	4
58	58	8
23	48	1
96	96	4
57	57	2
24	25	7
32	32	9
103	103	9
61	61	10
55	55	12
105	106	4
97	97	5
70	71	4
85	85	11
129	129	3
140	140	13
138	139	3
51	51	3
91	91	14
25	26	6
122	122	7
37	37	3
127	133	2
2	3	1
97	105	2
29	30	1
90	91	3
110	111	5
9	59	3
131	132	10
94	94	2
3	21	3
119	119	5
74	74	3
70	70	8
133	134	1
20	21	3
64	64	4
1	1	5
79	81	2
40	41	4
63	65	3
123	124	1
5	6	2
116	117	2
120	121	10
84	85	3
28	30	2
67	67	10
26	26	4
108	108	4
138	138	3
133	133	3
54	56	3
81	81	9
127	131	1
72	72	13
28	28	9
136	138	4
62	62	4
107	107	2
21	22	5
98	101	8
14	18	1
47	48	1
0	0	5
82	82	1
49	50	4
65	65	3
145	145	2
91	112	3
35	35	4
97	103	4
126	132	4
4	4	1
62	64	2
98	107	4
115	115	4
23	93	4
32	33	2
63	64	1
134	134	4
13	13	1
121	121	9
38	39	3
136	143	1
22	61	1
104	104	3
67	68	2
71	84	4
14	15	3
122	123	4
144	144	4
40	40	6
54	54	6
135	135	7
65	66	2
136	136	2
102	102	2
25	25	3
137	138	2
96	97	1
132	133	5
24	36	1
101	105	2
79	79	4
36	36	3
52	52	1
34	92	2
53	53	9
100	136	2
12	13	3
77	79	1
73	74	1
117	118	3
50	51	2
135	136	6
105	105	2
87	87	4
93	93	2
124	142	1
89	90	6
118	118	4
83	83	1
62	77	2
49	67	3
59	59	6
117	117	4
106	107	2
59	60	1
141	142	4
31	92	1
29	119	2
67	69	4
99	99	2
66	66	4
59	61	4
108	135	3
31	93	1
135	137	1
113	115	1
95	110	1
18	19	4
3	3	2
41	42	1
26	35	2
141	141	2
84	84	1
69	69	2
105	109	1
80	80	5
10	10	2
98	105	2
27	35	1
52	53	3
22	23	1
111	113	1
15	17	1
76	76	1
91	114	1
101	139	1
106	108	2
39	40	2
93	115	2
100	139	1
56	56	2
62	63	4
73	82	2
61	77	1
137	137	1
21	43	2
88	88	3
139	139	1
112	114	1
143	144	2
130	131	2
114	115	2
139	143	1
27	37	3
87	95	1
78	79	1
33	92	1
92	114	1
33	36	1
8	8	1
23	25	1
112	113	6
24	33	1
20	20	1
143	143	1
109	109	1
43	43	1
129	135	1
33	35	1
26	27	2
106	106	4
18	18	2
145	146	1
116	123	1
51	52	2
16	16	1
56	57	2
125	140	1
6	10	1
48	80	1
27	28	1
54	65	1
15	16	1
99	102	1
146	146	1
86	86	1
29	32	1
47	47	1
