61	76	3
41	51	2
62	63	7
33	33	13
55	65	2
69	74	2
49	49	11
76	76	4
42	42	12
32	32	6
27	28	5
60	60	5
59	59	6
39	40	2
60	76	2
50	54	4
53	57	2
44	44	8
65	67	3
56	71	5
25	33	1
34	43	2
2	34	3
0	10	1
56	77	3
53	54	7
48	61	2
24	31	4
50	66	4
55	58	1
74	74	5
7	7	2
62	62	6
8	11	2
48	48	3
36	39	1
1	9	2
70	75	4
71	73	5
28	44	2
70	70	2
64	76	1
64	64	4
75	77	3
24	24	6
56	73	4
11	11	6
51	52	5
30	37	3
64	66	4
50	55	2
30	38	3
38	39	4
71	71	11
9	12	2
35	47	6
12	12	6
59	72	2
40	41	3
72	74	4
30	30	3
72	73	3
5	8	4
46	57	1
33	46	6
23	34	1
9	9	5
51	51	9
3	5	4
69	70	2
0	6	2
70	71	4
45	61	3
59	61	4
66	74	2
21	21	5
29	36	6
49	52	2
48	57	2
2	2	6
73	73	4
8	8	5
37	41	5
30	35	2
43	43	6
35	35	3
11	12	4
59	60	2
63	67	5
34	38	4
56	56	7
6	6	3
3	38	3
1	5	2
39	44	1
37	37	6
51	53	5
51	54	4
29	44	3
38	52	4
28	28	4
46	46	5
53	56	4
48	71	4
13	14	2
38	44	1
36	50	1
18	19	3
20	25	4
38	38	5
77	77	9
13	13	7
47	47	3
70	73	5
56	59	1
66	67	2
22	22	4
75	75	5
63	77	2
4	11	3
39	43	1
58	58	8
1	4	4
68	74	2
55	57	5
29	29	5
25	32	3
3	7	1
54	59	5
68	68	4
30	43	3
3	26	3
61	61	4
5	7	2
26	27	4
59	63	1
57	68	2
50	65	3
52	52	5
36	38	3
62	73	2
10	11	5
61	63	1
53	55	1
55	56	2
44	45	5
49	50	5
34	47	3
46	50	2
50	50	4
22	44	1
56	58	1
29	40	1
56	57	1
22	25	3
49	51	4
69	73	1
34	35	1
42	50	2
40	45	1
18	22	2
63	73	4
74	75	2
29	30	4
47	56	2
34	34	4
23	25	1
59	74	2
23	32	2
30	40	1
72	72	2
37	50	2
60	61	3
18	20	1
1	10	2
23	24	4
67	76	1
29	31	2
31	37	3
66	69	1
40	50	2
49	57	2
26	26	1
45	51	3
3	3	1
56	63	2
44	64	4
38	56	3
1	1	6
65	66	1
20	43	1
27	38	3
5	5	4
44	50	1
37	43	2
32	46	1
21	22	1
1	8	2
8	9	2
33	36	3
31	47	1
41	62	1
60	73	1
22	31	1
45	64	4
55	66	2
40	52	7
45	45	5
66	68	2
28	31	1
46	56	1
38	42	5
49	63	3
10	10	9
29	38	1
32	41	2
24	33	1
63	63	4
60	63	1
61	62	2
28	39	1
9	13	2
49	56	2
23	39	3
2	9	1
52	68	1
73	75	1
41	46	1
73	74	1
6	24	1
46	48	1
28	41	1
36	48	2
10	13	3
20	20	1
53	67	1
55	63	2
40	40	3
63	65	3
55	64	4
55	72	1
30	41	1
51	61	1
19	31	1
41	55	1
40	46	2
76	77	3
67	71	1
70	72	2
54	57	2
22	33	1
1	6	2
19	24	1
6	10	1
57	61	5
54	74	1
35	39	1
20	31	2
73	76	2
53	53	3
56	65	1
3	50	2
66	66	2
36	36	1
29	42	1
63	76	1
48	59	1
43	49	2
50	68	1
50	64	1
58	59	2
0	0	1
45	50	1
9	11	3
65	65	2
19	19	1
43	65	2
35	38	1
54	54	1
59	66	1
50	56	1
43	51	1
57	73	2
67	67	1
31	31	1
64	67	1
12	13	1
74	76	1
61	69	1
48	49	1
19	28	1
24	41	1
71	77	1
2	4	1
