94	94	7
98	98	2
80	125	5
3	39	3
82	82	3
121	121	9
7	8	1
19	21	2
107	113	1
124	125	5
61	129	4
116	120	1
34	34	11
31	46	2
45	131	3
5	5	17
59	68	2
28	28	12
72	72	5
87	97	1
57	58	8
1	13	5
44	44	9
66	67	7
130	131	2
86	91	2
19	19	6
91	91	3
65	65	4
111	111	12
64	64	6
83	84	4
63	63	7
57	57	9
61	61	4
78	92	1
101	111	1
47	47	14
62	66	3
111	113	3
2	2	5
0	7	3
36	37	3
8	11	3
76	79	2
27	29	2
93	99	3
100	110	3
117	118	8
21	21	16
114	114	3
115	129	2
97	104	1
11	18	2
100	107	5
35	35	3
7	25	3
83	87	4
32	46	5
18	18	12
93	94	2
62	62	5
18	91	3
76	78	2
21	23	2
19	36	3
127	128	5
123	125	1
11	13	2
97	97	7
127	127	7
89	110	1
14	15	4
99	99	7
115	116	3
27	27	8
31	31	10
130	130	8
87	88	3
112	113	3
12	13	2
55	55	2
56	57	3
6	6	10
117	117	6
15	30	3
65	66	5
112	127	2
96	96	2
14	18	5
67	95	1
95	95	9
108	108	7
41	42	4
25	29	4
29	29	4
41	132	2
15	16	3
20	21	7
35	41	4
60	68	2
3	11	7
100	100	5
102	102	6
71	71	13
9	9	12
124	128	2
130	132	1
5	45	1
119	131	6
11	20	3
15	15	3
49	49	3
11	11	7
76	83	1
105	105	3
100	101	1
81	81	8
77	118	4
33	34	6
133	134	1
13	13	7
58	59	5
4	4	9
42	42	12
103	111	1
20	23	4
114	134	3
11	12	4
103	103	4
119	120	6
25	36	2
112	114	3
72	73	3
106	113	4
75	76	2
73	86	1
25	25	6
86	86	5
96	97	1
4	20	2
76	76	15
27	28	3
77	107	1
1	4	4
123	131	2
10	11	2
36	47	1
41	44	9
125	128	2
120	120	8
124	133	3
13	38	3
61	64	2
45	47	2
56	56	9
55	133	2
61	86	2
87	87	6
4	18	4
17	18	8
99	121	2
39	39	7
65	69	2
102	107	1
23	33	1
39	45	3
129	130	3
99	102	2
99	114	3
24	39	3
110	131	1
17	19	7
57	64	2
88	104	1
30	36	1
41	47	3
114	121	2
82	83	2
92	95	4
45	107	2
56	110	1
2	10	2
38	60	1
110	111	5
90	93	4
106	110	4
43	43	4
108	126	3
91	94	6
106	107	4
126	133	2
11	134	5
70	82	4
77	77	13
125	126	8
46	46	2
42	43	3
80	80	3
39	49	2
92	93	1
36	40	1
35	45	2
45	45	9
84	88	1
107	107	4
114	122	3
40	40	2
35	48	2
3	18	1
113	121	1
57	69	2
102	104	2
68	68	6
41	126	2
95	103	3
2	38	1
12	12	12
27	38	3
43	44	2
20	79	2
99	104	2
82	88	5
124	124	1
112	112	9
73	73	2
98	110	1
50	78	4
121	131	3
126	126	4
1	44	4
8	8	12
92	92	6
6	108	1
23	23	5
120	123	2
29	31	2
27	36	2
127	129	2
87	109	2
33	44	1
125	127	3
8	19	1
80	84	4
7	13	1
90	98	1
130	133	2
125	125	3
95	97	1
1	1	3
20	22	5
33	33	2
116	116	7
64	133	1
98	100	2
82	84	1
36	38	4
2	11	1
55	57	1
3	4	2
42	131	6
39	40	4
110	126	3
61	71	6
76	119	1
35	37	2
90	91	1
131	132	4
74	74	2
9	26	2
17	20	2
128	128	3
128	129	1
60	60	1
131	131	5
103	107	1
4	36	1
70	70	1
68	74	1
48	48	5
16	93	1
28	33	2
8	10	1
80	85	3
66	66	3
16	16	7
79	84	1
93	103	2
35	39	3
107	109	3
111	128	3
91	121	1
10	33	2
17	17	4
3	6	2
38	38	2
42	50	1
40	41	1
113	127	2
76	77	3
26	26	3
84	87	2
96	113	1
93	93	2
7	7	3
80	87	1
18	19	5
36	36	3
119	119	3
110	125	3
99	105	1
83	83	3
11	19	2
99	110	4
13	134	2
65	67	1
75	75	6
45	48	3
27	31	1
75	77	4
84	85	2
42	44	2
15	17	2
25	28	1
133	133	3
62	64	2
64	69	1
132	132	6
94	95	2
81	113	2
80	81	1
14	14	3
115	115	1
25	31	3
95	99	2
25	26	6
99	101	1
70	78	1
39	44	2
14	134	3
56	58	1
89	89	3
35	49	1
88	89	1
87	113	1
38	48	1
76	86	1
70	71	1
14	17	1
68	70	3
102	112	4
85	86	1
4	5	4
79	105	9
59	60	3
115	117	2
108	110	2
2	133	1
79	79	3
71	72	1
85	85	5
79	86	2
41	43	1
108	111	1
90	108	5
59	59	4
50	88	2
82	85	1
28	29	6
6	29	1
104	104	3
107	110	2
95	101	1
65	119	2
63	64	1
2	3	2
124	126	3
95	96	1
109	110	6
10	122	2
44	45	1
24	24	1
61	62	2
29	30	1
37	37	2
118	118	3
88	88	2
78	78	4
101	101	1
58	58	1
47	48	2
32	32	2
107	120	1
26	31	1
83	88	1
120	121	1
81	91	2
24	27	1
81	97	1
10	10	1
70	74	2
18	24	2
66	79	2
97	99	1
42	127	2
8	26	1
118	124	1
77	82	1
90	90	1
96	98	1
39	42	1
92	105	2
51	55	2
18	20	1
37	38	1
114	124	2
127	131	4
21	81	1
113	113	2
69	69	2
23	24	1
22	22	1
79	80	2
111	118	3
44	61	1
20	20	1
56	88	1
32	34	1
2	5	1
69	72	1
95	113	2
129	131	1
51	51	1
102	114	1
129	129	1
34	62	1
119	127	1
70	124	1
4	34	2
81	84	1
60	66	1
110	110	1
64	65	1
91	92	1
12	43	1
117	119	1
112	123	1
44	49	2
121	122	1
127	130	1
17	21	1
3	91	1
84	84	2
32	33	1
116	119	1
14	22	1
17	22	1
57	109	1
99	100	1
30	31	1
39	62	3
12	19	1
122	122	1
114	133	1
38	39	1
84	93	1
9	10	1
28	69	1
104	108	1
89	94	1
83	107	1
1	19	1
65	121	1
35	38	1
117	120	1
12	20	1
32	36	1
2	4	1
95	109	1
15	21	1
92	97	1
9	12	1
