100	100	12
115	119	1
76	76	25
71	71	9
0	0	14
74	161	2
155	156	7
79	79	14
38	38	10
147	147	30
130	130	15
37	38	10
10	10	10
12	66	6
46	46	15
98	130	6
28	28	12
76	77	16
150	165	5
117	119	3
78	110	1
80	95	1
25	44	5
52	53	17
130	131	7
70	70	12
5	5	31
132	141	3
154	155	12
3	3	13
161	161	10
120	146	4
20	20	14
6	7	10
160	160	17
169	169	11
115	136	3
40	40	11
119	119	6
88	88	24
94	94	13
128	128	19
167	167	7
145	170	1
102	102	25
96	98	2
91	109	2
119	120	8
15	15	21
107	107	10
90	90	14
116	116	10
56	123	2
67	67	26
7	7	2
133	133	24
78	96	1
63	68	2
24	24	17
113	113	11
43	43	30
2	2	28
23	24	3
108	108	25
129	165	5
47	108	1
149	161	2
121	121	8
98	98	16
149	149	12
34	116	2
79	138	5
5	22	1
123	124	7
143	143	8
147	167	1
153	153	15
22	23	9
39	39	32
8	15	3
83	83	13
65	69	2
99	148	2
124	124	22
114	114	8
123	123	12
136	136	20
168	169	3
47	47	21
6	6	5
146	148	8
18	18	9
122	122	15
73	73	17
7	8	8
123	133	3
50	58	4
51	53	3
141	141	5
97	99	3
153	154	9
82	83	14
15	88	2
8	119	3
62	62	15
67	166	3
105	133	4
12	12	15
86	88	3
86	86	8
54	64	2
54	73	4
97	97	14
8	33	2
14	14	17
100	103	8
41	41	7
76	78	5
93	96	3
126	151	3
167	168	5
53	64	3
62	71	6
161	162	3
93	93	20
108	113	2
55	56	2
135	136	4
92	126	1
16	16	13
91	91	19
135	135	6
0	3	2
162	162	23
147	169	2
125	125	18
40	46	3
78	78	15
143	145	5
14	15	4
158	170	2
62	63	7
88	89	10
5	20	4
125	126	1
166	169	4
157	157	15
125	127	3
93	94	4
138	138	28
151	155	1
72	73	2
96	147	8
36	36	8
49	50	4
78	79	11
102	103	6
108	109	7
4	48	3
23	23	28
27	71	1
145	145	22
90	91	4
109	109	10
66	66	11
77	77	15
8	9	7
154	154	10
65	65	8
72	72	5
149	158	1
111	120	1
139	140	7
9	116	2
117	134	4
3	16	4
85	85	14
18	40	2
21	21	10
124	132	1
133	135	4
81	81	11
165	165	14
10	12	5
74	75	6
105	105	12
25	45	2
51	51	12
16	27	2
84	84	22
121	131	5
63	63	13
13	14	4
63	143	1
106	106	9
134	134	9
40	41	11
124	126	6
126	126	5
101	105	1
140	141	4
80	80	13
34	34	25
11	11	10
50	50	7
56	56	10
47	48	7
69	69	11
85	124	4
80	158	3
79	96	2
159	159	16
93	114	1
46	109	1
129	129	3
57	118	2
54	54	15
145	149	3
163	163	3
112	120	5
99	99	18
9	23	5
57	71	4
164	164	3
5	6	1
87	121	4
13	13	28
146	146	16
61	71	4
89	89	19
17	18	1
8	8	15
26	27	2
8	10	4
106	107	9
168	170	9
76	132	3
9	9	11
64	90	2
26	28	5
4	52	2
50	57	2
27	69	6
111	111	15
34	35	6
80	87	2
3	7	2
52	52	13
64	71	1
95	96	5
75	109	3
58	74	2
95	148	5
35	35	7
104	116	1
145	151	1
18	65	2
106	159	1
107	117	3
154	164	1
64	75	1
50	52	6
166	170	6
33	76	7
103	104	10
121	146	1
10	119	1
4	4	13
67	68	6
79	83	3
58	63	5
69	117	1
127	130	2
165	166	5
95	154	2
150	150	10
18	19	5
35	109	2
77	78	2
1	1	14
101	117	1
8	57	2
108	116	2
35	64	4
47	49	7
137	137	16
79	162	1
119	134	2
68	74	1
66	163	1
163	165	2
79	80	4
131	131	12
155	155	21
53	53	16
54	62	6
41	73	4
91	110	6
123	138	8
141	142	3
27	27	12
3	112	3
89	90	1
142	142	11
38	159	3
44	46	3
85	123	2
134	135	5
11	119	4
55	63	4
10	11	3
87	113	2
43	135	3
67	73	1
10	21	3
53	68	4
33	38	2
28	88	1
67	122	2
2	63	2
33	33	7
97	168	1
79	124	5
11	14	1
125	135	1
25	25	9
0	8	1
104	115	2
131	132	4
9	10	6
49	49	17
37	65	2
168	168	11
98	99	6
137	139	4
119	136	3
1	87	1
40	63	3
8	62	3
46	47	5
108	114	7
58	62	1
0	5	4
104	104	7
13	57	2
81	129	2
146	165	3
148	148	8
37	73	2
19	19	6
150	153	1
39	43	3
122	134	2
150	151	6
84	96	4
140	140	13
36	37	2
12	38	1
103	103	8
22	33	2
39	63	3
64	64	11
62	91	2
20	22	3
106	116	1
37	37	12
128	129	6
122	128	2
133	134	3
139	139	2
122	155	3
132	132	16
8	19	2
39	40	6
17	126	2
25	141	4
121	170	1
136	138	3
79	137	2
94	117	1
143	151	3
73	91	1
137	138	11
42	56	1
47	54	1
18	69	4
39	73	5
44	45	7
65	70	4
101	102	4
88	108	2
24	53	1
135	166	2
103	119	2
158	158	8
19	21	1
10	57	2
163	164	5
86	101	2
132	149	2
100	101	1
6	47	8
90	110	4
117	117	9
20	21	1
26	57	6
5	39	2
33	98	5
120	120	25
146	147	11
151	152	6
38	51	2
80	84	2
87	87	8
146	167	3
126	138	1
69	166	5
22	42	4
130	134	4
131	144	2
5	8	2
4	20	2
11	80	5
64	116	3
95	95	11
169	170	7
28	39	5
97	98	7
157	158	3
74	89	1
101	119	2
63	64	2
99	100	2
63	142	3
17	17	11
127	127	10
94	123	2
7	14	1
166	166	13
77	92	8
16	51	1
18	34	4
6	16	2
149	152	1
128	133	4
55	55	13
97	102	2
10	114	2
126	131	9
22	22	5
106	118	3
113	133	4
34	40	7
121	165	2
11	12	5
92	93	4
79	160	3
19	20	9
1	3	4
101	112	1
0	36	1
20	42	4
162	163	8
34	136	2
90	127	2
147	162	1
67	75	3
82	82	7
142	170	1
69	77	1
81	82	7
87	103	1
48	48	4
138	170	3
54	55	5
81	93	1
43	48	1
148	149	3
17	20	3
112	112	12
41	71	2
81	153	3
86	103	3
144	144	6
89	96	2
123	137	5
140	152	1
91	93	3
145	166	3
138	140	3
110	110	4
101	118	3
151	158	1
4	47	2
152	153	4
18	42	3
137	140	5
98	100	2
74	166	3
69	118	2
7	27	1
116	119	1
125	133	3
137	150	1
109	114	2
0	18	4
103	147	2
92	92	5
146	156	2
24	141	1
19	34	2
8	12	1
23	27	2
6	8	4
75	115	2
105	116	2
121	129	2
105	135	2
147	166	2
115	115	6
12	87	3
134	136	3
86	132	1
67	88	1
12	116	5
49	51	4
115	116	2
112	113	6
151	154	3
43	45	2
166	168	3
54	142	2
68	166	2
35	37	1
27	140	1
24	44	4
37	41	1
103	133	3
145	147	1
65	66	5
89	108	3
49	57	2
33	80	1
64	110	1
92	115	3
159	170	2
124	125	4
79	123	1
88	110	4
110	111	3
69	70	11
26	26	12
76	118	3
122	125	3
113	114	5
20	86	2
120	122	3
124	142	2
15	16	3
2	35	1
67	101	9
62	64	2
68	68	4
35	36	2
82	85	5
16	17	3
137	151	4
124	151	2
93	127	3
20	23	2
99	114	3
151	151	9
100	146	10
66	71	4
116	136	1
109	110	6
63	93	2
46	48	2
0	1	8
82	86	7
87	100	2
126	132	6
128	134	2
84	144	1
100	135	3
125	132	2
5	38	3
71	72	6
68	163	1
136	137	2
144	145	6
100	112	1
66	67	5
80	83	4
85	139	3
91	118	2
84	157	4
7	19	1
158	160	2
57	62	1
101	115	4
44	44	6
62	72	4
138	139	4
83	84	2
110	113	2
92	117	2
78	104	3
43	133	2
12	114	5
102	104	4
118	118	6
70	109	1
79	87	3
122	123	2
69	110	2
19	22	3
146	162	5
21	24	1
100	114	1
112	133	1
106	119	1
2	3	3
87	117	7
42	42	9
9	62	6
41	42	2
53	63	1
83	122	3
123	145	1
45	105	3
83	85	2
104	112	2
21	22	8
19	87	2
118	157	1
75	75	13
151	153	1
104	114	3
103	124	1
69	91	1
123	140	3
79	122	6
53	65	1
43	46	1
89	94	1
44	48	2
77	118	3
75	108	3
94	156	1
4	5	1
53	55	2
91	115	2
56	142	2
91	92	2
100	131	3
9	14	1
104	113	2
101	101	3
99	143	2
127	133	1
75	89	3
7	10	1
146	153	3
128	155	2
1	116	1
54	63	1
100	102	1
105	106	8
27	47	2
56	57	1
23	99	1
76	92	2
75	88	4
57	124	4
87	88	2
9	151	1
102	113	1
31	57	1
35	70	2
38	156	1
47	112	4
154	156	2
99	136	2
80	81	3
70	75	1
87	118	2
89	97	2
27	125	2
97	108	2
146	149	2
129	130	5
24	55	5
5	125	3
123	128	3
55	62	2
128	150	2
112	115	1
66	68	1
88	91	3
159	160	3
70	91	1
77	116	2
110	117	2
81	91	1
6	19	5
93	116	5
2	6	2
87	94	3
12	119	1
130	152	2
154	158	2
58	119	2
87	107	1
51	52	5
8	13	1
118	134	1
91	119	1
36	43	3
45	45	6
81	108	1
12	13	1
76	123	1
139	141	2
132	147	3
77	104	2
108	119	1
20	24	5
82	122	1
170	170	3
3	6	3
106	130	4
98	137	1
26	44	3
63	141	2
97	103	1
91	124	3
34	83	1
42	45	1
147	149	2
159	165	2
1	18	2
107	159	1
2	36	1
156	156	9
5	7	2
38	39	1
51	73	1
87	132	2
114	121	1
96	97	4
15	115	1
76	116	2
112	114	1
12	42	1
156	157	5
83	90	1
86	90	1
81	152	2
83	86	5
9	12	1
144	168	3
34	76	3
98	149	1
90	109	1
145	146	1
99	103	2
79	159	2
152	154	2
101	103	3
7	12	2
91	114	2
129	133	1
127	151	1
105	136	1
80	157	1
50	51	1
152	152	8
160	169	1
10	139	1
57	64	1
166	167	2
54	74	1
111	114	2
22	24	1
165	167	3
108	110	1
133	136	1
7	57	1
130	170	1
43	44	2
78	88	2
97	149	1
6	52	1
149	150	3
4	27	2
126	127	4
58	123	1
148	169	1
82	90	1
76	110	1
9	97	2
24	25	1
142	143	3
49	52	2
18	38	1
25	54	2
57	57	2
6	51	1
144	164	3
135	137	1
58	58	1
86	120	3
124	133	1
11	53	1
41	56	2
90	150	1
74	74	2
65	67	2
66	146	1
78	128	1
94	95	1
84	85	2
121	122	1
18	77	2
82	92	1
118	119	4
79	121	4
8	21	1
68	72	1
120	121	3
62	119	1
86	121	1
101	116	1
66	74	1
140	142	3
7	15	1
164	169	3
101	106	1
142	144	1
122	133	2
25	53	3
66	76	1
6	28	1
92	94	2
77	131	2
34	70	2
13	17	1
50	56	1
112	132	1
39	62	1
108	115	1
17	22	2
138	141	1
10	16	1
89	123	1
97	152	2
13	21	1
81	124	2
104	108	2
16	52	1
130	132	1
81	83	1
85	122	1
11	109	1
74	110	2
96	96	2
105	115	2
10	56	1
147	168	1
10	115	1
70	92	1
18	119	1
15	27	3
84	90	1
147	148	3
66	70	1
63	72	1
76	109	1
79	114	1
157	161	1
53	66	1
153	158	1
86	107	1
57	61	1
68	69	1
89	92	1
80	139	1
97	100	1
95	138	1
45	49	2
82	84	1
83	127	1
154	159	2
142	168	1
104	105	2
69	134	1
129	144	1
132	133	1
65	72	1
3	38	1
18	27	1
6	72	1
9	119	1
156	170	1
81	156	2
122	126	1
76	100	1
148	170	1
7	119	1
12	41	1
26	56	1
68	134	1
54	58	1
87	93	1
87	115	2
10	35	1
5	46	1
80	122	1
149	169	1
42	71	1
74	90	1
88	134	1
75	107	1
17	28	1
35	76	1
122	165	1
3	33	1
42	74	2
164	167	1
161	164	1
99	165	1
21	23	1
127	131	1
111	118	1
14	51	2
42	75	1
56	71	1
80	94	1
66	88	1
165	170	1
123	144	1
