102	130	2
95	110	5
121	132	1
106	124	1
104	104	8
145	147	2
157	157	10
69	77	3
19	32	3
94	94	2
24	24	4
2	2	5
123	127	1
38	39	2
139	151	1
54	54	10
87	87	9
88	105	2
123	123	2
75	75	5
157	158	3
68	70	4
144	144	2
142	145	2
32	32	2
155	155	2
25	25	13
126	129	2
11	12	5
17	17	5
126	157	2
119	119	12
95	95	1
101	127	3
158	159	4
121	121	1
154	154	4
89	107	4
12	20	1
123	159	2
88	119	1
100	100	2
84	92	3
37	37	3
12	104	2
38	38	3
9	17	2
131	131	7
150	150	2
4	4	7
128	128	1
41	41	5
96	96	6
21	30	2
69	88	1
95	96	1
48	48	1
44	47	2
119	122	1
48	50	1
73	73	3
86	108	5
9	10	2
151	151	2
45	57	2
144	150	2
132	136	2
73	76	1
111	114	2
84	85	3
129	139	1
87	127	1
109	109	5
12	38	3
112	112	8
135	135	2
23	24	3
44	44	4
34	35	3
78	78	1
87	124	1
93	93	6
47	47	5
29	29	4
102	127	2
40	43	1
71	71	2
14	14	4
128	140	3
5	6	1
28	28	1
35	38	1
86	86	7
83	84	4
10	10	1
36	37	3
109	110	13
7	7	1
116	117	6
8	10	2
117	117	2
0	137	1
124	126	1
26	73	2
3	3	2
51	95	1
101	102	5
89	125	1
141	141	1
130	131	3
88	89	4
51	65	1
67	67	7
65	65	5
146	150	1
27	27	4
6	11	5
15	15	2
122	122	9
4	11	3
36	110	4
34	71	1
45	47	2
83	85	2
22	25	7
34	46	2
68	71	3
44	56	1
37	67	2
30	32	1
53	53	5
132	132	4
73	77	2
140	141	2
136	136	2
142	142	3
131	132	3
23	23	4
18	31	4
41	42	2
134	140	2
82	82	3
126	126	3
14	15	2
115	115	1
20	42	2
83	90	1
112	118	1
85	85	4
133	134	1
123	155	3
150	151	1
37	93	3
9	9	1
126	156	2
18	107	2
137	137	2
118	119	1
85	93	1
148	152	1
41	115	1
78	101	6
110	113	4
158	158	1
0	4	2
127	129	5
39	72	1
131	136	1
13	19	1
120	122	3
112	117	1
127	130	2
127	140	1
80	81	3
38	43	1
4	5	2
8	11	3
54	55	2
51	53	1
48	49	2
89	89	2
21	41	3
92	94	1
139	139	3
15	18	3
13	37	1
106	121	1
147	149	3
16	16	3
17	114	1
66	66	1
18	18	4
13	14	1
133	133	5
87	106	1
159	159	3
51	64	3
40	40	2
63	63	1
149	149	2
127	127	2
16	20	1
106	106	1
104	105	1
16	17	2
43	43	3
147	147	3
56	57	2
7	8	2
111	113	1
132	133	3
20	20	1
70	71	4
73	98	1
144	145	1
97	97	2
16	22	1
51	51	2
19	20	1
98	98	1
138	139	1
11	75	2
110	110	3
13	13	2
128	130	1
22	75	1
82	83	2
21	21	1
46	46	2
105	105	1
49	49	3
123	124	2
113	114	1
12	12	1
84	93	1
85	94	1
7	118	1
1	2	1
119	136	1
129	129	3
108	108	1
0	132	1
106	107	1
92	92	2
36	36	4
50	54	1
112	120	1
117	118	1
63	93	2
35	39	2
148	148	2
125	127	1
42	45	1
68	69	1
76	76	2
135	136	3
107	107	3
113	113	1
87	156	1
49	54	1
70	70	1
10	11	1
30	44	1
36	69	1
66	69	2
52	52	1
0	0	1
6	6	1
90	91	1
45	45	2
117	120	2
120	120	1
119	132	1
114	114	1
87	126	3
130	130	1
3	132	1
135	138	1
130	139	1
64	64	1
47	71	2
42	44	1
43	45	1
114	117	1
45	71	1
89	90	1
26	27	1
