56	61	3
173	173	8
137	138	2
52	52	11
85	85	5
102	106	3
65	67	6
80	80	7
76	175	2
105	106	3
84	86	3
10	23	2
122	122	17
194	194	5
11	73	1
157	157	6
88	93	2
114	117	4
12	42	3
100	100	9
74	134	1
156	156	9
119	119	4
118	118	12
38	38	11
146	147	1
81	81	12
18	18	11
113	113	7
84	159	1
131	132	1
54	54	8
21	21	9
136	137	1
101	101	14
4	4	5
17	22	5
103	106	3
82	82	9
191	192	4
75	134	3
34	34	10
94	94	13
47	126	3
111	111	2
147	147	2
174	174	5
46	47	5
139	140	7
94	95	10
122	123	2
5	10	3
33	44	4
142	142	17
26	62	2
10	28	1
105	105	5
145	145	7
108	109	9
102	102	8
98	98	8
40	43	2
123	185	1
72	77	4
63	63	5
11	67	2
123	124	2
166	166	16
134	134	15
153	156	1
165	165	4
117	117	6
137	137	10
3	3	5
171	171	8
5	8	4
25	25	7
187	187	6
43	43	8
113	114	3
7	7	9
191	191	6
150	152	1
30	30	8
33	79	2
65	65	7
160	160	8
163	163	14
11	11	7
181	181	12
165	166	4
51	51	9
100	101	3
151	151	6
42	42	10
162	162	7
93	93	2
5	6	12
195	195	6
187	188	1
190	193	4
55	56	4
98	99	2
153	153	5
24	25	4
155	155	10
67	67	13
1	1	4
13	14	4
102	189	10
67	69	2
103	103	10
116	116	4
118	120	2
108	108	5
175	175	9
55	55	8
142	167	2
71	71	7
16	22	1
43	130	2
74	74	4
102	159	2
138	140	5
22	22	4
83	83	2
115	115	7
12	14	2
121	122	3
14	14	5
129	130	5
5	5	6
8	41	2
196	197	1
177	177	13
176	178	2
154	154	7
175	176	1
179	180	6
66	69	2
23	28	1
131	131	6
170	170	4
8	30	4
179	179	12
120	120	4
182	182	4
178	178	5
102	103	1
193	193	16
93	162	4
47	47	6
141	141	11
176	176	4
57	57	5
88	88	4
89	96	1
149	149	8
53	60	2
27	27	5
171	172	3
68	70	1
47	48	2
0	13	3
70	71	3
12	197	3
135	151	4
56	70	3
123	170	3
140	140	9
110	111	6
19	19	9
20	21	1
17	17	7
87	90	1
127	127	2
78	78	4
138	138	5
59	173	2
31	31	4
45	45	5
53	53	5
9	10	3
186	187	4
180	182	2
169	171	3
24	24	3
21	24	1
87	87	6
183	184	5
2	2	6
95	95	4
35	36	4
189	189	2
85	87	1
184	186	3
164	164	9
69	131	3
123	123	4
121	121	4
44	44	2
114	114	6
65	66	5
11	12	1
159	178	1
133	133	5
41	59	1
33	33	5
0	3	6
66	67	2
148	148	11
195	196	2
37	37	2
159	160	4
50	50	13
62	62	7
167	167	9
196	196	3
137	151	1
77	77	2
138	141	3
38	39	1
61	62	3
136	141	2
41	41	5
139	139	7
124	124	5
160	161	9
197	197	3
132	132	3
15	15	11
48	48	3
141	167	2
40	72	1
141	143	5
95	101	1
184	184	10
36	36	5
152	152	3
172	172	7
73	74	3
135	135	1
20	20	3
101	108	1
66	66	3
186	186	15
172	173	3
86	140	1
60	60	5
180	180	2
20	22	3
17	19	3
54	55	4
33	34	4
84	197	2
6	7	7
153	154	1
86	86	1
185	185	9
96	97	1
88	89	6
188	189	5
143	143	6
89	89	2
104	104	2
131	186	2
16	16	6
10	10	11
73	85	2
86	136	1
93	94	2
85	149	5
145	146	7
17	21	1
73	73	4
128	128	6
72	72	5
160	180	1
56	56	10
159	159	8
12	68	1
16	25	4
75	85	1
51	64	3
183	183	6
141	142	2
35	35	2
183	186	3
126	128	2
112	112	3
146	146	4
127	128	2
161	168	1
84	84	3
111	113	1
39	39	6
37	59	2
97	97	6
52	53	1
150	151	2
153	175	3
71	72	2
124	125	2
64	64	3
76	77	6
139	159	1
96	98	6
31	32	1
56	57	1
125	126	3
154	155	1
80	134	2
25	153	1
161	161	5
34	79	2
122	168	4
129	170	1
6	21	4
168	168	2
115	137	2
75	75	2
96	96	2
28	28	3
190	190	10
90	90	3
29	29	3
70	70	4
69	69	1
1	3	4
168	169	2
78	79	1
7	8	3
10	24	1
118	133	3
74	86	3
191	194	3
87	88	2
176	177	1
93	184	1
6	6	2
79	130	1
184	185	2
24	65	1
126	126	3
1	2	1
106	106	1
17	18	2
76	76	3
105	193	3
17	20	2
59	60	1
188	188	1
144	146	1
32	32	3
33	35	2
158	158	3
49	49	12
105	111	1
109	109	4
130	170	1
158	159	1
161	163	3
136	136	4
4	8	1
61	61	6
63	64	2
82	127	1
8	10	2
51	54	1
28	53	4
13	13	4
125	127	2
190	192	1
109	112	1
8	8	4
90	160	3
50	51	3
0	1	2
80	130	1
78	81	2
36	38	1
139	151	1
26	26	2
9	9	4
135	170	4
102	188	1
132	133	2
117	120	2
121	168	1
22	65	1
170	171	1
190	191	2
12	12	4
128	129	2
133	151	2
16	21	1
42	43	1
86	88	2
174	176	1
101	102	3
87	118	3
170	172	1
23	23	2
100	121	2
109	110	1
185	186	5
116	137	4
161	162	2
54	56	1
101	161	1
130	130	3
153	193	3
142	143	1
131	152	2
165	170	2
108	110	1
105	148	2
40	40	2
45	124	1
105	157	1
99	99	3
34	73	1
149	150	3
41	43	1
95	96	3
169	169	1
53	54	1
165	167	1
75	152	1
53	61	1
0	0	2
163	164	3
131	163	1
111	112	1
37	130	1
9	28	2
114	115	4
84	138	1
115	116	1
14	18	1
181	182	2
144	145	1
35	50	1
125	129	1
61	64	1
70	76	1
68	68	2
124	126	2
107	107	2
64	82	1
85	86	1
56	73	1
134	135	2
114	116	1
165	168	2
99	100	1
26	63	1
19	20	1
55	63	1
145	150	1
78	173	1
72	73	1
122	169	1
160	190	1
15	26	1
138	139	1
9	23	1
8	22	1
68	69	1
30	31	1
119	120	1
40	44	1
25	26	1
