104	104	2
71	71	6
97	97	9
31	32	4
33	33	3
79	80	1
35	35	8
36	36	13
39	40	4
77	111	3
29	29	10
53	55	2
37	37	10
40	40	3
78	79	4
107	108	6
105	105	2
84	84	5
44	44	8
53	53	5
56	56	6
106	106	2
74	74	10
49	49	5
63	63	8
26	32	4
34	35	4
89	89	4
47	48	5
65	70	3
49	51	3
51	51	5
99	99	14
87	88	3
58	58	10
99	100	1
22	24	1
50	51	3
72	72	3
42	111	4
54	54	1
62	67	4
109	109	4
80	81	2
25	76	5
102	102	7
26	26	7
105	106	7
107	107	2
55	56	5
98	98	10
43	43	4
103	103	8
85	85	11
63	69	1
58	59	5
67	68	3
38	38	6
50	50	5
30	30	5
83	83	5
27	28	2
27	27	5
25	26	5
30	31	2
90	90	2
70	70	8
47	47	9
22	22	2
31	31	9
62	62	3
106	108	1
68	68	2
77	77	6
50	85	2
97	100	4
46	46	5
61	95	3
91	109	8
106	107	5
108	108	2
96	101	3
82	82	4
28	28	5
48	48	9
59	59	5
57	58	9
104	106	1
95	95	3
82	83	4
25	25	5
74	75	6
94	94	1
109	110	3
62	70	2
75	77	1
91	92	2
32	32	4
64	64	2
92	93	1
89	90	7
44	45	3
83	111	4
45	45	3
91	91	1
65	65	7
66	70	1
112	112	7
61	68	1
104	105	1
105	107	4
60	60	5
102	103	1
57	57	7
26	27	5
60	61	4
35	67	1
71	73	3
78	90	2
73	73	4
54	55	2
41	41	2
61	69	2
80	87	1
78	78	4
37	38	2
110	111	2
66	66	3
80	89	3
103	106	1
39	39	3
85	86	2
19	22	1
89	91	3
76	77	2
67	67	1
114	114	3
60	66	2
110	110	2
32	39	2
90	110	2
55	55	1
40	41	4
61	75	3
89	109	1
72	73	2
53	84	1
49	50	3
60	86	1
88	92	1
75	76	2
69	69	5
52	86	2
61	90	1
34	34	3
96	100	2
76	76	2
58	60	1
80	80	1
101	103	1
74	76	1
92	92	2
62	66	1
62	94	1
60	75	3
87	87	3
41	97	1
32	79	1
78	95	3
90	104	1
92	94	3
101	101	3
77	78	1
81	83	1
21	21	1
113	113	1
43	44	2
105	109	1
20	20	2
52	52	1
88	89	1
61	110	1
73	74	1
79	83	1
93	93	1
81	82	1
105	110	1
96	96	1
61	94	1
46	64	1
33	34	1
35	36	1
