113	113	5
59	59	5
149	150	4
198	199	2
39	41	2
22	53	7
222	222	5
225	225	13
163	165	3
22	22	2
186	201	3
180	212	2
15	15	4
27	27	7
159	159	1
111	111	6
221	225	2
202	202	5
158	158	15
196	199	4
182	243	3
226	226	6
11	16	2
150	217	2
81	164	3
22	38	5
3	20	7
19	19	5
77	77	11
95	95	8
26	26	5
237	237	6
25	25	5
61	62	1
109	110	8
224	240	4
11	11	9
11	15	2
6	6	11
12	39	4
10	10	12
209	209	9
162	163	4
165	198	7
210	210	6
109	109	6
22	23	7
30	73	6
85	85	6
226	228	1
165	165	17
31	47	3
99	99	1
226	227	1
176	192	3
81	87	1
206	207	2
177	177	5
170	196	4
215	219	2
5	5	8
28	29	4
240	240	12
7	18	3
86	87	1
230	230	2
237	248	3
4	22	3
38	38	16
48	92	3
93	144	3
109	115	2
119	119	18
30	41	1
154	155	3
66	71	4
29	29	10
163	179	3
154	154	8
118	119	9
160	161	3
220	220	12
186	241	1
20	20	10
203	217	2
44	44	7
183	183	6
36	36	16
14	23	5
49	57	3
178	178	4
114	115	4
77	78	1
207	210	2
222	234	1
160	160	16
199	200	6
181	224	3
156	156	10
7	7	13
161	164	3
69	69	8
64	65	5
175	175	11
151	225	4
212	212	2
147	147	8
70	70	4
89	89	2
177	179	2
114	114	6
62	62	7
184	196	1
31	37	2
16	16	6
170	187	3
223	223	2
207	208	5
39	75	1
208	208	8
180	180	6
189	189	9
63	63	7
88	88	8
210	248	1
169	169	3
221	248	1
216	216	7
51	55	4
92	93	3
199	239	3
182	183	3
25	26	2
186	186	10
180	181	6
81	81	11
116	116	5
167	167	8
48	48	3
119	160	2
159	160	7
90	95	2
20	54	3
80	82	4
92	92	5
52	52	6
218	218	12
241	241	2
220	236	2
190	228	2
192	196	5
35	35	11
214	214	9
90	90	8
152	153	1
68	68	6
164	164	2
218	221	2
78	96	2
69	70	2
15	49	1
217	217	4
46	46	12
2	2	9
171	233	1
110	112	4
42	188	1
203	218	6
54	54	5
58	58	3
239	239	8
33	33	10
110	110	4
170	171	1
169	170	2
49	49	5
76	77	1
76	76	15
151	151	14
80	80	6
108	110	3
155	155	17
213	234	1
170	170	3
9	9	6
87	87	7
242	243	5
117	118	4
67	116	10
150	150	4
8	8	6
194	194	8
97	97	5
26	27	6
4	42	4
64	68	2
35	49	1
157	158	6
57	57	3
214	221	4
176	200	1
110	111	5
107	149	3
102	104	3
184	184	6
97	109	1
173	173	9
20	45	3
187	188	5
115	115	9
241	244	1
49	64	3
29	30	1
161	161	9
201	201	5
197	197	9
163	199	5
196	196	13
155	163	3
187	187	3
30	59	5
65	65	6
50	65	5
91	91	10
227	227	6
231	231	11
229	229	11
222	231	2
74	74	9
59	67	3
23	91	3
152	152	7
30	31	5
72	72	2
158	194	3
199	199	5
244	244	7
221	243	4
211	211	4
97	98	5
23	24	2
106	118	1
20	35	5
190	190	6
79	79	7
46	47	1
53	53	4
171	204	1
163	163	4
161	162	5
236	236	16
176	176	1
66	90	2
76	86	1
195	195	5
159	204	1
151	155	3
216	242	2
221	221	7
56	58	3
245	245	6
219	219	5
92	109	2
236	247	1
219	242	1
180	185	4
117	117	5
224	226	4
80	102	1
102	103	5
82	84	1
64	64	2
50	59	1
79	84	3
207	207	5
24	183	1
30	30	4
100	119	4
192	203	1
181	181	6
87	90	1
74	90	3
153	214	4
27	47	4
171	193	1
65	89	2
64	66	1
83	84	6
21	24	3
95	98	6
82	162	4
171	171	7
202	226	1
144	149	1
110	161	7
12	12	7
72	104	2
21	41	1
27	31	1
48	94	6
51	51	3
96	99	2
164	205	3
156	159	2
212	214	5
153	153	10
248	248	7
241	242	1
167	177	6
198	198	6
190	192	2
45	45	7
173	178	2
235	235	9
154	180	2
80	81	4
169	205	2
25	31	4
90	92	3
91	92	5
238	238	6
90	91	1
224	242	2
104	104	2
45	46	1
71	71	4
9	43	1
103	103	1
189	190	2
32	32	13
189	225	4
61	61	6
77	111	4
172	209	1
191	194	1
190	226	2
95	104	2
105	110	5
68	70	4
60	65	2
112	157	3
66	73	5
216	218	3
151	160	9
172	177	3
236	237	4
25	47	4
227	228	9
86	86	6
24	56	1
194	195	4
215	243	1
238	239	3
160	194	2
60	60	8
103	107	1
4	4	6
71	74	2
28	47	2
83	83	4
77	110	3
85	93	4
232	232	3
171	196	2
224	224	7
75	75	3
221	222	4
6	7	1
24	24	4
197	198	2
47	48	1
41	45	3
105	105	5
239	240	1
17	17	6
32	54	1
31	95	2
23	57	1
146	146	9
37	37	6
30	50	3
66	92	2
53	55	2
162	162	5
100	111	1
85	86	2
72	73	1
157	207	2
184	189	4
50	50	2
179	179	4
5	18	2
87	88	3
93	93	2
204	204	11
211	224	2
4	14	7
213	213	5
50	51	4
43	43	2
7	8	5
60	62	3
14	51	2
57	58	1
53	54	4
1	12	2
83	117	3
98	100	6
162	194	3
191	191	6
119	120	1
164	165	1
243	244	5
152	157	3
80	83	1
196	200	4
82	83	3
98	98	11
162	205	1
188	188	8
156	162	2
40	40	9
205	205	7
94	107	2
55	55	2
166	166	2
172	207	3
14	14	4
212	213	3
166	178	3
56	56	5
234	239	2
8	12	1
59	60	3
181	182	1
191	209	2
246	246	6
96	97	4
4	116	1
234	234	4
168	207	3
181	207	2
39	42	1
203	203	8
208	209	3
77	93	5
175	176	3
185	190	1
84	90	1
91	106	1
42	42	4
175	205	1
168	168	1
74	92	1
84	84	9
175	179	5
100	100	6
12	23	1
28	42	1
179	186	1
155	205	4
23	23	6
78	90	2
1	20	1
228	229	2
186	211	3
233	236	1
106	147	2
98	108	2
163	166	2
1	2	2
4	20	2
156	211	3
183	211	2
196	224	2
45	100	2
222	225	1
246	247	3
80	93	2
79	80	3
15	24	1
215	215	4
34	76	2
153	154	5
239	245	4
172	172	5
70	219	2
219	241	3
84	85	1
118	118	5
56	57	2
234	236	1
40	41	1
210	234	2
75	76	3
235	236	1
198	238	2
21	45	4
70	86	1
41	41	2
86	88	1
24	57	2
25	55	1
34	34	3
3	21	3
173	174	3
155	156	1
96	96	2
87	89	1
161	193	3
17	19	1
34	62	1
174	204	2
193	195	3
99	100	2
181	210	1
247	247	6
32	69	1
152	225	1
12	49	1
39	39	2
31	50	1
74	75	1
81	197	1
243	243	3
158	159	1
28	48	1
189	191	1
49	94	2
176	201	2
93	102	1
30	60	3
169	171	1
59	93	1
168	169	2
113	114	2
166	167	4
11	25	3
207	211	2
18	19	1
99	112	1
98	105	1
107	114	1
73	74	2
62	64	3
57	98	2
85	97	2
188	191	2
213	247	1
206	206	3
107	109	1
168	212	4
101	111	1
77	101	1
107	107	4
160	162	1
165	167	1
66	72	1
224	225	3
89	106	3
0	0	1
173	175	1
39	40	1
84	215	1
54	58	2
202	203	1
93	94	3
89	96	1
48	49	1
112	113	3
9	11	1
100	105	1
78	78	4
106	106	3
197	199	2
9	30	3
178	179	1
93	119	2
65	78	2
172	173	1
74	117	3
183	204	2
197	200	2
185	213	1
14	42	3
237	238	2
190	245	2
44	49	1
67	81	1
181	185	2
146	161	3
37	38	1
221	236	1
66	78	1
230	245	1
156	157	2
153	223	1
71	99	2
232	233	3
71	218	2
220	241	1
66	66	4
35	53	2
51	53	3
116	117	3
174	175	1
42	47	1
1	11	1
62	63	2
107	108	1
230	244	1
85	94	1
200	200	4
83	165	1
102	102	3
81	82	1
34	75	2
157	157	2
185	185	2
230	231	1
222	223	2
173	184	1
17	40	1
82	82	2
187	191	1
30	42	1
186	202	1
32	33	1
72	94	4
221	223	2
1	3	1
47	47	3
185	244	1
104	110	2
2	53	1
120	120	1
192	192	2
101	102	1
55	56	1
21	21	2
95	107	1
68	72	1
213	249	1
16	17	1
211	212	1
14	72	1
60	61	2
71	216	1
158	195	1
240	241	1
107	119	3
4	5	1
11	47	1
217	218	1
106	119	1
6	8	1
151	154	1
6	10	1
163	202	1
167	202	1
163	167	1
50	93	1
27	29	1
197	214	2
240	245	1
220	222	1
118	161	2
223	231	1
108	108	1
12	43	1
1	25	1
34	35	1
91	93	1
30	32	1
57	60	1
176	177	1
31	67	1
54	114	2
223	230	1
67	100	1
206	224	1
49	55	1
94	94	1
181	183	1
184	193	1
34	65	1
54	96	1
59	94	1
1	8	1
14	56	1
178	236	1
20	53	1
233	234	1
40	43	2
73	73	1
174	230	1
208	236	1
174	174	2
98	99	2
62	72	1
4	18	1
15	44	1
3	11	1
