170	171	4
7	34	3
172	172	4
237	237	5
112	112	3
48	48	6
178	179	4
61	79	3
18	20	6
26	169	4
54	54	4
18	18	2
85	90	1
170	229	3
74	79	3
49	49	1
74	116	2
28	55	2
65	65	5
165	165	3
175	177	1
93	94	2
243	243	5
21	21	4
176	178	4
161	161	3
95	96	3
82	82	5
225	226	5
3	3	2
169	185	4
150	153	2
38	104	2
192	192	4
194	211	5
163	163	4
157	158	2
87	165	2
40	40	5
161	171	4
109	186	2
96	96	5
2	32	4
174	174	5
50	205	1
32	39	4
93	93	1
158	158	4
10	10	3
181	181	5
59	104	6
175	175	4
76	76	7
196	196	7
38	113	5
33	33	4
199	245	1
206	206	4
68	68	4
27	28	3
106	106	3
98	98	1
110	110	9
68	75	2
179	179	7
9	9	5
61	66	1
26	182	4
180	181	1
55	191	3
50	50	4
231	232	3
46	57	3
102	102	5
116	116	7
39	39	2
111	111	4
23	23	1
68	70	2
44	44	2
234	234	4
189	189	6
99	106	3
196	207	4
108	108	4
86	86	3
4	5	4
88	88	2
201	207	2
45	45	3
77	77	3
69	69	2
57	57	4
1	1	4
119	119	4
8	8	6
150	150	2
71	73	1
94	94	2
61	61	1
203	203	5
159	159	3
245	245	1
196	236	3
112	115	1
146	213	3
232	232	9
35	40	3
224	224	6
76	77	3
29	45	1
118	118	6
109	114	1
200	202	1
217	234	1
195	238	1
5	5	3
183	241	1
229	229	6
236	236	5
157	157	2
42	42	3
230	230	3
59	103	4
152	152	6
231	231	3
144	144	1
113	113	2
172	173	1
10	11	2
201	201	2
118	119	1
213	214	5
34	34	4
10	16	3
81	82	2
180	180	5
210	226	3
39	192	3
71	71	5
154	154	1
99	101	3
6	6	4
89	91	1
78	116	6
221	222	2
207	207	3
88	145	2
38	116	1
71	74	2
201	231	3
36	41	5
27	203	3
73	112	1
246	247	1
38	38	4
93	95	1
176	176	4
35	204	1
29	29	1
217	217	4
19	23	3
67	67	2
78	78	6
211	212	4
94	96	1
166	166	1
36	186	1
35	39	3
200	227	1
42	204	2
13	49	1
42	50	2
244	244	2
184	230	2
223	223	3
46	46	2
63	64	2
92	99	1
66	66	4
72	77	2
198	204	2
202	203	1
177	177	1
87	167	1
240	240	1
146	215	1
26	26	2
66	102	1
200	200	3
210	210	1
193	193	1
117	118	2
77	119	1
31	149	2
209	209	1
156	160	1
195	206	1
43	43	2
194	196	1
200	245	1
168	169	1
28	28	2
81	81	3
217	218	2
72	112	1
168	184	1
173	174	1
222	222	2
170	189	3
87	88	3
155	155	2
207	214	1
193	206	1
247	247	2
241	241	1
108	112	1
162	162	3
38	60	2
167	189	2
91	91	2
94	95	2
101	101	4
63	63	1
211	211	1
19	20	2
7	207	2
213	213	1
74	74	1
198	198	1
111	112	5
107	107	2
42	199	3
239	239	1
218	218	1
39	40	4
76	78	1
58	59	1
34	204	1
25	25	2
17	17	1
80	80	1
99	99	1
32	36	2
208	208	1
34	42	1
71	72	1
202	202	1
195	210	1
236	245	1
52	53	1
19	19	2
169	170	1
23	25	1
175	176	1
165	180	1
90	101	2
215	215	1
79	113	2
199	199	1
20	22	1
160	183	1
187	188	1
69	70	2
186	186	2
184	184	2
146	202	2
88	89	1
238	238	2
226	226	1
51	51	1
8	202	1
34	206	1
243	244	2
52	52	2
109	109	1
212	212	1
107	112	1
80	81	1
146	146	1
100	101	1
58	58	1
197	201	1
88	98	1
214	215	1
35	43	1
151	151	1
9	205	1
242	242	3
99	102	1
75	120	1
73	118	1
62	101	1
36	36	1
28	52	1
53	53	1
37	37	1
246	246	1
170	170	1
65	66	1
48	49	1
216	217	1
233	233	1
