143	144	19
16	16	20
22	22	22
167	168	18
86	87	16
58	58	20
125	125	30
45	45	22
134	134	28
91	91	21
150	176	4
35	36	5
5	7	7
139	139	35
112	112	42
91	93	12
20	33	7
14	14	19
147	147	27
4	4	16
81	81	24
16	17	23
39	39	15
87	87	41
146	159	6
117	117	32
127	127	34
82	82	23
1	6	5
73	73	45
11	12	12
62	62	26
52	52	27
43	43	29
108	108	46
94	94	28
145	145	36
19	19	16
32	32	11
128	128	25
39	161	3
55	71	3
73	74	8
92	92	12
95	96	11
106	106	24
159	159	56
152	152	24
121	121	35
11	21	2
10	10	36
84	84	19
66	66	30
103	114	4
17	38	3
131	132	7
81	165	7
30	30	26
160	160	31
49	51	2
35	60	1
136	136	37
83	94	2
85	85	24
5	6	9
123	123	41
173	173	25
130	131	14
137	137	40
171	171	37
93	93	26
72	72	34
147	172	5
27	27	20
71	80	6
88	118	5
56	56	30
24	24	32
131	131	28
146	147	5
155	156	17
102	102	41
24	27	6
27	29	3
65	65	34
55	115	3
73	141	10
140	141	4
119	119	17
43	44	12
93	131	4
70	71	9
17	18	7
107	107	33
89	89	27
61	62	17
177	177	15
163	163	41
56	57	8
142	143	15
154	154	41
41	41	39
165	167	4
142	142	44
115	116	9
26	26	24
159	163	6
78	78	31
139	179	2
44	44	27
102	103	10
21	21	15
165	165	35
50	50	37
105	105	9
144	144	32
137	138	13
15	15	36
15	16	17
73	75	9
57	59	2
121	132	3
53	55	6
23	23	19
172	172	41
9	11	7
169	169	31
19	20	9
25	25	38
96	124	3
63	103	2
147	148	8
148	148	33
138	138	25
141	146	1
114	115	6
88	89	21
121	125	7
116	121	4
174	175	12
42	57	3
6	6	23
109	109	60
128	130	8
121	122	19
116	118	5
11	11	38
164	164	37
76	76	28
104	104	9
127	128	3
77	128	3
26	27	8
81	84	8
161	162	9
55	55	27
143	143	17
161	161	25
52	53	11
175	176	21
81	83	3
124	124	37
8	9	17
167	167	22
123	124	16
38	38	40
141	141	28
116	117	12
44	59	4
18	18	15
135	160	5
71	71	25
2	18	1
33	35	3
113	113	29
67	67	42
60	60	49
96	96	27
12	13	16
77	165	4
107	114	6
153	170	1
179	179	40
157	157	42
103	103	31
0	14	4
40	40	23
134	159	5
111	112	8
9	9	17
11	14	6
5	5	14
141	143	2
153	154	7
141	170	4
64	64	17
77	140	3
53	53	15
91	92	8
1	15	3
28	28	16
3	4	11
94	95	7
111	111	22
128	129	6
66	73	5
156	156	17
10	38	2
11	19	3
114	114	37
61	61	21
7	7	16
83	83	21
153	153	30
126	127	7
72	77	3
3	3	19
66	67	15
97	98	9
44	45	11
89	90	5
92	93	7
59	81	1
25	29	1
6	7	19
112	122	6
17	17	31
170	171	9
6	12	4
51	82	1
133	133	19
126	126	11
14	17	5
26	28	5
39	40	14
22	23	17
140	140	46
150	159	3
151	151	18
133	134	8
106	136	3
23	36	3
162	162	48
96	127	5
178	178	25
167	169	8
60	64	5
87	89	5
11	26	1
90	92	4
132	133	14
171	174	3
25	26	13
37	43	3
52	105	6
39	41	2
24	25	6
31	32	12
64	65	6
57	57	35
77	114	6
52	98	5
82	102	3
13	13	30
90	90	42
51	98	2
150	163	1
112	116	6
71	146	8
148	174	2
122	122	27
75	77	6
41	42	24
4	17	7
124	180	3
75	75	47
53	54	10
114	118	2
20	24	1
54	55	5
127	130	4
14	44	4
88	175	2
149	149	53
64	66	5
166	166	52
95	95	29
166	167	6
88	88	15
139	141	6
175	175	19
168	168	37
37	37	23
131	149	8
19	21	1
61	63	2
180	180	43
93	94	10
120	120	27
79	87	2
79	79	15
97	102	2
32	36	3
170	170	13
100	113	8
97	97	16
136	177	5
88	90	1
36	40	2
103	132	5
86	95	6
87	88	7
109	146	4
140	171	1
80	80	22
1	3	4
135	135	10
63	63	17
9	40	2
90	91	6
70	70	5
1	1	19
144	160	3
2	60	6
110	110	24
15	33	3
10	30	3
157	158	3
120	121	15
30	31	13
19	23	3
140	180	2
134	135	7
54	57	2
53	116	5
158	158	39
52	114	1
130	130	14
168	169	9
138	139	4
78	119	2
171	172	10
29	29	25
97	122	3
145	146	9
3	32	1
85	86	11
115	121	2
100	101	10
73	145	2
36	36	23
6	22	2
98	98	14
153	156	1
96	97	4
179	180	4
140	143	2
11	18	2
54	54	37
84	86	6
153	171	4
13	34	1
150	150	29
72	73	9
31	31	34
116	116	18
154	170	6
10	11	5
31	43	5
53	110	3
35	35	24
130	156	6
176	176	40
74	124	1
7	8	10
74	74	20
161	163	4
31	34	2
151	153	8
121	136	5
5	15	6
18	19	9
115	115	28
40	42	10
4	12	1
121	126	3
27	28	12
59	116	4
125	126	17
2	5	4
117	118	6
9	10	14
8	8	17
171	176	3
37	60	4
34	34	18
3	14	3
108	121	3
124	163	5
32	33	13
52	61	10
5	12	6
50	51	10
78	80	6
135	147	2
107	108	8
110	115	1
11	20	2
118	118	13
78	79	16
33	33	31
51	51	14
163	165	1
144	146	4
3	5	4
77	78	9
55	56	2
132	132	19
111	154	4
2	33	3
151	152	6
54	126	1
74	75	9
1	10	8
43	45	1
15	17	5
115	129	1
94	129	1
68	68	14
79	98	2
150	160	3
77	77	21
3	36	7
19	42	3
42	42	22
15	21	3
98	99	10
2	2	17
102	116	2
66	68	2
107	109	6
11	13	2
150	154	2
54	61	1
81	164	2
155	155	11
72	146	1
50	61	7
55	57	12
106	107	2
111	113	3
79	134	1
77	141	6
99	100	6
0	1	2
171	173	2
126	130	2
100	100	21
12	12	11
73	76	4
60	61	9
17	30	3
18	36	2
60	78	5
150	151	3
149	153	3
173	174	5
174	174	35
129	130	9
108	118	3
11	31	5
110	147	3
165	166	13
152	153	6
80	85	1
40	41	8
59	59	18
97	99	3
60	112	5
163	164	3
109	110	6
36	41	1
71	78	1
142	144	3
81	82	9
40	143	3
107	132	2
63	64	7
41	49	2
14	16	1
86	86	9
24	26	7
101	170	2
150	170	1
128	136	5
43	51	1
99	99	5
104	105	14
14	15	7
98	104	2
122	123	10
97	100	5
146	146	26
118	148	2
100	124	3
96	129	2
58	83	2
32	40	4
74	79	2
90	108	2
101	101	16
10	37	4
102	111	4
32	34	3
164	165	5
160	161	4
174	177	2
81	116	3
99	119	3
118	149	2
129	132	4
45	46	3
97	143	4
20	20	6
51	73	2
150	166	3
122	162	4
80	116	1
110	112	2
13	30	1
51	53	1
129	129	21
78	90	2
149	150	7
21	24	4
108	109	3
177	178	7
63	147	2
159	160	14
0	0	8
80	137	2
77	115	1
148	178	1
122	142	2
65	66	12
10	23	1
31	72	3
143	151	1
88	95	1
75	76	16
4	22	3
79	146	1
87	153	2
9	24	2
135	136	7
109	130	3
68	75	3
7	10	3
126	128	8
119	133	2
51	139	1
20	35	1
112	134	2
154	172	2
56	58	4
161	170	1
75	122	2
41	67	2
5	22	4
114	135	4
19	25	4
172	173	5
104	107	2
110	126	3
149	152	1
169	170	3
14	25	2
58	66	5
7	9	4
38	164	3
13	31	2
62	74	2
51	89	7
162	163	5
83	150	2
154	156	4
61	99	2
105	116	1
116	119	3
86	154	4
153	176	3
76	109	6
5	11	2
88	110	1
43	57	5
76	77	3
159	164	10
74	88	3
61	102	2
62	93	2
65	109	1
24	33	3
61	149	2
136	142	3
57	58	1
12	26	1
150	169	2
82	100	2
5	10	4
70	87	6
60	74	8
19	35	1
125	136	1
112	114	9
53	153	2
80	81	10
65	67	1
105	106	10
44	60	3
51	150	2
4	5	2
21	22	3
108	128	2
112	113	5
132	139	4
51	52	6
157	159	11
129	150	6
38	62	3
67	71	1
160	174	3
81	180	1
96	99	7
113	161	2
68	87	3
22	24	1
2	4	10
122	126	2
84	85	8
141	145	2
79	150	1
177	179	5
83	85	2
43	71	2
59	111	1
10	15	1
164	167	2
56	96	3
152	173	2
79	80	6
121	123	2
85	94	1
2	3	17
104	111	3
66	70	2
172	174	5
42	43	3
128	147	1
13	26	1
38	39	5
60	62	3
111	136	2
50	87	4
61	100	1
150	153	5
97	130	3
148	149	3
38	41	2
170	172	4
125	130	2
7	84	1
98	130	3
141	171	3
72	124	3
129	131	8
59	89	1
54	56	2
136	159	1
80	118	2
56	76	1
28	29	5
64	105	1
88	98	4
67	73	1
26	30	6
34	35	3
19	32	2
84	88	3
22	37	2
154	169	3
155	160	1
80	96	2
120	125	2
51	99	2
77	123	3
115	117	5
4	14	2
147	170	5
55	65	5
120	124	2
9	33	2
123	125	6
71	72	2
95	127	3
140	144	1
144	149	3
9	39	2
82	83	4
170	173	1
115	123	1
142	171	3
123	126	7
6	13	4
108	115	4
113	114	3
138	177	1
67	136	1
148	156	2
14	38	3
65	83	1
52	137	2
67	68	4
169	171	1
21	31	5
20	21	1
113	144	2
101	102	9
115	146	4
77	166	1
151	174	3
36	49	3
154	161	1
89	91	2
19	33	2
97	142	2
104	106	3
55	107	4
22	28	1
20	44	1
7	11	4
118	155	1
65	68	3
62	83	2
163	166	2
10	176	1
162	166	3
148	158	1
118	120	1
6	9	5
96	108	3
96	143	4
23	24	5
144	145	4
94	128	2
158	159	5
178	179	3
36	39	3
124	125	3
5	27	1
153	172	5
122	124	2
7	24	2
115	135	1
57	126	2
24	30	3
3	18	2
113	171	1
125	129	2
151	171	1
53	119	3
115	120	2
34	42	3
57	92	2
130	141	1
55	124	3
123	132	2
149	172	1
3	49	2
80	119	2
114	139	1
71	75	3
11	33	1
35	43	7
117	131	2
17	40	1
43	60	1
112	132	3
126	165	2
13	27	2
78	120	2
176	177	3
28	30	1
82	89	1
95	97	1
81	95	4
41	43	4
145	159	2
130	179	1
52	89	1
5	24	1
49	87	1
108	119	1
56	162	2
54	115	3
115	118	6
114	146	1
120	141	2
105	107	2
159	162	2
139	167	1
58	135	3
133	140	2
35	42	3
54	87	2
126	140	2
102	117	2
118	133	2
102	162	2
18	25	3
151	154	2
62	101	1
116	122	1
83	84	2
102	104	1
151	160	1
128	162	1
131	156	3
171	179	3
152	154	2
154	155	1
156	158	1
59	61	4
158	163	1
39	56	1
66	109	4
160	162	1
103	106	4
157	173	1
2	10	1
67	110	2
50	81	2
112	123	2
14	37	1
95	125	1
3	7	1
82	93	1
153	174	3
57	82	4
110	111	4
22	41	2
63	84	1
50	52	5
77	96	2
108	111	1
1	2	5
112	179	3
102	110	2
117	119	1
105	112	1
86	88	3
138	176	1
99	113	2
145	148	1
134	136	1
17	42	1
22	45	1
103	109	1
6	19	1
158	160	3
138	149	3
151	156	2
139	140	2
2	50	2
126	132	1
86	101	1
98	101	1
0	4	2
169	172	2
135	150	1
56	81	2
147	176	1
105	115	1
79	158	1
62	63	2
136	137	1
85	93	2
156	157	3
151	155	1
108	120	1
49	49	2
6	21	1
87	97	2
145	168	1
45	57	3
88	132	2
124	145	1
160	163	1
168	171	1
5	143	3
124	128	4
37	57	2
8	10	2
82	85	2
54	130	1
178	180	1
10	31	1
143	146	1
45	111	2
81	136	1
101	104	4
16	43	2
76	80	1
143	145	2
22	33	3
166	172	1
50	55	2
114	134	2
24	28	2
7	34	1
97	119	1
36	45	2
50	111	2
16	18	1
21	23	1
106	115	2
95	107	1
120	136	4
56	112	1
77	89	1
102	126	1
133	156	1
5	21	2
116	135	1
12	24	4
81	86	2
93	126	3
166	171	1
106	108	1
141	180	1
106	109	1
146	158	2
132	141	1
153	169	2
25	27	1
49	50	1
110	146	1
115	119	1
52	129	1
90	95	1
132	140	2
110	118	1
141	147	1
128	164	1
4	7	3
65	84	1
164	166	2
12	25	1
142	149	1
94	101	1
49	59	1
92	132	2
136	169	1
37	63	1
132	156	1
152	156	2
52	119	1
35	45	3
63	105	1
63	113	1
35	37	1
44	65	1
163	170	1
134	177	1
34	60	2
155	157	1
50	89	1
7	15	1
113	121	3
59	62	2
107	118	1
16	31	1
18	71	1
57	74	1
105	110	1
96	98	1
147	173	1
128	150	2
103	105	2
93	99	2
79	94	2
167	171	1
74	76	1
38	81	2
19	28	1
13	14	2
146	169	1
134	137	2
86	94	1
143	149	1
91	94	3
34	36	1
126	145	1
145	162	1
29	32	1
84	87	1
71	85	1
13	15	3
45	145	1
103	104	1
149	151	1
90	149	1
137	176	1
154	157	1
140	173	1
61	81	1
55	58	1
141	149	2
54	64	1
53	97	1
86	155	2
90	128	1
117	122	1
97	128	1
138	167	2
12	19	1
95	108	1
3	33	2
59	60	1
137	178	1
41	44	2
6	27	1
22	73	1
58	59	1
60	102	2
121	141	3
33	34	2
37	40	2
16	25	1
5	13	1
39	72	1
110	148	1
10	13	2
148	159	2
25	32	1
22	32	1
137	150	1
83	160	2
111	114	1
108	110	1
130	133	3
29	30	1
59	100	1
2	6	2
105	108	1
63	65	1
55	120	1
102	113	1
92	94	1
154	171	1
6	8	1
80	88	1
66	74	1
8	11	1
116	124	1
127	162	1
65	88	3
59	110	1
44	57	1
149	178	1
82	99	1
35	41	1
54	119	1
172	175	1
74	77	1
141	150	2
141	142	1
85	88	1
76	123	2
62	64	1
37	38	1
63	115	1
7	42	1
54	153	1
56	121	1
95	106	1
40	66	1
62	102	1
