76	86	1
121	130	1
95	95	8
98	98	15
0	0	11
91	91	19
71	71	17
109	109	3
99	99	11
107	107	10
1	1	6
61	61	8
94	94	7
116	116	8
56	69	1
114	114	10
122	122	8
82	82	11
14	14	16
29	53	1
63	91	2
43	43	16
134	134	5
33	33	12
120	120	8
62	62	13
67	67	8
113	127	2
119	120	13
74	74	6
32	32	7
22	23	5
128	128	12
60	60	11
79	79	9
112	112	10
61	64	2
101	102	3
75	75	6
32	34	2
124	124	7
9	9	12
43	45	6
79	82	3
92	92	13
85	85	9
28	28	9
57	57	6
22	22	12
129	129	10
87	87	6
97	106	2
47	47	6
109	110	3
77	84	2
33	34	18
73	73	12
64	64	5
113	113	17
36	37	7
82	88	2
81	81	4
102	102	6
62	97	1
7	7	9
63	63	7
69	70	2
48	48	6
127	127	7
45	64	5
26	27	7
93	94	9
7	9	2
21	22	4
12	12	14
62	63	3
108	108	6
65	66	4
91	92	1
64	70	1
133	133	2
50	50	9
66	67	4
100	100	3
97	115	2
25	25	7
8	8	5
114	115	4
130	130	3
44	44	13
120	125	1
103	103	8
126	126	19
16	16	6
27	27	8
82	83	2
46	47	1
132	133	2
104	128	1
59	59	15
34	34	10
121	121	8
3	3	16
69	69	8
68	68	7
86	86	2
64	80	1
123	124	3
65	65	11
110	110	10
35	37	3
132	132	8
110	111	3
93	105	1
2	2	12
78	78	2
16	19	4
80	80	6
11	57	1
31	32	3
111	111	5
18	18	1
125	125	9
74	75	4
26	26	8
34	35	2
90	90	11
60	61	4
86	87	5
106	107	3
31	31	2
45	46	3
3	4	6
76	89	3
123	123	8
87	88	1
35	35	6
119	119	7
75	95	3
1	3	3
26	101	3
13	13	9
30	30	6
99	100	3
78	116	3
124	125	3
123	128	4
3	5	3
77	79	4
73	74	2
129	130	4
84	85	1
38	38	3
83	83	4
43	44	1
90	91	5
58	63	4
15	25	1
117	118	9
38	43	2
63	64	2
97	98	7
77	77	3
115	122	1
64	65	1
56	56	7
106	106	9
55	55	7
10	10	4
130	131	3
63	86	5
0	2	4
70	70	10
131	131	4
6	6	7
118	118	2
11	26	1
21	21	3
108	115	1
53	54	1
42	43	2
115	116	1
5	5	7
102	103	3
58	60	3
71	72	1
56	57	2
76	76	3
49	49	2
36	36	2
75	76	1
86	88	1
53	53	1
86	109	1
18	19	1
97	97	7
89	90	3
7	11	2
18	33	1
104	104	4
66	66	15
49	50	5
5	6	7
22	26	2
107	108	5
105	106	1
80	108	1
17	20	4
89	89	5
3	43	3
17	19	2
23	24	3
4	4	12
49	52	4
65	134	2
96	96	9
114	122	3
100	101	1
76	96	3
105	105	3
2	52	3
32	54	2
28	30	3
7	20	3
15	24	2
13	31	1
75	77	3
88	101	4
24	50	1
45	45	6
14	22	1
52	53	3
11	11	8
12	35	1
82	84	2
61	62	5
12	13	2
48	108	2
12	28	1
104	105	1
15	16	2
18	22	3
10	11	1
121	122	3
72	72	2
32	33	1
130	132	1
54	54	2
5	7	4
4	45	5
76	90	2
19	19	2
13	67	2
5	24	2
18	20	2
21	36	2
115	121	2
3	6	1
124	130	1
97	135	1
96	106	1
93	93	4
93	95	4
115	126	1
16	17	1
24	24	1
55	56	1
133	134	3
8	9	1
1	30	1
65	67	4
123	132	1
103	104	2
69	80	1
14	57	2
86	90	1
83	85	1
20	20	7
13	45	1
77	86	2
14	43	1
127	128	2
15	15	3
37	37	3
54	60	1
36	47	1
94	125	2
29	29	3
59	128	1
88	88	2
94	99	1
1	2	1
25	32	1
108	111	1
131	132	1
75	88	2
66	84	1
96	115	1
13	15	1
69	89	2
84	84	3
77	78	2
23	25	2
52	52	1
81	111	1
121	123	1
126	127	3
82	86	1
73	135	2
24	27	1
12	16	1
135	135	3
32	35	2
17	17	1
62	98	1
118	131	1
114	123	1
2	34	1
13	29	1
8	29	1
125	126	1
25	27	1
43	63	1
82	85	1
16	53	1
90	92	1
68	95	1
66	134	2
7	12	1
15	29	1
122	124	1
12	14	1
44	65	1
47	50	1
19	65	1
9	11	1
29	30	1
3	38	1
81	98	1
18	52	1
105	114	1
125	129	1
