238	238	3
219	219	14
117	117	8
217	217	7
29	29	7
18	23	2
38	38	8
199	199	6
139	139	6
54	54	3
179	179	4
194	194	5
151	154	1
181	181	1
7	7	5
168	168	16
172	172	15
105	120	3
174	174	15
10	10	4
192	192	12
146	146	12
217	218	7
124	126	2
206	220	5
177	179	1
232	232	19
104	104	5
204	241	1
47	47	4
99	153	4
53	54	2
152	152	6
222	222	8
147	147	3
158	159	2
63	63	5
162	162	2
61	61	12
4	55	4
4	6	2
170	170	8
223	226	3
64	64	2
41	41	4
84	84	9
129	130	4
186	186	11
76	79	8
228	229	4
5	5	2
32	32	16
165	165	8
167	168	3
24	24	8
129	129	4
152	178	2
31	41	2
188	188	4
190	190	6
205	205	8
128	129	3
62	62	3
75	75	4
86	86	10
50	55	2
83	84	4
30	30	2
22	22	4
27	27	12
135	135	2
42	42	5
43	43	4
52	52	8
80	80	4
73	73	4
157	164	1
215	215	6
128	128	24
60	60	6
233	233	4
100	102	1
53	55	1
148	148	8
228	228	3
50	51	4
85	174	4
107	107	2
219	220	3
120	120	3
40	162	5
195	196	9
18	20	1
214	214	7
208	222	5
217	220	3
231	232	4
151	151	4
141	141	4
48	48	10
138	138	3
231	231	4
207	208	5
122	122	2
5	23	1
153	153	1
119	119	9
79	80	1
226	231	2
63	64	2
157	157	5
177	177	6
66	67	3
177	178	2
133	221	1
204	217	4
207	207	2
63	67	3
185	185	4
180	180	2
6	237	4
28	28	3
175	175	10
175	176	1
176	176	3
58	59	2
131	131	3
234	234	7
226	230	5
197	197	1
98	99	2
11	11	7
57	57	3
13	13	11
61	65	1
142	142	3
163	164	2
17	23	5
198	220	3
55	58	1
56	56	3
216	216	2
196	205	3
16	16	3
113	113	6
98	161	3
39	45	2
203	203	10
133	134	1
144	144	9
145	146	2
52	53	1
180	192	5
103	105	5
182	183	5
183	183	8
48	49	3
101	101	4
173	174	2
71	71	6
112	112	4
191	191	2
58	68	3
163	163	3
187	187	1
239	241	4
72	73	2
155	156	3
3	8	5
178	179	4
79	79	2
185	196	3
232	233	2
123	124	3
111	111	2
14	19	2
21	22	2
105	119	2
26	28	1
19	19	1
125	126	2
84	85	6
98	98	3
74	74	8
160	160	2
77	77	4
121	121	6
13	33	1
160	161	2
173	173	2
223	223	3
190	194	3
208	234	7
117	125	5
143	143	4
225	238	1
4	66	4
11	32	6
167	167	3
67	68	4
9	10	2
83	83	9
202	202	7
25	25	7
214	215	2
1	72	1
132	132	4
179	180	1
50	52	3
44	44	7
31	31	1
220	223	1
195	195	5
63	119	1
5	15	2
23	24	5
208	208	1
223	234	2
70	70	2
60	61	2
17	18	3
10	69	6
75	138	2
218	218	5
161	161	5
45	46	5
126	127	4
57	60	2
156	158	1
26	26	3
89	89	1
228	230	2
242	242	3
109	109	2
213	216	3
38	39	1
240	240	1
71	72	5
211	211	1
47	179	2
84	86	2
239	240	3
27	28	2
81	81	3
150	150	6
14	49	3
98	151	2
115	117	3
55	55	5
49	50	1
18	18	5
50	50	2
227	229	2
198	204	2
15	48	4
229	229	2
150	207	1
233	235	1
65	65	4
180	232	2
118	118	3
85	85	6
172	221	2
61	62	3
159	159	5
174	175	4
168	169	1
171	172	5
103	106	1
235	235	5
202	203	2
149	220	3
40	42	6
224	224	1
36	36	2
20	20	2
169	169	3
64	65	6
196	196	2
124	171	3
75	76	1
125	125	2
24	32	3
54	55	2
80	172	1
3	3	1
13	15	2
6	6	4
213	215	1
59	199	3
98	150	1
137	137	3
48	54	1
106	106	2
58	58	3
96	125	1
45	45	2
167	170	1
90	90	5
146	147	4
9	40	1
108	108	3
184	184	1
99	207	1
115	116	1
140	146	2
97	97	2
67	67	3
150	151	2
99	100	7
100	100	5
26	27	3
37	37	3
12	12	2
113	122	2
202	233	3
66	66	3
70	71	4
39	39	3
198	198	3
193	196	1
8	8	5
101	128	1
170	172	2
8	9	3
197	202	1
30	37	1
7	8	1
200	201	1
63	83	1
59	60	1
201	201	3
102	102	2
81	84	3
223	236	4
57	58	2
202	238	2
221	221	3
76	76	1
136	136	3
203	204	2
9	9	10
17	17	5
6	66	2
205	206	2
95	95	1
10	28	1
15	15	1
198	201	1
195	214	4
102	103	1
2	2	1
12	28	1
189	212	2
162	166	1
126	126	2
95	96	1
138	139	1
157	165	1
34	34	1
1	18	1
61	73	1
151	152	1
104	158	2
127	128	1
203	241	2
106	107	1
101	153	1
210	211	1
200	200	1
35	36	2
236	236	1
3	65	1
120	121	1
216	217	3
68	68	2
133	133	2
53	53	1
128	130	1
211	236	1
110	110	2
114	114	1
227	228	1
13	16	1
2	69	1
19	36	2
147	148	1
155	155	2
178	178	1
9	235	2
188	189	1
115	115	1
206	206	1
10	178	1
144	147	1
239	239	2
158	158	2
220	222	2
193	193	1
112	113	1
69	69	2
167	169	1
184	187	1
64	232	1
191	218	1
162	163	1
137	139	1
124	124	1
137	144	1
12	29	1
129	171	1
196	197	1
113	117	2
48	50	1
130	206	2
198	239	1
99	99	1
12	13	1
140	145	1
159	192	1
140	142	1
65	81	1
123	123	1
11	45	1
222	223	1
198	223	1
214	237	1
