86	86	11
43	43	10
93	93	14
66	114	3
58	58	15
91	91	20
65	109	2
99	99	15
131	133	2
124	128	1
28	123	1
35	35	9
70	70	15
28	28	9
8	8	19
36	36	14
116	116	13
64	64	26
44	46	5
105	105	17
19	19	19
42	86	4
77	119	5
0	0	10
15	18	2
120	120	13
19	21	2
9	9	17
31	31	15
104	104	23
65	65	11
101	101	6
119	119	19
15	15	8
63	63	11
22	22	16
21	22	4
109	109	22
77	77	19
126	126	20
53	53	15
13	23	2
5	5	5
12	12	14
37	37	6
25	25	7
117	117	2
83	83	14
2	3	1
128	128	20
96	100	4
130	130	22
65	66	3
70	71	3
4	4	21
30	30	14
96	96	12
49	50	9
59	59	10
102	102	9
8	9	11
87	87	6
12	71	6
127	127	14
60	60	15
127	128	10
129	129	10
24	25	12
66	116	2
69	69	3
113	113	16
54	55	7
77	79	4
33	34	4
45	45	13
18	18	19
29	29	13
6	7	15
16	16	17
105	128	1
52	53	1
107	108	4
110	111	1
77	78	11
88	88	13
112	112	11
13	14	9
132	132	15
98	98	17
14	71	3
70	74	2
11	114	2
125	125	11
48	48	5
20	20	6
75	80	3
0	60	3
87	88	8
95	120	6
13	13	13
13	33	1
73	73	11
61	61	8
108	110	1
20	22	1
67	68	5
64	115	5
112	113	10
70	72	1
3	3	20
62	63	6
130	132	4
11	11	13
92	92	19
70	75	4
7	7	10
124	124	20
0	134	2
100	100	13
10	11	8
7	114	3
45	46	10
95	102	3
44	44	19
76	76	22
121	121	20
95	95	23
62	62	7
92	93	3
32	32	16
82	82	13
3	4	4
22	52	1
14	14	17
21	21	21
78	78	16
96	111	2
22	23	8
27	27	17
71	71	8
12	13	6
121	124	13
123	124	2
108	108	6
74	74	7
43	87	5
97	111	3
97	97	15
67	67	13
111	111	13
110	118	5
125	126	7
79	79	7
2	2	11
84	84	12
23	23	17
81	126	1
72	72	22
100	106	2
124	129	6
32	34	8
126	127	3
72	73	3
122	122	22
24	24	13
74	81	3
106	106	9
130	131	7
17	18	1
134	134	13
26	26	10
110	112	3
17	25	5
114	114	10
85	85	14
47	50	2
45	47	2
33	33	9
68	68	8
6	10	4
44	83	12
107	130	2
64	66	5
4	36	5
0	1	11
132	133	5
29	30	6
44	59	1
89	90	6
34	34	12
38	39	3
18	24	1
6	8	3
100	130	1
89	89	9
61	63	3
67	69	4
65	68	3
115	115	18
82	85	2
109	110	2
54	54	15
42	43	1
118	118	18
75	75	14
56	56	8
18	19	3
1	2	7
9	114	7
69	131	1
94	96	1
27	28	9
121	125	3
44	45	2
109	126	1
123	123	9
95	96	3
121	122	6
123	132	1
133	133	11
106	107	2
131	131	12
26	38	4
0	54	2
124	125	4
103	103	11
66	66	3
15	16	1
105	106	3
36	37	9
47	47	7
55	55	5
90	90	20
127	129	10
97	105	1
52	52	14
22	73	2
30	42	3
68	69	2
13	24	4
13	72	6
12	23	3
30	34	2
5	11	1
10	10	13
15	17	2
80	80	14
4	113	2
121	123	2
34	84	2
81	81	10
106	119	2
91	93	3
14	15	1
67	129	5
2	84	3
94	94	17
48	50	2
29	75	4
79	111	5
58	59	9
61	62	2
102	103	1
9	10	7
56	57	2
25	33	4
101	134	1
87	91	1
37	38	5
78	131	4
129	133	1
1	1	13
14	69	4
100	119	4
62	64	9
46	46	1
3	5	6
66	67	2
80	81	5
119	120	5
57	58	4
115	116	4
96	119	6
120	123	3
17	17	7
131	132	4
29	126	2
63	64	4
116	117	3
1	105	3
3	38	3
120	121	4
23	24	4
100	101	4
51	51	9
6	112	3
38	38	6
94	95	2
97	114	1
6	6	4
133	134	1
85	93	2
19	20	5
79	80	5
25	26	5
129	132	3
57	60	2
11	63	3
57	57	5
108	130	2
119	123	3
68	79	3
111	112	5
49	49	8
16	68	2
9	11	1
122	123	5
48	91	1
83	84	5
107	107	8
117	118	5
108	109	1
0	111	2
5	37	1
99	133	3
11	12	2
118	120	3
110	110	1
90	104	1
94	118	2
98	99	6
43	85	2
44	49	2
49	52	1
5	6	2
106	111	4
27	38	2
112	117	1
71	72	2
0	4	1
55	56	3
81	82	3
129	134	2
132	134	3
78	133	2
4	37	2
85	118	1
86	88	3
69	70	2
12	14	2
63	80	2
21	88	4
35	36	2
114	116	1
16	24	4
96	97	4
92	94	2
106	132	1
96	104	1
108	127	3
134	135	1
114	115	4
11	24	1
7	8	1
99	105	3
66	115	1
8	25	2
60	61	3
50	50	10
15	21	1
11	27	1
32	35	2
16	67	1
113	117	4
76	114	1
63	96	1
90	91	1
78	79	2
35	49	2
53	55	1
9	27	2
87	121	2
6	9	4
12	15	2
32	33	2
14	21	1
26	27	2
11	28	1
73	120	1
29	76	1
85	117	1
38	86	1
63	65	1
16	17	1
106	112	1
63	99	1
98	100	1
107	110	2
99	101	1
73	74	1
5	38	1
5	30	1
47	48	1
130	133	1
82	83	4
6	38	1
63	76	2
15	54	1
109	120	2
70	73	1
129	130	2
68	118	1
34	35	2
61	79	2
45	49	1
99	128	1
31	32	1
1	50	1
93	94	1
83	86	1
103	104	1
63	73	1
86	91	1
10	61	1
135	135	2
54	56	1
118	119	1
38	42	1
98	102	1
16	69	1
27	125	1
67	124	1
4	5	1
30	31	1
114	117	1
85	86	1
29	37	1
3	6	1
87	90	1
94	116	1
88	90	1
44	82	1
107	113	1
