90	92	2
72	72	10
51	55	5
73	88	5
65	70	5
22	26	2
57	58	9
93	95	5
92	99	3
81	81	13
64	64	5
73	75	5
25	25	5
64	65	9
76	88	1
34	38	2
37	39	2
20	20	4
51	51	11
67	68	6
81	85	3
92	98	3
98	98	16
25	27	4
37	42	3
38	43	2
36	36	7
75	82	4
75	76	5
100	101	5
40	44	3
75	75	9
23	26	2
50	51	3
77	86	2
58	58	9
94	97	5
20	26	5
68	70	2
62	69	3
61	61	18
79	79	22
99	102	6
78	78	6
28	28	4
101	101	15
44	45	2
92	97	5
55	58	1
47	49	4
91	93	5
83	84	3
68	68	19
87	89	7
89	99	2
63	63	7
38	39	12
65	66	5
24	32	4
30	37	2
87	87	19
82	82	2
33	35	3
60	60	11
83	88	2
68	72	5
66	66	4
81	87	2
77	77	17
66	77	2
93	97	8
65	65	14
80	81	2
62	63	3
62	67	2
39	43	1
27	27	2
99	100	2
71	74	4
20	25	1
92	93	10
92	102	2
92	92	5
79	88	1
77	80	4
67	73	3
83	91	1
50	52	12
79	81	3
61	69	4
41	48	1
95	100	2
98	99	6
88	97	1
87	95	6
25	33	5
49	51	4
59	66	1
86	86	18
92	101	2
50	50	5
47	47	6
42	42	1
80	80	11
71	80	1
86	90	4
61	63	1
86	89	10
40	40	5
73	77	3
79	85	2
53	61	4
90	90	4
70	70	14
70	78	3
64	70	1
42	43	5
20	32	4
54	55	2
89	89	6
59	59	3
59	63	3
65	76	2
77	81	11
47	54	2
74	74	6
85	85	5
64	66	2
46	46	3
83	83	7
73	74	7
55	57	1
89	92	4
63	67	2
93	94	4
79	87	10
31	31	6
54	54	15
74	77	1
87	88	9
55	62	1
29	36	4
68	69	2
61	68	6
96	101	3
55	64	1
46	50	4
68	79	1
74	79	3
48	57	1
71	72	2
79	92	4
96	100	1
93	101	2
31	40	3
28	31	1
71	78	3
78	79	2
20	21	4
35	40	2
22	22	3
62	70	4
67	67	13
85	86	3
72	73	6
86	87	16
66	70	2
73	73	4
55	59	9
59	61	2
74	76	2
61	66	6
91	96	4
38	41	5
61	67	2
63	66	4
66	74	2
65	68	2
31	39	3
41	47	3
29	35	2
62	66	4
68	76	2
71	73	4
58	64	5
56	60	3
61	65	1
93	99	2
74	89	1
97	97	4
77	79	6
56	63	2
55	55	1
46	58	2
79	80	9
34	37	1
71	71	15
93	100	1
45	45	8
89	95	2
89	91	5
81	89	4
76	87	3
62	68	3
30	33	4
29	29	1
95	95	2
58	60	2
44	53	2
63	73	3
82	84	3
85	88	4
46	52	4
46	51	1
73	78	2
90	97	2
57	57	2
85	95	1
66	68	2
51	52	5
69	74	5
88	88	4
51	53	1
20	22	4
53	53	3
75	77	5
69	70	1
31	34	2
26	26	3
62	62	6
69	73	1
24	24	2
76	76	7
91	94	2
83	85	1
72	76	4
44	46	5
94	95	1
64	67	2
84	87	3
88	89	6
49	61	1
86	88	3
54	59	1
45	53	2
48	53	4
99	101	2
90	91	2
66	76	5
64	68	3
55	56	2
59	68	2
52	54	2
28	33	1
43	43	1
70	75	5
74	80	1
97	101	1
61	72	2
25	26	2
98	101	2
63	64	1
61	62	1
78	96	2
34	34	2
40	41	3
49	50	2
72	74	1
71	88	1
60	69	1
48	48	1
29	39	3
38	38	2
76	79	1
72	78	1
30	36	1
89	90	2
38	42	3
51	61	2
30	34	1
63	65	2
84	85	3
22	23	1
84	88	2
70	74	2
62	75	1
35	36	4
78	80	1
85	87	3
69	71	1
66	71	3
80	86	3
94	94	9
81	82	3
64	74	4
29	38	3
70	71	2
45	54	6
32	38	2
91	92	2
39	41	1
70	77	1
84	84	1
38	45	3
91	91	7
50	55	1
31	33	1
70	82	1
66	67	1
42	45	1
71	75	2
88	100	1
77	84	3
76	78	3
79	82	2
36	37	1
40	48	1
95	96	1
42	64	1
72	80	1
46	48	3
95	101	1
40	50	1
47	50	2
56	59	3
60	62	2
40	51	4
57	59	3
33	33	2
65	67	1
56	56	1
25	29	1
63	70	2
84	93	1
52	52	1
96	97	2
38	49	2
67	74	2
51	56	1
41	42	2
76	77	1
93	93	1
80	91	2
65	73	1
78	85	3
87	92	2
23	27	1
26	27	1
41	44	1
66	69	3
41	43	1
93	96	1
99	99	2
87	96	1
74	78	1
60	65	2
67	75	3
81	88	1
45	47	1
24	28	1
53	59	1
43	45	1
91	100	1
42	52	1
83	86	1
77	88	1
47	58	1
93	98	2
48	49	3
38	44	1
46	53	1
37	38	1
45	51	1
90	101	1
66	73	1
76	80	1
81	86	2
81	84	1
47	52	1
72	77	1
33	39	1
68	78	1
71	77	1
89	93	1
88	96	1
74	82	1
29	34	1
