111	142	2
47	47	10
90	90	7
114	114	6
144	152	3
20	21	3
100	100	2
3	6	2
103	103	11
15	111	1
55	55	6
25	87	3
154	154	8
73	73	7
159	169	1
66	66	6
39	40	1
77	77	7
170	170	9
117	117	3
180	183	1
53	54	2
107	107	7
3	3	6
12	12	5
87	95	1
93	104	5
78	150	1
156	156	6
42	42	1
10	10	7
26	86	2
184	184	2
123	123	2
79	79	3
184	185	1
152	152	3
64	65	3
1	1	8
79	113	2
43	43	1
187	188	1
54	54	5
14	15	3
100	105	10
17	17	4
156	170	2
143	148	1
72	74	5
83	83	1
126	127	5
4	4	6
187	187	2
46	46	9
84	84	9
24	94	5
40	40	16
54	55	3
143	144	2
82	82	3
72	72	5
48	54	8
115	116	3
2	2	7
56	65	3
151	151	1
105	105	3
94	95	3
137	137	3
128	128	3
79	118	3
87	92	3
109	109	2
0	0	5
106	109	1
61	61	6
132	135	3
119	119	10
59	59	4
137	138	3
138	138	10
57	57	2
99	106	1
48	82	2
175	175	9
38	38	9
181	181	3
151	183	4
126	126	2
33	33	2
80	111	3
16	111	2
6	7	3
5	8	3
99	99	7
4	165	2
33	34	4
41	41	4
15	15	1
79	120	2
56	56	2
71	71	6
142	142	4
39	39	3
84	89	4
25	30	2
140	140	8
41	55	4
157	157	3
55	101	3
83	85	2
150	152	2
28	67	4
21	21	4
31	37	1
104	104	4
169	169	2
22	24	5
7	8	2
186	186	4
130	130	3
101	101	3
177	179	2
67	68	2
22	23	3
92	92	7
134	134	1
127	127	2
129	129	4
68	71	1
47	66	2
9	12	7
121	121	4
70	70	1
141	141	1
170	174	3
148	148	7
40	47	2
60	60	3
146	146	3
57	59	4
62	65	4
40	41	2
32	33	2
90	104	1
8	13	1
164	165	2
29	106	3
5	5	4
65	65	5
110	110	3
3	106	3
67	67	3
141	142	4
145	145	4
30	67	1
78	78	2
14	111	3
123	124	4
174	174	7
26	76	2
173	173	4
8	154	3
142	151	2
35	35	8
85	90	1
13	145	3
151	152	4
55	56	4
122	122	1
75	76	3
11	155	1
13	146	2
27	27	1
68	70	1
17	91	1
125	140	1
62	64	2
189	189	1
24	24	4
116	121	1
115	122	3
17	18	2
94	94	2
74	76	2
95	95	1
43	44	4
108	108	4
172	172	5
88	89	4
30	30	7
120	131	1
25	25	6
17	86	1
34	35	1
96	96	2
30	69	2
173	174	3
138	139	1
58	58	5
160	160	2
31	36	3
130	131	2
170	173	1
32	32	2
155	155	2
8	8	1
144	151	1
81	112	1
185	185	1
150	150	2
145	146	1
120	120	1
84	85	2
41	47	1
190	190	1
86	86	1
21	25	3
85	86	1
110	111	1
29	98	2
89	89	1
160	170	4
11	12	1
168	169	3
53	53	4
24	25	1
16	16	1
161	162	1
31	32	2
157	170	1
22	25	1
25	94	3
160	166	1
118	118	1
3	5	3
48	48	3
106	106	4
58	59	1
17	21	2
147	147	2
102	102	5
135	135	1
91	94	2
136	137	2
158	158	2
42	55	1
167	168	2
155	166	2
143	143	1
19	85	2
6	10	2
171	171	1
77	110	1
27	97	1
46	47	1
76	77	1
164	179	1
113	113	2
52	52	2
177	177	1
166	166	1
22	22	3
166	181	2
20	25	1
37	37	1
52	54	1
161	161	1
97	97	1
78	148	1
154	167	1
106	107	3
27	108	1
32	34	1
139	139	1
154	165	3
176	185	2
162	177	2
1	2	2
181	182	1
77	151	2
19	25	1
153	182	1
7	7	1
14	14	2
180	181	1
157	169	2
63	63	1
95	96	1
128	139	1
88	88	4
125	125	1
49	49	2
127	140	2
131	133	2
15	86	1
94	104	1
27	30	1
26	26	1
21	23	1
162	162	1
146	147	1
131	131	1
147	150	2
91	92	1
79	117	1
158	170	1
118	138	2
79	81	1
143	152	1
76	76	1
27	96	2
111	113	1
176	177	1
132	132	1
183	183	1
167	167	1
26	95	1
38	39	1
61	62	1
128	129	1
56	102	2
13	74	1
