150	150	14
83	100	2
58	59	10
13	76	1
131	131	19
107	108	2
146	164	1
47	61	5
27	27	2
45	45	12
118	118	13
122	122	4
43	43	14
160	160	9
54	56	3
181	193	3
155	156	8
117	117	9
106	120	3
130	130	13
163	164	2
171	171	8
155	155	7
25	25	15
68	77	4
109	109	6
110	110	8
140	140	10
70	70	6
26	26	11
186	186	19
161	161	13
108	108	1
70	71	7
23	23	11
169	169	4
102	102	4
160	161	2
146	187	1
127	127	4
196	196	7
37	37	5
48	48	7
111	111	4
60	60	14
64	65	3
133	165	2
64	127	2
168	174	2
109	111	1
173	187	1
68	74	5
184	184	9
133	133	6
19	19	11
168	168	8
57	58	5
187	187	6
55	56	6
151	152	3
143	143	9
151	156	1
191	191	7
31	31	16
172	176	2
2	25	6
36	36	4
68	111	2
18	20	2
100	101	4
108	128	2
98	99	3
136	136	6
90	90	2
142	142	11
74	123	8
115	115	8
63	63	13
72	73	3
8	8	3
194	194	8
183	183	14
167	167	2
116	117	4
122	123	3
36	57	2
15	15	11
152	152	5
84	87	5
54	55	8
52	52	7
103	103	2
4	5	3
124	124	5
15	16	4
18	19	2
35	35	8
37	118	3
13	13	6
44	44	4
149	155	2
129	139	2
12	75	3
50	50	15
81	82	5
73	74	9
182	182	10
167	184	1
180	182	4
94	95	5
105	105	4
24	24	4
192	192	19
71	71	14
29	30	1
1	23	4
43	56	2
173	173	3
13	75	2
156	157	4
44	54	2
79	79	3
146	155	2
114	142	3
14	14	12
167	168	2
156	156	3
2	2	2
131	132	3
114	114	10
186	195	2
76	76	6
126	126	3
144	145	4
166	166	8
134	135	4
113	113	12
40	40	11
41	41	7
185	185	3
162	167	2
3	3	5
188	188	11
189	189	3
95	95	1
17	17	1
87	87	5
75	77	4
165	165	3
178	178	2
116	141	3
40	41	3
43	44	4
101	101	10
31	32	4
80	80	3
49	49	3
9	10	4
65	73	5
163	167	5
148	148	5
159	164	1
69	69	10
54	54	2
130	138	10
24	25	7
84	84	2
0	28	5
121	121	10
20	21	3
4	6	1
161	162	9
134	134	11
90	97	3
32	32	5
13	14	2
139	139	7
128	133	7
107	125	2
73	73	10
153	153	5
58	58	6
177	177	14
176	177	2
9	9	2
195	195	2
10	10	14
132	132	6
174	174	6
163	163	13
171	174	5
175	175	6
21	86	2
47	47	8
81	81	5
113	168	2
74	74	4
145	146	4
11	17	5
67	68	3
107	107	4
145	145	3
55	60	1
178	179	8
46	54	2
170	170	5
22	23	7
42	60	7
50	125	1
50	101	3
116	116	6
168	182	1
33	33	3
68	118	1
114	118	3
11	13	3
59	59	7
68	68	2
64	69	1
64	64	11
38	38	6
93	96	3
143	187	3
169	182	7
109	121	2
21	21	4
99	99	7
133	137	5
67	67	7
42	55	5
130	133	3
183	184	1
124	127	1
30	30	7
149	149	5
61	61	9
18	18	1
125	125	4
172	174	5
179	180	4
26	27	3
55	55	5
7	7	3
2	22	2
17	24	2
49	195	2
181	182	9
47	48	4
65	123	2
71	73	5
80	143	4
176	176	14
190	191	2
2	28	2
0	17	4
113	141	3
110	113	3
97	97	8
108	126	2
51	131	2
159	159	3
41	42	3
56	56	4
134	159	3
152	153	2
46	46	9
66	66	4
195	196	2
19	20	3
6	6	5
16	16	6
130	139	1
162	162	3
166	191	1
83	83	3
135	135	4
184	185	2
56	63	3
14	15	1
123	123	6
109	138	3
101	121	2
53	54	1
112	112	1
172	172	4
34	34	4
137	159	2
118	141	1
36	37	1
69	73	2
137	138	2
133	134	1
85	85	2
74	76	5
51	52	4
14	17	1
12	12	8
174	186	2
138	138	3
139	141	2
125	126	3
4	4	4
16	17	3
11	12	1
119	138	2
192	193	3
129	138	1
96	99	1
120	120	5
16	29	2
144	144	3
5	6	4
163	165	3
114	159	1
189	190	1
151	167	2
77	112	2
88	88	3
17	19	1
34	36	5
147	158	2
1	22	4
39	39	4
111	141	2
28	28	6
75	88	2
7	8	2
146	147	3
49	52	2
51	51	2
51	53	1
1	3	3
62	63	4
129	129	2
77	81	3
47	49	4
117	118	3
57	57	7
108	122	1
94	117	3
104	160	1
67	118	7
32	52	1
75	75	3
37	68	3
179	179	4
39	89	2
50	61	1
0	30	1
98	98	1
186	191	1
139	140	2
183	196	2
30	31	4
142	147	3
11	11	4
96	98	1
143	145	1
158	190	2
188	189	2
62	88	4
29	31	4
181	181	6
143	151	3
67	111	1
103	120	1
146	146	3
141	141	2
20	84	1
144	196	1
49	127	4
107	138	3
151	155	1
186	188	2
98	102	1
43	51	1
197	197	3
42	42	4
33	148	1
82	84	1
69	71	1
65	65	10
39	41	2
96	96	1
122	126	3
50	194	2
127	128	1
122	130	1
93	101	2
130	131	2
59	60	1
112	113	2
140	145	2
42	56	1
152	196	1
58	79	1
66	68	3
12	13	1
55	63	2
78	81	4
2	4	1
79	142	1
148	153	1
119	130	1
110	141	1
100	116	1
59	62	2
132	133	2
174	176	3
108	123	2
144	187	1
23	34	2
123	124	1
159	161	1
77	78	1
157	157	1
106	121	1
157	160	1
162	163	2
100	117	1
28	29	1
106	107	2
116	189	2
39	87	1
32	33	2
173	176	1
151	151	2
95	99	1
56	57	1
23	24	1
59	72	1
138	140	2
81	122	1
1	24	2
172	173	3
27	86	1
125	127	1
174	175	1
25	26	1
40	42	1
70	196	1
62	62	3
74	75	2
133	155	1
134	163	3
154	155	1
17	18	1
83	85	1
5	5	1
135	136	3
106	106	3
19	34	1
45	46	2
68	119	3
21	27	1
115	116	2
89	89	2
164	164	4
94	116	1
83	87	1
187	188	1
97	99	1
97	119	2
98	101	3
169	170	2
0	38	1
114	141	1
165	176	1
85	86	2
121	127	1
154	154	1
109	110	1
82	82	1
109	123	1
50	51	3
173	174	3
128	128	4
50	128	2
14	76	1
37	57	1
138	139	1
79	80	1
20	20	2
25	27	2
9	87	1
11	15	1
131	139	1
105	120	1
44	53	1
71	72	1
16	79	1
70	76	1
100	100	1
1	21	1
0	37	2
1	1	1
132	139	1
169	171	1
23	33	1
52	58	1
88	89	1
84	85	1
51	59	1
132	169	1
57	61	1
52	53	1
141	142	1
133	174	1
4	8	1
108	118	1
14	101	1
83	86	1
164	165	1
115	189	1
62	73	1
160	162	1
190	190	1
84	86	1
105	107	1
73	111	1
59	75	1
