128	129	1
119	122	3
126	126	9
10	10	14
157	158	1
99	99	3
0	53	2
42	42	17
66	67	4
137	137	14
78	94	2
13	13	8
150	150	6
114	114	8
36	36	3
105	136	3
112	125	4
71	71	7
62	62	4
105	112	3
73	111	1
52	52	9
6	6	5
12	12	3
110	111	3
144	144	10
57	57	20
34	34	14
134	135	4
8	12	1
95	123	2
146	146	17
65	65	8
119	124	2
157	157	11
142	142	4
95	96	3
121	124	5
41	42	6
85	85	5
151	151	10
117	117	1
108	108	21
137	138	1
91	92	7
55	55	5
101	101	4
69	69	9
50	50	4
48	49	3
110	110	16
64	66	4
165	165	12
24	51	2
37	37	7
138	138	9
9	9	7
73	75	2
26	26	4
39	39	4
7	7	13
93	93	6
64	65	6
116	117	4
20	24	4
28	28	6
119	119	7
141	141	11
99	100	7
134	163	2
76	76	7
125	125	11
5	167	2
56	56	4
50	51	3
151	152	2
140	140	9
130	130	9
108	141	7
99	102	3
62	63	4
46	55	6
108	144	3
158	158	11
106	106	8
109	109	7
87	89	2
117	119	10
46	46	5
77	131	1
80	80	2
36	37	1
22	22	4
74	150	2
149	149	11
128	128	5
83	83	5
74	74	8
43	43	8
132	132	1
160	160	5
154	154	11
95	95	1
143	143	12
135	135	15
88	88	16
121	122	1
84	150	8
109	138	1
55	56	3
44	45	6
7	138	3
18	18	2
11	52	8
136	136	8
74	76	2
68	68	9
17	17	14
145	145	9
35	35	18
40	40	4
139	139	8
2	110	2
3	163	4
3	3	4
87	87	7
24	24	9
103	104	3
150	151	2
144	145	4
107	107	5
98	147	5
106	150	1
15	15	7
149	162	3
137	141	2
105	145	3
24	25	5
51	53	3
155	155	11
159	159	11
66	66	5
74	90	2
38	38	3
121	121	6
10	11	7
163	164	4
15	16	1
75	90	2
118	118	5
137	139	1
46	114	1
112	112	4
47	56	1
85	86	11
57	115	2
42	159	1
78	78	6
22	24	3
75	97	2
161	161	7
81	82	2
134	134	5
115	115	3
111	112	2
54	54	9
120	120	6
0	13	1
84	84	4
90	91	4
100	100	9
48	48	4
129	130	1
161	164	1
135	149	5
168	169	8
46	50	6
86	86	12
82	82	4
14	14	8
0	4	2
48	164	1
107	111	1
156	156	8
116	152	3
139	150	3
91	143	1
97	97	2
89	89	6
86	87	4
2	3	1
67	67	3
108	109	5
8	8	2
11	12	2
54	160	1
113	113	3
105	106	3
98	98	2
110	159	3
134	149	2
4	161	1
16	16	3
1	1	7
76	84	1
73	73	7
111	111	9
156	157	2
87	88	6
141	142	1
47	49	3
133	133	9
20	20	3
140	141	1
23	23	11
71	72	1
79	79	5
83	97	2
152	152	8
88	150	2
140	142	1
11	11	18
17	24	2
95	97	2
64	136	4
144	148	1
0	0	4
122	123	1
155	156	3
2	2	1
112	136	6
133	162	1
1	2	2
143	144	1
6	7	6
26	145	1
74	97	2
3	166	1
41	43	1
49	49	5
101	150	1
52	53	3
105	125	1
97	99	1
47	48	3
124	124	6
91	93	3
45	45	2
136	137	2
162	163	3
2	4	3
75	76	4
66	83	2
137	167	2
102	102	6
129	129	2
107	108	2
63	63	3
162	162	1
100	102	3
46	47	2
145	147	1
41	41	1
3	8	2
68	152	2
70	70	8
34	158	1
75	96	1
109	110	7
164	164	2
3	6	1
82	100	2
33	33	3
170	170	5
106	108	2
16	26	1
116	156	4
78	80	2
96	96	3
69	70	1
122	122	5
8	166	2
53	53	2
166	167	3
132	133	3
144	146	1
75	75	3
91	91	3
90	90	4
79	146	2
158	159	1
123	123	1
73	74	8
142	148	2
69	74	4
3	164	1
11	15	2
17	26	2
70	72	1
107	148	2
18	23	4
121	154	2
117	118	3
147	147	3
94	94	2
81	83	1
12	15	3
44	44	2
47	47	3
25	25	4
97	98	1
67	100	2
80	82	1
68	70	3
111	113	1
77	80	4
7	8	4
20	90	2
102	105	2
82	132	2
5	6	2
102	104	1
76	131	3
100	101	3
66	135	2
21	21	5
167	167	2
66	100	1
50	55	2
131	131	3
140	143	1
41	67	1
20	44	3
84	149	1
107	141	3
1	54	2
112	169	2
14	144	1
16	18	2
88	89	4
86	134	1
34	36	2
117	155	1
26	27	1
70	152	1
133	149	6
169	170	3
132	147	3
104	104	2
71	170	1
54	58	2
38	70	1
38	39	2
15	52	4
34	159	1
27	52	1
7	57	2
10	166	2
94	124	1
103	103	1
154	155	2
49	57	1
51	51	4
155	157	2
2	163	1
92	92	5
108	139	5
21	22	2
21	52	2
0	1	3
41	154	1
161	162	2
24	161	1
116	116	4
52	54	2
133	163	1
106	107	1
92	95	1
39	40	3
56	58	1
136	146	1
38	154	1
97	142	1
19	19	1
166	168	1
81	81	3
1	73	1
37	155	2
118	123	2
74	75	2
139	140	1
96	117	1
27	27	3
38	40	1
53	57	2
89	90	2
80	104	1
164	165	1
82	99	2
47	161	1
105	105	2
74	81	1
69	96	2
112	114	1
102	115	1
115	125	2
127	127	4
102	114	1
71	150	1
80	98	1
113	124	1
79	80	1
23	58	1
148	148	1
120	125	1
123	124	1
56	57	1
167	169	1
14	164	1
77	77	1
12	167	1
18	19	1
165	166	1
76	103	1
116	126	1
114	115	1
35	93	1
119	120	1
112	137	1
83	84	3
5	5	2
120	122	1
13	51	1
64	64	1
38	68	1
7	9	1
119	121	1
128	133	1
138	139	1
169	169	1
10	16	1
145	146	1
80	81	1
