14	31	1
5	5	1
135	136	1
107	107	17
67	68	1
168	168	16
66	151	3
149	149	13
102	102	3
128	143	3
10	10	5
30	30	10
154	158	2
36	38	6
133	133	5
118	119	2
116	118	4
140	140	4
156	156	4
61	61	4
6	12	1
98	98	4
117	117	2
66	66	6
122	126	3
120	120	2
134	134	3
87	87	4
128	128	7
125	133	7
79	79	8
63	91	4
175	177	2
44	73	3
3	4	10
172	173	4
44	44	8
88	88	7
103	103	7
155	155	6
138	138	8
55	78	1
111	111	3
57	60	6
37	52	3
72	74	5
67	92	3
10	11	2
72	72	4
144	144	4
141	158	1
77	77	6
76	76	4
172	175	1
142	142	13
148	157	3
54	62	6
35	38	7
15	74	3
106	106	8
167	167	11
177	177	6
142	146	2
18	33	5
45	73	2
6	6	4
60	60	3
133	138	3
122	122	3
21	44	4
40	41	3
16	32	9
50	50	2
75	75	8
137	137	5
150	150	6
62	62	6
97	97	7
148	149	1
38	38	7
130	130	2
66	67	3
176	177	4
14	14	1
17	18	3
15	15	1
35	35	4
42	42	3
137	146	1
158	158	4
139	139	17
121	133	2
172	172	3
78	81	1
142	143	8
29	29	7
157	157	3
149	150	2
159	159	5
64	64	7
126	128	2
165	165	10
27	27	2
142	144	6
59	59	3
1	34	2
110	111	1
16	35	2
111	127	2
24	25	3
145	157	1
45	97	2
151	151	4
146	151	2
16	34	3
163	163	7
169	170	1
55	55	7
0	0	4
94	95	3
92	92	4
141	141	3
113	114	3
23	23	12
32	33	2
121	121	3
108	109	1
156	157	3
145	145	1
151	163	2
24	24	5
153	153	3
52	59	2
55	93	2
56	57	16
115	115	1
52	52	8
105	105	1
36	42	1
90	93	2
164	165	2
18	20	4
88	89	6
63	63	2
101	111	6
72	96	2
80	80	5
15	73	1
147	147	2
68	68	10
144	145	3
176	176	5
56	80	2
112	127	5
110	110	3
58	58	2
124	124	7
9	10	3
20	20	5
53	54	6
113	122	5
2	4	3
118	118	9
11	11	5
18	34	2
150	166	5
77	82	2
50	51	2
91	99	3
21	21	7
24	151	3
118	130	3
151	160	4
135	135	1
125	125	2
143	143	8
89	89	11
20	29	3
17	17	4
22	23	1
131	132	2
112	116	3
119	119	5
64	94	4
74	74	1
28	30	3
30	31	3
79	80	1
13	13	1
140	141	1
174	174	1
57	57	2
41	41	6
113	113	3
62	82	1
8	10	1
171	171	9
136	136	4
57	58	2
170	170	2
85	85	2
39	40	2
142	145	3
127	128	4
4	18	1
5	14	4
83	103	4
51	53	2
93	93	7
51	51	6
45	45	3
164	170	2
60	88	2
111	112	4
167	171	3
23	162	3
39	39	6
101	102	2
60	61	1
4	4	6
134	135	2
32	32	2
9	9	1
94	94	2
83	84	2
148	148	2
152	152	1
166	166	3
63	64	1
39	42	4
175	176	2
27	29	3
12	12	5
115	127	3
178	178	2
2	2	2
108	118	4
124	125	3
80	81	2
1	1	1
91	92	2
63	99	1
22	22	4
14	20	2
177	178	3
100	100	2
71	71	4
65	65	1
72	97	4
49	71	1
71	90	2
53	58	2
145	159	2
173	178	4
40	40	1
101	101	1
31	31	3
126	126	4
11	12	2
116	116	1
55	80	4
86	86	2
116	120	1
87	88	1
35	43	2
43	79	2
59	83	2
8	8	2
99	99	1
131	133	1
140	147	1
70	70	1
64	95	1
28	28	1
113	128	2
91	100	4
129	130	2
146	146	1
3	34	1
90	107	3
53	53	2
24	162	3
162	162	1
173	173	3
24	28	2
155	161	1
73	74	3
90	90	2
160	160	2
106	108	1
95	95	1
114	121	1
115	116	1
45	71	1
66	160	1
36	36	1
67	162	2
138	173	1
35	37	3
78	78	3
8	9	1
113	118	1
61	83	1
102	111	1
179	179	1
59	60	1
103	105	1
129	129	2
127	127	1
163	169	3
37	37	1
25	26	4
154	154	1
130	142	1
141	142	1
161	161	1
96	96	1
86	87	1
150	170	1
53	59	1
33	34	1
170	171	1
104	105	1
169	169	1
165	166	1
145	151	1
145	146	1
94	152	1
24	169	1
178	179	1
75	76	1
49	49	1
114	115	1
