100	101	4
17	18	7
104	104	1
81	81	1
51	51	6
131	138	1
82	92	4
66	69	1
77	77	10
1	30	1
128	128	7
15	17	6
140	140	3
24	24	5
78	78	7
133	133	5
32	32	4
106	106	3
5	5	3
157	158	5
154	154	3
137	137	7
38	39	7
109	109	1
46	46	6
87	87	8
49	49	10
41	45	2
1	28	10
35	36	2
8	9	2
107	107	4
10	12	1
99	99	6
82	124	1
73	73	7
120	120	3
112	112	5
117	131	1
31	31	4
116	116	6
121	137	2
106	107	2
109	110	4
50	50	9
133	134	3
130	138	2
34	34	10
44	44	4
121	121	3
145	145	4
64	64	4
126	127	2
68	68	3
30	38	2
6	6	5
110	111	6
104	105	3
103	103	3
138	138	5
87	88	5
78	125	2
65	65	6
51	54	1
131	136	2
135	135	1
52	52	3
106	111	3
121	122	1
1	1	2
26	65	2
26	44	1
12	15	4
138	148	1
111	112	2
152	152	1
136	136	2
12	16	2
89	90	3
2	2	11
85	85	1
151	152	2
153	156	1
7	7	1
110	110	7
95	95	5
91	91	5
120	138	1
13	15	2
112	115	2
28	28	3
102	104	1
0	0	1
129	129	6
115	115	2
142	143	2
100	130	1
36	36	4
70	70	4
136	137	1
131	131	3
16	16	2
119	119	1
129	130	5
116	131	2
82	82	2
134	135	4
112	118	6
3	3	6
12	22	4
3	4	1
43	43	2
112	113	4
131	132	2
76	77	2
10	10	2
66	68	2
69	75	1
29	29	4
98	98	2
97	98	1
157	157	2
147	147	4
118	118	2
38	38	6
33	33	1
42	42	5
158	158	4
150	150	4
19	157	3
30	30	6
113	114	2
90	90	2
39	39	2
18	18	1
18	22	2
132	132	2
75	75	3
90	101	2
41	42	1
37	45	1
92	93	3
46	47	1
51	53	2
139	141	2
86	86	1
20	21	2
132	133	1
51	56	1
104	113	2
127	127	1
111	111	1
12	12	2
89	125	1
114	114	1
34	35	1
41	41	2
53	53	5
132	135	1
130	130	3
63	63	1
26	27	1
151	151	1
24	25	2
67	68	2
20	20	1
155	155	4
115	118	1
143	147	1
56	64	1
35	35	1
142	147	2
115	116	4
37	40	1
96	96	2
31	47	1
37	37	3
18	19	1
31	46	2
108	109	1
108	108	2
72	73	3
55	55	1
66	99	1
152	157	1
38	43	2
45	45	4
152	153	2
51	52	1
72	72	2
146	146	1
36	42	1
91	92	5
43	55	2
11	11	2
125	126	1
26	26	1
90	103	1
77	78	1
24	27	1
48	49	1
23	23	1
94	101	1
94	95	1
134	134	2
144	144	1
93	93	1
88	93	1
38	45	1
68	69	1
124	125	1
