100	106	5
47	123	1
46	46	3
95	95	5
130	130	4
25	25	6
39	45	2
107	108	2
174	174	4
1	1	1
180	180	4
33	33	5
38	38	2
74	85	1
19	19	4
98	98	3
140	140	7
90	90	4
20	20	1
124	191	2
80	80	7
126	126	5
0	1	1
12	12	6
137	153	1
96	98	3
154	154	5
134	134	3
76	76	6
112	112	4
11	11	2
32	87	5
56	56	2
6	7	4
14	15	6
133	134	3
55	56	2
176	176	4
126	194	3
88	94	5
63	63	1
125	125	9
76	77	4
190	190	1
147	147	1
136	170	2
160	160	5
158	158	6
55	55	1
74	74	1
99	99	15
15	15	1
120	146	1
165	165	1
175	176	5
45	45	1
108	172	2
194	194	1
97	97	3
94	95	1
0	15	2
78	78	1
16	16	7
61	61	8
96	96	8
159	159	4
132	132	2
156	156	2
28	58	1
163	164	2
58	58	6
122	145	1
193	193	2
26	26	4
185	185	6
84	84	1
19	20	2
102	116	4
40	40	3
173	182	5
102	192	1
40	42	1
3	4	3
189	189	4
113	115	3
170	170	4
146	146	4
114	114	1
39	40	1
88	186	2
3	3	3
8	83	1
51	51	3
14	14	5
136	136	3
32	35	3
106	106	1
71	71	2
47	47	5
3	9	2
112	125	1
115	115	2
155	155	9
4	4	4
31	36	1
45	158	5
46	47	1
11	72	1
128	130	1
131	132	4
17	84	1
70	70	3
29	29	2
168	168	2
82	82	4
65	65	1
31	31	4
43	157	3
124	126	5
7	8	3
101	144	3
173	176	3
149	149	1
197	197	1
39	39	2
109	189	1
25	26	2
153	153	3
167	168	1
18	85	2
137	138	1
65	67	4
69	70	3
171	171	3
157	195	2
74	86	2
48	48	2
98	109	1
59	59	1
149	150	1
183	183	1
52	52	3
180	182	1
32	32	2
49	49	4
18	86	2
2	24	1
119	145	1
133	133	6
142	143	1
97	186	1
97	185	1
166	166	1
188	188	3
85	85	2
2	83	1
73	73	2
21	23	1
83	83	2
23	23	4
0	0	3
163	167	2
43	44	1
9	9	4
137	137	4
5	96	1
53	53	1
111	111	2
157	157	5
176	177	1
106	107	2
141	141	3
2	19	1
129	191	2
158	159	1
144	144	1
82	84	3
179	179	2
159	160	3
5	26	1
24	25	2
101	122	2
58	59	5
150	150	2
60	69	2
164	167	2
18	18	5
168	169	1
13	13	5
158	160	2
12	14	1
37	37	2
17	18	3
54	54	4
64	64	3
4	64	1
148	148	3
45	161	2
79	81	1
21	24	1
133	181	1
85	86	1
36	36	2
71	72	2
138	138	1
50	50	1
159	195	2
12	72	4
109	109	1
109	110	1
161	164	2
102	102	1
152	152	1
177	177	3
67	67	2
119	120	2
115	191	1
32	36	1
67	68	4
35	35	1
169	169	1
44	44	5
6	26	2
94	94	1
122	149	2
124	135	2
158	161	1
105	105	2
123	123	1
128	157	1
129	157	3
86	86	2
8	8	2
6	6	2
160	161	1
44	195	1
142	142	1
4	66	1
34	35	1
41	41	1
0	73	1
43	43	1
28	68	1
151	151	1
63	64	1
74	76	1
34	34	1
112	168	2
113	113	1
2	2	1
127	128	2
17	17	6
66	68	1
104	138	2
72	72	4
178	178	2
165	187	1
98	99	1
54	55	1
7	7	1
28	97	2
42	42	1
63	69	2
99	110	1
68	68	1
50	51	1
127	127	1
30	87	1
41	177	1
64	65	1
66	66	1
101	105	1
128	171	1
21	21	1
140	153	1
89	166	1
127	193	1
102	117	1
191	191	1
167	167	1
6	25	1
129	192	1
135	136	1
134	138	1
