92	94	1
20	21	8
73	74	13
81	81	32
24	24	7
79	79	14
50	50	21
107	108	5
100	100	13
43	44	11
33	33	22
27	30	6
73	73	15
71	71	21
61	61	24
113	113	15
78	90	7
48	48	21
55	55	20
78	78	29
19	19	9
83	84	4
57	57	13
47	48	12
27	27	12
55	81	3
109	112	2
104	104	9
37	39	10
27	28	17
112	112	6
51	51	24
32	32	32
81	86	3
49	50	5
105	105	9
91	91	30
71	78	2
26	27	2
22	22	15
76	76	12
69	69	13
35	52	1
70	71	6
102	102	19
36	68	2
30	30	17
103	103	16
29	29	18
23	25	6
74	74	19
89	89	15
45	45	18
80	80	10
65	67	4
83	83	15
25	25	18
54	55	3
59	60	13
86	86	14
36	53	5
20	23	1
93	94	13
41	44	5
74	76	5
52	52	15
40	40	5
46	46	26
107	107	11
20	20	6
100	101	10
61	62	6
101	101	14
38	40	5
70	70	28
64	65	5
60	60	12
74	75	10
66	66	14
63	63	9
82	83	2
85	85	21
30	31	17
65	65	21
49	49	9
42	42	34
44	44	31
22	23	6
84	85	10
92	92	14
84	84	11
62	62	9
96	96	7
91	92	5
110	110	16
72	76	4
106	106	19
94	94	15
109	109	25
56	56	10
72	72	9
42	44	4
28	28	12
67	67	24
93	95	6
41	41	22
51	54	2
32	60	9
45	46	5
68	70	2
58	58	14
31	31	13
103	107	4
21	22	3
93	93	24
54	91	1
88	88	20
75	89	1
63	71	2
35	35	11
37	38	8
39	39	8
26	26	7
75	75	17
68	69	7
69	71	3
114	114	7
57	92	5
93	98	2
58	60	4
108	109	4
65	66	9
78	88	3
77	78	5
26	28	2
85	86	3
37	37	19
102	103	6
111	111	30
98	98	25
33	61	4
23	23	3
106	107	3
54	54	9
24	25	3
52	59	1
46	47	6
64	64	16
99	99	17
77	77	12
23	24	5
31	33	5
58	59	3
35	36	5
50	51	8
90	90	5
104	111	1
53	53	14
63	64	9
89	90	4
87	90	3
33	35	2
55	56	7
98	99	1
36	44	1
58	105	2
97	97	9
95	95	12
96	97	5
68	68	9
73	87	2
82	82	9
50	95	2
21	21	8
66	67	1
87	87	19
108	108	13
58	110	3
28	29	13
93	96	1
64	66	4
59	59	15
36	36	7
41	42	3
46	49	1
87	88	8
95	96	10
60	107	1
77	90	2
79	80	5
58	106	2
56	57	2
53	57	3
38	38	9
20	30	2
34	46	2
97	98	4
43	43	10
101	108	4
36	37	2
71	72	4
72	73	4
104	105	4
34	34	9
49	60	5
34	35	11
104	112	3
20	29	3
106	109	3
39	40	10
86	87	4
81	89	1
90	102	4
107	110	1
25	27	4
83	85	3
53	54	2
107	109	4
74	108	2
44	100	4
67	68	7
111	113	2
93	97	2
95	97	2
103	104	3
76	89	2
47	47	9
39	66	5
97	99	2
57	91	3
59	62	1
88	112	1
102	104	2
55	57	4
105	106	3
51	52	4
48	49	6
92	108	1
94	95	1
62	79	3
110	113	3
112	114	3
19	23	3
24	40	1
53	55	5
62	67	1
94	97	2
50	59	4
88	91	3
41	46	1
60	86	1
68	71	1
105	109	4
28	31	1
32	34	1
45	61	3
39	65	2
80	81	6
67	70	1
112	113	7
72	87	3
90	91	1
65	68	2
20	32	2
97	103	1
103	110	2
111	112	3
67	69	2
38	39	5
19	47	1
109	110	3
44	45	3
63	67	4
62	63	2
101	103	2
21	24	1
78	87	4
105	108	2
75	76	2
21	47	1
78	79	3
19	20	2
81	91	2
57	89	1
36	55	1
41	45	2
40	41	2
50	52	2
62	64	3
49	52	1
35	37	2
30	33	2
72	77	1
22	25	3
24	26	1
60	79	1
81	85	1
67	72	1
52	53	1
63	70	1
32	33	3
62	66	1
75	111	2
61	79	1
91	107	1
34	36	2
100	102	1
42	45	1
54	56	1
110	111	2
103	108	1
79	81	1
37	49	1
92	107	1
29	49	2
30	102	1
79	87	1
84	88	1
77	87	1
47	49	1
28	30	1
32	58	1
65	77	1
37	47	1
45	48	1
57	58	1
43	99	1
105	107	1
99	100	1
76	77	1
52	60	1
