114	114	20
149	149	8
95	95	9
147	147	11
66	66	9
108	108	4
99	99	10
12	14	3
85	85	8
29	29	14
54	54	18
71	74	1
73	73	21
28	29	7
70	70	15
67	67	11
98	98	7
137	141	2
139	139	8
23	23	6
99	108	8
5	5	11
151	151	5
147	148	3
106	106	10
106	151	1
13	17	4
107	107	14
71	71	8
97	97	8
146	146	4
143	143	6
95	115	5
128	128	12
11	11	20
84	93	6
131	131	9
100	101	7
109	114	5
94	97	2
134	134	7
20	20	9
82	82	11
62	87	2
23	29	9
45	45	9
57	57	21
38	38	6
135	135	18
100	100	6
37	37	13
3	7	3
119	119	16
18	19	11
67	68	2
7	9	3
5	7	13
62	65	7
80	100	4
42	42	18
136	136	12
93	94	2
92	93	1
113	114	3
96	96	13
22	23	7
51	94	6
113	113	11
49	49	6
25	25	19
118	118	19
73	76	8
114	128	4
26	27	5
53	53	20
132	135	1
41	41	13
112	114	4
17	17	24
82	104	3
36	37	2
83	83	6
84	84	5
152	152	7
79	80	2
109	110	2
71	118	2
116	123	3
102	102	11
10	11	8
84	87	4
27	27	4
40	40	10
47	47	8
94	94	18
154	154	16
3	20	1
122	122	19
133	133	8
140	144	2
140	140	1
76	77	6
99	105	4
149	150	2
68	68	11
124	124	4
137	137	9
24	24	25
16	16	16
38	39	4
48	57	5
125	126	5
22	22	20
110	111	11
131	137	2
36	68	5
82	83	3
131	132	11
65	77	2
103	103	9
43	46	6
153	153	18
3	6	2
97	98	4
28	28	7
112	112	7
124	126	2
54	99	6
13	13	15
17	18	7
20	21	2
119	123	10
48	48	5
107	150	3
138	138	4
15	16	4
95	117	4
19	20	6
50	50	12
94	95	4
62	80	2
97	99	3
45	46	11
27	51	2
39	39	3
75	75	12
10	19	2
101	101	5
104	105	4
53	54	15
7	7	5
51	53	3
136	138	6
145	145	6
143	144	4
29	56	1
72	98	5
34	45	1
15	15	19
130	130	7
63	63	4
132	132	16
106	108	3
56	104	4
108	109	9
104	104	3
86	87	7
110	110	4
38	43	1
109	109	11
121	121	8
108	114	1
83	87	2
120	121	3
124	128	1
32	33	13
149	151	1
7	18	2
55	55	6
26	26	6
122	123	5
33	33	4
105	105	4
30	35	2
72	72	3
40	41	4
135	136	1
90	94	4
21	29	1
93	102	2
43	43	8
144	144	4
34	36	2
112	113	10
9	14	5
6	6	4
80	102	1
39	40	3
34	46	1
46	47	4
81	87	5
109	111	1
29	30	2
126	128	4
72	73	7
35	35	5
41	42	6
54	57	4
56	57	5
140	142	6
96	100	2
11	13	4
145	152	7
86	86	7
95	116	4
78	95	3
123	123	11
6	7	1
96	97	3
144	146	3
2	2	5
80	81	12
116	116	4
125	128	1
4	17	4
111	113	3
115	115	12
6	48	3
129	130	3
63	65	4
56	56	1
76	76	7
126	127	7
65	80	3
4	65	2
145	146	4
121	122	6
93	93	2
36	69	4
11	19	1
42	43	3
21	21	6
18	18	8
10	18	2
79	86	1
150	151	3
129	129	14
111	111	9
31	33	7
78	78	5
33	46	2
65	121	2
79	79	2
23	24	5
77	122	2
105	106	2
49	51	1
69	69	3
120	120	4
94	104	3
136	142	13
150	150	4
69	94	1
78	79	2
132	136	2
8	11	3
62	62	4
54	98	2
57	97	3
74	75	4
138	142	2
123	125	1
109	113	3
90	90	3
146	154	4
34	78	1
117	118	3
44	45	10
85	86	3
77	77	5
37	44	3
6	50	2
50	103	4
46	46	6
13	14	2
40	46	4
36	78	3
26	51	3
142	142	7
51	97	1
15	17	2
75	76	1
3	70	1
127	127	3
147	149	1
33	79	2
27	28	5
30	55	1
141	142	1
88	89	2
30	31	2
42	47	2
116	122	2
22	109	1
127	128	2
2	29	4
58	58	1
35	36	3
73	99	1
7	51	2
87	87	3
8	9	2
10	20	1
12	12	4
32	32	5
136	137	1
74	78	1
9	9	3
48	53	1
22	26	2
141	141	2
41	43	4
135	141	1
66	77	3
124	125	3
36	36	11
117	117	5
93	154	3
21	22	5
34	34	3
5	35	2
11	15	1
24	25	6
133	134	1
48	49	2
8	36	4
103	104	1
72	99	1
75	80	1
128	129	2
63	64	2
75	91	1
42	45	2
7	78	4
115	124	4
74	80	1
138	139	7
34	35	2
53	100	4
9	10	2
67	78	2
37	46	2
129	134	1
19	23	3
32	46	4
88	88	2
103	128	1
54	55	1
83	92	1
132	133	1
109	124	2
138	140	2
125	125	3
55	56	1
109	153	1
6	20	5
19	19	3
68	71	2
30	32	3
23	27	1
43	44	1
10	15	3
130	131	5
4	8	1
52	53	1
8	8	1
28	53	3
66	119	1
10	22	1
142	143	2
105	109	2
64	65	1
25	27	1
4	5	3
56	58	1
109	112	1
12	13	1
14	14	2
142	144	3
68	69	1
56	81	2
47	48	1
64	64	4
144	150	1
33	38	1
25	26	2
37	38	3
55	58	2
16	39	1
84	86	1
148	148	1
146	150	1
109	116	1
57	58	1
16	18	2
55	57	2
73	75	3
139	140	1
24	49	1
7	20	1
100	102	1
5	18	1
93	100	2
110	115	1
111	112	1
99	102	1
136	143	1
84	94	2
83	88	1
53	69	1
56	82	2
51	95	1
22	28	2
98	99	2
79	102	2
130	134	1
6	51	1
56	103	1
102	103	2
6	21	1
141	149	1
144	145	1
37	43	1
67	84	1
31	32	1
104	128	1
23	25	2
134	135	2
16	37	1
16	17	2
64	78	1
70	118	2
26	44	1
24	48	1
80	99	2
6	41	1
49	50	2
139	142	2
48	52	2
105	146	1
65	68	1
36	40	2
22	29	1
2	7	1
34	37	1
146	147	1
14	15	1
153	154	1
9	21	2
25	50	1
54	73	1
6	62	1
