71	71	41
89	96	4
45	45	14
69	69	25
88	88	44
81	81	21
43	43	14
28	28	9
66	83	3
33	38	4
87	88	7
65	73	3
49	49	14
99	100	7
40	40	23
24	24	13
68	68	23
66	66	24
64	64	38
40	41	9
79	81	7
46	53	4
98	98	22
93	93	20
72	72	31
31	46	2
72	89	1
52	64	1
41	41	19
96	96	26
66	68	2
44	44	23
46	47	3
42	49	3
63	79	3
66	69	4
66	72	5
64	65	13
91	91	17
86	86	42
42	65	4
85	85	37
82	83	4
59	63	6
47	47	13
89	89	18
90	94	2
27	27	17
68	83	1
74	75	8
77	77	27
84	84	21
86	87	19
97	97	31
85	92	3
61	61	20
75	75	42
87	91	1
99	99	8
73	73	12
74	89	2
39	53	5
22	47	4
54	56	2
39	44	3
86	88	7
51	63	4
69	90	3
55	66	1
48	48	25
65	65	41
45	84	4
100	100	16
33	33	26
54	54	21
63	63	36
95	95	13
79	79	21
35	35	9
57	57	14
60	60	12
81	83	4
90	99	3
92	94	5
63	92	1
76	76	31
57	63	3
72	73	2
101	101	28
41	45	3
63	64	13
51	52	1
27	28	4
59	59	13
62	63	9
42	42	25
58	58	14
64	72	4
92	93	5
64	69	2
26	26	17
48	63	3
38	55	2
70	79	5
43	57	2
70	70	15
97	102	2
38	38	6
27	51	3
32	55	1
40	54	2
72	76	1
31	32	5
78	78	23
31	31	22
53	53	11
28	54	2
39	39	10
55	55	10
36	37	3
26	65	3
90	90	21
58	64	7
52	67	1
30	41	4
80	85	14
69	70	4
36	36	10
76	77	6
62	62	28
91	94	1
67	68	10
48	49	4
87	87	29
67	86	5
83	83	23
93	95	5
62	99	2
80	80	27
91	92	9
94	94	13
93	98	3
38	41	3
35	46	1
69	73	4
53	54	6
91	99	3
31	38	4
31	86	2
32	33	2
39	40	2
40	45	2
77	78	13
92	92	9
80	88	5
88	94	3
79	80	6
79	85	2
93	99	7
101	102	3
23	36	3
73	87	4
90	91	1
100	101	8
43	44	5
71	73	2
88	89	6
32	46	1
57	64	1
85	95	6
73	81	3
70	71	5
51	64	1
92	98	1
35	39	2
69	72	3
33	34	10
82	82	8
59	61	3
50	51	6
82	88	1
40	42	8
79	88	1
51	70	3
50	50	20
57	86	4
80	81	8
75	76	6
85	88	1
22	22	7
49	65	2
98	99	2
81	82	6
92	97	7
68	71	3
87	97	7
67	67	15
35	40	2
22	62	2
68	69	19
79	99	3
24	25	9
36	38	4
51	51	7
30	70	2
81	84	4
41	42	10
25	27	2
73	74	4
45	48	2
37	39	2
102	102	7
73	83	1
98	100	3
70	73	1
63	67	4
35	36	1
68	70	8
75	102	1
72	74	2
52	52	22
74	76	9
87	101	2
95	96	7
95	99	1
87	95	1
36	54	1
49	50	8
89	97	2
76	78	4
39	43	3
29	47	2
46	46	9
84	93	1
97	99	1
67	69	1
23	27	1
34	35	4
32	32	3
77	80	1
71	79	2
61	71	1
96	97	2
25	26	4
68	85	1
61	69	3
20	20	6
62	97	1
34	34	7
59	69	2
29	29	20
75	83	1
63	69	1
88	96	3
74	74	20
36	77	1
35	52	3
35	37	2
23	29	1
52	73	5
38	39	2
92	95	1
81	89	3
22	35	1
31	36	2
44	51	1
55	58	2
54	57	2
65	66	5
80	100	3
25	25	8
42	43	3
84	92	3
65	71	3
44	68	3
61	87	2
58	59	3
24	33	2
37	37	6
68	89	2
46	48	2
40	47	2
77	79	4
67	70	1
45	47	1
71	91	1
63	86	1
61	68	4
94	99	2
22	29	2
48	60	1
85	86	2
68	84	3
31	45	4
62	74	1
90	98	2
72	81	2
59	68	3
73	82	1
79	89	2
68	80	1
23	24	1
93	101	2
75	99	3
97	101	6
42	45	4
69	78	2
93	96	4
47	48	2
29	33	1
94	95	7
75	78	1
79	83	1
26	27	5
87	92	1
76	81	1
39	56	4
54	55	4
40	44	2
48	87	1
64	79	1
24	32	1
71	72	3
59	60	3
65	83	1
53	58	1
86	89	2
46	61	2
27	29	2
56	56	7
93	94	3
52	66	2
65	84	4
48	57	2
54	61	2
72	88	2
75	79	3
33	45	1
84	91	2
64	77	1
22	50	1
83	87	2
58	62	1
52	102	3
22	39	1
54	58	1
78	82	4
65	89	1
87	100	2
52	78	1
80	86	3
45	64	2
23	23	1
31	33	1
99	102	2
55	56	1
67	71	1
61	62	5
71	74	1
40	43	2
94	96	3
91	93	2
62	87	2
45	52	1
85	96	2
29	32	1
55	57	1
54	66	1
67	74	3
64	101	1
89	91	1
31	39	1
70	72	2
56	74	2
68	74	2
78	91	3
64	74	1
43	64	1
22	27	3
63	77	1
44	45	2
31	55	1
20	22	2
44	70	2
50	72	1
65	68	1
64	102	2
80	82	2
64	71	1
76	79	1
29	35	1
73	86	2
33	35	3
66	67	2
28	29	3
96	100	1
57	58	2
87	96	4
95	97	2
48	71	2
83	84	2
49	61	1
61	98	1
68	73	3
81	87	1
42	50	3
88	100	1
53	62	1
20	70	1
56	63	2
47	62	2
32	53	3
64	73	2
33	49	1
75	90	1
94	98	1
58	70	1
65	74	1
37	54	1
72	96	1
97	98	1
84	87	1
51	69	1
63	90	2
88	98	2
34	44	1
95	98	3
36	49	1
22	23	1
64	75	2
55	74	1
77	93	1
33	52	1
44	62	2
58	69	1
29	44	1
81	85	1
49	86	1
71	86	1
78	84	1
70	74	1
81	100	1
66	79	1
69	84	1
34	36	1
66	75	2
88	91	1
46	64	1
61	63	1
51	79	1
31	48	1
79	101	1
90	92	1
34	37	1
57	67	2
28	32	1
53	61	1
89	101	1
77	82	1
94	97	1
76	96	1
63	101	1
62	70	1
87	94	1
96	98	1
89	93	1
