65	65	14
48	75	4
29	30	6
9	10	3
36	39	9
65	66	15
50	50	10
41	42	2
0	0	6
12	63	3
53	54	10
26	26	8
51	51	16
72	72	4
55	56	2
20	20	5
21	37	3
68	70	1
35	35	24
27	28	7
10	10	10
41	41	5
46	47	12
69	69	9
22	23	2
62	62	11
25	25	15
73	74	2
53	53	13
31	31	9
0	61	4
25	77	1
24	24	10
27	29	4
43	43	16
56	57	4
44	45	5
8	8	11
56	56	4
73	73	7
47	74	2
66	66	7
21	21	8
33	33	5
52	53	1
67	67	9
39	41	3
59	60	7
29	29	12
54	54	17
58	58	6
47	48	4
48	48	16
36	36	9
70	70	8
7	7	5
27	27	6
6	6	6
23	52	4
21	23	3
67	78	3
68	75	7
34	40	4
3	54	2
23	23	10
36	38	2
28	28	14
49	49	11
38	39	1
3	4	6
59	59	8
55	55	21
42	43	6
49	51	5
30	31	1
12	21	1
46	46	5
35	36	2
32	32	11
2	2	11
3	3	8
38	38	7
60	60	10
4	5	5
37	39	6
8	9	3
30	30	6
1	1	6
11	48	1
74	75	3
68	69	8
7	8	4
45	46	2
8	10	3
57	57	8
0	1	10
22	22	11
39	39	7
52	54	2
4	4	8
52	52	10
44	44	7
26	28	4
63	70	1
13	13	3
49	67	2
25	26	2
63	63	2
61	61	8
67	74	1
61	66	1
40	40	6
23	75	3
40	42	3
5	5	6
31	52	1
77	77	3
13	74	2
18	19	4
71	73	5
23	46	5
62	73	7
9	9	6
33	35	2
42	44	1
76	76	10
61	73	2
63	64	6
41	43	1
39	43	1
62	64	4
20	37	2
61	74	2
65	73	1
57	58	2
64	64	2
24	46	1
69	70	1
58	59	1
9	12	2
47	47	5
44	61	6
24	25	1
18	18	5
46	60	1
29	36	2
58	61	2
60	61	1
12	13	1
46	72	2
70	75	1
28	29	3
12	12	2
12	57	3
34	34	4
43	46	2
49	50	1
45	45	7
7	50	2
1	2	3
18	51	2
25	27	2
49	66	1
43	62	1
6	7	3
57	59	2
2	3	1
2	7	2
19	19	4
31	53	1
26	27	1
11	19	2
26	63	3
36	43	3
11	11	5
68	68	4
5	6	2
11	13	1
36	37	1
28	31	3
23	24	3
40	41	1
24	29	1
37	37	6
75	76	2
43	65	1
31	50	1
48	66	2
30	35	2
42	42	2
13	14	1
23	42	1
3	37	1
36	55	1
60	73	3
54	55	1
39	40	1
32	36	1
34	35	3
62	63	2
71	72	2
51	52	1
48	73	1
33	37	2
72	73	1
58	73	2
42	48	1
58	63	2
14	14	1
67	69	1
67	68	1
47	67	1
63	65	1
57	60	1
29	33	1
50	70	1
70	71	1
20	21	2
43	44	1
31	32	1
61	62	1
1	41	1
21	36	1
45	66	1
2	41	1
65	67	1
29	66	1
46	59	1
20	39	1
33	34	1
71	71	1
19	21	1
