43	60	3
24	27	8
159	166	2
89	105	3
211	211	12
159	169	1
42	53	4
80	80	13
75	188	1
85	86	6
192	205	1
30	30	15
52	52	12
153	153	12
231	232	1
4	4	10
23	43	1
68	68	11
58	58	18
78	78	13
220	222	3
32	33	1
135	173	1
45	45	12
223	223	12
8	23	1
128	128	18
51	51	10
75	75	18
199	213	2
112	112	2
41	41	15
180	180	8
184	186	3
235	235	7
208	208	23
240	242	3
76	76	17
221	229	2
16	17	8
3	42	3
124	124	10
122	122	17
46	46	16
26	26	16
89	91	2
56	56	13
7	7	16
125	125	10
187	206	2
101	101	18
124	130	2
204	208	3
160	160	20
118	118	19
123	123	19
70	70	16
18	23	1
195	195	13
77	77	7
64	67	2
239	239	9
63	68	1
61	61	14
219	219	35
105	105	25
200	200	13
84	84	15
220	220	11
43	74	1
4	5	1
175	198	2
107	107	10
138	139	6
203	203	20
25	28	6
189	189	19
61	203	1
104	105	3
5	5	14
182	183	6
9	22	2
82	82	11
134	134	14
201	219	2
88	88	9
139	169	3
232	232	24
0	0	6
231	231	21
217	217	14
238	242	1
117	127	2
123	142	3
173	173	15
191	200	2
42	42	12
145	145	23
47	47	14
135	135	11
25	25	11
147	148	11
6	6	7
48	48	13
205	206	4
209	220	4
3	10	3
225	225	4
152	152	9
158	158	10
12	12	20
44	44	15
175	175	16
136	139	6
34	34	12
2	12	1
162	162	11
165	165	23
156	165	3
208	223	3
23	23	8
194	194	3
118	119	3
242	243	6
22	40	3
206	215	6
149	149	19
64	64	23
119	119	9
183	201	4
210	210	6
144	144	13
164	165	7
32	37	1
157	158	6
154	166	6
177	178	6
240	240	12
178	178	13
80	81	6
103	114	2
4	23	3
65	65	16
169	169	16
156	156	10
18	18	10
178	232	1
18	20	9
119	138	2
169	175	4
99	99	18
218	218	17
51	85	2
151	151	4
150	154	2
20	20	27
17	17	27
142	143	10
10	10	17
20	29	2
74	74	10
228	229	3
152	153	2
99	101	5
210	238	4
193	193	2
19	19	13
18	37	4
67	67	11
80	83	2
198	213	6
178	189	2
209	209	2
72	72	17
209	210	16
36	38	3
159	160	2
29	29	13
117	118	7
76	77	3
14	38	1
175	176	1
64	65	6
206	217	1
27	27	17
54	54	17
28	28	8
170	170	16
192	192	5
228	230	3
186	190	3
233	233	23
215	216	5
61	62	2
34	36	1
66	67	6
121	121	5
103	103	10
2	2	15
62	63	7
70	81	1
11	12	2
13	14	4
2	31	1
159	159	21
138	138	15
148	149	4
69	70	2
11	33	3
238	238	7
40	41	7
204	215	1
237	241	3
168	169	8
120	120	7
9	10	4
200	218	5
115	116	10
9	27	5
32	32	9
190	190	3
167	169	4
81	81	9
214	240	4
234	234	12
100	100	16
50	51	1
235	240	3
161	180	2
127	127	13
45	53	2
57	67	2
28	36	2
80	82	2
150	150	14
55	55	7
63	63	9
182	208	2
196	197	7
171	173	2
5	6	2
62	62	11
21	21	9
79	79	15
100	101	4
230	231	6
27	52	1
164	166	2
39	39	7
222	223	6
150	151	7
13	13	14
226	227	6
140	140	8
133	133	12
224	228	3
155	155	7
3	9	3
58	60	5
183	183	11
198	198	11
24	25	4
59	59	19
97	97	15
179	179	8
49	49	4
202	202	9
31	31	11
1	2	6
14	19	1
199	208	3
53	53	21
43	43	12
176	176	4
69	69	6
237	238	7
166	173	1
140	141	3
57	105	2
216	216	9
216	219	2
133	134	7
148	148	14
186	204	2
204	204	5
82	84	4
60	60	20
22	22	4
85	85	16
161	161	11
15	15	10
99	102	4
123	126	4
139	139	5
119	133	1
172	172	7
69	71	1
175	181	1
229	229	14
119	121	1
207	207	13
214	214	5
115	117	5
13	27	3
73	74	4
122	130	3
31	35	1
176	188	1
1	17	3
25	241	1
11	28	3
34	41	3
219	221	8
227	235	1
146	146	22
226	226	8
171	171	19
3	3	7
33	56	2
165	182	4
225	230	1
174	174	26
135	136	7
167	167	16
11	14	2
4	6	2
54	55	1
176	177	7
11	11	11
101	116	5
51	54	2
66	89	1
71	141	3
222	222	5
24	24	13
49	51	2
112	138	2
239	241	1
162	167	3
167	168	7
33	33	6
75	78	1
12	14	3
142	142	9
192	202	5
46	53	4
164	164	11
66	66	6
25	242	3
23	50	2
199	200	7
38	38	4
50	50	10
232	233	9
78	82	3
79	106	3
57	68	3
67	68	7
97	98	2
50	182	2
207	208	5
201	202	6
14	15	1
241	241	6
211	213	1
228	228	8
184	184	8
172	176	2
0	1	4
40	40	8
101	102	2
242	242	13
114	114	8
210	211	4
218	219	1
0	4	2
36	37	2
167	182	1
147	147	10
16	18	3
112	171	3
6	19	2
208	238	1
106	106	3
83	83	11
46	47	3
75	76	3
125	129	2
224	227	3
227	230	1
224	240	1
13	24	3
116	213	3
130	136	2
67	84	5
136	143	1
59	72	2
10	11	2
115	115	12
149	152	2
2	7	3
49	50	3
3	13	2
193	209	2
119	125	2
57	66	2
16	225	1
188	193	3
221	231	1
2	5	4
101	103	3
111	111	5
80	84	2
182	205	2
187	190	2
201	201	7
71	72	8
162	165	3
21	22	1
56	84	2
221	222	4
27	233	1
145	146	2
102	102	22
131	131	3
24	228	1
168	178	2
225	237	1
212	212	12
168	168	8
157	157	14
185	189	2
189	190	8
8	8	8
184	216	3
204	219	1
199	199	7
86	88	3
14	14	7
69	80	1
22	35	1
158	169	2
185	186	5
67	70	1
95	110	2
116	116	11
236	240	3
104	117	2
154	154	12
198	201	1
212	213	2
122	132	1
137	152	3
23	65	1
141	145	2
182	182	7
179	186	2
213	213	3
104	104	2
227	227	13
30	34	4
30	31	2
102	103	4
12	57	2
130	130	6
191	191	5
140	142	4
155	156	4
179	214	4
129	133	4
27	232	2
222	225	1
123	127	1
179	195	1
140	147	4
126	126	7
24	180	4
13	18	1
193	220	2
119	139	5
20	24	2
74	99	2
3	12	1
174	175	1
208	209	3
137	151	1
205	205	6
62	73	1
158	159	4
68	69	5
15	20	1
218	221	2
27	73	5
16	16	20
83	84	2
230	239	2
194	223	1
195	218	1
181	181	6
197	218	1
134	153	3
57	57	9
221	223	3
232	240	3
21	23	2
39	55	2
107	144	1
166	172	1
142	167	2
17	220	1
98	98	9
180	186	2
132	144	1
213	216	2
6	12	4
9	9	9
47	76	2
18	19	1
169	182	1
202	203	2
18	54	4
102	114	1
114	115	2
39	45	2
9	20	2
239	242	2
70	71	6
52	70	3
110	111	4
108	111	1
107	108	3
50	181	4
113	113	6
65	79	2
109	109	5
158	160	3
147	149	2
26	27	5
57	58	1
197	197	10
12	15	3
216	238	2
201	215	4
187	207	1
1	1	7
139	162	2
120	135	3
140	158	5
22	63	1
173	178	1
9	31	2
162	171	5
163	167	4
160	163	2
29	31	3
224	225	3
143	143	14
77	79	3
58	167	1
135	142	1
147	168	2
219	230	1
106	127	3
209	238	1
108	108	5
26	28	1
149	154	4
10	37	2
188	189	2
2	3	4
177	182	2
160	164	2
111	119	1
195	198	2
111	125	2
185	208	1
186	186	7
221	221	8
220	226	4
177	177	6
191	202	2
11	13	5
63	64	2
142	161	3
131	135	1
35	35	4
60	68	3
183	185	4
156	158	2
115	123	2
19	28	2
86	86	7
225	236	2
236	236	6
131	132	1
69	87	1
189	204	2
1	9	1
58	203	2
150	175	1
185	196	2
191	207	1
43	46	4
195	215	1
228	231	2
6	23	3
141	141	8
42	43	1
195	228	1
4	13	3
33	50	1
208	210	1
61	75	2
110	130	2
43	52	1
98	182	2
53	62	2
46	65	2
166	166	10
7	208	2
25	227	3
143	145	7
183	190	1
14	16	5
37	39	6
115	119	1
14	35	3
78	80	1
132	134	3
74	81	1
29	42	1
40	43	2
154	188	1
59	60	7
37	37	9
151	157	1
81	82	5
20	27	1
149	158	4
7	9	3
14	31	1
16	31	2
180	181	3
28	29	4
106	135	1
114	117	8
230	230	3
96	107	2
73	73	9
162	179	5
197	198	5
192	226	5
220	225	1
113	130	4
16	43	1
16	21	4
199	218	2
7	28	2
30	40	1
231	235	2
122	127	3
147	150	1
1	4	4
152	182	1
116	165	1
77	78	3
77	116	2
219	231	2
164	180	2
181	182	4
67	69	2
152	158	1
47	54	2
163	163	7
177	187	1
121	129	2
28	37	1
213	214	6
3	6	3
31	45	1
237	237	3
37	38	1
26	230	3
196	196	4
206	206	5
57	65	3
188	188	9
103	106	1
165	169	1
54	66	3
26	44	2
38	39	1
163	165	1
100	105	1
175	177	3
19	36	2
110	110	2
10	27	1
83	85	2
120	179	4
63	67	1
199	211	1
12	13	5
74	88	3
13	21	1
207	217	6
51	52	2
224	224	7
116	118	3
118	122	2
117	236	4
187	187	5
53	67	1
143	160	2
43	53	1
65	66	1
177	186	2
192	227	1
43	57	3
1	7	1
77	173	1
193	195	3
185	187	2
209	211	1
137	138	2
153	157	2
192	218	1
196	198	3
184	214	2
66	87	1
14	18	2
142	146	2
74	75	2
24	183	2
221	224	5
239	240	2
13	237	2
199	209	1
138	141	4
184	187	1
191	192	1
0	12	2
45	46	5
146	181	4
79	80	1
141	143	3
57	61	1
86	101	1
234	241	1
129	129	1
184	185	1
26	242	3
142	145	3
193	201	3
109	133	1
102	135	1
200	213	3
4	47	2
26	187	1
156	163	2
193	194	3
217	225	1
196	215	1
58	59	1
138	147	1
32	35	3
223	226	3
0	9	9
164	181	1
155	165	3
36	89	2
126	129	1
117	117	4
115	155	4
7	8	4
144	151	3
42	58	1
142	152	1
136	137	1
146	148	1
29	30	4
200	221	2
36	36	1
75	83	3
105	121	2
220	223	1
46	191	3
159	177	2
205	223	1
63	78	1
192	194	1
139	142	1
141	142	2
202	207	1
129	131	2
69	82	2
74	100	1
227	231	1
230	237	3
46	76	4
48	49	1
146	155	1
30	67	1
219	242	1
210	213	2
8	61	1
151	152	2
148	159	3
176	187	2
118	211	1
238	239	4
27	36	1
35	225	1
52	65	1
226	234	1
144	145	1
169	170	4
126	132	1
140	146	1
181	205	2
225	240	1
3	22	2
212	227	1
8	27	2
194	197	1
38	190	2
114	164	1
126	234	2
154	179	2
162	177	1
81	83	3
123	129	1
85	113	2
132	133	2
22	23	3
107	124	1
71	71	4
227	233	3
204	218	1
176	186	2
154	157	1
60	70	2
133	139	1
200	220	1
80	89	2
65	70	1
14	37	3
219	222	3
157	172	1
126	130	1
215	224	3
145	147	1
125	126	4
138	155	1
89	89	3
74	77	1
134	135	1
123	125	2
134	136	2
113	122	1
166	167	2
227	240	1
109	136	1
34	38	1
54	211	2
213	218	1
50	66	1
166	178	1
234	235	1
176	202	2
182	185	1
183	204	3
129	130	4
26	219	2
226	228	2
68	183	2
177	189	1
193	196	3
24	68	1
119	120	3
175	188	1
49	63	2
68	78	1
127	128	1
234	239	3
172	173	2
188	190	2
4	30	1
211	212	3
66	68	1
194	195	2
15	18	1
149	155	1
128	131	2
43	44	7
22	26	1
80	104	3
212	215	2
210	231	1
8	34	1
210	220	1
1	11	1
178	183	1
159	163	2
49	230	1
216	239	1
186	205	2
31	32	3
125	144	1
198	199	1
59	69	2
60	61	1
215	215	2
217	218	5
206	209	1
127	129	1
2	8	2
31	34	3
115	140	2
212	216	2
186	187	2
10	33	3
25	36	1
51	66	1
4	31	2
25	26	3
2	4	1
149	171	1
3	4	1
69	220	2
32	57	1
80	91	2
92	108	1
206	210	1
192	199	1
23	36	1
34	35	3
199	219	4
48	50	1
198	210	1
164	168	1
57	60	2
95	95	6
120	147	1
113	114	1
35	38	1
125	130	1
217	219	1
23	34	2
119	166	1
33	34	1
165	170	1
64	68	1
232	234	1
103	109	5
241	242	1
141	157	1
166	191	2
240	241	2
67	80	2
149	170	2
225	229	2
95	96	1
214	215	1
8	25	1
235	236	1
224	226	5
11	27	1
96	96	1
124	126	1
207	212	3
205	208	1
165	172	1
95	101	1
131	141	1
78	112	1
77	122	1
121	122	2
207	218	2
163	182	1
62	75	1
174	187	1
172	187	1
180	212	2
170	177	1
228	234	1
45	63	1
192	193	1
99	100	1
150	170	1
69	81	1
159	184	2
25	219	1
107	127	2
55	135	2
137	137	3
222	242	1
227	229	1
192	200	1
103	129	2
182	206	1
81	157	1
222	229	1
171	172	3
135	138	1
47	48	1
219	228	1
75	80	2
183	186	1
34	52	1
160	176	1
85	135	2
33	41	2
205	226	2
124	125	1
116	124	1
7	12	2
37	45	1
196	213	1
223	229	1
25	180	1
163	164	1
98	187	1
230	232	2
163	170	1
67	182	2
43	64	2
0	3	1
210	232	1
141	146	2
63	70	1
203	204	1
156	166	1
0	51	1
141	156	1
5	7	1
122	140	1
181	183	1
167	175	1
47	55	2
116	160	1
105	124	1
112	114	1
190	191	1
208	218	1
120	121	1
221	236	1
27	44	1
139	140	3
138	140	1
109	110	3
102	136	1
56	70	1
199	210	1
192	216	2
118	120	1
101	148	1
104	106	1
56	61	3
102	107	2
153	154	1
71	139	1
192	208	1
177	188	1
24	32	1
225	226	1
185	205	1
133	137	1
149	157	1
165	167	1
89	104	1
157	160	1
27	217	1
201	207	1
15	28	1
48	65	1
173	174	1
0	19	1
53	58	1
137	154	1
78	79	1
7	31	1
45	60	1
233	242	2
161	179	1
173	202	2
147	191	2
180	218	1
140	143	1
106	107	1
50	62	1
184	209	1
33	49	1
16	37	1
193	202	2
193	227	1
114	122	1
17	18	1
116	120	1
165	171	1
173	187	1
64	76	2
152	179	1
71	78	1
15	23	1
9	32	1
122	142	1
231	239	1
215	229	1
66	85	1
114	142	1
26	71	1
82	83	1
3	31	1
