79	79	3
15	23	3
177	177	15
240	241	3
3	11	6
1	2	1
18	18	7
73	73	11
199	199	3
174	175	6
58	160	4
109	151	1
13	14	9
182	223	8
174	174	5
134	134	9
191	191	4
129	130	2
235	236	1
20	20	5
14	14	3
157	157	4
192	193	6
75	75	3
67	82	2
150	150	10
156	157	3
11	11	5
81	82	6
120	120	10
140	140	4
97	97	6
181	181	7
200	200	2
239	241	1
218	218	6
113	113	8
160	160	3
67	85	4
58	58	7
104	104	7
16	22	2
71	82	2
182	182	12
86	86	7
101	101	6
109	153	5
63	63	4
7	8	4
237	238	1
25	25	11
146	146	5
220	221	6
125	125	4
242	242	2
195	195	2
4	14	1
191	193	1
207	208	2
238	238	2
136	136	9
86	87	2
34	34	7
152	152	6
138	138	9
116	116	4
178	179	4
171	171	8
9	9	15
2	2	6
80	80	4
205	205	11
203	204	2
139	217	4
201	201	4
225	227	3
169	169	9
234	234	9
18	19	2
228	229	5
64	70	1
165	165	13
197	197	3
231	231	4
24	25	3
27	27	3
56	56	4
46	49	3
236	237	5
126	126	1
52	53	1
120	121	3
128	128	3
110	130	1
199	200	1
35	35	6
57	58	4
60	60	4
146	147	6
206	206	13
214	214	4
147	148	3
182	195	1
32	33	1
237	240	1
162	162	6
221	221	5
28	28	10
95	95	8
130	130	4
190	190	6
0	1	1
28	29	5
225	225	8
175	175	3
67	67	12
220	220	8
82	83	4
223	223	8
189	200	1
217	217	9
100	100	5
154	154	5
141	141	9
143	215	6
108	125	3
115	115	3
62	62	3
173	173	5
98	98	7
108	109	2
42	42	7
151	151	7
107	117	1
197	198	1
19	19	6
85	85	5
216	217	4
29	30	2
140	143	4
229	230	12
43	43	2
99	99	4
33	33	3
164	164	8
8	8	13
106	106	1
52	52	4
36	36	3
240	240	6
206	208	2
117	167	3
121	121	5
227	229	4
0	42	5
53	53	3
222	222	8
215	215	2
26	26	3
96	96	4
109	109	4
158	158	2
89	89	7
155	155	7
117	117	4
59	59	1
198	199	1
119	121	4
23	23	3
55	55	3
50	50	5
55	56	1
66	66	10
46	46	12
105	106	5
209	210	1
241	241	2
194	194	11
84	84	8
175	234	4
20	23	7
44	44	1
183	184	7
9	10	3
178	218	4
188	208	4
159	159	3
10	28	1
85	86	2
170	170	5
37	37	4
188	209	2
180	180	4
74	74	4
87	87	4
7	7	6
224	227	1
215	216	4
174	202	2
228	228	4
205	206	3
83	83	3
39	39	7
180	181	4
232	232	2
235	235	3
185	185	3
77	78	2
116	167	4
7	22	3
78	78	3
68	68	4
178	178	4
127	127	1
0	0	1
183	185	2
219	219	5
11	12	1
76	81	5
202	202	4
38	44	4
175	176	6
12	12	9
196	196	7
144	144	2
65	85	1
51	51	3
214	218	3
103	137	2
68	69	2
17	18	2
29	29	3
208	209	2
65	65	3
192	192	4
32	32	3
210	211	1
61	120	1
138	139	1
143	143	7
212	212	4
137	137	2
77	79	3
176	176	5
238	239	1
114	114	9
122	122	3
177	178	1
193	193	3
69	69	2
105	105	4
141	142	5
62	140	2
181	182	2
185	191	2
243	243	1
24	24	7
16	16	6
189	189	2
170	171	2
102	102	8
139	143	2
102	105	1
64	64	3
114	115	1
107	125	1
109	130	3
2	5	4
19	20	2
56	106	3
173	174	4
227	228	1
30	54	4
183	183	3
48	48	9
210	210	3
76	76	4
224	226	4
108	108	2
139	139	1
16	23	2
189	190	3
61	62	2
100	113	5
50	51	1
135	135	2
30	31	4
121	122	8
239	239	4
59	159	4
1	1	8
219	220	5
82	82	4
123	123	6
6	6	1
216	216	4
83	165	3
232	233	3
38	38	6
187	188	2
134	169	3
230	230	3
166	166	1
107	126	1
186	190	1
45	45	7
153	153	3
161	162	2
119	119	6
129	129	3
66	69	3
41	41	4
179	181	1
233	234	2
101	102	2
97	100	1
179	179	2
135	136	2
15	15	1
3	3	3
49	50	1
41	55	3
207	207	7
83	86	1
65	66	2
124	124	4
2	16	1
179	180	1
209	211	1
78	86	1
67	84	1
160	161	1
147	213	1
168	168	5
221	222	1
57	156	2
11	15	1
217	220	2
70	71	2
61	61	1
83	163	1
170	187	4
3	28	2
134	168	1
217	218	3
34	68	2
10	10	3
144	147	2
22	22	2
36	68	1
116	117	2
138	167	2
58	60	1
184	184	3
115	151	2
236	236	3
12	41	1
4	4	4
48	74	1
53	55	1
178	234	1
32	165	2
186	186	2
54	55	1
204	204	2
52	102	3
71	71	2
186	187	1
213	213	3
31	41	2
152	153	1
184	185	1
160	162	2
25	26	1
100	120	2
158	159	2
130	210	1
226	226	1
184	187	2
49	49	5
48	54	1
43	44	2
45	47	2
28	43	3
81	81	4
72	80	1
12	13	1
112	112	1
3	10	1
119	120	3
218	220	1
59	60	2
33	41	1
2	6	1
123	151	1
30	30	3
156	156	1
145	215	1
72	72	4
115	116	1
175	181	1
116	122	1
168	177	1
223	225	4
3	8	1
52	63	2
124	125	1
12	31	1
163	163	1
237	237	3
105	137	1
167	167	4
229	231	1
45	74	1
224	225	1
55	164	4
14	22	1
188	200	1
191	232	1
81	83	2
131	150	1
209	209	4
127	128	1
66	68	2
116	148	1
229	229	1
110	128	1
148	148	2
180	183	1
131	146	2
0	43	1
218	219	1
225	228	1
192	230	1
21	21	1
224	237	1
61	101	1
11	29	1
31	31	1
84	85	1
4	6	1
98	99	1
137	138	1
