85	85	6
96	103	2
64	66	1
151	152	3
4	57	1
176	176	4
101	102	1
42	66	5
98	98	1
72	72	6
163	163	8
35	35	10
141	141	4
54	54	2
163	166	6
5	5	4
23	30	2
14	14	4
21	27	1
52	52	3
11	11	3
4	4	3
82	83	2
132	132	6
120	128	1
75	145	2
45	45	5
24	24	2
17	17	2
127	128	1
118	129	1
110	111	3
93	93	4
57	152	1
111	111	6
126	126	6
63	63	2
118	118	7
160	161	2
13	13	5
59	93	3
65	65	7
147	147	4
60	60	1
161	167	2
108	108	3
131	131	9
166	166	8
110	143	1
16	16	2
77	77	2
104	105	2
86	86	2
55	55	5
10	10	3
33	34	4
145	169	4
158	158	6
169	169	3
112	112	3
149	149	4
84	84	2
100	101	1
151	151	2
50	157	4
98	111	1
129	130	2
77	78	1
120	130	2
57	101	1
103	105	5
6	17	1
150	150	4
55	156	2
2	2	2
89	89	3
15	15	3
38	38	3
172	172	2
83	101	6
120	120	7
88	92	2
32	74	5
57	94	2
106	106	5
98	121	1
31	31	1
165	167	3
94	94	5
89	154	2
145	145	3
178	178	1
102	104	5
2	4	4
129	129	3
90	90	3
168	168	3
87	88	2
87	94	5
93	143	1
111	113	1
174	175	1
37	37	2
39	39	3
51	52	1
148	148	10
101	101	3
33	33	1
60	92	3
103	103	1
5	12	2
153	153	8
73	73	9
93	94	1
5	7	3
171	171	4
82	82	4
168	170	3
102	119	3
72	95	3
78	78	1
110	110	4
90	93	6
12	13	5
178	179	2
177	178	2
18	38	1
50	50	1
21	21	1
75	142	2
174	174	2
115	130	1
41	63	1
0	1	1
166	167	3
50	51	4
10	78	4
76	76	2
110	115	1
130	130	2
17	38	3
6	6	4
169	173	3
8	46	2
124	125	3
124	124	1
113	113	1
175	175	2
126	139	3
44	44	3
170	170	1
120	121	1
155	159	2
59	71	1
32	33	2
101	119	5
28	28	2
161	168	2
44	73	1
5	6	5
54	140	2
96	100	2
14	15	2
143	144	1
6	7	1
23	23	2
173	174	1
115	116	1
53	54	2
3	3	1
71	72	2
149	171	2
43	43	2
25	25	2
154	154	2
27	27	1
79	79	2
153	173	1
109	109	4
155	155	1
98	120	1
164	164	4
146	147	1
116	117	2
138	138	1
140	140	2
20	37	2
140	158	1
121	122	1
7	7	1
125	126	2
124	126	2
159	159	1
139	139	3
53	56	5
90	123	1
96	96	3
125	128	1
3	4	3
24	25	3
87	87	3
18	18	2
71	71	2
170	175	2
31	32	1
99	101	2
17	37	1
102	103	2
80	132	1
121	121	1
68	68	5
123	123	2
116	116	1
137	137	3
74	74	2
40	44	2
135	135	1
96	116	1
157	157	1
133	133	3
100	100	2
156	156	3
25	63	1
10	14	1
87	90	2
115	115	4
119	122	1
136	144	2
8	45	1
163	167	1
109	113	1
59	59	1
130	131	2
67	67	2
85	151	1
134	134	1
23	26	1
19	40	3
64	64	1
30	30	2
142	142	1
82	148	1
56	56	1
143	143	1
80	80	1
7	8	1
5	11	2
41	42	2
96	108	1
1	1	1
52	62	2
160	176	1
19	73	1
134	179	1
7	50	1
56	62	1
146	168	1
67	79	1
152	154	1
19	150	2
8	11	1
17	154	2
76	143	1
12	18	1
73	91	2
146	146	1
7	10	1
143	171	1
41	95	1
169	174	1
134	138	1
21	39	1
167	167	1
147	160	1
5	37	1
