106	106	4
24	24	5
32	32	4
132	132	2
102	102	10
77	78	9
111	111	6
103	103	10
25	26	3
92	92	2
84	92	5
131	131	9
123	123	9
89	89	3
9	9	4
27	27	4
129	130	4
121	122	1
80	80	13
16	16	5
11	11	2
128	128	3
14	19	4
4	4	9
134	134	6
112	112	11
85	85	6
37	38	2
108	108	5
116	116	6
33	80	3
135	135	8
123	124	1
120	123	2
33	109	2
77	77	5
90	91	1
17	17	2
86	86	4
34	34	4
136	136	2
138	138	10
84	87	1
4	18	1
20	20	14
3	4	7
15	15	5
23	24	4
35	36	3
28	30	3
127	127	4
79	81	2
109	110	5
118	118	7
109	109	8
94	94	6
76	76	11
5	5	11
129	129	7
1	1	2
14	14	12
7	7	7
4	5	5
87	87	4
10	10	11
104	108	6
82	82	7
105	105	3
89	91	1
79	80	7
130	130	6
104	107	10
95	95	4
98	98	12
127	133	1
73	73	8
13	13	3
104	104	2
101	101	5
84	100	3
6	7	1
113	114	3
2	2	2
125	125	2
139	139	5
113	113	2
84	84	6
75	75	1
17	18	3
74	75	3
12	12	8
22	22	1
18	19	2
117	117	5
20	21	3
23	23	7
71	71	3
33	33	5
30	30	13
74	74	7
72	72	3
118	119	8
23	43	2
25	25	5
26	26	2
90	90	3
7	8	5
22	23	4
120	121	1
31	32	1
10	11	3
115	115	3
122	123	2
30	31	3
120	120	3
27	28	1
88	92	4
35	35	5
0	0	3
12	13	2
23	29	1
38	38	3
3	3	9
133	133	3
0	7	3
78	79	2
122	122	1
93	93	3
88	88	4
16	17	3
103	116	2
117	119	2
29	29	3
78	78	3
121	121	2
37	37	3
97	97	4
11	12	1
31	31	10
6	128	2
137	138	4
79	79	1
85	86	7
2	3	2
81	81	2
119	119	4
107	112	2
21	21	3
8	8	6
108	112	2
28	28	2
113	115	2
100	100	2
97	98	2
89	90	2
95	96	1
6	6	1
124	125	1
18	18	3
35	100	2
99	99	3
118	125	1
110	110	3
85	94	2
125	126	2
126	126	2
87	101	1
10	12	1
124	124	3
97	99	1
102	103	1
19	19	2
36	36	1
126	127	1
130	131	4
114	116	1
115	116	1
83	101	1
3	13	1
128	129	2
97	100	1
71	72	1
133	134	2
