6	6	4
124	126	2
41	41	3
29	29	2
82	87	3
14	14	2
77	77	4
136	137	3
69	69	3
48	50	4
118	118	3
50	50	3
37	37	5
143	145	3
46	51	3
97	97	2
35	35	7
45	45	6
9	9	8
85	85	6
96	136	3
44	54	5
74	75	3
6	116	1
144	144	4
14	17	1
100	118	4
51	55	3
108	108	10
127	127	5
42	43	3
124	124	5
142	151	3
100	100	4
38	38	7
113	114	1
149	149	1
57	62	1
67	67	6
86	86	2
26	26	13
28	28	9
102	102	2
16	16	5
121	121	4
47	47	3
114	115	1
22	22	4
110	111	4
105	105	5
116	116	2
83	83	3
107	107	5
21	21	2
93	136	1
99	119	3
102	103	6
3	3	2
91	92	1
104	104	2
95	137	2
96	96	4
63	63	2
56	56	5
138	138	6
78	78	1
64	64	1
11	102	3
26	27	1
120	121	2
5	12	3
73	139	1
135	135	6
81	81	5
108	116	1
65	65	3
97	119	1
79	79	2
11	106	6
110	110	1
86	100	4
109	109	7
73	76	1
30	33	1
89	94	2
51	54	2
42	42	3
31	34	3
92	134	3
135	152	4
84	84	1
13	13	2
55	57	2
120	120	4
129	129	3
43	45	1
40	41	1
8	8	1
61	61	1
140	142	1
145	146	1
149	151	2
93	123	2
107	111	5
84	85	3
132	132	3
6	13	1
137	137	5
77	78	4
71	73	1
32	34	2
143	144	1
146	148	2
55	56	1
80	120	1
2	14	1
141	141	3
130	130	1
129	132	2
6	7	4
19	19	4
90	112	1
12	12	3
123	132	3
145	145	1
99	120	1
5	5	2
33	34	2
80	80	1
39	39	1
80	83	2
107	109	2
83	84	2
11	12	4
93	93	4
127	128	1
16	17	4
142	142	3
106	107	3
98	151	4
17	18	2
94	98	3
13	14	4
20	23	1
148	148	1
89	123	2
115	126	1
141	149	2
43	43	3
93	125	3
146	150	1
98	99	1
97	122	2
131	131	2
16	19	1
10	10	2
49	49	3
100	112	1
128	130	1
6	18	1
96	135	2
136	136	1
16	23	2
37	38	2
126	130	5
10	11	1
115	115	3
92	92	3
73	73	2
126	126	1
149	150	3
33	33	1
51	51	2
20	21	3
114	117	2
101	101	1
23	128	1
94	136	2
7	11	1
100	123	3
94	95	1
75	75	1
31	31	1
30	30	2
124	133	3
62	72	2
119	120	1
3	16	1
129	130	1
21	23	2
32	32	3
4	4	4
82	82	1
95	99	1
134	150	1
80	81	1
7	10	1
98	98	2
152	152	2
41	43	3
18	19	1
40	40	1
93	94	1
7	7	3
71	71	2
99	99	2
68	69	1
19	20	1
92	127	2
113	117	2
65	74	1
141	144	1
87	87	1
45	51	1
68	74	1
55	62	1
115	117	1
48	49	1
83	86	1
17	17	1
37	40	1
36	36	2
66	66	1
105	108	1
130	132	1
135	150	1
25	25	1
125	125	1
67	79	1
86	88	1
7	109	1
116	128	1
35	36	1
27	27	1
126	127	1
