9	9	10
125	125	10
78	78	11
12	12	12
23	55	4
46	46	4
40	41	3
107	107	4
114	194	2
135	143	4
71	71	8
64	64	4
16	89	3
166	166	10
58	58	7
181	181	10
168	168	3
17	17	6
71	86	4
113	160	1
62	62	13
165	166	8
154	155	2
55	55	7
97	98	2
27	27	7
135	135	10
122	122	14
128	129	1
77	78	5
56	56	9
21	21	9
127	128	3
174	175	3
22	22	8
43	43	12
16	16	6
44	44	3
28	29	7
88	88	3
141	141	8
150	150	1
104	104	7
189	189	1
163	164	6
143	144	6
151	152	2
36	36	11
157	157	9
18	19	9
154	171	3
159	159	12
156	191	1
171	171	7
9	10	7
58	59	5
81	85	2
117	117	7
136	136	6
26	26	8
4	4	2
5	10	2
124	124	13
34	34	6
106	106	9
3	3	7
25	25	4
47	50	3
128	128	8
40	40	12
28	175	5
108	111	9
170	170	16
116	117	5
45	77	1
185	185	9
154	154	9
46	47	2
94	99	7
195	196	1
157	158	5
121	182	2
155	155	4
76	76	6
86	86	5
47	47	12
179	180	3
72	72	12
144	146	1
49	49	14
42	42	5
98	98	5
30	30	1
134	177	2
97	169	3
11	11	14
87	88	1
156	156	6
30	47	4
81	81	9
56	57	1
77	77	5
138	138	2
68	68	9
106	107	2
183	183	14
108	109	2
121	121	5
85	86	3
93	97	7
153	153	1
2	9	3
2	2	4
113	128	1
194	194	13
130	130	6
112	112	5
89	184	4
162	163	1
51	51	10
37	37	7
190	191	5
59	59	3
75	76	1
116	119	3
130	135	4
53	54	3
131	131	15
144	144	8
13	13	5
45	45	9
84	84	2
57	57	9
10	88	3
4	5	3
63	69	1
118	118	4
139	139	3
152	154	2
135	136	3
115	115	7
14	14	6
105	108	3
31	32	6
75	75	3
140	140	9
102	102	4
25	56	2
149	149	7
29	36	5
55	58	1
97	97	2
146	147	3
112	133	1
115	192	3
163	163	4
132	132	7
94	155	3
19	19	2
142	142	13
180	180	2
169	169	5
69	69	9
32	150	3
9	80	1
52	53	8
158	186	3
28	28	3
40	94	5
101	101	2
82	83	3
174	174	9
186	189	6
63	63	7
150	158	3
100	100	1
196	196	7
193	193	18
116	116	11
39	39	8
38	38	3
27	98	3
18	18	1
96	166	3
41	100	2
104	156	1
173	173	3
33	33	1
132	177	4
173	177	3
134	162	3
145	168	1
23	31	1
65	65	10
115	116	5
159	160	1
107	108	1
183	184	3
144	145	5
74	74	8
110	110	5
120	120	5
170	181	2
0	0	3
145	145	7
24	24	8
186	186	6
50	50	9
191	191	2
71	72	6
160	160	4
134	134	3
69	71	3
187	187	2
167	169	1
51	52	5
37	38	2
132	176	5
96	96	3
130	131	1
70	70	7
178	178	3
127	127	5
69	70	2
47	86	1
26	30	1
70	71	4
134	135	4
111	111	5
126	126	5
67	69	1
99	155	3
78	82	2
15	20	2
186	188	3
185	193	2
10	39	2
188	188	2
32	32	1
112	113	2
73	73	1
149	150	6
190	190	5
15	61	2
110	111	2
143	143	3
29	29	7
178	179	2
190	192	5
6	62	5
103	104	1
79	82	3
168	180	3
119	119	3
155	182	2
167	167	4
172	172	2
61	61	3
6	11	3
162	165	1
31	154	2
11	12	2
38	77	1
125	126	5
45	78	6
80	81	1
7	7	3
140	141	2
31	31	4
8	10	2
10	10	3
55	56	3
43	44	3
89	89	7
109	109	3
1	1	2
100	101	5
79	79	2
72	73	2
33	49	2
15	55	1
156	157	2
114	114	4
59	60	1
126	181	5
151	186	1
17	18	1
94	94	1
99	99	1
41	42	2
124	125	1
138	142	1
108	110	1
29	35	1
109	111	1
160	161	1
30	31	2
8	85	2
49	56	3
152	152	5
10	11	1
114	192	1
123	126	1
151	156	1
109	110	1
54	55	3
48	48	5
15	16	2
9	84	1
83	83	2
112	129	2
182	182	3
142	143	1
154	179	1
15	56	1
101	168	1
192	192	3
13	185	4
197	197	2
117	160	1
70	82	1
19	20	1
9	23	1
80	82	4
21	23	3
66	67	1
185	186	1
27	154	1
48	49	1
142	196	1
20	20	1
118	197	2
103	107	2
158	192	1
74	75	1
0	174	2
3	87	3
52	52	1
148	148	2
12	124	1
175	175	3
122	123	1
98	99	1
34	36	2
5	5	3
15	15	2
161	161	1
169	180	2
9	88	1
133	133	1
187	189	2
6	55	1
94	96	1
85	85	3
25	100	2
169	170	3
49	50	2
60	61	3
111	165	1
154	187	1
14	15	3
191	193	1
145	146	1
6	15	1
110	166	1
151	151	2
33	62	1
125	128	1
66	66	1
33	74	2
32	71	1
126	182	1
157	186	1
73	76	2
113	113	3
192	193	1
90	90	1
176	177	2
137	177	1
184	184	1
1	2	1
164	164	2
38	100	1
170	171	1
56	173	1
30	68	1
87	87	1
122	155	1
133	134	1
