26	26	5
146	146	5
231	238	1
123	123	3
199	200	3
76	76	3
31	208	1
82	83	6
160	160	2
66	135	5
144	144	2
190	190	6
154	154	10
152	152	3
176	176	2
187	187	3
97	97	2
66	66	4
44	45	1
7	110	4
133	133	4
35	35	4
34	34	8
199	199	1
215	215	7
103	105	3
27	202	4
54	54	5
42	42	4
1	6	1
120	120	6
207	208	1
208	208	7
4	4	5
51	51	7
17	17	5
33	33	6
134	134	4
194	194	3
138	138	10
40	40	3
80	96	2
237	237	2
44	44	7
162	169	1
92	104	1
56	56	8
140	140	1
233	233	2
37	38	7
152	160	2
158	160	1
223	224	2
136	136	3
226	227	3
137	137	6
12	12	5
142	146	5
114	137	2
114	143	1
14	14	3
223	223	2
80	102	3
34	71	2
73	73	1
150	151	1
156	156	7
104	104	8
81	81	8
125	125	12
72	72	3
34	72	1
214	214	3
127	164	2
151	151	2
232	232	9
155	183	2
192	192	5
38	39	2
25	25	6
47	47	5
200	200	6
225	225	3
31	31	7
183	183	2
158	231	1
77	81	1
240	240	4
122	122	3
71	71	3
192	193	2
165	215	1
50	51	3
135	135	3
157	157	5
69	70	2
75	76	2
229	229	2
160	172	1
110	111	1
175	204	1
186	186	6
35	144	3
34	35	2
112	112	2
213	213	5
71	72	3
100	100	1
101	101	5
144	147	3
170	179	1
177	177	7
21	23	2
112	201	1
91	103	4
62	62	6
64	64	6
106	106	2
130	130	1
144	146	6
173	173	3
127	165	1
163	166	2
203	204	2
23	23	3
74	98	1
27	27	1
1	130	1
222	222	5
153	154	2
21	21	3
77	79	2
12	20	1
184	185	2
169	169	2
128	128	7
74	75	2
219	234	1
89	125	3
168	213	2
224	225	1
30	30	4
2	2	4
181	182	5
15	41	1
122	123	1
196	196	2
155	155	3
111	111	3
40	41	2
193	194	4
68	134	1
197	198	1
36	36	1
150	154	1
21	22	3
59	59	2
233	242	1
70	70	3
45	46	2
139	139	2
231	231	1
139	160	2
41	41	3
42	165	1
171	171	6
214	231	1
5	103	2
164	167	3
46	46	1
118	118	5
149	150	2
85	85	5
110	110	2
54	55	1
74	74	6
105	105	4
129	129	4
109	169	3
80	82	2
242	242	2
153	153	3
186	188	2
207	207	1
198	199	2
216	216	3
36	47	1
227	227	2
107	133	1
179	179	6
99	99	1
80	80	1
221	222	2
107	108	1
115	115	4
156	158	3
79	79	4
189	190	2
117	117	2
55	56	1
119	119	5
126	127	2
178	178	1
219	219	4
63	63	3
11	11	4
162	162	2
127	127	1
69	69	4
119	122	1
29	143	1
232	240	2
91	91	1
195	205	2
241	242	1
124	127	2
160	161	2
141	141	2
151	152	3
16	16	2
154	155	3
66	107	1
1	2	2
182	182	2
77	78	1
107	107	4
190	191	1
149	155	1
147	207	2
132	132	2
145	146	1
24	24	5
77	83	2
109	110	2
229	230	2
181	181	1
8	9	3
144	145	5
125	126	1
158	158	6
152	153	4
5	5	1
78	78	2
98	98	3
141	146	2
159	202	1
191	191	3
3	103	3
125	133	1
77	77	1
204	204	1
29	29	2
215	216	1
28	206	1
135	137	2
43	120	1
113	113	3
193	193	3
126	126	4
119	120	1
156	219	2
45	45	3
83	84	3
79	91	4
213	230	1
239	239	1
150	150	6
159	203	1
60	60	4
149	149	1
195	195	3
10	10	2
63	64	4
174	178	2
238	238	2
222	223	2
58	58	1
163	163	1
82	82	2
233	234	2
110	182	1
164	186	3
221	226	1
139	140	3
15	19	5
48	48	2
155	156	3
203	203	2
1	4	2
24	25	1
61	61	3
91	118	1
133	134	2
184	184	1
208	211	1
109	111	1
146	147	3
221	221	1
28	28	1
7	200	1
13	13	1
102	102	1
22	23	1
180	180	1
15	15	2
156	157	1
86	86	2
28	144	1
163	164	1
20	20	2
167	167	2
52	53	1
88	88	1
29	144	3
230	230	1
25	46	1
158	165	1
75	75	2
108	108	1
187	226	3
150	155	1
161	161	1
49	49	3
52	52	2
214	215	1
220	223	1
167	168	1
51	53	1
223	235	1
225	226	2
209	209	1
234	241	1
71	73	1
210	211	1
162	163	1
3	3	1
188	189	1
185	187	2
233	240	1
68	133	1
48	49	1
61	62	1
165	166	1
41	42	1
181	191	1
227	228	1
18	18	1
236	236	1
40	208	1
189	189	1
185	185	1
9	9	1
8	8	1
32	32	2
81	84	1
225	228	1
216	230	1
224	224	1
112	177	1
108	109	1
20	203	1
166	166	1
29	35	1
220	220	1
