32	32	6
143	143	11
110	110	3
75	75	3
67	68	3
87	87	5
35	35	2
51	51	7
66	68	4
89	89	9
61	61	2
121	121	1
97	97	5
122	123	4
145	146	1
15	34	3
67	67	1
99	99	10
21	23	3
31	31	4
55	55	5
104	105	3
72	72	12
66	66	5
2	2	11
69	104	3
43	47	1
80	80	5
97	108	5
118	118	16
85	85	8
122	122	3
126	126	2
60	62	4
64	66	3
70	104	1
103	103	11
102	133	3
136	136	4
56	56	6
27	27	4
41	42	6
9	9	1
81	82	10
40	40	4
16	16	6
142	142	4
104	104	4
19	19	1
10	10	10
115	115	4
81	86	5
135	135	2
78	78	3
136	137	2
18	18	4
3	35	5
109	109	9
125	125	6
123	124	2
41	41	6
93	93	3
51	52	10
107	107	1
60	60	1
23	23	7
140	140	5
26	27	3
118	119	5
76	76	5
14	14	3
133	133	4
15	16	1
106	107	1
57	57	5
90	90	4
24	43	2
124	124	7
29	30	2
91	92	1
32	40	1
43	48	3
125	130	1
65	66	1
22	42	5
134	134	8
58	58	2
110	112	3
62	76	1
102	102	2
34	34	1
106	106	1
68	68	4
52	53	1
13	17	1
42	42	6
25	25	4
49	49	12
17	17	3
12	14	3
79	80	6
12	15	1
95	95	6
108	108	1
120	120	3
37	37	7
68	69	2
125	131	4
71	72	3
17	21	1
50	50	3
109	110	4
127	127	4
20	20	2
107	108	6
70	70	7
38	38	5
28	28	3
141	141	4
92	92	3
3	3	1
131	133	2
144	144	4
68	71	4
77	77	3
30	30	1
115	126	3
113	114	1
62	67	2
24	25	2
10	11	1
6	9	1
54	54	2
124	125	5
4	6	1
65	65	1
101	101	7
60	61	1
47	48	1
107	118	1
62	75	3
33	33	2
49	58	3
74	74	4
15	15	4
25	57	1
84	84	6
11	11	6
32	33	2
112	114	1
144	145	2
50	64	1
82	82	5
94	94	5
6	6	2
64	64	5
66	81	1
133	134	1
63	63	3
122	124	2
1	36	1
93	94	3
72	75	1
81	84	2
83	84	1
141	142	2
116	116	1
39	40	1
70	72	2
130	130	2
71	71	3
81	81	2
83	85	1
113	118	1
79	79	4
59	60	1
48	48	2
88	88	1
145	145	1
84	85	1
8	10	4
69	70	1
0	3	1
16	17	1
112	112	1
8	9	1
33	39	1
62	62	2
9	10	2
96	110	1
131	131	2
43	43	1
68	72	1
87	88	1
138	138	2
112	117	1
114	114	1
43	57	2
63	64	1
123	123	1
63	75	1
108	123	2
19	21	2
119	119	1
129	129	4
139	139	3
12	13	1
89	90	3
53	53	1
9	11	1
74	89	2
119	135	1
34	37	2
26	26	2
29	29	1
91	91	1
100	101	1
34	36	1
62	63	1
49	50	1
96	97	1
115	117	1
85	86	1
1	1	1
95	96	1
