0	0	5
79	79	2
129	129	7
113	113	7
131	131	11
23	24	4
124	131	2
114	115	4
99	125	1
82	82	6
60	109	5
89	90	8
121	121	1
108	132	3
56	57	2
21	21	19
96	96	2
65	65	1
6	13	2
97	97	2
19	19	4
120	120	2
87	109	2
101	101	8
67	67	4
81	81	3
6	7	2
28	28	14
112	114	1
130	132	2
71	71	7
111	111	10
34	34	3
55	56	6
23	23	4
115	116	4
76	76	5
8	8	3
103	103	5
107	132	3
128	129	3
56	107	2
27	27	1
36	36	4
130	130	7
68	69	1
88	88	8
59	61	2
1	1	4
64	64	9
53	110	3
26	26	7
91	91	5
124	124	6
106	107	1
9	9	1
107	107	4
116	116	5
53	53	5
61	61	6
101	122	3
6	6	9
108	108	5
106	108	2
50	50	4
68	68	2
127	127	1
72	73	3
22	22	7
7	7	5
24	24	2
99	126	2
25	25	2
112	113	8
78	78	5
6	14	3
16	16	4
122	125	6
13	14	4
118	118	11
85	97	3
104	104	8
119	119	4
0	2	1
91	92	3
90	91	4
15	16	5
110	110	10
20	21	3
63	63	4
86	87	1
15	30	3
14	14	4
47	47	1
84	84	7
10	10	4
31	31	5
52	110	2
70	70	6
105	105	3
111	114	2
92	92	5
116	120	2
120	123	5
79	84	1
80	83	2
83	83	1
85	85	7
75	75	7
66	66	4
3	7	1
77	79	3
86	94	1
16	30	3
114	114	3
60	108	3
2	2	2
12	12	3
115	115	5
62	65	1
67	82	3
52	53	1
32	78	1
93	93	3
28	29	2
92	93	2
48	48	3
134	134	3
89	89	1
123	123	4
55	110	2
59	59	2
99	99	5
123	131	3
32	32	3
102	103	1
20	20	2
3	3	3
119	120	4
35	43	2
90	90	1
60	60	2
102	102	2
27	28	3
17	17	3
53	117	3
11	12	2
87	97	2
103	104	2
55	55	3
43	45	2
86	109	2
116	117	1
16	17	1
54	124	1
13	13	2
115	117	2
73	74	2
69	69	3
62	62	2
52	108	1
106	113	1
33	33	2
88	94	1
43	43	1
5	5	1
101	102	1
37	38	1
95	95	1
52	62	3
98	98	2
61	62	1
93	97	1
33	34	2
133	133	1
58	59	1
5	6	1
4	8	1
122	131	1
67	68	1
37	45	1
18	18	1
77	77	1
91	97	1
38	38	1
56	117	1
73	73	2
60	61	1
94	94	1
54	106	1
