13	14	3
25	25	24
151	151	13
4	4	4
165	165	9
160	160	18
137	137	15
183	183	11
43	43	13
31	32	5
41	43	3
122	122	12
42	42	12
71	72	7
167	169	7
138	140	3
43	44	3
28	29	9
38	38	8
19	20	5
82	84	4
78	78	20
52	52	16
127	127	9
168	168	7
61	72	3
73	73	6
8	9	9
81	81	5
39	39	10
49	49	8
181	189	2
31	31	17
191	192	1
81	84	3
89	89	3
36	36	6
104	106	10
86	86	9
122	123	4
139	140	12
150	150	5
114	114	13
149	151	6
70	70	28
77	77	7
185	185	17
193	193	12
159	159	7
180	180	8
189	189	6
173	173	11
179	182	13
32	32	5
65	66	5
9	9	15
18	45	6
162	163	13
191	191	7
146	196	6
2	2	8
63	64	2
87	87	9
142	142	10
181	182	6
7	7	13
142	160	3
55	55	11
19	19	9
156	156	4
104	105	5
79	80	8
45	73	2
18	18	9
127	128	5
6	7	3
168	169	2
10	53	4
182	182	21
187	193	8
134	134	10
58	58	4
48	48	20
167	167	6
123	123	7
64	65	5
75	75	11
183	184	3
51	61	3
34	34	13
116	116	13
187	187	13
3	3	7
178	178	26
9	55	1
163	163	11
162	162	8
100	103	9
188	188	10
124	124	10
117	117	4
189	192	3
181	186	6
20	20	7
9	53	1
23	23	25
57	57	25
152	152	6
65	65	3
7	8	6
10	10	10
61	62	3
130	131	7
159	160	5
149	149	12
140	140	16
5	6	9
8	8	16
35	35	4
14	15	6
145	146	3
73	76	5
40	40	6
178	182	7
51	197	1
80	81	3
9	10	6
171	172	1
93	93	5
54	54	6
114	115	3
140	170	1
45	45	12
138	138	27
6	25	3
188	189	6
17	17	8
85	86	1
30	31	3
94	94	7
161	191	9
55	56	8
142	144	2
57	72	3
182	185	5
132	132	11
83	83	8
20	21	3
63	82	7
99	120	4
30	30	14
42	44	6
62	83	3
153	153	13
145	145	8
87	89	2
24	187	7
143	145	1
95	96	2
107	107	3
81	82	6
154	154	5
114	121	5
4	6	3
0	1	6
64	64	12
176	182	6
106	107	4
169	170	5
41	41	11
5	5	10
37	50	3
120	130	4
165	166	5
131	131	7
176	176	10
119	119	12
46	47	2
172	172	12
0	84	3
37	85	1
60	71	2
164	164	7
115	115	8
0	0	6
15	16	2
120	120	9
132	133	4
0	18	4
58	59	3
104	104	15
6	193	1
101	101	7
170	174	4
177	177	20
178	179	2
121	122	3
42	43	3
118	146	2
148	148	8
144	144	14
38	40	8
12	12	13
66	66	7
77	78	9
118	118	12
97	120	4
117	147	2
11	11	5
194	194	9
98	98	11
29	83	4
184	184	21
76	78	3
52	53	2
157	157	14
67	67	7
38	60	4
110	110	7
146	146	6
11	12	5
24	24	8
130	130	5
26	26	13
13	13	8
15	15	11
118	119	6
94	96	5
97	101	4
145	147	4
192	195	3
152	153	7
50	50	7
51	51	6
157	159	2
141	141	6
163	165	3
156	157	7
69	69	5
37	65	5
138	139	3
165	173	3
74	74	9
2	22	6
143	146	6
192	192	11
144	168	5
142	145	5
76	76	8
195	195	7
54	55	5
196	196	8
186	186	10
48	49	5
149	150	2
165	175	4
84	85	6
56	56	1
68	68	9
57	58	3
155	171	3
60	61	3
186	194	3
34	36	10
158	159	5
176	177	4
139	139	8
80	83	5
142	143	3
30	63	2
18	19	2
96	96	4
96	97	2
28	28	4
46	46	3
190	190	17
108	108	4
71	71	8
132	139	3
94	95	5
161	192	2
151	152	7
79	79	9
179	179	8
166	175	3
12	46	2
21	23	1
172	173	10
61	71	1
18	57	3
134	135	8
119	120	4
61	61	3
158	158	8
145	160	6
82	83	2
38	43	1
16	17	2
161	161	8
99	108	3
105	111	3
57	86	6
33	33	8
146	190	7
165	167	3
89	90	6
26	85	1
34	37	2
143	143	1
133	133	3
157	158	7
173	174	8
147	152	3
62	62	16
24	25	7
197	197	5
119	137	3
52	57	3
59	59	7
110	111	1
120	143	3
78	81	2
102	103	2
26	27	5
161	162	8
107	108	3
3	4	6
69	70	6
135	136	1
188	193	1
32	85	2
31	85	3
56	86	1
107	112	4
103	104	1
146	147	4
3	23	3
187	188	9
174	175	6
113	113	2
0	19	4
7	188	1
36	38	5
16	16	4
83	85	6
14	75	5
179	180	5
37	37	7
47	47	6
121	121	5
169	169	1
6	6	7
82	82	3
135	135	7
8	195	1
163	164	8
35	36	3
147	148	2
90	90	2
39	44	5
153	171	4
146	160	4
189	191	3
193	194	4
151	170	2
60	72	2
58	72	1
125	125	3
175	175	2
25	26	4
190	195	2
148	149	1
19	86	3
44	44	3
119	144	1
128	128	3
167	168	1
73	74	5
144	195	2
44	71	2
100	100	4
117	124	1
47	48	4
141	142	3
141	158	2
154	155	2
106	106	5
174	174	7
14	14	11
155	156	3
45	47	4
53	148	2
99	101	1
83	84	3
125	129	1
113	114	5
80	80	2
99	102	1
37	38	1
45	75	2
12	13	4
32	33	2
136	136	7
101	102	5
133	140	3
144	145	3
1	1	9
169	175	3
53	53	12
113	121	7
148	151	3
166	166	7
63	83	2
22	22	5
85	85	3
50	197	3
133	139	2
129	129	2
2	19	1
53	54	1
86	87	2
159	163	1
23	86	2
0	81	1
54	87	2
94	105	1
23	55	2
27	28	4
63	63	1
29	29	5
26	32	3
41	44	3
14	47	3
147	147	3
118	196	1
2	21	2
116	121	2
27	27	7
1	82	2
13	74	1
121	123	4
72	72	3
58	61	2
111	111	6
19	21	1
46	48	2
154	171	7
78	79	3
179	193	1
137	138	4
123	124	3
132	140	1
22	23	4
170	171	1
58	81	3
97	97	5
105	105	2
23	26	3
29	31	4
116	117	5
153	154	2
8	196	1
33	34	1
180	182	1
25	185	1
76	77	1
88	88	1
143	144	1
109	109	2
66	69	1
149	174	1
50	51	3
181	181	2
11	13	2
63	66	1
105	120	1
113	115	3
180	181	3
108	109	1
100	102	2
24	181	1
29	82	2
5	8	2
170	172	1
38	170	1
29	63	1
181	185	2
7	191	1
164	166	2
147	168	1
150	151	3
70	71	4
27	86	2
141	160	2
96	100	1
185	186	2
160	190	2
88	90	1
117	118	4
194	195	1
39	40	1
176	184	1
0	2	1
90	97	3
112	121	1
10	11	1
161	167	2
74	75	5
186	187	2
25	181	1
131	132	2
73	75	1
126	131	1
40	41	2
84	84	1
141	156	2
59	72	2
129	130	1
28	31	1
160	163	2
44	73	1
2	12	1
136	137	1
79	81	1
103	103	1
158	190	1
59	60	1
109	110	1
118	147	1
93	110	1
50	114	2
170	170	2
126	127	1
112	112	1
177	178	2
163	168	1
127	131	1
10	15	1
14	45	1
108	120	1
97	121	1
100	101	1
133	134	1
157	190	2
124	125	1
157	161	1
190	191	1
62	64	1
171	171	1
28	30	1
178	184	1
144	146	1
143	169	1
