173	173	9
45	45	5
127	127	3
38	38	4
103	103	4
72	72	6
114	114	1
12	12	6
160	161	2
9	36	2
28	28	3
48	48	11
113	113	7
123	123	15
23	36	4
176	176	2
170	170	2
27	27	5
8	35	1
25	25	4
31	31	2
51	51	9
71	71	8
171	172	6
179	179	2
186	186	14
67	67	4
168	169	4
85	85	2
4	6	3
76	112	1
175	176	2
97	97	6
17	17	6
110	111	3
64	64	3
75	106	2
160	162	4
53	54	3
1	34	4
134	134	10
37	126	4
26	26	7
40	65	1
125	125	1
94	155	3
84	85	1
71	128	3
149	149	8
14	14	7
93	94	4
68	132	3
69	113	3
108	109	2
169	169	3
134	136	1
69	154	2
27	67	1
140	148	6
137	138	3
11	11	3
107	107	4
94	94	2
18	60	8
100	101	2
69	69	2
103	112	3
63	63	5
41	41	1
110	110	6
40	64	4
177	177	5
142	142	11
133	133	1
45	46	2
13	13	4
165	165	4
178	179	2
86	86	2
191	191	5
22	24	2
46	47	5
7	7	7
95	96	3
39	39	5
180	182	2
195	196	2
76	105	1
187	189	3
133	137	1
53	53	6
73	76	6
70	129	2
151	151	2
24	34	1
108	108	3
54	54	3
172	173	6
90	90	4
39	124	3
70	157	1
184	184	9
126	127	3
44	44	6
40	41	3
163	164	2
62	62	2
38	132	2
196	197	7
59	59	2
74	163	1
117	118	9
39	69	2
181	182	2
47	47	2
194	194	4
135	159	4
20	41	2
15	15	3
162	168	4
85	86	1
149	150	3
16	17	3
16	16	4
112	113	2
132	132	4
83	100	4
141	194	4
10	10	5
57	57	9
180	186	1
182	182	8
74	115	1
168	168	5
147	147	5
70	70	3
146	172	3
88	88	2
181	181	6
4	36	1
183	184	1
71	72	2
56	192	2
183	183	6
59	61	3
89	158	2
54	57	2
189	189	5
56	57	1
111	111	5
133	134	2
130	130	2
179	180	2
68	68	3
81	83	2
34	34	3
27	30	2
65	65	4
81	81	5
74	75	1
66	66	2
159	159	3
126	126	7
78	78	3
73	74	3
11	31	1
147	148	2
15	33	3
1	1	5
167	167	3
89	114	2
40	68	4
176	190	3
187	188	2
38	128	3
50	169	4
70	128	2
55	61	1
80	80	8
37	37	1
78	113	1
100	190	2
53	58	2
2	2	6
24	25	2
67	136	1
17	60	2
24	24	4
74	149	1
115	160	2
150	164	2
104	115	1
156	156	1
122	122	1
178	178	2
84	84	1
137	137	1
40	40	6
161	161	4
90	130	2
124	124	4
43	43	4
5	6	3
101	101	5
193	193	11
191	192	4
135	136	3
171	171	3
155	155	6
52	169	1
79	79	5
120	121	3
71	115	1
135	135	5
188	188	3
76	76	6
192	193	1
166	166	1
80	83	1
148	153	4
25	26	1
52	52	8
78	79	1
73	73	5
22	22	2
83	85	1
116	116	2
48	52	2
117	119	3
143	143	2
55	56	1
149	153	1
117	117	1
0	0	3
7	8	1
115	115	2
148	149	1
76	77	2
172	195	3
144	144	3
161	163	1
89	89	5
98	99	2
154	154	1
135	137	1
117	120	1
9	9	5
166	167	1
50	50	6
106	106	1
49	49	1
119	119	3
57	58	2
9	34	1
83	83	3
119	120	1
87	87	2
13	124	2
195	195	3
24	33	2
75	154	1
142	193	1
104	106	4
38	122	1
158	158	2
26	65	2
5	5	2
0	1	1
189	190	1
46	53	1
149	169	2
30	31	2
83	84	2
129	129	1
175	175	3
46	46	4
142	172	2
197	197	2
172	172	6
18	18	1
109	109	1
38	124	1
47	48	5
4	5	1
42	42	5
143	144	1
45	57	2
16	21	2
30	30	2
163	163	1
93	93	2
20	36	2
132	191	1
50	52	1
138	138	1
107	162	3
82	82	2
9	16	1
111	112	2
152	153	1
125	127	1
1	33	1
29	29	1
18	19	3
60	62	2
13	45	2
19	62	1
136	136	2
38	129	1
102	103	1
120	120	2
39	68	1
32	33	2
100	100	2
13	60	1
147	190	1
152	152	3
2	5	1
132	135	1
40	67	1
108	161	1
58	58	1
60	60	3
182	183	1
61	61	1
95	95	2
114	154	1
11	12	1
154	155	1
36	36	1
196	196	2
13	16	1
102	102	1
19	19	1
105	116	1
148	171	1
52	73	1
153	153	1
100	104	1
33	33	1
179	183	1
162	162	1
52	172	2
13	59	2
99	105	1
118	118	1
13	137	1
120	122	1
52	194	1
24	36	1
79	101	1
76	116	1
32	32	1
139	147	1
139	139	1
145	174	1
