9	9	8
114	114	4
54	55	2
153	159	5
132	133	9
36	36	1
123	124	11
139	140	6
76	76	6
27	27	10
71	71	4
49	49	6
50	67	4
63	63	4
70	70	10
50	50	2
45	45	3
168	168	10
134	134	8
0	1	3
57	87	1
110	145	3
16	17	5
47	47	1
44	48	2
43	44	6
88	117	2
108	109	5
149	149	8
25	25	12
131	143	3
6	6	8
152	153	3
66	66	5
84	84	7
18	18	8
115	116	2
15	15	10
105	105	3
8	9	2
133	133	5
20	21	3
45	49	3
58	58	1
83	83	7
143	143	9
147	148	3
101	102	3
46	46	8
106	106	7
88	88	6
82	82	16
13	19	1
65	65	5
123	125	3
12	18	2
5	12	3
56	85	2
138	145	5
40	40	7
165	166	2
14	14	3
99	99	7
158	158	7
147	147	9
65	66	3
72	73	3
140	140	3
4	14	2
57	57	6
91	91	11
69	70	7
64	64	6
28	28	5
148	148	4
139	142	3
159	159	14
134	136	7
131	131	3
104	104	11
120	120	11
101	101	5
20	23	4
57	84	1
21	23	2
12	12	5
140	149	1
90	90	10
162	162	3
15	17	4
0	0	7
24	24	4
53	53	4
101	103	3
129	129	4
144	144	12
55	55	3
39	39	1
113	113	6
141	141	6
106	107	6
145	151	1
112	112	8
170	170	10
100	101	4
136	136	6
122	122	1
153	153	10
125	125	3
112	116	1
57	58	3
119	119	1
37	37	8
110	110	8
126	126	13
114	130	2
107	108	1
161	161	13
5	10	3
145	146	3
72	72	6
130	130	6
117	117	6
140	143	3
13	13	9
151	151	6
18	24	2
1	1	8
93	93	3
107	107	4
122	126	3
160	163	2
11	11	11
86	86	6
88	90	2
89	115	4
103	104	3
139	139	8
167	167	6
132	160	4
41	42	3
119	122	1
48	48	6
80	105	1
74	105	3
128	140	4
22	22	5
80	80	9
111	111	6
145	147	1
1	2	3
52	52	3
80	106	5
54	71	1
138	144	4
123	123	8
21	21	4
162	165	2
38	38	4
0	2	1
38	39	4
83	84	1
27	28	2
165	165	2
111	121	1
48	53	1
169	169	1
75	75	6
87	90	1
155	158	9
34	34	4
74	74	3
93	94	1
51	51	2
100	119	5
109	142	1
20	22	3
146	148	4
78	79	2
35	35	11
125	143	2
91	93	2
140	161	3
66	67	2
145	145	2
68	86	2
41	41	3
85	85	5
146	146	5
48	50	2
120	121	3
164	166	1
99	118	2
116	116	5
51	65	2
42	42	3
154	154	8
115	115	4
157	157	4
162	163	1
79	79	4
69	148	3
155	155	7
56	68	3
144	147	1
98	98	2
77	77	3
82	83	5
94	94	8
73	73	5
163	163	3
70	136	2
140	141	4
92	92	8
142	143	3
124	135	4
3	5	4
34	35	1
8	8	3
67	149	1
112	113	3
66	113	1
153	154	2
150	150	5
21	37	1
13	20	1
82	87	2
148	149	1
64	66	1
64	74	2
78	80	2
109	112	2
103	103	3
153	156	2
19	19	3
136	138	2
100	100	4
21	22	4
162	164	4
135	136	2
146	147	1
155	157	2
156	156	3
66	68	1
156	157	3
141	152	1
10	11	2
160	160	2
124	124	3
7	7	1
128	132	2
136	145	2
137	137	7
163	170	1
2	40	1
99	100	1
87	88	1
38	52	1
89	89	1
164	170	1
75	81	3
10	27	1
151	155	1
15	16	2
77	82	2
3	3	3
9	25	1
0	96	1
67	68	1
3	4	1
135	135	4
70	71	3
4	4	1
0	7	1
102	102	3
132	132	3
20	20	2
13	17	1
81	81	2
62	62	4
17	17	1
6	7	2
56	56	5
102	108	2
57	62	4
12	13	2
144	145	2
151	156	1
55	56	2
68	69	1
130	131	1
130	139	3
7	8	1
102	104	3
79	106	1
96	96	1
97	98	2
10	10	1
56	107	1
68	68	2
81	82	1
108	108	1
73	85	5
13	18	2
23	23	1
65	68	1
114	116	1
78	78	3
149	150	2
121	122	1
154	155	3
131	136	1
67	67	1
140	157	1
138	138	5
87	87	5
128	128	3
77	79	1
43	43	2
155	156	1
22	23	1
11	14	1
75	79	2
109	109	2
75	104	1
102	103	1
154	156	1
148	151	1
33	33	2
26	27	1
124	127	1
125	144	1
156	160	1
141	154	3
118	121	1
33	34	2
52	58	1
84	147	1
81	93	1
49	52	2
58	68	1
24	41	1
44	44	1
166	166	2
124	125	2
13	21	1
18	19	1
92	93	1
109	116	1
90	91	1
141	142	1
160	161	1
26	26	2
76	77	2
115	130	1
125	127	1
137	138	1
56	57	1
74	84	1
168	169	1
51	83	1
81	92	1
66	86	1
75	77	1
65	74	1
2	2	1
69	85	1
152	152	1
122	123	1
143	153	1
118	118	1
