100	152	2
95	96	1
5	5	12
2	52	2
152	152	10
53	53	9
107	107	5
138	138	18
16	17	1
151	152	5
45	45	6
150	150	14
49	49	10
118	118	19
45	46	4
68	124	2
160	160	14
76	76	10
119	119	11
88	88	9
97	152	2
2	2	10
162	162	13
155	155	10
7	7	25
0	1	5
41	44	5
127	127	8
72	158	4
50	50	9
129	129	18
15	15	16
48	50	4
131	131	13
167	167	17
150	151	5
1	1	9
142	142	7
83	151	2
52	70	6
39	41	3
88	163	7
67	69	12
132	132	10
114	114	7
127	139	1
93	93	27
102	103	7
69	69	8
96	96	7
38	38	10
126	126	11
113	113	1
65	66	5
163	163	16
65	65	5
155	156	4
157	157	10
4	5	3
43	43	15
166	166	12
124	125	2
85	85	14
36	36	5
20	21	1
97	97	7
124	124	6
115	116	2
147	147	4
112	112	5
146	146	19
94	97	4
10	10	20
126	127	3
120	121	6
3	3	10
78	79	7
22	22	6
142	143	4
145	145	9
116	116	14
109	109	12
20	134	5
87	87	10
143	143	10
51	51	15
83	83	25
11	12	1
151	151	14
135	135	20
103	103	6
75	75	2
79	82	6
64	66	1
4	4	10
90	90	12
90	122	7
70	70	14
4	103	4
134	134	6
41	42	1
18	19	6
81	83	2
16	16	2
56	56	8
57	100	1
88	89	6
8	10	2
47	47	7
68	69	3
120	120	2
100	100	10
5	44	1
169	169	5
69	70	2
66	167	1
64	64	11
92	103	4
147	149	2
118	136	4
62	62	2
86	163	5
151	157	2
125	126	8
159	159	7
54	54	7
73	73	8
2	48	1
47	48	2
136	136	5
42	42	11
133	134	2
105	105	17
154	154	5
10	11	4
89	90	7
158	159	9
24	24	8
12	12	7
133	135	2
44	49	3
9	10	6
125	137	2
110	110	4
19	19	2
128	128	21
94	94	6
50	51	5
140	140	5
110	111	5
5	46	3
146	147	1
74	112	2
52	52	8
71	143	2
26	26	5
164	165	5
80	154	3
13	13	8
101	101	8
98	98	13
102	102	6
71	71	10
120	163	1
137	137	14
115	115	2
149	150	3
125	125	17
130	130	9
17	17	7
102	111	3
165	165	2
153	153	4
21	21	7
108	109	5
100	147	5
156	157	2
47	50	3
5	105	2
132	136	2
40	125	2
98	140	2
160	162	2
97	98	3
134	135	8
43	44	5
161	161	10
128	129	4
91	91	5
70	71	5
34	34	4
116	118	1
95	95	7
40	41	2
164	164	10
167	170	1
168	168	8
65	117	3
76	77	3
123	123	9
137	138	6
35	35	6
0	0	5
74	113	3
158	158	4
2	73	2
46	46	8
93	94	9
100	116	1
0	2	8
111	111	14
131	132	3
111	116	1
56	57	1
129	130	4
78	86	1
119	120	5
131	137	2
163	166	3
108	108	5
104	104	4
18	18	9
25	25	4
44	53	1
37	37	4
168	169	2
128	130	1
78	80	4
84	84	8
48	48	2
122	122	2
101	102	4
40	122	3
92	94	3
130	131	4
49	50	3
13	14	7
143	163	2
39	122	2
76	93	2
55	57	1
6	6	15
97	123	1
84	85	2
42	43	1
56	58	1
106	106	5
142	166	1
81	82	8
71	99	3
98	99	4
23	24	4
145	146	1
161	162	3
11	11	13
79	79	6
53	55	3
54	55	4
55	56	5
92	92	1
24	25	2
71	116	1
104	105	3
144	161	6
86	145	5
3	4	2
144	167	1
106	157	4
147	148	5
96	97	4
41	41	8
78	78	1
82	82	3
33	33	4
44	44	10
17	56	2
72	72	3
20	20	6
94	96	6
65	116	3
9	9	6
7	10	3
67	67	3
133	133	2
156	161	1
80	82	3
81	81	2
80	80	2
112	120	1
68	68	6
137	139	2
105	155	1
151	156	4
40	120	1
106	156	5
114	123	1
89	89	6
83	146	3
27	27	2
118	119	4
39	39	1
119	135	3
89	140	1
65	70	3
149	149	8
76	91	3
41	43	1
1	73	1
17	41	2
113	152	1
77	95	1
76	111	1
139	140	2
66	66	3
139	139	3
63	100	3
43	112	2
80	147	1
148	148	5
144	145	3
3	15	3
90	105	4
80	86	2
142	144	3
170	170	1
40	110	1
168	170	3
14	14	6
4	44	1
24	134	1
128	132	1
128	138	4
38	112	1
48	52	4
157	158	2
57	62	1
83	147	1
63	70	2
141	142	1
57	57	5
154	155	2
118	132	1
67	98	1
90	93	1
94	136	3
141	141	3
102	104	2
156	156	5
90	95	1
163	165	1
105	111	2
109	110	2
145	153	2
144	144	4
107	108	1
119	136	1
105	106	1
166	167	1
70	98	1
117	117	2
103	104	1
112	113	1
87	119	1
81	87	2
42	122	1
83	150	2
63	64	3
51	53	4
90	91	5
69	126	1
75	76	1
14	21	1
101	103	1
114	155	1
57	99	1
167	168	2
124	126	1
74	157	2
47	49	2
40	40	2
92	101	1
5	47	1
90	97	1
49	127	2
150	156	1
6	53	2
85	86	4
63	63	1
71	72	1
119	123	2
112	114	1
71	142	1
134	136	1
160	161	3
99	99	1
50	57	1
77	77	2
135	136	2
151	155	1
152	153	3
97	99	1
86	164	1
51	70	2
108	111	1
97	154	1
74	74	3
161	163	1
44	45	1
24	26	1
44	48	1
41	112	1
4	6	1
79	80	1
66	67	2
58	99	1
76	101	1
99	140	1
8	9	1
86	86	1
165	166	1
73	115	1
56	62	2
114	122	1
36	142	1
18	57	1
64	100	1
87	88	1
68	118	1
4	43	1
41	52	1
26	110	1
8	8	1
56	101	1
