29	29	3
174	174	3
74	74	3
100	105	5
186	186	5
2	2	4
21	23	1
152	153	6
95	95	9
7	155	2
62	63	8
178	178	3
106	106	5
112	113	3
167	168	5
43	43	6
175	177	1
47	47	1
34	35	5
136	136	3
137	137	5
80	81	5
60	61	6
75	75	1
173	173	5
158	158	11
164	166	5
97	97	6
149	150	4
71	72	2
123	123	6
133	133	8
59	59	4
83	83	4
87	140	3
186	187	3
114	115	2
73	73	8
167	167	5
150	151	7
184	184	1
80	82	4
155	155	15
134	134	6
145	176	4
142	144	1
147	148	6
171	171	5
149	149	13
79	81	1
17	17	7
20	80	4
7	7	2
20	21	2
19	82	2
144	145	1
160	160	12
10	10	2
107	144	3
112	142	3
22	23	2
67	72	3
146	147	9
104	104	4
112	112	5
16	16	12
48	48	2
103	103	3
107	107	13
128	128	6
20	20	7
117	117	3
65	65	2
42	42	8
152	152	5
114	114	2
97	98	9
91	93	4
121	121	7
77	77	6
19	20	4
140	140	9
61	62	4
38	38	5
76	76	6
0	0	9
75	76	5
93	93	7
84	84	14
124	125	9
106	157	2
42	43	5
17	83	3
114	117	3
70	70	1
46	46	4
156	156	1
72	72	5
105	105	7
81	82	5
142	143	2
102	102	2
53	53	4
27	30	8
6	6	3
119	122	1
101	102	8
21	21	2
63	63	5
180	180	3
116	117	1
45	45	6
135	135	6
125	140	2
44	44	3
59	60	1
179	180	3
139	139	9
161	162	1
57	60	1
4	5	1
110	110	10
113	113	5
32	32	2
21	22	2
144	144	2
188	188	7
25	25	10
79	79	8
88	89	2
34	132	2
1	1	3
184	185	4
115	115	12
11	11	6
18	18	5
8	8	3
92	92	2
164	164	3
25	33	2
44	45	2
33	34	1
120	122	2
88	91	4
118	119	6
41	41	10
162	162	8
130	130	6
58	60	1
147	147	8
168	169	3
100	100	3
47	65	2
54	54	10
128	129	1
67	67	2
103	104	2
168	168	6
151	151	4
20	77	1
99	99	5
14	81	3
96	97	1
48	64	1
181	181	8
153	154	3
18	108	2
29	34	1
138	139	4
182	183	5
125	126	3
15	16	1
104	155	5
56	56	2
24	27	1
118	118	5
146	182	4
26	26	3
79	156	1
132	133	1
166	167	3
13	13	4
19	21	1
169	170	3
127	127	6
176	176	7
138	140	2
3	4	2
79	90	2
39	40	1
159	160	2
90	90	4
148	149	1
91	91	9
66	66	3
161	161	5
133	139	1
102	103	1
83	84	1
143	144	3
126	129	2
125	125	1
96	96	2
114	168	3
5	6	3
5	5	3
37	39	1
17	18	3
37	37	1
146	148	1
13	14	2
155	157	1
157	157	6
94	94	5
61	61	2
123	124	5
109	109	3
24	24	1
99	100	3
88	88	4
36	36	3
185	185	1
144	147	2
31	135	1
40	40	7
71	71	4
170	170	3
189	190	4
15	15	5
25	26	1
60	60	3
104	105	1
145	178	2
2	182	3
148	148	5
86	86	2
81	81	5
182	182	3
151	152	1
158	160	3
106	107	1
1	137	2
16	26	2
74	75	1
154	164	1
19	19	1
92	93	2
27	27	2
65	66	4
89	89	6
21	47	1
14	14	2
30	30	5
146	159	1
175	175	5
12	12	3
34	36	3
23	23	4
97	102	4
32	33	3
56	57	2
177	177	2
113	114	2
111	111	3
181	182	2
153	153	3
28	29	2
179	179	1
140	170	1
33	33	4
180	182	2
165	166	1
17	130	2
10	12	1
143	143	3
10	13	1
160	162	1
37	38	1
173	174	3
116	119	4
157	158	4
167	169	1
57	57	1
22	22	1
27	28	1
87	87	4
108	145	3
58	59	1
3	3	3
100	103	1
30	31	2
122	123	5
35	35	3
16	17	1
39	75	1
166	166	1
131	134	1
125	127	1
129	129	4
151	174	1
23	24	2
165	165	2
11	12	1
103	154	2
28	28	1
141	141	3
71	73	1
162	163	1
101	101	1
71	81	1
147	178	1
120	120	1
150	150	3
55	55	3
126	140	2
124	124	2
158	162	1
52	53	1
151	175	1
7	101	2
172	172	1
4	89	1
12	110	2
26	71	1
53	54	2
23	59	2
142	142	1
150	152	1
16	162	1
96	182	1
122	122	1
187	187	1
175	176	3
73	74	1
108	108	2
135	136	1
106	108	3
145	145	1
91	95	1
68	68	1
15	100	1
127	128	3
18	83	1
37	77	1
111	112	1
33	35	1
18	163	1
64	64	1
96	101	1
61	87	1
54	55	1
38	39	2
126	142	1
117	118	1
134	137	2
31	31	1
180	181	2
89	156	1
92	105	1
129	165	1
110	111	1
3	184	1
175	178	1
