18	18	15
125	126	4
24	128	4
96	96	25
93	93	17
144	145	14
113	125	5
118	118	11
73	77	4
149	149	33
50	50	25
66	66	4
154	154	6
107	107	14
11	12	6
82	152	1
53	53	12
105	105	14
67	67	14
91	94	9
37	38	9
47	131	3
7	7	24
102	102	9
26	26	10
111	111	13
126	126	16
54	56	3
168	168	14
153	153	16
47	47	11
23	23	10
100	100	26
91	91	17
66	89	2
71	72	9
109	112	4
37	37	14
34	34	13
22	23	15
134	134	16
138	138	18
16	16	15
147	147	16
3	162	2
64	64	8
21	23	14
163	164	3
69	69	14
104	104	20
44	45	7
76	76	13
111	112	4
164	164	15
148	148	11
41	41	15
4	4	16
112	112	4
93	94	15
4	108	5
66	67	3
75	77	9
123	124	7
27	27	14
11	16	2
131	131	13
83	83	9
54	54	23
71	71	12
93	117	3
160	167	3
141	141	10
19	142	4
52	52	10
98	98	8
134	139	1
25	135	2
169	169	5
157	158	10
136	136	19
70	70	29
78	78	6
16	17	6
23	47	1
35	36	4
124	124	29
80	82	2
142	142	15
109	109	13
151	151	16
73	73	19
170	170	9
24	24	15
74	75	12
146	148	11
57	61	2
123	123	5
26	109	3
0	0	8
7	20	3
6	6	15
137	138	14
35	39	2
9	9	19
132	132	11
162	162	13
146	146	14
155	157	9
47	133	1
13	13	12
27	127	6
68	68	19
45	45	14
111	113	4
97	97	12
84	84	14
11	11	13
159	159	18
127	127	26
77	77	16
55	104	3
161	161	13
156	156	18
91	92	7
13	36	3
69	71	5
44	133	5
62	81	3
3	36	2
70	72	11
132	139	4
118	119	6
110	110	15
21	22	14
122	122	10
7	10	7
42	42	22
39	90	2
150	167	4
56	56	13
122	123	8
19	19	6
109	110	6
114	114	12
87	88	5
8	113	4
157	157	21
115	115	10
162	165	5
23	131	2
50	51	4
151	152	2
38	40	4
36	37	4
48	48	16
2	2	13
57	106	5
108	109	10
15	15	9
10	10	9
65	67	3
150	150	13
148	149	8
36	36	8
76	85	2
11	144	1
85	87	3
17	20	3
120	120	11
130	130	17
72	72	18
68	69	2
10	11	11
125	125	9
14	14	13
129	130	8
106	107	11
83	85	4
44	48	3
160	160	19
46	47	1
116	116	16
158	159	7
133	133	15
92	93	5
17	23	2
101	103	8
45	46	4
118	165	3
66	73	1
79	80	16
8	8	8
93	118	4
152	153	11
44	44	22
95	95	10
139	139	20
113	116	3
135	136	3
167	168	5
128	128	8
46	131	1
121	122	6
85	86	2
92	92	12
139	140	3
145	145	20
14	15	7
21	24	2
21	21	7
158	158	12
43	43	15
119	119	16
99	99	5
116	118	5
81	81	14
73	78	2
58	58	2
94	94	18
159	160	3
38	38	9
4	5	6
27	28	3
28	28	2
127	128	4
80	148	3
3	5	3
44	46	5
54	55	3
66	88	2
149	150	4
13	15	2
135	135	13
40	40	7
81	82	5
92	117	2
86	87	2
51	51	31
94	95	2
87	89	3
10	106	1
12	12	6
83	84	3
8	96	3
17	17	10
12	40	1
104	105	1
168	169	4
117	117	12
75	75	4
2	159	4
121	121	12
127	130	9
8	9	11
167	167	12
152	152	8
22	130	4
134	135	5
63	64	5
17	18	5
77	78	3
65	66	2
25	130	3
88	89	2
3	3	4
26	27	3
20	22	9
33	33	3
103	103	8
112	113	5
55	55	15
87	87	12
93	95	4
155	156	11
154	156	4
114	115	7
86	86	11
163	165	6
19	50	12
96	97	12
5	5	6
66	163	3
76	151	1
62	105	8
155	155	19
165	165	5
76	77	2
106	106	7
75	156	1
102	148	1
61	61	2
168	170	6
92	121	3
48	131	1
143	143	13
57	62	1
92	116	2
133	134	1
61	62	8
85	85	13
64	65	7
39	40	4
129	129	11
140	141	14
35	35	4
101	102	4
162	166	7
128	129	4
58	62	1
84	152	7
101	101	7
38	39	3
0	1	1
70	71	4
7	97	4
64	67	4
124	125	13
137	137	10
10	50	7
82	82	10
25	129	1
39	39	18
105	106	3
74	77	2
69	70	11
26	130	3
166	166	14
162	163	1
112	128	3
127	129	5
156	157	2
166	168	1
64	66	7
25	25	12
78	80	2
139	141	8
91	117	6
90	90	12
79	79	8
144	144	6
13	39	3
88	88	9
63	63	11
15	141	4
14	38	4
64	78	5
46	46	9
74	156	3
91	93	1
18	49	1
116	117	3
65	65	12
49	49	11
8	97	2
126	127	6
4	40	1
150	151	2
6	16	1
5	7	1
78	87	4
8	20	1
91	119	1
98	99	4
22	22	5
113	114	3
83	152	1
47	48	2
161	163	1
113	124	2
23	49	4
26	126	2
73	94	4
96	114	4
23	24	5
82	84	1
15	16	1
52	53	4
20	20	4
76	78	1
115	116	11
132	133	7
161	162	4
11	143	3
24	129	3
74	74	9
14	39	2
113	113	9
71	90	3
1	1	6
47	49	2
117	118	2
63	78	9
49	132	2
78	85	5
137	141	1
108	108	7
73	92	5
156	158	1
134	137	6
27	111	3
18	143	2
119	120	3
13	14	5
34	39	1
1	2	5
74	88	2
102	103	4
111	121	4
5	19	2
34	35	2
20	24	1
161	167	1
57	57	4
99	106	3
136	137	5
165	166	3
95	96	4
68	71	8
74	154	2
34	108	1
55	56	4
110	111	2
5	40	3
50	143	1
81	148	2
22	96	3
111	128	2
113	128	1
164	165	9
21	134	3
83	151	1
5	16	2
140	140	6
2	36	1
12	41	1
66	94	4
21	131	2
146	147	2
57	58	2
111	116	1
145	146	1
96	107	2
33	35	4
139	142	2
34	137	1
89	90	2
10	143	2
42	43	1
160	161	4
24	50	2
79	168	2
47	132	6
92	118	1
138	139	3
53	54	5
80	80	5
154	158	4
91	118	2
5	109	1
52	56	1
17	134	2
3	4	3
68	72	2
9	10	2
72	73	1
3	169	1
16	41	1
148	150	1
80	81	2
95	97	2
117	120	1
163	163	5
24	25	3
122	124	2
67	69	1
78	86	1
12	55	1
123	126	2
91	116	2
51	143	1
9	19	1
90	92	2
48	142	1
9	20	1
100	105	2
3	39	1
62	62	2
8	10	1
90	91	3
80	86	1
102	145	3
112	114	3
98	106	1
6	41	1
132	134	1
119	163	1
81	102	1
101	146	1
17	135	3
67	75	1
11	52	1
142	143	1
108	110	1
2	37	1
153	154	1
81	83	1
147	148	2
169	170	1
119	164	1
18	19	1
6	40	1
79	81	1
2	160	2
55	57	1
135	137	1
63	79	1
19	20	1
84	85	1
53	144	1
89	89	1
12	13	1
7	8	2
6	7	3
54	104	2
65	94	2
62	63	2
109	114	1
54	103	2
154	155	1
97	115	1
112	121	1
58	98	1
151	158	2
3	14	1
101	149	2
16	20	1
97	163	1
102	146	1
6	96	1
95	115	2
115	123	1
7	11	1
107	113	1
15	135	1
82	83	1
73	74	2
124	128	1
24	27	1
85	154	1
74	153	1
76	158	1
53	57	1
128	130	1
