97	97	5
3	98	1
71	72	2
104	105	1
74	76	2
101	101	10
127	127	7
21	22	7
55	85	6
91	92	2
14	23	5
123	123	6
107	108	1
72	89	2
73	73	7
57	58	6
55	55	7
35	53	1
66	66	3
29	29	6
60	60	3
105	105	12
24	24	10
10	10	5
54	54	7
32	32	3
70	104	3
116	116	11
103	103	10
14	14	14
26	95	3
8	44	1
112	124	2
77	77	1
125	125	5
70	103	2
16	97	2
37	116	3
23	116	2
88	92	1
89	91	1
126	126	2
76	76	13
107	122	1
25	58	6
124	129	1
56	59	2
83	85	5
8	8	10
7	10	4
16	16	5
61	61	13
5	5	1
110	113	3
113	116	5
4	4	1
97	98	5
65	110	1
33	34	1
115	116	3
99	100	2
111	111	6
84	85	4
92	92	3
69	69	5
98	98	5
114	132	3
128	128	6
85	85	8
82	82	4
120	124	8
67	68	2
35	116	3
116	118	1
107	118	2
89	90	1
12	70	3
83	100	4
114	114	9
84	84	6
47	47	3
80	81	1
0	0	3
87	87	1
131	131	6
22	22	5
68	68	6
13	13	4
8	66	1
3	3	6
16	90	1
69	104	3
107	107	5
117	128	3
53	53	4
83	87	1
63	63	11
95	99	3
43	43	2
4	5	4
62	63	1
64	64	5
18	18	3
80	80	4
132	132	9
72	72	4
9	9	3
2	2	5
104	104	5
79	79	2
26	26	5
104	114	3
100	100	1
22	91	4
76	78	8
88	89	3
83	83	4
27	28	5
36	36	6
108	108	8
106	106	5
93	93	1
18	20	3
95	98	1
28	28	5
70	70	6
72	73	4
20	20	3
134	134	5
54	60	2
113	114	1
0	1	1
80	88	1
80	82	1
13	19	1
110	110	1
35	115	4
113	117	3
35	37	2
106	110	2
56	111	1
42	84	2
44	44	3
124	124	2
88	123	2
46	48	6
105	113	1
56	119	1
122	122	3
6	6	2
114	115	2
34	65	5
54	55	2
79	80	3
111	112	2
50	53	1
115	115	3
25	25	1
43	86	1
32	65	1
43	85	1
24	59	2
38	38	4
117	117	1
19	21	4
135	135	3
33	33	3
93	102	1
9	11	3
81	85	1
78	78	4
48	87	1
87	119	1
36	54	1
71	71	5
106	119	1
44	50	2
15	15	1
18	102	2
91	91	5
17	19	2
25	27	4
3	4	6
65	65	2
60	61	1
100	101	3
124	125	5
51	87	1
19	19	5
30	31	1
110	111	1
1	30	2
68	122	2
65	67	2
107	109	1
7	8	3
125	128	1
120	120	1
51	51	1
90	90	3
60	121	1
67	69	1
24	58	1
16	29	3
34	34	1
56	56	1
18	127	2
89	89	1
6	7	4
29	44	2
119	119	2
36	37	1
12	12	2
93	94	1
55	56	3
30	30	4
74	82	1
118	132	1
112	112	2
77	113	2
114	130	1
91	101	1
58	70	1
105	109	2
52	52	2
70	106	2
66	69	1
3	5	1
128	130	1
123	126	1
126	127	1
79	87	2
20	129	2
93	101	1
91	93	2
15	17	1
16	20	1
13	26	2
54	113	2
70	127	1
43	87	1
78	80	1
74	75	1
54	56	1
17	17	1
22	24	1
118	118	1
14	20	1
7	7	1
21	43	1
13	30	1
107	117	1
95	95	1
79	83	1
99	101	1
22	23	1
88	88	1
57	57	1
86	86	1
8	45	2
67	67	1
29	60	2
89	126	1
2	11	2
118	120	1
26	82	1
25	95	1
31	31	1
102	127	1
73	74	1
69	70	1
99	99	1
123	127	1
102	102	1
