141	141	4
84	84	2
15	56	3
30	73	2
56	56	3
152	152	5
154	154	1
111	111	3
3	56	2
126	129	1
42	43	2
122	178	3
155	183	1
6	6	10
0	191	1
81	142	1
32	80	1
5	53	4
31	31	2
137	137	3
61	63	2
170	170	3
165	165	4
110	110	4
24	24	4
65	65	4
66	83	2
10	10	3
127	127	2
2	39	2
187	187	6
155	155	8
124	124	2
121	176	2
118	118	4
83	83	1
126	128	5
119	119	2
63	63	3
37	43	4
35	35	4
173	173	1
117	117	4
81	81	2
102	102	1
82	82	1
0	1	1
127	129	3
146	146	3
181	181	3
76	76	2
12	31	2
60	60	7
160	160	2
166	178	1
90	91	3
27	29	2
29	29	6
62	90	1
30	38	3
38	54	3
1	1	4
187	190	1
89	89	1
14	14	2
34	79	2
37	38	1
167	167	3
100	100	4
26	28	1
21	21	3
130	131	3
132	133	5
3	3	3
66	67	1
73	73	2
105	105	5
38	39	5
153	153	2
168	184	1
148	149	3
151	184	2
37	37	8
18	19	1
182	182	3
32	32	1
178	178	6
57	57	2
97	97	7
37	49	4
61	61	3
45	45	3
177	177	5
147	147	7
118	144	3
101	101	5
25	37	2
180	180	6
43	43	2
9	31	3
23	43	5
136	137	1
97	98	1
28	28	7
159	159	3
166	168	1
107	107	2
14	18	1
56	57	2
2	2	5
71	83	2
33	34	3
72	72	5
95	95	5
62	62	4
126	126	2
175	188	2
131	138	2
81	143	1
175	190	3
41	41	1
111	145	1
106	154	1
14	47	2
152	156	1
77	77	5
78	113	1
132	132	2
26	26	2
12	13	2
39	39	3
19	22	2
142	145	1
149	149	2
61	92	2
115	179	1
33	33	2
184	185	3
38	55	1
28	30	4
139	139	5
4	56	1
103	103	1
4	42	1
150	150	2
186	186	2
72	74	2
184	184	1
6	7	3
113	134	3
57	59	1
99	103	2
44	44	1
177	178	1
72	79	1
90	94	1
74	74	4
92	115	1
130	132	2
168	168	2
121	177	1
152	154	3
34	41	1
25	27	2
34	34	1
17	17	1
116	116	1
140	140	1
114	154	2
57	87	1
21	35	2
18	18	2
146	188	3
114	115	2
185	189	1
107	131	1
75	77	2
129	129	1
130	174	1
115	116	4
56	119	1
26	27	2
94	102	1
59	88	1
7	56	1
99	100	2
151	151	1
135	137	3
104	104	1
68	70	3
116	117	2
148	148	3
27	45	1
47	47	1
85	85	3
114	117	1
122	123	3
7	7	2
41	42	2
79	79	2
176	178	4
118	119	1
5	6	1
105	142	1
189	190	1
112	137	1
146	151	1
163	163	1
146	160	3
53	53	4
30	45	2
128	128	1
99	99	1
10	37	3
183	183	2
71	102	1
136	136	1
134	134	1
91	91	2
171	176	1
14	73	1
135	136	1
16	16	1
8	44	1
42	42	1
43	56	1
171	172	1
77	78	1
21	46	1
