99	100	9
51	64	3
86	87	5
45	45	8
86	86	8
81	81	6
92	92	7
38	42	1
65	65	7
78	79	20
44	45	5
57	57	19
90	90	4
49	49	8
109	109	20
56	56	4
105	105	3
54	55	6
30	30	13
83	83	15
73	73	13
20	20	13
59	60	4
87	95	2
99	99	7
34	35	3
36	43	1
102	102	7
110	110	14
58	58	8
110	111	12
67	67	8
103	103	5
111	111	9
109	110	3
50	51	8
61	61	15
50	67	5
98	98	10
46	47	2
68	68	12
49	54	1
91	91	13
104	107	4
21	21	7
43	43	7
44	44	11
60	60	7
69	69	3
39	39	5
23	23	6
106	106	9
21	23	12
87	87	11
37	39	6
63	63	13
22	22	8
55	63	5
79	79	9
71	71	10
65	70	1
92	93	6
83	85	4
55	55	8
39	49	2
97	97	9
114	114	2
43	44	5
95	95	13
28	28	14
33	33	7
42	42	8
100	101	5
88	88	7
112	112	8
47	49	2
59	61	9
96	96	8
41	42	2
94	94	17
107	107	12
50	50	12
53	53	1
76	76	7
69	74	6
110	113	6
85	86	11
84	84	13
25	25	10
47	47	9
48	48	7
103	104	2
82	82	15
41	41	11
25	26	2
38	39	3
89	89	5
100	100	6
80	80	7
84	100	4
103	105	6
101	101	7
95	97	2
112	113	1
19	19	9
62	62	8
30	31	6
24	24	3
91	99	3
55	64	7
40	40	3
76	77	12
71	72	2
19	22	2
71	73	4
72	72	10
104	104	10
79	83	3
51	51	3
96	97	1
58	60	4
40	42	4
27	28	3
57	58	3
85	87	7
29	29	11
84	85	5
105	106	4
73	75	1
52	54	3
37	37	9
84	92	3
97	98	2
74	74	4
64	64	13
48	51	5
36	36	2
47	48	3
93	95	3
64	87	3
21	22	7
75	76	1
52	52	4
77	77	8
80	81	1
31	31	4
90	94	3
85	85	6
111	112	5
72	73	3
20	26	1
52	53	2
91	101	5
22	23	2
48	49	2
28	36	1
74	75	2
32	32	5
40	50	1
95	96	6
87	88	3
114	115	1
108	108	8
65	66	2
20	24	1
92	94	3
49	50	2
35	36	6
50	66	3
86	93	3
56	57	4
102	103	3
93	96	2
104	105	4
36	46	3
93	93	1
85	89	2
91	92	1
98	109	2
103	107	3
75	75	8
83	84	1
69	70	2
37	47	3
66	66	5
37	48	2
26	26	3
78	78	5
73	74	2
68	69	3
61	62	4
19	23	5
85	90	2
113	113	8
64	88	1
38	38	3
97	100	1
96	98	1
59	62	1
81	83	2
101	102	1
48	55	1
20	21	2
40	41	2
19	20	2
107	108	1
42	43	1
48	67	4
42	47	1
98	99	1
73	76	3
41	43	1
86	89	1
59	59	3
35	35	2
104	106	2
66	73	1
70	70	5
82	83	6
100	102	1
54	54	2
26	27	1
84	101	1
29	32	2
32	34	4
92	108	2
38	47	2
79	80	1
30	32	1
78	80	1
34	34	1
36	37	4
57	59	1
96	99	1
86	90	1
70	74	1
33	73	2
20	22	3
51	53	1
36	48	1
29	31	1
70	71	1
27	27	1
77	78	1
33	35	1
35	45	1
