166	166	10
16	27	2
31	32	2
163	163	15
15	15	10
93	94	11
143	146	2
95	95	17
6	6	12
60	60	9
122	122	10
152	160	1
89	91	5
155	155	12
170	170	14
136	136	12
121	124	1
180	180	10
31	31	2
175	175	6
73	73	16
145	145	11
18	20	4
5	5	15
37	37	11
133	134	3
26	26	5
55	56	3
53	53	12
174	174	9
24	25	7
86	86	4
157	160	1
144	146	2
4	4	8
171	172	9
159	161	4
16	23	2
88	90	2
38	39	7
3	10	1
15	16	9
144	144	8
169	169	15
20	20	6
90	90	8
13	18	2
82	86	7
120	120	25
115	116	9
66	66	5
85	85	13
158	158	10
136	138	1
81	81	12
121	121	10
85	87	4
151	155	2
141	141	3
11	11	6
65	65	3
142	143	10
54	55	3
115	115	19
164	164	3
129	130	10
34	141	1
103	103	3
13	25	2
164	167	4
118	120	3
51	51	9
113	113	18
33	138	2
134	134	10
173	174	4
25	25	2
176	176	11
72	76	5
55	57	2
16	16	8
35	36	5
105	107	2
131	131	8
138	141	4
150	154	9
49	50	6
61	61	17
157	157	8
177	178	2
154	158	4
106	106	5
171	171	4
60	65	6
108	108	6
30	30	9
136	137	4
147	148	5
3	4	5
64	65	6
22	22	1
107	110	4
159	165	2
43	45	10
179	179	21
90	91	6
102	103	5
99	102	3
154	155	4
159	163	8
125	125	9
3	5	5
53	56	6
99	99	9
74	76	1
76	76	12
13	13	4
14	15	8
173	173	5
158	160	7
102	104	3
124	125	11
72	74	8
117	118	3
115	126	2
150	151	7
82	82	14
131	133	1
153	153	11
132	145	4
42	45	4
66	67	4
112	128	2
133	133	10
67	67	17
78	83	2
161	162	1
18	19	7
150	150	4
37	38	6
146	146	9
143	144	4
43	44	2
77	77	10
108	109	3
125	127	2
58	58	9
155	157	10
23	23	9
57	66	3
160	162	1
10	15	3
52	54	2
1	1	6
70	70	8
149	154	2
130	132	9
148	154	4
39	83	3
78	79	2
107	107	4
165	165	4
110	111	2
14	16	2
137	174	3
130	145	2
170	172	4
145	146	4
38	84	2
129	129	8
117	117	6
142	142	10
104	114	5
109	114	4
82	83	12
103	105	2
121	122	1
124	124	9
37	41	7
80	83	7
152	153	2
99	100	17
134	135	10
75	75	10
144	145	6
76	79	3
165	170	4
57	58	4
44	44	2
27	28	5
162	166	2
122	126	4
44	80	2
94	100	7
75	76	1
30	31	13
83	83	3
114	115	3
19	19	5
80	80	5
50	52	6
88	89	5
123	124	12
137	138	6
71	73	4
149	149	10
99	101	2
51	53	3
42	43	3
25	26	7
79	79	12
106	107	5
140	143	7
41	42	3
178	178	11
128	129	2
2	29	1
165	166	4
1	2	4
73	74	7
162	165	9
40	40	10
84	86	6
135	149	4
92	94	3
108	110	6
93	93	4
60	62	1
62	64	3
39	145	2
56	61	3
38	42	6
59	65	4
109	112	5
79	81	4
28	28	3
91	99	3
32	32	2
102	102	4
97	97	9
90	101	1
162	163	11
97	100	1
0	1	7
103	115	3
113	127	2
138	138	12
91	101	1
88	88	8
164	165	2
110	110	9
111	111	7
68	91	3
42	42	6
71	77	1
87	90	2
154	156	1
134	153	5
26	28	3
37	40	6
148	148	5
87	88	18
116	119	6
12	13	7
71	72	3
123	123	3
5	6	2
73	77	4
24	27	4
22	25	3
137	145	1
168	170	5
62	62	7
141	143	3
103	104	4
82	84	4
55	61	2
119	120	14
162	162	9
10	10	15
147	147	7
91	95	2
105	115	1
148	151	4
65	66	9
21	22	3
30	34	3
34	35	1
154	154	4
151	153	1
146	147	3
92	92	9
78	78	3
11	12	3
177	177	4
29	30	2
8	8	14
10	11	2
170	171	2
12	16	2
98	104	11
151	151	8
35	37	4
50	50	8
125	126	1
121	126	3
148	150	4
21	21	7
109	109	8
24	24	5
75	130	2
38	38	2
171	180	3
39	40	8
36	36	7
77	79	2
85	86	1
45	45	6
96	96	1
89	98	1
61	63	2
168	171	2
35	35	8
88	96	4
27	30	1
130	130	2
167	167	14
110	112	1
9	9	4
175	176	5
169	170	6
145	148	2
26	30	5
146	149	6
91	92	2
138	139	6
100	100	13
40	41	5
158	163	3
112	112	7
4	5	10
50	55	5
116	116	7
42	83	1
141	142	1
63	67	2
167	170	2
168	168	10
97	99	1
12	17	1
156	161	7
137	137	8
109	110	1
172	180	3
160	160	1
100	106	2
151	154	3
43	46	1
86	89	2
60	68	1
146	148	3
62	65	1
99	106	1
34	34	7
127	127	8
119	119	2
34	124	1
54	58	3
43	43	8
1	3	2
11	15	2
49	51	2
83	84	8
51	57	2
31	178	2
152	157	1
64	66	5
92	93	3
68	68	5
171	173	2
44	81	2
44	45	3
84	84	2
4	6	4
84	85	7
14	14	12
98	98	6
142	147	1
17	18	3
151	158	3
104	106	6
150	153	3
94	95	2
172	172	4
68	82	1
90	95	2
139	139	3
107	146	4
36	41	2
49	49	1
132	132	5
52	56	1
0	2	6
100	107	3
100	102	1
34	36	3
105	106	3
59	59	3
53	55	6
33	36	3
125	134	2
151	152	5
92	95	1
27	31	2
0	0	2
81	84	2
87	87	7
149	150	5
163	164	2
54	54	4
19	22	2
13	23	2
173	175	2
126	126	5
9	10	3
121	123	4
149	153	8
129	132	3
89	89	2
63	63	6
54	56	3
63	65	2
179	180	4
74	74	2
122	123	4
98	101	1
104	115	3
116	117	4
117	120	4
32	141	1
86	91	1
153	157	4
87	107	4
4	8	1
157	158	3
94	94	5
59	60	7
57	61	2
63	64	2
20	21	5
13	27	5
127	133	1
10	24	3
101	104	1
155	161	2
150	152	3
3	3	5
104	104	2
105	116	4
159	159	5
7	8	2
138	140	4
29	29	9
2	174	1
111	124	1
114	114	7
144	147	1
118	118	4
152	154	1
2	2	5
133	153	2
7	13	3
42	44	1
8	11	3
159	160	2
157	162	1
21	24	1
29	32	3
17	17	2
135	135	2
59	62	6
123	131	1
137	139	1
115	117	2
86	103	1
155	156	4
134	136	1
19	23	2
156	156	5
103	106	1
72	73	2
33	35	2
16	28	1
18	18	7
127	128	3
95	96	3
60	70	1
96	99	1
133	146	1
105	114	4
27	27	2
83	85	2
55	55	5
59	61	1
143	148	2
118	121	2
36	38	5
85	91	1
110	113	2
8	9	2
39	43	2
153	154	2
153	172	1
158	164	5
143	145	1
96	97	2
78	87	2
2	5	4
83	86	4
56	56	1
56	57	4
24	26	2
76	107	1
129	150	2
149	151	2
68	86	4
125	130	1
101	102	3
15	20	4
65	67	1
98	99	1
57	57	2
107	108	5
52	52	1
106	108	1
104	105	1
52	53	4
12	12	5
128	128	4
51	52	2
178	180	2
136	139	1
74	77	1
147	152	1
167	168	1
178	179	3
60	61	2
112	115	1
52	55	2
10	28	3
135	136	1
50	53	2
86	88	2
25	42	4
7	10	1
169	175	1
30	32	1
112	130	1
130	133	1
97	101	4
140	140	4
132	134	1
97	98	5
161	173	1
82	100	2
130	131	2
140	142	6
112	113	1
95	98	1
121	125	1
1	4	2
164	170	1
163	165	3
6	7	2
132	147	1
1	5	1
72	72	2
152	152	2
101	117	2
166	168	2
32	34	1
151	160	1
89	90	2
140	155	1
22	23	1
23	24	1
91	91	2
88	97	2
7	9	1
2	3	1
21	23	1
131	132	1
58	59	1
34	139	1
24	31	1
92	98	1
105	105	2
39	39	3
35	38	2
113	114	1
66	70	1
33	39	1
64	68	1
63	88	1
80	81	1
59	64	2
9	12	1
156	180	1
35	41	1
174	177	2
74	80	1
174	175	1
85	108	1
161	163	1
132	146	1
128	150	1
166	170	1
81	83	1
67	68	2
161	172	1
19	20	3
88	108	1
104	109	1
147	154	1
152	156	1
73	76	1
53	57	1
170	175	2
102	115	1
7	11	1
13	15	1
76	78	1
106	115	1
33	33	1
167	175	1
37	45	2
79	86	1
49	52	1
80	84	1
152	172	1
101	101	1
96	98	1
147	150	1
120	122	1
62	63	1
100	110	1
162	170	1
53	54	1
61	71	1
143	143	1
