180	180	2
98	98	3
109	109	2
18	18	2
57	57	2
154	155	2
6	6	4
109	116	1
116	162	3
135	154	3
186	186	3
178	181	1
8	30	4
18	19	3
96	163	1
15	15	4
7	9	3
47	47	5
16	20	1
136	136	4
54	59	1
149	150	3
135	161	1
104	114	1
112	113	7
184	186	2
50	50	2
181	182	3
112	156	3
177	177	2
175	175	8
35	36	4
3	6	2
107	107	3
51	51	2
114	175	4
156	188	1
173	173	6
137	143	3
152	152	3
124	124	1
194	195	6
108	108	2
0	0	4
38	38	7
137	138	2
116	116	10
20	20	2
126	127	2
179	180	1
194	194	5
69	71	1
151	151	3
146	146	3
120	120	3
172	172	14
57	67	1
164	164	3
85	86	2
150	184	1
114	140	1
68	68	3
66	83	2
112	175	2
72	73	3
61	61	7
77	77	1
10	11	1
158	166	2
46	46	1
42	42	5
73	110	3
37	37	4
148	148	1
102	102	3
114	114	2
197	197	2
104	104	3
70	70	5
137	140	1
153	154	2
65	79	3
110	110	3
22	22	1
137	137	4
163	163	6
143	155	2
38	41	2
40	40	4
16	16	8
42	43	6
84	85	3
135	160	7
54	95	3
48	48	2
183	183	1
25	27	2
21	21	1
82	82	8
3	4	1
145	145	4
13	13	1
2	2	6
187	190	2
7	7	1
136	142	1
9	9	2
80	80	4
130	130	2
24	24	2
154	154	2
73	77	3
73	73	3
106	106	4
9	179	1
152	187	2
64	64	4
32	171	1
131	131	3
74	74	1
68	82	5
147	147	3
99	100	3
94	102	2
190	190	2
141	141	3
28	28	2
171	183	1
94	96	1
30	30	2
73	84	1
64	76	2
70	71	3
170	170	2
133	158	2
71	71	2
75	76	1
54	77	1
155	155	3
145	146	3
117	117	2
85	85	2
34	34	5
157	158	3
65	82	1
169	170	1
131	133	2
135	135	1
135	147	2
83	84	3
146	147	1
123	123	3
65	83	1
183	196	4
130	131	1
11	11	3
64	68	3
33	33	1
35	46	1
165	165	4
158	158	1
132	187	3
111	162	3
95	95	3
116	117	2
40	176	1
58	60	3
101	102	1
35	35	2
12	12	2
188	188	3
108	120	3
112	112	3
185	185	3
182	196	2
8	8	2
22	28	3
29	31	2
54	54	1
105	115	2
65	80	4
62	82	2
78	78	1
69	69	1
8	19	2
28	30	2
57	174	2
170	197	2
31	31	3
72	72	1
133	159	1
72	87	2
144	144	3
113	113	1
182	182	1
149	152	1
84	84	1
40	41	2
173	174	1
119	119	2
176	176	1
169	169	1
53	110	1
36	36	1
126	129	1
4	4	2
46	47	2
179	179	1
15	22	1
115	140	2
68	79	1
64	66	1
31	74	1
45	46	1
118	118	3
133	133	2
1	68	2
64	65	1
32	32	3
144	145	1
139	139	2
18	29	1
159	165	1
96	96	2
96	187	1
38	60	2
8	23	1
6	8	1
105	106	3
193	194	2
14	14	1
97	98	1
26	41	2
28	75	2
61	127	1
96	110	1
40	85	2
103	120	1
23	24	1
25	25	1
161	161	1
178	178	1
128	128	2
89	89	2
150	150	1
65	65	1
160	160	2
55	56	1
39	39	1
140	140	1
65	66	1
17	18	1
168	168	2
127	127	1
63	77	1
5	14	1
123	124	1
143	145	2
19	19	2
2	157	1
27	27	1
66	67	2
25	177	1
162	162	1
124	125	1
122	122	2
105	117	1
23	25	1
123	125	2
142	142	1
8	29	1
180	181	2
139	140	1
55	55	1
100	100	1
14	33	1
167	172	1
176	193	1
9	19	1
165	166	1
129	188	1
40	52	1
24	125	1
50	51	1
1	5	2
160	185	1
157	157	1
6	13	1
