112	112	10
110	128	3
92	107	1
26	26	4
55	63	1
63	63	10
117	118	2
107	118	2
16	16	3
6	6	7
91	91	6
16	18	3
113	133	4
90	94	3
18	18	7
79	87	5
30	47	3
17	17	4
78	79	1
68	77	1
85	85	3
80	80	3
15	15	1
69	76	2
77	77	3
82	94	1
8	8	2
32	32	6
103	103	7
102	130	2
121	122	3
133	133	3
3	31	1
105	105	4
29	29	3
33	33	4
92	130	4
5	20	3
94	94	5
116	116	5
101	101	5
128	128	4
40	49	2
65	65	5
115	115	4
7	7	12
107	108	1
79	79	4
62	62	7
97	105	3
47	57	6
110	110	3
10	25	4
58	58	4
94	95	3
95	98	5
73	73	7
24	24	11
30	46	1
43	83	6
132	132	3
85	86	8
10	10	5
133	134	2
66	66	2
69	73	2
35	35	4
70	71	3
130	130	3
111	129	4
129	129	6
95	96	5
111	131	1
109	112	4
67	69	1
101	117	2
39	39	2
119	119	5
106	116	3
126	126	4
91	96	3
34	36	1
131	131	6
134	134	7
9	9	2
112	127	6
43	43	3
122	122	3
61	61	4
110	129	2
95	95	1
79	88	4
23	23	4
26	27	2
110	112	2
36	60	2
104	104	4
111	112	2
3	17	3
73	81	1
96	96	4
81	81	5
125	126	1
70	70	3
82	83	1
75	75	2
15	25	4
46	46	2
42	42	2
89	90	2
127	127	3
73	74	2
17	29	1
76	108	3
22	30	3
1	25	2
64	64	4
12	31	1
99	114	7
120	120	1
55	81	1
8	21	1
129	133	3
86	105	1
86	86	4
56	58	2
15	36	2
108	134	6
17	125	1
68	68	3
87	87	1
100	100	4
91	120	1
0	3	2
124	124	4
60	60	7
9	25	3
93	93	2
66	68	4
127	130	3
75	93	2
66	84	1
7	37	1
101	123	2
126	131	3
69	75	1
102	102	2
33	34	2
20	20	5
74	74	1
8	133	6
106	106	2
85	94	2
4	4	1
107	122	1
116	123	5
98	98	4
34	34	1
90	102	2
57	78	1
109	131	1
76	76	5
3	3	2
28	56	2
2	21	1
62	71	1
124	125	6
82	82	1
38	63	1
11	44	3
95	117	2
119	122	1
109	128	2
35	36	2
70	73	1
68	80	1
5	5	2
80	88	2
37	43	2
67	67	7
104	106	2
105	106	2
36	36	2
67	68	1
2	22	2
20	44	1
102	118	2
1	18	1
5	14	1
50	55	3
109	109	1
93	109	4
49	49	1
11	11	2
14	14	1
70	75	1
114	114	3
87	88	1
38	55	1
19	19	1
29	45	2
30	30	2
84	84	1
46	47	2
111	111	5
123	124	4
100	114	2
47	47	2
72	88	2
61	81	3
71	83	2
118	118	3
28	29	1
10	13	1
31	31	1
88	88	2
2	2	4
13	14	3
109	127	2
104	119	1
104	108	1
0	25	2
25	28	1
76	77	2
31	32	3
5	25	2
19	20	2
58	78	1
40	40	1
17	48	1
72	75	1
23	47	1
92	112	4
126	127	1
10	11	1
88	98	1
10	35	1
59	59	2
93	105	1
67	86	1
122	124	1
38	39	1
102	103	2
15	26	3
17	18	1
14	61	1
92	93	1
122	134	1
68	72	1
129	131	2
39	50	1
66	67	1
69	69	1
16	39	1
62	81	2
11	12	1
86	96	2
89	89	2
57	91	1
106	123	1
56	69	1
90	90	2
114	123	1
23	44	2
36	73	1
107	117	1
5	15	1
91	100	1
41	41	2
13	113	1
20	21	1
113	123	1
125	130	1
90	93	1
31	58	1
125	125	1
107	107	1
26	29	1
72	78	1
113	113	1
