131	136	3
91	91	14
23	26	4
151	151	6
16	16	8
161	161	6
86	86	10
124	139	2
105	107	3
140	140	7
115	125	3
135	135	14
15	15	8
157	157	7
92	94	5
121	121	9
96	96	9
129	130	3
107	109	2
90	90	4
29	29	2
78	78	5
110	110	15
65	65	3
82	123	4
114	115	5
80	80	7
33	34	3
82	82	14
50	50	4
60	60	6
152	152	2
85	85	6
2	2	10
6	15	1
4	46	3
75	75	16
117	173	3
139	140	1
117	118	5
144	145	4
62	62	11
155	155	13
43	44	5
5	6	7
150	170	3
28	29	6
52	52	4
170	170	11
0	9	1
108	108	11
98	115	2
162	163	11
111	112	3
147	165	3
142	144	2
125	126	2
122	122	1
79	79	6
141	141	7
71	71	21
15	16	2
156	156	6
37	38	2
27	27	12
76	76	11
148	148	13
64	64	10
89	90	2
167	170	5
30	30	9
142	142	9
87	87	6
116	117	6
45	135	4
169	169	17
174	175	8
89	89	11
132	132	16
50	51	5
73	73	11
63	63	7
10	11	4
55	104	1
87	91	3
4	4	9
72	72	12
38	38	7
131	132	4
20	46	8
102	102	4
61	97	2
179	179	11
165	165	5
107	107	8
154	154	11
82	86	2
4	5	5
122	125	2
120	121	5
93	136	6
1	2	5
145	146	2
132	133	5
118	139	1
92	92	7
4	19	2
36	36	17
130	130	6
45	45	3
109	109	8
106	106	6
110	112	4
9	11	2
66	66	4
51	94	2
123	139	3
134	134	6
112	112	8
84	86	4
118	118	5
111	113	5
105	105	11
154	155	2
44	44	9
104	104	15
66	67	2
49	50	5
103	105	4
97	97	9
65	172	3
176	176	8
43	43	3
150	168	2
81	81	12
119	119	6
167	167	19
6	7	3
39	40	3
81	82	2
130	131	8
106	107	7
94	127	3
98	98	7
174	174	7
172	172	4
23	23	6
84	85	6
30	31	16
8	9	8
87	126	1
35	35	7
73	74	2
25	26	1
96	97	2
125	125	5
31	31	6
99	99	7
123	124	7
42	42	8
6	132	1
55	55	8
93	93	9
138	139	3
137	137	8
144	144	15
8	13	2
143	145	11
87	137	2
61	62	9
63	64	2
78	79	8
66	68	3
113	113	11
147	147	4
117	117	18
90	92	6
145	145	3
2	3	4
31	32	5
83	83	1
20	20	2
115	116	5
74	74	14
41	41	11
133	133	6
65	66	5
42	91	2
38	39	7
144	147	3
55	106	3
127	137	1
5	5	3
28	28	6
110	111	2
91	92	2
54	56	2
95	95	8
142	147	2
105	106	4
138	138	6
76	78	1
129	129	9
59	59	6
128	128	7
72	73	1
10	10	2
103	106	1
114	114	11
121	141	3
14	15	3
161	169	1
113	115	2
120	146	1
64	166	1
168	169	4
155	156	6
39	39	4
37	37	4
131	131	6
8	10	2
88	88	5
3	3	3
18	19	1
16	51	4
3	22	5
130	174	1
85	126	2
40	41	2
34	34	4
160	160	3
83	84	2
40	40	7
18	108	1
111	111	2
153	153	8
94	136	1
2	6	1
142	143	1
166	166	3
73	76	1
143	147	2
5	14	2
53	53	5
60	61	5
153	155	1
7	7	2
9	41	2
55	58	1
65	149	2
58	58	7
61	61	15
3	4	3
137	176	2
2	22	3
100	100	14
98	147	4
18	21	1
100	114	2
158	159	5
131	174	2
96	115	3
147	166	1
149	149	5
51	52	3
127	127	5
9	40	2
32	32	4
121	122	2
22	22	1
13	13	9
11	11	7
3	11	2
41	180	1
0	1	2
129	172	1
57	57	2
21	22	2
102	104	1
143	144	2
56	56	3
123	123	1
16	17	4
89	91	1
103	103	2
139	139	5
117	172	5
140	142	2
148	165	5
124	124	6
150	158	2
58	59	4
165	166	1
122	124	1
118	128	2
158	168	2
143	143	8
91	93	3
118	119	4
178	179	3
27	28	2
147	148	2
41	42	1
1	1	2
8	8	1
9	9	4
152	153	4
150	150	2
19	19	2
65	166	1
19	21	6
164	164	7
115	115	2
70	72	1
92	93	3
113	114	3
15	135	1
13	44	1
136	136	6
64	172	1
14	14	2
68	71	1
90	91	2
54	101	2
72	141	1
0	0	2
12	45	3
158	158	2
64	169	1
58	60	2
163	163	6
62	63	1
9	35	1
119	124	5
17	17	2
56	104	5
60	95	1
175	175	4
97	98	1
54	54	3
56	103	1
63	170	1
36	37	1
164	166	2
140	143	1
101	110	1
171	171	2
8	12	2
81	83	1
128	129	2
52	53	3
86	88	1
98	99	1
18	107	2
119	140	3
109	110	1
162	162	5
173	173	3
18	18	2
24	25	2
95	96	4
131	176	2
92	127	2
29	30	3
108	109	1
67	67	3
49	49	2
26	26	1
101	111	1
107	108	5
148	163	1
178	178	5
7	9	1
90	180	3
5	7	1
12	12	1
24	24	2
18	109	2
32	35	1
13	21	1
88	90	1
33	33	3
167	168	2
52	109	1
95	114	2
64	149	2
11	22	2
132	134	1
52	106	1
52	101	1
104	105	2
71	121	1
164	165	1
118	140	1
168	168	2
13	14	1
141	144	1
143	164	1
12	135	1
38	40	2
166	167	1
60	151	1
53	103	1
159	161	3
56	153	1
53	54	2
18	22	1
116	129	2
132	135	1
97	101	2
119	123	1
68	68	1
170	171	2
180	180	2
79	80	1
165	167	1
80	138	1
146	146	2
56	105	1
105	108	1
150	151	1
27	30	2
177	178	1
80	82	1
54	55	1
16	107	1
52	111	1
172	173	1
94	130	1
55	56	1
115	171	1
171	172	1
84	84	1
159	168	1
159	159	1
157	158	1
150	167	1
10	35	1
173	174	1
96	98	1
17	18	1
