37	37	2
59	67	1
83	95	2
42	42	9
17	29	2
58	58	8
131	159	1
47	47	7
119	134	1
118	146	2
98	102	1
157	157	7
8	10	1
71	72	3
76	77	1
60	60	4
103	105	1
179	179	6
93	94	3
63	63	5
193	193	19
53	69	1
48	48	6
132	158	3
159	159	5
146	155	2
29	29	7
195	196	2
158	159	5
56	56	6
75	79	2
27	28	2
154	165	6
141	141	5
46	47	6
11	19	2
0	0	4
125	126	4
95	101	2
101	101	8
122	122	12
84	84	4
18	18	4
176	177	4
164	175	2
14	15	2
107	107	3
110	110	5
153	153	10
152	153	1
63	144	1
147	147	3
68	72	1
161	161	8
101	107	1
80	114	4
98	100	1
166	166	6
10	13	2
195	195	1
89	89	4
187	187	8
38	38	11
190	190	7
130	138	2
120	121	9
134	134	9
96	96	2
4	4	4
49	51	3
88	88	10
24	44	2
51	51	4
21	21	5
62	62	10
41	55	1
128	131	1
133	133	10
136	136	2
53	68	5
44	52	3
129	146	1
154	157	1
64	64	4
196	197	3
196	196	7
40	41	6
82	83	2
30	30	5
44	59	1
36	36	4
9	9	5
149	149	6
113	113	3
155	155	1
50	50	1
178	182	2
116	129	2
160	172	2
80	81	3
108	108	3
87	87	2
79	79	6
160	168	3
3	3	6
55	55	5
144	159	1
84	85	4
132	146	1
187	191	3
190	191	6
119	119	2
11	12	2
66	66	3
121	121	2
57	58	4
19	30	1
59	59	4
158	196	1
146	180	3
16	18	2
130	130	5
38	44	4
150	150	5
144	144	6
53	53	2
17	34	1
191	191	2
61	61	6
76	114	5
105	125	2
129	129	7
100	100	6
105	105	7
23	24	3
168	169	1
70	83	1
116	163	2
4	5	2
49	49	2
22	22	5
5	5	3
129	137	4
183	185	1
78	89	3
111	112	1
94	94	2
57	57	3
127	131	3
87	90	1
112	120	1
119	132	2
55	56	3
171	172	1
143	144	5
183	192	1
57	75	1
106	109	2
11	11	4
118	118	6
68	68	1
25	25	3
163	179	3
15	15	7
27	27	3
13	34	1
32	32	6
136	149	3
100	101	3
42	44	1
169	175	2
186	188	1
35	35	1
142	142	8
74	74	7
19	19	2
184	184	5
126	149	1
24	24	6
53	54	2
96	121	1
119	128	1
34	35	2
137	137	4
38	47	1
33	33	5
112	138	1
17	18	2
83	83	3
116	116	3
60	61	1
175	177	1
10	11	1
148	182	4
71	71	1
40	42	1
69	69	8
34	34	6
97	100	1
183	184	2
143	151	2
137	157	2
2	2	2
184	194	1
189	190	1
77	77	5
174	176	3
39	39	7
178	178	5
140	140	6
17	19	3
134	136	2
44	45	1
64	82	2
30	31	2
102	115	1
26	26	5
86	86	2
190	193	2
145	146	2
26	34	1
169	169	1
190	192	2
83	94	1
127	196	3
111	111	2
82	82	2
85	85	4
118	119	1
84	96	2
192	192	4
189	189	7
161	173	1
180	180	2
173	174	4
121	131	1
117	123	1
171	171	5
187	188	1
158	160	3
124	125	1
182	183	1
26	27	2
183	187	1
115	123	2
46	46	3
6	6	1
7	8	1
122	123	2
166	196	2
146	146	1
7	7	4
147	149	1
152	166	2
1	1	7
180	182	2
47	53	2
155	157	4
52	52	1
24	182	2
141	143	1
175	191	2
80	80	2
48	49	2
82	85	5
6	13	2
170	178	1
138	139	1
96	97	2
112	112	1
144	145	1
163	163	3
155	165	1
120	120	3
12	16	1
115	115	4
107	108	2
15	192	2
6	7	2
99	99	3
119	120	1
153	169	1
179	180	6
50	51	1
89	125	2
70	71	4
114	114	5
67	68	1
132	132	1
17	17	3
24	146	1
182	182	2
70	77	1
185	185	6
117	118	2
121	149	1
174	175	3
126	126	3
86	88	1
5	32	1
2	183	1
78	78	3
151	178	1
152	152	4
45	45	3
163	165	1
79	114	2
63	66	1
45	46	1
194	196	2
87	89	3
123	123	4
144	149	1
65	66	4
125	125	2
142	143	1
175	175	3
109	109	1
25	33	1
194	194	7
122	138	4
132	159	2
65	81	4
103	103	3
94	96	1
16	16	1
12	14	2
55	63	2
156	156	1
60	63	1
6	11	1
101	102	2
2	7	1
157	158	2
116	118	1
23	36	3
14	14	1
9	10	4
174	174	4
20	20	1
31	32	2
128	128	4
127	144	1
24	26	1
120	137	1
28	53	2
59	60	1
8	9	3
36	42	1
11	33	3
81	81	1
106	106	4
50	57	2
55	64	2
81	82	3
44	186	2
180	196	3
135	135	2
6	9	3
27	29	1
181	181	1
23	25	1
51	66	1
86	123	1
40	44	3
103	104	2
32	33	1
131	131	4
22	44	1
173	184	1
136	150	1
108	109	1
117	131	3
31	31	5
186	197	1
20	24	1
127	155	1
158	172	1
97	97	2
167	179	2
41	48	1
98	98	2
165	165	1
19	36	2
184	197	1
41	43	2
0	19	2
28	28	1
122	137	1
60	70	1
43	50	2
150	152	1
54	54	1
67	197	1
40	53	1
149	150	3
173	181	2
125	195	1
169	196	1
156	161	1
148	163	1
52	65	1
29	31	2
4	16	1
20	44	1
30	55	1
134	135	2
38	52	1
3	183	1
121	141	1
168	168	3
181	184	2
12	13	2
148	162	3
125	128	2
19	32	1
127	127	3
12	12	1
148	181	1
41	41	3
154	154	2
161	162	2
131	132	1
175	176	2
165	167	2
136	154	2
20	21	1
131	160	2
166	170	2
66	76	1
64	79	1
155	156	1
186	186	3
177	178	4
113	161	1
44	44	2
162	162	1
97	197	1
143	143	2
5	27	1
168	180	1
10	10	1
19	20	2
102	107	1
161	168	2
63	75	1
101	120	3
128	129	1
10	24	1
112	113	1
167	167	1
73	73	1
78	79	1
173	173	2
23	147	1
102	102	1
82	97	1
50	60	1
26	35	1
85	124	1
169	181	1
14	23	1
126	127	1
136	137	1
76	80	3
46	50	1
121	130	1
76	124	2
148	150	2
126	131	1
71	80	1
145	145	1
105	106	1
20	33	2
13	13	1
113	117	1
0	18	1
115	163	1
197	197	1
2	4	1
170	170	1
40	40	1
54	75	1
93	103	1
16	26	1
24	33	2
1	17	1
78	80	1
5	25	1
55	72	1
73	139	1
102	105	1
137	138	1
64	81	1
68	77	1
127	128	1
150	151	1
14	38	1
67	196	1
43	43	1
114	167	1
109	111	1
139	139	1
112	132	1
101	104	1
76	76	1
48	63	1
79	80	1
153	154	1
84	86	1
67	67	1
169	171	1
84	88	1
64	70	1
13	14	1
144	155	1
182	192	1
61	63	1
131	137	1
