40	41	6
68	70	3
24	24	5
34	37	2
8	22	2
14	15	2
73	73	8
114	114	5
51	52	10
11	12	2
35	35	9
75	75	4
143	144	1
77	77	6
141	141	11
46	46	7
81	81	8
99	149	2
123	123	9
21	21	8
51	51	5
43	43	7
111	111	5
64	77	3
37	37	13
114	115	6
104	104	8
107	107	2
91	92	3
30	47	5
23	23	5
128	139	1
35	36	3
155	155	11
120	121	3
7	9	3
64	64	1
99	99	5
9	24	1
109	110	4
113	136	3
57	57	1
55	55	2
96	121	3
22	22	2
90	90	6
130	130	4
68	68	12
101	101	6
61	64	1
137	137	10
30	49	2
54	54	2
15	15	5
157	157	10
144	144	4
54	150	4
38	40	9
139	139	7
108	108	4
100	100	2
152	152	13
75	134	2
3	3	3
89	92	4
147	147	1
115	115	4
98	98	17
71	71	4
52	52	13
63	63	8
140	140	12
68	157	4
77	95	3
146	146	5
1	1	7
127	127	5
132	133	3
108	117	1
49	92	3
62	62	4
125	126	2
66	84	2
0	3	1
77	96	4
96	96	5
17	18	4
40	40	7
131	131	6
6	31	2
78	78	3
83	83	3
38	38	2
67	68	6
3	4	5
133	133	1
105	105	8
86	86	2
25	25	9
103	130	4
32	32	1
17	17	9
36	36	1
28	28	3
56	56	10
125	125	7
108	110	5
6	6	2
152	153	6
29	29	4
47	49	5
144	158	1
42	42	6
102	121	3
39	40	4
85	136	3
46	53	6
135	135	2
21	22	4
12	13	2
97	97	4
65	66	4
145	145	7
148	148	8
67	158	2
48	48	6
95	95	2
66	66	7
85	85	3
131	135	1
104	118	3
14	48	1
36	37	1
151	151	3
103	103	5
19	19	5
11	11	8
71	94	1
113	114	3
27	27	8
124	125	2
7	8	2
128	129	1
137	138	1
91	91	6
69	70	9
62	63	2
110	112	3
53	53	5
121	123	2
55	61	3
120	136	5
109	109	1
113	113	6
41	43	1
1	2	4
83	85	5
70	70	3
95	103	2
121	122	1
124	124	5
144	146	5
123	126	1
89	89	10
85	86	9
18	22	3
48	65	2
41	47	1
32	40	4
146	147	5
94	147	3
143	143	5
41	46	2
2	2	6
115	116	2
150	150	4
5	5	9
18	18	5
126	149	1
50	50	1
27	33	4
117	117	4
103	120	3
69	69	12
4	53	2
26	26	8
119	120	1
105	109	3
102	102	4
13	15	3
95	97	3
129	129	4
34	38	1
33	47	1
88	89	4
87	87	2
67	69	3
147	149	4
94	95	3
126	126	1
9	9	3
63	131	3
125	130	2
8	17	4
47	47	6
120	120	4
119	146	3
106	107	2
92	93	1
72	73	1
80	82	1
154	154	8
16	16	3
12	17	1
142	142	2
111	112	2
103	121	2
132	132	6
68	156	1
76	77	2
72	130	3
90	92	2
30	30	1
68	69	4
111	156	3
22	23	3
8	10	2
108	118	2
16	17	2
79	79	2
94	94	8
155	156	1
149	149	3
55	131	4
0	0	1
79	82	2
116	140	2
119	119	2
7	7	3
158	158	2
153	154	3
65	65	3
9	19	2
81	88	2
108	111	2
127	128	1
106	106	3
12	12	4
136	137	2
148	149	3
82	82	2
118	118	3
10	10	2
68	71	3
100	120	2
129	130	3
3	46	2
2	6	1
95	102	1
14	14	2
63	148	2
83	84	5
127	150	2
39	39	2
55	151	2
41	41	3
88	88	6
7	31	2
153	153	2
84	84	1
125	145	2
86	150	1
10	24	3
107	135	1
113	116	1
122	122	4
152	155	1
64	80	1
99	100	1
97	133	2
81	113	2
4	41	1
28	34	4
9	10	2
78	90	1
69	152	3
43	47	2
93	93	1
68	87	1
136	136	2
42	43	3
49	49	1
45	45	1
113	115	1
66	71	2
12	49	1
112	116	1
138	138	2
51	55	1
81	82	1
44	44	3
104	105	2
98	99	1
103	146	1
147	148	1
23	24	2
32	131	1
106	118	1
10	18	1
119	144	1
34	51	1
45	53	1
109	117	1
93	136	1
75	76	1
74	75	1
107	118	1
