70	70	6
113	113	5
76	76	8
58	134	4
61	61	11
131	134	3
74	74	3
83	84	1
14	14	16
6	6	1
42	42	8
77	77	2
60	60	1
14	23	3
34	34	8
56	57	1
46	46	2
24	24	5
54	54	1
45	45	2
79	81	3
122	123	1
7	92	1
73	73	2
20	20	6
80	121	3
92	93	4
8	9	5
28	31	1
93	93	2
68	71	1
14	41	4
27	30	3
3	9	3
5	5	5
98	100	2
124	124	6
12	12	2
15	42	4
36	36	3
120	120	2
116	117	3
10	10	4
96	97	2
90	90	2
95	95	2
106	106	1
75	75	7
102	102	4
57	121	1
22	22	3
110	110	7
64	64	6
106	120	1
32	43	1
30	32	2
38	38	3
33	42	5
16	17	1
33	35	3
116	116	4
68	68	4
96	96	1
9	9	6
90	92	1
63	63	2
84	84	1
118	119	3
78	78	3
0	0	3
8	8	3
13	14	1
133	133	3
20	91	2
17	17	3
125	125	5
19	20	4
79	79	3
86	86	2
4	9	2
34	59	2
23	33	3
38	39	1
15	15	3
119	119	3
105	105	2
104	107	3
123	124	4
120	122	2
131	133	3
121	122	1
37	37	2
47	118	4
80	80	1
58	58	3
101	102	4
78	120	3
33	33	2
72	72	4
55	95	2
114	114	3
3	3	5
42	43	3
134	134	5
126	131	5
82	123	1
90	91	2
26	28	4
126	127	4
82	83	2
101	101	8
9	10	1
101	111	1
120	123	1
5	6	2
133	134	2
21	25	1
77	95	1
79	80	1
25	26	2
118	118	1
69	69	3
18	103	1
65	65	6
41	41	3
119	120	1
97	97	3
132	133	4
27	29	1
69	71	1
85	99	3
48	48	4
57	100	1
12	13	1
86	88	1
66	66	2
91	92	2
117	117	6
115	115	5
62	63	1
130	131	2
27	27	1
18	20	1
45	47	2
61	66	2
121	132	2
46	120	1
46	47	1
130	133	1
75	76	3
88	88	2
47	95	1
114	116	2
2	65	2
44	45	2
45	58	1
55	100	1
78	122	2
85	85	2
57	57	1
128	128	2
26	27	1
95	96	3
60	128	2
113	114	3
107	107	2
81	85	1
77	78	2
104	108	3
92	92	1
17	34	1
55	55	1
28	34	1
39	39	1
44	44	2
32	33	2
64	65	1
17	91	2
4	5	1
1	1	1
2	2	1
81	84	2
82	82	2
73	74	1
17	20	1
94	94	1
72	74	1
107	108	1
111	111	2
24	26	1
14	25	1
121	121	1
62	62	1
10	61	1
