5	15	5
121	121	6
85	85	4
4	4	5
59	59	8
93	93	8
130	131	2
54	55	2
109	109	4
96	96	6
23	33	3
50	50	5
76	76	10
38	38	1
107	107	5
43	43	5
13	13	4
47	84	1
42	59	2
110	111	2
55	65	4
62	64	2
29	29	3
120	120	2
27	27	3
36	113	1
31	31	6
65	65	4
16	18	2
24	25	1
89	89	5
21	21	7
77	77	2
56	56	3
44	133	3
99	99	4
63	63	2
1	3	2
25	25	7
132	132	3
78	78	2
90	90	7
6	6	3
86	87	2
125	125	5
114	114	8
127	127	1
94	94	5
114	131	3
123	123	4
58	109	1
14	14	1
97	97	1
1	94	2
116	116	6
106	111	1
115	115	2
128	128	1
116	122	2
84	84	3
61	61	4
129	133	1
77	127	2
55	57	1
124	125	7
45	45	4
110	110	2
80	80	9
11	11	3
37	37	7
72	72	3
70	70	4
29	32	2
20	20	7
45	47	1
131	131	7
60	60	5
32	32	5
57	57	4
58	58	3
126	126	1
62	62	6
33	33	3
71	71	4
15	15	2
18	18	1
133	133	3
112	112	4
21	101	1
65	67	1
134	134	6
103	103	1
85	86	2
49	49	2
22	99	4
79	114	4
7	8	1
127	128	1
54	54	1
62	63	2
82	83	2
73	73	2
64	64	4
12	102	2
87	87	8
92	92	3
122	123	4
67	67	3
73	75	2
70	71	1
100	100	9
102	102	4
102	103	1
53	53	2
78	79	2
97	120	1
24	24	3
52	52	1
69	91	4
100	101	1
50	78	3
22	43	2
117	117	1
127	131	1
135	135	6
130	130	2
60	109	1
68	68	3
80	81	1
5	68	1
5	16	2
55	55	3
96	122	3
33	34	1
16	16	5
7	7	2
119	119	2
65	66	3
73	76	1
36	36	2
17	17	1
104	105	1
77	82	1
118	118	2
88	93	2
114	126	1
19	19	3
95	95	2
106	106	1
74	74	3
128	129	1
20	30	3
88	119	1
76	134	1
26	27	1
14	15	1
13	27	1
25	35	1
11	96	1
55	62	1
11	13	1
53	90	2
33	103	1
87	118	1
30	30	6
42	42	1
113	131	1
95	114	1
87	90	2
98	115	1
30	31	3
1	2	1
76	79	2
126	127	2
42	107	2
91	92	1
25	68	1
79	79	2
93	120	1
36	95	1
116	131	1
0	135	1
79	80	1
88	88	2
12	12	1
1	4	2
113	113	1
96	127	1
104	104	1
8	8	1
44	44	3
124	124	2
90	91	1
23	24	2
44	60	1
34	34	1
88	117	1
6	33	2
75	76	1
60	62	1
86	86	1
66	66	1
67	68	1
49	130	1
113	130	1
117	118	1
90	109	1
5	13	1
105	105	1
