56	77	3
109	109	7
166	166	8
47	49	8
62	62	8
9	11	4
64	64	15
112	112	5
110	111	5
72	72	29
70	72	6
150	150	11
3	6	16
79	79	10
12	12	6
99	99	11
161	162	3
5	5	12
44	44	8
37	37	17
52	53	8
152	154	4
80	80	6
66	66	3
51	51	25
63	68	1
84	84	17
8	9	2
90	91	7
57	93	1
126	131	4
133	133	16
14	14	8
7	12	2
47	47	6
36	37	3
56	56	6
65	65	17
91	91	6
126	127	7
55	55	15
6	7	3
39	39	4
17	17	22
1	1	9
154	154	5
87	89	6
54	54	3
69	70	6
156	156	8
2	2	9
40	51	3
74	74	12
81	90	1
106	107	4
45	47	3
82	82	13
116	119	9
49	50	3
71	71	3
100	121	4
8	13	2
145	147	2
105	106	13
53	53	26
156	158	2
46	46	14
4	7	2
107	107	15
84	108	4
152	153	13
151	152	2
121	121	9
100	100	4
78	79	3
97	97	6
40	50	1
143	145	8
131	131	12
90	90	10
92	92	4
113	113	9
138	138	6
79	80	4
27	27	19
147	147	4
149	150	3
156	157	4
23	23	4
128	128	18
144	145	3
139	139	10
149	149	17
124	124	8
41	41	8
8	8	7
36	36	10
57	57	6
111	111	6
110	110	8
34	34	15
77	78	10
41	42	6
10	10	10
91	93	1
18	18	7
48	49	3
67	131	3
116	117	4
65	66	7
95	95	5
109	121	5
145	145	8
165	168	1
136	138	1
46	47	12
162	163	7
141	141	9
83	83	10
19	19	11
24	24	12
17	18	2
14	15	6
40	41	3
137	137	12
166	168	4
87	87	10
25	49	3
38	42	3
115	115	4
5	7	1
153	153	10
71	72	8
67	67	7
26	26	9
89	89	4
114	114	6
13	13	22
11	12	2
109	113	3
167	167	7
134	135	5
19	39	4
26	27	2
143	143	6
160	161	2
86	86	4
3	3	6
94	94	11
82	105	1
7	9	3
96	96	3
15	15	11
128	137	3
4	4	5
96	124	2
6	6	15
132	132	8
80	91	2
73	73	7
140	141	5
168	168	6
98	98	12
151	151	4
48	48	11
23	52	2
43	43	15
0	2	4
43	44	2
85	85	9
138	139	6
122	123	2
108	108	5
38	38	9
130	131	5
148	148	3
158	158	6
144	146	8
164	166	2
8	10	4
63	63	4
46	153	1
137	138	1
115	116	5
74	75	1
5	6	1
47	48	3
24	50	4
118	119	1
112	113	2
117	119	2
1	2	5
82	107	2
167	168	1
120	120	8
127	127	2
132	133	6
75	75	14
9	10	1
169	169	4
76	76	1
155	155	4
88	89	3
39	40	6
66	131	4
109	110	1
21	22	1
165	165	7
164	168	2
52	52	5
162	164	7
67	68	1
81	82	5
7	7	9
84	145	3
19	21	2
106	108	2
83	114	7
130	130	9
16	16	8
41	154	2
78	91	4
80	105	1
86	166	1
132	134	1
87	88	1
136	136	7
155	156	2
103	121	3
73	89	1
170	170	5
164	164	8
104	104	7
79	91	4
122	122	3
99	102	2
23	25	1
101	101	4
16	18	3
92	94	2
66	126	3
62	70	2
44	45	3
42	43	1
3	10	3
6	8	3
161	161	4
117	117	4
75	76	2
103	103	3
97	125	1
23	49	2
45	45	3
42	42	1
23	24	2
18	19	8
3	13	6
9	9	10
116	118	1
114	141	2
21	21	8
126	126	3
17	51	3
157	157	9
135	135	6
35	35	1
56	93	3
146	146	5
70	70	2
163	164	1
81	81	4
165	167	3
68	68	4
163	163	5
104	105	2
3	4	4
11	13	1
144	169	7
5	14	2
125	126	3
145	166	3
101	102	2
76	77	2
12	13	2
50	50	4
129	130	1
73	74	3
25	25	6
159	159	1
24	25	2
141	142	1
123	123	3
160	160	2
33	33	4
20	25	1
142	143	1
84	85	2
15	52	1
103	122	1
40	40	6
123	124	2
93	93	6
39	50	1
126	130	1
130	132	4
11	11	5
28	28	5
79	94	1
65	71	2
73	88	2
146	147	4
155	157	2
93	95	1
121	124	5
120	121	3
134	134	1
9	12	3
118	118	4
55	56	1
113	119	1
129	129	1
76	78	2
144	168	2
119	119	2
142	142	3
49	49	1
149	163	1
4	14	3
57	62	2
22	23	2
4	6	4
98	102	1
147	163	1
92	93	3
78	81	1
114	115	2
101	112	1
56	58	1
115	138	2
116	121	1
20	51	2
114	116	2
4	5	2
77	77	2
152	152	3
100	101	1
73	75	4
23	50	1
147	160	1
22	24	2
34	35	4
17	52	2
166	167	4
148	165	2
57	61	3
76	89	3
147	148	3
102	103	2
18	23	2
0	0	4
168	169	2
13	14	1
100	117	1
133	134	2
130	133	2
144	165	1
120	122	1
43	149	2
105	105	1
131	132	1
144	144	1
43	47	3
74	89	1
82	147	1
96	101	1
5	16	2
44	46	1
101	117	1
116	116	1
38	114	1
116	138	1
169	170	1
53	54	1
75	87	1
137	139	1
120	127	2
146	160	1
103	112	1
22	22	1
159	160	1
72	73	1
157	158	1
124	126	1
