146	146	4
96	96	15
83	83	12
108	108	20
3	3	10
120	120	4
34	34	3
22	22	4
123	123	8
68	68	10
132	133	7
39	39	9
36	36	9
98	98	8
94	130	7
49	53	3
13	13	19
29	30	6
72	72	2
40	48	6
121	121	5
136	139	6
102	102	9
131	131	6
17	17	7
19	19	2
53	53	5
133	133	7
52	52	3
94	94	6
148	149	5
13	152	2
147	148	12
35	38	7
131	132	10
144	145	1
78	148	3
85	85	3
132	132	7
105	105	6
7	8	3
63	64	1
103	103	4
83	126	5
107	108	9
117	118	2
141	141	3
87	87	1
95	95	3
117	117	1
23	23	13
115	116	2
131	153	2
32	32	5
28	28	10
127	127	9
35	35	3
137	144	3
110	110	11
81	81	12
19	149	6
15	119	2
55	55	2
145	146	2
34	35	2
47	48	3
41	43	3
12	118	4
13	29	1
18	144	1
107	107	5
67	67	6
66	66	2
44	44	9
33	33	2
21	22	2
3	66	6
64	64	2
12	30	3
25	25	6
136	136	2
52	56	1
53	55	3
40	40	12
69	69	5
73	74	11
93	93	7
119	120	8
45	46	7
43	57	3
10	10	10
39	41	4
7	64	1
22	118	2
27	27	9
78	78	6
134	134	9
41	46	2
117	119	4
122	122	9
149	149	11
109	109	7
35	43	3
84	85	7
46	46	2
18	18	3
121	122	5
73	73	4
23	24	2
102	103	10
43	43	8
119	141	3
106	106	7
101	102	4
17	19	2
113	114	3
24	24	13
79	87	4
38	38	1
111	111	10
19	133	3
139	139	10
113	113	16
48	48	5
20	20	4
28	30	3
129	129	5
82	110	1
40	44	6
50	50	9
84	84	2
37	38	3
63	63	3
27	63	3
18	135	2
128	128	7
21	118	1
133	134	1
14	14	3
79	79	9
68	115	1
9	9	5
112	112	7
145	148	4
108	109	1
44	56	4
150	150	2
79	147	4
135	135	6
142	144	1
5	5	7
24	25	3
20	21	3
95	98	6
6	6	3
110	112	3
86	133	2
7	7	11
72	151	2
12	12	4
111	125	2
72	150	1
36	37	2
76	76	5
116	149	1
28	62	1
64	65	1
30	30	6
102	109	1
140	140	2
11	11	5
110	111	1
16	16	4
82	82	3
19	152	1
40	41	2
76	146	3
147	147	3
74	74	5
118	118	4
137	137	5
57	57	2
116	116	4
37	37	3
75	79	1
138	139	6
139	143	2
23	29	5
70	70	4
10	12	1
4	5	1
53	54	3
21	152	1
130	130	2
69	70	3
126	127	2
153	153	2
9	67	1
22	117	2
116	117	2
77	78	3
42	42	3
79	130	2
99	99	2
44	45	2
81	82	2
76	78	2
4	4	2
79	104	2
106	108	1
100	100	3
114	114	3
2	2	1
77	77	3
28	68	2
15	20	3
76	147	4
40	42	3
19	128	2
13	71	1
73	149	1
15	117	1
10	26	1
27	32	2
29	29	1
148	148	1
21	21	1
144	144	7
151	151	4
97	97	2
70	71	1
45	45	2
67	68	3
152	153	1
21	23	1
19	84	1
115	115	1
133	152	1
131	133	3
138	138	2
89	89	2
6	7	2
25	30	1
3	6	1
16	136	2
152	152	1
30	32	2
34	36	1
113	116	1
143	143	1
142	142	2
85	133	2
119	119	2
49	49	2
78	87	1
18	134	2
42	43	1
24	29	1
84	88	3
84	132	1
50	56	2
15	22	1
2	66	1
54	54	2
41	41	2
101	105	2
136	137	1
11	24	1
73	75	3
75	102	1
39	40	2
97	99	1
97	131	2
15	149	1
19	20	1
33	34	2
84	130	2
83	84	1
12	13	2
109	110	1
42	45	1
15	15	1
65	65	1
102	105	1
126	126	1
80	80	1
7	45	1
132	134	1
74	107	1
74	75	1
128	146	1
141	144	1
104	104	1
15	115	1
13	21	1
