6	26	2
115	119	3
76	76	13
56	56	14
108	109	11
142	142	6
15	27	2
5	5	8
152	152	8
105	105	18
19	21	8
26	28	5
101	101	20
72	72	12
13	14	4
45	47	3
108	108	10
179	179	17
97	98	5
148	148	9
168	168	20
29	29	8
118	118	20
47	47	16
169	170	8
143	143	23
25	26	4
110	112	12
139	139	17
147	147	13
47	48	11
159	161	4
38	38	9
78	78	8
27	27	12
120	120	17
182	189	6
105	106	21
58	58	12
23	31	9
22	22	14
118	176	2
32	33	3
119	178	2
77	77	17
54	55	6
11	11	20
61	61	7
107	165	1
62	62	17
57	57	20
109	109	13
90	95	7
79	183	5
123	123	8
125	125	10
62	63	18
103	104	9
45	45	9
137	137	17
36	36	21
155	155	22
114	114	16
63	63	16
131	131	17
31	35	9
73	137	3
84	84	6
61	63	5
117	117	9
136	136	16
158	158	21
18	18	13
14	15	9
0	0	16
111	111	11
110	110	13
148	149	3
122	122	19
184	186	3
40	42	1
28	28	9
13	16	4
66	79	2
162	162	14
65	67	7
134	137	2
155	156	7
165	166	14
68	68	10
3	3	11
33	36	9
85	85	16
74	76	3
135	135	20
14	14	16
169	169	10
74	74	28
15	15	14
129	129	11
40	41	4
161	161	12
163	163	21
181	182	9
154	154	15
122	181	14
64	110	4
31	31	11
59	59	4
19	19	19
119	119	3
64	65	6
26	26	10
106	109	3
58	60	5
41	41	15
100	101	4
33	33	20
92	92	11
60	114	6
97	97	9
145	145	7
7	25	3
12	13	18
146	147	6
25	25	15
48	49	5
40	40	7
176	177	2
172	172	20
171	171	13
69	69	3
140	141	7
150	150	7
133	138	6
127	128	2
97	99	7
59	61	3
10	10	12
99	100	6
32	32	5
70	70	12
178	178	13
85	184	4
185	185	11
147	148	9
100	100	6
37	37	7
146	146	10
30	30	21
67	67	16
48	48	12
4	5	5
78	80	2
93	93	23
173	173	17
96	96	10
91	91	12
183	183	11
15	26	2
124	126	3
170	170	7
55	144	4
59	114	5
71	131	4
140	140	17
12	17	3
158	160	2
164	165	4
101	103	6
149	150	9
92	94	3
73	88	2
124	125	8
96	97	16
104	104	16
72	73	6
130	131	2
115	115	10
8	9	3
153	153	12
0	1	7
66	66	13
44	44	5
54	54	8
24	24	8
88	88	2
99	99	18
166	166	9
110	154	2
124	128	1
0	3	2
180	180	12
87	88	10
167	167	14
121	121	13
91	92	9
60	60	1
106	106	10
60	69	2
35	35	13
188	188	6
151	152	7
189	190	6
174	174	9
130	132	6
23	23	23
149	149	8
154	170	3
43	43	12
49	49	3
71	72	3
13	17	3
87	87	15
81	83	5
75	94	6
155	176	3
83	83	9
33	34	3
5	6	9
107	107	10
103	103	12
164	167	6
181	181	14
76	78	5
177	177	17
157	157	4
56	57	7
53	53	21
184	184	19
82	82	13
107	109	1
133	133	15
75	91	4
165	184	4
76	139	4
77	78	6
58	59	4
52	53	2
125	129	1
9	11	1
186	188	5
182	182	14
64	64	9
60	62	1
60	70	9
165	186	1
141	141	18
74	75	3
90	90	7
46	46	8
70	71	6
128	128	5
86	86	13
12	16	3
96	98	6
116	118	2
93	94	7
152	157	1
24	25	11
58	112	1
184	185	10
134	134	8
39	40	1
19	20	2
72	76	1
75	76	6
55	55	8
102	105	2
138	139	6
22	118	3
176	176	5
11	15	2
151	151	5
185	186	4
116	119	5
78	79	10
39	39	10
157	165	2
27	28	5
28	30	3
138	138	16
128	129	7
112	112	17
136	137	9
4	4	8
32	34	5
164	164	15
157	170	5
163	166	5
113	113	12
159	159	9
121	179	13
85	182	5
104	105	3
125	126	5
86	88	3
73	73	18
75	75	3
156	156	5
61	62	2
172	176	4
21	22	5
10	17	2
36	53	3
120	178	1
86	124	2
41	42	1
13	30	1
75	80	1
16	16	10
20	20	11
18	25	3
1	1	10
34	34	14
34	36	3
25	28	2
127	132	8
67	68	11
22	119	1
186	186	5
45	46	7
182	183	2
130	138	2
149	179	1
131	132	5
53	127	4
2	2	5
147	149	3
190	190	15
15	31	5
116	116	11
168	170	3
114	149	3
76	93	2
78	84	1
13	13	11
68	79	1
133	139	3
90	98	8
152	154	2
20	22	5
79	79	13
81	81	14
26	27	8
55	147	1
65	68	2
66	81	1
21	21	8
57	60	5
10	21	3
119	120	3
122	123	4
89	89	9
54	139	1
113	152	1
42	42	8
144	145	7
165	165	8
27	30	1
84	85	3
127	127	6
59	60	6
183	184	2
121	122	8
120	150	2
46	47	1
95	96	2
83	84	3
43	44	10
66	67	6
173	174	6
6	6	5
187	187	12
53	144	3
63	64	2
118	119	3
68	183	3
157	169	1
20	21	7
22	24	2
144	144	9
67	183	2
56	150	2
157	159	5
81	108	5
17	18	7
3	4	2
166	168	4
107	108	1
31	32	2
134	135	8
137	139	5
54	140	4
179	180	1
64	109	2
135	136	3
120	151	7
71	71	11
114	178	3
110	111	2
153	170	1
165	185	6
22	117	3
170	186	3
98	99	6
175	175	13
124	124	7
57	122	5
21	29	5
148	150	5
111	112	13
129	131	2
52	52	3
160	160	7
85	124	1
172	173	2
17	17	5
160	161	3
15	16	2
161	162	5
21	24	4
188	190	3
132	134	4
39	140	1
61	181	2
81	92	3
10	14	4
22	23	1
187	188	5
159	166	1
134	138	3
111	172	5
185	187	3
127	129	3
53	55	5
12	12	6
170	171	3
65	65	6
112	113	2
52	54	2
115	116	1
59	115	1
29	31	7
114	148	3
164	166	2
60	61	4
23	29	6
110	166	1
73	87	1
62	151	2
163	164	1
31	117	2
123	124	6
122	180	1
9	10	4
116	117	1
86	87	2
130	130	6
126	181	4
57	61	2
34	146	1
153	154	4
167	169	3
80	83	2
3	5	1
126	127	1
90	92	1
123	128	2
27	31	1
142	143	1
165	169	1
156	170	3
134	136	2
126	126	6
28	29	5
44	47	1
95	95	5
145	146	3
8	18	3
73	74	2
158	167	1
94	94	7
54	141	1
157	158	1
79	85	1
106	139	3
82	83	5
7	7	1
166	167	12
109	165	2
23	24	1
18	22	4
32	35	1
168	171	4
154	156	1
27	29	1
10	15	3
116	146	2
98	98	2
8	8	1
67	80	1
14	23	4
11	14	2
34	145	1
8	17	5
113	151	1
2	3	3
97	100	1
64	66	2
81	82	3
90	91	3
161	168	2
94	95	6
18	20	1
117	118	4
16	26	1
34	35	2
102	102	3
164	186	1
164	185	2
183	189	2
55	57	6
115	118	2
108	182	1
142	144	1
80	80	5
112	151	1
36	37	3
62	65	2
171	172	1
66	68	3
52	142	1
5	13	1
55	148	1
71	73	1
115	146	1
56	122	2
139	141	3
162	163	2
132	133	2
38	39	3
1	3	1
66	99	1
37	38	1
2	6	1
105	107	2
101	102	7
72	74	1
102	103	3
84	105	1
159	160	4
89	90	1
92	102	1
127	141	1
133	134	1
61	66	2
79	80	2
74	79	1
109	110	1
178	179	2
77	90	2
55	56	1
188	189	2
174	175	2
143	144	1
43	47	1
135	138	1
92	93	1
56	62	1
43	46	2
110	170	3
36	145	1
106	107	4
152	170	1
43	48	1
101	104	2
9	20	2
61	180	1
160	168	1
110	167	1
136	138	1
7	13	1
77	88	1
118	120	2
77	184	1
118	177	1
18	21	2
114	115	1
38	48	1
95	97	1
113	118	2
120	121	2
81	91	1
13	26	1
132	174	1
154	186	1
165	167	2
133	135	1
104	106	1
63	65	1
159	169	1
76	77	1
59	112	1
42	46	1
125	128	1
85	183	1
151	155	1
63	111	1
65	66	1
