93	93	2
164	164	6
11	11	3
2	2	3
3	3	9
76	111	2
125	126	1
126	126	1
74	74	3
65	65	5
100	101	3
88	107	2
8	8	7
72	72	4
68	68	5
53	53	4
134	134	4
44	44	4
52	52	5
81	81	2
25	25	12
15	15	4
96	96	3
35	42	5
100	100	3
154	154	5
35	35	6
145	145	4
153	153	5
132	133	5
114	114	4
75	137	4
5	11	6
18	18	1
14	14	6
84	84	3
24	39	5
23	23	2
3	73	2
104	104	2
13	14	4
106	106	1
112	112	1
49	56	1
141	141	2
89	149	1
119	169	1
11	145	1
34	34	5
166	166	9
88	89	1
151	151	5
9	39	3
122	165	2
135	136	3
27	34	1
167	167	3
99	99	1
64	64	2
84	86	2
12	12	2
139	139	1
11	12	1
50	50	4
36	36	2
150	150	4
14	15	5
48	48	1
120	120	2
46	154	1
42	42	2
138	146	3
56	56	5
46	47	1
149	149	2
146	147	2
114	139	3
40	40	5
97	97	2
72	146	4
3	6	2
2	5	4
163	164	2
4	39	1
1	118	1
98	98	3
100	103	6
5	21	1
103	103	2
71	71	3
93	161	3
57	134	1
161	162	1
128	128	3
20	24	1
50	51	1
10	10	1
119	119	1
66	66	1
18	19	5
43	43	1
18	20	1
143	143	1
17	24	2
89	141	2
88	149	2
165	166	1
110	114	1
11	38	1
10	38	1
1	135	2
148	148	1
35	149	2
69	69	2
159	160	2
71	72	2
110	110	1
11	73	4
25	27	3
48	52	4
2	116	1
79	80	1
107	107	2
162	162	2
135	135	3
35	56	1
160	160	1
69	70	3
155	155	4
70	115	3
17	17	1
15	17	1
152	152	2
140	140	1
82	82	2
15	16	1
73	73	3
118	118	1
54	54	1
113	113	1
36	147	1
67	67	3
101	101	1
50	58	2
89	90	2
167	168	2
46	46	3
5	13	4
6	16	1
152	153	1
138	138	4
58	58	1
127	127	1
163	163	4
155	157	1
5	8	1
44	45	2
5	5	3
94	95	1
102	102	1
3	5	1
13	13	2
2	3	1
121	121	1
3	15	2
42	57	1
82	132	3
88	88	1
62	134	1
28	52	1
1	2	1
9	10	2
164	165	1
91	146	2
104	142	1
57	57	1
99	104	2
71	143	1
84	85	1
