140	145	1
174	174	7
65	65	4
94	94	5
87	88	4
40	41	6
8	8	3
170	172	1
121	123	1
138	138	6
66	66	2
48	48	2
11	11	5
134	134	11
114	114	4
136	137	6
129	129	2
102	103	2
20	20	6
149	149	5
81	81	3
31	31	8
121	121	6
90	91	3
71	71	9
113	113	2
120	120	12
42	42	4
173	174	3
44	44	2
179	179	4
122	122	3
40	40	6
71	128	3
110	141	2
19	19	2
57	61	3
6	6	4
58	58	2
156	157	1
151	185	2
86	88	1
85	85	2
140	140	2
14	14	4
58	100	3
146	169	4
13	13	3
147	147	2
78	78	1
101	101	5
156	156	3
15	15	1
84	85	2
2	2	7
158	158	3
25	53	2
154	154	3
125	135	3
7	7	6
8	24	2
84	84	1
77	77	8
35	35	4
38	38	5
75	143	2
3	3	1
33	33	6
150	165	1
24	24	4
163	182	1
136	136	1
88	89	2
157	158	2
83	83	3
7	56	1
173	173	7
153	153	2
112	117	1
6	87	2
145	145	4
156	159	2
118	118	1
97	97	2
45	45	5
188	188	3
48	77	1
72	72	3
90	141	1
104	107	1
23	23	5
98	99	2
11	12	6
104	104	5
180	180	2
54	136	5
86	86	7
111	111	1
64	64	2
152	152	3
157	157	2
127	127	3
126	126	2
84	86	2
117	120	1
94	125	4
142	142	7
43	71	1
88	88	2
109	109	2
175	176	2
29	29	2
161	161	2
85	86	2
127	134	1
74	74	3
148	148	4
117	118	3
12	14	1
182	183	5
39	48	1
15	30	2
166	167	2
105	105	7
147	176	4
79	140	1
87	87	3
187	187	5
167	168	1
61	61	3
16	17	3
24	68	1
100	100	1
156	158	4
125	125	2
159	160	3
70	70	4
5	5	2
65	66	1
182	182	3
18	21	4
171	171	2
82	82	1
141	141	6
79	79	4
89	89	2
10	10	2
44	46	1
4	6	1
73	73	4
39	40	1
101	103	4
176	179	2
61	64	1
134	137	1
146	146	7
17	17	3
148	178	2
75	75	1
177	177	1
185	186	2
7	54	2
53	69	1
92	139	1
123	125	1
133	133	2
81	82	2
99	99	5
92	92	4
117	117	1
72	73	3
25	26	3
99	141	2
39	39	1
143	143	2
29	48	2
57	68	1
46	46	1
131	131	2
125	126	3
90	90	2
76	76	2
151	151	5
26	28	1
143	144	2
26	26	3
91	139	1
47	47	2
27	27	2
177	179	1
153	154	1
15	23	6
163	163	1
105	117	1
151	184	1
91	93	2
119	119	3
114	119	1
67	67	5
53	54	3
157	161	1
169	186	4
172	189	1
113	114	2
162	162	1
52	132	3
59	134	1
95	120	1
135	135	4
93	142	1
135	136	2
19	20	1
107	107	3
116	117	2
184	184	2
42	78	1
164	164	1
57	57	2
74	75	1
128	128	3
6	107	1
18	19	1
140	141	1
175	175	2
39	42	1
13	24	2
107	134	1
107	109	3
142	143	1
41	140	1
83	84	3
174	187	1
179	180	1
55	55	1
56	57	1
96	96	1
5	44	1
1	3	1
166	166	2
93	115	2
18	131	2
34	34	1
31	35	1
25	25	2
63	67	1
163	164	1
160	160	1
148	166	1
167	167	1
168	168	2
68	68	1
34	46	1
154	180	1
92	93	1
123	123	1
69	70	2
52	52	1
109	144	1
27	28	1
147	148	2
150	150	2
112	115	1
57	74	1
148	167	1
127	143	2
16	16	2
124	124	1
93	116	1
186	186	1
144	144	2
96	100	1
149	150	1
26	79	1
108	109	1
137	138	2
164	165	1
82	83	1
26	27	1
1	1	1
132	132	1
70	128	1
93	94	1
