31	31	7
114	115	3
83	83	7
130	131	1
78	78	19
81	120	2
85	120	5
103	103	9
16	16	7
101	102	5
106	107	7
114	116	10
92	92	18
91	91	7
122	122	14
27	27	15
74	74	15
88	125	5
2	9	3
35	89	2
7	7	8
38	38	13
22	22	1
96	96	10
127	127	17
4	4	12
102	102	29
124	125	5
80	84	3
77	77	12
119	119	9
15	16	3
30	30	13
75	79	1
104	105	11
98	98	8
19	19	11
113	114	7
25	26	5
21	22	10
114	114	9
11	11	13
79	79	9
9	9	10
102	103	4
123	123	12
111	112	10
129	129	17
124	124	16
132	132	5
110	110	12
99	99	10
106	106	7
1	1	18
88	88	14
97	116	2
8	8	26
113	113	10
115	115	9
18	18	19
34	34	19
11	14	2
37	37	9
89	89	11
27	28	2
32	32	11
6	6	24
117	117	21
118	118	17
103	104	2
89	91	5
3	3	17
119	121	2
21	21	11
6	8	6
89	90	4
9	38	11
94	94	14
32	33	7
109	110	3
112	112	15
0	0	8
87	87	8
13	13	4
37	87	4
81	85	1
84	84	28
73	73	2
26	27	4
105	105	3
10	11	4
127	129	5
103	116	2
36	36	9
36	37	2
125	125	14
86	87	3
20	20	9
25	25	5
98	109	3
74	75	4
73	78	2
78	79	5
97	97	2
33	33	11
6	7	5
108	108	7
105	110	3
14	15	4
131	131	17
100	101	5
134	134	14
26	26	6
93	94	3
82	82	14
110	111	4
120	120	13
15	20	2
71	71	8
13	14	11
126	126	4
80	80	12
77	78	6
90	113	2
36	72	2
83	121	3
10	12	1
35	35	9
28	29	3
111	111	8
72	72	14
121	121	11
108	109	2
76	76	11
104	107	6
28	28	14
133	133	5
29	30	3
95	95	11
24	25	1
118	120	1
90	90	9
105	107	2
7	14	4
83	92	2
15	21	1
29	32	3
101	101	7
76	78	2
100	100	11
8	28	1
124	126	2
90	91	7
93	93	11
1	2	2
99	100	4
72	73	1
4	6	1
14	14	5
17	17	16
28	38	3
138	138	5
0	21	4
116	116	9
12	12	8
15	18	2
6	32	2
8	9	2
116	117	3
10	10	8
111	127	4
123	124	4
24	24	12
37	89	6
135	135	9
2	2	7
112	114	2
87	98	1
11	12	7
116	118	2
92	94	3
71	72	7
37	123	1
136	136	10
128	129	3
136	137	4
89	93	1
1	34	1
86	86	7
133	134	6
137	137	11
15	15	9
75	76	1
23	24	8
0	1	5
132	133	2
89	121	3
17	18	3
120	122	5
83	84	1
130	130	8
85	85	3
121	122	7
134	135	2
5	6	2
76	77	4
22	23	1
103	107	1
126	127	5
30	31	6
81	82	9
103	115	5
127	128	4
87	88	6
18	22	4
117	118	2
81	81	16
2	30	3
5	5	5
105	106	3
134	140	1
100	102	1
33	37	1
82	84	5
109	109	13
138	139	2
23	23	7
94	113	1
12	17	2
72	90	3
29	29	7
34	35	3
20	21	1
91	92	6
104	104	2
25	76	2
32	75	2
131	132	1
6	30	1
34	72	1
3	4	2
4	7	3
0	33	1
31	32	4
21	23	1
118	119	1
11	13	4
88	91	4
7	8	1
129	130	1
137	138	1
95	111	2
88	98	1
33	34	3
19	20	1
11	73	3
21	30	2
107	107	8
103	126	2
87	91	1
119	120	1
75	75	4
117	119	1
12	29	2
14	20	4
0	93	2
87	119	1
84	90	1
8	19	1
4	30	1
82	83	3
38	39	1
7	9	3
128	128	3
73	74	2
80	83	1
108	115	1
32	72	2
99	119	1
1	10	1
37	38	1
4	5	1
107	108	3
79	80	2
30	75	1
27	29	2
90	117	1
9	11	2
84	92	1
36	73	2
81	83	1
134	139	1
105	114	1
17	20	1
2	4	1
2	72	1
13	37	1
97	98	1
117	121	1
26	33	2
68	68	1
74	79	1
9	12	1
92	93	1
22	24	1
125	127	1
94	115	1
18	24	2
80	81	1
35	87	1
140	140	2
19	24	1
38	78	1
15	17	2
1	11	1
109	112	1
84	85	1
112	113	1
93	114	1
24	75	1
14	40	1
0	73	1
104	118	1
82	85	1
9	14	1
78	80	2
