150	173	3
182	197	1
38	38	2
154	168	2
135	135	9
55	130	1
0	5	6
38	48	1
24	40	2
19	35	1
169	208	1
8	16	3
215	218	5
115	129	1
54	55	4
190	191	6
236	240	5
9	47	5
134	134	6
68	68	6
181	196	3
72	72	7
218	222	1
208	224	2
99	99	3
12	12	7
39	39	3
5	6	2
45	66	2
124	145	3
127	127	4
60	60	4
228	236	3
62	71	3
124	124	2
113	142	4
36	125	4
205	224	4
228	228	1
6	9	3
26	26	6
12	32	3
48	51	5
182	207	3
215	228	2
171	171	3
142	142	2
48	48	1
227	227	3
157	169	1
183	201	2
124	132	4
151	151	7
23	30	3
174	175	2
155	155	5
114	114	4
37	38	10
204	204	7
104	106	2
101	101	5
63	68	11
138	167	2
49	49	3
180	180	3
235	235	8
40	40	4
88	89	1
220	220	5
197	197	3
58	80	4
183	183	5
120	131	1
196	240	3
31	51	2
153	176	2
47	51	1
35	48	2
19	23	5
0	1	5
81	84	4
214	214	4
26	53	3
64	64	3
102	133	2
211	219	6
138	138	3
206	223	2
222	222	13
59	74	6
143	230	2
29	33	1
2	53	2
126	126	2
14	104	1
3	16	1
2	12	7
82	83	2
32	32	11
175	177	4
28	30	1
57	57	4
110	193	2
100	100	1
206	213	4
51	202	2
52	52	5
164	164	1
140	140	2
190	190	4
21	22	2
179	179	1
7	126	3
141	141	5
178	179	2
221	225	2
165	166	5
234	242	1
80	86	5
97	97	7
186	201	2
50	53	3
44	66	1
221	222	2
71	71	5
213	218	5
222	223	2
108	193	2
125	125	8
57	73	3
54	54	5
66	82	1
170	189	3
181	181	7
146	148	1
184	184	9
122	145	2
81	82	2
19	19	4
13	15	1
167	200	4
38	44	1
48	64	1
162	162	2
62	62	5
198	198	2
3	17	4
165	199	2
34	34	6
10	10	2
102	102	6
201	201	1
63	63	5
188	188	2
161	165	4
61	67	3
237	237	4
188	189	10
166	187	2
105	132	2
149	173	3
96	102	1
231	231	7
10	30	8
187	187	5
200	200	2
199	199	2
222	226	3
25	26	7
158	158	4
20	20	1
185	192	3
105	115	1
60	76	3
98	98	5
112	116	3
36	40	3
54	56	2
200	212	1
46	61	2
199	200	1
180	187	4
136	137	2
77	77	2
51	60	4
214	237	6
166	166	2
67	80	1
100	117	6
42	42	5
146	146	7
215	224	1
208	208	7
5	5	4
175	175	8
47	48	10
113	113	6
224	224	4
97	147	1
58	58	4
148	171	4
28	29	1
135	136	1
46	46	4
21	23	1
16	17	2
48	49	2
189	189	3
49	55	1
152	187	3
37	61	1
232	232	8
130	131	1
189	199	5
216	228	3
79	83	2
128	128	7
161	161	2
129	143	5
15	118	2
0	0	1
44	52	6
50	50	4
177	193	2
183	194	2
43	52	2
178	200	3
211	211	1
1	29	1
177	187	5
203	203	8
97	105	2
224	225	1
16	16	5
144	145	3
106	126	1
37	37	6
212	231	3
234	234	7
163	163	2
215	226	1
193	193	1
106	122	4
122	142	3
22	36	3
209	209	4
68	81	1
108	108	1
224	227	1
195	239	1
20	24	8
8	8	4
33	33	2
51	51	4
139	140	4
104	104	3
198	199	1
27	46	1
109	109	5
211	218	2
157	235	1
115	121	3
188	198	3
21	29	2
45	47	1
157	157	3
115	162	2
82	82	3
136	136	4
153	156	1
175	191	4
217	218	5
159	174	1
170	172	4
98	108	3
236	236	6
242	242	4
225	225	1
179	180	2
39	53	1
4	4	2
210	230	1
59	88	3
206	206	4
51	66	1
17	17	9
65	67	2
18	213	2
170	170	1
167	169	3
195	195	7
221	233	1
196	211	1
139	229	1
2	4	3
150	155	3
174	176	6
185	185	1
47	70	1
219	221	4
213	213	5
223	225	2
2	89	1
240	240	5
121	146	1
70	70	3
141	142	1
84	84	2
105	107	3
32	36	2
136	138	6
40	42	6
227	241	1
180	181	2
81	81	2
1	3	1
217	217	5
117	117	4
111	116	1
186	186	5
3	3	5
54	71	4
210	210	3
36	36	5
200	227	3
218	218	2
150	150	3
56	56	4
182	182	2
194	210	5
100	104	2
182	213	4
124	126	4
73	73	4
37	202	1
123	123	2
66	118	2
204	205	3
229	231	2
43	44	1
122	123	1
80	80	8
10	11	4
225	241	5
134	147	2
29	29	2
103	105	3
161	162	4
172	172	2
235	237	1
23	23	6
56	58	2
28	55	4
206	214	4
162	165	1
228	229	2
43	43	4
10	20	4
6	7	2
202	205	1
83	83	2
52	53	4
130	130	2
81	83	2
147	147	4
234	238	2
74	74	6
47	63	2
163	166	3
196	197	4
34	43	1
46	59	1
27	27	3
184	205	3
223	223	3
209	222	1
148	168	1
202	202	3
213	221	1
140	141	3
117	123	1
41	41	1
8	114	3
194	195	1
167	167	3
128	129	1
192	192	3
99	100	2
18	18	1
118	118	1
132	134	1
160	161	2
190	201	1
88	88	2
201	202	1
234	240	1
69	69	2
34	41	2
219	233	1
194	201	1
102	143	2
85	85	3
57	72	1
24	24	3
215	215	5
146	147	1
117	118	1
127	128	2
176	176	1
226	236	1
206	208	1
220	225	1
167	182	2
140	158	1
20	39	3
30	31	3
56	57	1
134	146	1
79	79	4
167	225	4
180	199	1
13	21	2
136	155	1
65	65	1
231	232	3
79	86	1
11	11	1
154	154	2
3	29	1
2	6	2
167	168	1
53	53	1
38	39	1
193	215	3
154	158	1
27	29	3
78	78	2
115	123	1
31	31	3
169	171	3
29	88	1
191	191	2
22	22	3
105	105	1
139	153	1
209	219	1
138	139	3
31	34	2
2	51	1
50	51	1
203	215	1
202	223	1
216	231	1
12	13	4
184	188	1
50	68	1
79	82	1
129	130	1
172	175	2
39	46	2
65	118	3
98	119	2
226	229	2
115	115	3
145	145	1
153	153	4
118	140	3
228	231	1
54	69	1
230	230	2
2	23	3
8	11	1
26	27	1
157	177	1
218	231	1
111	111	4
53	64	2
150	151	3
119	138	2
62	74	1
153	154	1
178	178	2
160	176	1
152	152	1
239	239	1
133	141	3
3	86	2
212	212	2
100	129	2
181	193	2
44	61	1
128	132	1
124	134	1
86	86	2
207	207	2
46	50	1
194	199	2
2	2	2
108	126	3
144	144	1
103	104	1
14	14	1
169	170	2
207	214	1
178	193	2
108	117	2
181	182	1
113	125	2
141	144	1
148	158	1
159	192	2
153	157	1
149	155	1
174	179	1
10	27	1
37	43	1
153	155	3
95	173	1
184	185	2
124	125	1
57	59	2
155	168	2
100	103	2
179	182	2
21	26	3
162	164	1
95	174	1
23	38	1
32	35	1
176	186	2
47	47	4
29	47	1
61	74	1
139	139	1
174	207	1
3	14	2
165	175	1
149	170	1
46	52	1
214	228	2
125	126	1
105	106	2
30	42	1
220	234	1
1	6	3
39	45	1
143	143	1
172	174	3
78	79	1
81	85	1
28	28	1
63	70	1
225	239	2
238	240	1
44	44	1
1	13	3
120	120	1
122	143	1
18	41	1
21	21	1
57	60	2
233	233	1
31	32	1
23	50	1
7	7	1
190	195	1
185	186	1
8	117	2
107	117	2
89	127	1
196	213	1
128	143	1
176	180	1
142	217	2
15	17	1
218	221	1
160	160	2
124	129	1
216	227	1
29	30	1
142	155	1
159	159	1
76	76	2
97	121	1
154	157	1
149	149	1
229	229	1
137	153	1
55	55	2
214	215	1
170	198	1
129	132	1
174	174	1
9	10	3
161	164	1
25	25	1
59	71	1
236	237	1
133	133	1
188	211	1
192	193	1
135	151	1
161	167	1
120	121	1
108	145	1
185	203	1
95	109	1
165	165	1
