33	98	4
105	105	11
33	42	3
97	99	3
27	27	9
44	45	7
83	85	6
102	103	4
106	106	6
55	55	7
70	70	8
70	77	4
74	84	3
28	28	10
98	99	3
37	37	5
82	82	10
51	61	3
80	80	7
78	78	6
23	78	1
39	39	10
21	78	5
100	103	2
88	88	4
98	98	13
78	87	6
96	96	7
30	30	3
36	36	7
27	47	1
41	58	2
58	59	2
69	69	8
95	96	3
36	37	4
90	90	5
38	59	2
100	100	10
58	58	9
21	21	2
72	95	2
94	94	12
63	63	2
49	53	1
54	54	7
91	91	4
104	104	9
37	79	2
22	22	7
49	58	3
37	71	4
85	85	4
101	101	8
23	23	4
103	103	9
67	67	9
51	55	2
84	84	4
26	27	7
53	53	4
64	64	2
50	50	13
43	43	6
99	99	7
56	56	4
68	91	2
30	31	2
24	24	8
65	65	5
90	91	2
57	73	1
37	38	1
44	44	8
51	51	9
25	25	4
87	88	4
107	107	5
70	71	1
40	64	1
41	41	2
48	48	7
26	26	8
43	44	3
66	67	4
89	89	9
87	87	10
26	48	2
38	38	6
104	105	1
40	58	2
20	20	1
75	75	4
59	59	4
79	79	3
45	45	3
32	33	3
72	74	1
80	81	5
68	89	2
65	66	4
97	97	6
65	73	2
81	81	3
66	66	2
42	57	1
72	72	2
97	98	2
60	106	1
39	87	2
71	71	9
92	92	4
31	31	2
95	97	3
49	64	3
79	81	8
46	46	5
82	85	3
40	40	9
20	21	3
78	79	4
47	47	4
42	54	3
93	94	2
52	52	3
81	86	2
86	107	2
81	90	4
61	61	3
83	84	1
40	53	2
84	86	1
60	61	4
34	34	7
95	95	5
50	56	2
51	52	4
70	72	2
68	77	2
23	93	4
22	23	2
84	85	2
74	82	1
95	100	1
83	83	2
32	32	2
94	96	1
100	101	1
77	77	8
35	36	2
29	29	4
39	40	2
62	62	4
40	41	2
78	90	1
93	93	2
64	77	1
73	73	3
67	105	1
72	79	1
67	75	2
26	46	1
68	68	5
60	62	2
22	79	1
65	67	3
28	29	2
23	24	2
42	50	3
42	43	1
60	60	5
39	41	1
101	102	1
63	64	2
22	25	2
25	28	1
37	87	1
54	55	2
27	31	1
48	49	1
81	87	1
20	24	2
34	95	1
33	33	7
31	32	2
46	47	1
32	96	1
61	62	2
58	75	1
82	83	2
27	28	1
26	28	2
29	30	1
106	107	1
35	55	1
74	74	1
42	42	1
68	69	1
76	77	2
69	72	1
72	73	1
38	49	1
82	86	1
66	68	1
71	72	1
77	106	1
41	53	1
24	25	1
