101	102	2
55	85	1
24	24	17
62	62	6
30	49	3
36	37	9
67	68	2
35	35	6
37	38	7
53	81	5
40	40	7
89	96	2
22	22	16
94	94	3
59	64	1
54	58	1
51	52	6
58	63	6
31	91	2
59	59	7
22	66	6
25	25	9
59	65	1
44	88	1
81	84	6
84	85	12
31	31	5
73	73	15
63	63	8
35	71	1
52	65	1
79	79	2
50	64	2
68	68	3
55	56	11
90	90	5
46	46	5
27	38	2
100	100	10
99	99	3
55	55	10
21	66	2
74	74	2
50	50	7
48	49	3
96	96	10
21	35	1
43	43	5
22	68	2
24	30	5
60	60	8
29	47	1
101	101	5
64	64	2
89	90	4
62	63	8
33	33	1
92	92	4
78	81	4
102	102	11
89	106	2
58	58	2
76	76	9
68	69	4
43	44	3
77	77	4
27	88	3
66	66	2
37	37	5
49	49	4
35	93	2
38	38	4
46	63	2
35	102	1
105	105	5
80	80	8
85	85	5
23	23	7
20	38	2
82	82	4
22	25	3
88	96	1
60	80	2
59	60	3
26	26	2
29	29	3
52	52	3
27	27	4
96	97	2
74	75	6
41	47	1
47	48	3
20	21	2
37	88	2
48	48	3
98	98	3
38	39	2
61	61	5
47	49	2
56	81	1
42	44	2
39	41	4
21	91	1
69	69	9
95	96	2
83	86	9
51	65	3
95	97	1
54	54	4
59	81	1
48	65	4
56	87	1
72	72	4
61	73	4
41	46	1
21	21	4
60	61	5
47	86	3
84	84	3
55	81	1
70	101	3
54	77	2
39	39	7
87	88	3
102	103	1
44	44	5
43	92	2
71	94	3
27	28	3
20	20	1
85	101	2
54	65	3
83	83	2
95	95	4
33	34	2
74	105	1
75	75	10
34	34	2
58	62	2
103	103	9
47	47	6
79	80	2
78	78	3
24	40	2
44	45	1
51	51	2
81	81	1
45	45	3
55	57	1
38	40	2
70	96	5
25	27	2
60	62	1
71	71	2
95	101	3
97	97	4
98	99	6
36	36	4
99	106	4
78	79	1
89	92	1
57	103	2
67	67	2
65	65	2
91	91	2
90	91	1
80	81	3
49	61	2
53	53	3
42	43	1
34	40	1
57	65	1
42	45	3
93	93	1
25	30	2
52	70	2
88	98	1
51	76	1
81	85	1
93	94	1
36	39	3
50	58	2
41	41	1
79	87	1
58	59	1
57	57	1
104	105	3
84	86	2
48	58	1
47	78	1
56	56	2
87	87	2
82	83	2
65	79	1
22	23	1
86	86	2
72	106	1
96	101	2
31	77	1
32	33	1
88	88	2
45	46	2
28	49	1
32	37	2
96	100	2
42	42	1
28	28	2
57	83	2
32	32	3
55	102	1
66	80	2
30	66	1
53	74	1
74	94	1
58	81	1
57	74	1
94	98	1
54	57	1
