70	71	2
0	3	1
134	134	3
92	92	10
87	87	5
111	111	1
127	133	3
132	132	2
5	6	2
113	113	11
13	36	5
119	120	6
107	107	9
90	90	9
114	114	2
123	124	10
111	117	1
130	132	6
12	12	6
102	102	7
101	101	3
100	101	1
71	71	8
19	20	11
11	118	2
6	60	1
29	29	13
4	4	11
97	110	3
100	100	5
4	5	1
112	112	10
26	27	6
5	5	6
4	79	5
48	48	6
23	24	4
28	28	6
8	8	6
82	82	8
73	73	11
121	121	4
102	129	3
55	55	3
12	13	3
53	53	7
72	72	6
84	85	5
125	125	4
27	28	2
59	59	4
82	83	3
7	8	3
109	109	7
74	74	2
56	56	7
30	30	5
82	84	1
14	14	4
70	70	6
86	86	1
45	45	6
129	129	1
124	125	2
34	34	9
76	76	4
54	54	2
61	61	13
111	112	7
6	50	4
117	118	1
93	93	2
93	96	1
33	34	3
31	32	1
118	118	2
98	98	6
75	75	2
44	44	6
124	124	7
73	74	2
78	78	2
3	4	3
20	20	5
63	63	4
1	2	2
60	60	3
101	110	2
97	101	1
33	33	4
108	108	4
38	38	2
24	24	1
1	1	2
14	15	2
95	96	2
29	33	2
130	130	3
99	99	3
80	80	2
64	65	1
87	109	1
17	45	1
133	133	3
91	91	5
91	92	4
9	11	3
96	96	4
65	65	6
110	111	4
8	9	2
86	108	2
69	70	3
58	59	2
105	106	1
88	88	3
7	7	2
120	120	2
42	50	1
106	106	2
110	110	3
135	135	4
36	36	3
123	123	6
16	19	2
58	58	6
114	115	3
13	13	5
27	27	8
42	42	1
89	89	5
117	117	4
85	85	3
97	97	3
22	22	2
30	111	2
50	50	4
3	3	1
121	122	2
11	11	1
18	20	3
98	120	2
0	0	2
95	95	2
103	103	4
10	10	5
35	36	1
107	113	1
73	75	2
19	23	1
2	2	1
31	31	2
6	61	1
99	100	1
3	5	1
126	127	1
21	21	2
67	67	1
18	18	2
38	44	1
6	6	1
17	17	1
15	16	1
45	46	2
65	66	1
80	96	3
34	35	1
112	116	3
10	11	1
79	79	3
0	43	1
32	32	4
104	104	1
28	30	1
21	22	1
105	105	1
43	44	1
68	70	2
119	119	1
79	81	1
98	99	3
43	50	3
126	126	2
72	73	1
30	31	1
90	97	2
66	66	2
15	15	1
128	132	1
84	84	1
89	116	2
78	79	1
81	82	2
29	116	1
116	116	1
29	30	1
27	33	1
28	110	1
