159	165	4
181	186	5
167	170	2
40	41	9
155	155	12
112	115	2
166	166	6
73	75	3
6	8	2
32	32	2
39	42	3
1	3	2
55	55	11
43	44	3
30	30	17
84	86	3
166	171	1
216	216	1
68	78	3
171	171	8
66	66	6
117	117	1
13	13	3
88	91	1
108	111	2
33	105	3
176	179	3
217	217	4
52	52	5
90	90	7
159	159	5
47	50	3
43	43	2
31	32	1
175	177	1
29	43	1
89	89	5
244	244	2
41	41	8
198	200	2
193	193	4
56	56	2
67	67	11
177	177	10
237	238	5
236	236	5
198	198	10
183	183	4
6	13	3
111	111	15
46	51	2
119	119	1
88	92	3
64	65	8
85	85	8
169	171	15
14	55	2
29	29	10
22	22	8
243	244	7
196	196	9
109	109	5
18	19	3
104	111	2
4	5	4
184	187	2
157	158	8
5	42	2
172	172	10
216	218	2
244	246	2
170	173	3
166	167	13
49	67	3
27	28	6
56	58	8
156	156	4
70	70	13
199	215	4
224	224	6
82	85	2
231	232	2
237	237	12
87	88	8
24	114	4
69	73	1
44	44	4
11	11	6
60	62	3
39	39	5
64	184	3
5	5	7
188	195	1
15	18	1
187	192	2
18	87	3
63	63	4
2	2	9
226	235	3
207	212	1
226	226	3
54	54	8
167	167	2
80	81	4
209	209	5
189	189	4
21	22	1
70	78	1
157	159	2
33	33	10
192	196	3
12	12	4
64	64	7
21	24	3
91	91	1
88	88	13
94	97	5
34	34	2
57	57	12
45	45	10
208	208	19
59	59	11
204	205	6
74	76	3
4	30	5
18	18	5
164	164	2
150	150	3
55	56	8
48	48	3
25	25	4
16	18	2
110	110	2
98	113	3
92	92	10
47	47	6
36	60	3
232	233	2
231	231	7
200	201	3
19	19	3
191	191	2
163	163	2
240	240	9
20	29	2
81	81	4
224	227	2
6	6	2
100	101	7
93	94	2
57	58	4
246	246	2
191	213	4
59	60	3
152	182	4
191	192	6
188	189	4
165	165	8
160	161	4
113	113	10
236	237	3
217	244	2
180	192	3
207	209	4
156	177	3
184	184	7
90	91	5
186	188	4
241	241	9
164	180	2
41	155	4
82	82	9
19	35	1
232	232	6
222	222	2
24	26	7
205	207	2
186	197	1
214	214	3
115	115	5
153	153	4
223	223	3
181	181	2
45	49	2
29	31	2
145	150	3
220	220	3
196	197	1
178	215	1
118	118	9
247	249	5
7	7	3
58	60	1
47	97	3
171	174	5
102	144	1
65	65	2
200	200	6
185	185	8
14	19	1
102	102	9
180	183	2
90	97	1
37	37	4
57	60	5
45	48	5
177	228	1
221	227	2
33	51	7
162	162	3
239	239	4
20	20	3
49	80	2
104	118	2
202	202	5
49	49	5
225	225	1
9	9	6
1	1	3
39	57	4
164	224	1
237	240	1
8	8	3
67	202	3
101	118	7
29	33	2
95	95	6
6	7	6
193	234	2
106	108	1
86	86	5
241	244	4
178	179	3
28	32	1
93	184	1
42	44	1
161	161	4
75	75	2
95	96	5
173	178	1
11	12	3
73	79	1
103	104	4
154	177	4
149	149	1
79	86	6
15	16	3
218	221	1
26	26	4
221	222	1
99	99	6
73	73	8
51	51	5
213	214	4
192	192	3
169	170	7
38	40	2
27	27	16
176	176	3
106	115	2
88	89	2
165	166	2
19	25	2
235	235	2
242	242	3
236	241	3
97	100	2
151	152	1
154	154	3
46	46	4
195	195	3
199	199	2
50	69	1
10	10	4
179	192	3
66	72	4
105	105	1
229	230	4
81	82	1
43	45	4
227	227	3
216	231	2
2	3	1
178	178	3
79	79	5
79	81	2
85	86	4
49	50	4
31	69	1
218	218	6
45	47	2
82	86	5
69	69	11
166	176	3
222	223	6
201	201	2
82	179	2
168	168	4
228	228	2
176	178	3
94	94	3
205	205	4
103	103	4
164	223	3
176	177	7
71	73	1
218	224	1
25	26	3
174	174	3
69	70	3
112	114	5
184	185	5
74	74	6
217	219	1
237	244	2
197	197	3
77	177	2
157	163	2
42	42	3
117	118	2
170	170	4
194	194	1
146	146	2
164	165	1
233	248	1
165	196	4
110	112	3
89	225	1
57	59	1
50	87	2
175	175	1
170	172	1
210	221	3
38	211	2
71	71	3
147	147	3
176	183	6
187	190	2
187	187	3
183	214	6
168	169	2
53	54	1
211	216	2
40	56	2
179	179	1
93	96	1
68	80	2
60	60	1
161	162	3
247	247	2
112	112	4
245	247	2
4	4	2
98	99	2
90	92	1
244	248	3
185	186	8
164	218	1
24	120	1
38	38	4
104	104	3
211	214	2
204	204	4
196	241	2
35	70	2
217	218	2
24	24	4
115	117	2
98	98	10
160	160	1
69	74	3
227	231	2
46	47	3
210	210	6
96	205	2
72	72	2
150	151	1
153	157	1
239	241	3
3	4	2
37	205	2
242	245	2
152	152	3
50	50	5
79	80	4
26	28	2
170	176	3
160	163	5
4	42	1
235	240	3
42	43	2
211	211	2
161	169	4
190	190	1
166	193	2
194	214	1
17	21	3
245	245	2
15	15	4
23	109	1
30	31	1
61	61	5
9	10	5
225	228	2
8	11	1
58	58	3
19	22	4
220	227	1
27	92	2
80	91	1
108	109	1
157	160	1
25	144	3
230	246	3
22	24	1
33	77	2
23	23	1
108	110	1
151	151	1
157	157	1
207	207	5
48	50	1
68	68	1
223	225	2
19	21	2
167	193	1
101	101	1
65	66	1
73	76	3
233	235	1
175	178	1
151	153	2
50	51	1
198	199	2
173	176	1
181	182	3
28	28	3
3	3	3
194	197	1
234	234	1
97	97	1
237	239	1
218	220	2
65	67	1
31	36	1
80	83	1
15	22	1
23	25	3
28	83	1
110	111	1
159	163	2
80	93	2
71	72	1
33	81	1
20	21	1
40	40	1
229	231	1
208	209	6
78	79	1
37	59	1
210	212	1
153	156	3
28	31	2
39	44	2
202	203	1
19	88	1
26	31	1
162	165	2
238	238	2
105	106	1
223	224	3
183	187	1
179	180	1
113	116	1
243	243	1
11	18	1
215	225	1
222	224	1
207	211	1
230	230	1
155	156	1
159	161	1
31	31	1
246	247	1
21	21	1
101	104	1
74	75	2
80	80	1
101	103	2
16	16	1
116	116	2
220	225	2
69	72	1
245	246	1
219	220	1
60	61	2
3	5	1
153	154	1
17	19	2
111	170	1
34	85	1
11	234	1
156	158	1
203	203	2
188	203	3
32	33	2
3	42	1
35	38	1
67	69	2
107	110	1
61	95	1
214	215	1
226	228	1
64	66	1
101	102	1
171	173	1
109	110	1
12	31	1
84	84	1
205	209	1
12	35	2
242	243	1
100	100	1
188	188	1
166	168	2
78	86	1
50	78	1
94	197	1
216	224	1
161	168	1
169	169	1
174	177	1
213	216	1
92	93	1
82	84	1
54	55	1
53	53	1
