11	11	9
41	42	4
84	84	8
59	60	7
30	30	6
41	41	16
52	52	21
198	200	3
240	240	9
115	115	14
237	237	1
10	109	3
236	236	4
157	157	6
96	116	5
201	202	1
111	111	10
233	234	2
81	82	1
37	112	3
49	49	12
163	163	2
56	112	4
222	222	3
212	212	11
46	46	11
33	33	14
234	235	3
36	112	6
145	145	5
144	145	2
121	145	2
83	83	9
235	236	2
218	219	3
86	87	2
199	199	8
195	198	1
63	63	7
230	230	5
191	191	8
227	227	6
99	99	7
81	83	5
52	53	3
220	220	4
181	181	11
155	155	8
14	34	2
34	35	1
1	1	4
179	179	15
154	154	15
88	88	15
172	172	3
90	90	9
81	81	15
203	203	6
243	243	6
221	221	4
4	5	4
242	242	5
171	171	9
3	3	5
8	18	5
61	92	2
200	200	9
28	28	15
175	175	8
185	185	4
6	8	1
85	85	6
161	162	8
56	77	6
156	156	7
49	50	14
214	214	7
245	245	7
32	33	2
56	56	13
58	58	12
110	110	7
96	96	4
19	20	4
166	174	5
74	75	4
211	212	1
92	92	17
55	56	5
230	234	1
12	12	9
236	237	12
44	44	11
247	248	2
171	182	2
4	34	4
85	86	1
192	195	3
152	152	5
213	213	4
69	69	6
204	204	8
54	62	3
10	11	5
29	29	7
106	108	4
229	229	6
235	235	3
19	19	4
104	106	2
241	241	8
153	173	3
246	246	6
174	174	1
94	96	6
166	182	1
51	70	1
232	232	14
39	39	2
44	45	8
188	189	3
119	209	6
177	177	3
170	170	6
42	42	6
238	238	9
113	113	4
167	182	3
73	74	1
36	36	8
201	201	7
31	31	9
65	65	3
98	170	3
112	112	6
170	171	2
157	214	1
117	117	8
6	38	2
103	104	5
155	226	1
5	5	2
32	32	12
76	88	1
57	57	8
59	105	4
40	40	5
87	87	7
22	22	3
155	179	1
180	180	5
109	109	11
23	23	17
64	182	3
161	161	9
75	75	4
107	107	1
16	16	6
216	245	3
61	61	14
60	60	2
240	242	2
225	225	5
180	181	2
186	186	7
27	27	15
170	182	3
50	50	4
160	160	9
247	247	4
92	93	7
91	91	6
68	68	15
153	154	1
55	55	5
231	231	3
88	89	2
9	9	9
48	48	6
245	247	2
218	218	9
228	228	5
41	45	1
67	67	14
35	35	5
91	92	6
173	173	4
176	178	2
6	110	2
221	222	2
20	20	2
26	26	10
226	226	7
71	71	13
70	199	2
199	200	3
37	40	3
244	244	3
218	221	1
119	119	3
197	197	6
43	145	1
77	107	3
204	205	2
54	54	12
169	169	5
155	156	2
98	98	4
239	240	4
168	169	2
178	178	4
164	165	4
151	151	5
94	94	7
63	66	1
64	67	1
65	66	3
207	207	3
64	64	4
162	162	3
71	224	3
15	15	7
192	193	2
62	62	1
202	202	1
101	101	5
223	223	3
66	66	4
210	210	9
21	21	9
187	187	4
168	174	5
72	72	3
59	91	4
38	39	3
2	17	2
189	190	9
154	155	3
219	221	3
198	199	4
54	93	1
28	29	2
230	231	3
4	4	3
116	117	1
245	246	2
44	205	2
118	209	3
6	6	12
43	44	4
190	190	5
165	165	5
175	176	3
182	182	2
164	164	4
61	62	2
118	211	2
153	153	5
180	225	1
157	168	2
195	195	3
18	18	5
152	154	1
183	184	1
6	39	1
72	73	5
56	57	2
160	222	2
7	34	1
2	2	2
244	248	3
10	54	4
152	153	3
158	158	1
79	79	3
75	76	2
37	37	2
100	100	8
70	70	2
48	49	2
96	97	4
217	217	3
41	53	1
242	244	2
114	115	1
181	182	2
227	228	5
110	112	1
38	117	2
17	17	3
173	175	2
159	214	2
87	88	5
102	102	5
176	177	2
186	188	1
7	7	2
14	14	6
2	3	2
47	48	1
146	146	4
90	111	3
203	215	2
85	89	3
51	51	6
7	8	1
197	213	3
55	78	3
160	175	1
33	34	3
5	17	1
188	225	1
79	80	3
168	168	4
193	194	1
103	178	2
156	224	4
160	162	2
73	73	6
202	212	1
206	206	5
205	205	6
162	167	2
166	166	4
19	34	1
47	223	1
248	248	2
150	150	6
93	95	1
73	223	1
86	86	4
76	107	2
232	234	4
80	80	1
194	241	4
77	78	1
207	210	5
47	47	5
95	95	2
48	72	2
154	168	1
74	74	2
161	214	3
115	210	1
90	91	2
190	224	2
99	224	1
45	45	2
194	236	1
216	217	1
76	76	3
74	84	1
55	112	7
13	15	4
27	31	2
24	24	2
37	111	1
110	111	3
31	32	2
116	116	8
233	233	4
174	224	1
63	65	1
62	63	1
190	192	1
82	82	1
193	195	4
93	93	4
18	19	2
223	224	1
159	213	3
8	8	1
34	34	2
12	17	1
211	225	1
38	38	2
70	71	3
205	206	2
84	85	2
20	21	2
46	71	1
10	10	2
216	220	1
232	247	2
200	201	1
53	53	6
216	216	4
190	197	1
40	41	4
219	219	1
56	78	1
247	249	1
165	176	2
234	234	3
19	49	2
100	190	2
14	15	1
224	224	4
64	65	1
9	41	2
43	43	1
244	246	2
161	228	3
93	116	1
202	229	1
186	225	1
242	248	1
192	192	1
145	201	1
32	38	1
22	29	1
193	193	3
105	105	1
102	160	1
223	225	1
21	27	1
117	207	1
163	164	2
77	225	1
118	119	1
208	208	1
18	34	2
10	95	1
190	196	1
99	100	3
48	175	3
43	226	1
225	226	3
26	27	1
16	53	2
150	151	1
196	196	1
147	147	1
241	242	1
159	160	1
100	173	2
8	9	1
187	237	1
57	58	1
111	113	1
1	32	2
56	75	1
10	18	1
166	176	1
89	89	2
0	0	1
3	35	1
163	215	1
171	172	1
59	66	1
203	212	1
83	84	1
162	163	1
203	204	1
204	226	1
210	211	1
116	119	1
101	102	1
25	26	1
212	213	1
