152	165	7
203	204	5
168	168	10
240	240	5
28	28	16
84	84	8
20	29	5
109	109	9
115	116	1
109	111	2
61	62	6
213	213	12
200	201	6
215	215	7
246	246	4
55	55	4
15	42	1
234	246	4
2	2	2
119	119	11
69	69	17
34	81	3
116	116	16
60	60	5
189	189	9
158	158	4
173	173	8
211	211	15
115	115	26
88	89	3
110	110	6
64	64	8
231	231	2
182	182	15
59	100	2
70	112	4
70	162	1
177	177	6
47	47	19
102	102	13
17	17	2
18	18	23
156	156	9
91	91	7
153	153	10
145	145	5
199	200	6
212	212	9
6	6	6
46	46	18
236	236	5
207	215	3
146	167	4
152	152	4
230	230	3
186	186	5
73	74	8
66	66	8
212	215	1
67	69	1
23	114	2
189	222	1
81	81	2
38	38	17
202	202	7
54	54	6
20	20	6
48	49	12
33	34	1
77	77	5
95	95	12
196	197	10
183	183	10
173	174	4
155	155	18
210	210	11
191	191	4
82	93	1
98	107	6
45	46	1
96	96	8
144	145	2
43	43	11
146	147	4
89	89	3
11	21	5
88	88	11
235	235	5
102	103	2
56	226	4
22	22	13
8	8	4
54	68	1
186	189	5
42	42	2
12	55	2
110	117	1
85	86	1
68	80	3
11	60	1
238	238	3
167	167	10
208	209	5
242	242	14
102	186	1
30	55	1
192	192	6
178	178	16
224	224	6
112	112	9
152	174	2
245	245	11
219	219	8
110	111	2
98	98	4
160	201	3
62	170	4
176	176	13
72	74	4
105	106	6
103	103	6
167	174	2
63	63	3
163	165	2
14	15	4
99	100	5
197	197	6
171	171	8
5	5	2
43	116	4
81	84	2
195	195	7
50	50	10
240	241	3
35	35	1
181	181	9
205	205	21
92	111	2
32	33	1
179	179	11
209	210	4
242	243	3
218	218	7
151	151	7
14	14	7
55	93	1
227	230	1
147	147	4
37	94	2
6	7	5
44	44	10
59	59	8
193	193	8
58	58	2
114	114	3
30	30	9
221	222	6
56	57	6
42	43	5
162	162	4
150	150	8
45	45	12
239	241	1
221	221	13
90	90	8
71	89	4
27	27	9
82	82	5
88	152	1
206	206	4
107	108	1
106	106	4
78	78	6
182	212	2
185	185	3
109	112	1
217	217	12
97	97	6
223	239	2
190	248	1
69	71	5
92	98	4
225	225	8
159	163	2
79	79	5
145	162	3
100	100	7
26	26	6
187	187	3
237	241	10
188	188	3
92	92	4
244	244	8
198	199	2
62	62	18
195	196	2
179	201	5
216	216	13
52	53	4
108	198	6
248	248	5
187	218	2
53	54	3
227	227	14
56	56	7
237	237	14
36	36	7
52	52	13
245	246	1
15	58	7
153	154	1
24	24	4
185	199	1
111	111	5
214	214	6
4	35	2
118	118	7
86	86	2
16	16	6
17	112	4
159	159	8
200	200	5
99	99	9
24	110	1
186	242	2
201	201	14
91	92	2
175	198	3
114	115	4
43	49	3
65	65	7
32	32	5
104	104	4
152	153	7
93	94	1
15	15	7
209	228	1
70	70	7
75	153	4
53	53	3
194	194	2
49	49	6
117	120	3
229	229	5
169	191	3
200	229	2
161	161	5
217	222	3
21	28	2
190	191	5
9	9	1
76	91	2
56	245	3
228	230	1
76	76	1
38	39	1
120	120	8
214	217	3
204	204	6
41	53	6
117	117	8
31	31	7
223	223	3
63	64	4
177	178	1
176	185	2
232	232	8
187	216	3
165	165	5
94	229	2
220	220	5
171	180	1
50	64	1
94	94	7
77	78	2
163	163	8
49	50	5
9	10	4
62	193	5
0	1	1
109	113	1
104	106	1
95	158	3
61	61	5
175	177	2
247	247	14
209	209	6
209	218	6
31	33	2
173	199	1
95	199	2
41	42	3
228	228	2
4	49	3
169	183	3
176	177	4
228	229	3
169	169	8
191	195	2
48	48	5
12	12	5
33	33	2
162	239	2
117	118	2
95	107	1
59	60	2
180	182	1
236	240	1
64	65	1
11	11	6
34	62	1
154	154	6
186	192	1
43	44	1
193	196	2
58	99	1
113	114	4
64	92	1
227	235	1
174	174	2
43	51	5
156	160	1
57	57	4
224	237	2
4	34	1
78	87	6
86	87	3
114	116	2
7	7	3
73	73	6
214	215	7
34	57	2
103	104	3
64	67	1
195	198	2
43	47	2
118	119	4
190	190	2
208	208	2
87	88	2
88	113	1
176	182	1
213	214	1
215	216	1
179	180	4
29	55	1
19	19	5
99	108	1
216	217	1
211	212	4
231	233	1
95	169	1
25	32	2
50	51	3
101	101	1
65	120	1
61	64	2
59	89	1
168	169	2
44	45	4
23	23	6
111	112	3
202	231	1
95	96	2
10	10	6
23	110	2
157	158	4
182	183	3
227	231	1
226	226	7
113	113	3
155	156	3
70	74	1
169	182	2
51	59	1
197	200	2
230	235	5
58	76	4
56	60	2
43	168	3
154	172	1
161	165	2
20	23	1
34	85	3
167	187	4
101	103	4
100	197	1
21	21	6
186	187	1
57	230	1
191	217	3
213	222	2
96	97	1
235	236	1
146	146	1
175	185	1
33	145	1
170	225	2
246	247	2
41	41	5
186	225	2
203	203	3
65	66	2
91	93	1
54	208	1
176	204	2
161	178	2
71	72	1
74	76	4
146	159	1
182	207	2
205	226	1
107	107	13
102	114	1
79	107	2
25	25	2
93	93	3
16	55	1
4	4	1
150	162	1
197	198	3
108	109	1
51	51	5
211	233	1
218	242	1
170	170	2
216	219	1
34	34	2
154	155	2
1	1	6
107	158	3
209	232	1
153	166	4
85	85	2
67	67	4
25	110	1
224	225	1
72	72	3
63	66	1
55	57	1
169	170	3
9	32	1
234	240	1
152	173	2
203	206	2
217	221	1
50	60	2
96	104	1
23	24	1
95	198	2
29	29	5
114	117	2
50	55	1
22	23	1
214	243	2
204	205	3
198	198	2
175	175	1
160	194	1
17	19	4
13	14	1
105	109	1
183	184	1
40	41	5
187	188	4
29	30	2
164	164	3
75	77	1
190	192	2
17	21	1
8	206	2
10	16	3
4	42	1
171	172	1
71	71	3
184	209	2
197	224	1
166	240	2
161	164	2
65	81	1
51	81	3
187	225	2
94	231	3
54	55	2
200	212	2
11	58	2
0	0	1
198	200	5
77	149	1
56	99	3
191	220	1
219	229	1
43	48	2
66	120	1
153	204	1
23	155	1
172	172	1
187	189	5
47	242	1
36	37	2
184	185	1
50	58	3
168	192	1
156	200	1
231	232	1
59	202	3
203	228	1
175	200	3
28	72	1
157	159	1
150	151	7
57	203	2
234	234	1
171	199	1
70	71	1
160	169	1
243	243	1
82	83	1
171	213	4
11	12	1
186	236	1
226	227	1
157	157	2
160	160	2
58	59	2
64	248	1
17	18	1
26	27	3
160	202	1
73	144	1
244	245	1
162	240	1
151	178	2
212	217	2
7	42	2
66	67	1
115	120	1
203	205	2
80	80	1
147	164	1
212	235	1
31	32	1
68	68	2
64	245	1
152	176	1
94	96	1
21	91	2
189	190	3
185	186	2
219	226	2
147	159	1
178	182	1
174	177	2
192	210	1
101	102	1
195	221	2
199	209	2
40	40	1
153	167	1
174	175	2
194	196	2
75	76	1
153	172	2
33	37	2
35	46	3
52	62	2
35	87	2
241	241	1
233	233	2
55	152	1
180	180	1
246	248	1
36	229	1
230	231	2
6	8	1
222	222	1
167	168	1
76	77	1
189	225	1
48	61	1
108	209	2
162	164	1
153	207	1
212	243	1
58	212	1
236	239	1
12	168	1
67	70	2
21	22	1
45	47	1
197	226	1
197	209	1
37	37	1
80	82	2
199	199	1
75	156	1
191	247	1
4	5	1
