0	170	3
103	123	3
27	27	4
64	64	6
163	163	8
28	28	8
142	142	5
35	35	4
20	28	2
189	190	1
41	41	6
16	148	4
77	77	9
160	165	3
4	6	3
147	147	5
133	133	8
14	14	3
184	184	11
72	72	13
115	115	3
15	15	4
11	11	5
178	178	5
139	139	9
30	30	10
73	73	7
38	39	1
137	137	2
1	1	8
1	2	6
171	180	3
42	42	10
52	76	2
74	78	2
158	158	3
62	62	7
157	157	5
61	62	2
55	88	1
1	140	5
73	95	1
90	90	4
3	3	2
79	79	1
127	127	2
26	26	7
11	12	6
159	168	3
91	144	3
41	42	1
116	118	1
66	66	13
173	173	5
108	122	1
56	121	2
84	84	7
25	25	5
85	85	4
91	91	6
35	36	6
107	131	3
81	81	7
167	167	3
37	37	9
39	39	7
115	184	2
23	23	9
67	67	11
128	128	2
189	189	4
54	96	1
113	113	7
150	151	1
44	44	7
76	152	2
10	10	3
101	105	3
70	142	2
160	160	5
109	109	4
102	102	2
32	32	10
43	48	2
114	114	6
17	17	2
95	95	12
24	30	3
27	28	2
9	82	1
31	31	7
56	56	1
40	40	8
172	172	3
159	159	5
108	109	2
36	36	2
101	101	8
188	190	6
143	143	3
44	46	2
5	9	2
32	39	1
110	110	5
152	152	8
99	99	5
13	24	2
108	127	1
22	79	3
74	75	1
66	68	2
45	45	2
144	144	1
168	168	2
8	8	5
47	48	1
30	41	1
152	153	3
80	80	8
82	82	2
154	154	2
6	7	2
156	156	2
111	111	11
175	176	8
5	60	1
43	43	1
129	129	3
159	164	7
182	182	9
38	70	1
98	98	3
166	168	1
58	58	4
21	21	1
124	124	6
83	84	5
121	121	1
138	138	6
70	70	9
63	64	2
118	118	2
105	105	1
146	146	5
92	92	4
37	38	2
135	135	5
129	153	1
58	59	2
17	18	1
24	24	3
27	42	5
54	55	1
148	148	3
106	106	1
18	19	2
74	74	5
19	19	3
57	137	2
122	124	1
107	168	1
187	188	3
18	18	1
106	148	2
138	146	1
63	66	2
0	0	13
160	168	1
123	125	1
144	155	3
97	98	4
26	27	1
120	121	2
46	46	3
96	106	2
4	77	1
88	88	2
161	161	5
7	7	5
131	142	3
48	48	11
151	167	3
160	162	1
141	146	3
57	86	4
60	80	1
23	47	1
180	181	4
123	123	4
7	22	3
65	68	5
11	14	2
6	6	7
57	152	1
11	19	1
43	44	2
89	94	1
16	38	6
76	100	1
29	29	4
45	56	1
33	36	1
154	155	2
183	183	2
72	73	2
93	93	3
3	4	1
20	20	5
94	97	3
190	190	2
128	129	4
155	155	3
75	107	3
109	123	2
55	141	2
153	153	5
63	70	3
58	83	3
32	36	2
139	142	1
1	19	2
6	79	1
93	94	3
8	83	1
38	38	4
130	130	2
4	78	1
14	23	2
16	16	1
178	181	1
103	133	2
141	147	1
188	188	5
7	17	1
31	41	3
112	185	3
13	21	3
135	138	3
74	94	2
87	88	2
172	173	1
172	188	1
76	77	1
119	119	5
162	162	6
53	53	5
90	138	1
55	78	4
176	176	5
65	66	2
10	13	1
94	94	1
174	176	3
87	87	1
149	157	2
10	22	4
115	183	4
83	83	3
141	141	2
140	140	3
91	123	3
129	134	5
101	113	3
169	169	4
80	83	2
65	129	1
156	157	3
181	182	1
54	54	3
55	56	3
89	105	1
165	165	2
35	37	3
145	146	1
10	11	2
56	84	2
127	152	1
143	151	1
76	76	1
24	25	1
55	74	2
111	118	1
150	166	1
30	31	1
2	6	1
70	116	1
108	168	1
180	185	1
104	106	2
180	180	1
2	2	3
85	141	2
13	13	6
5	5	3
55	55	1
119	123	1
171	171	4
91	94	3
82	83	1
60	64	2
142	144	2
31	32	1
52	52	2
73	151	2
176	190	3
36	87	3
81	82	1
60	60	1
47	47	4
134	135	1
79	80	1
185	186	3
7	8	2
19	20	1
12	12	3
48	49	1
13	42	1
63	63	2
139	147	2
5	20	2
75	75	1
89	89	3
133	155	1
178	180	1
149	149	1
159	170	4
120	120	1
66	67	3
105	175	2
133	151	1
92	93	2
58	60	1
34	36	2
148	149	1
18	21	2
11	43	1
153	154	1
122	123	2
106	108	2
110	166	2
131	143	1
151	151	3
117	117	6
137	139	1
183	184	3
160	161	4
76	106	1
67	153	1
157	159	3
52	54	1
35	87	1
111	155	1
136	137	2
121	122	3
169	170	1
14	24	2
39	99	1
68	68	2
132	132	2
42	43	1
61	67	1
107	177	1
59	61	1
53	73	1
181	184	2
96	96	8
88	89	1
138	139	1
104	157	1
54	87	1
15	18	1
59	74	2
15	24	4
107	107	2
145	145	1
62	64	1
106	123	1
149	151	4
69	72	1
113	118	1
73	99	1
44	47	1
9	48	1
86	98	1
167	168	2
10	12	2
103	103	2
104	104	1
166	166	1
133	135	1
86	86	1
179	180	1
38	72	1
90	92	1
31	35	1
96	148	1
184	185	1
9	22	2
21	22	1
106	107	1
174	174	3
120	184	1
42	47	1
23	24	1
43	81	1
126	126	1
20	21	1
117	183	1
181	181	1
70	72	4
48	52	2
93	123	1
21	23	1
37	87	1
168	169	1
57	57	1
89	90	1
27	30	1
73	89	2
107	108	1
171	173	1
36	39	1
13	14	1
57	142	2
17	38	1
46	86	1
33	35	1
157	174	1
164	164	1
117	177	1
131	149	1
14	26	1
61	61	1
164	165	1
112	113	1
186	186	1
5	6	1
82	85	1
103	107	1
127	128	1
130	131	1
63	103	1
150	150	1
4	60	1
