102	102	4
186	186	2
85	85	2
181	181	4
115	115	2
59	59	1
107	120	1
133	147	1
105	106	4
179	180	1
26	28	4
23	23	4
29	31	1
12	24	2
120	130	2
14	14	1
38	38	1
150	150	8
29	29	1
77	77	7
86	86	3
83	93	2
82	83	5
82	85	3
104	117	3
167	169	3
36	47	1
112	113	1
182	182	1
165	185	1
147	147	7
100	116	1
27	28	2
126	126	4
6	17	2
99	102	2
101	102	3
7	18	1
15	16	1
165	175	1
20	20	3
142	142	2
17	17	3
53	54	3
122	122	11
189	190	7
66	66	1
20	38	5
74	86	3
48	48	3
135	154	2
113	113	4
188	190	1
37	44	3
157	159	1
90	99	3
56	56	4
64	77	2
185	185	2
130	141	1
116	116	2
173	180	1
157	161	1
168	188	1
102	113	1
88	98	1
100	100	3
0	17	1
178	187	1
22	45	5
143	144	2
39	39	2
43	43	4
80	93	1
156	156	3
181	182	2
20	45	1
160	163	2
156	163	1
128	128	1
151	153	3
115	118	2
84	103	3
108	109	5
54	55	2
131	131	3
77	86	2
72	80	2
80	95	2
141	152	2
84	85	2
99	107	2
56	62	2
2	2	2
166	166	1
154	162	2
139	149	5
25	35	1
95	103	2
89	89	2
127	133	3
163	163	2
149	151	2
161	164	2
97	97	2
119	119	2
118	118	6
18	27	2
167	167	3
188	188	2
140	140	7
96	97	1
95	95	2
158	159	4
183	183	4
143	145	2
130	130	4
148	159	5
52	65	1
66	68	1
93	93	4
54	57	2
20	30	2
102	112	1
102	105	4
67	80	4
141	143	1
155	156	2
145	148	1
105	105	4
174	174	1
44	44	1
168	170	1
170	172	3
146	146	1
5	6	3
3	3	2
138	138	1
74	74	1
96	96	1
143	162	2
103	105	1
72	73	2
42	46	2
137	137	3
21	21	5
142	153	2
17	28	1
166	171	1
12	13	1
110	111	1
145	146	1
136	138	1
35	35	2
12	12	4
174	187	2
49	62	2
110	112	3
25	26	1
178	178	3
34	36	2
138	140	2
86	89	1
147	157	1
121	122	1
6	6	2
32	33	2
140	155	1
132	148	1
153	165	3
147	150	1
0	0	1
25	27	1
58	62	1
146	154	1
181	190	1
14	16	1
136	144	2
42	43	3
131	141	3
161	172	3
24	24	3
95	96	1
171	182	1
42	42	1
103	111	1
2	17	1
46	48	2
74	89	1
183	184	3
164	171	1
45	45	1
44	46	2
63	64	1
11	13	2
139	140	1
64	72	3
27	27	1
9	11	1
173	174	2
111	113	2
81	93	1
18	18	1
15	24	2
90	91	3
144	155	1
91	91	1
133	137	1
136	140	2
5	21	1
61	61	2
71	71	2
127	136	2
189	189	1
134	134	1
157	157	1
24	29	1
65	65	3
72	77	1
112	112	1
54	54	2
78	94	1
68	68	2
118	139	1
97	98	2
56	65	1
183	185	2
127	127	1
102	104	1
131	132	2
173	184	1
25	25	1
35	36	2
98	98	1
172	173	2
163	175	1
141	141	1
55	74	2
59	70	1
176	176	1
88	90	1
146	167	1
125	138	2
151	151	1
121	130	2
123	123	1
136	148	1
139	139	3
161	176	1
62	72	1
52	66	3
88	88	1
10	10	3
11	14	1
3	4	1
165	166	3
26	40	1
23	114	1
163	172	1
103	103	1
77	78	1
150	153	2
70	78	1
160	169	2
37	37	2
114	116	1
134	144	1
47	48	1
65	81	1
167	178	1
