83	84	4
113	113	7
32	33	2
112	112	6
40	86	1
12	42	2
12	12	1
122	122	2
136	136	8
88	98	4
57	96	4
105	131	1
63	92	2
24	46	1
98	98	3
13	35	4
64	64	3
108	108	7
123	123	5
25	34	1
124	126	2
94	98	2
90	90	2
103	115	4
139	142	2
147	147	2
80	120	1
79	79	9
6	6	6
78	116	2
16	16	3
25	35	1
26	30	1
111	111	6
67	67	6
104	120	2
143	143	5
82	92	2
112	114	2
13	13	5
134	134	3
31	31	2
84	105	1
55	85	7
5	36	3
120	120	5
18	18	2
39	39	8
112	116	1
135	135	7
9	43	2
101	101	2
34	35	5
17	32	1
87	87	2
108	112	3
128	152	1
148	148	3
96	97	4
119	122	2
150	150	1
31	33	2
101	109	1
125	126	1
143	146	1
19	36	1
115	115	1
78	83	3
6	44	2
154	154	3
100	111	2
93	93	5
139	141	4
144	144	11
85	85	4
114	114	6
133	133	5
40	40	4
72	86	1
26	27	8
33	37	4
136	137	2
33	34	1
124	125	6
111	112	4
36	37	2
30	30	8
50	75	2
57	57	4
105	122	1
126	145	3
72	72	1
11	11	4
39	49	5
107	108	1
46	47	2
151	151	8
104	104	4
55	55	3
52	73	2
117	117	3
73	73	2
20	20	5
5	22	2
81	105	1
128	128	4
107	107	1
96	96	4
91	91	4
50	74	1
82	82	3
96	98	1
14	46	5
17	18	3
83	83	1
51	86	1
25	38	5
127	144	1
121	143	4
118	118	3
43	56	1
65	66	2
149	149	2
14	22	1
102	122	1
5	5	4
111	141	1
97	97	3
34	36	2
57	95	1
139	139	4
129	152	1
30	38	2
102	102	5
54	119	1
133	139	4
73	85	2
25	25	7
27	30	1
66	67	5
92	92	1
131	131	2
77	77	3
62	67	3
106	111	1
99	99	2
132	132	3
138	140	2
109	110	2
64	79	3
28	28	6
10	10	2
130	140	2
43	43	2
65	78	4
68	86	2
77	116	1
63	63	1
56	56	1
120	129	2
42	45	2
4	39	1
48	49	4
145	145	3
36	36	2
134	137	1
34	34	3
12	15	1
151	152	3
17	21	1
80	146	3
25	39	1
9	9	2
10	45	2
111	118	2
117	142	1
109	109	1
67	79	1
11	44	4
107	148	2
55	73	3
127	150	3
24	24	4
134	135	1
95	95	2
66	68	1
87	99	2
103	123	3
62	63	1
38	38	3
25	36	2
7	23	1
127	145	2
35	35	3
90	106	1
3	7	1
66	66	2
8	9	2
100	100	1
130	131	3
105	106	3
22	57	2
84	84	4
3	12	2
141	141	3
117	143	3
92	99	2
49	49	2
107	138	1
7	8	1
69	72	2
7	46	1
86	87	1
14	36	5
106	118	1
85	119	3
51	72	4
31	34	3
51	73	4
48	53	3
12	43	1
18	32	1
131	135	1
144	146	1
103	122	1
119	119	1
6	23	2
53	53	2
84	86	3
8	8	1
81	85	1
8	10	1
44	44	3
24	26	1
42	42	1
52	52	2
45	45	3
62	62	1
110	118	1
73	74	1
4	4	1
31	32	1
80	81	1
21	21	3
8	45	3
86	86	3
150	151	1
132	133	3
62	94	1
14	14	2
76	76	1
131	137	1
120	122	1
131	132	2
124	128	1
121	121	1
41	41	1
149	150	1
2	43	1
73	86	2
145	147	1
85	105	1
103	121	1
102	103	1
104	127	2
51	51	1
108	141	1
80	114	1
107	139	1
27	27	1
105	105	1
21	57	1
11	45	1
28	29	1
