136	137	1
3	3	6
72	72	5
35	35	5
115	116	6
17	18	9
124	126	3
126	126	3
18	32	1
130	130	6
99	101	2
87	87	3
22	23	4
3	4	2
0	1	4
136	140	2
29	29	4
71	72	2
16	16	3
35	36	1
73	118	2
140	140	2
109	116	1
12	13	3
36	36	7
71	94	2
75	117	1
111	111	3
34	34	7
86	86	8
75	86	1
81	82	6
89	89	3
0	0	3
103	103	3
134	135	1
118	118	8
7	125	2
133	133	3
1	2	1
14	32	2
119	121	3
11	81	3
7	126	5
26	26	7
82	82	3
20	21	1
106	107	1
73	91	1
19	19	3
116	116	2
106	106	4
96	96	5
7	7	2
119	119	5
74	119	1
97	100	4
24	25	1
27	85	1
92	94	2
95	97	1
25	32	2
77	79	1
127	128	1
76	76	2
24	37	1
76	125	6
11	12	1
112	112	1
75	79	3
88	88	4
134	134	4
12	12	5
81	81	2
9	9	6
127	127	3
8	21	2
30	30	2
74	75	2
37	37	7
112	123	1
19	21	1
31	31	5
14	14	1
24	26	1
113	120	2
124	124	1
10	10	3
134	137	3
83	84	4
118	119	3
114	120	1
98	101	2
33	36	5
90	91	3
80	126	2
29	32	2
27	27	1
105	107	1
135	135	3
28	28	1
29	30	4
95	95	2
88	93	6
17	127	3
137	137	6
25	25	1
75	75	1
15	16	4
16	21	3
132	133	2
104	107	2
5	6	2
89	90	1
8	127	4
17	17	2
114	125	1
22	22	2
85	87	1
1	1	3
26	27	2
74	90	2
1	7	1
92	92	2
104	104	1
78	126	2
112	120	1
6	126	1
114	114	2
120	120	5
103	104	1
78	78	2
131	132	4
19	124	1
15	15	1
113	113	5
84	85	2
13	37	1
125	126	1
83	85	7
97	97	1
138	138	2
101	101	3
88	91	2
32	36	1
78	87	2
20	20	1
0	124	1
79	79	1
84	84	1
99	99	1
110	110	2
105	106	1
6	6	2
115	124	1
109	114	1
73	75	2
107	108	2
11	77	1
10	11	1
129	129	1
132	132	1
117	117	1
122	123	1
86	87	2
88	89	2
77	80	1
102	103	1
19	20	2
88	90	1
87	89	1
80	86	1
72	94	4
9	25	2
27	31	1
7	9	1
104	106	2
79	80	1
19	107	1
90	90	1
25	38	1
73	73	1
28	81	1
110	120	1
95	104	1
33	33	1
94	94	1
11	11	2
20	107	1
92	96	1
22	124	1
80	80	1
83	83	1
133	136	1
