54	55	3
131	131	11
33	33	2
116	124	2
147	165	6
168	170	3
87	87	10
97	98	5
26	26	13
110	111	13
139	139	16
56	56	14
89	128	9
135	135	4
145	145	8
103	103	14
99	99	21
79	80	2
162	162	8
163	169	3
141	141	7
10	10	10
93	93	6
125	126	3
1	1	11
120	120	14
167	168	4
107	108	1
100	100	6
22	22	12
9	9	3
1	51	5
113	113	4
151	151	3
37	42	1
41	42	4
47	48	5
111	112	6
134	134	14
6	6	10
159	159	14
52	52	11
33	34	3
86	86	1
118	118	7
53	143	1
17	17	4
25	25	14
150	150	5
34	34	8
99	131	1
101	118	1
123	123	12
129	129	1
47	47	5
102	121	4
79	79	13
105	105	7
155	155	4
98	106	2
144	144	5
38	42	4
35	35	7
88	90	1
27	28	1
44	45	5
12	12	4
146	147	3
148	149	14
153	155	3
102	102	3
148	148	9
150	157	1
56	57	2
126	127	2
83	87	5
149	149	9
2	2	7
24	26	3
43	43	9
90	90	8
14	14	3
38	38	5
163	164	2
19	19	10
21	21	5
12	77	1
134	135	3
101	101	12
136	138	7
65	65	1
27	27	5
126	126	5
109	109	12
95	95	7
92	92	5
18	19	11
84	84	5
73	73	3
56	91	5
56	128	4
6	74	1
13	13	13
111	111	11
82	85	2
62	63	3
53	53	2
4	5	4
89	90	6
117	117	10
18	18	1
37	38	2
147	148	1
45	47	2
143	143	10
68	141	3
101	120	6
83	83	7
83	114	4
106	106	3
11	11	7
158	158	4
113	124	6
53	54	4
154	154	6
152	152	1
130	130	7
100	120	2
138	138	7
157	157	5
10	73	1
157	158	2
111	119	4
164	164	15
163	163	5
119	122	2
67	143	8
158	159	7
74	74	8
114	114	6
6	66	3
145	166	1
121	121	2
61	62	11
134	137	2
113	114	6
75	76	1
108	108	9
116	123	4
4	52	4
156	156	3
8	9	6
169	169	7
125	125	4
81	87	4
96	165	4
137	144	2
166	166	2
131	167	1
108	109	2
114	115	10
136	137	5
106	107	6
88	114	4
140	140	1
3	4	4
162	170	2
124	124	3
85	85	6
73	74	1
142	142	4
36	43	1
47	49	1
5	64	1
40	40	5
42	42	4
20	20	6
98	98	7
38	39	3
115	116	11
154	155	5
13	14	5
88	88	2
55	56	2
16	16	2
4	4	3
100	119	4
159	160	2
96	96	4
20	21	4
153	153	13
122	122	5
81	81	4
39	39	4
64	64	2
25	26	1
119	127	1
57	128	4
100	121	4
132	132	10
104	105	5
65	66	1
49	50	1
15	15	3
77	78	3
51	63	3
88	89	4
119	121	2
136	139	1
87	114	1
15	16	3
7	73	3
70	70	2
56	129	3
93	144	5
97	97	8
131	132	3
112	112	5
66	66	6
69	71	4
116	116	1
118	123	1
137	137	1
129	133	8
112	127	2
54	66	3
80	80	5
160	170	2
24	24	5
4	53	4
46	46	2
160	161	3
36	44	3
1	46	3
123	124	3
22	23	2
99	130	3
133	133	5
42	43	2
69	69	2
3	3	5
161	163	1
147	147	6
56	93	3
139	140	2
89	89	2
136	136	3
67	67	4
156	157	1
19	20	2
51	81	1
142	143	3
150	151	3
110	110	3
137	138	4
145	146	2
113	125	8
5	66	2
54	143	1
6	65	1
132	167	1
1	2	2
17	18	1
163	167	3
37	37	1
21	22	2
100	101	6
151	152	2
160	160	3
107	107	2
44	44	4
155	157	2
51	51	3
154	159	2
57	64	1
50	51	1
12	13	3
2	88	1
80	86	3
74	75	1
131	134	2
103	104	1
128	130	2
16	17	2
128	128	1
14	15	1
119	120	2
43	44	3
5	6	3
3	135	1
5	53	1
91	91	2
36	36	5
153	158	2
21	24	2
5	67	1
145	147	1
76	76	3
52	54	1
92	125	3
138	139	1
48	48	3
161	162	1
128	129	3
154	158	3
28	28	4
72	72	6
34	35	2
147	164	1
52	56	1
157	164	1
14	17	2
66	67	3
18	84	2
24	25	1
98	99	1
5	5	1
109	110	2
57	57	2
78	79	2
95	96	2
132	134	2
48	50	1
131	166	3
106	155	1
35	36	1
54	54	2
115	115	1
121	122	1
167	167	1
110	131	1
144	145	2
2	46	1
41	41	2
1	88	2
48	76	1
19	21	2
58	58	1
111	123	1
105	106	1
86	87	2
2	52	1
127	127	1
16	22	1
77	77	1
10	11	1
111	133	1
1	52	1
75	75	1
7	7	1
123	131	1
45	45	1
49	57	1
