31	32	3
136	137	9
70	70	10
56	63	3
47	47	8
48	62	7
15	15	9
1	3	4
129	129	2
36	130	2
11	32	2
68	68	6
30	30	1
71	71	7
13	13	8
14	17	3
102	103	3
2	2	6
12	12	2
14	15	2
104	105	3
143	144	1
41	42	3
40	40	10
99	100	3
15	16	5
138	138	4
53	53	6
37	37	11
140	140	1
59	59	10
73	73	18
58	59	3
50	58	3
87	87	6
64	136	4
83	83	14
64	64	5
110	110	8
26	29	3
6	27	2
42	42	20
60	61	2
128	128	11
132	134	5
98	99	2
101	101	7
57	80	6
21	21	3
92	94	5
4	4	3
47	49	2
8	9	6
122	122	8
93	135	2
65	65	4
75	75	11
36	36	7
24	25	9
29	29	11
91	114	3
22	56	6
91	92	2
119	120	2
48	48	8
123	123	5
43	139	4
1	53	3
91	91	12
32	32	7
102	102	4
130	130	8
98	103	1
99	99	4
9	9	5
31	31	9
120	120	2
92	92	11
48	49	3
0	35	2
119	119	5
105	105	9
86	139	1
49	51	5
81	81	3
72	72	10
23	23	4
95	96	2
94	94	11
66	67	1
20	135	1
17	17	9
22	23	4
105	107	3
24	24	8
131	131	14
70	76	3
8	8	5
97	97	4
2	3	4
137	138	11
84	119	5
80	80	4
114	114	4
43	43	1
108	108	7
26	26	8
60	60	10
112	113	4
50	50	1
23	24	2
141	141	5
90	90	7
35	35	3
49	50	3
109	109	3
6	26	3
128	130	7
125	125	4
9	11	2
53	57	3
16	16	7
57	57	1
28	52	4
138	140	2
14	14	2
38	38	3
86	86	2
79	79	6
95	104	4
5	5	9
132	139	5
22	22	8
26	27	4
77	102	5
133	133	3
136	136	8
139	139	3
126	127	4
134	134	4
27	27	8
40	80	3
117	117	3
37	53	2
75	82	6
100	102	2
132	132	6
40	79	2
11	11	4
135	135	3
84	85	6
115	115	3
113	114	3
54	54	5
142	144	3
64	128	1
116	116	6
20	20	4
92	102	1
15	19	2
98	98	6
88	104	2
63	135	3
59	61	3
8	53	2
119	121	4
19	19	6
16	25	4
111	112	3
89	90	2
20	21	4
107	107	7
96	96	4
63	136	2
89	89	5
3	4	3
96	108	1
34	35	6
108	109	3
104	106	1
84	140	1
121	121	5
132	135	1
94	121	1
28	28	6
71	72	1
137	137	6
142	142	4
87	88	1
81	82	3
14	19	2
132	136	1
39	40	3
117	125	2
107	108	1
33	138	1
33	112	1
53	59	2
106	106	4
127	127	3
10	10	1
41	41	3
10	141	2
131	135	3
29	30	2
1	35	1
15	17	2
109	110	5
82	82	3
49	49	4
65	66	7
25	25	8
118	130	2
93	94	3
126	126	1
39	39	1
82	116	2
143	143	5
56	57	2
67	67	9
80	135	2
38	141	1
32	33	1
64	65	2
52	56	1
71	73	1
131	138	1
4	16	3
56	80	1
120	137	3
1	1	1
16	20	1
37	38	2
93	93	2
16	21	1
85	85	3
90	112	1
58	61	2
8	11	4
108	116	1
95	95	3
51	52	1
92	135	1
58	58	3
25	28	1
66	127	1
145	145	2
113	113	5
18	19	3
117	145	2
117	142	1
124	124	4
121	126	3
94	98	2
136	140	2
56	56	1
62	64	1
62	62	3
25	26	3
77	78	2
1	2	4
19	130	5
40	134	4
118	120	3
85	120	5
140	141	1
57	64	1
14	23	3
51	51	6
3	54	2
78	79	2
26	28	4
118	119	1
144	144	1
2	13	2
122	127	2
74	74	2
96	101	1
6	6	3
40	43	2
53	54	2
92	121	1
52	53	1
118	118	3
30	140	1
120	136	2
133	134	1
27	55	2
96	100	2
141	142	1
24	26	2
74	81	1
57	67	2
30	32	1
124	125	1
96	106	1
85	140	2
42	49	2
76	76	1
53	55	1
18	65	1
83	84	1
0	0	1
63	63	1
52	52	4
135	146	2
31	35	1
58	79	1
112	112	3
121	123	2
30	42	2
33	33	2
129	130	4
117	129	1
21	133	1
105	106	1
24	27	2
84	84	2
34	34	1
28	29	2
66	66	1
1	18	1
60	79	1
18	18	3
133	138	1
36	37	2
100	100	2
23	64	1
111	111	1
82	117	1
113	118	1
86	87	1
79	80	1
61	78	1
92	93	1
69	69	1
115	116	2
104	104	1
22	66	1
142	143	1
35	36	1
118	137	1
33	37	1
80	134	1
