126	127	1
29	29	7
146	146	3
107	108	1
221	223	8
201	201	4
116	117	3
133	133	3
154	155	3
74	77	3
26	26	20
4	7	4
187	193	1
172	173	6
204	205	1
122	123	1
136	136	4
168	168	7
206	206	4
219	219	4
156	157	5
222	224	4
45	46	7
181	181	4
138	141	1
10	10	5
135	135	5
234	234	5
165	165	1
107	107	8
3	32	6
73	73	10
197	203	4
71	72	5
36	37	7
235	235	6
231	237	2
145	145	5
32	37	2
37	38	3
41	67	3
111	112	2
27	27	4
226	227	2
4	6	9
54	55	1
32	32	1
180	183	3
169	169	5
164	164	4
72	73	2
48	48	8
25	25	2
144	145	3
230	230	4
114	114	3
79	79	1
142	142	4
15	15	2
221	222	7
236	237	3
6	6	8
140	140	9
20	212	1
171	171	6
48	49	4
24	24	4
106	109	2
13	13	5
72	72	1
100	100	2
192	192	5
57	57	5
18	19	1
123	125	2
167	167	1
227	227	7
223	223	3
51	51	1
213	213	5
194	196	5
146	149	3
157	157	6
209	209	6
88	88	6
2	5	3
30	30	2
43	44	1
85	85	3
224	225	4
171	202	3
242	242	3
27	30	7
78	79	2
172	172	3
17	17	4
74	74	3
123	123	6
66	68	1
103	103	2
153	153	3
86	86	5
186	186	13
7	18	2
205	207	3
21	21	4
153	164	3
181	191	3
129	129	11
69	69	2
155	155	5
162	162	2
7	8	3
0	25	2
160	164	3
218	218	5
82	83	7
89	108	2
52	53	6
2	2	10
104	104	3
222	225	1
46	46	2
84	85	2
5	5	2
134	135	2
63	63	3
237	238	1
139	139	6
31	31	4
208	208	2
208	209	1
95	95	6
121	122	2
210	210	10
178	178	3
103	104	1
162	163	4
4	4	1
160	165	4
197	197	5
42	42	4
128	128	2
12	12	3
203	203	3
224	224	4
194	195	6
18	18	10
70	70	6
35	40	3
193	194	2
161	165	2
45	45	4
190	190	4
41	41	6
83	83	3
43	43	3
199	199	10
117	117	3
27	28	3
233	233	3
105	124	1
84	84	6
112	113	1
235	237	1
97	97	3
197	200	1
121	121	8
199	215	1
133	137	1
212	213	2
211	212	3
139	140	4
191	191	6
32	33	5
114	115	7
78	84	1
220	223	2
70	71	3
238	238	2
235	242	1
11	11	4
235	236	2
170	170	3
39	39	1
70	73	3
206	209	3
168	196	1
204	204	6
77	77	3
49	49	1
98	98	3
195	195	2
125	125	2
216	216	5
2	22	1
50	50	1
6	19	5
193	193	4
138	138	3
126	126	7
7	9	4
156	156	5
192	198	1
215	216	4
99	99	3
113	113	3
188	188	2
229	229	1
226	226	3
231	231	1
116	116	5
53	143	2
232	232	1
237	237	2
130	130	3
220	221	1
228	228	5
55	56	1
140	158	3
143	143	5
6	7	3
194	194	1
203	204	4
143	146	2
148	148	2
90	91	2
212	212	3
196	196	3
75	75	2
187	187	3
223	224	2
3	3	3
152	153	1
200	202	1
133	134	2
179	179	1
103	105	1
10	44	1
1	1	2
47	47	2
172	219	3
123	124	3
173	173	3
28	30	2
74	86	1
42	43	2
143	144	4
6	11	1
119	120	1
1	38	1
20	20	3
53	53	1
239	239	1
239	241	2
35	36	1
234	242	1
77	134	2
207	207	3
145	147	2
168	169	2
21	22	4
174	174	6
100	101	1
75	102	2
81	81	1
189	192	1
164	170	2
25	26	3
80	81	2
106	106	1
177	177	4
76	76	3
7	7	1
192	200	2
22	22	1
66	67	2
216	217	1
35	37	1
55	55	4
154	210	2
52	79	1
224	231	2
140	154	1
119	119	2
122	124	2
180	180	1
158	158	3
65	65	2
226	229	2
240	240	1
108	108	1
135	144	1
4	5	1
202	217	1
239	240	2
37	37	1
50	52	1
122	122	5
51	52	2
80	80	2
0	0	1
161	161	1
143	145	4
22	32	1
63	65	1
163	163	2
30	31	1
149	152	2
29	30	2
82	84	1
198	199	1
157	158	1
213	214	1
222	222	2
160	161	2
211	218	2
112	121	3
128	130	3
66	66	2
158	162	1
166	167	2
61	63	1
59	59	1
175	175	1
192	195	2
205	206	1
109	109	1
136	145	1
202	203	1
113	115	3
136	146	1
118	122	1
8	8	1
129	130	1
152	152	2
23	23	2
38	38	2
57	59	1
75	103	2
151	151	1
66	69	1
64	65	1
121	125	1
142	154	1
110	131	1
81	83	1
59	69	2
167	168	1
106	122	2
54	148	1
65	66	2
234	238	2
120	120	1
77	78	1
102	120	1
17	208	1
109	127	1
108	131	1
42	69	1
76	148	1
142	155	1
118	119	1
164	165	1
36	36	1
149	149	1
160	160	1
104	105	1
118	118	1
177	178	2
127	127	1
35	35	1
216	221	1
204	208	1
56	142	1
