47	47	34
23	30	7
59	59	29
53	54	4
85	85	13
52	83	8
20	20	23
101	101	18
23	24	8
74	74	13
60	60	19
89	89	14
20	22	2
71	71	23
79	79	30
66	66	16
39	39	34
80	80	9
31	31	25
61	62	12
51	51	23
40	40	18
91	101	5
65	65	8
84	85	15
35	35	17
45	45	18
84	84	24
21	21	10
91	91	20
51	89	5
24	24	20
35	104	6
39	86	1
98	98	12
83	85	7
52	89	3
52	64	2
23	23	13
102	102	28
72	72	12
36	37	1
26	27	8
94	94	23
92	92	15
44	44	11
64	78	6
22	22	41
75	75	20
86	86	25
96	96	23
49	49	9
88	88	13
59	61	7
62	62	19
57	57	19
48	48	18
71	74	6
54	91	2
38	38	18
58	58	17
76	77	3
56	56	14
35	57	3
27	27	14
32	33	2
103	103	7
93	93	15
24	26	1
41	41	12
52	53	7
34	72	3
90	90	27
100	100	20
82	82	20
71	72	9
69	69	30
85	86	13
64	76	1
55	55	12
93	94	8
87	88	10
41	43	1
78	78	15
49	52	5
95	95	20
40	41	11
105	105	15
60	61	5
70	70	20
64	64	18
100	101	5
22	23	15
104	104	6
46	46	12
94	98	4
68	68	15
46	47	4
43	44	17
97	97	7
24	46	4
28	54	3
29	30	15
59	62	10
88	89	4
63	63	8
42	58	2
21	22	5
51	82	7
90	91	7
51	73	7
26	26	21
64	65	5
53	53	30
92	95	3
67	76	7
68	100	7
96	97	4
29	29	10
43	43	23
82	84	6
61	61	22
91	100	3
76	76	16
59	60	4
33	34	2
81	81	15
33	33	8
54	55	4
79	80	7
93	104	5
67	102	2
82	83	8
83	83	9
36	78	7
91	92	6
65	66	7
93	95	2
106	106	12
99	99	21
89	90	7
54	54	19
39	81	4
70	71	3
24	43	8
50	51	3
30	31	3
34	44	4
68	69	5
34	34	23
80	81	4
30	30	23
67	67	17
36	42	2
87	98	3
53	84	4
25	46	6
24	55	3
53	58	3
20	21	5
38	63	3
24	25	1
25	26	6
37	37	5
66	67	5
37	38	3
22	33	1
49	50	5
87	87	10
52	87	1
37	62	2
31	32	7
43	45	6
58	59	6
38	39	12
77	77	18
48	88	3
25	25	10
32	32	16
28	28	4
73	74	1
37	57	4
101	102	8
42	42	5
64	89	1
66	74	1
86	87	2
71	98	1
92	94	2
73	73	15
77	78	2
22	24	4
94	95	3
74	75	4
34	73	3
83	84	2
50	50	21
45	46	3
42	43	9
65	78	1
28	29	3
65	77	2
64	102	2
51	88	2
41	42	2
52	52	10
72	99	6
33	70	3
61	63	3
23	26	4
64	66	1
27	54	3
79	98	2
66	78	10
45	92	1
38	40	2
30	32	3
36	36	17
69	70	8
102	103	5
56	57	3
70	74	3
37	81	1
94	101	3
84	86	1
79	100	2
63	64	5
79	106	2
46	74	2
105	106	2
88	90	3
29	46	3
51	52	5
100	105	2
25	28	3
104	105	5
27	85	6
106	107	3
37	80	4
55	56	6
55	57	3
34	35	3
35	42	2
60	85	3
66	68	3
81	84	4
37	39	2
107	107	1
49	87	2
22	98	1
25	57	4
31	33	1
83	86	2
68	76	1
57	62	2
98	104	1
24	90	1
74	77	1
70	72	3
65	69	1
94	97	4
96	98	1
54	56	1
24	30	4
50	85	2
92	96	2
46	49	1
94	99	5
71	73	4
27	44	1
51	71	2
60	62	2
50	84	2
30	49	2
68	78	2
69	74	2
23	72	1
98	99	2
81	82	1
99	101	1
27	62	5
96	101	1
97	98	1
74	103	1
47	87	2
65	68	3
44	45	2
84	87	2
103	104	3
42	48	1
50	81	2
26	28	3
40	43	2
45	88	3
73	78	2
100	102	3
81	106	3
42	45	1
47	48	2
39	40	3
66	77	1
46	88	1
27	29	2
70	99	2
27	57	1
64	77	2
27	28	2
42	57	2
79	81	1
95	96	2
92	93	1
65	67	1
39	64	1
48	86	1
62	63	1
50	82	1
27	56	1
48	49	1
58	62	1
68	75	1
46	57	1
66	75	1
30	35	1
75	103	1
52	88	1
52	54	1
28	47	1
