75	75	2
110	111	2
83	83	5
90	103	1
47	47	1
10	25	4
104	104	2
37	37	2
70	78	2
114	114	1
113	113	3
58	69	1
73	73	5
59	59	8
84	84	5
126	135	3
13	26	1
118	119	3
103	103	2
31	31	8
120	131	3
66	66	7
121	134	3
92	92	7
94	97	4
98	98	3
128	128	2
1	6	1
119	128	2
110	110	3
57	61	3
94	94	1
71	72	2
25	28	5
68	97	2
125	126	1
76	76	3
69	75	1
108	122	3
88	90	1
54	64	2
91	91	7
30	30	3
36	36	3
129	129	1
108	120	1
125	125	2
57	65	2
87	90	3
120	121	1
127	133	1
4	12	8
5	6	5
113	125	1
23	24	1
64	64	1
63	69	1
30	33	3
113	121	2
126	126	2
73	75	3
31	32	1
103	115	3
90	102	3
85	85	3
50	50	2
70	70	1
115	129	1
12	19	1
25	25	1
105	123	2
77	77	3
38	38	4
4	15	1
121	121	1
48	55	1
68	86	1
52	52	1
67	67	2
11	11	5
122	123	3
79	84	1
109	117	2
119	129	2
60	61	2
107	118	1
97	99	2
8	8	1
63	72	1
120	133	2
112	112	2
66	78	1
10	10	3
134	134	3
108	108	2
91	92	3
84	85	2
127	128	2
6	16	1
50	61	1
89	103	4
53	59	3
94	108	1
127	127	2
52	55	2
1	5	2
47	50	2
109	121	1
22	28	2
62	72	4
53	53	4
11	23	3
75	87	1
60	84	1
60	72	2
96	102	1
23	25	1
31	33	1
43	62	1
90	90	3
12	13	1
1	1	1
65	65	2
101	118	1
24	50	2
11	24	1
55	56	3
106	106	2
19	19	1
79	82	5
88	102	1
122	122	2
66	74	1
12	12	1
95	95	2
120	130	2
72	74	1
96	97	1
123	123	1
49	49	2
78	82	2
2	8	2
8	12	1
25	31	1
60	74	1
93	121	1
44	45	3
44	44	1
30	31	3
9	13	1
81	82	1
79	79	1
3	3	1
19	29	1
0	7	1
115	128	1
98	108	1
113	131	2
132	132	1
34	43	1
32	33	1
71	71	2
102	103	2
128	129	2
13	24	1
113	123	1
28	28	1
51	52	1
95	106	1
13	15	1
105	105	2
66	77	2
1	16	1
45	52	1
6	6	1
67	74	1
7	7	1
61	70	1
60	70	1
8	10	1
57	57	1
74	74	1
22	22	1
118	118	2
