42	42	5
100	101	2
27	27	6
13	44	3
11	19	1
112	148	4
39	46	4
124	124	7
91	99	2
164	164	4
76	120	2
122	123	3
76	78	5
18	18	2
46	57	2
159	159	4
70	136	2
69	142	2
110	110	5
40	40	11
74	74	8
115	115	5
5	37	4
110	112	3
129	129	7
16	16	6
11	20	1
54	54	10
76	84	1
102	113	3
44	44	11
107	133	2
17	18	3
76	76	1
160	169	4
89	90	5
163	163	6
80	161	4
43	43	6
17	17	4
87	87	13
3	52	3
157	157	1
53	53	5
91	91	5
57	98	3
155	155	9
123	123	12
72	127	2
14	14	10
112	112	7
2	3	4
131	131	5
132	133	1
45	47	4
143	144	2
162	162	9
142	169	2
22	23	4
5	38	3
93	94	6
74	101	3
113	113	2
75	75	11
126	128	2
100	100	11
78	78	3
108	108	2
86	87	7
159	168	1
15	15	7
13	39	1
94	94	5
35	35	6
157	159	2
136	136	5
48	48	4
6	7	4
160	170	2
129	133	5
66	70	2
107	149	2
155	166	3
152	152	4
158	158	7
74	76	6
76	79	3
80	81	3
12	13	3
162	164	1
83	83	9
139	141	2
50	50	5
126	126	3
13	13	8
85	85	2
4	39	1
38	38	7
155	158	2
108	162	3
13	14	4
160	160	7
21	21	3
48	56	1
86	86	6
11	36	1
6	119	1
138	138	6
90	91	6
113	116	2
94	95	4
0	1	2
11	12	1
57	76	4
137	141	2
68	68	3
63	150	3
67	67	4
119	120	2
126	127	1
39	51	2
47	47	1
121	135	2
57	58	1
122	124	2
169	170	4
14	44	4
107	107	9
71	129	3
123	124	1
90	129	1
39	47	1
133	133	5
72	72	6
92	92	5
84	84	1
125	125	2
46	84	2
166	166	5
76	119	1
12	12	4
114	116	3
85	87	4
99	99	2
102	102	3
134	134	6
101	102	2
165	165	1
71	126	1
5	48	1
130	130	3
103	103	5
105	105	11
137	137	6
132	132	4
7	119	2
95	95	3
11	11	4
142	144	5
56	56	2
56	141	6
144	144	4
119	119	4
93	93	2
52	52	2
166	167	3
97	97	8
120	147	3
36	36	7
109	157	2
129	150	1
44	45	2
114	114	1
26	26	6
6	6	2
6	50	1
24	24	2
55	70	1
42	52	2
141	141	3
37	37	2
120	130	2
24	25	4
82	84	3
69	70	2
154	154	2
10	11	2
145	146	2
107	108	1
77	99	2
39	39	8
106	162	1
120	133	2
157	158	3
133	134	1
98	98	3
35	37	3
91	93	1
19	20	1
78	79	1
11	44	1
5	6	3
82	166	1
77	85	1
13	159	1
68	70	2
109	109	2
2	7	3
113	142	1
148	148	5
127	127	2
164	165	1
69	69	4
55	55	3
19	19	2
71	71	3
18	44	3
70	70	5
81	82	6
79	164	5
116	117	1
48	49	2
68	80	1
1	1	2
2	2	1
137	168	2
41	42	1
51	85	3
130	153	1
110	166	1
89	89	4
161	162	1
170	170	1
99	105	1
132	135	3
101	101	6
14	16	1
108	111	5
116	116	1
153	153	1
49	53	2
122	122	1
23	23	3
62	63	2
122	159	1
115	168	1
53	56	1
8	8	2
137	144	2
57	57	3
111	111	2
7	7	1
109	110	1
3	42	6
118	121	1
120	120	3
96	96	3
128	133	1
4	50	1
57	85	2
90	90	1
88	90	1
76	77	1
112	114	2
108	159	1
33	34	1
35	138	1
77	117	2
140	140	2
34	34	3
135	135	2
14	15	2
3	3	5
121	149	1
4	5	2
79	79	2
72	129	1
13	17	2
1	2	4
161	161	6
118	119	1
9	9	3
145	145	2
3	7	2
143	143	1
20	20	1
42	53	1
46	80	1
49	49	2
65	133	1
77	98	1
161	163	1
65	66	1
68	69	1
64	64	1
51	51	1
148	168	1
25	25	6
158	159	1
117	118	1
86	90	4
112	149	1
98	104	1
112	145	1
5	136	1
66	74	2
167	167	2
4	4	2
92	95	1
84	105	1
71	72	1
18	52	1
68	119	1
155	156	1
135	136	2
85	86	1
49	55	1
50	86	2
151	151	1
1	43	1
115	127	1
119	135	1
82	114	1
66	137	2
8	11	1
126	134	1
13	40	1
63	63	3
83	107	1
118	131	2
34	42	1
44	46	2
111	146	1
137	138	1
85	96	2
168	168	1
143	149	1
5	5	1
52	53	1
109	151	1
139	152	1
93	120	1
153	154	1
122	135	1
152	153	1
14	40	1
58	58	1
1	46	1
81	81	1
