39	49	3
96	97	2
26	27	3
48	48	5
105	105	1
72	72	2
11	11	7
69	69	3
6	6	4
88	91	2
8	9	4
51	51	1
142	142	1
107	108	5
97	97	10
134	135	3
84	84	1
17	112	2
39	41	1
9	9	6
5	25	4
149	149	8
36	36	3
73	73	7
124	124	3
19	19	4
13	110	3
3	3	3
74	79	1
17	19	1
138	138	2
117	117	5
107	109	1
42	42	3
3	57	4
53	53	8
19	20	2
31	31	3
39	39	4
115	117	3
4	5	3
69	79	2
50	50	5
83	83	4
118	118	9
112	112	9
110	110	2
109	110	5
130	130	3
37	37	1
54	111	1
17	17	4
18	110	5
92	93	3
80	80	4
132	132	3
69	70	3
76	76	5
116	116	1
16	16	6
45	45	2
80	82	7
12	13	4
148	148	3
57	57	3
108	109	1
84	86	1
107	114	6
7	7	2
35	35	6
75	75	3
127	127	4
88	116	2
83	84	1
78	78	1
153	153	9
63	63	3
29	29	7
66	67	1
136	138	1
150	150	1
23	23	6
104	104	4
85	107	4
129	129	2
137	145	2
107	107	6
25	25	3
67	67	4
28	28	3
8	8	4
138	144	4
13	13	7
70	70	1
2	2	2
154	154	9
117	118	2
27	27	3
95	95	2
126	139	1
143	143	2
123	123	1
94	94	7
144	144	1
67	107	1
115	115	3
128	129	1
68	68	5
10	11	1
111	113	3
29	116	1
69	78	1
43	44	2
81	82	2
96	135	2
38	38	3
133	133	1
100	125	4
106	107	3
38	39	1
30	30	1
108	108	2
11	14	1
128	128	1
66	113	2
44	44	8
55	57	2
140	141	2
73	79	1
46	47	7
111	111	3
40	102	3
99	99	2
13	14	3
113	113	7
88	88	3
120	120	3
144	145	1
106	114	2
71	72	2
50	115	1
52	52	1
22	23	1
68	69	2
12	12	3
136	136	1
122	122	5
56	56	1
115	118	1
22	22	4
133	144	1
134	134	1
80	81	2
96	96	2
43	43	4
29	63	1
15	16	1
43	45	1
144	147	2
50	52	1
131	132	1
102	102	3
135	136	1
54	55	1
17	18	1
71	71	1
147	147	1
145	145	3
137	137	1
110	112	1
114	115	1
85	85	1
15	15	2
106	106	1
18	18	1
20	23	1
81	81	2
66	78	1
29	105	2
40	40	2
64	64	2
94	96	1
54	64	1
65	86	3
28	116	1
40	41	2
152	152	1
84	85	1
146	146	1
109	109	2
38	49	1
40	119	1
100	100	1
65	65	2
21	22	1
29	115	1
40	45	1
