77	77	8
127	127	10
131	131	5
19	19	6
155	155	4
183	184	3
6	8	3
112	112	3
182	182	7
22	28	2
58	58	11
159	159	5
34	34	3
119	119	2
120	120	4
79	80	1
58	59	7
100	100	7
171	171	4
101	103	2
174	174	6
56	58	4
53	53	9
90	90	5
64	64	5
62	62	4
122	123	1
196	196	4
142	171	3
180	180	2
80	81	2
140	140	5
24	25	7
149	149	4
163	164	4
124	124	3
160	160	6
69	69	7
46	46	9
118	118	1
97	97	7
141	141	9
74	85	1
184	184	6
157	157	5
86	86	3
164	164	5
193	194	3
70	70	12
193	193	1
58	83	4
132	132	6
103	103	3
122	122	8
120	121	2
104	139	4
41	41	13
188	188	7
27	29	3
146	146	7
165	166	6
16	17	7
104	106	1
20	20	1
28	28	10
61	61	6
32	32	11
30	72	2
89	89	4
138	138	7
8	9	1
142	142	10
99	99	5
57	57	13
66	66	2
35	59	1
136	136	12
72	72	14
102	103	8
98	160	2
187	187	4
13	13	6
40	40	5
176	179	2
50	51	7
24	61	6
176	176	7
126	126	10
169	169	8
147	165	4
38	38	14
181	181	8
114	114	12
6	6	4
57	83	5
54	69	6
47	47	12
168	168	9
133	178	1
28	29	2
169	170	3
140	149	3
152	152	10
34	35	5
55	55	13
52	52	4
37	145	2
50	50	8
16	42	3
39	39	5
175	175	4
36	36	3
51	51	4
9	10	2
144	144	4
6	7	4
58	79	2
154	160	5
32	156	2
187	188	12
130	131	3
18	20	4
15	15	3
146	165	1
104	114	2
82	82	2
30	30	5
45	45	2
139	139	6
2	3	5
124	133	1
145	145	6
71	72	2
4	5	5
150	150	14
39	40	8
101	101	5
73	73	3
31	31	5
194	194	7
177	177	1
43	43	7
48	48	4
108	108	7
54	54	4
151	151	3
33	33	4
99	100	2
170	170	5
167	167	4
44	44	3
113	113	8
44	45	4
95	95	6
74	74	2
39	49	1
117	117	5
9	9	6
14	16	4
98	98	9
105	106	6
63	63	6
87	87	6
68	94	1
4	4	3
24	24	3
121	147	1
150	158	2
42	42	4
0	86	1
70	71	1
96	96	4
88	88	5
172	172	3
49	49	15
59	59	7
133	134	4
18	19	3
141	142	2
174	187	5
4	12	3
5	7	3
191	192	4
141	172	3
18	18	5
125	133	2
104	105	6
133	133	5
38	108	1
22	22	3
110	110	5
111	111	6
28	30	1
116	116	3
5	9	3
76	77	3
113	115	2
115	115	2
2	2	3
185	185	2
195	196	1
12	12	6
124	125	6
22	86	5
71	71	2
153	154	5
137	137	7
1	1	2
112	113	3
123	186	2
64	65	1
128	128	5
21	21	4
121	121	10
65	65	3
170	171	1
105	107	2
171	172	1
76	76	12
102	104	1
161	161	2
158	158	6
192	193	6
99	168	2
124	184	2
159	165	1
132	133	3
106	106	2
93	94	2
10	10	3
175	187	5
86	87	1
140	150	1
0	9	3
54	70	1
147	147	1
101	102	2
37	38	2
178	178	4
40	41	4
179	189	1
79	90	2
133	179	3
116	117	3
94	96	2
167	168	4
53	54	1
68	68	2
75	75	4
127	128	1
60	61	3
195	195	3
138	172	3
147	148	1
16	16	4
197	197	4
191	191	1
30	71	3
148	149	4
166	166	2
31	32	1
190	191	1
110	136	2
135	136	3
16	18	3
190	190	5
0	89	1
125	125	2
104	104	7
143	143	1
37	37	7
55	57	2
67	67	2
1	9	1
46	123	2
81	81	5
165	165	4
83	84	2
50	52	2
14	20	1
154	154	1
156	156	2
145	148	1
52	54	2
171	194	1
37	58	1
26	26	2
26	27	2
189	189	6
173	173	2
174	188	2
79	79	4
114	115	1
186	186	1
84	85	3
96	168	2
102	115	1
8	10	3
148	148	2
180	182	1
55	73	1
0	0	3
140	141	1
30	31	2
149	165	1
164	165	1
119	120	1
134	134	1
69	70	1
61	62	1
3	3	2
101	115	1
183	183	2
134	137	1
22	23	2
179	182	2
127	129	1
110	111	4
109	109	2
5	10	2
162	162	2
60	60	2
8	8	1
168	170	1
48	125	1
163	165	3
81	82	1
38	39	4
56	56	2
150	151	2
179	180	2
155	169	1
65	69	1
46	124	1
158	173	1
11	24	1
7	7	1
20	145	1
93	93	1
35	35	1
163	163	1
146	147	1
179	179	2
36	145	1
192	192	1
185	187	1
17	32	1
79	89	1
5	89	1
47	48	4
49	50	3
27	27	1
0	1	1
2	89	2
67	68	1
89	90	1
137	171	1
89	123	1
59	61	1
134	135	1
23	23	1
32	33	1
31	71	1
129	129	1
78	78	1
153	153	1
39	108	1
181	191	1
37	169	1
133	138	1
83	83	1
141	149	1
173	186	1
18	25	1
36	102	1
107	167	1
39	42	1
