8	13	6
9	32	3
16	16	13
27	27	15
31	32	5
103	103	5
104	105	3
92	93	8
7	7	5
97	97	8
17	17	10
91	100	7
97	98	9
19	19	7
37	38	2
34	34	8
99	99	9
22	22	6
35	35	6
123	123	7
105	106	2
2	3	2
136	136	11
89	99	4
100	100	9
5	5	23
95	95	7
73	74	5
32	32	10
84	84	4
6	6	5
21	26	6
117	118	2
108	108	13
28	28	4
25	38	2
92	92	7
114	115	1
125	125	11
10	11	4
126	126	6
27	28	7
114	114	5
2	131	1
31	31	14
102	102	10
91	101	3
19	21	1
101	116	3
138	138	9
18	21	5
29	30	1
128	128	8
72	109	4
101	103	7
83	83	6
88	88	11
77	77	9
119	119	9
71	71	8
110	110	7
8	115	2
85	85	8
93	118	3
8	10	3
139	139	3
89	91	2
33	35	1
30	30	4
33	33	13
129	129	7
117	117	7
88	121	2
72	72	3
25	25	5
37	129	1
14	14	3
0	0	11
17	18	2
122	122	1
9	127	4
107	107	4
21	21	9
36	36	9
99	100	2
132	133	1
97	99	2
87	87	11
37	37	8
106	106	6
107	108	3
75	108	5
22	23	6
33	34	3
79	79	5
118	118	4
111	121	1
13	13	9
76	76	7
134	134	5
98	98	6
83	84	3
11	11	3
36	131	1
109	109	12
75	75	10
3	3	3
26	26	2
18	114	6
82	82	2
133	133	12
137	137	3
140	140	4
23	128	4
86	86	12
27	33	2
130	131	5
14	15	1
132	132	2
77	78	3
126	127	3
111	111	3
120	120	3
73	73	7
135	135	10
21	27	5
22	129	4
20	20	4
110	111	1
80	80	1
124	124	6
20	114	1
98	99	1
136	138	3
101	101	8
113	113	4
12	14	2
30	32	3
89	89	7
77	93	1
100	101	3
95	96	1
3	4	2
22	25	1
92	100	2
27	30	2
109	112	3
94	94	13
125	126	2
1	1	2
128	129	1
72	116	3
133	134	3
38	38	5
23	23	2
116	117	2
2	2	4
1	5	3
38	129	1
91	91	2
104	106	2
24	24	2
96	96	9
13	14	2
0	5	2
131	131	3
12	12	3
123	124	1
90	91	3
3	35	3
112	114	2
22	26	1
18	20	1
120	122	2
28	29	2
86	97	1
18	18	5
117	119	1
13	15	2
74	102	1
121	121	1
137	138	1
76	77	1
127	127	2
11	29	3
104	104	4
116	116	4
4	4	3
74	101	2
122	123	1
74	74	4
78	79	2
108	109	1
22	24	2
11	12	1
11	32	1
130	130	1
72	115	1
95	97	1
15	15	1
18	19	1
127	129	1
87	97	1
26	27	1
86	87	1
138	139	2
