5	5	10
58	84	6
96	96	12
95	96	3
83	83	10
107	107	11
75	76	7
25	25	13
8	8	6
102	102	18
2	2	13
70	70	8
114	116	3
74	74	14
53	53	20
117	118	4
30	30	9
86	88	1
120	120	9
73	74	4
106	106	7
9	9	13
62	62	18
94	133	2
10	10	8
56	56	20
58	78	3
71	71	10
52	52	20
25	26	7
24	29	1
29	29	5
81	96	5
64	64	9
11	11	24
69	69	17
12	12	8
94	94	9
10	11	3
95	125	3
8	95	7
77	77	10
105	106	10
3	3	10
48	48	14
33	33	17
78	78	21
130	130	16
42	42	10
25	28	6
76	76	12
44	60	5
83	97	2
98	99	4
19	19	14
84	84	13
43	44	11
70	93	5
65	67	3
82	98	1
13	13	9
9	12	3
72	72	16
61	61	15
89	90	4
94	96	3
107	108	2
69	94	3
16	16	8
66	66	26
8	94	1
104	104	11
82	84	7
3	6	2
39	40	8
94	95	13
4	4	14
109	110	5
87	88	8
82	82	11
13	14	10
91	93	2
40	40	11
78	101	3
103	111	7
85	85	17
101	101	2
7	7	15
74	79	3
46	46	9
98	98	13
18	19	9
112	112	10
130	131	10
131	131	9
44	83	3
31	32	14
44	44	18
20	20	15
80	82	1
58	58	11
59	60	4
47	47	20
126	131	5
24	24	6
9	10	7
28	34	2
17	38	3
92	92	21
50	50	19
29	39	3
81	82	7
114	114	5
20	34	1
67	67	39
2	7	6
111	111	17
129	129	9
99	99	18
19	28	2
23	24	8
73	73	21
41	41	9
27	27	27
116	117	6
115	116	9
5	6	3
81	81	8
54	54	11
126	126	13
87	87	6
97	97	8
47	48	2
77	99	1
43	43	8
6	6	25
90	90	8
110	110	8
76	88	1
66	67	3
65	65	19
72	93	6
96	101	2
72	88	4
57	57	24
79	79	10
108	108	8
42	43	7
113	114	8
17	17	5
88	88	9
62	63	3
103	104	2
59	62	2
56	96	1
16	17	6
96	97	10
105	105	13
83	84	12
18	32	2
61	62	6
75	75	11
7	133	1
95	95	6
51	51	6
14	14	3
59	59	13
85	86	7
126	130	5
127	130	4
116	116	14
45	45	4
29	30	11
73	92	7
60	62	1
71	77	5
127	128	1
69	103	9
49	49	6
91	91	16
1	1	11
83	99	3
41	42	8
58	79	2
50	51	9
119	119	14
120	121	1
121	121	6
20	21	9
4	5	5
37	40	1
55	55	7
45	46	4
122	122	9
58	60	2
90	91	9
17	18	3
24	33	7
52	53	4
39	39	8
114	115	4
103	127	1
51	52	8
15	15	5
63	64	8
45	47	4
71	102	4
72	74	10
97	99	5
18	18	5
32	32	14
58	59	8
128	128	11
125	125	8
78	97	3
97	98	4
20	22	1
86	86	9
2	4	2
94	101	3
111	112	7
113	113	2
70	103	2
56	101	1
8	12	2
26	26	9
74	75	7
62	100	2
55	129	3
91	92	4
15	20	1
11	12	9
31	31	10
124	124	14
7	53	3
28	28	15
81	84	5
59	61	5
0	0	10
70	73	9
23	23	16
100	100	5
23	25	3
68	68	5
80	80	10
68	69	8
132	132	5
1	2	5
75	99	2
79	100	1
24	28	5
79	80	4
123	123	6
99	100	4
3	5	10
66	101	1
41	44	1
2	3	3
108	109	5
94	131	5
42	44	1
104	131	3
109	109	10
43	45	4
22	23	4
38	38	6
117	117	11
102	103	4
99	101	2
66	68	5
85	87	7
109	122	2
63	63	3
22	28	1
67	68	8
103	103	2
3	105	4
101	102	3
0	1	4
115	115	15
9	11	1
125	126	5
14	15	4
105	122	1
43	85	4
126	127	1
18	25	5
67	101	5
40	42	3
89	89	9
133	133	4
16	47	2
57	65	1
84	85	8
64	65	5
110	126	1
32	33	9
125	130	1
73	89	1
56	57	2
72	73	2
93	94	4
78	80	9
125	131	2
3	4	5
77	78	3
80	96	2
62	68	3
8	9	1
71	103	2
93	93	8
25	29	2
127	127	9
78	79	7
42	51	1
69	102	5
88	89	1
106	108	1
107	132	2
10	43	2
89	92	2
68	77	1
54	56	1
63	65	1
114	117	1
15	19	1
32	39	2
83	86	1
70	71	7
124	125	2
40	41	1
112	113	2
30	33	2
118	118	5
65	68	1
19	20	1
76	78	1
18	30	1
71	74	1
91	94	1
81	97	3
24	25	1
2	133	1
34	34	5
82	97	1
46	47	1
121	122	4
69	71	2
85	99	4
76	99	1
122	123	1
60	60	3
59	99	1
26	27	4
9	96	3
15	16	5
104	106	2
10	100	1
33	34	1
48	49	1
72	75	2
70	72	2
128	129	2
76	98	1
104	130	1
27	29	3
100	101	2
77	100	3
22	22	2
88	93	1
55	70	1
28	33	1
55	56	1
108	126	2
43	51	1
74	88	1
54	110	1
108	130	1
23	27	2
69	101	1
94	125	1
105	130	1
104	105	3
86	87	3
57	96	1
68	101	1
108	132	1
12	14	1
88	91	1
72	91	1
54	131	1
54	69	1
3	74	2
54	130	2
66	102	1
129	131	1
88	90	1
76	97	2
27	28	1
11	14	1
106	107	3
74	77	2
38	40	1
76	77	1
125	127	2
21	22	1
80	81	1
44	45	1
10	98	1
84	98	1
8	14	2
115	117	2
104	111	1
118	119	1
60	100	1
111	114	1
12	13	1
42	45	1
