40	40	15
21	49	2
127	136	1
113	113	16
146	152	2
100	100	9
65	65	7
107	107	17
6	6	9
149	149	12
44	44	5
144	145	5
7	7	5
85	85	12
23	23	11
56	56	4
57	72	4
110	137	5
64	64	4
104	105	6
94	94	6
41	48	4
147	148	8
102	104	2
23	30	2
32	32	11
136	136	13
7	10	3
118	118	6
132	154	3
127	127	9
37	37	5
34	34	4
16	16	14
76	79	5
129	129	7
139	145	7
149	153	3
68	68	14
47	47	5
19	19	7
13	14	4
4	5	2
95	96	3
3	4	5
118	136	3
43	43	10
98	98	4
29	29	16
50	70	2
104	104	10
82	82	9
132	142	4
33	65	1
39	39	5
99	100	3
96	96	2
12	12	13
80	81	3
51	65	2
42	42	2
55	56	4
53	53	6
62	62	12
24	24	7
69	69	10
18	23	4
56	71	4
135	135	10
78	78	17
142	142	6
136	154	1
42	43	9
130	130	10
105	107	3
124	126	5
151	151	5
28	28	6
118	122	2
11	12	3
28	29	4
111	118	1
13	13	10
27	28	3
84	84	21
12	14	1
55	57	3
97	97	8
63	63	12
42	49	1
145	146	3
145	145	5
18	25	1
92	92	1
139	140	3
41	47	3
132	132	3
103	103	10
8	9	8
110	140	3
66	66	7
107	128	3
11	18	2
83	83	4
116	121	2
18	19	7
46	46	6
33	33	5
15	15	7
133	133	11
110	110	2
98	99	1
43	48	2
131	152	1
73	73	1
54	56	1
110	111	5
11	11	7
128	128	2
148	153	1
70	71	6
124	124	5
65	92	5
5	9	1
3	3	10
25	26	2
120	122	4
152	152	5
2	2	2
100	101	5
118	134	1
67	67	7
128	142	1
38	38	2
35	38	1
83	84	2
45	46	1
137	137	4
126	126	12
124	125	3
130	151	2
147	147	3
127	138	2
117	117	1
139	141	2
86	94	2
21	21	11
10	10	18
18	18	4
36	36	2
114	114	4
72	72	2
64	65	1
106	108	2
8	8	9
153	153	7
43	44	4
22	25	3
12	13	1
144	146	9
69	71	4
71	71	2
50	51	3
131	131	7
4	36	3
122	122	7
20	21	2
8	39	2
112	140	1
108	108	4
22	22	3
112	113	1
71	73	1
5	5	6
127	142	1
144	154	2
83	103	3
41	49	4
82	83	4
76	76	10
96	97	1
115	115	3
30	32	2
51	51	2
73	88	2
5	36	2
116	116	2
103	115	3
6	7	3
132	133	4
111	111	8
87	89	1
113	114	7
66	69	4
106	106	3
105	116	3
31	31	2
116	120	1
53	72	1
144	144	2
34	35	1
44	45	1
81	81	7
27	27	4
33	35	2
54	54	7
10	11	4
13	145	2
33	34	1
67	71	3
72	73	4
17	17	8
74	88	3
79	92	1
148	148	5
10	13	6
150	150	2
153	154	1
139	144	3
30	31	5
98	105	2
120	120	8
122	125	1
43	45	2
29	85	3
73	74	3
74	74	4
64	77	3
140	141	4
106	121	2
94	96	1
6	37	2
26	101	1
52	94	1
141	141	1
112	132	1
80	87	1
109	119	1
136	137	1
109	109	4
128	138	1
129	130	3
36	38	6
50	52	2
88	88	2
54	55	2
93	93	3
26	26	3
69	70	2
58	58	6
81	82	3
110	120	3
87	87	9
25	25	1
105	105	2
50	67	1
108	109	6
4	4	8
17	18	1
78	92	2
75	75	5
80	85	1
101	101	4
118	139	3
80	80	2
9	11	1
31	38	1
13	144	4
146	147	2
126	127	2
20	29	1
20	20	4
132	153	1
125	125	1
22	23	8
32	65	1
62	63	2
50	50	1
77	77	1
15	16	6
103	113	2
82	102	3
79	79	2
102	103	1
138	139	1
111	123	2
143	148	2
30	30	2
21	27	1
48	51	1
42	56	1
3	36	1
9	13	3
26	29	1
20	26	1
79	80	2
63	64	1
58	66	1
93	94	1
26	27	3
106	120	2
76	77	2
145	150	1
14	15	2
22	30	2
143	143	1
110	126	2
64	87	3
63	67	1
139	142	3
55	55	2
111	126	1
66	67	4
119	119	1
103	104	1
78	79	2
149	151	1
35	35	3
48	48	4
95	95	1
14	14	1
138	138	3
73	98	1
32	34	1
16	146	1
80	84	1
142	143	1
123	123	2
3	23	1
15	143	4
154	154	1
134	134	1
146	146	2
9	19	3
90	95	1
109	121	1
87	98	2
35	50	1
112	112	1
84	85	2
7	37	1
111	140	1
53	54	1
129	152	1
86	93	1
130	138	1
103	111	1
45	45	1
123	134	1
125	126	1
70	70	2
3	49	1
35	36	3
99	99	1
6	12	1
5	7	1
40	41	3
92	93	1
99	105	1
145	148	1
75	91	1
35	37	1
119	120	1
109	120	1
25	127	2
102	102	1
64	107	2
115	117	1
42	52	1
38	39	1
8	10	1
80	86	1
139	139	1
