16	17	1
29	31	2
32	32	18
88	88	1
173	235	3
236	236	7
67	67	7
166	166	9
37	37	13
198	198	10
241	241	6
16	24	2
199	201	2
0	22	9
35	35	7
238	239	2
27	27	12
212	212	3
220	220	13
85	182	1
190	190	4
80	80	10
144	149	2
198	199	4
120	120	8
59	59	4
203	203	9
159	160	2
50	51	2
139	163	1
156	157	1
226	226	8
5	5	9
184	184	9
7	11	8
128	129	4
20	20	2
114	114	5
34	34	5
45	45	8
210	211	4
169	169	8
137	143	2
46	46	8
168	168	8
140	140	6
225	225	4
70	70	1
180	180	14
211	211	1
18	19	3
242	242	10
22	23	2
205	206	4
78	79	2
47	47	8
126	126	5
75	75	7
207	209	2
186	186	6
201	203	1
106	106	4
50	50	12
237	239	5
32	33	5
188	190	2
231	231	7
201	201	3
205	205	2
82	84	3
69	69	20
125	125	4
64	64	16
48	48	6
38	38	11
127	127	5
7	8	9
85	85	8
45	47	3
127	161	4
65	65	11
235	236	6
17	17	5
170	171	2
3	5	2
19	19	10
64	65	3
86	86	8
216	216	7
110	112	1
230	230	4
3	43	3
28	29	5
46	48	3
178	178	7
159	161	5
179	214	1
57	57	5
76	80	4
237	237	6
6	6	9
200	200	3
207	208	4
109	109	4
215	215	2
233	233	13
197	197	12
136	136	8
40	152	5
111	111	6
53	53	4
191	191	9
74	74	8
235	235	1
48	49	2
158	158	9
151	152	2
149	151	2
193	199	3
227	227	16
188	188	2
204	204	7
70	71	3
44	44	2
136	143	2
139	140	5
49	50	3
62	191	2
202	213	2
128	128	12
16	16	3
205	207	6
24	24	4
124	127	7
71	71	7
223	223	9
240	241	1
97	97	5
218	219	2
200	204	4
11	12	1
8	9	3
60	129	1
4	22	5
125	161	2
30	181	1
173	174	1
175	175	6
207	207	9
32	239	7
202	202	11
26	232	2
165	169	2
12	12	3
7	9	1
180	191	1
219	219	7
190	191	5
217	218	4
232	232	12
137	162	5
102	102	2
170	170	16
123	123	2
38	39	4
162	162	4
43	43	11
145	170	1
61	129	5
23	57	1
61	61	8
159	159	2
210	210	11
185	185	6
60	61	3
224	224	3
63	63	5
174	174	7
60	150	5
193	193	4
32	183	5
217	226	3
165	165	2
213	213	5
32	42	1
176	216	1
30	30	4
184	187	1
195	195	7
61	62	3
218	218	5
62	62	6
230	231	1
221	222	7
81	81	5
103	104	5
1	3	2
179	180	1
98	98	6
221	221	3
45	203	3
157	157	6
58	58	5
10	10	7
116	116	5
25	26	1
60	60	1
120	121	3
25	25	7
241	242	1
191	192	2
210	216	1
33	184	2
36	36	1
137	139	5
185	186	4
123	128	3
179	179	5
96	102	2
45	46	5
189	189	3
142	142	5
199	200	2
211	216	1
11	11	3
212	213	1
29	29	5
71	72	2
181	181	3
237	241	2
228	229	4
71	86	2
198	201	3
134	134	11
127	128	4
150	151	2
239	239	6
66	66	4
155	155	8
135	135	8
76	114	1
135	136	1
155	156	5
9	9	10
156	159	1
39	58	1
214	215	3
167	167	3
160	160	4
189	190	2
121	156	4
146	146	4
18	18	1
147	147	2
138	162	4
121	121	3
217	217	7
122	123	2
122	122	3
15	16	1
193	201	5
1	22	2
59	152	1
176	176	2
79	80	3
142	162	1
163	164	2
103	153	2
182	182	2
222	222	4
202	203	4
26	26	7
131	132	3
197	198	1
0	18	5
19	20	1
71	88	1
15	15	3
2	2	4
76	79	3
140	160	1
3	3	6
124	124	2
11	54	1
68	68	7
84	84	2
22	22	3
161	161	5
51	53	1
220	222	1
215	216	2
78	78	5
124	161	2
182	183	3
62	113	1
173	173	4
23	23	3
153	155	1
199	199	2
150	150	2
112	112	1
229	231	1
152	152	3
226	227	1
149	149	1
172	172	3
192	193	8
79	79	3
73	73	3
196	199	1
151	151	1
40	40	5
107	108	3
3	4	1
21	21	7
177	177	4
13	14	2
95	101	1
19	36	1
51	51	4
17	56	1
40	41	4
192	194	4
103	103	2
145	146	1
20	44	3
208	208	5
171	172	1
162	163	1
100	100	4
12	14	2
163	163	4
123	125	1
8	54	1
42	42	6
104	104	2
77	119	1
66	69	1
101	101	1
33	33	1
228	230	2
144	145	7
4	4	2
187	187	1
233	234	2
32	184	1
114	120	2
122	158	4
82	86	2
209	217	4
183	183	11
224	225	1
0	15	1
136	162	5
143	143	2
103	105	1
61	63	1
89	89	1
1	1	1
108	108	1
238	238	3
167	170	3
130	131	1
137	137	2
14	15	1
9	10	3
110	110	1
12	30	2
35	39	3
55	55	3
238	241	1
75	76	1
113	115	4
41	41	1
175	176	1
174	179	1
192	192	3
2	34	2
234	234	5
63	120	1
72	72	1
3	6	2
137	163	3
15	23	2
144	147	1
18	20	1
125	137	3
2	41	3
13	31	1
236	239	4
63	114	1
234	237	1
99	99	5
32	236	1
178	179	1
56	57	3
236	237	1
200	201	4
174	180	2
13	33	1
174	175	1
133	134	2
202	216	3
113	113	3
117	134	1
118	118	1
8	55	2
14	14	3
167	190	2
0	13	1
92	92	1
234	235	1
65	116	2
229	230	1
214	214	2
115	117	1
181	182	2
4	5	3
100	101	3
176	177	1
22	56	1
101	102	2
73	74	1
7	56	2
144	144	2
34	35	1
133	133	2
172	173	3
33	41	1
189	191	1
100	242	1
99	106	1
105	105	1
3	15	1
7	52	1
37	38	1
88	89	1
34	58	1
149	150	1
67	69	1
37	104	2
155	158	1
8	8	2
116	117	1
1	23	1
64	133	1
242	243	1
91	91	2
111	112	1
138	159	1
78	99	1
39	39	1
77	77	1
1	5	1
71	89	1
139	164	1
61	152	1
108	109	1
115	116	1
156	156	1
24	44	1
206	206	1
9	24	1
148	148	1
138	138	1
167	195	1
195	196	1
172	187	1
