114	115	2
127	128	3
72	72	11
15	15	4
56	56	7
40	40	1
43	43	7
74	74	11
123	123	5
111	111	2
86	86	2
120	121	1
61	62	7
99	127	4
91	98	4
85	110	2
118	118	7
53	53	6
23	23	7
55	55	8
78	79	6
6	6	11
40	67	3
117	121	3
20	20	2
110	110	5
28	30	5
78	81	4
68	68	3
102	103	6
77	131	1
63	63	2
98	98	11
39	116	10
119	119	7
41	41	4
66	66	4
27	84	6
90	90	8
66	67	1
85	114	3
18	18	2
97	97	5
42	42	7
70	70	1
67	72	1
31	31	7
72	73	3
83	83	6
92	93	1
100	103	2
107	108	4
113	113	7
95	95	14
75	75	2
87	110	4
14	14	5
120	120	9
1	39	5
38	38	4
57	57	11
64	65	1
14	15	5
82	82	3
100	101	4
84	111	5
61	61	6
43	65	6
92	92	6
44	44	2
49	49	2
104	104	6
45	52	7
122	123	1
105	105	9
7	12	2
12	12	3
29	29	3
1	2	3
128	128	3
21	21	2
13	13	2
15	17	2
5	32	1
58	58	5
17	20	2
3	63	2
2	2	13
80	80	1
109	109	9
27	27	4
122	122	9
107	107	3
25	26	1
46	72	3
42	66	3
117	117	4
106	106	3
110	111	3
28	28	4
54	123	4
22	25	2
5	5	6
94	94	3
93	93	3
86	110	1
96	98	3
16	16	7
131	131	1
72	111	2
126	132	3
0	1	3
4	4	1
32	32	5
0	57	5
125	131	2
51	52	4
89	97	1
125	125	4
64	64	6
121	121	7
19	57	1
73	73	3
52	64	4
14	91	3
91	91	5
97	98	1
48	48	3
62	70	2
77	77	1
1	113	2
101	101	4
54	54	2
22	22	1
86	88	4
0	94	1
118	119	2
63	65	2
60	67	2
25	27	1
24	27	2
37	40	4
121	122	2
117	118	1
107	109	5
19	19	7
79	83	2
86	87	3
115	115	5
85	85	1
74	99	3
26	26	3
87	87	2
127	127	4
46	46	3
126	126	6
106	107	1
9	9	6
76	78	2
3	3	4
41	43	2
105	106	2
69	69	1
125	129	3
53	63	5
13	25	4
50	50	2
104	105	6
95	114	1
103	103	3
88	88	3
0	54	3
124	124	1
47	73	2
102	102	4
70	92	2
79	79	1
58	93	1
88	110	2
99	114	3
50	53	1
3	70	1
47	47	5
79	81	3
63	64	3
50	52	2
65	65	1
78	88	1
45	45	3
5	6	1
89	89	5
7	92	1
125	130	1
60	60	3
100	127	1
68	71	1
112	112	5
13	14	1
108	108	2
10	11	4
85	89	2
8	8	4
75	90	4
61	68	2
84	110	2
53	67	1
95	117	3
123	124	2
15	92	2
19	28	1
41	64	1
51	51	1
45	47	1
83	125	1
19	80	1
78	84	1
38	39	1
84	84	3
62	62	1
54	114	1
130	130	3
5	10	2
126	128	3
18	28	1
17	17	1
22	24	1
59	59	1
69	70	3
17	19	3
60	61	1
53	116	3
98	125	2
10	10	2
105	108	1
77	127	1
55	56	1
80	81	1
133	133	2
93	94	1
46	53	1
82	91	1
11	11	2
101	128	1
115	116	1
103	127	2
29	30	2
56	57	1
5	7	3
76	76	1
78	78	1
30	30	1
18	29	1
6	9	1
39	39	1
