99	100	3
38	38	4
78	78	12
85	85	3
104	104	10
87	89	2
76	94	3
90	90	11
23	23	7
78	80	2
63	64	3
87	108	3
31	31	9
32	32	13
61	64	3
57	57	10
24	106	5
89	90	3
53	53	16
30	78	2
76	76	2
64	66	4
32	86	2
20	20	6
27	27	7
94	97	3
108	108	8
40	40	10
28	101	9
40	41	8
72	72	11
77	82	3
54	54	11
43	46	2
95	98	2
87	107	1
21	21	6
87	87	1
59	59	3
28	73	1
81	82	1
111	111	13
67	67	7
25	27	4
96	97	4
77	77	5
93	94	2
106	106	6
109	109	7
55	55	9
102	102	11
33	34	3
93	93	13
61	92	4
80	80	9
31	107	2
28	28	16
36	36	6
71	71	2
35	36	4
92	92	1
81	81	6
98	98	5
39	40	6
46	46	15
58	59	5
100	100	10
53	54	5
65	66	4
36	37	7
23	105	3
48	48	15
96	96	9
27	89	1
22	22	7
35	35	6
88	91	2
27	28	4
105	105	4
68	68	8
38	39	3
69	70	2
30	30	5
34	84	4
82	83	2
47	47	8
26	26	3
78	79	4
45	45	5
22	23	4
29	29	11
35	37	4
23	91	10
55	60	3
32	98	1
31	86	10
43	49	4
45	112	2
26	28	6
51	51	5
70	70	3
60	60	7
61	61	2
107	107	4
27	30	2
74	74	4
65	65	2
112	112	1
77	105	2
29	103	3
94	94	3
115	115	1
61	62	3
25	73	4
66	66	2
53	56	2
21	73	3
73	95	2
50	50	3
61	69	2
36	103	8
60	68	4
86	101	3
56	57	2
44	44	4
76	79	1
100	101	1
54	55	2
20	48	2
95	95	4
42	42	7
26	27	3
102	103	2
42	45	5
54	92	3
75	75	6
36	40	1
45	46	4
22	25	4
32	33	4
76	107	2
37	37	6
24	98	2
22	57	2
113	113	6
50	72	1
63	63	2
52	52	3
82	82	4
110	111	1
106	107	3
90	91	5
30	107	8
58	58	4
99	99	4
83	84	3
79	79	5
75	92	3
63	65	1
41	41	2
77	81	2
34	34	7
69	69	7
70	71	5
45	113	1
48	49	11
33	33	1
42	44	3
32	84	1
44	45	1
49	50	1
46	47	2
72	73	2
87	103	2
59	60	2
109	111	7
54	72	1
51	52	2
110	110	1
97	97	4
77	98	2
43	43	3
62	63	3
82	85	2
81	98	2
24	24	3
77	78	2
76	77	1
86	86	4
67	95	1
19	19	1
28	89	1
105	106	1
28	31	2
89	89	4
76	78	1
68	69	2
27	103	1
30	31	2
88	88	3
114	114	1
66	68	2
39	103	4
83	83	5
29	30	1
35	84	2
26	109	1
23	24	3
55	59	1
67	68	1
20	21	1
84	84	2
74	94	1
73	74	2
39	39	1
103	104	1
103	103	1
96	98	1
29	100	1
76	98	3
28	29	1
73	73	2
94	95	1
62	62	1
