44	46	2
42	126	1
182	183	4
141	142	2
102	102	5
178	178	8
133	133	13
123	123	5
20	20	7
0	1	3
77	78	4
12	14	2
39	39	6
5	5	4
157	157	13
156	156	2
116	116	3
22	22	2
46	47	4
82	82	5
86	86	2
98	98	14
162	162	5
38	38	3
93	93	5
147	164	3
78	78	10
63	76	2
114	119	9
190	190	3
128	133	3
90	90	9
97	97	6
136	136	1
21	21	5
16	16	2
16	18	1
101	102	1
47	47	12
140	141	4
160	160	9
13	13	17
72	72	8
134	134	5
180	180	5
159	159	5
61	75	1
62	76	4
39	40	3
2	2	2
70	101	3
154	154	6
114	116	2
109	110	3
155	155	3
189	189	3
73	76	1
121	122	2
186	186	9
55	58	1
169	169	5
46	48	1
81	81	2
86	87	5
27	38	2
156	160	1
6	7	4
62	68	4
110	110	1
8	8	5
120	120	5
105	105	5
103	103	1
85	85	11
33	33	4
62	109	1
174	174	14
56	57	3
96	96	12
0	22	1
74	74	4
111	112	1
101	101	5
91	92	1
0	56	3
96	97	1
148	148	2
7	7	8
53	53	3
153	154	5
73	74	2
20	35	2
25	25	3
53	55	1
170	170	1
128	128	3
120	121	3
163	169	3
168	169	3
10	10	2
63	63	1
153	153	9
147	162	1
185	186	7
94	94	2
112	112	4
144	144	6
67	68	4
158	163	1
99	100	2
164	164	4
26	27	1
37	38	2
17	18	5
181	181	5
149	149	3
6	6	3
88	88	11
100	100	5
15	15	4
66	67	4
177	177	7
183	184	4
125	125	4
173	174	4
114	114	7
113	114	2
95	100	1
12	13	5
71	71	2
69	70	6
19	24	1
124	124	4
56	56	3
111	111	8
37	37	5
98	99	2
23	23	2
17	17	2
129	138	5
105	114	2
48	48	4
126	127	2
61	63	2
127	127	4
10	14	1
173	173	6
128	136	4
35	35	2
140	140	5
115	115	12
133	134	3
46	46	5
151	151	4
28	30	2
117	117	1
113	113	3
139	139	7
42	42	7
43	43	1
172	173	4
184	184	1
79	79	3
130	130	6
135	135	4
4	4	3
78	109	1
151	152	3
34	35	3
164	170	4
42	43	4
152	152	2
61	112	1
117	144	1
14	17	1
188	188	1
19	19	2
94	95	2
71	100	1
70	70	3
75	112	1
92	93	5
81	84	4
137	137	2
67	67	8
30	30	5
176	183	1
1	7	1
156	157	1
167	167	9
71	72	3
18	18	3
84	84	4
168	168	6
18	19	3
106	106	2
122	122	3
76	76	5
107	107	5
141	141	2
24	24	3
11	11	1
117	142	3
27	28	2
3	3	3
12	47	2
125	126	1
95	95	1
68	68	2
40	40	4
148	149	2
5	6	1
104	104	3
27	27	4
61	61	3
146	147	1
32	33	1
1	1	4
80	81	1
4	5	1
21	24	3
163	164	2
0	6	1
23	35	2
108	109	2
131	131	2
21	25	1
27	31	1
165	166	1
36	37	6
14	14	1
87	87	5
25	26	2
77	77	1
145	145	2
176	181	3
83	83	1
100	101	1
160	162	1
131	132	1
3	25	1
12	12	4
133	137	1
165	165	5
163	163	5
99	99	2
106	108	1
58	58	2
89	90	3
185	185	6
57	58	1
112	113	2
54	55	1
18	23	1
171	172	4
163	168	1
121	121	1
175	177	2
176	176	2
161	162	4
11	15	1
15	17	1
129	129	4
53	110	1
182	182	3
5	40	2
175	175	2
0	0	1
107	108	1
45	57	1
90	91	1
89	89	5
187	187	1
118	118	4
55	56	1
15	16	1
120	122	1
167	170	1
26	33	3
85	88	3
136	137	2
188	189	3
42	57	1
146	146	2
143	143	1
150	151	1
77	109	1
129	139	1
54	54	1
24	25	1
22	23	1
166	167	4
71	96	1
16	17	2
183	183	1
73	73	2
41	41	1
161	161	1
57	57	6
44	44	1
171	181	1
59	60	2
55	55	2
20	21	1
1	8	2
28	35	1
77	79	1
64	65	1
91	91	2
178	181	1
145	147	2
177	178	2
97	98	2
142	142	2
158	161	2
52	53	1
80	85	1
119	119	1
180	181	1
80	84	1
105	106	2
86	88	1
13	15	1
124	129	1
176	179	1
91	95	1
76	108	2
102	103	1
105	107	1
112	115	2
186	189	2
13	14	3
171	171	2
17	19	1
158	158	2
166	168	1
32	32	1
138	139	1
169	170	1
62	63	1
39	85	1
29	68	1
159	181	2
110	111	1
138	166	2
137	138	2
29	29	2
26	26	1
166	166	1
177	182	1
30	66	1
118	120	1
38	66	1
164	165	1
28	28	1
108	108	2
19	20	1
137	167	1
53	111	1
126	126	1
52	52	1
95	96	1
170	172	1
106	107	1
187	188	1
134	170	1
178	179	1
2	3	1
150	150	1
73	75	1
75	75	1
74	76	1
