1	1	16
122	122	3
63	63	4
65	65	5
125	125	6
15	16	9
88	99	2
61	68	3
42	55	1
66	83	1
108	130	2
115	115	7
8	9	4
92	92	5
14	14	6
67	82	2
102	109	6
11	11	7
7	7	3
67	68	2
114	114	10
13	13	10
106	106	12
1	2	1
62	62	10
90	94	4
70	70	7
59	67	6
133	133	3
131	133	4
33	33	6
80	80	3
100	115	1
2	2	7
130	130	1
25	56	1
112	112	5
80	107	1
119	119	3
29	30	5
129	129	7
117	118	5
99	117	6
71	71	6
74	85	3
41	48	3
29	33	1
23	24	6
83	84	4
103	103	9
79	128	2
24	24	5
108	108	7
85	86	5
5	5	1
5	23	1
28	58	3
81	82	7
41	47	2
114	124	1
10	10	6
53	53	5
86	86	2
118	119	2
22	22	3
108	109	2
25	25	3
16	16	1
28	28	4
51	51	5
29	68	1
103	104	3
98	101	1
10	17	3
101	118	2
91	93	2
27	42	3
70	71	2
51	56	4
99	128	2
117	117	2
64	82	3
105	106	2
3	4	4
17	25	2
44	44	3
12	12	7
60	60	3
93	93	5
82	83	1
98	107	2
23	23	8
11	19	3
74	74	1
79	79	3
111	111	7
56	56	7
57	63	2
90	90	8
72	72	2
32	32	5
94	94	3
87	88	2
109	109	4
86	97	3
98	98	1
52	53	1
40	59	1
93	95	1
26	26	2
120	120	10
82	82	4
108	127	4
30	30	4
110	128	1
58	75	3
60	61	1
57	57	10
50	50	8
16	26	2
49	53	1
126	130	3
75	75	7
3	6	2
68	78	4
45	46	3
43	43	2
101	101	4
56	57	4
80	84	3
70	73	1
106	107	1
46	62	2
12	46	3
11	12	2
27	27	2
18	19	2
42	42	3
38	45	1
116	119	1
119	124	2
4	27	5
66	67	2
20	33	1
18	20	2
132	132	1
49	50	3
9	9	6
120	133	3
15	57	1
73	73	3
12	17	1
115	124	3
73	100	1
20	24	1
85	85	3
102	103	1
43	60	1
107	107	4
106	127	2
21	21	2
84	84	2
76	77	1
19	19	1
105	105	5
90	108	1
54	54	5
50	87	3
38	39	3
2	22	5
40	61	5
67	67	3
72	74	3
59	60	1
27	59	2
7	17	1
39	55	1
17	27	3
38	38	3
63	80	2
127	127	2
57	58	2
49	49	3
38	42	1
124	124	1
85	87	1
17	17	3
13	21	1
83	85	2
46	52	1
73	99	1
126	131	1
86	96	2
95	129	1
97	126	1
52	52	1
68	111	2
59	61	1
18	18	5
48	56	1
6	6	3
90	91	2
31	59	3
96	96	2
66	66	1
83	83	3
111	127	1
99	118	2
76	101	5
21	23	2
110	110	3
79	86	1
114	130	2
125	133	2
47	47	3
42	69	2
93	98	1
38	61	1
126	126	2
30	68	2
116	116	2
123	124	2
81	81	3
4	4	1
39	54	1
15	15	3
29	29	2
89	90	3
16	25	2
113	114	2
20	23	1
55	70	3
89	108	2
5	25	1
18	25	1
123	123	3
119	120	2
3	3	2
17	26	2
10	65	2
90	112	1
61	61	3
125	132	2
26	27	1
58	58	2
30	32	2
108	121	1
124	133	2
16	38	1
125	126	1
21	24	2
81	83	2
64	64	1
96	107	1
120	124	2
111	112	1
131	131	1
57	65	2
117	123	1
22	24	2
58	62	2
18	50	1
102	102	2
126	132	1
76	76	1
119	131	1
9	31	1
107	108	1
100	101	3
31	60	3
12	131	2
72	73	2
115	125	2
120	123	1
88	108	1
130	131	1
126	127	1
87	98	1
95	111	1
43	44	1
84	105	1
8	8	1
67	86	1
95	95	1
15	47	1
113	130	1
22	26	1
42	56	1
70	85	1
90	96	1
97	117	1
