140	140	8
15	15	6
9	9	3
74	75	1
122	122	8
157	157	4
93	93	6
153	153	10
168	170	3
67	67	7
20	20	5
30	33	2
128	128	4
154	154	4
76	76	4
161	161	5
88	88	2
78	78	7
123	125	3
134	135	1
72	72	3
163	163	4
94	95	2
125	125	3
105	112	1
134	150	3
121	127	2
150	150	3
97	97	7
151	153	1
85	85	3
175	175	4
138	151	1
171	172	1
59	59	14
62	63	5
59	61	4
10	11	2
54	54	1
156	156	2
4	6	2
90	90	3
113	113	4
0	0	7
114	114	7
75	75	5
160	161	3
44	45	3
5	5	4
87	87	6
18	19	4
6	6	4
39	39	1
142	142	3
150	173	1
40	41	3
98	100	4
33	36	2
160	160	6
51	125	6
136	136	3
103	105	5
164	164	3
134	134	1
43	43	4
64	64	3
134	136	6
155	155	3
170	171	4
82	82	6
31	32	4
1	2	3
57	57	1
56	57	1
119	123	3
13	13	4
130	130	3
90	91	5
44	44	1
52	124	3
104	131	2
6	21	1
116	116	3
94	94	7
167	167	3
37	37	3
7	7	6
122	123	4
58	63	3
121	122	5
4	5	3
35	38	3
104	104	3
178	178	1
55	57	3
159	159	3
1	1	2
18	18	2
131	131	1
80	81	3
107	107	1
96	101	3
138	138	5
63	64	1
65	65	9
158	159	3
21	22	1
38	39	2
58	58	6
121	121	1
93	94	1
96	97	3
17	17	1
100	100	1
86	87	2
19	81	3
32	32	4
97	98	3
143	143	5
10	89	3
135	135	3
6	34	1
50	50	3
22	23	6
106	149	1
66	66	3
25	28	1
89	89	4
20	21	1
132	132	4
141	141	5
110	111	2
80	80	1
165	165	4
73	73	4
143	144	1
87	91	1
40	40	1
95	158	2
148	148	1
174	175	1
83	83	1
81	83	1
24	26	1
169	170	5
38	38	3
3	4	1
33	33	2
146	146	2
61	61	3
129	130	3
138	139	6
173	173	3
154	155	2
88	90	1
158	158	3
173	174	3
137	137	1
19	20	2
28	28	1
71	71	1
147	147	3
45	45	1
95	95	5
41	42	2
24	41	2
101	101	1
127	127	2
24	24	1
57	59	3
30	30	5
26	27	1
11	11	1
174	178	1
117	117	2
112	112	1
111	112	1
63	68	1
49	49	1
84	84	2
121	124	2
104	105	2
7	9	2
39	40	1
144	150	1
118	119	1
3	3	3
2	5	1
131	132	1
144	148	2
55	56	1
55	58	1
151	151	2
133	133	2
5	6	2
150	151	2
123	126	1
92	94	1
166	167	1
130	131	2
140	142	1
2	8	2
152	153	2
45	46	1
52	52	2
53	53	1
103	104	1
147	148	1
152	172	1
33	35	3
92	120	1
82	93	1
7	81	1
52	53	2
60	61	1
57	58	1
168	168	3
43	120	2
99	149	1
139	139	3
17	18	1
111	111	1
146	147	1
112	114	1
36	38	2
22	39	1
77	78	1
19	23	1
8	8	2
171	171	2
175	177	1
108	108	2
42	42	1
10	10	1
40	42	1
17	21	1
166	166	2
23	41	1
27	27	2
151	152	1
117	128	2
41	41	1
120	120	1
52	54	1
88	89	2
154	156	2
133	134	1
174	174	2
91	92	1
15	44	2
74	74	2
106	106	1
179	179	1
123	124	3
64	71	2
31	31	2
35	36	1
152	171	1
6	22	1
151	173	1
98	149	1
117	118	1
119	119	1
12	12	1
94	96	2
9	10	2
122	125	1
36	36	1
141	145	1
51	123	1
71	72	1
148	149	1
