20	20	3
66	67	5
83	83	6
46	46	4
26	26	5
11	11	7
99	99	13
15	15	4
107	107	10
55	55	4
39	40	5
0	0	5
17	17	5
106	106	7
63	63	5
103	103	7
113	113	4
4	20	2
100	100	13
124	125	5
16	16	6
24	25	6
99	100	1
115	115	8
10	11	6
88	89	5
120	121	3
132	132	3
50	50	6
7	104	1
51	52	4
74	74	3
12	12	6
7	46	2
27	27	8
65	66	6
61	61	5
54	55	3
49	106	1
52	118	3
75	75	4
131	132	2
95	99	4
33	33	4
40	41	1
4	4	7
17	19	1
112	112	7
63	111	1
2	2	5
14	15	6
109	109	3
126	126	2
40	40	3
120	120	3
18	19	7
84	84	6
71	74	4
66	66	3
52	115	2
57	57	1
5	5	4
53	56	5
100	101	6
48	48	4
117	117	9
122	122	4
114	118	2
91	92	5
44	44	8
72	76	2
94	94	2
88	88	3
102	103	4
101	104	1
92	92	15
129	130	3
32	100	3
101	102	2
73	73	2
74	126	3
104	105	5
104	104	5
93	93	3
1	82	4
59	59	1
7	7	5
65	65	1
102	102	4
118	118	3
7	28	1
116	118	1
114	114	9
52	52	3
27	28	1
51	51	4
10	10	4
110	112	1
67	76	2
71	75	2
106	107	4
98	98	7
32	32	3
131	131	3
19	19	2
58	58	1
83	84	2
97	97	6
65	67	3
32	33	1
95	113	1
3	93	1
81	81	3
43	44	7
47	55	1
43	43	1
86	86	2
78	80	2
11	12	1
77	77	1
49	49	2
9	10	1
125	125	3
14	14	8
17	18	3
105	105	2
110	110	2
3	83	1
53	53	1
9	38	2
80	80	3
70	70	2
115	116	3
34	34	1
42	43	2
25	26	3
107	108	4
23	23	1
54	104	2
128	129	2
10	13	1
129	129	1
30	30	7
43	45	1
39	39	1
13	13	2
10	12	2
76	76	1
97	98	6
79	80	2
1	1	1
60	97	1
127	127	2
112	113	2
29	29	1
45	45	1
28	28	2
54	54	8
6	100	1
12	13	1
111	111	1
8	46	1
82	82	1
105	106	1
97	101	1
21	21	1
6	33	1
92	99	2
78	78	3
72	75	1
118	119	1
41	42	2
96	98	1
123	123	3
89	89	1
44	45	1
69	69	3
42	42	1
114	115	1
124	124	1
22	22	1
94	95	1
26	27	1
89	91	1
117	119	3
11	33	1
53	95	1
10	14	1
56	56	2
50	51	1
29	30	1
0	88	1
85	85	1
71	71	1
4	92	1
38	38	2
52	108	2
79	79	1
119	119	1
110	111	1
96	96	1
20	21	1
