44	46	4
46	54	5
119	123	4
13	13	17
103	103	6
44	44	2
142	150	1
68	68	4
66	66	4
20	20	9
109	109	7
155	155	6
15	16	4
146	147	6
188	189	2
82	83	2
186	186	17
8	8	4
94	94	4
127	127	4
126	128	4
33	33	4
108	176	5
97	97	7
142	180	1
132	187	4
22	22	14
27	27	7
185	186	1
34	35	3
84	84	5
111	111	5
47	48	8
107	107	5
129	129	13
179	188	7
117	118	4
93	93	4
88	89	1
163	168	1
99	99	6
129	130	4
54	55	2
2	2	8
172	175	6
60	61	2
105	105	4
147	147	6
66	67	5
16	16	6
180	180	11
25	25	8
164	164	9
165	165	2
46	46	7
114	129	3
21	32	5
164	165	2
161	161	9
140	140	8
81	81	5
180	181	13
132	133	1
182	182	10
0	0	10
176	176	12
137	137	9
31	33	10
126	126	8
24	28	2
26	27	1
40	40	11
166	166	7
183	184	5
114	114	14
101	101	14
84	85	3
58	58	2
169	169	10
122	133	5
5	5	5
154	154	18
129	170	3
63	83	5
166	182	4
36	37	2
14	14	4
149	156	2
110	110	2
177	177	9
130	180	2
178	179	2
56	153	3
126	127	2
151	151	6
188	190	1
81	82	5
159	159	2
18	19	14
149	150	5
4	48	2
90	90	6
12	13	1
26	26	3
95	150	1
5	46	5
113	113	4
158	159	1
138	138	7
146	146	7
85	85	10
30	30	6
43	43	2
88	88	6
132	132	3
173	173	6
179	179	5
101	103	4
70	70	4
70	71	5
183	183	12
106	106	8
63	63	2
153	154	4
136	137	3
89	89	6
149	149	9
129	173	1
64	107	2
47	47	6
116	121	2
28	29	1
71	71	4
36	45	2
127	182	4
56	57	5
135	135	7
57	57	6
143	146	4
141	143	2
10	10	11
7	52	3
112	129	4
128	128	9
190	190	5
123	123	8
90	91	2
187	188	3
24	24	15
111	115	6
72	72	5
150	150	5
134	134	6
55	72	2
115	115	6
71	72	7
84	101	5
143	168	2
6	6	9
61	61	14
89	170	3
157	159	3
134	137	2
70	74	4
178	178	11
87	87	5
64	141	3
42	42	12
3	3	1
76	76	8
9	9	4
53	53	4
142	167	1
72	82	2
73	74	5
118	118	2
56	76	5
48	48	8
69	70	1
80	143	1
171	172	6
138	187	3
31	37	3
56	56	2
61	71	2
182	184	3
138	151	3
129	171	3
151	158	2
86	86	3
151	153	3
168	168	2
72	75	1
30	34	2
102	102	4
39	40	4
15	15	6
160	170	2
98	98	6
136	136	3
78	78	9
82	82	2
175	175	8
160	160	7
181	181	2
1	2	3
125	127	3
38	38	6
24	73	1
119	119	10
70	82	1
110	123	5
17	17	8
95	96	2
156	157	1
7	7	2
145	145	10
23	23	2
73	73	4
174	174	3
116	116	7
150	154	1
53	54	1
42	43	3
144	144	3
188	188	4
124	126	2
99	109	3
123	130	1
40	41	2
21	21	8
95	97	1
95	95	3
139	139	7
148	153	1
96	96	2
36	36	3
77	78	4
163	164	2
38	40	4
147	148	5
117	117	4
139	142	3
29	125	3
32	36	4
79	79	5
84	153	3
58	61	2
75	77	2
63	102	1
80	81	2
162	164	3
116	119	1
168	169	2
41	42	2
35	62	2
48	49	5
178	189	3
126	182	4
75	75	5
37	37	2
45	45	3
59	59	3
48	186	1
157	157	4
62	78	1
111	126	3
184	184	4
125	125	5
142	143	3
17	22	5
58	59	2
153	153	3
2	3	2
178	188	2
108	108	6
16	17	2
45	46	3
151	152	4
166	169	3
107	122	1
158	158	5
71	75	4
189	189	3
167	167	13
52	105	3
60	60	5
63	64	2
108	143	2
82	186	5
129	132	3
92	92	4
78	79	5
67	67	2
1	1	3
18	18	5
56	90	5
55	75	1
143	144	1
129	189	2
146	162	1
94	163	2
65	65	2
150	163	2
57	59	4
108	109	3
57	147	1
28	28	3
66	68	2
24	25	2
137	138	2
169	170	3
156	163	1
94	145	3
8	27	1
1	72	2
169	186	3
116	117	2
39	39	2
143	143	3
109	111	3
104	104	4
26	34	1
135	136	1
9	10	1
124	124	5
12	31	1
120	122	1
19	19	8
119	187	2
13	15	1
115	122	1
141	156	1
110	115	3
64	64	3
19	20	1
14	15	2
185	185	2
151	157	2
162	163	2
15	38	3
31	31	2
126	129	1
89	91	1
170	170	4
126	169	1
41	41	2
185	187	1
141	141	4
172	172	4
152	152	7
25	40	1
128	141	3
175	176	1
55	55	1
148	148	3
46	47	1
60	64	1
131	139	3
68	135	2
131	131	2
89	90	2
55	56	3
96	98	2
44	45	1
150	157	1
158	182	1
109	173	3
101	102	4
34	34	1
11	37	2
40	87	1
92	95	1
112	112	4
107	176	1
59	61	3
160	163	3
85	86	1
94	95	4
156	164	1
142	142	2
34	186	1
76	77	1
58	62	2
16	91	1
33	38	1
32	32	2
141	142	1
83	83	1
76	111	1
187	187	1
144	169	1
130	136	1
25	42	2
80	80	4
112	118	3
170	173	3
106	107	2
57	88	2
12	81	1
24	27	1
89	164	1
67	98	1
114	115	2
112	116	4
57	58	2
169	172	1
104	108	1
8	137	1
11	11	1
146	165	2
80	130	2
23	48	1
134	135	2
109	110	1
152	153	2
91	150	2
12	12	1
108	111	1
27	31	2
76	107	1
177	178	1
146	167	1
91	91	1
27	28	1
162	162	5
29	34	1
86	88	2
77	77	2
17	91	1
26	85	1
16	53	1
129	187	1
113	114	1
8	54	1
104	106	1
102	148	1
166	168	1
11	24	1
174	175	1
161	162	1
61	102	1
120	120	1
54	74	1
156	156	2
5	42	2
31	39	1
21	22	1
11	23	1
92	96	1
86	87	1
58	65	1
86	97	1
122	122	2
61	67	1
142	190	1
108	110	1
