103	105	2
2	6	7
140	154	5
59	60	16
137	138	6
129	129	4
213	215	3
145	157	1
188	193	3
80	81	7
65	117	3
16	17	5
37	37	21
237	237	26
0	0	13
5	10	5
3	11	5
228	230	1
31	31	8
12	12	9
159	160	2
60	60	20
16	16	4
115	115	1
201	201	10
61	61	26
158	166	1
152	152	16
31	32	5
13	14	7
10	10	18
184	184	9
3	3	10
224	224	11
25	25	19
66	66	6
3	29	3
156	159	4
140	141	4
40	68	1
49	49	5
42	78	2
202	236	3
153	154	1
145	145	3
96	96	12
104	109	6
229	229	9
146	147	6
225	225	17
128	128	16
191	191	7
78	78	9
22	23	7
4	127	2
68	75	2
210	214	1
162	196	4
228	231	4
69	69	13
153	153	7
71	71	4
167	218	1
30	85	3
178	178	6
54	56	2
98	123	3
34	36	6
109	109	3
17	17	9
181	182	2
32	32	11
241	242	7
206	206	9
157	157	7
39	43	1
80	83	3
210	216	1
45	45	14
187	193	4
142	143	4
213	214	5
103	103	8
39	40	2
146	146	13
109	115	1
102	122	1
163	163	11
236	236	11
119	120	3
176	176	8
1	2	9
9	9	9
38	40	3
32	38	2
226	226	11
39	42	3
75	75	3
70	70	6
89	89	2
203	203	9
144	144	20
99	106	1
28	28	7
216	218	2
102	104	1
43	43	7
121	152	1
56	56	10
29	30	4
231	231	6
44	45	15
155	155	2
9	10	10
107	107	7
221	223	2
6	11	5
72	73	4
213	213	9
242	242	6
101	101	7
4	104	2
126	131	1
205	212	2
8	10	2
61	62	3
109	131	3
133	158	4
237	240	3
7	7	4
112	113	2
11	16	3
0	79	1
72	72	4
46	47	2
151	151	10
158	204	1
174	242	2
107	108	5
84	84	7
83	193	1
115	118	3
38	39	6
83	83	13
199	201	1
159	159	5
158	161	3
7	8	9
165	165	15
34	39	1
148	148	16
156	156	8
47	47	14
1	8	4
73	73	13
99	127	3
215	215	6
102	103	4
137	143	6
1	1	10
124	127	1
59	59	10
104	201	1
161	162	3
66	67	3
125	126	2
154	155	1
37	74	1
209	209	4
52	52	4
224	226	4
99	99	19
42	161	5
82	82	9
42	43	6
115	116	5
220	221	1
32	36	5
167	167	15
238	238	4
6	20	2
179	179	3
161	161	9
145	185	4
44	62	1
106	108	2
187	188	7
58	63	1
141	144	1
23	23	19
197	197	4
98	98	16
205	205	14
143	143	4
21	21	10
228	228	14
120	122	4
117	117	9
127	127	9
191	219	2
46	46	19
114	118	2
55	61	3
166	166	9
234	241	4
186	186	8
223	231	3
41	67	1
101	106	1
226	227	8
147	152	1
238	239	3
171	172	2
61	63	2
153	175	1
126	133	1
220	220	9
181	181	13
131	133	5
18	19	2
222	222	11
199	199	6
81	86	2
71	72	2
170	173	3
2	17	1
138	138	11
239	240	8
74	80	5
227	228	1
131	136	2
178	179	3
0	1	2
4	4	8
59	62	1
103	106	3
65	65	13
144	151	3
14	14	14
69	70	7
181	185	1
147	149	5
144	145	4
198	202	1
128	141	3
15	15	7
42	42	15
221	221	6
175	175	16
206	207	1
157	163	2
80	80	7
170	170	7
180	180	14
73	75	4
194	208	1
204	205	4
113	114	2
170	171	4
29	33	1
29	31	6
41	42	4
77	77	10
185	186	4
71	73	4
19	19	5
228	237	5
67	67	8
2	2	8
181	219	1
126	126	13
222	223	1
50	54	3
187	204	2
43	55	2
168	175	2
9	20	3
97	97	14
236	237	8
34	78	4
124	124	5
157	158	2
17	18	4
58	59	2
138	152	2
121	122	4
50	53	4
55	73	4
146	161	3
235	239	3
211	211	6
195	200	2
224	240	3
116	116	5
4	79	1
171	171	7
188	189	6
95	105	1
55	55	13
116	118	1
77	84	2
55	85	4
100	100	11
231	234	2
217	218	9
141	141	16
38	38	13
69	228	1
175	176	7
234	234	10
40	40	13
204	208	1
200	200	5
57	61	3
204	204	1
198	238	2
9	24	2
35	38	4
159	161	3
214	215	6
2	79	1
103	104	2
52	54	3
226	229	2
99	117	2
62	62	8
35	35	8
48	85	2
106	106	5
20	20	2
121	121	12
234	239	2
173	182	2
189	189	4
104	106	5
85	85	19
123	128	3
96	101	2
184	185	8
46	74	1
174	174	5
56	57	6
12	26	2
4	5	1
57	86	1
215	241	7
168	169	3
162	164	1
59	61	1
125	180	5
65	66	8
182	184	4
20	21	7
120	120	10
77	78	3
119	119	9
85	140	3
65	98	4
99	104	4
99	101	2
182	183	5
159	190	2
79	79	3
26	26	17
3	79	1
78	81	4
156	157	4
4	125	2
57	60	7
44	44	16
108	123	1
125	134	2
179	183	2
180	182	3
218	218	5
134	134	15
39	39	7
24	39	2
69	229	1
221	222	4
116	130	5
145	146	3
50	50	11
171	174	2
14	15	7
170	217	2
81	85	4
203	206	1
195	196	4
95	95	2
39	69	1
198	240	2
173	173	4
74	74	12
58	58	3
41	41	4
39	41	5
75	83	1
209	210	5
227	230	3
16	19	1
214	216	5
157	178	4
143	146	6
27	45	2
22	25	1
125	132	2
7	9	3
125	125	2
170	223	2
39	65	2
179	182	1
18	55	1
174	176	2
11	14	1
139	153	2
24	24	6
5	7	3
128	201	3
6	104	1
44	49	4
29	35	1
216	216	3
102	141	3
74	76	2
117	118	6
35	36	7
193	194	3
86	86	10
5	5	2
159	162	2
95	106	4
3	4	2
77	80	2
133	136	1
64	64	4
95	108	1
235	238	11
207	207	7
241	241	13
236	241	4
136	182	3
187	187	6
124	125	4
11	11	5
25	242	2
88	88	8
29	29	2
162	212	1
118	118	4
34	34	8
239	239	18
214	214	8
217	217	7
135	135	6
15	21	2
28	35	4
136	140	2
240	241	6
219	219	8
38	42	2
98	100	1
70	71	6
63	63	8
230	230	4
169	169	6
108	108	7
0	85	1
193	193	2
185	185	8
13	13	4
45	236	1
231	232	4
54	54	7
20	43	2
105	107	1
104	108	4
57	63	3
20	22	2
73	74	3
29	43	3
233	235	1
37	38	2
133	143	1
232	232	18
180	181	7
227	227	10
99	100	4
6	6	4
236	240	1
233	233	7
118	122	3
149	150	3
223	225	1
10	15	3
35	37	4
115	171	3
162	168	3
148	149	5
58	61	3
95	103	1
24	25	4
198	237	4
178	182	3
106	123	4
150	150	8
204	213	4
47	48	2
114	114	7
89	105	2
39	229	2
235	235	3
160	160	8
219	230	1
30	31	6
48	48	5
59	63	3
189	201	2
204	206	3
154	154	8
221	236	4
171	233	2
240	240	6
114	115	1
47	69	4
133	134	4
60	79	2
16	22	5
202	203	6
21	25	3
171	173	2
228	229	2
177	177	5
172	173	6
45	70	3
225	238	2
6	105	1
41	56	2
175	196	4
19	20	4
215	218	2
157	206	1
113	113	4
209	217	1
9	14	2
21	23	2
123	199	5
37	40	2
209	218	1
192	192	3
219	220	1
194	202	1
197	198	1
55	206	1
42	45	1
24	120	1
133	133	8
223	224	5
7	20	1
18	20	1
172	172	4
130	130	1
44	85	1
225	231	1
0	218	2
33	60	4
0	21	1
169	181	2
135	136	5
89	206	1
13	17	3
27	27	14
211	212	4
196	197	2
30	34	2
2	3	1
111	112	3
36	37	4
122	123	6
36	40	4
139	139	4
151	152	1
142	142	6
42	44	1
64	65	2
172	183	2
11	122	2
170	222	2
211	218	5
57	57	7
2	5	2
40	41	3
100	102	1
133	138	1
26	28	2
209	211	2
75	79	4
81	83	3
148	151	1
98	112	2
22	37	2
123	125	1
17	29	2
54	55	2
50	60	1
195	197	1
50	85	2
136	136	10
149	149	10
127	128	6
137	137	5
168	168	2
171	179	1
4	105	3
63	181	2
165	207	2
105	105	1
135	139	3
131	234	1
172	220	1
231	235	2
70	73	3
121	203	5
37	39	1
164	228	1
156	191	1
219	231	2
203	204	2
66	68	6
36	36	3
159	165	1
177	179	1
20	31	1
182	192	2
8	9	2
120	121	4
221	230	2
182	182	3
22	22	5
30	30	4
76	77	3
2	106	1
202	202	7
2	8	1
51	52	3
143	156	1
141	143	1
198	215	2
197	202	4
182	236	3
193	202	2
1	19	2
166	167	4
209	224	3
0	10	1
23	25	2
68	69	5
172	174	1
50	58	2
67	218	2
18	18	1
226	231	3
45	69	2
121	123	2
100	117	3
139	142	1
207	208	3
30	58	2
136	139	2
4	8	2
107	109	2
120	129	1
159	172	4
139	144	1
225	227	1
98	99	2
210	219	1
72	173	2
50	52	3
46	71	1
187	192	4
7	225	3
79	80	1
0	15	2
70	234	2
22	42	3
135	138	4
24	63	1
78	80	2
131	138	2
218	219	4
100	115	1
45	46	2
145	154	1
217	237	1
62	63	3
13	48	2
17	49	1
6	8	2
192	193	1
207	219	1
48	53	2
202	207	1
163	164	1
33	33	4
186	187	1
36	77	2
91	119	1
153	178	1
158	158	2
7	35	1
10	120	2
167	208	1
97	104	1
176	177	2
8	8	2
25	98	3
6	119	1
106	109	1
15	18	3
80	84	1
235	236	4
7	11	1
12	15	2
170	221	2
100	121	2
164	167	2
72	177	2
181	183	2
51	57	1
112	112	2
237	239	1
239	241	2
72	242	1
152	202	1
69	232	1
195	202	2
218	225	1
11	12	2
170	175	2
140	140	7
186	193	1
169	170	2
194	195	3
54	57	1
127	133	3
212	214	4
80	85	1
147	147	5
192	206	2
31	34	3
196	196	7
187	200	1
170	230	1
128	132	1
167	169	1
26	27	2
216	231	1
140	146	2
231	233	1
33	39	2
233	234	1
208	208	4
15	24	1
141	142	5
64	179	1
210	222	4
143	224	2
50	86	4
207	210	1
98	131	1
145	147	1
1	128	2
10	31	2
114	128	1
154	199	1
72	74	3
67	72	1
207	218	2
149	153	1
167	168	3
109	113	5
147	168	1
214	230	2
194	198	3
144	146	2
15	48	2
13	19	1
108	126	3
110	115	1
129	130	1
79	104	1
65	76	1
3	97	1
55	72	1
228	235	2
32	33	2
198	198	5
46	54	1
151	153	1
86	101	1
212	212	2
104	104	3
102	102	1
183	183	6
69	230	4
82	83	2
7	10	3
191	192	1
139	140	1
66	118	2
155	156	2
78	83	1
208	210	2
43	45	1
210	210	5
224	233	1
211	216	1
22	164	3
101	104	2
172	190	2
18	43	1
36	60	2
23	192	1
215	220	3
189	192	1
172	175	3
31	59	1
41	59	1
214	218	3
20	191	1
51	51	3
26	34	1
32	85	1
81	82	1
172	233	1
210	215	1
186	197	2
157	205	1
74	75	2
119	133	1
212	213	3
193	196	1
10	75	1
126	129	1
76	83	1
3	211	3
181	184	3
190	196	1
67	69	2
68	68	5
168	193	1
134	135	2
146	208	2
1	77	1
70	77	1
115	119	1
138	139	2
224	225	2
13	20	2
204	218	1
97	117	2
185	187	1
70	72	2
10	11	4
167	175	2
107	110	1
223	223	7
9	28	1
134	191	1
135	137	1
58	74	3
205	209	1
78	79	1
0	2	2
28	31	1
8	20	1
66	81	2
172	178	1
144	155	1
156	158	1
9	82	2
165	167	1
164	165	1
177	190	1
203	238	2
182	194	2
30	69	1
190	209	2
187	216	1
78	84	2
163	184	1
182	201	1
216	222	2
160	163	1
52	70	1
206	208	1
16	72	2
182	209	1
188	188	4
174	175	1
203	241	3
195	195	1
8	69	1
237	238	1
43	234	1
46	53	2
19	199	1
226	228	2
187	195	1
103	118	3
139	141	1
34	57	1
96	97	2
44	46	1
188	214	1
37	178	1
215	217	2
35	115	1
3	54	1
100	122	2
10	82	1
111	111	2
160	169	2
18	33	1
56	65	2
84	129	2
85	128	1
7	121	1
208	209	1
48	84	2
46	52	1
3	6	1
109	116	1
197	212	1
197	216	1
60	61	1
35	77	1
15	54	1
221	227	1
188	191	1
15	16	1
213	216	1
66	73	2
104	105	1
157	164	3
26	33	1
167	171	1
149	223	2
75	78	1
95	101	1
19	25	3
69	71	1
30	33	1
128	139	1
40	229	1
38	77	1
168	170	1
195	198	1
186	190	1
128	130	1
167	230	1
24	26	1
79	105	1
51	54	3
125	133	1
171	228	2
115	124	1
25	27	2
136	137	1
212	220	3
214	227	1
43	56	1
62	233	1
55	58	2
176	178	1
60	63	1
196	200	1
136	141	1
36	228	1
188	201	1
173	178	1
36	38	1
76	76	1
45	55	1
192	197	2
116	123	2
130	132	1
81	81	1
189	195	1
173	179	1
125	127	1
34	35	1
189	194	1
47	51	1
166	168	1
180	183	1
97	106	1
106	119	1
183	184	1
201	203	1
122	122	1
114	116	1
115	122	1
152	154	1
129	133	1
56	68	1
123	124	1
118	126	1
107	116	1
58	183	1
107	114	1
211	215	1
105	198	1
151	155	1
189	190	1
169	171	1
143	162	1
91	92	1
86	88	1
0	235	1
190	202	1
19	72	1
183	208	1
184	211	1
161	184	1
3	218	1
90	99	1
9	12	1
