83	83	1
71	71	6
106	107	3
8	9	9
95	145	2
138	148	1
92	98	2
131	134	2
47	47	11
139	139	8
74	75	2
149	149	6
33	54	3
22	141	2
13	15	3
109	109	5
11	26	4
110	110	11
141	141	1
99	99	9
44	44	6
84	149	2
136	136	9
15	15	5
63	67	1
21	21	3
3	35	3
122	122	3
152	153	2
63	63	8
108	138	4
96	96	8
8	20	5
26	26	2
49	50	3
118	118	3
13	13	6
114	114	10
137	137	3
123	123	4
29	83	1
46	46	3
55	55	5
153	154	2
106	106	10
126	127	2
19	20	5
117	117	2
31	31	2
129	130	1
19	19	8
40	40	4
150	151	2
25	77	7
103	103	4
138	138	3
55	56	2
62	62	1
82	151	2
84	85	1
115	135	1
84	86	4
100	107	2
116	116	10
102	150	1
81	81	6
42	42	2
136	137	6
137	138	1
22	22	7
111	111	7
27	62	1
44	71	4
107	107	5
84	84	4
81	90	3
7	8	6
35	35	2
64	64	5
129	129	2
9	9	2
10	16	2
131	132	3
150	150	9
75	78	6
14	14	9
76	79	2
40	54	1
132	132	1
94	94	4
34	56	1
13	96	1
82	82	2
25	105	2
4	8	2
8	19	3
18	19	2
147	148	1
17	17	3
103	146	1
54	54	2
12	12	5
32	33	2
87	87	5
76	77	1
120	120	4
99	105	1
47	48	3
33	34	1
8	26	1
103	125	4
134	134	5
123	125	1
30	67	2
131	131	3
24	24	3
10	10	3
18	50	2
4	5	3
64	77	2
102	102	1
121	121	3
24	77	2
152	152	4
69	69	8
41	42	1
28	65	1
75	75	2
64	65	2
135	135	4
144	144	1
98	98	3
16	16	5
58	58	1
120	149	2
112	113	2
83	84	3
61	89	1
65	65	3
35	55	2
114	117	1
5	5	2
138	139	2
80	81	2
46	47	2
15	16	1
17	18	2
93	94	1
13	68	3
70	83	1
108	109	1
149	150	1
112	112	1
77	77	1
66	67	1
103	127	1
11	11	3
86	86	2
25	100	1
68	68	8
113	133	1
26	82	2
23	23	4
104	115	1
32	32	1
140	144	3
53	54	4
55	57	2
100	100	1
103	105	1
153	153	3
154	154	4
97	97	2
139	144	1
127	127	2
6	6	3
37	37	1
67	67	3
145	145	2
88	88	3
79	79	1
38	38	1
75	77	1
84	96	1
94	128	1
121	122	1
9	19	1
74	74	1
96	97	2
73	73	1
122	123	1
72	73	4
28	28	5
130	130	4
21	38	1
124	125	2
119	131	2
108	108	1
94	103	2
30	31	2
4	4	2
110	111	2
53	53	1
62	63	1
35	37	2
4	10	1
46	56	1
42	43	1
122	138	1
23	77	1
123	124	1
70	70	2
12	87	2
52	52	1
133	133	2
6	21	2
95	95	3
132	133	1
126	126	2
81	82	1
142	142	1
18	18	1
95	103	2
119	121	1
50	50	2
117	135	3
148	148	1
97	99	1
109	110	2
9	10	1
3	37	1
97	100	1
6	37	1
13	28	1
44	45	1
48	48	1
83	85	1
125	141	1
74	78	1
