176	176	5
222	222	10
32	32	4
95	96	8
181	182	10
12	12	6
18	20	3
86	86	9
184	184	2
42	42	11
71	72	1
170	171	2
233	234	4
221	222	2
25	25	8
18	34	1
75	75	7
118	118	4
85	185	3
115	115	12
79	79	2
113	114	5
53	61	8
117	117	7
61	61	2
214	218	1
213	213	2
80	80	11
196	220	2
25	37	1
201	234	3
85	85	8
23	23	4
51	51	4
78	78	8
109	113	4
53	53	6
221	221	7
152	152	8
36	36	4
84	84	6
212	212	9
243	244	2
214	215	2
193	193	11
208	213	3
195	196	3
162	163	3
47	48	3
216	216	8
56	56	2
69	69	8
105	107	6
182	184	1
238	238	3
56	58	3
38	38	4
114	114	7
179	179	6
225	225	5
55	55	3
29	30	2
72	72	4
168	168	1
165	165	1
151	151	8
149	150	1
196	222	2
238	239	3
152	153	4
31	39	2
31	31	2
208	209	2
101	101	9
234	234	8
170	170	5
218	218	6
247	247	6
5	5	7
196	221	6
178	178	4
180	181	4
20	20	4
201	201	3
11	11	9
154	154	5
98	98	4
35	35	5
77	77	2
2	2	2
53	54	4
116	116	10
37	37	4
113	113	3
62	62	11
81	82	3
65	66	1
190	190	9
200	201	1
211	212	6
215	216	2
119	119	8
179	180	3
81	83	2
107	107	5
41	41	2
21	21	4
57	57	5
33	33	1
173	173	4
216	218	6
187	188	3
82	82	7
94	95	2
7	7	10
43	43	9
7	8	3
220	224	7
175	175	6
161	162	3
223	224	6
15	15	5
118	119	2
237	240	2
93	93	3
94	94	8
41	42	2
245	245	10
28	32	1
55	56	2
152	211	4
196	196	5
181	181	4
235	235	1
40	40	6
112	112	1
58	58	9
31	38	1
73	73	4
89	89	1
231	241	2
109	109	4
199	199	2
178	180	1
175	182	2
13	13	2
44	44	4
106	106	2
110	110	4
233	237	3
231	242	1
54	90	3
172	182	3
14	14	10
88	88	6
29	29	6
210	210	6
207	207	7
197	219	2
5	6	1
54	55	1
0	1	1
230	240	3
79	80	2
227	227	1
52	62	2
112	113	7
85	86	7
155	155	8
174	174	2
191	192	11
33	34	4
111	111	5
68	91	1
95	95	7
174	184	2
229	237	2
94	145	3
166	166	5
39	41	2
162	162	8
160	160	7
177	177	9
200	200	3
56	57	1
67	67	2
188	188	4
100	100	3
236	236	4
176	177	4
39	39	1
24	24	4
229	232	4
195	195	3
245	246	4
61	62	3
18	33	2
82	84	2
171	184	1
56	59	3
229	229	2
15	16	1
200	237	1
56	61	1
50	50	2
104	105	3
102	171	2
213	217	2
157	157	4
71	71	6
189	189	3
211	211	6
48	48	4
200	236	1
170	188	3
28	30	2
97	97	3
240	240	6
6	6	2
99	99	3
114	118	1
241	242	2
182	182	9
158	178	1
89	90	4
204	205	5
187	187	4
65	65	5
224	225	1
110	111	1
74	111	1
179	182	3
102	102	7
173	174	3
202	234	1
209	209	4
229	230	2
81	81	8
90	90	1
219	220	2
52	52	5
106	107	1
104	104	2
20	33	2
68	68	3
17	17	3
192	192	8
55	57	1
49	49	3
9	9	4
158	159	2
203	203	3
231	231	2
100	115	1
59	60	2
83	83	2
49	51	1
153	236	4
8	9	4
167	167	3
55	58	1
144	144	1
92	92	5
185	186	2
150	150	1
242	242	2
192	193	2
47	47	2
45	45	2
28	28	4
208	208	5
198	198	1
170	185	2
153	153	3
22	22	3
93	100	3
19	34	3
169	190	3
246	246	3
43	44	1
220	220	2
160	161	4
40	43	1
171	171	3
9	12	1
194	194	3
223	223	1
169	169	1
38	41	1
7	11	2
208	211	1
145	145	3
172	174	2
154	155	2
8	8	1
206	206	1
84	86	1
233	233	3
161	161	1
37	38	2
98	120	1
175	176	1
96	96	7
101	102	1
18	19	1
59	59	5
4	4	1
100	109	3
157	192	3
238	246	1
201	231	2
151	152	2
75	111	1
109	110	1
69	70	3
77	78	1
159	159	2
30	32	1
230	233	2
23	24	2
48	52	2
63	63	1
76	76	1
10	10	2
50	63	1
219	219	2
54	54	1
60	60	2
82	112	2
164	224	1
156	180	1
234	235	1
70	70	1
105	105	2
218	219	1
204	204	1
64	65	1
214	214	1
163	165	1
164	164	2
197	199	1
194	195	1
108	120	2
201	202	1
49	50	2
164	165	1
205	205	1
18	18	1
230	231	1
58	59	2
227	228	1
55	145	1
158	158	1
207	208	1
149	217	2
228	228	2
95	98	2
202	202	2
94	100	1
150	151	1
198	199	1
194	225	1
58	89	1
13	15	1
224	224	2
201	232	1
232	232	1
16	16	3
172	173	1
31	44	1
151	201	1
115	116	1
169	189	1
5	15	1
22	23	1
163	225	1
90	91	1
76	78	1
87	88	1
180	180	1
44	45	1
32	38	1
89	91	1
28	31	1
165	168	2
66	66	1
157	191	1
163	164	1
