192	192	7
169	189	4
170	171	3
180	206	7
156	156	26
83	83	3
9	9	12
235	235	14
2	9	6
213	213	11
77	77	2
57	57	3
225	226	8
57	61	4
24	24	9
196	196	10
152	152	8
221	221	9
213	214	5
186	186	5
55	57	2
203	228	4
113	113	13
173	173	12
68	69	5
17	19	7
22	22	19
91	92	10
231	234	1
238	239	5
33	33	17
25	44	4
80	80	9
29	29	9
226	226	9
153	153	10
154	154	16
83	105	2
85	85	28
67	67	14
45	45	27
51	51	13
38	38	13
213	248	3
72	72	8
20	20	11
160	171	1
65	66	2
19	19	11
36	36	13
48	48	12
102	105	5
84	84	8
97	101	4
209	209	18
228	228	11
229	229	1
7	8	2
4	4	7
171	171	7
169	169	3
47	48	3
190	191	4
61	61	5
221	222	3
185	189	3
82	82	17
155	155	11
58	112	5
150	150	16
220	220	15
237	239	5
204	204	7
73	73	5
17	17	2
204	205	4
170	170	9
174	176	2
60	60	7
74	74	4
63	63	11
18	18	9
93	93	17
147	147	6
31	31	10
219	219	19
76	114	1
202	249	2
25	46	2
5	5	6
85	86	5
44	162	6
189	190	3
41	41	8
58	58	8
102	102	12
238	243	5
199	199	11
11	11	12
87	89	4
202	218	4
47	47	12
146	146	6
233	233	9
10	10	6
35	36	8
180	184	5
159	169	1
164	164	9
99	99	6
28	28	16
8	9	2
223	223	3
193	193	7
59	61	3
91	91	5
6	6	13
206	207	1
234	234	4
176	176	7
115	115	8
210	210	9
151	151	9
157	157	7
44	45	2
54	54	10
197	198	3
106	106	11
236	236	8
8	10	7
183	183	5
92	92	6
36	37	4
68	68	7
35	112	1
216	216	3
180	182	1
55	55	8
235	236	7
1	1	6
116	116	5
181	181	9
150	152	2
175	175	6
118	119	4
32	32	13
16	29	2
176	186	2
240	241	4
215	215	11
95	105	1
175	192	3
39	39	3
244	244	6
27	27	8
144	206	1
241	241	13
216	217	2
56	57	3
64	75	3
44	44	11
92	93	4
93	94	4
112	112	4
238	238	10
150	151	1
175	176	8
118	118	3
94	94	13
22	31	2
205	219	2
76	76	4
23	53	1
10	11	2
117	117	6
153	154	3
26	26	12
100	100	6
53	53	5
212	249	2
162	162	4
111	111	6
9	10	6
20	31	2
29	32	1
248	248	2
220	222	4
209	214	3
78	79	5
205	205	5
196	197	2
56	56	6
222	223	1
21	28	2
46	116	3
37	37	12
95	95	14
66	66	11
185	185	4
222	222	11
194	194	11
94	95	1
103	109	4
55	121	1
83	94	1
71	71	5
14	14	4
215	216	2
69	70	3
114	114	6
240	240	7
24	43	2
108	109	4
191	191	3
23	23	9
58	118	2
106	114	2
75	114	2
208	209	2
34	34	6
86	86	3
160	166	6
98	98	9
62	62	14
109	110	7
187	190	2
181	182	1
90	90	5
208	208	11
205	206	2
231	231	5
75	76	5
26	120	1
218	218	16
7	7	8
202	202	3
172	172	8
177	177	5
65	65	6
16	16	4
224	224	14
7	169	3
107	107	5
88	88	9
64	117	3
201	201	8
211	211	3
195	196	2
2	3	4
78	78	4
119	119	2
30	44	5
40	40	10
145	145	19
30	30	8
165	165	8
46	46	8
27	32	1
190	190	10
246	246	6
198	198	3
112	114	5
175	186	1
239	239	7
62	63	2
69	69	2
157	159	2
78	108	3
242	243	1
203	203	7
178	178	5
42	42	10
227	227	11
202	203	2
37	107	4
202	236	3
207	207	5
176	185	2
197	197	3
168	168	6
94	167	3
176	193	4
15	15	13
2	2	4
184	184	9
104	114	3
214	215	2
43	43	7
243	244	1
194	195	3
165	166	4
162	231	2
81	81	4
38	39	2
63	118	3
167	168	1
70	71	2
87	87	3
242	242	5
247	247	2
40	41	1
120	120	9
233	236	2
2	5	2
49	49	10
105	105	4
48	80	4
90	91	3
241	242	2
225	225	5
111	150	2
151	152	2
115	116	4
217	219	2
83	88	1
25	25	8
169	223	1
245	246	7
152	153	4
166	168	2
236	237	3
186	187	4
16	17	4
7	224	2
237	238	2
186	189	1
81	82	2
101	101	3
52	53	2
194	197	1
187	187	5
183	184	2
13	17	2
76	107	1
160	160	1
49	51	1
109	109	11
96	96	9
243	243	6
219	221	3
161	163	3
64	68	2
89	89	4
177	179	2
50	157	2
32	36	1
179	206	1
168	223	1
69	117	2
64	74	4
76	113	2
21	21	3
198	199	4
41	47	2
82	83	2
109	150	1
110	111	2
11	12	1
78	89	2
57	58	1
177	178	1
76	106	2
25	26	1
166	167	2
103	103	2
218	219	2
0	0	1
202	204	2
3	15	4
97	97	1
173	218	2
72	80	4
200	200	9
212	247	1
88	90	2
163	172	1
8	228	1
44	47	2
237	237	8
59	59	11
167	232	1
181	184	1
29	30	3
232	232	4
166	166	4
159	160	2
23	24	1
71	75	4
88	89	3
171	173	4
4	5	2
161	234	1
18	19	2
111	144	1
34	35	3
161	162	4
84	105	1
203	204	4
212	212	4
224	225	2
180	181	2
159	159	2
95	161	2
61	62	3
75	75	1
240	248	4
206	206	2
30	43	1
203	245	6
6	228	3
29	42	3
201	236	2
64	64	1
161	161	1
165	167	2
56	112	2
28	29	3
13	13	1
239	240	1
6	45	3
145	228	2
35	35	3
101	102	1
109	151	2
86	87	2
12	45	1
34	110	4
205	218	3
80	105	1
12	16	2
70	70	3
104	104	3
104	105	3
173	193	1
51	52	2
210	211	5
204	245	2
198	239	2
217	217	10
69	73	2
98	185	3
52	52	7
193	196	2
22	27	3
180	180	4
79	89	3
206	211	1
166	223	2
8	8	1
58	61	1
75	81	1
14	15	1
50	50	2
98	170	2
96	101	2
44	120	1
57	118	1
245	248	1
182	182	2
213	218	1
37	77	3
36	113	1
191	192	1
167	167	4
79	79	3
68	117	3
35	58	2
228	229	1
185	186	2
32	33	1
96	184	3
65	106	1
111	113	2
205	211	1
214	214	2
30	40	2
237	240	2
163	163	2
6	46	1
161	230	2
96	162	1
237	241	2
27	29	1
46	48	2
182	223	1
35	38	4
245	245	2
34	115	3
187	189	1
154	155	2
233	234	1
36	111	1
224	226	1
83	84	1
160	225	3
179	180	4
96	97	1
41	42	1
76	81	1
121	121	2
231	233	3
63	67	1
97	185	1
179	181	1
47	49	1
114	149	1
28	61	2
169	224	1
242	244	1
114	115	1
72	74	3
83	91	2
87	90	1
76	91	1
21	57	1
26	27	3
31	41	1
82	88	1
110	152	1
194	206	3
217	242	1
108	108	1
96	183	1
218	242	2
149	150	1
162	171	2
12	14	2
160	163	1
44	161	1
236	243	1
177	215	1
54	55	1
199	200	1
53	54	1
172	173	1
117	118	1
196	237	1
85	114	1
48	50	1
142	142	1
167	169	1
144	144	2
213	216	3
25	53	1
15	16	1
39	149	1
225	244	1
24	44	1
229	230	1
214	247	1
168	233	1
183	222	1
39	94	1
63	70	1
99	200	1
88	119	1
35	109	1
189	189	1
195	195	1
202	213	1
183	200	1
156	157	2
113	144	1
55	56	1
160	230	1
192	193	1
168	231	1
30	42	1
179	179	1
110	110	1
