37	37	13
53	53	21
133	133	9
24	26	4
124	124	20
89	89	18
75	77	3
26	26	5
11	12	3
97	97	10
95	95	20
8	10	1
106	106	9
93	93	21
20	20	3
72	73	2
67	67	34
70	72	2
138	138	6
63	63	19
17	17	22
79	79	13
127	127	1
38	38	11
115	116	9
31	31	8
50	50	10
71	71	4
107	107	5
117	117	6
128	133	11
30	30	8
109	109	11
85	85	7
36	36	10
91	91	15
14	16	3
70	70	24
56	56	11
43	43	9
102	102	10
103	103	19
80	80	23
104	104	13
33	34	4
98	98	11
67	69	5
41	41	24
118	136	7
122	122	13
55	55	17
84	85	5
28	28	8
121	121	27
74	74	10
134	134	5
82	92	2
73	73	10
126	140	2
40	40	10
48	69	3
117	118	5
49	49	16
134	136	2
135	135	3
78	79	14
69	87	3
15	15	10
97	98	8
99	102	6
112	112	20
92	92	5
16	16	1
88	89	8
2	4	1
53	70	2
27	28	5
130	131	9
52	52	10
23	23	14
122	125	6
54	54	14
130	141	8
15	17	6
70	80	12
66	67	3
136	137	2
34	34	12
82	82	10
38	42	4
59	59	14
29	29	20
80	86	2
99	99	6
140	140	4
21	27	6
59	141	3
96	96	7
128	139	2
13	14	2
142	142	11
1	37	4
1	1	12
5	5	9
74	75	2
1	34	3
13	19	3
14	14	12
23	123	3
81	81	20
69	70	13
128	128	11
16	67	2
38	49	4
26	121	3
10	10	13
76	76	4
22	22	14
113	113	6
110	133	4
61	62	4
1	47	1
103	112	4
35	36	1
122	123	5
90	90	13
101	101	10
143	143	3
108	111	4
108	108	10
86	86	9
60	60	9
139	139	9
135	141	2
53	73	1
120	120	10
87	90	1
62	74	1
48	48	13
126	146	2
47	55	1
50	52	3
13	25	1
120	134	1
27	27	8
118	120	3
145	145	17
129	129	12
84	84	13
62	63	3
58	68	3
25	25	5
21	21	7
42	42	28
144	144	14
72	72	1
17	18	2
61	61	16
118	119	9
29	30	7
6	6	6
22	41	1
3	4	2
20	25	5
83	86	3
64	64	5
12	14	4
110	110	13
99	111	4
111	111	8
54	55	4
39	39	17
57	57	6
141	141	14
131	131	7
77	77	18
126	126	10
32	32	6
8	8	4
13	21	4
33	33	9
56	123	4
24	25	5
119	129	1
9	22	5
94	94	13
137	139	4
75	75	13
68	68	5
9	9	7
19	19	8
51	51	4
83	83	12
15	25	7
21	22	6
124	125	6
92	94	7
10	11	3
87	87	3
0	0	7
62	62	8
127	134	4
21	25	4
108	116	6
140	142	5
76	78	4
125	128	3
15	19	1
48	49	9
47	47	5
76	77	5
135	136	3
103	104	8
137	138	2
114	114	4
14	15	4
77	79	2
143	146	2
103	110	1
102	103	4
105	105	14
101	102	14
94	95	4
99	113	1
93	94	4
49	51	2
30	121	3
132	132	9
66	66	6
34	60	2
142	144	7
18	18	11
53	72	6
115	115	8
20	24	2
60	77	2
11	11	10
89	90	3
130	130	12
4	4	8
142	143	1
31	121	1
119	136	3
64	67	2
58	59	9
33	61	1
2	2	3
119	119	8
27	42	3
37	38	1
128	129	5
40	41	2
56	59	3
136	136	12
50	51	7
59	61	3
88	90	5
22	23	7
3	3	2
92	93	5
34	35	4
125	125	8
112	113	3
108	114	7
12	13	4
27	32	2
69	69	19
31	37	13
126	139	1
57	69	1
81	82	6
137	137	6
4	5	6
24	123	3
121	123	2
32	121	1
116	117	1
95	98	3
58	120	2
52	53	3
141	142	3
103	105	1
79	107	1
4	41	2
18	41	1
84	92	1
1	42	1
58	71	1
115	117	3
136	140	3
65	66	3
127	139	3
107	118	7
105	112	1
65	65	4
138	139	3
43	49	1
39	40	3
121	137	2
132	140	2
99	132	2
19	42	5
26	27	4
70	71	2
98	109	3
18	19	5
123	124	2
104	111	2
1	2	2
72	74	4
2	3	1
16	20	4
125	129	1
53	56	6
96	98	3
116	116	5
39	49	1
30	37	6
81	92	2
79	80	1
98	110	3
50	53	2
17	67	3
13	34	1
64	65	2
81	85	2
41	48	4
131	134	4
4	36	3
99	110	1
27	29	3
105	109	1
88	88	3
16	123	2
83	85	3
19	25	2
123	123	3
10	23	2
123	125	3
119	120	3
14	17	1
9	10	2
112	115	2
41	42	3
100	137	1
101	136	1
126	143	1
9	11	2
79	82	4
91	92	1
127	130	2
100	100	6
5	7	1
120	121	1
99	124	1
130	135	1
15	69	6
38	40	1
130	134	1
25	31	1
53	54	2
109	110	1
80	108	2
118	118	3
106	118	2
4	19	2
56	78	1
15	40	2
114	117	1
85	90	1
129	131	1
47	49	1
127	138	1
136	138	1
9	23	1
67	91	1
33	35	4
54	62	2
13	18	1
84	88	1
128	130	1
113	114	1
48	55	1
94	106	3
78	78	2
24	24	1
136	139	1
36	47	1
16	18	2
87	89	1
100	101	2
111	113	2
127	136	1
33	62	1
97	116	1
6	27	1
31	32	1
0	1	1
64	74	1
57	60	2
8	9	1
111	112	2
16	17	3
143	144	1
95	105	1
100	141	1
83	92	1
129	141	1
134	135	1
99	133	1
55	60	1
127	140	2
98	99	1
78	97	1
2	32	1
96	97	1
124	127	1
101	106	2
58	58	4
103	106	1
125	133	1
133	140	1
108	109	1
29	32	2
68	69	2
48	70	1
53	74	1
47	56	1
28	42	2
100	118	2
1	3	1
132	133	1
101	103	1
66	69	3
67	68	1
140	143	1
0	39	1
51	52	1
59	118	1
54	74	1
15	16	1
127	128	1
56	57	1
