183	184	1
214	215	5
166	196	8
18	19	1
168	202	3
59	61	3
248	248	4
230	231	4
26	30	3
150	150	4
16	16	6
47	47	4
72	72	4
223	223	6
64	109	3
89	89	1
113	153	1
64	64	5
210	211	2
213	229	1
216	216	2
59	118	2
169	192	3
152	152	7
159	186	1
199	199	8
86	95	1
166	167	1
221	223	7
151	151	4
79	109	1
187	200	3
166	166	7
38	38	7
58	58	5
240	240	4
216	217	2
207	215	2
169	169	4
42	50	3
171	171	4
176	176	11
86	88	2
162	175	6
239	239	5
34	37	3
215	247	3
43	75	1
229	230	1
169	228	1
222	222	2
190	190	7
180	181	3
212	249	2
71	71	2
146	146	2
192	194	1
164	164	1
94	94	6
107	108	3
41	41	3
154	154	7
215	242	5
243	244	4
76	76	3
146	147	2
43	43	4
215	215	4
84	84	5
176	180	1
118	119	1
200	202	1
160	160	2
232	232	1
192	192	4
145	147	1
70	109	4
146	173	1
93	95	2
25	35	1
91	107	2
203	203	3
238	238	2
56	184	2
156	156	1
74	74	2
70	70	1
99	99	4
112	112	4
172	172	6
7	7	2
80	120	2
218	219	1
48	48	2
45	45	2
12	12	2
108	178	2
186	189	2
217	217	1
95	95	2
179	179	2
18	18	2
59	90	3
204	204	1
25	223	2
117	117	6
202	205	3
4	4	3
178	178	2
185	185	3
90	90	3
2	2	2
232	233	2
102	104	5
97	98	1
228	228	6
28	38	1
205	205	2
165	196	3
107	158	1
214	214	3
168	243	1
10	11	1
55	59	2
180	182	2
32	32	2
69	69	3
169	170	4
221	222	1
164	194	2
51	51	2
237	237	2
66	67	4
155	155	2
145	145	3
68	68	1
108	109	2
179	180	2
112	156	2
215	241	1
145	185	1
201	202	3
30	30	8
243	243	2
40	41	2
77	77	2
74	103	1
212	212	2
111	117	1
30	31	1
247	247	2
9	9	5
111	113	2
233	233	2
63	185	1
235	235	6
22	22	2
209	209	1
56	56	5
35	48	1
223	225	1
196	196	1
226	226	1
33	33	4
23	23	1
171	192	1
242	242	5
206	215	4
89	90	2
100	100	4
6	6	2
191	210	5
116	173	2
39	40	2
227	227	4
198	198	2
35	35	1
88	88	6
189	189	5
224	224	1
245	245	2
220	220	4
59	88	2
197	197	5
114	114	1
225	230	1
183	185	2
116	116	2
242	243	4
237	240	2
183	183	1
191	192	1
194	194	2
41	75	1
229	229	3
169	198	4
158	158	1
54	184	2
220	232	2
170	171	3
187	187	1
11	11	3
50	51	1
9	15	2
115	115	3
159	199	5
97	100	1
63	83	2
210	210	2
182	193	2
62	90	2
18	21	3
96	96	2
116	158	1
86	112	1
222	223	1
241	247	1
80	80	2
208	208	2
35	42	1
186	188	1
19	19	2
67	68	1
71	79	2
111	112	1
191	191	2
21	87	2
21	21	1
41	78	1
31	31	1
3	3	2
165	165	1
74	98	1
51	68	2
163	187	1
79	79	2
35	36	1
11	12	1
247	248	2
38	40	1
91	97	1
75	75	1
10	10	2
3	31	1
193	193	3
8	27	1
102	103	1
157	158	3
58	60	1
177	180	2
207	214	1
111	111	2
82	89	1
182	195	2
220	235	2
168	168	2
145	162	2
162	162	3
87	88	1
220	237	2
213	213	1
42	43	2
108	108	2
168	200	1
209	210	2
78	78	1
31	32	2
149	149	1
6	46	1
82	83	1
101	101	1
111	156	2
28	224	1
162	163	1
163	164	1
105	106	1
165	172	3
217	218	1
27	27	1
99	100	2
112	118	1
240	241	1
81	82	1
106	106	1
236	236	2
218	249	1
244	244	1
161	163	1
224	225	1
164	188	1
113	156	1
60	62	2
198	199	1
105	105	1
104	104	1
235	236	1
61	90	2
5	245	1
110	111	2
219	219	2
193	194	1
195	195	3
230	230	1
212	213	1
208	228	1
113	113	1
86	86	1
89	91	1
53	65	1
98	103	1
159	159	1
180	180	1
20	40	1
