37	37	8
42	42	13
4	4	10
39	56	5
29	30	2
8	8	18
54	55	2
53	53	16
44	45	11
4	5	6
54	54	20
3	3	23
32	32	7
18	54	2
10	11	6
44	44	13
61	61	6
21	21	16
13	13	17
13	14	4
48	49	3
33	33	10
17	51	1
25	25	5
41	41	16
31	31	10
21	46	1
3	4	4
57	57	15
1	2	1
58	58	10
24	25	4
2	2	15
55	55	6
11	11	15
18	18	21
62	62	7
43	43	22
45	45	26
1	1	20
22	22	30
17	18	1
17	53	6
39	39	16
39	40	3
18	23	3
37	58	11
39	42	3
19	19	17
50	50	11
44	47	2
56	57	12
52	54	3
51	51	7
34	34	11
56	58	5
46	46	6
0	0	15
47	52	2
18	51	3
16	16	8
24	24	19
17	21	6
45	46	8
9	10	9
19	20	8
30	30	4
30	31	10
14	24	2
20	21	3
38	58	11
49	50	1
50	55	5
33	44	4
8	9	9
15	15	17
48	48	25
6	8	1
41	53	4
12	13	1
20	23	3
14	15	10
11	12	7
34	60	3
36	37	5
14	17	2
16	17	3
6	6	13
2	3	1
46	47	3
17	23	2
16	23	5
52	52	9
35	35	13
6	12	6
14	14	8
40	40	6
50	51	13
60	60	3
37	49	2
18	24	2
51	52	9
14	16	1
47	47	7
39	43	1
43	46	1
52	55	1
53	54	3
31	32	4
56	56	10
23	23	11
23	24	5
22	23	2
17	17	11
37	38	7
38	38	6
24	54	2
18	19	5
7	7	19
9	9	12
47	56	1
17	20	4
12	12	15
20	20	5
33	37	1
35	42	4
40	41	4
36	42	3
6	11	4
49	49	6
46	52	1
23	25	1
59	59	8
15	16	6
5	13	5
32	33	1
7	10	2
42	43	4
46	55	3
7	9	1
29	29	2
43	44	7
51	55	1
40	42	1
43	57	1
15	17	2
51	53	2
47	57	1
11	13	1
38	39	1
7	11	4
16	22	4
52	53	6
31	45	1
36	36	4
21	23	4
15	22	1
10	10	2
47	48	2
33	56	2
49	58	1
10	30	1
49	56	1
6	7	1
12	14	1
41	54	2
57	58	2
35	37	1
32	50	1
25	30	1
25	26	2
41	43	1
37	56	1
5	6	1
39	41	1
35	36	1
37	40	1
5	5	3
0	1	1
38	59	1
9	11	1
14	23	1
55	57	2
7	8	1
12	15	2
14	22	1
3	43	1
38	42	1
58	59	1
36	38	1
19	21	1
