0	0	4
10	10	9
25	25	9
104	119	2
6	6	7
75	75	11
136	138	4
31	31	9
16	17	2
88	117	1
137	137	10
129	129	9
113	114	3
20	20	8
127	128	5
92	124	1
5	5	6
81	82	1
72	72	9
126	126	7
87	87	5
103	103	11
12	12	7
86	86	12
137	138	3
114	114	10
82	82	8
96	96	2
30	30	9
36	36	7
19	19	5
88	100	5
32	35	5
112	112	8
125	125	7
91	124	4
103	108	1
15	35	2
87	89	6
132	132	12
32	33	1
109	110	3
85	85	8
14	29	2
135	136	8
37	37	7
109	109	10
95	96	2
128	128	11
79	80	1
140	140	7
73	133	1
98	100	5
26	26	9
73	73	12
134	134	7
24	24	6
71	123	3
106	106	10
7	8	5
15	15	7
3	4	9
35	35	9
6	8	3
133	133	5
15	31	2
83	83	2
117	119	4
95	95	4
102	119	1
133	134	2
82	84	1
72	134	4
119	119	15
87	88	3
18	18	6
113	113	7
122	122	8
28	29	3
16	16	17
136	137	6
32	32	8
138	139	5
34	34	4
94	94	11
0	7	3
34	35	2
101	102	2
117	118	5
104	104	8
102	102	6
28	28	20
27	27	3
116	116	7
123	123	8
136	136	12
115	115	11
77	78	5
101	101	8
16	140	1
98	98	8
78	78	7
1	1	6
130	130	3
91	122	1
87	118	3
118	118	3
33	33	6
85	90	2
74	75	2
7	93	3
131	131	8
123	130	2
114	115	1
115	119	4
14	14	5
86	102	2
135	140	3
0	8	1
3	3	5
24	25	1
14	15	1
33	38	2
15	33	3
134	135	4
99	99	2
111	112	6
29	29	3
10	12	2
4	4	9
85	86	4
108	108	2
80	101	2
77	77	5
15	37	2
130	131	4
74	133	2
107	107	2
121	122	4
93	93	6
139	139	5
15	140	1
90	90	1
2	3	4
97	97	8
121	121	2
2	5	1
91	91	6
81	81	7
72	73	1
13	18	2
79	79	4
97	98	5
111	111	3
80	80	2
108	111	4
110	110	6
110	111	7
25	37	1
74	77	1
19	33	2
37	38	1
9	9	8
7	7	8
108	109	2
2	8	2
120	120	5
19	21	3
11	12	2
100	100	3
16	21	1
88	88	5
92	92	4
9	10	3
11	11	5
17	17	6
0	2	3
23	23	2
118	120	1
122	123	1
124	124	1
9	21	2
12	19	1
75	114	1
15	16	3
126	127	2
119	120	2
74	74	5
22	22	4
0	82	3
88	99	1
73	75	1
71	71	3
71	98	1
82	102	2
126	132	1
6	9	2
135	135	5
127	129	4
8	8	2
83	84	2
138	138	2
114	129	1
73	74	1
26	37	4
117	117	2
86	112	1
21	21	5
139	140	1
74	98	1
1	5	1
18	19	2
9	12	3
33	34	2
36	37	1
123	124	1
98	99	1
104	120	2
1	83	1
27	28	2
18	31	1
125	126	1
72	75	3
71	89	1
20	22	1
76	76	2
124	126	1
127	127	2
102	108	1
96	122	1
102	103	2
116	117	3
101	108	1
92	93	1
29	30	1
2	2	1
89	89	2
123	129	2
1	7	1
12	15	1
75	105	1
78	103	1
7	9	1
105	105	2
2	4	1
31	32	1
31	34	1
88	101	1
109	117	1
104	105	2
20	30	1
15	141	1
