109	109	2
147	147	9
125	125	4
112	112	2
110	110	15
16	20	4
7	7	4
12	67	6
38	38	4
55	56	2
149	149	5
85	85	2
93	93	7
139	139	1
7	51	5
84	85	3
73	73	14
149	150	2
138	138	5
26	26	6
104	151	1
36	36	5
105	105	8
34	79	3
102	102	5
74	74	3
152	152	3
8	35	1
106	106	4
18	18	4
100	100	9
12	46	3
63	63	1
54	55	5
12	13	5
94	94	3
67	67	3
138	142	4
16	16	1
97	145	4
107	107	4
13	47	7
7	37	6
13	69	3
77	80	7
112	113	3
15	16	2
20	20	3
107	136	2
24	24	3
95	96	1
14	14	7
110	111	2
10	36	5
23	23	3
97	97	7
76	77	6
5	6	2
15	15	2
126	126	6
44	44	10
93	99	2
68	68	2
83	83	1
49	49	3
50	50	9
17	17	1
14	57	1
97	144	1
133	133	5
12	12	5
120	121	1
143	144	3
118	118	6
103	150	1
35	62	5
88	88	6
19	28	2
96	96	7
13	13	4
120	120	1
153	153	5
108	108	3
115	115	2
15	19	3
3	3	1
104	104	3
139	141	3
79	79	3
68	69	3
46	46	2
39	39	1
123	123	4
90	90	4
56	56	5
150	150	1
122	123	4
7	11	6
103	104	2
144	144	2
3	64	1
37	37	3
151	151	5
86	101	1
89	101	2
67	68	4
124	125	3
121	121	2
45	45	5
103	151	3
131	131	2
77	77	1
4	4	1
54	54	1
42	42	1
65	65	4
129	131	4
64	64	2
128	128	1
131	134	1
134	134	5
150	151	3
101	101	1
25	54	2
73	77	2
109	110	2
103	140	3
83	84	1
124	128	2
57	57	3
98	98	1
32	32	1
66	66	1
53	53	1
45	46	1
127	128	1
25	26	1
135	138	1
13	68	1
99	99	4
114	114	2
137	137	2
67	69	1
144	147	1
47	48	1
69	71	3
21	21	2
3	65	1
113	113	4
144	149	2
15	53	1
69	70	2
135	135	1
113	117	2
92	92	2
82	82	2
136	138	1
94	100	1
10	10	2
14	68	1
86	86	1
4	62	1
62	63	1
35	35	1
116	116	1
113	114	1
136	137	2
4	5	1
65	76	1
104	150	1
119	119	2
140	151	1
119	121	1
34	34	1
18	19	1
22	22	1
38	41	1
119	120	1
132	132	1
24	25	1
