77	77	5
7	7	6
112	112	2
28	28	4
91	91	7
23	23	11
108	124	1
47	74	5
105	105	5
140	142	1
66	66	2
125	126	7
124	124	2
157	158	3
24	94	1
11	12	2
16	16	12
131	131	9
125	125	4
130	132	2
158	158	8
120	120	5
101	101	2
151	151	4
136	136	2
82	83	2
35	35	4
125	147	3
6	6	9
21	21	1
128	128	12
79	81	2
83	84	2
10	10	2
107	107	3
9	10	6
90	91	2
85	86	1
83	83	7
109	109	2
92	92	4
134	138	5
82	82	7
1	1	3
88	88	9
20	148	3
155	155	3
44	44	1
43	44	3
150	150	5
81	114	2
29	30	5
3	4	2
111	111	3
140	140	9
151	152	6
156	156	6
95	96	6
17	18	1
30	30	5
139	139	5
122	129	3
62	63	1
114	114	2
28	29	1
39	39	3
80	80	8
123	123	4
80	81	3
94	95	2
36	36	2
4	5	1
157	157	2
84	84	3
90	90	1
18	18	5
116	116	7
147	147	2
93	93	3
38	38	1
115	115	2
110	110	1
1	2	4
81	115	3
141	141	4
45	45	5
87	159	3
89	89	2
102	102	4
148	148	4
2	2	8
28	97	3
139	140	2
121	129	2
8	39	1
106	106	4
95	95	5
67	68	2
148	150	1
32	32	1
87	87	6
43	43	4
77	78	2
100	100	2
73	73	4
116	117	2
96	96	2
121	122	2
136	137	2
152	152	1
132	132	5
85	85	2
108	144	1
89	156	4
100	101	2
98	98	3
79	80	1
142	142	1
149	149	1
88	89	1
67	67	1
63	67	1
11	14	5
130	130	1
79	79	2
127	127	4
125	132	4
22	22	5
117	117	4
138	138	3
25	25	5
94	94	2
132	135	3
76	76	1
21	148	2
40	40	1
99	99	2
86	86	2
155	156	5
50	51	1
13	14	3
118	121	1
0	0	1
51	51	1
89	90	1
125	134	1
144	144	2
6	11	3
111	112	3
5	5	2
146	147	3
64	66	1
134	134	2
2	5	1
135	135	3
129	139	2
19	19	3
24	24	3
82	115	1
42	42	1
154	154	1
121	121	1
27	27	3
26	26	6
24	28	1
97	97	2
87	88	2
38	39	2
13	13	1
22	23	1
125	127	2
144	147	2
126	126	1
15	15	1
52	52	2
104	104	1
4	4	1
6	42	1
34	34	1
14	14	1
55	55	1
121	123	1
137	138	1
134	135	1
