37	37	3
69	69	10
46	47	1
72	72	7
93	96	3
87	87	13
39	39	4
80	81	3
65	65	19
92	92	10
38	40	2
54	54	11
48	54	1
39	40	7
91	91	8
34	34	7
52	85	2
90	100	1
84	84	2
98	100	2
96	97	1
74	75	5
24	93	2
62	62	12
71	73	1
57	57	10
66	66	8
47	47	6
49	49	10
27	29	1
75	75	14
86	87	2
97	97	3
78	78	8
60	60	5
61	61	4
85	85	5
91	101	5
40	40	16
79	93	5
25	45	3
46	46	1
89	89	8
43	43	9
70	70	9
28	29	1
79	79	6
53	53	8
44	44	11
24	24	1
96	96	8
66	68	3
100	100	8
40	41	2
93	94	6
78	79	5
67	67	24
60	61	1
72	77	1
88	88	4
52	52	9
72	81	3
56	56	4
50	60	2
65	72	3
42	42	5
52	55	1
68	68	16
69	71	4
41	41	9
81	81	6
63	63	16
76	76	11
63	85	1
33	33	1
29	29	5
84	90	4
64	64	9
23	91	2
32	32	3
29	83	2
80	80	13
93	93	10
26	73	3
48	48	5
23	23	3
52	77	2
58	58	2
54	55	2
71	72	2
74	74	3
73	73	6
77	77	12
65	66	2
62	82	1
94	97	1
38	38	6
70	77	2
90	90	9
63	64	3
34	52	4
79	80	7
71	71	10
34	37	2
95	96	4
62	79	5
60	62	2
79	83	1
51	93	1
35	35	2
69	70	2
94	94	3
74	78	2
85	89	1
83	83	9
98	98	6
53	55	1
85	86	1
58	61	1
76	77	2
67	68	1
97	100	2
22	22	3
31	31	1
25	100	1
90	102	1
44	64	2
55	55	3
72	83	1
25	25	6
65	70	4
34	39	2
30	30	1
97	98	1
86	86	4
50	51	1
70	72	1
82	89	1
73	74	3
42	65	2
61	98	1
78	82	2
24	91	1
23	27	1
76	80	1
81	82	2
45	45	1
25	84	2
86	101	1
59	59	5
49	59	1
27	27	4
85	94	1
26	72	2
86	89	1
28	98	1
46	53	2
87	93	1
25	91	1
65	69	1
95	97	2
28	28	1
89	96	1
41	42	2
34	35	2
84	86	2
55	61	2
63	77	1
26	46	2
36	36	1
73	76	1
86	98	1
58	86	1
51	52	1
33	39	1
31	52	1
66	67	1
33	34	1
61	88	1
62	63	1
77	78	1
47	48	1
33	36	2
29	30	1
90	91	1
72	74	1
72	85	1
45	53	1
58	60	1
34	40	1
79	81	1
65	71	1
