114	114	14
62	63	2
61	73	2
99	102	2
65	117	1
130	133	5
25	25	5
117	117	2
97	97	14
96	96	6
125	125	14
77	77	7
66	117	2
101	101	11
28	28	8
44	134	2
79	107	1
21	21	7
88	88	9
73	73	13
11	14	9
113	113	15
43	45	2
80	81	1
33	34	2
7	36	2
18	18	6
1	81	4
34	35	3
107	110	5
9	9	2
101	102	8
11	45	5
118	118	3
126	127	7
70	70	9
53	54	6
104	104	2
2	44	6
89	90	10
50	50	7
113	114	2
43	58	2
95	95	11
76	76	10
114	115	2
24	24	5
22	22	9
11	27	2
123	133	1
4	11	4
5	6	4
74	74	10
103	103	8
80	86	1
53	53	6
26	29	8
91	91	9
1	2	4
70	125	7
72	121	2
80	80	5
60	60	10
94	94	6
72	74	1
124	132	2
11	11	12
133	133	12
6	33	3
132	133	8
81	81	7
48	126	1
46	86	2
55	129	3
46	52	2
45	45	5
55	97	2
18	26	2
50	78	1
110	110	8
119	119	2
12	12	7
124	124	7
55	55	10
35	35	16
15	15	7
4	114	3
120	121	2
64	87	1
20	20	2
27	27	14
112	112	4
45	58	3
84	84	1
73	74	5
135	135	2
71	134	1
92	92	8
122	122	5
46	53	1
47	130	4
74	105	1
78	106	5
43	44	2
8	109	3
74	122	2
50	112	3
71	121	4
102	102	8
90	94	1
1	14	1
129	130	4
130	130	10
19	37	2
4	10	3
90	123	3
11	43	1
76	119	2
36	36	5
43	43	10
120	124	3
125	130	1
1	69	2
59	60	6
65	65	6
49	114	5
121	121	10
67	67	3
61	63	4
2	2	9
16	79	2
86	130	1
0	119	3
84	86	3
44	44	6
17	18	6
63	63	10
8	8	11
56	56	2
127	127	7
59	59	2
65	84	3
43	132	1
113	117	1
108	115	8
68	69	2
50	96	1
17	17	6
5	12	3
123	129	2
106	106	5
85	86	3
44	110	1
90	90	5
112	118	6
111	111	6
95	129	1
107	107	12
57	58	4
122	132	2
31	31	5
121	132	2
121	122	3
52	115	1
129	129	3
37	37	8
34	34	1
6	31	2
72	119	3
86	86	6
78	78	1
16	20	2
121	123	2
11	134	2
78	86	3
16	16	6
91	92	1
61	61	5
26	116	2
126	126	10
1	19	3
79	81	3
75	121	1
33	33	13
3	107	1
44	86	1
70	128	3
14	14	6
131	133	2
5	5	5
57	57	1
2	45	2
54	54	3
49	49	1
128	128	5
26	36	2
89	89	5
115	122	2
87	87	2
16	17	1
0	0	5
56	58	3
71	71	3
8	9	3
61	71	2
114	116	2
12	33	1
19	21	4
24	26	4
61	74	1
4	9	2
80	108	2
48	123	5
14	27	2
76	109	1
64	64	1
0	81	2
70	121	1
116	116	6
72	72	13
55	96	1
35	109	6
50	60	1
122	126	3
52	85	1
130	131	1
4	110	4
69	84	2
46	128	1
82	82	3
6	6	1
10	13	3
86	87	2
2	120	2
50	83	2
71	124	2
121	127	2
60	81	1
52	55	1
71	128	4
69	70	2
115	115	6
112	113	2
115	117	5
95	100	2
47	55	1
128	130	2
32	32	5
14	16	1
92	93	4
106	107	3
51	51	1
86	116	1
93	94	5
103	127	2
54	119	1
62	87	3
14	15	2
73	95	1
21	22	3
99	100	3
79	117	3
94	100	1
3	116	1
120	120	3
118	119	2
16	77	2
74	75	2
19	19	1
43	118	2
100	100	2
7	8	4
105	105	2
67	68	3
4	5	1
61	87	3
5	26	2
85	85	1
131	132	1
25	28	2
45	119	2
12	32	1
12	15	1
10	10	3
13	38	2
57	111	3
61	106	1
106	111	1
31	32	2
25	26	1
107	108	3
12	26	1
109	109	5
95	97	4
52	53	2
69	69	1
66	106	2
60	64	4
72	73	1
30	31	1
13	13	1
19	29	1
79	79	3
123	123	1
75	76	1
83	125	3
108	108	1
56	60	1
68	70	2
99	99	3
110	113	2
92	101	2
90	93	1
106	119	2
106	110	2
19	20	1
104	105	1
69	76	2
1	44	2
6	30	4
12	13	1
50	130	2
47	83	1
33	36	2
74	107	1
6	38	2
93	93	1
57	105	1
45	129	1
44	81	1
38	109	1
94	102	2
113	134	1
11	12	1
125	126	1
21	81	1
126	129	2
83	133	1
48	80	1
105	116	1
69	112	2
51	61	2
78	85	1
85	87	2
75	75	1
54	114	2
3	3	2
61	72	2
43	77	2
3	115	2
82	107	1
68	68	1
110	117	1
77	78	2
72	105	1
64	65	1
88	112	1
58	60	1
58	58	1
77	108	1
44	112	1
10	26	1
74	125	1
26	26	1
53	84	1
51	130	2
76	77	1
88	124	1
66	67	1
20	28	1
