74	74	10
37	38	6
30	30	29
144	144	19
22	22	12
84	111	1
32	32	14
110	110	18
122	123	5
27	27	16
18	19	13
115	116	13
0	1	4
69	69	20
40	40	20
107	107	12
111	111	15
123	123	6
67	68	8
1	1	31
141	141	15
20	21	12
61	62	11
109	109	19
93	94	8
113	113	14
10	97	3
34	34	24
102	102	12
88	91	4
28	29	9
81	91	2
27	28	6
25	28	3
87	87	21
33	33	23
88	89	12
59	91	2
116	116	27
70	71	10
21	21	10
22	23	9
89	89	29
56	56	20
21	22	7
50	50	14
28	30	1
39	39	31
140	141	6
53	142	4
18	18	22
134	144	4
70	70	33
85	85	28
24	24	18
141	142	17
69	75	2
99	99	13
86	86	14
24	41	7
3	3	20
38	38	11
63	63	11
106	106	10
16	16	14
9	9	26
13	35	6
125	137	3
0	0	19
48	83	5
127	127	15
15	16	16
23	23	14
11	11	23
115	115	18
63	81	2
94	94	17
68	68	21
1	2	4
26	26	27
136	138	5
57	57	11
129	129	21
101	101	13
135	139	4
76	76	15
130	130	7
87	135	1
29	29	29
64	127	5
110	126	3
37	37	19
75	75	7
59	59	18
48	48	22
29	31	6
37	110	4
99	100	14
75	76	1
63	64	6
128	128	12
71	71	9
119	119	17
78	79	8
71	72	9
8	9	5
70	72	1
82	82	13
108	108	12
78	78	22
124	125	15
66	133	2
140	140	15
24	25	13
51	51	20
104	104	13
69	70	21
42	42	13
28	28	15
18	30	2
11	26	1
117	117	14
109	111	7
103	103	28
120	121	6
114	114	16
76	77	10
66	67	4
38	51	1
8	104	4
61	61	15
20	47	6
68	69	2
96	96	23
10	21	2
16	82	5
47	98	2
84	84	24
64	132	3
143	144	5
41	41	14
137	137	4
99	101	9
19	19	12
46	107	3
22	27	2
140	142	5
97	97	35
125	125	24
2	34	3
5	5	9
22	28	2
106	107	3
52	52	10
47	47	21
133	134	9
72	72	23
49	51	3
88	88	11
93	93	25
64	79	4
103	104	6
138	138	6
43	43	10
26	27	13
2	11	4
95	95	23
70	75	2
134	134	14
6	6	18
131	131	22
120	120	30
9	10	7
85	86	11
2	2	16
7	23	2
92	92	14
13	13	7
100	137	2
71	104	1
54	55	9
89	91	3
105	106	7
101	102	11
100	100	9
118	118	32
129	131	1
52	89	4
77	77	20
55	57	6
25	25	18
71	79	2
77	79	2
31	31	19
52	129	1
35	36	7
8	8	16
98	98	18
137	140	3
131	133	5
101	103	9
86	87	5
65	85	7
87	108	3
126	126	18
64	65	12
127	133	2
125	131	2
80	81	12
90	90	11
20	20	10
58	59	6
10	101	2
95	96	3
112	113	1
135	135	13
51	72	3
92	94	8
10	10	20
136	136	16
105	105	21
73	75	6
71	73	8
56	104	4
122	135	1
90	92	3
104	105	5
73	74	7
124	124	11
141	143	3
13	34	5
127	128	11
56	57	7
59	133	5
64	133	3
59	71	5
136	139	4
25	26	6
59	131	4
38	49	4
62	62	28
142	143	5
134	136	2
74	75	10
41	42	12
140	143	9
55	56	11
10	11	3
49	49	22
127	129	1
87	91	4
73	73	16
2	4	2
29	30	8
32	33	6
99	136	1
52	53	12
133	133	5
132	132	1
54	104	3
53	54	14
64	64	14
67	67	8
66	77	1
55	105	2
30	31	2
122	122	8
107	119	2
53	57	1
4	11	4
103	141	1
57	131	2
2	5	1
81	81	16
14	14	11
117	118	7
60	60	12
128	129	7
112	112	9
80	80	19
145	145	10
123	140	1
67	69	5
138	139	3
42	50	1
109	122	2
136	140	2
51	52	3
60	130	1
110	114	2
121	121	10
17	18	4
3	35	3
49	52	1
5	47	1
12	13	6
68	77	1
13	16	4
65	79	2
87	88	2
13	79	1
69	76	3
142	144	6
60	131	2
13	36	2
54	54	11
55	55	16
65	65	9
83	83	11
18	21	3
97	98	11
123	124	3
77	78	8
1	6	3
92	93	1
119	134	3
49	55	3
97	135	3
15	15	10
95	124	1
122	143	1
4	4	14
95	99	5
31	32	2
53	93	8
139	139	3
90	91	4
119	136	1
91	91	10
15	17	1
56	71	1
124	128	1
58	58	20
13	14	4
15	25	1
2	3	8
42	79	1
9	70	3
76	79	5
76	78	4
107	108	4
36	36	6
119	122	2
125	127	3
79	79	17
14	33	2
142	142	4
97	108	1
143	145	1
102	103	10
15	69	1
97	99	1
37	39	7
32	112	4
98	101	3
116	117	6
47	48	7
5	34	2
40	101	5
34	35	3
121	140	3
35	85	2
66	68	2
53	53	8
19	31	3
11	27	1
41	88	1
100	101	2
131	141	3
6	48	1
67	77	3
17	17	10
146	146	4
38	39	4
121	123	6
52	104	4
94	101	3
115	118	2
52	128	5
91	92	2
61	94	1
84	86	2
117	144	2
57	58	6
48	84	1
0	33	2
143	143	12
116	118	2
144	145	2
73	127	4
12	12	4
125	129	2
129	130	3
33	34	1
68	97	4
79	80	2
114	117	3
23	68	2
93	95	4
64	85	1
67	71	2
33	53	5
121	122	1
128	141	5
28	41	1
0	82	2
130	131	4
56	105	2
36	37	2
57	70	1
47	56	3
52	112	2
100	102	1
12	16	3
111	128	2
1	3	4
126	128	5
60	61	6
37	108	4
6	33	3
39	107	1
62	63	3
114	120	1
6	10	3
73	82	1
127	132	2
16	40	1
72	73	2
53	140	1
10	68	4
56	77	1
73	78	2
145	146	8
111	112	2
66	94	1
9	27	1
102	142	1
82	83	2
100	135	2
65	78	2
95	126	5
71	74	2
30	92	1
65	66	3
67	70	5
27	94	2
124	129	1
105	119	1
109	116	3
95	110	3
119	120	1
110	117	2
135	136	6
47	88	3
122	139	2
47	49	1
35	35	9
82	103	2
47	85	1
58	65	1
5	32	1
96	114	2
56	78	2
65	99	1
96	124	2
88	93	3
98	103	4
89	133	1
131	135	1
109	110	5
114	115	4
127	131	1
125	126	1
36	107	2
112	114	5
72	76	1
37	114	1
90	113	2
133	139	2
4	5	1
88	90	3
87	93	1
29	141	2
105	107	2
22	26	3
4	6	1
40	41	1
58	60	3
60	65	2
70	103	1
113	116	1
61	131	3
53	111	2
129	140	1
58	92	2
113	114	3
28	94	2
12	15	3
38	42	1
8	29	3
89	90	2
66	66	6
17	38	1
128	142	3
117	125	1
59	60	1
77	93	1
8	70	1
6	11	1
112	121	1
6	9	2
118	119	1
114	121	1
63	66	2
16	41	1
94	95	1
36	39	2
41	43	2
96	120	1
32	113	1
61	64	1
50	51	2
75	112	2
72	79	1
23	27	1
132	133	1
83	84	5
38	41	2
12	39	1
112	115	1
26	57	2
55	104	1
123	141	1
109	112	2
127	140	2
30	93	2
136	137	2
73	81	1
72	110	2
41	59	2
39	113	1
134	135	3
74	112	1
4	13	1
5	6	1
57	72	1
131	132	2
126	131	1
130	133	2
1	37	1
104	107	1
18	20	1
38	116	3
55	72	1
87	90	1
31	107	1
78	106	1
60	64	1
123	136	3
47	106	1
31	33	1
32	115	1
49	104	1
126	127	1
48	80	2
100	103	1
138	140	1
49	54	1
47	107	1
30	106	1
39	86	1
43	60	1
38	104	1
81	82	1
5	79	1
28	77	1
30	88	1
128	130	1
104	109	1
42	43	1
96	97	1
99	104	1
98	99	1
56	59	1
43	76	1
32	108	1
126	129	1
1	80	1
51	53	1
135	143	1
62	94	1
111	126	2
10	12	1
39	40	1
21	30	1
124	127	1
23	25	1
115	117	1
