74	74	11
131	131	4
112	112	11
15	102	1
34	34	6
2	2	9
61	61	6
73	73	2
8	15	1
79	83	3
27	40	5
100	100	9
11	18	2
91	122	2
83	83	9
58	101	3
85	94	5
22	23	3
46	46	12
36	36	3
54	56	9
114	122	4
35	36	1
38	38	10
108	108	2
56	56	3
28	32	1
81	81	7
121	121	11
8	45	2
107	112	5
124	124	8
64	75	1
10	10	17
41	43	5
72	72	8
48	48	5
94	106	3
1	66	1
97	131	2
93	103	3
9	10	7
80	127	3
35	35	8
27	27	5
48	77	1
90	93	5
90	122	2
130	132	3
128	128	6
32	32	2
107	111	3
70	70	8
37	37	11
14	55	2
3	67	6
33	33	10
63	63	12
22	27	5
73	76	9
21	21	7
62	62	4
82	105	5
126	127	6
93	97	3
133	133	13
90	90	8
0	1	1
14	28	1
86	86	7
112	113	5
5	5	3
129	129	7
44	44	4
109	112	1
57	57	3
58	58	5
113	113	6
77	78	2
13	13	3
130	130	9
91	91	4
76	77	2
85	85	7
112	132	5
134	134	6
90	114	1
38	83	2
12	31	3
27	28	2
82	125	3
44	60	2
50	50	3
123	123	9
106	110	9
17	17	2
28	28	9
95	102	2
11	12	5
121	123	2
79	80	10
71	71	7
113	114	3
86	103	1
115	117	5
62	73	2
60	63	2
12	18	3
101	101	7
92	92	6
91	108	2
82	82	12
92	103	3
59	59	3
89	90	6
87	88	5
43	43	5
13	56	1
118	119	7
5	35	3
102	125	2
17	43	2
64	64	3
13	28	3
112	133	5
60	60	9
121	122	4
18	45	3
11	11	11
76	120	2
31	31	14
9	11	13
80	80	7
4	39	2
1	1	5
22	22	7
84	85	5
111	112	2
128	130	8
28	29	7
82	95	2
55	55	3
8	8	8
30	30	6
47	47	10
56	87	4
131	132	5
26	26	10
12	34	2
124	133	1
94	133	1
56	80	1
105	106	2
96	97	3
6	30	1
80	96	1
47	77	1
8	9	10
50	128	1
49	49	2
26	27	5
13	80	1
38	80	2
43	112	1
79	82	2
51	102	3
58	99	1
83	84	4
102	102	2
15	16	4
18	44	4
68	75	3
68	68	2
42	42	4
128	129	3
11	26	1
132	132	8
127	133	4
7	59	1
104	104	3
65	65	8
2	3	2
9	33	2
5	107	2
87	87	6
97	97	6
51	55	1
105	117	2
105	105	8
39	40	2
95	95	6
71	73	8
24	25	2
9	30	4
9	9	7
79	79	3
19	20	2
99	102	1
7	76	4
1	2	1
78	78	11
94	110	3
41	41	12
74	119	1
89	104	4
45	45	7
25	32	2
91	121	5
34	35	3
93	134	3
5	57	3
19	19	4
126	126	5
13	79	3
42	43	3
83	85	1
20	20	6
127	127	8
120	121	1
38	130	2
103	103	4
23	24	1
64	66	2
19	32	1
66	66	3
120	120	3
107	107	7
86	87	3
40	40	4
98	98	2
29	31	4
63	118	5
112	117	2
29	30	1
36	69	1
117	117	2
114	126	2
51	51	2
12	12	1
31	79	1
89	102	2
116	116	4
125	125	7
39	41	2
57	99	1
111	111	4
6	20	2
67	67	1
4	27	2
7	19	1
7	7	2
74	75	1
129	132	1
98	104	2
5	25	1
92	93	1
72	73	1
12	111	2
24	24	2
114	114	4
0	45	2
116	120	1
88	88	3
12	67	2
122	129	1
12	108	2
86	123	3
81	83	4
116	121	2
58	87	2
17	101	2
74	76	2
97	99	3
31	63	1
99	99	2
69	69	2
107	118	1
100	101	2
66	125	1
75	75	4
56	58	1
94	94	2
25	25	3
41	42	3
37	40	1
38	39	3
68	73	1
50	132	2
15	15	1
11	23	1
16	36	3
6	26	2
118	118	3
113	121	1
77	77	6
122	122	1
4	4	2
111	118	1
106	106	2
98	105	1
105	115	1
11	15	3
73	116	1
7	30	3
59	62	1
90	91	1
98	102	1
127	128	1
93	126	1
43	76	1
4	36	1
16	16	2
10	16	4
8	76	1
3	34	3
44	45	2
50	71	2
131	133	1
6	6	2
91	92	2
37	38	3
56	57	1
94	100	1
16	80	1
94	95	5
26	32	2
65	75	2
103	128	1
43	111	1
61	63	2
33	60	1
20	21	2
14	57	2
12	24	2
125	134	1
23	23	1
91	93	1
106	127	1
25	28	2
40	42	2
32	33	1
119	119	1
58	73	2
46	47	3
16	41	1
39	39	2
98	110	1
16	22	2
111	113	1
2	18	1
47	48	1
19	134	1
0	0	4
117	119	1
43	44	1
109	110	1
57	122	1
61	134	1
92	134	1
36	37	1
10	11	1
63	96	2
17	35	1
80	130	2
63	134	1
75	120	1
101	102	1
116	117	1
94	132	1
54	104	1
91	115	1
106	126	1
106	111	1
62	78	1
14	14	1
