89	90	8
5	5	8
37	37	12
21	22	2
91	92	4
23	23	4
108	108	6
81	81	14
96	97	2
112	113	2
12	12	8
135	135	10
76	76	6
26	26	7
3	3	8
130	130	15
106	112	3
16	17	5
4	4	6
125	125	2
113	113	4
97	97	8
85	87	2
98	98	6
131	132	2
129	130	5
36	37	4
7	7	21
0	0	1
112	112	7
123	123	6
112	120	4
71	71	3
79	79	7
1	1	8
34	100	4
17	17	8
21	21	8
101	101	7
90	91	4
134	134	7
136	136	2
13	13	8
74	74	15
127	127	5
103	103	7
7	8	6
82	82	10
133	133	5
18	19	4
78	86	2
92	92	11
84	85	2
109	110	1
85	85	4
19	19	6
36	36	8
2	2	8
94	94	4
129	129	8
90	90	4
28	29	2
10	10	8
132	132	6
91	91	4
71	116	1
6	6	8
105	122	3
137	138	1
25	25	8
126	126	3
78	85	6
9	9	6
72	72	3
24	24	11
88	88	6
111	111	10
122	123	3
80	94	1
96	96	7
116	116	6
102	103	2
16	16	6
83	83	8
110	110	3
93	93	3
124	125	2
72	116	4
139	139	6
131	131	2
120	120	6
2	4	2
79	80	1
140	140	5
11	12	5
18	18	11
100	100	12
80	80	5
29	29	4
99	101	2
31	32	4
105	121	2
86	86	16
104	120	4
136	137	1
34	34	10
27	27	7
90	92	2
32	32	7
78	78	5
80	86	5
128	128	9
35	35	6
31	31	9
14	21	4
73	74	4
38	38	5
103	104	8
99	100	5
106	123	2
124	124	7
35	98	2
108	109	2
126	127	2
104	105	4
20	20	2
109	109	4
138	138	4
115	120	2
71	72	1
72	73	5
85	86	1
5	13	1
116	117	3
16	18	3
37	38	3
28	28	3
119	119	3
22	22	6
23	31	2
77	81	2
98	100	1
4	32	2
19	21	3
92	93	5
77	77	2
106	114	1
115	115	4
87	88	1
20	32	4
102	102	8
137	137	5
88	90	2
15	15	1
10	11	2
114	115	5
118	118	4
95	96	7
74	75	2
12	20	2
84	93	1
38	97	2
104	104	11
16	20	1
105	105	4
66	66	1
75	75	3
19	20	8
13	14	3
100	124	1
4	14	3
26	31	3
27	28	5
117	117	5
106	106	4
34	35	3
16	19	4
97	99	1
115	116	1
135	138	3
33	33	4
2	3	2
101	116	3
87	87	1
34	123	4
1	2	3
3	4	1
95	95	1
105	107	1
8	8	3
108	124	1
14	20	1
101	102	2
106	113	1
107	112	1
118	119	1
0	1	2
38	39	1
33	34	1
99	99	2
122	124	1
73	73	1
84	84	1
25	26	1
9	10	1
122	122	1
78	79	1
24	26	1
139	140	1
