40	40	11
144	144	10
124	124	14
162	162	29
156	173	4
88	88	11
80	80	21
108	108	15
13	35	3
137	137	27
103	103	8
99	99	6
102	103	4
153	162	3
57	57	8
89	89	16
17	17	8
96	132	6
84	100	3
118	118	4
171	171	12
30	30	11
50	52	3
119	134	1
34	34	10
105	105	18
32	32	22
163	164	9
13	19	5
120	120	12
14	14	12
6	9	4
103	104	1
79	79	9
13	13	12
86	92	6
55	139	3
54	54	27
8	9	5
179	179	18
39	39	8
133	133	12
139	139	20
98	99	9
71	132	9
96	96	16
25	25	2
126	126	17
87	87	26
161	161	14
56	67	2
54	109	3
159	159	6
114	114	12
175	175	12
115	115	20
32	59	3
80	122	6
22	24	2
63	65	1
137	144	1
114	115	7
39	40	5
29	31	6
28	28	10
21	21	7
114	163	3
71	71	13
158	172	1
130	130	6
149	168	4
169	169	9
149	154	2
138	138	25
132	133	2
160	160	3
98	98	6
29	30	6
115	116	4
64	64	13
102	102	6
149	149	21
91	91	9
65	65	15
140	140	11
66	66	11
84	101	4
125	126	6
2	2	6
7	8	5
51	92	1
38	38	17
157	158	7
156	156	10
97	97	20
7	10	4
167	167	10
61	98	4
20	20	4
27	27	23
107	107	5
15	15	10
67	67	10
16	17	2
95	101	3
110	110	6
43	43	20
118	120	2
174	174	11
2	5	2
176	176	22
6	6	9
180	180	10
106	106	17
74	74	16
9	9	8
110	111	6
114	116	2
78	79	2
117	118	7
116	118	4
104	104	13
166	166	8
72	72	12
177	177	10
172	172	15
59	102	6
60	132	2
24	24	18
145	145	14
22	22	11
157	157	9
146	146	4
88	89	3
84	84	9
147	147	9
140	141	9
152	152	13
139	140	7
61	61	16
30	31	6
33	126	2
51	51	14
153	153	9
23	23	12
148	172	4
121	121	15
104	106	1
49	66	3
145	146	4
86	86	5
81	81	8
105	106	8
153	164	2
99	131	4
140	160	4
11	21	2
26	26	6
148	149	10
68	72	1
78	78	13
22	23	6
150	151	2
53	134	3
76	77	5
72	80	1
96	97	12
170	170	8
0	0	11
3	3	8
170	174	6
128	129	6
149	150	3
3	5	2
161	162	2
106	107	1
60	68	4
77	138	3
155	155	10
21	22	4
54	71	1
172	175	3
157	161	3
160	162	2
19	20	6
167	168	6
31	31	18
127	128	2
149	153	1
100	141	3
145	172	1
60	60	13
140	150	3
77	77	19
71	75	4
7	7	5
77	78	5
12	13	3
153	154	5
164	164	3
58	59	5
158	161	1
135	137	2
61	62	4
157	168	3
144	145	5
93	97	1
4	12	4
107	121	4
128	143	1
68	68	8
174	175	6
16	16	11
151	168	2
37	38	13
36	36	22
110	112	11
55	80	2
125	127	4
111	112	7
49	49	3
83	102	2
131	132	4
155	156	3
169	171	2
85	85	3
49	52	3
101	141	3
75	75	15
158	158	8
137	145	3
95	96	12
100	100	10
64	125	4
22	35	1
29	29	8
55	55	7
92	92	5
3	95	3
20	22	5
62	62	5
65	130	1
113	113	11
54	55	7
57	58	1
45	45	10
1	1	2
173	174	3
84	85	4
62	66	6
128	128	5
151	151	5
54	82	3
53	54	3
143	143	7
56	142	8
138	139	2
129	141	1
10	11	3
62	64	2
33	35	5
12	12	9
173	173	13
73	73	10
30	34	1
141	141	11
117	117	9
178	178	15
52	52	13
37	37	4
93	94	8
127	127	11
8	8	4
111	111	13
1	17	2
134	134	7
18	18	8
101	102	2
93	93	2
64	90	2
4	5	4
63	64	3
60	61	4
127	129	4
119	136	3
171	172	5
57	112	4
6	16	1
102	104	2
134	135	4
81	82	3
142	147	3
27	79	2
4	4	4
78	176	2
59	59	8
59	60	2
168	168	9
154	154	11
141	150	3
83	84	3
65	82	4
24	25	9
17	18	6
65	66	2
158	159	2
100	101	5
72	75	2
94	133	4
42	74	1
142	143	6
156	157	5
55	143	1
166	167	3
142	142	5
123	124	5
18	23	4
88	90	1
63	63	2
66	67	2
138	141	5
19	19	7
164	173	2
125	125	9
80	82	5
66	130	3
119	119	6
39	129	1
18	19	5
109	114	1
41	42	4
83	83	9
58	58	9
15	16	3
109	109	5
10	10	7
130	131	6
53	53	4
95	95	12
159	170	1
34	54	1
165	165	11
152	178	1
1	131	3
159	179	2
14	21	3
33	33	4
159	160	8
77	136	5
78	124	2
59	111	1
110	146	1
76	76	12
18	24	3
136	136	6
94	94	9
36	37	6
131	131	15
90	90	18
113	132	1
137	176	3
34	37	3
154	165	2
105	140	3
74	76	3
117	121	6
132	132	10
18	29	2
118	119	3
57	59	2
32	126	1
162	163	3
122	124	2
95	106	2
62	63	1
71	78	1
5	5	13
75	76	6
89	90	3
84	105	2
78	95	5
70	70	2
91	92	7
113	123	4
135	135	3
62	113	1
5	94	2
54	76	6
73	89	2
86	87	3
44	44	2
95	108	3
168	172	2
153	159	3
59	66	3
67	68	2
169	170	3
116	117	7
149	169	4
163	163	6
9	11	1
54	85	4
150	150	7
114	164	1
177	178	8
32	33	3
62	86	4
178	180	1
64	88	3
18	22	4
10	14	2
108	109	3
84	86	4
148	148	3
85	99	1
165	167	5
123	125	3
128	130	3
149	171	2
2	4	2
35	35	1
63	91	1
71	72	3
34	35	4
26	28	5
149	167	6
67	79	1
81	90	1
122	165	1
125	130	3
61	103	1
122	122	11
104	105	2
151	161	2
152	161	3
123	123	9
4	9	1
165	166	4
86	91	4
39	75	3
2	3	1
44	45	2
124	125	2
87	105	3
0	32	1
151	152	2
120	121	3
112	112	6
41	41	9
99	101	1
4	6	1
101	101	3
152	153	8
116	116	3
135	136	3
124	133	1
153	178	2
87	88	6
64	126	2
80	87	2
29	59	1
137	161	1
113	166	2
174	180	2
13	21	1
9	10	3
94	95	2
56	112	3
7	9	2
53	65	1
51	72	3
0	54	1
56	57	1
15	28	1
120	123	1
52	53	3
141	149	1
164	165	1
150	178	1
122	123	4
150	157	4
44	46	2
36	86	2
106	139	1
3	4	3
135	160	2
41	43	2
87	89	5
31	32	4
71	133	3
52	94	1
92	93	2
22	25	2
95	105	3
121	122	3
125	166	4
76	136	3
51	71	1
92	94	6
86	88	1
54	92	2
114	118	1
100	102	2
129	130	5
108	112	3
171	175	1
38	39	1
65	128	2
143	148	3
168	170	1
59	101	1
137	138	2
53	90	4
64	92	2
11	14	2
112	166	1
98	131	2
126	130	2
25	29	8
52	74	1
178	179	2
119	120	2
127	135	1
61	122	1
53	55	1
108	110	1
134	139	2
172	173	2
94	109	1
96	101	2
107	108	2
8	13	1
113	131	1
27	127	1
35	36	1
51	53	1
11	11	2
153	177	1
5	9	1
118	121	1
50	67	2
28	29	4
126	127	2
97	98	1
64	81	2
50	66	2
163	173	2
82	85	1
129	143	1
61	123	1
165	172	1
59	61	1
83	105	1
24	41	3
110	113	1
89	107	1
82	82	3
50	50	4
95	97	1
19	38	2
25	26	2
153	163	1
73	87	1
36	44	1
176	177	2
42	42	1
59	105	2
114	146	1
97	137	1
34	36	1
0	131	1
10	12	2
135	140	1
56	68	1
72	78	2
82	83	1
168	173	1
11	13	1
114	122	1
129	129	1
97	136	1
115	118	1
56	111	1
80	81	2
56	56	1
130	163	1
24	39	1
58	128	3
2	12	2
90	93	1
158	176	1
142	149	1
82	103	1
114	117	1
136	137	1
10	34	1
154	155	1
57	66	1
56	58	2
52	81	1
82	90	1
97	101	1
76	101	1
99	129	1
61	115	1
20	35	1
