6	12	5
53	53	8
44	44	6
6	6	14
35	35	19
18	18	18
4	4	13
35	37	1
14	20	1
40	40	13
40	41	5
58	58	14
60	61	5
50	50	21
38	38	12
43	55	2
43	43	6
51	51	9
23	23	10
2	5	3
0	21	2
10	23	3
22	24	3
10	10	3
37	38	12
14	23	2
19	25	6
56	56	5
33	36	3
9	9	10
19	19	12
12	12	18
37	45	5
0	0	20
15	15	10
11	11	16
24	24	11
7	7	15
49	58	4
51	54	4
42	49	2
22	22	13
34	52	3
16	16	11
51	58	1
32	32	9
49	49	12
59	60	2
55	56	9
21	23	4
56	57	4
6	24	7
17	17	6
30	30	17
3	3	3
33	43	2
37	40	4
53	54	8
40	51	5
8	9	6
9	10	5
57	62	1
31	31	17
48	48	15
3	6	4
55	55	14
60	60	11
8	11	4
13	13	12
8	8	9
15	40	2
0	14	1
62	62	9
6	7	1
13	15	5
45	57	2
29	42	1
39	59	5
16	60	3
0	3	3
16	21	2
29	29	1
2	2	4
51	59	5
7	9	7
44	45	2
0	20	4
38	40	2
47	48	2
61	61	6
15	56	2
21	53	1
54	54	7
5	15	5
19	20	3
42	42	10
40	42	3
41	41	18
61	62	4
45	48	2
50	62	5
4	23	2
22	53	2
25	25	4
46	46	10
5	8	3
18	57	2
36	37	1
53	60	3
42	58	2
30	31	6
38	39	2
2	25	2
47	47	2
8	15	1
12	26	2
5	7	1
57	57	9
43	56	1
23	62	1
20	20	5
33	34	5
16	17	1
45	45	10
4	9	1
1	4	4
12	16	3
1	1	6
10	18	1
44	50	2
39	60	2
52	55	2
20	21	4
15	16	2
36	36	7
19	35	1
14	14	6
14	17	1
19	34	2
12	13	8
53	59	3
4	25	2
4	12	1
33	33	2
4	7	5
60	62	2
35	56	2
1	2	2
17	18	1
11	12	3
34	54	2
39	50	1
39	41	2
5	5	2
45	56	1
51	52	4
57	59	2
49	50	3
34	34	1
45	49	4
18	20	3
52	53	2
7	19	1
35	36	1
15	24	2
2	3	5
39	39	3
33	42	5
13	14	2
59	59	2
0	19	2
1	17	1
43	44	2
1	3	4
58	59	2
38	47	5
5	16	4
45	59	4
54	59	4
24	42	1
56	61	2
14	25	4
5	14	1
42	54	1
29	32	2
37	37	1
11	13	1
0	4	1
47	50	2
5	6	1
49	56	2
48	49	4
51	55	2
44	49	2
21	34	2
50	53	2
1	6	2
34	42	2
41	57	1
21	21	1
12	14	1
16	55	2
24	25	1
6	15	2
36	53	2
52	52	1
29	34	1
4	11	1
7	8	1
48	51	1
40	58	1
34	44	2
40	53	1
33	37	1
12	15	1
1	5	1
41	54	1
33	57	1
