4	7	2
155	156	8
144	144	13
179	179	6
191	191	7
98	98	3
161	172	5
142	142	9
73	73	3
50	50	8
136	136	9
114	114	13
43	44	3
44	44	9
71	71	14
23	23	5
45	45	13
156	158	2
51	51	7
41	41	8
16	16	6
111	111	7
38	38	4
67	125	6
97	97	6
79	79	7
69	81	3
104	106	2
47	49	5
132	143	4
126	126	4
51	196	3
47	127	5
180	180	4
148	148	10
53	53	8
42	126	1
158	158	12
164	164	5
4	4	5
103	103	13
37	45	5
109	109	5
1	10	4
184	184	7
135	135	9
18	39	3
35	35	1
132	132	11
52	52	8
161	161	7
117	123	2
122	122	6
40	40	12
6	6	2
138	138	4
72	73	3
55	59	5
133	159	2
22	23	1
33	33	7
89	89	3
85	85	8
108	109	1
163	163	1
149	150	5
140	140	11
114	115	1
150	150	9
7	8	2
129	129	6
131	133	3
151	151	10
27	27	1
186	186	4
32	32	6
190	190	6
77	77	1
141	141	10
181	181	11
42	44	2
129	156	2
197	197	2
39	174	3
26	26	3
169	169	8
116	116	10
118	118	3
164	167	9
35	115	4
104	105	2
30	31	1
46	46	4
164	165	2
122	123	2
41	42	3
60	60	2
112	112	9
160	160	7
37	44	3
55	55	2
192	193	5
66	68	4
124	124	3
54	54	4
41	110	4
151	152	3
12	13	3
12	12	6
80	82	2
95	124	4
17	17	6
189	189	4
31	32	3
185	185	6
167	167	9
183	184	4
95	95	5
157	157	9
67	78	3
48	48	5
193	193	6
182	182	3
116	117	1
170	170	9
7	7	4
160	169	2
37	37	6
43	43	13
84	85	1
165	175	3
39	40	1
139	139	1
159	161	5
170	171	3
20	20	3
137	140	3
109	110	4
100	120	4
101	108	2
76	77	3
168	169	5
58	58	5
76	76	4
159	159	1
26	27	2
56	56	3
130	130	2
47	48	1
145	145	2
178	178	3
123	125	3
74	77	5
30	30	10
0	0	2
24	35	1
1	1	1
170	172	3
122	126	1
79	80	8
13	13	12
176	176	1
30	59	3
34	38	1
155	155	9
70	70	5
23	25	4
76	80	3
196	196	5
113	113	4
1	2	4
27	28	6
174	176	8
31	31	5
137	138	3
144	147	2
119	121	1
108	108	3
133	133	2
5	6	1
140	147	3
65	124	3
3	3	3
47	122	1
8	189	4
36	36	1
21	21	5
49	49	9
83	87	3
9	10	2
12	197	1
28	28	4
9	9	6
2	2	3
27	29	2
81	81	1
40	43	2
186	187	1
119	119	7
169	172	2
189	190	2
25	25	11
71	72	1
61	61	2
129	149	1
160	161	1
173	173	5
78	78	1
99	99	4
28	29	2
101	101	6
183	183	4
194	195	2
149	149	3
86	86	3
67	67	1
73	74	3
113	125	1
195	195	8
136	137	5
80	80	1
133	138	2
195	196	3
95	96	1
16	17	3
187	187	5
57	58	6
181	184	1
69	70	2
196	197	2
32	57	1
174	174	1
40	41	2
165	165	1
181	182	2
169	173	1
40	114	1
103	116	2
154	154	4
104	107	2
67	73	1
65	123	3
69	78	1
47	126	3
27	30	2
77	78	7
59	59	2
10	10	4
175	176	2
70	71	4
82	83	4
24	24	6
32	52	3
88	89	3
148	152	1
58	59	2
105	106	1
143	143	4
24	114	1
96	96	2
46	49	2
64	64	2
133	150	1
190	191	1
190	194	3
64	68	1
132	140	1
94	95	1
159	167	1
74	74	3
116	118	1
164	175	3
18	18	1
55	56	1
3	4	1
130	157	1
177	191	2
127	127	3
177	177	1
105	107	1
23	32	2
132	133	4
131	149	1
130	131	2
134	134	5
15	191	1
140	141	2
28	30	1
96	98	1
62	63	1
102	103	1
169	170	1
59	61	1
168	168	1
152	154	4
40	165	1
143	147	1
156	156	2
59	114	1
29	114	3
116	119	2
143	144	1
12	56	2
93	93	3
0	2	2
104	108	1
96	97	2
44	45	1
15	15	2
107	107	4
42	47	1
194	194	3
106	106	2
63	63	6
166	166	1
33	35	4
193	194	2
177	178	1
90	90	1
75	76	1
51	195	1
192	192	2
6	188	2
62	62	1
11	11	1
162	162	1
117	127	2
152	152	1
99	100	1
173	178	1
124	125	1
161	163	1
24	58	1
19	177	1
101	109	2
29	29	2
102	102	1
142	143	1
80	83	1
14	14	1
17	18	1
87	87	1
51	55	1
117	117	1
57	57	1
108	158	1
61	62	1
174	175	1
88	90	1
31	113	1
153	153	1
11	13	1
43	163	1
18	34	1
