29	31	1
15	15	4
33	33	5
70	70	6
97	130	2
128	128	6
125	125	6
106	107	2
33	34	1
21	21	7
97	97	3
64	64	11
111	111	14
13	13	4
80	81	3
35	35	1
7	7	2
24	24	4
28	29	6
28	28	2
22	24	1
123	123	6
29	37	2
54	55	3
83	83	1
132	133	2
106	108	3
69	69	4
26	27	1
29	29	5
124	124	10
94	94	3
2	3	4
130	131	5
20	23	1
54	54	8
67	68	2
100	100	4
83	85	1
106	119	2
45	45	4
72	72	2
15	19	6
131	131	8
62	62	6
63	64	3
90	90	3
20	20	2
81	81	2
31	31	4
7	9	3
95	95	9
86	90	1
91	92	6
30	30	2
126	126	4
29	33	4
68	69	2
18	18	2
36	36	3
3	3	3
127	129	1
1	2	6
6	7	1
94	95	9
32	32	2
75	76	2
110	110	4
61	61	7
58	58	1
50	50	13
17	17	3
3	6	1
60	60	4
88	88	2
85	88	2
90	91	3
10	10	2
97	98	4
43	43	3
6	34	1
129	129	7
130	130	2
68	68	3
4	5	3
88	89	3
66	66	2
27	28	2
20	21	3
57	57	1
16	19	4
118	118	3
79	79	1
59	59	4
92	92	4
127	128	1
96	96	3
18	19	1
117	117	2
75	75	5
19	19	4
93	93	1
0	2	3
8	11	1
8	9	2
23	26	6
107	107	6
25	25	2
120	120	1
63	63	8
85	85	3
12	12	3
9	10	1
101	101	1
47	47	1
116	116	1
78	103	2
8	8	3
16	68	2
5	6	5
36	88	4
116	117	3
7	34	1
82	86	5
34	34	1
121	121	3
98	98	2
4	4	2
74	75	2
43	44	1
14	14	2
28	86	1
130	132	1
93	94	1
76	76	1
46	52	4
91	91	1
134	134	4
104	104	2
112	112	2
98	103	1
71	72	1
73	73	2
0	0	1
108	108	2
108	109	1
92	122	3
99	99	1
102	102	2
2	2	2
84	84	2
80	80	1
11	25	1
27	27	1
65	65	1
13	71	1
23	23	3
115	115	2
55	55	1
15	16	1
97	99	1
125	126	1
98	99	1
9	9	2
102	103	1
99	100	1
77	77	2
71	71	2
113	113	1
117	118	1
100	101	1
87	87	1
114	114	1
100	102	1
81	87	1
125	127	1
44	45	1
118	119	1
94	126	1
135	135	2
0	70	1
53	53	1
107	109	1
