142	142	13
111	112	3
20	66	2
197	197	8
52	52	19
174	174	4
29	29	5
87	87	4
154	154	11
82	82	7
131	131	8
34	66	1
50	51	7
74	108	2
192	192	13
113	113	13
42	42	8
136	147	7
86	86	1
10	10	27
126	139	4
37	74	4
168	168	7
191	191	4
138	138	4
98	98	2
95	96	3
112	169	1
156	156	9
47	47	13
105	105	2
179	179	6
109	109	13
195	195	13
181	181	14
182	183	4
116	117	4
129	129	5
124	124	9
39	45	8
116	116	14
157	158	5
126	126	3
15	15	15
183	184	3
7	9	3
37	69	8
189	190	5
97	99	4
151	152	2
67	67	5
122	122	14
168	182	4
185	187	1
12	14	1
160	161	6
20	21	9
39	42	3
55	56	8
38	70	5
184	184	3
123	149	3
160	160	10
160	180	5
163	163	5
16	31	4
88	88	6
148	148	6
147	147	5
159	159	4
108	109	3
73	73	8
102	102	6
71	71	3
165	165	5
119	119	2
134	135	5
62	62	4
135	135	3
3	3	6
180	180	14
13	14	4
158	158	5
48	48	11
68	68	7
81	81	7
99	99	7
101	109	2
58	59	2
17	17	15
13	13	3
1	1	14
81	83	6
171	178	5
64	77	3
84	84	13
54	72	3
119	121	1
193	193	6
177	177	12
7	8	5
11	11	6
77	77	10
0	5	4
13	15	4
29	30	5
128	129	5
7	7	2
120	120	4
32	66	2
151	153	7
46	46	12
123	123	7
96	103	7
83	104	2
129	131	1
143	143	3
93	99	3
111	111	11
86	88	4
43	43	7
97	98	3
101	101	4
56	108	2
95	100	2
14	55	1
166	166	7
80	80	3
167	167	8
14	14	10
183	183	11
74	74	7
113	155	2
158	161	3
73	77	4
36	36	12
18	35	3
0	0	6
100	101	3
140	140	7
139	139	6
28	28	7
45	45	16
176	178	2
33	33	15
182	182	11
49	50	1
66	66	9
171	180	2
57	57	14
6	6	9
110	110	6
170	170	10
73	110	4
146	165	1
75	75	5
114	114	19
51	51	3
6	20	3
176	176	2
181	183	3
37	37	7
156	158	3
26	27	1
104	104	5
112	112	8
171	171	9
137	137	18
125	125	2
185	185	6
149	149	5
32	55	7
115	115	4
108	174	5
67	68	5
15	31	3
34	36	2
47	51	1
79	80	4
129	154	5
1	3	3
88	89	4
60	60	6
126	127	3
40	40	3
18	33	2
186	186	4
179	180	9
8	10	2
74	176	2
53	72	1
178	178	3
0	1	6
59	61	1
172	172	7
116	118	4
165	166	8
144	144	4
176	177	5
78	78	5
103	103	6
8	9	4
97	97	8
133	133	1
115	117	3
26	26	1
20	65	2
25	25	3
124	128	3
188	189	4
100	100	8
152	153	3
30	31	5
21	21	6
128	128	10
3	4	4
133	146	3
38	38	4
25	27	1
137	138	2
84	85	2
34	34	5
56	56	7
190	190	1
32	32	4
105	106	3
181	189	5
127	127	5
114	115	2
108	110	1
2	6	1
115	118	3
10	24	4
94	95	6
96	102	2
101	102	3
187	188	10
35	65	1
69	69	7
11	20	4
20	23	2
6	7	2
9	9	6
169	169	1
143	144	3
23	31	1
130	132	3
64	73	2
167	179	2
20	25	4
122	125	1
68	69	2
108	108	3
2	5	2
117	118	4
30	30	8
83	84	5
47	50	3
50	50	9
139	140	1
24	24	8
53	53	3
49	49	10
131	153	2
12	12	10
46	121	5
25	26	1
27	27	2
160	163	1
144	145	5
132	135	1
122	143	3
15	16	3
14	15	4
79	79	9
132	132	2
126	140	4
24	25	3
64	64	8
18	18	1
8	8	2
196	196	4
118	118	10
20	20	3
145	145	7
10	30	4
35	35	5
39	51	1
1	4	4
42	52	3
43	45	6
57	58	3
164	164	4
137	150	2
134	134	4
23	25	1
70	73	1
72	72	11
94	97	2
132	133	4
182	184	3
65	66	2
56	57	2
75	106	1
85	86	3
89	89	3
76	100	1
177	179	2
70	71	1
171	179	1
175	175	5
73	74	2
65	65	7
94	94	9
103	104	1
85	90	2
73	109	6
22	22	2
62	63	1
23	24	6
73	76	5
96	96	4
141	144	2
60	61	2
7	23	3
67	156	2
136	136	2
70	70	5
169	182	1
173	192	2
115	116	4
39	40	2
29	62	1
58	85	1
118	119	6
113	129	3
28	30	3
94	96	1
56	79	2
149	150	1
187	187	2
131	132	1
161	162	1
148	149	1
40	42	4
54	55	3
102	104	2
17	18	2
154	155	3
145	168	3
106	106	3
76	107	2
40	41	2
150	162	1
97	102	1
177	178	5
39	52	1
125	144	2
63	63	6
159	176	1
141	141	3
29	82	2
5	8	1
128	139	1
104	107	3
83	83	2
58	58	4
78	93	3
16	33	2
194	194	2
184	186	1
189	189	2
12	17	1
32	63	1
183	185	2
119	127	3
2	4	5
5	5	4
113	114	5
146	146	2
125	139	2
173	173	4
150	150	4
61	61	3
67	69	3
31	32	1
3	6	1
76	104	1
3	20	2
4	4	3
190	191	2
17	19	1
75	176	2
1	5	1
31	31	1
150	155	1
77	78	3
159	177	2
140	141	2
81	82	4
104	106	2
2	2	1
127	139	1
44	45	1
107	107	6
97	100	2
41	42	3
95	98	1
64	66	2
22	60	1
114	143	3
185	186	3
78	82	2
54	54	1
98	101	2
117	117	3
155	156	2
43	121	3
69	70	1
33	66	2
130	130	1
51	52	2
95	95	2
162	162	1
170	178	2
62	65	2
161	161	3
168	169	2
37	70	3
174	177	2
74	75	1
22	25	2
32	73	2
155	155	2
170	189	1
124	129	1
137	167	1
7	11	2
85	85	1
156	160	1
27	60	1
21	26	2
76	81	1
142	143	1
76	106	1
94	172	2
151	151	3
134	147	1
133	135	2
148	151	1
133	140	1
83	85	1
11	30	1
36	66	2
82	101	1
124	136	1
59	59	1
123	124	1
187	189	1
63	66	1
3	9	1
41	45	1
150	157	1
159	161	1
86	87	1
12	15	1
40	52	1
181	182	1
2	3	1
191	192	1
138	147	1
12	71	1
28	62	1
119	120	1
46	48	1
130	138	1
