137	137	3
127	147	1
135	136	2
4	4	4
68	68	6
7	8	1
157	157	9
52	52	2
48	48	2
11	152	2
83	84	2
23	24	3
23	23	2
140	140	18
35	152	1
63	89	2
3	3	9
156	156	5
50	50	4
1	1	4
87	87	2
11	151	2
110	147	2
91	91	3
134	134	1
21	21	2
113	118	6
17	17	2
53	53	2
93	93	15
28	28	4
112	112	2
106	107	3
117	121	3
71	71	5
109	111	3
49	49	7
24	26	3
78	79	5
70	70	8
150	151	4
69	70	4
80	81	2
146	146	4
94	94	7
24	24	6
120	121	2
71	90	3
48	49	2
141	141	1
104	120	6
67	69	1
20	20	6
85	86	4
144	147	5
150	150	6
44	44	2
75	75	4
150	153	3
148	148	1
22	22	7
34	34	6
121	121	8
54	57	3
117	158	4
130	130	2
143	143	3
109	122	4
97	97	1
15	15	4
130	131	2
127	127	7
95	96	1
98	98	10
146	153	1
31	51	1
30	31	6
120	120	2
8	10	1
142	148	1
148	150	3
41	41	2
79	79	12
0	0	4
21	25	3
101	101	6
19	19	1
105	105	5
10	17	3
144	144	1
80	80	4
109	109	3
40	41	3
38	38	5
123	123	5
96	96	2
13	13	6
66	69	1
12	12	2
132	132	1
82	82	3
42	42	3
31	31	4
18	18	6
1	148	5
135	135	1
33	41	1
38	46	4
126	126	4
82	83	3
38	45	1
116	136	3
99	99	3
69	69	3
1	129	3
153	157	2
64	119	2
31	41	2
111	111	2
30	30	5
38	40	2
108	112	2
138	138	3
114	114	3
95	95	6
153	154	3
15	16	1
45	46	6
117	117	3
25	26	2
143	145	1
122	146	5
158	158	2
2	2	3
139	139	5
67	71	3
143	149	1
110	116	2
85	92	3
127	146	1
138	139	1
107	108	2
100	100	2
63	119	2
19	20	4
21	22	1
0	1	1
0	149	2
89	89	1
10	10	2
117	118	6
106	144	1
14	14	2
144	153	1
65	69	1
13	17	2
125	125	3
103	119	2
25	25	3
132	133	5
36	81	2
68	70	1
102	115	1
6	6	3
63	90	4
128	131	5
154	155	1
27	51	2
88	89	1
41	55	1
126	137	3
117	122	1
152	152	6
69	89	2
68	88	2
26	26	1
33	33	2
36	36	5
128	134	1
55	55	2
34	40	1
78	78	3
28	29	2
67	67	4
27	28	1
51	51	1
26	27	3
78	81	1
119	119	2
67	70	3
151	151	1
32	34	1
144	148	1
9	13	1
80	82	4
68	69	1
73	73	1
24	25	1
47	47	3
94	96	1
8	9	1
88	147	2
20	21	1
88	88	1
17	56	1
103	103	1
92	92	2
42	54	4
70	71	2
9	9	2
30	41	2
107	107	4
4	55	1
133	144	3
85	95	1
106	106	2
75	96	1
62	62	1
32	41	3
38	47	1
63	64	1
90	91	1
116	116	1
114	117	1
128	128	1
82	90	1
154	154	2
36	71	1
85	99	1
85	85	1
142	142	2
132	134	1
13	14	2
10	16	1
99	100	1
46	46	1
118	118	1
144	146	1
0	148	1
147	154	1
22	25	3
110	111	1
133	158	1
64	64	2
138	141	1
44	69	1
86	92	1
40	40	1
50	51	2
36	69	1
55	151	1
38	70	1
74	74	1
38	39	1
27	27	1
109	110	2
3	4	1
159	159	1
16	16	1
124	125	1
46	53	1
104	104	1
2	6	1
