13	14	2
9	18	3
49	160	2
105	105	5
2	3	4
73	73	5
127	144	4
1	33	3
19	19	3
14	120	7
112	127	1
29	29	3
87	89	2
93	94	9
102	172	4
142	142	6
7	7	5
141	141	5
12	12	3
116	116	2
35	35	2
114	114	1
28	28	3
15	16	1
104	104	4
102	103	1
86	86	13
132	180	2
75	75	9
72	79	4
160	163	1
102	102	5
121	121	1
67	146	3
37	38	1
38	119	2
11	11	2
144	144	4
30	30	5
118	119	3
8	8	1
45	71	2
60	60	2
40	41	8
9	9	6
41	129	5
11	13	1
13	17	4
100	100	2
132	132	2
157	157	2
67	67	10
122	125	8
87	87	4
56	56	4
32	118	6
129	129	4
113	163	1
33	34	4
58	58	2
116	117	5
40	180	2
55	55	4
154	154	1
24	25	3
72	80	3
21	23	3
81	83	7
146	163	1
81	81	5
40	40	2
65	142	2
74	74	5
34	34	3
98	99	2
135	136	1
11	15	3
147	147	2
92	92	1
117	117	4
104	105	4
154	175	1
89	89	3
169	170	2
148	149	6
68	68	4
133	133	6
74	80	2
131	133	2
39	39	3
161	161	7
75	173	3
79	79	7
74	91	3
149	149	4
63	107	1
147	164	2
179	179	3
24	121	4
50	172	2
150	150	1
138	138	7
75	174	1
111	111	8
10	10	1
68	114	2
112	112	3
100	171	2
146	148	1
168	168	7
155	176	1
109	109	1
32	34	2
32	33	3
110	112	1
72	141	1
57	167	2
164	164	4
65	68	2
84	84	3
148	162	2
70	71	2
30	123	2
2	29	3
170	171	4
143	171	1
37	37	4
31	31	4
142	148	1
63	109	3
145	145	3
4	4	6
126	128	2
12	22	1
19	42	5
62	115	3
124	124	5
23	132	2
128	133	1
24	24	2
134	134	4
23	23	4
5	5	2
51	124	1
62	62	2
6	14	2
160	167	3
137	137	9
176	176	4
171	171	4
136	136	4
128	148	2
21	21	3
90	109	5
56	168	2
88	88	6
6	6	3
95	95	6
130	131	1
93	93	5
96	104	4
125	125	5
160	160	1
148	164	1
83	83	4
32	32	5
74	79	3
141	147	1
159	159	4
113	113	3
49	136	2
5	6	4
71	92	1
106	107	2
156	156	3
61	61	3
174	174	1
146	149	2
29	123	2
60	147	2
105	106	2
135	142	2
72	84	5
3	3	6
167	173	1
56	125	2
57	63	2
107	110	2
44	45	1
55	56	1
148	154	1
27	27	5
91	91	3
96	96	1
11	16	1
126	126	3
136	159	3
33	33	3
77	83	1
90	173	8
136	162	3
38	38	5
45	45	4
71	71	3
36	36	2
59	59	3
80	82	1
50	50	3
136	139	2
96	102	1
32	45	5
139	139	3
8	10	2
178	178	3
110	134	3
75	150	1
37	42	2
52	52	5
80	80	3
7	9	1
13	31	2
110	135	2
135	135	8
93	107	3
173	173	4
115	148	3
85	88	2
154	156	4
20	20	4
123	123	6
84	85	2
151	151	5
134	139	2
106	106	1
109	172	2
66	67	3
73	80	1
2	4	4
76	76	1
65	71	5
95	100	1
148	148	1
115	117	3
78	78	4
85	91	3
148	161	2
49	161	1
56	57	2
121	160	1
0	0	3
33	82	4
12	24	1
42	129	1
115	115	2
37	108	1
180	180	1
85	85	2
10	22	1
122	122	2
152	152	5
98	98	3
41	157	5
127	127	3
62	67	1
66	68	2
130	130	5
31	32	1
50	58	1
97	102	1
107	107	2
9	15	3
97	97	1
17	17	1
81	86	1
54	122	2
80	93	2
102	171	4
66	114	2
38	39	3
109	117	1
113	132	1
115	139	3
64	115	1
155	173	1
111	130	1
42	130	1
66	66	1
26	26	3
58	173	1
163	163	1
61	77	1
25	25	1
29	31	1
54	55	2
110	110	4
2	2	1
98	101	1
123	124	1
10	21	3
60	176	1
126	178	2
177	180	1
169	169	1
0	1	2
122	126	1
12	25	1
77	77	1
8	9	2
41	133	1
141	149	1
118	118	1
43	103	2
39	112	2
92	93	2
134	156	1
166	166	2
165	165	1
106	114	1
5	10	1
17	18	2
132	133	2
64	139	1
140	140	2
153	153	2
104	117	1
131	131	1
62	119	1
10	14	1
157	172	1
103	106	2
66	140	2
22	23	2
64	64	1
172	172	1
27	106	1
62	136	1
99	112	1
7	10	1
72	78	1
117	119	2
4	29	1
8	11	1
158	158	1
9	11	1
176	179	1
137	154	1
75	78	1
130	133	1
64	82	1
3	4	1
104	130	1
105	113	1
84	103	1
96	98	1
58	63	1
14	14	1
60	63	1
2	28	2
108	108	1
154	155	1
126	127	1
126	179	1
112	133	1
76	77	1
17	24	1
61	139	1
36	108	1
98	105	1
