32	40	1
116	116	5
131	136	5
132	132	6
137	137	9
164	165	5
155	155	6
2	3	9
138	147	1
61	62	3
21	31	3
6	7	1
13	13	7
135	136	3
164	164	4
164	171	3
94	109	1
141	151	3
109	121	1
54	55	1
150	153	5
94	105	1
71	78	3
160	164	5
116	118	2
152	152	10
78	83	3
23	23	1
63	64	6
67	75	2
128	128	7
31	31	3
71	76	1
121	132	2
139	147	3
95	112	3
55	64	6
80	85	2
65	67	3
169	169	9
78	95	1
13	14	2
102	103	3
73	78	2
40	45	1
11	12	3
156	170	5
85	87	2
67	78	1
66	67	5
124	126	1
77	78	1
84	84	4
101	107	3
26	26	3
134	137	2
171	176	8
7	20	1
38	40	4
98	100	4
127	129	4
81	90	6
85	96	5
33	42	5
147	152	4
96	98	4
140	140	6
170	174	4
163	167	5
101	102	2
1	18	2
153	155	4
66	73	2
26	38	4
39	39	8
85	98	10
77	82	2
148	155	1
22	24	1
138	151	2
66	66	4
92	101	1
180	180	3
111	119	3
32	37	4
133	155	1
35	41	4
95	100	5
71	77	4
95	95	6
37	43	2
94	94	7
12	14	6
112	119	1
6	11	2
171	174	5
31	32	4
134	146	5
81	85	2
112	124	4
13	22	5
50	55	1
103	115	2
51	150	2
150	150	3
72	78	2
73	73	8
163	165	3
14	16	3
93	94	4
32	34	3
66	68	6
152	157	4
146	146	7
2	13	4
68	75	5
123	128	2
135	145	1
121	135	5
159	160	7
153	153	3
154	154	7
167	167	8
100	101	1
15	100	1
173	173	12
178	178	7
102	118	2
40	41	11
29	44	1
83	83	8
12	106	3
163	163	5
104	104	6
84	87	2
112	162	2
79	79	3
153	168	2
57	60	3
50	60	5
14	25	1
5	12	1
55	68	4
8	8	4
71	71	5
58	68	2
16	28	1
139	141	11
156	166	6
127	137	4
166	166	5
51	51	6
122	124	6
2	15	1
108	108	8
112	113	3
76	77	1
7	7	2
88	90	1
169	170	5
117	128	2
65	75	2
76	88	3
133	133	3
1	1	2
24	26	2
8	16	4
54	62	5
10	19	1
108	123	2
57	72	4
8	19	2
114	117	2
85	88	2
134	135	5
49	60	1
53	66	2
171	178	2
117	117	3
125	138	2
156	157	3
106	106	1
110	120	2
60	60	3
176	178	1
116	128	2
5	5	1
115	115	6
165	165	8
146	147	4
99	102	3
146	158	1
107	110	3
58	59	2
105	110	2
57	58	4
136	152	3
56	56	3
130	130	4
112	115	2
135	135	5
162	162	6
3	3	5
92	96	6
15	15	4
105	117	5
143	153	2
26	36	1
178	180	2
71	73	1
56	57	4
165	176	3
155	164	3
137	140	1
125	137	3
134	136	3
139	142	7
173	176	4
172	172	6
71	72	3
2	19	1
103	103	4
126	131	4
172	173	7
90	105	2
74	88	4
49	49	1
3	7	4
73	74	3
70	71	1
133	137	5
111	111	5
12	12	2
145	147	7
108	109	5
168	169	10
124	137	2
178	179	2
125	128	3
138	138	4
2	6	2
89	89	3
177	177	2
122	122	1
2	4	4
21	86	3
101	113	2
95	102	1
160	166	2
128	142	2
86	86	2
85	85	4
5	23	1
66	74	3
80	92	7
156	156	7
120	125	1
105	114	1
141	149	1
36	40	1
175	178	4
11	11	5
8	28	1
10	22	1
65	82	3
18	33	2
17	17	4
151	151	12
165	174	2
128	163	2
53	64	1
98	98	5
90	97	6
74	77	2
82	100	1
7	11	1
144	144	8
160	161	2
83	95	1
6	18	4
16	17	6
26	28	5
140	142	3
157	160	2
24	88	3
137	171	3
143	143	2
87	87	1
28	28	3
71	96	1
113	117	5
139	139	8
24	63	5
55	56	1
74	85	1
43	43	2
109	115	3
171	177	3
78	80	1
75	88	2
135	143	4
104	106	1
160	170	1
2	2	6
124	136	1
145	146	1
166	170	4
9	36	4
96	105	4
3	17	1
121	147	7
118	118	2
109	110	1
64	68	2
91	109	1
123	130	1
37	42	3
20	20	8
174	178	1
145	148	4
175	176	2
161	162	1
167	180	2
25	27	3
122	162	2
169	174	2
36	43	1
56	65	1
163	175	3
126	134	5
122	123	4
152	153	3
79	82	3
81	95	1
54	64	5
179	179	7
52	55	2
93	104	3
162	163	2
105	111	1
31	53	2
57	59	4
134	154	1
81	94	6
4	13	2
139	151	2
79	85	2
125	125	3
1	2	2
10	10	5
160	171	1
170	177	1
33	39	6
152	167	7
154	155	4
110	113	1
100	100	4
53	53	4
121	123	3
117	121	3
130	145	3
27	27	1
147	151	3
14	14	2
171	175	2
116	131	2
157	158	2
19	40	1
91	94	2
41	42	1
90	90	4
38	38	8
14	26	5
2	5	1
55	76	2
121	121	4
102	115	1
99	106	2
67	77	2
109	120	4
93	93	7
143	149	5
107	116	2
141	148	2
76	85	2
156	158	5
103	105	1
108	129	3
50	50	4
144	146	4
38	44	2
126	139	4
18	39	7
126	126	5
80	107	2
101	114	3
109	114	2
35	35	2
15	16	2
86	88	5
142	143	10
143	146	5
68	68	7
138	140	1
27	29	1
86	96	2
103	112	2
12	15	4
143	155	1
121	130	4
118	119	2
64	74	1
158	163	1
109	109	5
12	25	2
141	141	9
6	6	3
18	28	4
13	20	3
91	91	2
123	125	6
145	145	4
124	128	1
145	158	2
170	173	1
139	145	1
76	90	4
29	32	4
30	71	3
124	124	2
54	59	1
127	144	1
30	35	3
93	106	6
30	44	1
16	25	3
11	144	1
123	131	2
170	170	2
80	80	12
39	42	2
44	44	1
36	50	2
136	140	3
168	168	6
137	145	4
161	161	8
6	16	2
171	172	2
90	104	1
57	57	3
124	130	1
104	111	1
94	119	1
132	133	5
74	87	2
147	149	3
3	9	2
148	162	3
117	118	5
7	10	2
142	142	2
32	43	2
74	83	1
8	13	6
171	171	3
101	110	2
95	109	1
11	25	1
149	151	1
72	74	4
1	3	5
158	162	3
125	142	1
9	22	1
2	7	2
28	29	1
176	180	2
78	78	5
149	162	2
108	110	3
153	159	2
77	86	2
151	154	1
61	67	2
1	7	1
12	30	2
64	66	4
160	174	2
130	134	4
107	107	5
73	81	2
157	165	1
141	158	4
59	59	3
138	150	2
85	103	1
131	133	5
13	16	1
129	129	3
94	96	1
150	157	1
75	79	6
140	150	2
35	52	1
74	78	2
174	174	6
79	88	2
24	25	2
129	136	2
160	178	2
125	129	3
111	128	1
74	82	2
68	69	2
130	133	4
148	148	3
76	87	5
90	91	3
114	124	2
171	173	2
24	24	6
9	20	2
99	121	2
9	10	1
31	33	4
83	103	1
75	75	2
88	103	2
110	110	2
108	121	2
11	14	1
121	131	1
131	135	1
82	82	3
88	88	2
155	167	1
100	110	2
114	115	3
56	66	1
91	104	3
81	89	2
121	138	2
80	88	2
98	99	1
61	72	6
102	102	1
86	87	2
148	149	1
44	45	2
30	30	4
67	72	1
150	152	9
158	175	2
157	168	2
164	179	1
149	149	1
76	76	5
158	160	4
76	86	2
17	31	2
84	85	1
18	18	1
116	117	3
73	85	2
94	102	1
170	178	4
3	26	1
91	98	1
1	28	2
131	151	2
100	111	2
100	121	4
134	140	1
32	32	1
22	22	3
93	107	3
4	7	1
103	113	1
102	108	1
153	156	3
9	12	7
129	132	2
160	160	3
116	125	3
31	37	1
41	41	3
146	173	2
127	143	2
43	44	3
166	177	1
127	128	1
23	24	2
91	105	1
29	31	1
118	134	1
57	67	4
139	155	3
125	134	1
34	44	2
67	79	1
42	42	5
78	90	3
87	88	4
141	145	2
154	178	1
133	149	2
34	39	2
105	106	3
99	101	1
85	86	4
155	157	2
176	176	3
72	72	1
97	97	4
77	77	4
125	127	2
67	67	8
175	175	1
13	28	2
3	15	2
119	119	3
129	135	2
64	98	1
114	121	2
111	114	1
155	158	2
89	99	1
0	0	2
9	17	1
153	167	1
49	57	2
115	129	1
12	24	2
56	61	3
89	96	1
140	145	1
5	9	2
61	71	3
15	23	3
128	129	2
120	129	2
128	141	3
68	84	3
138	149	1
59	71	1
100	113	1
102	104	3
59	66	2
54	61	1
52	52	2
19	33	1
92	92	3
58	60	1
161	163	1
128	130	2
125	140	1
4	5	2
103	114	1
153	154	2
34	36	1
33	38	2
70	99	1
115	118	1
96	112	1
23	32	1
94	95	1
147	147	1
163	180	1
33	33	3
67	73	2
3	16	1
96	100	1
54	67	2
26	41	1
80	105	1
110	111	1
108	113	1
101	101	2
157	166	2
56	63	2
63	71	3
113	113	4
13	17	1
19	28	1
160	168	1
31	40	1
77	79	4
172	174	2
140	151	2
151	156	1
159	173	3
152	166	1
127	127	2
136	147	1
34	65	1
147	160	3
116	119	1
170	171	2
61	61	2
4	23	2
88	110	1
93	97	1
166	167	1
99	112	1
57	71	1
29	30	1
36	37	1
90	111	2
175	180	3
19	37	1
55	66	3
80	89	2
95	96	1
120	122	1
102	112	1
132	150	2
111	122	1
51	58	2
78	79	4
71	84	4
95	107	1
141	142	1
133	134	1
126	133	1
54	72	2
11	15	1
79	86	1
103	109	2
122	128	1
4	4	4
163	164	3
130	158	1
134	149	2
115	128	1
165	173	1
141	160	1
85	94	2
0	9	1
4	9	1
87	101	2
107	113	1
86	94	2
158	168	1
109	113	1
168	175	3
123	129	2
32	52	1
107	118	1
0	11	2
25	25	1
45	53	1
0	4	2
141	155	1
143	151	1
88	107	1
169	177	2
83	86	1
157	162	1
14	28	1
64	76	1
51	59	2
74	76	1
64	64	3
96	101	2
164	174	1
95	99	2
0	1	1
179	180	1
143	159	1
65	65	2
30	36	1
125	131	2
22	23	2
19	19	1
96	96	1
114	116	2
73	80	2
64	65	1
133	136	1
12	27	1
89	91	1
163	174	1
62	63	1
168	174	1
115	132	2
39	40	1
79	91	1
128	134	1
111	113	2
150	166	1
56	58	1
125	150	1
38	39	1
78	93	1
131	150	2
115	139	1
123	123	1
92	105	1
153	173	1
84	98	1
59	61	1
155	168	1
21	25	1
129	137	3
110	121	1
123	137	1
77	80	1
73	86	1
72	80	1
80	90	1
91	107	1
65	68	1
9	9	1
107	119	1
0	22	1
27	36	3
155	156	2
28	39	1
88	94	1
37	37	1
125	126	1
2	8	1
84	95	1
10	20	1
42	62	1
160	165	1
112	112	1
52	58	1
51	62	1
144	155	1
22	25	2
68	79	1
134	134	1
127	131	1
136	137	1
122	135	1
142	150	1
154	169	1
1	20	1
154	168	1
158	158	1
88	101	1
93	98	1
0	10	1
60	65	1
49	51	1
73	77	1
42	53	1
81	97	1
104	108	1
136	144	1
3	19	1
157	161	1
141	159	1
23	26	1
99	100	1
131	134	1
72	89	1
162	164	1
