121	121	8
96	96	7
85	88	5
95	101	3
51	52	3
13	13	8
104	105	3
64	65	4
69	69	9
4	52	2
39	76	3
7	65	2
103	103	9
4	5	7
103	104	2
41	51	3
127	127	7
5	6	5
107	107	8
2	29	2
22	24	4
65	66	4
29	29	6
8	8	6
41	42	4
49	131	3
52	52	5
74	74	8
106	106	2
16	16	7
22	23	4
10	11	2
9	10	6
61	76	2
100	100	7
4	4	25
1	2	1
60	66	3
116	117	6
51	51	10
102	104	2
122	125	3
58	74	1
47	56	2
68	74	2
3	3	4
94	94	8
34	34	8
59	65	3
31	38	1
71	73	3
117	120	2
52	64	4
104	104	9
31	31	5
117	119	4
89	90	7
125	129	2
22	25	2
101	102	6
15	17	2
8	9	5
102	117	1
48	50	1
51	54	3
62	62	6
94	96	3
17	23	3
56	56	8
115	117	1
84	88	2
115	115	13
101	111	2
70	70	7
99	102	1
101	104	1
44	55	2
83	86	4
87	99	1
99	99	4
2	2	13
129	131	1
101	101	10
59	59	14
12	12	7
57	57	14
54	54	3
126	127	3
55	60	2
91	91	4
127	130	2
67	101	7
112	118	2
108	127	4
75	75	2
79	79	11
105	126	3
39	44	3
118	120	2
68	68	3
132	132	1
105	105	5
82	82	6
130	130	5
118	119	7
133	133	3
107	122	1
99	114	2
72	73	4
59	81	4
95	95	10
28	29	5
54	59	2
89	93	5
84	84	4
87	87	8
112	129	4
98	98	3
2	3	2
3	5	3
87	96	1
116	116	8
61	61	7
93	103	2
48	59	2
20	20	2
119	122	1
11	11	4
73	73	9
111	119	2
80	80	11
127	128	2
64	64	9
85	90	2
29	30	5
92	92	10
120	120	8
125	132	9
14	15	4
88	90	2
109	122	4
97	97	7
53	53	6
20	21	2
119	127	2
90	93	2
18	18	4
116	128	4
120	121	5
64	70	3
26	31	1
5	5	5
17	17	10
95	103	1
118	118	8
109	109	9
124	130	3
115	121	7
42	42	4
15	19	3
28	45	5
67	86	2
23	66	1
106	107	5
65	65	4
56	68	2
81	81	3
10	19	1
110	120	1
2	31	1
22	22	2
71	83	1
49	50	1
102	115	1
109	110	6
12	15	5
100	110	2
91	94	1
47	47	4
100	111	3
78	78	6
132	133	3
127	131	2
98	105	2
9	9	4
50	51	3
45	45	8
10	15	6
1	1	5
77	77	10
118	132	2
78	79	3
88	88	7
25	25	2
76	76	7
7	7	5
94	95	7
115	118	3
125	125	4
43	43	2
7	13	1
44	77	4
126	132	5
40	81	2
76	77	1
66	66	8
67	126	2
43	81	3
108	108	2
38	39	1
49	49	1
21	21	2
117	117	5
26	27	1
71	71	5
87	90	2
103	107	1
126	126	2
48	132	1
51	76	1
91	93	3
13	15	5
23	23	8
40	40	5
119	132	7
99	100	4
40	52	2
94	97	4
100	115	1
62	124	1
92	100	2
114	114	3
87	91	2
83	96	1
12	13	1
125	128	2
54	58	3
51	132	3
56	70	2
86	91	2
114	119	2
56	124	1
46	50	1
3	6	5
40	41	2
102	102	7
21	84	1
94	113	1
47	57	1
50	110	2
98	99	1
46	47	1
39	39	5
1	4	1
44	46	3
46	70	1
5	16	2
48	48	5
39	90	2
107	124	5
54	70	1
72	82	1
2	5	3
118	131	2
114	116	3
69	103	1
115	123	3
9	21	2
70	71	3
29	40	4
46	54	3
56	58	6
85	86	4
40	89	2
97	126	1
103	106	2
9	31	2
68	103	4
102	103	1
60	60	1
105	107	3
123	123	6
122	124	5
63	64	3
129	129	4
63	100	2
55	55	4
55	68	3
6	6	2
25	39	3
14	14	3
106	121	3
79	80	2
85	85	2
63	63	1
75	90	2
112	112	5
2	17	4
17	102	4
82	83	3
44	44	7
112	114	2
109	121	2
24	26	1
81	95	1
90	103	4
67	69	2
15	15	1
52	53	1
71	76	2
116	121	1
111	111	6
81	82	3
16	19	1
6	12	3
93	96	1
53	66	4
112	116	1
124	125	1
19	21	1
91	92	1
104	109	2
40	45	4
39	61	1
0	0	3
90	90	8
67	68	1
59	69	1
122	122	5
52	55	5
46	81	2
108	109	1
61	74	1
24	32	2
107	119	1
38	41	3
19	19	2
85	87	1
69	73	2
6	7	2
113	114	4
13	14	3
131	131	5
123	124	2
51	61	2
92	102	2
86	90	5
89	89	3
107	108	3
95	96	1
68	70	1
4	15	2
67	67	4
43	50	1
19	27	1
99	118	1
93	98	2
76	80	1
31	34	3
26	55	2
43	49	2
72	74	1
110	123	1
10	12	1
130	132	1
72	85	3
58	59	1
125	126	2
110	110	5
91	97	1
44	45	2
59	61	1
75	77	2
45	47	1
107	121	1
121	122	2
3	101	3
63	106	1
15	20	1
72	76	2
16	34	2
55	61	3
85	91	2
11	22	2
45	46	3
4	11	1
18	20	2
51	53	3
41	41	3
105	106	1
114	131	1
112	113	1
16	18	1
60	62	3
30	30	2
83	87	3
38	38	4
58	61	4
97	98	1
8	63	1
24	24	1
4	13	1
59	85	1
103	109	1
93	93	4
99	109	2
111	112	1
48	51	2
58	67	1
0	2	1
39	42	1
106	124	1
27	27	2
19	20	1
104	106	1
29	32	1
26	61	2
128	128	2
90	109	3
3	4	2
19	22	1
2	33	1
47	48	1
7	64	1
85	128	1
32	32	1
59	62	1
0	3	2
113	126	1
5	53	3
50	53	1
44	49	2
31	39	1
2	13	2
109	120	1
67	93	1
106	113	1
93	102	1
5	11	1
65	82	1
70	92	1
126	129	2
96	104	2
26	26	8
77	83	1
16	17	1
95	108	1
46	46	2
71	72	1
93	94	3
63	69	1
98	103	1
22	81	2
128	131	1
46	58	2
49	111	1
121	124	1
46	66	1
103	105	2
129	133	1
58	73	2
14	23	1
109	112	1
68	87	1
72	79	1
100	101	1
127	132	1
59	64	1
98	104	2
47	52	1
13	26	1
97	99	2
116	126	1
52	58	1
97	105	1
68	130	1
58	91	1
57	68	1
108	121	1
97	104	1
26	33	1
28	33	1
65	81	1
115	126	1
14	26	1
80	81	1
39	43	1
100	104	1
48	107	1
9	81	1
10	10	1
61	65	1
87	94	1
77	90	1
