164	164	3
51	127	5
10	11	4
168	168	7
44	44	6
7	20	4
17	21	2
151	151	7
27	27	6
178	178	7
76	77	1
153	153	6
86	86	3
92	92	7
43	43	4
7	8	3
51	51	1
6	28	6
163	167	3
81	81	4
40	109	2
118	118	5
75	76	2
127	127	7
121	121	5
11	11	1
57	57	9
5	5	4
25	30	2
32	114	1
51	143	2
88	133	1
150	150	6
168	171	2
26	26	4
13	13	9
95	95	5
31	35	6
105	105	6
26	27	3
74	146	1
17	17	8
59	118	3
97	97	2
65	67	6
159	159	3
84	84	4
88	90	4
31	31	7
86	87	2
30	31	3
39	110	5
154	156	2
80	130	3
135	141	5
9	9	4
152	153	2
49	173	1
94	115	4
87	124	2
171	171	4
60	60	6
1	78	4
119	119	3
62	63	4
170	170	3
113	114	7
71	71	3
66	67	3
103	104	2
24	24	2
100	100	4
78	78	1
75	75	5
132	133	2
50	143	1
167	173	1
169	169	4
159	162	2
7	7	3
104	104	6
98	101	3
39	39	2
2	4	2
110	110	4
32	33	3
38	96	1
8	8	5
12	13	5
174	174	5
96	123	1
104	105	3
5	6	3
139	139	4
19	19	4
120	120	7
49	170	4
28	28	2
63	63	1
103	103	3
95	128	2
162	162	1
80	131	2
3	3	9
57	63	1
41	42	4
112	112	2
148	148	5
149	149	6
146	146	5
80	81	8
15	15	7
52	85	1
68	97	6
16	139	1
166	166	6
59	63	2
176	176	3
11	13	4
50	50	1
36	143	2
66	71	1
5	24	1
10	10	3
44	118	2
61	61	5
4	8	2
102	102	1
45	45	3
140	140	3
73	73	3
35	35	9
117	117	7
25	25	1
152	152	1
91	91	6
16	111	1
67	68	5
172	172	2
53	71	1
79	82	2
88	88	9
91	110	3
22	22	4
57	136	3
38	38	4
166	167	2
133	133	3
80	80	3
170	174	2
140	158	1
134	134	4
155	158	2
151	155	3
44	111	4
42	42	4
52	52	2
60	62	1
22	38	1
54	54	5
128	128	3
83	84	5
160	160	4
19	21	3
64	144	1
125	125	1
141	142	3
82	83	1
108	108	6
10	16	1
57	60	1
145	145	2
66	66	4
1	2	1
126	126	3
0	0	2
90	90	2
176	177	3
126	127	4
87	87	3
113	131	1
87	93	1
37	37	7
35	111	2
131	132	4
3	38	1
2	6	1
168	169	1
101	101	3
1	4	2
55	64	3
76	81	2
16	16	2
60	143	1
55	56	3
179	179	5
138	138	1
151	154	1
173	178	2
83	83	1
130	132	2
55	59	2
5	28	2
152	156	3
57	135	1
83	86	5
20	35	2
132	132	1
56	56	2
160	161	2
79	127	1
36	36	2
143	143	1
50	136	2
169	173	2
14	14	1
168	180	1
52	112	2
142	142	2
156	156	2
29	30	1
1	1	1
59	59	1
38	67	3
167	170	3
52	130	1
167	167	3
129	129	2
111	111	3
106	106	2
11	12	1
83	85	2
15	16	1
41	128	1
65	65	1
96	96	1
122	122	1
145	146	2
58	63	3
64	114	1
62	62	1
40	40	1
144	169	1
107	123	2
30	30	1
124	124	1
1	23	1
8	19	1
89	89	1
174	178	2
21	21	1
58	156	2
79	126	1
21	22	1
131	180	1
64	95	1
145	171	1
135	137	1
142	172	1
94	94	1
33	58	1
33	33	1
83	128	1
141	141	1
148	157	1
