92	92	11
33	81	7
26	26	8
48	48	21
79	79	15
83	84	5
38	56	2
38	38	16
74	74	18
86	86	12
36	37	12
25	25	7
71	71	28
53	55	5
82	85	7
39	40	5
68	75	1
101	101	9
91	91	8
68	68	15
24	25	3
70	72	2
59	59	21
95	95	5
40	71	2
64	64	26
52	52	13
61	61	13
97	98	1
36	36	11
88	88	12
40	77	4
41	41	21
55	55	7
57	57	13
81	81	26
39	39	14
29	29	10
69	69	20
44	77	1
40	41	5
76	77	7
57	58	5
28	31	2
54	54	7
97	97	4
67	67	12
48	95	3
31	31	5
63	63	17
80	80	24
35	35	9
48	49	3
60	61	10
56	98	11
52	85	2
30	30	1
67	68	17
51	51	10
83	83	11
72	72	13
68	73	4
74	75	6
73	73	21
32	95	1
35	36	6
66	66	16
39	88	4
96	97	5
79	80	9
66	72	2
62	62	18
69	76	3
52	55	1
47	95	3
53	53	4
78	79	3
86	87	1
43	43	9
58	58	11
87	87	13
23	58	1
89	89	12
47	94	2
47	47	5
88	89	4
85	85	11
42	42	16
72	74	1
46	46	6
55	56	1
100	100	8
99	99	10
84	93	1
52	74	1
51	52	2
56	56	13
31	32	4
63	64	2
80	86	1
65	65	6
49	49	4
73	75	1
87	88	5
38	53	4
44	44	15
70	70	16
77	77	18
80	81	10
37	37	11
84	84	7
39	45	10
83	92	10
36	63	1
45	69	1
33	33	19
78	78	9
34	44	1
39	46	5
59	100	2
94	94	4
70	77	2
45	74	1
33	34	1
27	40	1
35	38	3
82	82	12
73	74	4
90	91	5
95	96	3
50	50	9
83	85	3
26	27	7
96	96	14
77	80	1
81	83	2
70	71	5
44	80	3
59	62	2
77	78	2
30	93	1
93	93	3
23	23	1
33	80	1
80	85	1
56	85	2
83	91	2
27	28	3
34	43	1
99	100	3
27	27	2
76	76	11
22	22	2
62	69	1
75	75	8
24	27	6
34	42	1
51	55	2
42	43	3
66	67	5
28	30	7
34	35	3
33	94	4
68	69	1
75	77	1
41	102	2
55	76	2
36	38	5
59	66	1
51	61	2
59	72	5
79	84	4
28	33	1
58	99	1
41	42	4
90	90	5
36	58	1
75	88	2
69	79	4
69	71	4
59	60	1
85	88	1
72	96	1
45	81	1
59	73	3
61	62	5
53	54	2
85	86	2
39	53	1
71	72	6
47	48	7
40	40	4
47	49	1
25	26	5
80	87	1
56	57	5
92	93	1
33	93	1
71	73	1
60	60	3
37	38	2
61	71	2
32	32	1
60	68	1
68	74	1
69	70	2
49	50	3
60	100	4
76	78	1
82	84	2
74	76	3
45	45	3
54	89	1
35	37	4
98	98	1
48	97	2
69	75	1
64	77	1
52	53	1
51	60	1
30	45	2
24	24	1
39	61	1
62	68	2
85	95	1
68	77	1
25	87	1
65	67	1
35	58	1
95	98	3
34	34	1
