71	71	8
85	85	17
17	17	21
34	35	6
78	78	20
0	0	6
120	120	10
87	92	3
60	60	9
68	68	5
17	18	3
44	78	3
118	120	4
12	17	2
87	91	6
38	38	20
130	131	5
48	48	5
129	129	6
47	103	3
96	96	11
18	19	4
36	36	9
6	6	13
11	11	12
83	83	8
36	38	4
4	5	4
72	72	14
2	2	7
101	101	12
33	33	19
74	74	18
116	116	17
5	5	19
40	40	4
77	77	19
34	34	8
105	106	5
119	119	24
47	47	20
1	10	1
3	108	5
14	14	19
121	129	6
10	10	25
126	126	5
107	107	12
9	9	10
46	47	5
103	103	13
100	100	15
63	94	1
3	6	3
85	95	6
109	109	11
1	1	7
84	85	7
56	56	7
59	59	6
96	99	10
30	31	1
26	26	16
40	41	6
30	30	7
95	95	6
127	132	5
87	87	6
133	133	12
121	121	11
37	38	1
27	27	5
73	73	15
35	35	7
39	39	7
127	127	11
63	63	9
66	66	16
115	115	11
107	108	4
94	94	13
86	87	6
97	99	1
97	97	4
77	78	5
84	87	4
57	117	2
43	43	7
45	45	9
67	70	4
55	56	4
92	92	9
19	20	1
32	32	8
0	66	3
66	67	4
76	76	25
110	110	18
44	45	4
84	84	15
61	61	15
84	88	3
112	123	5
74	118	2
56	113	3
24	24	5
90	90	10
78	79	2
18	25	3
33	34	10
46	46	12
108	108	4
46	75	2
46	67	3
40	42	1
29	29	10
111	111	10
99	125	1
39	40	4
86	86	10
114	114	5
31	31	10
20	20	9
44	44	12
63	118	2
42	42	9
70	70	10
85	86	4
117	117	19
38	41	1
4	25	4
131	132	5
4	36	7
11	13	4
123	123	21
113	132	4
9	116	1
21	21	12
95	96	5
115	116	6
45	75	6
75	75	15
133	134	8
42	43	4
16	17	5
36	85	3
79	79	27
109	131	3
43	44	8
4	129	3
32	33	2
16	16	10
38	39	4
82	83	3
116	117	6
124	124	19
82	82	8
29	31	4
39	41	3
3	3	7
55	55	8
59	60	6
41	42	8
22	22	11
12	12	15
99	100	2
63	64	3
112	112	4
84	96	2
29	30	4
92	93	2
13	13	4
23	24	2
98	98	6
122	122	6
92	111	2
23	23	7
88	93	2
72	73	2
28	31	5
57	57	16
128	128	9
57	118	1
14	33	1
11	12	7
19	19	9
64	64	9
57	58	3
125	125	15
15	15	12
47	101	2
16	33	2
62	63	2
7	7	5
83	84	4
114	116	3
65	65	19
91	91	16
83	97	1
62	62	5
15	16	5
93	93	6
86	94	3
37	39	3
99	99	4
81	81	4
130	130	5
18	21	3
69	69	8
110	111	10
79	80	4
14	128	2
75	77	1
2	3	4
17	35	2
132	132	9
113	113	7
26	27	4
11	129	1
62	65	3
1	37	3
97	98	1
78	107	4
89	102	1
129	130	1
118	118	11
8	8	21
112	113	7
89	90	2
64	94	1
79	96	3
40	80	1
14	20	3
82	84	2
67	67	10
20	21	3
48	124	2
28	28	2
90	93	4
105	105	6
68	69	6
18	18	13
95	100	7
134	134	7
104	105	2
25	25	6
41	67	2
0	38	2
8	134	1
48	49	4
80	80	4
123	124	1
10	11	1
40	71	1
3	118	2
27	28	2
95	98	1
3	24	3
32	34	1
12	14	2
69	70	2
126	127	2
104	104	6
106	106	2
91	92	2
7	64	1
18	22	2
112	122	2
11	35	1
20	22	3
80	100	3
78	81	2
9	10	2
36	81	1
90	128	2
4	125	3
87	93	1
60	111	4
118	119	6
82	88	2
88	88	5
113	116	1
36	86	3
99	101	1
41	41	2
81	82	2
6	22	4
130	132	3
97	133	1
16	94	2
131	131	3
114	115	4
6	7	1
106	122	1
5	26	1
49	49	3
113	114	1
112	127	2
71	72	1
54	121	2
24	25	2
15	88	1
58	58	4
55	57	1
120	121	2
106	107	1
98	99	1
117	118	1
60	61	1
49	55	3
36	37	2
89	107	1
7	8	4
13	14	3
14	28	2
112	129	2
100	101	2
115	131	1
4	4	1
56	109	1
9	23	1
109	110	4
37	37	2
38	47	4
76	77	2
93	94	2
46	74	1
106	109	1
119	121	1
48	100	1
94	95	4
110	112	2
6	23	1
75	76	1
22	72	1
29	32	1
34	36	1
43	70	1
105	107	1
8	9	1
127	130	1
48	98	1
90	91	1
82	102	1
76	95	1
4	7	1
58	59	1
30	33	1
78	100	2
64	65	1
82	101	1
122	129	1
128	129	1
56	123	1
14	19	1
13	15	1
125	126	1
19	21	1
122	123	1
56	121	1
101	102	1
94	96	1
