56	56	10
14	14	9
5	6	1
66	66	12
31	31	18
133	133	11
130	130	4
54	55	2
51	53	1
21	21	4
151	151	7
67	67	13
141	141	10
129	131	4
9	9	11
143	143	8
10	61	2
149	158	4
72	72	16
79	80	2
44	44	14
115	115	6
126	129	4
142	142	1
137	137	17
106	106	5
103	103	4
52	52	4
124	125	5
136	136	10
111	134	4
13	13	3
156	156	11
39	39	9
139	178	1
20	20	4
165	165	16
98	98	2
42	42	7
120	121	2
133	134	6
35	36	2
4	44	5
51	51	4
6	7	4
81	83	4
14	16	5
32	33	2
125	125	7
131	131	6
4	4	6
148	148	19
166	166	9
19	19	7
30	31	6
50	51	4
1	1	6
119	119	10
172	172	3
153	154	4
140	168	4
33	33	4
96	96	7
40	98	4
32	32	10
54	54	11
28	28	7
97	97	8
12	13	4
109	109	15
167	167	7
154	154	8
23	24	7
41	41	14
136	172	2
39	40	1
80	117	5
81	82	5
104	105	4
134	134	16
71	71	5
7	8	1
115	116	2
71	78	2
127	127	11
63	65	2
40	40	3
118	119	5
74	76	4
70	70	4
53	53	10
176	176	7
85	113	6
33	77	2
164	165	4
129	129	7
17	18	4
15	16	6
108	108	7
104	104	3
162	166	1
123	124	5
168	168	6
118	118	7
56	68	1
126	126	7
78	78	8
140	140	10
171	171	6
63	63	4
146	146	9
120	120	9
102	104	3
86	86	5
151	153	1
88	88	8
122	122	15
173	173	8
127	128	3
67	68	4
60	60	10
84	114	1
38	40	3
114	114	13
175	175	7
31	124	6
102	103	8
55	56	6
0	0	8
2	4	1
59	61	1
91	92	5
59	67	2
143	144	4
145	145	11
86	100	2
76	77	6
38	38	8
163	163	8
172	173	5
18	18	1
80	120	5
92	92	10
58	58	1
57	58	4
150	151	1
27	28	8
139	139	6
29	29	1
82	82	11
113	113	3
128	152	1
152	152	10
153	153	5
122	132	2
68	68	4
81	110	6
11	13	1
55	169	2
37	85	2
77	119	4
54	133	2
2	3	6
65	65	10
72	147	5
155	155	5
90	90	9
30	124	2
26	26	4
111	111	11
132	132	8
76	120	5
31	125	3
75	76	6
56	165	4
26	27	7
95	95	3
36	36	4
169	169	11
64	65	4
94	95	2
160	160	2
93	94	2
162	162	2
102	102	6
61	61	6
122	124	3
92	93	2
61	67	2
23	23	6
155	156	7
40	96	3
99	99	2
38	39	6
121	121	7
24	26	1
150	150	8
64	134	2
102	113	2
73	73	5
11	12	1
112	114	2
91	91	1
152	153	6
36	41	3
116	116	3
11	11	4
3	19	3
79	79	6
138	139	2
81	115	2
158	158	6
89	89	7
6	6	6
76	76	17
5	5	9
9	11	1
66	67	2
82	83	2
34	34	1
30	30	8
123	123	7
177	177	3
107	107	2
14	64	2
110	110	3
15	15	2
164	164	4
159	159	5
18	20	1
2	19	2
113	114	5
66	133	1
24	25	4
135	135	8
74	132	1
97	98	2
149	149	9
3	3	3
68	147	2
92	95	1
73	74	2
89	97	1
174	174	8
28	29	4
135	136	5
172	175	1
93	93	4
106	108	2
53	111	2
144	145	2
105	106	1
5	117	2
0	79	2
144	144	1
178	179	5
83	101	1
14	15	3
139	140	4
142	143	2
138	138	8
149	150	2
121	122	6
79	177	2
12	12	3
88	89	3
97	99	2
147	147	1
85	86	1
80	81	4
40	97	1
130	131	5
116	176	4
10	11	1
37	37	4
77	77	4
64	64	5
17	53	1
63	67	1
45	45	4
94	94	4
169	170	1
73	75	6
80	80	9
2	2	4
128	128	2
111	112	5
15	66	3
178	178	3
45	46	3
110	111	1
157	157	9
160	164	4
9	18	1
134	136	1
57	57	1
16	16	4
7	7	7
101	102	6
72	73	3
170	170	3
14	65	1
24	24	3
112	113	1
117	117	2
87	87	3
160	161	1
83	84	2
55	55	2
161	161	1
147	148	1
58	62	1
137	173	3
103	105	2
157	158	2
112	112	5
8	8	3
56	57	1
175	176	1
0	35	2
62	62	2
3	21	1
135	170	2
75	75	1
133	139	1
174	175	6
26	30	1
99	101	1
169	172	1
111	135	1
10	10	1
98	99	3
9	10	1
179	179	3
27	27	4
121	133	1
59	59	3
143	169	1
107	108	2
43	43	4
154	157	1
13	14	1
137	138	2
22	26	1
61	62	1
61	66	3
37	41	1
81	81	3
64	170	1
162	164	1
169	171	2
156	157	1
104	174	1
51	52	1
166	167	1
46	46	2
1	33	1
124	124	1
105	105	5
112	134	1
50	50	1
124	126	2
50	82	1
55	168	1
155	158	1
134	170	2
35	35	3
130	152	1
19	21	3
136	169	1
106	137	2
151	152	1
90	94	1
73	180	2
31	126	1
158	159	1
100	100	3
112	115	1
8	17	1
126	128	1
130	153	1
158	160	1
68	148	1
63	68	1
1	3	1
170	171	2
107	109	1
8	18	1
76	118	1
86	109	1
106	175	1
89	90	1
88	107	1
123	125	1
51	80	1
4	5	1
117	118	1
139	147	1
