18	18	17
117	117	15
29	29	13
3	4	7
24	31	3
6	13	2
57	68	2
22	71	3
17	22	1
77	84	1
38	131	2
85	85	19
131	131	12
15	75	5
59	59	9
98	98	12
26	26	7
13	15	5
105	112	2
18	21	3
21	21	11
91	115	4
55	56	7
122	122	10
15	15	11
113	113	14
25	127	2
134	134	8
14	14	5
121	121	19
32	32	11
119	119	10
103	103	13
31	81	3
27	59	2
80	83	1
50	50	7
62	62	12
5	6	3
40	55	2
71	71	4
21	22	3
47	47	11
63	64	8
110	110	18
92	92	16
111	123	1
33	79	3
84	84	14
14	16	4
33	35	9
106	134	4
8	8	11
56	57	4
96	96	10
69	71	2
3	9	5
120	121	1
2	3	4
12	14	4
72	76	4
100	100	10
60	60	4
83	84	6
68	68	27
4	4	5
100	102	6
64	64	12
79	81	1
75	75	11
81	82	4
31	31	8
133	133	9
105	134	4
119	121	3
102	102	6
130	130	7
128	128	14
67	67	4
90	92	1
107	107	4
98	99	3
76	76	10
96	101	5
34	34	17
38	132	4
132	133	1
5	5	7
56	56	8
20	131	1
37	37	7
10	11	4
86	86	16
101	101	5
95	96	5
114	114	10
99	100	11
86	133	6
79	80	12
79	79	15
16	16	13
41	78	4
66	66	7
106	106	6
3	18	2
28	41	1
104	104	15
126	126	9
37	39	1
72	72	15
105	105	5
133	134	14
95	95	15
79	83	2
11	11	23
129	131	6
118	118	18
12	12	9
124	124	19
65	65	9
97	98	11
33	33	12
20	22	4
10	10	10
43	45	2
105	106	9
2	6	3
73	73	17
41	42	6
127	131	5
17	17	5
107	108	5
70	70	1
93	94	2
57	57	11
108	124	2
3	3	18
108	108	14
85	86	11
130	132	2
17	19	4
55	55	5
80	81	2
23	23	6
24	43	7
16	72	2
13	13	19
77	77	7
38	38	12
6	6	9
129	129	6
43	57	2
19	22	4
9	9	10
32	57	1
113	115	1
19	21	10
64	65	1
44	44	5
90	90	4
94	101	1
0	0	8
27	43	3
23	76	5
82	82	8
30	30	4
16	73	3
15	16	9
93	93	16
16	129	3
88	88	6
111	111	11
39	49	7
21	69	4
22	36	3
25	132	3
20	72	2
44	60	2
24	24	12
5	12	2
45	45	7
63	63	17
123	123	12
38	130	3
114	115	6
25	39	1
26	29	6
104	106	3
23	36	1
22	39	1
4	9	2
94	94	11
44	45	4
94	95	10
28	96	1
29	30	3
109	114	9
57	61	4
81	83	2
116	116	27
117	122	1
78	79	6
121	122	11
61	61	16
115	128	2
48	62	2
7	7	9
6	12	2
26	28	7
103	104	7
35	35	7
131	132	2
19	19	11
61	79	3
88	127	6
31	32	8
88	91	3
30	31	1
112	113	9
20	21	3
36	36	6
116	128	3
110	116	1
127	127	10
120	120	12
128	130	4
91	99	8
111	113	2
127	132	3
32	37	3
132	132	4
0	9	3
106	107	4
70	71	2
98	101	1
91	93	2
66	67	1
23	25	1
91	91	4
11	15	3
33	78	1
28	40	3
28	56	1
87	126	1
26	127	3
16	17	2
103	123	3
46	47	5
92	116	6
39	39	5
29	130	3
82	83	4
27	27	15
92	93	1
17	18	2
37	38	1
67	68	5
73	74	1
18	26	4
109	110	1
1	76	2
1	66	2
111	112	2
61	62	3
25	27	4
18	72	1
78	78	9
74	74	3
124	125	2
8	9	8
33	37	1
125	125	3
17	127	2
77	85	1
95	97	4
42	56	4
7	14	2
43	46	3
117	118	1
65	66	2
29	38	3
35	76	2
30	81	1
59	60	3
81	87	1
58	59	2
103	122	2
42	43	2
111	114	2
26	27	3
45	48	4
72	92	3
99	99	9
22	22	6
42	42	3
27	31	3
62	63	1
128	129	2
107	123	4
2	2	4
57	59	1
84	85	8
18	131	1
109	109	4
33	36	3
29	78	1
74	76	1
18	19	4
5	8	2
25	42	3
69	69	1
11	12	6
37	128	2
15	128	1
98	100	2
87	127	1
78	84	3
110	123	2
83	83	5
47	48	1
24	25	3
66	68	2
29	76	3
60	61	2
28	29	4
41	41	2
6	14	2
46	46	3
34	35	2
118	119	2
10	15	3
27	73	1
117	130	6
80	80	3
96	102	3
40	40	2
100	103	1
89	91	1
28	92	2
36	37	1
104	107	1
35	36	1
48	48	2
28	45	1
2	10	1
87	128	1
7	15	4
39	51	1
123	124	1
110	111	3
122	132	1
58	58	4
75	76	5
54	57	1
20	20	3
112	112	8
37	83	2
81	85	3
111	121	1
115	115	4
71	72	3
87	88	6
107	109	3
68	69	3
86	132	1
81	88	4
102	103	5
93	122	1
54	54	2
27	28	1
29	32	3
14	15	2
88	126	6
79	84	5
22	25	1
21	71	1
81	84	1
93	106	1
129	130	6
22	125	1
30	32	1
110	112	1
126	127	3
88	132	2
43	48	2
87	87	5
26	41	2
22	70	2
25	26	3
33	38	3
0	1	1
25	82	1
78	81	2
4	10	1
108	110	2
105	124	1
109	122	1
39	81	3
16	74	4
58	60	1
23	75	2
30	126	3
106	113	3
76	92	1
27	82	2
38	40	2
8	10	1
82	87	1
112	115	1
12	75	3
130	131	4
43	43	3
86	87	1
16	91	1
122	123	3
55	59	1
6	7	2
30	33	3
77	78	2
17	20	2
32	77	4
125	126	1
87	130	3
41	79	1
5	11	2
27	95	1
31	56	1
113	114	2
70	73	1
95	101	1
51	51	1
45	47	1
3	14	1
39	42	2
89	89	2
118	120	1
20	129	1
39	130	1
17	75	2
27	93	1
31	90	1
78	82	1
4	13	2
80	82	1
27	42	1
18	45	1
94	103	1
116	118	1
38	76	2
36	78	1
107	114	1
25	25	2
47	71	2
11	13	1
35	88	1
39	40	1
10	13	2
132	134	2
25	30	1
56	81	1
102	122	2
67	119	1
78	134	1
72	73	1
10	12	1
18	132	1
106	133	1
22	48	1
19	72	1
108	109	1
20	132	1
0	8	1
94	104	1
43	44	1
17	71	1
93	115	1
70	72	1
17	30	1
28	28	1
26	39	1
28	60	1
