113	113	2
105	105	4
52	52	3
95	95	3
109	109	4
121	121	5
67	67	3
77	77	4
59	59	3
25	26	4
13	13	1
9	9	8
76	91	2
0	1	1
16	16	1
37	37	1
57	58	2
96	96	3
94	94	6
124	124	5
32	32	3
78	78	8
91	91	4
81	82	6
12	12	7
111	111	5
2	50	2
1	78	1
66	66	4
35	36	3
6	6	7
130	130	6
29	29	3
101	118	4
16	19	3
90	90	2
105	109	1
54	54	7
104	104	2
115	115	7
112	112	2
131	133	1
114	114	3
97	97	6
0	2	2
97	118	4
29	30	3
82	82	2
15	15	3
5	5	8
63	63	2
55	62	3
86	86	7
58	58	3
76	77	3
102	102	4
6	47	3
65	65	2
66	67	1
96	99	4
61	95	2
11	11	5
92	92	1
103	103	1
56	58	3
103	104	3
125	126	1
83	85	4
86	87	5
76	76	2
58	96	1
62	62	4
127	127	7
105	116	1
92	93	5
64	64	2
105	121	4
126	126	6
98	98	8
61	98	4
28	29	6
125	125	2
121	122	2
43	43	2
1	2	3
127	128	2
119	119	5
23	24	1
7	29	1
101	101	4
50	55	1
69	69	6
65	75	2
7	8	2
104	105	2
43	47	3
99	118	1
95	102	2
73	73	12
56	56	2
72	74	1
8	8	4
65	88	6
43	44	1
25	25	4
71	71	2
108	108	3
116	116	5
15	21	4
120	121	1
2	2	2
113	120	1
85	85	3
75	76	2
71	80	1
133	133	1
119	131	2
19	21	1
3	5	2
63	64	1
110	110	4
101	121	3
54	56	4
54	95	1
79	79	1
17	18	2
118	125	2
106	116	2
13	14	2
126	129	1
68	68	5
89	89	1
122	122	2
128	128	2
80	80	2
60	96	1
123	123	1
105	122	1
4	4	2
98	99	1
44	67	4
94	95	1
121	124	1
134	134	4
111	115	1
0	0	3
47	47	1
119	120	2
57	57	3
70	71	3
60	60	2
130	132	2
82	104	1
33	33	4
123	124	1
132	133	2
20	20	1
7	7	1
45	51	3
66	87	1
15	19	1
65	67	1
61	94	1
97	115	2
105	106	1
77	78	1
14	14	4
81	81	1
118	118	2
129	129	3
34	34	4
66	82	1
23	23	1
122	124	1
95	99	1
71	72	2
19	19	2
36	36	3
36	54	1
35	35	3
20	67	1
30	32	2
57	59	1
4	5	2
3	3	1
88	90	4
65	66	1
96	100	2
50	50	1
84	85	1
2	37	1
20	21	1
2	3	2
89	90	2
70	70	4
7	12	1
132	132	1
72	73	1
46	46	1
107	107	1
126	134	1
20	68	1
76	78	1
78	79	2
74	74	1
2	36	1
113	131	1
55	55	3
69	70	1
100	101	1
21	21	1
6	7	2
65	69	1
49	50	1
30	30	1
54	96	1
