35	35	15
36	36	8
67	67	13
56	56	3
17	17	13
4	7	4
50	55	2
1	3	1
6	6	7
29	57	2
51	51	12
53	55	1
78	79	3
61	63	1
20	20	14
31	31	11
50	52	3
0	0	18
52	52	1
39	39	20
29	31	2
10	10	15
46	46	17
42	42	16
53	53	5
37	37	15
38	38	13
8	32	2
28	28	12
26	26	6
41	48	5
53	72	7
13	14	5
71	71	11
59	74	5
2	2	25
14	32	4
1	1	26
28	31	2
78	78	10
9	20	1
68	68	7
65	65	18
10	50	3
47	47	3
12	12	12
69	69	14
17	59	3
11	11	9
40	40	15
4	4	22
15	17	1
3	3	5
25	64	2
61	61	13
58	59	1
15	15	7
79	79	9
1	4	2
30	30	7
70	70	5
66	66	15
50	66	2
59	59	17
9	10	4
48	74	2
20	21	3
14	16	1
14	14	7
57	57	17
60	61	6
27	41	1
27	27	15
0	17	4
21	21	1
62	62	11
58	58	14
27	73	1
5	6	2
31	32	4
29	29	18
48	69	1
72	74	2
37	47	3
41	52	1
8	8	5
7	7	4
63	67	2
40	46	2
16	16	9
64	65	3
68	69	10
29	30	10
8	9	2
41	41	9
9	17	2
66	73	1
8	72	1
17	29	3
28	79	1
73	80	1
14	77	1
44	44	2
2	8	2
74	74	16
64	64	7
56	58	1
76	76	12
67	70	6
55	71	6
5	10	1
13	72	1
13	13	7
63	64	5
10	51	1
60	60	10
73	73	14
30	47	2
55	56	3
54	67	2
30	33	4
42	57	4
77	78	1
57	62	2
60	63	3
48	48	11
61	62	6
66	75	4
21	36	4
53	54	8
63	63	14
11	14	5
39	43	1
25	53	2
12	13	3
25	25	3
55	55	15
72	72	10
66	67	8
75	75	9
19	19	7
74	76	3
20	29	2
10	12	3
7	26	3
48	49	6
80	80	6
70	71	1
41	42	6
30	38	2
17	63	2
43	43	5
67	69	3
45	45	8
31	71	1
2	41	1
75	78	4
33	33	6
76	79	2
32	32	5
79	80	5
41	53	3
27	28	6
17	27	1
54	54	9
35	75	5
45	46	3
10	13	1
34	35	5
49	49	8
67	68	5
50	51	5
40	41	3
41	44	3
18	18	4
71	75	3
50	69	3
53	68	3
69	72	2
11	13	2
64	66	1
48	55	1
21	54	1
39	49	2
17	21	1
51	52	3
17	18	3
72	73	4
70	72	1
13	17	1
19	20	4
5	5	8
26	36	2
74	80	4
51	54	1
8	48	1
37	45	5
36	37	3
10	14	1
9	75	3
10	68	2
8	11	1
0	6	1
52	54	2
48	53	2
4	45	1
7	8	1
65	66	1
13	65	1
26	31	2
73	74	3
34	34	1
10	18	3
50	71	1
47	48	4
13	71	1
77	77	6
74	75	1
10	29	2
50	50	4
14	70	2
52	71	2
2	37	1
17	79	1
3	32	1
9	9	4
18	43	2
75	77	3
27	38	1
33	34	5
80	81	1
8	74	1
6	7	1
16	33	1
69	70	2
11	12	2
40	42	3
28	29	2
32	45	1
66	71	1
35	76	3
37	38	1
55	58	1
22	22	1
38	39	1
20	26	3
44	45	1
32	33	1
11	19	2
69	71	4
19	47	1
53	65	1
9	50	2
37	55	1
28	30	3
3	38	2
31	53	3
28	42	1
48	56	1
52	53	2
21	29	1
25	26	1
3	4	1
58	60	2
39	42	1
51	53	3
17	19	2
3	31	1
34	56	1
8	71	1
25	33	1
16	64	1
13	32	1
55	74	3
56	59	1
32	47	1
16	17	2
16	41	1
68	70	1
49	53	2
52	73	1
57	60	2
12	18	1
15	49	2
52	55	3
71	72	1
15	32	2
9	11	1
49	72	2
42	43	2
16	30	1
32	34	1
17	31	2
30	31	2
36	50	1
9	12	2
66	68	1
6	14	1
2	11	1
53	64	1
49	54	1
14	51	2
21	32	1
18	19	1
17	64	1
30	37	1
1	2	1
76	78	1
34	46	1
31	77	1
