32	32	8
123	123	8
54	107	5
41	46	2
99	128	2
16	16	2
77	77	7
25	25	4
115	115	2
3	3	10
9	113	2
94	94	9
86	86	12
65	65	4
109	115	2
58	59	1
107	131	1
116	130	7
6	6	2
99	99	4
108	108	12
15	15	4
97	97	10
110	110	7
90	90	9
23	23	11
22	22	5
64	64	12
14	15	1
99	109	2
29	41	1
94	117	2
85	85	7
63	63	7
116	116	4
17	22	2
96	120	3
39	39	6
56	56	9
50	51	2
91	95	1
102	103	11
49	49	9
126	128	1
48	94	1
102	102	4
97	100	3
107	107	9
31	32	2
43	43	15
50	50	4
92	92	13
2	5	4
125	125	2
60	60	10
60	62	1
40	43	3
68	68	4
19	19	10
34	130	5
78	113	4
87	87	9
55	119	2
105	105	5
5	32	4
95	101	2
28	28	10
85	88	1
48	49	1
54	54	4
26	27	4
5	31	3
100	105	1
30	32	1
50	56	1
40	40	8
70	74	8
59	59	6
90	99	3
83	83	6
74	74	12
108	130	3
0	0	3
4	38	2
45	45	1
76	76	1
38	102	2
47	47	5
57	57	2
101	101	3
78	78	5
114	115	4
29	29	1
126	126	5
67	73	2
80	81	2
13	13	3
69	72	2
27	28	3
89	97	3
17	18	2
77	88	1
7	7	3
49	50	6
32	44	4
133	133	2
11	11	6
84	84	3
93	93	8
104	104	4
125	127	2
111	111	2
1	1	4
29	30	1
124	124	7
89	128	2
41	42	3
119	119	2
80	86	1
88	97	3
46	47	1
12	12	3
85	86	4
70	70	3
106	106	7
91	91	4
48	64	2
76	91	2
46	91	1
87	88	4
10	11	1
108	117	1
55	58	3
39	58	1
46	46	7
48	60	3
5	22	2
67	67	10
111	112	3
45	66	4
38	106	3
84	99	1
69	76	1
47	61	2
4	4	5
50	57	1
82	88	1
33	34	2
46	62	3
73	74	3
39	42	2
41	90	5
50	53	2
10	10	5
83	84	3
5	5	2
114	116	6
30	31	2
95	104	2
113	113	5
89	89	7
93	129	4
63	72	5
121	121	5
20	20	3
8	9	3
52	52	2
47	127	2
40	41	6
80	80	5
6	32	4
58	60	1
62	62	2
5	23	3
14	14	6
75	76	2
112	112	8
72	74	1
109	109	2
55	55	3
55	92	4
30	39	2
96	119	2
65	66	4
43	91	2
43	54	3
72	72	2
27	27	2
71	87	2
14	73	1
9	106	1
18	19	1
71	71	3
118	120	4
38	38	4
64	65	1
57	112	4
64	68	1
16	17	2
62	71	4
30	30	3
95	95	3
18	18	1
75	75	4
1	105	3
24	24	10
48	48	1
70	75	2
7	8	3
120	120	2
0	1	2
127	128	2
130	130	3
92	94	2
82	82	4
105	106	1
127	127	11
46	89	1
54	76	3
66	66	1
38	91	3
129	130	3
73	73	3
54	131	4
52	77	1
60	65	2
44	44	2
70	73	5
78	81	2
27	31	3
89	90	1
112	113	3
38	85	1
8	8	2
16	22	1
75	85	1
77	81	1
63	70	2
55	63	1
70	71	1
85	87	1
42	42	3
103	103	2
32	33	4
68	70	2
59	76	2
103	119	1
11	12	6
106	108	2
53	81	2
18	21	2
97	98	1
41	44	1
75	90	1
18	116	1
60	82	2
2	2	2
128	129	1
117	117	2
41	43	1
128	128	3
54	92	2
97	107	1
69	69	1
108	114	4
42	58	1
1	59	1
38	129	2
4	32	1
72	73	2
76	93	1
7	111	3
81	81	3
10	24	2
114	114	2
69	108	2
55	60	1
9	13	1
16	117	2
81	82	2
91	92	1
123	124	1
90	91	1
104	118	2
39	40	1
21	21	1
19	117	1
9	10	1
75	87	1
21	23	2
53	58	1
63	64	1
88	88	1
50	124	1
11	111	1
122	122	4
96	96	1
100	100	1
9	9	1
98	98	1
130	131	2
99	108	1
54	117	1
106	107	2
2	26	1
100	104	1
24	25	1
52	109	1
19	20	1
2	4	1
38	108	1
33	33	1
71	72	1
69	114	3
107	130	1
92	126	1
39	41	1
99	130	1
102	125	2
12	111	1
69	70	1
56	112	1
17	17	1
14	70	1
42	59	1
55	61	1
44	58	1
