53	54	3
14	14	4
135	135	2
21	47	1
138	138	4
75	75	6
22	66	2
64	64	15
0	1	3
58	59	4
98	98	2
55	73	3
42	42	6
93	93	3
127	127	2
111	116	2
83	140	1
24	42	1
20	20	11
21	35	1
69	69	6
48	48	6
28	28	6
125	126	3
55	61	4
125	125	5
106	107	2
74	74	5
65	65	4
113	113	1
55	55	2
74	75	5
111	111	5
122	123	5
118	119	5
110	110	4
79	119	2
66	66	3
92	93	2
88	99	3
76	91	1
22	22	3
133	133	6
8	9	4
16	16	3
28	30	5
35	35	2
22	58	1
121	121	6
141	141	2
82	86	1
23	24	4
19	19	2
131	132	3
91	93	2
29	32	4
21	21	4
24	57	1
130	130	1
11	11	3
117	118	5
98	140	1
18	32	2
21	31	3
144	144	3
13	13	5
134	134	1
26	26	4
89	89	1
118	118	1
53	53	4
109	116	2
129	132	4
0	0	4
14	35	2
96	98	1
53	73	3
122	137	1
78	78	3
95	95	1
70	70	3
72	72	4
86	119	2
5	5	5
85	114	2
19	20	1
51	51	2
20	21	1
84	123	2
99	100	3
43	43	3
50	51	3
75	109	1
145	145	6
16	17	1
122	122	3
75	76	2
119	119	6
23	23	5
29	30	1
73	73	2
100	100	3
96	97	2
79	79	1
34	35	3
25	25	2
131	131	1
13	14	3
32	32	2
15	15	1
32	39	1
67	68	1
30	31	1
91	91	1
112	112	3
71	72	2
84	112	1
67	67	1
14	36	1
49	49	1
4	5	3
125	133	1
106	106	2
140	141	2
139	139	9
92	92	1
3	43	3
10	10	3
59	59	2
84	114	2
68	68	3
27	27	2
143	144	4
64	65	3
124	125	3
40	40	4
110	111	2
18	18	1
90	119	1
54	60	2
99	99	1
37	37	1
124	124	1
107	107	3
80	80	2
70	71	1
132	132	5
61	72	2
114	114	6
5	13	2
38	38	5
117	117	1
61	61	5
2	3	1
123	136	1
29	33	1
32	33	1
112	114	1
96	96	2
104	104	2
101	101	3
136	137	1
54	54	1
128	128	1
23	57	2
126	127	1
62	63	1
110	116	1
31	31	2
55	56	1
129	138	1
94	94	3
82	139	1
80	105	2
56	56	1
4	4	4
58	58	4
80	134	2
83	84	1
17	32	1
39	39	1
50	50	2
15	16	1
62	62	1
1	1	1
83	83	2
52	73	1
26	116	1
116	116	1
5	15	2
71	97	1
94	144	1
31	33	2
63	72	1
57	57	1
31	41	1
120	121	1
135	138	1
26	27	1
88	89	1
129	130	1
41	41	3
83	86	1
4	37	1
21	23	1
90	90	2
82	85	2
36	36	1
71	71	1
99	125	2
23	31	1
136	136	1
19	33	1
52	56	1
12	15	1
30	30	1
60	112	1
68	69	1
28	42	1
110	112	2
130	137	1
113	115	1
29	29	1
54	56	1
63	63	1
87	87	1
