11	31	3
19	20	4
35	35	7
74	74	20
8	8	14
1	1	7
52	52	8
53	55	8
78	79	5
80	81	5
65	65	10
59	59	7
5	5	18
2	2	12
57	57	25
51	51	22
71	87	1
49	49	20
67	67	18
23	23	10
48	48	17
64	64	4
3	19	2
64	66	6
47	55	2
66	66	13
69	69	2
24	27	6
11	11	11
13	17	5
55	85	6
13	64	5
55	56	5
66	67	3
1	4	1
77	79	3
7	32	4
56	56	18
58	63	3
15	15	8
59	60	3
15	16	3
32	34	3
50	51	4
85	85	21
82	82	9
50	50	17
19	19	19
24	24	13
60	60	7
78	78	14
55	55	9
24	25	1
4	4	13
73	74	7
89	89	20
28	30	1
3	3	16
23	62	1
70	70	13
87	87	11
3	4	8
26	27	3
66	87	2
47	47	11
79	79	7
6	7	3
13	13	3
81	81	11
86	86	11
83	83	19
58	58	10
23	24	5
12	12	5
73	73	14
61	61	2
2	87	1
10	10	12
58	65	2
25	27	3
78	83	2
27	48	4
10	11	7
88	88	12
80	80	9
71	71	10
6	54	2
16	16	15
53	69	2
8	10	3
27	51	3
25	52	2
49	73	3
68	68	10
85	86	3
25	25	9
61	62	4
68	69	8
0	0	5
20	23	2
17	17	14
76	79	4
25	48	4
75	75	10
76	77	5
0	1	3
30	49	1
15	66	3
47	49	4
50	84	2
28	29	1
31	31	12
14	14	12
1	3	4
63	63	14
59	61	4
7	7	9
54	56	2
2	3	4
18	19	2
13	14	4
30	30	5
12	22	1
34	34	1
6	6	3
64	65	1
20	20	9
84	84	8
68	70	3
9	10	1
2	4	1
48	49	2
54	55	5
9	46	2
51	74	1
32	32	1
72	73	3
51	66	1
28	28	7
5	31	2
48	55	2
29	29	3
12	14	1
62	62	8
27	29	1
79	81	2
46	46	4
75	80	5
22	23	1
70	85	3
9	9	4
9	25	2
22	22	2
62	63	7
70	71	4
13	35	3
21	21	1
53	54	1
77	77	2
24	50	3
28	48	1
21	22	5
81	82	2
52	74	1
23	27	1
50	87	1
7	34	1
54	69	2
48	52	2
7	33	1
60	63	2
27	27	4
52	53	2
9	19	1
9	55	1
14	66	1
5	30	2
76	76	2
11	27	1
60	61	4
60	80	3
27	28	8
50	52	1
47	76	3
9	24	4
27	62	1
54	84	2
27	53	2
57	87	1
57	68	1
72	72	3
46	55	2
2	69	2
20	61	1
79	80	4
8	9	1
65	66	1
10	12	3
14	81	1
57	90	1
47	48	1
13	63	5
5	6	2
88	89	2
0	30	1
74	85	1
6	17	1
27	59	2
26	46	2
10	29	1
26	26	3
81	84	1
81	86	1
8	66	1
74	82	3
12	13	1
67	70	2
80	83	1
19	22	1
16	66	1
25	26	1
67	68	1
