49	51	1
85	95	1
196	196	6
163	164	1
173	187	3
189	189	5
210	224	3
181	191	2
44	45	2
88	88	3
214	218	5
94	97	3
220	220	2
145	145	6
246	246	2
170	178	2
73	79	1
207	208	5
171	196	5
145	150	1
7	7	6
94	96	1
230	230	5
69	69	5
62	64	4
94	94	1
193	193	4
73	81	1
13	14	1
179	190	5
190	190	1
15	23	2
65	70	1
26	32	3
162	163	2
112	112	1
91	91	2
204	214	8
149	149	5
18	18	1
5	5	4
19	19	2
76	79	1
218	219	4
201	201	6
37	44	1
18	23	5
81	82	2
237	240	1
57	57	6
184	201	3
33	44	5
14	14	4
106	117	1
162	166	5
83	87	1
107	111	2
81	91	5
232	232	6
11	11	3
12	14	1
54	54	6
76	77	1
233	233	3
184	185	2
30	33	3
90	90	2
106	106	2
235	235	1
48	48	1
4	4	7
102	110	1
241	244	2
53	53	1
15	15	3
182	182	3
52	56	1
160	160	10
195	197	1
68	69	4
184	187	3
164	166	3
167	169	2
97	111	2
163	163	2
188	192	1
64	66	1
227	227	4
62	65	2
209	212	1
116	117	5
170	174	2
185	188	2
245	247	1
7	12	3
171	171	2
237	237	10
53	58	2
174	175	4
35	35	3
155	160	2
205	227	2
210	211	3
30	31	1
79	79	5
34	35	2
220	228	1
20	25	1
201	203	1
69	82	2
100	100	3
61	65	2
211	214	5
101	115	1
158	163	3
12	12	2
182	185	3
236	240	4
170	190	2
68	86	1
84	93	4
177	177	1
26	26	1
211	212	1
66	66	5
241	241	1
62	62	5
57	69	1
198	215	1
47	47	1
207	217	4
77	88	2
205	207	3
228	234	3
240	240	2
197	207	2
225	237	2
7	9	1
44	60	1
104	106	2
6	14	2
73	75	2
19	30	2
231	242	3
207	207	2
234	235	1
186	200	2
76	84	1
242	242	7
88	91	4
114	116	6
82	90	1
90	92	1
25	32	3
195	198	8
67	69	1
110	111	2
43	43	4
25	26	1
237	238	3
85	86	3
82	84	2
77	77	5
167	167	2
95	95	3
235	247	1
215	224	1
232	241	2
101	104	3
70	72	1
6	16	2
49	49	6
163	172	2
30	35	2
60	67	2
209	209	3
31	44	3
197	205	2
203	210	1
99	110	2
146	152	1
75	76	3
60	84	1
154	167	2
175	180	2
46	60	2
97	97	1
49	52	2
96	97	1
55	58	5
147	151	2
89	91	4
62	63	1
206	216	2
80	94	1
113	119	1
2	2	6
216	216	3
195	202	1
73	73	1
46	73	1
222	229	1
10	10	2
65	75	2
222	223	1
244	247	1
12	19	1
12	22	3
155	164	1
107	109	1
230	231	1
229	241	2
106	112	2
172	173	4
71	80	3
51	57	1
34	34	2
214	214	3
31	37	4
230	235	1
119	120	2
152	155	1
3	7	6
109	112	1
63	64	1
42	47	1
18	19	2
19	22	2
178	178	1
207	215	3
176	177	1
192	194	2
161	164	2
212	213	1
231	231	1
167	179	3
41	43	1
33	35	3
174	178	6
18	26	2
28	40	2
59	65	1
229	231	2
233	243	2
56	71	2
229	229	3
208	208	6
44	55	1
10	22	2
205	209	2
46	48	1
247	247	2
110	110	2
95	107	3
99	100	1
30	43	2
20	20	1
145	146	2
57	60	3
22	22	6
171	183	2
92	94	1
206	206	2
191	192	1
57	66	2
207	225	1
180	180	4
178	183	1
10	21	2
79	82	1
64	64	4
46	46	5
60	60	1
213	214	1
150	159	4
151	154	1
217	217	5
21	22	4
9	14	3
14	33	3
76	88	3
182	186	1
33	52	1
165	167	2
162	162	3
90	96	4
95	105	1
57	63	3
90	101	2
175	191	1
152	153	2
170	171	3
55	61	1
181	182	1
50	54	1
153	159	2
84	87	1
183	184	1
54	55	2
242	244	1
175	175	4
244	244	5
63	63	4
35	46	4
177	179	1
22	26	2
228	232	1
163	166	2
215	215	4
190	199	2
155	158	1
175	185	2
68	68	11
181	181	1
89	96	1
154	172	1
172	178	1
199	199	4
69	71	2
22	23	4
170	173	1
74	84	1
114	118	3
74	80	2
211	219	2
202	205	1
180	181	4
161	162	3
90	98	3
174	185	2
48	50	2
52	52	3
45	45	3
228	228	2
41	46	1
114	117	2
59	59	1
225	225	5
174	183	2
36	40	1
192	192	5
235	240	1
187	200	3
71	84	1
33	33	2
99	103	1
59	71	3
118	120	1
9	16	1
34	42	2
238	245	1
116	116	1
50	64	3
165	169	4
51	55	3
93	97	2
77	91	3
100	101	1
88	101	1
107	115	1
214	219	1
51	52	1
93	96	1
44	47	1
246	249	1
52	67	2
187	187	3
28	29	1
86	87	4
118	118	2
191	193	1
181	189	2
19	20	1
82	83	3
150	158	1
167	168	2
79	89	1
228	231	1
31	35	2
231	241	3
41	41	3
3	4	3
3	3	2
17	29	1
164	169	2
8	8	1
183	188	2
98	99	4
53	62	3
63	69	1
61	61	2
157	164	1
15	18	2
223	240	1
196	201	2
91	92	3
199	200	2
55	55	1
20	22	1
238	238	4
48	72	3
166	167	2
110	113	4
223	223	2
97	100	1
71	72	2
206	210	1
213	213	2
100	105	3
225	228	1
109	109	4
87	88	1
67	67	3
208	225	2
9	9	1
203	204	1
239	239	3
72	72	2
17	20	2
7	20	2
54	57	1
19	29	1
77	87	1
85	91	1
59	72	1
49	62	2
27	29	1
96	104	1
97	101	4
40	52	2
200	201	4
181	193	1
4	16	1
203	203	1
179	179	1
225	226	1
210	210	1
231	235	3
221	229	1
204	204	1
37	43	1
65	77	2
162	176	1
195	209	1
168	174	1
194	194	1
232	240	2
6	7	2
57	80	2
113	113	1
61	62	1
1	1	2
95	97	1
96	96	1
239	243	1
150	151	1
193	195	1
245	245	1
196	202	2
89	90	2
105	105	1
28	31	1
235	237	2
212	212	1
246	248	2
200	213	1
215	226	3
165	168	1
143	150	1
74	74	4
80	81	1
66	85	1
60	71	1
30	42	2
219	227	1
218	218	3
186	191	2
53	54	2
56	58	1
81	83	1
113	117	2
23	32	1
89	100	1
226	226	2
70	70	1
221	226	2
55	65	1
187	201	2
100	109	1
87	95	1
99	99	1
51	58	2
63	76	2
241	243	2
85	85	2
174	182	1
178	192	1
45	47	2
67	82	1
27	39	1
8	9	3
82	91	1
197	198	1
100	113	1
189	191	1
42	54	1
92	97	1
56	67	1
101	110	1
2	6	1
7	15	3
233	234	2
103	103	1
244	246	1
25	25	1
180	189	2
220	221	1
225	235	1
82	101	1
154	160	1
195	195	1
186	195	1
164	164	1
45	56	1
67	80	1
224	226	1
181	188	1
234	238	1
18	21	2
222	222	1
193	194	1
200	203	1
57	67	1
182	184	1
14	18	1
64	65	2
106	119	2
58	58	1
177	189	1
77	83	1
207	212	1
42	43	1
153	158	1
8	23	1
219	220	1
227	236	2
227	231	2
157	158	1
56	68	2
248	248	1
178	179	3
243	243	1
167	170	2
10	12	1
165	182	1
227	237	1
115	116	1
51	51	1
152	152	1
58	60	1
233	242	1
221	221	1
182	194	1
176	186	1
165	184	1
81	81	3
42	52	1
68	88	1
42	49	1
162	177	1
78	78	1
197	214	1
189	193	1
2	9	1
95	102	1
187	196	1
92	93	1
187	229	1
107	119	1
194	203	1
218	227	1
161	166	1
37	37	1
69	79	1
229	235	1
48	49	1
164	168	1
24	24	1
209	217	1
169	170	1
