105	141	3
158	159	1
88	88	13
40	40	6
145	145	13
141	179	6
125	125	8
14	14	9
2	2	4
153	167	3
154	154	14
113	134	4
84	84	9
56	62	7
152	152	8
40	44	3
71	72	8
146	174	2
72	73	3
33	35	1
144	144	7
17	21	1
160	160	5
138	138	3
121	121	6
67	68	6
163	163	7
28	30	2
84	89	1
129	129	18
38	38	5
56	57	5
28	50	5
27	50	3
81	87	3
39	41	4
9	9	9
179	179	12
41	41	12
153	153	1
168	168	23
62	64	3
24	25	3
55	56	3
42	43	4
33	34	2
116	116	9
28	28	11
32	33	5
131	134	2
144	150	2
36	36	11
130	130	6
2	72	4
35	35	7
24	26	4
31	32	7
142	143	2
74	76	2
162	162	8
32	41	4
108	108	9
98	99	6
0	31	6
50	50	4
112	145	2
159	160	1
52	52	8
57	57	11
62	62	3
64	88	3
5	5	2
107	137	3
64	64	10
60	61	3
6	91	2
174	174	9
62	63	2
149	175	2
149	149	6
81	91	4
147	148	5
91	91	4
171	171	8
164	168	5
10	10	4
33	33	8
124	124	7
56	64	7
159	159	7
4	23	1
86	109	3
77	77	3
178	178	7
110	111	1
167	173	4
66	84	3
19	21	2
73	73	12
7	11	2
119	119	4
160	161	6
108	110	6
51	51	4
17	17	8
14	79	4
93	93	2
25	25	6
28	51	2
161	180	8
6	6	10
120	120	9
130	147	5
95	95	14
82	137	1
58	58	4
116	118	4
86	86	7
31	31	9
136	158	1
86	87	2
17	45	3
11	11	2
54	57	2
59	101	1
131	131	10
169	169	23
49	49	6
142	142	9
53	53	3
13	13	11
135	143	4
173	174	8
70	70	6
99	99	7
65	65	6
24	24	1
113	114	3
141	141	4
16	44	3
156	171	2
107	107	5
154	164	1
113	128	4
126	126	10
166	167	4
82	87	2
9	87	3
110	137	3
43	43	4
121	122	2
154	155	4
111	111	3
175	176	4
65	66	3
113	113	8
115	131	3
127	128	9
123	123	5
3	73	2
92	92	6
18	19	2
166	166	7
140	140	5
104	140	6
12	12	3
34	34	5
66	66	7
4	4	11
15	19	4
79	79	7
83	91	2
143	143	9
11	39	6
114	126	1
107	108	4
18	18	2
157	157	7
165	170	2
26	26	5
59	61	2
88	90	2
86	113	2
97	98	2
137	137	6
3	3	5
114	114	13
13	33	3
126	127	3
176	180	1
180	180	11
78	78	5
97	97	4
112	115	1
8	8	4
50	54	1
99	115	3
135	135	10
132	141	3
172	172	4
151	152	3
44	44	5
97	153	3
83	85	2
2	79	1
128	128	2
167	167	4
170	170	4
83	117	2
9	10	8
112	112	6
83	83	2
173	173	2
166	174	4
155	165	2
65	67	3
87	87	5
154	156	3
1	1	4
156	156	1
66	67	3
28	29	3
89	89	2
17	42	2
104	104	6
2	4	1
146	146	3
32	72	2
94	94	2
103	107	1
96	96	1
122	122	5
2	80	1
80	179	1
14	15	2
39	40	1
27	27	2
82	95	1
3	44	3
152	165	3
29	29	2
118	118	6
109	109	6
58	59	3
84	115	1
20	20	4
67	67	4
142	145	2
135	136	10
127	127	1
108	111	1
132	132	6
117	180	2
98	98	5
43	44	2
117	117	1
105	105	3
59	59	2
6	87	2
11	13	1
142	146	1
35	40	2
17	32	1
80	80	1
1	34	3
163	170	3
120	123	4
9	118	4
143	146	2
169	173	2
75	76	1
136	136	6
83	109	3
128	129	1
52	53	3
83	84	2
23	71	1
40	77	1
89	90	1
43	79	1
164	164	4
56	56	4
165	165	4
128	151	3
53	66	1
72	75	1
2	3	1
55	55	2
73	74	1
3	45	1
61	61	6
19	19	2
60	167	1
137	140	1
30	30	2
142	147	2
13	20	2
170	171	3
1	2	4
32	32	7
133	133	2
161	161	5
148	148	7
145	146	4
147	147	2
16	50	3
143	176	1
53	54	3
137	157	2
25	26	1
29	43	2
169	170	2
45	45	4
4	5	1
176	176	3
103	105	1
83	92	2
82	94	1
113	135	2
99	150	1
179	180	2
91	92	2
167	168	3
15	15	2
90	90	1
37	38	3
135	144	1
135	150	3
53	57	1
81	81	2
6	43	2
32	78	1
117	119	3
144	147	1
39	39	5
101	109	1
134	134	11
24	28	2
73	122	1
158	158	3
13	14	1
5	6	3
134	174	2
16	16	2
7	7	2
15	16	2
71	71	3
118	119	2
22	23	3
143	144	5
5	87	3
16	51	1
72	72	4
104	133	1
53	61	2
141	142	2
18	24	1
8	84	2
177	178	5
90	92	1
138	158	1
34	35	1
7	8	1
126	152	1
12	18	2
130	149	1
84	86	1
81	116	1
122	167	1
21	21	4
98	105	3
51	52	1
143	149	1
11	12	1
135	149	1
168	171	2
0	0	2
163	166	1
177	177	1
51	55	1
68	68	2
12	13	1
106	106	3
107	141	2
74	74	3
88	177	1
21	54	2
75	75	2
165	166	1
142	153	1
23	23	1
134	173	1
101	101	1
89	106	1
3	4	1
157	160	2
110	110	2
103	104	1
95	150	1
71	139	1
16	17	1
19	52	1
117	118	2
137	138	1
134	167	1
146	176	2
102	102	1
95	96	2
135	148	1
178	179	1
137	179	1
103	131	3
108	109	1
87	89	2
9	81	1
105	146	1
25	62	1
114	124	1
57	63	1
91	118	2
115	116	1
7	10	1
40	42	1
111	145	3
46	46	2
136	137	1
49	50	1
44	45	1
63	63	1
80	90	1
60	60	1
76	76	1
103	115	1
150	150	1
8	10	1
23	64	1
126	135	1
