149	149	3
119	166	2
4	56	3
135	135	4
134	135	1
227	227	11
183	183	4
42	42	5
120	123	3
127	127	7
46	46	11
191	241	2
14	14	2
35	36	1
144	144	1
37	37	5
11	241	2
208	208	4
182	182	7
213	213	4
135	136	4
205	219	1
177	177	3
17	17	3
178	178	6
116	117	3
161	161	8
89	89	5
145	145	14
81	82	3
5	5	3
142	142	1
111	111	5
56	58	1
41	42	2
35	73	3
201	202	3
227	239	1
201	201	7
96	108	5
99	99	5
18	18	3
122	122	4
0	0	5
36	43	2
4	4	3
226	227	2
43	43	4
134	134	3
234	236	3
110	124	1
52	52	1
165	165	4
192	192	2
0	1	2
66	66	8
160	161	4
10	10	5
119	119	6
147	237	4
228	228	5
217	217	6
103	152	2
80	81	2
202	202	8
64	64	4
51	51	1
166	166	4
13	13	4
189	189	5
196	196	2
113	161	6
45	56	2
175	175	1
198	200	3
61	61	5
25	26	4
217	218	4
99	152	1
68	71	1
55	55	1
149	151	2
234	234	2
231	231	5
124	124	8
197	197	2
79	107	3
59	59	8
35	35	1
129	130	1
175	176	2
114	131	4
160	160	1
46	105	4
148	148	1
22	49	4
126	153	1
72	73	3
44	44	3
153	167	4
155	155	1
204	204	6
19	19	5
205	205	5
150	236	4
212	212	5
121	121	3
84	84	2
15	15	4
211	212	2
41	41	2
219	219	5
151	152	1
143	145	2
46	47	1
3	3	4
125	126	2
214	214	4
214	240	1
40	46	4
199	199	6
146	146	3
126	126	1
54	54	5
121	155	1
95	136	3
172	173	2
200	201	2
136	136	2
221	228	3
124	143	2
186	192	2
153	154	2
115	115	4
223	223	1
80	80	3
237	237	3
21	33	2
70	107	2
194	194	2
185	185	1
58	106	2
33	33	2
138	139	2
48	48	2
101	101	3
220	220	1
25	25	5
99	101	2
143	195	2
23	23	6
58	60	2
117	117	9
3	55	2
42	74	1
62	62	4
204	207	3
5	6	2
238	239	1
150	150	3
104	104	4
218	220	2
241	241	5
97	97	2
67	67	3
95	137	2
236	236	1
147	148	1
192	209	2
37	54	2
180	180	2
124	125	3
37	38	2
240	240	1
39	39	7
38	38	2
216	218	5
36	37	1
9	9	1
175	216	1
150	151	2
151	151	2
160	179	2
53	54	1
225	225	3
116	116	3
141	142	2
1	12	3
123	126	1
123	178	1
153	184	4
170	170	2
66	75	2
188	191	2
156	156	2
69	69	3
24	24	4
109	109	2
189	197	3
102	232	3
192	210	4
139	142	1
235	235	3
4	6	2
185	222	1
86	86	2
118	118	3
216	219	1
106	106	3
16	17	1
161	172	1
209	209	4
192	197	1
14	15	1
199	200	1
140	140	3
222	222	2
192	194	2
167	168	4
125	125	1
130	130	1
39	44	1
72	78	3
225	230	7
1	1	2
138	184	1
36	45	1
35	72	3
44	45	1
53	53	4
44	50	2
58	58	5
34	67	1
157	160	2
179	179	2
36	36	4
26	26	4
113	113	3
58	61	1
16	18	3
67	78	1
141	184	2
60	60	4
70	70	2
187	187	3
21	68	1
74	74	2
128	183	7
9	10	1
95	95	1
121	179	2
50	51	2
113	117	4
225	229	3
57	57	3
120	121	3
201	230	2
226	226	3
76	108	2
145	197	2
83	83	1
136	190	2
74	76	1
191	191	1
166	167	1
103	160	3
230	230	2
80	83	3
205	206	1
176	219	2
164	164	3
34	34	5
135	183	1
110	110	1
211	214	1
53	68	2
9	11	1
167	167	1
155	175	2
40	40	1
174	202	1
37	86	1
21	30	2
233	233	1
107	108	1
27	81	3
229	229	2
49	49	1
79	83	1
203	203	2
102	124	2
214	216	2
159	159	2
204	206	3
198	206	1
145	148	1
21	21	5
142	188	3
118	166	2
37	39	1
140	221	1
213	223	2
118	119	2
113	116	2
65	66	2
201	222	1
180	211	2
36	67	1
218	218	2
75	75	3
198	198	3
193	206	1
28	28	4
31	77	3
133	133	2
195	195	1
117	118	3
39	40	2
98	106	1
98	98	2
16	16	1
27	27	2
82	82	2
169	169	2
3	4	1
100	106	3
193	239	1
45	45	2
134	155	1
56	123	1
190	190	1
4	34	2
66	68	2
190	191	2
100	100	1
119	127	1
223	231	1
181	182	1
48	49	1
121	175	2
200	200	1
149	152	1
47	47	1
128	129	1
204	230	1
29	80	1
27	28	1
215	216	1
46	54	2
85	85	1
149	150	1
149	238	1
50	56	2
229	230	1
153	153	1
177	178	3
157	157	1
186	224	2
173	174	2
112	112	3
136	184	2
31	31	4
119	143	1
121	122	1
0	22	1
158	159	1
225	226	1
139	143	1
142	168	1
63	82	1
119	169	1
91	91	1
180	181	2
187	190	1
167	169	1
215	223	2
199	211	2
29	29	3
242	242	1
78	78	1
112	113	1
91	92	1
3	20	1
70	71	1
238	238	2
187	224	2
111	162	1
104	156	1
145	151	1
12	12	1
28	29	1
85	86	1
52	68	1
241	242	1
160	174	1
204	238	1
43	136	1
45	46	1
71	73	1
178	179	2
219	220	1
58	102	1
191	192	1
206	206	1
140	224	1
