17	84	2
93	93	8
17	18	1
15	15	9
100	101	1
10	10	3
109	109	6
17	17	14
103	103	3
84	85	3
58	58	4
92	93	3
116	116	9
13	13	5
58	84	2
20	21	3
74	85	3
112	112	1
2	2	4
97	98	4
82	83	3
68	68	5
6	33	1
94	94	4
13	14	3
125	125	6
64	64	5
120	120	5
28	41	2
59	60	5
33	33	3
10	11	2
57	57	8
42	42	2
15	16	2
9	9	7
23	23	2
83	101	1
102	113	1
75	75	3
80	80	4
106	124	2
132	132	2
92	133	1
41	42	3
31	32	1
38	38	3
67	67	4
124	124	9
94	108	2
19	49	2
86	86	2
71	72	1
118	119	1
101	101	8
45	46	1
37	37	5
131	131	4
123	123	2
74	74	4
40	40	1
114	114	5
19	19	2
118	118	1
122	123	1
60	60	2
100	100	1
66	66	5
6	6	2
110	114	2
82	82	1
20	48	3
70	70	4
95	125	1
46	46	4
71	71	2
62	62	2
8	8	3
25	25	2
93	134	4
35	35	1
85	85	4
7	9	2
28	28	5
36	37	4
59	59	2
11	11	6
46	72	1
29	33	4
69	69	1
119	119	2
105	105	4
97	97	1
80	82	1
29	29	2
16	16	6
110	111	2
68	70	1
106	122	2
73	74	1
111	114	1
13	15	1
107	107	6
89	93	1
95	105	1
18	18	5
61	61	2
63	64	1
41	41	2
47	47	4
24	25	1
11	12	2
83	85	1
79	81	2
95	95	2
56	57	2
111	111	1
128	128	7
27	27	4
70	72	1
76	76	1
29	39	2
36	36	1
79	79	1
92	131	1
65	65	3
37	38	1
56	58	2
76	117	2
7	7	6
91	91	1
77	78	1
4	4	3
44	44	7
29	35	1
15	98	1
94	124	3
91	92	1
87	94	1
56	56	2
21	21	1
115	115	2
5	55	1
92	92	3
22	22	2
64	118	2
20	20	2
40	41	1
48	48	1
11	18	2
85	86	2
96	96	3
79	80	1
24	57	3
10	14	2
8	9	1
20	83	1
117	117	3
83	84	2
120	121	2
72	72	4
115	116	1
68	69	3
43	43	1
130	130	2
4	5	1
96	99	1
88	94	1
24	24	1
21	22	1
32	32	1
38	39	1
30	35	1
16	17	2
84	84	1
103	112	1
107	124	1
84	96	1
8	19	1
76	77	1
61	62	1
103	106	1
126	127	1
3	4	1
57	58	2
23	24	1
14	14	1
116	117	1
133	133	1
28	35	1
113	113	1
36	42	1
1	2	1
134	134	1
36	39	1
104	104	1
32	33	1
