56	56	8
47	47	2
58	62	3
99	99	5
104	104	7
64	66	3
64	65	1
96	101	2
64	82	2
59	59	6
34	34	6
87	87	7
68	69	2
96	96	8
66	66	5
71	71	6
41	68	6
31	31	2
69	69	10
60	60	8
49	49	6
48	48	5
82	82	9
51	51	9
77	77	5
66	68	6
21	21	7
95	95	5
39	39	9
22	55	3
80	80	7
76	76	7
89	89	3
70	72	3
97	97	10
40	69	1
48	66	3
54	71	2
20	25	4
67	68	4
41	41	6
33	34	2
42	42	11
92	93	3
64	81	1
64	64	5
35	35	4
29	29	8
75	75	6
83	83	11
28	28	8
55	74	2
87	106	3
27	27	8
54	54	13
25	52	1
91	91	11
86	87	4
102	103	4
76	77	1
22	22	9
76	79	1
97	99	7
70	70	3
44	79	2
67	67	3
32	32	5
63	63	8
61	61	1
94	94	10
54	72	1
80	86	3
84	89	1
20	26	2
61	86	2
81	85	2
41	54	6
59	60	6
66	104	2
33	33	4
36	99	1
55	55	2
99	102	3
38	42	2
38	38	1
39	53	2
33	35	4
100	100	6
90	90	5
88	94	5
89	90	3
49	77	3
102	102	4
40	40	2
98	101	1
50	75	1
103	103	7
23	23	7
71	105	3
78	78	1
79	79	6
105	105	8
30	30	2
58	60	4
36	36	3
41	69	3
58	58	3
61	85	3
97	101	5
62	62	9
23	27	4
73	77	2
45	45	4
60	83	1
31	36	2
67	105	1
73	73	3
57	62	2
24	26	2
36	74	2
92	92	7
36	68	1
26	29	1
42	43	1
63	92	1
84	85	1
86	86	3
102	104	4
82	86	4
45	70	1
41	42	1
81	105	1
50	51	3
27	33	2
39	79	7
22	24	5
101	101	4
27	32	2
43	44	2
94	99	1
65	65	2
34	36	3
22	28	2
37	53	4
70	71	4
85	85	3
56	57	2
23	31	4
37	49	1
61	67	1
81	81	4
32	34	5
40	70	2
36	92	1
85	86	2
88	88	1
93	93	3
43	60	4
43	51	3
36	37	1
23	46	2
61	105	3
94	101	2
73	74	2
68	75	1
78	79	2
60	93	4
28	45	2
44	44	1
57	57	2
95	101	2
91	94	1
38	43	2
67	94	1
52	52	2
26	28	1
81	103	1
50	50	5
88	102	2
68	68	5
98	98	5
67	93	1
100	101	1
34	35	2
56	58	2
24	24	3
60	69	2
43	43	1
20	20	1
55	57	1
91	93	3
87	88	2
81	100	3
98	99	1
75	78	1
94	95	1
87	91	1
25	44	1
107	107	1
39	64	1
88	89	1
80	81	1
25	29	1
66	67	1
101	102	1
86	93	1
84	84	4
42	70	2
44	78	3
21	58	2
49	52	1
95	104	1
42	44	1
63	67	2
70	76	1
89	100	2
33	40	2
77	78	4
39	68	1
74	74	3
40	51	1
22	23	1
70	77	1
26	26	1
20	21	1
37	37	1
97	98	1
34	66	1
88	98	1
25	49	1
42	61	1
58	93	1
25	25	1
29	58	1
87	96	1
69	76	2
47	66	2
26	67	1
22	27	1
106	106	1
23	50	1
37	42	1
