31	31	8
55	55	2
72	85	1
85	88	4
24	24	3
76	79	2
90	91	6
25	29	7
25	96	3
107	107	4
28	28	13
33	66	1
113	113	6
98	98	12
40	66	1
78	78	7
91	95	1
104	106	8
59	93	1
64	66	2
74	74	2
62	67	6
95	100	1
95	96	2
62	62	7
25	60	3
110	110	5
110	111	3
53	53	4
102	103	6
82	83	4
105	105	7
35	36	5
69	69	6
52	52	6
100	100	6
26	26	8
87	91	1
108	108	1
63	63	4
43	44	2
99	99	9
93	93	3
24	74	4
26	27	3
100	104	1
66	67	5
56	56	5
53	94	3
41	41	5
57	58	2
23	45	2
97	97	12
68	68	6
73	73	9
23	23	4
69	71	2
63	64	1
41	42	2
23	24	1
76	76	4
43	82	2
38	41	6
67	67	5
44	87	1
71	71	3
104	105	5
101	105	4
112	112	2
101	103	7
102	102	2
40	40	4
82	82	6
69	73	4
52	53	2
39	88	1
39	41	1
85	85	3
32	33	1
27	29	1
114	114	5
103	103	3
24	46	5
99	100	1
77	77	2
38	90	2
35	104	3
94	97	3
65	65	1
88	89	1
33	73	1
24	28	3
22	22	5
86	88	5
57	57	2
106	107	2
42	78	2
66	84	5
34	34	4
45	46	1
42	42	4
88	88	4
30	30	3
31	60	1
25	30	1
20	20	8
38	38	1
35	35	1
91	91	11
49	49	1
36	36	3
39	42	5
25	25	2
29	29	5
87	87	5
71	72	4
29	30	2
44	44	1
91	92	2
54	55	5
54	60	4
99	108	3
109	113	2
20	21	3
24	54	2
79	79	5
60	60	4
47	47	4
25	26	3
30	64	1
39	86	2
37	39	1
56	93	3
58	58	1
68	69	3
99	103	3
59	59	4
41	54	2
104	104	3
21	21	4
51	79	2
68	71	2
34	62	1
39	91	1
60	98	1
91	102	2
95	101	2
76	77	1
111	113	1
25	74	3
60	74	1
55	96	1
68	73	1
25	31	1
81	81	2
35	106	2
73	84	3
65	67	1
32	96	2
96	96	1
72	82	1
30	31	2
19	22	3
36	63	1
37	37	2
90	90	1
96	101	3
56	59	2
64	65	3
111	111	1
44	91	3
46	46	1
42	79	1
100	101	4
77	78	2
45	45	2
39	39	2
80	80	4
50	50	2
40	86	4
22	23	1
95	95	4
109	110	3
61	62	2
24	92	1
54	54	1
109	112	1
110	112	1
42	90	1
40	62	1
109	111	1
29	58	2
36	37	1
28	29	1
31	34	2
75	75	1
94	98	1
101	101	1
38	39	1
53	96	1
84	84	1
