111	111	6
11	11	7
87	89	2
15	15	4
74	77	1
23	23	3
74	74	5
16	16	7
82	121	2
89	89	8
77	77	3
3	4	3
4	4	7
105	105	8
112	112	3
104	128	1
129	129	6
33	34	3
28	28	7
124	124	6
3	7	3
121	122	3
32	32	2
80	80	2
108	109	4
0	0	10
134	134	4
111	112	5
22	22	6
99	129	3
110	110	3
20	20	6
11	24	3
10	22	3
126	126	6
25	25	10
123	128	2
18	19	2
93	93	3
112	116	2
109	109	12
84	84	2
125	125	2
117	117	6
75	75	4
103	103	3
14	14	2
7	7	3
131	131	3
132	132	2
91	92	5
124	129	2
8	8	2
77	78	2
135	135	3
101	101	4
99	99	1
31	31	2
115	117	4
98	98	3
118	118	2
133	133	3
85	86	2
140	140	5
81	81	2
13	32	1
2	13	5
119	119	5
76	82	4
37	37	4
87	87	6
12	20	2
115	116	4
9	9	2
26	26	4
86	86	4
37	38	1
21	75	1
96	97	3
94	98	2
79	79	5
75	76	7
19	19	2
88	90	3
34	34	6
88	91	1
26	27	1
94	100	3
14	27	1
87	88	1
101	103	3
94	99	2
15	18	8
5	26	1
1	17	1
1	2	1
78	78	6
76	110	2
34	35	4
95	95	5
8	9	3
116	117	2
16	17	1
31	32	2
119	120	3
112	114	4
82	117	1
82	83	3
98	99	3
15	16	2
79	106	1
73	74	1
121	127	2
28	29	2
74	76	2
82	86	1
1	1	1
18	18	2
108	108	5
78	90	1
80	82	1
112	113	2
116	116	2
136	136	4
117	121	2
5	5	3
0	3	2
90	90	2
96	96	2
136	137	2
134	135	1
12	30	2
17	17	5
81	83	1
39	69	1
15	29	1
24	25	2
127	129	1
38	38	1
128	128	1
94	96	2
85	85	4
77	86	2
73	73	2
74	111	3
104	107	2
21	21	2
98	113	3
106	106	1
83	84	1
21	22	2
15	19	1
135	136	1
80	81	1
2	2	1
24	26	3
1	16	1
79	91	1
22	23	1
76	77	2
15	27	3
100	104	2
29	32	1
120	120	1
35	36	1
128	129	1
114	114	2
25	29	1
72	72	1
19	20	1
102	104	1
139	139	1
2	3	1
113	113	1
79	83	1
68	68	1
127	128	1
27	27	1
18	20	1
4	132	1
103	104	1
81	91	1
86	87	1
120	121	1
79	92	1
10	10	1
24	24	1
