45	46	1
76	117	2
107	108	1
21	21	4
25	25	1
106	120	5
132	133	3
110	115	4
100	101	2
88	97	2
126	126	6
56	61	4
42	68	2
63	65	2
4	5	3
14	15	3
0	7	4
39	39	2
112	112	8
73	73	8
117	117	7
26	26	7
27	28	6
99	100	2
97	98	3
22	22	3
124	124	2
125	126	4
129	129	2
24	24	3
125	125	10
64	64	3
76	76	5
38	39	3
100	108	1
9	19	5
57	58	4
102	102	9
99	99	2
7	26	1
113	113	1
44	44	5
13	28	1
61	61	8
132	134	2
63	72	2
17	17	4
29	29	2
131	132	7
0	0	2
101	102	2
21	32	1
27	27	15
121	122	4
33	34	2
14	19	4
46	68	1
95	96	2
48	49	1
13	14	1
82	82	5
36	36	4
59	59	5
18	19	2
91	91	5
111	115	1
123	123	3
36	41	1
75	75	5
16	17	3
75	78	2
72	76	1
121	128	2
108	117	5
82	87	1
55	59	1
112	114	4
89	97	2
31	34	3
111	111	10
16	16	4
105	114	1
30	31	3
76	77	1
57	61	3
127	129	2
90	90	4
93	93	4
29	72	2
60	100	7
74	74	4
68	68	4
114	115	1
93	98	2
100	102	3
92	99	3
27	48	2
32	40	1
21	22	2
75	87	2
0	1	2
77	83	3
12	19	2
75	90	3
60	62	2
3	3	4
6	7	3
19	19	7
94	97	2
40	41	1
123	133	2
7	7	6
83	103	2
10	10	1
73	77	4
92	125	3
5	6	2
25	28	6
126	127	2
123	134	3
6	6	1
108	110	1
42	60	1
40	42	2
103	103	4
80	88	3
74	78	4
121	121	3
37	41	5
61	94	4
70	70	4
1	11	2
115	133	1
117	118	3
28	32	2
37	38	1
75	84	1
1	14	2
127	127	3
103	104	2
74	82	3
130	130	5
8	8	2
120	126	1
114	126	1
67	67	2
2	2	2
72	73	5
90	94	1
56	56	3
13	13	2
34	35	4
113	114	6
49	50	1
104	108	2
77	78	3
110	113	4
93	95	4
112	113	2
85	86	5
18	77	2
110	110	7
85	88	1
85	93	1
4	4	3
22	69	1
29	41	3
131	131	2
17	70	3
27	33	1
31	42	2
111	113	6
94	94	4
6	27	1
97	107	1
95	105	1
61	85	1
24	44	4
100	111	4
20	20	2
94	96	1
105	120	2
87	87	5
79	79	7
10	12	3
89	93	1
96	96	5
83	86	1
99	119	1
2	18	2
72	72	7
4	7	4
90	91	2
104	104	4
32	36	2
87	94	1
84	86	1
131	133	2
102	110	1
40	40	3
36	39	2
84	84	5
2	3	4
25	38	4
123	124	1
83	101	2
19	25	1
134	134	2
104	107	1
32	39	2
41	41	2
63	76	1
6	9	1
31	33	1
29	30	4
11	11	6
36	37	3
126	128	1
44	45	3
131	134	1
88	88	2
14	14	4
128	128	3
92	94	4
105	116	2
31	31	2
7	8	1
4	16	2
59	61	1
10	22	1
112	120	1
32	32	3
42	48	3
108	113	3
49	49	4
48	48	1
92	95	1
35	35	4
45	45	1
32	45	1
116	120	2
125	128	2
46	47	2
111	122	1
119	130	1
123	125	2
119	122	2
42	45	1
18	29	1
101	101	4
100	104	1
12	12	6
116	116	2
105	106	1
6	18	1
30	32	4
65	84	2
9	9	4
91	103	1
101	103	1
43	45	1
71	71	1
3	11	1
117	120	2
10	13	3
85	92	3
127	131	2
88	101	1
31	39	1
82	84	1
120	120	1
117	131	1
97	106	1
33	33	1
0	11	2
127	128	1
74	90	2
18	73	1
66	66	4
35	36	2
129	132	2
98	98	1
10	14	1
98	115	1
92	93	1
113	125	1
123	132	1
27	30	1
100	100	1
28	45	1
69	69	1
8	19	2
28	28	4
86	92	1
96	105	2
105	113	1
86	134	1
117	129	1
102	111	1
13	27	1
31	47	2
97	109	1
38	40	1
15	56	1
36	38	1
67	81	1
65	77	1
116	127	1
24	36	1
19	27	2
101	111	1
133	133	2
126	133	1
132	132	2
121	124	1
30	70	3
69	70	2
23	25	1
81	91	1
42	42	2
107	107	1
70	71	1
97	105	2
39	47	1
30	30	2
59	101	1
78	82	2
24	25	1
133	134	1
77	87	1
86	88	1
82	101	1
6	16	1
78	78	1
106	106	1
84	96	1
71	81	1
102	112	2
32	34	1
99	103	1
81	110	2
128	133	2
0	14	1
56	57	2
29	48	1
9	14	1
58	58	1
47	48	1
23	28	1
23	30	1
11	14	1
4	37	1
100	109	1
79	81	1
121	127	1
86	98	1
12	17	1
111	129	1
