146	146	3
56	56	4
129	129	15
3	4	4
124	124	5
96	96	13
15	55	1
26	27	3
1	1	7
138	138	2
55	57	4
115	116	1
119	120	1
42	42	2
77	78	9
92	97	3
141	141	8
66	108	3
142	142	11
105	108	7
26	26	7
60	61	1
128	128	9
66	67	9
103	103	5
11	107	3
88	88	12
17	17	7
28	144	3
73	79	4
28	28	7
10	10	7
108	108	10
49	49	1
112	113	5
12	25	3
29	61	1
71	80	1
114	135	3
60	141	4
135	140	5
66	106	2
127	127	12
5	112	1
8	9	10
80	80	5
121	121	10
8	111	4
50	115	2
72	72	7
48	48	3
22	22	7
61	61	12
55	56	2
12	14	3
70	70	8
81	81	3
33	33	2
41	41	17
93	93	8
26	104	1
122	125	5
92	92	18
101	101	5
15	15	2
74	74	11
62	62	6
58	58	13
4	13	2
98	98	4
126	127	3
91	91	7
14	14	4
120	120	5
141	142	5
75	75	11
53	58	3
144	144	7
87	87	14
95	95	9
53	53	8
62	63	5
145	146	8
10	107	5
32	32	4
62	102	3
132	133	3
111	112	1
24	24	8
31	39	4
22	26	4
118	118	1
73	80	2
13	13	7
15	58	4
25	26	6
24	25	8
58	59	5
61	67	2
2	2	9
79	79	9
129	130	6
71	71	5
89	90	6
50	118	5
145	145	5
129	131	1
63	63	5
94	99	3
135	138	5
67	118	3
57	57	8
51	51	5
20	21	7
83	83	6
49	117	3
94	94	3
101	102	2
143	143	2
98	99	1
37	37	5
73	73	2
89	89	9
12	107	2
117	117	4
85	102	4
113	114	5
67	67	11
118	133	1
52	52	9
61	62	2
90	90	4
112	141	2
5	111	2
60	60	10
87	88	4
36	36	1
8	8	8
3	63	1
59	59	6
30	30	5
19	20	6
14	15	6
120	124	6
86	86	8
90	93	5
116	116	1
36	37	2
135	135	6
107	108	3
99	100	1
14	25	2
108	110	2
99	99	7
6	10	6
63	64	1
42	43	2
76	77	1
17	56	1
56	57	2
29	30	1
122	124	1
50	52	3
89	100	3
83	84	2
137	138	5
25	25	1
13	14	5
122	122	5
22	23	3
86	87	2
92	94	3
18	18	6
144	145	1
23	23	3
15	54	4
58	116	3
130	130	6
38	38	4
19	19	4
96	97	2
65	105	1
84	84	3
66	66	9
64	64	3
111	111	6
123	128	5
6	6	2
33	37	2
23	26	4
29	144	3
140	141	1
125	125	3
40	41	4
20	91	5
6	62	4
15	21	1
34	34	6
113	115	3
50	50	1
40	40	3
133	133	2
54	57	1
85	87	3
18	21	1
132	132	2
122	127	1
115	115	1
120	122	1
121	123	1
139	139	3
39	39	4
48	144	2
19	91	1
37	41	2
11	11	3
92	93	4
18	91	1
33	35	2
78	78	4
64	104	2
55	90	2
109	109	1
105	105	3
20	20	1
72	75	1
30	95	2
81	84	1
137	137	2
13	88	6
93	98	2
15	16	1
102	103	2
113	113	2
123	123	3
85	85	2
77	77	1
19	90	1
32	33	1
65	66	1
118	119	2
27	27	2
51	52	2
0	0	1
0	2	1
120	123	1
21	21	1
81	100	2
108	109	2
112	112	3
28	29	1
131	131	3
97	97	1
15	57	3
0	62	2
31	31	1
63	86	1
49	58	1
41	42	1
49	57	1
29	29	2
133	139	1
102	102	1
52	117	1
94	98	1
71	81	1
69	70	1
140	140	4
82	82	1
130	131	1
26	59	1
105	106	1
101	103	1
18	20	1
86	89	1
124	125	1
91	101	1
54	54	3
58	117	1
23	24	1
106	106	1
81	104	1
1	5	1
68	68	1
104	104	1
73	74	1
19	55	1
55	55	1
110	112	1
112	114	1
