117	117	13
72	72	26
128	129	7
38	39	5
40	40	15
70	70	2
111	111	15
97	99	4
81	94	4
55	55	20
23	23	15
16	17	8
46	46	5
22	22	17
122	122	22
52	57	1
59	62	3
99	102	3
48	55	3
116	117	4
54	108	2
38	38	9
118	119	6
3	19	2
86	86	7
83	83	28
16	46	1
81	100	2
91	92	4
66	102	3
6	6	15
27	29	3
100	100	24
127	127	27
72	74	3
52	52	13
128	128	16
3	3	16
24	51	3
43	43	24
57	58	11
109	109	13
75	77	3
120	120	16
49	49	11
85	85	10
16	16	15
93	93	12
123	123	21
84	85	5
121	121	16
58	58	12
30	30	16
10	106	2
99	103	3
94	109	3
53	53	25
64	64	9
96	97	2
31	31	14
73	73	13
61	75	4
2	2	16
7	11	1
17	17	11
0	3	1
61	77	3
118	118	14
130	131	2
129	131	2
130	130	10
126	129	7
99	99	4
34	34	6
29	63	6
27	27	9
18	18	15
24	24	13
16	30	5
106	106	9
131	132	6
112	112	24
81	81	10
20	21	3
64	73	3
13	19	5
76	76	14
92	92	16
19	19	9
28	28	10
48	104	2
71	73	2
78	110	1
99	100	2
107	107	9
32	32	10
108	108	12
90	90	9
98	99	3
69	69	25
3	11	3
51	51	13
82	82	12
12	33	4
61	62	7
80	80	17
7	7	27
24	50	1
0	1	12
65	65	15
63	63	18
45	45	9
91	91	6
107	125	3
94	94	22
96	96	17
89	90	4
79	79	20
81	121	5
129	129	6
19	23	2
59	59	13
9	9	8
68	68	10
125	125	9
107	113	3
126	126	14
129	130	7
69	71	1
66	66	14
100	101	5
43	47	2
110	110	22
88	88	14
17	31	3
114	114	7
69	82	1
44	44	8
47	47	15
63	72	2
92	95	4
84	84	11
6	18	2
79	83	5
117	125	3
50	51	5
70	85	3
62	64	1
29	30	5
26	39	2
38	75	8
119	119	11
57	68	1
9	15	1
1	1	10
124	125	5
104	104	14
59	68	3
124	124	11
16	48	2
5	5	14
20	20	14
98	98	11
56	56	17
15	15	8
72	78	1
56	63	1
0	51	1
11	25	2
5	22	2
44	45	4
4	5	5
95	95	16
26	53	2
16	47	1
95	96	5
15	19	3
70	71	6
106	107	4
22	23	2
39	39	12
40	43	5
93	108	3
26	26	14
11	11	9
108	110	6
113	113	17
41	41	10
14	14	8
104	110	5
65	66	2
117	120	2
0	9	2
97	97	12
0	0	9
12	50	1
103	129	4
89	89	10
32	54	1
54	54	13
44	94	1
14	15	4
57	57	20
84	113	3
69	93	1
68	69	7
43	76	2
18	19	6
48	48	20
92	112	3
13	16	2
75	75	2
41	42	4
38	46	2
62	69	6
1	4	2
63	64	9
56	68	2
37	37	1
74	74	7
42	42	15
62	62	13
60	60	10
103	109	1
81	83	4
96	99	4
27	34	1
26	52	3
24	26	2
71	71	11
60	76	3
13	13	15
17	26	1
53	109	3
55	63	3
94	95	1
82	83	7
106	127	2
25	25	8
10	32	1
78	78	16
69	124	4
132	132	7
17	19	1
51	52	3
86	87	5
42	102	1
88	109	4
115	116	4
86	101	3
114	119	2
65	102	1
7	17	1
102	104	2
75	76	4
32	33	5
60	61	2
90	91	3
102	102	4
89	91	7
95	97	2
69	73	3
99	126	2
2	8	2
2	3	2
21	22	5
27	78	1
115	115	9
62	63	8
96	100	2
50	50	11
68	70	7
78	80	3
105	105	14
55	69	1
8	25	3
77	77	6
23	24	6
24	25	1
97	113	2
97	109	2
76	77	1
21	21	6
52	67	3
6	12	3
46	95	1
90	97	1
71	128	2
46	48	3
6	110	1
99	119	1
102	107	2
5	34	3
8	11	4
93	109	2
95	111	4
4	9	2
101	102	1
47	60	1
102	106	2
116	116	14
93	94	4
3	5	2
70	90	3
10	10	10
12	12	7
109	110	3
10	11	7
0	18	1
55	105	2
81	97	4
82	84	1
105	122	2
86	91	1
74	131	1
8	8	9
131	131	7
37	38	1
1	6	2
116	131	3
94	98	1
21	41	1
3	8	4
88	92	2
2	16	1
87	89	1
103	103	12
107	126	1
112	113	2
76	82	2
9	26	1
74	75	5
98	108	1
1	22	1
83	84	3
106	111	6
13	14	8
60	62	3
80	87	1
125	133	4
88	117	2
54	65	1
101	116	2
57	60	3
38	92	4
33	33	16
41	44	2
95	98	2
25	26	3
15	48	10
121	122	2
44	48	2
61	63	1
3	14	8
126	127	4
108	124	1
107	108	5
81	82	4
49	50	3
103	124	1
4	4	7
76	84	2
30	51	2
64	69	3
42	44	4
122	123	3
15	17	2
106	121	2
58	62	1
64	68	3
40	48	2
41	52	3
78	97	2
59	60	7
13	27	4
62	72	1
65	74	2
28	64	2
46	73	1
45	46	4
117	118	4
9	21	2
85	86	1
54	57	3
47	56	1
108	113	1
78	100	1
9	24	1
31	33	5
12	30	1
17	58	1
73	80	2
16	50	1
58	59	4
17	33	3
33	62	2
70	116	3
8	9	1
76	85	1
4	7	1
122	124	1
87	87	3
123	124	1
66	70	3
41	47	4
15	16	1
113	114	6
108	127	2
11	50	1
86	90	1
73	74	1
74	77	2
18	20	2
71	80	1
26	27	1
10	52	1
98	118	2
11	13	2
31	32	3
43	103	1
133	133	7
91	107	1
70	93	2
14	40	3
110	133	1
83	89	2
7	8	1
115	117	4
9	10	1
109	123	2
63	90	1
58	60	1
117	126	1
78	79	3
119	125	2
52	66	4
67	67	7
79	97	1
5	13	1
57	76	2
12	13	2
24	73	3
68	74	1
87	130	1
90	109	2
127	131	1
4	32	1
0	10	2
101	101	4
41	45	3
76	80	1
68	90	1
88	110	3
126	128	2
80	90	1
46	59	2
17	18	1
110	128	1
105	114	1
27	79	1
47	59	1
114	132	4
81	95	1
5	32	1
44	101	1
2	5	1
21	26	1
52	53	3
69	113	1
114	126	1
74	76	1
105	120	2
69	77	1
71	72	1
80	103	2
29	29	2
11	12	3
102	103	2
33	55	1
129	133	1
101	106	1
117	123	2
113	124	1
67	68	1
3	4	2
40	63	1
40	41	2
110	112	1
113	116	1
74	78	1
17	30	1
68	71	1
132	133	3
43	45	1
103	104	2
89	107	1
64	67	2
86	106	2
80	81	1
85	89	1
9	12	1
67	103	1
82	89	1
46	62	1
65	67	3
3	10	3
56	57	1
43	44	2
40	44	1
14	18	1
9	11	2
103	119	1
116	121	1
110	124	1
120	123	1
69	76	2
54	90	3
116	132	2
113	126	1
13	20	1
27	48	1
18	28	1
9	110	2
76	114	1
78	84	2
106	115	1
94	122	1
58	66	1
48	49	1
58	69	1
83	88	1
46	51	2
95	112	1
55	56	1
57	59	1
42	43	1
24	39	1
105	116	1
17	20	1
43	70	1
44	51	2
53	55	1
118	124	1
60	70	2
55	57	1
111	126	1
27	28	1
14	22	1
58	61	1
1	2	1
69	70	1
38	49	1
110	127	1
59	66	1
2	25	1
77	78	1
14	32	1
18	51	2
47	55	1
112	130	2
70	95	1
0	47	1
13	29	1
14	23	1
75	87	1
75	92	1
57	114	2
20	60	1
12	53	1
