15	35	1
98	98	9
49	50	1
77	77	3
67	69	5
101	101	7
79	79	4
68	69	4
64	92	6
14	15	1
19	20	1
103	104	1
84	84	2
62	98	7
24	24	5
104	134	5
8	8	7
84	86	4
7	8	3
121	121	5
96	96	6
61	61	5
19	19	5
4	4	1
5	8	2
90	90	5
105	105	5
81	81	2
67	67	2
8	11	1
114	131	2
31	31	1
74	74	3
91	92	2
50	50	4
125	126	2
16	17	3
46	46	1
128	128	3
18	18	2
92	92	2
36	36	1
103	103	2
15	15	2
44	44	6
106	122	2
111	111	4
132	134	2
30	30	1
64	99	4
10	10	8
113	113	13
70	70	6
120	120	5
91	91	1
100	100	5
132	132	7
25	32	2
82	82	6
104	104	5
26	26	4
126	127	1
106	106	4
53	54	4
23	43	1
83	83	4
18	19	2
25	25	6
116	116	8
127	128	3
130	130	7
92	99	1
79	80	2
15	17	2
2	4	2
75	75	10
106	107	3
129	129	5
108	109	4
65	65	7
85	85	3
35	49	1
80	134	3
128	132	2
63	98	4
82	84	2
52	52	1
60	84	3
127	127	3
121	122	2
29	29	7
1	33	2
25	46	2
20	21	2
96	97	2
35	36	3
99	99	4
110	110	2
65	85	2
110	112	3
62	62	2
21	21	4
44	45	2
1	1	6
71	72	5
27	27	2
33	33	2
58	59	1
126	126	3
54	54	1
55	56	2
49	116	3
17	17	2
20	20	2
8	9	1
72	72	1
123	125	3
74	103	1
93	95	2
16	16	4
61	62	2
89	89	6
26	27	2
87	88	1
4	11	1
92	102	3
95	95	1
118	118	3
34	34	5
112	112	3
88	88	2
64	64	2
79	133	2
63	63	2
32	32	5
124	125	3
73	94	1
38	39	2
101	114	4
86	88	1
12	14	1
2	2	3
13	13	1
93	93	3
28	28	2
122	122	1
9	12	4
25	26	2
73	73	4
109	114	1
23	23	2
26	45	1
82	83	2
58	58	6
46	50	2
2	3	1
79	108	3
125	131	1
3	4	2
2	13	1
113	114	3
66	66	4
131	131	6
76	104	1
89	90	3
121	129	5
134	135	1
29	30	2
13	43	3
91	102	2
57	57	4
38	38	1
4	26	2
107	124	1
97	97	1
2	14	2
133	134	2
78	78	1
47	51	1
12	12	2
121	127	1
21	23	2
7	7	5
85	86	2
86	86	1
68	68	2
102	103	3
32	33	2
46	47	1
60	61	2
47	53	1
80	80	3
27	28	1
63	64	2
22	23	2
0	0	1
29	95	1
48	48	1
6	7	2
122	123	1
122	129	1
102	102	1
125	125	2
80	135	1
6	6	2
109	109	2
16	18	3
123	123	1
79	135	2
63	83	2
28	29	1
11	13	1
10	25	2
99	117	1
87	87	1
82	117	1
124	124	2
53	55	1
43	43	2
68	91	1
76	76	2
86	87	1
120	121	1
100	101	1
133	133	1
134	134	1
80	133	1
