84	85	4
75	75	6
3	152	1
1	1	6
88	89	2
134	134	7
26	29	1
39	39	17
21	21	12
30	31	2
17	17	8
157	157	5
44	44	17
69	69	7
106	106	6
132	133	3
109	110	1
96	98	1
91	91	15
140	140	9
37	37	10
10	32	2
25	105	4
100	100	17
22	22	12
87	95	2
103	103	6
93	148	2
90	90	8
143	143	2
155	155	2
105	105	15
78	78	4
85	85	5
96	96	13
43	43	9
30	30	7
25	25	5
5	5	10
38	39	2
99	99	7
82	82	15
35	64	2
125	125	5
3	3	5
135	135	2
53	54	1
118	121	1
19	19	9
27	27	12
119	120	4
6	6	8
22	23	1
55	124	3
128	128	7
4	4	3
133	133	5
3	55	1
73	73	8
55	56	4
121	122	3
108	108	9
129	129	13
155	156	6
136	136	3
124	124	6
70	70	6
144	148	1
135	136	3
95	95	4
14	14	5
73	129	2
39	40	4
83	83	9
148	148	3
54	55	1
7	7	7
10	10	6
63	63	4
25	26	2
89	89	8
4	5	3
138	138	11
132	132	6
15	15	4
68	71	1
138	139	7
18	18	5
142	143	1
8	17	1
137	137	5
85	133	3
156	156	9
11	11	3
12	12	8
40	40	4
120	122	3
102	102	2
34	87	3
79	82	2
154	155	3
144	149	3
141	148	3
38	38	6
46	46	8
16	16	13
45	45	7
144	145	3
130	130	12
67	67	4
32	35	2
116	120	2
102	104	1
139	140	3
146	152	1
48	48	1
118	120	3
25	38	2
72	72	1
151	151	8
16	17	4
47	47	2
50	54	1
141	141	3
51	51	4
126	126	7
122	122	2
107	107	4
93	93	2
45	88	3
68	68	6
145	148	2
43	44	2
0	155	1
101	101	8
34	45	3
26	26	3
95	96	2
112	112	5
77	77	10
2	2	4
139	139	18
142	142	8
93	94	3
34	34	6
73	74	3
13	14	2
106	107	2
137	158	2
114	115	3
82	87	2
54	54	1
150	155	1
78	79	4
146	146	3
65	69	1
40	67	1
113	113	2
65	65	2
79	79	2
13	13	5
79	80	9
91	92	2
119	119	6
158	158	3
61	61	1
104	104	4
36	36	3
12	13	3
62	63	2
9	11	2
115	115	1
153	153	2
66	66	5
41	41	6
47	50	1
8	9	2
152	152	3
55	55	1
65	107	1
11	13	1
10	11	2
8	8	3
0	1	2
27	36	1
118	118	1
140	141	1
130	131	2
1	2	1
24	24	4
108	120	2
20	21	4
40	51	1
90	91	2
28	29	2
87	89	1
38	97	1
53	53	5
88	95	1
43	62	3
13	15	1
42	112	1
125	126	2
114	118	5
94	94	4
42	68	3
20	54	2
88	88	4
145	146	1
148	151	1
83	89	1
35	35	3
92	92	2
28	28	5
146	147	2
91	94	3
45	46	1
69	70	2
24	25	2
127	127	2
121	124	3
109	109	1
85	91	2
44	83	2
30	151	1
145	145	2
42	42	7
99	100	2
147	147	3
11	114	1
80	80	4
48	49	2
8	10	1
131	131	4
19	20	2
64	64	1
2	4	2
100	101	1
116	116	1
77	78	1
80	82	1
42	43	1
23	23	4
41	70	1
49	49	1
3	4	2
3	57	1
126	145	3
136	155	2
69	72	2
87	87	2
66	68	2
85	93	1
136	137	1
145	147	2
86	86	3
113	114	2
47	48	1
29	29	3
87	88	1
22	101	2
97	97	3
115	119	2
111	111	3
116	117	1
81	82	1
20	20	3
33	34	1
152	153	2
36	39	1
141	142	1
152	154	1
77	79	1
53	118	1
9	10	2
117	118	1
47	49	1
117	117	1
115	118	1
87	134	1
84	84	3
150	150	2
154	154	2
18	53	1
32	32	1
144	144	2
33	150	1
137	148	2
10	121	1
68	69	2
120	120	2
84	134	1
93	147	1
75	133	1
137	139	1
114	120	1
140	144	1
148	149	1
76	76	1
64	73	2
56	56	1
33	47	1
111	112	1
32	56	1
128	152	1
87	90	1
86	89	1
121	121	1
110	110	1
111	113	1
