140	140	6
25	26	1
117	117	5
138	138	2
186	189	1
145	145	4
80	80	5
76	76	2
187	188	4
31	31	6
82	123	4
29	29	5
47	47	2
125	125	10
120	120	3
56	56	2
182	183	4
151	151	3
45	45	9
59	60	2
110	110	3
122	123	4
145	146	1
53	53	6
72	72	4
61	63	1
152	157	6
57	62	2
9	9	2
123	163	2
167	180	1
30	164	1
54	54	2
71	127	2
12	13	2
154	154	3
112	112	1
149	149	9
56	85	1
132	138	3
173	173	2
82	82	3
73	74	4
174	180	2
129	130	3
10	37	2
11	11	7
179	179	9
189	189	7
90	97	2
59	62	2
10	10	1
128	128	1
101	101	2
42	42	7
80	117	2
75	163	3
114	114	6
132	132	1
21	21	2
133	133	3
85	109	1
93	93	2
24	25	3
6	82	2
185	185	1
79	79	2
106	106	4
57	58	2
129	129	1
32	32	1
60	107	1
75	75	7
159	159	3
182	184	4
171	171	2
20	22	3
20	20	4
23	24	2
11	46	2
32	33	2
54	79	3
8	8	3
74	74	1
81	81	1
4	19	1
171	172	1
48	48	1
83	83	6
134	134	7
153	153	3
92	130	2
165	165	1
38	38	3
88	88	4
8	23	3
76	77	2
0	0	2
19	20	2
112	145	3
65	73	2
18	22	1
7	7	8
119	119	2
77	77	5
3	3	4
108	108	1
104	104	3
154	155	1
110	140	1
105	105	5
57	57	5
180	180	5
0	57	6
6	99	2
136	136	5
131	154	3
152	153	4
75	105	1
20	21	2
131	133	2
61	89	2
104	145	1
188	188	3
113	113	4
60	60	2
77	129	1
182	182	1
101	151	1
146	148	2
16	16	1
55	85	3
41	41	3
150	180	1
84	84	12
58	58	1
99	99	1
78	78	2
28	30	1
100	186	2
85	85	3
43	44	1
37	38	1
12	12	5
174	174	3
38	103	1
136	137	1
130	130	1
178	178	1
16	34	1
64	144	1
89	89	2
87	107	2
131	168	3
114	116	3
71	74	2
162	166	1
118	118	2
152	152	3
64	65	1
59	59	2
71	71	2
103	103	1
74	92	1
130	133	2
90	122	2
104	105	1
11	36	1
161	175	2
126	126	1
97	97	5
88	89	2
141	141	3
18	19	3
90	96	1
52	53	1
117	118	2
72	74	3
52	79	1
188	189	1
23	23	1
57	74	2
158	158	3
78	80	3
13	13	3
44	44	2
95	95	1
139	139	2
89	90	3
15	36	1
123	123	3
33	38	1
161	162	1
77	164	2
3	182	4
164	164	3
127	128	3
140	146	4
145	148	2
1	1	1
93	94	1
102	102	1
85	110	4
100	109	4
160	160	2
98	98	1
15	16	1
0	11	2
64	64	2
177	177	2
97	108	1
101	102	2
163	164	2
39	40	1
90	90	3
14	14	3
86	93	2
41	42	3
55	86	2
123	135	2
129	148	1
65	87	4
158	185	3
36	36	1
172	173	1
5	5	2
22	43	1
27	28	1
27	27	1
65	65	1
18	18	1
74	121	1
163	163	2
106	107	1
15	15	3
156	156	2
170	170	1
130	165	1
75	77	1
2	2	1
142	143	1
24	37	3
1	5	1
147	147	1
37	46	1
105	106	1
124	124	3
89	97	1
161	161	1
19	19	3
21	22	1
63	65	1
111	111	2
184	184	3
52	52	4
22	22	1
83	114	1
96	97	2
155	155	2
166	170	2
54	144	1
162	163	1
57	120	1
132	145	1
29	30	4
126	127	1
137	137	2
78	79	2
34	34	1
90	139	1
89	155	1
100	101	1
166	166	2
104	142	1
24	24	3
82	117	1
80	81	1
66	66	1
63	64	1
87	88	1
34	35	1
184	185	1
24	41	1
98	100	1
99	185	1
170	179	1
16	18	2
79	95	2
143	143	1
125	128	1
170	171	1
160	175	1
181	181	1
100	100	1
35	37	1
73	81	1
151	170	1
161	174	1
148	148	2
103	149	1
1	2	1
14	36	1
35	35	1
4	4	1
21	45	1
58	60	2
181	182	1
115	115	1
67	67	1
172	172	1
130	164	1
26	30	1
37	37	1
73	73	1
172	175	1
108	170	1
99	100	1
31	81	1
87	87	1
87	108	1
2	41	1
22	23	1
133	135	1
