187	187	6
199	238	4
149	150	4
62	62	5
49	49	4
228	228	6
172	172	12
182	183	2
107	108	1
196	239	4
32	32	9
216	233	5
54	55	6
8	8	13
86	160	3
140	237	5
14	14	10
211	212	1
34	34	3
47	47	12
84	84	5
81	81	11
126	126	6
102	102	4
108	122	1
152	152	10
66	67	4
127	127	8
61	83	3
20	20	7
11	11	9
235	236	2
88	88	4
69	69	17
202	203	5
192	205	2
109	127	1
222	222	3
183	183	11
83	84	6
174	179	5
130	130	4
61	61	4
162	163	4
44	45	3
104	105	2
216	216	4
46	46	3
62	63	3
133	133	4
129	129	7
204	204	6
44	44	9
223	225	5
173	173	7
15	15	5
66	66	4
4	84	2
119	207	2
47	48	3
38	155	2
214	214	2
208	210	4
147	147	3
39	39	11
50	50	8
19	19	6
22	23	4
170	170	7
146	178	2
30	30	9
73	82	1
86	86	2
185	185	5
71	71	4
57	57	8
28	28	17
126	189	4
186	186	2
109	109	4
2	2	6
86	158	5
138	138	8
120	209	2
205	206	4
148	241	3
215	215	10
11	62	2
237	237	5
203	203	8
154	175	4
18	68	2
80	88	5
103	106	2
59	60	4
235	235	9
5	79	3
103	104	5
121	207	2
12	78	5
175	175	7
33	34	8
149	190	2
198	198	5
158	160	2
160	160	7
4	4	2
124	124	7
196	196	4
31	110	5
101	205	1
239	240	4
180	180	4
146	175	3
20	25	4
18	36	2
230	230	5
178	178	6
140	198	1
117	117	7
159	159	5
161	161	10
171	171	5
80	84	2
191	191	5
226	226	10
174	174	5
169	169	6
40	63	4
164	164	6
45	113	1
153	225	3
77	77	10
1	1	7
27	27	7
195	225	1
153	155	4
9	65	5
4	79	3
209	210	1
128	128	9
202	217	1
99	99	5
165	237	3
29	30	1
232	232	5
176	177	4
196	237	2
121	121	5
73	73	4
221	221	5
136	136	9
226	227	2
9	39	6
75	75	9
134	134	3
22	22	7
58	58	1
85	85	13
156	156	3
109	233	3
236	236	5
162	162	4
179	179	12
150	150	4
212	212	5
239	239	2
224	224	6
9	9	11
13	14	2
58	60	2
6	6	6
101	101	2
119	119	8
150	151	2
150	197	2
154	154	3
226	229	1
146	146	4
37	38	2
59	63	1
1	3	1
220	220	7
184	185	2
222	223	2
98	99	5
165	165	5
59	59	3
43	43	3
157	157	16
182	187	1
12	13	2
123	123	6
118	118	4
55	56	2
33	33	6
102	104	1
113	113	9
201	220	1
115	115	6
58	61	4
109	122	3
148	148	4
192	196	5
140	140	4
66	104	4
98	210	4
48	48	3
190	202	4
2	3	5
238	238	8
3	3	7
40	40	1
51	51	8
24	25	2
187	230	2
171	180	4
16	16	2
42	42	1
26	26	5
198	201	1
153	153	6
149	228	4
19	59	2
120	120	3
121	122	5
138	139	2
108	123	1
138	142	4
41	41	5
228	229	1
216	222	1
104	104	2
120	121	3
141	141	4
151	162	4
110	170	2
80	83	3
140	142	5
116	174	1
127	182	1
13	15	3
76	76	7
201	240	1
72	156	2
158	158	7
207	208	3
214	216	2
118	120	3
31	31	1
72	76	4
39	41	2
3	10	3
37	37	5
70	70	4
183	202	3
29	29	4
161	162	2
182	228	3
11	63	2
127	205	1
11	12	5
37	141	4
21	35	2
68	110	2
183	208	1
23	23	2
97	97	2
5	41	2
137	137	3
10	65	1
16	74	1
84	85	3
13	13	5
79	79	4
213	213	3
107	107	2
147	227	1
194	194	1
201	219	3
143	143	1
180	242	4
145	176	1
220	222	4
149	241	1
99	103	2
145	145	4
231	232	4
187	198	2
137	138	1
135	135	3
242	242	3
212	213	4
38	39	2
123	126	1
31	134	3
225	226	1
81	89	3
13	16	4
233	233	2
117	119	2
104	108	4
24	63	2
150	239	1
55	55	3
80	80	10
72	72	4
13	65	1
64	64	6
193	193	2
22	80	1
73	81	4
213	223	2
18	60	2
182	182	2
180	181	2
103	103	3
10	10	1
5	5	1
39	40	4
197	197	1
82	82	6
206	207	4
193	194	5
218	218	7
29	137	1
208	209	2
210	213	2
221	222	2
116	119	2
205	205	8
109	134	2
115	116	1
34	35	2
0	147	1
78	80	1
146	147	4
27	29	2
209	213	2
184	184	4
37	96	4
139	142	2
219	220	1
219	225	1
150	198	1
105	105	4
214	215	2
207	207	8
219	219	5
38	100	1
101	113	2
192	193	1
7	57	1
197	227	1
121	234	1
163	184	3
200	231	1
30	135	1
17	17	2
31	135	2
98	98	5
131	132	2
55	64	1
144	145	2
17	18	1
108	214	2
73	88	1
225	225	5
21	21	5
96	96	1
187	188	1
13	67	3
210	211	4
45	45	4
20	33	1
190	190	4
18	18	2
144	198	3
115	241	1
60	60	2
231	231	3
11	49	3
168	168	2
24	217	1
19	60	1
117	228	3
18	19	1
63	63	4
189	189	1
122	198	2
181	181	3
199	199	2
167	167	1
20	238	2
188	190	2
27	76	2
21	139	1
210	210	3
195	196	2
74	74	5
29	85	2
108	108	1
108	163	1
30	31	5
182	189	1
202	202	6
82	84	1
55	59	2
69	160	1
147	148	1
6	58	3
65	65	1
123	124	1
106	106	1
205	208	4
107	182	1
173	203	2
195	197	1
50	52	1
78	78	4
28	74	1
165	166	4
60	80	2
99	122	3
0	0	2
116	116	3
73	75	1
166	166	2
64	65	3
42	43	4
208	213	1
184	208	1
139	141	1
122	122	3
108	216	1
54	60	1
108	168	2
25	76	1
168	169	1
227	227	1
70	75	3
145	227	1
102	103	3
12	12	1
208	208	2
150	186	2
166	167	1
240	240	3
167	168	1
36	136	1
71	72	2
17	193	1
163	163	2
185	208	2
76	77	1
102	168	1
67	67	1
7	7	4
200	201	1
127	128	1
109	169	1
209	233	1
10	76	1
81	83	1
241	241	1
10	27	1
11	29	5
96	219	1
81	88	1
30	36	1
186	187	2
215	216	1
31	109	1
209	209	1
221	224	2
193	207	1
144	144	1
116	117	1
69	70	1
25	152	1
201	201	2
66	69	1
142	142	5
101	104	2
12	18	1
188	188	1
50	63	1
4	5	1
47	113	1
31	68	1
30	74	1
176	176	4
131	131	1
25	25	1
191	192	1
57	78	1
19	200	1
69	161	1
7	78	1
163	164	2
234	235	2
148	149	1
32	33	1
84	89	2
174	204	1
236	237	2
163	188	1
125	182	1
218	219	1
204	232	1
139	143	1
191	220	2
68	68	2
171	231	1
36	67	1
160	161	1
71	73	1
141	144	1
225	236	1
111	231	1
194	195	1
141	142	2
118	219	1
0	225	1
19	20	2
145	151	1
60	61	1
181	182	1
139	139	1
197	225	1
120	208	1
149	149	1
25	26	1
