132	132	17
111	111	17
106	106	24
78	78	16
23	23	25
139	139	22
89	89	7
22	22	19
74	74	18
61	64	8
105	105	20
65	65	12
1	1	9
50	91	4
97	98	8
69	70	13
76	76	10
140	140	21
115	115	19
48	49	5
30	30	26
32	32	24
15	16	11
38	59	5
5	6	1
4	36	2
68	77	6
39	41	9
24	35	3
134	134	27
67	67	17
101	101	24
79	79	20
125	130	2
137	137	20
85	85	19
53	53	24
72	72	17
75	105	3
75	75	15
135	135	15
108	108	20
6	37	4
83	87	2
10	10	14
115	117	4
132	133	6
1	23	1
103	104	8
4	112	3
24	24	16
129	129	21
100	101	11
130	131	7
113	113	21
26	26	28
108	113	8
107	109	8
145	145	3
4	34	2
125	125	27
25	25	21
91	96	4
4	35	8
57	57	18
63	63	10
84	85	10
131	131	22
83	83	22
8	8	8
80	81	11
97	97	26
82	82	28
124	131	3
128	128	25
6	18	7
105	106	5
119	119	8
68	68	20
33	34	5
50	50	19
34	34	39
2	2	20
13	13	9
31	31	13
3	36	4
121	121	24
104	104	13
62	63	12
38	62	4
119	120	6
16	16	13
77	77	19
84	84	10
6	20	1
0	14	3
91	92	6
130	130	21
112	112	9
109	109	15
95	96	8
69	83	2
73	73	9
49	49	18
92	92	12
8	40	3
9	9	21
135	138	4
33	33	17
95	95	20
58	58	15
16	20	4
35	35	39
65	66	11
11	11	13
122	123	8
54	54	16
81	81	14
96	96	28
3	35	1
39	39	10
12	12	13
87	87	18
94	106	11
38	40	3
59	61	2
25	26	6
133	133	11
96	97	4
103	103	15
58	59	17
88	88	16
66	66	6
2	14	4
5	5	15
18	19	5
77	79	4
123	123	19
75	76	5
61	61	19
124	124	12
48	48	16
49	50	3
117	117	14
70	71	18
27	27	9
68	69	11
36	36	25
55	55	25
40	56	1
85	86	3
140	141	7
107	108	5
136	136	24
142	143	7
62	62	18
143	143	8
120	120	20
34	36	3
71	74	3
61	63	4
93	94	6
57	65	2
86	87	2
99	99	17
120	121	5
8	38	4
8	9	1
52	52	19
71	72	5
21	21	15
110	110	26
59	60	6
64	64	14
37	37	16
81	82	5
40	55	4
24	25	3
83	84	13
20	20	11
9	11	5
14	14	20
138	138	6
50	51	3
127	127	23
18	18	15
110	112	2
73	74	14
50	90	3
128	130	2
1	22	4
100	100	9
126	131	2
66	67	5
23	24	4
102	102	10
60	60	17
102	105	4
126	126	6
0	0	8
43	43	13
27	29	2
90	90	10
136	138	5
13	14	2
54	57	1
122	122	22
98	98	10
42	42	16
83	85	3
2	5	6
17	17	13
86	86	10
29	29	18
63	64	2
47	47	17
40	40	9
93	93	18
91	91	16
69	69	15
47	48	3
141	141	10
116	116	20
2	3	13
131	132	8
5	39	1
112	113	2
114	114	15
31	33	6
111	133	1
49	90	1
134	135	8
53	54	8
47	62	1
117	118	4
38	38	16
110	120	2
85	107	6
52	72	4
89	91	3
2	34	1
123	140	1
110	111	10
12	13	3
30	31	1
21	22	4
51	51	7
56	56	16
119	140	2
114	115	2
129	130	9
70	70	12
111	139	2
13	20	2
71	71	10
68	92	1
93	97	1
121	136	1
59	59	12
62	64	2
31	34	4
114	118	8
107	107	10
10	11	2
113	114	7
36	63	3
80	80	14
101	102	2
100	102	3
2	12	1
50	53	6
141	143	6
67	68	3
118	139	1
76	78	4
2	19	1
74	75	4
23	34	4
112	140	3
138	139	3
124	130	1
23	27	4
39	56	3
131	133	2
116	117	18
42	67	3
143	144	6
77	78	9
88	89	10
22	33	5
142	142	5
50	87	1
112	114	1
79	81	1
2	4	11
4	4	12
137	138	4
41	41	10
38	56	1
9	41	1
121	122	2
53	96	2
6	6	10
72	83	2
145	146	1
70	91	4
88	90	8
14	15	3
0	1	3
121	137	1
72	73	2
43	66	1
72	92	1
108	109	9
55	62	1
31	32	2
3	4	1
106	108	2
73	102	4
62	80	3
124	125	2
2	24	1
85	89	3
35	65	4
99	100	10
28	28	10
37	38	9
92	93	3
97	99	10
90	91	5
118	118	10
20	21	5
101	103	4
141	145	4
90	96	3
15	15	20
49	62	1
14	33	4
127	132	2
2	20	4
57	58	1
2	33	5
122	131	4
126	132	3
20	48	2
4	24	5
98	99	7
55	65	2
34	35	4
126	127	3
133	134	5
27	32	1
92	94	2
12	22	2
94	94	12
73	100	2
90	102	2
19	19	6
71	98	3
13	17	5
8	23	1
139	140	6
50	92	5
27	28	3
4	5	1
68	76	2
35	36	4
143	145	2
144	144	6
0	48	2
39	40	4
37	40	2
115	116	7
125	128	2
13	49	1
79	80	7
114	117	1
39	60	1
111	138	3
55	56	3
24	26	2
10	21	2
118	140	3
61	62	1
9	10	1
28	29	2
20	38	2
25	27	1
74	83	1
121	124	4
43	57	4
3	3	3
104	109	2
68	71	2
102	103	5
3	33	2
77	83	2
4	6	2
119	122	2
51	53	1
118	119	3
4	40	1
104	105	3
59	90	3
3	6	1
106	107	3
65	80	2
77	106	6
13	18	1
144	145	1
102	104	2
76	82	4
68	78	1
69	91	5
77	81	1
69	94	2
76	105	1
28	30	1
36	37	1
79	82	4
76	77	1
13	16	2
30	32	4
6	36	1
109	110	3
113	140	2
55	96	1
126	130	1
14	32	1
55	79	1
90	98	1
49	56	1
71	102	1
73	85	1
111	135	2
39	59	2
58	60	1
123	124	1
21	34	1
134	136	1
73	84	1
111	112	1
22	23	3
48	56	3
142	144	1
5	25	2
52	94	2
21	47	1
114	134	1
107	110	1
93	135	1
94	136	1
114	139	1
73	123	1
29	30	1
66	81	1
16	17	3
89	90	1
133	140	4
136	137	2
99	101	1
81	86	2
141	142	1
120	133	1
5	57	3
5	65	1
52	53	2
64	65	1
60	65	3
17	19	1
120	124	1
60	61	1
119	132	2
59	89	1
120	139	1
70	72	1
111	114	1
1	11	1
82	91	1
121	130	1
78	79	2
82	86	1
0	17	1
119	121	2
94	114	1
11	29	1
17	18	1
26	33	1
26	30	1
63	79	1
9	19	1
42	53	1
118	120	1
