70	72	4
27	29	1
7	7	8
67	67	7
54	54	6
34	34	14
43	73	4
44	72	7
0	5	3
46	46	18
48	48	10
64	64	19
74	75	3
76	77	11
19	21	3
55	57	2
30	31	10
25	25	9
44	56	4
44	44	14
54	61	4
77	77	6
40	40	18
14	14	9
27	27	7
24	25	13
57	74	3
47	47	8
26	26	8
8	8	5
56	62	3
65	65	18
22	22	19
31	40	2
9	9	20
49	49	9
41	45	4
52	52	7
39	52	2
73	74	2
22	23	2
13	13	4
5	5	7
26	37	3
30	30	13
21	22	4
71	71	6
72	76	1
11	11	9
28	28	9
36	36	7
1	1	9
19	57	4
41	46	3
33	68	1
2	3	6
63	63	3
75	76	5
58	58	4
38	39	6
46	49	8
3	3	13
50	68	2
45	48	2
35	36	5
35	35	15
53	54	3
20	31	1
57	71	1
13	14	4
35	41	2
67	68	9
54	57	2
5	10	3
33	42	2
47	49	6
18	18	4
0	0	9
55	55	14
62	62	12
31	31	14
66	66	16
28	36	1
56	67	2
6	7	5
61	61	5
6	6	15
38	40	5
32	32	6
31	33	6
61	64	5
72	77	2
50	50	8
4	4	4
55	68	4
46	47	2
33	34	3
72	72	6
27	59	3
24	24	3
39	40	2
72	75	1
35	43	5
65	67	9
8	13	3
7	8	3
20	21	1
29	29	7
39	51	3
76	76	13
69	69	14
33	61	2
40	43	1
23	23	3
41	42	9
34	38	1
59	61	6
7	10	2
54	55	2
1	8	1
74	74	7
33	60	2
51	53	5
61	62	3
55	60	2
50	54	1
21	21	18
63	66	3
71	72	5
11	28	3
0	14	2
47	50	6
30	37	2
43	43	1
33	37	1
27	40	2
66	69	1
40	42	1
57	59	1
24	36	2
5	20	3
11	13	1
52	70	2
39	41	1
75	75	11
31	32	4
8	10	3
49	67	2
38	44	2
42	75	4
52	59	5
23	24	8
23	25	3
62	72	1
19	54	3
65	66	4
41	41	6
73	73	3
33	36	2
42	43	3
62	63	12
19	19	6
44	49	2
37	37	15
57	58	5
20	25	1
60	61	3
44	45	3
63	67	3
18	19	1
40	41	2
41	49	1
42	44	1
34	35	1
36	37	1
59	66	2
55	56	8
19	29	2
55	66	1
56	56	9
27	36	4
71	73	7
50	52	2
27	44	2
26	35	5
1	12	2
20	58	3
48	50	4
3	4	2
68	74	3
21	26	3
4	69	3
21	25	1
44	69	1
29	30	5
11	15	2
0	3	3
22	25	2
32	60	2
10	10	9
53	53	7
67	69	3
43	60	1
60	60	22
34	40	1
38	38	9
54	56	4
47	54	2
75	77	2
43	54	2
25	60	3
20	22	1
47	68	2
27	35	1
61	63	3
25	27	2
70	70	5
8	9	2
22	31	2
37	38	1
35	37	1
12	23	3
63	71	1
41	44	5
2	14	3
2	6	2
12	12	1
58	74	1
47	48	2
52	53	3
73	75	3
26	52	2
68	70	4
48	60	3
68	68	8
66	67	3
33	43	4
9	13	2
29	31	1
2	2	9
49	55	4
4	10	3
56	57	1
48	74	2
58	59	5
18	53	2
68	73	1
37	50	1
53	58	1
49	52	3
51	51	3
25	28	1
48	67	2
34	47	1
70	76	5
45	56	3
1	2	4
58	68	2
28	40	1
53	55	1
23	35	2
59	60	2
71	76	2
21	23	2
56	72	1
35	42	2
6	8	2
60	76	1
39	42	2
9	12	3
45	46	5
2	4	2
33	33	2
44	46	1
63	72	2
55	58	2
57	65	2
63	64	3
24	35	3
7	19	1
59	59	4
9	10	2
28	29	2
48	51	1
39	39	4
3	6	2
53	56	1
57	67	2
7	13	1
51	52	1
1	3	2
43	49	1
4	8	3
30	36	4
65	73	1
72	73	3
65	71	2
70	71	1
49	54	2
24	26	1
41	50	1
1	7	1
52	56	1
6	9	2
53	57	1
63	70	3
20	20	3
38	51	2
38	48	1
52	54	1
19	20	2
42	42	1
36	47	1
42	46	2
50	51	2
11	14	1
24	41	2
37	53	1
43	44	5
32	69	1
49	57	1
41	48	1
55	59	1
33	53	1
31	36	1
45	47	2
43	48	2
18	20	1
26	27	1
70	74	1
30	38	1
54	59	1
43	52	1
20	24	1
4	7	1
30	33	2
63	65	3
64	77	1
21	51	1
20	29	1
19	56	1
28	31	1
48	61	1
20	28	1
12	21	1
58	65	1
19	58	1
0	2	1
1	4	1
53	59	1
57	66	1
51	72	1
4	13	1
48	49	1
2	9	1
52	57	1
74	76	1
57	72	1
25	31	1
19	22	1
48	59	1
57	57	1
