92	92	6
34	45	2
76	78	3
92	93	4
49	49	2
75	75	3
69	70	5
71	93	3
33	33	6
79	79	5
105	106	7
132	133	3
7	7	6
18	18	2
14	14	5
109	127	3
44	44	4
18	19	3
118	118	1
8	9	3
111	128	2
84	84	6
70	93	3
94	94	14
58	79	1
97	97	8
97	119	1
132	132	3
11	11	5
71	71	5
78	79	4
38	39	4
130	130	2
31	33	3
110	123	1
62	62	2
55	56	4
64	64	2
71	113	5
79	80	2
109	126	1
61	62	7
103	103	13
107	116	2
9	9	7
125	133	4
26	29	4
21	23	1
98	98	6
27	31	3
84	98	2
125	125	7
57	80	3
7	9	1
90	90	6
4	5	2
41	41	3
120	130	2
33	34	6
89	91	2
122	122	5
66	66	4
110	110	8
111	112	3
15	25	2
6	24	1
64	68	4
14	35	1
1	1	8
23	23	9
121	134	2
109	124	4
126	126	3
13	35	3
77	77	6
22	25	4
38	38	3
114	128	3
71	91	4
60	60	8
5	22	3
99	114	3
105	105	7
78	78	6
71	94	3
8	8	5
89	89	1
14	17	4
74	74	5
31	32	2
96	115	3
22	47	1
61	61	11
111	120	4
80	80	3
128	128	4
21	21	11
75	80	3
87	90	3
76	76	4
67	67	2
12	38	4
124	127	1
60	73	1
106	106	6
55	55	5
23	24	1
121	121	6
2	14	1
121	131	3
4	4	2
6	34	2
25	25	3
33	47	3
90	92	1
101	101	3
36	36	3
28	34	1
12	12	2
124	125	2
22	22	8
30	30	14
117	117	3
24	49	1
15	18	2
34	35	5
86	118	2
39	40	3
77	93	2
57	79	1
16	18	1
91	94	5
71	95	4
109	110	2
111	111	4
79	81	2
107	107	8
58	58	2
46	46	2
133	134	2
87	87	3
77	78	3
14	28	2
78	93	3
35	72	2
96	96	3
43	63	2
124	133	2
93	93	1
19	21	2
87	91	3
68	68	3
124	124	2
95	95	7
59	61	3
39	39	2
119	119	13
70	70	6
120	120	5
49	55	1
60	61	4
31	40	4
57	57	1
6	40	1
99	106	1
22	34	4
129	129	2
70	77	1
71	75	5
37	40	2
40	41	7
127	127	3
24	39	3
115	115	1
70	91	4
105	112	2
91	91	2
16	16	4
112	120	1
13	28	6
65	71	2
20	63	3
65	65	2
92	101	1
26	32	1
74	90	2
0	0	2
29	34	1
5	5	1
75	79	1
21	35	2
50	50	2
102	104	1
85	85	3
28	28	4
43	62	3
27	27	3
29	45	1
102	102	1
37	37	3
71	100	3
15	28	1
3	4	2
59	59	2
34	34	1
6	10	1
26	47	2
36	37	3
70	94	1
82	82	6
59	60	1
11	12	1
24	26	2
2	4	1
2	71	1
69	80	1
99	99	1
128	131	2
35	50	1
83	99	1
83	83	2
48	48	2
107	118	1
24	24	4
2	2	2
100	100	2
9	36	1
49	63	2
131	131	3
68	75	1
83	107	1
116	129	1
69	69	3
3	17	1
0	1	6
1	61	1
6	6	3
17	17	2
75	77	2
12	17	1
83	84	2
45	45	4
112	112	5
1	13	3
125	126	1
81	81	4
16	17	1
118	124	2
72	101	3
15	20	2
16	37	3
105	107	2
86	87	1
97	98	3
19	19	2
7	8	1
84	85	4
119	129	1
6	26	1
125	134	1
88	114	1
105	110	1
32	32	2
2	18	1
37	41	1
51	55	3
2	130	1
83	94	1
122	132	2
30	45	1
74	97	1
17	18	1
114	114	3
85	120	1
66	67	1
26	27	1
128	132	1
72	72	1
22	39	2
112	113	1
63	63	1
35	39	1
108	113	2
109	112	1
113	130	1
43	57	1
43	80	2
93	94	1
102	106	1
59	79	1
111	118	1
97	99	1
56	68	1
130	131	1
102	103	1
