114	114	6
103	103	5
2	117	2
66	68	2
8	9	5
46	124	2
79	91	8
94	94	1
84	84	2
80	81	1
156	156	5
97	156	4
106	151	2
21	21	2
105	151	1
112	112	1
70	70	7
74	74	6
157	157	4
165	165	4
4	4	4
2	3	3
93	93	3
138	140	3
130	130	4
169	169	5
137	142	2
18	18	5
97	159	2
0	1	3
76	76	3
66	66	2
54	54	6
83	83	9
27	27	3
1	3	6
56	56	3
162	162	2
164	164	2
39	39	7
109	109	3
62	70	2
166	166	4
135	136	2
136	142	1
11	11	3
93	94	1
98	99	5
6	6	12
127	129	1
153	153	8
161	161	2
42	42	8
50	126	1
20	21	2
123	124	3
63	64	3
158	158	11
155	155	2
88	101	3
89	89	3
160	162	7
148	148	2
138	138	2
34	34	7
90	90	3
24	28	2
160	160	4
120	120	1
149	150	1
68	68	4
80	90	3
19	23	3
48	124	1
10	24	3
75	76	4
37	38	4
105	105	1
118	121	1
132	132	5
149	149	1
110	110	3
23	24	1
54	55	1
46	66	3
38	38	1
144	144	2
83	84	3
12	18	1
19	19	2
88	88	1
168	169	2
67	67	2
77	77	3
71	83	6
55	55	4
107	107	1
104	167	3
88	148	3
51	51	4
113	113	4
129	130	3
46	126	1
100	133	2
159	159	6
5	7	4
90	107	4
53	118	3
26	26	7
51	124	2
11	13	2
163	163	1
167	167	1
94	101	4
100	105	1
57	62	4
152	152	3
70	71	2
81	82	2
104	132	2
35	36	2
124	125	1
89	90	4
108	108	2
51	53	1
92	101	1
122	122	2
164	165	4
47	62	2
155	156	1
94	157	3
53	53	3
99	157	3
47	48	2
116	116	4
65	65	1
74	75	6
133	133	3
115	115	3
106	150	3
1	1	2
40	41	4
65	141	1
145	146	2
18	19	2
126	127	2
5	5	4
4	40	1
131	131	1
72	72	2
137	137	2
3	4	2
136	143	4
144	145	1
120	121	1
100	101	1
2	116	5
92	94	1
126	126	2
119	119	4
15	45	1
140	140	2
129	129	2
14	16	3
92	92	1
126	129	1
104	163	3
35	35	4
146	147	2
8	8	3
116	117	3
102	102	1
118	118	2
109	110	2
140	141	1
123	123	2
85	85	1
139	139	4
94	95	4
16	16	2
28	28	3
8	25	3
106	106	3
71	82	1
0	0	2
110	113	2
78	78	1
128	129	2
118	119	1
11	51	1
98	98	3
115	116	1
145	145	1
1	2	1
9	9	1
103	133	1
151	151	2
124	126	1
76	77	1
113	114	2
99	158	2
63	65	1
125	125	2
40	42	1
25	25	2
7	7	2
142	142	2
147	148	1
70	82	2
133	134	1
73	73	2
50	50	1
87	87	1
5	6	1
152	154	1
102	133	2
40	40	2
127	130	1
55	118	1
100	100	4
91	91	1
92	93	1
41	41	1
50	51	1
3	3	2
1	7	1
95	95	1
128	130	1
88	93	1
15	18	1
23	23	1
147	147	1
66	67	2
97	97	3
55	123	1
155	157	1
20	20	1
131	162	1
79	80	1
21	22	1
58	62	1
49	49	1
99	100	1
