221	221	8
59	70	4
153	153	7
54	111	3
51	54	5
56	108	1
29	29	3
110	110	3
175	230	2
145	145	6
23	28	1
167	174	2
20	48	3
157	157	3
176	176	6
91	91	1
87	91	2
201	201	10
10	45	1
15	16	1
228	228	4
241	241	2
35	35	3
211	211	4
108	108	4
191	191	2
75	75	2
160	160	6
51	55	3
68	68	6
105	110	7
18	28	6
14	118	3
32	32	6
188	192	5
11	11	4
58	58	2
158	177	2
101	101	1
36	118	1
199	201	2
180	180	2
183	183	10
75	94	5
235	238	3
19	24	3
92	92	6
168	171	5
216	216	8
147	208	2
152	231	3
78	226	2
169	169	14
48	113	2
81	81	12
84	84	6
171	171	3
57	58	1
78	78	3
96	96	9
5	45	5
231	231	4
62	62	4
150	204	1
27	27	5
177	232	1
56	107	1
11	14	3
232	232	3
156	156	6
37	37	2
152	152	1
7	118	4
168	168	2
233	234	3
47	113	2
38	38	6
3	34	2
236	239	2
4	4	5
208	245	2
4	114	6
76	79	5
223	223	4
199	203	1
175	175	2
159	159	4
107	108	2
43	78	2
71	106	2
151	249	1
144	150	4
193	203	4
194	194	3
67	68	5
56	58	9
88	95	2
185	190	2
179	179	1
54	78	3
52	52	2
55	105	1
173	173	1
206	233	1
155	155	2
69	103	1
37	77	4
224	224	2
204	229	2
3	3	3
41	84	5
238	238	7
43	226	3
237	237	2
152	169	8
227	227	1
50	119	3
155	232	8
26	227	3
207	244	6
178	178	3
119	119	2
10	35	2
189	189	6
97	97	4
116	222	3
35	117	1
25	25	3
15	15	2
241	242	4
174	174	6
58	107	4
41	41	2
158	158	4
36	80	2
151	173	1
38	43	2
190	190	2
217	217	6
188	191	3
173	187	6
109	109	9
157	232	1
15	175	1
22	23	4
59	110	1
155	233	2
68	103	2
153	154	4
34	76	3
189	197	2
245	245	3
57	59	5
207	207	11
193	215	5
243	243	2
114	116	1
119	222	3
191	197	1
59	104	2
181	181	4
171	172	1
152	173	2
17	25	3
193	193	1
24	24	6
45	45	2
42	79	3
186	190	1
8	8	1
202	202	2
205	205	3
39	87	1
112	112	10
234	234	1
210	210	5
82	82	4
60	60	2
98	100	1
70	104	1
114	115	7
211	213	1
118	119	2
87	88	2
178	230	1
212	212	3
240	240	3
95	95	2
6	35	1
53	53	6
37	82	1
94	94	1
112	221	1
210	211	2
50	79	2
63	63	5
3	14	2
230	237	2
166	181	2
204	204	5
77	225	1
73	74	5
54	54	1
19	76	2
51	51	4
192	192	2
194	195	1
50	50	3
222	222	8
113	120	2
152	161	2
69	69	4
189	191	4
85	88	2
150	207	1
200	200	2
96	110	4
22	161	2
58	74	3
7	11	6
49	50	1
107	109	2
154	155	1
165	165	4
195	195	1
246	246	1
184	184	2
174	176	2
201	202	2
34	50	3
54	55	1
12	12	2
88	88	2
162	162	1
19	31	3
166	182	3
114	224	1
106	107	1
24	77	2
185	185	1
60	64	2
26	26	2
147	209	2
55	55	3
153	248	2
164	176	2
39	39	1
14	14	4
71	71	2
155	237	1
36	36	4
72	73	2
66	66	1
116	117	2
167	183	1
24	28	1
172	227	2
154	236	1
22	22	2
214	214	2
165	182	1
5	11	1
25	43	2
207	213	1
49	49	1
233	233	1
233	237	1
192	193	1
236	248	1
165	174	1
36	167	3
34	34	1
90	91	3
199	199	1
162	181	2
72	101	4
77	77	3
119	221	5
36	87	1
116	116	5
72	90	1
209	213	1
64	64	1
20	20	2
31	31	1
190	199	2
44	44	4
187	190	1
52	53	1
105	105	3
45	113	2
59	62	1
25	179	1
21	21	3
30	97	1
14	180	3
118	120	1
16	16	1
204	205	3
209	209	3
197	197	1
235	235	1
164	181	1
4	5	1
35	47	2
18	31	3
177	230	1
72	80	5
80	80	1
204	215	1
55	60	1
160	179	1
67	67	1
120	120	1
105	106	1
55	56	1
47	48	1
145	246	2
150	202	1
229	243	1
95	100	3
28	28	1
222	225	1
193	204	1
188	188	1
60	61	1
0	0	1
55	111	1
186	186	1
34	49	1
214	216	2
163	166	1
102	102	1
147	147	2
46	113	1
151	151	2
153	213	1
165	179	1
175	182	2
172	207	2
73	73	1
207	208	1
42	94	1
58	66	1
113	113	2
37	86	1
77	79	1
30	30	1
59	74	1
215	215	1
99	99	1
1	1	1
56	106	1
89	89	2
9	9	1
244	244	1
80	87	1
55	74	1
26	36	1
25	226	2
60	75	1
208	227	2
235	236	1
82	94	1
152	234	1
71	75	1
60	71	3
77	221	1
196	196	1
42	61	1
19	56	1
219	219	1
236	236	1
80	94	1
207	229	2
241	244	1
34	115	1
19	19	1
47	79	1
236	238	1
229	246	1
43	45	1
4	112	1
29	107	1
24	109	1
164	166	1
49	76	1
163	180	1
187	187	1
19	27	1
236	237	1
18	24	1
40	40	1
169	171	1
190	196	1
10	10	1
