74	74	5
75	109	3
20	20	7
76	105	5
125	125	6
28	28	4
119	119	7
34	34	8
76	77	3
133	133	2
2	2	16
102	102	12
7	7	6
94	94	8
135	136	6
131	131	3
78	78	1
111	111	9
101	112	12
115	115	7
79	79	3
18	18	4
37	37	4
4	4	4
113	113	3
10	23	2
71	71	2
95	115	5
81	81	7
110	111	6
116	117	6
126	126	7
75	108	2
124	124	21
105	105	8
25	25	4
31	31	2
36	132	2
127	127	6
97	98	10
91	91	5
137	138	2
112	112	11
29	29	5
11	86	2
77	77	13
119	120	6
24	26	3
8	8	7
91	92	5
6	7	9
13	15	2
126	127	3
74	75	6
33	33	6
10	11	3
35	35	4
81	82	4
95	96	6
99	99	8
121	121	2
8	9	3
1	2	4
72	72	3
84	93	1
117	117	4
108	108	8
138	139	2
87	87	2
122	122	9
35	97	2
120	122	1
89	89	7
5	5	7
7	8	6
19	19	6
6	6	9
0	0	3
1	1	6
101	101	15
123	123	5
38	38	8
129	129	8
110	110	10
107	107	4
80	81	1
3	4	4
82	89	3
36	36	6
132	133	2
36	38	3
122	123	1
88	88	1
100	113	2
27	28	1
15	15	7
109	109	7
4	8	1
101	110	1
9	73	5
119	122	2
9	9	3
17	17	9
85	85	2
13	14	4
80	80	6
73	78	2
77	79	1
92	92	4
95	95	5
83	84	3
116	116	3
103	103	5
101	111	3
1	30	4
125	126	2
138	138	7
84	85	1
118	118	10
107	108	1
75	75	7
129	130	2
21	21	2
37	38	4
105	106	3
30	30	5
90	91	5
88	91	3
106	107	9
27	27	6
6	8	1
34	96	5
87	88	2
90	90	5
74	78	3
117	118	2
71	80	4
72	73	4
96	113	2
118	120	1
33	98	2
105	107	2
10	10	3
31	32	4
9	23	3
106	106	2
81	85	1
79	80	2
22	23	2
73	73	8
128	128	6
84	84	2
25	26	3
93	93	4
82	85	5
19	20	1
100	100	6
24	24	5
94	95	1
14	15	3
16	16	5
104	104	6
8	73	2
28	29	2
26	26	5
135	135	4
134	134	4
11	12	2
21	22	1
21	74	2
22	22	3
128	129	5
100	101	1
98	98	2
76	76	3
5	6	2
29	32	3
109	110	4
86	87	2
8	108	4
87	89	1
17	19	1
118	119	2
77	78	1
71	72	3
4	109	2
130	130	1
12	22	1
16	17	2
5	111	2
81	87	2
11	11	1
21	30	1
13	13	2
85	86	1
17	18	3
86	88	2
93	94	1
119	121	1
124	126	3
97	97	3
137	137	3
109	111	1
95	119	1
20	21	1
82	83	1
12	13	1
6	74	1
34	97	1
120	129	1
120	121	2
123	124	1
114	114	2
75	78	3
100	102	1
4	5	2
132	132	2
130	131	1
102	103	3
34	35	1
32	33	1
23	24	1
3	3	1
14	14	1
22	25	2
114	115	1
