32	32	49
55	57	4
41	43	7
52	52	29
74	75	11
95	95	47
88	89	5
37	38	9
35	35	43
62	66	1
86	87	7
30	31	20
66	66	25
106	107	13
20	24	1
62	92	3
109	109	26
59	59	49
71	71	20
73	73	20
51	51	36
103	108	6
78	78	22
103	103	36
45	45	61
22	22	24
60	60	33
28	28	21
97	97	26
28	29	10
96	96	34
41	94	2
40	40	28
47	48	21
57	79	3
58	77	4
36	36	47
99	100	11
85	85	19
40	47	2
26	26	56
74	76	10
83	84	16
64	65	11
40	41	23
59	61	2
79	79	40
111	111	29
61	61	42
100	100	38
69	69	30
91	92	9
60	61	14
100	101	14
94	94	29
74	74	20
80	80	39
88	88	18
58	58	19
68	68	19
93	93	30
94	95	12
104	105	20
53	53	23
80	83	1
44	44	26
72	72	38
69	89	5
58	95	4
30	45	2
68	69	22
76	77	19
95	99	5
65	65	15
101	102	11
77	77	17
108	108	16
86	86	18
55	55	16
92	95	4
50	50	21
48	50	3
98	100	6
86	96	1
33	33	37
27	27	44
98	98	32
19	19	9
63	74	1
59	60	10
92	103	5
92	93	9
84	85	11
27	30	3
99	99	32
49	52	3
91	91	19
109	110	6
22	23	9
25	25	18
53	54	10
42	81	4
54	78	2
47	103	2
70	70	20
101	101	15
36	85	4
81	81	39
73	74	21
79	80	16
95	100	3
60	72	1
49	49	48
42	43	9
48	48	15
42	42	31
30	37	2
113	114	9
76	94	8
46	46	18
41	41	19
48	49	12
24	24	28
87	87	26
69	78	2
56	56	35
83	83	19
20	21	7
47	47	38
41	42	9
54	54	15
43	43	30
52	74	3
104	104	23
51	52	4
90	91	13
38	38	28
28	30	3
79	81	14
32	34	8
113	113	29
103	104	6
102	102	36
47	104	4
31	31	33
25	26	11
72	73	8
90	92	11
21	21	30
70	86	3
110	110	20
82	82	22
49	50	16
30	30	30
67	69	12
34	76	2
55	56	12
87	88	6
35	36	14
20	20	27
106	106	7
75	85	9
43	44	16
36	37	7
48	54	1
62	62	14
102	103	6
82	83	11
45	47	4
54	57	4
63	65	3
63	63	21
73	77	9
32	37	3
39	106	5
99	101	7
89	89	16
70	71	11
91	97	5
86	88	1
103	106	4
82	85	1
96	97	7
76	76	42
111	113	5
93	95	4
29	29	33
94	96	2
75	91	5
50	51	8
25	98	2
32	41	1
31	107	1
39	39	27
34	34	48
57	73	1
95	96	9
102	108	3
102	106	6
62	70	2
62	63	5
41	107	1
61	95	3
20	107	3
58	94	5
65	66	10
63	64	16
21	22	7
23	23	37
39	40	11
35	53	5
30	44	1
32	43	10
78	88	2
108	109	4
67	67	27
35	96	1
50	52	6
54	56	2
23	51	3
37	37	23
54	55	8
70	75	2
73	79	4
33	105	1
21	49	11
64	79	1
19	91	2
47	107	7
67	98	4
112	112	16
92	94	4
75	75	34
67	68	13
114	114	19
45	46	12
52	53	1
115	115	5
71	115	1
23	89	2
62	94	3
34	35	14
31	73	2
49	51	1
107	107	20
98	99	6
23	35	3
24	95	2
104	106	4
61	62	10
65	67	1
58	75	1
58	59	6
92	92	33
71	73	4
105	106	14
25	100	3
36	69	2
60	70	2
84	84	28
58	97	3
101	111	2
44	46	2
22	24	5
40	97	4
93	94	8
28	103	3
64	64	4
67	109	3
21	23	2
57	58	9
47	50	3
35	37	6
33	41	2
37	59	3
42	70	4
112	113	11
61	67	5
48	62	1
45	105	2
76	78	5
57	57	13
32	33	10
66	88	1
70	74	4
73	95	2
105	105	18
51	85	3
53	95	6
20	64	6
90	90	12
29	31	1
30	41	2
29	33	2
111	112	7
80	81	7
78	79	9
23	105	1
75	76	7
56	60	1
38	40	3
36	39	3
44	45	5
76	79	4
84	86	2
54	79	2
54	59	1
100	102	2
72	91	3
63	68	1
110	111	1
97	98	4
72	74	4
33	46	4
93	98	4
76	115	2
62	64	2
45	48	3
26	27	12
56	87	4
49	62	8
73	75	5
63	92	2
98	106	4
53	62	6
20	109	2
74	77	2
58	62	2
48	103	1
43	45	2
19	110	5
73	76	4
52	94	1
40	95	1
81	105	2
33	34	10
19	90	5
77	78	7
24	28	1
28	83	6
68	85	3
52	72	2
85	86	5
23	24	4
31	98	1
73	84	1
27	29	1
76	110	4
102	104	5
75	113	1
104	111	3
87	110	2
27	28	6
29	34	2
49	88	1
55	60	2
106	110	1
30	34	2
92	108	5
36	73	3
77	82	3
52	78	3
41	49	1
66	68	3
70	76	4
65	70	3
96	100	1
51	80	7
56	63	2
60	76	2
71	103	2
109	111	5
107	109	8
45	49	3
25	27	3
71	72	10
38	39	5
74	100	6
101	103	2
60	64	3
35	51	3
84	88	1
39	73	4
96	98	6
89	90	3
68	76	1
25	99	6
49	67	2
29	30	1
26	82	3
34	67	2
71	74	2
28	41	1
76	93	4
82	84	6
21	26	3
84	90	1
96	101	1
56	61	4
77	113	1
20	22	2
97	102	1
32	39	7
74	78	1
75	92	2
46	47	2
74	79	1
53	98	2
39	47	3
33	94	2
48	61	3
20	89	1
38	92	1
47	49	4
31	65	3
73	114	1
71	84	5
90	104	2
23	30	2
37	106	2
64	80	2
81	82	12
31	32	5
89	91	6
91	101	1
56	57	3
37	43	3
67	88	1
34	36	5
34	43	1
55	59	2
19	23	2
20	71	1
86	94	2
24	26	2
91	107	2
87	89	1
32	49	1
88	90	2
97	100	1
22	109	1
48	51	1
59	62	2
25	28	1
19	24	1
83	85	3
66	67	3
76	104	3
39	71	2
22	107	1
106	109	1
37	97	1
43	51	2
64	67	1
52	81	1
84	93	4
41	68	4
26	99	1
60	95	1
62	67	2
61	65	2
92	107	1
23	92	1
69	76	1
30	85	1
95	98	1
49	72	1
30	82	1
36	45	1
79	85	3
27	31	2
84	87	1
39	42	5
37	39	1
39	107	1
69	71	3
63	78	1
55	61	1
47	54	1
75	77	1
53	55	1
81	86	1
43	72	2
33	83	1
33	36	2
28	46	1
38	42	1
36	42	1
40	44	1
104	108	1
68	72	1
26	45	1
38	44	1
46	62	1
67	89	1
73	111	1
45	103	1
68	75	1
24	45	2
96	113	1
87	90	1
60	62	1
68	70	1
53	99	1
64	66	1
23	91	2
103	111	1
21	100	1
63	108	1
73	105	1
57	94	1
21	64	1
87	91	1
29	104	1
78	92	2
37	69	1
22	64	1
37	92	1
46	51	1
54	95	2
46	50	1
85	99	1
67	96	1
29	99	1
41	50	1
38	111	1
24	25	1
23	33	1
60	71	1
30	43	1
20	105	1
69	70	1
30	49	1
54	63	1
32	52	1
62	73	1
32	97	1
69	81	1
21	72	1
25	31	1
