156	156	7
141	141	6
69	71	3
149	149	9
49	71	1
107	107	12
102	103	6
33	33	6
88	88	2
27	27	9
153	157	4
116	144	3
31	34	4
144	144	3
109	156	1
76	76	2
93	94	4
86	125	2
51	51	11
157	157	3
100	100	7
136	136	4
32	34	2
57	57	4
125	126	3
54	54	2
54	55	2
52	53	2
70	70	10
79	79	3
5	5	1
29	30	2
102	102	1
90	115	4
128	128	2
44	75	2
90	90	8
111	112	5
11	11	5
101	104	2
87	121	2
158	158	5
115	115	5
13	14	4
65	65	5
94	94	7
39	39	2
42	42	6
17	19	2
88	125	5
146	146	6
80	81	4
43	44	6
50	50	5
144	146	3
48	69	7
141	159	2
41	41	5
131	131	1
122	122	6
8	11	3
71	81	6
96	96	7
43	43	4
73	73	7
116	146	3
7	8	2
69	124	4
4	19	1
44	44	3
119	119	8
28	28	5
26	26	1
117	134	2
155	156	6
117	148	2
145	148	1
150	153	3
10	10	6
128	129	4
72	72	3
88	128	3
53	53	1
94	95	1
6	6	4
140	140	2
78	97	1
93	93	2
105	105	7
110	110	1
124	124	4
73	74	4
29	29	4
19	19	3
13	13	2
32	33	2
117	146	2
25	25	8
86	87	1
65	95	3
77	97	1
36	36	7
32	36	5
152	152	3
3	3	2
97	97	1
23	23	3
8	8	4
91	115	1
99	99	2
92	93	2
16	18	2
118	118	5
121	121	3
145	145	6
15	18	1
120	122	4
48	48	1
31	31	1
37	37	2
13	38	1
82	87	1
75	75	2
38	54	2
54	56	1
151	151	1
130	130	5
114	115	2
10	20	2
49	49	2
146	147	1
20	21	6
68	70	1
43	47	2
129	129	1
39	41	1
23	24	2
4	4	1
110	111	3
82	83	3
45	45	2
37	57	1
31	53	1
7	29	1
101	101	4
101	105	2
19	20	2
98	128	1
67	71	2
39	40	2
134	134	1
88	90	3
48	70	6
27	28	1
148	148	3
143	143	1
134	136	2
143	145	1
103	103	2
30	32	1
24	24	4
68	68	5
8	15	1
50	51	2
17	17	1
116	117	5
34	34	1
125	127	3
80	98	1
27	30	3
116	129	1
22	25	1
112	112	3
37	54	3
2	2	1
142	142	3
87	88	3
43	46	1
71	71	1
87	87	2
115	117	2
31	32	2
47	47	5
144	145	4
150	150	1
15	17	2
12	12	1
15	16	2
86	123	3
46	55	2
5	19	1
16	41	1
89	123	1
45	46	1
11	29	1
69	70	1
152	153	2
71	80	3
9	13	2
119	128	3
88	89	2
7	28	2
16	16	6
113	114	1
9	72	1
156	157	2
114	121	2
153	153	3
20	20	2
10	21	2
12	15	1
52	52	2
37	56	4
0	0	2
104	104	2
55	55	3
41	57	1
56	56	1
132	134	1
8	16	2
114	114	1
120	146	1
44	45	1
77	77	1
142	158	2
95	95	2
105	109	1
116	116	1
111	113	2
100	151	1
78	124	1
79	96	1
123	123	1
82	82	1
30	36	1
86	86	1
26	29	1
77	93	1
113	113	1
54	57	2
78	78	1
41	42	1
135	135	1
38	56	1
63	63	1
132	133	1
37	49	1
9	9	1
1	1	1
90	114	1
30	53	1
144	147	1
31	35	1
78	96	1
