73	73	5
132	132	4
15	25	13
42	42	5
16	17	3
16	16	5
14	19	1
116	132	1
111	111	15
66	66	26
8	17	3
105	105	17
31	31	8
61	61	18
72	72	21
110	112	1
22	22	7
108	108	9
19	19	13
62	62	6
8	8	11
31	32	1
45	46	6
126	126	10
90	94	9
95	95	11
91	92	4
3	119	3
59	59	8
45	45	13
117	117	7
70	70	11
64	64	8
109	111	2
114	120	4
110	110	5
44	57	2
101	101	5
68	68	16
101	114	4
124	125	11
86	86	11
97	97	6
99	99	10
97	128	1
81	81	16
21	22	2
43	43	4
15	15	19
88	88	10
92	92	10
5	5	2
88	89	2
95	102	2
123	123	4
78	78	4
27	27	7
114	114	3
93	94	2
36	36	11
122	122	12
77	77	7
0	0	11
87	88	2
91	97	2
87	125	4
7	7	5
113	114	3
77	78	4
92	131	7
83	115	2
44	67	2
6	6	7
121	127	1
134	134	5
58	59	2
24	24	4
121	121	8
129	129	13
20	28	6
76	76	9
59	121	4
110	111	5
79	81	2
63	63	8
12	12	11
37	37	13
115	131	3
18	18	5
100	101	4
17	18	5
69	69	6
62	117	1
35	35	11
12	13	3
10	10	4
91	104	2
10	11	3
46	46	17
28	33	2
65	65	19
116	116	6
14	15	1
87	130	1
82	82	12
38	39	10
58	58	6
61	62	2
32	41	2
28	38	3
31	41	5
9	9	18
50	55	3
34	34	5
30	113	3
64	65	1
4	4	5
125	128	5
20	20	2
69	70	2
37	38	3
32	32	20
89	115	3
25	25	9
40	40	11
29	112	2
15	19	1
3	6	4
60	60	17
114	119	2
94	94	2
29	29	5
104	105	2
91	91	13
96	96	7
57	57	8
83	83	2
82	84	2
133	133	12
128	129	7
22	25	3
62	67	5
23	24	9
3	3	9
30	30	11
104	131	4
47	47	13
93	95	4
106	107	4
128	128	9
34	35	2
42	45	2
20	21	1
78	79	2
102	102	9
6	7	2
28	30	4
92	133	5
93	100	1
100	102	1
10	13	1
97	98	1
95	96	10
81	85	2
114	124	1
11	11	7
41	41	8
120	123	6
79	79	2
113	117	1
108	110	4
113	113	6
66	73	1
91	101	3
62	63	4
100	100	10
90	112	2
115	123	1
38	38	7
43	57	6
23	105	1
20	24	1
124	124	10
94	95	6
96	121	3
89	107	2
127	127	8
95	124	1
93	93	3
26	43	2
28	28	2
27	33	1
6	13	5
75	75	7
107	109	4
106	106	8
118	118	13
13	13	3
84	84	8
112	130	1
133	134	4
115	115	12
90	125	1
101	120	3
21	34	2
80	80	4
45	48	2
38	40	1
28	29	3
116	117	3
104	106	4
56	56	7
95	99	1
30	34	1
92	93	3
114	127	3
100	119	4
33	33	5
118	119	1
94	130	3
107	107	7
9	18	1
29	31	3
28	113	2
4	6	1
105	106	3
44	44	3
8	15	3
41	50	1
74	75	7
34	39	2
86	88	2
101	102	4
55	55	5
32	33	1
50	50	4
63	64	4
9	118	4
94	124	2
39	39	4
23	26	1
119	119	4
5	7	3
131	131	5
62	123	3
48	48	5
7	8	1
100	107	3
40	50	1
109	109	3
64	74	2
40	41	1
21	29	1
116	123	2
2	2	5
71	71	3
90	90	7
88	116	1
97	99	2
114	123	1
1	3	2
130	130	2
67	67	2
23	23	9
130	131	3
65	66	1
103	107	3
4	5	1
70	83	1
98	98	6
74	74	5
100	120	1
26	26	1
128	130	1
75	117	3
32	40	4
3	12	2
100	115	4
112	113	1
114	131	2
8	9	1
61	66	1
104	104	3
98	102	2
76	93	1
126	127	1
85	85	3
87	131	4
56	57	2
44	56	4
48	126	3
108	119	1
8	18	1
2	68	1
82	108	1
18	22	2
119	130	1
49	49	2
57	59	1
112	112	8
17	17	2
117	118	2
21	21	3
87	87	2
108	109	3
126	129	1
97	100	2
44	45	1
96	100	1
49	50	2
61	116	2
37	60	2
31	35	1
45	55	1
26	27	1
47	48	1
17	20	3
120	120	3
116	118	2
29	30	2
110	114	3
82	83	3
91	105	3
68	70	3
8	10	1
50	56	2
129	130	2
96	98	1
79	113	1
3	60	1
47	61	1
14	14	1
121	122	1
117	124	1
125	125	2
89	89	1
78	131	2
36	38	1
94	128	1
11	27	1
115	125	1
104	123	2
132	133	1
68	71	2
61	67	3
122	123	1
41	55	1
51	51	2
130	134	1
46	47	1
131	132	2
80	82	1
45	57	2
15	28	1
46	75	1
25	26	1
93	121	1
40	56	2
1	1	1
112	114	1
20	43	1
6	41	2
68	69	1
24	25	1
111	112	1
101	105	1
13	27	1
14	28	1
75	78	1
91	131	1
80	88	1
103	103	1
5	8	1
40	42	1
116	119	1
11	33	1
78	80	1
28	37	1
90	92	1
119	123	1
103	105	1
12	22	1
40	45	1
33	34	1
4	25	1
