152	152	9
67	67	14
102	102	20
51	51	9
186	189	1
111	111	19
65	65	13
227	227	6
213	215	1
87	116	1
174	223	1
41	41	13
4	43	4
205	205	7
183	247	2
208	212	6
38	40	2
154	162	3
231	248	4
210	210	12
172	172	10
88	90	3
100	101	4
94	95	3
222	222	5
185	191	1
77	78	5
112	112	23
157	158	3
218	218	8
202	202	21
77	77	10
177	177	11
14	15	6
154	154	11
14	94	2
118	119	10
109	109	11
9	9	14
69	69	12
80	81	5
23	111	3
212	235	3
76	80	3
30	30	11
20	20	7
173	174	5
71	71	15
79	79	10
174	174	17
156	156	14
210	217	3
189	189	6
66	66	7
209	221	2
64	64	10
187	189	3
239	239	12
166	166	4
48	58	1
162	163	3
31	32	3
55	55	12
178	178	4
233	234	7
201	201	23
214	214	12
16	16	5
207	207	17
50	50	7
53	53	3
244	244	21
197	216	3
80	80	6
115	116	3
181	181	23
21	205	3
116	117	7
90	90	10
39	39	5
15	111	1
25	25	3
18	18	2
82	99	3
163	164	9
180	181	2
199	201	3
240	241	5
45	45	7
57	58	5
229	229	17
175	227	1
23	23	14
172	182	1
184	184	12
224	225	8
81	81	18
175	196	7
156	179	1
80	99	2
199	199	18
225	225	6
221	223	2
94	112	7
74	75	7
155	155	5
14	14	16
78	96	2
31	31	13
27	28	5
5	204	2
145	151	1
192	192	12
181	185	5
68	68	6
26	26	9
153	211	2
188	190	3
213	213	6
77	79	4
10	10	14
87	87	11
153	223	4
59	59	10
168	168	16
173	173	9
179	179	11
79	95	3
31	35	3
233	233	10
17	17	6
226	226	14
76	76	9
72	72	11
237	237	14
29	29	15
152	223	4
197	197	16
155	161	6
95	95	10
78	78	16
90	91	11
232	233	5
170	182	1
77	87	2
185	185	10
39	169	2
59	157	2
212	212	6
221	221	6
58	59	2
106	168	4
73	73	3
206	207	7
94	94	8
234	240	2
0	0	4
164	165	3
211	211	15
35	35	8
2	3	4
178	181	1
96	96	14
60	71	4
167	167	5
60	60	5
7	7	7
101	108	3
40	40	6
12	12	8
48	48	4
21	22	3
153	153	5
114	114	11
194	194	1
66	67	2
145	145	6
26	40	1
61	61	9
14	89	2
159	190	3
6	206	2
247	247	4
71	72	8
38	38	13
146	152	3
120	120	2
230	230	7
27	27	9
160	160	7
73	96	3
44	44	8
193	193	5
90	92	1
63	76	1
83	83	8
170	170	12
196	241	3
32	33	2
57	57	5
34	34	2
171	171	18
182	224	4
51	52	2
19	205	3
179	181	2
81	94	3
190	190	3
5	5	5
29	36	2
93	93	13
62	63	3
101	101	17
82	82	13
158	159	4
8	8	10
152	153	6
194	195	3
197	215	2
56	56	12
214	215	7
209	209	15
222	245	4
49	50	1
200	202	2
50	52	2
149	161	4
223	223	10
68	69	4
156	180	5
227	228	3
92	92	10
204	204	7
34	35	3
245	245	6
37	37	6
157	157	11
36	36	2
64	65	3
222	229	2
177	181	4
20	21	5
91	91	8
22	22	7
63	201	2
217	217	12
47	48	1
86	86	4
147	147	2
209	210	1
95	102	2
241	243	1
240	242	4
62	62	11
206	206	1
79	99	2
236	236	12
226	227	2
15	15	10
175	175	7
24	25	1
232	232	4
215	215	9
74	74	4
220	220	5
176	179	2
153	203	1
231	231	8
11	11	8
198	198	13
59	60	6
248	248	8
3	3	6
67	69	3
67	72	2
117	118	10
99	100	3
164	164	2
46	46	12
25	37	1
219	219	13
64	72	2
182	190	2
5	7	6
32	32	5
199	200	5
117	117	6
13	14	1
75	77	4
29	31	2
84	84	8
151	151	4
116	116	5
66	71	1
207	208	2
21	21	2
99	104	1
149	149	3
118	118	18
150	150	2
183	224	3
235	235	8
203	203	12
246	247	2
183	183	7
238	238	8
182	189	2
52	70	5
225	226	1
224	224	9
6	38	2
182	182	4
110	110	6
245	247	3
201	202	2
234	234	4
19	19	4
162	170	2
69	98	5
108	119	3
229	230	7
175	176	4
209	229	2
195	195	9
99	99	19
165	165	7
4	4	10
242	242	12
63	63	9
211	212	5
113	113	14
108	108	7
101	104	4
104	104	1
103	103	10
24	40	2
33	33	7
81	160	1
230	245	2
217	218	2
89	89	5
64	66	1
200	200	5
97	97	14
12	37	3
151	213	1
98	98	10
11	12	5
113	117	4
121	121	1
150	151	2
39	40	1
79	93	3
3	84	1
107	119	1
200	201	3
221	222	3
105	168	3
89	90	1
31	205	2
208	208	9
48	57	2
243	243	5
40	41	1
156	167	1
70	75	1
106	106	4
51	53	2
163	163	10
50	59	2
161	167	1
52	52	13
13	113	1
172	177	2
48	244	2
160	166	6
236	237	4
99	107	3
200	215	6
172	173	2
218	248	3
56	58	5
18	19	2
99	105	2
162	162	8
119	119	5
241	241	8
4	6	3
114	115	8
115	115	12
82	100	6
58	60	1
195	225	4
107	170	4
217	219	1
113	115	4
146	146	2
169	169	3
193	196	5
203	204	3
74	103	3
51	247	2
22	23	2
51	241	1
24	24	6
179	226	1
188	188	2
43	44	5
185	186	8
236	238	4
81	82	4
31	33	2
49	247	3
83	156	5
93	94	2
151	204	1
217	246	2
42	43	2
70	70	7
8	9	1
163	166	4
158	158	7
30	35	3
220	246	1
161	161	3
47	47	6
7	8	4
100	100	1
187	188	3
240	240	6
111	112	3
213	214	4
64	78	2
188	189	2
224	226	4
6	7	2
9	39	1
4	7	3
244	245	1
78	86	1
189	191	1
217	233	1
237	240	5
6	6	3
157	187	3
246	246	12
220	224	1
82	83	4
92	93	3
184	185	4
20	205	1
158	221	3
171	172	5
174	230	1
28	31	1
160	161	4
151	152	4
152	169	1
152	172	1
104	118	4
43	43	6
154	169	1
228	228	7
174	228	2
159	159	5
152	162	5
84	86	2
193	241	2
216	217	3
189	190	2
213	231	3
46	238	1
16	24	2
99	101	1
42	42	11
80	98	3
56	243	1
229	231	3
76	87	3
163	188	2
70	71	2
180	186	1
25	38	1
183	225	3
235	242	1
16	19	2
167	171	2
227	229	1
84	85	3
105	106	1
98	107	1
171	178	2
57	77	1
237	238	1
61	62	3
152	221	2
157	167	1
160	189	2
234	235	5
70	77	3
11	37	3
120	167	2
69	78	1
191	191	2
179	180	7
153	182	3
46	53	1
178	185	4
96	102	2
65	67	3
223	244	1
77	80	1
20	23	1
187	187	2
176	176	7
28	28	3
161	162	3
180	180	4
28	29	2
88	89	2
55	60	2
200	214	1
51	59	1
153	154	1
75	76	2
241	247	4
66	199	3
222	242	1
195	196	3
65	200	1
145	204	1
172	178	3
53	55	1
54	54	6
164	187	1
67	68	4
54	61	1
207	226	2
215	216	1
19	34	2
110	112	2
9	85	2
197	212	2
88	88	4
160	191	2
19	31	1
110	111	4
209	211	2
197	239	4
153	171	1
75	87	1
238	240	2
146	151	2
196	196	4
216	216	2
85	90	1
26	27	2
204	217	1
153	172	2
208	209	1
228	229	2
214	220	1
20	35	1
102	109	2
186	192	2
157	172	1
149	150	6
96	97	2
183	185	1
114	117	3
154	170	1
28	30	1
80	82	2
182	184	3
14	33	1
85	85	5
71	73	3
47	55	1
117	167	1
192	193	3
78	85	2
17	18	3
91	92	2
13	13	1
12	36	1
228	230	2
238	239	1
152	218	1
54	63	1
115	117	2
186	186	1
176	194	2
220	245	1
172	190	2
197	199	3
232	234	1
20	22	2
165	197	1
65	66	1
102	103	1
62	75	2
174	175	1
114	118	1
25	84	2
176	178	1
218	219	2
41	42	2
60	62	1
194	225	4
87	88	2
221	245	2
63	64	1
213	220	2
96	113	1
48	49	2
121	166	3
96	115	2
165	166	2
86	87	1
55	56	1
249	249	1
178	180	3
31	34	2
243	244	2
49	49	2
119	121	1
230	231	1
212	223	1
75	75	4
218	233	1
104	108	1
245	246	1
222	230	1
205	212	5
2	2	1
152	159	2
182	217	1
221	230	3
168	169	1
159	187	1
36	145	1
237	241	2
51	61	1
220	222	1
7	204	1
87	94	1
65	97	1
16	28	1
194	241	1
196	197	2
14	37	2
20	33	1
205	208	1
37	192	1
205	216	1
182	183	1
58	76	1
51	55	1
3	4	1
56	57	1
178	179	1
65	199	1
194	196	1
58	58	1
98	99	1
176	177	1
108	118	1
205	215	1
106	108	2
201	204	1
31	36	2
49	60	1
89	94	1
89	93	1
35	205	1
4	11	1
60	61	1
112	113	1
229	244	1
184	192	1
1	1	1
11	87	1
69	70	1
