4	7	6
86	86	6
24	24	4
132	132	4
63	63	2
150	150	2
2	2	6
83	83	6
102	102	3
25	25	10
48	48	4
103	103	1
7	7	3
125	125	5
28	30	3
133	133	3
131	132	1
153	154	2
99	100	2
108	108	11
137	138	3
94	94	6
57	57	2
82	82	7
34	34	4
14	14	8
8	63	1
97	97	9
126	126	4
145	146	1
39	39	1
31	36	3
151	151	5
123	124	2
69	69	7
146	146	3
12	13	5
34	35	2
116	116	4
76	78	2
10	35	2
8	8	3
20	20	3
149	149	6
26	27	4
114	115	2
31	31	1
124	134	3
9	13	1
39	65	1
23	24	4
113	118	2
32	36	2
113	121	4
93	93	4
129	129	1
18	18	3
115	115	6
70	70	2
79	79	3
130	130	4
109	109	2
42	42	7
138	142	2
131	131	3
40	40	4
102	103	1
53	53	5
55	56	1
13	13	6
132	133	1
95	96	1
122	122	3
92	92	1
57	58	2
44	44	1
145	145	1
107	107	2
4	6	3
114	114	1
32	33	5
99	99	3
120	120	2
33	34	5
83	87	3
68	69	3
129	130	3
74	75	2
49	49	1
12	12	3
48	49	1
17	18	1
43	43	2
24	48	3
96	98	1
73	73	4
84	84	5
67	67	1
147	147	2
17	17	1
88	106	1
72	73	3
66	67	3
108	110	3
136	136	2
41	41	1
111	111	3
50	51	3
21	21	2
22	22	3
66	66	4
15	15	5
56	56	2
76	76	1
81	81	4
113	114	1
141	141	6
116	117	1
65	66	1
77	77	4
124	125	2
42	43	2
124	124	2
82	109	1
135	135	2
3	3	2
7	116	2
87	87	5
54	54	1
35	35	1
100	100	1
133	136	1
121	122	4
55	55	4
105	105	1
47	47	1
112	115	1
41	43	2
23	30	2
126	129	1
33	33	4
119	123	1
147	148	1
92	93	1
53	69	1
128	128	1
21	48	2
74	74	2
121	123	2
39	63	1
152	152	2
6	6	2
127	127	1
151	152	1
78	78	2
126	127	2
65	65	2
75	75	1
154	154	1
7	62	2
80	81	4
39	41	1
5	5	4
30	30	2
77	78	1
37	37	2
9	9	1
98	99	1
144	144	1
128	129	1
79	86	1
106	106	1
11	11	1
33	36	1
103	104	2
43	51	1
14	15	1
104	105	1
