109	109	9
55	55	2
11	11	3
26	78	4
98	98	10
64	64	3
63	63	2
125	125	14
59	61	1
91	91	3
5	6	2
74	90	3
132	132	5
119	119	1
29	29	3
88	88	2
94	94	3
92	92	3
110	132	5
42	44	1
0	1	3
5	5	9
19	20	1
84	110	1
59	59	2
22	23	2
12	12	8
50	50	2
32	32	6
79	80	4
13	80	7
35	35	3
130	130	4
70	70	3
9	10	3
75	75	3
16	16	10
26	77	1
122	122	1
120	120	3
121	121	6
25	55	3
115	115	6
80	80	5
44	50	3
81	82	4
43	50	1
23	23	8
69	69	4
116	120	3
78	79	6
68	68	2
131	131	4
82	82	1
93	93	7
53	53	2
24	24	2
58	59	1
81	81	2
44	53	3
118	118	3
2	2	2
31	31	1
90	135	2
36	53	3
105	105	4
97	97	6
0	0	3
24	25	5
101	101	13
15	54	4
30	33	3
119	130	3
11	115	2
118	119	2
100	100	1
76	76	5
107	107	3
95	95	4
61	62	4
70	71	6
73	73	5
52	52	6
27	28	3
105	106	3
126	127	2
50	51	2
127	128	3
120	121	1
60	81	1
27	27	2
131	133	3
89	105	4
111	111	3
111	112	2
97	103	2
119	128	1
116	134	1
43	43	2
35	43	2
17	17	1
81	90	2
123	123	2
24	80	4
8	8	1
56	56	3
72	72	2
21	22	1
113	113	5
8	9	2
62	82	2
49	52	1
124	124	5
18	18	2
77	77	6
103	103	8
67	67	4
26	49	1
65	65	1
65	77	1
36	36	1
13	13	6
106	106	5
106	107	2
37	37	4
86	86	9
20	20	2
22	22	2
132	133	1
34	34	2
71	71	3
44	44	3
117	117	4
120	128	1
71	75	3
114	115	2
98	99	2
134	134	2
116	116	2
19	56	1
33	35	1
91	92	1
30	30	1
48	48	1
45	54	2
10	10	1
78	78	1
31	32	2
127	127	2
7	7	2
126	126	3
14	14	1
3	3	3
57	59	1
87	87	2
115	116	1
6	6	2
45	45	2
52	53	2
56	57	1
27	49	1
104	105	1
110	111	2
59	60	1
19	19	2
28	69	1
117	118	1
99	99	1
104	104	4
63	64	2
112	112	1
17	59	1
96	96	1
79	79	1
27	109	1
124	125	1
62	62	1
1	1	1
85	111	1
21	21	1
81	92	1
89	90	1
74	74	1
130	131	1
