158	158	3
85	85	7
48	48	11
73	74	7
47	47	14
29	40	2
28	28	3
100	101	3
33	47	3
84	84	9
111	111	6
19	19	6
60	60	4
10	10	2
186	186	3
156	157	3
74	74	6
113	113	10
37	37	3
83	83	9
26	26	7
128	165	4
157	157	9
8	8	15
158	160	3
2	2	9
103	180	3
23	24	6
4	4	4
122	122	13
133	135	4
143	143	4
120	120	4
39	39	7
90	90	5
34	34	8
105	105	9
139	139	8
1	1	7
80	80	3
96	110	3
87	88	4
55	56	7
163	164	5
179	189	1
149	164	4
154	155	2
172	172	2
116	116	3
33	33	7
180	180	2
57	57	10
171	173	2
131	134	4
138	141	3
89	89	5
119	183	2
45	45	8
77	78	1
100	100	3
114	151	3
166	166	3
28	29	3
63	77	7
149	149	1
119	119	6
66	77	1
6	7	3
93	122	4
117	118	4
179	179	3
115	116	5
81	81	1
76	76	9
41	42	7
8	25	2
185	187	3
178	178	6
59	63	3
174	176	3
67	67	5
65	66	3
123	123	7
160	160	1
95	96	5
79	79	8
40	48	1
42	43	1
24	25	3
95	95	2
0	0	7
154	154	3
127	135	4
164	167	12
40	41	1
36	36	6
23	25	1
66	66	10
183	183	4
78	78	4
61	64	4
18	23	3
151	151	4
140	140	11
158	175	2
102	102	3
134	134	5
58	58	3
132	132	1
16	17	1
35	35	8
86	86	9
82	82	7
72	86	4
59	59	3
134	135	2
141	141	12
165	165	10
77	77	5
110	110	7
182	182	6
153	153	1
180	181	2
150	150	2
71	71	7
136	136	2
22	22	3
171	172	4
2	3	2
149	150	5
135	135	6
28	30	1
99	99	6
42	42	2
16	24	3
142	142	3
109	109	1
101	101	7
183	184	2
101	102	4
4	6	7
14	14	10
59	61	3
72	72	3
25	26	1
94	94	1
16	16	1
139	140	6
87	92	3
23	23	1
15	17	1
104	104	2
54	54	1
173	173	3
144	145	5
112	112	3
97	99	1
4	5	1
114	114	5
145	145	4
185	186	2
54	55	3
2	83	1
169	170	2
169	169	1
71	84	2
177	177	10
20	20	13
168	169	3
55	57	6
159	159	5
127	128	1
58	63	3
5	5	3
13	134	2
155	172	5
53	55	1
25	36	4
41	41	8
27	29	2
53	53	3
40	40	7
19	20	5
148	148	6
129	129	3
66	69	1
155	166	2
87	87	3
128	128	6
18	24	3
26	35	2
119	120	1
75	78	4
1	4	5
184	185	2
153	154	2
125	126	2
159	179	4
128	129	6
63	66	1
96	99	1
156	156	2
152	152	2
96	96	4
170	170	4
122	124	1
38	38	8
184	184	2
75	75	2
21	22	7
138	142	1
71	82	1
121	121	2
39	41	1
94	108	2
188	188	2
76	78	1
148	149	1
166	167	1
24	24	3
108	108	2
17	17	5
8	127	1
123	124	2
104	106	1
85	90	1
159	160	1
81	83	1
110	114	1
125	151	2
56	56	7
83	84	2
10	14	1
189	189	5
123	145	1
3	3	2
67	75	2
146	147	3
125	152	2
36	139	2
13	13	2
67	68	7
185	185	5
127	127	3
132	133	1
74	75	2
96	98	1
171	171	1
174	177	1
106	107	1
176	178	1
68	69	1
17	24	2
123	144	3
124	124	1
105	158	1
30	31	3
155	155	1
143	145	2
91	91	2
105	123	1
144	144	1
161	161	1
147	150	2
97	97	1
19	27	2
105	106	2
104	159	1
141	142	2
63	63	1
25	25	3
71	80	3
19	22	1
123	151	1
174	174	1
32	47	3
62	65	2
182	183	2
81	139	1
157	161	1
16	40	1
29	39	1
26	32	1
11	12	1
167	167	1
103	103	1
161	162	1
27	28	1
177	188	1
35	36	1
189	190	1
130	131	1
188	190	1
176	177	2
19	43	1
31	41	1
177	180	2
91	108	1
117	123	1
156	158	2
154	156	1
123	158	1
115	115	1
42	44	1
70	70	2
21	21	1
155	171	1
109	110	1
163	163	1
13	15	1
