44	44	10
15	82	3
97	100	6
26	26	7
122	122	7
8	8	22
57	58	1
37	38	3
57	57	16
35	35	12
84	84	8
86	87	2
55	55	3
12	12	2
134	134	9
68	69	3
129	129	5
36	45	3
20	21	6
20	20	15
34	36	2
13	13	10
85	85	7
29	29	11
100	100	5
65	65	11
100	101	9
86	86	9
113	113	4
38	38	1
114	115	7
39	39	7
19	19	15
84	85	4
2	47	2
78	78	5
82	82	2
34	34	8
113	115	2
77	77	11
97	98	9
99	101	3
70	70	8
103	104	10
1	1	7
97	111	3
73	73	11
14	14	9
111	111	8
58	58	10
4	5	1
103	103	11
0	0	19
45	45	11
66	66	13
14	82	7
79	80	11
97	97	6
63	63	9
16	16	10
61	62	2
56	56	6
5	6	4
92	92	4
33	33	4
85	119	1
37	55	3
113	126	4
102	102	9
13	14	9
121	121	15
6	6	9
70	71	2
127	128	2
123	123	5
27	27	14
24	24	16
0	71	2
116	116	11
11	35	3
74	74	17
102	108	6
76	76	6
37	37	10
47	47	10
107	107	7
62	62	12
126	126	8
105	105	9
17	17	9
95	96	9
43	120	2
55	56	6
105	106	2
114	114	3
66	67	4
3	3	11
125	125	5
7	7	10
0	64	2
128	129	6
56	57	5
88	88	5
56	78	1
25	25	5
59	59	4
1	2	3
75	76	6
79	124	1
72	72	15
91	91	17
115	115	12
35	56	1
59	60	8
97	101	1
30	30	11
123	124	1
131	131	4
21	21	8
41	41	7
104	104	6
30	31	6
121	122	6
61	61	4
79	79	4
28	35	2
34	35	3
98	98	3
5	5	5
83	83	11
17	18	6
96	99	1
31	32	2
101	101	4
71	71	5
26	27	7
46	46	12
28	28	1
94	96	4
105	110	5
23	25	5
9	10	5
127	134	5
10	17	4
0	1	3
28	29	2
69	69	7
45	46	2
63	64	3
95	95	16
21	22	1
67	67	11
133	133	7
61	113	3
4	4	2
72	73	2
9	67	3
32	32	7
106	106	3
35	36	5
36	37	4
96	97	1
11	11	5
10	11	5
43	43	3
109	109	8
57	112	1
128	128	5
23	23	10
110	127	4
108	109	8
9	9	8
93	93	7
99	100	2
112	114	1
36	36	2
124	124	3
15	47	3
90	90	11
46	47	6
37	45	3
23	24	1
43	44	3
80	80	5
13	76	2
95	112	2
108	108	4
102	103	4
60	61	2
120	120	2
41	42	2
39	40	4
37	44	1
8	47	1
104	105	2
18	18	7
130	131	3
62	68	1
84	88	1
8	9	7
130	130	4
112	112	9
100	111	3
10	10	9
118	118	6
36	42	1
119	120	2
113	116	4
81	81	4
10	87	3
102	134	3
60	60	1
32	33	4
99	99	5
14	34	1
112	113	2
119	119	9
85	91	1
90	111	3
57	59	3
22	22	3
110	110	7
29	30	3
56	123	1
98	111	1
14	33	1
49	49	3
11	12	1
38	92	1
87	87	3
75	75	5
83	95	1
10	93	1
90	94	5
57	94	1
127	127	4
15	31	2
82	83	3
117	117	9
82	96	1
50	50	1
67	68	1
2	2	5
96	134	1
44	45	1
94	95	2
69	75	1
16	32	1
121	128	4
79	114	1
94	94	2
114	116	2
128	130	1
123	126	2
74	75	6
71	72	3
51	55	1
40	42	1
98	99	2
14	15	2
106	107	3
101	102	1
83	85	4
116	125	2
40	40	3
8	43	2
77	116	1
31	31	2
89	89	2
20	22	3
68	68	2
62	64	1
90	95	1
92	121	1
40	43	3
15	15	2
7	41	1
10	45	2
43	46	2
64	64	3
24	25	1
131	132	1
98	100	2
27	43	1
113	114	1
73	74	1
97	110	1
117	120	1
65	67	1
45	122	1
61	74	1
111	112	1
108	110	1
77	125	1
19	83	1
77	78	1
42	42	1
64	65	1
122	127	1
129	131	1
91	93	2
126	134	2
78	94	1
116	127	1
19	78	1
87	88	1
80	95	1
81	93	1
78	125	1
26	40	1
20	55	1
96	100	1
56	92	1
15	49	1
