103	103	7
57	57	4
92	92	14
49	49	10
82	82	9
76	76	2
30	30	6
90	91	1
77	93	2
5	53	4
113	113	6
17	18	1
121	121	13
114	114	8
102	103	10
75	91	1
32	33	1
46	47	2
87	88	3
14	15	2
123	123	17
126	130	3
73	73	6
81	81	4
45	45	9
129	130	5
4	51	1
43	43	2
110	111	4
15	15	6
10	11	4
69	69	3
111	114	4
34	34	3
71	102	1
102	102	7
126	126	5
52	52	6
71	71	4
94	94	14
22	22	9
48	128	3
109	109	9
89	89	9
48	48	6
47	47	10
7	7	5
2	2	6
2	3	6
106	106	11
31	131	2
14	14	5
78	86	3
13	13	11
40	42	10
52	64	1
24	24	6
0	133	1
72	75	1
128	130	5
65	65	5
95	95	6
124	124	10
62	62	12
51	54	2
54	54	2
2	12	3
65	66	2
40	41	2
33	47	6
8	8	8
25	26	3
4	4	11
85	86	2
51	51	6
79	126	3
79	83	3
19	20	3
131	131	5
53	53	12
107	107	2
31	32	3
117	117	6
104	104	4
21	22	3
96	96	8
93	123	1
45	94	3
85	85	9
16	18	2
41	70	2
120	121	8
27	29	2
113	117	2
82	84	2
42	70	1
111	112	2
86	86	11
54	56	1
119	120	4
4	50	1
119	119	5
10	10	2
60	60	6
51	52	7
132	132	3
91	92	6
50	50	12
39	42	2
9	10	1
124	125	3
20	20	3
70	70	1
77	77	8
56	56	11
5	5	6
112	120	2
87	87	4
28	28	4
9	9	5
112	112	4
129	129	4
38	38	8
66	67	4
12	30	5
71	104	2
29	30	3
56	59	5
80	80	6
44	45	3
0	106	1
68	71	1
125	125	4
16	16	8
105	106	5
93	93	5
85	126	1
66	66	4
42	42	2
51	109	1
80	81	2
91	91	5
55	59	2
33	33	7
41	42	1
66	68	5
67	67	7
6	6	5
3	50	1
99	99	7
75	75	9
105	105	10
93	94	1
1	1	8
44	46	4
57	58	1
12	82	5
73	82	1
74	98	2
79	79	4
82	83	1
58	58	5
27	30	2
48	49	3
3	3	9
12	12	4
23	23	6
27	31	1
133	133	2
101	101	7
95	96	1
12	73	6
46	46	2
118	120	3
127	128	1
80	101	1
8	9	1
28	30	1
92	94	1
31	125	1
115	115	3
31	31	2
73	74	1
61	61	4
52	55	2
127	127	1
15	125	1
76	123	2
51	105	1
11	15	4
88	89	3
59	61	1
39	39	2
83	83	7
79	80	4
72	74	3
97	103	1
43	44	2
11	12	3
101	110	3
101	102	2
11	13	1
110	117	3
37	47	2
61	67	1
112	113	3
74	74	4
113	115	1
110	110	6
59	59	4
31	42	2
113	114	3
5	127	2
0	0	6
123	124	2
30	31	1
14	20	1
125	126	2
42	54	1
18	18	5
60	67	2
8	10	1
97	97	2
98	105	2
118	118	2
10	23	1
118	119	1
40	63	1
115	116	1
62	65	3
71	97	2
64	64	2
84	84	2
130	132	1
54	96	2
19	19	3
13	15	1
78	78	4
73	81	2
76	93	3
44	44	2
42	43	3
75	76	1
98	98	4
99	101	2
118	124	1
30	32	1
83	84	4
78	79	3
74	126	3
56	57	3
29	29	1
43	87	3
0	1	1
26	26	6
109	121	1
48	58	1
45	92	2
112	114	3
12	13	2
126	131	1
33	46	1
46	128	1
76	96	1
70	72	1
27	27	2
5	6	2
16	125	2
70	71	1
77	92	2
29	43	1
24	28	2
38	44	1
5	133	1
74	97	2
111	115	1
3	4	4
11	11	4
67	68	2
68	68	3
63	64	1
5	52	1
25	27	3
55	67	3
127	131	1
120	120	3
21	21	4
82	127	1
130	130	3
53	54	1
8	24	2
72	72	1
94	96	1
100	100	1
60	63	1
116	117	1
103	128	1
7	124	2
9	24	1
128	129	1
52	53	2
45	58	2
58	59	2
100	101	2
73	84	3
90	90	1
43	71	1
72	73	1
28	29	1
111	111	1
14	131	1
99	102	2
2	4	2
99	100	1
40	40	1
24	25	1
26	27	1
55	55	2
82	126	1
74	75	1
72	81	1
45	46	1
46	56	1
128	128	2
76	77	1
132	133	1
47	130	1
108	108	2
92	93	1
63	63	1
13	23	1
39	58	1
118	127	1
71	85	1
55	56	1
