3	3	16
89	89	9
89	122	3
127	127	12
7	7	14
19	101	5
85	91	3
32	32	12
105	105	5
100	100	12
93	93	10
109	114	5
16	71	4
130	131	11
136	136	16
98	98	16
7	15	2
81	81	5
101	101	4
108	112	2
9	27	6
83	84	5
19	89	1
6	34	4
139	139	6
120	120	12
16	16	8
97	97	4
125	125	9
12	32	5
9	9	4
4	5	3
3	17	2
76	90	1
130	130	16
83	83	19
119	119	9
84	89	1
113	114	7
111	112	4
129	129	12
17	18	4
106	111	2
85	89	6
19	22	8
36	99	2
115	115	9
91	91	12
90	90	9
75	75	8
131	131	17
85	86	1
102	103	2
85	120	2
9	20	11
1	1	9
93	116	2
78	79	11
14	14	3
108	108	4
80	80	4
24	25	9
8	37	2
133	133	9
1	4	3
71	84	3
68	68	5
87	88	4
132	132	18
83	90	3
114	115	2
2	2	15
122	123	5
71	93	4
30	31	7
28	28	10
24	24	9
16	74	2
115	118	3
15	15	4
106	106	7
12	12	9
17	17	4
11	99	2
5	5	7
91	92	6
24	28	2
26	26	3
84	85	2
36	36	15
13	13	7
122	122	6
95	96	5
25	25	7
97	100	7
27	31	4
86	109	2
27	27	10
2	3	3
120	121	3
92	92	7
8	8	9
109	109	6
19	21	7
72	72	9
35	35	9
112	115	2
123	127	3
111	118	6
136	139	2
7	12	5
87	87	10
95	127	3
85	117	6
11	32	2
123	123	6
85	85	3
92	118	1
122	124	4
37	37	9
96	99	1
10	11	3
94	94	5
9	10	10
106	112	4
71	72	6
77	81	2
90	91	4
6	6	8
4	4	7
0	0	5
121	121	5
111	119	2
118	118	7
134	135	9
71	71	7
118	119	4
6	7	6
115	116	2
11	100	1
34	34	8
108	111	2
110	110	5
117	127	1
11	11	6
112	112	11
137	138	4
89	90	1
116	116	19
107	107	3
128	128	12
10	29	3
72	73	5
128	131	3
26	30	1
4	38	4
110	111	2
18	91	1
0	16	1
33	33	11
78	78	4
126	127	2
138	139	5
134	134	12
83	85	2
17	101	7
31	31	9
77	77	4
24	26	3
83	124	4
73	77	6
128	129	3
111	111	4
106	107	5
105	107	5
9	17	2
137	137	6
124	126	5
76	76	8
7	32	1
105	113	5
78	80	1
1	5	2
12	89	1
113	113	3
17	100	2
96	100	1
8	32	1
82	120	7
8	24	2
95	95	7
81	120	1
20	21	4
78	83	3
16	19	2
3	38	1
96	96	3
124	124	7
86	87	2
32	33	1
69	83	1
23	23	8
88	88	1
79	126	3
19	19	1
4	91	2
28	29	1
113	121	1
38	38	3
117	123	2
7	97	2
11	12	2
71	92	3
9	11	1
91	102	5
133	134	4
76	77	2
101	108	1
95	102	2
10	21	2
0	28	2
108	109	1
26	27	6
140	140	8
119	120	9
17	20	4
37	38	1
104	114	4
100	131	2
84	113	2
8	14	1
103	104	1
86	86	6
7	27	3
36	37	1
30	30	4
96	124	1
79	79	9
138	138	4
126	126	3
14	71	2
84	84	1
120	122	3
15	17	1
29	29	6
4	94	2
99	100	1
99	99	3
5	91	1
6	91	2
105	106	3
92	115	3
20	20	6
131	132	2
125	126	3
13	14	2
5	92	1
26	32	1
75	109	2
30	32	2
34	35	1
13	89	1
92	130	2
68	84	1
21	21	2
81	91	1
29	88	1
80	81	1
82	82	3
3	4	3
81	83	1
5	112	1
139	140	1
85	112	1
118	123	1
102	102	6
117	117	5
93	118	1
88	89	1
73	105	1
100	101	1
112	119	1
10	20	2
22	23	2
74	74	1
5	39	2
92	94	1
15	28	1
73	78	1
96	127	1
6	8	3
7	38	4
14	16	1
9	28	2
29	30	2
85	105	1
31	32	1
6	13	2
22	22	3
28	87	1
86	121	1
135	135	1
10	12	4
80	119	1
72	104	2
75	77	1
94	116	1
108	110	1
103	103	1
82	83	1
95	123	2
93	96	2
82	102	1
73	73	4
106	119	1
94	103	1
17	72	1
20	84	1
9	23	1
27	30	1
21	89	1
124	125	1
7	14	1
96	97	1
3	90	1
82	93	2
18	90	1
16	17	1
104	104	1
101	103	1
97	98	1
75	91	1
