118	118	2
25	25	6
16	16	7
111	111	5
134	134	3
81	82	5
74	74	11
12	12	9
29	39	2
30	30	7
128	128	4
22	39	1
77	95	4
34	80	2
29	42	1
0	0	8
124	124	4
109	124	2
35	35	4
68	69	7
19	20	4
11	33	1
103	106	1
62	63	5
63	63	10
12	14	4
7	29	3
45	45	10
77	78	5
65	66	3
36	36	5
114	133	2
2	2	13
73	73	7
44	44	5
42	42	14
47	47	5
8	8	8
55	55	4
79	79	11
20	34	3
99	103	1
113	113	4
48	49	5
22	22	19
6	6	9
11	11	14
66	66	5
74	75	1
57	58	4
3	3	3
33	33	6
75	75	7
84	84	9
126	126	1
94	94	6
43	83	5
109	109	2
34	34	6
109	113	1
19	44	3
61	61	7
76	76	12
78	78	8
121	121	4
4	41	5
34	35	1
17	17	9
131	132	1
117	117	7
58	83	2
38	38	3
64	64	9
68	122	3
65	65	2
108	127	1
35	36	2
133	134	2
1	1	2
70	70	8
14	14	4
25	31	2
131	131	6
32	32	3
98	100	2
85	85	2
36	38	1
26	26	2
0	1	1
104	104	5
68	68	16
23	23	8
84	134	4
18	36	2
24	24	4
31	31	4
130	133	1
114	114	3
57	57	7
40	47	1
85	93	2
71	72	2
24	25	3
82	82	11
102	104	5
9	10	4
90	90	6
120	120	2
71	129	1
43	43	1
18	18	5
39	39	18
28	28	4
62	62	9
7	27	4
99	105	3
125	125	8
87	91	4
79	88	1
7	105	2
93	94	4
41	41	4
55	57	4
78	93	1
121	122	1
108	108	1
17	18	1
3	4	4
97	103	2
19	31	1
22	42	3
6	24	4
70	76	1
130	131	3
96	96	2
25	41	1
103	104	2
69	126	1
107	107	4
82	83	1
16	17	4
95	95	5
87	88	1
69	69	1
113	114	2
115	115	1
97	97	2
51	51	1
66	67	3
23	24	4
132	132	3
15	15	6
116	116	1
71	73	1
2	8	2
10	11	1
84	90	2
71	118	1
72	72	7
14	45	4
40	40	5
112	112	3
10	10	6
100	105	1
4	5	1
60	60	2
39	40	1
80	80	4
79	85	1
37	37	4
80	87	1
5	15	1
114	132	3
100	101	2
112	127	4
58	58	4
103	103	2
15	40	1
4	40	1
17	84	3
15	16	3
71	119	3
5	5	1
79	80	7
102	102	4
13	14	1
27	44	3
81	81	1
44	77	2
16	28	1
113	128	1
50	55	1
56	56	6
46	46	3
12	19	1
86	134	1
30	38	1
14	42	2
9	9	4
22	49	1
104	129	1
22	47	2
7	7	3
20	20	6
29	37	1
19	26	2
124	125	2
8	35	2
88	88	1
41	48	1
105	105	7
22	28	1
71	71	2
110	110	3
10	44	1
92	92	2
99	99	2
84	93	1
129	133	1
26	31	2
72	118	1
108	130	2
61	74	3
56	58	2
59	59	2
21	21	1
57	59	1
4	42	1
35	38	1
129	130	2
49	49	1
67	67	2
41	42	1
31	36	1
41	43	2
98	99	1
26	43	2
83	83	3
29	29	3
109	110	2
18	46	1
86	87	1
91	91	1
41	50	1
54	54	2
26	45	1
6	7	1
5	11	1
7	30	1
22	36	1
41	49	1
129	129	1
71	126	1
108	128	2
29	30	1
119	119	1
27	45	2
78	79	2
127	130	1
27	39	2
28	42	1
71	117	1
102	103	1
84	86	1
69	108	1
107	111	1
70	71	1
30	37	1
14	21	1
54	58	1
130	130	1
