17	17	14
72	72	2
106	140	3
137	138	6
50	50	7
73	110	3
145	145	6
139	139	8
96	96	2
134	134	8
1	1	4
89	89	9
68	68	7
43	43	2
95	95	13
131	131	7
134	135	2
33	33	6
8	41	1
66	66	1
55	56	6
129	129	5
48	48	5
130	131	4
93	94	4
93	93	5
106	106	10
74	74	6
98	101	8
118	118	8
10	10	4
132	132	7
0	20	2
26	26	13
127	127	7
23	23	3
139	140	4
29	29	5
92	92	7
41	42	4
81	81	6
67	106	5
21	21	4
53	53	4
22	22	3
79	112	2
127	140	1
77	77	10
105	125	3
114	114	3
2	23	4
12	12	5
102	125	3
144	145	2
35	36	1
31	40	1
28	28	1
24	28	1
3	5	6
15	15	6
60	66	4
104	104	6
41	41	6
137	141	2
104	119	4
87	87	4
8	8	8
119	119	4
112	112	2
99	99	12
50	52	1
125	126	3
70	70	5
13	31	4
37	38	3
53	67	1
3	36	3
137	140	2
97	97	5
0	0	3
20	21	4
33	34	4
61	61	5
76	77	3
52	52	6
42	42	6
82	82	2
55	55	1
98	98	5
35	35	2
10	11	1
21	35	1
78	78	3
100	102	1
88	88	5
71	71	4
2	52	1
22	43	1
113	114	2
3	26	2
107	118	1
3	3	3
4	4	2
51	51	1
13	13	3
104	120	2
100	100	5
8	9	1
54	54	2
102	128	3
57	57	4
34	34	2
18	29	3
108	109	4
38	38	5
122	122	4
30	30	6
120	120	5
101	101	11
126	126	3
100	106	1
19	19	2
6	6	3
95	96	2
63	63	7
108	131	4
86	86	2
141	141	3
37	37	3
123	123	3
69	69	5
6	35	1
64	64	1
25	25	10
21	30	2
49	49	6
81	82	1
36	36	2
133	133	3
71	72	6
78	79	2
39	47	2
96	132	3
2	2	2
64	65	5
69	70	3
124	125	1
115	116	4
84	84	4
94	94	3
134	141	1
67	69	2
39	50	2
62	62	7
62	143	2
120	123	2
2	21	3
96	97	2
73	73	6
57	58	6
145	146	3
53	54	2
47	47	5
124	124	1
137	137	4
107	107	1
88	89	2
50	51	3
24	24	1
14	34	1
18	18	2
134	142	2
5	5	4
111	111	3
12	18	3
91	96	1
58	110	3
128	139	3
146	146	4
37	54	3
107	128	1
30	42	2
29	30	2
49	91	1
59	60	2
9	12	1
110	110	2
125	125	3
70	71	1
19	20	1
68	69	2
122	124	1
102	102	3
36	37	3
58	72	2
58	58	1
65	65	1
94	95	2
117	119	1
83	92	1
116	116	1
60	60	1
50	105	1
113	116	1
109	109	2
76	76	1
9	9	2
40	82	1
129	136	1
39	39	1
48	50	1
66	67	2
120	121	2
109	122	1
104	122	1
109	111	1
4	14	1
90	90	2
133	135	1
120	122	1
117	118	1
101	103	2
89	92	1
34	35	1
80	80	1
41	43	1
79	79	1
