68	68	5
93	93	2
75	75	2
2	2	2
13	13	8
10	10	5
48	53	2
67	67	2
29	29	6
70	71	1
3	67	1
144	145	2
54	55	2
111	153	5
3	3	10
46	62	3
34	54	2
128	128	3
126	126	3
87	87	9
71	71	3
32	32	4
145	145	11
17	37	4
22	44	5
141	141	2
106	109	2
111	111	4
19	31	1
36	37	4
12	12	5
110	111	2
156	156	3
35	35	5
106	106	5
64	151	2
43	43	1
144	144	3
136	137	7
106	107	3
11	39	2
116	116	2
73	79	3
100	100	1
16	34	5
44	45	2
39	39	3
21	21	3
95	95	3
1	42	1
121	121	4
11	11	1
139	139	3
15	36	1
142	142	2
53	54	2
131	131	5
69	70	4
1	44	3
37	37	3
77	79	2
144	150	2
133	145	5
139	140	5
98	98	4
73	99	4
134	149	3
130	130	1
56	67	1
8	9	3
11	20	2
134	134	3
104	105	1
104	156	4
50	54	3
113	113	3
99	99	6
102	130	4
138	138	7
97	129	4
9	9	3
103	157	1
112	153	2
63	134	1
65	65	1
27	66	1
103	103	4
56	56	3
23	40	3
148	148	2
24	27	1
97	97	4
16	18	4
93	127	1
119	120	1
73	74	4
11	14	1
52	53	3
87	98	4
72	72	2
28	28	2
119	119	4
85	85	1
75	134	3
154	154	4
93	154	1
91	152	1
30	30	3
0	55	3
130	131	4
27	27	1
135	148	1
20	33	1
31	51	1
15	30	2
129	130	1
93	155	3
76	77	1
57	88	3
133	151	1
33	33	3
70	70	1
90	157	3
123	123	5
84	138	1
22	22	3
91	127	3
77	77	4
40	40	2
94	94	2
73	73	1
118	118	1
91	156	2
30	69	3
155	156	1
112	112	1
66	66	1
79	100	1
153	153	3
124	124	1
86	86	3
34	50	4
144	147	1
55	67	2
55	89	1
24	25	1
114	121	1
86	140	1
85	131	1
18	40	1
20	20	1
90	156	1
117	117	2
120	121	1
115	115	5
17	18	2
92	127	3
21	39	3
44	69	2
23	28	2
53	53	2
113	117	1
99	103	1
135	135	1
102	132	2
38	38	1
42	42	2
64	65	1
89	89	1
68	71	2
63	149	1
5	27	1
114	114	3
105	105	1
8	8	2
109	109	1
14	14	1
114	115	1
37	38	1
50	51	2
87	88	2
113	114	1
46	46	2
15	53	4
134	148	4
145	147	1
84	84	1
77	131	2
29	41	1
82	103	2
90	128	1
106	116	2
5	5	1
0	0	2
82	82	1
20	40	1
157	157	1
123	124	1
9	23	1
117	119	1
51	52	2
68	69	1
30	48	1
15	15	1
141	142	1
1	47	1
104	104	1
129	129	1
147	147	1
50	50	1
143	151	2
143	143	2
127	127	1
97	104	1
31	32	1
80	80	1
4	4	1
65	66	1
