112	114	6
118	143	1
119	120	5
31	156	7
116	133	4
125	125	15
123	123	8
68	68	15
102	103	2
66	71	3
10	10	9
127	127	19
98	98	12
94	94	21
140	140	29
4	4	19
48	147	3
149	154	3
100	100	11
130	130	11
13	15	6
19	106	1
101	101	34
157	157	10
36	41	2
39	48	4
4	48	3
46	50	7
25	75	3
86	86	4
3	3	9
80	80	9
112	125	4
52	52	9
116	118	1
128	128	9
3	4	12
84	85	2
53	53	4
2	141	6
11	12	5
67	70	4
2	8	3
22	22	15
41	41	17
115	117	1
25	26	7
137	138	17
133	137	2
135	135	15
76	77	2
64	64	11
124	126	2
14	32	2
65	66	5
93	97	5
135	137	4
147	147	17
4	5	2
124	127	1
31	31	9
89	89	5
33	48	1
106	107	6
5	5	10
69	91	2
65	65	10
38	38	8
70	70	4
14	16	1
81	81	13
146	146	12
90	98	3
68	71	4
152	153	1
67	68	5
90	91	11
79	83	1
47	47	4
111	113	4
33	104	1
73	73	4
38	39	5
140	144	2
90	96	1
42	42	12
149	149	3
82	82	13
19	20	4
16	101	7
88	89	6
140	145	4
63	154	3
26	27	6
117	124	3
77	77	17
104	107	2
104	104	15
150	150	10
113	114	4
158	158	4
107	107	11
36	88	2
92	92	7
34	39	2
73	82	1
149	150	8
111	111	10
99	99	12
5	25	3
118	120	7
137	137	3
2	4	3
84	87	5
105	107	4
0	26	2
14	14	5
46	46	5
25	25	7
28	28	8
93	96	2
90	95	4
32	33	2
128	129	1
22	124	1
97	97	4
67	98	1
116	116	10
12	17	4
77	86	3
154	157	3
91	91	6
83	86	1
155	155	8
62	68	7
90	90	3
73	100	1
137	149	5
18	18	10
5	69	3
6	9	1
141	141	10
139	139	12
92	93	1
156	156	4
44	44	9
122	128	1
141	142	5
9	9	5
15	139	1
120	121	7
8	10	5
108	108	11
109	109	6
116	155	1
3	17	2
44	48	6
106	106	18
154	155	4
13	14	7
132	132	10
78	78	11
12	18	2
85	86	4
30	30	10
45	45	3
97	98	2
0	50	4
134	134	9
72	95	3
148	149	1
124	124	6
108	109	1
122	122	11
121	122	5
93	95	5
96	151	5
40	40	9
126	126	2
131	133	4
30	36	2
112	113	6
50	50	1
52	55	3
31	34	4
108	110	5
84	84	12
106	139	1
26	26	9
87	89	7
96	96	2
157	159	3
34	35	5
132	133	2
39	39	12
110	110	6
120	126	6
83	83	5
114	127	1
69	119	5
117	117	6
66	67	1
131	131	8
79	80	4
24	24	16
44	46	3
102	105	3
109	111	8
100	103	3
12	13	3
89	132	2
72	72	7
48	48	10
106	114	6
136	137	2
77	79	4
121	121	3
35	35	9
145	145	3
91	92	2
6	6	14
76	76	3
133	139	1
91	112	1
13	22	1
27	27	6
113	113	4
29	48	1
18	21	2
7	9	2
81	82	9
148	148	9
17	28	1
154	154	9
108	141	3
129	129	10
114	114	2
94	132	4
153	153	10
11	11	2
38	44	3
121	127	2
4	142	2
90	93	2
22	23	6
152	152	4
9	16	2
15	15	2
3	9	1
17	17	7
63	110	1
82	87	1
34	68	1
7	7	7
93	94	3
139	140	3
150	151	1
138	138	3
131	139	1
2	5	2
93	93	6
95	96	2
87	87	12
88	90	8
142	146	5
134	135	5
126	131	2
21	21	9
107	111	1
123	127	4
98	103	2
55	147	4
32	32	6
33	33	10
39	40	2
112	112	3
118	121	6
77	90	2
7	37	3
72	73	6
147	148	2
105	106	2
10	11	4
27	38	1
66	66	9
78	79	4
140	142	2
47	51	1
69	69	3
155	158	5
79	79	4
8	8	4
43	47	2
120	120	3
142	142	8
17	18	10
23	23	8
68	118	1
125	126	3
96	104	3
53	54	4
88	125	2
133	134	3
39	95	2
96	99	2
6	29	1
124	125	3
28	33	1
115	116	1
86	92	1
133	133	9
113	115	5
1	10	1
105	111	5
141	157	1
109	114	1
88	120	2
39	91	2
75	76	2
36	36	1
145	146	2
29	29	7
135	136	4
17	21	1
17	31	3
85	85	6
66	69	2
24	27	1
20	20	5
144	146	2
34	34	9
36	45	4
70	71	5
63	67	1
85	95	2
6	39	1
16	16	2
63	70	2
117	118	7
144	144	8
44	47	1
66	70	3
2	45	2
86	93	1
9	12	5
49	49	5
2	2	13
1	44	1
7	12	1
2	11	1
43	96	2
41	42	3
121	124	4
2	22	1
111	117	1
96	110	1
103	113	2
134	136	2
36	39	3
5	6	2
12	12	7
51	52	4
89	91	1
80	92	1
108	123	1
88	88	3
113	123	2
36	44	2
143	143	5
95	95	3
136	136	1
157	158	3
63	63	4
99	107	1
136	150	1
155	156	3
45	52	1
23	127	1
103	103	5
131	145	1
69	116	3
41	46	1
144	145	1
9	11	3
75	75	6
123	126	2
54	54	6
20	31	5
108	116	3
83	87	1
21	28	1
153	157	2
107	108	2
112	144	1
56	148	3
91	127	2
126	127	1
109	110	5
103	104	4
2	6	5
151	152	4
66	68	1
15	16	2
81	89	1
6	80	3
21	22	4
134	138	2
40	41	3
46	47	2
52	142	1
1	5	1
13	13	5
117	156	5
37	40	3
120	125	1
12	20	3
47	48	1
131	135	2
19	19	2
144	154	1
105	105	5
79	141	1
36	90	1
84	86	3
55	55	3
104	105	1
70	92	1
16	21	2
125	132	1
146	147	4
119	119	5
3	56	3
115	115	2
72	99	1
31	33	2
37	38	1
123	149	1
32	35	2
37	37	5
129	130	2
67	104	1
18	23	4
130	135	2
64	99	1
64	92	1
44	45	5
95	99	1
63	71	2
1	4	2
116	119	1
132	138	2
51	56	1
12	14	2
53	55	2
127	140	2
43	44	1
1	1	2
116	154	1
90	92	1
17	20	3
127	128	2
19	24	2
138	149	4
13	20	1
152	158	1
81	85	3
116	156	2
16	17	3
6	7	2
101	102	3
27	29	1
151	154	3
145	150	1
110	116	2
122	126	1
4	16	1
106	109	6
79	140	1
90	112	2
42	43	3
64	66	1
29	39	1
49	55	2
138	139	1
30	39	1
52	54	2
140	141	3
63	64	3
96	136	1
135	149	2
105	110	2
153	158	3
153	156	2
93	103	1
86	87	2
92	98	1
62	62	2
4	6	3
56	56	2
68	130	1
100	101	2
148	151	1
91	95	1
24	25	2
113	126	1
69	135	2
114	121	1
42	47	1
145	147	3
0	3	1
142	145	1
108	140	1
137	139	1
10	21	1
113	141	1
19	107	1
71	71	4
130	131	1
118	118	2
51	55	2
44	95	2
114	119	1
13	21	1
32	34	1
10	93	2
18	19	2
131	152	1
133	135	1
33	42	2
86	89	1
77	82	1
36	91	1
95	98	2
2	7	3
116	123	1
26	28	1
51	51	2
66	129	1
116	120	1
36	40	1
152	155	2
45	46	2
150	156	1
36	37	1
95	118	1
26	29	3
70	105	1
31	32	2
132	134	2
7	69	1
5	47	1
121	123	1
57	57	1
37	93	3
103	105	1
4	49	1
46	49	1
131	134	1
80	83	1
66	151	1
16	56	2
33	34	1
34	40	1
141	146	1
140	150	1
141	158	1
107	110	1
82	83	1
35	39	1
68	93	1
92	96	2
30	31	2
50	52	1
136	138	1
148	153	1
142	147	1
31	46	1
28	29	1
133	138	2
65	80	1
155	157	1
112	124	1
28	39	1
24	45	1
33	68	1
35	36	1
72	153	1
35	40	1
36	47	1
1	14	1
123	124	1
26	33	1
131	132	1
19	29	1
83	85	1
122	130	1
153	154	1
65	70	1
70	72	1
103	106	1
149	155	2
35	37	2
120	144	1
103	110	1
0	0	1
158	159	2
86	90	1
62	64	1
40	95	1
137	145	1
34	95	1
57	58	1
14	15	1
