111	112	6
70	70	7
28	28	5
58	76	5
57	57	3
104	104	5
52	52	2
98	98	2
50	50	6
71	72	3
74	75	1
66	66	3
19	19	10
99	131	1
54	123	2
32	43	6
78	79	3
11	11	1
33	42	7
89	90	2
73	73	2
126	129	1
26	26	2
111	111	4
72	72	3
30	30	8
42	43	2
97	98	2
44	44	4
124	124	10
131	131	1
100	100	3
31	31	1
12	12	7
19	20	1
58	77	2
49	49	7
2	2	1
43	59	3
58	58	5
16	17	1
39	39	7
8	9	2
23	23	3
132	132	1
5	93	3
53	53	3
77	77	1
120	120	4
24	24	4
69	69	6
48	48	5
67	68	2
56	133	3
32	32	4
13	13	1
95	120	4
105	105	6
130	130	4
107	107	4
6	6	5
126	126	1
110	110	5
63	63	2
1	1	5
102	126	2
73	78	2
54	55	2
94	94	2
112	112	6
69	78	1
39	58	1
81	81	3
49	50	2
99	99	2
118	118	2
57	76	2
15	15	5
105	120	2
117	117	7
68	117	1
33	40	1
122	122	5
116	116	2
42	42	1
90	90	3
70	77	1
20	20	3
81	84	1
113	114	1
93	93	1
0	0	3
106	106	2
21	21	2
46	47	1
93	112	3
10	11	3
85	86	2
69	70	3
70	72	4
26	28	1
60	80	3
56	56	5
45	45	3
4	4	3
3	3	2
61	62	6
48	49	2
109	109	5
63	64	1
59	60	2
46	46	2
94	107	2
0	1	3
95	95	2
43	54	1
100	101	1
115	117	2
89	89	3
112	113	1
94	95	4
80	80	5
54	54	1
25	25	1
126	128	2
115	115	1
86	86	2
125	125	2
51	51	2
101	101	4
18	18	6
45	73	2
82	84	3
38	39	1
29	29	4
67	67	2
86	88	4
121	122	1
90	91	4
68	69	2
9	9	4
32	33	2
27	27	3
71	71	2
88	89	1
95	107	1
62	62	1
53	124	2
14	14	1
82	82	4
16	16	3
41	43	2
65	66	2
43	44	1
84	84	2
0	5	1
34	44	2
7	32	3
53	123	1
1	2	1
97	97	1
6	7	1
121	121	2
114	114	4
8	8	1
108	112	1
47	47	1
60	61	2
99	130	2
102	128	1
69	113	1
25	26	3
71	92	2
4	75	1
17	89	1
102	102	1
12	19	1
5	5	1
113	113	2
54	124	1
124	132	1
46	48	1
6	57	1
43	43	1
88	88	2
65	65	1
4	78	1
132	133	1
15	16	1
75	75	1
81	88	1
59	61	1
123	123	1
59	76	1
5	6	1
79	79	1
76	76	1
106	120	1
95	108	1
7	8	1
6	47	2
78	78	1
14	16	1
57	94	1
96	131	1
109	111	1
59	59	1
