77	77	4
117	129	6
109	121	5
40	50	1
5	5	11
126	126	5
72	88	4
119	119	6
89	89	3
113	113	6
110	111	5
133	133	8
3	3	5
70	82	2
92	93	3
107	125	1
131	131	2
25	25	4
101	102	2
109	110	1
45	52	3
122	122	2
12	12	2
102	102	2
1	2	5
118	118	8
26	26	2
27	27	3
97	97	7
7	14	5
58	58	2
127	129	3
125	125	9
14	27	1
4	5	6
68	68	4
83	83	3
73	81	2
62	62	4
15	15	8
99	99	6
14	14	1
130	130	2
123	123	6
48	49	2
115	130	1
75	113	3
74	94	4
15	28	2
41	58	4
92	92	1
78	92	6
41	68	3
85	85	7
25	26	3
3	4	3
44	45	1
42	43	1
0	0	5
32	32	9
5	29	4
58	82	1
111	123	1
63	63	5
85	109	1
103	123	1
52	52	6
106	106	4
95	109	1
53	65	2
26	27	1
70	72	2
39	39	7
6	18	1
70	70	3
13	30	1
42	58	1
105	105	2
11	11	3
76	76	3
11	12	4
13	13	9
80	80	7
7	9	3
67	75	2
80	85	4
39	53	1
114	131	3
71	102	1
95	103	1
67	67	1
103	108	3
114	114	5
105	112	1
90	90	2
45	45	1
96	103	1
34	34	1
41	43	4
63	64	1
105	113	4
47	47	5
95	116	1
52	76	1
112	112	5
20	24	1
60	71	1
98	103	5
54	54	3
88	89	2
41	67	1
119	120	3
78	82	3
12	28	8
19	24	1
7	29	2
34	49	4
108	108	2
2	6	3
58	68	2
1	3	1
72	80	2
38	43	2
90	91	3
65	66	2
96	96	1
2	4	3
22	22	2
0	1	4
88	88	1
54	81	1
81	85	2
118	133	3
6	7	2
107	116	1
51	51	1
81	81	1
42	45	1
16	27	1
74	76	1
109	109	3
53	53	2
49	49	3
40	40	2
62	69	2
50	51	1
93	93	4
46	79	1
95	95	4
1	1	4
112	113	1
94	94	1
92	98	1
83	87	3
104	104	11
78	81	2
96	99	2
127	127	2
46	51	3
24	24	2
64	64	2
87	88	3
88	133	3
29	29	4
66	66	3
75	75	2
117	127	2
111	128	4
82	82	5
8	8	2
118	132	2
7	7	2
21	26	1
85	86	7
72	73	3
77	98	3
61	79	1
67	83	2
50	50	1
59	59	2
31	31	2
74	111	1
30	30	4
132	132	1
20	21	2
53	112	1
113	124	1
58	84	1
61	62	1
39	47	2
68	75	1
122	126	1
56	56	2
11	32	1
3	19	1
7	13	2
103	126	2
12	15	4
107	107	2
113	116	1
10	10	1
125	130	2
111	111	5
91	100	2
90	95	1
57	57	2
60	102	1
43	43	2
67	70	1
129	129	2
60	67	1
49	56	2
100	100	1
29	34	1
17	17	4
97	99	1
107	131	2
48	51	1
67	81	2
96	113	2
42	59	2
90	109	2
41	47	3
6	15	1
115	115	3
62	79	1
72	84	1
1	45	1
13	22	2
68	82	1
78	98	1
116	116	1
67	97	1
46	48	1
9	9	2
23	23	2
57	83	1
69	81	1
79	79	1
27	125	2
87	87	2
86	87	3
54	55	1
121	121	2
118	122	1
20	20	2
69	69	1
78	78	1
117	124	1
75	92	1
99	118	2
111	122	1
44	52	1
56	107	1
93	99	2
125	129	1
52	65	1
117	130	1
66	75	1
114	125	1
55	55	1
47	48	1
128	129	2
101	125	1
117	117	2
1	21	1
81	90	1
71	71	1
115	116	1
56	105	1
73	93	1
111	119	1
