9	11	3
59	64	7
91	91	6
88	90	3
37	39	7
29	32	2
66	66	2
5	5	3
12	43	3
125	125	8
43	43	5
26	131	5
92	95	2
60	60	5
100	100	3
82	83	3
90	90	6
9	29	2
81	86	3
122	124	1
14	21	1
77	124	3
128	128	4
36	36	3
119	119	5
79	79	7
51	98	1
105	114	5
131	131	1
79	85	5
72	72	8
22	41	3
76	120	2
37	40	6
35	35	4
60	64	6
110	111	3
12	12	4
62	62	7
6	8	3
28	28	1
100	101	4
25	25	3
66	68	3
65	66	2
1	1	2
59	59	2
45	125	3
121	123	2
88	88	1
74	126	4
31	49	1
64	64	2
92	110	4
31	31	3
47	47	6
94	94	3
72	82	2
17	17	6
77	120	1
67	67	4
74	75	1
11	11	6
134	134	2
46	46	4
83	83	3
103	103	3
109	114	3
45	45	4
121	134	2
25	26	4
27	41	2
129	129	2
70	70	4
120	122	1
7	24	2
46	47	3
78	78	3
10	10	9
104	104	11
57	97	1
77	77	2
104	111	1
36	124	3
39	39	3
48	48	1
78	131	4
84	85	1
58	120	1
13	13	3
76	76	4
69	69	2
22	23	1
9	31	1
98	106	3
74	76	3
104	108	1
15	17	1
58	58	5
34	34	5
15	19	3
78	116	2
24	27	1
6	11	2
16	16	5
109	115	1
63	119	2
17	37	2
64	66	1
87	98	1
19	19	4
26	31	1
90	110	1
106	115	2
77	107	1
98	98	3
36	37	2
56	56	3
62	63	1
19	20	3
22	22	3
123	123	4
59	65	3
88	91	1
48	132	1
82	119	1
62	77	2
63	117	1
67	68	1
3	6	1
5	24	2
3	3	3
89	92	1
111	111	1
27	27	2
126	126	7
41	41	1
87	110	2
104	115	2
82	82	1
23	28	1
34	35	2
44	44	2
115	116	2
105	105	1
42	42	2
14	14	2
93	111	2
101	101	1
120	134	1
80	88	1
107	107	1
19	29	2
127	127	3
94	95	1
73	119	1
55	55	3
28	29	3
96	96	3
20	20	1
106	114	1
37	37	1
2	2	2
57	134	1
112	112	3
3	45	1
24	49	2
79	80	1
65	65	5
26	78	3
122	134	1
92	92	1
35	134	1
5	8	1
63	63	3
106	106	1
73	73	4
110	116	1
57	107	1
117	117	1
43	44	1
56	77	1
26	48	2
24	25	1
103	124	2
22	42	2
123	124	1
69	70	1
110	110	2
23	23	3
26	132	1
126	127	2
102	102	1
97	97	1
109	110	1
23	24	1
130	130	1
36	38	1
130	133	2
79	86	1
28	130	1
78	122	1
93	94	1
61	65	1
45	127	1
114	114	1
15	15	1
104	105	1
57	57	1
62	64	1
6	6	1
