112	112	11
78	114	1
11	13	3
11	11	2
16	31	2
22	22	3
94	95	2
86	87	2
136	136	7
17	34	1
81	85	2
102	102	6
125	125	9
81	86	3
7	7	6
81	81	5
2	2	4
100	101	2
38	38	5
110	110	6
22	25	2
26	26	4
127	127	9
28	30	2
3	10	3
120	123	2
9	9	2
91	91	6
8	8	20
13	13	6
37	37	12
87	87	4
34	34	4
126	126	1
31	31	5
14	14	5
128	128	4
130	131	4
15	16	2
76	115	1
72	72	9
6	6	9
76	76	1
27	28	1
95	95	7
35	100	1
100	100	5
10	29	3
130	130	6
71	71	7
121	121	6
35	36	3
25	25	8
84	86	3
3	3	10
77	77	1
35	35	8
123	123	3
35	99	2
33	34	2
25	26	5
75	75	7
19	19	5
131	131	5
28	29	1
89	89	4
80	80	8
37	38	4
17	18	4
119	119	9
74	77	3
100	107	5
92	92	2
73	73	6
101	101	5
85	88	1
90	91	5
1	1	7
129	129	12
36	36	8
2	4	5
4	4	5
24	24	2
14	28	1
107	107	7
132	132	9
94	113	7
117	117	4
122	122	3
134	134	4
135	135	4
101	102	1
124	125	6
136	138	2
81	82	3
13	20	2
35	95	2
137	137	2
17	17	7
87	88	2
93	94	4
71	72	2
0	3	2
0	0	5
13	14	3
84	84	3
133	133	2
95	96	3
83	84	2
98	98	7
97	97	6
15	31	2
120	121	2
96	97	1
100	102	1
21	21	6
84	105	2
114	114	7
116	122	5
119	120	2
34	35	2
5	5	4
74	74	1
33	33	9
139	139	3
120	125	7
73	123	1
0	100	3
12	13	3
79	110	3
2	94	2
22	23	2
120	120	7
119	123	1
115	115	5
73	116	3
85	85	2
108	109	2
118	118	6
26	31	1
140	140	3
105	106	1
16	16	4
118	122	1
96	96	6
84	85	1
27	27	1
123	124	4
2	5	3
85	87	5
72	73	1
74	75	2
68	71	1
18	18	3
36	96	1
28	28	7
37	110	1
36	99	2
10	14	1
14	29	3
21	26	2
103	103	2
26	28	4
126	128	1
15	19	1
94	94	3
108	108	5
116	116	4
37	135	1
7	8	1
92	93	4
99	99	7
74	76	1
20	22	1
107	109	3
125	126	3
10	10	2
20	21	1
87	106	1
90	90	2
30	30	4
32	38	2
105	105	1
111	111	3
73	117	1
3	4	2
118	119	2
13	28	1
93	93	5
88	88	3
80	106	1
138	138	2
133	134	1
82	82	5
93	95	1
132	133	1
107	112	1
20	20	3
127	128	1
106	106	2
134	139	1
14	20	1
34	130	2
76	77	1
16	18	1
29	29	6
79	79	2
7	10	3
78	78	5
119	126	1
104	104	3
136	137	1
117	118	2
104	106	4
116	120	1
80	113	2
85	94	2
6	7	1
109	109	1
138	140	2
29	30	1
106	107	1
78	112	2
112	113	2
30	32	1
99	100	2
110	138	1
8	9	1
4	101	1
112	123	1
26	27	1
134	135	3
77	114	1
83	83	2
82	114	2
15	15	1
98	99	1
5	8	1
16	27	1
82	84	2
85	86	2
75	77	1
15	26	1
80	86	1
117	120	1
113	113	1
109	127	1
8	103	1
