99	102	5
26	26	5
159	159	4
39	39	1
137	139	1
150	153	5
74	74	8
18	25	7
112	114	2
24	24	3
98	98	4
103	103	1
8	8	1
141	165	1
119	120	1
166	170	4
117	121	3
37	46	2
124	124	8
97	97	7
32	32	2
122	122	1
5	36	1
149	150	1
54	54	3
28	125	2
168	168	7
129	144	4
118	118	2
35	35	3
59	59	3
119	133	2
119	119	3
130	130	2
5	5	4
91	97	1
83	92	1
114	122	1
125	158	3
96	96	2
153	153	3
176	176	3
169	169	2
153	157	2
130	133	1
4	136	2
91	92	3
64	71	2
107	107	7
51	51	3
155	155	1
14	41	3
40	41	2
111	111	3
143	143	2
82	82	2
1	114	2
23	130	2
94	94	1
92	92	2
101	101	1
15	41	1
55	55	3
11	19	2
156	158	1
102	102	1
170	170	3
38	40	2
36	38	3
15	145	3
115	115	1
172	173	3
16	17	2
2	98	4
103	105	1
53	101	2
112	131	2
14	14	5
137	137	1
65	65	2
164	164	2
32	37	1
93	93	3
109	109	2
145	148	2
11	30	1
156	157	1
16	104	3
61	61	4
35	71	1
104	168	2
55	56	2
20	44	2
27	27	1
85	85	2
106	152	2
108	109	2
16	25	2
117	117	3
124	159	1
66	67	1
33	34	4
121	121	3
165	165	1
41	41	1
59	137	4
29	36	2
73	73	3
179	180	2
141	141	3
24	26	2
18	18	4
29	29	5
15	36	3
169	171	1
7	8	2
172	174	2
145	175	4
78	79	1
18	19	2
63	65	1
40	143	1
165	166	2
150	151	1
72	73	3
31	129	1
72	100	1
54	60	2
143	148	1
31	36	2
171	172	1
124	149	3
84	84	2
35	38	1
168	171	2
23	23	3
12	17	1
42	43	1
156	161	4
127	127	1
62	62	1
32	130	2
12	142	2
166	171	2
59	63	1
80	81	2
29	30	2
15	134	1
36	36	2
25	25	1
123	160	3
36	135	1
147	147	1
175	176	3
37	37	3
131	144	1
20	20	2
73	101	1
99	99	1
161	161	3
89	92	1
15	15	1
154	157	2
38	128	2
81	81	1
11	11	1
125	125	1
115	116	1
123	127	1
134	134	4
41	96	1
72	97	1
53	65	1
144	144	1
86	89	2
167	167	6
60	60	2
50	97	1
115	118	1
151	154	2
125	126	1
49	55	1
58	63	2
21	37	1
92	93	1
1	1	1
21	36	3
56	56	4
174	174	1
42	44	1
52	53	2
152	152	1
44	44	2
140	142	1
41	97	2
78	78	3
140	141	1
62	63	2
50	51	2
88	91	1
86	86	1
112	112	1
153	154	1
166	166	1
14	132	1
18	20	2
3	3	2
138	138	2
107	108	1
79	132	1
58	59	1
102	103	2
102	170	1
0	114	1
60	61	1
9	58	1
67	67	2
43	44	1
179	179	3
167	169	2
9	20	1
3	136	1
12	12	1
147	148	2
104	104	3
57	101	2
115	137	1
59	111	1
118	147	1
79	79	1
21	21	1
110	110	1
167	168	3
30	30	1
19	19	1
127	128	1
64	89	2
163	163	1
64	64	1
38	130	1
62	101	1
117	120	1
74	87	1
135	135	1
162	163	1
73	94	1
112	133	1
120	124	1
146	146	1
73	74	1
76	76	1
136	178	1
