128	128	1
41	41	1
12	13	1
83	83	5
8	8	9
4	4	5
120	120	2
121	121	2
43	43	3
87	88	4
32	32	2
25	37	5
41	42	3
106	106	4
128	130	1
110	111	3
72	82	2
86	86	4
70	70	3
45	45	6
14	23	5
130	130	3
105	120	2
6	6	3
19	19	5
47	47	2
96	96	2
114	114	3
88	92	5
129	129	2
31	31	2
60	60	4
14	87	2
15	20	5
15	15	8
2	9	3
125	125	2
72	72	2
21	21	5
92	93	3
107	107	9
36	36	2
110	124	3
58	78	2
7	7	4
46	47	3
13	15	1
68	77	3
58	58	2
130	131	2
97	97	8
105	106	3
97	126	3
131	132	1
34	34	3
84	85	2
63	63	1
33	35	4
22	25	2
14	15	1
19	20	5
2	2	2
123	123	5
12	12	2
25	25	4
23	23	1
72	87	1
83	94	2
111	111	4
39	39	2
16	17	3
69	118	4
70	75	2
118	118	4
42	43	2
131	131	2
29	29	2
11	11	7
5	7	1
73	133	4
80	89	3
80	81	2
122	124	3
93	100	1
20	20	2
20	22	3
49	51	2
132	132	2
13	14	4
6	7	3
124	125	1
67	67	2
42	42	6
65	65	3
1	1	1
13	16	3
82	82	8
30	30	6
26	26	3
107	110	2
47	58	8
14	19	1
116	121	1
90	91	1
84	84	1
101	101	7
31	32	1
71	72	3
99	99	5
3	5	1
37	104	1
126	126	3
95	95	3
124	124	3
93	93	4
116	129	2
72	131	2
87	102	2
94	95	3
80	80	5
1	2	3
98	99	4
5	5	2
79	83	2
76	77	2
112	113	2
105	107	1
93	94	1
16	16	2
73	74	3
61	64	1
109	110	2
104	113	1
104	105	3
79	79	2
7	8	1
37	37	1
0	0	2
46	46	2
90	94	2
93	118	1
84	86	1
48	81	1
134	134	3
13	13	1
11	14	2
94	94	1
91	91	2
68	69	2
83	85	2
10	10	2
122	129	1
21	22	2
86	102	1
117	117	1
10	17	1
102	102	2
90	90	3
11	85	1
50	55	2
14	14	4
116	116	1
74	75	1
69	69	2
95	98	1
76	84	1
20	29	1
10	15	3
122	125	1
87	87	1
6	19	1
80	83	2
61	61	1
107	126	1
48	101	3
24	35	2
6	22	2
48	87	1
103	105	1
65	66	1
83	89	1
115	116	2
133	133	3
126	127	2
122	122	1
108	109	1
27	40	1
119	121	2
92	92	1
8	9	3
108	108	1
115	115	4
35	36	1
126	128	1
91	92	1
102	104	1
68	78	2
104	104	1
103	112	2
38	39	1
62	62	1
114	115	1
123	127	1
71	85	2
15	29	1
26	28	1
55	75	1
44	45	1
45	63	1
34	35	1
123	124	1
113	113	1
22	24	1
16	33	1
17	17	2
33	42	2
111	129	1
70	130	1
108	118	1
96	130	1
