4	4	7
142	143	5
52	52	3
41	55	2
35	35	8
46	46	9
113	113	9
65	66	3
88	89	2
138	138	5
100	105	1
40	40	2
85	92	3
53	56	2
82	82	6
57	57	8
18	18	4
56	56	12
40	53	4
26	26	3
75	99	2
137	137	7
85	85	8
107	107	2
134	134	4
149	149	13
97	97	9
36	36	7
128	136	5
1	1	8
16	16	3
156	156	8
96	99	4
123	123	10
130	131	2
11	12	2
74	75	2
25	26	3
48	48	9
74	77	1
48	50	3
38	38	8
153	153	9
32	32	4
49	49	13
13	15	2
147	147	1
69	71	2
0	0	4
71	71	3
103	134	2
57	86	1
106	106	3
169	169	1
27	27	9
1	19	3
14	14	4
7	79	1
104	104	12
105	105	8
116	116	4
84	84	3
116	117	4
162	162	4
138	143	2
70	70	4
116	118	2
45	45	3
19	20	4
50	50	6
1	2	2
151	157	5
150	150	5
94	94	5
90	97	7
88	155	3
91	96	1
73	73	9
155	155	10
22	23	6
87	87	6
76	107	3
79	79	2
63	63	11
146	146	6
105	106	5
126	126	3
45	46	4
121	126	1
129	151	2
72	72	1
93	127	3
124	124	5
84	86	2
22	22	2
81	83	2
110	110	2
24	24	4
9	9	3
130	152	4
131	132	3
139	139	8
34	34	2
42	42	4
44	44	6
50	51	3
143	143	5
76	84	5
71	88	3
6	9	4
117	117	7
96	109	2
11	11	2
16	76	2
37	37	8
99	119	3
44	89	3
26	47	1
100	101	4
152	152	2
131	131	6
74	76	4
132	135	4
118	121	2
57	62	2
66	96	1
7	7	3
3	4	3
13	13	3
44	45	3
24	26	4
80	80	2
166	166	5
112	144	1
96	130	3
134	135	3
99	99	2
108	108	4
23	49	3
47	47	7
123	133	1
118	118	5
109	110	3
139	144	1
90	90	7
51	51	3
10	10	5
74	74	7
1	4	1
63	64	4
63	79	4
8	11	3
150	155	3
17	18	3
151	152	1
2	2	3
163	163	3
164	164	13
10	11	1
69	69	4
136	136	4
161	162	3
77	77	3
115	124	1
20	22	1
64	109	5
132	132	8
67	68	1
66	69	1
45	55	3
81	82	3
8	8	2
161	165	4
51	54	2
159	159	7
111	111	3
69	70	1
20	20	1
91	116	3
41	41	4
163	167	2
25	49	2
149	155	2
43	43	1
110	111	2
92	92	1
21	52	2
39	73	5
90	141	3
100	100	5
118	136	3
5	5	2
46	52	3
16	17	3
127	154	3
4	5	3
6	12	1
16	39	1
138	139	3
170	170	3
148	148	3
155	157	1
103	104	1
23	50	2
62	107	1
21	26	1
146	147	4
15	16	3
25	25	6
135	136	5
67	67	4
114	114	3
137	159	2
161	161	8
117	118	1
79	81	2
107	108	1
165	165	1
102	121	1
83	84	2
85	86	1
149	154	1
70	79	2
78	80	3
22	25	4
18	19	3
91	97	1
19	19	3
12	21	3
69	79	1
77	87	2
2	6	1
0	3	1
115	116	1
28	28	3
120	137	1
17	17	1
68	69	2
78	78	2
133	133	1
144	144	1
91	106	2
6	6	1
130	130	2
136	170	1
9	13	2
137	155	1
147	148	1
65	65	2
101	101	1
3	3	2
38	93	2
103	103	2
91	91	2
40	55	1
145	145	1
95	95	2
80	87	1
132	133	2
62	62	2
23	23	5
70	87	1
118	119	1
73	76	4
152	170	2
8	9	1
112	112	2
128	129	1
92	93	1
102	103	1
86	86	1
58	72	1
38	40	3
12	19	2
151	154	1
9	14	1
39	48	1
126	137	1
124	126	1
121	121	3
93	93	1
110	114	1
125	125	1
63	65	1
152	154	1
77	78	1
84	95	2
156	157	1
83	83	1
129	129	4
42	43	4
166	167	1
128	128	1
78	79	1
164	165	2
5	6	1
90	98	1
158	158	1
85	95	1
168	168	1
54	55	1
43	44	1
54	54	1
98	99	2
114	115	2
164	167	1
157	158	1
21	21	2
15	15	2
3	26	1
119	155	1
112	122	1
154	154	1
82	90	2
115	123	1
64	98	1
154	155	1
64	64	1
79	80	1
66	68	1
58	62	2
