24	27	6
119	120	1
44	45	5
25	25	32
125	126	3
168	168	6
116	155	5
161	161	19
74	75	15
81	81	4
176	176	8
173	173	13
83	146	5
114	150	4
2	2	16
163	166	5
142	142	12
88	89	2
92	93	6
89	92	4
72	73	8
179	179	3
64	65	8
9	9	8
109	110	7
4	4	4
33	33	9
4	5	4
103	103	17
151	151	8
18	19	6
87	87	9
54	54	10
64	64	6
11	11	5
78	108	2
114	115	5
117	118	2
10	12	2
160	169	3
6	7	8
57	57	2
60	60	1
152	152	14
107	108	4
164	164	5
40	40	11
71	71	6
36	36	12
24	35	3
138	139	6
151	154	4
1	1	4
65	66	2
186	186	8
52	56	1
112	112	14
6	6	15
145	145	25
130	130	11
155	156	3
45	45	4
31	31	3
68	68	7
23	25	3
77	110	2
25	32	3
20	20	10
113	113	8
59	60	6
159	159	14
84	84	10
26	26	13
181	181	11
124	125	4
178	179	7
106	106	12
43	43	10
86	88	12
21	22	5
124	126	4
21	21	8
24	24	17
41	42	11
3	3	8
182	182	6
97	98	13
70	100	5
161	183	2
53	53	15
121	121	9
45	46	4
128	128	9
64	99	4
29	30	5
23	23	14
149	149	6
75	106	1
188	189	3
123	123	4
132	142	4
24	25	15
182	183	6
18	27	4
77	89	3
83	83	9
154	154	2
33	34	13
38	38	15
118	120	1
8	10	6
88	88	19
80	80	11
162	162	5
58	58	6
187	187	16
45	47	5
129	129	11
136	175	1
96	96	7
35	35	8
29	29	9
77	77	16
38	39	3
108	109	7
48	48	10
149	150	8
52	70	3
5	6	6
14	17	4
96	97	3
117	117	18
127	128	7
118	118	5
46	46	16
23	24	4
140	141	6
93	93	8
134	139	6
169	188	2
184	184	9
22	22	12
100	100	5
59	59	6
86	94	2
5	8	5
69	101	2
40	41	2
124	124	9
19	19	4
143	143	2
63	65	1
62	64	4
109	109	6
99	99	11
128	156	1
8	8	10
11	12	6
166	166	9
73	74	3
125	160	3
66	155	6
180	181	4
94	94	3
64	66	1
128	129	4
169	169	9
171	171	4
28	30	7
126	126	9
69	70	5
142	144	1
12	14	4
41	43	3
28	28	15
89	89	3
2	3	3
91	92	6
178	178	12
101	103	6
46	47	1
91	93	2
92	92	5
19	26	1
82	144	7
105	106	12
27	27	11
169	171	5
77	91	2
29	32	4
156	156	9
122	122	11
40	48	4
91	91	7
146	146	13
53	55	3
25	26	3
151	153	1
60	64	3
125	127	2
145	146	7
122	123	2
185	185	4
55	55	7
53	54	5
110	110	4
183	183	4
127	129	8
32	33	2
163	164	3
40	46	8
84	92	4
54	99	4
22	23	5
138	138	5
79	84	3
119	119	4
0	0	4
120	120	12
30	30	8
102	102	5
28	41	5
134	174	9
171	172	6
157	157	7
155	159	2
7	7	4
129	140	5
47	55	3
141	149	3
86	87	5
63	63	6
27	30	4
135	143	1
76	76	6
107	107	6
168	170	2
73	73	9
140	140	13
165	165	10
101	102	10
70	71	4
66	68	4
182	189	1
62	62	4
78	78	10
105	105	8
90	90	11
135	137	6
5	5	9
172	172	10
132	133	8
99	100	5
9	15	7
11	29	1
14	14	6
79	80	3
43	45	10
67	104	2
56	56	5
128	155	3
71	72	1
136	142	3
16	16	4
169	170	5
123	156	4
174	174	12
87	88	8
25	29	8
152	155	1
114	153	3
84	85	2
90	91	3
16	108	5
75	76	8
47	47	14
150	150	15
17	18	5
37	38	4
32	32	10
0	1	6
67	67	10
24	31	5
13	13	13
58	59	1
38	40	8
101	101	8
6	110	3
180	180	1
136	136	6
34	35	4
155	155	10
95	96	3
147	147	17
42	42	3
140	148	6
153	153	11
4	8	2
61	62	8
37	37	6
15	16	2
103	104	2
12	12	9
174	175	1
133	142	5
64	97	2
67	106	2
124	160	9
42	43	6
131	132	4
152	153	3
184	186	1
115	115	6
133	134	3
62	63	7
49	49	4
13	109	1
28	31	6
131	131	4
134	134	15
10	11	4
175	176	4
116	118	4
94	95	2
146	147	2
44	55	6
114	147	2
76	107	5
155	170	2
97	99	2
77	92	3
190	190	4
39	46	1
109	111	5
55	56	2
139	139	8
172	174	5
127	127	5
147	150	2
30	31	4
79	103	4
179	180	6
16	109	4
161	163	2
68	103	5
124	156	2
15	109	2
123	155	8
144	144	4
168	190	1
70	70	14
74	74	2
65	65	2
124	157	4
42	62	3
61	63	1
41	41	4
134	135	2
79	105	2
115	116	3
164	165	6
164	166	1
97	97	7
160	160	2
139	173	1
95	95	9
130	173	2
44	53	3
82	82	7
175	175	4
123	124	11
170	170	6
141	142	2
132	135	7
15	15	5
158	158	3
14	15	3
31	32	8
135	136	4
143	146	2
120	121	3
136	137	2
175	177	1
39	40	5
147	148	1
87	90	1
39	39	5
135	142	3
163	163	3
43	44	1
63	64	4
188	188	2
162	183	2
122	160	2
116	117	1
15	17	1
67	68	1
34	34	1
75	75	3
106	107	2
116	116	5
161	182	2
181	182	1
27	28	2
32	35	1
36	40	2
137	137	3
44	71	1
44	44	11
61	64	1
56	57	5
141	148	2
141	141	3
18	18	8
32	74	4
65	97	1
115	154	4
135	135	6
159	161	2
161	162	3
189	190	3
113	152	1
36	37	1
148	156	3
17	17	3
12	13	8
125	125	4
170	171	5
5	9	4
31	46	2
7	8	2
76	77	4
9	10	2
66	67	2
27	29	2
167	187	1
95	97	6
157	158	4
22	26	1
40	42	3
90	92	2
76	113	1
95	98	6
159	170	2
14	19	3
136	139	2
189	189	5
64	71	1
18	21	2
142	143	3
72	72	3
90	93	3
59	63	1
89	113	2
173	174	1
112	117	1
139	174	2
168	169	6
13	14	1
61	95	3
16	18	3
19	21	2
55	57	1
35	36	4
56	95	1
60	63	3
133	133	5
34	36	1
80	145	1
28	32	1
8	9	2
77	79	1
79	79	4
114	149	2
11	13	1
114	114	1
128	130	1
129	131	2
98	103	2
168	187	2
171	175	3
167	168	3
5	13	1
43	72	3
16	17	5
70	98	1
149	151	2
16	75	1
26	27	4
165	166	1
115	150	1
95	103	1
126	128	1
188	190	2
33	46	1
42	46	1
10	10	5
78	107	1
68	104	2
187	190	1
113	115	2
164	167	3
5	110	1
47	48	2
162	167	4
167	167	1
172	175	1
12	15	1
130	131	1
85	95	1
19	20	4
96	98	2
52	63	1
27	31	3
66	66	2
104	105	2
115	147	1
79	144	1
163	167	1
48	53	1
87	151	1
166	167	1
133	135	1
79	81	3
172	173	2
121	122	1
92	113	1
153	154	1
61	61	2
54	55	1
160	161	1
65	67	1
104	104	2
183	184	1
110	112	1
176	178	1
179	181	2
75	107	1
5	7	1
124	149	1
24	26	1
83	84	1
77	78	1
167	186	1
176	177	1
156	158	1
148	149	1
79	115	2
126	129	1
10	119	1
80	81	1
148	155	1
60	61	1
12	111	1
