201	201	1
206	234	2
125	125	5
50	50	9
6	80	1
184	187	6
211	213	4
241	241	6
176	176	6
216	217	2
210	210	5
73	73	8
1	1	5
32	32	9
230	231	2
99	99	5
18	36	2
57	126	2
14	14	3
65	67	3
160	160	4
6	21	5
53	53	5
63	99	3
162	224	4
15	15	2
10	12	1
239	239	3
204	242	7
18	19	5
14	21	3
39	39	5
223	224	1
163	211	3
18	18	3
9	9	7
221	221	5
33	33	13
16	231	1
205	205	4
25	128	1
156	156	1
120	121	3
37	38	6
43	43	5
172	172	6
54	54	6
224	224	3
102	102	4
117	124	3
174	174	13
70	70	1
37	37	10
217	217	6
62	63	3
229	229	5
127	127	3
215	216	6
149	150	4
19	19	4
174	183	2
56	118	2
235	235	9
12	12	3
128	128	14
2	2	5
144	144	8
66	67	8
212	212	7
238	240	3
234	234	7
175	179	2
75	75	1
67	67	1
16	222	1
22	22	1
153	207	1
39	53	4
225	226	1
126	126	2
130	130	1
141	141	4
150	150	6
79	79	3
17	17	2
23	89	1
113	113	1
104	107	6
186	200	3
148	148	4
78	104	7
222	222	2
65	65	6
232	232	11
208	208	3
146	146	5
217	218	2
158	159	2
142	142	1
55	139	4
13	15	2
228	228	7
144	147	2
82	95	2
52	212	3
101	102	2
156	157	3
157	157	5
29	29	2
194	194	4
190	190	1
135	136	6
56	117	2
10	10	1
12	81	2
164	164	5
197	197	2
7	7	4
107	113	1
118	126	3
123	123	4
41	42	2
36	37	2
69	69	1
231	231	3
25	25	5
164	168	1
31	109	2
36	36	5
204	204	1
183	183	2
211	211	1
135	135	5
208	211	2
120	128	2
152	152	7
45	45	7
77	78	1
146	147	9
223	225	2
16	16	5
39	105	2
34	69	1
165	166	3
179	179	6
77	77	2
218	218	1
236	236	3
95	132	2
113	117	3
47	47	3
83	83	3
194	195	3
232	238	2
82	82	2
169	169	7
76	76	2
117	117	3
215	215	6
20	79	1
106	106	4
187	187	6
164	205	1
161	161	2
72	72	4
108	109	3
24	120	4
85	85	6
116	117	1
106	204	1
170	170	4
55	138	1
177	177	9
2	4	3
239	241	1
112	140	3
106	107	5
240	240	6
30	30	5
56	56	3
197	198	4
171	171	3
58	58	1
78	78	4
209	222	3
167	167	2
173	173	3
98	99	1
206	206	4
136	228	1
208	229	1
219	219	2
85	86	1
28	28	1
198	225	1
26	27	2
203	203	3
9	78	1
179	180	3
25	102	2
163	163	2
123	169	1
13	84	4
153	154	1
6	79	5
38	38	3
165	165	2
81	81	1
238	238	2
56	123	4
170	192	4
44	44	6
184	185	1
191	191	2
52	213	3
21	21	4
48	48	1
120	120	1
66	66	1
83	124	2
23	59	1
233	233	1
104	234	1
218	219	3
156	205	4
158	236	1
49	50	1
134	134	1
189	189	5
173	177	1
1	41	1
105	107	1
27	27	1
4	4	2
32	33	3
104	193	3
96	96	1
106	206	2
118	118	1
108	108	3
212	213	3
24	68	1
187	188	1
143	177	1
18	239	3
199	199	4
133	133	3
44	45	3
109	109	3
149	149	3
10	11	1
61	61	3
99	100	1
158	158	1
157	158	3
5	5	2
153	158	1
34	34	3
60	60	5
198	198	3
119	119	1
40	133	3
111	111	2
83	103	1
210	212	1
207	207	3
164	167	1
68	86	3
24	24	1
41	41	2
107	199	1
74	74	1
3	20	1
13	83	1
17	18	1
115	115	2
137	137	1
193	194	3
104	204	1
8	18	1
107	107	2
211	218	1
199	200	3
151	151	3
224	225	2
59	59	2
223	223	1
55	55	1
179	187	1
218	236	2
114	130	2
73	74	1
23	29	2
168	201	2
7	80	2
31	107	1
37	77	2
104	135	1
186	187	1
97	97	3
108	189	1
45	131	1
182	186	1
166	166	1
182	208	1
225	225	1
198	201	1
45	134	1
111	177	2
129	129	1
23	126	1
5	16	1
5	7	2
65	68	2
207	208	1
40	155	1
184	184	1
114	114	1
64	64	2
52	52	1
46	70	1
134	175	1
165	205	1
34	37	1
171	172	1
61	62	1
29	31	1
175	183	1
223	240	1
204	205	2
199	224	1
217	236	1
106	109	1
156	207	2
154	166	1
232	233	1
140	140	1
220	223	1
62	62	1
20	231	1
