107	107	19
74	92	5
162	162	5
145	145	9
165	165	1
96	96	1
17	23	2
68	69	1
164	164	3
5	5	5
110	110	8
53	54	2
162	163	5
154	156	1
78	78	6
135	135	4
152	156	2
70	70	7
22	24	4
88	88	4
158	158	4
2	2	7
41	41	6
35	35	13
17	17	6
33	33	1
0	0	2
90	90	4
54	86	2
44	44	6
3	3	2
128	129	1
117	123	1
9	9	3
155	155	6
18	18	5
6	18	1
77	79	2
136	139	1
94	94	2
108	108	3
74	76	1
1	1	6
131	131	3
159	159	3
139	139	4
74	74	3
126	126	4
36	36	3
57	57	6
39	44	2
151	151	6
81	82	11
43	43	4
53	53	2
37	38	4
69	69	3
138	139	4
21	21	4
123	125	1
137	138	1
140	142	3
169	169	4
34	34	6
45	45	4
74	90	2
66	67	2
122	122	2
50	50	6
132	132	1
151	152	1
116	132	2
153	155	1
119	120	5
152	155	1
16	16	1
20	20	3
87	87	2
113	116	3
14	14	1
52	52	2
13	13	1
18	19	2
76	104	1
157	157	2
136	140	1
137	137	5
124	130	2
76	101	3
145	165	2
154	154	2
147	147	1
27	27	3
37	37	4
71	71	2
75	75	2
39	45	2
119	119	2
118	119	1
39	40	1
106	106	1
147	148	3
7	7	4
24	24	2
152	152	4
48	48	1
112	112	1
150	150	9
12	17	1
136	136	3
149	149	1
105	108	4
105	105	1
110	111	2
49	49	2
146	146	1
160	160	4
41	42	1
72	75	1
84	84	1
144	144	1
154	157	1
8	8	1
42	44	1
34	42	2
128	128	2
134	134	3
42	43	3
100	100	1
109	110	3
56	56	1
143	143	1
102	103	1
118	134	4
66	70	1
111	154	1
101	101	1
163	163	4
11	11	3
166	166	1
72	72	1
87	93	3
15	16	2
101	103	2
73	73	4
99	99	2
120	120	1
28	28	1
23	23	1
116	116	1
22	22	2
142	142	2
40	40	2
160	162	1
102	107	2
104	104	2
6	6	2
12	16	1
135	136	1
72	100	1
10	10	1
138	138	2
64	64	1
102	102	1
167	167	1
130	130	1
55	55	1
143	144	1
118	118	2
116	125	1
4	4	1
66	66	1
129	129	1
25	25	1
115	116	1
170	170	1
34	36	1
42	42	1
86	86	1
54	55	1
71	101	1
15	15	1
