126	126	4
107	107	2
102	103	3
87	88	1
13	14	1
75	75	5
11	36	1
45	45	6
9	88	1
71	71	2
39	81	4
113	127	3
16	16	6
40	81	2
43	43	2
48	72	3
123	123	3
59	59	4
37	38	4
5	9	1
99	100	2
57	57	1
84	84	5
76	77	4
21	21	4
126	127	2
98	98	2
55	55	6
122	122	4
111	111	3
42	42	4
82	82	3
84	85	4
123	131	1
91	91	10
29	32	4
41	41	2
106	106	7
15	16	4
23	23	9
70	112	2
9	9	2
12	17	2
38	38	2
115	115	2
39	39	7
34	34	5
27	42	1
74	74	4
67	67	8
97	98	1
11	12	3
27	28	2
56	101	1
109	127	1
77	84	1
127	127	7
111	121	4
100	103	1
66	66	4
15	15	12
128	128	5
105	105	6
44	45	2
18	18	3
39	97	5
77	92	1
12	20	1
125	130	3
112	112	19
134	134	7
124	124	4
20	20	8
121	121	1
50	50	1
133	133	4
7	42	3
117	120	4
81	106	2
21	22	2
62	98	3
19	19	4
78	83	2
5	6	2
2	2	4
85	85	4
26	26	2
19	40	3
83	83	5
13	40	1
124	127	1
109	110	1
59	112	3
94	102	2
94	94	5
78	78	6
64	64	9
63	63	7
70	70	5
37	37	5
3	3	3
77	77	9
58	98	1
8	8	5
118	118	2
80	80	3
92	92	6
83	92	1
23	26	3
28	28	4
56	56	2
103	133	2
111	112	2
119	119	4
11	11	3
80	101	2
82	83	2
27	27	1
7	7	7
129	129	2
14	14	7
103	103	4
25	25	1
11	34	2
38	43	1
22	25	3
35	36	1
12	12	3
87	91	1
18	43	2
73	95	3
116	121	3
31	57	1
90	90	6
18	84	2
2	4	2
20	21	3
29	36	2
0	0	4
29	30	4
124	131	1
44	44	2
61	61	2
108	108	8
93	93	1
47	101	2
101	102	3
71	80	3
93	94	4
104	105	3
12	34	1
132	132	6
46	46	2
101	133	2
36	36	1
94	123	1
61	62	2
81	87	2
0	131	2
19	20	1
85	122	1
87	87	3
29	29	1
100	100	1
95	95	2
84	118	3
4	5	3
17	17	10
81	81	4
26	32	1
110	110	3
57	126	4
58	58	4
73	83	2
101	101	3
22	22	6
85	113	1
102	102	4
30	30	3
116	129	2
14	17	1
105	107	3
131	131	1
36	39	1
75	76	3
83	122	2
77	116	2
35	35	3
130	130	8
4	4	1
6	22	3
48	66	2
36	38	1
0	48	4
26	31	1
120	125	4
91	94	2
116	116	3
40	40	2
81	86	1
56	71	1
40	41	3
4	9	1
62	62	2
68	68	3
102	104	2
114	115	1
55	115	1
48	94	2
73	75	1
58	121	2
70	116	1
45	134	3
6	7	1
54	55	3
109	109	9
73	128	1
21	36	2
62	111	1
69	69	2
102	129	1
120	120	2
42	43	1
120	129	2
89	89	1
24	24	4
76	76	2
10	27	1
24	26	1
99	99	5
13	13	4
47	47	2
116	128	2
125	125	1
18	34	2
110	114	1
6	42	1
16	35	1
58	104	1
26	29	2
12	35	1
33	33	1
13	48	2
10	10	1
7	87	1
101	134	1
8	9	2
101	127	2
76	114	1
110	113	1
31	31	4
112	114	1
27	29	1
70	124	2
20	97	1
17	46	1
60	62	1
104	104	1
12	94	2
123	127	2
4	15	1
24	25	1
60	60	2
68	129	1
107	108	1
26	41	2
72	80	2
118	122	3
56	105	1
55	132	1
113	113	1
18	79	1
69	121	2
77	99	2
112	126	1
105	134	1
107	109	1
28	68	2
21	26	2
45	46	2
130	131	1
122	127	1
48	48	3
110	128	2
9	10	2
35	83	2
30	41	1
65	74	1
109	111	1
80	104	1
97	97	1
80	81	2
84	90	1
37	79	1
65	65	1
117	125	2
78	79	1
106	116	1
114	127	1
37	98	1
97	105	1
6	6	1
110	111	1
16	24	1
130	133	1
37	39	1
131	132	2
10	11	1
88	88	1
99	128	3
31	32	1
108	123	1
18	42	1
44	73	1
107	134	1
32	32	1
27	133	1
5	13	1
67	124	1
108	130	1
36	37	1
107	115	1
44	78	1
57	123	1
60	110	1
