104	108	7
84	85	3
34	34	7
46	97	1
32	33	7
84	87	4
54	54	5
56	59	3
90	90	10
97	97	10
64	88	3
104	104	10
47	47	5
98	100	4
76	76	17
41	41	12
106	106	13
40	40	15
69	72	3
81	84	6
109	109	10
93	93	7
108	113	1
65	88	4
102	102	8
29	29	10
28	28	8
99	99	9
38	39	20
70	71	10
105	105	10
63	64	2
50	50	8
28	75	4
34	36	7
110	110	9
43	47	4
62	64	2
57	58	3
45	98	3
26	26	7
67	67	12
75	76	2
39	40	3
40	41	8
88	91	3
82	83	5
101	101	11
105	106	7
78	79	7
104	106	6
68	68	9
85	85	7
61	61	10
19	19	1
46	46	16
114	114	17
112	113	4
21	21	7
74	74	3
82	82	3
22	22	7
49	50	5
55	55	15
51	51	6
48	55	1
56	60	4
103	109	9
38	41	4
110	114	2
57	57	7
92	92	7
61	65	2
27	27	5
60	60	2
80	80	10
21	22	6
92	93	2
25	25	6
79	80	2
75	75	11
69	69	3
88	92	9
54	60	3
95	97	2
94	95	7
65	76	1
103	105	2
50	51	2
91	91	8
25	28	3
70	73	4
48	49	7
87	87	9
100	102	2
43	43	2
51	52	1
64	65	4
59	59	7
95	98	7
88	89	2
31	31	8
24	25	4
30	30	14
66	66	6
88	90	5
26	27	3
89	90	2
105	109	1
100	101	4
68	70	2
54	56	8
72	73	5
115	115	3
65	65	7
90	93	2
81	82	4
20	20	7
53	60	3
39	39	14
67	69	3
66	68	2
69	70	5
58	59	3
26	30	3
83	114	5
85	86	9
58	62	3
20	21	3
53	53	3
45	45	3
106	108	4
85	87	3
56	77	2
76	77	6
113	115	2
96	97	6
78	78	13
99	101	4
23	23	10
36	37	6
95	95	11
37	37	6
62	62	3
35	38	3
72	72	7
83	108	3
82	84	6
36	36	4
34	35	2
30	33	1
84	86	1
24	24	15
83	83	11
89	89	12
79	83	3
90	91	5
21	26	2
49	51	3
23	25	1
81	81	4
48	48	13
111	113	4
42	43	6
87	89	1
50	52	1
55	58	1
98	99	1
46	47	2
47	49	7
84	84	6
35	35	7
52	52	8
79	85	1
44	44	5
54	57	2
65	69	1
87	88	1
78	80	5
79	79	5
69	73	2
98	106	4
30	31	2
102	103	6
42	42	4
42	44	5
29	31	2
94	96	8
105	107	2
101	103	2
28	31	5
44	47	1
110	113	2
112	112	5
98	101	4
57	60	3
79	81	4
77	80	3
84	108	6
37	42	2
24	26	1
63	63	5
101	102	1
102	104	6
29	30	6
98	102	9
61	62	3
33	33	9
30	32	2
31	32	3
41	44	3
35	112	5
37	38	1
48	50	2
60	61	3
109	110	2
60	63	2
22	28	8
71	71	9
94	94	5
47	50	4
107	107	6
19	22	7
25	26	2
89	92	1
88	88	2
82	89	2
93	94	1
65	66	3
81	85	1
74	87	3
93	95	3
108	110	1
28	29	1
74	75	4
80	82	3
38	38	5
78	84	3
64	87	1
63	67	2
45	47	2
36	113	1
36	101	1
54	55	4
95	96	1
73	75	6
78	81	5
80	98	1
108	108	10
100	100	6
107	109	1
49	49	5
82	101	2
57	72	2
106	110	3
77	77	1
70	70	4
81	83	1
86	86	8
52	53	2
90	94	2
24	29	3
32	32	4
84	109	2
61	63	3
43	46	1
56	57	2
59	63	1
114	115	2
55	56	1
50	54	2
65	75	3
53	57	1
40	42	3
106	109	4
98	98	4
82	113	1
53	56	4
112	114	3
102	106	3
27	53	1
111	114	2
52	54	1
25	27	1
58	63	2
91	93	2
33	38	1
24	30	1
56	56	2
28	30	1
74	86	1
91	92	1
59	60	2
83	112	1
73	74	3
80	90	2
58	61	1
28	32	1
78	88	1
27	28	1
52	55	1
74	79	1
83	110	1
113	113	2
37	39	1
82	110	1
80	81	1
104	105	1
43	44	1
111	111	4
88	93	1
35	36	3
43	45	2
20	22	1
97	98	2
45	46	3
40	44	1
53	55	2
105	108	1
61	90	1
72	75	1
80	84	1
96	96	1
83	111	2
64	64	2
98	105	1
103	104	1
99	102	1
34	37	1
66	67	1
58	60	1
67	71	1
99	103	1
99	100	1
