152	152	2
187	188	14
10	10	3
18	28	6
173	173	11
77	95	10
17	21	5
61	61	11
53	53	10
19	20	7
79	79	4
115	115	15
94	95	3
120	120	11
181	183	7
26	26	9
105	132	4
177	177	10
86	86	16
130	130	10
109	109	8
72	73	12
184	185	3
79	112	7
108	121	3
27	29	5
166	166	4
73	73	13
171	172	3
122	122	14
12	22	2
57	57	7
126	128	1
97	97	13
114	114	13
56	56	10
91	93	2
136	149	2
40	41	1
43	43	8
156	158	2
165	165	8
124	125	6
62	63	4
11	12	2
63	63	4
7	7	17
142	142	5
75	75	9
131	134	4
56	79	2
104	105	4
7	8	6
155	156	4
36	37	6
77	79	4
0	0	7
113	113	9
170	171	5
82	82	9
107	107	8
140	140	11
159	159	16
15	15	7
139	159	8
90	90	5
38	38	15
70	70	10
179	180	5
146	146	6
159	160	10
110	110	11
188	188	12
180	180	7
161	161	14
133	135	3
47	77	5
106	106	7
60	60	16
82	83	5
158	158	6
148	148	8
164	164	14
18	18	9
159	183	2
5	5	13
37	37	4
150	150	8
85	85	7
30	30	9
8	8	6
90	91	6
87	87	6
80	80	11
37	38	1
178	182	3
127	154	4
63	64	9
163	163	13
89	89	13
155	159	1
131	131	7
29	29	4
128	128	3
157	162	5
99	99	10
47	47	9
13	13	11
48	48	9
76	76	7
43	46	5
71	72	2
12	12	5
104	123	3
132	132	12
46	46	5
141	141	3
75	127	2
5	26	1
1	1	9
47	65	2
2	2	14
103	103	3
42	42	5
107	120	1
85	87	2
183	183	11
84	85	9
20	20	5
73	120	1
78	78	7
36	87	3
182	182	8
155	155	7
124	130	5
78	79	5
152	183	2
22	22	14
54	62	2
59	59	3
115	122	5
139	139	12
55	55	14
67	67	5
116	116	10
172	172	13
171	171	12
27	27	23
6	7	5
24	24	13
104	104	16
6	6	20
33	53	2
137	137	10
178	178	7
25	29	2
10	12	6
114	122	6
95	99	3
34	35	12
185	185	13
136	136	8
101	101	3
66	66	5
86	96	2
78	82	3
32	32	9
90	152	2
111	162	4
58	59	2
1	6	2
4	5	6
100	101	1
68	75	2
171	174	2
33	33	2
8	71	2
94	94	7
125	126	1
45	45	6
31	31	6
52	80	3
58	58	9
121	122	10
30	31	7
135	135	8
54	54	12
160	166	2
149	149	8
181	181	3
190	190	6
150	151	3
39	39	7
81	91	1
21	21	4
176	176	9
15	17	7
99	100	2
156	156	8
34	36	4
119	120	2
92	92	10
147	147	4
36	38	4
19	19	14
53	55	2
143	148	2
189	190	5
179	179	7
27	28	4
119	119	6
14	18	14
181	182	2
140	141	2
31	33	3
66	67	3
182	183	2
129	129	10
56	80	2
176	177	2
138	138	11
181	184	2
154	154	8
88	88	9
175	175	4
136	138	3
33	34	4
41	41	11
113	114	3
124	161	1
83	84	1
83	85	3
96	96	6
52	54	2
101	102	3
79	91	3
62	62	3
44	44	13
100	100	6
16	26	6
84	141	5
108	108	12
161	172	3
188	189	8
118	118	4
99	102	2
16	17	5
128	154	1
30	36	6
15	24	1
75	76	4
79	81	2
38	39	2
21	22	3
174	175	3
102	128	4
55	71	2
29	31	1
65	67	7
143	143	9
107	111	2
133	134	3
34	34	9
117	117	3
186	186	20
163	164	3
155	160	1
70	71	5
64	64	4
110	112	3
174	174	9
84	89	3
45	47	3
127	127	7
11	23	1
12	28	1
90	148	1
55	58	4
168	168	6
70	121	3
91	92	2
8	55	3
161	167	1
160	160	8
162	163	2
35	35	4
77	77	3
108	109	7
128	129	4
111	111	9
145	145	3
150	178	1
157	173	2
151	151	2
175	176	3
79	93	4
20	45	4
68	68	12
69	72	1
75	103	1
114	127	1
139	160	1
135	139	2
125	125	5
3	5	6
144	144	7
156	160	1
119	173	2
123	123	3
149	150	2
60	61	4
71	117	1
14	14	6
87	88	4
73	74	1
14	17	2
17	19	1
57	61	1
91	91	2
84	84	11
55	61	2
40	40	12
154	156	1
124	124	5
155	161	2
90	139	4
167	167	6
98	98	7
12	19	1
136	137	1
62	97	3
49	72	3
25	25	3
6	55	1
143	145	2
100	133	1
32	33	7
131	178	3
57	59	1
144	145	1
105	105	1
7	9	1
152	153	4
102	127	3
105	161	2
170	170	3
86	140	2
23	24	1
138	152	1
59	147	1
149	155	4
24	25	8
19	43	3
93	93	9
115	118	4
3	85	1
157	158	3
130	133	1
136	150	3
34	43	5
160	174	3
185	186	2
36	36	3
61	63	3
28	28	6
167	168	4
61	98	1
170	173	1
97	98	8
19	29	1
11	11	6
137	138	3
48	73	2
100	131	3
77	81	3
88	89	1
121	121	5
116	118	1
34	45	3
23	23	5
120	169	2
56	57	3
10	13	2
94	98	1
171	173	3
96	97	4
187	190	4
124	126	2
17	17	1
102	106	4
21	24	2
154	184	2
7	60	2
32	34	2
103	105	1
45	46	2
81	81	5
68	89	2
14	27	1
112	112	6
61	64	1
23	43	4
99	118	1
117	121	1
146	148	4
80	92	4
18	19	3
92	149	1
122	169	1
79	135	2
90	92	2
111	112	5
184	184	6
72	72	4
176	187	3
71	71	7
129	187	3
136	148	2
10	23	2
47	101	3
30	34	1
155	158	1
166	189	1
107	123	1
21	23	1
102	102	5
157	157	5
156	173	4
90	153	1
141	150	1
31	32	1
85	92	1
160	162	3
12	13	1
3	4	5
183	184	3
163	168	2
3	3	5
147	188	2
17	41	1
80	81	2
62	64	3
93	146	1
54	56	2
97	108	1
70	72	2
126	126	1
144	190	4
16	16	4
11	13	1
114	116	2
162	167	3
10	11	1
95	95	4
106	162	1
142	144	2
74	74	6
28	29	1
60	64	4
123	160	2
105	106	1
79	94	1
15	16	7
142	143	3
67	75	1
32	36	1
123	124	1
12	52	1
74	80	1
124	129	2
59	60	1
117	118	3
106	108	1
0	1	1
134	134	2
102	103	1
79	80	1
0	6	2
150	155	1
114	117	1
79	90	1
15	18	1
74	122	3
11	44	2
68	69	1
160	168	1
41	56	1
177	178	2
100	103	2
150	156	3
88	145	1
52	52	2
67	70	1
169	169	1
126	129	3
57	58	1
146	154	1
161	162	2
95	155	1
168	169	1
109	110	2
166	167	1
161	166	3
135	151	1
116	117	2
138	139	4
152	180	1
173	175	2
26	38	1
112	131	1
14	35	1
83	83	1
96	102	1
188	190	2
35	36	1
95	119	1
26	27	1
77	78	1
113	115	1
145	147	1
166	168	2
13	27	1
63	65	1
53	54	1
138	159	1
146	147	1
89	119	1
77	141	1
108	122	1
148	149	2
117	119	1
120	121	1
2	6	1
16	18	2
56	78	2
137	139	1
84	139	1
109	112	1
180	181	1
30	37	2
109	155	1
47	48	1
127	128	1
187	187	1
42	43	1
107	109	1
48	55	1
93	116	1
156	161	1
21	52	2
181	188	2
1	4	1
4	39	1
58	60	1
55	73	1
16	42	1
172	177	1
79	92	1
