94	94	12
174	175	5
231	231	6
230	241	1
118	118	8
113	114	3
218	219	6
159	181	2
81	81	9
214	231	3
164	171	3
145	145	5
156	156	9
170	170	9
91	91	4
177	177	6
112	112	7
58	58	9
246	246	13
61	61	7
38	38	9
243	243	2
114	115	4
72	91	1
233	233	10
60	60	4
219	219	8
61	62	4
113	116	3
117	117	7
187	187	2
241	241	6
117	118	4
223	224	3
237	237	11
75	97	1
162	162	6
98	98	12
96	96	10
207	207	10
75	75	2
16	43	2
245	245	8
94	95	8
26	85	2
217	217	2
168	168	6
154	155	2
149	149	2
8	205	3
151	151	8
244	246	2
89	89	6
199	207	1
190	190	5
39	39	7
47	47	3
79	79	7
183	185	5
45	45	6
96	103	1
109	109	7
115	144	5
34	34	13
20	20	10
163	163	3
62	62	6
153	153	8
210	210	5
75	76	4
7	7	6
119	119	7
159	175	6
107	108	6
235	235	7
103	104	1
164	164	4
100	101	3
113	113	5
49	49	14
25	25	4
2	2	10
174	174	5
167	167	1
64	64	5
90	90	4
65	66	3
211	211	9
65	65	2
52	55	5
41	41	7
223	223	5
158	176	2
184	186	1
68	92	1
225	225	3
99	99	3
230	232	2
201	201	7
40	40	12
169	169	5
24	24	9
44	44	4
197	197	11
28	28	9
214	214	5
226	226	7
85	85	10
155	155	4
1	1	4
113	208	1
94	101	1
22	22	3
152	152	2
184	184	12
92	92	5
14	14	14
182	182	5
55	94	1
42	42	5
73	80	2
191	191	8
56	56	7
160	163	1
101	101	6
115	219	2
164	170	3
56	152	1
147	147	2
30	31	2
230	230	7
197	198	1
224	226	2
51	99	2
72	73	6
71	71	4
38	39	4
212	213	2
119	120	4
58	88	3
56	57	7
68	68	15
63	153	6
21	21	1
13	13	3
238	238	5
9	9	8
81	82	5
63	65	3
214	215	3
245	246	2
53	53	10
57	58	3
227	227	2
42	43	3
76	76	11
105	106	1
150	150	8
102	102	1
49	180	2
193	193	2
212	212	4
236	236	6
33	33	3
164	166	5
29	30	3
26	26	5
165	165	12
29	29	7
201	202	9
165	166	1
73	73	9
47	48	2
163	164	1
87	87	12
34	35	4
110	110	13
118	119	2
223	225	3
48	48	5
50	57	2
6	6	5
11	11	11
86	87	4
232	232	7
112	113	1
114	208	2
50	50	7
60	66	8
168	169	5
160	160	5
36	37	3
16	16	3
63	151	1
160	181	1
183	183	8
5	5	13
111	111	6
239	239	3
191	193	2
197	223	1
216	217	1
213	214	5
110	111	6
23	23	7
16	17	4
109	111	2
66	66	2
247	247	6
194	194	2
208	208	1
188	188	9
200	200	4
182	194	2
108	108	2
152	153	5
217	219	1
218	232	1
51	55	2
234	235	6
96	99	1
204	205	3
49	161	1
151	153	2
172	173	7
28	32	5
15	15	5
175	180	3
66	67	1
244	244	11
64	65	2
157	196	2
103	103	4
202	202	2
195	196	2
115	115	2
102	108	3
166	167	3
105	105	2
215	232	2
114	207	1
14	20	7
218	230	1
146	146	4
120	120	1
79	80	4
27	27	8
186	186	1
218	218	7
158	175	3
39	40	1
63	63	5
175	175	2
203	204	6
49	99	1
159	176	2
185	185	4
37	37	6
211	213	2
171	173	2
176	177	7
2	5	4
115	116	5
10	10	9
104	106	2
199	199	3
213	213	5
29	32	2
224	224	4
216	216	1
167	170	3
31	32	1
97	97	6
30	89	1
3	3	5
116	116	5
110	114	2
103	109	3
107	107	4
188	189	2
95	95	4
6	7	1
48	55	1
78	78	5
22	45	3
82	82	3
77	77	4
48	145	1
228	228	2
2	3	1
85	86	3
232	241	1
154	178	5
102	103	3
152	180	1
17	17	3
173	249	3
219	220	1
109	110	1
171	172	2
22	204	2
189	189	3
221	222	3
30	30	3
96	97	2
86	86	2
178	194	2
69	69	5
95	106	4
51	56	2
207	208	2
19	19	8
30	84	1
209	209	4
203	203	4
180	180	4
72	72	3
63	64	4
212	214	2
218	241	2
217	240	1
214	239	1
182	183	3
102	107	2
195	195	2
176	176	5
220	220	3
229	229	4
174	247	3
12	12	2
11	12	4
159	174	1
220	221	6
205	205	4
106	106	1
36	36	3
177	195	1
21	54	3
32	33	1
167	176	2
233	238	1
242	242	3
74	88	3
199	200	4
240	240	2
108	118	1
179	179	2
7	204	2
59	59	4
243	244	3
235	236	1
27	28	1
71	88	1
29	85	2
184	185	1
84	84	3
181	182	1
72	78	1
31	31	8
154	197	1
116	117	4
172	172	4
194	195	1
191	196	2
155	166	1
17	18	1
42	44	1
74	74	4
173	173	4
154	154	5
29	84	1
86	109	1
53	54	2
111	112	2
88	88	6
18	18	4
21	24	2
189	190	2
52	62	1
41	42	1
231	241	1
71	82	2
160	176	1
215	215	3
16	42	2
67	67	1
155	224	1
55	55	3
84	85	1
187	188	1
231	232	2
172	248	2
208	209	2
70	70	6
57	57	2
224	246	1
106	107	1
43	43	5
204	204	3
190	191	3
249	249	1
165	170	1
20	21	4
10	202	1
62	63	1
159	165	2
93	93	1
72	89	1
221	221	1
49	50	1
19	20	3
46	63	2
220	224	2
46	46	4
93	95	2
146	227	2
76	77	2
181	181	3
51	178	2
230	240	1
4	4	1
192	192	1
59	68	2
217	220	1
67	69	1
158	158	2
9	10	1
103	110	1
53	55	1
215	231	1
69	70	1
15	16	1
231	239	1
59	60	3
166	166	4
248	248	1
88	91	3
92	93	1
52	52	1
209	211	1
210	238	1
182	192	1
186	191	1
84	145	1
8	204	1
155	156	1
207	233	1
52	179	2
224	245	2
104	104	1
203	205	1
206	206	3
156	173	1
179	182	1
222	222	1
157	157	1
52	53	1
33	46	1
226	227	2
242	243	1
220	223	1
76	81	1
54	54	2
200	230	1
206	207	1
44	45	2
32	32	2
185	186	1
244	245	2
158	173	1
178	197	1
158	174	1
186	188	1
88	89	1
178	179	1
173	174	1
50	181	1
146	220	1
50	162	1
114	116	3
211	212	1
29	31	1
3	8	1
6	213	1
150	151	1
175	195	1
233	239	1
103	106	1
163	165	1
234	234	1
193	194	1
151	183	1
26	27	1
83	83	1
