76	77	11
11	11	7
26	38	6
44	46	2
1	2	14
11	12	9
19	19	8
46	55	1
9	9	3
27	31	1
9	10	4
49	55	2
39	40	4
65	66	4
41	51	4
38	42	9
40	43	2
50	50	6
49	49	1
70	77	4
65	73	4
32	36	1
68	70	4
22	22	3
22	23	4
54	54	3
32	32	5
36	40	3
35	41	2
52	52	6
19	21	1
59	60	5
35	35	9
74	75	2
65	65	7
49	53	6
64	70	1
9	12	1
41	46	2
38	38	6
3	27	1
64	76	1
18	19	1
12	12	7
41	41	4
51	53	3
2	31	1
62	64	10
61	68	1
39	39	9
50	56	1
35	38	9
40	51	3
3	12	8
46	50	2
73	76	1
66	76	5
71	73	10
13	14	4
4	5	2
2	2	12
6	10	2
57	58	5
31	33	3
73	74	1
57	67	2
68	69	6
5	6	3
24	25	4
0	0	10
54	55	4
32	35	2
24	24	3
60	61	6
50	58	1
72	77	7
25	36	4
68	75	2
1	4	5
4	7	5
49	56	2
24	27	7
38	44	3
55	55	8
43	43	2
2	3	6
27	27	13
52	56	9
3	9	8
62	66	2
1	26	1
23	29	1
28	30	4
6	11	6
51	55	5
29	34	6
44	44	7
23	25	6
3	14	1
32	34	5
43	45	12
48	57	2
34	41	2
50	51	1
4	12	3
0	7	7
56	56	3
54	62	2
38	43	2
39	41	1
14	14	4
72	72	11
7	20	2
53	61	2
35	39	3
60	60	5
73	77	2
10	10	4
54	58	3
49	50	7
12	13	10
31	46	2
48	48	9
77	77	10
26	26	4
31	34	8
1	3	2
39	60	2
54	69	1
7	10	1
67	75	1
34	35	2
36	47	4
25	31	2
28	31	2
0	6	2
6	6	11
62	68	1
10	11	2
33	40	3
7	7	7
68	68	6
46	46	3
29	30	6
8	11	3
59	59	11
47	49	1
69	69	7
49	59	1
71	72	3
55	58	1
54	57	2
7	9	6
51	64	3
53	60	1
49	57	1
67	68	6
51	54	2
57	60	1
68	72	1
53	63	1
39	43	5
52	57	3
45	45	7
24	34	1
60	63	2
3	7	1
72	73	9
32	33	2
40	46	3
56	59	4
42	43	10
61	61	2
34	36	3
50	55	1
44	45	2
5	11	1
4	4	3
45	55	1
47	48	2
58	63	2
59	64	5
21	22	6
47	50	1
6	7	2
73	73	2
45	51	3
50	53	2
58	69	1
63	63	3
57	57	3
23	24	7
61	64	1
66	71	2
62	62	2
1	10	5
42	42	1
57	68	1
37	48	1
57	59	1
22	35	2
40	40	5
59	61	4
18	18	1
23	33	1
28	38	1
29	33	3
68	71	1
62	65	1
53	53	2
20	24	2
39	46	3
4	10	3
0	1	6
40	50	1
67	67	2
8	14	1
59	63	3
63	73	1
47	54	1
26	28	2
56	60	2
66	67	5
47	47	6
25	30	1
75	75	1
45	46	2
62	69	2
30	30	3
2	20	1
51	52	2
25	25	5
48	58	1
34	42	1
62	63	3
52	53	2
0	3	3
33	36	1
71	77	2
54	60	2
36	36	3
31	32	2
36	41	2
39	45	1
44	50	2
36	44	3
34	40	1
71	75	3
3	26	3
65	75	3
23	26	1
76	76	1
37	38	1
6	12	1
28	32	1
9	11	3
40	42	3
29	29	1
0	2	2
21	25	1
20	21	2
24	26	1
54	67	1
0	10	2
24	35	2
43	50	1
33	38	1
56	57	1
18	21	1
68	73	1
64	64	1
74	76	3
22	34	3
56	62	1
20	26	1
31	35	2
24	28	2
22	27	1
41	43	1
29	35	1
44	55	1
35	36	1
6	8	2
3	5	1
64	71	1
67	69	4
62	67	2
67	71	1
55	59	1
64	72	1
64	67	1
3	3	1
45	57	1
74	74	1
23	27	1
33	34	2
37	46	1
7	8	4
74	77	2
8	18	1
64	73	1
46	57	1
75	77	1
58	60	1
31	45	1
73	75	1
57	62	2
48	53	1
37	37	1
46	48	1
2	6	1
34	34	2
25	28	1
31	37	1
61	67	1
66	69	1
53	59	1
7	19	2
51	51	1
35	37	1
23	31	1
9	13	1
20	20	1
2	13	1
58	59	1
8	12	1
