41	42	4
72	72	21
78	78	17
99	100	7
100	101	3
75	78	1
63	63	19
26	26	5
63	64	5
73	73	15
88	88	18
31	31	6
82	83	3
35	37	8
99	99	6
76	77	8
48	93	2
88	93	5
41	41	15
71	71	20
38	38	4
54	54	2
77	77	22
102	102	3
96	97	10
90	90	7
64	64	18
82	82	16
53	53	5
25	26	5
91	91	8
75	75	21
80	80	9
62	63	4
89	89	32
49	51	4
79	79	11
92	93	3
91	92	6
57	75	2
60	81	8
76	76	21
81	81	17
81	82	4
49	49	9
74	74	5
69	69	11
84	84	12
24	24	8
26	76	1
66	66	15
42	42	6
22	98	2
55	55	5
36	36	8
39	40	3
45	45	5
25	25	10
52	90	1
62	69	2
58	58	4
96	99	2
67	72	5
38	39	5
42	44	1
50	51	7
50	50	11
70	70	18
86	86	13
77	79	6
93	93	7
73	76	6
35	36	4
43	43	16
52	86	4
39	39	17
48	48	2
83	83	14
72	73	4
79	80	11
45	99	1
60	60	9
67	68	4
68	69	4
68	68	12
85	85	23
65	65	13
100	100	6
77	78	8
84	86	3
33	49	2
34	34	3
94	95	4
61	61	7
59	59	10
47	47	3
53	81	6
37	37	5
98	98	8
46	47	2
56	80	3
87	87	6
62	86	4
35	35	13
34	35	1
75	76	2
88	89	4
20	22	2
101	101	10
36	39	2
62	62	12
92	92	6
27	27	3
33	34	2
44	44	5
94	94	6
37	38	5
61	62	7
65	66	5
86	93	1
31	32	1
66	67	6
32	38	3
51	51	7
71	72	7
69	70	3
30	39	1
57	57	10
95	98	3
50	97	3
74	78	3
51	91	1
96	96	3
28	37	3
30	51	2
36	37	3
52	52	7
42	43	8
48	49	2
33	33	6
62	65	3
97	97	2
70	71	2
33	48	3
58	59	1
61	86	1
74	75	3
29	29	4
87	88	4
60	61	4
67	71	1
75	79	1
28	28	2
98	100	2
62	64	3
84	87	1
55	56	3
52	55	3
67	67	7
88	97	1
30	30	2
46	46	2
79	81	2
36	40	2
86	96	1
53	54	1
36	48	1
54	55	3
29	30	2
23	23	3
49	50	2
85	86	2
20	20	1
64	65	1
56	56	3
78	79	2
29	32	2
52	89	1
80	88	2
62	79	1
56	57	1
50	96	1
