107	107	10
60	79	2
10	10	8
88	103	4
100	117	4
77	84	1
48	58	4
58	62	2
70	105	1
93	124	1
9	30	1
93	97	5
24	24	9
36	36	12
5	34	2
87	87	6
121	121	2
25	25	6
4	24	2
90	90	3
16	32	5
13	117	2
93	112	3
66	66	2
7	8	4
58	75	2
37	43	2
130	130	9
109	129	1
103	103	3
131	131	3
47	48	3
102	104	4
107	131	2
32	34	1
34	44	1
115	115	4
28	28	1
112	112	5
4	4	2
37	55	1
134	134	1
117	117	4
1	1	4
68	83	3
12	12	2
120	120	7
85	85	8
48	48	8
15	15	9
42	63	3
108	133	1
14	14	3
111	114	7
80	83	1
11	11	5
16	16	5
125	132	4
93	93	5
76	99	1
27	30	3
42	47	2
79	79	2
75	79	1
106	115	2
65	65	5
126	127	1
46	46	4
127	134	2
72	91	4
58	84	2
47	47	3
16	29	2
74	77	1
63	63	3
32	45	3
72	72	3
92	92	3
126	126	8
105	106	6
66	79	2
68	84	4
61	61	3
70	70	11
69	69	7
44	44	5
78	78	2
72	130	4
104	123	2
75	84	1
93	100	3
15	27	3
110	112	2
50	54	1
33	33	4
6	6	1
83	83	4
39	39	2
121	129	2
111	111	4
68	94	3
91	100	3
98	112	3
69	85	1
73	76	3
18	18	1
71	71	3
21	37	3
56	56	2
3	6	1
109	109	6
74	80	1
86	90	1
123	123	4
106	123	1
73	90	2
115	132	1
133	133	8
99	105	1
107	132	5
87	99	1
21	22	1
121	123	3
82	97	5
71	75	1
68	68	6
114	130	4
77	100	2
58	61	1
13	35	4
60	60	1
55	55	1
73	73	4
32	33	4
106	124	2
17	19	2
132	132	10
34	34	3
106	106	6
122	122	4
43	43	5
69	76	6
29	30	3
8	8	1
29	43	1
82	82	3
70	102	2
104	104	2
7	7	4
41	51	1
91	103	4
128	130	2
118	118	3
81	92	2
124	127	1
12	26	1
119	130	3
98	129	1
89	89	2
89	103	1
94	94	1
82	83	2
19	19	3
92	99	3
64	85	2
100	105	1
58	63	3
10	13	2
7	10	1
68	99	2
3	126	4
42	44	2
96	111	2
111	113	2
33	40	1
44	48	3
123	126	2
21	21	1
101	101	3
98	98	5
57	57	3
28	29	3
21	41	1
58	76	1
1	2	2
88	99	2
62	62	4
122	127	3
76	79	3
28	31	2
34	35	1
70	71	2
131	133	1
113	113	3
32	67	1
113	130	2
23	64	2
22	26	2
101	104	2
88	108	3
22	22	2
82	96	2
16	30	2
40	46	2
69	82	2
87	100	2
1	24	1
11	16	2
31	31	4
57	61	1
121	134	1
11	36	1
37	37	2
81	96	2
107	108	1
97	110	1
38	40	4
17	30	6
107	124	1
35	121	5
59	59	1
94	116	1
14	34	2
106	113	1
18	48	1
13	14	2
28	39	1
8	112	1
104	110	1
22	28	1
32	32	1
69	81	1
73	80	1
30	36	1
108	123	1
11	20	1
96	98	2
35	35	1
84	84	1
22	40	2
81	82	2
77	78	2
10	18	1
123	125	1
95	128	1
95	95	1
6	13	2
6	31	2
1	6	1
29	33	4
107	130	1
32	73	1
81	97	1
90	96	1
16	19	2
116	117	1
72	88	2
83	92	1
7	26	1
85	92	3
8	63	2
98	100	1
56	59	2
58	88	1
109	131	1
129	129	1
93	96	1
34	47	2
109	133	1
96	96	1
96	110	1
115	129	1
39	45	1
73	74	1
107	112	1
38	38	2
133	134	1
69	92	3
80	80	1
91	105	2
68	78	1
68	73	1
81	110	1
6	23	1
25	26	1
91	101	1
73	78	2
66	70	2
51	51	1
107	123	1
111	117	1
129	130	1
114	117	1
105	134	2
115	116	1
114	127	2
12	23	2
111	122	2
77	79	1
3	125	2
114	114	1
11	27	1
74	92	1
67	84	1
20	20	2
6	12	1
15	32	2
9	10	1
57	59	1
29	38	1
130	132	1
25	39	1
20	28	1
124	126	2
20	26	1
39	56	1
9	31	1
65	83	1
32	35	1
70	83	1
42	43	1
13	13	1
59	60	1
111	125	1
97	97	1
117	119	1
