122	128	2
75	77	2
74	74	6
122	122	10
127	128	3
79	79	5
82	89	3
11	11	2
78	112	2
130	130	5
126	126	10
134	134	5
0	0	4
91	91	2
1	21	4
139	139	5
93	94	1
111	111	3
21	21	5
119	119	7
129	129	6
22	22	2
23	23	2
23	28	2
32	32	3
89	90	3
7	24	1
30	34	4
98	98	3
110	118	1
73	83	1
110	110	3
97	114	2
89	89	3
1	29	3
118	118	1
81	88	7
18	19	4
78	79	4
25	27	6
77	77	4
76	76	6
1	1	1
87	122	4
113	113	1
103	103	8
101	101	4
32	35	2
104	104	7
106	106	2
10	12	2
99	99	4
93	93	4
112	113	5
35	35	2
30	30	3
74	91	3
102	110	3
25	25	2
116	116	10
112	112	1
128	130	2
105	105	10
27	27	11
95	96	4
1	15	2
101	125	3
112	114	3
36	84	2
124	124	9
7	7	5
101	118	1
80	86	4
15	15	4
82	88	2
90	90	3
104	130	2
122	127	6
12	12	8
107	107	8
113	121	2
114	114	3
125	125	1
26	27	3
100	115	2
137	137	2
33	35	1
17	17	1
19	19	3
136	136	1
124	125	3
28	28	4
123	123	3
77	102	2
84	84	3
132	133	2
32	33	2
137	138	6
29	29	1
31	31	7
6	12	1
20	20	1
18	21	4
75	75	6
137	139	1
26	26	8
77	78	2
24	24	3
2	2	1
109	109	5
15	24	1
105	127	4
113	122	2
0	14	6
35	36	1
75	115	2
140	140	1
82	83	1
87	88	4
6	6	4
108	108	4
1	10	2
128	128	1
4	4	3
97	97	1
72	73	1
135	135	1
128	129	3
9	17	1
77	115	1
87	87	2
121	129	6
112	124	1
12	13	2
115	115	1
71	71	3
88	124	1
104	107	1
37	37	2
97	128	2
18	29	3
71	73	1
132	132	2
120	120	7
138	138	1
124	129	3
10	10	3
131	131	8
7	8	1
88	123	1
20	35	2
84	116	2
121	123	1
36	37	4
88	111	2
100	101	1
96	106	2
87	111	1
76	77	4
9	30	2
121	125	2
127	127	2
100	100	2
36	36	2
87	113	1
72	72	2
87	114	2
8	38	3
100	103	3
3	4	1
73	74	1
101	128	1
14	14	1
75	79	1
84	85	1
1	27	1
86	87	2
80	80	2
18	18	3
96	112	1
31	87	1
94	95	1
9	16	2
91	92	2
129	130	1
101	116	1
120	126	1
38	38	1
100	125	2
95	95	1
102	102	1
5	6	1
105	114	3
37	38	3
9	28	2
85	85	4
89	100	2
96	96	1
82	82	1
131	132	1
138	140	1
33	33	2
81	81	1
11	13	1
0	23	2
81	89	1
4	5	1
111	125	1
4	25	1
17	18	3
87	102	1
98	122	1
88	100	1
78	78	1
118	119	1
1	14	1
73	77	1
122	123	1
31	32	1
117	126	1
