28	28	6
50	50	5
14	14	10
10	11	3
34	35	3
143	143	6
63	63	6
46	68	6
114	114	10
146	147	7
47	47	4
123	123	8
21	21	4
138	138	3
18	19	2
31	31	14
42	42	10
9	9	5
70	70	6
139	139	1
124	124	11
95	95	6
108	111	1
99	99	8
52	52	7
152	152	4
69	107	1
22	22	7
129	129	8
107	107	9
110	110	4
131	132	6
29	94	8
49	49	10
41	41	5
84	92	2
17	17	4
30	30	5
45	46	2
147	147	5
136	145	5
92	97	1
137	145	4
153	153	3
3	5	2
54	54	1
115	116	1
90	90	6
84	94	2
5	5	5
122	126	2
7	7	1
18	39	1
122	122	1
34	34	4
87	87	3
142	142	6
144	144	4
75	75	4
69	73	2
27	27	5
66	66	6
135	135	4
83	84	2
102	102	4
67	67	4
117	120	5
139	148	4
77	79	3
1	1	7
20	21	2
140	140	5
96	96	1
104	106	9
8	22	3
89	89	6
113	114	1
8	8	6
16	16	10
33	33	3
106	106	7
24	24	3
118	118	5
13	13	9
84	84	13
131	131	9
87	88	1
44	44	5
51	51	3
128	128	9
154	154	4
93	93	8
18	55	3
1	2	3
156	156	5
50	51	3
38	38	4
68	68	2
25	25	3
26	26	1
134	135	3
98	98	5
115	121	2
5	6	1
137	138	3
141	141	3
24	25	4
85	85	5
125	126	6
137	137	1
81	81	3
72	72	5
154	158	2
120	120	5
135	140	2
136	136	2
40	40	5
54	56	1
153	154	1
148	148	3
69	69	1
37	42	4
74	81	1
116	116	1
135	137	4
31	32	6
92	92	3
79	80	2
77	77	3
80	81	10
44	46	1
150	150	7
75	89	1
2	2	5
36	71	5
103	103	2
18	41	2
75	79	2
35	50	1
46	46	4
14	20	2
139	149	3
92	93	2
119	119	2
103	114	3
90	92	1
35	35	3
45	62	4
30	31	3
106	108	4
79	79	3
86	86	5
149	150	1
8	21	1
112	112	4
2	25	3
53	61	1
153	156	1
125	125	1
113	113	2
20	20	1
87	90	3
134	137	2
117	118	1
10	10	3
142	143	5
19	19	4
23	23	3
75	123	2
99	100	1
143	145	3
80	80	1
48	48	3
111	111	2
68	71	1
105	112	2
81	82	2
75	76	1
39	40	1
96	98	1
114	120	2
133	138	1
6	35	4
134	138	1
117	119	1
54	55	1
40	41	1
63	111	1
36	45	2
134	159	2
53	53	1
148	155	1
79	82	2
70	105	1
61	62	2
6	8	1
4	4	3
73	73	2
22	23	1
107	110	2
154	155	1
64	64	1
32	32	1
49	68	4
124	125	2
45	45	2
88	88	4
6	7	1
132	132	3
69	105	1
10	18	1
155	155	1
94	94	3
14	15	1
121	122	1
45	105	1
66	99	3
104	114	1
130	130	2
20	55	2
133	133	2
114	115	1
51	53	1
39	56	1
52	53	1
29	29	2
138	144	1
17	19	1
20	22	1
101	101	1
41	42	2
148	154	2
8	9	1
122	150	2
48	95	1
108	108	1
91	91	2
67	70	1
13	43	1
0	0	1
100	100	1
82	82	1
119	121	1
88	89	1
71	71	1
12	12	1
18	18	1
51	56	1
