85	85	6
116	116	10
119	119	7
117	118	5
121	134	2
26	27	7
130	130	11
7	7	3
52	52	7
9	10	3
44	45	6
64	64	3
75	75	6
34	34	2
8	8	5
77	78	2
29	29	3
94	95	2
56	56	1
102	102	4
50	50	6
133	133	4
18	60	1
53	53	13
6	6	5
72	72	11
6	11	5
4	4	8
16	16	12
126	126	1
59	60	3
115	116	1
78	78	3
99	102	4
55	55	5
82	82	7
100	100	3
84	93	2
95	95	4
5	11	1
15	62	2
0	0	4
89	89	5
120	120	5
121	121	3
11	11	3
93	93	2
65	65	1
127	129	7
22	22	7
15	27	3
107	107	19
62	62	17
131	131	2
0	102	1
92	92	4
96	96	2
23	23	10
84	84	2
97	97	8
48	48	7
10	10	3
88	88	4
125	126	5
36	37	2
98	98	3
48	56	4
37	38	3
57	57	1
31	32	3
61	61	9
105	105	8
62	64	4
38	38	2
30	34	2
96	97	2
53	54	4
95	102	3
10	116	9
124	134	1
25	25	4
24	24	4
44	44	5
118	118	6
74	75	2
132	132	5
4	11	1
115	115	2
106	106	5
18	21	3
12	100	3
8	9	3
67	113	4
23	24	2
9	9	1
28	28	4
1	1	3
86	87	2
43	43	7
2	2	3
112	127	1
80	80	5
121	122	1
16	17	1
129	129	11
112	112	5
47	47	2
114	115	3
134	134	4
12	13	2
57	58	4
110	110	6
118	120	5
29	30	2
78	79	1
26	26	3
16	62	2
12	104	1
76	76	8
90	92	2
116	117	3
65	66	1
86	86	2
71	71	2
30	30	2
18	18	2
14	14	2
9	12	3
103	103	4
88	89	3
6	7	3
14	30	2
113	115	6
77	77	2
101	101	2
2	3	4
113	113	1
68	69	5
9	11	4
84	85	1
80	103	1
74	74	9
85	87	2
90	90	3
104	105	4
83	92	4
104	104	3
60	61	1
73	74	1
132	133	5
109	109	4
125	128	3
1	4	1
119	120	2
32	32	6
4	5	2
62	63	1
28	29	2
49	51	1
33	34	1
83	83	5
71	112	2
112	113	1
35	35	2
50	52	1
60	60	1
99	99	2
91	91	3
77	80	2
10	117	1
127	127	1
106	107	2
87	87	4
133	135	1
113	114	4
79	79	4
31	31	3
66	113	4
20	20	1
21	21	8
26	29	4
123	123	5
81	90	2
13	120	2
58	60	2
37	37	1
28	74	1
49	50	2
52	55	1
130	133	1
124	125	1
42	91	1
59	59	3
17	19	2
101	102	1
20	23	1
3	3	2
75	76	2
13	13	1
128	129	1
79	104	1
5	117	1
102	103	2
77	79	1
19	25	3
94	94	2
106	108	2
66	67	2
17	17	1
63	117	2
16	60	2
0	3	2
33	33	1
15	15	2
125	125	2
34	35	1
20	24	3
25	26	1
114	114	1
11	12	1
126	127	1
122	122	2
68	68	7
96	98	2
90	91	3
69	69	5
66	66	2
21	52	2
24	25	1
97	98	1
72	126	1
127	128	1
69	70	1
43	44	1
18	52	2
73	73	2
70	70	2
36	36	1
27	27	2
5	5	1
22	23	2
71	106	1
2	5	1
109	110	1
12	12	3
3	4	1
39	44	1
80	104	1
54	54	2
13	14	1
55	57	1
124	124	1
105	106	1
