27	28	1
77	77	7
35	36	7
82	82	7
105	106	3
57	57	10
40	42	2
109	115	3
89	89	7
68	68	1
103	105	1
100	100	5
179	179	5
23	82	3
185	185	8
7	8	2
60	60	6
116	117	1
61	62	6
99	99	5
1	67	2
126	126	9
114	114	5
103	103	12
175	175	14
25	25	3
22	22	8
5	5	8
54	55	5
63	63	11
120	120	3
66	66	4
168	168	10
145	149	2
144	144	5
59	59	6
64	64	15
4	4	6
147	152	3
180	180	7
133	138	3
141	183	3
18	69	4
133	134	2
65	65	3
123	124	4
162	162	4
197	197	4
51	182	2
29	29	3
112	112	4
156	156	8
160	160	7
33	33	10
7	7	6
17	17	5
170	171	2
158	158	2
19	19	4
94	95	2
78	78	8
47	47	9
143	143	9
164	164	2
106	107	2
45	45	9
48	49	2
102	103	6
85	85	3
122	123	5
124	125	4
132	132	10
34	34	9
104	105	2
52	56	4
3	3	3
118	138	2
74	74	12
90	90	1
166	166	5
103	107	2
159	159	8
102	181	1
99	103	1
105	177	1
54	54	1
130	130	2
179	180	2
107	107	5
26	26	5
71	71	5
80	80	12
62	63	7
20	21	5
58	89	4
195	195	3
150	150	3
32	33	2
195	196	4
76	76	1
50	50	3
117	117	1
102	102	6
187	188	6
48	50	1
187	187	5
98	98	3
98	99	4
38	40	1
150	153	4
2	2	6
98	103	5
47	48	7
67	68	5
61	110	2
122	125	4
3	6	2
24	24	2
63	68	4
113	197	1
19	20	1
43	43	4
172	172	10
131	132	3
70	70	10
8	9	4
152	154	5
173	174	5
6	6	3
112	146	2
106	118	4
78	80	2
1	1	15
144	194	3
73	73	6
87	87	2
62	64	1
79	79	2
62	62	6
110	110	7
130	159	3
98	102	3
20	20	13
101	101	2
111	111	6
177	181	1
140	194	2
116	118	1
144	145	1
174	174	2
60	149	2
14	31	2
100	159	3
130	131	3
2	8	2
18	18	4
73	74	2
106	181	1
163	164	2
21	22	2
2	7	3
167	167	4
15	15	6
105	105	4
55	55	1
121	130	1
129	129	4
41	41	7
189	189	6
6	59	3
128	128	6
117	130	2
30	31	3
191	191	5
8	16	4
89	195	2
118	118	2
145	145	1
110	142	2
119	119	2
181	181	2
0	0	8
55	65	3
148	148	3
104	107	2
165	165	6
86	86	2
63	79	1
103	104	3
74	77	4
16	16	4
149	154	3
56	141	4
154	154	6
177	177	4
52	125	1
8	37	2
75	75	5
146	148	2
41	42	4
103	106	1
46	46	4
124	128	4
67	67	4
65	69	2
8	39	2
145	146	2
73	77	2
36	36	6
141	149	3
176	178	3
16	39	2
127	129	2
6	7	5
143	172	1
58	58	2
67	80	1
168	172	3
127	127	4
117	119	2
171	171	5
76	77	4
161	161	4
142	142	12
97	97	1
57	58	1
48	48	8
51	51	4
154	157	2
35	35	2
169	169	8
138	138	7
64	65	4
65	71	2
118	181	4
1	6	1
23	23	3
132	133	2
112	113	2
147	148	2
165	166	4
148	150	3
182	182	1
81	82	2
27	27	2
84	84	3
42	42	3
147	159	3
59	78	1
106	106	9
116	116	4
28	28	4
63	65	1
16	37	2
17	36	1
145	161	5
56	56	2
159	160	4
148	149	6
121	132	4
8	15	4
67	76	1
151	151	1
44	44	2
143	145	1
146	147	2
0	29	3
173	173	5
101	159	2
53	54	1
95	95	2
69	69	5
104	104	4
121	121	2
194	194	7
78	79	1
155	158	1
77	78	2
109	110	1
45	46	1
141	150	2
75	76	1
53	53	2
32	32	8
57	79	4
107	181	5
58	77	2
5	6	1
113	113	3
29	31	6
189	191	1
106	177	1
59	63	1
113	114	2
2	78	4
148	154	2
62	80	3
15	41	1
118	119	2
69	72	3
34	36	7
190	190	5
11	15	1
171	172	1
140	140	3
102	119	2
8	8	2
109	109	3
51	125	1
63	64	1
23	24	2
64	79	4
136	136	5
193	194	3
153	166	1
170	170	1
115	115	5
10	24	1
31	31	1
114	186	1
156	157	1
4	7	2
149	149	5
57	71	1
12	33	1
21	21	2
162	164	1
152	153	1
73	81	1
71	72	2
62	73	1
109	111	2
0	7	1
43	44	1
149	159	1
30	30	3
87	88	1
167	169	1
161	163	1
161	162	3
14	33	1
193	193	2
143	162	1
173	178	1
50	52	1
39	39	2
61	63	1
0	6	1
103	160	2
190	195	2
93	93	1
155	155	1
180	182	1
157	157	1
20	22	1
46	126	2
65	79	3
72	72	3
178	178	2
185	186	2
110	111	1
96	96	3
146	173	3
176	177	1
99	101	3
44	45	2
122	122	2
17	64	3
54	95	1
146	146	3
55	184	1
16	51	2
123	125	1
29	88	1
138	180	1
83	83	2
76	78	2
164	175	2
52	52	1
123	123	1
196	196	2
1	78	1
135	135	1
113	187	1
0	30	1
183	183	2
29	83	1
20	81	1
94	183	1
119	160	1
133	133	2
29	30	1
172	176	2
107	108	1
9	10	2
117	118	1
176	176	1
61	61	1
191	192	1
84	85	1
16	85	2
142	143	2
71	85	2
72	73	1
27	29	1
64	69	1
77	79	1
106	192	2
101	130	1
10	14	1
116	160	1
103	163	1
18	70	1
50	56	1
