26	29	2
107	107	4
68	68	11
43	46	4
41	42	2
33	33	3
40	40	3
126	126	3
67	67	13
122	122	8
27	27	6
48	49	5
73	73	3
91	91	2
6	6	3
87	88	4
41	41	4
23	24	2
125	125	2
38	39	1
11	13	1
14	14	3
118	118	4
130	131	5
78	78	9
57	57	5
132	132	1
77	77	9
8	21	2
103	103	2
5	5	2
15	15	4
119	120	1
57	132	1
129	129	5
94	94	5
105	105	2
122	123	8
58	58	6
20	21	2
106	107	1
6	67	2
60	60	4
60	61	4
64	83	3
89	90	2
89	97	4
123	124	8
70	70	2
66	66	2
88	89	8
45	91	1
94	120	3
72	73	6
63	63	5
54	54	4
94	95	6
78	79	2
21	21	10
98	102	3
120	120	1
26	26	3
65	66	5
24	31	1
58	59	1
53	53	5
41	74	1
16	18	1
108	108	2
42	42	3
3	10	1
67	81	3
23	23	1
88	88	2
95	95	1
110	110	8
19	25	2
59	59	4
89	89	5
8	27	1
103	104	5
102	103	2
71	71	1
92	92	1
9	11	6
16	17	1
106	106	4
111	111	3
26	27	2
113	114	2
49	49	3
48	48	4
112	112	4
56	58	1
127	127	1
14	16	1
14	15	3
3	3	3
28	31	1
96	118	2
43	43	1
20	31	3
41	43	2
47	52	1
44	55	3
18	19	2
18	18	2
42	43	2
12	12	2
29	67	3
113	113	1
105	106	1
93	94	1
7	8	1
102	105	2
11	12	2
124	124	1
91	92	2
82	82	1
130	130	2
50	52	1
8	8	2
92	93	1
46	48	1
32	70	2
2	5	1
109	109	2
58	65	1
4	4	1
72	72	6
117	118	1
32	32	1
15	25	1
100	100	5
126	127	2
44	44	1
48	120	2
39	39	3
118	120	1
50	50	3
96	97	3
76	76	1
47	47	2
60	63	1
45	45	1
28	29	1
11	11	2
20	20	2
91	93	2
75	75	2
74	74	1
108	109	2
45	124	1
24	25	1
51	51	1
82	83	4
90	91	1
87	87	3
95	96	1
1	2	2
16	16	1
39	62	2
77	81	1
98	98	2
97	102	1
128	129	3
75	76	2
123	123	3
43	44	2
30	69	3
81	81	1
84	85	1
87	126	1
121	121	2
125	126	2
27	30	1
8	28	1
111	123	1
121	122	1
52	53	2
13	13	1
86	86	2
19	19	2
38	61	1
29	29	2
129	130	1
74	99	1
85	91	1
83	83	3
80	81	1
90	90	2
22	22	1
7	29	2
115	119	1
82	84	1
65	65	1
24	24	1
17	21	1
85	92	1
25	25	1
29	30	1
