129	129	11
22	31	5
112	113	4
109	109	26
136	144	2
148	148	21
50	50	11
80	80	16
118	118	13
54	55	5
29	29	15
38	38	14
105	127	3
19	19	20
8	8	14
30	30	18
112	112	15
138	138	15
97	97	11
132	134	3
4	5	9
2	68	1
11	11	23
20	20	12
48	48	20
36	36	10
143	143	7
126	126	14
108	108	16
142	142	18
106	106	16
41	41	14
23	23	21
14	14	15
47	47	15
32	32	9
34	34	15
111	111	25
111	113	5
101	101	9
79	80	8
45	45	20
132	132	36
83	84	2
62	62	4
107	110	1
49	49	9
35	35	18
75	75	12
83	83	27
49	53	2
17	18	8
63	63	11
55	55	11
121	121	17
42	42	32
114	114	20
97	98	5
18	18	27
139	139	24
85	86	9
22	25	1
118	149	3
74	74	8
147	147	21
135	135	19
12	13	11
83	85	3
103	103	8
81	81	20
44	44	20
27	28	12
54	54	14
154	154	11
17	17	16
55	104	2
150	150	25
117	117	9
5	6	8
107	107	9
40	40	11
131	131	12
136	136	22
117	119	2
9	9	18
119	119	17
56	57	5
85	85	18
86	86	10
89	89	3
36	37	5
91	92	5
22	22	20
46	46	14
67	67	11
27	29	10
92	92	9
93	93	17
141	141	11
13	13	33
76	76	12
126	127	10
113	114	4
15	15	18
140	140	12
152	152	18
8	9	5
24	24	13
129	131	3
117	125	1
26	26	21
110	118	3
93	94	13
110	110	17
67	68	5
144	144	21
3	3	12
78	78	24
21	21	18
72	72	9
3	30	1
79	79	15
14	18	1
127	128	9
76	77	9
32	33	3
122	123	4
113	113	28
94	95	9
131	132	6
65	82	2
115	116	10
13	14	8
79	81	2
71	72	6
68	68	15
23	24	7
43	44	9
123	123	11
38	108	3
6	44	5
64	64	13
139	141	3
68	69	11
149	150	11
82	82	12
84	84	12
128	128	14
96	100	3
43	43	23
133	133	9
51	51	11
39	39	19
31	36	1
71	71	15
22	23	10
15	16	9
28	29	9
97	100	6
37	37	13
93	95	1
80	81	3
34	35	7
10	11	6
11	105	6
145	145	19
53	53	10
149	149	15
20	22	3
105	105	15
69	69	15
132	133	7
33	33	16
107	108	4
57	57	15
121	122	12
146	146	11
73	143	2
75	83	1
126	129	2
115	128	2
71	73	2
141	142	18
128	129	4
5	8	6
56	56	20
8	33	2
102	103	1
31	32	3
87	87	15
35	36	7
114	116	3
16	16	17
103	130	3
17	103	4
128	145	2
104	113	4
6	23	1
47	53	3
109	110	8
145	146	6
14	15	10
124	124	11
151	151	13
4	4	10
10	10	15
130	131	5
63	118	1
23	25	2
79	128	1
16	18	3
123	124	3
96	96	18
2	23	3
122	122	20
6	6	14
135	136	4
65	65	5
87	104	2
134	134	13
72	130	8
7	9	3
104	128	4
87	88	6
109	113	1
147	149	2
115	115	18
140	141	3
71	128	1
5	35	2
8	21	3
108	109	9
99	99	11
24	25	10
47	65	3
63	104	5
63	90	10
66	85	2
139	140	13
104	104	18
33	34	2
27	27	10
146	149	6
47	64	2
106	107	12
144	145	4
6	9	1
3	5	4
87	106	1
117	118	4
153	153	14
79	82	1
102	102	15
66	66	13
70	70	11
120	121	5
109	131	1
25	26	9
108	116	9
14	17	5
9	106	1
41	43	5
127	127	5
103	114	1
81	93	1
72	142	3
113	117	1
80	82	4
150	151	5
31	31	10
84	86	5
106	108	3
95	95	5
43	45	3
41	51	1
21	25	5
98	98	10
16	17	8
3	42	5
4	7	3
77	127	1
21	22	6
129	130	2
92	104	2
12	12	16
13	20	3
39	43	1
9	10	5
58	63	1
65	66	5
94	94	13
92	93	2
5	23	2
13	21	1
126	145	4
125	125	14
4	43	2
75	79	2
77	78	8
85	128	3
54	104	6
95	100	4
30	32	2
114	119	1
41	42	5
87	127	2
147	148	3
48	50	1
95	96	4
146	148	2
81	103	6
119	120	5
11	12	6
130	133	1
83	86	2
37	38	7
77	77	8
147	151	2
90	90	5
142	144	2
120	120	3
47	52	2
64	81	2
61	107	3
48	65	1
12	14	4
75	76	1
83	87	2
38	39	5
54	82	1
53	54	6
4	6	3
54	58	3
73	73	10
105	106	3
5	5	3
110	111	9
98	99	3
6	7	6
66	130	2
7	7	15
99	120	2
81	82	6
25	25	17
39	40	9
64	67	4
18	20	2
7	108	1
137	137	6
50	51	3
131	133	5
115	117	2
148	150	2
130	130	14
141	145	2
100	100	13
113	128	2
19	20	4
57	65	2
3	4	2
69	70	1
46	48	1
91	91	1
3	67	1
82	84	1
89	90	1
112	118	1
151	152	1
88	89	2
67	69	1
114	118	2
146	147	5
4	42	2
88	88	9
143	145	1
61	61	1
20	21	2
66	67	3
74	75	3
55	92	2
150	152	3
7	36	5
12	19	1
86	87	3
70	71	5
148	149	1
25	29	4
75	80	1
137	138	3
20	24	1
40	41	4
45	51	3
108	121	3
42	43	2
7	8	1
5	33	5
68	70	2
45	46	2
3	23	2
139	142	1
62	63	3
73	74	1
121	124	4
40	48	1
20	23	5
142	146	1
114	117	1
112	114	4
70	126	1
6	43	4
126	128	1
69	74	1
48	49	2
82	103	4
84	85	4
8	11	2
111	112	1
28	30	2
54	57	1
50	117	1
143	144	4
116	116	5
103	104	5
44	51	1
10	27	3
72	73	5
2	2	4
48	51	1
52	52	1
77	80	5
56	65	2
7	39	1
51	52	2
44	46	6
137	139	3
47	48	5
107	121	1
101	102	6
35	37	1
66	69	1
104	105	1
133	134	5
64	65	1
96	97	5
80	102	2
8	32	3
101	105	2
66	73	1
93	103	1
134	149	1
97	118	1
18	19	2
14	25	2
105	126	1
49	50	6
153	154	1
118	134	3
95	107	2
97	121	1
2	3	1
73	75	1
136	137	1
85	114	2
28	28	2
122	144	1
72	78	1
34	36	2
46	52	2
10	107	1
82	93	2
18	54	1
134	135	2
69	75	3
95	98	1
57	58	1
116	126	4
100	119	2
72	87	5
142	143	1
43	51	1
78	79	4
142	145	1
99	100	1
73	144	1
32	36	3
74	83	1
47	51	1
46	47	5
96	98	1
63	106	1
97	99	4
5	34	1
124	125	1
82	83	1
12	105	1
16	103	1
107	109	1
8	28	1
61	105	2
132	154	1
111	130	1
134	138	1
65	73	2
75	78	1
31	38	1
91	98	1
65	84	1
101	116	1
8	26	1
63	64	1
68	138	1
132	136	1
64	105	1
38	43	1
85	87	1
61	83	1
11	106	1
110	150	1
40	44	1
