123	123	7
24	25	2
44	45	10
95	96	1
120	120	3
54	56	1
56	94	4
55	110	3
124	124	12
46	83	2
57	57	15
131	132	4
88	90	2
126	126	6
72	72	11
125	126	2
104	109	3
68	69	11
26	28	2
33	45	5
131	131	4
63	63	12
51	51	7
3	3	7
68	68	6
13	13	5
79	79	3
61	126	2
23	23	8
102	102	6
50	50	8
87	88	11
31	31	7
80	96	6
28	28	8
88	88	2
65	65	7
64	64	9
20	20	2
71	72	2
16	16	4
46	58	1
18	18	9
111	111	5
17	17	8
101	102	3
91	93	3
108	109	7
23	25	3
47	47	3
97	97	7
19	19	12
0	0	7
112	112	12
21	21	4
76	76	5
54	122	6
13	16	5
66	66	6
1	1	8
109	109	9
10	24	5
77	78	5
48	48	11
77	77	14
92	92	7
71	71	6
86	86	4
120	122	1
99	130	1
103	103	6
80	80	1
104	104	22
53	53	4
55	55	8
41	41	3
13	18	1
12	12	7
2	2	9
15	27	5
38	38	8
22	22	14
95	95	9
29	30	3
89	89	5
117	118	2
27	27	3
8	8	1
62	62	2
122	122	8
23	26	2
33	33	4
85	85	3
44	44	8
106	106	8
93	94	3
130	131	1
32	33	3
99	99	1
10	12	1
58	58	3
93	93	10
4	4	13
9	9	2
110	111	3
127	130	1
92	93	3
112	120	1
27	28	5
49	49	4
105	105	7
67	67	8
114	114	11
26	27	1
128	128	4
22	23	1
118	118	9
116	116	6
57	123	3
29	29	3
125	133	3
42	42	3
69	70	6
56	57	3
63	109	2
125	125	3
9	10	1
49	52	1
34	34	4
11	11	3
126	127	5
107	108	1
69	69	9
115	117	1
96	96	6
62	78	2
126	128	6
101	101	5
129	131	1
107	107	4
46	47	5
12	26	2
14	14	4
6	6	5
91	91	5
67	77	2
52	52	7
66	70	3
24	24	15
108	108	4
30	31	2
9	124	1
16	21	1
74	75	2
75	75	5
57	73	1
73	73	6
57	120	1
121	121	7
112	113	1
66	68	1
115	115	3
4	9	2
57	82	2
7	7	5
83	83	5
113	113	4
132	132	4
30	30	9
110	110	1
100	100	3
55	95	1
8	9	4
84	84	8
59	59	2
100	102	4
23	24	2
130	130	5
10	17	2
74	74	5
96	130	2
83	92	3
94	94	2
70	70	3
81	85	3
116	117	3
29	31	1
31	32	2
66	71	1
16	41	1
65	66	3
78	78	2
64	65	2
99	102	2
41	43	2
53	56	2
125	127	2
82	82	1
98	98	3
109	110	2
4	5	1
76	82	1
61	61	1
96	97	2
47	48	2
45	45	5
59	90	2
114	115	3
5	5	2
53	119	3
126	129	2
69	79	1
52	53	2
91	92	1
31	47	1
40	40	1
56	56	1
119	119	3
8	48	1
32	32	1
124	125	2
10	10	3
25	32	1
89	90	3
49	50	1
22	24	2
55	81	1
62	64	1
72	101	2
39	39	3
16	24	1
18	19	1
54	54	1
58	89	1
59	64	2
62	76	2
58	106	1
43	43	1
58	131	3
27	32	1
66	84	1
34	71	1
87	87	1
96	131	1
98	130	2
58	107	2
117	117	1
14	16	1
133	133	1
73	74	1
61	62	1
60	63	1
105	106	3
94	95	2
34	58	2
72	74	2
66	82	2
109	132	1
70	95	2
1	2	1
103	132	1
8	12	1
59	91	1
22	52	1
56	120	1
54	55	1
63	64	1
93	95	1
32	38	1
117	119	1
3	4	1
75	76	1
26	26	2
41	42	1
46	46	1
