32	32	2
176	176	9
101	102	2
113	113	1
182	182	7
195	195	2
31	31	4
54	55	3
109	109	4
36	99	3
164	185	2
58	58	9
65	65	8
79	79	5
183	183	1
55	55	7
171	171	8
152	153	2
104	105	6
48	48	7
155	155	7
129	129	5
1	1	2
99	100	4
104	104	8
66	66	4
140	140	6
158	192	3
30	62	6
172	172	4
35	35	4
17	17	4
152	152	7
3	3	1
44	45	1
39	39	2
25	25	5
123	123	3
97	97	6
47	47	8
14	67	3
53	53	2
148	148	2
9	10	16
162	162	5
81	81	1
176	177	3
135	135	8
130	130	9
33	33	5
149	155	1
127	127	1
56	70	3
96	102	3
149	149	1
82	83	3
72	81	2
50	50	3
142	142	2
88	88	2
5	6	5
187	187	4
10	43	6
114	114	3
18	40	2
99	104	1
30	31	6
118	118	3
35	99	3
136	136	5
112	112	2
8	8	2
194	194	5
67	69	3
170	170	3
104	124	2
108	116	4
132	132	2
13	72	4
56	71	3
84	86	1
105	105	3
102	131	1
8	41	2
124	124	3
108	108	3
61	64	4
45	45	6
132	135	1
110	110	3
94	119	2
74	162	1
101	165	2
0	0	3
85	86	3
26	28	2
130	141	2
10	42	1
39	75	1
124	125	2
13	14	2
46	46	5
36	162	1
132	133	1
16	42	3
21	28	2
41	41	8
77	77	3
157	178	3
111	111	7
24	24	4
173	173	1
152	154	1
99	99	9
126	126	3
114	115	2
37	38	9
72	72	3
143	147	2
122	128	2
89	89	3
94	117	2
17	38	3
73	73	2
87	105	2
33	64	2
54	54	2
82	82	3
120	120	6
87	88	2
5	5	5
158	159	6
63	65	2
44	67	3
58	59	5
159	194	2
165	188	2
71	86	1
137	139	1
12	13	3
0	9	1
23	23	4
139	140	4
106	106	2
20	20	2
180	181	3
12	12	3
117	118	6
74	75	1
30	30	5
4	4	3
160	190	2
183	185	2
16	19	4
2	2	9
81	107	2
174	174	3
141	141	10
34	34	2
178	178	2
93	93	1
180	180	1
84	85	3
60	60	7
37	37	3
143	143	7
131	131	1
122	123	7
154	154	2
51	52	4
36	75	1
56	56	4
134	135	2
12	68	2
5	7	3
122	122	3
65	78	5
119	119	4
181	181	3
73	74	2
170	171	2
76	78	2
38	38	1
87	87	5
133	134	4
167	167	1
131	142	2
149	150	1
193	193	4
107	107	3
59	59	5
137	197	3
60	63	1
51	51	2
197	197	6
101	163	2
18	18	6
169	169	1
36	40	3
10	10	2
181	193	1
144	146	3
7	8	4
183	196	1
190	190	4
4	5	2
183	193	1
176	181	1
191	191	4
173	175	1
177	177	5
109	112	2
81	82	1
106	115	3
21	21	7
117	117	5
88	107	5
57	79	2
84	84	2
101	101	5
44	44	6
140	147	1
18	161	1
76	76	2
20	21	2
139	139	1
77	86	2
63	63	2
57	73	1
145	165	4
108	114	1
175	176	1
157	158	2
34	35	1
57	57	1
152	174	4
14	17	1
164	164	1
15	15	4
11	11	3
24	45	1
103	117	2
85	85	2
95	131	2
36	36	2
17	75	2
27	27	1
93	116	2
161	161	6
93	117	1
33	42	1
171	175	4
20	28	2
100	100	3
133	135	2
103	131	1
64	65	1
11	31	2
8	10	2
2	28	2
153	153	5
157	190	1
144	144	4
114	119	2
72	73	2
171	182	2
167	194	1
168	168	3
52	52	3
83	83	1
187	188	2
160	185	1
151	151	1
56	112	1
196	197	1
79	80	2
188	188	2
69	69	4
103	106	3
141	146	1
95	95	1
128	128	1
19	20	1
192	192	6
60	64	1
74	74	1
102	102	1
185	188	1
89	108	1
156	157	2
86	88	3
161	164	1
53	55	1
37	82	2
97	166	6
106	126	1
163	163	3
33	65	1
160	187	6
160	161	1
179	179	1
121	121	2
36	39	3
189	195	2
146	146	2
120	121	3
0	10	1
32	65	1
119	127	1
133	136	1
171	181	1
144	168	1
183	184	1
3	40	2
9	33	1
83	87	2
15	68	3
143	148	2
49	49	2
67	68	1
145	146	2
184	184	3
133	133	1
66	80	3
71	72	1
66	81	1
54	112	1
189	191	1
40	41	1
60	62	2
166	166	3
88	106	2
161	162	1
160	189	1
76	77	2
165	166	1
54	80	2
54	70	2
17	82	1
14	14	1
107	115	1
6	9	1
143	146	1
171	172	1
24	25	1
109	110	1
159	191	2
155	172	1
135	138	1
155	156	1
63	64	2
139	148	1
107	127	1
64	64	1
145	166	1
172	174	1
149	170	1
38	75	1
67	67	1
174	175	1
148	197	1
61	61	1
146	197	1
19	19	1
17	42	1
177	179	1
105	126	1
40	95	1
109	127	1
25	26	1
64	67	1
156	168	1
93	108	1
196	196	1
116	123	1
159	159	2
149	154	2
175	175	1
43	43	1
59	69	1
132	134	1
193	195	1
61	62	1
3	28	1
135	140	1
62	64	2
170	172	1
97	141	1
105	125	1
78	78	1
42	42	1
189	190	1
135	197	1
40	40	1
71	71	1
83	100	1
11	14	1
117	119	1
