51	51	19
75	77	7
56	56	32
1	6	1
77	77	22
89	89	10
67	67	18
90	90	10
23	23	34
0	0	15
87	88	1
49	50	6
2	2	13
5	5	7
8	8	25
16	16	12
15	15	21
84	84	13
63	63	14
54	54	2
30	30	27
71	73	1
58	59	1
68	69	7
74	74	9
1	1	14
2	16	3
48	48	15
6	6	14
52	52	32
86	87	7
56	57	2
48	50	5
86	86	18
59	59	19
35	35	3
48	49	8
48	59	6
19	19	20
8	17	1
17	17	20
49	49	13
31	31	22
74	76	2
24	24	7
50	50	27
2	3	3
71	71	20
75	75	31
20	20	22
0	1	14
25	26	8
66	66	25
80	80	10
64	66	1
53	53	13
13	13	14
7	7	8
11	11	16
22	22	8
81	81	16
63	74	1
78	78	14
9	57	4
29	30	6
47	47	14
26	26	13
75	76	5
57	57	9
58	58	23
4	5	9
73	73	28
34	34	10
9	10	7
72	72	22
25	25	11
65	65	5
61	64	1
69	69	22
59	61	6
17	18	4
6	7	4
55	55	13
12	14	4
87	87	14
4	4	15
31	32	5
64	65	2
3	4	8
85	85	20
3	3	19
30	56	4
84	88	3
53	54	6
85	86	4
23	24	7
12	12	16
11	12	4
88	89	5
28	28	21
75	80	1
6	8	8
66	67	7
14	16	7
46	46	10
88	88	13
9	9	10
57	58	10
55	59	2
61	61	3
46	58	1
21	22	6
29	29	8
70	70	11
68	68	20
27	27	16
13	14	2
84	85	6
47	57	3
51	52	5
76	76	7
60	61	12
67	68	7
50	51	1
7	8	9
66	73	1
21	21	7
82	82	10
62	65	2
2	8	6
1	90	2
4	11	4
28	29	3
63	65	1
63	64	10
14	14	15
53	56	2
63	73	1
13	17	3
79	79	9
78	80	3
50	82	1
83	83	19
7	17	6
16	17	4
30	31	2
32	32	2
84	87	1
63	76	1
20	21	4
8	9	1
69	71	1
6	17	2
0	2	2
72	74	1
20	22	3
34	35	3
10	13	3
47	60	2
65	75	2
61	63	1
20	27	5
26	27	1
19	28	3
62	62	5
83	85	1
5	9	1
28	84	2
60	60	4
5	13	1
7	16	2
73	78	1
83	84	5
10	10	3
9	11	1
50	53	3
75	82	1
27	28	3
22	27	2
34	46	3
32	33	5
58	60	1
64	64	3
5	8	2
3	90	1
63	75	2
49	55	1
12	89	2
54	56	1
47	51	2
71	85	1
25	27	1
13	15	1
15	53	4
56	58	1
57	71	1
18	18	6
48	82	2
67	89	2
47	48	3
0	14	1
8	10	1
49	59	1
74	75	2
51	54	2
46	47	1
64	77	3
66	72	3
21	23	2
11	14	1
0	68	1
83	88	1
60	63	1
82	83	1
62	63	2
58	81	1
10	12	2
66	71	1
14	89	1
76	79	1
2	4	2
63	71	1
66	68	2
1	67	2
77	79	2
66	70	5
69	70	1
57	59	2
6	19	1
5	7	1
55	56	2
65	66	1
12	18	1
46	80	1
18	25	1
5	49	1
10	11	1
5	46	1
46	74	1
80	87	2
68	72	2
78	79	1
5	6	1
81	82	1
