47	72	2
111	120	1
101	101	1
121	123	3
13	13	5
37	37	4
93	112	1
93	93	7
22	22	3
43	43	9
79	79	5
82	85	4
30	33	4
19	67	2
74	81	5
54	55	3
16	44	3
83	83	6
94	97	7
114	116	1
20	20	4
31	32	1
14	14	1
23	23	3
98	98	6
48	48	4
81	82	2
58	58	6
10	31	2
117	117	8
74	74	3
115	115	1
34	34	6
112	123	3
25	25	4
47	47	2
32	32	6
66	68	2
6	6	12
59	59	5
107	132	4
7	8	3
119	119	5
72	72	2
31	62	2
134	134	3
15	16	4
91	91	7
32	61	3
100	100	2
89	89	3
130	130	1
89	111	2
82	82	6
32	45	1
103	103	2
84	84	4
63	75	1
37	38	2
116	119	2
71	71	2
94	95	5
133	133	4
2	2	2
106	106	3
102	102	2
26	26	3
45	46	1
125	125	3
63	63	2
75	75	1
130	131	3
3	3	4
11	11	4
8	8	2
30	30	1
77	77	2
52	52	3
112	112	4
82	96	2
91	95	3
55	56	1
0	0	11
67	67	3
108	110	1
1	1	1
99	99	4
109	109	3
69	70	1
90	90	3
102	103	1
113	114	2
33	33	3
50	50	7
29	29	1
26	36	6
108	108	2
0	1	1
54	57	2
128	128	4
60	61	2
72	74	3
13	14	1
99	104	1
85	129	2
113	113	3
19	19	1
80	80	5
114	114	2
84	93	1
5	28	1
11	32	1
91	92	2
116	116	2
17	49	1
15	22	1
53	60	2
53	53	4
2	27	2
94	99	2
56	57	3
105	126	1
5	5	1
69	69	2
36	37	1
108	118	2
104	104	2
60	60	5
19	30	1
62	63	2
107	107	2
124	124	2
10	62	1
34	36	2
9	10	1
132	132	4
53	77	1
75	105	2
85	85	4
27	27	1
54	54	2
24	55	1
97	98	1
82	86	2
63	76	2
127	129	3
12	12	2
97	97	1
3	8	2
38	38	3
57	57	1
94	104	2
49	68	1
91	114	2
1	4	1
94	94	1
123	123	1
36	36	2
56	56	4
126	126	1
95	123	1
87	87	1
72	73	3
86	86	1
106	112	1
19	20	1
111	135	2
106	110	1
96	97	2
76	76	1
14	32	1
117	119	1
44	49	1
68	112	1
61	61	2
54	56	1
7	7	1
52	63	1
70	70	1
8	9	1
