231	234	3
1	1	1
56	56	11
27	234	5
169	169	2
209	209	2
53	53	8
145	145	5
228	228	5
214	215	1
218	238	2
28	28	2
44	44	1
195	195	2
13	16	2
28	29	6
12	12	7
14	15	4
234	234	8
214	216	4
137	138	5
103	104	5
113	113	1
238	239	3
42	42	2
23	23	5
229	230	2
42	234	2
211	212	1
120	120	3
109	109	5
16	16	4
125	126	1
76	76	5
137	137	1
138	171	1
37	88	1
186	186	4
231	231	6
0	8	3
147	147	3
160	160	1
241	241	4
73	73	4
141	141	5
143	177	1
221	225	5
237	237	4
192	196	1
80	117	5
140	159	6
57	57	4
140	140	4
29	42	4
72	72	2
140	142	3
194	194	3
229	229	2
213	215	2
84	84	1
19	19	2
7	8	3
22	22	7
41	41	2
70	70	3
200	200	2
3	3	5
208	208	3
2	3	1
0	3	1
125	125	7
164	164	4
174	174	2
80	118	3
175	175	5
101	201	7
43	232	3
67	67	4
25	25	2
77	78	6
32	32	2
0	0	3
217	217	5
161	161	3
49	50	3
10	10	2
101	101	8
24	24	3
77	79	2
85	85	3
104	104	3
133	133	2
233	233	4
125	127	1
77	77	1
144	144	1
191	222	1
223	224	3
219	220	2
45	86	1
206	206	5
157	157	11
26	29	2
150	182	2
129	134	2
59	59	1
35	35	3
4	6	2
142	142	8
18	231	2
142	144	3
127	127	2
107	108	2
32	61	1
218	218	6
146	146	3
225	225	4
146	150	3
136	136	4
139	139	4
227	227	6
126	126	3
166	170	3
2	2	4
40	71	1
101	106	1
43	233	4
60	109	3
218	235	1
66	75	1
98	178	6
109	110	1
24	25	1
4	4	8
81	81	3
45	45	7
1	36	2
197	197	10
100	107	3
88	88	2
185	185	2
209	223	2
52	52	5
217	219	2
204	208	4
9	9	4
236	236	1
140	141	2
180	180	2
122	190	1
194	195	1
193	195	4
21	32	1
118	118	2
221	221	2
181	181	1
206	229	2
199	211	1
98	158	2
18	230	2
11	11	14
27	62	2
130	134	4
64	65	3
20	21	2
43	43	8
188	188	4
86	86	7
37	37	3
139	172	2
65	65	4
74	74	6
28	30	1
14	14	7
27	27	2
75	75	2
29	29	2
103	103	3
226	226	4
128	129	1
178	178	3
50	50	5
114	114	3
143	143	5
223	223	3
1	9	9
193	193	2
45	56	4
66	66	1
210	230	1
47	47	4
55	55	1
121	122	2
99	99	5
135	135	1
8	18	1
191	191	2
207	208	3
40	60	3
16	34	3
42	57	1
82	84	3
124	165	2
20	20	2
194	196	3
61	61	2
183	183	5
40	40	2
30	34	2
69	69	2
215	215	1
70	71	3
11	25	4
158	158	5
78	78	2
207	207	2
124	125	1
124	124	5
151	151	3
62	62	1
179	180	2
192	192	5
26	30	2
111	111	2
120	190	4
122	122	1
188	189	1
14	16	2
126	164	3
134	134	2
5	5	2
25	29	3
163	164	4
211	211	2
69	71	1
171	171	1
156	156	4
30	30	1
46	47	2
79	86	1
209	213	1
119	119	4
0	18	1
56	78	2
199	199	3
204	204	2
176	177	3
116	150	2
1	32	3
190	190	2
22	44	1
116	116	2
213	213	1
217	239	1
30	31	1
16	19	1
23	31	1
129	129	2
216	216	2
228	242	3
149	149	3
19	229	1
86	88	1
0	2	1
210	212	2
75	76	2
63	63	1
210	236	1
128	128	5
177	177	1
188	221	1
115	115	1
174	175	2
42	43	3
130	189	1
198	223	1
155	155	2
74	89	2
166	169	3
173	173	3
172	172	3
203	203	2
242	242	1
225	228	1
39	115	3
13	30	1
209	236	2
175	176	1
201	201	2
71	240	1
200	220	1
219	241	1
52	53	1
160	161	5
222	223	1
152	152	1
189	189	1
154	155	1
8	8	2
104	105	2
124	126	1
67	68	1
82	82	1
80	80	2
180	181	1
235	235	1
9	32	1
123	123	2
89	89	1
222	222	1
147	182	3
114	115	1
165	165	2
170	170	3
37	42	1
36	36	5
148	178	1
168	168	1
96	96	1
35	36	1
166	166	1
163	163	1
96	156	1
43	151	1
82	155	1
16	17	1
147	179	2
184	201	1
39	76	2
39	39	3
224	225	2
197	198	1
121	121	1
59	95	1
202	202	1
17	17	2
46	46	1
162	162	1
18	18	1
116	117	1
230	230	1
25	26	1
142	159	2
123	130	1
60	60	2
213	216	1
148	149	1
0	19	1
218	229	1
212	212	2
198	198	2
83	83	1
162	163	2
186	228	2
190	191	1
19	231	1
21	33	1
115	116	1
47	77	2
83	84	2
16	20	1
102	106	1
131	146	1
202	208	1
45	88	1
7	16	1
111	145	1
102	102	1
147	152	1
117	117	1
179	179	1
144	146	1
45	55	1
1	4	1
185	226	1
8	19	1
98	183	1
96	118	2
196	196	1
66	68	1
108	108	1
117	118	2
186	187	1
12	34	1
37	96	1
