38	38	1
58	58	5
99	99	7
7	7	13
126	126	7
115	115	1
95	95	6
106	106	8
6	63	3
125	126	1
33	33	10
84	86	2
5	6	5
35	35	8
113	114	4
117	118	6
7	56	7
89	89	5
14	14	3
100	104	4
74	77	2
91	130	2
17	36	4
111	111	3
80	81	4
103	103	4
45	45	3
44	102	1
134	134	4
47	47	2
12	13	6
112	112	3
119	119	5
123	123	3
62	65	8
132	132	2
23	24	3
79	79	3
9	66	3
121	121	3
107	107	2
40	41	1
16	16	4
113	113	8
117	117	2
27	28	3
71	72	9
83	83	4
130	130	4
111	113	3
75	75	3
124	124	4
36	36	2
120	120	2
118	118	4
19	20	6
63	63	6
78	79	2
7	23	5
88	88	1
126	134	3
0	0	6
105	105	2
36	37	4
129	129	8
98	98	2
22	25	1
125	125	5
85	86	1
26	27	4
31	31	2
116	116	10
110	110	5
37	39	2
22	23	1
1	1	2
3	3	2
103	104	2
79	85	2
106	107	2
72	72	5
39	41	1
82	82	7
37	37	9
8	8	7
39	55	4
30	30	2
114	114	3
128	133	3
15	15	7
34	34	2
92	92	5
65	65	8
61	61	1
29	32	1
127	133	2
29	29	4
92	93	2
26	26	3
113	131	4
19	19	3
39	40	3
74	74	3
6	6	13
81	81	7
85	90	2
12	12	2
86	86	5
74	76	1
5	5	8
8	38	1
18	28	1
35	36	2
114	115	1
32	32	3
108	115	2
108	108	6
13	13	1
18	18	1
72	77	1
92	114	1
127	127	2
43	43	1
25	25	2
31	34	1
124	126	1
82	83	2
120	121	4
14	102	2
122	122	5
91	92	1
2	2	1
11	11	1
21	21	4
46	46	2
74	75	1
73	73	1
57	57	1
94	96	1
76	77	2
10	10	2
64	65	1
43	44	2
66	87	1
13	31	1
94	95	2
94	98	1
62	62	4
80	86	1
18	19	5
61	65	1
92	132	1
66	66	3
9	10	1
44	44	5
91	91	2
97	97	2
78	84	1
19	25	2
71	71	1
117	119	2
41	41	2
128	128	2
118	119	1
67	67	2
93	93	1
64	64	2
59	59	3
8	16	1
84	90	1
79	86	1
39	39	2
91	131	1
15	16	1
79	116	2
68	69	1
77	77	1
28	28	1
63	64	1
72	75	1
11	45	2
91	132	1
14	15	2
92	130	1
59	60	1
31	33	1
111	112	1
115	116	1
97	99	1
68	68	1
9	9	1
23	23	1
