16	16	11
16	17	3
169	171	8
146	146	2
169	170	6
120	120	6
138	138	8
41	41	3
82	82	2
78	78	9
3	3	5
150	150	3
168	168	7
151	156	2
2	2	10
136	136	19
142	142	9
21	21	9
3	7	9
8	48	3
34	34	9
15	15	19
176	176	10
56	56	9
119	123	2
159	159	4
14	14	10
42	42	5
108	109	2
24	27	3
164	164	11
111	111	7
167	167	11
44	45	3
107	107	4
105	105	6
150	178	1
120	121	4
123	123	4
98	98	9
58	62	4
11	11	5
81	81	12
139	174	1
6	6	3
103	103	1
119	148	1
126	126	7
52	54	4
190	190	2
55	55	6
139	151	1
96	104	3
189	190	6
75	75	3
83	83	10
124	124	7
39	39	23
156	156	9
70	71	5
142	163	4
12	13	8
145	145	10
91	91	5
167	186	4
54	54	13
72	72	7
147	147	7
115	117	3
36	37	1
95	95	8
90	90	5
25	25	7
184	187	1
68	68	9
63	64	4
119	119	2
99	99	8
53	53	8
38	38	5
102	102	11
130	131	4
58	58	7
46	47	3
172	172	8
69	74	5
155	155	2
110	112	4
22	23	1
102	103	2
125	125	2
185	185	8
46	46	1
183	183	5
47	47	11
93	93	4
71	71	10
39	40	9
148	148	8
155	156	7
96	96	3
87	87	3
52	53	2
18	18	3
70	101	1
55	56	2
76	76	9
113	113	8
2	15	3
52	52	2
148	149	5
12	18	1
112	112	6
118	124	1
119	128	1
153	153	11
104	107	5
152	152	10
137	148	3
42	46	4
110	110	14
95	108	7
33	33	5
175	175	6
180	180	5
115	116	4
92	92	4
1	2	5
148	173	3
139	140	2
10	23	6
64	65	5
80	81	7
76	77	2
174	174	2
75	76	2
170	170	5
11	12	2
112	121	2
10	20	2
128	128	7
129	129	19
123	124	1
115	115	3
171	179	2
77	77	13
66	67	2
91	108	2
147	148	5
88	88	8
109	109	7
155	176	4
0	0	10
5	5	5
16	60	3
7	8	5
88	89	7
5	27	3
81	99	6
143	143	4
81	120	2
183	184	2
37	37	8
48	48	10
67	76	2
169	169	10
179	179	1
32	33	2
28	28	8
78	124	2
1	1	6
135	135	2
182	182	6
129	130	3
178	178	5
134	134	1
40	41	1
149	149	7
25	48	1
61	62	1
93	94	3
97	97	7
38	39	5
82	99	5
84	84	7
27	46	2
174	175	5
29	29	6
127	128	8
81	118	4
56	57	5
56	63	1
45	46	4
24	45	1
27	47	3
178	179	10
149	173	4
119	120	2
13	13	12
14	18	2
23	23	5
173	173	2
3	8	2
106	106	2
119	124	3
7	7	12
132	132	6
160	169	3
59	80	1
87	88	1
4	4	9
65	66	7
78	145	1
20	20	6
43	44	4
67	67	4
26	26	1
58	61	5
79	79	7
19	19	2
146	147	4
59	59	3
43	43	7
22	22	3
150	177	2
17	17	6
62	63	2
170	183	1
91	95	3
77	124	4
116	117	3
163	163	5
177	177	1
11	13	3
158	158	8
57	61	2
86	122	2
118	118	3
89	89	8
152	153	3
187	190	5
32	32	3
55	64	5
10	18	2
40	40	4
17	22	1
157	158	3
157	157	1
186	186	3
119	144	5
127	133	4
97	104	1
98	103	2
171	171	1
12	12	4
65	68	2
36	38	4
104	104	4
79	117	2
6	8	4
160	161	4
184	184	4
89	133	1
92	93	4
188	188	1
14	20	3
89	128	1
131	131	1
13	15	1
60	60	3
59	117	2
103	106	2
163	164	5
165	166	3
86	112	1
101	101	2
141	141	6
27	27	3
56	62	1
135	146	2
114	117	6
140	140	3
116	116	2
63	63	2
29	65	1
77	113	2
74	74	3
166	166	1
130	130	2
62	62	1
31	42	2
126	127	1
65	65	2
127	146	1
118	145	1
138	139	2
161	170	1
162	169	4
141	143	3
57	57	4
89	136	1
96	123	1
26	27	1
86	86	4
59	64	4
154	154	1
153	154	2
65	83	1
162	162	4
167	183	1
146	173	2
66	115	1
85	87	2
0	20	1
28	48	1
77	112	1
89	90	2
16	18	2
154	155	2
71	72	4
137	138	2
68	69	1
25	26	1
158	159	2
133	133	2
135	136	1
154	159	2
182	184	1
61	66	1
28	29	1
134	135	1
148	174	2
161	161	1
5	30	4
128	129	2
5	8	7
73	74	3
9	9	1
151	151	2
21	23	2
85	85	2
163	170	1
108	108	5
30	31	2
178	181	1
189	189	2
150	151	2
24	24	1
31	31	6
187	189	1
10	22	1
140	141	3
67	68	3
41	114	2
27	30	2
144	144	1
5	46	1
13	16	1
138	146	2
3	48	4
78	115	1
39	41	1
6	7	1
54	55	1
155	177	1
151	175	1
175	176	1
94	95	1
12	14	1
83	110	1
100	100	1
125	126	2
139	139	4
105	106	1
165	165	1
122	122	2
53	54	1
66	82	1
96	107	1
167	169	1
11	14	1
59	67	2
89	96	1
159	160	1
94	108	1
159	180	1
66	66	2
41	42	1
115	164	1
79	113	1
131	132	1
45	45	1
146	172	1
162	171	1
121	124	1
168	169	1
96	124	1
35	35	1
90	92	1
56	67	1
186	187	1
4	42	1
121	122	1
91	132	1
10	10	1
