179	179	7
137	137	27
132	132	3
71	71	8
85	85	7
113	113	3
171	172	6
111	113	3
133	137	1
43	43	5
10	13	1
98	127	3
151	151	7
114	115	1
2	2	2
143	146	8
79	79	5
68	68	3
70	71	2
43	44	4
90	90	9
39	39	2
86	86	2
108	108	4
67	67	6
66	66	9
143	145	2
4	25	2
5	5	8
153	166	3
87	87	4
170	170	13
95	95	5
141	142	2
139	177	1
97	124	2
147	148	1
15	15	9
3	3	10
60	60	2
18	18	12
65	65	8
142	168	2
74	74	7
10	10	4
49	49	1
6	7	3
40	40	3
153	153	9
116	117	1
33	33	2
29	29	3
56	57	2
30	78	3
73	74	6
97	100	2
125	153	3
130	131	1
36	38	4
125	150	1
120	120	2
124	124	7
37	37	5
5	25	3
84	92	6
34	34	2
52	53	6
135	136	5
127	150	1
173	173	3
161	164	1
62	107	6
59	59	1
127	127	8
16	16	2
68	84	1
81	81	5
119	119	4
109	109	4
133	134	5
141	147	1
172	172	2
62	62	2
150	151	5
88	88	4
148	148	2
157	180	3
14	32	1
9	10	3
158	158	5
78	80	1
143	143	4
125	125	4
6	31	1
19	19	2
29	30	3
56	66	1
11	12	2
23	23	1
81	82	2
157	157	5
6	11	5
77	77	7
93	93	3
130	130	4
139	139	5
116	116	3
77	176	1
163	163	2
72	72	9
161	161	3
117	179	3
8	12	6
6	23	5
76	76	4
32	32	5
6	6	3
89	89	5
57	57	4
108	109	6
118	118	7
38	43	3
35	35	4
78	78	7
149	149	6
163	167	2
82	82	1
171	171	4
159	159	5
25	29	1
152	152	2
38	38	3
56	56	7
112	112	5
26	82	1
56	58	2
180	180	2
61	105	2
178	178	2
104	131	2
134	134	2
145	146	1
63	64	2
62	63	1
153	163	4
106	106	10
27	27	5
92	92	5
53	53	3
126	127	3
7	26	4
72	90	2
107	109	1
80	80	3
61	86	2
10	11	4
77	79	2
71	73	2
25	25	4
54	55	3
22	23	4
120	121	2
25	26	1
54	54	9
42	42	8
110	111	1
58	58	7
133	133	2
61	62	1
154	154	6
147	147	3
89	105	4
42	43	2
144	144	3
160	180	4
0	0	3
131	131	3
99	100	5
102	124	7
95	97	3
131	132	3
74	102	1
156	156	3
32	33	2
55	66	1
24	81	2
86	88	1
28	28	1
145	145	2
101	147	1
35	36	3
149	171	1
57	66	3
51	52	3
135	135	5
7	10	1
83	84	4
73	73	2
85	88	2
45	45	2
153	154	3
115	118	1
129	175	1
64	64	4
98	98	3
76	77	1
87	104	1
91	92	2
66	67	4
161	162	3
96	96	3
87	88	3
119	120	4
84	84	5
138	138	1
10	92	3
23	32	2
164	164	4
101	101	3
63	86	1
35	39	1
122	122	8
117	117	1
87	105	1
164	180	1
37	39	2
91	91	2
102	122	2
110	110	4
31	31	4
57	58	3
163	164	1
117	156	7
14	14	3
61	104	1
102	121	2
77	78	2
36	36	2
94	95	2
115	115	2
24	24	3
37	38	1
74	77	1
166	167	1
7	7	5
168	168	6
148	175	1
95	96	2
119	121	1
164	165	1
141	149	2
97	97	5
141	143	2
152	154	4
30	77	2
157	158	1
123	123	2
110	115	2
169	169	2
154	156	1
129	173	1
100	147	2
17	23	1
40	41	3
20	21	1
75	75	2
1	25	1
168	170	1
2	3	4
89	90	1
162	164	2
117	123	1
103	131	1
80	127	1
26	28	1
79	80	1
175	175	2
12	13	1
103	103	5
8	10	1
89	120	3
137	138	2
103	104	1
6	26	2
170	171	1
140	140	2
160	160	1
4	5	1
18	21	1
104	132	1
150	150	1
93	94	2
9	9	2
111	111	2
24	26	3
146	146	2
43	52	3
60	61	2
10	23	1
16	17	2
86	87	2
94	94	1
102	102	1
65	68	2
126	126	1
149	150	1
62	108	1
99	147	1
83	83	1
16	22	2
74	128	1
52	52	1
35	40	2
88	89	1
17	22	1
79	81	1
65	92	1
127	128	1
73	76	1
71	93	2
70	90	2
50	52	2
15	37	1
8	8	1
29	71	1
107	107	1
125	152	1
124	125	1
30	31	1
17	17	2
103	106	1
16	20	1
105	105	1
44	44	1
153	179	1
121	122	1
142	148	1
114	114	1
14	22	1
150	169	1
102	120	1
169	170	1
46	50	1
141	148	1
12	12	1
1	1	1
128	175	1
