84	146	6
111	113	2
44	44	20
11	11	19
53	53	12
89	89	23
1	70	3
11	155	2
64	64	13
111	111	36
136	136	13
149	152	2
2	3	6
55	56	7
99	99	17
16	16	26
79	79	8
154	155	7
85	85	21
16	19	3
94	105	5
138	138	20
19	19	13
89	90	9
107	107	20
97	97	20
101	101	14
65	65	18
120	120	18
67	71	4
90	94	4
100	100	43
89	126	6
78	78	28
77	78	17
113	113	9
142	142	21
68	131	3
127	127	12
13	13	12
26	26	23
156	156	15
20	20	15
70	70	25
71	71	16
18	20	6
106	106	16
116	154	3
80	82	3
63	63	11
130	130	19
25	31	4
11	73	3
40	40	17
126	126	17
122	123	7
150	150	21
4	4	21
114	114	12
92	92	27
23	23	18
80	80	23
78	79	3
22	22	27
28	30	7
3	4	17
158	158	30
157	157	25
151	152	15
69	69	20
8	42	3
99	100	7
137	137	19
51	51	29
27	27	15
75	75	28
98	156	3
38	38	28
72	72	14
6	7	4
70	71	8
15	15	18
96	128	2
86	87	7
121	121	21
139	140	11
147	147	9
30	30	30
139	139	18
30	36	3
118	118	12
5	5	20
62	67	2
21	55	4
28	28	22
47	47	20
75	158	3
159	159	1
49	49	8
105	105	31
119	125	4
104	104	12
22	23	4
97	98	8
102	106	1
133	133	16
90	91	7
65	66	3
112	112	19
85	86	15
37	38	4
109	109	31
83	83	16
119	119	20
150	151	3
152	152	11
135	136	4
136	142	3
126	127	4
32	32	30
123	124	7
7	7	16
94	94	9
86	86	19
35	35	12
135	139	2
45	45	41
41	41	40
6	6	14
122	122	41
42	43	9
103	103	29
122	140	3
44	45	4
123	123	20
10	10	16
123	152	2
108	108	26
13	15	5
25	25	29
135	138	2
49	50	3
76	77	4
115	115	13
69	70	1
16	17	6
20	21	3
73	73	20
33	33	17
92	93	15
29	72	1
81	82	5
17	17	24
95	95	23
43	43	19
6	112	2
36	37	2
14	14	18
140	140	18
8	8	17
42	47	2
46	47	17
147	148	5
67	68	3
108	134	2
123	125	11
90	90	22
142	143	7
88	88	22
0	1	5
0	0	24
40	41	6
50	50	21
22	26	1
134	134	12
116	116	13
46	50	1
48	48	11
148	148	13
155	155	11
23	24	11
146	146	18
55	55	15
123	148	1
96	96	28
67	67	10
19	20	8
68	106	1
87	87	27
129	129	19
93	94	7
107	108	11
132	132	11
155	156	5
110	111	10
120	121	4
15	17	2
131	157	1
137	138	5
93	103	2
151	151	12
68	107	3
130	133	3
144	144	12
129	130	3
49	51	2
37	37	12
49	54	1
106	151	2
7	8	8
117	151	2
22	30	2
76	81	5
79	126	1
138	142	1
135	135	17
130	148	1
52	53	3
30	48	4
93	93	16
68	68	11
95	96	6
121	122	2
68	132	4
68	69	4
57	57	3
72	85	2
77	77	25
24	24	17
52	52	12
33	34	6
8	10	4
91	103	2
40	51	2
140	141	7
98	99	7
90	117	7
68	70	7
110	110	20
1	2	4
72	75	1
31	158	1
128	128	25
69	72	3
42	42	28
57	67	1
144	147	11
155	157	10
31	37	1
90	135	6
117	117	17
42	45	3
111	112	9
13	14	1
108	109	6
99	102	1
146	147	2
143	147	6
17	18	3
23	35	1
18	19	9
70	157	1
91	91	16
125	125	23
81	115	4
73	74	5
108	118	2
2	2	23
113	114	3
124	124	31
80	81	4
22	31	2
149	149	7
81	114	2
101	105	3
117	118	7
27	28	9
144	149	3
106	113	2
1	1	12
18	18	21
102	103	2
38	39	4
129	131	3
56	56	8
94	114	2
103	151	2
139	146	1
34	40	3
97	127	1
138	141	4
139	147	1
143	143	13
89	127	4
138	150	2
102	102	12
9	9	17
84	85	13
47	107	6
119	126	6
17	94	2
72	126	2
42	49	3
141	141	9
72	78	5
32	36	2
154	154	13
92	107	1
21	21	14
147	153	1
3	3	16
149	150	7
152	154	3
3	30	3
24	28	5
157	158	4
46	46	19
98	98	11
71	83	1
94	95	4
114	115	3
67	70	4
153	153	9
82	82	12
109	110	5
8	9	5
89	135	6
21	23	3
56	67	1
76	76	6
88	89	9
113	147	3
66	66	9
124	126	2
141	142	2
82	83	6
148	150	1
9	10	4
96	149	2
118	119	3
31	31	19
91	94	6
95	107	1
63	64	2
88	91	8
37	155	3
9	63	11
65	149	1
44	47	1
69	133	3
115	116	3
47	158	4
74	129	1
2	7	3
131	131	9
29	30	7
94	112	1
34	34	6
39	39	11
69	106	4
119	120	4
15	18	1
43	77	5
41	43	9
140	149	4
36	38	1
1	21	2
29	29	14
41	46	2
152	153	5
105	106	3
118	146	1
97	150	4
45	46	2
105	125	7
39	40	4
9	64	2
31	32	2
118	144	2
3	37	3
37	52	2
135	137	7
19	21	3
50	53	1
97	104	1
1	5	3
131	132	2
130	155	2
72	107	4
81	81	12
89	122	2
74	74	2
12	13	12
91	138	1
100	101	1
10	15	1
16	18	5
90	92	2
24	26	3
131	139	2
11	12	6
99	155	1
34	36	1
36	36	13
12	12	5
48	49	8
7	117	1
79	125	1
125	126	5
110	112	3
133	134	4
83	85	3
79	81	1
16	113	1
98	151	1
9	117	2
106	108	2
7	15	2
34	35	2
92	106	3
137	141	1
112	115	3
148	149	3
41	42	5
70	155	1
26	28	1
127	128	4
27	29	1
95	103	3
71	72	4
100	102	3
51	52	4
28	29	4
75	128	1
77	79	2
128	129	3
84	84	3
145	153	3
95	97	1
92	108	1
3	65	1
102	104	1
117	157	2
133	135	2
152	156	2
8	55	2
18	83	7
9	11	5
32	33	7
11	110	2
98	149	2
152	157	2
23	30	2
145	145	2
87	126	1
20	22	4
8	39	2
117	142	1
66	67	6
9	35	1
21	22	3
38	54	3
94	150	3
82	84	2
1	55	1
120	127	1
47	48	4
106	128	1
63	67	1
20	56	2
103	104	4
12	39	2
115	126	1
130	154	1
132	133	4
142	144	2
130	134	2
9	36	1
14	15	4
18	37	2
109	112	1
131	152	3
116	117	4
32	120	2
11	18	2
12	14	1
88	90	2
113	116	2
75	83	1
75	89	1
18	55	1
122	141	1
138	139	8
52	54	1
16	56	2
31	36	4
131	134	1
14	109	4
79	88	4
56	156	1
65	130	2
72	73	3
108	111	1
19	95	1
4	5	4
6	39	1
67	153	1
121	123	2
110	113	1
12	15	3
143	144	2
112	113	4
0	3	3
50	51	2
130	131	1
44	103	1
14	86	2
25	30	1
124	125	3
156	157	6
104	105	3
73	75	2
5	6	3
13	17	2
86	127	1
87	129	1
90	127	1
129	158	3
131	150	1
83	84	1
68	120	2
6	16	3
149	153	3
4	64	1
23	91	2
131	133	4
5	72	1
69	148	1
116	157	2
79	80	1
81	85	3
46	158	2
53	54	3
37	40	1
70	84	1
31	33	2
22	25	2
30	37	2
31	34	1
30	156	1
54	54	3
126	150	1
105	129	2
12	111	2
30	69	1
93	95	1
105	107	1
85	156	4
85	111	2
67	69	3
26	27	3
56	62	1
119	121	3
103	157	1
97	112	2
72	130	1
22	34	2
106	127	1
65	73	4
7	118	4
75	141	2
107	128	1
94	110	1
104	107	2
2	4	2
24	87	1
43	49	1
92	99	1
25	27	1
24	76	2
104	156	1
109	134	1
13	34	1
8	40	1
20	55	2
18	41	1
43	44	1
21	48	1
93	114	1
32	35	1
68	71	1
35	41	1
75	157	1
84	93	1
31	64	2
44	65	2
97	99	1
67	157	1
25	26	2
33	56	1
134	135	2
134	141	1
10	13	1
73	130	1
0	73	1
136	137	1
26	29	1
35	37	1
154	156	2
110	115	3
101	128	1
133	139	1
122	142	1
0	55	1
16	55	1
3	27	2
90	128	1
111	114	2
10	12	1
103	156	1
113	115	3
13	112	2
101	102	1
30	120	1
145	150	3
66	99	2
96	98	1
7	16	1
22	33	1
146	148	1
81	125	1
96	97	2
143	149	1
4	71	1
4	7	1
82	86	2
92	94	1
71	84	1
15	114	1
112	148	1
5	67	1
33	70	1
67	156	1
23	44	2
94	127	1
75	135	1
130	158	1
53	86	1
3	11	1
76	115	1
149	151	1
127	151	1
106	107	1
136	140	1
118	124	1
98	103	1
23	88	1
153	154	1
33	48	1
17	19	1
