96	96	6
27	27	7
135	135	12
97	97	8
4	4	6
95	95	13
87	87	14
18	18	12
24	26	4
1	1	15
136	136	4
6	6	7
72	72	18
33	33	3
74	74	13
90	91	3
126	126	11
21	21	8
101	101	12
130	131	1
15	15	10
138	139	2
100	100	8
13	13	14
102	102	9
2	2	10
22	22	4
23	26	3
25	26	2
20	20	14
73	73	10
134	134	10
11	11	12
0	1	3
85	85	6
20	21	3
114	114	15
105	105	10
127	128	4
23	24	5
104	104	11
26	26	13
108	108	13
111	112	4
14	14	7
4	13	3
71	71	9
80	80	2
75	76	2
32	32	13
114	115	6
107	107	5
29	31	4
73	114	2
126	130	4
27	28	2
19	20	3
132	133	3
12	13	3
35	35	14
10	12	1
127	127	3
89	89	3
77	77	5
83	83	5
82	82	2
37	37	6
86	100	3
119	119	12
93	93	11
124	130	3
89	93	4
10	11	4
112	112	2
130	130	6
8	8	10
34	36	1
129	129	3
17	17	4
8	14	4
31	31	5
9	82	6
80	100	3
97	99	3
30	30	8
10	10	4
81	85	9
122	123	1
125	125	7
115	115	10
23	23	3
19	19	16
13	102	1
131	131	9
91	99	1
2	3	1
34	34	12
80	81	2
28	28	4
24	24	7
92	92	12
28	30	1
0	0	2
74	75	3
89	117	3
3	3	9
36	38	3
73	106	2
73	75	6
99	99	4
110	110	5
5	5	13
84	84	10
86	86	3
98	98	5
21	24	1
18	103	3
120	120	8
125	126	2
16	16	9
122	122	3
76	88	2
124	124	3
13	100	1
36	36	2
118	119	2
24	28	3
37	38	3
9	14	1
134	135	6
79	114	2
38	38	2
139	139	9
108	109	6
104	105	1
75	75	6
4	7	4
21	22	2
92	94	5
113	113	7
1	2	3
79	79	5
91	111	4
79	101	1
138	138	2
73	109	1
76	76	3
113	114	2
81	81	4
74	77	6
16	103	1
29	29	2
106	106	5
24	29	1
96	97	2
78	78	9
88	88	2
82	84	3
8	13	1
33	34	2
73	107	1
80	116	2
30	36	5
17	18	1
71	90	2
123	124	2
73	74	3
4	5	2
137	137	3
116	116	5
19	28	1
16	32	1
124	125	2
71	91	3
117	123	2
75	78	2
75	112	2
89	90	8
8	83	1
71	72	1
12	14	1
111	111	2
16	17	1
94	95	5
73	104	1
4	6	1
121	121	2
131	132	4
12	12	5
26	100	1
15	16	3
103	103	5
132	132	2
71	98	1
9	9	6
11	12	3
16	28	2
13	14	2
5	20	1
90	90	3
76	78	1
82	89	1
28	29	2
23	25	1
20	112	1
97	111	1
117	117	1
101	102	2
6	13	4
72	73	2
119	121	2
2	73	1
93	94	3
5	103	1
95	96	1
22	23	3
139	140	2
133	133	1
7	9	1
123	123	5
116	117	1
91	106	1
73	78	2
72	107	3
102	103	3
91	91	3
25	25	1
77	78	1
94	94	1
101	112	1
91	92	1
86	88	1
7	8	2
1	4	1
107	114	1
120	121	1
18	37	1
5	15	1
139	141	1
100	111	1
126	127	2
3	4	2
19	29	1
36	37	2
18	19	1
86	104	1
107	108	1
80	88	1
