53	53	4
84	121	1
21	91	1
118	128	3
68	69	3
108	108	9
134	134	2
148	148	11
21	80	1
48	49	6
17	17	5
43	43	8
78	80	3
110	110	5
84	85	4
99	99	4
132	132	3
91	91	5
140	140	6
149	149	2
151	151	7
65	65	6
47	47	14
78	78	6
158	158	3
46	46	2
84	118	4
2	5	2
44	44	5
66	66	1
92	117	5
112	112	5
114	115	4
153	153	6
25	25	4
101	101	11
93	94	1
52	54	3
31	112	6
3	58	1
36	36	2
135	154	2
23	23	7
29	29	5
24	25	3
32	32	8
15	23	2
139	139	7
63	69	2
81	83	3
144	144	1
146	147	5
22	22	4
71	71	10
123	123	3
14	14	4
53	54	1
14	46	1
130	131	3
13	13	4
39	39	7
82	82	9
51	51	6
129	131	3
145	145	3
73	74	1
45	45	2
50	50	5
88	91	1
87	90	2
4	4	2
23	24	3
69	91	2
125	125	2
126	126	5
15	20	2
128	129	2
38	38	6
131	140	3
27	27	5
84	128	1
15	15	2
128	128	4
96	96	3
133	143	3
132	147	3
11	25	2
31	31	4
120	120	2
52	52	8
109	109	8
131	141	3
129	129	7
19	19	5
111	112	5
7	8	1
141	141	9
75	75	3
9	15	4
64	69	2
65	66	2
150	150	3
11	11	1
13	14	1
70	70	6
154	156	1
121	121	4
3	3	4
93	148	3
67	71	3
104	104	3
131	132	2
73	73	1
6	8	2
2	3	4
1	1	4
144	145	3
153	155	1
124	125	2
152	152	4
130	130	2
119	144	2
105	154	1
33	46	4
22	116	1
2	113	1
24	24	7
93	96	1
83	84	5
146	150	6
5	5	4
63	68	3
93	143	5
134	135	2
38	39	5
156	157	1
12	25	2
106	106	1
49	49	3
26	26	7
146	146	4
116	116	9
127	128	1
40	40	4
7	12	1
154	155	3
24	30	5
127	127	1
156	156	5
79	80	3
43	44	3
95	97	1
79	79	1
34	34	3
13	32	2
75	77	3
8	16	2
8	8	8
137	138	3
118	118	6
93	93	3
35	35	2
9	9	2
137	148	1
0	0	1
18	19	2
16	16	1
2	2	2
92	158	1
123	124	2
120	121	1
130	149	1
119	119	5
113	114	2
77	83	2
56	57	1
113	113	7
97	97	5
16	17	1
40	41	2
34	37	3
4	5	2
55	55	3
6	6	1
71	72	3
81	81	2
131	144	1
101	102	1
86	90	2
132	148	3
124	124	4
54	54	5
6	11	1
42	42	9
92	92	1
0	3	3
87	87	7
135	135	4
143	143	2
90	91	2
94	157	1
14	47	2
40	110	2
21	22	1
88	129	1
69	82	3
25	30	1
45	46	1
41	41	3
94	95	3
67	67	2
132	135	3
23	78	2
18	18	1
24	112	2
106	107	1
134	156	1
68	68	2
104	105	4
85	85	2
25	111	2
81	82	1
52	53	3
69	69	2
50	51	4
90	90	1
134	142	2
142	142	2
115	115	1
67	70	1
28	64	1
10	12	1
15	16	1
83	83	1
33	37	3
100	100	1
122	124	2
122	123	1
21	21	1
84	84	1
117	117	2
157	157	3
25	112	1
51	52	1
10	64	2
80	80	2
114	141	2
11	27	1
120	123	1
30	30	1
125	126	1
77	77	1
105	105	1
3	4	1
114	114	1
34	42	1
69	70	1
139	140	1
8	10	2
102	102	1
64	67	1
28	28	1
148	149	1
98	98	1
110	111	1
22	23	1
133	133	1
85	86	1
151	152	2
64	68	1
15	19	1
80	86	2
12	12	1
89	89	1
33	34	1
