20	20	12
27	29	6
111	111	8
14	14	9
178	179	6
65	82	1
127	127	14
0	1	6
176	176	1
154	156	1
13	13	10
34	34	2
46	46	2
188	188	7
31	47	4
75	79	2
110	111	2
172	172	15
182	182	8
178	178	8
92	92	5
136	136	8
170	171	7
126	170	3
59	60	2
112	116	2
112	112	12
98	99	1
155	155	2
65	80	2
140	140	9
150	151	2
99	125	2
5	5	7
48	48	8
41	41	14
73	73	8
8	14	8
92	93	7
143	143	5
29	31	5
24	24	5
119	119	3
36	36	9
88	88	8
49	49	3
99	106	3
131	132	3
15	15	5
138	138	10
131	144	2
95	95	7
56	56	15
117	117	9
84	84	5
86	86	9
13	14	2
115	116	2
30	31	4
108	108	17
13	23	3
189	189	1
186	188	4
9	10	7
65	65	2
130	130	4
158	158	5
122	122	5
40	41	10
72	93	5
49	143	1
32	43	4
121	121	7
39	39	1
98	100	2
157	157	9
142	142	12
128	129	6
62	62	17
80	80	5
181	181	8
144	144	5
84	134	5
165	168	5
159	159	3
52	52	10
100	107	3
170	170	10
54	54	15
25	25	6
142	144	3
43	47	4
186	186	12
167	167	5
135	135	9
44	44	4
77	77	11
17	18	3
89	90	3
124	124	1
168	168	11
33	33	7
151	151	6
126	126	2
74	74	7
152	152	7
16	17	8
38	46	5
78	78	9
86	130	3
99	100	2
80	82	2
32	46	2
150	150	11
184	186	4
161	168	4
20	21	4
152	153	1
35	180	6
75	76	7
107	107	5
48	140	1
147	160	7
93	162	1
92	159	1
71	71	13
30	47	2
94	94	3
105	107	3
156	157	2
108	109	2
137	137	3
169	169	9
155	177	5
47	47	3
105	129	2
154	154	8
128	128	9
173	173	4
71	86	1
125	169	4
18	20	2
16	29	4
116	116	9
92	130	1
124	157	2
143	144	5
115	149	6
113	180	5
24	28	6
86	92	3
64	82	5
157	158	3
160	160	5
102	102	9
75	75	4
6	106	2
103	104	1
72	72	18
110	110	11
85	90	4
24	27	3
3	3	10
2	2	9
17	17	8
183	184	1
25	141	1
121	150	10
35	42	3
177	179	3
82	82	7
90	104	1
101	101	10
187	188	8
74	98	1
176	177	4
32	32	8
23	24	3
61	62	2
149	149	10
136	137	5
31	31	10
169	170	4
113	114	6
70	91	6
83	83	10
113	113	2
109	109	3
131	131	5
0	191	2
19	21	1
48	139	4
39	41	2
124	125	3
103	103	6
70	72	3
125	164	2
85	108	2
115	180	2
156	159	2
132	132	7
114	178	2
36	46	4
112	180	5
105	105	2
27	27	5
67	67	6
6	140	3
140	141	4
53	54	5
134	134	7
23	23	2
22	46	1
1	1	8
38	38	4
21	22	6
129	129	6
63	63	6
22	22	2
131	137	3
179	180	7
98	98	2
190	190	3
97	97	5
133	137	4
33	111	1
104	104	9
65	69	1
137	141	2
162	162	5
145	160	1
182	189	1
18	18	3
0	0	4
40	40	5
19	19	4
21	21	1
66	66	4
96	97	3
36	43	3
148	148	3
83	84	7
81	81	3
29	29	5
112	181	1
115	115	4
110	139	5
26	26	13
10	12	1
43	44	3
120	121	2
104	109	5
130	132	2
77	102	3
123	123	3
123	172	5
81	82	2
100	100	2
119	148	2
9	9	1
184	185	2
99	99	5
72	86	2
133	135	1
45	45	12
76	77	2
99	124	1
154	155	1
48	181	1
187	189	1
185	185	18
6	6	1
7	8	2
125	126	1
35	47	5
76	79	3
152	175	1
147	163	2
184	184	3
146	159	1
91	92	4
57	57	4
186	187	3
8	10	3
161	161	3
145	156	1
98	102	1
82	83	3
67	84	1
64	65	3
79	79	2
76	76	2
187	187	2
89	162	2
42	42	3
114	181	1
126	128	4
70	70	2
91	135	2
127	128	6
69	69	4
91	91	2
122	168	2
179	179	4
118	148	3
8	8	3
84	85	1
139	140	1
59	59	7
82	84	9
55	55	3
15	27	2
34	35	2
37	37	6
145	145	3
87	135	1
46	47	3
78	79	2
8	25	1
185	189	1
10	10	1
171	172	2
146	147	2
22	30	4
182	183	9
125	125	5
53	53	4
118	118	4
26	56	4
9	12	2
133	134	1
54	64	3
68	68	3
34	42	2
175	175	2
11	11	7
166	166	3
10	60	2
105	108	1
40	46	3
60	61	1
28	28	1
135	136	3
141	141	5
54	55	1
133	133	4
87	167	1
7	135	3
122	169	2
90	165	1
111	139	2
53	55	1
134	136	2
85	85	5
7	7	3
12	12	1
116	149	2
54	60	1
15	16	3
180	190	2
43	43	4
150	174	1
125	128	3
10	57	1
61	61	2
23	26	1
145	164	2
139	139	4
155	178	1
154	174	2
22	36	1
88	90	4
156	156	1
137	140	1
65	81	1
149	178	1
148	175	1
142	143	1
115	178	1
95	96	1
116	118	2
153	156	2
47	143	1
34	183	3
132	137	2
96	103	1
109	158	1
153	153	1
97	100	1
171	173	4
122	167	3
101	102	3
92	162	3
17	43	2
165	166	1
27	144	1
174	174	2
111	181	1
32	36	1
138	140	1
2	3	2
121	174	1
84	135	1
164	164	2
16	16	2
58	59	2
14	15	2
114	117	2
55	56	1
159	160	1
129	157	1
16	30	3
12	13	1
70	87	3
25	47	1
147	147	2
114	179	3
155	156	1
138	139	1
6	7	2
106	107	1
102	103	2
24	26	1
130	146	1
35	182	1
33	138	2
155	176	1
165	165	1
12	15	1
114	189	1
154	173	1
113	181	2
114	115	1
8	26	1
100	102	1
17	44	1
118	147	1
14	24	1
134	141	1
58	58	1
164	165	1
99	107	1
126	127	1
116	181	1
28	30	1
4	5	2
90	105	1
150	155	1
100	105	1
87	87	1
