112	112	10
142	142	1
150	153	6
86	88	2
15	15	9
47	47	3
138	150	3
29	30	1
81	82	4
111	125	2
92	99	1
82	82	1
116	141	1
0	0	1
155	158	1
40	52	4
118	119	3
23	38	2
99	99	4
2	17	5
10	10	9
27	27	12
104	104	2
8	12	3
13	14	2
140	140	5
26	26	10
152	152	3
34	48	4
55	56	2
16	16	4
121	121	3
34	36	3
97	98	1
144	156	1
136	136	7
107	107	7
135	136	4
79	94	1
44	44	5
45	45	3
75	90	2
100	103	3
139	139	9
35	39	5
8	8	5
114	114	17
69	78	1
94	95	5
11	30	1
54	55	1
116	119	4
62	62	6
75	82	1
127	137	2
113	114	9
80	81	7
137	139	2
118	118	4
24	32	2
77	77	5
97	103	2
68	77	6
44	46	3
1	2	6
2	3	2
102	102	1
152	154	3
78	81	6
141	141	7
125	137	3
136	150	1
17	18	7
138	154	2
32	40	2
144	145	1
116	124	2
122	142	2
51	56	4
25	32	3
33	44	2
55	55	3
51	51	4
132	132	3
67	155	5
153	156	3
11	22	2
33	33	7
150	150	3
44	49	4
120	123	3
36	36	4
76	76	3
21	21	8
104	144	3
95	107	2
118	126	1
83	83	1
129	129	5
90	91	3
67	67	2
136	137	4
127	127	2
39	40	3
101	104	1
0	7	1
94	94	13
34	34	5
69	69	6
21	24	2
156	156	10
38	54	1
110	123	2
105	105	3
104	108	3
79	80	1
147	153	1
28	29	2
21	39	1
11	11	3
155	157	4
137	138	5
19	29	5
143	143	1
96	96	6
130	131	2
134	134	3
92	94	5
15	28	2
23	39	3
3	13	2
138	140	1
3	3	4
36	46	2
98	99	4
130	130	3
36	39	2
23	33	2
69	70	1
137	141	6
67	68	1
22	22	2
109	112	2
49	49	2
93	101	3
140	147	1
117	117	5
133	133	3
2	7	3
18	29	1
85	96	1
138	138	9
90	90	2
49	89	1
103	145	1
127	128	4
125	125	5
12	14	4
109	119	3
41	41	10
5	5	1
110	113	2
108	111	6
92	97	1
106	107	4
16	26	1
85	94	3
11	20	1
18	18	8
141	144	2
111	111	1
95	123	4
87	87	2
32	46	3
47	48	2
122	122	4
96	103	2
148	152	2
52	54	1
63	65	3
24	49	4
14	14	3
116	136	2
114	126	4
128	141	1
35	46	1
83	96	1
92	92	3
144	144	4
118	123	2
38	39	2
114	117	3
116	117	1
83	100	1
87	88	3
40	41	2
12	12	2
121	129	1
103	105	2
127	142	2
31	31	3
92	93	5
3	4	4
124	126	2
34	35	4
115	118	1
86	86	5
154	154	2
135	135	1
78	79	4
116	116	8
20	21	1
21	33	1
3	7	2
125	126	2
28	28	4
7	18	1
72	72	3
49	50	1
112	124	4
63	72	1
71	71	2
150	155	2
109	111	2
132	148	1
18	28	1
39	39	2
79	79	4
54	54	1
8	11	1
88	89	2
23	23	8
45	46	3
76	78	1
50	50	3
153	155	1
98	98	3
3	154	3
67	70	2
107	119	5
23	24	1
137	137	1
47	51	1
68	68	1
63	68	2
31	32	1
101	101	2
121	122	3
68	156	2
95	95	1
5	8	1
68	70	2
4	5	5
24	25	4
42	43	3
63	67	5
106	106	4
24	24	5
19	19	2
32	35	2
88	90	1
117	129	2
48	50	2
84	91	1
75	75	1
84	98	1
107	118	2
158	158	1
78	78	1
134	136	1
22	30	2
31	35	1
115	115	3
56	56	3
155	155	2
64	64	3
4	4	4
112	113	3
40	43	1
20	20	2
16	18	1
45	52	1
35	35	1
17	17	4
21	22	2
148	149	3
114	115	1
113	113	1
129	131	2
89	95	1
63	63	1
83	84	1
136	139	1
35	36	1
99	110	1
56	57	2
44	45	1
143	158	1
153	154	1
137	140	3
5	7	1
77	79	1
72	102	2
92	104	1
143	145	1
113	118	1
108	109	1
146	146	1
110	111	3
45	47	1
85	87	1
26	35	1
155	156	1
64	65	2
123	123	3
97	97	4
0	68	1
151	153	1
32	34	1
77	78	2
126	126	3
146	149	1
36	38	2
6	13	1
88	92	1
34	49	1
121	142	1
88	88	4
145	145	1
132	133	1
62	63	1
85	85	1
133	134	2
109	109	2
62	64	1
26	27	1
30	30	1
25	30	1
131	131	1
46	47	1
71	151	3
120	120	1
45	55	1
14	19	2
43	51	1
107	111	1
72	153	1
50	51	1
65	66	1
125	128	1
87	89	1
22	23	1
20	39	1
33	37	1
46	46	1
32	36	1
52	52	1
136	151	1
18	20	1
40	40	1
151	151	1
153	153	1
70	70	1
42	49	1
2	2	2
131	141	1
139	140	1
117	135	1
89	89	1
103	103	1
124	125	1
134	142	1
67	72	1
87	92	1
68	69	1
70	82	1
57	153	1
34	37	1
115	116	1
100	101	1
9	10	1
1	1	1
15	17	1
64	66	1
