124	125	9
91	91	25
76	129	2
144	144	25
145	145	19
64	64	21
136	136	10
79	79	27
140	140	21
78	79	7
76	76	12
96	110	2
115	115	12
143	144	5
85	86	4
134	134	13
100	100	9
17	18	11
137	137	5
30	97	6
54	54	33
48	105	3
113	128	3
131	132	3
99	126	1
72	72	18
49	51	9
22	38	4
89	89	21
96	97	5
121	121	17
130	131	4
103	104	7
27	38	2
40	41	8
29	57	1
3	3	11
30	72	3
141	141	17
27	27	13
110	110	18
5	14	2
8	106	5
66	66	19
5	5	8
79	128	4
42	42	17
57	57	8
121	123	2
8	9	4
8	8	6
41	41	24
10	10	12
16	17	4
75	75	14
49	49	3
17	17	19
142	144	1
70	71	5
133	133	16
28	28	14
59	60	11
135	135	10
37	37	12
82	82	9
102	102	13
94	94	25
26	26	12
114	119	4
111	112	5
92	94	11
93	93	11
71	71	18
36	37	2
79	94	2
131	131	15
2	2	21
128	128	9
50	51	4
97	111	5
1	1	11
40	40	15
97	97	12
120	121	2
139	139	17
104	111	2
143	143	8
126	126	13
69	70	5
118	142	1
38	38	24
62	62	13
133	135	7
66	67	1
14	34	9
87	110	1
122	122	7
16	16	17
100	101	3
4	5	5
99	100	12
116	117	16
6	124	2
123	124	4
59	59	24
81	81	17
24	24	8
24	26	3
6	41	4
53	54	8
65	65	10
30	58	6
9	9	11
30	30	16
50	55	1
80	120	2
53	53	10
95	107	2
3	4	2
90	91	8
98	98	18
18	18	24
110	111	3
33	34	4
86	86	5
51	51	13
113	113	6
11	11	13
87	88	4
58	58	21
22	22	17
50	50	10
134	136	4
74	74	12
129	129	11
15	15	10
24	25	4
104	104	8
51	52	7
43	43	7
80	80	12
31	32	5
111	111	12
81	124	8
82	83	5
78	83	6
33	33	10
48	48	7
138	138	11
71	72	2
39	39	28
92	92	13
29	29	14
77	77	3
113	123	2
2	40	4
20	21	8
32	32	9
23	24	5
102	103	10
108	110	1
107	107	11
32	36	5
144	145	5
35	35	10
114	118	7
118	136	2
9	10	9
84	84	6
65	66	2
55	56	5
73	73	23
36	43	3
19	108	4
72	75	1
76	78	3
92	126	6
3	33	3
87	87	16
105	105	11
50	52	6
61	71	5
95	98	5
15	16	7
23	27	3
101	101	15
26	131	4
34	34	10
30	101	4
76	112	1
128	130	4
28	29	12
13	13	4
125	126	1
107	108	6
15	52	3
79	81	2
125	125	5
104	122	4
80	124	5
68	68	14
106	106	11
65	70	6
25	26	9
76	83	4
142	142	13
3	6	8
19	21	3
115	117	3
81	102	6
15	102	5
99	99	20
95	95	13
60	60	10
88	88	7
116	116	11
56	56	10
133	139	2
13	57	4
119	119	9
70	70	11
18	19	9
112	112	9
96	108	6
124	124	10
50	56	2
24	27	3
97	144	2
71	90	3
119	132	3
135	140	1
94	95	1
30	102	1
73	87	2
23	23	5
88	89	11
67	68	2
104	106	4
65	67	1
75	76	5
74	91	3
118	118	16
14	14	9
125	127	4
61	61	9
38	141	4
13	63	3
79	82	3
26	68	1
62	64	4
127	127	5
27	34	2
41	42	8
108	108	18
113	119	2
24	66	3
76	79	7
103	124	4
1	2	6
103	103	9
29	61	8
72	73	7
57	60	3
32	60	4
113	115	5
2	4	5
126	127	8
18	103	2
22	23	5
4	4	7
26	66	2
113	120	1
130	130	7
128	141	2
25	37	1
113	121	3
69	69	11
20	24	1
65	69	1
14	15	1
75	123	2
98	99	3
133	141	4
77	78	3
12	12	8
62	63	1
141	142	4
101	103	4
31	31	13
55	55	4
27	28	5
114	114	3
122	124	1
68	69	2
131	133	3
22	27	4
134	135	1
107	110	2
36	54	6
61	62	2
113	124	2
93	98	3
52	52	9
122	123	4
88	90	2
139	140	3
19	24	2
63	63	6
113	114	3
70	74	2
47	47	12
109	109	11
60	61	4
95	96	4
120	120	4
116	130	4
128	129	2
84	87	8
119	120	3
58	63	5
118	141	4
55	107	2
88	109	1
62	93	2
39	40	10
80	83	6
72	74	7
95	141	1
8	10	2
38	39	2
43	54	3
56	57	4
129	130	3
12	25	1
1	3	2
22	57	1
105	106	1
138	140	2
59	63	2
57	63	5
133	134	4
67	86	1
132	132	6
123	126	3
117	136	1
70	90	1
18	31	1
59	62	2
8	30	4
35	36	3
80	81	2
115	120	3
85	93	2
112	113	10
116	128	2
114	115	3
31	33	3
16	52	3
15	51	1
97	98	3
131	135	3
82	122	2
49	56	3
91	92	6
119	129	2
15	18	2
80	95	3
57	142	1
26	27	3
114	120	1
63	64	4
34	37	2
54	57	1
8	11	3
32	33	4
112	130	2
37	38	4
67	67	4
92	93	2
71	76	2
84	95	1
15	31	2
13	14	3
54	56	3
81	82	2
36	36	2
89	90	5
19	20	4
38	53	2
58	59	1
29	63	2
19	107	1
56	63	3
120	132	2
78	78	6
86	93	1
65	88	3
52	53	5
87	96	3
14	33	2
21	22	1
90	90	7
82	87	2
84	106	1
124	126	1
116	131	3
9	17	1
117	134	2
75	90	1
81	122	1
104	105	4
91	94	3
119	131	5
94	124	1
123	123	1
83	84	1
34	75	1
36	142	1
56	97	2
46	46	3
6	37	1
138	139	3
33	38	1
64	65	4
4	6	1
87	91	1
42	43	2
20	27	1
21	21	1
6	6	1
72	91	1
19	19	3
76	77	6
101	102	3
39	41	2
105	124	2
106	107	2
41	105	2
72	86	1
13	36	1
80	122	2
36	46	3
103	113	3
29	74	1
118	127	1
87	109	1
28	30	3
41	53	2
6	16	1
98	144	1
123	133	3
31	60	2
23	26	4
93	96	1
79	80	3
96	96	3
10	11	2
71	89	1
17	39	1
26	38	1
17	28	2
25	27	3
15	124	2
28	62	3
21	28	2
93	126	1
77	114	1
47	57	1
20	20	4
3	5	1
68	71	1
137	138	1
21	105	1
115	116	1
81	120	1
83	83	2
64	66	1
137	140	1
49	52	1
35	37	2
142	143	2
0	1	1
49	50	1
126	130	4
75	124	2
31	143	1
37	117	2
114	116	1
129	133	1
37	59	1
22	96	1
0	0	1
87	95	1
6	38	1
84	91	1
22	26	3
82	88	1
66	87	1
93	112	1
77	115	1
25	25	1
131	137	1
117	133	2
146	146	2
57	58	1
122	132	1
105	121	1
38	59	1
104	121	1
50	53	1
67	90	1
34	35	1
