153	153	16
217	217	2
239	239	5
105	106	5
229	229	9
38	38	12
222	222	1
82	82	3
106	106	5
109	109	10
65	66	5
226	226	11
197	197	8
83	83	11
75	75	5
176	176	17
207	225	2
31	31	14
228	228	7
23	44	2
52	52	5
59	59	10
33	33	4
198	198	15
4	112	5
88	88	7
200	201	2
175	176	2
230	230	9
184	185	4
165	165	4
47	47	1
235	235	17
6	47	5
10	10	4
14	14	5
169	169	9
189	189	4
176	178	2
180	193	6
212	212	8
70	70	11
34	34	16
162	163	7
94	95	5
183	184	2
220	220	4
71	71	11
247	247	6
164	175	4
223	223	16
229	230	7
43	44	2
27	27	16
69	70	6
63	63	9
225	225	3
37	42	5
177	177	7
41	41	8
9	9	9
86	86	5
235	240	2
62	63	6
21	24	3
21	26	3
21	22	5
114	114	2
191	191	8
206	206	8
76	77	1
195	195	7
50	50	11
94	94	7
205	206	5
246	246	10
193	193	20
84	84	8
96	96	9
178	178	5
183	183	6
54	54	8
153	206	1
6	23	2
160	160	4
218	237	5
219	219	7
110	152	4
61	61	10
245	245	6
57	61	6
231	231	3
4	5	8
20	20	6
89	89	6
104	107	6
57	57	8
158	158	5
42	44	3
99	99	8
37	37	9
242	242	5
19	19	4
172	172	12
95	95	9
205	205	1
26	26	14
30	30	8
156	156	11
26	27	2
152	156	1
166	166	14
114	115	2
22	23	3
149	149	10
28	28	9
100	100	5
31	245	4
186	186	9
85	85	12
211	211	6
55	55	13
161	161	3
214	240	1
85	145	5
213	213	18
182	183	2
77	77	10
36	36	2
213	214	2
248	248	1
233	233	5
69	72	3
198	210	1
98	98	9
68	69	5
190	192	3
229	247	1
88	90	3
43	43	8
164	164	7
24	25	3
209	210	3
32	32	13
188	188	1
30	246	4
7	7	11
151	167	3
111	111	8
86	87	2
115	115	8
60	66	3
150	150	4
215	215	10
198	199	2
49	49	5
204	205	3
73	73	7
67	67	11
79	115	2
150	151	3
237	237	7
7	13	1
146	146	4
62	62	4
179	179	7
214	214	9
4	12	3
167	167	9
60	60	4
164	168	1
193	194	2
79	79	10
227	227	7
76	76	11
243	244	3
218	247	3
93	94	4
12	12	7
172	173	7
89	92	3
162	162	11
66	66	10
91	91	11
62	226	2
101	101	6
87	87	1
175	175	6
201	201	8
60	69	3
3	3	5
108	108	5
118	118	5
95	96	3
179	182	1
204	209	4
155	155	2
184	184	9
110	110	7
116	117	8
238	238	10
221	221	3
164	165	2
113	113	6
202	202	8
91	94	2
208	208	5
182	182	3
160	178	1
218	219	6
53	54	11
29	29	4
97	97	11
90	118	2
224	224	5
157	162	1
38	43	2
27	28	2
80	81	2
27	29	2
45	45	7
49	187	2
177	189	3
181	181	7
180	180	3
231	236	1
244	245	2
78	78	1
35	35	4
187	187	5
196	196	2
69	69	3
65	65	5
185	185	3
89	111	2
44	45	1
74	74	9
87	89	8
192	192	5
33	34	5
157	157	7
194	195	5
168	169	6
213	240	1
174	174	7
11	11	4
53	55	1
48	48	4
212	213	7
173	174	2
61	66	5
170	170	10
171	171	10
64	64	8
151	151	4
216	216	2
71	230	2
16	16	8
39	40	5
61	62	3
83	84	2
150	155	1
219	247	1
21	21	6
70	92	3
101	114	3
200	200	2
241	241	5
108	110	2
100	101	7
15	15	12
46	52	2
25	25	5
28	245	1
56	56	7
158	162	2
167	168	3
236	236	4
64	66	8
32	200	1
90	197	1
4	4	7
220	221	3
145	207	2
180	182	2
203	203	3
4	14	2
207	207	1
222	246	3
232	233	4
80	80	3
216	229	2
235	236	4
6	6	5
110	156	2
63	83	1
190	190	2
9	10	2
244	244	3
41	230	1
61	67	1
116	116	6
48	50	2
233	234	3
103	103	5
90	97	2
81	82	3
179	183	1
22	22	4
35	59	2
110	111	7
92	92	2
213	215	1
15	23	1
147	147	4
86	88	3
40	40	5
221	248	4
230	235	1
161	162	4
104	117	1
199	199	3
68	70	1
42	43	4
230	231	1
28	29	2
191	193	1
168	168	2
58	58	5
51	51	7
13	14	2
187	195	1
222	243	3
117	117	5
207	208	4
79	80	3
51	52	3
228	229	1
224	246	4
209	209	7
35	48	3
76	78	2
169	170	2
218	218	4
8	8	5
36	46	2
46	46	2
204	204	4
32	203	1
163	163	2
152	153	2
225	226	2
72	72	3
90	90	3
232	232	5
32	33	1
25	26	2
14	16	1
33	160	1
58	59	1
211	212	3
83	96	3
142	142	3
180	185	3
42	42	6
118	119	3
89	90	3
75	76	1
68	68	6
222	232	1
171	172	1
40	41	1
87	88	1
75	225	2
36	39	2
65	81	1
1	1	4
165	171	2
73	225	1
107	117	1
96	97	2
44	44	2
112	118	2
104	104	5
55	56	2
23	30	2
165	170	2
223	246	1
5	5	2
205	213	1
231	232	1
2	6	1
174	175	2
112	112	4
87	120	2
169	171	1
53	53	3
17	46	1
8	9	1
84	95	1
164	170	3
115	117	3
17	18	2
82	115	4
68	73	1
149	150	1
21	27	1
240	240	4
33	54	1
30	31	1
52	53	3
159	161	2
167	183	2
46	47	2
15	113	1
29	32	1
108	158	1
186	187	1
1	2	1
54	55	2
8	111	1
18	18	1
61	71	1
14	21	1
46	48	4
39	39	2
43	200	1
227	246	1
170	171	1
159	162	2
7	112	3
196	197	1
23	32	1
169	194	1
227	228	1
102	102	1
154	154	1
119	119	1
6	7	1
234	234	2
7	14	1
223	244	1
35	36	2
96	98	3
237	238	1
67	69	1
71	75	1
2	2	2
38	39	1
66	67	1
213	227	1
166	167	1
199	200	1
88	89	1
91	92	1
173	173	1
190	191	1
100	109	1
4	47	2
194	194	1
242	243	1
92	93	1
