3	9	5
97	98	6
13	15	4
101	101	2
64	64	7
69	69	1
4	4	5
58	58	2
105	105	5
98	98	3
101	102	2
92	112	4
76	91	1
34	34	6
96	96	3
22	22	5
79	79	3
52	52	3
114	114	6
65	67	1
97	97	5
8	8	5
27	27	4
29	29	4
11	11	3
61	69	4
50	71	2
96	108	3
6	7	3
9	10	4
79	80	1
75	75	7
77	77	13
21	22	2
7	8	1
104	104	4
31	31	2
116	121	1
24	24	2
28	65	1
117	118	6
45	45	6
12	12	3
23	23	3
82	82	3
83	97	3
117	117	7
5	7	3
25	43	2
95	95	2
128	130	3
84	124	6
2	2	7
35	69	2
44	44	13
19	19	5
74	131	1
47	47	2
78	105	2
43	49	2
73	88	1
3	3	5
26	26	4
23	24	3
3	4	1
62	63	3
82	84	2
9	9	1
127	127	2
73	131	3
83	83	8
102	102	10
9	16	1
76	89	2
4	8	1
2	26	3
134	134	5
63	65	2
52	132	5
55	64	2
65	65	5
100	100	8
10	23	5
15	15	3
26	50	5
43	43	2
58	63	2
38	38	3
123	123	6
91	91	8
131	131	3
80	80	12
112	112	4
7	27	3
107	107	2
50	50	6
64	69	2
5	5	4
6	6	5
73	73	6
55	56	2
114	115	1
35	35	4
37	69	6
103	103	2
92	93	3
118	118	4
36	38	3
107	113	1
126	132	1
34	35	2
94	94	2
118	124	3
59	92	2
48	48	4
82	95	1
86	87	2
30	71	2
1	1	4
119	120	1
78	79	2
59	105	3
7	10	1
58	62	1
30	31	4
0	121	2
33	33	4
115	115	4
61	61	1
134	135	1
21	36	1
1	2	1
109	110	1
54	54	2
127	133	4
102	103	1
5	6	1
90	90	4
0	0	3
17	18	1
130	130	4
10	17	4
53	54	3
126	126	5
84	84	3
62	62	4
76	106	2
106	106	1
73	74	2
87	87	4
65	66	2
19	20	3
13	13	4
116	131	2
58	76	2
58	106	1
65	68	3
30	30	1
70	70	3
55	55	1
105	106	1
66	66	1
125	125	3
34	99	2
132	132	1
57	57	5
24	60	1
20	20	6
18	18	1
120	120	2
98	99	1
44	49	1
110	110	4
115	121	3
92	111	2
59	107	2
28	29	2
78	78	1
57	58	2
25	66	1
63	63	1
32	120	1
55	65	3
16	16	5
44	78	4
27	28	2
62	71	1
12	14	3
16	24	2
60	61	2
99	99	3
85	124	1
85	85	3
67	67	2
99	101	3
90	94	2
60	60	2
10	10	2
45	47	1
90	105	2
64	65	2
121	121	1
101	123	1
4	6	2
116	117	2
129	129	2
21	21	1
56	61	1
70	71	1
86	86	4
78	111	2
76	76	1
83	98	2
15	22	1
1	3	1
125	130	1
52	64	2
99	129	1
126	127	1
124	135	1
60	62	2
28	28	2
32	71	1
99	100	1
133	133	1
92	92	1
82	88	1
76	114	1
129	131	1
88	121	1
14	15	1
3	10	1
68	68	2
13	14	1
57	96	2
89	89	1
55	60	1
111	112	2
37	66	3
97	99	1
15	24	2
113	114	1
53	108	1
7	9	2
121	122	1
80	91	1
113	113	1
25	54	1
108	108	1
27	54	1
77	115	2
34	37	1
86	133	1
71	74	1
43	68	1
9	11	1
58	64	1
111	111	1
112	113	1
91	112	1
81	81	1
76	93	1
128	128	1
72	72	1
54	55	1
32	32	1
