100	104	3
39	39	6
23	23	6
25	25	5
143	143	7
111	112	2
171	171	4
31	33	2
146	146	6
165	165	2
62	63	7
113	113	6
138	138	16
48	48	17
22	34	2
124	127	3
122	128	1
50	50	12
56	56	3
137	137	2
11	16	3
168	168	7
16	31	3
9	12	2
130	171	4
110	110	8
105	107	4
123	124	3
49	49	10
68	140	1
45	45	7
55	56	10
0	0	5
2	5	5
14	14	7
44	44	5
116	116	6
52	52	9
169	169	3
79	83	3
84	84	7
139	167	6
15	16	4
182	182	8
132	132	2
26	28	4
46	47	4
20	20	5
70	113	3
84	175	2
40	40	5
184	184	6
66	87	1
101	101	10
1	17	3
55	55	11
157	157	5
78	178	4
136	141	1
99	99	3
102	102	9
78	78	5
149	151	2
4	5	2
43	43	5
46	46	3
105	105	1
24	33	7
195	195	8
38	38	12
63	67	1
155	155	7
148	148	2
178	190	8
68	159	1
122	183	2
147	147	2
68	68	2
122	123	4
119	120	1
118	118	5
29	29	4
35	35	4
139	140	4
36	190	1
11	156	1
164	164	4
122	160	3
167	167	6
134	134	17
113	114	5
4	4	5
170	170	9
18	40	3
74	90	4
186	186	7
70	70	4
129	135	3
177	177	2
127	127	8
123	197	2
100	100	5
58	66	2
32	47	4
31	47	2
96	96	5
30	30	2
197	197	3
109	109	7
119	119	2
123	127	1
163	163	3
78	79	6
81	82	4
122	122	6
139	139	5
8	8	8
22	82	2
32	32	8
17	17	9
85	142	3
22	96	4
16	27	1
175	175	4
145	171	2
33	34	1
9	9	3
1	20	3
131	131	5
111	128	1
169	170	2
37	37	8
71	71	1
114	114	7
172	174	4
166	166	6
86	145	3
78	80	2
59	59	4
66	75	4
37	190	2
26	26	4
125	125	4
102	118	2
110	111	4
194	194	6
15	15	7
64	64	6
69	70	3
127	128	1
82	82	1
54	54	3
161	163	1
67	139	3
183	196	1
36	36	6
193	193	9
104	106	1
27	28	2
40	109	3
53	95	3
67	67	4
73	126	1
6	6	4
188	188	4
128	128	9
53	53	3
88	88	5
57	57	6
57	64	4
103	116	1
29	102	1
17	27	1
94	95	1
55	67	1
152	152	2
109	111	3
9	138	6
187	188	2
94	98	3
56	57	1
185	185	4
129	130	1
102	103	5
13	49	2
12	12	7
42	43	4
191	193	1
186	187	2
27	27	1
24	38	2
136	136	1
146	148	4
24	27	3
81	81	4
83	83	1
33	33	4
111	111	3
115	115	3
37	193	1
79	80	3
150	164	2
156	195	2
149	149	4
189	189	2
39	40	3
161	161	1
183	184	1
130	130	3
14	140	2
20	39	1
134	135	5
58	58	3
152	153	4
37	39	1
12	13	4
168	169	4
96	97	2
181	181	4
144	145	4
168	175	3
129	129	5
27	43	1
150	150	6
123	123	4
47	48	2
40	108	5
120	160	3
140	171	3
5	5	7
60	62	1
187	193	1
147	167	2
98	98	5
183	183	7
103	103	3
48	141	1
8	18	1
35	36	2
72	72	4
16	17	2
48	49	2
46	48	3
129	165	2
12	187	3
2	9	2
179	179	3
161	170	1
124	124	3
159	169	2
148	150	3
196	197	4
54	55	4
3	53	2
162	162	2
29	174	1
51	51	5
73	73	3
112	118	1
53	56	6
19	19	4
104	180	3
69	137	1
186	188	2
75	75	1
170	182	2
134	163	1
12	14	2
160	161	2
47	47	3
86	167	1
41	41	5
32	103	1
51	55	1
22	22	3
34	34	4
65	65	4
171	182	3
134	160	2
156	156	1
187	187	3
66	66	2
119	123	1
11	11	6
60	61	1
94	94	4
106	106	1
20	179	3
146	147	2
1	1	4
0	1	2
39	41	3
57	159	3
121	121	2
113	142	2
88	89	2
64	66	1
69	69	1
40	41	3
135	137	1
32	33	2
31	31	3
194	196	3
94	139	1
179	180	1
142	171	1
161	162	1
141	171	2
40	105	1
158	158	3
162	164	1
158	172	1
24	34	1
2	2	1
196	196	2
138	170	1
100	101	3
11	63	2
94	108	1
126	126	2
74	74	1
58	134	1
55	131	1
77	77	1
76	76	1
94	96	3
174	189	1
149	156	1
142	142	3
101	161	1
107	122	1
72	73	1
23	24	3
75	79	2
173	174	1
172	194	1
86	86	3
133	133	1
144	144	2
24	25	1
105	112	1
124	125	1
172	172	3
79	79	2
100	182	1
180	180	2
67	103	2
105	106	1
31	32	3
3	3	2
53	54	1
71	86	1
174	175	1
140	140	1
23	60	3
70	77	3
46	112	1
157	158	1
162	166	1
22	23	2
74	78	1
156	159	1
174	174	1
145	145	2
165	166	1
118	122	1
178	178	2
130	131	2
104	104	1
127	135	1
70	71	1
24	31	1
62	62	1
121	122	1
120	120	1
179	181	1
143	145	1
156	158	1
84	168	1
13	13	1
148	151	1
101	104	2
32	128	1
