6	7	9
55	55	30
13	15	1
55	56	8
30	30	44
25	25	21
1	1	48
16	16	21
45	45	24
18	18	35
10	49	3
29	30	4
47	47	40
24	24	30
4	9	1
5	5	16
37	37	32
38	40	5
43	43	41
44	44	41
20	20	39
3	3	45
37	39	10
21	21	32
13	13	19
32	32	37
52	52	46
51	51	35
34	35	20
47	48	18
5	52	3
3	9	2
38	38	20
10	10	36
0	0	34
19	20	9
34	34	40
59	59	20
62	62	10
57	58	6
12	12	24
41	41	40
19	22	11
57	60	7
33	33	42
23	23	15
46	47	14
15	16	19
41	45	5
39	40	7
35	35	34
36	36	38
19	19	24
53	57	2
11	11	22
29	59	1
54	54	23
21	24	5
50	51	9
41	42	10
45	57	6
31	40	5
40	41	25
4	7	3
40	42	13
57	57	33
11	13	2
48	49	7
7	13	3
21	23	1
31	31	23
4	56	6
39	39	20
0	1	3
2	2	29
41	56	4
12	13	12
37	38	14
48	48	30
22	54	2
16	40	3
9	9	20
50	50	38
51	52	14
10	11	15
58	58	25
56	57	12
6	6	7
17	17	19
19	40	2
14	15	7
49	49	13
60	60	17
42	45	4
46	46	27
8	8	14
22	39	3
22	23	8
14	14	21
33	37	2
33	60	2
30	31	12
6	9	10
52	53	8
56	56	22
5	8	3
61	61	15
53	54	8
16	23	3
45	46	8
42	42	38
20	21	15
56	60	2
13	17	11
37	58	3
52	55	8
20	39	2
47	55	1
1	2	12
8	23	1
4	4	12
17	34	4
38	39	7
55	60	8
2	4	8
7	7	13
10	12	4
5	15	3
21	31	3
16	54	2
53	53	21
4	21	1
38	42	1
42	56	1
54	56	2
35	36	9
2	18	8
8	20	1
33	34	6
16	18	2
10	60	7
40	40	17
49	51	1
3	4	8
0	31	1
49	55	3
19	60	1
43	45	4
22	22	16
32	33	7
1	19	3
13	16	5
25	30	7
46	56	6
13	14	3
31	47	2
45	52	3
19	31	3
15	15	18
38	58	1
36	62	2
6	23	3
23	39	3
50	52	5
8	50	1
32	34	4
37	40	6
49	61	2
37	51	4
44	45	4
49	53	2
10	15	2
10	18	2
26	26	2
43	48	3
7	59	1
3	5	5
60	62	3
8	9	3
0	5	6
5	6	16
4	5	5
15	52	1
44	57	3
8	16	1
39	42	4
7	23	1
22	38	9
40	45	1
0	22	3
49	50	11
22	24	6
48	57	2
14	60	2
38	59	5
58	59	4
16	17	10
15	51	3
17	39	2
21	36	2
21	38	1
38	43	1
7	17	2
8	49	2
7	8	7
18	19	3
9	11	2
2	3	5
9	10	9
42	49	1
56	58	4
25	26	3
11	14	3
8	13	5
0	4	1
21	39	6
9	37	3
8	10	3
45	58	3
38	54	2
46	48	4
18	23	2
29	38	1
30	36	2
47	57	1
43	47	5
37	54	5
7	9	1
24	25	2
54	57	1
21	45	3
18	20	2
11	12	7
12	16	5
18	42	4
51	56	3
39	56	5
53	56	1
54	55	1
38	56	7
3	50	1
23	24	6
38	60	1
43	44	7
3	19	3
10	58	1
31	36	2
25	37	1
18	40	1
1	61	2
53	55	2
46	59	1
46	52	1
24	58	2
42	43	5
12	14	4
19	23	2
52	54	3
2	56	5
54	59	1
16	24	4
59	60	7
7	21	2
29	29	2
6	54	1
54	58	1
8	25	1
17	29	3
50	57	4
20	24	1
14	17	1
15	18	2
0	2	1
32	36	2
38	41	2
18	45	1
21	22	1
22	40	3
3	55	3
5	20	1
33	35	1
6	15	1
1	56	2
29	35	1
4	19	1
13	62	1
36	56	2
1	24	1
8	19	1
2	6	1
18	31	2
21	62	1
58	60	1
8	58	1
8	26	1
6	22	2
51	57	1
26	33	1
18	21	1
49	56	1
14	25	1
8	42	2
38	51	1
9	19	2
31	46	1
39	41	2
6	41	1
32	47	1
36	37	2
39	59	1
2	19	2
41	50	2
44	46	1
17	18	1
11	19	2
13	19	2
15	21	1
60	61	1
5	57	1
18	50	1
39	60	1
39	61	3
2	33	1
16	51	1
30	35	1
61	62	1
7	22	1
3	18	1
8	11	1
30	49	1
