103	103	24
31	32	19
76	76	16
123	123	28
125	126	13
16	16	53
131	132	5
9	9	59
106	106	32
122	124	4
10	11	8
3	3	52
33	33	33
123	124	13
22	107	3
19	19	43
125	125	9
1	1	28
1	2	8
38	38	24
129	130	10
89	91	3
83	122	4
132	132	40
88	88	47
126	126	19
32	72	2
23	23	55
7	9	6
3	82	3
115	116	12
72	72	28
7	7	42
98	99	13
111	112	13
99	99	39
130	130	34
108	108	24
9	25	4
118	118	32
106	116	2
102	102	37
87	87	61
24	24	58
29	29	35
16	37	6
13	37	5
30	30	42
25	25	39
75	86	5
8	9	11
86	86	51
110	111	17
135	135	28
16	17	11
22	23	12
18	18	45
2	2	47
12	12	34
19	20	10
104	104	27
82	83	15
34	34	36
20	20	33
112	112	56
37	37	34
6	7	24
2	3	8
134	134	12
26	26	23
77	78	26
10	10	28
36	37	8
22	22	24
27	28	14
133	133	24
3	43	1
109	110	4
13	13	42
5	5	34
8	8	39
85	85	27
100	100	26
18	102	6
85	89	5
116	116	36
114	114	36
77	77	50
115	131	4
140	140	18
92	93	7
91	92	12
21	115	8
3	71	1
128	128	21
25	26	15
114	116	6
127	127	15
34	35	11
110	110	41
125	131	2
71	71	23
74	74	56
10	12	10
32	32	35
12	13	10
120	122	7
124	124	32
105	106	9
78	78	53
90	91	8
108	117	2
0	0	34
111	111	27
81	86	4
102	118	1
4	5	23
119	120	16
113	113	24
115	115	34
101	116	3
106	107	21
6	6	34
109	109	32
101	101	42
15	15	33
73	73	43
88	108	6
78	113	4
37	100	2
122	123	10
120	121	9
102	103	3
4	4	29
85	87	6
94	107	4
103	104	15
95	95	32
72	73	13
31	31	20
119	119	23
32	38	2
78	81	9
81	85	1
7	8	23
96	96	30
114	127	1
100	101	22
106	111	3
81	81	22
28	28	34
103	105	7
98	98	25
131	131	28
84	123	6
17	17	36
126	127	7
38	73	5
96	104	5
117	118	3
11	11	31
107	107	16
118	119	15
14	17	4
87	88	5
15	73	6
75	75	38
79	80	13
29	30	6
124	125	12
104	105	26
22	114	2
28	29	9
97	98	10
35	35	36
104	120	2
101	102	13
79	121	4
30	31	22
84	84	22
82	82	29
105	105	33
92	92	17
102	117	4
97	97	18
94	95	9
88	89	4
111	120	3
23	25	3
74	92	2
5	6	12
78	91	3
5	12	4
3	4	12
89	89	46
119	123	2
120	120	23
86	87	11
24	26	5
127	129	4
6	9	2
79	88	2
75	76	7
78	87	4
79	87	3
79	79	17
130	131	12
13	14	13
11	13	4
136	136	14
17	74	5
4	82	3
93	94	11
21	21	27
123	126	1
76	77	11
71	72	6
76	85	3
4	12	1
91	91	19
89	90	9
83	85	4
108	109	21
79	92	2
14	14	17
137	137	21
80	80	27
82	85	5
98	116	3
0	1	4
14	15	5
15	16	10
99	100	17
9	10	6
73	74	13
24	25	13
22	25	2
139	139	20
80	114	2
16	124	3
11	27	3
21	22	13
121	121	11
134	136	5
90	90	14
12	66	2
23	24	4
80	81	11
137	138	15
94	94	29
83	83	24
108	128	2
0	35	6
90	115	2
27	27	28
93	93	35
73	87	3
74	75	24
6	8	7
74	76	9
79	83	3
128	129	12
116	124	1
94	122	2
27	32	6
16	31	1
90	93	3
36	36	22
32	33	12
68	75	4
116	117	7
107	108	5
82	90	1
78	79	11
103	108	2
117	117	18
90	112	1
81	83	7
88	111	6
77	91	3
96	97	5
18	20	4
72	74	4
96	100	5
4	14	1
85	86	16
138	138	10
73	76	4
7	10	4
18	80	3
132	133	6
35	87	3
90	92	9
121	124	1
81	84	2
10	37	1
98	107	2
121	123	5
30	92	1
121	122	6
3	16	2
25	27	4
3	5	9
30	32	6
35	36	8
45	74	1
122	122	15
109	111	5
76	82	1
114	115	13
26	80	5
85	88	3
116	125	2
88	109	2
14	38	6
75	79	2
82	91	2
15	72	1
14	37	3
6	99	3
71	73	7
89	111	5
113	114	2
129	129	10
100	107	2
106	109	3
79	125	1
75	108	2
18	19	14
136	137	1
6	26	4
22	27	2
110	120	4
97	110	2
133	135	2
17	30	9
84	88	1
80	121	1
32	74	3
17	120	2
27	130	1
91	117	1
22	89	1
123	125	1
95	97	4
97	99	9
24	28	1
126	130	3
79	119	1
81	122	3
113	118	5
79	84	4
1	14	2
77	81	2
37	38	4
2	35	2
35	108	1
92	94	1
93	122	3
114	125	1
110	116	3
33	34	10
27	117	5
101	119	3
84	85	11
83	84	2
115	125	3
113	120	3
25	28	3
102	119	4
22	26	2
15	17	1
1	6	2
127	128	5
101	125	3
82	84	1
84	121	3
7	105	1
75	87	2
83	90	5
102	104	4
15	71	2
2	4	2
101	109	1
11	80	2
79	106	1
26	27	3
94	104	3
103	113	1
77	114	1
105	113	4
17	121	1
93	104	3
13	106	1
17	19	2
75	78	2
21	28	2
26	28	4
7	98	1
26	30	1
136	138	2
79	81	6
31	73	2
15	33	3
11	12	4
99	108	1
126	128	2
98	132	1
8	27	2
32	92	3
24	27	2
9	14	2
101	105	1
74	95	1
34	124	4
111	115	2
119	121	1
17	18	3
10	13	2
134	135	6
79	120	1
16	72	1
85	117	1
105	117	2
21	104	1
13	15	1
18	111	1
28	32	1
20	27	3
95	96	3
10	82	2
80	87	2
6	88	2
21	113	3
8	10	1
123	131	2
113	119	4
84	86	1
16	81	2
13	16	1
81	82	1
85	90	2
38	119	3
23	80	1
76	106	1
27	125	1
69	69	3
116	120	1
104	106	2
90	120	1
103	109	1
105	112	3
33	122	1
91	112	1
135	139	2
0	4	2
114	126	1
139	140	1
100	102	2
86	88	3
129	131	2
19	101	1
9	95	2
83	121	1
26	32	2
11	31	3
72	77	2
17	71	1
135	136	1
79	114	1
89	115	1
11	30	1
71	127	1
101	103	2
105	107	2
108	110	1
85	119	3
91	123	2
107	117	1
115	117	2
89	112	5
103	124	2
18	107	1
19	21	2
108	127	1
119	130	2
103	119	1
125	127	1
72	106	2
100	103	1
129	132	3
110	114	1
0	71	1
14	107	1
15	34	2
110	112	1
77	79	2
20	21	1
100	128	1
22	24	1
81	91	1
87	95	1
9	12	1
92	95	1
114	123	1
92	114	1
100	125	1
78	84	1
84	87	1
6	38	1
37	101	1
98	108	1
33	132	1
128	131	1
0	37	1
9	105	1
6	82	1
116	127	1
79	123	1
93	95	1
