182	182	3
29	29	4
112	112	3
61	61	2
12	13	5
138	139	2
174	174	3
175	175	7
48	48	2
28	29	1
108	109	2
116	132	4
129	129	4
80	80	6
130	130	8
55	55	4
168	179	6
68	151	3
164	164	5
165	165	6
91	95	5
95	97	1
10	11	3
64	68	2
8	9	3
57	101	4
141	141	2
98	99	3
71	72	1
120	121	2
140	155	3
82	82	12
136	154	7
125	128	3
63	63	1
78	78	3
23	31	1
4	4	5
95	95	9
35	35	2
37	37	10
33	35	1
164	177	4
44	46	3
163	163	4
176	177	3
71	95	1
77	77	10
40	40	3
131	131	2
26	26	5
116	116	6
81	83	2
60	101	3
92	92	3
102	104	1
124	128	2
172	172	4
63	103	1
116	119	1
87	87	1
79	79	3
123	123	9
186	186	4
99	100	2
104	107	2
152	152	1
115	115	6
125	125	6
17	17	5
42	42	5
166	166	3
43	43	5
24	24	3
18	19	2
165	183	4
168	187	1
8	10	2
190	190	7
169	170	1
106	115	1
99	153	4
16	17	1
131	177	2
67	68	5
187	188	4
59	59	8
122	122	7
135	137	4
27	27	2
129	131	2
147	147	5
85	85	1
34	35	3
20	20	2
102	102	10
111	111	3
124	133	2
32	33	2
111	112	2
33	33	3
115	117	4
53	53	1
59	92	2
21	23	2
155	172	2
181	181	3
169	169	3
183	183	4
63	141	1
97	98	4
149	149	3
59	91	2
164	166	1
139	139	2
11	12	3
75	89	2
126	127	2
4	22	2
73	74	1
73	76	4
178	178	4
103	142	1
179	180	3
140	140	2
170	171	2
71	78	5
0	32	1
19	20	3
102	153	1
90	92	1
60	60	2
83	83	3
10	10	2
175	177	1
75	75	2
104	110	1
161	161	2
4	23	2
150	150	1
34	34	1
104	109	1
2	2	2
137	137	5
94	95	3
158	158	4
108	110	1
100	121	1
180	180	2
32	32	2
22	66	1
58	71	1
124	125	2
189	189	1
169	173	2
167	187	2
132	133	4
97	97	5
76	77	1
184	184	6
156	183	4
22	30	2
47	48	6
121	122	1
71	113	2
25	25	4
184	186	1
2	66	2
156	169	1
136	136	3
63	152	2
142	143	2
164	165	5
144	150	1
94	94	3
21	24	2
77	78	2
173	186	3
164	182	1
173	173	7
11	33	1
10	32	1
22	28	1
53	54	3
113	113	2
189	190	2
162	177	1
72	72	3
129	133	1
5	5	5
20	25	2
123	124	6
140	144	3
28	67	1
74	88	4
9	29	1
93	93	2
65	150	3
66	151	3
20	21	1
91	93	1
90	94	3
127	127	4
65	65	2
142	144	1
162	166	2
88	88	4
118	119	1
162	162	1
121	121	2
126	133	4
99	99	1
44	44	4
28	28	2
100	120	2
99	154	2
57	102	3
103	103	4
108	108	9
75	82	2
136	137	3
166	187	1
100	100	3
104	115	1
91	91	2
123	139	4
133	133	7
92	93	2
124	124	3
56	56	3
39	48	1
154	154	1
23	23	7
6	20	1
144	145	2
6	6	3
4	26	2
1	2	2
143	143	3
153	153	3
42	44	1
117	117	1
166	167	1
7	8	1
65	66	1
104	104	4
36	36	3
128	128	5
81	89	1
8	32	1
0	4	4
8	37	3
171	171	2
18	18	1
114	114	6
151	151	3
14	14	4
55	56	1
67	67	1
132	132	3
120	120	3
46	48	2
167	167	1
86	86	3
6	25	1
42	43	2
134	135	1
176	178	2
87	88	3
4	67	2
25	26	2
66	66	1
66	68	1
101	101	6
105	114	3
185	185	2
58	58	1
59	60	1
23	24	1
98	98	4
58	78	1
127	128	2
144	149	2
177	180	2
88	93	1
146	146	1
70	70	2
74	80	2
7	7	4
15	15	3
85	109	1
89	91	1
46	47	1
52	52	1
82	89	3
125	126	1
118	118	3
97	153	1
41	41	1
176	176	3
109	109	1
106	106	2
39	39	2
56	70	2
105	105	1
131	178	1
76	76	1
57	60	1
56	57	1
46	46	1
156	188	1
82	86	1
56	141	1
3	4	1
18	25	3
144	144	2
83	89	2
81	81	2
120	122	1
134	137	1
140	141	1
155	155	1
72	73	1
66	150	1
90	90	2
132	134	1
74	89	1
55	151	2
22	23	2
187	187	2
13	13	2
138	138	2
119	120	2
106	108	1
183	186	1
84	85	1
68	69	1
109	110	1
182	184	1
96	98	1
135	136	1
170	183	1
62	62	1
172	173	1
38	41	1
169	187	1
40	43	1
23	67	1
135	154	1
160	160	1
10	12	1
