32	97	4
101	101	6
128	167	2
157	157	6
223	223	6
55	96	9
114	115	1
151	151	8
165	165	4
172	172	4
132	132	1
15	15	4
217	217	8
35	36	7
101	163	6
6	6	3
179	181	3
22	23	1
48	48	2
54	54	10
3	54	6
8	8	6
186	187	4
57	57	4
106	106	6
42	42	4
26	26	13
238	238	3
163	163	6
59	84	4
153	153	3
209	209	3
46	46	18
226	226	2
128	200	2
178	178	11
128	128	11
66	66	1
239	240	1
47	47	3
237	237	6
199	199	6
66	67	8
19	66	3
207	207	8
137	138	4
216	216	9
184	184	7
75	75	5
227	227	5
54	55	2
225	225	4
181	182	5
148	152	3
234	234	7
150	150	4
58	60	6
37	37	13
13	13	4
20	20	7
218	218	13
179	180	2
68	83	4
36	36	7
80	80	11
209	224	2
189	190	5
214	214	8
126	202	6
57	58	5
171	171	9
186	186	6
212	212	3
63	68	1
215	215	5
32	37	1
222	222	2
13	14	5
30	163	2
126	126	4
181	181	6
42	43	3
97	97	8
195	195	4
81	81	3
170	170	8
176	176	7
40	40	4
7	7	11
190	195	2
141	141	2
140	140	5
99	102	2
146	152	3
147	152	3
125	127	3
6	16	2
169	169	3
192	192	6
125	126	2
214	215	2
99	152	2
133	207	1
62	235	2
242	242	4
215	216	3
119	129	8
41	41	4
63	63	6
121	121	5
104	130	2
26	236	4
135	135	5
35	35	4
174	174	4
49	49	1
213	213	4
108	108	5
218	225	2
115	130	3
153	233	3
32	32	2
80	81	2
100	117	3
150	152	2
96	96	3
59	59	4
53	53	5
114	129	1
182	182	1
31	32	2
91	91	2
44	44	2
74	75	2
69	69	5
196	199	2
143	179	3
137	183	1
32	33	3
114	118	2
38	38	2
52	52	5
137	137	3
185	185	3
67	68	4
130	130	1
109	113	1
238	239	5
74	74	6
46	147	4
143	143	5
25	25	6
187	188	1
11	12	2
158	162	1
29	29	2
235	235	5
30	239	2
76	77	3
201	201	4
127	127	3
104	134	3
79	79	10
24	24	4
50	51	3
143	153	2
68	68	5
1	1	2
111	111	2
193	193	1
26	235	3
190	190	4
32	170	2
142	181	3
50	50	3
115	116	1
83	84	1
166	166	2
18	19	2
104	110	2
117	117	4
175	175	2
38	140	3
125	125	5
168	168	3
10	10	1
167	167	1
61	61	4
178	179	3
16	16	3
74	106	2
232	232	2
148	148	1
119	119	2
105	133	1
84	84	1
32	156	3
203	203	3
173	173	3
148	151	4
63	64	2
70	71	2
21	21	1
99	146	2
153	234	4
39	40	3
104	127	1
220	222	2
176	179	1
58	84	1
110	110	2
236	236	6
115	118	1
192	193	1
43	44	3
204	204	2
109	129	1
27	239	2
219	219	2
227	229	2
232	233	4
27	27	8
30	30	3
23	89	1
85	85	4
177	179	2
170	171	1
188	190	1
117	118	1
155	232	1
102	117	2
73	106	2
32	172	1
8	11	1
129	200	1
198	198	1
37	172	1
75	76	1
62	169	3
3	4	1
133	133	2
123	123	2
150	151	2
2	3	1
143	145	1
55	56	3
122	122	3
208	208	2
51	51	1
28	28	2
183	183	3
62	62	1
161	161	2
131	131	1
130	131	3
21	22	2
120	120	1
71	113	1
118	129	1
18	20	1
220	220	1
100	100	2
219	224	1
107	113	1
162	162	1
110	201	1
82	82	1
160	160	2
71	109	1
133	204	1
0	0	2
147	148	1
9	9	1
138	138	1
64	64	3
25	47	1
128	141	1
48	50	1
67	84	1
33	33	2
43	43	1
69	70	1
105	134	2
188	188	1
189	189	2
81	242	1
152	152	1
102	102	1
219	220	1
159	160	1
152	168	1
30	159	1
20	64	1
30	238	1
104	206	1
238	240	1
174	175	1
154	154	1
106	131	1
5	66	1
116	116	1
