42	50	5
68	69	4
76	76	2
39	39	7
53	54	3
69	70	2
61	61	4
42	43	8
36	36	5
96	96	10
49	49	2
41	43	4
93	93	3
33	33	6
21	26	3
104	104	8
69	69	1
40	40	3
31	72	2
58	58	6
41	41	5
92	92	3
70	70	6
100	100	9
96	97	4
88	89	3
91	91	8
34	34	3
103	110	4
81	112	4
83	83	4
113	114	4
66	68	1
60	60	4
103	104	4
85	85	11
47	47	7
46	74	1
80	80	6
44	44	9
88	88	2
78	79	5
37	98	2
59	86	5
78	84	1
42	44	2
39	68	2
101	108	2
111	111	4
43	99	9
103	103	3
97	97	13
101	101	6
73	73	1
79	79	6
74	96	2
105	106	4
77	83	1
107	107	4
80	81	2
38	99	2
80	100	1
56	56	7
21	21	4
89	91	2
46	46	3
22	22	4
45	99	1
91	114	3
25	48	2
59	59	6
30	67	2
80	107	2
110	112	2
51	91	3
20	67	1
31	32	1
93	94	2
79	83	1
39	66	4
67	67	2
39	97	2
82	88	1
72	72	9
49	99	4
30	30	4
61	64	1
75	75	1
38	38	5
34	35	2
24	24	1
100	107	2
26	27	1
30	53	2
65	65	6
84	85	2
104	107	1
89	90	3
29	29	8
78	78	4
94	94	6
57	58	1
21	29	1
33	60	2
29	30	3
45	45	2
108	110	1
62	63	1
26	26	5
82	82	1
23	25	1
31	107	1
109	109	4
113	113	3
49	94	1
46	96	2
63	63	1
99	99	5
53	53	1
52	52	3
36	66	1
20	20	3
62	74	2
27	27	3
49	50	2
54	54	1
39	40	1
100	101	2
34	36	2
86	86	6
85	87	2
41	49	2
97	98	2
90	90	1
22	29	3
84	88	1
31	35	2
88	98	1
55	85	1
72	73	1
101	103	1
19	20	1
107	108	1
89	89	1
27	28	4
114	114	1
108	108	1
66	66	2
37	37	3
66	67	4
85	86	1
71	72	2
73	74	3
32	33	1
39	70	2
77	81	1
110	111	1
55	55	2
62	70	2
40	41	2
80	108	1
98	98	2
43	43	2
20	28	1
106	106	2
44	52	1
84	87	1
76	78	1
77	79	2
51	90	1
105	107	1
74	77	1
58	91	1
71	71	1
113	115	1
83	107	1
30	32	1
95	95	1
51	87	1
65	67	1
43	44	1
38	43	1
32	67	1
