164	167	5
170	171	5
96	96	6
175	176	1
135	135	7
24	24	10
76	77	6
68	107	2
18	32	1
109	109	10
105	106	1
124	124	12
0	0	5
180	180	6
37	37	3
75	75	12
120	120	7
16	16	7
80	80	5
91	91	3
156	157	1
87	119	2
73	73	15
103	104	7
2	3	4
67	67	7
17	17	10
107	107	7
127	127	9
108	108	8
23	41	3
6	6	12
112	112	11
24	34	2
65	65	15
4	29	2
98	98	10
14	14	9
30	30	5
18	33	1
149	149	7
81	115	2
78	78	12
59	129	1
3	4	6
151	151	5
79	79	12
56	115	1
162	162	11
173	174	3
88	88	12
50	51	5
159	159	10
77	78	2
27	27	9
43	43	14
162	167	3
15	19	3
177	177	1
93	93	12
119	119	5
128	128	11
41	41	2
147	148	5
167	170	3
84	84	5
178	178	14
86	86	6
148	148	13
166	167	2
118	118	12
170	170	7
35	36	2
10	10	13
71	72	11
26	26	9
154	162	2
31	53	1
92	93	5
122	122	12
160	160	7
76	76	4
72	72	18
46	46	1
161	161	5
76	78	6
91	97	1
31	32	2
40	40	10
176	176	7
125	125	9
53	53	3
130	180	1
145	145	2
113	113	6
27	33	2
26	29	1
123	129	8
90	90	9
151	152	1
1	42	3
34	34	24
19	21	2
32	33	4
83	108	1
52	52	11
101	101	3
114	114	11
140	140	13
153	154	3
28	28	2
72	95	3
121	121	14
102	102	8
54	54	15
15	67	3
66	66	8
172	175	3
9	9	4
117	117	5
154	154	3
146	146	24
90	115	3
143	144	2
90	102	2
19	19	3
137	137	14
133	133	3
136	137	4
123	126	1
27	29	1
77	92	3
104	105	6
171	171	8
167	167	4
165	165	6
3	3	5
18	19	4
131	131	10
97	98	1
75	136	3
70	78	3
58	58	5
107	108	3
100	100	3
71	71	11
44	46	1
78	80	2
130	130	12
177	178	3
129	130	1
94	94	7
62	64	4
77	77	8
144	144	4
150	150	7
70	89	5
1	1	6
115	116	2
95	95	6
59	59	5
57	58	4
141	141	8
36	36	4
158	158	5
54	55	6
156	156	5
60	60	9
7	12	1
6	9	3
4	4	1
99	99	2
157	157	5
108	112	6
130	131	5
71	106	1
58	59	2
168	168	5
13	13	2
148	151	1
87	88	8
158	159	3
45	89	1
112	113	4
163	163	8
97	97	3
115	117	2
84	88	3
105	105	6
93	94	3
44	44	4
132	132	6
51	51	8
87	104	1
102	103	2
66	67	2
129	129	3
60	80	2
61	61	4
142	142	8
88	102	3
81	81	3
173	173	5
115	115	10
63	63	9
74	74	6
17	85	2
65	66	1
41	43	3
28	40	1
143	143	1
5	15	2
147	153	2
50	50	2
82	82	3
85	127	3
157	160	1
111	140	2
119	128	4
30	36	4
106	106	5
15	65	1
110	110	2
138	138	4
52	53	3
80	81	5
2	2	8
98	101	1
179	180	1
140	141	7
0	37	4
148	149	1
15	15	2
75	93	2
169	169	6
87	87	5
83	83	2
155	160	1
103	106	1
53	54	4
10	11	2
122	123	4
65	112	1
41	42	2
146	154	1
72	89	2
172	172	5
155	155	2
60	61	2
134	134	5
5	5	10
68	68	8
56	56	6
156	162	1
103	105	2
92	92	11
22	42	2
90	93	3
7	7	3
116	116	2
29	29	7
65	140	3
57	115	2
32	32	9
8	8	8
106	121	3
150	151	2
126	126	6
106	139	1
138	139	1
62	111	1
53	61	1
83	126	2
115	141	1
31	31	4
39	39	4
159	177	1
9	10	4
179	179	6
89	89	5
53	58	3
123	123	3
136	136	6
124	131	1
167	168	3
118	119	3
58	110	1
106	109	1
24	41	1
43	44	4
160	161	3
33	33	4
145	150	3
146	168	3
93	101	1
57	110	3
38	39	6
94	96	1
100	173	1
51	52	4
81	82	1
74	138	2
127	128	3
5	6	3
44	49	2
1	4	1
9	40	1
40	41	1
58	114	2
152	152	2
155	156	4
151	153	3
61	62	2
30	31	2
23	60	3
165	166	4
39	41	1
15	16	1
26	34	1
23	23	1
36	37	2
162	163	2
1	3	1
38	38	5
85	85	2
88	103	1
40	42	1
139	139	4
91	92	1
17	44	1
95	99	2
21	21	4
66	78	1
27	28	1
137	138	1
164	168	2
18	18	2
38	82	2
101	151	1
63	90	1
163	165	2
74	142	2
165	175	2
104	104	4
125	130	1
132	133	4
116	117	3
67	81	2
111	171	4
124	126	1
157	159	2
35	35	3
145	152	1
113	115	1
87	121	2
157	165	1
64	65	1
79	128	2
133	134	1
124	129	4
110	126	1
172	173	3
144	145	1
117	118	2
164	175	2
147	147	3
106	107	2
23	34	1
99	112	1
58	61	1
146	156	1
89	90	2
0	32	1
63	64	5
162	165	1
71	87	1
103	103	1
163	167	1
81	85	1
122	132	1
1	26	1
126	131	2
146	173	3
86	114	1
98	112	1
11	13	2
77	179	1
111	111	4
139	140	2
108	109	1
142	144	1
1	40	2
164	164	2
19	33	1
72	135	1
66	131	1
121	122	2
98	140	1
159	161	1
112	142	1
39	40	1
88	122	1
18	20	2
8	46	1
86	105	1
44	45	1
142	143	2
165	168	1
116	124	1
78	178	1
117	123	1
49	49	1
19	43	1
20	21	1
100	174	1
166	166	2
115	134	1
62	62	2
65	106	1
42	42	3
28	29	2
143	177	1
25	25	1
62	66	1
93	96	1
97	154	1
9	13	1
12	12	1
14	62	2
126	127	1
28	32	1
141	142	1
93	151	2
153	153	1
82	106	1
78	176	1
74	75	1
174	174	1
1	84	2
35	38	1
120	121	1
54	59	1
95	101	1
147	155	1
83	84	1
79	87	1
50	57	1
116	140	1
