177	177	4
189	189	8
172	188	1
33	34	4
98	98	10
144	144	10
108	165	2
161	177	4
131	131	18
90	96	5
59	80	4
132	132	14
132	133	1
78	78	9
156	157	1
108	108	8
150	150	4
42	42	20
25	25	7
143	143	7
24	24	10
18	23	6
2	9	5
74	78	1
81	82	2
22	67	2
75	125	5
90	90	8
181	181	5
62	62	6
93	94	6
109	110	3
188	189	5
56	56	9
152	153	5
53	56	9
124	131	5
55	69	4
82	85	2
187	189	1
31	34	2
159	169	2
65	66	2
7	14	2
162	164	7
126	126	6
9	9	9
167	167	5
119	120	3
117	150	6
156	163	6
67	67	3
72	73	3
177	178	4
33	33	5
105	105	6
138	139	4
58	58	10
16	16	11
184	185	5
161	161	13
125	166	4
97	97	7
47	47	9
113	151	2
171	173	2
121	161	4
2	2	8
55	55	5
75	101	7
179	180	4
146	146	12
149	149	6
117	117	5
120	120	6
115	175	9
156	156	7
188	188	2
148	155	5
121	121	2
10	10	8
157	175	2
154	154	16
67	70	6
114	178	3
167	180	2
38	39	3
87	88	5
102	102	2
75	129	4
163	174	3
172	172	9
140	141	7
186	187	1
53	53	10
160	160	5
179	179	8
44	44	6
5	45	4
75	155	1
135	135	10
127	128	2
32	32	7
108	109	2
68	82	1
74	76	4
11	11	6
96	105	7
32	35	3
96	96	6
20	33	5
174	174	6
36	36	5
185	185	2
61	61	9
87	97	1
94	94	16
35	35	2
118	120	4
116	151	2
14	58	1
74	74	7
86	189	1
126	128	2
101	101	4
101	165	2
166	167	6
163	163	12
141	141	3
71	80	2
84	153	4
104	104	5
66	67	4
10	11	2
57	58	4
172	173	1
130	130	4
60	60	12
142	142	6
127	127	5
173	173	2
76	76	5
4	14	10
113	113	6
128	128	4
26	28	4
156	166	2
83	83	4
167	168	7
22	22	2
19	21	1
119	119	5
54	54	4
31	31	10
0	21	1
18	54	2
27	30	2
133	133	2
59	59	8
190	190	5
175	176	4
20	22	1
97	98	3
29	29	6
162	162	4
157	157	8
170	171	3
34	34	5
7	7	7
137	137	7
152	152	2
30	30	8
110	111	5
21	45	2
155	155	9
54	55	1
36	176	3
93	95	3
138	183	2
139	185	3
84	84	13
123	141	2
37	109	3
3	4	1
61	68	3
106	111	3
132	181	3
169	171	2
0	0	2
184	184	5
41	41	18
79	82	2
23	37	5
70	73	2
8	8	3
90	130	1
80	80	2
92	108	1
93	93	8
104	106	1
68	68	10
83	128	1
165	165	8
107	150	1
103	103	8
127	162	4
39	40	3
102	103	5
141	142	2
3	21	2
25	48	4
37	37	7
77	77	4
187	188	5
111	112	7
75	130	6
103	104	10
175	179	4
10	12	1
150	161	2
92	97	3
119	190	3
99	99	7
164	176	4
37	38	7
0	43	2
17	47	3
73	75	2
154	179	3
141	187	6
116	179	1
88	88	3
102	146	1
94	144	1
68	69	1
139	144	1
17	18	1
75	76	6
114	129	4
142	143	1
175	178	4
45	46	3
134	134	4
27	28	1
5	6	2
64	65	6
85	137	5
68	149	1
85	85	2
104	115	1
123	123	3
27	27	7
70	70	3
12	13	2
63	63	5
72	105	2
148	151	4
111	113	5
13	14	8
19	29	2
48	48	2
153	153	4
68	91	1
40	41	7
73	73	6
139	173	2
136	136	3
148	148	4
76	128	1
78	104	4
123	156	1
25	79	2
19	19	3
188	190	7
6	6	1
101	146	2
59	60	1
106	108	3
124	124	3
81	81	3
109	150	3
125	125	4
82	116	2
126	127	2
186	186	4
86	142	1
45	47	2
39	39	2
131	143	4
95	126	5
187	187	2
85	142	1
129	129	5
70	71	2
182	182	7
128	151	1
23	36	2
106	146	1
12	17	7
64	64	6
169	169	2
19	46	4
17	43	4
74	106	2
57	57	4
107	107	5
55	58	5
136	137	3
7	42	2
114	114	2
76	151	3
127	146	1
113	156	2
79	79	6
145	145	3
143	174	2
80	101	2
111	111	4
82	82	4
159	159	5
88	141	2
75	75	4
21	21	4
149	150	3
135	175	3
14	16	3
4	4	4
63	119	2
109	186	2
78	92	2
89	90	3
162	166	3
46	46	2
79	80	1
2	3	2
20	27	2
46	66	1
147	154	2
53	54	1
39	53	2
83	167	3
43	44	2
62	140	4
26	26	1
157	177	1
15	15	1
93	112	1
41	42	1
56	58	4
84	168	1
90	91	9
3	8	1
12	12	6
87	139	1
150	154	3
171	172	1
40	40	5
56	86	2
52	52	5
111	189	1
123	127	1
157	159	1
131	174	2
170	174	2
131	133	5
24	57	2
101	102	2
102	124	3
23	27	3
151	151	4
105	122	1
147	147	4
97	104	2
29	30	3
1	1	3
5	9	1
105	106	2
116	117	3
4	6	1
78	82	1
125	128	1
153	161	1
104	107	1
6	19	1
169	170	3
92	92	2
81	108	1
170	170	1
96	98	4
43	46	1
41	48	2
38	38	4
100	100	1
170	188	2
106	106	1
134	154	1
12	15	1
75	124	2
148	149	2
109	109	1
28	29	3
144	146	1
78	114	2
138	138	2
36	74	1
61	62	2
115	162	4
101	104	2
65	115	1
89	106	1
159	175	2
3	3	1
28	28	1
148	152	2
13	13	3
71	71	2
124	127	2
123	126	1
55	61	1
36	37	1
158	187	1
19	47	1
164	164	2
101	164	1
16	17	1
48	49	2
173	175	2
155	169	1
29	31	5
98	99	1
95	98	1
5	5	1
168	168	2
66	66	5
5	7	1
178	178	2
149	166	1
139	139	1
21	111	1
125	184	1
43	47	4
91	91	1
142	172	2
44	45	1
54	57	2
7	44	1
150	178	1
15	187	1
90	173	1
128	129	1
6	8	1
164	165	1
60	93	1
76	147	1
156	176	2
62	83	1
104	105	1
64	88	1
15	24	1
140	140	2
18	19	2
150	190	1
69	69	1
154	157	1
11	14	2
97	117	2
68	119	1
73	79	1
63	83	1
79	92	1
52	53	1
33	41	1
65	68	1
43	43	1
87	87	1
163	165	1
180	181	1
88	89	2
1	2	1
118	118	1
160	176	1
20	20	1
14	15	1
160	163	2
102	134	1
100	181	1
86	186	2
98	152	1
146	166	1
160	171	1
180	180	1
31	36	1
148	170	2
6	42	1
16	23	1
15	16	1
142	174	1
163	187	1
