111	111	10
151	151	20
62	66	4
50	51	3
235	235	14
101	103	9
215	216	3
56	57	3
112	245	2
32	32	16
82	82	10
5	6	1
71	71	8
96	97	12
32	33	1
192	193	2
169	177	3
66	67	5
186	186	5
145	145	5
65	66	3
210	212	3
19	19	15
235	242	1
97	97	5
40	40	8
114	114	5
221	221	4
175	177	3
96	96	7
21	22	5
204	204	8
56	58	1
240	240	2
30	217	2
176	176	3
166	166	4
164	164	6
219	219	11
39	40	8
189	189	4
57	58	8
83	84	8
46	46	12
178	178	4
243	243	4
184	184	21
10	11	9
153	153	16
26	26	16
89	90	9
195	195	3
30	30	7
190	202	2
35	35	6
110	110	1
235	236	5
115	115	4
54	54	23
144	145	8
35	36	3
173	173	4
69	69	10
66	66	9
68	68	8
213	213	8
170	170	4
60	62	2
9	10	5
86	86	15
27	27	8
51	51	6
78	79	5
113	113	15
76	79	4
164	165	6
216	216	5
57	57	7
47	47	5
78	78	7
108	108	6
53	53	10
20	21	3
3	18	1
155	155	11
3	4	5
168	172	4
100	100	4
203	203	10
185	186	3
110	112	1
158	194	3
166	181	1
214	215	8
238	239	4
153	213	3
168	171	2
104	104	4
217	217	9
156	156	19
87	87	3
7	7	2
116	117	4
1	1	11
225	226	2
50	52	1
6	108	1
85	85	20
63	63	20
20	20	12
153	154	1
26	145	3
212	212	7
89	89	5
23	23	19
226	226	4
227	227	8
158	208	5
39	39	6
159	190	2
205	211	3
177	177	4
238	238	5
6	7	2
62	62	4
202	203	8
167	168	3
171	171	5
169	181	3
210	218	1
225	225	5
221	225	2
107	107	3
8	11	3
222	225	1
111	112	10
173	174	3
88	88	5
5	5	3
168	168	7
45	45	10
171	193	3
211	212	2
219	224	1
24	24	6
208	212	2
208	208	3
160	184	3
10	10	8
149	149	3
34	118	2
234	234	3
41	41	10
4	6	3
218	218	3
9	9	6
146	146	4
204	210	2
228	228	1
223	228	2
7	35	2
81	81	7
184	227	1
37	37	5
44	44	8
51	52	1
79	79	2
102	102	3
163	163	2
195	201	2
152	153	2
25	25	7
105	107	7
64	64	8
239	239	8
202	202	5
12	12	5
12	14	3
8	8	13
187	187	4
29	29	4
182	183	5
74	74	8
49	59	1
117	117	14
63	65	6
15	15	5
154	183	2
175	176	2
6	6	6
147	147	5
199	199	12
35	38	1
193	194	1
191	191	4
25	26	1
38	38	7
22	24	1
45	46	3
210	213	1
52	71	6
59	59	4
12	18	2
158	158	4
77	92	3
223	223	14
211	211	1
172	172	6
220	220	3
26	117	1
43	43	11
76	76	5
101	101	8
183	190	2
32	144	2
153	180	2
84	84	5
230	231	1
52	74	2
192	192	5
236	236	1
7	100	1
176	177	5
21	21	15
146	241	1
79	83	3
188	231	3
201	202	2
153	182	1
237	239	6
190	191	4
112	113	6
182	248	6
194	194	7
152	232	2
64	65	3
43	47	7
5	18	2
107	108	8
172	174	6
198	198	5
94	94	6
95	95	10
160	160	3
53	75	2
163	248	1
241	241	6
117	118	4
157	158	4
49	49	3
179	180	4
231	231	4
26	95	3
28	28	6
199	200	4
165	165	10
90	90	2
14	15	2
179	189	1
168	173	2
151	152	3
244	244	7
41	42	1
83	85	3
205	205	7
33	33	4
55	56	3
241	242	1
17	20	2
181	181	3
31	31	3
46	47	2
36	36	11
116	116	7
7	98	4
112	112	4
44	190	3
40	41	5
109	109	9
75	75	5
70	71	1
155	242	1
59	60	4
188	189	4
94	114	2
154	154	11
161	161	4
42	42	2
56	56	6
49	57	2
52	60	6
34	34	4
232	233	1
102	103	2
120	145	1
84	86	2
155	156	3
4	5	1
62	63	5
4	4	3
204	212	1
144	214	2
0	1	1
210	210	3
170	171	2
102	106	3
14	18	2
216	233	2
152	152	3
18	19	2
233	237	2
102	107	2
47	48	1
67	67	6
11	11	5
63	109	1
169	170	5
230	230	2
234	236	3
159	170	2
195	196	3
113	151	1
224	224	2
201	203	2
172	173	1
61	61	1
6	49	1
58	60	2
22	22	1
188	188	1
221	228	4
236	239	3
2	37	1
14	17	1
193	193	3
5	7	1
74	75	5
178	179	3
162	162	5
191	195	3
185	185	1
98	99	2
174	174	3
44	45	2
102	108	1
215	215	1
72	72	6
175	175	5
154	155	2
72	100	1
95	96	4
222	222	5
165	167	3
171	172	3
246	247	2
214	214	3
92	92	2
197	229	1
92	115	2
54	62	1
118	118	6
198	232	1
246	246	1
196	200	4
90	113	1
233	239	2
247	247	3
50	50	2
97	116	3
153	215	1
8	202	1
189	191	3
37	39	1
7	8	3
219	220	1
223	225	1
110	111	1
217	231	1
154	241	2
229	230	1
214	216	1
7	57	3
209	209	4
43	44	2
152	180	1
95	117	3
76	78	3
182	182	2
216	232	1
106	248	2
200	201	2
24	25	2
186	187	3
167	167	1
197	201	5
9	11	1
100	110	3
53	74	2
3	106	1
58	58	2
210	211	1
60	60	1
49	56	3
76	77	1
3	5	2
235	238	3
71	78	1
63	246	1
208	211	3
94	204	1
149	150	4
24	26	1
16	16	3
81	83	1
64	70	4
1	22	2
208	209	2
106	106	2
11	71	2
98	98	2
74	94	1
11	27	2
183	191	1
29	30	2
183	183	2
145	217	1
105	196	1
60	66	1
190	227	1
84	85	2
245	245	2
185	192	1
49	50	3
198	199	2
13	14	1
73	73	2
152	242	1
187	188	1
159	162	3
184	185	2
65	65	2
94	95	2
54	59	1
194	209	1
197	197	3
242	243	3
192	209	2
34	119	1
242	242	3
213	214	1
2	100	1
85	86	2
77	79	3
201	201	4
225	227	3
68	69	1
29	31	2
191	192	3
54	55	3
190	190	1
151	244	2
0	21	1
213	225	1
52	55	3
180	181	4
91	92	2
183	184	1
102	104	1
55	55	2
108	109	1
92	113	1
146	147	1
107	109	1
42	43	2
115	248	1
233	235	2
221	222	3
114	173	1
59	64	3
228	229	2
162	163	1
70	70	1
144	156	1
82	83	2
46	119	1
157	157	2
218	228	1
229	229	3
173	177	3
177	225	1
11	12	2
159	159	5
152	233	1
159	194	1
94	98	1
248	248	1
118	119	1
194	197	1
226	227	2
87	88	1
113	115	1
233	233	2
212	213	4
228	231	1
234	242	1
111	247	1
213	224	1
237	237	2
31	32	1
79	80	2
12	15	1
83	83	2
163	165	2
100	194	1
77	78	1
96	98	1
82	88	1
6	11	1
189	190	1
73	93	1
115	116	1
86	88	1
3	37	1
184	196	1
111	113	1
119	119	1
233	234	1
42	44	1
69	73	1
100	200	1
95	97	1
36	42	2
212	216	1
172	175	1
175	213	1
81	82	1
172	249	1
177	178	1
89	91	1
28	88	1
111	245	1
165	166	1
69	70	1
77	77	1
239	240	1
179	179	1
95	204	1
6	48	1
242	244	1
46	145	1
