2	3	10
101	101	2
105	105	8
66	123	2
94	94	11
111	111	4
104	104	13
96	101	2
126	126	8
0	0	5
86	96	3
44	46	2
114	114	3
67	67	4
43	55	9
128	129	1
110	110	9
58	110	3
103	131	2
11	11	4
81	82	6
125	125	3
47	47	9
99	99	8
119	119	10
88	88	7
46	46	3
87	87	3
102	102	7
20	20	8
46	48	5
56	56	7
85	85	6
125	126	1
69	69	6
77	77	7
22	23	2
29	33	3
61	62	2
63	80	3
130	130	4
71	71	9
111	122	1
63	64	3
21	21	6
42	42	2
5	5	9
97	97	14
88	94	4
40	52	4
28	28	2
6	6	9
49	49	8
82	82	4
76	78	6
126	128	2
43	59	1
84	84	2
4	5	2
16	16	5
127	127	10
23	23	9
29	29	1
54	54	3
63	63	9
65	65	7
86	89	2
17	17	8
0	7	4
115	115	17
39	39	8
28	33	4
79	117	2
72	72	13
73	83	1
108	121	1
72	74	4
92	92	10
94	95	1
40	41	7
123	123	5
115	116	3
57	58	1
89	90	2
10	10	4
69	118	3
103	115	2
104	115	2
66	66	2
3	3	3
52	53	4
25	26	6
73	73	7
106	107	1
59	59	1
53	53	5
15	15	4
96	96	5
80	81	4
60	61	1
51	52	7
118	119	3
68	68	11
108	108	4
62	62	4
19	19	7
10	11	2
1	1	5
121	121	3
41	41	5
44	44	5
27	28	2
85	87	1
45	47	4
48	48	7
131	131	5
118	118	8
13	13	3
109	109	3
2	59	1
25	25	3
123	124	5
71	72	3
112	113	2
126	127	3
4	4	4
116	116	4
129	129	2
83	83	3
78	79	2
18	18	5
0	12	1
95	96	2
27	27	9
59	123	3
75	75	6
2	2	3
43	44	1
24	24	1
58	112	3
100	100	3
130	131	1
41	42	1
90	90	1
112	112	3
18	19	3
75	77	2
114	115	3
89	89	4
40	42	1
40	40	2
113	114	1
119	120	2
87	88	2
93	100	2
120	120	2
32	32	2
92	93	1
31	31	5
58	58	4
79	97	1
29	34	1
91	91	3
95	101	5
116	125	2
60	64	1
106	106	2
118	129	1
76	77	1
38	39	1
29	30	2
69	117	2
72	79	1
96	98	2
26	26	1
28	29	2
34	34	2
51	51	2
90	91	1
75	84	2
73	74	3
86	87	5
111	112	2
33	33	1
8	8	1
64	79	3
30	30	1
38	38	2
110	116	1
58	59	2
9	9	1
61	81	3
50	50	3
92	94	1
3	113	2
43	43	4
52	52	3
88	91	3
124	124	6
106	113	2
69	127	2
14	14	3
7	7	2
22	48	1
49	52	2
79	79	3
45	45	1
71	75	2
110	122	1
30	32	2
89	94	2
57	57	1
103	129	3
33	34	3
83	84	2
87	90	1
97	117	1
30	31	1
117	119	2
53	56	1
17	33	1
45	46	1
102	120	1
120	121	1
78	78	2
39	44	1
71	76	2
82	83	2
132	132	2
69	76	1
58	105	2
128	128	1
61	61	1
42	43	1
95	100	1
6	7	1
107	112	1
95	109	1
78	80	1
23	24	1
39	40	1
107	120	1
