3	12	2
115	116	1
27	150	3
152	152	7
56	56	7
48	48	5
129	129	11
70	70	3
172	172	4
119	119	10
0	0	2
174	174	5
111	111	4
180	180	2
137	138	2
1	1	6
113	148	1
103	103	4
83	83	2
140	140	9
42	142	2
107	108	3
84	84	2
118	118	2
82	83	3
61	61	4
134	134	12
185	185	2
77	77	3
109	109	3
53	53	1
156	156	2
61	122	3
70	90	1
128	128	5
159	160	3
68	68	1
155	155	4
170	170	2
15	15	10
4	5	3
5	6	3
31	31	4
89	89	4
158	158	5
127	127	5
170	184	1
40	40	3
46	47	2
42	44	2
189	190	2
164	164	6
177	177	2
29	29	4
163	164	1
53	54	5
124	125	2
173	181	3
66	67	2
72	72	2
15	16	3
169	169	3
130	133	1
39	40	4
37	38	3
142	142	5
38	38	3
175	176	2
176	177	5
129	130	1
27	27	6
102	102	5
168	168	10
30	33	2
139	139	3
33	33	3
146	146	5
58	58	4
184	184	5
87	87	2
184	185	6
34	34	4
64	64	3
43	124	1
141	141	3
138	139	1
14	30	2
159	162	2
125	131	2
181	187	1
77	78	2
13	13	6
60	61	3
24	24	4
35	35	4
115	157	1
53	79	2
26	26	15
190	190	3
182	182	5
138	138	3
125	125	5
108	108	6
130	132	2
62	62	8
171	171	5
32	33	3
28	30	2
78	78	3
150	150	3
66	68	7
107	107	1
115	118	3
87	88	1
120	123	1
42	148	2
110	110	4
86	86	3
42	42	3
120	120	1
159	159	3
135	135	3
0	1	1
20	41	1
128	130	1
105	105	2
85	87	4
125	126	7
18	19	1
89	90	7
91	92	4
127	128	1
8	8	4
3	14	3
95	95	2
105	106	4
172	173	3
25	25	3
187	187	3
153	154	4
112	143	2
97	97	2
57	122	3
91	93	1
143	143	1
20	25	1
165	167	1
86	87	2
46	79	2
179	187	2
88	88	3
17	17	1
154	154	6
94	94	3
16	23	6
166	167	4
62	66	2
55	56	2
146	149	1
6	6	3
147	147	1
19	29	3
7	7	1
153	153	2
53	83	2
181	181	1
112	112	2
3	13	1
74	75	2
139	161	2
135	158	1
23	24	2
34	54	1
169	177	2
94	95	5
101	102	5
136	138	1
173	177	4
19	30	1
91	91	2
41	41	2
121	121	1
96	96	2
76	76	4
16	16	1
148	148	5
110	164	1
10	13	2
140	159	3
128	133	2
179	179	1
33	35	1
186	189	2
42	147	2
28	29	5
66	66	2
110	111	1
86	98	1
143	144	2
68	102	1
158	159	1
39	39	3
24	25	4
16	40	1
36	37	2
101	101	3
93	93	1
163	163	2
33	150	2
123	123	1
32	36	1
124	124	5
182	184	2
123	141	1
78	84	2
13	30	1
160	163	3
70	87	1
16	17	1
59	59	1
182	183	2
43	55	1
112	146	1
10	10	1
85	85	1
104	104	3
115	135	2
114	114	2
27	32	1
30	148	2
21	21	1
170	173	2
143	147	3
22	22	2
136	136	1
92	99	1
113	119	1
137	139	1
22	25	2
103	128	1
108	110	2
2	13	1
53	84	1
157	158	1
161	162	1
112	140	1
146	150	1
36	36	1
27	31	1
26	151	1
137	137	1
117	152	1
41	151	1
12	13	1
91	99	1
165	165	2
100	100	1
138	162	1
2	2	1
181	186	1
96	97	1
155	156	1
9	9	1
80	82	1
117	117	2
177	178	1
43	53	1
