168	168	5
68	69	5
111	179	3
217	218	5
1	1	6
232	232	7
55	55	4
133	133	5
233	233	10
136	136	11
149	149	5
149	150	1
159	160	6
228	228	5
20	20	13
151	179	5
192	192	7
24	24	16
112	120	4
70	70	16
197	198	5
54	54	3
37	114	1
204	205	2
100	100	6
37	37	2
4	5	2
113	155	3
215	215	2
66	67	1
233	234	6
182	182	10
208	208	14
71	75	4
64	64	5
136	161	2
145	145	5
85	85	3
115	115	2
99	99	7
198	198	13
167	167	7
16	17	2
216	216	14
239	242	1
234	234	11
177	177	9
30	30	6
238	238	3
152	152	13
34	37	2
116	116	11
154	156	2
101	101	4
201	201	13
137	138	9
175	220	1
6	6	2
7	29	2
143	143	6
192	193	3
73	74	7
37	116	2
152	179	2
230	230	1
223	224	3
28	28	6
136	137	10
219	236	1
153	203	2
223	226	2
57	59	4
3	97	2
196	198	1
210	235	1
108	108	9
226	226	8
39	39	12
32	32	9
72	72	1
177	178	5
115	116	2
159	230	2
11	11	1
224	225	4
7	7	5
169	196	1
153	153	8
70	71	1
186	189	2
201	202	2
188	188	5
190	190	1
171	172	3
12	12	8
174	174	14
110	110	3
111	134	1
131	131	6
49	49	7
236	236	3
204	204	11
199	199	9
34	34	2
218	236	3
181	181	12
219	219	8
75	75	10
53	53	8
17	17	2
160	170	1
63	63	6
185	185	3
4	84	3
81	81	4
30	59	2
158	158	3
152	202	1
191	191	11
29	30	6
138	140	2
133	134	2
156	156	9
200	200	4
217	217	12
10	10	2
115	119	1
212	212	5
175	175	13
121	121	5
135	222	4
118	118	3
128	129	2
129	129	5
234	236	3
68	111	2
36	42	2
41	119	1
207	207	9
95	109	2
202	202	4
111	170	1
43	43	7
139	154	2
232	233	2
111	111	5
242	242	9
74	74	10
178	179	2
102	102	4
122	122	6
38	218	1
9	9	5
33	33	1
120	120	9
122	153	3
52	53	5
222	222	3
203	203	9
181	191	1
112	113	6
121	139	1
161	161	4
107	108	3
157	157	9
221	222	2
32	58	2
43	44	6
171	171	4
98	98	6
29	60	2
26	26	8
41	41	5
71	71	5
86	88	2
131	134	2
55	57	2
69	88	2
157	158	3
86	86	6
205	205	4
126	126	9
150	202	1
159	159	13
84	84	2
225	225	8
161	162	5
178	180	4
146	146	5
147	194	4
197	197	5
130	130	3
45	45	1
5	5	2
181	235	3
139	173	3
69	69	6
9	28	3
155	155	5
22	23	3
207	208	1
108	163	4
11	75	3
30	56	3
57	57	4
15	15	17
112	152	2
186	186	3
166	166	3
50	50	3
166	167	2
165	165	3
173	173	8
176	176	3
101	102	1
143	223	3
29	118	2
26	43	1
109	109	6
143	229	3
59	60	5
65	65	4
221	221	8
25	25	7
78	78	3
176	180	4
176	178	1
114	114	2
227	227	2
124	126	2
214	214	5
107	107	6
2	95	6
60	60	1
229	230	1
7	31	3
191	192	5
134	134	3
224	224	2
51	51	2
228	229	1
172	172	7
187	197	2
52	126	2
153	155	4
154	154	6
80	81	2
181	182	3
3	7	3
15	24	3
239	239	3
152	220	2
210	230	4
143	162	3
219	232	1
145	163	4
187	187	5
128	128	9
159	201	2
19	19	6
59	59	5
235	236	1
178	178	2
172	175	1
119	119	3
64	65	1
148	170	2
85	86	2
14	23	1
213	213	3
67	68	2
63	64	1
15	16	1
218	218	4
139	139	1
138	138	2
207	209	2
128	147	2
27	27	1
210	210	7
74	85	3
141	141	4
183	190	3
208	210	2
169	169	6
240	240	1
115	135	1
220	220	4
210	214	4
57	58	2
82	82	1
58	58	1
105	105	12
142	153	2
187	188	2
9	71	1
160	160	5
7	8	1
54	55	1
223	223	2
203	205	1
4	4	3
14	14	5
206	206	1
117	234	1
144	144	1
152	153	3
153	232	1
99	101	2
73	73	3
49	50	4
23	23	1
140	154	1
42	42	6
24	40	1
69	169	1
106	220	1
53	54	1
74	75	3
174	233	1
140	140	3
139	141	3
206	232	3
22	22	1
95	130	1
109	110	1
2	6	2
61	61	3
32	59	3
95	131	1
9	27	2
192	194	3
156	157	1
142	142	5
48	48	1
26	242	3
170	174	2
62	62	5
18	20	1
60	65	2
85	160	1
3	6	3
229	229	4
231	232	3
181	232	3
125	125	5
117	117	2
137	224	1
55	56	4
137	152	1
237	237	1
162	162	5
0	0	1
69	134	1
38	38	3
100	102	1
36	36	2
180	182	3
148	148	4
98	99	2
105	108	1
135	223	1
129	146	1
30	180	2
140	170	3
151	151	3
235	235	3
162	225	2
200	201	3
231	231	2
226	227	4
196	196	1
240	241	1
160	171	2
159	199	1
29	29	1
239	241	1
96	96	1
24	37	2
154	155	2
173	174	1
162	166	1
218	238	1
227	231	1
1	3	1
84	97	1
79	80	4
202	203	1
149	220	1
241	241	1
149	183	2
149	153	1
187	190	1
135	135	1
59	64	2
11	77	1
189	189	2
155	203	1
11	16	1
206	231	1
117	119	1
79	87	1
147	148	2
153	167	1
65	67	2
56	56	1
54	57	2
203	204	3
10	14	1
199	201	1
49	51	2
119	120	1
9	10	1
13	13	2
56	59	2
46	46	3
127	127	3
165	166	1
200	215	1
166	203	2
150	150	1
44	45	2
124	124	1
83	83	1
236	237	1
193	195	2
211	211	1
145	225	1
130	163	1
2	2	2
138	152	1
97	97	3
145	146	1
61	62	1
193	193	2
112	172	1
219	220	1
38	101	1
11	41	1
121	136	1
183	183	1
200	202	2
11	55	1
219	237	2
13	79	1
33	36	3
148	171	1
27	241	1
139	140	1
79	79	2
211	213	1
40	67	1
10	28	1
18	18	3
80	80	1
207	216	2
162	226	1
159	229	2
136	138	1
198	201	1
201	203	1
138	222	1
205	206	1
237	238	1
207	215	1
112	112	2
28	29	1
192	196	1
116	119	1
162	163	1
228	230	1
144	191	1
31	31	1
137	142	1
234	235	2
208	235	1
