147	147	5
131	141	1
135	135	2
18	18	9
163	168	1
151	169	1
154	154	4
51	85	4
13	13	13
19	21	3
102	102	4
53	53	7
64	64	9
123	123	3
75	76	3
107	107	5
3	4	9
31	31	2
144	144	8
17	64	1
42	43	2
94	95	4
60	60	3
14	14	7
91	128	2
17	17	12
101	143	1
68	68	6
138	138	4
97	98	2
61	61	7
114	114	5
86	86	4
158	158	4
174	174	2
65	65	6
58	58	6
6	7	6
161	161	4
176	177	2
168	169	5
106	162	3
28	28	6
59	159	1
40	40	2
99	99	10
54	54	4
104	105	1
73	73	4
149	149	9
121	121	4
41	42	3
126	126	5
67	67	14
10	10	6
134	134	3
169	169	7
13	22	1
156	156	9
28	65	1
160	160	12
159	170	6
116	127	1
127	127	8
88	88	8
95	96	6
86	88	1
90	91	3
179	179	2
129	129	5
56	56	3
77	137	1
29	29	8
74	74	5
100	100	5
101	130	3
130	130	8
116	116	7
6	63	1
43	44	9
23	23	6
7	49	4
166	166	4
164	164	7
51	51	5
72	73	1
92	92	4
77	158	2
2	49	1
76	76	4
145	157	2
104	104	8
115	128	2
86	110	4
114	115	2
15	16	5
106	106	7
172	180	1
10	11	1
113	113	8
159	159	4
79	132	2
24	65	1
122	123	3
102	141	3
94	106	6
14	15	1
109	109	4
172	173	3
170	170	4
171	171	8
42	42	6
172	172	4
162	163	4
6	6	7
93	93	7
5	5	1
78	78	4
75	75	9
61	64	1
112	112	5
41	41	7
103	103	1
13	21	2
16	18	1
3	3	1
72	72	2
120	120	9
53	54	3
89	89	4
51	52	2
150	151	4
165	165	8
9	10	1
128	128	4
153	154	3
98	98	7
145	158	2
119	122	5
168	168	6
131	131	2
89	90	2
108	108	6
1	1	6
13	14	3
78	79	1
77	77	5
95	95	3
38	38	5
107	168	3
149	150	2
11	12	8
30	30	9
39	40	5
38	40	1
51	53	1
81	82	3
50	50	1
141	141	4
11	11	6
115	115	1
55	55	1
166	167	1
62	62	7
91	91	1
44	44	5
79	79	6
139	139	7
101	101	7
15	65	2
97	144	6
152	152	2
63	63	5
52	52	6
2	2	9
32	33	9
67	68	2
8	10	1
167	167	6
157	158	2
32	32	3
155	155	8
142	142	2
133	133	3
85	85	5
142	143	4
46	46	1
83	86	1
5	7	2
70	70	1
4	30	2
1	52	2
4	5	2
164	165	2
86	92	2
150	150	4
32	67	2
8	8	4
34	34	1
62	63	1
165	166	1
122	122	2
162	162	11
107	109	3
16	17	1
26	26	4
148	148	5
10	22	2
153	169	3
39	39	1
24	24	2
73	75	3
97	97	2
171	172	5
61	63	1
15	15	4
45	45	3
159	160	2
165	167	3
38	44	1
176	176	3
160	161	1
110	111	2
132	132	7
20	46	2
118	124	1
115	118	4
140	140	3
55	56	5
136	136	4
72	75	3
74	136	1
116	118	2
22	22	2
12	12	4
24	100	1
175	175	2
63	64	1
64	107	2
94	129	1
56	57	2
9	57	1
118	140	2
60	61	2
148	149	2
169	170	1
24	30	1
74	135	2
116	117	2
143	143	3
142	144	4
59	60	1
60	103	2
126	127	1
82	82	3
160	162	4
66	67	3
71	71	5
77	78	2
101	102	3
133	159	2
103	104	1
110	148	1
73	134	1
36	36	6
163	163	3
68	79	1
71	79	2
94	94	2
66	93	1
1	3	1
179	180	2
152	153	3
114	128	1
70	71	1
44	95	2
126	130	1
130	131	1
144	156	1
70	79	1
65	66	1
147	148	1
153	160	1
164	166	2
117	117	1
105	106	2
85	86	2
80	80	2
56	168	1
138	139	1
110	110	2
7	7	2
62	64	2
66	66	3
35	35	3
151	151	3
71	72	2
57	57	1
108	150	1
119	119	2
125	125	4
73	155	2
13	42	1
37	80	1
26	28	1
7	23	1
14	23	1
38	42	1
24	25	1
127	128	3
7	62	2
123	124	1
26	31	1
20	22	2
146	148	1
111	111	2
80	81	1
17	22	1
98	162	1
38	43	1
12	18	1
112	148	3
19	20	1
0	0	2
118	119	1
32	101	1
115	129	1
106	168	1
111	147	1
115	168	2
130	141	1
24	26	1
33	33	1
52	53	1
23	24	1
16	16	1
93	94	1
88	90	1
83	90	2
137	137	1
121	122	1
177	177	2
61	62	1
85	92	1
82	109	1
161	162	1
41	98	1
101	103	1
20	21	1
133	158	1
54	61	1
96	96	1
