19	20	3
161	161	6
92	94	1
106	118	1
38	39	2
108	115	1
137	137	2
33	34	1
151	151	7
114	128	8
149	153	3
6	7	1
92	92	2
43	45	1
2	10	2
103	113	1
27	27	3
129	139	3
150	150	5
50	51	5
9	16	5
177	177	4
18	18	1
6	15	3
52	52	6
4	6	2
163	164	4
117	117	3
166	170	7
170	173	7
105	106	5
34	34	3
93	94	1
168	177	1
42	44	1
54	56	1
130	142	1
145	149	3
2	2	7
82	86	4
57	57	4
53	54	2
114	117	3
159	163	1
127	127	1
111	111	2
127	128	8
102	116	2
112	134	1
79	79	1
15	29	2
23	34	3
152	155	2
92	98	2
5	9	2
117	128	2
50	67	1
72	73	1
140	140	3
101	105	6
123	133	3
17	19	3
50	52	1
7	19	2
57	61	3
13	13	2
138	141	2
60	61	3
17	20	2
12	13	5
73	77	3
74	76	3
28	33	2
138	138	5
37	37	2
92	96	2
11	24	2
89	99	6
7	21	2
31	40	1
136	141	2
84	85	1
171	173	2
20	158	1
39	40	1
138	139	1
109	110	1
32	44	2
136	136	2
9	15	3
179	179	2
111	123	3
71	72	1
93	93	3
105	105	3
58	58	3
1	1	1
140	149	1
73	73	2
8	26	1
15	19	1
28	30	1
72	82	3
96	104	1
143	143	4
52	54	4
113	114	1
178	178	7
89	101	2
114	114	1
76	79	1
178	180	2
162	165	1
149	164	1
34	38	2
30	30	3
102	105	1
89	127	2
133	135	2
83	83	2
79	83	3
57	58	3
130	130	2
52	53	1
118	120	4
61	64	3
36	38	1
64	71	1
125	125	2
11	11	2
53	57	5
42	43	2
170	174	2
119	120	2
142	142	4
140	151	1
161	168	2
14	14	6
174	176	2
106	107	7
37	38	3
116	121	1
83	86	1
66	67	1
126	127	3
53	53	3
59	61	2
8	101	3
115	129	3
154	171	2
41	43	1
8	20	2
121	121	1
103	112	2
130	137	3
17	112	2
154	158	3
108	108	3
81	81	2
156	163	4
149	149	1
101	144	1
93	97	2
9	23	1
8	11	1
26	36	1
62	62	2
30	39	2
65	75	2
82	83	4
96	97	2
120	120	3
100	103	2
85	88	4
147	152	2
92	104	1
154	164	4
113	113	2
157	157	4
155	156	2
152	170	2
166	166	3
90	90	3
89	92	2
89	90	2
137	138	2
106	106	1
12	12	3
41	42	1
39	43	1
134	134	1
133	140	3
5	5	1
153	170	4
156	156	7
54	59	1
123	127	4
93	96	1
61	66	6
35	40	1
124	125	1
81	82	1
91	104	1
85	93	2
81	83	2
96	108	3
120	121	4
163	176	1
179	180	2
5	31	4
100	101	5
150	158	3
56	65	1
54	55	1
126	129	1
139	139	3
28	29	5
131	131	2
167	178	6
4	4	1
6	13	3
5	6	2
118	122	2
33	35	1
167	167	1
11	14	3
78	79	2
144	146	2
142	146	3
119	135	3
132	136	2
55	60	1
140	153	3
176	179	2
58	64	2
127	131	2
152	153	2
95	98	1
143	146	1
135	145	2
16	16	2
57	77	1
49	55	2
114	116	1
103	107	3
95	96	1
158	158	10
86	86	2
75	78	1
67	84	2
70	83	1
88	90	1
101	113	2
143	149	1
23	23	2
129	134	1
152	158	1
93	100	1
3	115	2
111	122	2
103	116	3
161	171	3
121	135	1
39	41	3
146	146	3
26	38	1
156	168	1
103	106	3
38	38	2
51	51	2
126	140	1
0	5	3
13	16	1
88	89	2
16	22	4
13	15	2
78	88	2
138	151	1
71	71	5
71	75	1
72	75	1
121	129	2
103	114	2
51	56	1
20	38	1
97	104	1
27	28	3
55	55	1
140	141	1
43	73	2
102	113	1
147	147	3
141	152	2
22	33	2
86	87	2
94	98	2
11	111	1
178	179	1
14	16	2
54	54	1
106	117	1
122	133	1
71	81	3
147	153	1
74	77	2
59	76	2
35	35	2
5	33	1
2	13	1
22	22	1
94	100	1
150	152	1
100	100	2
135	144	1
119	125	1
115	115	4
124	138	1
123	142	2
163	171	2
9	14	3
168	171	1
68	71	1
139	150	1
88	92	2
110	110	1
168	168	3
51	55	2
149	160	1
173	174	2
163	168	3
136	149	1
75	81	2
165	165	2
165	176	1
35	36	1
109	114	3
63	73	2
116	117	1
18	31	1
156	158	2
67	85	1
33	100	2
99	100	1
145	146	2
147	158	2
93	98	1
7	15	1
55	58	3
114	115	2
115	121	2
151	152	1
86	95	1
91	91	1
107	113	2
160	165	1
94	97	1
29	34	1
9	9	2
31	34	1
101	114	3
145	145	1
131	142	1
32	32	1
57	65	1
4	18	2
152	159	1
176	178	6
144	144	2
162	167	2
0	10	1
15	15	3
8	24	1
138	147	1
29	38	1
73	74	2
168	169	1
83	97	2
73	78	1
164	176	2
11	27	1
169	171	1
161	164	2
116	130	2
141	143	2
92	93	3
102	122	1
109	120	1
40	40	1
75	75	1
58	72	1
118	118	1
87	103	1
167	168	2
94	102	1
29	31	1
172	175	1
147	160	1
159	159	4
103	111	3
5	7	1
65	89	1
156	164	2
124	132	1
148	161	1
77	78	1
125	132	1
82	84	1
8	8	1
91	92	1
120	124	1
125	135	2
171	179	1
138	140	1
24	29	1
49	60	1
44	67	3
10	15	1
120	128	1
6	35	1
154	154	3
34	42	1
129	136	1
111	121	1
15	22	1
31	36	1
123	124	1
60	63	1
128	128	1
125	134	1
19	19	1
161	163	1
73	75	1
24	24	2
106	116	1
166	179	1
13	89	2
17	27	1
92	97	1
33	36	1
143	144	1
150	168	1
122	125	2
56	64	1
9	10	1
104	104	1
19	23	1
44	45	1
109	109	4
154	167	2
100	114	1
67	79	1
8	23	1
159	164	2
169	169	1
99	112	1
87	88	1
176	177	1
37	44	1
123	140	1
77	77	1
66	66	1
9	12	1
113	126	1
87	89	1
102	121	1
54	57	1
0	0	1
126	136	1
65	87	1
85	87	1
45	45	1
33	37	1
31	31	1
96	96	1
108	116	1
113	121	1
85	85	1
78	81	1
105	107	1
21	24	1
150	161	1
36	37	1
20	20	1
67	67	1
167	173	1
21	21	1
35	45	1
101	111	1
91	98	1
18	24	1
3	7	1
21	33	1
105	122	1
111	114	2
126	131	1
30	32	1
74	84	1
6	9	1
22	30	1
103	103	1
177	179	1
