4	4	8
26	27	4
13	50	1
10	11	5
73	73	16
15	48	2
18	18	6
27	27	19
50	51	6
5	5	11
36	75	2
75	75	17
20	20	3
21	52	4
57	57	25
76	76	15
47	47	8
3	3	10
30	33	5
32	69	3
31	50	2
35	35	25
25	34	2
28	28	11
49	49	11
39	39	10
54	54	9
19	19	12
14	66	2
46	46	15
31	31	11
5	6	8
60	60	6
7	7	12
38	45	5
17	18	10
1	1	14
26	26	14
30	30	14
75	76	4
49	51	3
17	17	25
40	40	24
1	55	2
57	58	13
20	65	1
64	64	21
33	33	18
9	34	1
78	78	22
35	36	5
43	78	3
76	77	5
61	61	10
13	15	4
0	19	5
29	29	14
16	16	14
72	72	16
63	63	14
78	79	6
47	48	7
77	78	1
59	59	8
42	42	14
8	27	3
48	49	3
0	1	9
37	37	9
70	70	9
12	12	8
36	36	13
8	8	9
68	69	7
69	70	2
20	64	5
3	35	1
55	55	19
9	9	7
59	60	12
58	58	15
48	48	8
41	41	8
76	78	7
48	63	2
53	53	4
2	2	24
34	34	8
40	45	1
11	11	3
52	68	2
65	65	20
30	46	2
8	46	2
0	0	5
39	40	4
66	71	7
60	61	8
2	4	6
77	77	8
13	13	4
37	38	6
46	63	3
71	71	4
14	14	3
64	69	1
72	74	1
74	74	15
25	25	2
8	33	4
67	69	3
10	32	5
62	62	6
40	46	3
56	57	3
16	63	4
33	34	7
79	79	3
45	45	7
66	66	4
40	41	1
47	65	5
69	69	10
6	6	6
3	4	1
1	47	2
50	54	7
2	3	1
66	69	1
32	32	5
58	61	4
17	71	1
36	37	6
14	22	3
80	80	8
32	71	3
5	53	4
56	56	2
30	63	4
13	52	1
39	45	4
70	71	4
19	20	5
1	64	1
50	50	4
4	5	6
15	49	1
32	33	6
58	73	2
16	18	1
11	13	3
51	53	2
64	65	3
18	61	2
11	63	2
78	80	1
42	43	2
38	38	13
74	77	2
6	53	3
5	36	1
74	75	2
8	9	6
49	50	2
51	52	1
54	55	1
15	51	1
41	42	2
1	3	3
7	48	2
34	35	1
48	64	3
46	47	6
73	74	4
31	32	5
55	66	2
19	56	2
15	16	2
7	35	2
27	28	1
28	29	1
41	48	1
31	33	5
21	21	1
6	32	1
63	64	1
61	62	3
48	62	1
49	54	1
18	19	1
7	8	1
9	10	1
1	54	1
68	72	1
38	39	2
10	10	1
8	65	1
9	46	1
54	65	2
17	19	2
39	62	1
25	47	3
16	53	2
20	49	1
26	63	1
58	60	1
19	62	2
45	73	1
65	66	2
15	50	2
11	32	1
19	52	1
10	47	1
10	31	1
29	30	1
45	63	1
52	53	1
7	55	1
29	34	1
43	43	1
49	52	1
