120	121	2
10	27	2
66	69	4
80	80	14
89	89	11
52	52	19
10	10	15
112	112	6
95	95	4
110	110	12
17	17	13
31	34	6
101	101	8
104	104	3
22	23	1
83	85	1
45	47	4
16	16	15
39	39	10
114	114	12
37	38	4
54	55	4
89	90	1
88	88	13
89	91	2
107	111	2
86	86	15
84	84	10
2	35	3
153	158	1
49	49	9
125	127	5
0	0	9
115	115	9
149	150	4
117	117	20
37	37	14
31	31	8
94	95	10
13	13	4
124	124	11
137	137	16
34	34	10
73	77	3
21	72	3
48	49	13
46	46	9
91	91	17
31	32	11
25	73	2
36	40	3
97	97	6
4	28	8
2	2	22
119	120	3
45	45	11
136	136	11
62	62	7
50	50	17
127	127	6
108	108	10
8	8	18
69	69	9
67	119	6
106	106	20
129	147	3
123	133	3
92	151	1
27	27	6
13	62	2
114	155	3
130	130	18
37	52	3
153	153	9
152	152	7
150	150	13
133	133	7
99	99	11
138	138	20
16	63	5
156	156	10
99	102	1
12	12	7
158	158	5
111	111	11
16	22	2
128	128	15
81	81	14
125	125	10
34	61	1
147	148	5
78	87	7
22	97	3
34	48	1
151	151	12
18	18	13
28	28	10
78	78	15
6	9	4
100	113	1
108	109	4
6	99	2
17	18	3
67	68	3
103	103	11
122	123	8
16	49	1
25	25	23
96	96	7
132	132	9
90	90	14
131	131	4
67	67	6
36	49	1
29	29	6
105	105	17
26	73	6
102	102	7
44	44	6
36	36	7
7	7	9
17	62	2
24	24	10
46	47	4
122	122	9
65	65	2
79	79	5
5	5	5
8	9	2
98	98	13
154	154	6
81	92	3
78	109	5
64	64	5
53	54	5
149	149	4
94	137	2
40	40	17
71	78	2
65	133	3
78	93	2
123	123	10
119	119	8
110	118	2
125	156	2
13	14	12
4	4	8
142	142	11
77	151	2
116	116	5
68	110	5
93	93	7
34	35	3
26	107	1
35	39	1
115	116	4
1	1	7
36	39	6
30	30	9
18	140	2
117	140	3
129	129	8
3	50	1
146	146	6
11	11	6
38	52	2
120	138	1
92	94	1
73	73	8
33	33	13
9	10	8
41	41	3
118	119	8
2	30	5
3	3	7
20	20	13
84	106	2
31	105	3
79	80	1
106	140	2
87	87	9
135	148	2
140	140	14
95	96	2
89	92	2
83	115	3
52	53	7
41	50	1
6	8	7
145	145	7
35	103	1
8	108	2
90	121	3
120	120	9
51	51	3
137	138	4
155	157	2
9	13	2
85	86	4
31	33	3
131	132	2
23	24	6
47	47	13
105	106	3
50	52	2
55	55	11
120	122	1
15	15	13
106	107	4
1	2	3
26	26	8
80	82	2
24	29	1
142	154	1
157	157	9
136	137	9
85	85	8
11	12	5
116	130	1
70	105	3
22	22	3
144	144	14
100	100	11
157	158	7
50	57	1
124	126	1
42	42	16
8	10	1
130	131	4
117	132	5
151	152	3
107	107	4
33	45	3
92	92	13
143	150	1
110	158	2
134	134	19
36	55	1
82	82	10
140	142	6
16	105	1
52	136	1
108	112	1
44	47	2
50	51	3
22	98	3
83	84	8
27	28	1
62	63	2
140	141	2
121	122	5
26	27	2
19	19	9
116	120	1
40	54	7
123	132	4
113	119	3
109	109	4
14	38	2
70	70	7
64	140	3
54	54	4
35	35	7
21	21	13
139	139	17
143	143	5
15	109	3
57	62	2
85	89	1
135	149	3
16	17	2
9	9	13
135	135	6
71	93	2
43	43	4
111	112	3
51	105	1
71	71	6
114	116	3
7	52	2
48	105	1
108	110	3
16	35	1
75	75	9
110	113	1
134	141	1
109	112	3
15	25	1
25	37	2
3	4	3
14	14	7
56	57	3
69	73	2
15	39	2
31	54	1
19	50	5
68	68	11
145	146	5
124	125	7
51	88	9
100	101	2
124	151	1
98	147	2
25	27	4
63	63	2
129	132	2
32	32	4
111	116	3
40	49	2
4	5	1
111	130	2
66	66	3
124	128	2
141	142	3
39	48	2
31	38	1
102	138	1
17	64	2
87	89	3
48	48	4
63	105	2
17	29	1
125	126	3
121	121	3
52	88	2
116	131	1
148	148	10
98	110	1
141	143	3
135	142	1
97	149	1
73	97	1
115	150	2
155	155	5
126	126	6
45	98	1
132	142	4
7	87	1
102	120	2
21	63	1
25	26	1
12	13	3
72	72	2
130	147	3
53	53	9
40	41	7
5	29	2
81	82	3
83	83	4
118	118	2
21	155	4
72	132	2
156	157	3
8	13	1
52	87	1
94	94	6
42	103	1
124	129	3
97	98	1
32	33	1
68	69	3
16	30	4
54	105	1
77	136	1
20	83	1
35	53	3
91	122	1
140	150	4
15	99	1
30	33	2
38	39	4
79	85	1
111	121	2
77	78	4
3	19	1
130	145	1
18	22	3
132	133	3
3	23	2
20	21	4
80	81	1
68	137	1
121	149	1
18	43	2
33	34	1
129	130	3
6	6	5
77	79	3
113	157	3
134	135	1
33	97	1
55	56	1
150	158	4
21	22	2
30	31	4
66	68	2
117	118	1
56	56	2
109	113	1
145	154	1
141	141	1
147	147	2
73	155	1
53	56	1
6	54	2
29	30	3
54	56	1
13	15	1
1	41	2
91	92	2
10	103	3
128	132	2
42	43	1
8	107	1
123	124	2
152	153	3
42	46	2
152	154	1
35	40	1
0	52	1
32	53	1
113	118	1
135	141	1
113	133	1
24	25	1
96	155	1
31	106	1
43	45	1
103	104	1
76	76	2
139	150	2
129	148	2
72	75	1
126	128	2
70	107	1
18	19	1
18	23	1
77	77	2
90	91	3
85	134	2
158	159	1
14	41	1
97	154	1
87	88	4
112	114	2
76	77	1
107	112	1
72	78	1
117	151	4
135	136	3
70	93	1
38	38	6
10	11	1
54	106	2
82	83	3
131	133	1
66	73	2
49	51	1
71	154	1
121	130	1
128	151	2
142	149	2
18	91	1
23	104	1
14	54	1
19	117	1
129	143	1
5	39	1
97	155	1
23	23	4
25	30	4
90	128	1
12	99	1
49	95	1
36	37	1
7	116	1
6	7	4
67	155	1
127	128	1
99	128	2
76	87	2
110	116	1
11	13	2
8	14	1
98	99	1
41	103	2
28	64	2
122	125	2
117	152	1
6	30	1
109	115	3
17	110	2
44	105	1
80	146	1
142	148	1
92	153	1
19	142	3
139	155	1
95	151	1
38	40	3
47	48	1
94	98	2
111	131	2
79	138	1
96	99	1
89	147	1
70	154	2
7	13	1
69	109	1
9	12	1
113	113	1
145	153	1
98	108	1
22	139	1
2	22	2
72	108	1
76	148	1
97	138	1
15	48	1
86	92	2
48	124	1
137	139	1
111	113	1
71	72	1
114	115	1
49	52	1
135	138	1
96	97	1
38	47	1
23	139	1
6	22	1
47	51	1
78	79	1
73	151	1
66	107	1
148	149	1
