47	48	6
115	116	3
128	129	4
77	77	8
102	102	8
6	6	7
107	107	3
63	64	10
39	39	7
112	113	4
103	114	1
88	91	10
131	131	10
106	106	10
113	115	5
80	81	1
41	41	7
102	107	5
62	83	2
111	112	1
16	31	4
72	72	11
104	104	6
22	22	7
10	10	9
55	72	3
41	43	3
94	94	11
92	92	14
10	27	2
119	120	3
20	20	9
52	52	4
34	34	12
60	60	8
100	109	6
89	89	8
145	145	16
34	113	5
18	60	6
38	38	7
73	89	5
108	109	4
2	3	2
61	71	2
129	129	6
43	67	5
133	135	4
17	17	2
46	87	1
43	43	5
142	144	2
111	111	12
136	140	2
117	117	7
8	8	7
8	39	5
140	143	1
107	110	3
48	86	5
140	141	2
27	144	3
134	134	5
59	59	5
27	27	6
32	33	2
85	85	5
9	9	7
128	128	8
137	137	19
76	76	7
58	58	7
17	18	7
92	106	1
8	40	2
143	143	7
88	88	3
122	123	10
18	18	4
19	19	7
64	64	6
52	81	4
104	105	1
2	2	2
98	98	1
37	37	6
42	42	5
18	33	9
13	13	6
8	36	1
73	74	3
62	72	2
48	85	1
62	62	7
8	26	2
101	101	6
71	71	14
62	63	3
70	71	5
22	58	4
68	68	10
57	78	1
19	42	2
119	119	6
47	49	2
12	13	3
26	38	2
65	69	1
112	115	2
18	23	1
34	40	2
27	68	1
113	122	2
110	111	2
25	25	4
70	73	3
24	25	3
103	112	6
54	54	4
78	78	11
103	105	2
19	37	2
81	81	8
20	37	3
123	123	4
0	0	4
124	124	7
53	53	4
2	32	4
121	121	4
83	83	12
142	142	11
102	112	1
135	135	3
36	36	5
91	92	2
6	134	3
15	15	6
18	32	3
83	86	3
135	144	3
88	89	4
79	86	1
24	35	4
142	143	3
133	133	2
146	146	1
22	35	6
38	96	2
132	133	5
30	30	9
50	50	9
49	51	1
62	64	8
76	77	5
118	118	4
23	23	6
26	26	3
15	16	4
49	49	8
104	119	2
55	91	5
66	66	9
90	100	1
14	14	6
103	116	1
85	86	3
19	35	1
28	105	3
19	39	2
54	55	2
120	126	1
20	21	4
1	1	6
12	12	5
135	142	2
16	16	1
89	90	4
79	79	2
51	58	2
32	32	4
9	21	1
5	66	3
48	48	3
70	70	8
68	69	4
74	97	1
133	134	6
55	55	5
126	126	5
84	84	5
75	75	5
21	24	1
116	117	4
67	67	2
0	3	3
49	50	4
122	122	8
32	97	2
56	56	6
19	85	2
123	129	2
130	135	3
74	74	13
55	56	1
80	80	4
32	79	2
25	26	7
67	93	4
122	127	1
132	132	1
120	120	6
24	24	5
12	14	2
51	51	4
38	40	1
42	85	1
70	74	9
92	97	1
69	69	2
118	119	1
23	59	1
124	125	6
29	29	7
126	133	2
96	96	8
99	99	3
21	21	3
28	37	2
5	5	5
27	40	2
132	137	1
103	103	2
120	121	2
107	108	2
61	61	3
48	87	5
3	3	9
81	82	4
97	97	5
67	68	3
0	29	2
47	47	9
53	59	1
98	101	2
27	38	1
59	61	1
9	19	1
72	73	3
66	70	2
136	136	5
76	93	1
60	97	3
127	136	2
14	39	2
93	94	5
11	11	9
114	114	7
28	28	4
144	144	4
140	140	10
61	70	3
33	33	3
12	16	5
141	141	14
83	85	4
11	15	1
100	105	2
115	115	4
30	33	3
68	74	1
20	76	6
9	11	7
100	100	2
62	91	2
27	28	6
40	41	3
31	33	1
131	136	1
58	98	3
30	68	2
125	125	4
2	129	3
131	137	1
140	146	3
23	24	1
53	54	4
57	57	5
143	144	2
139	139	5
103	144	1
14	15	2
51	86	1
65	70	6
31	78	2
71	87	2
13	74	5
17	53	1
61	84	2
87	95	3
27	30	5
6	33	2
35	35	4
6	139	2
15	41	6
91	91	6
136	138	3
123	128	1
127	127	1
71	72	1
12	20	1
9	55	1
5	69	1
27	41	1
1	34	3
87	87	8
24	39	2
24	26	3
89	98	1
138	139	4
129	139	2
108	108	2
116	116	3
73	92	2
106	112	2
67	137	1
130	130	4
63	63	2
66	71	1
52	85	1
31	58	3
73	73	1
54	81	1
120	125	1
98	118	4
96	117	1
3	92	1
41	42	1
3	33	1
95	95	2
137	138	1
126	134	1
18	19	3
58	60	1
106	111	1
130	131	1
14	74	2
32	38	2
118	123	1
112	112	1
23	41	1
20	93	2
82	86	1
136	143	1
77	79	1
34	105	1
101	117	1
30	38	2
9	91	1
1	37	2
134	135	2
50	86	1
54	57	1
1	2	1
56	67	4
21	22	1
120	141	1
26	27	4
133	141	1
30	59	2
73	90	1
8	37	2
101	113	1
96	97	1
75	77	1
10	92	1
9	10	1
129	130	2
21	35	2
9	13	2
17	62	1
34	35	1
78	79	1
100	102	1
57	62	1
100	108	1
30	31	2
90	90	1
89	94	1
54	91	3
135	140	1
34	103	2
51	109	1
6	133	1
24	42	1
65	65	1
34	108	2
27	42	1
36	39	2
49	91	2
62	65	1
137	139	1
96	101	1
14	23	3
99	111	1
55	76	1
125	132	1
31	31	3
55	78	1
102	108	1
58	61	2
29	38	1
104	138	1
26	39	1
97	98	1
78	86	1
119	126	1
65	66	2
123	125	1
102	103	2
40	68	1
23	42	1
93	93	1
73	107	2
70	84	1
65	67	1
8	88	1
61	87	1
34	37	1
113	116	2
11	77	1
63	65	1
135	139	1
56	57	1
53	55	1
15	26	1
36	37	1
113	114	1
74	89	1
49	52	1
108	112	1
10	14	1
4	43	1
96	102	1
114	117	1
73	95	1
