124	124	6
77	138	5
43	43	9
45	45	5
61	61	3
36	37	9
67	68	3
90	90	6
128	128	1
18	18	4
81	141	2
150	153	1
34	34	3
97	129	2
113	154	1
41	41	6
41	87	1
158	158	3
126	126	1
7	9	2
148	148	8
157	157	5
41	42	2
122	123	2
32	53	3
129	132	4
39	39	2
26	26	9
1	3	3
141	142	1
64	99	5
4	61	3
125	127	2
24	30	2
107	107	9
104	112	1
83	85	2
114	114	3
24	24	2
46	89	4
115	142	3
55	62	1
81	83	1
122	122	1
110	111	1
87	89	3
11	14	2
144	145	3
50	50	3
71	71	6
90	92	1
81	81	5
110	110	2
74	74	1
106	119	4
112	112	3
124	125	1
73	73	2
67	137	1
13	14	5
98	98	2
67	67	1
68	68	6
113	113	5
99	99	1
96	96	1
57	57	3
1	1	4
102	104	1
137	137	2
118	121	1
33	33	1
153	153	1
36	36	1
12	17	2
99	100	1
108	112	2
63	134	3
147	147	3
8	9	2
157	158	1
20	20	5
120	120	2
152	152	2
140	140	3
23	23	5
82	82	3
33	54	1
44	44	3
40	41	1
100	100	3
31	31	2
148	155	2
7	7	7
94	94	3
140	141	3
154	154	2
101	129	2
94	132	2
14	14	2
32	32	1
105	120	1
107	135	2
11	31	2
144	144	3
64	64	7
119	120	4
2	2	4
10	15	2
101	101	3
78	78	5
141	141	4
81	116	2
127	128	1
95	96	1
33	34	4
0	0	1
150	150	3
123	142	2
149	149	1
77	78	1
28	28	4
131	133	3
97	97	2
91	92	1
85	91	1
88	88	1
4	4	1
124	128	1
136	136	1
117	117	1
157	159	2
37	37	1
104	104	1
65	88	2
118	118	2
5	5	1
40	44	3
2	4	2
40	45	2
9	9	3
62	62	2
95	97	1
115	116	2
52	55	3
106	106	2
22	23	1
6	6	1
49	88	1
22	24	1
109	109	1
81	97	2
142	142	1
122	143	2
102	103	2
139	139	2
93	96	2
8	8	2
68	69	2
127	141	1
71	86	1
48	48	2
145	146	1
135	135	1
51	51	2
0	2	2
49	49	2
89	89	1
108	111	2
1	2	2
37	38	1
116	118	3
85	86	2
153	154	1
107	112	1
138	138	2
52	52	1
63	63	1
109	111	1
87	87	1
76	77	1
143	143	1
106	107	1
95	95	1
82	133	2
29	29	1
119	119	1
40	42	3
105	123	3
5	30	2
6	8	1
105	111	2
35	45	3
159	159	1
69	70	1
65	90	1
22	22	1
155	156	1
129	130	1
78	79	3
31	46	1
10	10	2
108	108	2
130	130	2
15	15	1
67	93	4
126	127	1
127	127	2
111	111	1
77	77	3
156	157	1
98	99	1
48	49	1
85	85	1
33	46	1
156	156	1
69	71	1
76	79	1
