152	152	3
88	88	10
117	117	10
89	89	6
161	161	10
97	207	2
198	198	2
145	184	2
246	246	7
76	76	10
78	78	5
65	65	10
23	23	4
110	110	9
74	77	3
194	196	4
49	50	5
40	42	3
101	101	3
53	53	6
145	145	4
175	175	6
180	180	2
104	180	1
236	236	9
167	167	5
220	236	6
201	227	3
243	243	4
162	162	15
67	67	7
150	202	2
230	235	9
22	23	2
155	155	6
119	119	6
40	40	9
158	159	2
52	52	6
151	151	5
212	212	7
47	47	6
106	181	2
25	25	6
71	71	6
214	236	1
51	51	9
45	45	6
32	32	4
10	10	9
38	38	2
192	195	1
214	214	4
48	48	5
104	104	5
160	160	6
90	105	3
190	190	2
239	240	2
5	177	2
217	217	3
239	239	1
152	165	1
213	221	1
42	42	2
49	49	2
4	4	3
165	165	5
29	31	2
161	184	2
86	87	2
36	36	5
73	73	5
108	108	2
206	207	2
204	204	6
195	196	5
222	223	1
165	166	5
44	180	2
231	231	2
115	115	8
65	69	4
215	222	1
68	212	1
55	64	2
157	173	3
27	32	2
17	17	4
48	115	4
229	229	4
53	83	3
26	38	6
218	218	12
42	43	1
82	83	1
172	172	7
3	9	2
149	149	1
237	239	3
13	13	4
64	64	3
113	113	2
187	188	3
82	86	2
11	22	3
30	30	3
184	184	5
72	72	5
202	202	6
168	168	9
187	187	1
65	66	4
14	14	7
221	221	3
192	211	1
241	248	2
216	217	6
8	8	6
213	213	4
81	81	5
182	182	4
93	210	4
165	184	4
153	165	5
41	41	6
75	75	6
109	109	3
93	111	4
1	10	1
209	209	3
153	153	6
222	222	2
56	83	2
113	118	2
203	203	8
152	153	2
234	234	4
77	77	3
188	188	7
48	114	2
91	91	3
186	193	1
90	181	1
198	199	3
31	31	4
33	33	5
206	226	1
12	12	6
21	21	3
156	156	4
66	73	1
96	96	8
184	185	3
216	216	3
207	208	2
208	208	8
153	154	2
166	166	1
52	53	1
56	84	2
226	226	7
70	74	1
244	244	7
221	236	1
192	192	8
237	237	2
8	9	2
11	11	6
179	179	7
95	96	1
103	180	2
157	183	2
230	230	1
199	199	2
18	18	1
85	86	6
33	35	4
50	118	2
18	19	1
98	211	3
16	51	2
93	93	3
150	150	6
189	189	3
93	100	2
68	68	3
27	36	4
62	63	4
44	44	3
58	58	5
144	182	2
232	232	7
34	34	3
82	85	4
102	102	3
172	173	6
19	19	2
16	43	2
223	224	4
24	24	4
247	247	1
113	115	2
95	95	2
158	158	2
31	32	1
249	249	1
212	236	4
200	200	4
183	183	3
84	84	1
215	219	1
154	154	3
41	86	2
89	105	5
83	83	3
197	197	1
152	184	3
59	59	2
185	185	1
235	235	5
42	85	1
187	199	1
11	23	1
55	55	6
203	207	1
15	15	3
224	237	1
92	92	1
169	169	2
14	15	3
56	57	1
162	197	1
70	70	3
116	116	5
66	67	1
41	85	1
61	63	4
107	107	6
229	230	1
226	227	1
111	111	4
157	166	1
112	113	4
186	196	2
194	195	3
60	60	1
151	185	3
97	97	1
52	90	1
199	225	1
80	146	2
215	220	2
63	63	3
67	68	2
110	144	1
158	160	3
74	74	1
225	225	5
1	1	7
100	100	5
66	212	1
106	106	1
151	162	2
20	20	2
61	61	3
163	164	2
224	236	2
111	147	4
54	55	3
219	219	7
222	224	1
54	54	3
206	206	7
211	211	2
96	97	3
59	60	2
151	156	1
181	181	4
220	220	2
32	33	1
215	215	6
12	46	1
206	213	1
3	4	3
47	118	1
169	172	2
168	169	1
178	178	3
157	159	3
89	116	2
246	247	1
223	225	1
64	83	2
57	57	7
112	112	1
247	249	1
17	19	2
216	218	2
233	234	2
90	90	2
39	39	2
37	38	1
220	233	1
66	72	1
75	77	3
238	238	2
80	101	1
118	119	1
96	211	2
11	24	1
5	5	2
114	114	1
80	80	1
43	43	4
154	156	3
94	94	4
28	28	2
219	220	2
67	212	3
105	113	1
72	211	1
207	207	6
72	212	1
6	7	3
69	69	3
56	56	2
238	240	2
15	91	1
194	210	1
168	171	1
50	50	4
46	46	8
93	101	1
194	213	1
210	210	4
95	98	2
223	223	1
27	27	3
23	24	3
215	216	2
70	71	5
198	225	1
87	87	1
94	100	1
50	114	3
193	194	1
206	208	1
248	248	1
146	146	2
114	115	1
243	246	1
190	213	1
2	2	3
6	8	2
156	167	1
79	79	1
200	225	1
217	236	1
44	179	1
92	111	2
213	222	1
177	178	2
102	180	2
3	3	3
156	161	2
245	246	1
103	103	1
59	77	2
106	107	2
154	164	1
67	226	2
195	195	1
14	18	1
75	232	1
208	209	2
29	29	2
214	215	2
14	20	1
57	58	1
76	77	1
176	177	1
52	93	1
215	221	1
89	113	1
164	164	1
240	240	1
65	99	1
211	213	2
109	182	1
239	247	1
75	234	1
213	214	2
81	83	1
64	100	1
201	201	1
92	181	1
35	35	1
232	233	1
46	110	1
36	38	1
110	111	1
