121	121	29
54	54	10
125	131	3
25	25	5
128	128	6
80	80	3
63	64	1
64	64	1
49	49	7
110	110	9
74	80	4
92	101	1
82	82	5
11	13	2
50	50	12
39	39	2
114	114	8
84	84	3
60	60	2
3	3	2
110	111	3
83	83	6
39	62	2
127	130	3
112	112	12
9	10	5
6	6	8
70	71	4
31	31	8
105	106	7
18	19	4
85	107	2
66	66	2
70	70	12
116	116	6
44	45	5
106	109	1
75	94	2
11	11	8
42	42	11
107	107	6
7	62	1
128	132	2
123	123	14
103	119	1
56	58	2
111	111	12
54	83	2
124	125	2
98	99	3
109	109	2
60	61	4
90	96	3
12	12	7
84	85	2
56	109	2
102	102	12
29	29	12
124	124	8
47	61	1
100	101	8
19	19	11
69	69	13
106	117	1
2	2	5
132	132	5
49	64	4
62	63	1
57	58	1
87	89	7
40	40	8
62	62	8
94	94	3
92	92	2
7	17	3
42	45	2
38	38	5
87	87	11
10	10	3
117	117	8
117	118	4
53	53	7
78	79	4
106	114	3
55	55	3
57	57	7
96	96	3
49	52	1
30	30	12
61	61	9
27	27	5
59	59	8
115	115	3
126	127	2
90	101	1
120	120	5
15	16	4
118	119	3
95	96	6
53	54	4
119	127	6
44	44	5
63	63	2
126	126	3
89	89	5
122	123	7
95	124	4
125	125	17
58	59	6
130	130	4
13	13	1
60	63	1
113	113	10
94	95	5
65	65	4
73	74	7
77	81	3
32	32	12
4	4	3
127	128	1
77	90	2
118	118	9
78	78	8
64	73	1
38	39	3
12	13	3
9	20	2
92	93	4
47	47	7
103	103	2
48	48	5
98	98	4
51	51	2
79	79	4
17	108	2
4	5	1
52	52	4
46	46	6
105	105	6
9	15	2
95	95	3
24	29	1
2	4	2
5	6	3
111	112	1
16	16	3
91	91	5
1	1	11
54	109	4
65	66	3
85	85	5
24	41	5
102	129	1
31	42	1
23	23	2
45	45	1
17	18	2
82	83	4
10	11	2
75	75	9
73	73	6
2	3	1
81	81	1
106	106	4
100	100	2
63	72	2
121	122	2
41	42	3
26	43	2
6	9	1
5	5	2
39	64	1
104	104	2
133	133	2
113	114	1
72	72	5
97	97	2
85	94	1
62	64	3
86	105	1
1	2	2
56	56	3
71	71	2
122	122	6
101	101	1
17	17	1
76	81	3
96	97	3
102	105	2
26	27	3
9	18	1
50	51	2
77	97	1
70	80	1
64	65	1
44	61	1
8	8	2
10	20	1
101	102	2
88	88	1
48	60	1
127	127	1
8	64	1
3	6	1
26	26	4
61	62	2
23	24	1
93	93	3
68	68	2
43	43	1
21	21	1
58	58	2
22	22	1
42	44	3
15	15	2
54	107	1
48	66	1
108	108	1
123	124	1
129	129	1
2	22	1
23	39	3
22	23	2
13	14	2
7	7	2
24	24	1
107	109	1
56	84	1
71	72	1
54	95	1
7	8	1
5	20	1
79	80	1
23	25	1
24	30	1
