64	64	2
54	54	7
33	33	4
16	16	4
58	59	1
112	112	1
113	113	11
50	50	4
0	0	11
130	131	4
114	114	4
80	80	11
104	127	4
35	35	7
79	79	8
98	114	1
34	35	4
92	93	2
83	83	1
121	121	3
29	29	4
95	95	2
65	97	2
109	132	3
66	67	4
99	118	1
127	128	1
11	11	10
73	73	7
60	60	3
35	36	2
5	5	4
62	63	4
30	30	2
102	102	7
85	85	3
72	72	2
121	122	5
83	84	4
49	132	4
111	111	5
18	18	5
86	87	1
128	128	6
108	132	2
96	96	5
55	56	2
33	34	4
60	79	5
27	27	8
90	90	4
118	118	1
10	10	2
125	125	2
53	62	1
49	109	1
44	45	3
107	107	2
76	77	3
17	19	1
62	62	1
2	2	1
8	10	2
88	88	2
91	91	4
22	22	2
85	86	2
34	34	3
7	7	3
45	47	1
107	112	2
74	74	1
65	66	5
65	69	2
89	89	3
9	9	2
120	121	2
120	120	5
107	108	2
66	96	2
14	14	6
23	23	7
0	134	1
116	117	2
130	130	2
109	109	2
52	66	2
126	127	6
71	72	3
52	88	2
69	70	2
70	70	4
115	115	4
64	97	1
43	43	1
70	72	2
6	6	3
72	73	1
118	119	1
113	121	1
32	32	4
58	58	1
75	75	7
47	48	1
100	100	4
37	37	3
103	123	4
126	126	2
123	123	2
1	1	4
2	4	2
22	94	2
127	129	2
68	68	2
99	114	2
66	66	1
42	82	2
91	92	3
10	15	3
52	133	1
75	76	2
13	13	2
48	113	5
4	4	1
81	81	1
82	96	2
50	65	3
45	45	1
9	10	1
55	58	1
111	124	1
20	20	1
131	131	1
105	105	2
24	24	3
101	119	1
122	123	1
69	69	2
87	87	5
134	134	4
133	133	2
61	63	2
129	129	2
7	11	1
31	31	2
101	101	1
79	80	1
5	6	1
57	59	2
63	63	1
106	130	2
51	52	1
65	65	2
112	123	3
102	103	3
28	28	4
67	68	2
107	111	2
45	46	2
67	67	1
77	77	1
103	104	1
26	26	1
80	81	2
82	82	1
55	55	1
53	64	1
112	122	1
110	110	2
116	121	1
65	68	1
11	12	2
98	98	3
22	23	1
85	88	1
97	98	1
52	85	1
46	46	1
27	28	1
38	38	1
59	118	1
25	25	1
6	8	1
13	29	1
21	21	1
135	135	1
104	104	1
103	103	1
43	45	1
128	129	1
94	94	1
