141	141	14
135	135	12
11	12	2
170	170	4
153	153	2
92	93	1
12	13	8
180	180	8
152	152	9
183	184	8
90	90	8
55	55	17
73	75	4
41	41	23
105	105	9
119	126	1
108	108	6
140	140	11
127	127	6
9	9	3
2	2	4
111	145	2
65	65	13
33	33	2
84	84	9
57	57	12
71	71	8
48	48	16
131	136	3
152	153	9
94	94	8
85	85	4
6	42	3
114	114	10
65	68	3
94	95	1
173	173	10
185	186	8
121	121	2
45	45	7
125	125	4
27	31	3
47	48	3
4	4	10
57	62	1
59	60	2
28	28	2
182	183	10
109	109	12
155	164	7
7	44	3
67	68	2
60	60	7
171	171	11
38	75	7
10	10	9
21	21	8
23	24	10
143	145	3
110	121	2
56	57	2
106	107	3
29	41	1
11	42	5
32	32	7
117	117	9
80	90	7
153	154	3
78	78	5
66	66	11
135	146	1
13	13	7
19	66	5
145	172	6
187	188	3
144	145	4
88	88	10
79	92	4
166	174	3
179	179	6
110	141	2
176	176	6
182	182	8
160	186	2
62	62	1
161	161	4
6	7	3
96	96	9
165	165	12
164	168	2
1	1	8
43	43	4
176	177	4
17	17	11
117	146	1
104	104	7
166	167	4
93	93	12
53	53	6
110	111	7
85	122	3
131	131	11
187	187	10
53	54	8
15	15	10
47	118	1
143	143	16
174	174	11
59	59	7
42	42	14
16	22	3
25	65	2
17	18	2
189	189	14
77	78	4
118	118	11
155	182	2
157	172	3
101	101	13
76	77	4
74	75	7
26	26	10
145	145	8
54	54	3
0	0	4
70	70	6
88	140	4
97	97	5
99	142	2
155	169	2
42	53	3
65	105	1
113	113	18
156	180	1
31	31	11
30	32	1
58	59	1
44	44	5
96	99	5
11	11	7
157	157	3
186	186	4
87	89	2
136	137	2
85	153	1
110	110	6
107	145	2
159	159	22
8	8	8
111	111	6
167	169	7
33	39	2
32	128	2
5	5	6
92	99	3
7	24	1
53	59	2
89	108	1
129	129	8
81	81	12
10	14	2
158	177	6
124	124	7
172	172	7
11	14	1
116	116	8
119	119	8
161	188	1
38	38	2
141	146	2
48	70	1
22	23	1
185	185	8
16	16	4
14	15	6
166	166	6
16	17	3
91	95	4
175	175	5
74	88	2
79	79	5
95	95	6
24	24	5
120	120	14
124	125	4
130	161	3
144	148	1
177	177	6
149	149	8
74	74	3
31	38	3
164	164	5
130	130	7
137	137	9
135	136	3
22	122	2
73	74	2
15	30	2
87	88	3
154	155	4
40	40	11
142	142	9
115	115	3
18	20	3
22	22	9
162	162	4
53	63	1
31	35	4
15	22	3
67	67	3
123	123	6
98	99	2
59	90	3
27	28	2
18	18	7
126	127	3
66	67	1
80	82	7
120	122	3
128	128	10
178	181	4
148	148	5
3	3	8
92	92	7
103	103	9
78	101	4
72	72	11
188	189	2
17	25	2
163	163	4
119	141	3
35	35	6
68	68	13
126	126	8
150	150	11
149	188	1
73	73	5
118	132	4
25	25	7
55	56	2
45	78	3
21	22	3
165	180	2
159	160	1
121	187	2
33	41	2
113	140	3
158	158	5
39	39	2
9	10	7
143	146	4
122	122	7
75	76	7
143	171	3
167	167	2
134	136	1
168	168	4
83	83	4
154	154	11
99	99	4
7	7	9
141	187	1
163	168	3
87	87	3
144	144	7
20	20	2
4	21	3
122	124	1
175	178	5
134	134	9
56	65	2
37	37	8
95	111	1
107	107	3
178	178	7
129	130	3
33	37	2
142	150	4
169	169	10
82	122	1
140	175	6
104	141	2
80	80	10
146	146	2
92	104	2
91	91	2
160	161	1
47	119	3
1	7	1
10	11	3
175	176	1
89	89	4
19	19	8
173	174	1
136	136	8
36	36	1
46	46	8
47	47	8
153	165	3
27	27	6
62	74	3
139	139	9
10	38	9
34	37	3
143	148	1
137	146	1
29	35	1
10	40	1
133	147	2
76	76	6
12	15	2
80	114	2
156	156	5
156	159	2
14	14	2
112	140	1
53	60	1
147	147	2
174	185	3
186	187	1
132	133	1
144	165	2
8	47	1
115	138	2
15	16	1
56	56	3
63	63	2
58	58	7
103	104	1
116	139	7
61	64	1
183	183	6
43	44	2
131	133	1
61	61	2
25	26	3
78	79	1
44	94	3
37	38	4
134	139	5
151	151	3
181	181	3
134	135	2
117	118	4
132	132	2
25	30	1
18	27	2
95	101	2
2	3	2
149	150	2
129	137	3
9	75	1
13	17	1
64	64	6
167	168	2
111	121	2
184	184	2
65	72	1
29	29	10
53	55	1
159	165	3
42	43	2
11	15	2
88	89	4
168	169	3
33	34	2
42	55	2
161	163	1
133	133	11
138	139	2
14	21	1
45	46	3
25	123	1
95	98	3
18	19	1
47	65	4
137	138	3
177	178	1
144	171	3
82	82	7
42	48	2
15	17	1
40	41	2
119	128	2
44	46	2
156	160	2
94	96	4
22	30	1
112	112	4
100	107	1
136	138	2
42	44	2
106	106	5
104	106	1
172	174	1
36	66	1
58	68	3
111	117	1
171	172	3
162	175	2
98	98	3
85	111	1
64	68	3
82	93	3
31	39	2
32	33	1
75	80	2
7	47	3
23	23	3
73	106	1
6	6	6
78	83	3
54	136	1
29	30	3
55	72	1
39	40	1
180	183	2
146	147	1
82	91	1
1	2	2
154	171	1
138	138	1
125	140	1
55	137	2
54	55	1
188	188	3
120	125	1
49	49	1
88	90	1
46	47	1
115	117	1
159	184	3
78	80	2
109	110	2
184	185	1
75	75	3
93	94	3
170	172	1
96	98	1
86	86	1
160	160	1
102	102	1
100	100	2
147	148	3
80	86	2
169	170	2
77	155	1
79	80	1
26	41	3
91	93	1
77	153	1
114	140	1
155	155	1
34	34	1
25	28	1
140	187	1
85	125	1
12	38	1
101	112	2
113	115	1
162	163	2
63	74	1
5	6	4
86	88	1
160	175	1
63	103	1
88	92	1
85	112	2
30	31	1
141	142	1
31	37	1
20	21	1
7	8	3
150	187	1
13	15	1
77	77	6
137	141	2
130	133	1
35	36	1
68	86	1
34	35	1
42	47	3
80	91	1
88	93	2
20	22	1
48	73	1
65	69	1
151	155	1
162	165	1
144	181	1
177	185	1
180	181	1
79	113	1
26	40	1
140	170	1
65	67	1
178	179	1
118	153	1
123	125	1
108	109	1
90	141	1
144	146	1
19	20	1
33	45	1
49	65	1
96	97	1
177	179	1
68	69	1
37	78	1
55	71	2
130	179	1
42	52	1
52	53	1
142	143	1
147	151	1
86	87	1
37	41	1
108	112	1
9	14	1
76	83	1
