50	51	11
92	103	1
79	79	12
48	107	3
21	21	4
47	48	4
89	89	21
55	59	3
43	43	16
98	98	18
66	67	1
82	89	1
46	58	2
94	94	6
41	59	4
78	78	23
31	31	16
38	40	6
38	38	23
80	80	5
58	58	13
23	77	3
61	61	4
34	38	2
95	95	15
23	27	5
109	110	14
59	84	2
46	47	6
76	76	9
98	99	11
91	91	8
106	107	6
32	58	2
31	97	2
23	23	18
82	84	2
61	83	2
65	66	9
64	64	10
66	108	1
77	77	5
99	99	3
83	89	1
70	70	11
32	32	22
73	97	1
43	86	4
24	24	9
41	41	16
75	75	10
97	97	17
32	39	6
65	65	15
83	83	4
33	33	15
52	52	7
39	41	4
59	60	6
51	51	10
78	79	2
48	48	9
59	59	13
108	108	6
20	20	12
33	35	2
48	49	3
86	86	9
39	39	21
37	37	16
90	90	10
86	87	4
107	107	10
72	72	20
46	48	1
65	80	8
96	96	18
29	89	5
28	29	4
53	53	19
85	85	13
36	36	10
69	72	3
71	71	16
30	30	14
102	102	11
41	42	5
64	69	6
67	71	5
98	100	1
89	90	3
54	54	15
84	84	16
84	85	3
86	103	1
91	102	4
49	107	2
67	68	4
67	67	3
42	42	14
37	39	5
36	67	3
53	54	8
63	63	7
69	71	1
27	44	2
63	64	1
81	81	7
30	43	6
61	62	3
105	105	9
82	82	5
24	25	3
34	34	6
36	39	3
22	22	16
75	93	3
35	35	14
62	63	6
44	44	3
30	31	5
31	96	1
95	96	5
62	66	3
44	86	5
75	77	3
45	45	21
44	87	4
29	29	5
43	51	3
47	47	18
100	100	7
69	70	3
92	98	3
104	106	3
61	70	3
31	32	1
56	69	2
37	38	2
57	57	7
87	88	2
85	87	7
74	74	9
62	62	9
50	50	2
54	56	7
75	76	2
25	25	18
112	112	6
78	80	3
44	107	3
20	22	2
103	105	4
56	56	14
46	59	2
46	54	2
40	41	5
28	28	5
69	69	9
67	96	5
103	104	2
26	26	16
35	36	2
51	61	1
23	26	4
106	106	5
77	80	4
46	104	7
46	46	6
85	102	2
111	111	16
30	100	4
56	67	1
72	73	6
113	113	9
101	101	6
54	58	6
95	98	1
93	93	4
92	92	6
32	41	6
47	104	2
77	101	2
82	83	7
95	99	4
79	107	3
105	107	4
77	78	4
46	96	1
63	80	4
38	68	1
64	65	2
55	55	12
66	66	11
94	96	1
80	91	2
38	39	1
60	61	2
87	90	4
83	84	2
26	28	4
103	103	12
69	80	4
37	115	1
104	104	4
73	75	1
21	22	3
23	24	2
57	106	2
56	57	4
109	109	4
110	110	7
49	52	2
49	50	3
40	40	7
20	21	2
73	107	1
88	88	9
78	108	2
97	98	3
19	19	6
30	110	2
50	53	1
22	23	3
49	49	2
73	73	10
99	100	5
71	73	5
68	69	5
86	91	4
76	85	1
88	91	2
58	60	5
92	100	3
60	60	6
35	101	4
68	68	2
92	93	4
66	75	2
96	97	2
94	95	1
71	72	3
77	113	1
72	75	1
64	66	2
26	27	13
92	102	2
84	112	3
93	97	3
76	105	1
45	53	2
38	41	1
83	114	1
46	56	1
70	71	9
89	91	3
87	87	6
101	107	1
114	114	2
48	86	2
109	111	1
73	74	1
27	27	4
36	37	2
77	81	1
69	92	1
45	73	2
101	103	2
26	35	1
33	34	6
90	91	3
35	106	1
28	30	3
46	103	2
30	32	1
67	74	3
65	67	2
90	96	1
45	46	3
81	83	1
43	102	1
96	99	3
70	81	3
43	87	2
40	42	1
33	36	1
43	46	2
64	67	1
102	103	2
104	105	1
64	70	2
45	86	3
75	86	3
94	100	3
77	108	1
30	42	4
63	71	1
105	106	1
110	113	1
88	89	1
87	89	2
29	45	1
51	52	3
79	93	1
43	45	1
41	95	1
115	115	1
28	40	1
32	94	1
44	45	1
54	55	2
107	113	2
60	62	1
45	54	1
68	96	1
110	111	1
93	94	2
38	107	1
73	106	1
86	107	1
93	98	1
19	29	1
47	49	2
31	42	1
101	106	1
29	90	1
24	27	1
64	81	1
87	91	2
93	95	1
80	82	1
29	30	1
51	53	1
85	90	1
74	75	1
67	81	1
64	78	1
36	107	1
73	109	1
78	113	1
29	48	1
37	104	1
19	47	1
31	114	1
26	78	1
28	47	1
76	102	1
