221	221	8
45	45	3
18	19	6
175	193	1
223	223	12
186	192	1
187	188	5
174	174	9
208	208	11
6	7	3
107	107	7
29	31	5
213	213	5
203	203	7
164	177	1
161	161	3
52	52	4
152	154	4
24	24	3
179	180	5
185	185	11
56	57	3
155	155	8
187	190	3
68	72	3
10	10	3
69	70	2
176	176	1
95	105	2
236	241	3
49	51	3
2	30	2
20	20	7
212	212	3
58	60	1
208	210	4
108	108	3
18	18	3
112	114	3
57	61	1
151	205	2
36	36	5
6	6	13
119	159	4
196	223	4
46	47	3
68	68	11
90	92	2
226	226	3
100	100	4
214	234	3
170	193	1
42	42	11
231	231	3
197	198	6
156	156	5
63	63	10
216	216	7
227	228	2
16	16	3
91	115	1
240	242	5
191	191	2
165	166	3
78	78	9
163	163	5
53	53	3
54	62	4
150	150	5
241	241	4
152	153	3
89	117	1
167	174	3
41	43	2
239	240	3
208	245	4
235	235	3
245	245	5
96	96	4
183	183	4
169	169	3
2	2	6
99	99	1
24	202	2
43	44	3
101	101	8
154	212	1
66	66	3
242	242	1
40	41	1
120	120	3
190	190	3
13	20	3
214	214	8
152	152	1
168	169	5
198	198	5
240	240	4
232	232	1
15	38	1
153	153	1
151	168	5
178	178	5
206	206	4
35	79	2
49	56	1
12	42	4
99	100	5
157	158	2
66	79	2
5	19	2
192	192	1
67	79	4
187	196	3
237	237	2
89	89	1
218	219	2
200	200	7
57	59	1
165	165	2
28	28	3
230	230	3
199	199	2
35	151	2
218	218	8
177	181	1
34	35	1
72	75	3
7	40	1
1	5	1
57	112	3
175	175	2
4	4	1
240	243	4
76	76	4
207	208	2
109	109	3
8	8	5
171	171	1
205	229	2
9	9	4
217	241	1
82	114	1
244	245	1
29	155	4
35	35	2
27	27	6
213	214	3
51	52	2
9	15	3
52	71	3
210	212	1
112	112	3
147	147	3
105	108	1
55	56	2
47	47	3
54	54	6
37	38	1
61	61	5
177	192	3
236	237	3
106	106	4
35	101	3
162	162	7
208	209	1
111	111	2
233	233	2
4	5	2
172	174	1
31	31	5
209	209	7
90	90	2
221	241	1
58	62	3
74	94	1
57	204	2
96	97	2
26	26	3
186	186	3
67	77	2
246	246	1
53	58	4
217	217	4
59	59	3
205	205	1
218	238	2
248	248	2
7	41	1
57	107	2
164	171	2
94	96	1
20	27	2
18	33	2
193	193	4
144	158	3
229	229	3
56	108	3
8	9	4
222	223	3
5	7	1
71	74	3
46	46	2
170	170	2
103	103	2
103	105	1
220	221	2
22	22	4
113	113	2
40	40	3
219	219	5
104	104	2
30	30	1
33	33	2
114	115	4
17	17	2
185	186	3
86	86	8
214	237	1
43	43	2
165	183	2
44	44	4
221	222	1
48	48	3
151	151	3
34	112	2
163	165	2
7	7	1
166	166	4
87	87	1
10	38	2
194	214	2
167	175	1
227	227	1
238	238	1
83	83	2
160	160	3
239	244	1
169	197	1
20	22	3
29	29	3
179	179	6
47	97	3
196	224	1
11	11	9
225	225	4
234	234	4
203	204	1
114	116	1
65	84	2
50	50	2
198	221	1
247	248	2
162	163	1
110	110	1
111	121	2
78	79	3
238	241	3
52	70	1
71	72	2
102	102	1
50	75	1
196	233	1
168	168	3
23	23	2
157	157	1
195	195	2
104	105	1
19	19	2
219	220	1
188	189	2
164	164	5
201	202	4
93	98	2
56	56	4
119	119	1
3	3	3
231	232	2
6	40	3
170	171	3
52	53	3
224	224	1
167	167	6
173	173	2
80	80	1
11	38	1
195	223	1
228	228	1
243	243	1
37	53	3
247	247	6
62	62	2
68	71	3
183	184	3
194	234	4
73	74	1
55	55	4
74	93	1
202	202	1
172	172	1
229	233	3
27	113	1
185	193	1
3	11	1
114	114	1
217	223	2
115	115	1
61	62	1
216	219	1
109	145	1
199	209	1
80	93	1
198	207	1
215	238	2
65	92	1
113	116	2
220	224	1
32	32	2
207	207	1
236	236	2
33	53	1
64	64	1
54	58	2
237	241	1
228	245	1
82	83	2
242	243	1
166	191	2
181	181	2
216	217	2
56	120	1
239	245	2
51	51	3
232	234	1
66	78	1
222	224	1
182	182	3
88	88	2
210	210	2
92	112	1
176	177	1
19	34	1
44	45	1
198	199	3
89	90	1
81	81	2
222	222	3
91	101	1
53	74	1
95	95	1
90	98	1
190	191	1
199	240	1
155	156	2
56	199	1
58	76	1
228	236	1
15	15	1
3	38	2
43	100	3
12	12	2
5	5	2
49	49	1
144	145	1
117	117	1
79	79	1
109	110	1
53	76	2
18	34	1
175	176	1
66	70	1
72	72	5
25	25	1
228	246	2
71	71	2
58	58	1
67	67	1
113	114	2
30	32	1
84	85	2
7	8	1
74	74	1
36	100	1
191	192	1
189	189	1
75	75	2
42	46	1
41	41	1
160	161	3
82	82	1
209	210	1
84	84	1
59	69	1
101	107	1
110	111	1
87	103	1
28	29	1
57	109	1
239	241	1
186	190	1
228	229	1
215	216	1
35	156	1
4	34	1
56	112	1
187	194	1
216	241	1
149	150	1
66	77	1
166	229	1
76	78	1
170	200	1
118	118	1
