119	119	13
144	145	7
83	83	4
145	148	6
26	26	12
72	121	7
38	41	5
43	43	14
20	20	5
135	135	27
64	65	5
122	129	3
6	6	10
125	126	9
39	51	1
99	100	2
127	129	5
36	36	8
124	127	2
127	127	10
131	131	15
147	147	15
130	132	2
129	138	1
90	92	3
108	108	7
21	54	5
114	114	13
146	150	4
72	118	2
9	11	3
93	93	6
18	19	4
101	133	1
125	125	10
38	62	7
124	125	7
37	37	7
89	105	4
27	27	6
21	23	2
40	40	14
106	106	17
113	114	6
122	122	7
65	65	9
115	122	1
71	118	2
129	129	10
47	47	8
147	148	7
30	34	2
144	144	11
5	8	2
69	69	10
22	22	16
49	50	9
10	10	11
141	144	1
71	71	24
23	23	13
84	85	6
12	108	2
109	109	9
113	113	14
53	54	7
75	86	1
99	99	16
46	52	1
5	5	6
21	21	6
120	120	12
40	43	7
20	21	5
78	79	10
98	98	8
24	25	4
40	62	4
66	66	18
5	7	1
130	130	14
138	138	14
17	115	4
4	34	8
36	44	2
20	106	2
120	124	4
112	132	4
147	149	6
32	32	6
64	68	1
93	95	2
14	14	6
149	150	2
18	20	2
74	74	5
81	82	10
42	42	9
128	128	9
35	35	8
101	106	1
40	53	3
29	29	6
54	54	12
7	11	2
41	48	3
136	141	4
130	136	5
116	116	3
65	67	8
68	69	7
77	81	2
116	119	1
31	31	10
132	132	17
131	132	5
28	44	3
115	116	4
63	69	3
140	142	2
129	130	6
40	44	2
114	117	3
107	107	10
111	113	6
42	43	2
31	32	3
70	70	21
24	24	19
17	17	10
137	140	2
137	141	5
2	4	1
12	16	5
63	63	12
34	34	2
134	143	2
25	27	5
109	113	4
113	135	5
149	149	16
8	34	4
107	108	2
68	77	2
121	121	10
4	7	4
92	99	3
6	8	2
79	79	6
35	67	1
104	104	13
16	18	2
146	146	6
30	40	1
109	138	2
110	117	2
140	141	2
80	80	11
48	48	3
31	35	3
37	63	2
141	141	3
57	57	2
69	72	2
41	115	1
88	88	3
103	114	1
97	102	2
105	105	7
16	27	2
28	32	1
11	11	20
118	128	1
49	73	1
150	151	5
13	15	2
138	141	1
110	110	9
146	154	2
64	69	7
95	99	4
19	19	16
100	100	6
75	77	10
137	138	2
128	131	3
84	84	10
67	67	6
82	82	3
97	97	4
13	94	3
48	52	2
30	31	5
106	107	5
110	114	2
145	146	5
14	15	2
16	16	5
82	86	3
23	24	5
49	49	8
142	144	3
51	57	2
98	100	4
143	146	2
110	139	1
42	51	2
142	147	2
123	123	9
4	4	10
63	65	2
124	126	1
52	57	5
143	143	3
44	135	1
23	25	5
152	152	8
137	142	3
117	119	1
117	122	6
48	50	4
27	28	5
77	78	8
154	154	4
149	154	1
47	53	1
39	39	8
54	56	4
28	30	4
46	46	11
118	118	7
50	50	12
116	117	1
136	136	12
117	121	6
23	29	1
6	7	4
25	28	4
141	143	3
94	95	6
21	33	1
17	125	2
28	28	6
151	151	6
145	145	6
92	92	3
122	123	3
142	142	11
64	67	2
126	127	3
95	95	5
3	7	3
126	126	7
106	127	2
103	103	8
109	133	3
77	77	11
20	25	2
137	139	3
22	26	6
117	117	15
113	133	1
34	39	1
5	88	1
79	81	4
38	39	2
92	93	4
144	146	1
75	79	4
136	137	2
90	90	2
106	114	1
12	94	1
79	88	1
71	114	1
56	136	4
41	41	10
134	134	6
101	103	1
24	29	3
7	66	4
113	120	2
76	76	7
52	53	6
91	91	4
78	78	6
12	27	1
10	122	2
8	8	3
64	66	1
97	117	1
147	153	2
56	57	1
22	125	3
141	142	5
16	101	1
9	120	4
130	140	2
51	51	10
11	12	5
10	11	3
28	34	2
104	106	1
152	153	13
122	124	1
112	133	1
132	138	2
84	89	4
102	102	2
83	84	7
44	48	3
143	144	1
20	107	3
153	153	7
19	21	8
82	100	1
3	35	3
75	75	8
80	81	7
19	20	2
27	29	3
13	23	1
4	33	2
10	30	4
30	30	4
111	111	7
86	86	3
33	38	2
9	12	1
107	110	3
18	30	1
36	73	1
5	120	1
100	102	5
22	27	3
6	9	4
76	78	2
12	12	4
123	124	1
55	56	3
136	146	2
93	97	4
135	139	2
102	114	1
28	29	4
81	81	10
6	68	3
40	41	5
104	105	8
123	128	1
95	97	2
36	62	1
24	32	1
68	68	8
56	56	2
97	103	3
100	107	2
20	124	2
26	32	1
16	17	6
150	152	2
94	94	4
13	29	1
85	95	3
47	57	1
76	143	1
44	132	1
63	64	1
41	51	2
121	122	3
150	150	3
68	71	2
62	66	1
133	133	4
62	62	3
6	34	1
97	98	1
47	128	2
90	93	2
44	45	4
126	134	3
141	145	1
118	119	5
85	85	6
62	63	1
69	70	2
9	9	4
39	40	4
50	57	1
71	74	1
42	56	1
65	69	2
79	115	1
122	127	2
55	55	7
22	56	1
76	81	3
82	85	1
88	109	5
107	119	1
13	67	1
28	31	1
35	36	2
22	29	1
34	36	2
13	14	1
144	149	3
98	103	4
43	51	2
131	133	3
50	96	1
73	73	8
97	105	2
79	82	2
64	64	6
76	121	1
3	8	2
128	130	1
146	149	7
96	96	3
131	134	4
87	87	4
39	50	1
23	28	3
12	13	2
11	19	1
12	15	4
136	154	1
140	140	2
77	79	4
132	133	4
51	53	1
46	48	2
25	25	4
8	11	3
137	154	2
129	131	2
68	70	3
61	62	1
129	132	3
45	47	2
41	154	2
44	44	6
97	129	2
7	7	5
102	135	1
51	54	1
47	129	1
142	143	2
146	148	1
118	123	1
112	112	3
6	32	4
99	103	3
3	4	1
98	104	1
110	111	3
15	23	1
145	150	2
72	73	1
109	110	2
18	18	5
53	57	1
73	83	2
85	114	3
109	114	1
38	63	1
117	123	5
12	93	1
14	17	2
14	32	1
24	35	2
56	63	2
5	9	1
3	3	3
101	101	2
115	119	1
98	105	3
8	10	3
3	63	2
123	125	1
22	31	1
105	107	1
6	36	2
51	117	2
100	133	2
128	138	2
45	45	5
3	5	1
33	124	1
21	22	3
34	37	1
16	132	2
96	131	1
87	103	1
72	86	1
36	51	3
88	90	1
80	83	1
103	104	5
95	96	2
136	145	1
79	90	2
84	92	1
13	18	1
48	53	1
4	5	2
57	124	1
58	58	4
8	9	3
140	143	2
137	137	2
103	107	2
147	150	2
146	152	1
136	143	2
123	130	1
26	28	1
8	55	1
113	117	1
129	139	1
153	154	1
10	41	2
66	67	1
57	58	3
75	80	1
52	52	1
49	53	2
20	22	1
31	38	1
79	85	5
85	103	1
88	99	2
139	141	1
51	119	3
19	24	1
21	26	2
129	135	2
45	46	1
38	38	3
90	106	4
43	48	4
140	144	1
115	132	1
139	144	2
31	64	1
108	121	1
37	43	1
139	139	1
47	48	1
113	134	1
88	120	1
32	35	2
111	112	2
10	13	1
120	139	1
36	37	1
42	132	1
3	32	1
76	77	3
75	76	2
94	133	1
129	137	1
88	111	2
93	94	1
41	42	2
49	55	1
123	126	2
92	100	2
132	134	1
138	148	1
33	33	2
32	33	2
85	91	1
129	140	1
112	113	1
13	16	1
71	73	1
137	143	1
137	145	1
146	153	1
80	82	1
115	115	1
10	53	1
48	54	2
67	68	1
107	114	1
133	140	1
101	102	1
143	151	2
15	21	1
116	125	2
135	147	1
120	121	1
12	19	1
103	105	1
108	122	1
36	71	1
29	30	1
29	32	1
116	124	1
5	33	1
6	12	1
139	140	1
74	117	1
53	53	1
16	29	1
150	154	1
127	128	1
