29	29	3
86	111	4
20	21	2
116	116	6
137	140	1
1	1	8
35	35	8
95	98	5
139	139	13
129	129	9
124	124	8
75	75	9
25	25	3
110	110	8
134	134	3
10	12	1
115	115	8
78	79	1
83	83	5
74	74	6
36	79	1
117	117	5
112	115	4
113	113	4
11	11	4
132	132	7
127	127	8
11	12	6
126	126	10
18	18	4
136	136	1
138	139	7
130	130	8
20	84	2
96	96	5
109	109	10
12	12	10
138	138	4
72	95	6
32	32	1
94	120	9
130	131	8
74	76	3
140	140	14
79	80	2
72	73	3
120	122	1
112	112	5
126	127	2
90	97	3
73	73	2
98	98	7
110	121	2
16	16	4
100	100	1
97	98	8
104	104	3
25	27	1
98	126	1
6	100	4
93	93	2
85	85	8
16	17	4
133	133	7
37	37	6
80	80	2
38	38	9
6	7	1
121	121	3
84	84	2
36	36	6
105	119	3
27	27	1
5	5	1
119	119	4
85	87	3
15	16	2
3	3	10
20	20	4
74	79	2
9	9	4
107	107	2
92	92	6
118	119	1
122	122	3
72	102	5
77	78	8
80	102	5
92	93	1
107	108	2
76	76	3
80	81	2
31	31	6
79	83	6
17	17	3
106	107	2
27	32	2
119	120	6
79	84	2
92	121	2
95	99	1
22	22	8
125	129	3
114	114	3
12	14	1
95	124	4
78	78	6
135	135	4
81	82	3
139	140	4
4	4	5
0	32	2
14	15	1
80	99	1
23	23	2
90	91	1
103	103	2
132	133	3
104	105	1
2	2	3
120	120	3
84	101	2
123	123	7
8	9	4
86	86	2
107	110	2
119	122	1
86	87	1
108	108	1
21	26	1
88	88	5
34	35	2
82	82	3
72	133	3
72	72	3
104	120	1
36	38	2
95	125	1
8	8	6
114	115	1
81	81	2
14	14	1
4	5	2
12	102	3
95	115	1
71	71	2
35	36	1
118	118	4
39	132	3
131	131	2
88	127	3
84	112	1
7	7	4
75	76	1
87	88	1
87	87	3
0	1	1
103	132	1
15	17	1
89	89	1
29	32	1
127	128	1
76	78	1
117	119	2
22	23	3
103	112	1
34	132	2
28	28	1
102	102	1
104	116	2
116	117	2
74	75	1
28	29	1
115	122	1
94	119	1
106	111	1
95	95	2
33	33	1
90	90	2
133	134	2
24	24	2
3	4	1
125	125	1
86	96	1
13	14	1
13	13	1
92	94	1
82	84	1
137	138	1
82	89	2
19	20	1
71	90	1
34	34	3
21	21	1
37	38	1
5	6	1
21	29	1
