9	87	1
122	122	9
39	40	2
78	80	1
125	130	5
112	112	17
64	64	9
49	49	29
9	9	5
68	96	2
59	79	3
0	0	12
105	105	5
120	120	8
124	124	13
56	56	17
26	26	6
110	110	32
2	2	18
121	121	13
67	67	18
11	12	4
46	46	7
74	74	5
0	2	2
51	51	18
82	82	9
38	38	2
15	17	3
71	71	6
70	100	2
72	77	4
125	125	23
100	100	18
78	94	5
61	75	1
31	31	12
22	24	1
59	59	5
113	113	13
8	9	4
13	44	1
123	123	6
20	20	14
57	121	8
90	91	3
19	19	14
7	7	16
108	108	13
126	126	7
78	78	5
99	100	3
93	93	11
79	82	1
20	22	1
50	50	18
127	128	7
77	78	4
6	6	13
6	8	4
112	113	10
73	74	4
45	47	7
80	80	12
39	39	9
48	54	2
60	60	3
109	109	11
121	122	5
119	119	7
130	130	10
54	54	11
111	111	11
63	63	8
83	83	21
68	97	1
65	68	2
43	44	2
16	16	8
131	131	6
96	96	17
40	40	13
76	76	14
2	6	2
120	121	11
101	102	3
38	40	5
92	92	19
92	93	5
87	88	7
98	98	12
107	108	3
3	3	15
4	4	9
61	61	10
41	41	9
1	2	2
115	115	13
68	108	1
25	25	18
15	15	13
11	11	11
18	24	1
32	32	10
25	30	3
94	95	4
70	70	12
38	42	2
1	1	7
21	33	4
114	114	28
103	103	8
95	95	26
72	123	1
117	117	7
18	19	3
104	105	3
34	34	3
75	91	6
128	128	10
75	76	1
59	60	2
129	129	9
69	69	13
45	45	6
75	75	5
60	99	5
48	48	11
81	81	13
75	90	2
65	65	4
22	23	4
5	6	3
73	73	5
122	123	5
96	100	2
30	30	12
52	52	22
62	62	14
44	44	14
18	18	9
80	82	2
109	110	6
80	81	2
80	83	1
91	91	10
101	101	13
97	98	6
14	14	7
116	116	7
88	92	1
118	127	1
98	99	3
62	73	1
84	85	4
50	51	6
48	56	1
51	52	3
94	94	14
58	58	19
41	42	2
87	87	1
17	43	3
43	43	12
124	125	7
74	97	2
57	57	9
72	73	3
89	89	6
55	55	9
106	106	14
104	104	8
72	72	5
76	104	1
100	101	7
81	92	1
62	64	3
12	14	3
46	47	2
126	130	2
6	7	3
38	47	3
58	62	1
71	72	1
10	10	12
79	79	8
126	127	6
51	56	1
79	94	1
49	50	2
89	99	4
102	103	2
28	28	13
70	71	6
110	111	3
132	132	4
69	71	4
13	13	11
29	29	6
91	97	1
102	102	7
53	53	15
27	29	4
48	49	2
61	62	5
49	116	3
78	97	2
63	64	3
103	104	1
17	17	9
66	109	1
11	13	2
86	86	14
56	82	4
91	92	1
72	93	3
32	42	3
76	93	1
7	21	3
119	120	2
47	47	3
20	21	5
116	127	5
76	81	1
108	109	5
77	77	5
24	24	7
118	118	6
7	85	3
113	114	3
12	12	7
84	84	4
105	106	2
21	22	3
77	102	1
21	43	3
42	42	4
93	94	3
23	23	10
57	112	1
128	131	2
68	68	2
59	110	2
130	131	4
86	87	3
111	117	3
81	88	4
33	33	7
90	93	1
96	105	3
12	39	2
33	38	1
24	26	1
85	87	1
15	16	1
127	127	3
65	71	4
24	25	4
56	112	3
81	82	3
27	27	6
54	94	1
29	30	5
95	110	1
5	5	7
81	107	3
90	90	3
123	124	1
59	62	3
94	123	3
23	27	4
9	10	4
52	53	6
4	5	2
39	44	3
78	79	2
133	133	6
40	44	2
21	34	3
95	96	6
19	25	2
52	56	2
59	104	2
111	125	3
42	48	2
19	20	1
21	23	3
60	90	3
18	25	5
73	89	3
95	102	3
88	88	3
44	45	2
53	55	2
84	86	1
77	91	2
32	54	2
2	5	8
101	105	1
118	121	1
23	24	3
85	86	4
114	115	4
58	64	1
3	6	1
40	41	2
129	130	1
100	102	7
6	32	1
91	98	3
38	39	4
25	26	4
4	6	4
16	31	1
26	27	1
92	98	2
55	56	3
58	65	2
54	55	1
42	43	5
117	127	1
14	20	1
115	119	1
85	85	9
99	99	4
62	99	1
88	89	3
116	117	3
79	80	2
7	15	1
98	102	1
33	41	1
51	54	1
67	68	1
115	117	1
50	112	1
102	107	2
6	18	2
32	43	2
30	31	1
97	97	4
66	66	2
74	103	2
22	22	2
68	99	1
25	31	1
27	28	2
58	66	1
73	99	3
19	42	1
1	51	1
91	100	1
13	20	2
76	77	2
39	41	2
21	40	1
9	11	1
113	131	1
7	8	1
64	65	4
76	89	1
75	94	1
16	43	1
64	118	1
0	6	1
14	40	1
31	38	1
21	21	2
31	32	1
10	11	1
16	17	1
65	125	1
118	126	1
83	85	2
96	97	1
20	38	1
96	99	1
57	78	1
34	37	1
125	132	1
82	85	1
58	59	1
68	71	1
106	107	1
