22	22	13
40	42	4
44	48	2
85	86	3
104	104	2
84	91	5
71	87	2
79	80	11
51	51	16
52	60	2
107	107	7
100	100	9
45	45	3
91	91	11
103	103	5
83	83	12
32	34	5
50	91	3
92	92	9
81	111	2
112	112	8
47	48	8
58	108	4
29	29	13
78	79	2
87	87	7
58	67	5
90	91	1
104	105	3
71	71	10
85	85	4
77	77	5
107	108	8
86	87	3
48	48	4
32	32	5
82	82	8
60	60	12
73	74	8
24	24	4
44	44	9
39	78	6
26	27	4
81	81	8
72	73	2
66	71	3
78	92	6
58	59	4
27	27	7
53	53	9
41	41	9
56	56	6
55	56	5
61	61	10
43	95	3
102	104	1
40	40	7
84	84	5
89	89	7
47	88	4
65	65	8
25	25	12
33	98	2
97	97	9
66	69	1
103	106	3
30	30	11
39	39	6
53	55	2
36	37	6
111	112	2
45	52	10
101	107	2
31	31	6
55	55	15
28	28	11
68	69	5
89	102	1
37	98	5
38	38	6
33	33	10
90	90	12
44	47	1
43	43	11
69	70	2
72	72	10
28	29	4
47	47	10
66	66	4
95	95	8
68	68	3
88	88	6
37	38	2
28	40	1
53	62	7
88	90	4
25	26	3
65	66	3
22	23	2
37	59	2
45	46	1
76	76	10
37	78	4
53	111	4
108	110	4
52	52	5
60	110	3
21	24	4
110	110	6
70	70	6
80	81	6
88	105	4
55	57	2
102	102	5
40	41	5
90	111	4
65	69	2
86	86	8
93	93	18
34	91	1
57	57	4
48	108	5
99	99	5
105	107	4
94	94	7
80	86	1
38	65	1
75	89	3
33	34	4
64	64	3
67	67	4
46	46	9
80	84	4
30	40	1
58	58	9
98	98	4
23	23	6
57	80	4
54	57	1
32	35	4
63	64	6
96	96	4
45	95	2
39	77	7
50	50	6
19	21	4
59	59	5
36	36	3
47	89	3
32	33	4
35	35	7
80	80	3
27	31	3
79	82	2
36	39	4
90	112	2
114	114	5
54	55	2
44	50	1
58	110	2
74	75	2
38	40	2
22	25	1
76	77	3
94	96	3
58	60	1
100	101	4
26	41	2
63	63	5
49	49	4
73	90	6
108	108	4
59	60	3
101	102	2
79	79	12
88	91	4
105	105	7
77	89	3
81	82	3
36	55	1
21	22	2
64	90	2
101	106	3
80	111	1
109	109	6
62	71	1
36	60	2
105	106	1
36	97	2
34	34	1
58	62	3
35	36	2
30	31	1
78	78	7
51	61	1
95	97	1
113	114	1
57	88	5
26	26	8
35	77	2
99	100	4
53	57	2
39	58	1
39	72	1
43	50	5
49	99	1
43	44	2
23	25	2
73	73	8
63	73	1
51	113	1
69	69	2
104	109	2
54	54	2
64	67	2
98	99	1
74	74	5
106	107	1
50	51	2
67	72	1
20	25	3
42	42	2
55	112	1
97	101	2
62	62	4
75	75	3
110	112	3
54	111	1
53	56	1
61	62	2
41	42	3
37	37	8
35	97	1
34	35	3
46	47	3
27	41	1
21	21	2
106	106	1
26	90	1
47	49	2
44	61	1
45	51	1
29	30	1
49	51	1
41	82	1
98	101	1
25	90	1
52	110	1
45	49	2
57	107	2
101	101	3
111	111	1
92	95	1
19	19	1
63	67	1
93	95	2
32	76	2
41	75	1
83	84	1
104	110	2
94	95	1
96	97	1
53	54	1
27	28	1
103	107	1
38	39	1
38	43	1
40	80	1
44	52	1
52	59	1
75	76	1
65	67	1
47	92	1
77	92	1
