184	184	5
135	152	1
157	163	2
104	104	4
110	110	9
175	175	5
182	183	2
161	163	3
102	102	1
187	187	3
124	124	3
114	129	2
48	110	3
67	67	6
141	150	2
7	27	2
136	137	1
33	33	9
110	111	2
112	123	3
178	178	4
99	162	3
69	76	6
185	186	1
59	61	6
79	80	4
157	161	2
132	132	9
173	176	2
86	86	3
65	65	2
89	89	2
39	88	2
65	68	1
170	194	1
19	19	3
175	176	1
153	164	4
10	11	3
180	195	4
56	57	1
53	53	6
97	97	5
124	130	2
156	156	12
99	131	2
130	130	2
55	56	3
17	17	4
103	103	4
134	137	1
183	183	4
182	182	3
50	50	6
118	118	6
96	96	2
112	119	1
85	103	3
134	134	4
196	197	1
74	74	3
119	120	1
115	115	12
189	189	3
95	96	2
176	177	5
143	183	3
85	85	9
88	88	2
68	68	6
16	17	1
20	73	2
20	83	2
117	118	3
94	148	1
94	154	2
174	174	2
1	1	2
85	99	3
30	31	4
66	66	4
28	28	3
14	14	4
3	3	3
23	110	1
149	149	8
125	126	3
55	55	5
139	139	3
43	43	4
133	133	4
44	44	6
57	57	2
105	108	2
76	87	2
99	99	5
187	188	7
73	73	3
162	163	2
10	16	1
99	154	2
5	5	2
142	142	2
68	83	3
155	156	1
36	75	1
39	76	2
56	56	4
193	193	2
56	156	2
47	60	5
137	137	4
14	22	5
155	155	5
7	7	4
18	19	1
135	158	1
179	179	4
84	84	2
169	170	1
143	144	4
78	78	5
145	145	3
29	37	4
82	86	1
190	190	1
40	40	1
120	120	2
130	131	2
111	111	2
32	37	1
158	180	2
101	101	5
171	194	7
95	95	3
148	150	3
189	190	5
100	100	6
40	41	1
62	95	4
45	45	4
55	65	2
191	192	2
88	89	7
174	180	3
15	57	2
132	158	1
177	177	2
53	55	2
60	60	2
149	150	2
37	37	2
5	181	1
168	168	4
114	115	2
39	39	3
82	82	5
166	175	2
22	28	1
26	26	1
29	29	4
166	166	5
10	10	4
128	128	1
166	167	1
18	18	3
3	4	2
62	63	3
102	164	1
76	84	1
84	103	1
93	113	2
71	71	6
69	69	2
164	175	2
179	180	3
154	155	1
55	121	2
72	77	2
72	72	2
41	41	2
147	147	1
131	131	3
152	163	1
123	124	2
174	177	3
196	196	2
185	185	2
46	46	2
68	69	1
177	179	1
195	195	2
84	85	2
34	77	2
19	74	2
121	122	2
130	136	1
50	60	1
22	32	1
26	38	2
73	74	2
173	173	2
156	170	1
154	154	7
150	150	3
18	158	2
104	105	1
84	86	1
21	21	2
34	78	2
120	122	3
36	36	1
141	141	8
138	138	1
107	138	3
34	39	2
170	176	1
74	75	3
157	195	2
66	67	2
12	12	2
9	9	2
96	116	1
158	195	1
107	107	1
11	11	6
26	27	1
165	165	3
30	67	1
1	97	3
7	43	1
51	51	3
95	102	2
117	117	1
184	185	4
21	39	1
28	31	2
112	162	2
97	153	2
2	3	4
42	138	1
4	4	2
24	25	3
157	182	1
192	192	4
23	23	2
122	122	2
172	173	1
9	22	2
13	74	1
21	87	2
187	191	1
59	60	1
174	182	3
84	87	1
194	194	4
82	83	6
131	134	1
70	76	1
129	130	1
36	72	2
54	56	2
18	155	2
135	138	1
162	162	3
61	62	3
181	181	3
87	87	3
116	116	3
98	98	1
55	193	1
48	48	3
159	163	2
74	86	2
18	156	2
22	23	2
136	136	1
109	109	1
12	74	2
101	106	1
180	181	2
1	87	1
140	181	1
80	80	7
112	113	1
76	77	1
58	58	2
0	1	1
121	121	2
119	119	2
101	104	1
13	23	2
191	191	1
8	8	3
94	94	1
0	22	1
35	187	5
16	22	1
1	19	1
61	61	1
1	95	1
179	195	1
157	179	1
103	164	2
115	131	2
56	58	1
76	76	4
51	60	2
107	108	2
166	174	1
99	136	2
123	123	1
39	65	1
67	68	1
25	65	2
165	191	3
63	63	2
39	75	1
170	173	2
163	163	1
24	24	1
48	109	1
76	78	1
150	151	2
25	25	2
134	135	1
40	66	3
42	42	1
166	177	2
144	144	2
1	3	3
34	38	1
32	183	1
83	84	1
146	146	2
159	159	3
183	186	2
20	24	1
7	26	1
32	33	1
148	149	2
64	65	1
167	167	3
85	93	1
98	125	1
73	81	2
64	64	1
133	138	1
27	33	1
125	125	1
16	27	1
80	101	1
40	113	1
169	169	1
140	140	1
190	192	1
117	119	2
17	22	1
192	193	1
148	148	1
41	62	1
62	64	1
34	34	1
113	113	1
15	23	1
3	11	1
106	106	2
59	59	1
190	191	1
54	58	1
7	9	1
168	195	1
47	47	1
35	35	1
129	129	1
180	180	1
161	161	1
31	31	1
137	138	1
160	160	1
78	79	1
115	117	1
50	51	1
95	148	1
99	103	1
74	89	1
2	2	1
5	6	1
35	73	1
130	135	1
0	0	1
98	117	1
170	171	1
186	186	1
71	79	1
44	159	1
63	65	1
81	81	1
108	113	1
32	194	1
