134	134	8
99	99	7
50	52	2
113	114	4
51	123	5
139	140	2
68	68	5
84	85	4
117	117	10
40	40	2
51	51	4
79	122	2
62	62	4
130	130	3
144	156	6
22	22	8
150	150	14
104	104	1
70	70	11
98	98	3
23	23	2
138	138	6
88	88	3
79	114	2
94	94	5
92	102	4
91	92	7
145	145	3
111	111	3
73	74	4
1	2	2
135	135	8
53	54	6
85	85	7
115	115	5
47	47	4
29	30	4
45	48	2
44	44	14
9	10	3
155	156	1
91	91	2
142	152	2
132	132	3
148	148	6
37	37	1
77	77	9
50	63	3
129	129	8
108	108	1
149	151	2
73	73	8
26	26	6
20	22	1
84	107	1
149	149	3
132	133	2
75	75	7
55	118	4
129	130	2
48	48	2
131	131	5
116	116	6
47	101	4
40	112	2
114	115	2
97	97	1
126	126	4
12	36	4
17	17	2
110	110	5
133	133	5
24	24	8
146	148	5
155	159	4
1	1	7
157	157	6
67	67	5
30	30	5
61	63	1
14	14	6
144	145	3
108	109	4
146	147	2
18	18	6
9	9	3
92	93	2
19	19	1
11	15	5
36	36	3
79	79	3
3	46	2
121	121	3
39	105	4
152	152	6
3	4	1
112	112	5
142	143	2
31	32	3
8	11	2
119	119	2
139	150	3
120	121	3
143	145	2
147	147	2
121	122	1
79	80	1
83	157	1
4	44	2
139	139	6
65	65	7
2	46	3
66	149	2
12	15	2
49	148	5
46	46	3
140	140	6
107	107	4
151	151	2
90	91	4
95	95	1
2	47	1
39	39	5
128	128	4
25	25	3
112	158	1
68	136	2
110	124	3
6	6	1
98	99	2
94	101	1
7	7	3
57	57	3
11	11	3
42	43	3
42	42	2
118	120	3
136	136	3
16	16	3
87	87	1
100	100	1
128	140	2
94	95	2
106	106	2
123	124	1
127	127	1
118	118	5
83	95	3
50	50	1
32	50	1
105	105	3
114	114	2
41	41	2
8	8	1
83	83	2
131	142	2
35	35	2
15	15	2
20	20	4
34	34	2
102	102	2
41	42	1
82	82	3
25	26	1
44	51	4
12	12	1
55	55	1
21	21	2
122	122	2
124	124	1
93	97	1
45	45	3
3	3	3
18	33	3
82	111	1
146	146	2
72	72	1
134	135	1
0	1	2
35	120	3
92	92	1
29	29	2
15	17	3
53	53	1
40	41	1
138	139	1
0	0	1
70	71	1
75	77	2
106	155	1
47	102	1
43	43	3
49	49	2
28	28	2
73	127	1
153	155	2
46	61	1
69	70	4
5	5	1
33	33	2
76	76	2
118	132	3
65	128	1
103	104	1
78	78	1
54	55	2
106	107	1
142	142	1
53	57	3
69	69	4
134	140	1
2	2	3
12	48	1
73	129	1
123	123	1
157	158	1
31	31	2
23	131	1
127	128	3
101	101	1
24	46	2
148	149	1
71	71	2
120	120	1
118	119	2
24	29	2
153	154	1
156	156	2
79	113	1
93	94	1
141	141	2
152	154	2
25	27	2
23	24	1
143	143	2
64	64	1
140	141	1
84	84	1
10	10	1
131	132	1
133	150	1
134	157	1
103	103	2
142	154	1
117	118	3
52	52	1
96	96	1
51	55	1
123	158	1
38	39	1
158	158	1
23	26	1
95	97	1
125	125	1
113	113	1
13	38	1
4	4	1
117	136	1
107	108	1
85	93	1
137	137	1
30	44	1
27	27	1
