44	44	19
23	23	22
41	41	8
69	69	29
104	104	17
66	66	21
30	30	10
87	87	17
83	84	3
102	106	1
27	27	11
102	102	8
49	49	15
34	35	1
81	81	17
43	45	1
88	88	20
29	33	6
72	72	5
43	43	25
53	90	4
100	100	11
95	95	15
47	47	11
67	67	16
101	101	9
77	77	7
44	45	10
52	52	10
22	28	1
97	98	10
83	83	12
89	90	3
64	85	1
67	68	6
75	75	16
32	32	14
90	90	6
42	42	17
64	64	23
61	61	10
96	98	7
64	66	1
39	40	13
61	69	3
25	26	13
70	70	13
46	47	11
57	57	13
63	64	4
37	37	7
26	26	10
107	107	1
20	20	12
103	103	12
67	69	1
84	85	8
53	53	9
38	38	16
35	35	4
95	97	3
98	98	13
74	74	12
22	22	9
50	74	4
93	93	17
48	81	4
89	89	6
86	88	5
60	66	5
65	65	7
45	45	4
97	99	4
33	34	7
63	80	6
95	98	8
61	63	2
24	24	10
58	59	9
61	68	2
79	79	7
23	35	1
99	99	4
21	21	12
94	94	14
19	20	1
68	75	1
102	103	11
22	35	11
93	94	3
60	60	7
73	74	1
90	91	3
41	78	4
39	41	1
54	55	4
106	106	15
29	35	3
59	60	3
58	58	11
26	27	3
85	85	17
40	41	9
82	82	9
96	96	9
49	50	6
43	46	4
80	80	10
83	89	4
104	106	1
48	49	1
76	89	3
30	37	3
54	54	12
100	101	1
41	44	9
72	73	2
31	31	7
41	79	2
99	100	9
79	80	5
42	45	1
65	76	1
22	30	6
21	30	1
40	40	6
38	40	1
76	76	4
81	84	1
56	57	4
74	77	4
29	36	4
56	56	14
20	21	3
60	61	2
63	63	9
78	78	9
67	79	4
97	107	3
38	41	3
84	86	9
52	89	6
66	67	5
58	61	1
43	44	8
47	48	3
76	77	8
46	77	2
62	64	3
65	68	1
34	34	6
82	83	2
25	25	9
59	61	1
48	48	15
98	106	3
99	106	3
54	75	4
31	32	4
96	101	2
71	71	13
87	88	7
69	70	1
51	51	11
68	68	14
49	83	1
36	37	3
105	105	12
61	66	2
45	49	4
50	51	4
28	28	9
28	29	4
46	46	10
92	92	9
31	39	3
81	82	2
33	33	6
75	77	1
105	106	2
39	39	10
91	92	5
37	78	2
53	89	4
84	84	12
50	50	5
50	83	3
33	39	3
49	85	1
29	29	4
38	39	3
65	69	1
24	25	1
97	97	5
55	56	1
61	62	7
103	105	1
41	45	4
100	107	2
54	76	6
62	62	1
73	73	7
45	46	5
25	28	2
102	107	1
91	91	7
36	36	9
59	59	12
25	27	3
60	62	1
62	63	3
96	102	3
55	55	7
67	76	2
68	70	2
85	86	6
82	84	1
42	50	1
83	86	2
82	88	2
21	24	3
66	79	5
55	92	1
22	23	2
35	36	1
78	79	4
23	24	2
32	34	6
98	99	3
23	72	1
29	34	2
54	64	3
30	39	1
96	97	7
36	38	1
22	38	1
32	33	1
86	86	6
23	36	2
62	66	2
55	91	1
95	99	1
52	53	2
41	42	5
65	66	1
24	26	1
53	54	2
67	80	1
82	85	3
53	64	3
30	38	3
33	35	1
82	89	3
78	80	3
51	52	2
101	107	1
75	76	2
102	104	2
98	100	1
45	77	1
104	105	2
42	51	1
101	102	3
47	81	2
67	77	1
22	78	1
64	76	1
22	27	1
46	80	2
63	81	1
51	90	2
55	65	1
86	87	1
95	96	2
82	86	2
71	72	1
71	73	2
51	83	2
80	81	1
68	69	1
54	90	2
20	22	1
31	78	1
22	36	1
92	93	1
24	28	1
30	33	1
31	73	1
