62	62	2
117	117	5
77	77	9
94	94	8
65	65	5
12	14	6
38	38	12
165	166	1
176	176	7
41	41	14
146	146	10
159	159	13
42	43	2
5	5	11
31	31	3
142	145	1
107	107	3
84	84	14
146	147	3
22	24	3
127	127	3
84	85	2
158	158	9
103	103	3
170	170	7
149	149	11
97	97	6
30	30	8
53	53	11
47	48	1
26	27	6
157	157	9
26	37	1
78	78	6
36	36	8
105	105	5
1	2	4
90	90	4
148	160	2
20	20	12
25	26	3
177	177	4
110	110	8
113	115	1
100	100	5
23	23	6
90	106	2
55	55	9
59	59	5
58	59	1
39	39	5
59	60	12
178	178	9
184	184	3
110	115	3
128	128	14
61	62	6
175	175	2
101	101	13
131	132	2
14	14	2
131	131	10
15	18	3
168	169	2
133	162	1
174	174	18
27	27	9
152	153	2
117	118	1
181	181	11
79	79	13
164	165	4
28	61	3
155	155	10
70	71	2
180	180	2
4	4	12
26	26	5
148	148	7
153	158	2
136	136	3
134	137	6
12	13	5
76	85	1
73	108	4
96	96	4
6	6	7
17	17	10
152	152	7
30	31	7
94	96	3
149	150	3
4	26	3
83	84	4
182	182	6
133	133	15
24	39	2
18	18	11
164	164	11
142	144	1
183	183	9
1	1	3
41	43	3
85	85	7
33	33	4
27	28	1
99	99	3
187	189	3
119	120	4
74	74	6
66	68	2
48	48	9
98	99	1
87	87	5
72	72	3
146	149	2
168	168	7
79	159	4
135	135	6
93	93	7
163	163	5
120	120	3
106	106	13
156	156	9
60	60	3
79	133	4
111	111	9
98	98	5
182	183	6
165	169	6
157	158	4
16	18	2
85	105	1
181	182	2
151	153	4
106	136	3
147	147	15
76	78	1
14	36	2
143	147	1
139	139	3
54	54	7
83	151	2
19	19	7
110	111	5
162	163	4
39	40	2
55	56	5
174	176	1
8	8	4
189	189	2
144	154	1
167	167	7
15	32	2
151	151	8
115	120	4
44	45	1
61	63	4
118	118	9
148	181	1
9	9	9
165	165	4
35	67	4
16	16	6
185	185	4
97	98	2
96	107	2
29	29	4
114	114	10
35	54	2
182	184	4
101	103	3
154	154	1
21	36	1
45	45	2
125	126	4
9	12	4
143	143	17
75	106	1
65	66	11
174	178	4
169	169	1
125	125	3
37	38	9
72	73	5
37	37	6
132	147	2
91	91	3
100	101	4
13	13	8
153	153	1
135	136	2
22	23	5
73	74	3
98	102	5
18	47	1
150	150	5
81	131	4
162	162	7
130	131	7
75	75	4
58	58	4
137	137	3
96	97	3
126	126	8
109	109	1
151	154	2
115	115	11
5	139	2
155	156	3
154	155	1
169	175	1
15	15	4
36	37	2
91	105	2
160	164	2
121	122	1
52	52	2
141	141	3
138	138	3
129	129	3
160	160	9
57	57	7
152	165	1
42	42	2
186	187	1
178	180	1
13	25	3
21	23	2
171	176	3
89	89	6
151	170	3
28	29	6
135	137	1
24	41	1
121	121	6
190	190	3
166	166	7
64	64	2
84	126	3
46	46	4
24	24	13
71	71	4
7	7	6
132	133	1
72	116	4
56	57	1
122	124	4
15	27	1
79	85	3
99	100	1
108	109	3
132	132	4
46	47	6
171	171	5
127	135	2
34	48	4
41	44	2
34	35	1
86	86	2
113	113	10
60	62	4
95	95	3
61	61	3
28	139	1
47	47	1
8	24	2
70	74	2
115	126	2
9	10	2
18	35	3
3	3	2
169	170	2
108	108	1
35	35	8
77	102	2
140	141	2
27	29	4
63	63	2
95	114	1
18	31	3
126	128	2
67	67	3
28	28	3
134	134	2
134	139	1
142	142	3
66	66	1
104	104	6
87	106	1
19	47	2
159	161	2
27	68	1
73	120	1
6	7	2
129	130	2
2	41	1
93	104	1
68	68	3
31	32	1
83	134	3
118	119	1
165	173	1
122	123	2
139	140	2
20	46	1
76	82	2
186	186	4
102	102	4
116	116	1
65	81	2
124	124	5
112	116	3
56	56	4
123	123	3
5	6	1
119	119	1
165	170	1
156	163	1
73	73	1
88	88	2
10	10	3
135	147	2
57	99	1
85	124	5
189	190	1
151	158	2
44	44	1
161	162	2
91	93	2
140	140	3
144	144	1
176	177	1
11	11	3
157	159	1
18	19	1
141	157	3
187	188	1
98	103	1
17	35	1
82	82	3
14	15	1
137	144	2
52	53	4
179	180	1
137	140	1
185	186	1
130	130	1
2	39	1
41	46	1
187	187	6
141	142	1
177	178	1
83	83	4
77	78	3
2	2	4
73	143	2
171	172	1
25	48	1
122	122	1
128	129	1
55	61	2
25	25	2
33	36	1
81	130	1
29	30	1
25	67	1
140	145	1
15	16	1
98	101	1
110	114	1
155	160	1
73	141	1
163	180	2
12	12	1
74	76	1
22	45	1
29	62	1
36	54	1
53	54	1
0	0	2
88	113	1
181	189	1
108	114	1
60	100	1
82	101	2
92	94	1
4	5	1
66	67	1
1	39	1
53	61	1
