102	166	2
36	37	1
203	203	3
97	97	2
76	77	4
12	12	10
55	61	1
39	39	5
199	215	2
171	185	4
225	226	2
55	55	9
30	30	6
38	38	8
84	84	2
210	210	4
232	232	3
177	177	4
78	78	5
114	115	2
25	25	3
53	54	4
90	182	3
64	196	1
53	53	6
221	222	1
214	215	3
43	44	5
92	92	1
113	113	8
94	95	2
70	70	8
183	183	5
45	45	6
193	194	2
70	79	2
36	44	1
58	58	6
112	112	11
150	150	3
14	222	2
225	225	7
157	158	8
89	89	1
235	235	12
153	153	9
218	219	4
175	175	2
178	178	4
176	176	6
208	209	4
219	219	6
28	28	3
106	106	1
237	248	4
186	188	6
207	209	4
187	187	4
212	212	4
153	193	1
117	117	5
240	240	5
245	246	2
186	186	8
31	31	2
115	115	13
116	117	5
37	37	2
14	14	2
190	190	4
207	242	1
228	228	6
216	217	1
33	34	3
199	199	3
29	29	5
209	209	2
243	243	5
215	215	2
152	193	1
193	193	4
168	168	9
229	229	6
181	182	2
86	86	6
164	164	4
111	112	1
211	212	1
224	224	8
155	156	3
3	8	3
110	110	5
79	164	5
8	8	2
44	44	10
5	5	4
179	179	3
184	186	1
180	180	12
11	11	4
204	205	1
16	16	6
34	35	1
198	198	5
47	48	2
110	111	1
165	165	4
67	68	1
76	76	3
116	116	3
173	173	7
82	145	2
40	40	2
27	27	6
192	192	6
160	160	4
109	109	2
205	205	7
54	54	3
234	234	4
102	175	1
95	96	1
6	6	3
166	167	4
73	73	1
65	210	1
93	93	2
91	168	2
71	72	4
169	170	2
101	101	1
178	179	1
216	216	9
176	179	1
190	208	3
4	15	1
117	118	2
44	45	2
220	220	3
207	213	2
238	238	3
233	233	3
214	214	11
7	221	2
7	8	1
167	167	4
92	171	1
20	42	2
46	46	6
144	145	2
199	200	4
210	212	6
36	36	3
222	222	3
61	61	8
233	234	1
246	246	3
182	182	6
26	26	3
228	229	2
191	193	4
207	207	3
107	107	3
9	9	2
202	203	4
199	214	1
37	38	2
82	177	1
64	65	2
92	93	1
200	200	4
33	33	3
90	90	2
152	159	3
95	95	4
22	22	5
82	83	4
168	195	1
185	189	2
65	65	10
206	207	2
3	3	2
206	206	3
102	102	5
88	88	6
65	66	5
93	95	4
162	162	3
164	165	2
181	181	3
63	63	2
171	171	7
201	201	2
195	196	3
116	118	1
62	66	2
10	10	2
73	74	1
101	102	1
227	227	4
65	67	1
192	213	3
244	244	4
145	145	2
39	146	2
202	204	1
218	236	2
23	23	5
168	169	4
232	233	1
203	204	1
18	22	1
45	46	1
60	60	5
71	71	2
211	211	2
152	152	4
95	173	1
156	156	1
32	33	2
77	77	1
222	223	2
53	223	3
100	100	4
87	163	1
49	198	1
226	226	3
154	154	2
159	160	2
200	218	2
234	235	8
161	161	5
32	32	2
169	169	6
4	219	4
21	21	2
11	12	2
242	242	1
73	77	1
237	237	1
38	146	1
173	174	1
104	105	1
163	164	1
155	155	4
82	82	1
18	18	1
223	223	2
215	216	1
104	108	2
20	20	2
66	196	1
51	52	1
165	166	1
213	213	2
161	163	1
188	188	1
236	246	2
22	23	1
111	111	7
50	50	2
48	197	1
183	184	1
162	195	3
197	213	2
51	55	1
80	80	2
241	241	4
198	199	1
191	192	1
64	64	3
158	158	1
102	103	1
196	197	1
217	217	1
105	107	1
150	155	1
2	3	1
172	172	2
96	97	4
231	231	1
105	105	1
56	56	1
118	119	5
19	19	5
96	96	6
211	214	1
60	61	1
216	218	1
81	81	2
7	7	4
176	193	3
220	244	1
43	43	1
17	23	2
204	204	2
22	42	1
101	157	1
94	94	1
5	12	1
220	221	1
206	208	1
97	98	1
62	62	2
230	230	5
85	86	2
67	67	3
86	87	3
66	66	2
241	247	2
230	231	2
152	191	1
159	159	1
151	160	1
15	16	1
83	84	2
61	62	1
85	161	3
104	107	1
187	188	1
77	88	1
54	198	2
71	83	1
119	119	2
88	164	1
11	45	2
18	20	1
158	160	1
151	151	1
52	199	2
180	181	1
70	71	2
209	213	1
21	41	2
196	209	1
162	163	1
94	172	1
4	5	1
157	157	4
8	14	1
197	201	1
154	155	1
170	207	1
14	228	1
185	187	1
119	120	1
113	115	1
24	24	3
196	196	1
247	247	1
103	106	1
151	152	1
28	29	1
68	193	1
35	35	2
120	120	1
75	75	1
217	218	1
220	243	1
224	225	2
185	185	1
31	32	1
219	220	1
117	147	1
46	47	1
81	165	1
197	197	1
184	184	1
201	203	1
188	245	2
185	186	1
94	119	1
208	208	1
77	78	1
237	249	1
209	210	1
87	87	1
8	9	1
98	98	1
17	17	1
47	52	1
