31	32	3
102	102	7
31	31	7
2	3	3
64	70	8
78	79	2
128	129	4
24	24	5
131	131	17
143	143	11
121	122	4
105	105	8
111	137	2
13	13	8
6	6	7
47	47	3
14	14	4
30	58	3
129	129	6
96	98	2
139	139	10
119	128	3
96	96	6
93	93	8
130	130	1
142	142	3
4	4	2
21	21	5
61	61	5
108	108	4
27	29	3
113	113	4
137	137	6
25	26	2
14	15	5
74	88	7
102	134	3
94	94	2
135	135	8
67	75	4
69	71	1
30	33	3
64	64	7
50	52	4
0	39	9
114	114	6
27	27	4
27	40	4
57	57	6
74	87	2
71	71	6
26	26	4
134	138	6
24	25	2
53	54	2
127	129	4
54	100	2
34	35	2
83	83	3
91	92	2
20	21	1
4	11	3
109	114	3
9	24	1
32	32	5
99	99	3
59	59	3
121	135	3
3	4	3
42	42	7
128	128	6
38	38	10
87	87	5
73	140	2
35	36	2
129	130	7
73	73	11
123	124	2
115	116	3
144	144	8
91	102	1
81	81	15
89	89	3
95	100	3
65	120	1
29	29	7
116	116	8
67	77	5
91	91	6
36	37	3
54	54	9
122	132	6
114	136	1
42	62	1
37	38	3
4	6	2
36	73	3
14	32	4
107	114	1
130	131	1
56	56	10
78	128	1
115	133	6
97	97	7
37	37	3
84	84	6
62	88	2
62	63	1
39	40	2
10	10	9
103	110	2
72	133	2
69	69	10
57	58	3
56	75	1
78	78	5
95	139	2
17	18	4
24	33	4
40	40	6
12	62	1
51	52	5
48	48	9
51	133	6
53	82	5
121	121	7
116	117	2
142	143	8
4	70	2
33	33	5
109	110	2
131	133	5
104	110	3
87	88	4
64	97	5
131	132	3
122	122	4
59	60	4
138	138	3
19	20	4
19	37	1
8	82	2
12	49	1
141	144	1
90	91	3
55	55	5
101	102	5
72	72	8
18	18	5
85	86	3
118	135	2
136	136	2
68	68	3
73	87	2
103	104	5
20	20	3
118	118	2
14	20	1
125	126	3
119	119	5
43	43	2
124	124	3
22	22	2
110	110	1
92	94	8
106	107	3
75	75	5
95	95	15
0	2	1
5	11	3
123	123	6
63	63	9
124	127	1
111	111	1
92	92	7
74	74	9
10	11	2
1	100	1
9	22	2
116	128	1
36	36	3
2	2	8
32	33	3
25	25	4
103	103	6
87	101	2
107	111	1
77	77	4
96	134	1
112	113	5
8	52	1
5	51	2
42	99	2
43	79	2
15	15	1
17	17	3
53	53	1
145	145	3
64	65	4
42	97	2
48	81	2
19	21	3
9	9	1
102	103	2
82	83	2
82	104	2
101	101	1
125	125	7
5	50	5
8	9	3
3	3	1
104	105	4
121	146	3
23	23	5
30	30	7
8	25	1
34	34	6
82	141	1
129	135	2
134	134	3
6	21	2
19	26	1
6	11	3
118	119	3
84	86	1
77	78	5
4	71	3
41	41	5
58	62	1
76	76	6
112	114	1
98	98	9
25	29	5
49	49	5
63	72	1
102	129	1
99	100	3
127	127	4
141	141	4
48	56	1
120	120	4
140	140	3
120	123	3
114	137	1
75	146	2
123	134	2
54	56	1
23	24	3
4	78	2
119	127	5
38	42	1
60	60	6
0	28	1
122	123	1
117	117	3
93	100	2
11	11	1
15	27	1
80	86	1
104	104	1
108	135	1
20	25	1
64	69	1
134	137	1
114	115	3
107	107	2
89	90	1
48	91	2
17	20	1
5	5	3
125	132	3
55	56	2
115	144	1
133	133	7
35	35	2
16	16	3
31	33	1
73	74	1
115	115	5
31	39	2
36	43	1
131	134	1
118	121	3
95	145	5
33	34	1
12	87	2
62	62	2
33	41	1
136	137	1
63	80	3
22	60	1
63	64	1
19	25	2
16	68	1
63	121	1
8	8	4
52	52	3
58	58	1
86	86	3
1	1	3
88	88	7
14	17	1
71	101	3
12	12	1
103	128	1
33	37	3
1	19	1
142	144	1
124	143	1
79	79	2
103	144	2
133	134	1
5	84	1
76	77	2
80	87	3
63	66	1
75	78	1
127	132	2
11	103	1
15	16	1
27	30	1
93	94	1
76	106	2
117	132	2
97	127	1
127	128	1
96	116	1
70	70	3
82	118	1
106	106	1
15	32	3
14	16	2
74	100	1
138	139	2
19	19	1
54	55	4
21	35	1
100	100	1
49	57	1
24	32	1
47	62	2
40	41	1
75	124	1
41	42	4
72	88	1
108	115	1
90	90	1
62	91	1
111	114	1
33	39	2
50	61	1
80	80	1
94	140	2
10	38	1
111	135	3
122	140	1
1	23	2
39	39	2
48	105	1
66	66	1
0	1	1
0	101	1
103	142	1
66	121	1
117	119	1
105	106	1
1	34	1
141	142	1
83	85	1
67	67	1
0	12	1
140	141	1
74	97	1
100	101	1
55	100	1
62	86	1
92	140	1
112	112	1
