108	108	1
43	44	1
158	159	2
6	7	2
53	53	11
159	159	3
99	99	9
50	50	2
107	107	4
169	169	1
158	158	3
101	101	2
98	98	2
88	89	4
54	54	6
36	36	4
57	87	1
148	148	13
164	164	1
72	73	9
39	40	3
139	139	7
92	92	11
14	14	8
145	145	5
135	135	7
69	112	1
62	65	3
70	70	4
147	148	2
125	125	7
81	81	6
1	1	5
65	65	4
126	131	5
42	42	2
165	165	4
106	106	3
126	128	1
105	105	5
75	75	5
25	26	1
73	86	1
11	12	4
121	121	3
170	170	3
114	114	1
3	46	2
119	120	6
124	124	6
101	102	6
34	34	5
97	105	2
83	83	1
88	88	2
95	95	5
90	90	4
76	76	2
103	104	4
35	36	4
120	120	5
54	63	5
143	143	3
122	122	1
150	160	1
129	129	3
20	23	1
17	17	2
148	154	1
40	41	4
22	24	4
117	118	2
19	19	2
91	113	1
162	162	6
120	157	1
100	100	5
168	168	2
118	132	2
90	91	3
144	144	2
47	47	1
112	113	3
163	163	1
87	88	6
155	156	4
63	109	1
16	16	11
151	152	1
85	86	1
115	115	5
83	84	1
12	14	1
97	97	2
72	75	2
149	161	2
0	0	4
157	157	3
77	78	5
155	155	3
22	22	4
44	45	3
47	167	4
127	131	3
151	151	1
94	98	2
150	151	3
131	131	3
118	118	6
14	15	10
19	22	5
62	83	4
43	43	3
3	162	1
149	150	3
45	46	1
147	147	5
15	16	1
89	89	3
104	104	4
120	121	1
152	152	4
114	115	3
78	80	1
52	52	2
120	122	1
149	162	1
9	9	1
128	131	1
99	103	1
136	137	2
37	37	3
78	78	2
12	12	1
97	99	4
166	166	2
142	142	1
160	161	5
56	70	1
74	76	1
132	133	2
52	119	1
18	18	2
150	163	1
62	87	2
121	146	1
153	155	2
35	35	1
8	8	1
12	13	1
96	96	1
127	127	2
92	116	1
54	56	1
18	19	1
132	132	1
66	66	1
103	103	1
87	87	1
127	128	2
46	46	1
66	70	1
13	14	1
56	76	1
77	77	2
150	150	1
97	101	1
51	51	2
28	28	2
92	94	1
72	120	1
16	17	1
80	107	1
4	6	2
85	85	2
98	99	1
108	109	2
140	140	2
44	44	1
105	106	1
69	86	3
80	80	2
95	97	1
131	133	1
3	3	1
79	79	1
51	63	2
69	88	1
146	146	1
93	93	1
167	168	1
160	160	1
20	24	1
49	52	1
11	11	1
67	68	1
119	119	1
88	93	1
111	111	2
109	109	2
152	153	1
74	74	1
57	62	1
154	154	1
