224	224	6
79	79	2
30	84	2
60	60	2
218	218	8
180	180	5
213	213	10
242	242	3
141	141	3
121	121	4
192	192	2
68	68	6
32	42	3
61	65	2
66	66	7
26	32	2
215	215	6
220	222	4
76	76	6
7	7	14
142	145	5
133	134	5
20	20	4
135	140	4
59	59	5
71	73	4
193	193	3
74	74	6
89	89	3
65	68	1
241	241	5
211	215	2
1	1	1
222	222	2
31	31	4
54	54	1
156	157	2
180	182	3
196	197	2
8	19	3
223	223	7
126	126	1
35	42	2
81	85	1
189	189	6
235	235	3
58	58	5
225	225	4
148	148	1
157	158	5
116	116	3
194	194	2
25	28	1
35	35	1
99	99	2
165	165	3
51	51	5
25	39	3
9	9	4
143	170	2
179	228	4
139	174	3
222	237	1
210	210	10
115	115	8
47	47	2
38	38	8
63	63	5
209	209	6
141	145	7
129	130	2
49	52	4
176	199	1
2	124	2
211	211	1
56	56	3
104	163	5
118	166	1
172	173	2
208	208	7
149	149	3
115	172	1
230	230	8
227	231	2
73	73	1
70	86	4
142	151	4
37	45	3
26	28	2
229	229	7
57	66	4
201	201	3
59	60	1
212	214	3
14	14	7
207	210	1
119	216	2
68	72	3
29	41	6
189	190	3
85	85	4
129	131	4
12	14	3
59	67	1
185	186	1
3	96	2
183	238	7
209	210	4
45	45	6
0	23	1
226	227	5
151	151	4
47	48	2
173	225	1
220	223	1
113	161	1
21	214	1
152	155	5
29	89	3
21	79	2
118	122	1
10	10	1
156	156	4
68	70	1
53	53	1
88	88	3
61	61	5
30	70	4
184	184	2
109	109	1
28	28	2
157	157	3
69	69	9
77	78	2
102	102	2
203	222	3
76	77	3
29	29	4
107	107	7
182	182	1
237	242	1
106	106	6
38	39	1
144	145	3
4	5	3
173	208	1
115	163	6
153	158	1
108	113	2
62	70	3
190	190	2
221	221	2
234	234	1
240	242	5
165	197	3
194	218	2
24	36	1
105	135	6
173	173	2
9	140	3
0	0	3
11	11	3
4	6	4
49	53	3
184	186	2
217	217	11
131	131	3
13	13	1
146	147	5
59	68	2
196	196	7
173	200	1
204	204	6
210	215	2
179	225	1
34	35	2
199	199	3
142	210	2
21	33	1
129	129	2
8	8	7
173	242	2
176	177	2
199	226	1
170	203	2
13	36	2
122	122	1
16	16	3
134	134	6
57	60	3
202	202	1
67	83	4
136	174	1
149	150	1
65	72	2
108	172	1
55	55	2
84	84	1
101	101	1
118	145	2
214	214	4
213	215	3
27	28	1
15	42	3
220	242	2
105	122	1
57	57	2
48	48	2
98	98	6
174	174	4
2	2	2
100	100	2
237	240	3
26	26	6
167	201	3
80	81	4
212	212	6
135	138	2
170	170	1
32	44	3
49	54	2
5	124	1
15	15	2
230	232	5
116	216	2
120	120	1
172	241	3
205	214	1
119	121	2
65	85	3
95	212	3
140	140	3
26	39	1
123	123	4
86	86	4
231	231	2
125	125	2
179	237	1
60	82	1
143	155	3
23	23	2
164	210	2
111	111	3
29	83	1
203	209	2
35	84	2
36	41	1
22	22	1
97	97	2
176	223	2
117	118	3
32	32	2
192	197	9
160	160	1
184	205	1
233	236	1
119	122	1
7	13	4
226	228	1
10	155	1
165	211	1
146	146	2
225	236	2
164	207	1
43	43	1
40	40	1
104	171	2
15	24	1
35	41	2
178	178	3
152	166	3
92	92	2
25	25	1
78	78	3
30	30	3
4	45	1
14	77	3
128	150	3
127	127	1
75	75	2
133	133	3
107	108	1
203	203	2
228	228	4
23	125	2
107	159	1
171	216	4
3	120	2
83	83	2
183	189	1
219	219	1
27	27	1
166	172	1
41	41	3
15	21	1
130	130	2
82	82	1
3	3	1
194	195	2
183	223	1
110	119	1
171	171	2
166	198	1
167	169	2
79	83	2
56	68	1
169	169	1
240	240	2
191	191	1
209	214	2
193	194	4
29	73	2
206	213	1
60	66	2
168	168	1
82	86	2
166	213	1
18	20	2
173	202	1
226	226	2
23	40	1
31	39	1
176	205	2
2	46	1
185	185	2
185	222	1
136	136	1
144	144	1
73	84	1
17	134	2
238	238	2
71	88	2
201	209	2
176	178	1
227	227	2
0	1	1
105	198	1
147	147	4
106	107	1
15	33	1
197	197	2
118	121	2
39	39	1
64	65	1
233	233	1
64	64	1
183	183	3
47	55	2
175	175	3
0	74	1
225	230	2
176	221	1
130	146	2
49	49	2
71	71	1
47	52	1
136	138	3
136	173	1
205	206	1
167	167	2
191	205	2
1	102	3
188	188	1
178	181	1
108	162	1
195	195	2
212	217	2
206	206	2
222	224	2
190	229	2
62	62	2
175	240	1
2	48	1
197	198	1
132	132	1
154	166	1
59	66	1
232	232	2
162	162	2
198	219	1
9	18	1
153	198	1
124	124	2
95	124	1
38	42	1
174	222	1
207	207	1
26	27	1
235	238	1
126	146	1
46	68	1
13	16	1
154	154	1
98	101	2
115	117	1
3	119	2
232	233	1
236	236	1
130	144	1
145	145	1
39	44	1
225	229	1
172	220	1
158	158	1
120	122	1
42	42	1
174	208	1
177	203	1
25	71	1
19	19	1
