133	133	5
88	88	6
24	25	3
73	74	5
64	64	7
58	58	5
5	5	4
103	103	6
106	119	2
113	115	1
24	24	7
3	3	3
33	34	2
131	131	10
62	62	9
15	15	5
92	93	5
124	124	9
109	110	9
36	37	3
142	143	1
99	101	3
145	146	6
118	118	7
107	107	7
81	81	7
37	37	11
72	72	3
115	118	1
105	105	2
73	87	2
41	74	3
130	131	9
121	121	16
64	77	2
95	96	7
63	64	7
3	4	5
1	1	8
93	93	8
43	43	1
72	73	2
117	117	12
70	70	6
12	26	1
96	96	3
39	39	4
67	67	14
60	74	1
114	114	10
122	140	3
69	70	12
117	126	1
26	26	8
90	91	4
18	18	15
139	139	3
32	32	11
85	85	6
26	33	1
53	53	15
23	23	9
92	92	9
116	116	4
58	59	7
79	79	16
95	95	9
136	136	7
92	94	1
71	72	4
144	145	5
4	4	5
70	71	3
29	29	5
1	32	1
10	10	6
136	139	4
55	55	8
102	102	4
122	122	8
19	19	7
54	54	7
135	135	5
0	0	5
119	119	2
35	36	1
2	2	4
126	132	1
52	52	4
144	144	5
120	121	4
12	23	2
59	59	7
50	55	2
17	19	1
127	128	2
9	9	1
98	98	17
93	94	5
40	40	8
143	143	2
18	67	4
99	99	8
142	142	9
39	84	1
13	13	8
87	88	3
110	117	4
42	42	8
56	56	6
83	83	3
63	141	1
102	103	11
110	110	6
60	60	2
62	123	2
82	82	10
89	90	5
145	145	11
109	109	6
60	61	3
40	133	2
51	55	3
94	95	4
25	27	1
91	91	9
81	84	1
140	140	10
90	90	4
48	48	15
69	89	1
17	53	8
39	40	2
101	102	4
38	141	4
57	57	3
117	121	2
34	40	4
107	108	3
104	113	2
31	57	4
76	76	7
84	84	11
22	23	2
83	84	7
105	106	4
71	71	15
96	99	3
16	16	6
34	34	7
76	85	1
110	133	1
127	129	8
105	108	1
38	38	7
49	90	5
77	78	6
17	17	5
73	88	4
31	31	3
53	54	2
1	2	2
77	77	7
81	83	1
24	26	2
86	144	2
133	143	1
74	74	7
28	29	1
11	11	7
16	17	4
18	19	3
134	134	2
33	33	6
69	71	3
89	89	8
111	111	4
96	134	3
58	122	3
127	127	6
47	47	5
8	8	5
101	129	4
140	141	9
54	55	3
125	125	19
85	131	1
80	82	4
131	133	1
41	41	11
0	34	1
30	30	6
97	125	2
115	116	2
115	115	7
1	3	1
101	101	6
15	18	2
108	109	2
97	97	5
61	62	2
113	113	6
141	141	11
125	126	2
108	108	2
112	114	3
112	112	2
80	83	2
120	120	7
12	15	3
98	123	2
97	98	5
86	139	4
25	25	9
15	16	5
30	41	2
100	100	4
66	125	3
41	42	4
104	104	2
22	22	10
4	5	11
50	52	2
71	86	2
126	126	3
129	136	1
84	86	2
81	82	4
112	121	1
38	82	2
129	130	2
106	111	4
8	9	2
137	137	5
56	57	2
123	124	1
73	73	7
40	41	2
122	125	3
4	8	1
49	49	4
66	66	9
78	78	4
2	10	4
63	63	3
32	34	4
126	128	2
133	135	5
120	122	1
123	123	7
62	67	3
13	17	2
138	138	5
130	130	3
10	22	1
2	3	4
20	21	2
124	126	6
34	35	8
124	125	3
116	117	4
146	146	2
133	139	2
20	20	7
80	80	2
1	35	1
14	14	2
67	92	2
143	145	5
19	49	1
74	75	6
37	38	2
80	81	1
22	32	1
51	52	2
87	87	5
103	104	3
55	56	1
98	124	3
25	26	2
133	144	1
72	78	2
6	7	1
3	9	1
129	129	2
68	68	1
78	79	2
17	18	3
48	50	1
59	61	4
33	79	1
126	127	4
99	100	4
19	21	2
65	65	2
104	111	1
98	102	2
106	107	2
69	69	5
36	40	1
103	116	1
123	125	3
120	124	1
107	120	1
98	101	1
37	39	1
6	6	4
84	85	1
84	131	1
61	79	2
22	81	1
57	59	3
76	79	1
40	100	1
59	60	3
72	76	1
100	114	2
33	78	2
52	53	1
1	23	1
119	120	1
25	28	1
128	128	2
3	8	1
73	75	2
28	28	3
62	63	1
51	51	1
21	21	1
110	111	2
92	129	1
143	144	2
58	142	2
75	75	2
27	28	2
29	61	1
130	132	2
61	61	2
86	86	1
111	119	1
13	15	1
48	81	1
40	47	1
95	141	1
118	121	2
138	139	2
88	89	1
114	118	1
135	142	1
19	20	2
35	35	1
66	72	2
82	86	3
1	34	1
65	67	1
85	86	1
49	89	2
20	23	1
96	97	1
10	11	1
65	66	1
28	30	1
66	68	1
65	77	1
93	95	1
32	33	1
60	70	1
111	122	1
