107	116	2
93	94	3
107	107	12
115	115	11
9	9	7
136	136	8
137	138	2
120	122	5
20	21	3
141	141	8
137	156	3
148	152	4
13	13	4
50	50	3
46	46	13
109	113	6
17	17	4
155	155	6
10	10	11
94	146	3
117	136	2
3	4	8
53	53	2
108	117	4
103	103	2
66	69	4
27	27	4
68	68	3
49	135	2
87	87	13
11	12	9
20	28	4
123	126	7
49	49	9
48	48	13
157	157	10
32	32	20
7	7	8
68	70	4
119	119	6
106	106	6
128	129	1
17	18	11
71	71	2
109	109	4
81	81	14
1	1	13
37	41	5
145	145	6
153	153	4
8	8	6
38	38	2
29	29	5
49	54	3
15	15	12
108	111	4
83	83	2
114	114	6
107	111	1
0	0	8
94	94	9
40	40	5
43	43	9
82	82	6
138	138	11
5	5	11
82	101	1
9	92	3
140	141	6
21	21	6
125	126	6
127	127	13
23	23	20
28	28	11
158	158	7
96	96	10
105	105	4
67	67	2
92	95	1
33	33	9
157	158	6
146	147	10
130	130	7
44	44	7
110	110	14
96	99	1
120	140	3
123	127	1
55	134	2
6	6	4
117	117	11
36	36	10
92	92	6
112	112	4
132	132	7
100	100	11
35	35	8
137	137	4
25	25	3
143	143	9
144	144	2
94	95	7
79	85	5
69	69	13
97	97	10
139	139	9
111	111	6
154	155	6
81	83	3
22	22	5
144	149	2
18	18	10
84	84	7
13	14	6
2	2	5
80	80	2
51	51	3
42	55	5
92	117	1
137	140	1
53	54	3
26	26	5
132	133	6
55	55	1
5	6	2
93	138	4
86	87	2
125	125	9
89	90	1
17	117	1
109	118	6
128	128	9
146	146	8
126	126	8
142	142	10
84	95	3
133	134	2
110	112	4
7	8	4
121	122	8
109	110	7
77	79	4
37	37	10
16	17	2
90	90	4
95	97	4
8	12	1
88	89	4
94	152	1
148	148	8
1	2	2
76	79	3
32	33	4
53	157	2
135	136	2
57	68	3
101	101	4
8	130	2
113	114	3
45	45	5
50	53	1
138	143	3
118	119	2
136	143	4
108	110	6
25	129	2
124	124	4
153	154	1
88	88	8
99	99	2
94	123	4
8	114	2
39	39	8
46	47	3
76	76	1
13	37	2
4	4	5
77	78	7
5	22	1
65	65	4
83	86	5
47	47	7
6	7	2
19	19	7
91	91	4
94	96	2
150	150	8
81	82	5
17	21	1
121	139	3
79	79	7
155	158	2
82	85	1
40	42	2
114	117	5
9	12	5
72	73	1
20	20	22
9	10	5
24	24	9
40	43	1
12	13	1
42	42	5
129	130	1
151	151	9
127	149	2
113	113	16
134	141	1
16	35	3
67	68	1
142	153	2
3	13	1
85	85	3
66	68	3
48	49	5
82	83	2
122	123	3
152	154	1
77	77	14
78	78	9
79	80	2
30	70	1
47	50	1
31	31	5
11	11	9
118	120	1
156	156	5
131	131	1
11	15	1
9	44	5
93	98	2
85	97	5
113	121	2
152	153	3
57	57	2
16	36	2
29	96	1
30	30	12
93	93	12
154	154	4
40	41	1
92	142	2
121	121	8
73	74	2
81	84	1
113	115	1
117	118	3
95	95	4
73	73	10
63	65	1
140	140	3
54	109	4
91	103	2
31	32	1
155	156	4
15	18	2
108	108	8
16	16	4
149	149	2
72	72	1
92	139	2
96	97	3
118	121	1
70	70	7
147	153	1
14	14	5
132	143	3
75	75	3
123	123	2
95	96	4
12	12	5
86	86	2
70	71	3
51	157	1
41	42	4
81	90	1
118	122	2
104	104	8
8	65	5
111	139	5
107	127	2
129	155	3
84	85	1
28	29	2
98	98	6
131	134	1
78	79	1
118	118	10
87	88	2
22	40	1
116	116	3
64	64	1
18	19	1
93	97	4
151	152	1
75	76	1
29	30	4
79	100	2
99	100	1
85	93	2
114	118	4
124	125	4
92	114	3
51	52	1
90	94	1
105	107	1
110	111	1
81	98	2
145	156	2
143	155	1
129	129	8
23	24	1
152	152	1
22	23	1
120	120	3
136	137	1
149	154	1
57	62	1
134	134	2
159	159	1
73	75	2
30	57	2
2	5	4
3	3	3
62	62	2
69	70	1
32	38	2
106	107	3
124	126	1
150	151	1
45	46	2
130	156	2
52	52	3
36	43	2
80	86	1
19	20	1
63	64	2
10	94	1
56	56	4
27	28	3
36	90	2
56	57	1
156	158	3
126	150	3
89	89	3
55	62	1
144	159	1
85	96	1
64	140	1
20	41	2
35	37	2
54	54	2
144	145	5
44	45	2
8	9	1
4	61	1
138	139	3
50	55	2
63	63	1
3	50	1
4	5	1
10	138	1
22	25	1
29	100	2
6	92	2
2	4	1
33	35	1
31	63	1
134	135	1
130	137	1
14	48	1
80	81	2
41	51	1
119	120	2
34	34	1
102	102	2
12	23	3
48	135	2
66	66	4
98	99	1
34	36	1
108	116	2
41	45	1
102	128	1
31	37	1
7	92	1
14	37	1
54	157	1
18	27	1
33	34	1
1	6	1
46	49	1
21	22	1
41	41	1
42	47	1
102	104	1
17	28	1
126	127	1
122	126	1
108	123	1
16	117	1
54	55	1
39	70	1
147	147	1
31	95	1
126	145	1
31	33	1
135	135	1
80	82	1
