55	117	6
119	119	17
12	12	19
58	58	13
73	73	9
48	51	4
114	114	12
106	119	2
85	85	9
124	124	10
110	111	2
71	71	15
94	94	12
8	8	6
66	66	16
82	91	8
29	43	4
106	107	11
58	59	5
50	50	14
20	20	3
28	28	12
11	11	13
84	84	14
10	11	7
104	104	10
62	62	21
109	109	12
65	66	5
127	127	6
49	49	21
21	21	7
43	43	12
24	25	2
125	125	17
78	78	14
22	22	4
33	34	5
111	111	4
27	27	8
99	99	5
117	117	7
16	17	2
15	15	14
70	71	2
17	40	2
74	103	1
133	133	4
93	95	2
75	75	9
59	66	1
47	47	5
106	108	4
121	121	10
16	16	22
18	18	14
58	86	2
126	128	2
5	5	3
62	63	4
42	42	9
114	115	2
70	70	12
30	30	9
57	57	9
41	41	12
112	112	16
76	76	14
48	56	2
79	92	1
97	98	3
59	63	3
19	19	11
10	10	10
45	45	14
122	122	5
81	81	14
9	16	1
33	33	15
84	85	7
91	91	13
69	70	5
4	27	5
27	43	2
92	92	10
9	10	3
103	103	8
46	47	9
19	42	1
106	106	2
30	31	11
6	6	11
126	126	5
64	65	4
89	89	5
76	102	2
68	68	12
80	80	18
90	90	10
17	17	9
44	44	19
105	105	13
61	61	16
89	90	2
79	79	17
52	122	3
34	34	8
31	32	4
72	72	27
18	19	14
59	59	6
108	108	4
6	7	3
66	76	2
90	91	6
0	2	1
65	65	22
54	54	10
96	100	3
68	69	1
67	67	18
100	100	11
116	131	1
72	74	2
98	102	1
102	102	8
28	29	9
77	77	9
14	14	13
72	73	14
106	109	2
0	0	4
102	105	1
22	23	3
123	124	2
69	72	2
118	118	10
98	99	5
111	112	4
38	38	2
32	32	8
77	78	6
82	83	4
25	25	12
97	97	5
73	103	4
6	8	3
84	86	2
131	131	8
11	12	3
21	41	2
67	77	1
4	6	3
42	43	9
123	123	14
4	5	16
2	2	8
33	41	3
106	110	1
63	63	5
81	108	3
29	29	6
54	64	1
81	82	4
11	24	1
57	105	2
88	88	7
56	56	7
127	128	7
101	101	7
53	54	2
82	82	2
125	126	1
104	106	5
27	42	3
93	94	15
20	25	2
46	46	3
11	25	3
96	96	13
51	51	4
116	117	4
7	7	7
31	54	2
48	52	1
117	118	3
98	98	9
3	33	1
26	26	14
58	87	4
71	72	4
95	95	9
25	26	3
64	64	14
83	96	1
83	86	2
39	39	9
9	9	2
88	116	1
85	88	1
113	114	4
9	21	1
107	107	4
81	119	2
60	60	7
103	104	6
68	75	2
91	92	1
85	86	8
32	33	2
55	64	3
126	127	6
13	13	7
44	45	5
110	110	6
3	3	6
129	129	1
88	90	1
83	83	5
78	93	1
128	128	7
104	124	1
29	30	1
49	50	1
62	64	1
83	97	4
81	129	1
13	15	5
91	97	3
67	99	2
4	4	10
56	65	5
23	23	9
69	69	5
28	51	3
63	64	3
83	84	4
30	54	5
93	93	9
115	116	4
87	91	7
24	24	4
86	88	3
81	97	1
0	1	1
115	115	4
72	75	1
27	54	1
40	40	2
53	53	5
125	129	1
130	130	4
21	27	1
61	66	1
103	113	1
83	124	1
67	76	3
60	62	3
31	31	3
82	121	2
26	32	1
19	26	2
5	6	4
61	75	1
79	121	2
48	48	5
105	124	2
108	109	2
1	1	6
112	113	2
61	71	1
86	87	2
49	51	1
130	131	5
38	39	3
38	68	1
116	118	2
50	120	1
80	81	1
96	107	3
131	132	2
60	63	6
62	75	2
60	61	1
100	101	4
8	21	2
132	132	3
17	18	1
75	77	1
113	113	8
42	44	2
97	99	1
116	116	6
53	56	2
34	66	1
58	68	4
39	40	1
23	24	3
120	120	2
0	32	1
67	68	1
79	108	1
26	27	6
102	103	3
104	123	2
19	40	1
124	125	1
47	122	1
69	104	1
3	6	1
109	113	5
0	29	2
51	82	1
38	40	1
64	69	2
65	74	1
74	76	1
95	96	1
19	32	1
55	55	3
56	64	1
77	80	1
14	18	1
53	69	2
26	31	1
81	125	1
13	14	2
107	108	1
40	71	1
50	111	4
124	128	2
41	42	8
16	33	2
75	78	1
120	121	1
73	74	2
96	101	1
20	21	1
77	99	1
64	72	1
104	105	5
3	4	1
28	44	3
79	80	3
1	2	2
114	116	2
56	111	1
50	51	3
95	102	1
120	122	2
87	90	1
2	31	1
118	119	6
82	90	2
43	44	3
76	104	1
88	89	1
47	110	2
13	25	1
40	42	1
99	106	1
69	102	2
21	43	1
83	87	1
116	125	3
98	103	1
110	112	1
74	102	2
58	104	1
72	100	1
127	130	3
129	133	1
94	95	1
74	75	1
10	25	1
45	70	1
2	3	1
89	125	1
67	104	1
29	63	2
15	19	1
12	13	1
85	89	1
29	42	1
84	106	1
7	24	1
129	131	1
74	77	1
22	27	1
63	67	1
82	95	1
59	76	1
129	132	1
