27	100	2
63	63	12
19	19	5
105	123	2
112	113	6
41	41	15
29	29	7
94	94	11
3	4	3
143	143	6
125	125	12
88	109	1
135	136	2
36	36	3
32	32	7
33	33	5
106	106	5
146	146	3
141	141	9
57	57	5
99	102	4
53	130	2
107	107	11
122	122	15
128	128	5
99	100	5
138	138	7
121	121	11
22	22	9
75	79	2
118	118	16
127	136	1
65	73	2
80	80	7
64	65	6
58	58	10
112	112	5
84	84	6
28	28	9
15	15	4
116	117	3
71	71	9
34	34	4
15	16	1
52	52	6
142	142	5
78	79	2
91	91	4
84	85	3
111	111	5
9	9	4
125	139	2
59	61	5
116	116	10
131	131	16
127	140	2
124	125	7
35	36	1
10	11	1
64	64	5
55	56	7
76	77	4
26	27	9
56	56	6
133	133	5
129	129	7
60	61	5
86	89	2
80	81	2
140	140	13
127	127	18
50	56	3
88	90	4
11	11	8
105	105	14
47	87	1
109	109	3
93	94	1
62	124	5
87	88	5
67	67	5
35	35	3
69	69	12
85	85	3
98	98	8
95	95	8
89	89	4
81	81	8
42	42	11
111	112	2
102	102	6
26	26	7
59	59	4
51	52	7
72	103	1
114	114	8
20	20	6
71	104	5
2	18	1
74	74	15
120	121	2
53	53	10
24	24	7
101	101	11
27	36	2
82	105	3
85	131	1
28	29	4
75	75	7
62	62	6
3	3	5
76	117	1
58	59	5
126	127	3
79	81	2
145	145	10
39	125	4
134	135	7
119	119	8
119	130	2
91	92	1
39	39	9
68	68	7
16	16	6
103	103	12
69	107	3
113	114	2
30	30	14
136	137	2
103	118	1
50	50	5
82	90	2
128	129	5
23	23	9
65	65	8
34	35	3
87	87	6
72	73	3
91	116	1
61	128	2
60	60	7
72	116	1
38	38	20
120	127	2
41	42	4
74	121	3
78	78	5
66	66	4
97	98	1
20	21	4
22	42	2
132	134	2
99	99	6
72	104	1
62	63	1
73	73	15
2	20	2
88	88	3
54	55	4
37	38	3
104	105	2
52	53	3
110	110	6
27	33	1
68	141	2
117	117	8
108	108	10
50	51	6
98	99	4
47	48	4
113	120	2
31	96	2
23	49	1
88	105	2
4	4	12
139	139	4
6	36	2
8	108	1
120	120	6
90	96	2
134	134	10
40	41	1
132	132	16
37	37	3
1	1	7
6	6	5
48	48	5
6	15	2
135	135	19
40	40	5
66	99	2
112	119	1
100	100	4
23	26	2
121	123	2
86	86	5
142	143	1
137	137	8
61	62	2
55	83	3
90	90	9
31	132	4
76	76	10
95	97	2
56	57	4
123	124	5
101	118	4
124	124	7
102	103	4
36	55	1
114	138	2
92	92	3
127	129	2
12	16	1
24	25	3
93	93	9
53	58	1
17	17	5
118	119	7
116	118	3
10	10	8
4	33	1
83	84	1
77	101	3
144	144	4
125	137	1
54	54	4
69	70	3
29	62	2
91	95	2
125	141	2
128	137	2
52	71	2
97	97	7
127	132	1
92	97	3
70	70	6
127	130	2
49	50	1
96	96	5
107	109	2
71	109	1
0	1	2
133	139	2
126	134	1
25	25	5
16	18	2
50	125	3
2	2	4
141	142	3
30	31	2
23	24	3
121	133	2
36	37	1
126	126	6
9	11	2
2	19	1
8	9	3
137	138	1
33	47	3
73	74	3
145	146	2
13	15	2
125	126	1
98	102	1
8	28	2
76	78	1
71	72	1
75	86	1
0	4	1
55	55	5
31	31	3
72	72	6
60	62	1
39	41	1
67	82	3
2	37	2
23	37	3
93	95	3
61	61	12
1	2	2
70	71	2
18	18	6
5	5	2
127	128	1
14	14	7
106	108	2
123	123	4
1	24	1
113	113	4
13	13	4
100	106	1
18	33	1
12	13	2
128	131	1
59	60	3
11	39	1
8	8	4
48	49	2
99	105	1
134	136	1
26	34	1
88	91	1
75	117	1
105	109	2
75	76	3
105	107	2
62	123	1
79	79	1
126	129	1
67	120	1
9	60	2
53	128	3
24	26	2
82	82	2
140	141	2
136	136	8
2	25	1
108	130	1
71	75	2
12	47	2
97	103	3
23	50	2
142	145	3
79	129	1
69	84	2
47	47	3
82	83	1
17	37	5
117	119	1
4	5	3
2	6	1
108	109	1
51	51	4
85	87	2
36	43	1
69	128	3
13	127	2
43	43	2
27	84	1
65	66	1
78	82	2
83	83	2
49	49	4
109	110	1
9	12	2
22	99	2
67	68	1
12	37	2
126	135	2
63	79	1
121	141	1
27	30	2
77	128	1
15	18	2
115	115	3
122	123	1
123	131	2
88	89	1
93	115	1
82	141	1
116	142	1
36	42	2
119	120	3
19	33	2
102	120	1
26	29	2
61	98	1
81	90	1
87	105	2
10	120	2
136	139	2
0	0	1
102	125	4
69	108	1
60	130	1
0	16	1
83	85	1
26	56	1
23	42	1
2	3	1
102	109	1
12	12	2
24	41	1
19	23	2
102	116	1
55	57	1
70	75	1
27	28	1
58	61	1
24	43	1
94	96	2
77	110	2
129	132	2
29	36	1
101	102	2
34	36	1
106	120	1
4	6	1
104	104	2
89	110	1
70	84	1
57	60	2
90	91	2
110	119	1
1	21	2
91	94	1
129	133	1
77	79	2
121	122	1
143	146	1
132	133	1
53	131	1
37	99	1
39	57	1
16	17	1
53	54	1
75	95	1
68	69	1
93	116	1
3	6	1
57	61	1
79	112	1
17	18	2
96	118	1
105	120	1
27	27	1
77	77	1
29	42	1
118	122	1
89	90	1
20	38	1
15	38	1
73	120	1
73	82	1
16	89	1
79	110	1
81	82	1
9	33	1
36	58	1
58	87	1
107	108	1
