101	101	9
82	82	4
89	89	8
23	72	4
29	29	9
40	41	4
88	88	7
43	45	1
27	27	8
31	49	4
70	70	4
66	66	16
64	64	5
53	89	1
36	36	19
104	104	7
79	79	7
84	85	7
100	104	4
39	39	7
37	37	8
65	65	5
75	75	18
60	60	5
97	99	12
40	40	15
98	98	8
91	91	2
65	66	2
85	85	4
88	93	7
88	105	3
34	51	2
54	92	5
59	66	3
80	80	2
63	63	6
45	45	2
29	30	1
53	56	8
55	55	7
47	49	7
23	23	8
63	64	5
40	46	8
87	102	3
81	81	4
102	102	17
28	28	5
71	71	5
35	35	4
78	78	6
80	86	2
24	26	4
72	72	9
79	101	1
68	68	6
87	106	3
94	97	2
68	104	2
72	74	3
53	53	5
59	64	13
81	84	2
77	77	3
51	51	8
81	102	5
88	94	3
80	81	1
30	30	6
100	102	7
103	103	11
78	79	2
48	50	3
60	62	2
50	50	1
33	34	4
76	77	7
86	87	2
33	33	3
59	65	2
74	74	8
97	98	2
69	70	3
35	76	8
90	90	4
75	76	2
25	25	3
95	95	8
102	103	5
32	32	6
45	46	2
106	106	3
88	96	4
56	56	3
76	76	12
88	98	3
30	63	2
97	102	2
52	52	3
99	99	1
24	24	10
67	67	7
68	69	2
93	93	3
62	62	1
24	78	1
86	86	8
50	75	11
36	50	10
42	43	2
105	105	2
95	96	3
40	45	1
57	57	4
96	98	2
101	102	5
47	47	2
39	40	1
69	104	1
19	106	2
73	73	4
96	96	8
58	58	5
83	83	4
96	99	1
31	32	2
30	97	1
49	49	2
87	87	3
37	39	2
30	79	1
51	75	3
33	48	1
51	90	2
79	87	1
46	46	2
58	73	1
66	68	2
43	43	5
20	30	1
82	83	2
92	92	1
81	99	1
44	44	2
87	94	2
51	52	4
93	103	4
33	47	1
31	31	2
67	104	2
42	42	2
22	22	1
59	67	1
45	48	2
79	80	2
34	34	1
81	86	1
35	39	2
90	91	1
62	63	1
21	21	2
27	30	2
26	26	2
54	70	2
93	94	2
55	58	2
44	45	1
88	97	2
83	85	2
96	102	2
59	59	2
21	106	4
100	100	2
97	97	2
82	84	2
80	87	1
94	94	2
99	105	2
84	84	4
50	51	1
57	58	1
100	105	2
33	46	1
52	90	1
32	46	1
85	86	1
26	29	1
71	91	1
71	72	1
37	38	1
53	91	4
69	69	1
47	48	2
87	93	2
58	70	1
34	43	2
48	48	1
54	90	2
36	39	2
56	58	1
103	104	1
90	92	1
36	77	1
41	42	1
