24	25	5
137	137	6
98	98	3
103	103	6
123	124	1
25	25	6
106	106	6
77	103	4
119	119	7
86	86	4
4	4	9
164	164	6
50	50	2
132	132	2
90	94	4
74	74	5
24	24	1
152	152	4
178	178	4
120	121	5
122	122	2
165	166	2
2	2	8
176	176	5
98	128	2
127	127	7
79	79	2
155	157	2
136	137	5
75	75	4
109	110	1
117	118	1
161	166	3
85	143	2
114	114	4
132	173	1
146	146	2
164	166	1
84	113	1
16	16	3
95	154	3
6	9	2
38	41	5
169	169	12
162	162	4
74	78	2
150	150	5
166	168	3
94	94	2
143	143	3
22	23	4
14	14	3
86	153	1
167	167	10
55	56	5
121	122	4
172	172	7
174	174	3
71	71	5
141	141	8
148	148	5
138	139	1
101	101	6
82	82	11
163	163	4
38	38	4
102	125	1
66	67	7
9	17	2
67	109	5
90	145	7
168	168	4
88	88	3
71	75	1
35	37	2
105	105	3
61	62	3
43	43	4
52	108	1
64	64	4
129	129	1
177	177	2
167	168	4
17	18	2
44	45	1
120	120	4
86	133	3
54	54	2
18	19	1
14	21	3
142	152	2
91	91	4
34	34	5
164	165	1
118	118	6
151	151	8
130	153	4
13	16	1
100	100	2
72	72	6
33	33	3
116	126	1
130	130	6
90	91	3
81	81	2
107	107	4
5	5	2
131	131	2
117	117	2
123	123	1
133	134	3
64	81	1
90	150	2
26	26	5
53	53	1
159	160	1
35	35	4
65	66	2
139	139	1
131	135	2
102	116	1
154	157	2
7	9	1
153	153	7
111	113	5
44	44	3
2	4	5
87	131	1
99	152	1
102	115	1
89	89	2
146	155	1
138	138	2
56	56	3
140	140	3
103	104	9
100	101	3
112	112	1
96	97	2
74	75	2
7	7	3
15	17	4
52	52	4
107	109	1
145	145	2
115	115	6
131	132	3
173	173	4
95	95	2
133	135	4
40	40	2
110	111	1
30	30	2
156	156	3
31	31	1
50	68	1
59	59	1
57	58	1
145	155	3
116	116	1
99	142	2
143	152	1
13	17	2
160	160	1
77	78	1
157	157	1
87	89	3
9	9	2
39	39	4
11	11	2
42	42	3
166	166	3
87	133	1
155	156	2
31	39	1
26	27	3
28	29	2
24	36	3
93	93	2
144	144	2
78	78	2
21	21	1
81	82	2
28	28	2
0	0	1
134	134	5
25	31	1
116	118	2
17	17	3
101	116	1
51	106	2
99	100	2
102	102	2
6	7	1
82	152	2
3	4	1
60	60	3
63	63	1
102	136	1
6	72	1
65	67	1
90	154	1
133	133	4
55	55	2
80	80	1
135	136	2
82	140	1
41	41	1
103	135	1
157	158	1
95	159	1
180	180	1
155	155	1
179	179	1
125	125	1
2	3	1
126	126	2
111	111	1
124	124	4
41	42	1
149	149	1
87	87	2
177	178	1
158	158	1
128	128	1
126	127	1
21	22	1
4	13	1
50	54	1
90	90	1
27	31	1
67	67	2
108	109	1
50	51	1
162	171	1
161	161	1
142	143	1
146	147	1
15	15	1
96	96	2
5	8	1
13	20	1
