50	51	4
176	176	9
59	63	5
66	80	1
91	92	8
61	61	7
136	136	12
131	175	3
88	89	5
118	121	6
142	142	7
16	16	7
71	71	17
167	168	7
168	168	19
152	152	16
157	157	19
121	121	4
77	78	3
162	162	8
64	64	7
9	9	13
11	12	3
37	38	5
23	24	3
115	115	16
164	164	7
79	79	8
54	55	3
151	157	3
147	147	6
82	86	1
20	21	3
105	105	18
91	91	11
31	102	2
104	106	4
120	120	5
151	160	4
129	129	12
87	87	10
151	158	6
4	5	5
58	58	13
4	96	2
6	6	7
43	43	15
66	66	12
144	144	12
8	8	12
32	32	8
154	154	19
81	81	11
172	173	3
149	149	23
9	12	3
127	128	14
83	83	5
84	139	2
152	162	2
42	42	7
15	30	4
7	7	11
101	101	5
29	30	3
10	10	6
25	26	3
14	15	6
13	13	15
78	78	5
159	160	8
16	17	6
154	155	8
19	19	5
134	135	6
155	174	1
111	113	4
72	72	7
75	75	7
79	80	3
112	112	14
62	126	2
107	107	3
81	82	5
92	92	6
159	159	14
108	108	12
11	11	12
160	160	12
39	40	7
128	128	5
18	19	5
145	145	7
67	101	1
124	124	9
98	100	4
35	52	4
158	158	13
1	1	16
40	40	13
137	137	8
139	139	14
153	153	11
115	117	8
71	72	6
20	20	5
65	65	10
61	62	4
106	106	6
131	176	3
86	86	7
60	60	13
137	148	6
24	24	12
174	174	12
126	126	6
114	114	14
133	133	22
16	21	2
81	90	3
116	117	9
156	156	15
125	126	7
179	179	17
143	144	4
165	165	13
76	76	7
153	163	3
43	44	3
76	105	3
40	41	6
130	130	14
153	161	2
110	112	3
107	108	1
84	97	7
4	4	13
169	169	15
133	138	1
104	104	4
32	33	9
180	180	10
166	166	13
154	156	4
88	88	7
12	12	2
157	158	6
118	118	18
84	84	7
3	3	12
78	79	4
51	51	16
27	27	9
94	94	15
22	22	10
59	59	9
40	44	9
141	141	14
66	67	9
112	113	5
34	34	13
50	52	4
85	86	6
173	175	1
94	95	9
155	172	3
18	18	9
2	3	5
121	122	7
163	164	2
134	134	9
145	151	2
61	66	1
16	66	2
23	23	12
60	61	6
170	170	16
5	13	2
15	15	17
31	31	13
117	117	3
172	172	9
86	106	5
131	131	8
82	82	11
97	98	3
140	140	11
30	30	13
89	90	4
21	22	7
163	163	16
8	31	2
67	115	2
21	23	4
176	177	3
73	74	6
117	118	4
25	25	4
14	14	10
109	109	15
100	100	11
33	34	3
127	127	15
6	45	5
151	151	14
173	174	3
161	161	22
99	100	3
78	81	2
139	140	16
165	166	11
17	32	2
106	107	10
124	125	9
30	33	4
88	93	4
17	33	1
35	36	1
129	130	24
2	2	15
92	95	4
50	50	9
164	165	2
52	52	11
42	120	4
134	166	3
39	39	6
34	35	5
74	89	4
131	169	2
95	95	10
27	28	1
119	119	10
127	130	3
44	44	11
35	41	2
146	146	6
135	146	3
159	173	3
118	120	1
38	38	6
63	63	4
76	104	1
49	121	2
175	175	5
28	29	5
4	12	1
67	67	11
14	36	1
45	45	8
118	119	6
168	169	4
41	41	5
75	103	3
90	90	21
148	149	3
3	4	4
82	83	5
0	0	4
132	132	6
151	152	1
67	68	1
13	35	3
26	77	5
64	66	2
122	125	6
149	167	1
137	180	4
74	179	2
144	145	1
87	89	2
36	41	2
90	91	4
28	28	10
73	75	3
111	111	9
9	10	5
31	32	3
17	18	4
177	178	7
103	103	12
78	127	2
175	176	11
113	113	1
65	66	4
80	80	9
34	53	1
21	21	9
6	41	1
96	97	1
95	98	5
94	101	3
110	111	3
171	171	6
96	96	12
142	143	3
151	154	2
24	26	5
127	129	1
135	135	10
5	5	4
58	92	2
67	116	4
178	178	13
85	101	2
32	43	1
173	173	14
31	37	1
24	25	3
27	39	1
89	89	14
61	63	7
44	56	2
119	120	6
57	123	2
80	81	8
105	106	9
148	148	7
5	6	1
1	3	2
41	46	1
70	70	1
93	93	3
98	99	1
59	60	3
62	84	3
13	14	4
35	35	6
104	105	1
57	81	3
143	143	8
70	72	2
143	146	3
24	36	1
53	53	3
53	54	7
25	27	2
79	104	4
20	63	1
75	78	3
102	102	9
12	13	8
142	147	2
95	96	1
56	124	1
97	97	7
56	80	5
145	147	2
74	75	1
116	119	1
102	105	2
0	1	4
22	66	2
150	157	4
52	54	4
92	94	3
124	128	4
33	33	10
73	73	7
156	157	2
147	161	1
13	31	2
14	37	3
132	141	1
52	53	3
5	96	1
84	100	2
138	138	8
74	74	4
51	53	1
150	150	14
110	110	5
87	88	1
62	62	5
82	109	3
72	89	1
171	172	5
15	16	4
133	134	3
85	85	8
135	136	1
90	92	1
168	172	2
80	105	5
39	44	1
131	171	3
122	122	4
84	85	2
62	125	1
92	93	4
6	7	1
146	147	2
161	163	2
54	54	4
98	98	5
86	87	2
83	85	3
102	149	1
68	113	1
129	157	2
138	139	4
68	68	8
55	55	8
10	37	1
107	109	2
57	67	3
86	95	3
131	156	2
131	132	2
37	42	2
75	81	2
138	146	1
102	104	6
162	163	7
131	174	2
137	165	1
77	77	7
98	101	1
109	113	3
60	131	1
166	168	2
174	175	3
5	45	2
72	86	2
28	99	5
111	112	8
106	149	1
148	161	3
1	2	1
29	29	3
105	118	2
14	32	1
22	68	3
160	161	2
57	58	2
96	98	2
168	171	1
12	53	2
158	159	4
66	101	1
29	102	1
81	101	4
43	55	1
100	155	2
172	174	2
170	171	2
114	115	6
81	103	1
86	97	1
142	144	3
129	131	1
68	94	1
68	112	1
58	64	1
108	109	5
37	43	2
132	155	2
153	171	1
37	37	4
26	26	2
95	97	1
94	154	1
62	92	2
67	84	2
86	119	1
130	132	1
51	54	1
155	156	2
128	129	7
49	49	2
7	41	2
68	114	1
56	56	6
53	62	2
111	140	3
36	36	3
9	11	1
106	148	1
10	13	2
156	160	2
178	179	1
113	114	4
117	143	2
86	94	2
64	65	2
134	137	1
123	126	1
107	114	3
166	172	1
65	121	1
149	150	5
125	125	7
123	125	6
155	168	1
135	148	1
120	121	2
59	62	3
166	167	3
81	102	2
61	137	1
123	124	1
103	107	4
8	37	1
90	115	1
164	167	1
12	35	2
78	117	2
135	165	3
66	119	2
73	84	3
150	158	2
39	41	2
152	161	1
90	96	2
77	79	2
79	106	2
62	63	2
160	162	4
72	164	2
11	15	1
102	103	3
147	148	5
111	141	1
10	30	1
152	153	2
153	157	5
107	116	3
140	141	2
110	113	1
44	45	2
91	93	1
155	170	1
30	31	4
34	37	1
143	150	2
177	177	2
89	94	3
96	113	1
57	57	5
91	116	1
73	83	2
147	160	2
8	9	4
28	30	1
70	71	2
157	160	2
143	145	4
132	172	2
150	151	2
4	6	1
162	166	1
112	162	2
167	178	1
83	135	1
126	127	1
86	88	1
15	17	1
123	123	3
63	122	1
108	120	1
17	17	4
54	66	3
0	4	2
59	61	1
172	178	1
72	73	2
137	176	1
55	56	2
7	9	2
31	104	1
137	138	1
145	170	1
154	159	1
80	127	1
97	100	1
119	133	1
2	4	1
88	94	1
31	120	2
169	170	2
122	123	1
87	101	1
26	28	1
4	57	1
155	155	1
100	101	1
141	148	1
150	162	1
167	167	1
17	28	1
153	160	2
35	49	1
88	105	1
93	94	1
73	174	1
161	167	1
28	32	1
18	32	1
5	58	1
8	38	1
79	109	1
20	41	1
66	83	1
67	97	1
107	119	1
54	82	1
15	32	1
177	179	1
178	180	1
