123	123	9
79	79	9
133	133	3
8	8	7
40	40	9
153	157	4
69	69	2
60	68	3
111	115	2
182	182	6
25	25	1
36	36	6
127	129	7
13	184	1
43	54	3
117	117	5
35	35	2
18	18	6
106	106	11
3	31	4
178	182	3
70	70	5
103	124	4
33	33	5
112	118	2
129	129	7
134	160	2
154	177	2
48	50	3
46	46	8
78	99	2
58	58	8
4	4	4
53	59	3
49	49	5
102	121	2
49	60	5
189	190	2
130	140	1
33	37	3
8	11	2
174	174	8
184	185	4
156	180	1
113	113	5
22	22	4
175	176	1
61	61	2
53	117	1
29	46	3
138	138	2
161	193	1
85	87	1
39	39	9
161	177	1
160	161	6
184	184	14
6	10	1
136	136	6
193	193	4
94	94	2
48	66	2
3	18	2
98	100	4
110	110	3
102	123	1
178	178	3
164	182	6
9	9	5
21	29	2
23	24	1
141	152	1
102	102	10
191	197	3
164	179	2
154	154	7
193	194	1
4	24	2
121	121	8
183	183	3
9	11	3
172	188	1
157	157	6
71	73	1
61	78	4
75	136	1
119	119	6
7	34	1
15	29	1
64	64	5
165	165	7
116	116	6
112	112	6
155	155	11
173	187	1
125	126	6
144	144	4
130	130	3
59	61	2
64	76	2
147	158	3
185	185	18
12	12	2
172	190	1
109	109	6
85	85	1
134	134	2
10	12	1
164	164	2
84	88	4
25	30	2
148	148	2
7	7	4
122	122	1
23	36	4
157	159	1
94	96	3
165	166	2
43	171	1
45	49	3
139	160	2
44	68	5
56	60	2
11	13	2
66	104	1
58	62	3
128	132	1
103	133	1
16	16	3
163	182	3
44	54	2
179	179	4
78	79	2
174	179	3
81	81	1
168	168	5
171	172	2
62	63	3
63	63	1
8	25	3
143	143	3
20	20	3
13	21	1
67	88	2
15	17	2
16	18	1
75	89	3
32	32	3
45	45	1
2	4	1
114	114	1
128	128	4
2	2	3
187	191	7
187	187	5
109	132	1
79	81	1
126	145	1
23	32	2
169	188	2
103	103	3
127	127	5
163	165	2
170	194	1
124	138	1
37	52	2
44	44	2
97	114	2
83	83	2
63	64	2
190	190	2
133	134	5
104	104	4
16	25	2
43	43	3
146	146	1
165	167	2
26	26	6
140	149	2
83	87	1
7	22	1
99	99	4
157	186	2
165	188	2
81	106	1
88	88	3
86	86	3
120	123	1
195	195	1
62	68	1
129	148	2
21	44	3
46	47	1
95	107	1
177	178	1
184	194	3
63	68	2
28	28	3
175	175	3
131	131	2
162	162	3
56	56	2
132	132	2
99	100	3
47	47	3
160	160	1
128	135	1
161	161	3
67	74	3
17	17	4
5	14	3
64	65	2
11	12	1
173	173	2
51	54	1
175	177	1
125	141	3
51	55	6
125	138	2
35	39	5
20	41	1
186	186	2
38	56	1
6	190	2
32	42	4
9	25	3
152	177	1
10	10	1
78	105	1
96	96	5
150	150	5
170	192	2
126	150	2
31	32	2
14	14	4
67	86	3
168	169	2
53	53	3
72	72	1
6	6	4
144	155	2
52	52	4
0	13	1
30	30	5
176	192	1
29	29	3
180	180	1
70	71	1
74	74	6
181	187	1
23	23	4
38	38	3
82	82	4
94	99	3
171	188	4
57	61	1
124	125	3
124	124	5
52	57	1
68	108	3
135	135	1
52	84	1
26	40	2
13	31	1
197	197	2
18	37	1
7	27	2
89	103	2
34	34	3
24	24	3
27	28	5
134	144	2
192	192	3
55	55	3
177	185	1
17	23	1
123	143	1
137	137	1
76	76	2
16	35	1
102	111	4
42	42	4
59	88	1
141	161	3
124	139	2
10	50	1
79	101	5
6	14	1
126	128	4
9	28	2
130	135	1
62	80	1
45	60	3
172	172	2
67	67	2
153	153	3
114	118	3
25	33	2
170	179	1
70	74	1
29	35	1
40	51	1
79	82	1
79	80	3
94	98	2
15	15	2
133	135	4
189	197	1
48	48	2
163	163	2
57	57	1
97	100	2
11	14	1
60	61	1
158	196	4
159	159	2
78	78	1
116	159	1
54	55	2
23	25	1
188	188	1
140	141	1
10	33	1
138	145	1
46	49	3
6	21	1
149	166	2
20	24	1
93	124	2
26	52	1
158	158	3
115	115	1
184	193	1
139	153	1
126	126	1
31	36	2
142	142	4
3	13	1
155	179	1
111	111	1
19	19	2
65	65	1
100	100	1
117	137	1
171	179	1
176	176	1
113	131	2
169	192	1
57	80	1
71	75	2
127	134	1
11	176	2
108	108	1
38	46	3
129	130	1
156	157	1
143	157	1
138	147	1
171	171	1
71	74	2
170	170	2
52	66	1
152	176	2
46	62	1
181	181	2
37	54	1
13	23	1
73	73	1
89	89	1
164	177	1
41	43	1
51	102	2
60	60	1
175	185	1
139	142	1
41	42	2
42	43	1
22	24	2
136	143	2
120	120	2
73	74	1
125	131	1
7	13	1
170	175	1
45	46	1
187	192	2
54	54	1
188	189	1
5	5	1
194	194	1
191	191	3
140	140	1
66	67	1
141	154	1
190	192	1
65	69	1
59	80	2
8	12	1
57	75	1
26	28	1
71	85	1
187	190	1
106	131	1
101	103	1
24	33	1
97	97	1
154	157	1
51	51	1
48	80	1
183	185	1
69	70	1
189	189	1
27	27	1
172	194	1
94	95	1
80	80	2
48	53	1
9	183	1
140	144	1
