15	15	11
90	91	8
116	116	22
25	33	4
118	118	8
128	128	11
36	36	6
95	95	16
63	63	21
87	87	17
134	134	17
57	70	3
94	123	2
32	32	4
83	83	6
20	27	4
103	104	5
93	93	11
66	66	16
10	10	18
77	77	15
84	84	14
105	107	2
123	124	4
46	46	9
75	75	10
121	121	11
84	85	14
17	17	11
78	81	1
47	47	3
133	133	9
127	127	9
4	5	5
58	58	7
129	132	5
71	72	4
105	106	5
94	94	12
107	108	8
109	110	3
91	92	5
128	131	2
29	31	2
108	109	8
2	3	5
2	2	3
72	73	4
22	27	2
61	62	5
55	55	6
35	39	2
111	111	16
85	86	3
27	27	11
58	125	1
98	98	11
1	1	1
113	114	3
122	122	16
17	18	8
60	60	8
72	72	8
69	69	7
108	108	5
25	32	2
73	74	2
94	127	6
124	124	13
29	30	7
36	38	3
98	100	3
102	102	9
82	85	4
18	18	13
114	114	10
86	86	35
38	43	2
65	65	21
78	78	14
123	127	2
99	133	2
5	5	4
125	125	17
14	36	2
109	109	9
130	130	12
95	96	16
81	81	15
14	15	4
115	115	25
103	103	9
68	68	9
56	56	6
104	105	12
127	129	3
62	63	3
110	110	12
50	113	4
6	6	6
3	3	2
96	125	4
9	9	10
6	7	10
59	59	8
74	74	17
79	86	2
57	83	2
20	20	9
85	85	18
96	96	11
94	95	8
4	4	9
91	91	4
8	8	13
71	71	8
25	25	4
107	107	19
31	31	8
126	126	6
132	133	3
7	7	4
2	70	4
16	16	7
55	98	5
129	130	4
105	105	7
28	29	4
78	100	2
11	11	6
59	117	4
90	90	6
59	113	5
64	64	2
30	31	3
78	123	3
103	123	2
79	102	2
33	34	3
77	83	2
26	26	8
86	87	10
1	63	5
55	56	5
3	8	2
48	48	8
14	14	12
77	78	5
42	42	7
30	30	9
117	117	23
94	99	1
95	124	4
121	122	5
13	48	6
7	8	6
44	44	5
97	97	5
110	111	10
69	73	3
117	118	2
115	116	2
57	85	1
96	100	1
61	63	5
120	120	21
70	70	9
81	82	9
70	71	3
45	46	7
26	27	5
132	132	12
100	124	1
66	117	1
44	45	5
124	125	5
79	80	4
37	76	4
105	110	1
61	61	11
62	62	5
93	114	1
100	100	10
41	78	4
22	22	7
122	128	2
93	98	1
75	76	3
112	113	8
50	55	3
39	44	2
40	44	2
13	14	4
31	48	5
86	116	2
79	79	8
96	108	2
119	119	8
69	70	1
76	76	2
67	67	6
58	116	4
89	96	2
29	32	4
92	92	8
15	16	1
101	102	2
37	104	3
131	132	1
82	102	5
32	77	2
32	40	5
34	35	1
42	82	2
33	33	7
6	57	2
39	41	4
13	17	3
7	56	4
8	120	1
56	83	1
3	4	3
7	16	5
43	44	5
133	134	5
109	129	1
43	43	7
101	101	8
78	103	7
98	99	4
24	24	5
131	131	16
12	113	1
9	36	2
95	117	1
131	133	1
32	34	3
104	106	4
35	35	4
91	94	1
9	125	2
80	80	5
46	47	7
23	23	2
21	21	2
68	118	1
59	71	1
28	30	2
128	133	1
101	115	3
76	77	4
106	106	5
87	88	4
62	68	2
12	104	1
125	126	3
120	121	4
62	64	2
129	129	12
113	117	1
68	73	2
114	116	4
10	73	2
20	43	3
43	84	1
123	123	4
67	118	1
77	102	5
95	116	2
40	41	9
12	14	1
19	27	5
78	106	4
80	106	1
113	113	4
28	28	1
81	101	1
112	112	8
12	12	5
92	95	1
1	2	2
21	22	5
118	119	3
45	45	6
80	105	1
127	132	5
113	116	1
128	129	2
44	77	1
86	88	1
37	37	5
6	9	1
127	131	1
74	108	2
11	12	3
73	94	1
17	30	2
63	64	2
84	86	3
79	103	1
1	62	2
100	101	3
39	39	1
89	124	2
41	41	5
73	73	3
26	32	2
47	48	2
35	36	1
0	0	2
67	77	2
59	70	1
104	104	7
23	25	1
129	131	2
81	103	1
6	56	3
67	68	1
127	133	4
48	113	1
88	89	1
56	93	2
86	130	1
45	49	2
4	6	1
33	77	1
112	114	2
126	127	3
76	133	1
38	38	2
13	37	3
107	122	1
42	78	1
78	102	3
10	11	1
47	75	1
103	111	2
43	82	1
68	129	1
106	107	3
68	69	1
120	134	1
57	57	5
25	26	1
47	116	1
101	116	4
13	13	2
94	100	1
61	75	1
82	83	1
9	10	1
45	77	2
21	33	1
116	117	3
95	101	1
7	14	2
97	100	1
13	15	1
16	37	1
82	82	2
73	85	3
38	39	2
78	104	1
38	42	1
30	33	1
24	27	1
19	19	1
64	117	1
96	97	1
58	60	1
93	128	1
18	22	2
85	102	1
102	116	1
117	119	2
103	106	2
124	128	1
86	113	1
36	45	1
8	23	1
130	133	1
37	38	1
62	69	1
42	43	1
100	102	2
57	82	1
126	128	1
94	101	1
91	123	1
71	85	1
8	9	1
34	34	1
74	76	1
50	133	1
78	79	1
