22	24	5
50	50	11
51	51	30
47	48	17
61	61	9
30	30	13
3	4	18
21	50	4
14	14	8
0	9	2
8	9	3
38	41	2
15	15	3
40	40	18
11	12	6
38	39	2
24	25	11
2	60	3
41	41	16
4	17	5
5	6	5
43	44	5
18	18	19
33	34	19
40	43	6
0	1	6
30	42	2
55	55	11
5	5	9
53	54	4
17	21	1
9	9	12
16	42	4
32	32	15
42	43	6
61	62	4
10	10	19
52	52	18
6	8	3
60	60	14
2	2	16
15	16	3
4	4	6
7	7	7
59	60	1
58	58	17
3	13	7
8	8	7
36	36	18
47	47	26
0	24	2
45	46	9
48	48	16
34	34	17
35	36	5
29	51	1
53	53	8
35	35	20
18	19	4
13	13	10
34	35	6
9	60	4
21	56	4
31	39	3
5	7	1
14	16	3
18	29	2
22	22	9
2	11	3
23	23	12
57	60	6
25	25	13
4	12	6
6	6	13
50	52	2
1	3	10
30	44	1
31	31	11
37	37	14
20	58	7
49	50	5
38	58	1
51	53	2
30	43	6
38	38	23
23	39	2
43	43	32
3	3	3
33	33	19
24	50	1
62	62	5
2	24	3
46	46	5
29	29	3
13	24	3
40	41	1
1	1	17
42	42	9
20	53	3
40	58	12
49	52	4
0	2	2
0	0	23
54	56	3
45	45	17
16	16	13
32	43	1
31	32	7
19	20	1
22	58	2
49	49	7
1	2	1
39	39	7
54	60	2
54	54	8
17	17	15
12	13	2
56	56	7
22	54	4
36	37	2
57	57	7
0	62	1
52	53	3
25	26	2
21	21	10
5	9	1
39	58	1
11	11	6
40	42	2
55	56	11
25	40	1
2	7	1
17	20	3
6	7	1
22	53	3
37	59	1
49	61	2
31	42	2
23	25	1
19	19	4
20	20	6
14	30	2
20	21	6
17	19	2
2	5	3
32	33	4
51	55	1
14	15	3
19	21	3
34	36	5
23	38	4
9	25	2
37	39	4
56	57	1
36	55	3
58	60	1
30	31	1
10	11	6
17	43	1
16	19	5
22	23	1
18	40	2
23	24	2
0	55	1
59	59	7
60	61	3
7	51	3
53	59	3
24	24	5
44	60	2
32	34	1
8	11	5
21	49	1
2	22	1
6	9	2
44	44	9
0	7	1
34	58	1
14	22	2
15	19	1
45	55	1
36	40	1
17	30	2
31	44	1
37	44	1
18	41	1
45	58	1
50	51	1
39	45	1
30	36	2
55	59	1
19	29	1
2	50	1
25	52	1
12	12	1
