48	49	5
77	77	17
194	195	6
198	201	3
73	74	4
82	82	12
155	155	10
71	72	7
174	174	6
75	75	14
4	34	4
159	159	5
11	75	5
11	11	13
28	28	6
88	88	3
225	225	16
34	34	1
17	18	2
36	36	5
196	205	4
115	116	4
19	19	6
237	237	9
242	242	5
98	98	5
126	127	1
223	223	1
183	183	9
139	139	6
144	198	4
2	5	3
35	35	2
167	188	4
134	134	5
37	38	5
120	120	4
233	233	18
156	219	2
24	24	10
200	200	18
17	22	2
74	74	7
150	151	2
42	42	8
206	208	1
198	198	9
78	78	8
118	188	1
55	55	3
220	221	5
77	107	5
15	15	7
12	14	3
217	230	1
221	222	5
182	182	8
66	69	3
57	57	5
23	23	6
76	76	6
160	160	5
199	199	2
210	210	8
121	121	5
65	79	2
201	201	11
95	95	5
198	199	2
216	221	4
63	63	4
171	171	7
229	229	6
52	52	8
167	170	3
131	199	2
145	145	7
148	148	11
67	80	3
193	196	4
211	212	8
73	73	6
21	21	5
66	67	8
226	226	11
53	53	15
154	154	10
208	208	9
144	144	3
220	220	7
99	100	1
105	105	8
2	2	12
16	53	6
127	143	1
29	78	3
117	118	4
49	49	14
222	223	8
37	58	1
153	213	4
136	136	8
144	197	1
137	138	4
43	43	15
45	45	1
234	235	5
151	239	3
214	215	3
121	122	3
119	227	5
59	63	2
196	196	10
46	47	3
33	33	7
71	71	15
72	72	4
122	141	2
150	150	3
182	203	3
149	149	8
153	154	6
21	33	4
144	145	3
9	10	1
85	85	7
136	140	1
162	163	3
221	223	3
3	3	2
184	186	3
9	9	6
168	189	3
185	185	6
36	37	3
9	61	5
111	113	1
1	111	4
187	187	6
116	116	8
111	111	7
14	15	3
227	227	8
44	86	1
124	125	5
221	221	11
203	204	10
215	215	3
142	142	9
8	36	2
66	66	8
128	128	9
115	225	1
29	79	3
109	127	1
102	104	3
166	167	2
148	196	5
86	86	4
67	67	3
240	240	8
158	159	12
20	42	1
24	55	4
28	29	2
4	7	2
212	212	6
83	133	4
6	6	12
32	63	1
12	22	8
107	107	9
169	169	8
96	96	2
211	213	3
106	125	5
236	236	4
54	54	4
233	234	1
121	199	2
219	219	2
162	162	9
108	124	3
42	57	3
218	218	5
190	191	1
81	81	4
100	100	9
56	56	5
133	134	1
52	55	3
238	238	1
43	63	3
147	147	4
80	84	4
176	176	4
181	181	7
80	81	2
166	166	2
136	141	8
157	157	9
52	79	5
139	142	2
12	23	2
158	162	5
106	106	1
163	164	3
172	172	11
60	62	1
12	12	3
38	38	4
189	194	3
186	186	2
231	231	6
3	4	1
46	49	1
24	25	1
228	231	9
186	187	4
97	168	3
230	231	5
108	108	4
216	216	1
197	197	6
1	53	1
207	219	3
64	64	6
46	46	11
48	48	6
145	191	1
23	60	1
199	200	3
154	207	2
103	103	5
70	70	10
197	199	4
230	230	8
189	189	5
72	73	1
52	53	4
137	142	4
122	122	4
70	74	1
119	119	5
1	106	1
139	197	3
129	130	2
8	8	1
156	157	2
214	214	3
125	125	3
116	117	2
118	119	7
133	133	6
50	50	6
114	172	1
51	51	12
173	175	4
41	117	4
29	75	4
152	153	9
177	177	3
9	73	2
69	69	6
83	83	11
178	178	4
187	188	6
138	139	3
115	115	4
66	68	3
223	224	3
44	49	1
138	138	4
98	101	1
135	135	7
1	29	1
153	156	2
213	213	3
98	99	4
122	123	1
71	179	2
238	239	1
179	180	2
26	44	1
32	32	3
217	218	5
143	143	3
129	129	4
20	21	7
31	31	4
126	126	3
44	44	6
22	23	2
18	19	3
165	166	3
216	222	2
122	130	2
168	168	5
64	72	2
235	235	7
52	77	2
104	104	8
70	71	3
37	40	2
17	17	2
209	209	3
7	162	5
123	134	2
1	12	1
137	195	2
5	6	1
6	9	2
240	241	3
75	76	4
143	180	2
121	179	2
20	20	5
194	194	3
58	58	2
113	113	1
62	62	4
33	36	3
30	30	4
149	150	4
127	181	1
241	241	4
97	97	2
155	157	2
174	175	1
22	22	2
173	173	7
75	159	3
202	203	2
39	39	5
162	209	4
177	178	1
215	216	4
148	149	4
127	127	5
39	114	3
189	191	2
190	193	4
184	184	4
18	89	1
77	79	3
5	9	2
57	82	4
79	109	2
30	32	2
60	60	5
56	57	3
119	122	2
80	80	2
153	153	5
120	121	5
23	58	3
239	239	5
41	46	1
141	141	5
45	47	2
157	158	2
152	159	2
75	158	1
6	35	1
140	140	3
7	15	3
23	26	4
10	10	8
139	201	3
206	206	2
80	83	4
146	146	6
59	60	4
175	175	6
102	102	4
196	201	1
239	240	1
166	168	3
181	234	1
218	233	1
145	149	2
79	79	5
83	84	3
4	30	1
114	114	3
131	131	1
12	18	2
151	152	3
211	211	1
16	16	2
179	181	2
121	178	1
54	55	3
64	65	4
57	60	1
124	124	4
119	120	1
154	155	3
188	188	5
56	60	1
27	61	2
106	107	2
207	207	4
59	59	5
11	12	1
158	158	3
0	1	4
55	56	1
15	16	2
224	224	6
152	152	3
30	76	1
61	61	2
151	203	2
10	29	1
14	14	4
34	88	3
13	15	3
110	110	2
151	202	2
167	167	4
37	37	1
26	26	2
33	34	1
170	170	2
16	23	3
164	164	5
123	123	7
29	29	2
49	50	2
4	8	1
155	156	1
228	230	1
9	189	1
212	213	3
191	191	6
119	184	2
30	54	2
194	196	1
38	40	2
12	13	1
65	65	4
101	101	2
183	235	2
194	205	3
44	45	1
186	193	4
35	57	1
39	40	1
40	40	5
99	108	1
185	238	2
184	185	2
0	0	3
12	15	1
203	203	2
223	238	1
22	53	1
230	232	3
48	95	2
150	182	1
41	41	2
21	23	1
232	232	1
113	171	2
41	42	1
117	117	2
172	175	1
74	173	2
46	55	1
72	174	2
82	83	2
44	63	1
161	161	1
211	214	1
165	208	1
232	233	1
236	237	2
49	51	2
144	147	3
132	143	1
148	197	3
44	100	2
242	243	2
172	228	3
130	130	2
184	195	3
204	211	3
106	167	1
219	240	1
172	174	1
202	202	2
79	81	1
47	47	1
175	176	1
189	190	6
27	27	2
207	208	1
142	199	1
176	177	2
179	179	1
26	32	1
192	202	1
143	197	2
222	222	3
109	121	1
1	1	2
50	150	1
133	140	2
226	227	1
216	220	2
121	180	1
101	107	2
189	239	1
21	22	1
5	5	2
81	82	1
49	224	2
235	236	2
115	117	1
151	153	3
135	136	1
118	118	2
195	195	2
13	14	1
192	192	2
44	174	1
13	13	2
99	99	2
127	128	4
167	191	2
134	135	1
213	214	1
50	51	2
151	151	1
173	174	2
218	231	2
212	232	1
19	34	2
126	175	1
234	234	1
24	58	2
27	28	1
214	218	1
156	156	1
107	108	2
180	180	2
30	31	3
11	30	1
229	230	3
182	183	1
43	45	1
71	73	1
16	17	1
209	211	1
58	59	3
147	149	2
145	146	2
217	217	2
4	112	1
145	232	3
159	160	1
89	89	1
100	101	2
135	142	1
231	233	1
215	217	1
196	197	1
0	29	2
2	3	1
51	53	1
211	229	1
137	137	2
77	84	1
0	11	1
228	232	1
31	77	3
206	207	1
142	226	2
133	142	2
3	31	1
79	111	1
223	226	1
190	195	1
165	167	1
12	17	1
78	79	1
84	84	1
12	32	1
7	7	1
14	19	1
16	19	1
228	228	1
233	240	1
0	106	1
204	204	2
54	56	1
52	67	1
138	140	1
30	69	1
125	126	1
