52	88	1
31	32	6
35	44	6
115	117	4
102	102	9
153	180	1
104	104	1
152	167	2
44	66	2
5	5	9
154	154	3
30	30	10
65	65	12
29	64	5
89	127	4
82	128	5
113	113	4
138	138	13
42	72	2
137	140	7
40	40	10
167	167	3
100	101	6
10	10	5
161	161	11
109	109	4
24	24	8
150	150	16
75	75	17
68	82	4
99	99	8
45	75	3
17	17	10
122	124	2
169	169	10
155	155	17
100	100	7
3	5	7
15	18	2
161	162	7
25	26	1
116	116	2
55	96	5
108	109	3
143	145	3
33	68	4
74	75	4
52	52	3
147	147	12
8	8	13
108	108	6
145	145	10
89	91	1
2	41	1
110	115	1
132	132	11
146	146	10
55	56	4
168	168	8
84	92	1
94	99	2
7	20	1
12	44	3
14	15	7
145	153	1
93	139	4
75	82	8
14	14	6
157	157	3
6	6	10
82	82	5
162	165	5
4	4	3
71	71	5
171	171	20
26	26	11
44	44	10
31	31	9
93	93	10
111	115	3
2	31	5
101	101	10
99	103	1
149	149	12
56	56	13
51	51	8
107	107	4
165	165	3
108	113	3
2	32	2
136	136	12
76	76	4
106	106	1
108	120	4
141	141	4
111	111	4
123	124	3
115	119	3
130	130	5
118	118	2
22	22	4
72	84	5
72	72	3
154	167	5
89	89	6
115	115	8
24	26	3
59	59	8
58	61	3
154	174	3
1	1	10
66	66	18
88	88	3
19	26	3
52	75	2
45	62	3
18	18	3
164	166	1
16	18	4
144	144	7
120	120	14
0	33	2
54	54	16
37	40	2
115	116	5
110	111	5
92	92	4
170	172	1
78	78	3
84	84	2
7	10	3
144	154	1
125	125	12
90	90	11
38	44	2
152	169	2
97	98	3
64	82	3
28	28	5
72	132	8
81	82	2
169	178	2
77	77	7
32	32	5
66	67	1
74	82	1
42	42	4
148	152	4
87	87	5
129	135	2
103	103	5
98	143	6
135	135	8
126	126	3
120	155	1
126	127	2
122	173	2
36	36	8
18	74	3
132	133	4
127	128	1
6	23	3
44	45	5
143	143	4
142	143	1
9	25	3
175	175	4
54	60	3
39	43	1
22	39	2
105	105	10
103	140	2
123	123	13
41	41	11
60	60	6
153	153	11
73	73	3
41	71	2
149	174	2
178	178	9
7	7	8
131	134	5
111	113	6
32	49	3
38	38	9
61	61	13
55	55	14
62	65	2
52	80	4
29	31	2
95	95	6
157	178	6
13	13	7
128	128	2
79	80	1
24	27	1
105	106	2
99	154	3
39	39	5
75	84	1
91	93	3
17	18	2
170	173	2
138	157	3
80	132	2
73	74	1
176	176	10
63	63	4
151	163	2
26	27	1
156	178	4
152	175	4
79	79	12
141	146	3
166	169	2
50	51	8
100	146	1
81	81	8
127	127	4
158	165	2
172	174	1
52	81	3
136	137	3
71	72	3
3	10	2
75	76	4
133	147	1
170	171	2
85	85	3
169	179	4
135	136	2
6	17	4
101	104	3
27	27	4
173	173	2
110	110	14
20	29	6
179	179	10
21	21	7
33	67	2
100	133	3
90	105	3
53	53	5
140	152	3
148	160	1
99	100	1
138	154	3
148	162	1
159	171	2
8	13	5
102	103	4
86	107	1
7	27	2
159	163	2
85	94	1
101	130	1
3	19	2
3	3	4
121	142	2
174	174	4
163	165	2
43	43	9
161	163	4
29	29	6
86	124	4
86	86	3
106	158	6
23	23	6
148	163	4
107	125	3
148	170	5
139	139	8
111	112	6
25	25	2
165	166	2
158	160	2
73	117	3
129	131	3
175	176	3
154	156	1
158	162	2
133	133	7
88	129	2
140	140	6
64	65	7
50	50	3
162	162	1
132	139	1
137	145	1
121	122	2
149	150	2
84	85	3
139	179	2
66	73	2
94	94	6
152	152	2
33	39	3
3	6	1
4	22	4
67	72	2
151	151	6
64	86	2
81	132	4
91	92	2
96	98	4
96	133	1
124	124	8
58	58	12
106	155	2
122	122	6
25	28	2
24	25	4
64	64	4
118	120	7
145	148	2
88	92	2
149	177	3
114	130	1
30	33	1
33	34	3
1	22	1
155	156	3
14	36	3
112	112	9
67	67	4
58	59	1
68	68	3
54	81	2
0	5	3
2	4	2
27	42	1
45	65	2
18	21	1
50	53	1
138	173	1
42	44	2
42	43	1
35	35	5
13	18	3
72	78	1
54	87	4
137	137	2
130	152	2
109	110	1
10	23	2
80	83	2
170	170	16
39	42	1
108	114	1
126	132	1
14	32	2
97	97	3
177	179	2
7	8	1
28	32	1
1	9	1
97	126	3
18	19	1
25	30	2
148	148	4
143	144	1
85	92	2
178	180	3
9	9	6
39	58	2
160	161	3
159	159	3
2	2	3
52	53	5
96	96	4
163	163	6
91	91	2
53	54	1
78	119	1
137	165	1
26	42	2
74	74	3
161	169	1
130	178	2
63	100	1
3	17	1
33	42	1
29	40	2
27	28	1
124	125	1
166	168	2
105	150	1
34	38	1
103	105	1
142	142	4
2	50	1
77	78	5
9	10	5
156	156	4
11	15	2
43	70	1
33	33	1
22	23	2
130	163	1
5	23	1
148	169	2
158	159	2
20	20	2
168	177	1
61	102	2
103	125	1
1	2	1
39	41	1
159	170	3
154	178	2
55	113	2
10	11	3
73	80	1
166	167	1
83	109	1
88	109	2
139	140	4
37	38	3
110	132	1
39	44	3
128	129	3
60	61	2
8	9	1
119	119	7
87	90	1
114	114	3
52	74	2
17	33	2
166	175	1
121	121	1
172	172	4
132	135	1
136	155	2
134	134	2
107	134	3
145	151	1
146	147	1
83	84	2
85	130	3
54	56	1
4	14	1
56	80	2
121	140	1
133	134	2
15	15	6
81	83	3
166	166	3
104	105	1
92	127	2
120	121	2
7	25	1
7	13	1
164	165	4
51	72	2
96	107	1
158	158	4
52	113	2
0	0	3
41	42	2
150	151	2
67	82	2
12	14	1
0	32	1
40	42	1
98	142	2
107	136	1
173	174	1
28	33	1
95	130	1
158	167	2
102	109	1
167	176	2
157	161	1
14	17	1
81	92	1
71	104	2
51	66	2
74	106	2
15	44	2
126	135	1
2	6	1
98	134	2
45	45	2
97	146	1
43	141	2
131	131	1
9	23	3
43	92	1
54	83	1
140	141	2
34	34	1
11	17	1
11	14	2
71	86	1
82	124	2
19	19	1
95	119	1
98	141	2
160	162	1
144	145	1
25	39	1
32	45	1
30	41	2
171	172	1
12	12	2
124	138	2
33	36	1
80	80	3
90	92	1
152	153	1
24	30	1
49	50	1
174	176	1
16	75	1
41	78	2
83	83	1
55	93	1
38	39	1
64	66	1
103	108	1
32	40	1
5	9	3
142	144	3
111	132	1
51	65	1
76	78	1
8	11	1
42	67	1
142	176	1
44	71	2
52	57	1
65	67	1
143	147	1
51	61	1
49	66	1
3	4	1
101	102	1
145	147	1
85	91	1
33	38	1
18	22	1
82	84	1
176	177	1
174	175	1
148	153	1
33	44	1
129	129	1
35	42	1
11	11	1
154	169	1
71	83	1
