43	43	2
139	139	9
59	59	6
131	131	13
135	136	12
2	3	5
64	64	4
61	61	9
33	33	3
109	110	2
49	49	6
99	103	9
68	69	6
6	6	7
126	128	5
132	132	13
114	116	4
15	15	6
81	81	7
138	138	6
4	4	12
58	58	17
69	72	4
77	77	11
97	98	2
78	81	1
118	118	8
33	35	4
86	86	6
141	141	16
72	72	10
1	1	2
143	143	5
32	32	14
34	36	3
113	113	9
83	83	6
1	2	9
62	62	3
20	32	9
61	71	2
19	20	4
62	77	2
11	131	5
62	67	8
67	67	2
35	35	7
50	51	4
118	131	1
108	140	2
10	10	10
53	88	2
125	125	11
16	52	1
11	125	2
98	98	9
105	111	3
60	60	8
74	74	15
23	23	10
43	49	1
128	128	5
37	37	10
107	114	3
26	27	5
8	82	2
9	131	5
117	118	1
0	0	17
83	86	2
21	21	10
140	140	2
107	135	2
16	124	4
25	25	9
18	18	11
78	78	2
53	53	8
51	52	6
137	137	3
89	89	5
84	84	5
31	31	5
14	15	3
74	88	1
29	29	7
54	54	5
16	16	11
105	136	5
91	91	9
112	112	8
102	102	3
56	56	7
28	41	4
126	126	4
27	27	5
93	94	4
130	131	2
136	137	4
89	90	8
142	142	7
17	17	10
111	111	3
38	39	3
38	38	10
99	100	5
50	59	2
9	9	6
57	57	3
30	30	9
1	120	3
57	110	2
13	132	6
77	118	3
9	18	4
13	13	18
96	96	6
119	119	6
79	79	5
103	103	7
106	106	6
122	123	3
4	123	1
30	48	5
50	52	2
29	30	1
134	134	20
146	146	8
116	121	1
107	108	1
130	132	1
86	87	4
21	86	3
66	66	9
92	94	4
121	121	2
120	121	9
2	6	2
60	78	2
22	47	4
118	119	8
13	106	5
135	135	4
58	68	3
134	140	3
113	114	6
4	31	2
30	35	5
115	116	1
35	36	4
34	34	10
90	90	4
36	36	3
119	120	3
110	110	2
9	121	4
25	30	3
50	50	9
2	2	7
79	93	1
15	16	3
80	80	3
17	18	3
12	134	1
93	93	4
4	6	2
133	133	8
34	35	8
63	63	4
94	98	2
104	105	6
22	82	3
114	115	5
108	112	1
100	142	2
58	72	2
107	133	5
108	139	4
29	31	2
41	41	5
87	87	2
28	28	5
2	4	4
116	120	6
139	140	3
24	24	5
15	78	2
59	60	4
107	107	9
100	100	4
3	3	4
19	19	5
74	109	2
136	136	7
142	143	4
11	37	2
65	71	6
32	36	2
11	12	3
99	99	4
64	66	3
133	135	2
95	145	1
111	130	2
6	35	1
1	15	4
101	102	1
33	34	17
26	26	2
65	65	4
101	101	6
5	5	4
71	71	3
101	134	1
93	101	4
82	108	2
55	55	1
62	63	3
31	33	2
57	58	3
56	57	2
25	33	4
18	20	2
97	97	3
62	95	2
49	80	2
40	41	4
79	106	4
2	48	1
20	20	4
57	137	1
68	70	2
14	14	3
76	76	3
34	53	1
66	67	2
54	72	3
134	142	2
2	15	3
80	81	5
132	135	2
39	39	4
129	129	9
79	80	2
25	35	1
134	141	1
122	124	3
143	144	3
140	141	4
117	127	1
109	109	9
5	19	2
22	22	8
121	144	3
42	42	2
128	129	2
88	89	2
95	98	1
130	130	3
5	123	2
69	70	4
55	104	2
25	58	1
48	48	9
75	75	2
49	50	1
106	108	1
66	81	3
131	133	7
104	139	2
82	86	1
3	82	1
145	145	2
104	113	1
104	104	3
75	76	2
118	120	2
9	123	1
111	117	4
104	137	3
116	117	3
27	28	2
28	30	1
9	35	1
16	133	1
102	134	2
57	104	1
95	95	1
122	122	3
104	141	1
100	144	2
80	82	1
0	42	1
102	142	2
4	33	2
102	103	2
123	123	7
5	18	1
121	123	1
47	48	1
64	106	1
14	122	1
82	82	2
97	100	2
48	124	1
47	47	7
65	68	3
51	106	2
58	59	7
123	136	2
105	105	5
0	1	1
142	146	1
55	56	3
43	50	3
113	132	1
40	40	3
55	88	1
56	73	1
48	62	1
9	32	1
51	57	3
23	84	2
13	81	1
88	90	2
97	116	1
111	114	1
33	36	2
8	8	4
88	88	3
64	65	1
129	134	1
77	140	1
1	4	2
115	115	3
20	21	2
71	72	3
29	82	1
32	34	1
110	112	2
26	30	1
115	118	5
58	60	1
138	139	1
12	137	1
110	113	2
48	78	1
79	94	1
119	128	2
119	123	1
37	38	3
79	87	2
3	48	1
21	22	3
19	21	1
3	4	1
141	142	2
27	40	1
70	70	2
113	115	3
114	114	3
28	38	1
69	71	3
113	116	2
69	69	1
108	108	3
59	101	1
82	138	1
70	72	1
11	11	2
49	118	1
65	66	1
63	77	1
112	113	2
48	63	1
52	52	3
56	60	1
14	24	1
51	59	1
71	82	1
1	8	1
98	99	1
87	90	1
64	82	2
31	32	1
108	141	2
91	92	1
10	23	2
79	81	1
23	37	1
120	123	2
127	131	1
59	72	2
15	19	1
77	78	1
126	129	1
52	53	1
9	19	1
111	113	2
4	14	2
131	132	1
54	57	2
39	40	1
118	130	2
127	128	1
133	134	2
8	22	1
13	31	1
28	77	1
115	129	1
53	59	1
74	91	1
82	98	2
6	9	1
57	88	1
116	137	1
126	127	1
51	58	1
22	33	1
93	100	1
25	26	1
