0	0	3
10	10	6
34	34	20
109	110	2
106	106	15
78	120	8
115	115	23
74	116	2
83	84	7
94	94	18
31	32	10
27	27	15
129	129	6
101	101	8
3	4	3
133	133	7
34	37	3
37	37	7
88	88	10
4	4	23
102	116	2
128	128	16
13	19	1
79	94	2
29	29	16
123	123	22
28	29	4
116	116	23
92	93	2
136	136	4
96	96	14
74	74	12
135	135	10
13	13	5
26	26	6
20	20	12
85	85	12
122	122	7
89	89	13
117	117	7
120	121	5
108	115	4
126	126	15
134	134	16
16	16	12
81	83	1
33	34	7
130	130	12
76	76	12
76	78	8
89	90	3
3	3	11
122	123	4
37	38	3
119	119	2
20	21	6
17	27	1
12	12	8
31	31	7
18	18	25
21	21	12
105	105	5
101	120	4
7	7	17
102	103	2
119	122	3
71	91	7
125	125	5
75	75	18
102	102	14
2	3	2
100	120	4
18	19	11
114	114	14
102	107	3
91	91	2
139	139	9
5	5	11
109	109	10
132	132	5
107	107	14
15	15	7
99	100	3
93	93	7
127	127	19
8	8	19
79	79	1
128	129	6
35	35	12
14	22	3
108	108	13
100	100	10
96	119	7
113	113	16
30	31	3
97	97	17
11	11	12
82	82	11
22	22	17
27	30	3
73	73	19
25	25	16
17	18	9
75	82	4
7	20	2
2	14	4
99	99	10
124	124	10
26	33	2
28	28	18
14	14	18
83	83	12
72	72	6
19	19	9
29	30	3
17	17	7
98	98	11
15	17	6
38	38	19
129	130	8
138	138	6
72	73	4
10	11	2
71	71	19
7	8	1
78	78	7
86	86	8
95	95	4
90	90	5
124	125	3
117	119	4
100	116	2
0	4	5
27	28	8
109	117	3
80	80	5
90	93	5
7	15	4
36	36	12
18	26	3
25	26	1
92	92	14
77	77	3
103	103	5
83	102	2
113	115	4
6	6	9
123	124	8
26	29	3
111	112	7
32	72	3
32	32	12
81	81	10
125	126	3
131	131	9
28	31	3
1	1	5
87	90	2
112	112	7
75	76	7
24	25	1
118	118	1
84	84	5
127	129	4
96	116	2
107	108	6
73	131	1
124	131	3
2	2	3
108	109	8
18	27	2
87	87	12
5	8	3
88	103	1
11	12	4
134	135	8
105	121	4
83	85	1
118	119	6
102	120	2
110	111	4
9	9	5
24	24	7
0	5	5
73	130	2
110	110	4
92	95	2
104	105	3
30	30	9
10	14	2
118	123	5
127	128	1
86	88	1
132	133	3
98	99	4
85	87	2
90	91	1
137	138	4
101	102	2
97	98	8
72	123	2
85	86	3
36	37	2
10	12	4
96	97	2
13	22	1
33	125	1
139	140	3
37	125	1
134	136	1
71	72	4
24	109	4
19	25	3
29	31	4
34	123	2
137	137	2
107	123	4
101	117	2
81	82	2
107	116	2
113	114	3
101	118	1
98	100	1
80	81	2
104	106	2
15	21	6
90	101	1
0	1	5
33	33	2
116	123	1
88	89	1
103	104	1
73	123	1
124	130	1
119	120	1
100	101	1
116	117	1
74	76	1
117	118	2
140	140	2
118	121	2
95	96	1
37	126	1
101	116	2
100	121	3
68	72	3
111	114	2
95	123	1
111	111	2
73	74	1
22	23	1
104	104	4
17	19	4
17	29	1
74	77	2
34	125	3
16	18	1
76	77	2
135	136	2
36	38	1
80	93	2
84	93	1
107	109	1
19	20	1
91	93	1
80	82	1
13	15	1
0	15	1
84	87	1
109	116	1
93	122	1
4	5	1
80	87	1
115	116	1
29	32	1
78	79	1
23	24	1
34	35	1
80	123	1
121	122	1
99	118	1
