45	45	12
77	77	3
76	94	4
86	86	4
99	99	7
20	20	10
105	106	2
30	30	9
72	73	4
101	104	2
104	104	2
106	106	3
64	64	4
117	118	3
60	60	6
24	25	4
65	65	9
111	111	7
113	113	9
113	114	1
96	96	2
35	41	2
22	25	2
97	97	4
79	79	5
31	31	5
124	124	6
1	1	5
82	82	2
115	115	3
13	14	7
95	97	4
83	84	6
90	90	3
80	89	2
109	109	7
46	46	4
18	118	4
91	91	4
33	33	11
81	82	4
81	81	8
123	123	7
42	104	1
133	133	1
129	131	9
88	101	5
63	63	11
61	61	11
83	85	1
94	94	4
73	73	7
74	86	9
98	99	1
124	125	2
3	34	5
1	2	2
132	133	4
14	14	5
14	126	2
9	9	12
78	78	7
43	50	3
7	7	2
26	26	8
3	3	3
85	86	4
15	16	3
128	128	4
79	80	5
16	16	3
12	12	6
74	74	17
131	131	3
36	36	5
10	10	3
37	37	6
15	122	2
34	34	16
6	6	6
126	126	5
18	18	16
119	119	4
71	71	3
87	87	9
5	11	1
88	99	2
39	39	7
101	102	5
105	107	2
37	38	3
9	10	9
3	4	2
77	78	5
54	54	4
76	76	5
64	65	4
93	93	3
88	100	3
116	116	2
127	127	5
86	101	6
114	114	2
114	116	2
45	46	1
41	41	2
130	130	3
129	130	1
105	105	8
134	134	3
44	44	5
35	39	2
84	100	6
43	43	4
84	85	4
56	56	9
35	35	8
41	43	2
23	24	8
103	103	1
44	61	2
71	72	5
34	47	1
112	112	5
83	93	2
122	122	4
21	21	5
55	55	4
15	127	1
48	48	3
25	25	7
0	0	3
47	60	3
40	40	5
110	111	3
102	102	4
17	17	3
22	26	4
72	72	6
101	101	5
19	19	4
29	41	1
70	75	6
35	36	3
118	118	5
47	47	6
23	23	3
74	84	1
80	82	3
31	32	1
28	28	2
41	42	1
66	66	4
125	125	3
89	89	1
49	49	2
85	85	4
98	98	3
58	58	3
11	11	4
57	57	5
82	90	4
68	69	2
99	101	5
29	29	4
121	121	2
126	127	4
77	80	1
15	23	2
42	43	1
38	48	3
54	55	1
49	60	1
87	88	1
73	74	6
26	27	1
55	56	2
39	41	3
104	107	1
4	26	2
14	17	1
86	102	1
122	123	3
35	47	2
70	70	4
42	42	6
17	120	1
112	131	4
48	49	1
59	59	3
45	62	3
11	24	2
64	66	2
34	41	1
27	27	3
15	121	3
14	120	2
19	20	1
4	4	4
36	40	1
111	131	1
11	12	1
56	58	1
130	131	1
3	11	6
121	122	2
112	130	2
88	88	1
69	69	4
125	130	3
84	84	4
76	77	2
115	116	1
132	132	4
85	87	2
2	7	1
69	70	2
5	5	4
104	109	1
15	126	2
116	117	1
20	107	1
17	118	1
39	48	2
75	76	2
80	80	3
110	110	3
27	40	1
62	62	5
128	129	3
43	103	1
44	45	3
0	10	1
22	22	2
8	9	1
42	105	1
4	6	2
15	21	3
83	83	2
107	107	1
43	45	1
109	111	2
40	47	1
74	75	1
21	22	1
28	29	1
2	2	2
124	131	1
18	128	1
75	75	1
8	8	1
15	15	2
108	108	1
35	40	1
109	128	2
133	134	1
104	110	1
66	67	3
38	38	3
112	132	1
95	95	1
7	10	2
117	117	1
13	13	1
87	112	1
72	92	1
101	110	1
