81	81	12
111	143	1
144	144	6
137	139	3
48	48	5
124	125	1
54	80	3
28	32	7
104	105	3
25	40	11
135	135	10
74	75	3
131	139	1
119	143	1
58	61	5
10	10	9
21	22	5
57	57	3
105	122	6
1	14	4
71	72	10
117	118	5
96	96	10
79	81	2
103	103	2
54	56	2
69	70	4
125	125	4
52	52	3
62	63	2
101	101	10
87	87	3
13	31	4
120	121	4
54	54	13
78	108	5
0	0	2
120	120	4
31	31	7
142	143	5
100	100	3
29	29	3
53	53	12
53	85	1
139	140	10
58	58	3
120	126	2
116	116	3
51	55	1
15	15	1
9	9	2
136	140	6
98	98	7
69	69	3
1	3	5
101	103	3
127	130	2
78	83	7
30	30	5
119	119	2
90	109	3
74	74	1
38	39	2
130	130	4
115	115	2
101	114	2
113	113	4
8	8	6
59	59	7
49	50	6
121	122	3
118	118	10
98	140	3
64	64	8
5	5	1
124	129	1
61	61	4
103	106	1
13	115	3
107	137	4
121	121	5
55	55	4
57	60	1
79	83	2
77	101	1
40	40	6
96	141	4
72	73	2
24	32	3
9	20	1
62	81	5
22	28	1
139	139	3
65	85	3
49	70	6
19	36	2
93	94	1
131	131	4
92	93	4
38	38	3
10	32	5
9	13	1
134	134	3
4	20	4
75	75	4
60	60	5
5	14	2
71	71	7
135	136	3
41	41	2
126	127	1
140	141	2
93	93	4
37	37	5
96	119	1
28	37	1
55	56	3
1	1	1
62	62	3
102	103	5
80	80	3
23	23	2
124	124	2
54	67	3
71	89	3
86	89	2
28	29	2
50	77	1
132	132	4
15	16	1
111	129	1
145	145	1
106	141	1
19	19	5
112	120	1
26	28	1
79	86	3
110	111	7
72	72	6
76	99	3
107	107	3
17	17	3
76	87	1
105	127	1
73	73	7
31	35	2
85	92	4
144	145	4
83	85	2
114	115	1
49	60	1
59	82	3
28	28	5
88	88	2
65	65	3
95	95	4
123	123	6
82	82	1
49	55	1
95	119	1
64	108	3
85	85	2
68	91	4
126	126	9
125	133	6
129	135	4
78	98	5
22	22	3
132	137	2
43	43	1
94	94	3
63	93	1
116	119	2
142	142	5
79	80	1
98	121	1
87	98	1
42	42	6
53	55	1
107	134	1
2	2	2
111	133	1
135	139	1
89	94	6
61	67	1
33	39	2
1	2	1
0	1	2
88	89	1
33	33	4
65	96	1
26	42	2
122	123	2
50	84	4
20	20	3
34	34	2
8	21	3
92	92	6
112	140	2
113	119	1
102	102	2
84	89	3
53	75	2
26	41	1
91	91	1
113	117	3
16	36	5
57	83	1
51	51	3
86	95	2
87	92	3
128	128	1
146	146	1
3	3	1
133	133	2
14	14	2
113	128	1
64	103	3
129	129	3
21	21	2
0	10	1
78	91	2
33	79	4
49	49	6
26	26	3
102	139	1
84	84	3
123	140	1
52	70	1
105	105	1
98	117	3
18	18	1
128	137	3
70	70	2
31	32	2
111	141	1
8	30	2
138	138	5
83	83	1
53	72	2
97	97	1
12	12	2
120	125	1
33	72	1
47	47	2
137	137	2
69	90	1
77	78	1
111	111	2
117	131	1
11	11	3
36	36	1
90	90	1
34	41	1
35	35	4
64	88	1
112	112	1
37	56	2
142	144	1
87	100	2
77	77	2
76	76	3
76	85	1
11	31	1
136	136	1
89	89	1
22	23	3
51	73	3
60	61	3
14	24	2
77	104	2
65	93	2
40	41	1
0	34	1
68	68	2
141	144	1
87	91	3
4	4	2
3	12	2
88	94	2
86	86	3
38	54	2
13	13	1
25	25	1
84	106	1
106	106	1
63	88	1
16	16	3
56	60	1
64	78	1
118	120	2
50	53	1
127	132	2
64	65	2
144	146	1
4	21	1
141	141	1
24	24	1
126	132	1
32	32	3
26	31	1
27	27	2
124	127	2
130	131	1
8	11	1
140	140	1
5	6	1
51	52	1
11	14	1
67	67	1
49	61	2
84	87	2
69	96	1
59	65	1
85	89	1
99	99	1
33	47	1
104	104	1
25	36	1
47	48	1
125	134	1
4	23	1
37	39	1
126	136	1
107	109	1
12	13	1
90	98	1
128	140	1
