54	96	3
54	54	8
62	63	2
81	81	3
127	127	7
74	75	3
43	43	10
54	128	2
100	102	1
105	105	3
0	1	3
109	109	3
46	47	3
53	53	5
100	100	3
0	2	2
114	115	4
69	69	11
77	80	3
86	87	3
129	129	5
90	90	1
118	118	5
123	124	3
76	76	6
101	101	6
5	5	1
96	96	5
86	86	2
133	133	3
57	57	6
45	47	1
117	117	3
54	127	4
31	31	1
2	111	2
31	32	1
77	77	9
121	121	3
24	24	3
112	112	2
95	95	8
61	61	3
91	91	10
17	17	1
97	97	2
114	114	6
94	94	2
120	120	2
122	122	4
21	23	5
30	32	2
67	67	2
17	25	4
77	79	2
41	41	5
93	93	4
28	28	6
41	42	2
132	132	3
7	7	3
89	89	1
4	4	6
114	119	3
16	30	2
27	27	2
63	63	1
106	106	6
111	111	4
116	117	1
98	102	2
14	14	11
82	82	3
68	69	3
27	31	1
56	58	3
128	128	2
2	119	6
21	21	2
72	73	1
44	93	2
3	4	3
58	60	2
20	21	3
19	19	2
88	91	4
30	30	2
126	126	7
95	96	1
78	79	1
83	83	4
44	44	4
130	130	3
55	55	3
12	12	2
9	10	4
78	78	4
15	15	4
92	92	3
103	103	3
68	68	2
39	40	2
21	22	1
39	39	2
60	60	1
70	76	2
87	87	3
10	10	1
32	101	1
49	49	4
84	84	1
59	59	3
38	39	1
67	68	4
50	50	2
125	125	2
118	119	1
127	130	1
64	64	2
47	92	1
111	112	2
73	73	2
99	100	1
89	93	1
88	88	2
72	74	1
99	103	1
57	58	2
116	116	3
46	46	2
125	127	3
108	108	2
69	70	4
48	54	3
102	102	1
3	111	1
97	98	1
9	9	1
47	48	4
58	58	2
11	11	1
9	12	3
0	0	2
56	56	3
1	1	2
75	85	2
17	18	2
74	74	2
17	20	1
102	103	1
48	48	2
25	30	1
6	114	1
130	132	2
67	128	1
65	65	2
110	111	2
77	78	2
122	123	1
40	42	1
107	107	2
16	16	3
15	17	1
40	40	2
62	84	1
107	108	1
39	41	1
67	130	2
124	124	2
108	131	1
20	24	2
112	119	1
18	41	1
84	85	1
6	7	3
104	104	1
31	33	1
0	111	1
52	52	1
117	120	1
6	6	1
14	22	1
113	113	1
86	105	1
62	62	1
