170	170	4
10	14	2
11	145	3
163	163	16
15	15	11
88	88	10
161	161	3
94	105	1
86	86	10
86	146	2
114	114	11
66	66	10
8	8	10
103	104	5
76	76	18
19	25	6
85	85	16
96	96	4
13	13	3
55	55	21
101	102	5
163	164	7
46	46	8
107	117	4
91	94	1
125	125	22
42	42	14
120	120	8
21	21	9
5	123	3
94	95	7
159	159	1
150	170	5
139	152	5
89	89	4
147	147	3
130	131	6
63	64	1
74	74	3
118	125	5
1	1	9
102	102	3
43	43	13
18	18	10
81	82	4
0	2	4
158	158	9
166	166	9
153	154	10
149	150	9
139	142	4
75	75	7
137	137	12
76	78	1
140	140	8
39	39	7
27	28	3
100	100	5
115	116	4
9	10	4
5	6	2
127	127	18
90	104	7
151	151	3
94	94	4
27	27	3
21	22	5
16	16	10
150	150	12
113	113	10
142	142	7
51	51	4
83	84	3
116	116	6
137	143	2
20	21	1
122	122	10
84	84	9
99	99	1
35	35	4
22	22	12
2	2	6
162	162	12
53	53	13
39	94	2
79	79	9
74	75	2
78	78	2
104	105	1
112	158	2
109	109	6
128	128	4
15	16	3
98	98	4
67	67	8
70	77	2
111	111	10
139	150	1
36	36	10
37	37	11
110	110	5
153	153	23
125	127	4
114	115	3
90	90	23
33	33	6
128	129	4
84	86	5
135	136	1
41	52	2
16	18	6
9	9	18
25	95	1
108	108	15
107	107	10
81	81	1
4	4	6
24	26	10
144	146	4
77	104	4
48	48	12
38	39	3
91	93	2
104	104	2
3	82	7
75	76	4
120	148	4
141	142	1
107	110	1
89	99	6
11	11	9
112	112	12
87	88	8
155	155	12
13	64	1
129	129	4
14	14	8
129	130	2
132	132	7
52	53	1
41	41	8
2	97	4
17	17	16
133	133	9
126	126	13
90	106	3
93	119	2
5	124	2
148	148	6
136	136	9
22	23	2
3	3	13
39	51	2
38	38	7
91	91	1
166	170	2
66	67	1
34	34	16
91	92	3
28	42	1
157	157	8
135	135	11
108	115	1
3	5	3
98	124	1
146	146	8
45	45	5
101	104	5
100	132	2
100	102	6
1	2	3
121	121	3
144	144	12
136	138	5
71	71	13
147	159	2
124	125	4
97	97	4
164	164	9
159	164	1
154	154	4
10	10	3
126	127	8
5	5	10
149	155	2
35	36	3
70	72	3
6	10	5
27	41	1
133	134	2
34	67	1
94	101	3
113	134	1
78	79	2
46	47	1
25	26	7
56	56	6
123	123	7
82	83	2
87	87	8
0	0	9
110	151	4
143	160	1
106	121	2
139	139	4
68	68	6
7	105	3
44	45	5
88	90	1
155	157	2
135	145	3
64	65	6
168	168	7
33	37	2
6	104	2
124	124	8
117	118	5
62	63	2
55	64	3
0	1	1
131	131	7
156	156	7
70	70	9
152	152	4
52	52	4
26	165	3
142	143	6
119	120	5
49	49	6
6	7	2
50	52	1
19	66	2
41	42	6
88	89	1
12	51	1
54	54	3
119	119	7
58	61	1
85	145	1
86	87	4
11	12	2
91	103	1
5	7	7
103	103	3
101	101	8
50	50	12
57	57	6
149	149	6
89	90	3
14	15	4
96	154	3
13	22	4
42	44	6
111	133	6
25	25	6
24	25	5
118	118	4
72	73	7
82	82	9
1	15	2
106	106	13
117	117	4
22	24	2
96	125	1
77	77	7
126	137	4
23	23	3
17	18	2
141	141	7
142	160	1
53	56	2
6	6	3
4	8	2
140	142	3
130	130	10
39	40	6
98	99	4
7	8	1
69	70	3
136	137	2
110	152	3
96	97	5
140	141	3
7	7	1
12	12	4
83	83	6
85	146	3
50	51	1
55	161	5
92	93	5
121	122	1
14	18	4
109	111	4
122	123	2
23	48	2
10	52	3
147	148	1
84	85	4
148	160	1
152	153	2
5	125	2
55	56	7
146	147	2
22	47	1
79	129	4
162	163	1
108	109	2
114	116	8
132	145	2
71	73	1
73	73	2
19	19	1
3	138	2
138	140	3
20	36	4
54	56	1
51	52	2
95	96	1
118	123	3
13	20	1
143	143	2
155	156	3
102	103	3
95	95	2
16	17	2
74	76	2
121	149	2
1	81	2
6	94	1
53	54	5
19	20	3
33	38	1
20	20	3
26	26	5
62	62	5
6	90	3
115	115	1
166	167	2
100	113	1
80	80	4
105	105	10
13	14	3
74	126	1
7	104	1
2	3	1
79	80	3
64	64	2
134	134	3
63	74	2
48	49	2
67	68	1
83	94	3
165	165	3
24	24	2
68	72	3
13	51	1
145	147	2
159	163	4
66	69	2
19	23	1
113	114	2
154	158	2
158	159	2
18	19	1
91	98	1
110	111	2
58	62	1
97	98	1
76	82	2
143	144	1
93	93	2
2	15	3
153	169	1
88	99	2
114	131	3
47	49	1
56	162	4
4	5	3
143	147	3
12	13	3
142	159	2
148	149	2
112	135	1
40	40	4
160	160	1
105	109	1
63	73	2
120	146	2
161	163	1
145	146	1
65	65	2
20	53	1
113	115	2
14	61	2
165	166	1
7	82	1
145	145	1
157	158	1
47	50	2
151	152	1
28	28	2
0	97	1
160	161	1
113	133	2
141	162	1
86	119	2
150	151	2
8	9	1
56	57	1
22	48	3
14	63	1
94	145	1
15	17	1
164	165	1
128	131	1
112	115	2
96	118	1
22	27	1
133	135	1
150	155	1
93	99	1
116	136	1
0	81	1
72	72	1
80	149	1
120	122	1
70	71	2
10	25	1
68	69	1
62	73	1
