197	197	6
82	86	1
139	142	2
122	122	15
101	102	7
119	119	13
87	130	3
80	88	5
102	102	3
14	14	13
8	180	3
150	151	3
149	149	17
76	77	2
107	107	7
24	27	3
108	188	5
171	171	12
141	158	4
145	145	12
152	152	12
158	158	10
49	51	1
144	144	17
5	5	13
94	108	2
24	24	19
111	112	4
53	54	4
20	26	6
74	74	6
77	77	10
168	168	20
70	70	4
73	73	7
183	183	15
42	43	6
186	186	9
106	108	1
182	183	2
72	73	10
122	187	5
13	13	10
169	169	12
45	45	9
79	79	10
7	7	4
59	59	7
54	66	4
160	160	6
97	97	5
154	154	11
60	60	6
64	64	18
176	176	11
53	53	5
185	185	6
50	50	10
121	190	3
108	108	7
12	13	2
60	65	1
83	83	4
12	12	6
88	88	16
94	95	3
24	26	4
50	51	8
168	169	4
15	15	3
194	194	1
72	72	7
47	47	8
164	164	6
118	118	5
143	144	3
148	148	3
179	195	1
48	48	6
57	57	3
78	78	10
192	192	5
45	48	2
184	184	23
46	46	2
71	72	4
115	115	4
76	76	8
53	57	2
192	193	3
38	38	4
43	43	4
3	3	7
28	30	2
109	109	5
115	116	3
86	86	8
55	55	6
60	61	2
0	0	6
54	54	12
190	190	5
81	81	18
16	16	15
133	133	10
105	106	2
168	192	1
80	80	13
81	132	2
136	136	7
114	119	2
185	186	5
175	176	1
58	58	9
167	167	4
139	139	2
173	174	9
69	77	2
169	174	4
7	8	1
10	11	4
73	79	1
170	174	2
79	88	8
10	13	3
180	180	6
171	172	2
127	127	8
69	69	7
87	87	11
124	124	7
21	24	1
128	128	1
26	26	2
98	98	6
67	68	5
51	51	11
55	69	2
123	123	16
103	103	5
132	132	11
107	108	1
137	153	3
177	178	2
116	118	3
136	138	3
170	170	5
187	194	3
89	90	1
177	191	6
4	4	8
31	181	3
29	30	8
163	163	1
29	29	6
41	41	9
46	47	3
172	173	3
79	80	1
30	31	3
141	141	9
61	61	5
93	97	1
18	18	4
177	177	8
52	52	4
70	73	2
9	186	1
153	153	16
13	24	2
124	125	1
89	137	4
30	30	11
181	181	9
5	7	6
39	39	7
60	71	2
24	25	3
121	189	7
137	137	7
191	192	4
62	62	3
27	27	6
35	104	2
7	29	6
77	78	4
150	150	2
142	143	1
111	111	1
196	197	3
106	107	1
187	187	8
54	56	2
44	44	3
95	96	6
143	147	8
65	65	4
122	179	4
144	145	1
129	129	8
182	186	2
117	118	2
137	138	3
15	17	1
151	156	6
102	106	4
130	130	4
87	88	9
96	97	2
147	147	3
114	114	4
114	197	2
62	63	2
188	189	1
14	16	7
71	71	16
176	177	5
111	162	2
110	110	4
103	106	3
99	100	5
125	126	4
157	157	1
64	86	1
82	82	5
84	84	2
20	20	7
113	166	5
88	132	2
19	20	1
156	156	7
155	155	2
34	36	1
20	21	7
114	123	2
2	2	1
69	70	4
42	53	6
9	9	11
196	196	1
44	85	1
169	176	1
85	85	3
122	185	4
51	52	2
59	63	2
131	134	4
125	125	4
113	114	6
113	113	4
45	46	4
172	172	4
116	116	11
49	49	5
108	125	1
117	117	2
174	174	5
78	79	3
40	40	6
17	19	2
140	141	3
184	185	3
118	119	5
179	189	2
165	165	1
62	78	3
111	161	2
142	142	6
34	35	3
194	195	3
195	196	3
96	160	1
63	64	5
5	8	2
179	179	9
31	31	5
1	4	1
155	156	2
150	156	3
25	25	2
123	124	1
17	17	2
19	19	6
60	64	4
57	129	4
37	42	2
14	46	1
43	44	2
100	101	1
33	33	6
22	27	3
119	168	5
119	120	3
130	131	5
23	23	4
22	23	4
16	29	1
30	181	2
68	78	1
106	185	2
24	45	2
27	28	5
0	2	4
130	134	2
119	125	2
101	133	1
140	142	2
75	75	2
9	12	1
42	42	12
96	108	2
3	5	3
121	195	2
16	30	3
89	129	1
52	57	2
44	84	1
131	135	3
116	120	2
0	4	2
181	182	1
139	140	2
97	159	3
136	157	4
193	193	1
140	159	1
117	167	5
82	84	2
74	151	1
16	17	1
66	66	8
8	8	2
89	89	1
175	175	2
65	83	1
66	132	1
28	28	3
13	16	3
164	165	6
63	63	1
138	138	7
178	178	2
134	137	2
99	99	2
1	8	1
35	36	1
120	178	2
37	181	2
2	5	2
182	187	2
131	131	2
33	34	2
189	189	7
97	98	2
27	44	2
10	10	2
8	9	1
6	6	1
104	186	1
138	139	3
114	125	3
62	67	1
143	143	4
108	109	1
148	149	2
103	187	1
11	31	2
161	161	6
152	157	2
21	85	4
169	170	4
113	161	1
34	187	2
67	67	1
38	39	2
140	140	4
10	12	2
57	71	1
159	160	7
112	112	4
109	122	2
36	36	2
135	136	1
35	35	4
104	104	2
68	68	2
134	134	2
56	56	4
23	27	1
6	8	1
120	120	3
159	159	2
66	81	1
161	162	2
66	67	1
32	33	1
115	163	1
167	168	1
88	156	2
4	7	1
22	22	4
21	21	1
83	86	2
65	66	2
132	133	1
162	163	1
56	129	1
47	48	5
195	195	3
25	43	1
38	41	1
56	67	1
107	122	1
122	123	1
161	163	1
112	113	2
119	124	1
26	27	2
153	154	1
102	103	2
153	158	1
152	153	1
4	8	2
188	188	1
11	51	1
122	124	1
90	90	1
123	184	1
100	100	1
177	190	1
4	5	1
43	83	1
62	66	1
59	60	1
32	32	1
179	188	1
27	31	1
127	128	1
115	120	1
80	151	1
74	79	2
70	71	1
180	181	1
64	65	1
31	32	1
