24	24	9
153	153	1
12	38	3
38	50	2
40	40	2
6	22	3
115	116	3
45	64	1
70	70	4
22	22	9
12	14	3
120	122	2
20	20	5
19	19	2
75	78	4
145	145	1
147	149	4
85	85	3
82	114	1
45	45	8
18	18	5
102	121	3
126	127	5
102	111	4
78	78	4
80	124	4
66	66	2
73	73	4
110	111	4
68	68	4
8	8	2
83	88	2
139	139	2
90	91	3
38	57	3
79	79	7
149	149	4
131	131	8
88	93	3
119	120	1
140	142	1
54	54	1
95	101	4
12	42	2
104	123	1
83	90	6
74	74	4
50	53	3
127	145	6
55	58	5
11	16	3
136	136	9
77	78	4
145	149	1
138	138	3
133	133	2
109	123	4
42	48	7
139	140	5
147	147	5
94	101	3
134	134	2
10	10	2
64	66	5
74	126	4
140	140	3
6	38	2
15	16	2
38	42	4
65	72	1
67	71	1
90	122	2
67	68	1
146	146	2
84	86	1
122	122	2
23	26	5
105	110	2
117	132	3
98	98	1
95	95	7
124	124	2
67	67	9
15	15	2
96	97	4
123	124	1
93	93	4
41	41	1
103	103	6
10	11	4
21	23	2
50	51	1
93	98	4
144	145	1
143	143	5
129	129	2
34	34	2
136	137	2
107	107	6
76	76	4
82	82	3
4	4	1
73	87	2
94	94	3
10	55	2
92	92	4
35	35	3
84	93	3
105	123	1
36	36	2
115	148	4
73	125	2
113	136	1
57	64	3
64	64	3
65	65	1
124	126	1
125	125	3
111	114	2
36	71	3
2	33	2
38	47	4
72	87	1
53	53	5
87	87	2
68	70	1
150	152	1
134	142	2
144	144	2
130	130	3
147	148	2
62	64	3
99	99	1
32	101	1
127	127	1
6	6	1
136	138	1
94	95	1
61	64	1
63	64	1
29	55	1
63	63	1
11	11	2
146	149	2
48	57	2
31	31	1
111	113	1
46	129	1
32	43	3
103	121	4
106	106	1
154	154	1
69	72	1
44	44	1
43	43	1
84	84	4
51	51	1
11	17	2
86	87	2
48	48	2
115	115	3
112	127	1
15	24	1
120	120	1
150	151	1
99	131	1
46	46	1
76	113	2
57	57	2
56	73	1
2	2	1
97	98	1
137	137	1
92	102	1
12	12	1
118	125	1
134	135	1
29	35	1
83	83	1
114	115	1
65	69	2
65	66	2
71	71	1
16	16	1
31	63	1
45	63	1
83	84	1
46	64	1
47	77	1
110	110	1
74	75	1
111	127	1
54	58	1
17	42	1
