37	37	4
18	18	6
242	242	11
241	242	2
197	219	3
220	221	4
174	176	3
55	55	8
19	20	2
166	170	3
189	189	8
115	115	5
90	91	2
94	94	2
15	16	1
96	99	4
210	211	3
32	32	7
39	39	5
63	63	7
62	62	10
5	205	3
215	216	7
41	41	3
47	58	2
44	44	5
154	154	7
222	222	15
152	157	2
68	68	8
209	209	4
71	71	1
145	145	5
155	155	4
166	166	3
101	101	2
100	100	6
179	179	1
91	91	4
236	236	6
38	39	3
205	206	5
169	169	7
8	8	5
193	193	7
36	36	3
47	47	3
52	52	8
60	60	7
58	58	9
19	19	6
217	217	12
188	188	2
199	200	3
114	114	7
93	118	4
161	162	7
118	118	6
6	7	1
54	54	9
57	58	4
213	214	2
246	246	4
214	214	4
204	204	7
2	2	2
56	56	1
49	50	3
88	89	3
205	205	2
152	160	2
210	210	8
29	29	5
46	46	3
232	232	3
213	213	14
213	229	1
34	34	7
168	207	1
96	96	2
185	185	8
201	201	6
202	202	1
215	215	7
22	22	1
173	173	9
5	5	10
247	247	8
146	147	3
95	95	4
158	158	3
245	245	6
61	62	3
198	209	1
208	208	4
78	78	4
28	28	6
235	235	4
15	15	11
96	97	1
31	31	7
98	99	6
105	106	3
156	156	14
107	107	2
212	212	8
24	24	2
116	116	4
169	172	2
191	191	6
93	93	1
64	64	3
53	53	3
92	93	2
4	4	9
248	248	4
6	6	4
85	87	3
87	120	1
215	218	5
157	157	6
224	224	5
162	162	4
237	237	2
9	10	2
178	178	8
153	157	4
4	5	4
17	17	4
195	197	1
216	216	3
187	187	3
200	201	4
71	72	2
21	21	4
113	113	4
170	170	5
223	225	1
150	150	8
59	59	4
184	185	3
216	217	1
84	86	4
25	25	5
111	111	6
203	203	6
80	80	8
77	77	5
24	25	8
179	180	2
183	183	4
118	121	2
198	198	8
65	209	2
218	219	1
73	75	4
218	218	12
230	230	1
40	40	3
185	192	2
174	174	4
218	221	2
183	212	1
42	42	2
108	108	1
154	155	1
64	67	1
211	211	4
103	103	4
117	117	7
224	240	1
181	181	3
163	164	1
197	210	1
9	9	1
158	159	1
157	158	1
84	84	2
14	14	8
49	49	3
69	69	5
182	182	9
23	23	8
177	179	2
188	189	1
152	152	7
20	20	5
26	43	1
85	85	2
171	185	4
38	38	1
229	229	5
45	45	3
86	86	3
180	180	2
102	102	2
12	12	1
87	87	3
98	98	2
109	109	4
108	111	2
165	208	1
248	249	1
67	72	2
239	240	1
28	31	3
168	182	2
70	74	1
100	101	2
73	74	4
1	1	6
241	241	2
76	167	3
67	70	1
3	5	2
183	184	1
151	153	1
94	95	1
74	74	1
187	192	3
66	66	2
33	33	4
201	204	4
10	10	4
97	97	2
99	99	1
46	47	1
103	105	3
238	238	4
172	172	2
163	163	2
199	199	1
3	3	1
221	221	2
244	244	2
67	73	3
225	225	6
114	115	1
228	228	2
239	239	1
81	81	1
146	146	1
47	48	3
89	90	1
11	11	2
234	234	2
90	90	2
197	198	1
186	187	5
75	75	5
219	237	1
175	175	2
177	177	2
82	82	1
83	83	1
81	87	2
204	205	3
220	220	1
219	219	3
81	92	2
207	207	1
191	192	2
214	215	1
3	4	1
244	245	1
153	155	1
88	88	1
169	171	2
93	104	1
75	207	1
160	160	2
119	121	1
246	247	2
39	40	2
174	175	2
67	67	1
164	164	6
119	119	2
179	181	1
176	177	1
50	57	1
70	70	4
65	65	2
80	86	3
27	43	2
195	195	1
153	154	2
55	56	1
79	79	2
184	192	1
110	110	1
81	103	3
221	222	1
194	195	2
235	236	1
72	72	1
43	44	1
23	24	2
43	43	1
26	26	2
35	35	1
231	233	1
192	192	3
165	169	1
222	223	4
12	15	2
200	200	1
27	27	1
29	229	3
161	161	1
198	199	1
243	243	1
169	173	1
92	92	1
51	51	3
49	59	1
146	150	1
61	61	2
165	166	1
165	165	3
70	86	1
186	186	3
29	30	1
217	218	4
86	88	1
116	203	1
204	207	2
190	190	1
73	73	1
142	142	1
167	167	1
152	153	1
213	217	1
197	211	1
68	69	1
16	16	1
65	66	1
163	207	1
11	12	1
103	104	1
207	208	1
97	98	1
80	84	1
224	225	1
181	182	1
223	223	1
225	226	2
159	159	1
